'Id: "" Comment: "" Operator: "Lab Manager" Anode: "Cu" Scantype: "Locked Coupled" TimePerStep: "19.2" X: "9999" Y: "9999" Z: "9999" 
10.0015 0.000
10.0318 2.137
10.0620 3.389
10.0923 7.245
10.1226 13.446
10.1529 14.021
10.1832 16.367
10.2134 25.275
10.2437 21.945
10.2740 26.635
10.3043 26.117
10.3346 33.932
10.3648 31.747
10.3951 32.792
10.4254 37.014
10.4557 36.548
10.4859 35.874
10.5162 33.690
10.5465 35.308
10.5768 36.145
10.6071 31.096
10.6373 30.162
10.6676 27.145
10.6979 26.472
10.7282 24.237
10.7585 22.261
10.7887 17.891
10.8190 20.082
10.8493 15.868
10.8796 13.060
10.9098 9.106
10.9401 5.725
10.9704 9.115
11.0007 4.120
11.0310 3.500
11.0612 5.536
11.0915 0.385
11.1218 1.067
11.1521 0.395
11.1824 1.338
11.2126 1.916
11.2429 0.099
11.2732 -4.375
11.3035 -1.172
11.3337 1.509
11.3640 0.077
11.3943 -0.262
11.4246 -0.966
11.4549 -2.242
11.4851 2.055
11.5154 -0.992
11.5457 1.065
11.5760 2.550
11.6063 -0.549
11.6365 1.925
11.6668 -0.288
11.6971 1.301
11.7274 1.224
11.7577 -2.187
11.7879 -1.395
11.8182 3.669
11.8485 -0.226
11.8788 -0.370
11.9090 1.204
11.9393 0.122
11.9696 -0.491
11.9999 -1.208
12.0302 0.053
12.0604 0.480
12.0907 0.699
12.1210 -0.592
12.1513 0.722
12.1816 -0.673
12.2118 -0.141
12.2421 -1.067
12.2724 0.507
12.3027 0.414
12.3329 0.999
12.3632 -0.344
12.3935 0.762
12.4238 0.774
12.4541 -0.256
12.4843 2.152
12.5146 0.393
12.5449 -0.115
12.5752 -0.155
12.6055 -0.924
12.6357 -1.224
12.6660 0.662
12.6963 0.412
12.7266 1.569
12.7568 -0.660
12.7871 -0.284
12.8174 -1.575
12.8477 1.300
12.8780 -0.616
12.9082 -0.604
12.9385 0.136
12.9688 -0.321
12.9991 1.201
13.0294 -0.819
13.0596 -1.067
13.0899 0.752
13.1202 -0.345
13.1505 1.110
13.1807 0.429
13.2110 -0.928
13.2413 0.631
13.2716 -0.570
13.3019 1.042
13.3321 0.154
13.3624 1.297
13.3927 0.982
13.4230 0.302
13.4533 0.716
13.4835 0.662
13.5138 -0.747
13.5441 -0.801
13.5744 0.603
13.6046 -1.014
13.6349 -0.234
13.6652 -0.705
13.6955 -0.030
13.7258 0.750
13.7560 -0.866
13.7863 0.903
13.8166 -0.348
13.8469 -0.558
13.8772 -0.872
13.9074 -0.570
13.9377 0.722
13.9680 2.638
13.9983 -1.070
14.0285 0.013
14.0588 -0.153
14.0891 1.295
14.1194 -0.746
14.1497 2.108
14.1799 -0.870
14.2102 1.099
14.2405 1.870
14.2708 -2.045
14.3011 0.653
14.3313 0.436
14.3616 1.155
14.3919 3.490
14.4222 1.189
14.4524 -0.799
14.4827 0.442
14.5130 1.735
14.5433 -0.201
14.5736 1.092
14.6038 1.709
14.6341 1.179
14.6644 1.900
14.6947 1.215
14.7250 1.884
14.7552 0.209
14.7855 1.867
14.8158 3.630
14.8461 2.060
14.8764 0.906
14.9066 3.503
14.9369 3.807
14.9672 3.175
14.9975 1.657
15.0277 2.066
15.0580 3.882
15.0883 2.416
15.1186 3.816
15.1489 3.965
15.1791 3.125
15.2094 3.534
15.2397 3.788
15.2700 2.011
15.3003 3.983
15.3305 3.664
15.3608 3.345
15.3911 3.964
15.4214 5.156
15.4516 3.483
15.4819 6.029
15.5122 3.367
15.5425 6.174
15.5728 3.668
15.6030 6.423
15.6333 5.896
15.6636 4.172
15.6939 4.479
15.7242 4.787
15.7544 3.636
15.7847 6.547
15.8150 3.625
15.8453 3.829
15.8755 3.095
15.9058 4.132
15.9361 4.908
15.9664 1.623
15.9967 4.379
16.0269 3.749
16.0572 5.047
16.0875 2.230
16.1178 4.570
16.1481 3.264
16.1783 1.802
16.2086 4.246
16.2389 3.929
16.2692 2.728
16.2994 3.141
16.3297 3.033
16.3600 1.936
16.3903 4.016
16.4206 2.346
16.4508 1.822
16.4811 2.601
16.5114 1.973
16.5417 0.616
16.5720 0.821
16.6022 2.121
16.6325 -0.278
16.6628 1.230
16.6931 1.228
16.7233 0.496
16.7536 2.578
16.7839 0.544
16.8142 -0.604
16.8445 1.217
16.8747 1.007
16.9050 2.203
16.9353 -0.142
16.9656 2.356
16.9959 0.219
17.0261 1.051
17.0564 1.102
17.0867 -0.930
17.1170 0.006
17.1472 1.047
17.1775 0.890
17.2078 -0.570
17.2381 1.253
17.2684 1.200
17.2986 0.991
17.3289 0.730
17.3592 -1.562
17.3895 -0.693
17.4198 1.217
17.4500 1.252
17.4803 0.402
17.5106 0.074
17.5409 1.255
17.5712 0.145
17.6014 -0.132
17.6317 1.467
17.6620 -0.164
17.6923 1.070
17.7225 0.586
17.7528 2.341
17.7831 0.971
17.8134 1.060
17.8437 1.513
17.8739 1.133
17.9042 1.899
17.9345 1.103
17.9648 0.619
17.9951 1.333
18.0253 2.464
18.0556 1.824
18.0859 1.601
18.1162 3.044
18.1464 2.717
18.1767 1.557
18.2070 3.157
18.2373 2.570
18.2676 2.400
18.2978 4.156
18.3281 4.559
18.3584 4.024
18.3887 4.323
18.4190 5.403
18.4492 5.285
18.4795 3.344
18.5098 4.685
18.5401 5.297
18.5703 6.065
18.6006 6.312
18.6309 5.257
18.6612 5.192
18.6915 6.012
18.7217 4.281
18.7520 7.341
18.7823 6.808
18.8126 6.899
18.8429 3.762
18.8731 6.353
18.9034 5.456
18.9337 6.954
18.9640 6.056
18.9942 6.357
19.0245 5.251
19.0548 5.760
19.0851 5.384
19.1154 5.060
19.1456 5.361
19.1759 3.787
19.2062 4.036
19.2365 3.556
19.2668 5.888
19.2970 4.887
19.3273 2.897
19.3576 3.720
19.3879 2.771
19.4181 2.396
19.4484 2.541
19.4787 2.479
19.5090 2.052
19.5393 1.833
19.5695 0.677
19.5998 2.698
19.6301 1.646
19.6604 1.271
19.6907 1.522
19.7209 2.658
19.7512 1.294
19.7815 0.555
19.8118 2.004
19.8420 0.901
19.8723 0.162
19.9026 2.184
19.9329 0.716
19.9632 0.186
19.9934 -0.500
20.0237 1.262
20.0540 0.837
20.0843 0.620
20.1146 0.611
20.1448 0.550
20.1751 0.594
20.2054 1.367
20.2357 0.890
20.2659 0.152
20.2962 -0.481
20.3265 0.344
20.3568 0.076
20.3871 0.537
20.4173 1.519
20.4476 0.730
20.4779 0.358
20.5082 1.288
20.5385 -0.543
20.5687 0.492
20.5990 0.328
20.6293 1.467
20.6596 0.574
20.6899 0.724
20.7201 0.352
20.7504 -0.123
20.7807 0.235
20.8110 -0.189
20.8412 -0.508
20.8715 -0.925
20.9018 1.261
20.9321 0.896
20.9624 1.051
20.9926 0.478
21.0229 0.529
21.0532 1.727
21.0835 0.893
21.1138 2.091
21.1440 1.257
21.1743 0.945
21.2046 2.091
21.2349 0.580
21.2651 0.581
21.2954 -0.096
21.3257 0.165
21.3560 0.634
21.3863 0.843
21.4165 -0.094
21.4468 0.167
21.4771 -0.405
21.5074 1.263
21.5377 0.066
21.5679 -0.506
21.5982 0.589
21.6285 -0.035
21.6588 0.383
21.6890 0.697
21.7193 -0.291
21.7496 0.752
21.7799 0.181
21.8102 -0.598
21.8404 -0.131
21.8707 0.023
21.9010 -0.187
21.9313 0.333
21.9616 0.279
21.9918 -0.503
22.0221 -0.140
22.0524 -0.558
22.0827 0.275
22.1129 0.013
22.1432 -0.352
22.1735 0.689
22.2038 -0.041
22.2341 -0.406
22.2643 0.583
22.2946 -1.189
22.3249 -0.460
22.3552 -0.200
22.3855 0.165
22.4157 1.415
22.4460 -0.720
22.4763 0.061
22.5066 0.061
22.5368 -0.147
22.5671 -0.251
22.5974 0.479
22.6277 -0.562
22.6580 0.220
22.6882 -0.092
22.7185 -0.508
22.7488 -0.206
22.7791 0.304
22.8094 0.398
22.8396 0.179
22.8699 0.949
22.9002 -0.519
22.9305 0.564
22.9607 0.137
22.9910 0.075
23.0213 1.211
23.0516 -0.310
23.0819 0.826
23.1121 0.765
23.1424 0.911
23.1727 0.120
23.2030 1.205
23.2333 0.206
23.2635 0.821
23.2938 -0.230
23.3241 0.803
23.3544 2.304
23.3846 0.420
23.4149 0.672
23.4452 1.028
23.4755 0.863
23.5058 2.313
23.5360 0.377
23.5663 0.837
23.5966 1.454
23.6269 2.383
23.6572 2.740
23.6874 2.003
23.7177 1.422
23.7480 1.466
23.7783 -0.417
23.8086 1.294
23.8388 0.870
23.8691 1.540
23.8994 0.699
23.9297 2.723
23.9599 2.195
23.9902 1.875
24.0205 1.555
24.0508 2.903
24.0811 1.750
24.1113 3.306
24.1416 3.612
24.1719 1.834
24.2022 1.984
24.2325 1.561
24.2627 2.648
24.2930 1.652
24.3233 2.740
24.3536 2.786
24.3838 2.259
24.4141 2.149
24.4444 2.248
24.4747 3.231
24.5050 2.965
24.5352 1.554
24.5655 3.423
24.5958 2.324
24.6261 2.475
24.6564 3.512
24.6866 3.403
24.7169 1.627
24.7472 3.809
24.7775 3.232
24.8077 2.967
24.8380 5.306
24.8683 4.051
24.8986 3.422
24.9289 3.626
24.9591 3.934
24.9894 2.367
25.0197 3.770
25.0500 4.443
25.0803 3.397
25.1105 3.445
25.1408 4.848
25.1711 5.313
25.2014 6.143
25.2316 4.525
25.2619 5.355
25.2922 3.945
25.3225 4.828
25.3528 5.398
25.3830 5.551
25.4133 7.006
25.4436 4.556
25.4739 6.949
25.5042 5.331
25.5344 5.225
25.5647 5.379
25.5950 5.637
25.6253 5.634
25.6555 5.007
25.6858 5.995
25.7161 6.462
25.7464 5.262
25.7767 5.885
25.8069 5.206
25.8372 5.882
25.8675 6.297
25.8978 6.139
25.9281 7.648
25.9583 6.345
25.9886 5.719
26.0189 5.926
26.0492 5.821
26.0794 5.976
26.1097 8.007
26.1400 7.277
26.1703 5.557
26.2006 9.307
26.2308 7.744
26.2611 7.379
26.2914 5.556
26.3217 7.691
26.3520 7.743
26.3822 6.701
26.4125 8.420
26.4428 7.431
26.4731 10.400
26.5034 7.744
26.5336 5.974
26.5639 8.266
26.5942 7.485
26.6245 10.455
26.6547 8.893
26.6850 8.373
26.7153 9.103
26.7456 8.219
26.7759 11.189
26.8061 10.669
26.8364 10.202
26.8667 9.683
26.8970 9.788
26.9273 10.884
26.9575 10.781
26.9878 10.731
27.0181 10.525
27.0484 12.037
27.0786 11.310
27.1089 11.469
27.1392 11.262
27.1695 12.411
27.1998 9.132
27.2300 10.176
27.2603 11.481
27.2906 9.192
27.3209 11.330
27.3512 12.583
27.3814 9.461
27.4117 12.172
27.4420 10.249
27.4723 10.460
27.5025 11.245
27.5328 11.092
27.5631 10.887
27.5934 12.505
27.6237 10.895
27.6539 11.003
27.6842 9.809
27.7145 12.417
27.7448 11.796
27.7751 10.290
27.8053 11.544
27.8356 9.777
27.8659 12.334
27.8962 10.880
27.9264 10.051
27.9567 11.098
27.9870 11.467
28.0173 10.326
28.0476 10.331
28.0778 10.128
28.1081 8.623
28.1384 9.774
28.1687 10.300
28.1990 9.785
28.2292 9.269
28.2595 8.285
28.2898 9.854
28.3201 7.464
28.3503 9.240
28.3806 7.632
28.4109 9.252
28.4412 8.998
28.4715 8.692
28.5017 8.334
28.5320 8.653
28.5623 7.774
28.5926 8.874
28.6229 7.475
28.6531 8.054
28.6834 6.395
28.7137 4.475
28.7440 5.002
28.7742 5.530
28.8045 6.840
28.8348 6.170
28.8651 5.709
28.8954 4.102
28.9256 4.213
28.9559 5.419
28.9862 5.219
29.0165 3.716
29.0468 4.349
29.0770 4.357
29.1073 3.011
29.1376 2.707
29.1679 2.299
29.1981 3.192
29.2284 3.305
29.2587 3.522
29.2890 1.968
29.3193 2.029
29.3495 2.038
29.3798 3.193
29.4101 2.629
29.4404 2.378
29.4707 1.293
29.5009 2.344
29.5312 2.510
29.5615 2.832
29.5918 0.862
29.6221 2.643
29.6523 1.194
29.6826 0.215
29.7129 1.110
29.7432 0.391
29.7734 -0.120
29.8037 2.338
29.8340 0.265
29.8643 1.578
29.8946 0.182
29.9248 2.172
29.9551 1.297
29.9854 0.058
30.0157 0.850
30.0460 1.278
30.0762 1.289
30.1065 0.883
30.1368 1.051
30.1671 0.489
30.1973 -0.124
30.2276 0.825
30.2579 -0.153
30.2882 0.015
30.3185 0.599
30.3487 -0.899
30.3790 0.675
30.4093 -0.823
30.4396 1.064
30.4699 -0.226
30.5001 -0.057
30.5304 0.476
30.5607 -1.334
30.5910 0.033
30.6212 0.462
30.6515 0.683
30.6818 0.383
30.7121 -0.125
30.7424 0.305
30.7726 0.579
30.8029 0.280
30.8332 0.709
30.8635 -0.058
30.8938 -0.409
30.9240 0.177
30.9543 0.712
30.9846 -0.160
31.0149 0.896
31.0451 1.014
31.0754 0.455
31.1057 -0.312
31.1360 0.848
31.1663 0.602
31.1965 0.147
31.2268 0.995
31.2571 0.385
31.2874 1.181
31.3177 1.039
31.3479 0.794
31.3782 1.225
31.4085 0.980
31.4388 1.516
31.4690 0.333
31.4993 1.026
31.5296 0.676
31.5599 1.056
31.5902 1.332
31.6204 0.515
31.6507 1.781
31.6810 0.807
31.7113 0.719
31.7416 0.995
31.7718 -0.030
31.8021 0.611
31.8324 0.940
31.8627 1.060
31.8929 -0.382
31.9232 0.416
31.9535 1.058
31.9838 0.241
32.0141 0.571
32.0443 -0.089
32.0746 0.605
32.1049 1.038
32.1352 0.014
32.1655 0.760
32.1957 0.674
32.2260 0.535
32.2563 0.761
32.2866 1.247
32.3169 -0.089
32.3471 0.554
32.3774 1.197
32.4077 0.433
32.4380 0.712
32.4682 0.886
32.4985 0.644
32.5288 2.121
32.5591 2.088
32.5894 1.377
32.6196 2.281
32.6499 1.623
32.6802 2.787
32.7105 2.858
32.7408 2.096
32.7710 1.074
32.8013 2.291
32.8316 1.737
32.8619 1.027
32.8921 1.932
32.9224 1.796
32.9527 0.669
32.9830 1.054
33.0133 0.344
33.0435 1.094
33.0738 1.843
33.1041 0.561
33.1344 0.737
33.1647 1.226
33.1949 1.090
33.2252 0.955
33.2555 -0.014
33.2858 0.840
33.3160 0.079
33.3463 0.308
33.3766 0.069
33.4069 0.298
33.4372 1.153
33.4674 0.028
33.4977 -0.263
33.5280 0.175
33.5583 1.238
33.5886 0.426
33.6188 0.240
33.6491 -0.468
33.6794 -0.211
33.7097 -0.162
33.7399 0.720
33.7702 0.300
33.8005 0.297
33.8308 -0.123
33.8611 0.343
33.8913 0.757
33.9216 0.546
33.9519 0.647
33.9822 0.749
34.0125 0.746
34.0427 0.483
34.0730 -0.144
34.1033 0.479
34.1336 0.373
34.1638 0.423
34.1941 0.421
34.2244 0.367
34.2547 1.355
34.2850 0.728
34.3152 -0.472
34.3455 0.777
34.3758 -0.631
34.4061 1.139
34.4364 0.096
34.4666 -0.114
34.4969 0.823
34.5272 0.770
34.5575 0.821
34.5877 0.768
34.6180 0.976
34.6483 0.298
34.6786 0.558
34.7089 -0.015
34.7391 0.557
34.7694 -0.172
34.7997 0.870
34.8300 1.703
34.8603 0.349
34.8905 0.766
34.9208 0.505
34.9511 1.079
34.9814 0.767
35.0116 1.132
35.0419 0.455
35.0722 0.664
35.1025 0.404
35.1328 -0.063
35.1630 0.875
35.1933 0.720
35.2236 0.513
35.2539 0.774
35.2842 0.463
35.3144 0.985
35.3447 0.101
35.3750 0.155
35.4053 1.303
35.4356 1.252
35.4658 0.785
35.4961 1.100
35.5264 2.456
35.5567 0.219
35.5869 1.367
35.6172 1.525
35.6475 1.580
35.6778 0.957
35.7081 1.220
35.7383 1.744
35.7686 1.174
35.7989 0.499
35.8292 1.127
35.8595 1.078
35.8897 1.238
35.9200 1.137
35.9503 1.192
35.9806 1.820
36.0108 2.084
36.0411 1.671
36.0714 1.154
36.1017 0.793
36.1320 1.630
36.1622 0.853
36.1925 1.222
36.2228 0.965
36.2531 0.501
36.2834 1.599
36.3136 -0.168
36.3439 1.608
36.3742 1.039
36.4045 0.992
36.4347 0.216
36.4650 -0.144
36.4953 0.225
36.5256 0.543
36.5559 0.704
36.5861 0.762
36.6164 0.402
36.6467 0.720
36.6770 0.882
36.7073 0.471
36.7375 0.528
36.7678 1.003
36.7981 -0.033
36.8284 0.754
36.8586 0.917
36.8889 0.350
36.9192 0.148
36.9495 1.039
36.9798 0.056
37.0100 1.052
37.0403 0.121
37.0706 0.545
37.1009 0.812
37.1312 0.350
37.1614 -0.060
37.1917 -0.001
37.2220 -0.150
37.2523 0.482
37.2825 1.063
37.3128 0.966
37.3431 0.504
37.3734 0.200
37.4037 0.520
37.4339 0.944
37.4642 0.848
37.4945 0.127
37.5248 0.864
37.5551 0.455
37.5853 -0.787
37.6156 0.524
37.6459 -0.301
37.6762 1.218
37.7064 0.185
37.7367 0.402
37.7670 0.514
37.7973 0.836
37.8276 0.272
37.8578 0.229
37.8881 0.915
37.9184 0.820
37.9487 0.777
37.9790 0.370
38.0092 0.796
38.0395 0.285
38.0698 0.555
38.1001 0.877
38.1304 0.939
38.1606 0.376
38.1909 0.334
38.2212 0.500
38.2515 0.354
38.2817 0.416
38.3120 1.000
38.3423 1.166
38.3726 0.552
38.4029 0.511
38.4331 0.052
38.4634 0.428
38.4937 0.855
38.5240 0.346
38.5543 0.409
38.5845 0.316
38.6148 0.952
38.6451 -0.599
38.6754 0.558
38.7056 0.414
38.7359 0.269
38.7662 -0.032
38.7965 0.397
38.8268 0.304
38.8570 0.941
38.8873 0.120
38.9176 0.653
38.9479 -0.585
38.9782 0.261
39.0084 0.274
39.0387 -0.235
39.0690 0.507
39.0993 0.624
39.1295 -0.197
39.1598 0.389
39.1901 0.246
39.2204 0.311
39.2507 0.533
39.2809 -0.287
39.3112 0.872
39.3415 0.573
39.3718 -0.143
39.4021 -0.338
39.4323 0.128
39.4626 0.332
39.4929 -0.348
39.5232 0.170
39.5534 0.062
39.5837 0.007
39.6140 0.108
39.6443 -0.364
39.6746 -0.054
39.7048 0.568
39.7351 0.409
39.7654 0.303
39.7957 -0.325
39.8260 1.183
39.8562 0.191
39.8865 0.450
39.9168 -0.126
39.9471 0.445
39.9773 -0.130
40.0076 0.233
40.0379 0.336
40.0682 1.115
40.0985 -0.032
40.1287 0.383
40.1590 0.382
40.1893 -0.141
40.2196 1.108
40.2499 0.013
40.2801 0.794
40.3104 0.532
40.3407 -0.094
40.3710 0.270
40.4012 0.478
40.4315 -0.044
40.4618 0.112
40.4921 -0.045
40.5224 -0.097
40.5526 -0.305
40.5829 0.371
40.6132 0.007
40.6435 0.892
40.6738 -0.149
40.7040 0.111
40.7343 0.060
40.7646 0.425
40.7949 0.373
40.8251 0.374
40.8554 0.426
40.8857 0.583
40.9160 0.793
40.9463 0.689
40.9765 -0.143
41.0068 0.587
41.0371 0.172
41.0674 0.694
41.0977 -0.242
41.1279 -0.188
41.1582 -0.083
41.1885 0.700
41.2188 -0.131
41.2491 -0.286
41.2793 1.331
41.3096 0.656
41.3399 -0.071
41.3702 0.452
41.4004 0.611
41.4307 0.405
41.4610 0.511
41.4913 0.358
41.5216 0.621
41.5518 -0.106
41.5821 -0.103
41.6124 0.213
41.6427 -0.305
41.6730 0.844
41.7032 0.430
41.7335 -0.296
41.7638 -0.344
41.7941 0.440
41.8243 -0.650
41.8546 -0.021
41.8849 0.087
41.9152 -0.274
41.9455 0.772
41.9757 -0.058
42.0060 -0.105
42.0363 0.211
42.0666 0.580
42.0969 0.741
42.1271 0.329
42.1574 0.073
42.1877 -0.027
42.2180 0.030
42.2482 0.087
42.2785 0.613
42.3088 0.826
42.3391 -0.367
42.3694 -0.257
42.3996 0.061
42.4299 0.170
42.4602 -0.293
42.4905 0.390
42.5208 0.760
42.5510 -0.537
42.5813 0.251
42.6116 0.569
42.6419 0.262
42.6721 0.008
42.7024 0.275
42.7327 0.281
42.7630 -0.390
42.7933 -0.228
42.8235 0.350
42.8538 -0.061
42.8841 0.726
42.9144 0.679
42.9447 0.320
42.9749 0.222
43.0052 0.176
43.0355 0.234
43.0658 -0.333
43.0960 0.819
43.1263 -0.164
43.1566 0.154
43.1869 -0.152
43.2172 0.063
43.2474 0.330
43.2777 0.129
43.3080 -0.125
43.3383 0.194
43.3686 0.201
43.3988 0.365
43.4291 -0.149
43.4594 -0.298
43.4897 -0.239
43.5199 0.394
43.5502 0.037
43.5805 0.253
43.6108 -0.312
43.6411 -0.415
43.6713 0.524
43.7016 0.108
43.7319 0.266
43.7622 0.112
43.7925 -0.303
43.8227 0.011
43.8530 0.065
43.8833 0.119
43.9136 0.486
43.9439 -0.293
43.9741 0.334
44.0044 0.493
44.0347 0.235
44.0650 0.238
44.0952 0.136
44.1255 0.504
44.1558 0.090
44.1861 -0.063
44.2164 -0.165
44.2466 -0.005
44.2769 -0.002
44.3072 0.106
44.3375 -0.047
44.3678 0.321
44.3980 0.741
44.4283 -0.089
44.4586 -0.085
44.4889 0.023
44.5191 -0.337
44.5494 0.028
44.5797 0.446
44.6100 0.239
44.6403 -0.437
44.6705 0.190
44.7008 0.348
44.7311 0.297
44.7614 0.195
44.7917 0.717
44.8219 -0.739
44.8522 -0.112
44.8825 0.776
44.9128 0.101
44.9430 0.051
44.9733 -0.363
45.0036 -0.004
45.0339 0.669
45.0642 0.612
45.0944 -0.070
45.1247 -0.074
45.1550 0.547
45.1853 -0.031
45.2156 0.434
45.2458 -0.404
45.2761 0.374
45.3064 0.734
45.3367 0.262
45.3669 -0.106
45.3972 0.671
45.4275 0.095
45.4578 0.300
45.4881 -0.381
45.5183 0.762
45.5486 0.602
45.5789 0.391
45.6092 0.179
45.6395 0.645
45.6697 0.174
45.7000 0.692
45.7303 1.054
45.7606 0.010
45.7908 0.424
45.8211 0.473
45.8514 0.055
45.8817 0.209
45.9120 0.415
45.9422 0.048
45.9725 0.411
46.0028 0.409
46.0331 0.355
46.0634 0.406
46.0936 0.248
46.1239 0.142
46.1542 -0.120
46.1845 0.140
46.2147 1.232
46.2450 0.450
46.2753 0.501
46.3056 0.240
46.3359 -0.022
46.3661 1.280
46.3964 0.342
46.4267 -0.076
46.4570 -0.076
46.4873 0.184
46.5175 0.079
46.5478 -0.337
46.5781 -0.033
46.6084 0.167
46.6386 0.108
46.6689 -0.369
46.6992 0.561
46.7295 -0.228
46.7598 0.546
46.7900 0.330
46.8203 -0.406
46.8506 0.107
46.8809 -0.108
46.9112 0.197
46.9414 0.607
46.9717 -0.129
47.0020 -0.344
47.0323 0.743
47.0626 0.268
47.0928 -0.676
47.1231 -0.221
47.1534 0.130
47.1837 0.065
47.2139 0.103
47.2442 0.872
47.2745 0.181
47.3048 0.741
47.3351 0.624
47.3653 0.663
47.3956 0.546
47.4259 -0.456
47.4562 0.834
47.4865 -0.273
47.5167 0.913
47.5470 -0.558
47.5773 0.472
47.6076 -0.061
47.6378 0.291
47.6681 0.123
47.6984 -0.097
47.7287 0.203
47.7590 0.400
47.7892 0.857
47.8195 0.585
47.8498 0.626
47.8801 -0.114
47.9104 0.187
47.9406 1.009
47.9709 0.165
48.0012 0.102
48.0315 0.091
48.0617 0.288
48.0920 0.486
48.1223 0.319
48.1526 0.361
48.1829 0.506
48.2131 0.444
48.2434 0.850
48.2737 -0.566
48.3040 0.414
48.3343 0.247
48.3645 0.342
48.3948 -0.085
48.4251 1.103
48.4554 0.469
48.4856 0.147
48.5159 0.710
48.5462 0.336
48.5765 0.848
48.6068 0.474
48.6370 0.257
48.6673 0.456
48.6976 0.291
48.7279 1.064
48.7582 0.430
48.7884 0.890
48.8187 0.621
48.8490 0.352
48.8793 0.448
48.9095 1.325
48.9398 0.588
48.9701 0.267
49.0004 0.884
49.0307 0.564
49.0609 1.233
49.0912 0.861
49.1215 0.853
49.1518 1.367
49.1821 0.630
49.2123 0.519
49.2426 0.824
49.2729 1.233
49.3032 1.487
49.3334 1.428
49.3637 0.431
49.3940 0.529
49.4243 1.616
49.4546 1.036
49.4848 0.925
49.5151 0.971
49.5454 1.381
49.5757 1.427
49.6060 0.640
49.6362 0.530
49.6665 0.888
49.6968 0.570
49.7271 0.720
49.7574 0.871
49.7876 1.334
49.8179 0.860
49.8482 0.802
49.8785 1.057
49.9087 1.469
49.9390 1.463
49.9693 0.833
49.9996 1.297
50.0299 1.761
50.0601 0.558
50.0904 1.283
50.1207 1.174
50.1510 1.482
50.1813 1.373
50.2115 1.265
50.2418 1.000
50.2721 0.006
50.3024 1.148
50.3326 1.405
50.3629 1.453
50.3932 0.459
50.4235 1.237
50.4538 2.171
50.4840 1.542
50.5143 1.643
50.5446 0.806
50.5749 0.386
50.6052 1.112
50.6354 1.318
50.6657 1.783
50.6960 1.260
50.7263 1.100
50.7565 2.400
50.7868 0.939
50.8171 0.728
50.8474 1.923
50.8777 1.504
50.9079 1.086
50.9382 0.458
50.9685 1.290
50.9988 1.340
51.0291 0.765
51.0593 1.388
51.0896 1.751
51.1199 1.958
51.1502 1.696
51.1804 1.955
51.2107 1.172
51.2410 1.900
51.2713 1.326
51.3016 1.481
51.3318 0.542
51.3621 1.896
51.3924 1.634
51.4227 1.686
51.4530 1.841
51.4832 1.268
51.5135 0.174
51.5438 0.642
51.5741 1.006
51.6043 0.433
51.6346 0.902
51.6649 1.058
51.6952 0.954
51.7255 1.475
51.7557 1.684
51.7860 1.059
51.8163 1.112
51.8466 1.477
51.8769 0.592
51.9071 1.114
51.9374 1.375
51.9677 0.126
51.9980 0.752
52.0282 -0.081
52.0585 0.650
52.0888 0.495
52.1191 0.704
52.1494 0.393
52.1796 0.707
52.2099 0.605
52.2402 -0.175
52.2705 0.817
52.3008 0.767
52.3310 0.039
52.3613 1.083
52.3916 0.356
52.4219 1.452
52.4521 0.621
52.4824 0.467
52.5127 0.314
52.5430 0.160
52.5733 0.996
52.6035 0.113
52.6338 0.012
52.6641 0.276
52.6944 -0.346
52.7247 0.698
52.7549 0.181
52.7852 1.382
52.8155 0.344
52.8458 0.504
52.8761 0.976
52.9063 0.771
52.9366 0.254
52.9669 0.415
52.9972 0.210
53.0274 0.214
53.0577 0.583
53.0880 0.431
53.1183 0.071
53.1486 0.284
53.1788 0.809
53.2091 -0.228
53.2394 0.245
53.2697 0.354
53.3000 0.567
53.3302 0.833
53.3605 0.473
53.3908 0.635
53.4211 0.900
53.4513 0.906
53.4816 0.078
53.5119 0.500
53.5422 1.443
53.5725 -0.114
53.6027 0.048
53.6330 0.731
53.6633 0.216
53.6936 0.170
53.7239 0.229
53.7541 0.131
53.7844 0.137
53.8147 0.612
53.8450 0.202
53.8752 0.625
53.9055 0.424
53.9358 0.431
53.9661 0.229
53.9964 -0.024
54.0266 0.191
54.0569 0.511
54.0872 -0.159
54.1175 0.525
54.1478 -0.196
54.1780 0.436
54.2083 -0.390
54.2386 -0.384
54.2689 1.184
54.2991 0.200
54.3294 0.362
54.3597 -0.153
54.3900 0.686
54.4203 0.327
54.4505 0.542
54.4808 1.173
54.5111 0.242
54.5414 0.352
54.5717 -0.319
54.6019 0.365
54.6322 0.267
54.6625 0.378
54.6928 0.177
54.7230 0.184
54.7533 -0.226
54.7836 0.354
54.8139 0.153
54.8442 0.837
54.8744 -0.041
54.9047 -0.450
54.9350 0.182
54.9653 0.502
54.9956 1.135
55.0258 0.830
55.0561 -0.099
55.0864 0.117
55.1167 0.385
55.1469 0.550
55.1772 -0.067
55.2075 0.514
55.2378 0.627
55.2681 1.052
55.2983 0.436
55.3286 0.340
55.3589 1.286
55.3892 0.045
55.4195 0.679
55.4497 1.001
55.4800 0.854
55.5103 0.342
55.5406 0.976
55.5709 0.517
55.6011 0.214
55.6314 0.380
55.6617 0.442
55.6920 0.139
55.7222 0.409
55.7525 0.992
55.7828 0.846
55.8131 0.908
55.8434 0.450
55.8736 0.720
55.9039 0.418
55.9342 0.429
55.9645 0.387
55.9948 0.450
56.0250 0.148
56.0553 0.315
56.0856 0.222
56.1159 0.806
56.1461 -0.381
56.1764 -0.161
56.2067 -0.306
56.2370 0.330
56.2673 0.446
56.2975 0.301
56.3278 0.626
56.3581 0.012
56.3884 0.285
56.4187 0.192
56.4489 0.048
56.4792 0.269
56.5095 0.489
56.5398 0.397
56.5700 1.035
56.6003 0.474
56.6306 0.226
56.6609 -0.282
56.6912 -0.321
56.7214 -0.168
56.7517 0.038
56.7820 0.556
56.8123 0.606
56.8426 0.031
56.8728 0.601
56.9031 -0.182
56.9334 -0.028
56.9637 0.595
56.9939 0.228
57.0242 -0.242
57.0545 0.433
57.0848 0.223
57.1151 0.378
57.1453 0.220
57.1756 -0.250
57.2059 0.113
57.2362 -0.096
57.2665 0.111
57.2967 0.214
57.3270 0.682
57.3573 0.160
57.3876 -0.049
57.4178 0.211
57.4481 0.523
57.4784 0.106
57.5087 0.678
57.5390 0.626
57.5692 -0.104
57.5995 0.104
57.6298 -0.104
57.6601 0.209
57.6904 0.573
57.7206 -0.260
57.7509 -0.364
57.7812 0.309
57.8115 0.045
57.8417 -0.167
57.8720 -0.223
57.9023 0.502
57.9326 -0.699
57.9629 -0.130
57.9931 -0.238
58.0234 -0.033
58.0537 -0.140
58.0840 0.013
58.1143 0.479
58.1445 0.007
58.1748 0.264
58.2051 0.522
58.2354 0.467
58.2656 1.194
58.2959 0.722
58.3262 0.043
58.3565 0.509
58.3868 0.767
58.4170 0.609
58.4473 0.086
58.4776 0.865
58.5079 0.707
58.5382 0.184
58.5684 0.547
58.5987 1.379
58.6290 0.075
58.6593 0.699
58.6896 0.645
58.7198 0.592
58.7501 0.174
58.7804 -0.608
58.8107 0.380
58.8409 -0.298
58.8712 0.379
58.9015 -0.091
58.9318 0.117
58.9621 0.012
58.9923 0.741
59.0226 0.167
59.0529 0.063
59.0832 0.427
59.1135 0.636
59.1437 0.427
59.1740 1.052
59.2043 0.844
59.2346 0.532
59.2648 -0.405
59.2951 0.689
59.3254 0.221
59.3557 0.117
59.3860 0.430
59.4162 0.379
59.4465 0.328
59.4768 0.016
59.5071 -0.087
59.5374 0.383
59.5676 0.749
59.5979 0.386
59.6282 0.595
59.6585 0.076
59.6887 0.338
59.7190 -0.546
59.7493 0.185
59.7796 -0.073
59.8099 -0.019
59.8401 0.608
59.8704 0.193
59.9007 0.456
59.9310 0.354
59.9613 0.409
59.9915 -0.266
60.0218 0.310
60.0521 0.000
60.0824 0.211
60.1126 -0.047
60.1429 0.946
60.1732 -0.040
60.2035 0.119
60.2338 0.226
60.2640 0.386
60.2943 0.233
60.3246 0.132
60.3549 -0.124
60.3852 -0.277
60.4154 -0.325
60.4457 0.038
60.4760 0.922
60.5063 -0.017
60.5365 0.867
60.5668 0.292
60.5971 -0.073
60.6274 0.551
60.6577 0.133
60.6879 0.340
60.7182 0.131
60.7485 0.131
60.7788 0.078
60.8091 0.234
60.8393 0.285
60.8696 0.024
60.8999 0.597
60.9302 -0.028
60.9604 -0.028
60.9907 0.284
61.0210 -0.757
61.0513 0.545
61.0816 0.285
61.1118 0.285
61.1421 0.494
61.1724 0.182
61.2027 -0.026
61.2330 0.548
61.2632 -0.180
61.2935 0.133
61.3238 0.290
61.3541 -0.021
61.3844 0.240
61.4146 0.606
61.4449 0.191
61.4752 0.661
61.5055 -0.327
61.5357 -0.325
61.5660 -0.065
61.5963 -0.066
61.6266 0.455
61.6569 0.142
61.6871 0.298
61.7174 0.246
61.7477 0.089
61.7780 0.610
61.8083 0.662
61.8385 0.246
61.8688 -0.223
61.8991 0.820
61.9294 0.247
61.9596 0.300
61.9899 0.353
62.0202 -0.011
62.0505 1.188
62.0808 0.564
62.1110 0.200
62.1413 0.201
62.1716 0.359
62.2019 0.256
62.2322 0.882
62.2624 0.571
62.2927 0.364
62.3230 0.158
62.3533 0.316
62.3835 0.734
62.4138 0.528
62.4441 1.572
62.4744 0.636
62.5047 1.420
62.5349 1.422
62.5652 -0.086
62.5955 1.114
62.6258 0.805
62.6561 1.484
62.6863 0.966
62.7166 0.709
62.7469 1.024
62.7772 0.506
62.8074 1.082
62.8377 1.659
62.8680 1.245
62.8983 0.936
62.9286 0.888
62.9588 0.266
62.9891 1.364
63.0194 1.628
63.0497 1.111
63.0800 0.854
63.1102 1.431
63.1405 0.498
63.1708 0.919
63.2011 0.871
63.2313 1.448
63.2616 0.828
63.2919 0.884
63.3222 0.785
63.3525 0.894
63.3827 1.107
63.4130 0.539
63.4433 0.388
63.4736 1.070
63.5039 0.867
63.5341 0.456
63.5644 1.503
63.5947 0.623
63.6250 0.785
63.6552 1.051
63.6855 1.733
63.7158 0.854
63.7461 0.547
63.7764 1.960
63.8066 1.184
63.8369 1.295
63.8672 1.145
63.8975 1.516
63.9278 -0.144
63.9580 0.800
63.9883 -0.079
64.0186 0.969
64.0489 0.612
64.0791 0.931
64.1094 0.938
64.1397 -0.357
64.1700 0.900
64.2003 1.116
64.2305 0.603
64.2608 0.454
64.2911 1.190
64.3214 1.354
64.3517 0.893
64.3819 -0.297
64.4122 0.805
64.4425 0.396
64.4728 1.029
64.5031 1.038
64.5333 1.515
64.5636 0.533
64.5939 0.334
64.6242 1.019
64.6544 0.403
64.6847 1.662
64.7150 0.941
64.7453 0.482
64.7756 0.543
64.8058 0.448
64.8361 0.613
64.8664 0.101
64.8967 0.423
64.9270 -0.140
64.9572 0.651
64.9875 0.504
65.0178 0.566
65.0481 0.472
65.0783 0.117
65.1086 0.648
65.1389 -0.019
65.1692 -0.165
65.1995 0.626
65.2297 0.324
65.2600 0.387
65.2903 0.085
65.3206 1.085
65.3509 -0.519
65.3811 0.325
65.4114 0.388
65.4417 0.764
65.4720 0.202
65.5022 0.578
65.5325 -0.192
65.5628 0.236
65.5931 -0.013
65.6234 0.259
65.6536 -0.302
65.6839 0.386
65.7142 0.555
65.7445 0.254
65.7748 0.735
65.8050 0.486
65.8353 0.186
65.8656 0.303
65.8959 0.627
65.9261 -0.246
65.9564 -0.441
65.9867 0.285
66.0170 0.543
66.0473 0.905
66.0775 -0.035
66.1078 0.639
66.1381 0.064
66.1684 0.478
66.1987 0.424
66.2289 0.161
66.2592 0.368
66.2895 0.887
66.3198 0.052
66.3500 0.414
66.3803 0.256
66.4106 0.828
66.4409 0.306
66.4712 0.044
66.5014 -0.114
66.5317 0.093
66.5620 0.353
66.5923 0.039
66.6226 -0.118
66.6528 -0.119
66.6831 0.089
66.7134 -0.068
66.7437 0.348
66.7739 0.504
66.8042 -0.122
66.8345 0.086
66.8648 0.451
66.8951 0.034
66.9253 -0.018
66.9556 0.242
66.9859 0.138
67.0162 0.295
67.0465 0.087
67.0767 -0.121
67.1070 0.244
67.1373 0.453
67.1676 0.349
67.1978 0.194
67.2281 -0.274
67.2584 0.352
67.2887 0.093
67.3190 0.198
67.3492 -0.061
67.3795 -0.268
67.4098 0.463
67.4401 0.204
67.4704 -0.159
67.5006 -0.158
67.5309 -0.156
67.5612 0.315
67.5915 -0.152
67.6218 0.579
67.6520 0.165
67.6823 0.636
67.7126 -0.039
67.7429 -0.089
67.7731 0.487
67.8034 0.333
67.8337 -0.185
67.8640 0.234
67.8943 -0.075
67.9245 -0.072
67.9548 0.295
67.9851 0.403
68.0154 -0.063
68.0457 0.201
68.0759 -0.004
68.1062 0.208
68.1365 0.107
68.1668 -0.097
68.1970 -0.250
68.2273 0.111
68.2576 -0.258
68.2879 0.103
68.3182 -0.109
68.3484 0.356
68.3787 0.613
68.4090 0.558
68.4393 0.242
68.4696 -0.126
68.4998 0.652
68.5301 0.076
68.5604 -0.083
68.5907 0.539
68.6209 0.276
68.6512 0.482
68.6815 0.219
68.7118 -0.044
68.7421 0.370
68.7723 0.368
68.8026 -0.103
68.8329 0.051
68.8632 0.309
68.8935 0.099
68.9237 0.253
68.9540 -0.061
68.9843 0.666
69.0146 -0.116
69.0448 0.559
69.0751 0.506
69.1054 0.296
69.1357 0.295
69.1660 -0.123
69.1962 0.553
69.2265 0.708
69.2568 0.239
69.2871 0.029
69.3174 0.081
69.3476 -0.545
69.3779 0.444
69.4082 -0.181
69.4385 0.183
69.4687 0.652
69.4990 -0.026
69.5293 -0.026
69.5596 -0.338
69.5899 0.443
69.6201 0.235
69.6504 0.287
69.6807 0.392
69.7110 0.288
69.7413 0.185
69.7715 0.342
69.8018 0.447
69.8321 0.291
69.8624 0.032
69.8926 -0.228
69.9229 0.138
69.9532 0.087
69.9835 0.245
70.0138 0.506
70.0440 0.456
70.0743 0.353
70.1046 0.094
70.1349 0.252
70.1652 0.983
70.1954 0.621
70.2257 -0.367
70.2560 0.312
70.2863 -0.310
70.3166 0.161
70.3468 -0.045
70.3771 0.634
70.4074 -0.457
70.4377 -0.246
70.4679 0.174
70.4982 -0.084
70.5285 -0.237
70.5588 -0.234
70.5891 -0.127
70.6193 0.709
70.6496 0.296
70.6799 0.768
70.7102 0.147
70.7405 0.411
70.7707 0.258
70.8010 -0.572
70.8313 -0.210
70.8616 0.308
70.8918 0.357
70.9221 -0.428
70.9524 0.143
70.9827 -0.173
71.0130 -0.332
71.0432 0.447
71.0735 0.392
71.1038 -0.287
71.1341 -0.029
71.1644 0.021
71.1946 -0.085
71.2249 0.590
71.2552 -0.245
71.2855 -0.143
71.3157 0.272
71.3460 -0.042
71.3763 0.269
71.4066 0.215
71.4369 -0.255
71.4671 -0.204
71.4974 0.160
71.5277 -0.050
71.5580 0.314
71.5883 0.157
71.6185 0.261
71.6488 0.260
71.6791 -0.209
71.7094 0.051
71.7396 0.468
71.7699 -0.262
71.8002 0.207
71.8305 0.051
71.8608 -0.157
71.8910 0.103
71.9213 -0.261
71.9516 0.156
71.9819 -0.208
72.0122 -0.051
72.0424 0.210
72.0727 0.107
72.1030 0.420
72.1333 0.213
72.1635 0.110
72.1938 0.007
72.2241 0.216
72.2544 0.218
72.2847 -0.094
72.3149 0.168
72.3452 -0.195
72.3755 0.224
72.4058 0.330
72.4361 0.279
72.4663 0.281
72.4966 -0.185
72.5269 -0.079
72.5572 -0.285
72.5874 0.133
72.6177 0.082
72.6480 0.136
72.6783 -0.070
72.7086 0.713
72.7388 -0.588
72.7691 0.352
72.7994 0.041
72.8297 -0.686
72.8600 0.306
72.8902 0.361
72.9205 0.155
72.9508 0.261
72.9811 0.056
73.0113 0.267
73.0416 0.165
73.0719 -0.092
73.1022 0.223
73.1325 0.435
73.1627 -0.031
73.1930 0.337
73.2233 0.549
73.2536 0.031
73.2839 0.191
73.3141 0.247
73.3444 0.250
73.3747 -0.110
73.4050 -0.159
73.4353 0.210
73.4655 0.475
73.4958 0.114
73.5261 0.379
73.5564 0.123
73.5866 0.179
73.6169 -0.493
73.6472 -0.133
73.6775 0.801
73.7078 0.068
73.7380 0.794
73.7683 0.218
73.7986 0.058
73.8289 0.211
73.8592 0.833
73.8894 0.101
73.9197 0.463
73.9500 -0.009
73.9803 0.561
74.0105 0.715
74.0408 0.504
74.0711 0.241
74.1014 0.447
74.1317 0.392
74.1619 -0.027
74.1922 -0.029
74.2225 0.490
74.2528 0.019
74.2831 0.278
74.3133 0.485
74.3436 0.639
74.3739 0.898
74.4042 0.532
74.4344 0.582
74.4647 -0.148
74.4950 0.580
74.5253 0.370
74.5556 0.265
74.5858 0.421
74.6161 0.524
74.6464 0.523
74.6767 0.887
74.7070 0.053
74.7372 0.157
74.7675 0.052
74.7978 0.000
74.8281 -0.157
74.8583 0.208
74.8886 0.520
74.9189 0.728
74.9492 0.051
74.9795 0.312
75.0097 0.260
75.0400 0.052
75.0703 0.105
75.1006 0.470
75.1309 0.471
75.1611 0.263
75.1914 0.004
75.2217 0.161
75.2520 -0.359
75.2822 0.215
75.3125 0.112
75.3428 -0.043
75.3731 -0.250
75.4034 -0.198
75.4336 0.270
75.4639 -0.303
75.4942 0.009
75.5245 0.269
75.5548 -0.252
75.5850 0.269
75.6153 0.217
75.6456 0.061
75.6759 0.321
75.7061 0.270
75.7364 0.582
75.7667 -0.250
75.7970 -0.250
75.8273 0.011
75.8575 -0.093
75.8878 0.532
75.9181 -0.249
75.9484 0.116
75.9787 0.377
76.0089 0.118
76.0392 -0.298
76.0695 0.380
76.0998 0.068
76.1301 0.538
76.1603 -0.086
76.1906 0.176
76.2209 0.125
76.2512 0.126
76.2814 0.440
76.3117 0.077
76.3420 -0.130
76.3723 -0.232
76.4026 0.134
76.4328 0.293
76.4631 -0.226
76.4934 0.245
76.5237 -0.170
76.5540 0.041
76.5842 0.043
76.6145 0.150
76.6448 0.100
76.6751 -0.053
76.7053 0.002
76.7356 0.057
76.7659 0.007
76.7962 0.583
76.8265 0.430
76.8567 0.277
76.8870 -0.240
76.9173 -0.185
76.9476 0.235
76.9779 -0.230
77.0081 0.034
77.0384 0.298
77.0687 0.302
77.0990 0.306
77.1292 -0.003
77.1595 0.106
77.1898 -0.150
77.2201 0.062
77.2504 0.223
77.2806 0.331
77.3109 -0.081
77.3412 0.393
77.3715 -0.123
77.4018 0.246
77.4320 -0.270
77.4623 0.152
77.4926 -0.051
77.5229 0.006
77.5531 0.376
77.5834 0.069
77.6137 -0.082
77.6440 -0.285
77.6743 0.127
77.7045 -0.137
77.7348 -0.193
77.7651 -0.302
77.7954 0.528
77.8257 0.316
77.8559 0.364
77.8862 0.308
77.9165 -0.164
77.9468 0.457
77.9770 0.350
78.0073 0.242
78.0376 0.031
78.0679 0.601
78.0982 0.441
78.1284 0.542
78.1587 0.383
78.1890 0.172
78.2193 0.013
78.2496 0.480
78.2798 0.321
78.3101 0.370
78.3404 -0.517
78.3707 0.053
78.4009 0.468
78.4312 -0.263
78.4615 0.568
78.4918 -0.059
78.5221 -0.008
78.5523 -0.114
78.5826 0.249
78.6129 -0.274
78.6432 0.142
78.6735 0.349
78.7037 0.243
78.7340 -0.174
78.7643 0.033
78.7946 -0.176
78.8248 0.291
78.8551 0.239
78.8854 0.290
78.9157 -0.336
78.9460 -0.180
78.9762 0.549
79.0065 0.601
79.0368 -0.077
79.0671 0.184
79.0974 0.288
79.1276 -0.285
79.1579 -0.237
79.1882 0.228
79.2185 0.068
79.2488 0.221
79.2790 -0.147
79.3093 0.266
79.3396 -0.102
79.3699 0.103
79.4001 -0.004
79.4304 0.045
79.4607 0.094
79.4910 -0.065
79.5213 -0.172
79.5515 0.242
79.5818 -0.073
79.6121 -0.024
79.6424 0.234
79.6727 -0.081
79.7029 -0.083
79.7332 0.071
79.7635 0.329
79.7938 -0.245
79.8240 -0.091
79.8543 -0.197
79.8846 0.218
79.9149 -0.305
79.9452 -0.150
79.9754 0.370
80.0057 0.472
80.0360 0.211
80.0663 0.366
80.0966 -0.208
80.1268 0.207
80.1571 -0.054
80.1874 -0.159
80.2177 0.205
80.2479 0.256
80.2782 0.516
80.3085 0.203
80.3388 0.359
80.3691 -0.006
80.3993 0.046
80.4296 -0.162
80.4599 0.150
80.4902 -0.162
80.5205 0.047
80.5507 -0.057
80.5810 0.047
80.6113 -0.004
80.6416 0.100
80.6718 -0.524
80.7021 0.258
80.7324 -0.002
80.7627 0.312
80.7930 0.000
80.8232 -0.259
80.8535 0.054
80.8838 0.420
80.9141 -0.048
80.9444 0.213
80.9746 -0.098
81.0049 0.060
81.0352 -0.095
81.0655 -0.250
81.0957 0.585
81.1260 -0.091
81.1563 0.015
81.1866 -0.348
81.2169 0.383
81.2471 0.646
81.2774 0.335
81.3077 0.338
81.3380 -0.233
81.3683 -0.022
81.3985 -0.280
81.4288 0.087
81.4591 0.506
81.4894 0.144
81.5196 -0.166
81.5499 -0.215
81.5802 0.101
81.6105 -0.157
81.6408 0.055
81.6710 -0.046
81.7013 -0.043
81.7316 -0.196
81.7619 0.120
81.7922 0.280
81.8224 -0.028
81.8527 -0.285
81.8830 0.079
81.9133 0.494
81.9436 0.077
81.9738 0.076
82.0041 0.753
82.0344 0.231
82.0647 0.231
82.0949 0.491
82.1252 0.439
82.1555 0.699
82.1858 0.022
82.2161 0.803
82.2463 0.126
82.2766 0.178
82.3069 0.283
82.3372 0.440
82.3675 0.284
82.3977 0.441
82.4280 -0.027
82.4583 0.338
82.4886 0.130
82.5188 -0.025
82.5491 0.445
82.5794 0.029
82.6097 0.083
82.6400 0.657
82.6702 0.554
82.7005 -0.017
82.7308 0.349
82.7611 0.350
82.7914 0.248
82.8216 -0.063
82.8519 0.200
82.8822 0.254
82.9125 0.152
82.9427 0.206
82.9730 0.208
83.0033 0.471
83.0336 0.057
83.0639 0.060
83.0941 -0.511
83.1244 0.117
83.1547 0.224
83.1850 0.123
83.2153 -0.239
83.2455 -0.136
83.2758 0.697
83.3061 0.696
83.3364 0.382
83.3666 -0.296
83.3969 -0.036
83.4272 -0.141
83.4575 0.328
83.4878 0.067
83.5180 0.379
83.5483 0.431
83.5786 0.587
83.6089 -0.142
83.6392 -0.298
83.6694 0.327
83.6997 0.327
83.7300 0.484
83.7603 0.067
83.7905 0.172
83.8208 0.277
83.8511 0.330
83.8814 0.018
83.9117 -0.033
83.9419 -0.137
83.9722 0.021
84.0025 -0.134
84.0328 0.283
84.0631 -0.132
84.0933 -0.026
84.1236 -0.233
84.1539 0.133
84.1842 0.135
84.2144 -0.124
84.2447 -0.435
84.2750 0.192
84.3053 -0.222
84.3356 0.353
84.3658 -0.062
84.3961 -0.268
84.4264 0.308
84.4567 -0.159
84.4870 0.156
84.5172 0.263
84.5475 0.214
84.5778 -0.096
84.6081 0.272
84.6383 -0.038
84.6686 0.122
84.6989 -0.188
84.7292 -0.184
84.7595 -0.337
84.7897 0.232
84.8200 -0.084
84.8503 0.226
84.8806 0.222
84.9109 -0.093
84.9411 0.320
84.9714 0.109
85.0017 -0.050
85.0320 0.312
85.0623 0.257
85.0925 0.411
85.1228 0.408
85.1531 0.354
85.1834 0.195
85.2136 -0.328
85.2439 0.243
85.2742 0.033
85.3045 0.291
85.3348 0.029
85.3650 0.131
85.3953 0.182
85.4256 0.024
85.4559 0.074
85.4862 -0.135
85.5164 -0.032
85.5467 0.279
85.5770 0.226
85.6073 0.225
85.6375 0.484
85.6678 0.535
85.6981 -0.143
85.7284 0.013
85.7587 0.481
85.7889 0.064
85.8192 0.064
85.8495 0.272
85.8798 0.115
85.9101 0.427
85.9403 -0.250
85.9706 0.688
86.0009 0.532
86.0312 0.167
86.0614 0.376
86.0917 0.637
86.1220 -0.300
86.1523 0.013
86.1826 0.691
86.2128 0.014
86.2431 -0.141
86.2734 0.172
86.3037 0.486
86.3340 0.070
86.3642 0.020
86.3945 0.125
86.4248 -0.134
86.4551 0.284
86.4853 0.025
86.5156 -0.129
86.5459 0.810
86.5762 0.291
86.6065 0.501
86.6367 0.347
86.6670 -0.067
86.6973 0.039
86.7276 -0.063
86.7579 -0.008
86.7881 0.202
86.8184 0.674
86.8487 0.156
86.8790 0.106
86.9092 0.317
86.9395 0.060
86.9698 0.532
87.0001 0.379
87.0304 0.174
87.0606 0.125
87.0909 0.024
87.1212 -0.233
87.1515 -0.132
87.1818 0.699
87.2120 0.487
87.2423 0.485
87.2726 0.065
87.3029 0.271
87.3331 0.060
87.3634 0.110
87.3937 -0.257
87.4240 0.261
87.4543 -0.001
87.4845 0.830
87.5148 1.193
87.5451 -0.215
87.5754 -0.061
87.6057 -0.375
87.6359 0.196
87.6662 0.299
87.6965 -0.015
87.7268 0.036
87.7571 0.087
87.7873 0.815
87.8176 -0.020
87.8479 -0.177
87.8782 -0.126
87.9084 0.134
87.9387 -0.023
87.9690 0.705
87.9993 -0.024
88.0296 0.132
88.0598 0.548
88.0901 0.235
88.1204 0.235
88.1507 0.131
88.1810 0.339
88.2112 0.339
88.2415 0.496
88.2718 0.079
88.3021 0.444
88.3323 -0.076
88.3626 0.081
88.3929 -0.283
88.4232 0.499
88.4535 -0.125
88.4837 -0.020
88.5140 0.189
88.5443 0.294
88.5746 0.348
88.6049 0.141
88.6351 -0.066
88.6654 0.091
88.6957 0.041
88.7260 -0.478
88.7562 0.669
88.7865 0.307
88.8168 -0.108
88.8471 0.363
88.8774 0.000
88.9076 0.211
88.9379 -0.308
88.9682 0.111
88.9985 0.582
89.0288 -0.092
89.0590 0.119
89.0893 0.122
89.1196 0.176
89.1499 0.075
89.1801 0.391
89.2104 -0.023
89.2407 -0.072
89.2710 0.348
89.3013 0.664
89.3315 0.043
89.3618 -0.266
89.3921 0.154
89.4224 -0.259
89.4527 -0.100
89.4829 0.008
89.5132 0.063
89.5435 0.535
89.5738 -0.503
89.6040 0.125
89.6343 0.285
89.6646 0.237
89.6949 -0.020
89.7252 0.453
89.7554 0.301
89.7857 0.357
89.8160 -0.056
89.8463 0.001
89.8766 0.005
89.9068 -0.095
89.9371 0.535
89.9674 0.019
89.9977 0.648
90.0279 -0.024
90.0582 -0.279
90.0885 0.194
90.1188 -0.426
90.1491 0.153
90.1793 -0.415
90.2096 -0.107
90.2399 0.253
90.2702 0.249
90.3005 -0.120
90.3307 0.553
90.3610 0.132
90.3913 0.024
90.4216 0.489
90.4518 0.537
90.4821 0.065
90.5124 0.113
90.5427 -0.202
90.5730 0.002
90.6032 0.155
90.6335 -0.421
90.6638 0.045
90.6941 0.511
90.7244 0.299
90.7546 0.244
90.7849 0.137
90.8152 0.291
90.8455 -0.389
90.8758 -0.131
90.9060 0.127
90.9363 0.438
90.9666 -0.033
90.9969 0.017
91.0271 -0.142
91.0574 0.377
91.0877 -0.041
91.1180 -0.304
91.1483 0.320
91.1785 -0.098
91.2088 0.369
91.2391 0.107
91.2694 -0.467
91.2997 -0.052
91.3299 0.572
91.3602 0.363
91.3905 -0.055
91.4208 0.257
91.4510 -0.369
91.4813 0.255
91.5116 -0.058
91.5419 -0.163
91.5722 -0.111
91.6024 0.357
91.6327 -0.112
91.6630 0.097
91.6933 -0.060
91.7236 0.097
91.7538 0.461
91.7841 -0.111
91.8144 0.358
91.8447 0.670
91.8749 0.202
91.9052 -0.318
91.9355 -0.005
91.9658 0.673
91.9961 -0.055
92.0263 0.050
92.0566 0.311
92.0869 0.312
92.1172 -0.103
92.1475 -0.050
92.1777 0.420
92.2080 -0.047
92.2383 0.527
92.2686 0.217
92.2988 0.166
92.3291 0.481
92.3594 -0.038
92.3897 0.485
92.4200 0.226
92.4502 0.124
92.4805 -0.030
92.5108 -0.079
92.5411 0.131
92.5714 0.082
92.6016 0.241
92.6319 0.035
92.6622 -0.222
92.6925 -0.063
92.7227 -0.216
92.7530 0.516
92.7833 0.050
92.8136 -0.259
92.8439 0.001
92.8741 0.679
92.9044 0.002
92.9347 0.002
92.9650 0.523
92.9953 0.211
93.0255 0.107
93.0558 0.316
93.0861 0.369
93.1164 0.005
93.1466 0.527
93.1769 0.059
93.2072 0.164
93.2375 0.478
93.2678 -0.146
93.2980 0.637
93.3283 0.273
93.3586 0.535
93.3889 0.329
93.4192 -0.191
93.4494 0.540
93.4797 0.073
93.5100 0.284
93.5403 0.077
93.5706 -0.025
93.6008 0.238
93.6311 0.501
93.6614 0.295
93.6917 0.037
93.7219 0.144
93.7522 0.250
93.7825 0.097
93.8128 0.516
93.8431 -0.262
93.8733 -0.259
93.9036 0.311
93.9339 0.255
93.9642 0.095
93.9945 -0.064
94.0247 0.037
94.0550 0.034
94.0853 0.031
94.1156 0.236
94.1458 0.181
94.1761 -0.394
94.2064 0.176
94.2367 -0.035
94.2670 0.067
94.2972 0.012
94.3275 0.270
94.3578 0.060
94.3881 -0.098
94.4184 0.160
94.4486 0.106
94.4789 0.469
94.5092 0.415
94.5395 0.049
94.5697 -0.161
94.6000 0.567
94.6303 -0.008
94.6606 -0.009
94.6909 0.302
94.7211 0.041
94.7514 -0.221
94.7817 0.508
94.8120 0.142
94.8423 0.089
94.8725 0.037
94.9028 -0.120
94.9331 0.400
94.9634 -0.173
94.9936 0.035
95.0239 0.139
95.0542 -0.278
95.0845 0.295
95.1148 -0.121
95.1450 0.452
95.1753 -0.225
95.2056 0.140
95.2359 0.244
95.2662 0.089
95.2964 -0.223
95.3267 0.038
95.3570 -0.222
95.3873 0.040
95.4175 -0.116
95.4478 -0.115
95.4781 0.512
95.5084 0.305
95.5387 -0.111
95.5689 0.516
95.5992 -0.212
95.6295 0.415
95.6598 -0.104
95.6901 0.054
95.7203 -0.205
95.7506 0.266
95.7809 0.216
95.8112 0.374
95.8414 0.168
95.8717 -0.090
95.9020 -0.087
95.9323 -0.189
95.9626 0.074
95.9928 0.337
96.0231 -0.233
96.0534 0.134
96.0837 0.085
96.1140 0.557
96.1442 -0.325
96.1745 0.147
96.2048 -0.110
96.2351 -0.055
96.2653 0.418
96.2956 0.525
96.3259 -0.356
96.3562 0.481
96.3865 0.068
96.4167 0.332
96.4470 0.232
96.4773 0.445
96.5076 0.345
96.5379 -0.172
96.5681 0.145
96.5984 -0.215
96.6287 -0.324
96.6590 0.348
96.6893 -0.021
96.7195 -0.078
96.7498 -0.031
96.7801 0.381
96.8104 0.116
96.8406 0.164
96.8709 0.212
96.9012 0.207
96.9315 0.360
96.9618 0.355
96.9920 0.091
97.0223 -0.069
97.0526 -0.073
97.0829 0.496
97.1132 0.493
97.1434 0.333
97.1737 -0.243
97.2040 0.118
97.2343 0.323
97.2645 0.216
97.2948 0.160
97.3251 0.262
97.3554 0.259
97.3857 0.048
97.4159 0.514
97.4462 0.042
97.4765 -0.064
97.5068 0.141
97.5371 -0.330
97.5673 0.137
97.5976 0.187
97.6279 -0.024
97.6582 0.235
97.6884 -0.132
97.7187 -0.290
97.7490 0.281
97.7793 0.019
97.8096 0.330
97.8398 0.121
97.8701 0.275
97.9004 0.170
97.9307 -0.092
97.9610 0.012
97.9912 0.115
98.0215 0.218
98.0518 -0.095
98.0821 -0.044
98.1123 -0.097
98.1426 0.215
98.1729 -0.046
98.2032 0.579
98.2335 -0.150
98.2637 0.527
98.2940 0.006
98.3243 0.526
98.3546 0.527
98.3849 0.058
98.4151 0.006
98.4454 0.059
98.4757 0.111
98.5060 0.685
98.5362 0.373
98.5665 0.165
98.5968 0.010
98.6271 0.219
98.6574 -0.093
98.6876 -0.248
98.7179 0.222
98.7482 -0.037
98.7785 0.017
98.8088 0.487
98.8390 0.436
98.8693 0.177
98.8996 -0.133
98.9299 0.285
98.9601 -0.078
98.9904 -0.076
99.0207 -0.073
99.0510 0.033
99.0813 0.087
99.1115 0.090
99.1418 -0.273
99.1721 0.095
99.2024 0.149
99.2327 0.204
99.2629 -0.053
99.2932 -0.363
99.3235 0.106
99.3538 0.055
99.3841 0.472
99.4143 0.264
99.4446 0.161
99.4749 -0.099
99.5052 0.059
99.5354 -0.045
99.5657 0.686
99.5960 0.114
99.6263 0.376
99.6566 -0.092
99.6868 0.118
99.7171 0.068
99.7474 0.226
99.7777 -0.345
99.8080 0.021
99.8382 0.648
99.8685 0.077
99.8988 0.131
99.9291 0.290
99.9593 -0.176
99.9896 0.191
100.0199 0.089
100.0502 -0.221
100.0805 -0.172
100.1107 0.033
100.1410 0.030
100.1713 0.600
100.2016 0.128
100.2319 0.229
100.2621 0.070
100.2924 -0.089
100.3227 -0.039
100.3530 0.323
100.3832 0.112
100.4135 0.266
100.4438 -0.153
100.4741 -0.103
100.5044 0.207
100.5346 -0.107
100.5649 0.099
100.5952 -0.007
100.6255 0.096
100.6558 0.094
100.6860 -0.064
100.7163 -0.065
100.7466 0.090
100.7769 0.089
100.8071 0.088
100.8374 0.086
100.8677 0.033
100.8980 -0.072
100.9283 0.448
100.9585 0.344
100.9888 -0.386
101.0191 -0.178
101.0494 -0.075
101.0797 -0.075
101.1099 -0.075
101.1402 0.341
101.1705 -0.492
101.2008 0.133
101.2310 0.289
101.2613 -0.231
101.2916 0.498
101.3219 0.394
101.3522 0.030
101.3824 0.239
101.4127 -0.229
101.4430 -0.020
101.4733 0.398
101.5036 -0.122
101.5338 -0.382
101.5641 0.296
101.5944 0.193
101.6247 0.507
101.6549 -0.012
101.6852 0.145
101.7155 0.147
101.7458 0.513
101.7761 0.150
101.8063 -0.056
101.8366 0.310
101.8669 -0.260
101.8972 0.106
101.9275 0.160
101.9577 0.267
101.9880 0.165
102.0183 0.168
102.0486 0.587
102.0788 -0.348
102.1091 0.436
102.1394 0.178
102.1697 -0.444
102.2000 0.341
102.2302 0.031
102.2605 0.191
102.2908 0.246
102.3211 0.041
102.3514 0.044
102.3816 -0.160
102.4119 0.000
102.4422 0.472
102.4725 0.580
102.5028 0.011
102.5330 -0.454
102.5633 0.175
102.5936 -0.081
102.6239 -0.285
102.6541 0.129
102.6844 -0.186
102.7147 0.072
102.7450 0.122
102.7753 0.380
102.8055 -0.038
102.8358 0.168
102.8661 0.010
102.8964 0.268
102.9267 -0.046
102.9569 0.213
102.9872 0.680
103.0175 0.002
103.0478 -0.052
103.0780 0.364
103.1083 -0.002
103.1386 0.466
103.1689 0.256
103.1992 0.203
103.2294 0.359
103.2597 0.358
103.2900 0.357
103.3203 0.305
103.3506 0.512
103.3808 -0.061
103.4111 -0.321
103.4414 0.355
103.4717 -0.009
103.5019 0.459
103.5322 0.043
103.5625 0.408
103.5928 -0.165
103.6231 0.200
103.6533 -0.164
103.6836 0.045
103.7139 -0.267
103.7442 0.150
103.7745 -0.005
103.8047 0.204
103.8350 -0.108
103.8653 0.154
103.8956 -0.522
103.9258 0.104
103.9561 -0.259
103.9864 -0.051
104.0167 0.366
104.0470 0.157
104.0772 -0.207
104.1075 0.314
104.1378 0.210
104.1681 0.002
104.1984 0.315
104.2286 0.159
104.2589 0.368
104.2892 0.004
104.3195 0.057
104.3497 0.162
104.3800 0.110
104.4103 -0.357
104.4406 -0.044
104.4709 0.218
104.5011 0.375
104.5314 0.221
104.5617 -0.090
104.5920 0.015
104.6223 0.329
104.6525 0.175
104.6828 0.125
104.7131 -0.186
104.7434 0.129
104.7736 0.131
104.8039 -0.232
104.8342 0.135
104.8645 -0.227
104.8948 0.088
104.9250 0.143
104.9553 0.458
104.9856 -0.164
105.0159 0.463
105.0462 -0.159
105.0764 0.365
105.1067 0.524
105.1370 0.111
105.1673 0.166
105.1975 0.013
105.2278 0.486
105.2581 0.489
105.2884 -0.080
105.3187 0.340
105.3489 0.032
105.3792 0.036
105.4095 -0.117
105.4398 0.304
105.4701 0.360
105.5003 0.365
105.5306 0.265
105.5609 0.217
105.5912 -0.195
105.6215 0.070
105.6517 0.127
105.6820 -0.337
105.7123 -0.079
105.7426 0.127
105.7728 0.073
105.8031 0.123
105.8334 -0.140
105.8637 0.223
105.8940 0.221
105.9242 0.376
105.9545 -0.095
105.9848 -0.044
106.0151 0.110
106.0454 0.109
106.0756 0.056
106.1059 0.523
106.1362 0.157
106.1665 -0.104
106.1967 -0.157
106.2270 0.623
106.2573 -0.107
106.2876 0.518
106.3179 0.100
106.3481 0.360
106.3784 -0.161
106.4087 0.360
106.4390 -0.214
106.4693 -0.266
106.4995 0.463
106.5298 0.568
106.5601 -0.214
106.5904 -0.213
106.6206 0.360
106.6509 -0.265
106.6812 -0.108
106.7115 0.101
106.7418 0.258
106.7720 0.102
106.8023 -0.001
106.8326 -0.208
106.8629 -0.107
106.8932 0.463
106.9234 0.201
106.9537 0.667
106.9840 -0.012
107.0143 0.767
107.0445 -0.017
107.0748 0.085
107.1051 0.396
107.1354 0.394
107.1657 -0.129
107.1959 -0.078
107.2262 0.233
107.2565 -0.290
107.2868 0.438
107.3171 0.281
107.3473 0.644
107.3776 0.018
107.4079 -0.035
107.4382 0.433
107.4684 0.744
107.4987 0.483
107.5290 0.274
107.5593 0.221
107.5896 0.012
107.6198 0.220
107.6501 0.012
107.6804 0.116
107.7107 0.741
107.7410 0.116
107.7712 0.220
107.8015 0.064
107.8318 0.012
107.8621 0.116
107.8923 0.481
107.9226 0.117
107.9529 -0.143
107.9832 0.327
108.0135 0.223
108.0437 -0.140
108.0740 0.069
108.1043 0.018
108.1346 0.331
108.1649 0.333
108.1951 -0.031
108.2254 0.023
108.2557 0.806
108.2860 -0.078
108.3163 0.184
108.3465 -0.283
108.3768 0.135
108.4071 -0.227
108.4374 -0.069
108.4676 -0.171
108.4979 0.040
108.5282 0.302
108.5585 -0.164
108.5888 0.307
108.6190 -0.107
108.6493 -0.208
108.6796 0.049
108.7099 0.202
108.7402 -0.114
108.7704 0.195
108.8007 0.296
108.8310 -0.019
108.8613 -0.022
108.8915 0.444
108.9218 -0.184
108.9521 0.595
108.9824 0.384
109.0127 0.330
109.0429 0.223
109.0732 0.013
109.1035 0.010
109.1338 -0.148
109.1641 0.579
109.1943 0.317
109.2246 -0.206
109.2549 -0.103
109.2852 0.468
109.3154 -0.210
109.3457 0.361
109.3760 -0.005
109.4063 0.254
109.4366 -0.215
109.4668 0.252
109.4971 -0.165
109.5274 0.146
109.5577 0.458
109.5880 0.353
109.6182 0.457
109.6485 -0.169
109.6788 0.039
109.7091 -0.170
109.7393 0.091
109.7696 -0.066
109.7999 0.299
109.8302 0.351
109.8605 0.195
109.8907 0.091
109.9210 -0.169
109.9513 0.091
109.9816 -0.169
110.0119 0.561
110.0421 0.145
110.0724 0.406
110.1027 0.459
110.1330 0.252
110.1632 -0.112
110.1935 -0.215
110.2238 -0.007
110.2541 0.045
110.2844 0.149
110.3146 0.045
110.3449 -0.059
110.3752 -0.007
110.4055 -0.059
110.4358 -0.163
110.4660 0.254
110.4963 0.151
110.5266 -0.109
110.5569 0.048
110.5871 0.517
110.6174 0.310
110.6477 0.102
110.6780 0.155
110.7083 -0.312
110.7385 0.158
110.7688 0.055
110.7991 -0.204
110.8294 0.526
110.8597 0.059
110.8899 0.061
110.9202 -0.042
110.9505 0.169
110.9808 0.066
111.0110 0.120
111.0413 0.122
111.0716 0.437
111.1019 -0.133
111.1322 0.077
111.1624 -0.389
111.1927 -0.023
111.2230 0.446
111.2533 0.031
111.2836 -0.072
111.3138 0.450
111.3441 0.087
111.3744 0.036
111.4047 0.298
111.4350 0.196
111.4652 0.041
111.4955 0.043
111.5258 0.097
111.5561 0.360
111.5863 0.466
111.6166 0.051
111.6469 -0.311
111.6772 0.002
111.7075 0.471
111.7377 0.263
111.7680 0.524
111.7983 0.316
111.8286 0.213
111.8589 0.110
111.8891 -0.098
111.9194 -0.097
111.9497 0.477
111.9800 0.583
112.0102 0.532
112.0405 0.637
112.0708 -0.090
112.1011 -0.037
112.1314 0.069
112.1616 0.227
112.1919 -0.136
112.2222 0.596
112.2525 0.545
112.2828 0.287
112.3130 0.133
112.3433 0.396
112.3736 0.190
112.4039 -0.016
112.4341 0.612
112.4644 0.041
112.4947 0.148
112.5250 0.620
112.5553 0.414
112.5855 0.469
112.6158 0.160
112.6461 0.111
112.6764 0.479
112.7067 0.326
112.7369 0.069
112.7672 0.125
112.7975 0.545
112.8278 0.288
112.8580 0.136
112.8883 0.661
112.9186 0.300
112.9489 0.096
112.9792 0.048
113.0094 0.365
113.0397 0.213
113.0700 0.113
113.1003 -0.143
113.1306 0.018
113.1608 0.023
113.1911 -0.389
113.2214 0.022
113.2517 0.016
113.2819 0.115
113.3122 0.109
113.3425 0.729
113.3728 0.515
113.4031 0.093
113.4333 0.296
113.4636 0.343
113.4939 0.494
113.5242 0.125
113.5545 0.015
113.5847 0.167
113.6150 0.319
113.6453 0.470
113.6756 0.257
113.7058 0.409
113.7361 0.301
113.7664 0.192
113.7967 0.084
113.8270 0.497
113.8572 0.024
113.8875 0.385
113.9178 0.381
113.9481 0.377
113.9784 0.009
114.0086 0.057
114.0389 0.158
114.0692 0.259
114.0995 0.048
114.1298 -0.060
114.1600 0.041
114.1903 0.143
114.2206 0.504
114.2509 -0.124
114.2811 0.082
114.3114 -0.181
114.3417 -0.079
114.3720 0.335
114.4023 0.281
114.4325 0.122
114.4628 -0.141
114.4931 0.118
114.5234 0.272
114.5537 -0.146
114.5839 0.008
114.6142 0.319
114.6445 -0.099
114.6748 -0.361
114.7050 0.575
114.7353 0.261
114.7656 0.364
114.7959 0.415
114.8262 -0.055
114.8564 0.204
114.8867 0.412
114.9170 0.463
114.9473 0.410
114.9776 0.201
115.0078 -0.164
115.0381 0.148
115.0684 0.044
115.0987 0.721
115.1289 0.043
115.1592 0.304
115.1895 -0.165
115.2198 0.096
115.2501 0.304
115.2803 0.044
115.3106 0.096
115.3409 -0.164
115.3712 0.097
115.4015 0.098
115.4317 0.411
115.4620 0.100
115.4923 0.205
115.5226 0.154
115.5528 0.728
115.5831 0.260
115.6134 0.314
115.6437 0.367
115.6740 0.421
115.7042 0.058
115.7345 0.372
115.7648 -0.095
115.7951 0.584
115.8254 0.429
115.8556 -0.090
115.8859 0.225
115.9162 0.123
115.9465 0.125
115.9767 0.336
116.0070 0.026
116.0373 -0.023
116.0676 0.031
116.0979 0.399
116.1281 0.089
116.1584 0.040
116.1887 0.459
116.2190 0.358
116.2493 0.101
116.2795 0.104
116.3098 0.108
116.3401 0.268
116.3704 0.115
116.4006 0.483
116.4309 0.122
116.4612 0.491
116.4915 0.234
116.5218 0.238
116.5520 -0.122
116.5823 0.403
116.6126 0.407
116.6429 0.620
116.6732 0.468
116.7034 -0.309
116.7337 0.529
116.7640 0.117
116.7943 0.018
116.8245 0.231
116.8548 -0.285
116.8851 -0.185
116.9154 0.228
116.9457 1.006
116.9759 0.377
117.0062 0.217
117.0365 -0.099
117.0668 0.211
117.0971 0.676
117.1273 0.308
117.1576 0.566
117.1879 0.823
117.2182 0.143
117.2485 0.140
117.2787 -0.071
117.3090 0.291
117.3393 0.080
117.3696 0.234
117.3998 0.596
117.4301 0.177
117.4604 0.175
117.4907 0.798
117.5210 0.171
117.5512 0.690
117.5815 0.219
117.6118 0.113
117.6421 0.164
117.6724 0.631
117.7026 0.578
117.7329 0.107
117.7632 0.262
117.7935 0.678
117.8237 0.468
117.8540 0.051
117.8843 0.206
117.9146 -0.107
117.9449 -0.108
117.9751 0.256
118.0054 0.464
118.0357 0.307
118.0660 0.202
118.0963 0.358
118.1265 0.254
118.1568 0.150
118.1871 -0.215
118.2174 -0.006
118.2476 0.358
118.2779 0.254
118.3082 -0.110
118.3385 0.307
118.3688 0.568
118.3990 0.309
118.4293 -0.107
118.4596 -0.002
118.4899 0.259
118.5202 0.260
118.5504 0.105
118.5807 -0.259
118.6110 -0.054
118.6413 0.098
118.6715 -0.374
118.7018 0.612
118.7321 0.192
118.7624 -0.124
118.7927 0.602
118.8229 0.390
118.8532 0.023
118.8835 0.332
118.9138 0.225
118.9441 0.378
118.9743 0.272
119.0046 0.217
119.0349 0.214
119.0652 0.160
119.0954 0.105
119.1257 0.624
119.1560 -0.368
119.1863 0.515
119.2166 0.253
119.2468 -0.114
119.2771 0.614
119.3074 -0.169
119.3377 0.350
119.3680 -0.120
119.3982 0.034
119.4285 0.346
119.4588 0.292
119.4891 0.187
119.5193 -0.075
119.5496 -0.128
119.5799 -0.441
119.6102 0.192
119.6405 0.409
119.6707 -0.155
119.7010 0.271
119.7313 -0.397
119.7616 0.289
119.7919 0.298
119.8221 0.568
119.8524 0.317
119.8827 0.847
119.9130 0.596
119.9433 -0.019
119.9735 0.459
120.0038 0.000
