'Id: "" Comment: "" Operator: "Lab Manager" Anode: "Cu" Scantype: "Locked Coupled" TimePerStep: "19.2" X: "9999" Y: "9999" Z: "9999" 
10.0015 0.000
10.0318 0.457
10.0620 0.445
10.0923 0.433
10.1226 0.526
10.1529 0.671
10.1832 0.035
10.2134 0.128
10.2437 0.222
10.2740 0.160
10.3043 0.618
10.3346 0.817
10.3648 0.755
10.3951 0.382
10.4254 0.425
10.4557 0.051
10.4859 0.459
10.5162 0.920
10.5465 1.537
10.5768 0.175
10.6071 1.053
10.6373 0.577
10.6676 -0.003
10.6979 0.980
10.7282 0.921
10.7585 0.446
10.7887 0.023
10.8190 1.476
10.8493 2.981
10.8796 2.559
10.9098 3.022
10.9401 4.215
10.9704 4.315
11.0007 5.144
11.0310 7.223
11.0612 8.521
11.0915 7.997
11.1218 8.150
11.1521 8.719
11.1824 6.894
11.2126 5.745
11.2429 3.503
11.2732 3.032
11.3035 2.874
11.3337 1.258
11.3640 1.777
11.3943 0.474
11.4246 0.004
11.4549 -0.673
11.4851 0.368
11.5154 0.003
11.5457 0.159
11.5760 0.316
11.6063 0.264
11.6365 0.525
11.6668 0.162
11.6971 0.684
11.7274 0.373
11.7577 1.000
11.7879 -0.613
11.8182 0.014
11.8485 1.423
11.8788 0.332
11.9090 0.023
11.9393 0.651
11.9696 0.550
11.9999 0.814
12.0302 0.141
12.0604 -0.636
12.0907 0.306
12.1210 0.363
12.1513 -0.153
12.1816 -0.200
12.2118 -0.507
12.2421 0.332
12.2724 -0.079
12.3027 0.136
12.3329 -0.639
12.3632 -0.266
12.3935 0.368
12.4238 -0.403
12.4541 0.335
12.4843 0.553
12.5146 1.084
12.5449 -0.312
12.5752 0.011
12.6055 0.804
12.6357 -0.696
12.6660 -0.112
12.6963 0.108
12.7266 0.172
12.7568 0.445
12.7871 0.301
12.8174 -0.104
12.8477 -0.195
12.8780 0.599
12.9082 0.769
12.9385 0.522
12.9688 0.015
12.9991 0.862
13.0294 0.355
13.0596 0.318
13.0899 0.749
13.1202 -0.277
13.1505 0.050
13.1807 -0.091
13.2110 -0.075
13.2413 -0.267
13.2716 -0.772
13.3019 0.547
13.3321 -0.583
13.3624 0.528
13.3927 0.493
13.4230 -0.427
13.4533 -0.201
13.4835 0.077
13.5138 -0.113
13.5441 0.843
13.5744 -0.649
13.6046 -0.526
13.6349 0.527
13.6652 0.695
13.6955 -0.179
13.7258 0.406
13.7560 0.314
13.7863 0.222
13.8166 -0.547
13.8469 -0.013
13.8772 -0.208
13.9074 0.222
13.9377 -0.337
13.9680 0.145
13.9983 0.732
14.0285 -0.764
14.0588 0.449
14.0891 0.412
14.1194 -0.094
14.1497 -0.704
14.1799 -0.025
14.2102 0.707
14.2405 -0.020
14.2708 0.191
14.3011 0.975
14.3313 -0.376
14.3616 -0.007
14.3919 -0.160
14.4222 0.469
14.4524 -0.673
14.4827 0.269
14.5130 -0.351
14.5433 0.123
14.5736 0.284
14.6038 0.863
14.6341 0.920
14.6644 -0.219
14.6947 0.308
14.7250 0.001
14.7552 0.060
14.7855 -0.089
14.8158 0.179
14.8461 0.238
14.8764 0.141
14.9066 0.097
14.9369 -0.207
14.9672 0.270
14.9975 -0.398
15.0277 -0.405
15.0580 0.579
15.0883 -0.312
15.1186 0.464
15.1489 0.042
15.1791 0.297
15.2094 -0.176
15.2397 0.132
15.2700 0.909
15.3003 0.019
15.3305 0.120
15.3608 -0.613
15.3911 0.321
15.4214 0.110
15.4516 0.211
15.4819 -0.624
15.5122 -0.315
15.5425 0.048
15.5728 0.045
15.6030 -0.373
15.6333 0.302
15.6636 -0.272
15.6939 0.352
15.7242 0.299
15.7544 -0.015
15.7847 0.193
15.8150 -0.171
15.8453 -0.119
15.8755 -0.067
15.9058 -0.066
15.9361 -0.378
15.9664 0.092
15.9967 -0.011
16.0269 -0.010
16.0572 0.148
16.0875 0.202
16.1178 0.100
16.1481 -0.210
16.1783 -0.259
16.2086 0.629
16.2389 -0.045
16.2692 0.271
16.2994 -0.090
16.3297 0.019
16.3600 -0.186
16.3903 0.236
16.4206 0.501
16.4508 -0.224
16.4811 0.667
16.5114 -0.369
16.5417 -0.103
16.5720 -0.097
16.6022 -0.299
16.6325 -0.293
16.6628 0.391
16.6931 0.241
16.7233 -0.116
16.7536 -0.265
16.7839 0.368
16.8142 0.375
16.8445 -0.242
16.8747 -0.077
16.9050 -0.277
16.9353 -0.164
16.9656 0.210
16.9959 0.063
17.0261 -0.084
17.0564 0.082
17.0867 0.301
17.1170 -0.001
17.1472 0.165
17.1775 0.020
17.2078 -0.386
17.2381 -0.128
17.2684 0.755
17.2986 0.492
17.3289 0.074
17.3592 -0.136
17.3895 -0.086
17.4198 0.070
17.4500 -0.036
17.4803 0.485
17.5106 0.015
17.5409 -0.089
17.5712 0.796
17.6014 -0.193
17.6317 0.224
17.6620 0.017
17.6923 0.278
17.7225 -0.450
17.7528 0.802
17.7831 -0.343
17.8134 -0.445
17.8437 0.443
17.8739 0.029
17.9042 -0.073
17.9345 -0.382
17.9648 -0.223
17.9951 -0.167
18.0253 -0.111
18.0556 0.570
18.0859 0.158
18.1162 0.163
18.1464 0.012
18.1767 -0.608
18.2070 0.230
18.2373 0.080
18.2676 -0.331
18.2978 0.196
18.3281 1.036
18.3584 0.469
18.3887 -0.617
18.4190 0.327
18.4492 -0.030
18.4795 0.082
18.5098 -0.379
18.5401 0.202
18.5703 0.627
18.6006 0.427
18.6309 1.061
18.6612 -0.024
18.6915 -0.014
18.7217 -0.734
18.7520 0.265
18.7823 0.380
18.8126 -0.287
18.8429 0.400
18.8731 0.515
18.9034 0.214
18.9337 -0.139
18.9640 0.028
18.9942 -0.220
19.0245 -0.104
19.0548 0.221
19.0851 -0.079
19.1154 0.350
19.1456 0.051
19.1759 -0.405
19.2062 -0.149
19.2365 0.004
19.2668 0.313
19.2970 0.101
19.3273 0.515
19.3576 0.252
19.3879 -0.115
19.4181 0.299
19.4484 -0.328
19.4787 0.087
19.5090 0.189
19.5393 -0.229
19.5695 -0.178
19.5998 0.499
19.6301 -0.075
19.6604 0.289
19.6907 -0.075
19.7209 0.289
19.7512 -0.127
19.7815 0.395
19.8118 0.500
19.8420 0.032
19.8723 -0.175
19.9026 0.035
19.9329 0.766
19.9632 0.768
19.9934 -0.115
20.0237 -0.165
20.0540 0.047
20.0843 0.102
20.1146 -0.155
20.1448 0.630
20.1751 0.321
20.2054 0.273
20.2357 0.017
20.2659 -0.083
20.2962 -0.078
20.3265 0.552
20.3568 -0.172
20.3871 0.198
20.4173 0.204
20.4476 0.210
20.4779 0.424
20.5082 0.275
20.5385 0.802
20.5687 0.132
20.5990 0.504
20.6293 0.095
20.6596 0.207
20.6899 0.006
20.7201 -0.142
20.7504 0.700
20.7807 0.865
20.8110 -0.011
20.8412 0.362
20.8715 -0.045
20.9018 0.069
20.9321 0.339
20.9624 0.141
20.9926 0.516
21.0229 0.214
21.0532 -0.296
21.0835 -0.389
21.1138 0.508
21.1440 0.155
21.1743 0.480
21.2046 -0.081
21.2349 0.244
21.2651 -0.317
21.2954 -0.425
21.3257 0.404
21.3560 0.713
21.3863 0.345
21.4165 0.082
21.4468 0.704
21.4771 0.336
21.5074 0.542
21.5377 0.228
21.5679 0.382
21.5982 0.432
21.6285 -0.194
21.6588 0.169
21.6890 0.064
21.7193 -0.145
21.7496 0.375
21.7799 0.167
21.8102 0.010
21.8404 0.219
21.8707 -0.197
21.9010 -0.092
21.9313 0.169
21.9616 0.587
21.9918 0.432
22.0221 0.798
22.0524 -0.137
22.0827 0.126
22.1129 0.388
22.1432 0.651
22.1735 -0.023
22.2038 0.345
22.2341 0.348
22.2643 -0.169
22.2946 0.304
22.3249 0.048
22.3552 -0.104
22.3855 0.578
22.4157 0.478
22.4460 0.379
22.4763 -0.084
22.5066 0.651
22.5368 0.709
22.5671 0.142
22.5974 0.877
22.6277 0.832
22.6580 0.682
22.6882 0.064
22.7185 -0.345
22.7488 -0.147
22.7791 0.521
22.8094 0.251
22.8396 0.449
22.8699 0.909
22.9002 0.379
22.9305 -0.202
22.9607 0.102
22.9910 -0.063
23.0213 -0.123
23.0516 0.130
23.0819 -0.190
23.1121 -0.197
23.1424 0.577
23.1727 0.154
23.2030 -0.217
23.2333 0.298
23.2635 0.292
23.2938 0.494
23.3241 0.333
23.3544 -0.298
23.3846 0.322
23.4149 -0.099
23.4452 0.261
23.4755 0.101
23.5058 -0.008
23.5360 -0.168
23.5663 -0.223
23.5966 -0.122
23.6269 -0.386
23.6572 0.341
23.6874 0.182
23.7177 0.336
23.7480 -0.187
23.7783 0.020
23.8086 -0.086
23.8388 -0.296
23.8691 0.849
23.8994 -0.089
23.9297 -0.038
23.9599 0.014
23.9902 0.014
24.0205 0.326
24.0508 0.014
24.0811 0.223
24.1113 -0.192
24.1416 -0.035
24.1719 0.018
24.2022 -0.136
24.2325 -0.186
24.2627 -0.080
24.2930 -0.286
24.3233 -0.127
24.3536 -0.124
24.3838 -0.278
24.4141 0.351
24.4444 0.198
24.4747 0.202
24.5050 -0.315
24.5352 0.523
24.5655 0.632
24.5958 0.063
24.6261 -0.348
24.6564 -0.030
24.6866 0.183
24.7169 -0.332
24.7472 0.299
24.7775 0.306
24.8077 0.052
24.8380 -0.150
24.8683 -0.455
24.8986 0.177
24.9289 0.445
24.9591 0.244
24.9894 0.409
25.0197 0.208
25.0500 0.113
25.0803 0.278
25.1105 -0.234
25.1408 0.192
25.1711 -0.111
25.2014 -0.310
25.2316 -0.002
25.2619 -0.058
25.2922 0.772
25.3225 0.352
25.3528 0.140
25.3830 0.241
25.4133 -0.126
25.4436 0.392
25.4739 -0.444
25.5042 0.492
25.5344 0.750
25.5647 0.332
25.5950 0.591
25.6253 0.746
25.6555 -0.088
25.6858 0.328
25.7161 0.223
25.7464 -0.037
25.7767 0.067
25.8069 0.588
25.8372 0.277
25.8675 -0.191
25.8978 -0.086
25.9281 0.644
25.9583 -0.291
25.9886 0.127
26.0189 0.181
26.0492 0.131
26.0794 0.499
26.1097 0.345
26.1400 0.036
26.1703 0.091
26.2006 0.303
26.2308 0.098
26.2611 0.467
26.2914 0.576
26.3217 -0.201
26.3520 0.376
26.3822 0.121
26.4125 0.543
26.4428 -0.233
26.4731 0.138
26.5034 0.456
26.5336 0.514
26.5639 -0.104
26.5942 -0.045
26.6245 0.014
26.6547 -0.344
26.6850 -0.095
26.7153 0.103
26.7456 0.456
26.7759 0.237
26.8061 0.175
26.8364 0.060
26.8667 -0.366
26.8970 0.457
26.9273 0.031
26.9575 0.386
26.9878 0.898
27.0181 0.525
27.0484 0.048
27.0786 0.977
27.1089 0.136
27.1392 0.388
27.1695 -0.401
27.1998 0.478
27.2300 0.418
27.2603 -0.057
27.2906 0.718
27.3209 -0.070
27.3512 0.132
27.3814 0.231
27.4117 0.590
27.4420 0.376
27.4723 0.059
27.5025 0.158
27.5328 0.101
27.5631 -0.580
27.5934 0.197
27.6237 0.714
27.6539 0.085
27.6842 0.447
27.7145 -0.077
27.7448 0.284
27.7751 0.386
27.8053 -0.033
27.8356 -0.244
27.8659 0.744
27.8962 0.274
27.9264 0.064
27.9567 0.427
27.9870 0.062
28.0173 0.530
28.0476 0.061
28.0778 0.113
28.1081 0.217
28.1384 0.009
28.1687 0.061
28.1990 0.218
28.2292 0.167
28.2595 0.585
28.2898 0.535
28.3201 0.172
28.3503 -0.138
28.3806 0.645
28.4109 0.439
28.4412 0.390
28.4715 0.237
28.5017 0.136
28.5320 -0.330
28.5623 -0.500
28.5926 0.581
28.6229 0.463
28.6531 0.034
28.6834 0.437
28.7137 0.842
28.7440 0.048
28.7742 0.192
28.8045 1.326
28.8348 -0.508
28.8651 0.210
28.8954 0.042
28.9256 0.396
28.9559 -0.083
28.9862 0.219
29.0165 0.730
29.0468 0.563
29.0770 -0.227
29.1073 0.544
29.1376 0.119
29.1679 -0.307
29.1981 0.882
29.2284 0.301
29.2587 -0.124
29.2890 0.077
29.3193 -0.087
29.3495 -0.407
29.3798 -0.006
29.4101 0.656
29.4404 -0.244
29.4707 0.002
29.5009 0.300
29.5312 1.119
29.5615 -0.301
29.5918 0.414
29.6221 0.297
29.6523 0.596
29.6826 0.323
29.7129 0.414
29.7432 0.350
29.7734 -0.444
29.8037 0.274
29.8340 0.106
29.8643 -0.062
29.8946 -0.386
29.9248 -0.040
29.9551 0.515
29.9854 -0.180
30.0157 -0.250
30.0460 0.357
30.0762 0.184
30.1065 -0.146
30.1368 0.462
30.1671 -0.231
30.1973 -0.143
30.2276 0.361
30.2579 0.554
30.2882 1.059
30.3185 0.523
30.3487 0.403
30.3790 0.076
30.4093 -0.251
30.4396 0.672
30.4699 0.241
30.5001 -0.398
30.5304 0.422
30.5607 0.721
30.5910 0.343
30.6212 1.320
30.6515 1.255
30.6818 1.399
30.7121 1.283
30.7424 0.906
30.7726 0.270
30.8029 1.977
30.8332 1.601
30.8635 1.955
30.8938 1.319
30.9240 1.881
30.9543 1.611
30.9846 2.330
31.0149 2.997
31.0451 3.873
31.0754 2.926
31.1057 4.115
31.1360 4.471
31.1663 4.827
31.1965 5.183
31.2268 5.800
31.2571 7.199
31.2874 7.973
31.3177 8.747
31.3479 10.094
31.3782 10.087
31.4085 12.476
31.4388 14.709
31.4690 15.849
31.4993 20.062
31.5296 19.900
31.5599 21.770
31.5902 22.286
31.6204 22.385
31.6507 23.943
31.6810 20.449
31.7113 18.986
31.7416 17.472
31.7718 14.187
31.8021 13.663
31.8324 10.587
31.8627 10.636
31.8929 8.602
31.9232 6.985
31.9535 6.150
31.9838 5.679
32.0141 5.573
32.0443 4.009
32.0746 3.696
32.1049 3.486
32.1352 3.225
32.1655 2.912
32.1957 2.443
32.2260 2.339
32.2563 2.860
32.2866 1.871
32.3169 2.914
32.3471 2.290
32.3774 1.093
32.4077 1.616
32.4380 1.044
32.4682 1.098
32.4985 1.674
32.5288 1.312
32.5591 1.106
32.5894 0.849
32.6196 0.227
32.6499 -0.343
32.6802 1.015
32.7105 0.602
32.7408 1.232
32.7710 -0.066
32.8013 0.928
32.8316 0.152
32.8619 -0.207
32.8921 0.267
32.9224 -0.144
32.9527 -0.190
32.9830 -0.132
33.0133 -0.438
33.0435 -0.296
33.0738 0.107
33.1041 -0.114
33.1344 0.602
33.1647 0.745
33.1949 -0.257
33.2252 -0.165
33.2555 0.083
33.2858 -0.189
33.3160 -0.409
33.3463 -0.055
33.3766 0.402
33.4069 -0.338
33.4372 0.068
33.4674 -0.046
33.4977 0.517
33.5280 0.194
33.5583 0.185
33.5886 0.853
33.6188 0.479
33.6491 0.574
33.6794 1.138
33.7097 1.338
33.7399 0.757
33.7702 1.010
33.8005 1.054
33.8308 2.089
33.8611 2.029
33.8913 2.387
33.9216 1.755
33.9519 2.270
33.9822 3.878
34.0125 4.445
34.0427 6.314
34.0730 7.194
34.1033 9.377
34.1336 10.830
34.1638 16.711
34.1941 17.123
34.2244 21.650
34.2547 25.448
34.2850 26.903
34.3152 24.660
34.3455 18.459
34.3758 15.799
34.4061 12.724
34.4364 10.586
34.4666 5.688
34.4969 5.581
34.5272 4.590
34.5575 3.703
34.5877 4.066
34.6180 2.086
34.6483 3.492
34.6786 1.356
34.7089 2.032
34.7391 1.772
34.7694 1.720
34.7997 0.731
34.8300 1.304
34.8603 0.732
34.8905 1.307
34.9208 1.725
34.9511 1.205
34.9814 1.312
35.0116 1.522
35.0419 2.358
35.0722 1.319
35.1025 0.592
35.1328 1.012
35.1630 1.224
35.1933 1.488
35.2236 1.700
35.2539 1.548
35.2842 1.448
35.3144 1.088
35.3447 1.197
35.3750 1.567
35.4053 2.770
35.4356 2.411
35.4658 3.146
35.4961 2.631
35.5264 4.460
35.5567 3.373
35.5869 4.370
35.6172 3.908
35.6475 5.373
35.6778 6.006
35.7081 7.055
35.7383 6.959
35.7686 9.624
35.7989 9.945
35.8292 12.141
35.8595 12.931
35.8897 15.024
35.9200 16.231
35.9503 19.053
35.9806 22.813
36.0108 26.053
36.0411 28.042
36.0714 29.876
36.1017 30.408
36.1320 29.065
36.1622 31.212
36.1925 25.077
36.2228 25.246
36.2531 21.924
36.2834 20.114
36.3136 14.918
36.3439 13.473
36.3742 11.871
36.4045 9.697
36.4347 8.096
36.4650 7.433
36.4953 6.145
36.5256 5.482
36.5559 5.497
36.5861 5.408
36.6164 4.121
36.6467 2.782
36.6770 3.058
36.7073 2.605
36.7375 2.309
36.7678 2.012
36.7981 0.519
36.8284 1.890
36.8586 0.917
36.8889 0.934
36.9192 0.796
36.9495 1.907
36.9798 0.675
37.0100 1.162
37.0403 0.868
37.0706 0.470
37.1009 0.333
37.1312 0.613
37.1614 0.789
37.1917 0.235
37.2220 0.516
37.2523 0.588
37.2825 0.036
37.3128 0.369
37.3431 0.390
37.3734 0.515
37.4037 0.849
37.4339 0.246
37.4642 0.164
37.4945 1.124
37.5248 0.000
37.5551 0.231
37.5853 0.931
37.6156 0.173
37.6459 0.040
37.6762 0.533
37.7064 0.400
37.7367 0.372
37.7670 -0.124
37.7973 -0.360
37.8276 -0.025
37.8578 0.207
37.8881 -0.239
37.9184 -0.163
37.9487 -0.348
37.9790 -0.126
38.0092 0.878
38.0395 -0.254
38.0698 0.281
38.1001 0.140
38.1304 -0.105
38.1606 -0.559
38.1909 0.022
38.2212 0.290
38.2515 -0.067
38.2817 0.202
38.3120 -0.519
38.3423 -0.041
38.3726 0.124
38.4029 0.602
38.4331 0.820
38.4634 -0.316
38.4937 -0.254
38.5240 -0.139
38.5543 -0.233
38.5845 0.195
38.6148 -0.107
38.6451 -0.200
38.6754 -0.240
38.7056 0.084
38.7359 -0.633
38.7662 -0.154
38.7965 -0.038
38.8268 0.598
38.8570 -0.015
38.8873 -0.056
38.9176 -0.460
38.9479 0.177
38.9782 -0.123
39.0084 -0.422
39.0387 0.052
39.0690 0.163
39.0993 -0.143
39.1295 -0.293
39.1598 -0.182
39.1901 0.190
39.2204 -0.063
39.2507 0.309
39.2809 -0.152
39.3112 0.117
39.3415 -0.395
39.3718 0.134
39.4021 0.195
39.4323 -0.473
39.4626 0.422
39.4929 0.484
39.5232 0.181
39.5534 0.452
39.5837 -0.684
39.6140 0.525
39.6443 -0.037
39.6746 0.338
39.7048 0.141
39.7351 0.101
39.7654 -0.252
39.7957 0.333
39.8260 0.293
39.8562 -0.319
39.8865 0.527
39.9168 0.280
39.9471 -0.072
39.9773 -0.266
40.0076 -0.162
40.0379 0.047
40.0682 0.047
40.0985 0.204
40.1287 0.153
40.1590 0.415
40.1893 -0.208
40.2196 0.315
40.2499 0.056
40.2801 0.111
40.3104 0.374
40.3407 -0.248
40.3710 0.015
40.4012 0.227
40.4315 0.126
40.4618 -0.026
40.4921 0.030
40.5224 0.138
40.5526 -0.274
40.5829 0.096
40.6132 0.101
40.6435 -0.258
40.6738 -0.162
40.7040 0.404
40.7343 0.136
40.7646 -0.131
40.7949 0.175
40.8251 0.064
40.8554 0.058
40.8857 0.260
40.9160 0.098
40.9463 0.249
40.9765 -0.016
41.0068 -0.125
41.0371 0.026
41.0674 0.074
41.0977 -0.347
41.1279 0.118
41.1582 0.010
41.1885 -0.046
41.2188 0.628
41.2491 -0.208
41.2793 0.362
41.3096 -0.213
41.3399 0.097
41.3702 0.199
41.4004 0.354
41.4307 -0.429
41.4610 -0.274
41.4913 0.298
41.5216 -0.484
41.5518 0.348
41.5821 -0.069
41.6124 -0.381
41.6427 0.140
41.6730 -0.225
41.7032 0.036
41.7335 -0.223
41.7638 -0.274
41.7941 -0.117
41.8243 -0.325
41.8546 0.145
41.8849 -0.219
41.9152 0.251
41.9455 0.149
41.9757 -0.474
42.0060 0.049
42.0363 0.051
42.0666 -0.154
42.0969 0.109
42.1271 0.008
42.1574 -0.041
42.1877 0.119
42.2180 -0.294
42.2482 0.440
42.2785 -0.233
42.3088 0.188
42.3391 -0.328
42.3694 -0.062
42.3996 0.099
42.4299 0.001
42.4602 0.215
42.4905 0.117
42.5208 0.228
42.5510 0.078
42.5813 0.033
42.6116 -0.221
42.6419 -0.161
42.6721 -0.102
42.7024 -0.094
42.7327 0.747
42.7630 0.339
42.7933 0.400
42.8235 0.356
42.8538 0.001
42.8841 -0.250
42.9144 -0.093
42.9447 0.169
42.9749 0.431
43.0052 -0.035
43.0355 0.071
43.0658 0.282
43.0960 -0.080
43.1263 0.184
43.1566 -0.178
43.1869 0.138
43.2172 -0.118
43.2474 0.459
43.2777 -0.006
43.3080 -0.001
43.3383 0.212
43.3686 -0.200
43.3988 0.014
43.4291 -0.033
43.4594 0.285
43.4897 0.604
43.5199 -0.171
43.5502 -0.009
43.5805 0.363
43.6108 0.266
43.6411 -0.144
43.6713 -0.032
43.7016 -0.233
43.7319 -0.140
43.7622 0.109
43.7925 0.255
43.8227 0.088
43.8530 0.547
43.8833 -0.036
43.9136 0.319
43.9439 0.362
43.9741 0.092
44.0044 0.239
44.0347 -0.238
44.0650 0.482
44.0952 0.058
44.1255 -0.055
44.1558 -0.114
44.1861 -0.018
44.2164 0.027
44.2466 0.489
44.2769 0.222
44.3072 -0.045
44.3375 0.001
44.3678 0.359
44.3980 0.041
44.4283 0.192
44.4586 -0.126
44.4889 0.285
44.5191 0.072
44.5494 0.120
44.5797 -0.041
44.6100 0.528
44.6403 0.160
44.6705 -0.104
44.7008 0.205
44.7311 -0.059
44.7614 0.199
44.7917 0.040
44.8219 -0.067
44.8522 0.035
44.8825 -0.175
44.9128 -0.333
44.9430 0.135
44.9733 0.238
45.0036 0.185
45.0339 0.080
45.0642 -0.285
45.0944 -0.138
45.1247 -0.146
45.1550 -0.363
45.1853 0.462
45.2156 -0.327
45.2458 0.342
45.2761 0.022
45.3064 -0.142
45.3367 -0.253
45.3669 0.001
45.3972 -0.318
45.4275 0.040
45.4578 0.138
45.4881 0.132
45.5183 0.648
45.5486 -0.295
45.5789 -0.092
45.6092 -0.305
45.6395 0.367
45.6697 -0.627
45.7000 -0.058
45.7303 -0.218
45.7606 -0.117
45.7908 0.036
45.8211 0.085
45.8514 -0.387
45.8817 0.131
45.9120 -0.132
45.9422 -0.030
45.9725 0.125
46.0028 0.019
46.0331 -0.035
46.0634 -0.192
46.0936 -0.297
46.1239 0.223
46.1542 0.223
46.1845 0.118
46.2147 0.118
46.2450 0.275
46.2753 0.484
46.3056 -0.245
46.3359 0.173
46.3661 0.279
46.3964 0.905
46.4267 -0.083
46.4570 -0.289
46.4873 -0.297
46.5175 0.269
46.5478 0.626
46.5781 0.671
46.6084 0.039
46.6386 0.449
46.6689 0.391
46.6992 0.541
46.7295 0.639
46.7598 0.425
46.7900 0.837
46.8203 0.571
46.8506 0.722
46.8809 0.614
46.9112 0.974
46.9414 1.282
46.9717 1.226
47.0020 1.795
47.0323 0.907
47.0626 1.841
47.0928 1.994
47.1231 2.617
47.1534 3.187
47.1837 1.987
47.2139 4.068
47.2442 3.858
47.2745 4.638
47.3048 4.845
47.3351 5.053
47.3653 5.833
47.3956 6.354
47.4259 5.885
47.4562 5.416
47.4865 4.166
47.5167 3.750
47.5470 4.115
47.5773 3.283
47.6076 3.128
47.6378 2.140
47.6681 2.662
47.6984 1.935
47.7287 1.990
47.7590 1.523
47.7892 1.057
47.8195 0.800
47.8498 1.220
47.8801 1.119
47.9104 0.862
47.9406 0.710
47.9709 0.506
48.0012 0.094
48.0315 0.359
48.0617 -0.053
48.0920 0.369
48.1223 0.322
48.1526 0.328
48.1829 0.177
48.2131 0.548
48.2434 0.086
48.2737 0.196
48.3040 0.047
48.3343 0.210
48.3645 -0.199
48.3948 0.017
48.4251 0.598
48.4554 0.346
48.4856 -0.167
48.5159 -0.002
48.5462 0.267
48.5765 -0.297
48.6068 0.233
48.6370 0.087
48.6673 0.253
48.6976 0.263
48.7279 0.065
48.7582 -0.341
48.7884 0.347
48.8187 -0.215
48.8490 0.265
48.8793 -0.036
48.9095 -0.285
48.9398 -0.030
48.9701 0.069
49.0004 0.377
49.0307 0.216
49.0609 0.108
49.0912 0.104
49.1215 -0.213
49.1518 0.513
49.1821 -0.115
49.2123 0.090
49.2426 0.035
49.2729 0.033
49.3032 0.186
49.3334 0.393
49.3637 -0.130
49.3940 0.129
49.4243 -0.341
49.4546 -0.134
49.4848 0.021
49.5151 -0.188
49.5454 -0.136
49.5757 0.072
49.6060 -0.292
49.6362 0.073
49.6665 -0.031
49.6968 0.178
49.7271 -0.029
49.7574 -0.236
49.7876 -0.286
49.8179 0.185
49.8482 -0.490
49.8785 -0.227
49.9087 -0.015
49.9390 -0.168
49.9693 0.148
49.9996 0.099
50.0299 0.051
50.0601 -0.049
50.0904 0.060
50.1207 0.064
50.1510 0.017
50.1813 0.023
50.2115 0.340
50.2418 0.138
50.2721 0.092
50.3024 -0.163
50.3326 -0.052
50.3629 -0.045
50.3932 0.066
50.4235 -0.135
50.4538 -0.076
50.4840 0.140
50.5143 0.200
50.5446 0.104
50.5749 0.164
50.6052 0.277
50.6354 0.130
50.6657 0.191
50.6960 0.773
50.7263 0.262
50.7565 0.011
50.7868 -0.031
50.8171 -0.437
50.8474 -0.028
50.8777 0.485
50.9079 -0.199
50.9382 0.680
50.9685 -0.108
50.9988 0.146
51.0291 -0.225
51.0593 0.290
51.0896 -0.028
51.1199 0.331
51.1502 0.065
51.1804 0.112
51.2107 0.003
51.2410 0.103
51.2713 -0.058
51.3016 0.095
51.3318 0.091
51.3621 -0.225
51.3924 -0.124
51.4227 -0.388
51.4530 0.079
51.4832 -0.027
51.5135 0.440
51.5438 -0.238
51.5741 0.438
51.6043 -0.136
51.6346 0.280
51.6649 -0.137
51.6952 0.331
51.7255 0.019
51.7557 0.019
51.7860 0.385
51.8163 -0.188
51.8466 0.074
51.8769 -0.185
51.9071 0.025
51.9374 -0.130
51.9677 0.341
51.9980 -0.282
52.0282 0.242
52.0585 0.088
52.0888 0.144
52.1191 -0.061
52.1494 0.150
52.1796 -0.002
52.2099 -0.258
52.2402 -0.160
52.2705 -0.113
52.3008 0.247
52.3310 0.034
52.3613 0.030
52.3916 -0.131
52.4219 -0.082
52.4521 0.018
52.4824 -0.037
52.5127 0.012
52.5430 -0.200
52.5733 -0.515
52.6035 0.420
52.6338 0.002
52.6641 0.052
52.6944 0.050
52.7247 -0.056
52.7549 0.256
52.7852 -0.370
52.8155 -0.006
52.8458 0.202
52.8761 0.097
52.9063 0.201
52.9366 -0.059
52.9669 -0.266
52.9972 -0.009
53.0274 -0.324
53.0577 0.038
53.0880 -0.225
53.1183 0.294
53.1486 0.293
53.1788 -0.125
53.2091 0.498
53.2394 -0.544
53.2697 0.132
53.3000 -0.285
53.3302 -0.186
53.3605 0.122
53.3908 0.117
53.4211 -0.303
53.4513 -0.099
53.4816 0.053
53.5119 -0.054
53.5422 0.203
53.5725 0.252
53.6027 -0.220
53.6330 -0.274
53.6633 0.141
53.6936 0.139
53.7239 -0.279
53.7541 0.137
53.7844 -0.020
53.8147 0.188
53.8450 0.344
53.8752 0.031
53.9055 -0.281
53.9358 0.553
53.9661 -0.124
53.9964 -0.071
54.0266 0.295
54.0569 -0.016
54.0872 0.298
54.1175 0.092
54.1478 -0.114
54.1780 -0.112
54.2083 -0.057
54.2386 0.154
54.2689 0.366
54.2991 0.473
54.3294 0.112
54.3597 0.064
54.3900 -0.140
54.4203 0.229
54.4505 -0.339
54.4808 0.395
54.5111 0.087
54.5414 0.040
54.5717 -0.266
54.6019 -0.219
54.6322 -0.119
54.6625 -0.071
54.6928 0.237
54.7230 0.234
54.7533 0.282
54.7836 -0.137
54.8139 0.328
54.8442 -0.143
54.8744 0.063
54.9047 -0.148
54.9350 -0.149
54.9653 -0.412
54.9956 0.160
55.0258 0.055
55.0561 0.001
55.0864 -0.312
55.1167 -0.052
55.1469 0.260
55.1772 0.000
55.2075 0.104
55.2378 -0.468
55.2681 -0.165
55.2983 0.191
55.3286 0.078
55.3589 0.070
55.3892 0.374
55.4195 0.158
55.4497 0.411
55.4800 -0.117
55.5103 0.188
55.5406 0.285
55.5709 0.331
55.6011 0.272
55.6314 -0.098
55.6617 0.729
55.6920 0.567
55.7222 0.458
55.7525 0.817
55.7828 0.812
55.8131 0.703
55.8434 0.907
55.8736 0.382
55.9039 0.951
55.9342 1.416
55.9645 2.037
55.9948 0.680
56.0250 1.771
56.0553 1.924
56.0856 2.182
56.1159 3.690
56.1461 2.803
56.1764 3.999
56.2067 4.258
56.2370 3.684
56.2673 4.100
56.2975 5.193
56.3278 5.661
56.3581 5.921
56.3884 7.535
56.4187 6.181
56.4489 7.432
56.4792 5.766
56.5095 6.965
56.5398 5.403
56.5700 6.082
56.6003 4.886
56.6306 4.367
56.6609 4.890
56.6912 3.434
56.7214 3.072
56.7517 2.346
56.7820 2.297
56.8123 2.613
56.8426 1.731
56.8728 1.422
56.9031 1.999
56.9334 1.118
56.9637 0.810
56.9939 0.503
57.0242 1.185
57.0545 1.086
57.0848 1.144
57.1151 1.306
57.1453 0.635
57.1756 0.745
57.2059 -0.030
57.2362 0.238
57.2665 0.765
57.2967 0.148
57.3270 0.103
57.3573 -0.097
57.3876 0.379
57.4178 0.648
57.4481 0.032
57.4784 0.249
57.5087 0.258
57.5390 0.059
57.5692 0.224
57.5995 0.495
57.6298 0.036
57.6601 0.150
57.6904 0.421
57.7206 0.015
57.7509 0.182
57.7812 0.506
57.8115 0.205
57.8417 0.165
57.8720 -0.084
57.9023 0.085
57.9326 -0.007
57.9629 0.318
57.9931 0.070
58.0234 0.032
58.0537 -0.007
58.0840 -0.306
58.1143 -0.054
58.1445 0.042
58.1748 0.242
58.2051 -0.078
58.2354 0.279
58.2656 0.011
58.2959 0.004
58.3262 -0.107
58.3565 0.407
58.3868 0.036
58.4170 -0.230
58.4473 -0.080
58.4776 0.227
58.5079 0.430
58.5382 0.061
58.5684 -0.517
58.5987 -0.104
58.6290 0.361
58.6593 0.305
58.6896 -0.010
58.7198 0.039
58.7501 0.088
58.7804 -0.175
58.8107 -0.125
58.8409 -0.074
58.8712 0.184
58.9015 -0.077
58.9318 0.026
58.9621 0.129
58.9923 0.441
59.0226 -0.081
59.0529 0.232
59.0832 -0.341
59.1135 0.024
59.1437 0.233
59.1740 -0.600
59.2043 -0.234
59.2346 -0.077
59.2648 -0.284
59.2951 0.030
59.3254 -0.384
59.3557 0.034
59.3860 0.193
59.4162 0.299
59.4465 -0.271
59.4768 0.201
59.5071 0.048
59.5374 0.051
59.5676 -0.049
59.5979 -0.045
59.6282 0.376
59.6585 0.172
59.6887 0.176
59.7190 -0.079
59.7493 -0.282
59.7796 0.029
59.8099 0.185
59.8401 0.340
59.8704 0.080
59.9007 -0.129
59.9310 -0.129
59.9613 -0.024
59.9915 -0.284
60.0218 0.186
60.0521 -0.282
60.0824 -0.234
60.1126 -0.185
60.1429 0.229
60.1732 0.070
60.2035 -0.454
60.2338 0.221
60.2640 0.219
60.2943 0.113
60.3246 -0.201
60.3549 -0.202
60.3852 -0.047
60.4154 0.004
60.4457 -0.153
60.4760 0.212
60.5063 -0.101
60.5365 -0.205
60.5668 -0.621
60.5971 0.151
60.6274 -0.066
60.6577 -0.023
60.6879 -0.135
60.7182 0.378
60.7485 -0.046
60.7788 0.259
60.8091 0.355
60.8393 -0.224
60.8696 -0.127
60.8999 -0.238
60.9302 -0.036
60.9604 0.375
60.9907 -0.204
61.0210 -0.209
61.0513 -0.215
61.0816 -0.063
61.1118 0.244
61.1421 0.188
61.1724 0.236
61.2027 -0.289
61.2330 0.019
61.2632 -0.036
61.2935 0.064
61.3238 -0.512
61.3541 0.059
61.3844 0.160
61.4146 -0.259
61.4449 -0.417
61.4752 0.198
61.5055 0.085
61.5357 -0.237
61.5660 0.014
61.5963 0.006
61.6266 0.206
61.6569 0.041
61.6871 -0.071
61.7174 0.286
61.7477 0.331
61.7780 0.271
61.8083 -0.308
61.8385 0.622
61.8688 0.303
61.8991 0.193
61.9294 0.239
61.9596 0.650
61.9899 0.645
62.0202 0.743
62.0505 -0.147
62.0808 0.213
62.1110 0.417
62.1413 0.777
62.1716 0.669
62.2019 1.342
62.2322 0.609
62.2624 0.815
62.2927 1.593
62.3230 1.746
62.3533 1.275
62.3835 2.314
62.4138 2.416
62.4441 2.310
62.4744 3.246
62.5047 2.568
62.5349 3.452
62.5652 4.285
62.5955 3.503
62.6258 5.325
62.6561 4.284
62.6863 4.753
62.7166 5.430
62.7469 5.795
62.7772 5.900
62.8074 5.224
62.8377 4.392
62.8680 4.082
62.8983 3.146
62.9286 3.460
62.9588 3.098
62.9891 2.476
63.0194 2.062
63.0497 2.169
63.0800 1.652
63.1102 1.134
63.1405 1.555
63.1708 0.569
63.2011 1.303
63.2313 0.734
63.2616 0.271
63.2919 1.005
63.3222 0.333
63.3525 0.338
63.3827 0.344
63.4130 0.298
63.4433 0.304
63.4736 0.207
63.5039 -0.255
63.5341 0.325
63.5644 -0.033
63.5947 -0.494
63.6250 0.035
63.6552 -0.114
63.6855 0.051
63.7158 0.059
63.7461 0.120
63.7764 -0.392
63.8066 -0.179
63.8369 0.035
63.8672 0.145
63.8975 0.307
63.9278 0.052
63.9580 0.058
63.9883 -0.092
64.0186 -0.137
64.0489 -0.391
64.0791 0.082
64.1094 -0.122
64.1397 0.091
64.1700 -0.322
64.2003 0.048
64.2305 0.053
64.2608 0.162
64.2911 -0.144
64.3214 -0.087
64.3517 -0.133
64.3819 0.030
64.4122 0.297
64.4425 0.043
64.4728 0.155
64.5031 -0.307
64.5333 -0.143
64.5636 -0.031
64.5939 -0.336
64.6242 -0.020
64.6544 -0.278
64.6847 0.090
64.7150 -0.479
64.7453 0.150
64.7756 -0.107
64.8058 -0.258
64.8361 -0.104
64.8664 0.520
64.8967 -0.262
64.9270 0.050
64.9572 0.050
64.9875 -0.002
65.0178 -0.054
65.0481 0.206
65.0783 -0.001
65.1086 -0.001
65.1389 -0.156
65.1692 -0.258
65.1995 -0.012
65.2297 0.235
65.2600 -0.247
65.2903 -0.260
65.3206 0.196
65.3509 -0.493
65.3811 -0.248
65.4114 -0.054
65.4417 -0.172
65.4720 0.126
65.5022 0.373
65.5325 -0.266
65.5628 -0.227
65.5931 -0.188
65.6234 0.163
65.6536 -0.162
65.6839 -0.226
65.7142 0.283
65.7445 0.010
65.7748 -0.418
65.8050 0.664
65.8353 -0.024
65.8656 0.069
65.8959 -0.202
65.9261 0.569
65.9564 -0.379
65.9867 0.237
66.0170 -0.190
66.0473 -0.095
66.0775 0.000
66.1078 -0.165
66.1381 0.191
66.1684 0.391
66.1987 0.018
66.2289 0.531
66.2592 0.367
66.2895 0.463
66.3198 0.612
66.3500 0.293
66.3803 0.651
66.4106 -0.241
66.4409 0.638
66.4712 -0.253
66.5014 0.366
66.5317 0.100
66.5620 0.199
66.5923 -0.379
66.6226 0.293
66.6528 -0.336
66.6831 -0.080
66.7134 -0.084
66.7437 -0.036
66.7739 -0.144
66.8042 -0.251
66.8345 -0.671
66.8648 0.264
66.8951 -0.104
66.9253 -0.314
66.9556 -0.264
66.9859 -0.110
67.0162 0.305
67.0465 -0.217
67.0767 -0.114
67.1070 -0.323
67.1373 0.038
67.1676 0.400
67.1978 -0.332
67.2281 0.447
67.2584 0.705
67.2887 0.494
67.3190 0.440
67.3492 0.699
67.3795 0.490
67.4098 0.749
67.4401 1.269
67.4704 0.747
67.5006 1.060
67.5309 2.414
67.5612 1.581
67.5915 1.321
67.6218 1.738
67.6520 2.520
67.6823 2.677
67.7126 2.314
67.7429 2.420
67.7731 3.099
67.8034 2.736
67.8337 3.103
67.8640 2.377
67.8943 3.265
67.9245 3.424
67.9548 2.490
67.9851 2.546
68.0154 1.768
68.0457 1.512
68.0759 2.089
68.1062 2.510
68.1365 2.255
68.1668 1.531
68.1970 1.276
68.2273 1.073
68.2576 1.131
68.2879 0.564
68.3182 0.049
68.3484 0.264
68.3787 0.687
68.4090 0.278
68.4393 0.754
68.4696 0.813
68.4998 0.665
68.5301 0.673
68.5604 0.733
68.5907 0.585
68.6209 0.334
68.6512 0.811
68.6815 0.873
68.7118 0.570
68.7421 0.527
68.7723 0.902
68.8026 1.224
68.8329 1.391
68.8632 1.454
68.8935 1.465
68.9237 0.903
68.9540 1.487
68.9843 0.978
69.0146 0.990
69.0448 1.106
69.0751 1.639
69.1054 1.027
69.1357 1.457
69.1660 0.949
69.1962 1.327
69.2265 0.143
69.2568 0.052
69.2871 0.535
69.3174 0.497
69.3476 1.085
69.3779 0.683
69.4082 0.750
69.4385 0.140
69.4687 0.260
69.4990 0.380
69.5293 -0.073
69.5596 0.308
69.5899 0.273
69.6201 0.081
69.6504 0.150
69.6807 0.324
69.7110 0.654
69.7413 -0.005
69.7715 0.169
69.8018 0.291
69.8321 0.206
69.8624 0.016
69.8926 -0.278
69.9229 -0.065
69.9532 0.512
69.9835 -0.057
70.0138 0.156
70.0440 0.369
70.0743 0.166
70.1046 -0.141
70.1349 -0.031
70.1652 0.026
70.1954 0.241
70.2257 -0.117
70.2560 0.097
70.2863 -0.052
70.3166 0.476
70.3468 -0.038
70.3771 -0.030
70.4074 0.186
70.4377 -0.014
70.4679 -0.214
70.4982 -0.112
70.5285 -0.010
70.5588 -0.012
70.5891 -0.169
70.6193 0.298
70.6496 0.453
70.6799 0.088
70.7102 0.348
70.7405 -0.173
70.7707 0.452
70.8010 -0.017
70.8313 0.088
70.8616 -0.015
70.8918 0.038
70.9221 -0.013
70.9524 0.405
70.9827 -0.270
71.0130 -0.164
71.0432 0.099
71.0735 -0.107
71.1038 0.000
71.1341 0.419
71.1644 0.006
71.1946 0.478
71.2249 0.169
71.2552 0.069
71.2855 -0.031
71.3157 -0.287
71.3460 0.291
71.3763 -0.017
71.4066 0.353
71.4369 0.462
71.4671 0.208
71.4974 -0.151
71.5277 0.011
71.5580 -0.191
71.5883 -0.080
71.6185 0.135
71.6488 -0.066
71.6791 0.202
71.7094 -0.207
71.7396 -0.199
71.7699 0.225
71.8002 0.234
71.8305 0.190
71.8608 -0.113
71.8910 0.104
71.9213 0.009
71.9516 -0.242
71.9819 -0.042
72.0122 0.105
72.0424 0.097
72.0727 0.297
72.1030 0.133
72.1333 -0.031
72.1635 0.431
72.1938 0.267
72.2241 0.261
72.2544 0.150
72.2847 0.821
72.3149 -0.019
72.3452 0.548
72.3755 0.386
72.4058 0.225
72.4361 0.428
72.4663 0.110
72.4966 0.366
72.5269 0.310
72.5572 0.253
72.5874 0.093
72.6177 0.350
72.6480 0.503
72.6783 -0.021
72.7086 -0.076
72.7388 -0.131
72.7691 0.075
72.7994 -0.240
72.8297 0.123
72.8600 0.173
72.8902 0.328
72.9205 -0.350
72.9508 0.482
72.9811 0.012
73.0113 0.220
73.0416 -0.040
73.0719 0.168
73.1022 -0.040
73.1325 -0.092
73.1627 -0.352
73.1930 0.064
73.2233 0.064
73.2536 -0.249
73.2839 -0.041
73.3141 0.115
73.3444 0.168
73.3747 -0.092
73.4050 0.065
73.4353 0.066
73.4655 0.120
73.4958 0.225
73.5261 -0.033
73.5564 -0.031
73.5866 0.075
73.6169 0.286
73.6472 -0.023
73.6775 -0.072
73.7078 -0.017
73.7380 0.195
73.7683 -0.166
73.7986 0.099
73.8289 0.467
73.8592 -0.309
73.8894 -0.148
73.9197 0.117
73.9500 0.279
73.9803 0.232
74.0105 0.186
74.0408 -0.069
74.0711 -0.427
74.1014 0.039
74.1317 0.088
74.1619 0.034
74.1922 -0.125
74.2225 -0.179
74.2528 0.132
74.2831 0.495
74.3133 0.494
74.3436 0.076
74.3739 -0.237
74.4042 0.075
74.4344 -0.081
74.4647 -0.081
74.4950 0.075
74.5253 0.076
74.5556 -0.236
74.5858 0.025
74.6161 -0.130
74.6464 -0.024
74.6767 -0.023
74.7070 0.240
74.7372 0.034
74.7675 0.036
74.7978 0.091
74.8281 -0.219
74.8583 -0.119
74.8886 0.190
74.9189 -0.231
74.9492 0.026
74.9795 0.022
75.0097 0.019
75.0400 -0.140
75.0703 0.430
75.1006 0.063
75.1309 0.009
75.1611 -0.097
75.1914 0.005
75.2217 -0.100
75.2520 -0.049
75.2822 0.210
75.3125 -0.103
75.3428 0.157
75.3731 0.209
75.4034 -0.052
75.4336 0.105
75.4639 -0.103
75.4942 0.002
75.5245 -0.101
75.5548 -0.204
75.5850 0.057
75.6153 0.006
75.6456 -0.200
75.6759 -0.146
75.7061 0.012
75.7364 -0.038
75.7667 0.277
75.7970 -0.189
75.8273 0.179
75.8575 0.182
75.8878 -0.179
75.9181 0.190
75.9484 0.142
75.9787 -0.219
76.0089 -0.174
76.0392 0.234
76.0695 0.019
76.0998 0.220
76.1301 0.265
76.1603 -0.054
76.1906 0.252
76.2209 0.141
76.2512 -0.073
76.2814 0.234
76.3117 -0.136
76.3420 0.431
76.3723 0.270
76.4026 -0.099
76.4328 0.365
76.4631 -0.056
76.4934 0.252
76.5237 0.301
76.5540 0.453
76.5842 0.190
76.6145 0.343
76.6448 0.392
76.6751 0.285
76.7053 0.647
76.7356 0.281
76.7659 -0.034
76.7962 0.850
76.8265 0.224
76.8567 0.067
76.8870 0.639
76.9173 0.169
76.9476 0.273
76.9779 0.429
77.0081 0.377
77.0384 0.534
77.0687 0.534
77.0990 0.639
77.1292 0.068
77.1595 0.069
77.1898 0.071
77.2201 0.072
77.2504 0.699
77.2806 0.598
77.3109 0.183
77.3412 -0.335
77.3715 0.033
77.4018 -0.068
77.4320 0.144
77.4623 0.096
77.4926 0.048
77.5229 0.364
77.5531 0.057
77.5834 0.113
77.6137 0.066
77.6440 0.228
77.6743 -0.183
77.7045 0.031
77.7348 -0.015
77.7651 -0.061
77.7954 -0.003
77.8257 -0.048
77.8559 -0.249
77.8862 0.174
77.9165 -0.079
77.9468 0.502
77.9770 -0.167
78.0073 0.206
78.0376 0.058
78.0679 -0.194
78.0982 -0.091
78.1284 0.116
78.1587 0.115
78.1890 0.375
78.2193 -0.095
78.2496 0.009
78.2798 -0.043
78.3101 0.062
78.3404 0.062
78.3707 -0.041
78.4009 0.376
78.4312 0.013
78.4615 -0.194
78.4918 -0.042
78.5221 -0.099
78.5523 -0.259
78.5826 0.102
78.6129 0.254
78.6432 -0.166
78.6735 0.248
78.7037 -0.015
78.7340 0.034
78.7643 -0.124
78.7946 0.342
78.8248 0.288
78.8551 -0.182
78.8854 0.077
78.9157 0.180
78.9460 -0.186
78.9762 0.022
79.0065 -0.030
79.0368 -0.031
79.0671 -0.239
79.0974 0.126
79.1276 -0.030
79.1579 0.023
79.1882 -0.080
79.2185 0.078
79.2488 -0.025
79.2790 0.185
79.3093 -0.230
79.3396 0.189
79.3699 0.036
79.4001 0.559
79.4304 -0.063
79.4607 -0.112
79.4910 -0.160
79.5213 0.104
79.5515 0.160
79.5818 0.008
79.6121 0.013
79.6424 0.069
79.6727 -0.238
79.7029 0.132
79.7332 0.293
79.7635 0.091
79.7938 0.253
79.8240 -0.106
79.8543 0.109
79.8846 0.064
79.9149 -0.346
79.9452 -0.097
79.9754 0.101
80.0057 0.090
80.0360 -0.128
80.0663 0.278
80.0966 -0.200
80.1268 0.155
80.1571 -0.011
80.1874 0.084
80.2177 0.127
80.2479 -0.038
80.2782 0.162
80.3085 0.154
80.3388 -0.010
80.3691 0.191
80.3993 -0.129
80.4296 0.072
80.4599 0.325
80.4902 0.110
80.5205 0.260
80.5507 -0.163
80.5810 0.144
80.6113 -0.122
80.6416 0.080
80.6718 -0.185
80.7021 -0.086
80.7324 -0.091
80.7627 -0.095
80.7930 0.057
80.8232 0.157
80.8535 -0.315
80.8838 -0.163
80.9141 -0.114
80.9444 -0.117
80.9746 -0.224
81.0049 0.035
81.0352 -0.019
81.0655 -0.229
81.0957 0.031
81.1260 0.030
81.1563 -0.231
81.1866 0.081
81.2169 0.237
81.2471 0.341
81.2774 0.185
81.3077 -0.023
81.3380 0.551
81.3683 -0.125
81.3985 -0.072
81.4288 -0.278
81.4591 0.088
81.4894 -0.118
81.5196 0.301
81.5499 0.251
81.5802 -0.059
81.6105 0.153
81.6408 -0.104
81.6710 0.159
81.7013 0.007
81.7316 -0.197
81.7619 -0.037
81.7922 0.176
81.8224 -0.340
81.8527 -0.075
81.8830 -0.174
81.9133 -0.377
81.9436 0.202
81.9738 -0.052
82.0041 0.006
82.0344 0.221
82.0647 0.019
82.0949 -0.287
82.1252 -0.019
82.1555 -0.012
82.1858 -0.160
82.2161 -0.204
82.2463 -0.095
82.2766 -0.141
82.3069 0.021
82.3372 -0.233
82.3675 0.086
82.3977 0.041
82.4280 -0.108
82.4583 0.472
82.4886 0.011
82.5188 0.331
82.5491 -0.025
82.5794 -0.225
82.6097 0.096
82.6400 0.157
82.6702 0.009
82.7005 -0.190
82.7308 -0.040
82.7611 0.059
82.7914 0.470
82.8216 0.100
82.8519 0.355
82.8822 -0.015
82.9125 0.033
82.9427 0.132
82.9730 0.180
83.0033 -0.032
83.0336 0.068
83.0639 0.273
83.0941 0.166
83.1244 -0.046
83.1547 0.368
83.1850 -0.051
83.2153 0.416
83.2455 0.049
83.2758 0.151
83.3061 0.254
83.3364 0.149
83.3666 -0.009
83.3969 -0.218
83.4272 0.042
83.4575 0.042
83.4878 0.042
83.5180 -0.062
83.5483 -0.010
83.5786 0.043
83.6089 0.096
83.6392 0.149
83.6694 0.151
83.6997 0.204
83.7300 0.050
83.7603 0.208
83.7905 0.523
83.8208 0.057
83.8511 -0.148
83.8814 0.115
83.9117 -0.194
83.9419 -0.143
83.9722 0.065
84.0025 0.116
84.0328 0.116
84.0631 0.168
84.0933 0.064
84.1236 -0.092
84.1539 0.378
84.1842 0.014
84.2144 0.119
84.2447 -0.140
84.2750 0.018
84.3053 0.020
84.3356 0.022
84.3658 -0.236
84.3961 0.548
84.4264 -0.022
84.4567 -0.019
84.4870 0.297
84.5172 0.040
84.5475 -0.321
84.5778 0.100
84.6081 -0.260
84.6383 0.005
84.6686 -0.095
84.6989 0.588
84.7292 0.020
84.7595 -0.183
84.7897 -0.240
84.8200 0.277
84.8503 0.533
84.8806 -0.253
84.9109 0.056
84.9411 0.052
84.9714 -0.003
85.0017 -0.058
85.0320 0.199
85.0623 -0.012
85.0925 0.090
85.1228 0.244
85.1531 0.034
85.1834 0.189
85.2136 -0.125
85.2439 -0.074
85.2742 0.029
85.3045 0.132
85.3348 0.132
85.3650 0.236
85.3953 0.184
85.4256 0.080
85.4559 0.185
85.4862 -0.075
85.5164 0.291
85.5467 0.032
85.5770 -0.227
85.6073 0.139
85.6375 0.037
85.6678 -0.065
85.6981 0.094
85.7284 0.045
85.7587 0.100
85.7889 0.051
85.8192 -0.102
85.8495 0.318
85.8798 0.114
85.9101 0.014
85.9403 -0.190
85.9706 -0.031
86.0009 0.076
86.0312 0.027
86.0614 -0.021
86.0917 0.191
86.1220 0.247
86.1523 0.095
86.1826 -0.213
86.2128 0.052
86.2431 0.161
86.2734 0.062
86.3037 -0.037
86.3340 -0.240
86.3642 0.012
86.3945 0.107
86.4248 0.202
86.4551 0.090
86.4853 0.029
86.5156 0.126
86.5459 -0.195
86.5762 0.110
86.6065 0.103
86.6367 0.200
86.6670 -0.171
86.6973 0.083
86.7276 -0.028
86.7579 0.123
86.7881 0.065
86.8184 0.164
86.8487 -0.206
86.8790 -0.055
86.9092 -0.112
86.9395 -0.117
86.9698 0.192
87.0001 -0.281
87.0304 -0.077
87.0606 -0.132
87.0909 0.073
87.1212 0.018
87.1515 -0.402
87.1818 -0.039
87.2120 -0.249
87.2423 0.323
87.2726 0.114
87.3029 -0.095
87.3331 0.008
87.3634 -0.096
87.3937 0.008
87.4240 -0.148
87.4543 0.009
87.4845 0.218
87.5148 -0.093
87.5451 -0.248
87.5754 0.118
87.6057 -0.037
87.6359 0.225
87.6662 0.280
87.6965 -0.030
87.7268 -0.236
87.7571 0.080
87.7873 -0.073
87.8176 -0.070
87.8479 -0.170
87.8782 -0.271
87.9084 0.147
87.9387 0.252
87.9690 0.410
87.9993 -0.109
88.0296 0.310
88.0598 -0.157
88.0901 0.419
88.1204 0.213
88.1507 0.164
88.1810 -0.041
88.2112 -0.194
88.2415 0.003
88.2718 -0.061
88.3021 0.293
88.3323 0.022
88.3626 0.115
88.3929 -0.051
88.4232 0.147
88.4535 0.085
88.4837 -0.029
88.5140 -0.090
88.5443 -0.047
88.5746 -0.056
88.6049 -0.013
88.6351 -0.177
88.6654 -0.133
88.6957 0.484
88.7260 0.111
88.7562 0.052
88.7865 -0.111
88.8168 -0.118
88.8471 0.083
88.8774 -0.132
88.9076 -0.190
88.9379 0.169
88.9682 0.215
88.9985 0.314
89.0288 0.517
89.0590 0.408
89.0893 0.195
89.1196 0.086
89.1499 -0.231
89.1801 0.495
89.2104 0.231
89.2407 0.175
89.2710 0.067
89.3013 0.377
89.3315 0.270
89.3618 0.893
89.3921 0.838
89.4224 0.211
89.4527 0.105
89.4829 0.989
89.5132 0.154
89.5435 0.258
89.5738 0.725
89.6040 0.100
89.6343 0.568
89.6646 0.360
89.6949 0.464
89.7252 0.308
89.7554 0.153
89.7857 0.258
89.8160 0.415
89.8463 0.000
89.8766 -0.102
89.9068 0.212
89.9371 -0.203
89.9674 0.216
89.9977 0.011
90.0279 0.274
90.0582 -0.035
90.0885 -0.084
90.1188 -0.185
90.1491 -0.233
90.1793 0.028
90.2096 0.446
90.2399 -0.178
90.2702 -0.021
90.3005 -0.019
90.3307 0.087
90.3610 -0.172
90.3913 -0.274
90.4216 0.250
90.4518 -0.060
90.4821 -0.161
90.5124 -0.210
90.5427 -0.154
90.5730 0.006
90.6032 -0.146
90.6335 0.066
90.6638 0.331
90.6941 -0.029
90.7244 -0.024
90.7546 0.242
90.7849 -0.326
90.8152 -0.164
90.8455 0.311
90.8758 -0.412
90.9060 -0.301
90.9363 0.377
90.9666 -0.300
90.9969 0.066
91.0271 0.171
91.0574 -0.087
91.0877 0.279
91.1180 -0.031
91.1483 0.023
91.1785 -0.391
91.2088 -0.024
91.2391 -0.073
91.2694 -0.069
91.2997 -0.326
91.3299 0.033
91.3602 0.028
91.3905 0.180
91.4208 -0.085
91.4510 0.276
91.4813 -0.092
91.5116 0.008
91.5419 0.057
91.5722 0.158
91.6024 -0.001
91.6327 -0.003
91.6630 0.150
91.6933 0.044
91.7236 -0.114
91.7538 0.145
91.7841 -0.013
91.8144 0.247
91.8447 -0.119
91.8749 0.089
91.9052 -0.172
91.9355 0.141
91.9658 -0.224
91.9961 -0.224
92.0263 -0.224
92.0566 -0.224
92.0869 -0.123
92.1172 -0.075
92.1475 -0.026
92.1777 0.075
92.2080 -0.136
92.2383 0.278
92.2686 0.067
92.2988 0.169
92.3291 -0.145
92.3594 -0.355
92.3897 0.111
92.4200 -0.099
92.4502 0.472
92.4805 -0.155
92.5108 0.156
92.5411 0.572
92.5714 -0.054
92.6016 0.257
92.6319 0.153
92.6622 0.048
92.6925 0.257
92.7227 0.309
92.7530 -0.472
92.7833 -0.055
92.8136 0.103
92.8439 0.000
92.8741 -0.103
92.9044 -0.101
92.9347 -0.151
92.9650 0.163
92.9953 -0.147
93.0255 0.273
93.0558 0.380
93.0861 0.070
93.1164 -0.343
93.1466 0.338
93.1769 -0.127
93.2072 -0.175
93.2375 -0.014
93.2678 0.407
93.2980 -0.005
93.3283 0.052
93.3586 0.006
93.3889 -0.301
93.4192 -0.041
93.4494 -0.144
93.4797 0.429
93.5100 0.066
93.5403 -0.142
93.5706 -0.036
93.6008 -0.191
93.6311 0.280
93.6614 0.230
93.6917 -0.132
93.7219 -0.078
93.7522 0.029
93.7825 -0.124
93.8128 0.348
93.8431 -0.221
93.8733 0.043
93.9036 -0.057
93.9339 0.052
93.9642 0.056
93.9945 0.165
94.0247 -0.090
94.0550 -0.033
94.0853 0.077
94.1156 0.083
94.1458 0.193
94.1761 0.407
94.2064 -0.055
94.2367 -0.204
94.2670 -0.316
94.2972 0.405
94.3275 -0.018
94.3578 0.183
94.3881 0.437
94.4184 -0.091
94.4486 -0.305
94.4789 0.157
94.5092 0.672
94.5395 0.354
94.5697 0.037
94.6000 0.188
94.6303 0.079
94.6606 0.439
94.6909 0.591
94.7211 0.014
94.7514 0.219
94.7817 0.267
94.8120 0.316
94.8423 0.052
94.8725 0.258
94.9028 0.359
94.9331 0.461
94.9634 0.251
94.9936 0.770
95.0239 -0.013
95.0542 0.402
95.0845 0.557
95.1148 1.129
95.1450 0.087
95.1753 0.712
95.2056 0.295
95.2359 0.816
95.2662 0.504
95.2964 1.233
95.3267 0.349
95.3570 0.298
95.3873 0.039
95.4175 0.353
95.4478 0.563
95.4781 0.253
95.5084 0.515
95.5387 0.570
95.5689 0.156
95.5992 -0.049
95.6295 0.215
95.6598 0.270
95.6901 -0.091
95.7203 -0.087
95.7506 0.022
95.7809 0.130
95.8112 0.291
95.8414 0.453
95.8717 0.250
95.9020 0.151
95.9323 0.365
95.9626 -0.046
95.9928 0.481
96.0231 0.227
96.0534 0.390
96.0837 -0.019
96.1140 -0.273
96.1442 -0.017
96.1745 -0.387
96.2048 0.286
96.2351 0.230
96.2653 0.121
96.2956 0.170
96.3259 0.010
96.3562 0.058
96.3865 -0.153
96.4167 -0.156
96.4470 0.050
96.4773 0.048
96.5076 0.098
96.5379 -0.321
96.5681 -0.010
96.5984 0.926
96.6287 0.456
96.6590 -0.378
96.6893 0.090
96.7195 -0.431
96.7498 -0.015
96.7801 -0.067
96.8104 -0.171
96.8406 -0.274
96.8709 0.143
96.9012 0.197
96.9315 0.042
96.9618 -0.112
96.9920 -0.214
97.0223 -0.427
97.0526 0.246
97.0829 -0.070
97.1132 -0.022
97.1434 0.183
97.1737 -0.237
97.2040 0.021
97.2343 -0.138
97.2645 -0.037
97.2948 0.117
97.3251 -0.353
97.3554 -0.152
97.3857 0.101
97.4159 -0.011
97.4462 0.191
97.4765 -0.076
97.5068 0.230
97.5371 0.224
97.5673 0.010
97.5976 -0.100
97.6279 0.155
97.6582 -0.059
97.6884 0.197
97.7187 -0.016
97.7490 0.032
97.7793 -0.233
97.8096 -0.186
97.8398 -0.139
97.8701 0.012
97.9004 0.059
97.9307 -0.153
97.9610 -0.210
97.9912 -0.161
98.0215 -0.061
98.0518 -0.064
98.0821 0.401
98.1123 0.138
98.1426 -0.125
98.1729 -0.076
98.2032 0.599
98.2335 0.285
98.2637 0.231
98.2940 0.178
98.3243 -0.032
98.3546 0.123
98.3849 0.279
98.4151 0.070
98.4454 0.070
98.4757 0.018
98.5060 0.435
98.5362 0.123
98.5665 0.175
98.5968 0.072
98.6271 0.438
98.6574 0.283
98.6876 -0.080
98.7179 -0.182
98.7482 -0.180
98.7785 0.291
98.8088 0.086
98.8390 -0.224
98.8693 0.248
98.8996 0.200
98.9299 -0.161
98.9601 -0.105
98.9904 -0.205
99.0207 -0.461
99.0510 0.585
99.0813 -0.191
99.1115 -0.030
99.1418 -0.233
99.1721 -0.124
99.2024 0.089
99.2327 -0.271
99.2629 0.047
99.2932 0.313
99.3235 -0.307
99.3538 -0.197
99.3841 0.226
99.4143 -0.236
99.4446 0.031
99.4749 0.298
99.5052 0.045
99.5354 0.417
99.5657 -0.044
99.5960 -0.036
99.6263 0.128
99.6566 -0.176
99.6868 -0.063
99.7171 -0.054
99.7474 -0.201
99.7777 0.016
99.8080 -0.183
99.8382 0.036
99.8685 -0.058
99.8988 -0.204
99.9291 0.004
99.9593 0.160
99.9896 0.003
100.0199 -0.100
100.0502 0.056
100.0805 0.265
100.1107 0.058
100.1410 -0.045
100.1713 0.061
100.2016 -0.041
100.2319 0.169
100.2621 0.015
100.2924 0.278
100.3227 0.229
100.3530 0.179
100.3832 0.235
100.4135 0.603
100.4438 0.138
100.4741 0.038
100.5044 0.094
100.5346 0.255
100.5649 -0.001
100.5952 0.108
100.6255 -0.147
100.6558 -0.194
100.6860 0.109
100.7163 -0.161
100.7466 0.455
100.7769 -0.075
100.8071 -0.032
100.8374 -0.301
100.8677 0.368
100.8980 -0.213
100.9283 -0.012
100.9585 -0.020
100.9888 0.234
101.0191 0.122
101.0494 -0.093
101.0797 0.005
101.1099 -0.158
101.1402 -0.007
101.1705 0.091
101.2008 -0.123
101.2310 0.028
101.2613 0.179
101.2916 0.174
101.3219 0.118
101.3522 0.165
101.3824 -0.255
101.4127 -0.051
101.4430 -0.159
101.4733 -0.162
101.5036 -0.009
101.5338 0.457
101.5641 -0.014
101.5944 -0.069
101.6247 -0.071
101.6549 -0.125
101.6852 0.446
101.7155 0.132
101.7458 0.027
101.7761 0.391
101.8063 -0.079
101.8366 -0.287
101.8669 0.077
101.8972 0.285
101.9275 -0.496
101.9577 0.130
101.9880 0.235
102.0183 -0.233
102.0486 -0.023
102.0788 0.187
102.1091 0.084
102.1394 -0.018
102.1697 -0.224
102.2000 -0.179
102.2302 -0.082
102.2605 -0.140
102.2908 -0.303
102.3211 0.104
102.3514 -0.062
102.3816 -0.124
102.4119 -0.133
102.4422 0.222
102.4725 0.005
102.5028 0.152
102.5330 0.040
102.5633 -0.125
102.5936 0.180
102.6239 0.120
102.6541 -0.252
102.6844 0.262
102.7147 -0.006
102.7450 0.352
102.7753 0.085
102.8055 0.079
102.8358 -0.187
102.8661 0.068
102.8964 0.062
102.9267 0.474
102.9569 0.208
102.9872 0.308
103.0175 0.043
103.0478 0.247
103.0780 -0.226
103.1083 -0.230
103.1386 -0.181
103.1689 -0.184
103.1992 0.229
103.2294 0.122
103.2597 0.120
103.2900 0.065
103.3203 -0.197
103.3506 0.166
103.3808 -0.409
103.4111 0.006
103.4414 0.005
103.4717 0.317
103.5019 0.056
103.5322 -0.048
103.5625 -0.413
103.5928 0.001
103.6231 -0.053
103.6533 0.361
103.6836 -0.109
103.7139 -0.058
103.7442 -0.216
103.7745 0.252
103.8047 -0.062
103.8350 0.719
103.8653 0.563
103.8956 0.302
103.9258 0.302
103.9561 0.251
103.9864 0.876
104.0167 0.148
104.0470 -0.215
104.0772 0.515
104.1075 0.309
104.1378 0.415
104.1681 0.417
104.1984 0.315
104.2286 0.370
104.2589 0.060
104.2892 -0.093
104.3195 0.379
104.3497 0.019
104.3800 0.387
104.4103 -0.234
104.4406 0.500
104.4709 -0.121
104.5011 -0.168
104.5314 0.306
104.5617 -0.210
104.5920 -0.048
104.6223 -0.250
104.6525 -0.091
104.6828 0.016
104.7131 0.332
104.7434 -0.185
104.7736 -0.181
104.8039 -0.177
104.8342 0.244
104.8645 -0.272
104.8948 -0.111
104.9250 -0.158
104.9553 0.004
104.9856 0.061
105.0159 -0.297
105.0462 0.073
105.0764 0.132
105.1067 -0.226
105.1370 -0.219
105.1673 -0.056
105.1975 -0.153
105.2278 0.167
105.2581 -0.346
105.2884 -0.181
105.3187 0.192
105.3489 0.044
105.3792 0.001
105.4095 -0.407
105.4398 -0.033
105.4701 0.497
105.5003 -0.170
105.5306 0.048
105.5609 -0.046
105.5912 -0.192
105.6215 0.027
105.6517 -0.378
105.6820 -0.070
105.7123 -0.177
105.7426 -0.076
105.7728 0.129
105.8031 0.335
105.8334 -0.136
105.8637 -0.139
105.8940 0.172
105.9242 0.170
105.9545 -0.040
105.9848 -0.041
106.0151 -0.042
106.0454 0.114
106.0756 0.113
106.1059 -0.304
106.1362 -0.095
106.1665 -0.355
106.1967 0.322
106.2270 -0.094
106.2573 -0.301
106.2876 0.062
106.3179 0.062
106.3481 -0.147
106.3784 -0.095
106.4087 -0.147
106.4390 0.113
106.4693 0.218
106.4995 -0.302
106.5298 -0.041
106.5601 0.065
106.5904 -0.299
106.6206 0.068
106.6509 0.122
106.6812 0.072
106.7115 0.335
106.7418 -0.079
106.7720 -0.233
106.8023 0.083
106.8326 0.816
106.8629 0.663
106.8932 -0.218
106.9234 -0.214
106.9537 -0.062
106.9840 0.455
107.0143 0.035
107.0445 -0.229
107.0748 0.081
107.1051 -0.078
107.1354 0.179
107.1657 0.333
107.1959 0.019
107.2262 0.486
107.2565 0.068
107.2868 -0.142
107.3171 -0.195
107.3473 0.012
107.3776 0.220
107.4079 0.064
107.4382 -0.509
107.4684 -0.093
107.4987 0.011
107.5290 0.011
107.5593 0.063
107.5896 0.064
107.6198 0.221
107.6501 0.326
107.6804 0.119
107.7107 0.277
107.7410 -0.242
107.7712 -0.136
107.8015 0.023
107.8318 -0.131
107.8621 0.080
107.8923 -0.125
107.9226 0.451
107.9529 -0.222
107.9832 0.042
108.0135 -0.214
108.0437 -0.114
108.0740 0.351
108.1043 0.088
108.1346 0.032
108.1649 0.134
108.1951 0.548
108.2254 0.077
108.2557 -0.186
108.2860 0.177
108.3163 0.280
108.3465 0.382
108.3768 0.069
108.4071 0.068
108.4374 -0.193
108.4676 -0.141
108.4979 -0.194
108.5282 -0.141
108.5585 0.276
108.5888 -0.140
108.6190 0.017
108.6493 0.122
108.6796 -0.033
108.7099 0.385
108.7402 -0.446
108.7704 0.389
108.8007 -0.129
108.8310 0.082
108.8613 -0.020
108.8915 -0.329
108.9218 0.039
108.9521 0.094
108.9824 -0.214
109.0127 -0.214
109.0429 -0.222
109.0732 0.447
109.1035 0.023
109.1338 0.016
109.1641 0.321
109.1943 0.106
109.2246 -0.056
109.2549 0.354
109.2852 0.192
109.3154 0.238
109.3457 0.024
109.3760 -0.085
109.4063 0.170
109.4366 0.582
109.4668 -0.204
109.4971 0.157
109.5274 -0.264
109.5577 0.253
109.5880 -0.167
109.6182 0.090
109.6485 0.035
109.6788 -0.437
109.7091 0.082
109.7393 -0.129
109.7696 0.077
109.7999 0.127
109.8302 0.178
109.8605 -0.032
109.8907 0.071
109.9210 0.331
109.9513 0.018
109.9816 -0.243
110.0119 0.486
110.0421 -0.035
110.0724 0.174
110.1027 0.018
110.1330 0.123
110.1632 0.385
110.1935 0.178
110.2238 0.596
110.2541 0.234
110.2844 -0.025
110.3146 0.134
110.3449 0.032
110.3752 -0.069
110.4055 0.298
110.4358 0.041
110.4660 -0.215
110.4963 0.049
110.5266 0.053
110.5569 0.422
110.5871 -0.199
110.6174 0.587
110.6477 0.071
110.6780 0.129
110.7083 0.134
110.7385 0.244
110.7688 0.094
110.7991 0.413
110.8294 -0.362
110.8597 0.113
110.8899 0.016
110.9202 0.075
110.9505 0.343
110.9808 0.091
111.0110 0.203
111.0413 0.211
111.0716 -0.145
111.1019 0.332
111.1322 0.081
111.1624 0.090
111.1927 0.204
111.2230 0.005
111.2533 -0.246
111.2836 -0.043
111.3138 0.107
111.3441 -0.211
111.3744 -0.008
111.4047 -0.014
111.4350 -0.175
111.4652 0.237
111.4955 -0.132
111.5258 0.176
111.5561 0.172
111.5863 -0.352
111.6166 0.373
111.6469 -0.047
111.6772 0.211
111.7075 0.156
111.7377 -0.211
111.7680 0.099
111.7983 -0.007
111.8286 -0.165
111.8589 -0.011
111.8891 0.196
111.9194 0.091
111.9497 0.299
111.9800 -0.014
112.0102 -0.119
112.0405 0.089
112.0708 -0.171
112.1011 0.402
112.1314 0.091
112.1616 0.248
112.1919 0.041
112.2222 -0.271
112.2525 0.564
112.2828 0.098
112.3130 0.048
112.3433 0.675
112.3736 -0.104
112.4039 -0.049
112.4341 0.215
112.4644 -0.042
112.4947 -0.039
112.5250 0.017
112.5553 0.177
112.5855 0.286
112.6158 -0.126
112.6461 -0.173
112.6764 -0.325
112.7067 0.142
112.7369 -0.016
112.7672 0.190
112.7975 -0.072
112.8278 -0.021
112.8580 0.082
112.8883 -0.023
112.9186 0.081
112.9489 0.132
112.9792 -0.388
113.0094 -0.024
113.0397 0.185
113.0700 0.082
113.1003 0.291
113.1306 0.188
113.1608 -0.332
113.1911 0.295
113.2214 0.088
113.2517 0.351
113.2819 -0.272
113.3122 0.200
113.3425 -0.006
113.3728 -0.107
113.4031 0.261
113.4333 0.265
113.4636 -0.044
113.4939 0.273
113.5242 -0.348
113.5545 0.125
113.5847 0.130
113.6150 0.031
113.6453 -0.224
113.6756 0.146
113.7058 0.308
113.7361 0.158
113.7664 -0.148
113.7967 -0.194
113.8270 0.109
113.8572 0.308
113.8875 0.508
113.9178 0.238
113.9481 0.074
113.9784 -0.039
114.0086 0.005
114.0389 0.310
114.0692 0.250
114.0995 0.295
114.1298 0.236
114.1600 0.229
114.1903 0.431
114.2206 -0.148
114.2509 0.575
114.2811 0.257
114.3114 -0.062
114.3417 0.298
114.3720 0.345
114.4023 -0.025
114.4325 0.231
114.4628 0.331
114.4931 0.223
114.5234 0.115
114.5537 0.319
114.5839 -0.257
114.6142 -0.260
114.6445 0.518
114.6748 0.411
114.7050 -0.112
114.7353 0.355
114.7656 -0.168
114.7959 -0.118
114.8262 0.141
114.8564 -0.224
114.8867 0.348
114.9170 -0.122
114.9473 -0.018
114.9776 -0.122
115.0078 -0.070
115.0381 -0.018
115.0684 0.191
115.0987 0.192
115.1289 -0.224
115.1592 -0.224
115.1895 0.027
115.2198 -0.191
115.2501 -0.096
115.2803 -0.261
115.3106 0.251
115.3409 -0.174
115.3712 0.078
115.4015 0.226
115.4317 0.062
115.4620 -0.206
115.4923 0.203
115.5226 -0.220
115.5528 -0.331
115.5831 0.182
115.6134 0.175
115.6437 0.116
115.6740 0.161
115.7042 0.311
115.7345 0.201
115.7648 0.403
115.7951 0.241
115.8254 0.235
115.8556 0.126
115.8859 0.433
115.9162 0.377
115.9465 0.164
115.9767 0.107
116.0070 0.364
116.0373 0.412
116.0676 0.513
116.0979 -0.064
116.1281 0.090
116.1584 0.191
116.1887 0.345
116.2190 0.134
116.2493 0.392
116.2795 0.286
116.3098 0.337
116.3401 -0.133
116.3704 0.491
116.4006 0.906
116.4309 0.489
116.4612 0.541
116.4915 0.072
116.5218 0.333
116.5520 -0.084
116.5823 0.281
116.6126 0.074
116.6429 0.596
116.6732 0.337
116.7034 0.026
116.7337 0.601
116.7640 0.447
116.7943 -0.020
116.8245 0.347
116.8548 -0.067
116.8851 0.145
116.9154 0.148
116.9457 0.204
116.9759 0.416
117.0062 0.055
117.0365 -0.045
117.0668 -0.144
117.0971 0.173
117.1273 -0.030
117.1576 0.235
117.1879 -0.124
117.2182 0.142
117.2485 0.513
117.2787 -0.002
117.3090 -0.099
117.3393 -0.197
117.3696 -0.242
117.3998 0.123
117.4301 0.071
117.4604 -0.033
117.4907 0.228
117.5210 0.124
117.5512 -0.187
117.5815 -0.134
117.6118 -0.028
117.6421 0.026
117.6724 -0.285
117.7026 0.291
117.7329 -0.228
117.7632 -0.173
117.7935 0.299
117.8237 -0.010
117.8540 0.149
117.8843 0.049
117.9146 0.157
117.9449 0.161
117.9751 0.114
118.0054 -0.142
118.0357 0.280
118.0660 0.024
118.0963 -0.022
118.1265 -0.121
118.1568 0.302
118.1871 0.204
118.2174 -0.050
118.2476 0.009
118.2779 -0.037
118.3082 -0.186
118.3385 0.395
118.3688 -0.275
118.3990 -0.111
118.4293 0.054
118.4596 -0.302
118.4899 0.019
118.5202 0.340
118.5504 -0.276
118.5807 -0.214
118.6110 -0.006
118.6413 0.097
118.6715 -0.059
118.7018 0.358
118.7321 0.150
118.7624 0.047
118.7927 0.152
118.8229 -0.055
118.8532 0.155
118.8835 0.209
118.9138 -0.102
118.9441 -0.256
118.9743 0.319
119.0046 0.166
119.0349 0.221
119.0652 0.068
119.0954 0.071
119.1257 -0.290
119.1560 0.548
119.1863 0.343
119.2166 -0.121
119.2468 -0.377
119.2771 0.086
119.3074 -0.075
119.3377 0.128
119.3680 0.279
119.3982 0.223
119.4285 0.218
119.4588 0.266
119.4891 -0.206
119.5193 0.102
119.5496 -0.161
119.5799 -0.008
119.6102 -0.063
119.6405 -0.326
119.6707 0.034
119.7010 0.239
119.7313 0.496
119.7616 -0.184
119.7919 -0.031
119.8221 0.226
119.8524 0.016
119.8827 -0.091
119.9130 -0.301
119.9433 0.111
119.9735 0.316
120.0038 0.000
