'Id: "" Comment: "" Operator: "Lab Manager" Anode: "Cu" Scantype: "Locked Coupled" TimePerStep: "19.2" X: "9999" Y: "9999" Z: "9999" 
10.0015 0.000
10.0318 0.832
10.0620 -0.106
10.0923 0.935
10.1226 -0.471
10.1529 0.623
10.1832 0.466
10.2134 0.258
10.2437 -0.470
10.2740 0.468
10.3043 -0.052
10.3346 0.730
10.3648 0.783
10.3951 -0.413
10.4254 0.265
10.4557 -0.774
10.4859 -0.307
10.5162 0.162
10.5465 -0.412
10.5768 -0.100
10.6071 -0.100
10.6373 0.213
10.6676 0.109
10.6979 0.682
10.7282 0.579
10.7585 0.059
10.7887 0.373
10.8190 0.738
10.8493 0.063
10.8796 0.273
10.9098 0.118
10.9401 0.381
10.9704 0.904
11.0007 -0.292
11.0310 0.492
11.0612 -0.338
11.0915 0.342
11.1218 -0.176
11.1521 0.609
11.1824 -0.273
11.2126 0.303
11.2429 -0.162
11.2732 0.103
11.3035 -0.153
11.3337 0.112
11.3640 0.168
11.3943 -0.139
11.4246 0.126
11.4549 0.184
11.4851 0.085
11.5154 0.247
11.5457 -0.164
11.5760 -0.366
11.6063 -0.259
11.6365 -0.203
11.6668 0.010
11.6971 0.118
11.7274 0.019
11.7577 0.023
11.7879 -0.024
11.8182 -0.123
11.8485 0.038
11.8788 0.356
11.9090 -0.472
11.9393 -0.101
11.9696 -0.095
11.9999 0.380
12.0302 0.698
12.0604 0.132
12.0907 0.191
12.1210 -0.271
12.1513 0.413
12.1816 0.160
12.2118 -0.041
12.2421 0.123
12.2724 0.287
12.3027 0.087
12.3329 0.199
12.3632 0.208
12.3935 0.112
12.4238 0.017
12.4541 -0.287
12.4843 0.452
12.5146 0.149
12.5449 0.315
12.5752 0.168
12.6055 0.803
12.6357 -0.020
12.6660 -0.010
12.6963 0.417
12.7266 0.220
12.7568 -0.551
12.7871 1.075
12.8174 -0.059
12.8477 -0.413
12.8780 0.172
12.9082 -0.702
12.9385 0.196
12.9688 -0.156
12.9991 0.221
13.0294 -0.131
13.0596 0.663
13.0899 0.415
13.1202 0.272
13.1505 -0.235
13.1807 0.091
13.2110 -0.052
13.2413 -0.090
13.2716 -0.180
13.3019 -0.113
13.3321 0.162
13.3624 0.958
13.3927 -0.330
13.4230 -0.314
13.4533 -0.314
13.4835 0.253
13.5138 0.197
13.5441 0.244
13.5744 0.240
13.6046 0.027
13.6349 0.179
13.6652 -0.554
13.6955 0.328
13.7258 0.533
13.7560 0.373
13.7863 0.839
13.8166 0.576
13.8469 -0.156
13.8772 0.206
13.9074 -0.213
13.9377 0.358
13.9680 0.096
13.9983 0.250
14.0285 -0.168
14.0588 -0.117
14.0891 -0.171
14.1194 0.557
14.1497 -0.329
14.1799 -0.017
14.2102 0.087
14.2405 -0.070
14.2708 0.139
14.3011 -0.330
14.3313 0.296
14.3616 0.140
14.3919 0.349
14.4222 -0.327
14.4524 0.038
14.4827 -0.012
14.5130 0.197
14.5433 0.355
14.5736 -0.111
14.6038 -0.005
14.6341 0.518
14.6644 -0.157
14.6947 -0.050
14.7250 -0.047
14.7552 0.008
14.7855 0.428
14.8158 0.015
14.8461 -0.346
14.8764 0.230
14.9066 -0.078
14.9369 0.030
14.9672 -0.018
14.9975 0.508
15.0277 -0.217
15.0580 0.309
15.0883 -0.623
15.1186 0.111
15.1489 -0.300
15.1791 0.643
15.2094 0.180
15.2397 0.082
15.2700 0.140
15.3003 0.095
15.3305 -0.263
15.3608 -0.256
15.3911 0.011
15.4214 0.122
15.4516 0.026
15.4819 -0.488
15.5122 0.666
15.5425 0.049
15.5728 0.213
15.6030 -0.039
15.6333 -0.291
15.6636 0.395
15.6939 -0.429
15.7242 -0.056
15.7544 -0.150
15.7847 -0.297
15.8150 -0.088
15.8453 0.381
15.8755 -0.087
15.9058 0.122
15.9361 0.540
15.9664 -0.031
15.9967 -0.238
16.0269 -0.288
16.0572 0.599
16.0875 0.862
16.1178 -0.021
16.1481 0.190
16.1783 -0.172
16.2086 -0.065
16.2389 0.407
16.2692 0.202
16.2994 -0.003
16.3297 0.469
16.3600 0.213
16.3903 -0.304
16.4206 0.065
16.4508 -0.295
16.4811 -0.090
16.5114 -0.092
16.5417 0.010
16.5720 -0.149
16.6022 0.058
16.6325 -0.308
16.6628 0.107
16.6931 0.001
16.7233 0.260
16.7536 0.207
16.7839 -0.106
16.8142 -0.107
16.8445 -0.003
16.8747 0.205
16.9050 0.101
16.9353 0.518
16.9656 0.310
16.9959 -0.262
17.0261 -0.105
17.0564 0.677
17.0867 -0.051
17.1170 0.054
17.1472 -0.465
17.1775 0.318
17.2078 -0.462
17.2381 -0.095
17.2684 0.324
17.2986 0.066
17.3289 0.173
17.3592 0.436
17.3895 0.283
17.4198 0.286
17.4500 0.081
17.4803 0.501
17.5106 0.661
17.5409 0.040
17.5712 -0.008
17.6014 0.101
17.6317 0.105
17.6620 0.162
17.6923 0.271
17.7225 -0.192
17.7528 -0.031
17.7831 0.079
17.8134 -0.020
17.8437 -0.066
17.8739 0.149
17.9042 0.155
17.9345 -0.255
17.9648 0.324
17.9951 -0.034
18.0253 0.234
18.0556 -0.019
18.0859 -0.064
18.1162 0.412
18.1464 0.160
18.1767 0.636
18.2070 0.280
18.2373 -0.076
18.2676 0.245
18.2978 -0.111
18.3281 0.366
18.3584 -0.406
18.3887 -0.344
18.4190 0.382
18.4492 0.484
18.4795 0.117
18.5098 0.063
18.5401 0.322
18.5703 -0.201
18.6006 0.267
18.6309 -0.047
18.6612 0.108
18.6915 -0.362
18.7217 0.002
18.7520 0.002
18.7823 0.366
18.8126 0.314
18.8429 0.887
18.8731 0.106
18.9034 0.054
18.9337 0.471
18.9640 -0.101
18.9942 0.161
19.0245 0.214
19.0548 0.320
19.0851 0.790
19.1154 0.063
19.1456 0.221
19.1759 -0.194
19.2062 0.121
19.2365 -0.241
19.2668 0.231
19.2970 0.234
19.3273 0.080
19.3576 0.032
19.3879 0.348
19.4181 0.091
19.4484 -0.114
19.4787 -0.266
19.5090 -0.159
19.5393 0.051
19.5695 0.158
19.5998 0.109
19.6301 -0.357
19.6604 0.375
19.6907 -0.195
19.7209 0.121
19.7512 0.073
19.7815 0.598
19.8118 0.341
19.8420 -0.071
19.8723 -0.171
19.9026 0.198
19.9329 0.099
19.9632 -0.208
19.9934 0.318
20.0237 -0.146
20.0540 0.172
20.0843 -0.447
20.1146 -0.187
20.1448 0.074
20.1751 0.334
20.2054 0.387
20.2357 0.023
20.2659 -0.133
20.2962 0.076
20.3265 -0.287
20.3568 0.391
20.3871 0.445
20.4173 -0.283
20.4476 0.501
20.4779 -0.070
20.5082 0.609
20.5385 0.455
20.5687 0.302
20.5990 0.044
20.6293 -0.370
20.6596 0.050
20.6899 0.314
20.7201 0.422
20.7504 0.374
20.7807 -0.508
20.8110 0.278
20.8412 0.178
20.8715 0.339
20.9018 -0.125
20.9321 -0.120
20.9624 0.405
20.9926 0.098
21.0229 -0.105
21.0532 -0.359
21.0835 0.584
21.1138 -0.035
21.1440 -0.289
21.1743 0.021
21.2046 0.228
21.2349 0.434
21.2651 -0.349
21.2954 0.171
21.3257 -0.039
21.3560 0.221
21.3863 -0.197
21.4165 0.324
21.4468 0.167
21.4771 0.219
21.5074 0.219
21.5377 0.167
21.5679 0.063
21.5982 0.011
21.6285 -0.248
21.6588 0.221
21.6890 0.014
21.7193 -0.245
21.7496 -0.090
21.7799 0.326
21.8102 -0.092
21.8404 0.637
21.8707 -0.197
21.9010 0.584
21.9313 -0.041
21.9616 -0.197
21.9918 0.012
22.0221 0.325
22.0524 0.170
22.0827 -0.038
22.1129 -0.245
22.1432 0.015
22.1735 0.066
22.2038 0.066
22.2341 -0.299
22.2643 0.274
22.2946 0.066
22.3249 0.066
22.3552 -0.038
22.3855 0.588
22.4157 -0.244
22.4460 -0.139
22.4763 0.331
22.5066 0.072
22.5368 0.074
22.5671 -0.289
22.5974 -0.085
22.6277 -0.037
22.6580 -0.354
22.6882 0.268
22.7185 -0.101
22.7488 -0.052
22.7791 0.414
22.8094 -0.110
22.8396 0.043
22.8699 0.301
22.9002 -0.014
22.9305 0.244
22.9607 -0.383
22.9910 0.188
23.0213 0.030
23.0516 -0.024
23.0819 -0.129
23.1121 -0.026
23.1424 -0.235
23.1727 0.337
23.2030 -0.028
23.2333 -0.133
23.2635 0.023
23.2938 -0.237
23.3241 0.180
23.3544 0.024
23.3846 0.233
23.4149 -0.235
23.4452 -0.026
23.4755 0.079
23.5058 0.133
23.5360 -0.126
23.5663 0.084
23.5966 0.503
23.6269 -0.068
23.6572 -0.222
23.6874 0.353
23.7177 -0.217
23.7480 0.255
23.7783 -0.159
23.8086 -0.052
23.8388 -0.204
23.8691 0.112
23.8994 0.011
23.9297 -0.245
23.9599 -0.084
23.9902 -0.080
24.0205 0.133
24.0508 -0.070
24.0811 -0.065
24.1113 0.201
24.1416 -0.627
24.1719 -0.213
24.2022 0.149
24.2325 -0.166
24.2627 0.040
24.2930 -0.066
24.3233 0.089
24.3536 0.244
24.3838 -0.279
24.4141 -0.071
24.4444 0.292
24.4747 -0.333
24.5050 -0.126
24.5352 -0.126
24.5655 0.134
24.5958 -0.335
24.6261 0.030
24.6564 -0.230
24.6866 -0.021
24.7169 -0.229
24.7472 0.033
24.7775 -0.018
24.8077 0.244
24.8380 0.141
24.8683 -0.014
24.8986 0.405
24.9289 -0.062
24.9591 -0.528
24.9894 0.151
25.0197 -0.523
25.0500 -0.156
25.0803 -0.049
25.1105 0.059
25.1408 -0.094
25.1711 0.430
25.2014 -0.087
25.2316 0.386
25.2619 0.338
25.2922 0.186
25.3225 0.294
25.3528 -0.378
25.3830 0.356
25.4133 0.309
25.4436 -0.311
25.4739 -0.097
25.5042 0.273
25.5344 -0.034
25.5647 -0.028
25.5950 -0.230
25.6253 -0.023
25.6555 0.185
25.6858 -0.024
25.7161 0.184
25.7464 0.079
25.7767 0.392
25.8069 0.079
25.8372 0.444
25.8675 0.497
25.8978 0.393
25.9281 0.707
25.9583 0.239
25.9886 0.188
26.0189 0.398
26.0492 -0.226
26.0794 -0.067
26.1097 0.091
26.1400 0.093
26.1703 0.304
26.2006 0.358
26.2308 0.257
26.2611 -0.261
26.2914 -0.263
26.3217 0.569
26.3520 0.255
26.3822 0.462
26.4125 0.096
26.4428 0.043
26.4731 0.095
26.5034 0.146
26.5336 0.094
26.5639 -0.219
26.5942 0.198
26.6245 0.042
26.6547 0.250
26.6850 -0.166
26.7153 0.200
26.7456 0.357
26.7759 -0.059
26.8061 0.203
26.8364 0.153
26.8667 0.363
26.8970 0.417
26.9273 0.158
26.9575 0.109
26.9878 0.632
27.0181 -0.094
27.0484 0.273
27.0786 0.120
27.1089 0.436
27.1392 0.491
27.1695 -0.182
27.1998 0.446
27.2300 -0.175
27.2603 -0.222
27.2906 0.034
27.3209 -0.231
27.3512 0.286
27.3814 0.073
27.4117 0.486
27.4420 0.275
27.4723 -0.041
27.5025 -0.201
27.5328 -0.360
27.5631 0.210
27.5934 -0.469
27.6237 -0.213
27.6539 0.720
27.6842 0.455
27.7145 0.295
27.7448 -0.178
27.7751 -0.077
27.8053 -0.081
27.8356 -0.188
27.8659 0.538
27.8962 0.118
27.9264 0.063
27.9567 0.634
27.9870 -0.150
28.0173 0.629
28.0476 -0.154
28.0778 0.313
28.1081 -0.314
28.1384 -0.320
28.1687 0.351
28.1990 0.554
28.2292 -0.285
28.2595 0.231
28.2898 0.226
28.3201 0.065
28.3503 0.529
28.3806 -0.101
28.4109 -0.053
28.4412 -0.057
28.4715 0.512
28.5017 -0.325
28.5320 0.036
28.5623 0.189
28.5926 -0.231
28.6229 0.287
28.6531 -0.133
28.6834 -0.135
28.7137 -0.086
28.7440 0.277
28.7742 -0.350
28.8045 -0.040
28.8348 0.323
28.8651 -0.251
28.8954 0.112
28.9256 -0.097
28.9559 0.267
28.9862 0.370
29.0165 0.161
29.0468 -0.047
29.0770 -0.152
29.1073 0.317
29.1376 -0.151
29.1679 0.630
29.1981 -0.150
29.2284 0.007
29.2587 0.268
29.2890 0.165
29.3193 -0.302
29.3495 0.064
29.3798 0.326
29.4101 -0.245
29.4404 0.018
29.4707 -0.084
29.5009 -0.029
29.5312 -0.183
29.5615 -0.024
29.5918 0.136
29.6221 0.035
29.6523 -0.222
29.6826 0.302
29.7129 0.098
29.7432 -0.419
29.7734 -0.120
29.8037 0.284
29.8340 0.427
29.8643 -0.002
29.8946 0.141
29.9248 -0.288
29.9551 0.481
29.9854 -0.208
30.0157 -0.064
30.0460 0.029
30.0762 -0.087
30.1065 0.006
30.1368 0.568
30.1671 0.036
30.1973 0.182
30.2276 -0.297
30.2579 -0.151
30.2882 -0.266
30.3185 -0.173
30.3487 0.128
30.3790 0.377
30.4093 0.105
30.4396 -0.583
30.4699 -0.021
30.5001 -0.135
30.5304 0.062
30.5607 0.208
30.5910 0.615
30.6212 0.085
30.6515 -0.081
30.6818 0.118
30.7121 -0.100
30.7424 -0.005
30.7726 -0.014
30.8029 0.550
30.8332 0.177
30.8635 1.002
30.8938 0.526
30.9240 0.622
30.9543 0.770
30.9846 1.023
31.0149 0.391
31.0451 1.217
31.0754 0.585
31.1057 0.787
31.1360 1.874
31.1663 1.659
31.1965 2.122
31.2268 2.584
31.2571 2.162
31.2874 3.042
31.3177 4.182
31.3479 4.125
31.3782 4.224
31.4085 6.459
31.4388 6.506
31.4690 9.366
31.4993 10.664
31.5296 12.587
31.5599 12.895
31.5902 15.756
31.6204 13.982
31.6507 12.520
31.6810 12.152
31.7113 10.952
31.7416 8.605
31.7718 6.311
31.8021 6.777
31.8324 3.962
31.8627 3.440
31.8929 3.386
31.9232 2.394
31.9535 3.174
31.9838 1.767
32.0141 1.505
32.0443 1.504
32.0746 1.816
32.1049 1.347
32.1352 1.190
32.1655 0.826
32.1957 0.930
32.2260 0.462
32.2563 -0.007
32.2866 0.931
32.3169 0.151
32.3471 0.048
32.3774 -0.003
32.4077 0.519
32.4380 -0.052
32.4682 0.158
32.4985 0.004
32.5288 0.162
32.5591 0.165
32.5894 0.427
32.6196 0.639
32.6499 -0.348
32.6802 0.332
32.7105 0.335
32.7408 0.287
32.7710 0.291
32.8013 0.086
32.8316 0.246
32.8619 -0.531
32.8921 -0.267
32.9224 0.831
32.9527 0.001
32.9830 -0.515
33.0133 0.426
33.0435 -0.090
33.0738 -0.346
33.1041 0.180
33.1344 -0.075
33.1647 -0.070
33.1949 0.196
33.2252 0.097
33.2555 -0.574
33.2858 0.057
33.3160 0.219
33.3463 -0.347
33.3766 -0.252
33.4069 -0.052
33.4372 -0.061
33.4674 -0.329
33.4977 0.392
33.5280 -0.345
33.5583 0.064
33.5886 0.213
33.6188 0.049
33.6491 -0.114
33.6794 -0.017
33.7097 0.081
33.7399 0.699
33.7702 0.276
33.8005 -0.146
33.8308 -0.257
33.8611 0.519
33.8913 1.295
33.9216 1.185
33.9519 0.815
33.9822 0.967
34.0125 1.326
34.0427 2.416
34.0730 2.776
34.1033 5.636
34.1336 8.028
34.1638 11.670
34.1941 13.229
34.2244 17.705
34.2547 16.451
34.2850 14.157
34.3152 9.883
34.3455 8.214
34.3758 6.232
34.4061 4.250
34.4364 2.842
34.4666 2.528
34.4969 1.484
34.5272 1.170
34.5575 0.856
34.5877 0.855
34.6180 0.281
34.6483 0.228
34.6786 0.436
34.7089 -0.033
34.7391 0.748
34.7694 0.696
34.7997 -0.189
34.8300 -0.033
34.8603 0.072
34.8905 0.437
34.9208 0.074
34.9511 0.543
34.9814 0.232
35.0116 0.130
35.0419 0.496
35.0722 0.654
35.1025 0.031
35.1328 0.606
35.1630 -0.068
35.1933 0.768
35.2236 1.187
35.2539 0.773
35.2842 0.672
35.3144 0.832
35.3447 0.888
35.3750 0.996
35.4053 0.635
35.4356 0.118
35.4658 0.852
35.4961 1.794
35.5264 1.226
35.5567 1.751
35.5869 1.757
35.6172 2.126
35.6475 2.601
35.6778 2.502
35.7081 3.446
35.7383 2.827
35.7686 3.979
35.7989 5.444
35.8292 5.346
35.8595 6.551
35.8897 8.693
35.9200 8.909
35.9503 10.166
35.9806 13.924
36.0108 14.556
36.0411 19.044
36.0714 19.052
36.1017 19.112
36.1320 18.027
36.1622 16.786
36.1925 14.555
36.2228 13.679
36.2531 12.803
36.2834 10.677
36.3136 8.863
36.3439 7.675
36.3742 5.342
36.4045 5.352
36.4347 3.279
36.4650 3.342
36.4953 1.946
36.5256 2.582
36.5559 3.062
36.5861 2.084
36.6164 0.950
36.6467 1.587
36.6770 1.494
36.7073 0.621
36.7375 1.415
36.7678 0.386
36.7981 0.450
36.8284 0.411
36.8586 0.268
36.8889 0.698
36.9192 0.920
36.9495 0.673
36.9798 0.374
37.0100 0.232
37.0403 0.351
37.0706 0.417
37.1009 0.432
37.1312 0.811
37.1614 0.410
37.1917 0.216
37.2220 -0.341
37.2523 -0.237
37.2825 0.441
37.3128 0.285
37.3431 0.286
37.3734 0.183
37.4037 0.184
37.4339 0.030
37.4642 -0.021
37.4945 0.033
37.5248 0.243
37.5551 0.246
37.5853 0.300
37.6156 -0.270
37.6459 -0.163
37.6762 0.204
37.7064 -0.053
37.7367 0.211
37.7670 0.214
37.7973 0.166
37.8276 -0.195
37.8578 -0.087
37.8881 0.022
37.9184 0.183
37.9487 -0.333
37.9790 -0.068
38.0092 0.406
38.0395 0.150
38.0698 -0.105
38.1001 0.109
38.1304 -0.093
38.1606 -0.035
38.1909 0.075
38.2212 -0.283
38.2515 -0.016
38.2817 -0.009
38.3120 -0.054
38.3423 -0.203
38.3726 0.169
38.4029 0.072
38.4331 0.028
38.4634 0.140
38.4937 -0.269
38.5240 0.260
38.5543 -0.148
38.5845 -0.035
38.6148 -0.130
38.6451 0.035
38.6754 -0.008
38.7056 -0.259
38.7359 0.003
38.7662 -0.047
38.7965 0.060
38.8268 0.166
38.8570 0.065
38.8873 -0.349
38.9176 0.019
38.9479 0.074
38.9782 -0.079
39.0084 0.185
39.0387 -0.176
39.0690 0.349
39.0993 -0.220
39.1295 0.201
39.1598 -0.159
39.1901 -0.518
39.2204 0.159
39.2507 0.159
39.2809 -0.361
39.3112 0.004
39.3415 -0.204
39.3718 0.110
39.4021 -0.254
39.4323 0.008
39.4626 0.010
39.4929 -0.353
39.5232 0.222
39.5534 -0.089
39.5837 0.070
39.6140 -0.292
39.6443 0.335
39.6746 -0.026
39.7048 0.185
39.7351 -0.072
39.7654 0.140
39.7957 0.039
39.8260 0.147
39.8562 -0.109
39.8865 -0.105
39.9168 -0.257
39.9471 0.107
39.9773 -0.206
40.0076 0.054
40.0379 -0.154
40.0682 0.107
40.0985 -0.101
40.1287 -0.153
40.1590 0.108
40.1893 -0.203
40.2196 0.006
40.2499 0.320
40.2801 0.009
40.3104 -0.041
40.3407 -0.300
40.3710 0.171
40.4012 -0.191
40.4315 -0.032
40.4618 -0.394
40.4921 0.077
40.5224 0.080
40.5526 -0.229
40.5829 0.087
40.6132 0.143
40.6435 -0.166
40.6738 0.255
40.7040 0.155
40.7343 -0.257
40.7646 0.060
40.7949 -0.196
40.8251 0.069
40.8554 0.074
40.8857 0.080
40.9160 0.190
40.9463 -0.117
40.9765 0.097
41.0068 -0.001
41.0371 0.318
41.0674 0.272
41.0977 -0.034
41.1279 -0.079
41.1582 -0.280
41.1885 0.083
41.2188 0.394
41.2491 0.080
41.2793 -0.337
41.3096 0.235
41.3399 -0.078
41.3702 -0.182
41.4004 0.338
41.4307 0.078
41.4610 0.078
41.4913 -0.026
41.5216 -0.129
41.5518 -0.024
41.5821 -0.075
41.6124 -0.178
41.6427 0.027
41.6730 -0.080
41.7032 0.126
41.7335 -0.085
41.7638 0.798
41.7941 0.171
41.8243 0.273
41.8546 0.272
41.8849 -0.147
41.9152 0.060
41.9455 0.059
41.9757 -0.150
42.0060 -0.255
42.0363 0.159
42.0666 0.001
42.0969 -0.054
42.1271 -0.108
42.1574 0.099
42.1877 -0.111
42.2180 -0.164
42.2482 0.095
42.2785 -0.010
42.3088 -0.063
42.3391 0.092
42.3694 0.508
42.3996 -0.169
42.4299 -0.013
42.4602 -0.117
42.4905 0.196
42.5208 -0.012
42.5510 -0.167
42.5813 -0.010
42.6116 0.043
42.6419 -0.112
42.6721 -0.058
42.7024 0.099
42.7327 -0.003
42.7630 0.103
42.7933 0.053
42.8235 -0.100
42.8538 0.006
42.8841 -0.043
42.9144 -0.040
42.9447 -0.141
42.9749 0.539
43.0052 -0.134
43.0355 -0.078
43.0658 0.030
43.0960 -0.018
43.1263 0.142
43.1566 -0.218
43.1869 -0.005
43.2172 0.052
43.2474 0.266
43.2777 -0.094
43.3080 0.172
43.3383 0.074
43.3686 0.079
43.3988 -0.227
43.4291 -0.076
43.4594 -0.030
43.4897 -0.087
43.5199 -0.092
43.5502 0.060
43.5805 0.263
43.6108 -0.001
43.6411 -0.214
43.6713 0.251
43.7016 0.195
43.7319 0.035
43.7622 0.240
43.7925 0.184
43.8227 0.025
43.8530 0.387
43.8833 0.332
43.9136 0.225
43.9439 -0.246
43.9741 0.117
44.0044 -0.093
44.0347 0.061
44.0650 -0.045
44.0952 -0.098
44.1255 0.161
44.1558 0.108
44.1861 0.159
44.2164 -0.310
44.2466 0.054
44.2769 0.523
44.3072 0.054
44.3375 -0.206
44.3678 0.106
44.3980 -0.101
44.4283 -0.048
44.4586 -0.100
44.4889 -0.307
44.5191 0.104
44.5494 -0.215
44.5797 0.144
44.6100 0.295
44.6403 -0.075
44.6705 0.024
44.7008 0.176
44.7311 0.015
44.7614 0.271
44.7917 -0.359
44.8219 0.106
44.8522 0.154
44.8825 -0.162
44.9128 -0.166
44.9430 -0.169
44.9733 -0.016
45.0036 0.345
45.0339 0.291
45.0642 -0.077
45.0944 0.390
45.1247 -0.029
45.1550 -0.031
45.1853 -0.189
45.2156 0.017
45.2458 -0.193
45.2761 0.171
45.3064 -0.143
45.3367 0.012
45.3669 -0.145
45.3972 -0.197
45.4275 0.063
45.4578 -0.093
45.4881 -0.093
45.5183 -0.197
45.5486 0.010
45.5789 0.112
45.6092 -0.306
45.6395 0.110
45.6697 -0.255
45.7000 0.056
45.7303 -0.100
45.7606 -0.309
45.7908 0.108
45.8211 -0.100
45.8514 -0.048
45.8817 0.109
45.9120 0.162
45.9422 0.215
45.9725 -0.148
46.0028 -0.095
46.0331 -0.197
46.0634 -0.155
46.0936 -0.113
46.1239 0.242
46.1542 -0.027
46.1845 0.432
46.2147 -0.045
46.2450 0.362
46.2753 0.198
46.3056 0.033
46.3359 0.077
46.3661 0.121
46.3964 0.426
46.4267 0.522
46.4570 -0.058
46.4873 0.351
46.5175 -0.021
46.5478 0.285
46.5781 0.278
46.6084 0.897
46.6386 0.526
46.6689 0.416
46.6992 0.254
46.7295 0.300
46.7598 0.034
46.7900 0.445
46.8203 -0.029
46.8506 0.487
46.8809 0.274
46.9112 0.374
46.9414 0.369
46.9717 0.521
47.0020 0.361
47.0323 0.670
47.0626 1.447
47.0928 0.975
47.1231 0.764
47.1534 1.177
47.1837 1.018
47.2139 1.015
47.2442 1.638
47.2745 1.531
47.3048 1.946
47.3351 1.423
47.3653 2.203
47.3956 2.097
47.4259 1.158
47.4562 1.626
47.4865 1.364
47.5167 1.416
47.5470 1.102
47.5773 1.154
47.6076 0.581
47.6378 0.998
47.6681 0.425
47.6984 0.842
47.7287 0.374
47.7590 0.374
47.7892 0.480
47.8195 0.637
47.8498 0.013
47.8801 0.015
47.9104 -0.036
47.9406 -0.294
47.9709 0.177
48.0012 0.439
48.0315 0.233
48.0617 0.184
48.0920 0.343
48.1223 -0.227
48.1526 0.193
48.1829 -0.012
48.2131 0.408
48.2434 0.308
48.2737 0.208
48.3040 0.056
48.3343 0.425
48.3645 0.117
48.3948 -0.243
48.4251 0.387
48.4554 0.079
48.4856 -0.072
48.5159 -0.222
48.5462 -0.063
48.5765 0.097
48.6068 -0.003
48.6370 -0.155
48.6673 -0.463
48.6976 0.583
48.7279 0.223
48.7582 -0.137
48.7884 -0.028
48.8187 -0.023
48.8490 0.608
48.8793 -0.064
48.9095 -0.058
48.9398 -0.052
48.9701 -0.202
49.0004 0.117
49.0307 -0.085
49.0609 0.234
49.0912 0.241
49.1215 -0.221
49.1518 -0.005
49.1821 -0.258
49.2123 0.004
49.2426 -0.046
49.2729 -0.043
49.3032 0.167
49.3334 0.326
49.3637 -0.088
49.3940 0.228
49.4243 -0.029
49.4546 0.443
49.4848 -0.022
49.5151 -0.018
49.5454 -0.066
49.5757 0.042
49.6060 0.359
49.6362 0.051
49.6665 -0.205
49.6968 -0.054
49.7271 0.046
49.7574 0.093
49.7876 -0.172
49.8179 -0.020
49.8482 0.236
49.8785 0.233
49.9087 0.021
49.9390 0.017
49.9693 0.274
49.9996 -0.094
50.0299 -0.044
50.0601 -0.047
50.0904 -0.102
50.1207 -0.156
50.1510 0.154
50.1813 0.048
50.2115 -0.006
50.2418 -0.372
50.2721 0.199
50.3024 0.198
50.3326 0.249
50.3629 -0.064
50.3932 0.300
50.4235 0.039
50.4538 -0.222
50.4840 0.142
50.5143 -0.066
50.5446 0.091
50.5749 0.091
50.6052 0.144
50.6354 -0.064
50.6657 -0.062
50.6960 0.303
50.7263 0.565
50.7565 -0.110
50.7868 0.048
50.8171 0.258
50.8474 0.260
50.8777 0.263
50.9079 0.005
50.9382 0.060
50.9685 0.167
50.9988 0.430
51.0291 0.173
51.0593 -0.032
51.0896 0.389
51.1199 -0.441
51.1502 -0.124
51.1804 -0.224
51.2107 0.197
51.2410 0.619
51.2713 -0.158
51.3016 -0.465
51.3318 0.156
51.3621 0.204
51.3924 0.045
51.4227 -0.115
51.4530 -0.118
51.4832 0.244
51.5135 0.137
51.5438 -0.022
51.5741 -0.128
51.6043 -0.130
51.6346 0.545
51.6649 -0.030
51.6952 0.177
51.7255 -0.137
51.7557 -0.086
51.7860 0.330
51.8163 -0.035
51.8466 0.068
51.8769 0.120
51.9071 0.172
51.9374 0.224
51.9677 0.120
51.9980 0.329
52.0282 -0.140
52.0585 0.278
52.0888 -0.086
52.1191 0.228
52.1494 0.125
52.1796 0.283
52.2099 0.076
52.2402 0.182
52.2705 0.184
52.3008 -0.178
52.3310 -0.228
52.3613 0.192
52.3916 -0.014
52.4219 -0.427
52.4521 0.201
52.4824 0.204
52.5127 -0.157
52.5430 -0.361
52.5733 0.164
52.6035 -0.197
52.6338 -0.036
52.6641 0.020
52.6944 0.077
52.7247 -0.282
52.7549 -0.078
52.7852 -0.082
52.8155 -0.242
52.8458 0.120
52.8761 0.116
52.9063 0.166
52.9366 -0.410
52.9669 0.108
52.9972 -0.155
53.0274 0.416
53.0577 -0.055
53.0880 0.256
53.1183 -0.006
53.1486 -0.164
53.1788 -0.061
53.2091 -0.375
53.2394 0.145
53.2697 -0.064
53.3000 0.196
53.3302 0.144
53.3605 -0.273
53.3908 0.092
53.4211 -0.012
53.4513 0.092
53.4816 0.093
53.5119 0.146
53.5422 -0.009
53.5725 0.200
53.6027 0.149
53.6330 0.307
53.6633 -0.264
53.6936 -0.001
53.7239 0.053
53.7541 -0.049
53.7844 0.006
53.8147 -0.044
53.8450 -0.197
53.8752 -0.093
53.9055 -0.197
53.9358 -0.355
53.9661 0.321
53.9964 -0.044
54.0266 0.216
54.0569 -0.201
54.0872 -0.150
54.1175 0.215
54.1478 -0.045
54.1780 0.267
54.2083 0.164
54.2386 0.060
54.2689 -0.043
54.2991 -0.146
54.3294 -0.197
54.3597 0.116
54.3900 0.272
54.4203 0.065
54.4505 -0.247
54.4808 0.015
54.5111 0.589
54.5414 0.226
54.5717 -0.189
54.6019 0.021
54.6322 0.127
54.6625 -0.183
54.6928 0.184
54.7230 -0.282
54.7533 -0.175
54.7836 -0.016
54.8139 0.248
54.8442 0.355
54.8744 -0.006
54.9047 0.050
54.9350 0.002
54.9653 0.215
54.9956 0.115
55.0258 -0.037
55.0561 -0.188
55.0864 -0.248
55.1167 0.318
55.1469 -0.106
55.1772 -0.009
55.2075 0.140
55.2378 -0.075
55.2681 0.283
55.2983 -0.504
55.3286 0.167
55.3589 0.057
55.3892 0.103
55.4195 -0.163
55.4497 -0.116
55.4800 0.191
55.5103 0.498
55.5406 0.233
55.5709 0.177
55.6011 -0.088
55.6314 -0.249
55.6617 0.216
55.6920 0.316
55.7222 0.156
55.7525 -0.316
55.7828 0.879
55.8131 0.303
55.8434 0.665
55.8736 0.245
55.9039 0.451
55.9342 0.292
55.9645 0.655
55.9948 0.653
56.0250 0.912
56.0553 0.493
56.0856 0.857
56.1159 1.741
56.1461 1.011
56.1764 1.218
56.2067 1.843
56.2370 2.155
56.2673 2.831
56.2975 3.248
56.3278 2.102
56.3581 4.446
56.3884 3.509
56.4187 4.396
56.4489 3.772
56.4792 3.668
56.5095 4.139
56.5398 3.359
56.5700 2.058
56.6003 2.946
56.6306 3.208
56.6609 2.794
56.6912 2.119
56.7214 1.392
56.7517 0.927
56.7820 1.034
56.8123 0.829
56.8426 0.728
56.8728 0.731
56.9031 0.839
56.9334 0.322
56.9637 0.170
56.9939 0.279
57.0242 0.179
57.0545 0.236
57.0848 0.137
57.1151 0.038
57.1453 0.095
57.1756 0.257
57.2059 0.367
57.2362 0.268
57.2665 0.222
57.2967 -0.449
57.3270 0.235
57.3573 0.241
57.3876 -0.012
57.4178 0.151
57.4481 0.262
57.4784 0.270
57.5087 -0.087
57.5390 -0.027
57.5692 0.033
57.5995 0.093
57.6298 0.049
57.6601 -0.255
57.6904 -0.047
57.7206 0.162
57.7509 0.006
57.7812 -0.358
57.8115 0.111
57.8417 0.112
57.8720 -0.043
57.9023 0.271
57.9326 -0.144
57.9629 -0.091
57.9931 0.484
58.0234 0.122
58.0537 0.072
58.0840 -0.082
58.1143 -0.027
58.1445 0.028
58.1748 0.135
58.2051 -0.070
58.2354 0.454
58.2656 0.145
58.2959 0.253
58.3262 0.048
58.3565 0.000
58.3868 -0.047
58.4170 0.061
58.4473 -0.142
58.4776 -0.294
58.5079 0.232
58.5382 0.081
58.5684 0.139
58.5987 -0.168
58.6290 -0.163
58.6593 0.051
58.6896 0.056
58.7198 0.218
58.7501 0.588
58.7804 0.334
58.8107 0.028
58.8409 -0.018
58.8712 -0.220
58.9015 0.204
58.9318 0.106
58.9621 -0.199
58.9923 -0.100
59.0226 0.207
59.0529 0.307
59.0832 -0.167
59.1135 0.558
59.1437 0.241
59.1740 0.029
59.2043 0.025
59.2346 -0.083
59.2648 0.539
59.2951 -0.089
59.3254 0.376
59.3557 0.686
59.3860 0.162
59.4162 0.264
59.4465 0.262
59.4768 -0.053
59.5071 0.206
59.5374 -0.057
59.5676 0.358
59.5979 0.565
59.6282 0.252
59.6585 0.303
59.6887 0.198
59.7190 -0.063
59.7493 -0.012
59.7796 -0.116
59.8099 -0.168
59.8401 -0.065
59.8704 -0.013
59.9007 0.090
59.9310 -0.066
59.9613 -0.014
59.9915 0.247
60.0218 0.299
60.0521 0.091
60.0824 -0.012
60.1126 -0.011
60.1429 -0.010
60.1732 0.095
60.2035 0.305
60.2338 -0.110
60.2640 -0.108
60.2943 -0.002
60.3246 -0.156
60.3549 0.055
60.3852 0.057
60.4154 -0.200
60.4457 -0.043
60.4760 0.011
60.5063 -0.143
60.5365 0.067
60.5668 -0.034
60.5971 0.020
60.6274 0.075
60.6577 -0.131
60.6879 -0.128
60.7182 0.188
60.7485 0.035
60.7788 0.247
60.8091 0.095
60.8393 -0.109
60.8696 -0.157
60.8999 0.041
60.9302 0.292
60.9604 0.074
60.9907 -0.144
61.0210 0.212
61.0513 0.203
61.0816 -0.014
61.1118 -0.231
61.1421 0.073
61.1724 0.013
61.2027 -0.047
61.2330 -0.107
61.2632 -0.063
61.2935 -0.070
61.3238 0.183
61.3541 0.020
61.3844 -0.091
61.4146 0.110
61.4449 0.156
61.4752 -0.111
61.5055 0.092
61.5357 -0.018
61.5660 -0.128
61.5963 0.022
61.6266 -0.139
61.6569 0.168
61.6871 -0.201
61.7174 0.106
61.7477 -0.106
61.7780 -0.059
61.8083 0.041
61.8385 0.037
61.8688 0.138
61.8991 -0.022
61.9294 0.026
61.9596 0.388
61.9899 0.124
62.0202 0.121
62.0505 0.119
62.0808 0.429
62.1110 0.114
62.1413 0.372
62.1716 0.475
62.2019 0.577
62.2322 0.523
62.2624 0.418
62.2927 1.094
62.3230 0.572
62.3533 0.988
62.3835 0.935
62.4138 0.883
62.4441 1.299
62.4744 0.674
62.5047 1.977
62.5349 1.144
62.5652 1.926
62.5955 1.666
62.6258 2.552
62.6561 3.126
62.6863 3.232
62.7166 2.192
62.7469 1.985
62.7772 1.779
62.8074 2.302
62.8377 1.783
62.8680 1.421
62.8983 2.309
62.9286 1.531
62.9588 1.846
62.9891 1.224
63.0194 1.124
63.0497 1.231
63.0800 1.027
63.1102 0.770
63.1405 1.087
63.1708 0.935
63.2011 0.523
63.2313 0.476
63.2616 0.116
63.2919 0.330
63.3222 0.335
63.3525 0.236
63.3827 -0.018
63.4130 0.456
63.4433 0.306
63.4736 0.156
63.5039 0.684
63.5341 0.274
63.5644 0.020
63.5947 0.131
63.6250 0.086
63.6552 -0.063
63.6855 0.726
63.7158 0.370
63.7461 0.065
63.7764 0.229
63.8066 0.342
63.8369 0.142
63.8672 0.307
63.8975 0.160
63.9278 0.377
63.9580 0.022
63.9883 -0.020
64.0186 0.093
64.0489 0.103
64.0791 -0.251
64.1094 -0.094
64.1397 0.063
64.1700 0.012
64.2003 0.066
64.2305 0.172
64.2608 0.174
64.2911 -0.033
64.3214 -0.031
64.3517 0.076
64.3819 0.287
64.4122 0.342
64.4425 0.188
64.4728 0.140
64.5031 0.351
64.5333 0.303
64.5636 0.098
64.5939 0.154
64.6242 0.262
64.6544 -0.150
64.6847 -0.146
64.7150 0.002
64.7453 0.097
64.7756 0.089
64.8058 -0.075
64.8361 0.125
64.8664 -0.039
64.8967 0.162
64.9270 0.310
64.9572 -0.061
64.9875 0.088
65.0178 0.081
65.0481 0.178
65.0783 0.120
65.1086 0.322
65.1389 -0.257
65.1692 -0.003
65.1995 0.044
65.2297 0.246
65.2600 -0.228
65.2903 -0.024
65.3206 0.179
65.3509 -0.086
65.3811 0.013
65.4114 -0.147
65.4417 0.109
65.4720 0.001
65.5022 0.049
65.5325 0.097
65.5628 0.302
65.5931 -0.066
65.6234 0.192
65.6536 -0.176
65.6839 -0.178
65.7142 0.180
65.7445 0.225
65.7748 -0.042
65.8050 0.056
65.8353 0.206
65.8656 0.044
65.8959 -0.013
65.9261 0.137
65.9564 0.341
65.9867 0.492
66.0170 0.070
66.0473 -0.351
66.0775 0.113
66.1078 0.473
66.1381 0.573
66.1684 -0.003
66.1987 0.462
66.2289 0.094
66.2592 0.663
66.2895 0.035
66.3198 0.032
66.3500 0.133
66.3803 0.495
66.4106 0.128
66.4409 0.074
66.4712 0.124
66.5014 -0.086
66.5317 0.277
66.5620 0.223
66.5923 0.222
66.6226 0.065
66.6528 0.064
66.6831 0.115
66.7134 -0.145
66.7437 0.115
66.7739 0.010
66.8042 0.271
66.8345 -0.198
66.8648 -0.197
66.8951 0.161
66.9253 -0.210
66.9556 0.149
66.9859 0.039
67.0162 -0.019
67.0465 -0.077
67.0767 -0.186
67.1070 -0.191
67.1373 0.169
67.1676 -0.149
67.1978 0.003
67.2281 0.415
67.2584 0.307
67.2887 0.199
67.3190 0.404
67.3492 0.244
67.3795 0.240
67.4098 0.550
67.4401 0.390
67.4704 0.908
67.5006 1.270
67.5309 0.695
67.5612 0.537
67.5915 1.003
67.6218 0.585
67.6520 1.781
67.6823 1.571
67.7126 1.101
67.7429 2.090
67.7731 2.245
67.8034 2.505
67.8337 1.931
67.8640 2.035
67.8943 1.983
67.9245 1.045
67.9548 1.410
67.9851 1.359
68.0154 1.255
68.0457 1.412
68.0759 1.153
68.1062 0.945
68.1365 1.155
68.1668 0.584
68.1970 1.367
68.2273 0.900
68.2576 0.486
68.2879 0.332
68.3182 0.126
68.3484 0.128
68.3787 0.079
68.4090 0.343
68.4393 0.138
68.4696 0.402
68.4998 -0.011
68.5301 0.253
68.5604 0.205
68.5907 0.209
68.6209 0.422
68.6512 0.531
68.6815 0.744
68.7118 0.801
68.7421 0.181
68.7723 0.499
68.8026 1.129
68.8329 0.666
68.8632 0.829
68.8935 0.626
68.9237 0.424
68.9540 0.848
68.9843 1.063
69.0146 0.497
69.0448 0.660
69.0751 0.928
69.1054 0.831
69.1357 0.474
69.1660 0.430
69.1962 0.386
69.2265 0.290
69.2568 0.611
69.2871 0.411
69.3174 0.732
69.3476 0.116
69.3779 -0.239
69.4082 0.239
69.4385 -0.012
69.4687 0.258
69.4990 -0.201
69.5293 0.435
69.5596 0.080
69.5899 0.143
69.6201 0.206
69.6504 0.165
69.6807 0.071
69.7110 0.291
69.7413 0.198
69.7715 0.210
69.8018 -0.039
69.8321 0.130
69.8624 0.038
69.8926 0.050
69.9229 -0.146
69.9532 -0.090
69.9835 0.019
70.0138 0.179
70.0440 -0.025
70.0743 0.293
70.1046 0.037
70.1349 -0.062
70.1652 0.099
70.1954 -0.051
70.2257 0.111
70.2560 -0.144
70.2863 -0.095
70.3166 0.162
70.3468 0.368
70.3771 0.261
70.4074 0.206
70.4377 0.100
70.4679 -0.163
70.4982 0.200
70.5285 0.094
70.5588 0.093
70.5891 0.247
70.6193 0.298
70.6496 0.245
70.6799 0.349
70.7102 -0.173
70.7405 -0.173
70.7707 0.348
70.8010 -0.173
70.8313 0.192
70.8616 0.192
70.8918 -0.068
70.9221 -0.067
70.9524 -0.170
70.9827 0.195
71.0130 -0.064
71.0432 0.042
71.0735 0.200
71.1038 -0.215
71.1341 0.048
71.1644 -0.106
71.1946 0.261
71.2249 0.107
71.2552 0.006
71.2855 0.217
71.3157 -0.040
71.3460 0.224
71.3763 0.071
71.4066 0.023
71.4369 -0.129
71.4671 0.396
71.4974 0.244
71.5277 0.092
71.5580 0.514
71.5883 0.362
71.6185 0.003
71.6488 0.112
71.6791 -0.142
71.7094 -0.097
71.7396 0.157
71.7699 -0.006
71.8002 0.145
71.8305 0.555
71.8608 0.133
71.8910 0.127
71.9213 0.070
71.9516 -0.091
71.9819 0.060
72.0122 0.055
72.0424 0.155
72.0727 0.307
72.1030 0.250
72.1333 0.298
72.1635 0.295
72.1938 0.187
72.2241 0.236
72.2544 0.180
72.2847 0.073
72.3149 0.174
72.3452 0.067
72.3755 -0.091
72.4058 0.584
72.4361 0.217
72.4663 0.163
72.4966 0.317
72.5269 0.264
72.5572 -0.102
72.5874 0.105
72.6177 0.208
72.6480 0.260
72.6783 0.103
72.7086 0.102
72.7388 0.102
72.7691 0.102
72.7994 -0.106
72.8297 -0.053
72.8600 0.155
72.8902 0.052
72.9205 0.105
72.9508 0.054
72.9811 0.056
73.0113 -0.047
73.0416 0.007
73.0719 0.009
73.1022 -0.146
73.1325 0.010
73.1627 0.114
73.1930 0.009
73.2233 0.165
73.2536 -0.095
73.2839 0.478
73.3141 0.374
73.3444 -0.094
73.3747 -0.146
73.4050 0.115
73.4353 -0.144
73.4655 -0.143
73.4958 0.118
73.5261 -0.036
73.5564 0.330
73.5866 -0.033
73.6169 -0.031
73.6472 0.023
73.6775 -0.131
73.7078 0.184
73.7380 0.031
73.7683 0.242
73.7986 -0.068
73.8289 0.456
73.8592 0.095
73.8894 0.307
73.9197 0.103
73.9500 0.003
73.9803 0.267
74.0105 -0.145
74.0408 0.016
74.0711 -0.031
74.1014 0.338
74.1317 0.343
74.1619 -0.016
74.1922 -0.115
74.2225 0.152
74.2528 0.158
74.2831 0.112
74.3133 -0.142
74.3436 -0.094
74.3739 0.110
74.4042 0.107
74.4344 -0.105
74.4647 -0.004
74.4950 0.097
74.5253 0.042
74.5556 -0.012
74.5858 0.194
74.6161 0.035
74.6464 0.346
74.6767 -0.073
74.7070 -0.022
74.7372 -0.024
74.7675 0.079
74.7978 0.286
74.8281 0.181
74.8583 0.076
74.8886 0.128
74.9189 0.180
74.9492 -0.133
74.9795 -0.133
75.0097 0.124
75.0400 0.121
75.0703 0.014
75.1006 0.116
75.1309 -0.043
75.1611 0.319
75.1914 0.005
75.2217 0.263
75.2520 0.001
75.2822 -0.209
75.3125 0.207
75.3428 0.049
75.3731 -0.004
75.4034 0.152
75.4336 0.099
75.4639 0.411
75.4942 -0.058
75.5245 0.098
75.5548 -0.110
75.5850 -0.057
75.6153 -0.057
75.6456 -0.108
75.6759 -0.055
75.7061 0.311
75.7364 0.312
75.7667 0.209
75.7970 0.055
75.8273 0.421
75.8575 0.111
75.8878 0.269
75.9181 0.272
75.9484 0.014
75.9787 0.069
76.0089 -0.032
76.0392 -0.133
76.0695 0.019
76.0998 0.066
76.1301 0.218
76.1603 0.110
76.1906 0.054
76.2209 0.310
76.2512 0.046
76.2814 0.043
76.3117 0.144
76.3420 -0.015
76.3723 0.190
76.4026 0.136
76.4328 0.133
76.4631 0.339
76.4934 -0.027
76.5237 -0.029
76.5540 -0.031
76.5842 0.280
76.6145 0.175
76.6448 0.174
76.6751 0.017
76.7053 0.068
76.7356 0.172
76.7659 0.067
76.7962 0.327
76.8265 0.171
76.8567 0.640
76.8870 0.224
76.9173 0.798
76.9476 0.121
76.9779 -0.034
77.0081 0.176
77.0384 0.021
77.0687 0.491
77.0990 -0.028
77.1292 0.182
77.1595 0.184
77.1898 0.291
77.2201 0.033
77.2504 -0.173
77.2806 0.039
77.3109 -0.063
77.3412 -0.007
77.3715 -0.108
77.4018 0.521
77.4320 0.108
77.4623 0.060
77.4926 -0.144
77.5229 -0.042
77.5531 0.112
77.5834 0.267
77.6137 -0.099
77.6440 0.004
77.6743 0.159
77.7045 -0.051
77.7348 0.313
77.7651 0.417
77.7954 -0.156
77.8257 0.104
77.8559 0.104
77.8862 -0.104
77.9165 0.052
77.9468 0.053
77.9770 0.106
78.0073 0.055
78.0376 -0.101
78.0679 0.474
78.0982 0.059
78.1284 -0.044
78.1587 -0.042
78.1890 -0.144
78.2193 0.061
78.2496 0.162
78.2798 0.159
78.3101 0.365
78.3404 -0.159
78.3707 0.256
78.4009 0.306
78.4312 0.147
78.4615 -0.323
78.4918 -0.064
78.5221 -0.066
78.5523 -0.171
78.5826 0.088
78.6129 0.347
78.6432 0.034
78.6735 0.033
78.7037 0.084
78.7340 -0.021
78.7643 0.083
78.7946 -0.021
78.8248 0.135
78.8551 0.240
78.8854 0.084
78.9157 -0.072
78.9460 0.033
78.9762 0.190
79.0065 -0.121
79.0368 -0.068
79.0671 0.194
79.0974 0.092
79.1276 -0.166
79.1579 0.304
79.1882 -0.110
79.2185 0.309
79.2488 0.260
79.2790 0.263
79.3093 -0.099
79.3396 -0.095
79.3699 -0.144
79.4001 0.114
79.4304 0.112
79.4607 0.058
79.4910 0.004
79.5213 0.055
79.5515 -0.155
79.5818 0.000
79.6121 0.051
79.6424 -0.158
79.6727 0.154
79.7029 -0.211
79.7332 0.258
79.7635 -0.003
79.7938 -0.107
79.8240 0.154
79.8543 -0.001
79.8846 0.364
79.9149 0.313
79.9452 0.158
79.9754 -0.049
80.0057 0.213
80.0360 0.214
80.0663 -0.148
80.0966 0.323
80.1268 -0.092
80.1571 -0.141
80.1874 0.382
80.2177 -0.136
80.2479 -0.133
80.2782 -0.034
80.3085 0.066
80.3388 0.322
80.3691 0.213
80.3993 0.001
80.4296 0.049
80.4599 -0.007
80.4902 -0.062
80.5205 -0.066
80.5507 0.087
80.5810 0.293
80.6113 0.029
80.6416 0.079
80.6718 -0.028
80.7021 0.126
80.7324 -0.188
80.7627 0.174
80.7930 0.173
80.8232 -0.141
80.8535 0.222
80.8838 0.221
80.9141 0.220
80.9444 -0.197
80.9746 -0.146
81.0049 0.062
81.0352 0.113
81.0655 0.008
81.0957 0.268
81.1260 0.372
81.1563 0.424
81.1866 0.320
81.2169 0.269
81.2471 0.009
81.2774 0.062
81.3077 0.323
81.3380 0.064
81.3683 0.273
81.3985 0.014
81.4288 0.016
81.4591 0.070
81.4894 0.333
81.5196 0.335
81.5499 0.337
81.5802 0.236
81.6105 -0.178
81.6408 -0.071
81.6710 0.245
81.7013 0.196
81.7316 0.252
81.7619 0.203
81.7922 0.416
81.8224 0.107
81.8527 0.008
81.8830 -0.196
81.9133 0.010
81.9436 0.320
81.9738 -0.151
82.0041 0.211
82.0344 0.053
82.0647 0.156
82.0949 0.050
82.1252 -0.003
82.1555 0.152
82.1858 0.255
82.2161 0.411
82.2463 0.150
82.2766 0.462
82.3069 0.201
82.3372 0.149
82.3675 -0.007
82.3977 -0.006
82.4280 0.099
82.4583 0.047
82.4886 0.205
82.5188 0.362
82.5491 0.259
82.5794 0.209
82.6097 -0.102
82.6400 -0.048
82.6702 -0.098
82.7005 0.373
82.7308 0.168
82.7611 0.170
82.7914 0.329
82.8216 -0.032
82.8519 0.023
82.8822 0.391
82.9125 0.187
82.9427 0.243
82.9730 0.143
83.0033 0.355
83.0336 0.047
83.0639 0.156
83.0941 -0.048
83.1244 0.062
83.1547 0.379
83.1850 0.228
83.2153 0.078
83.2455 0.031
83.2758 -0.119
83.3061 -0.074
83.3364 0.283
83.3666 0.016
83.3969 -0.095
83.4272 0.107
83.4575 -0.004
83.4878 0.042
83.5180 0.245
83.5483 -0.022
83.5786 0.025
83.6089 0.071
83.6392 0.222
83.6694 0.322
83.6997 0.004
83.7300 0.156
83.7603 0.047
83.7905 0.199
83.8208 0.091
83.8511 0.191
83.8814 -0.125
83.9117 -0.129
83.9419 0.233
83.9722 -0.135
84.0025 0.227
84.0328 -0.089
84.0631 0.169
84.0933 0.011
84.1236 0.217
84.1539 0.006
84.1842 -0.047
84.2144 0.055
84.2447 0.262
84.2750 -0.156
84.3053 0.103
84.3356 -0.106
84.3658 0.258
84.3961 -0.263
84.4264 -0.055
84.4567 -0.107
84.4870 -0.003
84.5172 -0.003
84.5475 0.102
84.5778 -0.314
84.6081 -0.001
84.6383 0.157
84.6686 0.106
84.6989 0.368
84.7292 0.317
84.7595 0.371
84.7897 0.061
84.8200 -0.198
84.8503 -0.038
84.8806 -0.191
84.9109 0.126
84.9411 0.077
84.9714 -0.023
85.0017 0.138
85.0320 -0.118
85.0623 0.043
85.0925 0.048
85.1228 -0.207
85.1531 0.319
85.1834 -0.144
85.2136 0.070
85.2439 -0.133
85.2742 -0.133
85.3045 -0.031
85.3348 0.019
85.3650 0.069
85.3953 0.015
85.4256 0.013
85.4559 0.064
85.4862 0.167
85.5164 0.322
85.5467 0.061
85.5770 0.112
85.6073 0.164
85.6375 0.112
85.6678 0.007
85.6981 0.059
85.7284 0.060
85.7587 0.164
85.7889 0.113
85.8192 -0.042
85.8495 -0.041
85.8798 -0.040
85.9101 0.118
85.9403 0.015
85.9706 -0.139
86.0009 0.123
86.0312 -0.031
86.0614 -0.133
86.0917 -0.134
86.1220 0.282
86.1523 0.230
86.1826 -0.031
86.2128 0.126
86.2431 0.126
86.2734 0.074
86.3037 -0.082
86.3340 -0.133
86.3642 -0.086
86.3945 0.064
86.4248 0.736
86.4551 0.106
86.4853 0.101
86.5156 0.045
86.5459 0.040
86.5762 0.192
86.6065 -0.177
86.6367 0.080
86.6670 -0.132
86.6973 -0.032
86.7276 0.173
86.7579 -0.142
86.7881 0.167
86.8184 -0.096
86.8487 0.266
86.8790 -0.101
86.9092 0.157
86.9395 0.207
86.9698 -0.159
87.0001 -0.004
87.0304 -0.110
87.0606 -0.007
87.0909 -0.060
87.1212 0.251
87.1515 -0.114
87.1818 -0.114
87.2120 -0.063
87.2423 -0.219
87.2726 0.146
87.3029 -0.010
87.3331 -0.010
87.3634 -0.061
87.3937 -0.164
87.4240 0.253
87.4543 -0.214
87.4845 -0.057
87.5148 -0.003
87.5451 -0.157
87.5754 0.261
87.6057 -0.153
87.6359 0.214
87.6662 -0.200
87.6965 -0.146
87.7268 0.064
87.7571 -0.091
87.7873 0.171
87.8176 -0.036
87.8479 0.018
87.8782 0.177
87.9084 -0.081
87.9387 -0.079
87.9690 0.289
87.9993 0.083
88.0296 0.034
88.0598 0.142
88.0901 0.301
88.1204 0.201
88.1507 -0.160
88.1810 0.104
88.2112 0.057
88.2415 0.113
88.2718 0.326
88.3021 -0.034
88.3323 -0.133
88.3626 -0.029
88.3929 -0.133
88.4232 0.015
88.4535 -0.149
88.4837 0.261
88.5140 0.097
88.5443 -0.119
88.5746 -0.230
88.6049 0.180
88.6351 -0.191
88.6654 0.063
88.6957 0.057
88.7260 -0.053
88.7562 0.253
88.7865 0.352
88.8168 0.086
88.8471 0.237
88.8774 0.076
88.9076 0.227
88.9379 0.118
88.9682 0.114
88.9985 0.005
89.0288 0.209
89.0590 0.206
89.0893 -0.111
89.1196 0.146
89.1499 0.455
89.1801 0.088
89.2104 0.033
89.2407 0.394
89.2710 0.392
89.3013 0.389
89.3315 0.231
89.3618 -0.032
89.3921 0.539
89.4224 0.642
89.4527 0.068
89.4829 0.171
89.5132 0.430
89.5435 -0.196
89.5738 0.428
89.6040 -0.301
89.6343 0.271
89.6646 0.011
89.6949 0.219
89.7252 0.167
89.7554 0.637
89.7857 0.116
89.8160 0.065
89.8463 -0.246
89.8766 0.171
89.9068 0.121
89.9371 0.174
89.9674 0.020
89.9977 0.074
90.0279 0.024
90.0582 -0.026
90.0885 0.185
90.1188 -0.020
90.1491 -0.174
90.1793 0.038
90.2096 -0.011
90.2399 0.044
90.2702 0.204
90.3005 0.364
90.3307 -0.153
90.3610 0.111
90.3913 0.063
90.4216 0.068
90.4518 0.228
90.4821 0.077
90.5124 -0.074
90.5427 0.035
90.5730 0.040
90.6032 0.046
90.6335 -0.105
90.6638 -0.046
90.6941 -0.040
90.7244 0.383
90.7546 0.025
90.7849 -0.021
90.8152 0.299
90.8455 -0.059
90.8758 0.052
90.9060 0.060
90.9363 0.016
90.9666 -0.133
90.9969 -0.083
91.0271 -0.033
91.0574 0.174
91.0877 0.016
91.1180 0.171
91.1483 0.379
91.1785 0.326
91.2088 0.429
91.2391 -0.040
91.2694 0.064
91.2997 -0.040
91.3299 0.116
91.3602 -0.144
91.3905 -0.096
91.4208 -0.049
91.4510 0.051
91.4813 0.048
91.5116 0.408
91.5419 0.249
91.5722 0.037
91.6024 -0.018
91.6327 0.239
91.6630 -0.076
91.6933 -0.131
91.7236 0.388
91.7538 0.125
91.7841 0.280
91.8144 0.382
91.8447 -0.193
91.8749 0.587
91.9052 0.274
91.9355 -0.092
91.9658 -0.093
91.9961 -0.146
92.0263 -0.047
92.0566 0.052
92.0869 -0.057
92.1172 0.251
92.1475 -0.067
92.1777 -0.175
92.2080 0.133
92.2383 -0.132
92.2686 -0.031
92.2988 0.225
92.3291 -0.195
92.3594 0.427
92.3897 0.163
92.4200 0.213
92.4502 0.001
92.4805 -0.053
92.5108 -0.003
92.5411 0.255
92.5714 0.201
92.6016 0.043
92.6319 0.093
92.6622 -0.169
92.6925 0.455
92.7227 0.089
92.7530 0.193
92.7833 0.192
92.8136 0.348
92.8439 -0.017
92.8741 0.243
92.9044 0.087
92.9347 -0.017
92.9650 0.088
92.9953 0.193
93.0255 -0.015
93.0558 0.090
93.0861 -0.012
93.1164 0.197
93.1466 0.147
93.1769 -0.216
93.2072 0.047
93.2375 -0.003
93.2678 -0.157
93.2980 -0.052
93.3283 0.105
93.3586 -0.051
93.3889 -0.101
93.4192 0.004
93.4494 -0.098
93.4797 -0.097
93.5100 0.322
93.5403 0.012
93.5706 0.066
93.6008 0.277
93.6311 0.020
93.6614 0.075
93.6917 -0.026
93.7219 0.237
93.7522 -0.228
93.7825 0.245
93.8128 0.248
93.8431 0.096
93.8733 -0.108
93.9036 0.053
93.9339 0.162
93.9642 0.375
93.9945 0.224
94.0247 0.177
94.0550 -0.078
94.0853 0.084
94.1156 -0.171
94.1458 -0.074
94.1761 0.076
94.2064 0.277
94.2367 0.427
94.2670 0.056
94.2972 0.206
94.3275 -0.112
94.3578 0.142
94.3881 -0.020
94.4184 0.235
94.4486 0.074
94.4789 -0.035
94.5092 0.220
94.5395 -0.045
94.5697 0.316
94.6000 0.259
94.6303 0.099
94.6606 -0.061
94.6909 0.248
94.7211 0.244
94.7514 0.033
94.7817 0.342
94.8120 0.183
94.8423 0.336
94.8725 0.386
94.9028 0.384
94.9331 0.121
94.9634 0.379
94.9936 0.117
95.0239 0.116
95.0542 0.219
95.0845 0.165
95.1148 0.164
95.1450 0.163
95.1753 0.371
95.2056 0.162
95.2359 0.527
95.2662 0.579
95.2964 0.839
95.3267 0.579
95.3570 0.163
95.3873 0.164
95.4175 0.685
95.4478 0.218
95.4781 0.375
95.5084 0.012
95.5387 0.222
95.5689 0.016
95.5992 0.070
95.6295 0.124
95.6598 -0.082
95.6901 0.181
95.7203 0.028
95.7506 0.135
95.7809 0.138
95.8112 0.194
95.8414 0.197
95.8717 0.253
95.9020 -0.056
95.9323 0.261
95.9626 0.005
95.9928 -0.043
96.0231 0.327
96.0534 -0.085
96.0837 0.285
96.1140 0.134
96.1442 0.243
96.1745 0.197
96.2048 0.255
96.2351 -0.208
96.2653 -0.045
96.2956 0.169
96.3259 0.176
96.3562 0.131
96.3865 -0.175
96.4167 0.301
96.4470 -0.212
96.4773 -0.049
96.5076 0.063
96.5379 0.123
96.5681 0.027
96.5984 0.088
96.6287 0.200
96.6590 0.001
96.6893 0.322
96.7195 0.435
96.7498 -0.076
96.7801 -0.119
96.8104 -0.074
96.8406 0.023
96.8709 0.172
96.9012 0.165
96.9315 0.158
96.9618 0.308
96.9920 0.458
97.0223 0.140
97.0526 0.030
97.0829 0.545
97.1132 0.018
97.1434 0.326
97.1737 0.320
97.2040 0.211
97.2343 -0.002
97.2645 0.358
97.2948 -0.167
97.3251 0.037
97.3554 0.085
97.3857 -0.023
97.4159 -0.182
97.4462 0.231
97.4765 0.071
97.5068 -0.192
97.5371 0.065
97.5673 -0.302
97.5976 -0.047
97.6279 0.001
97.6582 0.204
97.6884 0.408
97.7187 0.091
97.7490 0.087
97.7793 -0.073
97.8096 0.392
97.8398 0.284
97.8701 -0.084
97.9004 0.382
97.9307 0.222
97.9610 -0.145
97.9912 0.321
98.0215 0.058
98.0518 0.004
98.0821 0.158
98.1123 -0.052
98.1426 -0.002
98.1729 0.101
98.2032 -0.109
98.2335 0.098
98.2637 -0.163
98.2940 0.097
98.3243 0.409
98.3546 0.252
98.3849 -0.061
98.4151 -0.061
98.4454 0.044
98.4757 -0.008
98.5060 0.253
98.5362 0.202
98.5665 0.411
98.5968 0.152
98.6271 0.205
98.6574 0.103
98.6876 0.313
98.7179 0.054
98.7482 -0.048
98.7785 -0.097
98.8088 -0.043
98.8390 0.272
98.8693 0.223
98.8996 0.330
98.9299 0.229
98.9601 0.025
98.9904 0.236
99.0207 0.136
99.0510 -0.224
99.0813 -0.117
99.1115 0.147
99.1418 0.307
99.1721 -0.002
99.2024 0.315
99.2327 0.058
99.2629 -0.146
99.2932 -0.146
99.3235 0.113
99.3538 0.111
99.3841 -0.047
99.4143 0.317
99.4446 0.263
99.4749 0.210
99.5052 0.106
99.5354 0.365
99.5657 0.209
99.5960 -0.052
99.6263 0.052
99.6566 0.313
99.6868 -0.103
99.7171 -0.103
99.7474 0.367
99.7777 -0.153
99.8080 -0.048
99.8382 0.214
99.8685 0.528
99.8988 -0.043
99.9291 -0.146
99.9593 -0.045
99.9896 -0.152
100.0199 0.158
100.0502 -0.001
100.0805 0.309
100.1107 -0.058
100.1410 0.044
100.1713 0.198
100.2016 -0.168
100.2319 -0.066
100.2621 0.037
100.2924 -0.224
100.3227 -0.018
100.3530 0.032
100.3832 -0.074
100.4135 0.029
100.4438 0.288
100.4741 -0.026
100.5044 0.129
100.5346 0.181
100.5649 0.180
100.5952 0.023
100.6255 -0.185
100.6558 0.231
100.6860 0.075
100.7163 0.492
100.7466 -0.236
100.7769 -0.027
100.8071 0.078
100.8374 0.027
100.8677 -0.128
100.8980 0.134
100.9283 0.031
100.9585 0.294
100.9888 0.139
101.0191 -0.015
101.0494 -0.221
101.0797 0.147
101.1099 -0.007
101.1402 0.153
101.1705 -0.105
101.2008 -0.049
101.2310 0.059
101.2613 0.219
101.2916 0.066
101.3219 0.070
101.3522 -0.029
101.3824 0.340
101.4127 0.188
101.4430 -0.015
101.4733 0.875
101.5036 0.099
101.5338 0.313
101.5641 0.058
101.5944 -0.144
101.6247 -0.048
101.6549 0.205
101.6852 -0.011
101.7155 0.138
101.7458 0.131
101.7761 0.124
101.8063 0.118
101.8366 0.007
101.8669 0.105
101.8972 0.255
101.9275 0.145
101.9577 -0.069
101.9880 -0.022
102.0183 0.389
102.0486 -0.033
102.0788 0.014
102.1091 0.114
102.1394 0.213
102.1697 0.157
102.2000 0.152
102.2302 -0.008
102.2605 -0.012
102.2908 0.037
102.3211 0.033
102.3514 0.291
102.3816 0.183
102.4119 -0.028
102.4422 0.282
102.4725 0.071
102.5028 -0.139
102.5330 0.171
102.5633 -0.039
102.5936 0.376
102.6239 -0.043
102.6541 -0.044
102.6844 -0.149
102.7147 0.162
102.7450 0.162
102.7753 -0.152
102.8055 -0.048
102.8358 0.108
102.8661 0.056
102.8964 0.213
102.9267 -0.047
102.9569 0.318
102.9872 0.475
103.0175 0.215
103.0478 -0.200
103.0780 -0.207
103.1083 0.256
103.1386 0.146
103.1689 -0.016
103.1992 0.031
103.2294 0.234
103.2597 0.281
103.2900 -0.193
103.3203 0.063
103.3506 -0.098
103.3808 0.054
103.4111 0.206
103.4414 0.202
103.4717 0.147
103.5019 0.195
103.5322 -0.069
103.5625 -0.176
103.5928 0.394
103.6231 0.183
103.6533 -0.236
103.6836 0.490
103.7139 0.332
103.7442 -0.139
103.7745 0.068
103.8047 0.118
103.8350 0.221
103.8653 0.480
103.8956 0.114
103.9258 0.165
103.9561 0.425
103.9864 -0.044
104.0167 0.268
104.0470 0.164
104.0772 -0.097
104.1075 -0.253
104.1378 0.269
104.1681 0.217
104.1984 0.166
104.2286 0.167
104.2589 -0.144
104.2892 0.170
104.3195 0.015
104.3497 0.173
104.3800 0.019
104.4103 0.021
104.4406 0.180
104.4709 -0.078
104.5011 0.185
104.5314 0.136
104.5617 0.243
104.5920 -0.014
104.6223 0.093
104.6525 0.201
104.6828 0.205
104.7131 0.053
104.7434 -0.203
104.7736 0.322
104.8039 0.066
104.8342 0.019
104.8645 0.232
104.8948 -0.127
104.9250 -0.070
104.9553 -0.168
104.9856 0.041
105.0159 -0.010
105.0462 0.096
105.0764 -0.163
105.1067 -0.057
105.1370 0.049
105.1673 -0.001
105.1975 -0.051
105.2278 -0.100
105.2581 0.163
105.2884 0.270
105.3187 -0.039
105.3489 -0.088
105.3792 -0.137
105.4095 -0.185
105.4398 0.287
105.4701 0.031
105.5003 0.139
105.5306 -0.169
105.5609 0.409
105.5912 -0.055
105.6215 0.158
105.6517 0.059
105.6820 0.221
105.7123 0.070
105.7426 0.128
105.7728 0.134
105.8031 -0.276
105.8334 -0.123
105.8637 0.030
105.8940 -0.181
105.9242 0.389
105.9545 0.022
105.9848 0.020
106.0151 0.070
106.0454 0.277
106.0756 0.067
106.1059 0.221
106.1362 0.220
106.1665 0.167
106.1967 0.114
106.2270 -0.251
106.2573 -0.097
106.2876 0.058
106.3179 0.160
106.3481 0.107
106.3784 0.418
106.4087 -0.104
106.4390 -0.053
106.4693 0.363
106.4995 0.050
106.5298 0.206
106.5601 0.102
106.5904 -0.315
106.6206 0.310
106.6509 -0.158
106.6812 -0.157
106.7115 -0.107
106.7418 -0.160
106.7720 0.204
106.8023 -0.006
106.8326 0.098
106.8629 -0.007
106.8932 -0.007
106.9234 -0.163
106.9537 0.253
106.9840 -0.111
107.0143 0.098
107.0445 -0.006
107.0748 0.099
107.1051 0.361
107.1354 -0.107
107.1657 -0.157
107.1959 -0.157
107.2262 -0.105
107.2565 0.363
107.2868 -0.001
107.3171 -0.157
107.3473 -0.001
107.3776 0.000
107.4079 0.104
107.4382 0.313
107.4684 -0.050
107.4987 0.107
107.5290 0.004
107.5593 0.370
107.5896 -0.253
107.6198 -0.199
107.6501 0.270
107.6804 0.009
107.7107 -0.042
107.7410 0.063
107.7712 0.376
107.8015 0.012
107.8318 0.170
107.8621 0.379
107.8923 -0.036
107.9226 -0.034
107.9529 -0.136
107.9832 0.178
108.0135 0.024
108.0437 0.339
108.0740 0.029
108.1043 0.345
108.1346 0.035
108.1649 0.299
108.1951 0.198
108.2254 0.410
108.2557 0.414
108.2860 -0.155
108.3163 0.422
108.3465 0.322
108.3768 0.119
108.4071 0.436
108.4374 -0.080
108.4676 0.290
108.4979 0.035
108.5282 0.196
108.5585 0.202
108.5888 0.364
108.6190 -0.046
108.6493 -0.248
108.6796 0.057
108.7099 0.259
108.7402 0.409
108.7704 0.090
108.8007 0.396
108.8310 0.390
108.8613 0.176
108.8915 -0.037
108.9218 0.322
108.9521 -0.100
108.9824 0.312
109.0127 0.151
109.0429 0.042
109.0732 0.090
109.1035 0.138
109.1338 0.290
109.1641 0.078
109.1943 -0.134
109.2246 -0.034
109.2549 0.224
109.2852 0.012
109.3154 -0.251
109.3457 0.003
109.3760 -0.003
109.4063 -0.009
109.4366 0.402
109.4668 -0.124
109.4971 -0.077
109.5274 0.074
109.5577 0.069
109.5880 -0.092
109.6182 -0.200
109.6485 0.107
109.6788 -0.002
109.7091 -0.163
109.7393 0.041
109.7696 -0.067
109.7999 -0.175
109.8302 0.342
109.8605 0.234
109.8907 -0.290
109.9210 0.175
109.9513 0.328
109.9816 0.065
110.0119 -0.042
110.0421 -0.044
110.0724 -0.046
110.1027 -0.049
110.1330 0.314
110.1632 0.104
110.1935 0.259
110.2238 0.205
110.2541 -0.056
110.2844 0.255
110.3146 -0.058
110.3449 0.046
110.3752 -0.111
110.4055 0.201
110.4358 0.305
110.4660 -0.059
110.4963 0.045
110.5266 0.098
110.5569 -0.005
110.5871 -0.056
110.6174 -0.003
110.6477 0.102
110.6780 -0.313
110.7083 0.366
110.7385 -0.205
110.7688 0.162
110.7991 -0.097
110.8294 0.114
110.8597 -0.039
110.8899 -0.037
110.9202 0.071
110.9505 0.126
110.9808 0.181
111.0110 -0.023
111.0413 0.085
111.0716 -0.068
111.1019 0.301
111.1322 0.045
111.1624 -0.107
111.1927 0.158
111.2230 0.007
111.2533 0.012
111.2836 -0.087
111.3138 0.231
111.3441 -0.075
111.3744 -0.174
111.4047 0.089
111.4350 0.090
111.4652 -0.116
111.4955 0.199
111.5258 0.462
111.5561 0.048
111.5863 -0.157
111.6166 -0.052
111.6469 0.105
111.6772 0.054
111.7075 0.159
111.7377 0.056
111.7680 0.318
111.7983 -0.097
111.8286 -0.251
111.8589 0.110
111.8891 0.107
111.9194 -0.052
111.9497 -0.002
111.9800 -0.213
112.0102 0.254
112.0405 0.043
112.0708 -0.167
112.1011 0.144
112.1314 0.247
112.1616 0.194
112.1919 0.036
112.2222 0.087
112.2525 0.087
112.2828 0.086
112.3130 0.034
112.3433 0.190
112.3736 0.242
112.4039 0.138
112.4341 -0.174
112.4644 -0.126
112.4947 0.026
112.5250 0.023
112.5553 0.175
112.5855 0.068
112.6158 0.012
112.6461 -0.147
112.6764 0.006
112.7067 0.004
112.7369 0.001
112.7672 0.207
112.7975 0.153
112.8278 0.047
112.8580 0.149
112.8883 -0.217
112.9186 -0.010
112.9489 -0.063
112.9792 -0.168
113.0094 -0.064
113.0397 0.196
113.0700 -0.169
113.1003 0.352
113.1306 -0.220
113.1608 0.458
113.1911 0.042
113.2214 0.147
113.2517 -0.217
113.2819 0.201
113.3122 0.255
113.3425 -0.108
113.3728 -0.002
113.4031 -0.104
113.4333 0.159
113.4636 0.162
113.4939 -0.200
113.5242 -0.152
113.5545 -0.050
113.5847 0.103
113.6150 0.256
113.6453 -0.111
113.6756 0.199
113.7058 -0.272
113.7361 -0.065
113.7664 0.037
113.7967 0.140
113.8270 0.086
113.8572 -0.019
113.8875 -0.072
113.9178 -0.229
113.9481 0.135
113.9784 0.134
114.0086 0.082
114.0389 0.134
114.0692 0.082
114.0995 0.134
114.1298 0.135
114.1600 -0.073
114.1903 0.084
114.2206 -0.175
114.2509 -0.071
114.2811 0.033
114.3114 -0.279
114.3417 -0.022
114.3720 -0.077
114.4023 0.024
114.4325 0.074
114.4628 0.019
114.4931 0.121
114.5234 0.067
114.5537 0.377
114.5839 -0.250
114.6142 0.478
114.6445 0.112
114.6748 -0.202
114.7050 -0.105
114.7353 0.096
114.7656 0.349
114.7959 -0.231
114.8262 0.127
114.8564 -0.036
114.8867 0.322
114.9170 -0.205
114.9473 -0.055
114.9776 -0.008
115.0078 -0.326
115.0381 0.137
115.0684 -0.233
115.0987 -0.030
115.1289 0.069
115.1592 0.013
115.1895 -0.304
115.2198 0.212
115.2501 0.260
115.2803 -0.004
115.3106 -0.164
115.3409 0.301
115.3712 -0.223
115.4015 0.034
115.4317 0.135
115.4620 -0.180
115.4923 -0.079
115.5226 -0.185
115.5528 -0.031
115.5831 -0.033
115.6134 -0.087
115.6437 -0.089
115.6740 0.066
115.7042 -0.144
115.7345 -0.197
115.7648 -0.199
115.7951 0.476
115.8254 0.371
115.8556 0.005
115.8859 0.056
115.9162 0.367
115.9465 0.210
115.9767 0.366
116.0070 0.001
116.0373 0.157
116.0676 0.365
116.0979 0.313
116.1281 0.105
116.1584 0.106
116.1887 0.159
116.2190 0.368
116.2493 0.317
116.2795 -0.098
116.3098 0.424
116.3401 0.426
116.3704 0.636
116.4006 0.117
116.4309 0.484
116.4612 0.330
116.4915 0.073
116.5218 -0.029
116.5520 0.078
116.5823 0.238
116.6126 -0.019
116.6429 -0.015
116.6732 0.040
116.7034 0.044
116.7337 -0.056
116.7640 -0.051
116.7943 -0.047
116.8245 -0.094
116.8548 0.015
116.8851 0.437
116.9154 -0.079
116.9457 -0.281
116.9759 0.088
117.0062 -0.012
117.0365 -0.215
117.0668 0.311
117.0971 0.055
117.1273 0.009
117.1576 0.327
117.1879 0.020
117.2182 0.234
117.2485 0.136
117.2787 0.091
117.3090 0.306
117.3393 -0.104
117.3696 -0.202
117.3998 0.108
117.4301 0.313
117.4604 -0.054
117.4907 0.047
117.5210 0.253
117.5512 -0.062
117.5815 0.405
117.6118 0.195
117.6421 0.506
117.6724 0.035
117.7026 -0.122
117.7329 0.033
117.7632 0.084
117.7935 -0.333
117.8237 0.239
117.8540 -0.022
117.8843 -0.178
117.9146 -0.127
117.9449 -0.127
117.9751 -0.023
118.0054 -0.179
118.0357 0.394
118.0660 -0.179
118.0963 -0.022
118.1265 -0.021
118.1568 -0.280
118.1871 0.031
118.2174 0.082
118.2476 -0.128
118.2779 0.236
118.3082 0.235
118.3385 0.235
118.3688 -0.130
118.3990 -0.026
118.4293 0.234
118.4596 0.078
118.4899 0.131
118.5202 -0.025
118.5504 0.392
118.5807 -0.023
118.6110 -0.178
118.6413 0.030
118.6715 0.239
118.7018 0.343
118.7321 -0.073
118.7624 -0.228
118.7927 0.086
118.8229 0.192
118.8532 -0.119
118.8835 -0.169
118.9138 0.146
118.9441 0.045
118.9743 -0.057
119.0046 0.259
119.0349 0.210
119.0652 -0.100
119.0954 0.060
119.1257 -0.093
119.1560 0.016
119.1863 -0.033
119.2166 0.440
119.2468 0.028
119.2771 0.293
119.3074 0.506
119.3377 0.147
119.3680 0.048
119.3982 0.262
119.4285 -0.097
119.4588 0.325
119.4891 -0.086
119.5193 0.129
119.5496 0.239
119.5799 0.090
119.6102 -0.060
119.6405 -0.157
119.6707 -0.088
119.7010 -0.123
119.7313 0.155
119.7616 -0.140
119.7919 -0.070
119.8221 0.052
119.8524 -0.086
119.8827 0.140
119.9130 -0.362
119.9433 -0.068
119.9735 0.018
120.0038 0.000
