'Id: "" Comment: "" Operator: "Lab Manager" Anode: "Cu" Scantype: "Locked Coupled" TimePerStep: "19.2" X: "9999" Y: "9999" Z: "9999" 
10.0015 0.000
10.0318 0.409
10.0620 0.661
10.0923 1.175
10.1226 0.907
10.1529 0.223
10.1832 0.268
10.2134 -0.468
10.2437 -0.155
10.2740 0.107
10.3043 0.577
10.3346 0.526
10.3648 -0.097
10.3951 0.009
10.4254 1.001
10.4557 0.430
10.4859 0.120
10.5162 0.644
10.5465 0.907
10.5768 0.494
10.6071 -0.076
10.6373 0.917
10.6676 0.036
10.6979 0.144
10.7282 0.461
10.7585 1.090
10.7887 -0.207
10.8190 1.465
10.8493 1.470
10.8796 1.527
10.9098 1.950
10.9401 3.883
10.9704 3.576
11.0007 6.030
11.0310 4.110
11.0612 4.533
11.0915 3.551
11.1218 3.037
11.1521 3.773
11.1824 1.906
11.2126 2.174
11.2429 1.245
11.2732 0.732
11.3035 1.001
11.3337 1.635
11.3640 1.852
11.3943 0.090
11.4246 1.298
11.4549 0.995
11.4851 -0.141
11.5154 1.379
11.5457 0.660
11.5760 -0.527
11.6063 1.306
11.6365 -0.141
11.6668 -0.026
11.6971 1.027
11.7274 0.153
11.7577 0.790
11.7879 -0.188
11.8182 0.710
11.8485 0.097
11.8788 -0.776
11.9090 0.383
11.9393 0.136
11.9696 0.305
11.9999 0.423
12.0302 0.176
12.0604 -0.383
12.0907 0.986
12.1210 -0.198
12.1513 -0.027
12.1816 0.665
12.2118 0.367
12.2421 0.747
12.2724 0.346
12.3027 0.258
12.3329 0.846
12.3632 0.654
12.3935 0.046
12.4238 -0.354
12.4541 -0.390
12.4843 0.388
12.5146 0.073
12.5449 0.122
12.5752 1.005
12.6055 0.482
12.6357 0.479
12.6660 0.373
12.6963 0.215
12.7266 -0.047
12.7568 0.161
12.7871 0.212
12.8174 1.304
12.8477 -0.571
12.8780 0.418
12.9082 -0.415
12.9385 0.574
12.9688 -0.415
12.9991 0.158
13.0294 -0.310
13.0596 -0.049
13.0899 0.317
13.1202 0.631
13.1505 0.008
13.1807 0.218
13.2110 0.584
13.2413 0.795
13.2716 0.172
13.3019 -0.346
13.3321 -0.343
13.3624 0.285
13.3927 0.288
13.4230 0.344
13.4533 0.192
13.4835 0.196
13.5138 -0.061
13.5441 0.360
13.5744 -0.156
13.6046 0.057
13.6349 0.167
13.6652 -0.036
13.6955 -0.291
13.7258 -0.494
13.7560 0.344
13.7863 -0.121
13.8166 -0.220
13.8469 -0.007
13.8772 -0.679
13.9074 0.472
13.9377 0.008
13.9680 0.170
13.9983 -0.136
14.0285 0.026
14.0588 -0.176
14.0891 0.924
14.1194 -0.111
14.1497 0.417
14.1799 -0.044
14.2102 0.588
14.2405 0.439
14.2708 -0.438
14.3011 0.664
14.3313 -0.474
14.3616 0.107
14.3919 -0.353
14.4222 -0.292
14.4524 0.082
14.4827 -0.013
14.5130 -0.003
14.5433 -0.045
14.5736 0.277
14.6038 0.183
14.6341 0.611
14.6644 0.569
14.6947 -0.097
14.7250 -0.242
14.7552 0.603
14.7855 -0.167
14.8158 -0.520
14.8461 0.218
14.8764 0.175
14.9066 0.341
14.9369 0.246
14.9672 0.204
14.9975 -0.254
15.0277 0.798
15.0580 0.704
15.0883 0.246
15.1186 0.309
15.1489 0.528
15.1791 0.644
15.2094 -0.126
15.2397 1.032
15.2700 -0.050
15.3003 0.587
15.3305 0.756
15.3608 0.404
15.3911 0.782
15.4214 -0.038
15.4516 -0.702
15.4819 0.069
15.5122 0.423
15.5425 0.309
15.5728 0.404
15.6030 0.654
15.6333 0.333
15.6636 0.219
15.6939 0.315
15.7242 0.462
15.7544 0.194
15.7847 -0.023
15.8150 0.698
15.8453 -0.143
15.8755 0.683
15.9058 0.728
15.9361 0.564
15.9664 0.349
15.9967 0.759
16.0269 -0.133
16.0572 -0.035
16.0875 0.168
16.1178 0.422
16.1481 0.417
16.1783 0.099
16.2086 0.094
16.2389 0.402
16.2692 0.189
16.2994 0.184
16.3297 0.284
16.3600 0.020
16.3903 0.589
16.4206 0.325
16.4508 0.894
16.4811 0.110
16.5114 0.628
16.5417 0.365
16.5720 -0.315
16.6022 0.360
16.6325 0.827
16.6628 0.096
16.6931 0.563
16.7233 0.197
16.7536 0.508
16.7839 -0.430
16.8142 0.402
16.8445 -0.744
16.8747 0.818
16.9050 0.506
16.9353 1.079
16.9656 -0.015
16.9959 0.507
17.0261 0.247
17.0564 0.300
17.0867 0.249
17.1170 -0.010
17.1472 0.825
17.1775 -0.110
17.2078 0.100
17.2381 0.311
17.2684 0.053
17.2986 -0.048
17.3289 -0.202
17.3592 1.104
17.3895 -0.143
17.4198 0.590
17.4500 0.021
17.4803 -0.131
17.5106 0.654
17.5409 -0.018
17.5712 -0.534
17.6014 1.241
17.6317 0.674
17.6620 -0.571
17.6923 -0.201
17.7225 0.847
17.7528 0.488
17.7831 0.807
17.8134 0.501
17.8437 -0.169
17.8739 -0.215
17.9042 0.261
17.9345 0.373
17.9648 0.172
17.9951 0.284
18.0253 -0.125
18.0556 1.602
18.0859 -0.316
18.1162 -0.151
18.1464 -0.194
18.1767 -0.342
18.2070 -0.020
18.2373 0.302
18.2676 0.468
18.2978 -0.356
18.3281 0.488
18.3584 0.706
18.3887 -0.429
18.4190 0.155
18.4492 -0.043
18.4795 0.854
18.5098 -0.072
18.5401 0.720
18.5703 -0.257
18.6006 0.692
18.6309 0.288
18.6612 0.717
18.6915 1.094
18.7217 1.211
18.7520 0.287
18.7823 -0.325
18.8126 -0.572
18.8429 0.361
18.8731 -0.059
18.9034 1.343
18.9337 0.350
18.9640 0.191
18.9942 0.083
19.0245 0.133
19.0548 1.693
19.0851 0.023
19.1154 0.594
19.1456 0.384
19.1759 0.747
19.2062 0.224
19.2365 1.108
19.2668 0.795
19.2970 0.690
19.3273 0.741
19.3576 0.428
19.3879 0.376
19.4181 0.845
19.4484 0.324
19.4787 0.272
19.5090 0.533
19.5393 0.117
19.5695 0.535
19.5998 0.380
19.6301 -0.139
19.6604 0.904
19.6907 -0.604
19.7209 0.388
19.7512 0.807
19.7815 -0.128
19.8118 0.552
19.8420 0.971
19.8723 0.193
19.9026 0.145
19.9329 0.305
19.9632 0.621
19.9934 0.365
20.0237 0.265
20.0540 1.520
20.0843 0.535
20.1146 0.123
20.1448 0.441
20.1751 0.238
20.2054 0.504
20.2357 0.302
20.2659 -0.317
20.2962 0.419
20.3265 0.217
20.3568 0.380
20.3871 1.168
20.4173 0.654
20.4476 -0.067
20.4779 0.253
20.5082 0.261
20.5385 -0.200
20.5687 0.798
20.5990 -0.235
20.6293 0.399
20.6596 -0.061
20.6899 -0.312
20.7201 -0.323
20.7504 0.501
20.7807 0.075
20.8110 0.534
20.8412 0.108
20.8715 -0.109
20.9018 0.455
20.9321 0.290
20.9624 0.074
20.9926 0.274
21.0229 0.318
21.0532 0.363
21.0835 0.043
21.1138 0.713
21.1440 0.029
21.1743 0.178
21.2046 0.068
21.2349 0.530
21.2651 0.784
21.2954 0.518
21.3257 -0.008
21.3560 0.507
21.3863 -0.279
21.4165 0.757
21.4468 0.336
21.4771 -0.190
21.5074 0.119
21.5377 0.219
21.5679 -0.462
21.5982 0.888
21.6285 0.260
21.6588 0.725
21.6890 0.201
21.7193 0.042
21.7496 0.769
21.7799 0.454
21.8102 -0.329
21.8404 -0.488
21.8707 0.553
21.9010 0.134
21.9313 0.342
21.9616 0.028
21.9918 0.079
22.0221 0.704
22.0524 0.026
22.0827 0.495
22.1129 -0.182
22.1432 0.235
22.1735 0.444
22.2038 -0.597
22.2341 0.394
22.2643 0.968
22.2946 -0.125
22.3249 0.450
22.3552 -0.329
22.3855 -0.644
22.4157 0.448
22.4460 0.603
22.4763 -0.231
22.5066 0.028
22.5368 0.079
22.5671 0.131
22.5974 0.287
22.6277 -0.130
22.6580 0.391
22.6882 0.079
22.7185 -0.494
22.7488 -0.027
22.7791 -0.133
22.8094 0.074
22.8396 -0.083
22.8699 0.072
22.9002 0.123
22.9305 0.383
22.9607 -0.086
22.9910 0.591
23.0213 -0.034
23.0516 -0.138
23.0819 0.956
23.1121 -0.293
23.1424 1.323
23.1727 -0.030
23.2030 0.232
23.2333 -0.288
23.2635 0.495
23.2938 0.393
23.3241 -0.021
23.3544 -0.175
23.3846 0.245
23.4149 -0.273
23.4452 0.042
23.4755 0.566
23.5058 -0.107
23.5360 0.782
23.5663 -0.047
23.5966 0.113
23.6269 -0.351
23.6572 0.227
23.6874 0.544
23.7177 0.706
23.7480 -0.122
23.7783 -0.325
23.8086 -0.223
23.8388 0.089
23.8691 -0.329
23.8994 0.764
23.9297 0.086
23.9599 0.138
23.9902 0.294
24.0205 0.762
24.0508 0.502
24.0811 0.034
24.1113 -0.174
24.1416 0.504
24.1719 0.089
24.2022 0.402
24.2325 -0.065
24.2627 0.354
24.2930 0.199
24.3233 0.045
24.3536 -0.004
24.3838 0.467
24.4141 0.522
24.4444 -0.308
24.4747 1.101
24.5050 -0.093
24.5352 0.119
24.5655 -0.138
24.5958 0.075
24.6261 -0.442
24.6564 -0.030
24.6866 -0.035
24.7169 -0.352
24.7472 0.477
24.7775 0.525
24.8077 0.105
24.8380 -0.368
24.8683 0.410
24.8986 -0.583
24.9289 -0.325
24.9591 0.449
24.9894 0.182
25.0197 0.175
25.0500 -0.196
25.0803 -0.254
25.1105 0.156
25.1408 -0.110
25.1711 0.145
25.2014 -0.537
25.2316 0.760
25.2619 0.286
25.2922 0.229
25.3225 0.381
25.3528 0.481
25.3830 0.373
25.4133 0.265
25.4436 -0.051
25.4739 -0.158
25.5042 -0.266
25.5344 0.461
25.5647 0.250
25.5950 -0.170
25.6253 0.557
25.6555 0.451
25.6858 -0.384
25.7161 -0.333
25.7464 0.130
25.7767 -0.032
25.8069 -0.037
25.8372 -0.041
25.8675 0.579
25.8978 0.575
25.9281 -0.054
25.9583 -0.162
25.9886 -0.218
26.0189 0.091
26.0492 -0.121
26.0794 0.241
26.1097 -0.075
26.1400 -0.338
26.1703 -0.237
26.2006 0.020
26.2308 0.017
26.2611 -0.038
26.2914 0.011
26.3217 0.165
26.3520 -0.098
26.3822 0.213
26.4125 0.159
26.4428 -0.468
26.4731 -0.109
26.5034 0.719
26.5336 0.193
26.5639 0.032
26.5942 0.080
26.6245 -0.342
26.6547 -0.143
26.6850 -0.101
26.7153 0.098
26.7456 0.141
26.7759 0.340
26.8061 -0.085
26.8364 0.531
26.8667 -0.259
26.8970 -0.111
26.9273 -0.171
26.9575 0.082
26.9878 -0.030
27.0181 0.952
27.0484 0.268
27.0786 -0.364
27.1089 -0.221
27.1392 0.026
27.1695 0.222
27.1998 0.365
27.2300 0.092
27.2603 -0.233
27.2906 0.224
27.3209 0.264
27.3512 -0.320
27.3814 0.085
27.4117 0.126
27.4420 0.271
27.4723 -0.417
27.5025 0.093
27.5328 -0.177
27.5631 0.021
27.5934 0.376
27.6237 0.001
27.6539 -0.112
27.6842 0.191
27.7145 0.442
27.7448 -0.765
27.7751 0.633
27.8053 0.312
27.8356 -0.269
27.8659 0.296
27.8962 0.340
27.9264 0.645
27.9567 0.430
27.9870 0.683
28.0173 0.260
28.0476 -0.372
28.0778 -0.329
28.1081 -0.234
28.1384 0.486
28.1687 1.051
28.1990 0.261
28.2292 0.409
28.2595 -0.068
28.2898 1.123
28.3201 0.073
28.3503 0.170
28.3806 0.267
28.4109 0.208
28.4412 -0.007
28.4715 0.247
28.5017 0.033
28.5320 -0.494
28.5623 0.015
28.5926 -0.256
28.6229 -0.424
28.6531 0.451
28.6834 -0.237
28.7137 -0.039
28.7440 1.201
28.7742 0.149
28.8045 -0.017
28.8348 0.078
28.8651 0.120
28.8954 -0.305
28.9256 0.571
28.9559 0.198
28.9862 -0.540
29.0165 -0.027
29.0468 0.694
29.0770 0.478
29.1073 0.210
29.1376 -0.370
29.1679 -0.221
29.1981 0.084
29.2284 0.703
29.2587 1.009
29.2890 0.221
29.3193 0.267
29.3495 -0.416
29.3798 -0.233
29.4101 0.002
29.4404 -0.075
29.4707 0.161
29.5009 0.189
29.5312 0.217
29.5615 0.661
29.5918 -0.040
29.6221 0.145
29.6523 0.330
29.6826 0.203
29.7129 0.180
29.7432 -0.572
29.7734 -0.131
29.8037 0.414
29.8340 0.960
29.8643 -0.213
29.8946 0.228
29.9248 0.202
29.9551 -0.450
29.9854 -0.112
30.0157 -0.294
30.0460 0.305
30.0762 0.019
30.1065 0.619
30.1368 0.073
30.1671 0.621
30.1973 -0.237
30.2276 0.884
30.2579 -0.234
30.2882 1.408
30.3185 0.707
30.3487 1.413
30.3790 1.233
30.4093 0.429
30.4396 0.666
30.4699 1.164
30.5001 1.298
30.5304 0.286
30.5607 1.514
30.5910 1.283
30.6212 1.887
30.6515 1.709
30.6818 1.688
30.7121 1.719
30.7424 1.906
30.7726 3.500
30.8029 3.428
30.8332 2.783
30.8635 2.606
30.8938 3.420
30.9240 2.827
30.9543 3.902
30.9846 4.300
31.0149 4.697
31.0451 4.835
31.0754 6.639
31.1057 6.048
31.1360 7.176
31.1663 7.575
31.1965 8.703
31.2268 11.394
31.2571 10.440
31.2874 14.017
31.3177 13.844
31.3479 17.681
31.3782 18.446
31.4085 20.618
31.4388 22.321
31.4690 26.941
31.4993 28.853
31.5296 29.514
31.5599 35.020
31.5902 32.089
31.6204 33.637
31.6507 37.425
31.6810 34.494
31.7113 32.137
31.7416 29.675
31.7718 27.162
31.8021 26.576
31.8324 21.667
31.8627 18.321
31.8929 18.465
31.9232 14.754
31.9535 13.961
31.9838 12.178
32.0141 9.146
32.0443 7.728
32.0746 8.707
32.1049 8.331
32.1352 4.518
32.1655 5.029
32.1957 5.070
32.2260 4.123
32.2563 3.592
32.2866 4.468
32.3169 3.521
32.3471 1.168
32.3774 2.409
32.4077 3.390
32.4380 2.027
32.4682 1.862
32.4985 0.865
32.5288 2.107
32.5591 1.162
32.5894 -0.148
32.6196 -0.312
32.6499 0.984
32.6802 -0.273
32.7105 1.387
32.7408 -0.547
32.7710 0.437
32.8013 -0.194
32.8316 0.061
32.8619 0.368
32.8921 0.935
32.9224 -0.320
32.9527 -0.012
32.9830 -0.069
33.0133 -0.073
33.0435 -0.598
33.0738 0.127
33.1041 0.695
33.1344 0.223
33.1647 0.063
33.1949 -0.201
33.2252 0.004
33.2555 0.001
33.2858 0.207
33.3160 0.412
33.3463 0.723
33.3766 0.252
33.4069 0.406
33.4372 -0.273
33.4674 0.194
33.4977 1.027
33.5280 0.088
33.5583 0.139
33.5886 0.659
33.6188 1.076
33.6491 0.346
33.6794 2.274
33.7097 0.920
33.7399 1.806
33.7702 3.421
33.8005 2.901
33.8308 3.371
33.8611 2.487
33.8913 2.280
33.9216 5.355
33.9519 5.982
33.9822 6.140
34.0125 9.528
34.0427 8.698
34.0730 11.617
34.1033 15.214
34.1336 17.092
34.1638 21.106
34.1941 29.235
34.2244 32.260
34.2547 42.004
34.2850 45.810
34.3152 44.982
34.3455 42.174
34.3758 35.981
34.4061 29.164
34.4364 23.544
34.4666 18.550
34.4969 15.535
34.5272 10.906
34.5575 11.016
34.5877 7.638
34.6180 8.426
34.6483 5.360
34.6786 5.419
34.7089 4.333
34.7391 4.966
34.7694 4.244
34.7997 3.784
34.8300 4.001
34.8603 2.551
34.8905 3.497
34.9208 4.027
34.9511 3.359
34.9814 2.431
35.0116 3.587
35.0419 2.555
35.0722 2.409
35.1025 3.773
35.1328 3.732
35.1630 4.472
35.1933 3.650
35.2236 4.494
35.2539 4.297
35.2842 4.934
35.3144 4.842
35.3447 6.625
35.3750 5.543
35.4053 5.556
35.4356 5.568
35.4658 7.144
35.4961 6.949
35.5264 7.170
35.5567 8.174
35.5869 9.177
35.6172 10.858
35.6475 10.976
35.6778 13.595
35.7081 12.464
35.7383 13.260
35.7686 17.754
35.7989 20.322
35.8292 22.421
35.8595 26.135
35.8897 25.213
35.9200 32.729
35.9503 35.298
35.9806 42.450
36.0108 43.717
36.0411 44.776
36.0714 49.793
36.1017 49.394
36.1320 54.204
36.1622 47.555
36.1925 51.167
36.2228 43.477
36.2531 41.465
36.2834 40.129
36.3136 35.565
36.3439 32.147
36.3742 26.593
36.4045 25.051
36.4347 23.092
36.4650 21.289
36.4953 16.830
36.5256 14.820
36.5559 13.747
36.5861 12.518
36.6164 11.081
36.6467 9.488
36.6770 9.249
36.7073 6.563
36.7375 6.533
36.7678 5.357
36.7981 3.557
36.8284 4.361
36.8586 5.634
36.8889 3.991
36.9192 4.014
36.9495 3.830
36.9798 2.031
37.0100 3.409
37.0403 1.767
37.0706 1.635
37.1009 2.233
37.1312 1.685
37.1614 1.918
37.1917 1.215
37.2220 1.397
37.2523 1.735
37.2825 0.459
37.3128 2.048
37.3431 0.616
37.3734 0.591
37.4037 0.514
37.4339 -0.345
37.4642 0.360
37.4945 0.961
37.5248 0.780
37.5551 0.496
37.5853 0.159
37.6156 0.813
37.6459 0.946
37.6762 0.819
37.7064 -0.715
37.7367 0.200
37.7670 0.386
37.7973 1.353
37.8276 0.550
37.8578 0.059
37.8881 0.142
37.9184 0.694
37.9487 1.193
37.9790 0.391
38.0092 0.162
38.0395 0.558
38.0698 0.538
38.1001 -0.367
38.1304 0.290
38.1606 0.010
38.1909 -0.062
38.2212 -0.289
38.2515 -0.100
38.2817 0.402
38.3120 -0.189
38.3423 -0.572
38.3726 0.229
38.4029 0.561
38.4331 0.164
38.4634 -0.025
38.4937 -0.005
38.5240 0.380
38.5543 0.193
38.5845 0.578
38.6148 -0.234
38.6451 -0.161
38.6754 0.173
38.7056 1.028
38.7359 0.008
38.7662 0.239
38.7965 0.157
38.8268 0.023
38.8570 0.775
38.8873 0.277
38.9176 0.353
38.9479 -0.145
38.9782 -0.329
39.0084 0.093
39.0387 0.359
39.0690 -0.104
39.0993 0.059
39.1295 0.065
39.1598 0.593
39.1901 -0.807
39.2204 -0.123
39.2507 0.145
39.2809 -0.004
39.3112 0.473
39.3415 -0.092
39.3718 0.072
39.4021 0.602
39.4323 -0.171
39.4626 0.202
39.4929 0.316
39.5232 0.064
39.5534 -0.291
39.5837 -0.177
39.6140 0.562
39.6443 0.312
39.6746 0.218
39.7048 0.698
39.7351 0.240
39.7654 -0.010
39.7957 -0.103
39.8260 -0.404
39.8562 0.650
39.8865 0.557
39.9168 0.049
39.9471 0.165
39.9773 0.126
40.0076 0.868
40.0379 0.099
40.0682 0.321
40.0985 -0.030
40.1287 0.817
40.1590 -0.055
40.1893 0.116
40.2196 0.078
40.2499 -0.064
40.2801 -0.205
40.3104 -0.295
40.3407 0.226
40.3710 -0.086
40.4012 -0.137
40.4315 0.384
40.4618 0.073
40.4921 0.022
40.5224 0.075
40.5526 -0.600
40.5829 0.235
40.6132 -0.492
40.6435 0.187
40.6738 0.242
40.7040 -0.172
40.7343 -0.169
40.7646 0.198
40.7949 0.462
40.8251 -0.003
40.8554 -0.051
40.8857 0.005
40.9160 0.895
40.9463 0.534
40.9765 0.487
41.0068 0.492
41.0371 0.289
41.0674 -0.123
41.0977 0.300
41.1279 0.357
41.1582 0.311
41.1885 -0.412
41.2188 -0.145
41.2491 0.435
41.2793 -0.183
41.3096 -0.280
41.3399 0.352
41.3702 -0.213
41.4004 0.211
41.4307 0.011
41.4610 0.123
41.4913 -0.442
41.5216 -0.070
41.5518 0.145
41.5821 -0.160
41.6124 0.317
41.6427 -0.144
41.6730 0.489
41.7032 0.080
41.7335 0.401
41.7638 0.254
41.7941 -0.519
41.8243 0.584
41.8546 0.489
41.8849 0.238
41.9152 -0.116
41.9455 0.310
41.9757 0.268
42.0060 -0.242
42.0363 0.446
42.0666 -0.012
42.0969 0.520
42.1271 0.479
42.1574 0.178
42.1877 0.033
42.2180 0.045
42.2482 0.318
42.2785 0.487
42.3088 0.395
42.3391 0.564
42.3694 0.213
42.3996 0.643
42.4299 0.552
42.4602 -0.059
42.4905 0.736
42.5208 0.437
42.5510 0.243
42.5813 0.310
42.6116 0.377
42.6419 1.642
42.6721 0.355
42.7024 -0.098
42.7327 -0.239
42.7630 0.061
42.7933 0.049
42.8235 0.714
42.8538 -0.131
42.8841 0.534
42.9144 0.419
42.9447 0.668
42.9749 0.761
43.0052 0.282
43.0355 0.063
43.0658 0.938
43.0960 0.512
43.1263 0.293
43.1566 0.075
43.1869 0.483
43.2172 0.213
43.2474 0.152
43.2777 0.404
43.3080 0.760
43.3383 0.387
43.3686 1.004
43.3988 0.371
43.4291 0.519
43.4594 -0.217
43.4897 0.036
43.5199 1.071
43.5502 0.074
43.5805 0.328
43.6108 0.270
43.6411 0.212
43.6713 -0.159
43.7016 -0.113
43.7319 0.351
43.7622 0.189
43.7925 -0.441
43.8227 0.179
43.8530 0.331
43.8833 0.275
43.9136 0.270
43.9439 0.267
43.9741 0.627
44.0044 0.832
44.0347 0.048
44.0650 -0.059
44.0952 -0.271
44.1255 -0.228
44.1558 0.336
44.1861 -0.246
44.2164 0.110
44.2466 0.362
44.2769 0.354
44.3072 -0.331
44.3375 0.963
44.3678 -0.086
44.3980 0.167
44.4283 0.629
44.4586 0.570
44.4889 0.250
44.5191 0.765
44.5494 0.238
44.5797 0.596
44.6100 0.122
44.6403 0.377
44.6705 -0.098
44.7008 0.574
44.7311 0.101
44.7614 0.252
44.7917 0.248
44.8219 -0.017
44.8522 -0.073
44.8825 -0.285
44.9128 0.019
44.9430 0.532
44.9733 -0.361
45.0036 0.622
45.0339 -0.323
45.0642 -0.382
45.0944 1.018
45.1247 -0.343
45.1550 -0.036
45.1853 0.218
45.2156 -0.100
45.2458 -0.106
45.2761 -0.111
45.3064 -0.064
45.3367 0.348
45.3669 -0.542
45.3972 -0.286
45.4275 0.074
45.4578 -0.295
45.4881 -0.256
45.5183 -0.113
45.5486 0.551
45.5789 -0.087
45.6092 -0.047
45.6395 -0.112
45.6697 0.605
45.7000 0.228
45.7303 -0.044
45.7606 -0.212
45.7908 -0.275
45.8211 0.026
45.8514 0.016
45.8817 0.005
45.9120 0.463
45.9422 0.036
45.9725 0.235
46.0028 0.121
46.0331 0.476
46.0634 0.154
46.0936 0.041
46.1239 0.605
46.1542 -0.081
46.1845 -0.142
46.2147 0.527
46.2450 0.519
46.2753 0.407
46.3056 0.400
46.3359 0.236
46.3661 -0.240
46.3964 0.170
46.4267 0.580
46.4570 0.782
46.4873 0.359
46.5175 0.665
46.5478 0.920
46.5781 0.393
46.6084 0.648
46.6386 0.851
46.6689 0.951
46.6992 0.842
46.7295 0.212
46.7598 1.562
46.7900 1.506
46.8203 0.981
46.8506 1.238
46.8809 2.120
46.9112 0.554
46.9414 1.801
46.9717 2.528
47.0020 2.733
47.0323 2.991
47.0626 3.562
47.0928 3.039
47.1231 3.871
47.1534 5.640
47.1837 5.952
47.2139 5.794
47.2442 7.044
47.2745 8.606
47.3048 8.605
47.3351 9.647
47.3653 7.980
47.3956 10.012
47.4259 11.210
47.4562 9.700
47.4865 10.899
47.5167 8.713
47.5470 7.673
47.5773 7.206
47.6076 6.791
47.6378 6.272
47.6681 6.482
47.6984 5.652
47.7287 4.456
47.7590 3.574
47.7892 3.837
47.8195 3.633
47.8498 3.011
47.8801 2.494
47.9104 2.029
47.9406 1.356
47.9709 1.673
48.0012 1.105
48.0315 0.954
48.0617 1.532
48.0920 0.808
48.1223 0.657
48.1526 0.976
48.1829 0.565
48.2131 0.467
48.2434 0.890
48.2737 0.584
48.3040 0.695
48.3343 0.598
48.3645 -0.176
48.3948 -0.012
48.4251 -0.317
48.4554 -0.154
48.4856 -0.616
48.5159 0.328
48.5462 -0.134
48.5765 0.134
48.6068 -0.171
48.6370 0.045
48.6673 -0.207
48.6976 -0.199
48.7279 -0.035
48.7582 0.755
48.7884 0.295
48.8187 0.044
48.8490 0.001
48.8793 0.844
48.9095 0.072
48.9398 -0.595
48.9701 0.040
49.0004 -0.574
49.0307 0.165
49.0609 0.489
49.0912 -0.125
49.1215 0.094
49.1518 -0.103
49.1821 -0.299
49.2123 0.019
49.2426 -0.287
49.2729 0.240
49.3032 -0.119
49.3334 -0.320
49.3637 0.260
49.3940 0.058
49.4243 0.170
49.4546 0.281
49.4848 0.237
49.5151 0.141
49.5454 -0.111
49.5757 -0.520
49.6060 0.164
49.6362 -0.350
49.6665 0.438
49.6968 -0.389
49.7271 0.921
49.7574 -0.113
49.7876 0.259
49.8179 -0.150
49.8482 -0.246
49.8785 0.700
49.9087 0.396
49.9390 -0.376
49.9693 0.623
49.9996 -0.097
50.0299 0.173
50.0601 0.026
50.0904 -0.277
50.1207 0.254
50.1510 -0.100
50.1813 0.484
50.2115 -0.078
50.2418 0.037
50.2721 -0.004
50.3024 -0.201
50.3326 0.071
50.3629 -0.386
50.3932 0.512
50.4235 0.003
50.4538 0.537
50.4840 0.081
50.5143 -0.427
50.5446 0.472
50.5749 -0.036
50.6052 0.030
50.6354 0.148
50.6657 0.995
50.6960 0.228
50.7263 0.712
50.7565 0.258
50.7868 -0.196
50.8171 -0.285
50.8474 0.229
50.8777 0.171
50.9079 0.791
50.9382 0.056
50.9685 0.415
50.9988 1.139
51.0291 0.457
51.0593 0.661
51.0896 0.187
51.1199 0.027
51.1502 0.075
51.1804 0.123
51.2107 -0.245
51.2410 0.428
51.2713 0.165
51.3016 0.214
51.3318 0.003
51.3621 0.104
51.3924 -0.054
51.4227 0.413
51.4530 0.775
51.4832 0.305
51.5135 0.564
51.5438 0.354
51.5741 0.405
51.6043 0.457
51.6346 0.717
51.6649 0.456
51.6952 0.508
51.7255 0.404
51.7557 0.248
51.7860 -0.377
51.8163 0.197
51.8466 0.302
51.8769 -0.218
51.9071 0.669
51.9374 0.358
51.9677 0.516
51.9980 -0.054
52.0282 -0.260
52.0585 0.046
52.0888 0.405
52.1191 0.243
52.1494 0.550
52.1796 0.337
52.2099 0.488
52.2402 0.275
52.2705 -0.250
52.3008 1.100
52.3310 0.471
52.3613 0.363
52.3916 0.515
52.4219 -0.113
52.4521 0.300
52.4824 0.558
52.5127 -0.018
52.5430 1.073
52.5733 -0.127
52.6035 -0.233
52.6338 0.130
52.6641 0.805
52.6944 0.283
52.7247 0.230
52.7549 0.072
52.7852 0.540
52.8155 -0.502
52.8458 0.592
52.8761 -0.294
52.9063 0.019
52.9366 0.592
52.9669 0.176
52.9972 -0.344
53.0274 0.646
53.0577 0.075
53.0880 -0.080
53.1183 0.234
53.1486 -0.129
53.1788 0.551
53.2091 0.032
53.2394 0.816
53.2697 0.246
53.3000 0.665
53.3302 -0.321
53.3605 -0.266
53.3908 0.036
53.4211 -0.027
53.4513 0.379
53.4816 0.317
53.5119 0.151
53.5422 -0.067
53.5725 0.131
53.6027 0.226
53.6330 -0.408
53.6633 0.208
53.6936 0.147
53.7239 0.086
53.7541 -0.234
53.7844 0.018
53.8147 0.062
53.8450 0.055
53.8752 0.464
53.9055 -0.273
53.9358 0.085
53.9661 0.599
53.9964 0.176
54.0266 0.482
54.0569 -0.149
54.0872 0.001
54.1175 0.256
54.1478 0.407
54.1780 -0.015
54.2083 0.136
54.2386 -0.285
54.2689 -0.249
54.2991 0.518
54.3294 0.399
54.3597 0.488
54.3900 0.109
54.4203 -0.166
54.4505 -0.128
54.4808 0.015
54.5111 1.043
54.5414 0.457
54.5717 0.287
54.6019 -0.246
54.6322 -0.155
54.6625 0.197
54.6928 -0.284
54.7230 0.798
54.7533 -0.152
54.7836 0.722
54.8139 0.503
54.8442 0.231
54.8744 0.012
54.9047 0.522
54.9350 -0.270
54.9653 0.136
54.9956 0.439
55.0258 0.116
55.0561 0.576
55.0864 0.045
55.1167 -0.329
55.1469 0.079
55.1772 0.435
55.2075 -0.042
55.2378 0.731
55.2681 -0.215
55.2983 0.715
55.3286 0.915
55.3589 -0.134
55.3892 0.432
55.4195 0.217
55.4497 0.418
55.4800 1.141
55.5103 0.718
55.5406 0.920
55.5709 0.601
55.6011 0.752
55.6314 0.955
55.6617 1.054
55.6920 1.309
55.7222 1.408
55.7525 1.664
55.7828 2.389
55.8131 0.874
55.8434 1.652
55.8736 1.075
55.9039 2.009
55.9342 2.683
55.9645 3.149
55.9948 4.292
56.0250 3.039
56.0553 4.078
56.0856 3.607
56.1159 5.116
56.1461 5.739
56.1764 5.790
56.2067 5.632
56.2370 6.829
56.2673 8.807
56.2975 9.536
56.3278 8.650
56.3581 12.399
56.3884 10.785
56.4187 13.650
56.4489 12.921
56.4792 13.286
56.5095 12.402
56.5398 12.455
56.5700 12.665
56.6003 10.843
56.6306 9.595
56.6609 8.451
56.6912 9.443
56.7214 6.789
56.7517 5.542
56.7820 5.857
56.8123 4.558
56.8426 5.447
56.8728 5.450
56.9031 3.318
56.9334 3.947
56.9637 3.327
56.9939 2.914
57.0242 3.335
57.0545 2.351
57.0848 2.512
57.1151 1.215
57.1453 2.366
57.1756 1.383
57.2059 1.284
57.2362 1.655
57.2665 1.297
57.2967 0.939
57.3270 0.894
57.3573 1.265
57.3876 1.012
57.4178 1.071
57.4481 1.131
57.4784 0.618
57.5087 0.418
57.5390 0.687
57.5692 0.174
57.5995 0.964
57.6298 0.713
57.6601 -0.111
57.6904 1.044
57.7206 0.741
57.7509 0.543
57.7812 0.657
57.8115 0.094
57.8417 0.209
57.8720 0.272
57.9023 0.231
57.9326 0.607
57.9629 0.566
57.9931 -0.100
58.0234 1.214
58.0537 0.497
58.0840 0.249
58.1143 -0.416
58.1445 0.483
58.1748 -0.182
58.2051 -0.116
58.2354 -0.311
58.2656 0.169
58.2959 0.078
58.3262 0.350
58.3565 0.832
58.3868 0.272
58.4170 -0.132
58.4473 -0.118
58.4776 0.260
58.5079 0.169
58.5382 -0.285
58.5684 -0.285
58.5987 0.338
58.6290 0.077
58.6593 0.076
58.6896 0.284
58.7198 0.648
58.7501 0.492
58.7804 -0.133
58.8107 -0.237
58.8409 -0.080
58.8712 0.545
58.9015 0.182
58.9318 0.547
58.9621 -0.285
58.9923 -0.023
59.0226 0.292
59.0529 -0.227
59.0832 0.296
59.1135 -0.275
59.1437 0.041
59.1740 -0.061
59.2043 -0.058
59.2346 -0.002
59.2648 0.158
59.2951 0.109
59.3254 0.582
59.3557 0.430
59.3860 -0.139
59.4162 0.179
59.4465 -0.337
59.4768 -0.127
59.5071 -0.074
59.5374 0.241
59.5676 0.191
59.5979 0.246
59.6282 0.196
59.6585 -0.009
59.6887 0.150
59.7190 0.362
59.7493 0.574
59.7796 -0.621
59.8099 -0.200
59.8401 -0.196
59.8704 0.017
59.9007 1.168
59.9310 0.183
59.9613 -0.125
59.9915 -0.276
60.0218 -0.804
60.0521 0.438
60.0824 -0.246
60.1126 0.268
60.1429 0.313
60.1732 0.306
60.2035 0.925
60.2338 0.345
60.2640 -0.598
60.2943 0.646
60.3246 -0.141
60.3549 0.062
60.3852 -0.203
60.4154 0.313
60.4457 0.568
60.4760 -0.113
60.5063 0.195
60.5365 -0.017
60.5668 0.031
60.5971 0.652
60.6274 0.128
60.6577 0.698
60.6879 0.122
60.7182 0.067
60.7485 0.898
60.7788 0.427
60.8091 0.373
60.8393 0.215
60.8696 0.734
60.8999 -0.101
60.9302 0.367
60.9604 -0.051
60.9907 0.521
61.0210 0.156
61.0513 0.416
61.0816 0.364
61.1118 0.208
61.1421 0.208
61.1724 -0.208
61.2027 -0.311
61.2330 0.252
61.2632 -0.071
61.2935 0.597
61.3238 0.535
61.3541 0.734
61.3844 0.309
61.4146 0.091
61.4449 -0.178
61.4752 0.908
61.5055 -0.090
61.5357 0.058
61.5660 0.988
61.5963 -0.321
61.6266 0.453
61.6569 0.498
61.6871 1.585
61.7174 0.537
61.7477 1.259
61.7780 0.836
61.8083 0.362
61.8385 0.825
61.8688 0.559
61.8991 0.241
61.9294 0.757
61.9596 0.908
61.9899 1.008
62.0202 1.108
62.0505 1.781
62.0808 1.256
62.1110 1.825
62.1413 2.290
62.1716 1.766
62.2019 1.919
62.2322 1.656
62.2624 2.799
62.2927 2.849
62.3230 2.742
62.3533 3.782
62.3835 3.051
62.4138 4.508
62.4441 5.340
62.4744 6.016
62.5047 5.390
62.5349 7.056
62.5652 7.785
62.5955 9.712
62.6258 8.878
62.6561 11.014
62.6863 10.077
62.7166 10.702
62.7469 10.599
62.7772 10.184
62.8074 9.872
62.8377 10.447
62.8680 9.199
62.8983 9.305
62.9286 8.317
62.9588 7.903
62.9891 7.124
63.0194 5.461
63.0497 6.297
63.0800 5.206
63.1102 5.002
63.1405 3.599
63.1708 3.707
63.2011 2.357
63.2313 2.570
63.2616 2.679
63.2919 2.110
63.3222 1.230
63.3525 1.704
63.3827 1.866
63.4130 0.726
63.4433 1.877
63.4736 0.738
63.5039 1.473
63.5341 1.011
63.5644 1.226
63.5947 1.650
63.6250 0.980
63.6552 1.404
63.6855 0.214
63.7158 0.534
63.7461 0.386
63.7764 0.446
63.8066 0.455
63.8369 1.349
63.8672 0.316
63.8975 0.430
63.9278 0.127
63.9580 0.813
63.9883 0.615
64.0186 0.260
64.0489 0.583
64.0791 0.437
64.1094 0.396
64.1397 0.667
64.1700 0.001
64.2003 1.054
64.2305 -0.080
64.2608 0.036
64.2911 0.361
64.3214 0.998
64.3517 0.646
64.3819 0.398
64.4122 0.359
64.4425 0.632
64.4728 0.750
64.5031 0.399
64.5333 -0.004
64.5636 0.375
64.5939 0.858
64.6242 -0.065
64.6544 -0.415
64.6847 0.087
64.7150 0.276
64.7453 0.571
64.7756 0.657
64.8058 -0.143
64.8361 0.413
64.8664 0.187
64.8967 0.378
64.9270 0.361
64.9572 0.604
64.9875 -0.037
65.0178 0.363
65.0481 0.086
65.0783 0.123
65.1086 0.263
65.1389 0.404
65.1692 0.180
65.1995 0.061
65.2297 0.515
65.2600 0.969
65.2903 0.538
65.3206 0.055
65.3509 0.093
65.3811 0.183
65.4114 0.274
65.4417 0.625
65.4720 -0.065
65.5022 0.078
65.5325 0.118
65.5628 -0.468
65.5931 -0.065
65.6234 0.286
65.6536 0.221
65.6839 0.416
65.7142 -0.170
65.7445 0.546
65.7748 0.534
65.8050 0.782
65.8353 0.718
65.8656 0.289
65.8959 0.903
65.9261 0.683
65.9564 -0.214
65.9867 0.244
66.0170 1.223
66.0473 0.691
66.0775 0.577
66.1078 0.515
66.1381 0.505
66.1684 1.172
66.1987 0.954
66.2289 1.414
66.2592 1.874
66.2895 1.240
66.3198 1.335
66.3500 1.119
66.3803 1.892
66.4106 0.373
66.4409 0.887
66.4712 1.348
66.5014 0.299
66.5317 0.552
66.5620 0.493
66.5923 1.372
66.6226 0.376
66.6528 0.422
66.6831 0.572
66.7134 0.306
66.7437 -0.116
66.7739 1.285
66.8042 0.915
66.8345 0.754
66.8648 0.541
66.8951 0.693
66.9253 0.533
66.9556 0.372
66.9859 0.733
67.0162 0.730
67.0465 1.299
67.0767 1.036
67.1070 1.606
67.1373 1.447
67.1676 1.444
67.1978 1.703
67.2281 1.648
67.2584 2.011
67.2887 1.697
67.3190 2.529
67.3492 1.747
67.3795 1.850
67.4098 1.797
67.4401 2.943
67.4704 3.776
67.5006 2.369
67.5309 3.047
67.5612 4.453
67.5915 4.454
67.6218 5.549
67.6520 5.602
67.6823 5.863
67.7126 5.917
67.7429 7.742
67.7731 6.702
67.8034 8.058
67.8337 7.175
67.8640 7.021
67.8943 7.545
67.9245 6.663
67.9548 7.603
67.9851 6.409
68.0154 5.579
68.0457 5.271
68.0759 4.077
68.1062 4.967
68.1365 4.398
68.1668 4.559
68.1970 3.575
68.2273 4.257
68.2576 3.533
68.2879 3.851
68.3182 3.024
68.3484 2.561
68.3787 2.880
68.4090 2.835
68.4393 3.154
68.4696 2.692
68.4998 2.543
68.5301 2.655
68.5604 2.662
68.5907 1.576
68.6209 2.053
68.6512 2.895
68.6815 2.226
68.7118 4.318
68.7421 2.504
68.7723 2.253
68.8026 2.314
68.8329 3.105
68.8632 2.334
68.8935 2.917
68.9237 3.135
68.9540 2.885
68.9843 3.938
69.0146 2.803
69.0448 3.335
69.0751 3.346
69.1054 3.462
69.1357 2.849
69.1660 3.746
69.1962 2.248
69.2265 2.625
69.2568 1.544
69.2871 1.505
69.3174 2.247
69.3476 1.792
69.3779 1.701
69.4082 0.881
69.4385 1.104
69.4687 1.378
69.4990 0.976
69.5293 0.939
69.5596 0.589
69.5899 1.333
69.6201 1.036
69.6504 0.478
69.6807 0.234
69.7110 -0.167
69.7413 0.578
69.7715 0.334
69.8018 0.768
69.8321 0.628
69.8624 -0.188
69.8926 0.142
69.9229 0.055
69.9532 0.281
69.9835 -0.118
70.0138 0.473
70.0440 0.075
70.0743 0.146
70.1046 -0.148
70.1349 -0.285
70.1652 0.199
70.1954 0.580
70.2257 -0.029
70.2560 0.456
70.2863 0.577
70.3166 -0.239
70.3468 0.142
70.3771 -0.153
70.4074 0.386
70.4377 -0.065
70.4679 0.057
70.4982 0.075
70.5285 0.198
70.5588 0.321
70.5891 0.287
70.6193 0.046
70.6496 0.534
70.6799 0.085
70.7102 0.417
70.7405 -0.084
70.7707 -0.480
70.8010 0.165
70.8313 0.082
70.8616 0.467
70.8918 0.540
70.9221 0.249
70.9524 0.583
70.9827 0.292
71.0130 -0.311
71.0432 -0.269
71.0735 0.555
71.1038 0.702
71.1341 0.015
71.1644 0.058
71.1946 0.622
71.2249 0.405
71.2552 0.449
71.2855 0.128
71.3157 0.433
71.3460 0.686
71.3763 0.001
71.4066 0.410
71.4369 -0.013
71.4671 0.292
71.4974 0.442
71.5277 0.123
71.5580 0.794
71.5883 0.163
71.6185 -0.051
71.6488 0.464
71.6791 0.094
71.7094 0.089
71.7396 0.397
71.7699 0.079
71.8002 -0.185
71.8305 0.227
71.8608 0.119
71.8910 0.427
71.9213 0.216
71.9516 0.160
71.9819 0.209
72.0122 0.206
72.0424 0.464
72.0727 0.201
72.1030 0.459
72.1333 0.457
72.1635 0.091
72.1938 0.610
72.2241 0.192
72.2544 0.659
72.2847 0.658
72.3149 0.501
72.3452 0.866
72.3755 1.074
72.4058 0.344
72.4361 0.865
72.4663 0.657
72.4966 0.398
72.5269 1.388
72.5572 0.920
72.5874 0.401
72.6177 0.298
72.6480 0.664
72.6783 0.458
72.7086 0.147
72.7388 0.723
72.7691 0.621
72.7994 -0.105
72.8297 -0.155
72.8600 -0.099
72.8902 0.165
72.9205 0.220
72.9508 -0.036
72.9811 -0.032
73.0113 0.128
73.0416 0.445
73.0719 0.086
73.1022 -0.430
73.1325 0.617
73.1627 -0.003
73.1930 -0.310
73.2233 0.373
73.2536 0.015
73.2839 0.229
73.3141 0.131
73.3444 0.294
73.3747 0.458
73.4050 -0.212
73.4353 0.108
73.4655 0.376
73.4958 0.488
73.5261 0.027
73.5564 0.243
73.5866 0.408
73.6169 0.417
73.6472 0.270
73.6775 0.070
73.7078 -0.337
73.7380 -0.029
73.7683 0.383
73.7986 0.275
73.8289 0.063
73.8592 0.059
73.8894 0.056
73.9197 0.157
73.9500 0.362
73.9803 -0.161
74.0105 0.774
74.0408 0.407
74.0711 0.353
74.1014 0.091
74.1317 -0.171
74.1619 0.452
74.1922 0.086
74.2225 -0.227
74.2528 -0.125
74.2831 -0.023
74.3133 0.496
74.3436 0.234
74.3739 0.233
74.4042 0.075
74.4344 0.127
74.4647 0.282
74.4950 -0.031
74.5253 0.490
74.5556 -0.031
74.5858 0.698
74.6161 -0.187
74.6464 0.439
74.6767 0.179
74.7070 0.128
74.7372 -0.027
74.7675 -0.025
74.7978 -0.180
74.8281 0.083
74.8583 0.345
74.8886 0.348
74.9189 0.663
74.9492 0.041
74.9795 0.356
75.0097 -0.161
75.0400 0.467
75.0703 -0.258
75.1006 -0.046
75.1309 0.166
75.1611 0.327
75.1914 -0.346
75.2217 0.024
75.2520 0.029
75.2822 -0.018
75.3125 -0.221
75.3428 -0.014
75.3731 0.453
75.4034 0.035
75.4336 0.242
75.4639 -0.019
75.4942 0.084
75.5245 -0.437
75.5548 -0.021
75.5850 0.032
75.6153 0.032
75.6456 -0.228
75.6759 0.189
75.7061 0.294
75.7364 0.035
75.7667 -0.068
75.7970 -0.014
75.8273 -0.221
75.8575 -0.127
75.8878 0.071
75.9181 -0.043
75.9484 0.416
75.9787 -0.011
76.0089 0.553
76.0392 0.023
76.0695 0.222
76.0998 0.578
76.1301 0.465
76.1603 0.405
76.1906 0.137
76.2209 0.077
76.2512 0.121
76.2814 0.062
76.3117 -0.102
76.3420 -0.057
76.3723 0.093
76.4026 0.607
76.4328 0.549
76.4631 0.543
76.4934 0.485
76.5237 0.219
76.5540 0.317
76.5842 0.364
76.6145 0.568
76.6448 0.823
76.6751 0.350
76.7053 0.294
76.7356 0.550
76.7659 0.806
76.7962 0.386
76.8265 0.799
76.8567 1.004
76.8870 1.001
76.9173 0.686
76.9476 1.517
76.9779 0.317
77.0081 0.939
77.0384 0.833
77.0687 0.259
77.0990 0.205
77.1292 0.516
77.1595 0.255
77.1898 0.202
77.2201 0.253
77.2504 1.243
77.2806 0.201
77.3109 0.253
77.3412 0.670
77.3715 0.358
77.4018 -0.058
77.4320 -0.005
77.4623 0.777
77.4926 -0.107
77.5229 0.259
77.5531 0.209
77.5834 0.315
77.6137 -0.047
77.6440 0.164
77.6743 0.375
77.7045 -0.091
77.7348 -0.244
77.7651 0.019
77.7954 -0.186
77.8257 -0.131
77.8559 -0.231
77.8862 0.033
77.9165 -0.119
77.9468 0.302
77.9770 0.254
78.0073 0.051
78.0376 -0.205
78.0679 0.581
78.0982 -0.246
78.1284 0.228
78.1587 -0.079
78.1890 0.240
78.2193 0.350
78.2496 -0.164
78.2798 -0.366
78.3101 0.266
78.3404 0.221
78.3707 0.124
78.4009 -0.233
78.4312 -0.075
78.4615 0.499
78.4918 -0.072
78.5221 0.503
78.5523 0.089
78.5826 -0.377
78.6129 0.094
78.6432 -0.111
78.6735 0.205
78.7037 0.000
78.7340 -0.049
78.7643 -0.149
78.7946 -0.197
78.8248 0.432
78.8551 0.176
78.8854 0.129
78.9157 0.134
78.9460 0.139
78.9762 0.457
79.0065 -0.006
79.0368 0.000
79.0671 0.475
79.0974 0.116
79.1276 0.175
79.1579 0.182
79.1882 0.032
79.2185 -0.221
79.2488 -0.006
79.2790 0.364
79.3093 0.215
79.3396 0.065
79.3699 -0.084
79.4001 -0.389
79.4304 0.133
79.4607 0.551
79.4910 0.031
79.5213 0.293
79.5515 0.399
79.5818 0.662
79.6121 -0.013
79.6424 0.094
79.6727 0.565
79.7029 0.151
79.7332 -0.054
79.7635 -0.363
79.7938 0.104
79.8240 -0.055
79.8543 0.100
79.8846 0.254
79.9149 0.357
79.9452 0.356
79.9754 0.199
80.0057 -0.218
80.0360 0.510
80.0663 0.145
80.0966 0.198
80.1268 0.354
80.1571 -0.010
80.1874 0.147
80.2177 0.512
80.2479 -0.164
80.2782 -0.215
80.3085 -0.269
80.3388 0.511
80.3691 0.145
80.3993 0.039
80.4296 0.559
80.4599 0.402
80.4902 0.401
80.5205 0.036
80.5507 0.452
80.5810 0.557
80.6113 0.244
80.6416 0.089
80.6718 0.089
80.7021 0.038
80.7324 0.143
80.7627 0.249
80.7930 0.563
80.8232 0.044
80.8535 -0.215
80.8838 -0.011
80.9141 -0.224
80.9444 0.709
80.9746 -0.441
81.0049 0.076
81.0352 0.281
81.0655 0.330
81.0957 0.379
81.1260 0.636
81.1563 0.633
81.1866 0.423
81.2169 0.785
81.2471 0.522
81.2774 0.208
81.3077 0.675
81.3380 0.361
81.3683 0.204
81.3985 0.724
81.4288 0.723
81.4591 0.097
81.4894 0.253
81.5196 0.722
81.5499 0.514
81.5802 0.514
81.6105 0.254
81.6408 0.203
81.6710 0.047
81.7013 0.361
81.7316 0.363
81.7619 -0.052
81.7922 -0.311
81.8224 0.108
81.8527 0.475
81.8830 0.114
81.9133 0.534
81.9436 0.068
81.9738 -0.189
82.0041 0.232
82.0344 0.080
82.0647 0.032
82.0949 0.505
82.1252 0.405
82.1555 -0.006
82.1858 0.103
82.2161 0.212
82.2463 0.218
82.2766 0.120
82.3069 -0.031
82.3372 -0.233
82.3675 0.086
82.3977 0.510
82.4280 0.100
82.4583 0.107
82.4886 0.114
82.5188 0.174
82.5491 0.494
82.5794 0.346
82.6097 0.406
82.6400 0.050
82.6702 -0.202
82.7005 -0.103
82.7308 0.308
82.7611 0.563
82.7914 0.454
82.8216 0.658
82.8519 0.028
82.8822 0.284
82.9125 -0.033
82.9427 -0.089
82.9730 0.324
83.0033 -0.304
83.0336 0.161
83.0639 0.210
83.0941 -0.157
83.1244 -0.055
83.1547 -0.162
83.1850 -0.008
83.2153 0.251
83.2455 0.093
83.2758 0.143
83.3061 0.194
83.3364 0.610
83.3666 0.140
83.3969 -0.121
83.4272 0.139
83.4575 0.451
83.4878 -0.174
83.5180 0.035
83.5483 0.087
83.5786 -0.224
83.6089 0.245
83.6392 0.611
83.6694 0.248
83.6997 0.093
83.7300 0.251
83.7603 0.149
83.7905 0.203
83.8208 -0.107
83.8511 -0.208
83.8814 -0.108
83.9117 0.200
83.9419 -0.116
83.9722 0.453
84.0025 -0.227
84.0328 0.082
84.0631 -0.129
84.0933 -0.027
84.1236 -0.082
84.1539 0.072
84.1842 0.122
84.2144 0.120
84.2447 -0.142
84.2750 0.065
84.3053 0.481
84.3356 0.115
84.3658 0.271
84.3961 0.166
84.4264 0.114
84.4567 -0.355
84.4870 0.270
84.5172 -0.198
84.5475 0.584
84.5778 0.429
84.6081 0.325
84.6383 -0.194
84.6686 0.120
84.6989 -0.035
84.7292 0.124
84.7595 0.230
84.7897 0.076
84.8200 0.235
84.8503 0.134
84.8806 -0.228
84.9109 0.088
84.9411 0.039
84.9714 -0.061
85.0017 0.307
85.0320 0.259
85.0623 0.211
85.0925 0.164
85.1228 -0.144
85.1531 0.018
85.1834 0.335
85.2136 0.445
85.2439 0.242
85.2742 0.404
85.3045 0.306
85.3348 -0.208
85.3650 -0.202
85.3953 0.207
85.4256 0.668
85.4559 0.036
85.4862 0.238
85.5164 0.179
85.5467 -0.036
85.5770 0.634
85.6073 -0.049
85.6375 -0.107
85.6678 0.148
85.6981 0.142
85.7284 0.033
85.7587 0.236
85.7889 0.023
85.8192 -0.242
85.8495 0.535
85.8798 0.218
85.9101 0.110
85.9403 -0.363
85.9706 -0.002
86.0009 0.047
86.0312 0.096
86.0614 -0.272
86.0917 0.142
86.1220 0.557
86.1523 0.086
86.1826 -0.021
86.2128 0.551
86.2431 0.184
86.2734 -0.025
86.3037 -0.078
86.3340 -0.027
86.3642 0.441
86.3945 0.128
86.4248 0.023
86.4551 -0.081
86.4853 -0.133
86.5156 -0.080
86.5459 0.077
86.5762 0.234
86.6065 0.078
86.6367 0.080
86.6670 0.237
86.6973 0.083
86.7276 -0.071
86.7579 0.504
86.7881 0.246
86.8184 -0.168
86.8487 0.095
86.8790 -0.215
86.9092 -0.110
86.9395 -0.161
86.9698 -0.108
87.0001 -0.002
87.0304 0.000
87.0606 -0.259
87.0909 0.044
87.1212 0.139
87.1515 0.078
87.1818 -0.243
87.2120 0.269
87.2423 0.209
87.2726 -0.424
87.3029 -0.016
87.3331 0.133
87.3634 0.073
87.3937 0.014
87.4240 -0.149
87.4543 0.000
87.4845 -0.006
87.5148 -0.169
87.5451 -0.227
87.5754 -0.182
87.6057 -0.398
87.6359 0.428
87.6662 -0.047
87.6965 -0.262
87.7268 0.148
87.7571 0.246
87.7873 0.032
87.8176 -0.182
87.8479 -0.187
87.8782 -0.036
87.9084 -0.094
87.9387 0.162
87.9690 -0.259
87.9993 -0.003
88.0296 0.201
88.0598 0.145
88.0901 -0.119
88.1204 -0.123
88.1507 0.395
88.1810 0.027
88.2112 0.129
88.2415 -0.239
88.2718 -0.144
88.3021 -0.310
88.3323 0.254
88.3626 -0.172
88.3929 0.028
88.4232 0.123
88.4535 0.167
88.4837 0.263
88.5140 -0.057
88.5443 0.143
88.5746 0.084
88.6049 0.285
88.6351 -0.035
88.6654 -0.250
88.6957 0.056
88.7260 0.675
88.7562 0.513
88.7865 0.090
88.8168 0.137
88.8471 0.183
88.8774 0.387
88.9076 -0.139
88.9379 0.325
88.9682 0.373
88.9985 0.420
89.0288 0.625
89.0590 0.465
89.0893 0.253
89.1196 0.978
89.1499 0.142
89.1801 0.347
89.2104 1.647
89.2407 0.602
89.2710 0.496
89.3013 0.806
89.3315 1.482
89.3618 0.699
89.3921 1.635
89.4224 1.165
89.4527 1.737
89.4829 0.798
89.5132 0.642
89.5435 1.371
89.5738 1.058
89.6040 1.058
89.6343 1.267
89.6646 1.788
89.6949 1.528
89.7252 1.425
89.7554 1.374
89.7857 1.011
89.8160 0.961
89.8463 0.650
89.8766 0.236
89.9068 1.071
89.9371 0.136
89.9674 1.076
89.9977 0.350
90.0279 0.353
90.0582 0.878
90.0885 0.152
90.1188 0.573
90.1491 -0.257
90.1793 0.268
90.2096 0.169
90.2399 0.278
90.2702 0.439
90.3005 0.079
90.3307 0.241
90.3610 0.455
90.3913 -0.477
90.4216 -0.106
90.4518 -0.048
90.4821 -0.250
90.5124 -0.039
90.5427 0.225
90.5730 -0.033
90.6032 0.596
90.6335 0.287
90.6638 -0.126
90.6941 0.399
90.7244 0.247
90.7546 -0.217
90.7849 -0.213
90.8152 0.053
90.8455 -0.150
90.8758 -0.093
90.9060 0.277
90.9363 0.231
90.9666 0.133
90.9969 -0.069
91.0271 0.458
91.0574 -0.160
91.0877 0.680
91.1180 -0.251
91.1483 -0.087
91.1785 -0.131
91.2088 0.658
91.2391 0.249
91.2694 0.465
91.2997 0.057
91.3299 -0.143
91.3602 0.387
91.3905 -0.072
91.4208 0.353
91.4510 -0.106
91.4813 -0.044
91.5116 0.279
91.5419 0.185
91.5722 0.247
91.6024 0.101
91.6327 0.008
91.6630 0.123
91.6933 0.030
91.7236 -0.114
91.7538 -0.415
91.7841 0.149
91.8144 0.036
91.8447 0.445
91.8749 0.124
91.9052 0.689
91.9355 0.681
91.9658 0.570
91.9961 0.302
92.0263 0.347
92.0566 0.705
92.0869 0.073
92.1172 0.223
92.1475 0.269
92.1777 0.107
92.2080 -0.003
92.2383 0.304
92.2686 0.247
92.2988 0.242
92.3291 -0.024
92.3594 0.024
92.3897 0.488
92.4200 0.588
92.4502 0.167
92.4805 0.632
92.5108 0.421
92.5411 0.417
92.5714 0.466
92.6016 0.099
92.6319 0.357
92.6622 0.198
92.6925 0.144
92.7227 -0.223
92.7530 0.557
92.7833 0.138
92.8136 0.554
92.8439 -0.072
92.8741 0.812
92.9044 0.238
92.9347 0.551
92.9650 0.498
92.9953 0.342
93.0255 0.394
93.0558 0.603
93.0861 0.604
93.1164 0.500
93.1466 0.345
93.1769 -0.018
93.2072 -0.017
93.2375 0.402
93.2678 0.612
93.2980 0.666
93.3283 -0.165
93.3586 -0.683
93.3889 0.362
93.4192 -0.052
93.4494 0.160
93.4797 0.215
93.5100 -0.250
93.5403 -0.090
93.5706 0.019
93.6008 -0.081
93.6311 -0.285
93.6614 0.121
93.6917 0.215
93.7219 -0.368
93.7522 0.091
93.7825 -0.127
93.8128 0.280
93.8431 0.375
93.8733 0.106
93.9036 0.618
93.9339 0.245
93.9642 0.184
93.9945 0.176
94.0247 0.168
94.0550 -0.048
94.0853 0.309
94.1156 0.615
94.1458 0.399
94.1761 -0.337
94.2064 0.334
94.2367 -0.141
94.2670 0.269
94.2972 -0.049
94.3275 0.310
94.3578 0.200
94.3881 0.039
94.4184 0.138
94.4486 0.237
94.4789 0.128
94.5092 0.280
94.5395 0.068
94.5697 0.272
94.6000 0.216
94.6303 -0.256
94.6606 0.053
94.6909 0.311
94.7211 0.204
94.7514 0.305
94.7817 0.511
94.8120 0.509
94.8423 0.246
94.8725 0.974
94.9028 0.764
94.9331 0.346
94.9634 0.605
94.9936 0.865
95.0239 0.656
95.0542 0.968
95.0845 0.968
95.1148 0.811
95.1450 1.072
95.1753 0.968
95.2056 1.334
95.2359 0.918
95.2662 1.961
95.2964 0.972
95.3267 1.078
95.3570 0.871
95.3873 1.550
95.4175 0.771
95.4478 0.618
95.4781 1.610
95.5084 1.300
95.5387 0.626
95.5689 0.525
95.5992 0.789
95.6295 1.314
95.6598 1.057
95.6901 0.280
95.7203 1.066
95.7506 0.289
95.7809 0.763
95.8112 0.664
95.8414 0.565
95.8717 0.206
95.9020 0.211
95.9323 0.373
95.9626 0.171
95.9928 0.750
96.0231 0.184
96.0534 0.139
96.0837 0.146
96.1140 0.205
96.1442 0.733
96.1745 0.845
96.2048 0.332
96.2351 0.288
96.2653 0.036
96.2956 -0.112
96.3259 -0.624
96.3562 0.153
96.3865 0.305
96.4167 0.144
96.4470 0.505
96.4773 -0.072
96.5076 0.393
96.5379 0.025
96.5681 0.439
96.5984 -0.085
96.6287 0.173
96.6590 -0.455
96.6893 -0.040
96.7195 -0.042
96.7498 0.633
96.7801 0.059
96.8104 0.161
96.8406 0.160
96.8709 -0.257
96.9012 0.263
96.9315 0.366
96.9618 0.158
96.9920 -0.311
97.0223 -0.106
97.0526 0.255
97.0829 -0.112
97.1132 -0.063
97.1434 0.300
97.1737 -0.119
97.2040 -0.017
97.2343 0.346
97.2645 0.084
97.2948 0.135
97.3251 -0.179
97.3554 -0.232
97.3857 0.132
97.4159 -0.337
97.4462 -0.080
97.4765 0.072
97.5068 0.434
97.5371 -0.142
97.5673 0.167
97.5976 0.113
97.6279 0.006
97.6582 0.004
97.6884 0.054
97.7187 -0.208
97.7490 0.467
97.7793 0.101
97.8096 -0.004
97.8398 -0.421
97.8701 0.203
97.9004 0.151
97.9307 0.411
97.9610 0.619
97.9912 0.255
98.0215 -0.161
98.0518 -0.057
98.0821 0.309
98.1123 0.154
98.1426 -0.105
98.1729 0.365
98.2032 -0.102
98.2335 0.317
98.2637 0.892
98.2940 0.373
98.3243 0.532
98.3546 0.327
98.3849 0.851
98.4151 0.125
98.4454 0.232
98.4757 0.288
98.5060 0.136
98.5362 0.401
98.5665 0.561
98.5968 0.722
98.6271 0.571
98.6574 0.471
98.6876 0.893
98.7179 0.951
98.7482 1.113
98.7785 0.858
98.8088 0.708
98.8390 0.298
98.8693 0.253
98.8996 0.416
98.9299 0.162
98.9601 0.482
98.9904 0.489
99.0207 0.341
99.0510 0.505
99.0813 0.461
99.1115 0.521
99.1418 0.426
99.1721 0.070
99.2024 0.704
99.2327 0.505
99.2629 0.671
99.2932 0.107
99.3235 0.065
99.3538 0.179
99.3841 -0.227
99.4143 -0.178
99.4446 0.497
99.4749 1.120
99.5052 0.493
99.5354 -0.030
99.5657 0.646
99.5960 0.176
99.6263 0.331
99.6566 0.121
99.6868 0.069
99.7171 0.433
99.7474 0.224
99.7777 0.380
99.8080 -0.244
99.8382 -0.140
99.8685 -0.087
99.8988 0.330
99.9291 0.019
99.9593 0.072
99.9896 -0.395
100.0199 0.023
100.0502 0.338
100.0805 0.236
100.1107 -0.127
100.1410 0.345
100.1713 -0.329
100.2016 0.299
100.2319 0.146
100.2621 0.097
100.2924 0.465
100.3227 -0.312
100.3530 0.421
100.3832 0.478
100.4135 -0.039
100.4438 -0.086
100.4741 0.127
100.5044 -0.128
100.5346 -0.070
100.5649 -0.221
100.5952 0.089
100.6255 0.242
100.6558 0.500
100.6860 -0.283
100.7163 0.131
100.7466 0.025
100.7769 0.440
100.8071 0.178
100.8374 -0.083
100.8677 0.489
100.8980 0.176
100.9283 0.071
100.9585 0.071
100.9888 0.383
101.0191 0.487
101.0494 0.488
101.0797 0.488
101.1099 0.177
101.1402 0.178
101.1705 0.231
101.2008 0.180
101.2310 0.078
101.2613 -0.285
101.2916 -0.030
101.3219 0.278
101.3522 -0.040
101.3824 0.320
101.4127 -0.205
101.4430 -0.053
101.4733 0.203
101.5036 -0.061
101.5338 0.508
101.5641 0.140
101.5944 0.606
101.6247 0.134
101.6549 -0.285
101.6852 -0.090
101.7155 0.314
101.7458 0.249
101.7761 -0.076
101.8063 0.225
101.8366 -0.048
101.8669 -0.112
101.8972 0.033
101.9275 0.022
101.9577 0.011
101.9880 0.260
102.0183 0.093
102.0486 -0.126
102.0788 -0.084
102.1091 0.271
102.1394 -0.052
102.1697 -0.009
102.2000 0.190
102.2302 0.077
102.2605 -0.037
102.2908 0.371
102.3211 0.780
102.3514 -0.114
102.3816 -0.070
102.4119 0.183
102.4422 0.383
102.4725 0.376
102.5028 0.421
102.5330 0.570
102.5633 0.147
102.5936 -0.172
102.6239 0.290
102.6541 0.180
102.6844 0.070
102.7147 0.012
102.7450 0.163
102.7753 0.574
102.8055 0.569
102.8358 0.565
102.8661 0.039
102.8964 0.087
102.9267 0.551
102.9569 0.183
102.9872 0.127
103.0175 0.384
103.0478 0.693
103.0780 0.274
103.1083 0.375
103.1386 0.320
103.1689 -0.255
103.1992 -0.049
103.2294 0.731
103.2597 0.781
103.2900 0.936
103.3203 0.101
103.3506 0.621
103.3808 -0.057
103.4111 0.151
103.4414 0.203
103.4717 0.827
103.5019 0.307
103.5322 0.151
103.5625 -0.266
103.5928 -0.110
103.6231 0.774
103.6533 0.305
103.6836 0.929
103.7139 0.356
103.7442 0.304
103.7745 0.825
103.8047 0.669
103.8350 0.566
103.8653 0.410
103.8956 0.463
103.9258 0.725
103.9561 0.258
103.9864 0.260
104.0167 1.043
104.0470 1.305
104.0772 1.308
104.1075 0.894
104.1378 0.897
104.1681 0.848
104.1984 1.059
104.2286 1.115
104.2589 0.337
104.2892 0.654
104.3195 0.710
104.3497 0.714
104.3800 0.979
104.4103 0.515
104.4406 0.416
104.4709 0.994
104.5011 0.791
104.5314 0.328
104.5617 0.334
104.5920 0.028
104.6223 0.451
104.6525 0.197
104.6828 0.412
104.7131 0.471
104.7434 0.166
104.7736 -0.087
104.8039 0.493
104.8342 0.032
104.8645 0.405
104.8948 0.101
104.9250 0.630
104.9553 0.222
104.9856 -0.185
105.0159 0.449
105.0462 -0.115
105.0764 0.260
105.1067 0.478
105.1370 0.227
105.1673 0.446
105.1975 0.404
105.2278 0.051
105.2581 0.374
105.2884 0.073
105.3187 -0.020
105.3489 -0.113
105.3792 0.003
105.4095 -0.089
105.4398 -0.441
105.4701 0.131
105.5003 0.131
105.5306 0.131
105.5609 0.131
105.5912 0.131
105.6215 -0.024
105.6517 -0.180
105.6820 -0.075
105.7123 -0.125
105.7426 -0.072
105.7728 0.294
105.8031 0.296
105.8334 0.350
105.8637 0.249
105.8940 -0.270
105.9242 -0.163
105.9545 0.257
105.9848 0.416
106.0151 -0.049
106.0454 0.267
106.0756 -0.302
106.1059 0.223
106.1362 0.332
106.1665 0.128
106.1967 -0.180
106.2270 -0.227
106.2573 0.139
106.2876 0.089
106.3179 -0.065
106.3481 0.302
106.3784 0.096
106.4087 -0.057
106.4390 0.259
106.4693 -0.259
106.4995 -0.203
106.5298 0.269
106.5601 0.013
106.5904 0.121
106.6206 0.438
106.6509 0.287
106.6812 0.187
106.7115 -0.016
106.7418 0.614
106.7720 0.203
106.8023 0.313
106.8326 0.007
106.8629 0.221
106.8932 -0.241
106.9234 -0.026
106.9537 0.762
106.9840 0.561
107.0143 0.360
107.0445 0.732
107.0748 0.166
107.1051 0.331
107.1354 0.912
107.1657 0.399
107.1959 -0.061
107.2262 -0.208
107.2565 0.098
107.2868 0.717
107.3171 0.295
107.3473 0.133
107.3776 0.753
107.4079 0.280
107.4382 0.171
107.4684 -0.094
107.4987 0.006
107.5290 0.314
107.5593 0.414
107.5896 0.202
107.6198 -0.218
107.6501 0.404
107.6804 0.401
107.7107 0.398
107.7410 0.500
107.7712 0.394
107.8015 0.444
107.8318 0.598
107.8621 0.336
107.8923 0.803
107.9226 0.021
107.9529 0.020
107.9832 0.331
108.0135 0.175
108.0437 0.018
108.0740 0.487
108.1043 -0.086
108.1346 0.383
108.1649 0.331
108.1951 0.020
108.2254 0.333
108.2557 -0.135
108.2860 0.596
108.3163 0.702
108.3465 0.079
108.3768 0.185
108.4071 -0.229
108.4374 0.398
108.4676 0.140
108.4979 0.091
108.5282 -0.166
108.5585 -0.215
108.5888 -0.067
108.6190 0.238
108.6493 -0.082
108.6796 0.119
108.7099 0.476
108.7402 -0.208
108.7704 0.462
108.8007 -0.325
108.8310 0.189
108.8613 -0.130
108.8915 -0.188
108.9218 0.067
108.9521 -0.043
108.9824 -0.256
109.0127 0.208
109.0429 0.776
109.0732 0.511
109.1035 0.090
109.1338 -0.227
109.1641 -0.337
109.1943 0.280
109.2246 0.012
109.2549 0.369
109.2852 0.101
109.3154 -0.062
109.3457 0.348
109.3760 0.289
109.4063 -0.238
109.4366 0.068
109.4668 0.167
109.4971 -0.048
109.5274 0.468
109.5577 -0.058
109.5880 0.301
109.6182 -0.329
109.6485 0.396
109.6788 0.808
109.7091 -0.029
109.7393 -0.138
109.7696 -0.141
109.7999 0.584
109.8302 0.216
109.8605 0.422
109.8907 -0.050
109.9210 0.625
109.9513 0.310
109.9816 -0.213
110.0119 0.253
110.0421 -0.061
110.0724 0.302
110.1027 0.301
110.1330 0.560
110.1632 0.142
110.1935 0.923
110.2238 0.454
110.2541 -0.380
110.2844 0.506
110.3146 -0.328
110.3449 -0.119
110.3752 0.923
110.4055 0.247
110.4358 0.404
110.4660 -0.167
110.4963 -0.009
110.5266 0.461
110.5569 0.203
110.5871 0.569
110.6174 0.988
110.6477 0.314
110.6780 0.890
110.7083 -0.097
110.7385 0.427
110.7688 0.326
110.7991 0.799
110.8294 0.282
110.8597 0.286
110.8899 0.290
110.9202 -0.174
110.9505 0.664
110.9808 0.617
111.0110 0.310
111.0413 0.628
111.0716 -0.095
111.1019 -0.090
111.1322 -0.083
111.1624 0.340
111.1927 -0.071
111.2230 -0.012
111.2533 0.256
111.2836 0.315
111.3138 0.270
111.3441 0.903
111.3744 -0.183
111.4047 -0.227
111.4350 -0.018
111.4652 -0.225
111.4955 0.037
111.5258 -0.221
111.5561 0.197
111.5863 0.408
111.6166 0.462
111.6469 0.308
111.6772 0.520
111.7075 0.470
111.7377 -0.099
111.7680 0.008
111.7983 0.168
111.8286 0.120
111.8589 -0.084
111.8891 -0.184
111.9194 0.758
111.9497 0.034
111.9800 -0.065
112.0102 0.304
112.0405 0.466
112.0708 0.159
112.1011 0.165
112.1314 0.067
112.1616 0.386
112.1919 0.132
112.2222 0.087
112.2525 0.667
112.2828 0.309
112.3130 0.056
112.3433 -0.249
112.3736 0.228
112.4039 -0.233
112.4341 -0.178
112.4644 -0.072
112.4947 0.296
112.5250 0.455
112.5553 0.458
112.5855 0.461
112.6158 0.465
112.6461 0.261
112.6764 0.473
112.7067 0.581
112.7369 0.013
112.7672 0.486
112.7975 -0.082
112.8278 -0.233
112.8580 0.123
112.8883 0.583
112.9186 0.470
112.9489 0.358
112.9792 0.350
113.0094 0.446
113.0397 0.074
113.0700 0.536
113.1003 0.320
113.1306 0.365
113.1608 0.202
113.1911 0.040
113.2214 0.346
113.2517 0.079
113.2819 0.230
113.3122 -0.088
113.3425 0.271
113.3728 0.005
113.4031 0.209
113.4333 -0.109
113.4636 0.616
113.4939 0.091
113.5242 -0.174
113.5545 -0.125
113.5847 0.131
113.6150 0.597
113.6453 0.073
113.6756 0.278
113.7058 0.067
113.7361 -0.144
113.7664 -0.042
113.7967 -0.200
113.8270 0.214
113.8572 0.161
113.8875 0.107
113.9178 -0.259
113.9481 0.626
113.9784 0.104
114.0086 -0.157
114.0389 -0.209
114.0692 -0.053
114.0995 0.311
114.1298 0.312
114.1600 0.052
114.1903 -0.052
114.2206 -0.259
114.2509 0.103
114.2811 0.100
114.3114 -0.007
114.3417 0.512
114.3720 -0.115
114.4023 0.039
114.4325 0.246
114.4628 -0.329
114.4931 0.035
114.5234 -0.175
114.5537 0.397
114.5839 0.241
114.6142 0.240
114.6445 0.396
114.6748 0.448
114.7050 0.397
114.7353 -0.072
114.7656 -0.227
114.7959 -0.135
114.8262 -0.199
114.8564 0.207
114.8867 -0.013
114.9170 0.497
114.9473 -0.087
114.9776 0.319
115.0078 -0.212
115.0381 0.194
115.0684 -0.232
115.0987 0.435
115.1289 0.374
115.1592 -0.261
115.1895 -0.061
115.2198 0.294
115.2501 0.286
115.2803 -0.087
115.3106 0.165
115.3409 0.574
115.3712 0.462
115.4015 0.558
115.4317 0.395
115.4620 0.856
115.4923 0.589
115.5226 0.062
115.5528 0.784
115.5831 0.622
115.6134 0.824
115.6437 1.079
115.6740 0.396
115.7042 0.651
115.7345 0.281
115.7648 0.485
115.7951 0.272
115.8254 0.007
115.8556 1.044
115.8859 0.624
115.9162 1.193
115.9465 0.773
115.9767 0.821
116.0070 0.974
116.0373 0.503
116.0676 1.333
116.0979 0.654
116.1281 1.328
116.1584 0.649
116.1887 1.168
116.2190 0.438
116.2493 0.384
116.2795 0.904
116.3098 1.267
116.3401 0.589
116.3704 1.370
116.4006 0.484
116.4309 1.214
116.4612 1.370
116.4915 0.381
116.5218 1.058
116.5520 1.528
116.5823 0.904
116.6126 0.749
116.6429 1.271
116.6732 0.752
116.7034 0.858
116.7337 0.652
116.7640 0.602
116.7943 0.813
116.8245 0.451
116.8548 0.662
116.8851 0.093
116.9154 -0.008
116.9457 0.412
116.9759 0.729
117.0062 0.368
117.0365 -0.201
117.0668 0.012
117.0971 0.069
117.1273 -0.395
117.1576 0.808
117.1879 -0.020
117.2182 0.351
117.2485 0.148
117.2787 0.154
117.3090 -0.204
117.3393 -0.250
117.3696 0.114
117.3998 0.531
117.4301 0.739
117.4604 0.270
117.4907 0.271
117.5210 -0.302
117.5512 0.272
117.5815 0.273
117.6118 0.118
117.6421 0.172
117.6724 0.173
117.7026 0.071
117.7329 0.125
117.7632 -0.029
117.7935 -0.183
117.8237 -0.180
117.8540 0.344
117.8843 -0.174
117.9146 -0.066
117.9449 0.250
117.9751 -0.371
118.0054 0.310
118.0357 0.106
118.0660 -0.046
118.0963 -0.197
118.1265 -0.244
118.1568 0.126
118.1871 -0.129
118.2174 -0.123
118.2476 -0.116
118.2779 -0.110
118.3082 0.053
118.3385 -0.096
118.3688 -0.089
118.3990 0.335
118.4293 -0.022
118.4596 -0.119
118.4899 0.462
118.5202 0.262
118.5504 0.218
118.5807 -0.086
118.6110 -0.233
118.6413 0.127
118.6715 -0.295
118.7018 0.273
118.7321 -0.148
118.7624 0.160
118.7927 0.417
118.8229 0.361
118.8532 -0.268
118.8835 0.406
118.9138 -0.014
118.9441 -0.069
118.9743 -0.176
119.0046 -0.334
119.0349 0.445
119.0652 0.391
119.0954 -0.028
119.1257 -0.134
119.1560 -0.083
119.1863 -0.084
119.2166 0.019
119.2468 0.227
119.2771 -0.243
119.3074 0.278
119.3377 -0.139
119.3680 -0.086
119.3982 0.070
119.4285 0.227
119.4588 -0.137
119.4891 -0.084
119.5193 -0.239
119.5496 -0.039
119.5799 0.525
119.6102 0.360
119.6405 0.248
119.6707 -0.021
119.7010 0.440
119.7313 -0.088
119.7616 -0.148
119.7919 -0.572
119.8221 0.239
119.8524 0.216
119.8827 -0.015
119.9130 0.222
119.9433 0.096
119.9735 0.386
120.0038 0.000
