'Id: "" Comment: "" Operator: "Lab Manager" Anode: "Cu" Scantype: "Locked Coupled" TimePerStep: "19.2" X: "9999" Y: "9999" Z: "9999" 
10.0015 0.000
10.0318 0.888
10.0620 -0.048
10.0923 0.319
10.1226 -0.199
10.1529 -0.613
10.1832 -0.032
10.2134 -0.650
10.2437 -0.225
10.2740 0.251
10.3043 0.051
10.3346 0.059
10.3648 -0.349
10.3951 -0.341
10.4254 -0.020
10.4557 0.562
10.4859 -0.158
10.5162 0.632
10.5465 -0.036
10.5768 0.703
10.6071 0.244
10.6373 -0.424
10.6676 0.107
10.6979 0.013
10.7282 -0.082
10.7585 -0.332
10.7887 0.043
10.8190 -0.311
10.8493 -0.144
10.8796 0.284
10.9098 0.347
10.9401 -1.048
10.9704 0.265
11.0007 -0.088
11.0310 0.444
11.0612 -0.117
11.0915 0.259
11.1218 -0.458
11.1521 -0.498
11.1824 0.180
11.2126 0.441
11.2429 -0.235
11.2732 -0.130
11.3035 0.235
11.3337 -0.076
11.3640 0.707
11.3943 0.396
11.4246 -0.123
11.4549 -0.434
11.4851 0.089
11.5154 0.352
11.5457 0.250
11.5760 -0.008
11.6063 0.307
11.6365 0.153
11.6668 0.364
11.6971 0.367
11.7274 0.058
11.7577 0.061
11.7879 -0.352
11.8182 0.589
11.8485 -0.188
11.8788 0.284
11.9090 -0.545
11.9393 -0.124
11.9696 0.141
11.9999 0.822
12.0302 -0.110
12.0604 -0.366
12.0907 -0.361
12.1210 0.113
12.1513 -0.090
12.1816 -0.398
12.2118 -0.288
12.2421 0.447
12.2724 0.192
12.3027 0.042
12.3329 0.100
12.3632 0.106
12.3935 0.113
12.4238 0.380
12.4541 -0.238
12.4843 0.654
12.5146 0.713
12.5449 -0.790
12.5752 -0.471
12.6055 -0.359
12.6357 -0.247
12.6660 0.074
12.6963 0.082
12.7266 0.611
12.7568 -0.162
12.7871 0.211
12.8174 -0.301
12.8477 0.437
12.8780 0.394
12.9082 0.403
12.9385 0.152
12.9688 -0.046
12.9991 0.328
13.0294 0.285
13.0596 0.452
13.0899 -0.215
13.1202 0.159
13.1505 0.378
13.1807 0.389
13.2110 0.035
13.2413 0.410
13.2716 0.525
13.3019 -0.037
13.3321 -0.182
13.3624 0.090
13.3927 -0.003
13.4230 -0.043
13.4533 -0.292
13.4835 -0.228
13.5138 0.618
13.5441 0.005
13.5744 0.278
13.6046 -0.230
13.6349 -0.895
13.6652 -0.012
13.6955 0.038
13.7258 0.087
13.7560 -0.123
13.7863 -0.177
13.8166 -0.231
13.8469 0.340
13.8772 -0.183
13.9074 0.024
13.9377 -0.237
13.9680 -0.343
13.9983 0.125
14.0285 0.124
14.0588 0.332
14.0891 -0.190
14.1194 0.591
14.1497 0.695
14.1799 0.070
14.2102 -0.139
14.2405 -0.347
14.2708 -0.086
14.3011 -0.086
14.3313 0.019
14.3616 0.176
14.3919 0.594
14.4222 -0.239
14.4524 0.283
14.4827 0.493
14.5130 -0.026
14.5433 -0.389
14.5736 0.081
14.6038 0.396
14.6341 0.554
14.6644 0.348
14.6947 -0.014
14.7250 -0.012
14.7552 -0.634
14.7855 -0.217
14.8158 -0.060
14.8461 -0.581
14.8764 -0.007
14.9066 0.411
14.9369 0.204
14.9672 0.049
14.9975 0.206
15.0277 0.208
15.0580 0.262
15.0883 -0.414
15.1186 -0.151
15.1489 -0.201
15.1791 0.218
15.2094 0.168
15.2397 0.014
15.2700 -0.347
15.3003 -0.292
15.3305 -0.862
15.3608 0.339
15.3911 -0.491
15.4214 -0.123
15.4516 -0.172
15.4819 0.249
15.5122 -0.008
15.5425 0.309
15.5728 -0.364
15.6030 0.005
15.6333 -0.147
15.6636 1.264
15.6939 0.071
15.7242 0.024
15.7544 -0.232
15.7847 0.398
15.8150 0.143
15.8453 0.409
15.8755 -0.054
15.9058 -0.100
15.9361 0.010
15.9664 -0.400
15.9967 0.491
16.0269 0.185
16.0572 0.192
16.0875 0.198
16.1178 0.622
16.1481 -0.673
16.1783 0.011
16.2086 0.331
16.2389 0.547
16.2692 -0.279
16.2994 -0.271
16.3297 -0.003
16.3600 0.317
16.3903 0.794
16.4206 0.073
16.4508 -0.283
16.4811 0.611
16.5114 0.464
16.5417 0.368
16.5720 -0.404
16.6022 -0.395
16.6325 0.071
16.6628 -0.141
16.6931 -0.092
16.7233 -0.511
16.7536 0.372
16.7839 0.109
16.8142 0.315
16.8445 -0.313
16.8747 0.258
16.9050 0.569
16.9353 -0.631
16.9656 -0.268
16.9959 -0.218
17.0261 -0.167
17.0564 0.300
17.0867 0.299
17.1170 -0.222
17.1472 0.141
17.1775 0.557
17.2078 0.088
17.2381 0.036
17.2684 0.504
17.2986 0.140
17.3289 0.035
17.3592 0.192
17.3895 -0.120
17.4198 -0.276
17.4500 0.402
17.4803 0.142
17.5106 0.091
17.5409 -0.272
17.5712 -0.115
17.6014 0.095
17.6317 0.096
17.6620 -0.475
17.6923 0.308
17.7225 -0.002
17.7528 0.312
17.7831 0.419
17.8134 -0.152
17.8437 0.059
17.8739 -0.146
17.9042 -0.456
17.9345 0.068
17.9648 -0.242
17.9951 -0.395
18.0253 -0.027
18.0556 -0.650
18.0859 0.395
18.1162 0.189
18.1464 -0.224
18.1767 -0.065
18.2070 -0.061
18.2373 -0.370
18.2676 0.675
18.2978 0.158
18.3281 -0.150
18.3584 -0.302
18.3887 -0.038
18.4190 -0.085
18.4492 0.336
18.4795 0.028
18.5098 0.346
18.5401 -0.222
18.5703 -0.321
18.6006 -0.055
18.6309 0.106
18.6612 0.060
18.6915 0.639
18.7217 0.072
18.7520 -0.235
18.7823 -0.281
18.8126 -0.066
18.8429 -0.008
18.8731 0.051
18.9034 0.110
18.9337 -0.508
18.9640 0.020
18.9942 0.131
19.0245 0.816
19.0548 -0.010
19.0851 0.154
19.1154 0.006
19.1456 -0.143
19.1759 0.334
19.2062 -0.022
19.2365 -0.430
19.2668 -0.162
19.2970 0.003
19.3273 0.168
19.3576 0.177
19.3879 0.133
19.4181 0.090
19.4484 0.256
19.4787 -0.100
19.5090 -0.142
19.5393 0.024
19.5695 -0.227
19.5998 -0.530
19.6301 0.039
19.6604 -0.225
19.6907 -0.282
19.7209 -0.025
19.7512 0.336
19.7815 0.176
19.8118 -0.192
19.8420 -0.299
19.8723 0.271
19.9026 -0.357
19.9329 0.004
19.9632 0.575
19.9934 -0.522
20.0237 0.518
20.0540 0.151
20.0843 0.357
20.1146 -0.061
20.1448 -0.219
20.1751 -0.429
20.2054 0.090
20.2357 0.089
20.2659 -0.017
20.2962 0.243
20.3265 0.190
20.3568 -0.280
20.3871 0.188
20.4173 0.032
20.4476 0.292
20.4779 -0.177
20.5082 0.135
20.5385 -0.542
20.5687 -0.020
20.5990 -0.333
20.6293 0.085
20.6596 -0.540
20.6899 0.034
20.7201 0.400
20.7504 0.245
20.7807 -0.587
20.8110 -0.221
20.8412 -0.428
20.8715 0.042
20.9018 0.303
20.9321 0.148
20.9624 0.462
20.9926 -0.630
21.0229 0.310
21.0532 0.051
21.0835 -0.155
21.1138 -0.049
21.1440 -0.203
21.1743 -0.305
21.2046 -0.302
21.2349 0.430
21.2651 0.120
21.2954 -0.033
21.3257 0.023
21.3560 0.286
21.3863 -0.127
21.4165 -0.383
21.4468 -0.015
21.4771 -0.324
21.5074 -0.215
21.5377 0.362
21.5679 0.054
21.5982 0.162
21.6285 -0.041
21.6588 0.068
21.6890 -0.136
21.7193 -0.287
21.7496 -0.177
21.7799 0.245
21.8102 0.146
21.8404 -0.265
21.8707 -0.415
21.9010 0.164
21.9313 -0.559
21.9616 0.072
21.9918 -0.078
22.0221 0.033
22.0524 -0.116
22.0827 0.255
22.1129 -0.102
22.1432 -0.252
22.1735 0.381
22.2038 -0.133
22.2341 -0.281
22.2643 -0.013
22.2946 -0.005
22.3249 0.211
22.3552 -0.614
22.3855 0.332
22.4157 0.393
22.4460 -0.015
22.4763 -0.319
22.5066 -0.319
22.5368 0.096
22.5671 -0.271
22.5974 -0.117
22.6277 0.663
22.6580 -0.224
22.6882 -0.173
22.7185 0.086
22.7488 0.345
22.7791 -0.333
22.8094 0.708
22.8396 -0.126
22.8699 -0.126
22.9002 0.655
22.9305 -0.127
22.9607 0.342
22.9910 0.030
23.0213 -0.231
23.0516 -0.230
23.0819 -0.282
23.1121 0.032
23.1424 -0.384
23.1727 0.450
23.2030 0.087
23.2333 -0.068
23.2635 -0.067
23.2938 0.143
23.3241 -0.064
23.3544 -0.166
23.3846 0.774
23.4149 -0.214
23.4452 0.361
23.4755 -0.105
23.5058 -0.415
23.5360 -0.056
23.5663 0.251
23.5966 -0.223
23.6269 0.084
23.6572 0.079
23.6874 -0.290
23.7177 0.226
23.7480 0.221
23.7783 -0.252
23.8086 0.108
23.8388 -0.053
23.8691 0.516
23.8994 0.200
23.9297 0.300
23.9599 0.557
23.9902 -0.019
24.0205 -0.023
24.0508 0.078
24.0811 -0.133
24.1113 -0.032
24.1416 -0.087
24.1719 -0.350
24.2022 0.013
24.2325 -0.146
24.2627 -0.200
24.2930 0.267
24.3233 -0.517
24.3536 -0.102
24.3838 0.366
24.4141 0.364
24.4444 -0.002
24.4747 0.310
24.5050 -0.368
24.5352 -0.265
24.5655 0.047
24.5958 0.046
24.6261 -0.215
24.6564 -0.006
24.6866 0.306
24.7169 -0.163
24.7472 -0.163
24.7775 0.150
24.8077 -0.474
24.8380 -0.005
24.8683 0.256
24.8986 0.153
24.9289 -0.002
24.9591 -0.209
24.9894 -0.364
25.0197 0.158
25.0500 0.056
25.0803 0.006
25.1105 -0.305
25.1408 0.166
25.1711 -0.040
25.2014 -0.038
25.2316 -0.244
25.2619 0.176
25.2922 -0.134
25.3225 0.234
25.3528 -0.180
25.3830 -0.020
25.4133 -0.121
25.4436 0.247
25.4739 -0.322
25.5042 0.567
25.5344 0.050
25.5647 -0.102
25.5950 -0.202
25.6253 0.167
25.6555 0.016
25.6858 0.073
25.7161 0.078
25.7464 0.551
25.7767 0.296
25.8069 -0.115
25.8372 0.359
25.8675 -0.052
25.8978 -0.255
25.9281 -0.092
25.9583 -0.086
25.9886 0.441
26.0189 0.551
26.0492 0.193
26.0794 0.096
26.1097 0.363
26.1400 0.266
26.1703 0.325
26.2006 -0.033
26.2308 0.183
26.2611 0.139
26.2914 0.771
26.3217 -0.262
26.3520 0.579
26.3822 0.222
26.4125 0.179
26.4428 0.447
26.4731 0.143
26.5034 0.308
26.5336 0.161
26.5639 0.014
26.5942 -0.290
26.6245 -0.245
26.6547 0.060
26.6850 0.834
26.7153 -0.111
26.7456 -0.118
26.7759 0.500
26.8061 0.128
26.8364 0.070
26.8667 0.375
26.8970 0.317
26.9273 -0.002
26.9575 -0.112
26.9878 0.351
27.0181 0.032
27.0484 -0.025
27.0786 0.178
27.1089 0.485
27.1392 0.271
27.1695 0.058
27.1998 -0.208
27.2300 0.465
27.2603 -0.269
27.2906 0.351
27.3209 0.295
27.3512 -0.074
27.3814 0.183
27.4117 -0.082
27.4420 -0.086
27.4723 -0.089
27.5025 0.064
27.5328 -0.304
27.5631 -0.099
27.5934 -0.102
27.6237 -0.105
27.6539 0.622
27.6842 0.098
27.7145 -0.321
27.7448 0.041
27.7751 0.404
27.8053 -0.015
27.8356 -0.121
27.8659 -0.279
27.8962 -0.124
27.9264 0.291
27.9567 -0.179
27.9870 0.289
28.0173 -0.025
28.0476 -0.338
28.0778 -0.130
28.1081 0.026
28.1384 0.182
28.1687 0.077
28.1990 -0.287
28.2292 0.025
28.2595 0.182
28.2898 0.182
28.3201 -0.025
28.3503 -0.389
28.3806 0.341
28.4109 0.394
28.4412 -0.073
28.4715 0.136
28.5017 0.138
28.5320 0.087
28.5623 -0.171
28.5926 -0.065
28.6229 0.458
28.6531 -0.061
28.6834 -0.319
28.7137 -0.276
28.7440 0.027
28.7742 -0.450
28.8045 0.531
28.8348 -0.155
28.8651 0.305
28.8954 0.558
28.9256 -0.128
28.9559 -0.031
28.9862 -0.039
29.0165 -0.464
29.0468 0.414
29.0770 -0.010
29.1073 -0.069
29.1376 -0.180
29.1679 -0.500
29.1981 0.009
29.2284 -0.002
29.2587 -0.170
29.2890 -0.338
29.3193 -0.141
29.3495 0.317
29.3798 -0.319
29.4101 -0.226
29.4404 -0.237
29.4707 -0.299
29.5009 0.263
29.5312 0.149
29.5615 0.139
29.5918 -0.080
29.6221 0.275
29.6523 -0.307
29.6826 -0.213
29.7129 -0.222
29.7432 -0.336
29.7734 0.384
29.8037 -0.093
29.8340 0.158
29.8643 -0.371
29.8946 -0.433
29.9248 0.177
29.9551 0.526
29.9854 0.354
30.0157 -0.077
30.0460 -0.353
30.0762 -0.055
30.1065 -0.174
30.1368 -0.292
30.1671 0.058
30.1973 0.669
30.2276 -0.439
30.2579 0.120
30.2882 -0.050
30.3185 0.093
30.3487 -0.285
30.3790 0.118
30.4093 0.053
30.4396 -0.168
30.4699 -0.233
30.5001 -0.610
30.5304 0.158
30.5607 -0.218
30.5910 -0.127
30.6212 0.486
30.6515 0.110
30.6818 -0.214
30.7121 0.191
30.7424 0.387
30.7726 -0.405
30.8029 0.521
30.8332 1.083
30.8635 0.551
30.8938 -0.501
30.9240 0.530
30.9543 0.884
30.9846 1.446
31.0149 1.020
31.0451 0.853
31.0754 1.208
31.1057 1.459
31.1360 1.918
31.1663 2.533
31.1965 3.045
31.2268 2.411
31.2571 3.652
31.2874 3.539
31.3177 3.478
31.3479 6.178
31.3782 5.180
31.4085 7.098
31.4388 8.132
31.4690 9.270
31.4993 10.929
31.5296 13.994
31.5599 14.820
31.5902 17.469
31.6204 17.878
31.6507 16.725
31.6810 14.999
31.7113 14.003
31.7416 13.371
31.7718 9.354
31.8021 9.296
31.8324 6.998
31.8627 6.211
31.8929 4.642
31.9232 5.105
31.9535 2.964
31.9838 2.542
32.0141 3.005
32.0443 2.532
32.0746 2.006
32.1049 2.313
32.1352 1.059
32.1655 1.575
32.1957 0.997
32.2260 -0.101
32.2563 1.197
32.2866 0.204
32.3169 0.044
32.3471 0.040
32.3774 0.349
32.4077 -0.019
32.4380 0.498
32.4682 0.860
32.4985 0.596
32.5288 -0.136
32.5591 1.112
32.5894 -0.193
32.6196 -0.247
32.6499 -0.041
32.6802 -0.721
32.7105 0.007
32.7408 -0.047
32.7710 -0.205
32.8013 -0.363
32.8316 -0.364
32.8619 0.312
32.8921 0.310
32.9224 -0.159
32.9527 -0.160
32.9830 -0.317
33.0133 -0.161
33.0435 -0.266
33.0738 -0.422
33.1041 -0.214
33.1344 -0.162
33.1647 0.203
33.1949 0.620
33.2252 0.308
33.2555 0.049
33.2858 -0.315
33.3160 0.259
33.3463 -0.886
33.3766 -0.051
33.4069 0.106
33.4372 -0.673
33.4674 -0.364
33.4977 -0.471
33.5280 -0.370
33.5583 -0.113
33.5886 -0.012
33.6188 -0.380
33.6491 0.606
33.6794 -0.230
33.7097 0.444
33.7399 0.442
33.7702 0.856
33.8005 1.062
33.8308 1.424
33.8611 1.631
33.8913 1.629
33.9216 1.835
33.9519 2.250
33.9822 1.311
34.0125 2.456
34.0427 4.850
34.0730 5.318
34.1033 5.786
34.1336 6.879
34.1638 10.368
34.1941 11.982
34.2244 14.951
34.2547 17.867
34.2850 19.221
34.3152 17.242
34.3455 14.899
34.3758 14.066
34.4061 12.035
34.4364 7.974
34.4666 5.891
34.4969 4.330
34.5272 3.185
34.5575 3.968
34.5877 2.563
34.6180 0.846
34.6483 0.900
34.6786 1.318
34.7089 1.164
34.7391 0.645
34.7694 0.492
34.7997 1.275
34.8300 0.705
34.8603 0.395
34.8905 0.763
34.9208 0.401
34.9511 0.196
34.9814 0.148
35.0116 0.985
35.0419 0.259
35.0722 0.419
35.1025 0.892
35.1328 0.011
35.1630 -0.141
35.1933 0.280
35.2236 0.961
35.2539 0.497
35.2842 0.763
35.3144 0.455
35.3447 1.137
35.3750 1.195
35.4053 1.148
35.4356 0.841
35.4658 1.055
35.4961 0.696
35.5264 1.432
35.5567 2.271
35.5869 2.434
35.6172 2.128
35.6475 1.614
35.6778 3.964
35.7081 3.867
35.7383 4.290
35.7686 6.798
35.7989 5.711
35.8292 5.719
35.8595 7.133
35.8897 8.495
35.9200 11.419
35.9503 12.521
35.9806 15.238
36.0108 18.371
36.0411 20.046
36.0714 21.357
36.1017 21.678
36.1320 24.344
36.1622 21.749
36.1925 22.018
36.2228 17.132
36.2531 15.839
36.2834 14.339
36.3136 10.494
36.3439 9.775
36.3742 7.598
36.4045 5.837
36.4347 5.171
36.4650 4.764
36.4953 3.942
36.5256 3.171
36.5559 2.974
36.5861 2.725
36.6164 1.122
36.6467 1.237
36.6770 1.301
36.7073 1.052
36.7375 1.793
36.7678 1.024
36.7981 0.984
36.8284 0.580
36.8586 -0.293
36.8889 0.605
36.9192 0.722
36.9495 0.318
36.9798 0.384
37.0100 0.240
37.0403 0.254
37.0706 0.528
37.1009 0.073
37.1312 0.243
37.1614 -0.108
37.1917 0.063
37.2220 0.806
37.2523 0.247
37.2825 0.106
37.3128 0.433
37.3431 0.135
37.3734 -0.110
37.4037 0.113
37.4339 0.389
37.4642 -0.012
37.4945 0.003
37.5248 -0.293
37.5551 -0.278
37.5853 -0.001
37.6156 0.067
37.6459 -0.594
37.6762 0.204
37.7064 0.273
37.7367 -0.388
37.7670 0.098
37.7973 -0.197
37.8276 0.184
37.8578 0.462
37.8881 0.376
37.9184 0.445
37.9487 -0.214
37.9790 0.012
38.0092 -0.126
38.0395 -0.576
38.0698 -0.049
38.1001 0.219
38.1304 0.487
38.1606 -0.130
38.1909 -0.123
38.2212 -0.167
38.2515 0.049
38.2817 -0.151
38.3120 -0.351
38.3423 0.439
38.3726 0.187
38.4029 0.196
38.4331 0.101
38.4634 -0.203
38.4937 0.223
38.5240 -0.028
38.5543 -0.435
38.5845 -0.061
38.6148 -0.156
38.6451 -0.094
38.6754 0.177
38.7056 0.291
38.7359 -0.375
38.7662 0.000
38.7965 0.010
38.8268 0.125
38.8570 -0.541
38.8873 -0.113
38.9176 0.002
38.9479 -0.143
38.9782 -0.027
39.0084 -0.276
39.0387 0.049
39.0690 -0.304
39.0993 0.333
39.1295 0.346
39.1598 0.045
39.1901 -0.046
39.2204 -0.138
39.2507 0.031
39.2809 -0.268
39.3112 -0.166
39.3415 -0.429
39.3718 0.089
39.4021 0.139
39.4323 0.189
39.4626 0.031
39.4929 0.030
39.5232 0.080
39.5534 0.131
39.5837 0.130
39.6140 -0.340
39.6443 -0.081
39.6746 0.283
39.7048 0.334
39.7351 -0.135
39.7654 0.438
39.7957 0.021
39.8260 0.073
39.8562 0.021
39.8865 -0.031
39.9168 -0.135
39.9471 -0.343
39.9773 0.491
40.0076 0.752
40.0379 -0.028
40.0682 0.025
40.0985 0.079
40.1287 0.028
40.1590 -0.075
40.1893 0.344
40.2196 0.189
40.2499 -0.225
40.2801 -0.015
40.3104 -0.013
40.3407 -0.010
40.3710 -0.268
40.4012 -0.115
40.4315 0.143
40.4618 -0.224
40.4921 -0.174
40.5224 -0.176
40.5526 0.082
40.5829 -0.076
40.6132 -0.078
40.6435 -0.340
40.6738 -0.029
40.7040 -0.082
40.7343 0.385
40.7646 -0.136
40.7949 0.123
40.8251 -0.242
40.8554 -0.087
40.8857 0.069
40.9160 -0.087
40.9463 -0.348
40.9765 -0.035
41.0068 0.017
41.0371 -0.347
41.0674 -0.087
41.0977 -0.242
41.1279 -0.137
41.1582 -0.032
41.1885 -0.083
41.2188 -0.134
41.2491 0.180
41.2793 -0.132
41.3096 -0.182
41.3399 0.028
41.3702 -0.230
41.4004 -0.124
41.4307 0.034
41.4610 -0.068
41.4913 0.039
41.5216 -0.062
41.5518 -0.320
41.5821 -0.060
41.6124 -0.216
41.6427 -0.164
41.6730 -0.215
41.7032 -0.111
41.7335 0.046
41.7638 -0.161
41.7941 0.048
41.8243 -0.316
41.8546 0.154
41.8849 -0.157
41.9152 -0.259
41.9455 -0.154
41.9757 -0.100
42.0060 0.059
42.0363 -0.148
42.0666 -0.198
42.0969 -0.091
42.1271 0.432
42.1574 -0.242
42.1877 -0.135
42.2180 0.024
42.2482 -0.285
42.2785 0.031
42.3088 -0.278
42.3391 0.246
42.3694 -0.011
42.3996 -0.007
42.4299 0.101
42.4602 -0.155
42.4905 -0.150
42.5208 -0.094
42.5510 0.119
42.5813 -0.137
42.6116 -0.080
42.6419 -0.127
42.6721 0.035
42.7024 0.196
42.7327 0.046
42.7630 -0.261
42.7933 -0.158
42.8235 0.205
42.8538 -0.108
42.8841 -0.213
42.9144 -0.162
42.9447 0.254
42.9749 -0.111
43.0052 -0.111
43.0355 -0.424
43.0658 0.045
43.0960 0.149
43.1263 0.306
43.1566 -0.110
43.1869 0.359
43.2172 0.099
43.2474 0.152
43.2777 -0.055
43.3080 -0.106
43.3383 0.156
43.3686 -0.155
43.3988 0.159
43.4291 0.161
43.4594 -0.150
43.4897 0.165
43.5199 0.167
43.5502 -0.143
43.5805 -0.245
43.6108 -0.145
43.6411 0.684
43.6713 -0.101
43.7016 0.104
43.7319 0.152
43.7622 0.357
43.7925 0.145
43.8227 -0.171
43.8530 -0.070
43.8833 0.240
43.9136 0.029
43.9439 0.078
43.9741 0.128
44.0044 0.125
44.0347 -0.190
44.0650 0.173
44.0952 -0.194
44.1255 0.221
44.1558 -0.093
44.1861 0.218
44.2164 -0.044
44.2466 0.059
44.2769 -0.098
44.3072 -0.099
44.3375 -0.256
44.3678 -0.257
44.3980 0.108
44.4283 -0.101
44.4586 -0.257
44.4889 -0.103
44.5191 -0.366
44.5494 0.100
44.5797 -0.267
44.6100 0.095
44.6403 -0.011
44.6705 0.039
44.7008 -0.014
44.7311 0.036
44.7614 -0.018
44.7917 -0.175
44.8219 -0.176
44.8522 0.396
44.8825 -0.178
44.9128 0.029
44.9430 -0.075
44.9733 -0.128
45.0036 0.236
45.0339 -0.233
45.0642 -0.024
45.0944 0.184
45.1247 0.185
45.1550 -0.023
45.1853 0.238
45.2156 -0.126
45.2458 -0.073
45.2761 -0.385
45.3064 -0.019
45.3367 -0.122
45.3669 0.036
45.3972 0.090
45.4275 0.091
45.4578 0.510
45.4881 -0.426
45.5183 0.150
45.5486 -0.317
45.5789 -0.273
45.6092 0.396
45.6395 0.127
45.6697 0.484
45.7000 0.216
45.7303 -0.261
45.7606 -0.268
45.7908 0.139
45.8211 -0.235
45.8514 0.121
45.8817 0.060
45.9120 -0.105
45.9422 -0.114
45.9725 -0.279
46.0028 -0.130
46.0331 0.227
46.0634 -0.196
46.0936 0.578
46.1239 -0.158
46.1542 0.356
46.1845 -0.327
46.2147 0.135
46.2450 0.025
46.2753 0.123
46.3056 -0.352
46.3359 0.111
46.3661 0.054
46.3964 0.100
46.4267 0.251
46.4570 0.246
46.4873 0.450
46.5175 0.080
46.5478 0.180
46.5781 0.383
46.6084 -0.038
46.6386 -0.198
46.6689 0.318
46.6992 0.679
46.7295 -0.158
46.7598 0.411
46.7900 0.043
46.8203 0.456
46.8506 0.714
46.8809 0.398
46.9112 0.708
46.9414 0.757
46.9717 0.963
47.0020 0.804
47.0323 1.218
47.0626 1.008
47.0928 1.266
47.1231 1.316
47.1534 1.523
47.1837 1.417
47.2139 0.582
47.2442 2.091
47.2745 3.184
47.3048 3.287
47.3351 3.911
47.3653 3.129
47.3956 4.222
47.4259 4.170
47.4562 4.221
47.4865 3.701
47.5167 3.388
47.5470 2.503
47.5773 1.878
47.6076 1.410
47.6378 1.775
47.6681 1.724
47.6984 1.360
47.7287 0.632
47.7590 0.841
47.7892 0.843
47.8195 0.636
47.8498 0.585
47.8801 0.170
47.9104 0.797
47.9406 0.278
47.9709 0.281
48.0012 0.023
48.0315 0.338
48.0617 -0.024
48.0920 -0.490
48.1223 0.138
48.1526 0.037
48.1829 0.248
48.2131 0.512
48.2434 0.151
48.2737 0.259
48.3040 0.263
48.3343 0.267
48.3645 -0.198
48.3948 -0.454
48.4251 0.279
48.4554 -0.341
48.4856 0.341
48.5159 0.189
48.5462 -0.014
48.5765 0.147
48.6068 0.153
48.6370 -0.311
48.6673 0.268
48.6976 0.534
48.7279 -0.033
48.7582 -0.183
48.7884 -0.229
48.8187 -0.431
48.8490 0.252
48.8793 0.363
48.9095 0.266
48.9398 0.064
48.9701 -0.137
49.0004 0.131
49.0307 0.138
49.0609 0.354
49.0912 0.361
49.1215 0.213
49.1518 -0.144
49.1821 -0.344
49.2123 0.081
49.2426 -0.067
49.2729 0.202
49.3032 0.211
49.3334 0.011
49.3637 -0.449
49.3940 -0.142
49.4243 0.217
49.4546 0.212
49.4848 0.311
49.5151 0.410
49.5454 0.144
49.5757 0.139
49.6060 0.187
49.6362 0.234
49.6665 0.334
49.6968 -0.451
49.7271 -0.039
49.7574 -0.095
49.7876 -0.203
49.8179 -0.258
49.8482 0.415
49.8785 0.256
49.9087 0.096
49.9390 -0.271
49.9693 -0.118
49.9996 -0.433
50.0299 0.033
50.0601 0.291
50.0904 -0.337
50.1207 -0.078
50.1510 0.076
50.1813 -0.082
50.2115 -0.032
50.2418 0.123
50.2721 -0.556
50.3024 -0.140
50.3326 -0.142
50.3629 -0.455
50.3932 0.009
50.4235 -0.255
50.4538 -0.207
50.4840 -0.159
50.5143 -0.163
50.5446 -0.010
50.5749 -0.170
50.6052 0.087
50.6354 -0.125
50.6657 -0.023
50.6960 -0.183
50.7263 -0.290
50.7565 -0.241
50.7868 0.120
50.8171 -0.405
50.8474 0.112
50.8777 -0.360
50.9079 -0.154
50.9382 0.207
50.9685 -0.317
50.9988 -0.111
51.0291 0.095
51.0593 0.092
51.0896 0.142
51.1199 -0.016
51.1502 -0.122
51.1804 -0.020
51.2107 0.030
51.2410 -0.127
51.2713 0.027
51.3016 -0.599
51.3318 -0.131
51.3621 -0.028
51.3924 -0.237
51.4227 0.075
51.4530 -0.030
51.4832 0.126
51.5135 -0.083
51.5438 0.126
51.5741 0.126
51.6043 -0.187
51.6346 -0.186
51.6649 -0.029
51.6952 -0.185
51.7255 -0.028
51.7557 0.233
51.7860 -0.286
51.8163 -0.285
51.8466 0.289
51.8769 -0.490
51.9071 -0.072
51.9374 -0.070
51.9677 -0.120
51.9980 -0.118
52.0282 -0.533
52.0585 0.095
52.0888 -0.319
52.1191 -0.004
52.1494 -0.262
52.1796 0.210
52.2099 -0.516
52.2402 -0.200
52.2705 -0.092
52.3008 -0.453
52.3310 0.123
52.3613 -0.290
52.3916 -0.284
52.4219 -0.123
52.4521 -0.638
52.4824 0.253
52.5127 -0.315
52.5430 -0.205
52.5733 0.582
52.6035 -0.089
52.6338 0.178
52.6641 -0.024
52.6944 0.139
52.7247 0.354
52.7549 -0.160
52.7852 0.055
52.8155 0.219
52.8458 0.122
52.8761 0.181
52.9063 -0.124
52.9366 -0.064
52.9669 -0.056
52.9972 0.004
53.0274 0.221
53.0577 -0.083
53.0880 -0.127
53.1183 0.090
53.1486 -0.058
53.1788 0.264
53.2091 -0.144
53.2394 0.178
53.2697 0.135
53.3000 0.249
53.3302 0.311
53.3605 0.060
53.3908 0.226
53.4211 0.184
53.4513 0.142
53.4816 0.205
53.5119 0.163
53.5422 0.017
53.5725 -0.232
53.6027 -0.341
53.6330 0.384
53.6633 0.172
53.6936 0.115
53.7239 0.372
53.7541 -0.048
53.7844 -0.052
53.8147 0.153
53.8450 0.358
53.8752 0.146
53.9055 -0.013
53.9358 0.193
53.9661 0.190
53.9964 -0.073
54.0266 -0.023
54.0569 0.079
54.0872 0.181
54.1175 0.179
54.1478 0.177
54.1780 0.175
54.2083 0.330
54.2386 0.224
54.2689 0.067
54.2991 0.014
54.3294 0.325
54.3597 -0.196
54.3900 0.116
54.4203 -0.145
54.4505 0.010
54.4808 -0.146
54.5111 0.219
54.5414 0.219
54.5717 0.219
54.6019 0.115
54.6322 0.168
54.6625 0.012
54.6928 0.378
54.7230 0.170
54.7533 0.380
54.7836 0.381
54.8139 0.695
54.8442 0.071
54.8744 0.281
54.9047 0.127
54.9350 -0.079
54.9653 -0.338
54.9956 -0.035
55.0258 0.216
55.0561 0.102
55.0864 -0.168
55.1167 0.604
55.1469 0.178
55.1772 0.013
55.2075 0.212
55.2378 0.256
55.2681 0.508
55.2983 0.083
55.3286 0.126
55.3589 -0.142
55.3892 0.162
55.4195 -0.054
55.4497 0.459
55.4800 0.348
55.5103 0.496
55.5406 0.125
55.5709 0.118
55.6011 0.163
55.6314 -0.261
55.6617 0.774
55.6920 0.299
55.7222 0.553
55.7525 0.078
55.7828 0.853
55.8131 0.222
55.8434 0.581
55.8736 0.315
55.9039 0.674
55.9342 0.513
55.9645 0.507
55.9948 1.127
56.0250 0.237
56.0553 1.014
56.0856 1.374
56.1159 1.317
56.1461 1.261
56.1764 1.934
56.2067 2.503
56.2370 2.499
56.2673 3.328
56.2975 3.793
56.3278 3.946
56.3581 4.620
56.3884 4.513
56.4187 4.770
56.4489 5.028
56.4792 5.233
56.5095 4.033
56.5398 4.083
56.5700 5.018
56.6003 3.349
56.6306 3.451
56.6609 2.564
56.6912 3.240
56.7214 2.665
56.7517 1.987
56.7820 1.308
56.8123 1.464
56.8426 0.994
56.8728 1.097
56.9031 0.576
56.9334 1.200
56.9637 0.627
56.9939 0.627
57.0242 0.262
57.0545 0.679
57.0848 0.211
57.1151 0.523
57.1453 0.003
57.1756 0.056
57.2059 0.005
57.2362 0.214
57.2665 0.423
57.2967 -0.096
57.3270 0.010
57.3573 -0.249
57.3876 -0.300
57.4178 -0.089
57.4481 -0.346
57.4784 -0.031
57.5087 -0.079
57.5390 -0.232
57.5692 0.240
57.5995 -0.173
57.6298 0.247
57.6601 0.043
57.6904 0.047
57.7206 -0.157
57.7509 -0.101
57.7812 -0.252
57.8115 -0.091
57.8417 0.122
57.8720 -0.082
57.9023 0.080
57.9326 -0.071
57.9629 -0.066
57.9931 -0.529
58.0234 -0.003
58.0537 -0.309
58.0840 0.322
58.1143 -0.349
58.1445 0.022
58.1748 -0.076
58.2051 -0.174
58.2354 -0.063
58.2656 -0.056
58.2959 0.107
58.3262 0.063
58.3565 -0.243
58.3868 -0.339
58.4170 0.189
58.4473 -0.220
58.4776 -0.160
58.5079 -0.100
58.5382 -0.300
58.5684 0.073
58.5987 -0.387
58.6290 0.194
58.6593 -0.266
58.6896 -0.257
58.7198 0.057
58.7501 0.422
58.7804 0.007
58.8107 -0.148
58.8409 0.217
58.8712 -0.146
58.9015 -0.144
58.9318 0.222
58.9621 0.016
58.9923 0.018
59.0226 -0.136
59.0529 -0.394
59.0832 0.129
59.1135 0.236
59.1437 -0.125
59.1740 0.190
59.2043 -0.171
59.2346 0.144
59.2648 0.096
59.2951 0.256
59.3254 -0.418
59.3557 -0.102
59.3860 0.319
59.4162 -0.198
59.4465 -0.297
59.4768 0.176
59.5071 0.389
59.5374 -0.179
59.5676 -0.070
59.5979 0.039
59.6282 0.200
59.6585 -0.159
59.6887 -0.414
59.7190 0.049
59.7493 0.148
59.7796 0.195
59.8099 0.033
59.8401 -0.232
59.8704 -0.185
59.9007 0.175
59.9310 -0.090
59.9613 -0.198
59.9915 0.006
60.0218 0.106
60.0521 -0.158
60.0824 0.150
60.1126 -0.114
60.1429 0.039
60.1732 -0.068
60.2035 -0.072
60.2338 -0.127
60.2640 0.287
60.2943 -0.028
60.3246 0.073
60.3549 -0.033
60.3852 0.225
60.4154 0.066
60.4457 0.169
60.4760 -0.510
60.5063 0.113
60.5365 -0.514
60.5668 -0.203
60.5971 0.056
60.6274 0.160
60.6577 -0.258
60.6879 -0.051
60.7182 0.209
60.7485 0.052
60.7788 0.052
60.8091 -0.105
60.8393 0.051
60.8696 0.052
60.8999 -0.052
60.9302 0.104
60.9604 -0.052
60.9907 0.105
61.0210 0.158
61.0513 0.107
61.0816 -0.257
61.1118 -0.257
61.1421 -0.004
61.1724 0.196
61.2027 -0.019
61.2330 -0.287
61.2632 0.018
61.2935 -0.146
61.3238 -0.257
61.3541 -0.107
61.3844 -0.010
61.4146 0.036
61.4449 -0.023
61.4752 -0.029
61.5055 -0.400
61.5357 -0.093
61.5660 -0.099
61.5963 0.052
61.6266 -0.317
61.6569 0.094
61.6871 -0.171
61.7174 0.241
61.7477 0.132
61.7780 0.284
61.8083 0.071
61.8385 -0.402
61.8688 0.115
61.8991 -0.097
61.9294 0.576
61.9596 0.052
61.9899 0.309
62.0202 0.097
62.0505 0.615
62.0808 -0.013
62.1110 0.244
62.1413 0.398
62.1716 0.864
62.2019 0.757
62.2322 0.286
62.2624 0.440
62.2927 0.386
62.3230 0.593
62.3533 1.320
62.3835 1.267
62.4138 0.953
62.4441 1.993
62.4744 1.784
62.5047 2.460
62.5349 2.094
62.5652 2.198
62.5955 2.354
62.6258 3.551
62.6561 4.072
62.6863 3.968
62.7166 4.020
62.7469 3.655
62.7772 3.760
62.8074 3.813
62.8377 2.615
62.8680 2.876
62.8983 2.877
62.9286 2.670
62.9588 1.526
62.9891 1.683
63.0194 1.581
63.0497 1.478
63.0800 1.480
63.1102 1.169
63.1405 0.911
63.1708 0.653
63.2011 0.864
63.2313 0.814
63.2616 0.452
63.2919 0.351
63.3222 -0.010
63.3525 0.774
63.3827 0.152
63.4130 -0.105
63.4433 0.107
63.4736 -0.149
63.5039 -0.041
63.5341 0.067
63.5644 0.175
63.5947 0.180
63.6250 -0.076
63.6552 0.084
63.6855 0.350
63.7158 0.198
63.7461 -0.005
63.7764 0.209
63.8066 -0.099
63.8369 -0.093
63.8672 -0.296
63.8975 -0.033
63.9278 -0.083
63.9580 0.076
63.9883 -0.025
64.0186 -0.127
64.0489 0.137
64.0791 0.296
64.1094 -0.221
64.1397 -0.166
64.1700 0.202
64.2003 -0.211
64.2305 0.002
64.2608 -0.047
64.2911 0.166
64.3214 -0.403
64.3517 -0.034
64.3819 -0.029
64.4122 -0.181
64.4425 -0.228
64.4728 0.038
64.5031 -0.061
64.5333 -0.004
64.5636 -0.155
64.5939 -0.045
64.6242 0.013
64.6544 0.279
64.6847 -0.079
64.7150 -0.125
64.7453 0.298
64.7756 -0.008
64.8058 0.051
64.8361 -0.307
64.8664 0.065
64.8967 -0.084
64.9270 -0.286
64.9572 -0.030
64.9875 0.122
65.0178 -0.246
65.0481 -0.042
65.0783 0.215
65.1086 -0.310
65.1389 0.311
65.1692 -0.265
65.1995 0.044
65.2297 -0.167
65.2600 0.611
65.2903 0.087
65.3206 0.137
65.3509 -0.178
65.3811 -0.233
65.4114 -0.131
65.4417 -0.393
65.4720 0.014
65.5022 -0.047
65.5325 0.100
65.5628 -0.013
65.5931 -0.230
65.6234 -0.238
65.6536 -0.195
65.6839 -0.046
65.7142 0.466
65.7445 -0.062
65.7748 -0.070
65.8050 -0.078
65.8353 0.175
65.8656 -0.197
65.8959 -0.048
65.9261 0.518
65.9564 -0.218
65.9867 0.088
66.0170 -0.179
66.0473 0.179
66.0775 0.120
66.1078 -0.042
66.1381 0.160
66.1684 0.519
66.1987 0.149
66.2289 0.508
66.2592 0.450
66.2895 0.289
66.3198 0.336
66.3500 0.070
66.3803 0.013
66.4106 0.217
66.4409 0.316
66.4712 -0.053
66.5014 0.152
66.5317 -0.269
66.5620 -0.221
66.5923 -0.225
66.6226 0.188
66.6528 -0.284
66.6831 -0.183
66.7134 -0.030
66.7437 0.123
66.7739 -0.036
66.8042 -0.300
66.8345 -0.147
66.8648 -0.515
66.8951 0.159
66.9253 -0.261
66.9556 -0.003
66.9859 0.463
67.0162 -0.009
67.0465 -0.167
67.0767 0.351
67.1070 0.036
67.1373 -0.122
67.1676 0.032
67.1978 0.239
67.2281 -0.179
67.2584 0.548
67.2887 -0.286
67.3190 -0.183
67.3492 0.701
67.3795 0.284
67.4098 0.283
67.4401 0.803
67.4704 1.063
67.5006 0.438
67.5309 1.167
67.5612 1.323
67.5915 1.584
67.6218 1.792
67.6520 2.001
67.6823 1.481
67.7126 2.159
67.7429 1.899
67.7731 1.848
67.8034 2.110
67.8337 2.268
67.8640 2.790
67.8943 1.802
67.9245 2.741
67.9548 1.545
67.9851 2.276
68.0154 1.914
68.0457 1.448
68.0759 1.554
68.1062 0.880
68.1365 0.779
68.1668 0.365
68.1970 0.576
68.2273 0.580
68.2576 0.270
68.2879 0.170
68.3182 0.226
68.3484 -0.083
68.3787 0.285
68.4090 0.237
68.4393 0.450
68.4696 0.455
68.4998 0.094
68.5301 -0.109
68.5604 0.729
68.5907 0.422
68.6209 0.062
68.6512 -0.245
68.6815 -0.031
68.7118 0.964
68.7421 0.449
68.7723 0.559
68.8026 0.773
68.8329 1.404
68.8632 0.786
68.8935 0.896
68.9237 1.163
68.9540 1.222
68.9843 1.281
69.0146 1.028
69.0448 0.723
69.0751 0.886
69.1054 0.790
69.1357 0.901
69.1660 0.649
69.1962 0.865
69.2265 0.248
69.2568 0.413
69.2871 0.369
69.3174 0.013
69.3476 0.282
69.3779 0.395
69.4082 0.456
69.4385 -0.056
69.4687 0.266
69.4990 -0.141
69.5293 0.546
69.5596 0.139
69.5899 -0.008
69.6201 0.002
69.6504 0.273
69.6807 0.127
69.7110 -0.592
69.7413 0.148
69.7715 0.054
69.8018 0.065
69.8321 0.076
69.8624 0.087
69.8926 -0.110
69.9229 0.006
69.9532 -0.034
69.9835 -0.075
70.0138 0.458
70.0440 0.001
70.0743 0.118
70.1046 -0.182
70.1349 -0.222
70.1652 0.089
70.1954 -0.173
70.2257 0.033
70.2560 0.188
70.2863 0.187
70.3166 -0.126
70.3468 -0.179
70.3771 0.184
70.4074 0.028
70.4377 0.235
70.4679 0.027
70.4982 0.183
70.5285 0.443
70.5588 0.287
70.5891 -0.077
70.6193 -0.025
70.6496 0.392
70.6799 0.081
70.7102 0.081
70.7405 -0.126
70.7707 -0.229
70.8010 0.606
70.8313 -0.122
70.8616 -0.329
70.8918 0.142
70.9221 0.196
70.9524 -0.271
70.9827 0.200
71.0130 0.150
71.0432 -0.316
71.0735 -0.001
71.1038 0.366
71.1341 0.057
71.1644 0.216
71.1946 -0.093
71.2249 -0.090
71.2552 -0.191
71.2855 -0.083
71.3157 0.077
71.3460 -0.075
71.3763 0.085
71.4066 0.193
71.4369 0.042
71.4671 -0.214
71.4974 0.207
71.5277 -0.049
71.5580 -0.044
71.5883 -0.039
71.6185 -0.190
71.6488 -0.038
71.6791 -0.094
71.7094 -0.098
71.7396 -0.207
71.7699 0.206
71.8002 0.046
71.8305 0.095
71.8608 0.300
71.8910 0.244
71.9213 0.345
71.9516 -0.179
71.9819 0.183
72.0122 -0.028
72.0424 -0.135
72.0727 0.332
72.1030 0.173
72.1333 0.067
72.1635 -0.144
72.1938 0.375
72.2241 0.270
72.2544 0.216
72.2847 -0.046
72.3149 -0.047
72.3452 0.056
72.3755 -0.310
72.4058 0.367
72.4361 0.262
72.4663 0.157
72.4966 0.209
72.5269 0.209
72.5572 0.000
72.5874 0.261
72.6177 0.105
72.6480 0.678
72.6783 0.470
72.7086 0.106
72.7388 0.159
72.7691 -0.100
72.7994 0.161
72.8297 0.163
72.8600 0.268
72.8902 -0.095
72.9205 0.011
72.9508 0.169
72.9811 -0.298
73.0113 0.069
73.0416 0.175
73.0719 -0.083
73.1022 0.024
73.1325 0.183
73.1627 -0.127
73.1930 0.137
73.2233 0.036
73.2536 0.143
73.2839 0.043
73.3141 -0.214
73.3444 0.154
73.3747 0.002
73.4050 -0.203
73.4353 0.218
73.4655 -0.038
73.4958 -0.190
73.5261 -0.242
73.5564 0.119
73.5866 -0.198
73.6169 -0.098
73.6472 0.002
73.6775 -0.158
73.7078 -0.110
73.7380 0.147
73.7683 -0.117
73.7986 0.036
73.8289 -0.280
73.8592 0.238
73.8894 0.027
73.9197 0.181
73.9500 -0.030
73.9803 -0.189
74.0105 0.330
74.0408 -0.089
74.0711 -0.143
74.1014 0.116
74.1317 0.010
74.1619 0.164
74.1922 -0.201
74.2225 0.006
74.2528 0.005
74.2831 -0.205
74.3133 -0.102
74.3436 0.001
74.3739 -0.104
74.4042 0.051
74.4344 0.311
74.4647 -0.003
74.4950 0.309
74.5253 -0.160
74.5556 -0.056
74.5858 -0.056
74.6161 0.101
74.6464 0.153
74.6767 -0.055
74.7070 -0.159
74.7372 0.206
74.7675 -0.053
74.7978 0.312
74.8281 0.001
74.8583 -0.050
74.8886 -0.205
74.9189 -0.154
74.9492 -0.050
74.9795 -0.207
75.0097 0.000
75.0400 0.052
75.0703 0.104
75.1006 0.000
75.1309 0.000
75.1611 0.052
75.1914 0.156
75.2217 -0.156
75.2520 0.209
75.2822 -0.155
75.3125 -0.102
75.3428 -0.205
75.3731 -0.051
75.4034 0.000
75.4336 -0.106
75.4639 -0.056
75.4942 0.099
75.5245 -0.163
75.5548 0.253
75.5850 -0.061
75.6153 0.199
75.6456 0.198
75.6759 -0.219
75.7061 -0.168
75.7364 0.093
75.7667 -0.116
75.7970 0.144
75.8273 -0.064
75.8575 0.041
75.8878 0.093
75.9181 -0.323
75.9484 0.095
75.9787 -0.061
76.0089 0.044
76.0392 0.150
76.0695 -0.214
76.0998 -0.004
76.1301 -0.054
76.1603 -0.105
76.1906 0.002
76.2209 -0.205
76.2512 -0.105
76.2814 0.255
76.3117 0.147
76.3420 0.143
76.3723 0.087
76.4026 -0.073
76.4328 0.080
76.4631 0.025
76.4934 0.386
76.5237 -0.346
76.5540 0.380
76.5842 -0.040
76.6145 0.114
76.6448 -0.097
76.6751 0.057
76.7053 0.315
76.7356 0.209
76.7659 0.103
76.7962 0.570
76.8265 -0.057
76.8567 0.567
76.8870 0.097
76.9173 0.096
76.9476 0.095
76.9779 0.198
77.0081 -0.011
77.0384 0.405
77.0687 -0.012
77.0990 0.196
77.1292 0.092
77.1595 -0.013
77.1898 -0.012
77.2201 0.040
77.2504 0.092
77.2806 0.093
77.3109 0.094
77.3412 0.147
77.3715 0.252
77.4018 -0.007
77.4320 0.098
77.4623 -0.369
77.4926 0.258
77.5229 -0.053
77.5531 0.105
77.5834 0.055
77.6137 0.109
77.6440 0.059
77.6743 0.062
77.7045 0.377
77.7348 0.067
77.7651 -0.034
77.7954 -0.031
77.8257 -0.080
77.8559 -0.337
77.8862 0.031
77.9165 -0.017
77.9468 -0.065
77.9770 -0.113
78.0073 -0.161
78.0376 -0.157
78.0679 -0.205
78.0982 -0.152
78.1284 0.161
78.1587 -0.046
78.1890 -0.045
78.2193 -0.149
78.2496 0.217
78.2798 -0.146
78.3101 -0.196
78.3404 -0.143
78.3707 0.120
78.4009 -0.295
78.4312 -0.032
78.4615 0.126
78.4918 0.077
78.5221 0.183
78.5523 -0.126
78.5826 0.033
78.6129 -0.173
78.6432 -0.169
78.6735 -0.166
78.7037 0.306
78.7340 0.362
78.7643 -0.103
78.7946 -0.151
78.8248 -0.095
78.8551 -0.039
78.8854 0.017
78.9157 -0.134
78.9460 0.079
78.9762 0.292
79.0065 -0.016
79.0368 0.250
79.0671 0.047
79.0974 0.260
79.1276 -0.047
79.1579 0.272
79.1882 0.173
79.2185 0.023
79.2488 -0.127
79.2790 -0.173
79.3093 -0.129
79.3396 0.020
79.3699 0.065
79.4001 0.057
79.4304 0.154
79.4607 0.147
79.4910 -0.016
79.5213 -0.127
79.5515 -0.081
79.5818 0.329
79.6121 0.114
79.6424 -0.100
79.6727 0.154
79.7029 -0.008
79.7332 0.195
79.7635 0.085
79.7938 0.079
79.8240 -0.082
79.8543 -0.035
79.8846 0.168
79.9149 0.007
79.9452 -0.102
79.9754 -0.211
80.0057 0.150
80.0360 -0.063
80.0663 0.141
80.0966 -0.019
80.1268 -0.075
80.1571 -0.078
80.1874 0.126
80.2177 -0.294
80.2479 0.120
80.2782 0.169
80.3085 0.218
80.3388 0.007
80.3691 0.108
80.3993 -0.050
80.4296 -0.365
80.4599 0.101
80.4902 -0.109
80.5205 -0.163
80.5507 -0.373
80.5810 0.198
80.6113 0.093
80.6416 -0.013
80.6718 0.090
80.7021 -0.171
80.7324 0.088
80.7627 -0.069
80.7930 -0.226
80.8232 0.295
80.8535 -0.174
80.8838 0.138
80.9141 0.034
80.9444 -0.070
80.9746 -0.382
81.0049 -0.020
81.0352 0.083
81.0655 0.237
81.0957 -0.285
81.1260 -0.026
81.1563 -0.132
81.1866 0.128
81.2169 0.127
81.2471 -0.239
81.2774 -0.135
81.3077 -0.083
81.3380 0.229
81.3683 -0.084
81.3985 0.385
81.4288 -0.240
81.4591 0.072
81.4894 0.073
81.5196 -0.031
81.5499 0.126
81.5802 0.075
81.6105 -0.080
81.6408 -0.027
81.6710 0.339
81.7013 0.392
81.7316 -0.023
81.7619 0.031
81.7922 0.241
81.8224 0.139
81.8527 0.193
81.8830 -0.117
81.9133 0.250
81.9436 -0.373
81.9738 -0.058
82.0041 0.154
82.0344 -0.156
82.0647 -0.153
82.0949 -0.097
82.1252 -0.354
82.1555 0.014
82.1858 -0.035
82.2161 0.125
82.2463 0.025
82.2766 0.133
82.3069 0.137
82.3372 0.142
82.3675 -0.271
82.3977 0.151
82.4280 -0.105
82.4583 0.160
82.4886 0.009
82.5188 -0.246
82.5491 -0.090
82.5794 0.326
82.6097 -0.092
82.6400 0.169
82.6702 0.168
82.7005 0.168
82.7308 -0.248
82.7611 0.169
82.7914 0.013
82.8216 -0.195
82.8519 0.066
82.8822 0.223
82.9125 0.172
82.9427 -0.035
82.9730 0.018
83.0033 -0.084
83.0336 -0.135
83.0639 0.179
83.0941 0.233
83.1244 0.027
83.1547 0.029
83.1850 -0.021
83.2153 0.086
83.2455 -0.276
83.2758 0.092
83.3061 0.146
83.3364 0.045
83.3666 -0.160
83.3969 0.104
83.4272 0.160
83.4575 0.007
83.4878 -0.145
83.5180 -0.037
83.5483 -0.190
83.5786 -0.133
83.6089 0.132
83.6392 -0.019
83.6694 -0.066
83.6997 -0.113
83.7300 0.153
83.7603 0.211
83.7905 0.268
83.8208 0.118
83.8511 0.280
83.8814 0.234
83.9117 -0.124
83.9419 0.299
83.9722 -0.111
84.0025 -0.313
84.0328 0.046
84.0631 0.249
84.0933 0.140
84.1236 0.291
84.1539 0.026
84.1842 -0.031
84.2144 -0.140
84.2447 -0.144
84.2750 -0.045
84.3053 0.368
84.3356 0.260
84.3658 0.256
84.3961 0.252
84.4264 0.144
84.4567 0.245
84.4870 0.242
84.5172 -0.074
84.5475 -0.077
84.5778 -0.028
84.6081 -0.187
84.6383 -0.190
84.6686 0.121
84.6989 0.119
84.7292 0.013
84.7595 -0.249
84.7897 0.114
84.8200 0.164
84.8503 -0.045
84.8806 -0.046
84.9109 -0.099
84.9411 0.108
84.9714 0.003
85.0017 0.107
85.0320 0.055
85.0623 0.107
85.0925 0.211
85.1228 0.107
85.1531 0.211
85.1834 0.159
85.2136 -0.205
85.2439 0.056
85.2742 0.213
85.3045 0.110
85.3348 -0.097
85.3650 -0.148
85.3953 0.010
85.4256 0.063
85.4559 0.013
85.4862 -0.246
85.5164 -0.035
85.5467 -0.190
85.5770 -0.243
85.6073 0.329
85.6375 0.067
85.6678 -0.090
85.6981 0.169
85.7284 0.064
85.7587 0.168
85.7889 -0.041
85.8192 -0.145
85.8495 0.323
85.8798 0.219
85.9101 -0.093
85.9403 0.115
85.9706 0.116
86.0009 0.012
86.0312 0.013
86.0614 0.014
86.0917 0.275
86.1220 0.120
86.1523 -0.087
86.1826 -0.190
86.2128 -0.190
86.2431 -0.138
86.2734 -0.035
86.3037 0.069
86.3340 0.225
86.3642 -0.192
86.3945 0.329
86.4248 -0.192
86.4551 0.069
86.4853 0.017
86.5156 0.070
86.5459 -0.190
86.5762 -0.242
86.6065 0.120
86.6367 -0.247
86.6670 -0.146
86.6973 -0.096
86.7276 0.110
86.7579 -0.100
86.7881 -0.102
86.8184 0.104
86.8487 0.207
86.8790 0.049
86.9092 0.256
86.9395 0.046
86.9698 -0.059
87.0001 0.252
87.0304 0.304
87.0606 0.355
87.0909 -0.166
87.1212 0.302
87.1515 0.146
87.1818 0.094
87.2120 -0.063
87.2423 0.146
87.2726 -0.114
87.3029 -0.218
87.3331 0.043
87.3634 -0.166
87.3937 0.147
87.4240 -0.217
87.4543 -0.008
87.4845 0.045
87.5148 0.046
87.5451 -0.057
87.5754 0.152
87.6057 0.102
87.6359 -0.157
87.6662 -0.052
87.6965 0.054
87.7268 0.160
87.7571 -0.046
87.7873 -0.044
87.8176 0.115
87.8479 -0.299
87.8782 -0.140
87.9084 -0.190
87.9387 0.013
87.9690 0.215
87.9993 0.000
88.0296 -0.110
88.0598 -0.063
88.0901 0.088
88.1204 -0.022
88.1507 -0.131
88.1810 -0.032
88.2112 0.171
88.2415 0.166
88.2718 0.162
88.3021 -0.207
88.3323 0.153
88.3626 0.513
88.3929 0.092
88.4232 0.036
88.4535 -0.071
88.4837 0.133
88.5140 -0.183
88.5443 0.231
88.5746 0.123
88.6049 0.016
88.6351 0.117
88.6654 -0.146
88.6957 -0.044
88.7260 -0.203
88.7562 0.107
88.7865 0.261
88.8168 -0.053
88.8471 -0.055
88.8774 0.256
88.9076 0.046
88.9379 -0.060
88.9682 0.095
88.9985 0.511
89.0288 0.093
89.0590 0.405
89.0893 -0.012
89.1196 -0.273
89.1499 0.455
89.1801 0.195
89.2104 0.090
89.2407 0.195
89.2710 0.351
89.3013 0.195
89.3315 0.196
89.3618 0.873
89.3921 0.562
89.4224 0.615
89.4527 0.199
89.4829 0.200
89.5132 0.410
89.5435 0.151
89.5738 0.830
89.6040 0.415
89.6343 0.730
89.6646 0.575
89.6949 -0.047
89.7252 0.320
89.7554 0.739
89.7857 1.054
89.8160 0.119
89.8463 0.018
89.8766 0.282
89.9068 0.233
89.9371 0.132
89.9674 0.344
89.9977 0.296
90.0279 0.248
90.0582 -0.009
90.0885 0.152
90.1188 0.000
90.1491 0.004
90.1793 0.217
90.2096 0.326
90.2399 0.279
90.2702 -0.133
90.3005 -0.023
90.3307 -0.018
90.3610 -0.117
90.3913 -0.007
90.4216 -0.053
90.4518 0.161
90.4821 -0.093
90.5124 0.017
90.5427 0.388
90.5730 0.134
90.6032 -0.120
90.6335 0.252
90.6638 0.102
90.6941 0.110
90.7244 -0.039
90.7546 0.333
90.7849 -0.129
90.8152 -0.173
90.8455 -0.079
90.8758 0.172
90.9060 0.215
90.9363 0.206
90.9666 0.041
90.9969 0.188
91.0271 0.387
91.0574 0.170
91.0877 -0.046
91.1180 0.206
91.1483 0.041
91.1785 -0.019
91.2088 -0.131
91.2391 0.174
91.2694 0.062
91.2997 -0.102
91.3299 -0.005
91.3602 -0.168
91.3905 0.137
91.4208 -0.338
91.4510 -0.085
91.4813 0.117
91.5116 0.319
91.5419 -0.104
91.5722 -0.318
91.6024 0.092
91.6327 -0.330
91.6630 -0.178
91.6933 0.235
91.7236 0.075
91.7538 -0.242
91.7841 0.067
91.8144 0.116
91.8447 0.061
91.8749 -0.203
91.9052 0.055
91.9355 0.052
91.9658 -0.055
91.9961 -0.005
92.0263 0.097
92.0566 -0.062
92.0869 0.197
92.1172 -0.118
92.1475 -0.015
92.1777 -0.069
92.2080 0.086
92.2383 -0.072
92.2686 0.031
92.2988 -0.074
92.3291 0.029
92.3594 -0.075
92.3897 -0.076
92.4200 -0.076
92.4502 -0.129
92.4805 0.184
92.5108 0.079
92.5411 -0.337
92.5714 0.028
92.6016 0.132
92.6319 0.029
92.6622 -0.231
92.6925 0.031
92.7227 -0.177
92.7530 0.085
92.7833 0.242
92.8136 0.036
92.8439 -0.223
92.8741 0.091
92.9044 0.041
92.9347 0.043
92.9650 -0.007
92.9953 -0.161
93.0255 -0.210
93.0558 -0.051
93.0861 -0.049
93.1164 -0.410
93.1466 -0.044
93.1769 -0.043
93.2072 -0.093
93.2375 0.065
93.2678 0.223
93.2980 -0.191
93.3283 -0.033
93.3586 -0.291
93.3889 0.233
93.4192 -0.285
93.4494 0.082
93.4797 -0.123
93.5100 0.088
93.5403 -0.117
93.5706 -0.009
93.6008 0.047
93.6311 -0.054
93.6614 0.106
93.6917 0.006
93.7219 -0.354
93.7522 -0.094
93.7825 0.114
93.8128 -0.043
93.8431 -0.095
93.8733 -0.147
93.9036 -0.198
93.9339 -0.250
93.9642 0.109
93.9945 -0.104
94.0247 -0.109
94.0550 0.251
94.0853 -0.170
94.1156 -0.071
94.1458 -0.179
94.1761 -0.183
94.2064 -0.187
94.2367 0.225
94.2670 0.013
94.2972 0.062
94.3275 -0.306
94.3578 -0.155
94.3881 0.257
94.4184 -0.112
94.4486 -0.065
94.4789 0.035
94.5092 -0.438
94.5395 -0.025
94.5697 0.127
94.6000 0.280
94.6303 -0.037
94.6606 -0.196
94.6909 0.061
94.7211 0.162
94.7514 0.263
94.7817 -0.001
94.8120 -0.055
94.8423 -0.058
94.8725 0.148
94.9028 -0.011
94.9331 0.456
94.9634 0.193
94.9936 0.139
95.0239 0.034
95.0542 0.449
95.0845 0.187
95.1148 0.342
95.1450 0.080
95.1753 0.340
95.2056 0.235
95.2359 0.182
95.2662 0.598
95.2964 0.129
95.3267 0.337
95.3570 -0.028
95.3873 -0.080
95.4175 0.233
95.4478 0.285
95.4781 0.286
95.5084 0.026
95.5387 -0.026
95.5689 0.496
95.5992 0.341
95.6295 0.342
95.6598 0.291
95.6901 0.033
95.7203 0.086
95.7506 -0.016
95.7809 -0.014
95.8112 -0.012
95.8414 -0.010
95.8717 0.045
95.9020 -0.057
95.9323 0.102
95.9626 0.105
95.9928 0.056
96.0231 -0.045
96.0534 0.062
96.0837 0.326
96.1140 -0.087
96.1442 0.021
96.1745 -0.132
96.2048 -0.128
96.2351 0.033
96.2653 0.141
96.2956 0.250
96.3259 -0.319
96.3562 -0.054
96.3865 0.107
96.4167 0.008
96.4470 -0.403
96.4773 -0.033
96.5076 -0.236
96.5379 0.238
96.5681 -0.329
96.5984 -0.219
96.6287 -0.219
96.6590 0.041
96.6893 -0.168
96.7195 -0.012
96.7498 0.144
96.7801 -0.168
96.8104 -0.012
96.8406 -0.012
96.8709 -0.115
96.9012 -0.219
96.9315 -0.063
96.9618 -0.220
96.9920 0.092
97.0223 0.092
97.0526 -0.168
97.0829 0.040
97.1132 0.561
97.1434 -0.063
97.1737 -0.219
97.2040 -0.169
97.2343 -0.120
97.2645 -0.226
97.2948 0.031
97.3251 0.445
97.3554 -0.026
97.3857 -0.029
97.4159 0.073
97.4462 0.019
97.4765 0.017
97.5068 0.067
97.5371 -0.091
97.5673 -0.041
97.5976 0.374
97.6279 -0.304
97.6582 0.111
97.6884 0.110
97.7187 -0.151
97.7490 -0.152
97.7793 -0.204
97.8096 0.003
97.8398 -0.153
97.8701 -0.101
97.9004 -0.049
97.9307 0.003
97.9610 0.003
97.9912 -0.361
98.0215 0.213
98.0518 0.109
98.0821 0.162
98.1123 -0.097
98.1426 0.268
98.1729 0.113
98.2032 0.011
98.2335 0.585
98.2637 -0.038
98.2940 -0.140
98.3243 0.018
98.3546 0.072
98.3849 0.491
98.4151 0.129
98.4454 0.340
98.4757 0.343
98.5060 0.137
98.5362 -0.016
98.5665 0.039
98.5968 0.407
98.6271 0.150
98.6574 0.050
98.6876 0.158
98.7179 0.005
98.7482 0.478
98.7785 0.118
98.8088 0.383
98.8390 0.387
98.8693 0.392
98.8996 0.188
98.9299 -0.015
98.9601 -0.114
98.9904 -0.005
99.0207 0.365
99.0510 0.267
99.0813 0.012
99.1115 0.330
99.1418 0.284
99.1721 0.238
99.2024 -0.068
99.2327 0.251
99.2629 0.257
99.2932 0.108
99.3235 -0.094
99.3538 -0.139
99.3841 0.285
99.4143 0.397
99.4446 0.456
99.4749 0.256
99.5052 0.263
99.5354 0.167
99.5657 0.279
99.5960 -0.077
99.6263 -0.173
99.6566 -0.173
99.6868 0.081
99.7171 0.023
99.7474 0.017
99.7777 -0.041
99.8080 -0.046
99.8382 0.365
99.8685 0.099
99.8988 0.094
99.9291 0.193
99.9593 0.240
99.9896 0.236
100.0199 0.544
100.0502 0.383
100.0805 -0.246
100.1107 0.687
100.1410 -0.046
100.1713 0.002
100.2016 0.051
100.2319 0.099
100.2621 0.044
100.2924 0.145
100.3227 0.246
100.3530 0.243
100.3832 0.292
100.4135 0.289
100.4438 0.078
100.4741 -0.080
100.5044 0.022
100.5346 0.436
100.5649 -0.034
100.5952 0.068
100.6255 -0.090
100.6558 -0.039
100.6860 0.064
100.7163 0.114
100.7466 -0.095
100.7769 0.112
100.8071 0.268
100.8374 0.163
100.8677 -0.046
100.8980 -0.046
100.9283 -0.202
100.9585 0.058
100.9888 0.006
101.0191 0.058
101.0494 -0.045
101.0797 -0.097
101.1099 -0.096
101.1402 0.321
101.1705 -0.303
101.2008 -0.041
101.2310 0.377
101.2613 0.014
101.2916 0.172
101.3219 0.173
101.3522 0.332
101.3824 0.021
101.4127 0.180
101.4430 0.026
101.4733 0.132
101.5036 0.239
101.5338 0.190
101.5641 0.088
101.5944 -0.065
101.6247 -0.218
101.6549 -0.019
101.6852 0.231
101.7155 0.117
101.7458 0.316
101.7761 -0.110
101.8063 -0.067
101.8366 -0.076
101.8669 0.176
101.8972 -0.041
101.9275 0.158
101.9577 0.150
101.9880 -0.015
102.0183 0.029
102.0486 0.177
102.0788 0.170
102.1091 0.318
102.1394 -0.262
102.1697 -0.009
102.2000 0.035
102.2302 -0.232
102.2605 -0.135
102.2908 0.171
102.3211 -0.200
102.3514 -0.155
102.3816 0.412
102.4119 0.093
102.4422 -0.069
102.4725 0.133
102.5028 0.075
102.5330 0.070
102.5633 -0.196
102.5936 -0.150
102.6239 0.418
102.6541 0.153
102.6844 -0.269
102.7147 -0.013
102.7450 0.034
102.7753 -0.074
102.8055 0.182
102.8358 0.073
102.8661 0.330
102.8964 0.274
102.9267 -0.251
102.9569 -0.202
102.9872 0.055
103.0175 0.052
103.0478 -0.004
103.0780 0.098
103.1083 -0.270
103.1386 0.144
103.1689 -0.015
103.1992 0.087
103.2294 0.033
103.2597 -0.073
103.2900 -0.232
103.3203 -0.025
103.3506 0.077
103.3808 -0.080
103.4111 0.074
103.4414 -0.031
103.4717 -0.501
103.5019 -0.084
103.5322 -0.032
103.5625 -0.083
103.5928 0.074
103.6231 0.387
103.6533 0.127
103.6836 -0.028
103.7139 -0.027
103.7442 0.026
103.7745 -0.128
103.8047 0.342
103.8350 -0.073
103.8653 0.241
103.8956 -0.121
103.9258 -0.015
103.9561 0.092
103.9864 0.198
104.0167 0.514
104.0470 0.204
104.0772 0.207
104.1075 0.210
104.1378 0.265
104.1681 0.268
104.1984 0.532
104.2286 0.432
104.2589 -0.033
104.2892 0.023
104.3195 0.079
104.3497 -0.125
104.3800 0.036
104.4103 0.509
104.4406 0.461
104.4709 -0.055
104.5011 0.263
104.5314 0.060
104.5617 0.065
104.5920 0.175
104.6223 0.232
104.6525 -0.387
104.6828 0.087
104.7131 0.146
104.7434 -0.005
104.7736 0.106
104.8039 0.217
104.8342 -0.141
104.8645 0.021
104.8948 0.028
104.9250 -0.121
104.9553 -0.010
104.9856 0.154
105.0159 0.162
105.0462 0.273
105.0764 -0.084
105.1067 0.289
105.1370 0.193
105.1673 0.253
105.1975 -0.155
105.2278 0.218
105.2581 0.331
105.2884 0.235
105.3187 0.244
105.3489 0.045
105.3792 0.367
105.4095 0.012
105.4398 0.177
105.4701 -0.178
105.5003 0.093
105.5306 0.051
105.5609 -0.044
105.5912 -0.242
105.6215 -0.040
105.6517 -0.308
105.6820 0.311
105.7123 0.304
105.7426 -0.015
105.7728 0.031
105.8031 0.076
105.8334 0.175
105.8637 -0.092
105.8940 0.007
105.9242 0.470
105.9545 -0.056
105.9848 -0.114
106.0151 0.141
106.0454 -0.124
106.0756 -0.181
106.1059 0.231
106.1362 0.226
106.1665 0.170
106.1967 0.426
106.2270 0.005
106.2573 -0.259
106.2876 0.101
106.3179 0.358
106.3481 0.094
106.3784 0.195
106.4087 -0.173
106.4390 0.189
106.4693 -0.075
106.4995 -0.130
106.5298 0.024
106.5601 -0.135
106.5904 -0.241
106.6206 0.173
106.6509 -0.037
106.6812 -0.196
106.7115 -0.093
106.7418 -0.199
106.7720 0.008
106.8023 -0.306
106.8326 -0.101
106.8629 0.000
106.8932 -0.002
106.9234 0.203
106.9537 -0.164
106.9840 -0.114
107.0143 0.196
107.0445 0.142
107.0748 -0.016
107.1051 0.035
107.1354 0.189
107.1657 -0.073
107.1959 0.343
107.2262 -0.023
107.2565 -0.180
107.2868 -0.129
107.3171 -0.182
107.3473 -0.026
107.3776 -0.027
107.4079 -0.287
107.4382 0.077
107.4684 -0.027
107.4987 0.181
107.5290 -0.131
107.5593 -0.078
107.5896 -0.025
107.6198 -0.129
107.6501 -0.232
107.6804 -0.026
107.7107 -0.288
107.7410 0.075
107.7712 0.178
107.8015 0.021
107.8318 0.124
107.8621 0.279
107.8923 0.122
107.9226 -0.191
107.9529 -0.036
107.9832 0.172
108.0135 -0.192
108.0437 -0.140
108.0740 0.016
108.1043 -0.088
108.1346 0.017
108.1649 -0.087
108.1951 -0.034
108.2254 0.019
108.2557 -0.085
108.2860 -0.188
108.3163 0.126
108.3465 0.075
108.3768 -0.079
108.4071 -0.182
108.4374 -0.232
108.4676 -0.180
108.4979 0.498
108.5282 0.290
108.5585 0.239
108.5888 0.084
108.6190 0.189
108.6493 0.295
108.6796 -0.069
108.7099 -0.119
108.7402 -0.378
108.7704 0.145
108.8007 -0.061
108.8310 0.097
108.8613 0.047
108.8915 0.362
108.9218 -0.208
108.9521 0.159
108.9824 0.162
109.0127 0.165
109.0429 0.012
109.0732 -0.141
109.1035 -0.033
109.1338 0.283
109.1641 0.599
109.1943 -0.022
109.2246 -0.226
109.2549 -0.074
109.2852 0.235
109.3154 0.283
109.3457 0.279
109.3760 -0.193
109.4063 -0.093
109.4366 0.060
109.4668 -0.359
109.4971 0.054
109.5274 0.156
109.5577 0.153
109.5880 0.150
109.6182 0.304
109.6485 -0.115
109.6788 0.300
109.7091 -0.379
109.7393 0.296
109.7696 0.086
109.7999 -0.280
109.8302 0.240
109.8605 -0.126
109.8907 0.081
109.9210 0.236
109.9513 -0.285
109.9816 0.027
110.0119 -0.182
110.0421 -0.131
110.0724 0.234
110.1027 0.078
110.1330 0.182
110.1632 -0.130
110.1935 0.182
110.2238 0.183
110.2541 -0.129
110.2844 -0.232
110.3146 0.027
110.3449 -0.131
110.3752 0.024
110.4055 0.335
110.4358 0.022
110.4660 0.229
110.4963 -0.136
110.5266 0.176
110.5569 0.436
110.5871 0.280
110.6174 0.436
110.6477 0.228
110.6780 0.071
110.7083 0.124
110.7385 0.489
110.7688 0.438
110.7991 0.126
110.8294 0.127
110.8597 0.128
110.8899 0.077
110.9202 -0.026
110.9505 0.288
110.9808 0.186
111.0110 0.188
111.0413 -0.123
111.0716 0.087
111.1019 0.038
111.1322 0.196
111.1624 0.303
111.1927 0.149
111.2230 -0.212
111.2533 -0.001
111.2836 0.054
111.3138 -0.151
111.3441 0.061
111.3744 0.221
111.4047 -0.244
111.4350 0.020
111.4652 0.128
111.4955 -0.441
111.5258 0.137
111.5561 -0.015
111.5863 -0.219
111.6166 -0.224
111.6469 0.136
111.6772 0.079
111.7075 0.075
111.7377 0.174
111.7680 -0.142
111.7983 0.062
111.8286 -0.098
111.8589 0.106
111.8891 0.155
111.9194 -0.318
111.9497 0.200
111.9800 0.040
112.0102 0.141
112.0405 0.086
112.0708 -0.229
112.1011 0.185
112.1314 -0.234
112.1616 -0.080
112.1919 0.386
112.2222 -0.032
112.2525 -0.295
112.2828 0.120
112.3130 -0.298
112.3433 -0.091
112.3736 0.064
112.4039 0.271
112.4341 -0.042
112.4644 -0.408
112.4947 0.060
112.5250 -0.149
112.5553 0.111
112.5855 0.059
112.6158 -0.098
112.6461 0.111
112.6764 0.371
112.7067 -0.305
112.7369 -0.149
112.7672 0.112
112.7975 -0.095
112.8278 0.062
112.8580 -0.250
112.8883 -0.092
112.9186 -0.091
112.9489 0.119
112.9792 -0.140
113.0094 -0.190
113.0397 -0.188
113.0700 -0.134
113.1003 -0.184
113.1306 0.027
113.1608 -0.179
113.1911 0.188
113.2214 0.191
113.2517 -0.171
113.2819 0.093
113.3122 0.044
113.3425 0.308
113.3728 0.364
113.4031 -0.102
113.4333 -0.254
113.4636 0.008
113.4939 0.374
113.5242 -0.146
113.5545 0.169
113.5847 0.118
113.6150 0.016
113.6453 -0.034
113.6756 -0.083
113.7058 0.023
113.7361 0.130
113.7664 0.081
113.7967 -0.177
113.8270 -0.278
113.8572 0.084
113.8875 -0.180
113.9178 0.287
113.9481 -0.289
113.9784 0.178
114.0086 0.436
114.0389 -0.035
114.0692 0.068
114.0995 -0.090
114.1298 -0.144
114.1600 0.219
114.1903 0.218
114.2206 -0.200
114.2509 0.216
114.2811 0.267
114.3114 0.058
114.3417 -0.151
114.3720 -0.151
114.4023 0.213
114.4325 0.005
114.4628 -0.204
114.4931 0.005
114.5234 -0.047
114.5537 0.058
114.5839 -0.306
114.6142 -0.157
114.6445 -0.007
114.6748 -0.222
114.7050 -0.228
114.7353 -0.078
114.7656 0.020
114.7959 0.223
114.8262 -0.304
114.8564 0.263
114.8867 0.154
114.9170 0.253
114.9473 0.091
114.9776 -0.070
115.0078 0.342
115.0381 0.337
115.0684 -0.344
115.0987 -0.245
115.1289 -0.196
115.1592 0.217
115.1895 0.162
115.2198 -0.258
115.2501 -0.105
115.2803 -0.055
115.3106 0.098
115.3409 -0.113
115.3712 0.041
115.4015 -0.430
115.4317 0.141
115.4620 -0.121
115.4923 0.138
115.5226 -0.281
115.5528 0.187
115.5831 0.029
115.6134 0.028
115.6437 0.079
115.6740 0.286
115.7042 0.025
115.7345 0.181
115.7648 0.285
115.7951 0.232
115.8254 0.024
115.8556 -0.133
115.8859 0.336
115.9162 0.180
115.9465 0.181
115.9767 -0.027
116.0070 0.391
116.0373 0.496
116.0676 0.340
116.0979 0.394
116.1281 0.343
116.1584 0.969
116.1887 0.398
116.2190 0.712
116.2493 0.298
116.2795 0.404
116.3098 0.406
116.3401 0.408
116.3704 0.567
116.4006 0.101
116.4309 0.416
116.4612 0.159
116.4915 0.058
116.5218 0.582
116.5520 -0.196
116.5823 0.276
116.6126 0.592
116.6429 0.179
116.6732 0.548
116.7034 0.240
116.7337 0.556
116.7640 0.352
116.7943 0.722
116.8245 0.153
116.8548 0.158
116.8851 0.215
116.9154 0.064
116.9457 -0.139
116.9759 -0.029
117.0062 0.185
117.0365 0.347
117.0668 -0.012
117.0971 0.098
117.1273 0.052
117.1576 -0.254
117.1879 -0.154
117.2182 -0.053
117.2485 0.100
117.2787 0.305
117.3090 0.041
117.3393 -0.014
117.3696 0.035
117.3998 0.345
117.4301 0.238
117.4604 -0.077
117.4907 0.077
117.5210 -0.341
117.5512 0.021
117.5815 0.124
117.6118 -0.191
117.6421 0.537
117.6724 -0.037
117.7026 -0.143
117.7329 -0.144
117.7632 0.272
117.7935 0.063
117.8237 0.010
117.8540 0.426
117.8843 0.113
117.9146 0.269
117.9449 -0.304
117.9751 -0.043
118.0054 0.113
118.0357 -0.251
118.0660 0.218
118.0963 0.011
118.1265 0.011
118.1568 -0.300
118.1871 0.066
118.2174 -0.194
118.2476 -0.088
118.2779 0.434
118.3082 0.019
118.3385 0.177
118.3688 0.023
118.3990 -0.027
118.4293 0.288
118.4596 -0.022
118.4899 -0.124
118.5202 -0.017
118.5504 -0.066
118.5807 -0.167
118.6110 0.148
118.6413 0.308
118.6715 -0.053
118.7018 0.107
118.7321 0.163
118.7624 0.166
118.7927 -0.142
118.8229 0.071
118.8532 -0.238
118.8835 0.392
118.9138 -0.072
118.9441 -0.068
118.9743 -0.219
119.0046 -0.062
119.0349 0.200
119.0652 0.149
119.0954 -0.005
119.1257 0.205
119.1560 0.310
119.1863 -0.313
119.2166 0.054
119.2468 -0.204
119.2771 0.319
119.3074 -0.095
119.3377 0.012
119.3680 0.119
119.3982 0.018
119.4285 0.489
119.4588 0.389
119.4891 0.340
119.5193 -0.021
119.5496 -0.018
119.5799 -0.222
119.6102 -0.078
119.6405 -0.038
119.6707 -0.155
119.7010 -0.219
119.7313 -0.057
119.7616 -0.051
119.7919 0.163
119.8221 0.273
119.8524 -0.189
119.8827 0.025
119.9130 0.240
119.9433 -0.118
119.9735 0.566
120.0038 0.000
