'Id: "" Comment: "" Operator: "Lab Manager" Anode: "Cu" Scantype: "Locked Coupled" TimePerStep: "19.2" X: "9999" Y: "9999" Z: "9999" 
10.0015 0.000
10.0318 1.759
10.0620 0.446
10.0923 0.696
10.1226 -0.460
10.1529 0.936
10.1832 0.875
10.2134 0.709
10.2437 0.909
10.2740 0.275
10.3043 0.736
10.3346 0.624
10.3648 1.033
10.3951 0.609
10.4254 1.227
10.4557 0.440
10.4859 0.225
10.5162 0.688
10.5465 1.516
10.5768 0.938
10.6071 0.256
10.6373 0.617
10.6676 0.144
10.6979 0.401
10.7282 0.762
10.7585 0.915
10.7887 0.288
10.8190 0.286
10.8493 1.117
10.8796 1.064
10.9098 0.281
10.9401 1.218
10.9704 -0.033
11.0007 0.644
11.0310 0.749
11.0612 1.270
11.0915 1.167
11.1218 0.856
11.1521 0.805
11.1824 -0.182
11.2126 0.653
11.2429 0.917
11.2732 -0.122
11.3035 1.079
11.3337 0.823
11.3640 0.410
11.3943 -0.002
11.4246 0.836
11.4549 0.164
11.4851 0.170
11.5154 0.280
11.5457 0.078
11.5760 0.292
11.6063 0.924
11.6365 0.828
11.6668 -0.050
11.6971 0.426
11.7274 1.164
11.7577 0.131
11.7879 0.453
11.8182 -0.267
11.8485 1.149
11.8788 0.169
11.9090 -0.393
11.9393 -0.130
11.9696 0.290
11.9999 0.814
12.0302 0.245
12.0604 0.874
12.0907 0.410
12.1210 0.831
12.1513 0.159
12.1816 0.790
12.2118 0.431
12.2421 -0.187
12.2724 0.184
12.3027 -0.018
12.3329 0.667
12.3632 0.779
12.3935 0.891
12.4238 -0.038
12.4541 0.335
12.4843 0.813
12.5146 -0.115
12.5449 0.103
12.5752 0.478
12.6055 0.176
12.6357 0.082
12.6660 -0.115
12.6963 -0.468
12.7266 0.161
12.7568 0.582
12.7871 0.066
12.8174 -0.398
12.8477 0.545
12.8780 -0.075
12.9082 0.244
12.9385 -0.010
12.9688 0.465
12.9991 0.160
13.0294 0.740
13.0596 0.071
13.0899 -0.598
13.1202 -0.030
13.1505 0.539
13.1807 0.639
13.2110 0.740
13.2413 0.632
13.2716 0.265
13.3019 -0.155
13.3321 0.781
13.3624 0.154
13.3927 0.048
13.4230 0.932
13.4533 0.255
13.4835 -0.163
13.5138 0.514
13.5441 -0.110
13.5744 0.724
13.6046 0.256
13.6349 0.101
13.6652 0.728
13.6955 0.000
13.7258 0.055
13.7560 0.318
13.7863 0.842
13.8166 -0.040
13.8469 0.537
13.8772 -0.293
13.9074 -0.132
13.9377 0.185
13.9680 -0.070
13.9983 -0.585
14.0285 0.254
14.0588 0.312
14.0891 0.527
14.1194 0.170
14.1497 0.177
14.1799 0.862
14.2102 -0.120
14.2405 -0.372
14.2708 -0.208
14.3011 -0.461
14.3313 0.849
14.3616 0.597
14.3919 -0.227
14.4222 0.875
14.4524 0.416
14.4827 0.791
14.5130 0.332
14.5433 0.499
14.5736 -0.376
14.6038 -0.365
14.6341 -0.003
14.6644 -0.161
14.6947 -0.215
14.7250 -0.320
14.7552 0.304
14.7855 0.199
14.8158 0.667
14.8461 0.250
14.8764 -0.114
14.9066 1.137
14.9369 0.096
14.9672 -0.111
14.9975 0.932
15.0277 0.830
15.0580 0.520
15.0883 0.679
15.1186 0.995
15.1489 -0.304
15.1791 -0.352
15.2094 0.642
15.2397 0.073
15.2700 0.234
15.3003 0.292
15.3305 0.402
15.3608 0.355
15.3911 -0.211
15.4214 -0.361
15.4516 0.153
15.4819 0.615
15.5122 -0.850
15.5425 0.498
15.5728 0.700
15.6030 -0.555
15.6333 0.533
15.6636 -0.253
15.6939 -0.309
15.7242 0.624
15.7544 0.516
15.7847 0.252
15.8150 -0.740
15.8453 0.090
15.8755 -0.485
15.9058 0.346
15.9361 0.761
15.9664 0.031
15.9967 -0.387
16.0269 0.394
16.0572 -0.179
16.0875 0.186
16.1178 0.238
16.1481 0.187
16.1783 -0.437
16.2086 0.450
16.2389 0.087
16.2692 0.454
16.2994 0.092
16.3297 0.564
16.3600 0.359
16.3903 -0.263
16.4206 -0.311
16.4508 -0.098
16.4811 1.157
16.5114 0.172
16.5417 0.386
16.5720 -0.650
16.6022 -0.345
16.6325 0.429
16.6628 0.579
16.6931 -0.417
16.7233 -0.318
16.7536 0.405
16.7839 0.400
16.8142 -0.021
16.8445 -0.651
16.8747 0.231
16.9050 0.904
16.9353 1.005
16.9656 0.793
16.9959 0.530
17.0261 0.580
17.0564 -0.151
17.0867 0.368
17.1170 0.002
17.1472 0.262
17.1775 0.678
17.2078 -0.156
17.2381 0.730
17.2684 0.001
17.2986 0.471
17.3289 0.368
17.3592 -0.047
17.3895 0.319
17.4198 -0.200
17.4500 0.584
17.4803 1.056
17.5106 0.590
17.5409 0.073
17.5712 0.546
17.6014 -0.752
17.6317 -0.070
17.6620 0.925
17.6923 0.201
17.7225 0.623
17.7528 -0.048
17.7831 0.115
17.8134 -0.086
17.8437 0.077
17.8739 0.241
17.9042 -0.220
17.9345 0.153
17.9648 -0.203
17.9951 0.014
18.0253 0.492
18.0556 0.345
18.0859 -0.218
18.1162 -0.728
18.1464 0.261
18.1767 0.573
18.2070 0.365
18.2373 -0.364
18.2676 0.054
18.2978 0.472
18.3281 0.942
18.3584 0.684
18.3887 0.477
18.4190 0.532
18.4492 0.223
18.4795 0.382
18.5098 -0.447
18.5401 0.598
18.5703 0.915
18.6006 0.503
18.6309 0.508
18.6612 -0.111
18.6915 0.415
18.7217 -0.203
18.7520 -0.353
18.7823 -0.245
18.8126 0.228
18.8429 0.233
18.8731 0.654
18.9034 0.972
18.9337 -0.376
18.9640 0.828
18.9942 0.210
19.0245 0.112
19.0548 -0.349
19.0851 -0.249
19.1154 0.111
19.1456 0.316
19.1759 -0.416
19.2062 0.675
19.2365 -0.317
19.2668 0.097
19.2970 0.616
19.3273 -0.323
19.3576 -0.324
19.3879 -0.012
19.4181 0.404
19.4484 0.613
19.4787 0.040
19.5090 0.874
19.5393 -0.062
19.5695 0.095
19.5998 0.306
19.6301 0.151
19.6604 0.414
19.6907 0.365
19.7209 0.629
19.7512 -0.618
19.7815 0.115
19.8118 -0.349
19.8420 -0.304
19.8723 -0.206
19.9026 0.153
19.9329 0.824
19.9632 0.506
19.9934 -0.436
20.0237 -0.180
20.0540 0.545
20.0843 0.020
20.1146 0.121
20.1448 0.482
20.1751 0.219
20.2054 0.113
20.2357 -0.358
20.2659 0.057
20.2962 0.003
20.3265 0.159
20.3568 0.106
20.3871 -0.207
20.4173 0.001
20.4476 0.627
20.4779 -0.102
20.5082 -0.048
20.5385 -0.359
20.5687 1.049
20.5990 0.217
20.6293 0.220
20.6596 -0.038
20.6899 -0.034
20.7201 0.698
20.7504 0.077
20.7807 -0.439
20.8110 0.867
20.8412 0.508
20.8715 -0.268
20.9018 0.310
20.9321 -0.048
20.9624 1.573
20.9926 -0.348
21.0229 0.284
21.0532 0.188
21.0835 0.404
21.1138 0.308
21.1440 0.316
21.1743 0.533
21.2046 -0.707
21.2349 0.240
21.2651 0.093
21.2954 0.624
21.3257 0.635
21.3560 0.490
21.3863 0.813
21.4165 -0.425
21.4468 0.785
21.4771 1.318
21.5074 0.081
21.5377 0.511
21.5679 0.107
21.5982 -0.035
21.6285 -0.333
21.6588 0.020
21.6890 0.583
21.7193 0.000
21.7496 0.667
21.7799 -0.176
21.8102 0.752
21.8404 -0.038
21.8707 0.371
21.9010 0.467
21.9313 0.199
21.9616 -0.069
21.9918 0.393
22.0221 0.386
22.0524 0.119
22.0827 -0.095
22.1129 0.524
22.1432 -0.210
22.1735 0.775
22.2038 0.353
22.2341 0.505
22.2643 0.293
22.2946 0.446
22.3249 -0.338
22.3552 0.648
22.3855 -0.031
22.4157 -0.137
22.4460 0.069
22.4763 0.016
22.5066 -0.194
22.5368 0.066
22.5671 -0.195
22.5974 0.587
22.6277 0.691
22.6580 -0.141
22.6882 0.068
22.7185 -0.035
22.7488 -0.345
22.7791 0.066
22.8094 -0.096
22.8396 0.056
22.8699 -0.261
22.9002 -0.265
22.9305 0.200
22.9607 0.562
22.9910 0.246
23.0213 0.087
23.0516 0.189
23.0819 0.239
23.1121 -0.022
23.1424 -0.128
23.1727 0.653
23.2030 -0.285
23.2333 -0.910
23.2635 0.337
23.2938 0.126
23.3241 0.124
23.3544 -0.919
23.3846 0.122
23.4149 -0.296
23.4452 -0.244
23.4755 0.016
23.5058 -0.400
23.5360 0.225
23.5663 -0.451
23.5966 0.384
23.6269 -0.552
23.6572 -0.186
23.6874 0.442
23.7177 0.601
23.7480 0.135
23.7783 0.451
23.8086 -0.066
23.8388 0.042
23.8691 0.307
23.8994 -0.105
23.9297 0.265
23.9599 -0.928
23.9902 0.016
24.0205 0.907
24.0508 -0.232
24.0811 -0.329
24.1113 0.251
24.1416 0.154
24.1719 0.735
24.2022 -0.142
24.2325 -0.342
24.2627 0.181
24.2930 -0.182
24.3233 0.601
24.3536 -0.282
24.3838 0.085
24.4141 0.193
24.4444 0.457
24.4747 0.617
24.5050 0.360
24.5352 0.000
24.5655 0.422
24.5958 -0.094
24.6261 0.068
24.6564 -0.134
24.6866 -0.492
24.7169 1.077
24.7472 0.146
24.7775 0.101
24.8077 -0.360
24.8380 0.378
24.8683 0.126
24.8986 -0.074
24.9289 0.768
24.9591 -0.108
24.9894 0.579
25.0197 -0.452
25.0500 -0.390
25.0803 0.480
25.1105 0.204
25.1408 0.501
25.1711 0.121
25.2014 0.419
25.2316 1.082
25.2619 0.131
25.2922 0.221
25.3225 0.104
25.3528 -0.065
25.3830 -0.078
25.4133 0.223
25.4436 -0.518
25.4739 -0.009
25.5042 0.084
25.5344 0.230
25.5647 0.271
25.5950 -0.468
25.6253 -0.221
25.6555 0.235
25.6858 -0.142
25.7161 -0.623
25.7464 0.407
25.7767 0.448
25.8069 -0.813
25.8372 0.270
25.8675 0.208
25.8978 -0.063
25.9281 0.136
25.9583 -0.082
25.9886 0.013
26.0189 -0.256
26.0492 -0.264
26.0794 -0.116
26.1097 0.294
26.1400 0.651
26.1703 0.019
26.2006 0.169
26.2308 0.163
26.2611 -0.468
26.2914 0.151
26.3217 0.198
26.3520 0.298
26.3822 -0.436
26.4125 0.081
26.4428 0.077
26.4731 -0.499
26.5034 0.175
26.5336 -0.400
26.5639 -0.090
26.5942 -0.248
26.6245 -0.302
26.6547 -0.199
26.6850 -0.252
26.7153 0.164
26.7456 0.320
26.7759 0.268
26.8061 -0.043
26.8364 0.635
26.8667 0.896
26.8970 0.898
26.9273 0.014
26.9575 0.277
26.9878 0.592
27.0181 -0.030
27.0484 0.442
27.0786 -0.075
27.1089 0.606
27.1392 0.142
27.1695 0.095
27.1998 -0.317
27.2300 -0.572
27.2603 0.350
27.2906 0.491
27.3209 0.580
27.3512 -0.111
27.3814 0.292
27.4117 0.069
27.4420 -0.048
27.4723 -0.009
27.5025 0.187
27.5328 -0.555
27.5631 0.162
27.5934 0.255
27.6237 -0.329
27.6539 0.285
27.6842 0.795
27.7145 0.368
27.7448 -0.163
27.7751 -0.224
27.8053 -0.702
27.8356 0.270
27.8659 0.461
27.8962 -0.337
27.9264 0.272
27.9567 0.151
27.9870 0.448
28.0173 0.120
28.0476 0.210
28.0778 0.195
28.1081 0.285
28.1384 0.323
28.1687 -0.524
28.1990 1.234
28.2292 0.439
28.2595 0.010
28.2898 -0.210
28.3201 -0.951
28.3503 0.495
28.3806 -0.349
28.4109 -0.204
28.4412 -0.214
28.4715 0.974
28.5017 0.964
28.5320 0.434
28.5623 0.685
28.5926 0.156
28.6229 1.085
28.6531 0.764
28.6834 0.184
28.7137 -0.761
28.7440 0.013
28.7742 0.163
28.8045 0.001
28.8348 0.359
28.8651 0.406
28.8954 0.349
28.9256 0.031
28.9559 -0.546
28.9862 0.007
29.0165 -0.273
29.0468 0.229
29.0770 -0.728
29.1073 0.712
29.1376 -0.139
29.1679 0.051
29.1981 0.034
29.2284 -0.192
29.2587 -0.156
29.2890 0.088
29.3193 0.280
29.3495 0.316
29.3798 -0.220
29.4101 0.026
29.4404 0.011
29.4707 -0.420
29.5009 -0.044
29.5312 0.333
29.5615 0.085
29.5918 0.149
29.6221 -0.202
29.6523 -0.241
29.6826 -0.436
29.7129 -0.267
29.7432 0.007
29.7734 0.437
29.8037 -0.331
29.8340 -0.317
29.8643 -0.250
29.8946 0.442
29.9248 -0.324
29.9551 0.212
29.9854 0.280
30.0157 -0.329
30.0460 -0.104
30.0762 0.538
30.1065 0.191
30.1368 0.782
30.1671 0.279
30.1973 0.870
30.2276 -0.049
30.2579 0.283
30.2882 0.094
30.3185 2.145
30.3487 0.186
30.3790 0.050
30.4093 0.331
30.4396 0.196
30.4699 2.041
30.5001 1.385
30.5304 1.668
30.5607 0.909
30.5910 1.140
30.6212 1.268
30.6515 1.604
30.6818 1.420
30.7121 2.381
30.7424 1.781
30.7726 2.067
30.8029 3.134
30.8332 3.420
30.8635 2.613
30.8938 2.899
30.9240 3.239
30.9543 3.057
30.9846 4.179
31.0149 5.717
31.0451 6.318
31.0754 6.399
31.1057 7.313
31.1360 7.290
31.1663 8.205
31.1965 9.954
31.2268 9.620
31.2571 11.109
31.2874 13.171
31.3177 14.296
31.3479 16.463
31.3782 19.724
31.4085 21.632
31.4388 24.894
31.4690 26.645
31.4993 30.325
31.5296 33.431
31.5599 38.466
31.5902 40.427
31.6204 38.691
31.6507 43.987
31.6810 43.658
31.7113 39.892
31.7416 37.532
31.7718 33.663
31.8021 28.283
31.8324 26.966
31.8627 24.400
31.8929 19.958
31.9232 16.455
31.9535 17.536
31.9838 14.345
32.0141 12.249
32.0443 11.248
32.0746 9.517
32.1049 8.047
32.1352 8.505
32.1655 6.202
32.1957 4.160
32.2260 5.192
32.2563 3.203
32.2866 4.599
32.3169 5.059
32.3471 3.019
32.3774 2.854
32.4077 1.805
32.4380 1.328
32.4682 1.685
32.4985 1.678
32.5288 0.890
32.5591 0.259
32.5894 1.659
32.6196 1.966
32.6499 0.398
32.6802 1.435
32.7105 0.077
32.7408 0.072
32.7710 -0.452
32.8013 -0.195
32.8316 -0.407
32.8619 0.319
32.8921 0.682
32.9224 -0.466
32.9527 -0.729
32.9830 0.508
33.0133 -0.858
33.0435 -0.194
33.0738 -0.153
33.1041 -0.009
33.1344 -1.114
33.1647 0.386
33.1949 0.063
33.2252 -1.197
33.2555 -0.010
33.2858 -1.166
33.3160 0.387
33.3463 -0.768
33.3766 0.004
33.4069 -0.369
33.4372 0.665
33.4674 -0.125
33.4977 0.076
33.5280 -0.556
33.5583 -0.198
33.5886 1.984
33.6188 1.146
33.6491 1.037
33.6794 -0.218
33.7097 -0.222
33.7399 2.222
33.7702 1.489
33.8005 0.653
33.8308 1.743
33.8611 3.460
33.8913 3.197
33.9216 5.487
33.9519 5.538
33.9822 6.057
34.0125 6.890
34.0427 8.348
34.0730 10.535
34.1033 13.088
34.1336 17.568
34.1638 25.694
34.1941 29.081
34.2244 38.926
34.2547 47.574
34.2850 56.066
34.3152 56.485
34.3455 51.541
34.3758 47.534
34.4061 39.517
34.4364 30.979
34.4666 25.671
34.4969 22.030
34.5272 15.838
34.5575 11.677
34.5877 10.589
34.6180 7.106
34.6483 6.643
34.6786 7.275
34.7089 5.252
34.7391 4.374
34.7694 6.101
34.7997 4.130
34.8300 2.420
34.8603 3.523
34.8905 4.157
34.9208 2.084
34.9511 2.875
34.9814 3.927
35.0116 1.959
35.0419 2.491
35.0722 4.378
35.1025 3.660
35.1328 3.308
35.1630 2.331
35.1933 2.240
35.2236 3.816
35.2539 5.184
35.2842 3.687
35.3144 5.525
35.3447 4.654
35.3750 5.294
35.4053 6.091
35.4356 3.919
35.4658 6.383
35.4961 8.275
35.5264 6.521
35.5567 9.038
35.5869 8.274
35.6172 9.959
35.6475 13.050
35.6778 15.360
35.7081 14.598
35.7383 17.898
35.7686 18.231
35.7989 20.751
35.8292 21.656
35.8595 25.583
35.8897 29.406
35.9200 33.959
35.9503 39.762
35.9806 44.732
36.0108 48.088
36.0411 52.694
36.0714 58.915
36.1017 59.199
36.1320 64.848
36.1622 62.008
36.1925 61.928
36.2228 56.953
36.2531 53.593
36.2834 50.962
36.3136 39.790
36.3439 40.806
36.3742 32.864
36.4045 29.037
36.4347 25.419
36.4650 23.571
36.4953 21.204
36.5256 19.461
36.5559 16.938
36.5861 13.217
36.6164 12.465
36.6467 10.099
36.6770 9.036
36.7073 6.827
36.7375 9.514
36.7678 6.993
36.7981 5.566
36.8284 5.338
36.8586 5.735
36.8889 3.163
36.9192 3.717
36.9495 3.855
36.9798 3.784
37.0100 2.985
37.0403 2.238
37.0706 3.367
37.1009 3.975
37.1312 1.510
37.1614 2.223
37.1917 2.259
37.2220 1.619
37.2523 1.552
37.2825 1.016
37.3128 1.366
37.3431 1.664
37.3734 1.703
37.4037 1.012
37.4339 0.530
37.4642 0.934
37.4945 0.870
37.5248 0.493
37.5551 1.211
37.5853 1.043
37.6156 1.084
37.6459 0.605
37.6762 0.126
37.7064 0.428
37.7367 0.210
37.7670 0.357
37.7973 -0.120
37.8276 -0.285
37.8578 -0.085
37.8881 -0.041
37.9184 0.473
37.9487 0.153
37.9790 0.459
38.0092 -0.381
38.0395 0.030
38.0698 0.857
38.1001 0.435
38.1304 -0.038
38.1606 0.634
38.1909 0.005
38.2212 -0.780
38.2515 0.016
38.2817 -0.072
38.3120 0.257
38.3423 -0.248
38.3726 0.863
38.4029 0.672
38.4331 0.273
38.4634 -0.178
38.4937 0.100
38.5240 0.275
38.5543 0.138
38.5845 -0.416
38.6148 -0.090
38.6451 0.340
38.6754 0.718
38.7056 0.732
38.7359 -0.139
38.7662 -0.489
38.7965 0.255
38.8268 0.166
38.8570 0.130
38.8873 0.354
38.9176 0.892
38.9479 -0.394
38.9782 0.196
39.0084 0.526
39.0387 -0.237
39.0690 0.458
39.0993 -0.252
39.1295 -0.390
39.1598 0.297
39.1901 0.463
39.2204 -0.309
39.2507 0.223
39.2809 0.077
39.3112 0.036
39.3415 -0.057
39.3718 -0.045
39.4021 0.749
39.4323 0.449
39.4626 0.201
39.4929 -0.203
39.5232 0.123
39.5534 -0.383
39.5837 0.360
39.6140 -0.042
39.6443 -0.392
39.6746 0.196
39.7048 -0.048
39.7351 0.489
39.7654 0.297
39.7957 0.313
39.8260 -0.138
39.8562 -0.329
39.8865 -0.115
39.9168 -0.161
39.9471 0.366
39.9773 0.321
40.0076 -0.088
40.0379 0.284
40.0682 -0.020
40.0985 -0.064
40.1287 -0.211
40.1590 0.058
40.1893 -0.662
40.2196 0.234
40.2499 -0.017
40.2801 0.254
40.3104 0.213
40.3407 0.797
40.3710 -0.129
40.4012 0.091
40.4315 0.312
40.4618 -0.457
40.4921 0.025
40.5224 0.247
40.5526 0.521
40.5829 0.066
40.6132 1.382
40.6435 0.043
40.6738 0.318
40.7040 1.063
40.7343 -0.015
40.7646 -0.363
40.7949 0.048
40.8251 0.357
40.8554 0.873
40.8857 0.193
40.9160 0.294
40.9463 0.030
40.9765 0.496
41.0068 0.546
41.0371 0.076
41.0674 -0.030
41.0977 -0.031
41.1279 1.114
41.1582 -0.345
41.1885 0.801
41.2188 0.228
41.2491 -0.292
41.2793 0.177
41.3096 0.647
41.3399 -0.341
41.3702 0.130
41.4004 0.080
41.4307 0.448
41.4610 0.607
41.4913 0.298
41.5216 -0.115
41.5518 0.149
41.5821 0.154
41.6124 -0.154
41.6427 0.164
41.6730 -0.195
41.7032 0.383
41.7335 -0.287
41.7638 0.344
41.7941 0.455
41.8243 -0.163
41.8546 0.626
41.8849 0.009
41.9152 0.382
41.9455 -0.078
41.9757 0.296
42.0060 0.253
42.0363 -0.154
42.0666 0.325
42.0969 0.387
42.1271 0.190
42.1574 0.201
42.1877 0.681
42.2180 0.484
42.2482 0.132
42.2785 0.197
42.3088 -0.415
42.3391 -0.170
42.3694 0.649
42.3996 -0.043
42.4299 0.621
42.4602 0.191
42.4905 0.229
42.5208 0.842
42.5510 -0.004
42.5813 0.452
42.6116 -0.341
42.6419 1.002
42.6721 0.054
42.7024 0.720
42.7327 0.137
42.7630 0.543
42.7933 0.846
42.8235 -0.309
42.8538 0.307
42.8841 0.715
42.9144 0.186
42.9447 0.283
42.9749 -0.142
43.0052 0.112
43.0355 0.001
43.0658 0.150
43.0960 -0.116
43.1263 -0.070
43.1566 -0.127
43.1869 0.024
43.2172 -0.085
43.2474 0.275
43.2777 -0.250
43.3080 -0.253
43.3383 -0.257
43.3686 -0.520
43.3988 0.519
43.4291 -0.056
43.4594 -0.006
43.4897 0.357
43.5199 -0.321
43.5502 0.094
43.5805 -0.375
43.6108 0.146
43.6411 0.511
43.6713 0.095
43.7016 -0.061
43.7319 -0.216
43.7622 0.307
43.7925 0.882
43.8227 0.051
43.8530 -0.780
43.8833 -0.006
43.9136 0.299
43.9439 0.241
43.9741 0.339
44.0044 0.229
44.0347 0.171
44.0650 0.010
44.0952 -0.464
44.1255 0.417
44.1558 -0.628
44.1861 0.253
44.2164 -0.219
44.2466 0.403
44.2769 0.713
44.3072 0.242
44.3375 -0.072
44.3678 -0.178
44.3980 -0.075
44.4283 -0.128
44.4586 -0.181
44.4889 0.027
44.5191 0.600
44.5494 -0.337
44.5797 -0.440
44.6100 0.603
44.6403 0.188
44.6705 0.763
44.7008 -0.329
44.7311 0.559
44.7614 0.093
44.7917 -0.476
44.8219 0.257
44.8522 -0.052
44.8825 0.577
44.9128 0.009
44.9430 0.014
44.9733 0.697
45.0036 0.286
45.0339 -0.541
45.0642 0.767
45.0944 -0.007
45.1247 -0.312
45.1550 0.032
45.1853 0.064
45.2156 0.409
45.2458 0.546
45.2761 -0.045
45.3064 0.509
45.3367 -0.082
45.3669 0.473
45.3972 -0.326
45.4275 0.282
45.4578 -0.047
45.4881 -0.219
45.5183 0.129
45.5486 0.270
45.5789 0.150
45.6092 0.135
45.6395 0.590
45.6697 0.367
45.7000 -0.220
45.7303 -0.338
45.7606 -0.301
45.7908 0.361
45.8211 -0.174
45.8514 0.020
45.8817 0.319
45.9120 0.982
45.9422 0.188
45.9725 0.279
46.0028 0.214
46.0331 -0.214
46.0634 0.138
46.0936 -0.238
46.1239 -0.092
46.1542 -0.520
46.1845 0.147
46.2147 -0.279
46.2450 0.233
46.2753 -0.505
46.3056 0.476
46.3359 0.624
46.3661 0.200
46.3964 0.609
46.4267 -0.440
46.4570 0.439
46.4873 0.224
46.5175 0.218
46.5478 1.254
46.5781 -0.001
46.6084 0.723
46.6386 0.719
46.6689 0.610
46.6992 1.544
46.7295 1.593
46.7598 1.694
46.7900 1.691
46.8203 0.907
46.8506 2.051
46.8809 2.049
46.9112 2.725
46.9414 2.255
46.9717 3.140
47.0020 2.722
47.0323 3.764
47.0626 3.244
47.0928 3.974
47.1231 4.808
47.1534 5.382
47.1837 5.644
47.2139 7.521
47.2442 7.368
47.2745 9.870
47.3048 9.353
47.3351 11.231
47.3653 11.912
47.3956 13.062
47.4259 12.025
47.4562 11.353
47.4865 10.733
47.5167 11.781
47.5470 11.682
47.5773 9.970
47.6076 8.779
47.6378 8.525
47.6681 6.501
47.6984 6.301
47.7287 4.798
47.7590 4.078
47.7892 4.659
47.8195 2.846
47.8498 4.105
47.8801 2.813
47.9104 2.458
47.9406 2.469
47.9709 2.636
48.0012 0.876
48.0315 1.201
48.0617 0.535
48.0920 1.173
48.1223 0.612
48.1526 1.355
48.1829 0.951
48.2131 0.496
48.2434 1.917
48.2737 0.941
48.3040 0.227
48.3343 0.659
48.3645 0.570
48.3948 1.107
48.4251 0.029
48.4554 0.046
48.4856 0.792
48.5159 0.705
48.5462 0.410
48.5765 0.428
48.6068 0.498
48.6370 -0.213
48.6673 0.015
48.6976 0.242
48.7279 0.470
48.7582 0.022
48.7884 -0.218
48.8187 0.219
48.8490 0.344
48.8793 -0.363
48.9095 -0.301
48.9398 0.335
48.9701 0.450
49.0004 0.461
49.0307 0.056
49.0609 0.069
49.0912 0.341
49.1215 0.563
49.1518 0.576
49.1821 0.277
49.2123 -0.022
49.2426 -0.008
49.2729 0.528
49.3032 0.178
49.3334 0.402
49.3637 0.053
49.3940 0.225
49.4243 -0.383
49.4546 0.102
49.4848 -0.246
49.5151 0.397
49.5454 -0.002
49.5757 0.276
49.6060 -0.174
49.6362 -0.311
49.6665 0.201
49.6968 0.505
49.7271 -0.076
49.7574 0.437
49.7876 0.587
49.8179 0.423
49.8482 0.469
49.8785 -0.058
49.9087 0.040
49.9390 -0.226
49.9693 -0.127
49.9996 0.181
50.0299 0.020
50.0601 0.016
50.0904 0.013
50.1207 0.113
50.1510 0.006
50.1813 -0.205
50.2115 0.158
50.2418 0.624
50.2721 0.154
50.3024 0.153
50.3326 0.204
50.3629 0.047
50.3932 0.568
50.4235 0.203
50.4538 0.985
50.4840 0.153
50.5143 -0.367
50.5446 0.937
50.5749 -0.207
50.6052 -0.153
50.6354 -0.098
50.6657 0.425
50.6960 0.429
50.7263 0.224
50.7565 -0.084
50.7868 0.337
50.8171 -0.179
50.8474 0.711
50.8777 0.300
50.9079 -0.684
50.9382 0.468
50.9685 -0.307
50.9988 0.325
51.0291 0.020
51.0593 -0.285
51.0896 -0.034
51.1199 0.114
51.1502 0.210
51.1804 -0.266
51.2107 0.195
51.2410 0.136
51.2713 0.442
51.3016 -0.137
51.3318 0.534
51.3621 0.268
51.3924 -0.310
51.4227 0.414
51.4530 0.045
51.4832 0.145
51.5135 0.037
51.5438 0.606
51.5741 0.343
51.6043 0.392
51.6346 -0.027
51.6649 -0.134
51.6952 0.073
51.7255 0.436
51.7557 0.019
51.7860 -0.138
51.8163 0.538
51.8466 -0.087
51.8769 -0.295
51.9071 0.013
51.9374 0.060
51.9677 0.212
51.9980 -0.313
52.0282 0.621
52.0585 0.305
52.0888 0.354
52.1191 0.039
52.1494 -0.015
52.1796 -0.121
52.2099 0.085
52.2402 -0.228
52.2705 0.239
52.3008 0.083
52.3310 -0.386
52.3613 0.343
52.3916 0.135
52.4219 -0.541
52.4521 -0.071
52.4824 -0.121
52.5127 0.089
52.5430 -0.221
52.5733 0.354
52.6035 0.201
52.6338 0.621
52.6641 0.364
52.6944 0.160
52.7247 0.008
52.7549 -0.039
52.7852 -0.295
52.8155 0.062
52.8458 -0.102
52.8761 0.256
52.9063 0.092
52.9366 0.086
52.9669 0.288
52.9972 0.439
53.0274 0.433
53.0577 -0.249
53.0880 0.684
53.1183 0.106
53.1486 -0.106
53.1788 -0.162
53.2091 0.512
53.2394 -0.481
53.2697 0.090
53.3000 0.035
53.3302 -0.019
53.3605 -0.125
53.3908 -0.386
53.4211 0.342
53.4513 0.237
53.4816 0.029
53.5119 0.289
53.5422 0.759
53.5725 0.343
53.6027 0.292
53.6330 -0.019
53.6633 0.243
53.6936 0.193
53.7239 0.196
53.7541 -0.009
53.7844 0.463
53.8147 0.362
53.8450 -0.363
53.8752 0.162
53.9055 -0.302
53.9358 0.016
53.9661 0.073
53.9964 -0.389
54.0266 -0.049
54.0569 0.448
54.0872 0.112
54.1175 0.506
54.1478 0.848
54.1780 0.253
54.2083 -0.342
54.2386 0.105
54.2689 0.032
54.2991 -0.302
54.3294 0.251
54.3597 0.231
54.3900 -0.206
54.4203 -0.017
54.4505 -0.505
54.4808 0.362
54.5111 0.343
54.5414 -0.352
54.5717 -0.109
54.6019 0.186
54.6322 0.742
54.6625 -0.160
54.6928 -0.333
54.7230 0.641
54.7533 0.000
54.7836 -0.067
54.8139 0.283
54.8442 0.268
54.8744 -0.788
54.9047 -0.125
54.9350 0.643
54.9653 -0.151
54.9956 0.617
55.0258 -0.229
55.0561 -0.189
55.0864 -0.200
55.1167 0.101
55.1469 -0.171
55.1772 -0.390
55.2075 0.223
55.2378 0.264
55.2681 0.097
55.2983 1.075
55.3286 0.596
55.3589 0.117
55.3892 0.264
55.4195 0.306
55.4497 0.662
55.4800 -0.076
55.5103 0.801
55.5406 0.168
55.5709 1.410
55.6011 0.934
55.6314 1.188
55.6617 0.660
55.6920 0.810
55.7222 0.492
55.7525 1.268
55.7828 1.315
55.8131 2.247
55.8434 1.618
55.8736 2.030
55.9039 2.079
55.9342 2.700
55.9645 4.207
55.9948 3.528
56.0250 4.567
56.0553 4.877
56.0856 4.459
56.1159 5.968
56.1461 6.592
56.1764 5.446
56.2067 7.320
56.2370 9.768
56.2673 9.873
56.2975 10.447
56.3278 12.271
56.3581 13.470
56.3884 15.086
56.4187 15.297
56.4489 18.164
56.4792 16.448
56.5095 16.556
56.5398 14.268
56.5700 14.063
56.6003 15.317
56.6306 12.301
56.6609 12.046
56.6912 10.176
56.7214 8.880
56.7517 7.792
56.7820 7.746
56.8123 7.284
56.8426 5.729
56.8728 5.216
56.9031 6.421
56.9334 4.607
56.9637 3.730
56.9939 3.947
57.0242 3.227
57.0545 2.664
57.0848 2.674
57.1151 1.850
57.1453 2.486
57.1756 2.080
57.2059 1.102
57.2362 1.426
57.2665 0.917
57.2967 1.919
57.3270 1.724
57.3573 1.581
57.3876 2.011
57.4178 0.670
57.4481 0.216
57.4784 0.959
57.5087 0.297
57.5390 0.989
57.5692 0.588
57.5995 0.813
57.6298 0.464
57.6601 0.897
57.6904 0.758
57.7206 0.255
57.7509 0.324
57.7812 0.342
57.8115 0.361
57.8417 0.484
57.8720 0.346
57.9023 -0.103
57.9326 -0.031
57.9629 0.197
57.9931 -0.459
58.0234 -0.022
58.0537 -0.053
58.0840 0.490
58.1143 0.251
58.1445 0.638
58.1748 -0.069
58.2051 0.215
58.2354 -0.023
58.2656 -0.520
58.2959 0.043
58.3262 0.085
58.3565 0.804
58.3868 0.274
58.4170 0.526
58.4473 -0.056
58.4776 0.092
58.5079 -0.176
58.5382 0.181
58.5684 0.173
58.5987 0.010
58.6290 0.108
58.6593 -0.315
58.6896 0.252
58.7198 -0.587
58.7501 -0.019
58.7804 0.185
58.8107 -0.236
58.8409 0.176
58.8712 -0.088
58.9015 -0.039
58.9318 -0.563
58.9621 0.476
58.9923 -0.151
59.0226 0.055
59.0529 0.366
59.0832 0.573
59.1135 -0.001
59.1437 -0.158
59.1740 0.415
59.2043 0.051
59.2346 -0.001
59.2648 -0.156
59.2951 -0.468
59.3254 0.205
59.3557 -0.425
59.3860 0.144
59.4162 -0.485
59.4465 0.293
59.4768 0.134
59.5071 0.235
59.5374 -0.131
59.5676 0.440
59.5979 -0.031
59.6282 -0.240
59.6585 0.280
59.6887 0.175
59.7190 0.018
59.7493 -0.086
59.7796 -0.554
59.8099 0.228
59.8401 -0.239
59.8704 -0.029
59.9007 0.025
59.9310 0.183
59.9613 -0.127
59.9915 -0.176
60.0218 0.400
60.0521 -0.221
60.0824 -0.113
60.1126 -0.317
60.1429 -0.057
60.1732 -0.266
60.2035 0.098
60.2338 -0.318
60.2640 -0.005
60.2943 -0.317
60.3246 -0.063
60.3549 0.504
60.3852 0.289
60.4154 -0.341
60.4457 0.175
60.4760 -0.091
60.5063 -0.304
60.5365 0.057
60.5668 -0.364
60.5971 -0.004
60.6274 -0.321
60.6577 0.035
60.6879 -0.078
60.7182 0.278
60.7485 -0.042
60.7788 0.263
60.8091 -0.213
60.8393 0.093
60.8696 0.243
60.8999 0.289
60.9302 0.283
60.9604 0.434
60.9907 -0.352
61.0210 0.060
61.0513 0.368
61.0816 0.312
61.1118 0.048
61.1421 0.045
61.1724 0.354
61.2027 -0.273
61.2330 -0.119
61.2632 -0.329
61.2935 -0.034
61.3238 0.367
61.3541 0.038
61.3844 0.179
61.4146 0.268
61.4449 0.409
61.4752 0.498
61.5055 -0.037
61.5357 0.626
61.5660 0.665
61.5963 0.704
61.6266 1.003
61.6569 0.783
61.6871 0.354
61.7174 0.186
61.7477 0.226
61.7780 0.788
61.8083 0.205
61.8385 0.455
61.8688 0.965
61.8991 0.331
61.9294 0.217
61.9596 0.781
61.9899 1.918
62.0202 1.441
62.0505 1.121
62.0808 1.269
62.1110 0.637
62.1413 1.828
62.1716 0.676
62.2019 3.430
62.2322 3.216
62.2624 2.585
62.2927 3.622
62.3230 3.357
62.3533 3.352
62.3835 5.119
62.4138 5.532
62.4441 4.956
62.4744 5.682
62.5047 7.242
62.5349 8.177
62.5652 9.529
62.5955 10.465
62.6258 10.047
62.6561 10.619
62.6863 14.525
62.7166 13.691
62.7469 14.004
62.7772 13.223
62.8074 11.193
62.8377 12.861
62.8680 11.768
62.8983 9.583
62.9286 10.835
62.9588 9.119
62.9891 9.278
63.0194 9.438
63.0497 6.681
63.0800 7.102
63.1102 5.700
63.1405 5.288
63.1708 4.251
63.2011 3.788
63.2313 2.387
63.2616 2.029
63.2919 2.244
63.3222 2.511
63.3525 2.622
63.3827 0.598
63.4130 2.169
63.4433 1.448
63.4736 0.467
63.5039 0.840
63.5341 1.371
63.5644 0.443
63.5947 0.661
63.6250 0.984
63.6552 0.578
63.6855 0.693
63.7158 0.757
63.7461 1.237
63.7764 0.885
63.8066 -0.040
63.8369 0.076
63.8672 0.090
63.8975 0.520
63.9278 -0.143
63.9580 -0.494
63.9883 0.186
64.0186 -0.072
64.0489 -0.173
64.0791 -0.065
64.1094 0.720
64.1397 0.151
64.1700 -0.573
64.2003 0.265
64.2305 0.999
64.2608 0.328
64.2911 0.021
64.3214 0.080
64.3517 -0.122
64.3819 -0.271
64.4122 -0.212
64.4425 -0.048
64.4728 0.586
64.5031 0.073
64.5333 -0.283
64.5636 0.195
64.5939 0.101
64.6242 1.308
64.6544 0.589
64.6847 0.392
64.7150 -0.014
64.7453 0.101
64.7756 0.217
64.8058 0.229
64.8361 0.762
64.8664 -0.371
64.8967 -0.254
64.9270 0.228
64.9572 -0.175
64.9875 -0.317
65.0178 -0.022
65.0481 -0.351
65.0783 0.726
65.1086 0.397
65.1389 -0.192
65.1692 0.105
65.1995 0.194
65.2297 0.075
65.2600 0.060
65.2903 -0.215
65.3206 -0.228
65.3509 0.175
65.3811 0.109
65.4114 0.045
65.4417 -0.280
65.4720 -0.084
65.5022 0.008
65.5325 0.153
65.5628 -0.118
65.5931 -0.390
65.6234 0.161
65.6536 0.087
65.6839 0.743
65.7142 -0.737
65.7445 0.441
65.7748 0.785
65.8050 0.296
65.8353 0.745
65.8656 -0.212
65.8959 0.551
65.9261 -0.041
65.9564 0.097
65.9867 0.756
66.0170 1.103
66.0473 0.878
66.0775 1.225
66.1078 1.000
66.1381 1.036
66.1684 1.698
66.1987 0.172
66.2289 0.053
66.2592 1.027
66.2895 0.492
66.3198 0.738
66.3500 0.725
66.3803 0.816
66.4106 1.532
66.4409 0.686
66.4712 0.465
66.5014 0.036
66.5317 0.546
66.5620 0.534
66.5923 0.628
66.6226 0.565
66.6528 -0.695
66.6831 1.066
66.7134 0.067
66.7437 0.995
66.7739 -0.212
66.8042 0.874
66.8345 -0.228
66.8648 0.858
66.8951 0.486
66.9253 -0.146
66.9556 0.420
66.9859 -0.055
67.0162 -0.113
67.0465 0.402
67.0767 -0.176
67.1070 1.330
67.1373 0.856
67.1676 0.800
67.1978 2.150
67.2281 1.105
67.2584 0.685
67.2887 1.880
67.3190 1.461
67.3492 2.293
67.3795 2.291
67.4098 2.862
67.4401 2.445
67.4704 2.288
67.5006 2.808
67.5309 3.589
67.5612 4.111
67.5915 4.007
67.6218 5.935
67.6520 5.885
67.6823 7.918
67.7126 7.034
67.7429 8.755
67.7731 7.977
67.8034 8.761
67.8337 9.286
67.8640 9.185
67.8943 10.023
67.9245 7.996
67.9548 8.053
67.9851 7.382
68.0154 7.543
68.0457 6.820
68.0759 6.618
68.1062 5.740
68.1365 4.913
68.1668 6.223
68.1970 5.241
68.2273 5.301
68.2576 3.591
68.2879 3.808
68.3182 3.504
68.3484 2.629
68.3787 2.690
68.4090 2.440
68.4393 2.659
68.4696 2.722
68.4998 2.056
68.5301 3.057
68.5604 2.444
68.5907 2.457
68.6209 2.105
68.6512 2.951
68.6815 3.121
68.7118 2.978
68.7421 1.742
68.7723 2.798
68.8026 2.969
68.8329 4.599
68.8632 3.781
68.8935 3.432
68.9237 3.917
68.9540 3.569
68.9843 4.055
69.0146 3.551
69.0448 3.673
69.0751 4.212
69.1054 3.345
69.1357 3.832
69.1660 3.226
69.1962 2.360
69.2265 2.536
69.2568 2.608
69.2871 2.628
69.3174 2.233
69.3476 2.306
69.3779 3.004
69.4082 1.516
69.4385 1.225
69.4687 1.248
69.4990 1.687
69.5293 1.398
69.5596 0.953
69.5899 1.237
69.6201 0.793
69.6504 0.713
69.6807 0.738
69.7110 0.503
69.7413 0.008
69.7715 0.450
69.8018 0.633
69.8321 0.399
69.8624 -0.303
69.8926 0.193
69.9229 0.690
69.9532 -0.115
69.9835 0.382
70.0138 0.463
70.0440 -0.029
70.0743 -0.103
70.1046 0.604
70.1349 0.061
70.1652 0.196
70.1954 0.070
70.2257 0.206
70.2560 0.706
70.2863 0.009
70.3166 0.562
70.3468 0.439
70.3771 0.211
70.4074 0.557
70.4377 -0.347
70.4679 -0.260
70.4982 0.359
70.5285 0.145
70.5588 0.296
70.5891 0.239
70.6193 -0.130
70.6496 -0.187
70.6799 1.059
70.7102 0.118
70.7405 0.167
70.7707 0.164
70.8010 0.162
70.8313 1.045
70.8616 0.054
70.8918 -0.468
70.9221 0.729
70.9524 -0.366
70.9827 0.415
71.0130 0.676
71.0432 0.155
71.0735 0.260
71.1038 0.053
71.1341 0.158
71.1644 0.108
71.1946 0.214
71.2249 0.477
71.2552 -0.406
71.2855 0.171
71.3157 0.643
71.3460 0.438
71.3763 -0.391
71.4066 0.760
71.4369 0.192
71.4671 0.145
71.4974 0.203
71.5277 -0.052
71.5580 0.267
71.5883 0.222
71.6185 0.072
71.6488 0.601
71.6791 0.713
71.7094 0.252
71.7396 0.104
71.7699 0.373
71.8002 -0.034
71.8305 -0.337
71.8608 0.069
71.8910 0.372
71.9213 0.101
71.9516 0.248
71.9819 -0.073
72.0122 0.127
72.0424 0.691
72.0727 0.110
72.1030 0.363
72.1333 0.200
72.1635 0.505
72.1938 -0.126
72.2241 0.440
72.2544 0.799
72.2847 0.690
72.3149 0.424
72.3452 0.784
72.3755 1.144
72.4058 0.879
72.4361 1.240
72.4663 1.081
72.4966 0.609
72.5269 1.023
72.5572 0.760
72.5874 0.237
72.6177 -0.077
72.6480 0.599
72.6783 0.077
72.7086 0.389
72.7388 0.077
72.7691 -0.444
72.7994 0.598
72.8297 0.026
72.8600 -0.129
72.8902 0.393
72.9205 0.135
72.9508 0.137
72.9811 0.713
73.0113 -0.222
73.0416 0.094
73.0719 0.098
73.1022 0.154
73.1325 0.210
73.1627 0.059
73.1930 0.012
73.2233 0.329
73.2536 -0.186
73.2839 0.237
73.3141 -0.329
73.3444 0.511
73.3747 0.049
73.4050 0.474
73.4353 0.325
73.4655 0.125
73.4958 0.029
73.5261 0.663
73.5564 0.048
73.5866 -0.255
73.6169 -0.255
73.6472 -0.053
73.6775 -0.215
73.7078 -0.168
73.7380 -0.017
73.7683 0.135
73.7986 0.026
73.8289 0.283
73.8592 0.175
73.8894 -0.193
73.9197 0.273
73.9500 -0.198
73.9803 -0.252
74.0105 0.058
74.0408 0.213
74.0711 0.160
74.1014 0.107
74.1317 0.002
74.1619 0.106
74.1922 -0.206
74.2225 -0.049
74.2528 0.160
74.2831 -0.255
74.3133 0.216
74.3436 0.166
74.3739 -0.040
74.4042 -0.350
74.4344 0.747
74.4647 0.386
74.4950 0.025
74.5253 -0.075
74.5556 0.242
74.5858 -0.483
74.6161 -0.009
74.6464 -0.055
74.6767 -0.206
74.7070 0.269
74.7372 0.068
74.7675 -0.290
74.7978 0.499
74.8281 -0.171
74.8583 -0.059
74.8886 -0.050
74.9189 -0.250
74.9492 -0.243
74.9795 0.338
75.0097 0.346
75.0400 0.510
75.0703 0.050
75.1006 -0.201
75.1309 -0.244
75.1611 -0.094
75.1914 0.160
75.2217 0.311
75.2520 -0.059
75.2822 0.197
75.3125 -0.172
75.3428 0.449
75.3731 -0.284
75.4034 -0.235
75.4336 0.074
75.4639 0.176
75.4942 -0.243
75.5245 0.171
75.5548 -0.507
75.5850 0.168
75.6153 -0.249
75.6456 -0.250
75.6759 -0.204
75.7061 0.362
75.7364 0.721
75.7667 -0.379
75.7970 0.241
75.8273 -0.546
75.8575 -0.192
75.8878 0.110
75.9181 0.361
75.9484 0.038
75.9787 0.185
76.0089 0.437
76.0392 -0.041
76.0695 0.315
76.0998 0.151
76.1301 -0.013
76.1603 -0.124
76.1906 -0.131
76.2209 0.019
76.2512 0.064
76.2814 0.059
76.3117 0.053
76.3420 0.517
76.3723 0.564
76.4026 0.143
76.4328 0.555
76.4631 0.083
76.4934 0.444
76.5237 1.066
76.5540 0.647
76.5842 0.696
76.6145 0.746
76.6448 0.536
76.6751 0.691
76.7053 1.315
76.7356 0.898
76.7659 0.533
76.7962 0.898
76.8265 0.638
76.8567 0.378
76.8870 1.057
76.9173 1.266
76.9476 0.643
76.9779 1.323
77.0081 1.117
77.0384 1.536
77.0687 0.602
77.0990 0.814
77.1292 0.662
77.1595 1.187
77.1898 0.358
77.2201 0.572
77.2504 0.577
77.2806 0.062
77.3109 0.068
77.3412 0.179
77.3715 0.081
77.4018 0.140
77.4320 0.096
77.4623 0.052
77.4926 -0.149
77.5229 0.120
77.5531 0.181
77.5834 -0.018
77.6137 0.304
77.6440 -0.154
77.6743 0.012
77.7045 0.023
77.7348 0.034
77.7651 0.566
77.7954 0.005
77.8257 0.433
77.8559 -0.075
77.8862 0.250
77.9165 -0.049
77.9468 0.016
77.9770 0.499
78.0073 0.201
78.0376 -0.097
78.0679 -0.239
78.0982 0.071
78.1284 -0.088
78.1587 0.743
78.1890 -0.092
78.2193 0.219
78.2496 0.374
78.2798 -0.408
78.3101 0.164
78.3404 -0.148
78.3707 0.373
78.4009 -0.512
78.4312 0.166
78.4615 -0.041
78.4918 -0.144
78.5221 0.119
78.5523 0.069
78.5826 0.228
78.6129 0.075
78.6432 0.078
78.6735 0.342
78.7037 -0.122
78.7340 0.820
78.7643 -0.009
78.7946 -0.160
78.8248 0.471
78.8551 0.529
78.8854 0.952
78.9157 -0.136
78.9460 -0.233
78.9762 0.124
79.0065 0.116
79.0368 0.265
79.0671 0.362
79.0974 -0.165
79.1276 0.037
79.1579 0.083
79.1882 -0.026
79.2185 0.177
79.2488 0.276
79.2790 0.428
79.3093 -0.201
79.3396 -0.101
79.3699 0.000
79.4001 0.414
79.4304 -0.214
79.4607 0.305
79.4910 0.303
79.5213 0.145
79.5515 0.352
79.5818 0.195
79.6121 0.038
79.6424 0.142
79.6727 -0.119
79.7029 -0.066
79.7332 -0.169
79.7635 -0.064
79.7938 0.094
79.8240 -0.477
79.8543 -0.006
79.8846 -0.056
79.9149 0.260
79.9452 0.159
79.9754 0.006
80.0057 0.114
80.0360 -0.246
80.0663 0.227
80.0966 0.180
80.1268 1.123
80.1571 0.192
80.1874 -0.115
80.2177 0.204
80.2479 -0.362
80.2782 0.531
80.3085 -0.139
80.3388 0.338
80.3691 -0.071
80.3993 0.406
80.4296 -0.001
80.4599 -0.096
80.4902 -0.191
80.5205 -0.233
80.5507 0.225
80.5810 0.319
80.6113 0.048
80.6416 0.090
80.6718 0.133
80.7021 0.645
80.7324 0.272
80.7627 0.628
80.7930 -0.214
80.8232 -0.117
80.8535 0.449
80.8838 -0.340
80.9141 0.018
80.9444 -0.301
80.9746 0.162
81.0049 0.105
81.0352 0.568
81.0655 0.355
81.0957 0.298
81.1260 0.086
81.1563 0.186
81.1866 0.287
81.2169 0.388
81.2471 0.125
81.2774 1.216
81.3077 0.798
81.3380 0.588
81.3683 0.274
81.3985 0.846
81.4288 -0.197
81.4591 0.063
81.4894 0.741
81.5196 0.376
81.5499 0.221
81.5802 0.482
81.6105 0.536
81.6408 0.121
81.6710 0.488
81.7013 0.282
81.7316 0.077
81.7619 -0.128
81.7922 0.292
81.8224 -0.017
81.8527 0.300
81.8830 0.721
81.9133 -0.107
81.9436 0.055
81.9738 0.008
82.0041 -0.194
82.0344 0.333
82.0647 -0.129
82.0949 -0.070
82.1252 -0.114
82.1555 -0.107
82.1858 -0.098
82.2161 0.066
82.2463 0.127
82.2766 0.084
82.3069 0.042
82.3372 0.000
82.3675 0.427
82.3977 0.281
82.4280 0.031
82.4583 0.459
82.4886 0.315
82.5188 0.066
82.5491 0.339
82.5794 0.560
82.6097 0.209
82.6400 0.118
82.6702 -0.389
82.7005 -0.082
82.7308 0.329
82.7611 0.533
82.7914 0.059
82.8216 0.316
82.8519 0.416
82.8822 -0.056
82.9125 0.305
82.9427 -0.062
82.9730 0.039
83.0033 -0.067
83.0336 0.036
83.0639 0.034
83.0941 0.294
83.1244 0.241
83.1547 -0.124
83.1850 0.189
83.2153 -0.176
83.2455 0.502
83.2758 0.034
83.3061 0.348
83.3364 0.090
83.3666 0.248
83.3969 -0.166
83.4272 0.514
83.4575 -0.420
83.4878 0.052
83.5180 -0.361
83.5483 0.060
83.5786 0.273
83.6089 0.434
83.6392 0.075
83.6694 -0.180
83.6997 0.243
83.7300 0.145
83.7603 0.099
83.7905 0.211
83.8208 0.218
83.8511 0.278
83.8814 0.286
83.9117 0.086
83.9419 -0.061
83.9722 -0.208
84.0025 0.092
84.0328 0.289
84.0631 -0.035
84.0933 0.162
84.1236 0.255
84.1539 0.401
84.1842 0.079
84.2144 -0.087
84.2447 0.424
84.2750 0.416
84.3053 0.251
84.3356 0.034
84.3658 0.026
84.3961 0.175
84.4264 0.480
84.4567 0.421
84.4870 0.102
84.5172 -0.008
84.5475 0.403
84.5778 0.241
84.6081 0.340
84.6383 0.283
84.6686 -0.450
84.6989 0.015
84.7292 0.063
84.7595 -0.149
84.7897 0.213
84.8200 -0.154
84.8503 0.052
84.8806 0.415
84.9109 0.048
84.9411 -0.005
84.9714 0.307
85.0017 -0.058
85.0320 0.098
85.0623 -0.006
85.0925 -0.058
85.1228 -0.161
85.1531 -0.056
85.1834 0.050
85.2136 -0.052
85.2439 -0.050
85.2742 -0.047
85.3045 0.164
85.3348 -0.093
85.3650 0.275
85.3953 0.384
85.4256 0.023
85.4559 -0.232
85.4862 0.346
85.5164 -0.013
85.5467 0.670
85.5770 0.103
85.6073 0.057
85.6375 0.272
85.6678 -0.137
85.6981 0.287
85.7284 0.295
85.7587 0.043
85.7889 0.520
85.8192 0.529
85.8495 0.070
85.8798 -0.389
85.9101 -0.029
85.9403 -0.086
85.9706 0.067
86.0009 0.375
86.0312 0.164
86.0614 -0.047
86.0917 0.106
86.1220 0.364
86.1523 0.363
86.1826 -0.160
86.2128 0.308
86.2431 0.046
86.2734 0.515
86.3037 0.619
86.3340 0.098
86.3642 -0.005
86.3945 0.100
86.4248 0.257
86.4551 -0.002
86.4853 0.209
86.5156 -0.154
86.5459 -0.151
86.5762 0.685
86.6065 0.012
86.6367 0.328
86.6670 0.072
86.6973 0.701
86.7276 0.602
86.7579 0.242
86.7881 0.091
86.8184 0.306
86.8487 0.364
86.8790 0.110
86.9092 0.742
86.9395 0.124
86.9698 -0.233
87.0001 -0.091
87.0304 -0.157
87.0606 0.090
87.0909 0.441
87.1212 0.220
87.1515 0.208
87.1818 0.039
87.2120 -0.233
87.2423 0.016
87.2726 0.474
87.3029 0.203
87.3331 0.245
87.3634 0.913
87.3937 -0.034
87.4240 0.582
87.4543 0.156
87.4845 -0.217
87.5148 0.400
87.5451 0.132
87.5754 0.281
87.6057 -0.195
87.6359 0.215
87.6662 -0.208
87.6965 -0.213
87.7268 0.198
87.7571 -0.016
87.7873 -0.177
87.8176 0.339
87.8479 0.023
87.8782 0.488
87.9084 -0.349
87.9387 -0.092
87.9690 0.426
87.9993 -0.201
88.0296 0.526
88.0598 0.056
88.0901 -0.154
88.1204 -0.155
88.1507 0.313
88.1810 0.365
88.2112 0.573
88.2415 -0.416
88.2718 -0.311
88.3021 0.455
88.3323 -0.029
88.3626 0.008
88.3929 0.150
88.4232 -0.125
88.4535 -0.086
88.4837 0.004
88.5140 0.356
88.5443 0.135
88.5746 0.175
88.6049 0.631
88.6351 0.255
88.6654 0.348
88.6957 0.754
88.7260 0.431
88.7562 0.056
88.7865 -0.058
88.8168 0.193
88.8471 -0.025
88.8774 0.591
88.9076 -0.094
88.9379 0.158
88.9682 0.515
88.9985 0.507
89.0288 1.125
89.0590 0.598
89.0893 0.643
89.1196 0.950
89.1499 0.475
89.1801 0.262
89.2104 0.517
89.2407 1.033
89.2710 1.446
89.3013 1.338
89.3315 1.438
89.3618 0.602
89.3921 1.380
89.4224 1.430
89.4527 2.313
89.4829 1.843
89.5132 1.893
89.5435 1.371
89.5738 1.891
89.6040 2.203
89.6343 1.891
89.6646 1.527
89.6949 1.579
89.7252 1.320
89.7554 1.478
89.7857 1.948
89.8160 1.533
89.8463 1.432
89.8766 1.955
89.9068 1.750
89.9371 0.920
89.9674 0.924
89.9977 0.407
90.0279 0.933
90.0582 0.469
90.0885 0.370
90.1188 0.480
90.1491 0.486
90.1793 0.231
90.2096 -0.022
90.2399 -0.015
90.2702 1.034
90.3005 0.416
90.3307 -0.201
90.3610 0.537
90.3913 -0.027
90.4216 0.346
90.4518 0.095
90.4821 0.314
90.5124 0.063
90.5427 -0.395
90.5730 0.033
90.6032 0.356
90.6335 -0.101
90.6638 -0.245
90.6941 -0.285
90.7244 0.285
90.7546 0.334
90.7849 0.696
90.8152 0.121
90.8455 0.171
90.8758 0.169
90.9060 0.168
90.9363 -0.093
90.9666 -0.302
90.9969 0.167
91.0271 0.636
91.0574 -0.249
91.0877 -0.248
91.1180 0.014
91.1483 0.224
91.1785 -0.295
91.2088 -0.032
91.2391 -0.030
91.2694 -0.131
91.2997 -0.075
91.3299 0.710
91.3602 0.401
91.3905 0.354
91.4208 0.254
91.4510 0.208
91.4813 -0.047
91.5116 -0.250
91.5419 -0.252
91.5722 0.424
91.6024 -0.098
91.6327 0.213
91.6630 0.682
91.6933 0.786
91.7236 0.161
91.7538 -0.151
91.7841 -0.098
91.8144 0.424
91.8447 0.009
91.8749 -0.250
91.9052 -0.250
91.9355 0.207
91.9658 -0.170
91.9961 0.131
92.0263 0.432
92.0566 -0.100
92.0869 0.202
92.1172 0.660
92.1475 0.233
92.1777 0.120
92.2080 0.110
92.2383 0.935
92.2686 0.145
92.2988 0.553
92.3291 -0.080
92.3594 0.955
92.3897 -0.094
92.4200 0.211
92.4502 0.049
92.4805 0.563
92.5108 0.558
92.5411 0.396
92.5714 0.339
92.6016 0.438
92.6319 0.590
92.6622 0.117
92.6925 0.739
92.7227 0.579
92.7530 -0.153
92.7833 0.417
92.8136 -0.210
92.8439 0.674
92.8741 0.360
92.9044 0.202
92.9347 0.514
92.9650 0.461
92.9953 0.097
93.0255 0.097
93.0558 -0.111
93.0861 -0.110
93.1164 0.047
93.1466 0.049
93.1769 0.103
93.2072 0.001
93.2375 0.316
93.2678 -0.358
93.2980 0.219
93.3283 -0.194
93.3586 0.122
93.3889 -0.030
93.4192 -0.285
93.4494 0.080
93.4797 0.236
93.5100 0.081
93.5403 -0.230
93.5706 0.084
93.6008 0.086
93.6311 -0.121
93.6614 0.559
93.6917 0.041
93.7219 0.201
93.7522 0.100
93.7825 0.052
93.8128 0.317
93.8431 0.218
93.8733 0.118
93.9036 0.280
93.9339 -0.391
93.9642 0.865
93.9945 0.455
94.0247 -0.528
94.0550 -0.260
94.0853 -0.222
94.1156 -0.027
94.1458 -0.039
94.1761 0.521
94.2064 0.353
94.2367 0.133
94.2670 -0.087
94.2972 0.423
94.3275 -0.265
94.3578 0.402
94.3881 0.236
94.4184 0.122
94.4486 0.530
94.4789 0.365
94.5092 -0.165
94.5395 -0.121
94.5697 0.184
94.6000 1.010
94.6303 0.794
94.6606 0.423
94.6909 0.052
94.7211 0.254
94.7514 0.092
94.7817 0.295
94.8120 0.447
94.8423 1.171
94.8725 1.063
94.9028 0.538
94.9331 1.263
94.9634 0.948
94.9936 1.361
95.0239 1.411
95.0542 1.148
95.0845 0.886
95.1148 1.301
95.1450 1.613
95.1753 1.456
95.2056 1.664
95.2359 1.403
95.2662 1.299
95.2964 1.664
95.3267 1.978
95.3570 1.146
95.3873 1.877
95.4175 1.149
95.4478 1.621
95.4781 1.259
95.5084 1.210
95.5387 2.047
95.5689 1.529
95.5992 1.534
95.6295 0.965
95.6598 1.074
95.6901 1.131
95.7203 0.877
95.7506 0.935
95.7809 0.941
95.8112 0.479
95.8414 0.590
95.8717 0.493
95.9020 0.032
95.9323 0.404
95.9626 0.725
95.9928 0.630
96.0231 -0.247
96.0534 0.023
96.0837 -0.019
96.1140 0.668
96.1442 -0.103
96.1745 -0.196
96.2048 0.024
96.2351 -0.225
96.2653 -0.266
96.2956 0.055
96.3259 0.167
96.3562 -0.346
96.3865 0.132
96.4167 -0.016
96.4470 0.515
96.4773 0.003
96.5076 -0.143
96.5379 0.180
96.5681 0.608
96.5984 -0.475
96.6287 -0.255
96.6590 0.207
96.6893 0.358
96.7195 -0.064
96.7498 0.139
96.7801 0.082
96.8104 -0.078
96.8406 0.438
96.8709 -0.190
96.9012 0.223
96.9315 0.012
96.9618 -0.199
96.9920 0.319
97.0223 0.057
97.0526 0.212
97.0829 0.106
97.1132 0.001
97.1434 0.053
97.1737 -0.416
97.2040 0.209
97.2343 0.001
97.2645 -0.050
97.2948 0.107
97.3251 -0.308
97.3554 0.215
97.3857 0.061
97.4159 -0.197
97.4462 0.275
97.4765 -0.086
97.5068 0.022
97.5371 0.026
97.5673 0.238
97.5976 0.087
97.6279 0.144
97.6582 0.618
97.6884 0.260
97.7187 -0.255
97.7490 -0.255
97.7793 0.099
97.8096 0.401
97.8398 0.391
97.8701 0.226
97.9004 0.633
97.9307 0.156
97.9610 0.095
97.9912 -0.434
98.0215 0.496
98.0518 0.384
98.0821 0.638
98.1123 0.058
98.1426 0.573
98.1729 0.567
98.2032 0.665
98.2335 0.296
98.2637 0.759
98.2940 0.390
98.3243 0.855
98.3546 0.538
98.3849 1.004
98.4151 1.053
98.4454 1.102
98.4757 0.995
98.5060 0.681
98.5362 1.304
98.5665 1.146
98.5968 0.781
98.6271 0.728
98.6574 0.675
98.6876 0.103
98.7179 0.572
98.7482 1.197
98.7785 0.469
98.8088 0.158
98.8390 1.150
98.8693 0.527
98.8996 -0.617
98.9299 0.428
98.9601 0.327
98.9904 0.799
99.0207 -0.135
99.0510 -0.078
99.0813 0.395
99.1115 0.504
99.1418 0.249
99.1721 0.723
99.2024 0.000
99.2327 0.111
99.2629 0.065
99.2932 0.020
99.3235 0.184
99.3538 -0.017
99.3841 0.981
99.4143 -0.261
99.4446 0.009
99.4749 -0.086
99.5052 -0.285
99.5354 0.134
99.5657 0.346
99.5960 -0.172
99.6263 -0.376
99.6566 0.253
99.6868 0.362
99.7171 0.367
99.7474 0.216
99.7777 -0.299
99.8080 0.488
99.8382 -0.652
99.8685 0.240
99.8988 0.300
99.9291 0.255
99.9593 -0.154
99.9896 0.166
100.0199 0.175
100.0502 -0.285
100.0805 -0.131
100.1107 -0.081
100.1410 -0.135
100.1713 0.489
100.2016 0.123
100.2319 0.175
100.2621 0.018
100.2924 0.123
100.3227 0.384
100.3530 0.489
100.3832 0.021
100.4135 -0.134
100.4438 0.076
100.4741 -0.650
100.5044 0.029
100.5346 0.293
100.5649 0.035
100.5952 -0.117
100.6255 0.356
100.6558 -0.161
100.6860 0.625
100.7163 0.422
100.7466 0.167
100.7769 -0.244
100.8071 -0.149
100.8374 0.415
100.8677 -0.374
100.8980 0.035
100.9283 -0.389
100.9585 0.385
100.9888 0.118
101.0191 0.164
101.0494 0.158
101.0797 0.360
101.1099 0.407
101.1402 0.037
101.1705 0.085
101.2008 0.081
101.2310 -0.027
101.2613 0.177
101.2916 0.591
101.3219 0.119
101.3522 -0.300
101.3824 0.115
101.4127 0.061
101.4430 -0.045
101.4733 -0.150
101.5036 -0.255
101.5338 0.109
101.5641 0.265
101.5944 0.265
101.6247 -0.048
101.6549 -0.255
101.6852 -0.016
101.7155 -0.193
101.7458 -0.057
101.7761 -0.025
101.8063 -0.044
101.8366 -0.480
101.8669 0.178
101.8972 -0.257
101.9275 0.037
101.9577 0.332
101.9880 -0.415
102.0183 -0.276
102.0486 -0.239
102.0788 0.110
102.1091 -0.009
102.1394 -0.440
102.1697 0.171
102.2000 0.053
102.2302 -0.273
102.2605 0.027
102.2908 0.639
102.3211 -0.675
102.3514 -0.062
102.3816 -0.543
102.4119 0.488
102.4422 0.112
102.4725 0.154
102.5028 0.143
102.5330 0.186
102.5633 -0.084
102.5936 0.271
102.6239 -0.415
102.6541 0.410
102.6844 -0.119
102.7147 -0.127
102.7450 0.387
102.7753 -0.037
102.8055 0.321
102.8358 -0.154
102.8661 0.413
102.8964 0.251
102.9267 0.193
102.9569 0.084
102.9872 -0.129
103.0175 -0.081
103.0478 -0.606
103.0780 0.484
103.1083 0.429
103.1386 0.218
103.1689 0.736
103.1992 -0.047
103.2294 0.368
103.2597 0.314
103.2900 -0.520
103.3203 0.000
103.3506 -0.157
103.3808 0.312
103.4111 0.833
103.4414 -0.052
103.4717 -0.051
103.5019 0.628
103.5322 0.421
103.5625 -0.150
103.5928 0.426
103.6231 0.272
103.6533 0.588
103.6836 -0.138
103.7139 0.595
103.7442 0.339
103.7745 0.135
103.8047 0.348
103.8350 0.614
103.8653 0.880
103.8956 0.469
103.9258 1.621
103.9561 1.055
103.9864 0.489
104.0167 0.653
104.0470 1.494
104.0772 0.877
104.1075 1.979
104.1378 0.894
104.1681 0.538
104.1984 0.860
104.2286 0.558
104.2589 1.401
104.2892 0.787
104.3195 0.798
104.3497 1.330
104.3800 0.352
104.4103 0.728
104.4406 1.001
104.4709 0.857
104.5011 0.141
104.5314 0.988
104.5617 1.262
104.5920 0.390
104.6223 1.342
104.6525 0.315
104.6828 0.174
104.7131 0.137
104.7434 0.257
104.7736 0.638
104.8039 0.290
104.8342 -0.214
104.8645 0.063
104.8948 0.810
104.9250 0.255
104.9553 0.221
104.9856 0.344
105.0159 0.155
105.0462 0.434
105.0764 -0.015
105.1067 -0.255
105.1370 0.004
105.1673 -0.154
105.1975 0.261
105.2278 0.209
105.2581 0.208
105.2884 -0.104
105.3187 0.052
105.3489 0.626
105.3792 -0.362
105.4095 -0.101
105.4398 -0.255
105.4701 -0.106
105.5003 0.148
105.5306 -0.326
105.5609 0.293
105.5912 0.183
105.6215 -0.030
105.6517 0.122
105.6820 0.117
105.7123 0.113
105.7426 -0.151
105.7728 0.055
105.8031 -0.053
105.8334 0.205
105.8637 -0.109
105.8940 0.097
105.9242 -0.165
105.9545 -0.114
105.9848 -0.167
106.0151 0.458
106.0454 -0.688
106.0756 0.198
106.1059 0.407
106.1362 -0.582
106.1665 -0.008
106.1967 -0.162
106.2270 -0.212
106.2573 0.155
106.2876 -0.676
106.3179 -0.102
106.3481 -0.049
106.3784 -0.255
106.4087 -0.045
106.4390 -0.095
106.4693 0.272
106.4995 -0.610
106.5298 0.383
106.5601 -0.082
106.5904 0.026
106.6206 0.134
106.6509 0.399
106.6812 0.509
106.7115 0.514
106.7418 -0.261
106.7720 -0.255
106.8023 0.102
106.8326 -0.113
106.8629 0.141
106.8932 -0.073
106.9234 0.130
106.9537 -0.084
106.9840 0.901
107.0143 -0.406
107.0445 0.267
107.0748 0.055
107.1051 -0.105
107.1354 -0.473
107.1657 0.201
107.1959 -0.062
107.2262 0.197
107.2565 0.403
107.2868 -0.484
107.3171 -0.068
107.3473 -0.121
107.3776 -0.017
107.4079 0.087
107.4382 0.452
107.4684 0.244
107.4987 -0.171
107.5290 -0.118
107.5593 -0.064
107.5896 -0.114
107.6198 -0.216
107.6501 0.047
107.6804 0.675
107.7107 0.314
107.7410 -0.515
107.7712 0.114
107.8015 -0.194
107.8318 -0.033
107.8621 0.285
107.8923 -0.126
107.9226 0.140
107.9529 0.199
107.9832 -0.211
108.0135 0.473
108.0437 -0.405
108.0740 0.175
108.1043 0.131
108.1346 0.087
108.1649 0.044
108.1951 -0.155
108.2254 -0.250
108.2557 -0.049
108.2860 -0.005
108.3163 0.040
108.3465 0.659
108.3768 0.340
108.4071 0.073
108.4374 0.380
108.4676 0.010
108.4979 -0.255
108.5282 -0.111
108.5585 0.191
108.5888 0.075
108.6190 -0.196
108.6493 0.471
108.6796 -0.216
108.7099 0.087
108.7402 -0.183
108.7704 -0.087
108.8007 0.112
108.8310 -0.104
108.8613 -0.008
108.8915 -0.223
108.9218 -0.126
108.9521 -0.029
108.9824 0.069
109.0127 -0.094
109.0429 -0.047
109.0732 -0.105
109.1035 -0.058
109.1338 -0.271
109.1641 -0.223
109.1943 -0.227
109.2246 0.134
109.2549 0.287
109.2852 0.440
109.3154 0.177
109.3457 0.331
109.3760 -0.191
109.4063 -0.037
109.4366 -0.142
109.4668 0.430
109.4971 -0.143
109.5274 0.013
109.5577 0.482
109.5880 0.274
109.6182 0.014
109.6485 0.120
109.6788 -0.191
109.7091 0.019
109.7393 -0.343
109.7696 0.128
109.7999 -0.337
109.8302 -0.086
109.8605 0.062
109.8907 -0.259
109.9210 -0.058
109.9513 0.247
109.9816 0.605
110.0119 0.598
110.0421 -0.138
110.0724 1.211
110.1027 0.320
110.1330 0.418
110.1632 0.518
110.1935 0.513
110.2238 0.457
110.2541 0.088
110.2844 0.137
110.3146 0.186
110.3449 0.287
110.3752 0.441
110.4055 0.803
110.4358 0.802
110.4660 0.488
110.4963 -0.086
110.5266 0.121
110.5569 0.329
110.5871 1.215
110.6174 0.642
110.6477 0.382
110.6780 -0.085
110.7083 0.801
110.7385 -0.343
110.7688 0.284
110.7991 -0.234
110.8294 0.133
110.8597 0.397
110.8899 0.192
110.9202 0.092
110.9505 -0.425
110.9808 0.257
111.0110 -0.415
111.0413 -0.203
111.0716 0.062
111.1019 -0.038
111.1322 -0.189
111.1624 0.285
111.1927 0.604
111.2230 0.558
111.2533 0.200
111.2836 -0.262
111.3138 0.214
111.3441 0.274
111.3744 -0.187
111.4047 0.342
111.4350 -0.743
111.4652 0.255
111.4955 0.369
111.5258 -0.194
111.5561 0.284
111.5863 -0.070
111.6166 0.358
111.6469 0.108
111.6772 -0.089
111.7075 -0.181
111.7377 -0.065
111.7680 -0.261
111.7983 0.169
111.8286 -0.078
111.8589 -0.169
111.8891 -0.259
111.9194 0.207
111.9497 -0.211
111.9800 0.308
112.0102 -0.318
112.0405 0.254
112.0708 0.098
112.1011 0.566
112.1314 0.098
112.1616 0.307
112.1919 -0.317
112.2222 -0.108
112.2525 0.415
112.2828 0.417
112.3130 0.211
112.3433 0.110
112.3736 -0.200
112.4039 0.116
112.4341 0.276
112.4644 0.124
112.4947 -0.601
112.5250 0.081
112.5553 0.451
112.5855 0.144
112.6158 -0.111
112.6461 0.052
112.6764 0.163
112.7067 0.326
112.7369 0.177
112.7672 0.185
112.7975 0.401
112.8278 -0.372
112.8580 -0.259
112.8883 0.408
112.9186 0.191
112.9489 0.286
112.9792 0.225
113.0094 0.165
113.0397 -0.364
113.0700 -0.007
113.1003 -0.378
113.1306 0.188
113.1608 0.442
113.1911 0.071
113.2214 0.221
113.2517 -0.201
113.2819 -0.154
113.3122 -0.002
113.3425 -0.111
113.3728 0.615
113.4031 0.090
113.4333 0.243
113.4636 0.188
113.4939 -0.231
113.5242 0.027
113.5545 0.233
113.5847 0.492
113.6150 -0.030
113.6453 0.386
113.6756 0.229
113.7058 -0.188
113.7361 -0.187
113.7664 0.178
113.7967 -0.030
113.8270 0.232
113.8572 0.286
113.8875 -0.337
113.9178 -0.243
113.9481 0.164
113.9784 0.311
114.0086 0.146
114.0389 0.398
114.0692 0.078
114.0995 -0.086
114.1298 0.844
114.1600 0.316
114.1903 0.153
114.2206 0.043
114.2509 0.193
114.2811 0.136
114.3114 -0.234
114.3417 0.021
114.3720 0.069
114.4023 0.533
114.4325 0.165
114.4628 0.005
114.4931 -0.467
114.5234 0.208
114.5537 -0.211
114.5839 -0.213
114.6142 -0.111
114.6445 0.461
114.6748 0.251
114.7050 -0.114
114.7353 -0.271
114.7656 0.129
114.7959 -0.097
114.8262 -0.218
114.8564 0.183
114.8867 0.011
114.9170 0.307
114.9473 -0.020
114.9776 -0.139
115.0078 -0.258
115.0381 0.196
115.0684 0.235
115.0987 0.221
115.1289 0.052
115.1592 -0.274
115.1895 0.079
115.2198 0.223
115.2501 -0.049
115.2803 0.304
115.3106 0.032
115.3409 0.282
115.3712 0.168
115.4015 0.262
115.4317 0.252
115.4620 0.034
115.4923 -0.079
115.5226 0.173
115.5528 0.113
115.5831 0.261
115.6134 0.566
115.6437 0.767
115.6740 0.448
115.7042 0.442
115.7345 0.435
115.7648 0.482
115.7951 0.112
115.8254 0.836
115.8556 0.519
115.8859 1.087
115.9162 1.031
115.9465 1.184
115.9767 0.659
116.0070 0.917
116.0373 1.331
116.0676 0.600
116.0979 0.754
116.1281 0.909
116.1584 0.855
116.1887 1.011
116.2190 0.750
116.2493 0.750
116.2795 1.271
116.3098 1.219
116.3401 1.376
116.3704 1.378
116.4006 0.702
116.4309 1.381
116.4612 0.811
116.4915 0.969
116.5218 0.920
116.5520 0.611
116.5823 1.136
116.6126 1.036
116.6429 0.623
116.6732 -0.049
116.7034 0.269
116.7337 1.316
116.7640 -0.084
116.7943 1.328
116.8245 0.970
116.8548 0.768
116.8851 0.567
116.9154 0.106
116.9457 1.208
116.9759 0.018
117.0062 0.131
117.0365 0.661
117.0668 0.358
117.0971 0.680
117.1273 -0.352
117.1576 0.388
117.1879 0.763
117.2182 0.306
117.2485 0.473
117.2787 -0.192
117.3090 0.393
117.3393 -0.167
117.3696 0.158
117.3998 -0.089
117.4301 0.237
117.4604 -0.270
117.4907 0.109
117.5210 0.228
117.5512 -0.383
117.5815 -0.003
117.6118 0.638
117.6421 -0.127
117.6724 0.306
117.7026 0.375
117.7329 0.548
117.7632 0.305
117.7935 0.375
117.8237 -0.440
117.8540 -0.266
117.8843 -0.102
117.9146 0.218
117.9449 -0.086
117.9751 -0.026
118.0054 -0.226
118.0357 -0.164
118.0660 -0.311
118.0963 0.208
118.1265 0.519
118.1568 0.310
118.1871 -0.055
118.2174 0.257
118.2476 0.153
118.2779 -0.107
118.3082 -0.054
118.3385 0.520
118.3688 0.678
118.3990 0.055
118.4293 -0.724
118.4596 0.476
118.4899 -0.094
118.5202 0.899
118.5504 -0.243
118.5807 0.594
118.6110 0.078
118.6413 1.176
118.6715 0.036
118.7018 -0.063
118.7321 0.255
118.7624 0.522
118.7927 -0.357
118.8229 0.066
118.8532 0.125
118.8835 0.081
118.9138 -0.068
118.9441 -0.007
118.9743 -0.259
119.0046 0.047
119.0349 0.145
119.0652 0.452
119.0954 -0.022
119.1257 0.234
119.1560 0.073
119.1863 -0.400
119.2166 0.429
119.2468 0.530
119.2771 -0.098
119.3074 0.159
119.3377 -0.052
119.3680 0.207
119.3982 0.361
119.4285 -0.161
119.4588 -0.162
119.4891 -0.007
119.5193 0.045
119.5496 0.097
119.5799 -0.111
119.6102 0.046
119.6405 0.724
119.6707 0.257
119.7010 -0.367
119.7313 0.313
119.7616 -0.154
119.7919 -0.255
119.8221 -0.126
119.8524 -0.154
119.8827 -0.233
119.9130 -0.155
119.9433 -0.389
119.9735 0.196
120.0038 0.000
