'Id: "" Comment: "" Operator: "Lab Manager" Anode: "Cu" Scantype: "Locked Coupled" TimePerStep: "19.2" X: "9999" Y: "9999" Z: "9999" 
10.0015 0.000
10.0318 -0.445
10.0620 -0.436
10.0923 -0.069
10.1226 -0.014
10.1529 0.197
10.1832 -0.112
10.2134 -0.316
10.2437 -0.417
10.2740 -0.315
10.3043 0.464
10.3346 -0.163
10.3648 -0.530
10.3951 0.771
10.4254 -0.220
10.4557 -0.169
10.4859 -0.378
10.5162 1.549
10.5465 -0.326
10.5768 0.299
10.6071 -0.429
10.6373 -0.116
10.6676 0.458
10.6979 -0.009
10.7282 1.086
10.7585 0.671
10.7887 1.559
10.8190 0.833
10.8493 1.356
10.8796 1.464
10.9098 1.363
10.9401 2.617
10.9704 3.767
11.0007 4.500
11.0310 5.546
11.0612 7.322
11.0915 6.234
11.1218 7.489
11.1521 6.870
11.1824 5.626
11.2126 4.487
11.2429 2.670
11.2732 1.584
11.3035 1.539
11.3337 1.026
11.3640 0.929
11.3943 0.260
11.4246 0.425
11.4549 0.694
11.4851 1.224
11.5154 0.817
11.5457 -0.319
11.5760 0.368
11.6063 0.274
11.6365 -0.862
11.6668 0.451
11.6971 0.619
11.7274 -0.255
11.7577 0.642
11.7879 1.018
11.8182 -0.272
11.8485 0.001
11.8788 0.379
11.9090 -0.493
11.9393 0.510
11.9696 -0.050
11.9999 0.329
12.0302 0.447
12.0604 -0.007
12.0907 -0.200
12.1210 -0.393
12.1513 0.188
12.1816 -0.376
12.2118 0.206
12.2421 0.111
12.2724 0.693
12.3027 0.390
12.3329 0.452
12.3632 -0.318
12.3935 -0.152
12.4238 0.172
12.4541 -0.494
12.4843 -0.130
12.5146 0.860
12.5449 -0.598
12.5752 0.236
12.6055 -0.284
12.6357 0.812
12.6660 0.084
12.6963 1.284
12.7266 0.400
12.7568 0.090
12.7871 -0.219
12.8174 0.565
12.8477 0.568
12.8780 0.572
12.9082 0.211
12.9385 0.632
12.9688 0.637
12.9991 1.058
13.0294 0.595
13.0596 0.756
13.0899 -0.332
13.1202 0.039
13.1505 -0.372
13.1807 -0.313
13.2110 0.215
13.2413 0.430
13.2716 0.333
13.3019 0.237
13.3321 -0.224
13.3624 0.305
13.3927 0.522
13.4230 -0.042
13.4533 -0.137
13.4835 0.446
13.5138 0.560
13.5441 -0.472
13.5744 -0.149
13.6046 0.695
13.6349 -0.856
13.6652 0.665
13.6955 -0.157
13.7258 0.428
13.7560 0.492
13.7863 -0.745
13.8166 -0.160
13.8469 0.478
13.8772 0.127
13.9074 -0.432
13.9377 0.155
13.9680 -0.092
13.9983 -0.181
14.0285 0.042
14.0588 0.317
14.0891 0.541
14.1194 0.140
14.1497 0.573
14.1799 0.745
14.2102 -0.124
14.2405 0.258
14.2708 0.691
14.3011 -0.333
14.3313 0.154
14.3616 0.276
14.3919 0.711
14.4222 0.261
14.4524 -0.345
14.4827 -0.346
14.5130 0.487
14.5433 0.799
14.5736 0.070
14.6038 0.070
14.6341 -0.345
14.6644 -0.040
14.6947 0.317
14.7250 0.467
14.7552 0.565
14.7855 -0.119
14.8158 0.448
14.8461 -0.078
14.8764 0.125
14.9066 -0.609
14.9369 0.272
14.9672 -0.358
14.9975 0.784
15.0277 0.259
15.0580 0.152
15.0883 -0.008
15.1186 -0.636
15.1489 0.403
15.1791 0.453
15.2094 -0.695
15.2397 0.606
15.2700 0.240
15.3003 0.447
15.3305 0.134
15.3608 0.185
15.3911 -0.388
15.4214 0.549
15.4516 0.498
15.4819 0.759
15.5122 0.291
15.5425 -0.593
15.5728 0.554
15.6030 -0.121
15.6333 0.037
15.6636 0.300
15.6939 0.250
15.7242 -0.528
15.7544 0.048
15.7847 1.250
15.8150 0.628
15.8453 0.320
15.8755 -0.873
15.9058 0.277
15.9361 -0.603
15.9664 0.287
15.9967 -0.749
16.0269 0.091
16.0572 0.461
16.0875 0.989
16.1178 -0.463
16.1481 -0.248
16.1783 0.176
16.2086 0.132
16.2389 0.921
16.2692 -0.164
16.2994 -0.052
16.3297 -0.043
16.3600 -0.190
16.3903 0.184
16.4206 -0.483
16.4508 -0.057
16.4811 -0.046
16.5114 -0.088
16.5417 -0.338
16.5720 0.126
16.6022 0.381
16.6325 0.688
16.6628 1.048
16.6931 1.408
16.7233 0.623
16.7536 -0.423
16.7839 0.563
16.8142 -0.429
16.8445 0.974
16.8747 0.294
16.9050 -0.073
16.9353 -0.283
16.9656 -0.025
16.9959 0.390
17.0261 0.285
17.0564 0.388
17.0867 0.596
17.1170 0.648
17.1472 -0.446
17.1775 -0.342
17.2078 0.074
17.2381 0.230
17.2684 0.646
17.2986 0.647
17.3289 -0.030
17.3592 0.491
17.3895 0.232
17.4198 -0.027
17.4500 0.339
17.4803 0.236
17.5106 0.551
17.5409 0.293
17.5712 -0.225
17.6014 0.403
17.6317 -0.375
17.6620 0.358
17.6923 0.101
17.7225 -0.884
17.7528 -0.049
17.7831 -0.254
17.8134 0.426
17.8437 0.273
17.8739 -0.452
17.9042 0.489
17.9345 0.962
17.9648 0.602
17.9951 0.190
18.0253 -0.326
18.0556 0.721
18.0859 0.519
18.1162 0.837
18.1464 -0.407
18.1767 0.538
18.2070 0.544
18.2373 0.552
18.2676 0.351
18.2978 0.619
18.3281 -0.050
18.3584 0.844
18.3887 -0.294
18.4190 -0.076
18.4492 0.193
18.4795 -0.006
18.5098 0.108
18.5401 -0.142
18.5703 0.910
18.6006 -0.694
18.6309 0.307
18.6612 0.630
18.6915 0.642
18.7217 0.602
18.7520 0.197
18.7823 0.001
18.8126 -0.038
18.8429 -0.442
18.8731 0.070
18.9034 -0.563
18.9337 0.731
18.9640 -0.006
18.9942 -0.066
19.0245 0.083
19.0548 0.284
19.0851 0.225
19.1154 -0.042
19.1456 0.265
19.1759 0.259
19.2062 0.149
19.2365 0.092
19.2668 0.087
19.2970 0.238
19.3273 0.026
19.3576 0.178
19.3879 -0.503
19.4181 0.639
19.4484 0.011
19.4787 -0.565
19.5090 0.214
19.5393 0.420
19.5695 0.053
19.5998 0.780
19.6301 -0.523
19.6604 0.830
19.6907 -0.682
19.7209 -0.318
19.7512 -0.474
19.7815 0.515
19.8118 0.047
19.8420 -0.317
19.8723 0.934
19.9026 0.362
19.9329 0.416
19.9632 0.522
19.9934 0.576
20.0237 -0.359
20.0540 0.789
20.0843 0.063
20.1146 0.326
20.1448 0.278
20.1751 0.490
20.2054 -0.496
20.2357 0.498
20.2659 -0.226
20.2962 -0.325
20.3265 -0.270
20.3568 0.620
20.3871 0.468
20.4173 0.681
20.4476 -0.304
20.4779 0.378
20.5082 -0.242
20.5385 0.233
20.5687 -0.282
20.5990 -0.172
20.6293 -0.217
20.6596 0.206
20.6899 0.734
20.7201 0.638
20.7504 0.124
20.7807 -0.180
20.8110 0.245
20.8412 0.254
20.8715 -0.050
20.9018 0.272
20.9321 0.594
20.9624 -0.230
20.9926 0.301
21.0229 -0.157
21.0532 0.478
21.0835 0.437
21.1138 -0.177
21.1440 -0.217
21.1743 -0.101
21.2046 -0.141
21.2349 0.132
21.2651 0.196
21.2954 -0.520
21.3257 -0.163
21.3560 0.090
21.3863 0.343
21.4165 0.649
21.4468 -0.556
21.4771 0.584
21.5074 0.057
21.5377 -0.001
21.5679 0.046
21.5982 -0.063
21.6285 -0.016
21.6588 -0.073
21.6890 0.444
21.7193 -0.029
21.7496 0.488
21.7799 0.537
21.8102 0.482
21.8404 0.010
21.8707 -0.096
21.9010 -0.307
21.9313 -0.152
21.9616 0.054
21.9918 -0.207
22.0221 -0.312
22.0524 0.103
22.0827 0.103
22.1129 0.207
22.1432 -0.105
22.1735 -0.209
22.2038 -0.312
22.2341 -0.105
22.2643 0.207
22.2946 -0.210
22.3249 -0.262
22.3552 0.364
22.3855 -0.156
22.4157 0.313
22.4460 0.679
22.4763 0.212
22.5066 0.214
22.5368 -0.461
22.5671 0.218
22.5974 0.377
22.6277 -0.088
22.6580 0.332
22.6882 -0.290
22.7185 0.756
22.7488 0.187
22.7791 0.192
22.8094 -0.012
22.8396 0.566
22.8699 -0.522
22.9002 -0.308
22.9305 0.315
22.9607 0.054
22.9910 0.886
23.0213 0.209
23.0516 0.625
23.0819 0.469
23.1121 0.104
23.1424 0.209
23.1727 0.418
23.2030 0.471
23.2333 -0.204
23.2635 0.683
23.2938 0.737
23.3241 0.062
23.3544 0.742
23.3846 0.432
23.4149 0.956
23.4452 0.127
23.4755 -0.078
23.5058 0.447
23.5360 -0.070
23.5663 0.456
23.5966 -0.320
23.6269 0.102
23.6572 -0.205
23.6874 -0.304
23.7177 0.066
23.7480 0.072
23.7783 0.286
23.8086 -0.229
23.8388 0.767
23.8691 0.357
23.8994 0.364
23.9297 0.319
23.9599 0.274
23.9902 0.438
24.0205 -0.127
24.0508 0.246
24.0811 0.255
24.1113 0.576
24.1416 0.586
24.1719 0.543
24.2022 -1.061
24.2325 0.094
24.2627 0.626
24.2930 -0.041
24.3233 -0.290
24.3536 -0.345
24.3838 1.007
24.4141 0.224
24.4444 0.430
24.4747 0.533
24.5050 0.688
24.5352 0.323
24.5655 0.583
24.5958 0.530
24.6261 -0.147
24.6564 0.999
24.6866 0.323
24.7169 -0.093
24.7472 -0.040
24.7775 0.170
24.8077 -0.610
24.8380 -0.035
24.8683 -0.241
24.8986 -0.290
24.9289 0.064
24.9591 0.053
24.9894 -0.061
25.0197 -0.279
25.0500 0.492
25.0803 0.274
25.1105 0.161
25.1408 0.309
25.1711 0.196
25.2014 0.032
25.2316 0.024
25.2619 0.693
25.2922 0.686
25.3225 -0.102
25.3528 0.151
25.3830 0.197
25.4133 1.128
25.4436 0.550
25.4739 -0.133
25.5042 0.122
25.5344 0.273
25.5647 0.112
25.5950 -0.152
25.6253 1.094
25.6555 -0.056
25.6858 0.045
25.7161 -0.115
25.7464 0.663
25.7767 0.140
25.8069 -0.175
25.8372 -0.073
25.8675 0.238
25.8978 0.132
25.9281 -0.390
25.9583 -0.090
25.9886 0.366
26.0189 0.301
26.0492 -0.023
26.0794 -0.296
26.1097 0.370
26.1400 0.202
26.1703 -0.694
26.2006 0.180
26.2308 0.014
26.2611 -0.153
26.2914 -0.111
26.3217 -0.016
26.3520 -0.234
26.3822 0.278
26.4125 0.322
26.4428 0.261
26.4731 0.045
26.5034 0.089
26.5336 0.082
26.5639 0.074
26.5942 -0.297
26.6245 -0.148
26.6547 0.263
26.6850 -0.316
26.7153 0.199
26.7456 -0.275
26.7759 -0.020
26.8061 -0.598
26.8364 0.070
26.8667 0.113
26.8970 -0.052
26.9273 0.043
26.9575 -0.329
26.9878 -0.184
27.0181 0.013
27.0484 -0.154
27.0786 -0.060
27.1089 0.607
27.1392 -0.132
27.1695 0.015
27.1998 0.057
27.2300 -0.160
27.2603 0.196
27.2906 -0.385
27.3209 0.336
27.3512 0.276
27.3814 0.425
27.4117 0.053
27.4420 0.046
27.4723 -0.168
27.5025 0.502
27.5328 0.705
27.5631 -0.030
27.5934 -0.296
27.6237 -0.041
27.6539 -0.150
27.6842 -0.258
27.7145 0.206
27.7448 0.202
27.7751 -0.010
27.8053 -0.065
27.8356 -0.537
27.8659 0.710
27.8962 0.187
27.9264 -0.544
27.9567 -0.025
27.9870 -0.391
28.0173 0.128
28.0476 -0.237
28.0778 0.022
28.1081 0.126
28.1384 -0.707
28.1687 -0.030
28.1990 0.491
28.2292 -0.498
28.2595 0.128
28.2898 0.286
28.3201 -0.494
28.3503 0.498
28.3806 0.813
28.4109 0.138
28.4412 0.141
28.4715 0.040
28.5017 -0.061
28.5320 0.932
28.5623 0.155
28.5926 0.524
28.6229 0.424
28.6531 0.221
28.6834 -0.191
28.7137 -0.342
28.7440 0.119
28.7742 -0.825
28.8045 0.313
28.8348 0.723
28.8651 -0.065
28.8954 0.241
28.9256 -0.650
28.9559 -0.199
28.9862 0.304
29.0165 -0.287
29.0468 0.373
29.0770 0.252
29.1073 -0.546
29.1376 0.219
29.1679 -0.109
29.1981 -0.021
29.2284 -0.296
29.2587 -0.624
29.2890 0.350
29.3193 -0.135
29.3495 0.006
29.3798 -0.530
29.4101 0.185
29.4404 -0.246
29.4707 -0.365
29.5009 0.232
29.5312 -0.161
29.5615 -0.346
29.5918 0.147
29.6221 -0.089
29.6523 0.978
29.6826 -0.508
29.7129 0.195
29.7432 0.064
29.7734 -0.483
29.8037 0.533
29.8340 0.299
29.8643 -0.768
29.8946 0.197
29.9248 0.537
29.9551 -0.008
29.9854 -0.241
30.0157 0.777
30.0460 -0.080
30.0762 0.574
30.1065 0.604
30.1368 0.425
30.1671 0.350
30.1973 0.641
30.2276 0.359
30.2579 0.285
30.2882 0.420
30.3185 0.139
30.3487 0.275
30.3790 -0.006
30.4093 0.547
30.4396 0.684
30.4699 -0.169
30.5001 0.541
30.5304 0.678
30.5607 0.556
30.5910 0.381
30.6212 1.509
30.6515 1.387
30.6818 1.318
30.7121 1.718
30.7424 1.440
30.7726 1.007
30.8029 0.627
30.8332 1.965
30.8635 2.783
30.8938 2.403
30.9240 2.857
30.9543 3.311
30.9846 3.713
31.0149 4.324
31.0451 4.779
31.0754 5.130
31.1057 6.471
31.1360 5.312
31.1663 6.602
31.1965 7.370
31.2268 7.983
31.2571 9.482
31.2874 11.606
31.3177 11.230
31.3479 14.449
31.3782 16.625
31.4085 17.032
31.4388 20.511
31.4690 20.918
31.4993 24.815
31.5296 26.942
31.5599 26.776
31.5902 28.330
31.6204 30.145
31.6507 31.231
31.6810 28.098
31.7113 25.799
31.7416 22.928
31.7718 21.879
31.8021 18.956
31.8324 17.804
31.8627 15.923
31.8929 13.209
31.9232 10.548
31.9535 10.282
31.9838 7.934
32.0141 7.825
32.0443 8.081
32.0746 4.275
32.1049 4.272
32.1352 4.217
32.1655 4.943
32.1957 4.888
32.2260 3.323
32.2563 2.852
32.2866 3.163
32.3169 2.641
32.3471 2.171
32.3774 1.441
32.4077 1.128
32.4380 0.867
32.4682 0.971
32.4985 0.867
32.5288 0.972
32.5591 1.493
32.5894 0.453
32.6196 0.819
32.6499 0.091
32.6802 0.458
32.7105 -0.842
32.7408 -0.058
32.7710 0.674
32.8013 0.834
32.8316 1.566
32.8619 0.424
32.8921 0.741
32.9224 0.068
32.9527 0.385
32.9830 0.234
33.0133 -0.177
33.0435 -0.224
33.0738 -0.062
33.1041 -0.212
33.1344 0.211
33.1647 -0.199
33.1949 -0.296
33.2252 -0.445
33.2555 0.167
33.2858 -0.107
33.3160 0.766
33.3463 -0.236
33.3766 0.794
33.4069 0.209
33.4372 0.093
33.4674 0.030
33.4977 -0.450
33.5280 0.321
33.5583 0.259
33.5886 1.082
33.6188 0.343
33.6491 0.750
33.6794 1.210
33.7097 0.576
33.7399 1.713
33.7702 1.445
33.8005 1.593
33.8308 1.793
33.8611 2.984
33.8913 4.487
33.9216 3.126
33.9519 3.641
33.9822 5.093
34.0125 7.535
34.0427 7.477
34.0730 9.815
34.1033 13.300
34.1336 15.899
34.1638 19.593
34.1941 24.380
34.2244 31.095
34.2547 34.737
34.2850 39.682
34.3152 35.981
34.3455 34.572
34.3758 27.695
34.4061 23.630
34.4364 15.607
34.4666 12.793
34.4969 11.698
34.5272 7.791
34.5575 7.322
34.5877 5.603
34.6180 5.551
34.6483 5.030
34.6786 4.562
34.7089 2.792
34.7391 2.480
34.7694 3.940
34.7997 3.108
34.8300 2.537
34.8603 2.592
34.8905 2.699
34.9208 3.274
34.9511 2.288
34.9814 1.406
35.0116 1.878
35.0419 1.778
35.0722 2.408
35.1025 1.839
35.1328 2.261
35.1630 2.683
35.1933 2.324
35.2236 2.902
35.2539 2.804
35.2842 2.811
35.3144 3.234
35.3447 2.772
35.3750 2.415
35.4053 4.870
35.4356 4.097
35.4658 4.626
35.4961 4.166
35.5264 5.893
35.5567 6.371
35.5869 7.266
35.6172 8.421
35.6475 9.577
35.6778 8.858
35.7081 11.837
35.7383 12.785
35.7686 12.171
35.7989 15.985
35.8292 17.611
35.8595 21.113
35.8897 21.333
35.9200 24.471
35.9503 28.234
35.9806 32.674
36.0108 35.135
36.0411 39.159
36.0714 39.590
36.1017 40.385
36.1320 44.879
36.1622 41.769
36.1925 40.743
36.2228 36.643
36.2531 33.326
36.2834 28.863
36.3136 24.869
36.3439 21.604
36.3742 21.256
36.4045 18.045
36.4347 16.500
36.4650 14.069
36.4953 12.213
36.5256 10.825
36.5559 8.760
36.5861 9.039
36.6164 7.184
36.6467 5.537
36.6770 5.192
36.7073 6.410
36.7375 4.920
36.7678 4.732
36.7981 3.503
36.8284 2.848
36.8586 2.505
36.8889 2.735
36.9192 2.080
36.9495 2.103
36.9798 2.177
37.0100 0.638
37.0403 0.974
37.0706 0.841
37.1009 1.386
37.1312 0.577
37.1614 1.018
37.1917 0.574
37.2220 1.277
37.2523 1.198
37.2825 0.807
37.3128 0.937
37.3431 0.807
37.3734 0.886
37.4037 0.652
37.4339 0.627
37.4642 -0.074
37.4945 0.266
37.5248 0.711
37.5551 0.479
37.5853 -0.222
37.6156 -0.245
37.6459 0.357
37.6762 0.283
37.7064 0.781
37.7367 0.395
37.7670 0.321
37.7973 -0.169
37.8276 -0.242
37.8578 0.101
37.8881 -0.544
37.9184 0.738
37.9487 0.822
37.9790 -0.500
38.0092 -0.050
38.0395 -0.173
38.0698 -0.348
38.1001 0.467
38.1304 0.292
38.1606 -0.403
38.1909 -0.056
38.2212 -0.333
38.2515 0.012
38.2817 0.150
38.3120 0.027
38.3423 -0.095
38.3726 -0.321
38.4029 -0.211
38.4331 0.733
38.4634 0.167
38.4937 -0.294
38.5240 0.026
38.5543 -0.123
38.5845 0.406
38.6148 -0.054
38.6451 0.110
38.6754 -0.454
38.7056 0.076
38.7359 -0.122
38.7662 -0.217
38.7965 -0.259
38.8268 0.168
38.8570 -0.134
38.8873 -0.175
38.9176 -0.163
38.9479 -0.308
38.9782 0.120
39.0084 -0.025
39.0387 0.142
39.0690 0.363
39.0993 -0.042
39.1295 0.491
39.1598 0.244
39.1901 0.205
39.2204 0.218
39.2507 0.075
39.2809 -0.171
39.3112 -0.157
39.3415 0.274
39.3718 -0.284
39.4021 0.564
39.4323 -0.410
39.4626 0.231
39.4929 0.195
39.5232 0.680
39.5534 0.436
39.5837 -0.016
39.6140 -0.363
39.6443 0.057
39.6746 -0.148
39.7048 -0.196
39.7351 -0.088
39.7654 0.072
39.7957 -0.079
39.8260 0.238
39.8562 0.400
39.8865 0.041
39.9168 -0.266
39.9471 0.053
39.9773 0.112
40.0076 0.066
40.0379 0.073
40.0682 -0.075
40.0985 0.401
40.1287 -0.424
40.1590 0.313
40.1893 0.426
40.2196 -0.086
40.2499 -0.129
40.2801 0.193
40.3104 -0.371
40.3407 0.473
40.3710 0.223
40.4012 -0.236
40.4315 0.088
40.4618 -0.266
40.4921 -0.111
40.5224 -0.008
40.5526 0.043
40.5829 -0.061
40.6132 -0.166
40.6435 0.199
40.6738 0.616
40.7040 0.408
40.7343 -0.372
40.7646 -0.007
40.7949 -0.266
40.8251 -0.266
40.8554 0.256
40.8857 -0.212
40.9160 -0.003
40.9463 0.050
40.9765 0.260
41.0068 -0.051
41.0371 0.264
41.0674 0.423
41.0977 0.061
41.1279 0.064
41.1582 0.484
41.1885 0.019
41.2188 0.335
41.2491 0.339
41.2793 0.344
41.3096 0.349
41.3399 0.249
41.3702 -0.162
41.4004 -0.260
41.4307 0.053
41.4610 -0.780
41.4913 0.263
41.5216 0.369
41.5518 0.215
41.5821 0.269
41.6124 0.219
41.6427 0.170
41.6730 -0.035
41.7032 -0.032
41.7335 0.232
41.7638 -0.024
41.7941 0.032
41.8243 -0.120
41.8546 0.406
41.8849 -0.162
41.9152 0.520
41.9455 0.266
41.9757 0.324
42.0060 -0.035
42.0363 0.076
42.0666 -0.125
42.0969 0.663
42.1271 0.358
42.1574 -0.364
42.1877 0.530
42.2180 0.434
42.2482 -0.182
42.2785 0.816
42.3088 -0.112
42.3391 -0.311
42.3694 0.154
42.3996 -0.110
42.4299 0.251
42.4602 -0.064
42.4905 -0.536
42.5208 0.139
42.5510 0.033
42.5813 -0.229
42.6116 0.186
42.6419 -0.076
42.6721 0.080
42.7024 0.183
42.7327 0.600
42.7630 -0.129
42.7933 -0.181
42.8235 0.392
42.8538 0.081
42.8841 0.290
42.9144 0.552
42.9447 -0.280
42.9749 -0.225
43.0052 -0.067
43.0355 0.457
43.0658 0.199
43.0960 0.619
43.1263 0.102
43.1566 -0.363
43.1869 -0.058
43.2172 0.142
43.2474 -0.125
43.2777 0.493
43.3080 0.539
43.3383 -0.301
43.3686 0.474
43.3988 -0.208
43.4291 0.463
43.4594 0.354
43.4897 0.037
43.5199 0.032
43.5502 -0.128
43.5805 0.284
43.6108 0.541
43.6411 -0.139
43.6713 0.327
43.7016 -0.093
43.7319 -0.200
43.7622 -0.462
43.7925 0.265
43.8227 0.055
43.8530 -0.050
43.8833 0.053
43.9136 0.209
43.9439 0.000
43.9741 -0.209
44.0044 0.312
44.0347 0.469
44.0650 0.262
44.0952 0.263
44.1255 -0.153
44.1558 -0.255
44.1861 -0.101
44.2164 0.158
44.2466 -0.051
44.2769 0.208
44.3072 0.259
44.3375 -0.053
44.3678 0.207
44.3980 0.363
44.4283 0.208
44.4586 -0.156
44.4889 -0.311
44.5191 0.198
44.5494 -0.385
44.5797 0.385
44.6100 -0.042
44.6403 0.053
44.6705 0.043
44.7008 -0.331
44.7311 0.128
44.7614 -0.662
44.7917 0.111
44.8219 0.103
44.8522 -0.166
44.8825 -0.121
44.9128 0.184
44.9430 -0.188
44.9733 0.274
45.0036 0.007
45.0339 -0.311
45.0642 0.046
45.0944 -0.585
45.1247 0.190
45.1550 -0.025
45.1853 0.178
45.2156 -0.505
45.2458 -0.093
45.2761 -0.046
45.3064 0.054
45.3367 0.102
45.3669 -0.215
45.3972 -0.271
45.4275 -0.118
45.4578 -0.121
45.4881 0.085
45.5183 -0.178
45.5486 0.080
45.5789 -0.078
45.6092 0.389
45.6395 0.492
45.6697 0.543
45.7000 0.177
45.7303 0.385
45.7606 0.281
45.7908 0.281
45.8211 -0.031
45.8514 0.438
45.8817 0.700
45.9120 -0.028
45.9422 0.130
45.9725 -0.337
46.0028 -0.090
46.0331 0.782
46.0634 -0.273
46.0936 -0.181
46.1239 0.483
46.1542 0.107
46.1845 -0.374
46.2147 0.031
46.2450 0.229
46.2753 0.113
46.3056 -0.105
46.3359 0.353
46.3661 0.655
46.3964 0.594
46.4267 -0.093
46.4570 -0.102
46.4873 -0.059
46.5175 -0.015
46.5478 0.029
46.5781 0.333
46.6084 0.586
46.6386 0.526
46.6689 0.415
46.6992 0.148
46.7295 0.714
46.7598 0.500
46.7900 1.067
46.8203 1.478
46.8506 0.587
46.8809 1.415
46.9112 1.984
46.9414 2.083
46.9717 1.090
47.0020 2.075
47.0323 2.280
47.0626 1.704
47.0928 2.222
47.1231 4.355
47.1534 4.300
47.1837 4.298
47.2139 5.442
47.2442 5.180
47.2745 7.210
47.3048 6.740
47.3351 7.469
47.3653 7.260
47.3956 7.104
47.4259 6.844
47.4562 6.167
47.4865 6.428
47.5167 7.263
47.5470 5.702
47.5773 6.068
47.6076 5.862
47.6378 5.343
47.6681 4.721
47.6984 3.786
47.7287 2.852
47.7590 2.595
47.7892 1.974
47.8195 1.769
47.8498 2.451
47.8801 2.039
47.9104 1.992
47.9406 0.747
47.9709 0.857
48.0012 0.342
48.0315 0.764
48.0617 1.292
48.0920 0.361
48.1223 0.576
48.1526 0.115
48.1829 -0.190
48.2131 0.234
48.2434 -0.383
48.2737 0.459
48.3040 0.989
48.3343 0.477
48.3645 0.018
48.3948 -0.337
48.4251 0.035
48.4554 0.199
48.4856 -0.522
48.5159 0.111
48.5462 0.068
48.5765 0.129
48.6068 -0.486
48.6370 0.044
48.6673 -0.259
48.6976 -0.248
48.7279 -0.082
48.7582 -0.071
48.7884 0.044
48.8187 0.316
48.8490 0.120
48.8793 -0.285
48.9095 0.092
48.9398 0.156
48.9701 0.326
49.0004 -0.443
49.0307 0.040
49.0609 -0.311
49.0912 0.015
49.1215 0.030
49.1518 0.774
49.1821 -0.409
49.2123 0.023
49.2426 0.038
49.2729 -0.050
49.3032 0.279
49.3334 0.400
49.3637 0.052
49.3940 0.173
49.4243 0.451
49.4546 0.156
49.4848 -0.034
49.5151 0.401
49.5454 0.367
49.5757 0.178
49.6060 0.353
49.6362 0.060
49.6665 -0.389
49.6968 -0.034
49.7271 0.321
49.7574 0.365
49.7876 0.617
49.8179 -0.069
49.8482 0.184
49.8785 -0.137
49.9087 0.273
49.9390 0.370
49.9693 0.207
49.9996 0.461
50.0299 -0.014
50.0601 0.032
50.0904 0.547
50.1207 -0.239
50.1510 -0.192
50.1813 0.220
50.2115 -0.097
50.2418 -0.206
50.2721 0.259
50.3024 -0.057
50.3326 -0.112
50.3629 -0.011
50.3932 0.090
50.4235 0.088
50.4538 0.034
50.4840 -0.124
50.5143 0.031
50.5446 -0.231
50.5749 -0.076
50.6052 -0.129
50.6354 -0.285
50.6657 0.180
50.6960 -0.188
50.7263 0.226
50.7565 0.119
50.7868 0.533
50.8171 0.218
50.8474 0.321
50.8777 -0.202
50.9079 -0.255
50.9382 0.156
50.9685 0.098
50.9988 0.354
51.0291 0.036
51.0593 -0.072
51.0896 -0.181
51.1199 0.388
51.1502 0.176
51.1804 -0.296
51.2107 0.013
51.2410 -0.354
51.2713 0.321
51.3016 0.423
51.3318 0.004
51.3621 0.784
51.3924 -0.207
51.4227 -0.260
51.4530 -0.522
51.4832 0.415
51.5135 -0.211
51.5438 0.154
51.5741 -0.158
51.6043 -0.158
51.6346 -0.209
51.6649 -0.260
51.6952 -0.154
51.7255 0.160
51.7557 -0.358
51.7860 -0.043
51.8163 0.221
51.8466 -0.297
51.8769 -0.137
51.9071 -0.185
51.9374 0.236
51.9677 0.397
51.9980 0.454
52.0282 0.147
52.0585 -0.369
52.0888 0.054
52.1191 0.060
52.1494 -0.351
52.1796 0.281
52.2099 -0.337
52.2402 0.191
52.2705 -0.479
52.3008 -0.002
52.3310 0.006
52.3613 0.483
52.3916 0.023
52.4219 0.449
52.4521 -0.427
52.4824 0.259
52.5127 -0.148
52.5430 -0.242
52.5733 -0.179
52.6035 0.040
52.6338 0.259
52.6641 0.010
52.6944 -0.239
52.7247 -0.140
52.7549 0.376
52.7852 0.267
52.8155 -0.310
52.8458 0.051
52.8761 -0.214
52.9063 0.512
52.9366 0.144
52.9669 0.246
52.9972 -0.017
53.0274 0.449
53.0577 -0.022
53.0880 0.237
53.1183 -0.441
53.1486 -0.192
53.1788 0.215
53.2091 -0.004
53.2394 0.039
53.2697 -0.127
53.3000 -0.084
53.3302 0.063
53.3605 -0.258
53.3908 0.098
53.4211 0.194
53.4513 -0.126
53.4816 0.179
53.5119 0.328
53.5422 0.582
53.5725 0.263
53.6027 -0.108
53.6330 0.042
53.6633 -0.172
53.6936 0.031
53.7239 -0.026
53.7541 -0.031
53.7844 0.016
53.8147 -0.196
53.8450 -0.148
53.8752 0.109
53.9055 -0.467
53.9358 -0.062
53.9661 0.031
53.9964 -0.188
54.0266 0.062
54.0569 -0.156
54.0872 0.094
54.1175 -0.228
54.1478 0.284
54.1780 -0.142
54.2083 -0.098
54.2386 -0.211
54.2689 0.302
54.2991 0.398
54.3294 0.078
54.3597 0.071
54.3900 0.272
54.4203 0.214
54.4505 0.468
54.4808 -0.371
54.5111 0.040
54.5414 0.242
54.5717 0.029
54.6019 0.180
54.6322 0.020
54.6625 0.119
54.6928 0.063
54.7230 -0.253
54.7533 0.056
54.7836 -0.311
54.8139 -0.003
54.8442 -0.163
54.8744 0.458
54.9047 -0.014
54.9350 -0.017
54.9653 -0.280
54.9956 -0.086
55.0258 0.108
55.0561 0.355
55.0864 0.133
55.1167 0.172
55.1469 -0.153
55.1772 -0.061
55.2075 0.291
55.2378 0.019
55.2681 -0.201
55.2983 0.101
55.3286 0.402
55.3589 0.391
55.3892 0.017
55.4195 -0.306
55.4497 0.413
55.4800 -0.117
55.5103 1.072
55.5406 0.490
55.5709 0.273
55.6011 0.786
55.6314 1.663
55.6617 0.666
55.6920 0.450
55.7222 1.172
55.7525 0.488
55.7828 1.211
55.8131 0.527
55.8434 1.615
55.8736 1.661
55.9039 1.344
55.9342 1.911
55.9645 2.011
55.9948 2.475
56.0250 1.742
56.0553 2.102
56.0856 4.182
56.1159 3.397
56.1461 4.749
56.1764 4.537
56.2067 5.056
56.2370 5.470
56.2673 7.552
56.2975 6.404
56.3278 9.164
56.3581 9.892
56.3884 11.141
56.4187 9.682
56.4489 10.568
56.4792 10.151
56.5095 7.235
56.5398 8.173
56.5700 8.851
56.6003 6.874
56.6306 6.250
56.6609 5.888
56.6912 5.317
56.7214 4.642
56.7517 4.385
56.7820 3.138
56.8123 3.870
56.8426 3.458
56.8728 3.149
56.9031 2.789
56.9334 2.168
56.9637 2.225
56.9939 2.126
57.0242 2.080
57.0545 0.887
57.0848 1.414
57.1151 1.108
57.1453 0.802
57.1756 0.549
57.2059 1.077
57.2362 0.355
57.2665 1.509
57.2967 0.580
57.3270 1.057
57.3573 -0.133
57.3876 -0.228
57.4178 0.667
57.4481 0.416
57.4784 -0.303
57.5087 0.436
57.5390 -0.074
57.5692 0.249
57.5995 0.260
57.6298 -0.093
57.6601 -0.290
57.6904 -0.022
57.7206 0.142
57.7509 0.671
57.7812 0.211
57.8115 0.011
57.8417 -0.032
57.8720 -0.596
57.9023 0.351
57.9326 0.309
57.9629 0.163
57.9931 -0.087
58.0234 0.236
58.0537 -0.273
58.0840 -0.210
58.1143 -0.198
58.1445 0.230
58.1748 0.295
58.2051 -0.214
58.2354 -0.253
58.2656 -0.084
58.2959 -0.070
58.3262 0.412
58.3565 -0.147
58.3868 0.232
58.4170 -0.170
58.4473 -0.676
58.4776 0.215
58.5079 -0.197
58.5382 -0.087
58.5684 -0.081
58.5987 -0.127
58.6290 0.036
58.6593 -0.010
58.6896 0.102
58.7198 0.109
58.7501 0.065
58.7804 -0.188
58.8107 0.497
58.8409 0.350
58.8712 -0.162
58.9015 -0.153
58.9318 0.117
58.9621 0.387
58.9923 0.084
59.0226 0.199
59.0529 0.105
59.0832 -0.144
59.1135 0.231
59.1437 0.035
59.1740 0.150
59.2043 0.423
59.2346 0.175
59.2648 -0.385
59.2951 0.096
59.3254 -0.203
59.3557 -0.189
59.3860 0.345
59.4162 0.828
59.4465 0.478
59.4768 0.232
59.5071 0.091
59.5374 0.419
59.5676 0.122
59.5979 -0.227
59.6282 -0.239
59.6585 0.584
59.6887 0.469
59.7190 0.406
59.7493 0.187
59.7796 0.229
59.8099 0.011
59.8401 0.054
59.8704 0.149
59.9007 0.400
59.9310 0.183
59.9613 0.227
59.9915 0.011
60.0218 0.107
60.0521 0.100
60.0824 0.197
60.1126 0.659
60.1429 0.132
60.1732 -0.083
60.2035 0.224
60.2338 0.322
60.2640 -0.100
60.2943 -0.157
60.3246 0.255
60.3549 -0.427
60.3852 0.559
60.4154 0.086
60.4457 0.291
60.4760 -0.285
60.5063 -0.080
60.5365 0.073
60.5668 0.331
60.5971 -0.087
60.6274 -0.297
60.6577 0.222
60.6879 0.116
60.7182 0.063
60.7485 -0.250
60.7788 -0.110
60.8091 0.081
60.8393 -0.247
60.8696 -0.003
60.8999 0.294
60.9302 0.070
60.9604 -0.101
60.9907 -0.168
61.0210 -0.079
61.0513 0.011
61.0816 -0.159
61.1118 0.244
61.1421 -0.498
61.1724 0.166
61.2027 0.413
61.2330 0.297
61.2632 -0.236
61.2935 -0.040
61.3238 0.001
61.3541 -0.115
61.3844 0.135
61.4146 0.280
61.4449 -0.303
61.4752 0.364
61.5055 0.354
61.5357 0.240
61.5660 -0.029
61.5963 0.118
61.6266 -0.412
61.6569 0.101
61.6871 0.249
61.7174 -0.227
61.7477 0.130
61.7780 0.747
61.8083 0.168
61.8385 -0.151
61.8688 0.207
61.8991 0.305
61.9294 0.508
61.9596 0.815
61.9899 0.653
62.0202 0.857
62.0505 0.540
62.0808 0.744
62.1110 1.261
62.1413 0.944
62.1716 1.514
62.2019 1.667
62.2322 1.664
62.2624 1.818
62.2927 2.753
62.3230 2.387
62.3533 2.229
62.3835 2.696
62.4138 3.633
62.4441 4.518
62.4744 5.246
62.5047 4.882
62.5349 5.194
62.5652 6.913
62.5955 5.352
62.6258 6.030
62.6561 7.385
62.6863 6.866
62.7166 8.691
62.7469 9.578
62.7772 7.497
62.8074 6.771
62.8377 6.410
62.8680 6.777
62.8983 6.417
62.9286 6.316
62.9588 4.862
62.9891 3.877
63.0194 4.663
63.0497 3.991
63.0800 2.486
63.1102 2.648
63.1405 1.352
63.1708 2.296
63.2011 1.782
63.2313 2.257
63.2616 0.650
63.2919 1.074
63.3222 0.717
63.3525 1.090
63.3827 0.734
63.4130 0.273
63.4433 0.282
63.4736 0.552
63.5039 0.562
63.5341 0.519
63.5644 1.050
63.5947 -0.085
63.6250 0.238
63.6552 0.041
63.6855 0.833
63.7158 0.324
63.7461 0.909
63.7764 0.348
63.8066 0.517
63.8369 0.269
63.8672 -0.291
63.8975 0.399
63.9278 -0.316
63.9580 0.896
63.9883 -0.184
64.0186 0.091
64.0489 -0.103
64.0791 -0.035
64.1094 0.657
64.1397 0.569
64.1700 0.272
64.2003 -0.076
64.2305 0.461
64.2608 -0.147
64.2911 0.651
64.3214 0.252
64.3517 -0.043
64.3819 -0.337
64.4122 0.071
64.4425 0.010
64.4728 0.366
64.5031 0.514
64.5333 0.246
64.5636 0.551
64.5939 0.023
64.6242 -0.035
64.6544 0.062
64.6847 0.368
64.7150 0.102
64.7453 0.096
64.7756 -0.117
64.8058 0.138
64.8361 0.029
64.8664 0.129
64.8967 0.333
64.9270 0.121
64.9572 -0.091
64.9875 0.270
65.0178 0.163
65.0481 0.004
65.0783 -0.415
65.1086 0.047
65.1389 1.031
65.1692 0.349
65.1995 0.187
65.2297 0.391
65.2600 -0.083
65.2903 0.173
65.3206 0.378
65.3509 -0.147
65.3811 0.475
65.4114 0.055
65.4417 -0.260
65.4720 -0.125
65.5022 -0.146
65.5325 0.093
65.5628 0.177
65.5931 0.105
65.6234 0.085
65.6536 -0.091
65.6839 -0.006
65.7142 -0.337
65.7445 0.061
65.7748 -0.113
65.8050 0.911
65.8353 -0.409
65.8656 0.355
65.8959 -0.391
65.9261 0.322
65.9564 0.410
65.9867 0.185
66.0170 0.899
66.0473 0.310
66.0775 0.816
66.1078 0.645
66.1381 0.682
66.1684 1.033
66.1987 0.394
66.2289 0.172
66.2592 0.471
66.2895 0.718
66.3198 1.278
66.3500 0.381
66.3803 0.733
66.4106 -0.112
66.4409 0.866
66.4712 0.229
66.5014 0.427
66.5317 0.728
66.5620 -0.115
66.5923 0.135
66.6226 0.490
66.6528 0.272
66.6831 0.210
66.7134 -0.059
66.7437 0.037
66.7739 0.289
66.8042 0.697
66.8345 0.169
66.8648 0.057
66.8951 0.050
66.9253 -0.270
66.9556 0.453
66.9859 0.134
67.0162 0.024
67.0465 0.435
67.0767 0.273
67.1070 0.216
67.1373 0.680
67.1676 1.040
67.1978 0.827
67.2281 -0.010
67.2584 1.809
67.2887 0.347
67.3190 1.177
67.3492 1.279
67.3795 2.578
67.4098 1.170
67.4401 1.585
67.4704 2.468
67.5006 2.467
67.5309 2.362
67.5612 2.986
67.5915 3.194
67.6218 2.777
67.6520 3.454
67.6823 4.027
67.7126 4.601
67.7429 5.488
67.7731 5.645
67.8034 4.188
67.8337 3.930
67.8640 4.088
67.8943 4.455
67.9245 5.031
67.9548 4.513
67.9851 5.089
68.0154 4.416
68.0457 4.003
68.0759 3.330
68.1062 2.814
68.1365 2.715
68.1668 1.938
68.1970 2.621
68.2273 2.210
68.2576 2.372
68.2879 1.701
68.3182 1.916
68.3484 1.871
68.3787 1.462
68.4090 1.052
68.4393 0.539
68.4696 0.964
68.4998 0.972
68.5301 0.304
68.5604 0.834
68.5907 1.364
68.6209 2.050
68.6512 1.122
68.6815 1.497
68.7118 1.247
68.7421 1.206
68.7723 1.581
68.8026 1.280
68.8329 2.177
68.8632 1.772
68.8935 1.368
68.9237 1.849
68.9540 1.966
68.9843 1.562
69.0146 2.617
69.0448 2.058
69.0751 2.019
69.1054 1.617
69.1357 1.892
69.1660 0.917
69.1962 1.557
69.2265 1.677
69.2568 1.276
69.2871 1.083
69.3174 1.464
69.3476 0.439
69.3779 0.664
69.4082 0.577
69.4385 0.438
69.4687 0.820
69.4990 0.265
69.5293 0.596
69.5596 0.354
69.5899 0.061
69.6201 -0.389
69.6504 0.204
69.6807 0.015
69.7110 0.139
69.7413 0.160
69.7715 -0.184
69.8018 -0.216
69.8321 -0.090
69.8624 -0.121
69.8926 -0.255
69.9229 0.019
69.9532 0.293
69.9835 -0.058
70.0138 0.164
70.0440 -0.029
70.0743 0.246
70.1046 0.417
70.1349 -0.401
70.1652 0.188
70.1954 0.100
70.2257 0.376
70.2560 -0.388
70.2863 -0.007
70.3166 0.062
70.3468 -0.233
70.3771 -0.018
70.4074 0.249
70.4377 0.308
70.4679 0.003
70.4982 0.062
70.5285 -0.034
70.5588 -0.130
70.5891 -0.174
70.6193 0.043
70.6496 0.105
70.6799 -0.303
70.7102 0.071
70.7405 0.081
70.7707 -0.221
70.8010 -0.170
70.8313 0.195
70.8616 0.351
70.8918 0.559
70.9221 0.143
70.9524 -0.221
70.9827 -0.118
71.0130 -0.119
71.0432 0.089
71.0735 -0.693
71.1038 0.088
71.1341 0.297
71.1644 0.506
71.1946 -0.275
71.2249 -0.065
71.2552 -0.429
71.2855 0.146
71.3157 -0.269
71.3460 0.306
71.3763 0.101
71.4066 -0.157
71.4369 0.575
71.4671 0.006
71.4974 0.010
71.5277 -0.090
71.5580 0.383
71.5883 0.023
71.6185 -0.389
71.6488 0.030
71.6791 -0.019
71.7094 0.141
71.7396 0.197
71.7699 0.149
71.8002 -0.003
71.8305 -0.259
71.8608 0.048
71.8910 0.146
71.9213 0.505
71.9516 0.240
71.9819 0.131
72.0122 -0.030
72.0424 0.174
72.0727 -0.038
72.1030 -0.302
72.1333 0.319
72.1635 0.056
72.1938 0.053
72.2241 0.207
72.2544 0.048
72.2847 0.880
72.3149 0.201
72.3452 0.304
72.3755 0.355
72.4058 0.406
72.4361 0.354
72.4663 0.510
72.4966 0.823
72.5269 0.302
72.5572 0.720
72.5874 0.148
72.6177 0.357
72.6480 0.151
72.6783 0.101
72.7086 0.467
72.7388 0.001
72.7691 0.316
72.7994 0.267
72.8297 0.323
72.8600 -0.299
72.8902 0.122
72.9205 0.074
72.9508 0.183
72.9811 -0.073
73.0113 0.401
73.0416 0.198
73.0719 -0.160
73.1022 0.158
73.1325 0.060
73.1627 -0.246
73.1930 0.230
73.2233 -0.180
73.2536 0.036
73.2839 -0.060
73.3141 -0.208
73.3444 -0.151
73.3747 0.375
73.4050 -0.245
73.4353 -0.083
73.4655 -0.233
73.4958 0.134
73.5261 0.240
73.5564 0.295
73.5866 -0.275
73.6169 0.197
73.6472 -0.008
73.6775 0.100
73.7078 -0.208
73.7380 0.005
73.7683 0.010
73.7986 0.015
73.8289 0.176
73.8592 0.130
73.8894 0.188
73.9197 -0.067
73.9500 0.148
73.9803 0.051
74.0105 0.110
74.0408 0.378
74.0711 0.177
74.1014 0.029
74.1317 0.610
74.1619 0.254
74.1922 0.002
74.2225 -0.145
74.2528 -0.188
74.2831 0.119
74.3133 0.061
74.3436 0.316
74.3739 0.103
74.4042 0.099
74.4344 0.094
74.4647 -0.066
74.4950 0.347
74.5253 0.083
74.5556 -0.129
74.5858 -0.079
74.6161 -0.238
74.6464 0.436
74.6767 0.382
74.7070 -0.349
74.7372 -0.090
74.7675 -0.195
74.7978 0.111
74.8281 0.365
74.8583 -0.058
74.8886 -0.064
74.9189 0.243
74.9492 -0.074
74.9795 0.181
75.0097 -0.032
75.0400 -0.036
75.0703 -0.040
75.1006 0.321
75.1309 -0.204
75.1611 -0.207
75.1914 0.258
75.2217 0.150
75.2520 0.250
75.2822 -0.014
75.3125 0.192
75.3428 -0.072
75.3731 -0.126
75.4034 -0.285
75.4336 0.179
75.4639 -0.034
75.4942 0.274
75.5245 0.114
75.5548 -0.150
75.5850 -0.101
75.6153 0.156
75.6456 -0.055
75.6759 0.151
75.7061 0.045
75.7364 0.199
75.7667 0.145
75.7970 0.196
75.8273 0.039
75.8575 -0.483
75.8878 0.142
75.9181 -0.067
75.9484 0.090
75.9787 0.507
76.0089 -0.222
76.0392 -0.169
76.0695 -0.219
76.0998 0.407
76.1301 0.149
76.1603 0.307
76.1906 -0.159
76.2209 -0.208
76.2512 0.150
76.2814 0.197
76.3117 0.140
76.3420 0.187
76.3723 0.130
76.4026 0.126
76.4328 0.643
76.4631 -0.142
76.4934 0.375
76.5237 0.112
76.5540 0.473
76.5842 0.158
76.6145 0.364
76.6448 0.362
76.6751 0.152
76.7053 1.037
76.7356 0.619
76.7659 0.566
76.7962 0.930
76.8265 0.617
76.8567 0.201
76.8870 0.670
76.9173 0.462
76.9476 0.776
76.9779 0.621
77.0081 0.570
77.0384 0.364
77.0687 0.105
77.0990 0.472
77.1292 0.423
77.1595 0.009
77.1898 0.481
77.2201 0.381
77.2504 -0.136
77.2806 0.337
77.3109 -0.023
77.3412 0.242
77.3715 0.039
77.4018 0.252
77.4320 0.466
77.4623 0.004
77.4926 0.322
77.5229 0.121
77.5531 0.023
77.5834 0.187
77.6137 0.142
77.6440 0.150
77.6743 0.314
77.7045 -0.042
77.7348 -0.086
77.7651 0.079
77.7954 -0.120
77.8257 0.254
77.8559 -0.309
77.8862 -0.195
77.9165 0.012
77.9468 0.272
77.9770 0.063
78.0073 0.271
78.0376 -0.093
78.0679 0.272
78.0982 -0.092
78.1284 0.273
78.1587 0.066
78.1890 -0.193
78.2193 0.278
78.2496 0.228
78.2798 0.282
78.3101 0.025
78.3404 0.288
78.3707 -0.125
78.4009 0.087
78.4312 0.091
78.4615 0.303
78.4918 -0.161
78.5221 0.000
78.5523 0.109
78.5826 0.479
78.6129 0.224
78.6432 -0.134
78.6735 0.184
78.7037 0.295
78.7340 0.614
78.7643 0.101
78.7946 0.316
78.8248 0.168
78.8551 0.020
78.8854 -0.180
78.9157 -0.084
78.9460 0.324
78.9762 0.421
79.0065 -0.107
79.0368 0.146
79.0671 -0.121
79.0974 0.029
79.1276 0.336
79.1579 0.017
79.1882 -0.040
79.2185 -0.097
79.2488 -0.207
79.2790 0.152
79.3093 0.408
79.3396 0.142
79.3699 -0.175
79.4001 -0.075
79.4304 -0.132
79.4607 0.281
79.4910 -0.139
79.5213 0.274
79.5515 0.271
79.5818 0.165
79.6121 0.214
79.6424 0.212
79.6727 -0.310
79.7029 -0.051
79.7332 0.208
79.7635 -0.314
79.7938 -0.106
79.8240 -0.211
79.8543 0.206
79.8846 -0.002
79.9149 0.155
79.9452 0.207
79.9754 0.000
80.0057 -0.363
80.0360 0.045
80.0663 -0.225
80.0966 0.079
80.1268 0.071
80.1571 0.636
80.1874 0.264
80.2177 0.256
80.2479 -0.063
80.2782 -0.122
80.3085 -0.545
80.3388 0.176
80.3691 0.168
80.3993 -0.101
80.4296 -0.108
80.4599 -0.063
80.4902 0.086
80.5205 -0.337
80.5507 -0.032
80.5810 -0.038
80.6113 -0.461
80.6416 0.418
80.6718 0.099
80.7021 0.094
80.7324 -0.328
80.7627 0.031
80.7930 0.287
80.8232 -0.238
80.8535 0.070
80.8838 -0.403
80.9141 0.063
80.9444 0.059
80.9746 0.056
81.0049 0.054
81.0352 0.260
81.0655 0.101
81.0957 0.412
81.1260 0.202
81.1563 -0.007
81.1866 0.408
81.2169 0.095
81.2471 0.043
81.2774 0.043
81.3077 0.043
81.3380 -0.008
81.3683 -0.320
81.3985 0.150
81.4288 0.672
81.4591 -0.003
81.4894 0.051
81.5196 0.470
81.5499 0.108
81.5802 -0.358
81.6105 0.114
81.6408 -0.091
81.6710 0.329
81.7013 0.177
81.7316 0.025
81.7619 -0.335
81.7922 0.087
81.8224 0.144
81.8527 -0.215
81.8830 -0.209
81.9133 -0.152
81.9436 0.167
81.9738 0.017
82.0041 0.336
82.0344 0.135
82.0647 0.038
82.0949 -0.163
82.1252 -0.103
82.1555 0.634
82.1858 -0.035
82.2161 0.026
82.2463 -0.069
82.2766 0.148
82.3069 -0.363
82.3372 -0.094
82.3675 -0.190
82.3977 -0.285
82.4280 0.244
82.4583 -0.217
82.4886 0.260
82.5188 0.164
82.5491 0.225
82.5794 -0.027
82.6097 -0.173
82.6400 0.305
82.6702 0.106
82.7005 -0.196
82.7308 0.179
82.7611 -0.018
82.7914 -0.111
82.8216 0.317
82.8519 -0.036
82.8822 -0.180
82.9125 -0.080
82.9427 0.020
82.9730 0.173
83.0033 0.170
83.0336 -0.041
83.0639 0.060
83.0941 0.266
83.1244 0.368
83.1547 0.419
83.1850 0.313
83.2153 0.312
83.2455 -0.001
83.2758 0.155
83.3061 0.154
83.3364 0.050
83.3666 0.363
83.3969 -0.105
83.4272 0.000
83.4575 0.366
83.4878 0.159
83.5180 0.213
83.5483 0.267
83.5786 0.165
83.6089 0.168
83.6392 0.171
83.6694 -0.190
83.6997 0.126
83.7300 -0.078
83.7603 -0.126
83.7905 0.399
83.8208 0.195
83.8511 -0.060
83.8814 0.154
83.9117 -0.049
83.9419 0.009
83.9722 0.067
84.0025 -0.030
84.0328 0.081
84.0631 -0.173
84.0933 -0.127
84.1236 -0.028
84.1539 0.227
84.1842 0.430
84.2144 0.217
84.2447 0.264
84.2750 0.364
84.3053 0.152
84.3356 0.305
84.3658 0.405
84.3961 0.142
84.4264 -0.278
84.4567 0.397
84.4870 0.343
84.5172 -0.076
84.5475 0.131
84.5778 0.077
84.6081 -0.184
84.6383 0.336
84.6686 0.336
84.6989 0.231
84.7292 0.127
84.7595 -0.081
84.7897 0.024
84.8200 0.234
84.8503 -0.077
84.8806 0.393
84.9109 0.082
84.9411 0.293
84.9714 0.087
85.0017 -0.066
85.0320 0.093
85.0623 0.409
85.0925 0.621
85.1228 0.468
85.1531 0.212
85.1834 -0.200
85.2136 0.170
85.2439 -0.034
85.2742 0.180
85.3045 -0.022
85.3348 -0.173
85.3650 -0.129
85.3953 -0.086
85.4256 0.531
85.4559 0.106
85.4862 0.151
85.5164 -0.013
85.5467 0.085
85.5770 0.338
85.6073 -0.189
85.6375 0.378
85.6678 0.216
85.6981 0.262
85.7284 0.049
85.7587 -0.165
85.7889 -0.117
85.8192 -0.069
85.8495 -0.073
85.8798 -0.077
85.9101 0.076
85.9403 0.124
85.9706 -0.399
86.0009 0.223
86.0312 0.169
86.0614 0.271
86.0917 0.373
86.1220 0.007
86.1523 0.319
86.1826 -0.255
86.2128 0.421
86.2431 0.057
86.2734 0.421
86.3037 -0.047
86.3340 -0.203
86.3642 0.371
86.3945 -0.097
86.4248 -0.147
86.4551 0.323
86.4853 0.221
86.5156 -0.141
86.5459 0.331
86.5762 0.438
86.6065 -0.080
86.6367 -0.285
86.6670 0.126
86.6973 0.328
86.7276 0.479
86.7579 0.005
86.7881 -0.105
86.8184 -0.370
86.8487 0.251
86.8790 0.194
86.9092 -0.122
86.9395 0.083
86.9698 0.340
87.0001 -0.184
87.0304 -0.083
87.0606 0.071
87.0909 -0.087
87.1212 -0.089
87.1515 -0.195
87.1818 0.012
87.2120 0.116
87.2423 0.063
87.2726 0.167
87.3029 -0.354
87.3331 -0.041
87.3634 0.011
87.3937 0.169
87.4240 -0.195
87.4543 -0.195
87.4845 0.116
87.5148 -0.303
87.5451 0.008
87.5754 0.007
87.6057 0.475
87.6359 0.058
87.6662 -0.047
87.6965 0.057
87.7268 0.006
87.7571 0.162
87.7873 0.215
87.8176 0.164
87.8479 0.062
87.8782 -0.093
87.9084 -0.195
87.9387 -0.149
87.9690 0.471
87.9993 0.153
88.0296 0.044
88.0598 0.300
88.0901 0.035
88.1204 -0.021
88.1507 -0.024
88.1810 0.233
88.2112 0.230
88.2415 0.331
88.2718 0.172
88.3021 0.170
88.3323 -0.197
88.3626 -0.042
88.3929 -0.200
88.4232 0.216
88.4535 0.580
88.4837 0.267
88.5140 0.214
88.5443 0.162
88.5746 -0.202
88.6049 -0.202
88.6351 0.155
88.6654 0.616
88.6957 -0.016
88.7260 0.498
88.7562 0.231
88.7865 0.641
88.8168 0.270
88.8471 0.108
88.8774 -0.105
88.9076 0.150
88.9379 0.822
88.9682 0.192
88.9985 0.917
89.0288 0.861
89.0590 0.597
89.0893 0.489
89.1196 0.643
89.1499 0.536
89.1801 0.637
89.2104 0.791
89.2407 0.789
89.2710 0.840
89.3013 1.047
89.3315 0.420
89.3618 0.576
89.3921 1.513
89.4224 0.523
89.4527 0.679
89.4829 1.253
89.5132 1.045
89.5435 0.577
89.5738 0.318
89.6040 0.736
89.6343 0.842
89.6646 0.792
89.6949 1.368
89.7252 1.058
89.7554 1.530
89.7857 0.439
89.8160 0.599
89.8463 0.291
89.8766 0.868
89.9068 0.976
89.9371 0.929
89.9674 0.622
89.9977 0.679
90.0279 0.789
90.0582 0.795
90.0885 0.749
90.1188 0.651
90.1491 0.189
90.1793 0.457
90.2096 0.152
90.2399 0.160
90.2702 0.220
90.3005 0.124
90.3307 0.028
90.3610 0.714
90.3913 0.098
90.4216 -0.100
90.4518 -0.195
90.4821 0.108
90.5124 0.255
90.5427 -0.067
90.5730 -0.076
90.6032 0.385
90.6335 0.220
90.6638 0.316
90.6941 0.777
90.7244 -0.324
90.7546 0.138
90.7849 0.027
90.8152 0.177
90.8455 -0.090
90.8758 0.113
90.9060 -0.153
90.9363 0.206
90.9666 0.253
90.9969 -0.325
91.0271 0.140
91.0574 0.031
91.0877 -0.337
91.1180 0.023
91.1483 -0.242
91.1785 0.223
91.2088 -0.146
91.2391 -0.045
91.2694 0.108
91.2997 -0.104
91.3299 0.310
91.3602 -0.109
91.3905 0.097
91.4208 -0.113
91.4510 0.042
91.4813 -0.376
91.5116 0.300
91.5419 -0.222
91.5722 -0.170
91.6024 0.507
91.6327 0.039
91.6630 0.300
91.6933 0.144
91.7236 -0.272
91.7538 0.094
91.7841 -0.008
91.8144 -0.006
91.8447 0.100
91.8749 -0.053
91.9052 -0.363
91.9355 0.101
91.9658 -0.164
91.9961 -0.273
92.0263 0.244
92.0566 -0.490
92.0869 0.028
92.1172 0.337
92.1475 -0.031
92.1777 -0.138
92.2080 -0.140
92.2383 0.014
92.2686 -0.144
92.2988 0.167
92.3291 -0.147
92.3594 0.529
92.3897 -0.148
92.4200 0.528
92.4502 -0.149
92.4805 -0.149
92.5108 0.425
92.5411 -0.147
92.5714 0.062
92.6016 0.116
92.6319 0.013
92.6622 0.380
92.6925 -0.191
92.7227 0.905
92.7530 0.283
92.7833 -0.026
92.8136 0.498
92.8439 -0.175
92.8741 0.818
92.9044 -0.271
92.9347 0.254
92.9650 0.520
92.9953 0.160
93.0255 0.218
93.0558 0.432
93.0861 -0.135
93.1164 -0.076
93.1466 0.347
93.1769 0.354
93.2072 0.205
93.2375 0.160
93.2678 -0.040
93.2980 0.072
93.3283 0.029
93.3586 0.141
93.3889 0.203
93.4192 0.212
93.4494 0.482
93.4797 0.179
93.5100 -0.227
93.5403 -0.008
93.5706 0.107
93.6008 -0.195
93.6311 -0.151
93.6614 -0.003
93.6917 0.511
93.7219 -0.174
93.7522 0.028
93.7825 0.229
93.8128 0.431
93.8431 -0.044
93.8733 0.263
93.9036 0.101
93.9339 -0.008
93.9642 0.716
93.9945 0.190
94.0247 0.290
94.0550 0.390
94.0853 0.178
94.1156 -0.190
94.1458 0.067
94.1761 -0.040
94.2064 0.218
94.2367 -0.201
94.2670 0.005
94.2972 -0.101
94.3275 0.158
94.3578 -0.051
94.3881 0.625
94.4184 0.051
94.4486 0.051
94.4789 0.416
94.5092 -0.261
94.5395 -0.208
94.5697 0.043
94.6000 0.191
94.6303 0.547
94.6606 0.800
94.6909 0.323
94.7211 0.212
94.7514 0.726
94.7817 0.458
94.8120 0.608
94.8423 0.602
94.8725 0.648
94.9028 0.591
94.9331 0.533
94.9634 0.580
94.9936 0.575
95.0239 0.779
95.0542 0.671
95.0845 0.511
95.1148 1.028
95.1450 1.233
95.1753 1.126
95.2056 1.124
95.2359 0.652
95.2662 1.067
95.2964 1.065
95.3267 1.012
95.3570 0.490
95.3873 0.645
95.4175 0.540
95.4478 0.956
95.4781 0.800
95.5084 -0.137
95.5387 0.905
95.5689 0.594
95.5992 0.438
95.6295 0.492
95.6598 0.546
95.6901 0.548
95.7203 0.863
95.7506 0.032
95.7809 0.035
95.8112 0.038
95.8414 0.198
95.8717 0.514
95.9020 0.049
95.9323 -0.415
95.9626 -0.002
95.9928 0.412
96.0231 0.045
96.0534 0.772
96.0837 0.197
96.1140 0.300
96.1442 -0.014
96.1745 0.402
96.2048 -0.068
96.2351 -0.016
96.2653 0.140
96.2956 -0.068
96.3259 -0.380
96.3562 0.141
96.3865 0.090
96.4167 0.196
96.4470 -0.219
96.4773 0.095
96.5076 -0.059
96.5379 0.048
96.5681 0.050
96.5984 -0.311
96.6287 0.109
96.6590 -0.408
96.6893 0.064
96.7195 -0.088
96.7498 0.073
96.7801 0.130
96.8104 -0.334
96.8406 0.141
96.8709 -0.010
96.9012 0.048
96.9315 -0.050
96.9618 -0.147
96.9920 0.172
97.0223 0.075
97.0526 -0.126
97.0829 -0.170
97.1132 0.203
97.1434 0.211
97.1737 0.063
97.2040 -0.032
97.2343 -0.179
97.2645 0.143
97.2948 0.309
97.3251 -0.202
97.3554 0.069
97.3857 -0.233
97.4159 -0.015
97.4462 0.307
97.4765 0.525
97.5068 0.327
97.5371 0.233
97.5673 0.244
97.5976 -0.005
97.6279 0.371
97.6582 -0.035
97.6884 0.915
97.7187 0.042
97.7490 0.367
97.7793 -0.246
97.8096 -0.233
97.8398 0.275
97.8701 0.471
97.9004 0.251
97.9307 0.343
97.9610 0.175
97.9912 0.111
98.0215 0.413
98.0518 0.402
98.0821 0.339
98.1123 0.329
98.1426 0.736
98.1729 0.257
98.2032 0.561
98.2335 0.708
98.2637 0.803
98.2940 0.690
98.3243 0.943
98.3546 0.362
98.3849 0.406
98.4151 0.243
98.4454 0.340
98.4757 0.698
98.5060 0.171
98.5362 0.217
98.5665 0.419
98.5968 1.091
98.6271 0.565
98.6574 0.299
98.6876 0.555
98.7179 0.707
98.7482 0.859
98.7785 0.491
98.8088 0.018
98.8390 0.640
98.8693 0.325
98.8996 0.114
98.9299 0.320
98.9601 -0.099
98.9904 0.629
99.0207 -0.050
99.0510 0.522
99.0813 0.208
99.1115 -0.053
99.1418 -0.001
99.1721 0.416
99.2024 -0.052
99.2327 0.469
99.2629 0.262
99.2932 0.263
99.3235 0.264
99.3538 0.631
99.3841 0.424
99.4143 -0.094
99.4446 0.273
99.4749 0.276
99.5052 0.019
99.5354 -0.134
99.5657 0.443
99.5960 0.655
99.6263 -0.226
99.6566 -0.065
99.6868 0.253
99.7171 -0.263
99.7474 0.264
99.7777 0.582
99.8080 0.276
99.8382 0.126
99.8685 -0.128
99.8988 0.400
99.9291 -0.061
99.9593 -0.158
99.9896 -0.202
100.0199 -0.207
100.0502 0.413
100.0805 0.200
100.1107 0.143
100.1410 -0.329
100.1713 0.292
100.2016 0.080
100.2319 0.025
100.2621 0.282
100.2924 -0.085
100.3227 0.277
100.3530 0.327
100.3832 0.169
100.4135 0.063
100.4438 -0.459
100.4741 0.061
100.5044 -0.043
100.5346 -0.096
100.5649 -0.044
100.5952 -0.148
100.6255 -0.043
100.6558 0.166
100.6860 -0.093
100.7163 0.117
100.7466 -0.090
100.7769 0.069
100.8071 0.331
100.8374 0.074
100.8677 -0.028
100.8980 -0.389
100.9283 0.083
100.9585 -0.018
100.9888 -0.222
101.0191 0.303
101.0494 -0.161
101.0797 0.104
101.1099 0.213
101.1402 0.531
101.1705 0.224
101.2008 0.230
101.2310 -0.285
101.2613 -0.187
101.2916 0.171
101.3219 -0.252
101.3522 -0.050
101.3824 0.361
101.4127 0.148
101.4430 0.091
101.4733 -0.122
101.5036 -0.075
101.5338 -0.027
101.5641 0.334
101.5944 -0.190
101.6247 0.119
101.6549 0.220
101.6852 0.217
101.7155 -0.150
101.7458 0.057
101.7761 0.003
101.8063 -0.103
101.8366 0.000
101.8669 0.833
101.8972 0.311
101.9275 -0.002
101.9577 -0.054
101.9880 0.624
102.0183 -0.209
102.0486 -0.208
102.0788 0.041
102.1091 0.133
102.1394 0.070
102.1697 -0.253
102.2000 0.466
102.2302 0.456
102.2605 0.030
102.2908 0.489
102.3211 0.584
102.3514 -0.102
102.3816 -0.007
102.4119 -0.015
102.4422 -0.023
102.4725 0.178
102.5028 0.274
102.5330 0.111
102.5633 0.417
102.5936 0.045
102.6239 0.404
102.6541 -0.331
102.6844 -0.337
102.7147 0.384
102.7450 -0.093
102.7753 -0.205
102.8055 0.308
102.8358 0.353
102.8661 0.033
102.8964 0.131
102.9267 0.228
102.9569 0.066
102.9872 0.529
103.0175 0.263
103.0478 0.206
103.0780 0.149
103.1083 0.144
103.1386 0.035
103.1689 0.344
103.1992 -0.389
103.2294 -0.290
103.2597 0.539
103.2900 0.118
103.3203 0.062
103.3506 -0.046
103.3808 0.368
103.4111 0.104
103.4414 0.154
103.4717 0.255
103.5019 -0.268
103.5322 0.095
103.5625 -0.011
103.5928 0.249
103.6231 0.352
103.6533 -0.118
103.6836 -0.014
103.7139 0.611
103.7442 0.090
103.7745 0.299
103.8047 0.352
103.8350 0.197
103.8653 0.250
103.8956 0.565
103.9258 0.462
103.9561 0.881
103.9864 0.676
104.0167 0.522
104.0470 0.161
104.0772 0.893
104.1075 0.637
104.1378 1.057
104.1681 0.645
104.1984 0.077
104.2286 1.175
104.2589 0.660
104.2892 0.613
104.3195 0.515
104.3497 0.156
104.3800 0.475
104.4103 0.794
104.4406 -0.084
104.4709 0.079
104.5011 0.555
104.5314 0.980
104.5617 0.259
104.5920 0.267
104.6223 0.224
104.6525 0.025
104.6828 0.398
104.7131 0.356
104.7434 0.418
104.7736 -0.145
104.8039 0.230
104.8342 0.033
104.8645 0.252
104.8948 0.003
104.9250 0.275
104.9553 0.287
104.9856 -0.170
105.0159 -0.261
105.0462 0.272
105.0764 -0.392
105.1067 0.195
105.1370 -0.208
105.1673 -0.208
105.1975 -0.209
105.2278 0.311
105.2581 -0.055
105.2884 0.258
105.3187 -0.055
105.3489 0.206
105.3792 -0.002
105.4095 0.051
105.4398 0.157
105.4701 0.367
105.5003 -0.153
105.5306 -0.202
105.5609 0.112
105.5912 -0.041
105.6215 0.431
105.6517 0.330
105.6820 0.229
105.7123 -0.132
105.7426 0.081
105.7728 -0.123
105.8031 0.038
105.8334 -0.061
105.8637 0.413
105.8940 0.262
105.9242 0.320
105.9545 0.274
105.9848 -0.136
106.0151 -0.025
106.0454 0.347
106.0756 0.146
106.1059 -0.159
106.1362 0.214
106.1665 -0.195
106.1967 -0.195
106.2270 0.059
106.2573 0.313
106.2876 0.307
106.3179 0.718
106.3481 0.244
106.3784 0.292
106.4087 0.443
106.4390 0.074
106.4693 0.487
106.4995 -0.090
106.5298 -0.094
106.5601 0.997
106.5904 0.108
106.6206 -0.207
106.6509 0.103
106.6812 0.414
106.7115 -0.265
106.7418 0.046
106.7720 0.409
106.8023 -0.165
106.8326 -0.113
106.8629 -0.061
106.8932 -0.009
106.9234 -0.165
106.9537 0.148
106.9840 0.097
107.0143 -0.111
107.0445 -0.057
107.0748 -0.003
107.1051 0.155
107.1354 -0.051
107.1657 -0.048
107.1959 -0.202
107.2262 -0.103
107.2565 0.049
107.2868 0.201
107.3171 -0.012
107.3473 0.088
107.3776 -0.176
107.4079 0.498
107.4382 0.808
107.4684 0.284
107.4987 0.021
107.5290 0.280
107.5593 -0.295
107.5896 0.276
107.6198 0.327
107.6501 0.066
107.6804 0.221
107.7107 0.377
107.7410 0.117
107.7712 0.377
107.8015 0.065
107.8318 0.118
107.8621 -0.141
107.8923 -0.088
107.9226 0.331
107.9529 -0.136
107.9832 0.022
108.0135 -0.027
108.0437 0.288
108.0740 -0.073
108.1043 -0.122
108.1346 -0.118
108.1649 -0.010
108.1951 0.359
108.2254 -0.105
108.2557 -0.100
108.2860 0.374
108.3163 0.119
108.3465 -0.084
108.3768 0.235
108.4071 0.398
108.4374 0.300
108.4676 -0.058
108.4979 -0.259
108.5282 0.106
108.5585 0.471
108.5888 0.680
108.6190 0.577
108.6493 0.005
108.6796 0.007
108.7099 0.269
108.7402 -0.249
108.7704 0.274
108.8007 0.433
108.8310 0.072
108.8613 -0.133
108.8915 -0.026
108.9218 0.343
108.9521 0.243
108.9824 0.091
109.0127 0.304
109.0429 0.310
109.0732 0.107
109.1035 -0.461
109.1338 0.014
109.1641 -0.188
109.1943 0.009
109.2246 -0.159
109.2549 0.038
109.2852 0.547
109.3154 0.328
109.3457 0.422
109.3760 0.360
109.4063 0.037
109.4366 0.028
109.4668 -0.086
109.4971 0.374
109.5274 0.313
109.5577 -0.060
109.5880 -0.068
109.6182 0.549
109.6485 -0.083
109.6788 0.274
109.7091 -0.150
109.7393 -0.208
109.7696 -0.112
109.7999 0.141
109.8302 0.342
109.8605 0.283
109.8907 0.485
109.9210 0.218
109.9513 0.056
109.9816 0.988
110.0119 -0.007
110.0421 -0.064
110.0724 0.452
110.1027 -0.074
110.1330 -0.130
110.1632 0.439
110.1935 -0.033
110.2238 -0.037
110.2541 0.794
110.2844 0.947
110.3146 0.007
110.3449 0.474
110.3752 0.159
110.4055 0.470
110.4358 0.365
110.4660 0.468
110.4963 0.259
110.5266 0.102
110.5569 0.519
110.5871 0.206
110.6174 0.103
110.6477 0.208
110.6780 0.834
110.7083 0.106
110.7385 0.472
110.7688 0.578
110.7991 0.007
110.8294 -0.042
110.8597 0.377
110.8899 -0.088
110.9202 -0.033
110.9505 0.075
110.9808 0.235
111.0110 0.344
111.0413 0.140
111.0716 -0.012
111.1019 -0.215
111.1322 0.047
111.1624 -0.159
111.1927 -0.105
111.2230 0.054
111.2533 0.265
111.2836 -0.201
111.3138 -0.197
111.3441 0.432
111.3744 0.123
111.4047 0.023
111.4350 -0.233
111.4652 0.033
111.4955 -0.065
111.5258 0.305
111.5561 0.103
111.5863 0.005
111.6166 -0.300
111.6469 0.124
111.6772 0.287
111.7075 0.243
111.7377 -0.426
111.7680 -0.001
111.7983 0.008
111.8286 -0.088
111.8589 0.286
111.8891 -0.017
111.9194 0.201
111.9497 -0.153
111.9800 -0.195
112.0102 0.007
112.0405 0.053
112.0708 0.255
112.1011 -0.323
112.1314 0.088
112.1616 -0.021
112.1919 -0.078
112.2222 -0.447
112.2525 0.226
112.2828 0.118
112.3130 0.063
112.3433 0.476
112.3736 -0.048
112.4039 0.158
112.4341 -0.001
112.4644 -0.159
112.4947 -0.004
112.5250 -0.214
112.5553 0.201
112.5855 0.096
112.6158 -0.009
112.6461 0.252
112.6764 -0.061
112.7067 -0.061
112.7369 -0.268
112.7672 0.410
112.7975 0.098
112.8278 0.308
112.8580 0.049
112.8883 0.051
112.9186 -0.363
112.9489 -0.001
112.9792 -0.159
113.0094 0.047
113.0397 0.045
113.0700 0.096
113.1003 0.043
113.1306 0.146
113.1608 0.354
113.1911 -0.271
113.2214 0.302
113.2517 -0.218
113.2819 0.043
113.3122 -0.061
113.3425 -0.580
113.3728 0.255
113.4031 -0.108
113.4333 0.259
113.4636 0.313
113.4939 -0.101
113.5242 -0.202
113.5545 0.109
113.5847 -0.154
113.6150 0.209
113.6453 -0.053
113.6756 0.050
113.7058 -0.055
113.7361 0.205
113.7664 0.257
113.7967 0.361
113.8270 -0.055
113.8572 0.154
113.8875 0.259
113.9178 0.052
113.9481 -0.259
113.9784 0.003
114.0086 0.474
114.0389 0.267
114.0692 0.113
114.0995 0.012
114.1298 0.119
114.1600 -0.034
114.1903 0.438
114.2206 0.390
114.2509 0.081
114.2811 0.190
114.3114 -0.066
114.3417 0.043
114.3720 -0.004
114.4023 -0.363
114.4325 0.038
114.4628 0.179
114.4931 0.216
114.5234 -0.215
114.5537 0.083
114.5839 0.069
114.6142 0.107
114.6445 0.042
114.6748 0.237
114.7050 -0.036
114.7353 -0.101
114.7656 0.043
114.7959 0.395
114.8262 0.332
114.8564 0.112
114.8867 -0.316
114.9170 0.142
114.9473 0.183
114.9776 -0.087
115.0078 0.059
115.0381 -0.159
115.0684 -0.168
115.0987 0.239
115.1289 0.178
115.1592 -0.143
115.1895 0.526
115.2198 -0.367
115.2501 0.406
115.2803 -0.070
115.3106 -0.233
115.3409 -0.190
115.3712 0.009
115.4015 0.313
115.4317 0.201
115.4620 -0.120
115.4923 -0.128
115.5226 -0.187
115.5528 0.066
115.5831 0.059
115.6134 -0.312
115.6437 0.515
115.6740 0.665
115.7042 -0.070
115.7345 0.185
115.7648 0.024
115.7951 0.332
115.8254 0.275
115.8556 0.427
115.8859 0.111
115.9162 1.097
115.9465 0.781
115.9767 0.726
116.0070 0.462
116.0373 0.460
116.0676 0.197
116.0979 0.143
116.1281 0.819
116.1584 0.193
116.1887 0.452
116.2190 0.399
116.2493 0.503
116.2795 0.555
116.3098 1.284
116.3401 1.076
116.3704 0.504
116.4006 1.130
116.4309 0.559
116.4612 1.081
116.4915 0.927
116.5218 0.408
116.5520 0.567
116.5823 0.361
116.6126 0.208
116.6429 0.159
116.6732 0.580
116.7034 0.480
116.7337 0.276
116.7640 0.332
116.7943 0.493
116.8245 0.759
116.8548 0.296
116.8851 0.405
116.9154 0.359
116.9457 0.001
116.9759 0.216
117.0062 -0.037
117.0365 -0.134
117.0668 0.029
117.0971 0.402
117.1273 -0.111
117.1576 -0.624
117.1879 0.158
117.2182 0.003
117.2485 0.264
117.2787 -0.307
117.3090 -0.097
117.3393 -0.147
117.3696 -0.197
117.3998 -0.194
117.4301 -0.139
117.4604 -0.188
117.4907 -0.133
117.5210 -0.233
117.5512 0.134
117.5815 0.032
117.6118 0.087
117.6421 -0.014
117.6724 0.041
117.7026 0.618
117.7329 0.101
117.7632 0.262
117.7935 -0.515
117.8237 0.271
117.8540 0.016
117.8843 0.021
117.9146 0.027
117.9449 -0.332
117.9751 0.091
118.0054 -0.475
118.0357 0.105
118.0660 0.060
118.0963 0.172
118.1265 0.231
118.1568 0.031
118.1871 -0.221
118.2174 -0.212
118.2476 0.109
118.2779 0.066
118.3082 0.128
118.3385 0.190
118.3688 0.147
118.3990 -0.259
118.4293 -0.094
118.4596 -0.086
118.4899 -0.441
118.5202 0.136
118.5504 0.035
118.5807 0.404
118.6110 -0.112
118.6413 -0.107
118.6715 -0.050
118.7018 0.060
118.7321 0.274
118.7624 0.124
118.7927 -0.026
118.8229 0.241
118.8532 -0.221
118.8835 -0.005
118.9138 -0.154
118.9441 0.271
118.9743 0.174
119.0046 0.027
119.0349 -0.121
119.0652 -0.008
119.0954 0.210
119.1257 0.376
119.1560 -0.031
119.1863 0.396
119.2166 0.510
119.2468 0.000
119.2771 -0.041
119.3074 0.544
119.3377 0.555
119.3680 0.515
119.3982 0.215
119.4285 0.175
119.4588 0.344
119.4891 -0.059
119.5193 0.267
119.5496 0.437
119.5799 -0.174
119.6102 0.465
119.6405 0.219
119.6707 0.651
119.7010 0.718
119.7313 0.473
119.7616 0.645
119.7919 0.140
119.8221 0.677
119.8524 0.746
119.8827 0.971
119.9130 0.207
119.9433 0.797
119.9735 0.919
120.0038 0.000
