'Id: "" Comment: "" Operator: "Lab Manager" Anode: "Cu" Scantype: "Locked Coupled" TimePerStep: "19.2" X: "9999" Y: "9999" Z: "9999" 
10.0015 0.000
10.0318 -0.754
10.0620 0.248
10.0923 -0.052
10.1226 -0.352
10.1529 -0.182
10.1832 0.196
10.2134 -0.468
10.2437 -0.210
10.2740 0.622
10.3043 0.151
10.3346 -0.215
10.3648 0.253
10.3951 -0.686
10.4254 -0.114
10.4557 -0.583
10.4859 0.302
10.5162 -0.115
10.5465 -0.115
10.5768 -0.375
10.6071 -0.062
10.6373 -0.426
10.6676 0.773
10.6979 0.409
10.7282 0.150
10.7585 0.152
10.7887 0.935
10.8190 1.145
10.8493 2.710
10.8796 1.618
10.9098 2.142
10.9401 3.759
10.9704 4.960
11.0007 3.974
11.0310 4.759
11.0612 6.429
11.0915 9.194
11.1218 9.146
11.1521 8.108
11.1824 7.332
11.2126 4.368
11.2429 3.852
11.2732 1.774
11.3035 1.258
11.3337 1.524
11.3640 0.853
11.3943 1.797
11.4246 0.501
11.4549 0.403
11.4851 0.358
11.5154 -0.156
11.5457 0.580
11.5760 0.015
11.6063 -0.134
11.6365 0.030
11.6668 0.455
11.6971 -0.422
11.7274 -0.257
11.7577 0.116
11.7879 0.333
11.8182 0.863
11.8485 0.664
11.8788 0.361
11.9090 0.267
11.9393 -0.244
11.9696 -0.234
11.9999 0.193
12.0302 0.412
12.0604 -0.202
12.0907 0.694
12.1210 0.654
12.1513 0.717
12.1816 0.885
12.2118 -0.145
12.2421 -0.028
12.2724 0.349
12.3027 0.049
12.3329 -0.043
12.3632 0.387
12.3935 0.400
12.4238 0.570
12.4541 0.219
12.4843 0.962
12.5146 -0.326
12.5449 -0.416
12.5752 0.364
12.6055 0.050
12.6357 0.726
12.6660 0.413
12.6963 0.256
12.7266 0.673
12.7568 0.152
12.7871 0.672
12.8174 0.308
12.8477 0.257
12.8780 0.726
12.9082 0.883
12.9385 0.103
12.9688 0.521
12.9991 0.627
13.0294 0.108
13.0596 0.370
13.0899 0.268
13.1202 0.062
13.1505 -0.300
13.1807 -0.245
13.2110 -0.450
13.2413 0.855
13.2716 -0.078
13.3019 -0.231
13.3321 -0.279
13.3624 0.038
13.3927 -0.375
13.4230 0.932
13.4533 -0.105
13.4835 0.525
13.5138 -0.668
13.5441 -0.141
13.5744 -0.188
13.6046 0.027
13.6349 -0.801
13.6652 0.352
13.6955 0.202
13.7258 0.729
13.7560 0.164
13.7863 0.014
13.8166 0.439
13.8469 0.082
13.8772 0.402
13.9074 0.045
13.9377 -0.728
13.9680 0.166
13.9983 -0.398
14.0285 0.392
14.0588 -0.015
14.0891 -0.006
14.1194 -0.361
14.1497 0.004
14.1799 0.473
14.2102 -0.463
14.2405 0.684
14.2708 -0.148
14.3011 0.530
14.3313 0.271
14.3616 0.221
14.3919 0.171
14.4222 0.642
14.4524 0.176
14.4827 0.179
14.5130 0.650
14.5433 0.081
14.5736 0.292
14.6038 -0.381
14.6341 0.248
14.6644 -0.321
14.6947 -0.056
14.7250 0.209
14.7552 -0.360
14.7855 0.166
14.8158 -0.193
14.8461 1.010
14.8764 0.963
14.9066 0.240
14.9369 -0.327
14.9672 0.304
14.9975 -0.210
15.0277 0.265
15.0580 0.428
15.0883 0.175
15.1186 0.182
15.1489 -0.852
15.1791 -0.063
15.2094 -0.107
15.2397 -0.463
15.2700 0.535
15.3003 -0.603
15.3305 1.021
15.3608 0.249
15.3911 0.935
15.4214 0.424
15.4516 0.433
15.4819 -0.026
15.5122 -0.484
15.5425 0.568
15.5728 -0.255
15.6030 -0.192
15.6333 -0.702
15.6636 0.243
15.6939 0.563
15.7242 0.362
15.7544 -0.047
15.7847 1.368
15.8150 0.387
15.8453 -0.230
15.8755 1.081
15.9058 0.048
15.9361 0.943
15.9664 0.848
15.9967 0.233
16.0269 0.191
16.0572 0.566
16.0875 0.732
16.1178 0.586
16.1481 -0.340
16.1783 -0.329
16.2086 0.287
16.2389 0.436
16.2692 0.115
16.2994 0.264
16.3297 -0.160
16.3600 -0.324
16.3903 0.972
16.4206 0.079
16.4508 1.062
16.4811 1.004
16.5114 0.425
16.5417 -0.362
16.5720 0.309
16.6022 0.096
16.6325 0.090
16.6628 0.398
16.6931 0.810
16.7233 0.128
16.7536 0.697
16.7839 0.692
16.8142 0.324
16.8445 0.164
16.8747 0.421
16.9050 1.199
16.9353 -0.210
16.9656 0.776
16.9959 0.461
17.0261 -0.062
17.0564 0.769
17.0867 0.975
17.1170 0.401
17.1472 0.816
17.1775 -0.019
17.2078 -0.072
17.2381 0.396
17.2684 -0.438
17.2986 0.395
17.3289 0.394
17.3592 -0.335
17.3895 0.603
17.4198 -0.438
17.4500 0.604
17.4803 0.188
17.5106 0.293
17.5409 -0.539
17.5712 0.504
17.6014 0.089
17.6317 0.248
17.6620 -0.271
17.6923 -0.217
17.7225 0.411
17.7528 -0.107
17.7831 0.833
17.8134 0.316
17.8437 0.527
17.8739 -0.146
17.9042 0.275
17.9345 -0.138
17.9648 0.023
17.9951 -0.494
18.0253 0.028
18.0556 0.706
18.0859 -0.126
18.1162 0.344
18.1464 0.189
18.1767 -0.017
18.2070 0.662
18.2373 -0.013
18.2676 0.823
18.2978 0.097
18.3281 -0.213
18.3584 -0.158
18.3887 0.679
18.4190 -0.463
18.4492 0.687
18.4795 0.326
18.5098 0.278
18.5401 -0.186
18.5703 0.808
18.6006 0.709
18.6309 -0.171
18.6612 0.199
18.6915 0.673
18.7217 0.574
18.7520 -0.149
18.7823 0.534
18.8126 0.489
18.8429 0.079
18.8731 -0.331
18.9034 0.353
18.9337 0.048
18.9640 0.107
18.9942 -0.249
19.0245 0.227
19.0548 -0.390
19.0851 -0.182
19.1154 0.390
19.1456 0.702
19.1759 0.129
19.2062 0.598
19.2365 -0.079
19.2668 0.390
19.2970 -0.182
19.3273 0.079
19.3576 -0.076
19.3879 0.603
19.4181 -0.438
19.4484 0.397
19.4787 0.556
19.5090 0.714
19.5393 -0.013
19.5695 0.511
19.5998 1.555
19.6301 -0.160
19.6604 -0.105
19.6907 0.263
19.7209 -0.619
19.7512 0.323
19.7815 0.535
19.8118 -0.554
19.8420 0.440
19.8723 -0.233
19.9026 0.554
19.9329 0.246
19.9632 -0.321
19.9934 -0.373
20.0237 0.409
20.0540 0.410
20.0843 0.359
20.1146 0.361
20.1448 0.258
20.1751 -0.209
20.2054 -0.103
20.2357 0.473
20.2659 0.058
20.2962 0.426
20.3265 0.272
20.3568 -0.141
20.3871 -0.138
20.4173 0.282
20.4476 -0.391
20.4779 0.082
20.5082 0.086
20.5385 0.403
20.5687 -0.009
20.5990 -0.317
20.6293 -0.472
20.6596 0.414
20.6899 0.259
20.7201 0.052
20.7504 -0.520
20.7807 0.000
20.8110 0.207
20.8412 0.622
20.8715 0.413
20.9018 0.412
20.9321 0.256
20.9624 0.620
20.9926 -0.109
21.0229 0.620
21.0532 -0.369
21.0835 -0.004
21.1138 -0.159
21.1440 0.519
21.1743 0.364
21.2046 0.314
21.2349 -0.310
21.2651 0.265
21.2954 -0.201
21.3257 0.843
21.3560 0.376
21.3863 -0.454
21.4165 0.434
21.4468 1.115
21.4771 0.233
21.5074 0.028
21.5377 -0.124
21.5679 0.297
21.5982 -0.376
21.6285 -0.111
21.6588 0.623
21.6890 0.628
21.7193 0.060
21.7496 -0.143
21.7799 0.279
21.8102 0.077
21.8404 0.656
21.8707 0.714
21.9010 0.200
21.9313 0.467
21.9616 0.734
21.9918 0.325
22.0221 0.228
22.0524 -0.337
22.0827 -0.189
22.1129 0.480
22.1432 0.368
22.1735 0.204
22.2038 0.197
22.2341 0.502
22.2643 0.287
22.2946 -0.032
22.3249 0.274
22.3552 0.059
22.3855 -0.624
22.4157 -0.005
22.4460 0.615
22.4763 0.505
22.5066 0.709
22.5368 0.652
22.5671 0.386
22.5974 1.059
22.6277 -0.299
22.6580 -0.147
22.6882 -0.047
22.7185 0.210
22.7488 0.728
22.7791 -0.057
22.8094 -0.164
22.8396 0.250
22.8699 0.091
22.9002 0.454
22.9305 0.347
22.9607 0.293
22.9910 0.552
23.0213 0.447
23.0516 -0.232
23.0819 0.392
23.1121 0.131
23.1424 0.287
23.1727 0.599
23.2030 0.547
23.2333 0.026
23.2635 0.964
23.2938 0.860
23.3241 0.288
23.3544 0.133
23.3846 0.342
23.4149 0.239
23.4452 0.345
23.4755 -0.747
23.5058 -0.016
23.5360 0.039
23.5663 -0.011
23.5966 -0.112
23.6269 0.047
23.6572 0.154
23.6874 0.730
23.7177 0.942
23.7480 0.113
23.7783 -0.144
23.8086 0.537
23.8388 -0.344
23.8691 0.130
23.8994 0.135
23.9297 0.400
23.9599 0.510
23.9902 -0.422
24.0205 -0.312
24.0508 -0.310
24.0811 0.161
24.1113 0.371
24.1416 0.166
24.1719 1.002
24.2022 -0.714
24.2325 -0.190
24.2627 0.022
24.2930 0.026
24.3233 0.290
24.3536 0.503
24.3838 0.507
24.4141 0.356
24.4444 0.256
24.4747 -0.363
24.5050 -0.214
24.5352 -0.169
24.5655 -0.280
24.5958 -0.130
24.6261 0.176
24.6564 0.378
24.6866 -0.513
24.7169 0.263
24.7472 -0.264
24.7775 -0.113
24.8077 0.403
24.8380 0.555
24.8683 0.706
24.8986 0.650
24.9289 0.177
24.9591 0.277
24.9894 -0.351
25.0197 0.010
25.0500 -0.358
25.0803 0.420
25.1105 -0.572
25.1408 -0.210
25.1711 -0.317
25.2014 -0.322
25.2316 0.403
25.2619 -0.279
25.2922 0.602
25.3225 0.390
25.3528 0.490
25.3830 -0.138
25.4133 -0.142
25.4436 -0.145
25.4739 0.477
25.5042 0.058
25.5344 0.003
25.5647 -0.364
25.5950 0.046
25.6253 0.820
25.6555 0.345
25.6858 1.172
25.7161 -0.449
25.7464 -0.039
25.7767 -0.253
25.8069 -0.154
25.8372 -0.264
25.8675 -0.061
25.8978 -0.170
25.9281 -0.123
25.9583 0.289
25.9886 0.025
26.0189 0.229
26.0492 0.069
26.0794 -0.091
26.1097 0.426
26.1400 -0.202
26.1703 -0.049
26.2006 -0.156
26.2308 -0.315
26.2611 0.047
26.2914 -0.215
26.3217 0.251
26.3520 0.250
26.3822 -0.117
26.4125 -0.326
26.4428 -0.848
26.4731 0.661
26.5034 -0.537
26.5336 0.139
26.5639 0.139
26.5942 -0.225
26.6245 -0.329
26.6547 -0.184
26.6850 0.065
26.7153 0.159
26.7456 -0.529
26.7759 0.398
26.8061 -0.497
26.8364 0.066
26.8667 0.317
26.8970 0.516
26.9273 -0.067
26.9575 -0.076
26.9878 0.020
27.0181 -0.405
27.0484 0.055
27.0786 -0.057
27.1089 0.299
27.1392 0.188
27.1695 -0.080
27.1998 0.277
27.2300 -0.459
27.2603 0.055
27.2906 0.309
27.3209 -0.115
27.3512 0.192
27.3814 0.446
27.4117 -0.497
27.4420 0.122
27.4723 0.013
27.5025 1.050
27.5328 -0.257
27.5631 -0.210
27.5934 0.254
27.6237 -0.219
27.6539 0.611
27.6842 0.034
27.7145 -0.282
27.7448 -0.494
27.7751 0.332
27.8053 -0.457
27.8356 -0.099
27.8659 -0.106
27.8962 -0.009
27.9264 -0.276
27.9567 0.134
27.9870 -0.132
28.0173 -0.190
28.0476 0.012
28.0778 0.111
28.1081 0.679
28.1384 -0.524
28.1687 -0.321
28.1990 -0.534
28.2292 0.556
28.2595 0.083
28.2898 -0.234
28.3201 -0.238
28.3503 0.800
28.3806 0.120
28.4109 -0.300
28.4412 0.322
28.4715 0.163
28.5017 0.682
28.5320 0.836
28.5623 0.261
28.5926 -0.158
28.6229 0.778
28.6531 0.412
28.6834 0.359
28.7137 -0.111
28.7440 -0.320
28.7742 -0.112
28.8045 0.200
28.8348 0.044
28.8651 0.461
28.8954 -0.112
28.9256 0.410
28.9559 -0.006
28.9862 0.307
29.0165 -0.369
29.0468 0.310
29.0770 0.051
29.1073 -0.520
29.1376 -0.028
29.1679 0.412
29.1981 -0.085
29.2284 0.512
29.2587 0.119
29.2890 0.300
29.3193 -0.196
29.3495 0.037
29.3798 -0.042
29.4101 0.243
29.4404 -0.981
29.4707 0.294
29.5009 0.580
29.5312 0.398
29.5615 0.633
29.5918 0.451
29.6221 0.165
29.6523 0.400
29.6826 -0.666
29.7129 0.038
29.7432 0.014
29.7734 0.406
29.8037 -0.295
29.8340 0.254
29.8643 0.178
29.8946 0.624
29.9248 -0.025
29.9551 0.838
29.9854 -0.018
30.0157 -0.197
30.0460 -0.219
30.0762 0.488
30.1065 0.466
30.1368 0.704
30.1671 0.579
30.1973 0.766
30.2276 1.474
30.2579 0.516
30.2882 0.755
30.3185 0.058
30.3487 0.246
30.3790 0.643
30.4093 0.623
30.4396 1.124
30.4699 0.949
30.5001 1.034
30.5304 1.015
30.5607 2.715
30.5910 1.394
30.6212 2.522
30.6515 1.046
30.6818 2.903
30.7121 2.625
30.7424 2.087
30.7726 3.163
30.8029 3.511
30.8332 3.546
30.8635 3.009
30.8938 3.774
30.9240 4.331
30.9543 5.200
30.9846 4.508
31.0149 5.221
31.0451 5.571
31.0754 8.264
31.1057 7.728
31.1360 8.912
31.1663 7.908
31.1965 11.175
31.2268 10.640
31.2571 13.179
31.2874 12.540
31.3177 15.131
31.3479 18.191
31.3782 20.678
31.4085 24.051
31.4388 24.091
31.4690 27.099
31.4993 28.077
31.5296 33.378
31.5599 36.387
31.5902 35.126
31.6204 38.552
31.6507 36.354
31.6810 37.228
31.7113 35.864
31.7416 32.051
31.7718 26.625
31.8021 24.636
31.8324 25.095
31.8627 19.044
31.8929 18.201
31.9232 15.380
31.9535 12.455
31.9838 12.186
32.0141 10.407
32.0443 8.888
32.0746 8.984
32.1049 5.435
32.1352 7.407
32.1655 5.056
32.1957 3.747
32.2260 5.198
32.2563 3.786
32.2866 3.988
32.3169 3.096
32.3471 3.194
32.3774 2.147
32.4077 4.016
32.4380 2.240
32.4682 1.975
32.4985 1.605
32.5288 1.184
32.5591 2.117
32.5894 1.749
32.6196 1.693
32.6499 1.428
32.6802 1.581
32.7105 1.317
32.7408 1.366
32.7710 1.051
32.8013 -0.150
32.8316 0.213
32.8619 0.575
32.8921 0.833
32.9224 0.675
32.9527 0.049
32.9830 0.829
33.0133 0.567
33.0435 -0.059
33.0738 0.201
33.1041 -0.060
33.1344 0.148
33.1647 0.512
33.1949 -0.685
33.2252 0.409
33.2555 0.357
33.2858 0.254
33.3160 0.984
33.3463 0.673
33.3766 0.987
33.4069 -0.001
33.4372 -0.520
33.4674 0.046
33.4977 0.248
33.5280 0.867
33.5583 0.549
33.5886 1.116
33.6188 0.903
33.6491 0.897
33.6794 1.830
33.7097 2.763
33.7399 1.091
33.7702 2.910
33.8005 3.635
33.8308 3.579
33.8611 4.253
33.8913 3.989
33.9216 5.808
33.9519 7.420
33.9822 7.313
34.0125 8.873
34.0427 11.527
34.0730 13.243
34.1033 15.116
34.1336 18.292
34.1638 23.655
34.1941 28.601
34.2244 38.548
34.2547 44.954
34.2850 46.776
34.3152 44.692
34.3455 44.380
34.3758 37.400
34.4061 30.109
34.4364 22.974
34.4666 20.683
34.4969 15.944
34.5272 12.820
34.5575 9.905
34.5877 6.886
34.6180 7.148
34.6483 5.327
34.6786 6.371
34.7089 4.967
34.7391 3.824
34.7694 4.868
34.7997 3.569
34.8300 3.312
34.8603 4.409
34.8905 3.840
34.9208 4.052
34.9511 3.015
34.9814 3.071
35.0116 2.815
35.0419 2.143
35.0722 3.606
35.1025 4.601
35.1328 2.523
35.1630 4.456
35.1933 4.566
35.2236 4.311
35.2539 5.099
35.2842 3.647
35.3144 5.268
35.3447 4.754
35.3750 4.866
35.4053 5.811
35.4356 7.485
35.4658 7.180
35.4961 7.969
35.5264 8.134
35.5567 7.986
35.5869 10.078
35.6172 10.712
35.6475 11.190
35.6778 16.251
35.7081 16.209
35.7383 18.562
35.7686 19.978
35.7989 20.301
35.8292 25.207
35.8595 28.864
35.8897 32.677
35.9200 35.188
35.9503 36.761
35.9806 40.054
36.0108 47.670
36.0411 47.109
36.0714 52.277
36.1017 53.019
36.1320 52.719
36.1622 52.940
36.1925 50.453
36.2228 47.393
36.2531 45.115
36.2834 42.160
36.3136 39.153
36.3439 33.073
36.3742 28.921
36.4045 25.394
36.4347 21.033
36.4650 18.444
36.4953 17.574
36.5256 15.454
36.5559 13.334
36.5861 11.319
36.6164 10.345
36.6467 9.111
36.6770 6.576
36.7073 8.051
36.7375 6.713
36.7678 6.418
36.7981 7.425
36.8284 5.828
36.8586 4.127
36.8889 3.572
36.9192 4.319
36.9495 2.931
36.9798 3.731
37.0100 2.865
37.0403 2.415
37.0706 2.695
37.1009 2.870
37.1312 2.473
37.1614 1.191
37.1917 1.784
37.2220 1.388
37.2523 1.773
37.2825 1.533
37.3128 1.086
37.3431 2.409
37.3734 0.451
37.4037 1.046
37.4339 -0.078
37.4642 1.819
37.4945 0.799
37.5248 0.353
37.5551 1.418
37.5853 0.868
37.6156 -0.203
37.6459 -0.128
37.6762 0.521
37.7064 0.857
37.7367 0.256
37.7670 -0.396
37.7973 0.357
37.8276 0.642
37.8578 0.875
37.8881 0.119
37.9184 -0.116
37.9487 0.066
37.9790 -0.325
38.0092 -0.039
38.0395 -0.273
38.0698 -0.142
38.1001 0.353
38.1304 0.172
38.1606 -0.270
38.1909 0.122
38.2212 -0.111
38.2515 -0.604
38.2817 0.309
38.3120 -0.236
38.3423 -0.728
38.3726 0.288
38.4029 -0.102
38.4331 -0.180
38.4634 -0.361
38.4937 -0.125
38.5240 0.268
38.5543 -0.433
38.5845 0.480
38.6148 0.196
38.6451 -0.087
38.6754 -0.319
38.7056 -0.185
38.7359 0.261
38.7662 0.082
38.7965 -0.201
38.8268 0.038
38.8570 0.016
38.8873 -0.214
38.9176 0.181
38.9479 0.160
38.9782 -0.278
39.0084 0.743
39.0387 0.254
39.0690 0.286
39.0993 0.839
39.1295 -0.067
39.1598 0.278
39.1901 0.103
39.2204 0.656
39.2507 0.690
39.2809 0.098
39.3112 -0.389
39.3415 -0.072
39.3718 -0.119
39.4021 -0.217
39.4323 0.726
39.4626 0.211
39.4929 -0.252
39.5232 0.067
39.5534 -0.030
39.5837 0.133
39.6140 0.348
39.6443 0.355
39.6746 -0.418
39.7048 0.266
39.7351 0.535
39.7654 0.647
39.7957 0.030
39.8260 0.143
39.8562 -0.004
39.8865 0.473
39.9168 0.014
39.9471 0.336
39.9773 0.397
40.0076 -0.009
40.0379 0.365
40.0682 0.844
40.0985 0.855
40.1287 0.761
40.1590 0.095
40.1893 -0.154
40.2196 -0.143
40.2499 -0.027
40.2801 -0.276
40.3104 0.034
40.3407 0.084
40.3710 0.030
40.4012 0.133
40.4315 0.912
40.4618 -0.391
40.4921 0.701
40.5224 0.752
40.5526 0.752
40.5829 0.074
40.6132 -0.551
40.6435 0.126
40.6738 0.126
40.7040 0.126
40.7343 0.960
40.7646 0.128
40.7949 -0.080
40.8251 0.078
40.8554 -0.337
40.8857 -0.029
40.9160 0.019
40.9463 0.431
40.9765 0.167
41.0068 0.424
41.0371 0.421
41.0674 0.522
41.0977 -0.054
41.1279 0.047
41.1582 -0.268
41.1885 0.563
41.2188 0.561
41.2491 0.039
41.2793 0.350
41.3096 -0.173
41.3399 -0.018
41.3702 0.607
41.4004 0.033
41.4307 0.189
41.4610 -0.280
41.4913 -0.386
41.5216 0.343
41.5518 0.603
41.5821 -0.335
41.6124 0.134
41.6427 0.395
41.6730 -0.178
41.7032 -0.438
41.7335 0.240
41.7638 0.398
41.7941 -0.226
41.8243 0.088
41.8546 0.975
41.8849 0.456
41.9152 -0.323
41.9455 -0.060
41.9757 0.411
42.0060 -0.003
42.0363 -0.312
42.0666 0.316
42.0969 -0.045
42.1271 -0.146
42.1574 0.275
42.1877 0.019
42.2180 0.023
42.2482 0.080
42.2785 -0.072
42.3088 0.454
42.3391 0.199
42.3694 -0.056
42.3996 -0.520
42.4299 0.107
42.4602 0.160
42.4905 0.162
42.5208 0.529
42.5510 0.427
42.5813 -0.144
42.6116 0.275
42.6419 -0.034
42.6721 0.021
42.7024 0.493
42.7327 0.340
42.7630 0.239
42.7933 0.452
42.8235 0.768
42.8538 -0.113
42.8841 -0.004
42.9144 0.209
42.9447 0.422
42.9749 0.688
43.0052 -0.244
43.0355 -0.082
43.0658 -0.076
43.0960 0.242
43.1263 0.248
43.1566 0.203
43.1869 -0.520
43.2172 -0.163
43.2474 0.454
43.2777 0.082
43.3080 0.699
43.3383 0.327
43.3686 0.372
43.3988 0.314
43.4291 -0.370
43.4594 -0.064
43.4897 -0.279
43.5199 0.340
43.5502 0.543
43.5805 0.590
43.6108 0.532
43.6411 0.058
43.6713 -0.311
43.7016 0.309
43.7319 0.148
43.7622 0.561
43.7925 0.244
43.8227 -0.072
43.8530 0.081
43.8833 0.338
43.9136 0.491
43.9439 0.332
43.9741 0.121
44.0044 -0.351
44.0347 0.012
44.0650 0.530
44.0952 -0.096
44.1255 -0.046
44.1558 0.005
44.1861 0.160
44.2164 0.055
44.2466 0.158
44.2769 -0.363
44.3072 -0.107
44.3375 -0.059
44.3678 0.042
44.3980 -0.066
44.4283 -0.069
44.4586 -0.280
44.4889 -0.340
44.5191 0.695
44.5494 -0.093
44.5797 -0.048
44.6100 -0.054
44.6403 -0.529
44.6705 0.351
44.7008 0.137
44.7311 0.236
44.7614 -0.134
44.7917 0.382
44.8219 0.168
44.8522 -0.409
44.8825 0.316
44.9128 -0.157
44.9430 0.620
44.9733 0.148
45.0036 -0.220
45.0339 -0.015
45.0642 -0.331
45.0944 0.083
45.1247 -0.180
45.1550 0.026
45.1853 -0.341
45.2156 0.126
45.2458 0.280
45.2761 -0.138
45.3064 -0.244
45.3367 -0.245
45.3669 0.223
45.3972 0.379
45.4275 0.066
45.4578 -0.299
45.4881 0.847
45.5183 0.690
45.5486 0.274
45.5789 -0.298
45.6092 -0.193
45.6395 0.120
45.6697 0.070
45.7000 0.800
45.7303 -0.084
45.7606 -0.290
45.7908 -0.093
45.8211 -0.364
45.8514 0.198
45.8817 -0.281
45.9120 0.751
45.9422 -0.197
45.9725 -0.050
46.0028 -0.008
46.0331 0.452
46.0634 -0.130
46.0936 0.173
46.1239 0.373
46.1542 -0.156
46.1845 0.356
46.2147 0.921
46.2450 -0.128
46.2753 0.177
46.3056 0.326
46.3359 0.162
46.3661 0.520
46.3964 0.774
46.4267 0.194
46.4570 0.448
46.4873 -0.130
46.5175 0.749
46.5478 1.056
46.5781 1.155
46.6084 0.785
46.6386 0.884
46.6689 1.244
46.6992 0.823
46.7295 1.443
46.7598 1.179
46.7900 1.540
46.8203 2.109
46.8506 2.314
46.8809 2.154
46.9112 1.839
46.9414 2.148
46.9717 2.458
47.0020 3.758
47.0323 3.808
47.0626 2.556
47.0928 4.117
47.1231 5.365
47.1534 5.937
47.1837 7.915
47.2139 6.820
47.2442 9.059
47.2745 8.434
47.3048 8.746
47.3351 10.100
47.3653 10.048
47.3956 11.559
47.4259 11.508
47.4562 11.144
47.4865 10.624
47.5167 8.699
47.5470 8.179
47.5773 8.806
47.6076 6.100
47.6378 5.477
47.6681 5.896
47.6984 5.794
47.7287 4.182
47.7590 3.873
47.7892 3.564
47.8195 3.046
47.8498 3.258
47.8801 2.221
47.9104 2.016
47.9406 1.552
47.9709 1.921
48.0012 0.832
48.0315 0.577
48.0617 0.738
48.0920 0.848
48.1223 1.062
48.1526 1.015
48.1829 0.813
48.2131 1.288
48.2434 0.461
48.2737 -0.157
48.3040 0.839
48.3343 0.222
48.3645 0.281
48.3948 0.184
48.4251 -0.016
48.4554 0.252
48.4856 0.156
48.5159 0.165
48.5462 0.278
48.5765 0.182
48.6068 0.191
48.6370 -0.164
48.6673 -0.102
48.6976 0.012
48.7279 0.334
48.7582 0.396
48.7884 -0.062
48.8187 0.313
48.8490 0.272
48.8793 -0.290
48.9095 -0.230
48.9398 0.247
48.9701 0.621
49.0004 -0.100
49.0307 -0.039
49.0609 0.231
49.0912 -0.176
49.1215 0.094
49.1518 0.208
49.1821 -0.198
49.2123 -0.084
49.2426 -0.178
49.2729 -0.167
49.3032 0.000
49.3334 0.168
49.3637 -0.237
49.3940 -0.017
49.4243 0.463
49.4546 0.736
49.4848 -0.085
49.5151 0.031
49.5454 0.252
49.5757 0.317
49.6060 0.487
49.6362 0.448
49.6665 0.305
49.6968 -0.045
49.7271 0.125
49.7574 0.712
49.7876 0.258
49.8179 0.585
49.8482 0.444
49.8785 -0.218
49.9087 -0.255
49.9390 0.157
49.9693 1.091
49.9996 0.567
50.0299 0.303
50.0601 0.091
50.0904 0.401
50.1207 0.346
50.1510 0.135
50.1813 0.341
50.2115 0.078
50.2418 0.337
50.2721 0.335
50.3024 0.125
50.3326 -0.241
50.3629 0.123
50.3932 0.487
50.4235 0.069
50.4538 0.329
50.4840 0.433
50.5143 0.433
50.5446 -0.139
50.5749 0.538
50.6052 0.435
50.6354 0.331
50.6657 0.280
50.6960 0.021
50.7263 -0.185
50.7565 0.129
50.7868 0.339
50.8171 -0.023
50.8474 0.500
50.8777 -0.122
50.9079 0.505
50.9382 -0.064
50.9685 0.043
50.9988 0.463
51.0291 -0.054
51.0593 -0.206
51.0896 0.267
51.1199 0.167
51.1502 0.067
51.1804 0.384
51.2107 0.129
51.2410 0.082
51.2713 0.452
51.3016 1.187
51.3318 0.307
51.3621 0.574
51.3924 0.320
51.4227 0.222
51.4530 0.020
51.4832 -0.389
51.5135 0.017
51.5438 0.684
51.5741 0.153
51.6043 0.144
51.6346 0.291
51.6649 0.125
51.6952 0.220
51.7255 0.211
51.7557 -0.057
51.7860 -0.118
51.8163 0.186
51.8466 0.543
51.8769 0.640
51.9071 0.372
51.9374 -0.417
51.9677 0.305
51.9980 0.194
52.0282 0.188
52.0585 0.598
52.0888 0.331
52.1191 -0.196
52.1494 0.580
52.1796 0.314
52.2099 0.152
52.2402 0.824
52.2705 0.195
52.3008 0.190
52.3310 -0.179
52.3613 0.077
52.3916 0.385
52.4219 0.069
52.4521 0.274
52.4824 0.218
52.5127 0.267
52.5430 -0.100
52.5733 -0.311
52.6035 0.152
52.6338 0.459
52.6641 -0.432
52.6944 -0.124
52.7247 -0.389
52.7549 0.176
52.7852 0.377
52.8155 -0.099
52.8458 -0.262
52.8761 -0.112
52.9063 -0.066
52.9366 0.604
52.9669 -0.599
52.9972 0.072
53.0274 -0.090
53.0577 0.217
53.0880 0.004
53.1183 0.155
53.1486 0.515
53.1788 -0.479
53.2091 0.298
53.2394 0.294
53.2697 0.759
53.3000 -0.442
53.3302 0.023
53.3605 -0.501
53.3908 0.538
53.4211 0.170
53.4513 -0.197
53.4816 0.322
53.5119 -0.045
53.5422 0.266
53.5725 -0.048
53.6027 -0.050
53.6330 -0.103
53.6633 -0.156
53.6936 0.312
53.7239 0.103
53.7541 0.363
53.7844 0.415
53.8147 0.259
53.8450 0.259
53.8752 -0.053
53.9055 -0.052
53.9358 -0.155
53.9661 0.679
53.9964 0.004
54.0266 -0.099
54.0569 0.163
54.0872 -0.043
54.1175 0.168
54.1478 0.483
54.1780 -0.088
54.2083 -0.137
54.2386 0.439
54.2689 0.026
54.2991 1.071
54.3294 -0.019
54.3597 0.141
54.3900 0.875
54.4203 0.358
54.4505 -0.470
54.4808 -0.205
54.5111 0.321
54.5414 0.014
54.5717 0.488
54.6019 -0.027
54.6322 0.083
54.6625 -0.276
54.6928 -0.239
54.7230 0.110
54.7533 -0.166
54.7836 -0.233
54.8139 0.638
54.8442 1.144
54.8744 -0.016
54.9047 -0.030
54.9350 1.154
54.9653 0.047
54.9956 0.190
55.0258 -0.032
55.0561 0.268
55.0864 0.463
55.1167 0.711
55.1469 0.490
55.1772 0.166
55.2075 0.154
55.2378 0.298
55.2681 0.651
55.2983 0.171
55.3286 0.681
55.3589 0.149
55.3892 0.972
55.4195 0.024
55.4497 0.691
55.4800 1.254
55.5103 0.932
55.5406 1.755
55.5709 1.954
55.6011 1.372
55.6314 1.259
55.6617 1.459
55.6920 1.503
55.7222 1.703
55.7525 2.163
55.7828 2.051
55.8131 2.617
55.8434 3.443
55.8736 2.081
55.9039 2.804
55.9342 3.370
55.9645 2.478
55.9948 3.982
56.0250 3.559
56.0553 4.855
56.0856 4.641
56.1159 4.844
56.1461 6.818
56.1764 6.761
56.2067 6.444
56.2370 9.408
56.2673 8.935
56.2975 9.868
56.3278 10.958
56.3581 12.152
56.3884 10.430
56.4187 14.541
56.4489 14.278
56.4792 14.379
56.5095 12.345
56.5398 12.864
56.5700 13.278
56.6003 11.870
56.6306 10.618
56.6609 9.679
56.6912 7.803
56.7214 7.281
56.7517 6.915
56.7820 5.925
56.8123 5.352
56.8426 4.154
56.8728 4.831
56.9031 3.529
56.9334 4.310
56.9637 3.217
56.9939 2.593
57.0242 3.584
57.0545 2.075
57.0848 2.076
57.1151 1.713
57.1453 1.663
57.1756 2.030
57.2059 0.990
57.2362 0.785
57.2665 0.423
57.2967 1.415
57.3270 0.950
57.3573 0.432
57.3876 0.280
57.4178 0.544
57.4481 0.496
57.4784 -0.072
57.5087 -0.068
57.5390 1.083
57.5692 0.098
57.5995 0.364
57.6298 0.004
57.6601 -0.042
57.6904 -0.245
57.7206 0.647
57.7509 0.028
57.7812 0.503
57.8115 0.041
57.8417 0.465
57.8720 -0.257
57.9023 0.010
57.9326 -0.295
57.9629 0.547
57.9931 -0.852
58.0234 -0.114
58.0537 0.467
58.0840 -0.514
58.1143 -0.089
58.1445 0.129
58.1748 -0.279
58.2051 0.200
58.2354 0.366
58.2656 0.063
58.2959 -0.343
58.3262 0.188
58.3565 -0.375
58.3868 0.261
58.4170 0.116
58.4473 0.127
58.4776 -0.434
58.5079 0.046
58.5382 -0.150
58.5684 -0.295
58.5987 -0.081
58.6290 0.445
58.6593 -0.279
58.6896 0.196
58.7198 -0.371
58.7501 -0.001
58.7804 0.318
58.8107 0.272
58.8409 0.019
58.8712 -0.130
58.9015 0.293
58.9318 0.249
58.9621 -0.004
58.9923 0.420
59.0226 -0.040
59.0529 -0.084
59.0832 -0.023
59.1135 -0.275
59.1437 0.098
59.1740 0.160
59.2043 0.533
59.2346 -0.238
59.2648 -0.280
59.2951 -0.012
59.3254 -0.265
59.3557 0.316
59.3860 0.220
59.4162 -0.084
59.4465 0.290
59.4768 0.038
59.5071 0.047
59.5374 -0.152
59.5676 -0.246
59.5979 0.337
59.6282 -0.435
59.6585 0.461
59.6887 -0.258
59.7190 -0.195
59.7493 0.702
59.7796 0.140
59.8099 -0.266
59.8401 -0.221
59.8704 0.500
59.9007 0.232
59.9310 -0.452
59.9613 0.166
59.9915 0.367
60.0218 -0.160
60.0521 -0.271
60.0824 -0.071
60.1126 -0.028
60.1429 -0.140
60.1732 0.424
60.2035 -0.365
60.2338 0.044
60.2640 -0.224
60.2943 0.602
60.3246 0.074
60.3549 0.483
60.3852 0.008
60.4154 0.262
60.4457 0.307
60.4760 0.197
60.5063 -0.486
60.5365 0.394
60.5668 -0.132
60.5971 0.539
60.6274 0.222
60.6577 -0.252
60.6879 -0.204
60.7182 0.521
60.7485 -0.057
60.7788 -0.269
60.8091 0.248
60.8393 0.870
60.8696 0.346
60.8999 0.082
60.9302 -0.546
60.9604 -0.038
60.9907 0.365
61.0210 0.404
61.0513 0.183
61.0816 -0.038
61.1118 0.419
61.1421 -0.218
61.1724 0.134
61.2027 0.175
61.2330 0.111
61.2632 0.881
61.2935 0.141
61.3238 -0.391
61.3541 -0.037
61.3844 0.005
61.4146 -0.005
61.4449 0.037
61.4752 0.236
61.5055 0.695
61.5357 0.008
61.5660 0.520
61.5963 0.563
61.6266 0.503
61.6569 0.390
61.6871 0.330
61.7174 0.270
61.7477 0.522
61.7780 0.723
61.8083 0.664
61.8385 1.021
61.8688 0.285
61.8991 0.955
61.9294 0.324
61.9596 1.620
61.9899 0.832
62.0202 0.931
62.0505 2.384
62.0808 2.274
62.1110 1.331
62.1413 2.680
62.1716 2.103
62.2019 1.057
62.2322 2.459
62.2624 1.777
62.2927 2.190
62.3230 2.655
62.3533 4.475
62.3835 5.201
62.4138 4.729
62.4441 5.091
62.4744 6.338
62.5047 6.752
62.5349 8.417
62.5652 8.363
62.5955 10.705
62.6258 10.339
62.6561 8.150
62.6863 10.753
62.7166 10.283
62.7469 11.689
62.7772 10.855
62.8074 11.532
62.8377 9.449
62.8680 10.282
62.8983 9.710
62.9286 10.908
62.9588 7.680
62.9891 6.431
63.0194 5.860
63.0497 5.705
63.0800 4.821
63.1102 5.292
63.1405 3.627
63.1708 3.109
63.2011 4.466
63.2313 2.177
63.2616 3.117
63.2919 2.235
63.3222 1.405
63.3525 1.565
63.3827 1.830
63.4130 1.104
63.4433 1.682
63.4736 0.593
63.5039 1.014
63.5341 0.915
63.5644 0.816
63.5947 0.717
63.6250 0.306
63.6552 0.416
63.6855 0.370
63.7158 0.272
63.7461 0.018
63.7764 0.494
63.8066 0.501
63.8369 0.716
63.8672 0.515
63.8975 0.262
63.9278 0.062
63.9580 0.018
63.9883 -0.026
64.0186 0.607
64.0489 -0.009
64.0791 -0.209
64.1094 -0.304
64.1397 0.071
64.1700 0.237
64.2003 0.091
64.2305 0.466
64.2608 -0.356
64.2911 -0.189
64.3214 0.343
64.3517 -0.063
64.3819 -0.572
64.4122 0.106
64.4425 0.523
64.4728 -0.621
64.5031 -0.047
64.5333 0.215
64.5636 -0.044
64.5939 0.218
64.6242 -0.040
64.6544 0.431
64.6847 0.537
64.7150 0.019
64.7453 0.126
64.7756 -0.235
64.8058 0.081
64.8361 0.866
64.8664 0.140
64.8967 -0.376
64.9270 0.617
64.9572 0.101
64.9875 0.470
65.0178 0.371
65.0481 -0.093
65.0783 0.225
65.1086 -0.290
65.1389 -0.186
65.1692 -0.290
65.1995 0.110
65.2297 -0.219
65.2600 0.494
65.2903 0.165
65.3206 0.462
65.3509 0.030
65.3811 0.014
65.4114 0.364
65.4417 -0.120
65.4720 0.074
65.5022 0.632
65.5325 0.253
65.5628 0.187
65.5931 -0.504
65.6234 0.628
65.6536 0.042
65.6839 0.289
65.7142 0.120
65.7445 0.420
65.7748 0.251
65.8050 0.291
65.8353 0.435
65.8656 0.215
65.8959 0.151
65.9261 -0.173
65.9564 0.701
65.9867 0.169
66.0170 0.314
66.0473 1.502
66.0775 0.137
66.1078 0.075
66.1381 1.159
66.1684 1.826
66.1987 1.296
66.2289 0.713
66.2592 1.017
66.2895 1.112
66.3198 0.739
66.3500 1.251
66.3803 0.826
66.4106 1.079
66.4409 0.446
66.4712 1.324
66.5014 1.212
66.5317 1.153
66.5620 0.625
66.5923 1.504
66.6226 0.820
66.6528 0.449
66.6831 -0.078
66.7134 0.125
66.7437 0.223
66.7739 0.322
66.8042 0.473
66.8345 0.416
66.8648 0.672
66.8951 0.251
66.9253 1.236
66.9556 1.023
66.9859 1.384
67.0162 0.859
67.0465 1.689
67.0767 1.061
67.1070 0.798
67.1373 1.003
67.1676 1.521
67.1978 2.352
67.2281 1.413
67.2584 0.994
67.2887 1.565
67.3190 1.407
67.3492 1.614
67.3795 2.603
67.4098 3.071
67.4401 3.487
67.4704 3.434
67.5006 3.798
67.5309 4.007
67.5612 3.694
67.5915 4.424
67.6218 4.841
67.6520 5.207
67.6823 5.989
67.7126 5.782
67.7429 5.888
67.7731 8.129
67.8034 7.610
67.8337 7.716
67.8640 6.885
67.8943 7.878
67.9245 6.995
67.9548 6.633
67.9851 7.053
68.0154 6.640
68.0457 7.008
68.0759 5.554
68.1062 4.516
68.1365 5.041
68.1668 3.535
68.1970 3.124
68.2273 3.181
68.2576 3.707
68.2879 3.556
68.3182 3.301
68.3484 2.994
68.3787 2.479
68.4090 2.069
68.4393 3.273
68.4696 2.655
68.4998 2.349
68.5301 1.732
68.5604 1.999
68.5907 2.632
68.6209 2.535
68.6512 3.221
68.6815 3.177
68.7118 2.560
68.7421 4.027
68.7723 3.046
68.8026 3.055
68.8329 3.065
68.8632 3.543
68.8935 2.303
68.9237 3.615
68.9540 2.583
68.9843 4.208
69.0146 4.062
69.0448 3.657
69.0751 2.834
69.1054 2.793
69.1357 2.649
69.1660 2.191
69.1962 2.099
69.2265 2.476
69.2568 2.436
69.2871 1.719
69.3174 1.263
69.3476 1.901
69.3779 1.237
69.4082 1.147
69.4385 1.004
69.4687 1.226
69.4990 0.563
69.5293 0.213
69.5596 0.384
69.5899 0.711
69.6201 0.205
69.6504 0.272
69.6807 0.808
69.7110 0.511
69.7413 -0.254
69.7715 0.074
69.8018 0.195
69.8321 0.315
69.8624 -0.137
69.8926 -0.120
69.9229 -0.520
69.9532 0.164
69.9835 0.119
70.0138 0.074
70.0440 0.186
70.0743 0.038
70.1046 0.098
70.1349 -0.103
70.1652 -0.407
70.1954 0.383
70.2257 0.131
70.2560 -0.068
70.2863 -0.475
70.3166 0.159
70.3468 -0.040
70.3771 0.022
70.4074 0.241
70.4377 0.251
70.4679 -0.207
70.4982 0.376
70.5285 -0.133
70.5588 -0.070
70.5891 -0.215
70.6193 0.109
70.6496 -0.504
70.6799 0.029
70.7102 0.041
70.7405 -0.363
70.7707 0.011
70.8010 -0.032
70.8313 0.083
70.8616 -0.324
70.8918 0.051
70.9221 0.218
70.9524 -0.084
70.9827 0.500
71.0130 0.251
71.0432 -0.310
71.0735 0.326
71.1038 -0.183
71.1341 -0.014
71.1644 -0.210
71.1946 -0.250
71.2249 0.176
71.2552 0.342
71.2855 0.039
71.3157 0.205
71.3460 0.267
71.3763 0.173
71.4066 -0.389
71.4369 -0.131
71.4671 0.545
71.4974 0.023
71.5277 0.074
71.5580 0.021
71.5883 -0.032
71.6185 0.072
71.6488 -0.241
71.6791 0.020
71.7094 -0.449
71.7396 0.385
71.7699 0.229
71.8002 0.543
71.8305 0.283
71.8608 0.024
71.8910 0.234
71.9213 -0.181
71.9516 0.290
71.9819 0.344
72.0122 0.711
72.0424 0.089
72.0727 0.143
72.1030 0.303
72.1333 1.139
72.1635 0.101
72.1938 0.313
72.2241 0.838
72.2544 0.373
72.2847 0.846
72.3149 0.642
72.3452 0.387
72.3755 1.277
72.4058 0.970
72.4361 1.392
72.4663 0.929
72.4966 0.987
72.5269 0.628
72.5572 0.999
72.5874 0.693
72.6177 0.752
72.6480 0.498
72.6783 0.974
72.7086 0.565
72.7388 1.145
72.7691 0.632
72.7994 0.172
72.8297 0.076
72.8600 0.709
72.8902 0.145
72.9205 0.101
72.9508 0.006
72.9811 0.484
73.0113 0.442
73.0416 -0.173
73.0719 0.253
73.1022 0.524
73.1325 0.482
73.1627 0.597
73.1930 0.139
73.2233 0.098
73.2536 -0.099
73.2839 0.173
73.3141 0.445
73.3444 -0.325
73.3747 -0.208
73.4050 0.099
73.4353 0.199
73.4655 -0.014
73.4958 -0.071
73.5261 0.185
73.5564 0.181
73.5866 -0.135
73.6169 0.174
73.6472 0.692
73.6775 -0.301
73.7078 -0.095
73.7380 0.058
73.7683 0.525
73.7986 0.054
73.8289 0.000
73.8592 -0.054
73.8894 0.465
73.9197 0.151
73.9500 -0.058
73.9803 0.305
74.0105 -0.268
74.0408 0.304
74.0711 -0.113
74.1014 -0.061
74.1317 0.512
74.1619 0.304
74.1922 0.097
74.2225 0.150
74.2528 -0.110
74.2831 0.464
74.3133 0.622
74.3436 0.103
74.3739 0.105
74.4042 0.107
74.4344 -0.047
74.4647 0.008
74.4950 -0.250
74.5253 0.066
74.5556 0.121
74.5858 -0.136
74.6161 -0.132
74.6464 -0.285
74.6767 0.182
74.7070 0.024
74.7372 0.439
74.7675 0.282
74.7978 0.437
74.8281 -0.137
74.8583 0.123
74.8886 0.383
74.9189 0.331
74.9492 -0.190
74.9795 0.383
75.0097 0.644
75.0400 0.020
75.0703 0.073
75.1006 0.178
75.1309 -0.185
75.1611 0.545
75.1914 0.131
75.2217 0.341
75.2520 0.083
75.2822 0.137
75.3125 0.296
75.3428 0.247
75.3731 -0.115
75.4034 0.097
75.4336 -0.108
75.4639 -0.208
75.4942 0.094
75.5245 0.396
75.5548 0.543
75.5850 0.116
75.6153 0.367
75.6456 0.098
75.6759 -0.119
75.7061 0.132
75.7364 -0.397
75.7667 0.063
75.7970 -0.101
75.8273 0.047
75.8575 0.040
75.8878 0.292
75.9181 0.441
75.9484 -0.034
75.9787 0.740
76.0089 0.213
76.0392 0.519
76.0695 0.513
76.0998 0.507
76.1301 0.449
76.1603 0.079
76.1906 0.334
76.2209 -0.088
76.2512 0.428
76.2814 0.371
76.3117 0.315
76.3420 0.311
76.3723 0.671
76.4026 0.199
76.4328 0.091
76.4631 0.504
76.4934 0.866
76.5237 0.863
76.5540 0.443
76.5842 0.806
76.6145 0.959
76.6448 0.437
76.6751 0.435
76.7053 1.214
76.7356 0.848
76.7659 0.899
76.7962 0.690
76.8265 0.689
76.8567 0.532
76.8870 0.793
76.9173 0.844
76.9476 0.845
76.9779 0.949
77.0081 0.585
77.0384 0.430
77.0687 0.847
77.0990 1.317
77.1292 0.694
77.1595 0.174
77.1898 0.489
77.2201 0.178
77.2504 0.128
77.2806 0.339
77.3109 0.967
77.3412 -0.020
77.3715 -0.069
77.4018 0.403
77.4320 -0.062
77.4623 0.880
77.4926 0.311
77.5229 0.315
77.5531 -0.150
77.5834 -0.145
77.6137 0.589
77.6440 -0.031
77.6743 0.079
77.7045 0.032
77.7348 -0.066
77.7651 -0.008
77.7954 -0.002
77.8257 0.369
77.8559 0.167
77.8862 0.278
77.9165 0.285
77.9468 0.188
77.9770 -0.221
78.0073 -0.278
78.0376 0.395
78.0679 0.443
78.0982 0.022
78.1284 -0.294
78.1587 0.067
78.1890 0.064
78.2193 0.009
78.2496 -0.203
78.2798 0.315
78.3101 0.261
78.3404 0.102
78.3707 -0.212
78.4009 0.151
78.4312 -0.007
78.4615 -0.008
78.4918 0.407
78.5221 0.250
78.5523 0.145
78.5826 0.197
78.6129 -0.377
78.6432 0.144
78.6735 0.248
78.7037 -0.220
78.7340 0.093
78.7643 0.042
78.7946 -0.061
78.8248 -0.112
78.8551 -0.007
78.8854 -0.005
78.9157 -0.003
78.9460 -0.001
78.9762 0.105
79.0065 -0.152
79.0368 0.319
79.0671 0.166
79.0974 -0.039
79.1276 0.172
79.1579 -0.085
79.1882 -0.185
79.2185 -0.129
79.2488 0.188
79.2790 -0.381
79.3093 0.145
79.3396 -0.215
79.3699 0.051
79.4001 0.004
79.4304 -0.199
79.4607 0.015
79.4910 0.178
79.5213 -0.389
79.5515 -0.129
79.5818 0.445
79.6121 0.862
79.6424 0.029
79.6727 0.447
79.7029 0.031
79.7332 0.033
79.7635 0.295
79.7938 -0.224
79.8240 -0.014
79.8543 0.093
79.8846 -0.009
79.9149 -0.215
79.9452 -0.016
79.9754 -0.390
80.0057 0.329
80.0360 -0.044
80.0663 -0.001
80.0966 0.094
80.1268 -0.018
80.1571 -0.131
80.1874 0.486
80.2177 0.270
80.2479 -0.102
80.2782 0.359
80.3085 -0.117
80.3388 -0.124
80.3691 -0.183
80.3993 0.019
80.4296 -0.196
80.4599 -0.046
80.4902 0.157
80.5205 -0.005
80.5507 0.041
80.5810 0.297
80.6113 0.083
80.6416 -0.078
80.6718 -0.083
80.7021 -0.191
80.7324 -0.039
80.7627 0.582
80.7930 -0.099
80.8232 -0.207
80.8535 0.155
80.8838 0.152
80.9141 0.305
80.9444 0.302
80.9746 0.144
81.0049 0.818
81.0352 0.243
81.0655 0.502
81.0957 0.032
81.1260 0.239
81.1563 0.498
81.1866 0.341
81.2169 0.757
81.2471 0.027
81.2774 -0.129
81.3077 1.120
81.3380 0.444
81.3683 0.496
81.3985 0.236
81.4288 0.341
81.4591 0.602
81.4894 0.239
81.5196 0.032
81.5499 -0.018
81.5802 0.192
81.6105 0.246
81.6408 0.248
81.6710 0.043
81.7013 0.045
81.7316 -0.108
81.7619 -0.105
81.7922 0.315
81.8224 0.371
81.8527 0.375
81.8830 0.223
81.9133 0.071
81.9436 0.075
81.9738 -0.076
82.0041 -0.176
82.0344 -0.119
82.0647 -0.322
82.0949 0.309
82.1252 0.315
82.1555 -0.304
82.1858 0.327
82.2161 0.073
82.2463 -0.233
82.2766 -0.024
82.3069 0.290
82.3372 -0.021
82.3675 0.345
82.3977 -0.069
82.4280 0.245
82.4583 -0.065
82.4886 0.250
82.5188 -0.268
82.5491 0.204
82.5794 -0.001
82.6097 0.263
82.6400 0.058
82.6702 0.010
82.7005 -0.090
82.7308 0.018
82.7611 0.022
82.7914 0.392
82.8216 0.136
82.8519 -0.327
82.8822 0.199
82.9125 -0.056
82.9427 0.262
82.9730 -0.148
83.0033 -0.038
83.0336 -0.031
83.0639 0.079
83.0941 0.242
83.1244 -0.115
83.1547 -0.108
83.1850 -0.048
83.2153 0.012
83.2455 0.124
83.2758 0.392
83.3061 0.245
83.3364 -0.007
83.3666 -0.311
83.3969 0.053
83.4272 0.156
83.4575 0.260
83.4878 0.259
83.5180 -0.157
83.5483 0.572
83.5786 -0.105
83.6089 0.156
83.6392 -0.104
83.6694 -0.259
83.6997 0.153
83.7300 0.253
83.7603 0.092
83.7905 0.036
83.8208 0.240
83.8511 -0.180
83.8814 -0.131
83.9117 0.230
83.9419 0.331
83.9722 -0.036
84.0025 -0.039
84.0328 -0.198
84.0631 0.008
84.0933 -0.098
84.1236 -0.152
84.1539 0.107
84.1842 0.419
84.2144 0.105
84.2447 0.156
84.2750 0.103
84.3053 0.051
84.3356 -0.054
84.3658 0.103
84.3961 0.155
84.4264 -0.053
84.4567 0.260
84.4870 0.521
84.5172 -0.102
84.5475 -0.205
84.5778 0.004
84.6081 0.110
84.6383 0.216
84.6686 0.062
84.6989 0.221
84.7292 -0.037
84.7595 -0.138
84.7897 0.125
84.8200 -0.080
84.8503 0.080
84.8806 0.135
84.9109 -0.173
84.9411 0.508
84.9714 0.252
85.0017 0.256
85.0320 -0.208
85.0623 0.214
85.0925 0.271
85.1228 0.068
85.1531 0.074
85.1834 -0.493
85.2136 -0.033
85.2439 0.167
85.2742 0.211
85.3045 0.047
85.3348 -0.325
85.3650 0.137
85.3953 0.286
85.4256 -0.086
85.4559 -0.092
85.4862 0.214
85.5164 0.416
85.5467 0.462
85.5770 0.039
85.6073 0.398
85.6375 0.028
85.6678 0.075
85.6981 -0.190
85.7284 -0.195
85.7587 -0.043
85.7889 -0.048
85.8192 0.365
85.8495 -0.212
85.8798 0.097
85.9101 0.146
85.9403 0.351
85.9706 -0.017
86.0009 -0.124
86.0312 -0.178
86.0614 -0.285
86.0917 0.231
86.1220 -0.138
86.1523 0.170
86.1826 -0.094
86.2128 0.058
86.2431 0.002
86.2734 -0.001
86.3037 -0.004
86.3340 -0.163
86.3642 0.042
86.3945 -0.481
86.4248 0.089
86.4551 0.191
86.4853 0.189
86.5156 0.709
86.5459 0.082
86.5762 0.133
86.6065 -0.024
86.6367 0.131
86.6670 0.130
86.6973 0.443
86.7276 -0.131
86.7579 -0.183
86.7881 -0.182
86.8184 0.287
86.8487 -0.025
86.8790 -0.024
86.9092 0.185
86.9395 0.031
86.9698 -0.124
87.0001 -0.122
87.0304 -0.068
87.0606 0.142
87.0909 0.145
87.1212 0.043
87.1515 -0.058
87.1818 -0.003
87.2120 0.000
87.2423 0.004
87.2726 -0.097
87.3029 0.011
87.3331 -0.141
87.3634 0.645
87.3937 -0.392
87.4240 0.133
87.4543 0.243
87.4845 -0.221
87.5148 -0.220
87.5451 -0.219
87.5754 0.199
87.6057 -0.216
87.6359 0.151
87.6662 -0.316
87.6965 -0.053
87.7268 -0.207
87.7571 -0.100
87.7873 -0.045
87.8176 0.479
87.8479 -0.299
87.8782 0.121
87.9084 0.490
87.9387 0.077
87.9690 -0.127
87.9993 0.294
88.0296 0.455
88.0598 0.095
88.0901 0.100
88.1204 -0.311
88.1507 -0.063
88.1810 0.133
88.2112 0.069
88.2415 0.266
88.2718 0.254
88.3021 -0.434
88.3323 0.232
88.3626 0.013
88.3929 0.471
88.4232 0.304
88.4535 0.502
88.4837 0.180
88.5140 0.431
88.5443 0.265
88.5746 0.464
88.6049 0.455
88.6351 0.133
88.6654 -0.188
88.6957 0.376
88.7260 0.368
88.7562 0.048
88.7865 0.092
88.8168 0.657
88.8471 0.285
88.8774 0.538
88.9076 0.636
88.9379 0.785
88.9682 0.622
88.9985 0.824
89.0288 0.610
89.0590 0.396
89.0893 0.859
89.1196 0.593
89.1499 0.796
89.1801 1.208
89.2104 0.838
89.2407 1.042
89.2710 0.777
89.3013 0.981
89.3315 1.707
89.3618 0.713
89.3921 0.345
89.4224 1.956
89.4527 1.328
89.4829 1.638
89.5132 1.271
89.5435 1.893
89.5738 1.162
89.6040 1.525
89.6343 1.679
89.6646 1.573
89.6949 1.832
89.7252 1.102
89.7554 1.101
89.7857 1.101
89.8160 0.683
89.8463 0.735
89.8766 0.371
89.9068 1.100
89.9371 0.996
89.9674 0.736
89.9977 0.737
90.0279 0.790
90.0582 0.375
90.0885 0.741
90.1188 0.066
90.1491 0.797
90.1793 0.226
90.2096 0.697
90.2399 0.283
90.2702 -0.027
90.3005 0.705
90.3307 0.135
90.3610 -0.174
90.3913 0.403
90.4216 -0.218
90.4518 -0.110
90.4821 -0.314
90.5124 0.472
90.5427 0.372
90.5730 -0.196
90.6032 0.122
90.6335 -0.237
90.6638 0.029
90.6941 -0.174
90.7244 0.561
90.7546 -0.110
90.7849 0.001
90.8152 0.008
90.8455 -0.194
90.8758 -0.239
90.9060 0.231
90.9363 0.129
90.9666 -0.234
90.9969 -0.128
91.0271 0.552
91.0574 -0.227
91.0877 0.349
91.1180 0.456
91.1483 0.511
91.1785 -0.111
91.2088 0.153
91.2391 -0.416
91.2694 0.109
91.2997 -0.043
91.3299 -0.143
91.3602 0.122
91.3905 0.283
91.4208 0.392
91.4510 -0.071
91.4813 -0.065
91.5116 -0.164
91.5419 -0.002
91.5722 0.369
91.6024 0.532
91.6327 0.434
91.6630 -0.028
91.6933 0.031
91.7236 -0.118
91.7538 -0.058
91.7841 -0.259
91.8144 0.096
91.8447 -0.121
91.8749 0.339
91.9052 0.174
91.9355 0.218
91.9658 -0.155
91.9961 0.202
92.0263 0.246
92.0566 0.187
92.0869 0.180
92.1172 0.381
92.1475 -0.095
92.1777 0.003
92.2080 0.465
92.2383 -0.114
92.2686 0.245
92.2988 0.239
92.3291 0.181
92.3594 0.488
92.3897 0.015
92.4200 0.843
92.4502 0.578
92.4805 0.313
92.5108 0.153
92.5411 0.930
92.5714 0.822
92.6016 0.141
92.6319 0.450
92.6622 0.030
92.6925 0.392
92.7227 0.337
92.7530 0.283
92.7833 -0.240
92.8136 0.018
92.8439 0.485
92.8741 0.639
92.9044 0.325
92.9347 0.949
92.9650 -0.093
92.9953 0.583
93.0255 0.009
93.0558 0.009
93.0861 0.842
93.1164 -0.304
93.1466 0.218
93.1769 0.062
93.2072 -0.146
93.2375 0.324
93.2678 -0.144
93.2980 -0.403
93.3283 0.328
93.3586 0.330
93.3889 0.332
93.4192 0.074
93.4494 0.024
93.4797 -0.181
93.5100 -0.074
93.5403 -0.175
93.5706 0.453
93.6008 -0.064
93.6311 -0.425
93.6614 0.620
93.6917 -0.209
93.7219 -0.152
93.7522 0.582
93.7825 0.274
93.8128 -0.138
93.8431 0.388
93.8733 0.602
93.9036 0.243
93.9339 0.458
93.9642 -0.005
93.9945 -0.259
94.0247 0.043
94.0550 0.136
94.0853 0.073
94.1156 -0.093
94.1458 0.730
94.1761 -0.113
94.2064 0.241
94.2367 -0.133
94.2670 0.066
94.2972 0.162
94.3275 -0.160
94.3578 0.248
94.3881 0.032
94.4184 -0.185
94.4486 0.328
94.4789 0.216
94.5092 0.573
94.5395 0.566
94.5697 0.298
94.6000 0.031
94.6303 0.441
94.6606 0.330
94.6909 0.376
94.7211 0.214
94.7514 0.208
94.7817 0.046
94.8120 0.145
94.8423 0.921
94.8725 0.708
94.9028 0.963
94.9331 0.699
94.9634 0.694
94.9936 1.211
95.0239 1.155
95.0542 1.620
95.0845 1.252
95.1148 1.770
95.1450 1.090
95.1753 1.191
95.2056 1.553
95.2359 1.394
95.2662 1.132
95.2964 1.390
95.3267 1.493
95.3570 1.231
95.3873 0.709
95.4175 1.020
95.4478 1.280
95.4781 0.654
95.5084 0.810
95.5387 0.810
95.5689 0.550
95.5992 0.810
95.6295 0.446
95.6598 0.186
95.6901 -0.021
95.7203 0.293
95.7506 0.971
95.7809 0.608
95.8112 0.558
95.8414 0.351
95.8717 0.510
95.9020 0.721
95.9323 0.306
95.9626 0.361
95.9928 -0.208
96.0231 -0.049
96.0534 0.111
96.0837 -0.042
96.1140 0.483
96.1442 0.383
96.1745 -0.081
96.2048 -0.389
96.2351 0.136
96.2653 -0.276
96.2956 -0.011
96.3259 0.151
96.3562 0.104
96.3865 -0.255
96.4167 -0.252
96.4470 -0.197
96.4773 0.120
96.5076 0.019
96.5379 -0.081
96.5681 -0.233
96.5984 -0.176
96.6287 -0.328
96.6590 0.406
96.6893 0.255
96.7195 0.000
96.7498 0.370
96.7801 0.376
96.8104 -0.243
96.8406 0.440
96.8709 0.134
96.9012 0.036
96.9315 0.095
96.9618 -0.158
96.9920 0.370
97.0223 -0.352
97.0526 -0.188
97.0829 0.133
97.1132 0.401
97.1434 -0.163
97.1737 -0.311
97.2040 0.214
97.2343 -0.093
97.2645 -0.140
97.2948 -0.239
97.3251 -0.185
97.3554 0.494
97.3857 0.287
97.4159 0.393
97.4462 -0.229
97.4765 -0.070
97.5068 0.141
97.5371 0.144
97.5673 -0.009
97.5976 -0.058
97.6279 -0.054
97.6582 -0.311
97.6884 0.105
97.7187 0.261
97.7490 -0.208
97.7793 0.521
97.8096 0.157
97.8398 -0.624
97.8701 -0.109
97.9004 0.457
97.9307 0.087
97.9610 -0.179
97.9912 0.284
98.0215 0.591
98.0518 0.429
98.0821 -0.149
98.1123 0.003
98.1426 0.103
98.1729 0.775
98.2032 0.198
98.2335 -0.170
98.2637 1.024
98.2940 0.708
98.3243 0.705
98.3546 0.285
98.3849 0.803
98.4151 0.280
98.4454 0.225
98.4757 0.796
98.5060 0.846
98.5362 1.365
98.5665 0.322
98.5968 0.529
98.6271 0.841
98.6574 0.423
98.6876 1.099
98.7179 0.109
98.7482 0.578
98.7785 0.682
98.8088 0.630
98.8390 0.891
98.8693 0.892
98.8996 0.476
98.9299 0.112
98.9601 0.582
98.9904 -0.093
99.0207 0.117
99.0510 0.223
99.0813 0.486
99.1115 -0.085
99.1418 -0.134
99.1721 -0.079
99.2024 0.132
99.2327 0.448
99.2629 -0.174
99.2932 0.351
99.3235 0.094
99.3538 0.046
99.3841 -0.002
99.4143 0.055
99.4446 0.424
99.4749 -0.092
99.5052 0.018
99.5354 -0.029
99.5657 -0.336
99.5960 0.139
99.6263 -0.115
99.6566 0.151
99.6868 -0.415
99.7171 -0.099
99.7474 0.477
99.7777 0.012
99.8080 -0.088
99.8382 0.073
99.8685 0.077
99.8988 0.134
99.9291 -0.173
99.9593 -0.012
99.9896 0.514
100.0199 -0.001
100.0502 0.161
100.0805 0.063
100.1107 -0.035
100.1410 0.232
100.1713 0.395
100.2016 0.037
100.2319 0.201
100.2621 -0.053
100.2924 -0.045
100.3227 0.171
100.3530 0.179
100.3832 0.135
100.4135 -0.221
100.4438 -0.120
100.4741 -0.071
100.5044 0.082
100.5346 -0.233
100.5649 -0.027
100.5952 0.023
100.6255 0.073
100.6558 -0.189
100.6860 -0.138
100.7163 0.017
100.7466 0.224
100.7769 0.431
100.8071 0.066
100.8374 -0.195
100.8677 0.013
100.8980 0.326
100.9283 0.118
100.9585 0.118
100.9888 0.483
101.0191 0.172
101.0494 0.069
101.0797 0.122
101.1099 0.228
101.1402 -0.187
101.1705 0.232
101.2008 0.130
101.2310 0.028
101.2613 -0.022
101.2916 -0.279
101.3219 0.088
101.3522 -0.221
101.3824 -0.127
101.4127 0.489
101.4430 -0.094
101.4733 0.209
101.5036 0.409
101.5338 -0.121
101.5641 0.547
101.5944 -0.138
101.6247 0.114
101.6549 0.940
101.6852 0.463
101.7155 -0.482
101.7458 -0.073
101.7761 0.077
101.8063 0.278
101.8366 0.115
101.8669 0.057
101.8972 0.311
101.9275 -0.216
101.9577 0.351
101.9880 -0.123
102.0183 -0.285
102.0486 0.171
102.0788 0.003
102.1091 0.304
102.1394 0.501
102.1697 -0.136
102.2000 0.322
102.2302 -0.054
102.2605 0.092
102.2908 0.186
102.3211 -0.137
102.3514 0.061
102.3816 -0.105
102.4119 0.458
102.4422 0.032
102.4725 -0.133
102.5028 -0.142
102.5330 0.370
102.5633 -0.055
102.5936 0.353
102.6239 0.397
102.6541 0.337
102.6844 -0.191
102.7147 -0.043
102.7450 -0.154
102.7753 0.203
102.8055 0.249
102.8358 0.294
102.8661 0.861
102.8964 0.125
102.9267 0.224
102.9569 0.478
102.9872 0.421
103.0175 0.884
103.0478 0.254
103.0780 0.614
103.1083 0.088
103.1386 0.084
103.1689 0.548
103.1992 -0.081
103.2294 0.489
103.2597 0.277
103.2900 0.117
103.3203 0.322
103.3506 0.163
103.3808 0.889
103.4111 0.679
103.4414 0.937
103.4717 0.466
103.5019 0.725
103.5322 0.619
103.5625 0.253
103.5928 0.356
103.6231 0.251
103.6533 0.250
103.6836 0.093
103.7139 0.249
103.7442 0.249
103.7745 1.343
103.8047 0.458
103.8350 0.667
103.8653 0.199
103.8956 0.772
103.9258 0.461
103.9561 1.556
103.9864 1.297
104.0167 0.674
104.0470 0.260
104.0772 0.783
104.1075 1.202
104.1378 1.153
104.1681 0.895
104.1984 0.534
104.2286 0.381
104.2589 0.384
104.2892 0.388
104.3195 0.705
104.3497 0.605
104.3800 0.713
104.4103 0.614
104.4406 0.879
104.4709 0.520
104.5011 0.681
104.5314 0.478
104.5617 0.119
104.5920 0.282
104.6223 0.027
104.6525 0.346
104.6828 -0.064
104.7131 -0.161
104.7434 0.158
104.7736 0.634
104.8039 0.121
104.8342 0.233
104.8645 0.032
104.8948 0.613
104.9250 0.101
104.9553 -0.255
104.9856 -0.089
105.0159 0.077
105.0462 0.035
105.0764 -0.007
105.1067 -0.205
105.1370 0.482
105.1673 0.493
105.1975 0.140
105.2278 0.151
105.2581 -0.410
105.2884 0.174
105.3187 0.551
105.3489 0.250
105.3792 0.106
105.4095 -0.037
105.4398 0.184
105.4701 -0.116
105.5003 0.314
105.5306 -0.141
105.5609 0.133
105.5912 0.355
105.6215 0.421
105.6517 -0.189
105.6820 -0.227
105.7123 0.196
105.7426 -0.214
105.7728 -0.415
105.8031 0.264
105.8334 0.058
105.8637 0.008
105.8940 -0.093
105.9242 0.848
105.9545 0.434
105.9848 0.229
106.0151 0.024
106.0454 0.237
106.0756 0.136
106.1059 0.089
106.1362 0.249
106.1665 0.202
106.1967 0.311
106.2270 0.472
106.2573 0.009
106.2876 0.483
106.3179 -0.240
106.3481 -0.078
106.3784 0.606
106.4087 -0.534
106.4390 -0.215
106.4693 0.092
106.4995 0.138
106.5298 0.029
106.5601 0.232
106.5904 0.123
106.6206 0.066
106.6509 -0.147
106.6812 0.474
106.7115 0.157
106.7418 0.101
106.7720 0.045
106.8023 0.146
106.8326 0.299
106.8629 -0.121
106.8932 0.033
106.9234 0.343
106.9537 0.080
106.9840 0.286
107.0143 0.232
107.0445 0.335
107.0748 0.281
107.1051 0.488
107.1354 -0.190
107.1657 0.538
107.1959 0.433
107.2262 0.902
107.2565 -0.036
107.2868 -0.088
107.3171 -0.088
107.3473 0.069
107.3776 0.642
107.4079 0.279
107.4382 -0.033
107.4684 0.229
107.4987 0.335
107.5290 -0.132
107.5593 -0.183
107.5896 -0.076
107.6198 -0.126
107.6501 -0.071
107.6804 0.244
107.7107 0.507
107.7410 -0.166
107.7712 -0.059
107.8015 -0.003
107.8318 -0.260
107.8621 0.474
107.8923 0.322
107.9226 -0.090
107.9529 0.435
107.9832 0.649
108.0135 -0.127
108.0437 0.295
108.0740 0.196
108.1043 -0.215
108.1346 -0.215
108.1649 -0.215
108.1951 0.249
108.2254 0.400
108.2557 0.083
108.2860 0.027
108.3163 0.387
108.3465 0.175
108.3768 0.119
108.4071 -0.093
108.4374 0.425
108.4676 0.266
108.4979 0.419
108.5282 -0.156
108.5585 -0.107
108.5888 0.151
108.6190 0.254
108.6493 -0.165
108.6796 0.406
108.7099 -0.064
108.7402 -0.221
108.7704 0.028
108.8007 0.278
108.8310 -0.150
108.8613 0.152
108.8915 0.298
108.9218 0.444
108.9521 0.434
108.9824 0.268
109.0127 0.154
109.0429 0.145
109.0732 -0.020
109.1035 0.387
109.1338 0.066
109.1641 0.162
109.1943 -0.159
109.2246 -0.115
109.2549 -0.435
109.2852 0.651
109.3154 0.383
109.3457 0.064
109.3760 0.369
109.4063 0.310
109.4366 0.200
109.4668 0.714
109.4971 0.344
109.5274 0.234
109.5577 -0.084
109.5880 -0.298
109.6182 0.530
109.6485 -0.100
109.6788 -0.001
109.7091 0.203
109.7393 -0.010
109.7696 -0.014
109.7999 0.451
109.8302 0.031
109.8605 -0.025
109.8907 -0.028
109.9210 0.490
109.9513 -0.138
109.9816 0.901
110.0119 0.794
110.0421 -0.041
110.0724 0.165
110.1027 0.059
110.1330 0.370
110.1632 0.682
110.1935 0.056
110.2238 0.367
110.2541 0.106
110.2844 0.991
110.3146 0.157
110.3449 0.730
110.3752 0.470
110.4055 0.575
110.4358 0.367
110.4660 -0.361
110.4963 0.681
110.5266 0.266
110.5569 0.476
110.5871 0.165
110.6174 -0.250
110.6477 0.430
110.6780 0.380
110.7083 0.539
110.7385 0.125
110.7688 0.180
110.7991 0.235
110.8294 0.395
110.8597 0.138
110.8899 0.142
110.9202 -0.270
110.9505 0.619
110.9808 -0.209
111.0110 0.212
111.0413 -0.096
111.0716 0.326
111.1019 0.071
111.1322 0.285
111.1624 -0.074
111.1927 0.453
111.2230 -0.061
111.2533 0.622
111.2836 -0.517
111.3138 -0.041
111.3441 0.018
111.3744 0.182
111.4047 -0.280
111.4350 0.301
111.4652 0.153
111.4955 0.005
111.5258 0.170
111.5561 0.491
111.5863 0.395
111.6166 0.665
111.6469 -0.263
111.6772 0.059
111.7075 0.329
111.7377 0.130
111.7680 0.401
111.7983 -0.005
111.8286 -0.151
111.8589 -0.088
111.8891 -0.129
111.9194 -0.066
111.9497 0.206
111.9800 -0.147
112.0102 0.021
112.0405 -0.019
112.0708 -0.215
112.1011 0.060
112.1314 0.282
112.1616 0.192
112.1919 0.259
112.2222 0.117
112.2525 0.393
112.2828 -0.009
112.3130 -0.202
112.3433 0.000
112.3736 -0.163
112.4039 0.038
112.4341 0.449
112.4644 0.495
112.4947 0.020
112.5250 0.014
112.5553 0.425
112.5855 0.212
112.6158 0.259
112.6461 -0.163
112.6764 -0.011
112.7067 0.193
112.7369 0.241
112.7672 0.289
112.7975 0.024
112.8278 0.073
112.8580 0.070
112.8883 -0.038
112.9186 0.168
112.9489 0.113
112.9792 -0.046
113.0094 -0.048
113.0397 0.210
113.0700 0.000
113.1003 0.103
113.1306 -0.055
113.1608 0.152
113.1911 0.256
113.2214 0.203
113.2517 -0.162
113.2819 0.306
113.3122 -0.163
113.3425 -0.215
113.3728 -0.121
113.4031 -0.079
113.4333 0.015
113.4636 -0.203
113.4939 0.100
113.5242 0.507
113.5545 0.133
113.5847 -0.136
113.6150 0.115
113.6453 0.003
113.6756 -0.058
113.7058 0.663
113.7361 0.343
113.7664 -0.550
113.7967 -0.037
113.8270 -0.096
113.8572 0.053
113.8875 -0.110
113.9178 0.300
113.9481 -0.227
113.9784 -0.233
114.0086 -0.086
114.0389 0.739
114.0692 0.158
114.0995 0.201
114.1298 0.558
114.1600 0.134
114.1903 -0.239
114.2206 -0.199
114.2509 0.310
114.2811 -0.222
114.3114 -0.077
114.3417 -0.089
114.3720 0.004
114.4023 -0.111
114.4325 0.348
114.4628 -0.288
114.4931 0.171
114.5234 0.057
114.5537 -0.213
114.5839 -0.223
114.6142 0.601
114.6445 0.123
114.6748 -0.042
114.7050 -0.050
114.7353 -0.371
114.7656 0.141
114.7959 -0.440
114.8262 0.125
114.8564 -0.090
114.8867 0.006
114.9170 -0.417
114.9473 0.096
114.9776 -0.014
115.0078 -0.542
115.0381 0.233
115.0684 0.279
115.0987 -0.508
115.1289 0.007
115.1592 0.002
115.1895 -0.264
115.2198 0.096
115.2501 0.300
115.2803 -0.174
115.3106 -0.230
115.3409 0.183
115.3712 0.127
115.4015 0.227
115.4317 0.588
115.4620 0.741
115.4923 0.113
115.5226 -0.046
115.5528 -0.153
115.5831 -0.363
115.6134 0.208
115.6437 0.310
115.6740 0.204
115.7042 0.411
115.7345 0.775
115.7648 0.045
115.7951 0.669
115.8254 0.616
115.8556 0.825
115.8859 0.564
115.9162 0.929
115.9465 0.565
115.9767 0.982
116.0070 0.983
116.0373 0.880
116.0676 0.725
116.0979 0.674
116.1281 0.467
116.1584 0.938
116.1887 1.044
116.2190 1.203
116.2493 0.528
116.2795 0.844
116.3098 1.732
116.3401 1.058
116.3704 1.478
116.4006 0.284
116.4309 0.496
116.4612 1.125
116.4915 0.609
116.5218 1.082
116.5520 1.295
116.5823 1.040
116.6126 0.680
116.6429 1.415
116.6732 0.951
116.7034 0.749
116.7337 0.338
116.7640 0.449
116.7943 0.663
116.8245 1.035
116.8548 0.937
116.8851 0.320
116.9154 1.212
116.9457 0.439
116.9759 0.707
117.0062 0.194
117.0365 0.515
117.0668 0.210
117.0971 -0.302
117.1273 0.228
117.1576 0.445
117.1879 0.142
117.2182 0.360
117.2485 0.682
117.2787 0.223
117.3090 0.806
117.3393 0.296
117.3696 0.254
117.3998 0.213
117.4301 0.536
117.4604 0.443
117.4907 0.299
117.5210 0.258
117.5512 0.010
117.5815 -0.239
117.6118 -0.293
117.6421 0.642
117.6724 -0.142
117.7026 -0.092
117.7329 0.115
117.7632 -0.043
117.7935 0.008
117.8237 0.319
117.8540 0.370
117.8843 0.890
117.9146 -0.152
117.9449 -0.465
117.9751 0.316
118.0054 -0.361
118.0357 -0.100
118.0660 0.005
118.0963 0.318
118.1265 -0.098
118.1568 0.581
118.1871 0.009
118.2174 -0.093
118.2476 -0.196
118.2779 0.067
118.3082 -0.087
118.3385 0.020
118.3688 -0.030
118.3990 0.077
118.4293 -0.024
118.4596 0.501
118.4899 -0.069
118.5202 -0.169
118.5504 0.148
118.5807 -0.004
118.6110 -0.313
118.6413 0.525
118.6715 -0.303
118.7018 0.431
118.7321 0.541
118.7624 0.026
118.7927 0.031
118.8229 0.402
118.8532 0.043
118.8835 -0.158
118.9138 0.213
118.9441 0.063
118.9743 -0.138
119.0046 0.026
119.0349 -0.227
119.0652 0.145
119.0954 -0.212
119.1257 -0.152
119.1560 -0.299
119.1863 0.230
119.2166 0.083
119.2468 -0.221
119.2771 -0.177
119.3074 0.128
119.3377 0.173
119.3680 0.374
119.3982 -0.154
119.4285 0.204
119.4588 0.145
119.4891 -0.017
119.5193 0.081
119.5496 -0.550
119.5799 0.017
119.6102 0.011
119.6405 0.058
119.6707 0.209
119.7010 0.257
119.7313 0.304
119.7616 0.612
119.7919 -0.277
119.8221 -0.021
119.8524 -0.233
119.8827 -0.062
119.9130 0.005
119.9433 0.333
119.9735 -0.016
120.0038 0.000
