'Id: "" Comment: "" Operator: "Lab Manager" Anode: "Cu" Scantype: "Locked Coupled" TimePerStep: "19.2" X: "9999" Y: "9999" Z: "9999" 
10.0015 0.000
10.0318 -0.618
10.0620 0.265
10.0923 0.940
10.1226 -0.103
10.1529 -1.302
10.1832 0.115
10.2134 -0.083
10.2437 1.334
10.2740 0.095
10.3043 0.471
10.3346 -0.558
10.3648 -0.807
10.3951 0.513
10.4254 0.582
10.4557 -1.327
10.4859 0.358
10.5162 0.481
10.5465 1.177
10.5768 -0.106
10.6071 1.320
10.6373 0.611
10.6676 0.110
10.6979 1.172
10.7282 1.558
10.7585 0.850
10.7887 0.090
10.8190 0.841
10.8493 -0.387
10.8796 -0.313
10.9098 0.491
10.9401 -0.371
10.9704 0.017
11.0007 1.030
11.0310 0.533
11.0612 0.818
11.0915 0.426
11.1218 2.117
11.1521 0.632
11.1824 2.116
11.2126 1.829
11.2429 1.334
11.2732 1.986
11.3035 3.471
11.3337 2.561
11.3640 4.411
11.3943 5.949
11.4246 6.915
11.4549 5.641
11.4851 8.951
11.5154 14.396
11.5457 12.915
11.5760 15.341
11.6063 19.694
11.6365 19.411
11.6668 24.390
11.6971 31.035
11.7274 39.348
11.7577 45.108
11.7879 49.099
11.8182 50.797
11.8485 51.194
11.8788 48.154
11.9090 35.323
11.9393 25.773
11.9696 19.609
11.9999 14.278
12.0302 10.823
12.0604 9.920
12.0907 8.809
12.1210 7.698
12.1513 9.140
12.1816 7.926
12.2118 9.577
12.2421 7.009
12.2724 3.817
12.3027 3.073
12.3329 2.433
12.3632 2.679
12.3935 1.624
12.4238 2.131
12.4541 0.764
12.4843 0.542
12.5146 0.529
12.5449 -0.004
12.5752 0.297
12.6055 0.545
12.6357 0.898
12.6660 0.418
12.6963 1.501
12.7266 1.387
12.7568 0.960
12.7871 0.950
12.8174 1.409
12.8477 0.514
12.8780 -0.640
12.9082 0.497
12.9385 -0.397
12.9688 0.272
12.9991 0.525
13.0294 -0.420
13.0596 -0.524
13.0899 0.675
13.1202 0.155
13.1505 0.104
13.1807 -0.103
13.2110 0.732
13.2413 0.942
13.2716 -0.149
13.3019 0.062
13.3321 -0.352
13.3624 0.016
13.3927 -0.032
13.4230 0.857
13.4533 0.705
13.4835 0.241
13.5138 -0.066
13.5441 0.304
13.5744 0.361
13.6046 0.003
13.6349 -0.304
13.6652 -0.141
13.6955 -0.395
13.7258 0.081
13.7560 0.089
13.7863 0.617
13.8166 -0.104
13.8469 0.113
13.8772 0.538
13.9074 -0.130
13.9377 0.453
13.9680 -0.163
13.9983 -0.205
14.0285 0.274
14.0588 1.066
14.0891 -0.850
14.1194 -0.318
14.1497 0.839
14.1799 -0.034
14.2102 0.655
14.2405 0.511
14.2708 0.264
14.3011 -0.296
14.3313 -0.231
14.3616 -0.113
14.3919 -0.151
14.4222 0.436
14.4524 0.034
14.4827 -0.263
14.5130 0.065
14.5433 0.080
14.5736 0.721
14.6038 -0.825
14.6341 -0.235
14.6644 0.459
14.6947 0.424
14.7250 0.441
14.7552 -0.166
14.7855 -0.148
14.8158 -0.442
14.8461 0.185
14.8764 1.073
14.9066 0.242
14.9369 -0.067
14.9672 0.613
14.9975 0.513
15.0277 -0.108
15.0580 0.365
15.0883 0.474
15.1186 0.114
15.1489 0.119
15.1791 0.385
15.2094 -0.651
15.2397 0.449
15.2700 -0.013
15.3003 0.306
15.3305 -1.093
15.3608 -0.275
15.3911 0.127
15.4214 0.009
15.4516 -0.161
15.4819 0.242
15.5122 0.072
15.5425 0.892
15.5728 0.098
15.6030 0.033
15.6333 0.646
15.6636 0.687
15.6939 -0.262
15.7242 0.820
15.7544 1.174
15.7847 -0.191
15.8150 0.476
15.8453 -0.159
15.8755 -0.065
15.9058 0.707
15.9361 0.177
15.9664 0.325
15.9967 0.056
16.0269 1.298
16.0572 0.405
16.0875 -0.800
16.1178 0.182
16.1481 0.227
16.1783 0.221
16.2086 -0.098
16.2389 0.313
16.2692 0.828
16.2994 1.187
16.3297 -0.015
16.3600 0.240
16.3903 0.080
16.4206 -0.237
16.4508 -0.292
16.4811 0.485
16.5114 -0.038
16.5417 -0.354
16.5720 0.686
16.6022 0.059
16.6325 -0.412
16.6628 0.107
16.6931 -0.675
16.7233 0.835
16.7536 0.313
16.7839 -0.625
16.8142 0.417
16.8445 0.001
16.8747 0.731
16.9050 1.409
16.9353 2.817
16.9656 2.402
16.9959 3.133
17.0261 3.500
17.0564 3.450
17.0867 3.766
17.1170 3.248
17.1472 2.314
17.1775 2.683
17.2078 1.541
17.2381 0.920
17.2684 0.613
17.2986 -0.059
17.3289 0.155
17.3592 0.369
17.3895 0.010
17.4198 -0.400
17.4500 -0.089
17.4803 0.119
17.5106 0.015
17.5409 0.535
17.5712 0.119
17.6014 0.067
17.6317 0.902
17.6620 0.799
17.6923 0.123
17.7225 0.229
17.7528 0.387
17.7831 0.129
17.8134 0.340
17.8437 1.594
17.8739 0.451
17.9042 0.455
17.9345 0.719
17.9648 -0.006
17.9951 0.728
18.0253 0.108
18.0556 0.270
18.0859 0.379
18.1162 0.802
18.1464 -0.494
18.1767 0.294
18.2070 -0.324
18.2373 0.516
18.2676 -0.153
18.2978 0.740
18.3281 0.696
18.3584 0.236
18.3887 0.192
18.4190 0.045
18.4492 -0.154
18.4795 -0.405
18.5098 0.907
18.5401 0.084
18.5703 0.355
18.6006 0.158
18.6309 0.065
18.6612 0.650
18.6915 1.443
18.7217 0.986
18.7520 0.582
18.7823 1.376
18.8126 1.337
18.8429 0.778
18.8731 0.687
18.9034 0.389
18.9337 1.080
18.9640 0.470
18.9942 0.173
19.0245 -0.125
19.0548 -0.578
19.0851 0.688
19.1154 -0.025
19.1456 0.253
19.1759 0.478
19.2062 0.026
19.2365 0.617
19.2668 0.947
19.2970 0.444
19.3273 0.359
19.3576 -0.143
19.3879 -0.228
19.4181 0.208
19.4484 0.436
19.4787 -0.065
19.5090 -0.357
19.5393 -0.084
19.5695 0.763
19.5998 0.100
19.6301 -0.251
19.6604 -0.393
19.6907 0.351
19.7209 0.261
19.7512 0.433
19.7815 0.084
19.8118 -0.005
19.8420 0.116
19.8723 0.184
19.9026 0.305
19.9329 -0.251
19.9632 -0.442
19.9934 0.284
20.0237 -0.239
20.0540 0.227
20.0843 0.590
20.1146 -0.193
20.1448 1.316
20.1751 -0.404
20.2054 0.845
20.2357 0.584
20.2659 0.167
20.2962 -0.041
20.3265 0.063
20.3568 0.637
20.3871 0.117
20.4173 0.327
20.4476 -0.505
20.4779 1.216
20.5082 0.854
20.5385 0.075
20.5687 1.068
20.5990 0.394
20.6293 0.397
20.6596 -0.120
20.6899 -0.063
20.7201 0.254
20.7504 0.779
20.7807 0.368
20.8110 0.061
20.8412 0.952
20.8715 0.333
20.9018 -0.338
20.9321 -0.338
20.9624 0.328
20.9926 1.046
21.0229 0.932
21.0532 0.557
21.0835 1.953
21.1138 2.152
21.1440 2.350
21.1743 3.800
21.2046 3.166
21.2349 5.241
21.2651 5.389
21.2954 4.548
21.3257 3.915
21.3560 2.658
21.3863 1.974
21.4165 1.134
21.4468 1.232
21.4771 1.434
21.5074 0.439
21.5377 2.048
21.5679 1.210
21.5982 0.737
21.6285 0.941
21.6588 0.572
21.6890 -0.109
21.7193 1.086
21.7496 0.405
21.7799 -0.014
21.8102 0.088
21.8404 0.398
21.8707 0.084
21.9010 0.707
21.9313 0.133
21.9616 0.445
21.9918 -0.025
22.0221 -0.442
22.0524 0.076
22.0827 0.698
22.1129 0.279
22.1432 0.225
22.1735 0.588
22.2038 0.378
22.2341 0.533
22.2643 0.480
22.2946 -0.041
22.3249 -0.302
22.3552 -0.250
22.3855 -0.353
22.4157 -0.052
22.4460 -0.063
22.4763 -0.074
22.5066 -0.032
22.5368 0.062
22.5671 0.417
22.5974 -0.166
22.6277 0.294
22.6580 0.181
22.6882 1.006
22.7185 0.321
22.7488 0.313
22.7791 -0.372
22.8094 0.558
22.8396 0.499
22.8699 -0.028
22.9002 0.174
22.9305 0.272
22.9607 0.318
22.9910 -0.104
23.0213 -0.057
23.0516 -0.478
23.0819 0.195
23.1121 0.138
23.1424 -0.126
23.1727 -0.442
23.2030 0.154
23.2333 -0.187
23.2635 0.566
23.2938 0.226
23.3241 0.199
23.3544 0.848
23.3846 0.665
23.4149 0.378
23.4452 0.039
23.4755 0.274
23.5058 0.665
23.5360 1.629
23.5663 0.875
23.5966 0.173
23.6269 0.982
23.6572 2.312
23.6874 1.611
23.7177 1.119
23.7480 2.294
23.7783 4.354
23.8086 4.905
23.8388 3.320
23.8691 4.861
23.8994 5.672
23.9297 4.453
23.9599 4.484
23.9902 3.318
24.0205 2.881
24.0508 2.496
24.0811 2.268
24.1113 1.363
24.1416 1.084
24.1719 1.482
24.2022 1.255
24.2325 1.289
24.2627 1.427
24.2930 3.129
24.3233 3.789
24.3536 4.501
24.3838 5.891
24.4141 6.760
24.4444 6.744
24.4747 5.530
24.5050 6.921
24.5352 5.396
24.5655 3.402
24.5958 2.711
24.6261 1.290
24.6564 2.475
24.6866 1.732
24.7169 0.938
24.7472 0.925
24.7775 0.392
24.8077 1.161
24.8380 0.993
24.8683 1.554
24.8986 0.293
24.9289 -0.447
24.9591 0.219
24.9894 -1.093
25.0197 -0.166
25.0500 -0.385
25.0803 0.230
25.1105 -0.145
25.1408 -0.415
25.1711 0.149
25.2014 0.296
25.2316 -0.129
25.2619 0.644
25.2922 0.428
25.3225 0.003
25.3528 -0.837
25.3830 0.145
25.4133 -0.174
25.4436 -0.128
25.4739 0.230
25.5042 -0.973
25.5344 0.167
25.5647 -0.046
25.5950 1.043
25.6253 -0.629
25.6555 0.513
25.6858 0.353
25.7161 -0.588
25.7464 -0.279
25.7767 0.551
25.8069 0.080
25.8372 0.078
25.8675 0.336
25.8978 -0.238
25.9281 -0.448
25.9583 -0.296
25.9886 0.795
26.0189 -0.510
26.0492 0.528
26.0794 0.422
26.1097 0.628
26.1400 -0.259
26.1703 0.677
26.2006 0.623
26.2308 0.466
26.2611 0.986
26.2914 0.621
26.3217 0.673
26.3520 1.768
26.3822 1.299
26.4125 1.613
26.4428 1.822
26.4731 1.459
26.5034 1.409
26.5336 0.787
26.5639 1.518
26.5942 0.688
26.6245 2.045
26.6547 2.153
26.6850 3.250
26.7153 2.525
26.7456 3.571
26.7759 5.139
26.8061 5.404
26.8364 8.638
26.8667 9.738
26.8970 10.629
26.9273 11.834
26.9575 11.528
26.9878 11.222
27.0181 10.084
27.0484 8.008
27.0786 7.443
27.1089 4.743
27.1392 3.293
27.1695 3.093
27.1998 2.686
27.2300 1.706
27.2603 2.340
27.2906 1.778
27.3209 1.111
27.3512 1.694
27.3814 2.018
27.4117 1.873
27.4420 1.989
27.4723 1.324
27.5025 0.971
27.5328 2.026
27.5631 0.268
27.5934 -0.031
27.6237 0.868
27.6539 0.308
27.6842 0.739
27.7145 -0.288
27.7448 0.612
27.7751 -0.258
27.8053 0.122
27.8356 0.815
27.8659 0.206
27.8962 0.431
27.9264 1.176
27.9567 -0.213
27.9870 -0.352
28.0173 0.968
28.0476 0.257
28.0778 0.431
28.1081 -0.175
28.1384 -0.417
28.1687 -0.356
28.1990 0.695
28.2292 -0.545
28.2595 -0.015
28.2898 0.308
28.3201 -0.098
28.3503 -0.140
28.3806 0.809
28.4109 0.195
28.4412 0.572
28.4715 0.479
28.5017 0.075
28.5320 0.036
28.5623 0.049
28.5926 -0.407
28.6229 -0.304
28.6531 0.007
28.6834 0.006
28.7137 -0.151
28.7440 -0.464
28.7742 0.213
28.8045 0.630
28.8348 0.266
28.8651 0.735
28.8954 0.320
28.9256 0.373
28.9559 -0.406
28.9862 0.013
29.0165 -0.610
29.0468 0.382
29.0770 0.385
29.1073 0.024
29.1376 -0.337
29.1679 -0.072
29.1981 0.036
29.2284 0.666
29.2587 0.202
29.2890 0.155
29.3193 -0.673
29.3495 0.323
29.3798 -0.452
29.4101 0.127
29.4404 -0.231
29.4707 -0.275
29.5009 -0.060
29.5312 0.261
29.5615 0.060
29.5918 -0.400
29.6221 -0.141
29.6523 -0.194
29.6826 0.534
29.7129 0.117
29.7432 0.168
29.7734 0.273
29.8037 0.377
29.8340 0.847
29.8643 0.535
29.8946 0.484
29.9248 0.694
29.9551 -0.554
29.9854 -0.135
30.0157 0.180
30.0460 -0.754
30.0762 -0.143
30.1065 -0.209
30.1368 -0.170
30.1671 -0.392
30.1973 0.221
30.2276 0.208
30.2579 -0.325
30.2882 -0.441
30.3185 1.162
30.3487 0.370
30.3790 -0.526
30.4093 0.140
30.4396 0.339
30.4699 0.329
30.5001 -0.410
30.5304 -0.337
30.5607 -0.211
30.5910 -0.032
30.6212 -0.166
30.6515 0.742
30.6818 -1.006
30.7121 0.320
30.7424 0.708
30.7726 0.159
30.8029 0.704
30.8332 -0.053
30.8635 0.181
30.8938 -0.159
30.9240 1.221
30.9543 0.570
30.9846 -0.185
31.0149 1.039
31.0451 0.493
31.0754 0.572
31.1057 1.016
31.1360 1.148
31.1663 1.124
31.1965 1.621
31.2268 2.692
31.2571 2.096
31.2874 2.750
31.3177 2.780
31.3479 4.424
31.3782 3.569
31.4085 6.308
31.4388 7.068
31.4690 9.495
31.4993 9.527
31.5296 11.850
31.5599 15.320
31.5902 17.383
31.6204 14.343
31.6507 18.126
31.6810 15.764
31.7113 15.746
31.7416 12.707
31.7718 11.491
31.8021 9.599
31.8324 8.436
31.8627 7.117
31.8929 5.955
31.9232 5.418
31.9535 5.037
31.9838 3.563
32.0141 4.590
32.0443 3.898
32.0746 2.685
32.1049 4.181
32.1352 3.386
32.1655 5.300
32.1957 5.078
32.2260 4.127
32.2563 4.219
32.2866 5.040
32.3169 3.726
32.3471 3.037
32.3774 2.661
32.4077 3.691
32.4380 1.597
32.4682 2.576
32.4985 3.243
32.5288 1.983
32.5591 3.068
32.5894 3.735
32.6196 4.716
32.6499 5.124
32.6802 8.085
32.7105 11.722
32.7408 14.631
32.7710 19.989
32.8013 22.273
32.8316 18.100
32.8619 16.791
32.8921 12.046
32.9224 9.592
32.9527 6.097
32.9830 3.904
33.0133 2.858
33.0435 2.697
33.0738 3.005
33.1041 2.481
33.1344 2.529
33.1647 2.422
33.1949 1.742
33.2252 1.010
33.2555 0.383
33.2858 0.641
33.3160 0.223
33.3463 0.950
33.3766 1.522
33.4069 1.626
33.4372 0.479
33.4674 0.375
33.4977 0.948
33.5280 -1.187
33.5583 -0.144
33.5886 -0.612
33.6188 1.056
33.6491 0.589
33.6794 -0.242
33.7097 0.958
33.7399 -0.445
33.7702 -0.546
33.8005 0.491
33.8308 0.121
33.8611 1.107
33.8913 0.790
33.9216 1.099
33.9519 0.471
33.9822 1.561
34.0125 2.340
34.0427 3.171
34.0730 3.950
34.1033 4.886
34.1336 4.676
34.1638 6.445
34.1941 9.205
34.2244 12.121
34.2547 15.767
34.2850 18.423
34.3152 19.673
34.3455 16.862
34.3758 14.571
34.4061 11.864
34.4364 10.512
34.4666 7.336
34.4969 6.297
34.5272 6.091
34.5575 6.980
34.5877 6.827
34.6180 6.257
34.6483 6.365
34.6786 6.682
34.7089 5.593
34.7391 5.025
34.7694 5.915
34.7997 7.275
34.8300 6.604
34.8603 8.068
34.8905 12.449
34.9208 15.060
34.9511 19.130
34.9814 24.502
35.0116 22.061
35.0419 23.163
35.0722 20.723
35.1025 16.461
35.1328 14.803
35.1630 9.552
35.1933 8.103
35.2236 5.405
35.2539 5.207
35.2842 4.228
35.3144 2.936
35.3447 2.322
35.3750 2.646
35.4053 3.908
35.4356 3.347
35.4658 2.787
35.4961 2.278
35.5264 1.198
35.5567 2.149
35.5869 2.006
35.6172 2.124
35.6475 2.867
35.6778 2.569
35.7081 3.366
35.7383 4.839
35.7686 5.323
35.7989 6.954
35.8292 5.720
35.8595 8.184
35.8897 9.347
35.9200 8.947
35.9503 13.340
35.9806 15.649
36.0108 16.761
36.0411 20.165
36.0714 22.006
36.1017 21.608
36.1320 22.878
36.1622 26.595
36.1925 25.678
36.2228 21.271
36.2531 20.146
36.2834 17.302
36.3136 13.729
36.3439 12.657
36.3742 9.554
36.4045 7.753
36.4347 7.098
36.4650 5.923
36.4953 3.655
36.5256 3.365
36.5559 2.504
36.5861 3.309
36.6164 1.667
36.6467 2.212
36.6770 1.924
36.7073 0.543
36.7375 1.559
36.7678 1.168
36.7981 0.673
36.8284 0.231
36.8586 0.727
36.8889 0.702
36.9192 0.365
36.9495 -0.076
36.9798 0.889
37.0100 0.293
37.0403 0.425
37.0706 -0.066
37.1009 0.171
37.1312 -0.216
37.1614 0.543
37.1917 -0.155
37.2220 0.240
37.2523 1.260
37.2825 1.031
37.3128 1.375
37.3431 1.147
37.3734 1.700
37.4037 1.003
37.4339 1.192
37.4642 0.600
37.4945 0.477
37.5248 0.459
37.5551 1.014
37.5853 0.684
37.6156 0.770
37.6459 0.493
37.6762 0.476
37.7064 0.303
37.7367 -0.390
37.7670 -0.275
37.7973 0.361
37.8276 -1.138
37.8578 -0.032
37.8881 0.813
37.9184 -0.112
37.9487 0.057
37.9790 0.018
38.0092 0.448
38.0395 0.461
38.0698 -0.410
38.1001 0.437
38.1304 -0.017
38.1606 -0.054
38.1909 0.169
38.2212 0.289
38.2515 0.357
38.2817 -0.148
38.3120 -0.184
38.3423 0.198
38.3726 0.579
38.4029 0.232
38.4331 -0.115
38.4634 0.632
38.4937 0.807
38.5240 0.044
38.5543 0.844
38.5845 0.759
38.6148 0.362
38.6451 0.018
38.6754 0.454
38.7056 -0.463
38.7359 -0.390
38.7662 0.489
38.7965 -0.455
38.8268 0.112
38.8570 0.367
38.8873 -0.263
38.9176 0.357
38.9479 -0.429
38.9782 0.556
39.0084 -0.282
39.0387 -0.077
39.0690 0.284
39.0993 -0.761
39.1295 0.122
39.1598 0.380
39.1901 0.065
39.2204 0.428
39.2507 -0.459
39.2809 0.529
39.3112 0.476
39.3415 0.163
39.3718 -0.358
39.4021 0.267
39.4323 0.215
39.4626 -0.149
39.4929 0.269
39.5232 0.166
39.5534 0.063
39.5837 0.898
39.6140 0.380
39.6443 0.070
39.6746 0.333
39.7048 0.076
39.7351 -0.442
39.7654 -0.034
39.7957 0.167
39.8260 -0.570
39.8562 0.412
39.8865 -0.064
39.9168 -0.696
39.9471 0.547
39.9773 -0.032
40.0076 0.275
40.0379 -0.512
40.0682 -0.101
40.0985 -0.314
40.1287 -0.006
40.1590 -0.063
40.1893 0.454
40.2196 0.190
40.2499 -0.074
40.2801 -0.338
40.3104 -0.028
40.3407 0.647
40.3710 -0.241
40.4012 -0.035
40.4315 0.016
40.4618 0.015
40.4921 0.118
40.5224 1.315
40.5526 0.534
40.5829 0.221
40.6132 0.899
40.6435 0.899
40.6738 0.744
40.7040 0.902
40.7343 1.789
40.7646 1.218
40.7949 2.053
40.8251 2.420
40.8554 3.309
40.8857 2.583
40.9160 4.044
40.9463 5.402
40.9765 5.459
41.0068 6.869
41.0371 7.291
41.0674 5.629
41.0977 5.999
41.1279 5.536
41.1582 3.771
41.1885 3.934
41.2188 2.794
41.2491 2.437
41.2793 1.767
41.3096 0.993
41.3399 1.314
41.3702 0.072
41.4004 0.289
41.4307 0.245
41.4610 0.671
41.4913 1.254
41.5216 -0.143
41.5518 0.440
41.5821 0.399
41.6124 0.201
41.6427 -0.205
41.6730 0.380
41.7032 0.443
41.7335 -0.170
41.7638 0.207
41.7941 0.324
41.8243 -0.392
41.8546 0.090
41.8849 0.416
41.9152 0.273
41.9455 -0.546
41.9757 -0.226
42.0060 -0.009
42.0363 0.260
42.0666 -0.200
42.0969 -0.035
42.1271 0.235
42.1574 -0.276
42.1877 0.775
42.2180 0.369
42.2482 -0.141
42.2785 0.078
42.3088 0.142
42.3391 0.153
42.3694 0.478
42.3996 0.177
42.4299 0.971
42.4602 0.255
42.4905 -0.097
42.5208 0.073
42.5510 0.764
42.5813 0.101
42.6116 0.532
42.6419 0.651
42.6721 0.302
42.7024 -0.308
42.7327 -0.466
42.7630 0.419
42.7933 0.366
42.8235 0.261
42.8538 0.573
42.8841 0.053
42.9144 -0.311
42.9447 -0.012
42.9749 0.393
43.0052 0.797
43.0355 0.421
43.0658 0.514
43.0960 0.294
43.1263 0.023
43.1566 -0.300
43.1869 0.263
43.2172 -0.268
43.2474 0.817
43.2777 0.547
43.3080 0.278
43.3383 0.373
43.3686 -0.104
43.3988 0.722
43.4291 0.245
43.4594 -0.022
43.4897 0.387
43.5199 0.172
43.5502 0.687
43.5805 -0.257
43.6108 0.467
43.6411 -0.007
43.6713 -0.065
43.7016 0.035
43.7319 0.291
43.7622 -0.495
43.7925 0.908
43.8227 0.644
43.8530 0.120
43.8833 0.065
43.9136 -0.511
43.9439 0.529
43.9741 -0.255
44.0044 -0.256
44.0347 -0.205
44.0650 0.106
44.0952 -0.051
44.1255 -0.155
44.1558 0.105
44.1861 -0.520
44.2164 -0.055
44.2466 0.202
44.2769 0.303
44.3072 0.248
44.3375 0.818
44.3678 0.555
44.3980 -0.072
44.4283 0.239
44.4586 0.394
44.4889 -0.597
44.5191 0.079
44.5494 -0.182
44.5797 0.495
44.6100 0.027
44.6403 0.496
44.6705 0.340
44.7008 0.706
44.7311 0.291
44.7614 0.917
44.7917 1.076
44.8219 0.766
44.8522 0.716
44.8825 0.980
44.9128 1.712
44.9430 0.622
44.9733 1.095
45.0036 0.161
45.0339 0.687
45.0642 0.692
45.0944 0.697
45.1247 0.442
45.1550 -0.021
45.1853 0.662
45.2156 0.304
45.2458 0.936
45.2761 0.578
45.3064 0.690
45.3367 0.437
45.3669 -0.076
45.3972 1.130
45.4275 0.202
45.4578 -0.050
45.4881 -0.197
45.5183 -0.187
45.5486 0.396
45.5789 -0.011
45.6092 1.145
45.6395 0.115
45.6697 0.074
45.7000 0.189
45.7303 0.097
45.7606 0.474
45.7908 0.486
45.8211 0.030
45.8514 -0.113
45.8817 -0.308
45.9120 0.044
45.9422 0.501
45.9725 0.489
46.0028 0.426
46.0331 0.363
46.0634 -0.013
46.0936 0.133
46.1239 -0.450
46.1542 0.426
46.1845 -0.261
46.2147 0.407
46.2450 0.190
46.2753 0.442
46.3056 0.381
46.3359 -0.043
46.3661 -0.572
46.3964 0.091
46.4267 0.076
46.4570 -0.354
46.4873 0.049
46.5175 0.088
46.5478 -0.081
46.5781 0.114
46.6084 0.310
46.6386 -0.327
46.6689 0.078
46.6992 0.275
46.7295 -0.205
46.7598 -0.215
46.7900 0.451
46.8203 0.076
46.8506 0.744
46.8809 0.995
46.9112 0.881
46.9414 0.456
46.9717 0.968
47.0020 1.793
47.0323 0.900
47.0626 1.517
47.0928 1.145
47.1231 1.138
47.1534 2.434
47.1837 1.594
47.2139 2.630
47.2442 1.895
47.2745 1.889
47.3048 1.832
47.3351 2.504
47.3653 2.552
47.3956 2.912
47.4259 2.648
47.4562 3.009
47.4865 2.121
47.5167 1.493
47.5470 1.907
47.5773 1.123
47.6076 1.382
47.6378 0.703
47.6681 0.650
47.6984 1.534
47.7287 0.960
47.7590 1.012
47.7892 1.377
47.8195 0.856
47.8498 0.440
47.8801 0.389
47.9104 0.494
47.9406 0.079
47.9709 0.602
48.0012 0.291
48.0315 -0.175
48.0617 0.453
48.0920 0.664
48.1223 0.199
48.1526 -0.058
48.1829 -0.210
48.2131 0.732
48.2434 0.528
48.2737 0.377
48.3040 -0.295
48.3343 -0.342
48.3645 0.218
48.3948 0.465
48.4251 0.087
48.4554 -0.134
48.4856 -0.250
48.5159 -0.366
48.5462 0.507
48.5765 -0.338
48.6068 0.276
48.6370 0.057
48.6673 0.203
48.6976 0.505
48.7279 -0.442
48.7582 0.590
48.7884 -0.148
48.8187 0.259
48.8490 0.511
48.8793 0.451
48.9095 0.287
48.9398 0.696
48.9701 1.105
49.0004 1.098
49.0307 1.300
49.0609 0.408
49.0912 0.766
49.1215 0.552
49.1518 0.755
49.1821 1.010
49.2123 0.693
49.2426 0.012
49.2729 0.268
49.3032 0.628
49.3334 0.312
49.3637 0.465
49.3940 0.254
49.4243 1.085
49.4546 1.187
49.4848 1.706
49.5151 1.339
49.5454 2.536
49.5757 3.056
49.6060 2.326
49.6362 3.263
49.6665 4.357
49.6968 5.294
49.7271 3.941
49.7574 4.410
49.7876 4.672
49.8179 3.059
49.8482 2.644
49.8785 3.219
49.9087 2.961
49.9390 2.443
49.9693 1.665
49.9996 1.512
50.0299 0.838
50.0601 1.051
50.0904 0.326
50.1207 0.539
50.1510 1.377
50.1813 1.799
50.2115 0.919
50.2418 1.394
50.2721 1.816
50.3024 0.208
50.3326 0.424
50.3629 0.639
50.3932 0.126
50.4235 0.863
50.4538 0.506
50.4840 -0.683
50.5143 0.002
50.5446 -0.353
50.5749 -0.193
50.6052 0.020
50.6354 0.024
50.6657 -0.231
50.6960 0.191
50.7263 0.092
50.7565 0.046
50.7868 -0.208
50.8171 0.007
50.8474 -0.039
50.8777 0.489
50.9079 0.445
50.9382 -0.277
50.9685 0.669
50.9988 -0.104
51.0291 0.165
51.0593 0.122
51.0896 -0.077
51.1199 0.246
51.1502 -0.109
51.1804 0.110
51.2107 0.381
51.2410 -0.702
51.2713 -0.334
51.3016 -0.173
51.3318 0.405
51.3621 -0.163
51.3924 0.831
51.4227 -0.100
51.4530 0.635
51.4832 0.485
51.5135 -0.030
51.5438 0.550
51.5741 0.401
51.6043 -0.269
51.6346 0.625
51.6649 0.633
51.6952 1.318
51.7255 0.285
51.7557 1.076
51.7860 1.033
51.8163 1.668
51.8466 1.261
51.8769 1.636
51.9071 1.855
51.9374 1.709
51.9677 1.408
51.9980 1.263
52.0282 1.171
52.0585 0.715
52.0888 0.415
52.1191 0.532
52.1494 0.024
52.1796 -0.223
52.2099 0.416
52.2402 0.430
52.2705 0.496
52.3008 0.146
52.3310 0.213
52.3613 0.281
52.3916 0.244
52.4219 -0.312
52.4521 -0.252
52.4824 0.487
52.5127 0.861
52.5430 -0.171
52.5733 -0.161
52.6035 0.318
52.6338 -0.036
52.6641 -0.702
52.6944 0.078
52.7247 -0.132
52.7549 0.440
52.7852 -0.237
52.8155 -0.029
52.8458 0.023
52.8761 0.024
52.9063 0.233
52.9366 -0.235
52.9669 -0.234
52.9972 0.029
53.0274 -0.230
53.0577 -0.280
53.0880 0.140
53.1183 -0.274
53.1486 0.094
53.1788 0.097
53.2091 0.987
53.2394 0.366
53.2697 0.318
53.3000 0.375
53.3302 0.172
53.3605 0.282
53.3908 -0.390
53.4211 -0.238
53.4513 -0.035
53.4816 0.065
53.5119 -0.304
53.5422 -0.047
53.5725 -0.415
53.6027 0.103
53.6330 0.257
53.6633 0.202
53.6936 -0.268
53.7239 -0.270
53.7541 0.041
53.7844 0.457
53.8147 0.664
53.8450 0.247
53.8752 0.351
53.9055 0.143
53.9358 0.560
53.9661 0.092
53.9964 -0.271
54.0266 0.303
54.0569 0.149
54.0872 0.619
54.1175 -0.993
54.1478 -0.001
54.1780 0.627
54.2083 0.006
54.2386 -0.251
54.2689 0.170
54.2991 0.070
54.3294 -0.134
54.3597 -0.442
54.3900 0.182
54.4203 0.337
54.4505 0.024
54.4808 0.127
54.5111 1.221
54.5414 0.284
54.5717 0.128
54.6019 -0.132
54.6322 0.077
54.6625 0.391
54.6928 0.237
54.7230 -0.178
54.7533 0.606
54.7836 0.035
54.8139 0.403
54.8442 0.562
54.8744 0.045
54.9047 -0.263
54.9350 -0.416
54.9653 0.298
54.9956 0.751
55.0258 0.267
55.0561 -0.008
55.0864 -0.075
55.1167 0.328
55.1469 0.054
55.1772 -0.012
55.2075 0.444
55.2378 0.587
55.2681 0.262
55.2983 -0.167
55.3286 0.394
55.3589 0.486
55.3892 -0.202
55.4195 0.464
55.4497 0.609
55.4800 -0.078
55.5103 0.589
55.5406 0.162
55.5709 0.726
55.6011 0.144
55.6314 0.083
55.6617 0.074
55.6920 0.535
55.7222 0.527
55.7525 0.051
55.7828 1.137
55.8131 0.037
55.8434 0.499
55.8736 0.909
55.9039 1.215
55.9342 0.793
55.9645 0.788
55.9948 0.418
56.0250 1.768
56.0553 1.294
56.0856 1.707
56.1159 1.755
56.1461 2.377
56.1764 3.155
56.2067 3.308
56.2370 2.785
56.2673 4.710
56.2975 4.916
56.3278 3.925
56.3581 6.007
56.3884 6.579
56.4187 5.641
56.4489 7.515
56.4792 6.734
56.5095 6.422
56.5398 7.100
56.5700 6.267
56.6003 4.966
56.6306 5.697
56.6609 5.178
56.6912 3.149
56.7214 4.193
56.7517 3.831
56.7820 2.532
56.8123 2.223
56.8426 1.550
56.8728 1.710
56.9031 1.610
56.9334 2.240
56.9637 1.464
56.9939 0.011
57.0242 0.694
57.0545 0.595
57.0848 0.758
57.1151 1.129
57.1453 0.459
57.1756 -0.211
57.2059 0.526
57.2362 0.586
57.2665 0.281
57.2967 0.394
57.3270 0.142
57.3573 0.933
57.3876 0.109
57.4178 0.327
57.4481 -0.080
57.4784 0.399
57.5087 0.931
57.5390 -0.152
57.5692 0.016
57.5995 -0.337
57.6298 0.006
57.6601 -0.588
57.6904 0.225
57.7206 0.517
57.7509 0.393
57.7812 -0.044
57.8115 -0.167
57.8417 0.908
57.8720 -0.257
57.9023 0.141
57.9326 0.279
57.9629 0.262
57.9931 -0.120
58.0234 0.071
58.0537 0.158
58.0840 -0.171
58.1143 0.125
58.1445 0.682
58.1748 1.604
58.2051 0.287
58.2354 1.157
58.2656 0.882
58.2959 1.024
58.3262 0.229
58.3565 2.299
58.3868 1.035
58.4170 0.658
58.4473 2.051
58.4776 2.768
58.5079 4.318
58.5382 4.619
58.5684 6.274
58.5987 5.638
58.6290 7.710
58.6593 5.356
58.6896 5.189
58.7198 3.825
58.7501 5.326
58.7804 4.171
58.8107 3.433
58.8409 2.278
58.8712 2.843
58.9015 1.168
58.9318 1.577
58.9621 1.518
58.9923 0.834
59.0226 0.410
59.0529 0.768
59.0832 1.075
59.1135 1.277
59.1437 0.907
59.1740 0.485
59.2043 0.480
59.2346 0.580
59.2648 -0.258
59.2951 0.415
59.3254 0.464
59.3557 0.096
59.3860 1.030
59.4162 0.611
59.4465 0.140
59.4768 -0.227
59.5071 0.240
59.5374 -0.438
59.5676 0.446
59.5979 0.237
59.6282 0.080
59.6585 -0.233
59.6887 0.288
59.7190 0.653
59.7493 0.081
59.7796 0.551
59.8099 1.073
59.8401 1.700
59.8704 1.390
59.9007 0.975
59.9310 2.749
59.9613 1.814
59.9915 3.380
60.0218 3.644
60.0521 4.429
60.0824 4.017
60.1126 4.178
60.1429 4.130
60.1732 4.552
60.2035 4.714
60.2338 4.511
60.2640 4.570
60.2943 4.211
60.3246 2.343
60.3549 3.027
60.3852 2.253
60.4154 2.053
60.4457 1.280
60.4760 1.757
60.5063 1.453
60.5365 1.045
60.5668 1.106
60.5971 0.491
60.6274 0.553
60.6577 0.355
60.6879 0.574
60.7182 -0.093
60.7485 0.439
60.7788 -0.539
60.8091 -0.319
60.8393 -0.046
60.8696 -0.034
60.8999 0.864
60.9302 0.565
60.9604 -0.567
60.9907 -0.345
61.0210 -0.071
61.0513 -0.266
61.0816 0.426
61.1118 0.284
61.1421 0.924
61.1724 0.470
61.2027 0.746
61.2330 0.397
61.2632 0.153
61.2935 0.534
61.3238 0.863
61.3541 0.412
61.3844 0.013
61.4146 -0.022
61.4449 0.569
61.4752 0.275
61.5055 0.398
61.5357 0.469
61.5660 0.436
61.5963 0.091
61.6266 0.267
61.6569 -0.337
61.6871 -0.241
61.7174 0.116
61.7477 0.317
61.7780 0.258
61.8083 -0.270
61.8385 0.193
61.8688 0.343
61.8991 0.337
61.9294 0.019
61.9596 -0.246
61.9899 0.270
62.0202 0.161
62.0505 0.001
62.0808 0.257
62.1110 -0.059
62.1413 0.511
62.1716 -0.533
62.2019 0.141
62.2322 0.712
62.2624 0.397
62.2927 0.969
62.3230 1.436
62.3533 1.383
62.3835 1.122
62.4138 1.486
62.4441 1.955
62.4744 2.320
62.5047 2.216
62.5349 2.686
62.5652 2.739
62.5955 3.730
62.6258 2.899
62.6561 3.213
62.6863 3.633
62.7166 4.417
62.7469 3.743
62.7772 3.902
62.8074 3.698
62.8377 2.556
62.8680 2.977
62.8983 2.565
62.9286 1.424
62.9588 1.481
62.9891 1.435
63.0194 1.858
63.0497 1.343
63.0800 0.672
63.1102 0.471
63.1405 0.947
63.1708 0.746
63.2011 0.754
63.2313 0.814
63.2616 0.875
63.2919 -0.054
63.3222 0.424
63.3525 1.162
63.3827 0.234
63.4130 0.088
63.4433 -0.110
63.4736 -0.151
63.5039 -0.401
63.5341 0.496
63.5644 -0.586
63.5947 0.051
63.6250 0.011
63.6552 -0.133
63.6855 0.193
63.7158 0.154
63.7461 0.428
63.7764 0.077
63.8066 -0.117
63.8369 -0.363
63.8672 0.161
63.8975 0.009
63.9278 -0.039
63.9580 -0.347
63.9883 0.439
64.0186 0.079
64.0489 0.449
64.0791 0.559
64.1094 0.357
64.1397 0.624
64.1700 0.318
64.2003 0.690
64.2305 0.541
64.2608 0.549
64.2911 0.036
64.3214 0.669
64.3517 0.782
64.3819 0.426
64.4122 0.436
64.4425 0.341
64.4728 0.038
64.5031 0.048
64.5333 -0.201
64.5636 0.643
64.5939 0.133
64.6242 0.301
64.6544 -0.156
64.6847 0.325
64.7150 0.129
64.7453 0.245
64.7756 -0.054
64.8058 -0.041
64.8361 0.129
64.8664 -0.117
64.8967 -0.311
64.9270 0.161
64.9572 0.165
64.9875 0.430
65.0178 0.227
65.0481 -0.029
65.0783 0.602
65.1086 0.034
65.1389 0.457
65.1692 -0.110
65.1995 -0.415
65.2297 0.148
65.2600 0.086
65.2903 0.650
65.3206 -0.192
65.3509 0.320
65.3811 0.052
65.4114 -0.008
65.4417 -0.120
65.4720 -0.179
65.5022 0.178
65.5325 -0.036
65.5628 -0.095
65.5931 0.628
65.6234 0.154
65.6536 -0.112
65.6839 0.612
65.7142 0.087
65.7445 0.447
65.7748 0.287
65.8050 0.647
65.8353 0.175
65.8656 0.276
65.8959 -0.143
65.9261 0.636
65.9564 0.633
65.9867 0.267
66.0170 0.474
66.0473 0.316
66.0775 1.305
66.1078 0.367
66.1381 0.679
66.1684 0.783
66.1987 0.836
66.2289 0.055
66.2592 0.525
66.2895 1.151
66.3198 0.267
66.3500 0.061
66.3803 0.427
66.4106 0.274
66.4409 0.329
66.4712 0.280
66.5014 0.596
66.5317 0.808
66.5620 0.708
66.5923 -0.069
66.6226 0.613
66.6528 0.149
66.6831 0.884
66.7134 0.525
66.7437 -0.146
66.7739 0.172
66.8042 0.648
66.8345 -0.127
66.8648 -0.276
66.8951 0.125
66.9253 -0.048
66.9556 -0.011
66.9859 -0.183
67.0162 -0.511
67.0465 0.985
67.0767 0.449
67.1070 0.383
67.1373 0.109
67.1676 0.303
67.1978 0.342
67.2281 0.329
67.2584 0.264
67.2887 0.460
67.3190 1.438
67.3492 0.124
67.3795 0.425
67.4098 0.622
67.4401 1.132
67.4704 1.174
67.5006 0.487
67.5309 2.352
67.5612 1.665
67.5915 2.021
67.6218 2.949
67.6520 2.576
67.6823 3.089
67.7126 3.185
67.7429 3.125
67.7731 4.003
67.8034 4.361
67.8337 3.886
67.8640 3.358
67.8943 3.040
67.9245 2.669
67.9548 2.872
67.9851 2.815
68.0154 1.612
68.0457 2.337
68.0759 1.864
68.1062 2.329
68.1365 1.128
68.1668 1.281
68.1970 0.861
68.2273 0.702
68.2576 0.700
68.2879 0.542
68.3182 0.123
68.3484 0.747
68.3787 0.590
68.4090 0.068
68.4393 0.693
68.4696 0.901
68.4998 0.641
68.5301 0.173
68.5604 0.486
68.5907 0.695
68.6209 0.697
68.6512 0.647
68.6815 1.378
68.7118 1.224
68.7421 2.008
68.7723 1.647
68.8026 1.494
68.8329 1.862
68.8632 1.970
68.8935 1.974
68.9237 1.094
68.9540 2.713
68.9843 2.510
69.0146 2.099
69.0448 2.209
69.0751 0.861
69.1054 1.649
69.1357 1.812
69.1660 1.090
69.1962 0.837
69.2265 0.741
69.2568 1.165
69.2871 0.341
69.3174 0.505
69.3476 0.671
69.3779 0.263
69.4082 0.950
69.4385 0.491
69.4687 0.710
69.4990 0.460
69.5293 0.940
69.5596 0.274
69.5899 -0.235
69.6201 0.558
69.6504 0.101
69.6807 -0.147
69.7110 -0.290
69.7413 -0.131
69.7715 0.080
69.8018 -0.229
69.8321 0.713
69.8624 -0.065
69.8926 1.034
69.9229 0.882
69.9532 0.054
69.9835 0.580
70.0138 0.742
70.0440 0.435
70.0743 0.910
70.1046 0.552
70.1349 0.559
70.1652 0.879
70.1954 1.459
70.2257 1.571
70.2560 0.798
70.2863 1.015
70.3166 1.388
70.3468 1.085
70.3771 0.521
70.4074 0.583
70.4377 0.385
70.4679 0.655
70.4982 0.302
70.5285 0.052
70.5588 0.115
70.5891 0.544
70.6193 0.295
70.6496 -0.370
70.6799 0.372
70.7102 0.645
70.7405 -0.383
70.7707 0.412
70.8010 0.217
70.8313 0.231
70.8616 -0.067
70.8918 -0.260
70.9221 -0.055
70.9524 0.099
70.9827 0.513
71.0130 0.512
71.0432 0.458
71.0735 0.613
71.1038 0.456
71.1341 -0.013
71.1644 0.663
71.1946 -0.118
71.2249 0.143
71.2552 0.092
71.2855 -0.116
71.3157 -0.114
71.3460 -0.061
71.3763 0.358
71.4066 0.204
71.4369 0.467
71.4671 0.053
71.4974 0.421
71.5277 -0.097
71.5580 0.689
71.5883 -0.349
71.6185 0.228
71.6488 -0.079
71.6791 0.811
71.7094 0.035
71.7396 -0.167
71.7699 -0.161
71.8002 -0.259
71.8305 0.204
71.8608 -0.165
71.8910 0.508
71.9213 -0.486
71.9516 0.291
71.9819 0.027
72.0122 -0.080
72.0424 0.542
72.0727 0.174
72.1030 0.485
72.1333 0.587
72.1635 0.689
72.1938 0.688
72.2241 0.426
72.2544 0.686
72.2847 0.165
72.3149 0.685
72.3452 0.529
72.3755 1.103
72.4058 0.478
72.4361 0.688
72.4663 0.585
72.4966 0.431
72.5269 0.328
72.5572 0.383
72.5874 0.906
72.6177 0.180
72.6480 0.965
72.6783 0.396
72.7086 1.129
72.7388 0.404
72.7691 0.513
72.7994 0.674
72.8297 0.262
72.8600 0.736
72.8902 0.482
72.9205 0.696
72.9508 0.234
72.9811 0.397
73.0113 0.248
73.0416 -0.057
73.0719 -0.102
73.1022 0.427
73.1325 -0.137
73.1627 0.444
73.1930 -0.432
73.2233 0.567
73.2536 0.316
73.2839 0.326
73.3141 -0.028
73.3444 0.347
73.3747 0.201
73.4050 -0.048
73.4353 -0.089
73.4655 -0.493
73.4958 0.124
73.5261 0.170
73.5564 0.111
73.5866 -0.208
73.6169 -0.110
73.6472 -0.271
73.6775 0.609
73.7078 0.031
73.7380 0.078
73.7683 0.282
73.7986 -0.034
73.8289 0.066
73.8592 0.271
73.8894 0.164
73.9197 0.525
73.9500 0.054
73.9803 0.208
74.0105 0.206
74.0408 1.090
74.0711 0.725
74.1014 0.672
74.1317 0.306
74.1619 0.046
74.1922 0.671
74.2225 -0.214
74.2528 0.516
74.2831 0.152
74.3133 0.257
74.3436 0.103
74.3739 0.157
74.4042 0.315
74.4344 0.057
74.4647 0.164
74.4950 -0.197
74.5253 0.119
74.5556 0.279
74.5858 0.596
74.6161 -0.181
74.6464 0.084
74.6767 -0.119
74.7070 0.563
74.7372 -0.212
74.7675 0.471
74.7978 0.477
74.8281 -0.245
74.8583 0.074
74.8886 0.133
74.9189 -0.171
74.9492 0.201
74.9795 0.313
75.0097 -0.355
75.0400 -0.086
75.0703 -0.285
75.1006 0.125
75.1309 -0.455
75.1611 0.320
75.1914 -0.051
75.2217 0.047
75.2520 -0.114
75.2822 -0.068
75.3125 0.136
75.3428 0.236
75.3731 -0.237
75.4034 0.592
75.4336 -0.193
75.4639 -0.196
75.4942 0.217
75.5245 -0.150
75.5548 -0.204
75.5850 -0.206
75.6153 0.209
75.6456 -0.105
75.6759 -0.002
75.7061 0.310
75.7364 -0.368
75.7667 -0.004
75.7970 0.205
75.8273 0.153
75.8575 -0.002
75.8878 -0.157
75.9181 -0.260
75.9484 0.262
75.9787 0.264
76.0089 0.475
76.0392 0.270
76.0695 0.012
76.0998 0.328
76.1301 0.540
76.1603 0.179
76.1906 -0.025
76.2209 0.344
76.2512 0.349
76.2814 -0.114
76.3117 0.360
76.3420 0.314
76.3723 0.632
76.4026 0.326
76.4328 -0.188
76.4631 -0.233
76.4934 0.020
76.5237 0.481
76.5540 0.161
76.5842 0.362
76.6145 0.095
76.6448 0.349
76.6751 0.135
76.7053 0.545
76.7356 0.228
76.7659 0.274
76.7962 0.322
76.8265 -0.204
76.8567 0.157
76.8870 0.309
76.9173 0.253
76.9476 0.875
76.9779 0.820
77.0081 0.713
77.0384 -0.018
77.0687 0.136
77.0990 0.603
77.1292 0.342
77.1595 0.080
77.1898 0.288
77.2201 0.548
77.2504 -0.390
77.2806 -0.025
77.3109 -0.285
77.3412 0.081
77.3715 -0.022
77.4018 0.397
77.4320 0.243
77.4623 0.037
77.4926 0.040
77.5229 -0.165
77.5531 -0.110
77.5834 -0.054
77.6137 0.158
77.6440 -0.045
77.6743 0.011
77.7045 -0.192
77.7348 -0.239
77.7651 -0.441
77.7954 0.282
77.8257 0.328
77.8559 0.010
77.8862 -0.308
77.9165 0.364
77.9468 -0.318
77.9770 -0.009
78.0073 0.247
78.0376 -0.017
78.0679 0.709
78.0982 0.549
78.1284 0.182
78.1587 -0.185
78.1890 -0.083
78.2193 0.384
78.2496 0.278
78.2798 0.277
78.3101 0.276
78.3404 -0.037
78.3707 0.327
78.4009 -0.089
78.4312 0.172
78.4615 -0.244
78.4918 -0.194
78.5221 0.117
78.5523 0.323
78.5826 0.218
78.6129 -0.303
78.6432 -0.096
78.6735 0.165
78.7037 -0.252
78.7340 0.165
78.7643 -0.146
78.7946 0.219
78.8248 0.273
78.8551 -0.455
78.8854 0.277
78.9157 0.748
78.9460 0.282
78.9762 -0.080
79.0065 -0.025
79.0368 0.500
79.0671 -0.173
79.0974 0.143
79.1276 0.148
79.1579 0.361
79.1882 -0.259
79.2185 0.320
79.2488 0.169
79.2790 0.228
79.3093 0.182
79.3396 0.345
79.3699 0.404
79.4001 0.359
79.4304 0.471
79.4607 0.219
79.4910 -0.033
79.5213 -0.233
79.5515 0.068
79.5818 0.370
79.6121 0.099
79.6424 -0.120
79.6727 0.130
79.7029 0.381
79.7332 0.319
79.7635 0.779
79.7938 0.197
79.8240 -0.228
79.8543 0.181
79.8846 0.694
79.9149 0.738
79.9452 -0.050
79.9754 0.724
80.0057 0.717
80.0360 -0.018
80.0663 0.340
80.0966 0.126
80.1268 0.173
80.1571 -0.040
80.1874 0.372
80.2177 -0.101
80.2479 0.311
80.2782 -0.005
80.3085 0.877
80.3388 0.144
80.3691 0.662
80.3993 0.452
80.4296 0.449
80.4599 0.656
80.4902 0.029
80.5205 0.236
80.5507 0.183
80.5810 0.183
80.6113 0.130
80.6416 0.078
80.6718 0.391
80.7021 0.756
80.7324 0.236
80.7627 0.290
80.7930 0.447
80.8232 -0.124
80.8535 0.087
80.8838 0.194
80.9141 -0.324
80.9444 0.252
80.9746 0.203
81.0049 0.571
81.0352 0.211
81.0655 0.788
81.0957 0.324
81.1260 0.173
81.1563 0.803
81.1866 -0.233
81.2169 -0.018
81.2471 0.092
81.2774 0.099
81.3077 -0.624
81.3380 -0.047
81.3683 0.738
81.3985 0.325
81.4288 0.537
81.4591 -0.187
81.4894 -0.182
81.5196 -0.229
81.5499 -0.015
81.5802 0.303
81.6105 0.466
81.6408 0.107
81.6710 -0.302
81.7013 0.434
81.7316 -0.027
81.7619 -0.280
81.7922 0.509
81.8224 -0.107
81.8527 0.057
81.8830 0.379
81.9133 0.336
81.9436 0.242
81.9738 -0.217
82.0041 -0.519
82.0344 0.260
82.0647 -0.367
82.0949 0.204
82.1252 -0.370
82.1555 0.254
82.1858 -0.059
82.2161 0.149
82.2463 0.097
82.2766 0.045
82.3069 0.567
82.3372 0.359
82.3675 0.204
82.3977 0.518
82.4280 0.260
82.4583 -0.259
82.4886 -0.211
82.5188 0.098
82.5491 0.303
82.5794 0.092
82.6097 -0.067
82.6400 0.191
82.6702 0.189
82.7005 0.136
82.7308 -0.387
82.7611 0.029
82.7914 -0.232
82.8216 0.080
82.8519 -0.076
82.8822 0.809
82.9125 -0.180
82.9427 0.759
82.9730 -0.334
83.0033 -0.124
83.0336 0.450
83.0639 -0.068
83.0941 0.038
83.1244 0.145
83.1547 -0.112
83.1850 -0.213
83.2153 0.416
83.2455 -0.309
83.2758 0.164
83.3061 0.012
83.3364 0.069
83.3666 -0.030
83.3969 0.496
83.4272 -0.279
83.4575 -0.064
83.4878 -0.162
83.5180 0.209
83.5483 0.217
83.5786 0.016
83.6089 0.023
83.6392 0.031
83.6694 0.457
83.6997 0.101
83.7300 -0.203
83.7603 0.536
83.7905 0.233
83.8208 0.191
83.8511 0.878
83.8814 0.160
83.9117 0.483
83.9419 0.182
83.9722 0.037
84.0025 0.466
84.0328 0.113
84.0631 0.178
84.0933 0.815
84.1236 0.568
84.1539 0.217
84.1842 0.700
84.2144 0.089
84.2447 0.155
84.2750 -0.195
84.3053 -0.259
84.3356 0.667
84.3658 0.396
84.3961 -0.032
84.4264 0.062
84.4567 0.208
84.4870 -0.010
84.5172 0.553
84.5475 -0.185
84.5778 0.170
84.6081 0.214
84.6383 0.101
84.6686 0.093
84.6989 0.607
84.7292 0.443
84.7595 0.228
84.7897 0.950
84.8200 0.319
84.8503 0.156
84.8806 0.724
84.9109 0.458
84.9411 0.140
84.9714 0.239
85.0017 0.391
85.0320 -0.030
85.0623 0.070
85.0925 0.223
85.1228 0.324
85.1531 0.061
85.1834 0.266
85.2136 -0.153
85.2439 0.210
85.2742 0.052
85.3045 -0.001
85.3348 0.050
85.3650 0.049
85.3953 0.517
85.4256 0.725
85.4559 0.048
85.4862 -0.107
85.5164 0.258
85.5467 0.363
85.5770 0.521
85.6073 0.210
85.6375 -0.100
85.6678 0.527
85.6981 0.478
85.7284 0.533
85.7587 0.380
85.7889 0.488
85.8192 0.336
85.8495 -0.285
85.8798 -0.294
85.9101 0.635
85.9403 0.522
85.9706 0.514
86.0009 0.038
86.0312 0.134
86.0614 0.492
86.0917 0.225
86.1220 -0.199
86.1523 0.160
86.1826 0.258
86.2128 0.305
86.2431 0.247
86.2734 0.086
86.3037 0.238
86.3340 0.181
86.3642 0.229
86.3945 -0.347
86.4248 0.379
86.4551 0.428
86.4853 -0.148
86.5156 0.058
86.5459 0.577
86.5762 0.158
86.6065 0.105
86.6367 -0.053
86.6670 -0.001
86.6973 0.311
86.7276 0.206
86.7579 0.310
86.7881 0.155
86.8184 -0.105
86.8487 0.000
86.8790 -0.311
86.9092 0.049
86.9395 0.253
86.9698 0.093
87.0001 -0.067
87.0304 0.190
87.0606 -0.074
87.0909 -0.702
87.1212 0.128
87.1515 0.332
87.1818 0.173
87.2120 0.066
87.2423 -0.197
87.2726 0.061
87.3029 -0.097
87.3331 -0.047
87.3634 0.316
87.3937 -0.049
87.4240 -0.207
87.4543 -0.103
87.4845 0.105
87.5148 -0.363
87.5451 -0.055
87.5754 -0.319
87.6057 0.303
87.6359 0.196
87.6662 0.298
87.6965 0.035
87.7268 -0.176
87.7571 -0.177
87.7873 -0.074
87.8176 -0.128
87.8479 -0.076
87.8782 -0.441
87.9084 0.123
87.9387 0.323
87.9690 0.159
87.9993 -0.109
88.0296 0.145
88.0598 0.294
88.0901 -0.181
88.1204 0.125
88.1507 -0.298
88.1810 0.113
88.2112 0.212
88.2415 0.051
88.2718 0.307
88.3021 0.198
88.3323 -0.171
88.3626 -0.070
88.3929 -0.230
88.4232 -0.337
88.4535 0.283
88.4837 0.018
88.5140 -0.246
88.5443 -0.250
88.5746 0.211
88.6049 -0.056
88.6351 -0.011
88.6654 -0.070
88.6957 -0.128
88.7260 0.387
88.7562 0.485
88.7865 0.167
88.8168 0.371
88.8471 0.001
88.8774 0.466
88.9076 0.149
88.9379 0.562
88.9682 0.090
88.9985 0.399
89.0288 0.448
89.0590 0.602
89.0893 0.496
89.1196 0.911
89.1499 0.544
89.1801 1.012
89.2104 0.803
89.2407 0.021
89.2710 0.958
89.3013 1.270
89.3315 0.906
89.3618 1.115
89.3921 0.595
89.4224 1.378
89.4527 -0.235
89.4829 1.173
89.5132 0.654
89.5435 1.126
89.5738 0.816
89.6040 0.142
89.6343 0.354
89.6646 1.035
89.6949 0.830
89.7252 0.262
89.7554 0.631
89.7857 0.845
89.8160 0.173
89.8463 0.491
89.8766 0.445
89.9068 0.295
89.9371 0.197
89.9674 -0.160
89.9977 0.316
90.0279 -0.146
90.0582 0.019
90.0885 -0.077
90.1188 0.452
90.1491 -0.164
90.1793 0.001
90.2096 0.115
90.2399 0.177
90.2702 0.135
90.3005 -0.168
90.3307 -0.105
90.3610 -0.198
90.3913 -0.239
90.4216 -0.131
90.4518 -0.126
90.4821 -0.018
90.5124 0.092
90.5427 0.201
90.5730 0.363
90.6032 0.316
90.6335 0.218
90.6638 -0.296
90.6941 0.023
90.7244 0.187
90.7546 -0.014
90.7849 0.098
90.8152 -0.363
90.8455 -0.057
90.8758 0.301
90.9060 -0.122
90.9363 0.028
90.9666 0.127
90.9969 -0.191
91.0271 -0.092
91.0574 0.737
91.0877 0.159
91.1180 0.207
91.1483 0.516
91.1785 0.356
91.2088 0.614
91.2391 0.038
91.2694 0.348
91.2997 -0.331
91.3299 0.344
91.3602 0.291
91.3905 0.498
91.4208 0.236
91.4510 -0.285
91.4813 -0.183
91.5116 0.232
91.5419 -0.030
91.5722 0.229
91.6024 -0.397
91.6327 -0.032
91.6630 -0.137
91.6933 -0.085
91.7236 0.072
91.7538 -0.136
91.7841 -0.239
91.8144 0.169
91.8447 0.003
91.8749 -0.214
91.9052 -0.118
91.9355 -0.126
91.9658 0.439
91.9961 -0.089
92.0263 -0.201
92.0566 0.053
92.0869 0.255
92.1172 -0.116
92.1475 0.347
92.1777 -0.440
92.2080 0.179
92.2383 0.279
92.2686 0.118
92.2988 0.009
92.3291 0.005
92.3594 -0.259
92.3897 0.049
92.4200 0.462
92.4502 -0.010
92.4805 -0.222
92.5108 -0.225
92.5411 0.710
92.5714 -0.022
92.6016 -0.336
92.6319 0.339
92.6622 -0.079
92.6925 0.024
92.7227 0.231
92.7530 0.387
92.7833 -0.134
92.8136 -0.342
92.8439 0.492
92.8741 -0.237
92.9044 0.181
92.9347 -0.026
92.9650 0.289
92.9953 0.655
93.0255 0.033
93.0558 0.035
93.0861 0.038
93.1164 -0.271
93.1466 0.462
93.1769 0.257
93.2072 -0.416
93.2375 0.058
93.2678 0.271
93.2980 0.016
93.3283 -0.187
93.3586 0.079
93.3889 -0.071
93.4192 0.300
93.4494 0.255
93.4797 -0.363
93.5100 -0.202
93.5403 -0.093
93.5706 -0.192
93.6008 0.126
93.6311 0.131
93.6614 0.085
93.6917 0.144
93.7219 -0.058
93.7522 -0.259
93.7825 0.101
93.8128 -0.008
93.8431 0.144
93.8733 0.557
93.9036 -0.176
93.9339 -0.022
93.9642 -0.077
93.9945 -0.132
94.0247 -0.134
94.0550 0.176
94.0853 0.591
94.1156 -0.400
94.1458 -0.244
94.1761 0.166
94.2064 0.315
94.2367 0.257
94.2670 -0.165
94.2972 0.142
94.3275 0.188
94.3578 -0.025
94.3881 0.596
94.4184 0.227
94.4486 0.015
94.4789 0.115
94.5092 0.112
94.5395 -0.152
94.5697 0.366
94.6000 0.052
94.6303 -0.211
94.6606 -0.161
94.6909 0.098
94.7211 0.566
94.7514 0.097
94.7817 0.773
94.8120 0.356
94.8423 0.773
94.8725 0.617
94.9028 0.462
94.9331 0.463
94.9634 0.048
94.9936 0.987
95.0239 -0.053
95.0542 0.262
95.0845 0.681
95.1148 0.736
95.1450 0.479
95.1753 0.535
95.2056 0.851
95.2359 0.387
95.2662 0.131
95.2964 1.178
95.3267 0.610
95.3570 0.355
95.3873 0.934
95.4175 0.419
95.4478 0.321
95.4781 0.224
95.5084 0.647
95.5387 -0.126
95.5689 0.298
95.5992 0.410
95.6295 -0.259
95.6598 0.583
95.6901 0.123
95.7203 0.393
95.7506 -0.118
95.7809 0.361
95.8112 -0.046
95.8414 0.121
95.8717 -0.233
95.9020 -0.142
95.9323 0.158
95.9626 -0.063
95.9928 0.342
96.0231 -0.503
96.0534 0.163
96.0837 -0.421
96.1140 0.297
96.1442 0.287
96.1745 -0.244
96.2048 0.215
96.2351 0.466
96.2653 0.196
96.2956 -0.177
96.3259 -0.082
96.3562 -0.090
96.3865 -0.306
96.4167 0.155
96.4470 -0.113
96.4773 0.037
96.5076 0.290
96.5379 0.076
96.5681 -0.555
96.5984 0.012
96.6287 -0.202
96.6590 -0.363
96.6893 0.256
96.7195 0.407
96.7498 -0.014
96.7801 0.189
96.8104 0.237
96.8406 0.233
96.8709 -0.135
96.9012 0.070
96.9315 0.483
96.9618 0.168
96.9920 0.010
97.0223 0.476
97.0526 0.058
97.0829 -0.048
97.1132 0.211
97.1434 0.054
97.1737 0.106
97.2040 0.262
97.2343 0.054
97.2645 -0.206
97.2948 -0.049
97.3251 -0.152
97.3554 -0.047
97.3857 0.059
97.4159 0.009
97.4462 -0.301
97.4765 0.378
97.5068 0.121
97.5371 0.228
97.5673 0.701
97.5976 0.080
97.6279 0.084
97.6582 0.244
97.6884 0.249
97.7187 -0.214
97.7490 -0.105
97.7793 -0.255
97.8096 -0.101
97.8398 0.002
97.8701 -0.467
97.9004 0.053
97.9307 0.471
97.9610 0.523
97.9912 0.160
98.0215 0.682
98.0518 0.111
98.0821 0.113
98.1123 0.271
98.1426 0.274
98.1729 0.901
98.2032 0.384
98.2335 0.023
98.2637 -0.078
98.2940 0.395
98.3243 0.035
98.3546 0.196
98.3849 0.358
98.4151 0.623
98.4454 0.473
98.4757 0.635
98.5060 0.277
98.5362 0.336
98.5665 0.343
98.5968 0.298
98.6271 0.722
98.6574 0.730
98.6876 0.165
98.7179 0.591
98.7482 0.547
98.7785 0.400
98.8088 -0.111
98.8390 0.576
98.8693 0.378
98.8996 0.180
98.9299 0.503
98.9601 0.514
98.9904 0.109
99.0207 0.016
99.0510 0.705
99.0813 0.093
99.1115 0.418
99.1418 0.118
99.1721 -0.441
99.2024 -0.080
99.2327 -0.239
99.2629 0.435
99.2932 0.641
99.3235 -0.039
99.3538 0.064
99.3841 0.010
99.4143 -0.043
99.4446 -0.096
99.4749 0.267
99.5052 0.163
99.5354 0.215
99.5657 -0.201
99.5960 -0.305
99.6263 0.894
99.6566 0.322
99.6868 -0.301
99.7171 -0.039
99.7474 0.068
99.7777 0.122
99.8080 0.021
99.8382 0.180
99.8685 -0.441
99.8988 -0.133
99.9291 0.072
99.9593 0.328
99.9896 0.013
100.0199 -0.199
100.0502 0.059
100.0805 0.161
100.1107 -0.049
100.1410 0.053
100.1713 -0.052
100.2016 -0.366
100.2319 0.154
100.2621 -0.107
100.2924 -0.211
100.3227 0.102
100.3530 0.154
100.3832 0.363
100.4135 0.365
100.4438 -0.259
100.4741 0.212
100.5044 -0.151
100.5346 -0.253
100.5649 0.323
100.5952 0.014
100.6255 0.017
100.6558 0.541
100.6860 0.181
100.7163 0.081
100.7466 -0.227
100.7769 -0.129
100.8071 0.334
100.8374 -0.088
100.8677 0.063
100.8980 0.474
100.9283 -0.259
100.9585 -0.107
100.9888 0.305
101.0191 0.041
101.0494 0.298
101.0797 0.139
101.1099 0.345
101.1402 -0.491
101.1705 -0.233
101.2008 0.069
101.2310 0.111
101.2613 0.049
101.2916 0.352
101.3219 -0.074
101.3522 -0.187
101.3824 -0.091
101.4127 -0.203
101.4430 -0.003
101.4733 0.406
101.5036 -0.018
101.5338 0.392
101.5641 -0.084
101.5944 -0.038
101.6247 0.529
101.6549 0.159
101.6852 0.101
101.7155 0.305
101.7458 -0.481
101.7761 0.764
101.8063 0.343
101.8366 0.287
101.8669 0.076
101.8972 0.072
101.9275 0.486
101.9577 -0.246
101.9880 -0.092
102.0183 -0.250
102.0486 0.105
102.0788 -0.218
102.1091 0.085
102.1394 -0.133
102.1697 0.379
102.2000 0.266
102.2302 0.050
102.2605 0.146
102.2908 0.503
102.3211 0.287
102.3514 -0.033
102.3816 0.169
102.4119 -0.463
102.4422 -0.052
102.4725 0.671
102.5028 -0.168
102.5330 -0.225
102.5633 -0.178
102.5936 -0.078
102.6239 0.595
102.6541 -0.191
102.6844 -0.194
102.7147 -0.145
102.7450 0.372
102.7753 -0.099
102.8055 -0.466
102.8358 0.521
102.8661 0.572
102.8964 0.154
102.9267 -0.160
102.9569 0.308
102.9872 -0.161
103.0175 -0.266
103.0478 0.046
103.0780 0.307
103.1083 -0.578
103.1386 0.516
103.1689 0.204
103.1992 -0.107
103.2294 -0.262
103.2597 0.313
103.2900 -0.466
103.3203 0.161
103.3506 0.320
103.3808 0.010
103.4111 -0.455
103.4414 0.174
103.4717 -0.239
103.5019 0.286
103.5322 -0.230
103.5625 -0.069
103.5928 0.457
103.6231 0.306
103.6533 -0.157
103.6836 0.527
103.7139 -0.040
103.7442 0.540
103.7745 -0.182
103.8047 0.242
103.8350 -0.167
103.8653 0.466
103.8956 0.162
103.9258 -0.194
103.9561 0.180
103.9864 0.450
104.0167 0.095
104.0470 -0.156
104.0772 -0.250
104.1075 0.064
104.1378 0.327
104.1681 -0.088
104.1984 -0.085
104.2286 -0.031
104.2589 0.285
104.2892 -0.024
104.3195 0.240
104.3497 -0.277
104.3800 0.405
104.4103 0.253
104.4406 0.154
104.4709 0.368
104.5011 -0.095
104.5314 0.171
104.5617 -0.187
104.5920 0.080
104.6223 0.347
104.6525 -0.271
104.6828 -0.159
104.7131 -0.203
104.7434 -0.091
104.7736 -0.239
104.8039 -0.127
104.8342 0.141
104.8645 0.149
104.8948 0.105
104.9250 0.270
104.9553 -0.086
104.9856 -0.233
105.0159 0.023
105.0462 -0.241
105.0764 0.381
105.1067 0.169
105.1370 0.375
105.1673 0.320
105.1975 -0.099
105.2278 0.264
105.2581 -0.363
105.2884 0.625
105.3187 -0.001
105.3489 0.103
105.3792 -0.210
105.4095 0.103
105.4398 0.103
105.4701 -0.053
105.5003 -0.104
105.5306 0.158
105.5609 0.472
105.5912 0.369
105.6215 0.111
105.6517 -0.095
105.6820 -0.040
105.7123 0.015
105.7426 0.175
105.7728 0.075
105.8031 -0.130
105.8334 0.083
105.8637 0.036
105.8940 0.197
105.9242 0.202
105.9545 0.260
105.9848 -0.099
106.0151 0.168
106.0454 0.331
106.0756 0.442
106.1059 0.189
106.1362 0.144
106.1665 -0.473
106.1967 0.264
106.2270 0.273
106.2573 -0.083
106.2876 -0.126
106.3179 -0.221
106.3481 -0.018
106.3784 -0.023
106.4087 0.076
106.4390 -0.032
106.4693 -0.140
106.4995 0.481
106.5298 -0.148
106.5601 0.630
106.5904 0.107
106.6206 0.313
106.6509 0.779
106.6812 0.100
106.7115 0.255
106.7418 -0.007
106.7720 0.461
106.8023 -0.165
106.8326 0.252
106.8629 -0.165
106.8932 -0.008
106.9234 -0.112
106.9537 0.410
106.9840 0.255
107.0143 0.465
107.0445 0.310
107.0748 -0.052
107.1051 0.263
107.1354 0.578
107.1657 0.477
107.1959 -0.561
107.2262 0.328
107.2565 -0.032
107.2868 0.337
107.3171 0.289
107.3473 -0.122
107.3776 -0.221
107.4079 0.081
107.4382 0.174
107.4684 0.112
107.4987 0.154
107.5290 0.456
107.5593 0.082
107.5896 0.229
107.6198 0.116
107.6501 0.212
107.6804 -0.161
107.7107 -0.117
107.7410 0.136
107.7712 0.233
107.8015 -0.138
107.8318 0.272
107.8621 0.213
107.8923 -0.157
107.9226 0.202
107.9529 0.196
107.9832 0.035
108.0135 -0.022
108.0437 0.182
108.0740 0.126
108.1043 0.331
108.1346 0.796
108.1649 -0.509
108.1951 0.738
108.2254 0.423
108.2557 -0.309
108.2860 0.158
108.3163 0.209
108.3465 0.572
108.3768 0.154
108.4071 0.466
108.4374 0.258
108.4676 0.310
108.4979 0.154
108.5282 0.154
108.5585 -0.209
108.5888 -0.156
108.6190 0.002
108.6493 0.681
108.6796 0.110
108.7099 0.165
108.7402 0.220
108.7704 -0.038
108.8007 0.018
108.8310 -0.239
108.8613 -0.136
108.8915 0.175
108.9218 0.330
108.9521 0.121
108.9824 0.172
109.0127 0.276
109.0429 0.068
109.0732 -0.087
109.1035 0.017
109.1338 0.435
109.1641 0.020
109.1943 -0.239
109.2246 -0.135
109.2549 0.229
109.2852 -0.292
109.3154 0.542
109.3457 -0.239
109.3760 0.127
109.4063 0.805
109.4366 0.234
109.4668 -0.285
109.4971 -0.189
109.5274 0.585
109.5577 0.213
109.5880 0.050
109.6182 -0.060
109.6485 -0.119
109.6788 0.344
109.7091 -0.078
109.7393 0.646
109.7696 0.641
109.7999 1.001
109.8302 -0.097
109.8605 0.055
109.8907 -0.105
109.9210 0.465
109.9513 0.618
109.9816 -0.010
110.0119 -0.169
110.0421 -0.066
110.0724 0.036
110.1027 0.139
110.1330 -0.071
110.1632 0.189
110.1935 0.292
110.2238 0.709
110.2541 0.084
110.2844 0.188
110.3146 -0.071
110.3449 0.242
110.3752 0.556
110.4055 0.610
110.4358 0.508
110.4660 -0.011
110.4963 0.669
110.5266 -0.162
110.5569 -0.054
110.5871 -0.259
110.6174 0.110
110.6477 0.218
110.6780 -0.090
110.7083 0.384
110.7385 -0.080
110.7688 -0.022
110.7991 -0.172
110.8294 0.250
110.8597 0.361
110.8899 0.107
110.9202 0.271
110.9505 -0.190
110.9808 0.130
111.0110 0.086
111.0413 -0.375
111.0716 0.624
111.1019 0.268
111.1322 0.330
111.1624 0.183
111.1927 0.297
111.2230 0.099
111.2533 0.162
111.2836 0.277
111.3138 -0.285
111.3441 -0.227
111.3744 0.089
111.4047 0.145
111.4350 -0.007
111.4652 0.363
111.4955 0.211
111.5258 -0.356
111.5561 0.222
111.5863 0.072
111.6166 0.130
111.6469 -0.072
111.6772 -0.221
111.7075 -0.177
111.7377 0.648
111.7680 0.119
111.7983 0.320
111.8286 0.261
111.8589 -0.319
111.8891 0.456
111.9194 0.450
111.9497 0.288
111.9800 0.022
112.0102 0.173
112.0405 0.220
112.0708 0.111
112.1011 0.003
112.1314 0.207
112.1616 0.255
112.1919 0.096
112.2222 -0.220
112.2525 0.194
112.2828 -0.277
112.3130 -0.123
112.3433 -0.281
112.3736 0.186
112.4039 0.133
112.4341 0.184
112.4644 -0.285
112.4947 -0.129
112.5250 -0.233
112.5553 0.131
112.5855 -0.079
112.6158 0.858
112.6461 -0.079
112.6764 -0.027
112.7067 -0.079
112.7369 0.131
112.7672 -0.233
112.7975 -0.078
112.8278 0.442
112.8580 0.389
112.8883 0.440
112.9186 0.128
112.9489 -0.237
112.9792 0.441
113.0094 0.442
113.0397 -0.078
113.0700 -0.233
113.1003 0.072
113.1306 0.169
113.1608 -0.203
113.1911 -0.209
113.2214 0.357
113.2517 -0.066
113.2819 -0.019
113.3122 -0.337
113.3425 0.073
113.3728 -0.193
113.4031 0.114
113.4333 -0.152
113.4636 0.416
113.4939 -0.162
113.5242 -0.218
113.5545 -0.066
113.5847 -0.486
113.6150 0.396
113.6453 -0.024
113.6756 0.129
113.7058 0.022
113.7361 0.072
113.7664 0.175
113.7967 0.694
113.8270 -0.089
113.8572 0.119
113.8875 -0.194
113.9178 -0.507
113.9481 0.378
113.9784 -0.194
114.0086 0.067
114.0389 0.016
114.0692 -0.087
114.0995 -0.190
114.1298 0.385
114.1600 -0.290
114.1903 0.129
114.2206 -0.284
114.2509 0.083
114.2811 0.295
114.3114 0.611
114.3417 0.459
114.3720 -0.057
114.4023 0.104
114.4325 0.265
114.4628 0.062
114.4931 -0.141
114.5234 -0.239
114.5537 -0.190
114.5839 0.380
114.6142 -0.144
114.6445 0.426
114.6748 0.476
114.7050 -0.411
114.7353 0.004
114.7656 0.159
114.7959 0.679
114.8262 0.262
114.8564 0.366
114.8867 0.366
114.9170 0.105
114.9473 0.262
114.9776 0.472
115.0078 0.056
115.0381 0.474
115.0684 -0.253
115.0987 -0.042
115.1289 -0.248
115.1592 0.171
115.1895 -0.138
115.2198 -0.239
115.2501 0.165
115.2803 0.621
115.3106 0.713
115.3409 0.180
115.3712 -0.040
115.4015 0.209
115.4317 0.094
115.4620 -0.021
115.4923 -0.083
115.5226 0.584
115.5528 0.418
115.5831 -0.113
115.6134 0.347
115.6437 0.390
115.6740 0.538
115.7042 0.113
115.7345 0.209
115.7648 0.254
115.7951 0.351
115.8254 0.708
115.8556 0.754
115.8859 0.383
115.9162 0.064
115.9465 1.100
115.9767 0.053
116.0070 0.829
116.0373 0.460
116.0676 1.393
116.0979 0.452
116.1281 0.396
116.1584 0.548
116.1887 0.806
116.2190 0.855
116.2493 0.279
116.2795 1.058
116.3098 0.275
116.3401 0.482
116.3704 0.533
116.4006 0.792
116.4309 0.739
116.4612 0.322
116.4915 0.322
116.5218 0.687
116.5520 -0.093
116.5823 0.585
116.6126 0.117
116.6429 0.691
116.6732 0.381
116.7034 0.435
116.7337 0.281
116.7640 0.701
116.7943 -0.077
116.8245 -0.022
116.8548 0.399
116.8851 0.090
116.9154 0.042
116.9457 -0.057
116.9759 -0.260
117.0062 -0.163
117.0365 0.144
117.0668 0.086
117.0971 0.393
117.1273 -0.393
117.1576 0.592
117.1879 0.067
117.2182 -0.094
117.2485 0.163
117.2787 -0.309
117.3090 -0.052
117.3393 0.362
117.3696 0.359
117.3998 -0.059
117.4301 0.095
117.4604 0.041
117.4907 -0.429
117.5210 0.404
117.5512 0.247
117.5815 0.611
117.6118 0.246
117.6421 0.195
117.6724 -0.273
117.7026 -0.012
117.7329 0.198
117.7632 -0.113
117.7935 -0.216
117.8237 -0.005
117.8540 0.362
117.8843 0.156
117.9146 -0.049
117.9449 0.423
117.9751 -0.094
118.0054 0.275
118.0357 0.019
118.0660 -0.445
118.0963 0.185
118.1265 -0.018
118.1568 0.196
118.1871 -0.110
118.2174 -0.260
118.2476 -0.259
118.2779 0.264
118.3082 0.527
118.3385 -0.408
118.3688 -0.196
118.3990 -0.193
118.4293 0.488
118.4596 -0.081
118.4899 -0.233
118.5202 -0.176
118.5504 -0.224
118.5807 -0.166
118.6110 0.048
118.6413 -0.415
118.6715 0.003
118.7018 0.318
118.7321 -0.356
118.7624 0.220
118.7927 -0.402
118.8229 0.227
118.8532 -0.081
118.8835 0.183
118.9138 0.084
118.9441 -0.328
118.9743 0.250
119.0046 -0.057
119.0349 -0.415
119.0652 0.108
119.0954 0.111
119.1257 -0.250
119.1560 -0.146
119.1863 0.063
119.2166 -0.197
119.2468 0.012
119.2771 -0.195
119.3074 0.379
119.3377 0.121
119.3680 0.279
119.3982 -0.031
119.4285 -0.080
119.4588 0.079
119.4891 0.395
119.5193 -0.487
119.5496 0.038
119.5799 0.302
119.6102 -0.110
119.6405 -0.001
119.6707 -0.047
119.7010 -0.146
119.7313 -0.244
119.7616 0.078
119.7919 0.244
119.8221 -0.214
119.8524 -0.151
119.8827 0.068
119.9130 -0.337
119.9433 0.070
119.9735 0.061
120.0038 0.000
