'Id: "" Comment: "" Operator: "Lab Manager" Anode: "Cu" Scantype: "Locked Coupled" TimePerStep: "19.2" X: "9999" Y: "9999" Z: "9999" 
10.0015 0.000
10.0318 -0.477
10.0620 -0.306
10.0923 -0.342
10.1226 0.611
10.1529 0.471
10.1832 -0.450
10.2134 -0.121
10.2437 -0.365
10.2740 -0.295
10.3043 -0.435
10.3346 -0.331
10.3648 0.502
10.3951 0.189
10.4254 -0.279
10.4557 0.138
10.4859 0.763
10.5162 -0.174
10.5465 0.348
10.5768 -0.223
10.6071 0.820
10.6373 1.030
10.6676 0.615
10.6979 1.190
10.7282 0.203
10.7585 -0.107
10.7887 0.468
10.8190 0.159
10.8493 0.422
10.8796 0.061
10.9098 0.534
10.9401 1.371
10.9704 1.271
11.0007 1.588
11.0310 0.915
11.0612 1.180
11.0915 1.029
11.1218 0.201
11.1521 0.883
11.1824 0.368
11.2126 0.583
11.2429 0.537
11.2732 -0.343
11.3035 0.914
11.3337 0.556
11.3640 0.251
11.3943 1.248
11.4246 -0.099
11.4549 -0.196
11.4851 0.646
11.5154 0.550
11.5457 0.506
11.5760 -0.267
11.6063 0.211
11.6365 0.272
11.6668 -0.292
11.6971 0.551
11.7274 0.300
11.7577 -0.575
11.7879 -0.412
11.8182 0.012
11.8485 0.280
11.8788 0.287
11.9090 0.972
11.9393 0.043
11.9696 -0.626
11.9999 -0.158
12.0302 0.832
12.0604 -0.001
12.0907 -0.104
12.1210 0.573
12.1513 -0.519
12.1816 -0.362
12.2118 0.213
12.2421 0.475
12.2724 0.737
12.3027 -0.198
12.3329 -0.352
12.3632 -0.245
12.3935 0.747
12.4238 0.229
12.4541 0.128
12.4843 0.236
12.5146 0.708
12.5449 0.608
12.5752 0.664
12.6055 0.252
12.6357 0.048
12.6660 0.157
12.6963 0.267
12.7266 0.011
12.7568 0.277
12.7871 -0.290
12.8174 0.602
12.8477 -0.486
12.8780 0.354
12.9082 -0.421
12.9385 -0.049
12.9688 0.426
12.9991 0.069
13.0294 0.233
13.0596 0.293
13.0899 -0.064
13.1202 0.205
13.1505 -0.568
13.1807 0.274
13.2110 -0.238
13.2413 -0.854
13.2716 0.197
13.3019 0.363
13.3321 -0.253
13.3624 0.018
13.3927 -0.389
13.4230 -0.125
13.4533 0.504
13.4835 -0.273
13.5138 0.044
13.5441 0.465
13.5744 0.366
13.6046 0.318
13.6349 0.115
13.6652 0.329
13.6955 1.220
13.7258 0.028
13.7560 0.711
13.7863 0.561
13.8166 -0.630
13.8469 -0.155
13.8772 -0.096
13.9074 0.745
13.9377 0.127
13.9680 0.187
13.9983 0.664
14.0285 0.099
14.0588 0.159
14.0891 -0.353
14.1194 0.593
14.1497 0.081
14.1799 -0.014
14.2102 0.204
14.2405 0.266
14.2708 0.901
14.3011 -0.391
14.3313 0.609
14.3616 0.099
14.3919 -0.464
14.4222 0.224
14.4524 0.132
14.4827 0.924
14.5130 0.311
14.5433 -0.198
14.5736 0.231
14.6038 0.295
14.6341 -0.109
14.6644 0.112
14.6947 -0.239
14.7250 -0.174
14.7552 0.048
14.7855 0.739
14.8158 -0.133
14.8461 -0.379
14.8764 0.030
14.9066 -0.446
14.9369 0.432
14.9672 0.216
14.9975 0.470
15.0277 0.151
15.0580 0.093
15.0883 -0.070
15.1186 -0.284
15.1489 -0.029
15.1791 0.278
15.2094 0.168
15.2397 0.528
15.2700 -0.050
15.3003 0.467
15.3305 -0.007
15.3608 -0.011
15.3911 0.350
15.4214 -0.122
15.4516 -0.230
15.4819 0.079
15.5122 0.389
15.5425 0.490
15.5728 0.384
15.6030 0.017
15.6333 0.431
15.6636 -0.248
15.6939 -0.197
15.7242 0.322
15.7544 0.008
15.7847 -0.513
15.8150 0.111
15.8453 0.058
15.8755 0.058
15.9058 0.214
15.9361 -0.202
15.9664 0.371
15.9967 -0.306
16.0269 -0.774
16.0572 1.207
16.0875 -0.042
16.1178 -0.509
16.1481 0.378
16.1783 0.119
16.2086 0.226
16.2389 -0.449
16.2692 0.283
16.2994 0.390
16.3297 -0.388
16.3600 0.084
16.3903 0.087
16.4206 -0.117
16.4508 0.616
16.4811 -0.578
16.5114 0.624
16.5417 0.004
16.5720 0.582
16.6022 0.118
16.6325 0.227
16.6628 0.337
16.6931 -0.334
16.7233 -0.537
16.7536 0.246
16.7839 -0.116
16.8142 0.094
16.8445 -0.320
16.8747 -0.265
16.9050 0.571
16.9353 0.209
16.9656 -0.048
16.9959 -0.253
17.0261 0.011
17.0564 -0.506
17.0867 0.176
17.1170 0.076
17.1472 -0.284
17.1775 -0.332
17.2078 0.142
17.2381 0.148
17.2684 0.518
17.2986 -0.414
17.3289 0.060
17.3592 0.119
17.3895 0.021
17.4198 -0.441
17.4500 0.139
17.4803 0.562
17.5106 0.205
17.5409 0.004
17.5712 0.481
17.6014 -0.136
17.6317 -0.337
17.6620 0.028
17.6923 0.340
17.7225 0.184
17.7528 0.028
17.7831 0.133
17.8134 0.290
17.8437 0.239
17.8739 0.032
17.9042 -0.070
17.9345 0.244
17.9648 0.923
17.9951 0.248
18.0253 -0.062
18.0556 -0.372
18.0859 0.256
18.1162 -0.001
18.1464 0.054
18.1767 0.214
18.2070 -0.459
18.2373 -0.195
18.2676 0.382
18.2978 -0.134
18.3281 -0.078
18.3584 -0.385
18.3887 0.297
18.4190 0.302
18.4492 -0.161
18.4795 0.053
18.5098 -0.201
18.5401 0.378
18.5703 0.228
18.6006 0.600
18.6309 -0.279
18.6612 -0.324
18.6915 -0.059
18.7217 0.050
18.7520 0.419
18.7823 0.529
18.8126 -0.456
18.8429 -0.294
18.8731 0.545
18.9034 -0.074
18.9337 -0.276
18.9640 0.355
18.9942 0.102
19.0245 0.682
19.0548 0.845
19.0851 0.331
19.1154 0.547
19.1456 0.034
19.1759 0.042
19.2062 0.363
19.2365 0.111
19.2668 0.276
19.2970 -0.340
19.3273 -0.019
19.3576 0.147
19.3879 0.469
19.4181 0.062
19.4484 -0.657
19.4787 -0.137
19.5090 0.592
19.5393 1.009
19.5695 -0.137
19.5998 0.801
19.6301 -0.084
19.6604 0.125
19.6907 0.178
19.7209 0.857
19.7512 0.389
19.7815 -0.026
19.8118 0.133
19.8420 0.395
19.8723 -0.175
19.9026 0.452
19.9329 0.090
19.9632 0.198
19.9934 0.045
20.0237 0.465
20.0540 0.156
20.0843 0.160
20.1146 0.581
20.1448 -0.092
20.1751 0.069
20.2054 -0.343
20.2357 -0.142
20.2659 0.633
20.2962 -0.207
20.3265 -0.004
20.3568 0.250
20.3871 -0.172
20.4173 0.187
20.4476 -0.235
20.4779 0.333
20.5082 -0.245
20.5385 0.480
20.5687 0.059
20.5990 0.315
20.6293 -0.158
20.6596 0.568
20.6899 0.408
20.7201 -0.272
20.7504 0.141
20.7807 0.555
20.8110 -0.489
20.8412 0.082
20.8715 0.080
20.9018 -0.391
20.9321 0.441
20.9624 0.387
20.9926 -0.500
21.0229 0.749
21.0532 -0.085
21.0835 0.019
21.1138 -0.138
21.1440 -0.138
21.1743 0.123
21.2046 -0.398
21.2349 -0.189
21.2651 -0.345
21.2954 0.229
21.3257 -0.395
21.3560 -0.237
21.3863 0.337
21.4165 -0.025
21.4468 -0.284
21.4771 -0.282
21.5074 -0.331
21.5377 0.296
21.5679 0.403
21.5982 -0.219
21.6285 0.149
21.6588 0.361
21.6890 -0.208
21.7193 -0.048
21.7496 -0.304
21.7799 -0.356
21.8102 0.270
21.8404 0.218
21.8707 0.010
21.9010 0.584
21.9313 0.013
21.9616 -0.246
21.9918 0.224
22.0221 0.226
22.0524 -0.501
22.0827 -0.186
22.1129 -0.288
22.1432 -0.025
22.1735 0.291
22.2038 0.294
22.2341 -0.275
22.2643 0.249
22.2946 -0.111
22.3249 -0.159
22.3552 -0.051
22.3855 0.839
22.4157 0.011
22.4460 -0.036
22.4763 0.073
22.5066 -0.130
22.5368 0.136
22.5671 0.299
22.5974 -0.164
22.6277 -0.314
22.6580 0.682
22.6882 -0.196
22.7185 0.123
22.7488 -0.026
22.7791 0.555
22.8094 -0.011
22.8396 -0.523
22.8699 -0.058
22.9002 0.356
22.9305 0.196
22.9607 0.350
22.9910 -0.330
23.0213 0.293
23.0516 0.187
23.0819 -0.179
23.1121 0.236
23.1424 -0.130
23.1727 0.598
23.2030 0.076
23.2333 -0.081
23.2635 0.231
23.2938 0.283
23.3241 -0.290
23.3544 -0.498
23.3846 0.439
23.4149 -0.029
23.4452 -0.133
23.4755 -0.132
23.5058 0.182
23.5360 0.808
23.5663 0.288
23.5966 0.134
23.6269 0.031
23.6572 -0.123
23.6874 0.192
23.7177 -0.118
23.7480 -0.428
23.7783 0.253
23.8086 0.099
23.8388 -0.262
23.8691 0.211
23.8994 -0.046
23.9297 0.167
23.9599 0.067
23.9902 0.384
24.0205 -0.080
24.0508 -0.336
24.0811 0.138
24.1113 0.561
24.1416 0.098
24.1719 0.208
24.2022 0.266
24.2325 0.272
24.2627 0.175
24.2930 -0.392
24.3233 0.136
24.3536 0.091
24.3838 -0.214
24.4141 -0.102
24.4444 0.167
24.4747 -0.086
24.5050 -0.286
24.5352 0.020
24.5655 -0.194
24.5958 -0.565
24.6261 0.367
24.6564 0.101
24.6866 -0.061
24.7169 -0.222
24.7472 -0.071
24.7775 0.237
24.8077 0.233
24.8380 -0.136
24.8683 0.172
24.8986 -0.092
24.9289 0.269
24.9591 0.266
24.9894 -0.154
25.0197 0.156
25.0500 0.049
25.0803 -0.318
25.1105 0.825
25.1408 0.407
25.1711 0.405
25.2014 0.039
25.2316 -0.119
25.2619 -0.016
25.2922 0.036
25.3225 0.868
25.3528 0.243
25.3830 -0.122
25.4133 0.087
25.4436 -0.382
25.4739 0.400
25.5042 0.036
25.5344 -0.015
25.5647 -0.014
25.5950 -0.065
25.6253 0.405
25.6555 -0.061
25.6858 -0.007
25.7161 0.255
25.7464 0.414
25.7767 0.261
25.8069 0.472
25.8372 0.371
25.8675 -0.095
25.8978 0.117
25.9281 -0.191
25.9583 0.229
25.9886 0.025
26.0189 0.655
26.0492 0.035
26.0794 -0.221
26.1097 0.305
26.1400 0.623
26.1703 -0.100
26.2006 -0.043
26.2308 -0.141
26.2611 -0.447
26.2914 0.445
26.3217 0.191
26.3520 0.667
26.3822 0.414
26.4125 -0.152
26.4428 -0.040
26.4731 -0.032
26.5034 -0.284
26.5336 -0.035
26.5639 0.371
26.5942 0.465
26.6245 0.663
26.6547 0.392
26.6850 -0.399
26.7153 0.633
26.7456 0.520
26.7759 0.302
26.8061 -0.123
26.8364 -0.445
26.8667 0.432
26.8970 0.320
26.9273 0.051
26.9575 0.044
26.9878 -0.120
27.0181 0.289
27.0484 -0.031
27.0786 -0.090
27.1089 0.425
27.1392 0.106
27.1695 0.099
27.1998 0.510
27.2300 0.296
27.2603 0.082
27.2906 0.024
27.3209 -0.137
27.3512 0.223
27.3814 0.010
27.4117 -0.047
27.4420 0.209
27.4723 0.309
27.5025 0.202
27.5328 -0.167
27.5631 0.611
27.5934 0.816
27.6237 0.345
27.6539 -0.335
27.6842 -0.077
27.7145 0.337
27.7448 0.335
27.7751 -0.239
27.8053 -0.293
27.8356 -0.242
27.8659 -0.295
27.8962 -0.088
27.9264 -0.297
27.9567 -0.297
27.9870 0.221
28.0173 0.634
28.0476 0.319
28.0778 0.212
28.1081 0.523
28.1384 -0.261
28.1687 0.414
28.1990 -0.004
28.2292 -0.162
28.2595 -0.163
28.2898 -0.216
28.3201 0.044
28.3503 -0.061
28.3806 0.303
28.4109 -0.218
28.4412 -0.061
28.4715 -0.217
28.5017 -0.217
28.5320 -0.008
28.5623 0.150
28.5926 0.463
28.6229 0.204
28.6531 -0.211
28.6834 -0.053
28.7137 0.314
28.7440 0.004
28.7742 0.059
28.8045 -0.251
28.8348 -0.040
28.8651 -0.297
28.8954 -0.141
28.9256 -0.142
28.9559 -0.038
28.9862 0.066
29.0165 0.326
29.0468 0.014
29.0770 -0.089
29.1073 -0.297
29.1376 -0.042
29.1679 -0.204
29.1981 -0.053
29.2284 0.254
29.2587 0.041
29.2890 0.036
29.3193 -0.021
29.3495 0.027
29.3798 0.023
29.4101 0.071
29.4404 -0.141
29.4707 -0.040
29.5009 -0.043
29.5312 -0.098
29.5615 0.316
29.5918 -0.312
29.6221 0.102
29.6523 0.205
29.6826 -0.266
29.7129 0.253
29.7432 -0.165
29.7734 0.511
29.8037 0.250
29.8340 0.145
29.8643 -0.272
29.8946 0.665
29.9248 0.092
29.9551 -0.116
29.9854 0.092
30.0157 0.145
30.0460 0.458
30.0762 0.251
30.1065 0.044
30.1368 -0.683
30.1671 -0.129
30.1973 0.165
30.2276 0.251
30.2579 -0.132
30.2882 0.007
30.3185 0.354
30.3487 0.232
30.3790 -0.410
30.4093 0.303
30.4396 0.390
30.4699 -0.095
30.5001 -0.163
30.5304 1.123
30.5607 -0.091
30.5910 0.727
30.6212 1.024
30.6515 0.228
30.6818 0.369
30.7121 1.032
30.7424 0.601
30.7726 0.274
30.8029 0.156
30.8332 0.403
30.8635 1.379
30.8938 0.272
30.9240 0.832
30.9543 1.600
30.9846 1.171
31.0149 1.471
31.0451 1.771
31.0754 1.499
31.1057 2.216
31.1360 2.257
31.1663 2.142
31.1965 2.808
31.2268 3.891
31.2571 2.682
31.2874 3.922
31.3177 4.172
31.3479 6.089
31.3782 5.559
31.4085 8.258
31.4388 7.519
31.4690 9.541
31.4993 12.085
31.5296 15.253
31.5599 15.922
31.5902 18.101
31.6204 20.333
31.6507 19.544
31.6810 18.130
31.7113 15.988
31.7416 12.908
31.7718 10.505
31.8021 9.249
31.8324 7.628
31.8627 6.840
31.8929 4.699
31.9232 3.391
31.9535 3.125
31.9838 2.808
32.0141 2.751
32.0443 2.017
32.0746 2.064
32.1049 2.008
32.1352 0.650
32.1655 1.635
32.1957 1.111
32.2260 0.795
32.2563 0.688
32.2866 1.206
32.3169 0.734
32.3471 0.732
32.3774 0.313
32.4077 0.050
32.4380 0.986
32.4682 0.411
32.4985 0.306
32.5288 0.044
32.5591 -0.634
32.5894 0.407
32.6196 -0.375
32.6499 0.510
32.6802 -0.427
32.7105 0.146
32.7408 0.146
32.7710 -0.270
32.8013 0.148
32.8316 0.670
32.8619 0.202
32.8921 0.256
32.9224 0.257
32.9527 -0.209
32.9830 -0.155
33.0133 -0.465
33.0435 0.048
33.0738 0.302
33.1041 -0.070
33.1344 -0.857
33.1647 0.386
33.1949 0.172
33.2252 -0.199
33.2555 -0.048
33.2858 -0.106
33.3160 -0.111
33.3463 -0.480
33.3766 0.192
33.4069 0.083
33.4372 -0.390
33.4674 -0.394
33.4977 -0.039
33.5280 0.368
33.5583 0.098
33.5886 0.245
33.6188 0.132
33.6491 -0.398
33.6794 -0.042
33.7097 0.783
33.7399 -0.111
33.7702 0.090
33.8005 0.811
33.8308 1.116
33.8611 0.797
33.8913 1.311
33.9216 2.085
33.9519 2.964
33.9822 2.593
34.0125 1.962
34.0427 4.352
34.0730 3.825
34.1033 6.060
34.1336 8.190
34.1638 11.310
34.1941 13.388
34.2244 17.394
34.2547 22.077
34.2850 20.146
34.3152 17.226
34.3455 15.555
34.3758 12.948
34.4061 9.195
34.4364 6.275
34.4666 5.595
34.4969 3.718
34.5272 2.465
34.5575 1.630
34.5877 2.305
34.6180 1.054
34.6483 1.469
34.6786 1.311
34.7089 1.831
34.7391 0.320
34.7694 1.101
34.7997 0.319
34.8300 -0.306
34.8603 0.163
34.8905 0.320
34.9208 0.841
34.9511 0.426
34.9814 0.166
35.0116 0.115
35.0419 -0.196
35.0722 0.639
35.1025 0.121
35.1328 0.331
35.1630 0.386
35.1933 0.388
35.2236 0.235
35.2539 0.342
35.2842 -0.019
35.3144 0.557
35.3447 0.874
35.3750 0.565
35.4053 0.153
35.4356 0.886
35.4658 0.422
35.4961 0.896
35.5264 2.724
35.5567 1.323
35.5869 1.745
35.6172 3.053
35.6475 2.590
35.6778 3.742
35.7081 4.061
35.7383 4.120
35.7686 5.064
35.7989 5.540
35.8292 6.120
35.8595 7.222
35.8897 9.521
35.9200 10.414
35.9503 13.912
35.9806 13.400
36.0108 17.888
36.0411 21.126
36.0714 24.572
36.1017 26.301
36.1320 23.498
36.1622 26.112
36.1925 22.892
36.2228 20.246
36.2531 16.351
36.2834 13.393
36.3136 10.122
36.3439 8.050
36.3742 7.228
36.4045 6.042
36.4347 4.960
36.4650 4.191
36.4953 3.422
36.5256 2.497
36.5559 2.457
36.5861 2.679
36.6164 0.556
36.6467 1.924
36.6770 1.365
36.7073 1.535
36.7375 0.038
36.7678 0.417
36.7981 -0.193
36.8284 0.603
36.8586 0.565
36.8889 0.581
36.9192 0.440
36.9495 -0.118
36.9798 0.888
37.0100 0.331
37.0403 0.556
37.0706 0.051
37.1009 -0.244
37.1312 -0.279
37.1614 0.050
37.1917 0.276
37.2220 0.398
37.2523 -0.001
37.2825 -0.243
37.3128 0.244
37.3431 0.002
37.3734 0.593
37.4037 -0.013
37.4339 -0.983
37.4642 0.078
37.4945 -0.319
37.5248 0.066
37.5551 -0.383
37.5853 0.262
37.6156 -0.030
37.6459 -0.373
37.6762 -0.042
37.7064 0.133
37.7367 0.204
37.7670 0.640
37.7973 -0.225
37.8276 0.107
37.8578 -0.550
37.8881 -0.113
37.9184 -0.301
37.9487 0.762
37.9790 0.002
38.0092 -0.290
38.0395 -0.080
38.0698 0.547
38.1001 -0.493
38.1304 -0.178
38.1606 0.189
38.1909 -0.173
38.2212 -0.222
38.2515 -0.115
38.2817 -0.164
38.3120 -0.160
38.3423 -0.208
38.3726 0.733
38.4029 0.373
38.4331 -0.144
38.4634 -0.035
38.4937 -0.134
38.5240 0.027
38.5543 -0.124
38.5845 -0.066
38.6148 0.200
38.6451 -0.419
38.6754 0.213
38.7056 -0.510
38.7359 -0.035
38.7662 -0.028
38.7965 -0.229
38.8268 -0.117
38.8570 0.046
38.8873 0.523
38.9176 0.010
38.9479 -0.138
38.9782 -0.234
39.0084 -0.069
39.0387 -0.112
39.0690 -0.311
39.0993 0.059
39.1295 -0.197
39.1598 0.173
39.1901 -0.238
39.2204 -0.128
39.2507 0.347
39.2809 0.145
39.3112 -0.005
39.3415 -0.050
39.3718 -0.095
39.4021 -0.088
39.4323 0.024
39.4626 -0.021
39.4929 -0.117
39.5232 -0.057
39.5534 0.003
39.5837 -0.092
39.6140 0.073
39.6443 -0.074
39.6746 -0.169
39.7048 -0.212
39.7351 -0.463
39.7654 0.169
39.7957 -0.502
39.8260 0.026
39.8562 -0.384
39.8865 -0.071
39.9168 -0.070
39.9471 -0.069
39.9773 0.036
40.0076 0.245
40.0379 -0.066
40.0682 -0.116
40.0985 0.042
40.1287 -0.268
40.1590 0.047
40.1893 -0.315
40.2196 -0.052
40.2499 0.056
40.2801 0.059
40.3104 0.115
40.3407 0.275
40.3710 0.383
40.4012 -0.238
40.4315 -0.234
40.4618 -0.077
40.4921 -0.234
40.5224 -0.129
40.5526 0.185
40.5829 -0.230
40.6132 -0.125
40.6435 0.190
40.6738 0.244
40.7040 0.194
40.7343 -0.116
40.7646 0.147
40.7949 -0.267
40.8251 -0.004
40.8554 0.208
40.8857 0.211
40.9160 0.215
40.9463 0.219
40.9765 0.015
41.0068 0.228
41.0371 -0.028
41.0674 0.289
41.0977 0.294
41.1279 -0.013
41.1582 -0.111
41.1885 0.259
41.2188 0.057
41.2491 -0.146
41.2793 0.225
41.3096 0.076
41.3399 -0.021
41.3702 -0.223
41.4004 -0.016
41.4307 -0.225
41.4610 0.451
41.4913 -0.070
41.5216 0.086
41.5518 0.398
41.5821 0.138
41.6124 0.346
41.6427 -0.122
41.6730 0.295
41.7032 0.296
41.7335 0.037
41.7638 0.247
41.7941 0.092
41.8243 0.146
41.8546 -0.060
41.8849 0.203
41.9152 -0.316
41.9455 -0.053
41.9757 0.002
42.0060 -0.046
42.0363 0.478
42.0666 0.273
42.0969 0.381
42.1271 0.021
42.1574 0.129
42.1877 0.030
42.2180 0.086
42.2482 -0.065
42.2785 0.409
42.3088 0.154
42.3391 -0.205
42.3694 -0.205
42.3996 0.104
42.4299 0.622
42.4602 -0.058
42.4905 0.096
42.5208 0.354
42.5510 0.612
42.5813 0.089
42.6116 0.139
42.6419 -0.071
42.6721 0.084
42.7024 0.031
42.7327 0.238
42.7630 -0.127
42.7933 0.029
42.8235 0.289
42.8538 0.497
42.8841 0.446
42.9144 -0.075
42.9447 -0.074
42.9749 0.083
43.0052 0.292
43.0355 0.294
43.0658 -0.017
43.0960 0.297
43.1263 0.195
43.1566 -0.011
43.1869 -0.165
43.2172 0.046
43.2474 -0.003
43.2777 0.000
43.3080 -0.205
43.3383 -0.110
43.3686 0.663
43.3988 0.081
43.4291 0.021
43.4594 0.377
43.4897 0.213
43.5199 0.362
43.5502 -0.010
43.5805 -0.017
43.6108 -0.181
43.6411 0.229
43.6713 0.223
43.7016 0.529
43.7319 0.002
43.7622 -0.212
43.7925 -0.218
43.8227 0.298
43.8530 -0.072
43.8833 -0.025
43.9136 0.074
43.9439 -0.086
43.9741 0.170
44.0044 0.166
44.0347 -0.099
44.0650 -0.050
44.0952 -0.053
44.1255 -0.213
44.1558 0.409
44.1861 0.094
44.2164 -0.169
44.2466 -0.171
44.2769 0.035
44.3072 -0.123
44.3375 -0.229
44.3678 0.134
44.3980 0.185
44.4283 0.132
44.4586 -0.129
44.4889 -0.234
44.5191 -0.285
44.5494 0.238
44.5797 -0.386
44.6100 -0.176
44.6403 0.191
44.6705 -0.119
44.7008 -0.169
44.7311 -0.114
44.7614 0.409
44.7917 0.152
44.8219 0.103
44.8522 0.055
44.8825 0.059
44.9128 0.011
44.9430 -0.141
44.9733 -0.033
45.0036 0.076
45.0339 0.133
45.0642 0.086
45.0944 -0.013
45.1247 -0.059
45.1550 0.051
45.1853 -0.204
45.2156 0.323
45.2458 -0.035
45.2761 -0.028
45.3064 -0.125
45.3367 -0.014
45.3669 -0.215
45.3972 -0.124
45.4275 0.018
45.4578 0.213
45.4881 0.305
45.5183 0.344
45.5486 -0.242
45.5789 -0.046
45.6092 0.203
45.6395 0.399
45.6697 -0.029
45.7000 0.272
45.7303 0.156
45.7606 -0.272
45.7908 0.134
45.8211 0.020
45.8514 0.165
45.8817 0.312
45.9120 0.406
45.9422 -0.229
45.9725 -0.238
46.0028 0.013
46.0331 -0.048
46.0634 -0.005
46.0936 0.507
46.1239 -0.230
46.1542 -0.134
46.1845 0.118
46.2147 0.527
46.2450 -0.418
46.2753 0.148
46.3056 -0.223
46.3359 0.134
46.3661 0.076
46.3964 0.017
46.4267 -0.041
46.4570 -0.203
46.4873 0.573
46.5175 -0.006
46.5478 0.145
46.5781 -0.120
46.6084 -0.021
46.6386 -0.546
46.6689 -0.029
46.6992 0.020
46.7295 0.173
46.7598 0.014
46.7900 0.011
46.8203 0.477
46.8506 0.058
46.8809 0.525
46.9112 0.523
46.9414 0.834
46.9717 0.624
47.0020 0.259
47.0323 1.039
47.0626 1.247
47.0928 1.142
47.1231 0.256
47.1534 1.350
47.1837 1.663
47.2139 2.184
47.2442 1.508
47.2745 2.238
47.3048 2.395
47.3351 3.803
47.3653 3.179
47.3956 4.275
47.4259 3.860
47.4562 4.643
47.4865 2.771
47.5167 2.982
47.5470 3.297
47.5773 2.415
47.6076 2.054
47.6378 2.213
47.6681 1.332
47.6984 1.023
47.7287 0.663
47.7590 0.563
47.7892 0.880
47.8195 0.625
47.8498 0.370
47.8801 0.948
47.9104 0.328
47.9406 0.959
47.9709 0.288
48.0012 0.399
48.0315 0.353
48.0617 -0.161
48.0920 0.314
48.1223 0.217
48.1526 0.173
48.1829 0.493
48.2131 0.240
48.2434 0.144
48.2737 0.361
48.3040 0.109
48.3343 0.222
48.3645 0.022
48.3948 -0.073
48.4251 0.353
48.4554 0.363
48.4856 -0.252
48.5159 -0.242
48.5462 0.173
48.5765 0.380
48.6068 0.118
48.6370 0.534
48.6673 0.221
48.6976 0.116
48.7279 -0.353
48.7582 0.168
48.7884 -0.196
48.8187 0.065
48.8490 0.221
48.8793 0.066
48.9095 0.119
48.9398 0.121
48.9701 0.070
49.0004 0.072
49.0307 0.074
49.0609 0.076
49.0912 -0.078
49.1215 -0.335
49.1518 0.188
49.1821 0.348
49.2123 0.195
49.2426 0.407
49.2729 0.150
49.3032 0.415
49.3334 0.054
49.3637 -0.150
49.3940 0.376
49.4243 0.016
49.4546 -0.135
49.4848 -0.234
49.5151 -0.079
49.5454 0.387
49.5757 0.282
49.6060 0.020
49.6362 0.018
49.6665 0.330
49.6968 0.069
49.7271 -0.296
49.7574 0.380
49.7876 0.068
49.8179 0.328
49.8482 0.016
49.8785 0.069
49.9087 0.122
49.9390 0.331
49.9693 0.332
49.9996 0.177
50.0299 -0.238
50.0601 -0.027
50.0904 -0.234
50.1207 -0.030
50.1510 0.070
50.1813 0.118
50.2115 0.166
50.2418 0.527
50.2721 0.211
50.3024 -0.522
50.3326 0.256
50.3629 -0.163
50.3932 0.043
50.4235 -0.064
50.4538 0.246
50.4840 -0.224
50.5143 -0.018
50.5446 -0.176
50.5749 0.240
50.6052 0.030
50.6354 -0.596
50.6657 0.029
50.6960 -0.024
50.7263 -0.232
50.7565 -0.128
50.7868 0.081
50.8171 0.237
50.8474 0.134
50.8777 0.187
50.9079 0.136
50.9382 0.085
50.9685 -0.121
50.9988 -0.015
51.0291 -0.013
51.0593 -0.011
51.0896 0.148
51.1199 0.255
51.1502 -0.315
51.1804 0.261
51.2107 -0.048
51.2410 -0.253
51.2713 0.009
51.3016 0.062
51.3318 -0.196
51.3621 0.170
51.3924 0.068
51.4227 -0.137
51.4530 -0.135
51.4832 0.024
51.5135 0.392
51.5438 0.083
51.5741 -0.070
51.6043 0.090
51.6346 0.042
51.6649 0.150
51.6952 0.207
51.7255 0.003
51.7557 0.373
51.7860 -0.143
51.8163 0.227
51.8466 -0.028
51.8769 -0.126
51.9071 -0.276
51.9374 0.087
51.9677 -0.173
51.9980 0.451
52.0282 0.243
52.0585 0.399
52.0888 0.035
52.1191 -0.068
52.1494 0.193
52.1796 0.090
52.2099 0.300
52.2402 0.145
52.2705 0.147
52.3008 0.097
52.3310 -0.005
52.3613 0.153
52.3916 0.312
52.4219 -0.049
52.4521 -0.046
52.4824 0.009
52.5127 0.221
52.5430 0.277
52.5733 0.437
52.6035 0.181
52.6338 0.186
52.6641 -0.279
52.6944 0.456
52.7247 0.304
52.7549 -0.107
52.7852 0.367
52.8155 0.009
52.8458 0.327
52.8761 -0.135
52.9063 0.132
52.9366 0.086
52.9669 0.093
52.9972 -0.160
53.0274 -0.205
53.0577 0.106
53.0880 0.105
53.1183 0.365
53.1486 0.208
53.1788 0.364
53.2091 0.155
53.2394 0.155
53.2697 0.051
53.3000 0.364
53.3302 0.000
53.3605 0.001
53.3908 0.783
53.4211 0.524
53.4513 0.057
53.4816 0.111
53.5119 0.165
53.5422 0.219
53.5725 0.378
53.6027 0.068
53.6330 -0.085
53.6633 0.283
53.6936 0.234
53.7239 -0.023
53.7541 0.450
53.7844 -0.171
53.8147 -0.219
53.8450 0.134
53.8752 0.122
53.9055 0.319
53.9358 0.464
53.9661 0.193
53.9964 0.338
54.0266 -0.141
54.0569 0.213
54.0872 0.359
54.1175 -0.015
54.1478 0.444
54.1780 -0.190
54.2083 0.061
54.2386 0.260
54.2689 -0.009
54.2991 -0.069
54.3294 -0.130
54.3597 0.018
54.3900 0.011
54.4203 -0.205
54.4505 -0.004
54.4808 0.353
54.5111 0.034
54.5414 -0.234
54.5717 -0.085
54.6019 -0.198
54.6322 0.159
54.6625 -0.109
54.6928 0.040
54.7230 -0.123
54.7533 -0.078
54.7836 0.176
54.8139 0.274
54.8442 0.215
54.8744 0.314
54.9047 0.047
54.9350 0.042
54.9653 -0.276
54.9956 -0.021
55.0258 0.027
55.0561 -0.290
55.0864 0.018
55.1167 -0.195
55.1469 -0.251
55.1772 -0.101
55.2075 0.204
55.2378 0.094
55.2681 0.400
55.2983 -0.022
55.3286 0.232
55.3589 0.123
55.3892 0.222
55.4195 -0.044
55.4497 -0.049
55.4800 0.207
55.5103 0.203
55.5406 -0.010
55.5709 -0.066
55.6011 0.243
55.6314 0.396
55.6617 0.028
55.6920 0.338
55.7222 0.439
55.7525 0.332
55.7828 0.017
55.8131 0.588
55.8434 0.013
55.8736 0.064
55.9039 0.427
55.9342 0.582
55.9645 0.529
55.9948 0.632
56.0250 0.736
56.0553 1.309
56.0856 1.256
56.1159 1.882
56.1461 1.465
56.1764 1.362
56.2067 1.102
56.2370 1.676
56.2673 2.302
56.2975 3.189
56.3278 4.389
56.3581 3.922
56.3884 4.184
56.4187 4.291
56.4489 5.804
56.4792 5.338
56.5095 5.445
56.5398 4.719
56.5700 4.254
56.6003 4.518
56.6306 2.751
56.6609 3.172
56.6912 3.176
56.7214 2.921
56.7517 2.561
56.7820 1.420
56.8123 1.373
56.8426 1.014
56.8728 1.593
56.9031 1.703
56.9334 1.136
56.9637 0.570
56.9939 0.472
57.0242 0.687
57.0545 0.538
57.0848 0.493
57.1151 0.605
57.1453 0.456
57.1756 0.725
57.2059 0.004
57.2362 -0.040
57.2665 0.073
57.2967 0.498
57.3270 0.195
57.3573 0.100
57.3876 0.266
57.4178 -0.037
57.4481 0.077
57.4784 -0.017
57.5087 0.410
57.5390 0.473
57.5692 0.119
57.5995 0.339
57.6298 0.402
57.6601 -0.107
57.6904 0.009
57.7206 0.229
57.7509 -0.123
57.7812 -0.215
57.8115 0.042
57.8417 -0.066
57.8720 0.295
57.9023 0.344
57.9326 0.029
57.9629 -0.026
57.9931 0.388
58.0234 0.073
58.0537 0.436
58.0840 0.122
58.1143 -0.140
58.1445 0.015
58.1748 0.013
58.2051 -0.092
58.2354 0.064
58.2656 -0.249
58.2959 0.167
58.3262 0.063
58.3565 -0.145
58.3868 -0.092
58.4170 -0.144
58.4473 -0.091
58.4776 -0.194
58.5079 0.068
58.5382 -0.087
58.5684 0.123
58.5987 -0.083
58.6290 -0.133
58.6593 0.286
58.6896 -0.024
58.7198 0.292
58.7501 -0.070
58.7804 -0.327
58.8107 0.034
58.8409 -0.125
58.8712 0.341
58.9015 -0.235
58.9318 0.075
58.9621 -0.031
58.9923 0.227
59.0226 -0.139
59.0529 -0.037
59.0832 0.222
59.1135 0.013
59.1437 0.064
59.1740 -0.145
59.2043 0.115
59.2346 0.114
59.2648 -0.302
59.2951 0.115
59.3254 -0.302
59.3557 -0.145
59.3860 0.012
59.4162 0.325
59.4465 -0.091
59.4768 0.066
59.5071 0.172
59.5374 0.121
59.5676 0.071
59.5979 -0.083
59.6282 0.336
59.6585 -0.078
59.6887 -0.128
59.7190 0.136
59.7493 -0.226
59.7796 -0.014
59.8099 -0.062
59.8401 -0.215
59.8704 -0.111
59.9007 -0.111
59.9310 0.254
59.9613 -0.006
59.9915 -0.005
60.0218 0.100
60.0521 -0.315
60.0824 0.207
60.1126 0.105
60.1429 0.055
60.1732 -0.151
60.2035 0.111
60.2338 0.062
60.2640 -0.300
60.2943 -0.099
60.3246 0.623
60.3549 0.148
60.3852 0.454
60.4154 0.135
60.4457 0.077
60.4760 0.071
60.5063 -0.039
60.5365 -0.096
60.5668 -0.154
60.5971 -0.107
60.6274 0.097
60.6577 -0.220
60.6879 -0.224
60.7182 -0.126
60.7485 -0.288
60.7788 0.123
60.8091 0.118
60.8393 -0.148
60.8696 0.004
60.8999 -0.001
60.9302 -0.057
60.9604 -0.113
60.9907 0.091
61.0210 0.244
61.0513 -0.020
61.0816 -0.076
61.1118 0.234
61.1421 0.075
61.1724 -0.449
61.2027 0.018
61.2330 -0.036
61.2632 0.118
61.2935 -0.196
61.3238 0.011
61.3541 0.061
61.3844 0.165
61.4146 -0.253
61.4449 -0.209
61.4752 -0.165
61.5055 -0.225
61.5357 -0.389
61.5660 0.333
61.5963 0.430
61.6266 -0.150
61.6569 -0.209
61.6871 0.045
61.7174 -0.118
61.7477 -0.124
61.7780 -0.130
61.8083 -0.083
61.8385 -0.037
61.8688 0.635
61.8991 -0.151
61.9294 0.105
61.9596 -0.056
61.9899 -0.008
62.0202 0.717
62.0505 0.036
62.0808 0.137
62.1110 0.029
62.1413 0.078
62.1716 0.596
62.2019 0.385
62.2322 0.955
62.2624 0.380
62.2927 0.899
62.3230 0.584
62.3533 0.479
62.3835 0.529
62.4138 1.518
62.4441 1.986
62.4744 2.245
62.5047 1.255
62.5349 2.245
62.5652 2.765
62.5955 2.453
62.6258 2.401
62.6561 2.767
62.6863 3.653
62.7166 4.383
62.7469 4.072
62.7772 3.657
62.8074 3.294
62.8377 3.088
62.8680 4.131
62.8983 2.780
62.9286 2.626
62.9588 2.108
62.9891 1.382
63.0194 1.281
63.0497 0.660
63.0800 1.289
63.1102 1.084
63.1405 0.307
63.1708 1.562
63.2011 0.889
63.2313 0.582
63.2616 0.378
63.2919 -0.085
63.3222 0.702
63.3525 -0.126
63.3827 -0.276
63.4130 0.512
63.4433 -0.003
63.4736 0.212
63.5039 -0.041
63.5341 0.435
63.5644 -0.183
63.5947 -0.280
63.6250 0.139
63.6552 0.245
63.6855 -0.326
63.7158 -0.167
63.7461 0.461
63.7764 -0.005
63.8066 -0.106
63.8369 -0.155
63.8672 0.213
63.8975 0.009
63.9278 -0.091
63.9580 0.226
63.9883 -0.082
64.0186 -0.390
64.0489 0.396
64.0791 -0.120
64.1094 -0.010
64.1397 -0.057
64.1700 0.053
64.2003 0.007
64.2305 -0.090
64.2608 -0.136
64.2911 -0.025
64.3214 -0.122
64.3517 0.197
64.3819 -0.004
64.4122 -0.256
64.4425 0.272
64.4728 0.749
64.5031 -0.180
64.5333 -0.067
64.5636 -0.215
64.5939 -0.168
64.6242 0.036
64.6544 -0.230
64.6847 0.235
64.7150 0.126
64.7453 -0.242
64.7756 -0.142
64.8058 0.011
64.8361 -0.409
64.8664 0.160
64.8967 -0.051
64.9270 0.207
64.9572 -0.056
64.9875 -0.110
65.0178 -0.112
65.0481 -0.062
65.0783 -0.012
65.1086 -0.221
65.1389 -0.014
65.1692 -0.015
65.1995 -0.172
65.2297 -0.224
65.2600 0.029
65.2903 -0.029
65.3206 -0.035
65.3509 0.063
65.3811 -0.360
65.4114 0.208
65.4417 -0.162
65.4720 -0.063
65.5022 -0.068
65.5325 -0.125
65.5628 -0.234
65.5931 -0.033
65.6234 -0.613
65.6536 0.317
65.6839 0.101
65.7142 -0.166
65.7445 -0.120
65.7748 -0.127
65.8050 0.180
65.8353 0.330
65.8656 -0.197
65.8959 0.267
65.9261 0.053
65.9564 -0.004
65.9867 -0.113
66.0170 0.091
66.0473 0.086
66.0775 -0.022
66.1078 0.234
66.1381 0.231
66.1684 0.383
66.1987 0.589
66.2289 0.898
66.2592 0.583
66.2895 0.007
66.3198 0.109
66.3500 0.263
66.3803 -0.103
66.4106 0.051
66.4409 0.310
66.4712 0.257
66.5014 0.464
66.5317 0.203
66.5620 -0.266
66.5923 0.202
66.6226 -0.267
66.6528 0.202
66.6831 -0.110
66.7134 0.099
66.7437 -0.057
66.7739 0.361
66.8042 0.310
66.8345 0.051
66.8648 -0.104
66.8951 0.211
66.9253 -0.256
66.9556 -0.045
66.9859 -0.251
67.0162 -0.104
67.0465 -0.165
67.0767 0.243
67.1070 -0.391
67.1373 -0.139
67.1676 0.218
67.1978 -0.259
67.2281 -0.265
67.2584 0.249
67.2887 0.191
67.3190 0.342
67.3492 0.805
67.3795 0.175
67.4098 0.691
67.4401 0.842
67.4704 0.942
67.5006 1.979
67.5309 0.881
67.5612 0.929
67.5915 0.926
67.6218 1.130
67.6520 1.336
67.6823 1.541
67.7126 2.267
67.7429 1.692
67.7731 2.939
67.8034 2.416
67.8337 1.946
67.8640 2.100
67.8943 2.672
67.9245 2.306
67.9548 2.357
67.9851 2.513
68.0154 2.512
68.0457 1.210
68.0759 1.730
68.1062 1.106
68.1365 1.158
68.1668 0.429
68.1970 1.055
68.2273 0.692
68.2576 0.432
68.2879 1.111
68.3182 0.540
68.3484 0.177
68.3787 -0.081
68.4090 0.182
68.4393 0.445
68.4696 -0.021
68.4998 0.451
68.5301 0.350
68.5604 -0.064
68.5907 0.201
68.6209 0.569
68.6512 0.261
68.6815 0.526
68.7118 0.166
68.7421 0.535
68.7723 0.592
68.8026 0.181
68.8329 0.238
68.8632 0.296
68.8935 1.344
68.9237 1.246
68.9540 0.419
68.9843 1.519
69.0146 1.266
69.0448 0.439
69.0751 0.759
69.1054 0.610
69.1357 0.306
69.1660 0.261
69.1962 0.947
69.2265 0.382
69.2568 -0.286
69.2871 0.660
69.3174 0.148
69.3476 -0.051
69.3779 0.011
69.4082 0.333
69.4385 0.187
69.4687 -0.115
69.4990 0.103
69.5293 0.218
69.5596 -0.240
69.5899 0.188
69.6201 0.095
69.6504 -0.154
69.6807 0.067
69.7110 0.079
69.7413 0.195
69.7715 -0.261
69.8018 -0.040
69.8321 0.285
69.8624 -0.066
69.8926 0.155
69.9229 -0.248
69.9532 -0.185
69.9835 0.087
70.0138 0.150
70.0440 0.005
70.0743 0.069
70.1046 -0.336
70.1349 -0.011
70.1652 -0.051
70.1954 -0.194
70.2257 -0.138
70.2560 -0.029
70.2863 -0.285
70.3166 0.136
70.3468 0.142
70.3771 0.147
70.4074 0.153
70.4377 0.315
70.4679 -0.096
70.4982 0.014
70.5285 -0.083
70.5588 0.288
70.5891 0.086
70.6193 -0.063
70.6496 0.049
70.6799 0.109
70.7102 0.116
70.7405 -0.188
70.7707 -0.139
70.8010 0.066
70.8313 0.064
70.8616 -0.251
70.8918 0.372
70.9221 0.161
70.9524 0.160
70.9827 -0.102
71.0130 0.157
71.0432 0.000
71.0735 -0.053
71.1038 0.206
71.1341 0.206
71.1644 0.102
71.1946 -0.211
71.2249 0.154
71.2552 0.363
71.2855 0.155
71.3157 0.208
71.3460 -0.207
71.3763 0.055
71.4066 -0.204
71.4369 -0.046
71.4671 0.112
71.4974 0.219
71.5277 0.065
71.5580 0.172
71.5883 0.071
71.6185 -0.030
71.6488 0.286
71.6791 0.342
71.7094 -0.123
71.7396 -0.171
71.7699 0.088
71.8002 -0.018
71.8305 0.086
71.8608 0.189
71.8910 0.032
71.9213 0.188
71.9516 0.084
71.9819 0.240
72.0122 0.085
72.0424 0.085
72.0727 -0.122
72.1030 0.296
72.1333 0.036
72.1635 0.194
72.1938 -0.273
72.2241 0.406
72.2544 0.356
72.2847 0.203
72.3149 0.153
72.3452 0.208
72.3755 0.263
72.4058 0.319
72.4361 0.062
72.4663 0.222
72.4966 0.070
72.5269 0.595
72.5572 0.599
72.5874 0.447
72.6177 0.713
72.6480 0.718
72.6783 -0.058
72.7086 0.260
72.7388 0.266
72.7691 0.168
72.7994 0.226
72.8297 0.337
72.8600 0.291
72.8902 0.194
72.9205 -0.112
72.9508 -0.260
72.9811 0.099
73.0113 0.198
73.0416 -0.067
73.0719 0.189
73.1022 0.081
73.1325 0.129
73.1627 0.229
73.1930 0.330
73.2233 -0.038
73.2536 -0.145
73.2839 0.060
73.3141 0.370
73.3444 0.159
73.3747 0.209
73.4050 0.155
73.4353 -0.211
73.4655 0.256
73.4958 -0.110
73.5261 -0.059
73.5564 0.201
73.5866 0.408
73.6169 -0.217
73.6472 0.043
73.6775 0.199
73.7078 0.356
73.7380 0.096
73.7683 0.409
73.7986 -0.163
73.8289 0.203
73.8592 0.100
73.8894 -0.159
73.9197 -0.108
73.9500 -0.057
73.9803 0.255
74.0105 0.150
74.0408 -0.059
74.0711 0.410
74.1014 0.357
74.1317 0.097
74.1619 0.098
74.1922 -0.110
74.2225 0.099
74.2528 0.152
74.2831 -0.159
74.3133 -0.216
74.3436 0.195
74.3739 -0.123
74.4042 0.706
74.4344 0.024
74.4647 -0.033
74.4950 0.119
74.5253 0.219
74.5556 0.320
74.5858 0.212
74.6161 -0.052
74.6464 0.205
74.6767 -0.110
74.7070 -0.061
74.7372 -0.011
74.7675 -0.118
74.7978 0.036
74.8281 0.191
74.8583 0.033
74.8886 -0.072
74.9189 -0.022
74.9492 -0.127
74.9795 0.185
75.0097 -0.024
75.0400 -0.024
75.0703 -0.076
75.1006 -0.128
75.1309 0.133
75.1611 0.081
75.1914 -0.126
75.2217 -0.073
75.2520 0.449
75.2822 -0.122
75.3125 -0.016
75.3428 0.194
75.3731 0.092
75.4034 0.199
75.4336 -0.007
75.4639 -0.056
75.4942 -0.001
75.5245 0.211
75.5548 0.058
75.5850 -0.094
75.6153 0.430
75.6456 0.070
75.6759 -0.186
75.7061 -0.082
75.7364 -0.031
75.7667 -0.135
75.7970 0.385
75.8273 0.021
75.8575 -0.135
75.8878 0.022
75.9181 -0.238
75.9484 -0.038
75.9787 0.631
76.0089 -0.002
76.0392 0.199
76.0695 0.191
76.0998 0.184
76.1301 0.177
76.1603 -0.298
76.1906 -0.096
76.2209 -0.051
76.2512 -0.057
76.2814 -0.063
76.3117 0.244
76.3420 0.395
76.3723 0.129
76.4026 -0.240
76.4328 0.068
76.4631 0.115
76.4934 -0.045
76.5237 0.159
76.5540 0.155
76.5842 0.360
76.6145 0.096
76.6448 0.197
76.6751 0.194
76.7053 -0.069
76.7356 0.085
76.7659 0.134
76.7962 0.028
76.8265 0.547
76.8567 -0.027
76.8870 0.284
76.9173 0.126
76.9476 0.073
76.9779 -0.032
77.0081 0.385
77.0384 0.072
77.0687 0.332
77.0990 0.437
77.1292 -0.032
77.1595 0.281
77.1898 -0.082
77.2201 0.283
77.2504 0.076
77.2806 0.130
77.3109 0.184
77.3412 0.238
77.3715 -0.072
77.4018 -0.122
77.4320 -0.015
77.4623 0.040
77.4926 -0.061
77.5229 -0.162
77.5531 0.258
77.5834 0.105
77.6137 -0.047
77.6440 -0.199
77.6743 0.118
77.7045 -0.086
77.7348 0.023
77.7651 0.133
77.7954 0.294
77.8257 0.039
77.8559 -0.267
77.8862 -0.058
77.9165 0.048
77.9468 0.154
77.9770 0.156
78.0073 0.158
78.0376 -0.256
78.0679 -0.045
78.0982 -0.094
78.1284 -0.091
78.1587 0.069
78.1890 0.020
78.2193 0.076
78.2496 0.184
78.2798 0.085
78.3101 -0.171
78.3404 -0.171
78.3707 -0.223
78.4009 0.402
78.4312 0.247
78.4615 -0.013
78.4918 0.197
78.5221 0.146
78.5523 -0.009
78.5826 0.254
78.6129 0.099
78.6432 0.258
78.6735 -0.052
78.7037 -0.206
78.7340 0.214
78.7643 -0.043
78.7946 -0.040
78.8248 0.120
78.8551 0.176
78.8854 -0.132
78.9157 0.341
78.9460 -0.071
78.9762 -0.015
79.0065 -0.218
79.0368 0.256
79.0671 0.053
79.0974 0.111
79.1276 -0.092
79.1579 0.019
79.1882 -0.184
79.2185 -0.032
79.2488 -0.141
79.2790 0.271
79.3093 0.319
79.3396 -0.101
79.3699 0.051
79.4001 -0.056
79.4304 -0.060
79.4607 -0.011
79.4910 0.039
79.5213 0.140
79.5515 -0.070
79.5818 0.448
79.6121 -0.127
79.6424 0.653
79.6727 -0.130
79.7029 0.182
79.7332 -0.028
79.7635 0.388
79.7938 0.231
79.8240 -0.029
79.8543 -0.186
79.8846 0.019
79.9149 0.068
79.9452 0.274
79.9754 -0.145
80.0057 0.061
80.0360 0.111
80.0663 0.109
80.0966 -0.206
80.1268 0.314
80.1571 0.208
80.1874 -0.001
80.2177 0.207
80.2479 0.206
80.2782 -0.055
80.3085 0.258
80.3388 -0.003
80.3691 0.206
80.3993 -0.262
80.4296 0.312
80.4599 0.104
80.4902 -0.051
80.5205 0.003
80.5507 0.004
80.5810 0.163
80.6113 0.061
80.6416 0.011
80.6718 0.274
80.7021 -0.036
80.7324 0.071
80.7627 -0.290
80.7930 -0.087
80.8232 0.063
80.8535 -0.046
80.8838 0.001
80.9141 -0.004
80.9444 -0.060
80.9746 0.092
81.0049 0.192
81.0352 0.084
81.0655 -0.024
81.0957 0.129
81.1260 0.125
81.1563 -0.086
81.1866 0.172
81.2169 0.273
81.2471 0.219
81.2774 -0.044
81.3077 0.580
81.3380 0.005
81.3683 -0.101
81.3985 0.211
81.4288 0.054
81.4591 0.157
81.4894 -0.208
81.5196 0.156
81.5499 0.052
81.5802 0.052
81.6105 0.157
81.6408 0.366
81.6710 0.054
81.7013 -0.153
81.7316 -0.048
81.7619 -0.099
81.7922 0.059
81.8224 -0.303
81.8527 0.220
81.8830 0.170
81.9133 -0.036
81.9436 -0.085
81.9738 0.283
82.0041 -0.235
82.0344 0.133
82.0647 0.137
82.0949 0.089
82.1252 0.301
82.1555 0.045
82.1858 -0.054
82.2161 0.055
82.2463 0.008
82.2766 -0.143
82.3069 0.123
82.3372 0.233
82.3675 0.343
82.3977 -0.015
82.4280 -0.061
82.4583 -0.159
82.4886 0.047
82.5188 -0.165
82.5491 0.197
82.5794 -0.066
82.6097 0.036
82.6400 0.242
82.6702 0.032
82.7005 0.239
82.7308 -0.023
82.7611 0.185
82.7914 0.027
82.8216 0.131
82.8519 0.078
82.8822 -0.026
82.9125 0.234
82.9427 0.234
82.9730 0.027
83.0033 0.236
83.0336 0.132
83.0639 0.238
83.0941 0.239
83.1244 -0.124
83.1547 0.190
83.1850 0.088
83.2153 -0.014
83.2455 -0.116
83.2758 0.147
83.3061 0.202
83.3364 0.153
83.3666 -0.104
83.3969 -0.204
83.4272 0.216
83.4575 0.220
83.4878 0.120
83.5180 0.125
83.5483 0.286
83.5786 0.291
83.6089 0.140
83.6392 -0.168
83.6694 0.150
83.6997 -0.156
83.7300 -0.161
83.7603 0.303
83.7905 0.194
83.8208 0.085
83.8511 0.081
83.8814 -0.184
83.9117 -0.086
83.9419 0.064
83.9722 0.423
84.0025 -0.208
84.0328 -0.110
84.0631 0.145
84.0933 0.140
84.1236 0.135
84.1539 0.131
84.1842 0.126
84.2144 0.330
84.2447 0.066
84.2750 0.270
84.3053 -0.150
84.3356 0.003
84.3658 0.208
84.3961 0.205
84.4264 0.046
84.4567 0.200
84.4870 0.458
84.5172 0.196
84.5475 0.038
84.5778 0.036
84.6081 0.035
84.6383 -0.175
84.6686 0.189
84.6989 0.084
84.7292 0.188
84.7595 0.239
84.7897 0.031
84.8200 -0.437
84.8503 0.136
84.8806 0.189
84.9109 0.033
84.9411 -0.122
84.9714 0.192
85.0017 -0.119
85.0320 -0.273
85.0623 0.197
85.0925 -0.165
85.1228 -0.006
85.1531 -0.004
85.1834 0.208
85.2136 0.315
85.2439 0.266
85.2742 -0.043
85.3045 0.117
85.3348 0.330
85.3650 0.542
85.3953 0.442
85.4256 0.083
85.4559 -0.069
85.4862 -0.012
85.5164 0.098
85.5467 0.051
85.5770 0.109
85.6073 0.272
85.6375 0.278
85.6678 0.389
85.6981 -0.074
85.7284 -0.067
85.7587 -0.007
85.7889 -0.156
85.8192 -0.005
85.8495 0.303
85.8798 0.247
85.9101 0.242
85.9403 0.186
85.9706 0.287
86.0009 -0.081
86.0312 0.072
86.0614 0.069
86.0917 0.326
86.1220 0.115
86.1523 0.165
86.1826 0.111
86.2128 -0.203
86.2431 0.055
86.2734 -0.102
86.3037 0.157
86.3340 -0.053
86.3642 0.259
86.3945 0.258
86.4248 -0.002
86.4551 -0.159
86.4853 -0.060
86.5156 0.404
86.5459 0.139
86.5762 0.291
86.6065 -0.182
86.6367 -0.030
86.6670 0.227
86.6973 0.224
86.7276 0.012
86.7579 0.269
86.7881 0.006
86.8184 -0.153
86.8487 0.157
86.8790 -0.053
86.9092 0.049
86.9395 -0.213
86.9698 -0.058
87.0001 -0.164
87.0304 -0.060
87.0606 -0.009
87.0909 -0.218
87.1212 0.094
87.1515 0.042
87.1818 0.094
87.2120 0.251
87.2423 -0.061
87.2726 0.200
87.3029 0.097
87.3331 -0.110
87.3634 -0.265
87.3937 0.094
87.4240 0.088
87.4543 0.083
87.4845 0.182
87.5148 0.073
87.5451 -0.035
87.5754 0.169
87.6057 -0.252
87.6359 0.161
87.6662 0.001
87.6965 -0.315
87.7268 0.150
87.7571 -0.269
87.7873 -0.116
87.8176 -0.066
87.8479 -0.016
87.8782 -0.227
87.9084 0.448
87.9387 -0.178
87.9690 0.029
87.9993 -0.233
88.0296 -0.026
88.0598 0.286
88.0901 -0.079
88.1204 0.025
88.1507 -0.079
88.1810 -0.183
88.2112 -0.029
88.2415 0.126
88.2718 -0.292
88.3021 -0.136
88.3323 0.019
88.3626 -0.034
88.3929 -0.242
88.4232 0.015
88.4535 -0.092
88.4837 0.113
88.5140 0.006
88.5443 0.160
88.5746 0.158
88.6049 0.364
88.6351 0.206
88.6654 0.100
88.6957 -0.318
88.7260 0.097
88.7562 -0.060
88.7865 0.148
88.8168 0.147
88.8471 0.147
88.8774 -0.009
88.9076 -0.217
88.9379 -0.009
88.9682 -0.217
88.9985 -0.010
89.0288 0.145
89.0590 0.039
89.0893 0.299
89.1196 -0.066
89.1499 0.506
89.1801 0.194
89.2104 0.246
89.2407 0.142
89.2710 0.403
89.3013 0.560
89.3315 0.717
89.3618 0.406
89.3921 0.563
89.4224 0.565
89.4527 0.671
89.4829 0.673
89.5132 0.207
89.5435 0.574
89.5738 0.733
89.6040 0.475
89.6343 0.843
89.6646 0.534
89.6949 0.121
89.7252 0.542
89.7554 0.181
89.7857 0.238
89.8160 0.294
89.8463 0.507
89.8766 0.200
89.9068 0.153
89.9371 -0.206
89.9674 0.164
89.9977 0.587
90.0279 0.437
90.0582 0.182
90.0885 0.085
90.1188 0.352
90.1491 0.307
90.1793 0.210
90.2096 0.165
90.2399 -0.139
90.2702 -0.027
90.3005 0.241
90.3307 0.250
90.3610 0.206
90.3913 0.059
90.4216 0.016
90.4518 -0.184
90.4821 -0.035
90.5124 0.062
90.5427 0.211
90.5730 -0.161
90.6032 0.145
90.6335 0.138
90.6638 -0.076
90.6941 0.178
90.7244 0.224
90.7546 -0.094
90.7849 -0.048
90.8152 -0.105
90.8455 0.359
90.8758 0.042
90.9060 0.089
90.9363 0.293
90.9666 -0.180
90.9969 0.285
91.0271 0.021
91.0574 0.174
91.0877 -0.038
91.1180 0.063
91.1483 -0.096
91.1785 0.058
91.2088 -0.101
91.2391 -0.155
91.2694 -0.052
91.2997 0.311
91.3299 0.153
91.3602 0.152
91.3905 -0.318
91.4208 0.098
91.4510 -0.059
91.4813 0.097
91.5116 0.201
91.5419 -0.059
91.5722 -0.319
91.6024 0.038
91.6327 0.084
91.6630 -0.079
91.6933 -0.033
91.7236 -0.039
91.7538 0.007
91.7841 0.002
91.8144 -0.004
91.8447 -0.217
91.8749 -0.013
91.9052 0.087
91.9355 -0.126
91.9658 -0.130
91.9961 0.179
92.0263 0.124
92.0566 -0.348
92.0869 -0.145
92.1172 0.059
92.1475 0.159
92.1777 0.051
92.2080 0.047
92.2383 -0.425
92.2686 -0.012
92.2988 -0.067
92.3291 0.034
92.3594 -0.125
92.3897 -0.075
92.4200 -0.025
92.4502 -0.183
92.4805 0.127
92.5108 -0.082
92.5411 0.177
92.5714 0.019
92.6016 -0.190
92.6319 0.018
92.6622 0.486
92.6925 0.173
92.7227 0.330
92.7530 0.382
92.7833 0.070
92.8136 0.071
92.8439 -0.085
92.8741 0.073
92.9044 0.022
92.9347 0.232
92.9650 0.026
92.9953 -0.077
93.0255 0.134
93.0558 -0.176
93.0861 0.087
93.1164 0.038
93.1466 -0.063
93.1769 -0.268
93.2072 0.100
93.2375 0.052
93.2678 -0.361
93.2980 0.112
93.3283 0.065
93.3586 0.174
93.3889 0.023
93.4192 -0.233
93.4494 -0.019
93.4797 -0.170
93.5100 0.201
93.5403 0.259
93.5706 -0.360
93.6008 -0.093
93.6311 -0.034
93.6614 -0.183
93.6917 -0.081
93.7219 0.126
93.7522 0.072
93.7825 0.019
93.8128 -0.190
93.8431 -0.039
93.8733 -0.045
93.9036 -0.206
93.9339 0.102
93.9642 -0.007
93.9945 -0.324
94.0247 0.089
94.0550 -0.123
94.0853 0.081
94.1156 0.078
94.1458 -0.030
94.1761 -0.137
94.2064 -0.088
94.2367 -0.194
94.2670 0.058
94.2972 -0.262
94.3275 0.095
94.3578 0.088
94.3881 -0.440
94.4184 0.178
94.4486 0.015
94.4789 -0.043
94.5092 0.003
94.5395 0.101
94.5697 -0.009
94.6000 0.142
94.6303 -0.488
94.6606 -0.024
94.6909 -0.081
94.7211 0.175
94.7514 -0.246
94.7817 -0.042
94.8120 0.371
94.8423 0.054
94.8725 0.416
94.9028 -0.161
94.9331 0.149
94.9634 -0.010
94.9936 0.196
95.0239 0.610
95.0542 0.452
95.0845 0.450
95.1148 0.292
95.1450 0.603
95.1753 0.341
95.2056 0.288
95.2359 0.444
95.2662 0.391
95.2964 0.131
95.3267 0.391
95.3570 0.391
95.3873 0.339
95.4175 0.444
95.4478 0.341
95.4781 0.186
95.5084 0.343
95.5387 0.084
95.5689 0.242
95.5992 0.036
95.6295 0.194
95.6598 0.092
95.6901 -0.009
95.7203 -0.059
95.7506 0.049
95.7809 -0.104
95.8112 0.055
95.8414 -0.045
95.8717 0.011
95.9020 -0.141
95.9323 0.124
95.9626 -0.028
95.9928 -0.127
96.0231 -0.174
96.0534 -0.221
96.0837 0.147
96.1140 -0.213
96.1442 -0.105
96.1745 -0.205
96.2048 0.005
96.2351 0.008
96.2653 0.166
96.2956 0.013
96.3259 0.015
96.3562 0.123
96.3865 -0.083
96.4167 -0.027
96.4470 -0.232
96.4773 0.137
96.5076 0.037
96.5379 -0.271
96.5681 -0.058
96.5984 -0.209
96.6287 0.057
96.6590 0.010
96.6893 -0.400
96.7195 -0.035
96.7498 -0.033
96.7801 0.073
96.8104 -0.082
96.8406 -0.184
96.8709 0.079
96.9012 0.081
96.9315 -0.229
96.9618 0.139
96.9920 0.142
97.0223 0.094
97.0526 -0.111
97.0829 0.101
97.1132 0.053
97.1434 0.005
97.1737 0.166
97.2040 0.119
97.2343 0.020
97.2645 0.181
97.2948 -0.022
97.3251 -0.120
97.3554 -0.167
97.3857 -0.161
97.4159 0.210
97.4462 0.009
97.4765 0.224
97.5068 -0.030
97.5371 0.030
97.5673 -0.171
97.5976 -0.125
97.6279 0.026
97.6582 0.176
97.6884 -0.141
97.7187 0.114
97.7490 -0.099
97.7793 0.418
97.8096 0.361
97.8398 0.253
97.8701 0.301
97.9004 0.193
97.9307 0.034
97.9610 0.343
97.9912 0.080
98.0215 -0.183
98.0518 -0.138
98.0821 0.637
98.1123 0.163
98.1426 0.469
98.1729 0.203
98.2032 0.302
98.2335 0.401
98.2637 0.136
98.2940 0.131
98.3243 -0.134
98.3546 0.018
98.3849 0.274
98.4151 0.271
98.4454 0.267
98.4757 0.628
98.5060 0.000
98.5362 0.101
98.5665 0.099
98.5968 0.096
98.6271 0.146
98.6574 0.092
98.6876 0.403
98.7179 0.245
98.7482 0.296
98.7785 -0.278
98.8088 0.137
98.8390 -0.124
98.8693 0.345
98.8996 0.344
98.9299 0.136
98.9601 -0.228
98.9904 -0.072
99.0207 -0.019
99.0510 -0.070
99.0813 0.087
99.1115 0.245
99.1418 0.246
99.1721 0.300
99.2024 -0.114
99.2327 0.096
99.2629 -0.214
99.2932 0.258
99.3235 -0.104
99.3538 -0.049
99.3841 0.163
99.4143 0.062
99.4446 -0.194
99.4749 -0.141
99.5052 0.121
99.5354 -0.033
99.5657 0.126
99.5960 -0.132
99.6263 -0.026
99.6566 0.029
99.6868 -0.124
99.7171 -0.173
99.7474 0.091
99.7777 -0.061
99.8080 -0.005
99.8382 -0.001
99.8685 -0.153
99.8988 0.164
99.9291 0.065
99.9593 -0.190
99.9896 -0.088
100.0199 -0.090
100.0502 -0.144
100.0805 0.167
100.1107 0.218
100.1410 -0.096
100.1713 -0.148
100.2016 0.320
100.2319 -0.097
100.2621 0.007
100.2924 -0.097
100.3227 -0.045
100.3530 -0.097
100.3832 0.321
100.4135 -0.043
100.4438 0.219
100.4741 0.116
100.5044 0.170
100.5346 -0.349
100.5649 -0.035
100.5952 0.020
100.6255 -0.082
100.6558 -0.183
100.6860 -0.031
100.7163 0.121
100.7466 0.117
100.7769 0.009
100.8071 0.266
100.8374 0.210
100.8677 0.103
100.8980 0.257
100.9283 0.098
100.9585 -0.217
100.9888 -0.116
101.0191 0.142
101.0494 -0.016
101.0797 -0.175
101.1099 0.500
101.1402 0.030
101.1705 0.081
101.2008 -0.077
101.2310 0.026
101.2613 0.026
101.2916 -0.131
101.3219 -0.131
101.3522 0.129
101.3824 -0.079
101.4127 0.025
101.4430 0.078
101.4733 -0.234
101.5036 0.340
101.5338 0.133
101.5641 -0.126
101.5944 -0.176
101.6247 0.190
101.6549 0.088
101.6852 0.143
101.7155 0.146
101.7458 0.148
101.7761 -0.005
101.8063 -0.158
101.8366 0.210
101.8669 0.214
101.8972 -0.199
101.9275 -0.142
101.9577 -0.242
101.9880 0.114
102.0183 0.158
102.0486 -0.215
102.0788 0.142
102.1091 0.291
102.1394 0.127
102.1697 0.433
102.2000 0.009
102.2302 0.003
102.2605 0.413
102.2908 0.198
102.3211 -0.068
102.3514 0.082
102.3816 0.285
102.4119 0.436
102.4422 -0.090
102.4725 -0.043
102.5028 0.109
102.5330 -0.104
102.5633 -0.212
102.5936 0.149
102.6239 -0.011
102.6541 0.298
102.6844 0.190
102.7147 -0.125
102.7450 -0.128
102.7753 0.078
102.8055 -0.185
102.8358 0.229
102.8661 0.332
102.8964 0.330
102.9267 0.537
102.9569 0.067
102.9872 -0.091
103.0175 -0.039
103.0478 0.064
103.0780 0.064
103.1083 -0.145
103.1386 0.064
103.1689 -0.144
103.1992 -0.248
103.2294 0.113
103.2597 0.213
103.2900 0.210
103.3203 -0.210
103.3506 -0.005
103.3808 0.304
103.4111 -0.063
103.4414 0.351
103.4717 0.245
103.5019 0.243
103.5322 0.241
103.5625 -0.125
103.5928 0.186
103.6231 0.133
103.6533 0.132
103.6836 0.288
103.7139 0.079
103.7442 -0.129
103.7745 0.339
103.8047 0.027
103.8350 0.653
103.8653 0.393
103.8956 0.446
103.9258 0.082
103.9561 0.188
103.9864 0.033
104.0167 -0.121
104.0470 0.298
104.0772 0.508
104.1075 0.406
104.1378 0.097
104.1681 0.100
104.1984 0.311
104.2286 0.054
104.2589 0.110
104.2892 0.114
104.3195 0.326
104.3497 -0.138
104.3800 0.387
104.4103 -0.129
104.4406 0.136
104.4709 -0.171
104.5011 0.615
104.5314 0.100
104.5617 0.262
104.5920 0.373
104.6223 0.119
104.6525 -0.031
104.6828 -0.077
104.7131 0.035
104.7434 0.146
104.7736 0.101
104.8039 0.005
104.8342 0.221
104.8645 0.333
104.8948 0.185
104.9250 0.194
104.9553 0.203
104.9856 0.212
105.0159 0.221
105.0462 0.126
105.0764 0.344
105.1067 -0.323
105.1370 -0.105
105.1673 -0.042
105.1975 -0.344
105.2278 0.014
105.2581 0.216
105.2884 -0.050
105.3187 0.101
105.3489 0.148
105.3792 0.091
105.4095 -0.070
105.4398 0.237
105.4701 0.337
105.5003 0.229
105.5306 -0.035
105.5609 -0.039
105.5912 0.061
105.6215 0.058
105.6517 -0.257
105.6820 0.000
105.7123 -0.107
105.7426 0.099
105.7728 0.045
105.8031 -0.217
105.8334 -0.063
105.8637 -0.065
105.8940 -0.171
105.9242 -0.069
105.9545 -0.018
105.9848 -0.020
106.0151 0.448
106.0454 -0.230
106.0756 0.343
106.1059 0.186
106.1362 -0.179
106.1665 0.238
106.1967 -0.022
106.2270 0.083
106.2573 0.344
106.2876 -0.072
106.3179 0.086
106.3481 -0.017
106.3784 0.089
106.4087 0.299
106.4390 -0.011
106.4693 -0.321
106.4995 -0.014
106.5298 -0.019
106.5601 -0.128
106.5904 0.075
106.6206 -0.190
106.6509 0.275
106.6812 0.271
106.7115 0.267
106.7418 0.212
106.7720 0.000
106.8023 0.153
106.8326 -0.214
106.8629 -0.009
106.8932 -0.011
106.9234 -0.170
106.9537 -0.380
106.9840 0.191
107.0143 0.033
107.0445 -0.124
107.0748 0.187
107.1051 -0.022
107.1354 -0.023
107.1657 -0.127
107.1959 0.185
107.2262 0.237
107.2565 0.185
107.2868 0.186
107.3171 -0.022
107.3473 0.239
107.3776 0.136
107.4079 0.138
107.4382 0.244
107.4684 -0.380
107.4987 0.143
107.5290 -0.219
107.5593 -0.163
107.5896 -0.003
107.6198 -0.259
107.6501 0.214
107.6804 -0.094
107.7107 -0.037
107.7410 0.072
107.7712 0.233
107.8015 0.135
107.8318 0.140
107.8621 -0.166
107.8923 -0.056
107.9226 0.054
107.9529 0.113
107.9832 0.276
108.0135 0.283
108.0437 0.030
108.0740 -0.119
108.1043 -0.267
108.1346 0.093
108.1649 -0.016
108.1951 0.293
108.2254 0.081
108.2557 -0.027
108.2860 0.282
108.3163 0.175
108.3465 0.224
108.3768 -0.091
108.4071 0.167
108.4374 0.269
108.4676 -0.306
108.4979 -0.100
108.5282 -0.049
108.5585 -0.155
108.5888 -0.104
108.6190 0.260
108.6493 -0.105
108.6796 0.259
108.7099 0.102
108.7402 -0.158
108.7704 0.207
108.8007 -0.053
108.8310 -0.157
108.8613 0.313
108.8915 -0.103
108.9218 -0.257
108.9521 0.161
108.9824 0.006
109.0127 0.060
109.0429 0.011
109.0732 -0.091
109.1035 0.276
109.1338 0.227
109.1641 -0.187
109.1943 0.129
109.2246 0.185
109.2549 0.345
109.2852 -0.068
109.3154 0.093
109.3457 -0.215
109.3760 -0.118
109.4063 0.188
109.4366 0.130
109.4668 0.436
109.4971 -0.039
109.5274 0.216
109.5577 0.158
109.5880 0.257
109.6182 0.096
109.6485 -0.013
109.6788 -0.174
109.7091 0.343
109.7393 0.234
109.7696 0.074
109.7999 0.175
109.8302 0.640
109.8605 -0.092
109.8907 -0.148
109.9210 0.058
109.9513 0.264
109.9816 0.261
110.0119 0.259
110.0421 0.205
110.0724 0.099
110.1027 0.723
110.1330 0.097
110.1632 0.044
110.1935 0.407
110.2238 0.407
110.2541 -0.062
110.2844 0.302
110.3146 0.198
110.3449 0.094
110.3752 0.199
110.4055 0.408
110.4358 0.201
110.4660 0.254
110.4963 0.204
110.5266 -0.107
110.5569 0.468
110.5871 0.001
110.6174 0.264
110.6477 0.058
110.6780 0.269
110.7083 0.272
110.7385 -0.037
110.7688 0.070
110.7991 0.178
110.8294 0.234
110.8597 -0.178
110.8899 0.139
110.9202 -0.013
110.9505 0.096
110.9808 0.101
111.0110 0.158
111.0413 0.268
111.0716 0.222
111.1019 0.019
111.1322 0.390
111.1624 0.240
111.1927 0.038
111.2230 -0.319
111.2533 -0.054
111.2836 0.264
111.3138 0.061
111.3441 0.119
111.3744 -0.188
111.4047 -0.142
111.4350 0.269
111.4652 0.315
111.4955 0.049
111.5258 0.148
111.5561 0.404
111.5863 -0.070
111.6166 0.238
111.6469 -0.027
111.6772 0.021
111.7075 -0.034
111.7377 0.066
111.7680 0.323
111.7983 0.320
111.8286 0.109
111.8589 0.418
111.8891 0.364
111.9194 0.257
111.9497 -0.057
111.9800 0.097
112.0102 0.043
112.0405 0.042
112.0708 0.353
112.1011 -0.273
112.1314 0.143
112.1616 0.039
112.1919 -0.170
112.2222 -0.066
112.2525 -0.013
112.2828 -0.326
112.3130 0.040
112.3433 0.145
112.3736 -0.011
112.4039 -0.009
112.4341 -0.008
112.4644 -0.110
112.4947 0.100
112.5250 0.207
112.5553 0.001
112.5855 0.107
112.6158 -0.046
112.6461 0.113
112.6764 0.221
112.7067 0.068
112.7369 0.436
112.7672 0.076
112.7975 0.288
112.8278 0.449
112.8580 -0.223
112.8883 0.459
112.9186 0.151
112.9489 0.469
112.9792 0.110
113.0094 0.168
113.0397 0.330
113.0700 0.336
113.1003 -0.126
113.1306 -0.171
113.1608 0.083
113.1911 -0.026
113.2214 0.177
113.2517 0.224
113.2819 0.220
113.3122 -0.045
113.3425 -0.102
113.3728 0.311
113.4031 0.151
113.4333 0.095
113.4636 0.196
113.4939 -0.224
113.5242 0.294
113.5545 0.240
113.5847 0.185
113.6150 -0.077
113.6453 0.233
113.6756 0.335
113.7058 -0.187
113.7361 0.280
113.7664 -0.241
113.7967 0.018
113.8270 0.330
113.8572 -0.087
113.8875 -0.035
113.9178 0.225
113.9481 0.225
113.9784 0.122
114.0086 -0.242
114.0389 -0.145
114.0692 0.525
114.0995 -0.003
114.1298 0.251
114.1600 0.193
114.1903 -0.230
114.2206 0.025
114.2509 -0.294
114.2811 0.066
114.3114 0.165
114.3417 0.316
114.3720 -0.366
114.4023 -0.110
114.4325 0.250
114.4628 0.194
114.4931 0.086
114.5234 -0.282
114.5537 -0.077
114.5839 -0.237
114.6142 0.073
114.6445 -0.138
114.6748 -0.037
114.7050 -0.143
114.7353 0.063
114.7656 0.322
114.7959 0.164
114.8262 0.215
114.8564 -0.099
114.8867 -0.152
114.9170 -0.205
114.9473 0.048
114.9776 0.041
115.0078 0.139
115.0381 -0.181
115.0684 0.230
115.0987 -0.349
115.1289 -0.043
115.1592 -0.153
115.1895 0.154
115.2198 -0.476
115.2501 0.092
115.2803 -0.277
115.3106 0.083
115.3409 0.026
115.3712 -0.030
115.4015 -0.190
115.4317 -0.142
115.4620 -0.093
115.4923 0.268
115.5226 0.005
115.5528 -0.154
115.5831 0.156
115.6134 -0.211
115.6437 0.412
115.6740 -0.111
115.7042 -0.113
115.7345 0.407
115.7648 0.457
115.7951 0.352
115.8254 0.299
115.8556 0.403
115.8859 0.298
115.9162 0.455
115.9465 0.507
115.9767 0.455
116.0070 0.351
116.0373 0.196
116.0676 0.718
116.0979 0.302
116.1281 0.252
116.1584 0.618
116.1887 0.516
116.2190 0.049
116.2493 0.624
116.2795 0.731
116.3098 -0.099
116.3401 0.008
116.3704 -0.093
116.4006 0.431
116.4309 0.122
116.4612 0.335
116.4915 0.391
116.5218 0.395
116.5520 0.087
116.5823 -0.012
116.6126 0.410
116.6429 -0.158
116.6732 0.525
116.7034 0.374
116.7337 0.224
116.7640 0.282
116.7943 -0.076
116.8245 0.243
116.8548 0.198
116.8851 -0.108
116.9154 0.212
116.9457 0.063
116.9759 -0.033
117.0062 0.444
117.0365 -0.069
117.0668 0.200
117.0971 0.365
117.1273 0.113
117.1576 0.435
117.1879 0.340
117.2182 0.297
117.2485 0.047
117.2787 -0.048
117.3090 -0.037
117.3393 -0.183
117.3696 -0.031
117.3998 0.069
117.4301 0.222
117.4604 0.218
117.4907 0.528
117.5210 0.212
117.5512 0.522
117.5815 0.051
117.6118 -0.212
117.6421 0.202
117.6724 -0.060
117.7026 -0.009
117.7329 -0.063
117.7632 -0.116
117.7935 0.352
117.8237 0.038
117.8540 0.038
117.8843 0.142
117.9146 -0.015
117.9449 0.090
117.9751 -0.118
118.0054 0.143
118.0357 -0.117
118.0660 0.249
118.0963 0.042
118.1265 -0.321
118.1568 -0.065
118.1871 -0.173
118.2174 0.137
118.2476 0.029
118.2779 0.130
118.3082 0.076
118.3385 0.073
118.3688 0.071
118.3990 -0.140
118.4293 0.067
118.4596 -0.351
118.4899 -0.040
118.5202 0.063
118.5504 0.010
118.5807 0.478
118.6110 0.113
118.6413 0.321
118.6715 0.269
118.7018 0.217
118.7321 -0.043
118.7624 0.113
118.7927 0.010
118.8229 -0.041
118.8532 0.012
118.8835 -0.194
118.9138 -0.041
118.9441 0.060
118.9743 -0.254
119.0046 0.368
119.0349 0.262
119.0652 0.260
119.0954 0.207
119.1257 -0.003
119.1560 -0.056
119.1863 0.151
119.2166 0.203
119.2468 0.254
119.2771 -0.267
119.3074 -0.058
119.3377 -0.214
119.3680 0.098
119.3982 0.047
119.4285 -0.108
119.4588 -0.159
119.4891 -0.054
119.5193 0.000
119.5496 0.106
119.5799 0.056
119.6102 -0.046
119.6405 0.113
119.6707 0.063
119.7010 -0.194
119.7313 -0.158
119.7616 -0.018
119.7919 0.331
119.8221 -0.049
119.8524 -0.221
119.8827 -0.018
119.9130 0.028
119.9433 0.127
119.9735 -0.242
120.0038 0.000
