'Id: "" Comment: "" Operator: "Lab Manager" Anode: "Cu" Scantype: "Locked Coupled" TimePerStep: "19.2" X: "9999" Y: "9999" Z: "9999" 
10.0015 0.000
10.0318 -0.429
10.0620 -0.384
10.0923 -0.442
10.1226 0.071
10.1529 0.689
10.1832 0.942
10.2134 0.779
10.2437 0.721
10.2740 0.715
10.3043 0.397
10.3346 0.809
10.3648 0.387
10.3951 0.852
10.4254 0.952
10.4557 -0.041
10.4859 0.425
10.5162 0.005
10.5465 1.357
10.5768 0.782
10.6071 0.416
10.6373 0.623
10.6676 -0.784
10.6979 0.726
10.7282 0.570
10.7585 0.154
10.7887 0.519
10.8190 0.051
10.8493 0.469
10.8796 0.680
10.9098 1.359
10.9401 0.008
10.9704 0.584
11.0007 1.420
11.0310 1.008
11.0612 1.168
11.0915 0.131
11.1218 1.074
11.1521 0.558
11.1824 0.668
11.2126 0.102
11.2429 0.212
11.2732 0.584
11.3035 0.539
11.3337 -0.286
11.3640 0.243
11.3943 0.095
11.4246 -0.157
11.4549 0.790
11.4851 0.540
11.5154 -0.232
11.5457 1.081
11.5760 0.467
11.6063 0.530
11.6365 -0.552
11.6668 1.127
11.6971 0.827
11.7274 0.787
11.7577 0.384
11.7879 0.033
11.8182 -0.370
11.8485 0.061
11.8788 -0.080
11.9090 0.143
11.9393 0.680
11.9696 0.748
11.9999 0.972
12.0302 -0.573
12.0604 -0.087
12.0907 -0.070
12.1210 -0.365
12.1513 0.046
12.1816 0.144
12.2118 0.868
12.2421 0.655
12.2724 0.754
12.3027 0.594
12.3329 1.267
12.3632 0.013
12.3935 0.375
12.4238 -0.461
12.4541 -0.307
12.4843 -0.049
12.5146 0.731
12.5449 0.157
12.5752 -0.156
12.6055 0.052
12.6357 0.208
12.6660 0.104
12.6963 0.418
12.7266 0.940
12.7568 0.681
12.7871 0.527
12.8174 -0.409
12.8477 -0.302
12.8780 -0.246
12.9082 -0.399
12.9385 0.386
12.9688 -0.391
12.9991 0.395
13.0294 0.400
13.0596 -0.167
13.0899 0.516
13.1202 0.574
13.1505 -0.201
13.1807 -0.558
13.2110 0.387
13.2413 0.603
13.2716 0.507
13.3019 0.047
13.3321 -0.361
13.3624 -0.051
13.3927 0.937
13.4230 -0.002
13.4533 -0.004
13.4835 0.048
13.5138 0.412
13.5441 1.453
13.5744 0.516
13.6046 0.517
13.6349 0.518
13.6652 0.728
13.6955 0.834
13.7258 -0.154
13.7560 -0.099
13.7863 0.060
13.8166 0.428
13.8469 0.536
13.8772 0.540
13.9074 0.545
13.9377 -0.075
13.9680 0.138
13.9983 0.405
14.0285 -0.110
14.0588 0.209
14.0891 -0.357
14.1194 -0.304
14.1497 0.009
14.1799 0.167
14.2102 -0.509
14.2405 0.587
14.2708 -0.348
14.3011 -0.137
14.3313 0.700
14.3616 -0.078
14.3919 -0.074
14.4222 0.556
14.4524 1.081
14.4827 0.045
14.5130 -0.366
14.5433 0.630
14.5736 -0.250
14.6038 0.695
14.6341 0.337
14.6644 0.397
14.6947 -0.324
14.7250 -0.264
14.7552 -0.463
14.7855 0.483
14.8158 -0.757
14.8461 0.086
14.8764 -0.268
14.9066 -0.674
14.9369 0.639
14.9672 0.129
14.9975 0.558
15.0277 0.205
15.0580 0.531
15.0883 -0.602
15.1186 0.453
15.1489 0.258
15.1791 0.272
15.2094 0.599
15.2397 0.562
15.2700 0.734
15.3003 0.177
15.3305 -0.068
15.3608 1.459
15.3911 -0.763
15.4214 -0.329
15.4516 0.649
15.4819 0.274
15.5122 1.150
15.5425 0.775
15.5728 -0.015
15.6030 0.965
15.6333 1.269
15.6636 -0.093
15.6939 -0.309
15.7242 0.152
15.7544 0.406
15.7847 0.816
15.8150 0.654
15.8453 0.387
15.8755 -0.347
15.9058 0.481
15.9361 -0.669
15.9664 0.576
15.9967 0.052
16.0269 0.309
16.0572 -0.319
16.0875 0.147
16.1178 0.092
16.1481 0.299
16.1783 -0.640
16.2086 0.036
16.2389 -0.017
16.2692 -0.070
16.2994 0.451
16.3297 0.139
16.3600 0.296
16.3903 0.610
16.4206 0.247
16.4508 0.509
16.4811 0.616
16.5114 -0.423
16.5417 0.622
16.5720 0.365
16.6022 0.317
16.6325 -0.304
16.6628 0.117
16.6931 0.748
16.7233 0.128
16.7536 -0.179
16.7839 0.453
16.8142 0.511
16.8445 0.310
16.8747 -0.203
16.9050 -0.143
16.9353 -0.135
16.9656 0.290
16.9959 0.351
17.0261 -0.264
17.0564 0.475
17.0867 0.433
17.1170 -0.130
17.1472 0.402
17.1775 0.830
17.2078 0.425
17.2381 0.593
17.2684 0.554
17.2986 -0.215
17.3289 -0.045
17.3592 0.958
17.3895 0.139
17.4198 0.674
17.4500 -0.457
17.4803 -0.337
17.5106 0.497
17.5409 0.864
17.5712 0.970
17.6014 1.181
17.6317 -0.118
17.6620 0.458
17.6923 0.462
17.7225 0.049
17.7528 0.835
17.7831 -0.619
17.8134 0.741
17.8437 0.278
17.8739 0.023
17.9042 0.342
17.9345 0.922
17.9648 0.825
17.9951 -0.001
18.0253 0.007
18.0556 0.693
18.0859 -0.184
18.1162 0.398
18.1464 0.304
18.1767 -0.416
18.2070 -0.274
18.2373 0.233
18.2676 0.532
18.2978 0.363
18.3281 0.818
18.3584 0.546
18.3887 0.013
18.4190 0.366
18.4492 0.302
18.4795 0.656
18.5098 0.125
18.5401 -0.198
18.5703 0.105
18.6006 -0.165
18.6309 -0.434
18.6612 0.495
18.6915 -0.503
18.7217 0.583
18.7520 0.211
18.7823 0.725
18.8126 0.249
18.8429 -0.069
18.8731 0.862
18.9034 -0.914
18.9337 0.227
18.9640 -0.038
18.9942 0.062
19.0245 0.058
19.0548 0.679
19.0851 0.572
19.1154 -0.316
19.1456 -0.214
19.1759 0.929
19.2062 0.043
19.2365 -0.271
19.2668 -0.220
19.2970 -0.168
19.3273 -0.012
19.3576 0.093
19.3879 -0.532
19.4181 0.615
19.4484 -0.373
19.4787 0.098
19.5090 -0.368
19.5393 0.676
19.5695 0.731
19.5998 -0.151
19.6301 0.114
19.6604 -0.403
19.6907 0.071
19.7209 0.128
19.7512 -0.596
19.7815 0.035
19.8118 0.562
19.8420 -0.265
19.8723 1.148
19.9026 0.479
19.9329 -0.191
19.9632 -0.078
19.9934 -0.070
20.0237 -0.321
20.0540 -0.217
20.0843 0.564
20.1146 -0.426
20.1448 -0.321
20.1751 0.460
20.2054 0.097
20.2357 0.046
20.2659 0.568
20.2962 0.934
20.3265 -0.470
20.3568 0.418
20.3871 -0.620
20.4173 -0.200
20.4476 0.324
20.4779 0.120
20.5082 -0.292
20.5385 0.182
20.5687 -0.073
20.5990 0.245
20.6293 0.199
20.6596 -0.420
20.6899 0.004
20.7201 0.480
20.7504 0.488
20.7807 -0.025
20.8110 0.192
20.8412 -0.685
20.8715 0.366
20.9018 -0.197
20.9321 0.021
20.9624 1.281
20.9926 -0.166
21.0229 -0.311
21.0532 0.208
21.0835 0.364
21.1138 -0.314
21.1440 0.832
21.1743 1.145
21.2046 0.000
21.2349 -0.468
21.2651 0.045
21.2954 0.245
21.3257 0.601
21.3560 0.438
21.3863 -0.298
21.4165 0.007
21.4468 -0.259
21.4771 -0.005
21.5074 0.406
21.5377 -0.224
21.5679 -0.176
21.5982 0.497
21.6285 -0.237
21.6588 -0.136
21.6890 0.017
21.7193 0.223
21.7496 0.429
21.7799 -0.146
21.8102 0.008
21.8404 -0.149
21.8707 -0.098
21.9010 0.631
21.9313 -0.098
21.9616 -0.098
21.9918 0.007
22.0221 0.373
22.0524 0.583
22.0827 0.376
22.1129 0.274
22.1432 0.173
22.1735 -0.137
22.2038 -0.706
22.2341 0.339
22.2643 0.031
22.2946 0.348
22.3249 0.510
22.3552 -0.631
22.3855 -0.312
22.4157 0.103
22.4460 0.154
22.4763 -0.107
22.5066 0.309
22.5368 -0.628
22.5671 -0.002
22.5974 -0.158
22.6277 -0.312
22.6580 -0.262
22.6882 0.518
22.7185 0.100
22.7488 -0.421
22.7791 0.099
22.8094 -0.525
22.8396 0.361
22.8699 -0.315
22.9002 0.571
22.9305 0.157
22.9607 0.471
22.9910 -0.464
23.0213 -0.305
23.0516 0.532
23.0819 0.171
23.1121 -0.241
23.1424 -0.133
23.1727 0.810
23.2030 -0.279
23.2333 0.300
23.2635 -0.475
23.2938 0.417
23.3241 0.215
23.3544 0.066
23.3846 -0.135
23.4149 0.394
23.4452 0.090
23.4755 0.151
23.5058 0.108
23.5360 0.482
23.5663 -0.445
23.5966 0.346
23.6269 -0.216
23.6572 0.056
23.6874 -0.037
23.7177 0.392
23.7480 -0.013
23.7783 0.781
23.8086 0.221
23.8388 0.287
23.8691 0.248
23.8994 -0.050
23.9297 0.798
23.9599 -0.072
23.9902 0.620
24.0205 0.063
24.0508 -0.285
24.0811 -0.191
24.1113 -0.148
24.1416 0.572
24.1719 0.564
24.2022 -0.278
24.2325 0.287
24.2627 0.072
24.2930 0.534
24.3233 0.631
24.3536 0.260
24.3838 -0.162
24.4141 1.187
24.4444 -0.329
24.4747 0.240
24.5050 -0.077
24.5352 0.336
24.5655 0.540
24.5958 -0.140
24.6261 -0.507
24.6564 0.949
24.6866 0.114
24.7169 0.008
24.7472 0.788
24.7775 0.110
24.8077 -0.515
24.8380 0.162
24.8683 0.579
24.8986 0.216
24.9289 0.842
24.9591 -0.302
24.9894 0.064
25.0197 0.014
25.0500 -0.243
25.0803 0.541
25.1105 0.024
25.1408 1.330
25.1711 -0.176
25.2014 0.297
25.2316 0.094
25.2619 -0.109
25.2922 -0.572
25.3225 0.148
25.3528 0.400
25.3830 0.340
25.4133 0.332
25.4436 0.064
25.4739 0.421
25.5042 -0.054
25.5344 0.148
25.5647 0.090
25.5950 0.084
25.6253 -0.389
25.6555 -0.035
25.6858 0.632
25.7161 0.362
25.7464 0.405
25.7767 -0.437
25.8069 -0.028
25.8372 -0.349
25.8675 0.217
25.8978 -0.363
25.9281 -0.165
25.9583 -0.122
25.9886 0.026
26.0189 0.382
26.0492 -0.147
26.0794 0.054
26.1097 0.046
26.1400 0.040
26.1703 0.450
26.2006 0.235
26.2308 -0.343
26.2611 0.172
26.2914 0.324
26.3217 0.423
26.3520 -0.102
26.3822 -0.158
26.4125 0.256
26.4428 0.409
26.4731 0.250
26.5034 0.300
26.5336 -0.066
26.5639 0.037
26.5942 0.088
26.6245 -0.017
26.6547 -0.122
26.6850 0.972
26.7153 0.504
26.7456 -0.328
26.7759 -0.014
26.8061 0.300
26.8364 -0.063
26.8667 0.252
26.8970 0.828
26.9273 0.467
26.9575 -0.467
26.9878 0.266
27.0181 -0.042
27.0484 0.379
27.0786 0.489
27.1089 0.130
27.1392 -0.802
27.1695 0.194
27.1998 0.670
27.2300 0.260
27.2603 0.060
27.2906 0.120
27.3209 0.076
27.3512 -0.176
27.3814 0.354
27.4117 -0.209
27.4420 -0.304
27.4723 -0.052
27.5025 0.095
27.5328 0.452
27.5631 0.080
27.5934 0.437
27.6237 0.013
27.6539 0.267
27.6842 0.365
27.7145 -0.058
27.7448 0.562
27.7751 0.088
27.8053 -0.021
27.8356 -0.337
27.8659 0.072
27.8962 0.326
27.9264 0.215
27.9567 0.573
27.9870 0.359
28.0173 0.719
28.0476 0.714
28.0778 0.293
28.1081 0.341
28.1384 0.128
28.1687 0.438
28.1990 0.435
28.2292 0.120
28.2595 0.899
28.2898 0.063
28.3201 0.427
28.3503 0.634
28.3806 0.425
28.4109 0.685
28.4412 0.477
28.4715 0.530
28.5017 0.583
28.5320 0.584
28.5623 0.742
28.5926 0.171
28.6229 0.486
28.6531 -0.084
28.6834 -0.237
28.7137 -0.442
28.7440 0.269
28.7742 0.147
28.8045 0.546
28.8348 0.841
28.8651 0.824
28.8954 0.704
28.9256 -0.198
28.9559 -0.057
28.9862 0.188
29.0165 0.642
29.0468 0.367
29.0770 -0.116
29.1073 -0.234
29.1376 0.221
29.1679 -0.573
29.1981 0.300
29.2284 0.079
29.2587 0.068
29.2890 -0.204
29.3193 0.358
29.3495 -0.174
29.3798 0.545
29.4101 0.587
29.4404 -0.203
29.4707 0.100
29.5009 0.404
29.5312 -0.334
29.5615 -0.342
29.5918 0.257
29.6221 0.179
29.6523 -0.003
29.6826 0.545
29.7129 0.676
29.7432 0.808
29.7734 0.575
29.8037 0.239
29.8340 -0.357
29.8643 -0.285
29.8946 0.413
29.9248 0.486
29.9551 0.246
29.9854 -0.774
30.0157 0.238
30.0460 0.365
30.0762 0.544
30.1065 -0.371
30.1368 0.017
30.1671 0.302
30.1973 -0.299
30.2276 0.038
30.2579 -0.249
30.2882 -0.223
30.3185 0.532
30.3487 0.350
30.3790 0.689
30.4093 -0.013
30.4396 0.431
30.4699 1.292
30.5001 -0.138
30.5304 0.724
30.5607 0.180
30.5910 1.095
30.6212 0.396
30.6515 0.790
30.6818 0.717
30.7121 1.060
30.7424 0.519
30.7726 1.175
30.8029 0.739
30.8332 2.178
30.8635 0.804
30.8938 1.619
30.9240 1.027
30.9543 2.520
30.9846 1.096
31.0149 2.329
31.0451 2.260
31.0754 3.493
31.1057 2.748
31.1360 4.035
31.1663 4.280
31.1965 5.984
31.2268 6.021
31.2571 7.101
31.2874 7.712
31.3177 9.730
31.3479 11.957
31.3782 14.184
31.4085 17.661
31.4388 21.399
31.4690 27.690
31.4993 32.887
31.5296 40.950
31.5599 46.721
31.5902 53.846
31.6204 55.712
31.6507 56.224
31.6810 49.236
31.7113 43.290
31.7416 36.043
31.7718 28.639
31.8021 24.466
31.8324 20.084
31.8627 17.838
31.8929 14.030
31.9232 9.701
31.9535 8.915
31.9838 6.983
32.0141 5.260
32.0443 4.787
32.0746 4.523
32.1049 3.947
32.1352 3.007
32.1655 3.004
32.1957 1.857
32.2260 2.584
32.2563 1.593
32.2866 1.540
32.3169 2.529
32.3471 1.904
32.3774 1.592
32.4077 0.603
32.4380 0.448
32.4682 0.606
32.4985 0.451
32.5288 0.453
32.5591 1.133
32.5894 0.147
32.6196 -0.527
32.6499 0.102
32.6802 0.002
32.7105 0.319
32.7408 0.011
32.7710 0.225
32.8013 0.126
32.8316 0.705
32.8619 -0.173
32.8921 -0.219
32.9224 0.257
32.9527 -0.516
32.9830 0.169
33.0133 1.063
33.0435 -0.074
33.0738 -0.169
33.1041 0.674
33.1344 -0.462
33.1647 0.017
33.1949 -0.180
33.2252 -0.429
33.2555 -0.441
33.2858 0.694
33.3160 0.788
33.3463 0.257
33.3766 0.403
33.4069 -0.231
33.4372 0.228
33.4674 0.324
33.4977 0.889
33.5280 -0.265
33.5583 0.196
33.5886 -0.436
33.6188 -0.245
33.6491 1.195
33.6794 1.647
33.7097 1.057
33.7399 1.301
33.7702 1.597
33.8005 1.946
33.8308 1.619
33.8611 2.802
33.8913 4.454
33.9216 4.856
33.9519 4.218
33.9822 5.767
34.0125 6.535
34.0427 8.293
34.0730 10.885
34.1033 15.248
34.1336 18.935
34.1638 25.799
34.1941 36.205
34.2244 52.184
34.2547 64.935
34.2850 66.801
34.3152 59.135
34.3455 52.824
34.3758 41.670
34.4061 26.350
34.4364 18.061
34.4666 14.669
34.4969 10.026
34.5272 7.364
34.5575 6.368
34.5877 6.415
34.6180 4.847
34.6483 4.842
34.6786 2.807
34.7089 2.699
34.7391 2.903
34.7694 2.744
34.7997 1.751
34.8300 0.655
34.8603 1.955
34.8905 1.485
34.9208 1.952
34.9511 1.118
34.9814 1.378
35.0116 0.649
35.0419 1.274
35.0722 1.327
35.1025 1.744
35.1328 0.340
35.1630 1.696
35.1933 0.604
35.2236 1.076
35.2539 0.818
35.2842 0.821
35.3144 2.544
35.3447 1.611
35.3750 2.396
35.4053 2.922
35.4356 2.407
35.4658 3.037
35.4961 3.460
35.5264 4.769
35.5567 3.838
35.5869 6.241
35.6172 6.405
35.6475 5.267
35.6778 6.943
35.7081 7.681
35.7383 10.554
35.7686 10.564
35.7989 15.678
35.8292 15.689
35.8595 18.981
35.8897 24.669
35.9200 33.951
35.9503 39.692
35.9806 48.090
36.0108 55.811
36.0411 70.772
36.0714 79.796
36.1017 82.206
36.1320 80.554
36.1622 78.329
36.1925 66.469
36.2228 62.630
36.2531 49.260
36.2834 39.120
36.3136 31.637
36.3439 26.862
36.3742 19.328
36.4045 15.335
36.4347 14.780
36.4650 12.663
36.4953 9.766
36.5256 9.212
36.5559 7.669
36.5861 6.804
36.6164 6.356
36.6467 5.335
36.6770 4.263
36.7073 2.878
36.7375 3.421
36.7678 2.037
36.7981 2.320
36.8284 2.031
36.8586 2.367
36.8889 1.454
36.9192 2.676
36.9495 1.607
36.9798 0.955
37.0100 1.762
37.0403 0.746
37.0706 0.721
37.1009 0.747
37.1312 0.826
37.1614 0.333
37.1917 0.778
37.2220 0.754
37.2523 0.262
37.2825 0.083
37.3128 0.477
37.3431 -0.327
37.3734 0.172
37.4037 -0.162
37.4339 0.077
37.4642 0.265
37.4945 -0.068
37.5248 0.433
37.5551 0.674
37.5853 0.030
37.6156 0.324
37.6459 -0.528
37.6762 1.173
37.7064 0.374
37.7367 -0.164
37.7670 0.861
37.7973 0.063
37.8276 0.308
37.8578 0.292
37.8881 0.433
37.9184 0.002
37.9487 0.091
37.9790 0.338
38.0092 -0.301
38.0395 -0.471
38.0698 0.506
38.1001 -0.131
38.1304 -0.248
38.1606 -0.468
38.1909 0.269
38.2212 -0.036
38.2515 0.493
38.2817 0.450
38.3120 -0.271
38.3423 0.416
38.3726 0.582
38.4029 -0.033
38.4331 -0.075
38.4634 0.457
38.4937 -0.104
38.5240 -0.301
38.5543 0.544
38.5845 -0.120
38.6148 0.361
38.6451 -0.250
38.6754 -0.028
38.7056 -0.119
38.7359 -0.312
38.7662 -0.247
38.7965 -0.026
38.8268 -0.064
38.8570 0.419
38.8873 0.538
38.9176 -0.281
38.9479 -0.005
38.9782 0.115
39.0084 -0.546
39.0387 -0.075
39.0690 0.500
39.0993 -0.278
39.1295 0.350
39.1598 0.041
39.1901 -0.372
39.2204 0.466
39.2507 -0.051
39.2809 0.007
39.3112 0.064
39.3415 0.174
39.3718 -0.340
39.4021 -0.021
39.4323 0.611
39.4626 0.253
39.4929 0.418
39.5232 -0.199
39.5534 -0.295
39.5837 0.391
39.6140 -0.433
39.6443 -0.111
39.6746 0.004
39.7048 -0.194
39.7351 0.025
39.7654 -0.432
39.7957 0.621
39.8260 0.425
39.8562 0.593
39.8865 0.033
39.9168 -0.110
39.9471 -0.096
39.9773 0.439
40.0076 0.297
40.0379 0.416
40.0682 0.431
40.0985 -0.283
40.1287 0.463
40.1590 -0.042
40.1893 0.131
40.2196 0.721
40.2499 0.166
40.2801 -0.285
40.3104 -0.129
40.3407 0.183
40.3710 -0.598
40.4012 0.549
40.4315 0.237
40.4618 0.395
40.4921 0.241
40.5224 0.347
40.5526 0.246
40.5829 -0.116
40.6132 0.669
40.6435 1.038
40.6738 0.469
40.7040 0.005
40.7343 0.843
40.7646 -0.245
40.7949 0.073
40.8251 -0.285
40.8554 -0.023
40.8857 0.656
40.9160 0.658
40.9463 0.400
40.9765 0.143
41.0068 0.407
41.0371 0.202
41.0674 0.258
41.0977 0.367
41.1279 -0.044
41.1582 0.013
41.1885 0.071
41.2188 0.285
41.2491 0.084
41.2793 0.195
41.3096 -0.215
41.3399 -0.467
41.3702 0.259
41.4004 -0.265
41.4307 -0.059
41.4610 1.085
41.4913 1.136
41.5216 0.405
41.5518 0.457
41.5821 0.144
41.6124 0.092
41.6427 -0.481
41.6730 0.145
41.7032 -0.010
41.7335 -0.165
41.7638 0.306
41.7941 0.048
41.8243 -0.001
41.8546 -0.207
41.8849 -0.255
41.9152 0.101
41.9455 0.041
41.9757 0.397
42.0060 0.025
42.0363 0.018
42.0666 0.064
42.0969 0.526
42.1271 0.104
42.1574 0.099
42.1877 0.146
42.2180 -0.067
42.2482 -0.072
42.2785 0.341
42.3088 -0.131
42.3391 0.543
42.3694 -0.033
42.3996 -0.139
42.4299 -0.037
42.4602 0.326
42.4905 0.221
42.5208 0.220
42.5510 0.167
42.5813 0.636
42.6116 -0.405
42.6419 0.273
42.6721 0.118
42.7024 -0.297
42.7327 0.225
42.7630 0.124
42.7933 -0.134
42.8235 0.129
42.8538 -0.075
42.8841 -0.176
42.9144 -0.119
42.9447 0.406
42.9749 -0.214
43.0052 -0.260
43.0355 0.155
43.0658 0.363
43.0960 -0.211
43.1263 -0.315
43.1566 0.310
43.1869 -0.210
43.2172 0.208
43.2474 -0.311
43.2777 -0.161
43.3080 0.093
43.3383 0.348
43.3686 0.187
43.3988 -0.391
43.4291 -0.030
43.4594 -0.295
43.4897 0.431
43.5199 0.220
43.5502 -0.096
43.5805 0.058
43.6108 0.317
43.6411 0.159
43.6713 -0.207
43.7016 0.157
43.7319 0.000
43.7622 -0.260
43.7925 -0.156
43.8227 -0.676
43.8530 0.204
43.8833 -0.478
43.9136 0.194
43.9439 -0.071
43.9741 0.342
44.0044 0.234
44.0347 0.439
44.0650 0.384
44.0952 -0.088
44.1255 -0.350
44.1558 0.377
44.1861 0.116
44.2164 -0.094
44.2466 0.426
44.2769 -0.095
44.3072 0.010
44.3375 0.062
44.3678 0.116
44.3980 0.273
44.4283 0.119
44.4586 0.381
44.4889 -0.085
44.5191 0.178
44.5494 -0.495
44.5797 -0.075
44.6100 -0.019
44.6403 0.767
44.6705 0.042
44.7008 0.048
44.7311 -0.311
44.7614 -0.009
44.7917 0.085
44.8219 0.076
44.8522 0.067
44.8825 0.058
44.9128 0.415
44.9430 0.146
44.9733 -0.070
45.0036 -0.077
45.0339 -0.031
45.0642 0.119
45.0944 -0.200
45.1247 0.055
45.1550 0.310
45.1853 -0.007
45.2156 0.510
45.2458 0.141
45.2761 0.085
45.3064 0.030
45.3367 -0.285
45.3669 0.018
45.3972 -0.095
45.4275 -0.051
45.4578 0.566
45.4881 0.246
45.5183 0.291
45.5486 0.388
45.5789 0.122
45.6092 -0.041
45.6395 0.266
45.6697 -0.208
45.7000 -0.421
45.7303 0.460
45.7606 -0.169
45.7908 -0.225
45.8211 0.449
45.8514 -0.283
45.8817 -0.285
45.9120 -0.193
45.9422 -0.048
45.9725 -0.163
46.0028 -0.225
46.0331 -0.235
46.0634 0.224
46.0936 -0.202
46.1239 0.154
46.1542 0.562
46.1845 -0.592
46.2147 -0.079
46.2450 -0.295
46.2753 -0.570
46.3056 0.509
46.3359 -0.234
46.3661 0.481
46.3964 -0.157
46.4267 0.038
46.4570 -0.339
46.4873 0.326
46.5175 0.002
46.5478 0.303
46.5781 1.073
46.6084 0.333
46.6386 0.323
46.6689 0.313
46.6992 0.200
46.7295 0.920
46.7598 0.130
46.7900 1.736
46.8203 0.739
46.8506 1.408
46.8809 1.089
46.9112 1.186
46.9414 1.753
46.9717 1.851
47.0020 2.054
47.0323 2.309
47.0626 2.616
47.0928 2.925
47.1231 3.441
47.1534 4.948
47.1837 4.320
47.2139 5.880
47.2442 7.492
47.2745 10.458
47.3048 12.748
47.3351 13.685
47.3653 14.725
47.3956 15.714
47.4259 14.881
47.4562 13.110
47.4865 13.319
47.5167 10.873
47.5470 8.530
47.5773 8.480
47.6076 4.472
47.6378 5.151
47.6681 5.102
47.6984 3.179
47.7287 2.349
47.7590 2.197
47.7892 2.045
47.8195 1.634
47.8498 1.326
47.8801 1.020
47.9104 0.349
47.9406 1.345
47.9709 0.310
48.0012 1.098
48.0315 0.950
48.0617 -0.188
48.0920 0.862
48.1223 0.142
48.1526 -0.057
48.1829 -0.308
48.2131 -0.037
48.2434 0.599
48.2737 0.349
48.3040 0.205
48.3343 0.477
48.3645 -0.396
48.3948 0.138
48.4251 0.412
48.4554 0.529
48.4856 -0.446
48.5159 -0.224
48.5462 -0.626
48.5765 0.587
48.6068 -0.126
48.6370 0.515
48.6673 0.739
48.6976 -0.077
48.7279 0.304
48.7582 -0.095
48.7884 -0.285
48.8187 0.088
48.8490 0.305
48.8793 0.314
48.9095 0.116
48.9398 0.074
48.9701 0.188
49.0004 0.303
49.0307 -0.154
49.0609 -0.143
49.0912 -0.235
49.1215 -0.066
49.1518 0.259
49.1821 0.012
49.2123 0.077
49.2426 0.143
49.2729 0.679
49.3032 0.954
49.3334 -0.177
49.3637 -0.266
49.3940 -0.162
49.4243 -0.057
49.4546 0.516
49.4848 -0.107
49.5151 0.050
49.5454 0.104
49.5757 0.106
49.6060 0.161
49.6362 -0.149
49.6665 0.011
49.6968 0.015
49.7271 0.175
49.7574 0.440
49.7876 0.341
49.8179 0.398
49.8482 0.248
49.8785 0.254
49.9087 -0.260
49.9390 -0.260
49.9693 -0.158
49.9996 0.362
50.0299 0.153
50.0601 -0.212
50.0904 0.153
50.1207 -0.003
50.1510 0.154
50.1813 0.155
50.2115 0.209
50.2418 -0.362
50.2721 0.161
50.3024 0.112
50.3326 0.532
50.3629 -0.558
50.3932 0.540
50.4235 0.179
50.4538 0.340
50.4840 -0.228
50.5143 0.872
50.5446 0.565
50.5749 -0.314
50.6052 -0.255
50.6354 -0.046
50.6657 0.008
50.6960 0.270
50.7263 -0.196
50.7565 -0.193
50.7868 0.851
50.8171 0.386
50.8474 -0.443
50.8777 0.602
50.9079 0.607
50.9382 -0.325
50.9685 0.253
50.9988 0.571
51.0291 0.213
51.0593 0.740
51.0896 0.695
51.1199 0.234
51.1502 -0.019
51.1804 0.458
51.2107 0.310
51.2410 0.111
51.2713 -0.244
51.3016 -0.303
51.3318 0.420
51.3621 0.205
51.3924 -0.009
51.4227 0.090
51.4530 -0.019
51.4832 0.654
51.5135 0.285
51.5438 0.229
51.5741 0.174
51.6043 -0.089
51.6346 0.117
51.6649 0.010
51.6952 0.113
51.7255 0.372
51.7557 -0.306
51.7860 0.162
51.8163 0.266
51.8466 0.058
51.8769 -0.306
51.9071 0.164
51.9374 0.009
51.9677 -0.250
51.9980 0.000
52.0282 -0.323
52.0585 0.449
52.0888 0.387
52.1191 0.378
52.1494 0.005
52.1796 0.048
52.2099 -0.116
52.2402 -0.124
52.2705 0.390
52.3008 0.435
52.3310 0.117
52.3613 0.111
52.3916 -0.364
52.4219 0.152
52.4521 0.668
52.4824 0.090
52.5127 -0.330
52.5430 0.239
52.5733 -0.702
52.6035 -0.184
52.6338 -0.134
52.6641 -0.188
52.6944 0.540
52.7247 0.330
52.7549 0.173
52.7852 0.069
52.8155 -0.140
52.8458 0.069
52.8761 -0.295
52.9063 0.227
52.9366 0.281
52.9669 0.283
52.9972 -0.132
53.0274 0.027
53.0577 0.135
53.0880 0.294
53.1183 -0.327
53.1486 -0.062
53.1788 0.203
53.2091 0.000
53.2394 -0.359
53.2697 0.115
53.3000 -0.347
53.3302 0.180
53.3605 -0.073
53.3908 0.195
53.4211 0.411
53.4513 0.315
53.4816 0.896
53.5119 0.593
53.5422 0.133
53.5725 0.143
53.6027 -0.211
53.6330 0.060
53.6633 0.175
53.6936 0.446
53.7239 0.093
53.7541 0.366
53.7844 0.430
53.8147 0.131
53.8450 0.300
53.8752 -0.363
53.9055 -0.259
53.9358 0.405
53.9661 0.287
53.9964 0.379
54.0266 0.262
54.0569 -0.063
54.0872 0.551
54.1175 0.175
54.1478 -0.096
54.1780 0.154
54.2083 -0.117
54.2386 -0.022
54.2689 0.906
54.2991 0.533
54.3294 0.003
54.3597 0.099
54.3900 0.612
54.4203 0.761
54.4505 0.338
54.4808 0.071
54.5111 0.325
54.5414 0.007
54.5717 -0.311
54.6019 0.036
54.6322 0.279
54.6625 0.367
54.6928 -0.014
54.7230 0.491
54.7533 -0.202
54.7836 0.408
54.8139 0.706
54.8442 0.275
54.8744 0.105
54.9047 0.404
54.9350 0.026
54.9653 0.170
54.9956 -0.311
55.0258 -0.120
55.0561 0.019
55.0864 0.106
55.1167 -0.379
55.1469 -0.030
55.1772 -0.202
55.2075 0.460
55.2378 -0.231
55.2681 0.379
55.2983 -0.207
55.3286 -0.273
55.3589 0.339
55.3892 0.014
55.4195 0.262
55.4497 0.354
55.4800 0.707
55.5103 0.175
55.5406 0.008
55.5709 0.154
55.6011 0.196
55.6314 0.447
55.6617 0.125
55.6920 1.314
55.7222 0.785
55.7525 0.516
55.7828 0.508
55.8131 0.189
55.8434 1.223
55.8736 1.217
55.9039 1.107
55.9342 1.622
55.9645 0.835
55.9948 1.716
56.0250 1.607
56.0553 2.853
56.0856 3.161
56.1159 3.731
56.1461 5.707
56.1764 5.548
56.2067 6.223
56.2370 8.409
56.2673 8.459
56.2975 10.958
56.3278 11.531
56.3581 12.520
56.3884 16.999
56.4187 17.885
56.4489 18.928
56.4792 17.523
56.5095 17.993
56.5398 15.703
56.5700 13.050
56.6003 12.740
56.6306 11.806
56.6609 9.257
56.6912 7.490
56.7214 5.411
56.7517 5.989
56.7820 5.005
56.8123 4.698
56.8426 2.672
56.8728 2.887
56.9031 2.790
56.9334 1.495
56.9637 2.075
56.9939 1.770
57.0242 1.258
57.0545 0.902
57.0848 0.859
57.1151 0.556
57.1453 0.097
57.1756 1.045
57.2059 0.899
57.2362 0.910
57.2665 0.349
57.2967 0.360
57.3270 0.998
57.3573 0.437
57.3876 0.658
57.4178 0.516
57.4481 -0.096
57.4784 -0.290
57.5087 -0.077
57.5390 -0.071
57.5692 0.039
57.5995 0.358
57.6298 0.156
57.6601 0.320
57.6904 0.067
57.7206 0.387
57.7509 0.135
57.7812 0.352
57.8115 0.413
57.8417 0.631
57.8720 -0.401
57.9023 0.234
57.9326 0.192
57.9629 -0.057
57.9931 0.527
58.0234 0.070
58.0537 0.239
58.0840 0.564
58.1143 0.264
58.1445 -0.139
58.1748 -0.126
58.2051 -0.059
58.2354 -0.305
58.2656 0.335
58.2959 0.194
58.3262 0.313
58.3565 1.006
58.3868 0.242
58.4170 -0.002
58.4473 0.380
58.4776 0.345
58.5079 0.051
58.5382 0.330
58.5684 0.661
58.5987 0.055
58.6290 0.231
58.6593 0.615
58.6896 0.531
58.7198 -0.021
58.7501 0.052
58.7804 -0.239
58.8107 -0.043
58.8409 -0.160
58.8712 -0.172
58.9015 0.181
58.9318 0.170
58.9621 0.524
58.9923 -0.216
59.0226 0.139
59.0529 0.390
59.0832 -0.245
59.1135 0.111
59.1437 0.259
59.1740 -0.062
59.2043 -0.017
59.2346 0.027
59.2648 0.593
59.2951 0.378
59.3254 0.528
59.3557 0.054
59.3860 0.101
59.4162 -0.373
59.4465 0.508
59.4768 -0.330
59.5071 0.291
59.5374 0.809
59.5676 -0.080
59.5979 -0.082
59.6282 0.020
59.6585 0.174
59.6887 0.016
59.7190 0.901
59.7493 0.014
59.7796 0.014
59.8099 -0.194
59.8401 0.483
59.8704 0.172
59.9007 0.329
59.9310 -0.138
59.9613 -0.032
59.9915 0.179
60.0218 0.234
60.0521 -0.023
60.0824 -0.020
60.1126 0.297
60.1429 0.405
60.1732 0.306
60.2035 0.415
60.2338 0.577
60.2640 0.166
60.2943 0.120
60.3246 0.596
60.3549 -0.439
60.3852 0.610
60.4154 -0.007
60.4457 -0.311
60.4760 0.044
60.5063 -0.329
60.5365 0.548
60.5668 0.123
60.5971 0.116
60.6274 0.577
60.6577 -0.003
60.6879 0.356
60.7182 0.454
60.7485 0.292
60.7788 0.130
60.8091 -0.083
60.8393 -0.192
60.8696 -0.352
60.8999 0.530
60.9302 -0.099
60.9604 0.055
60.9907 -0.052
61.0210 0.363
61.0513 -0.056
61.0816 0.307
61.1118 -0.110
61.1421 0.410
61.1724 0.149
61.2027 0.150
61.2330 0.411
61.2632 0.359
61.2935 -0.004
61.3238 -0.054
61.3541 -0.260
61.3844 0.032
61.4146 0.169
61.4449 0.306
61.4752 -0.181
61.5055 0.373
61.5357 0.355
61.5660 0.911
61.5963 0.269
61.6266 0.773
61.6569 -0.181
61.6871 0.740
61.7174 -0.109
61.7477 -0.020
61.7780 0.174
61.8083 0.159
61.8385 1.135
61.8688 0.757
61.8991 0.744
61.9294 0.731
61.9596 0.770
61.9899 0.133
62.0202 0.590
62.0505 0.631
62.0808 1.141
62.1110 0.662
62.1413 1.381
62.1716 1.631
62.2019 1.153
62.2322 1.196
62.2624 1.865
62.2927 1.596
62.3230 2.370
62.3533 3.196
62.3835 3.188
62.4138 3.807
62.4441 4.946
62.4744 4.107
62.5047 7.383
62.5349 7.638
62.5652 9.040
62.5955 12.525
62.6258 14.240
62.6561 14.132
62.6863 16.629
62.7166 15.585
62.7469 14.332
62.7772 13.028
62.8074 14.277
62.8377 12.192
62.8680 11.514
62.8983 11.097
62.9286 9.483
62.9588 8.493
62.9891 6.255
63.0194 5.683
63.0497 5.528
63.0800 4.072
63.1102 2.355
63.1405 1.941
63.1708 2.101
63.2011 1.844
63.2313 1.275
63.2616 1.227
63.2919 1.388
63.3222 1.132
63.3525 1.294
63.3827 1.091
63.4130 0.785
63.4433 0.792
63.4736 0.590
63.5039 0.441
63.5341 0.293
63.5644 0.353
63.5947 0.101
63.6250 -0.411
63.6552 0.432
63.6855 0.338
63.7158 0.191
63.7461 0.462
63.7764 0.629
63.8066 0.432
63.8369 0.184
63.8672 0.144
63.8975 0.156
63.9278 -0.144
63.9580 -0.078
63.9883 -0.273
64.0186 -0.415
64.0489 0.320
64.0791 0.119
64.1094 -0.447
64.1397 0.133
64.1700 0.037
64.2003 0.150
64.2305 -0.206
64.2608 -0.041
64.2911 0.281
64.3214 0.135
64.3517 -0.063
64.3819 -0.053
64.4122 0.531
64.4425 0.230
64.4728 0.138
64.5031 0.046
64.5333 -0.045
64.5636 0.384
64.5939 0.033
64.6242 -0.266
64.6544 -0.118
64.6847 0.134
64.7150 0.283
64.7453 0.380
64.7756 -0.304
64.8058 0.262
64.8361 -0.109
64.8664 -0.271
64.8967 -0.227
64.9270 0.181
64.9572 0.277
64.9875 0.321
65.0178 -0.207
65.0481 -0.266
65.0783 -0.377
65.1086 0.398
65.1389 -0.024
65.1692 -0.134
65.1995 -0.243
65.2297 -0.039
65.2600 -0.096
65.2903 0.161
65.3206 -0.415
65.3509 -0.106
65.3811 -0.005
65.4114 -0.008
65.4417 -0.478
65.4720 0.301
65.5022 -0.117
65.5325 0.247
65.5628 -0.014
65.5931 0.090
65.6234 -0.223
65.6536 0.559
65.6839 0.091
65.7142 0.405
65.7445 -0.322
65.7748 0.357
65.8050 0.047
65.8353 0.102
65.8656 -0.363
65.8959 -0.069
65.9261 0.903
65.9564 0.782
65.9867 1.182
66.0170 1.582
66.0473 1.305
66.0775 0.925
66.1078 0.754
66.1381 1.572
66.1684 1.454
66.1987 1.127
66.2289 1.270
66.2592 1.673
66.2895 1.191
66.3198 1.908
66.3500 2.104
66.3803 0.946
66.4106 1.716
66.4409 0.976
66.4712 1.903
66.5014 0.383
66.5317 0.685
66.5620 0.988
66.5923 0.354
66.6226 0.919
66.6528 -0.027
66.6831 0.069
66.7134 -0.042
66.7437 0.471
66.7739 -0.004
66.8042 0.510
66.8345 -0.850
66.8648 -0.282
66.8951 0.442
66.9253 0.437
66.9556 0.068
66.9859 -0.248
67.0162 0.581
67.0465 -0.307
67.0767 -0.050
67.1070 -0.312
67.1373 0.041
67.1676 0.499
67.1978 0.384
67.2281 0.583
67.2584 1.250
67.2887 1.189
67.3190 1.440
67.3492 1.692
67.3795 1.372
67.4098 1.260
67.4401 1.826
67.4704 2.912
67.5006 2.958
67.5309 3.733
67.5612 3.727
67.5915 4.816
67.6218 5.280
67.6520 7.358
67.6823 6.521
67.7126 9.590
67.7429 9.066
67.7731 9.479
67.8034 10.466
67.8337 10.047
67.8640 9.160
67.8943 8.586
67.9245 7.699
67.9548 7.959
67.9851 6.448
68.0154 6.292
68.0457 4.209
68.0759 4.731
68.1062 3.951
68.1365 4.109
68.1668 2.288
68.1970 2.239
68.2273 1.773
68.2576 2.505
68.2879 2.352
68.3182 1.367
68.3484 0.902
68.3787 1.741
68.4090 0.808
68.4393 1.178
68.4696 0.611
68.4998 0.774
68.5301 1.301
68.5604 0.892
68.5907 1.368
68.6209 2.001
68.6512 2.009
68.6815 2.018
68.7118 1.246
68.7421 2.870
68.7723 3.036
68.8026 3.307
68.8329 3.473
68.8632 3.693
68.8935 4.954
68.9237 4.497
68.9540 4.666
68.9843 3.376
69.0146 5.108
69.0448 3.715
69.0751 4.302
69.1054 3.847
69.1357 2.820
69.1660 2.210
69.1962 2.017
69.2265 0.782
69.2568 1.319
69.2871 1.075
69.3174 1.352
69.3476 0.797
69.3779 0.971
69.4082 0.832
69.4385 0.851
69.4687 0.349
69.4990 0.368
69.5293 0.492
69.5596 -0.061
69.5899 -0.041
69.6201 0.553
69.6504 0.001
69.6807 0.179
69.7110 -0.372
69.7413 0.171
69.7715 -0.015
69.8018 0.633
69.8321 0.136
69.8624 0.316
69.8926 -0.181
69.9229 -0.260
69.9532 -0.152
69.9835 -0.303
70.0138 0.223
70.0440 0.125
70.0743 0.235
70.1046 -0.018
70.1349 -0.220
70.1652 -0.004
70.1954 -0.101
70.2257 0.220
70.2560 0.072
70.2863 -0.231
70.3166 0.143
70.3468 0.048
70.3771 0.110
70.4074 -0.140
70.4377 -0.337
70.4679 0.184
70.4982 0.185
70.5285 0.186
70.5588 -0.021
70.5891 0.137
70.6193 -0.121
70.6496 -0.014
70.6799 0.146
70.7102 -0.163
70.7405 0.205
70.7707 0.418
70.8010 -0.151
70.8313 -0.093
70.8616 -0.244
70.8918 -0.034
70.9221 0.384
70.9524 0.335
70.9827 -0.027
71.0130 0.080
71.0432 -0.125
71.0735 0.140
71.1038 0.665
71.1341 -0.112
71.1644 -0.107
71.1946 -0.414
71.2249 0.425
71.2552 0.067
71.2855 0.126
71.3157 0.133
71.3460 -0.068
71.3763 0.356
71.4066 -0.052
71.4369 -0.252
71.4671 0.434
71.4974 0.444
71.5277 0.505
71.5580 0.516
71.5883 0.162
71.6185 0.016
71.6488 -0.233
71.6791 0.021
71.7094 -0.037
71.7396 -0.146
71.7699 0.265
71.8002 0.261
71.8305 0.204
71.8608 -0.008
71.8910 0.353
71.9213 -0.275
71.9516 0.087
71.9819 0.241
72.0122 0.655
72.0424 0.133
72.0727 -0.233
72.1030 -0.134
72.1333 0.434
72.1635 -0.248
72.1938 0.581
72.2241 0.005
72.2544 0.053
72.2847 0.415
72.3149 1.193
72.3452 1.399
72.3755 1.085
72.4058 1.032
72.4361 1.395
72.4663 0.717
72.4966 0.665
72.5269 0.092
72.5572 0.822
72.5874 0.562
72.6177 -0.009
72.6480 0.253
72.6783 0.775
72.7086 -0.003
72.7388 -0.001
72.7691 -0.049
72.7994 0.423
72.8297 -0.042
72.8600 -0.142
72.8902 -0.189
72.9205 -0.132
72.9508 0.134
72.9811 -0.016
73.0113 0.251
73.0416 0.309
73.0719 -0.517
73.1022 0.011
73.1325 -0.085
73.1627 -0.285
73.1930 0.136
73.2233 0.142
73.2536 -0.113
73.2839 0.465
73.3141 -0.205
73.3444 0.114
73.3747 0.173
73.4050 0.128
73.4353 0.136
73.4655 0.092
73.4958 -0.107
73.5261 0.110
73.5564 -0.349
73.5866 0.233
73.6169 -0.173
73.6472 -0.215
73.6775 0.040
73.7078 -0.017
73.7380 0.082
73.7683 -0.079
73.7986 0.073
73.8289 0.122
73.8592 0.014
73.8894 0.115
73.9197 -0.096
73.9500 0.111
73.9803 -0.047
74.0105 0.003
74.0408 -0.258
74.0711 0.210
74.1014 0.106
74.1317 -0.415
74.1619 -0.054
74.1922 0.100
74.2225 -0.111
74.2528 -0.217
74.2831 0.042
74.3133 0.040
74.3436 -0.221
74.3739 -0.014
74.4042 -0.172
74.4344 0.036
74.4647 0.139
74.4950 -0.278
74.5253 -0.069
74.5556 -0.068
74.5858 0.506
74.6161 -0.066
74.6464 0.353
74.6767 0.146
74.7070 0.149
74.7372 -0.421
74.7675 0.051
74.7978 -0.414
74.8281 0.372
74.8583 0.116
74.8886 -0.036
74.9189 -0.134
74.9492 -0.389
74.9795 0.178
75.0097 0.172
75.0400 0.166
75.0703 0.057
75.1006 0.104
75.1309 0.048
75.1611 0.044
75.1914 0.041
75.2217 -0.171
75.2520 -0.174
75.2822 -0.020
75.3125 -0.022
75.3428 0.185
75.3731 -0.389
75.4034 -0.131
75.4336 0.284
75.4639 0.283
75.4942 -0.134
75.5245 -0.187
75.5548 -0.030
75.5850 -0.186
75.6153 0.075
75.6456 0.076
75.6759 0.130
75.7061 -0.389
75.7364 -0.086
75.7667 0.425
75.7970 0.208
75.8273 -0.113
75.8575 0.140
75.8878 0.236
75.9181 0.177
75.9484 0.014
75.9787 -0.045
76.0089 -0.415
76.0392 0.099
76.0695 -0.533
76.0998 0.138
76.1301 -0.389
76.1603 -0.082
76.1906 0.382
76.2209 0.117
76.2512 -0.356
76.2814 0.109
76.3117 -0.415
76.3420 -0.055
76.3723 -0.006
76.4026 0.407
76.4328 0.092
76.4631 0.141
76.4934 0.660
76.5237 0.554
76.5540 0.240
76.5842 0.864
76.6145 0.135
76.6448 1.020
76.6751 0.916
76.7053 1.177
76.7356 0.345
76.7659 1.179
76.7962 0.973
76.8265 0.558
76.8567 1.082
76.8870 1.293
76.9173 1.192
76.9476 0.883
76.9779 0.836
77.0081 0.319
77.0384 0.741
77.0687 0.902
77.0990 -0.134
77.1292 0.549
77.1595 0.400
77.1898 0.250
77.2201 0.205
77.2504 -0.047
77.2806 -0.039
77.3109 0.438
77.3412 0.238
77.3715 -0.065
77.4018 0.101
77.4320 0.788
77.4623 0.069
77.4926 -0.389
77.5229 -0.025
77.5531 0.132
77.5834 0.028
77.6137 0.029
77.6440 -0.178
77.6743 0.084
77.7045 0.139
77.7348 -0.328
77.7651 0.040
77.7954 0.147
77.8257 -0.161
77.8559 0.103
77.8862 -0.257
77.9165 0.217
77.9468 -0.247
77.9770 0.019
78.0073 0.025
78.0376 0.032
78.0679 0.038
78.0982 -0.215
78.1284 -0.060
78.1587 0.356
78.1890 -0.165
78.2193 0.043
78.2496 0.304
78.2798 -0.216
78.3101 -0.215
78.3404 -0.164
78.3707 -0.165
78.4009 -0.009
78.4312 -0.165
78.4615 0.304
78.4918 -0.216
78.5221 -0.215
78.5523 0.097
78.5826 -0.007
78.6129 -0.319
78.6432 0.099
78.6735 -0.160
78.7037 0.154
78.7340 -0.001
78.7643 0.523
78.7946 0.057
78.8248 0.008
78.8551 -0.145
78.8854 0.171
78.9157 -0.033
78.9460 0.128
78.9762 0.134
79.0065 0.191
79.0368 0.249
79.0671 0.151
79.0974 -0.259
79.1276 -0.104
79.1579 -0.158
79.1882 0.153
79.2185 -0.160
79.2488 -0.056
79.2790 -0.108
79.3093 0.101
79.3396 0.050
79.3699 0.468
79.4001 0.313
79.4304 -0.154
79.4607 0.213
79.4910 -0.565
79.5213 -0.093
79.5515 0.223
79.5818 0.175
79.6121 0.023
79.6424 0.236
79.6727 -0.280
79.7029 -0.118
79.7332 0.201
79.7635 -0.001
79.7938 0.162
79.8240 -0.040
79.8543 0.072
79.8846 -0.233
79.9149 -0.026
79.9452 0.494
79.9754 0.390
80.0057 0.337
80.0360 -0.183
80.0663 0.182
80.0966 0.339
80.1268 -0.128
80.1571 -0.022
80.1874 0.137
80.2177 0.295
80.2479 -0.222
80.2782 0.302
80.3085 0.410
80.3388 0.101
80.3691 -0.207
80.3993 -0.063
80.4296 0.237
80.4599 -0.139
80.4902 0.006
80.5205 -0.161
80.5507 0.922
80.5810 0.130
80.6113 -0.036
80.6416 0.059
80.6718 -0.159
80.7021 0.510
80.7324 0.502
80.7627 0.546
80.7930 0.017
80.8232 0.219
80.8535 0.108
80.8838 0.153
80.9141 0.668
80.9444 -0.171
80.9746 0.085
81.0049 0.444
81.0352 0.544
81.0655 0.384
81.0957 0.589
81.1260 0.533
81.1563 0.062
81.1866 1.101
81.2169 0.526
81.2471 0.524
81.2774 1.409
81.3077 0.522
81.3380 0.470
81.3683 0.313
81.3985 0.574
81.4288 0.679
81.4591 0.628
81.4894 0.265
81.5196 0.006
81.5499 0.425
81.5802 0.167
81.6105 0.170
81.6408 0.017
81.6710 -0.135
81.7013 0.286
81.7316 0.342
81.7619 0.035
81.7922 -0.168
81.8224 -0.215
81.8527 0.000
81.8830 -0.150
81.9133 0.221
81.9436 0.072
81.9738 -0.285
82.0041 -0.027
82.0344 0.284
82.0647 0.439
82.0949 -0.188
82.1252 -0.136
82.1555 0.176
82.1858 0.124
82.2161 -0.292
82.2463 0.177
82.2766 -0.342
82.3069 -0.028
82.3372 0.130
82.3675 -0.389
82.3977 0.083
82.4280 -0.435
82.4583 0.194
82.4886 0.458
82.5188 0.150
82.5491 0.103
82.5794 0.003
82.6097 0.165
82.6400 0.067
82.6702 0.021
82.7005 -0.285
82.7308 0.024
82.7611 0.177
82.7914 -0.087
82.8216 0.275
82.8519 -0.196
82.8822 -0.146
82.9125 0.269
82.9427 -0.097
82.9730 0.111
83.0033 -0.098
83.0336 0.110
83.0639 0.163
83.0941 0.112
83.1244 0.425
83.1547 0.166
83.1850 -0.040
83.2153 0.483
83.2455 0.382
83.2758 0.124
83.3061 -0.132
83.3364 -0.285
83.3666 0.183
83.3969 0.652
83.4272 0.027
83.4575 -0.129
83.4878 -0.285
83.5180 0.179
83.5483 -0.137
83.5786 0.224
83.6089 0.012
83.6392 -0.147
83.6694 0.215
83.6997 0.004
83.7300 0.055
83.7603 -0.207
83.7905 -0.208
83.8208 0.051
83.8511 0.311
83.8814 -0.575
83.9117 0.311
83.9419 -0.157
83.9722 -0.208
84.0025 0.157
84.0328 0.054
84.0631 -0.101
84.0933 -0.255
84.1236 0.164
84.1539 0.271
84.1842 -0.143
84.2144 0.173
84.2447 0.125
84.2750 0.129
84.3053 0.342
84.3356 -0.070
84.3658 0.196
84.3961 -0.059
84.4264 0.104
84.4567 -0.046
84.4870 0.222
84.5172 0.333
84.5475 0.185
84.5778 -0.120
84.6081 0.045
84.6383 -0.207
84.6686 0.001
84.6989 0.002
84.7292 0.263
84.7595 -0.049
84.7897 0.109
84.8200 0.266
84.8503 0.216
84.8806 0.011
84.9109 -0.195
84.9411 -0.154
84.9714 -0.113
85.0017 0.240
85.0320 0.126
85.0623 -0.145
85.0925 0.210
85.1228 0.045
85.1531 -0.276
85.1834 0.184
85.2136 0.176
85.2439 -0.249
85.2742 -0.047
85.3045 -0.106
85.3348 -0.061
85.3650 -0.119
85.3953 -0.021
85.4256 -0.338
85.4559 0.750
85.4862 0.277
85.5164 -0.196
85.5467 -0.356
85.5770 0.578
85.6073 -0.258
85.6375 -0.104
85.6678 0.414
85.6981 -0.056
85.7284 0.203
85.7587 0.149
85.7889 0.097
85.8192 0.253
85.8495 0.149
85.8798 0.097
85.9101 0.098
85.9403 -0.005
85.9706 0.205
86.0009 -0.366
86.0312 0.105
86.0614 0.004
86.0917 -0.045
86.1220 -0.145
86.1523 0.119
86.1826 0.071
86.2128 0.389
86.2431 0.238
86.2734 0.087
86.3037 -0.115
86.3340 -0.161
86.3642 0.106
86.3945 0.061
86.4248 0.798
86.4551 0.441
86.4853 0.033
86.5156 0.145
86.5459 0.311
86.5762 -0.253
86.6065 0.070
86.6367 -0.285
86.6670 -0.025
86.6973 -0.233
86.7276 0.080
86.7579 0.184
86.7881 0.185
86.8184 0.134
86.8487 0.396
86.8790 0.294
86.9092 0.297
86.9395 -0.013
86.9698 -0.427
87.0001 0.306
87.0304 0.049
87.0606 -0.207
87.0909 -0.005
87.1212 -0.011
87.1515 0.244
87.1818 0.031
87.2120 0.130
87.2423 -0.031
87.2726 -0.087
87.3029 0.326
87.3331 0.427
87.3634 0.372
87.3937 0.213
87.4240 0.003
87.4543 0.418
87.4845 0.104
87.5148 0.364
87.5451 0.051
87.5754 0.050
87.6057 0.207
87.6359 0.155
87.6662 0.104
87.6965 -0.207
87.7268 -0.059
87.7571 0.297
87.7873 -0.127
87.8176 0.542
87.8479 0.171
87.8782 0.112
87.9084 0.053
87.9387 -0.161
87.9690 0.407
87.9993 0.297
88.0296 -0.020
88.0598 -0.233
88.0901 0.064
88.1204 -0.108
88.1507 0.085
88.1810 0.174
88.2112 -0.101
88.2415 0.093
88.2718 -0.337
88.3021 -0.038
88.3323 -0.259
88.3626 0.457
88.3929 -0.024
88.4232 -0.661
88.4535 0.422
88.4837 -0.319
88.5140 0.087
88.5443 0.025
88.5746 -0.194
88.6049 -0.099
88.6351 -0.056
88.6654 -0.169
88.6957 0.031
88.7260 -0.029
88.7562 -0.297
88.7865 0.112
88.8168 -0.259
88.8471 -0.060
88.8774 -0.174
88.9076 0.234
88.9379 0.382
88.9682 0.113
88.9985 -0.259
89.0288 0.098
89.0590 0.456
89.0893 0.241
89.1196 0.808
89.1499 0.594
89.1801 0.849
89.2104 0.635
89.2407 0.526
89.2710 1.303
89.3013 1.508
89.3315 2.077
89.3618 1.501
89.3921 1.603
89.4224 2.330
89.4527 1.651
89.4829 1.701
89.5132 1.596
89.5435 2.064
89.5738 1.178
89.6040 1.491
89.6343 1.127
89.6646 1.128
89.6949 1.181
89.7252 1.078
89.7554 0.664
89.7857 1.447
89.8160 1.346
89.8463 0.776
89.8766 1.092
89.9068 0.263
89.9371 0.267
89.9674 0.064
89.9977 0.694
90.0279 0.439
90.0582 0.497
90.0885 0.451
90.1188 -0.219
90.1491 0.100
90.1793 0.003
90.2096 0.272
90.2399 0.280
90.2702 0.080
90.3005 -0.171
90.3307 0.151
90.3610 -0.152
90.3913 -0.038
90.4216 0.077
90.4518 -0.120
90.4821 0.256
90.5124 -0.045
90.5427 -0.085
90.5730 0.396
90.6032 -0.424
90.6335 -0.151
90.6638 -0.085
90.6941 -0.227
90.7244 -0.010
90.7546 -0.001
90.7849 0.008
90.8152 0.279
90.8455 0.393
90.8758 0.091
90.9060 0.050
90.9363 0.530
90.9666 -0.031
90.9969 0.085
91.0271 -0.215
91.0574 -0.366
91.0877 0.577
91.1180 0.218
91.1483 0.120
91.1785 0.126
91.2088 0.029
91.2391 0.401
91.2694 0.148
91.2997 -0.208
91.3299 -0.156
91.3602 0.105
91.3905 -0.259
91.4208 -0.055
91.4510 -0.111
91.4813 -0.167
91.5116 -0.170
91.5419 -0.173
91.5722 -0.228
91.6024 0.447
91.6327 -0.180
91.6630 0.079
91.6933 0.286
91.7236 -0.079
91.7538 0.025
91.7841 0.077
91.8144 0.234
91.8447 0.287
91.8749 0.288
91.9052 -0.075
91.9355 -0.073
91.9658 0.294
91.9961 0.193
92.0263 -0.116
92.0566 0.408
92.0869 -0.369
92.1172 -0.208
92.1475 -0.118
92.1777 0.233
92.2080 0.116
92.2383 0.103
92.2686 0.559
92.2988 -0.025
92.3291 0.484
92.3594 0.629
92.3897 0.045
92.4200 0.504
92.4502 1.014
92.4805 0.432
92.5108 0.423
92.5411 0.778
92.5714 1.030
92.6016 0.814
92.6319 0.702
92.6622 0.330
92.6925 0.844
92.7227 0.629
92.7530 0.415
92.7833 0.878
92.8136 0.456
92.8439 0.451
92.8741 0.134
92.9044 0.234
92.9347 0.699
92.9650 0.383
92.9953 0.380
93.0255 0.846
93.0558 0.531
93.0861 -0.200
93.1164 0.320
93.1466 0.423
93.1769 0.318
93.2072 0.005
93.2375 -0.203
93.2678 0.162
93.2980 -0.202
93.3283 0.268
93.3586 -0.251
93.3889 -0.040
93.4192 0.274
93.4494 0.277
93.4797 0.072
93.5100 -0.185
93.5403 -0.024
93.5706 -0.124
93.6008 -0.224
93.6311 0.407
93.6614 0.100
93.6917 -0.363
93.7219 -0.043
93.7522 0.017
93.7825 -0.131
93.8128 -0.227
93.8431 -0.185
93.8733 -0.143
93.9036 -0.204
93.9339 0.047
93.9642 0.455
93.9945 0.499
94.0247 -0.394
94.0550 0.223
94.0853 0.008
94.1156 -0.363
94.1458 0.042
94.1761 -0.073
94.2064 -0.188
94.2367 -0.094
94.2670 0.000
94.2972 -0.010
94.3275 0.606
94.3578 -0.236
94.3881 -0.244
94.4184 0.058
94.4486 0.204
94.4789 -0.222
94.5092 -0.283
94.5395 0.334
94.5697 0.377
94.6000 -0.047
94.6303 0.466
94.6606 0.303
94.6909 0.192
94.7211 -0.023
94.7514 0.648
94.7817 0.122
94.8120 0.898
94.8423 0.789
94.8725 0.524
94.9028 0.312
94.9331 0.777
94.9634 0.826
94.9936 1.240
95.0239 1.446
95.0542 1.496
95.0845 1.234
95.1148 1.910
95.1450 1.753
95.1753 1.752
95.2056 0.762
95.2359 1.179
95.2662 1.545
95.2964 1.494
95.3267 1.547
95.3570 1.289
95.3873 1.343
95.4175 0.408
95.4478 1.349
95.4781 0.675
95.5084 1.148
95.5387 1.048
95.5689 0.792
95.5992 0.901
95.6295 0.802
95.6598 0.652
95.6901 0.189
95.7203 -0.482
95.7506 0.150
95.7809 0.053
95.8112 -0.199
95.8414 0.434
95.8717 0.182
95.9020 -0.018
95.9323 -0.165
95.9626 0.105
95.9928 0.740
96.0231 0.647
96.0534 0.345
96.0837 -0.217
96.1140 0.055
96.1442 -0.141
96.1745 -0.337
96.2048 0.197
96.2351 -0.467
96.2653 -0.150
96.2956 0.375
96.3259 0.068
96.3562 -0.031
96.3865 -0.285
96.4167 0.081
96.4470 0.031
96.4773 0.241
96.5076 0.296
96.5379 -0.118
96.5681 -0.010
96.5984 -0.215
96.6287 0.050
96.6590 -0.154
96.6893 0.007
96.7195 -0.404
96.7498 0.070
96.7801 0.493
96.8104 0.030
96.8406 -0.119
96.8709 -0.060
96.9012 0.313
96.9315 0.112
96.9618 0.433
96.9920 0.077
97.0223 -0.122
97.0526 0.096
97.0829 -0.415
97.1132 0.221
97.1434 0.127
97.1737 0.190
97.2040 -0.215
97.2343 -0.227
97.2645 0.385
97.2948 0.165
97.3251 -0.055
97.3554 0.038
97.3857 -0.493
97.4159 0.015
97.4462 0.419
97.4765 0.094
97.5068 0.134
97.5371 0.488
97.5673 0.268
97.5976 0.049
97.6279 0.352
97.6582 -0.283
97.6884 0.228
97.7187 0.480
97.7490 0.002
97.7793 0.046
97.8096 -0.066
97.8398 -0.074
97.8701 0.128
97.9004 0.277
97.9307 0.219
97.9610 -0.100
97.9912 -0.053
98.0215 -0.214
98.0518 0.197
98.0821 0.037
98.1123 0.554
98.1426 -0.127
98.1729 0.391
98.2032 0.388
98.2335 0.385
98.2637 0.227
98.2940 0.486
98.3243 0.537
98.3546 1.109
98.3849 0.483
98.4151 0.796
98.4454 1.004
98.4757 0.588
98.5060 0.433
98.5362 0.435
98.5665 1.009
98.5968 0.907
98.6271 0.650
98.6574 0.965
98.6876 0.552
98.7179 0.660
98.7482 0.351
98.7785 0.512
98.8088 1.298
98.8390 0.523
98.8693 -0.045
98.8996 0.587
98.9299 0.489
98.9601 0.183
98.9904 0.191
99.0207 0.146
99.0510 -0.054
99.0813 -0.514
99.1115 0.276
99.1418 0.077
99.1721 -0.070
99.2024 0.044
99.2327 -0.102
99.2629 0.065
99.2932 0.181
99.3235 0.140
99.3538 -0.004
99.3841 -0.148
99.4143 0.229
99.4446 0.086
99.4749 -0.317
99.5052 0.010
99.5354 0.024
99.5657 0.195
99.5960 -0.363
99.6263 -0.147
99.6566 -0.190
99.6868 0.131
99.7171 0.348
99.7474 -0.267
99.7777 -0.049
99.8080 0.274
99.8382 -0.184
99.8685 0.296
99.8988 -0.005
99.9291 -0.202
99.9593 0.004
99.9896 0.314
100.0199 0.834
100.0502 -0.209
100.0805 0.050
100.1107 0.154
100.1410 0.310
100.1713 0.466
100.2016 0.310
100.2319 0.363
100.2621 0.209
100.2924 0.262
100.3227 0.004
100.3530 -0.202
100.3832 -0.099
100.4135 0.108
100.4438 -0.101
100.4741 0.003
100.5044 -0.309
100.5346 0.160
100.5649 -0.151
100.5952 0.006
100.6255 0.529
100.6558 0.062
100.6860 0.117
100.7163 -0.141
100.7466 0.800
100.7769 0.283
100.8071 0.599
100.8374 0.291
100.8677 0.296
100.8980 0.041
100.9283 0.098
100.9585 0.417
100.9888 0.215
101.0191 0.430
101.0494 0.072
101.0797 -0.233
101.1099 -0.038
101.1402 0.001
101.1705 0.352
101.2008 -0.181
101.2310 0.275
101.2613 0.628
101.2916 0.043
101.3219 -0.124
101.3522 -0.030
101.3824 0.011
101.4127 -0.155
101.4430 -0.008
101.4733 0.295
101.5036 0.391
101.5338 -0.138
101.5641 -0.094
101.5944 0.054
101.6247 -0.161
101.6549 -0.012
101.6852 0.034
101.7155 0.549
101.7458 -0.342
101.7761 -0.191
101.8063 0.273
101.8366 0.112
101.8669 -0.361
101.8972 0.104
101.9275 0.830
101.9577 -0.267
101.9880 0.356
102.0183 -0.271
102.0486 -0.221
102.0788 0.023
102.1091 0.267
102.1394 -0.009
102.1697 0.028
102.2000 0.326
102.2302 0.311
102.2605 0.141
102.2908 0.283
102.3211 0.218
102.3514 0.049
102.3816 0.609
102.4119 0.180
102.4422 0.429
102.4725 0.521
102.5028 0.250
102.5330 0.448
102.5633 0.021
102.5936 -0.458
102.6239 0.314
102.6541 0.669
102.6844 0.036
102.7147 0.757
102.7450 0.176
102.7753 0.533
102.8055 0.317
102.8358 0.623
102.8661 0.461
102.8964 -0.275
102.9267 -0.020
102.9569 0.288
102.9872 -0.030
103.0175 0.643
103.0478 -0.090
103.0780 0.635
103.1083 0.580
103.1386 0.004
103.1689 0.835
103.1992 0.521
103.2294 0.779
103.2597 0.622
103.2900 0.621
103.3203 0.152
103.3506 0.568
103.3808 0.360
103.4111 0.517
103.4414 0.206
103.4717 0.311
103.5019 0.157
103.5322 0.159
103.5625 -0.255
103.5928 -0.155
103.6231 0.311
103.6533 0.672
103.6836 0.566
103.7139 0.511
103.7442 -0.063
103.7745 0.352
103.8047 0.767
103.8350 1.548
103.8653 0.610
103.8956 1.496
103.9258 1.288
103.9561 1.393
103.9864 1.395
104.0167 1.761
104.0470 0.982
104.0772 1.140
104.1075 0.727
104.1378 0.938
104.1681 1.098
104.1984 0.373
104.2286 1.002
104.2589 1.007
104.2892 2.106
104.3195 0.393
104.3497 1.128
104.3800 0.457
104.4103 0.777
104.4406 0.367
104.4709 0.531
104.5011 0.383
104.5314 0.599
104.5617 0.348
104.5920 -0.060
104.6223 0.210
104.6525 0.532
104.6828 0.178
104.7131 -0.176
104.7434 -0.061
104.7736 0.367
104.8039 -0.037
104.8342 -0.181
104.8645 0.300
104.8948 0.313
104.9250 -0.455
104.9553 -0.233
104.9856 0.241
105.0159 0.037
105.0462 0.251
105.0764 0.257
105.1067 -0.205
105.1370 -0.147
105.1673 0.173
105.1975 -0.236
105.2278 0.084
105.2581 -0.116
105.2884 -0.055
105.3187 -0.203
105.3489 0.328
105.3792 0.181
105.4095 -0.173
105.4398 0.150
105.4701 -0.152
105.5003 0.224
105.5306 -0.233
105.5609 -0.187
105.5912 0.172
105.6215 0.219
105.6517 0.422
105.6820 -0.260
105.7123 0.048
105.7426 -0.112
105.7728 0.041
105.8031 -0.066
105.8334 0.087
105.8637 0.241
105.8940 0.292
105.9242 0.082
105.9545 0.185
105.9848 0.080
106.0151 -0.025
106.0454 0.027
106.0756 0.028
106.1059 0.341
106.1362 0.290
106.1665 0.084
106.1967 -0.071
106.2270 0.244
106.2573 -0.274
106.2876 0.719
106.3179 0.306
106.3481 0.206
106.3784 -0.311
106.4087 -0.159
106.4390 0.461
106.4693 0.406
106.4995 0.194
106.5298 0.243
106.5601 0.188
106.5904 -0.023
106.6206 -0.285
106.6509 0.078
106.6812 -0.131
106.7115 -0.080
106.7418 -0.028
106.7720 -0.653
106.8023 0.180
106.8326 0.337
106.8629 -0.130
106.8932 -0.441
106.9234 0.179
106.9537 0.331
106.9840 0.535
107.0143 -0.146
107.0445 0.111
107.0748 0.264
107.1051 -0.311
107.1354 -0.053
107.1657 -0.471
107.1959 0.257
107.2262 0.047
107.2565 0.567
107.2868 0.411
107.3171 0.411
107.3473 0.516
107.3776 -0.108
107.4079 0.310
107.4382 -0.001
107.4684 -0.155
107.4987 -0.153
107.5290 0.319
107.5593 0.322
107.5896 0.118
107.6198 0.017
107.6501 -0.239
107.6804 0.079
107.7107 0.136
107.7410 0.298
107.7712 0.304
107.8015 -0.002
107.8318 0.213
107.8621 0.376
107.8923 -0.189
107.9226 0.079
107.9529 0.400
107.9832 0.357
108.0135 0.210
108.0437 0.167
108.0740 0.333
108.1043 0.135
108.1346 0.406
108.1649 0.365
108.1951 0.116
108.2254 0.493
108.2557 0.088
108.2860 0.517
108.3163 -0.095
108.3465 0.544
108.3768 -0.224
108.4071 0.259
108.4374 -0.195
108.4676 -0.285
108.4979 0.224
108.5282 0.108
108.5585 0.409
108.5888 -0.018
108.6190 -0.081
108.6493 0.222
108.6796 0.264
108.7099 0.203
108.7402 0.558
108.7704 -0.023
108.8007 -0.031
108.8310 0.117
108.8613 -0.099
108.8915 -0.106
108.9218 -0.164
108.9521 -0.170
108.9824 0.397
109.0127 0.391
109.0429 0.074
109.0732 0.486
109.1035 0.169
109.1338 -0.043
109.1641 -0.099
109.1943 0.002
109.2246 0.104
109.2549 0.257
109.2852 -0.161
109.3154 -0.215
109.3457 0.136
109.3760 -0.345
109.4063 0.319
109.4366 0.099
109.4668 0.139
109.4971 0.076
109.5274 0.012
109.5577 0.210
109.5880 -0.269
109.6182 -0.018
109.6485 -0.080
109.6788 0.067
109.7091 -0.254
109.7393 0.102
109.7696 0.511
109.7999 0.712
109.8302 0.288
109.8605 -0.448
109.8907 -0.037
109.9210 0.477
109.9513 -0.205
109.9816 0.258
110.0119 0.566
110.0421 0.353
110.0724 0.558
110.1027 0.242
110.1330 0.238
110.1632 0.496
110.1935 0.493
110.2238 0.023
110.2541 0.438
110.2844 0.228
110.3146 0.383
110.3449 -0.034
110.3752 0.487
110.4055 0.331
110.4358 0.540
110.4660 0.489
110.4963 0.230
110.5266 0.909
110.5569 0.078
110.5871 0.288
110.6174 0.448
110.6477 -0.070
110.6780 0.246
110.7083 -0.010
110.7385 0.359
110.7688 0.000
110.7991 0.995
110.8294 0.063
110.8597 0.121
110.8899 0.075
110.9202 0.655
110.9505 -0.015
110.9808 0.358
111.0110 0.157
111.0413 0.270
111.0716 0.070
111.1019 -0.337
111.1322 -0.021
111.1624 0.035
111.1927 0.092
111.2230 -0.112
111.2533 0.154
111.2836 -0.153
111.3138 -0.199
111.3441 -0.037
111.3744 -0.082
111.4047 0.290
111.4350 0.141
111.4652 -0.059
111.4955 -0.051
111.5258 0.426
111.5561 -0.190
111.5863 -0.128
111.6166 0.142
111.6469 -0.056
111.6772 0.007
111.7075 0.018
111.7377 -0.023
111.7680 -0.011
111.7983 0.053
111.8286 0.118
111.8589 0.495
111.8891 -0.168
111.9194 -0.259
111.9497 0.202
111.9800 -0.118
112.0102 0.136
112.0405 0.806
112.0708 -0.138
112.1011 -0.091
112.1314 -0.149
112.1616 -0.050
112.1919 0.362
112.2222 -0.111
112.2525 0.041
112.2828 0.142
112.3130 0.087
112.3433 0.345
112.3736 -0.074
112.4039 0.392
112.4341 -0.078
112.4644 0.025
112.4947 0.024
112.5250 -0.237
112.5553 0.493
112.5855 0.076
112.6158 -0.288
112.6461 0.078
112.6764 -0.233
112.7067 -0.030
112.7369 -0.192
112.7672 -0.041
112.7975 0.006
112.8278 0.106
112.8580 0.622
112.8883 0.046
112.9186 -0.062
112.9489 -0.065
112.9792 -0.067
113.0094 0.295
113.0397 0.137
113.0700 -0.125
113.1003 -0.073
113.1306 0.030
113.1608 0.238
113.1911 0.343
113.2214 -0.230
113.2517 0.240
113.2819 0.346
113.3122 0.295
113.3425 0.402
113.3728 -0.065
113.4031 -0.010
113.4333 -0.215
113.4636 -0.164
113.4939 1.033
113.5242 0.303
113.5545 -0.062
113.5847 -0.062
113.6150 0.094
113.6453 -0.009
113.6756 -0.112
113.7058 -0.215
113.7361 0.088
113.7664 0.132
113.7967 0.019
113.8270 0.115
113.8572 0.055
113.8875 -0.213
113.9178 -0.116
113.9481 -0.174
113.9784 -0.128
114.0086 0.491
114.0389 -0.088
114.0692 -0.041
114.0995 -0.149
114.1298 0.159
114.1600 0.051
114.1903 0.047
114.2206 -0.112
114.2509 -0.011
114.2811 -0.013
114.3114 0.089
114.3417 0.192
114.3720 -0.122
114.4023 -0.018
114.4325 -0.123
114.4628 -0.227
114.4931 0.030
114.5234 -0.129
114.5537 0.285
114.5839 0.282
114.6142 0.124
114.6445 0.331
114.6748 -0.399
114.7050 0.069
114.7353 -0.244
114.7656 0.225
114.7959 -0.139
114.8262 0.330
114.8564 0.279
114.8867 0.125
114.9170 0.335
114.9473 0.233
114.9776 -0.337
115.0078 -0.197
115.0381 -0.161
115.0684 -0.333
115.0987 0.381
115.1289 0.471
115.1592 -0.065
115.1895 -0.131
115.2198 0.064
115.2501 -0.262
115.2803 0.194
115.3106 0.338
115.3409 0.013
115.3712 0.054
115.4015 0.199
115.4317 -0.333
115.4620 0.125
115.4923 0.532
115.5226 0.210
115.5528 0.513
115.5831 0.400
115.6134 0.079
115.6437 0.123
115.6740 0.479
115.7042 0.680
115.7345 0.361
115.7648 1.292
115.7951 0.556
115.8254 0.394
115.8556 0.701
115.8859 1.113
115.9162 0.744
115.9465 1.052
115.9767 1.309
116.0070 1.253
116.0373 1.250
116.0676 0.883
116.0979 1.193
116.1281 1.920
116.1584 0.981
116.1887 0.719
116.2190 1.708
116.2493 1.083
116.2795 1.343
116.3098 1.656
116.3401 0.876
116.3704 0.929
116.4006 1.399
116.4309 1.037
116.4612 1.612
116.4915 0.833
116.5218 1.045
116.5520 0.632
116.5823 1.104
116.6126 0.900
116.6429 0.957
116.6732 0.702
116.7034 0.707
116.7337 0.296
116.7640 -0.062
116.7943 0.049
116.8245 0.056
116.8548 0.115
116.8851 0.123
116.9154 0.183
116.9457 0.400
116.9759 -0.424
117.0062 0.210
117.0365 0.116
117.0668 -0.291
117.0971 0.449
117.1273 -0.165
117.1576 0.471
117.1879 -0.142
117.2182 -0.182
117.2485 0.299
117.2787 -0.105
117.3090 0.221
117.3393 0.339
117.3696 0.248
117.3998 -0.258
117.4301 0.226
117.4604 -0.124
117.4907 0.361
117.5210 -0.353
117.5512 0.289
117.5815 0.514
117.6118 -0.042
117.6421 -0.389
117.6724 0.080
117.7026 -0.128
117.7329 -0.075
117.7632 -0.230
117.7935 0.396
117.8237 0.711
117.8540 -0.068
117.8843 0.091
117.9146 0.094
117.9449 0.150
117.9751 0.101
118.0054 -0.467
118.0357 -0.047
118.0660 0.738
118.0963 0.117
118.1265 0.069
118.1568 -0.447
118.1871 0.392
118.2174 0.137
118.2476 0.143
118.2779 -0.110
118.3082 -0.104
118.3385 -0.253
118.3688 0.172
118.3990 0.232
118.4293 0.136
118.4596 0.041
118.4899 0.467
118.5202 0.216
118.5504 -0.035
118.5807 -0.493
118.6110 0.071
118.6413 0.166
118.6715 0.262
118.7018 -0.110
118.7321 0.247
118.7624 0.083
118.7927 0.077
118.8229 0.174
118.8532 -0.040
118.8835 -0.097
118.9138 -0.259
118.9441 0.149
118.9743 0.193
119.0046 0.133
119.0349 -0.031
119.0652 0.743
119.0954 -0.045
119.1257 0.053
119.1560 -0.161
119.1863 -0.062
119.2166 -0.067
119.2468 -0.124
119.2771 -0.285
119.3074 0.176
119.3377 -0.665
119.3680 -0.099
119.3982 0.154
119.4285 -0.581
119.4588 -0.066
119.4891 -0.072
119.5193 0.340
119.5496 0.283
119.5799 -0.243
119.6102 -0.142
119.6405 0.166
119.6707 0.215
119.7010 0.004
119.7313 -0.311
119.7616 0.075
119.7919 0.149
119.8221 0.171
119.8524 -0.067
119.8827 -0.044
119.9130 0.136
119.9433 0.055
119.9735 0.236
120.0038 0.000
