'Id: "" Comment: "" Operator: "Lab Manager" Anode: "Cu" Scantype: "Locked Coupled" TimePerStep: "19.2" X: "9999" Y: "9999" Z: "9999" 
10.0015 0.000
10.0318 -0.544
10.0620 -0.364
10.0923 0.023
10.1226 -0.526
10.1529 -0.437
10.1832 1.006
10.2134 -0.572
10.2437 0.299
10.2740 -0.081
10.3043 -1.189
10.3346 -0.143
10.3648 0.694
10.3951 0.230
10.4254 0.911
10.4557 0.187
10.4859 0.400
10.5162 0.301
10.5465 1.505
10.5768 0.885
10.6071 1.412
10.6373 0.845
10.6676 0.279
10.6979 -0.444
10.7282 0.865
10.7585 0.299
10.7887 0.723
10.8190 1.147
10.8493 1.207
10.8796 1.059
10.9098 3.306
10.9401 5.450
10.9704 5.563
11.0007 6.353
11.0310 9.695
11.0612 6.788
11.0915 6.276
11.1218 4.932
11.1521 3.015
11.1824 2.504
11.2126 1.004
11.2429 2.838
11.2732 1.442
11.3035 1.245
11.3337 0.683
11.3640 0.903
11.3943 1.019
11.4246 1.135
11.4549 1.512
11.4851 0.014
11.5154 1.276
11.5457 0.352
11.5760 0.834
11.6063 0.326
11.6365 1.069
11.6668 0.405
11.6971 0.940
11.7274 1.423
11.7577 1.021
11.7879 0.411
11.8182 1.519
11.8485 0.753
11.8788 1.029
11.9090 0.107
11.9393 0.331
11.9696 0.034
11.9999 0.623
12.0302 0.640
12.0604 0.448
12.0907 0.153
12.1210 -0.039
12.1513 0.447
12.1816 0.517
12.2118 -0.194
12.2421 -0.072
12.2724 -0.679
12.3027 -0.104
12.3329 0.106
12.3632 0.785
12.3935 0.683
12.4238 -0.409
12.4541 0.167
12.4843 -0.351
12.5146 0.017
12.5449 -0.397
12.5752 -0.081
12.6055 -0.025
12.6357 0.239
12.6660 0.139
12.6963 0.717
12.7266 -0.008
12.7568 -0.159
12.7871 0.106
12.8174 -0.617
12.8477 0.586
12.8780 0.019
12.9082 -0.079
12.9385 -0.125
12.9688 0.350
12.9991 0.252
13.0294 0.207
13.0596 0.319
13.0899 0.482
13.1202 -0.187
13.1505 -0.023
13.1807 0.245
13.2110 -0.111
13.2413 0.001
13.2716 0.635
13.3019 -0.398
13.3321 -0.284
13.3624 -0.327
13.3927 0.099
13.4230 0.526
13.4533 0.223
13.4835 -0.183
13.5138 0.140
13.5441 -0.162
13.5744 -0.359
13.6046 0.485
13.6349 0.080
13.6652 -0.534
13.6955 0.207
13.7258 0.532
13.7560 0.336
13.7863 0.400
13.8166 0.153
13.8469 0.114
13.8772 -0.030
13.9074 -1.214
13.9377 0.622
13.9680 0.376
13.9983 0.286
14.0285 -0.064
14.0588 0.471
14.0891 0.121
14.1194 0.084
14.1497 0.151
14.1799 0.115
14.2102 0.234
14.2405 0.094
14.2708 0.006
14.3011 -0.238
14.3313 -0.638
14.3616 0.090
14.3919 0.194
14.4222 0.662
14.4524 -0.536
14.4827 0.506
14.5130 0.506
14.5433 0.090
14.5736 0.247
14.6038 -0.325
14.6341 -0.219
14.6644 0.147
14.6947 -0.112
14.7250 0.463
14.7552 0.778
14.7855 -0.053
14.8158 1.043
14.8461 -0.048
14.8764 0.008
14.9066 0.740
14.9369 -0.715
14.9672 0.331
14.9975 -0.186
15.0277 0.443
15.0580 -0.021
15.0883 -0.381
15.1186 -0.123
15.1489 0.448
15.1791 0.237
15.2094 -0.129
15.2397 -0.078
15.2700 0.494
15.3003 0.440
15.3305 -0.081
15.3608 0.075
15.3911 1.064
15.4214 0.699
15.4516 -0.186
15.4819 0.075
15.5122 0.284
15.5425 -0.132
15.5728 -0.131
15.6030 0.652
15.6333 -0.232
15.6636 0.603
15.6939 0.188
15.7242 0.659
15.7544 -0.068
15.7847 -0.169
15.8150 -0.271
15.8453 0.097
15.8755 0.309
15.9058 0.104
15.9361 0.003
15.9664 0.164
15.9967 0.064
16.0269 -0.192
16.0572 -0.240
16.0875 0.546
16.1178 0.708
16.1481 0.088
16.1783 -0.375
16.2086 -0.220
16.2389 0.040
16.2692 0.248
16.2994 0.821
16.3297 -0.065
16.3600 0.352
16.3903 0.197
16.4206 0.093
16.4508 0.094
16.4811 -0.321
16.5114 0.305
16.5417 0.255
16.5720 0.569
16.6022 -0.210
16.6325 0.053
16.6628 0.368
16.6931 0.214
16.7233 0.321
16.7536 -0.092
16.7839 0.276
16.8142 -0.085
16.8445 0.335
16.8747 0.235
16.9050 0.917
16.9353 0.505
16.9656 -0.741
16.9959 0.358
17.0261 0.467
17.0564 0.525
17.0867 0.062
17.1170 -0.036
17.1472 0.022
17.1775 -0.128
17.2078 0.504
17.2381 -0.427
17.2684 0.205
17.2986 0.056
17.3289 0.063
17.3592 0.227
17.3895 0.287
17.4198 -0.069
17.4500 0.512
17.4803 -0.156
17.5106 -0.356
17.5409 -0.096
17.5712 -0.356
17.6014 -0.147
17.6317 -0.094
17.6620 0.116
17.6923 0.013
17.7225 0.015
17.7528 0.278
17.7831 0.176
17.8134 0.178
17.8437 0.285
17.8739 0.496
17.9042 0.499
17.9345 0.554
17.9648 0.193
17.9951 -0.376
18.0253 -0.215
18.0556 0.414
18.0859 0.054
18.1162 0.058
18.1464 -0.249
18.1767 0.068
18.2070 -0.343
18.2373 -0.181
18.2676 0.293
18.2978 0.143
18.3281 -0.111
18.3584 0.052
18.3887 0.006
18.4190 -0.352
18.4492 0.906
18.4795 0.392
18.5098 0.556
18.5401 0.147
18.5703 0.468
18.6006 0.476
18.6309 0.276
18.6612 0.076
18.6915 0.294
18.7217 -0.270
18.7520 -0.573
18.7823 0.157
18.8126 0.158
18.8429 0.263
18.8731 0.004
18.9034 0.370
18.9337 -0.201
18.9640 -0.043
18.9942 0.428
19.0245 -0.038
19.0548 0.329
19.0851 0.645
19.1154 0.127
19.1456 -0.390
19.1759 -0.238
19.2062 0.071
19.2365 -0.089
19.2668 0.012
19.2970 0.166
19.3273 0.371
19.3576 0.264
19.3879 0.106
19.4181 -0.001
19.4484 0.258
19.4787 -0.160
19.5090 0.620
19.5393 -0.007
19.5695 -0.528
19.5998 -0.008
19.6301 -0.061
19.6604 0.251
19.6907 0.199
19.7209 -0.322
19.7512 0.095
19.7815 -0.321
19.8118 0.045
19.8420 0.567
19.8723 0.412
19.9026 0.048
19.9329 0.154
19.9632 -0.156
19.9934 -0.154
20.0237 0.109
20.0540 0.476
20.0843 0.166
20.1146 -0.560
20.1448 -0.088
20.1751 0.072
20.2054 0.440
20.2357 0.392
20.2659 -0.489
20.2962 -0.329
20.3265 -0.067
20.3568 0.246
20.3871 -0.222
20.4173 0.874
20.4476 -0.479
20.4779 0.356
20.5082 -0.215
20.5385 -0.160
20.5687 -0.054
20.5990 -0.363
20.6293 -0.052
20.6596 0.311
20.6899 -0.315
20.7201 -0.055
20.7504 -0.212
20.7807 0.413
20.8110 0.101
20.8412 -0.472
20.8715 0.414
20.9018 -0.158
20.9321 -0.157
20.9624 0.417
20.9926 0.418
21.0229 0.316
21.0532 0.057
21.0835 -0.254
21.1138 0.217
21.1440 0.064
21.1743 0.014
21.2046 0.121
21.2349 0.437
21.2651 -0.341
21.2954 -0.129
21.3257 0.135
21.3560 -0.329
21.3863 -0.065
21.4165 -0.216
21.4468 0.257
21.4771 -0.207
21.5074 0.632
21.5377 0.325
21.5679 -0.086
21.5982 0.336
21.6285 -0.439
21.6588 -0.440
21.6890 0.392
21.7193 -0.077
21.7496 0.235
21.7799 0.235
21.8102 -0.130
21.8404 0.078
21.8707 0.287
21.9010 -0.025
21.9313 -0.024
21.9616 -0.179
21.9918 0.239
22.0221 -0.332
22.0524 -0.070
22.0827 0.140
22.1129 0.090
22.1432 -0.063
22.1735 0.043
22.2038 -0.318
22.2341 0.154
22.2643 -0.468
22.2946 0.160
22.3249 -0.304
22.3552 0.220
22.3855 -0.348
22.4157 -0.292
22.4460 -0.443
22.4763 0.447
22.5066 -0.069
22.5368 -0.168
22.5671 -0.006
22.5974 -0.156
22.6277 -0.358
22.6580 0.059
22.6882 0.424
22.7185 -0.044
22.7488 0.426
22.7791 -0.301
22.8094 -0.300
22.8396 -0.194
22.8699 0.329
22.9002 -0.293
22.9305 -0.239
22.9607 0.077
22.9910 0.132
23.0213 -0.021
23.0516 -0.070
23.0819 -0.327
23.1121 0.615
23.1424 -0.006
23.1727 -0.054
23.2030 0.159
23.2333 -0.305
23.2635 -0.256
23.2938 0.105
23.3241 -0.158
23.3544 -0.005
23.3846 -0.320
23.4149 0.095
23.4452 0.197
23.4755 0.455
23.5058 0.454
23.5360 0.088
23.5663 0.347
23.5966 0.398
23.6269 0.137
23.6572 -0.124
23.6874 0.501
23.7177 0.344
23.7480 -0.124
23.7783 -0.124
23.8086 0.762
23.8388 -0.018
23.8691 -0.226
23.8994 0.192
23.9297 0.142
23.9599 -0.065
23.9902 -0.011
24.0205 -0.478
24.0508 0.098
24.0811 0.257
24.1113 -0.001
24.1416 -0.050
24.1719 0.109
24.2022 0.165
24.2325 0.013
24.2627 0.277
24.2930 0.073
24.3233 0.129
24.3536 0.186
24.3838 0.035
24.4141 -0.065
24.4444 -0.320
24.4747 0.103
24.5050 0.369
24.5352 0.010
24.5655 0.120
24.5958 0.023
24.6261 -0.439
24.6564 0.192
24.6866 -0.165
24.7169 -0.210
24.7472 0.267
24.7775 -0.038
24.8077 -0.239
24.8380 -0.282
24.8683 0.085
24.8986 -0.485
24.9289 0.455
24.9591 0.094
24.9894 0.149
25.0197 0.570
25.0500 0.730
25.0803 0.370
25.1105 0.218
25.1408 0.326
25.1711 0.123
25.2014 0.232
25.2316 0.550
25.2619 0.243
25.2922 0.405
25.3225 0.463
25.3528 0.365
25.3830 -0.045
25.4133 0.274
25.4436 0.333
25.4739 0.288
25.5042 -0.174
25.5344 -0.270
25.5647 0.087
25.5950 0.340
25.6253 0.333
25.6555 0.014
25.6858 0.216
25.7161 0.262
25.7464 -0.212
25.7767 0.407
25.8069 -0.015
25.8372 0.709
25.8675 -0.025
25.8978 -0.082
25.9281 0.330
25.9583 0.221
25.9886 0.582
26.0189 0.265
26.0492 0.157
26.0794 0.206
26.1097 0.255
26.1400 -0.217
26.1703 0.301
26.2006 -0.430
26.2308 -0.381
26.2611 0.501
26.2914 -0.387
26.3217 0.340
26.3520 0.286
26.3822 0.544
26.4125 0.022
26.4428 0.437
26.4731 0.071
26.5034 0.070
26.5336 -0.035
26.5639 0.329
26.5942 0.173
26.6245 0.068
26.6547 -0.140
26.6850 -0.296
26.7153 0.122
26.7456 0.174
26.7759 0.540
26.8061 0.333
26.8364 0.595
26.8667 0.336
26.8970 0.078
26.9273 0.236
26.9575 -0.074
26.9878 0.189
27.0181 0.192
27.0484 -0.378
27.0786 -0.276
27.1089 0.086
27.1392 0.136
27.1695 -0.022
27.1998 0.133
27.2300 0.393
27.2603 0.235
27.2906 0.183
27.3209 0.234
27.3512 0.130
27.3814 -0.183
27.4117 0.182
27.4420 -0.078
27.4723 0.548
27.5025 0.080
27.5328 -0.232
27.5631 -0.282
27.5934 0.125
27.6237 -0.197
27.6539 0.523
27.6842 0.150
27.7145 -0.172
27.7448 0.653
27.7751 0.333
27.8053 -0.300
27.8356 0.213
27.8659 -0.159
27.8962 -0.479
27.9264 0.087
27.9567 0.653
27.9870 0.594
28.0173 0.119
28.0476 0.269
28.0778 0.263
28.1081 -0.055
28.1384 -0.321
28.1687 -0.014
28.1990 0.710
28.2292 -0.180
28.2595 0.336
28.2898 0.228
28.3201 0.120
28.3503 0.012
28.3806 0.008
28.4109 0.213
28.4412 0.001
28.4715 -0.106
28.5017 0.412
28.5320 -0.216
28.5623 -0.062
28.5926 0.249
28.6229 0.091
28.6531 -0.224
28.6834 0.400
28.7137 -0.070
28.7440 0.085
28.7742 0.032
28.8045 0.136
28.8348 0.031
28.8651 -0.437
28.8954 -0.127
28.9256 0.288
28.9559 0.130
28.9862 0.390
29.0165 0.128
29.0468 0.180
29.0770 -0.290
29.1073 0.439
29.1376 0.231
29.1679 -0.082
29.1981 0.127
29.2284 -0.185
29.2587 0.180
29.2890 -0.027
29.3193 0.130
29.3495 0.601
29.3798 0.134
29.4101 -0.385
29.4404 -0.229
29.4707 0.135
29.5009 -0.385
29.5312 -0.248
29.5615 -0.215
29.5918 0.287
29.6221 -0.409
29.6523 0.874
29.6826 -0.133
29.7129 0.057
29.7432 -0.169
29.7734 0.022
29.8037 -0.308
29.8340 -0.013
29.8643 -0.082
29.8946 -0.203
29.9248 0.302
29.9551 0.181
29.9854 -0.147
30.0157 -0.007
30.0460 0.134
30.0762 0.171
30.1065 -0.261
30.1368 -0.067
30.1671 0.022
30.1973 0.008
30.2276 -0.527
30.2579 -0.125
30.2882 -0.140
30.3185 -0.362
30.3487 -0.324
30.3790 0.392
30.4093 -0.455
30.4396 0.157
30.4699 0.509
30.5001 0.392
30.5304 0.379
30.5607 0.471
30.5910 0.407
30.6212 0.135
30.6515 0.020
30.6818 0.321
30.7121 0.414
30.7424 0.455
30.7726 0.236
30.8029 1.059
30.8332 0.580
30.8635 0.674
30.8938 0.665
30.9240 0.916
30.9543 1.063
30.9846 0.533
31.0149 1.514
31.0451 1.192
31.0754 2.278
31.1057 1.176
31.1360 1.585
31.1663 1.890
31.1965 2.351
31.2268 3.177
31.2571 3.170
31.2874 5.090
31.3177 4.823
31.3479 5.077
31.3782 6.321
31.4085 6.784
31.4388 6.674
31.4690 11.148
31.4993 12.653
31.5296 14.836
31.5599 17.123
31.5902 18.941
31.6204 18.624
31.6507 19.037
31.6810 18.095
31.7113 17.050
31.7416 13.817
31.7718 10.429
31.8021 9.957
31.8324 8.600
31.8627 6.098
31.8929 5.262
31.9232 4.791
31.9535 4.737
31.9838 3.017
32.0141 3.849
32.0443 1.973
32.0746 2.597
32.1049 2.075
32.1352 1.970
32.1655 1.085
32.1957 1.449
32.2260 1.085
32.2563 0.929
32.2866 0.877
32.3169 1.087
32.3471 0.411
32.3774 0.672
32.4077 0.153
32.4380 0.363
32.4682 0.313
32.4985 0.367
32.5288 -0.255
32.5591 -0.253
32.5894 0.115
32.6196 -0.143
32.6499 0.121
32.6802 -0.136
32.7105 -0.288
32.7408 -0.284
32.7710 -0.176
32.8013 0.037
32.8316 -0.375
32.8619 0.880
32.8921 -0.001
32.9224 -0.308
32.9527 -0.094
32.9830 0.276
33.0133 0.178
33.0435 -0.128
33.0738 0.451
33.1041 -0.375
33.1344 -0.108
33.1647 -0.101
33.1949 -0.406
33.2252 -0.054
33.2555 -0.326
33.2858 -0.390
33.3160 0.536
33.3463 0.056
33.3766 0.410
33.4069 -1.059
33.4372 0.284
33.4674 0.170
33.4977 -0.309
33.5280 -0.007
33.5583 -0.017
33.5886 -0.339
33.6188 0.538
33.6491 0.424
33.6794 0.520
33.7097 0.511
33.7399 0.347
33.7702 0.963
33.8005 0.591
33.8308 0.739
33.8611 0.472
33.8913 0.725
33.9216 1.291
33.9519 1.753
33.9822 2.059
34.0125 2.886
34.0427 3.400
34.0730 4.748
34.1033 4.847
34.1336 7.289
34.1638 9.732
34.1941 11.394
34.2244 16.024
34.2547 20.239
34.2850 20.495
34.3152 19.293
34.3455 15.070
34.3758 14.441
34.4061 9.178
34.4364 5.789
34.4666 4.536
34.4969 4.533
34.5272 2.812
34.5575 2.914
34.5877 2.235
34.6180 0.931
34.6483 1.137
34.6786 1.084
34.7089 1.239
34.7391 0.769
34.7694 1.029
34.7997 -0.013
34.8300 -0.274
34.8603 0.299
34.8905 0.143
34.9208 0.247
34.9511 -0.065
34.9814 -0.168
35.0116 0.094
35.0419 0.355
35.0722 0.096
35.1025 -0.110
35.1328 0.725
35.1630 0.415
35.1933 0.365
35.2236 0.576
35.2539 0.839
35.2842 0.374
35.3144 0.637
35.3447 1.318
35.3750 0.697
35.4053 0.701
35.4356 1.799
35.4658 1.438
35.4961 0.245
35.5264 1.917
35.5567 0.516
35.5869 2.187
35.6172 1.620
35.6475 2.303
35.6778 2.830
35.7081 3.149
35.7383 4.197
35.7686 4.360
35.7989 5.200
35.8292 5.363
35.8595 6.933
35.8897 8.034
35.9200 9.969
35.9503 10.810
35.9806 14.308
36.0108 17.390
36.0411 21.409
36.0714 24.699
36.1017 26.323
36.1320 26.488
36.1622 23.633
36.1925 22.445
36.2228 21.205
36.2531 16.215
36.2834 13.622
36.3136 11.393
36.3439 8.435
36.3742 7.248
36.4045 6.530
36.4347 6.542
36.4650 5.148
36.4953 3.597
36.5256 4.026
36.5559 2.372
36.5861 2.333
36.6164 0.991
36.6467 1.682
36.6770 2.320
36.7073 1.084
36.7375 0.785
36.7678 0.799
36.7981 0.970
36.8284 1.297
36.8586 0.582
36.8889 0.441
36.9192 0.092
36.9495 0.367
36.9798 0.383
37.0100 0.243
37.0403 -0.054
37.0706 0.640
37.1009 0.083
37.1312 0.465
37.1614 -0.091
37.1917 0.551
37.2220 0.672
37.2523 -0.143
37.2825 0.500
37.3128 -0.368
37.3431 -0.349
37.3734 -0.017
37.4037 0.420
37.4339 -0.393
37.4642 0.565
37.4945 0.117
37.5248 -0.175
37.5551 -0.258
37.5853 -0.184
37.6156 -0.215
37.6459 -0.141
37.6762 0.090
37.7064 0.060
37.7367 0.395
37.7670 0.105
37.7973 0.649
37.8276 -0.265
37.8578 0.018
37.8881 -0.166
37.9184 -0.299
37.9487 -0.078
37.9790 0.091
38.0092 0.104
38.0395 -0.403
38.0698 0.860
38.1001 -0.012
38.1304 0.575
38.1606 0.173
38.1909 0.031
38.2212 0.045
38.2515 0.425
38.2817 -0.081
38.3120 -0.274
38.3423 -0.114
38.3726 -0.163
38.4029 -0.003
38.4331 0.105
38.4634 0.005
38.4937 -0.407
38.5240 0.223
38.5543 0.019
38.5845 0.337
38.6148 0.030
38.6451 0.296
38.6754 -0.428
38.7056 -0.265
38.7359 0.053
38.7662 0.059
38.7965 0.274
38.8268 0.333
38.8570 0.132
38.8873 -0.122
38.9176 0.354
38.9479 -0.003
38.9782 0.005
39.0084 0.326
39.0387 0.074
39.0690 -0.074
39.0993 0.195
39.1295 0.152
39.1598 0.005
39.1901 0.014
39.2204 0.284
39.2507 0.398
39.2809 0.356
39.3112 0.158
39.3415 0.012
39.3718 -0.237
39.4021 -0.139
39.4323 0.272
39.4626 -0.046
39.4929 0.521
39.5232 0.151
39.5534 -0.166
39.5837 0.090
39.6140 0.033
39.6443 0.654
39.6746 -0.027
39.7048 -0.187
39.7351 0.174
39.7654 0.222
39.7957 0.063
39.8260 -0.148
39.8562 -0.203
39.8865 -0.206
39.9168 0.053
39.9471 0.207
39.9773 -0.160
40.0076 -0.005
40.0379 -0.215
40.0682 0.201
40.0985 0.200
40.1287 -0.113
40.1590 0.043
40.1893 -0.114
40.2196 -0.322
40.2499 0.407
40.2801 0.251
40.3104 0.304
40.3407 0.357
40.3710 -0.006
40.4012 0.151
40.4315 0.361
40.4618 0.259
40.4921 -0.520
40.5224 0.055
40.5526 -0.255
40.5829 0.060
40.6132 0.011
40.6435 -0.038
40.6738 0.330
40.7040 -0.135
40.7343 0.285
40.7646 -0.023
40.7949 -0.175
40.8251 -0.119
40.8554 -0.062
40.8857 -0.057
40.9160 -0.312
40.9463 0.162
40.9765 0.115
41.0068 0.069
41.0371 -0.237
41.0674 -0.133
41.0977 -0.081
41.1279 0.024
41.1582 -0.027
41.1885 -0.078
41.2188 0.131
41.2491 0.237
41.2793 -0.178
41.3096 -0.020
41.3399 0.191
41.3702 0.037
41.4004 -0.273
41.4307 -0.062
41.4610 0.410
41.4913 -0.160
41.5216 0.260
41.5518 0.160
41.5821 0.008
41.6124 0.220
41.6427 0.068
41.6730 0.125
41.7032 -0.079
41.7335 0.031
41.7638 0.348
41.7941 -0.167
41.8243 0.047
41.8546 0.261
41.8849 0.320
41.9152 0.326
41.9455 -0.084
41.9757 0.235
42.0060 0.034
42.0363 0.458
42.0666 0.257
42.0969 0.473
42.1271 0.117
42.1574 0.437
42.1877 0.029
42.2180 -0.170
42.2482 -0.005
42.2785 0.420
42.3088 0.378
42.3391 -0.082
42.3694 -0.228
42.3996 0.026
42.4299 0.228
42.4602 0.744
42.4905 0.269
42.5208 0.472
42.5510 0.155
42.5813 0.150
42.6116 -0.219
42.6419 0.037
42.6721 0.397
42.7024 -0.024
42.7327 0.389
42.7630 0.021
42.7933 -0.138
42.8235 0.327
42.8538 -0.040
42.8841 0.009
42.9144 -0.202
42.9447 0.005
42.9749 -0.258
43.0052 -0.054
43.0355 0.046
43.0658 0.041
43.0960 0.246
43.1263 0.190
43.1566 -0.179
43.1869 0.339
43.2172 -0.081
43.2474 0.281
43.2777 0.122
43.3080 -0.037
43.3383 0.482
43.3686 0.011
43.3988 0.374
43.4291 0.320
43.4594 0.058
43.4897 -0.099
43.5199 0.160
43.5502 -0.153
43.5805 -0.101
43.6108 0.159
43.6411 0.263
43.6713 0.420
43.7016 -0.153
43.7319 0.004
43.7622 -0.255
43.7925 0.267
43.8227 0.424
43.8530 0.009
43.8833 -0.041
43.9136 0.325
43.9439 0.119
43.9741 0.278
44.0044 0.124
44.0347 0.700
44.0650 -0.078
44.0952 0.238
44.1255 0.398
44.1558 0.245
44.1861 0.093
44.2164 0.462
44.2466 -0.211
44.2769 -0.154
44.3072 0.007
44.3375 -0.040
44.3678 -0.138
44.3980 0.649
44.4283 -0.023
44.4586 0.087
44.4889 -0.219
44.5191 -0.108
44.5494 -0.206
44.5797 -0.055
44.6100 -0.060
44.6403 0.299
44.6705 0.295
44.7008 0.186
44.7311 0.129
44.7614 0.073
44.7917 0.173
44.8219 0.430
44.8522 0.270
44.8825 0.319
44.9128 0.056
44.9430 -0.103
44.9733 0.259
45.0036 0.100
45.0339 -0.058
45.0642 -0.217
45.0944 -0.170
45.1247 0.293
45.1550 -0.024
45.1853 -0.081
45.2156 0.331
45.2458 -0.195
45.2761 0.426
45.3064 -0.359
45.3367 -0.051
45.3669 0.310
45.3972 0.359
45.4275 -0.113
45.4578 0.093
45.4881 0.298
45.5183 -0.277
45.5486 -0.227
45.5789 0.131
45.6092 -0.240
45.6395 0.223
45.6697 0.165
45.7000 0.212
45.7303 0.311
45.7606 0.358
45.7908 0.197
45.8211 0.140
45.8514 0.240
45.8817 -0.129
45.9120 -0.029
45.9422 0.176
45.9725 0.172
46.0028 -0.092
46.0331 -0.355
46.0634 0.111
46.0936 0.213
46.1239 0.418
46.1542 0.052
46.1845 -0.054
46.2147 -0.316
46.2450 -0.016
46.2753 -0.131
46.3056 -0.038
46.3359 0.055
46.3661 0.201
46.3964 0.190
46.4267 -0.236
46.4570 0.170
46.4873 -0.100
46.5175 0.203
46.5478 -0.119
46.5781 -0.180
46.6084 0.332
46.6386 0.480
46.6689 0.263
46.6992 0.359
46.7295 -0.170
46.7598 0.708
46.7900 0.335
46.8203 0.224
46.8506 0.113
46.8809 0.679
46.9112 0.360
46.9414 0.562
46.9717 0.660
47.0020 0.341
47.0323 0.335
47.0626 1.267
47.0928 1.054
47.1231 0.684
47.1534 0.940
47.1837 1.873
47.2139 2.181
47.2442 1.760
47.2745 1.964
47.3048 2.481
47.3351 2.530
47.3653 3.985
47.3956 3.253
47.4259 3.510
47.4562 3.352
47.4865 3.141
47.5167 2.670
47.5470 3.397
47.5773 2.823
47.6076 2.457
47.6378 1.622
47.6681 0.996
47.6984 1.881
47.7287 1.307
47.7590 1.151
47.7892 0.369
47.8195 0.213
47.8498 0.265
47.8801 0.579
47.9104 0.215
47.9406 0.580
47.9709 0.425
48.0012 0.218
48.0315 0.168
48.0617 0.222
48.0920 -0.141
48.1223 0.226
48.1526 0.541
48.1829 0.284
48.2131 0.287
48.2434 -0.335
48.2737 0.241
48.3040 0.037
48.3343 0.197
48.3645 -0.268
48.3948 -0.003
48.4251 -0.050
48.4554 -0.045
48.4856 0.272
48.5159 0.069
48.5462 -0.134
48.5765 0.028
48.6068 -0.174
48.6370 -0.429
48.6673 0.094
48.6976 -0.165
48.7279 -0.215
48.7582 0.048
48.7884 -0.366
48.8187 -0.103
48.8490 0.161
48.8793 -0.409
48.9095 0.480
48.9398 0.015
48.9701 0.123
49.0004 -0.133
49.0307 -0.129
49.0609 0.032
49.0912 -0.067
49.1215 -0.218
49.1518 -0.265
49.1821 -0.212
49.2123 -0.001
49.2426 -0.155
49.2729 0.003
49.3032 -0.151
49.3334 -0.096
49.3637 -0.041
49.3940 0.171
49.4243 -0.034
49.4546 -0.291
49.4848 0.182
49.5151 -0.022
49.5454 0.034
49.5757 0.403
49.6060 -0.425
49.6362 0.101
49.6665 -0.259
49.6968 -0.045
49.7271 0.065
49.7574 -0.294
49.7876 -0.140
49.8179 -0.038
49.8482 0.115
49.8785 -0.199
49.9087 0.059
49.9390 -0.047
49.9693 -0.256
49.9996 -0.363
50.0299 0.469
50.0601 0.467
50.0904 0.101
50.1207 0.204
50.1510 -0.006
50.1813 -0.163
50.2115 0.253
50.2418 -0.008
50.2721 0.148
50.3024 0.148
50.3326 -0.216
50.3629 0.045
50.3932 0.410
50.4235 0.255
50.4538 -0.004
50.4840 -0.107
50.5143 -0.158
50.5446 0.000
50.5749 -0.258
50.6052 0.109
50.6354 0.163
50.6657 0.166
50.6960 -0.091
50.7263 -0.245
50.7565 -0.241
50.7868 -0.133
50.8171 -0.234
50.8474 0.031
50.8777 0.243
50.9079 0.144
50.9382 0.357
50.9685 -0.211
50.9988 0.263
51.0291 0.112
51.0593 -0.247
51.0896 -0.191
51.1199 -0.084
51.1502 -0.184
51.1804 -0.024
51.2107 0.033
51.2410 0.402
51.2713 0.198
51.3016 0.099
51.3318 -0.104
51.3621 0.266
51.3924 0.584
51.4227 -0.191
51.4530 -0.237
51.4832 -0.037
51.5135 0.112
51.5438 0.000
51.5741 0.097
51.6043 -0.066
51.6346 0.083
51.6649 -0.028
51.6952 0.226
51.7255 0.116
51.7557 -0.150
51.7860 0.104
51.8163 0.255
51.8466 -0.010
51.8769 0.089
51.9071 -0.020
51.9374 -0.181
51.9677 -0.029
51.9980 0.227
52.0282 -0.089
52.0585 -0.093
52.0888 0.268
52.1191 -0.152
52.1494 -0.102
52.1796 -0.053
52.2099 0.048
52.2402 0.150
52.2705 -0.477
52.3008 -0.219
52.3310 -0.377
52.3613 0.350
52.3916 -0.068
52.4219 0.034
52.4521 -0.071
52.4824 0.032
52.5127 0.083
52.5430 0.031
52.5733 -0.230
52.6035 0.134
52.6338 -0.074
52.6641 -0.074
52.6944 -0.125
52.7247 -0.124
52.7549 0.137
52.7852 0.086
52.8155 -0.277
52.8458 0.141
52.8761 -0.430
52.9063 0.041
52.9366 -0.217
52.9669 -0.423
52.9972 0.309
53.0274 -0.052
53.0577 0.055
53.0880 -0.358
53.1183 0.062
53.1486 0.118
53.1788 0.070
53.2091 0.387
53.2394 -0.389
53.2697 0.032
53.3000 0.297
53.3302 -0.270
53.3605 0.308
53.3908 0.053
53.4211 0.268
53.4513 -0.247
53.4816 -0.500
53.5119 0.236
53.5422 0.556
53.5725 0.147
53.6027 -0.054
53.6330 -0.358
53.6633 0.067
53.6936 -0.289
53.7239 -0.138
53.7541 0.378
53.7844 0.112
53.8147 -0.048
53.8450 -0.001
53.8752 0.047
53.9055 -0.008
53.9358 0.092
53.9661 0.193
53.9964 -0.227
54.0266 0.135
54.0569 -0.076
54.0872 0.182
54.1175 0.283
54.1478 -0.187
54.1780 -0.137
54.2083 0.070
54.2386 -0.244
54.2689 -0.037
54.2991 -0.090
54.3294 -0.247
54.3597 -0.093
54.3900 -0.199
54.4203 0.424
54.4505 -0.307
54.4808 -0.048
54.5111 0.159
54.5414 -0.259
54.5717 -0.051
54.6019 0.052
54.6322 -0.208
54.6625 0.052
54.6928 0.000
54.7230 0.052
54.7533 -0.155
54.7836 0.210
54.8139 0.211
54.8442 0.004
54.8744 0.162
54.9047 -0.045
54.9350 0.217
54.9653 0.011
54.9956 -0.247
55.0258 -0.309
55.0561 0.463
55.0864 -0.224
55.1167 0.184
55.1469 0.071
55.1772 0.062
55.2075 0.106
55.2378 -0.580
55.2681 0.402
55.2983 -0.231
55.3286 0.074
55.3589 -0.194
55.3892 -0.149
55.4195 0.365
55.4497 0.098
55.4800 0.196
55.5103 0.086
55.5406 -0.077
55.5709 0.699
55.6011 0.068
55.6314 0.011
55.6617 0.006
55.6920 -0.207
55.7222 0.569
55.7525 0.148
55.7828 -0.116
55.8131 -0.016
55.8434 0.293
55.8736 0.549
55.9039 0.130
55.9342 0.387
55.9645 0.019
55.9948 0.538
56.0250 0.848
56.0553 0.533
56.0856 0.583
56.1159 1.415
56.1461 0.736
56.1764 1.568
56.2067 1.203
56.2370 2.191
56.2673 2.243
56.2975 2.763
56.3278 3.284
56.3581 3.440
56.3884 4.639
56.4187 5.264
56.4489 5.317
56.4792 4.485
56.5095 4.746
56.5398 5.112
56.5700 4.280
56.6003 4.647
56.6306 4.389
56.6609 3.505
56.6912 2.466
56.7214 1.688
56.7517 1.326
56.7820 1.173
56.8123 1.020
56.8426 1.076
56.8728 0.976
56.9031 0.043
56.9334 1.036
56.9637 0.468
56.9939 0.004
57.0242 0.270
57.0545 0.327
57.0848 0.541
57.1151 0.182
57.1453 0.396
57.1756 -0.119
57.2059 -0.060
57.2362 0.259
57.2665 -0.099
57.2967 0.064
57.3270 -0.033
57.3573 0.235
57.3876 -0.122
57.4178 0.199
57.4481 0.051
57.4784 -0.045
57.5087 -0.036
57.5390 0.076
57.5692 0.294
57.5995 0.043
57.6298 0.208
57.6601 0.114
57.6904 -0.084
57.7206 -0.230
57.7509 0.092
57.7812 -0.053
57.8115 -0.042
57.8417 0.073
57.8720 -0.072
57.9023 -0.165
57.9326 -0.101
57.9629 0.119
57.9931 0.288
58.0234 -0.273
58.0537 -0.312
58.0840 0.206
58.1143 -0.317
58.1445 -0.163
58.1748 0.200
58.2051 0.251
58.2354 -0.376
58.2656 0.248
58.2959 -0.170
58.3262 0.455
58.3565 0.246
58.3868 0.142
58.4170 -0.119
58.4473 -0.171
58.4776 0.142
58.5079 0.143
58.5382 0.196
58.5684 0.145
58.5987 -0.271
58.6290 -0.009
58.6593 0.097
58.6896 0.360
58.7198 -0.107
58.7501 -0.104
58.7804 0.211
58.8107 -0.151
58.8409 -0.148
58.8712 0.064
58.9015 -0.089
58.9318 0.227
58.9621 0.023
58.9923 0.079
59.0226 0.136
59.0529 -0.016
59.0832 -0.011
59.1135 0.359
59.1437 0.364
59.1740 0.110
59.2043 0.376
59.2346 -0.139
59.2648 -0.029
59.2951 -0.335
59.3254 -0.021
59.3557 0.032
59.3860 0.242
59.4162 -0.121
59.4465 0.142
59.4768 0.248
59.5071 0.250
59.5374 0.097
59.5676 0.204
59.5979 0.207
59.6282 0.158
59.6585 -0.359
59.6887 -0.206
59.7190 -0.109
59.7493 0.041
59.7796 0.399
59.8099 0.496
59.8401 0.177
59.8704 0.119
59.9007 -0.095
59.9310 0.108
59.9613 0.259
59.9915 0.201
60.0218 0.144
60.0521 -0.069
60.0824 0.031
60.1126 0.183
60.1429 0.231
60.1732 0.123
60.2035 0.432
60.2338 0.012
60.2640 0.113
60.2943 0.162
60.3246 -0.049
60.3549 0.001
60.3852 -0.158
60.4154 0.257
60.4457 -0.214
60.4760 -0.163
60.5063 -0.321
60.5365 0.147
60.5668 -0.115
60.5971 -0.063
60.6274 -0.116
60.6577 0.144
60.6879 0.040
60.7182 0.093
60.7485 0.093
60.7788 0.198
60.8091 -0.114
60.8393 -0.165
60.8696 0.097
60.8999 0.203
60.9302 -0.473
60.9604 0.050
60.9907 -0.312
61.0210 -0.102
61.0513 -0.204
61.0816 -0.046
61.1118 0.113
61.1421 -0.093
61.1724 0.066
61.2027 0.173
61.2330 0.229
61.2632 -0.393
61.2935 -0.129
61.3238 -0.125
61.3541 0.036
61.3844 0.457
61.4146 0.097
61.4449 -0.211
61.4752 -0.258
61.5055 0.149
61.5357 0.452
61.5660 0.495
61.5963 0.486
61.6266 0.321
61.6569 0.052
61.6871 0.148
61.7174 0.088
61.7477 0.080
61.7780 0.125
61.8083 0.065
61.8385 0.110
61.8688 -0.105
61.8991 0.148
61.9294 -0.066
61.9596 0.032
61.9899 -0.183
62.0202 -0.137
62.0505 0.587
62.0808 0.217
62.1110 0.941
62.1413 0.363
62.1716 0.567
62.2019 0.562
62.2322 0.454
62.2624 0.762
62.2927 0.602
62.3230 0.807
62.3533 0.804
62.3835 1.425
62.4138 1.110
62.4441 0.899
62.4744 1.626
62.5047 1.832
62.5349 2.559
62.5652 2.245
62.5955 2.868
62.6258 3.648
62.6561 4.324
62.6863 3.959
62.7166 4.322
62.7469 4.426
62.7772 3.593
62.8074 3.176
62.8377 3.905
62.8680 3.020
62.8983 2.969
62.9286 2.553
62.9588 2.346
62.9891 3.024
63.0194 1.516
63.0497 2.142
63.0800 1.259
63.1102 1.417
63.1405 1.316
63.1708 1.058
63.2011 0.696
63.2313 0.700
63.2616 0.130
63.2919 0.290
63.3222 0.242
63.3525 0.037
63.3827 0.562
63.4130 0.254
63.4433 0.519
63.4736 0.056
63.5039 -0.043
63.5341 0.014
63.5644 0.176
63.5947 0.182
63.6250 0.032
63.6552 0.038
63.6855 0.305
63.7158 -0.209
63.7461 0.006
63.7764 0.274
63.8066 0.125
63.8369 0.080
63.8672 -0.068
63.8975 0.148
63.9278 -0.260
63.9580 -0.211
63.9883 0.411
64.0186 0.044
64.0489 0.406
64.0791 0.039
64.1094 0.141
64.1397 -0.121
64.1700 -0.123
64.2003 -0.020
64.2305 0.239
64.2608 -0.126
64.2911 0.081
64.3214 0.029
64.3517 -0.232
64.3819 0.029
64.4122 -0.127
64.4425 -0.075
64.4728 -0.074
64.5031 0.083
64.5333 0.032
64.5636 -0.071
64.5939 0.035
64.6242 0.401
64.6544 -0.014
64.6847 0.145
64.7150 -0.165
64.7453 0.462
64.7756 0.205
64.8058 0.052
64.8361 -0.205
64.8664 -0.202
64.8967 0.115
64.9270 -0.090
64.9572 0.227
64.9875 -0.081
65.0178 -0.337
65.0481 0.137
65.0783 0.090
65.1086 0.095
65.1389 0.101
65.1692 0.159
65.1995 0.425
65.2297 0.692
65.2600 0.126
65.2903 0.080
65.3206 0.139
65.3509 -0.010
65.3811 0.258
65.4114 -0.412
65.4417 -0.318
65.4720 0.609
65.5022 0.130
65.5325 0.016
65.5628 0.163
65.5931 0.101
65.6234 -0.012
65.6536 -0.021
65.6839 0.075
65.7142 0.066
65.7445 0.214
65.7748 0.050
65.8050 0.094
65.8353 0.243
65.8656 0.287
65.8959 -0.189
65.9261 0.065
65.9564 0.006
65.9867 -0.001
66.0170 0.514
66.0473 0.300
66.0775 0.502
66.1078 0.497
66.1381 0.179
66.1684 0.538
66.1987 0.012
66.2289 0.581
66.2592 0.472
66.2895 0.780
66.3198 0.151
66.3500 0.043
66.3803 0.196
66.4106 0.557
66.4409 0.137
66.4712 0.082
66.5014 0.548
66.5317 0.494
66.5620 -0.029
66.5923 0.073
66.6226 0.071
66.6528 -0.191
66.6831 0.016
66.7134 -0.037
66.7437 -0.142
66.7739 -0.247
66.8042 -0.153
66.8345 0.046
66.8648 -0.120
66.8951 0.027
66.9253 -0.242
66.9556 0.114
66.9859 -0.207
67.0162 0.045
67.0465 -0.224
67.0767 0.081
67.1070 0.177
67.1373 -0.299
67.1676 0.215
67.1978 0.156
67.2281 0.305
67.2584 0.455
67.2887 0.188
67.3190 0.234
67.3492 -0.345
67.3795 0.691
67.4098 0.530
67.4401 0.316
67.4704 0.572
67.5006 1.036
67.5309 0.667
67.5612 0.558
67.5915 1.648
67.6218 1.800
67.6520 1.432
67.6823 1.429
67.7126 1.999
67.7429 2.256
67.7731 1.420
67.8034 2.720
67.8337 1.936
67.8640 2.767
67.8943 2.088
67.9245 2.503
67.9548 1.825
67.9851 1.355
68.0154 1.771
68.0457 0.937
68.0759 1.301
68.1062 1.509
68.1365 1.613
68.1668 0.415
68.1970 0.572
68.2273 0.521
68.2576 0.730
68.2879 0.471
68.3182 0.420
68.3484 0.526
68.3787 0.163
68.4090 0.477
68.4393 0.219
68.4696 0.117
68.4998 -0.036
68.5301 0.800
68.5604 0.439
68.5907 0.546
68.6209 0.237
68.6512 0.449
68.6815 0.453
68.7118 0.093
68.7421 0.410
68.7723 0.675
68.8026 0.732
68.8329 0.789
68.8632 0.534
68.8935 0.123
68.9237 0.858
68.9540 0.968
68.9843 1.235
69.0146 0.721
69.0448 0.831
69.0751 0.265
69.1054 0.846
69.1357 1.217
69.1660 0.340
69.1962 0.712
69.2265 0.303
69.2568 0.208
69.2871 0.320
69.3174 0.537
69.3476 0.130
69.3779 -0.017
69.4082 0.096
69.4385 0.054
69.4687 0.272
69.4990 -0.239
69.5293 0.136
69.5596 -0.062
69.5899 -0.103
69.6201 -0.092
69.6504 -0.237
69.6807 -0.181
69.7110 -0.176
69.7413 0.350
69.7715 0.095
69.8018 -0.004
69.8321 -0.050
69.8624 -0.097
69.8926 -0.039
69.9229 -0.084
69.9532 -0.182
69.9835 -0.227
70.0138 -0.016
70.0440 -0.064
70.0743 0.200
70.1046 -0.057
70.1349 0.364
70.1652 0.160
70.1954 0.008
70.2257 -0.196
70.2560 -0.503
70.2863 0.179
70.3166 -0.232
70.3468 0.294
70.3771 -0.064
70.4074 -0.006
70.4377 -0.312
70.4679 0.007
70.4982 0.222
70.5285 -0.396
70.5588 0.080
70.5891 0.139
70.6193 0.095
70.6496 -0.106
70.6799 -0.045
70.7102 0.015
70.7405 -0.081
70.7707 -0.228
70.8010 0.031
70.8313 -0.073
70.8616 0.135
70.8918 -0.074
70.9221 -0.074
70.9524 0.082
70.9827 0.135
71.0130 0.136
71.0432 -0.228
71.0735 -0.174
71.1038 0.244
71.1341 0.142
71.1644 0.301
71.1946 -0.114
71.2249 0.098
71.2552 -0.004
71.2855 -0.053
71.3157 0.315
71.3460 -0.410
71.3763 -0.146
71.4066 -0.194
71.4369 0.067
71.4671 0.015
71.4974 -0.192
71.5277 0.121
71.5580 0.226
71.5883 0.072
71.6185 0.021
71.6488 0.127
71.6791 -0.027
71.7094 0.027
71.7396 0.030
71.7699 -0.228
71.8002 0.140
71.8305 0.143
71.8608 -0.166
71.8910 0.150
71.9213 0.154
71.9516 0.210
71.9819 0.006
72.0122 -0.198
72.0424 -0.044
72.0727 0.058
72.1030 0.056
72.1333 0.367
72.1635 0.261
72.1938 0.260
72.2241 0.155
72.2544 -0.002
72.2847 0.310
72.3149 -0.107
72.3452 0.049
72.3755 0.049
72.4058 0.414
72.4361 0.310
72.4663 0.467
72.4966 0.260
72.5269 0.157
72.5572 0.263
72.5874 0.004
72.6177 0.058
72.6480 0.425
72.6783 0.375
72.7086 0.065
72.7388 0.120
72.7691 0.071
72.7994 0.022
72.8297 -0.182
72.8600 0.134
72.8902 0.086
72.9205 -0.223
72.9508 -0.118
72.9811 0.456
73.0113 -0.012
73.0416 -0.219
73.0719 -0.009
73.1022 0.097
73.1325 -0.110
73.1627 0.049
73.1930 0.051
73.2233 0.106
73.2536 0.213
73.2839 0.112
73.3141 -0.249
73.3444 0.119
73.3747 -0.086
73.4050 -0.238
73.4353 0.235
73.4655 0.239
73.4958 -0.069
73.5261 0.509
73.5564 -0.007
73.5866 0.259
73.6169 0.056
73.6472 0.166
73.6775 -0.192
73.7078 -0.196
73.7380 0.322
73.7683 0.110
73.7986 -0.049
73.8289 0.053
73.8592 0.259
73.8894 -0.108
73.9197 0.099
73.9500 -0.059
73.9803 -0.009
74.0105 0.042
74.0408 -0.011
74.0711 -0.168
74.1014 0.196
74.1317 0.300
74.1619 0.092
74.1922 -0.012
74.2225 -0.116
74.2528 -0.168
74.2831 -0.070
74.3133 0.029
74.3436 0.075
74.3739 0.226
74.4042 0.221
74.4344 0.111
74.4647 0.003
74.4950 -0.210
74.5253 -0.006
74.5556 0.094
74.5858 -0.118
74.6161 -0.122
74.6464 0.135
74.6767 0.132
74.7070 -0.184
74.7372 -0.030
74.7675 -0.085
74.7978 0.121
74.8281 -0.089
74.8583 0.013
74.8886 -0.040
74.9189 -0.198
74.9492 0.009
74.9795 -0.147
75.0097 0.165
75.0400 0.217
75.0703 0.113
75.1006 0.217
75.1309 0.270
75.1611 0.114
75.1914 -0.301
75.2217 0.012
75.2520 -0.038
75.2822 0.120
75.3125 0.017
75.3428 -0.189
75.3731 -0.030
75.4034 -0.132
75.4336 -0.181
75.4639 -0.025
75.4942 -0.076
75.5245 0.029
75.5548 -0.074
75.5850 0.240
75.6153 -0.280
75.6456 0.139
75.6759 0.089
75.7061 -0.066
75.7364 0.041
75.7667 0.044
75.7970 0.046
75.8273 0.206
75.8575 -0.208
75.8878 0.213
75.9181 -0.096
75.9484 -0.248
75.9787 0.120
76.0089 -0.031
76.0392 0.077
76.0695 -0.022
76.0998 0.035
76.1301 -0.272
76.1603 -0.070
76.1906 0.185
76.2209 0.231
76.2512 -0.035
76.2814 0.012
76.3117 0.058
76.3420 0.470
76.3723 0.309
76.4026 0.149
76.4328 0.144
76.4631 0.088
76.4934 0.189
76.5237 0.237
76.5540 0.390
76.5842 0.231
76.6145 0.332
76.6448 0.173
76.6751 0.223
76.7053 0.168
76.7356 -0.094
76.7659 0.425
76.7962 0.580
76.8265 0.474
76.8567 0.161
76.8870 0.629
76.9173 0.472
76.9476 0.211
76.9779 0.263
77.0081 0.055
77.0384 0.419
77.0687 0.159
77.0990 0.004
77.1292 0.057
77.1595 0.006
77.1898 0.007
77.2201 0.009
77.2504 0.375
77.2806 0.377
77.3109 -0.037
77.3412 -0.034
77.3715 0.281
77.4018 -0.081
77.4320 0.026
77.4623 -0.178
77.4926 0.086
77.5229 0.141
77.5531 -0.063
77.5834 0.150
77.6137 -0.158
77.6440 -0.101
77.6743 0.216
77.7045 -0.247
77.7348 -0.248
77.7651 0.272
77.7954 0.376
77.8257 0.116
77.8559 0.220
77.8862 -0.040
77.9165 -0.195
77.9468 0.010
77.9770 0.163
78.0073 -0.256
78.0376 0.106
78.0679 0.156
78.0982 0.207
78.1284 0.361
78.1587 0.047
78.1890 0.046
78.2193 -0.007
78.2496 -0.008
78.2798 -0.009
78.3101 -0.217
78.3404 0.199
78.3707 0.095
78.4009 0.148
78.4312 -0.268
78.4615 0.045
78.4918 0.046
78.5221 0.203
78.5523 0.361
78.5826 -0.158
78.6129 -0.104
78.6432 -0.050
78.6735 0.265
78.7037 0.059
78.7340 0.010
78.7643 -0.195
78.7946 -0.046
78.8248 0.052
78.8551 -0.059
78.8854 0.092
78.9157 0.138
78.9460 -0.336
78.9762 0.127
79.0065 0.434
79.0368 -0.248
79.0671 0.060
79.0974 -0.309
79.1276 0.051
79.1579 0.152
79.1882 -0.061
79.2185 -0.012
79.2488 0.141
79.2790 -0.123
79.3093 -0.022
79.3396 -0.024
79.3699 0.078
79.4001 -0.029
79.4304 -0.083
79.4607 -0.033
79.4910 0.122
79.5213 0.017
79.5515 0.015
79.5818 0.223
79.6121 0.118
79.6424 -0.039
79.6727 0.013
79.7029 -0.195
79.7332 0.222
79.7635 -0.299
79.7938 -0.194
79.8240 0.120
79.8543 0.381
79.8846 0.122
79.9149 0.072
79.9452 -0.187
79.9754 -0.185
80.0057 0.130
80.0360 -0.285
80.0663 0.031
80.0966 -0.071
80.1268 -0.120
80.1571 -0.116
80.1874 0.200
80.2177 0.152
80.2479 0.051
80.2782 -0.049
80.3085 -0.096
80.3388 0.169
80.3691 -0.243
80.3993 -0.029
80.4296 0.080
80.4599 0.138
80.4902 -0.117
80.5205 0.046
80.5507 -0.052
80.5810 0.006
80.6113 -0.195
80.6416 -0.043
80.6718 -0.152
80.7021 0.001
80.7324 -0.003
80.7627 0.202
80.7930 -0.062
80.8232 0.091
80.8535 0.088
80.8838 0.190
80.9141 0.136
80.9444 0.185
80.9746 -0.077
81.0049 -0.026
81.0352 0.024
81.0655 0.127
81.0957 -0.134
81.1260 0.021
81.1563 0.073
81.1866 -0.136
81.2169 0.176
81.2471 0.333
81.2774 0.020
81.3077 -0.135
81.3380 0.074
81.3683 0.439
81.3985 0.284
81.4288 0.078
81.4591 -0.181
81.4894 -0.127
81.5196 0.292
81.5499 -0.019
81.5802 0.401
81.6105 -0.013
81.6408 0.355
81.6710 0.358
81.7013 0.466
81.7316 -0.052
81.7619 0.109
81.7922 0.113
81.8224 -0.247
81.8527 -0.143
81.8830 0.221
81.9133 -0.039
81.9436 0.222
81.9738 0.119
82.0041 0.328
82.0344 0.225
82.0647 0.018
82.0949 0.072
82.1252 0.386
82.1555 0.023
82.1858 -0.078
82.2161 -0.076
82.2463 -0.125
82.2766 0.242
82.3069 0.089
82.3372 -0.220
82.3675 -0.122
82.3977 0.081
82.4280 0.127
82.4583 -0.034
82.4886 0.429
82.5188 -0.096
82.5491 0.420
82.5794 0.103
82.6097 -0.110
82.6400 -0.114
82.6702 -0.170
82.7005 0.192
82.7308 0.136
82.7611 0.029
82.7914 0.234
82.8216 0.284
82.8519 0.073
82.8822 0.331
82.9125 0.173
82.9427 0.171
82.9730 0.013
83.0033 -0.040
83.0336 -0.145
83.0639 -0.198
83.0941 0.114
83.1244 -0.094
83.1547 0.166
83.1850 -0.094
83.2153 0.115
83.2455 0.116
83.2758 -0.039
83.3061 0.014
83.3364 -0.141
83.3666 -0.347
83.3969 0.176
83.4272 -0.135
83.4575 0.180
83.4878 0.131
83.5180 0.081
83.5483 0.032
83.5786 -0.173
83.6089 0.195
83.6392 0.095
83.6694 0.047
83.6997 0.051
83.7300 0.212
83.7603 0.008
83.7905 0.169
83.8208 0.747
83.8511 0.180
83.8814 -0.023
83.9117 0.035
83.9419 -0.168
83.9722 -0.119
84.0025 -0.121
84.0328 -0.020
84.0631 0.134
84.0933 -0.024
84.1236 -0.078
84.1539 0.129
84.1842 -0.029
84.2144 0.231
84.2447 -0.239
84.2750 0.333
84.3053 -0.084
84.3356 -0.032
84.3658 0.072
84.3961 0.125
84.4264 -0.083
84.4567 0.178
84.4870 0.179
84.5172 0.388
84.5475 -0.027
84.5778 -0.078
84.6081 -0.232
84.6383 0.239
84.6686 0.293
84.6989 0.191
84.7292 -0.014
84.7595 -0.220
84.7897 -0.011
84.8200 0.198
84.8503 -0.010
84.8806 0.096
84.9109 0.149
84.9411 0.151
84.9714 -0.004
85.0017 0.259
85.0320 -0.052
85.0623 0.107
85.0925 -0.151
85.1228 0.061
85.1531 0.324
85.1834 -0.089
85.2136 0.123
85.2439 0.074
85.2742 0.235
85.3045 -0.074
85.3348 0.243
85.3650 0.092
85.3953 -0.007
85.4256 0.102
85.4559 -0.153
85.4862 -0.158
85.5164 0.305
85.5467 0.300
85.5770 0.348
85.6073 0.239
85.6375 0.027
85.6678 -0.081
85.6981 0.071
85.7284 0.068
85.7587 -0.196
85.7889 0.113
85.8192 -0.046
85.8495 0.264
85.8798 0.314
85.9101 0.104
85.9403 -0.159
85.9706 0.100
86.0009 -0.058
86.0312 -0.059
86.0614 0.148
86.0917 -0.061
86.1220 0.251
86.1523 0.146
86.1826 0.094
86.2128 0.303
86.2431 0.095
86.2734 -0.061
86.3037 0.096
86.3340 0.045
86.3642 0.046
86.3945 0.048
86.4248 -0.211
86.4551 0.155
86.4853 -0.051
86.5156 0.003
86.5459 -0.150
86.5762 0.269
86.6065 0.012
86.6367 -0.193
86.6670 0.279
86.6973 0.283
86.7276 -0.182
86.7579 0.030
86.7881 0.139
86.8184 0.143
86.8487 0.200
86.8790 0.049
86.9092 -0.102
86.9395 0.216
86.9698 0.170
87.0001 0.019
87.0304 0.338
87.0606 0.188
87.0909 0.351
87.1212 0.149
87.1515 0.365
87.1818 0.112
87.2120 0.067
87.2423 -0.290
87.2726 -0.091
87.3029 0.213
87.3331 -0.213
87.3634 -0.013
87.3937 0.135
87.4240 -0.029
87.4543 0.223
87.4845 -0.253
87.5148 0.156
87.5451 -0.059
87.5754 0.090
87.6057 -0.073
87.6359 0.077
87.6662 0.018
87.6965 0.116
87.7268 0.058
87.7571 0.105
87.7873 0.151
87.8176 0.303
87.8479 0.350
87.8782 0.085
87.9084 0.080
87.9387 0.232
87.9690 -0.085
87.9993 -0.245
88.0296 0.273
88.0598 -0.043
88.0901 -0.099
88.1204 0.055
88.1507 0.000
88.1810 0.206
88.2112 0.151
88.2415 0.202
88.2718 0.148
88.3021 0.042
88.3323 -0.064
88.3626 0.091
88.3929 -0.014
88.4232 0.350
88.4535 -0.067
88.4837 -0.015
88.5140 0.037
88.5443 -0.067
88.5746 -0.223
88.6049 0.030
88.6351 0.178
88.6654 -0.246
88.6957 0.268
88.7260 0.053
88.7562 -0.006
88.7865 0.352
88.8168 0.086
88.8471 -0.129
88.8774 0.386
88.9076 0.068
88.9379 0.115
88.9682 -0.151
88.9985 0.053
89.0288 0.256
89.0590 -0.217
89.0893 -0.117
89.1196 0.192
89.1499 -0.073
89.1801 0.393
89.2104 -0.132
89.2407 0.022
89.2710 -0.190
89.3013 0.381
89.3315 0.899
89.3618 0.584
89.3921 0.270
89.4224 0.945
89.4527 0.371
89.4829 0.057
89.5132 0.420
89.5435 0.680
89.5738 0.679
89.6040 0.835
89.6343 0.522
89.6646 0.366
89.6949 0.470
89.7252 0.471
89.7554 0.732
89.7857 0.056
89.8160 0.422
89.8463 0.058
89.8766 0.373
89.9068 0.010
89.9371 -0.092
89.9674 0.014
89.9977 -0.088
90.0279 0.176
90.0582 0.022
90.0885 -0.287
90.1188 0.341
90.1491 0.293
90.1793 0.036
90.2096 -0.272
90.2399 0.097
90.2702 0.414
90.3005 -0.050
90.3307 -0.045
90.3610 0.064
90.3913 -0.191
90.4216 0.023
90.4518 -0.075
90.4821 -0.278
90.5124 0.037
90.5427 0.091
90.5730 0.146
90.6032 0.097
90.6335 0.047
90.6638 -0.158
90.6941 0.262
90.7244 0.058
90.7546 0.062
90.7849 -0.195
90.8152 0.018
90.8455 -0.134
90.8758 -0.181
90.9060 0.024
90.9363 -0.292
90.9666 0.226
90.9969 0.171
91.0271 0.065
91.0574 0.114
91.0877 -0.096
91.1180 -0.202
91.1483 0.161
91.1785 0.056
91.2088 -0.050
91.2391 0.262
91.2694 0.001
91.2997 -0.156
91.3299 0.000
91.3602 0.313
91.3905 -0.208
91.4208 0.105
91.4510 -0.103
91.4813 -0.154
91.5116 0.524
91.5419 -0.099
91.5722 0.215
91.6024 -0.200
91.6327 -0.146
91.6630 -0.144
91.6933 0.067
91.7236 0.070
91.7538 0.125
91.7841 0.024
91.8144 -0.181
91.8447 -0.181
91.8749 -0.130
91.9052 0.025
91.9355 0.181
91.9658 0.232
91.9961 -0.080
92.0263 0.076
92.0566 0.076
92.0869 0.129
92.1172 0.390
92.1475 -0.078
92.1777 -0.181
92.2080 -0.031
92.2383 0.172
92.2686 0.167
92.2988 0.213
92.3291 -0.156
92.3594 0.412
92.3897 -0.113
92.4200 -0.065
92.4502 -0.069
92.4805 0.448
92.5108 0.027
92.5411 0.128
92.5714 -0.031
92.6016 0.122
92.6319 0.015
92.6622 -0.195
92.6925 0.011
92.7227 0.269
92.7530 0.111
92.7833 0.161
92.8136 0.004
92.8439 -0.101
92.8741 -0.050
92.9044 0.105
92.9347 -0.103
92.9650 0.105
92.9953 -0.052
93.0255 0.105
93.0558 -0.051
93.0861 -0.154
93.1164 0.367
93.1466 0.004
93.1769 0.214
93.2072 -0.045
93.2375 0.321
93.2678 0.167
93.2980 -0.404
93.3283 0.380
93.3586 0.174
93.3889 0.125
93.4192 0.024
93.4494 -0.233
93.4797 0.135
93.5100 -0.225
93.5403 -0.179
93.5706 -0.133
93.6008 -0.087
93.6311 0.116
93.6614 -0.097
93.6917 0.054
93.7219 -0.263
93.7522 0.045
93.7825 0.197
93.8128 -0.015
93.8431 0.085
93.8733 -0.075
93.9036 -0.078
93.9339 -0.133
93.9642 -0.084
93.9945 -0.191
94.0247 -0.089
94.0550 0.065
94.0853 0.115
94.1156 0.061
94.1458 -0.149
94.1761 0.058
94.2064 -0.047
94.2367 0.108
94.2670 -0.101
94.2972 0.003
94.3275 -0.206
94.3578 -0.049
94.3881 -0.206
94.4184 -0.049
94.4486 -0.154
94.4789 -0.206
94.5092 0.104
94.5395 -0.316
94.5697 -0.058
94.6000 -0.269
94.6303 0.093
94.6606 0.403
94.6909 -0.171
94.7211 0.035
94.7514 0.086
94.7817 -0.072
94.8120 0.344
94.8423 0.552
94.8725 0.134
94.9028 0.186
94.9331 0.238
94.9634 0.290
94.9936 0.655
95.0239 0.343
95.0542 0.552
95.0845 0.553
95.1148 0.555
95.1450 0.192
95.1753 0.402
95.2056 0.560
95.2359 0.041
95.2662 0.512
95.2964 0.046
95.3267 0.153
95.3570 0.260
95.3873 0.107
95.4175 0.423
95.4478 0.323
95.4781 0.066
95.5084 0.279
95.5387 0.283
95.5689 0.496
95.5992 0.240
95.6295 0.089
95.6598 0.303
95.6901 -0.004
95.7203 -0.050
95.7506 -0.305
95.7809 0.004
95.8112 0.468
95.8414 -0.316
95.8717 0.305
95.9020 -0.271
95.9323 0.091
95.9626 0.088
95.9928 -0.123
96.0231 0.083
96.0534 0.133
96.0837 0.392
96.1140 0.025
96.1442 0.076
96.1745 -0.342
96.2048 0.074
96.2351 0.334
96.2653 -0.188
96.2956 -0.188
96.3259 0.020
96.3562 -0.136
96.3865 0.177
96.4167 -0.135
96.4470 0.127
96.4773 -0.237
96.5076 0.025
96.5379 -0.130
96.5681 0.080
96.5984 -0.074
96.6287 -0.332
96.6590 0.032
96.6893 -0.177
96.7195 0.084
96.7498 0.032
96.7801 0.033
96.8104 -0.019
96.8406 0.086
96.8709 0.087
96.9012 0.089
96.9315 0.090
96.9618 0.405
96.9920 -0.166
97.0223 0.044
97.0526 -0.005
97.0829 -0.159
97.1132 -0.156
97.1434 0.056
97.1737 0.320
97.2040 -0.041
97.2343 -0.194
97.2645 -0.088
97.2948 0.122
97.3251 0.281
97.3554 0.179
97.3857 -0.079
97.4159 0.028
97.4462 0.239
97.4765 -0.226
97.5068 0.194
97.5371 0.354
97.5673 -0.007
97.5976 -0.159
97.6279 0.158
97.6582 0.111
97.6884 -0.093
97.7187 0.173
97.7490 0.282
97.7793 0.184
97.8096 -0.175
97.8398 0.247
97.8701 0.045
97.9004 0.052
97.9307 0.006
97.9610 -0.247
97.9912 -0.046
98.0215 -0.001
98.0518 0.305
98.0821 0.038
98.1123 0.188
98.1426 0.026
98.1729 0.177
98.2032 0.275
98.2335 0.166
98.2637 0.213
98.2940 0.365
98.3243 0.308
98.3546 0.304
98.3849 0.247
98.4151 -0.017
98.4454 0.604
98.4757 0.184
98.5060 0.389
98.5362 0.178
98.5665 0.227
98.5968 0.173
98.6271 0.170
98.6574 0.220
98.6876 0.166
98.7179 -0.044
98.7482 0.111
98.7785 0.058
98.8088 0.578
98.8390 -0.100
98.8693 -0.101
98.8996 0.316
98.9299 0.264
98.9601 0.472
98.9904 0.160
99.0207 -0.100
99.0510 0.161
99.0813 0.110
99.1115 0.059
99.1418 -0.147
99.1721 -0.146
99.2024 0.012
99.2327 -0.194
99.2629 -0.143
99.2932 0.168
99.3235 0.063
99.3538 -0.094
99.3841 -0.146
99.4143 0.166
99.4446 0.062
99.4749 0.166
99.5052 -0.198
99.5354 0.011
99.5657 0.064
99.5960 -0.143
99.6263 -0.194
99.6566 -0.035
99.6868 -0.137
99.7171 0.178
99.7474 0.129
99.7777 0.080
99.8080 -0.177
99.8382 -0.017
99.8685 0.091
99.8988 -0.165
99.9291 -0.005
99.9593 -0.104
99.9896 -0.100
100.0199 -0.043
100.0502 0.119
100.0805 0.020
100.1107 -0.026
100.1410 -0.073
100.1713 -0.223
100.2016 0.033
100.2319 -0.180
100.2621 0.232
100.2924 0.071
100.3227 -0.141
100.3530 0.480
100.3832 0.060
100.4135 -0.100
100.4438 -0.103
100.4741 0.154
100.5044 0.151
100.5346 0.097
100.5649 -0.062
100.5952 0.092
100.6255 0.351
100.6558 0.193
100.6860 0.140
100.7163 -0.174
100.7466 -0.279
100.7769 0.189
100.8071 0.136
100.8374 -0.124
100.8677 0.084
100.8980 -0.020
100.9283 -0.332
100.9585 0.033
100.9888 0.138
101.0191 -0.225
101.0494 -0.179
101.0797 0.181
101.1099 0.281
101.1402 0.120
101.1705 0.116
101.2008 -0.201
101.2310 -0.152
101.2613 -0.052
101.2916 -0.003
101.3219 0.515
101.3522 0.095
101.3824 0.353
101.4127 0.038
101.4430 0.140
101.4733 0.034
101.5036 -0.072
101.5338 0.239
101.5641 -0.231
101.5944 -0.023
101.6247 0.132
101.6549 0.288
101.6852 0.235
101.7155 -0.129
101.7458 0.131
101.7761 -0.077
101.8063 -0.076
101.8366 0.237
101.8669 -0.022
101.8972 -0.021
101.9275 -0.228
101.9577 -0.027
101.9880 -0.086
102.0183 0.011
102.0486 -0.360
102.0788 0.206
102.1091 -0.165
102.1394 0.194
102.1697 -0.437
102.2000 0.079
102.2302 -0.291
102.2605 0.068
102.2908 0.480
102.3211 0.267
102.3514 -0.206
102.3816 -0.002
102.4119 0.046
102.4422 0.042
102.4725 -0.013
102.5028 0.036
102.5330 -0.384
102.5633 -0.022
102.5936 -0.390
102.6239 0.129
102.6541 -0.186
102.6844 0.073
102.7147 -0.033
102.7450 0.694
102.7753 0.224
102.8055 -0.506
102.8358 0.066
102.8661 0.170
102.8964 0.378
102.9267 0.482
102.9569 -0.039
102.9872 -0.195
103.0175 0.014
103.0478 0.171
103.0780 0.224
103.1083 0.173
103.1386 0.018
103.1689 -0.032
103.1992 0.490
103.2294 -0.028
103.2597 0.078
103.2900 0.081
103.3203 0.292
103.3506 0.034
103.3808 0.090
103.4111 0.301
103.4414 0.097
103.4717 -0.004
103.5019 0.209
103.5322 0.005
103.5625 0.322
103.5928 -0.038
103.6231 0.488
103.6533 -0.080
103.6836 -0.283
103.7139 0.026
103.7442 0.230
103.7745 0.435
103.8047 0.015
103.8350 -0.040
103.8653 0.946
103.8956 0.579
103.9258 0.056
103.9561 0.314
103.9864 0.520
104.0167 0.518
104.0470 0.204
104.0772 0.463
104.1075 0.150
104.1378 0.357
104.1681 0.356
104.1984 0.356
104.2286 0.147
104.2589 0.252
104.2892 -0.061
104.3195 0.565
104.3497 0.201
104.3800 0.254
104.4103 0.151
104.4406 0.412
104.4709 -0.159
104.5011 0.624
104.5314 0.001
104.5617 -0.466
104.5920 0.110
104.6223 0.321
104.6525 0.167
104.6828 0.171
104.7131 0.226
104.7434 0.125
104.7736 0.233
104.8039 0.081
104.8342 0.398
104.8645 0.142
104.8948 0.303
104.9250 0.099
104.9553 0.261
104.9856 0.266
105.0159 0.584
105.0462 -0.243
105.0764 -0.081
105.1067 0.082
105.1370 0.244
105.1673 0.511
105.1975 -0.211
105.2278 -0.152
105.2581 -0.196
105.2884 0.228
105.3187 -0.077
105.3489 0.192
105.3792 -0.060
105.4095 0.261
105.4398 0.217
105.4701 -0.295
105.5003 -0.181
105.5306 0.074
105.5609 0.017
105.5912 0.273
105.6215 -0.043
105.6517 0.109
105.6820 0.261
105.7123 -0.055
105.7426 -0.006
105.7728 0.095
105.8031 0.144
105.8334 0.089
105.8637 -0.278
105.8940 -0.123
105.9242 0.292
105.9545 -0.022
105.9848 -0.127
106.0151 0.185
106.0454 0.340
106.0756 -0.285
106.1059 0.236
106.1362 0.288
106.1665 0.444
106.1967 0.393
106.2270 -0.180
106.2573 0.082
106.2876 0.291
106.3179 0.188
106.3481 -0.122
106.3784 -0.016
106.4087 0.038
106.4390 -0.220
106.4693 0.043
106.4995 -0.111
106.5298 0.257
106.5601 0.156
106.5904 0.315
106.6206 -0.150
106.6509 -0.198
106.6812 0.110
106.7115 0.262
106.7418 -0.263
106.7720 0.305
106.8023 -0.219
106.8326 0.246
106.8629 -0.018
106.8932 -0.281
106.9234 0.341
106.9537 -0.026
106.9840 -0.289
107.0143 0.490
107.0445 -0.137
107.0748 0.382
107.1051 0.068
107.1354 -0.194
107.1657 -0.195
107.1959 0.274
107.2262 0.273
107.2565 0.117
107.2868 0.065
107.3171 0.170
107.3473 0.066
107.3776 0.275
107.4079 0.276
107.4382 0.277
107.4684 -0.086
107.4987 0.541
107.5290 -0.030
107.5593 0.284
107.5896 -0.026
107.6198 0.237
107.6501 0.136
107.6804 0.191
107.7107 -0.118
107.7410 -0.115
107.7712 0.254
107.8015 -0.003
107.8318 0.418
107.8621 -0.151
107.8923 -0.250
107.9226 0.106
107.9529 -0.111
107.9832 0.246
108.0135 0.290
108.0437 0.178
108.0740 0.014
108.1043 -0.201
108.1346 0.208
108.1649 0.202
108.1951 0.039
108.2254 -0.332
108.2557 -0.077
108.2860 -0.187
108.3163 0.017
108.3465 -0.197
108.3768 -0.149
108.4071 0.159
108.4374 -0.002
108.4676 -0.162
108.4979 0.147
108.5282 -0.013
108.5585 -0.068
108.5888 0.241
108.6190 -0.178
108.6493 -0.129
108.6796 0.077
108.7099 -0.029
108.7402 0.073
108.7704 -0.085
108.8007 -0.034
108.8310 -0.087
108.8613 -0.193
108.8915 -0.141
108.9218 0.223
108.9521 -0.038
108.9824 -0.351
109.0127 0.274
109.0429 -0.194
109.0732 -0.246
109.1035 0.172
109.1338 0.173
109.1641 -0.347
109.1943 0.124
109.2246 -0.135
109.2549 -0.185
109.2852 0.129
109.3154 0.132
109.3457 -0.283
109.3760 -0.183
109.4063 0.021
109.4366 0.070
109.4668 -0.038
109.4971 0.062
109.5274 0.163
109.5577 -0.152
109.5880 0.157
109.6182 -0.314
109.6485 0.100
109.6788 0.150
109.7091 -0.320
109.7393 -0.062
109.7696 -0.167
109.7999 -0.064
109.8302 -0.065
109.8605 0.090
109.8907 -0.171
109.9210 -0.067
109.9513 0.037
109.9816 -0.067
110.0119 0.194
110.0421 0.246
110.0724 -0.065
110.1027 0.092
110.1330 0.145
110.1632 0.042
110.1935 -0.060
110.2238 0.411
110.2541 0.257
110.2844 -0.054
110.3146 -0.051
110.3449 -0.048
110.3752 0.371
110.4055 0.375
110.4358 0.326
110.4660 0.226
110.4963 0.021
110.5266 0.390
110.5569 -0.074
110.5871 0.086
110.6174 0.091
110.6477 0.044
110.6780 -0.107
110.7083 -0.206
110.7385 -0.101
110.7688 -0.049
110.7991 -0.048
110.8294 -0.152
110.8597 0.162
110.8899 -0.150
110.9202 0.321
110.9505 0.322
110.9808 0.376
111.0110 -0.038
111.0413 0.016
111.0716 -0.138
111.1019 0.386
111.1322 0.233
111.1624 -0.077
111.1927 0.135
111.2230 0.139
111.2533 0.247
111.2836 -0.374
111.3138 -0.109
111.3441 -0.365
111.3744 0.161
111.4047 -0.199
111.4350 -0.194
111.4652 -0.041
111.4955 0.060
111.5258 0.005
111.5561 -0.206
111.5863 0.208
111.6166 -0.055
111.6469 -0.005
111.6772 0.253
111.7075 0.043
111.7377 0.094
111.7680 0.145
111.7983 -0.325
111.8286 0.143
111.8589 -0.326
111.8891 0.090
111.9194 -0.171
111.9497 -0.014
111.9800 -0.014
112.0102 0.299
112.0405 0.092
112.0708 0.041
112.1011 -0.167
112.1314 -0.009
112.1616 -0.111
112.1919 -0.057
112.2222 0.361
112.2525 0.207
112.2828 -0.259
112.3130 0.005
112.3433 -0.045
112.3736 -0.145
112.4039 0.118
112.4341 -0.138
112.4644 0.074
112.4947 -0.234
112.5250 0.082
112.5553 -0.278
112.5855 -0.126
112.6158 -0.130
112.6461 -0.083
112.6764 -0.035
112.7067 0.483
112.7369 -0.094
112.7672 0.319
112.7975 -0.153
112.8278 0.365
112.8580 0.363
112.8883 0.100
112.9186 0.254
112.9489 -0.061
112.9792 0.042
113.0094 -0.272
113.0397 0.299
113.0700 0.246
113.1003 -0.067
113.1306 0.036
113.1608 -0.016
113.1911 0.036
113.2214 -0.225
113.2517 0.088
113.2819 -0.276
113.3122 -0.067
113.3425 -0.066
113.3728 0.300
113.4031 -0.116
113.4333 0.303
113.4636 -0.060
113.4939 -0.110
113.5242 -0.004
113.5545 0.155
113.5847 -0.051
113.6150 0.056
113.6453 0.164
113.6756 0.011
113.7058 -0.194
113.7361 -0.145
113.7664 -0.201
113.7967 0.108
113.8270 0.104
113.8572 0.308
113.8875 0.044
113.9178 -0.115
113.9481 0.194
113.9784 -0.017
114.0086 -0.280
114.0389 -0.023
114.0692 0.025
114.0995 0.074
114.1298 0.331
114.1600 -0.192
114.1903 0.066
114.2206 -0.197
114.2509 0.217
114.2811 0.059
114.3114 0.057
114.3417 0.108
114.3720 -0.102
114.4023 -0.311
114.4325 0.209
114.4628 0.417
114.4931 0.000
114.5234 0.260
114.5537 0.208
114.5839 0.365
114.6142 0.053
114.6445 0.158
114.6748 0.055
114.7050 -0.153
114.7353 -0.255
114.7656 0.099
114.7959 -0.172
114.8262 0.391
114.8564 -0.244
114.8867 0.163
114.9170 -0.263
114.9473 0.353
114.9776 -0.177
115.0078 0.179
115.0381 0.118
115.0684 -0.098
115.0987 -0.106
115.1289 -0.166
115.1592 0.295
115.1895 -0.233
115.2198 -0.136
115.2501 -0.091
115.2803 -0.254
115.3106 0.208
115.3409 -0.006
115.3712 0.092
115.4015 0.138
115.4317 -0.076
115.4620 -0.289
115.4923 0.017
115.5226 0.272
115.5528 -0.046
115.5831 -0.208
115.6134 -0.213
115.6437 -0.165
115.6740 -0.170
115.7042 -0.018
115.7345 -0.074
115.7648 0.234
115.7951 0.230
115.8254 -0.502
115.8556 0.224
115.8859 -0.092
115.9162 0.218
115.9465 0.059
115.9767 -0.047
116.0070 0.367
116.0373 0.105
116.0676 -0.157
116.0979 0.831
116.1281 0.205
116.1584 0.360
116.1887 0.047
116.2190 0.306
116.2493 0.202
116.2795 -0.059
116.3098 0.150
116.3401 -0.006
116.3704 0.255
116.4006 0.204
116.4309 0.361
116.4612 -0.159
116.4915 -0.053
116.5218 0.209
116.5520 -0.310
116.5823 0.265
116.6126 -0.097
116.6429 -0.095
116.6732 0.325
116.7034 0.224
116.7337 0.071
116.7640 -0.342
116.7943 -0.078
116.8245 0.290
116.8548 -0.070
116.8851 0.299
116.9154 -0.009
116.9457 0.152
116.9759 -0.208
117.0062 0.058
117.0365 -0.405
117.0668 -0.087
117.0971 -0.237
117.1273 -0.129
117.1576 -0.124
117.1879 -0.015
117.2182 -0.114
117.2485 -0.108
117.2787 -0.207
117.3090 -0.045
117.3393 0.014
117.3696 0.280
117.3998 0.235
117.4301 -0.227
117.4604 -0.480
117.4907 0.204
117.5210 0.420
117.5512 0.167
117.5815 -0.085
117.6118 -0.285
117.6421 0.029
117.6724 -0.125
117.7026 0.085
117.7329 0.035
117.7632 0.142
117.7935 -0.168
117.8237 -0.217
117.8540 0.095
117.8843 -0.269
117.9146 0.147
117.9449 0.252
117.9751 -0.164
118.0054 -0.111
118.0357 0.046
118.0660 -0.214
118.0963 0.152
118.1265 0.362
118.1568 -0.104
118.1871 0.002
118.2174 0.264
118.2476 -0.358
118.2779 -0.199
118.3082 -0.040
118.3385 0.120
118.3688 0.331
118.3990 -0.134
118.4293 0.078
118.4596 -0.022
118.4899 -0.017
118.5202 0.404
118.5504 -0.268
118.5807 0.049
118.6110 0.106
118.6413 0.216
118.6715 -0.143
118.7018 0.019
118.7321 -0.183
118.7624 -0.020
118.7927 0.194
118.8229 0.097
118.8532 -0.104
118.8835 -0.045
118.9138 -0.194
118.9441 -0.203
118.9743 0.465
119.0046 0.040
119.0349 -0.073
119.0652 0.127
119.0954 0.014
119.1257 -0.150
119.1560 -0.053
119.1863 0.043
119.2166 -0.016
119.2468 -0.075
119.2771 -0.082
119.3074 -0.140
119.3377 -0.147
119.3680 0.420
119.3982 -0.263
119.4285 -0.217
119.4588 -0.014
119.4891 -0.072
119.5193 -0.129
119.5496 0.230
119.5799 -0.139
119.6102 -0.091
119.6405 -0.148
119.6707 -0.517
119.7010 0.156
119.7313 -0.160
119.7616 -0.111
119.7919 -0.375
119.8221 0.403
119.8524 -0.120
119.8827 -0.227
119.9130 -0.133
119.9433 -0.247
119.9735 -0.098
120.0038 0.000
