'Id: "" Comment: "" Operator: "Lab Manager" Anode: "Cu" Scantype: "Locked Coupled" TimePerStep: "19.2" X: "9999" Y: "9999" Z: "9999" 
10.0015 0.000
10.0318 0.472
10.0620 -0.514
10.0923 0.323
10.1226 0.171
10.1529 -0.658
10.1832 0.544
10.2134 -0.545
10.2437 -0.332
10.2740 -0.066
10.3043 -0.530
10.3346 -0.370
10.3648 0.103
10.3951 0.211
10.4254 -0.410
10.4557 0.948
10.4859 0.380
10.5162 0.385
10.5465 0.703
10.5768 0.239
10.6071 0.089
10.6373 0.303
10.6676 0.569
10.6979 0.576
10.7282 -0.251
10.7585 1.058
10.7887 0.752
10.8190 0.135
10.8493 2.590
10.8796 2.390
10.9098 3.127
10.9401 4.489
10.9704 6.477
11.0007 7.892
11.0310 8.890
11.0612 10.358
11.0915 9.534
11.1218 9.596
11.1521 9.554
11.1824 7.168
11.2126 4.470
11.2429 5.731
11.2732 3.554
11.3035 2.524
11.3337 2.587
11.3640 1.870
11.3943 1.413
11.4246 0.383
11.4549 0.187
11.4851 1.294
11.5154 0.734
11.5457 -0.139
11.5760 0.239
11.6063 0.982
11.6365 0.319
11.6668 0.072
11.6971 0.399
11.7274 0.674
11.7577 1.887
11.7879 -0.338
11.8182 0.771
11.8485 0.787
11.8788 -0.031
11.9090 -0.952
11.9393 1.095
11.9696 -0.138
11.9999 -0.382
12.0302 0.468
12.0604 -0.035
12.0907 -0.591
12.1210 0.937
12.1513 -0.659
12.1816 0.192
12.2118 0.262
12.2421 0.542
12.2724 0.092
12.3027 0.996
12.3329 0.807
12.3632 0.879
12.3935 0.326
12.4238 0.919
12.4541 -0.363
12.4843 -0.186
12.5146 0.460
12.5449 0.429
12.5752 0.346
12.6055 0.003
12.6357 -1.121
12.6660 -0.181
12.6963 0.499
12.7266 0.814
12.7568 0.609
12.7871 0.353
12.8174 0.617
12.8477 0.465
12.8780 0.521
12.9082 0.890
12.9385 1.416
12.9688 0.275
12.9991 -0.032
13.0294 0.702
13.0596 -0.021
13.0899 0.037
13.1202 1.710
13.1505 0.414
13.1807 -0.464
13.2110 1.053
13.2413 0.331
13.2716 0.703
13.3019 0.711
13.3321 0.875
13.3624 0.310
13.3927 0.058
13.4230 0.223
13.4533 -0.237
13.4835 -0.436
13.5138 0.146
13.5441 0.625
13.5744 0.166
13.6046 -0.189
13.6349 0.811
13.6652 0.353
13.6955 -0.157
13.7258 0.323
13.7560 0.595
13.7863 -0.383
13.8166 -0.215
13.8469 -0.620
13.8772 0.057
13.9074 -0.464
13.9377 -0.207
13.9680 0.674
13.9983 0.254
14.0285 0.616
14.0588 0.196
14.0891 0.662
14.1194 -0.070
14.1497 0.709
14.1799 -0.491
14.2102 1.122
14.2405 -0.077
14.2708 -0.131
14.3011 0.128
14.3313 -0.081
14.3616 -0.081
14.3919 -0.290
14.4222 -0.446
14.4524 0.335
14.4827 0.648
14.5130 -0.237
14.5433 -0.236
14.5736 0.494
14.6038 0.652
14.6341 -0.440
14.6644 -0.074
14.6947 0.501
14.7250 0.399
14.7552 0.610
14.7855 0.457
14.8158 -0.113
14.8461 0.046
14.8764 -0.055
14.9066 0.105
14.9369 0.005
14.9672 -0.095
14.9975 0.431
15.0277 0.279
15.0580 -0.393
15.0883 -0.180
15.1186 0.138
15.1489 -0.168
15.1791 -0.110
15.2094 0.156
15.2397 -0.671
15.2700 -0.308
15.3003 0.524
15.3305 -0.103
15.3608 0.677
15.3911 -0.418
15.4214 0.103
15.4516 0.571
15.4819 -0.575
15.5122 0.310
15.5425 -0.106
15.5728 0.207
15.6030 -0.313
15.6333 0.260
15.6636 -0.155
15.6939 0.159
15.7242 0.213
15.7544 0.215
15.7847 0.217
15.8150 0.844
15.8453 0.170
15.8755 -0.400
15.9058 -0.189
15.9361 0.023
15.9664 0.131
15.9967 0.135
16.0269 -0.591
16.0572 0.403
16.0875 -0.425
16.1178 0.465
16.1481 -0.155
16.1783 -0.410
16.2086 -0.050
16.2389 -0.106
16.2692 0.463
16.2994 0.198
16.3297 -0.222
16.3600 0.088
16.3903 -0.488
16.4206 0.186
16.4508 -0.181
16.4811 -0.027
16.5114 -0.029
16.5417 -0.135
16.5720 -0.189
16.6022 -0.242
16.6325 -0.556
16.6628 0.121
16.6931 0.433
16.7233 0.432
16.7536 0.172
16.7839 0.797
16.8142 0.381
16.8445 0.329
16.8747 -0.503
16.9050 0.175
16.9353 -0.449
16.9656 -0.135
16.9959 -0.029
17.0261 -0.131
17.0564 -0.128
17.0867 -0.230
17.1170 0.919
17.1472 0.297
17.1775 0.508
17.2078 -0.270
17.2381 0.151
17.2684 -0.106
17.2986 -0.258
17.3289 0.424
17.3592 -0.457
17.3895 0.330
17.4198 -0.707
17.4500 -0.024
17.4803 0.398
17.5106 0.196
17.5409 -0.059
17.5712 -0.156
17.6014 -0.098
17.6317 0.170
17.6620 0.489
17.6923 -0.076
17.7225 -0.589
17.7528 -0.062
17.7831 0.152
17.8134 0.368
17.8437 -0.146
17.8739 0.173
17.9042 0.129
17.9345 0.137
17.9648 0.509
17.9951 -0.577
18.0253 0.630
18.0556 0.118
18.0859 0.022
18.1162 -0.593
18.1464 0.197
18.1767 -0.470
18.2070 -0.200
18.2373 0.696
18.2676 0.133
18.2978 -0.533
18.3281 -0.267
18.3584 0.468
18.3887 -0.254
18.4190 -0.248
18.4492 0.072
18.4795 -0.702
18.5098 0.607
18.5401 0.198
18.5703 0.258
18.6006 0.475
18.6309 -0.090
18.6612 -0.081
18.6915 -0.437
18.7217 0.249
18.7520 0.259
18.7823 0.164
18.8126 0.643
18.8429 0.601
18.8731 -0.275
18.9034 -0.368
18.9337 -0.007
18.9640 0.198
18.9942 -0.170
19.0245 -0.121
19.0548 0.449
19.0851 0.030
19.1154 0.080
19.1456 0.234
19.1759 0.285
19.2062 -0.186
19.2365 0.126
19.2668 -0.188
19.2970 0.280
19.3273 0.071
19.3576 0.279
19.3879 -0.450
19.4181 0.436
19.4484 0.280
19.4787 0.541
19.5090 -0.083
19.5393 0.387
19.5695 0.024
19.5998 0.442
19.6301 0.288
19.6604 0.602
19.6907 0.188
19.7209 0.399
19.7512 0.350
19.7815 -0.220
19.8118 -0.373
19.8420 0.095
19.8723 0.356
19.9026 0.043
19.9329 -0.425
19.9632 0.356
19.9934 0.461
20.0237 0.619
20.0540 -0.266
20.0843 -0.368
20.1146 -0.161
20.1448 -0.319
20.1751 -0.216
20.2054 0.200
20.2357 0.251
20.2659 -0.114
20.2962 0.042
20.3265 0.199
20.3568 -0.113
20.3871 0.668
20.4173 -0.164
20.4476 -0.111
20.4779 -0.058
20.5082 0.152
20.5385 1.039
20.5687 0.521
20.5990 0.523
20.6293 -0.308
20.6596 0.216
20.6899 -0.094
20.7201 -0.351
20.7504 -0.087
20.7807 0.073
20.8110 -0.184
20.8412 0.081
20.8715 -0.331
20.9018 -0.223
20.9321 0.043
20.9624 0.256
20.9926 0.209
21.0229 0.007
21.0532 -0.092
21.0835 0.019
21.1138 0.806
21.1440 -0.281
21.1743 0.039
21.2046 0.514
21.2349 -0.416
21.2651 0.373
21.2954 0.225
21.3257 0.545
21.3560 0.085
21.3863 0.510
21.4165 -0.367
21.4468 0.163
21.4771 0.120
21.5074 0.078
21.5377 0.192
21.5679 0.462
21.5982 -0.465
21.6285 -0.194
21.6588 -0.132
21.6890 0.088
21.7193 0.411
21.7496 0.423
21.7799 0.330
21.8102 -0.231
21.8404 -0.062
21.8707 0.262
21.9010 0.119
21.9313 0.288
21.9616 -0.064
21.9918 -0.467
22.0221 -0.060
22.0524 0.711
22.0827 0.389
22.1129 -0.090
22.1432 0.266
22.1735 0.100
22.2038 0.300
22.2341 0.292
22.2643 -0.081
22.2946 0.796
22.3249 0.319
22.3552 0.260
22.3855 0.305
22.4157 0.141
22.4460 0.186
22.4763 0.128
22.5066 -0.087
22.5368 0.897
22.5671 0.214
22.5974 -0.105
22.6277 1.244
22.6580 0.093
22.6882 -0.224
22.7185 0.657
22.7488 0.548
22.7791 0.075
22.8094 0.175
22.8396 0.172
22.8699 0.272
22.9002 0.425
22.9305 0.422
22.9607 -0.205
22.9910 0.261
23.0213 -0.002
23.0516 0.621
23.0819 -0.318
23.1121 -0.059
23.1424 -0.060
23.1727 0.147
23.2030 -0.375
23.2333 0.406
23.2635 0.406
23.2938 0.249
23.3241 -0.167
23.3544 -0.063
23.3846 -0.062
23.4149 0.251
23.4452 0.252
23.4755 0.097
23.5058 0.464
23.5360 -0.212
23.5663 -0.209
23.5966 -0.155
23.6269 0.368
23.6572 -0.775
23.6874 0.426
23.7177 0.117
23.7480 0.173
23.7783 0.124
23.8086 0.597
23.8388 0.237
23.8691 -0.071
23.8994 0.038
23.9297 0.095
23.9599 -0.265
23.9902 -0.103
24.0205 0.163
24.0508 0.742
24.0811 -0.137
24.1113 0.182
24.1416 0.553
24.1719 -0.169
24.2022 -0.266
24.2325 -0.207
24.2627 0.322
24.2930 0.069
24.3233 0.025
24.3536 0.346
24.3838 -0.062
24.4141 0.364
24.4444 0.008
24.4747 -0.399
24.5050 -0.025
24.5352 0.401
24.5655 0.463
24.5958 -0.151
24.6261 0.849
24.6564 0.235
24.6866 0.402
24.7169 0.049
24.7472 0.425
24.7775 0.228
24.8077 0.500
24.8380 0.252
24.8683 -0.204
24.8986 0.382
24.9289 0.186
24.9591 0.199
24.9894 0.525
25.0197 0.435
25.0500 0.605
25.0803 0.098
25.1105 -0.460
25.1408 -0.212
25.1711 -0.015
25.2014 -0.391
25.2316 0.743
25.2619 0.263
25.2922 -0.008
25.3225 0.555
25.3528 0.596
25.3830 0.586
25.4133 -0.153
25.4436 0.359
25.4739 0.870
25.5042 0.236
25.5344 0.123
25.5647 0.010
25.5950 0.366
25.6253 0.254
25.6555 0.142
25.6858 0.291
25.7161 0.544
25.7464 -0.037
25.7767 -0.043
25.8069 -0.363
25.8372 -0.059
25.8675 0.245
25.8978 -0.180
25.9281 -0.031
25.9583 -0.091
25.9886 0.474
26.0189 -0.054
26.0492 0.147
26.0794 0.245
26.1097 -0.230
26.1400 0.024
26.1703 0.018
26.2006 0.533
26.2308 0.579
26.2611 0.105
26.2914 0.361
26.3217 -0.217
26.3520 0.664
26.3822 0.034
26.4125 -0.439
26.4428 0.026
26.4731 -0.342
26.5034 -0.192
26.5336 0.427
26.5639 -0.309
26.5942 -0.054
26.6245 -0.007
26.6547 0.248
26.6850 0.190
26.7153 0.081
26.7456 -0.184
26.7759 -0.032
26.8061 -0.088
26.8364 -0.040
26.8667 -0.043
26.8970 -0.255
26.9273 0.106
26.9575 -0.365
26.9878 0.101
27.0181 -0.058
27.0484 -0.320
27.0786 -0.010
27.1089 0.145
27.1392 0.195
27.1695 0.194
27.1998 0.141
27.2300 0.245
27.2603 -0.173
27.2906 0.348
27.3209 0.452
27.3512 -0.277
27.3814 -0.120
27.4117 0.089
27.4420 0.663
27.4723 0.091
27.5025 -0.168
27.5328 -0.375
27.5631 0.304
27.5934 0.463
27.6237 -0.056
27.6539 -0.053
27.6842 0.002
27.7145 0.318
27.7448 0.529
27.7751 0.220
27.8053 -0.349
27.8356 -0.349
27.8659 -0.146
27.8962 0.213
27.9264 0.416
27.9567 0.202
27.9870 -0.271
28.0173 -0.224
28.0476 -0.072
28.0778 -0.076
28.1081 0.336
28.1384 -0.136
28.1687 -0.087
28.1990 0.378
28.2292 -0.198
28.2595 0.008
28.2898 0.161
28.3201 -0.049
28.3503 0.053
28.3806 -0.157
28.4109 0.050
28.4412 0.048
28.4715 -0.109
28.5017 0.255
28.5320 -0.266
28.5623 -0.111
28.5926 0.358
28.6229 -0.579
28.6531 -0.058
28.6834 0.568
28.7137 0.204
28.7440 0.205
28.7742 0.050
28.8045 -0.469
28.8348 -0.155
28.8651 -0.205
28.8954 -0.098
28.9256 0.061
28.9559 -0.197
28.9862 0.014
29.0165 0.226
29.0468 -0.396
29.0770 -0.350
29.1073 0.634
29.1376 -0.361
29.1679 -0.263
29.1981 -0.112
29.2284 0.560
29.2587 0.191
29.2890 -0.074
29.3193 0.286
29.3495 0.907
29.3798 0.435
29.4101 0.379
29.4404 0.272
29.4707 0.529
29.5009 -0.099
29.5312 -0.362
29.5615 -0.333
29.5918 0.216
29.6221 0.714
29.6523 0.066
29.6826 0.200
29.7129 0.177
29.7432 0.155
29.7734 0.602
29.8037 0.216
29.8340 0.403
29.8643 0.017
29.8946 0.517
29.9248 -0.233
29.9551 0.007
29.9854 0.456
30.0157 0.123
30.0460 0.260
30.0762 0.344
30.1065 -0.300
30.1368 0.619
30.1671 -0.546
30.1973 -0.148
30.2276 0.511
30.2579 -0.549
30.2882 0.163
30.3185 0.354
30.3487 0.649
30.3790 0.580
30.4093 0.146
30.4396 0.442
30.4699 0.582
30.5001 0.983
30.5304 0.081
30.5607 0.587
30.5910 0.571
30.6212 -0.329
30.6515 1.062
30.6818 0.943
30.7121 0.564
30.7424 0.810
30.7726 1.890
30.8029 0.679
30.8332 1.030
30.8635 0.808
30.8938 1.681
30.9240 1.772
30.9543 1.603
30.9846 1.799
31.0149 2.048
31.0451 2.505
31.0754 3.327
31.1057 3.524
31.1360 4.867
31.1663 3.866
31.1965 4.637
31.2268 5.512
31.2571 6.961
31.2874 7.524
31.3177 7.514
31.3479 7.348
31.3782 8.954
31.4085 12.955
31.4388 14.509
31.4690 12.886
31.4993 17.982
31.5296 20.006
31.5599 20.779
31.5902 20.824
31.6204 23.786
31.6507 20.602
31.6810 19.189
31.7113 17.203
31.7416 17.926
31.7718 14.118
31.8021 12.133
31.8324 12.700
31.8627 8.685
31.8929 7.951
31.9232 6.175
31.9535 7.264
31.9838 5.125
32.0141 4.391
32.0443 3.085
32.0746 3.759
32.1049 3.391
32.1352 3.180
32.1655 3.021
32.1957 1.195
32.2260 2.026
32.2563 0.930
32.2866 1.710
32.3169 1.239
32.3471 1.498
32.3774 1.601
32.4077 0.871
32.4380 -0.223
32.4682 0.662
32.4985 1.026
32.5288 1.287
32.5591 0.714
32.5894 0.663
32.6196 0.924
32.6499 0.716
32.6802 0.197
32.7105 0.511
32.7408 0.408
32.7710 -0.267
32.8013 0.152
32.8316 -0.054
32.8619 -0.624
32.8921 0.004
32.9224 -0.305
32.9527 -0.145
32.9830 -0.194
33.0133 -0.034
33.0435 0.023
33.0738 0.079
33.1041 0.344
33.1344 -0.172
33.1647 -0.323
33.1949 0.047
33.2252 0.157
33.2555 -0.046
33.2858 0.585
33.3160 0.227
33.3463 -0.287
33.3766 0.657
33.4069 -0.065
33.4372 -0.474
33.4674 -0.121
33.4977 -0.236
33.5280 -0.352
33.5583 0.575
33.5886 0.825
33.6188 0.867
33.6491 0.805
33.6794 0.587
33.7097 0.213
33.7399 1.141
33.7702 1.913
33.8005 1.696
33.8308 2.104
33.8611 1.731
33.8913 2.609
33.9216 2.184
33.9519 3.739
33.9822 3.888
34.0125 5.287
34.0427 5.385
34.0730 7.514
34.1033 7.611
34.1336 11.564
34.1638 13.641
34.1941 19.417
34.2244 21.495
34.2547 25.083
34.2850 24.818
34.3152 20.751
34.3455 18.559
34.3758 16.107
34.4061 13.655
34.4364 8.807
34.4666 6.825
34.4969 5.415
34.5272 4.787
34.5575 3.170
34.5877 3.428
34.6180 3.426
34.6483 2.017
34.6786 2.797
34.7089 1.910
34.7391 2.065
34.7694 0.918
34.7997 1.230
34.8300 1.542
34.8603 0.395
34.8905 0.760
34.9208 0.500
34.9511 1.385
34.9814 0.344
35.0116 0.658
35.0419 0.867
35.0722 1.233
35.1025 1.495
35.1328 0.768
35.1630 1.135
35.1933 0.303
35.2236 0.619
35.2539 2.028
35.2842 1.406
35.3144 1.721
35.3447 2.037
35.3750 1.625
35.4053 2.410
35.4356 2.102
35.4658 2.367
35.4961 3.569
35.5264 2.272
35.5567 3.527
35.5869 3.324
35.6172 3.643
35.6475 5.628
35.6778 5.530
35.7081 5.276
35.7383 6.793
35.7686 7.529
35.7989 8.369
35.8292 9.939
35.8595 11.822
35.8897 15.476
35.9200 16.577
35.9503 18.044
35.9806 19.563
36.0108 23.478
36.0411 25.987
36.0714 26.986
36.1017 30.277
36.1320 27.839
36.1622 28.370
36.1925 27.391
36.2228 22.349
36.2531 20.485
36.2834 18.465
36.3136 13.580
36.3439 11.144
36.3742 9.645
36.4045 10.751
36.4347 7.065
36.4650 6.661
36.4953 5.840
36.5256 5.228
36.5559 5.345
36.5861 3.640
36.6164 3.810
36.6467 2.730
36.6770 2.536
36.7073 1.977
36.7375 1.523
36.7678 1.851
36.7981 1.709
36.8284 0.683
36.8586 1.324
36.8889 0.298
36.9192 0.001
36.9495 0.903
36.9798 1.336
37.0100 0.728
37.0403 -0.401
37.0706 0.919
37.1009 0.728
37.1312 0.121
37.1614 0.243
37.1917 0.157
37.2220 0.332
37.2523 0.090
37.2825 0.213
37.3128 -0.028
37.3431 -0.009
37.3734 -0.354
37.4037 0.604
37.4339 0.103
37.4642 0.436
37.4945 -0.064
37.5248 -0.251
37.5551 -0.178
37.5853 -0.365
37.6156 0.073
37.6459 -0.686
37.6762 0.221
37.7064 0.192
37.7367 0.162
37.7670 0.081
37.7973 0.052
37.8276 -0.133
37.8578 -0.162
37.8881 -0.138
37.9184 -0.427
37.9487 0.017
37.9790 -0.008
38.0092 0.072
38.0395 0.360
38.0698 0.075
38.1001 0.207
38.1304 0.131
38.1606 -0.152
38.1909 0.449
38.2212 -0.251
38.2515 0.143
38.2817 -0.036
38.3120 0.046
38.3423 0.285
38.3726 0.107
38.4029 -0.071
38.4331 0.428
38.4634 0.355
38.4937 -0.135
38.5240 0.157
38.5543 0.450
38.5845 0.117
38.6148 0.410
38.6451 -0.027
38.6754 -0.202
38.7056 -0.326
38.7359 0.087
38.7662 0.344
38.7965 0.133
38.8268 0.286
38.8570 0.596
38.8873 -0.032
38.9176 0.331
38.9479 0.797
38.9782 0.327
39.0084 0.377
39.0387 0.376
39.0690 0.375
39.0993 -0.095
39.1295 0.374
39.1598 -0.095
39.1901 0.269
39.2204 0.061
39.2507 0.009
39.2809 0.479
39.3112 0.636
39.3415 0.064
39.3718 0.169
39.4021 0.588
39.4323 0.642
39.4626 0.644
39.4929 0.125
39.5232 -0.341
39.5534 -0.130
39.5837 0.029
39.6140 0.085
39.6443 -0.224
39.6746 0.353
39.7048 -0.008
39.7351 0.100
39.7654 -0.155
39.7957 0.058
39.8260 0.115
39.8562 -0.088
39.8865 0.230
39.9168 -0.286
39.9471 0.033
39.9773 -0.273
40.0076 -0.222
40.0379 0.714
40.0682 -0.120
40.0985 -0.380
40.1287 0.192
40.1590 0.349
40.1893 0.401
40.2196 -0.223
40.2499 0.455
40.2801 0.300
40.3104 -0.063
40.3407 0.199
40.3710 -0.268
40.4012 0.776
40.4315 -0.264
40.4618 -0.209
40.4921 0.262
40.5224 -0.151
40.5526 -0.200
40.5829 0.116
40.6132 0.068
40.6435 0.228
40.6738 -0.237
40.7040 0.341
40.7343 0.241
40.7646 -0.066
40.7949 -0.113
40.8251 0.518
40.8554 0.159
40.8857 -0.200
40.9160 -0.142
40.9463 0.334
40.9765 0.028
41.0068 -0.122
41.0371 0.198
41.0674 0.414
41.0977 0.057
41.1279 0.429
41.1582 0.281
41.1885 0.133
41.2188 -0.014
41.2491 -0.266
41.2793 -0.066
41.3096 -0.021
41.3399 -0.029
41.3702 0.380
41.4004 0.321
41.4307 0.262
41.4610 0.151
41.4913 0.718
41.5216 0.243
41.5518 -0.075
41.5821 -0.289
41.6124 0.435
41.6427 0.013
41.6730 0.008
41.7032 0.055
41.7335 0.103
41.7638 -0.005
41.7941 -0.166
41.8243 -0.169
41.8546 0.400
41.8849 -0.124
41.9152 0.342
41.9455 0.131
41.9757 0.337
42.0060 0.074
42.0363 0.020
42.0666 0.383
42.0969 -0.140
42.1271 0.067
42.1574 -0.038
42.1877 0.013
42.2180 0.429
42.2482 0.012
42.2785 -0.040
42.3088 -0.196
42.3391 0.377
42.3694 -0.143
42.3996 -0.194
42.4299 -0.297
42.4602 0.434
42.4905 0.071
42.5208 0.072
42.5510 -0.238
42.5813 0.493
42.6116 -0.181
42.6419 0.290
42.6721 0.137
42.7024 0.088
42.7327 0.405
42.7630 -0.113
42.7933 -0.265
42.8235 -0.165
42.8538 0.352
42.8841 0.245
42.9144 -0.019
42.9447 -0.126
42.9749 -0.077
43.0052 -0.184
43.0355 0.283
43.0658 0.229
43.0960 0.019
43.1263 0.173
43.1566 -0.349
43.1869 -0.249
43.2172 0.113
43.2474 -0.099
43.2777 0.158
43.3080 0.572
43.3383 0.518
43.3686 -0.058
43.3988 0.045
43.4291 0.147
43.4594 -0.219
43.4897 -0.012
43.5199 0.091
43.5502 -0.014
43.5805 -0.484
43.6108 0.089
43.6411 -0.328
43.6713 -0.119
43.7016 0.246
43.7319 -0.223
43.7622 0.091
43.7925 0.144
43.8227 -0.428
43.8530 -0.114
43.8833 0.357
43.9136 0.567
43.9439 0.101
43.9741 -0.105
44.0044 -0.362
44.0347 0.109
44.0650 0.529
44.0952 0.064
44.1255 -0.349
44.1558 -0.144
44.1861 0.010
44.2164 0.007
44.2466 0.005
44.2769 -0.205
44.3072 0.001
44.3375 -0.157
44.3678 -0.210
44.3980 -0.211
44.4283 0.309
44.4586 0.308
44.4889 0.152
44.5191 0.568
44.5494 -0.161
44.5797 0.048
44.6100 0.569
44.6403 0.310
44.6705 0.102
44.7008 -0.209
44.7311 0.626
44.7614 0.055
44.7917 0.057
44.8219 0.007
44.8522 0.166
44.8825 -0.092
44.9128 -0.401
44.9430 0.011
44.9733 -0.046
45.0036 0.314
45.0339 -0.003
45.0642 -0.372
45.0944 0.041
45.1247 -0.535
45.1550 0.347
45.1853 0.031
45.2156 0.185
45.2458 0.130
45.2761 0.336
45.3064 0.386
45.3367 -0.293
45.3669 0.383
45.3972 0.798
45.4275 -0.089
45.4578 0.379
45.4881 0.326
45.5183 0.014
45.5486 -0.039
45.5789 -0.091
45.6092 -0.299
45.6395 0.001
45.6697 -0.377
45.7000 -0.025
45.7303 -0.089
45.7606 -0.466
45.7908 0.199
45.8211 0.240
45.8514 0.072
45.8817 -0.199
45.9120 -0.002
45.9422 0.040
45.9725 0.081
46.0028 -0.189
46.0331 0.322
46.0634 -0.157
46.0936 -0.010
46.1239 0.137
46.1542 -0.236
46.1845 0.015
46.2147 -0.514
46.2450 -0.105
46.2753 0.357
46.3056 0.402
46.3359 -0.386
46.3661 0.181
46.3964 0.435
46.4267 0.377
46.4570 0.424
46.4873 0.054
46.5175 0.048
46.5478 0.460
46.5781 0.195
46.6084 0.086
46.6386 -0.074
46.6689 0.443
46.6992 0.179
46.7295 0.644
46.7598 0.172
46.7900 0.117
46.8203 0.010
46.8506 0.476
46.8809 0.162
46.9112 0.732
46.9414 1.460
46.9717 1.094
47.0020 1.249
47.0323 1.300
47.0626 2.340
47.0928 1.611
47.1231 2.183
47.1534 2.183
47.1837 2.288
47.2139 4.215
47.2442 3.903
47.2745 4.685
47.3048 4.113
47.3351 5.000
47.3653 4.846
47.3956 5.264
47.4259 5.214
47.4562 5.112
47.4865 4.646
47.5167 4.440
47.5470 3.141
47.5773 3.770
47.6076 3.565
47.6378 3.100
47.6681 1.958
47.6984 1.285
47.7287 1.342
47.7590 1.138
47.7892 1.143
47.8195 0.732
47.8498 0.945
47.8801 0.691
47.9104 0.384
47.9406 0.599
47.9709 0.032
48.0012 0.299
48.0315 -0.111
48.0617 0.417
48.0920 0.529
48.1223 0.589
48.1526 -0.081
48.1829 0.448
48.2131 -0.272
48.2434 0.309
48.2737 0.058
48.3040 -0.298
48.3343 -0.199
48.3645 0.733
48.3948 0.051
48.4251 -0.109
48.4554 -0.218
48.4856 -0.222
48.5159 0.191
48.5462 0.187
48.5765 -0.077
48.6068 0.024
48.6370 -0.135
48.6673 0.019
48.6976 0.016
48.7279 0.066
48.7582 -0.196
48.7884 -0.250
48.8187 0.009
48.8490 -0.096
48.8793 0.111
48.9095 -0.202
48.9398 0.370
48.9701 -0.203
49.0004 -0.203
49.0307 0.110
49.0609 0.006
49.0912 -0.306
49.1215 -0.617
49.1518 0.219
49.1821 0.065
49.2123 0.015
49.2426 -0.347
49.2729 -0.031
49.3032 -0.132
49.3334 -0.181
49.3637 0.187
49.3940 0.139
49.4243 -0.378
49.4546 -0.061
49.4848 -0.421
49.5151 0.001
49.5454 -0.515
49.5757 0.115
49.6060 -0.244
49.6362 -0.238
49.6665 -0.076
49.6968 -0.174
49.7271 -0.011
49.7574 0.308
49.7876 -0.257
49.8179 -0.302
49.8482 0.172
49.8785 0.283
49.9087 -0.284
49.9390 -0.069
49.9693 0.043
49.9996 -0.106
50.0299 -0.359
50.0601 0.065
50.0904 -0.136
50.1207 -0.075
50.1510 0.089
50.1813 0.098
50.2115 -0.206
50.2418 0.064
50.2721 0.021
50.3024 0.135
50.3326 -0.324
50.3629 -0.217
50.3932 0.202
50.4235 0.257
50.4538 0.416
50.4840 0.159
50.5143 -0.098
50.5446 0.167
50.5749 0.171
50.6052 0.487
50.6354 0.179
50.6657 -0.232
50.6960 -0.227
50.7263 -0.014
50.7565 -0.008
50.7868 -0.263
50.8171 0.108
50.8474 0.478
50.8777 0.381
50.9079 0.335
50.9382 -0.074
50.9685 0.141
50.9988 -0.320
51.0291 -0.222
51.0593 0.397
51.0896 -0.182
51.1199 -0.031
51.1502 0.119
51.1804 -0.042
51.2107 -0.203
51.2410 0.053
51.2713 0.152
51.3016 -0.008
51.3318 -0.168
51.3621 0.193
51.3924 -0.227
51.4227 0.394
51.4530 0.443
51.4832 0.232
51.5135 -0.187
51.5438 -0.085
51.5741 -0.087
51.6043 -0.401
51.6346 0.013
51.6649 0.115
51.6952 0.217
51.7255 -0.513
51.7557 0.110
51.7860 0.109
51.8163 0.316
51.8466 -0.153
51.8769 -0.102
51.9071 0.158
51.9374 -0.467
51.9677 -0.154
51.9980 -0.258
52.0282 -0.101
52.0585 -0.048
52.0888 -0.203
52.1191 0.059
52.1494 0.061
52.1796 -0.198
52.2099 0.169
52.2402 -0.089
52.2705 0.226
52.3008 0.073
52.3310 0.128
52.3613 -0.025
52.3916 0.135
52.4219 0.816
52.4521 -0.378
52.4824 -0.061
52.5127 -0.265
52.5430 -0.167
52.5733 0.088
52.6035 0.082
52.6338 -0.028
52.6641 0.019
52.6944 0.066
52.7247 0.269
52.7549 0.004
52.7852 0.312
52.8155 -0.056
52.8458 0.200
52.8761 0.405
52.9063 0.089
52.9366 0.034
52.9669 0.031
52.9972 -0.076
53.0274 0.130
53.0577 -0.132
53.0880 -0.030
53.1183 -0.032
53.1486 -0.033
53.1788 -0.451
53.2091 0.017
53.2394 -0.088
53.2697 -0.193
53.3000 -0.141
53.3302 -0.245
53.3605 -0.037
53.3908 -0.297
53.4211 0.069
53.4513 0.018
53.4816 0.019
53.5119 -0.657
53.5422 -0.030
53.5725 -0.237
53.6027 0.078
53.6330 -0.284
53.6633 0.083
53.6936 -0.018
53.7239 0.089
53.7541 -0.324
53.7844 0.252
53.8147 -0.004
53.8450 0.052
53.8752 0.108
53.9055 -0.095
53.9358 0.326
53.9661 0.019
53.9964 0.024
54.0266 -0.335
54.0569 0.192
54.0872 0.041
54.1175 -0.265
54.1478 -0.222
54.1780 0.185
54.2083 0.123
54.2386 0.271
54.2689 -0.051
54.2991 -0.111
54.3294 0.089
54.3597 0.081
54.3900 -0.083
54.4203 0.117
54.4505 -0.463
54.4808 0.363
54.5111 -0.112
54.5414 -0.119
54.5717 -0.021
54.6019 0.129
54.6322 0.332
54.6625 0.222
54.6928 -0.148
54.7230 0.472
54.7533 -0.262
54.7836 0.410
54.8139 0.353
54.8442 0.089
54.8744 0.241
54.9047 -0.492
54.9350 -0.131
54.9653 -0.290
54.9956 0.012
55.0258 0.209
55.0561 -0.374
55.0864 -0.020
55.1167 -0.186
55.1469 -0.508
55.1772 0.368
55.2075 0.046
55.2378 0.193
55.2681 0.393
55.2983 -0.293
55.3286 0.168
55.3589 0.264
55.3892 -0.160
55.4195 0.093
55.4497 0.346
55.4800 -0.078
55.5103 -0.033
55.5406 0.325
55.5709 -0.150
55.6011 0.469
55.6314 0.255
55.6617 0.354
55.6920 0.036
55.7222 0.447
55.7525 0.026
55.7828 0.281
55.8131 0.329
55.8434 0.377
55.8736 -0.200
55.9039 0.630
55.9342 1.095
55.9645 1.144
55.9948 0.725
56.0250 1.920
56.0553 1.917
56.0856 1.603
56.1159 2.174
56.1461 2.380
56.1764 2.483
56.2067 3.211
56.2370 3.366
56.2673 3.521
56.2975 4.250
56.3278 4.875
56.3581 5.239
56.3884 5.865
56.4187 6.230
56.4489 6.230
56.4792 5.710
56.5095 5.034
56.5398 5.869
56.5700 5.298
56.6003 4.258
56.6306 3.687
56.6609 2.856
56.6912 3.484
56.7214 2.549
56.7517 2.031
56.7820 2.243
56.8123 1.830
56.8426 1.834
56.8728 1.005
56.9031 1.582
56.9334 1.326
56.9637 0.654
56.9939 1.336
57.0242 0.247
57.0545 0.565
57.0848 1.144
57.1151 0.785
57.1453 0.531
57.1756 0.069
57.2059 0.232
57.2362 0.499
57.2665 0.246
57.2967 0.305
57.3270 0.834
57.3573 -0.200
57.3876 -0.244
57.4178 0.129
57.4481 -0.331
57.4784 -0.216
57.5087 -0.153
57.5390 -0.142
57.5692 0.286
57.5995 -0.431
57.6298 -0.055
57.6601 -0.199
57.6904 -0.239
57.7206 0.295
57.7509 0.568
57.7812 0.164
57.8115 0.230
57.8417 -0.069
57.8720 -0.004
57.9023 0.063
57.9326 0.337
57.9629 0.091
57.9931 0.054
58.0234 0.277
58.0537 -0.593
58.0840 -0.265
58.1143 0.164
58.1445 0.020
58.1748 -0.072
58.2051 0.201
58.2354 0.110
58.2656 0.279
58.2959 -0.072
58.3262 -0.006
58.3565 -0.097
58.3868 -0.291
58.4170 0.016
58.4473 -0.042
58.4776 0.422
58.5079 0.625
58.5382 -0.005
58.5684 0.355
58.5987 0.091
58.6290 0.087
58.6593 -0.021
58.6896 -0.025
58.7198 0.128
58.7501 -0.344
58.7804 0.226
58.8107 0.120
58.8409 0.586
58.8712 -0.145
58.9015 -0.147
58.9318 0.060
58.9621 0.110
58.9923 0.057
59.0226 -0.152
59.0529 -0.049
59.0832 0.055
59.1135 0.107
59.1437 0.003
59.1740 0.160
59.2043 -0.100
59.2346 -0.256
59.2648 -0.210
59.2951 0.097
59.3254 -0.064
59.3557 -0.121
59.3860 -0.074
59.4162 -0.079
59.4465 -0.135
59.4768 0.121
59.5071 -0.143
59.5374 0.270
59.5676 -0.098
59.5979 -0.101
59.6282 0.156
59.6585 0.205
59.6887 0.359
59.7190 -0.164
59.7493 -0.374
59.7796 0.093
59.8099 0.039
59.8401 -0.119
59.8704 -0.121
59.9007 0.243
59.9310 -0.383
59.9613 -0.019
59.9915 0.293
60.0218 0.188
60.0521 -0.333
60.0824 -0.176
60.1126 -0.176
60.1429 -0.019
60.1732 0.295
60.2035 0.296
60.2338 -0.067
60.2640 0.039
60.2943 -0.168
60.3246 0.095
60.3549 -0.215
60.3852 -0.004
60.4154 -0.157
60.4457 0.210
60.4760 0.005
60.5063 0.165
60.5365 0.482
60.5668 -0.243
60.5971 0.751
60.6274 -0.026
60.6577 -0.177
60.6879 0.244
60.7182 -0.063
60.7485 -0.005
60.7788 0.157
60.8091 -0.358
60.8393 -0.091
60.8696 -0.449
60.8999 0.006
60.9302 0.046
60.9604 -0.227
60.9907 0.125
61.0210 -0.043
61.0513 0.309
61.0816 0.037
61.1118 -0.130
61.1421 0.067
61.1724 0.421
61.2027 -0.163
61.2330 -0.069
61.2632 -0.183
61.2935 -0.037
61.3238 0.005
61.3541 0.100
61.3844 0.195
61.4146 -0.074
61.4449 0.021
61.4752 0.065
61.5055 -0.412
61.5357 0.049
61.5660 0.041
61.5963 -0.071
61.6266 0.130
61.6569 0.019
61.6871 -0.040
61.7174 0.579
61.7477 0.052
61.7780 -0.163
61.8083 0.300
61.8385 0.138
61.8688 -0.127
61.8991 0.232
61.9294 0.696
61.9596 0.379
61.9899 0.531
62.0202 0.475
62.0505 -0.258
62.0808 1.092
62.1110 0.516
62.1413 0.409
62.1716 0.979
62.2019 0.403
62.2322 0.921
62.2624 1.700
62.2927 0.709
62.3230 1.697
62.3533 1.122
62.3835 2.111
62.4138 1.954
62.4441 2.161
62.4744 2.994
62.5047 2.473
62.5349 2.629
62.5652 2.733
62.5955 4.192
62.6258 3.568
62.6561 3.725
62.6863 5.601
62.7166 4.405
62.7469 4.250
62.7772 4.617
62.8074 4.515
62.8377 3.996
62.8680 4.884
62.8983 3.429
62.9286 2.911
62.9588 3.279
62.9891 2.658
63.0194 2.453
63.0497 2.145
63.0800 1.837
63.1102 1.945
63.1405 0.804
63.1708 1.278
63.2011 0.554
63.2313 0.768
63.2616 0.878
63.2919 1.092
63.3222 0.682
63.3525 0.636
63.3827 0.799
63.4130 0.234
63.4433 0.814
63.4736 0.092
63.5039 0.308
63.5341 0.108
63.5644 0.637
63.5947 -0.084
63.6250 -0.284
63.6552 0.298
63.6855 0.203
63.7158 0.317
63.7461 -0.038
63.7764 0.024
63.8066 0.555
63.8369 -0.216
63.8672 0.159
63.8975 0.326
63.9278 0.181
63.9580 0.296
63.9883 -0.265
64.0186 -0.149
64.0489 -0.137
64.0791 0.188
64.1094 -0.164
64.1397 -0.256
64.1700 0.000
64.2003 -0.161
64.2305 -0.114
64.2608 0.090
64.2911 -0.122
64.3214 0.082
64.3517 0.287
64.3819 0.023
64.4122 -0.084
64.4425 -0.087
64.4728 -0.142
64.5031 -0.144
64.5333 0.010
64.5636 -0.200
64.5939 0.110
64.6242 -0.203
64.6544 0.212
64.6847 0.003
64.7150 -0.050
64.7453 0.210
64.7756 -0.311
64.8058 0.210
64.8361 0.262
64.8664 -0.102
64.8967 -0.205
64.9270 -0.204
64.9572 -0.255
64.9875 0.215
65.0178 0.008
65.0481 -0.094
65.0783 -0.248
65.1086 -0.193
65.1389 -0.295
65.1692 0.118
65.1995 -0.197
65.2297 -0.148
65.2600 -0.151
65.2903 0.212
65.3206 0.210
65.3509 -0.209
65.3811 0.206
65.4114 0.257
65.4417 0.203
65.4720 -0.162
65.5022 -0.163
65.5325 0.306
65.5628 -0.007
65.5931 -0.267
65.6234 0.045
65.6536 -0.162
65.6839 -0.214
65.7142 -0.265
65.7445 -0.223
65.7748 0.183
65.8050 0.069
65.8353 0.320
65.8656 0.206
65.8959 0.561
65.9261 0.292
65.9564 0.283
65.9867 0.275
66.0170 0.162
66.0473 0.675
66.0775 0.146
66.1078 0.451
66.1381 0.756
66.1684 0.749
66.1987 0.222
66.2289 1.205
66.2592 0.886
66.2895 -0.214
66.3198 0.665
66.3500 0.556
66.3803 0.186
66.4106 -0.132
66.4409 0.280
66.4712 -0.038
66.5014 0.375
66.5317 -0.098
66.5620 0.158
66.5923 0.571
66.6226 0.047
66.6528 0.825
66.6831 0.041
66.7134 -0.118
66.7437 -0.485
66.7739 0.025
66.8042 0.536
66.8345 0.058
66.8648 0.257
66.8951 0.560
66.9253 0.082
66.9556 0.021
66.9859 -0.143
67.0162 0.057
67.0465 0.205
67.0767 0.041
67.1070 0.294
67.1373 0.547
67.1676 -0.085
67.1978 0.325
67.2281 0.631
67.2584 0.625
67.2887 0.306
67.3190 0.300
67.3492 0.138
67.3795 0.446
67.4098 0.649
67.4401 1.425
67.4704 1.421
67.5006 1.677
67.5309 0.839
67.5612 2.085
67.5915 1.977
67.6218 1.974
67.6520 2.492
67.6823 2.489
67.7126 3.163
67.7429 2.588
67.7731 2.482
67.8034 3.365
67.8337 3.572
67.8640 2.737
67.8943 2.996
67.9245 3.047
67.9548 3.098
67.9851 2.004
68.0154 2.837
68.0457 1.743
68.0759 1.692
68.1062 1.796
68.1365 1.589
68.1668 1.381
68.1970 1.018
68.2273 0.602
68.2576 1.021
68.2879 0.502
68.3182 0.817
68.3484 0.819
68.3787 0.353
68.4090 1.033
68.4393 0.463
68.4696 0.258
68.4998 1.199
68.5301 0.890
68.5604 0.322
68.5907 0.534
68.6209 0.382
68.6512 0.856
68.6815 0.757
68.7118 0.971
68.7421 1.289
68.7723 1.607
68.8026 0.623
68.8329 0.213
68.8632 1.105
68.8935 0.382
68.9237 0.598
68.9540 1.490
68.9843 0.873
69.0146 0.828
69.0448 1.045
69.0751 0.428
69.1054 0.853
69.1357 0.236
69.1660 0.974
69.1962 0.515
69.2265 0.628
69.2568 0.794
69.2871 0.387
69.3174 0.554
69.3476 0.148
69.3779 0.366
69.4082 0.273
69.4385 0.076
69.4687 0.087
69.4990 0.203
69.5293 0.683
69.5596 0.070
69.5899 -0.282
69.6201 -0.219
69.6504 0.522
69.6807 0.169
69.7110 0.129
69.7413 0.037
69.7715 -0.054
69.8018 -0.146
69.8321 -0.081
69.8624 0.245
69.8926 -0.002
69.9229 -0.145
69.9532 0.025
69.9835 -0.221
70.0138 -0.206
70.0440 0.277
70.0743 -0.125
70.1046 -0.318
70.1349 0.054
70.1652 -0.147
70.1954 -0.088
70.2257 0.181
70.2560 -0.019
70.2863 0.145
70.3166 -0.107
70.3468 0.006
70.3771 0.015
70.4074 -0.079
70.4377 -0.174
70.4679 0.044
70.4982 0.262
70.5285 0.377
70.5588 -0.342
70.5891 -0.227
70.6193 0.085
70.6496 -0.021
70.6799 0.083
70.7102 0.187
70.7405 0.342
70.7707 -0.074
70.8010 -0.282
70.8313 0.083
70.8616 -0.177
70.8918 -0.072
70.9221 0.346
70.9524 0.243
70.9827 0.089
71.0130 0.195
71.0432 -0.168
71.0735 0.095
71.1038 -0.058
71.1341 0.205
71.1644 -0.052
71.1946 0.003
71.2249 -0.150
71.2552 -0.146
71.2855 0.067
71.3157 -0.085
71.3460 0.076
71.3763 -0.076
71.4066 0.138
71.4369 -0.170
71.4671 -0.216
71.4974 -0.013
71.5277 0.087
71.5580 -0.021
71.5883 -0.338
71.6185 0.127
71.6488 -0.084
71.6791 0.069
71.7094 0.274
71.7396 0.167
71.7699 0.269
71.8002 -0.046
71.8305 -0.048
71.8608 -0.050
71.8910 -0.416
71.9213 -0.001
71.9516 -0.002
71.9819 -0.055
72.0122 0.205
72.0424 -0.056
72.0727 -0.057
72.1030 0.204
72.1333 -0.161
72.1635 0.100
72.1938 0.309
72.2241 0.362
72.2544 -0.106
72.2847 0.312
72.3149 0.262
72.3452 0.889
72.3755 0.110
72.4058 0.372
72.4361 0.062
72.4663 0.482
72.4966 -0.036
72.5269 0.436
72.5572 0.179
72.5874 0.079
72.6177 -0.125
72.6480 0.400
72.6783 0.404
72.7086 0.357
72.7388 -0.159
72.7691 0.367
72.7994 0.008
72.8297 0.222
72.8600 0.020
72.8902 -0.078
72.9205 -0.124
72.9508 0.039
72.9811 0.046
73.0113 0.157
73.0416 0.269
73.0719 0.172
73.1022 0.232
73.1325 -0.124
73.1627 0.145
73.1930 -0.315
73.2233 0.006
73.2536 -0.193
73.2839 -0.193
73.3141 0.117
73.3444 0.324
73.3747 0.219
73.4050 0.010
73.4353 0.165
73.4655 0.217
73.4958 0.060
73.5261 -0.357
73.5564 -0.101
73.5866 0.572
73.6169 0.099
73.6472 -0.218
73.6775 -0.117
73.7078 -0.121
73.7380 0.136
73.7683 -0.023
73.7986 0.027
73.8289 0.128
73.8592 0.282
73.8894 0.332
73.9197 0.018
73.9500 0.173
73.9803 -0.193
74.0105 0.014
74.0408 0.274
74.0711 0.065
74.1014 0.221
74.1317 0.012
74.1619 0.012
74.1922 0.169
74.2225 0.013
74.2528 -0.090
74.2831 -0.193
74.3133 -0.296
74.3436 0.331
74.3739 0.072
74.4042 -0.238
74.4344 0.076
74.4647 0.079
74.4950 -0.074
74.5253 -0.332
74.5556 0.033
74.5858 0.033
74.6161 0.190
74.6464 0.191
74.6767 -0.121
74.7070 -0.119
74.7372 0.091
74.7675 0.301
74.7978 0.303
74.8281 0.201
74.8583 0.047
74.8886 0.050
74.9189 0.001
74.9492 0.264
74.9795 0.111
75.0097 0.011
75.0400 -0.193
75.0703 -0.096
75.1006 0.107
75.1309 0.257
75.1611 -0.113
75.1914 0.142
75.2217 -0.020
75.2520 -0.024
75.2822 0.023
75.3125 -0.086
75.3428 -0.142
75.3731 0.010
75.4034 -0.150
75.4336 -0.205
75.4639 0.050
75.4942 0.253
75.5245 -0.169
75.5548 -0.069
75.5850 -0.230
75.6153 0.023
75.6456 -0.036
75.6759 -0.356
75.7061 0.315
75.7364 -0.004
75.7667 -0.010
75.7970 0.036
75.8273 -0.074
75.8575 -0.028
75.8878 -0.033
75.9181 0.066
75.9484 -0.199
75.9787 0.005
76.0089 -0.260
76.0392 -0.059
76.0695 -0.172
76.0998 -0.179
76.1301 0.178
76.1603 -0.090
76.1906 0.112
76.2209 0.053
76.2512 0.359
76.2814 0.248
76.3117 0.347
76.3420 -0.128
76.3723 0.023
76.4026 0.017
76.4328 0.325
76.4631 -0.149
76.4934 -0.153
76.5237 -0.001
76.5540 -0.110
76.5842 0.303
76.6145 0.143
76.6448 -0.120
76.6751 -0.019
76.7053 0.134
76.7356 0.444
76.7659 0.337
76.7962 -0.029
76.8265 0.646
76.8567 0.019
76.8870 0.278
76.9173 -0.036
76.9476 -0.089
76.9779 0.275
77.0081 -0.090
77.0384 0.223
77.0687 0.327
77.0990 -0.246
77.1292 0.015
77.1595 0.068
77.1898 0.121
77.2201 -0.086
77.2504 0.124
77.2806 -0.135
77.3109 -0.029
77.3412 -0.131
77.3715 -0.076
77.4018 0.291
77.4320 -0.071
77.4623 -0.120
77.4926 0.092
77.5229 -0.165
77.5531 -0.161
77.5834 -0.053
77.6137 -0.048
77.6440 -0.096
77.6743 -0.143
77.7045 -0.190
77.7348 -0.237
77.7651 -0.129
77.7954 0.240
77.8257 0.036
77.8559 -0.324
77.8862 0.046
77.9165 -0.262
77.9468 -0.101
77.9770 -0.201
78.0073 -0.248
78.0376 0.278
78.0679 0.023
78.0982 0.080
78.1284 -0.174
78.1587 -0.220
78.1890 -0.266
78.2193 0.365
78.2496 -0.201
78.2798 0.119
78.3101 -0.030
78.3404 -0.023
78.3707 -0.067
78.4009 -0.111
78.4312 0.261
78.4615 0.114
78.4918 0.018
78.5221 -0.025
78.5523 0.036
78.5826 0.046
78.6129 -0.205
78.6432 -0.106
78.6735 -0.008
78.7037 0.040
78.7340 0.139
78.7643 0.395
78.7946 -0.130
78.8248 0.022
78.8551 -0.242
78.8854 0.119
78.9157 -0.406
78.9460 -0.148
78.9762 0.005
79.0065 -0.050
79.0368 0.261
79.0671 -0.002
79.0974 0.152
79.1276 0.099
79.1579 0.201
79.1882 0.096
79.2185 0.043
79.2488 -0.010
79.2790 0.042
79.3093 -0.427
79.3396 0.198
79.3699 0.407
79.4001 -0.062
79.4304 -0.009
79.4607 -0.216
79.4910 -0.268
79.5213 0.461
79.5515 -0.007
79.5818 -0.058
79.6121 0.463
79.6424 -0.160
79.6727 -0.211
79.7029 0.051
79.7332 -0.051
79.7635 -0.257
79.7938 0.005
79.8240 -0.097
79.8543 -0.094
79.8846 0.117
79.9149 -0.140
79.9452 0.436
79.9754 -0.029
80.0057 -0.025
80.0360 0.031
80.0663 -0.121
80.0966 0.092
80.1268 -0.007
80.1571 0.050
80.1874 0.211
80.2177 0.269
80.2479 -0.403
80.2782 0.072
80.3085 -0.182
80.3388 -0.280
80.3691 0.131
80.3993 0.124
80.4296 -0.194
80.4599 -0.200
80.4902 -0.205
80.5205 -0.053
80.5507 -0.370
80.5810 0.199
80.6113 0.768
80.6416 0.035
80.6718 0.031
80.7021 0.080
80.7324 0.025
80.7627 0.075
80.7930 0.385
80.8232 0.122
80.8535 0.016
80.8838 0.275
80.9141 0.274
80.9444 -0.092
80.9746 -0.041
81.0049 0.635
81.0352 0.010
81.0655 0.114
81.0957 0.009
81.1260 0.374
81.1563 0.479
81.1866 0.011
81.2169 0.064
81.2471 0.378
81.2774 0.483
81.3077 0.277
81.3380 0.174
81.3683 0.281
81.3985 0.439
81.4288 0.286
81.4591 0.445
81.4894 0.188
81.5196 0.035
81.5499 0.299
81.5802 0.042
81.6105 0.255
81.6408 0.051
81.6710 -0.205
81.7013 -0.205
81.7316 0.003
81.7619 0.003
81.7922 0.316
81.8224 0.004
81.8527 0.213
81.8830 -0.306
81.9133 0.268
81.9436 0.165
81.9738 -0.041
82.0041 0.013
82.0344 0.536
82.0647 0.070
82.0949 -0.032
82.1252 0.180
82.1555 -0.129
82.1858 -0.022
82.2161 0.086
82.2463 0.507
82.2766 -0.166
82.3069 0.099
82.3372 -0.001
82.3675 0.056
82.3977 0.010
82.4280 -0.193
82.4583 -0.147
82.4886 0.108
82.5188 0.102
82.5491 0.097
82.5794 -0.221
82.6097 0.087
82.6400 0.083
82.6702 0.078
82.7005 -0.186
82.7308 0.019
82.7611 0.067
82.7914 0.116
82.8216 0.113
82.8519 0.006
82.8822 0.316
82.9125 0.418
82.9427 0.364
82.9730 -0.315
83.0033 0.256
83.0336 0.099
83.0639 -0.111
83.0941 -0.060
83.1244 -0.060
83.1547 -0.061
83.1850 0.043
83.2153 0.044
83.2455 -0.217
83.2758 0.097
83.3061 -0.007
83.3364 -0.110
83.3666 0.048
83.3969 0.258
83.4272 0.103
83.4575 0.053
83.4878 -0.205
83.5180 -0.155
83.5483 0.208
83.5786 -0.054
83.6089 -0.264
83.6392 0.100
83.6694 -0.109
83.6997 0.515
83.7300 -0.110
83.7603 -0.006
83.7905 -0.162
83.8208 -0.005
83.8511 -0.056
83.8814 0.049
83.9117 -0.054
83.9419 0.207
83.9722 0.053
84.0025 -0.049
84.0328 -0.047
84.0631 -0.045
84.0933 0.010
84.1236 -0.091
84.1539 -0.140
84.1842 -0.293
84.2144 0.283
84.2447 -0.078
84.2750 0.031
84.3053 0.243
84.3356 -0.117
84.3658 -0.112
84.3961 0.153
84.4264 -0.102
84.4567 -0.200
84.4870 0.059
84.5172 0.111
84.5475 0.111
84.5778 0.163
84.6081 0.059
84.6383 -0.201
84.6686 0.112
84.6989 -0.095
84.7292 0.167
84.7595 -0.144
84.7897 -0.195
84.8200 0.172
84.8503 0.070
84.8806 -0.292
84.9109 0.127
84.9411 0.286
84.9714 -0.127
85.0017 0.032
85.0320 0.036
85.0623 0.561
85.0925 -0.008
85.1228 -0.108
85.1531 0.469
85.1834 0.058
85.2136 -0.198
85.2439 -0.097
85.2742 0.055
85.3045 0.104
85.3348 0.153
85.3650 -0.006
85.3953 0.148
85.4256 0.041
85.4559 -0.117
85.4862 -0.067
85.5164 0.140
85.5467 -0.122
85.5770 0.190
85.6073 0.084
85.6375 0.136
85.6678 0.188
85.6981 -0.125
85.7284 -0.125
85.7587 -0.020
85.7889 0.136
85.8192 0.085
85.8495 -0.018
85.8798 -0.225
85.9101 -0.023
85.9403 0.284
85.9706 -0.033
86.0009 0.066
86.0312 0.113
86.0614 0.160
86.0917 0.156
86.1220 0.048
86.1523 0.513
86.1826 0.092
86.2128 -0.380
86.2431 0.086
86.2734 0.083
86.3037 -0.024
86.3340 0.130
86.3642 0.076
86.3945 -0.083
86.4248 -0.293
86.4551 0.070
86.4853 0.278
86.5156 -0.036
86.5459 -0.037
86.5762 -0.246
86.6065 0.171
86.6367 0.015
86.6670 0.015
86.6973 -0.453
86.7276 0.068
86.7579 -0.243
86.7881 0.122
86.8184 0.124
86.8487 0.073
86.8790 -0.081
86.9092 -0.079
86.9395 0.288
86.9698 0.395
87.0001 -0.123
87.0304 -0.172
87.0606 0.196
87.0909 -0.373
87.1212 0.099
87.1515 -0.001
87.1818 -0.153
87.2120 -0.357
87.2423 0.104
87.2726 0.045
87.3029 -0.275
87.3331 0.083
87.3634 0.076
87.3937 -0.034
87.4240 -0.145
87.4543 -0.255
87.4845 0.103
87.5148 0.096
87.5451 -0.015
87.5754 0.082
87.6057 -0.080
87.6359 -0.034
87.6662 -0.196
87.6965 -0.045
87.7268 -0.050
87.7571 -0.003
87.7873 -0.216
87.8176 -0.169
87.8479 -0.017
87.8782 -0.125
87.9084 0.079
87.9387 -0.029
87.9690 -0.032
87.9993 0.017
88.0296 0.379
88.0598 -0.197
88.0901 0.009
88.1204 -0.098
88.1507 -0.100
88.1810 0.107
88.2112 0.106
88.2415 -0.260
88.2718 -0.053
88.3021 -0.158
88.3323 0.310
88.3626 -0.107
88.3929 0.102
88.4232 0.102
88.4535 -0.210
88.4837 0.103
88.5140 -0.052
88.5443 -0.520
88.5746 -0.008
88.6049 -0.069
88.6351 -0.181
88.6654 0.071
88.6957 -0.093
88.7260 0.212
88.7562 -0.160
88.7865 -0.115
88.8168 0.347
88.8471 0.080
88.8774 -0.083
88.9076 -0.194
88.9379 0.217
88.9682 0.368
88.9985 0.310
89.0288 0.305
89.0590 0.404
89.0893 0.452
89.1196 0.030
89.1499 0.339
89.1801 0.178
89.2104 0.487
89.2407 0.275
89.2710 0.480
89.3013 0.165
89.3315 0.266
89.3618 0.628
89.3921 0.261
89.4224 0.728
89.4527 0.778
89.4829 0.568
89.5132 0.306
89.5435 0.357
89.5738 0.825
89.6040 0.720
89.6343 0.407
89.6646 -0.009
89.6949 0.824
89.7252 -0.009
89.7554 0.460
89.7857 0.409
89.8160 0.306
89.8463 -0.005
89.8766 0.153
89.9068 0.675
89.9371 -0.052
89.9674 -0.310
89.9977 0.109
90.0279 -0.149
90.0582 0.063
90.0885 0.170
90.1188 -0.139
90.1491 -0.187
90.1793 0.077
90.2096 -0.127
90.2399 0.398
90.2702 -0.170
90.3005 0.147
90.3307 0.309
90.3610 -0.363
90.3913 0.059
90.4216 0.221
90.4518 0.019
90.4821 0.182
90.5124 -0.280
90.5427 0.403
90.5730 -0.214
90.6032 -0.155
90.6335 -0.147
90.6638 0.225
90.6941 0.025
90.7244 -0.019
90.7546 0.302
90.7849 -0.262
90.8152 0.268
90.8455 0.016
90.8758 0.234
90.9060 0.088
90.9363 -0.111
90.9666 -0.048
90.9969 -0.038
91.0271 0.025
91.0574 0.296
91.0877 -0.266
91.1180 -0.046
91.1483 -0.034
91.1785 0.030
91.2088 0.511
91.2391 -0.310
91.2694 -0.193
91.2997 0.061
91.3299 0.106
91.3602 0.101
91.3905 0.095
91.4208 0.089
91.4510 -0.020
91.4813 0.027
91.5116 -0.290
91.5419 0.070
91.5722 0.013
91.6024 -0.095
91.6327 0.006
91.6630 0.210
91.6933 0.155
91.7236 -0.369
91.7538 0.045
91.7841 0.042
91.8144 -0.116
91.8447 0.038
91.8749 0.036
91.9052 0.139
91.9355 0.241
91.9658 -0.176
91.9961 -0.073
92.0263 -0.230
92.0566 0.027
92.0869 0.232
92.1172 0.021
92.1475 -0.138
92.1777 0.172
92.2080 0.066
92.2383 0.116
92.2686 0.219
92.2988 0.217
92.3291 0.008
92.3594 0.424
92.3897 0.110
92.4200 -0.098
92.4502 -0.203
92.4805 0.266
92.5108 -0.150
92.5411 0.215
92.5714 -0.201
92.6016 0.008
92.6319 0.426
92.6622 0.428
92.6925 0.013
92.7227 0.067
92.7530 0.538
92.7833 -0.033
92.8136 0.439
92.8439 -0.027
92.8741 0.184
92.9044 0.292
92.9347 -0.225
92.9650 0.195
92.9953 0.460
93.0255 0.048
93.0558 0.521
93.0861 0.213
93.1164 0.479
93.1466 0.224
93.1769 -0.135
93.2072 0.131
93.2375 0.033
93.2678 0.091
93.2980 0.098
93.3283 0.365
93.3586 -0.305
93.3889 -0.193
93.4192 0.214
93.4494 0.153
93.4797 0.560
93.5100 0.239
93.5403 0.335
93.5706 0.535
93.6008 0.006
93.6311 0.103
93.6614 -0.165
93.6917 0.088
93.7219 0.029
93.7522 0.022
93.7825 -0.453
93.8128 0.322
93.8431 -0.049
93.8733 -0.106
93.9036 -0.216
93.9339 -0.067
93.9642 0.031
93.9945 0.076
94.0247 0.226
94.0550 0.064
94.0853 0.215
94.1156 0.209
94.1458 0.100
94.1761 0.303
94.2064 -0.326
94.2367 -0.227
94.2670 -0.182
94.2972 -0.137
94.3275 -0.092
94.3578 0.162
94.3881 -0.104
94.4184 -0.215
94.4486 -0.012
94.4789 0.347
94.5092 -0.075
94.5395 -0.080
94.5697 0.123
94.6000 0.067
94.6303 -0.042
94.6606 -0.046
94.6909 -0.050
94.7211 0.519
94.7514 -0.005
94.7817 0.617
94.8120 0.510
94.8423 0.247
94.8725 0.088
94.9028 0.398
94.9331 0.136
94.9634 0.186
94.9936 0.133
95.0239 0.392
95.0542 0.495
95.0845 0.651
95.1148 0.650
95.1450 0.598
95.1753 0.598
95.2056 0.181
95.2359 0.390
95.2662 0.287
95.2964 0.756
95.3267 0.341
95.3570 0.342
95.3873 0.344
95.4175 0.658
95.4478 0.973
95.4781 0.611
95.5084 0.041
95.5387 0.148
95.5689 0.359
95.5992 -0.106
95.6295 0.106
95.6598 0.682
95.6901 0.166
95.7203 0.326
95.7506 -0.138
95.7809 0.179
95.8112 -0.024
95.8414 0.242
95.8717 0.039
95.9020 -0.007
95.9323 -0.366
95.9626 -0.054
95.9928 0.102
96.0231 -0.055
96.0534 0.362
96.0837 0.310
96.1140 0.258
96.1442 -0.158
96.1745 -0.001
96.2048 -0.051
96.2351 -0.206
96.2653 0.264
96.2956 0.006
96.3259 -0.044
96.3562 -0.146
96.3865 -0.091
96.4167 -0.088
96.4470 0.175
96.4773 0.022
96.5076 -0.078
96.5379 -0.127
96.5681 -0.227
96.5984 -0.118
96.6287 -0.269
96.6590 0.205
96.6893 0.003
96.7195 -0.043
96.7498 -0.141
96.7801 -0.031
96.8104 -0.076
96.8406 -0.017
96.8709 -0.010
96.9012 -0.367
96.9315 0.421
96.9618 0.065
96.9920 -0.188
97.0223 -0.179
97.0526 -0.015
97.0829 -0.162
97.1132 -0.205
97.1434 0.048
97.1737 0.614
97.2040 -0.227
97.2343 -0.181
97.2645 0.073
97.2948 -0.090
97.3251 0.009
97.3554 0.315
97.3857 -0.263
97.4159 -0.216
97.4462 -0.015
97.4765 0.030
97.5068 -0.080
97.5371 -0.191
97.5673 0.168
97.5976 0.370
97.6279 0.261
97.6582 -0.057
97.6884 0.146
97.7187 -0.015
97.7490 0.032
97.7793 0.028
97.8096 -0.080
97.8398 0.176
97.8701 -0.088
97.9004 0.013
97.9307 -0.042
97.9610 0.059
97.9912 -0.204
98.0215 0.106
98.0518 0.208
98.0821 -0.054
98.1123 0.204
98.1426 -0.162
98.1729 0.149
98.2032 -0.060
98.2335 0.096
98.2637 0.199
98.2940 0.251
98.3243 0.303
98.3546 0.460
98.3849 0.356
98.4151 -0.216
98.4454 -0.007
98.4757 0.255
98.5060 0.100
98.5362 -0.055
98.5665 0.155
98.5968 0.106
98.6271 0.420
98.6574 0.319
98.6876 0.582
98.7179 0.325
98.7482 0.432
98.7785 -0.033
98.8088 -0.029
98.8390 0.027
98.8693 0.188
98.8996 0.244
98.9299 0.041
98.9601 0.150
98.9904 -0.105
99.0207 -0.099
99.0510 0.010
99.0813 -0.296
99.1115 0.075
99.1418 0.342
99.1721 0.036
99.2024 0.043
99.2327 0.154
99.2629 0.058
99.2932 0.326
99.3235 -0.031
99.3538 0.029
99.3841 -0.171
99.4143 0.098
99.4446 -0.205
99.4749 -0.205
99.5052 0.159
99.5354 0.314
99.5657 -0.311
99.5960 0.105
99.6263 0.366
99.6566 0.575
99.6868 -0.154
99.7171 -0.205
99.7474 -0.051
99.7777 0.104
99.8080 -0.001
99.8382 0.102
99.8685 0.362
99.8988 0.049
99.9291 -0.108
99.9593 0.101
99.9896 0.518
100.0199 0.101
100.0502 0.050
100.0805 0.103
100.1107 -0.052
100.1410 -0.155
100.1713 -0.205
100.2016 -0.107
100.2319 0.043
100.2621 0.193
100.2924 -0.073
100.3227 0.078
100.3530 0.072
100.3832 -0.037
100.4135 -0.198
100.4438 -0.098
100.4741 0.523
100.5044 -0.210
100.5346 0.046
100.5649 0.043
100.5952 -0.117
100.6255 -0.328
100.6558 0.086
100.6860 0.031
100.7163 -0.336
100.7466 0.131
100.7769 0.025
100.8071 0.023
100.8374 0.022
100.8677 0.281
100.8980 -0.032
100.9283 0.280
100.9585 -0.138
100.9888 -0.034
101.0191 0.019
101.0494 0.227
101.0797 -0.085
101.1099 0.645
101.1402 -0.343
101.1705 0.231
101.2008 -0.184
101.2310 -0.078
101.2613 -0.232
101.2916 0.022
101.3219 -0.141
101.3522 0.218
101.3824 0.004
101.4127 -0.105
101.4430 -0.163
101.4733 -0.011
101.5036 0.349
101.5338 0.553
101.5641 -0.077
101.5944 0.024
101.6247 0.176
101.6549 -0.088
101.6852 -0.351
101.7155 0.063
101.7458 -0.305
101.7761 0.005
101.8063 0.003
101.8366 -0.051
101.8669 -0.001
101.8972 -0.210
101.9275 -0.160
101.9577 -0.057
101.9880 -0.109
102.0183 -0.006
102.0486 -0.110
102.0788 -0.267
102.1091 0.150
102.1394 0.151
102.1697 0.256
102.2000 0.256
102.2302 -0.055
102.2605 -0.262
102.2908 -0.007
102.3211 0.196
102.3514 0.504
102.3816 0.239
102.4119 -0.026
102.4422 0.073
102.4725 -0.139
102.5028 -0.039
102.5330 0.687
102.5633 0.163
102.5936 -0.101
102.6239 0.053
102.6541 -0.002
102.6844 -0.056
102.7147 0.046
102.7450 0.461
102.7753 0.094
102.8055 -0.063
102.8358 -0.012
102.8661 0.351
102.8964 -0.170
102.9267 -0.066
102.9569 0.246
102.9872 0.871
103.0175 0.194
103.0478 0.039
103.0780 0.404
103.1083 -0.116
103.1386 0.250
103.1689 -0.165
103.1992 0.149
103.2294 0.307
103.2597 -0.055
103.2900 -0.157
103.3203 0.211
103.3506 0.318
103.3808 -0.148
103.4111 0.064
103.4414 -0.141
103.4717 0.124
103.5019 -0.237
103.5322 -0.192
103.5625 0.322
103.5928 -0.049
103.6231 0.673
103.6533 0.303
103.6836 0.088
103.7139 -0.074
103.7442 0.025
103.7745 0.228
103.8047 0.744
103.8350 0.010
103.8653 0.631
103.8956 0.418
103.9258 0.414
103.9561 0.619
103.9864 0.563
104.0167 0.195
104.0470 0.452
104.0772 0.241
104.1075 0.395
104.1378 0.340
104.1681 -0.130
104.1984 0.232
104.2286 0.804
104.2589 0.125
104.2892 0.853
104.3195 -0.033
104.3497 0.383
104.3800 0.174
104.4103 0.070
104.4406 -0.034
104.4709 -0.086
104.5011 -0.190
104.5314 -0.397
104.5617 0.125
104.5920 0.335
104.6223 0.076
104.6525 0.390
104.6828 0.132
104.7131 0.447
104.7434 -0.332
104.7736 -0.017
104.8039 -0.118
104.8342 -0.062
104.8645 -0.111
104.8948 -0.055
104.9250 -0.103
104.9553 0.474
104.9856 0.270
105.0159 -0.142
105.0462 -0.241
105.0764 0.181
105.1067 -0.230
105.1370 0.192
105.1673 -0.010
105.1975 0.257
105.2278 -0.049
105.2581 0.009
105.2884 0.173
105.3187 -0.289
105.3489 -0.237
105.3792 0.126
105.4095 0.125
105.4398 0.228
105.4701 0.279
105.5003 -0.034
105.5306 -0.399
105.5609 0.018
105.5912 -0.191
105.6215 0.174
105.6517 -0.346
105.6820 0.176
105.7123 -0.031
105.7426 -0.030
105.7728 -0.341
105.8031 -0.028
105.8334 0.129
105.8637 0.130
105.8940 0.079
105.9242 0.029
105.9545 0.083
105.9848 0.085
106.0151 0.035
106.0454 0.350
106.0756 -0.429
106.1059 0.043
106.1362 0.046
106.1665 0.206
106.1967 0.157
106.2270 -0.255
106.2573 0.009
106.2876 -0.195
106.3179 -0.086
106.3481 0.179
106.3784 0.237
106.4087 -0.123
106.4390 -0.013
106.4693 0.149
106.4995 -0.053
106.5298 0.005
106.5601 0.377
106.5904 -0.346
106.6206 0.338
106.6509 0.085
106.6812 0.041
106.7115 0.101
106.7418 0.109
106.7720 0.221
106.8023 0.177
106.8326 0.186
106.8629 0.351
106.8932 -0.056
106.9234 -0.411
106.9537 -0.001
106.9840 0.097
107.0143 0.247
107.0445 0.085
107.0748 0.027
107.1051 0.074
107.1354 0.121
107.1657 0.272
107.1959 0.163
107.2262 -0.102
107.2565 -0.210
107.2868 0.150
107.3171 0.251
107.3473 0.195
107.3776 0.192
107.4079 0.137
107.4382 0.134
107.4684 0.184
107.4987 0.286
107.5290 0.023
107.5593 0.126
107.5896 0.437
107.6198 0.123
107.6501 0.278
107.6804 0.069
107.7107 0.172
107.7410 0.016
107.7712 -0.088
107.8015 0.276
107.8318 0.068
107.8621 -0.191
107.8923 0.070
107.9226 0.071
107.9529 0.124
107.9832 -0.134
108.0135 0.180
108.0437 0.130
108.0740 -0.337
108.1043 -0.181
108.1346 -0.026
108.1649 0.026
108.1951 -0.026
108.2254 0.130
108.2557 0.131
108.2860 -0.077
108.3163 -0.389
108.3465 0.021
108.3768 0.274
108.4071 0.267
108.4374 0.000
108.4676 -0.006
108.4979 0.040
108.5282 0.243
108.5585 -0.023
108.5888 0.023
108.6190 -0.034
108.6493 0.117
108.6796 -0.148
108.7099 0.213
108.7402 -0.104
108.7704 -0.472
108.8007 0.201
108.8310 -0.011
108.8613 -0.118
108.8915 -0.173
108.9218 0.032
108.9521 0.395
108.9824 0.132
109.0127 0.182
109.0429 -0.393
109.0732 0.075
109.1035 0.073
109.1338 -0.240
109.1641 0.020
109.1943 -0.033
109.2246 0.071
109.2549 0.019
109.2852 0.227
109.3154 -0.137
109.3457 0.020
109.3760 0.073
109.4063 -0.134
109.4366 -0.237
109.4668 -0.079
109.4971 0.027
109.5274 0.290
109.5577 -0.176
109.5880 -0.070
109.6182 0.142
109.6485 -0.168
109.6788 0.357
109.7091 -0.161
109.7393 0.104
109.7696 0.004
109.7999 -0.200
109.8302 0.117
109.8605 0.122
109.8907 0.439
109.9210 -0.128
109.9513 -0.227
109.9816 -0.179
110.0119 0.025
110.0421 0.229
110.0724 0.590
110.1027 0.118
110.1330 0.219
110.1632 0.528
110.1935 0.421
110.2238 0.106
110.2541 0.156
110.2844 -0.158
110.3146 -0.160
110.3449 0.463
110.3752 0.097
110.4055 0.721
110.4358 0.095
110.4660 -0.270
110.4963 0.459
110.5266 -0.114
110.5569 0.198
110.5871 0.407
110.6174 -0.061
110.6477 0.304
110.6780 0.566
110.7083 0.046
110.7385 0.048
110.7688 0.831
110.7991 0.208
110.8294 0.002
110.8597 -0.048
110.8899 0.007
110.9202 0.010
110.9505 -0.038
110.9808 0.121
111.0110 0.229
111.0413 -0.027
111.0716 0.185
111.1019 -0.175
111.1322 -0.118
111.1624 0.095
111.1927 0.205
111.2230 0.314
111.2533 -0.045
111.2836 0.222
111.3138 0.280
111.3441 0.182
111.3744 -0.176
111.4047 0.248
111.4350 0.098
111.4652 0.106
111.4955 0.165
111.5258 0.017
111.5561 -0.027
111.5863 0.242
111.6166 0.094
111.6469 0.207
111.6772 0.320
111.7075 0.277
111.7377 -0.130
111.7680 0.297
111.7983 0.411
111.8286 -0.100
111.8589 -0.193
111.8891 -0.096
111.9194 0.054
111.9497 -0.160
111.9800 -0.009
112.0102 -0.067
112.0405 -0.333
112.0708 0.392
112.1011 0.022
112.1314 0.330
112.1616 0.066
112.1919 0.270
112.2222 0.006
112.2525 -0.154
112.2828 0.051
112.3130 0.100
112.3433 -0.163
112.3736 -0.114
112.4039 0.405
112.4341 0.194
112.4644 0.036
112.4947 -0.018
112.5250 0.450
112.5553 0.032
112.5855 0.083
112.6158 -0.230
112.6461 -0.127
112.6764 0.080
112.7067 0.183
112.7369 0.130
112.7672 0.181
112.7975 0.285
112.8278 0.233
112.8580 -0.028
112.8883 -0.183
112.9186 -0.027
112.9489 -0.130
112.9792 -0.077
113.0094 0.133
113.0397 0.239
113.0700 0.293
113.1003 -0.070
113.1306 -0.172
113.1608 0.247
113.1911 0.146
113.2214 0.045
113.2517 -0.056
113.2819 -0.105
113.3122 -0.205
113.3425 -0.205
113.3728 0.107
113.4031 0.472
113.4333 -0.048
113.4636 -0.204
113.4939 -0.307
113.5242 0.156
113.5545 0.151
113.5847 -0.115
113.6150 -0.016
113.6453 0.136
113.6756 0.288
113.7058 -0.133
113.7361 0.124
113.7664 0.120
113.7967 -0.352
113.8270 0.322
113.8572 0.319
113.8875 0.160
113.9178 0.470
113.9481 -0.105
113.9784 0.309
114.0086 0.099
114.0389 -0.215
114.0692 -0.216
114.0995 -0.119
114.1298 0.187
114.1600 -0.028
114.1903 -0.138
114.2206 0.064
114.2509 -0.514
114.2811 0.001
114.3114 0.257
114.3417 -0.373
114.3720 0.039
114.4023 0.034
114.4325 0.030
114.4628 0.026
114.4931 0.283
114.5234 0.123
114.5537 -0.141
114.5839 0.169
114.6142 0.166
114.6445 -0.097
114.6748 -0.151
114.7050 -0.101
114.7353 0.105
114.7656 0.052
114.7959 0.311
114.8262 -0.003
114.8564 0.205
114.8867 0.048
114.9170 0.048
114.9473 0.464
114.9776 -0.109
115.0078 -0.264
115.0381 0.257
115.0684 -0.055
115.0987 -0.626
115.1289 -0.005
115.1592 0.303
115.1895 -0.013
115.2198 0.245
115.2501 -0.279
115.2803 -0.074
115.3106 0.184
115.3409 -0.235
115.3712 -0.237
115.4015 -0.087
115.4317 0.062
115.4620 0.108
115.4923 0.050
115.5226 -0.373
115.5528 -0.014
115.5831 0.397
115.6134 0.548
115.6437 0.179
115.6740 0.122
115.7042 0.065
115.7345 0.269
115.7648 0.265
115.7951 0.470
115.8254 0.206
115.8556 0.255
115.8859 0.148
115.9162 0.197
115.9465 0.507
115.9767 0.869
116.0070 0.659
116.0373 0.084
116.0676 0.708
116.0979 0.133
116.1281 0.393
116.1584 0.548
116.1887 0.287
116.2190 0.599
116.2493 0.703
116.2795 0.182
116.3098 0.599
116.3401 0.235
116.3704 0.028
116.4006 0.029
116.4309 0.343
116.4612 0.188
116.4915 0.190
116.5218 0.296
116.5520 0.507
116.5823 0.197
116.6126 0.408
116.6429 0.203
116.6732 -0.003
116.7034 0.366
116.7337 0.630
116.7640 -0.148
116.7943 0.221
116.8245 0.330
116.8548 0.178
116.8851 0.339
116.9154 0.032
116.9457 -0.483
116.9759 0.043
117.0062 0.466
117.0365 -0.101
117.0668 0.270
117.0971 0.537
117.1273 0.127
117.1576 0.291
117.1879 0.194
117.2182 0.253
117.2485 0.053
117.2787 0.321
117.3090 -0.243
117.3393 -0.235
117.3696 0.178
117.3998 0.383
117.4301 0.224
117.4604 0.064
117.4907 0.374
117.5210 0.215
117.5512 -0.152
117.5815 0.315
117.6118 -0.155
117.6421 0.260
117.6724 0.415
117.7026 -0.212
117.7329 0.048
117.7632 0.308
117.7935 0.047
117.8237 0.359
117.8540 -0.005
117.8843 -0.109
117.9146 0.048
117.9449 0.101
117.9751 0.206
118.0054 -0.157
118.0357 0.209
118.0660 -0.154
118.0963 0.109
118.1265 0.059
118.1568 -0.043
118.1871 0.168
118.2174 -0.141
118.2476 -0.034
118.2779 -0.082
118.3082 -0.235
118.3385 0.020
118.3688 -0.037
118.3990 0.114
118.4293 0.526
118.4596 0.574
118.4899 -0.055
118.5202 -0.059
118.5504 0.041
118.5807 0.142
118.6110 -0.070
118.6413 -0.177
118.6715 0.289
118.7018 -0.182
118.7321 -0.341
118.7624 0.127
118.7927 0.230
118.8229 -0.083
118.8532 0.646
118.8835 0.437
118.9138 -0.084
118.9441 -0.031
118.9743 0.282
119.0046 -0.030
119.0349 -0.133
119.0652 -0.132
119.0954 0.078
119.1257 0.236
119.1560 -0.074
119.1863 -0.176
119.2166 0.035
119.2468 0.454
119.2771 0.041
119.3074 -0.321
119.3377 -0.005
119.3680 0.259
119.3982 -0.205
119.4285 0.007
119.4588 0.272
119.4891 0.016
119.5193 -0.135
119.5496 0.235
119.5799 0.344
119.6102 0.194
119.6405 0.200
119.6707 0.154
119.7010 -0.048
119.7313 -0.198
119.7616 -0.035
119.7919 0.285
119.8221 -0.020
119.8524 -0.013
119.8827 -0.213
119.9130 -0.309
119.9433 0.091
119.9735 -0.289
120.0038 0.000
