'Id: "" Comment: "" Operator: "Lab Manager" Anode: "Cu" Scantype: "Locked Coupled" TimePerStep: "19.2" X: "9999" Y: "9999" Z: "9999" 
10.0015 0.000
10.0318 -0.254
10.0620 0.950
10.0923 -0.032
10.1226 -0.546
10.1529 0.129
10.1832 -0.029
10.2134 -0.604
10.2437 0.697
10.2740 0.279
10.3043 0.279
10.3346 0.955
10.3648 0.590
10.3951 0.694
10.4254 0.070
10.4557 1.476
10.4859 0.279
10.5162 -0.241
10.5465 0.073
10.5768 0.595
10.6071 0.493
10.6373 -0.182
10.6676 -0.284
10.6979 -0.438
10.7282 1.492
10.7585 0.088
10.7887 1.029
10.8190 0.251
10.8493 -0.318
10.8796 0.311
10.9098 0.628
10.9401 0.893
10.9704 0.377
11.0007 -0.504
11.0310 -0.238
11.0612 0.028
11.0915 -0.071
11.1218 0.352
11.1521 0.462
11.1824 0.469
11.2126 -0.045
11.2429 0.535
11.2732 0.125
11.3035 0.862
11.3337 0.557
11.3640 0.617
11.3943 0.626
11.4246 0.790
11.4549 0.539
11.4851 0.340
11.5154 -0.016
11.5457 0.462
11.5760 0.160
11.6063 1.003
11.6365 0.493
11.6668 0.139
11.6971 0.149
11.7274 0.785
11.7577 -0.453
11.7879 -0.390
11.8182 0.129
11.8485 0.700
11.8788 0.282
11.9090 0.124
11.9393 0.071
11.9696 0.227
11.9999 -0.295
12.0302 -0.764
12.0604 0.434
12.0907 0.330
12.1210 0.122
12.1513 0.696
12.1816 -0.137
12.2118 -0.031
12.2421 0.179
12.2724 -0.184
12.3027 0.755
12.3329 1.434
12.3632 -0.073
12.3935 -0.487
12.4238 0.141
12.4541 0.300
12.4843 0.772
12.5146 -0.109
12.5449 0.363
12.5752 0.524
12.6055 0.476
12.6357 -0.196
12.6660 0.382
12.6963 1.064
12.7266 0.132
12.7568 0.450
12.7871 0.040
12.8174 -0.215
12.8477 0.834
12.8780 0.684
12.9082 0.327
12.9385 0.125
12.9688 -0.700
12.9991 0.089
13.0294 -0.372
13.0596 -0.260
13.0899 0.530
13.1202 0.174
13.1505 -0.077
13.1807 0.453
13.2110 0.358
13.2413 0.472
13.2716 -0.039
13.3019 0.493
13.3321 0.191
13.3624 -0.319
13.3927 0.785
13.4230 -1.183
13.4533 -0.442
13.4835 1.223
13.5138 0.440
13.5441 0.595
13.5744 0.125
13.6046 -0.189
13.6349 0.488
13.6652 1.320
13.6955 0.122
13.7258 -0.294
13.7560 0.956
13.7863 -0.241
13.8166 -0.032
13.8469 1.219
13.8772 0.699
13.9074 0.232
13.9377 0.130
13.9680 0.496
13.9983 0.186
14.0285 1.439
14.0588 -0.069
14.0891 0.559
14.1194 0.354
14.1497 0.097
14.1799 -0.003
14.2102 -0.572
14.2405 0.057
14.2708 0.269
14.3011 0.430
14.3313 0.331
14.3616 -0.237
14.3919 0.445
14.4222 0.398
14.4524 0.873
14.4827 0.098
14.5130 0.208
14.5433 0.214
14.5736 0.221
14.6038 -0.397
14.6341 0.652
14.6644 0.503
14.6947 0.198
14.7250 0.154
14.7552 0.006
14.7855 0.119
14.8158 0.336
14.8461 -0.020
14.8764 -0.219
14.9066 -0.209
14.9369 0.165
14.9672 0.800
14.9975 0.290
15.0277 0.092
15.0580 0.675
15.0883 -0.095
15.1186 0.489
15.1489 -0.593
15.1791 0.877
15.2094 0.056
15.2397 0.224
15.2700 0.393
15.3003 0.562
15.3305 0.054
15.3608 0.901
15.3911 0.602
15.4214 0.251
15.4516 -0.308
15.4819 -0.345
15.5122 0.320
15.5425 0.934
15.5728 0.246
15.6030 -0.182
15.6333 0.068
15.6636 0.527
15.6939 0.256
15.7242 0.351
15.7544 0.081
15.7847 0.332
15.8150 0.375
15.8453 -0.728
15.8755 0.514
15.9058 0.401
15.9361 -0.284
15.9664 0.490
15.9967 0.222
16.0269 0.736
16.0572 0.156
16.0875 0.670
16.1178 0.142
16.1481 0.605
16.1783 0.599
16.2086 -0.344
16.2389 -0.037
16.2692 0.583
16.2994 0.265
16.3297 0.312
16.3600 0.464
16.3903 0.564
16.4206 0.560
16.4508 0.556
16.4811 0.032
16.5114 1.019
16.5417 0.443
16.5720 0.075
16.6022 -0.135
16.6325 0.123
16.6628 0.746
16.6931 0.067
16.7233 0.326
16.7536 -0.040
16.7839 0.376
16.8142 0.584
16.8445 0.219
16.8747 0.010
16.9050 -0.146
16.9353 -0.302
16.9656 0.167
16.9959 1.158
17.0261 0.065
17.0564 0.691
17.0867 0.016
17.1170 -0.659
17.1472 0.905
17.1775 0.230
17.2078 0.598
17.2381 0.132
17.2684 0.187
17.2986 0.503
17.3289 -0.535
17.3592 0.823
17.3895 0.202
17.4198 0.414
17.4500 -0.154
17.4803 0.111
17.5106 -0.040
17.5409 -0.191
17.5712 0.023
17.6014 -0.127
17.6317 -0.381
17.6620 0.719
17.6923 0.204
17.7225 0.420
17.7528 -0.042
17.7831 0.590
17.8134 -0.131
17.8437 0.606
17.8739 0.406
17.9042 0.154
17.9345 0.683
17.9648 0.380
17.9951 0.389
18.0253 0.502
18.0556 -0.321
18.0859 -0.780
18.1162 0.366
18.1464 0.471
18.1767 0.056
18.2070 1.308
18.2373 0.163
18.2676 0.322
18.2978 0.532
18.3281 0.066
18.3584 0.173
18.3887 0.541
18.4190 0.388
18.4492 -0.234
18.4795 -0.543
18.5098 0.347
18.5401 0.299
18.5703 0.824
18.6006 0.204
18.6309 -0.468
18.6612 -0.152
18.6915 0.059
18.7217 -0.041
18.7520 0.275
18.7823 0.539
18.8126 0.647
18.8429 0.287
18.8731 0.344
18.9034 0.714
18.9337 0.511
18.9640 0.047
18.9942 -0.884
19.0245 0.000
19.0548 0.625
19.0851 0.521
19.1154 0.052
19.1456 -0.364
19.1759 0.522
19.2062 -0.154
19.2365 0.733
19.2668 0.526
19.2970 0.163
19.3273 -0.252
19.3576 1.053
19.3879 0.013
19.4181 0.433
19.4484 1.009
19.4787 0.439
19.5090 -0.183
19.5393 -0.648
19.5695 0.606
19.5998 1.131
19.6301 0.250
19.6604 0.047
19.6907 0.312
19.7209 0.317
19.7512 0.427
19.7815 0.954
19.8118 0.178
19.8420 -0.284
19.8723 1.285
19.9026 -0.427
19.9329 0.101
19.9632 0.733
19.9934 0.428
20.0237 0.019
20.0540 -0.546
20.0843 0.022
20.1146 0.746
20.1448 -0.717
20.1751 0.529
20.2054 0.264
20.2357 0.104
20.2659 0.048
20.2962 0.410
20.3265 0.146
20.3568 0.195
20.3871 0.401
20.4173 0.086
20.4476 -0.385
20.4779 0.238
20.5082 -0.180
20.5385 -0.338
20.5687 -0.444
20.5990 1.013
20.6293 0.439
20.6596 -0.083
20.6899 0.281
20.7201 0.332
20.7504 0.280
20.7807 -0.345
20.8110 0.228
20.8412 0.541
20.8715 1.531
20.9018 0.439
20.9321 -0.029
20.9624 0.598
20.9926 0.287
21.0229 0.705
21.0532 0.395
21.0835 -0.227
21.1138 0.192
21.1440 0.091
21.1743 -0.427
21.2046 0.462
21.2349 -0.003
21.2651 -0.468
21.2954 0.056
21.3257 0.058
21.3560 0.374
21.3863 0.846
21.4165 0.380
21.4468 -0.137
21.4771 0.180
21.5074 0.236
21.5377 0.292
21.5679 0.609
21.5982 0.719
21.6285 -0.110
21.6588 1.354
21.6890 -0.203
21.7193 0.637
21.7496 0.018
21.7799 0.024
21.8102 0.083
21.8404 0.246
21.8707 -0.215
21.9010 -0.260
21.9313 0.008
21.9616 0.537
21.9918 0.702
22.0221 0.033
22.0524 0.250
22.0827 -0.053
22.1129 -0.461
22.1432 0.226
22.1735 -0.650
22.2038 -0.189
22.2341 0.221
22.2643 0.057
22.2946 -0.210
22.3249 0.304
22.3552 0.350
22.3855 0.292
22.4157 0.443
22.4460 0.593
22.4763 -0.141
22.5066 1.000
22.5368 -0.047
22.5671 -0.364
22.5974 0.101
22.6277 0.305
22.6580 -0.845
22.6882 0.610
22.7185 -0.800
22.7488 -0.074
22.7791 -0.494
22.8094 0.125
22.8396 0.380
22.8699 -0.043
22.9002 0.629
22.9305 0.520
22.9607 -0.110
22.9910 0.146
23.0213 0.454
23.0516 -0.071
23.0819 0.290
23.1121 0.182
23.1424 -0.238
23.1727 0.384
23.2030 0.850
23.2333 -0.507
23.2635 -0.301
23.2938 -0.043
23.3241 -0.357
23.3544 0.110
23.3846 0.057
23.4149 -0.257
23.4452 0.107
23.4755 0.419
23.5058 -0.207
23.5360 1.095
23.5663 0.106
23.5966 -0.362
23.6269 0.368
23.6572 -0.309
23.6874 0.943
23.7177 -0.098
23.7480 0.060
23.7783 -0.094
23.8086 -0.196
23.8388 0.692
23.8691 -0.243
23.8994 0.333
23.9297 -0.289
23.9599 -0.546
23.9902 0.339
24.0205 0.703
24.0508 -0.287
24.0811 0.234
24.1113 0.338
24.1416 -0.339
24.1719 0.339
24.2022 -0.285
24.2325 0.654
24.2627 0.134
24.2930 0.136
24.3233 0.242
24.3536 0.401
24.3838 0.611
24.4141 -0.063
24.4444 0.148
24.4747 0.464
24.5050 -0.574
24.5352 0.002
24.5655 0.527
24.5958 -0.042
24.6261 -0.298
24.6564 0.228
24.6866 -0.027
24.7169 0.499
24.7472 -0.590
24.7775 -0.063
24.8077 0.203
24.8380 0.314
24.8683 0.216
24.8986 0.119
24.9289 1.011
24.9591 0.133
24.9894 0.922
25.0197 0.773
25.0500 0.260
25.0803 0.112
25.1105 0.017
25.1408 0.494
25.1711 -0.330
25.2014 -0.321
25.2316 -0.229
25.2619 -0.242
25.2922 0.267
25.3225 0.412
25.3528 0.765
25.3830 0.441
25.4133 0.691
25.4436 0.367
25.4739 0.461
25.5042 0.347
25.5344 0.337
25.5647 0.431
25.5950 0.265
25.6253 -0.004
25.6555 -0.430
25.6858 0.082
25.7161 1.376
25.7464 -0.611
25.7767 -0.307
25.8069 -0.419
25.8372 0.720
25.8675 -0.225
25.8978 0.914
25.9281 -0.603
25.9583 0.328
25.9886 0.947
26.0189 0.628
26.0492 0.154
26.0794 -0.112
26.1097 -0.638
26.1400 0.346
26.1703 0.186
26.2006 0.442
26.2308 -0.031
26.2611 0.121
26.2914 0.013
26.3217 -0.147
26.3520 0.423
26.3822 -0.153
26.4125 -0.572
26.4428 0.199
26.4731 0.137
26.5034 0.544
26.5336 0.326
26.5639 -0.048
26.5942 0.776
26.6245 0.455
26.6547 0.238
26.6850 0.021
26.7153 0.169
26.7456 -0.411
26.7759 0.050
26.8061 0.094
26.8364 -0.329
26.8667 0.081
26.8970 -0.030
26.9273 0.432
26.9575 -0.147
26.9878 0.577
27.0181 -0.106
27.0484 -0.111
27.0786 0.196
27.1089 0.139
27.1392 -0.022
27.1695 -0.130
27.1998 0.231
27.2300 0.695
27.2603 0.171
27.2906 0.585
27.3209 -0.252
27.3512 -0.255
27.3814 -0.205
27.4117 -0.520
27.4420 0.248
27.4723 0.652
27.5025 0.431
27.5328 0.263
27.5631 0.355
27.5934 0.499
27.6237 0.540
27.6539 0.529
27.6842 0.257
27.7145 0.455
27.7448 0.080
27.7751 0.538
27.8053 0.007
27.8356 0.206
27.8659 0.353
27.8962 0.239
27.9264 0.439
27.9567 -0.299
27.9870 -0.047
28.0173 0.101
28.0476 0.093
28.0778 0.137
28.1081 0.807
28.1384 0.174
28.1687 0.897
28.1990 -0.256
28.2292 0.831
28.2595 -0.269
28.2898 -0.795
28.3201 0.709
28.3503 0.131
28.3806 0.178
28.4109 -0.400
28.4412 1.001
28.4715 0.268
28.5017 0.732
28.5320 0.937
28.5623 0.725
28.5926 0.357
28.6229 1.030
28.6531 0.090
28.6834 0.660
28.7137 0.658
28.7440 0.864
28.7742 -0.076
28.8045 -0.598
28.8348 0.097
28.8651 0.532
28.8954 0.185
28.9256 0.360
28.9559 0.170
28.9862 0.033
29.0165 -0.052
29.0468 -0.397
29.0770 -0.169
29.1073 0.267
29.1376 0.339
29.1679 -0.318
29.1981 -0.089
29.2284 -0.537
29.2587 0.369
29.2890 0.182
29.3193 0.463
29.3495 -0.192
29.3798 0.611
29.4101 -0.305
29.4404 -0.022
29.4707 -0.468
29.5009 0.073
29.5312 -0.324
29.5615 0.269
29.5918 -1.013
29.6221 0.154
29.6523 -0.086
29.6826 -0.325
29.7129 -0.356
29.7432 0.082
29.7734 0.208
29.8037 0.960
29.8340 -0.320
29.8643 0.015
29.8946 -0.170
29.9248 -0.199
29.9551 0.397
29.9854 0.317
30.0157 0.601
30.0460 -0.052
30.0762 -0.340
30.1065 1.143
30.1368 0.595
30.1671 -0.109
30.1973 0.906
30.2276 0.151
30.2579 0.124
30.2882 0.671
30.3185 -0.240
30.3487 0.620
30.3790 0.543
30.4093 0.466
30.4396 0.442
30.4699 -0.572
30.5001 1.070
30.5304 0.630
30.5607 0.971
30.5910 0.999
30.6212 1.341
30.6515 1.370
30.6818 3.066
30.7121 2.158
30.7424 1.563
30.7726 1.645
30.8029 2.770
30.8332 1.967
30.8635 3.404
30.8938 3.696
30.9240 2.582
30.9543 3.655
30.9846 5.197
31.0149 5.334
31.0451 6.252
31.0754 5.451
31.1057 7.151
31.1360 8.747
31.1663 8.051
31.1965 9.908
31.2268 9.421
31.2571 12.320
31.2874 14.281
31.3177 15.774
31.3479 17.945
31.3782 21.417
31.4085 25.724
31.4388 25.916
31.4690 28.973
31.4993 32.342
31.5296 37.222
31.5599 41.270
31.5902 42.869
31.6204 48.896
31.6507 45.444
31.6810 47.878
31.7113 45.416
31.7416 41.027
31.7718 38.617
31.8021 30.271
31.8324 30.206
31.8627 25.037
31.8929 21.951
31.9232 19.074
31.9535 16.094
31.9838 14.051
32.0141 12.164
32.0443 11.476
32.0746 8.913
32.1049 9.995
32.1352 8.579
32.1655 8.204
32.1957 4.600
32.2260 5.372
32.2563 5.310
32.2866 5.405
32.3169 3.000
32.3471 3.148
32.3774 3.139
32.4077 2.245
32.4380 3.644
32.4682 1.448
32.4985 0.191
32.5288 1.746
32.5591 1.427
32.5894 1.680
32.6196 1.778
32.6499 2.032
32.6802 0.776
32.7105 0.614
32.7408 -0.225
32.7710 0.083
32.8013 0.963
32.8316 0.750
32.8619 1.162
32.8921 0.012
32.9224 0.060
32.9527 0.473
32.9830 0.001
33.0133 0.050
33.0435 -0.266
33.0738 -0.112
33.1041 -0.531
33.1344 0.034
33.1647 -0.390
33.1949 0.332
33.2252 0.637
33.2555 0.631
33.2858 -0.522
33.3160 0.514
33.3463 -0.273
33.3766 0.450
33.4069 0.809
33.4372 1.117
33.4674 0.903
33.4977 0.899
33.5280 1.675
33.5583 1.723
33.5886 2.292
33.6188 1.976
33.6491 2.441
33.6794 1.188
33.7097 2.487
33.7399 1.860
33.7702 2.899
33.8005 3.313
33.8308 3.624
33.8611 4.247
33.8913 4.923
33.9216 6.536
33.9519 6.900
33.9822 7.160
34.0125 9.711
34.0427 12.003
34.0730 14.764
34.1033 17.056
34.1336 19.192
34.1638 23.203
34.1941 33.100
34.2244 38.205
34.2547 48.519
34.2850 53.730
34.3152 56.753
34.3455 53.838
34.3758 48.945
34.4061 43.635
34.4364 37.649
34.4666 26.298
34.4969 23.541
34.5272 21.201
34.5575 16.206
34.5877 11.887
34.6180 9.027
34.6483 9.865
34.6786 7.475
34.7089 5.397
34.7391 5.715
34.7694 5.304
34.7997 4.633
34.8300 5.785
34.8603 5.636
34.8905 4.445
34.9208 5.650
34.9511 3.886
34.9814 3.998
35.0116 4.058
35.0419 3.650
35.0722 3.918
35.1025 3.979
35.1328 3.259
35.1630 3.945
35.1933 4.163
35.2236 5.162
35.2539 5.276
35.2842 5.547
35.3144 5.661
35.3447 6.870
35.3750 6.516
35.4053 6.267
35.4356 6.070
35.4658 8.269
35.4961 8.334
35.5264 9.856
35.5567 10.285
35.5869 11.131
35.6172 10.259
35.6475 13.032
35.6778 16.015
35.7081 17.591
35.7383 19.532
35.7686 21.682
35.7989 22.165
35.8292 25.148
35.8595 29.434
35.8897 34.658
35.9200 39.829
35.9503 41.876
35.9806 49.757
36.0108 54.461
36.0411 60.519
36.0714 67.358
36.1017 71.282
36.1320 72.601
36.1622 70.014
36.1925 69.303
36.2228 66.508
36.2531 62.881
36.2834 57.951
36.3136 53.595
36.3439 44.447
36.3742 41.394
36.4045 34.434
36.4347 28.568
36.4650 25.776
36.4953 21.942
36.5256 19.671
36.5559 16.619
36.5861 14.921
36.6164 12.859
36.6467 11.318
36.6770 10.663
36.7073 8.185
36.7375 8.519
36.7678 7.969
36.7981 7.731
36.8284 6.036
36.8586 5.226
36.8889 4.155
36.9192 4.387
36.9495 4.255
36.9798 3.550
37.0100 4.096
37.0403 2.193
37.0706 2.791
37.1009 3.598
37.1312 2.321
37.1614 2.347
37.1917 3.832
37.2220 2.608
37.2523 2.062
37.2825 1.099
37.3128 1.543
37.3431 0.841
37.3734 1.181
37.4037 0.584
37.4339 0.872
37.4642 0.796
37.4945 0.304
37.5248 1.427
37.5551 0.779
37.5853 0.704
37.6156 1.150
37.6459 1.076
37.6762 0.064
37.7064 -0.426
37.7367 0.281
37.7670 0.468
37.7973 0.760
37.8276 0.583
37.8578 0.719
37.8881 1.063
37.9184 -0.155
37.9487 -0.539
37.9790 1.004
38.0092 -0.578
38.0395 1.122
38.0698 0.739
38.1001 -0.009
38.1304 0.598
38.1606 0.528
38.1909 0.614
38.2212 -0.132
38.2515 -0.410
38.2817 -0.330
38.3120 -0.042
38.3423 -0.535
38.3726 0.535
38.4029 0.512
38.4331 0.228
38.4634 0.570
38.4937 0.235
38.5240 -0.152
38.5543 0.034
38.5845 0.325
38.6148 -0.114
38.6451 0.073
38.6754 1.042
38.7056 0.135
38.7359 0.063
38.7662 0.355
38.7965 0.178
38.8268 -0.310
38.8570 -0.069
38.8873 -0.141
38.9176 -0.368
38.9479 -0.804
38.9782 0.531
39.0084 -0.321
39.0387 -0.026
39.0690 -0.357
39.0993 -0.143
39.1295 0.018
39.1598 0.180
39.1901 0.291
39.2204 0.089
39.2507 0.043
39.2809 -0.263
39.3112 0.578
39.3415 0.064
39.3718 -0.084
39.4021 0.132
39.4323 -0.016
39.4626 0.513
39.4929 0.001
39.5232 -0.043
39.5534 -0.034
39.5837 0.288
39.6140 0.194
39.6443 -0.005
39.6746 0.891
39.7048 -0.193
39.7351 0.130
39.7654 -0.432
39.7957 0.673
39.8260 -0.045
39.8562 -0.189
39.8865 0.135
39.9168 0.824
39.9471 0.159
39.9773 -0.453
40.0076 0.445
40.0379 -0.010
40.0682 -0.153
40.0985 -0.192
40.1287 0.031
40.1590 0.149
40.1893 0.267
40.2196 0.386
40.2499 -0.432
40.2801 0.833
40.3104 -0.141
40.3407 -0.074
40.3710 0.411
40.4012 0.375
40.4315 -0.234
40.4618 -0.321
40.4921 -0.056
40.5224 0.052
40.5526 -0.308
40.5829 0.478
40.6132 0.588
40.6435 1.218
40.6738 0.338
40.7040 0.813
40.7343 0.298
40.7646 0.097
40.7949 0.520
40.8251 0.371
40.8554 0.586
40.8857 0.229
40.9160 -0.024
40.9463 0.036
40.9765 -0.112
41.0068 0.730
41.0371 0.374
41.0674 0.592
41.0977 0.184
41.1279 -0.171
41.1582 0.568
41.1885 0.317
41.2188 -0.402
41.2491 0.130
41.2793 -0.224
41.3096 -0.265
41.3399 -0.514
41.3702 0.643
41.4004 0.394
41.4307 -0.323
41.4610 0.418
41.4913 0.066
41.5216 0.235
41.5518 -0.064
41.5821 -0.416
41.6124 0.106
41.6427 -0.258
41.6730 0.368
41.7032 0.265
41.7335 -0.358
41.7638 0.216
41.7941 -0.042
41.8243 0.065
41.8546 -0.245
41.8849 -0.295
41.9152 0.061
41.9455 0.208
41.9757 0.512
42.0060 0.503
42.0363 -0.078
42.0666 0.331
42.0969 0.271
42.1271 -0.205
42.1574 0.412
42.1877 0.145
42.2180 0.242
42.2482 0.080
42.2785 0.125
42.3088 -0.037
42.3391 0.374
42.3694 -0.517
42.3996 -0.053
42.4299 0.306
42.4602 -0.480
42.4905 -0.119
42.5208 0.137
42.5510 0.081
42.5813 0.181
42.6116 0.021
42.6419 0.799
42.6721 0.015
42.7024 -0.300
42.7327 0.479
42.7630 -0.096
42.7933 0.162
42.8235 0.056
42.8538 0.628
42.8841 0.262
42.9144 -0.051
42.9447 0.000
42.9749 -0.469
43.0052 0.208
43.0355 -0.157
43.0658 -0.261
43.0960 0.000
43.1263 -0.832
43.1566 0.053
43.1869 0.261
43.2172 -0.363
43.2474 -0.213
43.2777 0.511
43.3080 0.454
43.3383 -0.645
43.3686 0.080
43.3988 -0.550
43.4291 0.592
43.4594 -0.297
43.4897 1.158
43.5199 -0.460
43.5502 0.057
43.5805 0.003
43.6108 -0.312
43.6411 -0.268
43.6713 0.193
43.7016 0.081
43.7319 -0.291
43.7622 0.067
43.7925 0.008
43.8227 0.574
43.8530 -0.369
43.8833 0.093
43.9136 -0.433
43.9439 -0.022
43.9741 -0.444
44.0044 0.385
44.0347 0.067
44.0650 -0.093
44.0952 0.111
44.1255 0.107
44.1558 0.312
44.1861 0.100
44.2164 0.357
44.2466 -0.167
44.2769 -0.065
44.3072 -0.276
44.3375 0.295
44.3678 0.501
44.3980 0.135
44.4283 0.238
44.4586 -0.128
44.4889 -0.494
44.5191 0.183
44.5494 0.391
44.5797 0.599
44.6100 -0.182
44.6403 0.547
44.6705 -0.442
44.7008 0.132
44.7311 0.393
44.7614 0.395
44.7917 -0.281
44.8219 0.346
44.8522 -0.641
44.8825 0.038
44.9128 0.197
44.9430 -0.321
44.9733 -0.694
45.0036 0.547
45.0339 -0.242
45.0642 0.375
45.0944 0.315
45.1247 -0.109
45.1550 0.093
45.1853 0.555
45.2156 -0.025
45.2458 0.229
45.2761 0.223
45.3064 0.165
45.3367 -0.101
45.3669 0.050
45.3972 0.409
45.4275 0.769
45.4578 -0.798
45.4881 -0.021
45.5183 -0.390
45.5486 0.064
45.5789 0.049
45.6092 0.242
45.6395 -0.137
45.6697 0.161
45.7000 -0.426
45.7303 -0.023
45.7606 0.952
45.7908 0.158
45.8211 0.093
45.8514 -0.337
45.8817 0.015
45.9120 0.263
45.9422 -0.270
45.9725 0.135
46.0028 -0.398
46.0331 0.164
46.0634 0.726
46.0936 0.402
46.1239 0.652
46.1542 0.173
46.1845 -0.410
46.2147 -0.055
46.2450 0.091
46.2753 0.498
46.3056 0.177
46.3359 1.366
46.3661 0.107
46.3964 0.203
46.4267 0.299
46.4570 0.916
46.4873 1.377
46.5175 0.380
46.5478 0.946
46.5781 0.835
46.6084 0.724
46.6386 0.874
46.6689 1.285
46.6992 0.706
46.7295 0.701
46.7598 1.685
46.7900 1.628
46.8203 1.623
46.8506 1.566
46.8809 2.135
46.9112 2.599
46.9414 3.221
46.9717 3.009
47.0020 2.693
47.0323 4.044
47.0626 4.510
47.0928 3.414
47.1231 5.026
47.1534 7.159
47.1837 7.470
47.2139 7.833
47.2442 9.394
47.2745 11.529
47.3048 12.205
47.3351 10.746
47.3653 13.246
47.3956 13.558
47.4259 14.079
47.4562 12.777
47.4865 13.559
47.5167 12.050
47.5470 12.207
47.5773 10.959
47.6076 11.117
47.6378 8.254
47.6681 8.882
47.6984 7.269
47.7287 6.230
47.7590 6.129
47.7892 3.685
47.8195 3.428
47.8498 3.275
47.8801 2.290
47.9104 2.710
47.9406 1.830
47.9709 2.303
48.0012 1.631
48.0315 1.272
48.0617 1.485
48.0920 1.179
48.1223 1.341
48.1526 0.722
48.1829 1.250
48.2131 0.110
48.2434 0.742
48.2737 0.594
48.3040 -0.180
48.3343 -0.068
48.3645 0.408
48.3948 0.625
48.4251 0.686
48.4554 0.122
48.4856 0.287
48.5159 0.088
48.5462 -0.111
48.5765 -0.049
48.6068 0.690
48.6370 -0.445
48.6673 -0.070
48.6976 0.097
48.7279 0.160
48.7582 0.275
48.7884 -0.130
48.8187 0.507
48.8490 -0.575
48.8793 0.219
48.9095 -0.342
48.9398 -0.224
48.9701 -0.106
49.0004 -0.300
49.0307 -0.338
49.0609 -0.117
49.0912 0.521
49.1215 0.587
49.1518 0.183
49.1821 -0.167
49.2123 0.107
49.2426 -0.087
49.2729 -0.073
49.3032 0.411
49.3334 -0.564
49.3637 0.285
49.3940 -0.064
49.4243 -0.049
49.4546 0.019
49.4848 0.296
49.5151 -0.521
49.5454 -0.035
49.5757 -0.123
49.6060 0.207
49.6362 -0.140
49.6665 0.242
49.6968 -0.209
49.7271 -0.242
49.7574 -0.536
49.7876 0.420
49.8179 -0.342
49.8482 -0.063
49.8785 -0.304
49.9087 0.061
49.9390 0.427
49.9693 0.011
49.9996 -0.144
50.0299 -0.091
50.0601 0.380
50.0904 0.694
50.1207 0.176
50.1510 -0.134
50.1813 0.493
50.2115 -0.181
50.2418 0.551
50.2721 0.242
50.3024 -0.014
50.3326 0.198
50.3629 0.046
50.3932 -0.575
50.4235 0.472
50.4538 -0.773
50.4840 -0.299
50.5143 0.115
50.5446 0.373
50.5749 0.579
50.6052 0.316
50.6354 -0.675
50.6657 0.209
50.6960 0.624
50.7263 0.102
50.7565 -0.002
50.7868 -0.055
50.8171 0.414
50.8474 0.309
50.8777 0.049
50.9079 0.154
50.9382 -0.002
50.9685 -0.053
50.9988 -0.260
51.0291 0.002
51.0593 0.681
51.0896 0.579
51.1199 0.373
51.1502 0.688
51.1804 0.326
51.2107 0.225
51.2410 0.228
51.2713 0.180
51.3016 0.027
51.3318 -0.229
51.3621 -0.277
51.3924 0.040
51.4227 0.826
51.4530 0.154
51.4832 0.264
51.5135 -0.095
51.5438 0.223
51.5741 0.229
51.6043 -0.494
51.6346 -0.180
51.6649 0.030
51.6952 0.136
51.7255 0.033
51.7557 0.035
51.7860 0.402
51.8163 0.145
51.8466 0.148
51.8769 -0.318
51.9071 0.675
51.9374 0.210
51.9677 0.005
51.9980 0.270
52.0282 -0.142
52.0585 0.540
52.0888 0.597
52.1191 0.029
52.1494 -0.070
52.1796 0.352
52.2099 -0.215
52.2402 0.625
52.2705 0.215
52.3008 0.378
52.3310 -0.032
52.3613 -0.285
52.3916 -0.129
52.4219 0.183
52.4521 -0.285
52.4824 -0.192
52.5127 0.265
52.5430 0.515
52.5733 0.140
52.6035 0.077
52.6338 0.275
52.6641 0.786
52.6944 0.360
52.7247 0.299
52.7549 0.133
52.7852 0.177
52.8155 1.106
52.8458 0.264
52.8761 0.568
52.9063 0.561
52.9366 0.188
52.9669 0.910
52.9972 0.643
53.0274 0.115
53.0577 0.317
53.0880 0.259
53.1183 0.305
53.1486 -0.066
53.1788 0.189
53.2091 0.340
53.2394 -0.030
53.2697 0.538
53.3000 0.169
53.3302 -0.304
53.3605 -0.213
53.3908 0.764
53.4211 0.386
53.4513 -0.199
53.4816 0.465
53.5119 0.193
53.5422 -0.131
53.5725 0.117
53.6027 -0.154
53.6330 0.095
53.6633 0.345
53.6936 0.334
53.7239 0.219
53.7541 -0.416
53.7844 -0.166
53.8147 0.291
53.8450 0.124
53.8752 0.218
53.9055 0.416
53.9358 0.042
53.9661 -0.906
53.9964 0.179
54.0266 0.118
54.0569 0.161
54.0872 -0.317
54.1175 -0.325
54.1478 0.130
54.1780 -0.197
54.2083 0.415
54.2386 -0.015
54.2689 0.076
54.2991 0.637
54.3294 0.312
54.3597 -0.326
54.3900 -0.390
54.4203 0.375
54.4505 0.149
54.4808 -0.284
54.5111 -0.092
54.5414 0.413
54.5717 0.241
54.6019 0.069
54.6322 0.523
54.6625 -0.065
54.6928 -0.028
54.7230 0.426
54.7533 0.152
54.7836 -0.071
54.8139 0.228
54.8442 0.058
54.8744 -0.216
54.9047 1.126
54.9350 -0.137
54.9653 0.684
54.9956 0.723
55.0258 -0.070
55.0561 0.283
55.0864 0.428
55.1167 -0.104
55.1469 0.145
55.1772 -0.386
55.2075 0.488
55.2378 0.270
55.2681 0.104
55.2983 -0.479
55.3286 0.084
55.3589 0.648
55.3892 0.743
55.4195 -0.047
55.4497 0.622
55.4800 1.655
55.5103 0.866
55.5406 0.494
55.5709 0.174
55.6011 1.833
55.6314 0.785
55.6617 1.351
55.6920 1.501
55.7222 0.765
55.7525 2.009
55.7828 2.472
55.8131 1.946
55.8434 2.670
55.8736 2.873
55.9039 3.598
55.9342 3.802
55.9645 3.277
55.9948 4.991
56.0250 4.727
56.0553 5.505
56.0856 6.075
56.1159 6.176
56.1461 6.798
56.1764 9.348
56.2067 9.346
56.2370 10.646
56.2673 11.009
56.2975 12.258
56.3278 12.673
56.3581 11.839
56.3884 16.005
56.4187 15.223
56.4489 18.035
56.4792 16.890
56.5095 18.661
56.5398 18.609
56.5700 15.798
56.6003 18.351
56.6306 13.821
56.6609 14.291
56.6912 12.002
56.7214 12.004
56.7517 10.496
56.7820 8.467
56.8123 6.699
56.8426 7.171
56.8728 5.143
56.9031 5.199
56.9334 5.515
56.9637 5.155
56.9939 4.065
57.0242 4.226
57.0545 3.554
57.0848 3.403
57.1151 2.106
57.1453 2.632
57.1756 2.638
57.2059 2.176
57.2362 0.932
57.2665 1.824
57.2967 1.414
57.3270 1.161
57.3573 0.856
57.3876 0.812
57.4178 0.767
57.4481 1.244
57.4784 0.471
57.5087 0.480
57.5390 0.697
57.5692 1.071
57.5995 0.091
57.6298 0.049
57.6601 0.736
57.6904 -0.088
57.7206 -0.754
57.7509 0.137
57.7812 0.507
57.8115 0.097
57.8417 0.155
57.8720 0.006
57.9023 -0.300
57.9326 0.176
57.9629 0.079
57.9931 0.139
58.0234 -0.062
58.0537 0.051
58.0840 -1.243
58.1143 0.589
58.1445 0.233
58.1748 -0.175
58.2051 0.147
58.2354 -0.156
58.2656 -0.406
58.2959 0.437
58.3262 0.239
58.3565 -0.062
58.3868 -0.156
58.4170 0.741
58.4473 0.180
58.4776 0.243
58.5079 -0.057
58.5382 -0.097
58.5684 -0.085
58.5987 0.084
58.6290 -0.424
58.6593 0.110
58.6896 -0.137
58.7198 0.033
58.7501 -0.317
58.7804 0.061
58.8107 -0.549
58.8409 0.195
58.8712 0.210
58.9015 -0.296
58.9318 0.553
58.9621 -0.161
58.9923 0.689
59.0226 0.028
59.0529 0.096
59.0832 -0.460
59.1135 0.130
59.1437 -0.321
59.1740 0.269
59.2043 0.339
59.2346 -0.008
59.2648 -0.094
59.2951 -0.075
59.3254 0.412
59.3557 0.327
59.3860 0.346
59.4162 -0.311
59.4465 -0.308
59.4768 -0.471
59.5071 0.409
59.5374 0.403
59.5676 -0.280
59.5979 0.548
59.6282 0.386
59.6585 -0.087
59.6887 -0.040
59.7190 0.008
59.7493 0.004
59.7796 -0.312
59.8099 -0.162
59.8401 0.198
59.8704 1.652
59.9007 -0.020
59.9310 0.132
59.9613 -0.028
59.9915 0.125
60.0218 0.538
60.0521 -0.403
60.0824 0.011
60.1126 0.268
60.1429 -0.151
60.1732 0.055
60.2035 -0.416
60.2338 -0.004
60.2640 0.668
60.2943 -0.169
60.3246 -0.174
60.3549 -0.178
60.3852 -1.015
60.4154 0.218
60.4457 -0.216
60.4760 0.132
60.5063 0.427
60.5365 -0.266
60.5668 -0.283
60.5971 0.170
60.6274 0.311
60.6577 0.764
60.6879 -0.345
60.7182 0.213
60.7485 0.459
60.7788 -0.181
60.8091 -0.091
60.8393 0.155
60.8696 0.350
60.8999 -0.184
60.9302 0.063
60.9604 0.362
60.9907 -0.275
61.0210 0.077
61.0513 0.117
61.0816 -0.416
61.1118 0.145
61.1421 0.602
61.1724 0.383
61.2027 0.372
61.2330 0.465
61.2632 0.507
61.2935 -0.076
61.3238 0.799
61.3541 0.269
61.3844 0.468
61.4146 -0.635
61.4449 0.189
61.4752 0.024
61.5055 -0.089
61.5357 0.164
61.5660 0.781
61.5963 0.200
61.6266 -0.484
61.6569 0.446
61.6871 -0.030
61.7174 0.797
61.7477 1.780
61.7780 0.784
61.8083 0.987
61.8385 1.033
61.8688 0.819
61.8991 1.960
61.9294 0.861
61.9596 2.628
61.9899 1.686
62.0202 1.525
62.0505 1.938
62.0808 1.987
62.1110 1.879
62.1413 1.824
62.1716 2.602
62.2019 1.349
62.2322 2.805
62.2624 3.428
62.2927 3.635
62.3230 4.258
62.3533 3.736
62.3835 5.453
62.4138 5.765
62.4441 7.119
62.4744 7.535
62.5047 6.754
62.5349 8.837
62.5652 10.087
62.5955 9.723
62.6258 12.693
62.6561 12.121
62.6863 14.206
62.7166 14.728
62.7469 14.991
62.7772 14.524
62.8074 13.797
62.8377 15.467
62.8680 13.074
62.8983 13.650
62.9286 12.924
62.9588 11.105
62.9891 9.963
63.0194 9.394
63.0497 8.669
63.0800 6.903
63.1102 6.023
63.1405 5.715
63.1708 6.242
63.2011 4.997
63.2313 3.857
63.2616 3.134
63.2919 2.724
63.3222 3.304
63.3525 2.946
63.3827 3.005
63.4130 2.180
63.4433 2.448
63.4736 1.570
63.5039 1.422
63.5341 1.587
63.5644 0.971
63.5947 0.719
63.6250 1.145
63.6552 0.998
63.6855 1.060
63.7158 0.914
63.7461 0.820
63.7764 0.413
63.8066 1.205
63.8369 0.591
63.8672 0.446
63.8975 0.354
63.9278 0.470
63.9580 0.273
63.9883 0.077
64.0186 0.506
64.0489 0.571
64.0791 0.897
64.1094 0.285
64.1397 0.142
64.1700 0.104
64.2003 0.118
64.2305 0.340
64.2608 0.355
64.2911 0.630
64.3214 -0.188
64.3517 -0.329
64.3819 0.083
64.4122 0.600
64.4425 0.232
64.4728 0.072
64.5031 -0.660
64.5333 0.795
64.5636 -0.145
64.5939 0.217
64.6242 0.631
64.6544 -0.516
64.6847 0.472
64.7150 0.262
64.7453 0.052
64.7756 0.208
64.8058 0.311
64.8361 0.571
64.8664 -0.054
64.8967 -0.210
64.9270 1.248
64.9572 -0.053
64.9875 0.000
65.0178 -0.364
65.0481 0.042
65.0783 0.239
65.1086 0.540
65.1389 0.842
65.1692 0.206
65.1995 0.352
65.2297 0.394
65.2600 0.280
65.2903 0.219
65.3206 0.366
65.3509 0.773
65.3811 -0.225
65.4114 -0.442
65.4417 0.270
65.4720 -0.112
65.5022 0.131
65.5325 0.114
65.5628 0.201
65.5931 1.018
65.6234 0.012
65.6536 0.101
65.6839 0.293
65.7142 -0.660
65.7445 0.367
65.7748 -0.325
65.8050 0.389
65.8353 0.739
65.8656 -0.108
65.8959 0.398
65.9261 0.906
65.9564 0.788
65.9867 2.077
66.0170 1.074
66.0473 1.270
66.0775 0.528
66.1078 1.610
66.1381 1.285
66.1684 1.847
66.1987 1.262
66.2289 1.980
66.2592 1.188
66.2895 2.375
66.3198 1.636
66.3500 1.365
66.3803 2.084
66.4106 1.450
66.4409 1.388
66.4712 1.014
66.5014 1.318
66.5317 2.351
66.5620 0.832
66.5923 0.928
66.6226 1.441
66.6528 0.704
66.6831 0.489
66.7134 1.054
66.7437 0.318
66.7739 0.832
66.8042 1.034
66.8345 1.080
66.8648 0.554
66.8951 0.235
66.9253 1.480
66.9556 0.798
66.9859 1.262
67.0162 0.840
67.0465 0.836
67.0767 1.978
67.1070 1.036
67.1373 1.241
67.1676 0.300
67.1978 2.641
67.2281 2.273
67.2584 2.219
67.2887 2.529
67.3190 2.943
67.3492 3.202
67.3795 2.471
67.4098 3.720
67.4401 3.875
67.4704 4.603
67.5006 4.915
67.5309 4.602
67.5612 5.331
67.5915 6.634
67.6218 5.801
67.6520 6.010
67.6823 7.990
67.7126 9.710
67.7429 9.347
67.7731 9.140
67.8034 11.069
67.8337 8.675
67.8640 11.594
67.8943 11.493
67.9245 9.985
67.9548 10.770
67.9851 10.825
68.0154 9.110
68.0457 7.604
68.0759 8.077
68.1062 7.977
68.1365 6.680
68.1668 6.997
68.1970 5.492
68.2273 7.216
68.2576 4.618
68.2879 3.946
68.3182 3.901
68.3484 4.063
68.3787 3.445
68.4090 2.358
68.4393 2.834
68.4696 3.519
68.4998 3.422
68.5301 3.222
68.5604 3.282
68.5907 3.291
68.6209 4.654
68.6512 3.100
68.6815 2.536
68.7118 2.910
68.7421 2.868
68.7723 4.180
68.8026 3.045
68.8329 4.513
68.8632 4.524
68.8935 4.587
68.9237 5.223
68.9540 4.350
68.9843 5.090
69.0146 3.748
69.0448 4.438
69.0751 3.929
69.1054 5.088
69.1357 4.215
69.1660 4.020
69.1962 3.617
69.2265 3.683
69.2568 2.864
69.2871 2.670
69.3174 2.841
69.3476 1.866
69.3779 2.141
69.4082 2.261
69.4385 1.599
69.4687 0.573
69.4990 0.850
69.5293 0.970
69.5596 0.622
69.5899 0.639
69.6201 0.083
69.6504 0.881
69.6807 0.170
69.7110 0.240
69.7413 0.622
69.7715 0.432
69.8018 0.086
69.8321 -0.155
69.8624 0.593
69.8926 0.873
69.9229 0.007
69.9532 -0.182
69.9835 0.515
70.0138 -0.037
70.0440 0.504
70.0743 -0.673
70.1046 0.286
70.1349 0.515
70.1652 -0.348
70.1954 0.142
70.2257 0.008
70.2560 0.082
70.2863 0.678
70.3166 0.336
70.3468 0.411
70.3771 0.174
70.4074 -0.010
70.4377 1.003
70.4679 0.038
70.4982 0.114
70.5285 0.816
70.5588 -0.045
70.5891 0.189
70.6193 0.318
70.6496 0.240
70.6799 0.422
70.7102 0.083
70.7405 -0.255
70.7707 -0.280
70.8010 0.134
70.8313 0.705
70.8616 0.079
70.8918 0.598
70.9221 -0.184
70.9524 0.909
70.9827 0.388
71.0130 0.908
71.0432 0.231
71.0735 -0.237
71.1038 0.336
71.1341 0.337
71.1644 -0.131
71.1946 -0.494
71.2249 0.237
71.2552 -0.022
71.2855 -0.280
71.3157 -0.130
71.3460 -0.031
71.3763 0.173
71.4066 -0.040
71.4369 0.372
71.4671 0.316
71.4974 -0.782
71.5277 -0.004
71.5580 0.357
71.5883 -0.011
71.6185 -0.014
71.6488 0.087
71.6791 -0.071
71.7094 -0.282
71.7396 0.081
71.7699 -0.285
71.8002 -0.237
71.8305 0.281
71.8608 0.486
71.8910 -0.089
71.9213 0.481
71.9516 0.062
71.9819 0.373
72.0122 -0.098
72.0424 0.422
72.0727 0.472
72.1030 -0.102
72.1333 0.158
72.1635 0.158
72.1938 0.783
72.2241 0.053
72.2544 0.366
72.2847 0.731
72.3149 1.357
72.3452 1.358
72.3755 0.370
72.4058 0.371
72.4361 0.998
72.4663 -0.094
72.4966 1.055
72.5269 1.109
72.5572 0.383
72.5874 1.167
72.6177 0.650
72.6480 0.757
72.6783 0.501
72.7086 0.765
72.7388 0.093
72.7691 0.358
72.7994 -0.315
72.8297 0.315
72.8600 0.217
72.8902 0.118
72.9205 0.645
72.9508 -0.287
72.9811 -0.280
73.0113 -0.066
73.0416 0.045
73.0719 -0.104
73.1022 0.268
73.1325 0.276
73.1627 -0.185
73.1930 -0.021
73.2233 -0.012
73.2536 0.726
73.2839 -0.463
73.3141 -0.090
73.3444 -0.132
73.3747 0.085
73.4050 -0.269
73.4353 0.366
73.4655 -0.092
73.4958 -0.186
73.5261 0.450
73.5564 0.201
73.5866 0.056
73.6169 0.067
73.6472 0.600
73.6775 0.612
73.7078 0.521
73.7380 -0.196
73.7683 0.338
73.7986 -0.274
73.8289 0.052
73.8592 -0.195
73.8894 -0.389
73.9197 0.232
73.9500 -0.240
73.9803 0.173
74.0105 -0.038
74.0408 0.219
74.0711 -0.252
74.1014 -0.202
74.1317 0.109
74.1619 0.367
74.1922 -0.103
74.2225 0.104
74.2528 -0.053
74.2831 -0.054
74.3133 0.154
74.3436 -0.003
74.3739 0.675
74.4042 0.102
74.4344 0.154
74.4647 -0.313
74.4950 0.208
74.5253 -0.363
74.5556 -0.155
74.5858 -0.311
74.6161 0.210
74.6464 -0.154
74.6767 0.315
74.7070 -0.309
74.7372 0.265
74.7675 0.215
74.7978 -0.200
74.8281 -0.198
74.8583 0.481
74.8886 0.379
74.9189 0.538
74.9492 -0.188
74.9795 0.180
75.0097 -0.337
75.0400 -0.134
75.0703 0.122
75.1006 -0.351
75.1309 -0.043
75.1611 -0.255
75.1914 -0.157
75.2217 0.253
75.2520 -0.013
75.2822 0.190
75.3125 0.028
75.3428 0.179
75.3731 0.018
75.4034 0.170
75.4336 -0.043
75.4639 -0.151
75.4942 0.418
75.5245 0.467
75.5548 -0.162
75.5850 0.096
75.6153 0.301
75.6456 0.142
75.6759 0.036
75.7061 -0.018
75.7364 -0.020
75.7667 -0.022
75.7970 0.238
75.8273 0.132
75.8575 -0.285
75.8878 -0.088
75.9181 0.319
75.9484 0.204
75.9787 0.194
76.0089 -0.128
76.0392 0.488
76.0695 0.479
76.0998 0.157
76.1301 0.409
76.1603 0.400
76.1906 0.236
76.2209 -0.293
76.2512 0.012
76.2814 -0.047
76.3117 0.675
76.3420 0.407
76.3723 -0.641
76.4026 0.446
76.4328 0.648
76.4631 0.799
76.4934 0.429
76.5237 0.319
76.5540 0.887
76.5842 0.309
76.6145 0.877
76.6448 1.706
76.6751 0.921
76.7053 0.604
76.7356 0.861
76.7659 1.066
76.7962 1.375
76.8265 0.487
76.8567 1.422
76.8870 1.472
76.9173 0.480
76.9476 1.155
76.9779 1.258
77.0081 0.840
77.0384 1.047
77.0687 1.046
77.0990 0.889
77.1292 0.472
77.1595 0.368
77.1898 0.837
77.2201 1.098
77.2504 0.213
77.2806 -0.255
77.3109 0.319
77.3412 0.581
77.3715 0.635
77.4018 0.585
77.4320 0.378
77.4623 0.172
77.4926 -0.137
77.5229 0.178
77.5531 0.337
77.5834 -0.440
77.6137 -0.280
77.6440 -0.484
77.6743 0.562
77.7045 0.099
77.7348 0.209
77.7651 -0.046
77.7954 0.272
77.8257 0.018
77.8559 -0.496
77.8862 0.135
77.9165 0.351
77.9468 0.202
77.9770 0.157
78.0073 0.321
78.0376 -0.348
78.0679 -0.132
78.0982 -0.071
78.1284 -0.271
78.1587 0.099
78.1890 0.155
78.2193 0.004
78.2496 0.166
78.2798 0.380
78.3101 0.021
78.3404 -0.285
78.3707 0.032
78.4009 0.089
78.4312 -0.115
78.4615 -0.266
78.4918 -0.105
78.5221 0.213
78.5523 -0.563
78.5826 0.224
78.6129 -0.031
78.6432 -0.286
78.6735 0.450
78.7037 -0.273
78.7340 -0.058
78.7643 -0.363
78.7946 0.104
78.8248 0.102
78.8551 0.049
78.8854 0.152
78.9157 0.099
78.9460 -0.318
78.9762 0.463
79.0065 -0.266
79.0368 -0.318
79.0671 0.464
79.0974 -0.264
79.1276 0.049
79.1579 0.155
79.1882 -0.365
79.2185 0.106
79.2488 0.108
79.2790 0.006
79.3093 0.217
79.3396 -0.457
79.3699 0.119
79.4001 -0.034
79.4304 0.126
79.4607 0.077
79.4910 -0.231
79.5213 -0.123
79.5515 -0.222
79.5818 -0.165
79.6121 0.256
79.6424 -0.259
79.6727 -0.202
79.7029 0.219
79.7332 0.121
79.7635 0.699
79.7938 0.184
79.8240 -0.383
79.8543 0.248
79.8846 -0.058
79.9149 -0.259
79.9452 0.110
79.9754 -0.250
80.0057 -0.250
80.0360 0.000
80.0663 -0.218
80.0966 -0.175
80.1268 0.180
80.1571 0.535
80.1874 0.058
80.2177 -0.316
80.2479 0.457
80.2782 0.032
80.3085 0.441
80.3388 -0.296
80.3691 0.114
80.3993 0.471
80.4296 -0.057
80.4599 0.197
80.4902 0.295
80.5205 -0.128
80.5507 0.231
80.5810 0.069
80.6113 0.064
80.6416 0.007
80.6718 0.106
80.7021 -0.368
80.7324 -0.007
80.7627 0.041
80.7930 0.037
80.8232 -0.175
80.8535 0.030
80.8838 0.339
80.9141 0.232
80.9444 0.594
80.9746 0.331
81.0049 0.017
81.0352 0.275
81.0655 0.430
81.0957 0.168
81.1260 0.480
81.1563 0.531
81.1866 0.322
81.2169 0.686
81.2471 0.686
81.2774 0.478
81.3077 0.062
81.3380 0.896
81.3683 1.261
81.3985 0.690
81.4288 0.170
81.4591 0.693
81.4894 0.955
81.5196 0.749
81.5499 0.387
81.5802 0.494
81.6105 0.080
81.6408 0.500
81.6710 0.191
81.7013 0.090
81.7316 0.199
81.7619 0.463
81.7922 0.259
81.8224 0.004
81.8527 0.113
81.8830 0.691
81.9133 -0.033
81.9436 0.181
81.9738 0.031
82.0041 -0.015
82.0344 -0.425
82.0647 0.311
82.0949 -0.203
82.1252 0.065
82.1555 0.020
82.1858 -0.024
82.2161 0.192
82.2463 -0.008
82.2766 0.261
82.3069 -0.043
82.3372 0.018
82.3675 -0.285
82.3977 0.027
82.4280 -0.025
82.4583 -0.286
82.4886 0.288
82.5188 0.236
82.5491 0.497
82.5794 0.446
82.6097 -0.073
82.6400 0.189
82.6702 0.139
82.7005 0.245
82.7308 0.039
82.7611 0.042
82.7914 -0.060
82.8216 -0.057
82.8519 0.311
82.8822 0.211
82.9125 -0.202
82.9427 0.011
82.9730 0.119
83.0033 0.488
83.0336 0.076
83.0639 -0.179
83.0941 0.087
83.1244 0.197
83.1547 -0.214
83.1850 0.313
83.2153 -0.201
83.2455 -0.091
83.2758 0.281
83.3061 -0.077
83.3364 -0.278
83.3666 0.563
83.3969 0.311
83.4272 0.007
83.4575 0.536
83.4878 0.284
83.5180 0.710
83.5483 0.615
83.5786 0.468
83.6089 -0.252
83.6392 0.800
83.6694 -0.023
83.6997 0.508
83.7300 0.519
83.7603 -0.095
83.7905 0.176
83.8208 0.083
83.8511 0.460
83.8814 0.159
83.9117 -0.193
83.9419 -0.337
83.9722 0.225
84.0025 0.422
84.0328 -0.214
84.0631 0.244
84.0933 -0.027
84.1236 0.172
84.1539 0.110
84.1842 0.048
84.2144 0.403
84.2447 0.186
84.2750 -0.031
84.3053 -0.092
84.3356 0.056
84.3658 0.360
84.3961 0.092
84.4264 -0.332
84.4567 0.390
84.4870 0.799
84.5172 0.168
84.5475 -0.203
84.5778 0.207
84.6081 0.409
84.6383 -0.274
84.6686 0.085
84.6989 -0.180
84.7292 0.075
84.7595 -0.034
84.7897 0.743
84.8200 -0.095
84.8503 -0.151
84.8806 0.158
84.9109 -0.210
84.9411 0.255
84.9714 -0.321
85.0017 0.145
85.0320 0.195
85.0623 0.557
85.0925 0.138
85.1228 -0.020
85.1531 0.083
85.1834 0.290
85.2136 -0.232
85.2439 -0.180
85.2742 -0.389
85.3045 0.233
85.3348 -0.186
85.3650 0.124
85.3953 -0.034
85.4256 -0.349
85.4559 0.587
85.4862 -0.039
85.5164 -0.248
85.5467 0.064
85.5770 0.115
85.6073 0.011
85.6375 -0.250
85.6678 -0.096
85.6981 0.423
85.7284 0.161
85.7587 -0.205
85.7889 0.159
85.8192 -0.259
85.8495 -0.103
85.8798 -0.104
85.9101 0.365
85.9403 -0.312
85.9706 0.053
86.0009 -0.155
86.0312 0.002
86.0614 -0.309
86.0917 0.161
86.1220 0.007
86.1523 0.061
86.1826 -0.250
86.2128 -0.096
86.2431 0.423
86.2734 0.004
86.3037 0.107
86.3340 0.105
86.3642 0.313
86.3945 -0.418
86.4248 0.311
86.4551 -0.314
86.4853 0.206
86.5156 -0.262
86.5459 0.467
86.5762 0.207
86.6065 -0.156
86.6367 -0.051
86.6670 0.055
86.6973 0.421
86.7276 0.267
86.7579 -0.148
86.7881 -0.250
86.8184 0.165
86.8487 0.163
86.8790 -0.100
86.9092 0.576
86.9395 -0.207
86.9698 0.313
87.0001 0.104
87.0304 -0.261
87.0606 0.051
87.0909 0.155
87.1212 -0.157
87.1515 0.000
87.1818 -0.156
87.2120 -0.259
87.2423 0.200
87.2726 0.191
87.3029 0.807
87.3331 -0.243
87.3634 0.113
87.3937 -0.208
87.4240 -0.007
87.4543 0.141
87.4845 0.134
87.5148 0.596
87.5451 0.016
87.5754 0.322
87.6057 -0.101
87.6359 -0.160
87.6662 -0.061
87.6965 0.194
87.7268 0.240
87.7571 -0.130
87.7873 0.230
87.8176 0.017
87.8479 0.377
87.8782 -0.095
87.9084 -0.256
87.9387 -0.415
87.9690 0.300
87.9993 -0.287
88.0296 0.273
88.0598 -0.417
88.0901 -0.014
88.1204 0.130
88.1507 0.222
88.1810 0.105
88.2112 0.458
88.2415 0.134
88.2718 0.487
88.3021 -0.097
88.3323 -0.108
88.3626 -0.171
88.3929 -0.389
88.4232 0.225
88.4535 0.319
88.4837 0.153
88.5140 0.248
88.5443 -0.230
88.5746 -0.239
88.6049 -0.456
88.6351 0.317
88.6654 0.152
88.6957 -0.012
88.7260 0.605
88.7562 0.545
88.7865 0.382
88.8168 0.114
88.8471 0.472
88.8774 0.518
88.9076 0.668
88.9379 0.922
88.9682 0.812
88.9985 1.015
89.0288 0.176
89.0590 -0.089
89.0893 0.635
89.1196 1.621
89.1499 1.043
89.1801 1.560
89.2104 1.765
89.2407 1.084
89.2710 1.550
89.3013 0.609
89.3315 2.013
89.3618 1.177
89.3921 2.373
89.4224 1.537
89.4527 1.796
89.4829 1.274
89.5132 2.002
89.5435 0.751
89.5738 2.000
89.6040 2.052
89.6343 1.426
89.6646 2.468
89.6949 1.062
89.7252 0.959
89.7554 2.001
89.7857 0.960
89.8160 1.222
89.8463 1.588
89.8766 2.059
89.9068 1.488
89.9371 0.501
89.9674 0.503
89.9977 0.558
90.0279 0.197
90.0582 0.617
90.0885 0.881
90.1188 -0.157
90.1491 0.472
90.1793 1.257
90.2096 0.168
90.2399 0.486
90.2702 0.334
90.3005 -0.494
90.3307 -0.281
90.3610 0.037
90.3913 -0.218
90.4216 0.672
90.4518 -0.468
90.4821 0.476
90.5124 0.378
90.5427 0.020
90.5730 0.235
90.6032 -0.436
90.6335 -0.116
90.6638 0.256
90.6941 0.160
90.7244 0.063
90.7546 0.176
90.7849 0.497
90.8152 0.401
90.8455 -0.319
90.8758 0.211
90.9060 0.429
90.9363 -0.134
90.9666 -0.280
90.9969 -0.173
91.0271 -0.273
91.0574 0.356
91.0877 0.205
91.1180 -0.312
91.1483 0.370
91.1785 0.271
91.2088 0.277
91.2391 0.543
91.2694 -0.180
91.2997 -0.018
91.3299 0.197
91.3602 0.047
91.3905 -0.050
91.4208 0.166
91.4510 -0.139
91.4813 -0.184
91.5116 0.606
91.5419 0.614
91.5722 0.049
91.6024 0.266
91.6327 -0.298
91.6630 -0.132
91.6933 0.346
91.7236 -0.113
91.7538 -0.520
91.7841 0.150
91.8144 0.039
91.8447 0.188
91.8749 0.389
91.9052 0.227
91.9355 0.273
91.9658 0.371
91.9961 0.313
92.0263 -0.265
92.0566 -0.271
92.0869 -0.228
92.1172 0.388
92.1475 0.327
92.1777 0.475
92.2080 0.466
92.2383 0.562
92.2686 -0.123
92.2988 0.286
92.3291 0.748
92.3594 0.064
92.3897 0.057
92.4200 0.467
92.4502 0.460
92.4805 0.767
92.5108 0.553
92.5411 0.130
92.5714 0.594
92.6016 0.797
92.6319 0.792
92.6622 0.475
92.6925 0.835
92.7227 0.467
92.7530 0.775
92.7833 0.303
92.8136 0.508
92.8439 0.401
92.8741 0.502
92.9044 0.603
92.9347 0.862
92.9650 0.495
92.9953 0.233
93.0255 -0.081
93.0558 0.438
93.0861 0.125
93.1164 0.072
93.1466 0.175
93.1769 1.269
93.2072 0.279
93.2375 0.383
93.2678 0.384
93.2980 0.332
93.3283 -0.083
93.3586 -0.290
93.3889 0.440
93.4192 -0.079
93.4494 -0.285
93.4797 0.026
93.5100 -0.079
93.5403 0.285
93.5706 -0.132
93.6008 0.545
93.6311 0.337
93.6614 0.077
93.6917 0.546
93.7219 0.026
93.7522 -0.285
93.7825 -0.035
93.8128 -0.253
93.8431 0.311
93.8733 -0.011
93.9036 -0.124
93.9339 0.179
93.9642 -0.141
93.9945 -0.202
94.0247 -0.053
94.0550 0.199
94.0853 0.036
94.1156 -0.076
94.1458 -0.239
94.1761 0.067
94.2064 -0.200
94.2367 0.210
94.2670 0.257
94.2972 0.199
94.3275 0.870
94.3578 0.605
94.3881 0.235
94.4184 -0.446
94.4486 0.174
94.4789 0.066
94.5092 0.166
94.5395 0.162
94.5697 0.367
94.6000 1.145
94.6303 0.309
94.6606 0.931
94.6909 0.825
94.7211 -0.375
94.7514 1.237
94.7817 1.132
94.8120 0.974
94.8423 1.181
94.8725 0.711
94.9028 1.232
94.9331 0.867
94.9634 1.023
94.9936 0.919
95.0239 1.752
95.0542 1.180
95.0845 1.181
95.1148 1.807
95.1450 2.329
95.1753 1.862
95.2056 1.499
95.2359 1.814
95.2662 1.608
95.2964 2.600
95.3267 1.666
95.3570 1.304
95.3873 2.193
95.4175 2.301
95.4478 1.628
95.4781 1.476
95.5084 1.845
95.5387 1.641
95.5689 0.969
95.5992 1.182
95.6295 0.979
95.6598 1.870
95.6901 0.053
95.7203 0.893
95.7506 1.576
95.7809 0.489
95.8112 -0.025
95.8414 0.764
95.8717 0.927
95.9020 0.466
95.9323 0.266
95.9626 0.274
95.9928 0.647
96.0231 0.656
96.0534 0.821
96.0837 0.778
96.1140 0.058
96.1442 -0.140
96.1745 0.078
96.2048 0.140
96.2351 0.411
96.2653 0.370
96.2956 -0.036
96.3259 -0.442
96.3562 0.085
96.3865 0.456
96.4167 0.462
96.4470 0.104
96.4773 0.059
96.5076 0.066
96.5379 -0.135
96.5681 0.133
96.5984 0.661
96.6287 -0.008
96.6590 0.522
96.6893 -0.147
96.7195 0.227
96.7498 -0.598
96.7801 -0.177
96.8104 0.088
96.8406 0.144
96.8709 -0.476
96.9012 0.102
96.9315 -0.205
96.9618 0.530
96.9920 0.119
97.0223 0.125
97.0526 -0.337
97.0829 -0.077
97.1132 0.131
97.1434 0.132
97.1737 0.445
97.2040 0.602
97.2343 -0.179
97.2645 0.135
97.2948 -0.176
97.3251 0.295
97.3554 0.140
97.3857 0.195
97.4159 0.145
97.4462 -0.112
97.4765 -0.266
97.5068 0.142
97.5371 -0.128
97.5673 0.123
97.5976 0.271
97.6279 -0.571
97.6582 0.097
97.6884 0.558
97.7187 0.707
97.7490 -0.239
97.7793 0.379
97.8096 0.060
97.8398 -0.051
97.8701 0.255
97.9004 1.029
97.9307 0.138
97.9610 0.341
97.9912 0.595
98.0215 0.121
98.0518 0.533
98.0821 0.268
98.1123 0.836
98.1426 0.571
98.1729 0.359
98.2032 0.251
98.2335 0.143
98.2637 0.401
98.2940 1.335
98.3243 0.811
98.3546 0.757
98.3849 0.494
98.4151 0.700
98.4454 0.907
98.4757 1.166
98.5060 0.852
98.5362 0.226
98.5665 1.111
98.5968 0.381
98.6271 1.214
98.6574 0.485
98.6876 0.277
98.7179 1.111
98.7482 1.164
98.7785 0.748
98.8088 0.645
98.8390 0.282
98.8693 0.752
98.8996 0.702
98.9299 0.809
98.9601 1.384
98.9904 1.022
99.0207 0.713
99.0510 0.248
99.0813 0.564
99.1115 0.515
99.1418 0.676
99.1721 0.003
99.2024 0.736
99.2327 0.689
99.2629 0.330
99.2932 0.074
99.3235 0.392
99.3538 0.294
99.3841 -0.377
99.4143 -0.058
99.4446 0.365
99.4749 -0.253
99.5052 -0.142
99.5354 0.178
99.5657 0.654
99.5960 0.141
99.6263 -0.111
99.6566 0.106
99.6868 0.166
99.7171 0.435
99.7474 0.132
99.7777 0.193
99.8080 0.359
99.8382 -0.100
99.8685 0.431
99.8988 0.129
99.9291 -0.017
99.9593 0.255
99.9896 -0.203
100.0199 0.746
100.0502 0.237
100.0805 0.144
100.1107 -0.104
100.1410 0.325
100.1713 0.338
100.2016 0.611
100.2319 0.311
100.2621 -0.196
100.2924 0.234
100.3227 0.508
100.3530 -0.207
100.3832 -0.244
100.4135 -0.037
100.4438 0.640
100.4741 0.432
100.5044 -0.089
100.5346 -0.037
100.5649 -0.244
100.5952 -0.150
100.6255 0.518
100.6558 0.665
100.6860 0.656
100.7163 0.283
100.7466 0.223
100.7769 0.371
100.8071 0.155
100.8374 -0.009
100.8677 0.713
100.8980 0.550
100.9283 -0.082
100.9585 0.432
100.9888 0.322
101.0191 0.212
101.0494 -0.211
101.0797 0.200
101.1099 -0.117
101.1402 0.242
101.1705 0.290
101.2008 -0.028
101.2310 0.281
101.2613 0.433
101.2916 0.013
101.3219 -0.043
101.3522 -0.046
101.3824 0.107
101.4127 -0.260
101.4430 -0.166
101.4733 0.033
101.5036 -0.029
101.5338 0.483
101.5641 0.370
101.5944 0.309
101.6247 -0.272
101.6549 -0.020
101.6852 -0.080
101.7155 -0.035
101.7458 0.634
101.7761 0.419
101.8063 0.985
101.8366 0.301
101.8669 0.139
101.8972 -0.076
101.9275 -0.186
101.9577 0.434
101.9880 0.064
102.0183 0.371
102.0486 -0.363
102.0788 -0.055
102.1091 0.357
102.1394 -0.272
102.1697 -0.276
102.2000 -0.133
102.2302 0.636
102.2605 0.310
102.2908 0.402
102.3211 -0.131
102.3514 0.221
102.3816 0.782
102.4119 0.406
102.4422 0.135
102.4725 0.592
102.5028 0.009
102.5330 0.050
102.5633 -0.064
102.5936 0.238
102.6239 0.281
102.6541 -0.041
102.6844 0.314
102.7147 0.409
102.7450 0.661
102.7753 0.184
102.8055 0.644
102.8358 0.324
102.8661 0.524
102.8964 0.256
102.9267 0.718
102.9569 0.659
102.9872 0.444
103.0175 0.437
103.0478 0.639
103.0780 0.529
103.1083 0.836
103.1386 0.570
103.1689 0.825
103.1992 0.664
103.2294 -0.122
103.2597 0.863
103.2900 0.703
103.3203 0.074
103.3506 0.330
103.3808 0.639
103.4111 0.324
103.4414 0.164
103.4717 0.005
103.5019 -0.101
103.5322 1.147
103.5625 0.572
103.5928 0.935
103.6231 0.725
103.6533 0.203
103.6836 0.202
103.7139 0.878
103.7442 0.982
103.7745 0.148
103.8047 1.451
103.8350 0.826
103.8653 0.670
103.8956 1.400
103.9258 0.880
103.9561 0.934
103.9864 0.988
104.0167 2.135
104.0470 1.721
104.0772 1.671
104.1075 0.944
104.1378 1.103
104.1681 1.106
104.1984 1.318
104.2286 1.061
104.2589 0.753
104.2892 0.548
104.3195 0.917
104.3497 0.401
104.3800 1.604
104.4103 1.244
104.4406 0.625
104.4709 0.787
104.5011 0.480
104.5314 0.799
104.5617 0.493
104.5920 0.760
104.6223 1.079
104.6525 0.982
104.6828 0.364
104.7131 1.101
104.7434 0.015
104.7736 0.440
104.8039 0.032
104.8342 -0.220
104.8645 0.414
104.8948 0.058
104.9250 0.380
104.9553 -0.079
104.9856 0.087
105.0159 0.566
105.0462 0.056
105.0764 0.379
105.1067 0.546
105.1370 0.141
105.1673 0.100
105.1975 0.476
105.2278 -0.085
105.2581 0.448
105.2884 0.200
105.3187 -0.464
105.3489 0.226
105.3792 0.083
105.4095 -0.008
105.4398 -0.203
105.4701 0.176
105.5003 0.034
105.5306 0.309
105.5609 0.636
105.5912 -0.026
105.6215 -0.063
105.6517 0.213
105.6820 0.020
105.7123 -0.016
105.7426 -0.260
105.7728 -0.254
105.8031 0.429
105.8334 0.488
105.8637 0.183
105.8940 0.971
105.9242 -0.011
105.9545 -0.211
105.9848 -0.255
106.0151 -0.258
106.0454 0.313
106.0756 0.102
106.1059 0.152
106.1362 -0.162
106.1665 -0.007
106.1967 -0.060
106.2270 0.512
106.2573 0.355
106.2876 0.042
106.3179 0.303
106.3481 0.355
106.3784 -0.062
106.4087 0.356
106.4390 0.357
106.4693 0.097
106.4995 0.255
106.5298 0.517
106.5601 -0.002
106.5904 0.469
106.6206 0.419
106.6509 -0.255
106.6812 -0.730
106.7115 0.515
106.7418 0.041
106.7720 0.401
106.8023 -0.333
106.8326 0.236
106.8629 0.023
106.8932 0.019
106.9234 0.224
106.9537 0.064
106.9840 0.218
107.0143 -0.046
107.0445 -0.048
107.0748 0.158
107.1051 -0.001
107.1354 -0.107
107.1657 0.256
107.1959 0.672
107.2262 0.098
107.2565 0.253
107.2868 -0.112
107.3171 0.304
107.3473 0.148
107.3776 0.096
107.4079 0.513
107.4382 0.201
107.4684 0.306
107.4987 0.047
107.5290 0.621
107.5593 0.258
107.5896 -0.208
107.6198 0.263
107.6501 0.734
107.6804 -0.045
107.7107 0.166
107.7410 -0.351
107.7712 -0.035
107.8015 0.020
107.8318 -0.080
107.8621 -0.076
107.8923 -0.019
107.9226 0.038
107.9529 -0.061
107.9832 -0.108
108.0135 -0.259
108.0437 0.154
108.0740 0.724
108.1043 0.565
108.1346 -0.167
108.1649 -0.013
108.1951 -0.119
108.2254 0.608
108.2557 -0.071
108.2860 -0.020
108.3163 0.604
108.3465 -0.647
108.3768 0.498
108.4071 0.394
108.4374 0.237
108.4676 -0.023
108.4979 0.394
108.5282 0.030
108.5585 -0.073
108.5888 0.241
108.6190 0.398
108.6493 -0.381
108.6796 -0.223
108.7099 0.144
108.7402 0.615
108.7704 0.513
108.8007 0.308
108.8310 0.884
108.8613 0.210
108.8915 0.006
108.9218 -0.095
108.9521 0.066
108.9824 0.227
109.0127 -0.081
109.0429 0.861
109.0732 0.189
109.1035 0.247
109.1338 0.096
109.1641 0.623
109.1943 -0.152
109.2246 -0.250
109.2549 0.103
109.2852 0.091
109.3154 0.443
109.3457 0.171
109.3760 0.108
109.4063 0.566
109.4366 0.139
109.4668 -0.237
109.4971 0.430
109.5274 0.160
109.5577 0.359
109.5880 0.037
109.6182 0.027
109.6485 0.852
109.6788 0.739
109.7091 0.053
109.7393 0.462
109.7696 0.922
109.7999 0.081
109.8302 0.334
109.8605 0.588
109.8907 0.633
109.9210 0.209
109.9513 0.515
109.9816 1.134
110.0119 0.243
110.0421 0.758
110.0724 0.700
110.1027 0.799
110.1330 0.638
110.1632 0.634
110.1935 0.525
110.2238 0.521
110.2541 0.413
110.2844 1.086
110.3146 0.510
110.3449 0.507
110.3752 1.077
110.4055 0.501
110.4358 1.071
110.4660 0.965
110.4963 0.442
110.5266 0.545
110.5569 1.168
110.5871 0.490
110.6174 0.229
110.6477 0.541
110.6780 0.488
110.7083 0.592
110.7385 0.488
110.7688 0.749
110.7991 0.593
110.8294 0.230
110.8597 0.647
110.8899 0.493
110.9202 0.025
110.9505 -0.337
110.9808 0.027
111.0110 0.391
111.0413 -0.338
111.0716 -0.233
111.1019 0.132
111.1322 0.341
111.1624 0.238
111.1927 0.552
111.2230 -0.280
111.2533 0.347
111.2836 0.193
111.3138 0.508
111.3441 0.615
111.3744 -0.111
111.4047 0.308
111.4350 -0.261
111.4652 -0.049
111.4955 0.163
111.5258 -0.145
111.5561 0.172
111.5863 0.124
111.6166 0.233
111.6469 -0.387
111.6772 0.608
111.7075 -0.376
111.7377 0.568
111.7680 0.053
111.7983 0.007
111.8286 0.014
111.8589 0.021
111.8891 0.028
111.9194 -0.068
111.9497 -0.217
111.9800 0.051
112.0102 0.320
112.0405 -0.245
112.0708 0.441
112.1011 0.398
112.1314 -0.270
112.1616 -0.260
112.1919 -0.210
112.2222 0.102
112.2525 0.257
112.2828 0.257
112.3130 -0.264
112.3433 0.100
112.3736 -0.316
112.4039 0.414
112.4341 0.258
112.4644 -0.678
112.4947 0.208
112.5250 -0.051
112.5553 -0.049
112.5855 0.370
112.6158 -0.253
112.6461 -0.198
112.6764 0.534
112.7067 -0.088
112.7369 0.175
112.7672 -0.030
112.7975 -0.182
112.8278 0.187
112.8580 -0.590
112.8883 0.195
112.9186 -0.060
112.9489 -0.472
112.9792 0.158
113.0094 0.372
113.0397 0.274
113.0700 0.176
113.1003 0.182
113.1306 0.241
113.1608 0.195
113.1911 -0.006
113.2214 -0.363
113.2517 0.058
113.2819 0.271
113.3122 0.276
113.3425 0.438
113.3728 -0.078
113.4031 0.345
113.4333 0.351
113.4636 0.305
113.4939 0.363
113.5242 0.370
113.5545 0.690
113.5847 -0.084
113.6150 -0.285
113.6453 0.125
113.6756 0.379
113.7058 0.060
113.7361 0.366
113.7664 0.309
113.7967 0.355
113.8270 0.350
113.8572 0.189
113.8875 0.080
113.9178 -0.237
113.9481 0.436
113.9784 0.015
114.0086 0.688
114.0389 0.112
114.0692 -0.152
114.0995 -0.467
114.1298 0.194
114.1600 0.074
114.1903 -0.201
114.2206 0.669
114.2509 -0.231
114.2811 0.223
114.3114 -0.155
114.3417 -0.013
114.3720 0.598
114.4023 0.168
114.4325 0.624
114.4628 -0.014
114.4931 -0.235
114.5234 0.065
114.5537 -0.208
114.5839 0.457
114.6142 0.081
114.6445 0.434
114.6748 0.163
114.7050 0.048
114.7353 -0.276
114.7656 -0.029
114.7959 0.062
114.8262 0.048
114.8564 0.087
114.8867 1.168
114.9170 -0.407
114.9473 0.258
114.9776 0.142
115.0078 0.442
115.0381 -0.350
115.0684 0.263
115.0987 0.096
115.1289 -0.175
115.1592 -0.290
115.1895 -0.196
115.2198 0.210
115.2501 0.669
115.2803 -0.434
115.3106 0.598
115.3409 -0.401
115.3712 0.268
115.4015 0.363
115.4317 0.667
115.4620 0.607
115.4923 0.599
115.5226 0.123
115.5528 0.793
115.5831 0.838
115.6134 0.154
115.6437 0.512
115.6740 0.558
115.7042 1.020
115.7345 1.327
115.7648 0.384
115.7951 0.899
115.8254 0.998
115.8556 1.202
115.8859 1.562
115.9162 0.776
115.9465 0.772
115.9767 1.446
116.0070 1.077
116.0373 1.491
116.0676 0.758
116.0979 1.329
116.1281 1.691
116.1584 0.595
116.1887 0.957
116.2190 1.997
116.2493 1.370
116.2795 1.005
116.3098 1.264
116.3401 1.628
116.3704 1.835
116.4006 1.262
116.4309 1.939
116.4612 1.262
116.4915 0.638
116.5218 1.316
116.5520 1.577
116.5823 1.630
116.6126 1.788
116.6429 1.113
116.6732 0.854
116.7034 1.117
116.7337 0.859
116.7640 1.018
116.7943 0.448
116.8245 0.399
116.8548 1.028
116.8851 -0.010
116.9154 0.619
116.9457 0.623
116.9759 0.628
117.0062 0.580
117.0365 1.419
117.0668 0.070
117.0971 1.013
117.1273 0.029
117.1576 0.243
117.1879 0.822
117.2182 -0.004
117.2485 0.263
117.2787 0.166
117.3090 0.225
117.3393 0.128
117.3696 0.188
117.3998 0.196
117.4301 -0.368
117.4604 0.421
117.4907 0.170
117.5210 -0.498
117.5512 -0.020
117.5815 -0.323
117.6118 0.780
117.6421 0.217
117.6724 -0.345
117.7026 0.238
117.7329 -0.480
117.7632 -0.157
117.7935 0.323
117.8237 -0.394
117.8540 -0.174
117.8843 0.151
117.9146 0.163
117.9449 0.280
117.9751 -0.280
118.0054 -0.270
118.0357 -0.520
118.0660 0.314
118.0963 -0.414
118.1265 0.108
118.1568 0.057
118.1871 -0.097
118.2174 0.217
118.2476 0.323
118.2779 -0.247
118.3082 -0.088
118.3385 0.123
118.3688 -0.291
118.3990 0.650
118.4293 0.341
118.4596 -0.488
118.4899 -0.276
118.5202 -0.011
118.5504 -0.215
118.5807 0.311
118.6110 0.160
118.6413 -0.304
118.6715 0.223
118.7018 -0.032
118.7321 -0.078
118.7624 -0.176
118.7927 0.144
118.8229 0.202
118.8532 -0.520
118.8835 -0.150
118.9138 0.116
118.9441 -0.191
118.9743 0.700
119.0046 -0.335
119.0349 -0.068
119.0652 -0.218
119.0954 -0.263
119.1257 0.213
119.1560 0.532
119.1863 -0.293
119.2166 0.183
119.2468 -0.017
119.2771 0.148
119.3074 0.000
119.3377 0.686
119.3680 -0.138
119.3982 0.548
119.4285 0.298
119.4588 -0.213
119.4891 -0.255
119.5193 0.054
119.5496 0.154
119.5799 -0.214
119.6102 -0.373
119.6405 1.031
119.6707 0.299
119.7010 -0.068
119.7313 -0.018
119.7616 0.241
119.7919 0.500
119.8221 0.499
119.8524 -0.284
119.8827 -0.076
119.9130 -0.025
119.9433 -0.181
119.9735 -0.337
120.0038 0.000
