'Id: "" Comment: "" Operator: "Lab Manager" Anode: "Cu" Scantype: "Locked Coupled" TimePerStep: "19.2" X: "9999" Y: "9999" Z: "9999" 
10.0015 0.000
10.0318 0.831
10.0620 0.257
10.0923 0.359
10.1226 0.514
10.1529 -0.216
10.1832 0.200
10.2134 0.303
10.2437 0.094
10.2740 0.458
10.3043 0.041
10.3346 -0.011
10.3648 0.198
10.3951 -0.271
10.4254 -0.427
10.4557 -0.167
10.4859 0.353
10.5162 -0.273
10.5465 -0.221
10.5768 -0.169
10.6071 -0.429
10.6373 0.404
10.6676 -0.585
10.6979 0.301
10.7282 -0.219
10.7585 -0.427
10.7887 -0.010
10.8190 -0.427
10.8493 0.094
10.8796 0.459
10.9098 -0.321
10.9401 -0.216
10.9704 -0.371
11.0007 0.046
11.0310 -0.161
11.0612 0.206
11.0915 0.312
11.1218 -0.416
11.1521 -0.049
11.1824 -0.568
11.2126 0.320
11.2429 -0.406
11.2732 -0.091
11.3035 -0.088
11.3337 0.176
11.3640 0.388
11.3943 0.027
11.4246 -0.074
11.4549 0.451
11.4851 -0.222
11.5154 -0.165
11.5457 -0.421
11.5760 -0.312
11.6063 0.422
11.6365 0.375
11.6668 0.120
11.6971 0.281
11.7274 0.548
11.7577 -0.176
11.7879 0.195
11.8182 0.826
11.8485 -0.261
11.8788 0.422
11.9090 0.637
11.9393 -0.033
11.9696 1.120
11.9999 0.815
12.0302 0.614
12.0604 0.101
12.0907 -0.308
12.1210 0.950
12.1513 0.282
12.1816 0.811
12.2118 0.142
12.2421 -0.265
12.2724 -0.204
12.3027 -0.404
12.3329 0.022
12.3632 -0.281
12.3935 -0.219
12.4238 -0.105
12.4541 -0.095
12.4843 -0.033
12.5146 0.186
12.5449 0.040
12.5752 0.155
12.6055 -0.095
12.6357 -0.448
12.6660 0.605
12.6963 0.043
12.7266 -0.518
12.7568 0.223
12.7871 0.027
12.8174 0.091
12.8477 -0.157
12.8780 0.116
12.9082 -0.236
12.9385 -0.379
12.9688 -0.480
12.9991 0.252
13.0294 0.307
13.0596 0.259
13.0899 0.002
13.1202 -0.359
13.1505 0.114
13.1807 -0.246
13.2110 -0.242
13.2413 -0.029
13.2716 -0.285
13.3019 0.658
13.3321 -0.066
13.3624 -0.373
13.3927 0.309
13.4230 -0.049
13.4533 0.217
13.4835 -0.298
13.5138 0.177
13.5441 -0.025
13.5744 -0.070
13.6046 0.405
13.6349 0.881
13.6652 -0.153
13.6955 0.271
13.7258 0.383
13.7560 0.391
13.7863 0.034
13.8166 -0.531
13.8469 -0.169
13.8772 0.245
13.9074 0.139
13.9377 -0.020
13.9680 -0.230
13.9983 -0.024
14.0285 -0.181
14.0588 0.234
14.0891 0.337
14.1194 0.492
14.1497 0.074
14.1799 0.282
14.2102 0.386
14.2405 -0.292
14.2708 0.750
14.3011 -0.135
14.3313 1.063
14.3616 0.074
14.3919 -0.030
14.4222 0.544
14.4524 0.493
14.4827 0.129
14.5130 0.079
14.5433 -0.128
14.5736 0.603
14.6038 0.188
14.6341 0.607
14.6644 0.193
14.6947 0.404
14.7250 0.250
14.7552 -0.476
14.7855 -0.161
14.8158 -0.105
14.8461 -0.466
14.8764 0.110
14.9066 0.166
14.9369 0.483
14.9672 -0.295
14.9975 -0.082
15.0277 0.235
15.0580 0.344
15.0883 0.193
15.1186 -0.010
15.1489 0.151
15.1791 0.209
15.2094 0.319
15.2397 -0.092
15.2700 0.018
15.3003 -0.288
15.3305 -0.229
15.3608 0.038
15.3911 -0.164
15.4214 0.156
15.4516 -0.514
15.4819 -0.194
15.5122 0.282
15.5425 0.134
15.5728 0.402
15.6030 0.098
15.6333 -0.467
15.6636 0.167
15.6939 -0.294
15.7242 -0.180
15.7544 0.818
15.7847 -0.110
15.8150 0.108
15.8453 -0.091
15.8755 -0.446
15.9058 -0.031
15.9361 0.019
15.9664 0.122
15.9967 0.381
16.0269 0.015
16.0572 -0.194
16.0875 0.274
16.1178 0.273
16.1481 0.116
16.1783 0.012
16.2086 0.168
16.2389 -0.145
16.2692 -0.092
16.2994 0.481
16.3297 0.586
16.3600 0.014
16.3903 0.015
16.4206 0.381
16.4508 0.330
16.4811 0.071
16.5114 0.438
16.5417 0.387
16.5720 0.077
16.6022 0.600
16.6325 -0.179
16.6628 0.137
16.6931 -0.121
16.7233 -0.430
16.7536 0.563
16.7839 0.462
16.8142 0.361
16.8445 0.678
16.8747 0.161
16.9050 0.634
16.9353 -0.351
16.9656 -0.086
16.9959 -0.030
17.0261 -0.181
17.0564 -0.280
17.0867 0.038
17.1170 -0.009
17.1472 -0.107
17.1775 -0.101
17.2078 0.009
17.2381 0.067
17.2684 0.126
17.2986 0.549
17.3289 -0.017
17.3592 0.303
17.3895 -0.107
17.4198 0.005
17.4500 -0.352
17.4803 0.020
17.5106 -0.493
17.5409 -0.128
17.5712 0.133
17.6014 0.759
17.6317 -0.073
17.6620 -0.176
17.6923 -0.331
17.7225 0.400
17.7528 0.506
17.7831 -0.065
17.8134 0.041
17.8437 0.877
17.8739 0.255
17.9042 -0.576
17.9345 0.312
17.9648 0.368
17.9951 0.058
18.0253 -0.251
18.0556 0.430
18.0859 -0.451
18.1162 0.438
18.1464 -0.339
18.1767 -0.230
18.2070 0.399
18.2373 -0.325
18.2676 -0.112
18.2978 0.206
18.3281 -0.049
18.3584 -0.356
18.3887 0.014
18.4190 0.072
18.4492 0.026
18.4795 -0.072
18.5098 0.716
18.5401 -0.007
18.5703 0.834
18.6006 0.320
18.6309 0.119
18.6612 0.074
18.6915 0.082
18.7217 0.298
18.7520 -0.111
18.7823 0.366
18.8126 -0.303
18.8429 0.175
18.8731 -0.285
18.9034 -0.445
18.9337 0.541
18.9640 0.225
18.9942 0.117
19.0245 0.323
19.0548 0.320
19.0851 0.317
19.1154 -0.154
19.1456 0.417
19.1759 0.311
19.2062 0.673
19.2365 -0.266
19.2668 -0.111
19.2970 0.460
19.3273 -0.530
19.3576 0.094
19.3879 -0.063
19.4181 -0.064
19.4484 -0.168
19.4787 0.561
19.5090 -0.064
19.5393 -0.272
19.5695 0.405
19.5998 0.041
19.6301 0.146
19.6604 0.355
19.6907 0.513
19.7209 -0.476
19.7512 0.359
19.7815 -0.212
19.8118 0.050
19.8420 -0.052
19.8723 0.367
19.9026 0.161
19.9329 0.007
19.9632 -0.146
19.9934 0.326
20.0237 0.485
20.0540 0.437
20.0843 -0.029
20.1146 -0.285
20.1448 -0.125
20.1751 -0.017
20.2054 0.091
20.2357 0.460
20.2659 0.360
20.2962 -0.156
20.3265 -0.047
20.3568 -0.042
20.3871 0.120
20.4173 0.281
20.4476 -0.130
20.4779 0.293
20.5082 0.403
20.5385 0.253
20.5687 0.259
20.5990 0.006
20.6293 -0.300
20.6596 -0.096
20.6899 0.057
20.7201 0.053
20.7504 0.206
20.7807 0.151
20.8110 0.096
20.8412 0.250
20.8715 -0.222
20.9018 0.036
20.9321 0.242
20.9624 0.032
20.9926 0.447
21.0229 -0.180
21.0532 -0.285
21.0835 0.130
21.1138 -0.027
21.1440 -0.184
21.1743 0.128
21.2046 -0.446
21.2349 0.023
21.2651 0.387
21.2954 0.283
21.3257 -0.290
21.3560 0.232
21.3863 0.128
21.4165 0.546
21.4468 0.026
21.4771 -0.025
21.5074 -0.232
21.5377 0.342
21.5679 0.032
21.5982 -0.227
21.6285 -0.277
21.6588 0.084
21.6890 -0.492
21.7193 0.026
21.7496 0.388
21.7799 -0.448
21.8102 -0.242
21.8404 0.121
21.8707 -0.246
21.9010 0.169
21.9313 -0.145
21.9616 0.270
21.9918 0.269
22.0221 0.059
22.0524 0.527
22.0827 0.058
22.1129 0.109
22.1432 -0.099
22.1735 -0.152
22.2038 0.057
22.2341 -0.047
22.2643 -0.255
22.2946 0.110
22.3249 0.059
22.3552 0.112
22.3855 -0.043
22.4157 0.010
22.4460 -0.353
22.4763 0.118
22.5066 -0.141
22.5368 0.174
22.5671 0.124
22.5974 0.179
22.6277 0.077
22.6580 -0.128
22.6882 0.396
22.7185 0.087
22.7488 -0.118
22.7791 0.198
22.8094 -0.111
22.8396 -0.315
22.8699 0.158
22.9002 0.214
22.9305 0.219
22.9607 0.015
22.9910 0.072
23.0213 -0.131
23.0516 -0.178
23.0819 -0.224
23.1121 -0.062
23.1424 0.152
23.1727 0.002
23.2030 0.112
23.2333 -0.350
23.2635 -0.198
23.2938 0.110
23.3241 -0.311
23.3544 0.206
23.3846 -0.474
23.4149 -0.113
23.4452 -0.012
23.4755 0.349
23.5058 -0.331
23.5360 0.083
23.5663 0.133
23.5966 -0.494
23.6269 0.389
23.6572 0.022
23.6874 0.177
23.7177 0.123
23.7480 0.330
23.7783 0.173
23.8086 -0.505
23.8388 0.275
23.8691 0.066
23.8994 -0.091
23.9297 0.065
23.9599 0.222
23.9902 0.013
24.0205 0.274
24.0508 -0.246
24.0811 0.067
24.1113 0.068
24.1416 -0.035
24.1719 -0.138
24.2022 -0.084
24.2325 0.073
24.2627 -0.341
24.2930 0.181
24.3233 0.027
24.3536 0.134
24.3838 0.241
24.4141 -0.173
24.4444 0.038
24.4747 -0.011
24.5050 -0.268
24.5352 -0.120
24.5655 -0.127
24.5958 0.125
24.6261 -0.090
24.6564 0.267
24.6866 0.312
24.7169 -0.528
24.7472 0.351
24.7775 0.188
24.8077 -0.026
24.8380 -0.189
24.8683 0.118
24.8986 0.165
24.9289 0.211
24.9591 -0.471
24.9894 0.149
25.0197 -0.012
25.0500 -0.538
25.0803 0.187
25.1105 -0.443
25.1408 0.334
25.1711 -0.034
25.2014 0.014
25.2316 0.010
25.2619 -0.045
25.2922 -0.465
25.3225 0.365
25.3528 0.154
25.3830 -0.057
25.4133 0.514
25.4436 -0.426
25.4739 -0.168
25.5042 -0.118
25.5344 -0.276
25.5647 0.348
25.5950 0.451
25.6253 0.397
25.6555 0.449
25.6858 -0.021
25.7161 0.864
25.7464 0.551
25.7767 0.551
25.8069 0.603
25.8372 0.811
25.8675 0.603
25.8978 -0.021
25.9281 0.240
25.9583 0.137
25.9886 -0.383
26.0189 -0.226
26.0492 -0.173
26.0794 0.348
26.1097 0.037
26.1400 -0.118
26.1703 0.092
26.2006 -0.219
26.2308 0.148
26.2611 -0.006
26.2914 -0.317
26.3217 -0.054
26.3520 -0.155
26.3822 -0.100
26.4125 -0.358
26.4428 0.114
26.4731 0.013
26.5034 0.017
26.5336 0.125
26.5639 -0.027
26.5942 -0.440
26.6245 0.085
26.6547 0.402
26.6850 0.251
26.7153 0.204
26.7456 -0.312
26.7759 0.162
26.8061 0.115
26.8364 0.069
26.8667 -0.134
26.8970 0.029
26.9273 0.243
26.9575 -0.375
26.9878 -0.265
27.0181 0.055
27.0484 -0.303
27.0786 0.277
27.1089 -0.393
27.1392 -0.020
27.1695 -0.273
27.1998 -0.062
27.2300 0.201
27.2603 0.204
27.2906 0.156
27.3209 -0.049
27.3512 -0.046
27.3814 -0.094
27.4117 -0.038
27.4420 -0.086
27.4723 -0.289
27.5025 0.392
27.5328 -0.228
27.5631 -0.067
27.5934 0.251
27.6237 -0.212
27.6539 -0.259
27.6842 0.047
27.7145 -0.064
27.7448 -0.123
27.7751 -0.130
27.8053 -0.240
27.8356 -0.298
27.8659 0.165
27.8962 -0.153
27.9264 -0.002
27.9567 0.045
27.9870 0.457
28.0173 -0.276
28.0476 0.032
28.0778 0.184
28.1081 -0.289
28.1384 0.020
28.1687 -0.348
28.1990 0.117
28.2292 0.634
28.2595 -0.202
28.2898 -0.153
28.3201 0.417
28.3503 0.207
28.3806 -0.264
28.4109 0.202
28.4412 0.200
28.4715 -0.374
28.5017 0.093
28.5320 -0.273
28.5623 -0.222
28.5926 -0.275
28.6229 -0.068
28.6531 -0.277
28.6834 -0.070
28.7137 0.033
28.7440 0.189
28.7742 -0.280
28.8045 0.240
28.8348 0.083
28.8651 -0.125
28.8954 0.344
28.9256 0.084
28.9559 -0.020
28.9862 -0.228
29.0165 0.138
29.0468 0.139
29.0770 0.036
29.1073 -0.327
29.1376 -0.127
29.1679 0.334
29.1981 0.117
29.2284 0.058
29.2587 0.415
29.2890 0.980
29.3193 0.713
29.3495 0.029
29.3798 0.387
29.4101 0.640
29.4404 0.269
29.4707 0.524
29.5009 1.143
29.5312 0.460
29.5615 1.079
29.5918 0.970
29.6221 0.443
29.6523 0.126
29.6826 0.329
29.7129 0.429
29.7432 0.320
29.7734 0.108
29.8037 -0.105
29.8340 0.412
29.8643 0.408
29.8946 0.040
29.9248 0.193
29.9551 -0.227
29.9854 0.187
30.0157 -0.076
30.0460 0.025
30.0762 -0.029
30.1065 0.229
30.1368 0.539
30.1671 0.069
30.1973 -0.350
30.2276 0.117
30.2579 -0.092
30.2882 -0.302
30.3185 -0.051
30.3487 0.253
30.3790 -0.069
30.4093 0.235
30.4396 0.382
30.4699 0.217
30.5001 0.209
30.5304 0.097
30.5607 0.089
30.5910 -0.336
30.6212 -0.083
30.6515 0.639
30.6818 0.423
30.7121 0.416
30.7424 0.149
30.7726 0.611
30.8029 -0.229
30.8332 0.494
30.8635 0.332
30.8938 0.170
30.9240 0.477
30.9543 1.200
30.9846 1.091
31.0149 1.554
31.0451 0.820
31.0754 1.128
31.1057 1.436
31.1360 1.327
31.1663 1.427
31.1965 2.673
31.2268 2.513
31.2571 2.093
31.2874 3.392
31.3177 3.440
31.3479 4.219
31.3782 5.414
31.4085 6.192
31.4388 6.867
31.4690 8.114
31.4993 10.248
31.5296 10.715
31.5599 15.452
31.5902 14.253
31.6204 14.720
31.6507 14.146
31.6810 12.426
31.7113 10.082
31.7416 9.977
31.7718 7.789
31.8021 5.705
31.8324 5.132
31.8627 4.508
31.8929 4.195
31.9232 3.102
31.9535 1.905
31.9838 2.010
32.0141 2.584
32.0443 2.377
32.0746 1.701
32.1049 1.755
32.1352 1.236
32.1655 1.082
32.1957 0.407
32.2260 1.138
32.2563 0.464
32.2866 0.466
32.3169 0.730
32.3471 0.577
32.3774 0.528
32.4077 0.271
32.4380 -0.090
32.4682 -0.034
32.4985 0.335
32.5288 -0.078
32.5591 0.343
32.5894 0.504
32.6196 0.301
32.6499 0.201
32.6802 0.988
32.7105 0.056
32.7408 0.165
32.7710 0.484
32.8013 0.177
32.8316 0.079
32.8619 0.190
32.8921 0.613
32.9224 -0.162
32.9527 -0.467
32.9830 0.052
33.0133 0.416
33.0435 -0.522
33.0738 0.207
33.1041 0.728
33.1344 -0.158
33.1647 0.572
33.1949 0.103
33.2252 -0.261
33.2555 -0.156
33.2858 -0.572
33.3160 0.042
33.3463 -0.281
33.3766 0.646
33.4069 0.323
33.4372 -0.364
33.4674 -0.062
33.4977 0.814
33.5280 0.544
33.5583 0.066
33.5886 0.161
33.6188 0.412
33.6491 0.403
33.6794 -0.022
33.7097 0.282
33.7399 0.326
33.7702 0.578
33.8005 0.153
33.8308 0.666
33.8611 0.815
33.8913 0.183
33.9216 1.373
33.9519 1.418
33.9822 2.505
34.0125 2.030
34.0427 1.971
34.0730 3.736
34.1033 3.938
34.1336 5.391
34.1638 9.708
34.1941 11.734
34.2244 15.374
34.2547 16.932
34.2850 15.677
34.3152 14.005
34.3455 8.792
34.3758 6.236
34.4061 3.732
34.4364 3.259
34.4666 2.422
34.4969 2.522
34.5272 1.477
34.5575 1.526
34.5877 0.638
34.6180 1.103
34.6483 0.372
34.6786 0.525
34.7089 0.211
34.7391 0.469
34.7694 0.832
34.7997 0.465
34.8300 0.359
34.8603 0.254
34.8905 0.201
34.9208 0.356
34.9511 -0.010
34.9814 0.667
35.0116 0.302
35.0419 0.302
35.0722 0.510
35.1025 0.354
35.1328 -0.115
35.1630 0.771
35.1933 0.616
35.2236 -0.060
35.2539 0.305
35.2842 1.140
35.3144 0.829
35.3447 0.466
35.3750 0.259
35.4053 0.730
35.4356 1.149
35.4658 0.630
35.4961 0.998
35.5264 1.469
35.5567 1.316
35.5869 2.100
35.6172 2.260
35.6475 2.836
35.6778 2.267
35.7081 1.750
35.7383 3.994
35.7686 3.946
35.7989 4.315
35.8292 5.205
35.8595 6.043
35.8897 7.767
35.9200 7.043
35.9503 8.663
35.9806 10.491
36.0108 14.455
36.0411 15.920
36.0714 17.488
36.1017 17.911
36.1320 18.491
36.1622 17.612
36.1925 16.004
36.2228 12.782
36.2531 12.425
36.2834 10.297
36.3136 8.534
36.3439 6.146
36.3742 5.529
36.4045 4.339
36.4347 3.358
36.4650 3.991
36.4953 2.802
36.5256 3.488
36.5559 1.466
36.5861 1.319
36.6164 1.120
36.6467 1.130
36.6770 1.192
36.7073 1.827
36.7375 0.848
36.7678 0.754
36.7981 0.869
36.8284 0.567
36.8586 0.474
36.8889 0.329
36.9192 0.288
36.9495 0.300
36.9798 0.624
37.0100 0.428
37.0403 0.127
37.0706 0.504
37.1009 0.256
37.1312 0.008
37.1614 -0.291
37.1917 0.243
37.2220 0.204
37.2523 0.009
37.2825 0.179
37.3128 0.193
37.3431 0.728
37.3734 1.002
37.4037 0.235
37.4339 -0.063
37.4642 0.004
37.4945 0.019
37.5248 0.295
37.5551 0.310
37.5853 0.117
37.6156 0.341
37.6459 -0.268
37.6762 0.061
37.7064 -0.027
37.7367 -0.323
37.7670 -0.064
37.7973 0.300
37.8276 -0.222
37.8578 -0.014
37.8881 0.246
37.9184 -0.119
37.9487 -0.015
37.9790 0.141
38.0092 0.506
38.0395 0.299
38.0698 -0.013
38.1001 0.092
38.1304 0.249
38.1606 0.563
38.1909 0.044
38.2212 0.097
38.2515 0.099
38.2817 0.049
38.3120 -0.105
38.3423 0.158
38.3726 -0.152
38.4029 -0.201
38.4331 -0.251
38.4634 -0.039
38.4937 -0.452
38.5240 -0.035
38.5543 -0.034
38.5845 -0.241
38.6148 0.072
38.6451 -0.082
38.6754 -0.237
38.7056 0.233
38.7359 -0.285
38.7662 -0.075
38.7965 -0.073
38.8268 -0.226
38.8570 -0.380
38.8873 0.352
38.9176 -0.269
38.9479 0.255
38.9782 -0.263
39.0084 0.106
39.0387 -0.255
39.0690 0.166
39.0993 0.066
39.1295 -0.086
39.1598 -0.134
39.1901 -0.233
39.2204 0.189
39.2507 -0.014
39.2809 0.147
39.3112 -0.056
39.3415 -0.154
39.3718 -0.148
39.4021 0.119
39.4323 -0.292
39.4626 -0.187
39.4929 -0.134
39.5232 -0.081
39.5534 0.337
39.5837 -0.339
39.6140 0.287
39.6443 0.185
39.6746 0.083
39.7048 -0.071
39.7351 -0.278
39.7654 0.194
39.7957 0.457
39.8260 -0.165
39.8562 0.098
39.8865 0.153
39.9168 0.000
39.9471 0.004
39.9773 -0.148
40.0076 -0.145
40.0379 -0.140
40.0682 0.072
40.0985 0.233
40.1287 -0.075
40.1590 -0.070
40.1893 -0.013
40.2196 0.149
40.2499 0.311
40.2801 -0.048
40.3104 0.114
40.3407 -0.141
40.3710 0.126
40.4012 0.184
40.4315 -0.121
40.4618 -0.219
40.4921 0.043
40.5224 -0.320
40.5526 0.255
40.5829 -0.159
40.6132 0.000
40.6435 0.315
40.6738 0.057
40.7040 0.060
40.7343 -0.041
40.7646 0.223
40.7949 -0.138
40.8251 -0.030
40.8554 0.234
40.8857 0.290
40.9160 0.190
40.9463 -0.066
40.9765 -0.009
41.0068 0.048
41.0371 -0.208
41.0674 -0.105
41.0977 -0.210
41.1279 0.206
41.1582 0.205
41.1885 0.205
41.2188 -0.316
41.2491 0.257
41.2793 -0.004
41.3096 0.049
41.3399 0.101
41.3702 0.102
41.4004 -0.002
41.4307 -0.053
41.4610 -0.208
41.4913 -0.051
41.5216 -0.102
41.5518 -0.101
41.5821 0.213
41.6124 0.058
41.6427 0.060
41.6730 -0.303
41.7032 0.272
41.7335 0.430
41.7638 0.016
41.7941 0.071
41.8243 0.230
41.8546 0.128
41.8849 0.080
41.9152 0.135
41.9455 0.191
41.9757 -0.275
42.0060 0.354
42.0363 0.150
42.0666 0.102
42.0969 0.003
42.1271 0.059
42.1574 0.533
42.1877 0.277
42.2180 0.022
42.2482 0.184
42.2785 -0.071
42.3088 0.039
42.3391 0.670
42.3694 0.103
42.3996 0.057
42.4299 0.585
42.4602 0.018
42.4905 -0.183
42.5208 -0.084
42.5510 -0.037
42.5813 0.218
42.6116 0.161
42.6419 0.105
42.6721 0.100
42.7024 0.096
42.7327 0.092
42.7630 -0.068
42.7933 0.033
42.8235 0.238
42.8538 0.078
42.8841 0.284
42.9144 0.177
42.9447 0.278
42.9749 0.119
43.0052 0.013
43.0355 0.167
43.0658 0.426
43.0960 -0.097
43.1263 -0.255
43.1566 0.051
43.1869 -0.007
43.2172 -0.014
43.2474 -0.072
43.2777 0.287
43.3080 0.281
43.3383 -0.193
43.3686 -0.042
43.3988 0.005
43.4291 0.052
43.4594 0.100
43.4897 -0.061
43.5199 0.039
43.5502 -0.174
43.5805 0.343
43.6108 0.079
43.6411 0.075
43.6713 0.124
43.7016 0.433
43.7319 -0.091
43.7622 -0.041
43.7925 -0.096
43.8227 0.474
43.8530 0.055
43.8833 -0.103
43.9136 0.155
43.9439 0.154
43.9741 -0.056
44.0044 0.047
44.0347 -0.111
44.0650 -0.008
44.0952 -0.060
44.1255 -0.009
44.1558 0.147
44.1861 0.043
44.2164 -0.062
44.2466 -0.061
44.2769 -0.113
44.3072 -0.061
44.3375 0.044
44.3678 0.045
44.3980 -0.110
44.4283 0.152
44.4586 -0.107
44.4889 -0.106
44.5191 -0.260
44.5494 0.053
44.5797 -0.155
44.6100 -0.154
44.6403 -0.101
44.6705 -0.100
44.7008 -0.151
44.7311 -0.202
44.7614 0.373
44.7917 0.271
44.8219 0.220
44.8522 -0.194
44.8825 0.225
44.9128 0.019
44.9430 0.283
44.9733 0.285
45.0036 0.132
45.0339 -0.021
45.0642 -0.277
45.0944 0.195
45.1247 0.095
45.1550 -0.005
45.1853 -0.001
45.2156 0.160
45.2458 0.008
45.2761 -0.196
45.3064 0.174
45.3367 0.075
45.3669 -0.076
45.3972 0.190
45.4275 -0.221
45.4578 -0.006
45.4881 0.312
45.5183 -0.098
45.5486 -0.196
45.5789 -0.053
45.6092 -0.118
45.6395 -0.079
45.6697 -0.196
45.7000 0.624
45.7303 0.403
45.7606 -0.130
45.7908 0.014
45.8211 0.107
45.8514 -0.009
45.8817 0.135
45.9120 0.020
45.9422 0.373
45.9725 -0.003
46.0028 0.143
46.0331 0.080
46.0634 -0.087
46.0936 0.320
46.1239 -0.159
46.1542 0.039
46.1845 0.082
46.2147 0.281
46.2450 -0.041
46.2753 0.106
46.3056 0.045
46.3359 0.140
46.3661 0.132
46.3964 -0.189
46.4267 -0.250
46.4570 0.004
46.4873 0.623
46.5175 0.044
46.5478 -0.118
46.5781 0.345
46.6084 -0.025
46.6386 0.282
46.6689 -0.140
46.6992 0.220
46.7295 0.267
46.7598 0.210
46.7900 0.050
46.8203 0.254
46.8506 0.041
46.8809 0.506
46.9112 0.711
46.9414 0.291
46.9717 0.183
47.0020 0.753
47.0323 -0.083
47.0626 0.539
47.0928 0.901
47.1231 0.951
47.1534 0.636
47.1837 0.738
47.2139 1.414
47.2442 1.620
47.2745 0.890
47.3048 1.930
47.3351 1.200
47.3653 1.980
47.3956 2.813
47.4259 2.031
47.4562 2.344
47.4865 2.083
47.5167 1.510
47.5470 1.198
47.5773 1.199
47.6076 1.355
47.6378 0.940
47.6681 0.784
47.6984 1.254
47.7287 0.579
47.7590 1.101
47.7892 0.842
47.8195 0.532
47.8498 0.326
47.8801 -0.089
47.9104 0.695
47.9406 0.333
47.9709 0.649
48.0012 0.183
48.0315 0.186
48.0617 0.294
48.0920 -0.015
48.1223 -0.011
48.1526 -0.111
48.1829 0.153
48.2131 -0.259
48.2434 -0.308
48.2737 0.320
48.3040 0.168
48.3343 0.588
48.3645 -0.085
48.3948 0.284
48.4251 -0.285
48.4554 0.396
48.4856 -0.016
48.5159 -0.219
48.5462 -0.162
48.5765 0.208
48.6068 -0.151
48.6370 0.010
48.6673 -0.244
48.6976 -0.186
48.7279 -0.232
48.7582 -0.018
48.7884 -0.271
48.8187 0.256
48.8490 -0.414
48.8793 -0.095
48.9095 0.121
48.9398 0.285
48.9701 0.032
49.0004 -0.064
49.0307 -0.369
49.0609 0.004
49.0912 0.168
49.1215 0.385
49.1518 -0.023
49.1821 -0.067
49.2123 0.203
49.2426 0.003
49.2729 0.013
49.3032 0.334
49.3334 0.240
49.3637 0.041
49.3940 -0.157
49.4243 0.218
49.4546 0.280
49.4848 0.864
49.5151 0.354
49.5454 0.521
49.5757 0.220
49.6060 0.543
49.6362 0.763
49.6665 -0.006
49.6968 -0.203
49.7271 -0.054
49.7574 0.199
49.7876 0.348
49.8179 0.601
49.8482 0.594
49.8785 0.535
49.9087 -0.148
49.9390 0.210
49.9693 0.152
49.9996 -0.011
50.0299 -0.016
50.0601 0.082
50.0904 0.181
50.1207 0.488
50.1510 0.327
50.1813 0.062
50.2115 0.005
50.2418 -0.260
50.2721 -0.058
50.3024 0.040
50.3326 0.191
50.3629 0.185
50.3932 0.076
50.4235 -0.190
50.4538 0.221
50.4840 0.269
50.5143 0.160
50.5446 0.051
50.5749 0.359
50.6052 0.199
50.6354 0.143
50.6657 -0.017
50.6960 -0.333
50.7263 0.080
50.7565 0.337
50.7868 -0.082
50.8171 0.175
50.8474 0.381
50.8777 0.014
50.9079 0.376
50.9382 -0.199
50.9685 -0.045
50.9988 0.110
51.0291 0.421
51.0593 0.159
51.0896 -0.311
51.1199 -0.051
51.1502 0.052
51.1804 0.104
51.2107 -0.001
51.2410 0.051
51.2713 0.155
51.3016 -0.105
51.3318 0.208
51.3621 0.000
51.3924 0.313
51.4227 -0.207
51.4530 0.159
51.4832 0.056
51.5135 0.162
51.5438 -0.097
51.5741 0.218
51.6043 0.220
51.6346 0.066
51.6649 -0.036
51.6952 -0.242
51.7255 0.386
51.7557 0.181
51.7860 -0.233
51.8163 -0.230
51.8466 -0.072
51.8769 0.086
51.9071 0.296
51.9374 0.245
51.9677 0.299
51.9980 -0.219
52.0282 0.200
52.0585 0.150
52.0888 0.153
52.1191 0.364
52.1494 0.055
52.1796 -0.046
52.2099 0.166
52.2402 0.118
52.2705 0.226
52.3008 0.230
52.3310 -0.078
52.3613 0.395
52.3916 0.035
52.4219 0.040
52.4521 0.253
52.4824 -0.263
52.5127 -0.153
52.5430 0.165
52.5733 -0.090
52.6035 -0.240
52.6338 0.495
52.6641 0.606
52.6944 0.404
52.7247 0.254
52.7549 0.261
52.7852 0.529
52.8155 0.171
52.8458 0.023
52.8761 -0.282
52.9063 -0.080
52.9366 -0.034
52.9669 0.220
52.9972 -0.306
53.0274 -0.156
53.0577 -0.057
53.0880 -0.010
53.1183 0.349
53.1486 0.293
53.1788 0.027
53.2091 0.388
53.2394 0.383
53.2697 -0.142
53.3000 -0.093
53.3302 0.111
53.3605 -0.153
53.3908 -0.156
53.4211 0.153
53.4513 0.202
53.4816 0.043
53.5119 0.145
53.5422 0.038
53.5725 0.036
53.6027 0.190
53.6330 0.137
53.6633 -0.073
53.6936 -0.179
53.7239 0.132
53.7541 0.287
53.7844 -0.026
53.8147 -0.339
53.8450 -0.030
53.8752 -0.034
53.9055 -0.298
53.9358 0.116
53.9661 0.373
53.9964 -0.150
54.0266 0.108
54.0569 0.314
54.0872 0.155
54.1175 -0.055
54.1478 0.047
54.1780 -0.215
54.2083 0.096
54.2386 0.303
54.2689 0.146
54.2991 0.145
54.3294 0.248
54.3597 -0.117
54.3900 -0.273
54.4203 0.143
54.4505 0.039
54.4808 -0.013
54.5111 -0.012
54.5414 -0.428
54.5717 0.354
54.6019 0.094
54.6322 -0.165
54.6625 0.045
54.6928 0.255
54.7230 0.100
54.7533 -0.314
54.7836 -0.165
54.8139 -0.015
54.8442 0.083
54.8744 0.234
54.9047 0.280
54.9350 0.118
54.9653 -0.096
54.9956 0.108
55.0258 -0.366
55.0561 0.202
55.0864 -0.324
55.1167 0.349
55.1469 -0.020
55.1772 0.028
55.2075 -0.132
55.2378 -0.396
55.2681 0.067
55.2983 0.114
55.3286 -0.099
55.3589 0.157
55.3892 0.204
55.4195 0.304
55.4497 0.039
55.4800 -0.069
55.5103 0.188
55.5406 0.080
55.5709 0.233
55.6011 0.021
55.6314 0.070
55.6617 0.275
55.6920 0.533
55.7222 0.114
55.7525 0.164
55.7828 0.109
55.8131 0.159
55.8434 0.001
55.8736 0.156
55.9039 0.415
55.9342 0.726
55.9645 0.100
55.9948 0.724
56.0250 0.620
56.0553 1.244
56.0856 0.567
56.1159 1.556
56.1461 1.036
56.1764 0.932
56.2067 1.088
56.2370 1.401
56.2673 2.548
56.2975 3.643
56.3278 3.332
56.3581 2.760
56.3884 3.751
56.4187 3.441
56.4489 4.172
56.4792 3.393
56.5095 4.541
56.5398 4.387
56.5700 2.723
56.6003 2.205
56.6306 3.354
56.6609 2.159
56.6912 2.267
56.7214 1.177
56.7517 1.545
56.7820 1.393
56.8123 1.189
56.8426 1.662
56.8728 0.677
56.9031 0.838
56.9334 0.739
56.9637 0.432
56.9939 0.698
57.0242 0.234
57.0545 0.188
57.0848 0.246
57.1151 0.356
57.1453 -0.002
57.1756 0.161
57.2059 0.167
57.2362 -0.243
57.2665 0.129
57.2967 0.136
57.3270 0.300
57.3573 0.203
57.3876 0.419
57.4178 0.375
57.4481 0.227
57.4784 -0.181
57.5087 0.244
57.5390 0.045
57.5692 0.314
57.5995 -0.042
57.6298 0.124
57.6601 0.290
57.6904 0.039
57.7206 0.153
57.7509 0.215
57.7812 0.277
57.8115 0.079
57.8417 0.298
57.8720 -0.212
57.9023 0.008
57.9326 0.383
57.9629 -0.022
57.9931 0.354
58.0234 0.210
58.0537 -0.195
58.0840 -0.183
58.1143 0.024
58.1445 0.179
58.1748 0.386
58.2051 0.021
58.2354 -0.136
58.2656 0.176
58.2959 0.123
58.3262 0.071
58.3565 0.123
58.3868 0.019
58.4170 0.280
58.4473 0.385
58.4776 0.385
58.5079 0.282
58.5382 0.388
58.5684 0.233
58.5987 0.130
58.6290 -0.024
58.6593 0.342
58.6896 0.396
58.7198 0.086
58.7501 0.141
58.7804 0.247
58.8107 -0.062
58.8409 0.201
58.8712 0.309
58.9015 0.416
58.9318 0.212
58.9621 0.424
58.9923 0.428
59.0226 -0.089
59.0529 0.124
59.0832 0.389
59.1135 0.081
59.1437 0.034
59.1740 -0.170
59.2043 -0.069
59.2346 -0.124
59.2648 0.133
59.2951 0.339
59.3254 0.388
59.3557 0.542
59.3860 0.227
59.4162 0.486
59.4465 0.119
59.4768 0.274
59.5071 0.428
59.5374 0.479
59.5676 -0.095
59.5979 -0.148
59.6282 0.164
59.6585 0.267
59.6887 0.006
59.7190 0.006
59.7493 0.110
59.7796 0.111
59.8099 0.267
59.8401 0.372
59.8704 0.477
59.9007 0.217
59.9310 0.062
59.9613 -0.197
59.9915 -0.099
60.0218 0.103
60.0521 0.150
60.0824 0.405
60.1126 -0.070
60.1429 0.029
60.1732 -0.080
60.2035 0.228
60.2338 0.328
60.2640 0.115
60.2943 -0.306
60.3246 0.106
60.3549 0.103
60.3852 0.047
60.4154 -0.269
60.4457 0.196
60.4760 0.089
60.5063 -0.018
60.5365 -0.229
60.5668 0.133
60.5971 -0.078
60.6274 0.441
60.6577 0.022
60.6879 0.229
60.7182 0.019
60.7485 0.590
60.7788 -0.140
60.8091 0.119
60.8393 0.327
60.8696 0.013
60.8999 0.117
60.9302 -0.091
60.9604 -0.196
60.9907 -0.154
61.0210 0.045
61.0513 0.296
61.0816 0.234
61.1118 0.225
61.1421 -0.201
61.1724 0.051
61.2027 -0.062
61.2330 -0.227
61.2632 0.390
61.2935 0.017
61.3238 0.217
61.3541 0.157
61.3844 0.202
61.4146 0.142
61.4449 -0.073
61.4752 0.128
61.5055 -0.087
61.5357 0.011
61.5660 0.264
61.5963 0.102
61.6266 0.096
61.6569 -0.014
61.6871 -0.176
61.7174 0.183
61.7477 -0.031
61.7780 0.016
61.8083 0.688
61.8385 0.007
61.8688 0.054
61.8991 0.102
61.9294 0.098
61.9596 0.041
61.9899 -0.067
62.0202 0.086
62.0505 0.030
62.0808 -0.077
62.1110 0.180
62.1413 -0.448
62.1716 0.175
62.2019 0.589
62.2322 0.430
62.2624 0.272
62.2927 0.218
62.3230 0.945
62.3533 0.527
62.3835 0.474
62.4138 1.462
62.4441 0.576
62.4744 1.148
62.5047 1.824
62.5349 1.772
62.5652 1.146
62.5955 2.448
62.6258 1.355
62.6561 2.709
62.6863 2.553
62.7166 2.398
62.7469 1.357
62.7772 2.400
62.8074 1.672
62.8377 1.882
62.8680 2.300
62.8983 1.104
62.9286 1.991
62.9588 1.368
62.9891 1.475
63.0194 0.332
63.0497 0.907
63.0800 1.066
63.1102 0.601
63.1405 0.760
63.1708 0.295
63.2011 -0.066
63.2313 0.042
63.2616 0.046
63.2919 0.155
63.3222 0.211
63.3525 -0.045
63.3827 0.429
63.4130 0.382
63.4433 -0.134
63.4736 -0.181
63.5039 0.033
63.5341 -0.013
63.5644 0.410
63.5947 -0.053
63.6250 0.005
63.6552 -0.040
63.6855 -0.086
63.7158 -0.287
63.7461 0.032
63.7764 -0.117
63.8066 -0.110
63.8369 -0.050
63.8672 -0.042
63.8975 -0.139
63.9278 -0.078
63.9580 -0.435
63.9883 0.042
64.0186 0.155
64.0489 0.529
64.0791 0.329
64.1094 0.026
64.1397 0.192
64.1700 -0.111
64.2003 0.263
64.2305 -0.040
64.2608 -0.081
64.2911 -0.227
64.3214 0.032
64.3517 0.187
64.3819 -0.231
64.4122 0.133
64.4425 0.028
64.4728 -0.128
64.5031 0.184
64.5333 0.236
64.5636 -0.128
64.5939 0.185
64.6242 0.081
64.6544 0.082
64.6847 -0.230
64.7150 0.084
64.7453 -0.019
64.7756 -0.017
64.8058 -0.276
64.8361 0.247
64.8664 -0.064
64.8967 -0.270
64.9270 0.045
64.9572 -0.108
64.9875 -0.105
65.0178 0.002
65.0481 0.005
65.0783 -0.200
65.1086 -0.051
65.1389 -0.267
65.1692 0.142
65.1995 0.135
65.2297 -0.340
65.2600 -0.086
65.2903 0.220
65.3206 -0.099
65.3509 0.207
65.3811 -0.007
65.4114 0.196
65.4417 0.138
65.4720 0.185
65.5022 0.180
65.5325 -0.138
65.5628 0.118
65.5931 -0.147
65.6234 -0.203
65.6536 -0.208
65.6839 -0.006
65.7142 -0.221
65.7445 0.138
65.7748 -0.025
65.8050 0.334
65.8353 -0.088
65.8656 0.062
65.8959 0.057
65.9261 0.312
65.9564 0.099
65.9867 0.198
66.0170 0.298
66.0473 0.137
66.0775 0.237
66.1078 0.025
66.1381 0.178
66.1684 0.643
66.1987 0.170
66.2289 0.480
66.2592 0.945
66.2895 0.265
66.3198 0.106
66.3500 0.000
66.3803 0.154
66.4106 0.308
66.4409 0.358
66.4712 0.356
66.5014 0.094
66.5317 -0.011
66.5620 0.248
66.5923 -0.014
66.6226 -0.431
66.6528 0.089
66.6831 0.297
66.7134 -0.328
66.7437 -0.068
66.7739 -0.068
66.8042 -0.328
66.8345 0.141
66.8648 -0.014
66.8951 -0.378
66.9253 -0.012
66.9556 0.041
66.9859 -0.010
67.0162 -0.060
67.0465 0.254
67.0767 -0.004
67.1070 -0.262
67.1373 -0.061
67.1676 0.193
67.1978 0.030
67.2281 -0.081
67.2584 0.330
67.2887 0.532
67.3190 0.318
67.3492 0.313
67.3795 0.411
67.4098 0.614
67.4401 0.401
67.4704 0.604
67.5006 0.339
67.5309 0.960
67.5612 1.320
67.5915 1.420
67.6218 1.104
67.6520 2.402
67.6823 1.878
67.7126 1.770
67.7429 1.403
67.7731 1.452
67.8034 2.334
67.8337 1.238
67.8640 2.121
67.8943 1.702
67.9245 1.440
67.9548 1.906
67.9851 1.280
68.0154 1.539
68.0457 1.433
68.0759 1.172
68.1062 0.858
68.1365 0.910
68.1668 0.753
68.1970 0.180
68.2273 -0.133
68.2576 0.284
68.2879 0.336
68.3182 0.388
68.3484 0.024
68.3787 0.390
68.4090 0.130
68.4393 -0.285
68.4696 0.081
68.4998 0.603
68.5301 0.188
68.5604 0.502
68.5907 0.088
68.6209 0.298
68.6512 0.561
68.6815 0.147
68.7118 0.254
68.7421 0.362
68.7723 0.261
68.8026 0.316
68.8329 0.320
68.8632 0.740
68.8935 0.484
68.9237 0.540
68.9540 0.544
68.9843 0.445
69.0146 0.762
69.0448 0.454
69.0751 0.824
69.1054 0.621
69.1357 0.470
69.1660 0.476
69.1962 0.221
69.2265 0.175
69.2568 0.181
69.2871 0.760
69.3174 0.090
69.3476 -0.007
69.3779 0.156
69.4082 0.111
69.4385 -0.194
69.4687 -0.135
69.4990 0.498
69.5293 -0.171
69.5596 0.202
69.5899 0.470
69.6201 -0.146
69.6504 0.071
69.6807 0.080
69.7110 0.141
69.7413 -0.111
69.7715 -0.362
69.8018 0.061
69.8321 -0.036
69.8624 -0.030
69.8926 0.133
69.9229 -0.224
69.9532 0.200
69.9835 0.051
70.0138 -0.098
70.0440 0.066
70.0743 0.074
70.1046 -0.126
70.1349 0.091
70.1652 -0.317
70.1954 0.004
70.2257 -0.039
70.2560 -0.186
70.2863 0.031
70.3166 -0.116
70.3468 -0.158
70.3771 0.060
70.4074 0.279
70.4377 -0.180
70.4679 -0.170
70.4982 -0.116
70.5285 -0.009
70.5588 -0.267
70.5891 0.152
70.6193 0.207
70.6496 0.366
70.6799 0.108
70.7102 0.111
70.7405 -0.041
70.7707 -0.298
70.8010 0.012
70.8313 0.322
70.8616 0.216
70.8918 0.214
70.9221 0.265
70.9524 -0.153
70.9827 0.106
71.0130 0.052
71.0432 -0.053
71.0735 -0.001
71.1038 0.207
71.1341 -0.106
71.1644 0.050
71.1946 0.206
71.2249 0.102
71.2552 0.259
71.2855 -0.053
71.3157 0.052
71.3460 0.053
71.3763 -0.050
71.4066 0.160
71.4369 -0.151
71.4671 0.059
71.4974 0.061
71.5277 0.115
71.5580 -0.143
71.5883 0.068
71.6185 0.226
71.6488 -0.135
71.6791 0.076
71.7094 -0.025
71.7396 -0.021
71.7699 0.190
71.8002 0.038
71.8305 -0.166
71.8608 -0.065
71.8910 0.141
71.9213 0.138
71.9516 -0.020
71.9819 -0.126
72.0122 -0.128
72.0424 -0.077
72.0727 0.129
72.1030 0.024
72.1333 0.075
72.1635 -0.134
72.1938 0.282
72.2241 -0.031
72.2544 0.021
72.2847 0.072
72.3149 0.229
72.3452 0.281
72.3755 0.438
72.4058 0.282
72.4361 -0.030
72.4663 0.492
72.4966 0.389
72.5269 0.234
72.5572 0.236
72.5874 0.186
72.6177 0.240
72.6480 0.190
72.6783 0.296
72.7086 -0.014
72.7388 0.197
72.7691 0.148
72.7994 0.151
72.8297 -0.158
72.8600 -0.155
72.8902 -0.155
72.9205 -0.052
72.9508 0.206
72.9811 0.309
73.0113 -0.161
73.0416 0.150
73.0719 0.253
73.1022 0.044
73.1325 -0.165
73.1627 -0.009
73.1930 -0.009
73.2233 -0.165
73.2536 0.148
73.2839 0.096
73.3141 -0.112
73.3444 0.045
73.3747 -0.006
73.4050 -0.109
73.4353 -0.056
73.4655 0.258
73.4958 -0.052
73.5261 -0.155
73.5564 -0.055
73.5866 0.252
73.6169 -0.065
73.6472 -0.017
73.6775 0.291
73.7078 -0.025
73.7380 0.023
73.7683 0.020
73.7986 0.016
73.8289 -0.195
73.8592 0.010
73.8894 -0.097
73.9197 0.265
73.9500 -0.102
73.9803 0.052
74.0105 -0.159
74.0408 0.048
74.0711 -0.215
74.1014 0.149
74.1317 -0.061
74.1619 -0.062
74.1922 0.041
74.2225 0.040
74.2528 -0.117
74.2831 0.247
74.3133 -0.013
74.3436 -0.222
74.3739 -0.012
74.4042 -0.116
74.4344 -0.166
74.4647 0.095
74.4950 -0.059
74.5253 0.255
74.5556 0.049
74.5858 -0.053
74.6161 0.053
74.6464 0.212
74.6767 -0.098
74.7070 0.061
74.7372 0.273
74.7675 -0.036
74.7978 -0.085
74.8281 -0.081
74.8583 0.183
74.8886 0.135
74.9189 0.191
74.9492 -0.013
74.9795 0.044
75.0097 0.049
75.0400 -0.155
75.0703 -0.155
75.1006 0.000
75.1309 -0.105
75.1611 0.050
75.1914 0.206
75.2217 -0.003
75.2520 -0.003
75.2822 0.257
75.3125 -0.003
75.3428 0.049
75.3731 0.310
75.4034 -0.106
75.4336 0.208
75.4639 -0.104
75.4942 -0.155
75.5245 -0.109
75.5548 0.040
75.5850 -0.018
75.6153 0.132
75.6456 0.178
75.6759 0.015
75.7061 -0.094
75.7364 0.265
75.7667 0.103
75.7970 -0.215
75.8273 0.093
75.8575 -0.120
75.8878 -0.021
75.9181 -0.025
75.9484 -0.133
75.9787 0.123
76.0089 -0.193
76.0392 -0.041
76.0695 0.164
76.0998 -0.047
76.1301 0.054
76.1603 -0.158
76.1906 -0.056
76.2209 -0.111
76.2512 -0.061
76.2814 -0.115
76.3117 0.195
76.3420 0.037
76.3723 -0.277
76.4026 -0.073
76.4328 -0.129
76.4631 -0.029
76.4934 -0.293
76.5237 0.277
76.5540 0.013
76.5842 0.010
76.6145 0.111
76.6448 -0.048
76.6751 0.157
76.7053 0.155
76.7356 0.413
76.7659 0.567
76.7962 0.149
76.8265 0.147
76.8567 -0.011
76.8870 0.040
76.9173 -0.065
76.9476 0.142
76.9779 0.037
77.0081 -0.067
77.0384 -0.016
77.0687 0.140
77.0990 0.140
77.1292 0.036
77.1595 -0.224
77.1898 0.089
77.2201 -0.014
77.2504 -0.169
77.2806 -0.064
77.3109 -0.167
77.3412 0.043
77.3715 -0.216
77.4018 -0.058
77.4320 -0.160
77.4623 0.103
77.4926 -0.051
77.5229 -0.153
77.5531 -0.046
77.5834 -0.147
77.6137 -0.091
77.6440 -0.036
77.6743 0.124
77.7045 -0.029
77.7348 0.079
77.7651 0.032
77.7954 -0.277
77.8257 -0.068
77.8559 -0.120
77.8862 0.036
77.9165 -0.015
77.9468 0.037
77.9770 0.090
78.0073 -0.273
78.0376 -0.011
78.0679 0.146
78.0982 -0.060
78.1284 0.098
78.1587 -0.265
78.1890 0.154
78.2193 -0.052
78.2496 -0.258
78.2798 0.058
78.3101 0.269
78.3404 0.012
78.3707 -0.193
78.4009 0.071
78.4312 0.126
78.4615 0.026
78.4918 -0.126
78.5221 -0.070
78.5523 -0.170
78.5826 -0.170
78.6129 -0.016
78.6432 0.293
78.6735 -0.022
78.7037 -0.337
78.7340 0.077
78.7643 0.231
78.7946 -0.188
78.8248 -0.242
78.8551 0.225
78.8854 0.015
78.9157 -0.090
78.9460 0.117
78.9762 0.012
79.0065 -0.301
79.0368 -0.043
79.0671 0.163
79.0974 0.161
79.1276 0.055
79.1579 -0.050
79.1882 0.000
79.2185 -0.001
79.2488 0.207
79.2790 -0.107
79.3093 -0.211
79.3396 0.153
79.3699 0.205
79.4001 -0.056
79.4304 0.101
79.4607 -0.003
79.4910 -0.003
79.5213 -0.106
79.5515 0.155
79.5818 0.260
79.6121 0.105
79.6424 -0.101
79.6727 -0.204
79.7029 0.423
79.7332 -0.252
79.7635 -0.146
79.7938 -0.143
79.8240 -0.037
79.8543 -0.086
79.8846 0.073
79.9149 -0.080
79.9452 -0.077
79.9754 0.240
80.0057 -0.017
80.0360 -0.170
80.0663 -0.115
80.0966 -0.008
80.1268 -0.109
80.1571 -0.105
80.1874 -0.154
80.2177 0.267
80.2479 -0.146
80.2782 0.275
80.3085 -0.294
80.3388 0.127
80.3691 0.080
80.3993 0.137
80.4296 0.089
80.4599 -0.009
80.4902 -0.004
80.5205 -0.155
80.5507 -0.103
80.5810 -0.155
80.6113 -0.106
80.6416 0.359
80.6718 -0.008
80.7021 -0.115
80.7324 0.142
80.7627 0.192
80.7930 0.137
80.8232 0.083
80.8535 -0.023
80.8838 0.236
80.9141 0.130
80.9444 -0.132
80.9746 0.023
81.0049 0.335
81.0352 0.073
81.0655 -0.084
81.0957 0.281
81.1260 0.124
81.1563 0.280
81.1866 0.384
81.2169 -0.084
81.2471 -0.136
81.2774 0.282
81.3077 0.282
81.3380 -0.185
81.3683 0.233
81.3985 -0.078
81.4288 0.131
81.4591 0.029
81.4894 0.291
81.5196 0.502
81.5499 0.244
81.5802 -0.014
81.6105 0.041
81.6408 0.044
81.6710 0.255
81.7013 -0.002
81.7316 -0.155
81.7619 -0.155
81.7922 -0.156
81.8224 0.260
81.8527 -0.053
81.8830 -0.105
81.9133 0.155
81.9436 0.155
81.9738 0.051
82.0041 0.051
82.0344 0.000
82.0647 0.105
82.0949 -0.155
82.1252 -0.212
82.1555 0.200
82.1858 0.300
82.2161 0.295
82.2463 -0.177
82.2766 -0.077
82.3069 0.023
82.3372 0.228
82.3675 0.120
82.3977 0.117
82.4280 -0.199
82.4583 -0.045
82.4886 0.369
82.5188 0.054
82.5491 0.156
82.5794 -0.107
82.6097 -0.057
82.6400 -0.006
82.6702 -0.008
82.7005 0.095
82.7308 0.198
82.7611 -0.064
82.7914 0.300
82.8216 -0.117
82.8519 -0.170
82.8822 -0.014
82.9125 -0.014
82.9427 -0.067
82.9730 0.037
83.0033 -0.223
83.0336 -0.014
83.0639 0.142
83.0941 0.143
83.1244 -0.117
83.1547 -0.063
83.1850 0.042
83.2153 0.252
83.2455 0.097
83.2758 0.099
83.3061 -0.160
83.3364 -0.053
83.3666 0.001
83.3969 0.056
83.4272 0.006
83.4575 -0.199
83.4878 0.169
83.5180 0.120
83.5483 0.227
83.5786 0.023
83.6089 0.027
83.6392 0.031
83.6694 0.243
83.6997 0.300
83.7300 -0.008
83.7603 -0.003
83.7905 -0.155
83.8208 -0.051
83.8511 0.001
83.8814 0.001
83.9117 -0.155
83.9419 -0.055
83.9722 0.202
84.0025 -0.166
84.0328 0.195
84.0631 0.192
84.0933 0.136
84.1236 0.290
84.1539 -0.130
84.1842 -0.028
84.2144 0.022
84.2447 -0.032
84.2750 0.382
84.3053 -0.140
84.3356 0.066
84.3658 -0.195
84.3961 0.168
84.4264 -0.094
84.4567 0.062
84.4870 0.270
84.5172 -0.096
84.5475 0.113
84.5778 0.008
84.6081 0.165
84.6383 -0.095
84.6686 0.061
84.6989 0.166
84.7292 0.063
84.7595 0.116
84.7897 0.013
84.8200 -0.194
84.8503 -0.040
84.8806 0.167
84.9109 0.165
84.9411 0.060
84.9714 -0.202
85.0017 0.318
85.0320 -0.100
85.0623 -0.100
85.0925 0.055
85.1228 0.003
85.1531 -0.049
85.1834 0.055
85.2136 -0.205
85.2439 0.108
85.2742 0.004
85.3045 -0.099
85.3348 0.111
85.3650 -0.044
85.3953 -0.147
85.4256 -0.041
85.4559 -0.040
85.4862 -0.194
85.5164 0.016
85.5467 -0.139
85.5770 0.072
85.6073 0.178
85.6375 0.284
85.6678 0.443
85.6981 -0.127
85.7284 0.084
85.7587 0.087
85.7889 0.142
85.8192 0.042
85.8495 -0.007
85.8798 -0.003
85.9101 0.209
85.9403 -0.151
85.9706 0.166
86.0009 -0.194
86.0312 -0.033
86.0614 0.128
86.0917 0.029
86.1220 0.086
86.1523 -0.064
86.1826 -0.111
86.2128 0.051
86.2431 0.005
86.2734 0.116
86.3037 -0.138
86.3340 -0.138
86.3642 -0.092
86.3945 0.371
86.4248 -0.207
86.4551 0.309
86.4853 -0.061
86.5156 0.299
86.5459 0.138
86.5762 0.290
86.6065 0.026
86.6367 -0.083
86.6670 -0.034
86.6973 0.118
86.7276 0.115
86.7579 -0.045
86.7881 -0.100
86.8184 -0.155
86.8487 0.051
86.8790 -0.159
86.9092 0.100
86.9395 0.306
86.9698 0.096
87.0001 -0.061
87.0304 -0.166
87.0606 0.041
87.0909 -0.064
87.1212 -0.013
87.1515 -0.013
87.1818 0.299
87.2120 0.246
87.2423 0.038
87.2726 -0.170
87.3029 -0.013
87.3331 -0.169
87.3634 0.352
87.3937 0.093
87.4240 -0.166
87.4543 -0.113
87.4845 -0.008
87.5148 -0.058
87.5451 -0.056
87.5754 -0.054
87.6057 -0.156
87.6359 0.158
87.6662 0.057
87.6965 0.320
87.7268 0.062
87.7571 -0.143
87.7873 0.069
87.8176 0.020
87.8479 0.284
87.8782 0.340
87.9084 0.135
87.9387 0.140
87.9690 0.144
87.9993 -0.008
88.0296 0.466
88.0598 0.054
88.0901 0.007
88.1204 -0.092
88.1507 -0.138
88.1810 0.062
88.2112 0.055
88.2415 0.099
88.2718 0.092
88.3021 0.033
88.3323 0.078
88.3626 -0.137
88.3929 -0.091
88.4232 0.059
88.4535 0.313
88.4837 0.307
88.5140 0.093
88.5443 0.139
88.5746 0.186
88.6049 -0.079
88.6351 -0.084
88.6654 -0.193
88.6957 0.115
88.7260 -0.098
88.7562 0.262
88.7865 0.102
88.8168 0.098
88.8471 -0.010
88.8774 -0.170
88.9076 -0.125
88.9379 0.025
88.9682 0.122
88.9985 0.324
89.0288 -0.099
89.0590 0.259
89.0893 -0.007
89.1196 -0.065
89.1499 0.086
89.1801 -0.024
89.2104 0.127
89.2407 0.382
89.2710 0.065
89.3013 0.164
89.3315 -0.205
89.3618 0.208
89.3921 0.204
89.4224 0.773
89.4527 -0.012
89.4829 0.244
89.5132 0.293
89.5435 0.082
89.5738 0.287
89.6040 -0.185
89.6343 0.073
89.6646 0.227
89.6949 0.069
89.7252 0.171
89.7554 0.221
89.7857 -0.041
89.8160 0.166
89.8463 -0.200
89.8766 0.215
89.9068 -0.202
89.9371 0.005
89.9674 -0.099
89.9977 0.109
90.0279 -0.048
90.0582 0.108
90.0885 -0.100
90.1188 -0.151
90.1491 -0.047
90.1793 -0.098
90.2096 0.111
90.2399 0.112
90.2702 -0.147
90.3005 0.115
90.3307 0.117
90.3610 -0.038
90.3913 -0.088
90.4216 0.227
90.4518 0.126
90.4821 -0.236
90.5124 0.027
90.5427 -0.022
90.5730 -0.280
90.6032 -0.015
90.6335 -0.063
90.6638 -0.110
90.6941 -0.054
90.7244 -0.049
90.7546 0.321
90.7849 0.014
90.8152 0.019
90.8455 0.337
90.8758 0.187
90.9060 0.036
90.9363 -0.322
90.9666 0.049
90.9969 0.055
91.0271 0.166
91.0574 -0.087
91.0877 0.232
91.1180 -0.073
91.1483 -0.170
91.1785 -0.014
91.2088 -0.066
91.2391 0.038
91.2694 -0.170
91.2997 0.090
91.3299 -0.013
91.3602 -0.117
91.3905 -0.064
91.4208 0.093
91.4510 -0.166
91.4813 0.200
91.5116 0.045
91.5419 0.255
91.5722 0.101
91.6024 -0.105
91.6327 0.158
91.6630 -0.204
91.6933 0.319
91.7236 -0.147
91.7538 -0.144
91.7841 0.224
91.8144 0.280
91.8447 -0.029
91.8749 0.079
91.9052 -0.021
91.9355 -0.017
91.9658 0.091
91.9961 -0.060
92.0263 -0.056
92.0566 -0.155
92.0869 -0.056
92.1172 0.096
92.1475 0.247
92.1777 0.191
92.2080 0.395
92.2383 -0.130
92.2686 -0.030
92.2988 -0.034
92.3291 0.015
92.3594 0.272
92.3897 0.165
92.4200 0.214
92.4502 -0.050
92.4805 -0.156
92.5108 0.518
92.5411 0.151
92.5714 0.306
92.6016 0.304
92.6319 -0.063
92.6622 0.040
92.6925 -0.170
92.7227 -0.068
92.7530 0.294
92.7833 -0.072
92.8136 -0.022
92.8439 -0.024
92.8741 0.079
92.9044 0.129
92.9347 0.128
92.9650 0.075
92.9953 -0.030
93.0255 0.230
93.0558 -0.031
93.0861 0.125
93.1164 -0.084
93.1466 0.281
93.1769 -0.240
93.2072 0.334
93.2375 0.439
93.2678 0.179
93.2980 0.024
93.3283 0.233
93.3586 0.443
93.3889 0.080
93.4192 -0.231
93.4494 0.136
93.4797 0.034
93.5100 0.036
93.5403 -0.013
93.5706 -0.010
93.6008 -0.008
93.6311 -0.057
93.6614 -0.053
93.6917 0.106
93.7219 -0.046
93.7522 0.270
93.7825 0.014
93.8128 0.278
93.8431 0.075
93.8733 0.235
93.9036 0.032
93.9339 0.037
93.9642 -0.166
93.9945 -0.068
94.0247 -0.125
94.0550 0.182
94.0853 0.125
94.1156 0.224
94.1458 0.219
94.1761 -0.046
94.2064 0.054
94.2367 0.259
94.2670 0.150
94.2972 -0.114
94.3275 -0.065
94.3578 0.192
94.3881 0.032
94.4184 0.029
94.4486 0.079
94.4789 0.076
94.5092 0.074
94.5395 -0.033
94.5697 0.330
94.6000 -0.245
94.6303 0.222
94.6606 0.116
94.6909 0.427
94.7211 0.166
94.7514 0.061
94.7817 0.268
94.8120 -0.045
94.8423 0.215
94.8725 0.007
94.9028 0.059
94.9331 0.372
94.9634 0.424
94.9936 0.477
95.0239 0.373
95.0542 0.270
95.0845 0.584
95.1148 0.741
95.1450 0.222
95.1753 0.588
95.2056 0.382
95.2359 0.332
95.2662 0.334
95.2964 0.389
95.3267 0.235
95.3570 0.498
95.3873 0.762
95.4175 0.556
95.4478 0.456
95.4781 0.615
95.5084 0.359
95.5387 0.206
95.5689 0.367
95.5992 -0.098
95.6295 0.792
95.6598 0.276
95.6901 0.177
95.7203 0.286
95.7506 0.239
95.7809 -0.172
95.8112 -0.166
95.8414 0.142
95.8717 0.242
95.9020 0.238
95.9323 0.129
95.9626 0.022
95.9928 0.278
96.0231 0.171
96.0534 0.116
96.0837 0.113
96.1140 0.370
96.1442 0.212
96.1745 0.365
96.2048 0.155
96.2351 0.205
96.2653 0.203
96.2956 -0.111
96.3259 0.044
96.3562 0.251
96.3865 -0.011
96.4167 0.197
96.4470 -0.012
96.4773 -0.013
96.5076 0.247
96.5379 -0.065
96.5681 -0.170
96.5984 -0.014
96.6287 -0.067
96.6590 -0.119
96.6893 -0.067
96.7195 0.089
96.7498 -0.119
96.7801 0.090
96.8104 0.090
96.8406 -0.222
96.8709 -0.118
96.9012 0.142
96.9315 -0.119
96.9618 -0.067
96.9920 -0.067
97.0223 -0.014
97.0526 -0.066
97.0829 -0.170
97.1132 0.032
97.1434 -0.184
97.1737 0.070
97.2040 0.011
97.2343 0.057
97.2645 -0.053
97.2948 -0.007
97.3251 0.091
97.3554 0.137
97.3857 0.028
97.4159 0.179
97.4462 -0.139
97.4765 -0.040
97.5068 0.008
97.5371 -0.101
97.5673 -0.157
97.5976 0.099
97.6279 0.043
97.6582 -0.274
97.6884 0.087
97.7187 -0.072
97.7490 0.081
97.7793 -0.339
97.8096 0.179
97.8398 -0.240
97.8701 -0.139
97.9004 -0.193
97.9307 0.222
97.9610 0.011
97.9912 0.062
98.0215 -0.096
98.0518 -0.045
98.0821 -0.307
98.1123 0.004
98.1426 0.420
98.1729 -0.102
98.2032 0.262
98.2335 -0.155
98.2637 0.105
98.2940 -0.104
98.3243 0.261
98.3546 0.052
98.3849 0.001
98.4151 0.262
98.4454 0.002
98.4757 0.211
98.5060 0.316
98.5362 -0.203
98.5665 0.163
98.5968 -0.044
98.6271 0.271
98.6574 0.325
98.6876 0.014
98.7179 -0.139
98.7482 0.228
98.7785 0.022
98.8088 0.077
98.8390 0.133
98.8693 -0.229
98.8996 -0.017
98.9299 0.091
98.9601 -0.061
98.9904 -0.265
99.0207 0.103
99.0510 -0.048
99.0813 -0.200
99.1115 0.007
99.1418 0.058
99.1721 0.005
99.2024 0.108
99.2327 -0.153
99.2629 -0.101
99.2932 0.107
99.3235 -0.205
99.3538 0.003
99.3841 0.056
99.4143 0.161
99.4446 -0.047
99.4749 -0.254
99.5052 0.424
99.5354 -0.044
99.5657 -0.094
99.5960 0.168
99.6263 -0.090
99.6566 0.120
99.6868 -0.138
99.7171 0.073
99.7474 0.075
99.7777 0.130
99.8080 0.185
99.8382 -0.072
99.8685 -0.069
99.8988 -0.117
99.9291 0.095
99.9593 -0.161
99.9896 0.051
100.0199 0.264
100.0502 -0.044
100.0805 -0.248
100.1107 0.174
100.1410 0.022
100.1713 0.288
100.2016 0.033
100.2319 -0.170
100.2621 -0.122
100.2924 0.290
100.3227 0.129
100.3530 0.177
100.3832 0.068
100.4135 0.429
100.4438 -0.252
100.4741 -0.099
100.5044 0.210
100.5346 -0.314
100.5649 0.256
100.5952 -0.059
100.6255 -0.062
100.6558 0.196
100.6860 -0.275
100.7163 0.140
100.7466 -0.019
100.7769 0.136
100.8071 0.082
100.8374 -0.075
100.8677 0.340
100.8980 0.079
100.9283 0.235
100.9585 -0.183
100.9888 -0.183
101.0191 0.127
101.0494 0.020
101.0797 0.226
101.1099 0.016
101.1402 -0.090
101.1705 0.065
101.2008 0.063
101.2310 0.010
101.2613 0.113
101.2916 -0.044
101.3219 0.216
101.3522 0.059
101.3824 0.215
101.4127 -0.046
101.4430 0.110
101.4733 -0.098
101.5036 -0.045
101.5338 -0.097
101.5641 -0.200
101.5944 0.056
101.6247 0.103
101.6549 0.047
101.6852 0.043
101.7155 0.091
101.7458 0.140
101.7761 0.188
101.8063 0.185
101.8366 -0.079
101.8669 0.022
101.8972 0.020
101.9275 -0.139
101.9577 0.171
101.9880 0.117
102.0183 0.167
102.0486 -0.252
102.0788 0.059
102.1091 -0.359
102.1394 -0.103
102.1697 0.153
102.2000 -0.111
102.2302 -0.063
102.2605 -0.171
102.2908 -0.018
102.3211 0.187
102.3514 -0.233
102.3816 0.129
102.4119 0.022
102.4422 0.176
102.4725 0.069
102.5028 0.119
102.5330 -0.091
102.5633 0.115
102.5936 0.166
102.6239 0.060
102.6541 0.007
102.6844 0.110
102.7147 0.005
102.7450 0.161
102.7753 0.160
102.8055 0.264
102.8358 0.368
102.8661 -0.100
102.8964 -0.048
102.9267 0.109
102.9569 0.213
102.9872 0.006
103.0175 -0.045
103.0478 -0.044
103.0780 0.114
103.1083 -0.041
103.1386 0.065
103.1689 0.275
103.1992 0.069
103.2294 -0.033
103.2597 -0.082
103.2900 0.077
103.3203 -0.233
103.3506 0.187
103.3808 0.086
103.4111 0.090
103.4414 -0.063
103.4717 -0.163
103.5019 0.101
103.5322 -0.103
103.5625 -0.203
103.5928 0.053
103.6231 0.204
103.6533 0.043
103.6836 0.247
103.7139 0.190
103.7442 0.186
103.7745 -0.079
103.8047 0.178
103.8350 -0.086
103.8653 0.275
103.8956 -0.249
103.9258 -0.096
103.9561 0.370
103.9864 0.211
104.0167 0.052
104.0470 0.102
104.0772 0.152
104.1075 0.358
104.1378 0.148
104.1681 -0.062
104.1984 0.249
104.2286 0.300
104.2589 0.143
104.2892 0.299
104.3195 -0.119
104.3497 -0.067
104.3800 -0.067
104.4103 -0.172
104.4406 0.037
104.4709 -0.223
104.5011 0.194
104.5314 -0.066
104.5617 -0.013
104.5920 0.144
104.6223 0.093
104.6525 0.043
104.6828 0.201
104.7131 -0.110
104.7434 -0.056
104.7736 0.155
104.8039 -0.156
104.8342 -0.205
104.8645 0.266
104.8948 -0.147
104.9250 0.324
104.9553 -0.037
104.9856 -0.033
105.0159 0.074
105.0462 0.078
105.0764 -0.282
105.1067 -0.124
105.1370 0.087
105.1673 0.350
105.1975 -0.011
105.2278 0.044
105.2581 0.203
105.2884 -0.106
105.3187 -0.154
105.3489 0.266
105.3792 0.218
105.4095 -0.038
105.4398 -0.138
105.4701 0.127
105.5003 -0.128
105.5306 0.033
105.5609 0.350
105.5912 0.252
105.6215 -0.055
105.6517 -0.102
105.6820 -0.200
105.7123 0.066
105.7426 -0.085
105.7728 0.076
105.8031 -0.022
105.8334 -0.225
105.8637 -0.018
105.8940 -0.124
105.9242 -0.074
105.9545 0.237
105.9848 0.131
106.0151 0.078
106.0454 0.025
106.0756 -0.080
106.1059 -0.029
106.1362 -0.029
106.1665 0.023
106.1967 -0.186
106.2270 0.023
106.2573 -0.289
106.2876 0.336
106.3179 0.024
106.3481 -0.183
106.3784 -0.132
106.4087 0.024
106.4390 -0.133
106.4693 0.232
106.4995 -0.133
106.5298 -0.029
106.5601 0.076
106.5904 0.129
106.6206 -0.183
106.6509 -0.234
106.6812 0.444
106.7115 0.081
106.7418 -0.230
106.7720 -0.020
106.8023 -0.070
106.8326 -0.172
106.8629 0.299
106.8932 0.302
106.9234 0.200
106.9537 0.307
106.9840 0.310
107.0143 0.053
107.0445 0.473
107.0748 0.008
107.1051 0.012
107.1354 -0.036
107.1657 0.176
107.1959 -0.028
107.2262 0.029
107.2565 0.086
107.2868 -0.170
107.3171 -0.170
107.3473 0.089
107.3776 -0.278
107.4079 0.189
107.4382 0.240
107.4684 0.134
107.4987 0.133
107.5290 0.236
107.5593 0.443
107.5896 0.078
107.6198 0.286
107.6501 -0.027
107.6804 0.286
107.7107 -0.027
107.7410 -0.131
107.7712 0.026
107.8015 0.027
107.8318 0.028
107.8621 0.393
107.8923 -0.231
107.9226 0.083
107.9529 -0.019
107.9832 -0.017
108.0135 0.037
108.0437 -0.274
108.0740 -0.069
108.1043 0.136
108.1346 0.132
108.1649 0.233
108.1951 0.022
108.2254 -0.137
108.2557 -0.244
108.2860 0.274
108.3163 0.376
108.3465 0.270
108.3768 -0.149
108.4071 -0.046
108.4374 0.161
108.4676 -0.205
108.4979 -0.102
108.5282 -0.311
108.5585 0.157
108.5888 0.208
108.6190 0.103
108.6493 0.051
108.6796 0.312
108.7099 -0.157
108.7402 -0.052
108.7704 0.313
108.8007 0.209
108.8310 0.106
108.8613 0.055
108.8915 0.056
108.9218 0.110
108.9521 0.320
108.9824 0.113
109.0127 -0.353
109.0429 -0.149
109.0732 0.315
109.1035 0.311
109.1338 0.151
109.1641 0.304
109.1943 -0.117
109.2246 0.297
109.2549 -0.019
109.2852 -0.022
109.3154 0.080
109.3457 -0.183
109.3760 -0.137
109.4063 0.065
109.4366 0.164
109.4668 0.210
109.4971 -0.211
109.5274 0.096
109.5577 0.091
109.5880 -0.070
109.6182 -0.127
109.6485 -0.027
109.6788 -0.135
109.7091 0.121
109.7393 0.117
109.7696 0.114
109.7999 -0.254
109.8302 0.003
109.8605 0.052
109.8907 0.257
109.9210 -0.162
109.9513 0.044
109.9816 -0.063
110.0119 0.300
110.0421 0.142
110.0724 0.036
110.1027 -0.070
110.1330 0.241
110.1632 0.188
110.1935 -0.125
110.2238 0.290
110.2541 -0.075
110.2844 0.498
110.3146 -0.023
110.3449 0.133
110.3752 -0.075
110.4055 -0.075
110.4358 -0.179
110.4660 -0.230
110.4963 0.135
110.5266 0.031
110.5569 0.032
110.5871 0.293
110.6174 0.138
110.6477 0.035
110.6780 0.088
110.7083 -0.275
110.7385 0.092
110.7688 -0.010
110.7991 0.200
110.8294 -0.006
110.8597 0.101
110.8899 0.156
110.9202 0.002
110.9505 -0.203
110.9808 -0.046
111.0110 0.371
111.0413 -0.150
111.0716 0.372
111.1019 -0.044
111.1322 -0.147
111.1624 0.063
111.1927 0.377
111.2230 -0.247
111.2533 0.120
111.2836 0.226
111.3138 0.072
111.3441 -0.134
111.3744 0.129
111.4047 -0.077
111.4350 0.082
111.4652 0.242
111.4955 -0.172
111.5258 -0.012
111.5561 0.148
111.5863 -0.161
111.6166 0.208
111.6469 0.108
111.6772 0.165
111.7075 -0.039
111.7377 0.018
111.7680 0.075
111.7983 0.080
111.8286 0.190
111.8589 -0.117
111.8891 0.045
111.9194 -0.105
111.9497 -0.047
111.9800 -0.197
112.0102 0.010
112.0405 0.218
112.0708 0.269
112.1011 -0.044
112.1314 0.060
112.1616 0.268
112.1919 0.477
112.2222 0.113
112.2525 0.165
112.2828 0.218
112.3130 0.115
112.3433 0.012
112.3736 0.117
112.4039 0.118
112.4341 -0.088
112.4644 0.174
112.4947 -0.032
112.5250 0.022
112.5553 0.024
112.5855 0.287
112.6158 -0.127
112.6461 0.189
112.6764 -0.121
112.7067 -0.170
112.7369 0.085
112.7672 0.235
112.7975 0.072
112.8278 0.067
112.8580 -0.043
112.8883 -0.048
112.9186 0.259
112.9489 0.045
112.9792 0.145
113.0094 -0.224
113.0397 -0.125
113.0700 0.131
113.1003 -0.029
113.1306 0.175
113.1608 0.120
113.1911 -0.144
113.2214 0.165
113.2517 -0.255
113.2819 0.367
113.3122 -0.156
113.3425 -0.055
113.3728 0.099
113.4031 -0.216
113.4333 -0.114
113.4636 0.041
113.4939 -0.117
113.5242 -0.171
113.5545 -0.172
113.5847 -0.017
113.6150 -0.070
113.6453 -0.018
113.6756 0.398
113.7058 0.033
113.7361 -0.071
113.7664 0.033
113.7967 -0.280
113.8270 -0.070
113.8572 -0.121
113.8875 -0.120
113.9178 -0.170
113.9481 0.248
113.9784 -0.010
114.0086 -0.165
114.0389 -0.058
114.0692 -0.056
114.0995 -0.105
114.1298 0.210
114.1600 0.005
114.1903 -0.200
114.2206 -0.043
114.2509 0.062
114.2811 0.323
114.3114 0.429
114.3417 0.274
114.3720 0.171
114.4023 -0.036
114.4325 0.175
114.4628 0.125
114.4931 0.075
114.5234 -0.183
114.5537 -0.183
114.5839 -0.032
114.6142 -0.037
114.6445 0.115
114.6748 -0.150
114.7050 -0.103
114.7353 0.049
114.7656 0.201
114.7959 -0.011
114.8262 -0.118
114.8564 0.243
114.8867 -0.021
114.9170 0.184
114.9473 -0.131
114.9776 -0.082
115.0078 0.436
115.0381 0.017
115.0684 -0.245
115.0987 0.065
115.1289 -0.145
115.1592 0.427
115.1895 -0.148
115.2198 -0.045
115.2501 0.059
115.2803 -0.255
115.3106 -0.104
115.3409 0.047
115.3712 -0.167
115.4015 0.193
115.4317 -0.073
115.4620 0.183
115.4923 0.179
115.5226 -0.190
115.5528 -0.038
115.5831 -0.042
115.6134 0.007
115.6437 0.263
115.6740 0.104
115.7042 0.153
115.7345 0.098
115.7648 0.199
115.7951 -0.116
115.8254 0.142
115.8556 0.036
115.8859 0.659
115.9162 -0.176
115.9465 0.499
115.9767 0.289
116.0070 0.392
116.0373 0.079
116.0676 0.494
116.0979 0.337
116.1281 0.337
116.1584 0.076
116.1887 0.076
116.2190 0.649
116.2493 -0.184
116.2795 0.493
116.3098 0.390
116.3401 -0.287
116.3704 0.600
116.4006 0.549
116.4309 -0.179
116.4612 0.448
116.4915 0.085
116.5218 0.035
116.5520 0.089
116.5823 -0.117
116.6126 0.614
116.6429 0.409
116.6732 -0.109
116.7034 0.102
116.7337 0.574
116.7640 -0.047
116.7943 0.060
116.8245 0.481
116.8548 -0.088
116.8851 -0.084
116.9154 0.233
116.9457 0.081
116.9759 -0.018
117.0062 -0.013
117.0365 0.252
117.0668 0.101
117.0971 0.576
117.1273 -0.096
117.1576 0.170
117.1879 0.281
117.2182 0.391
117.2485 -0.175
117.2787 -0.117
117.3090 0.098
117.3393 -0.155
117.3696 -0.304
117.3998 0.108
117.4301 0.259
117.4604 0.047
117.4907 -0.322
117.5210 0.195
117.5512 -0.070
117.5815 -0.178
117.6118 0.132
117.6421 -0.080
117.6724 -0.083
117.7026 -0.034
117.7329 -0.037
117.7632 0.013
117.7935 0.063
117.8237 0.060
117.8540 0.006
117.8843 -0.204
117.9146 0.055
117.9449 -0.155
117.9751 0.052
118.0054 -0.053
118.0357 -0.158
118.0660 -0.002
118.0963 -0.055
118.1265 -0.211
118.1568 0.205
118.1871 0.414
118.2174 -0.159
118.2476 -0.211
118.2779 0.207
118.3082 -0.053
118.3385 0.156
118.3688 -0.155
118.3990 -0.101
118.4293 -0.152
118.4596 -0.046
118.4899 0.216
118.5202 -0.146
118.5504 -0.196
118.5807 0.063
118.6110 0.113
118.6413 0.633
118.6715 0.111
118.7018 -0.203
118.7321 -0.047
118.7624 0.264
118.7927 -0.153
118.8229 -0.101
118.8532 0.212
118.8835 0.212
118.9138 -0.101
118.9441 0.108
118.9743 0.265
119.0046 0.110
119.0349 0.111
119.0652 0.008
119.0954 0.061
119.1257 -0.093
119.1560 -0.196
119.1863 0.012
119.2166 0.012
119.2468 -0.092
119.2771 -0.196
119.3074 0.011
119.3377 0.114
119.3680 -0.043
119.3982 -0.201
119.4285 0.059
119.4588 -0.202
119.4891 0.475
119.5193 0.318
119.5496 -0.150
119.5799 -0.046
119.6102 -0.098
119.6405 -0.097
119.6707 -0.044
119.7010 0.009
119.7313 0.218
119.7616 -0.145
119.7919 -0.196
119.8221 -0.124
119.8524 0.521
119.8827 0.073
119.9130 0.354
119.9433 0.062
119.9735 0.135
120.0038 0.000
