'Id: "" Comment: "" Operator: "Lab Manager" Anode: "Cu" Scantype: "Locked Coupled" TimePerStep: "19.2" X: "9999" Y: "9999" Z: "9999" 
10.0015 0.000
10.0318 1.184
10.0620 0.858
10.0923 1.626
10.1226 1.040
10.1529 0.715
10.1832 -0.131
10.2134 0.691
10.2437 0.627
10.2740 0.875
10.3043 1.020
10.3346 0.228
10.3648 0.164
10.3951 0.779
10.4254 1.133
10.4557 0.862
10.4859 0.383
10.5162 1.259
10.5465 0.156
10.5768 0.980
10.6071 0.033
10.6373 0.754
10.6676 0.328
10.6979 -0.305
10.7282 0.260
10.7585 1.242
10.7887 0.870
10.8190 -0.388
10.8493 0.074
10.8796 0.952
10.9098 0.373
10.9401 0.575
10.9704 -0.004
11.0007 1.084
11.0310 1.339
11.0612 1.073
11.0915 -0.182
11.1218 0.750
11.1521 1.266
11.1824 -0.196
11.2126 0.268
11.2429 0.733
11.2732 0.261
11.3035 0.309
11.3337 0.306
11.3640 0.824
11.3943 0.978
11.4246 0.559
11.4549 0.556
11.4851 0.138
11.5154 0.240
11.5457 -0.386
11.5760 -0.488
11.6063 0.713
11.6365 0.455
11.6668 0.198
11.6971 0.930
11.7274 -0.264
11.7577 -0.052
11.7879 0.734
11.8182 0.009
11.8485 -0.299
11.8788 0.123
11.9090 0.023
11.9393 0.133
11.9696 0.972
11.9999 0.769
12.0302 -0.006
12.0604 0.469
12.0907 -0.045
12.1210 0.483
12.1513 0.125
12.1816 1.278
12.2118 0.036
12.2421 0.148
12.2724 -0.157
12.3027 0.008
12.3329 0.121
12.3632 0.234
12.3935 -0.643
12.4238 0.356
12.4541 -0.572
12.4843 -0.311
12.5146 -0.102
12.5449 0.941
12.5752 -0.360
12.6055 0.839
12.6357 0.320
12.6660 -0.251
12.6963 -0.717
12.7266 1.369
12.7568 -0.295
12.7871 0.437
12.8174 0.232
12.8477 -0.025
12.8780 0.916
12.9082 0.868
12.9385 0.299
12.9688 0.512
12.9991 -0.525
13.0294 -0.416
13.0596 0.573
13.0899 0.834
13.1202 0.834
13.1505 -0.207
13.1807 0.314
13.2110 0.211
13.2413 -0.309
13.2716 -0.255
13.3019 0.840
13.3321 0.634
13.3624 1.052
13.3927 -0.664
13.4230 0.224
13.4533 1.008
13.4835 0.490
13.5138 -0.027
13.5441 -0.076
13.5744 -0.280
13.6046 0.193
13.6349 0.457
13.6652 -0.840
13.6955 0.363
13.7258 0.368
13.7560 0.477
13.7863 0.014
13.8166 0.801
13.8469 0.494
13.8772 0.292
13.9074 1.393
13.9377 -0.424
13.9680 -0.208
13.9983 0.476
14.0285 0.119
14.0588 0.543
14.0891 0.812
14.1194 0.507
14.1497 -0.317
14.1799 -0.361
14.2102 0.006
14.2405 0.009
14.2708 1.315
14.3011 -0.192
14.3313 -0.605
14.3616 0.441
14.3919 0.236
14.4222 0.501
14.4524 -0.067
14.4827 0.355
14.5130 -0.317
14.5433 0.574
14.5736 0.319
14.6038 0.742
14.6341 1.529
14.6644 0.337
14.6947 -0.020
14.7250 0.976
14.7552 -0.111
14.7855 -0.416
14.8158 0.154
14.8461 0.202
14.8764 0.147
14.9066 0.717
14.9369 0.402
14.9672 0.295
14.9975 0.032
15.0277 -0.803
15.0580 0.237
15.0883 0.079
15.1186 0.651
15.1489 -0.548
15.1791 -0.080
15.2094 0.961
15.2397 -1.018
15.2700 0.180
15.3003 -0.549
15.3305 0.180
15.3608 0.494
15.3911 -0.235
15.4214 -0.390
15.4516 0.283
15.4819 0.695
15.5122 -0.091
15.5425 -0.668
15.5728 1.047
15.6030 0.210
15.6333 0.467
15.6636 0.307
15.6939 -0.269
15.7242 0.614
15.7544 0.351
15.7847 0.974
15.8150 0.347
15.8453 1.387
15.8755 0.188
15.9058 -0.543
15.9361 0.394
15.9664 0.237
15.9967 -0.180
16.0269 0.132
16.0572 -0.285
16.0875 0.341
16.1178 0.602
16.1481 -0.075
16.1783 -0.230
16.2086 -0.281
16.2389 -0.071
16.2692 -0.017
16.2994 0.506
16.3297 0.039
16.3600 0.354
16.3903 -0.216
16.4206 0.308
16.4508 -0.054
16.4811 0.783
16.5114 -0.568
16.5417 0.634
16.5720 0.326
16.6022 -0.243
16.6325 0.127
16.6628 -0.493
16.6931 0.814
16.7233 -0.223
16.7536 -0.061
16.7839 -0.003
16.8142 -0.309
16.8445 0.843
16.8747 0.225
16.9050 0.857
16.9353 1.384
16.9656 0.663
16.9959 -0.163
17.0261 -0.364
17.0564 0.204
17.0867 0.616
17.1170 0.611
17.1472 0.503
17.1775 -0.022
17.2078 0.130
17.2381 0.075
17.2684 0.175
17.2986 0.641
17.3289 0.065
17.3592 0.427
17.3895 0.373
17.4198 0.110
17.4500 0.421
17.4803 0.575
17.5106 -0.312
17.5409 1.041
17.5712 0.415
17.6014 0.571
17.6317 0.831
17.6620 0.779
17.6923 -0.002
17.7225 -0.263
17.7528 -0.523
17.7831 0.416
17.8134 0.625
17.8437 0.158
17.8739 0.315
17.9042 0.525
17.9345 0.527
17.9648 0.113
17.9951 -0.353
18.0253 -0.248
18.0556 0.951
18.0859 -0.142
18.1162 0.433
18.1464 0.122
18.1767 0.072
18.2070 0.179
18.2373 0.389
18.2676 0.288
18.2978 0.395
18.3281 0.346
18.3584 0.558
18.3887 0.250
18.4190 -0.319
18.4492 0.570
18.4795 -0.258
18.5098 0.580
18.5401 0.116
18.5703 -0.087
18.6006 0.543
18.6309 -0.128
18.6612 0.607
18.6915 -0.637
18.7217 -0.109
18.7520 0.262
18.7823 -0.304
18.8126 0.484
18.8429 -0.029
18.8731 0.083
18.9034 0.820
18.9337 0.411
18.9640 0.003
18.9942 0.585
19.0245 0.073
19.0548 0.342
19.0851 0.352
19.1154 -0.055
19.1456 0.163
19.1759 -0.244
19.2062 -0.338
19.2365 0.023
19.2668 0.696
19.2970 0.536
19.3273 0.220
19.3576 -0.304
19.3879 -0.098
19.4181 0.472
19.4484 0.053
19.4787 0.363
19.5090 -0.576
19.5393 0.256
19.5695 0.098
19.5998 0.253
19.6301 0.096
19.6604 -0.738
19.6907 0.616
19.7209 0.199
19.7512 -0.322
19.7815 0.720
19.8118 0.095
19.8420 -0.112
19.8723 -0.267
19.9026 0.671
19.9329 0.048
19.9632 -0.419
19.9934 0.781
20.0237 -0.311
20.0540 0.213
20.0843 -0.826
20.1146 0.218
20.1448 0.846
20.1751 0.017
20.2054 1.114
20.2357 -0.392
20.2659 -0.076
20.2962 -0.123
20.3265 0.298
20.3568 0.355
20.3871 -0.004
20.4173 -0.832
20.4476 0.051
20.4779 -0.158
20.5082 0.362
20.5385 0.309
20.5687 0.152
20.5990 -0.786
20.6293 0.464
20.6596 0.568
20.6899 0.360
20.7201 -0.421
20.7504 0.518
20.7807 -0.367
20.8110 0.312
20.8412 -0.416
20.8715 0.732
20.9018 0.734
20.9321 -0.462
20.9624 -0.459
20.9926 1.419
21.0229 1.318
21.0532 -0.190
21.0835 0.699
21.1138 0.755
21.1440 -0.074
21.1743 0.086
21.2046 1.028
21.2349 -0.321
21.2651 0.101
21.2954 -0.311
21.3257 -0.045
21.3560 -0.091
21.3863 0.436
21.4165 -0.496
21.4468 0.240
21.4771 -0.430
21.5074 0.618
21.5377 -0.156
21.5679 -0.617
21.5982 0.380
21.6285 0.232
21.6588 0.032
21.6890 0.092
21.7193 -0.108
21.7496 -0.463
21.7799 0.327
21.8102 0.493
21.8404 0.034
21.8707 -0.321
21.9010 -0.071
21.9313 -0.185
21.9616 -0.091
21.9918 0.004
22.0221 0.515
22.0524 0.454
22.0827 0.757
22.1129 0.280
22.1432 0.480
22.1735 0.628
22.2038 -0.109
22.2341 0.873
22.2643 -0.020
22.2946 0.389
22.3249 0.018
22.3552 0.688
22.3855 -0.308
22.4157 -0.314
22.4460 -0.268
22.4763 -0.170
22.5066 0.554
22.5368 0.080
22.5671 -0.289
22.5974 0.175
22.6277 -0.195
22.6580 -0.303
22.6882 0.318
22.7185 0.262
22.7488 0.259
22.7791 0.307
22.8094 -0.216
22.8396 -0.115
22.8699 0.351
22.9002 -0.016
22.9305 0.191
22.9607 0.605
22.9910 -0.802
23.0213 -0.179
23.0516 0.289
23.0819 -0.337
23.1121 -0.338
23.1424 0.180
23.1727 -0.135
23.2030 0.071
23.2333 -0.192
23.2635 0.588
23.2938 0.273
23.3241 -0.041
23.3544 -0.875
23.3846 0.165
23.4149 0.112
23.4452 0.216
23.4755 0.320
23.5058 0.060
23.5360 0.112
23.5663 -0.565
23.5966 0.530
23.6269 0.322
23.6572 -0.354
23.6874 -0.196
23.7177 0.014
23.7480 0.016
23.7783 0.539
23.8086 -0.761
23.8388 -0.289
23.8691 -0.286
23.8994 -0.388
23.9297 0.710
23.9599 -0.172
23.9902 0.040
24.0205 0.357
24.0508 -0.056
24.0811 -0.780
24.1113 0.104
24.1416 0.311
24.1719 -0.106
24.2022 0.205
24.2325 0.570
24.2627 0.257
24.2930 -0.160
24.3233 -0.263
24.3536 -0.315
24.3838 -0.314
24.4141 -0.105
24.4444 0.626
24.4747 0.211
24.5050 -0.725
24.5352 0.163
24.5655 0.373
24.5958 0.428
24.6261 0.483
24.6564 -0.556
24.6866 0.021
24.7169 -0.236
24.7472 0.132
24.7775 -0.124
24.8077 0.140
24.8380 0.041
24.8683 0.514
24.8986 0.571
24.9289 0.160
24.9591 0.113
24.9894 -0.089
25.0197 -0.292
25.0500 -0.494
25.0803 0.336
25.1105 -0.240
25.1408 0.278
25.1711 0.118
25.2014 -0.457
25.2316 0.166
25.2619 0.216
25.2922 0.214
25.3225 -0.257
25.3528 0.159
25.3830 -0.259
25.4133 0.313
25.4436 -0.052
25.4739 -0.157
25.5042 0.208
25.5344 0.312
25.5647 -0.209
25.5950 -0.312
25.6253 -0.364
25.6555 0.362
25.6858 -0.267
25.7161 -0.114
25.7464 -0.013
25.7767 -0.068
25.8069 0.711
25.8372 0.032
25.8675 -0.283
25.8978 -0.024
25.9281 -0.495
25.9583 0.493
25.9886 0.128
26.0189 0.439
26.0492 0.439
26.0794 0.282
26.1097 0.646
26.1400 -0.083
26.1703 0.022
26.2006 0.960
26.2308 0.336
26.2611 -0.601
26.2914 0.494
26.3217 -0.233
26.3520 -0.283
26.3822 -0.333
26.4125 0.128
26.4428 0.643
26.4731 -0.353
26.5034 0.474
26.5336 -0.001
26.5639 -0.267
26.5942 -0.272
26.6245 0.764
26.6547 0.603
26.6850 0.182
26.7153 0.125
26.7456 0.121
26.7759 0.325
26.8061 -0.304
26.8364 0.735
26.8667 0.679
26.8970 -0.105
26.9273 0.830
26.9575 0.879
26.9878 0.304
27.0181 0.406
27.0484 1.134
27.0786 0.195
27.1089 0.714
27.1392 0.349
27.1695 0.556
27.1998 0.764
27.2300 -0.434
27.2603 0.399
27.2906 0.347
27.3209 -0.329
27.3512 0.140
27.3814 0.922
27.4117 0.246
27.4420 0.456
27.4723 0.145
27.5025 0.460
27.5328 1.451
27.5631 -0.161
27.5934 0.311
27.6237 -0.572
27.6539 -0.278
27.6842 1.110
27.7145 0.519
27.7448 0.553
27.7751 0.276
27.8053 0.883
27.8356 -0.019
27.8659 0.172
27.8962 0.260
27.9264 -0.069
27.9567 0.071
27.9870 0.785
28.0173 0.040
28.0476 0.910
28.0778 0.582
28.1081 0.255
28.1384 0.084
28.1687 -0.295
28.1990 -0.361
28.2292 0.241
28.2595 0.115
28.2898 0.613
28.3201 0.643
28.3503 -0.472
28.3806 0.548
28.4109 0.371
28.4412 0.141
28.4715 0.068
28.5017 0.777
28.5320 -0.077
28.5623 -0.618
28.5926 0.509
28.6229 0.229
28.6531 -0.520
28.6834 -0.178
28.7137 -0.148
28.7440 0.247
28.7742 0.277
28.8045 -0.213
28.8348 0.443
28.8651 -0.411
28.8954 0.454
28.9256 0.537
28.9559 0.517
28.9862 0.081
29.0165 -0.147
29.0468 0.250
29.0770 0.335
29.1073 -0.517
29.1376 0.037
29.1679 -0.034
29.1981 0.313
29.2284 0.034
29.2587 0.746
29.2890 -0.157
29.3193 -0.227
29.3495 -0.400
29.3798 -0.260
29.4101 1.181
29.4404 -0.137
29.4707 -0.413
29.5009 -0.392
29.5312 0.307
29.5615 -0.296
29.5918 0.403
29.6221 0.686
29.6523 0.865
29.6826 0.263
29.7129 0.286
29.7432 -0.524
29.7734 0.489
29.8037 0.982
29.8340 0.954
29.8643 1.551
29.8946 0.221
29.9248 0.559
29.9551 -0.041
29.9854 0.974
30.0157 0.426
30.0460 -0.746
30.0762 0.530
30.1065 0.244
30.1368 0.583
30.1671 0.141
30.1973 0.949
30.2276 -0.169
30.2579 0.588
30.2882 1.553
30.3185 0.800
30.3487 2.026
30.3790 0.700
30.4093 0.677
30.4396 1.487
30.4699 1.047
30.5001 1.806
30.5304 0.482
30.5607 1.710
30.5910 1.323
30.6212 2.395
30.6515 1.853
30.6818 1.467
30.7121 3.009
30.7424 2.780
30.7726 2.551
30.8029 4.198
30.8332 3.188
30.8635 3.533
30.8938 4.191
30.9240 4.276
30.9543 3.736
30.9846 5.644
31.0149 3.959
31.0451 6.441
31.0754 7.465
31.1057 7.499
31.1360 5.815
31.1663 8.506
31.1965 9.948
31.2268 11.650
31.2571 14.602
31.2874 13.908
31.3177 17.434
31.3479 16.533
31.3782 20.372
31.4085 23.065
31.4388 24.195
31.4690 28.087
31.4993 34.114
31.5296 36.287
31.5599 38.357
31.5902 38.916
31.6204 39.787
31.6507 42.847
31.6810 41.480
31.7113 39.332
31.7416 37.184
31.7718 34.880
31.8021 30.284
31.8324 28.866
31.8627 22.552
31.8929 19.989
31.9232 18.363
31.9535 17.154
31.9838 12.873
32.0141 13.644
32.0443 10.352
32.0746 10.551
32.1049 8.614
32.1352 7.980
32.1655 7.762
32.1957 6.087
32.2260 4.411
32.2563 5.132
32.2866 3.978
32.3169 3.814
32.3471 2.921
32.3774 1.872
32.4077 2.489
32.4380 2.170
32.4682 0.913
32.4985 0.959
32.5288 1.473
32.5591 2.613
32.5894 0.837
32.6196 0.675
32.6499 1.034
32.6802 -0.221
32.7105 0.868
32.7408 2.374
32.7710 0.912
32.8013 0.387
32.8316 1.477
32.8619 0.796
32.8921 0.636
32.9224 -0.877
32.9527 1.151
32.9830 -0.153
33.0133 -0.676
33.0435 0.202
33.0738 1.132
33.1041 0.501
33.1344 0.442
33.1647 -0.189
33.1949 0.743
33.2252 -0.200
33.2555 0.003
33.2858 0.570
33.3160 0.878
33.3463 1.134
33.3766 0.712
33.4069 0.708
33.4372 0.392
33.4674 -0.081
33.4977 1.635
33.5280 -0.348
33.5583 0.899
33.5886 2.303
33.6188 1.154
33.6491 1.777
33.6794 0.838
33.7097 2.555
33.7399 1.512
33.7702 2.760
33.8005 2.915
33.8308 4.425
33.8611 3.591
33.8913 6.456
33.9216 6.403
33.9519 8.174
33.9822 7.810
34.0125 11.509
34.0427 11.458
34.0730 13.751
34.1033 16.721
34.1336 20.681
34.1638 25.370
34.1941 32.143
34.2244 36.312
34.2547 46.054
34.2850 51.630
34.3152 52.675
34.3455 47.730
34.3758 44.817
34.4061 38.988
34.4364 30.450
34.4666 26.653
34.4969 18.689
34.5272 16.662
34.5575 13.907
34.5877 12.245
34.6180 7.980
34.6483 9.236
34.6786 6.169
34.7089 7.321
34.7391 5.765
34.7694 6.293
34.7997 3.904
34.8300 3.443
34.8603 5.065
34.8905 4.343
34.9208 4.247
34.9511 3.526
34.9814 3.118
35.0116 4.898
35.0419 3.448
35.0722 4.447
35.1025 3.259
35.1328 4.571
35.1630 3.487
35.1933 4.799
35.2236 4.966
35.2539 4.143
35.2842 6.133
35.3144 5.207
35.3447 5.948
35.3750 4.605
35.4053 6.284
35.4356 6.660
35.4658 7.871
35.4961 8.977
35.5264 9.094
35.5567 8.795
35.5869 12.715
35.6172 12.989
35.6475 13.471
35.6778 15.100
35.7081 16.416
35.7383 16.900
35.7686 20.508
35.7989 23.805
35.8292 26.528
35.8595 32.481
35.8897 33.851
35.9200 38.815
35.9503 43.884
35.9806 47.963
36.0108 54.073
36.0411 57.111
36.0714 58.691
36.1017 63.292
36.1320 61.487
36.1622 68.276
36.1925 58.450
36.2228 58.729
36.2531 57.810
36.2834 51.632
36.3136 43.734
36.3439 41.983
36.3742 31.482
36.4045 28.481
36.4347 24.647
36.4650 21.699
36.4953 21.719
36.5256 18.355
36.5559 17.334
36.5861 13.241
36.6164 12.117
36.6467 11.202
36.6770 11.224
36.7073 8.850
36.7375 8.508
36.7678 7.490
36.7981 6.888
36.8284 6.234
36.8586 4.956
36.8889 5.553
36.9192 6.098
36.9495 4.195
36.9798 3.438
37.0100 3.880
37.0403 2.603
37.0706 2.055
37.1009 1.925
37.1312 2.263
37.1614 3.227
37.1917 2.732
37.2220 2.082
37.2523 3.358
37.2825 2.552
37.3128 1.850
37.3431 2.294
37.3734 1.437
37.4037 1.413
37.4339 0.452
37.4642 1.522
37.4945 1.186
37.5248 0.955
37.5551 1.609
37.5853 1.065
37.6156 0.054
37.6459 0.448
37.6762 -0.199
37.7064 0.821
37.7367 1.060
37.7670 1.091
37.7973 0.393
37.8276 0.894
37.8578 0.561
37.8881 1.374
37.9184 0.885
37.9487 0.241
37.9790 0.742
38.0092 0.983
38.0395 0.287
38.0698 0.269
38.1001 0.459
38.1304 0.493
38.1606 0.110
38.1909 -0.481
38.2212 0.231
38.2515 0.266
38.2817 0.249
38.3120 0.389
38.3423 -0.097
38.3726 0.460
38.4029 -0.077
38.4331 0.012
38.4634 -0.368
38.4937 0.013
38.5240 0.030
38.5543 0.204
38.5845 0.951
38.6148 -0.333
38.6451 0.726
38.6754 -0.193
38.7056 0.607
38.7359 0.470
38.7662 0.697
38.7965 0.300
38.8268 0.007
38.8570 -0.650
38.8873 0.036
38.9176 0.462
38.9479 0.471
38.9782 0.376
39.0084 0.334
39.0387 -0.698
39.0690 0.302
39.0993 0.261
39.1295 -0.041
39.1598 -0.082
39.1901 -0.227
39.2204 0.097
39.2507 -0.100
39.2809 0.016
39.3112 -0.076
39.3415 0.353
39.3718 0.210
39.4021 -0.194
39.4323 -0.129
39.4626 0.770
39.4929 0.159
39.5232 0.329
39.5534 -0.542
39.5837 0.358
39.6140 0.060
39.6443 -0.029
39.6746 -0.639
39.7048 0.522
39.7351 0.329
39.7654 1.022
39.7957 0.309
39.8260 0.065
39.8562 0.030
39.8865 0.411
39.9168 -0.249
39.9471 -0.127
39.9773 0.620
40.0076 0.325
40.0379 -0.438
40.0682 0.413
40.0985 -0.193
40.1287 -0.018
40.1590 -0.311
40.1893 0.070
40.2196 -0.330
40.2499 0.313
40.2801 0.538
40.3104 -0.069
40.3407 -0.468
40.3710 0.105
40.4012 0.313
40.4315 -0.207
40.4618 0.210
40.4921 0.315
40.5224 0.889
40.5526 -0.099
40.5829 0.163
40.6132 -0.513
40.6435 0.479
40.6738 -0.040
40.7040 -0.089
40.7343 0.695
40.7646 0.229
40.7949 0.440
40.8251 0.652
40.8554 0.500
40.8857 0.556
40.9160 0.039
40.9463 -0.165
40.9765 0.829
41.0068 0.418
41.0371 0.579
41.0674 -0.093
41.0977 0.121
41.1279 0.544
41.1582 0.133
41.1885 -0.016
41.2188 1.032
41.2491 0.726
41.2793 0.473
41.3096 0.168
41.3399 0.592
41.3702 0.340
41.4004 -0.017
41.4307 0.096
41.4610 -0.260
41.4913 0.373
41.5216 0.226
41.5518 -0.337
41.5821 -0.179
41.6124 0.449
41.6427 0.452
41.6730 0.716
41.7032 0.302
41.7335 0.619
41.7638 0.206
41.7941 0.366
41.8243 0.371
41.8546 0.063
41.8849 0.589
41.9152 0.125
41.9455 0.183
41.9757 -0.280
42.0060 -0.185
42.0363 0.171
42.0666 -0.149
42.0969 0.312
42.1271 0.148
42.1574 -0.276
42.1877 0.134
42.2180 0.439
42.2482 0.797
42.2785 0.166
42.3088 0.837
42.3391 -0.627
42.3694 0.722
42.3996 0.195
42.4299 -0.122
42.4602 -0.075
42.4905 0.077
42.5208 0.072
42.5510 0.693
42.5813 0.116
42.6116 0.634
42.6419 -0.255
42.6721 0.419
42.7024 0.207
42.7327 -0.368
42.7630 0.463
42.7933 0.096
42.8235 -0.114
42.8538 0.405
42.8841 0.299
42.9144 0.402
42.9447 -0.224
42.9749 0.401
43.0052 -0.381
43.0355 0.192
43.0658 -0.225
43.0960 0.244
43.1263 -0.328
43.1566 0.558
43.1869 0.298
43.2172 0.248
43.2474 -0.324
43.2777 0.615
43.3080 0.305
43.3383 0.203
43.3686 0.466
43.3988 0.052
43.4291 -0.154
43.4594 0.423
43.4897 0.478
43.5199 -0.352
43.5502 0.382
43.5805 0.125
43.6108 -0.079
43.6411 0.447
43.6713 -0.173
43.7016 0.926
43.7319 -0.058
43.7622 0.364
43.7925 0.057
43.8227 0.428
43.8530 -0.139
43.8833 -0.028
43.9136 0.031
43.9439 0.142
43.9741 0.098
44.0044 -0.311
44.0347 -0.065
44.0650 -0.392
44.0952 0.532
44.1255 0.258
44.1558 -0.119
44.1861 0.388
44.2164 1.053
44.2466 0.103
44.2769 0.716
44.3072 0.183
44.3375 0.015
44.3678 0.472
44.3980 0.513
44.4283 -0.227
44.4586 0.178
44.4889 1.053
44.5191 0.001
44.5494 0.877
44.5797 0.138
44.6100 -0.132
44.6403 -0.246
44.6705 -0.151
44.7008 0.309
44.7311 0.145
44.7614 -0.281
44.7917 0.336
44.8219 0.276
44.8522 0.321
44.8825 -0.311
44.9128 -0.267
44.9430 -0.066
44.9733 -0.385
45.0036 0.285
45.0339 -0.503
45.0642 -0.040
45.0944 0.006
45.1247 0.156
45.1550 -0.631
45.1853 0.250
45.2156 0.297
45.2458 0.083
45.2761 0.027
45.3064 0.179
45.3367 -0.034
45.3669 0.327
45.3972 0.271
45.4275 0.112
45.4578 -0.308
45.4881 0.262
45.5183 -0.053
45.5486 0.205
45.5789 0.463
45.6092 -0.320
45.6395 -0.269
45.6697 0.146
45.7000 0.405
45.7303 0.092
45.7606 -0.013
45.7908 0.403
45.8211 -0.066
45.8514 0.716
45.8817 0.820
45.9120 0.612
45.9422 0.405
45.9725 0.406
46.0028 0.407
46.0331 0.356
46.0634 0.046
46.0936 -0.317
46.1239 -0.013
46.1542 0.344
46.1845 0.232
46.2147 0.329
46.2450 0.322
46.2753 0.836
46.3056 0.725
46.3359 0.614
46.3661 0.764
46.3964 0.654
46.4267 0.075
46.4570 0.903
46.4873 0.741
46.5175 0.841
46.5478 0.992
46.5781 1.092
46.6084 0.671
46.6386 0.927
46.6689 0.975
46.6992 2.014
46.7295 2.271
46.7598 2.007
46.7900 2.056
46.8203 2.418
46.8506 2.312
46.8809 2.831
46.9112 2.464
46.9414 4.233
46.9717 2.878
47.0020 3.398
47.0323 4.543
47.0626 5.479
47.0928 4.594
47.1231 6.208
47.1534 5.844
47.1837 7.302
47.2139 7.459
47.2442 8.970
47.2745 10.430
47.3048 10.640
47.3351 11.579
47.3653 12.466
47.3956 13.093
47.4259 12.366
47.4562 12.785
47.4865 11.538
47.5167 12.062
47.5470 10.711
47.5773 9.412
47.6076 8.062
47.6378 8.847
47.6681 7.341
47.6984 5.575
47.7287 5.840
47.7590 4.907
47.7892 4.392
47.8195 4.241
47.8498 2.580
47.8801 2.534
47.9104 2.228
47.9406 3.224
47.9709 2.345
48.0012 1.779
48.0315 1.265
48.0617 1.481
48.0920 1.645
48.1223 1.966
48.1526 1.505
48.1829 1.357
48.2131 1.314
48.2434 1.375
48.2737 0.186
48.3040 0.612
48.3343 0.570
48.3645 0.163
48.3948 0.642
48.4251 1.642
48.4554 0.402
48.4856 1.299
48.5159 0.945
48.5462 0.227
48.5765 0.343
48.6068 0.355
48.6370 0.940
48.6673 -0.142
48.6976 -0.494
48.7279 0.181
48.7582 -0.134
48.7884 0.645
48.8187 0.122
48.8490 0.173
48.8793 0.327
48.9095 0.587
48.9398 -0.039
48.9701 0.325
49.0004 -0.405
49.0307 0.376
49.0609 0.532
49.0912 -0.092
49.1215 0.690
49.1518 0.169
49.1821 0.171
49.2123 -0.193
49.2426 0.277
49.2729 -0.085
49.3032 0.281
49.3334 0.440
49.3637 -0.235
49.3940 0.237
49.4243 0.240
49.4546 -0.434
49.4848 0.350
49.5151 -0.062
49.5454 0.254
49.5757 -0.054
49.6060 0.054
49.6362 0.944
49.6665 -0.144
49.6968 0.486
49.7271 -0.134
49.7574 -0.076
49.7876 -0.695
49.8179 0.353
49.8482 -0.110
49.8785 -0.311
49.9087 0.155
49.9390 0.622
49.9693 0.412
49.9996 -0.006
50.0299 0.514
50.0601 0.357
50.0904 0.408
50.1207 -0.165
50.1510 -0.165
50.1813 0.356
50.2115 -0.217
50.2418 0.096
50.2721 -0.632
50.3024 0.254
50.3326 -0.213
50.3629 0.934
50.3932 0.363
50.4235 0.053
50.4538 -0.206
50.4840 -0.047
50.5143 -0.148
50.5446 0.063
50.5749 -0.038
50.6052 -0.295
50.6354 0.070
50.6657 0.174
50.6960 0.278
50.7263 -0.295
50.7565 -0.245
50.7868 0.274
50.8171 0.897
50.8474 0.322
50.8777 0.113
50.9079 0.007
50.9382 0.319
50.9685 0.371
50.9988 -0.099
51.0291 -0.099
51.0593 0.058
51.0896 0.318
51.1199 -0.202
51.1502 0.580
51.1804 -0.304
51.2107 0.010
51.2410 0.584
51.2713 0.482
51.3016 0.588
51.3318 -0.347
51.3621 0.280
51.3924 0.283
51.4227 0.234
51.4530 -0.075
51.4832 0.293
51.5135 -0.068
51.5438 0.092
51.5741 -0.216
51.6043 0.257
51.6346 0.054
51.6649 0.267
51.6952 -0.092
51.7255 -0.608
51.7557 0.179
51.7860 -0.179
51.8163 0.348
51.8466 -0.271
51.8769 0.205
51.9071 0.576
51.9374 0.062
51.9677 0.382
51.9980 0.286
52.0282 -0.279
52.0585 0.094
52.0888 0.623
52.1191 0.111
52.1494 0.328
52.1796 0.754
52.2099 0.503
52.2402 0.460
52.2705 -0.311
52.3008 -0.426
52.3310 0.502
52.3613 -0.029
52.3916 0.639
52.4219 0.473
52.4521 -0.317
52.4824 0.039
52.5127 -0.074
52.5430 0.387
52.5733 0.222
52.6035 0.475
52.6338 0.520
52.6641 0.096
52.6944 -0.120
52.7247 0.134
52.7549 -0.341
52.7852 -0.035
52.8155 0.219
52.8458 0.213
52.8761 0.104
52.9063 0.098
52.9366 0.510
52.9669 0.088
52.9972 0.136
53.0274 -0.494
53.0577 -0.085
53.0880 0.219
53.1183 -0.049
53.1486 -0.056
53.1788 0.718
53.2091 -0.175
53.2394 0.027
53.2697 -0.136
53.3000 0.118
53.3302 0.268
53.3605 0.367
53.3908 0.361
53.4211 -0.321
53.4513 0.455
53.4816 0.711
53.5119 0.081
53.5422 0.077
53.5725 -0.084
53.6027 0.433
53.6330 -0.351
53.6633 0.479
53.6936 0.059
53.7239 0.212
53.7541 0.262
53.7844 0.103
53.8147 0.257
53.8450 -0.005
53.8752 0.045
53.9055 0.408
53.9358 0.147
53.9661 -0.271
53.9964 0.145
54.0266 -0.063
54.0569 0.093
54.0872 0.145
54.1175 0.822
54.1478 0.042
54.1780 0.407
54.2083 -0.113
54.2386 0.149
54.2689 0.046
54.2991 -0.004
54.3294 0.727
54.3597 0.313
54.3900 0.315
54.4203 0.058
54.4505 0.165
54.4808 1.105
54.5111 0.484
54.5414 0.175
54.5717 0.179
54.6019 -0.494
54.6322 -0.146
54.6625 0.202
54.6928 0.341
54.7230 0.221
54.7533 0.100
54.7836 0.605
54.8139 0.069
54.8442 0.522
54.8744 1.288
54.9047 0.232
54.9350 0.946
54.9653 0.203
54.9956 0.189
55.0258 0.071
55.0561 0.786
55.0864 0.877
55.1167 0.707
55.1469 1.059
55.1772 0.786
55.2075 0.721
55.2378 0.449
55.2681 0.020
55.2983 0.529
55.3286 0.726
55.3589 1.079
55.3892 1.068
55.4195 0.901
55.4497 0.787
55.4800 1.037
55.5103 1.131
55.5406 1.694
55.5709 1.581
55.6011 0.998
55.6314 1.458
55.6617 0.929
55.6920 1.285
55.7222 2.110
55.7525 2.310
55.7828 3.031
55.8131 2.555
55.8434 2.964
55.8736 4.155
55.9039 2.377
55.9342 3.204
55.9645 4.187
55.9948 3.869
56.0250 3.863
56.0553 5.941
56.0856 5.675
56.1159 6.347
56.1461 6.655
56.1764 8.473
56.2067 7.687
56.2370 9.506
56.2673 11.117
56.2975 11.894
56.3278 13.089
56.3581 12.565
56.3884 14.385
56.4187 17.715
56.4489 16.984
56.4792 17.659
56.5095 16.823
56.5398 14.113
56.5700 16.508
56.6003 13.590
56.6306 13.537
56.6609 11.088
56.6912 10.463
56.7214 9.369
56.7517 9.785
56.7820 8.067
56.8123 6.817
56.8426 6.818
56.8728 6.819
56.9031 5.831
56.9334 3.905
56.9637 4.167
56.9939 4.794
57.0242 3.234
57.0545 3.809
57.0848 3.031
57.1151 3.190
57.1453 2.516
57.1756 2.207
57.2059 1.950
57.2362 2.475
57.2665 1.698
57.2967 2.119
57.3270 0.717
57.3573 0.254
57.3876 1.405
57.4178 1.045
57.4481 1.468
57.4784 0.796
57.5087 1.167
57.5390 0.705
57.5692 0.555
57.5995 0.927
57.6298 0.361
57.6601 0.629
57.6904 0.428
57.7206 0.592
57.7509 0.496
57.7812 -0.225
57.8115 -0.008
57.8417 0.678
57.8720 0.478
57.9023 0.123
57.9326 0.653
57.9629 0.663
57.9931 -0.160
58.0234 0.267
58.0537 -0.452
58.0840 0.444
58.1143 -0.378
58.1445 -0.158
58.1748 0.843
58.2051 0.282
58.2354 0.189
58.2656 0.358
58.2959 0.162
58.3262 0.539
58.3565 0.083
58.3868 -0.164
58.4170 0.266
58.4473 0.540
58.4776 -0.018
58.5079 -0.317
58.5382 -0.310
58.5684 0.009
58.5987 0.015
58.6290 0.283
58.6593 0.082
58.6896 0.558
58.7198 -0.163
58.7501 0.105
58.7804 0.061
58.8107 0.174
58.8409 0.183
58.8712 0.088
58.9015 0.409
58.9318 0.367
58.9621 0.064
58.9923 -0.030
59.0226 0.241
59.0529 -0.322
59.0832 -0.051
59.1135 -0.040
59.1437 -0.237
59.1740 0.243
59.2043 0.203
59.2346 -0.150
59.2648 0.748
59.2951 -0.438
59.3254 -0.217
59.3557 0.161
59.3860 -0.295
59.4162 -0.203
59.4465 -0.163
59.4768 -0.071
59.5071 -0.083
59.5374 -0.094
59.5676 0.572
59.5979 0.196
59.6282 0.289
59.6585 -0.086
59.6887 -0.409
59.7190 0.363
59.7493 0.040
59.7796 0.447
59.8099 -0.083
59.8401 0.273
59.8704 -0.153
59.9007 0.151
59.9310 0.195
59.9613 0.187
59.9915 0.023
60.0218 0.171
60.0521 0.216
60.0824 0.053
60.1126 -0.267
60.1429 -0.117
60.1732 -0.176
60.2035 -0.078
60.2338 -0.084
60.2640 0.484
60.2943 -0.355
60.3246 -0.204
60.3549 -0.209
60.3852 -0.109
60.4154 0.042
60.4457 -0.014
60.4760 -0.070
60.5063 0.031
60.5365 -0.390
60.5668 0.016
60.5971 0.214
60.6274 -0.004
60.6577 -0.066
60.6879 -0.232
60.7182 0.071
60.7485 0.374
60.7788 -0.156
60.8091 0.096
60.8393 -0.433
60.8696 0.184
60.8999 0.436
60.9302 0.741
60.9604 0.421
60.9907 0.049
61.0210 -0.114
61.0513 -0.329
61.0816 -0.396
61.1118 0.422
61.1421 -0.529
61.1724 -0.023
61.2027 -0.766
61.2330 0.366
61.2632 0.093
61.2935 0.705
61.3238 -0.038
61.3541 -0.936
61.3844 0.250
61.4146 -0.544
61.4449 0.017
61.4752 0.110
61.5055 0.099
61.5357 -0.173
61.5660 -0.288
61.5963 0.847
61.6266 0.524
61.6569 0.410
61.6871 0.139
61.7174 0.338
61.7477 0.224
61.7780 0.996
61.8083 1.560
61.8385 0.093
61.8688 1.022
61.8991 1.483
61.9294 1.735
61.9596 0.998
61.9899 0.626
62.0202 1.244
62.0505 1.966
62.0808 1.230
62.1110 1.744
62.1413 2.571
62.1716 1.992
62.2019 2.559
62.2322 3.231
62.2624 3.174
62.2927 2.908
62.3230 3.632
62.3533 4.253
62.3835 4.353
62.4138 6.328
62.4441 6.220
62.4744 7.362
62.5047 8.504
62.5349 8.293
62.5652 8.863
62.5955 10.162
62.6258 10.837
62.6561 12.762
62.6863 13.698
62.7166 12.290
62.7469 13.643
62.7772 11.089
62.8074 13.953
62.8377 14.161
62.8680 13.118
62.8983 11.400
62.9286 10.566
62.9588 8.796
62.9891 8.432
63.0194 7.078
63.0497 7.652
63.0800 5.518
63.1102 6.613
63.1405 5.626
63.1708 4.325
63.2011 3.859
63.2313 3.497
63.2616 2.458
63.2919 2.513
63.3222 2.412
63.3525 2.624
63.3827 1.586
63.4130 1.330
63.4433 1.594
63.4736 0.922
63.5039 1.864
63.5341 -0.163
63.5644 -0.053
63.5947 0.369
63.6250 0.791
63.6552 0.745
63.6855 1.168
63.7158 0.289
63.7461 -0.017
63.7764 0.511
63.8066 0.414
63.8369 -0.100
63.8672 0.116
63.8975 0.593
63.9278 -0.753
63.9580 -0.068
63.9883 -0.215
64.0186 -0.207
64.0489 0.636
64.0791 -0.188
64.1094 0.134
64.1397 -0.325
64.1700 0.466
64.2003 0.112
64.2305 -0.034
64.2608 -0.023
64.2911 0.092
64.3214 0.052
64.3517 0.167
64.3819 0.127
64.4122 -0.173
64.4425 -0.057
64.4728 -0.044
64.5031 0.125
64.5333 -0.592
64.5636 0.567
64.5939 0.216
64.6242 -0.655
64.6544 0.036
64.6847 0.362
64.7150 -0.196
64.7453 -0.702
64.7756 0.244
64.8058 0.148
64.8361 0.782
64.8664 0.114
64.8967 0.645
64.9270 -0.648
64.9572 -0.325
64.9875 0.131
65.0178 0.171
65.0481 0.680
65.0783 0.252
65.1086 0.449
65.1389 0.698
65.1692 0.375
65.1995 0.000
65.2297 0.093
65.2600 -0.333
65.2903 -0.299
65.3206 -0.317
65.3509 -0.074
65.3811 -0.247
65.4114 -0.004
65.4417 -0.229
65.4720 -0.089
65.5022 0.416
65.5325 -0.017
65.5628 -0.085
65.5931 0.473
65.6234 0.510
65.6536 0.443
65.6839 0.219
65.7142 0.205
65.7445 0.660
65.7748 -0.084
65.8050 0.892
65.8353 0.410
65.8656 -0.489
65.8959 0.800
65.9261 0.163
65.9564 0.306
65.9867 0.346
66.0170 1.115
66.0473 0.895
66.0775 1.509
66.1078 0.143
66.1381 0.861
66.1684 1.371
66.1987 1.517
66.2289 1.350
66.2592 1.757
66.2895 0.966
66.3198 1.581
66.3500 1.416
66.3803 0.417
66.4106 1.294
66.4409 1.389
66.4712 1.068
66.5014 1.216
66.5317 1.000
66.5620 0.836
66.5923 0.517
66.6226 0.770
66.6528 0.971
66.6831 0.652
66.7134 0.698
66.7437 1.160
66.7739 -0.304
66.8042 0.732
66.8345 0.466
66.8648 0.357
66.8951 0.560
66.9253 0.608
66.9556 1.020
66.9859 0.286
67.0162 1.585
67.0465 1.320
67.0767 0.275
67.1070 0.949
67.1373 0.842
67.1676 0.839
67.1978 1.462
67.2281 2.293
67.2584 1.405
67.2887 1.195
67.3190 2.652
67.3492 2.807
67.3795 4.004
67.4098 3.066
67.4401 4.263
67.4704 4.054
67.5006 4.106
67.5309 4.107
67.5612 4.055
67.5915 6.295
67.6218 6.661
67.6520 6.506
67.6823 7.497
67.7126 8.071
67.7429 8.385
67.7731 8.908
67.8034 8.025
67.8337 10.111
67.8640 8.968
67.8943 9.701
67.9245 9.756
67.9548 7.208
67.9851 8.982
68.0154 8.049
68.0457 7.064
68.0759 7.641
68.1062 6.969
68.1365 6.453
68.1668 4.948
68.1970 5.214
68.2273 3.970
68.2576 5.278
68.2879 3.982
68.3182 3.468
68.3484 4.152
68.3787 3.325
68.4090 2.395
68.4393 2.976
68.4696 2.723
68.4998 2.575
68.5301 2.895
68.5604 2.487
68.5907 3.902
68.6209 2.297
68.6512 2.514
68.6815 2.524
68.7118 2.533
68.7421 4.835
68.7723 3.231
68.8026 3.814
68.8329 3.408
68.8632 4.304
68.8935 3.274
68.9237 4.848
68.9540 4.651
68.9843 3.101
69.0146 4.050
69.0448 4.375
69.0751 3.815
69.1054 3.151
69.1357 3.580
69.1660 2.656
69.1962 2.878
69.2265 3.621
69.2568 2.646
69.2871 2.087
69.3174 2.206
69.3476 2.221
69.3779 1.819
69.4082 1.105
69.4385 1.902
69.4687 0.303
69.4990 1.101
69.5293 0.961
69.5596 -0.116
69.5899 0.578
69.6201 0.438
69.6504 0.299
69.6807 -0.100
69.7110 1.168
69.7413 0.613
69.7715 0.579
69.8018 0.337
69.8321 -0.425
69.8624 0.583
69.8926 0.446
69.9229 -0.107
69.9532 0.329
69.9835 0.349
70.0138 -0.412
70.0440 0.025
70.0743 0.307
70.1046 0.692
70.1349 -0.224
70.1652 -0.203
70.1954 0.496
70.2257 -0.315
70.2560 0.019
70.2863 0.458
70.3166 0.637
70.3468 0.400
70.3771 -0.306
70.4074 -0.075
70.4377 -0.311
70.4679 0.127
70.4982 -0.268
70.5285 -0.246
70.5588 0.141
70.5891 0.476
70.6193 -0.178
70.6496 -0.624
70.6799 0.227
70.7102 -0.067
70.7405 0.160
70.7707 0.491
70.8010 -0.011
70.8313 0.269
70.8616 0.392
70.8918 0.725
70.9221 0.640
70.9524 0.400
70.9827 0.473
71.0130 0.024
71.0432 0.410
71.0735 -0.142
71.1038 0.036
71.1341 -0.255
71.1644 -0.212
71.1946 0.455
71.2249 0.238
71.2552 0.386
71.2855 0.169
71.3157 0.265
71.3460 -0.420
71.3763 0.406
71.4066 0.190
71.4369 0.078
71.4671 0.176
71.4974 0.794
71.5277 0.371
71.5580 0.156
71.5883 0.202
71.6185 -0.012
71.6488 0.347
71.6791 0.342
71.7094 0.181
71.7396 0.593
71.7699 -0.245
71.8002 0.115
71.8305 0.319
71.8608 -0.205
71.8910 0.208
71.9213 0.465
71.9516 -0.215
71.9819 -0.062
72.0122 -0.168
72.0424 0.454
72.0727 0.140
72.1030 0.086
72.1333 0.345
72.1635 0.187
72.1938 -0.074
72.2241 0.550
72.2544 0.289
72.2847 0.653
72.3149 0.913
72.3452 0.653
72.3755 0.757
72.4058 1.331
72.4361 1.019
72.4663 1.437
72.4966 0.553
72.5269 0.555
72.5572 0.973
72.5874 0.298
72.6177 0.561
72.6480 0.563
72.6783 1.035
72.7086 0.673
72.7388 0.468
72.7691 0.107
72.7994 0.892
72.8297 0.532
72.8600 0.224
72.8902 0.280
72.9205 0.129
72.9508 0.655
72.9811 0.087
73.0113 0.145
73.0416 0.046
73.0719 0.052
73.1022 -0.046
73.1325 0.221
73.1627 0.280
73.1930 0.131
73.2233 0.034
73.2536 0.249
73.2839 0.413
73.3141 0.213
73.3444 0.273
73.3747 0.177
73.4050 -0.074
73.4353 -0.222
73.4655 -0.056
73.4958 -0.255
73.5261 -0.040
73.5564 -0.085
73.5866 -0.078
73.6169 0.242
73.6472 0.353
73.6775 -0.680
73.7078 -0.099
73.7380 0.221
73.7683 0.282
73.7986 0.135
73.8289 -0.169
73.8592 0.570
73.8894 0.110
73.9197 -0.244
73.9500 -0.195
73.9803 0.323
74.0105 0.477
74.0408 -0.098
74.0711 0.005
74.1014 0.211
74.1317 -0.050
74.1619 0.053
74.1922 -0.105
74.2225 0.468
74.2528 -0.210
74.2831 0.363
74.3133 0.624
74.3436 0.051
74.3739 0.000
74.4042 0.573
74.4344 -0.259
74.4647 0.003
74.4950 0.421
74.5253 0.267
74.5556 -0.044
74.5858 -0.041
74.6161 -0.091
74.6464 -0.244
74.6767 -0.198
74.7070 -0.047
74.7372 0.052
74.7675 0.255
74.7978 0.094
74.8281 0.089
74.8583 0.502
74.8886 -0.075
74.9189 -0.392
74.9492 0.178
74.9795 0.070
75.0097 -0.037
75.0400 0.533
75.0703 0.270
75.1006 0.111
75.1309 -0.151
75.1611 0.159
75.1914 -0.259
75.2217 -0.109
75.2520 0.042
75.2822 0.453
75.3125 -0.282
75.3428 -0.235
75.3731 0.021
75.4034 0.277
75.4336 -0.301
75.4639 0.112
75.4942 0.889
75.5245 -0.208
75.5548 0.101
75.5850 -0.111
75.6153 0.251
75.6456 0.457
75.6759 -0.066
75.7061 -0.016
75.7364 -0.227
75.7667 0.136
75.7970 0.291
75.8273 0.082
75.8575 0.341
75.8878 0.080
75.9181 -0.285
75.9484 -0.032
75.9787 0.118
76.0089 0.684
76.0392 0.105
76.0695 0.672
76.0998 0.093
76.1301 0.660
76.1603 0.290
76.1906 0.546
76.2209 -0.136
76.2512 0.068
76.2814 0.219
76.3117 0.632
76.3420 0.576
76.3723 0.260
76.4026 0.204
76.4328 0.566
76.4631 0.042
76.4934 -0.065
76.5237 0.610
76.5540 0.348
76.5842 0.450
76.6145 1.021
76.6448 0.707
76.6751 0.654
76.7053 0.965
76.7356 0.444
76.7659 0.860
76.7962 1.016
76.8265 1.641
76.8567 0.912
76.8870 0.600
76.9173 1.591
76.9476 0.550
76.9779 0.499
77.0081 0.605
77.0384 0.711
77.0687 0.296
77.0990 0.715
77.1292 0.770
77.1595 0.043
77.1898 0.411
77.2201 -0.211
77.2504 0.470
77.2806 0.317
77.3109 0.321
77.3412 0.221
77.3715 0.538
77.4018 -0.134
77.4320 -0.129
77.4623 0.292
77.4926 0.402
77.5229 0.460
77.5531 0.570
77.5834 -0.049
77.6137 0.218
77.6440 0.224
77.6743 0.752
77.7045 -0.022
77.7348 -0.223
77.7651 0.045
77.7954 -0.260
77.8257 0.061
77.8559 0.121
77.8862 0.130
77.9165 0.191
77.9468 0.148
77.9770 0.001
78.0073 -0.250
78.0376 0.013
78.0679 -0.246
78.0982 0.121
78.1284 -0.136
78.1587 0.023
78.1890 0.391
78.2193 0.030
78.2496 -0.071
78.2798 -0.015
78.3101 0.771
78.3404 0.410
78.3707 0.259
78.4009 -0.101
78.4312 0.165
78.4615 0.014
78.4918 0.280
78.5221 -0.495
78.5523 0.188
78.5826 0.246
78.6129 0.097
78.6432 -0.261
78.6735 0.579
78.7037 0.274
78.7340 -0.135
78.7643 -0.075
78.7946 0.246
78.8248 0.046
78.8551 0.523
78.8854 -0.093
78.9157 0.072
78.9460 -0.023
78.9762 0.404
79.0065 0.049
79.0368 0.319
79.0671 -0.139
79.0974 -0.389
79.1276 0.193
79.1579 -0.111
79.1882 0.472
79.2185 0.013
79.2488 -0.030
79.2790 0.137
79.3093 0.147
79.3396 -0.467
79.3699 -0.113
79.4001 0.345
79.4304 -0.030
79.4607 0.689
79.4910 0.263
79.5213 0.201
79.5515 0.192
79.5818 0.235
79.6121 -0.243
79.6424 0.165
79.6727 0.365
79.7029 0.044
79.7332 0.089
79.7635 -0.127
79.7938 0.074
79.8240 0.171
79.8543 0.424
79.8846 0.053
79.9149 -0.110
79.9452 0.040
79.9754 0.087
80.0057 -0.596
80.0360 0.336
80.0663 0.018
80.0966 0.066
80.1268 0.113
80.1571 0.108
80.1874 -0.052
80.2177 -0.056
80.2479 -0.216
80.2782 -0.063
80.3085 0.090
80.3388 0.295
80.3691 0.032
80.3993 -0.022
80.4296 -0.441
80.4599 0.072
80.4902 -0.351
80.5205 0.319
80.5507 -0.156
80.5810 -0.215
80.6113 0.092
80.6416 0.190
80.6718 0.341
80.7021 0.075
80.7324 0.279
80.7627 0.482
80.7930 0.478
80.8232 0.682
80.8535 0.313
80.8838 0.570
80.9141 0.670
80.9444 0.355
80.9746 0.351
81.0049 0.349
81.0352 -0.071
81.0655 0.344
81.0957 0.290
81.1260 0.600
81.1563 0.286
81.1866 0.910
81.2169 0.440
81.2471 0.647
81.2774 0.490
81.3077 0.646
81.3380 0.854
81.3683 0.490
81.3985 0.490
81.4288 0.595
81.4591 -0.289
81.4894 0.910
81.5196 0.234
81.5499 0.287
81.5802 0.237
81.6105 0.552
81.6408 -0.175
81.6710 -0.173
81.7013 0.143
81.7316 0.458
81.7619 0.149
81.7922 -0.004
81.8224 0.104
81.8527 0.264
81.8830 0.373
81.9133 -0.404
81.9436 0.070
81.9738 -0.082
82.0041 -0.024
82.0344 0.242
82.0647 -0.117
82.0949 -0.215
82.1252 -0.105
82.1555 0.110
82.1858 -0.040
82.2161 0.436
82.2463 -0.026
82.2766 0.086
82.3069 0.146
82.3372 -0.107
82.3675 0.370
82.3977 0.587
82.4280 -0.134
82.4583 -0.073
82.4886 0.353
82.5188 -0.315
82.5491 -0.097
82.5794 -0.087
82.6097 -0.233
82.6400 -0.028
82.6702 0.021
82.7005 0.382
82.7308 0.275
82.7611 0.273
82.7914 -0.042
82.8216 -0.044
82.8519 0.266
82.8822 0.004
82.9125 0.263
82.9427 -0.259
82.9730 0.053
83.0033 -0.052
83.0336 -0.104
83.0639 0.052
83.0941 0.000
83.1244 -0.052
83.1547 -0.103
83.1850 0.158
83.2153 0.159
83.2455 0.056
83.2758 0.527
83.3061 0.008
83.3364 0.322
83.3666 -0.144
83.3969 -0.038
83.4272 -0.139
83.4575 0.281
83.4878 -0.237
83.5180 0.444
83.5483 0.083
83.5786 0.712
83.6089 -0.117
83.6392 0.200
83.6694 -0.212
83.6997 -0.415
83.7300 0.264
83.7603 0.214
83.7905 -0.200
83.8208 0.011
83.8511 0.378
83.8814 -0.088
83.9117 -0.136
83.9419 0.284
83.9722 0.028
84.0025 -0.020
84.0328 0.140
84.0631 -0.064
84.0933 0.254
84.1236 -0.002
84.1539 -0.100
84.1842 0.009
84.2144 0.901
84.2447 0.282
84.2750 -0.233
84.3053 -0.241
84.3356 0.481
84.3658 0.213
84.3961 0.779
84.4264 0.043
84.4567 0.453
84.4870 0.238
84.5172 0.440
84.5475 -0.139
84.5778 0.116
84.6081 0.059
84.6383 0.210
84.6686 0.726
84.6989 0.356
84.7292 0.196
84.7595 0.296
84.7897 0.031
84.8200 -0.077
84.8503 -0.341
84.8806 0.385
84.9109 -0.086
84.9411 -0.089
84.9714 0.117
85.0017 0.166
85.0320 0.217
85.0623 0.059
85.0925 0.109
85.1228 -0.205
85.1531 -0.102
85.1834 0.002
85.2136 0.001
85.2439 0.001
85.2742 -0.051
85.3045 0.209
85.3348 0.314
85.3650 -0.206
85.3953 0.212
85.4256 0.213
85.4559 0.058
85.4862 0.216
85.5164 0.218
85.5467 0.220
85.5770 0.222
85.6073 0.069
85.6375 0.332
85.6678 0.231
85.6981 -0.130
85.7284 0.342
85.7587 0.085
85.7889 -0.275
85.8192 0.302
85.8495 0.203
85.8798 0.103
85.9101 -0.048
85.9403 -0.095
85.9706 -0.193
86.0009 0.177
86.0312 0.444
86.0614 0.189
86.0917 -0.012
86.1220 -0.006
86.1523 -0.311
86.1826 0.046
86.2128 -0.013
86.2431 0.449
86.2734 0.129
86.3037 0.019
86.3340 0.325
86.3642 -0.046
86.3945 0.105
86.4248 0.308
86.4551 0.406
86.4853 -0.119
86.5156 -0.020
86.5459 -0.233
86.5762 -0.086
86.6065 -0.095
86.6367 0.209
86.6670 -0.060
86.6973 -0.016
86.7276 0.132
86.7579 -0.136
86.7881 0.222
86.8184 0.266
86.8487 0.624
86.8790 -0.008
86.9092 -0.222
86.9395 0.240
86.9698 -0.183
87.0001 -0.188
87.0304 -0.350
87.0606 0.582
87.0909 0.265
87.1212 -0.053
87.1515 -0.005
87.1818 -0.061
87.2120 0.143
87.2423 0.243
87.2726 -0.177
87.3029 0.184
87.3331 -0.183
87.3634 0.074
87.3937 0.020
87.4240 0.017
87.4543 -0.037
87.4845 -0.143
87.5148 0.064
87.5451 -0.250
87.5754 -0.045
87.6057 -0.152
87.6359 -0.311
87.6662 0.205
87.6965 -0.009
87.7268 -0.274
87.7571 0.295
87.7873 0.186
87.8176 0.651
87.8479 0.022
87.8782 0.175
87.9084 0.172
87.9387 0.065
87.9690 -0.250
87.9993 0.008
88.0296 -0.255
88.0598 -0.214
88.0901 -0.538
88.1204 0.545
88.1507 -0.143
88.1810 -0.205
88.2112 -0.111
88.2415 0.139
88.2718 0.078
88.3021 0.016
88.3323 0.007
88.3626 0.623
88.3929 0.354
88.4232 -0.123
88.4535 -0.027
88.4837 -0.191
88.5140 -0.095
88.5443 0.679
88.5746 -0.005
88.6049 0.092
88.6351 0.450
88.6654 -0.025
88.6957 0.594
88.7260 0.171
88.7562 0.270
88.7865 0.108
88.8168 1.040
88.8471 0.410
88.8774 0.197
88.9076 0.401
88.9379 0.136
88.9682 0.393
88.9985 1.066
89.0288 0.854
89.0590 0.591
89.0893 1.577
89.1196 0.897
89.1499 1.207
89.1801 1.413
89.2104 1.203
89.2407 1.826
89.2710 1.252
89.3013 2.188
89.3315 0.312
89.3618 2.238
89.3921 2.394
89.4224 2.029
89.4527 1.612
89.4829 1.352
89.5132 1.456
89.5435 1.978
89.5738 1.406
89.6040 1.876
89.6343 1.304
89.6646 1.514
89.6949 1.933
89.7252 2.039
89.7554 1.000
89.7857 1.784
89.8160 2.307
89.8463 1.269
89.8766 2.262
89.9068 0.963
89.9371 0.863
89.9674 0.867
89.9977 0.507
90.0279 0.511
90.0582 0.828
90.0885 0.833
90.1188 0.370
90.1491 -0.093
90.1793 1.006
90.2096 0.544
90.2399 0.446
90.2702 0.140
90.3005 1.136
90.3307 0.310
90.3610 0.004
90.3913 0.272
90.4216 0.280
90.4518 0.548
90.4821 0.036
90.5124 0.409
90.5427 -0.207
90.5730 0.114
90.6032 -0.241
90.6335 0.445
90.6638 0.142
90.6941 -0.212
90.7244 0.058
90.7546 -0.244
90.7849 -0.598
90.8152 0.283
90.8455 -0.293
90.8758 0.276
90.9060 -0.145
90.9363 0.477
90.9666 -0.411
90.9969 0.107
91.0271 -0.260
91.0574 -0.267
91.0877 0.612
91.1180 0.084
91.1483 0.078
91.1785 0.541
91.2088 0.067
91.2391 -0.147
91.2694 -0.204
91.2997 0.052
91.3299 -0.266
91.3602 -0.011
91.3905 -0.174
91.4208 0.133
91.4510 0.648
91.4813 0.122
91.5116 0.534
91.5419 0.320
91.5722 -0.205
91.6024 -0.001
91.6327 0.047
91.6630 0.199
91.6933 -0.325
91.7236 0.140
91.7538 0.345
91.7841 0.082
91.8144 -0.441
91.8447 -0.034
91.8749 -0.042
91.9052 -0.051
91.9355 -0.059
91.9658 -0.067
91.9961 -0.179
92.0263 -0.134
92.0566 0.223
92.0869 -0.149
92.1172 0.209
92.1475 0.203
92.1777 -0.168
92.2080 -0.226
92.2383 0.028
92.2686 0.388
92.2988 -0.139
92.3291 0.638
92.3594 -0.148
92.3897 0.368
92.4200 0.259
92.4502 0.620
92.4805 0.147
92.5108 0.456
92.5411 0.453
92.5714 0.814
92.6016 0.239
92.6319 0.184
92.6622 0.338
92.6925 0.857
92.7227 -0.031
92.7530 0.853
92.7833 0.383
92.8136 0.486
92.8439 0.225
92.8741 0.433
92.9044 0.172
92.9347 0.692
92.9650 -0.037
92.9953 0.589
93.0255 -0.140
93.0558 -0.139
93.0861 0.331
93.1164 0.176
93.1466 0.229
93.1769 -0.081
93.2072 0.025
93.2375 -0.285
93.2678 -0.336
93.2980 0.342
93.3283 0.500
93.3586 0.137
93.3889 -0.121
93.4192 0.246
93.4494 -0.012
93.4797 0.199
93.5100 0.046
93.5403 0.570
93.5706 -0.520
93.6008 0.109
93.6311 0.373
93.6614 0.325
93.6917 -0.087
93.7219 -0.134
93.7522 -0.285
93.7825 0.178
93.8128 0.225
93.8431 -0.144
93.8733 0.164
93.9036 0.004
93.9339 0.052
93.9642 0.048
93.9945 0.045
94.0247 -0.011
94.0550 -0.534
94.0853 0.348
94.1156 0.242
94.1458 0.135
94.1761 -0.127
94.2064 -0.285
94.2367 0.023
94.2670 -0.137
94.2972 -0.140
94.3275 0.742
94.3578 -0.199
94.3881 -0.045
94.4184 0.317
94.4486 0.106
94.4789 0.677
94.5092 -0.575
94.5395 0.049
94.5697 0.568
94.6000 0.307
94.6303 1.504
94.6606 0.306
94.6909 0.461
94.7211 0.409
94.7514 0.774
94.7817 0.358
94.8120 0.515
94.8423 1.193
94.8725 1.350
94.9028 1.508
94.9331 0.884
94.9634 1.511
94.9936 1.253
95.0239 1.880
95.0542 1.622
95.0845 1.521
95.1148 1.576
95.1450 1.423
95.1753 1.635
95.2056 1.900
95.2359 1.799
95.2662 1.179
95.2964 2.017
95.3267 1.240
95.3570 1.297
95.3873 1.928
95.4175 1.829
95.4478 1.158
95.4781 1.424
95.5084 1.170
95.5387 1.437
95.5689 1.183
95.5992 1.607
95.6295 1.614
95.6598 1.049
95.6901 1.213
95.7203 1.117
95.7506 0.500
95.7809 -0.012
95.8112 0.934
95.8414 0.943
95.8717 0.796
95.9020 0.545
95.9323 0.763
95.9626 0.877
95.9928 0.574
96.0231 0.481
96.0534 0.752
96.0837 -0.331
96.1140 0.253
96.1442 0.369
96.1745 0.484
96.2048 0.184
96.2351 -0.064
96.2653 -0.260
96.2956 -0.157
96.3259 0.467
96.3562 -0.158
96.3865 0.206
96.4167 -0.315
96.4470 -0.054
96.4773 0.207
96.5076 0.207
96.5379 -0.104
96.5681 -0.624
96.5984 0.152
96.6287 0.458
96.6590 0.192
96.6893 0.812
96.7195 -0.078
96.7498 -0.083
96.7801 -0.088
96.8104 -0.248
96.8406 0.373
96.8709 -0.412
96.9012 0.053
96.9315 0.050
96.9618 -0.005
96.9920 0.200
97.0223 0.458
97.0526 0.143
97.0829 -0.328
97.1132 0.400
97.1434 0.138
97.1737 0.136
97.2040 0.135
97.2343 0.187
97.2645 0.186
97.2948 0.081
97.3251 -0.231
97.3554 -0.179
97.3857 -0.074
97.4159 -0.334
97.4462 0.344
97.4765 0.293
97.5068 -0.018
97.5371 0.087
97.5673 -0.067
97.5976 -0.065
97.6279 0.042
97.6582 0.200
97.6884 -0.266
97.7187 -0.266
97.7490 -0.009
97.7793 0.144
97.8096 0.141
97.8398 0.086
97.8701 0.501
97.9004 -0.179
97.9307 1.173
97.9610 0.286
97.9912 0.389
98.0215 -0.029
98.0518 0.647
98.0821 1.011
98.1123 1.062
98.1426 0.593
98.1729 0.697
98.2032 1.479
98.2335 0.281
98.2637 0.542
98.2940 0.647
98.3243 0.648
98.3546 0.858
98.3849 0.703
98.4151 0.966
98.4454 0.343
98.4757 1.022
98.5060 0.712
98.5362 1.392
98.5665 1.552
98.5968 1.138
98.6271 1.090
98.6574 0.677
98.6876 0.473
98.7179 0.685
98.7482 0.221
98.7785 0.486
98.8088 0.387
98.8390 0.809
98.8693 0.711
98.8996 0.248
98.9299 -0.215
98.9601 0.520
98.9904 0.214
99.0207 0.690
99.0510 0.489
99.0813 0.704
99.1115 -0.017
99.1418 1.032
99.1721 0.311
99.2024 0.215
99.2327 0.848
99.2629 0.284
99.2932 -0.176
99.3235 0.354
99.3538 -0.105
99.3841 -0.043
99.4143 0.279
99.4446 0.237
99.4749 0.144
99.5052 0.102
99.5354 0.061
99.5657 0.124
99.5960 -0.021
99.6263 -0.217
99.6566 0.680
99.6868 0.067
99.7171 -0.285
99.7474 -0.029
99.7777 0.331
99.8080 1.108
99.8382 0.584
99.8685 -0.045
99.8988 -0.152
99.9291 0.418
99.9593 0.154
99.9896 0.360
100.0199 0.618
100.0502 0.460
100.0805 -0.115
100.1107 0.509
100.1410 0.559
100.1713 0.142
100.2016 0.193
100.2319 -0.068
100.2621 -0.069
100.2924 -0.590
100.3227 0.296
100.3530 -0.120
100.3832 0.349
100.4135 -0.119
100.4438 0.976
100.4741 0.092
100.5044 0.041
100.5346 0.356
100.5649 -0.215
100.5952 0.308
100.6255 0.259
100.6558 0.157
100.6860 -0.361
100.7163 0.059
100.7466 0.063
100.7769 0.431
100.8071 0.487
100.8374 -0.081
100.8677 -0.441
100.8980 0.118
100.9283 0.261
100.9585 0.405
100.9888 0.288
101.0191 -0.297
101.0494 0.055
101.0797 -0.009
101.1099 -0.020
101.1402 -0.136
101.1705 -0.147
101.2008 -0.158
101.2310 0.300
101.2613 0.290
101.2916 0.071
101.3219 -0.043
101.3522 0.260
101.3824 0.250
101.4127 0.814
101.4430 0.389
101.4733 -0.141
101.5036 -0.097
101.5338 0.467
101.5641 0.303
101.5944 -0.121
101.6247 -0.233
101.6549 0.281
101.6852 -0.195
101.7155 0.215
101.7458 0.313
101.7761 0.671
101.8063 -0.064
101.8366 0.086
101.8669 0.445
101.8972 0.075
101.9275 0.122
101.9577 -0.559
101.9880 0.009
102.0183 -0.100
102.0486 -0.208
102.0788 -0.264
102.1091 0.149
102.1394 -0.271
102.1697 -0.179
102.2000 0.278
102.2302 0.423
102.2605 0.047
102.2908 0.349
102.3211 0.338
102.3514 0.327
102.3816 0.004
102.4119 0.307
102.4422 -0.172
102.4725 0.704
102.5028 0.538
102.5330 0.477
102.5633 0.364
102.5936 0.980
102.6239 0.243
102.6541 0.182
102.6844 -0.346
102.7147 0.636
102.7450 0.472
102.7753 0.569
102.8055 0.041
102.8358 0.034
102.8661 0.809
102.8964 -0.030
102.9267 0.589
102.9569 0.531
102.9872 -0.568
103.0175 0.312
103.0478 0.307
103.0780 1.083
103.1083 1.287
103.1386 1.491
103.1689 0.602
103.1992 0.181
103.2294 -0.135
103.2597 0.956
103.2900 -0.037
103.3203 -0.092
103.3506 0.010
103.3808 0.581
103.4111 0.318
103.4414 0.473
103.4717 0.315
103.5019 0.314
103.5322 0.260
103.5625 0.520
103.5928 0.936
103.6231 0.675
103.6533 1.404
103.6836 0.259
103.7139 0.259
103.7442 0.520
103.7745 0.365
103.8047 0.574
103.8350 0.419
103.8653 1.463
103.8956 0.683
103.9258 1.102
103.9561 1.000
103.9864 0.951
104.0167 1.735
104.0470 0.384
104.0772 1.064
104.1075 1.641
104.1378 1.176
104.1681 1.284
104.1984 1.080
104.2286 0.668
104.2589 0.829
104.2892 0.730
104.3195 0.891
104.3497 -0.093
104.3800 1.527
104.4103 1.273
104.4406 1.383
104.4709 1.025
104.5011 0.928
104.5314 0.622
104.5617 0.734
104.5920 0.689
104.6223 -0.032
104.6525 0.653
104.6828 0.869
104.7131 0.149
104.7434 1.147
104.7736 0.218
104.8039 -0.241
104.8342 0.133
104.8645 0.247
104.8948 -0.004
104.9250 -0.150
104.9553 0.277
104.9856 -0.494
105.0159 -0.221
105.0462 0.156
105.0764 -0.144
105.1067 0.337
105.1370 0.194
105.1673 -0.626
105.1975 0.221
105.2278 0.026
105.2581 0.197
105.2884 0.263
105.3187 0.017
105.3489 0.032
105.3792 -0.057
105.4095 0.270
105.4398 0.234
105.4701 0.041
105.5003 0.474
105.5306 0.229
105.5609 0.715
105.5912 0.211
105.6215 0.540
105.6517 0.453
105.6820 0.158
105.7123 0.019
105.7426 -0.379
105.7728 0.264
105.8031 -0.239
105.8334 -0.348
105.8637 0.428
105.8940 0.058
105.9242 0.366
105.9545 -0.107
105.9848 -0.216
106.0151 0.093
106.0454 0.089
106.0756 0.137
106.1059 0.395
106.1362 0.652
106.1665 0.441
106.1967 0.022
106.2270 0.071
106.2573 0.121
106.2876 0.484
106.3179 0.535
106.3481 -0.404
106.3784 0.324
106.4087 -0.250
106.4390 0.114
106.4693 0.478
106.4995 0.062
106.5298 0.270
106.5601 0.062
106.5904 0.115
106.6206 0.428
106.6509 0.221
106.6812 0.118
106.7115 0.224
106.7418 -0.295
106.7720 -0.137
106.8023 -0.082
106.8326 0.129
106.8629 -0.337
106.8932 -0.082
106.9234 0.174
106.9537 0.170
106.9840 0.790
107.0143 0.318
107.0445 0.679
107.0748 -0.315
107.1051 0.151
107.1354 0.304
107.1657 0.041
107.1959 -0.170
107.2262 -0.068
107.2565 0.347
107.2868 0.710
107.3171 -0.125
107.3473 0.134
107.3776 0.393
107.4079 0.236
107.4382 0.027
107.4684 0.392
107.4987 0.027
107.5290 0.131
107.5593 0.080
107.5896 0.393
107.6198 0.185
107.6501 -0.230
107.6804 0.136
107.7107 0.398
107.7410 0.452
107.7712 0.194
107.8015 0.144
107.8318 0.199
107.8621 -0.215
107.8923 0.309
107.9226 0.260
107.9529 0.420
107.9832 0.528
108.0135 -0.197
108.0437 0.797
108.0740 0.541
108.1043 -0.079
108.1346 0.030
108.1649 0.660
108.1951 0.145
108.2254 0.203
108.2557 0.574
108.2860 0.111
108.3163 0.378
108.3465 -0.136
108.3768 -0.285
108.4071 0.182
108.4374 -0.133
108.4676 -0.239
108.4979 0.171
108.5282 0.530
108.5585 -0.049
108.5888 0.049
108.6190 0.200
108.6493 -0.170
108.6796 -0.123
108.7099 0.133
108.7402 -0.028
108.7704 0.228
108.8007 -0.141
108.8310 0.011
108.8613 0.268
108.8915 -0.152
108.9218 -0.311
108.9521 0.197
108.9824 0.289
109.0127 0.068
109.0429 0.004
109.0732 0.045
109.1035 0.085
109.1338 -0.291
109.1641 0.271
109.1943 0.052
109.2246 0.354
109.2549 0.084
109.2852 0.126
109.3154 0.220
109.3457 -0.206
109.3760 -0.163
109.4063 -0.068
109.4366 -0.181
109.4668 0.279
109.4971 -0.042
109.5274 0.732
109.5577 0.099
109.5880 -0.273
109.6182 0.240
109.6485 0.858
109.6788 0.070
109.7091 0.168
109.7393 -0.099
109.7696 0.311
109.7999 0.306
109.8302 -0.013
109.8605 -0.122
109.8907 0.290
109.9210 0.701
109.9513 0.124
109.9816 0.276
110.0119 0.324
110.0421 0.007
110.0724 0.368
110.1027 0.365
110.1330 1.143
110.1632 -0.162
110.1935 0.408
110.2238 1.239
110.2541 -0.117
110.2844 0.506
110.3146 0.504
110.3449 -0.122
110.3752 0.501
110.4055 0.813
110.4358 0.604
110.4660 1.124
110.4963 0.499
110.5266 -0.022
110.5569 -0.126
110.5871 -0.177
110.6174 0.448
110.6477 0.710
110.6780 0.659
110.7083 -0.121
110.7385 0.193
110.7688 0.508
110.7991 0.771
110.8294 0.044
110.8597 0.203
110.8899 -0.003
110.9202 0.157
110.9505 0.264
110.9808 0.164
111.0110 0.116
111.0413 -0.557
111.0716 0.176
111.1019 -0.079
111.1322 0.134
111.1624 0.295
111.1927 0.822
111.2230 0.411
111.2533 0.208
111.2836 0.006
111.3138 -0.040
111.3441 0.644
111.3744 0.338
111.4047 -0.019
111.4350 -0.168
111.4652 -0.161
111.4955 0.004
111.5258 -0.041
111.5561 -0.657
111.5863 0.237
111.6166 -0.171
111.6469 0.046
111.6772 0.733
111.7075 0.221
111.7377 -0.290
111.7680 0.241
111.7983 0.304
111.8286 -0.155
111.8589 0.325
111.8891 0.388
111.9194 0.139
111.9497 0.098
111.9800 0.214
112.0102 0.122
112.0405 0.343
112.0708 0.043
112.1011 0.003
112.1314 -0.244
112.1616 -0.247
112.1919 0.740
112.2222 0.686
112.2525 0.528
112.2828 0.162
112.3130 -0.100
112.3433 0.211
112.3736 0.262
112.4039 -0.311
112.4341 -0.209
112.4644 0.155
112.4947 0.102
112.5250 0.257
112.5553 0.673
112.5855 0.360
112.6158 -0.265
112.6461 0.256
112.6764 0.308
112.7067 0.309
112.7369 0.049
112.7672 -0.210
112.7975 0.260
112.8278 -0.311
112.8580 -0.210
112.8883 0.517
112.9186 0.098
112.9489 0.305
112.9792 0.355
113.0094 -0.115
113.0397 0.404
113.0700 0.039
113.1003 0.976
113.1306 -0.275
113.1608 0.089
113.1911 0.454
113.2214 -0.015
113.2517 0.038
113.2819 0.560
113.3122 0.300
113.3425 0.249
113.3728 -0.010
113.4031 0.253
113.4333 0.046
113.4636 0.257
113.4939 0.103
113.5242 -0.363
113.5545 -0.049
113.5847 -0.100
113.6150 -0.202
113.6453 0.373
113.6756 -0.094
113.7058 -0.039
113.7361 0.172
113.7664 0.383
113.7967 -0.291
113.8270 0.025
113.8572 -0.492
113.8875 0.294
113.9178 0.610
113.9481 0.563
113.9784 0.411
114.0086 -0.157
114.0389 -0.308
114.0692 0.375
114.0995 -0.140
114.1298 -0.239
114.1600 -0.098
114.1903 0.355
114.2206 0.340
114.2509 0.117
114.2811 0.363
114.3114 -0.016
114.3417 0.022
114.3720 0.060
114.4023 0.307
114.4325 0.241
114.4628 0.228
114.4931 -0.149
114.5234 -0.006
114.5537 -0.591
114.5839 0.178
114.6142 0.114
114.6445 0.206
114.6748 0.195
114.7050 -0.025
114.7353 0.433
114.7656 0.370
114.7959 0.100
114.8262 0.193
114.8564 0.548
114.8867 0.799
114.9170 0.164
114.9473 0.051
114.9776 -0.271
115.0078 -0.021
115.0381 -0.239
115.0684 -0.145
115.0987 0.367
115.1289 -0.059
115.1592 0.296
115.1895 0.131
115.2198 0.122
115.2501 0.062
115.2803 0.575
115.3106 0.202
115.3409 -0.066
115.3712 0.239
115.4015 0.492
115.4317 0.694
115.4620 -0.094
115.4923 -0.309
115.5226 0.414
115.5528 1.033
115.5831 0.975
115.6134 0.345
115.6437 0.444
115.6740 0.022
115.7042 0.330
115.7345 0.794
115.7648 0.634
115.7951 1.411
115.8254 0.210
115.8556 1.248
115.8859 1.245
115.9162 0.825
115.9465 0.614
115.9767 1.184
116.0070 1.234
116.0373 1.076
116.0676 1.543
116.0979 0.916
116.1281 0.967
116.1584 1.695
116.1887 1.278
116.2190 1.017
116.2493 1.225
116.2795 1.641
116.3098 1.121
116.3401 1.017
116.3704 1.330
116.4006 1.591
116.4309 1.384
116.4612 1.750
116.4915 0.866
116.5218 1.285
116.5520 0.870
116.5823 1.446
116.6126 1.188
116.6429 0.774
116.6732 1.402
116.7034 1.197
116.7337 1.097
116.7640 0.267
116.7943 1.000
116.8245 0.796
116.8548 0.280
116.8851 0.181
116.9154 0.550
116.9457 0.608
116.9759 0.926
117.0062 0.567
117.0365 0.677
117.0668 0.007
117.0971 0.169
117.1273 -0.032
117.1576 -0.234
117.1879 0.399
117.2182 0.615
117.2485 0.310
117.2787 0.370
117.3090 -0.091
117.3393 -0.186
117.3696 0.916
117.3998 -0.012
117.4301 -0.055
117.4604 0.215
117.4907 -0.192
117.5210 0.234
117.5512 -0.172
117.5815 0.359
117.6118 0.422
117.6421 -0.036
117.6724 -0.337
117.7026 0.084
117.7329 0.246
117.7632 -0.062
117.7935 -0.317
117.8237 0.523
117.8540 0.008
117.8843 -0.298
117.9146 0.073
117.9449 -0.337
117.9751 -0.019
118.0054 0.091
118.0357 -0.215
118.0660 -0.260
118.0963 0.263
118.1265 0.527
118.1568 0.218
118.1871 0.274
118.2174 0.226
118.2476 -0.186
118.2779 -0.078
118.3082 -0.125
118.3385 0.297
118.3688 0.562
118.3990 0.047
118.4293 0.001
118.4596 0.267
118.4899 0.117
118.5202 0.332
118.5504 0.026
118.5807 -0.019
118.6110 0.145
118.6413 0.048
118.6715 0.004
118.7018 0.116
118.7321 0.072
118.7624 0.653
118.7927 0.401
118.8229 0.046
118.8532 0.524
118.8835 0.168
118.9138 -0.082
118.9441 -0.072
118.9743 0.563
119.0046 0.209
119.0349 -0.145
119.0652 -0.239
119.0954 0.121
119.1257 0.012
119.1560 -0.149
119.1863 0.211
119.2166 0.102
119.2468 -0.006
119.2771 0.251
119.3074 -0.169
119.3377 0.192
119.3680 0.658
119.3982 0.863
119.4285 -0.077
119.4588 -0.027
119.4891 0.544
119.5193 0.230
119.5496 0.332
119.5799 0.175
119.6102 0.278
119.6405 -0.036
119.6707 0.797
119.7010 -0.036
119.7313 -0.141
119.7616 -0.036
119.7919 -0.244
119.8221 -0.086
119.8524 0.228
119.8827 -0.134
119.9130 0.389
119.9433 -0.337
119.9735 -0.337
120.0038 0.000
