'Id: "" Comment: "" Operator: "Lab Manager" Anode: "Cu" Scantype: "Locked Coupled" TimePerStep: "19.2" X: "9999" Y: "9999" Z: "9999" 
10.0015 0.000
10.0318 1.535
10.0620 1.665
10.0923 1.169
10.1226 2.914
10.1529 1.639
10.1832 2.447
10.2134 2.474
10.2437 3.752
10.2740 1.905
10.3043 3.028
10.3346 0.869
10.3648 0.065
10.3951 -0.895
10.4254 -0.102
10.4557 0.222
10.4859 0.754
10.5162 0.663
10.5465 -0.314
10.5768 -0.614
10.6071 -0.861
10.6373 0.089
10.6676 -0.159
10.6979 -0.198
10.7282 -2.163
10.7585 0.299
10.7887 -1.093
10.8190 -0.251
10.8493 0.019
10.8796 -0.492
10.9098 1.706
10.9401 2.550
10.9704 5.582
11.0007 6.531
11.0310 6.179
11.0612 7.493
11.0915 7.610
11.1218 5.176
11.1521 4.565
11.1824 5.985
11.2126 3.812
11.2429 5.702
11.2732 7.176
11.3035 6.515
11.3337 10.385
11.3640 12.746
11.3943 13.440
11.4246 15.645
11.4549 19.881
11.4851 25.473
11.5154 28.617
11.5457 30.302
11.5760 32.770
11.6063 41.540
11.6365 48.644
11.6668 58.456
11.6971 73.165
11.7274 82.458
11.7577 90.657
11.7879 87.086
11.8182 77.526
11.8485 64.007
11.8788 51.167
11.9090 37.649
11.9393 29.497
11.9696 22.699
11.9999 18.349
12.0302 12.698
12.0604 13.871
12.0907 10.564
12.1210 10.070
12.1513 8.379
12.1816 8.928
12.2118 4.477
12.2421 4.298
12.2724 2.452
12.3027 2.065
12.3329 1.471
12.3632 0.407
12.3935 0.178
12.4238 1.147
12.4541 0.241
12.4843 -0.560
12.5146 2.181
12.5449 -0.754
12.5752 0.060
12.6055 -0.583
12.6357 0.493
12.6660 -0.253
12.6963 -1.520
12.7266 0.911
12.7568 0.635
12.7871 0.203
12.8174 0.344
12.8477 0.173
12.8780 0.315
12.9082 0.457
12.9385 -0.859
12.9688 -0.416
12.9991 0.495
13.0294 -0.728
13.0596 -0.475
13.0899 0.539
13.1202 0.355
13.1505 -0.454
13.1807 0.925
13.2110 0.065
13.2413 0.143
13.2716 -0.091
13.3019 0.508
13.3321 -0.350
13.3624 0.511
13.3927 -0.555
13.4230 0.567
13.4533 1.273
13.4835 1.042
13.5138 -0.335
13.5441 0.320
13.5744 -0.691
13.6046 0.746
13.6349 0.152
13.6652 0.184
13.6955 -0.409
13.7258 -0.220
13.7560 -0.031
13.7863 0.315
13.8166 1.234
13.8469 -0.138
13.8772 -0.468
13.9074 0.148
13.9377 1.077
13.9680 0.131
13.9983 0.331
14.0285 0.480
14.0588 0.056
14.0891 -0.471
14.1194 0.564
14.1497 0.402
14.1799 0.188
14.2102 -0.442
14.2405 0.126
14.2708 0.956
14.3011 0.119
14.3313 0.376
14.3616 -0.408
14.3919 0.579
14.4222 1.202
14.4524 0.054
14.4827 0.574
14.5130 -0.573
14.5433 0.573
14.5736 1.146
14.6038 -0.625
14.6341 -0.311
14.6644 1.409
14.6947 0.213
14.7250 1.256
14.7552 1.832
14.7855 2.095
14.8158 1.422
14.8461 1.790
14.8764 2.159
14.9066 1.591
14.9369 1.804
14.9672 1.966
14.9975 1.764
15.0277 2.447
15.0580 2.454
15.0883 1.784
15.1186 3.198
15.1489 1.695
15.1791 2.277
15.2094 3.171
15.2397 1.722
15.2700 2.774
15.3003 2.784
15.3305 2.273
15.3608 2.232
15.3911 2.400
15.4214 1.474
15.4516 1.122
15.4819 1.968
15.5122 1.044
15.5425 1.057
15.5728 0.498
15.6030 2.388
15.6333 0.944
15.6636 0.959
15.6939 0.037
15.7242 0.626
15.7544 -0.034
15.7847 -0.278
15.8150 -0.417
15.8453 -0.038
15.8755 -0.075
15.9058 0.618
15.9361 0.165
15.9664 -0.236
15.9967 0.197
16.0269 -0.254
16.0572 0.075
16.0875 1.083
16.1178 0.945
16.1481 1.380
16.1783 -0.319
16.2086 0.950
16.2389 -0.332
16.2692 -0.780
16.2994 0.370
16.3297 -0.250
16.3600 0.433
16.3903 0.074
16.4206 0.705
16.4508 -0.278
16.4811 0.667
16.5114 0.154
16.5417 0.422
16.5720 0.170
16.6022 -0.133
16.6325 0.449
16.6628 -0.844
16.6931 1.302
16.7233 0.792
16.7536 0.594
16.7839 0.814
16.8142 0.878
16.8445 1.880
16.8747 0.694
16.9050 1.749
16.9353 2.179
16.9656 1.985
16.9959 3.249
17.0261 3.316
17.0564 3.487
17.0867 1.992
17.1170 2.113
17.1472 0.827
17.1775 0.635
17.2078 0.601
17.2381 0.879
17.2684 0.584
17.2986 0.186
17.3289 0.465
17.3592 0.120
17.3895 0.348
17.4198 0.369
17.4500 0.650
17.4803 -0.579
17.5106 0.223
17.5409 0.662
17.5712 0.580
17.6014 -0.178
17.6317 -0.520
17.6620 0.202
17.6923 1.289
17.7225 0.553
17.7528 -0.235
17.7831 -0.032
17.8134 0.588
17.8437 0.114
17.8739 0.266
17.9042 0.678
17.9345 0.519
17.9648 0.203
17.9951 -0.633
18.0253 1.916
18.0556 0.873
18.0859 -0.170
18.1162 0.714
18.1464 0.036
18.1767 0.453
18.2070 -0.016
18.2373 -0.015
18.2676 -0.119
18.2978 -0.117
18.3281 0.197
18.3584 0.824
18.3887 0.827
18.4190 -0.472
18.4492 0.365
18.4795 0.265
18.5098 0.269
18.5401 1.420
18.5703 0.279
18.6006 0.076
18.6309 0.708
18.6612 0.037
18.6915 0.617
18.7217 0.989
18.7520 0.111
18.7823 1.005
18.8126 0.909
18.8429 0.397
18.8731 0.407
18.9034 0.937
18.9337 -0.042
18.9640 0.906
18.9942 0.188
19.0245 1.085
19.0548 0.368
19.0851 0.224
19.1154 -0.284
19.1456 -0.271
19.1759 0.576
19.2062 -0.087
19.2365 1.073
19.2668 -0.266
19.2970 -0.094
19.3273 -0.235
19.3576 -0.115
19.3879 -0.306
19.4181 -0.342
19.4484 -0.202
19.4787 0.876
19.5090 0.912
19.5393 0.220
19.5695 -0.108
19.5998 -0.070
19.6301 0.489
19.6604 0.110
19.6907 0.045
19.7209 0.084
19.7512 -0.032
19.7815 0.060
19.8118 0.309
19.8420 -0.379
19.8723 0.183
19.9026 0.589
19.9329 1.256
19.9632 0.830
19.9934 -0.064
20.0237 0.188
20.0540 0.700
20.0843 0.432
20.1146 0.529
20.1448 -0.415
20.1751 -0.370
20.2054 0.718
20.2357 0.504
20.2659 0.915
20.2962 1.587
20.3265 1.271
20.3568 0.433
20.3871 0.742
20.4173 -0.251
20.4476 0.216
20.4779 0.161
20.5082 -0.414
20.5385 0.418
20.5687 -0.416
20.5990 0.937
20.6293 0.208
20.6596 -0.365
20.6899 -0.367
20.7201 0.882
20.7504 0.776
20.7807 0.672
20.8110 -0.683
20.8412 -0.006
20.8715 0.099
20.9018 0.360
20.9321 -0.315
20.9624 0.572
20.9926 -0.312
21.0229 -0.153
21.0532 0.944
21.0835 0.948
21.1138 0.951
21.1440 1.529
21.1743 3.096
21.2046 5.028
21.2349 3.992
21.2651 2.904
21.2954 1.244
21.3257 1.199
21.3560 0.998
21.3863 1.162
21.4165 0.076
21.4468 0.032
21.4771 1.239
21.5074 0.363
21.5377 0.998
21.5679 -0.450
21.5982 0.237
21.6285 0.248
21.6588 -0.053
21.6890 -0.353
21.7193 0.017
21.7496 -0.029
21.7799 0.291
21.8102 0.037
21.8404 0.045
21.8707 -0.676
21.9010 -0.002
21.9313 0.412
21.9616 -0.372
21.9918 0.459
22.0221 -0.844
22.0524 0.405
22.0827 -0.846
22.1129 0.404
22.1432 -0.273
22.1735 -0.117
22.2038 0.041
22.2341 0.146
22.2643 0.669
22.2946 -0.318
22.3249 1.090
22.3552 0.260
22.3855 -0.205
22.4157 0.372
22.4460 -0.249
22.4763 -0.192
22.5066 0.021
22.5368 0.496
22.5671 0.294
22.5974 -0.481
22.6277 0.463
22.6580 0.054
22.6882 -0.147
22.7185 0.330
22.7488 0.391
22.7791 0.504
22.8094 0.722
22.8396 0.992
22.8699 -0.092
22.9002 -0.342
22.9305 -0.112
22.9607 -0.352
22.9910 0.347
23.0213 0.525
23.0516 -0.546
23.0819 0.050
23.1121 0.907
23.1424 0.097
23.1727 0.434
23.2030 1.292
23.2333 0.275
23.2635 1.655
23.2938 1.160
23.3241 0.561
23.3544 0.536
23.3846 0.927
23.4149 0.278
23.4452 0.931
23.4755 0.542
23.5058 0.988
23.5360 2.632
23.5663 0.943
23.5966 2.014
23.6269 2.305
23.6572 2.597
23.6874 3.565
23.7177 3.701
23.7480 4.567
23.7783 5.433
23.8086 5.778
23.8388 7.218
23.8691 8.085
23.8994 8.432
23.9297 6.644
23.9599 5.897
23.9902 3.485
24.0205 3.781
24.0508 2.985
24.0811 2.084
24.1113 2.642
24.1416 2.367
24.1719 2.041
24.2022 1.714
24.2325 1.337
24.2627 3.407
24.2930 2.197
24.3233 3.331
24.3536 4.309
24.3838 4.454
24.4141 4.235
24.4444 3.548
24.4747 3.642
24.5050 2.591
24.5352 2.791
24.5655 2.313
24.5958 2.305
24.6261 0.995
24.6564 1.248
24.6866 1.242
24.7169 0.610
24.7472 1.021
24.7775 0.546
24.8077 0.333
24.8380 -0.401
24.8683 -0.249
24.8986 0.476
24.9289 0.316
24.9591 -0.520
24.9894 -0.265
25.0197 0.304
25.0500 -1.211
25.0803 0.608
25.1105 -0.333
25.1408 0.394
25.1711 -0.703
25.2014 0.545
25.2316 0.596
25.2619 0.073
25.2922 0.646
25.3225 -0.032
25.3528 -0.188
25.3830 0.698
25.4133 0.907
25.4436 -0.081
25.4739 0.858
25.5042 -0.078
25.5344 -0.336
25.5647 0.501
25.5950 1.129
25.6253 0.143
25.6555 0.304
25.6858 0.048
25.7161 -0.103
25.7464 0.267
25.7767 -0.404
25.8069 0.852
25.8372 -0.131
25.8675 -0.072
25.8978 0.509
25.9281 -0.004
25.9583 0.369
25.9886 -0.716
26.0189 -0.238
26.0492 0.032
26.0794 0.251
26.1097 -0.468
26.1400 -0.223
26.1703 0.490
26.2006 0.475
26.2308 -0.165
26.2611 0.498
26.2914 0.797
26.3217 1.304
26.3520 0.302
26.3822 0.966
26.4125 0.277
26.4428 0.890
26.4731 1.816
26.5034 1.076
26.5336 1.743
26.5639 2.618
26.5942 1.827
26.6245 2.860
26.6547 1.653
26.6850 3.676
26.7153 3.981
26.7456 5.015
26.7759 6.570
26.8061 7.709
26.8364 9.630
26.8667 12.020
26.8970 11.442
26.9273 12.426
26.9575 10.391
26.9878 9.605
27.0181 8.091
27.0484 6.421
27.0786 4.491
27.1089 2.770
27.1392 2.507
27.1695 3.183
27.1998 2.609
27.2300 0.785
27.2603 1.410
27.2906 2.295
27.3209 1.045
27.3512 2.557
27.3814 2.089
27.4117 1.570
27.4420 0.895
27.4723 1.367
27.5025 1.161
27.5328 1.217
27.5631 1.012
27.5934 0.704
27.6237 0.136
27.6539 0.610
27.6842 -0.687
27.7145 0.361
27.7448 -0.310
27.7751 0.113
27.8053 -0.296
27.8356 0.649
27.8659 0.449
27.8962 0.874
27.9264 0.518
27.9567 0.215
27.9870 0.225
28.0173 1.016
28.0476 -0.067
28.0778 0.465
28.1081 -0.253
28.1384 0.228
28.1687 0.552
28.1990 0.982
28.2292 0.630
28.2595 0.071
28.2898 0.345
28.3201 0.672
28.3503 1.052
28.3806 0.285
28.4109 0.301
28.4412 0.369
28.4715 -0.500
28.5017 0.403
28.5320 0.472
28.5623 0.125
28.5926 1.497
28.6229 0.370
28.6531 0.806
28.6834 1.242
28.7137 0.741
28.7440 0.084
28.7742 0.053
28.8045 0.855
28.8348 0.095
28.8651 0.326
28.8954 -0.017
28.9256 -0.150
28.9559 0.029
28.9862 -0.989
29.0165 0.020
29.0468 0.197
29.0770 0.998
29.1073 0.446
29.1376 0.363
29.1679 -0.084
29.1981 0.303
29.2284 0.169
29.2587 -0.068
29.2890 -0.253
29.3193 0.240
29.3495 0.003
29.3798 -0.128
29.4101 -0.676
29.4404 0.155
29.4707 0.935
29.5009 0.205
29.5312 0.308
29.5615 0.621
29.5918 -0.890
29.6221 -0.368
29.6523 0.353
29.6826 -0.071
29.7129 -0.495
29.7432 0.279
29.7734 -0.456
29.8037 0.267
29.8340 0.678
29.8643 -0.525
29.8946 -0.165
29.9248 -0.117
29.9551 0.140
29.9854 -0.020
30.0157 -0.075
30.0460 -0.442
30.0762 0.125
30.1065 0.431
30.1368 0.686
30.1671 -0.309
30.1973 -0.106
30.2276 0.046
30.2579 0.303
30.2882 0.143
30.3185 -0.121
30.3487 0.241
30.3790 0.030
30.4093 0.289
30.4396 -0.650
30.4699 -0.260
30.5001 0.287
30.5304 0.366
30.5607 0.289
30.5910 0.421
30.6212 0.084
30.6515 0.998
30.6818 -0.379
30.7121 1.160
30.7424 0.304
30.7726 0.387
30.8029 1.771
30.8332 1.750
30.8635 1.156
30.8938 1.761
30.9240 1.429
30.9543 1.565
30.9846 1.963
31.0149 1.319
31.0451 2.186
31.0754 2.585
31.1057 1.995
31.1360 2.290
31.1663 4.670
31.1965 4.549
31.2268 2.763
31.2571 5.196
31.2874 6.274
31.3177 6.468
31.3479 8.538
31.3782 9.201
31.4085 11.427
31.4388 15.269
31.4690 15.257
31.4993 19.984
31.5296 23.723
31.5599 23.607
31.5902 25.576
31.6204 25.097
31.6507 23.420
31.6810 20.390
31.7113 18.923
31.7416 16.675
31.7718 12.760
31.8021 12.805
31.8324 10.193
31.8627 9.509
31.8929 7.680
31.9232 6.164
31.9535 5.689
31.9838 5.580
32.0141 5.367
32.0443 3.644
32.0746 6.296
32.1049 6.032
32.1352 4.258
32.1655 4.985
32.1957 5.087
32.2260 4.460
32.2563 4.406
32.2866 3.520
32.3169 2.946
32.3471 2.634
32.3774 3.259
32.4077 2.531
32.4380 2.375
32.4682 1.544
32.4985 1.546
32.5288 2.381
32.5591 2.072
32.5894 2.439
32.6196 3.693
32.6499 4.166
32.6802 7.608
32.7105 9.905
32.7408 15.118
32.7710 14.499
32.8013 10.911
32.8316 9.616
32.8619 7.175
32.8921 3.901
32.9224 2.399
32.9527 2.355
32.9830 1.114
33.0133 1.018
33.0435 0.924
33.0738 0.465
33.1041 -0.045
33.1344 0.643
33.1647 -0.232
33.1949 -0.012
33.2252 0.782
33.2555 1.055
33.2858 -0.287
33.3160 0.404
33.3463 -0.468
33.3766 -0.367
33.4069 0.621
33.4372 0.358
33.4674 1.138
33.4977 0.043
33.5280 -0.010
33.5583 -0.531
33.5886 0.147
33.6188 -0.165
33.6491 -0.321
33.6794 -0.319
33.7097 -0.421
33.7399 0.622
33.7702 -0.573
33.8005 -0.413
33.8308 -0.118
33.8611 1.011
33.8913 0.057
33.9216 0.509
33.9519 1.014
33.9822 2.145
34.0125 0.463
34.0427 1.543
34.0730 1.893
34.1033 2.713
34.1336 4.002
34.1638 6.281
34.1941 8.560
34.2244 11.413
34.2547 10.932
34.2850 9.723
34.3152 7.421
34.3455 7.255
34.3758 5.787
34.4061 4.631
34.4364 3.581
34.4666 4.874
34.4969 4.033
34.5272 3.660
34.5575 3.445
34.5877 4.428
34.6180 3.796
34.6483 4.623
34.6786 4.618
34.7089 4.092
34.7391 3.566
34.7694 4.708
34.7997 5.068
34.8300 7.148
34.8603 8.864
34.8905 10.736
34.9208 11.828
34.9511 14.586
34.9814 14.168
35.0116 14.376
35.0419 10.521
35.0722 10.469
35.1025 7.500
35.1328 5.886
35.1630 4.585
35.1933 3.806
35.2236 2.349
35.2539 3.706
35.2842 1.834
35.3144 2.462
35.3447 1.580
35.3750 1.845
35.4053 2.683
35.4356 1.385
35.4658 1.495
35.4961 2.282
35.5264 2.028
35.5567 3.076
35.5869 2.093
35.6172 3.038
35.6475 3.463
35.6778 3.680
35.7081 3.584
35.7383 3.749
35.7686 5.322
35.7989 7.259
35.8292 7.373
35.8595 8.321
35.8897 12.395
35.9200 13.501
35.9503 15.596
35.9806 17.171
36.0108 21.403
36.0411 24.645
36.0714 24.503
36.1017 27.277
36.1320 24.115
36.1622 23.765
36.1925 21.749
36.2228 19.265
36.2531 15.948
36.2834 14.298
36.3136 12.857
36.3439 7.302
36.3742 7.997
36.4045 5.255
36.4347 3.867
36.4650 4.251
36.4953 3.854
36.5256 2.312
36.5559 2.905
36.5861 1.311
36.6164 1.645
36.6467 0.677
36.6770 0.856
36.7073 1.035
36.7375 0.589
36.7678 0.977
36.7981 0.897
36.8284 0.765
36.8586 0.477
36.8889 0.502
36.9192 0.007
36.9495 0.033
36.9798 -0.201
37.0100 -0.383
37.0403 -0.151
37.0706 0.080
37.1009 -0.260
37.1312 0.702
37.1614 0.310
37.1917 -0.082
37.2220 -0.160
37.2523 0.491
37.2825 0.934
37.3128 0.023
37.3431 0.311
37.3734 0.651
37.4037 0.523
37.4339 0.707
37.4642 -0.305
37.4945 0.245
37.5248 0.170
37.5551 -0.685
37.5853 0.231
37.6156 -0.154
37.6459 -0.123
37.6762 0.274
37.7064 -0.215
37.7367 0.234
37.7670 0.059
37.7973 -0.220
37.8276 0.700
37.8578 -1.037
37.8881 0.352
37.9184 0.023
37.9487 0.736
37.9790 0.095
38.0092 -0.702
38.0395 -0.074
38.0698 -0.019
38.1001 0.349
38.1304 0.613
38.1606 0.461
38.1909 0.466
38.2212 0.262
38.2515 -0.357
38.2817 0.013
38.3120 0.697
38.3423 0.027
38.3726 -0.227
38.4029 0.041
38.4331 0.570
38.4634 0.475
38.4937 0.431
38.5240 0.024
38.5543 -0.070
38.5845 -0.321
38.6148 0.419
38.6451 0.013
38.6754 0.285
38.7056 0.453
38.7359 0.205
38.7662 -0.251
38.7965 0.491
38.8268 0.297
38.8570 0.363
38.8873 0.221
38.9176 -0.442
38.9479 -0.183
38.9782 0.961
39.0084 0.074
39.0387 0.855
39.0690 0.229
39.0993 -0.187
39.1295 0.073
39.1598 -0.186
39.1901 -0.237
39.2204 0.233
39.2507 -0.337
39.2809 -0.185
39.3112 0.385
39.3415 0.226
39.3718 0.172
39.4021 -0.091
39.4323 -0.040
39.4626 -0.145
39.4929 0.115
39.5232 -0.407
39.5534 0.531
39.5837 0.219
39.6140 -0.405
39.6443 0.066
39.6746 -0.141
39.7048 0.330
39.7351 -0.136
39.7654 0.128
39.7957 -0.285
39.8260 0.760
39.8562 0.713
39.8865 -0.116
39.9168 0.254
39.9471 -0.209
39.9773 0.110
40.0076 -0.353
40.0379 0.592
40.0682 -0.026
40.0985 0.294
40.1287 0.511
40.1590 -0.001
40.1893 0.164
40.2196 0.174
40.2499 -0.285
40.2801 -0.401
40.3104 0.420
40.3407 0.201
40.3710 0.242
40.4012 0.492
40.4315 0.743
40.4618 -0.048
40.4921 0.464
40.5224 1.237
40.5526 0.291
40.5829 0.804
40.6132 0.745
40.6435 0.217
40.6738 1.148
40.7040 0.829
40.7343 1.084
40.7646 1.912
40.7949 2.063
40.8251 2.215
40.8554 1.795
40.8857 2.312
40.9160 3.298
40.9463 3.921
40.9765 4.231
41.0068 3.760
41.0371 3.238
41.0674 3.862
41.0977 3.132
41.1279 2.767
41.1582 1.101
41.1885 1.414
41.2188 1.884
41.2491 1.104
41.2793 0.064
41.3096 1.265
41.3399 1.163
41.3702 0.437
41.4004 0.389
41.4307 0.445
41.4610 0.085
41.4913 -0.275
41.5216 -0.270
41.5518 0.152
41.5821 0.367
41.6124 0.426
41.6427 0.380
41.6730 0.388
41.7032 0.656
41.7335 -0.013
41.7638 0.152
41.7941 -0.256
41.8243 0.483
41.8546 0.441
41.8849 0.191
41.9152 -0.111
41.9455 0.056
41.9757 0.068
42.0060 0.445
42.0363 0.093
42.0666 -0.676
42.0969 -0.049
42.1271 -0.152
42.1574 -0.149
42.1877 0.479
42.2180 0.273
42.2482 0.173
42.2785 0.073
42.3088 0.390
42.3391 0.968
42.3694 0.244
42.3996 0.302
42.4299 0.256
42.4602 0.523
42.4905 0.686
42.5208 0.277
42.5510 0.441
42.5813 -0.228
42.6116 -0.011
42.6419 0.206
42.6721 -0.565
42.7024 0.330
42.7327 -0.232
42.7630 0.351
42.7933 -0.263
42.8235 0.062
42.8538 -0.135
42.8841 -0.226
42.9144 -0.266
42.9447 -0.271
42.9749 0.973
43.0052 0.604
43.0355 -0.078
43.0658 -0.082
43.0960 -0.242
43.1263 0.276
43.1566 0.377
43.1869 0.271
43.2172 0.790
43.2474 0.163
43.2777 0.579
43.3080 0.682
43.3383 -0.360
43.3686 0.057
43.3988 0.474
43.4291 0.007
43.4594 0.425
43.4897 0.635
43.5199 0.533
43.5502 -0.037
43.5805 0.174
43.6108 -0.031
43.6411 0.338
43.6713 0.186
43.7016 0.243
43.7319 0.821
43.7622 0.254
43.7925 -0.469
43.8227 0.214
43.8530 -0.092
43.8833 -0.240
43.9136 0.549
43.9439 0.348
43.9741 -0.216
44.0044 -0.311
44.0347 0.252
44.0650 0.399
44.0952 0.338
44.1255 0.642
44.1558 -0.043
44.1861 -0.311
44.2164 0.096
44.2466 0.347
44.2769 0.442
44.3072 0.121
44.3375 0.373
44.3678 0.313
44.3980 0.567
44.4283 0.351
44.4586 0.293
44.4889 -0.026
44.5191 0.594
44.5494 0.224
44.5797 0.428
44.6100 0.319
44.6403 0.055
44.6705 0.729
44.7008 0.205
44.7311 0.410
44.7614 0.721
44.7917 0.667
44.8219 1.134
44.8522 0.873
44.8825 0.039
44.9128 0.195
44.9430 0.664
44.9733 0.196
45.0036 0.406
45.0339 0.043
45.0642 -0.007
45.0944 0.776
45.1247 -0.367
45.1550 -0.363
45.1853 0.413
45.2156 -0.113
45.2458 1.081
45.2761 1.182
45.3064 -0.072
45.3367 0.498
45.3669 0.027
45.3972 0.129
45.4275 0.752
45.4578 -0.447
45.4881 0.177
45.5183 -0.135
45.5486 0.021
45.5789 0.021
45.6092 -0.082
45.6395 -0.029
45.6697 -0.131
45.7000 -0.285
45.7303 0.184
45.7606 -0.127
45.7908 -0.490
45.8211 0.762
45.8514 -0.121
45.8817 0.351
45.9120 0.146
45.9422 -0.528
45.9725 0.049
46.0028 -0.467
46.0331 0.319
46.0634 -0.248
46.0936 -0.086
46.1239 0.232
46.1542 0.239
46.1845 0.038
46.2147 -0.059
46.2450 0.626
46.2753 -0.095
46.3056 0.122
46.3359 -0.285
46.3661 -0.100
46.3964 -0.176
46.4267 0.531
46.4570 0.352
46.4873 0.435
46.5175 0.309
46.5478 0.288
46.5781 0.111
46.6084 -0.065
46.6386 0.071
46.6689 -0.052
46.6992 0.398
46.7295 0.015
46.7598 0.257
46.7900 0.291
46.8203 0.326
46.8506 -0.159
46.8809 0.866
46.9112 0.485
46.9414 0.522
46.9717 1.028
47.0020 0.961
47.0323 0.374
47.0626 0.256
47.0928 1.336
47.1231 0.802
47.1534 1.831
47.1837 1.819
47.2139 1.130
47.2442 2.161
47.2745 1.993
47.3048 1.462
47.3351 2.077
47.3653 1.807
47.3956 0.756
47.4259 1.529
47.4562 1.729
47.4865 0.835
47.5167 1.348
47.5470 1.446
47.5773 1.543
47.6076 1.641
47.6378 0.645
47.6681 1.369
47.6984 0.895
47.7287 0.578
47.7590 0.210
47.7892 -0.263
47.8195 -0.266
47.8498 0.773
47.8801 0.926
47.9104 -0.065
47.9406 -0.119
47.9709 -0.381
48.0012 0.504
48.0315 -0.122
48.0617 -0.226
48.0920 0.244
48.1223 -0.485
48.1526 0.037
48.1829 -0.169
48.2131 0.458
48.2434 -0.008
48.2737 0.151
48.3040 0.050
48.3343 0.575
48.3645 0.110
48.3948 0.011
48.4251 -0.244
48.4554 0.022
48.4856 0.236
48.5159 0.294
48.5462 -0.116
48.5765 -0.317
48.6068 -0.317
48.6370 0.193
48.6673 0.442
48.6976 0.119
48.7279 0.890
48.7582 0.359
48.7884 0.350
48.8187 0.080
48.8490 0.176
48.8793 0.689
48.9095 0.837
48.9398 0.882
48.9701 1.656
49.0004 0.660
49.0307 0.238
49.0609 1.378
49.0912 1.008
49.1215 0.691
49.1518 0.374
49.1821 0.683
49.2123 0.158
49.2426 -0.053
49.2729 0.361
49.3032 0.254
49.3334 0.513
49.3637 0.564
49.3940 0.719
49.4243 0.510
49.4546 0.354
49.4848 0.979
49.5151 1.188
49.5454 1.293
49.5757 1.712
49.6060 2.234
49.6362 2.133
49.6665 3.958
49.6968 4.066
49.7271 2.715
49.7574 2.928
49.7876 2.932
49.8179 2.260
49.8482 1.588
49.8785 1.386
49.9087 1.704
49.9390 1.607
49.9693 1.145
49.9996 2.194
50.0299 1.056
50.0601 0.596
50.0904 1.125
50.1207 0.353
50.1510 0.936
50.1813 0.529
50.2115 0.748
50.2418 1.071
50.2721 -0.168
50.3024 0.156
50.3326 0.637
50.3629 0.493
50.3932 -0.014
50.4235 0.468
50.4538 -0.039
50.4840 0.027
50.5143 -0.167
50.5446 -0.308
50.5749 -0.050
50.6052 0.208
50.6354 -0.105
50.6657 0.518
50.6960 0.518
50.7263 0.257
50.7565 0.518
50.7868 0.727
50.8171 -0.053
50.8474 0.365
50.8777 0.575
50.9079 0.734
50.9382 0.476
50.9685 -0.354
50.9988 -0.038
51.0291 -0.034
51.0593 0.022
51.0896 -0.598
51.1199 0.030
51.1502 0.241
51.1804 0.713
51.2107 -0.116
51.2410 0.149
51.2713 0.310
51.3016 0.054
51.3318 -0.357
51.3621 0.066
51.3924 -0.032
51.4227 -0.442
51.4530 0.077
51.4832 0.387
51.5135 0.072
51.5438 0.592
51.5741 0.174
51.6043 0.121
51.6346 0.381
51.6649 -0.295
51.6952 0.174
51.7255 1.060
51.7557 0.697
51.7860 0.126
51.8163 1.483
51.8466 0.704
51.8769 0.551
51.9071 0.503
51.9374 0.246
51.9677 0.355
51.9980 0.151
52.0282 1.511
52.0585 0.266
52.0888 0.377
52.1191 0.644
52.1494 -0.131
52.1796 0.762
52.2099 0.770
52.2402 0.778
52.2705 -0.411
52.3008 -0.038
52.3310 0.441
52.3613 -0.227
52.3916 0.200
52.4219 0.159
52.4521 0.014
52.4824 0.859
52.5127 0.350
52.5430 0.050
52.5733 -0.093
52.6035 0.076
52.6338 -0.275
52.6641 0.104
52.6944 0.275
52.7247 0.602
52.7549 0.461
52.7852 0.112
52.8155 0.441
52.8458 -0.011
52.8761 0.058
52.9063 0.180
52.9366 0.666
52.9669 0.372
52.9972 0.443
53.0274 0.098
53.0577 0.273
53.0880 0.293
53.1183 -0.467
53.1486 -0.260
53.1788 -0.010
53.2091 0.137
53.2394 0.648
53.2697 0.067
53.3000 -0.046
53.3302 -0.002
53.3605 0.199
53.3908 0.609
53.4211 -0.179
53.4513 -0.237
53.4816 0.434
53.5119 0.533
53.5422 0.632
53.5725 -0.154
53.6027 0.154
53.6330 -0.110
53.6633 0.460
53.6936 0.093
53.7239 0.142
53.7541 -0.172
53.7844 0.607
53.8147 -0.071
53.8450 -0.020
53.8752 -0.228
53.9055 -0.228
53.9358 0.033
53.9661 0.659
53.9964 -0.017
54.0266 0.037
54.0569 0.039
54.0872 0.146
54.1175 0.097
54.1478 0.465
54.1780 0.417
54.2083 0.056
54.2386 0.269
54.2689 -0.090
54.2991 -0.084
54.3294 0.547
54.3597 -0.280
54.3900 -0.013
54.4203 0.515
54.4505 -0.050
54.4808 -0.146
54.5111 0.175
54.5414 -0.285
54.5717 -0.146
54.6019 0.463
54.6322 0.135
54.6625 -0.089
54.6928 0.104
54.7230 0.090
54.7533 -0.185
54.7836 -0.094
54.8139 0.205
54.8442 -0.068
54.8744 -0.133
54.9047 0.167
54.9350 -0.105
54.9653 -0.116
54.9956 0.030
55.0258 -0.189
55.0561 0.478
55.0864 -0.469
55.1167 -0.270
55.1469 -0.278
55.1772 0.078
55.2075 -0.138
55.2378 -0.146
55.2681 -0.413
55.2983 0.518
55.3286 0.199
55.3589 0.298
55.3892 0.188
55.4195 -0.181
55.4497 -0.290
55.4800 0.114
55.5103 0.154
55.5406 0.142
55.5709 -0.338
55.6011 -0.037
55.6314 0.473
55.6617 0.307
55.6920 0.453
55.7222 -0.389
55.7525 0.018
55.7828 0.270
55.8131 0.054
55.8434 0.567
55.8736 0.143
55.9039 1.022
55.9342 0.442
55.9645 1.061
55.9948 0.899
56.0250 1.363
56.0553 0.890
56.0856 1.666
56.1159 2.756
56.1461 3.117
56.1764 2.906
56.2067 3.685
56.2370 3.630
56.2673 6.702
56.2975 5.294
56.3278 6.803
56.3581 6.074
56.3884 8.678
56.4187 7.793
56.4489 7.741
56.4792 7.951
56.5095 6.234
56.5398 7.069
56.5700 6.342
56.6003 5.616
56.6306 5.619
56.6609 4.685
56.6912 3.908
56.7214 2.871
56.7517 2.980
56.7820 2.829
56.8123 2.158
56.8426 1.800
56.8728 2.067
56.9031 1.188
56.9334 1.092
56.9637 0.370
56.9939 0.847
57.0242 1.273
57.0545 0.345
57.0848 0.458
57.1151 0.364
57.1453 0.062
57.1756 0.646
57.2059 0.449
57.2362 0.148
57.2665 -0.048
57.2967 -0.244
57.3270 0.238
57.3573 0.199
57.3876 0.161
57.4178 0.435
57.4481 0.502
57.4784 -0.004
57.5087 0.116
57.5390 -0.181
57.5692 0.773
57.5995 0.321
57.6298 0.026
57.6601 0.512
57.6904 -0.095
57.7206 -0.077
57.7509 0.046
57.7812 0.482
57.8115 -0.071
57.8417 -0.363
57.8720 0.083
57.9023 0.010
57.9326 0.040
57.9629 -0.241
57.9931 -0.001
58.0234 0.083
58.0537 0.532
58.0840 0.201
58.1143 0.130
58.1445 0.580
58.1748 0.250
58.2051 0.806
58.2354 0.111
58.2656 0.147
58.2959 0.287
58.3262 0.479
58.3565 -0.369
58.3868 1.126
58.4170 0.747
58.4473 0.837
58.4776 1.448
58.5079 2.060
58.5382 2.724
58.5684 3.441
58.5987 3.377
58.6290 3.418
58.6593 2.469
58.6896 1.885
58.7198 1.615
58.7501 2.594
58.7804 1.491
58.8107 0.649
58.8409 0.171
58.8712 -0.045
58.9015 0.364
58.9318 -0.165
58.9621 0.089
58.9923 0.239
59.0226 0.076
59.0529 -0.034
59.0832 0.117
59.1135 0.165
59.1437 0.004
59.1740 -0.312
59.2043 -0.163
59.2346 0.092
59.2648 -0.122
59.2951 -0.127
59.3254 0.285
59.3557 0.177
59.3860 -0.140
59.4162 0.170
59.4465 -0.042
59.4768 0.372
59.5071 0.006
59.5374 -0.100
59.5676 0.211
59.5979 -0.050
59.6282 0.158
59.6585 0.418
59.6887 -0.102
59.7190 0.315
59.7493 0.212
59.7796 0.423
59.8099 1.050
59.8401 0.844
59.8704 1.316
59.9007 1.006
59.9310 1.114
59.9613 1.744
59.9915 2.009
60.0218 2.534
60.0521 1.550
60.0824 2.963
60.1126 1.719
60.1429 2.559
60.1732 2.514
60.2035 2.834
60.2338 2.113
60.2640 1.861
60.2943 1.714
60.3246 2.400
60.3549 1.524
60.3852 1.847
60.4154 1.180
60.4457 2.181
60.4760 1.515
60.5063 1.735
60.5365 1.487
60.5668 0.979
60.5971 1.044
60.6274 0.276
60.6577 -0.023
60.6879 -0.112
60.7182 0.527
60.7485 0.282
60.7788 -0.119
60.8091 -0.311
60.8393 0.160
60.8696 0.683
60.8999 0.269
60.9302 0.169
60.9604 0.277
60.9907 0.594
61.0210 0.130
61.0513 0.395
61.0816 0.609
61.1118 0.771
61.1421 0.309
61.1724 0.524
61.2027 0.167
61.2330 0.539
61.2632 0.755
61.2935 0.451
61.3238 0.200
61.3541 -0.051
61.3844 0.219
61.4146 0.125
61.4449 0.292
61.4752 -0.218
61.5055 -0.102
61.5357 0.274
61.5660 0.287
61.5963 0.195
61.6266 -0.052
61.6569 -0.091
61.6871 -0.025
61.7174 -0.271
61.7477 -0.020
61.7780 0.857
61.8083 0.171
61.8385 0.579
61.8688 -0.158
61.8991 -0.218
61.9294 0.088
61.9596 0.446
61.9899 -0.029
62.0202 0.799
62.0505 0.272
62.0808 0.632
62.1110 0.263
62.1413 -0.210
62.1716 0.307
62.2019 1.137
62.2322 0.562
62.2624 0.976
62.2927 0.713
62.3230 0.660
62.3533 0.659
62.3835 0.762
62.4138 0.658
62.4441 1.022
62.4744 1.960
62.5047 1.753
62.5349 2.275
62.5652 2.746
62.5955 2.071
62.6258 1.344
62.6561 1.348
62.6863 2.966
62.7166 2.501
62.7469 2.088
62.7772 1.937
62.8074 2.515
62.8377 1.948
62.8680 1.068
62.8983 1.439
62.9286 1.446
62.9588 0.672
62.9891 1.097
63.0194 0.896
63.0497 0.957
63.0800 0.133
63.1102 0.767
63.1405 0.829
63.1708 0.058
63.2011 0.225
63.2313 -0.181
63.2616 0.247
63.2919 0.311
63.3222 0.272
63.3525 0.336
63.3827 0.141
63.4130 -0.001
63.4433 -0.144
63.4736 0.183
63.5039 -0.062
63.5341 0.057
63.5644 0.281
63.5947 -0.119
63.6250 -0.415
63.6552 0.157
63.6855 0.261
63.7158 0.105
63.7461 -0.311
63.7764 0.263
63.8066 0.004
63.8369 -0.411
63.8672 0.372
63.8975 0.323
63.9278 0.587
63.9580 -0.035
63.9883 -0.031
64.0186 0.494
64.0489 0.187
64.0791 0.140
64.1094 0.198
64.1397 -0.005
64.1700 -0.050
64.2003 0.061
64.2305 -0.244
64.2608 -0.197
64.2911 0.163
64.3214 0.315
64.3517 0.519
64.3819 0.516
64.4122 0.044
64.4425 0.510
64.4728 0.144
64.5031 -0.535
64.5333 0.089
64.5636 0.192
64.5939 0.087
64.6242 0.035
64.6544 0.088
64.6847 -0.068
64.7150 0.298
64.7453 -0.221
64.7756 0.094
64.8058 -0.008
64.8361 0.255
64.8664 0.051
64.8967 -0.102
64.9270 -0.098
64.9572 -0.197
64.9875 -0.244
65.0178 -0.043
65.0481 -0.154
65.0783 0.205
65.1086 -0.061
65.1389 0.246
65.1692 -0.228
65.1995 -0.232
65.2297 -0.080
65.2600 -0.188
65.2903 0.018
65.3206 -0.298
65.3509 0.117
65.3811 -0.406
65.4114 0.374
65.4417 -0.252
65.4720 0.424
65.5022 0.059
65.5325 -0.149
65.5628 0.321
65.5931 -0.303
65.6234 -0.250
65.6536 -0.149
65.6839 -0.100
65.7142 -0.415
65.7445 0.155
65.7748 0.100
65.8050 0.410
65.8353 0.200
65.8656 -0.114
65.8959 0.146
65.9261 0.458
65.9564 -0.063
65.9867 0.406
66.0170 0.147
66.0473 1.033
66.0775 0.722
66.1078 0.464
66.1381 1.144
66.1684 0.469
66.1987 0.473
66.2289 1.206
66.2592 0.481
66.2895 1.110
66.3198 0.542
66.3500 0.392
66.3803 0.866
66.4106 0.977
66.4409 0.462
66.4712 0.418
66.5014 0.998
66.5317 0.121
66.5620 0.389
66.5923 0.034
66.6226 0.095
66.6528 0.261
66.6831 0.479
66.7134 0.333
66.7437 0.188
66.7739 -0.113
66.8042 0.055
66.8345 0.067
66.8648 -0.233
66.8951 -0.254
66.9253 0.766
66.9556 -0.088
66.9859 0.517
67.0162 0.237
67.0465 0.061
67.0767 -0.062
67.1070 0.440
67.1373 0.110
67.1676 0.405
67.1978 0.387
67.2281 0.370
67.2584 0.198
67.2887 0.494
67.3190 0.375
67.3492 -0.109
67.3795 1.178
67.4098 1.216
67.4401 1.671
67.4704 1.032
67.5006 1.488
67.5309 1.579
67.5612 1.671
67.5915 2.441
67.6218 1.492
67.6520 2.002
67.6823 2.668
67.7126 2.554
67.7429 2.701
67.7731 2.848
67.8034 2.735
67.8337 2.362
67.8640 2.354
67.8943 2.346
67.9245 2.808
67.9548 2.020
67.9851 1.649
68.0154 1.695
68.0457 1.429
68.0759 2.101
68.1062 1.211
68.1365 0.790
68.1668 0.057
68.1970 0.783
68.2273 0.415
68.2576 0.309
68.2879 0.150
68.3182 0.305
68.3484 0.668
68.3787 -0.062
68.4090 -0.114
68.4393 0.146
68.4696 0.303
68.4998 -0.061
68.5301 0.669
68.5604 0.463
68.5907 0.569
68.6209 0.467
68.6512 1.356
68.6815 0.526
68.7118 0.582
68.7421 0.950
68.7723 1.528
68.8026 1.585
68.8329 1.590
68.8632 1.961
68.8935 2.592
68.9237 1.401
68.9540 1.200
68.9843 0.843
69.0146 0.695
69.0448 1.068
69.0751 1.024
69.1054 1.398
69.1357 1.304
69.1660 0.845
69.1962 0.699
69.2265 1.491
69.2568 0.826
69.2871 0.056
69.3174 0.121
69.3476 0.289
69.3779 0.198
69.4082 -0.049
69.4385 0.017
69.4687 0.240
69.4990 -0.214
69.5293 0.218
69.5596 -0.235
69.5899 -0.011
69.6201 -0.255
69.6504 0.006
69.6807 0.581
69.7110 -0.042
69.7413 -0.040
69.7715 0.067
69.8018 0.279
69.8321 0.283
69.8624 0.287
69.8926 -0.177
69.9229 0.088
69.9532 0.718
69.9835 -0.109
70.0138 -0.728
70.0440 0.160
70.0743 0.007
70.1046 0.428
70.1349 0.484
70.1652 0.853
70.1954 0.649
70.2257 0.394
70.2560 0.973
70.2863 0.093
70.3166 0.048
70.3468 0.420
70.3771 -0.094
70.4074 0.174
70.4377 -0.078
70.4679 -0.121
70.4982 -0.112
70.5285 0.106
70.5588 -0.093
70.5891 -0.239
70.6193 -0.079
70.6496 -0.389
70.6799 0.240
70.7102 0.088
70.7405 0.041
70.7707 -0.058
70.8010 0.103
70.8313 -0.151
70.8616 -0.093
70.8918 0.227
70.9221 0.234
70.9524 -0.019
70.9827 -0.115
71.0130 0.050
71.0432 -0.254
71.0735 0.016
71.1038 0.390
71.1341 0.400
71.1644 0.046
71.1946 -0.308
71.2249 0.329
71.2552 -0.024
71.2855 0.197
71.3157 0.314
71.3460 0.222
71.3763 -0.233
71.4066 -0.186
71.4369 -0.138
71.4671 0.170
71.4974 0.115
71.5277 0.320
71.5580 -0.100
71.5883 0.419
71.6185 0.052
71.6488 0.103
71.6791 -0.263
71.7094 -0.003
71.7396 -0.003
71.7699 -0.055
71.8002 0.206
71.8305 -0.418
71.8608 0.156
71.8910 -0.311
71.9213 -0.114
71.9516 0.188
71.9819 0.438
72.0122 -0.093
72.0424 -0.050
72.0727 0.201
72.1030 0.505
72.1333 0.080
72.1635 0.020
72.1938 0.429
72.2241 0.110
72.2544 0.416
72.2847 0.357
72.3149 0.768
72.3452 0.450
72.3755 0.393
72.4058 0.389
72.4361 0.124
72.4663 0.537
72.4966 -0.039
72.5269 0.479
72.5572 -0.460
72.5874 -0.150
72.6177 0.265
72.6480 0.420
72.6783 -0.049
72.7086 0.003
72.7388 -0.049
72.7691 0.108
72.7994 0.317
72.8297 -0.150
72.8600 -0.097
72.8902 0.427
72.9205 0.377
72.9508 -0.505
72.9811 0.123
73.0113 -0.185
73.0416 -0.233
73.0719 -0.337
73.1022 0.285
73.1325 -0.082
73.1627 0.020
73.1930 0.227
73.2233 -0.348
73.2536 -0.088
73.2839 0.484
73.3141 -0.557
73.3444 -0.140
73.3747 0.277
73.4050 0.122
73.4353 0.020
73.4655 0.022
73.4958 -0.132
73.5261 -0.233
73.5564 -0.077
73.5866 -0.128
73.6169 -0.544
73.6472 0.187
73.6775 -0.124
73.7078 -0.122
73.7380 -0.067
73.7683 -0.012
73.7986 0.200
73.8289 0.204
73.8592 -0.157
73.8894 -0.308
73.9197 0.270
73.9500 -0.193
73.9803 0.073
74.0105 -0.285
74.0408 -0.019
74.0711 -0.273
74.1014 0.255
74.1317 0.522
74.1619 0.061
74.1922 0.485
74.2225 -0.079
74.2528 -0.175
74.2831 -0.009
74.3133 -0.208
74.3436 0.063
74.3739 0.229
74.4042 -0.229
74.4344 -0.009
74.4647 -0.206
74.4950 0.275
74.5253 -0.129
74.5556 0.144
74.5858 -0.259
74.6161 -0.105
74.6464 0.519
74.6767 0.153
74.7070 0.048
74.7372 -0.004
74.7675 -0.056
74.7978 0.101
74.8281 0.050
74.8583 -0.105
74.8886 0.418
74.9189 0.003
74.9492 -0.150
74.9795 -0.095
75.0097 0.169
75.0400 -0.140
75.0703 0.125
75.1006 0.078
75.1309 -0.282
75.1611 0.141
75.1914 0.042
75.2217 -0.212
75.2520 0.056
75.2822 0.271
75.3125 0.279
75.3428 0.027
75.3731 -0.121
75.4034 -0.060
75.4336 -0.207
75.4639 0.106
75.4942 -0.207
75.5245 -0.062
75.5548 -0.125
75.5850 0.334
75.6153 0.011
75.6456 0.002
75.6759 0.045
75.7061 -0.016
75.7364 0.184
75.7667 -0.085
75.7970 0.377
75.8273 0.109
75.8575 0.415
75.8878 -0.164
75.9181 0.090
75.9484 -0.227
75.9787 0.288
76.0089 -0.237
76.0392 0.228
76.0695 0.120
76.0998 0.221
76.1301 0.010
76.1603 0.059
76.1906 -0.359
76.2209 0.160
76.2512 -0.154
76.2814 -0.363
76.3117 0.204
76.3420 0.407
76.3723 -0.171
76.4026 -0.436
76.4328 0.237
76.4631 0.285
76.4934 0.074
76.5237 0.540
76.5540 -0.192
76.5842 0.171
76.6145 -0.143
76.6448 -0.040
76.6751 0.375
76.7053 0.167
76.7356 0.011
76.7659 0.011
76.7962 0.272
76.8265 0.118
76.8567 0.380
76.8870 0.226
76.9173 0.228
76.9476 0.856
76.9779 -0.078
77.0081 0.134
77.0384 0.087
77.0687 0.404
77.0990 0.305
77.1292 -0.002
77.1595 0.108
77.1898 -0.042
77.2201 0.277
77.2504 0.701
77.2806 0.605
77.3109 0.457
77.3412 -0.108
77.3715 0.318
77.4018 0.119
77.4320 -0.236
77.4623 0.139
77.4926 -0.163
77.5229 -0.100
77.5531 -0.037
77.5834 -0.025
77.6137 0.352
77.6440 0.052
77.6743 -0.195
77.7045 -0.198
77.7348 0.632
77.7651 0.160
77.7954 -0.207
77.8257 0.000
77.8559 -0.106
77.8862 -0.055
77.9165 0.309
77.9468 0.205
77.9770 0.309
78.0073 0.206
78.0376 0.259
78.0679 0.416
78.0982 0.106
78.1284 0.212
78.1587 0.215
78.1890 0.062
78.2193 -0.195
78.2496 -0.561
78.2798 0.481
78.3101 0.116
78.3404 0.012
78.3707 0.169
78.4009 -0.195
78.4312 -0.150
78.4615 0.311
78.4918 0.409
78.5221 0.767
78.5523 -0.020
78.5826 -0.025
78.6129 0.074
78.6432 0.226
78.6735 0.639
78.7037 -0.198
78.7340 -0.202
78.7643 0.107
78.7946 0.104
78.8248 0.414
78.8551 0.100
78.8854 0.098
78.9157 -0.059
78.9460 0.200
78.9762 0.096
79.0065 -0.269
79.0368 0.200
79.0671 0.409
79.0974 0.411
79.1276 -0.213
79.1579 -0.002
79.1882 -0.156
79.2185 -0.101
79.2488 -0.202
79.2790 0.114
79.3093 0.222
79.3396 0.122
79.3699 -0.186
79.4001 -0.025
79.4304 0.397
79.4607 0.142
79.4910 0.305
79.5213 0.572
79.5515 0.006
79.5818 -0.195
79.6121 -0.102
79.6424 -0.060
79.6727 0.555
79.7029 0.180
79.7332 0.015
79.7635 0.266
79.7938 0.206
79.8240 0.666
79.8543 0.138
79.8846 0.287
79.9149 0.384
79.9452 0.430
79.9754 0.268
80.0057 0.002
80.0360 0.413
80.0663 -0.060
80.0966 0.248
80.1268 -0.277
80.1571 0.762
80.1874 0.238
80.2177 -0.077
80.2479 -0.080
80.2782 -0.081
80.3085 -0.135
80.3388 0.646
80.3691 0.281
80.3993 0.020
80.4296 0.125
80.4599 0.177
80.4902 0.074
80.5205 -0.080
80.5507 0.130
80.5810 0.237
80.6113 0.188
80.6416 0.139
80.6718 0.143
80.7021 0.043
80.7324 0.255
80.7627 -0.208
80.7930 -0.311
80.8232 0.255
80.8535 0.040
80.8838 0.294
80.9141 0.028
80.9444 0.127
80.9746 -0.138
81.0049 0.066
81.0352 -0.251
81.0655 0.475
81.0957 0.107
81.1260 0.417
81.1563 0.050
81.1866 0.256
81.2169 0.150
81.2471 0.149
81.2774 0.253
81.3077 0.669
81.3380 -0.060
81.3683 0.201
81.3985 0.098
81.4288 0.047
81.4591 -0.003
81.4894 0.104
81.5196 -0.050
81.5499 -0.359
81.5802 0.634
81.6105 -0.300
81.6408 0.017
81.6710 0.126
81.7013 0.496
81.7316 0.449
81.7619 0.143
81.7922 0.045
81.8224 -0.208
81.8527 -0.308
81.8830 0.634
81.9133 -0.090
81.9436 -0.032
81.9738 -0.131
82.0041 0.292
82.0344 0.403
82.0647 -0.162
82.0949 -0.363
82.1252 0.217
82.1555 -0.141
82.1858 -0.186
82.2161 0.030
82.2463 0.039
82.2766 0.412
82.3069 0.369
82.3372 -0.038
82.3675 0.024
82.3977 0.399
82.4280 -0.007
82.4583 0.421
82.4886 0.016
82.5188 -0.285
82.5491 0.021
82.5794 0.378
82.6097 0.476
82.6400 0.053
82.6702 0.412
82.7005 0.147
82.7308 0.194
82.7611 -0.071
82.7914 -0.022
82.8216 0.234
82.8519 0.596
82.8822 -0.188
82.9125 0.435
82.9427 -0.244
82.9730 0.119
83.0033 -0.194
83.0336 -0.195
83.0639 0.010
83.0941 -0.045
83.1244 0.056
83.1547 -0.415
83.1850 -0.003
83.2153 -0.060
83.2455 0.561
83.2758 0.245
83.3061 0.034
83.3364 -0.125
83.3666 0.029
83.3969 0.183
83.4272 0.234
83.4575 0.077
83.4878 0.180
83.5180 0.284
83.5483 0.024
83.5786 -0.079
83.6089 0.495
83.6392 -0.285
83.6694 0.186
83.6997 0.084
83.7300 0.034
83.7603 0.038
83.7905 0.041
83.8208 -0.007
83.8511 0.362
83.8814 0.211
83.9117 0.112
83.9419 -0.195
83.9722 -0.352
84.0025 0.272
84.0328 0.116
84.0631 0.272
84.0933 -0.300
84.1236 -0.195
84.1539 0.215
84.1842 -0.001
84.2144 -0.007
84.2447 0.091
84.2750 -0.018
84.3053 -0.076
84.3356 0.024
84.3658 -0.137
84.3961 0.276
84.4264 0.012
84.4567 0.218
84.4870 -0.201
84.5172 -0.099
84.5475 -0.049
84.5778 -0.207
84.6081 0.095
84.6383 0.189
84.6686 -0.185
84.6989 0.327
84.7292 0.110
84.7595 -0.159
84.7897 0.041
84.8200 0.086
84.8503 0.235
84.8806 0.488
84.9109 -0.039
84.9411 0.007
84.9714 -0.311
85.0017 0.101
85.0320 0.096
85.0623 -0.220
85.0925 -0.016
85.1228 0.345
85.1531 -0.282
85.1834 0.028
85.2136 0.078
85.2439 0.076
85.2742 0.127
85.3045 0.074
85.3348 -0.135
85.3650 -0.187
85.3953 -0.030
85.4256 -0.186
85.4559 0.128
85.4862 0.182
85.5164 -0.389
85.5467 -0.129
85.5770 -0.233
85.6073 0.549
85.6375 -0.022
85.6678 0.083
85.6981 -0.071
85.7284 -0.068
85.7587 -0.013
85.7889 -0.010
85.8192 -0.007
85.8495 0.102
85.8798 -0.102
85.9101 -0.201
85.9403 0.325
85.9706 -0.503
86.0009 -0.132
86.0312 -0.125
86.0614 -0.118
86.0917 0.046
86.1220 -0.311
86.1523 0.218
86.1826 0.383
86.2128 -0.024
86.2431 -0.223
86.2734 0.151
86.3037 -0.151
86.3340 -0.192
86.3642 -0.389
86.3945 0.236
86.4248 0.028
86.4551 0.706
86.4853 -0.022
86.5156 0.240
86.5459 0.086
86.5762 0.297
86.6065 -0.117
86.6367 0.043
86.6670 0.151
86.6973 0.155
86.7276 0.212
86.7579 -0.304
86.7881 0.326
86.8184 0.124
86.8487 0.130
86.8790 0.397
86.9092 0.092
86.9395 -0.109
86.9698 0.107
87.0001 0.220
87.0304 -0.084
87.0606 0.342
87.0909 -0.117
87.1212 -0.107
87.1515 0.112
87.1818 0.331
87.2120 -0.022
87.2423 -0.010
87.2726 -0.311
87.3029 0.050
87.3331 0.204
87.3634 -0.008
87.3937 0.094
87.4240 0.353
87.4543 -0.013
87.4845 0.142
87.5148 0.402
87.5451 0.454
87.5754 -0.067
87.6057 0.246
87.6359 0.299
87.6662 0.249
87.6965 0.251
87.7268 -0.060
87.7571 0.099
87.7873 0.102
87.8176 -0.259
87.8479 -0.055
87.8782 0.514
87.9084 0.041
87.9387 -0.066
87.9690 0.400
87.9993 0.085
88.0296 -0.178
88.0598 0.550
88.0901 0.080
88.1204 -0.077
88.1507 0.339
88.1810 0.183
88.2112 0.131
88.2415 -0.180
88.2718 -0.146
88.3021 0.357
88.3323 0.236
88.3626 0.532
88.3929 0.411
88.4232 0.239
88.4535 0.224
88.4837 0.313
88.5140 0.403
88.5443 0.441
88.5746 0.219
88.6049 -0.003
88.6351 0.349
88.6654 -0.185
88.6957 -0.145
88.7260 -0.208
88.7562 0.145
88.7865 0.446
88.8168 0.019
88.8471 0.790
88.8774 -0.001
88.9076 -0.166
88.9379 -0.332
88.9682 0.337
88.9985 0.537
89.0288 0.477
89.0590 -0.311
89.0893 0.099
89.1196 0.561
89.1499 0.503
89.1801 0.862
89.2104 0.336
89.2407 0.332
89.2710 0.692
89.3013 0.792
89.3315 0.945
89.3618 0.473
89.3921 0.523
89.4224 0.468
89.4527 0.310
89.4829 -0.003
89.5132 0.516
89.5435 0.308
89.5738 -0.005
89.6040 -0.005
89.6343 0.413
89.6646 0.310
89.6949 0.311
89.7252 -0.207
89.7554 0.524
89.7857 0.163
89.8160 0.947
89.8463 0.013
89.8766 0.278
89.9068 0.022
89.9371 0.027
89.9674 0.032
89.9977 0.142
90.0279 0.044
90.0582 0.051
90.0885 0.214
90.1188 -0.143
90.1491 0.074
90.1793 0.030
90.2096 0.195
90.2399 0.465
90.2702 -0.359
90.3005 0.120
90.3307 -0.026
90.3610 0.349
90.3913 0.621
90.4216 0.320
90.4518 0.124
90.4821 0.189
90.5124 -0.059
90.5427 -0.202
90.5730 0.056
90.6032 -0.102
90.6335 0.209
90.6638 0.521
90.6941 -0.001
90.7244 0.103
90.7546 -0.053
90.7849 0.156
90.8152 0.626
90.8455 0.002
90.8758 0.108
90.9060 -0.202
90.9363 -0.147
90.9666 -0.093
90.9969 0.223
91.0271 0.382
91.0574 0.230
91.0877 -0.078
91.1180 0.500
91.1483 0.036
91.1785 0.094
91.2088 -0.057
91.2391 -0.207
91.2694 0.094
91.2997 0.343
91.3299 0.227
91.3602 0.008
91.3905 -0.054
91.4208 -0.012
91.4510 -0.022
91.4813 0.178
91.5116 -0.091
91.5419 0.109
91.5722 -0.160
91.6024 0.093
91.6327 0.191
91.6630 -0.285
91.6933 0.386
91.7236 -0.140
91.7538 0.896
91.7841 0.006
91.8144 0.105
91.8447 -0.159
91.8749 -0.215
91.9052 -0.166
91.9355 0.248
91.9658 -0.015
91.9961 0.139
92.0263 0.241
92.0566 0.084
92.0869 0.083
92.1172 -0.022
92.1475 -0.022
92.1777 -0.073
92.2080 0.240
92.2383 0.346
92.2686 0.295
92.2988 0.349
92.3291 0.404
92.3594 -0.010
92.3897 -0.215
92.4200 -0.169
92.4502 0.293
92.4805 0.443
92.5108 0.542
92.5411 0.068
92.5714 0.584
92.6016 0.059
92.6319 0.056
92.6622 0.521
92.6925 -0.159
92.7227 0.307
92.7530 0.201
92.7833 -0.269
92.8136 0.094
92.8439 0.041
92.8741 -0.272
92.9044 0.353
92.9347 -0.011
92.9650 -0.375
92.9953 0.668
93.0255 0.253
93.0558 -0.162
93.0861 -0.107
93.1164 0.156
93.1466 0.004
93.1769 -0.305
93.2072 0.272
93.2375 -0.140
93.2678 -0.187
93.2980 0.339
93.3283 -0.228
93.3586 -0.013
93.3889 -0.215
93.4192 -0.114
93.4494 -0.013
93.4797 -0.067
93.5100 0.035
93.5403 -0.071
93.5706 0.084
93.6008 -0.334
93.6311 -0.022
93.6614 -0.230
93.6917 0.083
93.7219 0.084
93.7522 0.033
93.7825 0.295
93.8128 -0.328
93.8431 0.091
93.8733 -0.062
93.9036 -0.215
93.9339 -0.216
93.9642 0.616
93.9945 0.095
94.0247 -0.114
94.0550 0.095
94.0853 0.095
94.1156 0.044
94.1458 -0.215
94.1761 -0.123
94.2064 -0.030
94.2367 -0.093
94.2670 0.313
94.2972 -0.427
94.3275 -0.176
94.3578 0.335
94.3881 0.065
94.4184 -0.152
94.4486 -0.003
94.4789 0.041
94.5092 -0.227
94.5395 -0.129
94.5697 0.021
94.6000 0.224
94.6303 -0.041
94.6606 0.007
94.6909 0.263
94.7211 0.103
94.7514 -0.109
94.7817 0.149
94.8120 1.084
94.8423 0.197
94.8725 0.091
94.9028 0.142
94.9331 0.349
94.9634 0.141
94.9936 -0.016
95.0239 0.506
95.0542 0.246
95.0845 0.612
95.1148 0.614
95.1450 0.095
95.1753 0.463
95.2056 0.205
95.2359 0.990
95.2662 0.629
95.2964 0.634
95.3267 0.118
95.3570 0.435
95.3873 0.285
95.4175 0.499
95.4478 0.193
95.4781 0.356
95.5084 0.311
95.5387 0.527
95.5689 0.535
95.5992 0.075
95.6295 0.709
95.6598 0.249
95.6901 0.363
95.7203 -0.147
95.7506 0.072
95.7809 0.031
95.8112 0.407
95.8414 0.054
95.8717 0.379
95.9020 0.183
95.9323 0.144
95.9626 -0.467
95.9928 -0.102
96.0231 0.004
96.0534 -0.047
96.0837 -0.045
96.1140 0.687
96.1442 -0.195
96.1745 0.016
96.2048 -0.032
96.2351 0.077
96.2653 0.133
96.2956 0.138
96.3259 -0.169
96.3562 0.254
96.3865 0.260
96.4167 0.163
96.4470 0.274
96.4773 0.282
96.5076 -0.127
96.5379 0.715
96.5681 -0.006
96.5984 -0.100
96.6287 -0.195
96.6590 0.006
96.6893 0.311
96.7195 0.201
96.7498 0.090
96.7801 0.137
96.8104 -0.233
96.8406 0.595
96.8709 0.070
96.9012 0.118
96.9315 0.062
96.9618 -0.202
96.9920 -0.209
97.0223 0.566
97.0526 0.248
97.0829 0.242
97.1132 0.237
97.1434 0.545
97.1737 -0.293
97.2040 0.068
97.2343 0.325
97.2645 0.634
97.2948 0.059
97.3251 -0.152
97.3554 0.211
97.3857 0.314
97.4159 -0.156
97.4462 -0.208
97.4765 0.096
97.5068 -0.015
97.5371 -0.283
97.5673 0.336
97.5976 -0.139
97.6279 -0.093
97.6582 -0.098
97.6884 0.470
97.7187 -0.368
97.7490 -0.164
97.7793 -0.167
97.8096 0.350
97.8398 -0.017
97.8701 -0.019
97.9004 0.239
97.9307 0.186
97.9610 -0.128
97.9912 -0.285
98.0215 0.180
98.0518 0.072
98.0821 0.745
98.1123 -0.143
98.1426 0.219
98.1729 0.321
98.2032 -0.097
98.2335 0.370
98.2637 0.109
98.2940 0.161
98.3243 0.160
98.3546 0.109
98.3849 0.370
98.4151 0.059
98.4454 0.477
98.4757 -0.250
98.5060 -0.195
98.5362 -0.036
98.5665 0.176
98.5968 0.283
98.6271 0.444
98.6574 -0.177
98.6876 -0.015
98.7179 0.459
98.7482 0.204
98.7785 0.211
98.8088 -0.199
98.8390 0.225
98.8693 -0.445
98.8996 -0.072
98.9299 0.144
98.9601 0.257
98.9904 -0.150
99.0207 0.120
99.0510 0.182
99.0813 0.349
99.1115 -0.109
99.1418 -0.202
99.1721 -0.202
99.2024 -0.151
99.2327 0.317
99.2629 0.212
99.2932 0.056
99.3235 0.473
99.3538 0.057
99.3841 0.371
99.4143 -0.097
99.4446 0.739
99.4749 0.012
99.5052 0.275
99.5354 0.226
99.5657 -0.186
99.5960 0.286
99.6263 0.343
99.6566 -0.225
99.6868 0.145
99.7171 0.203
99.7474 0.105
99.7777 0.424
99.8080 0.014
99.8382 0.074
99.8685 0.342
99.8988 0.038
99.9291 0.255
99.9593 0.004
99.9896 0.482
100.0199 0.232
100.0502 -0.070
100.0805 0.201
100.1107 0.525
100.1410 -0.036
100.1713 -0.285
100.2016 0.068
100.2319 0.265
100.2621 0.410
100.2924 0.035
100.3227 0.441
100.3530 -0.506
100.3832 -0.099
100.4135 0.101
100.4438 -0.168
100.4741 0.084
100.5044 0.285
100.5346 0.173
100.5649 0.167
100.5952 0.108
100.6255 -0.158
100.6558 0.201
100.6860 0.195
100.7163 0.399
100.7466 -0.074
100.7769 -0.078
100.8071 0.127
100.8374 0.124
100.8677 0.225
100.8980 0.119
100.9283 0.065
100.9585 0.585
100.9888 0.115
101.0191 0.218
101.0494 0.010
101.0797 0.635
101.1099 -0.197
101.1402 0.325
101.1705 0.170
101.2008 0.224
101.2310 0.122
101.2613 0.177
101.2916 -0.392
101.3219 0.080
101.3522 0.084
101.3824 0.089
101.4127 -0.167
101.4430 0.307
101.4733 0.574
101.5036 -0.149
101.5338 -0.195
101.5641 0.058
101.5944 -0.105
101.6247 0.202
101.6549 -0.117
101.6852 0.242
101.7155 0.289
101.7458 -0.288
101.7761 -0.032
101.8063 0.016
101.8366 0.273
101.8669 0.218
101.8972 0.320
101.9275 0.370
101.9577 0.108
101.9880 -0.050
102.0183 -0.207
102.0486 0.096
102.0788 0.243
102.1091 -0.078
102.1394 0.434
102.1697 0.374
102.2000 -0.363
102.2302 0.047
102.2605 0.509
102.2908 -0.123
102.3211 -0.076
102.3514 0.126
102.3816 0.278
102.4119 -0.248
102.4422 0.373
102.4725 0.578
102.5028 0.262
102.5330 -0.002
102.5633 0.048
102.5936 -0.215
102.6239 -0.169
102.6541 -0.018
102.6844 0.081
102.7147 -0.028
102.7450 0.332
102.7753 0.224
102.8055 -0.040
102.8358 0.061
102.8661 0.319
102.8964 -0.308
102.9267 0.784
102.9569 0.366
102.9872 0.469
103.0175 0.156
103.0478 -0.105
103.0780 0.052
103.1083 0.261
103.1386 -0.311
103.1689 -0.209
103.1992 -0.159
103.2294 -0.057
103.2597 -0.162
103.2900 -0.111
103.3203 -0.112
103.3506 -0.060
103.3808 0.149
103.4111 0.306
103.4414 0.099
103.4717 0.205
103.5019 0.207
103.5322 0.470
103.5625 0.420
103.5928 0.320
103.6231 0.219
103.6533 0.275
103.6836 0.020
103.7139 0.650
103.7442 0.186
103.7745 -0.016
103.8047 0.094
103.8350 0.257
103.8653 0.316
103.8956 0.063
103.9258 -0.189
103.9561 -0.337
103.9864 0.233
104.0167 0.386
104.0470 0.123
104.0772 0.069
104.1075 0.172
104.1378 0.118
104.1681 -0.247
104.1984 0.221
104.2286 0.065
104.2589 -0.039
104.2892 -0.194
104.3195 0.068
104.3497 0.121
104.3800 -0.293
104.4103 0.126
104.4406 0.181
104.4709 -0.128
104.5011 -0.228
104.5314 0.349
104.5617 -0.219
104.5920 0.255
104.6223 0.364
104.6525 -0.203
104.6828 0.168
104.7131 -0.033
104.7434 0.078
104.7736 0.138
104.8039 0.094
104.8342 -0.002
104.8645 0.163
104.8948 0.016
104.9250 0.286
104.9553 0.140
104.9856 0.255
105.0159 0.110
105.0462 0.173
105.0764 0.446
105.1067 0.093
105.1370 -0.207
105.1673 -0.055
105.1975 0.514
105.2278 0.146
105.2581 -0.065
105.2884 0.192
105.3187 0.034
105.3489 0.136
105.3792 0.083
105.4095 0.551
105.4398 0.446
105.4701 -0.075
105.5003 0.029
105.5306 0.134
105.5609 -0.177
105.5912 0.449
105.6215 -0.226
105.6517 0.089
105.6820 0.092
105.7123 0.095
105.7426 -0.058
105.7728 0.311
105.8031 0.003
105.8334 0.112
105.8637 0.586
105.8940 0.019
105.9242 0.025
105.9545 0.344
105.9848 -0.013
106.0151 0.150
106.0454 -0.206
106.0756 -0.109
106.1059 0.145
106.1362 0.191
106.1665 0.133
106.1967 -0.185
106.2270 -0.033
106.2573 0.431
106.2876 0.219
106.3179 -0.201
106.3481 0.473
106.3784 0.053
106.4087 -0.105
106.4390 0.414
106.4693 0.152
106.4995 0.515
106.5298 0.046
106.5601 0.567
106.5904 -0.318
106.6206 0.255
106.6509 0.204
106.6812 -0.003
106.7115 -0.053
106.7418 -0.259
106.7720 0.095
106.8023 0.449
106.8326 -0.030
106.8629 0.169
106.8932 0.055
106.9234 -0.058
106.9537 -0.014
106.9840 0.446
107.0143 -0.082
107.0445 0.015
107.0748 -0.096
107.1051 0.210
107.1354 -0.108
107.1657 0.147
107.1959 0.037
107.2262 -0.124
107.2565 -0.024
107.2868 0.181
107.3171 -0.083
107.3473 -0.190
107.3776 0.120
107.4079 0.326
107.4382 0.064
107.4684 -0.146
107.4987 -0.355
107.5290 0.321
107.5593 -0.199
107.5896 0.270
107.6198 0.114
107.6501 -0.041
107.6804 0.065
107.7107 0.119
107.7410 -0.191
107.7712 -0.084
107.8015 0.388
107.8318 -0.129
107.8621 -0.125
107.8923 -0.120
107.9226 -0.063
107.9529 0.672
107.9832 -0.312
108.0135 -0.202
108.0437 -0.107
108.0740 0.509
108.1043 0.344
108.1346 -0.185
108.1649 0.485
108.1951 0.113
108.2254 0.054
108.2557 -0.005
108.2860 0.354
108.3163 0.348
108.3465 0.395
108.3768 0.495
108.4071 0.126
108.4374 0.278
108.4676 0.066
108.4979 0.115
108.5282 0.217
108.5585 0.163
108.5888 0.057
108.6190 -0.153
108.6493 0.002
108.6796 -0.259
108.7099 0.046
108.7402 0.039
108.7704 0.137
108.8007 -0.077
108.8310 0.021
108.8613 0.276
108.8915 -0.093
108.9218 -0.202
108.9521 -0.154
108.9824 0.051
109.0127 -0.213
109.0429 0.149
109.0732 0.147
109.1035 -0.011
109.1338 -0.221
109.1641 -0.173
109.1943 0.031
109.2246 -0.233
109.2549 0.021
109.2852 0.015
109.3154 0.269
109.3457 -0.309
109.3760 -0.002
109.4063 -0.058
109.4366 -0.115
109.4668 -0.014
109.4971 0.035
109.5274 -0.125
109.5577 -0.127
109.5880 -0.129
109.6182 0.130
109.6485 0.181
109.6788 -0.133
109.7091 0.023
109.7393 0.075
109.7696 -0.133
109.7999 0.285
109.8302 -0.183
109.8605 -0.285
109.8907 0.236
109.9210 -0.284
109.9513 0.342
109.9816 0.292
110.0119 0.450
110.0421 0.192
110.0724 0.091
110.1027 0.094
110.1330 0.098
110.1632 0.258
110.1935 0.367
110.2238 0.215
110.2541 0.012
110.2844 0.695
110.3146 0.389
110.3449 0.083
110.3752 0.246
110.4055 0.410
110.4358 0.158
110.4660 -0.199
110.4963 -0.086
110.5266 0.080
110.5569 -0.015
110.5871 0.151
110.6174 0.370
110.6477 0.225
110.6780 -0.337
110.7083 -0.178
110.7385 -0.019
110.7688 0.350
110.7991 -0.063
110.8294 0.098
110.8597 0.155
110.8899 -0.048
110.9202 0.009
110.9505 0.172
110.9808 -0.186
111.0110 0.081
111.0413 -0.016
111.0716 0.409
111.1019 0.625
111.1322 0.061
111.1624 0.018
111.1927 0.080
111.2230 0.038
111.2533 0.048
111.2836 0.007
111.3138 0.382
111.3441 0.133
111.3744 0.093
111.4047 0.523
111.4350 0.015
111.4652 -0.441
111.4955 0.021
111.5258 0.222
111.5561 -0.253
111.5863 0.053
111.6166 0.308
111.6469 0.147
111.6772 0.090
111.7075 0.606
111.7377 0.186
111.7680 0.287
111.7983 -0.029
111.8286 0.489
111.8589 0.331
111.8891 -0.244
111.9194 0.067
111.9497 0.327
111.9800 -0.091
112.0102 -0.195
112.0405 -0.404
112.0708 0.533
112.1011 0.116
112.1314 0.220
112.1616 -0.040
112.1919 0.066
112.2222 -0.193
112.2525 0.277
112.2828 -0.033
112.3130 0.126
112.3433 -0.183
112.3736 -0.180
112.4039 -0.019
112.4341 0.402
112.4644 -0.062
112.4947 0.256
112.5250 0.366
112.5553 0.476
112.5855 -0.038
112.6158 -0.188
112.6461 -0.041
112.6764 0.158
112.7067 0.461
112.7369 -0.016
112.7672 -0.337
112.7975 0.280
112.8278 0.325
112.8580 0.006
112.8883 -0.001
112.9186 -0.111
112.9489 0.248
112.9792 -0.174
113.0094 -0.023
113.0397 0.442
113.0700 0.073
113.1003 0.747
113.1306 0.119
113.1608 0.116
113.1911 0.062
113.2214 0.112
113.2517 0.215
113.2819 -0.203
113.3122 0.265
113.3425 -0.100
113.3728 0.317
113.4031 -0.047
113.4333 -0.202
113.4636 0.049
113.4939 0.144
113.5242 0.500
113.5545 0.126
113.5847 0.275
113.6150 0.007
113.6453 -0.001
113.6756 -0.164
113.7058 0.091
113.7361 -0.020
113.7664 0.235
113.7967 0.074
113.8270 -0.035
113.8572 0.273
113.8875 -0.095
113.9178 0.110
113.9481 0.159
113.9784 -0.156
114.0086 -0.210
114.0389 0.153
114.0692 -0.422
114.0995 0.046
114.1298 -0.058
114.1600 -0.215
114.1903 -0.162
114.2206 -0.005
114.2509 -0.004
114.2811 -0.055
114.3114 0.208
114.3417 -0.415
114.3720 -0.162
114.4023 0.196
114.4325 0.190
114.4628 0.340
114.4931 -0.394
114.5234 0.017
114.5537 0.013
114.5839 0.008
114.6142 0.421
114.6445 -0.051
114.6748 0.102
114.7050 -0.108
114.7353 0.202
114.7656 -0.268
114.7959 -0.009
114.8262 -0.218
114.8564 0.406
114.8867 0.146
114.9170 -0.479
114.9473 -0.061
114.9776 0.305
115.0078 0.358
115.0381 0.048
115.0684 -0.054
115.0987 -0.363
115.1289 0.105
115.1592 -0.311
115.1895 -0.066
115.2198 -0.394
115.2501 0.268
115.2803 0.097
115.3106 -0.177
115.3409 0.070
115.3712 0.109
115.4015 0.096
115.4317 0.032
115.4620 0.176
115.4923 -0.304
115.5226 0.205
115.5528 -0.222
115.5831 0.184
115.6134 -0.294
115.6437 -0.043
115.6740 0.000
115.7042 0.356
115.7345 0.035
115.7648 -0.076
115.7951 -0.032
115.8254 -0.039
115.8556 0.059
115.8859 -0.051
115.9162 0.048
115.9465 0.303
115.9767 0.350
116.0070 0.606
116.0373 0.290
116.0676 0.130
116.0979 -0.238
116.1281 0.124
116.1584 -0.555
116.1887 0.641
116.2190 -0.194
116.2493 -0.143
116.2795 0.273
116.3098 0.325
116.3401 0.117
116.3704 0.014
116.4006 0.015
116.4309 -0.140
116.4612 0.435
116.4915 0.177
116.5218 -0.341
116.5520 0.235
116.5823 0.239
116.6126 0.347
116.6429 0.247
116.6732 0.044
116.7034 0.049
116.7337 0.003
116.7640 0.374
116.7943 0.172
116.8245 -0.133
116.8548 0.082
116.8851 -0.118
116.9154 0.463
116.9457 0.263
116.9759 0.064
117.0062 -0.239
117.0365 -0.073
117.0668 -0.063
117.0971 0.312
117.1273 0.271
117.1576 0.595
117.1879 -0.018
117.2182 0.046
117.2485 -0.149
117.2787 0.072
117.3090 -0.227
117.3393 -0.077
117.3696 0.178
117.3998 -0.191
117.4301 0.273
117.4604 0.373
117.4907 -0.048
117.5210 -0.051
117.5512 -0.367
117.5815 0.152
117.6118 0.098
117.6421 -0.008
117.6724 -0.010
117.7026 0.094
117.7329 -0.480
117.7632 -0.011
117.7935 0.042
117.8237 0.147
117.8540 -0.165
117.8843 0.566
117.9146 -0.161
117.9449 0.102
117.9751 -0.312
118.0054 0.213
118.0357 0.269
118.0660 -0.040
118.0963 0.121
118.1265 0.230
118.1568 -0.337
118.1871 -0.177
118.2174 0.193
118.2476 -0.115
118.2779 -0.161
118.3082 0.105
118.3385 0.319
118.3688 0.274
118.3990 -0.240
118.4293 0.028
118.4596 0.193
118.4899 0.201
118.5202 -0.363
118.5504 -0.149
118.5807 -0.195
118.6110 0.280
118.6413 0.234
118.6715 -0.123
118.7018 -0.011
118.7321 0.101
118.7624 0.109
118.7927 0.587
118.8229 -0.185
118.8532 0.085
118.8835 -0.374
118.9138 0.053
118.9441 -0.196
118.9743 0.232
119.0046 -0.069
119.0349 0.152
119.0652 -0.044
119.0954 0.021
119.1257 -0.174
119.1560 -0.160
119.1863 0.011
119.2166 0.390
119.2468 0.665
119.2771 0.108
119.3074 0.437
119.3377 0.349
119.3680 0.313
119.3982 0.643
119.4285 0.192
119.4588 -0.311
119.4891 -0.161
119.5193 0.354
119.5496 0.192
119.5799 0.395
119.6102 0.234
119.6405 -0.187
119.6707 0.539
119.7010 0.379
119.7313 0.168
119.7616 0.373
119.7919 0.371
119.8221 0.578
119.8524 0.472
119.8827 0.002
119.9130 0.210
119.9433 -0.363
119.9735 -0.188
120.0038 0.000
