'Id: "" Comment: "" Operator: "Lab Manager" Anode: "Cu" Scantype: "Locked Coupled" TimePerStep: "19.2" X: "9999" Y: "9999" Z: "9999" 
10.0015 0.000
10.0318 0.556
10.0620 0.331
10.0923 1.096
10.1226 1.289
10.1529 0.440
10.1832 -0.095
10.2134 0.411
10.2437 1.022
10.2740 0.904
10.3043 0.474
10.3346 -0.060
10.3648 0.240
10.3951 0.072
10.4254 1.466
10.4557 0.309
10.4859 -0.118
10.5162 1.590
10.5465 0.538
10.5768 0.164
10.6071 0.207
10.6373 1.344
10.6676 0.085
10.6979 -0.183
10.7282 -0.087
10.7585 -0.407
10.7887 -0.253
10.8190 0.421
10.8493 0.158
10.8796 0.678
10.9098 0.103
10.9401 0.415
10.9704 0.310
11.0007 0.675
11.0310 0.935
11.0612 0.675
11.0915 0.260
11.1218 0.261
11.1521 0.003
11.1824 0.109
11.2126 -0.044
11.2429 0.948
11.2732 -0.090
11.3035 0.695
11.3337 0.178
11.3640 -1.275
11.3943 -0.130
11.4246 -0.338
11.4549 0.444
11.4851 -0.285
11.5154 -0.023
11.5457 -0.229
11.5760 -0.071
11.6063 0.400
11.6365 0.351
11.6668 0.823
11.6971 -0.267
11.7274 0.622
11.7577 0.366
11.7879 0.267
11.8182 -0.509
11.8485 0.122
11.8788 0.024
11.9090 0.134
11.9393 -0.119
11.9696 0.201
11.9999 -0.521
12.0302 0.216
12.0604 -0.400
12.0907 -0.395
12.1210 0.288
12.1513 0.555
12.1816 0.666
12.2118 1.194
12.2421 0.733
12.2724 0.376
12.3027 -0.397
12.3329 -0.655
12.3632 0.909
12.3935 -0.338
12.4238 0.082
12.4541 -1.009
12.4843 0.662
12.5146 -0.063
12.5449 -0.111
12.5752 -0.679
12.6055 0.421
12.6357 0.635
12.6660 0.120
12.6963 0.439
12.7266 -0.491
12.7568 0.350
12.7871 -0.059
12.8174 0.261
12.8477 0.062
12.8780 0.123
12.9082 0.393
12.9385 -0.431
12.9688 0.048
12.9991 -0.202
13.0294 0.018
13.0596 0.029
13.0899 -0.115
13.1202 -0.468
13.1505 0.167
13.1807 0.177
13.2110 0.448
13.2413 -0.010
13.2716 0.314
13.3019 0.169
13.3321 -0.235
13.3624 -0.379
13.3927 0.200
13.4230 0.675
13.4533 -0.256
13.4835 0.585
13.5138 -0.762
13.5441 0.027
13.5744 0.244
13.6046 0.826
13.6349 0.470
13.6652 -0.510
13.6955 0.177
13.7258 0.917
13.7560 0.251
13.7863 0.158
13.8166 0.898
13.8469 0.494
13.8772 -0.015
13.9074 0.935
13.9377 0.271
13.9680 0.441
13.9983 -0.326
14.0285 -0.572
14.0588 0.369
14.0891 -0.513
14.1194 0.221
14.1497 1.528
14.1799 0.491
14.2102 -0.024
14.2405 -0.175
14.2708 0.613
14.3011 0.099
14.3313 0.575
14.3616 0.113
14.3919 0.173
14.4222 0.234
14.4524 -0.226
14.4827 0.095
14.5130 -0.052
14.5433 0.323
14.5736 0.177
14.6038 0.552
14.6341 0.824
14.6644 0.939
14.6947 -0.195
14.7250 0.286
14.7552 0.820
14.7855 -0.261
14.8158 -0.143
14.8461 0.600
14.8764 0.823
14.9066 0.108
14.9369 -0.345
14.9672 -0.456
14.9975 1.204
15.0277 -0.052
15.0580 0.880
15.0883 0.771
15.1186 -0.015
15.1489 0.241
15.1791 0.289
15.2094 -0.287
15.2397 -0.030
15.2700 0.384
15.3003 -0.764
15.3305 0.432
15.3608 0.848
15.3911 0.222
15.4214 0.325
15.4516 -0.040
15.4819 -0.040
15.5122 0.325
15.5425 0.014
15.5728 -0.349
15.6030 0.012
15.6333 0.217
15.6636 -0.150
15.6939 -0.048
15.7242 0.315
15.7544 0.261
15.7847 0.312
15.8150 -0.105
15.8453 -0.053
15.8755 -0.261
15.9058 0.104
15.9361 0.001
15.9664 -0.102
15.9967 0.421
16.0269 0.475
16.0572 0.425
16.0875 0.637
16.1178 0.380
16.1481 0.331
16.1783 -0.029
16.2086 -0.128
16.2389 -0.019
16.2692 0.663
16.2994 1.554
16.3297 0.519
16.3600 0.890
16.3903 -0.197
16.4206 -0.345
16.4508 -0.149
16.4811 0.151
16.5114 -0.173
16.5417 0.910
16.5720 0.066
16.6022 -0.101
16.6325 0.306
16.6628 -0.172
16.6931 0.183
16.7233 0.695
16.7536 0.427
16.7839 0.419
16.8142 -0.162
16.8445 -0.013
16.8747 0.137
16.9050 0.078
16.9353 -0.240
16.9656 -0.141
16.9959 1.364
17.0261 0.839
17.0564 1.251
17.0867 0.570
17.1170 -0.059
17.1472 0.303
17.1775 -0.481
17.2078 0.194
17.2381 0.817
17.2684 0.659
17.2986 0.606
17.3289 -0.228
17.3592 0.709
17.3895 0.865
17.4198 0.553
17.4500 0.971
17.4803 0.035
17.5106 0.349
17.5409 0.507
17.5712 -0.324
17.6014 -0.164
17.6317 -0.786
17.6620 0.363
17.6923 0.055
17.7225 -0.357
17.7528 -0.039
17.7831 1.477
17.8134 0.858
17.8437 0.396
17.8739 0.195
17.9042 0.150
17.9345 -0.311
17.9648 0.582
17.9951 -0.242
18.0253 -0.650
18.0556 0.282
18.0859 0.278
18.1162 -0.143
18.1464 0.426
18.1767 -0.203
18.2070 -0.206
18.2373 0.208
18.2676 -0.003
18.2978 -0.317
18.3281 0.202
18.3584 0.097
18.3887 0.513
18.4190 -0.165
18.4492 0.304
18.4795 0.148
18.5098 -0.163
18.5401 -0.006
18.5703 0.048
18.6006 -0.210
18.6309 -0.468
18.6612 0.629
18.6915 0.059
18.7217 0.531
18.7520 -0.090
18.7823 0.332
18.8126 -0.028
18.8429 0.290
18.8731 0.243
18.9034 0.301
18.9337 -0.057
18.9640 -0.258
18.9942 -0.095
19.0245 0.017
19.0548 0.546
19.0851 -0.227
19.1154 -0.218
19.1456 0.104
19.1759 0.062
19.2062 0.801
19.2365 0.603
19.2668 0.250
19.2970 -0.156
19.3273 0.012
19.3576 0.441
19.3879 0.766
19.4181 0.310
19.4484 0.480
19.4787 -0.340
19.5090 0.143
19.5393 -0.624
19.5695 -0.114
19.5998 0.656
19.6301 0.489
19.6604 0.375
19.6907 0.105
19.7209 0.721
19.7512 0.295
19.7815 0.026
19.8118 0.279
19.8420 -0.719
19.8723 0.160
19.9026 0.569
19.9329 -0.166
19.9632 0.140
19.9934 0.135
20.0237 0.754
20.0540 -0.553
20.0843 0.016
20.1146 0.637
20.1448 -0.356
20.1751 0.005
20.2054 0.262
20.2357 0.260
20.2659 0.102
20.2962 0.465
20.3265 -0.110
20.3568 0.358
20.3871 -0.423
20.4173 -0.007
20.4476 0.462
20.4779 -0.058
20.5082 -0.057
20.5385 0.257
20.5687 -0.418
20.5990 0.262
20.6293 0.733
20.6596 -0.149
20.6899 0.323
20.7201 -0.089
20.7504 -0.345
20.7807 -0.242
20.8110 -0.139
20.8412 0.382
20.8715 -0.660
20.9018 -0.138
20.9321 -0.033
20.9624 -0.605
20.9926 0.647
21.0229 0.076
21.0532 0.027
21.0835 0.602
21.1138 0.241
21.1440 0.974
21.1743 0.301
21.2046 -0.215
21.2349 0.363
21.2651 0.056
21.2954 0.634
21.3257 -0.193
21.3560 0.022
21.3863 -0.231
21.4165 -0.693
21.4468 0.357
21.4771 0.677
21.5074 0.061
21.5377 -0.295
21.5679 -0.338
21.5982 0.333
21.6285 0.380
21.6588 0.114
21.6890 -0.568
21.7193 0.886
21.7496 -0.524
21.7799 0.410
21.8102 0.563
21.8404 0.456
21.8707 -0.120
21.9010 0.295
21.9313 0.345
21.9616 0.136
21.9918 0.187
22.0221 0.186
22.0524 0.030
22.0827 0.239
22.1129 0.448
22.1432 -0.436
22.1735 0.346
22.2038 0.765
22.2341 -0.014
22.2643 -0.011
22.2946 0.461
22.3249 0.256
22.3552 0.468
22.3855 -0.257
22.4157 0.686
22.4460 -0.247
22.4763 -0.085
22.5066 -0.235
22.5368 0.448
22.5671 0.351
22.5974 -0.215
22.6277 -0.520
22.6580 0.264
22.6882 -0.045
22.7185 0.636
22.7488 -0.818
22.7791 0.176
22.8094 0.598
22.8396 0.239
22.8699 -0.433
22.9002 0.355
22.9305 1.091
22.9607 -0.100
22.9910 -0.301
23.0213 0.227
23.0516 0.288
23.0819 -0.016
23.1121 -0.216
23.1424 0.575
23.1727 -0.457
23.2030 0.439
23.2333 -0.176
23.2635 1.190
23.2938 -0.049
23.3241 0.119
23.3544 -0.337
23.3846 -0.092
23.4149 0.155
23.4452 0.297
23.4755 -0.185
23.5058 0.219
23.5360 0.519
23.5663 0.298
23.5966 0.547
23.6269 -0.194
23.6572 0.264
23.6874 0.149
23.7177 0.660
23.7480 0.077
23.7783 -0.245
23.8086 0.163
23.8388 0.363
23.8691 0.146
23.8994 -0.174
23.9297 -0.390
23.9599 0.228
23.9902 -0.092
24.0205 -0.202
24.0508 0.573
24.0811 0.046
24.1113 -0.115
24.1416 -0.173
24.1719 0.240
24.2022 -0.390
24.2325 -0.187
24.2627 -0.089
24.2930 0.375
24.3233 -0.411
24.3536 0.001
24.3838 0.049
24.4141 0.671
24.4444 -0.426
24.4747 0.196
24.5050 -0.119
24.5352 0.504
24.5655 -0.435
24.5958 1.074
24.6261 0.136
24.6564 -0.020
24.6866 0.344
24.7169 -0.020
24.7472 0.085
24.7775 0.347
24.8077 -0.068
24.8380 1.027
24.8683 -0.012
24.8986 0.147
24.9289 -0.110
24.9591 -0.783
24.9894 0.940
25.0197 -0.566
25.0500 0.324
25.0803 0.433
25.1105 0.960
25.1408 -0.024
25.1711 0.191
25.2014 0.614
25.2316 -0.003
25.2619 0.056
25.2922 0.169
25.3225 0.177
25.3528 0.290
25.3830 0.039
25.4133 0.465
25.4436 0.267
25.4739 0.121
25.5042 0.184
25.5344 -0.221
25.5647 -0.158
25.5950 0.011
25.6253 0.544
25.6555 -0.224
25.6858 0.622
25.7161 0.427
25.7464 0.494
25.7767 -0.325
25.8069 -0.595
25.8372 0.489
25.8675 -0.354
25.8978 0.732
25.9281 0.151
25.9583 0.716
25.9886 -0.073
26.0189 0.441
26.0492 0.642
26.0794 0.584
26.1097 0.735
26.1400 0.365
26.1703 0.360
26.2006 0.147
26.2308 0.611
26.2611 -0.330
26.2914 -0.333
26.3217 0.023
26.3520 0.224
26.3822 0.060
26.4125 -0.364
26.4428 -0.015
26.4731 0.177
26.5034 -0.047
26.5336 0.147
26.5639 -0.233
26.5942 0.222
26.6245 -0.105
26.6547 -0.379
26.6850 0.650
26.7153 -0.925
26.7456 -0.313
26.7759 -0.325
26.8061 0.654
26.8364 0.278
26.8667 -0.202
26.8970 -0.108
26.9273 -0.534
26.9575 0.498
26.9878 -0.449
27.0181 -0.353
27.0484 0.315
27.0786 0.254
27.1089 0.142
27.1392 -0.700
27.1695 -0.082
27.1998 0.015
27.2300 -0.512
27.2603 0.419
27.2906 -0.316
27.3209 -0.009
27.3512 -0.222
27.3814 0.138
27.4117 -0.231
27.4420 -0.183
27.4723 0.387
27.5025 -0.189
27.5328 0.381
27.5631 -0.507
27.5934 0.273
27.6237 0.167
27.6539 0.531
27.6842 0.165
27.7145 -0.095
27.7448 0.322
27.7751 -0.199
27.8053 0.948
27.8356 1.210
27.8659 0.430
27.8962 0.589
27.9264 0.123
27.9567 0.178
27.9870 0.702
28.0173 -0.232
28.0476 -0.124
28.0778 0.089
28.1081 0.199
28.1384 0.568
28.1687 -0.155
28.1990 -0.357
28.2292 0.095
28.2595 0.444
28.2898 0.480
28.3201 0.308
28.3503 0.033
28.3806 -0.034
28.4109 0.525
28.4412 0.251
28.4715 1.279
28.5017 -0.244
28.5320 0.316
28.5623 0.512
28.5926 1.334
28.6229 0.177
28.6531 0.062
28.6834 0.832
28.7137 0.927
28.7440 0.136
28.7742 -0.290
28.8045 0.117
28.8348 0.317
28.8651 0.205
28.8954 -0.011
28.9256 -0.748
28.9559 0.235
28.9862 0.228
29.0165 0.430
29.0468 -0.044
29.0770 0.524
29.1073 0.258
29.1376 0.150
29.1679 -0.219
29.1981 -0.379
29.2284 -0.131
29.2587 0.327
29.2890 0.628
29.3193 -0.477
29.3495 -0.383
29.3798 -0.061
29.4101 0.782
29.4404 0.011
29.4707 0.490
29.5009 0.605
29.5312 0.565
29.5615 0.212
29.5918 -0.141
29.6221 0.705
29.6523 1.551
29.6826 0.158
29.7129 -0.088
29.7432 0.342
29.7734 0.409
29.8037 0.632
29.8340 -0.550
29.8643 0.767
29.8946 -0.414
29.9248 0.071
29.9551 0.192
29.9854 0.418
30.0157 -0.033
30.0460 0.193
30.0762 0.107
30.1065 1.064
30.1368 0.458
30.1671 0.270
30.1973 0.394
30.2276 0.623
30.2579 1.112
30.2882 0.404
30.3185 -0.043
30.3487 -0.073
30.3790 0.367
30.4093 0.442
30.4396 0.882
30.4699 0.489
30.5001 0.825
30.5304 0.642
30.5607 0.771
30.5910 1.838
30.6212 0.457
30.6515 1.733
30.6818 0.614
30.7121 0.120
30.7424 1.814
30.7726 1.790
30.8029 0.828
30.8332 1.586
30.8635 3.177
30.8938 2.738
30.9240 1.986
30.9543 2.954
30.9846 4.599
31.0149 5.411
31.0451 4.453
31.0754 5.631
31.1057 6.027
31.1360 6.685
31.1663 9.009
31.1965 9.095
31.2268 11.004
31.2571 12.131
31.2874 15.239
31.3177 16.263
31.3479 20.830
31.3782 21.543
31.4085 26.996
31.4388 30.313
31.4690 35.194
31.4993 42.888
31.5296 43.811
31.5599 52.130
31.5902 53.367
31.6204 57.364
31.6507 54.747
31.6810 52.912
31.7113 50.660
31.7416 45.128
31.7718 43.658
31.8021 38.023
31.8324 33.012
31.8627 25.607
31.8929 19.764
31.9232 16.942
31.9535 16.308
31.9838 15.102
32.0141 13.375
32.0443 11.232
32.0746 7.788
32.1049 7.989
32.1352 8.191
32.1655 6.310
32.1957 5.419
32.2260 4.373
32.2563 4.680
32.2866 3.009
32.3169 3.474
32.3471 2.689
32.3774 2.895
32.4077 2.788
32.4380 1.692
32.4682 1.481
32.4985 2.938
32.5288 0.489
32.5591 0.488
32.5894 0.801
32.6196 1.738
32.6499 0.176
32.6802 0.385
32.7105 0.803
32.7408 -0.393
32.7710 0.390
32.8013 0.966
32.8316 0.500
32.8619 -0.643
32.8921 0.194
32.9224 -0.270
32.9527 -0.422
32.9830 0.520
33.0133 -0.100
33.0435 -0.042
33.0738 -0.296
33.1041 -0.238
33.1344 0.394
33.1647 0.402
33.1949 0.357
33.2252 -0.833
33.2555 -0.331
33.2858 -0.298
33.3160 -0.212
33.3463 -0.230
33.3766 -0.143
33.4069 0.830
33.4372 0.292
33.4674 -0.349
33.4977 -0.053
33.5280 0.661
33.5583 0.021
33.5886 0.944
33.6188 1.190
33.6491 0.811
33.6794 1.215
33.7097 1.254
33.7399 1.085
33.7702 1.749
33.8005 1.946
33.8308 1.570
33.8611 3.121
33.8913 3.059
33.9216 4.038
33.9519 5.642
33.9822 7.091
34.0125 8.853
34.0427 9.105
34.0730 12.378
34.1033 15.859
34.1336 21.529
34.1638 26.835
34.1941 38.755
34.2244 51.040
34.2547 69.159
34.2850 76.758
34.3152 70.763
34.3455 65.707
34.3758 58.202
34.4061 42.521
34.4364 32.726
34.4666 25.432
34.4969 16.054
34.5272 15.166
34.5575 10.946
34.5877 9.798
34.6180 8.183
34.6483 6.776
34.6786 4.327
34.7089 5.265
34.7391 4.589
34.7694 3.287
34.7997 3.341
34.8300 1.259
34.8603 3.865
34.8905 1.889
34.9208 2.673
34.9511 1.999
34.9814 2.211
35.0116 2.059
35.0419 1.699
35.0722 4.100
35.1025 3.584
35.1328 3.590
35.1630 2.294
35.1933 3.447
35.2236 2.464
35.2539 3.148
35.2842 4.719
35.3144 3.685
35.3447 3.902
35.3750 5.213
35.4053 5.326
35.4356 5.440
35.4658 5.346
35.4961 6.971
35.5264 7.920
35.5567 8.608
35.5869 9.610
35.6172 10.663
35.6475 11.665
35.6778 15.012
35.7081 15.650
35.7383 19.153
35.7686 21.772
35.7989 23.140
35.8292 28.155
35.8595 34.994
35.8897 38.811
35.9200 43.046
35.9503 52.855
35.9806 61.726
36.0108 70.128
36.0411 76.605
36.0714 84.175
36.1017 84.975
36.1320 85.879
36.1622 86.159
36.1925 84.512
36.2228 81.615
36.2531 70.282
36.2834 60.980
36.3136 52.876
36.3439 44.512
36.3742 39.378
36.4045 33.724
36.4347 29.632
36.4650 23.197
36.4953 21.085
36.5256 18.401
36.5559 14.415
36.5861 13.815
36.6164 11.705
36.6467 9.283
36.6770 9.309
36.7073 9.284
36.7375 5.665
36.7678 7.619
36.7981 5.980
36.8284 4.498
36.8586 4.110
36.8889 2.941
36.9192 3.804
36.9495 3.886
36.9798 2.978
37.0100 3.634
37.0403 1.738
37.0706 2.550
37.1009 2.165
37.1312 2.406
37.1614 0.772
37.1917 1.169
37.2220 1.203
37.2523 1.288
37.2825 1.271
37.3128 1.461
37.3431 0.715
37.3734 0.802
37.4037 0.734
37.4339 0.718
37.4642 1.484
37.4945 0.792
37.5248 0.829
37.5551 0.190
37.5853 0.124
37.6156 0.006
37.6459 -0.059
37.6762 0.345
37.7064 0.489
37.7367 -0.617
37.7670 -0.160
37.7973 0.298
37.8276 1.173
37.8578 -0.400
37.8881 -0.410
37.9184 0.042
37.9487 -0.443
37.9790 0.895
38.0092 -0.006
38.0395 0.656
38.0698 -0.296
38.1001 1.148
38.1304 -0.480
38.1606 -0.390
38.1909 0.475
38.2212 0.768
38.2515 -0.033
38.2817 0.364
38.3120 0.241
38.3423 0.275
38.3726 1.194
38.4029 0.447
38.4331 -0.612
38.4634 -0.316
38.4937 0.084
38.5240 0.329
38.5543 0.625
38.5845 0.454
38.6148 -0.550
38.6451 0.320
38.6754 0.515
38.7056 0.189
38.7359 -0.345
38.7662 -0.333
38.7965 0.565
38.8268 1.411
38.8570 0.383
38.8873 -0.385
38.9176 0.359
38.9479 0.582
38.9782 0.545
39.0084 -0.169
39.0387 -0.830
39.0690 0.644
39.0993 0.661
39.1295 0.834
39.1598 0.383
39.1901 0.088
39.2204 0.367
39.2507 -0.031
39.2809 0.405
39.3112 0.216
39.3415 -0.337
39.3718 -0.187
39.4021 0.484
39.4323 0.010
39.4626 0.630
39.4929 -0.573
39.5232 0.517
39.5534 0.826
39.5837 0.302
39.6140 -0.118
39.6443 -0.485
39.6746 0.294
39.7048 0.084
39.7351 -0.751
39.7654 0.082
39.7957 0.342
39.8260 -0.283
39.8562 0.133
39.8865 -0.074
39.9168 0.448
39.9471 0.241
39.9773 0.191
40.0076 0.037
40.0379 -0.325
40.0682 -0.117
40.0985 0.299
40.1287 0.091
40.1590 -0.012
40.1893 0.197
40.2196 0.251
40.2499 -0.216
40.2801 -0.318
40.3104 0.205
40.3407 0.521
40.3710 -0.257
40.4012 0.737
40.4315 0.168
40.4618 -0.088
40.4921 -0.187
40.5224 0.444
40.5526 -0.332
40.5829 -0.117
40.6132 0.202
40.6435 -0.624
40.6738 -0.148
40.7040 -0.245
40.7343 -0.134
40.7646 -0.386
40.7949 0.247
40.8251 0.412
40.8554 -0.256
40.8857 -0.246
40.9160 -0.080
40.9463 -0.643
40.9765 0.202
41.0068 -0.308
41.0371 0.224
41.0674 0.236
41.0977 0.197
41.1279 -0.155
41.1582 -0.246
41.1885 0.496
41.2188 -0.167
41.2491 0.160
41.2793 0.279
41.3096 0.086
41.3399 -0.107
41.3702 -0.299
41.4004 -0.202
41.4307 0.104
41.4610 0.254
41.4913 -0.221
41.5216 0.190
41.5518 0.289
41.5821 -0.184
41.6124 0.593
41.6427 0.172
41.6730 -0.352
41.7032 0.061
41.7335 -0.098
41.7638 0.629
41.7941 0.210
41.8243 0.313
41.8546 0.104
41.8849 -0.626
41.9152 0.467
41.9455 -0.210
41.9757 -0.105
42.0060 0.052
42.0363 -0.416
42.0666 -0.008
42.0969 -0.121
42.1271 0.444
42.1574 0.072
42.1877 0.325
42.2180 -0.255
42.2482 -0.106
42.2785 0.617
42.3088 0.038
42.3391 -0.175
42.3694 -0.076
42.3996 -0.289
42.4299 0.071
42.4602 -0.089
42.4905 -0.092
42.5208 -0.148
42.5510 -0.254
42.5813 -0.152
42.6116 -0.154
42.6419 0.053
42.6721 0.208
42.7024 -0.001
42.7327 0.207
42.7630 -0.157
42.7933 0.051
42.8235 -0.364
42.8538 0.158
42.8841 0.108
42.9144 -0.151
42.9447 -0.096
42.9749 -0.093
43.0052 -0.194
43.0355 0.070
43.0658 -0.186
43.0960 -0.546
43.1263 0.236
43.1566 0.706
43.1869 -0.281
43.2172 -0.019
43.2474 0.296
43.2777 0.091
43.3080 1.084
43.3383 0.410
43.3686 -0.211
43.3988 -0.206
43.4291 0.424
43.4594 -0.144
43.4897 0.331
43.5199 -0.132
43.5502 0.500
43.5805 -0.014
43.6108 -0.163
43.6411 -0.208
43.6713 -0.304
43.7016 -0.155
43.7319 0.203
43.7622 0.197
43.7925 0.139
43.8227 0.186
43.8530 -0.288
43.8833 -0.085
43.9136 0.328
43.9439 -0.301
43.9741 0.164
44.0044 0.109
44.0347 0.211
44.0650 -0.104
44.0952 0.258
44.1255 0.153
44.1558 0.308
44.1861 -0.214
44.2164 -0.162
44.2466 0.203
44.2769 0.203
44.3072 -0.108
44.3375 -0.211
44.3678 0.520
44.3980 0.314
44.4283 0.212
44.4586 0.059
44.4889 0.322
44.5191 0.326
44.5494 -0.503
44.5797 0.283
44.6100 -0.390
44.6403 -0.240
44.6705 0.639
44.7008 0.842
44.7311 0.368
44.7614 -0.002
44.7917 0.567
44.8219 0.719
44.8522 0.455
44.8825 0.451
44.9128 -0.177
44.9430 0.602
44.9733 0.496
45.0036 0.338
45.0339 -0.081
45.0642 0.075
45.0944 -0.134
45.1247 0.647
45.1550 0.178
45.1853 0.179
45.2156 0.128
45.2458 0.182
45.2761 -0.337
45.3064 -0.147
45.3367 0.097
45.3669 0.288
45.3972 0.012
45.4275 -0.108
45.4578 0.449
45.4881 0.226
45.5183 -0.102
45.5486 0.613
45.5789 -0.234
45.6092 -0.039
45.6395 0.208
45.6697 0.300
45.7000 -0.025
45.7303 -0.193
45.7606 0.524
45.7908 0.305
45.8211 0.242
45.8514 0.440
45.8817 -0.299
45.9120 -0.308
45.9422 0.099
45.9725 -0.066
46.0028 0.134
46.0331 0.491
46.0634 0.379
46.0936 0.112
46.1239 -0.468
46.1542 -0.067
46.1845 1.115
46.2147 -0.619
46.2450 0.669
46.2753 -0.335
46.3056 -0.193
46.3359 0.783
46.3661 0.510
46.3964 0.132
46.4267 0.172
46.4570 0.785
46.4873 -0.060
46.5175 0.606
46.5478 0.752
46.5781 0.377
46.6084 1.461
46.6386 0.670
46.6689 0.140
46.6992 0.913
46.7295 0.800
46.7598 0.480
46.7900 1.357
46.8203 0.882
46.8506 1.187
46.8809 1.962
46.9112 1.175
46.9414 1.951
46.9717 2.258
47.0020 3.295
47.0323 2.978
47.0626 4.120
47.0928 5.940
47.1231 5.832
47.1534 7.548
47.1837 8.015
47.2139 9.732
47.2442 11.605
47.2745 13.896
47.3048 14.832
47.3351 15.145
47.3653 18.530
47.3956 18.791
47.4259 18.115
47.4562 17.179
47.4865 17.857
47.5167 15.724
47.5470 15.101
47.5773 12.031
47.6076 9.170
47.6378 8.757
47.6681 8.084
47.6984 7.620
47.7287 4.448
47.7590 4.661
47.7892 4.302
47.8195 3.371
47.8498 3.430
47.8801 3.124
47.9104 1.308
47.9406 0.951
47.9709 1.689
48.0012 0.968
48.0315 0.925
48.0617 1.142
48.0920 0.944
48.1223 0.746
48.1526 1.277
48.1829 0.559
48.2131 -0.055
48.2434 0.477
48.2737 0.490
48.3040 0.242
48.3343 -0.162
48.3645 0.007
48.3948 -0.135
48.4251 0.868
48.4554 0.310
48.4856 -0.248
48.5159 -0.233
48.5462 -0.061
48.5765 0.789
48.6068 -0.393
48.6370 0.822
48.6673 0.162
48.6976 0.336
48.7279 -0.427
48.7582 -0.148
48.7884 -0.129
48.8187 -0.266
48.8490 -0.298
48.8793 0.086
48.9095 0.940
48.9398 -0.237
48.9701 0.461
49.0004 -0.038
49.0307 -0.016
49.0609 0.580
49.0912 -0.126
49.1215 -0.416
49.1518 0.161
49.1821 0.739
49.2123 0.588
49.2426 -0.761
49.2729 -0.235
49.3032 -0.124
49.3334 -0.066
49.3637 -0.267
49.3940 0.001
49.4243 0.113
49.4546 0.485
49.4848 -0.027
49.5151 0.242
49.5454 -0.269
49.5757 -0.416
49.6060 0.310
49.6362 0.307
49.6665 0.200
49.6968 0.511
49.7271 0.613
49.7574 0.403
49.7876 0.090
49.8179 -0.171
49.8482 0.454
49.8785 -0.067
49.9087 0.246
49.9390 0.299
49.9693 0.301
49.9996 0.094
50.0299 -0.060
50.0601 -0.109
50.0904 0.050
50.1207 0.939
50.1510 1.099
50.1813 0.374
50.2115 -0.298
50.2418 0.384
50.2721 0.077
50.3024 0.082
50.3326 0.297
50.3629 0.408
50.3932 0.519
50.4235 0.110
50.4538 0.482
50.4840 0.022
50.5143 0.186
50.5446 0.195
50.5749 0.049
50.6052 0.788
50.6354 0.017
50.6657 -0.389
50.6960 0.025
50.7263 0.439
50.7565 0.334
50.7868 0.437
50.8171 0.123
50.8474 -0.137
50.8777 0.592
50.9079 0.592
50.9382 -0.136
50.9685 0.177
50.9988 -0.238
51.0291 0.129
51.0593 -0.442
51.0896 -0.074
51.1199 0.502
51.1502 -0.172
51.1804 0.093
51.2107 0.305
51.2410 0.102
51.2713 -0.623
51.3016 0.893
51.3318 -0.455
51.3621 -0.136
51.3924 -0.181
51.4227 0.347
51.4530 0.042
51.4832 0.622
51.5135 0.683
51.5438 0.379
51.5741 0.180
51.6043 0.398
51.6346 0.303
51.6649 -0.363
51.6952 -0.272
51.7255 -0.181
51.7557 0.224
51.7860 0.681
51.8163 -0.216
51.8466 -0.019
51.8769 0.127
51.9071 0.220
51.9374 0.054
51.9677 -0.163
51.9980 0.036
52.0282 -0.337
52.0585 0.017
52.0888 -0.149
52.1191 0.259
52.1494 0.041
52.1796 0.762
52.2099 0.337
52.2402 -0.191
52.2705 0.166
52.3008 0.732
52.3310 -0.055
52.3613 0.095
52.3916 -0.171
52.4219 0.032
52.4521 -0.077
52.4824 0.231
52.5127 0.748
52.5430 -0.298
52.5733 0.272
52.6035 0.009
52.6338 0.371
52.6641 0.421
52.6944 0.055
52.7247 -0.467
52.7549 0.261
52.7852 -0.052
52.8155 -0.625
52.8458 0.313
52.8761 -0.363
52.9063 -0.260
52.9366 0.103
52.9669 -0.366
52.9972 0.415
53.0274 -0.470
53.0577 0.208
53.0880 -0.311
53.1183 -0.165
53.1486 1.231
53.1788 -0.080
53.2091 0.380
53.2394 0.267
53.2697 0.780
53.3000 -0.165
53.3302 -0.120
53.3605 -0.283
53.3908 0.440
53.4211 0.277
53.4513 -0.301
53.4816 0.267
53.5119 0.105
53.5422 -0.107
53.5725 -0.059
53.6027 0.406
53.6330 -0.222
53.6633 -0.017
53.6936 0.293
53.7239 0.135
53.7541 1.071
53.7844 -0.232
53.8147 -0.025
53.8450 0.183
53.8752 0.391
53.9055 -0.390
53.9358 -0.349
53.9661 0.681
53.9964 0.149
54.0266 0.451
54.0569 0.284
54.0872 -0.298
54.1175 -0.047
54.1478 -0.317
54.1780 0.035
54.2083 0.284
54.2386 0.064
54.2689 0.157
54.2991 -0.167
54.3294 -0.490
54.3597 0.282
54.3900 0.168
54.4203 -0.154
54.4505 0.150
54.4808 0.193
54.5111 -0.023
54.5414 0.022
54.5717 0.171
54.6019 0.372
54.6322 -0.624
54.6625 -0.329
54.6928 -0.039
54.7230 0.512
54.7533 -0.031
54.7836 -0.208
54.8139 -0.073
54.8442 -0.093
54.8744 0.043
54.9047 0.492
54.9350 -0.308
54.9653 -0.223
54.9956 -0.345
55.0258 -0.571
55.0561 0.507
55.0864 0.908
55.1167 0.579
55.1469 0.200
55.1772 -0.128
55.2075 -0.559
55.2378 1.355
55.2681 0.508
55.2983 0.703
55.3286 0.169
55.3589 0.365
55.3892 -0.428
55.4195 -0.127
55.4497 0.330
55.4800 0.736
55.5103 -0.107
55.5406 0.664
55.5709 0.446
55.6011 0.645
55.6314 0.480
55.6617 1.305
55.6920 0.933
55.7222 2.175
55.7525 1.335
55.7828 1.953
55.8131 1.842
55.8434 1.472
55.8736 1.831
55.9039 2.763
55.9342 3.436
55.9645 3.015
55.9948 3.427
56.0250 3.892
56.0553 5.035
56.0856 6.647
56.1159 6.072
56.1461 9.351
56.1764 7.995
56.2067 10.286
56.2370 10.285
56.2673 12.733
56.2975 12.837
56.3278 16.275
56.3581 19.036
56.3884 19.454
56.4187 23.779
56.4489 23.989
56.4792 22.846
56.5095 20.609
56.5398 20.925
56.5700 19.939
56.6003 17.182
56.6306 17.030
56.6609 15.525
56.6912 12.561
56.7214 10.692
56.7517 11.115
56.7820 9.350
56.8123 6.232
56.8426 7.281
56.8728 6.195
56.9031 4.693
56.9334 5.639
56.9637 4.866
56.9939 3.834
57.0242 3.479
57.0545 2.916
57.0848 2.302
57.1151 2.260
57.1453 1.334
57.1756 2.023
57.2059 0.733
57.2362 1.943
57.2665 1.800
57.2967 0.928
57.3270 0.160
57.3573 0.435
57.3876 0.918
57.4178 0.412
57.4481 0.583
57.4784 1.276
57.5087 0.251
57.5390 0.944
57.5692 0.596
57.5995 0.405
57.6298 0.735
57.6601 0.181
57.6904 -0.009
57.7206 0.374
57.7509 0.029
57.7812 0.309
57.8115 -0.348
57.8417 0.766
57.8720 -0.411
57.9023 -0.494
57.9326 0.449
57.9629 0.090
57.9931 0.148
58.0234 0.103
58.0537 0.734
58.0840 0.586
58.1143 0.541
58.1445 0.497
58.1748 -0.119
58.2051 1.035
58.2354 -0.101
58.2656 0.013
58.2959 0.283
58.3262 0.033
58.3565 0.148
58.3868 0.264
58.4170 0.536
58.4473 -0.077
58.4776 -0.013
58.5079 -0.052
58.5382 -0.039
58.5684 -0.337
58.5987 0.076
58.6290 -0.604
58.6593 0.592
58.6896 -0.295
58.7198 0.276
58.7501 0.327
58.7804 -0.194
58.8107 -0.038
58.8409 -0.038
58.8712 -0.142
58.9015 0.015
58.9318 -0.712
58.9621 0.539
58.9923 0.021
59.0226 0.231
59.0529 0.026
59.0832 -0.127
59.1135 0.294
59.1437 -0.015
59.1740 0.563
59.2043 -0.057
59.2346 -0.312
59.2648 -0.055
59.2951 0.203
59.3254 0.513
59.3557 -0.062
59.3860 0.614
59.4162 0.249
59.4465 -0.117
59.4768 0.404
59.5071 -0.221
59.5374 -0.116
59.5676 0.250
59.5979 0.407
59.6282 0.201
59.6585 0.307
59.6887 0.570
59.7190 -0.052
59.7493 -0.413
59.7796 0.112
59.8099 0.272
59.8401 -0.400
59.8704 0.126
59.9007 -0.494
59.9310 -0.081
59.9613 -0.240
59.9915 -0.087
60.0218 0.536
60.0521 0.690
60.0824 -0.041
60.1126 -0.146
60.1429 -0.251
60.1732 -0.043
60.2035 0.373
60.2338 0.165
60.2640 -0.667
60.2943 0.428
60.3246 -0.039
60.3549 0.067
60.3852 0.173
60.4154 0.228
60.4457 0.856
60.4760 0.235
60.5063 0.031
60.5365 0.087
60.5668 0.248
60.5971 1.139
60.6274 0.050
60.6577 -0.308
60.6879 -0.120
60.7182 0.277
60.7485 0.414
60.7788 0.082
60.8091 0.376
60.8393 0.306
60.8696 -0.025
60.8999 0.270
60.9302 -0.216
60.9604 0.393
60.9907 -0.092
61.0210 -0.264
61.0513 0.397
61.0816 0.643
61.1118 0.263
61.1421 -0.167
61.1724 -0.494
61.2027 0.215
61.2330 0.560
61.2632 0.176
61.2935 0.313
61.3238 0.242
61.3541 -0.818
61.3844 0.153
61.4146 0.240
61.4449 -0.350
61.4752 -0.054
61.5055 0.398
61.5357 -0.086
61.5660 -0.623
61.5963 0.247
61.6266 -0.184
61.6569 1.781
61.6871 -0.212
61.7174 0.764
61.7477 -0.187
61.7780 0.061
61.8083 0.101
61.8385 -0.015
61.8688 0.233
61.8991 0.691
61.9294 0.264
61.9596 0.722
61.9899 1.545
62.0202 0.286
62.0505 0.121
62.0808 1.258
62.1110 0.885
62.1413 1.971
62.1716 2.015
62.2019 1.643
62.2322 3.147
62.2624 3.297
62.2927 3.551
62.3230 3.702
62.3533 4.218
62.3835 5.255
62.4138 4.834
62.4441 7.070
62.4744 8.212
62.5047 8.521
62.5349 10.550
62.5652 13.308
62.5955 13.566
62.6258 16.534
62.6561 17.939
62.6863 20.021
62.7166 20.229
62.7469 21.688
62.7772 18.459
62.8074 19.137
62.8377 17.159
62.8680 16.067
62.8983 16.277
62.9286 14.613
62.9588 11.699
62.9891 12.119
63.0194 9.988
63.0497 7.231
63.0800 6.038
63.1102 5.939
63.1405 4.902
63.1708 3.814
63.2011 4.549
63.2313 2.837
63.2616 2.479
63.2919 1.653
63.3222 2.182
63.3525 2.294
63.3827 1.365
63.4130 1.843
63.4433 0.810
63.4736 1.289
63.5039 0.153
63.5341 1.049
63.5644 0.852
63.5947 0.967
63.6250 -0.271
63.6552 -0.311
63.6855 0.535
63.7158 0.339
63.7461 0.561
63.7764 0.158
63.8066 0.484
63.8369 0.655
63.8672 -0.059
63.8975 0.008
63.9278 -0.080
63.9580 -0.377
63.9883 0.473
64.0186 0.230
64.0489 0.143
64.0791 0.161
64.1094 -0.603
64.1397 0.405
64.1700 0.528
64.2003 -0.077
64.2305 -0.266
64.2608 -0.246
64.2911 -0.329
64.3214 -0.230
64.3517 -0.079
64.3819 0.438
64.4122 0.017
64.4425 0.118
64.4728 -0.198
64.5031 0.216
64.5333 -0.203
64.5636 0.420
64.5939 -0.311
64.6242 0.053
64.6544 0.052
64.6847 0.416
64.7150 0.052
64.7453 0.208
64.7756 -0.416
64.8058 -0.164
64.8361 0.192
64.8664 -0.701
64.8967 0.177
64.9270 0.066
64.9572 0.267
64.9875 -0.468
65.0178 -0.057
65.0481 -0.219
65.0783 -0.276
65.1086 0.188
65.1389 -0.338
65.1692 -0.200
65.1995 -0.114
65.2297 -0.184
65.2600 -0.149
65.2903 0.042
65.3206 -0.183
65.3509 -0.303
65.3811 -0.423
65.4114 0.499
65.4417 -0.193
65.4720 -0.364
65.5022 0.244
65.5325 -0.399
65.5628 0.105
65.5931 0.401
65.6234 0.177
65.6536 0.109
65.6839 0.094
65.7142 -0.390
65.7445 -0.046
65.7748 0.089
65.8050 -0.348
65.8353 0.310
65.8656 1.071
65.8959 1.104
65.9261 0.304
65.9564 0.911
65.9867 0.581
66.0170 0.563
66.0473 0.442
66.0775 1.363
66.1078 0.930
66.1381 1.122
66.1684 1.471
66.1987 1.612
66.2289 1.025
66.2592 1.375
66.2895 1.413
66.3198 1.452
66.3500 2.324
66.3803 1.061
66.4106 1.934
66.4409 1.870
66.4712 0.869
66.5014 0.389
66.5317 0.691
66.5620 1.254
66.5923 0.827
66.6226 0.349
66.6528 0.184
66.6831 0.175
66.7134 -0.667
66.7437 0.680
66.7739 -0.109
66.8042 0.925
66.8345 -0.019
66.8648 -0.494
66.8951 0.070
66.9253 -0.408
66.9556 0.521
66.9859 0.044
67.0162 0.036
67.0465 -0.231
67.0767 -0.082
67.1070 1.057
67.1373 0.687
67.1676 0.525
67.1978 0.676
67.2281 0.723
67.2584 0.718
67.2887 2.277
67.3190 1.804
67.3492 2.530
67.3795 2.579
67.4098 2.160
67.4401 3.408
67.4704 4.187
67.5006 5.019
67.5309 4.550
67.5612 5.903
67.5915 6.320
67.6218 8.247
67.6520 9.133
67.6823 9.655
67.7126 10.542
67.7429 13.200
67.7731 12.682
67.8034 12.112
67.8337 14.042
67.8640 11.910
67.8943 11.810
67.9245 11.501
67.9548 10.621
67.9851 9.011
68.0154 11.308
68.0457 8.866
68.0759 7.206
68.1062 7.317
68.1365 6.022
68.1668 6.134
68.1970 4.839
68.2273 4.327
68.2576 3.606
68.2879 3.095
68.3182 2.844
68.3484 3.687
68.3787 2.916
68.4090 2.666
68.4393 2.469
68.4696 2.324
68.4998 2.128
68.5301 2.713
68.5604 2.934
68.5907 2.583
68.6209 2.232
68.6512 3.912
68.6815 3.770
68.7118 4.931
68.7421 4.425
68.7723 4.232
68.8026 4.196
68.8329 4.889
68.8632 5.791
68.8935 5.965
68.9237 6.555
68.9540 5.948
68.9843 5.862
69.0146 6.298
69.0448 5.796
69.0751 5.659
69.1054 4.637
69.1357 4.866
69.1660 3.845
69.1962 2.668
69.2265 2.325
69.2568 2.712
69.2871 2.630
69.3174 1.715
69.3476 2.780
69.3779 1.241
69.4082 1.056
69.4385 0.977
69.4687 1.158
69.4990 1.287
69.5293 1.104
69.5596 0.870
69.5899 1.000
69.6201 0.558
69.6504 0.898
69.6807 0.300
69.7110 0.172
69.7413 0.356
69.7715 -0.032
69.8018 -0.107
69.8321 -0.702
69.8624 0.139
69.8926 0.459
69.9229 0.624
69.9532 -0.461
69.9835 -0.400
70.0138 0.652
70.0440 -0.224
70.0743 0.151
70.1046 0.110
70.1349 0.382
70.1652 0.133
70.1954 0.041
70.2257 -0.364
70.2560 0.010
70.2863 -0.815
70.3166 0.080
70.3468 -0.170
70.3771 0.256
70.4074 0.840
70.4377 -0.295
70.4679 0.185
70.4982 -0.116
70.5285 -0.051
70.5588 0.170
70.5891 -0.130
70.6193 0.404
70.6496 -0.311
70.6799 0.172
70.7102 0.343
70.7405 -0.528
70.7707 -0.252
70.8010 -0.080
70.8313 -0.011
70.8616 0.005
70.8918 -0.499
70.9221 0.352
70.9524 0.162
70.9827 -0.133
71.0130 0.094
71.0432 0.165
71.0735 -0.388
71.1038 0.465
71.1341 -0.192
71.1644 0.089
71.1946 0.110
71.2249 -0.441
71.2552 -0.068
71.2855 0.307
71.3157 0.160
71.3460 0.015
71.3763 -0.079
71.4066 0.089
71.4369 0.153
71.4671 0.373
71.4974 -0.188
71.5277 0.086
71.5580 -0.266
71.5883 -0.381
71.6185 0.753
71.6488 0.325
71.6791 0.679
71.7094 -0.476
71.7396 0.139
71.7699 0.494
71.8002 0.016
71.8305 0.060
71.8608 0.000
71.8910 -0.216
71.9213 0.453
71.9516 0.030
71.9819 0.648
72.0122 0.226
72.0424 0.272
72.0727 0.214
72.1030 0.314
72.1333 -0.055
72.1635 0.305
72.1938 0.145
72.2241 0.819
72.2544 0.347
72.2847 0.866
72.3149 0.447
72.3452 1.226
72.3755 0.496
72.4058 1.484
72.4361 1.224
72.4663 1.953
72.4966 0.911
72.5269 0.860
72.5572 0.913
72.5874 0.550
72.6177 1.437
72.6480 0.867
72.6783 0.713
72.7086 0.664
72.7388 0.095
72.7691 0.515
72.7994 0.571
72.8297 -0.153
72.8600 0.165
72.8902 0.378
72.9205 0.593
72.9508 -0.182
72.9811 -0.019
73.0113 -0.064
73.0416 -0.213
73.0719 0.472
73.1022 -0.093
73.1325 0.020
73.1627 0.550
73.1930 0.403
73.2233 -0.108
73.2536 0.059
73.2839 -0.295
73.3141 0.081
73.3444 0.092
73.3747 -0.104
73.4050 0.637
73.4353 0.389
73.4655 0.403
73.4958 -0.157
73.5261 0.690
73.5564 -0.337
73.5866 0.094
73.6169 -0.255
73.6472 -0.149
73.6775 0.739
73.7078 0.637
73.7380 0.224
73.7683 0.487
73.7986 0.023
73.8289 0.235
73.8592 0.240
73.8894 0.193
73.9197 0.250
73.9500 0.725
73.9803 -0.050
74.0105 0.530
74.0408 -0.244
74.0711 0.232
74.1014 0.135
74.1317 0.508
74.1619 -0.160
74.1922 0.682
74.2225 0.275
74.2528 0.233
74.2831 0.504
74.3133 -0.059
74.3436 0.369
74.3739 -0.192
74.4042 0.393
74.4344 0.405
74.4647 0.678
74.4950 0.170
74.5253 -0.233
74.5556 -0.196
74.5858 0.987
74.6161 0.765
74.6464 0.282
74.6767 0.634
74.7070 0.360
74.7372 0.348
74.7675 0.387
74.7978 0.167
74.8281 0.312
74.8583 -0.220
74.8886 0.343
74.9189 0.072
74.9492 0.218
74.9795 -0.312
75.0097 0.200
75.0400 0.556
75.0703 -0.077
75.1006 0.488
75.1309 0.324
75.1611 0.005
75.1914 -0.158
75.2217 0.461
75.2520 -0.326
75.2822 0.345
75.3125 -0.128
75.3428 0.023
75.3731 0.332
75.4034 0.276
75.4336 -0.092
75.4639 -0.043
75.4942 -0.202
75.5245 0.421
75.5548 -0.362
75.5850 0.053
75.6153 -0.260
75.6456 -0.171
75.6759 0.022
75.7061 -0.148
75.7364 -0.162
75.7667 -0.228
75.7970 0.124
75.8273 0.059
75.8575 -0.422
75.8878 0.243
75.9181 -0.289
75.9484 0.168
75.9787 -0.468
76.0089 -0.113
76.0392 -0.122
76.0695 0.650
76.0998 0.381
76.1301 -0.043
76.1603 0.574
76.1906 -0.006
76.2209 0.351
76.2512 0.189
76.2814 0.235
76.3117 0.385
76.3420 -0.297
76.3723 0.635
76.4026 0.839
76.4328 0.106
76.4631 0.363
76.4934 -0.162
76.5237 0.200
76.5540 0.041
76.5842 0.300
76.6145 0.923
76.6448 0.661
76.6751 1.806
76.7053 1.129
76.7356 1.858
76.7659 1.129
76.7962 2.067
76.8265 1.599
76.8567 1.913
76.8870 1.447
76.9173 0.824
76.9476 1.764
76.9779 1.403
77.0081 1.875
77.0384 1.150
77.0687 0.529
77.0990 1.263
77.1292 0.539
77.1595 0.961
77.1898 0.394
77.2201 0.869
77.2504 0.876
77.2806 1.299
77.3109 0.317
77.3412 0.221
77.3715 0.386
77.4018 0.134
77.4320 -0.170
77.4623 -0.160
77.4926 -0.306
77.5229 0.381
77.5531 0.131
77.5834 -0.014
77.6137 -0.159
77.6440 0.478
77.6743 0.178
77.7045 0.035
77.7348 0.048
77.7651 -0.095
77.7954 -0.185
77.8257 -0.171
77.8559 -0.260
77.8862 -0.143
77.9165 0.340
77.9468 -0.374
77.9770 -0.255
78.0073 0.221
78.0376 0.541
78.0679 0.081
78.0982 0.193
78.1284 0.254
78.1587 0.628
78.1890 -0.143
78.2193 -0.237
78.2496 0.294
78.2798 0.409
78.3101 0.056
78.3404 0.224
78.3707 0.132
78.4009 0.041
78.4312 -0.624
78.4615 -0.004
78.4918 0.460
78.5221 0.195
78.5523 -0.122
78.5826 0.187
78.6129 0.288
78.6432 0.285
78.6735 0.335
78.7037 0.385
78.7340 0.018
78.7643 -0.191
78.7946 -0.244
78.8248 -0.401
78.8551 0.380
78.8854 0.433
78.9157 0.173
78.9460 0.123
78.9762 0.645
79.0065 0.126
79.0368 0.181
79.0671 -0.285
79.0974 -0.129
79.1276 0.392
79.1579 0.028
79.1882 0.185
79.2185 -0.022
79.2488 0.553
79.2790 -0.383
79.3093 0.141
79.3396 0.300
79.3699 0.720
79.4001 0.463
79.4304 -0.158
79.4607 0.159
79.4910 0.477
79.5213 0.274
79.5515 0.019
79.5818 0.338
79.6121 0.553
79.6424 -0.117
79.6727 0.307
79.7029 -0.102
79.7332 0.010
79.7635 0.071
79.7938 0.132
79.8240 0.089
79.8543 -0.057
79.8846 0.213
79.9149 0.067
79.9452 0.130
79.9754 0.246
80.0057 0.466
80.0360 0.426
80.0663 0.230
80.0966 0.400
80.1268 0.517
80.1571 0.114
80.1874 0.545
80.2177 0.143
80.2479 -0.259
80.2782 -0.120
80.3085 0.853
80.3388 0.264
80.3691 0.248
80.3993 0.493
80.4296 0.686
80.4599 0.202
80.4902 0.448
80.5205 0.174
80.5507 0.316
80.5810 -0.218
80.6113 -0.022
80.6416 -0.087
80.6718 0.214
80.7021 0.202
80.7324 0.347
80.7627 -0.132
80.7930 0.222
80.8232 0.368
80.8535 0.671
80.8838 -0.067
80.9141 0.810
80.9444 0.645
80.9746 0.585
81.0049 0.629
81.0352 0.153
81.0655 0.199
81.0957 0.765
81.1260 1.020
81.1563 1.014
81.1866 1.269
81.2169 0.744
81.2471 0.687
81.2774 0.423
81.3077 0.940
81.3380 0.833
81.3683 1.142
81.3985 0.828
81.4288 0.409
81.4591 1.084
81.4894 0.042
81.5196 0.093
81.5499 0.197
81.5802 0.093
81.6105 0.510
81.6408 0.667
81.6710 -0.061
81.7013 0.513
81.7316 0.776
81.7619 0.205
81.7922 0.364
81.8224 0.524
81.8527 -0.098
81.8830 -0.250
81.9133 0.120
81.9436 -0.292
81.9738 0.443
82.0041 0.085
82.0344 0.247
82.0647 0.254
82.0949 0.314
82.1252 0.217
82.1555 0.069
82.1858 0.182
82.2161 -0.434
82.2463 0.252
82.2766 0.678
82.3069 -0.041
82.3372 -0.239
82.3675 0.020
82.3977 0.226
82.4280 0.485
82.4583 -0.401
82.4886 0.015
82.5188 0.015
82.5491 1.109
82.5794 -0.193
82.6097 0.225
82.6400 -0.034
82.6702 0.176
82.7005 0.178
82.7308 0.024
82.7611 -0.389
82.7914 0.023
82.8216 0.175
82.8519 -0.089
82.8822 0.220
82.9125 0.322
82.9427 -0.202
82.9730 0.109
83.0033 0.107
83.0336 0.470
83.0639 -0.260
83.0941 0.052
83.1244 -0.156
83.1547 0.157
83.1850 -0.259
83.2153 -0.106
83.2455 0.360
83.2758 0.357
83.3061 0.303
83.3364 0.770
83.3666 -0.377
83.3969 0.299
83.4272 -0.534
83.4575 0.299
83.4878 0.455
83.5180 -0.221
83.5483 0.353
83.5786 0.146
83.6089 -0.060
83.6392 -0.110
83.6694 0.153
83.6997 0.417
83.7300 0.525
83.7603 0.112
83.7905 0.116
83.8208 -0.139
83.8511 -0.134
83.8814 -0.337
83.9117 0.188
83.9419 0.036
83.9722 0.146
84.0025 -0.057
84.0328 -0.155
84.0631 0.216
84.0933 -0.038
84.1236 0.073
84.1539 -0.076
84.1842 0.349
84.2144 0.201
84.2447 -0.311
84.2750 -0.162
84.3053 0.457
84.3356 0.295
84.3658 -0.075
84.3961 0.805
84.4264 0.383
84.4567 0.275
84.4870 -0.198
84.5172 0.267
84.5475 0.056
84.5778 0.209
84.6081 0.415
84.6383 0.257
84.6686 0.360
84.6989 0.306
84.7292 0.045
84.7595 -0.216
84.7897 0.357
84.8200 0.253
84.8503 -0.267
84.8806 0.099
84.9109 -0.160
84.9411 -0.053
84.9714 0.366
85.0017 0.004
85.0320 -0.045
85.0623 0.480
85.0925 0.015
85.1228 -0.137
85.1531 0.284
85.1834 0.550
85.2136 0.504
85.2439 0.301
85.2742 0.152
85.3045 0.106
85.3348 0.218
85.3650 -0.087
85.3953 0.025
85.4256 -0.227
85.4559 -0.032
85.4862 -0.254
85.5164 0.150
85.5467 0.398
85.5770 0.282
85.6073 -0.407
85.6375 -0.158
85.6678 0.352
85.6981 0.237
85.7284 0.383
85.7587 0.113
85.7889 -0.208
85.8192 0.460
85.8495 -0.122
85.8798 -0.025
85.9101 0.175
85.9403 0.220
85.9706 0.005
86.0009 -0.106
86.0312 0.044
86.0614 -0.117
86.0917 0.034
86.1220 0.549
86.1523 0.233
86.1826 -0.136
86.2128 0.173
86.2431 0.065
86.2734 0.167
86.3037 0.008
86.3340 0.266
86.3642 0.213
86.3945 0.003
86.4248 -0.310
86.4551 0.210
86.4853 0.262
86.5156 0.106
86.5459 0.628
86.5762 -0.569
86.6065 -0.151
86.6367 -0.045
86.6670 -0.042
86.6973 0.169
86.7276 0.484
86.7579 -0.085
86.7881 0.075
86.8184 -0.441
86.8487 -0.029
86.8790 -0.032
86.9092 0.225
86.9395 0.014
86.9698 0.011
87.0001 0.374
87.0304 0.424
87.0606 0.423
87.0909 -0.099
87.1212 -0.099
87.1515 0.213
87.1818 0.161
87.2120 -0.202
87.2423 0.372
87.2726 -0.095
87.3029 -0.250
87.3331 -0.051
87.3634 0.304
87.3937 0.191
87.4240 0.547
87.4543 -0.450
87.4845 0.167
87.5148 0.004
87.5451 0.257
87.5754 -0.426
87.6057 -0.172
87.6359 0.135
87.6662 -0.079
87.6965 0.125
87.7268 0.016
87.7571 0.116
87.7873 0.217
87.8176 0.162
87.8479 0.107
87.8782 -0.260
87.9084 -0.062
87.9387 -0.072
87.9690 -0.341
87.9993 0.327
88.0296 0.058
88.0598 0.154
88.0901 -0.270
88.1204 0.400
88.1507 0.029
88.1810 -0.082
88.2112 0.277
88.2415 0.063
88.2718 -0.463
88.3021 0.053
88.3323 -0.160
88.3626 -0.372
88.3929 0.666
88.4232 -0.118
88.4535 0.035
88.4837 0.866
88.5140 -0.282
88.5443 0.915
88.5746 0.080
88.6049 -0.494
88.6351 -0.040
88.6654 -0.002
88.6957 0.400
88.7260 0.334
88.7562 0.269
88.7865 0.412
88.8168 -0.069
88.8471 0.127
88.8774 0.271
88.9076 0.312
88.9379 1.082
88.9682 0.603
88.9985 0.749
89.0288 1.156
89.0590 0.782
89.0893 0.721
89.1196 1.754
89.1499 1.798
89.1801 0.852
89.2104 1.418
89.2407 1.828
89.2710 2.550
89.3013 2.179
89.3315 1.132
89.3618 3.054
89.3921 2.476
89.4224 2.107
89.4527 3.040
89.4829 3.036
89.5132 3.189
89.5435 3.238
89.5738 3.235
89.6040 1.619
89.6343 1.409
89.6646 2.136
89.6949 2.552
89.7252 2.291
89.7554 1.978
89.7857 1.614
89.8160 1.615
89.8463 1.928
89.8766 1.148
89.9068 2.035
89.9371 0.840
89.9674 1.415
89.9977 0.168
90.0279 0.484
90.0582 0.748
90.0885 0.805
90.1188 0.601
90.1491 0.450
90.1793 0.820
90.2096 0.096
90.2399 0.624
90.2702 0.318
90.3005 -0.248
90.3307 0.124
90.3610 -0.181
90.3913 -0.173
90.4216 -0.112
90.4518 -0.624
90.4821 0.165
90.5124 0.069
90.5427 -0.183
90.5730 0.086
90.6032 -0.322
90.6335 0.104
90.6638 -0.458
90.6941 0.333
90.7244 -0.177
90.7546 0.251
90.7849 0.002
90.8152 0.066
90.8455 0.443
90.8758 0.612
90.9060 0.000
90.9363 -0.039
90.9666 -0.077
90.9969 -0.271
91.0271 -0.158
91.0574 0.320
91.0877 -0.088
91.1180 0.443
91.1483 0.088
91.1785 -0.526
91.2088 0.110
91.2391 -0.191
91.2694 0.081
91.2997 -0.220
91.3299 0.157
91.3602 0.170
91.3905 -0.598
91.4208 -0.128
91.4510 0.081
91.4813 -0.022
91.5116 0.241
91.5419 -0.069
91.5722 -0.067
91.6024 -0.272
91.6327 0.200
91.6630 0.152
91.6933 -0.260
91.7236 0.473
91.7538 0.270
91.7841 0.067
91.8144 0.125
91.8447 -0.389
91.8749 -0.091
91.9052 0.259
91.9355 0.141
91.9658 0.284
91.9961 0.167
92.0263 0.415
92.0566 0.611
92.0869 0.339
92.1172 0.119
92.1475 0.368
92.1777 0.306
92.2080 0.243
92.2383 0.025
92.2686 0.849
92.2988 0.684
92.3291 0.311
92.3594 0.407
92.3897 0.191
92.4200 0.496
92.4502 0.489
92.4805 0.587
92.5108 0.945
92.5411 1.408
92.5714 1.351
92.6016 0.304
92.6319 1.341
92.6622 0.868
92.6925 0.760
92.7227 0.965
92.7530 0.285
92.7833 0.543
92.8136 0.489
92.8439 0.904
92.8741 0.850
92.9044 0.901
92.9347 0.172
92.9650 0.796
92.9953 0.380
93.0255 0.433
93.0558 0.590
93.0861 0.279
93.1164 1.062
93.1466 -0.029
93.1769 0.494
93.2072 0.080
93.2375 0.292
93.2678 0.140
93.2980 0.040
93.3283 0.409
93.3586 -0.159
93.3889 0.003
93.4192 -0.147
93.4494 0.640
93.4797 -0.083
93.5100 0.550
93.5403 0.765
93.5706 0.513
93.6008 0.417
93.6311 0.478
93.6614 0.174
93.6917 -0.337
93.7219 -0.134
93.7522 0.069
93.7825 0.013
93.8128 0.060
93.8431 -0.360
93.8733 0.418
93.9036 0.311
93.9339 0.048
93.9642 -0.006
93.9945 0.669
94.0247 0.199
94.0550 -0.271
94.0853 -0.493
94.1156 0.483
94.1458 -0.103
94.1761 -0.272
94.2064 0.601
94.2367 -0.193
94.2670 0.473
94.2972 -0.268
94.3275 -0.122
94.3578 0.024
94.3881 0.951
94.4184 0.368
94.4486 0.047
94.4789 0.611
94.5092 0.394
94.5395 0.594
94.5697 0.378
94.6000 0.267
94.6303 0.625
94.6606 0.826
94.6909 0.456
94.7211 1.127
94.7514 1.382
94.7817 1.065
94.8120 1.009
94.8423 0.692
94.8725 0.636
94.9028 1.258
94.9331 1.047
94.9634 1.722
94.9936 2.084
95.0239 1.562
95.0542 2.915
95.0845 2.862
95.1148 2.497
95.1450 2.757
95.1753 2.289
95.2056 2.706
95.2359 2.395
95.2662 1.771
95.2964 3.075
95.3267 2.557
95.3570 2.299
95.3873 1.782
95.4175 3.296
95.4478 2.831
95.4781 2.783
95.5084 2.319
95.5387 1.178
95.5689 1.444
95.5992 1.398
95.6295 1.978
95.6598 1.359
95.6901 1.366
95.7203 1.791
95.7506 1.382
95.7809 0.505
95.8112 0.878
95.8414 0.419
95.8717 0.897
95.9020 0.647
95.9323 0.917
95.9626 0.512
95.9928 0.262
96.0231 -0.195
96.0534 0.286
96.0837 0.090
96.1140 0.259
96.1442 0.012
96.1745 0.234
96.2048 0.039
96.2351 0.210
96.2653 -0.192
96.2956 0.136
96.3259 0.464
96.3562 0.115
96.3865 -0.441
96.4167 -0.085
96.4470 0.637
96.4773 0.162
96.5076 0.520
96.5379 0.305
96.5681 -0.065
96.5984 -0.175
96.6287 0.498
96.6590 -0.288
96.6893 -0.240
96.7195 0.017
96.7498 0.117
96.7801 0.114
96.8104 -0.305
96.8406 0.110
96.8709 -0.204
96.9012 0.263
96.9315 0.054
96.9618 -0.363
96.9920 -0.002
97.0223 0.620
97.0526 -0.111
97.0829 -0.113
97.1132 -0.271
97.1434 0.087
97.1737 -0.023
97.2040 0.023
97.2343 0.017
97.2645 0.272
97.2948 -0.149
97.3251 -0.154
97.3554 -0.210
97.3857 -0.005
97.4159 0.044
97.4462 -0.584
97.4765 0.039
97.5068 -0.276
97.5371 -0.121
97.5673 0.138
97.5976 0.241
97.6279 -0.125
97.6582 0.552
97.6884 -0.281
97.7187 0.031
97.7490 -0.176
97.7793 -0.071
97.8096 0.035
97.8398 0.454
97.8701 0.508
97.9004 0.147
97.9307 0.775
97.9610 -0.524
97.9912 -0.468
98.0215 0.568
98.0518 0.614
98.0821 1.026
98.1123 1.073
98.1426 1.016
98.1729 0.751
98.2032 0.904
98.2335 0.640
98.2637 0.793
98.2940 1.155
98.3243 1.622
98.3546 1.151
98.3849 0.889
98.4151 1.618
98.4454 1.148
98.4757 2.086
98.5060 1.617
98.5362 1.409
98.5665 2.452
98.5968 1.360
98.6271 1.257
98.6574 0.791
98.6876 1.366
98.7179 1.369
98.7482 1.217
98.7785 0.283
98.8088 0.704
98.8390 1.385
98.8693 0.349
98.8996 1.500
98.9299 0.881
98.9601 0.366
98.9904 0.998
99.0207 1.005
99.0510 0.752
99.0813 -0.022
99.1115 0.716
99.1418 0.152
99.1721 0.213
99.2024 0.639
99.2327 0.596
99.2629 0.190
99.2932 0.930
99.3235 0.576
99.3538 0.015
99.3841 0.235
99.4143 0.768
99.4446 -0.105
99.4749 0.012
99.5052 0.286
99.5354 0.404
99.5657 0.366
99.5960 -0.192
99.6263 0.240
99.6566 -0.057
99.6868 -0.250
99.7171 -0.151
99.7474 1.041
99.7777 0.099
99.8080 0.354
99.8382 0.142
99.8685 -0.018
99.8988 0.082
99.9291 -0.285
99.9593 0.181
99.9896 0.543
100.0199 0.177
100.0502 -0.189
100.0805 0.487
100.1107 -0.034
100.1410 -0.191
100.1713 -0.034
100.2016 -0.138
100.2319 0.019
100.2621 0.281
100.2924 0.179
100.3227 0.493
100.3530 0.079
100.3832 0.395
100.4135 -0.227
100.4438 0.142
100.4741 0.354
100.5044 0.255
100.5346 0.103
100.5649 0.421
100.5952 0.010
100.6255 0.433
100.6558 0.700
100.6860 0.186
100.7163 0.090
100.7466 -0.059
100.7769 -0.363
100.8071 0.094
100.8374 -0.125
100.8677 0.438
100.8980 -0.562
100.9283 0.366
100.9585 0.149
100.9888 0.557
101.0191 0.705
101.0494 -0.345
101.0797 -0.196
101.1099 -0.255
101.1402 0.150
101.1705 -0.121
101.2008 -0.027
101.2310 -0.245
101.2613 -0.202
101.2916 0.413
101.3219 0.144
101.3522 0.344
101.3824 0.128
101.4127 0.121
101.4430 -0.251
101.4733 -0.206
101.5036 0.101
101.5338 -0.010
101.5641 -0.223
101.5944 0.136
101.6247 -0.285
101.6549 -0.087
101.6852 0.111
101.7155 -0.002
101.7458 -0.428
101.7761 0.397
101.8063 0.180
101.8366 -0.140
101.8669 -0.200
101.8972 -0.468
101.9275 0.251
101.9577 0.866
101.9880 0.544
102.0183 0.639
102.0486 -0.411
102.0788 -0.472
102.1091 0.666
102.1394 0.085
102.1697 0.078
102.2000 0.228
102.2302 0.169
102.2605 0.059
102.2908 -0.363
102.3211 -0.017
102.3514 0.121
102.3816 -0.105
102.4119 0.033
102.4422 0.016
102.4725 0.417
102.5028 0.504
102.5330 0.697
102.5633 0.473
102.5936 0.667
102.6239 0.913
102.6541 0.794
102.6844 0.885
102.7147 0.559
102.7450 0.025
102.7753 0.012
102.8055 0.156
102.8358 0.874
102.8661 0.706
102.8964 -0.242
102.9267 0.737
102.9569 0.779
102.9872 0.040
103.0175 0.655
103.0478 -0.083
103.0780 0.481
103.1083 0.994
103.1386 0.101
103.1689 0.250
103.1992 0.347
103.2294 -0.128
103.2597 0.751
103.2900 0.224
103.3203 0.427
103.3506 0.943
103.3808 0.574
103.4111 0.466
103.4414 -0.319
103.4717 -0.062
103.5019 0.560
103.5322 0.192
103.5625 0.555
103.5928 0.397
103.6231 0.604
103.6533 1.332
103.6836 0.238
103.7139 1.019
103.7442 0.186
103.7745 0.707
103.8047 1.542
103.8350 1.491
103.8653 1.284
103.8956 1.495
103.9258 1.393
103.9561 2.490
103.9864 2.077
104.0167 1.508
104.0470 1.564
104.0772 1.361
104.1075 2.511
104.1378 2.100
104.1681 1.741
104.1984 1.435
104.2286 1.546
104.2589 1.866
104.2892 1.144
104.3195 0.943
104.3497 0.587
104.3800 0.908
104.4103 1.646
104.4406 0.249
104.4709 0.780
104.5011 0.790
104.5314 -0.084
104.5617 0.395
104.5920 0.459
104.6223 0.783
104.6525 0.118
104.6828 -0.233
104.7131 0.561
104.7434 -0.051
104.7736 -0.141
104.8039 -0.127
104.8342 -0.060
104.8645 0.215
104.8948 0.075
104.9250 -0.170
104.9553 0.055
104.9856 0.332
105.0159 0.036
105.0462 0.679
105.0764 0.436
105.1067 0.663
105.1370 -0.048
105.1673 -0.029
105.1975 -0.061
105.2278 0.636
105.2581 -0.334
105.2884 0.260
105.3187 -0.084
105.3489 -0.271
105.3792 -0.267
105.4095 0.519
105.4398 0.003
105.4701 -0.148
105.5003 0.170
105.5306 0.176
105.5609 -0.131
105.5912 0.345
105.6215 -0.429
105.6517 -0.109
105.6820 0.263
105.7123 -0.301
105.7426 -0.188
105.7728 0.081
105.8031 -0.014
105.8334 0.153
105.8637 -0.202
105.8940 0.382
105.9242 -0.284
105.9545 0.561
105.9848 -0.052
106.0151 0.533
106.0454 -0.079
106.0756 0.559
106.1059 0.000
106.1362 0.691
106.1665 0.549
106.1967 -0.114
106.2270 0.474
106.2573 0.646
106.2876 0.141
106.3179 -0.311
106.3481 -0.119
106.3784 0.387
106.4087 0.632
106.4390 -0.007
106.4693 0.343
106.4995 0.017
106.5298 0.524
106.5601 -0.010
106.5904 0.082
106.6206 0.538
106.6509 0.214
106.6812 -0.058
106.7115 0.139
106.7418 0.441
106.7720 0.118
106.8023 0.056
106.8326 -0.109
106.8629 0.246
106.8932 0.394
106.9234 0.386
106.9537 0.065
106.9840 -0.098
107.0143 0.155
107.0445 -0.060
107.0748 -0.222
107.1051 0.605
107.1354 0.183
107.1657 0.438
107.1959 0.069
107.2262 0.169
107.2565 0.113
107.2868 0.370
107.3171 0.419
107.3473 1.198
107.3776 0.466
107.4079 -0.577
107.4382 0.307
107.4684 0.045
107.4987 0.409
107.5290 0.357
107.5593 0.409
107.5896 -0.319
107.6198 0.515
107.6501 0.621
107.6804 0.206
107.7107 -0.261
107.7410 0.054
107.7712 -0.255
107.8015 0.373
107.8318 -0.144
107.8621 0.746
107.8923 -0.031
107.9226 0.026
107.9529 -0.125
107.9832 0.350
108.0135 -0.321
108.0437 0.362
108.0740 0.109
108.1043 -0.092
108.1346 0.020
108.1649 -0.180
108.1951 0.037
108.2254 -0.058
108.2557 0.107
108.2860 0.065
108.3163 -0.081
108.3465 0.398
108.3768 0.357
108.4071 0.316
108.4374 0.120
108.4676 -0.285
108.4979 0.040
108.5282 -0.311
108.5585 -0.008
108.5888 0.140
108.6190 -0.025
108.6493 -0.085
108.6796 -0.040
108.7099 0.109
108.7402 0.050
108.7704 0.617
108.8007 -0.118
108.8310 -0.228
108.8613 0.028
108.8915 0.388
108.9218 -0.190
108.9521 0.119
108.9824 -0.301
109.0127 0.373
109.0429 -0.099
109.0732 0.212
109.1035 0.054
109.1338 -0.260
109.1641 -0.069
109.1943 0.592
109.2246 -0.153
109.2549 0.249
109.2852 0.286
109.3154 0.271
109.3457 0.257
109.3760 -0.330
109.4063 0.282
109.4366 0.165
109.4668 0.152
109.4971 -0.485
109.5274 0.753
109.5577 0.377
109.5880 0.210
109.6182 -0.217
109.6485 0.137
109.6788 0.388
109.7091 0.378
109.7393 -0.308
109.7696 0.152
109.7999 0.196
109.8302 0.709
109.8605 0.285
109.8907 0.330
109.9210 0.272
109.9513 0.265
109.9816 0.051
110.0119 1.035
110.0421 0.666
110.0724 0.453
110.1027 0.345
110.1330 0.549
110.1632 0.233
110.1935 0.751
110.2238 0.853
110.2541 0.903
110.2844 0.172
110.3146 0.639
110.3449 0.378
110.3752 0.273
110.4055 0.794
110.4358 0.638
110.4660 -0.195
110.4963 0.223
110.5266 0.536
110.5569 0.330
110.5871 0.332
110.6174 0.439
110.6477 0.754
110.6780 0.341
110.7083 -0.176
110.7385 0.245
110.7688 0.562
110.7991 0.099
110.8294 0.312
110.8597 0.162
110.8899 -0.301
110.9202 0.852
110.9505 0.598
110.9808 -0.332
111.0110 0.353
111.0413 0.205
111.0716 0.058
111.1019 0.119
111.1322 -0.028
111.1624 0.034
111.1927 -0.008
111.2230 0.367
111.2533 0.222
111.2836 0.025
111.3138 -0.276
111.3441 -0.063
111.3744 0.566
111.4047 0.363
111.4350 0.108
111.4652 -0.199
111.4955 -0.036
111.5258 0.439
111.5561 0.238
111.5863 0.089
111.6166 0.513
111.6469 -0.104
111.6772 -0.252
111.7075 0.695
111.7377 -0.181
111.7680 0.297
111.7983 0.360
111.8286 0.006
111.8589 0.277
111.8891 0.080
111.9194 0.248
111.9497 0.052
111.9800 0.116
112.0102 -0.287
112.0405 0.039
112.0708 0.157
112.1011 0.327
112.1314 0.133
112.1616 0.148
112.1919 0.476
112.2222 -0.081
112.2525 0.508
112.2828 0.056
112.3130 0.021
112.3433 -0.223
112.3736 0.212
112.4039 -0.239
112.4341 -0.611
112.4644 0.319
112.4947 0.261
112.5250 0.306
112.5553 -0.064
112.5855 0.711
112.6158 0.446
112.6461 0.233
112.6764 0.541
112.7067 -0.140
112.7369 0.221
112.7672 0.374
112.7975 0.215
112.8278 0.264
112.8580 0.523
112.8883 0.313
112.9186 0.416
112.9489 0.103
112.9792 -0.315
113.0094 0.154
113.0397 -0.158
113.0700 -0.313
113.1003 0.625
113.1306 0.315
113.1608 0.525
113.1911 0.059
113.2214 0.374
113.2517 -0.300
113.2819 -0.244
113.3122 -0.196
113.3425 -0.252
113.3728 0.422
113.4031 -0.049
113.4333 0.365
113.4636 0.051
113.4939 0.153
113.5242 0.152
113.5545 0.099
113.5847 -0.318
113.6150 0.203
113.6453 -0.161
113.6756 0.830
113.7058 0.466
113.7361 0.103
113.7664 -0.259
113.7967 -0.051
113.8270 0.419
113.8572 -0.206
113.8875 0.681
113.9178 0.006
113.9481 0.476
113.9784 -0.042
114.0086 0.169
114.0389 -0.244
114.0692 -0.258
114.0995 0.406
114.1298 -0.231
114.1600 -0.139
114.1903 0.057
114.2206 -0.319
114.2509 0.816
114.2811 -0.184
114.3114 -0.038
114.3417 -0.360
114.3720 0.151
114.4023 -0.014
114.4325 -0.283
114.4628 0.230
114.4931 0.274
114.5234 -0.202
114.5537 0.468
114.5839 -0.007
114.6142 0.247
114.6445 -0.019
114.6748 -0.337
114.7050 0.061
114.7353 -0.218
114.7656 -0.236
114.7959 0.111
114.8262 -0.166
114.8564 0.390
114.8867 -0.251
114.9170 0.097
114.9473 0.655
114.9776 0.223
115.0078 0.365
115.0381 0.246
115.0684 0.076
115.0987 0.063
115.1289 0.154
115.1592 0.037
115.1895 0.129
115.2198 -0.039
115.2501 -0.311
115.2803 0.092
115.3106 0.184
115.3409 0.692
115.3712 0.576
115.4015 0.305
115.4317 0.450
115.4620 0.283
115.4923 0.064
115.5226 0.992
115.5528 0.462
115.5831 0.661
115.6134 0.496
115.6437 0.332
115.6740 1.209
115.7042 0.212
115.7345 0.622
115.7648 0.876
115.7951 0.609
115.8254 1.385
115.8556 2.004
115.8859 1.582
115.9162 1.109
115.9465 1.834
115.9767 1.205
116.0070 1.566
116.0373 1.668
116.0676 1.769
116.0979 1.350
116.1281 1.400
116.1584 2.909
116.1887 1.242
116.2190 2.387
116.2493 1.553
116.2795 1.293
116.3098 1.450
116.3401 2.128
116.3704 2.338
116.4006 2.235
116.4309 1.404
116.4612 1.667
116.4915 2.608
116.5218 1.257
116.5520 1.573
116.5823 1.630
116.6126 1.895
116.6429 1.483
116.6732 0.967
116.7034 1.598
116.7337 0.615
116.7640 1.090
116.7943 1.097
116.8245 0.844
116.8548 0.748
116.8851 0.652
116.9154 1.285
116.9457 0.096
116.9759 0.783
117.0062 0.636
117.0365 0.699
117.0668 0.345
117.0971 0.252
117.1273 0.471
117.1576 0.483
117.1879 0.495
117.2182 0.300
117.2485 0.417
117.2787 -0.143
117.3090 -0.285
117.3393 -0.178
117.3696 0.451
117.3998 0.194
117.4301 0.407
117.4604 0.411
117.4907 0.104
117.5210 0.214
117.5512 0.220
117.5815 0.226
117.6118 0.493
117.6421 -0.177
117.6724 0.039
117.7026 -0.318
117.7329 0.315
117.7632 -0.040
117.7935 0.073
117.8237 0.082
117.8540 0.092
117.8843 -0.314
117.9146 0.582
117.9449 0.124
117.9751 0.084
118.0054 -0.165
118.0357 0.629
118.0660 0.433
118.0963 0.915
118.1265 0.408
118.1568 0.109
118.1871 0.488
118.2174 -0.122
118.2476 0.414
118.2779 0.325
118.3082 -0.544
118.3385 0.097
118.3688 -0.199
118.3990 -0.234
118.4293 0.305
118.4596 0.062
118.4899 -0.076
118.5202 0.307
118.5504 0.170
118.5807 -0.175
118.6110 -0.311
118.6413 0.197
118.6715 -0.024
118.7018 0.277
118.7321 -0.047
118.7624 -0.163
118.7927 0.191
118.8229 0.024
118.8532 -0.038
118.8835 0.630
118.9138 -0.109
118.9441 -0.013
118.9743 -0.074
119.0046 0.491
119.0349 -0.141
119.0652 0.112
119.0954 0.470
119.1257 0.255
119.1560 -0.064
119.1863 -0.173
119.2166 -0.022
119.2468 0.338
119.2771 -0.136
119.3074 -0.087
119.3377 0.274
119.3680 -0.250
119.3982 0.007
119.4285 0.109
119.4588 -0.258
119.4891 -0.207
119.5193 -0.260
119.5496 0.152
119.5799 0.044
119.6102 0.196
119.6405 -0.328
119.6707 0.451
119.7010 -0.697
119.7313 0.030
119.7616 0.237
119.7919 -0.077
119.8221 0.287
119.8524 -0.078
119.8827 0.599
119.9130 0.287
119.9433 -0.285
119.9735 -0.266
120.0038 0.000
