'Id: "" Comment: "" Operator: "Lab Manager" Anode: "Cu" Scantype: "Locked Coupled" TimePerStep: "19.2" X: "9999" Y: "9999" Z: "9999" 
10.0015 0.000
10.0318 0.213
10.0620 0.427
10.0923 0.329
10.1226 -0.811
10.1529 0.237
10.1832 0.451
10.2134 0.145
10.2437 0.100
10.2740 -0.413
10.3043 -0.296
10.3346 -0.126
10.3648 0.669
10.3951 -0.307
10.4254 0.280
10.4557 0.712
10.4859 0.101
10.5162 -0.665
10.5465 0.027
10.5768 0.199
10.6071 -0.358
10.6373 -0.186
10.6676 1.289
10.6979 0.472
10.7282 0.593
10.7585 0.037
10.7887 -0.102
10.8190 1.010
10.8493 0.611
10.8796 0.473
10.9098 1.480
10.9401 0.353
10.9704 0.164
11.0007 0.391
11.0310 -0.215
11.0612 0.951
11.0915 0.606
11.1218 0.991
11.1521 -0.031
11.1824 0.094
11.2126 1.156
11.2429 -0.645
11.2732 -0.520
11.3035 0.670
11.3337 1.392
11.3640 0.760
11.3943 0.233
11.4246 0.591
11.4549 0.636
11.4851 0.370
11.5154 0.624
11.5457 -0.683
11.5760 0.822
11.6063 0.504
11.6365 -0.230
11.6668 0.287
11.6971 0.855
11.7274 -0.138
11.7577 0.170
11.7879 0.792
11.8182 0.736
11.8485 -0.152
11.8788 0.001
11.9090 0.363
11.9393 0.830
11.9696 0.203
11.9999 0.201
12.0302 0.616
12.0604 0.042
12.0907 -0.584
12.1210 0.561
12.1513 0.196
12.1816 0.716
12.2118 0.300
12.2421 -0.221
12.2724 0.248
12.3027 0.405
12.3329 0.719
12.3632 -0.009
12.3935 0.461
12.4238 1.244
12.4541 -0.316
12.4843 0.050
12.5146 -0.416
12.5449 0.001
12.5752 -0.312
12.6055 -0.468
12.6357 0.359
12.6660 0.770
12.6963 0.400
12.7266 0.447
12.7568 -0.287
12.7871 0.802
12.8174 -0.088
12.8477 0.428
12.8780 0.476
12.9082 -0.205
12.9385 0.313
12.9688 0.570
12.9991 -0.839
13.0294 0.929
13.0596 0.301
13.0899 0.299
13.1202 -0.485
13.1505 0.035
13.1807 -0.019
13.2110 1.073
13.2413 0.187
13.2716 -0.751
13.3019 0.186
13.3321 0.758
13.3624 0.133
13.3927 -0.387
13.4230 0.551
13.4533 0.604
13.4835 -0.385
13.5138 0.658
13.5441 0.503
13.5744 -0.016
13.6046 -0.379
13.6349 0.770
13.6652 -0.843
13.6955 0.462
13.7258 -0.108
13.7560 0.156
13.7863 0.212
13.8166 0.736
13.8469 -0.978
13.8772 -0.193
13.9074 -0.501
13.9377 0.389
13.9680 0.342
13.9983 -0.173
14.0285 -0.376
14.0588 0.619
14.0891 0.052
14.1194 -0.098
14.1497 0.482
14.1799 0.176
14.2102 -0.390
14.2405 -0.127
14.2708 0.657
14.3011 0.504
14.3313 -0.066
14.3616 -0.010
14.3919 0.150
14.4222 0.362
14.4524 -0.051
14.4827 0.370
14.5130 0.271
14.5433 -0.297
14.5736 0.490
14.6038 0.287
14.6341 0.032
14.6644 0.090
14.6947 -0.581
14.7250 0.051
14.7552 0.266
14.7855 -0.196
14.8158 -0.345
14.8461 -0.702
14.8764 0.394
14.9066 0.970
14.9369 0.452
14.9672 -0.066
14.9975 0.198
15.0277 0.150
15.0580 -0.419
15.0883 0.106
15.1186 0.423
15.1489 0.793
15.1791 -0.088
15.2094 0.438
15.2397 -0.858
15.2700 0.033
15.3003 1.237
15.3305 0.670
15.3608 -0.104
15.3911 0.527
15.4214 -0.143
15.4516 0.229
15.4819 0.497
15.5122 -0.328
15.5425 0.826
15.5728 0.730
15.6030 0.582
15.6333 0.435
15.6636 -0.858
15.6939 0.141
15.7242 1.400
15.7544 0.212
15.7847 -0.090
15.8150 0.180
15.8453 0.295
15.8755 -0.215
15.9058 0.265
15.9361 -0.140
15.9664 0.392
15.9967 0.612
16.0269 -0.470
16.0572 0.064
16.0875 0.389
16.1178 -0.328
16.1481 -0.210
16.1783 -0.353
16.2086 -0.048
16.2389 0.778
16.2692 0.042
16.2994 -0.538
16.3297 0.341
16.3600 -0.238
16.3903 0.277
16.4206 0.063
16.4508 0.423
16.4811 -0.312
16.5114 0.152
16.5417 0.148
16.5720 0.977
16.6022 -0.121
16.6325 0.708
16.6628 0.444
16.6931 0.493
16.7233 -0.135
16.7536 -0.346
16.7839 1.161
16.8142 1.263
16.8445 0.115
16.8747 0.426
16.9050 0.580
16.9353 -0.306
16.9656 -0.724
16.9959 0.421
17.0261 -0.048
17.0564 0.628
17.0867 -0.465
17.1170 0.628
17.1472 0.212
17.1775 -0.204
17.2078 0.005
17.2381 0.527
17.2684 1.623
17.2986 0.791
17.3289 0.532
17.3592 0.170
17.3895 -0.140
17.4198 0.852
17.4500 -0.239
17.4803 -0.079
17.5106 0.653
17.5409 0.241
17.5712 0.505
17.6014 0.509
17.6317 0.826
17.6620 1.039
17.6923 -0.102
17.7225 -0.357
17.7528 -0.051
17.7831 -0.161
17.8134 0.198
17.8437 0.244
17.8739 0.187
17.9042 -0.599
17.9345 0.021
17.9648 0.069
17.9951 1.054
18.0253 0.008
18.0556 -0.308
18.0859 -0.780
18.1162 0.357
18.1464 0.140
18.1767 -0.181
18.2070 0.227
18.2373 0.584
18.2676 0.368
18.2978 0.257
18.3281 0.718
18.3584 0.139
18.3887 -0.076
18.4190 0.699
18.4492 0.015
18.4795 0.322
18.5098 -0.152
18.5401 0.051
18.5703 0.098
18.6006 -0.168
18.6309 0.192
18.6612 0.396
18.6915 -0.701
18.7217 -0.028
18.7520 0.489
18.7823 -0.660
18.8126 -0.038
18.8429 0.897
18.8731 0.113
18.9034 -0.046
18.9337 0.056
18.9640 0.055
18.9942 -0.416
19.0245 -0.002
19.0548 0.048
19.0851 0.358
19.1154 0.148
19.1456 -0.739
19.1759 -0.063
19.2062 0.092
19.2365 -0.534
19.2668 0.924
19.2970 -0.274
19.3273 -0.378
19.3576 0.820
19.3879 -0.534
19.4181 -0.169
19.4484 0.093
19.4787 0.458
19.5090 -0.113
19.5393 -0.372
19.5695 -0.266
19.5998 -0.315
19.6301 -1.198
19.6604 0.680
19.6907 -0.255
19.7209 0.738
19.7512 -0.456
19.7815 0.329
19.8118 -0.084
19.8420 -0.288
19.8723 -0.283
19.9026 -0.330
19.9329 0.248
19.9632 0.149
19.9934 0.311
20.0237 1.098
20.0540 -0.511
20.0843 -0.036
20.1146 0.231
20.1448 0.655
20.1751 -0.275
20.2054 -0.320
20.2357 -0.365
20.2659 -0.153
20.2962 -0.358
20.3265 0.115
20.3568 -0.089
20.3871 0.071
20.4173 -0.080
20.4476 0.862
20.4779 -0.018
20.5082 -0.117
20.5385 -0.216
20.5687 0.050
20.5990 0.317
20.6293 -0.250
20.6596 0.330
20.6899 -0.549
20.7201 -0.021
20.7504 0.403
20.7807 -0.318
20.8110 -0.102
20.8412 -0.042
20.8715 -0.138
20.9018 -0.598
20.9321 0.181
20.9624 -0.082
20.9926 -0.083
21.0229 0.384
21.0532 -0.138
21.0835 0.069
21.1138 0.068
21.1440 0.276
21.1743 -0.037
21.2046 0.692
21.2349 0.328
21.2651 0.484
21.2954 0.225
21.3257 0.486
21.3560 0.748
21.3863 0.385
21.4165 0.230
21.4468 0.128
21.4771 0.443
21.5074 0.237
21.5377 -0.177
21.5679 -0.018
21.5982 0.089
21.6285 -0.116
21.6588 -0.008
21.6890 -0.264
21.7193 0.417
21.7496 0.370
21.7799 0.270
21.8102 0.744
21.8404 -0.553
21.8707 0.078
21.9010 0.396
21.9313 -0.171
21.9616 0.720
21.9918 0.519
22.0221 0.057
22.0524 -0.145
22.0827 0.019
22.1129 0.130
22.1432 -0.331
22.1735 -0.114
22.2038 -0.366
22.2341 0.423
22.2643 0.328
22.2946 0.337
22.3249 0.086
22.3552 0.095
22.3855 0.522
22.4157 0.063
22.4460 -0.395
22.4763 0.553
22.5066 0.563
22.5368 0.470
22.5671 0.065
22.5974 0.337
22.6277 -0.068
22.6580 0.100
22.6882 0.060
22.7185 0.125
22.7488 0.034
22.7791 0.620
22.8094 0.425
22.8396 -0.031
22.8699 -0.329
22.9002 0.027
22.9305 0.644
22.9607 0.740
22.9910 0.420
23.0213 0.257
23.0516 0.302
23.0819 0.034
23.1121 -0.024
23.1424 0.490
23.1727 0.901
23.2030 0.687
23.2333 0.265
23.2635 0.259
23.2938 0.775
23.3241 0.510
23.3544 0.193
23.3846 0.397
23.4149 -0.336
23.4452 -0.079
23.4755 0.438
23.5058 -0.190
23.5360 0.015
23.5663 -0.196
23.5966 -0.355
23.6269 1.205
23.6572 -0.099
23.6874 -0.205
23.7177 0.054
23.7480 0.261
23.7783 0.208
23.8086 0.416
23.8388 0.155
23.8691 -0.210
23.8994 -0.470
23.9297 0.468
23.9599 0.416
23.9902 -0.365
24.0205 0.001
24.0508 0.523
24.0811 -0.152
24.1113 0.422
24.1416 0.216
24.1719 0.166
24.2022 1.419
24.2325 -0.610
24.2627 -0.294
24.2930 -0.343
24.3233 0.650
24.3536 -0.179
24.3838 0.398
24.4141 0.662
24.4444 -0.219
24.4747 0.359
24.5050 -0.052
24.5352 0.474
24.5655 0.167
24.5958 1.006
24.6261 -0.342
24.6564 0.966
24.6866 -0.538
24.7169 0.719
24.7472 0.101
24.7775 0.265
24.8077 0.793
24.8380 0.645
24.8683 0.444
24.8986 0.765
24.9289 0.878
24.9591 0.939
24.9894 0.271
25.0197 0.124
25.0500 0.134
25.0803 -0.325
25.1105 -0.132
25.1408 0.218
25.1711 0.048
25.2014 0.347
25.2316 0.697
25.2619 0.059
25.2922 0.723
25.3225 0.606
25.3528 0.333
25.3830 0.008
25.4133 0.412
25.4436 -0.017
25.4739 0.701
25.5042 0.116
25.5344 0.522
25.5647 -0.531
25.5950 0.136
25.6253 0.073
25.6555 0.428
25.6858 0.782
25.7161 0.095
25.7464 0.138
25.7767 0.650
25.8069 -0.609
25.8372 0.163
25.8675 -0.418
25.8978 1.188
25.9281 -0.434
25.9583 -0.494
25.9886 0.488
26.0189 0.428
26.0492 0.473
26.0794 1.247
26.1097 1.031
26.1400 -0.694
26.1703 0.289
26.2006 -0.186
26.2308 0.798
26.2611 0.219
26.2914 -0.151
26.3217 0.573
26.3520 0.099
26.3822 -0.687
26.4125 0.351
26.4428 -0.070
26.4731 0.238
26.5034 0.860
26.5336 0.387
26.5639 0.332
26.5942 -0.035
26.6245 0.014
26.6547 0.428
26.6850 0.062
26.7153 -0.357
26.7456 -0.361
26.7759 0.676
26.8061 1.089
26.8364 0.096
26.8667 0.406
26.8970 -0.274
26.9273 0.139
26.9575 0.085
26.9878 -0.282
27.0181 -0.023
27.0484 -0.598
27.0786 0.067
27.1089 0.628
27.1392 0.460
27.1695 0.449
27.1998 -0.187
27.2300 0.843
27.2603 0.000
27.2906 1.187
27.3209 0.812
27.3512 0.073
27.3814 0.480
27.4117 0.002
27.4420 0.150
27.4723 0.505
27.5025 0.132
27.5328 0.592
27.5631 -0.353
27.5934 0.629
27.6237 0.621
27.6539 0.301
27.6842 -0.331
27.7145 1.225
27.7448 0.645
27.7751 -0.455
27.8053 0.320
27.8356 0.315
27.8659 -0.003
27.8962 0.147
27.9264 0.872
27.9567 0.450
27.9870 -0.388
28.0173 0.233
28.0476 -0.344
28.0778 -0.348
28.1081 0.951
28.1384 -0.771
28.1687 -0.149
28.1990 0.056
28.2292 0.731
28.2595 0.572
28.2898 0.258
28.3201 -0.213
28.3503 0.358
28.3806 0.461
28.4109 -0.321
28.4412 0.459
28.4715 1.396
28.5017 0.875
28.5320 0.615
28.5623 0.094
28.5926 -0.062
28.6229 0.356
28.6531 0.148
28.6834 0.671
28.7137 0.255
28.7440 0.570
28.7742 0.624
28.8045 -0.468
28.8348 -0.607
28.8651 1.025
28.8954 0.261
28.9256 0.175
28.9559 -0.172
28.9862 0.628
29.0165 -0.239
29.0468 -0.012
29.0770 0.632
29.1073 -0.130
29.1376 0.358
29.1679 0.118
29.1981 0.919
29.2284 0.887
29.2587 0.283
29.2890 0.304
29.3193 0.481
29.3495 1.179
29.3798 -0.414
29.4101 -0.027
29.4404 -0.057
29.4707 -0.139
29.5009 0.144
29.5312 -0.042
29.5615 -0.071
29.5918 0.109
29.6221 0.341
29.6523 -0.313
29.6826 0.545
29.7129 0.361
29.7432 0.073
29.7734 0.358
29.8037 0.644
29.8340 0.304
29.8643 -0.139
29.8946 0.043
29.9248 0.017
29.9551 0.200
29.9854 -0.034
30.0157 0.305
30.0460 2.103
30.0762 0.152
30.1065 0.283
30.1368 0.103
30.1671 -0.598
30.1973 -0.056
30.2276 -0.398
30.2579 0.041
30.2882 0.168
30.3185 0.868
30.3487 1.099
30.3790 0.706
30.4093 0.938
30.4396 1.274
30.4699 0.830
30.5001 0.906
30.5304 2.545
30.5607 0.956
30.5910 1.710
30.6212 1.527
30.6515 0.042
30.6818 1.891
30.7121 1.344
30.7424 1.266
30.7726 2.335
30.8029 2.935
30.8332 2.180
30.8635 3.666
30.8938 4.215
30.9240 1.847
30.9543 4.739
30.9846 4.924
31.0149 4.796
31.0451 4.721
31.0754 7.459
31.1057 6.603
31.1360 7.049
31.1663 6.298
31.1965 9.922
31.2268 9.692
31.2571 13.212
31.2874 12.878
31.3177 17.597
31.3479 16.170
31.3782 20.577
31.4085 21.911
31.4388 27.307
31.4690 28.382
31.4993 35.862
31.5296 37.093
31.5599 42.855
31.5902 43.774
31.6204 46.829
31.6507 45.769
31.6810 49.449
31.7113 44.327
31.7416 43.060
31.7718 40.334
31.8021 35.890
31.8324 31.707
31.8627 26.847
31.8929 24.018
31.9232 21.398
31.9535 18.310
31.9838 13.711
32.0141 14.790
32.0443 11.494
32.0746 9.864
32.1049 7.663
32.1352 9.211
32.1655 8.260
32.1957 4.548
32.2260 4.326
32.2563 3.428
32.2866 3.519
32.3169 3.142
32.3471 3.182
32.3774 1.972
32.4077 2.585
32.4380 2.365
32.4682 1.885
32.4985 0.936
32.5288 0.613
32.5591 1.800
32.5894 0.540
32.6196 0.113
32.6499 1.874
32.6802 0.511
32.7105 0.137
32.7408 0.492
32.7710 0.119
32.8013 1.569
32.8316 0.727
32.8619 0.146
32.8921 -0.747
32.9224 0.599
32.9527 0.332
32.9830 -0.040
33.0133 -0.359
33.0435 -0.678
33.0738 0.930
33.1041 0.351
33.1344 -1.217
33.1647 -0.025
33.1949 0.230
33.2252 -0.348
33.2555 0.272
33.2858 0.528
33.3160 -0.361
33.3463 0.103
33.3766 -0.005
33.4069 -0.633
33.4372 0.509
33.4674 0.558
33.4977 0.087
33.5280 -0.072
33.5583 0.395
33.5886 0.028
33.6188 0.495
33.6491 0.389
33.6794 0.180
33.7097 1.845
33.7399 1.324
33.7702 1.740
33.8005 2.261
33.8308 3.927
33.8611 4.396
33.8913 3.668
33.9216 4.658
33.9519 7.732
33.9822 7.473
34.0125 7.630
34.0427 8.726
34.0730 12.009
34.1033 16.387
34.1336 17.743
34.1638 23.319
34.1941 27.489
34.2244 39.679
34.2547 48.589
34.2850 54.947
34.3152 60.680
34.3455 57.195
34.3758 50.116
34.4061 44.861
34.4364 35.074
34.4666 29.350
34.4969 23.158
34.5272 16.393
34.5575 12.857
34.5877 9.842
34.6180 10.370
34.6483 7.460
34.6786 7.727
34.7089 7.318
34.7391 4.253
34.7694 5.094
34.7997 2.498
34.8300 3.548
34.8603 3.088
34.8905 3.565
34.9208 4.147
34.9511 4.104
34.9814 3.593
35.0116 4.957
35.0419 2.415
35.0722 4.144
35.1025 4.571
35.1328 3.697
35.1630 1.520
35.1933 3.511
35.2236 4.564
35.2539 3.222
35.2842 4.224
35.3144 4.392
35.3447 4.457
35.3750 5.407
35.4053 5.524
35.4356 6.371
35.4658 6.281
35.4961 8.690
35.5264 7.767
35.5567 8.510
35.5869 11.598
35.6172 12.029
35.6475 11.888
35.6778 12.216
35.7081 13.742
35.7383 16.466
35.7686 19.347
35.7989 21.863
35.8292 23.338
35.8595 27.678
35.8897 32.487
35.9200 36.567
35.9503 42.678
35.9806 49.155
36.0108 53.652
36.0411 62.212
36.0714 63.324
36.1017 69.541
36.1320 68.050
36.1622 72.444
36.1925 71.370
36.2228 71.755
36.2531 63.129
36.2834 59.920
36.3136 51.295
36.3439 46.524
36.3742 38.160
36.4045 33.806
36.4347 31.224
36.4650 25.881
36.4953 22.570
36.5256 18.790
36.5559 17.355
36.5861 14.826
36.6164 12.505
36.6467 10.289
36.6770 11.458
36.7073 9.086
36.7375 7.236
36.7678 7.573
36.7981 6.191
36.8284 6.060
36.8586 5.564
36.8889 4.704
36.9192 3.740
36.9495 3.089
36.9798 5.199
37.0100 1.579
37.0403 2.804
37.0706 2.154
37.1009 2.754
37.1312 2.937
37.1614 3.851
37.1917 0.910
37.2220 1.823
37.2523 1.852
37.2825 1.620
37.3128 1.493
37.3431 1.262
37.3734 1.343
37.4037 1.477
37.4339 2.236
37.4642 0.444
37.4945 -0.047
37.5248 0.349
37.5551 -0.193
37.5853 0.255
37.6156 0.026
37.6459 0.266
37.6762 0.610
37.7064 0.382
37.7367 1.300
37.7670 0.551
37.7973 0.480
37.8276 0.253
37.8578 -0.026
37.8881 0.477
37.9184 0.250
37.9487 0.493
37.9790 -0.306
38.0092 0.666
38.0395 0.285
38.0698 -0.357
38.1001 -0.270
38.1304 0.079
38.1606 -0.198
38.1909 0.672
38.2212 0.344
38.2515 0.224
38.2817 -0.676
38.3120 -0.179
38.3423 -0.097
38.3726 0.088
38.4029 0.378
38.4331 0.721
38.4634 0.074
38.4937 0.156
38.5240 -0.074
38.5543 0.322
38.5845 -0.012
38.6148 -0.137
38.6451 -0.001
38.6754 0.239
38.7056 -0.249
38.7359 0.200
38.7662 0.024
38.7965 0.005
38.8268 0.142
38.8570 -0.085
38.8873 -0.624
38.9176 0.118
38.9479 0.183
38.9782 0.093
39.0084 0.836
39.0387 -0.036
39.0690 0.083
39.0993 -0.007
39.1295 0.581
39.1598 0.440
39.1901 0.351
39.2204 -0.519
39.2507 -0.139
39.2809 0.034
39.3112 0.362
39.3415 0.796
39.3718 -0.125
39.4021 0.100
39.4323 0.274
39.4626 0.135
39.4929 0.361
39.5232 0.588
39.5534 -0.227
39.5837 0.625
39.6140 -0.086
39.6443 0.454
39.6746 -0.360
39.7048 -0.028
39.7351 0.305
39.7654 0.377
39.7957 -0.072
39.8260 -0.468
39.8562 0.111
39.8865 0.533
39.9168 -0.294
39.9471 -0.445
39.9773 1.176
40.0076 0.402
40.0379 -0.008
40.0682 0.156
40.0985 0.319
40.1287 0.171
40.1590 0.231
40.1893 0.812
40.2196 -0.013
40.2499 0.204
40.2801 0.317
40.3104 -0.247
40.3407 -0.029
40.3710 0.033
40.4012 -0.061
40.4315 -0.364
40.4618 0.100
40.4921 0.564
40.5224 -0.222
40.5526 0.243
40.5829 0.030
40.6132 -0.390
40.6435 0.752
40.6738 0.593
40.7040 0.590
40.7343 -0.715
40.7646 0.480
40.7949 0.478
40.8251 0.111
40.8554 0.474
40.8857 -0.257
40.9160 0.732
40.9463 0.106
40.9765 0.105
41.0068 0.573
41.0371 0.677
41.0674 0.365
41.0977 0.261
41.1279 1.147
41.1582 0.418
41.1885 0.055
41.2188 0.160
41.2491 0.370
41.2793 -0.358
41.3096 0.374
41.3399 -0.197
41.3702 -0.247
41.4004 -0.088
41.4307 0.593
41.4610 -0.394
41.4913 0.183
41.5216 0.239
41.5518 0.086
41.5821 0.351
41.6124 0.147
41.6427 -0.317
41.6730 -0.162
41.7032 0.096
41.7335 -0.165
41.7638 0.458
41.7941 0.562
41.8243 0.353
41.8546 0.196
41.8849 0.509
41.9152 -0.325
41.9455 1.082
41.9757 0.041
42.0060 0.042
42.0363 0.668
42.0666 -0.528
42.0969 -0.214
42.1271 0.048
42.1574 0.415
42.1877 0.574
42.2180 0.420
42.2482 0.267
42.2785 -0.407
42.3088 -0.039
42.3391 0.069
42.3694 0.177
42.3996 0.233
42.4299 0.237
42.4602 0.450
42.4905 -0.118
42.5208 0.565
42.5510 0.674
42.5813 0.420
42.6116 0.321
42.6419 -0.141
42.6721 0.542
42.7024 0.601
42.7327 0.296
42.7630 0.511
42.7933 -0.263
42.8235 0.318
42.8538 0.482
42.8841 0.699
42.9144 0.863
42.9447 0.664
42.9749 -0.004
43.0052 0.213
43.0355 0.118
43.0658 0.128
43.0960 0.086
43.1263 -0.112
43.1566 -0.050
43.1869 -0.299
43.2172 -0.151
43.2474 0.467
43.2777 -0.061
43.3080 0.036
43.3383 0.133
43.3686 0.544
43.3988 0.590
43.4291 0.167
43.4594 0.526
43.4897 0.364
43.5199 0.723
43.5502 0.614
43.5805 0.558
43.6108 0.136
43.6411 0.288
43.6713 -0.132
43.7016 0.229
43.7319 -0.139
43.7622 0.118
43.7925 0.532
43.8227 0.060
43.8530 0.422
43.8833 -0.517
43.9136 0.210
43.9439 -0.625
43.9741 0.051
44.0044 0.414
44.0347 -0.108
44.0650 0.777
44.0952 -0.109
44.1255 -0.057
44.1558 0.829
44.1861 0.100
44.2164 0.361
44.2466 -0.263
44.2769 0.467
44.3072 0.312
44.3375 0.834
44.3678 0.263
44.3980 0.318
44.4283 -0.045
44.4586 -0.303
44.4889 0.169
44.5191 1.006
44.5494 0.228
44.5797 0.648
44.6100 0.600
44.6403 -0.177
44.6705 0.035
44.7008 0.092
44.7311 0.514
44.7614 0.571
44.7917 0.316
44.8219 -0.304
44.8522 -0.304
44.8825 0.264
44.9128 0.728
44.9430 0.827
44.9733 0.406
45.0036 0.141
45.0339 0.293
45.0642 -0.075
45.0944 0.494
45.1247 0.282
45.1550 -0.190
45.1853 0.693
45.2156 -0.455
45.2458 0.011
45.2761 -0.095
45.3064 -0.253
45.3367 -0.307
45.3669 -0.308
45.3972 -0.065
45.4275 0.804
45.4578 -0.202
45.4881 0.302
45.5183 1.119
45.5486 0.687
45.5789 0.723
45.6092 0.448
45.6395 0.224
45.6697 0.105
45.7000 -0.274
45.7303 0.962
45.7606 0.219
45.7908 -0.212
45.8211 -0.017
45.8514 0.803
45.8817 -0.356
45.9120 0.621
45.9422 0.296
45.9725 0.231
46.0028 0.167
46.0331 -0.001
46.0634 0.404
46.0936 0.289
46.1239 0.747
46.1542 0.319
46.1845 -0.212
46.2147 0.038
46.2450 1.017
46.2753 0.070
46.3056 0.529
46.3359 -0.105
46.3661 0.303
46.3964 1.544
46.4267 -0.027
46.4570 0.225
46.4873 1.259
46.5175 0.626
46.5478 -0.007
46.5781 0.872
46.6084 0.917
46.6386 1.066
46.6689 1.633
46.6992 1.053
46.7295 1.881
46.7598 1.615
46.7900 0.880
46.8203 1.500
46.8506 1.599
46.8809 2.792
46.9112 1.954
46.9414 2.523
46.9717 2.831
47.0020 3.557
47.0323 3.501
47.0626 4.696
47.0928 5.162
47.1231 4.899
47.1534 6.511
47.1837 7.290
47.2139 7.704
47.2442 9.109
47.2745 8.430
47.3048 10.512
47.3351 13.116
47.3653 13.323
47.3956 15.458
47.4259 13.427
47.4562 14.989
47.4865 15.042
47.5167 12.282
47.5470 13.481
47.5773 12.388
47.6076 9.004
47.6378 8.953
47.6681 8.695
47.6984 7.395
47.7287 6.251
47.7590 5.785
47.7892 5.631
47.8195 2.666
47.8498 3.294
47.8801 3.246
47.9104 2.468
47.9406 2.993
47.9709 1.904
48.0012 2.169
48.0315 1.548
48.0617 1.345
48.0920 1.298
48.1223 1.356
48.1526 1.935
48.1829 1.264
48.2131 0.853
48.2434 0.912
48.2737 0.450
48.3040 1.187
48.3343 0.465
48.3645 0.837
48.3948 0.636
48.4251 -0.189
48.4554 0.705
48.4856 0.089
48.5159 -0.371
48.5462 0.784
48.5765 0.689
48.6068 0.855
48.6370 0.031
48.6673 0.770
48.6976 -0.573
48.7279 0.687
48.7582 0.021
48.7884 0.293
48.8187 0.148
48.8490 0.159
48.8793 0.119
48.9095 -0.285
48.9398 0.665
48.9701 -0.417
49.0004 -0.195
49.0307 0.234
49.0609 -0.481
49.0912 0.522
49.1215 -0.089
49.1518 -0.075
49.1821 -0.321
49.2123 -0.208
49.2426 -0.407
49.2729 0.539
49.3032 0.132
49.3334 0.038
49.3637 -0.317
49.3940 -0.154
49.4243 0.008
49.4546 0.328
49.4848 0.126
49.5151 0.394
49.5454 0.089
49.5757 -0.268
49.6060 -0.052
49.6362 0.477
49.6665 0.538
49.6968 0.390
49.7271 -0.382
49.7574 0.096
49.7876 -0.311
49.8179 -0.049
49.8482 -0.254
49.8785 -0.095
49.9087 0.168
49.9390 0.328
49.9693 0.175
49.9996 -0.081
50.0299 -0.390
50.0601 0.133
50.0904 -0.126
50.1207 0.240
50.1510 -0.071
50.1813 -0.277
50.2115 0.351
50.2418 -0.011
50.2721 -0.164
50.3024 0.360
50.3326 0.520
50.3629 0.003
50.3932 0.267
50.4235 0.167
50.4538 0.068
50.4840 -0.084
50.5143 -0.704
50.5446 0.864
50.5749 0.192
50.6052 0.094
50.6354 0.360
50.6657 0.315
50.6960 0.425
50.7263 -0.037
50.7565 0.283
50.7868 0.030
50.8171 -0.067
50.8474 0.306
50.8777 0.887
50.9079 0.166
50.9382 0.070
50.9685 0.548
50.9988 -0.172
51.0291 0.149
51.0593 0.523
51.0896 -0.092
51.1199 -0.290
51.1502 -0.295
51.1804 0.481
51.2107 -0.044
51.2410 0.264
51.2713 -0.314
51.3016 0.099
51.3318 0.252
51.3621 0.300
51.3924 0.193
51.4227 0.086
51.4530 0.396
51.4832 0.445
51.5135 0.703
51.5438 -0.340
51.5741 0.752
51.6043 0.021
51.6346 0.333
51.6649 -0.085
51.6952 -0.086
51.7255 0.070
51.7557 -0.295
51.7860 -0.253
51.8163 0.154
51.8466 0.405
51.8769 0.500
51.9071 0.334
51.9374 -0.039
51.9677 0.317
51.9980 0.048
52.0282 0.248
52.0585 0.449
52.0888 -0.132
52.1191 0.330
52.1494 -0.302
52.1796 0.003
52.2099 0.414
52.2402 0.303
52.2705 -0.380
52.3008 -0.125
52.3310 -0.339
52.3613 0.437
52.3916 -0.246
52.4219 -0.042
52.4521 0.162
52.4824 -0.363
52.5127 -0.107
52.5430 0.098
52.5733 0.303
52.6035 -0.274
52.6338 0.661
52.6641 0.450
52.6944 -0.021
52.7247 0.133
52.7549 -0.181
52.7852 -0.079
52.8155 1.222
52.8458 0.439
52.8761 -0.603
52.9063 0.073
52.9366 -0.500
52.9669 0.333
52.9972 -0.136
53.0274 0.021
53.0577 0.126
53.0880 -0.550
53.1183 0.076
53.1486 0.650
53.1788 0.131
53.2091 0.497
53.2394 -0.647
53.2697 -0.019
53.3000 0.452
53.3302 -0.535
53.3605 0.146
53.3908 0.409
53.4211 -0.108
53.4513 -0.260
53.4816 -0.308
53.5119 0.164
53.5422 -0.198
53.5725 -0.090
53.6027 -0.034
53.6330 1.116
53.6633 -0.286
53.6936 0.083
53.7239 -0.277
53.7541 0.718
53.7844 -0.266
53.8147 0.833
53.8450 0.839
53.8752 0.480
53.9055 0.643
53.9358 0.493
53.9661 -0.333
53.9964 0.299
54.0266 0.254
54.0569 -0.363
54.0872 -0.223
54.1175 0.438
54.1478 -0.203
54.1780 -0.010
54.2083 -0.442
54.2386 0.060
54.2689 0.457
54.2991 0.334
54.3294 0.367
54.3597 0.713
54.3900 0.122
54.4203 0.729
54.4505 0.867
54.4808 0.173
54.5111 -0.209
54.5414 -0.331
54.5717 0.382
54.6019 0.521
54.6322 0.557
54.6625 0.489
54.6928 0.786
54.7230 0.301
54.7533 0.338
54.7836 1.000
54.8139 0.621
54.8442 -0.071
54.8744 -0.085
54.9047 0.266
54.9350 -0.009
54.9653 0.082
54.9956 0.537
55.0258 0.264
55.0561 0.824
55.0864 0.916
55.1167 0.539
55.1469 0.423
55.1772 -0.006
55.2075 0.556
55.2378 1.222
55.2681 -0.196
55.2983 0.679
55.3286 0.668
55.3589 0.658
55.3892 0.648
55.4195 0.170
55.4497 0.629
55.4800 0.620
55.5103 0.559
55.5406 0.498
55.5709 1.010
55.6011 1.627
55.6314 1.411
55.6617 2.392
55.6920 1.864
55.7222 2.326
55.7525 2.319
55.7828 2.051
55.8131 2.149
55.8434 2.247
55.8736 2.762
55.9039 3.694
55.9342 3.584
55.9645 2.954
55.9948 3.782
56.0250 4.611
56.0553 4.815
56.0856 4.238
56.1159 6.890
56.1461 6.938
56.1764 7.560
56.2067 8.859
56.2370 9.272
56.2673 11.926
56.2975 13.278
56.3278 13.484
56.3581 15.513
56.3884 15.616
56.4187 17.802
56.4489 17.540
56.4792 18.997
56.5095 18.788
56.5398 18.007
56.5700 16.027
56.6003 16.600
56.6306 16.392
56.6609 16.028
56.6912 13.112
56.7214 11.291
56.7517 9.521
56.7820 10.148
56.8123 8.379
56.8426 7.964
56.8728 7.289
56.9031 5.417
56.9334 5.628
56.9637 5.110
56.9939 4.228
57.0242 3.555
57.0545 3.246
57.0848 4.292
57.1151 2.473
57.1453 2.530
57.1756 1.858
57.2059 2.800
57.2362 1.660
57.2665 1.509
57.2967 0.526
57.3270 1.157
57.3573 0.434
57.3876 1.066
57.4178 0.499
57.4481 0.246
57.4784 0.254
57.5087 0.730
57.5390 0.477
57.5692 0.433
57.5995 0.963
57.6298 0.138
57.6601 1.032
57.6904 -0.157
57.7206 -0.147
57.7509 0.488
57.7812 -0.440
57.8115 0.403
57.8417 0.935
57.8720 0.268
57.9023 0.227
57.9326 -0.335
57.9629 -0.011
57.9931 0.209
58.0234 0.690
58.0537 0.442
58.0840 -0.379
58.1143 0.050
58.1445 -0.145
58.1748 -0.028
58.2051 0.246
58.2354 0.832
58.2656 0.482
58.2959 -0.338
58.3262 -0.440
58.3565 0.552
58.3868 0.137
58.4170 -0.277
58.4473 -0.014
58.4776 -0.167
58.5079 0.149
58.5382 0.101
58.5684 0.104
58.5987 -0.152
58.6290 0.009
58.6593 -0.039
58.6896 0.018
58.7198 -0.185
58.7501 0.497
58.7804 -0.591
58.8107 0.040
58.8409 -0.110
58.8712 0.104
58.9015 0.475
58.9318 -0.195
58.9621 -0.136
58.9923 -0.649
59.0226 0.765
59.0529 0.564
59.0832 0.312
59.1135 0.424
59.1437 0.329
59.1740 -0.496
59.2043 0.034
59.2346 -0.321
59.2648 -0.169
59.2951 1.077
59.3254 0.344
59.3557 0.393
59.3860 0.390
59.4162 0.283
59.4465 -0.188
59.4768 0.486
59.5071 0.432
59.5374 0.482
59.5676 -0.457
59.5979 0.427
59.6282 -0.199
59.6585 0.686
59.6887 0.320
59.7190 0.372
59.7493 0.997
59.7796 0.112
59.8099 0.060
59.8401 -0.095
59.8704 0.062
59.9007 -0.041
59.9310 0.325
59.9613 0.274
59.9915 0.016
60.0218 0.226
60.0521 0.385
60.0824 0.075
60.1126 -0.235
60.1429 0.289
60.1732 0.397
60.2035 0.453
60.2338 0.821
60.2640 0.096
60.2943 0.517
60.3246 0.158
60.3549 0.162
60.3852 0.011
60.4154 -0.244
60.4457 0.335
60.4760 0.237
60.5063 0.087
60.5365 0.041
60.5668 -0.317
60.5971 -0.127
60.6274 0.271
60.6577 -0.268
60.6879 -0.182
60.7182 -0.096
60.7485 -0.166
60.7788 0.338
60.8091 -0.148
60.8393 -0.217
60.8696 0.287
60.8999 0.011
60.9302 0.047
60.9604 0.708
60.9907 0.067
61.0210 0.156
61.0513 -0.432
61.0816 0.126
61.1118 0.164
61.1421 0.670
61.1724 0.083
61.2027 0.226
61.2330 -0.673
61.2632 0.355
61.2935 0.134
61.3238 0.017
61.3541 -0.204
61.3844 0.565
61.4146 0.449
61.4449 0.020
61.4752 -0.200
61.5055 0.622
61.5357 0.351
61.5660 -0.128
61.5963 -0.087
61.6266 0.059
61.6569 0.414
61.6871 -0.013
61.7174 0.707
61.7477 0.073
61.7780 0.116
61.8083 1.253
61.8385 0.984
61.8688 0.975
61.8991 0.134
61.9294 1.376
61.9596 0.900
61.9899 1.778
62.0202 1.250
62.0505 0.723
62.0808 1.602
62.1110 2.012
62.1413 2.371
62.1716 2.938
62.2019 2.307
62.2322 2.354
62.2624 2.141
62.2927 2.918
62.3230 4.267
62.3533 5.617
62.3835 4.936
62.4138 4.255
62.4441 6.543
62.4744 7.686
62.5047 7.162
62.5349 9.295
62.5652 10.334
62.5955 11.842
62.6258 10.122
62.6561 13.662
62.6863 12.879
62.7166 14.492
62.7469 15.741
62.7772 15.011
62.8074 15.740
62.8377 15.011
62.8680 13.813
62.8983 13.553
62.9286 12.876
62.9588 9.856
62.9891 10.639
63.0194 8.140
63.0497 8.402
63.0800 7.674
63.1102 6.739
63.1405 4.346
63.1708 4.296
63.2011 4.299
63.2313 3.833
63.2616 4.149
63.2919 3.319
63.3222 1.917
63.3525 2.129
63.3827 2.394
63.4130 1.982
63.4433 1.466
63.4736 1.315
63.5039 1.528
63.5341 0.753
63.5644 0.759
63.5947 0.608
63.6250 0.875
63.6552 0.361
63.6855 0.420
63.7158 0.219
63.7461 -0.191
63.7764 0.650
63.8066 -0.071
63.8369 0.718
63.8672 0.258
63.8975 0.215
63.9278 0.588
63.9580 -0.184
63.9883 0.294
64.0186 0.668
64.0489 -0.416
64.0791 0.219
64.1094 0.438
64.1397 0.345
64.1700 0.043
64.2003 -0.363
64.2305 0.065
64.2608 0.233
64.2911 0.245
64.3214 0.518
64.3517 0.166
64.3819 -0.082
64.4122 0.295
64.4425 -0.056
64.4728 -0.303
64.5031 -0.342
64.5333 -0.400
64.5636 0.427
64.5939 -0.255
64.6242 0.364
64.6544 0.463
64.6847 0.406
64.7150 0.505
64.7453 0.397
64.7756 0.288
64.8058 0.388
64.8361 0.958
64.8664 -0.088
64.8967 0.274
64.9270 0.583
64.9572 0.476
64.9875 -0.307
65.0178 -0.257
65.0481 -0.364
65.0783 0.309
65.1086 0.148
65.1389 0.717
65.1692 0.348
65.1995 -0.489
65.2297 0.237
65.2600 -0.235
65.2903 0.856
65.3206 0.176
65.3509 0.278
65.3811 -0.349
65.4114 -0.316
65.4417 -0.335
65.4720 -0.249
65.5022 0.566
65.5325 0.652
65.5628 0.530
65.5931 -0.320
65.6234 -0.442
65.6536 0.375
65.6839 -0.057
65.7142 0.187
65.7445 0.276
65.7748 1.303
65.8050 0.038
65.8353 0.856
65.8656 1.050
65.8959 0.151
65.9261 0.397
65.9564 0.019
65.9867 1.099
66.0170 0.721
66.0473 0.708
66.0775 0.435
66.1078 1.308
66.1381 0.880
66.1684 2.118
66.1987 1.116
66.2289 1.365
66.2592 0.885
66.2895 1.239
66.3198 2.270
66.3500 1.947
66.3803 1.781
66.4106 1.615
66.4409 1.136
66.4712 1.908
66.5014 1.899
66.5317 1.057
66.5620 1.152
66.5923 0.675
66.6226 -0.010
66.6528 1.180
66.6831 1.120
66.7134 0.280
66.7437 0.585
66.7739 0.734
66.8042 1.196
66.8345 0.409
66.8648 0.715
66.8951 1.126
66.9253 1.016
66.9556 0.646
66.9859 0.901
67.0162 0.740
67.0465 0.371
67.0767 0.731
67.1070 0.675
67.1373 0.775
67.1676 1.189
67.1978 0.977
67.2281 1.442
67.2584 1.075
67.2887 1.229
67.3190 1.435
67.3492 2.110
67.3795 2.264
67.4098 3.981
67.4401 3.772
67.4704 3.770
67.5006 4.134
67.5309 5.175
67.5612 4.185
67.5915 3.873
67.6218 6.529
67.6520 7.207
67.6823 7.572
67.7126 8.719
67.7429 8.928
67.7731 10.857
67.8034 9.921
67.8337 10.287
67.8640 10.550
67.8943 9.250
67.9245 8.836
67.9548 10.089
67.9851 9.468
68.0154 8.013
68.0457 9.527
68.0759 8.177
68.1062 7.191
68.1365 6.362
68.1668 6.315
68.1970 5.174
68.2273 3.721
68.2576 3.779
68.2879 4.305
68.3182 3.009
68.3484 3.119
68.3787 3.386
68.4090 3.549
68.4393 2.931
68.4696 3.251
68.4998 3.883
68.5301 2.172
68.5604 2.909
68.5907 2.657
68.6209 3.291
68.6512 3.195
68.6815 3.465
68.7118 2.849
68.7421 4.108
68.7723 4.222
68.8026 3.034
68.8329 2.888
68.8632 3.941
68.8935 3.899
68.9237 4.379
68.9540 4.599
68.9843 4.454
69.0146 4.362
69.0448 4.634
69.0751 4.802
69.1054 4.346
69.1357 3.942
69.1660 3.643
69.1962 3.448
69.2265 3.722
69.2568 2.329
69.2871 2.447
69.3174 2.097
69.3476 1.903
69.3779 1.970
69.4082 1.256
69.4385 2.053
69.4687 0.558
69.4990 0.990
69.5293 0.798
69.5596 0.189
69.5899 1.352
69.6201 0.952
69.6504 0.969
69.6807 0.153
69.7110 0.118
69.7413 0.136
69.7715 0.623
69.8018 0.120
69.8321 -0.382
69.8624 0.158
69.8926 0.229
69.9229 -0.325
69.9532 -0.097
69.9835 -0.390
70.0138 0.152
70.0440 -0.087
70.0743 0.872
70.1046 0.320
70.1349 -0.127
70.1652 -0.261
70.1954 0.387
70.2257 -0.112
70.2560 -0.089
70.2863 -0.222
70.3166 0.166
70.3468 0.294
70.3771 -0.516
70.4074 0.081
70.4377 0.054
70.4679 0.130
70.4982 -0.209
70.5285 -0.080
70.5588 -0.055
70.5891 0.283
70.6193 0.257
70.6496 0.231
70.6799 -0.315
70.7102 -0.132
70.7405 0.415
70.7707 -0.078
70.8010 -0.363
70.8313 0.110
70.8616 -0.198
70.8918 0.120
70.9221 -0.135
70.9524 -0.337
70.9827 0.185
71.0130 -0.074
71.0432 -0.124
71.0735 0.712
71.1038 -0.431
71.1341 0.145
71.1644 -0.217
71.1946 0.359
71.2249 0.050
71.2552 0.210
71.2855 -0.098
71.3157 -0.094
71.3460 -0.193
71.3763 -0.397
71.4066 0.337
71.4369 0.343
71.4671 0.140
71.4974 0.302
71.5277 -0.421
71.5580 -0.206
71.5883 0.009
71.6185 -0.037
71.6488 0.543
71.6791 0.186
71.7094 -0.171
71.7396 -0.423
71.7699 0.522
71.8002 0.218
71.8305 -0.190
71.8608 -0.285
71.8910 0.233
71.9213 0.491
71.9516 0.332
71.9819 -0.191
72.0122 0.432
72.0424 0.483
72.0727 0.585
72.1030 0.011
72.1333 0.636
72.1635 1.156
72.1938 0.270
72.2241 0.218
72.2544 0.999
72.2847 0.948
72.3149 0.636
72.3452 1.053
72.3755 1.054
72.4058 0.847
72.4361 1.266
72.4663 0.226
72.4966 1.218
72.5269 0.908
72.5572 0.598
72.5874 0.653
72.6177 0.656
72.6480 1.128
72.6783 0.611
72.7086 1.448
72.7388 0.828
72.7691 0.728
72.7994 0.420
72.8297 0.373
72.8600 0.534
72.8902 0.331
72.9205 -0.027
72.9508 0.395
72.9811 0.922
73.0113 -0.009
73.0416 0.310
73.0719 0.474
73.1022 0.533
73.1325 0.072
73.1627 0.235
73.1930 0.035
73.2233 0.200
73.2536 0.468
73.2839 -0.096
73.3141 -0.035
73.3444 -0.182
73.3747 0.505
73.4050 0.150
73.4353 -0.048
73.4655 0.118
73.4958 0.285
73.5261 0.035
73.5564 -0.162
73.5866 -0.255
73.6169 0.054
73.6472 -0.210
73.6775 0.204
73.7078 0.409
73.7380 0.199
73.7683 0.248
73.7986 -0.170
73.8289 0.297
73.8592 0.191
73.8894 0.242
73.9197 0.189
73.9500 0.449
73.9803 -0.073
74.0105 0.344
74.0408 0.083
74.0711 0.344
74.1014 -0.124
74.1317 -0.019
74.1619 0.034
74.1922 0.035
74.2225 0.297
74.2528 -0.066
74.2831 0.457
74.3133 0.043
74.3436 -0.111
74.3739 0.256
74.4042 -0.209
74.4344 0.159
74.4647 0.266
74.4950 -0.251
74.5253 0.170
74.5556 0.226
74.5858 0.231
74.6161 -0.546
74.6464 -0.184
74.6767 -0.187
74.7070 -0.086
74.7372 -0.609
74.7675 0.222
74.7978 0.637
74.8281 0.218
74.8583 0.373
74.8886 -0.253
74.9189 0.319
74.9492 0.058
74.9795 0.266
75.0097 -0.203
75.0400 -0.255
75.0703 -0.255
75.1006 0.054
75.1309 0.207
75.1611 0.204
75.1914 0.045
75.2217 0.355
75.2520 -0.064
75.2822 0.246
75.3125 0.296
75.3428 -0.330
75.3731 0.554
75.4034 0.345
75.4336 0.344
75.4639 0.343
75.4942 0.499
75.5245 0.239
75.5548 0.083
75.5850 0.188
75.6153 -0.072
75.6456 0.189
75.6759 -0.070
75.7061 -0.016
75.7364 0.142
75.7667 0.196
75.7970 -0.323
75.8273 0.617
75.8575 0.516
75.8878 0.154
75.9181 -0.259
75.9484 -0.108
75.9787 0.200
76.0089 0.351
76.0392 0.191
76.0695 0.134
76.0998 0.443
76.1301 0.023
76.1603 0.540
76.1906 0.172
76.2209 0.690
76.2512 0.323
76.2814 0.894
76.3117 0.527
76.3420 0.369
76.3723 0.211
76.4026 0.314
76.4328 0.625
76.4631 0.520
76.4934 0.884
76.5237 0.467
76.5540 0.415
76.5842 0.415
76.6145 0.728
76.6448 0.729
76.6751 1.302
76.7053 1.460
76.7356 1.149
76.7659 0.994
76.7962 1.361
76.8265 1.363
76.8567 1.209
76.8870 1.576
76.9173 0.746
76.9476 1.270
76.9779 1.013
77.0081 0.704
77.0384 0.864
77.0687 0.608
77.0990 0.977
77.1292 1.086
77.1595 0.830
77.1898 0.835
77.2201 0.372
77.2504 0.117
77.2806 1.165
77.3109 0.963
77.3412 0.240
77.3715 -0.014
77.4018 0.670
77.4320 0.105
77.4623 0.164
77.4926 0.276
77.5229 0.701
77.5531 0.605
77.5834 0.665
77.6137 0.414
77.6440 0.110
77.6743 0.744
77.7045 0.441
77.7348 0.138
77.7651 0.878
77.7954 -0.050
77.8257 0.794
77.8559 0.076
77.8862 0.555
77.9165 0.723
77.9468 0.370
77.9770 0.017
78.0073 0.393
78.0376 0.041
78.0679 -0.519
78.0982 -0.006
78.1284 0.298
78.1587 0.604
78.1890 0.128
78.2193 0.121
78.2496 0.375
78.2798 0.160
78.3101 0.310
78.3404 -0.060
78.3707 -0.066
78.4009 0.293
78.4312 0.340
78.4615 0.440
78.4918 0.175
78.5221 0.535
78.5523 0.114
78.5826 -0.150
78.6129 -0.049
78.6432 0.312
78.6735 -0.056
78.7037 -0.163
78.7340 -0.165
78.7643 0.509
78.7946 0.143
78.8248 0.349
78.8551 0.139
78.8854 0.138
78.9157 -0.384
78.9460 0.292
78.9762 0.865
79.0065 0.031
79.0368 0.135
79.0671 0.187
79.0974 0.396
79.1276 0.189
79.1579 0.554
79.1882 -0.226
79.2185 -0.016
79.2488 0.298
79.2790 0.040
79.3093 0.563
79.3396 0.982
79.3699 0.255
79.4001 0.310
79.4304 -0.259
79.4607 0.161
79.4910 -0.304
79.5213 0.273
79.5515 0.121
79.5818 -0.292
79.6121 0.182
79.6424 -0.178
79.6727 0.036
79.7029 -0.167
79.7332 0.360
79.7635 0.261
79.7938 0.372
79.8240 0.326
79.8543 -0.084
79.8846 -0.233
79.9149 0.130
79.9452 0.181
79.9754 -0.080
80.0057 0.335
80.0360 0.804
80.0663 -0.134
80.0966 0.647
80.1268 0.283
80.1571 -0.081
80.1874 0.024
80.2177 0.441
80.2479 0.130
80.2782 -0.233
80.3085 -0.086
80.3388 0.166
80.3691 -0.207
80.3993 0.305
80.4296 -0.120
80.4599 0.445
80.4902 0.073
80.5205 -0.195
80.5507 0.371
80.5810 -0.104
80.6113 0.410
80.6416 0.143
80.6718 -0.175
80.7021 0.288
80.7324 0.386
80.7627 0.485
80.7930 0.272
80.8232 0.423
80.8535 0.210
80.8838 0.258
80.9141 0.566
80.9444 0.510
80.9746 0.403
81.0049 0.087
81.0352 0.709
81.0655 0.394
81.0957 0.651
81.1260 0.232
81.1563 1.116
81.1866 0.593
81.2169 0.383
81.2471 0.590
81.2774 0.225
81.3077 0.693
81.3380 1.005
81.3683 1.056
81.3985 0.223
81.4288 0.484
81.4591 0.536
81.4894 0.329
81.5196 0.798
81.5499 0.279
81.5802 0.384
81.6105 0.699
81.6408 0.232
81.6710 0.442
81.7013 0.237
81.7316 0.239
81.7619 0.242
81.7922 0.662
81.8224 0.093
81.8527 -0.008
81.8830 0.621
81.9133 0.521
81.9436 0.734
81.9738 0.062
82.0041 0.067
82.0344 0.020
82.0647 0.286
82.0949 0.188
82.1252 0.454
82.1555 0.252
82.1858 0.050
82.2161 0.265
82.2463 0.324
82.2766 0.175
82.3069 0.339
82.3372 0.191
82.3675 0.355
82.3977 -0.001
82.4280 0.215
82.4583 -0.140
82.4886 0.129
82.5188 -0.174
82.5491 -0.008
82.5794 -0.311
82.6097 0.045
82.6400 0.245
82.6702 0.029
82.7005 0.177
82.7308 0.326
82.7611 0.215
82.7914 0.624
82.8216 -0.007
82.8519 -0.118
82.8822 0.032
82.9125 0.182
82.9427 0.385
82.9730 -0.141
83.0033 0.010
83.0336 -0.464
83.0639 0.104
83.0941 0.360
83.1244 -0.217
83.1547 -0.065
83.1850 0.140
83.2153 -0.124
83.2455 0.081
83.2758 0.234
83.3061 0.232
83.3364 0.073
83.3666 -0.086
83.3969 0.329
83.4272 -0.193
83.4575 0.170
83.4878 0.429
83.5180 0.480
83.5483 0.011
83.5786 0.062
83.6089 -0.094
83.6392 0.062
83.6694 -0.042
83.6997 -0.145
83.7300 -0.197
83.7603 0.221
83.7905 0.639
83.8208 0.276
83.8511 0.538
83.8814 -0.397
83.9117 0.022
83.9419 0.233
83.9722 -0.441
84.0025 -0.179
84.0328 -0.073
84.0631 0.138
84.0933 -0.172
84.1236 -0.169
84.1539 0.563
84.1842 0.306
84.2144 0.570
84.2447 0.366
84.2750 0.161
84.3053 0.582
84.3356 -0.038
84.3658 -0.189
84.3961 -0.184
84.4264 -0.127
84.4567 0.139
84.4870 -0.428
84.5172 -0.057
84.5475 -0.467
84.5778 0.102
84.6081 -0.110
84.6383 0.407
84.6686 -0.378
84.6989 0.349
84.7292 0.033
84.7595 0.031
84.7897 0.341
84.8200 0.235
84.8503 0.129
84.8806 -0.029
84.9109 1.012
84.9411 0.282
84.9714 0.125
85.0017 0.645
85.0320 -0.240
85.0623 -0.032
85.0925 -0.032
85.1228 -0.187
85.1531 -0.239
85.1834 0.171
85.2136 0.321
85.2439 0.003
85.2742 0.049
85.3045 -0.217
85.3348 -0.066
85.3650 0.033
85.3953 0.341
85.4256 0.076
85.4559 0.645
85.4862 -0.193
85.5164 0.168
85.5467 -0.200
85.5770 0.057
85.6073 0.002
85.6375 -0.209
85.6678 -0.211
85.6981 0.516
85.7284 -0.216
85.7587 -0.165
85.7889 0.250
85.8192 -0.012
85.8495 0.456
85.8798 -0.170
85.9101 -0.222
85.9403 0.298
85.9706 -0.118
86.0009 -0.066
86.0312 0.195
86.0614 -0.169
86.0917 0.509
86.1220 -0.271
86.1523 0.460
86.1826 -0.215
86.2128 0.464
86.2431 0.414
86.2734 0.312
86.3037 -0.154
86.3340 0.214
86.3642 0.269
86.3945 0.064
86.4248 -0.244
86.4551 -0.240
86.4853 0.077
86.5156 0.290
86.5459 -0.434
86.5762 0.196
86.6065 0.618
86.6367 0.051
86.6670 -0.256
86.6973 0.376
86.7276 0.590
86.7579 -0.132
86.7881 0.083
86.8184 0.247
86.8487 -0.058
86.8790 -0.259
86.9092 0.100
86.9395 0.147
86.9698 -0.014
87.0001 0.241
87.0304 0.289
87.0606 -0.393
87.0909 -0.032
87.1212 0.381
87.1515 0.325
87.1818 0.114
87.2120 -0.046
87.2423 0.212
87.2726 0.782
87.3029 0.468
87.3331 0.309
87.3634 0.516
87.3937 0.515
87.4240 -0.060
87.4543 0.096
87.4845 0.564
87.5148 0.094
87.5451 0.511
87.5754 0.302
87.6057 0.042
87.6359 0.616
87.6662 0.304
87.6965 -0.164
87.7268 0.254
87.7571 0.256
87.7873 0.414
87.8176 -0.001
87.8479 -0.572
87.8782 0.039
87.9084 -0.080
87.9387 -0.199
87.9690 -0.005
87.9993 0.242
88.0296 0.280
88.0598 0.371
88.0901 0.670
88.1204 -0.228
88.1507 -0.189
88.1810 -0.045
88.2112 0.151
88.2415 0.348
88.2718 0.075
88.3021 0.116
88.3323 0.157
88.3626 -0.218
88.3929 0.083
88.4232 0.021
88.4535 0.063
88.4837 -0.260
88.5140 0.408
88.5443 0.242
88.5746 0.337
88.6049 -0.401
88.6351 0.476
88.6654 0.780
88.6957 -0.374
88.7260 0.243
88.7562 0.131
88.7865 0.593
88.8168 1.002
88.8471 0.162
88.8774 0.468
88.9076 0.409
88.9379 0.716
88.9682 0.397
88.9985 0.131
89.0288 0.855
89.0590 1.683
89.0893 1.001
89.1196 0.945
89.1499 0.940
89.1801 1.301
89.2104 1.088
89.2407 1.501
89.2710 1.498
89.3013 1.755
89.3315 1.128
89.3618 1.802
89.3921 2.321
89.4224 1.433
89.4527 1.223
89.4829 2.159
89.5132 2.470
89.5435 2.313
89.5738 1.947
89.6040 2.103
89.6343 2.050
89.6646 2.311
89.6949 1.842
89.7252 1.790
89.7554 1.739
89.7857 2.625
89.8160 1.897
89.8463 1.795
89.8766 1.848
89.9068 1.382
89.9371 1.800
89.9674 1.074
89.9977 1.285
90.0279 0.610
90.0582 1.135
90.0885 1.086
90.1188 0.933
90.1491 0.521
90.1793 0.837
90.2096 0.894
90.2399 0.378
90.2702 0.539
90.3005 0.284
90.3307 0.862
90.3610 0.086
90.3913 0.613
90.4216 -0.162
90.4518 -0.051
90.4821 0.164
90.5124 0.275
90.5427 0.334
90.5730 -0.335
90.6032 -0.171
90.6335 0.566
90.6638 0.678
90.6941 0.114
90.7244 0.175
90.7546 -0.337
90.7849 -0.132
90.8152 0.074
90.8455 0.020
90.8758 0.851
90.9060 -0.453
90.9363 -0.090
90.9666 0.221
90.9969 0.012
91.0271 -0.302
91.0574 0.218
91.0877 -0.407
91.1180 0.583
91.1483 -0.146
91.1785 0.271
91.2088 -0.458
91.2391 0.220
91.2694 -0.299
91.2997 -0.090
91.3299 0.016
91.3602 0.018
91.3905 -0.188
91.4208 -0.133
91.4510 0.286
91.4813 0.237
91.5116 0.396
91.5419 0.400
91.5722 -0.534
91.6024 -0.061
91.6327 -0.266
91.6630 -0.117
91.6933 0.657
91.7236 -0.183
91.7538 0.123
91.7841 0.221
91.8144 -0.410
91.8447 0.313
91.8749 -0.265
91.9052 -0.271
91.9355 -0.016
91.9658 0.395
91.9961 0.337
92.0263 -0.241
92.0566 0.796
92.0869 0.166
92.1172 0.475
92.1475 0.575
92.1777 -0.627
92.2080 0.307
92.2383 0.564
92.2686 0.248
92.2988 0.089
92.3291 0.190
92.3594 0.657
92.3897 0.238
92.4200 0.444
92.4502 0.599
92.4805 0.441
92.5108 0.388
92.5411 0.648
92.5714 0.178
92.6016 0.438
92.6319 0.595
92.6622 0.647
92.6925 0.543
92.7227 1.221
92.7530 0.336
92.7833 0.806
92.8136 0.651
92.8439 1.538
92.8741 0.603
92.9044 -0.072
92.9347 0.243
92.9650 0.558
92.9953 0.353
93.0255 0.512
93.0558 0.203
93.0861 0.467
93.1164 0.315
93.1466 0.631
93.1769 0.740
93.2072 0.380
93.2375 0.489
93.2678 0.025
93.2980 0.395
93.3283 -0.068
93.3586 0.042
93.3889 0.205
93.4192 0.003
93.4494 0.895
93.4797 0.381
93.5100 0.441
93.5403 0.708
93.5706 0.143
93.6008 -0.266
93.6311 -0.329
93.6614 0.337
93.6917 -0.091
93.7219 -0.362
93.7522 0.253
93.7825 0.451
93.8128 0.181
93.8431 0.119
93.8733 0.318
93.9036 -0.524
93.9339 0.457
93.9642 0.396
93.9945 0.023
94.0247 -0.141
94.0550 -0.149
94.0853 -0.053
94.1156 0.096
94.1458 -0.171
94.1761 0.395
94.2064 -0.028
94.2367 0.694
94.2670 -0.093
94.2972 0.214
94.3275 0.364
94.3578 -0.005
94.3881 -0.063
94.4184 0.193
94.4486 0.345
94.4789 0.861
94.5092 0.336
94.5395 0.593
94.5697 0.277
94.6000 0.534
94.6303 0.843
94.6606 0.528
94.6909 1.046
94.7211 1.096
94.7514 0.834
94.7817 0.936
94.8120 0.622
94.8423 1.350
94.8725 0.932
94.9028 1.036
94.9331 1.139
94.9634 1.503
94.9936 0.618
95.0239 1.660
95.0542 1.504
95.0845 1.140
95.1148 1.193
95.1450 1.559
95.1753 2.342
95.2056 2.291
95.2359 2.033
95.2662 1.775
95.2964 2.090
95.3267 1.572
95.3570 1.575
95.3873 2.515
95.4175 1.321
95.4478 1.898
95.4781 1.485
95.5084 1.541
95.5387 1.546
95.5689 0.978
95.5992 1.087
95.6295 1.144
95.6598 0.733
95.6901 0.843
95.7203 -0.088
95.7506 0.543
95.7809 1.226
95.8112 1.285
95.8414 0.771
95.8717 0.622
95.9020 0.838
95.9323 0.846
95.9626 0.437
95.9928 0.706
96.0231 0.194
96.0534 -0.058
96.0837 0.576
96.1140 0.377
96.1442 0.491
96.1745 0.240
96.2048 0.146
96.2351 -0.208
96.2653 0.896
96.2956 0.074
96.3259 0.605
96.3562 0.825
96.3865 0.576
96.4167 -0.141
96.4470 -0.181
96.4773 0.248
96.5076 -0.260
96.5379 -0.209
96.5681 0.311
96.5984 0.206
96.6287 -0.315
96.6590 0.362
96.6893 0.206
96.7195 0.259
96.7498 -0.157
96.7801 0.365
96.8104 0.106
96.8406 0.368
96.8709 -0.099
96.9012 -0.149
96.9315 -0.199
96.9618 0.221
96.9920 0.223
97.0223 -0.138
97.0526 -0.291
97.0829 0.286
97.1132 0.237
97.1434 0.710
97.1737 -0.275
97.2040 0.094
97.2343 0.099
97.2645 -0.208
97.2948 -0.255
97.3251 -0.110
97.3554 0.400
97.3857 0.025
97.4159 0.380
97.4462 0.943
97.4765 0.100
97.5068 0.195
97.5371 0.290
97.5673 0.020
97.5976 0.168
97.6279 0.680
97.6582 0.568
97.6884 -0.325
97.7187 0.084
97.7490 0.702
97.7793 0.226
97.8096 0.688
97.8398 0.993
97.8701 0.466
97.9004 0.564
97.9307 -0.067
97.9610 0.344
97.9912 0.235
98.0215 -0.343
98.0518 0.329
98.0821 0.116
98.1123 0.216
98.1426 0.056
98.1729 -0.157
98.2032 0.100
98.2335 0.566
98.2637 0.927
98.2940 1.601
98.3243 0.974
98.3546 1.128
98.3849 0.292
98.4151 1.384
98.4454 0.914
98.4757 1.694
98.5060 0.859
98.5362 0.650
98.5665 0.650
98.5968 0.910
98.6271 1.222
98.6574 0.650
98.6876 1.067
98.7179 0.963
98.7482 0.652
98.7785 0.861
98.8088 1.279
98.8390 1.020
98.8693 0.710
98.8996 0.660
98.9299 0.402
98.9601 1.238
98.9904 0.720
99.0207 0.255
99.0510 0.571
99.0813 0.001
99.1115 0.735
99.1418 0.322
99.1721 0.222
99.2024 0.383
99.2327 0.284
99.2629 0.237
99.2932 -0.018
99.3235 0.613
99.3538 -0.110
99.3841 0.313
99.4143 -0.045
99.4446 0.170
99.4749 0.073
99.5052 0.184
99.5354 -0.434
99.5657 0.251
99.5960 -0.157
99.6263 0.163
99.6566 0.276
99.6868 0.285
99.7171 -0.175
99.7474 0.043
99.7777 -0.260
99.8080 0.003
99.8382 -0.045
99.8685 -0.041
99.8988 0.327
99.9291 -0.502
99.9593 -0.237
99.9896 0.289
100.0199 0.034
100.0502 -0.013
100.0805 0.409
100.1107 0.311
100.1410 -0.204
100.1713 0.271
100.2016 0.434
100.2319 0.025
100.2621 0.188
100.2924 0.195
100.3227 -0.214
100.3530 -0.102
100.3832 -0.250
100.4135 0.071
100.4438 0.392
100.4741 0.193
100.5044 0.254
100.5346 0.420
100.5649 0.169
100.5952 -0.289
100.6255 0.242
100.6558 0.252
100.6860 0.680
100.7163 0.222
100.7466 -0.183
100.7769 0.141
100.8071 -0.108
100.8374 0.269
100.8677 0.541
100.8980 0.345
100.9283 0.462
100.9585 0.527
100.9888 -0.084
101.0191 -0.227
101.0494 0.068
101.0797 0.624
101.1099 0.660
101.1402 0.539
101.1705 0.211
101.2008 -0.014
101.2310 0.127
101.2613 0.528
101.2916 0.513
101.3219 0.186
101.3522 0.536
101.3824 0.209
101.4127 0.820
101.4430 0.962
101.4733 -0.093
101.5036 0.206
101.5338 0.141
101.5641 0.857
101.5944 0.011
101.6247 0.467
101.6549 -0.170
101.6852 -0.182
101.7155 0.275
101.7458 0.264
101.7761 0.097
101.8063 0.034
101.8366 -0.237
101.8669 -0.248
101.8972 0.003
101.9275 0.045
101.9577 -0.069
101.9880 -0.287
102.0183 0.381
102.0486 -0.617
102.0788 0.312
102.1091 -0.426
102.1394 0.035
102.1697 -0.441
102.2000 0.014
102.2302 0.002
102.2605 -0.115
102.2908 -0.283
102.3211 0.486
102.3514 0.318
102.3816 -0.319
102.4119 0.451
102.4422 0.076
102.4725 0.169
102.5028 0.107
102.5330 0.878
102.5633 0.139
102.5936 0.338
102.6239 0.016
102.6541 0.527
102.6844 0.570
102.7147 0.197
102.7450 0.293
102.7753 -0.028
102.8055 0.641
102.8358 0.321
102.8661 0.991
102.8964 0.671
102.9267 -0.377
102.9569 0.501
102.9872 0.912
103.0175 -0.084
103.0478 0.483
103.0780 1.050
103.1083 0.368
103.1386 0.415
103.1689 0.097
103.1992 0.405
103.2294 0.349
103.2597 0.553
103.2900 0.445
103.3203 0.233
103.3506 1.115
103.3808 0.226
103.4111 0.432
103.4414 0.429
103.4717 0.322
103.5019 0.529
103.5322 0.475
103.5625 0.109
103.5928 0.420
103.6231 0.783
103.6533 0.678
103.6836 0.573
103.7139 0.677
103.7442 0.989
103.7745 1.094
103.8047 0.990
103.8350 1.616
103.8653 0.471
103.8956 1.253
103.9258 0.525
103.9561 0.996
103.9864 1.050
104.0167 0.739
104.0470 1.888
104.0772 1.317
104.1075 2.518
104.1378 1.219
104.1681 0.754
104.1984 1.226
104.2286 1.230
104.2589 1.495
104.2892 1.708
104.3195 0.723
104.3497 0.884
104.3800 0.629
104.4103 1.259
104.4406 1.056
104.4709 0.958
104.5011 0.808
104.5314 0.242
104.5617 0.769
104.5920 0.255
104.6223 0.419
104.6525 0.426
104.6828 0.694
104.7131 0.494
104.7434 1.075
104.7736 0.406
104.8039 -0.054
104.8342 -0.097
104.8645 0.485
104.8948 0.078
104.9250 -0.068
104.9553 0.567
104.9856 0.056
105.0159 0.639
105.0462 0.390
105.0764 0.348
105.1067 -0.057
105.1370 -0.046
105.1673 0.539
105.1975 0.030
105.2278 -0.374
105.2581 0.055
105.2884 0.641
105.3187 -0.544
105.3489 -0.271
105.3792 -0.105
105.4095 0.373
105.4398 -0.242
105.4701 0.341
105.5003 -0.065
105.5306 0.050
105.5609 -0.043
105.5912 -0.188
105.6215 -0.177
105.6517 0.251
105.6820 0.107
105.7123 -0.089
105.7426 0.392
105.7728 -0.377
105.8031 0.261
105.8334 0.066
105.8637 -0.389
105.8940 -0.028
105.9242 0.177
105.9545 0.070
105.9848 -0.037
106.0151 0.273
106.0454 0.323
106.0756 0.112
106.1059 0.006
106.1362 0.161
106.1665 0.160
106.1967 0.419
106.2270 0.054
106.2573 -0.415
106.2876 0.158
106.3179 0.470
106.3481 0.210
106.3784 -0.154
106.4087 0.420
106.4390 0.316
106.4693 -0.255
106.4995 -0.366
106.5298 0.409
106.5601 0.351
106.5904 1.023
106.6206 -0.024
106.6509 -0.081
106.6812 -0.034
106.7115 0.169
106.7418 -0.095
106.7720 -0.204
106.8023 0.001
106.8326 0.206
106.8629 0.202
106.8932 -0.374
106.9234 -0.064
106.9537 0.506
106.9840 -0.382
107.0143 0.449
107.0445 0.135
107.0748 0.498
107.1051 0.236
107.1354 -0.077
107.1657 0.182
107.1959 -0.235
107.2262 0.494
107.2565 -0.079
107.2868 0.181
107.3171 0.130
107.3473 0.495
107.3776 0.183
107.4079 0.132
107.4382 0.342
107.4684 0.448
107.4987 -0.019
107.5290 -0.017
107.5593 -0.066
107.5896 0.040
107.6198 -0.165
107.6501 0.515
107.6804 0.154
107.7107 -0.103
107.7410 0.058
107.7712 0.166
107.8015 0.483
107.8318 0.279
107.8621 0.336
107.8923 0.133
107.9226 0.034
107.9529 0.457
107.9832 0.254
108.0135 -0.260
108.0437 0.215
108.0740 0.013
108.1043 -0.240
108.1346 -0.389
108.1649 0.278
108.1951 0.269
108.2254 -0.157
108.2557 0.095
108.2860 -0.018
108.3163 0.234
108.3465 -0.139
108.3768 -0.615
108.4071 0.471
108.4374 0.255
108.4676 0.456
108.4979 -0.019
108.5282 -0.442
108.5585 0.124
108.5888 -0.246
108.6190 0.112
108.6493 0.263
108.6796 -0.055
108.7099 0.409
108.7402 -0.325
108.7704 -0.069
108.8007 0.343
108.8310 -0.494
108.8613 0.179
108.8915 0.071
108.9218 -0.140
108.9521 0.273
108.9824 0.218
109.0127 -0.305
109.0429 0.474
109.0732 -0.205
109.1035 -0.467
109.1338 0.252
109.1641 -0.069
109.1943 -0.130
109.2246 0.174
109.2549 0.061
109.2852 -0.468
109.3154 -0.007
109.3457 0.089
109.3760 -0.231
109.4063 0.074
109.4366 -0.038
109.4668 -0.097
109.4971 0.730
109.5274 -0.110
109.5577 0.613
109.5880 -0.018
109.6182 0.184
109.6485 -0.290
109.6788 0.121
109.7091 -0.144
109.7393 0.632
109.7696 -0.153
109.7999 0.311
109.8302 -0.162
109.8605 0.407
109.8907 0.352
109.9210 -0.485
109.9513 0.450
109.9816 0.447
110.0119 0.444
110.0421 0.598
110.0724 0.596
110.1027 0.543
110.1330 0.541
110.1632 0.071
110.1935 0.383
110.2238 0.069
110.2541 0.850
110.2844 0.381
110.3146 0.954
110.3449 0.486
110.3752 1.111
110.4055 0.227
110.4358 -0.137
110.4660 0.489
110.4963 0.074
110.5266 0.284
110.5569 0.755
110.5871 0.757
110.6174 0.343
110.6477 0.658
110.6780 0.036
110.7083 0.196
110.7385 0.772
110.7688 0.360
110.7991 0.780
110.8294 -0.205
110.8597 -0.200
110.8899 0.325
110.9202 0.434
110.9505 0.700
110.9808 0.497
111.0110 0.711
111.0413 1.030
111.0716 -0.266
111.1019 -0.363
111.1322 0.314
111.1624 0.524
111.1927 0.056
111.2230 0.318
111.2533 -0.357
111.2836 0.113
111.3138 -0.249
111.3441 -0.090
111.3744 -0.140
111.4047 -0.345
111.4350 0.231
111.4652 0.078
111.4955 -0.074
111.5258 0.034
111.5561 -0.066
111.5863 0.459
111.6166 0.047
111.6469 0.000
111.6772 0.787
111.7075 -0.146
111.7377 0.121
111.7680 -0.811
111.7983 0.029
111.8286 -0.069
111.8589 -0.271
111.8891 -0.166
111.9194 0.200
111.9497 -0.007
111.9800 0.203
112.0102 -0.004
112.0405 0.050
112.0708 0.261
112.1011 0.680
112.1314 0.423
112.1616 0.061
112.1919 0.221
112.2222 0.068
112.2525 0.020
112.2828 0.128
112.3130 0.080
112.3433 0.241
112.3736 0.141
112.4039 0.094
112.4341 0.048
112.4644 -0.051
112.4947 0.059
112.5250 0.117
112.5553 -0.397
112.5855 0.286
112.6158 -0.019
112.6461 0.300
112.6764 -0.526
112.7067 0.107
112.7369 0.167
112.7672 -0.086
112.7975 -0.129
112.8278 0.140
112.8580 -0.164
112.8883 -0.259
112.9186 0.208
112.9489 0.363
112.9792 0.154
113.0094 0.154
113.0397 0.362
113.0700 0.049
113.1003 -0.003
113.1306 0.466
113.1608 0.154
113.1911 0.155
113.2214 0.365
113.2517 0.470
113.2819 -0.465
113.3122 -0.255
113.3425 -0.160
113.3728 0.508
113.4031 0.448
113.4333 -0.081
113.4636 0.276
113.4939 -0.253
113.5242 -0.260
113.5545 0.301
113.5847 0.185
113.6150 0.122
113.6453 0.164
113.6756 0.361
113.7058 0.039
113.7361 0.237
113.7664 0.175
113.7967 0.113
113.8270 -0.104
113.8572 0.095
113.8875 -0.122
113.9178 -0.131
113.9481 0.122
113.9784 0.009
114.0086 0.574
114.0389 0.046
114.0692 -0.638
114.0995 0.032
114.1298 0.390
114.1600 -0.190
114.1903 0.012
114.2206 0.423
114.2509 0.209
114.2811 0.099
114.3114 -0.219
114.3417 -0.015
114.3720 -0.280
114.4023 -0.235
114.4325 0.436
114.4628 0.013
114.4931 0.060
114.5234 0.158
114.5537 -0.159
114.5839 0.461
114.6142 -0.013
114.6445 0.243
114.6748 -0.021
114.7050 0.339
114.7353 0.075
114.7656 0.176
114.7959 -0.348
114.8262 -0.091
114.8564 0.219
114.8867 0.113
114.9170 0.162
114.9473 -0.464
114.9776 0.107
115.0078 -0.363
115.0381 -0.062
115.0684 0.812
115.0987 0.020
115.1289 -0.304
115.1592 0.415
115.1895 0.040
115.2198 -0.022
115.2501 0.333
115.2803 0.428
115.3106 0.106
115.3409 0.461
115.3712 0.192
115.4015 0.132
115.4317 0.280
115.4620 0.376
115.4923 0.889
115.5226 0.100
115.5528 1.499
115.5831 0.399
115.6134 0.757
115.6437 1.896
115.6740 0.483
115.7042 0.842
115.7345 1.461
115.7648 0.935
115.7951 0.409
115.8254 0.300
115.8556 0.816
115.8859 0.864
115.9162 1.380
115.9465 1.012
115.9767 0.956
116.0070 1.057
116.0373 1.418
116.0676 1.519
116.0979 1.829
116.1281 0.681
116.1584 1.825
116.1887 1.562
116.2190 1.456
116.2493 2.132
116.2795 1.454
116.3098 2.130
116.3401 0.931
116.3704 1.712
116.4006 1.348
116.4309 1.348
116.4612 1.556
116.4915 0.984
116.5218 1.714
116.5520 1.246
116.5823 1.091
116.6126 0.676
116.6429 1.512
116.6732 0.576
116.7034 1.672
116.7337 1.623
116.7640 1.053
116.7943 0.587
116.8245 0.278
116.8548 0.907
116.8851 1.015
116.9154 0.706
116.9457 1.388
116.9759 0.924
117.0062 0.876
117.0365 0.829
117.0668 1.147
117.0971 0.736
117.1273 0.586
117.1576 0.384
117.1879 0.390
117.2182 -0.176
117.2485 0.612
117.2787 0.150
117.3090 -0.155
117.3393 -0.043
117.3696 0.538
117.3998 0.702
117.4301 0.554
117.4604 0.042
117.4907 0.051
117.5210 -0.513
117.5512 0.070
117.5815 -0.233
117.6118 0.141
117.6421 -0.109
117.6724 0.110
117.7026 -0.088
117.7329 -0.494
117.7632 0.138
117.7935 -0.376
117.8237 0.048
117.8540 0.160
117.8843 -0.041
117.9146 -0.137
117.9449 -0.285
117.9751 0.139
118.0054 -0.062
118.0357 -0.211
118.0660 0.162
118.0963 -0.247
118.1265 -0.082
118.1568 0.292
118.1871 0.353
118.2174 -0.523
118.2476 0.059
118.2779 0.017
118.3082 0.391
118.3385 -0.171
118.3688 0.047
118.3990 0.058
118.4293 0.225
118.4596 -0.284
118.4899 0.405
118.5202 -0.365
118.5504 0.064
118.5807 0.441
118.6110 0.349
118.6413 -0.003
118.6715 0.323
118.7018 0.076
118.7321 -0.744
118.7624 0.624
118.7927 -0.352
118.8229 -0.129
118.8532 -0.010
118.8835 0.629
118.9138 -0.189
118.9441 0.451
118.9743 0.050
119.0046 0.170
119.0349 0.655
119.0652 0.255
119.0954 0.323
119.1257 0.340
119.1560 0.409
119.1863 0.427
119.2166 0.340
119.2468 0.879
119.2771 0.116
119.3074 0.342
119.3377 0.621
119.3680 0.796
119.3982 0.555
119.4285 0.314
119.4588 0.177
119.4891 0.197
119.5193 1.259
119.5496 1.123
119.5799 0.362
119.6102 0.279
119.6405 0.404
119.6707 0.634
119.7010 0.864
119.7313 0.365
119.7616 0.752
119.7919 0.774
119.8221 0.849
119.8524 0.871
119.8827 0.999
119.9130 1.126
119.9433 1.306
119.9735 0.549
120.0038 0.000
