'Id: "" Comment: "" Operator: "Lab Manager" Anode: "Cu" Scantype: "Locked Coupled" TimePerStep: "19.2" X: "9999" Y: "9999" Z: "9999" 
10.0015 0.000
10.0318 0.768
10.0620 0.599
10.0923 0.378
10.1226 0.627
10.1529 0.303
10.1832 1.072
10.2134 1.790
10.2437 0.113
10.2740 -0.001
10.3043 0.718
10.3346 0.604
10.3648 0.490
10.3951 -0.144
10.4254 0.941
10.4557 0.308
10.4859 0.821
10.5162 1.386
10.5465 0.545
10.5768 0.903
10.6071 1.000
10.6373 0.838
10.6676 0.832
10.6979 -0.059
10.7282 0.091
10.7585 0.555
10.7887 0.290
10.8190 0.390
10.8493 0.594
10.8796 0.487
10.9098 0.379
10.9401 0.012
10.9704 0.738
11.0007 0.215
11.0310 -0.047
11.0612 0.316
11.0915 0.262
11.1218 -0.416
11.1521 -0.206
11.1824 0.526
11.2126 0.112
11.2429 0.010
11.2732 0.430
11.3035 0.173
11.3337 0.542
11.3640 0.650
11.3943 0.238
11.4246 -0.330
11.4549 0.613
11.4851 1.503
11.5154 0.624
11.5457 0.161
11.5760 0.376
11.6063 0.800
11.6365 0.286
11.6668 1.440
11.6971 0.302
11.7274 0.883
11.7577 0.631
11.7879 0.275
11.8182 0.024
11.8485 -0.331
11.8788 -0.112
11.9090 -0.727
11.9393 0.742
11.9696 -0.029
11.9999 -0.538
12.0302 0.828
12.0604 -0.098
12.0907 -0.190
12.1210 0.708
12.1513 0.201
12.1816 0.943
12.2118 0.123
12.2421 0.398
12.2724 0.360
12.3027 0.114
12.3329 0.806
12.3632 0.874
12.3935 0.889
12.4238 0.697
12.4541 0.713
12.4843 0.938
12.5146 0.643
12.5449 -0.277
12.5752 -0.728
12.6055 0.311
12.6357 -0.264
12.6660 0.567
12.6963 0.722
12.7266 -0.529
12.7568 1.033
12.7871 1.136
12.8174 0.042
12.8477 0.303
12.8780 0.564
12.9082 0.200
12.9385 0.201
12.9688 0.724
12.9991 0.934
13.0294 0.259
13.0596 0.157
13.0899 0.160
13.1202 0.372
13.1505 1.157
13.1807 1.004
13.2110 -0.294
13.2413 -0.393
13.2716 0.497
13.3019 0.867
13.3321 1.810
13.3624 0.305
13.3927 0.312
13.4230 0.891
13.4533 1.627
13.4835 -0.136
13.5138 1.069
13.5441 -0.069
13.5744 0.617
13.6046 0.521
13.6349 0.374
13.6652 -0.086
13.6955 -0.180
13.7258 0.924
13.7560 1.090
13.7863 -0.045
13.8166 0.487
13.8469 -0.127
13.8772 0.093
13.9074 -0.416
13.9377 -0.062
13.9680 -0.073
13.9983 0.125
14.0285 0.792
14.0588 0.262
14.0891 0.253
14.1194 0.608
14.1497 0.704
14.1799 -0.086
14.2102 0.219
14.2405 0.159
14.2708 -0.786
14.3011 1.030
14.3313 0.399
14.3616 0.653
14.3919 -0.394
14.4222 0.433
14.4524 0.688
14.4827 0.163
14.5130 0.523
14.5433 0.050
14.5736 0.567
14.6038 0.094
14.6341 -0.482
14.6644 0.661
14.6947 0.034
14.7250 -0.646
14.7552 0.134
14.7855 0.705
14.8158 -0.338
14.8461 0.547
14.8764 0.651
14.9066 0.182
14.9369 -0.131
14.9672 0.182
14.9975 -0.442
15.0277 -0.131
15.0580 -0.080
15.0883 0.441
15.1186 0.649
15.1489 -0.601
15.1791 -0.289
15.2094 -0.080
15.2397 -0.131
15.2700 -0.494
15.3003 0.177
15.3305 0.224
15.3608 -0.354
15.3911 0.526
15.4214 0.574
15.4516 0.101
15.4819 0.566
15.5122 -0.011
15.5425 -0.066
15.5728 -0.538
15.6030 0.553
15.6333 0.187
15.6636 0.081
15.6939 0.392
15.7242 1.015
15.7544 0.233
15.7847 -0.080
15.8150 -0.236
15.8453 0.285
15.8755 -0.444
15.9058 0.599
15.9361 -0.286
15.9664 -0.024
15.9967 0.291
16.0269 -0.020
16.0572 -0.382
16.0875 0.559
16.1178 0.145
16.1481 -0.268
16.1783 -0.368
16.2086 -0.270
16.2389 -0.276
16.2692 0.135
16.2994 -0.078
16.3297 0.021
16.3600 0.433
16.3903 -0.352
16.4206 0.582
16.4508 0.057
16.4811 -0.258
16.5114 0.052
16.5417 0.362
16.5720 0.516
16.6022 0.045
16.6325 -0.112
16.6628 -0.165
16.6931 0.250
16.7233 -0.323
16.7536 -0.479
16.7839 0.459
16.8142 -0.218
16.8445 0.825
16.8747 -0.111
16.9050 0.307
16.9353 -0.525
16.9656 0.363
16.9959 0.053
17.0261 0.525
17.0564 0.424
17.0867 0.584
17.1170 -0.610
17.1472 0.749
17.1775 0.389
17.2078 0.081
17.2381 -0.174
17.2684 -0.220
17.2986 0.515
17.3289 0.626
17.3592 -0.618
17.3895 0.431
17.4198 -0.343
17.4500 0.446
17.4803 -0.327
17.5106 -0.058
17.5409 0.575
17.5712 -0.562
17.6014 0.229
17.6317 -0.126
17.6620 0.145
17.6923 0.103
17.7225 -0.251
17.7528 0.073
17.7831 -0.697
17.8134 0.044
17.8437 0.264
17.8739 -0.713
17.9042 0.290
17.9345 0.407
17.9648 0.264
17.9951 0.174
18.0253 -0.177
18.0556 0.306
18.0859 0.165
18.1162 0.493
18.1464 0.508
18.1767 0.159
18.2070 -0.345
18.2373 -0.137
18.2676 0.488
18.2978 0.384
18.3281 0.437
18.3584 0.022
18.3887 0.388
18.4190 0.494
18.4492 0.288
18.4795 0.707
18.5098 0.294
18.5401 0.662
18.5703 0.561
18.6006 1.034
18.6309 0.986
18.6612 0.991
18.6915 0.527
18.7217 0.272
18.7520 -0.087
18.7823 0.596
18.8126 0.602
18.8429 0.452
18.8731 0.668
18.9034 -0.054
18.9337 -0.046
18.9640 0.743
18.9942 0.178
19.0245 0.760
19.0548 0.717
19.0851 0.205
19.1154 0.163
19.1456 0.017
19.1759 -0.390
19.2062 0.019
19.2365 0.323
19.2668 0.263
19.2970 0.672
19.3273 0.249
19.3576 0.606
19.3879 1.537
19.4181 0.229
19.4484 0.276
19.4787 0.374
19.5090 0.213
19.5393 0.521
19.5695 0.360
19.5998 1.085
19.6301 -0.221
19.6604 0.505
19.6907 0.242
19.7209 0.135
19.7512 0.185
19.7815 0.860
19.8118 0.129
19.8420 0.648
19.8723 -0.342
19.9026 0.646
19.9329 0.229
19.9632 0.021
19.9934 0.334
20.0237 -0.290
20.0540 -0.342
20.0843 0.175
20.1146 0.119
20.1448 0.115
20.1751 0.319
20.2054 0.577
20.2357 1.043
20.2659 -0.418
20.2962 0.465
20.3265 -0.370
20.3568 0.826
20.3871 0.044
20.4173 0.408
20.4476 -0.114
20.4779 -0.218
20.5082 0.720
20.5385 -0.425
20.5687 0.096
20.5990 0.306
20.6293 0.359
20.6596 0.726
20.6899 -0.001
20.7201 -0.051
20.7504 0.317
20.7807 0.216
20.8110 0.167
20.8412 -0.141
20.8715 0.332
20.9018 0.441
20.9321 0.185
20.9624 0.190
20.9926 0.873
21.0229 0.254
21.0532 0.104
21.0835 -0.618
21.1138 0.118
21.1440 0.490
21.1743 1.018
21.2046 0.036
21.2349 0.618
21.2651 0.366
21.2954 0.375
21.3257 0.124
21.3560 -0.283
21.3863 0.820
21.4165 0.987
21.4468 0.164
21.4771 0.123
21.5074 0.447
21.5377 0.303
21.5679 1.408
21.5982 0.014
21.6285 -0.546
21.6588 0.017
21.6890 0.476
21.7193 0.622
21.7496 0.665
21.7799 0.969
21.8102 -0.290
21.8404 0.066
21.8707 0.267
21.9010 0.572
21.9313 0.148
21.9616 0.349
21.9918 0.551
22.0221 -0.081
22.0524 1.111
22.0827 0.273
22.1129 0.424
22.1432 0.262
22.1735 0.883
22.2038 -0.059
22.2341 -0.427
22.2643 0.350
22.2946 0.087
22.3249 -0.177
22.3552 -0.231
22.3855 -0.338
22.4157 -0.290
22.4460 0.279
22.4763 -0.089
22.5066 0.325
22.5368 0.738
22.5671 -0.410
22.5974 0.369
22.6277 -0.310
22.6580 -0.311
22.6882 -0.104
22.7185 0.207
22.7488 0.728
22.7791 0.103
22.8094 -0.106
22.8396 0.103
22.8699 -0.209
22.9002 -0.937
22.9305 0.257
22.9607 0.149
22.9910 -0.324
23.0213 -0.327
23.0516 0.764
23.0819 0.188
23.1121 -0.075
23.1424 0.027
23.1727 -0.131
23.2030 0.024
23.2333 0.284
23.2635 0.335
23.2938 -0.395
23.3241 0.543
23.3544 -0.186
23.3846 -0.342
23.4149 -0.190
23.4452 0.744
23.4755 -0.509
23.5058 0.269
23.5360 0.474
23.5663 -0.466
23.5966 0.053
23.6269 -0.105
23.6572 -0.055
23.6874 0.204
23.7177 -0.369
23.7480 0.151
23.7783 0.099
23.8086 0.984
23.8388 -0.213
23.8691 -0.212
23.8994 0.414
23.9297 0.624
23.9599 -0.468
23.9902 0.159
24.0205 -0.203
24.0508 -0.200
24.0811 0.116
24.1113 0.640
24.1416 -0.658
24.1719 -0.342
24.2022 0.226
24.2325 0.116
24.2627 -0.253
24.2930 0.003
24.3233 -0.731
24.3536 0.672
24.3838 0.147
24.4141 -0.116
24.4444 0.298
24.4747 -0.017
24.5050 0.345
24.5352 -0.386
24.5655 0.133
24.5958 0.028
24.6261 0.548
24.6564 0.391
24.6866 -0.547
24.7169 0.339
24.7472 0.287
24.7775 -0.076
24.8077 0.081
24.8380 0.083
24.8683 0.085
24.8986 -0.017
24.9289 0.610
24.9591 -0.272
24.9894 0.252
25.0197 0.307
25.0500 -0.158
25.0803 0.159
25.1105 0.059
25.1408 0.273
25.1711 -0.139
25.2014 -0.342
25.2316 0.070
25.2619 -0.038
25.2922 0.479
25.3225 0.058
25.3528 0.472
25.3830 0.416
25.4133 0.153
25.4436 0.099
25.4739 0.045
25.5042 -0.269
25.5344 0.979
25.5647 0.145
25.5950 0.300
25.6253 -0.012
25.6555 -0.325
25.6858 0.300
25.7161 0.874
25.7464 0.667
25.7767 0.616
25.8069 0.201
25.8372 0.151
25.8675 1.195
25.8978 -0.052
25.9281 0.263
25.9583 0.423
25.9886 0.947
26.0189 0.014
26.0492 0.018
26.0794 -0.342
26.1097 -0.248
26.1400 -0.257
26.1703 0.462
26.2006 -0.016
26.2308 0.444
26.2611 0.644
26.2914 -0.146
26.3217 0.315
26.3520 -0.161
26.3822 -0.220
26.4125 0.658
26.4428 0.548
26.4731 -0.084
26.5034 -0.194
26.5336 0.426
26.5639 0.369
26.5942 -0.209
26.6245 -0.214
26.6547 0.616
26.6850 -0.534
26.7153 0.087
26.7456 -0.072
26.7759 0.602
26.8061 0.496
26.8364 -0.184
26.8667 0.856
26.8970 -0.135
26.9273 -0.084
26.9575 -0.241
26.9878 -0.554
27.0181 0.852
27.0484 0.801
27.0786 1.218
27.1089 0.125
27.1392 0.595
27.1695 -0.185
27.1998 0.286
27.2300 0.392
27.2603 0.343
27.2906 0.710
27.3209 0.505
27.3512 0.040
27.3814 0.773
27.4117 -0.212
27.4420 -0.364
27.4723 0.243
27.5025 0.069
27.5328 0.520
27.5631 0.451
27.5934 0.382
27.6237 0.887
27.6539 0.245
27.6842 0.803
27.7145 0.579
27.7448 0.459
27.7751 0.288
27.8053 0.378
27.8356 0.312
27.8659 0.767
27.8962 -0.132
27.9264 0.115
27.9567 -0.054
27.9870 0.142
28.0173 1.068
28.0476 -0.715
28.0778 0.315
28.1081 0.512
28.1384 1.283
28.1687 0.804
28.1990 -0.144
28.2292 -0.154
28.2595 0.983
28.2898 0.349
28.3201 0.288
28.3503 -0.085
28.3806 0.428
28.4109 0.733
28.4412 0.309
28.4715 0.145
28.5017 0.243
28.5320 0.341
28.5623 0.595
28.5926 0.277
28.6229 0.740
28.6531 0.527
28.6834 0.105
28.7137 0.101
28.7440 0.305
28.7742 0.614
28.8045 0.559
28.8348 1.233
28.8651 0.449
28.8954 -0.178
28.9256 0.653
28.9559 0.860
28.9862 0.390
29.0165 -0.340
29.0468 0.492
29.0770 0.909
29.1073 0.492
29.1376 -0.289
29.1679 0.285
29.1981 -0.183
29.2284 -0.390
29.2587 0.197
29.2890 0.315
29.3193 0.277
29.3495 0.083
29.3798 1.036
29.4101 -0.095
29.4404 0.494
29.4707 0.041
29.5009 0.213
29.5312 0.490
29.5615 0.924
29.5918 -0.361
29.6221 0.907
29.6523 -0.013
29.6826 0.578
29.7129 0.545
29.7432 -0.009
29.7734 0.219
29.8037 0.603
29.8340 1.040
29.8643 -0.190
29.8946 0.612
29.9248 0.268
29.9551 0.237
29.9854 0.988
30.0157 0.281
30.0460 0.564
30.0762 0.482
30.1065 1.703
30.1368 0.216
30.1671 -0.020
30.1973 0.420
30.2276 0.340
30.2579 0.001
30.2882 0.026
30.3185 0.572
30.3487 0.754
30.3790 0.936
30.4093 0.858
30.4396 0.625
30.4699 1.537
30.5001 1.200
30.5304 1.384
30.5607 1.360
30.5910 0.451
30.6212 1.834
30.6515 0.717
30.6818 2.309
30.7121 2.391
30.7424 2.681
30.7726 2.243
30.8029 2.430
30.8332 2.930
30.8635 1.607
30.8938 3.931
30.9240 4.744
30.9543 5.297
30.9846 3.611
31.0149 5.207
31.0451 5.345
31.0754 5.326
31.1057 5.829
31.1360 6.801
31.1663 7.722
31.1965 9.840
31.2268 10.605
31.2571 10.589
31.2874 14.843
31.3177 15.036
31.3479 16.636
31.3782 18.652
31.4085 22.596
31.4388 24.040
31.4690 27.151
31.4993 30.419
31.5296 30.197
31.5599 32.945
31.5902 36.422
31.6204 39.170
31.6507 39.835
31.6810 37.063
31.7113 35.542
31.7416 37.302
31.7718 30.781
31.8021 29.156
31.8324 28.365
31.8627 22.991
31.8929 21.888
31.9232 16.931
31.9535 17.079
31.9838 15.456
32.0141 13.574
32.0443 10.649
32.0746 8.924
32.1049 8.865
32.1352 6.098
32.1655 5.154
32.1957 4.680
32.2260 5.455
32.2563 4.044
32.2866 4.248
32.3169 3.670
32.3471 3.354
32.3774 3.819
32.4077 2.357
32.4380 2.771
32.4682 1.414
32.4985 0.474
32.5288 1.930
32.5591 1.564
32.5894 0.417
32.6196 1.197
32.6499 1.144
32.6802 1.821
32.7105 1.977
32.7408 0.727
32.7710 0.207
32.8013 1.093
32.8316 0.365
32.8619 1.513
32.8921 0.161
32.9224 1.361
32.9527 0.739
32.9830 -0.092
33.0133 -0.505
33.0435 -0.418
33.0738 0.033
33.1041 -0.296
33.1344 0.677
33.1647 0.713
33.1949 -0.501
33.2252 0.734
33.2555 -0.219
33.2858 -0.130
33.3160 -0.040
33.3463 -0.106
33.3766 1.234
33.4069 -0.550
33.4372 0.270
33.4674 0.205
33.4977 1.026
33.5280 0.233
33.5583 1.992
33.5886 0.887
33.6188 1.605
33.6491 2.063
33.6794 1.948
33.7097 1.053
33.7399 1.459
33.7702 2.023
33.8005 2.587
33.8308 3.099
33.8611 5.018
33.8913 4.853
33.9216 4.898
33.9519 5.671
33.9822 9.466
34.0125 7.168
34.0427 10.287
34.0730 12.156
34.1033 14.442
34.1336 18.290
34.1638 19.483
34.1941 27.812
34.2244 36.558
34.2547 44.470
34.2850 51.550
34.3152 54.776
34.3455 49.096
34.3758 44.458
34.4061 38.101
34.4364 30.130
34.4666 25.545
34.4969 17.523
34.5272 16.793
34.5575 12.782
34.5877 9.761
34.6180 9.865
34.6483 7.001
34.6786 7.522
34.7089 5.648
34.7391 5.025
34.7694 4.037
34.7997 4.612
34.8300 5.708
34.8603 4.357
34.8905 4.516
34.9208 2.905
34.9511 1.971
34.9814 2.079
35.0116 4.115
35.0419 3.651
35.0722 2.718
35.1025 3.349
35.1328 3.876
35.1630 3.205
35.1933 4.201
35.2236 3.739
35.2539 3.642
35.2842 5.316
35.3144 6.417
35.3447 5.123
35.3750 5.340
35.4053 6.391
35.4356 6.816
35.4658 7.295
35.4961 6.054
35.5264 7.940
35.5567 8.523
35.5869 9.419
35.6172 12.868
35.6475 12.984
35.6778 13.829
35.7081 13.945
35.7383 16.770
35.7686 20.168
35.7989 21.640
35.8292 22.747
35.8595 26.407
35.8897 33.557
35.9200 34.457
35.9503 36.034
35.9806 38.810
36.0108 43.929
36.0411 50.508
36.0714 54.743
36.1017 54.499
36.1320 59.620
36.1622 58.960
36.1925 54.863
36.2228 56.027
36.2531 52.191
36.2834 46.637
36.3136 41.499
36.3439 39.175
36.3742 29.038
36.4045 28.850
36.4347 24.703
36.4650 21.339
36.4953 21.047
36.5256 16.120
36.5559 14.840
36.5861 14.029
36.6164 11.863
36.6467 10.844
36.6770 8.576
36.7073 8.026
36.7375 9.456
36.7678 7.188
36.7981 6.692
36.8284 4.894
36.8586 5.387
36.8889 4.423
36.9192 3.459
36.9495 4.371
36.9798 3.147
37.0100 3.486
37.0403 3.722
37.0706 2.238
37.1009 1.797
37.1312 2.971
37.1614 2.427
37.1917 2.091
37.2220 2.328
37.2523 2.149
37.2825 0.565
37.3128 0.647
37.3431 1.979
37.3734 1.802
37.4037 0.166
37.4339 0.510
37.4642 0.594
37.4945 0.990
37.5248 -0.488
37.5551 0.431
37.5853 0.620
37.6156 0.445
37.6459 0.791
37.6762 0.669
37.7064 0.443
37.7367 0.582
37.7670 0.617
37.7973 0.184
37.8276 0.689
37.8578 0.933
37.8881 -0.072
37.9184 0.329
37.9487 0.002
37.9790 -0.117
38.0092 -0.027
38.0395 0.063
38.0698 0.102
38.1001 -0.016
38.1304 -0.133
38.1606 0.636
38.1909 0.103
38.2212 -0.221
38.2515 0.080
38.2817 0.381
38.3120 -0.515
38.3423 -0.057
38.3726 -0.119
38.4029 -0.442
38.4331 0.147
38.4634 0.215
38.4937 0.284
38.5240 -0.012
38.5543 0.474
38.5845 -0.706
38.6148 -0.376
38.6451 -0.361
38.6754 0.018
38.7056 0.450
38.7359 -0.003
38.7662 0.221
38.7965 0.290
38.8268 -0.267
38.8570 -0.302
38.8873 -0.337
38.9176 0.202
38.9479 0.115
38.9782 0.498
39.0084 -0.108
39.0387 -0.297
39.0690 -0.018
39.0993 0.158
39.1295 -0.291
39.1598 0.094
39.1901 0.896
39.2204 0.344
39.2507 0.261
39.2809 -0.186
39.3112 0.721
39.3415 0.275
39.3718 0.194
39.4021 0.164
39.4323 0.813
39.4626 0.316
39.4929 -0.338
39.5232 -0.273
39.5534 0.000
39.5837 0.014
39.6140 0.079
39.6443 0.562
39.6746 -0.257
39.7048 -0.139
39.7351 0.293
39.7654 0.516
39.7957 -0.197
39.8260 -0.546
39.8562 0.235
39.8865 0.235
39.9168 0.340
39.9471 -0.128
39.9773 0.550
40.0076 0.082
40.0379 0.084
40.0682 0.086
40.0985 -0.172
40.1287 -0.013
40.1590 0.146
40.1893 -0.319
40.2196 0.153
40.2499 0.418
40.2801 -0.619
40.3104 0.219
40.3407 0.120
40.3710 -0.187
40.4012 0.027
40.4315 -0.540
40.4618 0.039
40.4921 -0.267
40.5224 -0.207
40.5526 0.113
40.5829 0.068
40.6132 -0.028
40.6435 -0.228
40.6738 -0.271
40.7040 0.259
40.7343 0.216
40.7646 -0.190
40.7949 -0.076
40.8251 -0.066
40.8554 0.206
40.8857 -0.200
40.9160 0.280
40.9463 0.448
40.9765 -0.216
41.0068 -0.308
41.0371 -0.091
41.0674 -0.081
41.0977 -0.124
41.1279 -0.061
41.1582 -0.363
41.1885 0.106
41.2188 0.159
41.2491 -0.100
41.2793 -0.099
41.3096 0.008
41.3399 0.270
41.3702 -0.196
41.4004 0.380
41.4307 0.331
41.4610 0.283
41.4913 0.131
41.5216 -0.126
41.5518 0.764
41.5821 -0.116
41.6124 0.150
41.6427 0.155
41.6730 0.057
41.7032 -0.145
41.7335 0.175
41.7638 0.442
41.7941 0.553
41.8243 0.509
41.8546 0.100
41.8849 -0.047
41.9152 0.586
41.9455 0.335
41.9757 1.021
42.0060 0.041
42.0363 0.624
42.0666 0.374
42.0969 -0.031
42.1271 -0.281
42.1574 0.147
42.1877 -0.101
42.2180 0.015
42.2482 -0.285
42.2785 -0.242
42.3088 -0.093
42.3391 0.628
42.3694 -0.004
42.3996 0.509
42.4299 0.711
42.4602 0.288
42.4905 -0.239
42.5208 -0.349
42.5510 0.427
42.5813 0.266
42.6116 -0.364
42.6419 -0.004
42.6721 0.201
42.7024 0.145
42.7327 0.037
42.7630 -0.643
42.7933 0.969
42.8235 -0.023
42.8538 -0.442
42.8841 0.073
42.9144 0.483
42.9447 -0.252
42.9749 0.264
43.0052 0.675
43.0355 -0.059
43.0658 -0.115
43.0960 0.401
43.1263 -0.175
43.1566 0.029
43.1869 0.651
43.2172 0.232
43.2474 -0.135
43.2777 -0.033
43.3080 0.173
43.3383 -0.141
43.3686 0.379
43.3988 -0.090
43.4291 -0.299
43.4594 0.059
43.4897 -0.052
43.5199 0.620
43.5502 0.041
43.5805 1.026
43.6108 0.552
43.6411 0.235
43.6713 0.126
43.7016 -0.190
43.7319 -0.298
43.7622 0.116
43.7925 0.113
43.8227 0.215
43.8530 0.421
43.8833 0.107
43.9136 0.313
43.9439 -0.052
43.9741 -0.262
44.0044 -0.106
44.0347 -0.523
44.0650 0.363
44.0952 0.155
44.1255 0.364
44.1558 0.053
44.1861 0.003
44.2164 0.369
44.2466 0.475
44.2769 0.426
44.3072 -0.300
44.3375 -0.245
44.3678 0.019
44.3980 0.179
44.4283 -0.233
44.4586 -0.125
44.4889 0.193
44.5191 0.406
44.5494 -0.109
44.5797 -0.520
44.6100 0.142
44.6403 1.221
44.6705 0.374
44.7008 -0.005
44.7311 0.033
44.7614 -0.084
44.7917 -0.410
44.8219 0.150
44.8522 0.086
44.8825 1.064
44.9128 0.427
44.9430 -0.157
44.9733 -0.064
45.0036 0.446
45.0339 0.331
45.0642 0.009
45.0944 0.312
45.1247 0.355
45.1550 0.189
45.1853 -0.549
45.2156 0.068
45.2458 -0.461
45.2761 0.678
45.3064 -0.007
45.3367 -0.014
45.3669 -0.229
45.3972 0.390
45.4275 0.072
45.4578 -0.820
45.4881 0.425
45.5183 -0.153
45.5486 -0.157
45.5789 0.151
45.6092 -0.061
45.6395 -0.325
45.6697 -0.081
45.7000 -0.202
45.7303 -0.114
45.7606 -0.234
45.7908 -0.093
45.8211 -0.316
45.8514 0.138
45.8817 0.176
45.9120 0.162
45.9422 -0.581
45.9725 0.031
46.0028 -0.347
46.0331 0.318
46.0634 -0.215
46.0936 0.242
46.1239 0.178
46.1542 -0.302
46.1845 0.052
46.2147 -0.480
46.2450 0.500
46.2753 -0.135
46.3056 0.428
46.3359 0.210
46.3661 0.670
46.3964 0.349
46.4267 0.810
46.4570 0.489
46.4873 0.169
46.5175 -0.202
46.5478 0.155
46.5781 0.774
46.6084 0.455
46.6386 0.658
46.6689 -0.181
46.6992 0.386
46.7295 0.694
46.7598 0.429
46.7900 1.258
46.8203 2.088
46.8506 1.043
46.8809 1.665
46.9112 1.766
46.9414 2.597
46.9717 2.803
47.0020 1.759
47.0323 3.685
47.0626 4.413
47.0928 5.350
47.1231 3.787
47.1534 5.558
47.1837 5.454
47.2139 6.913
47.2442 7.851
47.2745 8.373
47.3048 11.135
47.3351 10.564
47.3653 10.931
47.3956 10.933
47.4259 11.978
47.4562 11.408
47.4865 10.995
47.5167 10.270
47.5470 8.972
47.5773 8.248
47.6076 8.201
47.6378 7.008
47.6681 7.586
47.6984 6.603
47.7287 4.474
47.7590 3.595
47.7892 3.289
47.8195 3.453
47.8498 2.523
47.8801 2.635
47.9104 2.696
47.9406 1.506
47.9709 1.567
48.0012 1.316
48.0315 0.753
48.0617 0.815
48.0920 1.034
48.1223 1.618
48.1526 1.160
48.1829 0.546
48.2131 -0.067
48.2434 0.987
48.2737 0.426
48.3040 0.595
48.3343 0.296
48.3645 0.309
48.3948 0.791
48.4251 0.180
48.4554 0.143
48.4856 0.366
48.5159 0.120
48.5462 -0.125
48.5765 0.204
48.6068 0.116
48.6370 0.809
48.6673 0.618
48.6976 -0.407
48.7279 -0.337
48.7582 0.455
48.7884 -0.055
48.8187 0.061
48.8490 0.282
48.8793 0.398
48.9095 -0.006
48.9398 -0.045
48.9701 0.594
49.0004 0.347
49.0307 0.049
49.0609 0.792
49.0912 0.911
49.1215 -0.636
49.1518 -0.308
49.1821 0.322
49.2123 0.171
49.2426 -0.031
49.2729 -0.598
49.3032 0.080
49.3334 -0.543
49.3637 0.135
49.3940 -0.227
49.4243 -0.173
49.4546 0.091
49.4848 0.510
49.5151 0.305
49.5454 0.570
49.5757 0.053
49.6060 0.734
49.6362 -0.355
49.6665 0.328
49.6968 -0.344
49.7271 0.183
49.7574 -0.228
49.7876 -0.378
49.8179 0.514
49.8482 -0.364
49.8785 0.321
49.9087 -0.244
49.9390 -0.028
49.9693 -0.072
49.9996 -0.375
50.0299 0.415
50.0601 -0.200
50.0904 -0.295
50.1207 -0.611
50.1510 0.428
50.1813 0.477
50.2115 0.318
50.2418 0.629
50.2721 0.835
50.3024 -0.208
50.3326 -0.053
50.3629 -0.054
50.3932 0.258
50.4235 0.102
50.4538 0.310
50.4840 0.259
50.5143 -0.053
50.5446 -0.104
50.5749 -0.727
50.6052 0.316
50.6354 0.787
50.6657 -0.252
50.6960 0.219
50.7263 -0.038
50.7565 -0.295
50.7868 -0.189
50.8171 0.020
50.8474 0.126
50.8777 0.180
50.9079 -0.442
50.9382 0.133
50.9685 0.084
50.9988 -0.017
51.0291 -0.325
51.0593 0.199
51.0896 -0.265
51.1199 0.104
51.1502 0.057
51.1804 0.063
51.2107 0.173
51.2410 -0.290
51.2713 -0.234
51.3016 -0.126
51.3318 0.608
51.3621 0.144
51.3924 0.045
51.4227 0.154
51.4530 -0.100
51.4832 0.114
51.5135 0.121
51.5438 -0.341
51.5741 0.135
51.6043 0.142
51.6346 -0.006
51.6649 -0.363
51.6952 0.375
51.7255 0.280
51.7557 0.497
51.7860 0.298
51.8163 -0.161
51.8466 0.631
51.8769 0.068
51.9071 -0.285
51.9374 -0.036
51.9677 0.162
51.9980 0.517
52.0282 0.924
52.0585 0.185
52.0888 0.697
52.1191 -0.406
52.1494 0.731
52.1796 0.098
52.2099 0.299
52.2402 0.187
52.2705 0.337
52.3008 0.486
52.3310 -0.041
52.3613 -0.360
52.3916 0.364
52.4219 -0.163
52.4521 0.041
52.4824 0.192
52.5127 0.084
52.5430 0.236
52.5733 0.024
52.6035 0.229
52.6338 0.538
52.6641 0.223
52.6944 0.168
52.7247 0.323
52.7549 0.373
52.7852 0.684
52.8155 -0.046
52.8458 0.162
52.8761 -0.151
52.9063 -0.047
52.9366 0.110
52.9669 -0.150
52.9972 -0.045
53.0274 -0.044
53.0577 1.000
53.0880 -0.196
53.1183 0.327
53.1486 -0.452
53.1788 -0.032
53.2091 -0.237
53.2394 -0.337
53.2697 0.274
53.3000 0.469
53.3302 -0.169
53.3605 0.079
53.3908 0.119
53.4211 0.471
53.4513 1.137
53.4816 -0.541
53.5119 0.073
53.5422 0.375
53.5725 0.208
53.6027 0.251
53.6330 0.189
53.6633 0.440
53.6936 0.483
53.7239 -0.150
53.7541 -0.002
53.7844 0.459
53.8147 -0.226
53.8450 -0.494
53.8752 0.269
53.9055 -0.062
53.9358 0.076
53.9661 -0.151
53.9964 -0.168
54.0266 -0.394
54.0569 0.266
54.0872 -0.271
54.1175 -0.287
54.1478 -0.199
54.1780 -0.006
54.2083 0.187
54.2386 -0.140
54.2689 -0.311
54.2991 -0.325
54.3294 0.176
54.3597 -0.884
54.3900 -0.123
54.4203 -0.090
54.4505 -0.265
54.4808 -0.023
54.5111 -0.146
54.5414 0.097
54.5717 -0.442
54.6019 -0.044
54.6322 0.198
54.6625 -0.342
54.6928 -0.254
54.7230 0.303
54.7533 -0.703
54.7836 0.375
54.8139 -0.161
54.8442 0.345
54.8744 -0.295
54.9047 0.159
54.9350 0.041
54.9653 -0.337
54.9956 1.108
55.0258 0.210
55.0561 0.041
55.0864 -0.180
55.1167 0.069
55.1469 0.005
55.1772 -0.058
55.2075 -0.226
55.2378 0.545
55.2681 0.535
55.2983 0.942
55.3286 -0.318
55.3589 0.766
55.3892 -0.076
55.4195 0.176
55.4497 0.637
55.4800 0.472
55.5103 0.361
55.5406 0.041
55.5709 1.336
55.6011 0.340
55.6314 0.959
55.6617 0.797
55.6920 1.052
55.7222 0.786
55.7525 0.573
55.7828 2.443
55.8131 1.658
55.8434 2.591
55.8736 2.432
55.9039 2.376
55.9342 1.540
55.9645 3.204
55.9948 3.254
56.0250 3.096
56.0553 3.720
56.0856 5.125
56.1159 4.864
56.1461 4.446
56.1764 6.269
56.2067 6.842
56.2370 8.093
56.2673 8.302
56.2975 8.928
56.3278 9.034
56.3581 12.994
56.3884 12.684
56.4187 17.374
56.4489 15.346
56.4792 17.328
56.5095 14.102
56.5398 15.044
56.5700 13.433
56.6003 14.011
56.6306 12.245
56.6609 11.261
56.6912 10.850
56.7214 8.824
56.7517 8.622
56.7820 6.129
56.8123 5.875
56.8426 6.612
56.8728 5.578
56.9031 4.961
56.9334 3.979
56.9637 3.571
56.9939 2.903
57.0242 3.954
57.0545 2.453
57.0848 2.672
57.1151 2.109
57.1453 1.964
57.1756 2.079
57.2059 1.413
57.2362 1.581
57.2665 1.020
57.2967 0.512
57.3270 1.201
57.3573 1.475
57.3876 1.228
57.4178 0.929
57.4481 0.891
57.4784 0.332
57.5087 0.764
57.5390 0.466
57.5692 0.742
57.5995 0.289
57.6298 -0.060
57.6601 -0.095
57.6904 0.755
57.7206 0.147
57.7509 0.008
57.7812 0.442
57.8115 -0.008
57.8417 0.583
57.8720 0.394
57.9023 -0.525
57.9326 -0.193
57.9629 -0.329
57.9931 0.042
58.0234 0.309
58.0537 0.680
58.0840 0.219
58.1143 0.383
58.1445 0.443
58.1748 0.087
58.2051 0.044
58.2354 0.001
58.2656 -0.198
58.2959 0.072
58.3262 -0.126
58.3565 0.040
58.3868 0.051
58.4170 0.010
58.4473 0.178
58.4776 -0.175
58.5079 0.358
58.5382 -0.046
58.5684 -0.190
58.5987 -0.072
58.6290 0.358
58.6593 0.267
58.6896 0.021
58.7198 0.140
58.7501 -0.106
58.7804 -0.299
58.8107 -0.440
58.8409 0.461
58.8712 -0.304
58.9015 -0.510
58.9318 0.535
58.9621 0.746
58.9923 0.489
59.0226 -0.185
59.0529 0.080
59.0832 0.866
59.1135 0.037
59.1437 0.719
59.1740 0.516
59.2043 0.053
59.2346 0.007
59.2648 -0.299
59.2951 -0.203
59.3254 -0.002
59.3557 0.459
59.3860 0.036
59.4162 0.081
59.4465 0.075
59.4768 0.173
59.5071 0.271
59.5374 0.058
59.5676 -0.051
59.5979 0.048
59.6282 0.096
59.6585 -0.377
59.6887 0.557
59.7190 0.294
59.7493 -0.022
59.7796 -0.181
59.8099 0.182
59.8401 -0.393
59.8704 0.126
59.9007 0.021
59.9310 -0.084
59.9613 0.853
59.9915 -0.241
60.0218 0.019
60.0521 -0.032
60.0824 0.698
60.1126 0.438
60.1429 0.127
60.1732 0.181
60.2035 -0.442
60.2338 -0.130
60.2640 -0.286
60.2943 0.026
60.3246 0.599
60.3549 0.027
60.3852 0.236
60.4154 0.394
60.4457 0.083
60.4760 0.085
60.5063 -0.329
60.5365 0.350
60.5668 0.197
60.5971 0.096
60.6274 -0.056
60.6577 0.573
60.6879 -0.413
60.7182 -0.304
60.7485 -0.272
60.7788 0.384
60.8091 0.520
60.8393 0.084
60.8696 0.481
60.8999 0.670
60.9302 0.235
60.9604 0.372
60.9907 -0.062
61.0210 0.857
61.0513 0.371
61.0816 0.198
61.1118 -0.027
61.1421 0.060
61.1724 -0.216
61.2027 0.185
61.2330 0.430
61.2632 -0.210
61.2935 -0.329
61.3238 0.124
61.3541 0.266
61.3844 0.407
61.4146 -0.388
61.4449 -0.298
61.4752 0.210
61.5055 -0.324
61.5357 0.288
61.5660 0.432
61.5963 0.472
61.6266 -0.269
61.6569 0.032
61.6871 -0.292
61.7174 0.635
61.7477 0.520
61.7780 0.146
61.8083 0.553
61.8385 0.699
61.8688 0.274
61.8991 -0.048
61.9294 1.090
61.9596 0.613
61.9899 0.553
62.0202 1.171
62.0505 1.060
62.0808 1.938
62.1110 1.359
62.1413 1.145
62.1716 1.556
62.2019 2.748
62.2322 2.483
62.2624 3.572
62.2927 2.994
62.3230 3.563
62.3533 4.497
62.3835 3.765
62.4138 4.699
62.4441 5.686
62.4744 5.632
62.5047 7.869
62.5349 6.670
62.5652 7.658
62.5955 8.282
62.6258 10.260
62.6561 10.885
62.6863 11.302
62.7166 12.031
62.7469 12.813
62.7772 12.918
62.8074 13.024
62.8377 11.099
62.8680 11.517
62.8983 11.624
62.9286 11.002
62.9588 10.484
62.9891 8.925
63.0194 7.574
63.0497 6.433
63.0800 5.916
63.1102 4.983
63.1405 3.791
63.1708 4.473
63.2011 4.166
63.2313 3.964
63.2616 2.356
63.2919 2.675
63.3222 2.578
63.3525 0.138
63.3827 1.187
63.4130 1.664
63.4433 2.089
63.4736 0.848
63.5039 0.388
63.5341 0.450
63.5644 1.293
63.5947 0.262
63.6250 0.116
63.6552 0.752
63.6855 0.242
63.7158 0.827
63.7461 0.474
63.7764 0.278
63.8066 0.030
63.8369 -0.010
63.8672 -0.100
63.8975 -0.035
63.9278 -0.333
63.9580 -0.068
63.9883 0.510
64.0186 -0.161
64.0489 0.157
64.0791 0.059
64.1094 -0.403
64.1397 0.073
64.1700 0.080
64.2003 0.192
64.2305 0.408
64.2608 0.260
64.2911 0.686
64.3214 0.070
64.3517 -0.077
64.3819 0.349
64.4122 -0.162
64.4425 -0.256
64.4728 -0.505
64.5031 0.756
64.5333 -0.275
64.5636 0.102
64.5939 0.010
64.6242 0.335
64.6544 -0.226
64.6847 -0.317
64.7150 0.260
64.7453 -0.152
64.7756 0.269
64.8058 0.587
64.8361 0.488
64.8664 0.703
64.8967 -0.125
64.9270 0.299
64.9572 -0.215
64.9875 -0.312
65.0178 -0.220
65.0481 0.290
65.0783 0.591
65.1086 -0.253
65.1389 -0.315
65.1692 0.248
65.1995 0.446
65.2297 -0.032
65.2600 -0.249
65.2903 -0.362
65.3206 0.620
65.3509 -0.274
65.3811 0.396
65.4114 -0.132
65.4417 0.642
65.4720 0.219
65.5022 0.577
65.5325 -0.367
65.5628 -0.060
65.5931 -0.325
65.6234 0.068
65.6536 0.252
65.6839 0.542
65.7142 1.248
65.7445 0.288
65.7748 1.255
65.8050 0.400
65.8353 0.014
65.8656 0.879
65.8959 0.910
65.9261 0.368
65.9564 0.661
65.9867 0.172
66.0170 0.517
66.0473 0.915
66.0775 1.209
66.1078 0.461
66.1381 0.599
66.1684 0.998
66.1987 0.772
66.2289 0.755
66.2592 1.520
66.2895 0.774
66.3198 1.279
66.3500 2.305
66.3803 1.144
66.4106 0.972
66.4409 1.687
66.4712 0.578
66.5014 1.085
66.5317 1.072
66.5620 0.329
66.5923 1.149
66.6226 0.459
66.6528 -0.126
66.6831 0.748
66.7134 0.736
66.7437 0.881
66.7739 1.026
66.8042 0.338
66.8345 -0.245
66.8648 0.630
66.8951 0.464
66.9253 0.351
66.9556 -0.439
66.9859 1.010
67.0162 0.690
67.0465 0.004
67.0767 0.934
67.1070 2.229
67.1373 1.910
67.1676 1.070
67.1978 1.688
67.2281 0.641
67.2584 1.937
67.2887 1.099
67.3190 1.771
67.3492 2.339
67.3795 2.491
67.4098 1.966
67.4401 2.588
67.4704 2.741
67.5006 1.956
67.5309 3.360
67.5612 4.920
67.5915 5.491
67.6218 7.209
67.6520 5.853
67.6823 6.008
67.7126 6.164
67.7429 6.424
67.7731 7.674
67.8034 7.779
67.8337 8.457
67.8640 8.666
67.8943 7.939
67.9245 7.993
67.9548 6.380
67.9851 7.581
68.0154 6.021
68.0457 5.972
68.0759 5.559
68.1062 4.990
68.1365 4.369
68.1668 3.488
68.1970 4.482
68.2273 3.081
68.2576 3.191
68.2879 3.926
68.3182 2.786
68.3484 2.897
68.3787 2.852
68.4090 2.078
68.4393 2.137
68.4696 2.041
68.4998 2.883
68.5301 2.735
68.5604 2.171
68.5907 2.388
68.6209 1.304
68.6512 2.304
68.6815 2.731
68.7118 3.470
68.7421 2.544
68.7723 2.920
68.8026 2.306
68.8329 2.683
68.8632 2.383
68.8935 3.124
68.9237 3.293
68.9540 2.473
68.9843 3.164
69.0146 3.647
69.0448 3.036
69.0751 3.884
69.1054 4.420
69.1357 2.560
69.1660 3.097
69.1962 2.956
69.2265 1.983
69.2568 2.104
69.2871 2.277
69.3174 1.097
69.3476 1.062
69.3779 1.445
69.4082 1.463
69.4385 1.430
69.4687 0.459
69.4990 0.374
69.5293 0.550
69.5596 0.831
69.5899 0.695
69.6201 -0.170
69.6504 0.997
69.6807 0.810
69.7110 0.415
69.7413 0.802
69.7715 0.668
69.8018 0.170
69.8321 -0.432
69.8624 -0.044
69.8926 -0.385
69.9229 0.160
69.9532 -0.232
69.9835 0.782
70.0138 -0.287
70.0440 0.416
70.0743 -0.340
70.1046 -0.314
70.1349 0.546
70.1652 0.000
70.1954 -0.650
70.2257 0.057
70.2560 0.347
70.2863 -0.092
70.3166 0.512
70.3468 -0.082
70.3771 -0.363
70.4074 0.118
70.4377 -0.130
70.4679 0.144
70.4982 -0.364
70.5285 0.171
70.5588 -0.180
70.5891 0.095
70.6193 -0.255
70.6496 0.021
70.6799 0.661
70.7102 0.104
70.7405 0.173
70.7707 -0.384
70.8010 0.414
70.8313 0.119
70.8616 0.188
70.8918 0.415
70.9221 -0.192
70.9524 -0.174
70.9827 -0.520
71.0130 0.203
71.0432 0.198
71.0735 0.140
71.1038 0.239
71.1341 0.026
71.1644 0.073
71.1946 0.173
71.2249 0.117
71.2552 0.426
71.2855 0.215
71.3157 -0.100
71.3460 0.210
71.3763 -0.365
71.4066 0.102
71.4369 -0.108
71.4671 0.099
71.4974 -0.058
71.5277 0.254
71.5580 -0.007
71.5883 -0.215
71.6185 0.203
71.6488 -0.161
71.6791 -0.004
71.7094 -0.367
71.7396 0.573
71.7699 0.158
71.8002 0.109
71.8305 0.112
71.8608 0.323
71.8910 0.014
71.9213 -0.242
71.9516 -0.238
71.9819 -0.389
72.0122 0.283
72.0424 0.123
72.0727 0.120
72.1030 -0.144
72.1333 -0.043
72.1635 0.163
72.1938 0.890
72.2241 0.263
72.2544 0.105
72.2847 0.208
72.3149 0.780
72.3452 0.154
72.3755 0.779
72.4058 0.727
72.4361 0.571
72.4663 0.989
72.4966 1.042
72.5269 0.522
72.5572 0.264
72.5874 0.787
72.6177 0.581
72.6480 0.167
72.6783 0.118
72.7086 0.434
72.7388 0.542
72.7691 1.171
72.7994 0.446
72.8297 0.451
72.8600 0.196
72.8902 0.618
72.9205 0.207
72.9508 0.318
72.9811 -0.145
73.0113 -0.086
73.0416 0.026
73.0719 -0.175
73.1022 -0.011
73.1325 0.153
73.1627 -0.671
73.1930 0.067
73.2233 0.128
73.2536 0.085
73.2839 0.147
73.3141 -0.259
73.3444 -0.093
73.3747 0.073
73.4050 0.344
73.4353 -0.010
73.4655 -0.311
73.4958 0.051
73.5261 -0.108
73.5564 -0.058
73.5866 -0.216
73.6169 0.252
73.6472 -0.218
73.6775 -0.219
73.7078 0.145
73.7380 -0.219
73.7683 0.042
73.7986 0.563
73.8289 -0.269
73.8592 0.409
73.8894 -0.058
73.9197 0.309
73.9500 0.259
73.9803 -0.259
74.0105 -0.207
74.0408 -0.154
74.0711 0.264
74.1014 0.317
74.1317 0.110
74.1619 -0.044
74.1922 -0.250
74.2225 0.012
74.2528 -0.143
74.2831 0.171
74.3133 0.641
74.3436 0.331
74.3739 -0.239
74.4042 0.285
74.4344 -0.285
74.4647 -0.229
74.4950 0.139
74.5253 0.091
74.5556 0.148
74.5858 -0.212
74.6161 0.471
74.6464 0.112
74.6767 -0.091
74.7070 0.228
74.7372 0.026
74.7675 -0.644
74.7978 0.353
74.8281 0.048
74.8583 -0.465
74.8886 0.585
74.9189 0.489
74.9492 0.082
74.9795 0.143
75.0097 0.205
75.0400 -0.046
75.0703 -0.139
75.1006 -0.233
75.1309 -0.092
75.1611 0.205
75.1914 -0.174
75.2217 0.384
75.2520 0.370
75.2822 0.148
75.3125 0.551
75.3428 -0.348
75.3731 -0.204
75.4034 0.044
75.4336 0.136
75.4639 0.176
75.4942 -0.200
75.5245 0.153
75.5548 0.090
75.5850 0.132
75.6153 -0.191
75.6456 0.268
75.6759 0.155
75.7061 -0.063
75.7364 -0.124
75.7667 -0.340
75.7970 0.641
75.8273 0.060
75.8575 0.365
75.8878 -0.162
75.9181 0.091
75.9484 -0.176
75.9787 0.443
76.0089 0.073
76.0392 -0.089
76.0695 -0.094
76.0998 0.006
76.1301 -0.467
76.1603 0.047
76.1906 0.302
76.2209 0.036
76.2512 -0.125
76.2814 0.286
76.3117 0.022
76.3420 -0.243
76.3723 0.014
76.4026 -0.198
76.4328 0.059
76.4631 0.994
76.4934 0.054
76.5237 0.104
76.5540 0.571
76.5842 -0.212
76.6145 0.516
76.6448 0.724
76.6751 0.255
76.7053 0.723
76.7356 0.828
76.7659 0.985
76.7962 0.725
76.8265 0.518
76.8567 0.624
76.8870 1.095
76.9173 0.784
76.9476 0.266
76.9779 0.529
77.0081 0.793
77.0384 0.484
77.0687 0.488
77.0990 0.024
77.1292 0.133
77.1595 0.190
77.1898 0.612
77.2201 0.461
77.2504 0.519
77.2806 0.526
77.3109 0.376
77.3412 -0.190
77.3715 0.078
77.4018 -0.435
77.4320 0.510
77.4623 -0.002
77.4926 0.163
77.5229 0.120
77.5531 0.181
77.5834 -0.018
77.6137 -0.112
77.6440 0.263
77.6743 0.170
77.7045 0.650
77.7348 -0.120
77.7651 0.204
77.7954 0.112
77.8257 -0.240
77.8559 0.033
77.8862 0.098
77.9165 0.268
77.9468 0.125
77.9770 -0.017
78.0073 -0.471
78.0376 0.169
78.0679 -0.441
78.0982 -0.115
78.1284 0.628
78.1587 0.018
78.1890 -0.332
78.2193 0.152
78.2496 0.168
78.2798 -0.337
78.3101 -0.135
78.3404 0.327
78.3707 0.165
78.4009 0.003
78.4312 0.050
78.4615 0.306
78.4918 -0.480
78.5221 -0.068
78.5523 0.241
78.5826 0.394
78.6129 0.130
78.6432 -0.185
78.6735 0.072
78.7037 -0.034
78.7340 -0.036
78.7643 0.379
78.7946 -0.351
78.8248 -0.039
78.8551 -0.092
78.8854 -0.040
78.9157 0.221
78.9460 0.065
78.9762 0.326
79.0065 -0.350
79.0368 0.120
79.0671 0.122
79.0974 0.281
79.1276 0.544
79.1579 -0.183
79.1882 -0.075
79.2185 -0.176
79.2488 0.401
79.2790 0.145
79.3093 -0.163
79.3396 0.154
79.3699 0.003
79.4001 -0.043
79.4304 -0.089
79.4607 -0.187
79.4910 -0.233
79.5213 0.242
79.5515 0.145
79.5818 0.204
79.6121 -0.101
79.6424 0.376
79.6727 0.384
79.7029 -0.285
79.7332 -0.337
79.7635 0.329
79.7938 0.630
79.8240 0.098
79.8543 -0.173
79.8846 0.338
79.9149 -0.297
79.9452 0.475
79.9754 -0.055
80.0057 0.145
80.0360 0.032
80.0663 0.284
80.0966 0.589
80.1268 0.009
80.1571 -0.311
80.1874 0.043
80.2177 -0.071
80.2479 0.180
80.2782 -0.142
80.3085 -0.047
80.3388 0.517
80.3691 -0.064
80.3993 -0.176
80.4296 -0.184
80.4599 -0.087
80.4902 0.010
80.5205 0.212
80.5507 -0.159
80.5810 -0.165
80.6113 0.402
80.6416 -0.124
80.6718 0.288
80.7021 -0.186
80.7324 -0.086
80.7627 -0.038
80.7930 -0.250
80.8232 -0.100
80.8535 0.468
80.8838 1.087
80.9141 -0.116
80.9444 0.192
80.9746 0.135
81.0049 0.183
81.0352 0.284
81.0655 0.593
81.0957 -0.295
81.1260 0.483
81.1563 0.377
81.1866 0.166
81.2169 0.425
81.2471 0.372
81.2774 -0.098
81.3077 -0.255
81.3380 -0.100
81.3683 -0.048
81.3985 0.160
81.4288 0.420
81.4591 0.473
81.4894 0.057
81.5196 0.266
81.5499 0.215
81.5802 0.321
81.6105 0.011
81.6408 0.638
81.6710 0.068
81.7013 -0.033
81.7316 0.023
81.7619 0.026
81.7922 0.551
81.8224 -0.121
81.8527 0.300
81.8830 0.201
81.9133 -0.002
81.9436 0.004
81.9738 0.219
82.0041 0.121
82.0344 0.649
82.0647 -0.021
82.0949 -0.170
82.1252 -0.162
82.1555 -0.206
82.1858 -0.094
82.2161 0.540
82.2463 0.237
82.2766 0.299
82.3069 0.048
82.3372 0.319
82.3675 -0.140
82.3977 -0.389
82.4280 0.189
82.4583 -0.118
82.4886 0.201
82.5188 0.364
82.5491 0.370
82.5794 -0.091
82.6097 -0.084
82.6400 0.184
82.6702 0.349
82.7005 -0.059
82.7308 -0.259
82.7611 0.100
82.7914 -0.062
82.8216 -0.015
82.8519 0.032
82.8822 -0.076
82.9125 0.336
82.9427 0.124
82.9730 0.069
83.0033 0.170
83.0336 0.532
83.0639 0.061
83.0941 -0.202
83.1244 0.473
83.1547 -0.101
83.1850 -0.102
83.2153 -0.311
83.2455 0.155
83.2758 -0.160
83.3061 -0.111
83.3364 0.148
83.3666 0.094
83.3969 0.197
83.4272 -0.065
83.4575 0.351
83.4878 -0.013
83.5180 0.351
83.5483 0.091
83.5786 -0.221
83.6089 0.145
83.6392 0.094
83.6694 -0.217
83.6997 0.358
83.7300 -0.525
83.7603 -0.105
83.7905 0.315
83.8208 -0.099
83.8511 0.113
83.8814 -0.143
83.9117 0.591
83.9419 -0.238
83.9722 -0.233
84.0025 -0.078
84.0328 0.078
84.0631 0.182
84.0933 0.391
84.1236 0.027
84.1539 -0.233
84.1842 -0.026
84.2144 -0.131
84.2447 0.182
84.2750 0.077
84.3053 -0.079
84.3356 0.287
84.3658 0.444
84.3961 -0.128
84.4264 -0.126
84.4567 0.136
84.4870 -0.070
84.5172 0.245
84.5475 -0.168
84.5778 -0.373
84.6081 0.307
84.6383 -0.209
84.6686 0.472
84.6989 0.164
84.7292 0.273
84.7595 0.070
84.7897 0.441
84.8200 -0.126
84.8503 0.193
84.8806 -0.165
84.9109 -0.002
84.9411 0.057
84.9714 -0.143
85.0017 0.125
85.0320 0.342
85.0623 0.142
85.0925 0.516
85.1228 0.265
85.1531 0.066
85.1834 0.233
85.2136 0.399
85.2439 -0.059
85.2742 -0.308
85.3045 0.224
85.3348 -0.337
85.3650 -0.192
85.3953 -0.152
85.4256 0.046
85.4559 0.087
85.4862 0.337
85.5164 0.587
85.5467 0.630
85.5770 -0.161
85.6073 0.091
85.6375 0.134
85.6678 0.021
85.6981 0.378
85.7284 0.214
85.7587 -0.106
85.7889 0.200
85.8192 0.193
85.8495 0.447
85.8798 -0.288
85.9101 0.071
85.9403 0.326
85.9706 0.113
86.0009 0.056
86.0312 0.156
86.0614 -0.160
86.0917 0.409
86.1220 -0.324
86.1523 0.298
86.1826 0.035
86.2128 0.189
86.2431 -0.073
86.2734 -0.179
86.3037 -0.076
86.3340 -0.233
86.3642 -0.030
86.3945 -0.138
86.4248 -0.351
86.4551 0.687
86.4853 0.318
86.5156 -0.102
86.5459 0.364
86.5762 -0.263
86.6065 -0.109
86.6367 -0.111
86.6670 0.147
86.6973 0.094
86.7276 -0.011
86.7579 -0.116
86.7881 0.405
86.8184 -0.272
86.8487 -0.116
86.8790 0.146
86.9092 0.563
86.9395 0.252
86.9698 0.150
87.0001 0.152
87.0304 0.102
87.0606 0.209
87.0909 -0.100
87.1212 0.268
87.1515 -0.093
87.1818 -0.089
87.2120 0.332
87.2423 0.285
87.2726 -0.022
87.3029 0.035
87.3331 0.874
87.3634 0.099
87.3937 -0.519
87.4240 -0.055
87.4543 0.410
87.4845 0.199
87.5148 0.404
87.5451 0.037
87.5754 0.451
87.6057 0.084
87.6359 0.135
87.6662 0.029
87.6965 -0.076
87.7268 -0.233
87.7571 0.121
87.7873 0.996
87.8176 0.205
87.8479 -0.169
87.8782 0.238
87.9084 0.073
87.9387 0.064
87.9690 0.056
87.9993 0.256
88.0296 0.301
88.0598 -0.176
88.0901 -0.182
88.1204 0.384
88.1507 -0.195
88.1810 0.267
88.2112 -0.363
88.2415 -0.218
88.2718 -0.229
88.3021 -0.031
88.3323 0.115
88.3626 -0.519
88.3929 -0.068
88.4232 0.176
88.4535 0.263
88.4837 0.664
88.5140 -0.133
88.5443 -0.044
88.5746 0.097
88.6049 0.342
88.6351 0.120
88.6654 -0.467
88.6957 -0.063
88.7260 -0.180
88.7562 -0.191
88.7865 0.005
88.8168 0.307
88.8471 0.713
88.8774 0.442
88.9076 0.223
88.9379 0.943
88.9682 0.256
88.9985 0.924
89.0288 0.551
89.0590 1.219
89.0893 1.367
89.1196 0.787
89.1499 1.196
89.1801 0.355
89.2104 0.453
89.2407 1.124
89.2710 1.065
89.3013 1.060
89.3315 0.794
89.3618 1.362
89.3921 2.138
89.4224 0.936
89.4527 1.296
89.4829 1.240
89.5132 2.175
89.5435 1.442
89.5738 2.481
89.6040 1.385
89.6343 2.425
89.6646 1.381
89.6949 1.328
89.7252 1.379
89.7554 0.545
89.7857 0.909
89.8160 1.847
89.8463 0.753
89.8766 1.223
89.9068 1.432
89.9371 1.277
89.9674 1.018
89.9977 0.187
90.0279 0.606
90.0582 0.609
90.0885 0.872
90.1188 0.355
90.1491 0.775
90.1793 0.310
90.2096 0.106
90.2399 0.424
90.2702 -0.196
90.3005 -0.035
90.3307 -0.133
90.3610 -0.179
90.3913 -0.173
90.4216 0.251
90.4518 0.726
90.4821 0.161
90.5124 -0.248
90.5427 -0.084
90.5730 -0.075
90.6032 0.402
90.6335 -0.109
90.6638 0.525
90.6941 -0.090
90.7244 -0.132
90.7546 -0.226
90.7849 -0.059
90.8152 0.681
90.8455 -0.193
90.8758 -0.389
90.9060 0.300
90.9363 0.104
90.9666 -0.039
90.9969 0.078
91.0271 0.248
91.0574 -0.363
91.0877 -0.194
91.1180 0.080
91.1483 -0.011
91.1785 0.212
91.2088 -0.295
91.2391 0.397
91.2694 -0.317
91.2997 -0.250
91.3299 -0.054
91.3602 -0.274
91.3905 0.131
91.4208 0.171
91.4510 0.421
91.4813 0.202
91.5116 0.139
91.5419 -0.183
91.5722 0.120
91.6024 -0.046
91.6327 -0.003
91.6630 -0.116
91.6933 -0.176
91.7236 -0.028
91.7538 -0.036
91.7841 -0.199
91.8144 0.106
91.8447 0.048
91.8749 0.354
91.9052 0.139
91.9355 0.134
91.9658 0.076
91.9961 0.176
92.0263 -0.089
92.0566 -0.406
92.0869 0.267
92.1172 -0.258
92.1475 -0.157
92.1777 -0.264
92.2080 0.254
92.2383 -0.008
92.2686 -0.271
92.2988 0.038
92.3291 0.400
92.3594 0.397
92.3897 0.030
92.4200 -0.284
92.4502 0.183
92.4805 0.337
92.5108 0.284
92.5411 0.544
92.5714 0.752
92.6016 0.127
92.6319 0.023
92.6622 0.336
92.6925 0.493
92.7227 0.911
92.7530 0.652
92.7833 0.238
92.8136 0.709
92.8439 0.242
92.8741 0.610
92.9044 0.249
92.9347 0.096
92.9650 0.517
92.9953 0.521
93.0255 0.890
93.0558 0.322
93.0861 0.484
93.1164 0.229
93.1466 0.391
93.1769 0.137
93.2072 0.144
93.2375 -0.266
93.2678 -0.106
93.2980 0.054
93.3283 -0.410
93.3586 0.584
93.3889 -0.036
93.4192 0.021
93.4494 -0.234
93.4797 0.085
93.5100 0.351
93.5403 0.149
93.5706 -0.260
93.6008 -0.260
93.6311 0.156
93.6614 0.000
93.6917 0.209
93.7219 -0.415
93.7522 -0.156
93.7825 -0.052
93.8128 -0.260
93.8431 -0.053
93.8733 0.103
93.9036 0.207
93.9339 -0.262
93.9642 0.312
93.9945 -0.260
94.0247 -0.260
94.0550 -0.011
94.0853 -0.021
94.1156 0.125
94.1458 0.585
94.1761 -0.102
94.2064 0.254
94.2367 -0.067
94.2670 -0.232
94.2972 -0.083
94.3275 0.274
94.3578 0.579
94.3881 0.729
94.4184 0.305
94.4486 0.039
94.4789 -0.071
94.5092 -0.441
94.5395 0.120
94.5697 0.474
94.6000 0.464
94.6303 0.454
94.6606 0.652
94.6909 0.070
94.7211 -0.199
94.7514 0.677
94.7817 1.190
94.8120 1.807
94.8423 0.861
94.8725 0.437
94.9028 0.691
94.9331 1.413
94.9634 1.511
94.9936 1.245
95.0239 1.447
95.0542 1.130
95.0845 1.854
95.1148 1.432
95.1450 1.480
95.1753 1.320
95.2056 1.577
95.2359 1.209
95.2662 1.414
95.2964 1.203
95.3267 1.722
95.3570 1.043
95.3873 0.937
95.4175 0.675
95.4478 1.455
95.4781 0.778
95.5084 0.934
95.5387 0.621
95.5689 0.622
95.5992 0.726
95.6295 0.884
95.6598 0.521
95.6901 0.887
95.7203 0.889
95.7506 1.152
95.7809 0.530
95.8112 0.324
95.8414 0.276
95.8717 0.332
95.9020 -0.237
95.9323 0.340
95.9626 0.189
95.9928 0.038
96.0231 0.408
96.0534 0.101
96.0837 0.159
96.1140 -0.407
96.1442 0.745
96.1745 0.284
96.2048 -0.125
96.2351 -0.013
96.2653 -0.057
96.2956 -0.205
96.3259 -0.040
96.3562 0.177
96.3865 -0.282
96.4167 0.041
96.4470 0.051
96.4773 0.009
96.5076 0.280
96.5379 -0.542
96.5681 0.147
96.5984 -0.050
96.6287 -0.089
96.6590 -0.389
96.6893 0.133
96.7195 0.240
96.7498 0.190
96.7801 -0.380
96.8104 -0.012
96.8406 0.251
96.8709 -0.266
96.9012 -0.266
96.9315 0.250
96.9618 0.088
96.9920 -0.073
97.0223 0.131
97.0526 -0.081
97.0829 -0.033
97.1132 0.068
97.1434 -0.040
97.1737 -0.563
97.2040 0.528
97.2343 0.057
97.2645 0.107
97.2948 0.002
97.3251 0.157
97.3554 -0.521
97.3857 0.052
97.4159 -0.261
97.4462 -0.052
97.4765 0.104
97.5068 -0.415
97.5371 -0.058
97.5673 0.509
97.5976 0.294
97.6279 0.132
97.6582 0.022
97.6884 -0.243
97.7187 0.429
97.7490 -0.096
97.7793 -0.205
97.8096 -0.157
97.8398 0.204
97.8701 -0.007
97.9004 0.355
97.9307 0.092
97.9610 0.142
97.9912 0.244
98.0215 -0.330
98.0518 0.346
98.0821 -0.020
98.1123 -0.020
98.1426 0.396
98.1729 0.032
98.2032 0.137
98.2335 0.346
98.2637 0.139
98.2940 0.244
98.3243 1.028
98.3546 0.457
98.3849 -0.009
98.4151 0.514
98.4454 0.674
98.4757 0.990
98.5060 0.786
98.5362 0.998
98.5665 1.003
98.5968 0.487
98.6271 0.492
98.6574 0.341
98.6876 0.399
98.7179 0.614
98.7482 0.569
98.7785 1.148
98.8088 0.114
98.8390 0.226
98.8693 0.911
98.8996 0.346
98.9299 0.459
98.9601 0.624
98.9904 0.165
99.0207 0.383
99.0510 0.549
99.0813 0.403
99.1115 0.049
99.1418 -0.044
99.1721 0.332
99.2024 -0.073
99.2327 0.252
99.2629 0.160
99.2932 0.277
99.3235 0.029
99.3538 0.407
99.3841 0.160
99.4143 0.227
99.4446 0.397
99.4749 0.204
99.5052 0.427
99.5354 -0.026
99.5657 0.771
99.5960 -0.047
99.6263 -0.239
99.6566 -0.032
99.6868 0.957
99.7171 0.435
99.7474 0.382
99.7777 0.278
99.8080 -0.086
99.8382 -0.034
99.8685 0.592
99.8988 0.176
99.9291 -0.187
99.9593 0.284
99.9896 0.078
100.0199 -0.076
100.0502 0.031
100.0805 -0.018
100.1107 0.715
100.1410 1.031
100.1713 -0.214
100.2016 -0.001
100.2319 0.420
100.2621 0.477
100.2924 -0.246
100.3227 0.020
100.3530 0.079
100.3832 0.398
100.4135 0.248
100.4438 -0.057
100.4741 0.315
100.5044 -0.041
100.5346 -0.033
100.5649 -0.233
100.5952 0.063
100.6255 0.568
100.6558 0.292
100.6860 0.017
100.7163 0.262
100.7466 0.508
100.7769 0.442
100.8071 -0.301
100.8374 0.154
100.8677 -0.015
100.8980 -0.080
100.9283 -0.093
100.9585 0.207
100.9888 -0.117
101.0191 0.497
101.0494 0.121
101.0797 0.318
101.1099 -0.109
101.1402 0.350
101.1705 -0.181
101.2008 0.278
101.2310 -0.043
101.2613 0.000
101.2916 0.200
101.3219 -0.433
101.3522 0.184
101.3824 -0.136
101.4127 -0.247
101.4430 -0.202
101.4733 -0.260
101.5036 -0.165
101.5338 -0.120
101.5641 0.080
101.5944 -0.083
101.6247 0.222
101.6549 -0.409
101.6852 0.105
101.7155 -0.005
101.7458 0.563
101.7761 0.297
101.8063 -0.281
101.8366 0.079
101.8669 -0.185
101.8972 -0.033
101.9275 -0.037
101.9577 -0.092
101.9880 0.114
102.0183 0.528
102.0486 -0.412
102.0788 -0.258
102.1091 0.418
102.1394 0.104
102.1697 -0.209
102.2000 0.259
102.2302 0.415
102.2605 -0.210
102.2908 0.520
102.3211 0.365
102.3514 -0.311
102.3816 -0.327
102.4119 0.439
102.4422 0.477
102.4725 0.150
102.5028 -0.177
102.5330 0.122
102.5633 0.056
102.5936 0.043
102.6239 -0.126
102.6541 0.487
102.6844 0.058
102.7147 -0.058
102.7450 0.347
102.7753 0.076
102.8055 0.846
102.8358 -0.049
102.8661 0.461
102.8964 0.087
102.9267 0.703
102.9569 -0.088
102.9872 0.425
103.0175 0.520
103.0478 0.096
103.0780 0.505
103.1083 0.029
103.1386 0.021
103.1689 0.067
103.1992 1.050
103.2294 0.159
103.2597 0.101
103.2900 0.356
103.3203 1.028
103.3506 0.138
103.3808 0.030
103.4111 0.338
103.4414 0.334
103.4717 0.019
103.5019 0.276
103.5322 0.378
103.5625 0.532
103.5928 0.686
103.6231 0.320
103.6533 0.266
103.6836 0.213
103.7139 -0.100
103.7442 -0.048
103.7745 1.358
103.8047 0.161
103.8350 0.734
103.8653 0.996
103.8956 0.372
103.9258 0.322
103.9561 0.376
103.9864 1.004
104.0167 0.954
104.0470 0.749
104.0772 1.169
104.1075 1.017
104.1378 0.708
104.1681 0.973
104.1984 0.874
104.2286 0.202
104.2589 0.416
104.2892 0.942
104.3195 0.740
104.3497 0.017
104.3800 0.753
104.4103 1.385
104.4406 0.612
104.4709 -0.110
104.5011 0.471
104.5314 0.480
104.5617 -0.292
104.5920 0.602
104.6223 0.299
104.6525 0.101
104.6828 0.163
104.7131 -0.243
104.7434 -0.284
104.7736 0.508
104.8039 0.311
104.8342 0.011
104.8645 0.492
104.8948 -0.173
104.9250 0.257
104.9553 0.426
104.9856 -0.185
105.0159 -0.276
105.0462 0.047
105.0764 -0.151
105.1067 0.068
105.1370 1.172
105.1673 -0.119
105.1975 0.414
105.2278 -0.251
105.2581 0.282
105.2884 0.034
105.3187 -0.266
105.3489 -0.048
105.3792 0.014
105.4095 -0.236
105.4398 -0.070
105.4701 0.306
105.5003 0.160
105.5306 -0.193
105.5609 -0.285
105.5912 0.240
105.6215 -0.744
105.6517 -0.062
105.6820 0.100
105.7123 -0.155
105.7426 0.112
105.7728 0.171
105.8031 0.021
105.8334 0.029
105.8637 0.036
105.8940 -0.112
105.9242 0.209
105.9545 0.165
105.9848 -0.086
106.0151 -0.441
106.0454 0.128
106.0756 0.072
106.1059 0.173
106.1362 0.065
106.1665 0.063
106.1967 -0.096
106.2270 0.110
106.2573 0.473
106.2876 0.159
106.3179 0.002
106.3481 0.001
106.3784 0.157
106.4087 0.001
106.4390 0.262
106.4693 -0.050
106.4995 -0.309
106.5298 0.577
106.5601 0.162
106.5904 0.008
106.6206 -0.250
106.6509 -0.044
106.6812 0.109
106.7115 -0.466
106.7418 0.417
106.7720 0.155
106.8023 0.154
106.8326 -0.264
106.8629 0.309
106.8932 0.361
106.9234 -0.212
106.9537 0.257
106.9840 0.362
107.0143 0.727
107.0445 0.000
107.0748 0.001
107.1051 0.003
107.1354 0.162
107.1657 0.269
107.1959 0.064
107.2262 0.067
107.2565 0.175
107.2868 -0.029
107.3171 -0.337
107.3473 0.080
107.3776 -0.179
107.4079 0.343
107.4382 0.240
107.4684 -0.070
107.4987 0.297
107.5290 -0.065
107.5593 -0.270
107.5896 0.202
107.6198 0.466
107.6501 -0.415
107.6804 0.110
107.7107 0.271
107.7410 0.484
107.7712 0.073
107.8015 0.287
107.8318 0.189
107.8621 0.508
107.8923 0.462
107.9226 0.105
107.9529 0.008
107.9832 -0.349
108.0135 0.232
108.0437 0.293
108.0740 0.406
108.1043 0.154
108.1346 -0.149
108.1649 -0.139
108.1951 -0.493
108.2254 0.184
108.2557 0.184
108.2860 0.133
108.3163 0.863
108.3465 0.239
108.3768 0.345
108.4071 0.347
108.4374 0.402
108.4676 0.248
108.4979 -0.009
108.5282 -0.058
108.5585 0.050
108.5888 0.262
108.6190 0.423
108.6493 0.324
108.6796 0.225
108.7099 -0.134
108.7402 -0.285
108.7704 0.172
108.8007 0.317
108.8310 -0.215
108.8613 -0.069
108.8915 0.233
108.9218 -0.246
108.9521 0.109
108.9824 0.204
109.0127 -0.118
109.0429 0.134
109.0732 -0.239
109.1035 -0.150
109.1338 0.512
109.1641 -0.232
109.1943 0.482
109.2246 0.156
109.2549 0.246
109.2852 0.180
109.3154 0.219
109.3457 0.102
109.3760 -0.275
109.4063 0.442
109.4366 0.066
109.4668 -0.050
109.4971 -0.009
109.5274 0.032
109.5577 -0.030
109.5880 0.480
109.6182 0.262
109.6485 -0.008
109.6788 -0.017
109.7091 -0.078
109.7393 -0.034
109.7696 0.583
109.7999 0.054
109.8302 -0.266
109.8605 -0.221
109.8907 -0.124
109.9210 0.441
109.9513 0.122
109.9816 0.324
110.0119 0.787
110.0421 -0.261
110.0724 0.515
110.1027 0.406
110.1330 0.245
110.1632 0.762
110.1935 1.122
110.2238 0.910
110.2541 0.438
110.2844 0.070
110.3146 -0.141
110.3449 0.534
110.3752 0.428
110.4055 -0.147
110.4358 0.321
110.4660 0.476
110.4963 0.267
110.5266 0.423
110.5569 -0.098
110.5871 -0.098
110.6174 0.059
110.6477 0.269
110.6780 0.166
110.7083 -0.093
110.7385 0.534
110.7688 0.120
110.7991 0.956
110.8294 0.022
110.8597 0.025
110.8899 -0.023
110.9202 0.241
110.9505 -0.119
110.9808 -0.271
111.0110 -0.212
111.0413 0.367
111.0716 -0.042
111.1019 -0.087
111.1322 0.285
111.1624 -0.436
111.1927 0.093
111.2230 0.049
111.2533 -0.202
111.2836 0.120
111.3138 -0.027
111.3441 0.191
111.3744 0.098
111.4047 0.473
111.4350 -0.297
111.4652 -0.182
111.4955 0.298
111.5258 0.467
111.5561 -0.250
111.5863 0.127
111.6166 0.453
111.6469 -0.367
111.6772 0.532
111.7075 0.233
111.7377 -0.065
111.7680 0.210
111.7983 -0.400
111.8286 0.032
111.8589 0.048
111.8891 0.012
111.9194 -0.024
111.9497 0.358
111.9800 0.010
112.0102 -0.441
112.0405 0.041
112.0708 0.471
112.1011 0.433
112.1314 0.447
112.1616 0.098
112.1919 0.633
112.2222 -0.185
112.2525 -0.221
112.2828 0.030
112.3130 -0.032
112.3433 0.168
112.3736 0.055
112.4039 0.307
112.4341 0.091
112.4644 0.187
112.4947 0.389
112.5250 0.121
112.5553 0.323
112.5855 0.473
112.6158 0.311
112.6461 0.305
112.6764 0.560
112.7067 0.816
112.7369 0.030
112.7672 0.078
112.7975 0.230
112.8278 -0.034
112.8580 0.015
112.8883 0.221
112.9186 0.166
112.9489 -0.149
112.9792 0.058
113.0094 0.056
113.0397 -0.257
113.0700 0.054
113.1003 -0.103
113.1306 -0.259
113.1608 0.152
113.1911 0.511
113.2214 0.401
113.2517 -0.124
113.2819 -0.181
113.3122 -0.654
113.3425 0.280
113.3728 -0.245
113.4031 0.065
113.4333 -0.094
113.4636 0.268
113.4939 -0.516
113.5242 0.211
113.5545 0.522
113.5847 -0.260
113.6150 0.364
113.6453 0.520
113.6756 -0.053
113.7058 -0.313
113.7361 0.312
113.7664 0.365
113.7967 0.262
113.8270 0.420
113.8572 -0.308
113.8875 0.111
113.9178 0.062
113.9481 -0.039
113.9784 -0.036
114.0086 -0.137
114.0389 -0.185
114.0692 -0.337
114.0995 0.223
114.1298 0.314
114.1600 0.198
114.1903 -0.283
114.2206 0.382
114.2509 0.371
114.2811 0.203
114.3114 0.297
114.3417 -0.234
114.3720 0.329
114.4023 0.058
114.4325 0.049
114.4628 -0.272
114.4931 0.136
114.5234 0.231
114.5537 0.067
114.5839 0.007
114.6142 -0.104
114.6445 0.358
114.6748 -0.326
114.7050 0.293
114.7353 -0.026
114.7656 -0.344
114.7959 0.484
114.8262 -0.459
114.8564 0.266
114.8867 -0.311
114.9170 -0.219
114.9473 -0.284
114.9776 0.642
115.0078 -0.202
115.0381 -0.057
115.0684 0.036
115.0987 0.443
115.1289 0.276
115.1592 0.371
115.1895 0.414
115.2198 0.353
115.2501 0.240
115.2803 0.127
115.3106 -0.297
115.3409 0.060
115.3712 0.365
115.4015 0.254
115.4317 0.455
115.4620 0.449
115.4923 -0.286
115.5226 0.073
115.5528 0.276
115.5831 0.115
115.6134 0.110
115.6437 1.043
115.6740 0.987
115.7042 0.723
115.7345 0.928
115.7648 1.030
115.7951 1.079
115.8254 0.764
115.8556 1.231
115.8859 1.646
115.9162 0.864
115.9465 0.498
115.9767 1.644
116.0070 1.435
116.0373 1.592
116.0676 1.123
116.0979 1.280
116.1281 0.500
116.1584 0.710
116.1887 2.014
116.2190 0.974
116.2493 0.768
116.2795 0.928
116.3098 1.504
116.3401 1.038
116.3704 0.782
116.4006 1.203
116.4309 1.207
116.4612 1.889
116.4915 0.488
116.5218 0.806
116.5520 1.072
116.5823 1.287
116.6126 2.022
116.6429 1.300
116.6732 1.151
116.7034 0.534
116.7337 1.271
116.7640 1.175
116.7943 1.288
116.8245 0.828
116.8548 0.316
116.8851 1.055
116.9154 1.221
116.9457 0.919
116.9759 0.669
117.0062 0.784
117.0365 0.899
117.0668 0.703
117.0971 0.402
117.1273 0.883
117.1576 1.000
117.1879 0.232
117.2182 0.662
117.2485 0.050
117.2787 0.012
117.3090 0.495
117.3393 0.562
117.3696 0.577
117.3998 0.227
117.4301 0.295
117.4604 0.363
117.4907 0.953
117.5210 0.813
117.5512 0.986
117.5815 -0.038
117.6118 0.240
117.6421 0.362
117.6724 0.120
117.7026 0.243
117.7329 -0.259
117.7632 -0.219
117.7935 0.342
117.8237 0.278
117.8540 0.422
117.8843 0.307
117.9146 -0.120
117.9449 -0.183
117.9751 0.224
118.0054 -0.150
118.0357 0.101
118.0660 0.092
118.0963 0.031
118.1265 0.283
118.1568 0.275
118.1871 0.059
118.2174 0.208
118.2476 -0.112
118.2779 0.194
118.3082 0.240
118.3385 -0.079
118.3688 0.436
118.3990 0.222
118.4293 -0.303
118.4596 0.057
118.4899 0.521
118.5202 -0.160
118.5504 0.045
118.5807 -0.375
118.6110 0.507
118.6413 -0.069
118.6715 0.398
118.7018 0.031
118.7321 0.342
118.7624 0.653
118.7927 -0.181
118.8229 0.027
118.8532 -0.182
118.8835 0.339
118.9138 0.027
118.9441 -0.233
118.9743 0.445
119.0046 -0.126
119.0349 0.084
119.0652 -0.122
119.0954 -0.068
119.1257 0.091
119.1560 -0.270
119.1863 0.566
119.2166 -0.211
119.2468 0.210
119.2771 0.162
119.3074 0.167
119.3377 -0.401
119.3680 0.438
119.3982 0.235
119.4285 -0.227
119.4588 0.092
119.4891 -0.058
119.5193 -0.572
119.5496 0.096
119.5799 0.607
119.6102 -0.495
119.6405 -0.087
119.6707 0.165
119.7010 -0.103
119.7313 0.306
119.7616 0.246
119.7919 0.291
119.8221 0.181
119.8524 -0.034
119.8827 0.273
119.9130 -0.150
119.9433 -0.259
119.9735 0.287
120.0038 0.000
