'Id: "" Comment: "" Operator: "Lab Manager" Anode: "Cu" Scantype: "Locked Coupled" TimePerStep: "19.2" X: "9999" Y: "9999" Z: "9999" 
10.0015 0.000
10.0318 -0.220
10.0620 -0.700
10.0923 -0.206
10.1226 0.601
10.1529 0.106
10.1832 0.236
10.2134 -0.259
10.2437 -0.232
10.2740 0.159
10.3043 0.134
10.3346 0.005
10.3648 0.865
10.3951 0.008
10.4254 -0.277
10.4557 -0.458
10.4859 -0.251
10.5162 0.633
10.5465 0.058
10.5768 0.942
10.6071 0.004
10.6373 0.107
10.6676 0.210
10.6979 0.210
10.7282 0.053
10.7585 0.210
10.7887 0.939
10.8190 0.523
10.8493 0.107
10.8796 -0.205
10.9098 0.109
10.9401 -0.046
10.9704 -1.034
11.0007 0.374
11.0310 0.636
11.0612 0.378
11.0915 0.537
11.1218 0.383
11.1521 -0.343
11.1824 -0.184
11.2126 -0.285
11.2429 -0.229
11.2732 0.191
11.3035 0.248
11.3337 0.200
11.3640 0.308
11.3943 0.261
11.4246 -0.411
11.4549 -0.302
11.4851 -0.401
11.5154 0.854
11.5457 0.339
11.5760 -0.228
11.6063 0.091
11.6365 0.045
11.6668 0.521
11.6971 0.423
11.7274 -0.195
11.7577 -0.187
11.7879 0.341
11.8182 -0.068
11.8485 -0.268
11.8788 0.157
11.9090 0.217
11.9393 0.694
11.9696 0.443
11.9999 0.400
12.0302 -0.112
12.0604 -0.050
12.0907 0.064
12.1210 0.542
12.1513 0.240
12.1816 0.094
12.2118 0.157
12.2421 0.740
12.2724 0.491
12.3027 0.033
12.3329 -0.684
12.3632 -0.216
12.3935 0.200
12.4238 -0.113
12.4541 -0.061
12.4843 0.043
12.5146 1.085
12.5449 0.148
12.5752 -0.632
12.6055 -0.320
12.6357 -0.059
12.6660 0.463
12.6963 0.620
12.7266 -0.369
12.7568 -0.003
12.7871 -0.210
12.8174 0.521
12.8477 0.471
12.8780 -0.725
12.9082 -0.410
12.9385 -0.355
12.9688 -0.040
12.9991 -0.766
13.0294 -0.085
13.0596 -0.394
13.0899 0.495
13.1202 0.186
13.1505 -0.226
13.1807 0.299
13.2110 -0.530
13.2413 -0.213
13.2716 0.522
13.3019 0.006
13.3321 0.532
13.3624 0.538
13.3927 -0.081
13.4230 0.029
13.4533 -0.016
13.4835 0.199
13.5138 -0.211
13.5441 0.421
13.5744 -0.353
13.6046 -0.190
13.6349 0.131
13.6652 0.086
13.6955 0.199
13.7258 -0.262
13.7560 -0.045
13.7863 0.276
13.8166 -0.027
13.8469 0.555
13.8772 0.825
13.9074 -0.363
13.9377 -0.406
13.9680 0.113
13.9983 0.943
14.0285 -0.465
14.0588 0.939
14.0891 0.416
14.1194 0.258
14.1497 0.048
14.1799 -0.161
14.2102 0.202
14.2405 0.045
14.2708 -0.008
14.3011 0.357
14.3313 0.617
14.3616 0.148
14.3919 0.409
14.4222 0.253
14.4524 -0.163
14.4827 -0.474
14.5130 0.204
14.5433 0.257
14.5736 0.415
14.6038 0.105
14.6341 0.107
14.6644 0.005
14.6947 -0.097
14.7250 0.010
14.7552 0.273
14.7855 0.329
14.8158 0.124
14.8461 0.336
14.8764 -0.129
14.9066 0.135
14.9369 -0.225
14.9672 -0.325
14.9975 0.305
15.0277 -0.107
15.0580 0.627
15.0883 0.216
15.1186 -0.299
15.1489 -0.293
15.1791 -0.027
15.2094 0.500
15.2397 -0.171
15.2700 0.826
15.3003 -0.105
15.3305 -0.254
15.3608 -0.195
15.3911 0.438
15.4214 0.394
15.4516 -0.067
15.4819 -0.059
15.5122 -0.259
15.5425 -0.042
15.5728 0.019
15.6030 0.809
15.6333 0.350
15.6636 -0.161
15.6939 -0.464
15.7242 0.003
15.7544 0.002
15.7847 -0.208
15.8150 0.990
15.8453 0.208
15.8755 -0.418
15.9058 -0.053
15.9361 1.197
15.9664 0.051
15.9967 0.156
16.0269 0.469
16.0572 0.053
16.0875 0.158
16.1178 0.420
16.1481 -0.203
16.1783 0.059
16.2086 0.113
16.2389 0.115
16.2692 0.065
16.2994 -0.140
16.3297 -0.658
16.3600 0.178
16.3903 0.806
16.4206 0.758
16.4508 -0.540
16.4811 -0.380
16.5114 0.247
16.5417 0.406
16.5720 0.045
16.6022 -0.421
16.6325 -0.001
16.6628 0.628
16.6931 0.059
16.7233 -0.353
16.7536 0.067
16.7839 0.072
16.8142 0.389
16.8445 0.446
16.8747 -0.590
16.9050 -0.220
16.9353 0.202
16.9656 -0.209
16.9959 0.266
17.0261 0.429
17.0564 0.435
17.0867 0.234
17.1170 0.084
17.1472 0.456
17.1775 0.359
17.2078 0.055
17.2381 -0.042
17.2684 0.435
17.2986 -0.025
17.3289 0.296
17.3592 -0.164
17.3895 -0.103
17.4198 0.583
17.4500 0.436
17.4803 0.029
17.5106 -0.169
17.5409 0.205
17.5712 0.320
17.6014 0.538
17.6317 0.028
17.6620 0.508
17.6923 0.050
17.7225 0.999
17.7528 0.125
17.7831 0.293
17.8134 0.045
17.8437 0.422
17.8739 0.070
17.9042 -0.074
17.9345 -0.477
17.9648 -0.062
17.9951 0.510
18.0253 -0.064
18.0556 -0.013
18.0859 0.768
18.1162 1.497
18.1464 0.924
18.1767 0.455
18.2070 0.820
18.2373 0.248
18.2676 0.717
18.2978 0.197
18.3281 0.563
18.3584 -0.269
18.3887 0.618
18.4190 0.047
18.4492 0.362
18.4795 0.208
18.5098 0.523
18.5401 0.474
18.5703 0.112
18.6006 0.220
18.6309 0.015
18.6612 0.279
18.6915 0.231
18.7217 -0.025
18.7520 0.239
18.7823 -0.017
18.8126 0.301
18.8429 -0.111
18.8731 0.467
18.9034 0.421
18.9337 0.374
18.9640 0.172
18.9942 0.334
19.0245 0.497
19.0548 -0.278
19.0851 -0.324
19.1154 -0.230
19.1456 0.281
19.1759 0.011
19.2062 0.210
19.2365 0.409
19.2668 0.192
19.2970 0.547
19.3273 0.278
19.3576 -0.303
19.3879 0.470
19.4181 0.358
19.4484 0.142
19.4787 0.499
19.5090 0.387
19.5393 0.328
19.5695 -0.096
19.5998 0.210
19.6301 -0.421
19.6604 0.041
19.6907 0.140
19.7209 0.238
19.7512 -0.445
19.7815 0.175
19.8118 -0.091
19.8420 0.061
19.8723 -0.152
19.9026 0.208
19.9329 -0.473
19.9632 0.148
19.9934 -0.117
20.0237 0.036
20.0540 0.033
20.0843 0.134
20.1146 0.079
20.1448 0.232
20.1751 -0.135
20.2054 -0.085
20.2357 0.225
20.2659 -0.089
20.2962 0.378
20.3265 -0.248
20.3568 -0.249
20.3871 -0.094
20.4173 -0.095
20.4476 0.009
20.4779 -0.408
20.5082 0.217
20.5385 -0.043
20.5687 -0.147
20.5990 0.218
20.6293 -0.406
20.6596 0.012
20.6899 -0.508
20.7201 -0.142
20.7504 -0.193
20.7807 -0.348
20.8110 -0.294
20.8412 0.021
20.8715 0.023
20.9018 0.077
20.9321 -0.701
20.9624 0.031
20.9926 0.294
21.0229 -0.067
21.0532 0.145
21.0835 -0.424
21.1138 -0.212
21.1440 -0.208
21.1743 -0.203
21.2046 -0.459
21.2349 0.327
21.2651 -0.032
21.2954 -0.183
21.3257 0.031
21.3560 0.245
21.3863 -0.479
21.4165 0.048
21.4468 0.107
21.4771 -0.147
21.5074 0.225
21.5377 -0.341
21.5679 0.135
21.5982 -0.066
21.6285 -0.006
21.6588 -0.311
21.6890 0.166
21.7193 -0.555
21.7496 -0.286
21.7799 -0.226
21.8102 -0.217
21.8404 0.052
21.8707 0.009
21.9010 -0.034
21.9313 0.340
21.9616 -0.015
21.9918 -0.214
22.0221 0.109
22.0524 -0.089
22.0827 -0.183
22.1129 -0.120
22.1432 -0.109
22.1735 -0.306
22.2038 0.070
22.2341 0.706
22.2643 -0.219
22.2946 0.522
22.3249 0.013
22.3552 -0.547
22.3855 -0.137
22.4157 -0.143
22.4460 0.059
22.4763 0.001
22.5066 0.048
22.5368 -0.114
22.5671 -0.275
22.5974 0.137
22.6277 -0.076
22.6580 -0.133
22.6882 0.019
22.7185 0.171
22.7488 -0.197
22.7791 -0.044
22.8094 0.265
22.8396 0.053
22.8699 -0.262
22.9002 0.152
22.9305 0.045
22.9607 0.043
22.9910 -0.011
23.0213 0.351
23.0516 0.194
23.0819 0.088
23.1121 0.035
23.1424 -0.174
23.1727 -0.279
23.2030 -0.280
23.2333 0.345
23.2635 -0.072
23.2938 -0.020
23.3241 0.137
23.3544 0.398
23.3846 0.139
23.4149 0.087
23.4452 -0.224
23.4755 0.299
23.5058 -0.116
23.5360 0.250
23.5663 0.409
23.5966 0.150
23.6269 -0.368
23.6572 -0.263
23.6874 0.258
23.7177 -0.106
23.7480 0.207
23.7783 -0.052
23.8086 -0.051
23.8388 -0.049
23.8691 0.004
23.8994 0.111
23.9297 0.008
23.9599 0.167
23.9902 -0.299
24.0205 -0.452
24.0508 0.332
24.0811 0.543
24.1113 0.234
24.1416 -0.335
24.1719 0.242
24.2022 -0.379
24.2325 -0.166
24.2627 0.255
24.2930 0.208
24.3233 -0.100
24.3536 0.062
24.3838 -0.141
24.4141 0.386
24.4444 0.600
24.4747 0.293
24.5050 -0.325
24.5352 0.358
24.5655 0.209
24.5958 0.320
24.6261 0.171
24.6564 -0.030
24.6866 0.186
24.7169 -0.014
24.7472 0.046
24.7775 0.054
24.8077 0.271
24.8380 0.228
24.8683 -0.024
24.8986 0.298
24.9289 -0.213
24.9591 -0.464
24.9894 0.102
25.0197 -0.008
25.0500 -0.067
25.0803 0.136
25.1105 0.547
25.1408 -0.136
25.1711 -0.089
25.2014 0.218
25.2316 0.161
25.2619 0.000
25.2922 0.048
25.3225 0.096
25.3528 -0.117
25.3830 0.244
25.4133 0.189
25.4436 -0.179
25.4739 0.078
25.5042 0.023
25.5344 0.333
25.5647 -0.138
25.5950 0.068
25.6253 0.014
25.6555 0.064
25.6858 0.010
25.7161 0.165
25.7464 0.060
25.7767 -0.045
25.8069 0.735
25.8372 0.266
25.8675 0.005
25.8978 -0.047
25.9281 0.058
25.9583 -0.046
25.9886 0.215
26.0189 -0.045
26.0492 0.061
26.0794 0.218
26.1097 -0.197
26.1400 -0.300
26.1703 -0.092
26.2006 -0.249
26.2308 -0.145
26.2611 -0.041
26.2914 -0.406
26.3217 0.063
26.3520 -0.041
26.3822 0.012
26.4125 0.117
26.4428 0.118
26.4731 0.380
26.5034 0.173
26.5336 0.487
26.5639 -0.032
26.5942 0.075
26.6245 -0.287
26.6547 -0.285
26.6850 -0.282
26.7153 0.242
26.7456 0.506
26.7759 0.770
26.8061 -0.008
26.8364 0.621
26.8667 -0.469
26.8970 -0.048
26.9273 0.009
26.9575 0.014
26.9878 0.384
27.0181 0.285
27.0484 -0.335
27.0786 -0.397
27.1089 0.270
27.1392 0.624
27.1695 0.146
27.1998 0.032
27.2300 0.544
27.2603 0.327
27.2906 0.110
27.3209 0.310
27.3512 -0.011
27.3814 0.345
27.4117 0.285
27.4420 0.121
27.4723 -0.042
27.5025 0.263
27.5328 0.100
27.5631 0.510
27.5934 0.243
27.6237 -0.337
27.6539 -0.187
27.6842 0.433
27.7145 0.062
27.7448 0.005
27.7751 -0.209
27.8053 0.984
27.8356 -0.427
27.8659 -0.171
27.8962 0.085
27.9264 0.341
27.9567 0.389
27.9870 -0.187
28.0173 0.122
28.0476 0.014
28.0778 0.115
28.1081 0.113
28.1384 0.162
28.1687 -0.465
28.1990 -0.103
28.2292 0.468
28.2595 0.571
28.2898 -0.160
28.3201 -0.474
28.3503 0.044
28.3806 0.249
28.4109 0.820
28.4412 0.244
28.4715 0.398
28.5017 -0.177
28.5320 -0.178
28.5623 0.341
28.5926 -0.181
28.6229 -0.130
28.6531 -0.808
28.6834 0.181
28.7137 -0.028
28.7440 -0.341
28.7742 -0.028
28.8045 -0.288
28.8348 -0.600
28.8651 0.338
28.8954 -0.026
28.9256 0.392
28.9559 -0.232
28.9862 0.134
29.0165 0.084
29.0468 0.138
29.0770 0.296
29.1073 -0.326
29.1376 0.562
29.1679 -0.269
29.1981 -0.526
29.2284 0.148
29.2587 0.301
29.2890 0.141
29.3193 0.295
29.3495 -0.176
29.3798 0.498
29.4101 0.236
29.4404 0.338
29.4707 -0.028
29.5009 0.335
29.5312 0.229
29.5615 -0.397
29.5918 -0.366
29.6221 0.342
29.6523 0.269
29.6826 0.092
29.7129 -0.137
29.7432 -0.209
29.7734 -0.073
29.8037 0.272
29.8340 -0.060
29.8643 0.025
29.8946 0.162
29.9248 0.195
29.9551 0.124
29.9854 -0.571
30.0157 0.296
30.0460 -0.087
30.0762 0.208
30.1065 -0.226
30.1368 -0.244
30.1671 0.156
30.1973 -0.017
30.2276 0.018
30.2579 -0.155
30.2882 -0.223
30.3185 0.334
30.3487 0.578
30.3790 0.302
30.4093 0.391
30.4396 0.532
30.4699 0.413
30.5001 0.451
30.5304 -0.033
30.5607 -0.099
30.5910 -0.321
30.6212 0.186
30.6515 0.693
30.6818 0.731
30.7121 0.510
30.7424 0.549
30.7726 0.588
30.8029 0.628
30.8332 0.876
30.8635 0.551
30.8938 1.737
30.9240 0.997
30.9543 1.194
30.9846 1.234
31.0149 2.317
31.0451 2.567
31.0754 2.713
31.1057 2.233
31.1360 2.796
31.1663 3.255
31.1965 2.725
31.2268 3.705
31.2571 4.216
31.2874 5.249
31.3177 6.126
31.3479 6.169
31.3782 7.307
31.4085 8.080
31.4388 11.197
31.4690 12.335
31.4993 13.578
31.5296 15.602
31.5599 18.303
31.5902 19.025
31.6204 20.842
31.6507 21.356
31.6810 17.965
31.7113 16.396
31.7416 16.286
31.7718 12.687
31.8021 10.963
31.8324 10.229
31.8627 7.099
31.8929 5.740
31.9232 5.319
31.9535 5.575
31.9838 3.905
32.0141 3.641
32.0443 3.585
32.0746 3.426
32.1049 2.485
32.1352 1.701
32.1655 1.959
32.1957 1.331
32.2260 0.860
32.2563 1.275
32.2866 1.065
32.3169 0.126
32.3471 1.114
32.3774 0.020
32.4077 0.644
32.4380 0.799
32.4682 0.747
32.4985 0.382
32.5288 0.382
32.5591 0.434
32.5894 0.539
32.6196 0.175
32.6499 0.905
32.6802 0.542
32.7105 -0.186
32.7408 0.441
32.7710 0.807
32.8013 -0.077
32.8316 0.238
32.8619 -0.072
32.8921 -0.173
32.9224 0.871
32.9527 -0.688
32.9830 -0.216
33.0133 0.256
33.0435 0.000
33.0738 0.785
33.1041 -0.409
33.1344 -0.300
33.1647 0.173
33.1949 -0.187
33.2252 0.652
33.2555 -0.228
33.2858 -0.171
33.3160 -0.582
33.3463 -0.020
33.3766 0.490
33.4069 0.324
33.4372 -0.207
33.4674 -0.322
33.4977 1.023
33.5280 0.440
33.5583 0.066
33.5886 0.630
33.6188 0.360
33.6491 0.508
33.6794 1.593
33.7097 1.064
33.7399 0.483
33.7702 0.787
33.8005 1.248
33.8308 1.033
33.8611 1.129
33.8913 1.383
33.9216 2.834
33.9519 2.151
33.9822 2.405
34.0125 3.961
34.0427 4.737
34.0730 5.304
34.1033 6.913
34.1336 9.564
34.1638 10.132
34.1941 14.033
34.2244 15.122
34.2547 17.514
34.2850 20.166
34.3152 20.579
34.3455 19.377
34.3758 14.530
34.4061 12.495
34.4364 8.482
34.4666 7.906
34.4969 5.039
34.5272 4.359
34.5575 3.211
34.5877 2.324
34.6180 1.801
34.6483 2.477
34.6786 0.965
34.7089 0.756
34.7391 0.859
34.7694 0.963
34.7997 0.129
34.8300 0.181
34.8603 0.858
34.8905 0.962
34.9208 -0.495
34.9511 0.599
34.9814 0.079
35.0116 0.809
35.0419 0.342
35.0722 0.812
35.1025 0.293
35.1328 0.243
35.1630 0.766
35.1933 0.508
35.2236 0.303
35.2539 0.722
35.2842 0.100
35.3144 1.770
35.3447 1.461
35.3750 1.048
35.4053 1.105
35.4356 1.734
35.4658 2.103
35.4961 1.847
35.5264 2.008
35.5567 1.649
35.5869 2.279
35.6172 2.962
35.6475 3.592
35.6778 3.390
35.7081 4.334
35.7383 5.798
35.7686 5.961
35.7989 7.062
35.8292 7.225
35.8595 7.545
35.8897 9.792
35.9200 12.040
35.9503 13.714
35.9806 15.129
36.0108 18.002
36.0411 21.083
36.0714 22.915
36.1017 25.059
36.1320 24.339
36.1622 24.609
36.1925 25.244
36.2228 22.077
36.2531 16.775
36.2834 12.514
36.3136 12.264
36.3439 9.671
36.3742 8.640
36.4045 7.193
36.4347 7.674
36.4650 6.019
36.4953 4.051
36.5256 4.272
36.5559 3.868
36.5861 2.630
36.6164 2.539
36.6467 2.239
36.6770 0.898
36.7073 2.474
36.7375 1.394
36.7678 0.992
36.7981 0.902
36.8284 0.968
36.8586 0.410
36.8889 0.268
36.9192 0.596
36.9495 0.350
36.9798 0.366
37.0100 0.329
37.0403 0.502
37.0706 0.309
37.1009 0.170
37.1312 0.186
37.1614 0.203
37.1917 0.480
37.2220 0.445
37.2523 0.254
37.2825 0.116
37.3128 -0.335
37.3431 0.516
37.3734 0.170
37.4037 0.085
37.4339 -0.001
37.4642 0.226
37.4945 -0.015
37.5248 -0.412
37.5551 0.389
37.5853 -0.581
37.6156 -0.144
37.6459 0.137
37.6762 -0.155
37.7064 0.334
37.7367 -0.114
37.7670 -0.353
37.7973 -0.076
37.8276 0.044
37.8578 0.790
37.8881 0.130
37.9184 -0.374
37.9487 -0.200
37.9790 -0.339
38.0092 0.040
38.0395 -0.103
38.0698 0.328
38.1001 -0.075
38.1304 -0.008
38.1606 -0.306
38.1909 0.230
38.2212 -0.484
38.2515 0.156
38.2817 0.172
38.3120 -0.125
38.3423 0.256
38.3726 -0.093
38.4029 -0.180
38.4331 -0.060
38.4634 0.218
38.4937 0.079
38.5240 -0.216
38.5543 0.218
38.5845 0.131
38.6148 -0.111
38.6451 -0.041
38.6754 -0.335
38.7056 -0.066
38.7359 0.203
38.7662 -0.101
38.7965 0.169
38.8268 -0.030
38.8570 0.032
38.8873 -0.219
38.9176 -0.053
38.9479 0.166
38.9782 -0.345
39.0084 -0.022
39.0387 0.562
39.0690 -0.208
39.0993 0.116
39.1295 -0.029
39.1598 0.347
39.1901 -0.005
39.2204 0.320
39.2507 -0.241
39.2809 0.136
39.3112 -0.059
39.3415 -0.255
39.3718 -0.152
39.4021 -0.154
39.4323 0.261
39.4626 0.155
39.4929 -0.002
39.5232 -0.107
39.5534 -0.212
39.5837 -0.109
39.6140 0.255
39.6443 0.360
39.6746 -0.161
39.7048 -0.005
39.7351 0.361
39.7654 0.257
39.7957 -0.159
39.8260 0.051
39.8562 0.000
39.8865 -0.363
39.9168 0.421
39.9471 -0.046
39.9773 0.373
40.0076 0.063
40.0379 0.326
40.0682 0.069
40.0985 0.124
40.1287 0.232
40.1590 0.391
40.1893 -0.021
40.2196 0.608
40.2499 0.404
40.2801 -0.165
40.3104 -0.004
40.3407 0.210
40.3710 0.163
40.4012 0.324
40.4315 -0.035
40.4618 0.127
40.4921 -0.075
40.5224 0.296
40.5526 0.146
40.5829 0.622
40.6132 -0.048
40.6435 -0.041
40.6738 -0.242
40.7040 -0.036
40.7343 0.171
40.7646 0.222
40.7949 0.481
40.8251 0.168
40.8554 0.375
40.8857 0.114
40.9160 0.322
40.9463 0.322
40.9765 0.218
41.0068 -0.094
41.0371 0.167
41.0674 0.064
41.0977 -0.092
41.1279 0.118
41.1582 0.328
41.1885 0.069
41.2188 0.383
41.2491 0.333
41.2793 0.336
41.3096 0.182
41.3399 -0.180
41.3702 -0.021
41.4004 0.087
41.4307 0.038
41.4610 -0.010
41.4913 -0.475
41.5216 -0.062
41.5518 0.195
41.5821 -0.121
41.6124 0.136
41.6427 0.081
41.6730 -0.026
41.7032 0.128
41.7335 0.230
41.7638 0.020
41.7941 0.279
41.8243 -0.192
41.8546 0.067
41.8849 -0.455
41.9152 0.326
41.9455 -0.091
41.9757 -0.092
42.0060 0.168
42.0363 -0.196
42.0666 0.012
42.0969 0.117
42.1271 0.222
42.1574 0.379
42.1877 -0.089
42.2180 0.017
42.2482 -0.242
42.2785 -0.088
42.3088 -0.194
42.3391 -0.403
42.3694 0.273
42.3996 0.167
42.4299 -0.042
42.4602 -0.146
42.4905 0.270
42.5208 0.270
42.5510 -0.147
42.5813 0.218
42.6116 0.115
42.6419 0.115
42.6721 -0.040
42.7024 0.586
42.7327 0.015
42.7630 -0.140
42.7933 -0.242
42.8235 0.061
42.8538 -0.156
42.8841 0.564
42.9144 -0.017
42.9447 0.079
42.9749 -0.190
43.0052 -0.250
43.0355 0.159
43.0658 -0.005
43.0960 0.300
43.1263 -0.175
43.1566 0.130
43.1869 0.072
43.2172 0.274
43.2474 0.476
43.2777 -0.155
43.3080 -0.057
43.3383 -0.114
43.3686 0.141
43.3988 0.292
43.4291 -0.233
43.4594 -0.290
43.4897 0.174
43.5199 -0.090
43.5502 0.270
43.5805 -0.046
43.6108 -0.206
43.6411 -0.261
43.6713 -0.264
43.7016 0.148
43.7319 -0.168
43.7622 0.141
43.7925 0.085
43.8227 0.082
43.8530 -0.182
43.8833 -0.028
43.9136 -0.083
43.9439 0.175
43.9741 -0.088
44.0044 0.015
44.0347 -0.352
44.0650 0.064
44.0952 -0.198
44.1255 -0.043
44.1558 -0.356
44.1861 0.112
44.2164 0.372
44.2466 -0.045
44.2769 -0.253
44.3072 -0.097
44.3375 0.008
44.3678 0.113
44.3980 0.113
44.4283 -0.250
44.4586 -0.145
44.4889 -0.195
44.5191 0.119
44.5494 -0.243
44.5797 0.019
44.6100 0.334
44.6403 0.129
44.6705 0.027
44.7008 -0.074
44.7311 -0.175
44.7614 -0.119
44.7917 0.041
44.8219 -0.372
44.8522 0.414
44.8825 -0.103
44.9128 0.527
44.9430 -0.145
44.9733 0.485
45.0036 0.230
45.0339 0.027
45.0642 0.085
45.0944 -0.065
45.1247 0.097
45.1550 -0.105
45.1853 -0.255
45.2156 -0.351
45.2458 0.163
45.2761 0.469
45.3064 0.306
45.3367 0.195
45.3669 0.345
45.3972 0.392
45.4275 0.073
45.4578 0.328
45.4881 -0.250
45.5183 0.162
45.5486 0.053
45.5789 -0.264
45.6092 -0.171
45.6395 0.235
45.6697 0.068
45.7000 0.058
45.7303 0.204
45.7606 -0.327
45.7908 0.080
45.8211 -0.085
45.8514 0.062
45.8817 -0.208
45.9120 0.200
45.9422 -0.329
45.9725 -0.077
46.0028 -0.502
46.0331 0.219
46.0634 -0.309
46.0936 -0.160
46.1239 -0.063
46.1542 0.242
46.1845 0.079
46.2147 -0.292
46.2450 0.014
46.2753 0.373
46.3056 -0.102
46.3359 -0.264
46.3661 0.043
46.3964 0.350
46.4267 -0.644
46.4570 -0.232
46.4873 0.284
46.5175 -0.033
46.5478 0.432
46.5781 -0.041
46.6084 0.007
46.6386 -0.048
46.6689 -0.416
46.6992 -0.059
46.7295 0.142
46.7598 0.500
46.7900 -0.080
46.8203 -0.191
46.8506 0.740
46.8809 0.422
46.9112 0.624
46.9414 0.826
46.9717 0.665
47.0020 0.399
47.0323 1.331
47.0626 1.118
47.0928 0.749
47.1231 1.838
47.1534 1.834
47.1837 1.361
47.2139 2.503
47.2442 2.344
47.2745 3.174
47.3048 3.848
47.3351 3.845
47.3653 3.113
47.3956 3.058
47.4259 3.577
47.4562 2.950
47.4865 3.313
47.5167 3.363
47.5470 2.997
47.5773 2.580
47.6076 2.110
47.6378 1.953
47.6681 1.588
47.6984 1.796
47.7287 1.692
47.7590 1.536
47.7892 0.651
47.8195 1.016
47.8498 0.652
47.8801 0.237
47.9104 0.967
47.9406 0.292
47.9709 0.241
48.0012 0.243
48.0315 -0.067
48.0617 0.613
48.0920 -0.479
48.1223 -0.059
48.1526 0.100
48.1829 -0.313
48.2131 -0.101
48.2434 0.007
48.2737 -0.250
48.3040 0.119
48.3343 0.019
48.3645 -0.341
48.3948 -0.129
48.4251 -0.178
48.4554 0.190
48.4856 0.037
48.5159 0.458
48.5462 -0.371
48.5765 -0.263
48.6068 -0.102
48.6370 -0.462
48.6673 0.064
48.6976 -0.556
48.7279 0.075
48.7582 -0.024
48.7884 0.086
48.8187 -0.064
48.8490 0.464
48.8793 0.470
48.9095 -0.044
48.9398 -0.141
48.9701 0.074
49.0004 0.186
49.0307 -0.275
49.0609 -0.267
49.0912 0.001
49.1215 0.062
49.1518 0.122
49.1821 0.183
49.2123 -0.745
49.2426 0.149
49.2729 -0.154
49.3032 0.169
49.3334 0.074
49.3637 -0.072
49.3940 -0.166
49.4243 -0.259
49.4546 0.220
49.4848 -0.186
49.5151 -0.279
49.5454 0.095
49.5757 0.157
49.6060 0.011
49.6362 -0.083
49.6665 0.292
49.6968 -0.062
49.7271 -0.156
49.7574 0.011
49.7876 0.595
49.8179 0.346
49.8482 -0.006
49.8785 0.578
49.9087 0.226
49.9390 0.342
49.9693 0.094
49.9996 -0.049
50.0299 -0.245
50.0601 -0.034
50.0904 0.124
50.1207 0.178
50.1510 -0.132
50.1813 -0.181
50.2115 0.238
50.2418 0.397
50.2721 0.244
50.3024 0.144
50.3326 0.148
50.3629 0.204
50.3932 0.156
50.4235 0.368
50.4538 0.008
50.4840 -0.091
50.5143 -0.294
50.5446 0.010
50.5749 0.679
50.6052 -0.059
50.6354 -0.067
50.6657 -0.022
50.6960 -0.290
50.7263 0.432
50.7565 0.112
50.7868 0.053
50.8171 0.203
50.8474 0.145
50.8777 0.399
50.9079 0.080
50.9382 -0.029
50.9685 -0.295
50.9988 0.429
51.0291 0.111
51.0593 0.263
51.0896 -0.419
51.1199 -0.111
51.1502 -0.167
51.1804 -0.015
51.2107 -0.227
51.2410 0.030
51.2713 -0.077
51.3016 -0.237
51.3318 0.229
51.3621 -0.346
51.3924 0.485
51.4227 0.170
51.4530 0.272
51.4832 -0.094
51.5135 -0.460
51.5438 0.059
51.5741 -0.463
51.6043 0.214
51.6346 -0.256
51.6649 -0.152
51.6952 -0.308
51.7255 0.212
51.7557 0.056
51.7860 0.213
51.8163 -0.359
51.8466 -0.150
51.8769 0.320
51.9071 -0.199
51.9374 0.115
51.9677 -0.092
51.9980 0.223
52.0282 -0.088
52.0585 -0.085
52.0888 -0.291
52.1191 0.181
52.1494 0.080
52.1796 0.187
52.2099 -0.330
52.2402 -0.066
52.2705 -0.062
52.3008 0.047
52.3310 -0.418
52.3613 0.108
52.3916 -0.200
52.4219 -0.299
52.4521 0.119
52.4824 0.173
52.5127 -0.137
52.5430 -0.030
52.5733 -0.184
52.6035 0.027
52.6338 -0.074
52.6641 0.033
52.6944 -0.015
52.7247 -0.220
52.7549 -0.164
52.7852 0.049
52.8155 -0.051
52.8458 -0.099
52.8761 -0.042
52.9063 -0.037
52.9366 0.073
52.9669 0.026
52.9972 -0.125
53.0274 -0.119
53.0577 -0.165
53.0880 0.206
53.1183 0.057
53.1486 -0.145
53.1788 -0.242
53.2091 0.063
53.2394 0.004
53.2697 -0.211
53.3000 0.200
53.3302 -0.171
53.3605 -0.073
53.3908 -0.183
53.4211 0.072
53.4513 -0.037
53.4816 0.010
53.5119 0.265
53.5422 -0.104
53.5725 -0.161
53.6027 0.148
53.6330 0.248
53.6633 -0.329
53.6936 0.345
53.7239 0.185
53.7541 0.338
53.7844 0.387
53.8147 -0.084
53.8450 0.226
53.8752 -0.141
53.9055 -0.403
53.9358 0.064
53.9661 -0.457
53.9964 0.063
54.0266 0.010
54.0569 0.010
54.0872 -0.146
54.1175 0.063
54.1478 -0.197
54.1780 0.064
54.2083 -0.144
54.2386 -0.351
54.2689 0.065
54.2991 0.169
54.3294 0.013
54.3597 -0.299
54.3900 -0.094
54.4203 -0.097
54.4505 0.004
54.4808 0.053
54.5111 0.103
54.5414 -0.055
54.5717 -0.214
54.6019 -0.111
54.6322 -0.217
54.6625 -0.114
54.6928 -0.011
54.7230 0.196
54.7533 -0.065
54.7836 0.091
54.8139 -0.066
54.8442 0.090
54.8744 -0.326
54.9047 -0.170
54.9350 -0.274
54.9653 0.084
54.9956 -0.235
55.0258 0.072
55.0561 0.014
55.0864 -0.043
55.1167 -0.101
55.1469 0.467
55.1772 -0.163
55.2075 0.041
55.2378 0.036
55.2681 0.397
55.2983 0.132
55.3286 0.024
55.3589 0.073
55.3892 0.070
55.4195 -0.298
55.4497 -0.093
55.4800 -0.408
55.5103 0.001
55.5406 0.306
55.5709 0.037
55.6011 0.290
55.6314 0.075
55.6617 0.380
55.6920 -0.251
55.7222 0.523
55.7525 0.152
55.7828 0.303
55.8131 0.609
55.8434 0.656
55.8736 -0.131
55.9039 0.593
55.9342 0.484
55.9645 0.948
55.9948 0.735
56.0250 0.887
56.0553 0.518
56.0856 1.451
56.1159 1.500
56.1461 1.600
56.1764 1.806
56.2067 2.428
56.2370 2.477
56.2673 3.151
56.2975 2.211
56.3278 4.032
56.3581 3.822
56.3884 5.539
56.4187 4.912
56.4489 4.390
56.4792 5.379
56.5095 5.170
56.5398 5.065
56.5700 5.325
56.6003 3.866
56.6306 3.814
56.6609 3.138
56.6912 3.138
56.7214 2.722
56.7517 2.150
56.7820 1.787
56.8123 1.059
56.8426 1.269
56.8728 1.271
56.9031 0.804
56.9334 0.858
56.9637 0.757
56.9939 0.447
57.0242 0.450
57.0545 0.297
57.0848 0.352
57.1151 0.981
57.1453 -0.318
57.1756 0.572
57.2059 0.003
57.2362 -0.149
57.2665 0.481
57.2967 0.017
57.3270 0.439
57.3573 -0.077
57.3876 0.242
57.4178 0.091
57.4481 0.253
57.4784 -0.209
57.5087 -0.203
57.5390 -0.248
57.5692 -0.346
57.5995 0.547
57.6298 -0.383
57.6601 -0.011
57.6904 -0.055
57.7206 0.005
57.7509 -0.195
57.7812 0.230
57.8115 -0.022
57.8417 0.143
57.8720 0.152
57.9023 0.161
57.9326 -0.142
57.9629 0.389
57.9931 -0.070
58.0234 -0.372
58.0537 0.107
58.0840 -0.559
58.1143 -0.189
58.1445 -0.183
58.1748 0.241
58.2051 0.039
58.2354 0.046
58.2656 -0.259
58.2959 0.165
58.3262 -0.297
58.3565 -0.245
58.3868 -0.092
58.4170 -0.513
58.4473 0.109
58.4776 0.053
58.5079 -0.106
58.5382 -0.005
58.5684 0.149
58.5987 0.042
58.6290 0.301
58.6593 -0.118
58.6896 -0.120
58.7198 -0.173
58.7501 0.138
58.7804 -0.176
58.8107 -0.333
58.8409 0.135
58.8712 -0.386
58.9015 0.082
58.9318 -0.126
58.9621 -0.074
58.9923 -0.125
59.0226 -0.281
59.0529 0.085
59.0832 -0.487
59.1135 0.087
59.1437 -0.172
59.1740 0.038
59.2043 -0.064
59.2346 0.094
59.2648 -0.216
59.2951 0.047
59.3254 0.050
59.3557 0.053
59.3860 -0.100
59.4162 0.112
59.4465 -0.092
59.4768 -0.245
59.5071 -0.085
59.5374 -0.238
59.5676 0.078
59.5979 0.342
59.6282 -0.175
59.6585 0.090
59.6887 0.042
59.7190 0.151
59.7493 -0.157
59.7796 0.160
59.8099 -0.043
59.8401 -0.037
59.8704 0.125
59.9007 -0.130
59.9310 0.137
59.9613 -0.221
59.9915 -0.267
60.0218 0.150
60.0521 -0.058
60.0824 0.099
60.1126 0.256
60.1429 0.257
60.1732 -0.158
60.2035 0.156
60.2338 -0.311
60.2640 -0.101
60.2943 -0.099
60.3246 -0.097
60.3549 0.062
60.3852 0.117
60.4154 -0.244
60.4457 0.488
60.4760 0.127
60.5063 -0.182
60.5365 0.239
60.5668 0.295
60.5971 0.039
60.6274 0.096
60.6577 -0.108
60.6879 0.157
60.7182 0.371
60.7485 0.272
60.7788 -0.295
60.8091 -0.237
60.8393 0.219
60.8696 -0.001
60.8999 0.403
60.9302 0.131
60.9604 -0.089
60.9907 0.108
61.0210 0.097
61.0513 -0.175
61.0816 -0.133
61.1118 -0.040
61.1421 0.211
61.1724 0.253
61.2027 0.191
61.2330 0.337
61.2632 0.224
61.2935 -0.202
61.3238 -0.211
61.3541 0.301
61.3844 0.084
61.4146 0.180
61.4449 -0.245
61.4752 -0.097
61.5055 -0.052
61.5357 0.045
61.5660 0.142
61.5963 -0.178
61.6266 -0.237
61.6569 0.382
61.6871 0.063
61.7174 0.473
61.7477 -0.001
61.7780 -0.007
61.8083 -0.117
61.8385 -0.174
61.8688 -0.075
61.8991 -0.132
61.9294 0.541
61.9596 0.016
61.9899 -0.145
62.0202 0.320
62.0505 0.421
62.0808 0.626
62.1110 -0.055
62.1413 -0.058
62.1716 0.356
62.2019 0.614
62.2322 0.664
62.2624 0.922
62.2927 0.660
62.3230 1.022
62.3533 1.177
62.3835 0.968
62.4138 1.331
62.4441 1.591
62.4744 1.850
62.5047 1.954
62.5349 2.527
62.5652 2.058
62.5955 3.256
62.6258 3.049
62.6561 3.206
62.6863 4.248
62.7166 3.156
62.7469 5.188
62.7772 3.732
62.8074 4.358
62.8377 3.215
62.8680 3.321
62.8983 3.011
62.9286 2.753
62.9588 2.808
62.9891 2.238
63.0194 2.346
63.0497 2.297
63.0800 1.103
63.1102 0.899
63.1405 1.789
63.1708 0.908
63.2011 0.912
63.2313 1.126
63.2616 0.974
63.2919 0.615
63.3222 0.569
63.3525 0.835
63.3827 0.581
63.4130 -0.247
63.4433 0.177
63.4736 0.652
63.5039 0.294
63.5341 0.249
63.5644 0.465
63.5947 0.212
63.6250 0.324
63.6552 0.124
63.6855 0.184
63.7158 0.192
63.7461 -0.268
63.7764 -0.051
63.8066 0.167
63.8369 -0.032
63.8672 0.290
63.8975 -0.117
63.9278 0.466
63.9580 0.007
63.9883 -0.191
64.0186 0.341
64.0489 0.352
64.0791 0.050
64.1094 -0.043
64.1397 -0.396
64.1700 -0.039
64.2003 0.006
64.2305 -0.210
64.2608 0.044
64.2911 0.193
64.3214 0.030
64.3517 0.128
64.3819 0.382
64.4122 -0.301
64.4425 0.058
64.4728 -0.103
64.5031 -0.056
64.5333 0.095
64.5636 -0.275
64.5939 0.033
64.6242 -0.231
64.6544 0.337
64.6847 -0.083
64.7150 -0.035
64.7453 -0.455
64.7756 0.010
64.8058 -0.097
64.8361 -0.152
64.8664 0.002
64.8967 -0.313
64.9270 -0.055
64.9572 -0.004
64.9875 -0.110
65.0178 -0.060
65.0481 -0.009
65.0783 -0.010
65.1086 0.198
65.1389 -0.272
65.1692 -0.276
65.1995 0.241
65.2297 0.342
65.2600 -0.078
65.2903 -0.081
65.3206 -0.188
65.3509 -0.087
65.3811 -0.089
65.4114 -0.196
65.4417 0.271
65.4720 0.322
65.5022 -0.045
65.5325 0.058
65.5628 -0.308
65.5931 0.421
65.6234 -0.101
65.6536 -0.153
65.6839 0.419
65.7142 0.419
65.7445 0.159
65.7748 0.264
65.8050 0.004
65.8353 -0.047
65.8656 -0.255
65.8959 -0.414
65.9261 0.624
65.9564 0.413
65.9867 0.306
66.0170 0.459
66.0473 -0.012
66.0775 0.350
66.1078 0.921
66.1381 0.243
66.1684 -0.072
66.1987 0.292
66.2289 0.655
66.2592 0.759
66.2895 0.237
66.3198 0.289
66.3500 -0.076
66.3803 0.184
66.4106 0.393
66.4409 0.029
66.4712 0.394
66.5014 0.968
66.5317 0.813
66.5620 0.397
66.5923 0.451
66.6226 0.453
66.6528 0.194
66.6831 0.717
66.7134 0.303
66.7437 0.410
66.7739 -0.108
66.8042 0.155
66.8345 -0.102
66.8648 -0.255
66.8951 -0.004
66.9253 0.248
66.9556 -0.126
66.9859 0.386
67.0162 0.690
67.0465 0.004
67.0767 0.309
67.1070 0.405
67.1373 0.189
67.1676 0.129
67.1978 0.174
67.2281 0.271
67.2584 0.160
67.2887 0.153
67.3190 0.459
67.3492 0.714
67.3795 0.656
67.4098 1.379
67.4401 0.644
67.4704 0.743
67.5006 0.894
67.5309 0.733
67.5612 1.562
67.5915 1.505
67.6218 1.918
67.6520 1.549
67.6823 2.118
67.7126 2.531
67.7429 2.111
67.7731 3.306
67.8034 3.147
67.8337 2.988
67.8640 2.777
67.8943 2.879
67.9245 2.409
67.9548 2.355
67.9851 1.832
68.0154 2.196
68.0457 2.247
68.0759 0.891
68.1062 1.203
68.1365 1.359
68.1668 0.890
68.1970 0.942
68.2273 0.682
68.2576 0.786
68.2879 0.318
68.3182 0.788
68.3484 0.372
68.3787 0.061
68.4090 0.219
68.4393 0.481
68.4696 0.483
68.4998 -0.296
68.5301 0.592
68.5604 0.751
68.5907 0.441
68.6209 0.236
68.6512 -0.021
68.6815 0.555
68.7118 0.454
68.7421 0.198
68.7723 1.348
68.8026 1.092
68.8329 0.524
68.8632 0.737
68.8935 1.263
68.9237 0.851
68.9540 1.325
68.9843 0.967
69.0146 1.285
69.0448 0.510
69.0751 0.464
69.1054 0.679
69.1357 0.634
69.1660 0.276
69.1962 0.804
69.2265 0.968
69.2568 0.611
69.2871 0.254
69.3174 0.315
69.3476 0.219
69.3779 0.332
69.4082 0.549
69.4385 0.141
69.4687 0.202
69.4990 0.316
69.5293 0.117
69.5596 0.179
69.5899 0.085
69.6201 -0.165
69.6504 -0.259
69.6807 0.221
69.7110 -0.341
69.7413 0.087
69.7715 -0.110
69.8018 0.006
69.8321 -0.034
69.8624 -0.127
69.8926 0.198
69.9229 -0.362
69.9532 0.015
69.9835 0.028
70.0138 -0.063
70.0440 0.055
70.0743 -0.088
70.1046 0.759
70.1349 -0.112
70.1652 0.163
70.1954 -0.239
70.2257 0.140
70.2560 0.051
70.2863 -0.090
70.3166 -0.231
70.3468 0.026
70.3771 0.441
70.4074 -0.239
70.4377 -0.085
70.4679 -0.034
70.4982 0.433
70.5285 0.223
70.5588 0.014
70.5891 -0.092
70.6193 0.116
70.6496 -0.041
70.6799 -0.041
70.7102 0.376
70.7405 0.115
70.7707 0.011
70.8010 0.325
70.8313 -0.039
70.8616 -0.247
70.8918 0.276
70.9221 -0.140
70.9524 -0.034
70.9827 0.281
71.0130 0.074
71.0432 0.025
71.0735 0.184
71.1038 0.186
71.1341 0.189
71.1644 -0.120
71.1946 0.144
71.2249 0.148
71.2552 0.099
71.2855 0.051
71.3157 0.004
71.3460 0.321
71.3763 0.065
71.4066 -0.138
71.4369 0.284
71.4671 0.185
71.4974 0.086
71.5277 0.144
71.5580 0.307
71.5883 0.209
71.6185 0.372
71.6488 0.222
71.6791 0.021
71.7094 0.080
71.7396 0.035
71.7699 -0.217
71.8002 0.520
71.8305 -0.097
71.8608 0.171
71.8910 0.076
71.9213 0.501
71.9516 0.093
71.9819 -0.158
72.0122 -0.165
72.0424 0.140
72.0727 0.289
72.1030 0.230
72.1333 0.171
72.1635 0.373
72.1938 0.158
72.2241 0.361
72.2544 0.251
72.2847 0.245
72.3149 0.760
72.3452 0.287
72.3755 0.334
72.4058 0.433
72.4361 0.116
72.4663 0.320
72.4966 0.160
72.5269 0.364
72.5572 0.257
72.5874 0.201
72.6177 0.094
72.6480 0.195
72.6783 0.088
72.7086 0.294
72.7388 0.448
72.7691 0.394
72.7994 0.184
72.8297 0.234
72.8600 0.129
72.8902 0.440
72.9205 0.231
72.9508 0.074
72.9811 0.177
73.0113 0.177
73.0416 0.229
73.0719 0.229
73.1022 -0.135
73.1325 -0.187
73.1627 -0.084
73.1930 0.176
73.2233 -0.137
73.2536 0.175
73.2839 -0.138
73.3141 0.175
73.3444 0.383
73.3747 0.071
73.4050 0.280
73.4353 0.073
73.4655 -0.187
73.4958 -0.135
73.5261 -0.187
73.5564 -0.085
73.5866 -0.087
73.6169 0.068
73.6472 -0.194
73.6775 0.169
73.7078 -0.040
73.7380 -0.093
73.7683 0.166
73.7986 0.010
73.8289 0.062
73.8592 -0.043
73.8894 0.322
73.9197 -0.094
73.9500 -0.041
73.9803 0.064
74.0105 0.065
74.0408 0.379
74.0711 -0.401
74.1014 -0.087
74.1317 -0.137
74.1619 -0.187
74.1922 0.023
74.2225 -0.027
74.2528 -0.130
74.2831 0.081
74.3133 0.135
74.3436 0.086
74.3739 -0.172
74.4042 0.196
74.4344 0.303
74.4647 -0.058
74.4950 0.363
74.5253 -0.050
74.5556 0.006
74.5858 -0.042
74.6161 -0.089
74.6464 0.228
74.6767 -0.079
74.7070 -0.022
74.7372 -0.173
74.7675 -0.012
74.7978 -0.008
74.8281 -0.107
74.8583 0.211
74.8886 0.737
74.9189 0.013
74.9492 -0.138
74.9795 0.233
75.0097 0.083
75.0400 0.298
75.0703 -0.165
75.1006 -0.158
75.1309 -0.011
75.1611 -0.124
75.1914 0.127
75.2217 0.274
75.2520 0.110
75.2822 0.049
75.3125 0.145
75.3428 0.085
75.3731 -0.079
75.4034 0.226
75.4336 0.063
75.4639 0.056
75.4942 -0.211
75.5245 -0.062
75.5548 -0.016
75.5850 0.186
75.6153 0.024
75.6456 0.123
75.6759 0.013
75.7061 0.112
75.7364 0.055
75.7667 -0.106
75.7970 -0.111
75.8273 -0.115
75.8575 0.089
75.8878 0.137
75.9181 -0.335
75.9484 -0.184
75.9787 -0.136
76.0089 -0.036
76.0392 -0.144
76.0695 -0.148
76.0998 0.057
76.1301 -0.103
76.1603 0.103
76.1906 -0.004
76.2209 -0.111
76.2512 0.095
76.2814 0.040
76.3117 -0.118
76.3420 -0.172
76.3723 -0.017
76.4026 -0.070
76.4328 -0.176
76.4631 0.188
76.4934 -0.021
76.5237 -0.386
76.5540 0.083
76.5842 0.395
76.6145 0.135
76.6448 0.396
76.6751 0.136
76.7053 0.345
76.7356 0.398
76.7659 0.035
76.7962 0.089
76.8265 0.038
76.8567 0.040
76.8870 0.407
76.9173 -0.007
76.9476 0.204
76.9779 0.103
77.0081 0.314
77.0384 0.161
77.0687 0.061
77.0990 0.221
77.1292 0.225
77.1595 0.229
77.1898 -0.079
77.2201 0.134
77.2504 -0.226
77.2806 0.196
77.3109 0.305
77.3412 0.050
77.3715 -0.048
77.4018 0.166
77.4320 0.120
77.4623 -0.030
77.4926 0.185
77.5229 0.192
77.5531 0.199
77.5834 -0.106
77.6137 0.266
77.6440 0.222
77.6743 0.230
77.7045 0.029
77.7348 0.454
77.7651 -0.006
77.7954 -0.309
77.8257 0.116
77.8559 0.073
77.8862 0.291
77.9165 -0.064
77.9468 -0.158
77.9770 -0.112
78.0073 0.454
78.0376 0.136
78.0679 0.130
78.0982 -0.189
78.1284 0.014
78.1587 0.113
78.1890 0.004
78.2193 0.208
78.2496 0.047
78.2798 -0.010
78.3101 -0.066
78.3404 -0.018
78.3707 0.083
78.4009 0.183
78.4312 0.336
78.4615 -0.135
78.4918 -0.242
78.5221 0.224
78.5523 0.117
78.5826 0.219
78.6129 -0.095
78.6432 -0.149
78.6735 -0.046
78.7037 0.213
78.7340 0.160
78.7643 0.002
78.7946 0.106
78.8248 0.158
78.8551 0.210
78.8854 0.210
78.9157 0.002
78.9460 -0.154
78.9762 -0.049
79.0065 -0.153
79.0368 0.005
79.0671 0.162
79.0974 -0.253
79.1276 -0.201
79.1579 0.373
79.1882 0.061
79.2185 -0.043
79.2488 0.010
79.2790 0.012
79.3093 0.117
79.3396 0.015
79.3699 0.225
79.4001 -0.086
79.4304 -0.031
79.4607 -0.081
79.4910 0.286
79.5213 0.029
79.5515 0.084
79.5818 -0.173
79.6121 -0.173
79.6424 -0.070
79.6727 -0.020
79.7029 -0.021
79.7332 0.083
79.7635 0.134
79.7938 0.238
79.8240 -0.075
79.8543 0.081
79.8846 0.029
79.9149 -0.074
79.9452 0.135
79.9754 -0.177
80.0057 0.293
80.0360 -0.174
80.0663 -0.173
80.0966 0.081
80.1268 0.179
80.1571 0.225
80.1874 -0.197
80.2177 0.266
80.2479 0.157
80.2782 0.412
80.3085 -0.165
80.3388 0.142
80.3691 -0.070
80.3993 0.030
80.4296 0.130
80.4599 -0.134
80.4902 -0.033
80.5205 0.172
80.5507 -0.040
80.5810 -0.042
80.6113 0.059
80.6416 -0.256
80.6718 -0.103
80.7021 -0.001
80.7324 -0.004
80.7627 0.202
80.7930 0.044
80.8232 -0.062
80.8535 0.144
80.8838 -0.274
80.9141 0.090
80.9444 -0.224
80.9746 0.140
81.0049 -0.121
81.0352 0.035
81.0655 0.139
81.0957 0.035
81.1260 -0.173
81.1563 0.035
81.1866 0.192
81.2169 0.193
81.2471 -0.170
81.2774 -0.117
81.3077 0.198
81.3380 -0.165
81.3683 -0.111
81.3985 0.204
81.4288 0.154
81.4591 0.313
81.4894 0.368
81.5196 0.111
81.5499 0.114
81.5802 -0.247
81.6105 -0.035
81.6408 -0.187
81.6710 -0.134
81.7013 -0.030
81.7316 0.127
81.7619 -0.080
81.7922 0.181
81.8224 -0.026
81.8527 -0.076
81.8830 0.029
81.9133 -0.021
81.9436 -0.175
81.9738 -0.172
82.0041 -0.170
82.0344 -0.011
82.0647 0.097
82.0949 -0.004
82.1252 -0.157
82.1555 0.003
82.1858 -0.149
82.2161 0.167
82.2463 -0.141
82.2766 0.229
82.3069 0.233
82.3372 -0.074
82.3675 -0.173
82.3977 -0.072
82.4280 -0.075
82.4583 0.130
82.4886 -0.185
82.5188 -0.032
82.5491 0.122
82.5794 0.120
82.6097 -0.038
82.6400 0.012
82.6702 0.011
82.7005 0.166
82.7308 0.061
82.7611 -0.253
82.7914 -0.097
82.8216 -0.097
82.8519 0.112
82.8822 -0.096
82.9125 0.165
82.9427 0.166
82.9730 0.063
83.0033 -0.092
83.0336 -0.038
83.0639 -0.037
83.0941 -0.139
83.1244 -0.137
83.1547 -0.134
83.1850 0.233
83.2153 -0.129
83.2455 -0.021
83.2758 0.190
83.3061 0.090
83.3364 0.093
83.3666 0.045
83.3969 0.258
83.4272 0.158
83.4575 -0.098
83.4878 0.168
83.5180 0.121
83.5483 0.126
83.5786 0.288
83.6089 0.085
83.6392 -0.222
83.6694 -0.124
83.6997 -0.026
83.7300 0.229
83.7603 0.119
83.7905 -0.095
83.8208 0.212
83.8511 0.051
83.8814 -0.006
83.9117 0.041
83.9419 -0.068
83.9722 0.241
84.0025 0.237
84.0328 0.024
84.0631 0.073
84.0933 -0.139
84.1236 0.014
84.1539 0.012
84.1842 -0.304
84.2144 0.215
84.2447 0.160
84.2750 0.158
84.3053 -0.104
84.3356 -0.001
84.3658 -0.263
84.3961 0.100
84.4264 -0.057
84.4567 -0.162
84.4870 0.046
84.5172 -0.267
84.5475 -0.006
84.5778 0.202
84.6081 0.046
84.6383 0.047
84.6686 -0.161
84.6989 -0.055
84.7292 0.050
84.7595 0.104
84.7897 -0.051
84.8200 -0.361
84.8503 0.110
84.8806 -0.253
84.9109 -0.151
84.9411 -0.154
84.9714 0.208
85.0017 -0.003
85.0320 0.204
85.0623 0.254
85.0925 -0.060
85.1228 0.094
85.1531 -0.167
85.1834 0.040
85.2136 -0.273
85.2439 0.195
85.2742 -0.118
85.3045 -0.118
85.3348 -0.066
85.3650 -0.117
85.3953 0.092
85.4256 -0.064
85.4559 0.041
85.4862 -0.218
85.5164 0.044
85.5467 -0.006
85.5770 -0.004
85.6073 -0.159
85.6375 -0.104
85.6678 -0.154
85.6981 -0.047
85.7284 0.217
85.7587 -0.249
85.7889 -0.037
85.8192 0.071
85.8495 0.179
85.8798 -0.026
85.9101 -0.021
85.9403 -0.173
85.9706 -0.019
86.0009 -0.125
86.0312 -0.022
86.0614 0.133
86.0917 -0.129
86.1220 0.027
86.1523 0.182
86.1826 0.130
86.2128 0.234
86.2431 0.025
86.2734 0.130
86.3037 -0.234
86.3340 -0.130
86.3642 0.288
86.3945 -0.128
86.4248 0.186
86.4551 0.344
86.4853 0.294
86.5156 0.087
86.5459 -0.119
86.5762 -0.064
86.6065 0.095
86.6367 -0.007
86.6670 0.257
86.6973 0.052
86.7276 -0.049
86.7579 0.163
86.7881 -0.145
86.8184 -0.037
86.8487 0.124
86.8790 -0.028
86.9092 0.029
86.9395 0.399
86.9698 0.300
87.0001 -0.164
87.0304 -0.158
87.0606 -0.003
87.0909 0.257
87.1212 0.308
87.1515 0.255
87.1818 0.046
87.2120 0.202
87.2423 0.255
87.2726 0.203
87.3029 0.099
87.3331 0.048
87.3634 0.049
87.3937 -0.054
87.4240 0.103
87.4543 0.105
87.4845 0.159
87.5148 0.109
87.5451 0.267
87.5754 0.113
87.6057 -0.092
87.6359 0.171
87.6662 0.122
87.6965 0.021
87.7268 0.129
87.7571 -0.023
87.7873 0.085
87.8176 0.193
87.8479 -0.063
87.8782 -0.006
87.9084 0.259
87.9387 0.160
87.9690 -0.043
87.9993 -0.141
88.0296 -0.101
88.0598 0.147
88.0901 0.083
88.1204 0.175
88.1507 -0.045
88.1810 0.153
88.2112 0.298
88.2415 0.287
88.2718 0.433
88.3021 0.058
88.3323 0.256
88.3626 0.038
88.3929 0.080
88.4232 -0.034
88.4535 0.270
88.4837 0.208
88.5140 -0.061
88.5443 0.191
88.5746 -0.026
88.6049 -0.190
88.6351 0.166
88.6654 0.211
88.6957 0.412
88.7260 -0.064
88.7562 0.085
88.7865 -0.182
88.8168 0.436
88.8471 0.013
88.8774 0.163
88.9076 0.313
88.9379 -0.057
88.9682 -0.011
88.9985 0.245
89.0288 -0.073
89.0590 -0.286
89.0893 0.022
89.1196 0.071
89.1499 0.275
89.1801 0.012
89.2104 0.530
89.2407 0.423
89.2710 0.264
89.3013 0.470
89.3315 0.572
89.3618 0.049
89.3921 0.412
89.4224 0.514
89.4527 0.200
89.4829 0.460
89.5132 0.615
89.5435 0.302
89.5738 0.302
89.6040 0.249
89.6343 0.614
89.6646 0.302
89.6949 0.094
89.7252 0.251
89.7554 0.095
89.7857 0.513
89.8160 -0.006
89.8463 -0.005
89.8766 0.361
89.9068 0.311
89.9371 0.209
89.9674 0.212
89.9977 0.058
90.0279 0.217
90.0582 -0.196
90.0885 0.068
90.1188 -0.033
90.1491 0.387
90.1793 0.027
90.2096 0.031
90.2399 0.087
90.2702 0.040
90.3005 0.045
90.3307 0.415
90.3610 0.055
90.3913 -0.200
90.4216 -0.254
90.4518 0.212
90.4821 -0.050
90.5124 -0.416
90.5427 0.103
90.5730 -0.003
90.6032 -0.004
90.6335 0.100
90.6638 -0.057
90.6941 -0.058
90.7244 -0.058
90.7546 0.046
90.7849 0.046
90.8152 -0.057
90.8455 -0.109
90.8758 -0.316
90.9060 0.414
90.9363 -0.105
90.9666 -0.104
90.9969 0.158
91.0271 0.056
91.0574 -0.150
91.0877 -0.200
91.1180 -0.043
91.1483 -0.042
91.1785 -0.145
91.2088 0.117
91.2391 0.223
91.2694 -0.244
91.2997 -0.190
91.3299 -0.136
91.3602 0.492
91.3905 -0.026
91.4208 -0.076
91.4510 -0.020
91.4813 -0.017
91.5116 0.039
91.5419 -0.218
91.5722 0.099
91.6024 -0.001
91.6327 -0.205
91.6630 0.008
91.6933 0.169
91.7236 0.226
91.7538 0.179
91.7841 -0.023
91.8144 0.139
91.8447 -0.012
91.8749 -0.057
91.9052 0.001
91.9355 -0.201
91.9658 -0.050
91.9961 0.256
92.0263 0.303
92.0566 0.349
92.0869 -0.125
92.1172 0.235
92.1475 0.282
92.1777 0.122
92.2080 0.065
92.2383 0.061
92.2686 0.213
92.2988 0.158
92.3291 0.467
92.3594 0.151
92.3897 0.096
92.4200 -0.167
92.4502 0.091
92.4805 0.036
92.5108 0.399
92.5411 0.136
92.5714 0.135
92.6016 0.081
92.6319 0.340
92.6622 0.027
92.6925 0.078
92.7227 0.026
92.7530 0.234
92.7833 -0.027
92.8136 0.338
92.8439 0.026
92.8741 0.182
92.9044 0.235
92.9347 0.132
92.9650 0.341
92.9953 0.603
93.0255 -0.072
93.0558 0.086
93.0861 0.296
93.1164 0.142
93.1466 0.353
93.1769 -0.113
93.2072 -0.110
93.2375 0.050
93.2678 -0.103
93.2980 -0.256
93.3283 0.059
93.3586 0.166
93.3889 0.168
93.4192 0.275
93.4494 -0.242
93.4797 -0.187
93.5100 -0.032
93.5403 -0.033
93.5706 0.018
93.6008 -0.035
93.6311 -0.244
93.6614 0.120
93.6917 0.119
93.7219 0.015
93.7522 0.120
93.7825 -0.192
93.8128 0.381
93.8431 0.174
93.8733 -0.138
93.9036 -0.032
93.9339 -0.083
93.9642 0.283
93.9945 -0.027
94.0247 0.235
94.0550 0.134
94.0853 -0.280
94.1156 -0.182
94.1458 0.176
94.1761 -0.090
94.2064 0.269
94.2367 0.160
94.2670 0.155
94.2972 0.098
94.3275 -0.063
94.3578 0.089
94.3881 -0.071
94.4184 0.029
94.4486 0.129
94.4789 -0.030
94.5092 0.227
94.5395 0.067
94.5697 0.117
94.6000 0.270
94.6303 -0.149
94.6606 0.005
94.6909 0.055
94.7211 -0.259
94.7514 -0.107
94.7817 0.357
94.8120 0.145
94.8423 0.037
94.8725 0.034
94.9028 0.238
94.9331 0.079
94.9634 0.493
94.9936 0.230
95.0239 0.123
95.0542 0.485
95.0845 0.900
95.1148 0.065
95.1450 0.115
95.1753 0.374
95.2056 0.477
95.2359 0.580
95.2662 0.319
95.2964 0.579
95.3267 0.318
95.3570 0.318
95.3873 0.996
95.4175 0.944
95.4478 0.163
95.4781 0.633
95.5084 -0.095
95.5387 0.270
95.5689 0.012
95.5992 0.274
95.6295 0.067
95.6598 -0.087
95.6901 0.280
95.7203 -0.342
95.7506 0.285
95.7809 -0.024
95.8112 0.344
95.8414 0.087
95.8717 0.038
95.9020 0.251
95.9323 0.255
95.9626 -0.158
95.9928 0.680
96.0231 0.164
96.0534 0.065
96.0837 0.070
96.1140 -0.029
96.1442 -0.283
96.1745 -0.026
96.2048 -0.029
96.2351 -0.344
96.2653 0.070
96.2956 -0.088
96.3259 -0.194
96.3562 0.377
96.3865 0.167
96.4167 -0.094
96.4470 0.217
96.4773 0.112
96.5076 0.111
96.5379 -0.306
96.5681 -0.046
96.5984 0.267
96.6287 -0.306
96.6590 -0.149
96.6893 0.164
96.7195 0.113
96.7498 0.062
96.7801 0.064
96.8104 0.117
96.8406 0.379
96.8709 -0.087
96.9012 0.019
96.9315 -0.135
96.9618 -0.184
96.9920 0.079
97.0223 -0.178
97.0526 -0.018
97.0829 0.298
97.1132 -0.115
97.1434 -0.163
97.1737 -0.055
97.2040 -0.207
97.2343 0.110
97.2645 0.011
97.2948 -0.140
97.3251 -0.187
97.3554 -0.036
97.3857 -0.145
97.4159 0.006
97.4462 0.001
97.4765 0.153
97.5068 0.097
97.5371 0.041
97.5673 0.141
97.5976 -0.019
97.6279 0.030
97.6582 0.183
97.6884 0.128
97.7187 0.073
97.7490 0.019
97.7793 -0.192
97.8096 0.171
97.8398 -0.092
97.8701 -0.041
97.9004 0.322
97.9307 0.217
97.9610 -0.097
97.9912 0.267
98.0215 -0.150
98.0518 0.110
98.0821 0.006
98.1123 0.162
98.1426 -0.150
98.1729 0.059
98.2032 0.112
98.2335 -0.200
98.2637 -0.204
98.2940 0.157
98.3243 -0.108
98.3546 -0.111
98.3849 0.146
98.4151 0.247
98.4454 0.139
98.4757 0.397
98.5060 0.082
98.5362 0.132
98.5665 0.078
98.5968 0.388
98.6271 0.178
98.6574 -0.136
98.6876 0.124
98.7179 0.123
98.7482 0.018
98.7785 0.069
98.8088 0.121
98.8390 0.173
98.8693 0.069
98.8996 0.434
98.9299 0.382
98.9601 0.018
98.9904 0.019
99.0207 0.021
99.0510 0.074
99.0813 0.076
99.1115 0.078
99.1418 0.132
99.1721 0.499
99.2024 0.085
99.2327 0.087
99.2629 0.090
99.2932 -0.115
99.3235 -0.111
99.3538 -0.056
99.3841 0.313
99.4143 -0.412
99.4446 -0.200
99.4749 0.113
99.5052 0.008
99.5354 -0.096
99.5657 -0.043
99.5960 -0.147
99.6263 0.167
99.6566 0.012
99.6868 -0.091
99.7171 0.014
99.7474 -0.349
99.7777 0.122
99.8080 -0.136
99.8382 0.023
99.8685 -0.079
99.8988 0.393
99.9291 -0.125
99.9593 0.347
99.9896 0.090
100.0199 -0.323
100.0502 0.045
100.0805 0.050
100.1107 -0.050
100.1410 0.059
100.1713 0.063
100.2016 -0.088
100.2319 -0.187
100.2621 -0.188
100.2924 0.175
100.3227 0.070
100.3530 -0.034
100.3832 -0.191
100.4135 0.226
100.4438 0.017
100.4741 0.017
100.5044 -0.138
100.5346 0.019
100.5649 0.124
100.5952 0.229
100.6255 0.074
100.6558 -0.185
100.6860 0.130
100.7163 -0.181
100.7466 0.030
100.7769 -0.437
100.8071 -0.075
100.8374 -0.078
100.8677 -0.236
100.8980 0.074
100.9283 0.228
100.9585 0.174
100.9888 -0.088
101.0191 -0.090
101.0494 0.222
101.0797 0.012
101.1099 0.012
101.1402 0.167
101.1705 0.063
101.2008 0.011
101.2310 0.063
101.2613 -0.041
101.2916 -0.093
101.3219 0.012
101.3522 0.117
101.3824 0.223
101.4127 -0.036
101.4430 -0.139
101.4733 -0.085
101.5036 -0.187
101.5338 0.017
101.5641 -0.039
101.5944 0.374
101.6247 0.110
101.6549 0.367
101.6852 -0.157
101.7155 0.048
101.7458 -0.163
101.7761 -0.114
101.8063 -0.168
101.8366 -0.170
101.8669 -0.016
101.8972 0.139
101.9275 0.189
101.9577 -0.020
101.9880 0.031
102.0183 -0.230
102.0486 0.238
102.0788 -0.075
102.1091 -0.231
102.1394 0.020
102.1697 0.011
102.2000 -0.207
102.2302 -0.059
102.2605 0.036
102.2908 -0.181
102.3211 -0.137
102.3514 0.063
102.3816 0.212
102.4119 0.256
102.4422 -0.063
102.4725 0.086
102.5028 0.027
102.5330 -0.188
102.5633 0.222
102.5936 0.528
102.6239 -0.259
102.6541 0.152
102.6844 0.094
102.7147 0.036
102.7450 -0.073
102.7753 -0.078
102.8055 0.074
102.8358 -0.087
102.8661 0.273
102.8964 0.009
102.9267 -0.203
102.9569 0.105
102.9872 0.102
103.0175 -0.005
103.0478 0.044
103.0780 0.041
103.1083 -0.326
103.1386 0.036
103.1689 -0.122
103.1992 -0.072
103.2294 -0.334
103.2597 0.029
103.2900 -0.128
103.3203 -0.129
103.3506 -0.234
103.3808 -0.234
103.4111 0.127
103.4414 0.332
103.4717 -0.035
103.5019 -0.350
103.5322 0.220
103.5625 0.010
103.5928 0.008
103.6231 0.319
103.6533 0.109
103.6836 -0.205
103.7139 -0.050
103.7442 -0.050
103.7745 0.001
103.8047 0.105
103.8350 0.105
103.8653 0.313
103.8956 0.469
103.9258 0.522
103.9561 0.002
103.9864 0.315
104.0167 0.108
104.0470 -0.047
104.0772 -0.045
104.1075 0.009
104.1378 0.479
104.1681 0.325
104.1984 0.015
104.2286 0.278
104.2589 0.177
104.2892 0.128
104.3195 -0.233
104.3497 -0.073
104.3800 0.035
104.4103 -0.065
104.4406 0.043
104.4709 0.047
104.5011 0.260
104.5314 -0.099
104.5617 0.375
104.5920 0.067
104.6223 -0.240
104.6525 -0.129
104.6828 0.190
104.7131 0.040
104.7434 0.099
104.7736 0.106
104.8039 0.269
104.8342 0.016
104.8645 0.128
104.8948 -0.229
104.9250 0.040
104.9553 0.152
104.9856 0.057
105.0159 0.430
105.0462 0.023
105.0764 -0.020
105.1067 -0.011
105.1370 -0.105
105.1673 -0.200
105.1975 -0.100
105.2278 -0.105
105.2581 -0.109
105.2884 0.355
105.3187 0.352
105.3489 0.087
105.3792 0.136
105.4095 -0.128
105.4398 -0.027
105.4701 -0.029
105.5003 0.281
105.5306 -0.034
105.5609 0.068
105.5912 -0.351
105.6215 -0.092
105.6517 -0.146
105.6820 0.009
105.7123 -0.096
105.7426 0.007
105.7728 0.163
105.8031 -0.098
105.8334 0.163
105.8637 -0.046
105.8940 -0.306
105.9242 0.111
105.9545 0.164
105.9848 0.009
106.0151 0.270
106.0454 0.220
106.0756 0.169
106.1059 0.067
106.1362 -0.087
106.1665 -0.137
106.1967 -0.135
106.2270 0.076
106.2573 0.235
106.2876 -0.074
106.3179 -0.279
106.3481 0.037
106.3784 0.197
106.4087 0.149
106.4390 -0.055
106.4693 -0.207
106.4995 -0.003
106.5298 0.044
106.5601 -0.221
106.5904 0.087
106.6206 0.239
106.6509 0.235
106.6812 -0.238
106.7115 0.227
106.7418 -0.036
106.7720 -0.039
106.8023 0.218
106.8326 -0.305
106.8629 0.057
106.8932 0.211
106.9234 0.105
106.9537 -0.314
106.9840 0.153
107.0143 -0.213
107.0445 -0.162
107.0748 0.046
107.1051 -0.163
107.1354 0.097
107.1657 0.200
107.1959 -0.008
107.2262 -0.060
107.2565 0.201
107.2868 0.202
107.3171 0.359
107.3473 -0.369
107.3776 -0.212
107.4079 -0.111
107.4382 -0.061
107.4684 -0.220
107.4987 0.350
107.5290 0.088
107.5593 0.555
107.5896 -0.072
107.6198 0.447
107.6501 -0.179
107.6804 0.445
107.7107 0.080
107.7410 0.027
107.7712 0.131
107.8015 0.183
107.8318 -0.025
107.8621 0.235
107.8923 -0.129
107.9226 -0.076
107.9529 0.238
107.9832 0.082
108.0135 -0.020
108.0437 0.085
108.0740 0.087
108.1043 -0.171
108.1346 -0.065
108.1649 0.198
108.1951 0.253
108.2254 -0.109
108.2557 -0.366
108.2860 0.047
108.3163 0.095
108.3465 -0.064
108.3768 0.141
108.4071 0.033
108.4374 -0.178
108.4676 -0.180
108.4979 0.078
108.5282 0.440
108.5585 0.021
108.5888 0.176
108.6190 -0.190
108.6493 -0.035
108.6796 0.016
108.7099 -0.142
108.7402 0.066
108.7704 -0.090
108.8007 0.170
108.8310 0.638
108.8613 -0.090
108.8915 -0.038
108.9218 -0.037
108.9521 0.068
108.9824 -0.035
109.0127 0.018
109.0429 0.124
109.0732 -0.135
109.1035 -0.289
109.1338 0.067
109.1641 0.214
109.1943 0.257
109.2246 -0.064
109.2549 -0.020
109.2852 0.129
109.3154 0.173
109.3457 0.165
109.3760 -0.259
109.4063 -0.109
109.4366 0.144
109.4668 0.033
109.4971 -0.234
109.5274 0.073
109.5577 -0.089
109.5880 0.009
109.6182 0.055
109.6485 0.311
109.6788 -0.111
109.7091 0.196
109.7393 0.244
109.7696 -0.229
109.7999 0.287
109.8302 -0.133
109.8605 -0.241
109.8907 0.432
109.9210 -0.405
109.9513 -0.147
109.9816 -0.254
110.0119 0.264
110.0421 0.782
110.0724 0.103
110.1027 0.049
110.1330 0.047
110.1632 -0.267
110.1935 -0.008
110.2238 0.095
110.2541 -0.219
110.2844 -0.063
110.3146 -0.376
110.3449 -0.011
110.3752 -0.167
110.4055 -0.011
110.4358 0.094
110.4660 -0.062
110.4963 -0.165
110.5266 -0.059
110.5569 0.099
110.5871 -0.316
110.6174 -0.002
110.6477 0.261
110.6780 0.263
110.7083 -0.203
110.7385 0.112
110.7688 0.063
110.7991 -0.090
110.8294 0.122
110.8597 0.178
110.8899 -0.027
110.9202 0.342
110.9505 -0.018
110.9808 0.143
111.0110 -0.113
111.0413 -0.264
111.0716 0.105
111.1019 0.111
111.1322 -0.040
111.1624 -0.242
111.1927 -0.040
111.2230 -0.411
111.2533 0.000
111.2836 -0.162
111.3138 -0.116
111.3441 0.087
111.3744 -0.126
111.4047 0.233
111.4350 -0.188
111.4652 0.172
111.4955 0.064
111.5258 -0.149
111.5561 0.108
111.5863 -0.104
111.6166 0.101
111.6469 -0.163
111.6772 0.043
111.7075 -0.064
111.7377 -0.067
111.7680 -0.121
111.7983 0.033
111.8286 0.083
111.8589 0.394
111.8891 0.080
111.9194 0.600
111.9497 0.078
111.9800 -0.287
112.0102 0.077
112.0405 -0.236
112.0708 -0.236
112.1011 -0.184
112.1314 -0.079
112.1616 -0.287
112.1919 0.287
112.2222 0.079
112.2525 -0.440
112.2828 -0.022
112.3130 -0.229
112.3433 0.190
112.3736 0.088
112.4039 -0.066
112.4341 -0.324
112.4644 -0.010
112.4947 0.044
112.5250 -0.006
112.5553 0.101
112.5855 0.468
112.6158 -0.050
112.6461 -0.307
112.6764 0.321
112.7067 -0.092
112.7369 -0.245
112.7672 -0.136
112.7975 -0.132
112.8278 -0.128
112.8580 0.033
112.8883 0.038
112.9186 -0.269
112.9489 -0.112
112.9792 0.201
113.0094 -0.110
113.0397 -0.264
113.0700 0.310
113.1003 -0.052
113.1306 0.314
113.1608 -0.048
113.1911 -0.410
113.2214 0.218
113.2517 0.065
113.2819 -0.244
113.3122 0.280
113.3425 0.180
113.3728 0.653
113.4031 -0.177
113.4333 -0.068
113.4636 -0.220
113.4939 -0.267
113.5242 0.143
113.5545 0.292
113.5847 -0.131
113.6150 -0.034
113.6453 0.221
113.6756 0.162
113.7058 -0.052
113.7361 0.255
113.7664 0.042
113.7967 0.036
113.8270 0.084
113.8572 -0.077
113.8875 -0.186
113.9178 0.122
113.9481 0.066
113.9784 -0.042
114.0086 -0.045
114.0389 0.212
114.0692 -0.312
114.0995 -0.107
114.1298 -0.057
114.1600 0.096
114.1903 0.250
114.2206 0.196
114.2509 -0.327
114.2811 -0.068
114.3114 -0.017
114.3417 -0.070
114.3720 -0.175
114.4023 -0.228
114.4325 0.292
114.4628 -0.333
114.4931 -0.125
114.5234 -0.177
114.5537 -0.072
114.5839 -0.176
114.6142 0.294
114.6445 -0.070
114.6748 -0.121
114.7050 -0.119
114.7353 -0.013
114.7656 -0.376
114.7959 -0.072
114.8262 0.075
114.8564 0.432
114.8867 -0.358
114.9170 0.051
114.9473 -0.217
114.9776 0.192
115.0078 -0.388
115.0381 -0.187
115.0684 0.119
115.0987 0.112
115.1289 -0.207
115.1592 -0.109
115.1895 -0.115
115.2198 -0.120
115.2501 0.030
115.2803 -0.131
115.3106 0.228
115.3409 -0.141
115.3712 0.115
115.4015 0.110
115.4317 -0.102
115.4620 0.310
115.4923 -0.527
115.5226 0.095
115.5528 0.092
115.5831 0.453
115.6134 -0.331
115.6437 0.343
115.6740 0.237
115.7042 -0.026
115.7345 0.181
115.7648 -0.030
115.7951 0.177
115.8254 0.436
115.8556 0.227
115.8859 0.539
115.9162 0.173
115.9465 -0.036
115.9767 -0.192
116.0070 0.016
116.0373 0.069
116.0676 0.173
116.0979 0.070
116.1281 0.383
116.1584 -0.085
116.1887 -0.031
116.2190 0.700
116.2493 0.441
116.2795 0.130
116.3098 0.341
116.3401 0.031
116.3704 -0.123
116.4006 0.193
116.4309 -0.013
116.4612 -0.009
116.4915 0.046
116.5218 -0.054
116.5520 -0.050
116.5823 0.475
116.6126 0.375
116.6429 0.276
116.6732 -0.032
116.7034 0.181
116.7337 -0.230
116.7640 -0.120
116.7943 -0.115
116.8245 0.464
116.8548 0.106
116.8851 0.060
116.9154 -0.037
116.9457 0.021
116.9759 0.237
117.0062 0.244
117.0365 -0.009
117.0668 0.103
117.0971 -0.202
117.1273 0.119
117.1576 0.232
117.1879 -0.124
117.2182 -0.272
117.2485 0.041
117.2787 -0.166
117.3090 0.303
117.3393 0.252
117.3696 0.202
117.3998 0.151
117.4301 0.309
117.4604 -0.157
117.4907 -0.259
117.5210 0.264
117.5512 -0.254
117.5815 0.322
117.6118 -0.144
117.6421 -0.245
117.6724 -0.086
117.7026 -0.084
117.7329 0.075
117.7632 -0.026
117.7935 0.289
117.8237 0.136
117.8540 0.244
117.8843 0.143
117.9146 -0.374
117.9449 -0.221
117.9751 0.245
118.0054 -0.070
118.0357 -0.386
118.0660 0.237
118.0963 -0.078
118.1265 0.077
118.1568 -0.186
118.1871 -0.135
118.2174 -0.084
118.2476 -0.190
118.2779 0.174
118.3082 -0.191
118.3385 -0.140
118.3688 -0.088
118.3990 0.225
118.4293 -0.452
118.4596 -0.191
118.4899 0.226
118.5202 0.435
118.5504 0.072
118.5807 0.021
118.6110 -0.030
118.6413 -0.132
118.6715 0.234
118.7018 -0.076
118.7321 -0.230
118.7624 -0.175
118.7927 -0.120
118.8229 0.195
118.8532 -0.166
118.8835 -0.162
118.9138 0.258
118.9441 0.002
118.9743 0.266
119.0046 -0.094
119.0349 0.119
119.0652 -0.189
119.0954 0.181
119.1257 0.186
119.1560 -0.069
119.1863 -0.115
119.2166 0.360
119.2468 0.470
119.2771 -0.045
119.3074 -0.038
119.3377 -0.240
119.3680 -0.027
119.3982 -0.075
119.4285 0.398
119.4588 -0.119
119.4891 -0.010
119.5193 -0.005
119.5496 0.313
119.5799 0.058
119.6102 0.272
119.6405 -0.035
119.6707 0.284
119.7010 0.029
119.7313 0.296
119.7616 0.303
119.7919 0.102
119.8221 -0.100
119.8524 0.585
119.8827 0.228
119.9130 -0.181
119.9433 0.192
119.9735 0.096
120.0038 0.000
