'Id: "" Comment: "" Operator: "Lab Manager" Anode: "Cu" Scantype: "Locked Coupled" TimePerStep: "19.2" X: "9999" Y: "9999" Z: "9999" 
10.0015 0.000
10.0318 -0.543
10.0620 -0.186
10.0923 -0.662
10.1226 -0.254
10.1529 -0.470
10.1832 -0.308
10.2134 -0.041
10.2437 -0.659
10.2740 0.024
10.3043 -0.542
10.3346 -0.171
10.3648 -0.269
10.3951 -0.002
10.4254 -0.621
10.4557 0.063
10.4859 -0.452
10.5162 0.024
10.5465 0.134
10.5768 -0.068
10.6071 -0.009
10.6373 -0.107
10.6676 -0.048
10.6979 0.167
10.7282 -0.347
10.7585 0.441
10.7887 -0.022
10.8190 -0.380
10.8493 -0.008
10.8796 0.311
10.9098 -0.412
10.9401 -0.041
10.9704 0.591
11.0007 -0.131
11.0310 0.500
11.0612 0.247
11.0915 -0.111
11.1218 0.104
11.1521 0.058
11.1824 0.169
11.2126 -0.188
11.2429 0.131
11.2732 -0.123
11.3035 0.769
11.3337 -0.265
11.3640 0.158
11.3943 -0.356
11.4246 0.120
11.4549 0.595
11.4851 0.237
11.5154 0.036
11.5457 0.355
11.5760 0.050
11.6063 0.421
11.6365 0.116
11.6668 0.175
11.6971 -0.391
11.7274 -0.020
11.7577 0.352
11.7879 -0.214
11.8182 -0.051
11.8485 0.164
11.8788 -0.037
11.9090 0.387
11.9393 0.081
11.9696 0.036
11.9999 0.043
12.0302 -0.418
12.0604 0.057
12.0907 0.429
12.1210 -0.605
12.1513 -0.130
12.1816 0.138
12.2118 0.145
12.2421 0.048
12.2724 -0.101
12.3027 0.167
12.3329 0.070
12.3632 -0.184
12.3935 -0.333
12.4238 0.508
12.4541 -0.422
12.4843 -0.259
12.5146 -0.043
12.5449 -0.244
12.5752 -0.393
12.6055 -0.283
12.6357 -0.486
12.6660 0.041
12.6963 0.255
12.7266 0.209
12.7568 -0.046
12.7871 -0.196
12.8174 -0.243
12.8477 0.024
12.8780 -0.127
12.9082 -0.121
12.9385 -0.271
12.9688 0.151
12.9991 0.001
13.0294 0.215
13.0596 -0.299
13.0899 0.227
13.1202 -0.288
13.1505 0.239
13.1807 0.714
13.2110 -0.061
13.2413 -0.211
13.2716 -0.101
13.3019 -0.251
13.3321 -0.193
13.3624 -0.135
13.3927 0.236
13.4230 -0.227
13.4533 -0.273
13.4835 0.358
13.5138 -0.417
13.5441 0.474
13.5744 -0.509
13.6046 -0.138
13.6349 -0.184
13.6652 -0.074
13.6955 -0.276
13.7258 0.199
13.7560 0.361
13.7863 0.055
13.8166 0.374
13.8469 0.536
13.8772 0.022
13.9074 0.289
13.9377 0.295
13.9680 -0.063
13.9983 -0.422
14.0285 -0.157
14.0588 0.420
14.0891 0.111
14.1194 -0.145
14.1497 0.119
14.1799 -0.242
14.2102 0.023
14.2405 0.131
14.2708 -0.334
14.3011 0.139
14.3313 0.039
14.3616 0.095
14.3919 0.203
14.4222 0.207
14.4524 -0.049
14.4827 0.163
14.5130 -0.145
14.5433 0.640
14.5736 -0.085
14.6038 -0.028
14.6341 -0.128
14.6644 0.240
14.6947 -0.276
14.7250 -0.012
14.7552 0.097
14.7855 -0.055
14.8158 0.053
14.8461 -0.047
14.8764 -0.251
14.9066 0.326
14.9369 -0.243
14.9672 0.022
14.9975 0.079
15.0277 -0.334
15.0580 -0.278
15.0883 -0.171
15.1186 -0.167
15.1489 0.253
15.1791 0.100
15.2094 -0.365
15.2397 -0.258
15.2700 0.006
15.3003 0.166
15.3305 0.222
15.3608 -0.139
15.3911 -0.032
15.4214 -0.028
15.4516 0.184
15.4819 0.083
15.5122 -0.330
15.5425 0.351
15.5728 0.146
15.6030 0.254
15.6333 -0.316
15.6636 0.001
15.6939 0.056
15.7242 -0.409
15.7544 -0.197
15.7847 0.067
15.8150 0.488
15.8453 0.127
15.8755 -0.130
15.9058 0.082
15.9361 -0.174
15.9664 0.298
15.9967 -0.219
16.0269 -0.163
16.0572 0.361
16.0875 0.209
16.1178 0.161
16.1481 0.373
16.1783 0.220
16.2086 0.172
16.2389 0.020
16.2692 -0.185
16.2994 -0.025
16.3297 -0.177
16.3600 0.348
16.3903 0.143
16.4206 -0.061
16.4508 -0.057
16.4811 -0.209
16.5114 0.003
16.5417 0.059
16.5720 0.375
16.6022 0.536
16.6325 0.279
16.6628 0.283
16.6931 0.392
16.7233 -0.282
16.7536 0.087
16.7839 0.300
16.8142 0.043
16.8445 -0.317
16.8747 0.312
16.9050 0.524
16.9353 -0.149
16.9656 0.012
16.9959 -0.036
17.0261 -0.032
17.0564 -0.341
17.0867 -0.132
17.1170 -0.027
17.1472 0.026
17.1775 -0.025
17.2078 0.340
17.2381 -0.180
17.2684 0.185
17.2986 0.342
17.3289 -0.126
17.3592 -0.021
17.3895 0.397
17.4198 0.450
17.4500 -0.123
17.4803 0.139
17.5106 0.452
17.5409 -0.120
17.5712 -0.171
17.6014 -0.014
17.6317 0.247
17.6620 0.352
17.6923 0.197
17.7225 -0.011
17.7528 0.147
17.7831 0.200
17.8134 -0.008
17.8437 -0.111
17.8739 0.202
17.9042 0.360
17.9345 -0.577
17.9648 0.310
17.9951 0.154
18.0253 0.051
18.0556 -0.052
18.0859 -0.051
18.1162 0.627
18.1464 0.472
18.1767 -0.048
18.2070 -0.047
18.2373 -0.202
18.2676 0.008
18.2978 0.269
18.3281 -0.198
18.3584 -0.145
18.3887 0.064
18.4190 -0.039
18.4492 0.275
18.4795 0.276
18.5098 0.121
18.5401 -0.034
18.5703 0.176
18.6006 -0.136
18.6309 -0.030
18.6612 -0.029
18.6915 -0.028
18.7217 0.286
18.7520 0.131
18.7823 -0.024
18.8126 0.394
18.8429 -0.073
18.8731 0.032
18.9034 0.138
18.9337 0.087
18.9640 0.557
18.9942 -0.118
19.0245 -0.117
19.0548 0.041
19.0851 0.355
19.1154 0.304
19.1456 0.149
19.1759 0.098
19.2062 0.569
19.2365 0.049
19.2668 0.051
19.2970 -0.052
19.3273 -0.050
19.3576 0.055
19.3879 0.109
19.4181 0.058
19.4484 -0.200
19.4787 0.062
19.5090 0.063
19.5393 0.169
19.5695 0.066
19.5998 -0.192
19.6301 -0.087
19.6604 -0.033
19.6907 0.021
19.7209 0.075
19.7512 0.024
19.7815 0.078
19.8118 -0.077
19.8420 -0.231
19.8723 0.031
19.9026 -0.019
19.9329 0.243
19.9632 0.192
19.9934 0.038
20.0237 0.040
20.0540 0.042
20.0843 0.304
20.1146 0.201
20.1448 -0.266
20.1751 0.153
20.2054 -0.158
20.2357 0.209
20.2659 0.002
20.2962 -0.100
20.3265 0.110
20.3568 -0.409
20.3871 0.010
20.4173 -0.040
20.4476 -0.038
20.4779 -0.089
20.5082 -0.243
20.5385 -0.241
20.5687 -0.030
20.5990 0.128
20.6293 0.026
20.6596 0.028
20.6899 0.239
20.7201 -0.280
20.7504 -0.226
20.7807 -0.119
20.8110 0.247
20.8412 -0.011
20.8715 -0.061
20.9018 -0.319
20.9321 0.361
20.9624 -0.002
20.9926 -0.052
21.0229 0.367
21.0532 -0.047
21.0835 0.059
21.1138 -0.094
21.1440 0.116
21.1743 -0.090
21.2046 0.277
21.2349 0.279
21.2651 0.021
21.2954 0.024
21.3257 0.182
21.3560 0.393
21.3863 -0.490
21.4165 -0.123
21.4468 0.088
21.4771 -0.014
21.5074 0.405
21.5377 0.043
21.5679 0.098
21.5982 -0.004
21.6285 -0.158
21.6588 0.053
21.6890 -0.205
21.7193 0.006
21.7496 -0.252
21.7799 0.011
21.8102 0.014
21.8404 -0.088
21.8707 0.228
21.9010 -0.134
21.9313 0.285
21.9616 0.131
21.9918 0.394
22.0221 0.241
22.0524 0.087
22.0827 0.090
22.1129 0.145
22.1432 0.043
22.1735 0.150
22.2038 -0.160
22.2341 0.208
22.2643 0.158
22.2946 0.109
22.3249 0.008
22.3552 -0.042
22.3855 0.430
22.4157 -0.036
22.4460 0.279
22.4763 0.334
22.5066 0.181
22.5368 0.392
22.5671 -0.022
22.5974 -0.071
22.6277 -0.068
22.6580 0.143
22.6882 0.146
22.7185 -0.007
22.7488 0.204
22.7791 0.519
22.8094 0.210
22.8396 -0.152
22.8699 0.059
22.9002 0.323
22.9305 0.170
22.9607 0.433
22.9910 0.019
23.0213 0.022
23.0516 0.182
23.0819 0.289
23.1121 0.032
23.1424 0.243
23.1727 0.350
23.2030 0.093
23.2333 0.096
23.2635 -0.109
23.2938 0.258
23.3241 0.418
23.3544 0.109
23.3846 -0.045
23.4149 -0.198
23.4452 -0.042
23.4755 0.166
23.5058 0.427
23.5360 0.322
23.5663 0.061
23.5966 -0.043
23.6269 0.478
23.6572 0.113
23.6874 0.008
23.7177 0.321
23.7480 0.321
23.7783 -0.044
23.8086 0.008
23.8388 0.008
23.8691 0.476
23.8994 0.111
23.9297 0.059
23.9599 0.163
23.9902 0.007
24.0205 0.007
24.0508 0.059
24.0811 0.163
24.1113 0.319
24.1416 0.111
24.1719 -0.098
24.2022 -0.358
24.2325 0.215
24.2627 -0.202
24.2930 0.215
24.3233 0.319
24.3536 0.319
24.3838 0.423
24.4141 0.632
24.4444 -0.045
24.4747 0.059
24.5050 0.059
24.5352 0.007
24.5655 0.111
24.5958 0.007
24.6261 -0.149
24.6564 0.476
24.6866 -0.096
24.7169 0.112
24.7472 0.060
24.7775 0.060
24.8077 0.477
24.8380 0.113
24.8683 0.478
24.8986 0.218
24.9289 0.114
24.9591 -0.042
24.9894 0.114
25.0197 0.114
25.0500 0.011
25.0803 0.167
25.1105 0.011
25.1408 0.064
25.1711 -0.040
25.2014 0.168
25.2316 0.273
25.2619 0.325
25.2922 0.065
25.3225 0.118
25.3528 0.431
25.3830 0.223
25.4133 0.275
25.4436 0.484
25.4739 0.172
25.5042 0.225
25.5344 0.017
25.5647 0.642
25.5950 0.487
25.6253 0.123
25.6555 0.123
25.6858 -0.085
25.7161 0.228
25.7464 0.229
25.7767 -0.083
25.8069 0.386
25.8372 -0.030
25.8675 0.388
25.8978 0.284
25.9281 -0.132
25.9583 -0.027
25.9886 -0.027
26.0189 0.443
26.0492 0.131
26.0794 -0.181
26.1097 0.028
26.1400 0.133
26.1703 -0.179
26.2006 0.239
26.2308 -0.073
26.2611 0.032
26.2914 -0.176
26.3217 0.190
26.3520 0.503
26.3822 -0.069
26.4125 -0.120
26.4428 -0.172
26.4731 -0.068
26.5034 0.192
26.5336 -0.120
26.5639 0.244
26.5942 -0.121
26.6245 0.035
26.6547 0.347
26.6850 0.087
26.7153 -0.174
26.7456 0.555
26.7759 -0.018
26.8061 -0.070
26.8364 -0.018
26.8667 0.138
26.8970 0.137
26.9273 0.241
26.9575 0.241
26.9878 0.137
27.0181 0.293
27.0484 0.137
27.0786 -0.124
27.1089 -0.019
27.1392 -0.124
27.1695 0.241
27.1998 0.345
27.2300 -0.124
27.2603 0.397
27.2906 0.137
27.3209 -0.020
27.3512 0.033
27.3814 0.137
27.4117 -0.280
27.4420 0.137
27.4723 0.033
27.5025 -0.123
27.5328 -0.227
27.5631 0.189
27.5934 0.033
27.6237 -0.019
27.6539 -0.019
27.6842 -0.018
27.7145 -0.018
27.7448 -0.070
27.7751 -0.018
27.8053 0.347
27.8356 0.087
27.8659 -0.017
27.8962 -0.017
27.9264 0.139
27.9567 0.140
27.9870 -0.016
28.0173 0.192
28.0476 -0.224
28.0778 -0.172
28.1081 0.139
28.1384 0.138
28.1687 0.085
28.1990 0.344
28.2292 0.030
28.2595 0.185
28.2898 0.392
28.3201 -0.130
28.3503 0.181
28.3806 0.336
28.4109 0.335
28.4412 -0.135
28.4715 0.072
28.5017 0.019
28.5320 0.070
28.5623 0.017
28.5926 0.068
28.6229 0.066
28.6531 0.169
28.6834 0.116
28.7137 0.219
28.7440 0.114
28.7742 0.009
28.8045 0.164
28.8348 -0.097
28.8651 -0.151
28.8954 0.109
28.9256 0.264
28.9559 0.211
28.9862 -0.051
29.0165 0.001
29.0468 0.000
29.0770 -0.158
29.1073 -0.054
29.1376 -0.003
29.1679 -0.160
29.1981 -0.057
29.2284 -0.058
29.2587 0.306
29.2890 -0.008
29.3193 0.252
29.3495 -0.010
29.3798 0.510
29.4101 -0.168
29.4404 -0.064
29.4707 0.091
29.5009 -0.066
29.5312 -0.171
29.5615 -0.120
29.5918 -0.068
29.6221 -0.121
29.6523 -0.174
29.6826 0.138
29.7129 -0.071
29.7432 0.084
29.7734 0.136
29.8037 -0.177
29.8340 0.082
29.8643 0.238
29.8946 0.237
29.9248 -0.024
29.9551 0.184
29.9854 -0.286
30.0157 0.339
30.0460 0.182
30.0762 -0.027
30.1065 0.024
30.1368 0.180
30.1671 0.180
30.1973 -0.186
30.2276 0.126
30.2579 -0.134
30.2882 0.125
30.3185 0.021
30.3487 0.020
30.3790 -0.084
30.4093 -0.137
30.4396 0.227
30.4699 0.070
30.5001 -0.086
30.5304 0.018
30.5607 0.590
30.5910 0.433
30.6212 0.329
30.6515 0.224
30.6818 -0.089
30.7121 0.380
30.7424 0.171
30.7726 -0.194
30.8029 0.014
30.8332 -0.090
30.8635 0.222
30.8938 0.534
30.9240 0.534
30.9543 0.221
30.9846 0.377
31.0149 0.273
31.0451 0.429
31.0754 0.324
31.1057 0.116
31.1360 0.272
31.1663 1.157
31.1965 0.324
31.2268 0.428
31.2571 0.167
31.2874 0.532
31.3177 0.688
31.3479 1.260
31.3782 1.156
31.4085 1.312
31.4388 0.896
31.4690 0.948
31.4993 0.687
31.5296 1.312
31.5599 1.260
31.5902 1.208
31.6204 1.520
31.6507 1.520
31.6810 1.208
31.7113 1.364
31.7416 1.364
31.7718 1.000
31.8021 0.895
31.8324 0.687
31.8627 0.791
31.8929 0.739
31.9232 0.531
31.9535 1.365
31.9838 0.636
32.0141 0.792
32.0443 0.636
32.0746 0.740
32.1049 0.688
32.1352 0.324
32.1655 0.220
32.1957 0.116
32.2260 0.220
32.2563 0.429
32.2866 0.273
32.3169 0.325
32.3471 0.117
32.3774 0.586
32.4077 0.170
32.4380 0.326
32.4682 0.066
32.4985 0.223
32.5288 0.223
32.5591 0.119
32.5894 0.172
32.6196 -0.036
32.6499 0.225
32.6802 -0.192
32.7105 0.069
32.7408 0.174
32.7710 -0.086
32.8013 0.227
32.8316 0.019
32.8619 0.175
32.8921 0.540
32.9224 0.124
32.9527 -0.136
32.9830 -0.135
33.0133 0.074
33.0435 -0.134
33.0738 0.127
33.1041 0.127
33.1344 0.128
33.1647 -0.184
33.1949 -0.131
33.2252 -0.027
33.2555 -0.078
33.2858 0.287
33.3160 -0.025
33.3463 -0.076
33.3766 0.133
33.4069 0.029
33.4372 -0.230
33.4674 -0.021
33.4977 -0.125
33.5280 0.032
33.5583 0.137
33.5886 0.034
33.6188 0.138
33.6491 -0.069
33.6794 -0.068
33.7097 0.193
33.7399 -0.119
33.7702 -0.222
33.8005 0.195
33.8308 -0.012
33.8611 -0.168
33.8913 -0.011
33.9216 -0.218
33.9519 0.095
33.9822 0.044
34.0125 0.149
34.0427 -0.058
34.0730 -0.057
34.1033 -0.004
34.1336 -0.056
34.1638 0.102
34.1941 -0.158
34.2244 0.104
34.2547 -0.104
34.2850 -0.051
34.3152 0.106
34.3455 0.055
34.3758 -0.152
34.4061 0.005
34.4364 0.111
34.4666 -0.149
34.4969 0.009
34.5272 -0.147
34.5575 -0.302
34.5877 0.063
34.6180 0.064
34.6483 -0.040
34.6786 0.117
34.7089 -0.143
34.7391 -0.143
34.7694 0.118
34.7997 -0.089
34.8300 -0.245
34.8603 0.016
34.8905 -0.088
34.9208 -0.087
34.9511 -0.139
34.9814 -0.138
35.0116 -0.033
35.0419 0.124
35.0722 0.072
35.1025 0.021
35.1328 -0.291
35.1630 0.231
35.1933 0.075
35.2236 0.180
35.2539 -0.184
35.2842 0.025
35.3144 0.130
35.3447 0.287
35.3750 0.080
35.4053 -0.024
35.4356 -0.023
35.4658 -0.179
35.4961 0.187
35.5264 -0.177
35.5567 -0.124
35.5869 0.033
35.6172 0.242
35.6475 -0.069
35.6778 0.036
35.7081 -0.172
35.7383 -0.171
35.7686 -0.066
35.7989 -0.013
35.8292 -0.221
35.8595 0.092
35.8897 0.145
35.9200 -0.115
35.9503 0.094
35.9806 -0.061
36.0108 0.252
36.0411 -0.164
36.0714 -0.007
36.1017 0.202
36.1320 -0.214
36.1622 0.204
36.1925 -0.004
36.2228 -0.003
36.2531 0.102
36.2834 -0.157
36.3136 -0.052
36.3439 -0.103
36.3742 0.158
36.4045 -0.102
36.4347 -0.101
36.4650 0.109
36.4953 0.110
36.5256 0.267
36.5559 -0.097
36.5861 -0.044
36.6164 0.061
36.6467 -0.250
36.6770 0.011
36.7073 -0.092
36.7375 0.117
36.7678 0.066
36.7981 -0.089
36.8284 0.121
36.8586 0.278
36.8889 -0.033
36.9192 0.072
36.9495 -0.031
36.9798 0.022
37.0100 -0.029
37.0403 -0.080
37.0706 0.130
37.1009 0.079
37.1312 -0.076
37.1614 -0.179
37.1917 -0.022
37.2220 0.031
37.2523 -0.280
37.2825 0.034
37.3128 -0.069
37.3431 0.088
37.3734 0.194
37.4037 0.039
37.4339 0.249
37.4642 -0.011
37.4945 -0.009
37.5248 -0.008
37.5551 0.150
37.5853 -0.005
37.6156 0.205
37.6459 0.050
37.6762 0.051
37.7064 -0.052
37.7367 -0.102
37.7670 -0.101
37.7973 0.109
37.8276 -0.098
37.8578 -0.097
37.8881 0.061
37.9184 -0.146
37.9487 0.064
37.9790 -0.143
38.0092 -0.193
38.0395 0.173
38.0698 0.018
38.1001 0.332
38.1304 0.125
38.1606 0.179
38.1909 -0.236
38.2212 0.026
38.2515 -0.129
38.2817 -0.179
38.3120 0.291
38.3423 0.345
38.3726 -0.070
38.4029 0.140
38.4331 0.089
38.4634 -0.065
38.4937 0.041
38.5240 0.042
38.5543 -0.112
38.5845 0.046
38.6148 0.100
38.6451 0.154
38.6754 -0.001
38.7056 0.053
38.7359 -0.049
38.7662 0.056
38.7965 0.058
38.8268 -0.148
38.8570 -0.146
38.8873 -0.043
38.9176 0.060
38.9479 0.060
38.9782 0.007
39.0084 -0.046
39.0387 0.214
39.0690 0.317
39.0993 0.160
39.1295 0.055
39.1598 -0.102
39.1901 0.054
39.2204 0.157
39.2507 0.261
39.2809 0.104
39.3112 0.103
39.3415 0.259
39.3718 -0.002
39.4021 -0.055
39.4323 -0.003
39.4626 -0.160
39.4929 -0.004
39.5232 -0.057
39.5534 -0.005
39.5837 -0.110
39.6140 0.254
39.6443 -0.059
39.6746 -0.060
39.7048 0.200
39.7351 -0.165
39.7654 0.043
39.7957 0.251
39.8260 0.147
39.8562 0.042
39.8865 -0.011
39.9168 -0.063
39.9471 -0.063
39.9773 0.197
40.0076 -0.116
40.0379 0.040
40.0682 0.143
40.0985 -0.169
40.1287 0.351
40.1590 0.038
40.1893 0.246
40.2196 0.246
40.2499 0.194
40.2801 -0.015
40.3104 -0.067
40.3407 0.037
40.3710 -0.016
40.4012 -0.068
40.4315 0.244
40.4618 0.192
40.4921 -0.016
40.5224 0.035
40.5526 -0.069
40.5829 -0.017
40.6132 0.191
40.6435 0.139
40.6738 0.191
40.7040 0.139
40.7343 -0.017
40.7646 -0.018
40.7949 -0.018
40.8251 -0.174
40.8554 0.243
40.8857 -0.018
40.9160 0.086
40.9463 -0.122
40.9765 -0.122
41.0068 0.191
41.0371 0.138
41.0674 0.191
41.0977 -0.174
41.1279 0.086
41.1582 -0.122
41.1885 0.035
41.2188 0.295
41.2491 0.087
41.2793 0.087
41.3096 0.087
41.3399 0.139
41.3702 0.192
41.4004 0.244
41.4307 0.452
41.4610 0.036
41.4913 -0.016
41.5216 0.140
41.5518 -0.172
41.5821 -0.068
41.6124 0.037
41.6427 -0.015
41.6730 0.037
41.7032 -0.067
41.7335 0.038
41.7638 0.090
41.7941 0.038
41.8243 0.091
41.8546 -0.013
41.8849 0.144
41.9152 -0.012
41.9455 0.040
41.9757 0.197
42.0060 0.197
42.0363 0.093
42.0666 0.146
42.0969 0.198
42.1271 0.303
42.1574 -0.009
42.1877 0.043
42.2180 0.044
42.2482 -0.164
42.2785 0.305
42.3088 -0.059
42.3391 0.358
42.3694 0.099
42.3996 -0.057
42.4299 0.048
42.4602 0.048
42.4905 0.101
42.5208 0.049
42.5510 0.050
42.5813 -0.106
42.6116 -0.001
42.6419 0.104
42.6721 0.000
42.7024 -0.103
42.7327 0.002
42.7630 -0.102
42.7933 0.159
42.8235 0.160
42.8538 0.056
42.8841 0.161
42.9144 0.006
42.9447 -0.098
42.9749 -0.097
43.0052 0.216
43.0355 0.061
43.0658 0.114
43.0960 0.114
43.1263 0.063
43.1566 -0.040
43.1869 0.273
43.2172 -0.038
43.2474 0.171
43.2777 0.328
43.3080 -0.088
43.3383 0.330
43.3686 0.383
43.3988 -0.033
43.4291 -0.136
43.4594 -0.191
43.4897 0.276
43.5199 0.117
43.5502 0.115
43.5805 0.217
43.6108 0.111
43.6411 0.161
43.6713 0.315
43.7016 0.001
43.7319 0.103
43.7622 0.257
43.7925 -0.110
43.8227 0.044
43.8530 0.042
43.8833 -0.012
43.9136 0.038
43.9439 0.141
43.9741 0.087
44.0044 0.345
44.0347 0.187
44.0650 0.185
44.0952 0.287
44.1255 -0.027
44.1558 0.075
44.1861 -0.240
44.2164 0.227
44.2466 0.121
44.2769 0.276
44.3072 0.118
44.3375 0.064
44.3678 0.062
44.3980 -0.096
44.4283 -0.098
44.4586 -0.152
44.4889 0.159
44.5191 0.105
44.5494 0.259
44.5797 -0.107
44.6100 -0.161
44.6403 0.254
44.6705 0.148
44.7008 -0.010
44.7311 -0.011
44.7614 -0.117
44.7917 0.194
44.8219 0.088
44.8522 -0.122
44.8825 0.189
44.9128 -0.126
44.9430 0.029
44.9733 0.132
45.0036 0.130
45.0339 0.076
45.0642 0.231
45.0944 0.177
45.1247 0.176
45.1550 -0.034
45.1853 -0.036
45.2156 0.067
45.2458 0.118
45.2761 0.272
45.3064 0.011
45.3367 -0.095
45.3669 0.008
45.3972 0.214
45.4275 -0.099
45.4578 -0.049
45.4881 0.158
45.5183 -0.104
45.5486 -0.157
45.5789 0.102
45.6092 0.153
45.6395 0.047
45.6697 -0.006
45.7000 0.044
45.7303 -0.061
45.7606 0.146
45.7908 0.040
45.8211 0.352
45.8514 -0.014
45.8817 -0.172
45.9120 -0.069
45.9422 -0.123
45.9725 -0.072
46.0028 0.031
46.0331 0.029
46.0634 -0.024
46.0936 0.078
46.1239 -0.027
46.1542 -0.081
46.1845 0.022
46.2147 -0.032
46.2450 -0.033
46.2753 0.122
46.3056 0.120
46.3359 -0.037
46.3661 0.118
46.3964 0.012
46.4267 -0.197
46.4570 0.010
46.4873 0.112
46.5175 0.111
46.5478 0.162
46.5781 0.109
46.6084 0.107
46.6386 -0.102
46.6689 0.001
46.6992 0.052
46.7295 -0.158
46.7598 0.362
46.7900 0.100
46.8203 0.047
46.8506 -0.111
46.8809 -0.060
46.9112 -0.113
46.9414 -0.062
46.9717 -0.063
47.0020 0.300
47.0323 -0.065
47.0626 0.038
47.0928 0.193
47.1231 -0.069
47.1534 -0.018
47.1837 -0.279
47.2139 -0.072
47.2442 0.187
47.2745 -0.283
47.3048 -0.129
47.3351 0.026
47.3653 0.025
47.3956 0.023
47.4259 -0.082
47.4562 -0.188
47.4865 0.019
47.5167 0.018
47.5470 0.381
47.5773 0.015
47.6076 -0.090
47.6378 0.012
47.6681 -0.145
47.6984 0.062
47.7287 0.009
47.7590 -0.045
47.7892 0.162
47.8195 -0.204
47.8498 0.056
47.8801 0.054
47.9104 -0.155
47.9406 0.000
47.9709 -0.105
48.0012 -0.107
48.0315 0.048
48.0617 -0.005
48.0920 0.046
48.1223 -0.007
48.1526 -0.008
48.1829 -0.114
48.2131 -0.115
48.2434 -0.116
48.2737 -0.013
48.3040 0.143
48.3343 0.037
48.3645 0.088
48.3948 -0.121
48.4251 -0.122
48.4554 -0.019
48.4856 0.032
48.5159 -0.021
48.5462 -0.126
48.5765 -0.075
48.6068 -0.024
48.6370 -0.337
48.6673 -0.026
48.6976 0.234
48.7279 -0.027
48.7582 0.076
48.7884 -0.029
48.8187 0.387
48.8490 -0.083
48.8793 0.072
48.9095 0.071
48.9398 -0.034
48.9701 -0.086
49.0004 -0.087
49.0307 -0.036
49.0609 -0.349
49.0912 0.171
49.1215 0.170
49.1518 0.013
49.1821 -0.144
49.2123 -0.093
49.2426 -0.145
49.2729 0.062
49.3032 0.218
49.3334 0.165
49.3637 -0.096
49.3940 -0.149
49.4243 -0.201
49.4546 0.006
49.4848 -0.151
49.5151 0.265
49.5454 -0.100
49.5757 0.108
49.6060 -0.049
49.6362 0.107
49.6665 0.054
49.6968 0.054
49.7271 -0.051
49.7574 0.053
49.7876 -0.104
49.8179 0.208
49.8482 0.051
49.8785 -0.158
49.9087 -0.210
49.9390 -0.002
49.9693 -0.054
49.9996 -0.158
50.0299 -0.106
50.0601 -0.106
50.0904 0.103
50.1207 -0.106
50.1510 0.207
50.1813 0.155
50.2115 0.103
50.2418 0.103
50.2721 -0.105
50.3024 -0.001
50.3326 0.208
50.3629 -0.052
50.3932 -0.104
50.4235 0.209
50.4538 -0.312
50.4840 0.105
50.5143 0.261
50.5446 0.106
50.5749 0.106
50.6052 0.002
50.6354 0.158
50.6657 -0.050
50.6960 0.159
50.7263 0.212
50.7565 0.472
50.7868 0.316
50.8171 -0.100
50.8474 -0.099
50.8777 0.005
50.9079 0.110
50.9382 0.058
50.9685 0.006
50.9988 -0.097
51.0291 0.059
51.0593 0.112
51.0896 -0.148
51.1199 -0.043
51.1502 -0.095
51.1804 0.218
51.2107 0.375
51.2410 0.063
51.2713 -0.249
51.3016 0.064
51.3318 0.064
51.3621 0.169
51.3924 0.066
51.4227 0.014
51.4530 -0.089
51.4832 0.224
51.5135 0.329
51.5438 0.069
51.5741 0.278
51.6043 0.226
51.6346 0.019
51.6649 -0.189
51.6952 0.228
51.7255 -0.083
51.7557 -0.083
51.7860 -0.082
51.8163 0.075
51.8466 0.076
51.8769 -0.028
51.9071 0.234
51.9374 -0.130
51.9677 0.235
51.9980 -0.024
52.0282 0.081
52.0585 0.029
52.0888 -0.126
52.1191 0.240
52.1494 0.032
52.1796 -0.071
52.2099 0.294
52.2402 0.243
52.2705 0.140
52.3008 0.297
52.3310 -0.119
52.3613 -0.014
52.3916 -0.117
52.4219 0.040
52.4521 -0.115
52.4824 -0.062
52.5127 0.043
52.5430 -0.112
52.5733 -0.007
52.6035 0.151
52.6338 0.048
52.6641 0.049
52.6944 -0.054
52.7247 0.155
52.7549 -0.104
52.7852 0.261
52.8155 0.002
52.8458 -0.101
52.8761 0.056
52.9063 0.058
52.9366 0.163
52.9669 0.112
52.9972 -0.147
53.0274 0.010
53.0577 0.168
53.0880 -0.091
53.1183 -0.038
53.1486 -0.037
53.1788 0.173
53.2091 0.018
53.2394 -0.189
53.2697 0.125
53.3000 -0.082
53.3302 -0.029
53.3605 -0.080
53.3908 0.182
53.4211 0.183
53.4513 0.185
53.4816 -0.126
53.5119 -0.021
53.5422 0.085
53.5725 0.190
53.6027 -0.173
53.6330 0.037
53.6633 0.038
53.6936 0.040
53.7239 -0.115
53.7541 -0.062
53.7844 -0.008
53.8147 -0.215
53.8450 0.099
53.8752 -0.003
53.9055 -0.054
53.9358 -0.052
53.9661 -0.051
53.9964 0.003
54.0266 -0.100
54.0569 -0.150
54.0872 0.112
54.1175 0.009
54.1478 0.063
54.1780 0.065
54.2083 -0.194
54.2386 0.172
54.2689 0.174
54.2991 -0.033
54.3294 0.021
54.3597 -0.030
54.3900 -0.028
54.4203 0.130
54.4505 -0.024
54.4808 0.238
54.5111 0.135
54.5414 -0.019
54.5717 -0.069
54.6019 -0.172
54.6322 -0.015
54.6625 0.194
54.6928 0.142
54.7230 -0.066
54.7533 0.143
54.7836 0.091
54.8139 0.144
54.8442 0.040
54.8744 -0.011
54.9047 -0.115
54.9350 -0.010
54.9653 0.094
54.9956 -0.166
55.0258 -0.061
55.0561 0.148
55.0864 -0.008
55.1167 -0.163
55.1469 -0.059
55.1772 -0.058
55.2075 -0.110
55.2378 0.256
55.2681 -0.004
55.2983 0.049
55.3286 -0.107
55.3589 -0.002
55.3892 0.207
55.4195 -0.001
55.4497 -0.156
55.4800 0.001
55.5103 0.054
55.5406 0.106
55.5709 -0.153
55.6011 0.004
55.6314 -0.048
55.6617 0.005
55.6920 0.058
55.7222 -0.045
55.7525 -0.044
55.7828 0.165
55.8131 0.009
55.8434 -0.146
55.8736 0.011
55.9039 0.012
55.9342 0.065
55.9645 -0.195
55.9948 -0.090
56.0250 -0.141
56.0553 -0.036
56.0856 -0.087
56.1159 0.070
56.1461 0.176
56.1764 0.072
56.2067 0.021
56.2370 -0.030
56.2673 0.023
56.2975 0.181
56.3278 -0.079
56.3581 -0.078
56.3884 -0.025
56.4187 -0.024
56.4489 0.186
56.4792 0.031
56.5095 0.136
56.5398 -0.019
56.5700 0.034
56.6003 -0.017
56.6306 -0.016
56.6609 -0.015
56.6912 0.143
56.7214 -0.012
56.7517 -0.063
56.7820 -0.166
56.8123 -0.114
56.8426 0.146
56.8728 -0.011
56.9031 -0.115
56.9334 -0.012
56.9637 -0.064
56.9939 -0.012
57.0242 0.040
57.0545 -0.013
57.0848 0.143
57.1151 0.039
57.1453 -0.118
57.1756 0.038
57.2059 -0.066
57.2362 -0.014
57.2665 -0.118
57.2967 -0.067
57.3270 -0.015
57.3573 -0.015
57.3876 -0.067
57.4178 0.037
57.4481 -0.171
57.4784 -0.067
57.5087 -0.015
57.5390 0.089
57.5692 -0.120
57.5995 0.245
57.6298 -0.016
57.6601 -0.016
57.6904 -0.068
57.7206 -0.068
57.7509 0.036
57.7812 -0.016
57.8115 -0.068
57.8417 -0.068
57.8720 0.141
57.9023 -0.068
57.9326 0.401
57.9629 0.037
57.9931 -0.120
58.0234 -0.015
58.0537 -0.172
58.0840 -0.067
58.1143 -0.171
58.1445 0.089
58.1748 0.037
58.2051 -0.067
58.2354 -0.119
58.2656 -0.118
58.2959 -0.014
58.3262 0.142
58.3565 -0.014
58.3868 -0.013
58.4170 -0.013
58.4473 0.091
58.4776 -0.013
58.5079 0.040
58.5382 -0.168
58.5684 -0.012
58.5987 -0.064
58.6290 -0.063
58.6593 -0.063
58.6896 -0.010
58.7198 -0.062
58.7501 -0.218
58.7804 0.199
58.8107 -0.113
58.8409 -0.217
58.8712 -0.008
58.9015 -0.008
58.9318 -0.164
58.9621 -0.112
58.9923 -0.163
59.0226 -0.059
59.0529 0.045
59.0832 -0.006
59.1135 -0.058
59.1437 -0.162
59.1740 -0.005
59.2043 -0.005
59.2346 -0.057
59.2648 -0.212
59.2951 -0.108
59.3254 -0.003
59.3557 -0.003
59.3860 -0.054
59.4162 -0.054
59.4465 -0.054
59.4768 -0.157
59.5071 -0.053
59.5374 -0.052
59.5676 0.001
59.5979 -0.207
59.6282 -0.051
59.6585 0.002
59.6887 0.003
59.7190 -0.153
59.7493 -0.048
59.7796 -0.048
59.8099 0.109
59.8401 0.006
59.8704 0.006
59.9007 0.007
59.9310 -0.045
59.9613 0.112
59.9915 0.217
60.0218 0.010
60.0521 -0.094
60.0824 -0.041
60.1126 -0.197
60.1429 0.012
60.1732 -0.039
60.2035 -0.142
60.2338 -0.037
60.2640 -0.037
60.2943 -0.036
60.3246 -0.087
60.3549 0.018
60.3852 -0.138
60.4154 0.019
60.4457 0.020
60.4760 0.125
60.5063 -0.134
60.5365 0.023
60.5668 -0.080
60.5971 -0.184
60.6274 -0.027
60.6577 -0.182
60.6879 -0.025
60.7182 -0.128
60.7485 -0.023
60.7788 0.030
60.8091 0.031
60.8393 0.032
60.8696 -0.071
60.8999 -0.018
60.9302 0.035
60.9604 -0.172
60.9907 -0.015
61.0210 0.038
61.0513 -0.065
61.0816 -0.220
61.1118 -0.063
61.1421 0.043
61.1724 0.044
61.2027 0.045
61.2330 0.046
61.2632 0.047
61.2935 -0.004
61.3238 -0.002
61.3541 -0.001
61.3844 -0.156
61.4146 0.053
61.4449 0.054
61.4752 0.160
61.5055 -0.047
61.5357 0.006
61.5660 0.007
61.5963 -0.044
61.6266 -0.146
61.6569 -0.146
61.6871 0.063
61.7174 0.063
61.7477 0.063
61.7780 0.063
61.8083 -0.145
61.8385 -0.144
61.8688 0.065
61.8991 -0.039
61.9294 0.117
61.9596 0.014
61.9899 0.118
62.0202 0.223
62.0505 0.067
62.0808 -0.037
62.1110 -0.036
62.1413 0.016
62.1716 0.017
62.2019 0.017
62.2322 0.226
62.2624 0.070
62.2927 -0.033
62.3230 0.071
62.3533 0.072
62.3835 -0.136
62.4138 0.125
62.4441 -0.083
62.4744 -0.030
62.5047 0.075
62.5349 0.023
62.5652 0.024
62.5955 0.025
62.6258 -0.131
62.6561 0.338
62.6863 0.027
62.7166 -0.077
62.7469 -0.024
62.7772 0.029
62.8074 0.029
62.8377 -0.022
62.8680 0.083
62.8983 -0.125
62.9286 0.032
62.9588 -0.123
62.9891 0.034
63.0194 -0.017
63.0497 0.036
63.0800 0.089
63.1102 0.037
63.1405 -0.014
63.1708 0.039
63.2011 0.040
63.2313 0.093
63.2616 -0.010
63.2919 0.095
63.3222 -0.113
63.3525 -0.060
63.3827 -0.007
63.4130 0.046
63.4433 -0.005
63.4736 0.048
63.5039 -0.107
63.5341 -0.158
63.5644 0.155
63.5947 0.000
63.6250 -0.103
63.6552 0.158
63.6855 0.055
63.7158 0.160
63.7461 -0.099
63.7764 -0.150
63.8066 -0.099
63.8369 0.369
63.8672 0.003
63.8975 0.002
63.9278 0.157
63.9580 -0.001
63.9883 -0.002
64.0186 0.049
64.0489 0.100
64.0791 -0.057
64.1094 -0.215
64.1397 0.201
64.1700 -0.008
64.2003 0.043
64.2305 0.042
64.2608 -0.064
64.2911 0.092
64.3214 -0.118
64.3517 0.142
64.3819 -0.016
64.4122 0.296
64.4425 -0.122
64.4728 -0.071
64.5031 0.033
64.5333 -0.020
64.5636 -0.178
64.5939 0.030
64.6242 -0.023
64.6544 0.028
64.6847 0.027
64.7150 -0.078
64.7453 0.078
64.7756 0.077
64.8058 -0.028
64.8361 -0.081
64.8664 0.022
64.8967 0.021
64.9270 -0.136
64.9572 -0.136
64.9875 -0.085
65.0178 0.019
65.0481 -0.033
65.0783 0.070
65.1086 0.070
65.1389 0.226
65.1692 -0.087
65.1995 0.017
65.2297 0.017
65.2600 0.016
65.2903 0.016
65.3206 0.016
65.3509 -0.088
65.3811 -0.037
65.4114 0.119
65.4417 -0.193
65.4720 -0.089
65.5022 -0.037
65.5325 -0.194
65.5628 -0.090
65.5931 -0.090
65.6234 0.170
65.6536 0.014
65.6839 0.014
65.7142 -0.195
65.7445 -0.039
65.7748 -0.039
65.8050 -0.091
65.8353 0.013
65.8656 0.065
65.8959 -0.091
65.9261 0.065
65.9564 -0.039
65.9867 -0.039
66.0170 -0.195
66.0473 -0.039
66.0775 -0.039
66.1078 0.013
66.1381 -0.039
66.1684 0.013
66.1987 0.378
66.2289 0.013
66.2592 -0.039
66.2895 0.014
66.3198 -0.038
66.3500 -0.090
66.3803 -0.038
66.4106 0.170
66.4409 0.014
66.4712 0.015
66.5014 -0.037
66.5317 -0.089
66.5620 0.015
66.5923 -0.089
66.6226 -0.037
66.6528 0.120
66.6831 0.016
66.7134 0.068
66.7437 0.069
66.7739 0.069
66.8042 0.017
66.8345 -0.139
66.8648 0.018
66.8951 -0.138
66.9253 0.019
66.9556 -0.033
66.9859 0.175
67.0162 -0.085
67.0465 0.020
67.0767 0.177
67.1070 0.177
67.1373 -0.031
67.1676 -0.030
67.1978 0.283
67.2281 0.023
67.2584 -0.081
67.2887 0.180
67.3190 0.076
67.3492 0.025
67.3795 -0.027
67.4098 0.078
67.4401 0.026
67.4704 0.079
67.5006 -0.129
67.5309 0.028
67.5612 -0.024
67.5915 0.081
67.6218 0.030
67.6520 0.030
67.6823 -0.125
67.7126 -0.125
67.7429 0.032
67.7731 0.033
67.8034 -0.019
67.8337 -0.174
67.8640 -0.121
67.8943 -0.070
67.9245 -0.070
67.9548 0.034
67.9851 0.034
68.0154 -0.018
68.0457 -0.071
68.0759 -0.123
68.1062 0.033
68.1365 -0.019
68.1668 -0.228
68.1970 0.137
68.2273 -0.072
68.2576 -0.124
68.2879 -0.072
68.3182 -0.020
68.3484 0.032
68.3787 0.032
68.4090 -0.072
68.4393 -0.020
68.4696 0.032
68.4998 0.032
68.5301 0.032
68.5604 -0.072
68.5907 -0.125
68.6209 0.032
68.6512 -0.020
68.6815 0.032
68.7118 -0.124
68.7421 0.084
68.7723 -0.072
68.8026 0.032
68.8329 -0.072
68.8632 -0.176
68.8935 -0.020
68.9237 -0.020
68.9540 -0.072
68.9843 0.033
69.0146 -0.019
69.0448 0.033
69.0751 -0.071
69.1054 -0.123
69.1357 -0.123
69.1660 0.034
69.1962 -0.174
69.2265 0.034
69.2568 -0.122
69.2871 -0.121
69.3174 -0.122
69.3476 -0.070
69.3779 -0.018
69.4082 -0.018
69.4385 0.243
69.4687 -0.018
69.4990 -0.070
69.5293 -0.070
69.5596 0.034
69.5899 -0.018
69.6201 0.243
69.6504 -0.174
69.6807 -0.070
69.7110 -0.122
69.7413 -0.122
69.7715 -0.017
69.8018 0.035
69.8321 0.035
69.8624 0.087
69.8926 -0.173
69.9229 -0.017
69.9532 0.035
69.9835 -0.017
70.0138 -0.068
70.0440 -0.016
70.0743 -0.120
70.1046 -0.068
70.1349 -0.172
70.1652 0.037
70.1954 0.037
70.2257 -0.015
70.2560 -0.067
70.2863 -0.119
70.3166 0.038
70.3468 0.038
70.3771 -0.066
70.4074 -0.013
70.4377 0.039
70.4679 -0.013
70.4982 0.144
70.5285 -0.064
70.5588 0.041
70.5891 -0.167
70.6193 0.041
70.6496 0.042
70.6799 -0.010
70.7102 0.043
70.7405 -0.009
70.7707 0.044
70.8010 0.148
70.8313 -0.008
70.8616 -0.059
70.8918 0.202
70.9221 -0.162
70.9524 0.046
70.9827 -0.057
71.0130 -0.109
71.0432 -0.004
71.0735 0.049
71.1038 0.205
71.1341 -0.002
71.1644 0.050
71.1946 -0.001
71.2249 0.052
71.2552 -0.208
71.2855 0.001
71.3157 0.106
71.3460 0.054
71.3763 -0.101
71.4066 0.108
71.4369 0.108
71.4671 0.005
71.4974 -0.151
71.5277 -0.150
71.5580 -0.046
71.5883 -0.047
71.6185 0.004
71.6488 0.004
71.6791 0.055
71.7094 -0.206
71.7396 0.106
71.7699 0.001
71.8002 0.156
71.8305 0.104
71.8608 -0.105
71.8910 -0.054
71.9213 0.102
71.9516 0.049
71.9819 0.049
72.0122 0.048
72.0424 0.152
72.0727 -0.057
72.1030 -0.110
72.1333 0.046
72.1635 -0.007
72.1938 0.045
72.2241 -0.008
72.2544 0.252
72.2847 -0.061
72.3149 -0.009
72.3452 -0.114
72.3755 0.198
72.4058 0.042
72.4361 0.041
72.4663 -0.063
72.4966 0.093
72.5269 -0.012
72.5572 0.040
72.5874 -0.117
72.6177 -0.065
72.6480 -0.117
72.6783 -0.013
72.7086 0.038
72.7388 0.090
72.7691 0.038
72.7994 -0.067
72.8297 -0.067
72.8600 0.037
72.8902 -0.015
72.9205 -0.120
72.9508 0.036
72.9811 -0.016
73.0113 -0.120
73.0416 0.036
73.0719 -0.069
73.1022 0.035
73.1325 -0.017
73.1627 -0.017
73.1930 -0.069
73.2233 -0.121
73.2536 0.035
73.2839 0.035
73.3141 -0.070
73.3444 -0.070
73.3747 0.087
73.4050 0.243
73.4353 -0.018
73.4655 -0.070
73.4958 -0.174
73.5261 0.034
73.5564 0.034
73.5866 0.035
73.6169 0.035
73.6472 0.087
73.6775 -0.069
73.7078 -0.069
73.7380 -0.121
73.7683 -0.175
73.7986 -0.072
73.8289 0.031
73.8592 0.030
73.8894 -0.023
73.9197 0.028
73.9500 -0.025
73.9803 0.078
74.0105 0.024
74.0408 -0.029
74.0711 -0.238
74.1014 0.229
74.1317 0.020
74.1619 0.019
74.1922 -0.034
74.2225 -0.087
74.2528 0.120
74.2831 0.171
74.3133 -0.142
74.3436 -0.039
74.3739 -0.092
74.4042 -0.093
74.4344 -0.198
74.4647 -0.095
74.4950 0.112
74.5253 -0.046
74.5556 -0.099
74.5858 0.004
74.6161 0.003
74.6464 -0.050
74.6767 -0.207
74.7070 0.000
74.7372 -0.001
74.7675 -0.158
74.7978 -0.159
74.8281 0.152
74.8583 -0.161
74.8886 -0.110
74.9189 -0.059
74.9492 0.097
74.9795 -0.009
75.0097 -0.009
75.0400 -0.010
75.0703 -0.011
75.1006 -0.012
75.1309 -0.117
75.1611 -0.014
75.1914 0.142
75.2217 -0.172
75.2520 -0.016
75.2822 -0.121
75.3125 -0.122
75.3428 -0.175
75.3731 0.085
75.4034 -0.072
75.4336 0.031
75.4639 -0.126
75.4942 -0.075
75.5245 0.185
75.5548 -0.076
75.5850 0.080
75.6153 0.079
75.6456 -0.026
75.6759 0.130
75.7061 -0.027
75.7364 0.180
75.7667 -0.029
75.7970 0.231
75.8273 -0.082
75.8575 0.126
75.8878 -0.083
75.9181 0.021
75.9484 0.124
75.9787 -0.033
76.0089 -0.033
76.0392 -0.034
76.0695 0.174
76.0998 -0.087
76.1301 -0.035
76.1603 -0.036
76.1906 -0.036
76.2209 0.068
76.2512 -0.193
76.2814 -0.090
76.3117 -0.142
76.3420 -0.143
76.3723 -0.091
76.4026 0.013
76.4328 -0.144
76.4631 -0.040
76.4934 -0.040
76.5237 0.064
76.5540 -0.145
76.5842 -0.041
76.6145 0.063
76.6448 0.062
76.6751 -0.094
76.7053 -0.042
76.7356 -0.199
76.7659 -0.043
76.7962 -0.043
76.8265 0.009
76.8567 -0.044
76.8870 -0.044
76.9173 -0.252
76.9476 -0.044
76.9779 -0.044
77.0081 -0.149
77.0384 -0.149
77.0687 0.007
77.0990 -0.045
77.1292 0.007
77.1595 -0.045
77.1898 -0.098
77.2201 -0.098
77.2504 -0.046
77.2806 0.110
77.3109 0.006
77.3412 0.058
77.3715 0.058
77.4018 -0.046
77.4320 -0.046
77.4623 -0.150
77.4926 0.110
77.5229 0.162
77.5531 -0.046
77.5834 0.006
77.6137 -0.098
77.6440 -0.046
77.6743 0.110
77.7045 0.058
77.7348 -0.150
77.7651 -0.098
77.7954 -0.046
77.8257 0.006
77.8559 0.111
77.8862 -0.097
77.9165 -0.045
77.9468 -0.045
77.9770 -0.045
78.0073 -0.097
78.0376 -0.149
78.0679 -0.097
78.0982 -0.045
78.1284 -0.045
78.1587 0.007
78.1890 0.007
78.2193 -0.045
78.2496 0.007
78.2798 -0.097
78.3101 0.164
78.3404 -0.201
78.3707 -0.149
78.4009 -0.097
78.4312 -0.149
78.4615 -0.045
78.4918 0.111
78.5221 -0.097
78.5523 0.059
78.5826 0.267
78.6129 0.111
78.6432 -0.045
78.6735 0.007
78.7037 0.059
78.7340 0.007
78.7643 -0.097
78.7946 0.007
78.8248 0.007
78.8551 -0.097
78.8854 -0.149
78.9157 0.007
78.9460 -0.305
78.9762 -0.149
79.0065 -0.097
79.0368 -0.045
79.0671 -0.149
79.0974 -0.149
79.1276 0.163
79.1579 -0.045
79.1882 0.059
79.2185 0.267
79.2488 -0.046
79.2790 -0.098
79.3093 0.110
79.3396 -0.046
79.3699 -0.046
79.4001 -0.046
79.4304 0.058
79.4607 0.058
79.4910 -0.046
79.5213 0.006
79.5515 -0.151
79.5818 -0.099
79.6121 -0.099
79.6424 0.110
79.6727 -0.099
79.7029 0.214
79.7332 0.006
79.7635 0.058
79.7938 -0.046
79.8240 0.058
79.8543 0.110
79.8846 -0.046
79.9149 -0.046
79.9452 -0.046
79.9754 -0.046
80.0057 0.059
80.0360 -0.098
80.0663 -0.045
80.0966 -0.045
80.1268 -0.045
80.1571 0.216
80.1874 0.216
80.2177 0.060
80.2479 -0.044
80.2782 0.112
80.3085 0.008
80.3388 -0.148
80.3691 0.113
80.3993 0.113
80.4296 0.114
80.4599 0.062
80.4902 0.062
80.5205 0.063
80.5507 0.011
80.5810 -0.041
80.6113 0.116
80.6416 -0.092
80.6718 -0.040
80.7021 0.065
80.7324 -0.039
80.7627 0.118
80.7930 -0.038
80.8232 0.275
80.8535 0.067
80.8838 0.015
80.9141 -0.036
80.9444 -0.036
80.9746 -0.244
81.0049 0.017
81.0352 0.174
81.0655 -0.034
81.0957 -0.033
81.1260 0.280
81.1563 -0.136
81.1866 -0.032
81.2169 -0.135
81.2471 -0.082
81.2774 -0.082
81.3077 -0.185
81.3380 -0.082
81.3683 -0.030
81.3985 -0.031
81.4288 0.072
81.4591 0.020
81.4894 0.071
81.5196 -0.190
81.5499 0.435
81.5802 0.174
81.6105 -0.035
81.6408 0.068
81.6710 0.016
81.7013 0.067
81.7316 -0.038
81.7619 0.066
81.7922 0.014
81.8224 -0.091
81.8527 0.221
81.8830 0.064
81.9133 0.012
81.9436 -0.041
81.9738 0.063
82.0041 0.062
82.0344 -0.094
82.0647 -0.095
82.0949 -0.199
82.1252 0.113
82.1555 0.373
82.1858 0.164
82.2161 0.060
82.2463 -0.097
82.2766 0.215
82.3069 -0.045
82.3372 0.006
82.3675 -0.046
82.3977 -0.151
82.4280 -0.099
82.4583 0.109
82.4886 -0.047
82.5188 -0.047
82.5491 0.109
82.5794 0.056
82.6097 0.056
82.6400 -0.048
82.6702 -0.048
82.7005 -0.257
82.7308 0.003
82.7611 -0.049
82.7914 -0.101
82.8216 -0.049
82.8519 0.263
82.8822 0.055
82.9125 -0.049
82.9427 -0.206
82.9730 -0.102
83.0033 0.003
83.0336 -0.102
83.0639 0.002
83.0941 -0.050
83.1244 0.002
83.1547 0.002
83.1850 -0.050
83.2153 0.211
83.2455 0.107
83.2758 -0.102
83.3061 0.055
83.3364 -0.154
83.3666 -0.049
83.3969 -0.049
83.4272 -0.153
83.4575 0.055
83.4878 0.160
83.5180 -0.101
83.5483 -0.101
83.5786 -0.048
83.6089 -0.100
83.6392 -0.100
83.6694 -0.100
83.6997 0.057
83.7300 -0.152
83.7603 -0.099
83.7905 0.214
83.8208 -0.203
83.8511 0.006
83.8814 -0.098
83.9117 0.215
83.9419 -0.098
83.9722 0.319
84.0025 -0.097
84.0328 -0.149
84.0631 -0.096
84.0933 -0.096
84.1236 0.009
84.1539 -0.042
84.1842 -0.042
84.2144 -0.093
84.2447 -0.301
84.2750 0.116
84.3053 0.013
84.3356 0.118
84.3658 -0.038
84.3961 0.067
84.4264 0.016
84.4567 -0.036
84.4870 0.017
84.5172 -0.139
84.5475 0.227
84.5778 -0.137
84.6081 0.124
84.6383 -0.084
84.6686 -0.031
84.6989 -0.134
84.7292 -0.185
84.7595 -0.030
84.7897 0.230
84.8200 0.125
84.8503 -0.083
84.8806 -0.084
84.9109 -0.032
84.9411 -0.241
84.9714 0.123
85.0017 -0.086
85.0320 0.174
85.0623 -0.035
85.0925 0.121
85.1228 0.016
85.1531 0.016
85.1834 -0.193
85.2136 -0.089
85.2439 0.171
85.2742 -0.038
85.3045 0.066
85.3348 0.065
85.3650 -0.143
85.3953 0.221
85.4256 0.012
85.4559 -0.092
85.4862 -0.197
85.5164 0.063
85.5467 -0.041
85.5770 0.011
85.6073 -0.094
85.6375 0.010
85.6678 0.166
85.6981 0.010
85.7284 0.166
85.7587 -0.095
85.7889 -0.095
85.8192 -0.043
85.8495 -0.043
85.8798 -0.044
85.9101 -0.044
85.9403 -0.044
85.9706 -0.044
86.0009 -0.305
86.0312 0.008
86.0614 -0.044
86.0917 0.008
86.1220 -0.201
86.1523 0.007
86.1826 -0.045
86.2128 -0.149
86.2431 -0.045
86.2734 -0.045
86.3037 0.111
86.3340 0.007
86.3642 -0.097
86.3945 -0.045
86.4248 -0.045
86.4551 -0.097
86.4853 -0.097
86.5156 -0.149
86.5459 -0.097
86.5762 -0.044
86.6065 0.112
86.6367 0.060
86.6670 -0.044
86.6973 0.060
86.7276 -0.200
86.7579 -0.148
86.7881 -0.043
86.8184 -0.095
86.8487 -0.199
86.8790 0.009
86.9092 -0.095
86.9395 -0.094
86.9698 -0.094
87.0001 -0.042
87.0304 -0.041
87.0606 0.011
87.0909 -0.041
87.1212 0.064
87.1515 -0.040
87.1818 0.064
87.2120 0.065
87.2423 0.169
87.2726 -0.039
87.3029 -0.038
87.3331 0.066
87.3634 -0.038
87.3937 0.171
87.4240 -0.141
87.4543 0.120
87.4845 -0.036
87.5148 -0.088
87.5451 0.277
87.5754 -0.035
87.6057 -0.086
87.6359 0.019
87.6662 0.019
87.6965 -0.033
87.7268 -0.188
87.7571 0.073
87.7873 -0.083
87.8176 -0.030
87.8479 -0.030
87.8782 -0.081
87.9084 -0.029
87.9387 -0.028
87.9690 -0.027
87.9993 0.182
88.0296 -0.026
88.0598 -0.234
88.0901 -0.182
88.1204 0.027
88.1507 -0.286
88.1810 0.026
88.2112 0.078
88.2415 -0.027
88.2718 -0.027
88.3021 0.181
88.3323 0.025
88.3626 -0.027
88.3929 -0.132
88.4232 -0.080
88.4535 -0.080
88.4837 -0.184
88.5140 -0.028
88.5443 -0.028
88.5746 0.180
88.6049 -0.080
88.6351 -0.028
88.6654 0.024
88.6957 -0.028
88.7260 -0.081
88.7562 0.024
88.7865 -0.029
88.8168 -0.029
88.8471 0.076
88.8774 -0.029
88.9076 -0.029
88.9379 0.024
88.9682 0.180
88.9985 -0.028
89.0288 -0.080
89.0590 -0.132
89.0893 0.024
89.1196 0.128
89.1499 -0.080
89.1801 -0.132
89.2104 0.024
89.2407 0.025
89.2710 -0.027
89.3013 0.129
89.3315 0.077
89.3618 -0.079
89.3921 -0.026
89.4224 -0.026
89.4527 -0.026
89.4829 -0.026
89.5132 -0.130
89.5435 -0.025
89.5738 0.079
89.6040 -0.025
89.6343 -0.024
89.6646 -0.024
89.6949 -0.128
89.7252 0.081
89.7554 0.185
89.7857 -0.023
89.8160 0.030
89.8463 -0.022
89.8766 -0.022
89.9068 0.031
89.9371 0.031
89.9674 -0.020
89.9977 0.032
90.0279 0.085
90.0582 -0.019
90.0885 0.034
90.1188 0.086
90.1491 -0.017
90.1793 -0.121
90.2096 0.088
90.2399 -0.172
90.2702 -0.224
90.3005 -0.015
90.3307 -0.066
90.3610 -0.066
90.3913 -0.065
90.4216 -0.117
90.4518 -0.012
90.4821 -0.115
90.5124 -0.063
90.5427 0.042
90.5730 0.251
90.6032 -0.009
90.6335 -0.164
90.6638 0.097
90.6941 -0.007
90.7244 0.046
90.7546 0.047
90.7849 0.100
90.8152 -0.108
90.8455 -0.003
90.8758 -0.158
90.9060 -0.001
90.9363 0.104
90.9666 -0.052
90.9969 0.001
91.0271 0.210
91.0574 -0.049
91.0877 -0.049
91.1180 0.161
91.1483 0.005
91.1785 0.006
91.2088 0.007
91.2391 0.112
91.2694 0.009
91.2997 -0.146
91.3299 -0.198
91.3602 -0.041
91.3905 0.012
91.4208 -0.144
91.4510 0.117
91.4813 -0.039
91.5116 0.014
91.5419 -0.037
91.5722 0.172
91.6024 0.016
91.6327 0.069
91.6630 0.070
91.6933 0.070
91.7236 -0.137
91.7538 -0.136
91.7841 -0.085
91.8144 -0.139
91.8447 0.121
91.8749 0.015
91.9052 0.014
91.9355 0.013
91.9658 0.221
91.9961 -0.093
92.0263 -0.042
92.0566 -0.043
92.0869 0.008
92.1172 0.007
92.1475 0.006
92.1777 0.005
92.2080 -0.048
92.2383 -0.049
92.2686 0.002
92.2988 0.002
92.3291 0.001
92.3594 0.000
92.3897 -0.001
92.4200 -0.002
92.4502 0.310
92.4805 -0.108
92.5108 -0.213
92.5411 -0.057
92.5714 -0.006
92.6016 -0.059
92.6319 -0.112
92.6622 -0.009
92.6925 -0.061
92.7227 0.302
92.7530 -0.063
92.7833 -0.064
92.8136 0.040
92.8439 -0.013
92.8741 -0.014
92.9044 -0.014
92.9347 -0.015
92.9650 0.088
92.9953 0.036
93.0255 0.087
93.0558 0.139
93.0861 -0.018
93.1164 0.033
93.1466 -0.020
93.1769 0.032
93.2072 0.188
93.2375 -0.021
93.2678 0.134
93.2980 0.082
93.3283 0.029
93.3586 0.029
93.3889 -0.024
93.4192 -0.129
93.4494 -0.129
93.4797 -0.077
93.5100 -0.130
93.5403 -0.235
93.5706 0.025
93.6008 -0.027
93.6311 -0.028
93.6614 -0.028
93.6917 0.128
93.7219 0.023
93.7522 -0.185
93.7825 0.023
93.8128 -0.030
93.8431 -0.030
93.8733 -0.030
93.9036 0.021
93.9339 -0.031
93.9642 0.021
93.9945 0.020
94.0247 0.020
94.0550 -0.032
94.0853 -0.084
94.1156 -0.033
94.1458 0.123
94.1761 -0.137
94.2064 -0.137
94.2367 0.019
94.2670 -0.086
94.2972 -0.086
94.3275 0.122
94.3578 0.122
94.3881 -0.138
94.4184 -0.034
94.4486 -0.034
94.4789 -0.035
94.5092 -0.035
94.5395 0.017
94.5697 0.017
94.6000 -0.035
94.6303 -0.295
94.6606 0.017
94.6909 -0.035
94.7211 0.017
94.7514 -0.087
94.7817 -0.035
94.8120 0.017
94.8423 0.121
94.8725 0.121
94.9028 0.069
94.9331 -0.243
94.9634 -0.087
94.9936 -0.034
95.0239 0.174
95.0542 0.278
95.0845 -0.034
95.1148 -0.034
95.1450 -0.034
95.1753 0.175
95.2056 -0.033
95.2359 -0.033
95.2662 0.071
95.2964 0.123
95.3267 0.280
95.3570 -0.032
95.3873 -0.032
95.4175 -0.032
95.4478 -0.136
95.4781 0.333
95.5084 -0.031
95.5387 0.073
95.5689 -0.030
95.5992 -0.134
95.6295 0.074
95.6598 -0.029
95.6901 -0.185
95.7203 -0.134
95.7506 0.230
95.7809 -0.032
95.8112 0.072
95.8414 0.019
95.8717 -0.243
95.9020 -0.035
95.9323 0.068
95.9626 0.067
95.9928 -0.038
96.0231 0.014
96.0534 -0.248
96.0837 0.116
96.1140 -0.041
96.1442 -0.146
96.1745 0.114
96.2048 -0.095
96.2351 0.113
96.2653 -0.044
96.2956 0.111
96.3259 0.058
96.3562 -0.046
96.3865 -0.099
96.4167 0.004
96.4470 0.004
96.4773 0.003
96.5076 -0.050
96.5379 -0.206
96.5681 -0.051
96.5984 0.001
96.6287 0.052
96.6590 0.000
96.6893 0.103
96.7195 -0.054
96.7498 -0.002
96.7801 -0.003
96.8104 -0.055
96.8406 -0.056
96.8709 -0.004
96.9012 -0.004
96.9315 -0.265
96.9618 -0.057
96.9920 -0.058
97.0223 -0.058
97.0526 0.098
97.0829 -0.111
97.1132 -0.112
97.1434 0.044
97.1737 0.044
97.2040 -0.061
97.2343 -0.009
97.2645 -0.009
97.2948 -0.062
97.3251 -0.166
97.3554 -0.114
97.3857 0.198
97.4159 -0.115
97.4462 -0.011
97.4765 -0.219
97.5068 0.093
97.5371 0.041
97.5673 0.093
97.5976 0.041
97.6279 0.041
97.6582 0.041
97.6884 -0.012
97.7187 -0.064
97.7490 -0.064
97.7793 0.092
97.8096 -0.064
97.8398 -0.064
97.8701 0.196
97.9004 -0.116
97.9307 -0.116
97.9610 -0.168
97.9912 0.040
98.0215 -0.116
98.0518 0.197
98.0821 0.092
98.1123 -0.064
98.1426 0.093
98.1729 -0.063
98.2032 -0.063
98.2335 0.093
98.2637 -0.063
98.2940 -0.063
98.3243 -0.063
98.3546 -0.063
98.3849 -0.062
98.4151 -0.114
98.4454 -0.114
98.4757 -0.062
98.5060 -0.166
98.5362 0.147
98.5665 -0.113
98.5968 -0.061
98.6271 -0.165
98.6574 -0.061
98.6876 -0.008
98.7179 -0.060
98.7482 -0.008
98.7785 -0.008
98.8088 0.148
98.8390 -0.008
98.8693 -0.008
98.8996 0.305
98.9299 -0.059
98.9601 0.045
98.9904 -0.007
99.0207 -0.111
99.0510 0.254
99.0813 -0.006
99.1115 0.046
99.1418 -0.058
99.1721 -0.057
99.2024 0.047
99.2327 0.100
99.2629 0.048
99.2932 -0.056
99.3235 -0.056
99.3538 -0.055
99.3841 -0.159
99.4143 -0.107
99.4446 0.050
99.4749 -0.054
99.5052 0.103
99.5354 0.103
99.5657 0.000
99.5960 -0.052
99.6263 -0.052
99.6566 0.001
99.6868 0.106
99.7171 0.002
99.7474 -0.206
99.7777 0.055
99.8080 0.264
99.8382 -0.048
99.8685 0.161
99.8988 -0.047
99.9291 -0.150
99.9593 0.111
99.9896 -0.201
100.0199 -0.149
100.0502 -0.046
100.0805 0.161
100.1107 -0.048
100.1410 0.055
100.1713 0.106
100.2016 0.053
100.2319 -0.105
100.2621 0.051
100.2924 0.102
100.3227 -0.056
100.3530 -0.057
100.3832 0.098
100.4135 0.045
100.4438 0.044
100.4741 -0.061
100.5044 0.511
100.5346 -0.219
100.5649 -0.064
100.5952 -0.013
100.6255 0.195
100.6558 -0.015
100.6860 -0.015
100.7163 0.088
100.7466 0.139
100.7769 -0.070
100.8071 0.033
100.8374 0.032
100.8677 -0.073
100.8980 -0.074
100.9283 0.030
100.9585 -0.023
100.9888 -0.076
101.0191 0.027
101.0494 -0.078
101.0797 0.130
101.1099 -0.079
101.1402 0.180
101.1705 0.023
101.2008 -0.082
101.2310 -0.030
101.2613 -0.083
101.2916 -0.084
101.3219 0.228
101.3522 -0.033
101.3824 0.175
101.4127 -0.086
101.4430 0.121
101.4733 0.173
101.5036 0.016
101.5338 0.172
101.5641 0.015
101.5944 0.066
101.6247 0.066
101.6549 -0.143
101.6852 -0.248
101.7155 0.012
101.7458 0.115
101.7761 -0.146
101.8063 0.113
101.8366 0.269
101.8669 -0.045
101.8972 0.319
101.9275 -0.098
101.9577 -0.099
101.9880 -0.152
102.0183 0.212
102.0486 0.107
102.0788 0.210
102.1091 -0.155
102.1394 -0.104
102.1697 -0.156
102.2000 -0.105
102.2302 -0.054
102.2605 -0.054
102.2908 -0.315
102.3211 0.153
102.3514 -0.108
102.3816 0.099
102.4119 -0.005
102.4422 0.150
102.4725 -0.319
102.5028 -0.111
102.5330 0.201
102.5633 -0.164
102.5936 0.252
102.6239 -0.061
102.6541 -0.010
102.6844 -0.114
102.7147 -0.115
102.7450 0.093
102.7753 0.145
102.8055 -0.116
102.8358 0.248
102.8661 0.247
102.8964 -0.118
102.9267 0.038
102.9569 -0.066
102.9872 0.089
103.0175 -0.015
103.0478 -0.172
103.0780 -0.120
103.1083 -0.120
103.1386 -0.016
103.1689 -0.016
103.1992 -0.121
103.2294 -0.069
103.2597 -0.069
103.2900 0.348
103.3203 0.139
103.3506 0.035
103.3808 0.295
103.4111 0.556
103.4414 0.035
103.4717 -0.017
103.5019 -0.017
103.5322 -0.121
103.5625 0.243
103.5928 -0.121
103.6231 -0.121
103.6533 0.087
103.6836 0.087
103.7139 0.295
103.7442 -0.069
103.7745 0.035
103.8047 0.139
103.8350 -0.121
103.8653 0.035
103.8956 0.035
103.9258 0.088
103.9561 -0.016
103.9864 -0.016
104.0167 -0.016
104.0470 0.192
104.0772 0.036
104.1075 -0.120
104.1378 -0.172
104.1681 0.037
104.1984 -0.172
104.2286 0.245
104.2589 -0.172
104.2892 -0.015
104.3195 -0.172
104.3497 -0.120
104.3800 0.141
104.4103 -0.015
104.4406 -0.172
104.4709 -0.068
104.5011 0.192
104.5314 -0.068
104.5617 -0.068
104.5920 -0.068
104.6223 0.088
104.6525 0.035
104.6828 -0.017
104.7131 0.087
104.7434 0.243
104.7736 0.087
104.8039 0.139
104.8342 0.035
104.8645 0.035
104.8948 0.139
104.9250 -0.069
104.9553 -0.226
104.9856 0.035
105.0159 -0.069
105.0462 0.243
105.0764 0.295
105.1067 0.087
105.1370 -0.121
105.1673 0.139
105.1975 0.243
105.2278 -0.017
105.2581 0.035
105.2884 -0.121
105.3187 0.192
105.3489 0.140
105.3792 0.140
105.4095 -0.225
105.4398 0.036
105.4701 -0.016
105.5003 -0.016
105.5306 -0.120
105.5609 -0.172
105.5912 -0.120
105.6215 -0.119
105.6517 -0.015
105.6820 0.037
105.7123 -0.119
105.7426 0.089
105.7728 -0.067
105.8031 0.246
105.8334 -0.014
105.8637 0.090
105.8940 -0.066
105.9242 -0.066
105.9545 0.039
105.9848 -0.065
106.0151 0.091
106.0454 0.039
106.0756 0.092
106.1059 0.248
106.1362 0.092
106.1665 -0.012
106.1967 0.249
106.2270 -0.011
106.2573 -0.011
106.2876 0.094
106.3179 0.146
106.3481 -0.114
106.3784 0.251
106.4087 -0.061
106.4390 0.044
106.4693 -0.008
106.4995 -0.008
106.5298 -0.059
106.5601 -0.163
106.5904 0.046
106.6206 -0.162
106.6509 0.047
106.6812 -0.057
106.7115 -0.108
106.7418 -0.212
106.7720 0.049
106.8023 0.049
106.8326 0.206
106.8629 0.051
106.8932 0.103
106.9234 -0.104
106.9537 -0.052
106.9840 -0.103
107.0143 -0.155
107.0445 -0.050
107.0748 0.159
107.1051 0.003
107.1354 0.004
107.1657 -0.047
107.1959 0.214
107.2262 0.058
107.2565 0.007
107.2868 0.372
107.3171 -0.044
107.3473 -0.043
107.3776 0.114
107.4079 -0.041
107.4382 0.063
107.4684 0.116
107.4987 -0.143
107.5290 0.170
107.5593 0.067
107.5896 0.015
107.6198 -0.244
107.6501 0.017
107.6804 0.122
107.7107 0.123
107.7410 0.280
107.7712 -0.031
107.8015 0.074
107.8318 0.023
107.8621 0.284
107.8923 0.233
107.9226 -0.027
107.9529 0.079
107.9832 0.132
108.0135 -0.128
108.0437 0.290
108.0740 0.187
108.1043 -0.073
108.1346 0.033
108.1649 0.190
108.1951 0.035
108.2254 0.192
108.2557 0.349
108.2860 -0.014
108.3163 0.091
108.3465 0.196
108.3768 0.093
108.4071 0.042
108.4374 0.200
108.4676 0.461
108.4979 -0.058
108.5282 -0.109
108.5585 0.100
108.5888 0.154
108.6190 0.311
108.6493 0.000
108.6796 0.366
108.7099 0.002
108.7402 0.056
108.7704 0.057
108.8007 -0.150
108.8310 -0.149
108.8613 -0.098
108.8915 0.057
108.9218 0.003
108.9521 0.367
108.9824 0.261
109.0127 0.104
109.0429 0.050
109.0732 -0.003
109.1035 0.152
109.1338 -0.058
109.1641 0.149
109.1943 0.044
109.2246 -0.009
109.2549 0.146
109.2852 -0.012
109.3154 -0.013
109.3457 0.507
109.3760 -0.067
109.4063 0.140
109.4366 0.035
109.4668 0.086
109.4971 0.136
109.5274 -0.021
109.5577 -0.022
109.5880 -0.023
109.6182 0.184
109.6485 0.339
109.6788 0.234
109.7091 -0.027
109.7393 0.232
109.7696 0.075
109.7999 0.074
109.8302 0.229
109.8605 0.072
109.8907 -0.033
109.9210 0.174
109.9513 0.121
109.9816 -0.036
110.0119 0.171
110.0421 0.014
110.0724 -0.039
110.1027 -0.040
110.1330 -0.093
110.1632 -0.042
110.1935 0.166
110.2238 -0.043
110.2541 0.216
110.2844 -0.097
110.3146 0.215
110.3449 -0.047
110.3752 0.057
110.4055 0.056
110.4358 0.003
110.4660 0.107
110.4963 -0.050
110.5266 -0.051
110.5569 0.000
110.5871 0.260
110.6174 -0.105
110.6477 -0.054
110.6780 0.050
110.7083 0.205
110.7385 -0.004
110.7688 -0.057
110.7991 0.047
110.8294 0.255
110.8597 0.046
110.8899 -0.007
110.9202 -0.060
110.9505 0.252
110.9808 -0.061
111.0110 -0.165
111.0413 0.146
111.0716 0.250
111.1019 0.198
111.1322 -0.115
111.1624 -0.272
111.1927 0.039
111.2230 -0.066
111.2533 0.193
111.2836 0.296
111.3138 0.087
111.3441 0.138
111.3744 -0.123
111.4047 -0.072
111.4350 0.343
111.4652 -0.022
111.4955 -0.023
111.5258 0.184
111.5561 0.079
111.5863 0.182
111.6166 -0.079
111.6469 -0.080
111.6772 0.232
111.7075 0.023
111.7377 -0.082
111.7680 -0.031
111.7983 0.228
111.8286 -0.085
111.8589 0.123
111.8891 -0.087
111.9194 -0.192
111.9497 0.016
111.9800 0.067
112.0102 -0.038
112.0405 -0.247
112.0708 0.221
112.1011 0.168
112.1314 -0.093
112.1616 -0.198
112.1919 0.010
112.2222 0.166
112.2525 -0.095
112.2828 0.009
112.3130 -0.096
112.3433 -0.148
112.3736 -0.045
112.4039 0.059
112.4341 -0.045
112.4644 0.006
112.4947 -0.150
112.5250 0.058
112.5553 0.005
112.5855 -0.099
112.6158 -0.048
112.6461 0.056
112.6764 -0.100
112.7067 0.004
112.7369 0.160
112.7672 0.003
112.7975 -0.049
112.8278 -0.049
112.8580 -0.154
112.8883 -0.102
112.9186 -0.102
112.9489 0.106
112.9792 0.210
113.0094 -0.051
113.0397 0.001
113.0700 -0.103
113.1003 0.105
113.1306 0.417
113.1608 0.001
113.1911 -0.156
113.2214 0.052
113.2517 -0.260
113.2819 0.052
113.3122 0.052
113.3425 0.000
113.3728 -0.156
113.4031 -0.052
113.4333 0.104
113.4636 0.000
113.4939 -0.260
113.5242 0.000
113.5545 0.052
113.5847 0.104
113.6150 0.052
113.6453 -0.052
113.6756 0.104
113.7058 0.104
113.7361 0.000
113.7664 0.053
113.7967 0.001
113.8270 -0.051
113.8572 -0.051
113.8875 0.157
113.9178 0.105
113.9481 -0.051
113.9784 0.054
114.0086 -0.102
114.0389 -0.050
114.0692 0.002
114.0995 -0.050
114.1298 0.263
114.1600 -0.101
114.1903 -0.101
114.2206 -0.049
114.2509 0.004
114.2811 0.108
114.3114 0.056
114.3417 -0.048
114.3720 -0.047
114.4023 0.318
114.4325 -0.151
114.4628 0.110
114.4931 -0.046
114.5234 0.059
114.5537 0.111
114.5839 -0.097
114.6142 -0.044
114.6445 -0.044
114.6748 0.321
114.7050 0.009
114.7353 0.270
114.7656 -0.042
114.7959 -0.250
114.8262 -0.041
114.8564 0.063
114.8867 0.063
114.9170 0.167
114.9473 0.063
114.9776 0.427
115.0078 -0.042
115.0381 0.115
115.0684 -0.042
115.0987 0.115
115.1289 0.010
115.1592 -0.042
115.1895 0.427
115.2198 -0.041
115.2501 -0.250
115.2803 -0.042
115.3106 0.114
115.3409 0.113
115.3712 0.061
115.4015 -0.148
115.4317 0.320
115.4620 0.060
115.4923 0.163
115.5226 0.007
115.5528 0.215
115.5831 -0.098
115.6134 0.057
115.6437 -0.047
115.6740 0.161
115.7042 -0.048
115.7345 0.056
115.7648 -0.048
115.7951 0.003
115.8254 0.055
115.8556 0.211
115.8859 0.263
115.9162 -0.050
115.9465 -0.050
115.9767 0.314
116.0070 0.262
116.0373 0.053
116.0676 -0.207
116.0979 0.105
116.1281 -0.156
116.1584 -0.104
116.1887 0.052
116.2190 -0.052
116.2493 0.052
116.2795 0.052
116.3098 0.104
116.3401 -0.261
116.3704 0.104
116.4006 -0.105
116.4309 0.104
116.4612 0.156
116.4915 0.051
116.5218 -0.053
116.5520 0.103
116.5823 -0.001
116.6126 0.208
116.6429 0.155
116.6732 -0.001
116.7034 -0.001
116.7337 -0.105
116.7640 -0.053
116.7943 0.052
116.8245 -0.105
116.8548 0.104
116.8851 0.000
116.9154 0.000
116.9457 0.208
116.9759 0.000
117.0062 0.313
117.0365 0.313
117.0668 0.157
117.0971 0.157
117.1273 0.001
117.1576 0.418
117.1879 0.053
117.2182 0.054
117.2485 0.106
117.2787 0.002
117.3090 0.002
117.3393 -0.050
117.3696 -0.049
117.3998 0.003
117.4301 0.108
117.4604 -0.153
117.4907 0.525
117.5210 0.109
117.5512 0.109
117.5815 0.213
117.6118 0.058
117.6421 0.006
117.6724 0.006
117.7026 0.007
117.7329 0.215
117.7632 0.268
117.7935 0.216
117.8237 0.113
117.8540 0.269
117.8843 0.322
117.9146 0.166
117.9449 0.062
117.9751 0.427
118.0054 0.220
118.0357 0.741
118.0660 0.117
118.0963 0.013
118.1265 0.013
118.1568 -0.142
118.1871 0.015
118.2174 0.380
118.2476 -0.088
118.2779 0.329
118.3082 0.121
118.3385 -0.191
118.3688 0.018
118.3990 0.019
118.4293 0.176
118.4596 0.125
118.4899 -0.083
118.5202 -0.082
118.5504 0.179
118.5807 0.127
118.6110 0.024
118.6413 0.285
118.6715 0.026
118.7018 0.026
118.7321 -0.025
118.7624 0.132
118.7927 0.029
118.8229 0.290
118.8532 0.083
118.8835 0.344
118.9138 0.032
118.9441 0.189
118.9743 0.294
119.0046 0.399
119.0349 0.036
119.0652 -0.172
119.0954 -0.172
119.1257 -0.075
119.1560 0.022
119.1863 -0.037
119.2166 0.269
119.2468 0.366
119.2771 -0.006
119.3074 0.039
119.3377 -0.280
119.3680 0.025
119.3982 0.071
119.4285 -0.093
119.4588 -0.048
119.4891 -0.054
119.5193 0.095
119.5496 -0.016
119.5799 -0.179
119.6102 0.074
119.6405 -0.141
119.6707 -0.096
119.7010 0.001
119.7313 -0.266
119.7616 0.196
119.7919 0.137
119.8221 -0.078
119.8524 -0.397
119.8827 0.013
119.9130 -0.150
119.9433 -0.001
119.9735 -0.320
120.0038 0.000
