'Id: "" Comment: "" Operator: "Lab Manager" Anode: "Cu" Scantype: "Locked Coupled" TimePerStep: "19.2" X: "9999" Y: "9999" Z: "9999" 
10.0015 0.000
10.0318 0.722
10.0620 4.882
10.0923 2.635
10.1226 5.858
10.1529 10.174
10.1832 10.063
10.2134 10.786
10.2437 9.425
10.2740 18.065
10.3043 15.923
10.3346 17.011
10.3648 23.307
10.3951 20.020
10.4254 22.566
10.4557 24.383
10.4859 28.179
10.5162 26.455
10.5465 28.741
10.5768 24.152
10.6071 25.188
10.6373 19.558
10.6676 23.876
10.6979 16.995
10.7282 22.251
10.7585 18.183
10.7887 18.283
10.8190 13.382
10.8493 13.013
10.8796 10.404
10.9098 3.472
10.9401 4.770
10.9704 2.734
11.0007 3.459
11.0310 -0.035
11.0612 0.586
11.0915 1.832
11.1218 -1.818
11.1521 -3.854
11.1824 1.827
11.2126 -0.200
11.2429 1.367
11.2732 -2.743
11.3035 -0.707
11.3337 -3.307
11.3640 -0.358
11.3943 1.862
11.4246 0.436
11.4549 -2.916
11.4851 -0.436
11.5154 1.367
11.5457 -0.060
11.5760 -0.392
11.6063 -1.036
11.6365 1.132
11.6668 -0.034
11.6971 0.416
11.7274 -4.135
11.7577 1.054
11.7879 -0.267
11.8182 -2.682
11.8485 0.225
11.8788 -2.025
11.9090 0.466
11.9393 -0.273
11.9696 -1.064
11.9999 -1.959
12.0302 1.469
12.0604 0.783
12.0907 -1.414
12.1210 -0.225
12.1513 -2.005
12.1816 0.089
12.2118 -1.567
12.2421 0.995
12.2724 -0.765
12.3027 -0.129
12.3329 -1.108
12.3632 -0.368
12.3935 -1.086
12.4238 -0.254
12.4541 -0.204
12.4843 -0.465
12.5146 -0.623
12.5449 -0.728
12.5752 -1.093
12.6055 0.562
12.6357 0.290
12.6660 1.946
12.6963 -0.357
12.7266 -0.629
12.7568 0.350
12.7871 -2.474
12.8174 -0.371
12.8477 0.430
12.8780 -0.019
12.9082 -1.250
12.9385 -0.039
12.9688 -0.027
12.9991 1.028
13.0294 -1.511
13.0596 -0.353
13.0899 -0.913
13.1202 -0.493
13.1505 -0.022
13.1807 -0.957
13.2110 0.087
13.2413 -1.316
13.2716 0.249
13.3019 -0.060
13.3321 -0.005
13.3624 0.467
13.3927 0.157
13.4230 -1.298
13.4533 0.841
13.4835 -1.187
13.5138 -0.766
13.5441 -0.867
13.5744 -0.449
13.6046 0.490
13.6349 0.439
13.6652 0.440
13.6955 -0.391
13.7258 -0.598
13.7560 0.341
13.7863 1.436
13.8166 0.188
13.8469 -0.278
13.8772 0.192
13.9074 0.507
13.9377 -0.272
13.9680 0.407
13.9983 0.722
14.0285 0.412
14.0588 0.414
14.0891 -0.885
14.1194 -0.375
14.1497 0.343
14.1799 -1.074
14.2102 0.113
14.2405 -0.418
14.2708 0.249
14.3011 1.488
14.3313 0.905
14.3616 1.416
14.3919 1.197
14.4222 -0.792
14.4524 1.542
14.4827 0.542
14.5130 0.376
14.5433 0.106
14.5736 2.284
14.6038 0.139
14.6341 1.484
14.6644 0.120
14.6947 1.465
14.7250 2.133
14.7552 2.072
14.7855 1.646
14.8158 0.908
14.8461 2.826
14.8764 0.630
14.9066 0.673
14.9369 0.300
14.9672 0.708
14.9975 0.804
15.0277 3.087
15.0580 2.297
15.0883 1.612
15.1186 2.333
15.1489 4.461
15.1791 2.213
15.2094 1.997
15.2397 2.510
15.2700 2.450
15.3003 3.432
15.3305 3.789
15.3608 3.834
15.3911 3.931
15.4214 1.892
15.4516 4.541
15.4819 2.607
15.5122 3.121
15.5425 3.270
15.5728 4.774
15.6030 3.257
15.6333 2.938
15.6636 4.650
15.6939 4.643
15.7242 5.106
15.7544 5.047
15.7847 3.843
15.8150 2.743
15.8453 4.143
15.8755 4.502
15.9058 4.809
15.9361 2.407
15.9664 2.401
15.9967 2.760
16.0269 4.630
16.0572 4.572
16.0875 1.546
16.1178 2.999
16.1481 3.306
16.1783 2.676
16.2086 2.619
16.2389 1.781
16.2692 2.453
16.2994 3.281
16.3297 2.131
16.3600 2.543
16.3903 3.111
16.4206 1.961
16.4508 2.582
16.4811 1.067
16.5114 3.407
16.5417 0.069
16.5720 1.523
16.6022 1.780
16.6325 1.151
16.6628 0.470
16.6931 -0.783
16.7233 0.359
16.7536 1.501
16.7839 -0.221
16.8142 -0.224
16.8445 0.554
16.8747 0.759
16.9050 1.797
16.9353 0.336
16.9656 0.802
16.9959 -0.972
17.0261 0.953
17.0564 -0.404
17.0867 0.479
17.1170 0.841
17.1472 0.109
17.1775 -0.414
17.2078 -1.093
17.2381 0.455
17.2684 0.128
17.2986 0.321
17.3289 0.672
17.3592 0.762
17.3895 -0.971
17.4198 -0.673
17.4500 0.862
17.4803 1.616
17.5106 2.162
17.5409 1.615
17.5712 0.859
17.6014 -0.210
17.6317 0.701
17.6620 0.831
17.6923 1.117
17.7225 1.195
17.7528 1.116
17.7831 3.330
17.8134 1.481
17.8437 1.403
17.8739 2.575
17.9042 1.195
17.9345 2.263
17.9648 1.872
17.9951 1.899
18.0253 1.665
18.0556 0.598
18.0859 3.593
18.1162 3.047
18.1464 3.022
18.1767 4.299
18.2070 4.482
18.2373 4.718
18.2676 4.329
18.2978 6.491
18.3281 4.540
18.3584 6.182
18.3887 6.730
18.4190 8.008
18.4492 6.942
18.4795 6.813
18.5098 8.404
18.5401 9.109
18.5703 7.627
18.6006 7.498
18.6309 9.037
18.6612 8.597
18.6915 9.667
18.7217 10.685
18.7520 11.807
18.7823 10.586
18.8126 10.407
18.8429 9.394
18.8731 11.350
18.9034 9.764
18.9337 10.262
18.9640 10.656
18.9942 9.591
19.0245 10.715
19.0548 9.442
19.0851 9.107
19.1154 9.084
19.1456 9.062
19.1759 8.779
19.2062 6.778
19.2365 5.246
19.2668 5.901
19.2970 4.681
19.3273 5.492
19.3576 5.158
19.3879 4.876
19.4181 6.208
19.4484 4.260
19.4787 3.457
19.5090 1.769
19.5393 3.831
19.5695 3.550
19.5998 2.226
19.6301 3.195
19.6604 2.185
19.6907 2.633
19.7209 2.091
19.7512 2.487
19.7815 1.008
19.8118 1.508
19.8420 0.759
19.8723 1.676
19.9026 1.708
19.9329 1.219
19.9632 2.032
19.9934 0.866
20.0237 0.274
20.0540 0.150
20.0843 -0.026
20.1146 -0.619
20.1448 0.143
20.1751 0.644
20.2054 0.104
20.2357 0.762
20.2659 0.430
20.2962 0.046
20.3265 -0.181
20.3568 0.685
20.3871 0.510
20.4173 0.856
20.4476 1.462
20.4779 0.038
20.5082 -0.502
20.5385 -0.624
20.5687 0.548
20.5990 -0.622
20.6293 0.394
20.6596 0.317
20.6899 -0.228
20.7201 -0.670
20.7504 0.347
20.7807 -0.823
20.8110 0.299
20.8412 -0.351
20.8715 0.927
20.9018 -0.816
20.9321 -0.267
20.9624 0.126
20.9926 -0.315
21.0229 0.911
21.0532 -0.102
21.0835 1.176
21.1138 0.892
21.1440 1.754
21.1743 0.377
21.2046 1.760
21.2349 1.320
21.2651 1.974
21.2954 0.909
21.3257 0.626
21.3560 0.238
21.3863 0.684
21.4165 0.765
21.4468 0.639
21.4771 -0.894
21.5074 -0.396
21.5377 1.300
21.5679 0.809
21.5982 0.110
21.6285 -0.277
21.6588 -0.090
21.6890 -0.321
21.7193 1.585
21.7496 0.000
21.7799 0.031
21.8102 -0.303
21.8404 1.185
21.8707 0.591
21.9010 0.101
21.9313 0.236
21.9616 0.892
21.9918 0.975
22.0221 0.902
22.0524 -0.317
22.0827 -0.494
22.1129 0.325
22.1432 0.154
22.1735 -0.329
22.2038 0.386
22.2341 -0.617
22.2643 0.254
22.2946 1.959
22.3249 -1.284
22.3552 0.213
22.3855 0.564
22.4157 1.696
22.4460 -0.296
22.4763 0.888
22.5066 0.250
22.5368 0.081
22.5671 1.422
22.5974 0.315
22.6277 1.604
22.6580 0.289
22.6882 0.224
22.7185 1.566
22.7488 0.772
22.7791 2.114
22.8094 0.226
22.8396 1.047
22.8699 0.722
22.9002 -0.488
22.9305 0.594
22.9607 0.790
22.9910 0.674
23.0213 0.663
23.0516 1.067
23.0819 0.014
23.1121 0.263
23.1424 0.460
23.1727 1.178
23.2030 0.541
23.2333 0.582
23.2635 -0.314
23.2938 0.925
23.3241 0.549
23.3544 1.319
23.3846 0.215
23.4149 1.610
23.4452 1.704
23.4755 1.016
23.5058 1.683
23.5360 1.516
23.5663 3.121
23.5966 0.610
23.6269 1.225
23.6572 1.319
23.6874 1.674
23.7177 1.508
23.7480 2.227
23.7783 2.582
23.8086 2.208
23.8388 1.886
23.8691 1.981
23.8994 3.065
23.9297 1.389
23.9599 2.161
23.9902 1.527
24.0205 2.404
24.0508 0.937
24.0811 3.324
24.1113 1.700
24.1416 2.108
24.1719 2.048
24.2022 2.924
24.2325 3.333
24.2627 3.376
24.2930 2.847
24.3233 3.673
24.3536 1.998
24.3838 3.500
24.4141 2.867
24.4444 2.495
24.4747 3.581
24.5050 5.500
24.5352 3.045
24.5655 3.194
24.5958 4.853
24.6261 2.658
24.6564 4.370
24.6866 4.467
24.7169 3.054
24.7472 2.005
24.7775 4.394
24.8077 3.241
24.8380 3.547
24.8683 3.488
24.8986 3.274
24.9289 4.100
24.9591 4.094
24.9894 5.025
25.0197 4.498
25.0500 5.065
25.0803 3.444
25.1105 4.741
25.1408 5.464
25.1711 5.823
25.2014 5.088
25.2316 3.936
25.2619 6.014
25.2922 5.332
25.3225 5.222
25.3528 5.998
25.3830 7.035
25.4133 6.613
25.4436 5.671
25.4739 8.843
25.5042 8.005
25.5344 7.844
25.5647 6.224
25.5950 6.636
25.6253 5.174
25.6555 6.315
25.6858 5.998
25.7161 7.140
25.7464 6.511
25.7767 6.507
25.8069 7.076
25.8372 6.707
25.8675 6.912
25.8978 6.648
25.9281 5.290
25.9583 4.245
25.9886 5.699
26.0189 5.696
26.0492 6.578
26.0794 5.742
26.1097 6.832
26.1400 5.319
26.1703 6.774
26.2006 5.521
26.2308 6.560
26.2611 7.235
26.2914 8.690
26.3217 7.021
26.3520 6.602
26.3822 8.318
26.4125 7.483
26.4428 8.626
26.4731 8.208
26.5034 6.799
26.5336 8.152
26.5639 10.441
26.5942 9.554
26.6245 9.917
26.6547 10.697
26.6850 10.956
26.7153 10.277
26.7456 11.578
26.7759 12.410
26.8061 11.888
26.8364 12.043
26.8667 12.563
26.8970 12.875
26.9273 12.770
26.9575 12.404
26.9878 15.216
27.0181 13.497
27.0484 13.757
27.0786 15.111
27.1089 13.392
27.1392 15.162
27.1695 13.079
27.1998 14.016
27.2300 13.443
27.2603 12.714
27.2906 12.923
27.3209 12.923
27.3512 10.996
27.3814 13.445
27.4117 13.445
27.4420 10.373
27.4723 11.311
27.5025 11.520
27.5328 13.761
27.5631 12.929
27.5934 11.002
27.6237 11.004
27.6539 10.588
27.6842 10.954
27.7145 11.945
27.7448 10.228
27.7751 12.521
27.8053 11.012
27.8356 11.743
27.8659 9.297
27.8962 11.591
27.9264 10.447
27.9567 9.980
27.9870 11.701
28.0173 8.891
28.0476 10.820
28.0778 9.989
28.1081 10.513
28.1384 11.609
28.1687 10.570
28.1990 10.521
28.2292 9.899
28.2595 9.589
28.2898 11.259
28.3201 10.168
28.3503 10.380
28.3806 8.664
28.4109 11.740
28.4412 9.556
28.4715 9.039
28.5017 9.251
28.5320 7.640
28.5623 8.946
28.5926 9.835
28.6229 9.110
28.6531 8.854
28.6834 7.972
28.7137 7.664
28.7440 6.106
28.7742 6.683
28.8045 7.000
28.8348 6.692
28.8651 5.968
28.8954 5.972
28.9256 6.133
28.9559 6.711
28.9862 4.477
29.0165 4.065
29.0468 5.008
29.0770 5.065
29.1073 4.237
29.1376 3.461
29.1679 2.685
29.1981 3.003
29.2284 3.269
29.2587 2.754
29.2890 2.969
29.3193 3.339
29.3495 2.668
29.3798 0.747
29.4101 3.097
29.4404 1.905
29.4707 2.016
29.5009 3.116
29.5312 2.029
29.5615 1.775
29.5918 2.354
29.6221 2.361
29.6523 2.316
29.6826 0.448
29.7129 1.236
29.7432 1.868
29.7734 1.771
29.8037 1.466
29.8340 0.223
29.8643 0.960
29.8946 0.707
29.9248 1.652
29.9551 0.618
29.9854 1.980
30.0157 1.051
30.0460 0.486
30.0762 0.546
30.1065 0.971
30.1368 0.041
30.1671 -0.002
30.1973 0.527
30.2276 0.223
30.2579 1.221
30.2882 0.136
30.3185 0.249
30.3487 0.414
30.3790 0.735
30.4093 -0.141
30.4396 -0.966
30.4699 1.023
30.5001 0.772
30.5304 0.625
30.5607 0.217
30.5910 1.164
30.6212 0.237
30.6515 -0.275
30.6818 0.725
30.7121 0.995
30.7424 0.640
30.7726 1.432
30.8029 0.140
30.8332 0.931
30.8635 0.316
30.8938 0.900
30.9240 0.597
30.9543 -0.017
30.9846 1.504
31.0149 0.890
31.0451 0.328
31.0754 0.026
31.1057 0.401
31.1360 0.829
31.1663 0.892
31.1965 1.893
31.2268 0.863
31.2571 0.301
31.2874 0.573
31.3177 1.470
31.3479 0.805
31.3782 0.868
31.4085 1.401
31.4388 0.684
31.4690 0.644
31.4993 0.083
31.5296 0.303
31.5599 0.992
31.5902 0.432
31.6204 2.840
31.6507 1.134
31.6810 0.886
31.7113 0.794
31.7416 1.016
31.7718 0.820
31.8021 0.052
31.8324 1.106
31.8627 0.703
31.8929 0.820
31.9232 0.417
31.9535 0.326
31.9838 -0.650
32.0141 -0.274
32.0443 0.466
32.0746 0.373
32.1049 0.177
32.1352 -0.853
32.1655 0.877
32.1957 0.629
32.2260 0.068
32.2563 -0.181
32.2866 0.508
32.3169 0.416
32.3471 0.012
32.3774 0.441
32.4077 0.714
32.4380 -0.003
32.4682 -0.407
32.4985 0.127
32.5288 0.764
32.5591 0.881
32.5894 1.884
32.6196 1.116
32.6499 1.962
32.6802 2.132
32.7105 2.093
32.7408 3.044
32.7710 2.120
32.8013 1.716
32.8316 2.407
32.8619 1.379
32.8921 1.653
32.9224 1.459
32.9527 1.681
32.9830 0.758
33.0133 0.772
33.0435 0.526
33.0738 0.540
33.1041 0.346
33.1344 0.829
33.1647 1.156
33.1949 0.181
33.2252 0.977
33.2555 0.784
33.2858 -0.035
33.3160 0.449
33.3463 -0.577
33.3766 -0.146
33.4069 0.547
33.4372 -0.584
33.4674 0.109
33.4977 0.281
33.5280 0.504
33.5583 0.156
33.5886 0.275
33.6188 0.187
33.6491 0.203
33.6794 0.167
33.7097 -0.494
33.7399 -0.130
33.7702 -0.026
33.8005 0.339
33.8308 0.183
33.8611 0.339
33.8913 -0.286
33.9216 0.027
33.9519 0.236
33.9822 0.080
34.0125 -0.336
34.0427 0.810
34.0730 -0.647
34.1033 0.864
34.1336 -0.073
34.1638 -0.488
34.1941 0.815
34.2244 1.076
34.2547 0.453
34.2850 0.298
34.3152 0.820
34.3455 -0.481
34.3758 -0.114
34.4061 1.085
34.4364 0.618
34.4666 0.360
34.4969 -0.211
34.5272 0.572
34.5575 0.522
34.5877 0.159
34.6180 0.162
34.6483 0.372
34.6786 0.635
34.7089 0.429
34.7391 0.328
34.7694 0.174
34.7997 -0.031
34.8300 0.336
34.8603 0.495
34.8905 1.071
34.9208 0.710
34.9511 -0.277
34.9814 -0.013
35.0116 0.043
35.0419 0.671
35.0722 -0.263
35.1025 0.105
35.1328 -0.568
35.1630 0.269
35.1933 0.221
35.2236 0.225
35.2539 0.541
35.2842 1.535
35.3144 1.018
35.3447 0.346
35.3750 0.819
35.4053 2.021
35.4356 1.453
35.4658 1.301
35.4961 0.577
35.5264 1.363
35.5567 2.045
35.5869 2.258
35.6172 1.690
35.6475 1.070
35.6778 1.388
35.7081 1.758
35.7383 2.180
35.7686 1.300
35.7989 1.827
35.8292 1.937
35.8595 0.901
35.8897 0.906
35.9200 1.642
35.9503 1.960
35.9806 3.477
36.0108 1.295
36.0411 1.093
36.0714 1.308
36.1017 1.471
36.1320 1.373
36.1622 2.265
36.1925 0.865
36.2228 1.914
36.2531 1.504
36.2834 1.251
36.3136 -0.044
36.3439 0.900
36.3742 1.220
36.4045 1.123
36.4347 1.182
36.4650 0.617
36.4953 0.520
36.5256 0.893
36.5559 0.223
36.5861 0.856
36.6164 0.395
36.6467 -0.482
36.6770 0.463
36.7073 0.888
36.7375 0.740
36.7678 0.123
36.7981 0.236
36.8284 0.036
36.8586 1.503
36.8889 0.314
36.9192 0.062
36.9495 -0.346
36.9798 0.340
37.0100 0.453
37.0403 -0.058
37.0706 0.992
37.1009 0.533
37.1312 -0.135
37.1614 1.385
37.1917 0.405
37.2220 0.415
37.2523 0.841
37.2825 0.017
37.3128 0.600
37.3431 0.245
37.3734 0.203
37.4037 0.630
37.4339 1.526
37.4642 -0.027
37.4945 0.296
37.5248 0.098
37.5551 0.474
37.5853 0.432
37.6156 -0.495
37.6459 0.870
37.6762 0.152
37.7064 0.371
37.7367 0.591
37.7670 0.081
37.7973 0.561
37.8276 0.364
37.8578 0.063
37.8881 1.428
37.9184 1.544
37.9487 1.347
37.9790 0.474
38.0092 0.798
38.0395 0.549
38.0698 0.822
38.1001 0.573
38.1304 0.429
38.1606 1.223
38.1909 0.975
38.2212 1.404
38.2515 1.104
38.2817 0.596
38.3120 1.025
38.3423 0.569
38.3726 0.530
38.4029 0.647
38.4331 -0.122
38.4634 -0.004
38.4937 0.530
38.5240 0.595
38.5543 1.077
38.5845 0.518
38.6148 -0.198
38.6451 0.805
38.6754 -0.119
38.7056 0.103
38.7359 -0.091
38.7662 -0.337
38.7965 0.093
38.8268 0.159
38.8570 0.590
38.8873 -0.020
38.9176 0.306
38.9479 -0.304
38.9782 0.231
39.0084 0.194
39.0387 0.052
39.0690 0.640
39.0993 -0.751
39.1295 0.826
39.1598 0.529
39.1901 0.700
39.2204 0.142
39.2507 0.262
39.2809 -0.035
39.3112 0.345
39.3415 0.621
39.3718 0.063
39.4021 -0.754
39.4323 -0.027
39.4626 0.076
39.4929 0.283
39.5232 -0.760
39.5534 0.697
39.5837 0.175
39.6140 0.226
39.6443 -0.556
39.6746 -0.140
39.7048 0.432
39.7351 -0.037
39.7654 0.119
39.7957 -0.090
39.8260 0.170
39.8562 0.482
39.8865 0.273
39.9168 0.117
39.9471 0.481
39.9773 -0.248
40.0076 0.221
40.0379 0.482
40.0682 -0.299
40.0985 0.118
40.1287 0.379
40.1590 0.171
40.1893 0.328
40.2196 0.224
40.2499 0.173
40.2801 0.538
40.3104 0.800
40.3407 -0.189
40.3710 1.375
40.4012 0.543
40.4315 0.596
40.4618 0.077
40.4921 0.182
40.5224 0.340
40.5526 0.550
40.5829 1.177
40.6132 -0.228
40.6435 0.868
40.6738 1.495
40.7040 0.351
40.7343 0.353
40.7646 0.720
40.7949 0.566
40.8251 1.298
40.8554 0.415
40.8857 0.365
40.9160 0.264
40.9463 0.371
40.9765 0.165
41.0068 0.897
41.0371 0.900
41.0674 0.955
41.0977 0.594
41.1279 0.858
41.1582 0.184
41.1885 0.396
41.2188 -0.122
41.2491 0.663
41.2793 0.510
41.3096 -0.371
41.3399 -0.003
41.3702 0.053
41.4004 1.255
41.4307 0.686
41.4610 0.482
41.4913 0.747
41.5216 0.178
41.5518 0.808
41.5821 0.239
41.6124 -0.016
41.6427 0.509
41.6730 0.254
41.7032 0.154
41.7335 1.201
41.7638 0.477
41.7941 0.326
41.8243 0.643
41.8546 0.076
41.8849 0.550
41.9152 0.347
41.9455 0.040
41.9757 0.775
42.0060 -0.157
42.0363 -0.255
42.0666 0.740
42.0969 -0.452
42.1271 -0.342
42.1574 0.077
42.1877 0.079
42.2180 0.498
42.2482 0.500
42.2785 -0.487
42.3088 0.922
42.3391 -0.065
42.3694 0.250
42.3996 -0.008
42.4299 -0.214
42.4602 0.310
42.4905 0.521
42.5208 0.160
42.5510 -0.514
42.5813 0.531
42.6116 -0.247
42.6419 0.537
42.6721 0.020
42.7024 -0.445
42.7327 0.756
42.7630 -0.021
42.7933 -0.018
42.8235 0.403
42.8538 0.511
42.8841 -0.370
42.9144 0.676
42.9447 0.523
42.9749 -0.149
43.0052 0.480
43.0355 -0.140
43.0658 -0.240
43.0960 0.181
43.1263 -0.595
43.1566 0.399
43.1869 -0.169
43.2172 0.044
43.2474 0.154
43.2777 -0.050
43.3080 0.372
43.3383 -0.195
43.3686 0.539
43.3988 -0.028
43.4291 -0.023
43.4594 -0.329
43.4897 -0.019
43.5199 -0.022
43.5502 -0.076
43.5805 -0.182
43.6108 0.076
43.6411 0.126
43.6713 0.489
43.7016 0.279
43.7319 -0.035
43.7622 -0.089
43.7925 -0.143
43.8227 0.221
43.8530 0.480
43.8833 0.166
43.9136 0.061
43.9439 0.372
43.9741 -0.879
44.0044 0.474
44.0347 -0.568
44.0650 -0.309
44.0952 -0.101
44.1255 -0.310
44.1558 -0.154
44.1861 0.262
44.2164 0.106
44.2466 0.522
44.2769 0.209
44.3072 0.418
44.3375 0.053
44.3678 -0.468
44.3980 0.001
44.4283 0.210
44.4586 -0.050
44.4889 0.159
44.5191 0.056
44.5494 0.317
44.5797 0.475
44.6100 0.215
44.6403 0.529
44.6705 0.269
44.7008 -0.094
44.7311 -0.145
44.7614 0.586
44.7917 0.431
44.8219 0.173
44.8522 0.435
44.8825 -0.084
44.9128 0.282
44.9430 0.336
44.9733 0.234
45.0036 0.549
45.0339 -0.022
45.0642 -0.072
45.0944 0.399
45.1247 0.402
45.1550 0.144
45.1853 0.355
45.2156 0.983
45.2458 0.412
45.2761 0.051
45.3064 0.314
45.3367 0.421
45.3669 0.060
45.3972 0.376
45.4275 0.327
45.4578 0.487
45.4881 -0.031
45.5183 0.233
45.5486 0.654
45.5789 -0.124
45.6092 1.130
45.6395 0.457
45.6697 0.617
45.7000 1.246
45.7303 0.677
45.7606 0.734
45.7908 -0.199
45.8211 0.274
45.8514 1.007
45.8817 0.074
45.9120 -0.337
45.9422 -0.028
45.9725 0.022
46.0028 0.957
46.0331 -0.139
46.0634 -0.037
46.0936 0.534
46.1239 0.271
46.1542 0.686
46.1845 0.371
46.2147 0.526
46.2450 0.889
46.2753 -0.207
46.3056 0.000
46.3359 0.311
46.3661 -0.263
46.3964 1.090
46.4267 0.463
46.4570 -0.006
46.4873 0.513
46.5175 0.512
46.5478 -0.061
46.5781 0.042
46.6084 -0.063
46.6386 0.457
46.6689 0.300
46.6992 -0.065
46.7295 0.248
46.7598 -0.065
46.7900 0.560
46.8203 -0.534
46.8506 0.507
46.8809 0.403
46.9112 0.768
46.9414 0.143
46.9717 -0.325
47.0020 -0.391
47.0323 0.637
47.0626 1.457
47.0928 0.193
47.1231 0.805
47.1534 1.260
47.1837 1.559
47.2139 0.036
47.2442 0.804
47.2745 0.374
47.3048 1.403
47.3351 -0.068
47.3653 0.961
47.3956 -0.198
47.4259 1.248
47.4562 0.767
47.4865 0.650
47.5167 1.471
47.5470 0.938
47.5773 0.561
47.6076 0.393
47.6378 -0.088
47.6681 0.630
47.6984 0.514
47.7287 0.606
47.7590 -0.083
47.7892 0.427
47.8195 0.728
47.8498 0.456
47.8801 0.705
47.9104 1.006
47.9406 0.110
47.9709 0.411
48.0012 -0.277
48.0315 0.806
48.0617 0.326
48.0920 0.212
48.1223 0.982
48.1526 0.451
48.1829 0.701
48.2131 0.326
48.2434 -0.309
48.2737 -0.320
48.3040 0.764
48.3343 1.066
48.3645 1.369
48.3948 0.682
48.4251 0.672
48.4554 1.340
48.4856 1.278
48.5159 0.591
48.5462 0.270
48.5765 1.250
48.6068 0.616
48.6370 0.190
48.6673 0.962
48.6976 0.328
48.7279 0.475
48.7582 1.143
48.7884 0.406
48.8187 1.699
48.8490 1.586
48.8793 1.630
48.9095 0.528
48.9398 0.936
48.9701 0.667
49.0004 0.607
49.0307 1.380
49.0609 1.633
49.0912 1.573
49.1215 0.940
49.1518 1.089
49.1821 1.654
49.2123 1.178
49.2426 1.118
49.2729 0.798
49.3032 1.832
49.3334 1.304
49.3637 1.297
49.3940 0.822
49.4243 0.398
49.4546 0.704
49.4848 0.540
49.5151 1.107
49.5454 1.829
49.5757 1.094
49.6060 1.452
49.6362 1.289
49.6665 0.606
49.6968 0.183
49.7271 1.062
49.7574 1.577
49.7876 1.415
49.8179 1.044
49.8482 1.768
49.8785 1.085
49.9087 0.507
49.9390 1.751
49.9693 1.641
49.9996 1.167
50.0299 2.308
50.0601 1.938
50.0904 2.037
50.1207 1.251
50.1510 0.986
50.1813 0.564
50.2115 1.185
50.2418 1.753
50.2721 1.384
50.3024 1.067
50.3326 1.375
50.3629 0.693
50.3932 1.210
50.4235 1.310
50.4538 1.358
50.4840 0.990
50.5143 0.725
50.5446 1.919
50.5749 1.968
50.6052 1.964
50.6354 2.273
50.6657 0.447
50.6960 1.381
50.7263 0.596
50.7565 1.843
50.7868 2.569
50.8171 1.108
50.8474 1.157
50.8777 2.196
50.9079 1.464
50.9382 0.940
50.9685 1.875
50.9988 0.987
51.0291 0.776
51.0593 0.670
51.0896 2.022
51.1199 1.655
51.1502 0.820
51.1804 1.599
51.2107 1.753
51.2410 0.970
51.2713 1.958
51.3016 1.487
51.3318 1.955
51.3621 1.849
51.3924 1.379
51.4227 1.794
51.4530 1.116
51.4832 0.386
51.5135 1.166
51.5438 1.321
51.5741 2.101
51.6043 0.434
51.6346 0.954
51.6649 1.943
51.6952 1.630
51.7255 1.629
51.7557 1.264
51.7860 1.056
51.8163 1.003
51.8466 0.170
51.8769 0.587
51.9071 0.587
51.9374 1.212
51.9677 0.952
51.9980 0.900
52.0282 0.900
52.0585 1.838
52.0888 -0.349
52.1191 0.277
52.1494 0.798
52.1796 0.174
52.2099 0.748
52.2402 0.020
52.2705 0.125
52.3008 1.376
52.3310 0.492
52.3613 0.441
52.3916 0.130
52.4219 0.704
52.4521 0.029
52.4824 1.124
52.5127 -0.072
52.5430 0.034
52.5733 -0.276
52.6035 0.611
52.6338 0.665
52.6641 0.719
52.6944 0.461
52.7247 -0.109
52.7549 0.466
52.7852 0.573
52.8155 0.679
52.8458 0.474
52.8761 0.164
52.9063 -0.041
52.9366 1.264
52.9669 0.485
52.9972 0.280
53.0274 1.325
53.0577 0.599
53.0880 0.342
53.1183 0.398
53.1486 0.349
53.1788 1.238
53.2091 -0.060
53.2394 -0.109
53.2697 0.208
53.3000 -0.309
53.3302 0.580
53.3605 0.064
53.3908 1.162
53.4211 -0.292
53.4513 0.129
53.4816 0.394
53.5119 1.127
53.5422 0.090
53.5725 0.772
53.6027 0.308
53.6330 0.053
53.6633 0.058
53.6936 0.844
53.7239 0.537
53.7541 1.271
53.7844 0.755
53.8147 0.552
53.8450 0.506
53.8752 -0.218
53.9055 0.205
53.9358 -0.363
53.9661 0.372
53.9964 0.587
54.0266 0.332
54.0569 -0.026
54.0872 0.605
54.1175 -0.118
54.1478 0.826
54.1780 -0.001
54.2083 0.162
54.2386 0.793
54.2689 -0.242
54.2991 0.182
54.3294 -0.072
54.3597 0.821
54.3900 -0.006
54.4203 0.522
54.4505 0.113
54.4808 -0.192
54.5111 0.232
54.5414 -0.125
54.5717 0.038
54.6019 0.046
54.6322 0.158
54.6625 0.582
54.6928 -0.035
54.7230 0.598
54.7533 0.085
54.7836 -0.063
54.8139 -0.055
54.8442 0.579
54.8744 1.420
54.9047 0.335
54.9350 -0.594
54.9653 0.092
54.9956 0.569
55.0258 0.943
55.0561 0.483
55.0864 0.023
55.1167 0.970
55.1469 0.198
55.1772 0.259
55.2075 1.050
55.2378 0.278
55.2681 0.600
55.2983 1.234
55.3286 0.827
55.3589 0.577
55.3892 0.899
55.4195 0.753
55.4497 1.023
55.4800 1.033
55.5103 1.616
55.5406 1.679
55.5709 0.595
55.6011 1.595
55.6314 0.408
55.6617 0.939
55.6920 0.690
55.7222 0.805
55.7525 1.336
55.7828 1.451
55.8131 1.410
55.8434 1.005
55.8736 1.381
55.9039 1.548
55.9342 1.455
55.9645 0.061
55.9948 0.905
56.0250 0.813
56.0553 0.460
56.0856 0.889
56.1159 0.432
56.1461 1.069
56.1764 0.143
56.2067 1.457
56.2370 -0.353
56.2673 0.440
56.2975 1.130
56.3278 -0.160
56.3581 0.374
56.3884 0.126
56.4187 1.024
56.4489 0.464
56.4792 0.321
56.5095 -0.239
56.5398 0.503
56.5700 0.308
56.6003 0.321
56.6306 -0.239
56.6609 -0.329
56.6912 -0.015
56.7214 0.090
56.7517 0.144
56.7820 0.667
56.8123 0.044
56.8426 0.254
56.8728 0.517
56.9031 0.519
56.9334 0.677
56.9637 0.054
56.9939 0.526
57.0242 -0.305
57.0545 0.062
57.0848 0.638
57.1151 -0.245
57.1453 0.226
57.1756 -0.083
57.2059 -0.080
57.2362 -0.390
57.2665 0.125
57.2967 0.847
57.3270 0.008
57.3573 -0.155
57.3876 -0.109
57.4178 0.510
57.4481 -0.121
57.4784 0.706
57.5087 0.284
57.5390 -0.243
57.5692 0.272
57.5995 0.163
57.6298 -0.207
57.6601 0.100
57.6904 -0.166
57.7206 -0.328
57.7509 0.605
57.7812 0.339
57.8115 -0.239
57.8417 -0.452
57.8720 0.324
57.9023 -0.045
57.9326 -0.258
57.9629 0.154
57.9931 -0.111
58.0234 0.093
58.0537 0.870
58.0840 0.085
58.1143 -0.024
58.1445 0.389
58.1748 -0.344
58.2051 0.329
58.2354 0.429
58.2656 0.009
58.2959 0.162
58.3262 -0.102
58.3565 0.780
58.3868 0.568
58.4170 0.773
58.4473 0.978
58.4776 0.402
58.5079 0.868
58.5382 0.708
58.5684 0.758
58.5987 0.494
58.6290 0.961
58.6593 0.854
58.6896 0.851
58.7198 -0.297
58.7501 -0.299
58.7804 0.011
58.8107 0.529
58.8409 -0.046
58.8712 -0.360
58.9015 1.200
58.9318 -0.103
58.9621 0.989
58.9923 -0.107
59.0226 0.517
59.0529 0.255
59.0832 0.566
59.1135 0.877
59.1437 0.771
59.1740 0.979
59.2043 0.248
59.2346 0.664
59.2648 0.142
59.2951 0.662
59.3254 1.026
59.3557 0.140
59.3860 0.765
59.4162 0.504
59.4465 0.347
59.4768 -0.122
59.5071 0.346
59.5374 0.294
59.5676 1.440
59.5979 0.450
59.6282 -0.070
59.6585 -0.122
59.6887 0.503
59.7190 0.399
59.7493 0.608
59.7796 1.129
59.8099 0.193
59.8401 0.506
59.8704 0.350
59.9007 0.455
59.9310 0.508
59.9613 0.718
59.9915 0.198
60.0218 0.408
60.0521 0.201
60.0824 0.410
60.1126 0.516
60.1429 0.466
60.1732 0.415
60.2035 0.573
60.2338 0.419
60.2640 0.368
60.2943 0.839
60.3246 0.320
60.3549 0.218
60.3852 0.377
60.4154 1.004
60.4457 0.069
60.4760 0.436
60.5063 0.543
60.5365 -0.079
60.5668 0.913
60.5971 0.603
60.6274 0.190
60.6577 0.766
60.6879 0.144
60.7182 0.563
60.7485 0.098
60.7788 -0.003
60.8091 0.105
60.8393 0.317
60.8696 0.112
60.8999 -0.249
60.9302 0.067
60.9604 -0.137
60.9907 0.336
61.0210 -0.025
61.0513 0.344
61.0816 0.348
61.1118 0.248
61.1421 -0.320
61.1724 -0.056
61.2027 -0.416
61.2330 0.104
61.2632 0.311
61.2935 0.674
61.3238 -0.578
61.3541 0.150
61.3844 0.722
61.4146 0.148
61.4449 -0.582
61.4752 0.146
61.5055 0.458
61.5357 0.353
61.5660 -0.533
61.5963 0.352
61.6266 0.300
61.6569 1.133
61.6871 0.299
61.7174 0.559
61.7477 0.038
61.7780 0.090
61.8083 0.507
61.8385 0.455
61.8688 0.091
61.8991 0.716
61.9294 0.352
61.9596 0.144
61.9899 0.457
62.0202 0.093
62.0505 0.459
62.0808 0.720
62.1110 0.773
62.1413 0.253
62.1716 1.192
62.2019 0.933
62.2322 0.101
62.2624 0.362
62.2927 0.051
62.3230 1.095
62.3533 0.627
62.3835 0.681
62.4138 0.475
62.4441 0.737
62.4744 0.478
62.5047 0.741
62.5349 1.264
62.5652 0.537
62.5955 0.956
62.6258 1.219
62.6561 0.857
62.6863 0.494
62.7166 1.070
62.7469 0.344
62.7772 0.867
62.8074 0.453
62.8377 0.821
62.8680 0.928
62.8983 0.983
62.9286 0.466
62.9588 0.625
62.9891 0.993
63.0194 1.570
63.0497 0.792
63.0800 0.692
63.1102 1.164
63.1405 0.803
63.1708 0.182
63.2011 0.551
63.2313 1.232
63.2616 0.924
63.2919 1.032
63.3222 0.620
63.3525 0.728
63.3827 0.941
63.4130 1.154
63.4433 1.055
63.4736 0.695
63.5039 0.960
63.5341 1.225
63.5644 0.918
63.5947 0.819
63.6250 0.824
63.6552 -0.108
63.6855 0.731
63.7158 -0.201
63.7461 0.742
63.7764 1.216
63.8066 0.909
63.8369 1.227
63.8672 0.192
63.8975 0.927
63.9278 0.933
63.9580 0.679
63.9883 0.737
64.0186 1.108
64.0489 1.114
64.0791 1.485
64.1094 1.492
64.1397 0.613
64.1700 0.828
64.2003 0.679
64.2305 1.102
64.2608 1.526
64.2911 0.387
64.3214 0.550
64.3517 0.454
64.3819 1.138
64.4122 1.093
64.4425 0.684
64.4728 1.108
64.5031 1.064
64.5333 0.759
64.5636 0.559
64.5939 1.140
64.6242 0.991
64.6544 0.947
64.6847 0.799
64.7150 0.703
64.7453 1.128
64.7756 1.501
64.8058 -0.105
64.8361 0.373
64.8664 0.642
64.8967 0.650
64.9270 1.493
64.9572 0.825
64.9875 0.209
65.0178 0.634
65.0481 0.435
65.0783 0.705
65.1086 0.662
65.1389 0.828
65.1692 0.473
65.1995 0.743
65.2297 0.128
65.2600 0.346
65.2903 0.199
65.3206 0.678
65.3509 0.636
65.3811 0.438
65.4114 0.500
65.4417 0.042
65.4720 0.156
65.5022 0.636
65.5325 0.594
65.5628 0.032
65.5931 -0.010
65.6234 -0.415
65.6536 0.055
65.6839 0.108
65.7142 -0.150
65.7445 0.633
65.7748 0.114
65.8050 0.324
65.8353 -0.039
65.8656 -0.297
65.8959 0.122
65.9261 0.437
65.9564 0.804
65.9867 -0.288
66.0170 0.340
66.0473 -0.387
66.0775 0.189
66.1078 0.400
66.1381 0.247
66.1684 -0.115
66.1987 -0.112
66.2289 0.256
66.2592 0.624
66.2895 0.314
66.3198 0.214
66.3500 0.530
66.3803 0.377
66.4106 0.433
66.4409 0.593
66.4712 -0.081
66.5014 0.444
66.5317 1.177
66.5620 0.192
66.5923 -0.273
66.6226 0.044
66.6528 0.465
66.6831 0.157
66.7134 0.369
66.7437 0.843
66.7739 0.483
66.8042 0.123
66.8345 0.076
66.8648 -0.128
66.8951 0.034
66.9253 0.195
66.9556 0.252
66.9859 0.049
67.0162 0.054
67.0465 0.216
67.0767 0.222
67.1070 0.123
67.1373 -0.548
67.1676 0.603
67.1978 0.140
67.2281 0.511
67.2584 -0.056
67.2887 0.523
67.3190 -0.461
67.3492 -0.038
67.3795 -0.083
67.4098 -0.285
67.4401 0.126
67.4704 -0.087
67.5006 0.585
67.5309 0.320
67.5612 -0.101
67.5915 0.050
67.6218 0.515
67.6520 0.198
67.6823 0.245
67.7126 0.189
67.7429 0.185
67.7731 0.337
67.8034 -0.344
67.8337 0.069
67.8640 0.221
67.8943 -0.356
67.9245 0.526
67.9548 -0.467
67.9851 0.154
68.0154 0.151
68.0457 0.460
68.0759 -0.377
68.1062 0.193
68.1365 -0.279
68.1668 -0.021
68.1970 0.497
68.2273 0.181
68.2576 0.595
68.2879 0.280
68.3182 0.017
68.3484 0.640
68.3787 0.116
68.4090 -0.198
68.4393 0.268
68.4696 0.110
68.4998 0.628
68.5301 0.731
68.5604 0.208
68.5907 0.467
68.6209 0.413
68.6512 0.307
68.6815 0.514
68.7118 -0.269
68.7421 0.198
68.7723 0.041
68.8026 -0.169
68.8329 0.195
68.8632 -0.275
68.8935 0.557
68.9237 0.452
68.9540 -0.434
68.9843 0.555
69.0146 0.086
69.0448 -0.019
69.0751 0.345
69.1054 0.084
69.1357 0.032
69.1660 0.761
69.1962 0.657
69.2265 -0.333
69.2568 0.084
69.2871 0.084
69.3174 0.553
69.3476 -0.332
69.3779 0.137
69.4082 0.502
69.4385 0.086
69.4687 0.503
69.4990 0.452
69.5293 0.505
69.5596 0.193
69.5899 0.611
69.6201 0.768
69.6504 0.144
69.6807 0.302
69.7110 0.043
69.7413 -0.060
69.7715 -0.110
69.8018 0.256
69.8321 0.205
69.8624 -0.001
69.8926 0.886
69.9229 -0.050
69.9532 0.577
69.9835 0.215
70.0138 0.009
70.0440 -0.301
70.0743 0.482
70.1046 0.485
70.1349 0.175
70.1652 -0.187
70.1954 0.024
70.2257 -0.338
70.2560 0.498
70.2863 0.345
70.3166 -0.069
70.3468 -0.066
70.3771 -0.271
70.4074 -0.168
70.4377 0.091
70.4679 0.194
70.4982 0.140
70.5285 -0.121
70.5588 0.346
70.5891 0.137
70.6193 0.396
70.6496 -0.177
70.6799 0.343
70.7102 -0.023
70.7405 0.081
70.7707 0.080
70.8010 0.236
70.8313 -0.129
70.8616 -0.025
70.8918 -0.338
70.9221 0.339
70.9524 1.069
70.9827 0.183
71.0130 -0.025
71.0432 -0.650
71.0735 0.078
71.1038 -0.028
71.1341 0.180
71.1644 -0.134
71.1946 -0.187
71.2249 0.333
71.2552 0.176
71.2855 -0.398
71.3157 0.330
71.3460 -0.087
71.3763 0.069
71.4066 -0.140
71.4369 0.172
71.4671 0.328
71.4974 0.119
71.5277 -0.454
71.5580 0.119
71.5883 0.067
71.6185 0.276
71.6488 -0.505
71.6791 -0.193
71.7094 0.120
71.7396 0.590
71.7699 -0.191
71.8002 0.122
71.8305 0.175
71.8608 0.071
71.8910 0.072
71.9213 0.021
71.9516 0.074
71.9819 0.388
72.0122 0.337
72.0424 -0.026
72.0727 -0.025
72.1030 0.237
72.1333 0.395
72.1635 0.084
72.1938 -0.278
72.2241 0.244
72.2544 0.194
72.2847 -0.221
72.3149 0.042
72.3452 -0.008
72.3755 -0.006
72.4058 0.101
72.4361 0.051
72.4663 -0.103
72.4966 0.160
72.5269 -0.358
72.5572 0.166
72.5874 0.377
72.6177 -0.401
72.6480 -0.034
72.6783 0.595
72.7086 0.233
72.7388 0.080
72.7691 0.031
72.7994 -0.121
72.8297 0.038
72.8600 -0.375
72.8902 0.098
72.9205 -0.002
72.9508 -0.155
72.9811 0.422
73.0113 0.426
73.0416 1.055
73.0719 0.330
73.1022 -0.030
73.1325 0.027
73.1627 0.135
73.1930 0.504
73.2233 -0.272
73.2536 -0.163
73.2839 -0.159
73.3141 -0.049
73.3444 0.268
73.3747 0.169
73.4050 0.382
73.4353 0.231
73.4655 0.185
73.4958 0.190
73.5261 0.352
73.5564 0.201
73.5866 -0.106
73.6169 0.108
73.6472 0.218
73.6775 -0.244
73.7078 0.230
73.7380 0.601
73.7683 -0.070
73.7986 0.145
73.8289 -0.161
73.8592 -0.415
73.8894 0.206
73.9197 0.723
73.9500 0.146
73.9803 0.246
74.0105 0.972
74.0408 0.343
74.0711 0.600
74.1014 0.076
74.1317 -0.084
74.1619 0.434
74.1922 0.899
74.2225 0.688
74.2528 0.008
74.2831 0.369
74.3133 0.366
74.3436 0.364
74.3739 0.257
74.4042 0.098
74.4344 0.408
74.4647 0.353
74.4950 0.299
74.5253 0.609
74.5556 0.607
74.5858 0.397
74.6161 -0.022
74.6464 -0.076
74.6767 0.339
74.7070 0.337
74.7372 0.231
74.7675 1.271
74.7978 0.332
74.8281 -0.086
74.8583 0.903
74.8886 0.433
74.9189 1.109
74.9492 1.160
74.9795 0.169
75.0097 0.324
75.0400 0.636
75.0703 0.479
75.1006 0.583
75.1309 0.530
75.1611 -0.616
75.1914 0.633
75.2217 0.164
75.2520 0.373
75.2822 0.789
75.3125 0.164
75.3428 0.268
75.3731 0.477
75.4034 -0.096
75.4336 -0.044
75.4639 0.374
75.4942 0.322
75.5245 0.687
75.5548 0.167
75.5850 0.011
75.6153 0.012
75.6456 0.326
75.6759 0.170
75.7061 0.380
75.7364 0.329
75.7667 0.070
75.7970 0.279
75.8273 0.385
75.8575 0.126
75.8878 0.440
75.9181 0.338
75.9484 0.496
75.9787 0.393
76.0089 -0.074
76.0392 0.449
76.0695 0.139
76.0998 -0.380
76.1301 0.560
76.1603 0.250
76.1906 0.461
76.2209 0.099
76.2512 -0.263
76.2814 0.156
76.3117 -0.310
76.3420 0.370
76.3723 -0.096
76.4026 0.272
76.4328 -0.038
76.4631 0.278
76.4934 0.177
76.5237 0.181
76.5540 -0.233
76.5842 -0.125
76.6145 0.973
76.6448 -0.013
76.6751 0.199
76.7053 0.359
76.7356 0.207
76.7659 0.107
76.7962 0.371
76.8265 0.427
76.8567 -0.349
76.8870 0.280
76.9173 0.493
76.9476 -0.024
76.9779 -0.019
77.0081 0.663
77.0384 -0.166
77.0687 0.673
77.0990 0.313
77.1292 0.579
77.1595 -0.041
77.1898 -0.244
77.2201 -0.194
77.2504 -0.196
77.2806 0.636
77.3109 0.217
77.3412 0.060
77.3715 -0.307
77.4018 0.473
77.4320 -0.153
77.4623 -0.467
77.4926 0.261
77.5229 0.260
77.5531 -0.105
77.5834 -0.106
77.6137 -0.211
77.6440 0.517
77.6743 -0.212
77.7045 0.464
77.7348 -0.057
77.7651 0.047
77.7954 0.046
77.8257 -0.058
77.8559 -0.006
77.8862 -0.006
77.9165 -0.214
77.9468 0.411
77.9770 0.099
78.0073 -0.005
78.0376 0.203
78.0679 -0.004
78.0982 -0.160
78.1284 0.257
78.1587 -0.002
78.1890 -0.210
78.2193 0.208
78.2496 0.209
78.2798 -0.311
78.3101 -0.154
78.3404 0.264
78.3707 0.057
78.4009 0.267
78.4312 -0.201
78.4615 -0.564
78.4918 0.688
78.5221 -0.040
78.5523 -0.299
78.5826 0.224
78.6129 0.695
78.6432 0.124
78.6735 0.334
78.7037 0.128
78.7340 -0.443
78.7643 0.862
78.7946 0.500
78.8248 0.138
78.8551 0.036
78.8854 0.091
78.9157 0.562
78.9460 0.044
78.9762 0.256
79.0065 -0.366
79.0368 0.053
79.0671 0.057
79.0974 -0.044
79.1276 0.324
79.1579 0.275
79.1882 0.122
79.2185 -0.239
79.2488 -0.190
79.2790 -0.089
79.3093 -0.404
79.3396 0.427
79.3699 0.268
79.4001 -0.152
79.4304 0.366
79.4607 -0.157
79.4910 0.414
79.5213 -0.005
79.5515 0.722
79.5818 0.719
79.6121 0.092
79.6424 0.247
79.6727 0.297
79.7029 0.295
79.7332 -0.123
79.7635 -0.021
79.7938 0.342
79.8240 0.601
79.8543 -0.129
79.8846 -0.131
79.9149 -0.445
79.9452 0.440
79.9754 0.439
80.0057 0.386
80.0360 0.333
80.0663 -0.137
80.0966 -0.085
80.1268 0.383
80.1571 0.018
80.1874 0.225
80.2177 -0.087
80.2479 0.485
80.2782 0.381
80.3085 0.068
80.3388 -0.244
80.3691 -0.037
80.3993 0.275
80.4296 0.742
80.4599 0.065
80.4902 0.429
80.5205 0.584
80.5507 0.271
80.5810 -0.302
80.6113 -0.042
80.6416 0.270
80.6718 0.374
80.7021 0.166
80.7324 0.426
80.7627 0.374
80.7930 -0.094
80.8232 0.531
80.8535 -0.146
80.8838 0.219
80.9141 0.688
80.9444 0.012
80.9746 0.221
81.0049 0.274
81.0352 -0.194
81.0655 -0.037
81.0957 -0.244
81.1260 -0.040
81.1563 0.268
81.1866 -0.048
81.2169 0.156
81.2471 0.257
81.2774 0.044
81.3077 0.041
81.3380 0.193
81.3683 0.242
81.3985 0.291
81.4288 0.027
81.4591 0.180
81.4894 0.073
81.5196 0.122
81.5499 0.796
81.5802 0.272
81.6105 0.217
81.6408 0.162
81.6710 0.368
81.7013 0.001
81.7316 0.467
81.7619 0.100
81.7922 0.515
81.8224 -0.061
81.8527 0.406
81.8830 0.039
81.9133 0.037
81.9436 0.296
81.9738 0.086
82.0041 0.345
82.0344 0.343
82.0647 0.185
82.0949 0.236
82.1252 0.599
82.1555 0.337
82.1858 0.128
82.2161 -0.290
82.2463 0.230
82.2766 0.385
82.3069 0.436
82.3372 0.175
82.3675 0.175
82.3977 0.330
82.4280 0.694
82.4583 0.017
82.4886 -0.140
82.5188 0.068
82.5491 0.328
82.5794 0.224
82.6097 0.537
82.6400 0.172
82.6702 0.277
82.7005 0.173
82.7308 0.173
82.7611 0.121
82.7914 -0.139
82.8216 0.331
82.8519 0.279
82.8822 0.176
82.9125 0.281
82.9427 0.386
82.9730 0.283
83.0033 0.388
83.0336 0.546
83.0639 0.078
83.0941 -0.025
83.1244 0.498
83.1547 -0.282
83.1850 -0.228
83.2153 -0.122
83.2455 -0.121
83.2758 0.194
83.3061 0.039
83.3364 0.146
83.3666 0.356
83.3969 0.202
83.4272 -0.004
83.4575 -0.106
83.4878 0.001
83.5180 -0.101
83.5483 -0.098
83.5786 -0.356
83.6089 0.324
83.6392 0.379
83.6694 0.017
83.6997 0.073
83.7300 0.492
83.7603 -0.129
83.7905 -0.230
83.8208 0.086
83.8511 0.246
83.8814 0.041
83.9117 -0.164
83.9419 0.257
83.9722 0.104
84.0025 0.056
84.0328 0.581
84.0631 -0.353
84.0933 -0.244
84.1236 0.069
84.1539 0.070
84.1842 -0.242
84.2144 -0.189
84.2447 -0.032
84.2750 0.126
84.3053 0.075
84.3356 -0.028
84.3658 0.182
84.3961 0.183
84.4264 0.393
84.4567 -0.074
84.4870 -0.020
84.5172 0.242
84.5475 0.035
84.5778 -0.067
84.6081 -0.169
84.6383 0.250
84.6686 0.721
84.6989 -0.110
84.7292 -0.108
84.7595 0.207
84.7897 -0.311
84.8200 -0.155
84.8503 0.313
84.8806 0.677
84.9109 0.312
84.9411 -0.001
84.9714 -0.001
85.0017 -0.001
85.0320 -0.001
85.0623 0.156
85.0925 0.208
85.1228 0.260
85.1531 0.208
85.1834 0.105
85.2136 -0.103
85.2439 0.262
85.2742 -0.102
85.3045 0.680
85.3348 0.317
85.3650 -0.412
85.3953 0.214
85.4256 0.320
85.4559 0.008
85.4862 -0.042
85.5164 0.219
85.5467 -0.248
85.5770 0.327
85.6073 0.068
85.6375 0.278
85.6678 0.019
85.6981 0.125
85.7284 0.440
85.7587 0.129
85.7889 -0.389
85.8192 -0.080
85.8495 0.125
85.8798 0.642
85.9101 0.171
85.9403 -0.197
85.9706 0.164
86.0009 0.162
86.0312 0.523
86.0614 0.521
86.0917 0.674
86.1220 0.776
86.1523 0.357
86.1826 0.146
86.2128 0.248
86.2431 0.558
86.2734 0.243
86.3037 0.293
86.3340 0.708
86.3642 -0.023
86.3945 0.132
86.4248 0.286
86.4551 -0.288
86.4853 0.387
86.5156 0.073
86.5459 0.384
86.5762 0.071
86.6065 -0.087
86.6367 -0.244
86.6670 0.118
86.6973 -0.092
86.7276 0.218
86.7579 -0.096
86.7881 0.163
86.8184 0.057
86.8487 0.212
86.8790 0.262
86.9092 0.625
86.9395 -0.053
86.9698 0.258
87.0001 0.153
87.0304 -0.004
87.0606 0.255
87.0909 0.254
87.1212 -0.215
87.1515 -0.216
87.1818 -0.217
87.2120 0.460
87.2423 -0.009
87.2726 0.146
87.3029 0.198
87.3331 0.198
87.3634 0.719
87.3937 0.042
87.4240 0.198
87.4543 0.198
87.4845 0.198
87.5148 -0.270
87.5451 0.459
87.5754 0.303
87.6057 0.148
87.6359 -0.216
87.6662 -0.007
87.6965 -0.215
87.7268 -0.110
87.7571 0.256
87.7873 0.101
87.8176 -0.106
87.8479 0.155
87.8782 -0.312
87.9084 0.106
87.9387 0.107
87.9690 0.369
87.9993 0.059
88.0296 -0.096
88.0598 0.375
88.0901 -0.196
88.1204 0.066
88.1507 -0.192
88.1810 0.279
88.2112 -0.032
88.2415 0.283
88.2718 0.025
88.3021 -0.181
88.3323 0.239
88.3626 0.293
88.3929 0.400
88.4232 0.351
88.4535 0.615
88.4837 0.149
88.5140 0.412
88.5443 0.416
88.5746 0.315
88.6049 0.266
88.6351 0.061
88.6654 -0.352
88.6957 0.902
88.7260 0.176
88.7562 0.076
88.7865 -0.598
88.8168 -0.021
88.8471 0.190
88.8774 0.350
88.9076 -0.063
88.9379 0.358
88.9682 0.153
88.9985 0.261
89.0288 0.265
89.0590 0.217
89.0893 0.117
89.1196 -0.035
89.1499 0.490
89.1801 -0.079
89.2104 0.186
89.2407 0.087
89.2710 0.143
89.3013 -0.164
89.3315 0.101
89.3618 -0.259
89.3921 -0.054
89.4224 -0.057
89.4527 0.409
89.4829 0.146
89.5132 0.143
89.5435 -0.120
89.5738 -0.018
89.6040 -0.073
89.6343 0.185
89.6646 -0.182
89.6949 0.858
89.7252 -0.446
89.7554 0.437
89.7857 -0.086
89.8160 -0.192
89.8463 0.588
89.8766 -0.351
89.9068 0.324
89.9371 -0.146
89.9674 0.061
89.9977 0.164
90.0279 -0.098
90.0582 0.474
90.0885 -0.048
90.1188 -0.101
90.1491 -0.102
90.1793 0.522
90.2096 0.000
90.2399 0.000
90.2702 -0.053
90.3005 0.519
90.3307 0.206
90.3610 0.102
90.3913 -0.367
90.4216 0.049
90.4518 0.049
90.4821 0.153
90.5124 0.154
90.5427 0.102
90.5730 0.258
90.6032 0.050
90.6335 0.259
90.6638 -0.209
90.6941 0.312
90.7244 0.261
90.7546 0.157
90.7849 -0.363
90.8152 0.055
90.8455 -0.100
90.8758 0.057
90.9060 0.215
90.9363 0.424
90.9666 0.217
90.9969 -0.094
91.0271 0.220
91.0574 0.222
91.0877 0.380
91.1180 0.121
91.1483 0.384
91.1785 -0.031
91.2088 0.648
91.2391 -0.027
91.2694 -0.233
91.2997 -0.079
91.3299 0.282
91.3602 0.072
91.3905 0.329
91.4208 0.014
91.4510 0.168
91.4813 0.114
91.5116 0.060
91.5419 0.370
91.5722 0.316
91.6024 0.002
91.6327 -0.104
91.6630 0.311
91.6933 0.361
91.7236 0.776
91.7538 0.254
91.7841 -0.581
91.8144 0.251
91.8447 0.354
91.8749 -0.168
91.9052 -0.065
91.9355 0.142
91.9658 0.246
91.9961 0.037
92.0263 0.244
92.0566 -0.069
92.0869 0.191
92.1172 0.243
92.1475 -0.018
92.1777 -0.123
92.2080 -0.331
92.2383 0.346
92.2686 -0.123
92.2988 0.189
92.3291 0.242
92.3594 0.242
92.3897 0.034
92.4200 0.347
92.4502 -0.017
92.4805 0.869
92.5108 0.192
92.5411 -0.224
92.5714 0.298
92.6016 -0.118
92.6319 0.404
92.6622 -0.012
92.6925 -0.219
92.7227 -0.061
92.7530 0.148
92.7833 0.358
92.8136 0.047
92.8439 0.309
92.8741 0.571
92.9044 0.156
92.9347 0.106
92.9650 0.577
92.9953 0.370
93.0255 0.320
93.0558 1.052
93.0861 0.481
93.1164 -0.038
93.1466 -0.087
93.1769 0.176
93.2072 -0.447
93.2375 -0.079
93.2678 -0.233
93.2980 0.132
93.3283 0.288
93.3586 0.028
93.3889 0.132
93.4192 0.133
93.4494 0.341
93.4797 0.030
93.5100 0.447
93.5403 0.500
93.5706 0.188
93.6008 -0.124
93.6311 0.190
93.6614 0.191
93.6917 0.452
93.7219 0.245
93.7522 -0.066
93.7825 -0.065
93.8128 0.249
93.8431 -0.061
93.8733 -0.008
93.9036 -0.006
93.9339 -0.108
93.9642 0.466
93.9945 0.260
94.0247 0.158
94.0550 0.212
94.0853 0.475
94.1156 0.165
94.1458 0.011
94.1761 -0.143
94.2064 0.537
94.2367 0.227
94.2670 0.074
94.2972 0.129
94.3275 0.496
94.3578 0.187
94.3881 -0.227
94.4184 -0.177
94.4486 0.238
94.4789 0.185
94.5092 -0.077
94.5395 0.598
94.5697 0.389
94.6000 -0.081
94.6303 -0.187
94.6606 0.385
94.6909 0.436
94.7211 0.175
94.7514 0.174
94.7817 0.173
94.8120 0.485
94.8423 0.380
94.8725 0.015
94.9028 0.379
94.9331 0.014
94.9634 0.431
94.9936 0.379
95.0239 0.066
95.0542 -0.090
95.0845 0.014
95.1148 -0.298
95.1450 0.119
95.1753 -0.194
95.2056 -0.089
95.2359 0.432
95.2662 0.225
95.2964 0.121
95.3267 -0.138
95.3570 -0.033
95.3873 0.020
95.4175 0.073
95.4478 0.022
95.4781 -0.602
95.5084 0.180
95.5387 0.026
95.5689 0.079
95.5992 -0.076
95.6295 0.082
95.6598 0.032
95.6901 0.346
95.7203 0.036
95.7506 0.194
95.7809 0.248
95.8112 0.094
95.8414 -0.008
95.8717 0.463
95.9020 -0.003
95.9323 -0.053
95.9626 0.470
95.9928 0.473
96.0231 0.528
96.0534 0.114
96.0837 0.065
96.1140 -0.036
96.1442 0.279
96.1745 -0.134
96.2048 -0.079
96.2351 -0.023
96.2653 0.136
96.2956 0.140
96.3259 0.300
96.3562 -0.113
96.3865 0.203
96.4167 0.311
96.4470 0.575
96.4773 0.267
96.5076 0.531
96.5379 0.171
96.5681 0.748
96.5984 -0.133
96.6287 -0.337
96.6590 0.180
96.6893 0.176
96.7195 0.172
96.7498 0.064
96.7801 -0.200
96.8104 0.578
96.8406 0.002
96.8709 0.206
96.9012 0.099
96.9315 0.565
96.9618 0.093
96.9920 0.037
97.0223 -0.278
97.0526 0.292
97.0829 0.081
97.1132 0.182
97.1434 0.180
97.1737 0.334
97.2040 0.539
97.2343 0.172
97.2645 -0.142
97.2948 0.637
97.3251 0.322
97.3554 -0.097
97.3857 0.006
97.4159 0.264
97.4462 0.262
97.4765 0.417
97.5068 0.832
97.5371 0.414
97.5673 0.673
97.5976 0.411
97.6279 0.202
97.6582 0.357
97.6884 0.564
97.7187 0.250
97.7490 -0.219
97.7793 0.197
97.8096 0.144
97.8398 0.143
97.8701 0.403
97.9004 0.298
97.9307 0.246
97.9610 0.037
97.9912 0.193
98.0215 0.141
98.0518 0.037
98.0821 -0.432
98.1123 0.193
98.1426 -0.067
98.1729 0.194
98.2032 0.298
98.2335 -0.066
98.2637 0.507
98.2940 -0.430
98.3243 -0.012
98.3546 0.197
98.3849 -0.063
98.4151 0.303
98.4454 -0.113
98.4757 0.618
98.5060 0.411
98.5362 0.151
98.5665 0.361
98.5968 -0.054
98.6271 0.208
98.6574 0.366
98.6876 0.107
98.7179 0.421
98.7482 0.527
98.7785 0.529
98.8088 0.115
98.8390 -0.039
98.8693 0.432
98.8996 0.174
98.9299 0.280
98.9601 0.335
98.9904 -0.079
99.0207 -0.233
99.0510 0.130
99.0813 0.598
99.1115 -0.497
99.1418 0.595
99.1721 0.334
99.2024 0.124
99.2327 0.227
99.2629 0.643
99.2932 0.642
99.3235 -0.087
99.3538 0.381
99.3841 0.172
99.4143 0.119
99.4446 0.431
99.4749 0.171
99.5052 0.327
99.5354 0.327
99.5657 0.118
99.5960 0.483
99.6263 0.223
99.6566 0.223
99.6868 -0.193
99.7171 0.015
99.7474 0.328
99.7777 0.069
99.8080 -0.243
99.8382 0.018
99.8685 -0.294
99.8988 0.228
99.9291 0.229
99.9593 0.126
99.9896 0.596
100.0199 -0.392
100.0502 0.234
100.0805 0.600
100.1107 -0.180
100.1410 -0.074
100.1713 0.136
100.2016 -0.123
100.2319 0.140
100.2621 0.558
100.2924 -0.117
100.3227 0.146
100.3530 0.356
100.3832 0.307
100.4135 -0.004
100.4438 0.259
100.4741 0.314
100.5044 0.421
100.5346 0.319
100.5649 0.478
100.5952 -0.092
100.6255 -0.141
100.6558 0.279
100.6860 -0.083
100.7163 -0.079
100.7466 0.341
100.7769 0.188
100.8071 0.139
100.8374 0.611
100.8677 0.251
100.8980 0.202
100.9283 0.154
100.9585 -0.259
100.9888 -0.102
101.0191 0.368
101.0494 0.369
101.0797 0.527
101.1099 0.320
101.1402 0.373
101.1705 0.062
101.2008 0.637
101.2310 0.587
101.2613 0.536
101.2916 0.538
101.3219 0.175
101.3522 -0.031
101.3824 0.127
101.4127 -0.079
101.4430 0.236
101.4733 0.551
101.5036 0.189
101.5338 -0.069
101.5641 0.298
101.5944 -0.272
101.6247 -0.165
101.6549 0.254
101.6852 -0.003
101.7155 -0.208
101.7458 -0.055
101.7761 0.254
101.8063 0.303
101.8366 -0.274
101.8669 -0.068
101.8972 0.241
101.9275 -0.022
101.9577 0.079
101.9880 0.285
102.0183 0.282
102.0486 0.071
102.0788 0.225
102.1091 0.587
102.1394 0.168
102.1697 0.218
102.2000 0.268
102.2302 0.266
102.2605 0.368
102.2908 -0.050
102.3211 -0.260
102.3514 0.467
102.3816 -0.055
102.4119 0.099
102.4422 0.254
102.4725 0.097
102.5028 0.043
102.5330 0.355
102.5633 -0.428
102.5936 0.248
102.6239 0.195
102.6541 0.194
102.6844 0.454
102.7147 -0.015
102.7450 -0.016
102.7753 0.140
102.8055 -0.017
102.8358 0.451
102.8661 0.243
102.8964 0.034
102.9267 0.138
102.9569 0.138
102.9872 0.607
103.0175 0.087
103.0478 -0.069
103.0780 0.243
103.1083 0.244
103.1386 -0.068
103.1689 -0.432
103.1992 0.402
103.2294 -0.014
103.2597 0.247
103.2900 0.248
103.3203 -0.011
103.3506 0.250
103.3808 0.356
103.4111 -0.060
103.4414 -0.527
103.4717 0.464
103.5019 0.101
103.5322 0.259
103.5625 -0.156
103.5928 0.158
103.6231 0.056
103.6533 -0.046
103.6836 0.216
103.7139 -0.042
103.7442 0.273
103.7745 0.223
103.8047 0.173
103.8350 0.280
103.8653 -0.134
103.8956 0.337
103.9258 0.600
103.9561 -0.074
103.9864 0.345
104.0167 0.400
104.0470 0.039
104.0772 0.407
104.1075 -0.111
104.1378 0.101
104.1681 -0.208
104.1984 -0.368
104.2286 0.410
104.2589 0.198
104.2892 0.195
104.3195 1.494
104.3497 -0.227
104.3800 -0.282
104.4103 0.392
104.4406 -0.131
104.4709 -0.186
104.5011 -0.136
104.5314 0.121
104.5617 -0.037
104.5920 0.429
104.6223 0.167
104.6525 0.321
104.6828 0.527
104.7131 -0.048
104.7434 0.992
104.7736 0.261
104.8039 0.416
104.8342 0.258
104.8645 -0.004
104.8948 0.151
104.9250 -0.267
104.9553 0.305
104.9856 0.304
105.0159 0.198
105.0462 -0.011
105.0764 0.197
105.1067 0.248
105.1370 0.299
105.1673 -0.014
105.1975 0.142
105.2278 0.037
105.2581 -0.172
105.2884 0.141
105.3187 0.088
105.3489 0.036
105.3792 0.088
105.4095 0.401
105.4398 0.140
105.4701 -0.016
105.5003 -0.172
105.5306 0.141
105.5609 -0.014
105.5912 -0.066
105.6215 0.247
105.6517 0.456
105.6820 0.353
105.7123 -0.063
105.7426 0.511
105.7728 0.356
105.8031 -0.060
105.8334 -0.215
105.8637 -0.005
105.8940 0.048
105.9242 0.206
105.9545 -0.053
105.9848 -0.103
106.0151 0.315
106.0454 -0.152
106.0756 0.214
106.1059 -0.357
106.1362 -0.094
106.1665 -0.353
106.1967 0.639
106.2270 0.069
106.2573 -0.033
106.2876 0.542
106.3179 0.180
106.3481 0.026
106.3784 -0.127
106.4087 0.084
106.4390 0.608
106.4693 0.767
106.4995 0.405
106.5298 0.044
106.5601 0.412
106.5904 -0.262
106.6206 -0.259
106.6509 0.309
106.6812 0.460
106.7115 0.455
106.7418 -0.123
106.7720 0.446
106.8023 0.545
106.8326 0.124
106.8629 0.328
106.8932 -0.198
106.9234 0.267
106.9537 0.471
106.9840 0.310
107.0143 0.567
107.0445 -0.010
107.0748 -0.327
107.1051 0.086
107.1354 0.343
107.1657 0.443
107.1959 -0.290
107.2262 0.280
107.2565 0.328
107.2868 -0.196
107.3171 -0.147
107.3473 -0.046
107.3776 0.003
107.4079 0.052
107.4382 0.049
107.4684 0.151
107.4987 0.096
107.5290 0.093
107.5593 0.195
107.5896 -0.172
107.6198 0.034
107.6501 0.083
107.6804 0.133
107.7107 -0.234
107.7410 0.233
107.7712 0.179
107.8015 0.438
107.8318 -0.398
107.8621 -0.139
107.8923 0.276
107.9226 0.327
107.9529 0.325
107.9832 0.168
108.0135 0.635
108.0437 0.426
108.0740 0.372
108.1043 -0.306
108.1346 0.214
108.1649 -0.047
108.1951 0.265
108.2254 -0.153
108.2557 0.576
108.2860 -0.154
108.3163 0.002
108.3465 -0.363
108.3768 0.050
108.4071 0.515
108.4374 -0.009
108.4676 0.456
108.4979 -0.432
108.5282 0.450
108.5585 0.290
108.5888 -0.181
108.6190 0.024
108.6493 -0.239
108.6796 0.123
108.7099 0.328
108.7402 -0.039
108.7704 0.271
108.8007 0.269
108.8310 -0.098
108.8613 0.212
108.8915 0.627
108.9218 0.468
108.9521 0.050
108.9824 0.048
109.0127 -0.163
109.0429 -0.060
109.0732 0.042
109.1035 0.145
109.1338 -0.325
109.1641 0.038
109.1943 0.349
109.2246 -0.017
109.2549 0.034
109.2852 -0.123
109.3154 0.293
109.3457 0.552
109.3760 -0.282
109.4063 0.290
109.4366 0.237
109.4668 0.081
109.4971 -0.284
109.5274 0.080
109.5577 -0.181
109.5880 -0.233
109.6182 0.288
109.6485 0.027
109.6788 0.860
109.7091 -0.233
109.7393 -0.233
109.7696 0.235
109.7999 0.131
109.8302 -0.026
109.8605 -0.130
109.8907 0.235
109.9210 -0.338
109.9513 -0.078
109.9816 -0.182
110.0119 0.131
110.0421 -0.181
110.0724 -0.233
110.1027 -0.079
110.1330 0.127
110.1632 0.437
110.1935 0.383
110.2238 -0.192
110.2541 0.067
110.2844 0.273
110.3146 -0.041
110.3449 -0.043
110.3752 -0.149
110.4055 0.267
110.4358 -0.360
110.4660 0.368
110.4963 0.210
110.5266 -0.364
110.5569 0.312
110.5871 0.051
110.6174 0.154
110.6477 -0.263
110.6780 0.048
110.7083 0.725
110.7385 0.099
110.7688 -0.162
110.7991 -0.006
110.8294 0.098
110.8597 0.202
110.8899 0.306
110.9202 0.202
110.9505 -0.527
110.9808 0.306
111.0110 0.150
111.0413 0.202
111.0716 0.151
111.1019 0.099
111.1322 -0.057
111.1624 -0.160
111.1927 -0.055
111.2230 0.362
111.2533 -0.314
111.2836 0.468
111.3138 -0.260
111.3441 -0.311
111.3744 0.315
111.4047 0.057
111.4350 0.162
111.4652 0.268
111.4955 0.010
111.5258 0.272
111.5561 0.222
111.5863 0.276
111.6166 0.018
111.6469 0.020
111.6772 -0.081
111.7075 0.286
111.7377 0.028
111.7680 -0.074
111.7983 -0.019
111.8286 0.401
111.8589 0.247
111.8891 0.146
111.9194 -0.216
111.9497 0.413
111.9800 -0.157
112.0102 0.159
112.0405 0.735
112.0708 0.374
112.1011 -0.039
112.1314 -0.244
112.1616 0.385
112.1919 -0.132
112.2222 -0.232
112.2525 0.344
112.2828 0.817
112.3130 -0.220
112.3433 0.305
112.3736 0.205
112.4039 0.209
112.4341 0.474
112.4644 0.531
112.4947 0.171
112.5250 0.020
112.5553 0.233
112.5855 0.134
112.6158 -0.174
112.6461 -0.221
112.6764 -0.173
112.7067 0.448
112.7369 0.132
112.7672 -0.029
112.7975 0.124
112.8278 0.902
112.8580 0.221
112.8883 0.322
112.9186 0.318
112.9489 0.731
112.9792 0.624
113.0094 0.204
113.0397 0.462
113.0700 0.354
113.1003 0.195
113.1306 0.088
113.1608 0.138
113.1911 0.447
113.2214 -0.336
113.2517 0.494
113.2819 0.388
113.3122 0.021
113.3425 -0.190
113.3728 0.329
113.4031 0.171
113.4333 0.898
113.4636 0.584
113.4939 0.113
113.5242 0.268
113.5545 -0.567
113.5847 0.317
113.6150 -0.206
113.6453 0.314
113.6756 -0.104
113.7058 0.207
113.7361 0.206
113.7664 0.049
113.7967 -0.213
113.8270 0.828
113.8572 0.098
113.8875 0.306
113.9178 0.409
113.9481 0.044
113.9784 -0.008
114.0086 0.564
114.0389 0.408
114.0692 0.147
114.0995 -0.113
114.1298 0.407
114.1600 0.043
114.1903 -0.061
114.2206 0.356
114.2509 0.044
114.2811 0.357
114.3114 -0.268
114.3417 0.670
114.3720 -0.006
114.4023 0.567
114.4325 0.516
114.4628 0.153
114.4931 0.258
114.5234 -0.158
114.5537 0.468
114.5839 0.574
114.6142 0.471
114.6445 0.785
114.6748 0.474
114.7050 0.215
114.7353 0.425
114.7656 0.114
114.7959 0.585
114.8262 -0.142
114.8564 0.277
114.8867 0.591
114.9170 -0.396
114.9473 0.439
114.9776 0.390
115.0078 0.080
115.0381 -0.126
115.0684 0.502
115.0987 0.296
115.1289 0.507
115.1592 0.354
115.1895 -0.164
115.2198 0.047
115.2501 -0.106
115.2803 -0.311
115.3106 0.155
115.3409 0.518
115.3712 -0.005
115.4015 0.044
115.4317 0.355
115.4620 0.301
115.4923 0.143
115.5226 0.297
115.5528 -0.121
115.5831 0.137
115.6134 0.188
115.6437 0.551
115.6740 -0.232
115.7042 -0.233
115.7345 0.284
115.7648 -0.032
115.7951 0.017
115.8254 0.430
115.8556 0.166
115.8859 0.424
115.9162 -0.048
115.9465 0.782
115.9767 0.519
116.0070 0.672
116.0373 0.357
116.0676 0.510
116.0979 0.299
116.1281 0.817
116.1584 0.190
116.1887 -0.073
116.2190 0.185
116.2493 -0.025
116.2795 0.181
116.3098 -0.081
116.3401 0.125
116.3704 -0.137
116.4006 -0.556
116.4309 0.328
116.4612 0.118
116.4915 0.377
116.5218 -0.354
116.5520 0.114
116.5823 -0.200
116.6126 0.476
116.6429 0.735
116.6732 -0.203
116.7034 0.681
116.7337 0.212
116.7640 0.471
116.7943 0.054
116.8245 -0.363
116.8548 0.313
116.8851 0.105
116.9154 0.521
116.9457 0.312
116.9759 0.156
117.0062 0.052
117.0365 -0.261
117.0668 0.364
117.0971 -0.104
117.1273 0.261
117.1576 -0.156
117.1879 -0.207
117.2182 -0.311
117.2485 0.259
117.2787 -0.005
117.3090 -0.112
117.3393 0.354
117.3696 -0.014
117.3998 0.660
117.4301 0.397
117.4604 0.186
117.4907 0.392
117.5210 0.337
117.5512 -0.082
117.5815 0.697
117.6118 -0.034
117.6421 0.120
117.6724 0.014
117.7026 0.324
117.7329 -0.146
117.7632 0.164
117.7935 0.163
117.8237 -0.099
117.8540 0.368
117.8843 -0.050
117.9146 0.729
117.9449 0.416
117.9751 0.414
118.0054 -0.055
118.0357 0.412
118.0660 0.203
118.0963 -0.475
118.1265 -0.111
118.1568 0.097
118.1871 -0.112
118.2174 0.564
118.2476 -0.374
118.2779 -0.166
118.3082 -0.010
118.3385 0.094
118.3688 0.407
118.3990 0.250
118.4293 -0.531
118.4596 0.146
118.4899 -0.062
118.5202 0.355
118.5504 0.564
118.5807 -0.165
118.6110 0.096
118.6413 0.722
118.6715 0.202
118.7018 -0.110
118.7321 0.256
118.7624 -0.056
118.7927 0.154
118.8229 -0.053
118.8532 0.833
118.8835 -0.520
118.9138 0.107
118.9441 0.265
118.9743 0.058
119.0046 -0.045
119.0349 -0.095
119.0652 0.272
119.0954 0.013
119.1257 0.015
119.1560 0.069
119.1863 -0.137
119.2166 -0.239
119.2468 -0.189
119.2771 0.173
119.3074 0.327
119.3377 0.220
119.3680 -0.095
119.3982 -0.409
119.4285 0.162
119.4588 0.107
119.4891 -0.311
119.5193 -0.054
119.5496 0.047
119.5799 0.200
119.6102 0.197
119.6405 0.611
119.6707 0.035
119.7010 0.033
119.7313 0.082
119.7616 -0.025
119.7919 0.286
119.8221 0.075
119.8524 0.333
119.8827 0.122
119.9130 -0.244
119.9433 -0.337
119.9735 0.248
120.0038 0.000
