'Id: "" Comment: "" Operator: "Lab Manager" Anode: "Cu" Scantype: "Locked Coupled" TimePerStep: "19.2" X: "9999" Y: "9999" Z: "9999" 
10.0015 0.000
10.0318 -0.429
10.0620 -0.361
10.0923 -0.397
10.1226 -0.029
10.1529 -0.390
10.1832 -0.383
10.2134 1.186
10.2437 -0.525
10.2740 0.159
10.3043 0.323
10.3346 0.175
10.3648 -0.494
10.3951 -0.069
10.4254 -0.060
10.4557 -0.728
10.4859 0.102
10.5162 1.090
10.5465 0.567
10.5768 0.096
10.6071 -0.322
10.6373 0.406
10.6676 0.457
10.6979 0.925
10.7282 1.081
10.7585 0.924
10.7887 -0.795
10.8190 1.028
10.8493 0.977
10.8796 1.134
10.9098 2.020
10.9401 1.657
10.9704 2.804
11.0007 3.118
11.0310 5.568
11.0612 5.154
11.0915 6.719
11.1218 6.773
11.1521 6.516
11.1824 5.946
11.2126 5.116
11.2429 3.505
11.2732 2.624
11.3035 2.264
11.3337 0.758
11.3640 0.867
11.3943 0.872
11.4246 0.564
11.4549 0.882
11.4851 0.940
11.5154 -0.304
11.5457 0.692
11.5760 -0.239
11.6063 0.289
11.6365 0.973
11.6668 -0.583
11.6971 -0.106
11.7274 0.370
11.7577 1.107
11.7879 0.334
11.8182 -0.022
11.8485 -0.274
11.8788 0.048
11.9090 0.161
11.9393 0.900
11.9696 0.181
11.9999 -0.122
12.0302 -0.372
12.0604 -0.049
12.0907 -0.246
12.1210 -0.339
12.1513 0.454
12.1816 -0.263
12.2118 0.165
12.2421 1.063
12.2724 0.555
12.3027 0.567
12.3329 -0.097
12.3632 0.385
12.3935 0.034
12.4238 -0.108
12.4541 0.687
12.4843 -0.028
12.5146 -0.169
12.5449 0.939
12.5752 0.485
12.6055 0.345
12.6357 0.308
12.6660 0.949
12.6963 0.548
12.7266 0.460
12.7568 0.321
12.7871 0.858
12.8174 0.563
12.8477 1.257
12.8780 0.025
12.9082 0.251
12.9385 1.154
12.9688 -0.233
12.9991 0.202
13.0294 0.689
13.0596 0.604
13.0899 -0.001
13.1202 0.435
13.1505 0.246
13.1807 0.110
13.2110 0.443
13.2413 0.516
13.2716 0.537
13.3019 1.287
13.3321 0.266
13.3624 0.601
13.3927 1.195
13.4230 0.957
13.4533 0.459
13.4835 0.169
13.5138 -0.017
13.5441 0.371
13.5744 0.082
13.6046 -0.363
13.6349 -0.060
13.6652 0.452
13.6955 1.173
13.7258 0.539
13.7560 0.219
13.7863 0.732
13.8166 0.099
13.8469 0.040
13.8772 0.710
13.9074 0.443
13.9377 -0.033
13.9680 0.586
13.9983 -0.514
14.0285 1.043
14.0588 -0.525
14.0891 0.303
14.1194 0.506
14.1497 0.293
14.1799 -0.076
14.2102 0.180
14.2405 0.801
14.2708 0.641
14.3011 0.482
14.3313 0.270
14.3616 0.631
14.3919 -0.153
14.4222 0.210
14.4524 0.416
14.4827 -0.003
14.5130 -0.109
14.5433 0.098
14.5736 0.045
14.6038 -0.321
14.6341 -0.273
14.6644 0.036
14.6947 1.491
14.7250 0.289
14.7552 -0.026
14.7855 0.752
14.8158 0.021
14.8461 -0.138
14.8764 -0.088
14.9066 -0.037
14.9369 0.586
14.9672 0.481
14.9975 0.063
15.0277 -0.042
15.0580 0.270
15.0883 0.166
15.1186 0.218
15.1489 -0.355
15.1791 0.531
15.2094 0.897
15.2397 -0.456
15.2700 0.274
15.3003 0.276
15.3305 0.069
15.3608 0.227
15.3911 0.698
15.4214 -0.341
15.4516 0.652
15.4819 0.134
15.5122 0.033
15.5425 0.349
15.5728 0.092
15.6030 0.096
15.6333 0.309
15.6636 -0.780
15.6939 -0.254
15.7242 0.480
15.7544 -0.400
15.7847 0.804
15.8150 -0.388
15.8453 0.035
15.8755 0.042
15.9058 0.048
15.9361 0.160
15.9664 0.427
15.9967 -0.034
16.0269 -0.078
16.0572 0.347
16.0875 -0.322
16.1178 0.155
16.1481 -0.201
16.1783 0.225
16.2086 -0.286
16.2389 0.296
16.2692 -0.007
16.2994 0.212
16.3297 0.587
16.3600 -0.288
16.3903 -0.173
16.4206 -0.266
16.4508 0.214
16.4811 0.329
16.5114 0.706
16.5417 0.145
16.5720 -0.311
16.6022 -0.106
16.6325 0.620
16.6628 0.253
16.6931 0.251
16.7233 0.822
16.7536 -0.118
16.7839 0.610
16.8142 -0.120
16.8445 1.545
16.8747 0.034
16.9050 0.190
16.9353 0.919
16.9656 -0.071
16.9959 -0.071
17.0261 -0.122
17.0564 0.556
17.0867 0.036
17.1170 0.141
17.1472 0.663
17.1775 -0.585
17.2078 0.146
17.2381 0.409
17.2684 0.672
17.2986 0.154
17.3289 0.261
17.3592 0.420
17.3895 0.007
17.4198 0.063
17.4500 -0.141
17.4803 0.644
17.5106 0.024
17.5409 0.393
17.5712 -0.331
17.6014 0.716
17.6317 0.044
17.6620 -0.210
17.6923 0.265
17.7225 -0.042
17.7528 0.069
17.7831 -0.028
17.8134 0.395
17.8437 0.350
17.8739 -0.215
17.9042 -0.363
17.9345 0.265
17.9648 -0.095
17.9951 0.117
18.0253 0.174
18.0556 -0.290
18.0859 -0.235
18.1162 -0.076
18.1464 0.396
18.1767 0.712
18.2070 -0.118
18.2373 -0.427
18.2676 0.255
18.2978 0.103
18.3281 0.524
18.3584 0.373
18.3887 0.117
18.4190 0.748
18.4492 0.129
18.4795 0.707
18.5098 0.297
18.5401 0.147
18.5703 0.206
18.6006 -0.256
18.6309 0.012
18.6612 -0.085
18.6915 0.235
18.7217 0.087
18.7520 0.147
18.7823 0.051
18.8126 0.424
18.8429 0.277
18.8731 0.182
18.9034 0.244
18.9337 0.201
18.9640 -0.206
18.9942 -0.143
19.0245 0.544
19.0548 0.399
19.0851 0.410
19.1154 0.525
19.1456 -0.245
19.1759 -0.441
19.2062 0.282
19.2365 0.224
19.2668 0.635
19.2970 0.630
19.3273 0.156
19.3576 0.308
19.3879 0.199
19.4181 -0.066
19.4484 0.347
19.4787 -0.125
19.5090 0.028
19.5393 0.181
19.5695 0.021
19.5998 0.383
19.6301 0.068
19.6604 0.170
19.6907 0.637
19.7209 0.323
19.7512 0.374
19.7815 0.529
19.8118 0.215
19.8420 0.371
19.8723 0.110
19.9026 0.266
19.9329 0.631
19.9632 -0.255
19.9934 0.267
20.0237 -0.357
20.0540 0.217
20.0843 -0.094
20.1146 0.949
20.1448 0.065
20.1751 0.119
20.2054 0.122
20.2357 0.176
20.2659 -0.133
20.2962 -0.130
20.3265 0.446
20.3568 0.502
20.3871 0.974
20.4173 0.666
20.4476 0.566
20.4779 0.050
20.5082 0.471
20.5385 -0.201
20.5687 0.169
20.5990 -0.138
20.6293 -0.132
20.6596 0.603
20.6899 -0.015
20.7201 0.252
20.7504 0.259
20.7807 0.422
20.8110 0.169
20.8412 -0.240
20.8715 0.289
20.9018 0.141
20.9321 -0.007
20.9624 -0.415
20.9926 0.050
21.0229 0.725
21.0532 0.150
21.0835 -0.009
21.1138 -0.219
21.1440 0.404
21.1743 0.976
21.2046 0.141
21.2349 0.349
21.2651 0.244
21.2954 0.452
21.3257 -0.017
21.3560 0.295
21.3863 0.348
21.4165 -0.381
21.4468 0.141
21.4771 -0.223
21.5074 -0.013
21.5377 0.666
21.5679 0.772
21.5982 0.409
21.6285 0.255
21.6588 0.518
21.6890 0.261
21.7193 0.316
21.7496 0.163
21.7799 0.115
21.8102 0.691
21.8404 0.279
21.8707 0.231
21.9010 -0.285
21.9313 -0.185
21.9616 0.228
21.9918 0.017
22.0221 0.326
22.0524 0.479
22.0827 -0.565
22.1129 0.162
22.1432 0.212
22.1735 0.002
22.2038 -0.260
22.2341 -0.057
22.2643 -0.583
22.2946 0.245
22.3249 0.292
22.3552 -0.077
22.3855 0.336
22.4157 0.124
22.4460 0.016
22.4763 0.169
22.5066 0.843
22.5368 0.111
22.5671 0.629
22.5974 0.053
22.6277 0.312
22.6580 0.258
22.6882 0.673
22.7185 -0.058
22.7488 0.045
22.7791 0.357
22.8094 1.033
22.8396 0.252
22.8699 -0.582
22.9002 -0.061
22.9305 -0.217
22.9607 -0.581
22.9910 0.358
23.0213 0.099
23.0516 -0.161
23.0819 0.258
23.1121 0.312
23.1424 0.001
23.1727 0.420
23.2030 0.111
23.2333 -0.355
23.2635 0.012
23.2938 0.016
23.3241 -0.137
23.3544 -0.081
23.3846 -0.233
23.4149 -0.176
23.4452 0.141
23.4755 -0.219
23.5058 -0.214
23.5360 -0.260
23.5663 -0.260
23.5966 -0.105
23.6269 0.154
23.6572 0.831
23.6874 -0.055
23.7177 0.466
23.7480 -0.055
23.7783 -0.107
23.8086 0.154
23.8388 0.520
23.8691 0.000
23.8994 -0.415
23.9297 0.050
23.9599 0.307
23.9902 -0.269
24.0205 0.614
24.0508 0.247
24.0811 -0.171
24.1113 0.556
24.1416 0.398
24.1719 -0.020
24.2022 0.083
24.2325 0.186
24.2627 -0.179
24.2930 0.185
24.3233 -0.492
24.3536 0.342
24.3838 -0.804
24.4141 -0.022
24.4444 -0.021
24.4747 0.501
24.5050 0.033
24.5352 0.139
24.5655 -0.067
24.5958 0.404
24.6261 0.198
24.6564 0.409
24.6866 0.464
24.7169 -0.002
24.7472 -0.155
24.7775 0.474
24.8077 0.009
24.8380 0.795
24.8683 0.591
24.8986 0.075
24.9289 -0.546
24.9591 -0.029
24.9894 0.176
25.0197 0.798
25.0500 0.326
25.0803 0.063
25.1105 0.268
25.1408 0.474
25.1711 0.316
25.2014 0.106
25.2316 -0.261
25.2619 0.571
25.2922 -0.055
25.3225 -0.108
25.3528 -0.160
25.3830 0.204
25.4133 0.985
25.4436 -0.265
25.4739 0.517
25.5042 -0.003
25.5344 0.050
25.5647 -0.001
25.5950 -0.260
25.6253 -0.264
25.6555 0.566
25.6858 0.615
25.7161 0.195
25.7464 0.297
25.7767 -0.018
25.8069 0.345
25.8372 -0.178
25.8675 0.289
25.8978 -0.494
25.9281 -0.237
25.9583 0.332
25.9886 0.172
26.0189 -0.143
26.0492 0.635
26.0794 -0.461
26.1097 0.265
26.1400 -0.050
26.1703 -0.051
26.2006 -0.262
26.2308 0.310
26.2611 0.100
26.2914 -0.369
26.3217 0.099
26.3520 0.046
26.3822 0.150
26.4125 0.671
26.4428 0.151
26.4731 -0.266
26.5034 -0.167
26.5336 -0.069
26.5639 -0.439
26.5942 0.597
26.6245 0.071
26.6547 0.171
26.6850 0.062
26.7153 -0.047
26.7456 0.105
26.7759 0.154
26.8061 0.098
26.8364 0.095
26.8667 -0.012
26.8970 0.506
26.9273 -0.070
26.9575 0.501
26.9878 -0.126
27.0181 -0.076
27.0484 -0.025
27.0786 0.182
27.1089 -0.028
27.1392 0.388
27.1695 -0.394
27.1998 0.283
27.2300 0.387
27.2603 0.023
27.2906 -0.237
27.3209 0.180
27.3512 0.025
27.3814 -0.078
27.4117 0.132
27.4420 0.082
27.4723 0.031
27.5025 -0.018
27.5328 -0.224
27.5631 -0.117
27.5934 -0.271
27.6237 -0.063
27.6539 0.145
27.6842 0.249
27.7145 -0.272
27.7448 0.145
27.7751 0.302
27.8053 0.875
27.8356 -0.113
27.8659 -0.060
27.8962 0.150
27.9264 0.360
27.9567 -0.054
27.9870 -0.313
28.0173 0.211
28.0476 0.109
28.0778 0.008
28.1081 -0.145
28.1384 -0.037
28.1687 -0.033
28.1990 -0.029
28.2292 -0.494
28.2595 0.082
28.2898 0.398
28.3201 -0.172
28.3503 0.040
28.3806 -0.112
28.4109 0.101
28.4412 0.678
28.4715 0.422
28.5017 0.531
28.5320 0.120
28.5623 0.021
28.5926 0.339
28.6229 0.189
28.6531 0.091
28.6834 -0.111
28.7137 -0.260
28.7440 0.091
28.7742 0.078
28.8045 0.743
28.8348 -0.259
28.8651 -0.063
28.8954 -0.075
28.9256 -0.242
28.9559 0.580
28.9862 0.621
29.0165 0.141
29.0468 0.027
29.0770 0.641
29.1073 -0.202
29.1376 -0.264
29.1679 0.299
29.1981 -0.231
29.2284 -0.031
29.2587 0.324
29.2890 0.160
29.3193 -0.161
29.3495 0.091
29.3798 -0.229
29.4101 -0.132
29.4404 -0.140
29.4707 -0.615
29.5009 0.211
29.5312 -0.160
29.5615 0.042
29.5918 -0.068
29.6221 0.343
29.6523 0.650
29.6826 -0.032
29.7129 -0.089
29.7432 0.010
29.7734 0.162
29.8037 -0.311
29.8340 -0.124
29.8643 -0.196
29.8946 0.044
29.9248 0.128
29.9551 -0.048
29.9854 0.089
30.0157 0.018
30.0460 0.259
30.0762 0.449
30.1065 0.066
30.1368 0.047
30.1671 0.081
30.1973 -0.457
30.2276 0.202
30.2579 0.914
30.2882 0.585
30.3185 -0.265
30.3487 0.500
30.3790 0.744
30.4093 0.363
30.4396 -0.017
30.4699 0.072
30.5001 0.109
30.5304 1.031
30.5607 0.287
30.5910 0.117
30.6212 0.415
30.6515 0.557
30.6818 0.804
30.7121 0.947
30.7424 0.986
30.7726 0.608
30.8029 0.752
30.8332 1.573
30.8635 1.873
30.8938 1.705
30.9240 1.381
30.9543 1.317
30.9846 2.452
31.0149 2.389
31.0451 1.076
31.0754 1.118
31.1057 2.618
31.1360 3.545
31.1663 3.536
31.1965 3.631
31.2268 5.392
31.2571 4.654
31.2874 5.531
31.3177 6.356
31.3479 7.858
31.3782 10.559
31.4085 9.613
31.4388 11.846
31.4690 14.859
31.4993 17.769
31.5296 19.429
31.5599 20.881
31.5902 20.041
31.6204 24.619
31.6507 23.572
31.6810 23.462
31.7113 18.926
31.7416 17.202
31.7718 13.916
31.8021 11.933
31.8324 10.522
31.8627 9.633
31.8929 7.181
31.9232 4.730
31.9535 4.519
31.9838 4.464
32.0141 4.617
32.0443 4.459
32.0746 4.561
32.1049 3.361
32.1352 2.734
32.1655 1.743
32.1957 2.211
32.2260 1.273
32.2563 1.637
32.2866 0.751
32.3169 1.740
32.3471 0.126
32.3774 -0.395
32.4077 0.231
32.4380 0.024
32.4682 0.546
32.4985 0.391
32.5288 0.757
32.5591 0.863
32.5894 0.553
32.6196 0.816
32.6499 0.245
32.6802 0.509
32.7105 0.460
32.7408 0.359
32.7710 0.675
32.8013 0.106
32.8316 0.319
32.8619 -0.146
32.8921 -0.349
32.9224 -0.143
32.9527 -0.040
32.9830 -0.042
33.0133 -0.043
33.0435 -0.252
33.0738 -0.201
33.1041 -0.618
33.1344 0.424
33.1647 -0.930
33.1949 0.008
33.2252 -0.096
33.2555 0.842
33.2858 -0.042
33.3160 0.585
33.3463 -0.351
33.3766 -0.349
33.4069 -0.103
33.4372 0.353
33.4674 -0.442
33.4977 -0.297
33.5280 0.733
33.5583 0.878
33.5886 0.347
33.6188 -0.393
33.6491 0.586
33.6794 0.107
33.7097 0.306
33.7399 0.765
33.7702 1.432
33.8005 1.267
33.8308 0.737
33.8611 1.302
33.8913 0.668
33.9216 2.119
33.9519 3.361
33.9822 3.249
34.0125 3.919
34.0427 4.485
34.0730 5.467
34.1033 7.544
34.1336 9.569
34.1638 11.125
34.1941 16.536
34.2244 22.729
34.2547 26.004
34.2850 25.166
34.3152 23.703
34.3455 21.042
34.3758 18.225
34.4061 11.554
34.4364 9.467
34.4666 8.005
34.4969 5.138
34.5272 5.395
34.5575 2.788
34.5877 3.306
34.6180 2.106
34.6483 1.166
34.6786 1.894
34.7089 0.850
34.7391 1.162
34.7694 0.900
34.7997 1.160
34.8300 0.690
34.8603 1.211
34.8905 1.263
34.9208 0.638
34.9511 0.014
34.9814 0.639
35.0116 0.797
35.0419 1.892
35.0722 0.383
35.1025 0.645
35.1328 0.230
35.1630 0.493
35.1933 0.703
35.2236 1.383
35.2539 0.865
35.2842 0.504
35.3144 1.393
35.3447 1.813
35.3750 0.776
35.4053 0.519
35.4356 0.888
35.4658 2.664
35.4961 1.836
35.5264 1.372
35.5567 2.888
35.5869 2.165
35.6172 4.254
35.6475 4.000
35.6778 3.642
35.7081 4.534
35.7383 5.999
35.7686 7.465
35.7989 8.410
35.8292 9.876
35.8595 9.571
35.8897 13.434
35.9200 13.651
35.9503 15.899
35.9806 20.179
36.0108 24.251
36.0411 29.677
36.0714 27.551
36.1017 33.342
36.1320 31.061
36.1622 32.842
36.1925 31.082
36.2228 23.489
36.2531 20.688
36.2834 17.626
36.3136 13.315
36.3439 13.379
36.3742 9.485
36.4045 8.560
36.4347 9.094
36.4650 5.617
36.4953 6.204
36.5256 3.978
36.5559 3.627
36.5861 3.068
36.6164 2.926
36.6467 2.211
36.6770 1.653
36.7073 2.345
36.7375 1.111
36.7678 2.116
36.7981 0.361
36.8284 0.846
36.8586 0.706
36.8889 1.191
36.9192 0.635
36.9495 0.652
36.9798 0.096
37.0100 0.635
37.0403 0.340
37.0706 0.671
37.1009 0.741
37.1312 0.134
37.1614 0.466
37.1917 -0.192
37.2220 0.035
37.2523 -0.153
37.2825 -0.290
37.3128 0.303
37.3431 0.167
37.3734 0.084
37.4037 -0.520
37.4339 0.907
37.4642 -0.791
37.4945 -0.248
37.5248 0.347
37.5551 -0.413
37.5853 -0.026
37.6156 -0.159
37.6459 0.228
37.6762 -0.113
37.7064 -0.298
37.7367 0.298
37.7670 -0.199
37.7973 0.242
37.8276 0.006
37.8578 0.447
37.8881 -0.101
37.9184 0.289
37.9487 0.002
37.9790 -0.546
38.0092 0.038
38.0395 0.101
38.0698 -0.253
38.1001 0.123
38.1304 -0.334
38.1606 0.043
38.1909 -0.362
38.2212 0.015
38.2515 -0.128
38.2817 -0.011
38.3120 -0.363
38.3423 0.276
38.3726 -0.284
38.4029 -0.113
38.4331 -0.672
38.4634 0.384
38.4937 -0.383
38.5240 0.101
38.5543 0.012
38.5845 -0.441
38.6148 0.036
38.6451 0.046
38.6754 -0.101
38.7056 -0.039
38.7359 0.335
38.7662 0.033
38.7965 -0.217
38.8268 0.107
38.8570 0.013
38.8873 0.181
38.9176 0.140
38.9479 -0.056
38.9782 0.060
39.0084 0.020
39.0387 -0.228
39.0690 0.202
39.0993 0.163
39.1295 -0.084
39.1598 -0.227
39.1901 -0.120
39.2204 0.039
39.2507 0.043
39.2809 -0.110
39.3112 -0.314
39.3415 0.211
39.3718 -0.201
39.4021 0.324
39.4323 -0.504
39.4626 -0.082
39.4929 0.079
39.5232 0.293
39.5534 -0.117
39.5837 0.045
39.6140 -0.209
39.6443 0.058
39.6746 -0.247
39.7048 0.020
39.7351 -0.285
39.7654 0.029
39.7957 0.238
39.8260 0.188
39.8562 0.502
39.8865 -0.173
39.9168 -0.015
39.9471 0.196
39.9773 -0.166
40.0076 -0.215
40.0379 -0.055
40.0682 0.156
40.0985 -0.153
40.1287 0.112
40.1590 0.116
40.1893 0.172
40.2196 -0.136
40.2499 0.234
40.2801 0.239
40.3104 -0.016
40.3407 0.406
40.3710 -0.317
40.4012 -0.311
40.4315 0.363
40.4618 0.360
40.4921 0.149
40.5224 0.250
40.5526 -0.065
40.5829 0.142
40.6132 0.348
40.6435 0.347
40.6738 0.137
40.7040 0.188
40.7343 0.031
40.7646 0.135
40.7949 -0.126
40.8251 0.030
40.8554 -0.022
40.8857 0.239
40.9160 -0.281
40.9463 0.136
40.9765 0.138
41.0068 0.087
41.0371 0.089
41.0674 0.039
41.0977 0.301
41.1279 0.095
41.1582 -0.058
41.1885 -0.159
41.2188 -0.208
41.2491 -0.110
41.2793 -0.116
41.3096 0.191
41.3399 0.238
41.3702 -0.080
41.4004 0.644
41.4307 0.223
41.4610 -0.198
41.4913 0.267
41.5216 -0.154
41.5518 0.051
41.5821 -0.056
41.6124 0.149
41.6427 -0.114
41.6730 -0.169
41.7032 -0.119
41.7335 0.243
41.7638 -0.279
41.7941 -0.072
41.8243 0.135
41.8546 -0.335
41.8849 0.497
41.9152 -0.336
41.9455 0.028
41.9757 -0.128
42.0060 0.080
42.0363 -0.076
42.0666 -0.023
42.0969 0.186
42.1271 -0.125
42.1574 -0.123
42.1877 0.087
42.2180 0.349
42.2482 -0.013
42.2785 -0.115
42.3088 -0.164
42.3391 -0.057
42.3694 0.050
42.3996 -0.363
42.4299 0.004
42.4602 0.058
42.4905 -0.252
42.5208 0.011
42.5510 -0.090
42.5813 -0.035
42.6116 0.021
42.6419 -0.184
42.6721 -0.128
42.7024 -0.072
42.7327 0.141
42.7630 -0.010
42.7933 -0.109
42.8235 -0.208
42.8538 -0.101
42.8841 0.163
42.9144 -0.355
42.9447 0.066
42.9749 -0.138
43.0052 0.283
43.0355 -0.234
43.0658 0.657
43.0960 0.245
43.1263 -0.270
43.1566 0.360
43.1869 -0.207
43.2172 0.008
43.2474 0.535
43.2777 -0.136
43.3080 -0.129
43.3383 -0.018
43.3686 -0.323
43.3988 0.466
43.4291 -0.255
43.4594 -0.195
43.4897 0.275
43.5199 0.381
43.5502 -0.137
43.5805 -0.187
43.6108 0.232
43.6411 -0.129
43.6713 -0.283
43.7016 0.606
43.7319 0.141
43.7622 -0.063
43.7925 -0.111
43.8227 -0.107
43.8530 -0.207
43.8833 0.151
43.9136 0.196
43.9439 -0.123
43.9741 -0.077
44.0044 0.177
44.0347 -0.193
44.0650 0.009
44.0952 -0.152
44.1255 -0.001
44.1558 0.046
44.1861 0.250
44.2164 0.454
44.2466 0.033
44.2769 -0.127
44.3072 -0.079
44.3375 -0.134
44.3678 0.332
44.3980 0.173
44.4283 -0.090
44.4586 -0.197
44.4889 0.009
44.5191 0.528
44.5494 0.370
44.5797 0.213
44.6100 0.108
44.6403 -0.102
44.6705 -0.050
44.7008 -0.259
44.7311 0.102
44.7614 -0.110
44.7917 0.407
44.8219 -0.325
44.8522 0.297
44.8825 -0.018
44.9128 -0.229
44.9430 0.134
44.9733 -0.233
45.0036 -0.081
45.0339 0.332
45.0642 0.172
45.0944 0.169
45.1247 0.062
45.1550 0.424
45.1853 -0.204
45.2156 0.158
45.2458 -0.208
45.2761 -0.110
45.3064 0.302
45.3367 0.140
45.3669 0.136
45.3972 0.131
45.4275 -0.082
45.4578 -0.190
45.4881 0.119
45.5183 0.532
45.5486 0.268
45.5789 0.422
45.6092 0.054
45.6395 0.156
45.6697 0.102
45.7000 -0.213
45.7303 -0.215
45.7606 -0.220
45.7908 0.869
45.8211 0.239
45.8514 0.234
45.8817 0.178
45.9120 0.278
45.9422 0.378
45.9725 0.271
46.0028 0.007
46.0331 0.420
46.0634 0.366
46.0936 -0.210
46.1239 0.569
46.1542 0.098
46.1845 0.721
46.2147 -0.166
46.2450 0.510
46.2753 0.093
46.3056 0.404
46.3359 0.039
46.3661 0.299
46.3964 0.508
46.4267 -0.430
46.4570 -0.221
46.4873 0.294
46.5175 0.341
46.5478 0.596
46.5781 0.383
46.6084 -0.038
46.6386 0.113
46.6689 0.474
46.6992 0.209
46.7295 0.154
46.7598 0.932
46.7900 0.928
46.8203 0.769
46.8506 0.454
46.8809 0.608
46.9112 0.293
46.9414 0.448
46.9717 0.654
47.0020 1.017
47.0323 1.485
47.0626 1.120
47.0928 2.161
47.1231 2.264
47.1534 2.004
47.1837 2.837
47.2139 3.306
47.2442 3.463
47.2745 3.360
47.3048 4.611
47.3351 5.706
47.3653 5.291
47.3956 5.658
47.4259 5.295
47.4562 5.141
47.4865 5.092
47.5167 4.626
47.5470 4.056
47.5773 3.122
47.6076 2.969
47.6378 2.817
47.6681 2.509
47.6984 1.784
47.7287 1.111
47.7590 1.221
47.7892 1.434
47.8195 1.179
47.8498 1.237
47.8801 0.357
47.9104 0.676
47.9406 0.943
47.9709 0.637
48.0012 1.112
48.0315 0.859
48.0617 0.033
48.0920 0.301
48.1223 0.205
48.1526 0.213
48.1829 0.586
48.2131 0.126
48.2434 -0.386
48.2737 0.561
48.3040 0.258
48.3343 0.372
48.3645 0.069
48.3948 -0.077
48.4251 0.246
48.4554 0.152
48.4856 0.215
48.5159 0.435
48.5462 0.238
48.5765 0.718
48.6068 -0.103
48.6370 -0.195
48.6673 0.006
48.6976 0.104
48.7279 0.774
48.7582 0.716
48.7884 0.241
48.8187 0.131
48.8490 0.230
48.8793 0.120
48.9095 0.272
48.9398 0.215
48.9701 0.366
49.0004 0.102
49.0307 0.202
49.0609 0.250
49.0912 0.195
49.1215 -0.069
49.1518 0.292
49.1821 0.290
49.2123 -0.338
49.2426 0.649
49.2729 0.127
49.3032 -0.136
49.3334 0.019
49.3637 0.435
49.3940 0.225
49.4243 -0.088
49.4546 0.224
49.4848 0.015
49.5151 0.432
49.5454 0.432
49.5757 0.224
49.6060 -0.035
49.6362 0.539
49.6665 0.227
49.6968 0.073
49.7271 0.283
49.7574 0.285
49.7876 0.079
49.8179 -0.127
49.8482 -0.072
49.8785 -0.069
49.9087 0.090
49.9390 0.354
49.9693 0.254
49.9996 -0.159
50.0299 -0.311
50.0601 0.204
50.0904 0.406
50.1207 0.453
50.1510 0.083
50.1813 -0.235
50.2115 0.125
50.2418 0.328
50.2721 0.220
50.3024 -0.045
50.3326 0.003
50.3629 0.208
50.3932 0.205
50.4235 -0.059
50.4538 0.199
50.4840 0.352
50.5143 -0.015
50.5446 -0.173
50.5749 0.138
50.6052 -0.020
50.6354 0.030
50.6657 0.290
50.6960 0.185
50.7263 0.445
50.7565 0.027
50.7868 0.132
50.8171 -0.389
50.8474 0.184
50.8777 0.029
50.9079 0.134
50.9382 0.031
50.9685 0.917
50.9988 -0.123
51.0291 0.452
51.0593 0.611
51.0896 0.300
51.1199 -0.062
51.1502 0.254
51.1804 0.153
51.2107 -0.208
51.2410 -0.101
51.2713 0.006
51.3016 0.270
51.3318 0.222
51.3621 0.174
51.3924 0.022
51.4227 -0.338
51.4530 0.187
51.4832 -0.172
51.5135 0.198
51.5438 0.047
51.5741 -0.051
51.6043 -0.202
51.6346 -0.101
51.6649 0.365
51.6952 0.050
51.7255 0.985
51.7557 0.150
51.7860 -0.216
51.8163 0.355
51.8466 0.301
51.8769 -0.012
51.9071 -0.065
51.9374 -0.014
51.9677 0.351
51.9980 0.351
52.0282 0.038
52.0585 0.039
52.0888 0.144
52.1191 0.197
52.1494 -0.427
52.1796 0.460
52.2099 0.409
52.2402 0.255
52.2705 -0.368
52.3008 0.155
52.3310 0.471
52.3613 -0.047
52.3916 -0.200
52.4219 0.272
52.4521 0.328
52.4824 0.175
52.5127 0.284
52.5430 0.236
52.5733 -0.072
52.6035 0.506
52.6338 0.043
52.6641 0.204
52.6944 -0.207
52.7247 -0.162
52.7549 0.144
52.7852 0.190
52.8155 0.340
52.8458 -0.031
52.8761 -0.193
52.9063 0.114
52.9366 -0.047
52.9669 0.156
52.9972 -0.265
53.0274 -0.061
53.0577 0.091
53.0880 0.087
53.1183 -0.282
53.1486 0.131
53.1788 0.128
53.2091 0.334
53.2394 0.070
53.2697 0.068
53.3000 0.066
53.3302 0.272
53.3605 0.062
53.3908 0.061
53.4211 -0.305
53.4513 0.371
53.4816 0.266
53.5119 0.005
53.5422 0.213
53.5725 -0.151
53.6027 0.057
53.6330 0.631
53.6633 -0.202
53.6936 -0.044
53.7239 0.165
53.7541 0.063
53.7844 0.064
53.8147 0.066
53.8450 0.069
53.8752 -0.085
53.9055 0.335
53.9358 -0.131
53.9661 -0.128
53.9964 0.501
54.0266 -0.485
54.0569 0.144
54.0872 0.253
54.1175 -0.003
54.1478 0.002
54.1780 -0.202
54.2083 -0.161
54.2386 0.608
54.2689 0.024
54.2991 0.169
54.3294 -0.050
54.3597 -0.060
54.3900 0.606
54.4203 0.284
54.4505 -0.090
54.4808 0.004
54.5111 0.099
54.5414 0.090
54.5717 0.081
54.6019 0.125
54.6322 -0.248
54.6625 0.473
54.6928 -0.107
54.7230 -0.115
54.7533 -0.174
54.7836 0.392
54.8139 0.177
54.8442 0.430
54.8744 -0.253
54.9047 -0.311
54.9350 0.305
54.9653 -0.173
54.9956 0.079
55.0258 -0.034
55.0561 0.323
55.0864 -0.050
55.1167 -0.005
55.1469 -0.065
55.1772 -0.124
55.2075 -0.183
55.2378 -0.034
55.2681 -0.196
55.2983 0.214
55.3286 0.104
55.3589 -0.214
55.3892 0.770
55.4195 -0.277
55.4497 -0.125
55.4800 0.026
55.5103 -0.239
55.5406 0.017
55.5709 -0.352
55.6011 0.634
55.6314 0.370
55.6617 0.575
55.6920 0.363
55.7222 0.152
55.7525 0.931
55.7828 0.459
55.8131 0.041
55.8434 0.611
55.8736 0.922
55.9039 1.129
55.9342 0.763
55.9645 0.762
55.9948 0.970
56.0250 1.230
56.0553 1.594
56.0856 1.751
56.1159 1.543
56.1461 2.533
56.1764 2.846
56.2067 2.691
56.2370 3.578
56.2673 3.892
56.2975 3.633
56.3278 5.042
56.3581 5.252
56.3884 6.765
56.4187 7.133
56.4489 7.500
56.4792 6.306
56.5095 6.518
56.5398 5.949
56.5700 5.796
56.6003 5.436
56.6306 5.441
56.6609 4.144
56.6912 3.836
56.7214 3.477
56.7517 2.441
56.7820 2.082
56.8123 1.515
56.8426 1.105
56.8728 1.528
56.9031 1.327
56.9334 1.178
56.9637 1.185
56.9939 0.932
57.0242 0.628
57.0545 0.271
57.0848 0.540
57.1151 0.236
57.1453 -0.120
57.1756 0.462
57.2059 0.836
57.2362 0.325
57.2665 0.752
57.2967 0.397
57.3270 -0.165
57.3573 -0.259
57.3876 0.219
57.4178 0.125
57.4481 0.395
57.4784 0.041
57.5087 -0.105
57.5390 0.115
57.5692 -0.083
57.5995 0.554
57.6298 -0.060
57.6601 0.317
57.6904 -0.036
57.7206 -0.128
57.7509 -0.063
57.7812 -0.259
57.8115 0.105
57.8417 0.260
57.8720 -0.001
57.9023 0.519
57.9326 0.415
57.9629 0.259
57.9931 -0.054
58.0234 -0.313
58.0537 0.625
58.0840 0.366
58.1143 -0.050
58.1445 0.368
58.1748 0.058
58.2051 0.320
58.2354 0.010
58.2656 0.065
58.2959 -0.037
58.3262 0.331
58.3565 0.074
58.3868 0.130
58.4170 0.029
58.4473 -0.019
58.4776 0.402
58.5079 -0.010
58.5382 -0.005
58.5684 0.260
58.5987 0.005
58.6290 0.532
58.6593 0.017
58.6896 0.388
58.7198 -0.179
58.7501 0.088
58.7804 -0.218
58.8107 0.310
58.8409 0.005
58.8712 0.065
58.9015 -0.188
58.9318 -0.032
58.9621 0.176
58.9923 0.280
59.0226 0.384
59.0529 0.072
59.0832 0.125
59.1135 0.021
59.1437 -0.030
59.1740 0.545
59.2043 0.234
59.2346 -0.077
59.2648 0.238
59.2951 -0.072
59.3254 -0.122
59.3557 -0.067
59.3860 0.665
59.4162 0.044
59.4465 0.100
59.4768 -0.001
59.5071 0.108
59.5374 -0.096
59.5676 -0.196
59.5979 0.278
59.6282 0.179
59.6585 -0.233
59.6887 -0.133
59.7190 -0.086
59.7493 -0.091
59.7796 0.061
59.8099 0.317
59.8401 0.261
59.8704 -0.003
59.9007 0.150
59.9310 -0.061
59.9613 -0.012
59.9915 0.090
60.0218 0.295
60.0521 -0.071
60.0824 0.083
60.1126 0.394
60.1429 0.132
60.1732 -0.077
60.2035 -0.234
60.2338 0.234
60.2640 0.234
60.2943 -0.079
60.3246 0.234
60.3549 0.078
60.3852 0.339
60.4154 0.027
60.4457 -0.128
60.4760 0.290
60.5063 -0.073
60.5365 0.398
60.5668 -0.121
60.5971 0.038
60.6274 0.197
60.6577 0.044
60.6879 0.203
60.7182 -0.002
60.7485 -0.363
60.7788 0.039
60.8091 0.442
60.8393 0.220
60.8696 0.102
60.8999 0.140
60.9302 0.440
60.9604 0.062
60.9907 -0.055
61.0210 0.037
61.0513 0.129
61.0816 0.273
61.1118 0.210
61.1421 -0.114
61.1724 0.031
61.2027 -0.084
61.2330 -0.095
61.2632 0.051
61.2935 -0.168
61.3238 -0.021
61.3541 0.073
61.3844 0.272
61.4146 -0.206
61.4449 -0.215
61.4752 -0.120
61.5055 -0.078
61.5357 0.017
61.5660 0.425
61.5963 0.104
61.6266 -0.217
61.6569 0.035
61.6871 -0.441
61.7174 0.021
61.7477 0.118
61.7780 0.268
61.8083 -0.363
61.8385 -0.160
61.8688 -0.010
61.8991 -0.015
61.9294 0.084
61.9596 0.965
61.9899 0.179
62.0202 0.175
62.0505 0.431
62.0808 -0.042
62.1110 0.424
62.1413 0.160
62.1716 0.417
62.2019 0.154
62.2322 0.724
62.2624 1.243
62.2927 0.772
62.3230 1.552
62.3533 1.133
62.3835 1.497
62.4138 1.652
62.4441 1.651
62.4744 2.432
62.5047 2.536
62.5349 3.369
62.5652 3.369
62.5955 4.047
62.6258 3.422
62.6561 5.142
62.6863 5.768
62.7166 5.249
62.7469 4.782
62.7772 5.409
62.8074 4.838
62.8377 5.153
62.8680 4.010
62.8983 3.388
62.9286 3.600
62.9588 3.030
62.9891 1.940
63.0194 2.413
63.0497 2.261
63.0800 2.161
63.1102 0.812
63.1405 1.286
63.1708 1.447
63.2011 1.088
63.2313 0.573
63.2616 1.256
63.2919 1.002
63.3222 -0.294
63.3525 -0.026
63.3827 0.501
63.4130 0.248
63.4433 0.256
63.4736 0.003
63.5039 0.376
63.5341 -0.397
63.5644 -0.024
63.5947 0.037
63.6250 -0.215
63.6552 -0.051
63.6855 0.112
63.7158 0.276
63.7461 0.128
63.7764 -0.020
63.8066 -0.220
63.8369 0.257
63.8672 0.370
63.8975 0.171
63.9278 0.545
63.9580 0.398
63.9883 -0.008
64.0186 -0.311
64.0489 0.053
64.0791 -0.052
64.1094 0.104
64.1397 -0.104
64.1700 0.104
64.2003 0.157
64.2305 0.262
64.2608 0.731
64.2911 0.316
64.3214 -0.151
64.3517 -0.202
64.3819 -0.149
64.4122 0.061
64.4425 0.374
64.4728 0.115
64.5031 0.169
64.5333 -0.193
64.5636 -0.191
64.5939 -0.188
64.6242 0.231
64.6544 0.078
64.6847 0.081
64.7150 -0.123
64.7453 0.193
64.7756 -0.272
64.8058 0.097
64.8361 0.258
64.8664 0.211
64.8967 0.007
64.9270 0.325
64.9572 0.487
64.9875 0.545
65.0178 0.030
65.0481 -0.068
65.0783 -0.113
65.1086 0.154
65.1389 0.213
65.1692 0.012
65.1995 0.124
65.2297 0.288
65.2600 0.400
65.2903 0.044
65.3206 -0.104
65.3509 -0.043
65.3811 -0.138
65.4114 -0.180
65.4417 0.012
65.4720 0.152
65.5022 0.501
65.5325 0.173
65.5628 0.314
65.5931 0.143
65.6234 0.128
65.6536 0.270
65.6839 0.100
65.7142 -0.175
65.7445 0.384
65.7748 -0.098
65.8050 -0.111
65.8353 0.085
65.8656 0.436
65.8959 0.372
65.9261 -0.057
65.9564 0.400
65.9867 0.701
66.0170 1.418
66.0473 0.209
66.0775 0.407
66.1078 0.188
66.1381 0.386
66.1684 0.480
66.1987 0.470
66.2289 0.616
66.2592 0.295
66.2895 0.494
66.3198 0.537
66.3500 0.528
66.3803 0.572
66.4106 0.303
66.4409 1.285
66.4712 -0.129
66.5014 0.072
66.5317 0.638
66.5620 0.319
66.5923 -0.001
66.6226 -0.007
66.6528 -0.013
66.6831 -0.019
66.7134 -0.233
66.7437 0.070
66.7739 0.060
66.8042 -0.209
66.8345 -0.218
66.8648 -0.227
66.8951 0.441
66.9253 -0.088
66.9556 -0.044
66.9859 -0.156
67.0162 -0.111
67.0465 0.194
67.0767 -0.073
67.1070 -0.132
67.1373 0.278
67.1676 0.584
67.1978 0.474
67.2281 0.520
67.2584 0.463
67.2887 -0.011
67.3190 0.453
67.3492 -0.073
67.3795 0.600
67.4098 0.543
67.4401 0.852
67.4704 0.796
67.5006 1.001
67.5309 0.529
67.5612 1.099
67.5915 1.617
67.6218 1.979
67.6520 2.498
67.6823 2.496
67.7126 2.546
67.7429 3.690
67.7731 3.533
67.8034 2.907
67.8337 3.479
67.8640 3.374
67.8943 3.010
67.9245 3.374
67.9548 3.479
67.9851 1.969
68.0154 1.657
68.0457 2.023
68.0759 1.816
68.1062 2.130
68.1365 1.819
68.1668 1.509
68.1970 0.678
68.2273 0.836
68.2576 1.308
68.2879 0.946
68.3182 0.533
68.3484 0.901
68.3787 0.853
68.4090 0.544
68.4393 0.028
68.4696 0.397
68.4998 -0.015
68.5301 0.355
68.5604 0.048
68.5907 0.418
68.6209 0.424
68.6512 -0.039
68.6815 0.019
68.7118 0.911
68.7421 0.762
68.7723 1.186
68.8026 1.453
68.8329 1.305
68.8632 1.104
68.8935 1.060
68.9237 1.121
68.9540 1.494
68.9843 1.815
69.0146 1.408
69.0448 1.104
69.0751 1.062
69.1054 0.811
69.1357 0.717
69.1660 0.467
69.1962 1.103
69.2265 0.853
69.2568 0.604
69.2871 0.667
69.3174 0.210
69.3476 0.899
69.3779 0.078
69.4082 0.455
69.4385 -0.157
69.4687 0.064
69.4990 -0.184
69.5293 0.663
69.5596 -0.573
69.5899 -0.091
69.6201 -0.233
69.6504 0.138
69.6807 0.301
69.7110 0.100
69.7413 -0.153
69.7715 0.115
69.8018 0.018
69.8321 -0.078
69.8624 -0.070
69.8926 -0.165
69.9229 0.000
69.9532 0.426
69.9835 0.122
70.0138 0.080
70.0440 0.090
70.0743 0.204
70.1046 0.006
70.1349 -0.140
70.1652 0.027
70.1954 0.246
70.2257 0.049
70.2560 -0.095
70.2863 -0.188
70.3166 0.127
70.3468 -0.183
70.3771 -0.076
70.4074 -0.073
70.4377 0.138
70.4679 -0.119
70.4982 -0.063
70.5285 0.306
70.5588 0.258
70.5891 0.002
70.6193 -0.045
70.6496 0.116
70.6799 -0.243
70.7102 0.283
70.7405 0.237
70.7707 -0.174
70.8010 -0.011
70.8313 -0.005
70.8616 -0.363
70.8918 0.055
70.9221 -0.047
70.9524 -0.097
70.9827 -0.043
71.0130 -0.196
71.0432 0.275
71.0735 0.226
71.1038 -0.187
71.1341 0.077
71.1644 0.237
71.1946 0.032
71.2249 -0.016
71.2552 0.093
71.2855 0.254
71.3157 -0.105
71.3460 0.212
71.3763 0.009
71.4066 -0.037
71.4369 0.125
71.4671 0.496
71.4974 0.190
71.5277 -0.011
71.5580 0.152
71.5883 0.055
71.6185 0.271
71.6488 0.071
71.6791 0.183
71.7094 0.087
71.7396 -0.009
71.7699 -0.156
71.8002 -0.057
71.8305 -0.113
71.8608 -0.014
71.8910 -0.018
71.9213 0.187
71.9516 0.131
71.9819 0.284
72.0122 0.177
72.0424 0.070
72.0727 0.016
72.1030 0.274
72.1333 0.011
72.1635 0.062
72.1938 0.216
72.2241 0.528
72.2544 0.058
72.2847 0.578
72.3149 0.369
72.3452 0.004
72.3755 0.681
72.4058 0.630
72.4361 0.370
72.4663 0.683
72.4966 0.163
72.5269 0.946
72.5572 0.478
72.5874 0.063
72.6177 0.378
72.6480 0.484
72.6783 -0.346
72.7086 0.073
72.7388 0.128
72.7691 0.496
72.7994 0.031
72.8297 0.087
72.8600 0.038
72.8902 0.095
72.9205 -0.057
72.9508 -0.156
72.9811 -0.006
73.0113 0.509
73.0416 0.086
73.0719 -0.023
73.1022 0.232
73.1325 0.071
73.1627 0.170
73.1930 0.322
73.2233 0.110
73.2536 0.054
73.2839 0.102
73.3141 -0.058
73.3444 0.148
73.3747 -0.012
73.4050 0.038
73.4353 0.088
73.4655 0.085
73.4958 -0.021
73.5261 0.030
73.5564 -0.128
73.5866 -0.442
73.6169 0.287
73.6472 -0.026
73.6775 0.077
73.7078 0.181
73.7380 0.338
73.7683 -0.079
73.7986 0.026
73.8289 -0.077
73.8592 0.237
73.8894 -0.179
73.9197 0.031
73.9500 0.033
73.9803 -0.121
74.0105 0.090
74.0408 -0.168
74.0711 0.199
74.1014 -0.058
74.1317 -0.211
74.1619 0.157
74.1922 0.161
74.2225 0.061
74.2528 0.274
74.2831 0.226
74.3133 -0.133
74.3436 -0.180
74.3739 0.185
74.4042 -0.022
74.4344 0.032
74.4647 0.034
74.4950 -0.069
74.5253 0.142
74.5556 0.092
74.5858 0.095
74.6161 -0.006
74.6464 -0.003
74.6767 -0.051
74.7070 0.004
74.7372 0.529
74.7675 0.377
74.7978 0.538
74.8281 0.074
74.8583 0.235
74.8886 0.188
74.9189 -0.067
74.9492 -0.061
74.9795 0.310
75.0097 -0.048
75.0400 -0.094
75.0703 -0.035
75.1006 0.024
75.1309 0.187
75.1611 0.091
75.1914 0.151
75.2217 -0.206
75.2520 -0.110
75.2822 0.195
75.3125 0.239
75.3428 0.388
75.3731 -0.035
75.4034 0.010
75.4336 0.003
75.4639 -0.003
75.4942 0.199
75.5245 0.141
75.5548 0.240
75.5850 0.235
75.6153 0.230
75.6456 -0.192
75.6759 0.064
75.7061 0.112
75.7364 0.056
75.7667 -0.156
75.7970 -0.006
75.8273 0.248
75.8575 0.086
75.8878 0.029
75.9181 0.023
75.9484 -0.034
75.9787 -0.091
76.0089 0.217
76.0392 0.213
76.0695 0.209
76.0998 -0.055
76.1301 0.046
76.1603 -0.010
76.1906 0.508
76.2209 0.089
76.2512 0.451
76.2814 0.397
76.3117 0.134
76.3420 -0.128
76.3723 0.287
76.4026 0.286
76.4328 -0.079
76.4631 0.180
76.4934 0.232
76.5237 0.180
76.5540 -0.289
76.5842 0.649
76.6145 0.962
76.6448 0.390
76.6751 0.651
76.7053 0.496
76.7356 0.706
76.7659 0.083
76.7962 0.085
76.8265 0.816
76.8567 0.350
76.8870 0.770
76.9173 0.044
76.9476 0.672
76.9779 0.311
77.0081 0.211
77.0384 0.475
77.0687 0.271
77.0990 -0.141
77.1292 0.541
77.1595 0.286
77.1898 0.291
77.2201 0.036
77.2504 0.042
77.2806 -0.004
77.3109 -0.206
77.3412 0.060
77.3715 0.170
77.4018 -0.084
77.4320 0.130
77.4623 0.241
77.4926 0.404
77.5229 0.047
77.5531 -0.154
77.5834 -0.002
77.6137 0.097
77.6440 0.145
77.6743 -0.119
77.7045 0.085
77.7348 0.655
77.7651 0.131
77.7954 0.128
77.8257 0.229
77.8559 0.071
77.8862 0.068
77.9165 -0.038
77.9468 0.117
77.9770 -0.145
78.0073 0.218
78.0376 -0.199
78.0679 0.165
78.0982 0.112
78.1284 0.008
78.1587 0.060
78.1890 0.217
78.2193 0.061
78.2496 0.218
78.2798 0.115
78.3101 0.116
78.3404 0.066
78.3707 0.328
78.4009 -0.035
78.4312 0.124
78.4615 0.022
78.4918 -0.131
78.5221 -0.180
78.5523 0.182
78.5826 -0.080
78.6129 0.126
78.6432 0.229
78.6735 0.435
78.7037 0.018
78.7340 0.121
78.7643 0.068
78.7946 0.120
78.8248 -0.089
78.8551 0.172
78.8854 -0.140
78.9157 0.017
78.9460 -0.347
78.9762 0.331
79.0065 0.124
79.0368 0.178
79.0671 0.180
79.0974 -0.026
79.1276 0.028
79.1579 0.291
79.1882 0.607
79.2185 0.089
79.2488 0.144
79.2790 -0.008
79.3093 -0.004
79.3396 -0.104
79.3699 0.108
79.4001 -0.147
79.4304 -0.097
79.4607 0.318
79.4910 -0.101
79.5213 0.211
79.5515 0.106
79.5818 0.105
79.6121 0.156
79.6424 0.312
79.6727 -0.261
79.7029 0.104
79.7332 0.157
79.7635 0.158
79.7938 -0.206
79.8240 -0.108
79.8543 0.303
79.8846 0.089
79.9149 0.031
79.9452 0.234
79.9754 0.542
80.0057 0.121
80.0360 -0.040
80.0663 0.112
80.0966 0.004
80.1268 -0.052
80.1571 -0.107
80.1874 0.098
80.2177 -0.269
80.2479 0.093
80.2782 -0.118
80.3085 -0.120
80.3388 -0.018
80.3691 -0.124
80.3993 0.083
80.4296 -0.022
80.4599 -0.179
80.4902 0.081
80.5205 -0.284
80.5507 -0.024
80.5810 -0.232
80.6113 0.074
80.6416 -0.296
80.6718 0.115
80.7021 0.058
80.7324 0.053
80.7627 -0.160
80.7930 0.096
80.8232 -0.012
80.8535 -0.120
80.8838 -0.020
80.9141 0.133
80.9444 -0.339
80.9746 -0.029
81.0049 0.385
81.0352 0.278
81.0655 -0.349
81.0957 0.118
81.1260 0.273
81.1563 -0.302
81.1866 0.114
81.2169 -0.200
81.2471 0.216
81.2774 0.112
81.3077 0.216
81.3380 0.112
81.3683 0.112
81.3985 0.373
81.4288 0.114
81.4591 0.011
81.4894 -0.248
81.5196 0.118
81.5499 0.015
81.5802 0.486
81.6105 0.437
81.6408 -0.134
81.6710 0.286
81.7013 0.133
81.7316 -0.072
81.7619 0.036
81.7922 0.092
81.8224 -0.165
81.8527 -0.113
81.8830 0.042
81.9133 -0.114
81.9436 -0.114
81.9738 -0.062
82.0041 0.252
82.0344 0.148
82.0647 -0.007
82.0949 0.098
82.1252 -0.056
82.1555 0.050
82.1858 0.156
82.2161 -0.258
82.2463 -0.102
82.2766 0.054
82.3069 0.055
82.3372 0.055
82.3675 0.004
82.3977 -0.047
82.4280 0.163
82.4583 0.061
82.4886 0.063
82.5188 -0.039
82.5491 0.119
82.5794 0.070
82.6097 0.021
82.6400 0.284
82.6702 0.132
82.7005 -0.229
82.7308 0.035
82.7611 0.039
82.7914 0.252
82.8216 -0.004
82.8519 0.001
82.8822 0.059
82.9125 -0.092
82.9427 0.122
82.9730 -0.133
83.0033 0.134
83.0336 0.245
83.0639 -0.113
83.0941 0.154
83.1244 0.162
83.1547 0.169
83.1850 -0.032
83.2153 -0.128
83.2455 -0.015
83.2758 -0.163
83.3061 0.106
83.3364 0.271
83.3666 0.072
83.3969 -0.023
83.4272 -0.013
83.4575 -0.055
83.4878 0.060
83.5180 -0.034
83.5483 -0.128
83.5786 0.075
83.6089 0.173
83.6392 -0.249
83.6694 -0.046
83.6997 0.261
83.7300 0.152
83.7603 0.252
83.7905 -0.065
83.8208 0.139
83.8511 0.344
83.8814 0.184
83.9117 0.128
83.9419 -0.031
83.9722 -0.138
84.0025 -0.039
84.0328 -0.044
84.0631 0.211
84.0933 0.310
84.1236 -0.007
84.1539 0.354
84.1842 0.089
84.2144 0.294
84.2447 0.186
84.2750 0.131
84.3053 0.440
84.3356 0.177
84.3658 0.487
84.3961 0.016
84.4264 -0.038
84.4567 -0.144
84.4870 0.480
84.5172 -0.146
84.5475 -0.147
84.5778 0.159
84.6081 0.153
84.6383 0.148
84.6686 -0.066
84.6989 0.346
84.7292 -0.075
84.7595 -0.080
84.7897 0.280
84.8200 0.120
84.8503 -0.352
84.8806 0.165
84.9109 -0.099
84.9411 0.263
84.9714 0.260
85.0017 -0.003
85.0320 0.359
85.0623 0.305
85.0925 0.147
85.1228 0.094
85.1531 0.093
85.1834 -0.013
85.2136 0.091
85.2439 0.090
85.2742 0.246
85.3045 -0.014
85.3348 -0.170
85.3650 0.091
85.3953 0.040
85.4256 -0.064
85.4559 0.094
85.4862 -0.009
85.5164 0.097
85.5467 0.360
85.5770 -0.055
85.6073 -0.156
85.6375 -0.054
85.6678 0.309
85.6981 0.203
85.7284 0.098
85.7587 -0.008
85.7889 -0.060
85.8192 -0.113
85.8495 -0.061
85.8798 -0.061
85.9101 -0.269
85.9403 0.200
85.9706 -0.008
86.0009 0.306
86.0312 0.047
86.0614 0.100
86.0917 0.102
86.1220 -0.156
86.1523 -0.053
86.1826 0.311
86.2128 0.206
86.2431 -0.107
86.2734 -0.003
86.3037 -0.106
86.3340 -0.002
86.3642 -0.105
86.3945 -0.156
86.4248 0.051
86.4551 -0.158
86.4853 0.049
86.5156 0.101
86.5459 0.205
86.5762 -0.003
86.6065 -0.159
86.6367 0.102
86.6670 -0.001
86.6973 -0.156
86.7276 -0.055
86.7579 -0.007
86.7881 0.303
86.8184 0.300
86.8487 -0.171
86.8790 -0.017
86.9092 -0.123
86.9395 -0.020
86.9698 -0.022
87.0001 0.186
87.0304 -0.336
87.0606 0.340
87.0909 -0.129
87.1212 0.027
87.1515 0.236
87.1818 -0.024
87.2120 -0.076
87.2423 0.082
87.2726 -0.074
87.3029 -0.020
87.3331 0.086
87.3634 0.452
87.3937 0.142
87.4240 0.092
87.4543 0.043
87.4845 -0.163
87.5148 0.101
87.5451 -0.156
87.5754 -0.105
87.6057 0.154
87.6359 -0.055
87.6662 -0.107
87.6965 -0.160
87.7268 0.257
87.7571 0.101
87.7873 0.102
87.8176 0.102
87.8479 0.364
87.8782 -0.156
87.9084 -0.310
87.9387 0.204
87.9690 -0.114
87.9993 0.089
88.0296 0.083
88.0598 0.078
88.0901 -0.031
88.1204 -0.088
88.1507 0.012
88.1810 -0.357
88.2112 0.056
88.2415 0.105
88.2718 -0.055
88.3021 0.046
88.3323 0.043
88.3626 -0.064
88.3929 0.194
88.4232 0.036
88.4535 -0.018
88.4837 0.137
88.5140 0.239
88.5443 -0.022
88.5746 0.029
88.6049 0.497
88.6351 -0.024
88.6654 -0.232
88.6957 0.079
88.7260 0.027
88.7562 0.027
88.7865 0.027
88.8168 0.027
88.8471 0.131
88.8774 -0.284
88.9076 -0.083
88.9379 0.015
88.9682 0.166
88.9985 0.004
89.0288 0.311
89.0590 0.254
89.0893 0.145
89.1196 0.452
89.1499 0.604
89.1801 0.288
89.2104 0.648
89.2407 0.176
89.2710 0.068
89.3013 0.482
89.3315 0.531
89.3618 0.997
89.3921 0.422
89.4224 0.784
89.4527 0.991
89.4829 0.833
89.5132 0.415
89.5435 0.466
89.5738 0.257
89.6040 0.516
89.6343 0.568
89.6646 0.880
89.6949 0.828
89.7252 0.620
89.7554 0.465
89.7857 0.882
89.8160 0.519
89.8463 0.260
89.8766 0.001
89.9068 -0.049
89.9371 0.265
89.9674 -0.045
89.9977 -0.042
90.0279 0.169
90.0582 0.068
90.0885 0.228
90.1188 -0.081
90.1491 0.444
90.1793 0.031
90.2096 -0.173
90.2399 -0.170
90.2702 -0.012
90.3005 -0.113
90.3307 -0.006
90.3610 0.466
90.3913 0.105
90.4216 0.265
90.4518 0.478
90.4821 0.170
90.5124 -0.086
90.5427 0.179
90.5730 0.028
90.6032 0.242
90.6335 0.039
90.6638 0.097
90.6941 0.155
90.7244 -0.047
90.7546 -0.040
90.7849 -0.086
90.8152 -0.183
90.8455 0.189
90.8758 0.041
90.9060 0.100
90.9363 0.057
90.9666 -0.091
90.9969 0.282
91.0271 0.239
91.0574 0.039
91.0877 0.205
91.1180 0.110
91.1483 0.016
91.1785 0.026
91.2088 0.505
91.2391 0.151
91.2694 0.423
91.2997 0.069
91.3299 -0.232
91.3602 -0.036
91.3905 0.316
91.4208 0.304
91.4510 0.084
91.4813 0.333
91.5116 0.374
91.5419 0.155
91.5722 0.249
91.6024 0.134
91.6327 0.384
91.6630 0.010
91.6933 0.312
91.7236 -0.218
91.7538 -0.071
91.7841 0.545
91.8144 -0.036
91.8447 0.164
91.8749 0.208
91.9052 -0.165
91.9355 0.036
91.9658 0.080
91.9961 0.230
92.0263 0.014
92.0566 -0.253
92.0869 0.105
92.1172 0.047
92.1475 -0.063
92.1777 -0.173
92.2080 -0.021
92.2383 0.080
92.2686 0.076
92.2988 -0.292
92.3291 0.278
92.3594 -0.297
92.3897 0.117
92.4200 0.062
92.4502 0.060
92.4805 0.527
92.5108 0.213
92.5411 0.108
92.5714 0.263
92.6016 -0.050
92.6319 0.210
92.6622 0.314
92.6925 0.053
92.7227 0.783
92.7530 -0.050
92.7833 0.107
92.8136 0.316
92.8439 0.265
92.8741 0.007
92.9044 -0.148
92.9347 0.323
92.9650 -0.039
92.9953 0.067
93.0255 0.174
93.0558 0.125
93.0861 -0.080
93.1164 0.236
93.1466 0.188
93.1769 -0.277
93.2072 -0.012
93.2375 -0.060
93.2678 0.049
93.2980 -0.206
93.3283 0.002
93.3586 0.158
93.3889 0.107
93.4192 0.003
93.4494 0.005
93.4797 0.318
93.5100 -0.149
93.5403 0.113
93.5706 0.167
93.6008 -0.247
93.6311 0.380
93.6614 0.019
93.6917 0.126
93.7219 -0.027
93.7522 0.289
93.7825 0.032
93.8128 -0.172
93.8431 0.249
93.8733 0.045
93.9036 0.206
93.9339 0.263
93.9642 0.060
93.9945 -0.091
94.0247 0.071
94.0550 0.077
94.0853 0.032
94.1156 0.194
94.1458 0.097
94.1761 -0.156
94.2064 -0.063
94.2367 0.240
94.2670 0.022
94.2972 -0.301
94.3275 0.263
94.3578 0.306
94.3881 -0.120
94.4184 0.028
94.4486 -0.033
94.4789 0.011
94.5092 0.160
94.5395 0.048
94.5697 0.145
94.6000 0.242
94.6303 0.078
94.6606 0.332
94.6909 -0.091
94.7211 0.215
94.7514 0.366
94.7817 0.464
94.8120 0.876
94.8423 0.193
94.8725 0.449
94.9028 0.236
94.9331 0.075
94.9634 0.332
94.9936 0.848
95.0239 0.741
95.0542 0.425
95.0845 0.578
95.1148 0.054
95.1450 0.989
95.1753 0.883
95.2056 0.412
95.2359 0.618
95.2662 0.721
95.2964 0.355
95.3267 0.406
95.3570 0.405
95.3873 0.508
95.4175 0.196
95.4478 0.352
95.4781 0.560
95.5084 0.352
95.5387 -0.064
95.5689 0.250
95.5992 0.407
95.6295 0.200
95.6598 0.202
95.6901 0.152
95.7203 0.102
95.7506 0.052
95.7809 -0.258
95.8112 0.266
95.8414 -0.096
95.8717 -0.092
95.9020 -0.089
95.9323 0.072
95.9626 0.024
95.9928 0.080
96.0231 -0.019
96.0534 -0.119
96.0837 -0.061
96.1140 0.100
96.1442 -0.259
96.1745 -0.046
96.2048 0.376
96.2351 0.121
96.2653 -0.030
96.2956 -0.077
96.3259 0.189
96.3562 -0.065
96.3865 0.150
96.4167 -0.052
96.4470 0.215
96.4773 0.014
96.5076 0.178
96.5379 -0.023
96.5681 -0.015
96.5984 0.045
96.6287 0.157
96.6590 0.062
96.6893 0.019
96.7195 -0.024
96.7498 0.037
96.7801 0.099
96.8104 -0.100
96.8406 0.119
96.8709 0.025
96.9012 0.244
96.9315 0.203
96.9618 0.422
96.9920 0.017
97.0223 -0.232
97.0526 0.022
97.0829 0.537
97.1132 0.427
97.1434 0.109
97.1737 -0.052
97.2040 0.204
97.2343 0.043
97.2645 0.038
97.2948 0.086
97.3251 0.707
97.3554 0.027
97.3857 0.179
97.4159 0.072
97.4462 0.069
97.4765 0.015
97.5068 0.116
97.5371 0.062
97.5673 0.216
97.5976 0.371
97.6279 0.266
97.6582 0.317
97.6884 0.107
97.7187 0.211
97.7490 0.002
97.7793 0.210
97.8096 -0.362
97.8398 -0.156
97.8701 0.147
97.9004 0.034
97.9307 0.285
97.9610 0.225
97.9912 0.008
98.0215 0.469
98.0518 -0.008
98.0821 0.141
98.1123 -0.075
98.1426 0.126
98.1729 0.328
98.2032 0.113
98.2335 -0.102
98.2637 0.101
98.2940 0.616
98.3243 0.193
98.3546 0.292
98.3849 0.079
98.4151 0.022
98.4454 0.590
98.4757 0.482
98.5060 0.322
98.5362 0.422
98.5665 0.471
98.5968 -0.002
98.6271 -0.005
98.6574 0.357
98.6876 -0.062
98.7179 0.248
98.7482 0.038
98.7785 0.036
98.8088 0.503
98.8390 -0.071
98.8693 0.084
98.8996 0.396
98.9299 0.083
98.9601 0.499
98.9904 -0.073
99.0207 0.083
99.0510 0.031
99.0813 -0.124
99.1115 0.398
99.1418 -0.226
99.1721 -0.120
99.2024 0.246
99.2327 -0.013
99.2629 -0.114
99.2932 0.201
99.3235 0.099
99.3538 0.206
99.3841 0.105
99.4143 -0.047
99.4446 -0.044
99.4749 0.117
99.5052 0.069
99.5354 -0.031
99.5657 0.182
99.5960 -0.021
99.6263 0.088
99.6566 0.042
99.6868 -0.265
99.7171 0.054
99.7474 -0.096
99.7777 0.014
99.8080 -0.031
99.8382 -0.284
99.8685 0.087
99.8988 -0.167
99.9291 0.309
99.9593 -0.152
99.9896 0.116
100.0199 0.124
100.0502 0.080
100.0805 0.036
100.1107 0.045
100.1410 0.106
100.1713 0.167
100.2016 0.021
100.2319 0.135
100.2621 0.249
100.2924 -0.054
100.3227 -0.147
100.3530 -0.045
100.3832 0.370
100.4135 0.108
100.4438 0.055
100.4741 0.210
100.5044 0.158
100.5346 -0.155
100.5649 0.314
100.5952 0.210
100.6255 0.054
100.6558 -0.258
100.6860 -0.001
100.7163 0.568
100.7466 0.461
100.7769 -0.063
100.8071 0.039
100.8374 -0.119
100.8677 0.243
100.8980 0.189
100.9283 -0.073
100.9585 0.134
100.9888 -0.075
101.0191 0.341
101.0494 -0.024
101.0797 0.184
101.1099 0.079
101.1402 -0.129
101.1705 0.288
101.2008 0.133
101.2310 -0.022
101.2613 0.187
101.2916 0.293
101.3219 0.347
101.3522 0.297
101.3824 0.299
101.4127 0.510
101.4430 0.044
101.4733 -0.006
101.5036 0.310
101.5338 0.157
101.5641 0.109
101.5944 -0.147
101.6247 -0.154
101.6549 0.198
101.6852 0.134
101.7155 0.175
101.7458 0.163
101.7761 -0.004
101.8063 0.037
101.8366 0.183
101.8669 -0.036
101.8972 0.474
101.9275 0.256
101.9577 -0.066
101.9880 0.029
102.0183 0.072
102.0486 0.115
102.0788 -0.206
102.1091 -0.061
102.1394 0.032
102.1697 0.125
102.2000 0.166
102.2302 0.052
102.2605 -0.010
102.2908 -0.072
102.3211 0.439
102.3514 0.013
102.3816 -0.101
102.4119 -0.318
102.4422 0.247
102.4725 -0.178
102.5028 0.334
102.5330 0.326
102.5633 0.006
102.5936 -0.053
102.6239 0.200
102.6541 0.402
102.6844 0.603
102.7147 0.076
102.7450 0.018
102.7753 0.377
102.8055 0.475
102.8358 0.209
102.8661 -0.212
102.8964 0.408
102.9267 -0.222
102.9569 -0.070
102.9872 -0.022
103.0175 0.235
103.0478 0.023
103.0780 -0.033
103.1083 0.016
103.1386 -0.143
103.1689 0.011
103.1992 -0.095
103.2294 -0.202
103.2597 0.109
103.2900 0.160
103.3203 -0.102
103.3506 -0.415
103.3808 0.155
103.4111 0.308
103.4414 0.201
103.4717 -0.218
103.5019 -0.064
103.5322 0.038
103.5625 -0.068
103.5928 -0.174
103.6231 0.137
103.6533 -0.020
103.6836 0.240
103.7139 0.083
103.7442 0.343
103.7745 0.291
103.8047 -0.021
103.8350 0.240
103.8653 0.605
103.8956 0.398
103.9258 0.347
103.9561 0.036
103.9864 0.142
104.0167 0.144
104.0470 0.198
104.0772 0.148
104.1075 0.412
104.1378 -0.054
104.1681 0.314
104.1984 0.526
104.2286 0.008
104.2589 -0.092
104.2892 0.329
104.3195 -0.083
104.3497 0.443
104.3800 0.448
104.4103 -0.276
104.4406 -0.062
104.4709 0.100
104.5011 0.314
104.5314 -0.148
104.5617 0.066
104.5920 0.073
104.6223 0.289
104.6525 0.192
104.6828 0.408
104.7131 -0.106
104.7434 0.007
104.7736 0.015
104.8039 0.440
104.8342 -0.228
104.8645 -0.011
104.8948 -0.106
104.9250 0.268
104.9553 -0.086
104.9856 -0.180
105.0159 -0.174
105.0462 0.041
105.0764 0.047
105.1067 0.263
105.1370 0.166
105.1673 -0.295
105.1975 -0.079
105.2278 0.137
105.2581 0.145
105.2884 0.154
105.3187 0.111
105.3489 -0.037
105.3792 -0.027
105.4095 0.138
105.4398 0.096
105.4701 -0.206
105.5003 -0.057
105.5306 0.145
105.5609 0.191
105.5912 0.237
105.6215 0.023
105.6517 0.122
105.6820 -0.092
105.7123 0.111
105.7426 0.107
105.7728 0.102
105.8031 0.306
105.8334 0.094
105.8637 0.246
105.8940 -0.018
105.9242 0.188
105.9545 0.497
105.9848 0.130
106.0151 -0.029
106.0454 -0.135
106.0756 0.071
106.1059 -0.087
106.1362 0.120
106.1665 0.119
106.1967 0.066
106.2270 -0.039
106.2573 0.377
106.2876 -0.092
106.3179 0.064
106.3481 0.117
106.3784 -0.091
106.4087 -0.142
106.4390 -0.037
106.4693 0.224
106.4995 0.070
106.5298 0.124
106.5601 0.438
106.5904 0.076
106.6206 -0.026
106.6509 0.238
106.6812 -0.020
106.7115 -0.173
106.7418 -0.173
106.7720 0.139
106.8023 0.242
106.8326 0.190
106.8629 -0.175
106.8932 0.085
106.9234 0.346
106.9537 0.138
106.9840 0.139
107.0143 -0.016
107.0445 0.037
107.0748 0.143
107.1051 0.249
107.1354 0.042
107.1657 0.149
107.1959 -0.317
107.2262 0.102
107.2565 0.209
107.2868 0.056
107.3171 0.060
107.3473 0.168
107.3776 0.068
107.4079 0.124
107.4382 0.181
107.4684 -0.023
107.4987 0.086
107.5290 -0.117
107.5593 0.045
107.5896 -0.053
107.6198 0.109
107.6501 0.219
107.6804 0.226
107.7107 0.025
107.7410 0.292
107.7712 0.612
107.8015 0.255
107.8318 0.002
107.8621 0.166
107.8923 -0.138
107.9226 0.548
107.9529 0.088
107.9832 0.097
108.0135 -0.206
108.0437 -0.058
108.0740 0.247
108.1043 0.031
108.1346 0.285
108.1649 0.278
108.1951 -0.042
108.2254 -0.308
108.2557 0.154
108.2860 0.305
108.3163 -0.014
108.3465 -0.071
108.3768 0.132
108.4071 0.335
108.4374 0.487
108.4676 -0.247
108.4979 0.114
108.5282 -0.202
108.5585 0.263
108.5888 0.155
108.6190 0.204
108.6493 0.253
108.6796 0.094
108.7099 0.509
108.7402 0.038
108.7704 0.088
108.8007 0.347
108.8310 0.241
108.8613 0.240
108.8915 0.135
108.9218 -0.022
108.9521 -0.127
108.9824 0.186
109.0127 0.238
109.0429 0.030
109.0732 0.499
109.1035 0.240
109.1338 -0.071
109.1641 0.138
109.1943 0.504
109.2246 -0.015
109.2549 -0.117
109.2852 0.303
109.3154 0.045
109.3457 0.204
109.3760 -0.053
109.4063 -0.206
109.4366 0.097
109.4668 0.037
109.4971 0.133
109.5274 0.333
109.5577 0.013
109.5880 0.058
109.6182 -0.054
109.6485 0.147
109.6788 0.193
109.7091 0.186
109.7393 0.180
109.7696 -0.086
109.7999 0.064
109.8302 0.215
109.8605 0.366
109.8907 0.101
109.9210 -0.060
109.9513 -0.065
109.9816 0.400
110.0119 -0.021
110.0421 0.132
110.0724 0.180
110.1027 0.750
110.1330 0.330
110.1632 0.171
110.1935 -0.196
110.2238 0.219
110.2541 -0.044
110.2844 0.111
110.3146 0.630
110.3449 -0.204
110.3752 0.472
110.4055 0.107
110.4358 -0.050
110.4660 0.366
110.4963 0.210
110.5266 0.315
110.5569 0.367
110.5871 0.576
110.6174 0.109
110.6477 0.214
110.6780 0.112
110.7083 0.166
110.7385 0.011
110.7688 0.066
110.7991 0.329
110.8294 0.019
110.8597 0.543
110.8899 0.026
110.9202 -0.023
110.9505 0.241
110.9808 -0.015
111.0110 0.041
111.0413 0.202
111.0716 0.311
111.1019 0.108
111.1322 0.009
111.1624 0.067
111.1927 0.281
111.2230 0.287
111.2533 -0.175
111.2836 0.144
111.3138 0.203
111.3441 -0.103
111.3744 -0.095
111.4047 0.485
111.4350 -0.080
111.4652 0.189
111.4955 -0.063
111.5258 -0.107
111.5561 0.162
111.5863 0.328
111.6166 0.077
111.6469 0.034
111.6772 0.096
111.7075 -0.310
111.7377 -0.055
111.7680 -0.112
111.7983 0.144
111.8286 -0.277
111.8589 -0.021
111.8891 0.028
111.9194 0.128
111.9497 0.073
111.9800 0.278
112.0102 0.067
112.0405 0.168
112.0708 0.322
112.1011 0.268
112.1314 -0.046
112.1616 -0.256
112.1919 0.264
112.2222 0.002
112.2525 0.053
112.2828 0.001
112.3130 0.052
112.3433 -0.364
112.3736 0.105
112.4039 -0.155
112.4341 0.106
112.4644 -0.102
112.4947 -0.100
112.5250 0.318
112.5553 0.111
112.5855 -0.043
112.6158 0.011
112.6461 -0.038
112.6764 -0.088
112.7067 0.332
112.7369 0.127
112.7672 0.338
112.7975 0.134
112.8278 0.398
112.8580 -0.014
112.8883 0.251
112.9186 -0.265
112.9489 -0.156
112.9792 0.152
113.0094 -0.111
113.0397 0.146
113.0700 -0.066
113.1003 0.088
113.1306 0.346
113.1608 -0.073
113.1911 0.185
113.2214 0.183
113.2517 0.182
113.2819 0.233
113.3122 -0.029
113.3425 0.127
113.3728 -0.082
113.4031 0.230
113.4333 0.230
113.4636 0.022
113.4939 0.335
113.5242 -0.133
113.5545 -0.080
113.5847 0.234
113.6150 -0.181
113.6453 0.133
113.6756 0.083
113.7058 -0.019
113.7361 -0.068
113.7664 0.091
113.7967 0.250
113.8270 0.357
113.8572 -0.160
113.8875 -0.156
113.9178 0.095
113.9481 0.034
113.9784 -0.340
114.0086 0.381
114.0389 0.060
114.0692 -0.053
114.0995 -0.009
114.1298 0.244
114.1600 0.028
114.1903 0.282
114.2206 -0.142
114.2509 0.060
114.2811 0.418
114.3114 -0.057
114.3417 0.250
114.3720 -0.068
114.4023 0.239
114.4325 0.286
114.4628 0.072
114.4931 0.172
114.5234 0.116
114.5537 0.059
114.5839 0.107
114.6142 -0.052
114.6445 -0.056
114.6748 -0.111
114.7050 -0.218
114.7353 0.300
114.7656 0.142
114.7959 0.244
114.8262 0.450
114.8564 0.448
114.8867 -0.178
114.9170 0.029
114.9473 -0.076
114.9776 -0.024
115.0078 -0.129
115.0381 0.288
115.0684 -0.181
115.0987 -0.180
115.1289 -0.034
115.1592 0.166
115.1895 0.105
115.2198 -0.269
115.2501 0.192
115.2803 0.288
115.3106 0.019
115.3409 -0.092
115.3712 0.317
115.4015 0.518
115.4317 0.251
115.4620 0.348
115.4923 -0.231
115.5226 0.075
115.5528 0.330
115.5831 -0.092
115.6134 -0.098
115.6437 0.210
115.6740 -0.108
115.7042 0.200
115.7345 0.144
115.7648 -0.017
115.7951 0.032
115.8254 0.184
115.8556 0.077
115.8859 -0.031
115.9162 -0.085
115.9465 0.381
115.9767 -0.195
116.0070 0.168
116.0373 0.426
116.0676 -0.200
116.0979 0.163
116.1281 0.110
116.1584 0.161
116.1887 0.317
116.2190 0.316
116.2493 0.368
116.2795 0.889
116.3098 0.473
116.3401 0.682
116.3704 0.371
116.4006 0.007
116.4309 0.165
116.4612 0.219
116.4915 0.377
116.5218 0.587
116.5520 0.694
116.5823 0.228
116.6126 0.491
116.6429 0.234
116.6732 0.133
116.7034 0.137
116.7337 0.245
116.7640 0.405
116.7943 0.514
116.8245 0.467
116.8548 0.263
116.8851 -0.252
116.9154 -0.195
116.9457 -0.088
116.9759 0.175
117.0062 0.282
117.0365 0.129
117.0668 0.289
117.0971 0.397
117.1273 0.089
117.1576 -0.219
117.1879 0.098
117.2182 -0.054
117.2485 -0.153
117.2787 -0.043
117.3090 0.066
117.3393 -0.136
117.3696 0.131
117.3998 0.501
117.4301 -0.065
117.4604 0.202
117.4907 -0.051
117.5210 0.008
117.5512 -0.140
117.5815 0.024
117.6118 -0.072
117.6421 0.301
117.6724 -0.211
117.7026 -0.046
117.7329 -0.193
117.7632 0.285
117.7935 0.086
117.8237 0.200
117.8540 0.366
117.8843 0.220
117.9146 0.179
117.9449 0.242
117.9751 -0.111
118.0054 0.212
118.0357 0.016
118.0660 0.028
118.0963 0.040
118.1265 -0.156
118.1568 -0.006
118.1871 0.040
118.2174 0.398
118.2476 -0.024
118.2779 0.231
118.3082 0.017
118.3385 0.065
118.3688 0.164
118.3990 0.212
118.4293 -0.001
118.4596 -0.005
118.4899 0.252
118.5202 -0.064
118.5504 0.089
118.5807 0.139
118.6110 -0.177
118.6413 0.394
118.6715 0.340
118.7018 0.182
118.7321 0.545
118.7624 0.127
118.7927 0.438
118.8229 -0.084
118.8532 -0.084
118.8835 -0.137
118.9138 0.176
118.9441 -0.137
118.9743 0.072
119.0046 0.229
119.0349 0.073
119.0652 -0.134
119.0954 0.076
119.1257 -0.027
119.1560 0.079
119.1863 0.290
119.2166 0.032
119.2468 -0.070
119.2771 0.246
119.3074 0.197
119.3377 0.044
119.3680 0.568
119.3982 0.208
119.4285 0.108
119.4588 0.008
119.4891 0.273
119.5193 0.070
119.5496 0.127
119.5799 -0.180
119.6102 -0.088
119.6405 0.214
119.6707 -0.006
119.7010 0.348
119.7313 0.546
119.7616 -0.142
119.7919 0.265
119.8221 -0.109
119.8524 -0.119
119.8827 -0.337
119.9130 0.088
119.9433 0.097
119.9735 -0.467
120.0038 0.000
