'Id: "" Comment: "" Operator: "Lab Manager" Anode: "Cu" Scantype: "Locked Coupled" TimePerStep: "19.2" X: "9999" Y: "9999" Z: "9999" 
10.0015 0.000
10.0318 0.191
10.0620 0.487
10.0923 0.158
10.1226 -0.067
10.1529 0.490
10.1832 -0.255
10.2134 0.406
10.2437 0.131
10.2740 -0.353
10.3043 -0.146
10.3346 0.478
10.3648 0.164
10.3951 0.216
10.4254 0.007
10.4557 -0.149
10.4859 1.049
10.5162 0.008
10.5465 0.008
10.5768 1.312
10.6071 0.584
10.6373 0.637
10.6676 0.222
10.6979 0.433
10.7282 0.071
10.7585 0.646
10.7887 0.284
10.8190 -0.077
10.8493 1.124
10.8796 0.451
10.9098 1.184
10.9401 0.615
10.9704 0.776
11.0007 0.937
11.0310 1.150
11.0612 1.676
11.0915 0.328
11.1218 1.167
11.1521 1.017
11.1824 0.919
11.2126 -0.325
11.2429 0.568
11.2732 0.887
11.3035 0.269
11.3337 1.163
11.3640 0.754
11.3943 -0.696
11.4246 0.406
11.4549 0.467
11.4851 0.007
11.5154 0.068
11.5457 -0.391
11.5760 0.556
11.6063 0.097
11.6365 0.524
11.6668 0.014
11.6971 0.181
11.7274 0.401
11.7577 0.881
11.7879 0.632
11.8182 0.852
11.8485 0.500
11.8788 0.721
11.9090 0.369
11.9393 -0.452
11.9696 0.343
11.9999 0.460
12.0302 0.318
12.0604 0.540
12.0907 0.190
12.1210 1.194
12.1513 0.636
12.1816 0.703
12.2118 -0.063
12.2421 0.369
12.2724 0.385
12.3027 0.506
12.3329 0.470
12.3632 0.539
12.3935 0.868
12.4238 0.781
12.4541 0.070
12.4843 0.035
12.5146 -0.416
12.5449 -0.011
12.5752 0.394
12.6055 0.278
12.6357 -0.045
12.6660 0.465
12.6963 -0.015
12.7266 0.339
12.7568 0.642
12.7871 0.215
12.8174 -0.263
12.8477 1.290
12.8780 0.864
12.9082 0.230
12.9385 -0.195
12.9688 -0.307
12.9991 0.205
13.0294 0.354
13.0596 0.867
13.0899 0.027
13.1202 0.436
13.1505 0.013
13.1807 -0.358
13.2110 0.209
13.2413 -0.578
13.2716 0.406
13.3019 0.296
13.3321 0.447
13.3624 -0.235
13.3927 -0.187
13.4230 -0.087
13.4533 0.221
13.4835 0.686
13.5138 0.058
13.5441 -0.050
13.5744 -0.053
13.6046 -0.628
13.6349 0.619
13.6652 -0.581
13.6955 -0.010
13.7258 -0.220
13.7560 0.352
13.7863 -0.743
13.8166 0.246
13.8469 0.245
13.8772 0.036
13.9074 -0.745
13.9377 0.089
13.9680 -0.067
13.9983 0.558
14.0285 -0.118
14.0588 0.873
14.0891 0.354
14.1194 0.460
14.1497 0.670
14.1799 -0.577
14.2102 0.884
14.2405 0.522
14.2708 -0.152
14.3011 0.268
14.3313 0.428
14.3616 1.161
14.3919 1.738
14.4222 1.482
14.4524 1.643
14.4827 1.752
14.5130 1.653
14.5433 2.492
14.5736 1.769
14.6038 1.619
14.6341 0.896
14.6644 0.746
14.6947 1.065
14.7250 0.812
14.7552 1.132
14.7855 -0.162
14.8158 0.262
14.8461 0.010
14.8764 -0.086
14.9066 -0.598
14.9369 0.139
14.9672 0.564
14.9975 1.041
15.0277 -0.252
15.0580 -0.035
15.0883 0.339
15.1186 0.609
15.1489 1.244
15.1791 0.160
15.2094 0.847
15.2397 0.129
15.2700 0.452
15.3003 -0.006
15.3305 0.006
15.3608 -0.295
15.3911 -0.023
15.4214 0.614
15.4516 -0.103
15.4819 0.014
15.5122 -0.650
15.5425 0.038
15.5728 0.361
15.6030 -0.045
15.6333 0.331
15.6636 0.551
15.6939 0.094
15.7242 -0.206
15.7544 0.640
15.7847 0.079
15.8150 -0.168
15.8453 -0.676
15.8755 0.204
15.9058 -0.217
15.9361 0.403
15.9664 -0.070
15.9967 -0.023
16.0269 -0.026
16.0572 -0.551
16.0875 0.175
16.1178 -0.089
16.1481 -0.248
16.1783 0.479
16.2086 0.268
16.2389 0.266
16.2692 0.681
16.2994 -0.102
16.3297 0.522
16.3600 0.469
16.3903 0.259
16.4206 0.728
16.4508 -0.158
16.4811 0.155
16.5114 0.415
16.5417 -0.001
16.5720 0.208
16.6022 -0.624
16.6325 -0.155
16.6628 0.157
16.6931 -0.103
16.7233 0.731
16.7536 0.316
16.7839 -0.152
16.8142 0.006
16.8445 -0.149
16.8747 0.010
16.9050 0.637
16.9353 0.171
16.9656 0.278
16.9959 -0.032
17.0261 0.909
17.0564 0.079
17.0867 0.344
17.1170 0.035
17.1472 -0.481
17.1775 0.149
17.2078 0.831
17.2381 -0.310
17.2684 -0.669
17.2986 0.378
17.3289 -0.189
17.3592 -0.078
17.3895 0.345
17.4198 -0.221
17.4500 0.255
17.4803 0.158
17.5106 -0.303
17.5409 0.798
17.5712 0.129
17.6014 0.033
17.6317 0.198
17.6620 0.572
17.6923 -0.409
17.7225 -0.035
17.7528 -0.285
17.7831 0.082
17.8134 -0.383
17.8437 0.193
17.8739 0.614
17.9042 0.462
17.9345 0.258
17.9648 0.627
17.9951 1.048
18.0253 0.480
18.0556 0.225
18.0859 -0.446
18.1162 -0.075
18.1464 0.504
18.1767 -0.427
18.2070 0.569
18.2373 0.524
18.2676 0.375
18.2978 -0.086
18.3281 0.026
18.3584 -0.227
18.3887 -0.271
18.4190 0.092
18.4492 0.195
18.4795 -0.015
18.5098 -0.120
18.5401 0.504
18.5703 0.035
18.6006 0.452
18.6309 1.181
18.6612 0.140
18.6915 0.505
18.7217 0.506
18.7520 0.038
18.7823 0.144
18.8126 0.250
18.8429 0.043
18.8731 0.254
18.9034 -0.004
18.9337 0.259
18.9640 0.054
18.9942 -0.151
19.0245 0.581
19.0548 0.533
19.0851 0.589
19.1154 0.698
19.1456 0.859
19.1759 0.134
19.2062 0.139
19.2365 0.666
19.2668 0.255
19.2970 0.104
19.3273 -0.514
19.3576 0.013
19.3879 0.176
19.4181 0.079
19.4484 1.388
19.4787 0.302
19.5090 0.258
19.5393 0.266
19.5695 0.274
19.5998 0.126
19.6301 0.343
19.6604 0.092
19.6907 -0.315
19.7209 0.215
19.7512 0.277
19.7815 -0.025
19.8118 0.819
19.8420 0.621
19.8723 1.153
19.9026 0.018
19.9329 0.551
19.9632 0.875
19.9934 0.523
20.0237 1.108
20.0540 0.964
20.0843 -0.377
20.1146 0.573
20.1448 0.170
20.1751 -0.389
20.2054 -0.140
20.2357 0.630
20.2659 0.775
20.2962 0.400
20.3265 0.755
20.3568 0.849
20.3871 0.683
20.4173 0.257
20.4476 0.247
20.4779 0.603
20.5082 -0.135
20.5385 0.221
20.5687 0.005
20.5990 0.153
20.6293 0.458
20.6596 -0.122
20.6899 0.235
20.7201 0.437
20.7504 -0.038
20.7807 0.164
20.8110 0.366
20.8412 0.464
20.8715 -0.323
20.9018 0.037
20.9321 -0.176
20.9624 0.392
20.9926 0.231
21.0229 0.123
21.0532 0.171
21.0835 -0.354
21.1138 0.528
21.1440 0.369
21.1743 0.679
21.2046 -0.366
21.2349 0.101
21.2651 -0.214
21.2954 0.253
21.3257 0.200
21.3560 0.042
21.3863 0.250
21.4165 -0.012
21.4468 0.248
21.4771 0.092
21.5074 0.613
21.5377 -0.116
21.5679 -0.584
21.5982 0.406
21.6285 -0.061
21.6588 0.930
21.6890 0.254
21.7193 0.152
21.7496 -0.054
21.7799 0.521
21.8102 0.420
21.8404 0.267
21.8707 -0.147
21.9010 -0.143
21.9313 0.225
21.9616 -0.187
21.9918 0.442
22.0221 -0.022
22.0524 0.399
22.0827 0.248
22.1129 -0.111
22.1432 -0.105
22.1735 -0.047
22.2038 -0.198
22.2341 0.382
22.2643 0.753
22.2946 0.291
22.3249 0.246
22.3552 -0.006
22.3855 -0.311
22.4157 0.053
22.4460 -0.156
22.4763 0.416
22.5066 -0.157
22.5368 0.364
22.5671 0.000
22.5974 0.001
22.6277 -0.571
22.6580 0.211
22.6882 0.369
22.7185 0.006
22.7488 -0.148
22.7791 -0.250
22.8094 -0.152
22.8396 -0.002
22.8699 0.461
22.9002 -0.170
22.9305 0.658
22.9607 -0.077
22.9910 -0.134
23.0213 -0.086
23.0516 0.170
23.0819 0.009
23.1121 -0.255
23.1424 -0.051
23.1727 0.517
23.2030 0.045
23.2333 -0.063
23.2635 0.038
23.2938 0.659
23.3241 0.084
23.3544 0.654
23.3846 -0.390
23.4149 0.285
23.4452 0.127
23.4755 -0.448
23.5058 -0.032
23.5360 0.488
23.5663 -0.451
23.5966 0.122
23.6269 0.226
23.6572 -0.087
23.6874 -0.138
23.7177 -0.242
23.7480 0.071
23.7783 -0.136
23.8086 -0.030
23.8388 0.127
23.8691 0.181
23.8994 -0.493
23.9297 -0.130
23.9599 0.182
23.9902 0.026
24.0205 0.130
24.0508 0.286
24.0811 0.131
24.1113 0.079
24.1416 -0.440
24.1719 0.655
24.2022 -0.385
24.2325 0.137
24.2627 0.139
24.2930 -0.275
24.3233 -0.012
24.3536 0.460
24.3838 0.255
24.4141 -0.054
24.4444 0.262
24.4747 -0.255
24.5050 -0.463
24.5352 0.319
24.5655 -0.045
24.5958 0.685
24.6261 0.166
24.6564 0.219
24.6866 -0.143
24.7169 0.171
24.7472 0.070
24.7775 0.593
24.8077 0.023
24.8380 -0.234
24.8683 -0.126
24.8986 -0.435
24.9289 0.194
24.9591 -0.218
24.9894 0.463
25.0197 -0.157
25.0500 0.317
25.0803 -0.042
25.1105 0.015
25.1408 0.021
25.1711 -0.441
25.2014 0.016
25.2316 0.317
25.2619 0.514
25.2922 0.191
25.3225 0.284
25.3528 0.170
25.3830 1.045
25.4133 0.775
25.4436 1.026
25.4739 1.225
25.5042 0.955
25.5344 1.155
25.5647 1.459
25.5950 2.180
25.6253 1.859
25.6555 1.748
25.6858 3.146
25.7161 2.775
25.7464 4.070
25.7767 3.699
25.8069 3.328
25.8372 3.009
25.8675 3.055
25.8978 2.268
25.9281 0.909
25.9583 0.487
25.9886 1.160
26.0189 1.259
26.0492 -0.099
26.0794 0.678
26.1097 1.404
26.1400 0.931
26.1703 0.564
26.2006 0.821
26.2308 0.506
26.2611 -0.069
26.2914 0.189
26.3217 0.083
26.3520 0.290
26.3822 0.080
26.4125 -0.077
26.4428 0.026
26.4731 0.182
26.5034 -0.339
26.5336 0.546
26.5639 -0.651
26.5942 0.391
26.6245 0.548
26.6547 -0.076
26.6850 0.134
26.7153 0.344
26.7456 0.189
26.7759 0.243
26.8061 -0.015
26.8364 -0.220
26.8667 -0.061
26.8970 0.150
26.9273 -0.159
26.9575 -0.155
26.9878 0.422
27.0181 0.166
27.0484 -0.038
27.0786 0.540
27.1089 0.493
27.1392 0.290
27.1695 -0.173
27.1998 0.145
27.2300 -0.266
27.2603 -0.111
27.2906 -0.268
27.3209 0.252
27.3512 0.252
27.3814 0.616
27.4117 0.355
27.4420 0.199
27.4723 0.200
27.5025 0.409
27.5328 -0.215
27.5631 -0.266
27.5934 0.199
27.6237 -0.326
27.6539 0.192
27.6842 0.188
27.7145 0.237
27.7448 0.078
27.7751 -0.133
27.8053 0.490
27.8356 0.540
27.8659 -0.295
27.8962 0.693
27.9264 -0.193
27.9567 0.118
27.9870 0.066
28.0173 -0.091
28.0476 -0.039
28.0778 -0.195
28.1081 0.118
28.1384 0.952
28.1687 0.223
28.1990 -0.505
28.2292 0.539
28.2595 0.644
28.2898 0.230
28.3201 -0.028
28.3503 0.391
28.3806 0.029
28.4109 0.345
28.4412 0.504
28.4715 0.456
28.5017 -0.426
28.5320 -0.266
28.5623 0.182
28.5926 0.525
28.6229 -0.485
28.6531 0.692
28.6834 0.047
28.7137 0.235
28.7440 0.476
28.7742 0.144
28.8045 0.958
28.8348 0.210
28.8651 0.503
28.8954 -0.192
28.9256 0.779
28.9559 0.345
28.9862 0.067
29.0165 -0.211
29.0468 1.126
29.0770 1.161
29.1073 1.196
29.1376 1.024
29.1679 1.112
29.1981 2.242
29.2284 1.862
29.2587 2.055
29.2890 2.509
29.3193 2.911
29.3495 3.677
29.3798 4.496
29.4101 6.878
29.4404 5.146
29.4707 7.580
29.5009 8.036
29.5312 6.513
29.5615 6.917
29.5918 4.665
29.6221 5.174
29.6523 3.391
29.6826 2.859
29.7129 2.379
29.7432 0.961
29.7734 0.846
29.8037 1.252
29.8340 0.773
29.8643 0.451
29.8946 1.275
29.9248 -0.037
29.9551 0.423
29.9854 0.205
30.0157 0.718
30.0460 0.241
30.0762 0.441
30.1065 0.068
30.1368 0.165
30.1671 0.626
30.1973 -0.318
30.2276 -0.117
30.2579 -0.227
30.2882 0.027
30.3185 -0.344
30.3487 0.171
30.3790 -0.251
30.4093 -0.048
30.4396 0.156
30.4699 0.151
30.5001 1.084
30.5304 0.716
30.5607 0.191
30.5910 -0.333
30.6212 -0.394
30.6515 0.849
30.6818 0.216
30.7121 1.199
30.7424 0.150
30.7726 1.029
30.8029 0.189
30.8332 0.183
30.8635 0.646
30.8938 1.526
30.9240 1.729
30.9543 1.776
30.9846 1.875
31.0149 2.860
31.0451 1.710
31.0754 1.758
31.1057 3.161
31.1360 3.522
31.1663 2.738
31.1965 3.881
31.2268 5.388
31.2571 5.698
31.2874 5.332
31.3177 8.194
31.3479 9.651
31.3782 11.369
31.4085 12.097
31.4388 14.960
31.4690 20.168
31.4993 22.251
31.5296 26.158
31.5599 33.606
31.5902 34.804
31.6204 35.013
31.6507 31.629
31.6810 30.641
31.7113 25.955
31.7416 21.165
31.7718 16.480
31.8021 13.201
31.8324 12.110
31.8627 8.883
31.8929 8.366
31.9232 7.953
31.9535 6.967
31.9838 4.939
32.0141 4.267
32.0443 3.854
32.0746 2.505
32.1049 2.562
32.1352 2.828
32.1655 2.573
32.1957 2.371
32.2260 1.752
32.2563 1.446
32.2866 1.921
32.3169 1.042
32.3471 1.623
32.3774 1.317
32.4077 2.054
32.4380 1.541
32.4682 0.716
32.4985 1.558
32.5288 0.473
32.5591 0.430
32.5894 0.492
32.6196 -0.332
32.6499 0.563
32.6802 1.146
32.7105 0.323
32.7408 0.334
32.7710 0.501
32.8013 0.720
32.8316 0.367
32.8619 0.223
32.8921 0.443
32.9224 0.455
32.9527 0.207
32.9830 0.324
33.0133 0.181
33.0435 1.184
33.0738 0.364
33.1041 0.117
33.1344 -0.494
33.1647 -0.093
33.1949 0.412
33.2252 0.240
33.2555 -0.661
33.2858 -0.103
33.3160 0.091
33.3463 -0.445
33.3766 0.062
33.4069 0.360
33.4372 -0.747
33.4674 0.021
33.4977 0.060
33.5280 0.359
33.5583 0.763
33.5886 -0.082
33.6188 0.322
33.6491 0.310
33.6794 -0.378
33.7097 0.287
33.7399 0.016
33.7702 0.213
33.8005 0.411
33.8308 0.245
33.8611 0.912
33.8913 1.319
33.9216 1.309
33.9519 1.560
33.9822 1.604
34.0125 2.428
34.0427 1.951
34.0730 4.547
34.1033 7.977
34.1336 9.688
34.1638 12.545
34.1941 17.121
34.2244 22.583
34.2547 21.848
34.2850 22.310
34.3152 18.554
34.3455 14.746
34.3758 9.637
34.4061 7.861
34.4364 4.679
34.4666 2.643
34.4969 1.805
34.5272 1.749
34.5575 1.588
34.5877 1.637
34.6180 1.946
34.6483 1.422
34.6786 0.378
34.7089 0.427
34.7391 0.216
34.7694 1.048
34.7997 0.421
34.8300 0.315
34.8603 0.418
34.8905 0.209
34.9208 0.052
34.9511 0.520
34.9814 0.781
35.0116 0.468
35.0419 0.469
35.0722 0.105
35.1025 0.366
35.1328 0.523
35.1630 0.629
35.1933 0.735
35.2236 1.101
35.2539 0.687
35.2842 1.783
35.3144 0.848
35.3447 1.685
35.3750 1.896
35.4053 1.796
35.4356 1.487
35.4658 2.064
35.4961 2.068
35.5264 2.021
35.5567 2.911
35.5869 2.395
35.6172 4.328
35.6475 5.583
35.6778 4.652
35.7081 4.398
35.7383 5.810
35.7686 6.963
35.7989 9.470
35.8292 9.581
35.8595 12.193
35.8897 12.618
35.9200 17.469
35.9503 19.613
35.9806 22.955
36.0108 27.547
36.0411 34.171
36.0714 35.691
36.1017 37.732
36.1320 36.648
36.1622 36.189
36.1925 33.335
36.2228 25.273
36.2531 23.461
36.2834 17.587
36.3136 14.786
36.3439 12.558
36.3742 9.445
36.4045 8.728
36.4347 6.657
36.4650 5.472
36.4953 4.912
36.5256 4.717
36.5559 3.950
36.5861 3.130
36.6164 2.936
36.6467 2.222
36.6770 2.809
36.7073 1.053
36.7375 1.693
36.7678 0.928
36.7981 1.100
36.8284 1.428
36.8586 1.497
36.8889 0.784
36.9192 0.697
36.9495 0.974
36.9798 0.679
37.0100 0.176
37.0403 1.548
37.0706 0.733
37.1009 0.439
37.1312 0.353
37.1614 1.101
37.1917 0.704
37.2220 1.036
37.2523 -0.038
37.2825 1.075
37.3128 0.054
37.3431 -0.290
37.3734 -0.179
37.4037 0.036
37.4339 -0.269
37.4642 0.624
37.4945 0.006
37.5248 0.119
37.5551 0.023
37.5853 0.187
37.6156 0.352
37.6459 -0.211
37.6762 0.267
37.7064 0.120
37.7367 -0.078
37.7670 -0.068
37.7973 0.411
37.8276 -0.308
37.8578 0.224
37.8881 -0.494
37.9184 0.351
37.9487 0.310
37.9790 0.062
38.0092 0.283
38.0395 0.087
38.0698 0.464
38.1001 0.529
38.1304 0.386
38.1606 -0.173
38.1909 0.205
38.2212 -0.406
38.2515 0.182
38.2817 -0.012
38.3120 0.055
38.3423 -0.138
38.3726 0.086
38.4029 -0.003
38.4331 0.221
38.4634 -0.023
38.4937 -0.267
38.5240 0.115
38.5543 -0.285
38.5845 -0.075
38.6148 -0.125
38.6451 0.346
38.6754 -0.329
38.7056 0.091
38.7359 0.510
38.7662 0.514
38.7965 0.569
38.8268 -0.208
38.8570 0.160
38.8873 0.269
38.9176 0.065
38.9479 0.018
38.9782 -0.029
39.0084 0.029
39.0387 -0.174
39.0690 0.144
39.0993 0.046
39.1295 -0.208
39.1598 0.476
39.1901 -0.038
39.2204 -0.239
39.2507 0.078
39.2809 0.290
39.3112 0.086
39.3415 -0.170
39.3718 0.200
39.4021 0.361
39.4323 0.314
39.4626 -0.045
39.4929 0.274
39.5232 0.071
39.5534 0.286
39.5837 -0.228
39.6140 0.612
39.6443 -0.422
39.6746 0.210
39.7048 -0.094
39.7351 0.278
39.7654 0.443
39.7957 0.035
39.8260 0.304
39.8562 0.105
39.8865 -0.146
39.9168 0.019
39.9471 -0.023
39.9773 -0.221
40.0076 0.049
40.0379 0.684
40.0682 0.069
40.0985 -0.233
40.1287 -0.028
40.1590 -0.188
40.1893 -0.087
40.2196 -0.247
40.2499 0.219
40.2801 -0.096
40.3104 0.215
40.3407 0.369
40.3710 0.211
40.4012 0.053
40.4315 -0.104
40.4618 0.103
40.4921 -0.106
40.5224 -0.002
40.5526 -0.106
40.5829 -0.106
40.6132 -0.210
40.6435 0.207
40.6738 -0.208
40.7040 -0.416
40.7343 0.315
40.7646 0.265
40.7949 0.058
40.8251 0.061
40.8554 0.011
40.8857 0.535
40.9160 0.121
40.9463 -0.240
40.9765 0.284
41.0068 0.444
41.0371 -0.281
41.0674 0.140
41.0977 -0.063
41.1279 -0.215
41.1582 -0.009
41.1885 -0.167
41.2188 0.301
41.2491 0.403
41.2793 0.559
41.3096 -0.224
41.3399 0.036
41.3702 0.036
41.4004 -0.172
41.4307 0.193
41.4610 0.141
41.4913 0.142
41.5216 -0.638
41.5518 0.040
41.5821 0.510
41.6124 -0.113
41.6427 -0.215
41.6730 0.043
41.7032 -0.011
41.7335 -0.482
41.7638 0.610
41.7941 -0.121
41.8243 -0.331
41.8546 0.293
41.8849 0.292
41.9152 -0.333
41.9455 0.135
41.9757 -0.542
42.0060 0.240
42.0363 0.396
42.0666 -0.071
42.0969 0.346
42.1271 0.400
42.1574 0.349
42.1877 -0.118
42.2180 0.145
42.2482 -0.009
42.2785 0.202
42.3088 -0.160
42.3391 0.260
42.3694 0.212
42.3996 -0.149
42.4299 0.271
42.4602 0.015
42.4905 0.280
42.5208 0.285
42.5510 -0.283
42.5813 0.347
42.6116 0.249
42.6419 0.202
42.6721 0.000
42.7024 -0.150
42.7327 0.065
42.7630 0.020
42.7933 -0.025
42.8235 0.451
42.8538 -0.010
42.8841 0.103
42.9144 -0.202
42.9447 -0.101
42.9749 -0.051
43.0052 0.259
43.0355 0.204
43.0658 0.098
43.0960 -0.112
43.1263 -0.218
43.1566 0.354
43.1869 0.614
43.2172 -0.220
43.2474 0.404
43.2777 0.352
43.3080 0.300
43.3383 0.301
43.3686 -0.428
43.3988 -0.062
43.4291 0.147
43.4594 -0.112
43.4897 0.098
43.5199 0.517
43.5502 0.311
43.5805 -0.051
43.6108 -0.101
43.6411 -0.202
43.6713 0.005
43.7016 0.368
43.7319 1.148
43.7622 0.105
43.7925 0.105
43.8227 0.000
43.8530 0.052
43.8833 0.573
43.9136 0.156
43.9439 0.157
43.9741 -0.363
44.0044 -0.111
44.0347 -0.068
44.0650 -0.024
44.0952 0.384
44.1255 0.324
44.1558 -0.048
44.1861 -0.055
44.2164 0.250
44.2466 0.452
44.2769 -0.180
44.3072 -0.134
44.3375 0.068
44.3678 -0.042
44.3980 0.213
44.4283 0.000
44.4586 0.203
44.4889 0.355
44.5191 -0.223
44.5494 -0.071
44.5797 0.603
44.6100 0.495
44.6403 0.179
44.6705 0.541
44.7008 0.590
44.7311 0.744
44.7614 1.106
44.7917 0.791
44.8219 0.425
44.8522 0.996
44.8825 0.370
44.9128 0.786
44.9430 0.993
44.9733 0.993
45.0036 0.732
45.0339 0.628
45.0642 0.420
45.0944 0.421
45.1247 0.578
45.1550 0.475
45.1853 0.112
45.2156 0.166
45.2458 0.011
45.2761 0.326
45.3064 0.068
45.3367 0.436
45.3669 0.178
45.3972 0.390
45.4275 0.133
45.4578 -0.280
45.4881 0.037
45.5183 0.041
45.5486 -0.215
45.5789 -0.173
45.6092 0.494
45.6395 0.588
45.6697 0.058
45.7000 -0.212
45.7303 -0.221
45.7606 -0.028
45.7908 -0.095
45.8211 -0.109
45.8514 0.553
45.8817 -0.034
45.9120 0.213
45.9422 0.356
45.9725 -0.178
46.0028 -0.087
46.0331 -0.100
46.0634 0.200
46.0936 -0.020
46.1239 0.020
46.1542 -0.200
46.1845 0.101
46.2147 0.454
46.2450 -0.130
46.2753 -0.244
46.3056 0.006
46.3359 0.204
46.3661 -0.066
46.3964 0.081
46.4267 0.176
46.4570 0.323
46.4873 0.054
46.5175 0.046
46.5478 -0.223
46.5781 0.134
46.6084 0.699
46.6386 0.275
46.6689 0.008
46.6992 0.574
46.7295 0.672
46.7598 0.405
46.7900 -0.018
46.8203 0.498
46.8506 0.805
46.8809 0.851
46.9112 -0.039
46.9414 0.269
46.9717 0.994
47.0020 1.406
47.0323 1.038
47.0626 1.451
47.0928 1.083
47.1231 1.757
47.1534 0.817
47.1837 2.064
47.2139 2.218
47.2442 2.841
47.2745 3.048
47.3048 3.203
47.3351 3.722
47.3653 3.305
47.3956 3.512
47.4259 3.356
47.4562 2.782
47.4865 2.418
47.5167 1.950
47.5470 2.627
47.5773 2.212
47.6076 1.223
47.6378 1.329
47.6681 1.226
47.6984 1.124
47.7287 1.022
47.7590 1.754
47.7892 1.340
47.8195 0.406
47.8498 0.357
47.8801 0.777
47.9104 0.260
47.9406 0.264
47.9709 -0.200
48.0012 0.325
48.0315 0.174
48.0617 0.960
48.0920 0.810
48.1223 0.086
48.1526 0.300
48.1829 -0.110
48.2131 0.157
48.2434 -0.045
48.2737 -0.090
48.3040 0.438
48.3343 -0.283
48.3645 -0.223
48.3948 -0.059
48.4251 -0.259
48.4554 0.107
48.4856 0.110
48.5159 0.164
48.5462 0.115
48.5765 0.274
48.6068 0.017
48.6370 -0.240
48.6673 0.285
48.6976 -0.180
48.7279 0.033
48.7582 0.194
48.7884 0.303
48.8187 -0.056
48.8490 0.105
48.8793 -0.097
48.9095 -0.092
48.9398 0.123
48.9701 0.546
49.0004 -0.124
49.0307 -0.169
49.0609 -0.110
49.0912 0.366
49.1215 0.218
49.1518 0.434
49.1821 0.443
49.2123 -0.017
49.2426 0.044
49.2729 -0.468
49.3032 0.114
49.3334 0.124
49.3637 0.030
49.3940 -0.064
49.4243 0.154
49.4546 0.009
49.4848 0.280
49.5151 0.083
49.5454 0.147
49.5757 0.471
49.6060 -0.454
49.6362 -0.077
49.6665 -0.221
49.6968 0.035
49.7271 0.291
49.7574 0.443
49.7876 -0.082
49.8179 0.279
49.8482 0.120
49.8785 0.169
49.9087 0.062
49.9390 -0.097
49.9693 -0.048
49.9996 0.211
50.0299 0.678
50.0601 -0.053
50.0904 0.154
50.1207 0.101
50.1510 0.048
50.1813 0.048
50.2115 -0.317
50.2418 0.048
50.2721 -0.108
50.3024 0.049
50.3326 -0.106
50.3629 0.155
50.3932 -0.104
50.4235 -0.206
50.4538 -0.100
50.4840 -0.150
50.5143 -0.148
50.5446 0.064
50.5749 0.379
50.6052 0.434
50.6354 0.021
50.6657 0.025
50.6960 0.394
50.7263 -0.123
50.7565 0.142
50.7868 -0.061
50.8171 -0.160
50.8474 -0.259
50.8777 0.211
50.9079 0.004
50.9382 -0.203
50.9685 -0.149
50.9988 0.217
51.0291 0.011
51.0593 0.795
51.0896 -0.088
51.1199 0.072
51.1502 0.544
51.1804 -0.286
51.2107 0.030
51.2410 0.138
51.2713 0.195
51.3016 -0.165
51.3318 0.152
51.3621 0.053
51.3924 0.111
51.4227 0.117
51.4530 0.279
51.4832 0.545
51.5135 0.031
51.5438 -0.014
51.5741 0.201
51.6043 0.417
51.6346 0.268
51.6649 0.328
51.6952 0.284
51.7255 0.501
51.7557 0.249
51.7860 0.050
51.8163 -0.202
51.8466 -0.057
51.8769 0.193
51.9071 0.130
51.9374 0.120
51.9677 0.162
51.9980 0.256
52.0282 -0.066
52.0585 -0.023
52.0888 0.332
52.1191 0.167
52.1494 0.055
52.1796 0.671
52.2099 -0.014
52.2402 0.031
52.2705 0.075
52.3008 0.172
52.3310 0.217
52.3613 0.315
52.3916 0.100
52.4219 0.042
52.4521 -0.120
52.4824 0.187
52.5127 0.077
52.5430 0.072
52.5733 0.171
52.6035 0.271
52.6338 0.006
52.6641 -0.050
52.6944 -0.158
52.7247 -0.109
52.7549 -0.060
52.7852 -0.167
52.8155 0.559
52.8458 -0.381
52.8761 -0.070
52.9063 0.084
52.9366 -0.022
52.9669 0.289
52.9972 -0.285
53.0274 -0.129
53.0577 0.131
53.0880 0.234
53.1183 0.339
53.1486 0.287
53.1788 0.027
53.2091 -0.181
53.2394 0.133
53.2697 -0.074
53.3000 -0.125
53.3302 -0.227
53.3605 -0.024
53.3908 0.752
53.4211 -0.138
53.4513 0.430
53.4816 0.165
53.5119 -0.047
53.5422 -0.103
53.5725 -0.159
53.6027 0.359
53.6330 0.355
53.6633 0.405
53.6936 0.194
53.7239 0.296
53.7541 -0.227
53.7844 0.344
53.8147 -0.178
53.8450 -0.075
53.8752 0.028
53.9055 0.288
53.9358 -0.181
53.9661 0.027
53.9964 -0.129
54.0266 -0.129
54.0569 0.236
54.0872 -0.231
54.1175 0.134
54.1478 -0.125
54.1780 -0.175
54.2083 0.140
54.2386 -0.119
54.2689 -0.168
54.2991 -0.009
54.3294 0.046
54.3597 0.101
54.3900 0.157
54.4203 0.057
54.4505 0.582
54.4808 0.117
54.5111 -0.295
54.5414 0.231
54.5717 0.132
54.6019 -0.227
54.6322 -0.189
54.6625 -0.047
54.6928 0.148
54.7230 0.239
54.7533 0.434
54.7836 0.369
54.8139 -0.112
54.8442 0.188
54.8744 -0.032
54.9047 0.112
54.9350 0.309
54.9653 0.298
54.9956 0.339
55.0258 -0.349
55.0561 0.579
55.0864 0.152
55.1167 0.402
55.1469 -0.076
55.1772 0.540
55.2075 -0.407
55.2378 0.626
55.2681 -0.320
55.2983 0.036
55.3286 0.236
55.3589 0.333
55.3892 -0.404
55.4195 0.214
55.4497 -0.053
55.4800 -0.112
55.5103 -0.015
55.5406 0.031
55.5709 -0.183
55.6011 0.437
55.6314 0.275
55.6617 0.739
55.6920 0.005
55.7222 0.260
55.7525 0.100
55.7828 0.252
55.8131 0.352
55.8434 0.141
55.8736 0.554
55.9039 0.603
55.9342 0.392
55.9645 0.858
55.9948 1.221
56.0250 0.750
56.0553 2.051
56.0856 2.101
56.1159 2.361
56.1461 2.516
56.1764 2.307
56.2067 3.401
56.2370 3.765
56.2673 5.067
56.2975 7.203
56.3278 7.881
56.3581 7.570
56.3884 8.821
56.4187 7.885
56.4489 9.137
56.4792 11.014
56.5095 9.141
56.5398 8.467
56.5700 7.324
56.6003 7.900
56.6306 5.195
56.6609 6.032
56.6912 4.057
56.7214 4.477
56.7517 3.440
56.7820 3.028
56.8123 1.939
56.8426 1.320
56.8728 2.263
56.9031 1.487
56.9334 1.545
56.9637 1.135
56.9939 0.256
57.0242 0.784
57.0545 0.583
57.0848 0.694
57.1151 0.129
57.1453 0.137
57.1756 0.718
57.2059 0.466
57.2362 0.423
57.2665 -0.089
57.2967 0.441
57.3270 0.034
57.3573 -0.061
57.3876 0.106
57.4178 -0.040
57.4481 0.231
57.4784 -0.175
57.5087 -0.060
57.5390 -0.361
57.5692 0.276
57.5995 -0.286
57.6298 0.039
57.6601 0.364
57.6904 0.116
57.7206 -0.339
57.7509 0.195
57.7812 -0.209
57.8115 -0.195
57.8417 -0.233
57.8720 0.249
57.9023 0.367
57.9326 -0.088
57.9629 -0.231
57.9931 0.148
58.0234 0.111
58.0537 0.125
58.0840 0.192
58.1143 -0.105
58.1445 -0.089
58.1748 0.499
58.2051 0.203
58.2354 -0.041
58.2656 -0.233
58.2959 0.073
58.3262 0.171
58.3565 0.269
58.3868 -0.049
58.4170 -0.107
58.4473 -0.165
58.4776 0.039
58.5079 0.190
58.5382 0.290
58.5684 0.077
58.5987 0.281
58.6290 0.226
58.6593 0.118
58.6896 -0.041
58.7198 -0.044
58.7501 0.161
58.7804 0.055
58.8107 -0.260
58.8409 0.051
58.8712 0.205
58.9015 -0.213
58.9318 0.046
58.9621 -0.215
58.9923 -0.059
59.0226 -0.060
59.0529 0.200
59.0832 -0.061
59.1135 0.252
59.1437 -0.060
59.1740 0.253
59.2043 -0.163
59.2346 -0.006
59.2648 0.308
59.2951 -0.159
59.3254 0.051
59.3557 -0.311
59.3860 0.004
59.4162 0.215
59.4465 0.114
59.4768 0.117
59.5071 -0.088
59.5374 -0.137
59.5676 0.128
59.5979 -0.233
59.6282 -0.087
59.6585 0.007
59.6887 -0.211
59.7190 0.196
59.7493 0.030
59.7796 0.178
59.8099 0.169
59.8401 -0.100
59.8704 -0.265
59.9007 0.300
59.9310 -0.124
59.9613 -0.496
59.9915 0.330
60.0218 -0.094
60.0521 -0.048
60.0824 0.050
60.1126 0.252
60.1429 -0.171
60.1732 0.396
60.2035 -0.338
60.2338 -0.031
60.2640 0.069
60.2943 -0.196
60.3246 0.737
60.3549 -0.361
60.3852 0.417
60.4154 -0.056
60.4457 0.306
60.4760 -0.010
60.5063 -0.169
60.5365 -0.119
60.5668 0.452
60.5971 -0.071
60.6274 0.240
60.6577 -0.595
60.6879 0.133
60.7182 -0.128
60.7485 0.236
60.7788 -0.077
60.8091 -0.233
60.8393 -0.038
60.8696 0.575
60.8999 0.094
60.9302 -0.179
60.9604 0.434
60.9907 0.058
61.0210 0.047
61.0513 0.296
61.0816 0.181
61.1118 0.014
61.1421 0.160
61.1724 0.202
61.2027 0.661
61.2330 -0.025
61.2632 0.903
61.2935 1.363
61.3238 1.250
61.3541 0.356
61.3844 0.817
61.4146 0.340
61.4449 0.541
61.4752 0.638
61.5055 0.891
61.5357 0.676
61.5660 0.617
61.5963 0.455
61.6266 0.761
61.6569 0.443
61.6871 -0.239
61.7174 -0.088
61.7477 -0.198
61.7780 -0.202
61.8083 -0.050
61.8385 0.310
61.8688 0.358
61.8991 0.250
61.9294 0.143
61.9596 -0.173
61.9899 -0.123
62.0202 -0.022
62.0505 -0.024
62.0808 0.182
62.1110 0.441
62.1413 0.491
62.1716 0.594
62.2019 0.177
62.2322 0.540
62.2624 1.009
62.2927 0.436
62.3230 0.436
62.3533 0.644
62.3835 1.947
62.4138 1.479
62.4441 1.689
62.4744 2.576
62.5047 2.734
62.5349 2.163
62.5652 2.738
62.5955 2.324
62.6258 2.899
62.6561 4.048
62.6863 4.312
62.7166 3.794
62.7469 4.111
62.7772 4.740
62.8074 3.807
62.8377 3.395
62.8680 3.452
62.8983 3.561
62.9286 2.212
62.9588 1.645
62.9891 1.651
63.0194 0.719
63.0497 1.455
63.0800 1.306
63.1102 0.479
63.1405 0.591
63.1708 0.963
63.2011 0.658
63.2313 0.666
63.2616 0.570
63.2919 0.370
63.3222 -0.037
63.3525 0.388
63.3827 0.189
63.4130 -0.165
63.4433 0.209
63.4736 0.167
63.5039 -0.031
63.5341 0.292
63.5644 -0.061
63.5947 -0.154
63.6250 -0.143
63.6552 0.078
63.6855 -0.171
63.7158 0.466
63.7461 0.062
63.7764 0.075
63.8066 -0.016
63.8369 -0.003
63.8672 -0.041
63.8975 -0.079
63.9278 0.091
63.9580 -0.259
63.9883 -0.038
64.0186 -0.077
64.0489 0.249
64.0791 -0.311
64.1094 0.016
64.1397 -0.022
64.1700 0.200
64.2003 0.059
64.2305 0.282
64.2608 -0.484
64.2911 -0.208
64.3214 -0.055
64.3517 -0.005
64.3819 -0.007
64.4122 -0.114
64.4425 0.093
64.4728 -0.065
64.5031 0.299
64.5333 0.090
64.5636 0.037
64.5939 0.245
64.6242 0.140
64.6544 -0.224
64.6847 0.714
64.7150 0.298
64.7453 0.247
64.7756 -0.012
64.8058 -0.011
64.8361 0.147
64.8664 0.045
64.8967 0.151
64.9270 0.206
64.9572 0.053
64.9875 -0.048
65.0178 0.163
65.0481 -0.198
65.0783 0.535
65.1086 0.071
65.1389 0.075
65.1692 -0.285
65.1995 -0.024
65.2297 0.393
65.2600 0.133
65.2903 0.134
65.3206 0.292
65.3509 -0.227
65.3811 0.191
65.4114 0.245
65.4417 -0.325
65.4720 0.146
65.5022 0.097
65.5325 0.048
65.5628 -0.105
65.5931 0.003
65.6234 -0.202
65.6536 -0.006
65.6839 0.190
65.7142 0.022
65.7445 0.323
65.7748 0.208
65.8050 0.353
65.8353 0.134
65.8656 0.280
65.8959 0.790
65.9261 0.312
65.9564 0.354
65.9867 0.605
66.0170 0.960
66.0473 0.899
66.0775 0.839
66.1078 0.935
66.1381 1.031
66.1684 0.502
66.1987 1.588
66.2289 1.112
66.2592 0.272
66.2895 0.838
66.3198 0.102
66.3500 1.137
66.3803 0.663
66.4106 1.230
66.4409 0.860
66.4712 0.334
66.5014 0.121
66.5317 0.637
66.5620 0.320
66.5923 -0.049
66.6226 0.052
66.6528 -0.056
66.6831 0.097
66.7134 0.094
66.7437 0.091
66.7739 0.297
66.8042 0.190
66.8345 0.084
66.8648 0.082
66.8951 0.029
66.9253 -0.233
66.9556 -0.085
66.9859 -0.094
67.0162 0.210
67.0465 0.203
67.0767 0.091
67.1070 0.240
67.1373 0.128
67.1676 0.538
67.1978 -0.093
67.2281 -0.048
67.2584 0.623
67.2887 1.034
67.3190 0.977
67.3492 0.867
67.3795 0.706
67.4098 1.014
67.4401 0.905
67.4704 1.682
67.5006 1.678
67.5309 2.352
67.5612 2.817
67.5915 2.085
67.6218 2.551
67.6520 2.965
67.6823 3.119
67.7126 4.366
67.7429 3.479
67.7731 4.467
67.8034 5.247
67.8337 4.517
67.8640 4.204
67.8943 4.412
67.9245 3.995
67.9548 2.849
67.9851 3.110
68.0154 3.319
68.0457 2.955
68.0759 2.487
68.1062 2.489
68.1365 1.553
68.1668 1.607
68.1970 1.401
68.2273 1.455
68.2576 0.625
68.2879 0.940
68.3182 0.839
68.3484 0.947
68.3787 0.378
68.4090 0.434
68.4393 1.011
68.4696 0.443
68.4998 0.552
68.5301 0.505
68.5604 0.614
68.5907 1.036
68.6209 0.990
68.6512 0.996
68.6815 1.419
68.7118 1.322
68.7421 1.693
68.7723 1.597
68.8026 1.969
68.8329 1.924
68.8632 1.672
68.8935 2.461
68.9237 2.991
68.9540 1.906
68.9843 2.384
69.0146 1.976
69.0448 2.142
69.0751 1.996
69.1054 1.902
69.1357 1.496
69.1660 0.985
69.1962 1.048
69.2265 1.633
69.2568 1.384
69.2871 1.083
69.3174 0.834
69.3476 0.742
69.3779 0.443
69.4082 0.195
69.4385 1.041
69.4687 0.273
69.4990 0.235
69.5293 0.197
69.5596 0.732
69.5899 0.277
69.6201 -0.229
69.6504 0.255
69.6807 0.791
69.7110 0.181
69.7413 -0.168
69.7715 0.369
69.8018 0.437
69.8321 -0.484
69.8624 0.054
69.8926 0.227
69.9229 0.036
69.9532 -0.206
69.9835 0.000
70.0138 -0.002
70.0440 0.100
70.0743 0.359
70.1046 0.410
70.1349 0.409
70.1652 0.044
70.1954 0.147
70.2257 -0.321
70.2560 -0.009
70.2863 -0.060
70.3166 0.044
70.3468 0.410
70.3771 -0.110
70.4074 0.413
70.4377 -0.002
70.4679 0.156
70.4982 -0.206
70.5285 -0.103
70.5588 0.209
70.5891 0.052
70.6193 0.104
70.6496 0.261
70.6799 0.157
70.7102 -0.311
70.7405 -0.107
70.7707 0.877
70.8010 0.143
70.8313 -0.017
70.8616 0.135
70.8918 -0.025
70.9221 0.128
70.9524 0.072
70.9827 0.017
71.0130 0.067
71.0432 0.064
71.0735 0.218
71.1038 -0.305
71.1341 0.319
71.1644 0.265
71.1946 -0.101
71.2249 -0.101
71.2552 -0.102
71.2855 0.158
71.3157 0.106
71.3460 -0.311
71.3763 -0.052
71.4066 0.000
71.4369 0.416
71.4671 0.207
71.4974 0.103
71.5277 0.363
71.5580 -0.053
71.5883 0.208
71.6185 -0.104
71.6488 -0.155
71.6791 0.159
71.7094 0.109
71.7396 0.475
71.7699 -0.251
71.8002 0.064
71.8305 0.170
71.8608 0.121
71.8910 -0.188
71.9213 -0.134
71.9516 0.128
71.9819 -0.183
72.0122 0.028
72.0424 0.082
72.0727 0.085
72.1030 -0.224
72.1333 -0.013
72.1635 0.095
72.1938 0.671
72.2241 -0.106
72.2544 0.419
72.2847 0.268
72.3149 0.325
72.3452 0.434
72.3755 0.491
72.4058 -0.024
72.4361 0.243
72.4663 0.665
72.4966 -0.057
72.5269 0.470
72.5572 0.061
72.5874 0.172
72.6177 0.232
72.6480 0.083
72.6783 -0.065
72.7086 0.412
72.7388 0.004
72.7691 0.169
72.7994 0.543
72.8297 0.552
72.8600 0.093
72.8902 -0.001
72.9205 -0.043
72.9508 0.384
72.9811 0.238
73.0113 0.093
73.0416 -0.156
73.0719 -0.060
73.1022 0.193
73.1325 0.602
73.1627 0.231
73.1930 0.067
73.2233 0.217
73.2536 0.107
73.2839 0.309
73.3141 0.147
73.3444 0.142
73.3747 0.136
73.4050 0.236
73.4353 -0.238
73.4655 0.018
73.4958 0.274
73.5261 0.323
73.5564 0.215
73.5866 -0.153
73.6169 0.208
73.6472 0.049
73.6775 0.151
73.7078 0.149
73.7380 0.407
73.7683 -0.064
73.7986 0.143
73.8289 -0.014
73.8592 -0.015
73.8894 -0.224
73.9197 0.296
73.9500 -0.069
73.9803 -0.173
74.0105 -0.120
74.0408 0.194
74.0711 -0.014
74.1014 -0.012
74.1317 -0.219
74.1619 0.356
74.1922 -0.006
74.2225 -0.003
74.2528 -0.001
74.2831 -0.310
74.3133 0.110
74.3436 0.062
74.3739 0.170
74.4042 0.018
74.4344 0.022
74.4647 0.079
74.4950 -0.177
74.5253 0.089
74.5556 0.042
74.5858 -0.004
74.6161 -0.206
74.6464 0.050
74.6767 -0.058
74.7070 -0.010
74.7372 0.039
74.7675 0.192
74.7978 0.033
74.8281 0.082
74.8583 -0.180
74.8886 -0.032
74.9189 0.064
74.9492 0.005
74.9795 0.050
75.0097 0.251
75.0400 -0.120
75.0703 0.290
75.1006 -0.029
75.1309 0.017
75.1611 -0.145
75.1914 -0.150
75.2217 0.105
75.2520 -0.160
75.2822 0.200
75.3125 -0.273
75.3428 -0.121
75.3731 -0.073
75.4034 -0.180
75.4336 -0.080
75.4639 -0.448
75.4942 0.330
75.5245 -0.089
75.5548 0.012
75.5850 0.478
75.6153 -0.097
75.6456 0.006
75.6759 0.056
75.7061 -0.258
75.7364 0.314
75.7667 0.053
75.7970 0.261
75.8273 0.000
75.8575 -0.260
75.8878 0.157
75.9181 -0.103
75.9484 -0.467
75.9787 0.153
76.0089 -0.163
76.0392 0.197
76.0695 -0.119
76.0998 -0.123
76.1301 0.239
76.1603 0.079
76.1906 -0.080
76.2209 0.230
76.2512 -0.189
76.2814 0.070
76.3117 0.381
76.3420 -0.038
76.3723 0.326
76.4026 0.012
76.4328 0.481
76.4631 0.272
76.4934 -0.041
76.5237 0.220
76.5540 0.116
76.5842 -0.039
76.6145 0.118
76.6448 -0.089
76.6751 0.537
76.7053 -0.294
76.7356 0.437
76.7659 0.335
76.7962 0.494
76.8265 0.601
76.8567 -0.125
76.8870 0.295
76.9173 0.246
76.9476 0.302
76.9779 0.567
77.0081 0.154
77.0384 0.055
77.0687 0.216
77.0990 -0.091
77.1292 0.227
77.1595 0.389
77.1898 0.343
77.2201 0.505
77.2504 0.407
77.2806 0.362
77.3109 0.161
77.3412 -0.248
77.3715 0.228
77.4018 0.392
77.4320 0.504
77.4623 0.096
77.4926 0.105
77.5229 0.478
77.5531 -0.190
77.5834 -0.180
77.6137 0.233
77.6440 0.126
77.6743 0.123
77.7045 -0.348
77.7348 0.223
77.7651 0.013
77.7954 0.220
77.8257 0.270
77.8559 0.061
77.8862 -0.252
77.9165 0.164
77.9468 -0.149
77.9770 0.164
78.0073 -0.096
78.0376 0.008
78.0679 0.009
78.0982 0.271
78.1284 0.116
78.1587 -0.039
78.1890 0.015
78.2193 0.382
78.2496 0.124
78.2798 0.022
78.3101 -0.392
78.3404 0.289
78.3707 -0.020
78.4009 0.296
78.4312 -0.117
78.4615 -0.165
78.4918 0.099
78.5221 -0.159
78.5523 -0.155
78.5826 0.005
78.6129 0.009
78.6432 0.013
78.6735 0.122
78.7037 0.127
78.7340 0.236
78.7643 0.085
78.7946 0.039
78.8248 0.565
78.8551 0.259
78.8854 0.005
78.9157 0.480
78.9460 -0.138
78.9762 -0.078
79.0065 -0.019
79.0368 0.458
79.0671 0.257
79.0974 0.109
79.1276 0.274
79.1579 -0.186
79.1882 -0.125
79.2185 0.718
79.2488 0.623
79.2790 -0.044
79.3093 -0.138
79.3396 -0.045
79.3699 0.100
79.4001 0.194
79.4304 0.288
79.4607 0.381
79.4910 0.580
79.5213 0.466
79.5515 0.457
79.5818 0.135
79.6121 0.126
79.6424 -0.091
79.6727 0.213
79.7029 -0.211
79.7332 0.145
79.7635 -0.227
79.7938 0.235
79.8240 0.124
79.8543 0.429
79.8846 0.423
79.9149 -0.052
79.9452 0.150
79.9754 0.145
80.0057 0.191
80.0360 0.030
80.0663 -0.131
80.0966 0.177
80.1268 -0.192
80.1571 0.220
80.1874 0.112
80.2177 -0.152
80.2479 0.366
80.2782 0.102
80.3085 0.256
80.3388 -0.007
80.3691 0.095
80.3993 -0.011
80.4296 0.456
80.4599 0.090
80.4902 -0.068
80.5205 -0.173
80.5507 -0.071
80.5810 -0.073
80.6113 -0.022
80.6416 0.081
80.6718 0.444
80.7021 0.027
80.7324 0.286
80.7627 0.130
80.7930 0.130
80.8232 0.182
80.8535 -0.078
80.8838 -0.025
80.9141 -0.285
80.9444 0.080
80.9746 -0.337
81.0049 0.132
81.0352 0.080
81.0655 0.028
81.0957 -0.023
81.1260 0.134
81.1563 0.448
81.1866 0.658
81.2169 0.139
81.2471 0.402
81.2774 0.300
81.3077 0.147
81.3380 0.254
81.3683 -0.003
81.3985 0.261
81.4288 0.004
81.4591 -0.044
81.4894 0.064
81.5196 0.017
81.5499 -0.030
81.5802 0.027
81.6105 0.084
81.6408 -0.119
81.6710 -0.165
81.7013 0.041
81.7316 0.039
81.7619 0.246
81.7922 -0.068
81.8224 -0.069
81.8527 -0.018
81.8830 -0.279
81.9133 0.137
81.9436 -0.176
81.9738 -0.020
82.0041 -0.019
82.0344 0.242
82.0647 -0.226
82.0949 -0.017
82.1252 0.193
82.1555 0.039
82.1858 -0.116
82.2161 0.043
82.2463 0.253
82.2766 -0.160
82.3069 -0.001
82.3372 -0.415
82.3675 0.053
82.3977 0.051
82.4280 -0.054
82.4583 0.049
82.4886 0.153
82.5188 -0.108
82.5491 -0.056
82.5794 -0.003
82.6097 -0.003
82.6400 0.050
82.6702 0.051
82.7005 0.105
82.7308 0.367
82.7611 0.004
82.7914 0.058
82.8216 -0.148
82.8519 0.271
82.8822 0.066
82.9125 0.382
82.9427 0.125
82.9730 -0.080
83.0033 0.028
83.0336 0.137
83.0639 0.297
83.0941 0.094
83.1244 0.047
83.1547 -0.156
83.1850 -0.214
83.2153 0.249
83.2455 -0.016
83.2758 0.083
83.3061 -0.078
83.3364 -0.186
83.3666 0.278
83.3969 0.170
83.4272 -0.094
83.4575 0.007
83.4878 -0.048
83.5180 0.262
83.5483 0.103
83.5786 0.049
83.6089 0.151
83.6392 0.097
83.6694 -0.165
83.6997 -0.063
83.7300 0.038
83.7603 0.036
83.7905 0.034
83.8208 0.136
83.8511 0.291
83.8814 0.081
83.9117 0.028
83.9419 0.027
83.9722 0.183
84.0025 0.234
84.0328 0.182
84.0631 0.131
84.0933 -0.077
84.1236 0.028
84.1539 0.029
84.1842 0.395
84.2144 0.344
84.2447 0.554
84.2750 -0.225
84.3053 0.246
84.3356 -0.011
84.3658 -0.165
84.3961 0.043
84.4264 0.095
84.4567 0.147
84.4870 -0.165
84.5172 -0.323
84.5475 0.457
84.5778 -0.169
84.6081 0.299
84.6383 0.143
84.6686 0.090
84.6989 -0.118
84.7292 -0.013
84.7595 0.248
84.7897 0.092
84.8200 -0.115
84.8503 0.042
84.8806 -0.164
84.9109 0.098
84.9411 -0.108
84.9714 -0.002
85.0017 0.366
85.0320 -0.413
85.0623 0.112
85.0925 0.740
85.1228 0.067
85.1531 0.071
85.1834 0.075
85.2136 0.444
85.2439 -0.020
85.2742 -0.015
85.3045 0.199
85.3348 0.048
85.3650 0.210
85.3953 0.269
85.4256 0.379
85.4559 0.125
85.4862 -0.180
85.5164 -0.081
85.5467 0.123
85.5770 0.015
85.6073 -0.198
85.6375 0.215
85.6678 -0.153
85.6981 0.573
85.7284 0.518
85.7587 -0.006
85.7889 -0.164
85.8192 0.094
85.8495 0.196
85.8798 0.247
85.9101 -0.067
85.9403 0.088
85.9706 0.087
86.0009 0.034
86.0312 -0.122
86.0614 0.034
86.0917 0.086
86.1220 0.295
86.1523 0.036
86.1826 -0.068
86.2128 0.246
86.2431 0.404
86.2734 -0.115
86.3037 0.252
86.3340 0.566
86.3642 -0.160
86.3945 -0.001
86.4248 -0.258
86.4551 0.053
86.4853 0.104
86.5156 -0.106
86.5459 -0.107
86.5762 0.466
86.6065 0.205
86.6367 -0.211
86.6670 0.102
86.6973 0.102
86.7276 0.103
86.7579 -0.156
86.7881 -0.111
86.8184 -0.118
86.8487 0.083
86.8790 0.390
86.9092 0.071
86.9395 0.169
86.9698 0.268
87.0001 0.054
87.0304 0.049
87.0606 0.513
87.0909 0.040
87.1212 0.348
87.1515 0.032
87.1818 0.028
87.2120 -0.080
87.2423 -0.031
87.2726 0.018
87.3029 0.016
87.3331 -0.143
87.3634 -0.093
87.3937 -0.043
87.4240 0.112
87.4543 0.007
87.4845 -0.099
87.5148 0.109
87.5451 -0.048
87.5754 0.108
87.6057 0.004
87.6359 0.160
87.6662 0.005
87.6965 -0.099
87.7268 0.163
87.7571 0.216
87.7873 -0.303
87.8176 0.011
87.8479 0.066
87.8782 0.224
87.9084 0.071
87.9387 0.126
87.9690 -0.132
87.9993 -0.284
88.0296 0.183
88.0598 0.026
88.0901 0.078
88.1204 0.025
88.1507 0.494
88.1810 0.078
88.2112 -0.130
88.2415 -0.025
88.2718 -0.180
88.3021 0.070
88.3323 0.477
88.3626 0.050
88.3929 -0.011
88.4232 0.605
88.4535 0.023
88.4837 0.171
88.5140 0.006
88.5443 0.050
88.5746 -0.114
88.6049 0.139
88.6351 -0.180
88.6654 -0.083
88.6957 -0.037
88.7260 0.166
88.7562 0.264
88.7865 0.259
88.8168 -0.111
88.8471 0.457
88.8774 -0.068
88.9076 0.240
88.9379 0.549
88.9682 0.076
88.9985 0.177
89.0288 0.330
89.0590 0.431
89.0893 0.585
89.1196 0.166
89.1499 -0.045
89.1801 0.214
89.2104 0.316
89.2407 0.471
89.2710 0.366
89.3013 0.417
89.3315 0.625
89.3618 0.468
89.3921 0.312
89.4224 0.677
89.4527 0.573
89.4829 0.782
89.5132 0.366
89.5435 0.889
89.5738 0.578
89.6040 0.475
89.6343 0.634
89.6646 0.271
89.6949 0.378
89.7252 0.433
89.7554 0.176
89.7857 0.336
89.8160 0.912
89.8463 0.291
89.8766 0.295
89.9068 0.612
89.9371 0.096
89.9674 0.049
89.9977 -0.050
90.0279 0.477
90.0582 0.118
90.0885 -0.032
90.1188 -0.130
90.1491 0.293
90.1793 0.404
90.2096 0.099
90.2399 -0.311
90.2702 -0.054
90.3005 0.516
90.3307 0.252
90.3610 0.250
90.3913 -0.013
90.4216 0.089
90.4518 0.295
90.4821 -0.071
90.5124 -0.021
90.5427 0.343
90.5730 -0.075
90.6032 0.185
90.6335 0.289
90.6638 0.028
90.6941 0.028
90.7244 -0.076
90.7546 0.238
90.7849 0.239
90.8152 0.083
90.8455 0.397
90.8758 0.139
90.9060 0.193
90.9363 -0.170
90.9666 0.146
90.9969 0.305
91.0271 -0.317
91.0574 0.311
91.0877 -0.206
91.1180 0.318
91.1483 0.218
91.1785 0.066
91.2088 0.540
91.2391 0.076
91.2694 -0.127
91.2997 0.399
91.3299 0.353
91.3602 -0.006
91.3905 0.313
91.4208 0.163
91.4510 0.066
91.4813 0.021
91.5116 -0.180
91.5419 0.020
91.5722 0.168
91.6024 0.004
91.6327 0.205
91.6630 0.458
91.6933 -0.017
91.7236 0.445
91.7538 -0.082
91.7841 -0.036
91.8144 0.114
91.8447 -0.100
91.8749 -0.053
91.9052 0.202
91.9355 0.198
91.9658 0.297
91.9961 0.345
92.0263 -0.128
92.0566 0.129
92.0869 0.074
92.1172 -0.138
92.1475 0.016
92.1777 0.013
92.2080 -0.146
92.2383 -0.096
92.2686 -0.046
92.2988 0.317
92.3291 -0.048
92.3594 0.003
92.3897 -0.206
92.4200 0.052
92.4502 0.416
92.4805 0.259
92.5108 0.050
92.5411 0.154
92.5714 0.153
92.6016 0.466
92.6319 0.362
92.6622 0.415
92.6925 0.572
92.7227 0.157
92.7530 0.263
92.7833 0.056
92.8136 0.266
92.8439 0.112
92.8741 0.427
92.9044 0.274
92.9347 0.537
92.9650 -0.188
92.9953 -0.081
93.0255 0.392
93.0558 0.136
93.0861 0.349
93.1164 0.301
93.1466 0.098
93.1769 0.155
93.2072 0.577
93.2375 0.375
93.2678 0.016
93.2980 0.126
93.3283 -0.127
93.3586 -0.173
93.3889 -0.230
93.4192 0.442
93.4494 0.384
93.4797 0.223
93.5100 0.167
93.5403 -0.150
93.5706 0.315
93.6008 -0.053
93.6311 -0.057
93.6614 0.045
93.6917 0.302
93.7219 0.404
93.7522 0.245
93.7825 -0.174
93.8128 0.241
93.8431 0.136
93.8733 -0.126
93.9036 -0.023
93.9339 -0.128
93.9642 -0.180
93.9945 0.079
94.0247 0.391
94.0550 -0.078
94.0853 0.391
94.1156 0.391
94.1458 0.131
94.1761 -0.180
94.2064 -0.180
94.2367 0.080
94.2670 -0.180
94.2972 -0.031
94.3275 -0.038
94.3578 -0.096
94.3881 0.106
94.4184 -0.004
94.4486 0.303
94.4789 0.506
94.5092 0.033
94.5395 0.288
94.5697 0.492
94.6000 -0.189
94.6303 -0.141
94.6606 0.116
94.6909 0.477
94.7211 0.526
94.7514 0.002
94.7817 -0.052
94.8120 0.154
94.8423 1.037
94.8725 0.358
94.9028 0.409
94.9331 0.564
94.9634 0.719
94.9936 0.510
95.0239 0.510
95.0542 0.666
95.0845 0.614
95.1148 0.874
95.1450 0.354
95.1753 0.563
95.2056 0.825
95.2359 1.087
95.2662 0.776
95.2964 0.778
95.3267 0.676
95.3570 0.834
95.3873 0.889
95.4175 1.205
95.4478 0.323
95.4781 0.743
95.5084 0.382
95.5387 1.011
95.5689 0.130
95.5992 0.291
95.6295 0.087
95.6598 0.197
95.6901 0.306
95.7203 0.416
95.7506 0.734
95.7809 0.480
95.8112 0.330
95.8414 0.493
95.8717 0.188
95.9020 0.455
95.9323 -0.058
95.9626 0.471
95.9928 0.583
96.0231 -0.034
96.0534 0.287
96.0837 -0.173
96.1140 -0.275
96.1442 0.301
96.1745 0.095
96.2048 -0.058
96.2351 0.206
96.2653 0.470
96.2956 0.109
96.3259 0.426
96.3562 0.326
96.3865 0.539
96.4167 0.024
96.4470 0.289
96.4773 -0.174
96.5076 0.613
96.5379 0.150
96.5681 0.209
96.5984 0.163
96.6287 0.014
96.6590 -0.083
96.6893 -0.180
96.7195 0.120
96.7498 0.160
96.7801 0.253
96.8104 0.033
96.8406 0.178
96.8709 0.219
96.9012 0.000
96.9315 -0.427
96.9618 0.084
96.9920 0.074
97.0223 -0.144
97.0526 0.160
97.0829 0.359
97.1132 0.090
97.1434 -0.179
97.1737 0.385
97.2040 0.430
97.2343 0.578
97.2645 -0.054
97.2948 0.459
97.3251 0.036
97.3554 -0.075
97.3857 0.127
97.4159 -0.140
97.4462 -0.093
97.4765 -0.099
97.5068 0.052
97.5371 0.255
97.5673 0.094
97.5976 -0.014
97.6279 -0.123
97.6582 0.134
97.6884 0.078
97.7187 -0.290
97.7490 0.384
97.7793 -0.088
97.8096 -0.195
97.8398 0.062
97.8701 0.423
97.9004 -0.152
97.9307 0.366
97.9610 -0.157
97.9912 -0.160
98.0215 -0.161
98.0518 0.306
98.0821 0.148
98.1123 -0.270
98.1426 0.146
98.1729 0.146
98.2032 -0.167
98.2335 0.458
98.2637 0.615
98.2940 -0.010
98.3243 0.303
98.3546 0.304
98.3849 0.149
98.4151 0.359
98.4454 0.257
98.4757 0.624
98.5060 0.209
98.5362 0.577
98.5665 0.267
98.5968 -0.042
98.6271 -0.143
98.6574 0.121
98.6876 0.281
98.7179 0.182
98.7482 0.186
98.7785 0.139
98.8088 -0.169
98.8390 0.201
98.8693 0.259
98.8996 0.421
98.9299 0.010
98.9601 0.277
98.9904 0.023
99.0207 -0.126
99.0510 0.090
99.0813 0.357
99.1115 -0.052
99.1418 0.269
99.1721 0.121
99.2024 -0.027
99.2327 0.503
99.2629 0.251
99.2932 0.000
99.3235 0.531
99.3538 0.020
99.3841 -0.022
99.4143 0.352
99.4446 -0.158
99.4749 0.061
99.5052 0.073
99.5354 -0.124
99.5657 -0.165
99.5960 0.147
99.6263 0.251
99.6566 0.250
99.6868 -0.322
99.7171 0.251
99.7474 0.095
99.7777 0.148
99.8080 -0.007
99.8382 0.307
99.8685 0.100
99.8988 0.362
99.9291 0.208
99.9593 0.575
99.9896 0.109
100.0199 0.112
100.0502 0.115
100.0805 0.692
100.1107 0.227
100.1410 0.439
100.1713 -0.077
100.2016 -0.073
100.2319 0.088
100.2621 -0.063
100.2924 -0.110
100.3227 -0.156
100.3530 0.147
100.3832 -0.383
100.4135 0.285
100.4438 -0.037
100.4741 -0.045
100.5044 0.103
100.5346 0.616
100.5649 0.035
100.5952 0.236
100.6255 -0.396
100.6558 0.014
100.6860 -0.045
100.7163 0.053
100.7466 0.203
100.7769 0.041
100.8071 -0.173
100.8374 -0.076
100.8677 0.072
100.8980 0.117
100.9283 0.214
100.9585 -0.105
100.9888 -0.007
101.0191 0.038
101.0494 0.032
101.0797 0.235
101.1099 0.177
101.1402 -0.140
101.1705 0.063
101.2008 -0.254
101.2310 0.002
101.2613 0.102
101.2916 -0.058
101.3219 -0.062
101.3522 -0.065
101.3824 0.140
101.4127 0.085
101.4430 -0.073
101.4733 -0.076
101.5036 0.131
101.5338 -0.027
101.5641 -0.029
101.5944 -0.134
101.6247 0.021
101.6549 -0.188
101.6852 -0.242
101.7155 0.486
101.7458 0.277
101.7761 -0.193
101.8063 -0.141
101.8366 0.223
101.8669 -0.090
101.8972 -0.142
101.9275 -0.037
101.9577 -0.088
101.9880 -0.087
102.0183 -0.086
102.0486 0.072
102.0788 -0.083
102.1091 0.284
102.1394 0.078
102.1697 0.758
102.2000 0.187
102.2302 0.034
102.2605 0.506
102.2908 0.198
102.3211 0.149
102.3514 0.102
102.3816 -0.311
102.4119 -0.059
102.4422 0.036
102.4725 0.183
102.5028 0.279
102.5330 0.323
102.5633 0.472
102.5936 0.099
102.6239 0.353
102.6541 0.033
102.6844 -0.078
102.7147 0.228
102.7450 -0.195
102.7753 -0.045
102.8055 0.054
102.8358 0.101
102.8661 -0.009
102.8964 0.143
102.9267 0.450
102.9569 0.342
102.9872 0.598
103.0175 0.438
103.0478 0.018
103.0780 -0.038
103.1083 -0.145
103.1386 -0.096
103.1689 -0.046
103.1992 0.212
103.2294 0.002
103.2597 0.833
103.2900 0.155
103.3203 0.362
103.3506 0.569
103.3808 -0.056
103.4111 0.256
103.4414 -0.057
103.4717 0.100
103.5019 -0.161
103.5322 0.413
103.5625 0.049
103.5928 0.467
103.6231 0.052
103.6533 -0.207
103.6836 -0.002
103.7139 -0.162
103.7442 -0.113
103.7745 -0.272
103.8047 0.350
103.8350 0.712
103.8653 0.398
103.8956 0.396
103.9258 0.394
103.9561 0.289
103.9864 0.444
104.0167 0.235
104.0470 0.026
104.0772 0.077
104.1075 -0.131
104.1378 0.494
104.1681 0.026
104.1984 0.391
104.2286 0.080
104.2589 0.237
104.2892 0.239
104.3195 0.397
104.3497 0.191
104.3800 0.089
104.4103 0.092
104.4406 0.199
104.4709 0.046
104.5011 -0.211
104.5314 0.157
104.5617 0.265
104.5920 -0.043
104.6223 -0.195
104.6525 0.018
104.6828 -0.185
104.7131 -0.076
104.7434 -0.018
104.7736 -0.221
104.8039 0.462
104.8342 -0.052
104.8645 0.059
104.8948 -0.195
104.9250 -0.143
104.9553 0.014
104.9856 -0.089
105.0159 -0.088
105.0462 -0.035
105.0764 -0.085
105.1067 -0.136
105.1370 0.283
105.1673 -0.079
105.1975 -0.337
105.2278 0.131
105.2581 0.078
105.2884 -0.027
105.3187 -0.028
105.3489 -0.184
105.3792 0.077
105.4095 -0.027
105.4398 -0.027
105.4701 0.026
105.5003 0.236
105.5306 0.133
105.5609 0.135
105.5912 -0.436
105.6215 -0.017
105.6517 -0.015
105.6820 0.040
105.7123 0.147
105.7426 0.255
105.7728 0.050
105.8031 -0.207
105.8334 0.005
105.8637 0.009
105.8940 0.377
105.9242 -0.243
105.9545 -0.083
105.9848 0.182
106.0151 -0.177
106.0454 0.089
106.0756 -0.114
106.1059 0.204
106.1362 -0.415
106.1665 -0.155
106.1967 0.314
106.2270 -0.050
106.2573 0.315
106.2876 -0.205
106.3179 -0.100
106.3481 -0.099
106.3784 0.371
106.4087 -0.043
106.4390 0.271
106.4693 -0.143
106.4995 0.068
106.5298 -0.242
106.5601 0.282
106.5904 0.650
106.6206 0.445
106.6509 0.189
106.6812 0.089
106.7115 0.302
106.7418 0.098
106.7720 0.207
106.8023 0.004
106.8326 -0.146
106.8629 -0.089
106.8932 0.074
106.9234 -0.285
106.9537 -0.029
106.9840 0.435
107.0143 0.117
107.0445 -0.252
107.0748 0.005
107.1051 0.053
107.1354 0.362
107.1657 -0.214
107.1959 0.095
107.2262 0.092
107.2565 -0.223
107.2868 0.139
107.3171 0.242
107.3473 0.448
107.3776 0.238
107.4079 0.081
107.4382 -0.180
107.4684 -0.027
107.4987 -0.029
107.5290 0.541
107.5593 -0.190
107.5896 0.017
107.6198 -0.141
107.6501 0.066
107.6804 0.013
107.7107 0.012
107.7410 0.324
107.7712 0.429
107.8015 0.012
107.8318 0.012
107.8621 0.169
107.8923 0.014
107.9226 0.119
107.9529 0.121
107.9832 0.070
108.0135 0.437
108.0437 -0.029
108.0740 -0.027
108.1043 -0.180
108.1346 -0.073
108.1649 -0.069
108.1951 0.143
108.2254 -0.009
108.2557 0.152
108.2860 0.105
108.3163 0.110
108.3465 0.167
108.3768 0.121
108.4071 0.075
108.4374 0.133
108.4676 -0.434
108.4979 -0.062
108.5282 -0.056
108.5585 0.056
108.5888 0.376
108.6190 0.227
108.6493 0.235
108.6796 -0.069
108.7099 -0.165
108.7402 -0.165
108.7704 -0.165
108.8007 -0.072
108.8310 0.020
108.8613 -0.043
108.8915 0.362
108.9218 0.455
108.9521 0.184
108.9824 -0.191
109.0127 0.164
109.0429 0.258
109.0732 -0.012
109.1035 0.396
109.1338 0.282
109.1641 0.274
109.1943 0.421
109.2246 -0.212
109.2549 0.197
109.2852 -0.384
109.3154 0.078
109.3457 0.018
109.3760 -0.301
109.4063 0.057
109.4366 0.363
109.4668 -0.164
109.4971 0.143
109.5274 0.293
109.5577 0.392
109.5880 -0.238
109.6182 -0.034
109.6485 -0.195
109.6788 0.007
109.7091 0.001
109.7393 -0.005
109.7696 -0.011
109.7999 0.035
109.8302 -0.022
109.8605 0.286
109.8907 -0.032
109.9210 -0.297
109.9513 0.116
109.9816 0.529
110.0119 0.265
110.0421 0.522
110.0724 0.102
110.1027 0.099
110.1330 0.253
110.1632 0.459
110.1935 0.248
110.2238 0.090
110.2541 0.349
110.2844 0.087
110.3146 0.034
110.3449 0.346
110.3752 0.033
110.4055 0.345
110.4358 0.137
110.4660 -0.071
110.4963 -0.070
110.5266 -0.121
110.5569 0.453
110.5871 0.141
110.6174 0.195
110.6477 0.145
110.6780 0.251
110.7083 -0.059
110.7385 -0.108
110.7688 0.520
110.7991 0.107
110.8294 0.162
110.8597 0.010
110.8899 -0.038
110.9202 0.018
110.9505 0.387
110.9808 0.027
111.0110 0.033
111.0413 -0.066
111.0716 0.096
111.1019 -0.315
111.1322 0.368
111.1624 0.114
111.1927 0.381
111.2230 -0.133
111.2533 0.083
111.2836 0.091
111.3138 0.202
111.3441 -0.206
111.3744 0.167
111.4047 -0.033
111.4350 -0.389
111.4652 0.081
111.4955 -0.387
111.5258 0.344
111.5561 -0.071
111.5863 -0.434
111.6166 0.194
111.6469 -0.116
111.6772 -0.009
111.7075 -0.110
111.7377 0.570
111.7680 -0.260
111.7983 0.057
111.8286 -0.095
111.8589 0.013
111.8891 0.070
111.9194 -0.029
111.9497 -0.233
111.9800 0.080
112.0102 0.132
112.0405 -0.077
112.0708 -0.180
112.1011 0.133
112.1314 -0.127
112.1616 0.083
112.1919 0.085
112.2222 -0.018
112.2525 0.193
112.2828 -0.013
112.3130 0.875
112.3433 0.044
112.3736 0.152
112.4039 0.520
112.4341 0.211
112.4644 0.058
112.4947 0.375
112.5250 -0.350
112.5553 -0.084
112.5855 0.285
112.6158 -0.022
112.6461 -0.173
112.6764 -0.069
112.7067 0.191
112.7369 0.139
112.7672 0.036
112.7975 -0.068
112.8278 -0.015
112.8580 0.247
112.8883 0.300
112.9186 0.250
112.9489 0.408
112.9792 0.046
113.0094 0.152
113.0397 -0.157
113.0700 -0.206
113.1003 0.207
113.1306 -0.005
113.1608 0.096
113.1911 0.249
113.2214 0.038
113.2517 0.452
113.2819 0.138
113.3122 0.188
113.3425 0.134
113.3728 0.289
113.4031 0.028
113.4333 0.027
113.4636 0.287
113.4939 -0.078
113.5242 0.183
113.5545 0.131
113.5847 -0.077
113.6150 -0.337
113.6453 0.130
113.6756 -0.132
113.7058 -0.081
113.7361 0.178
113.7664 0.177
113.7967 0.228
113.8270 0.020
113.8572 0.332
113.8875 0.280
113.9178 0.228
113.9481 0.125
113.9784 -0.135
114.0086 0.283
114.0389 0.181
114.0692 -0.078
114.0995 0.184
114.1298 -0.022
114.1600 -0.019
114.1903 -0.173
114.2206 -0.132
114.2509 0.325
114.2811 0.471
114.3114 0.252
114.3417 0.294
114.3720 0.023
114.4023 -0.039
114.4325 0.108
114.4628 -0.006
114.4931 -0.171
114.5234 0.081
114.5537 -0.032
114.5839 0.533
114.6142 0.420
114.6445 0.048
114.6748 0.197
114.7050 -0.592
114.7353 0.235
114.7656 -0.084
114.7959 -0.195
114.8262 -0.098
114.8564 0.103
114.8867 -0.217
114.9170 0.141
114.9473 0.134
114.9776 -0.237
115.0078 -0.034
115.0381 0.116
115.0684 -0.202
115.0987 -0.156
115.1289 -0.162
115.1592 0.092
115.1895 0.607
115.2198 -0.180
115.2501 0.076
115.2803 0.331
115.3106 0.535
115.3409 0.062
115.3712 0.162
115.4015 -0.259
115.4317 -0.108
115.4620 -0.165
115.4923 -0.066
115.5226 0.085
115.5528 0.029
115.5831 0.337
115.6134 0.385
115.6437 0.382
115.6740 0.222
115.7042 0.531
115.7345 0.476
115.7648 0.005
115.7951 0.055
115.8254 0.209
115.8556 0.103
115.8859 0.154
115.9162 -0.212
115.9465 0.412
115.9767 0.151
116.0070 0.358
116.0373 -0.163
116.0676 0.254
116.0979 0.150
116.1281 0.203
116.1584 0.256
116.1887 0.413
116.2190 0.311
116.2493 0.781
116.2795 0.575
116.3098 -0.048
116.3401 0.840
116.3704 0.374
116.4006 0.741
116.4309 0.640
116.4612 0.331
116.4915 0.023
116.5218 0.079
116.5520 -0.125
116.5823 0.296
116.6126 0.405
116.6429 0.358
116.6732 0.155
116.7034 0.161
116.7337 -0.094
116.7640 0.485
116.7943 0.440
116.8245 0.238
116.8548 0.037
116.8851 -0.008
116.9154 0.364
116.9457 0.476
116.9759 0.275
117.0062 0.127
117.0365 0.032
117.0668 0.249
117.0971 0.102
117.1273 0.007
117.1576 -0.192
117.1879 0.443
117.2182 0.401
117.2485 0.099
117.2787 -0.046
117.3090 -0.035
117.3393 -0.233
117.3696 0.078
117.3998 0.388
117.4301 -0.134
117.4604 0.021
117.4907 -0.032
117.5210 0.019
117.5512 0.331
117.5815 0.174
117.6118 -0.034
117.6421 0.331
117.6724 0.071
117.7026 0.332
117.7329 -0.448
117.7632 0.126
117.7935 -0.133
117.8237 -0.079
117.8540 0.079
117.8843 -0.127
117.9146 0.137
117.9449 0.400
117.9751 -0.066
118.0054 -0.167
118.0357 -0.163
118.0660 0.362
118.0963 0.262
118.1265 0.371
118.1568 0.063
118.1871 -0.036
118.2174 0.438
118.2476 0.235
118.2779 0.189
118.3082 0.039
118.3385 -0.163
118.3688 -0.157
118.3990 0.475
118.4293 0.118
118.4596 0.073
118.4899 0.237
118.5202 0.661
118.5504 0.566
118.5807 0.366
118.6110 0.114
118.6413 0.071
118.6715 -0.284
118.7018 -0.030
118.7321 -0.141
118.7624 0.270
118.7927 -0.100
118.8229 0.051
118.8532 0.358
118.8835 0.145
118.9138 0.557
118.9441 0.501
118.9743 -0.180
119.0046 0.076
119.0349 0.073
119.0652 0.278
119.0954 -0.142
119.1257 -0.092
119.1560 0.322
119.1863 -0.097
119.2166 0.162
119.2468 0.004
119.2771 -0.154
119.3074 0.470
119.3377 0.365
119.3680 0.208
119.3982 0.312
119.4285 0.520
119.4588 0.156
119.4891 0.313
119.5193 0.001
119.5496 -0.311
119.5799 0.047
119.6102 0.301
119.6405 0.190
119.6707 0.080
119.7010 0.491
119.7313 0.381
119.7616 0.168
119.7919 0.007
119.8221 -0.206
119.8524 0.036
119.8827 0.018
119.9130 0.312
119.9433 -0.018
119.9735 0.225
120.0038 0.000
