'Id: "" Comment: "" Operator: "Lab Manager" Anode: "Cu" Scantype: "Locked Coupled" TimePerStep: "19.2" X: "9999" Y: "9999" Z: "9999" 
10.0015 0.000
10.0318 0.931
10.0620 0.820
10.0923 0.189
10.1226 -0.494
10.1529 -0.083
10.1832 0.224
10.2134 1.313
10.2437 0.215
10.2740 -0.466
10.3043 0.624
10.3346 -0.213
10.3648 0.513
10.3951 1.395
10.4254 0.872
10.4557 0.401
10.4859 1.076
10.5162 0.501
10.5465 0.344
10.5768 0.031
10.6071 0.811
10.6373 0.811
10.6676 0.863
10.6979 0.291
10.7282 1.125
10.7585 1.542
10.7887 0.919
10.8190 1.441
10.8493 1.496
10.8796 2.123
10.9098 3.219
10.9401 3.066
10.9704 4.945
11.0007 6.355
11.0310 5.942
11.0612 5.478
11.0915 6.316
11.1218 5.019
11.1521 3.045
11.1824 3.363
11.2126 2.536
11.2429 0.771
11.2732 0.726
11.3035 1.306
11.3337 0.845
11.3640 1.425
11.3943 0.600
11.4246 1.702
11.4549 -0.008
11.4851 0.522
11.5154 0.740
11.5457 1.270
11.5760 -0.647
11.6063 1.239
11.6365 1.405
11.6668 0.114
11.6971 1.897
11.7274 0.867
11.7577 0.983
11.7879 0.526
11.8182 0.852
11.8485 -1.062
11.8788 -0.268
11.9090 0.423
11.9393 0.229
11.9696 0.972
11.9999 -0.419
12.0302 0.429
12.0604 0.861
12.0907 -0.634
12.1210 0.059
12.1513 -0.393
12.1816 -0.230
12.2118 1.080
12.2421 0.879
12.2724 0.367
12.3027 0.948
12.3329 1.217
12.3632 -0.076
12.3935 -0.170
12.4238 -0.525
12.4541 1.204
12.4843 0.068
12.5146 -0.181
12.5449 -0.118
12.5752 -0.263
12.6055 0.114
12.6357 -0.135
12.6660 -0.383
12.6963 0.035
12.7266 1.391
12.7568 -0.014
12.7871 0.665
12.8174 0.459
12.8477 0.514
12.8780 -0.108
12.9082 0.260
12.9385 -0.153
12.9688 -0.097
12.9991 0.272
13.0294 -0.608
13.0596 0.491
13.0899 0.183
13.1202 0.189
13.1505 0.039
13.1807 -0.007
13.2110 -0.625
13.2413 0.840
13.2716 0.223
13.3019 -0.238
13.3321 0.238
13.3624 -0.118
13.3927 -0.317
13.4230 0.785
13.4533 0.795
13.4835 0.232
13.5138 1.283
13.5441 -0.060
13.5744 1.200
13.6046 0.274
13.6349 -0.809
13.6652 -0.016
13.6955 -0.368
13.7258 0.045
13.7560 0.562
13.7863 0.455
13.8166 -0.381
13.8469 0.502
13.8772 -0.229
13.9074 -0.283
13.9377 -0.076
13.9680 -0.077
13.9983 -0.494
14.0285 0.235
14.0588 0.547
14.0891 -0.025
14.1194 -0.077
14.1497 -0.909
14.1799 0.342
14.2102 0.031
14.2405 0.919
14.2708 1.025
14.3011 0.872
14.3313 -0.063
14.3616 -0.320
14.3919 0.361
14.4222 0.000
14.4524 -0.048
14.4827 -0.616
14.5130 0.951
14.5433 1.009
14.5736 0.650
14.6038 0.552
14.6341 0.610
14.6644 0.721
14.6947 0.467
14.7250 0.423
14.7552 0.847
14.7855 0.074
14.8158 -0.126
14.8461 0.559
14.8764 0.516
14.9066 0.213
14.9369 -1.080
14.9672 0.545
14.9975 -0.174
15.0277 0.826
15.0580 0.889
15.0883 0.171
15.1186 0.756
15.1489 0.039
15.1791 -0.053
15.2094 -0.353
15.2397 -0.102
15.2700 -0.840
15.3003 0.974
15.3305 -0.284
15.3608 0.906
15.3911 -0.039
15.4214 0.527
15.4516 -0.157
15.4819 -0.112
15.5122 -0.431
15.5425 0.865
15.5728 0.495
15.6030 0.177
15.6333 -0.140
15.6636 -0.092
15.6939 0.060
15.7242 0.264
15.7544 0.364
15.7847 0.257
15.8150 0.046
15.8453 0.929
15.8755 0.353
15.9058 -0.013
15.9361 -0.015
15.9664 -0.381
15.9967 0.921
16.0269 0.868
16.0572 0.243
16.0875 0.086
16.1178 0.347
16.1481 -0.017
16.1783 -0.224
16.2086 0.819
16.2389 -0.169
16.2692 -0.479
16.2994 0.721
16.3297 -0.579
16.3600 -0.003
16.3903 -0.208
16.4206 0.629
16.4508 0.113
16.4811 -0.143
16.5114 0.486
16.5417 -0.134
16.5720 -0.128
16.6022 0.398
16.6325 0.456
16.6628 -0.162
16.6931 -0.260
16.7233 -0.357
16.7536 -0.301
16.7839 0.327
16.8142 0.436
16.8445 0.649
16.8747 1.226
16.9050 0.606
16.9353 0.924
16.9656 0.097
16.9959 0.416
17.0261 0.318
17.0564 0.116
17.0867 0.072
17.1170 0.339
17.1472 -0.121
17.1775 1.293
17.2078 -0.469
17.2381 -0.304
17.2684 0.226
17.2986 -0.650
17.3289 -0.120
17.3592 0.359
17.3895 0.422
17.4198 -0.192
17.4500 -0.442
17.4803 0.228
17.5106 0.638
17.5409 0.476
17.5712 0.886
17.6014 0.412
17.6317 0.354
17.6620 0.818
17.6923 0.293
17.7225 0.028
17.7528 0.440
17.7831 -0.293
17.8134 -0.452
17.8437 1.107
17.8739 -0.354
17.9042 1.519
17.9345 -0.567
17.9648 0.109
17.9951 -0.518
18.0253 0.471
18.0556 0.210
18.0859 -0.364
18.1162 -0.160
18.1464 0.253
18.1767 0.250
18.2070 -0.170
18.2373 0.400
18.2676 0.866
18.2978 0.343
18.3281 0.653
18.3584 0.131
18.3887 -0.652
18.4190 0.441
18.4492 0.545
18.4795 0.596
18.5098 1.013
18.5401 -0.236
18.5703 0.493
18.6006 0.390
18.6309 -0.390
18.6612 -0.284
18.6915 0.552
18.7217 -0.019
18.7520 -0.381
18.7823 0.299
18.8126 0.459
18.8429 0.359
18.8731 -0.106
18.9034 0.575
18.9337 -0.045
18.9640 -0.144
18.9942 0.278
19.0245 0.752
19.0548 1.019
19.0851 0.035
19.1154 0.355
19.1456 -0.836
19.1759 -0.204
19.2062 0.481
19.2365 0.385
19.2668 0.028
19.2970 -0.640
19.3273 0.150
19.3576 0.055
19.3879 -0.247
19.4181 -0.342
19.4484 0.013
19.4787 0.055
19.5090 -0.580
19.5393 0.504
19.5695 0.131
19.5998 0.591
19.6301 0.895
19.6604 0.574
19.6907 -0.006
19.7209 0.299
19.7512 0.552
19.7815 -0.236
19.8118 -0.190
19.8420 0.481
19.8723 0.527
19.9026 0.418
19.9329 -0.369
19.9632 -0.217
19.9934 0.247
20.0237 -0.069
20.0540 -0.125
20.0843 0.080
20.1146 0.702
20.1448 -0.082
20.1751 0.280
20.2054 -0.295
20.2357 -0.245
20.2659 -0.038
20.2962 0.013
20.3265 0.533
20.3568 0.481
20.3871 -0.145
20.4173 0.168
20.4476 0.533
20.4779 -0.351
20.5082 0.067
20.5385 -0.036
20.5687 -0.138
20.5990 1.114
20.6293 -0.498
20.6596 0.078
20.6899 -0.075
20.7201 0.762
20.7504 0.297
20.7807 0.249
20.8110 0.514
20.8412 -0.367
20.8715 -0.205
20.9018 -0.200
20.9321 -0.142
20.9624 -0.188
20.9926 0.444
21.0229 0.295
21.0532 0.823
21.0835 -0.003
21.1138 0.421
21.1440 0.690
21.1743 -0.031
21.2046 -0.230
21.2349 0.664
21.2651 0.153
21.2954 -0.566
21.3257 0.434
21.3560 -0.181
21.3863 0.090
21.4165 0.674
21.4468 -0.408
21.4771 0.333
21.5074 0.085
21.5377 0.306
21.5679 0.162
21.5982 1.061
21.6285 0.710
21.6588 0.411
21.6890 -0.200
21.7193 -0.237
21.7496 -0.118
21.7799 -0.416
21.8102 0.149
21.8404 0.453
21.8707 -0.076
21.9010 0.385
21.9313 0.430
21.9616 0.371
21.9918 -0.052
22.0221 -0.215
22.0524 0.613
22.0827 -0.122
22.1129 0.602
22.1432 0.180
22.1735 0.123
22.2038 0.536
22.2341 0.532
22.2643 0.580
22.2946 0.369
22.3249 -0.468
22.3552 -0.321
22.3855 0.087
22.4157 -0.078
22.4460 0.122
22.4763 0.322
22.5066 -0.311
22.5368 0.828
22.5671 -0.117
22.5974 0.554
22.6277 -0.390
22.6580 -0.084
22.6882 -0.246
22.7185 -0.251
22.7488 -0.360
22.7791 0.364
22.8094 0.672
22.8396 0.043
22.8699 -0.221
22.9002 0.140
22.9305 -0.280
22.9607 0.863
22.9910 -0.024
23.0213 -0.131
23.0516 -0.237
23.0819 -0.030
23.1121 0.594
23.1424 -0.136
23.1727 0.176
23.2030 -0.188
23.2333 0.645
23.2635 -0.552
23.2938 1.220
23.3241 0.596
23.3544 -0.340
23.3846 0.495
23.4149 -0.440
23.4452 -0.281
23.4755 0.295
23.5058 0.142
23.5360 -0.376
23.5663 0.670
23.5966 -0.003
23.6269 0.522
23.6572 -0.046
23.6874 0.220
23.7177 -0.243
23.7480 -0.342
23.7783 -0.188
23.8086 -0.034
23.8388 0.224
23.8691 -0.559
23.8994 0.533
23.9297 0.376
23.9599 -0.302
23.9902 0.166
24.0205 0.270
24.0508 0.114
24.0811 0.427
24.1113 -0.458
24.1416 0.481
24.1719 -0.403
24.2022 0.328
24.2325 0.330
24.2627 0.385
24.2930 -0.029
24.3233 0.755
24.3536 -0.127
24.3838 0.086
24.4141 -0.171
24.4444 -0.062
24.4747 0.672
24.5050 0.260
24.5352 -0.463
24.5655 0.220
24.5958 -0.191
24.6261 0.805
24.6564 0.708
24.6866 0.142
24.7169 -0.111
24.7472 -0.468
24.7775 0.153
24.8077 -0.371
24.8380 0.042
24.8683 0.716
24.8986 -0.172
24.9289 0.399
24.9591 0.241
24.9894 0.187
25.0197 -0.075
25.0500 0.081
25.0803 0.184
25.1105 0.080
25.1408 -0.337
25.1711 0.341
25.2014 -0.284
25.2316 0.394
25.2619 -0.073
25.2922 0.293
25.3225 -0.017
25.3528 -0.484
25.3830 0.509
25.4133 0.772
25.4436 0.463
25.4739 0.467
25.5042 -0.102
25.5344 0.111
25.5647 -0.197
25.5950 0.381
25.6253 -0.187
25.6555 -0.546
25.6858 0.221
25.7161 0.675
25.7464 -0.069
25.7767 0.438
25.8069 -0.408
25.8372 -0.161
25.8675 0.243
25.8978 -0.187
25.9281 -0.303
25.9583 -0.523
25.9886 0.767
26.0189 0.183
26.0492 0.745
26.0794 0.631
26.1097 -0.421
26.1400 0.142
26.1703 0.080
26.2006 -0.033
26.2308 0.010
26.2611 -0.051
26.2914 0.410
26.3217 0.037
26.3520 0.499
26.3822 0.804
26.4125 0.432
26.4428 -0.251
26.4731 0.003
26.5034 -0.315
26.5336 0.044
26.5639 -0.378
26.5942 0.502
26.6245 1.071
26.6547 -0.079
26.6850 -0.031
26.7153 -0.035
26.7456 -0.246
26.7759 0.167
26.8061 0.529
26.8364 -0.098
26.8667 0.004
26.8970 0.211
26.9273 -0.676
26.9575 -0.052
26.9878 0.729
27.0181 0.521
27.0484 -0.365
27.0786 0.052
27.1089 -0.468
27.1392 -0.009
27.1695 0.347
27.1998 -0.443
27.2300 0.329
27.2603 -0.147
27.2906 -0.364
27.3209 0.197
27.3512 -0.076
27.3814 -0.192
27.4117 0.266
27.4420 0.306
27.4723 0.921
27.5025 0.181
27.5328 0.275
27.5631 0.265
27.5934 -0.057
27.6237 -1.003
27.6539 0.238
27.6842 0.021
27.7145 -0.560
27.7448 0.370
27.7751 0.102
27.8053 -0.166
27.8356 -0.069
27.8659 0.029
27.8962 -0.133
27.9264 -0.191
27.9567 0.897
27.9870 0.163
28.0173 0.835
28.0476 0.622
28.0778 -0.580
28.1081 -0.376
28.1384 0.136
28.1687 -0.498
28.1990 -0.038
28.2292 0.006
28.2595 1.040
28.2898 -0.061
28.3201 0.400
28.3503 -0.388
28.3806 0.439
28.4109 -0.713
28.4412 0.062
28.4715 0.213
28.5017 -0.209
28.5320 0.411
28.5623 -0.166
28.5926 -0.327
28.6229 -0.383
28.6531 -0.246
28.6834 0.464
28.7137 -0.597
28.7440 0.478
28.7742 0.773
28.8045 -0.131
28.8348 -0.096
28.8651 -0.322
28.8954 0.494
28.9256 -0.147
28.9559 0.149
28.9862 -0.544
29.0165 0.794
29.0468 0.102
29.0770 -0.017
29.1073 -0.136
29.1376 -0.202
29.1679 -0.008
29.1981 1.020
29.2284 0.330
29.2587 0.265
29.2890 -0.008
29.3193 1.021
29.3495 -0.397
29.3798 0.008
29.4101 0.205
29.4404 0.142
29.4707 -0.442
29.5009 -0.088
29.5312 -0.360
29.5615 -0.006
29.5918 0.609
29.6221 0.183
29.6523 -0.087
29.6826 0.112
29.7129 0.051
29.7432 -0.270
29.7734 -0.174
29.8037 -0.650
29.8340 0.203
29.8643 -0.089
29.8946 0.973
29.9248 0.577
29.9551 0.442
29.9854 0.620
30.0157 -0.712
30.0460 0.560
30.0762 0.323
30.1065 0.919
30.1368 -0.152
30.1671 0.236
30.1973 0.833
30.2276 0.441
30.2579 1.142
30.2882 0.646
30.3185 1.088
30.3487 0.854
30.3790 1.505
30.4093 1.218
30.4396 1.245
30.4699 0.334
30.5001 1.351
30.5304 1.275
30.5607 1.094
30.5910 1.852
30.6212 0.943
30.6515 1.753
30.6818 1.470
30.7121 1.708
30.7424 2.987
30.7726 2.080
30.8029 1.798
30.8332 3.600
30.8635 3.058
30.8938 4.184
30.9240 4.580
30.9543 4.300
30.9846 4.020
31.0149 4.522
31.0451 4.034
31.0754 6.463
31.1057 6.914
31.1360 8.146
31.1663 8.962
31.1965 9.622
31.2268 10.178
31.2571 11.567
31.2874 11.864
31.3177 14.452
31.3479 18.082
31.3782 19.317
31.4085 20.656
31.4388 23.663
31.4690 25.419
31.4993 29.312
31.5296 33.100
31.5599 37.879
31.5902 37.762
31.6204 40.457
31.6507 39.039
31.6810 39.339
31.7113 39.536
31.7416 34.577
31.7718 31.702
31.8021 29.556
31.8324 24.754
31.8627 21.723
31.8929 21.765
31.9232 18.215
31.9535 14.039
31.9838 14.655
32.0141 11.210
32.0443 10.629
32.0746 9.215
32.1049 7.281
32.1352 6.961
32.1655 5.496
32.1957 3.511
32.2260 4.651
32.2563 3.968
32.2866 3.286
32.3169 2.552
32.3471 2.860
32.3774 3.220
32.4077 2.122
32.4380 2.535
32.4682 1.907
32.4985 2.894
32.5288 1.172
32.5591 1.743
32.5894 0.803
32.6196 1.323
32.6499 1.530
32.6802 1.112
32.7105 0.799
32.7408 1.111
32.7710 1.736
32.8013 0.851
32.8316 1.268
32.8619 0.645
32.8921 0.542
32.9224 0.804
32.9527 1.014
32.9830 1.069
33.0133 0.290
33.0435 -0.488
33.0738 0.244
33.1041 0.300
33.1344 0.565
33.1647 -0.264
33.1949 -0.676
33.2252 0.297
33.2555 2.313
33.2858 1.048
33.3160 1.137
33.3463 0.446
33.3766 0.223
33.4069 -0.572
33.4372 0.977
33.4674 -0.234
33.4977 -0.091
33.5280 -0.207
33.5583 0.510
33.5886 1.331
33.6188 1.007
33.6491 1.465
33.6794 0.933
33.7097 1.652
33.7399 3.256
33.7702 2.309
33.8005 3.028
33.8308 2.863
33.8611 3.583
33.8913 3.991
33.9216 5.910
33.9519 5.590
33.9822 6.259
34.0125 8.075
34.0427 11.245
34.0730 11.030
34.1033 13.628
34.1336 18.987
34.1638 20.700
34.1941 26.164
34.2244 36.575
34.2547 40.685
34.2850 47.817
34.3152 47.761
34.3455 46.038
34.3758 40.566
34.4061 35.095
34.4364 28.217
34.4666 21.861
34.4969 18.057
34.5272 12.795
34.5575 11.075
34.5877 8.730
34.6180 8.417
34.6483 6.385
34.6786 5.708
34.7089 5.344
34.7391 6.074
34.7694 3.471
34.7997 4.150
34.8300 3.526
34.8603 3.685
34.8905 1.968
34.9208 2.961
34.9511 3.537
34.9814 2.603
35.0116 2.763
35.0419 2.610
35.0722 3.448
35.1025 1.994
35.1328 4.239
35.1630 3.567
35.1933 3.625
35.2236 3.735
35.2539 3.898
35.2842 4.165
35.3144 4.433
35.3447 2.565
35.3750 4.812
35.4053 5.549
35.4356 7.329
35.4658 6.817
35.4961 6.357
35.5264 7.512
35.5567 8.563
35.5869 10.657
35.6172 10.980
35.6475 10.886
35.6778 13.241
35.7081 14.658
35.7383 16.701
35.7686 18.536
35.7989 19.695
35.8292 21.322
35.8595 26.699
35.8897 31.609
35.9200 32.768
35.9503 38.563
35.9806 41.234
36.0108 45.259
36.0411 53.659
36.0714 57.425
36.1017 55.409
36.1320 56.415
36.1622 57.525
36.1925 56.448
36.2228 53.340
36.2531 48.097
36.2834 44.156
36.3136 39.955
36.3439 35.286
36.3742 33.273
36.4045 26.521
36.4347 24.926
36.4650 19.477
36.4953 18.299
36.5256 16.653
36.5559 12.923
36.5861 12.788
36.6164 10.466
36.6467 8.300
36.6770 8.582
36.7073 7.719
36.7375 6.960
36.7678 6.619
36.7981 5.236
36.8284 4.114
36.8586 4.502
36.8889 5.203
36.9192 3.405
36.9495 4.263
36.9798 3.091
37.0100 2.179
37.0403 2.257
37.0706 2.648
37.1009 2.466
37.1312 1.712
37.1614 2.052
37.1917 0.673
37.2220 1.117
37.2523 0.781
37.2825 0.393
37.3128 1.203
37.3431 -0.122
37.3734 0.793
37.4037 0.979
37.4339 0.697
37.4642 0.728
37.4945 0.394
37.5248 1.519
37.5551 0.822
37.5853 -0.344
37.6156 0.938
37.6459 0.970
37.6762 0.847
37.7064 0.984
37.7367 0.237
37.7670 0.062
37.7973 -0.008
37.8276 -0.754
37.8578 0.062
37.8881 0.149
37.9184 -0.909
37.9487 0.221
37.9790 -0.211
38.0092 0.086
38.0395 0.748
38.0698 -0.152
38.1001 -0.010
38.1304 -0.076
38.1606 0.483
38.1909 0.469
38.2212 0.092
38.2515 -0.806
38.2817 -0.056
38.3120 -0.451
38.3423 0.300
38.3726 -0.355
38.4029 0.085
38.4331 -0.257
38.4634 -0.442
38.4937 0.309
38.5240 0.644
38.5543 0.563
38.5845 0.013
38.6148 -0.329
38.6451 0.112
38.6754 0.344
38.7056 0.368
38.7359 0.133
38.7662 0.210
38.7965 -0.338
38.8268 0.209
38.8570 -0.182
38.8873 -0.052
38.9176 -0.442
38.9479 0.089
38.9782 0.098
39.0084 0.056
39.0387 0.432
39.0690 -0.026
39.0993 0.349
39.1295 0.153
39.1598 0.112
39.1901 0.072
39.2204 0.085
39.2507 0.358
39.2809 -0.410
39.3112 0.020
39.3415 -0.070
39.3718 0.152
39.4021 -0.250
39.4323 -0.183
39.4626 -0.324
39.4929 -0.309
39.5232 -0.241
39.5534 0.192
39.5837 -0.781
39.6140 1.058
39.6443 -0.070
39.6746 -0.105
39.7048 0.173
39.7351 -0.329
39.7654 -0.166
39.7957 0.363
39.8260 0.163
39.8562 0.067
39.8865 -0.392
39.9168 0.294
39.9471 0.303
39.9773 -0.103
40.0076 0.376
40.0379 -0.031
40.0682 -0.280
40.0985 -0.321
40.1287 0.099
40.1590 -0.574
40.1893 0.055
40.2196 0.059
40.2499 -0.092
40.2801 -0.243
40.3104 0.335
40.3407 -0.128
40.3710 -0.226
40.4012 0.301
40.4315 -0.317
40.4618 -0.265
40.4921 0.047
40.5224 0.255
40.5526 -0.057
40.5829 -0.213
40.6132 0.101
40.6435 -0.263
40.6738 0.468
40.7040 -0.311
40.7343 0.160
40.7646 0.006
40.7949 0.113
40.8251 0.169
40.8554 0.016
40.8857 0.332
40.9160 -0.445
40.9463 0.393
40.9765 -0.643
41.0068 0.351
41.0371 0.149
41.0674 -0.835
41.0977 0.213
41.1279 -0.249
41.1582 0.018
41.1885 -0.183
41.2188 -0.227
41.2491 0.093
41.2793 -0.420
41.3096 0.162
41.3399 0.171
41.3702 -0.132
41.4004 -0.592
41.4307 0.252
41.4610 0.210
41.4913 0.429
41.5216 0.023
41.5518 0.190
41.5821 -0.736
41.6124 0.318
41.6427 0.226
41.6730 -0.386
41.7032 0.304
41.7335 0.056
41.7638 -0.295
41.7941 -0.089
41.8243 -0.717
41.8546 0.844
41.8849 0.634
41.9152 -0.097
41.9455 0.839
41.9757 0.474
42.0060 0.161
42.0363 0.109
42.0666 0.370
42.0969 0.162
42.1271 0.058
42.1574 -0.201
42.1877 -0.147
42.2180 0.271
42.2482 -0.039
42.2785 0.120
42.3088 0.279
42.3391 -0.082
42.3694 0.390
42.3996 0.289
42.4299 -0.019
42.4602 -0.014
42.4905 0.251
42.5208 -0.161
42.5510 -0.363
42.5813 0.205
42.6116 -0.216
42.6419 0.821
42.6721 0.453
42.7024 -0.175
42.7327 0.030
42.7630 -0.598
42.7933 0.019
42.8235 0.271
42.8538 0.159
42.8841 -0.213
42.9144 -0.011
42.9447 0.294
42.9749 -0.077
43.0052 0.542
43.0355 -0.036
43.0658 0.219
43.0960 -0.255
43.1263 -0.208
43.1566 0.517
43.1869 -0.060
43.2172 -0.116
43.2474 -0.224
43.2777 -0.123
43.3080 0.083
43.3383 -0.024
43.3686 0.651
43.3988 0.337
43.4291 0.284
43.4594 -0.186
43.4897 0.230
43.5199 -0.396
43.5502 0.073
43.5805 0.542
43.6108 0.282
43.6411 0.075
43.6713 -0.028
43.7016 -0.131
43.7319 -0.337
43.7622 0.182
43.7925 -0.184
43.8227 -0.185
43.8530 -0.186
43.8833 0.387
43.9136 0.387
43.9439 0.075
43.9741 0.024
44.0044 0.702
44.0347 -0.234
44.0650 0.028
44.0952 0.395
44.1255 -0.176
44.1558 0.087
44.1861 -0.483
44.2164 0.250
44.2466 0.618
44.2769 -0.159
44.3072 -0.207
44.3375 -0.150
44.3678 0.584
44.3980 -0.140
44.4283 -0.186
44.4586 0.289
44.4889 0.608
44.5191 0.094
44.5494 -0.212
44.5797 0.316
44.6100 0.011
44.6403 0.332
44.6705 0.184
44.7008 0.037
44.7311 0.827
44.7614 0.107
44.7917 0.012
44.8219 -0.290
44.8522 -0.094
44.8825 -0.262
44.9128 -0.170
44.9430 0.600
44.9733 0.381
45.0036 0.266
45.0339 0.620
45.0642 0.402
45.0944 0.079
45.1247 0.174
45.1550 0.426
45.1853 0.052
45.2156 -0.425
45.2458 0.244
45.2761 0.080
45.3064 0.490
45.3367 0.066
45.3669 0.372
45.3972 0.001
45.4275 -0.005
45.4578 0.249
45.4881 -0.069
45.5183 -0.074
45.5486 0.078
45.5789 -0.395
45.6092 0.121
45.6395 0.482
45.6697 0.166
45.7000 -0.045
45.7303 -0.308
45.7606 -0.220
45.7908 0.494
45.8211 0.114
45.8514 0.203
45.8817 0.292
45.9120 -0.399
45.9422 0.420
45.9725 0.407
46.0028 -0.128
46.0331 0.276
46.0634 0.628
46.0936 -0.009
46.1239 0.291
46.1542 0.748
46.1845 0.737
46.2147 0.778
46.2450 0.299
46.2753 0.601
46.3056 1.007
46.3359 0.164
46.3661 0.415
46.3964 0.615
46.4267 1.023
46.4570 0.598
46.4873 1.110
46.5175 -0.043
46.5478 0.575
46.5781 -0.110
46.6084 0.457
46.6386 -0.071
46.6689 0.809
46.6992 1.168
46.7295 0.902
46.7598 1.574
46.7900 1.309
46.8203 1.461
46.8506 1.717
46.8809 1.401
46.9112 2.127
46.9414 2.957
46.9717 1.340
47.0020 3.473
47.0323 2.116
47.0626 3.938
47.0928 3.467
47.1231 5.602
47.1534 5.497
47.1837 5.809
47.2139 6.903
47.2442 8.101
47.2745 9.508
47.3048 9.977
47.3351 9.979
47.3653 10.813
47.3956 10.659
47.4259 10.557
47.4562 10.195
47.4865 10.198
47.5167 10.618
47.5470 11.403
47.5773 9.428
47.6076 9.328
47.6378 7.561
47.6681 8.139
47.6984 6.374
47.7287 4.608
47.7590 3.781
47.7892 3.058
47.8195 3.637
47.8498 2.707
47.8801 2.818
47.9104 2.253
47.9406 2.782
47.9709 2.529
48.0012 1.757
48.0315 1.297
48.0617 1.358
48.0920 1.524
48.1223 1.638
48.1526 0.346
48.1829 1.034
48.2131 0.263
48.2434 0.274
48.2737 0.234
48.3040 0.454
48.3343 -0.002
48.3645 -0.198
48.3948 0.335
48.4251 -0.328
48.4554 0.518
48.4856 0.480
48.5159 0.859
48.5462 0.248
48.5765 0.472
48.6068 0.956
48.6370 -0.175
48.6673 -0.055
48.6976 0.222
48.7279 0.030
48.7582 0.568
48.7884 0.012
48.8187 -0.075
48.8490 -0.109
48.8793 -0.299
48.9095 0.065
48.9398 0.950
48.9701 -0.143
49.0004 -0.039
49.0307 0.535
49.0609 -0.037
49.0912 -0.243
49.1215 0.175
49.1518 -0.239
49.1821 0.388
49.2123 0.235
49.2426 -0.075
49.2729 0.137
49.3032 0.141
49.3334 0.093
49.3637 0.046
49.3940 0.155
49.4243 0.004
49.4546 -0.251
49.4848 0.327
49.5151 -0.135
49.5454 0.132
49.5757 0.243
49.6060 -0.531
49.6362 0.049
49.6665 0.838
49.6968 -0.247
49.7271 0.178
49.7574 0.395
49.7876 -0.065
49.8179 0.309
49.8482 -0.045
49.8785 0.173
49.9087 -0.494
49.9390 -0.138
49.9693 0.323
49.9996 0.055
50.0299 -0.630
50.0601 0.248
50.0904 -0.071
50.1207 0.079
50.1510 0.073
50.1813 0.171
50.2115 0.113
50.2418 0.212
50.2721 0.312
50.3024 0.620
50.3326 -0.062
50.3629 0.976
50.3932 0.139
50.4235 0.136
50.4538 0.185
50.4840 -0.338
50.5143 0.024
50.5446 -0.499
50.5749 0.125
50.6052 0.957
50.6354 0.539
50.6657 -0.607
50.6960 -0.295
50.7263 -0.034
50.7565 -0.554
50.7868 0.437
50.8171 0.646
50.8474 0.700
50.8777 -0.183
50.9079 0.392
50.9382 0.551
50.9685 0.762
50.9988 0.192
51.0291 -0.429
51.0593 0.408
51.0896 -0.473
51.1199 0.417
51.1502 -0.046
51.1804 0.063
51.2107 0.173
51.2410 -0.290
51.2713 -0.243
51.3016 0.168
51.3318 0.319
51.3621 0.107
51.3924 0.467
51.4227 0.463
51.4530 0.251
51.4832 -0.325
51.5135 -0.068
51.5438 0.034
51.5741 -0.124
51.6043 -0.178
51.6346 0.081
51.6649 -0.494
51.6952 -0.028
51.7255 -0.031
51.7557 0.175
51.7860 0.069
51.8163 -0.402
51.8466 0.326
51.8769 -0.509
51.9071 0.168
51.9374 0.063
51.9677 0.427
51.9980 -0.041
52.0282 0.063
52.0585 -0.040
52.0888 0.638
52.1191 -0.298
52.1494 0.225
52.1796 -0.294
52.2099 -0.031
52.2402 0.232
52.2705 0.235
52.3008 0.187
52.3310 -0.226
52.3613 -0.066
52.3916 0.564
52.4219 -0.108
52.4521 -0.312
52.4824 0.319
52.5127 0.012
52.5430 0.487
52.5733 0.598
52.6035 0.136
52.6338 -0.118
52.6641 -0.266
52.6944 0.471
52.7247 0.166
52.7549 0.018
52.7852 -0.337
52.8155 0.020
52.8458 -0.143
52.8761 -0.254
52.9063 -0.156
52.9366 0.464
52.9669 0.562
52.9972 0.036
53.0274 0.552
53.0577 -0.285
53.0880 0.075
53.1183 0.332
53.1486 1.057
53.1788 0.169
53.2091 -0.251
53.2394 -0.097
53.2697 0.943
53.3000 0.368
53.3302 -0.311
53.3605 0.053
53.3908 -0.521
53.4211 0.624
53.4513 0.624
53.4816 0.156
53.5119 0.156
53.5422 -0.052
53.5725 0.054
53.6027 0.368
53.6330 0.578
53.6633 0.684
53.6936 0.583
53.7239 0.117
53.7541 0.484
53.7844 0.123
53.8147 0.231
53.8450 -0.077
53.8752 0.448
53.9055 0.088
53.9358 -0.323
53.9661 0.047
53.9964 0.157
54.0266 0.163
54.0569 -0.039
54.0872 0.385
54.1175 -0.389
54.1478 -0.362
54.1780 0.707
54.2083 0.162
54.2386 0.137
54.2689 -0.095
54.2991 0.143
54.3294 0.432
54.3597 0.149
54.3900 0.074
54.4203 0.313
54.4505 0.708
54.4808 0.374
54.5111 -0.168
54.5414 0.072
54.5717 -0.157
54.6019 0.083
54.6322 0.532
54.6625 0.357
54.6928 -0.391
54.7230 0.892
54.7533 -0.012
54.7836 0.126
54.8139 -0.620
54.8442 0.768
54.8744 -0.030
54.9047 0.787
54.9350 0.406
54.9653 -0.131
54.9956 0.009
55.0258 -0.214
55.0561 0.448
55.0864 0.537
55.1167 0.314
55.1469 0.144
55.1772 -0.286
55.2075 0.065
55.2378 0.000
55.2681 0.299
55.2983 -0.078
55.3286 0.327
55.3589 -0.154
55.3892 0.564
55.4195 0.501
55.4497 0.230
55.4800 0.480
55.5103 0.678
55.5406 0.304
55.5709 0.398
55.6011 0.754
55.6314 1.266
55.6617 1.257
55.6920 0.885
55.7222 1.710
55.7525 1.443
55.7828 1.383
55.8131 2.262
55.8434 1.630
55.8736 2.197
55.9039 3.129
55.9342 3.019
55.9645 3.535
55.9948 4.312
56.0250 4.255
56.0553 3.105
56.0856 6.122
56.1159 4.556
56.1461 5.959
56.1764 6.269
56.2067 7.464
56.2370 7.046
56.2673 8.710
56.2975 9.386
56.3278 10.531
56.3581 11.519
56.3884 14.748
56.4187 14.904
56.4489 14.696
56.4792 14.384
56.5095 14.802
56.5398 14.386
56.5700 14.440
56.6003 13.296
56.6306 13.298
56.6609 11.061
56.6912 9.866
56.7214 8.931
56.7517 7.424
56.7820 7.376
56.8123 5.349
56.8426 5.249
56.8728 5.098
56.9031 4.114
56.9334 4.536
56.9637 3.135
56.9939 2.412
57.0242 3.148
57.0545 2.009
57.0848 2.276
57.1151 1.555
57.1453 1.719
57.1756 1.519
57.2059 2.100
57.2362 0.911
57.2665 0.764
57.2967 1.190
57.3270 1.148
57.3573 0.741
57.3876 1.324
57.4178 0.658
57.4481 0.669
57.4784 0.264
57.5087 0.328
57.5390 0.236
57.5692 0.040
57.5995 0.522
57.6298 0.951
57.6601 -0.389
57.6904 0.926
57.7206 0.055
57.7509 -0.243
57.7812 0.397
57.8115 0.360
57.8417 1.365
57.8720 -0.026
57.9023 0.303
57.9326 0.215
57.9629 -0.028
57.9931 0.301
58.0234 1.048
58.0537 0.128
58.0840 0.146
58.1143 0.217
58.1445 -0.181
58.1748 -0.006
58.2051 0.118
58.2354 -0.019
58.2656 -0.624
58.2959 0.055
58.3262 0.161
58.3565 -0.305
58.3868 0.271
58.4170 -0.195
58.4473 -0.035
58.4776 0.177
58.5079 0.233
58.5382 0.706
58.5684 -0.122
58.5987 0.039
58.6290 0.045
58.6593 0.259
58.6896 -0.308
58.7198 -0.253
58.7501 0.115
58.7804 -0.298
58.8107 0.487
58.8409 -0.082
58.8712 -0.546
58.9015 0.136
58.9318 -0.119
58.9621 0.459
58.9923 0.048
59.0226 -0.259
59.0529 0.217
59.0832 0.275
59.1135 -0.134
59.1437 0.654
59.1740 0.141
59.2043 -0.163
59.2346 -0.363
59.2648 0.204
59.2951 0.564
59.3254 -0.482
59.3557 -0.122
59.3860 -0.074
59.4162 0.235
59.4465 -0.237
59.4768 0.750
59.5071 0.226
59.5374 0.172
59.5676 0.014
59.5979 -0.092
59.6282 -0.094
59.6585 0.010
59.6887 0.061
59.7190 -0.304
59.7493 -0.158
59.7796 -0.012
59.8099 0.030
59.8401 0.177
59.8704 0.219
59.9007 0.054
59.9310 -0.007
59.9613 -0.223
59.9915 0.133
60.0218 0.126
60.0521 0.014
60.0824 -0.670
60.1126 0.053
60.1429 0.098
60.1732 -0.220
60.2035 0.087
60.2338 -0.023
60.2640 -0.653
60.2943 0.332
60.3246 -0.245
60.3549 -0.093
60.3852 0.112
60.4154 0.108
60.4457 -0.520
60.4760 -0.058
60.5063 0.092
60.5365 0.137
60.5668 -0.337
60.5971 -0.084
60.6274 -0.195
60.6577 -0.149
60.6879 -0.207
60.7182 -0.005
60.7485 -0.062
60.7788 -0.015
60.8091 0.032
60.8393 -0.232
60.8696 0.493
60.8999 -0.500
60.9302 0.590
60.9604 -0.246
60.9907 -0.457
61.0210 0.478
61.0513 0.215
61.0816 0.370
61.1118 -0.100
61.1421 0.003
61.1724 0.263
61.2027 -0.154
61.2330 0.314
61.2632 0.158
61.2935 -0.206
61.3238 0.212
61.3541 0.265
61.3844 -0.202
61.4146 -0.252
61.4449 0.167
61.4752 0.170
61.5055 0.433
61.5357 0.540
61.5660 -0.029
61.5963 -0.650
61.6266 0.065
61.6569 -0.052
61.6871 0.403
61.7174 0.859
61.7477 0.743
61.7780 0.627
61.8083 0.979
61.8385 0.395
61.8688 0.540
61.8991 0.894
61.9294 0.727
61.9596 1.186
61.9899 1.593
62.0202 0.698
62.0505 1.001
62.0808 0.732
62.1110 1.661
62.1413 1.497
62.1716 1.281
62.2019 2.784
62.2322 2.464
62.2624 3.551
62.2927 1.878
62.3230 3.486
62.3533 3.793
62.3835 4.308
62.4138 5.553
62.4441 6.642
62.4744 4.659
62.5047 6.581
62.5349 7.932
62.5652 7.720
62.5955 8.498
62.6258 10.370
62.6561 10.837
62.6863 11.928
62.7166 11.353
62.7469 10.935
62.7772 11.403
62.8074 11.871
62.8377 11.922
62.8680 10.203
62.8983 9.214
62.9286 9.735
62.9588 8.747
62.9891 8.435
63.0194 7.239
63.0497 7.293
63.0800 5.941
63.1102 5.214
63.1405 3.186
63.1708 4.387
63.2011 3.349
63.2313 2.988
63.2616 2.367
63.2919 2.632
63.3222 1.647
63.3525 1.756
63.3827 1.658
63.4130 1.768
63.4433 1.409
63.4736 0.895
63.5039 1.110
63.5341 0.700
63.5644 0.031
63.5947 1.080
63.6250 0.724
63.6552 0.680
63.6855 0.272
63.7158 0.177
63.7461 0.239
63.7764 0.092
63.8066 0.363
63.8369 -0.721
63.8672 0.749
63.8975 -0.282
63.9278 0.198
63.9580 0.314
63.9883 0.274
64.0186 0.182
64.0489 0.716
64.0791 0.312
64.1094 0.013
64.1397 -0.442
64.1700 0.029
64.2003 0.448
64.2305 0.190
64.2608 0.192
64.2911 -0.325
64.3214 0.043
64.3517 0.932
64.3819 0.103
64.4122 0.107
64.4425 -0.201
64.4728 -0.196
64.5031 0.643
64.5333 -0.341
64.5636 0.186
64.5939 -0.068
64.6242 -0.061
64.6544 0.310
64.6847 -0.203
64.7150 0.690
64.7453 -0.083
64.7756 0.082
64.8058 -0.274
64.8361 0.256
64.8664 0.109
64.8967 0.275
64.9270 0.024
64.9572 -0.226
64.9875 0.202
65.0178 -0.308
65.0481 -0.268
65.0783 -0.124
65.1086 0.386
65.1389 -0.094
65.1692 0.259
65.1995 0.145
65.2297 0.499
65.2600 0.333
65.2903 0.219
65.3206 0.471
65.3509 0.097
65.3811 0.349
65.4114 0.393
65.4417 0.229
65.4720 0.221
65.5022 -0.202
65.5325 -0.105
65.5628 0.253
65.5931 0.143
65.6234 -0.072
65.6536 -0.337
65.6839 0.110
65.7142 0.089
65.7445 0.277
65.7748 0.257
65.8050 -0.023
65.8353 0.166
65.8656 0.668
65.8959 0.441
65.9261 0.578
65.9564 0.925
65.9867 0.543
66.0170 1.254
66.0473 0.456
66.0775 1.429
66.1078 1.412
66.1381 1.448
66.1684 0.860
66.1987 0.896
66.2289 0.985
66.2592 1.387
66.2895 1.373
66.3198 0.890
66.3500 1.970
66.3803 0.654
66.4106 1.787
66.4409 1.149
66.4712 0.095
66.5014 0.760
66.5317 0.696
66.5620 0.528
66.5923 0.934
66.6226 0.663
66.6528 0.756
66.6831 0.225
66.7134 1.153
66.7437 0.935
66.7739 1.030
66.8042 0.240
66.8345 0.127
66.8648 0.015
66.8951 0.528
66.9253 1.094
66.9556 0.461
66.9859 0.663
67.0162 -0.021
67.0465 0.286
67.0767 0.592
67.1070 1.108
67.1373 0.998
67.1676 1.046
67.1978 1.510
67.2281 1.245
67.2584 1.241
67.2887 1.446
67.3190 1.964
67.3492 2.273
67.3795 2.479
67.4098 2.842
67.4401 3.361
67.4704 3.203
67.5006 3.566
67.5309 3.878
67.5612 4.398
67.5915 5.283
67.6218 5.075
67.6520 5.128
67.6823 7.524
67.7126 7.265
67.7429 6.485
67.7731 6.956
67.8034 8.520
67.8337 8.106
67.8640 8.265
67.8943 7.852
67.9245 6.918
67.9548 7.859
67.9851 9.478
68.0154 6.461
68.0457 6.206
68.0759 5.794
68.1062 5.539
68.1365 4.087
68.1668 5.134
68.1970 3.526
68.2273 3.533
68.2576 3.436
68.2879 3.079
68.3182 3.607
68.3484 3.355
68.3787 2.999
68.4090 2.435
68.4393 2.079
68.4696 2.922
68.4998 2.255
68.5301 3.462
68.5604 2.171
68.5907 2.234
68.6209 2.141
68.6512 2.569
68.6815 2.685
68.7118 4.051
68.7421 2.396
68.7723 2.722
68.8026 3.464
68.8329 2.331
68.8632 3.231
68.8935 4.495
68.9237 3.936
68.9540 3.586
68.9843 3.028
69.0146 4.242
69.0448 3.268
69.0751 2.711
69.1054 3.977
69.1357 3.057
69.1660 2.969
69.1962 2.622
69.2265 2.380
69.2568 1.720
69.2871 2.416
69.3174 1.393
69.3476 0.891
69.3779 1.796
69.4082 0.826
69.4385 0.586
69.4687 1.335
69.4990 0.887
69.5293 0.752
69.5596 1.190
69.5899 0.691
69.6201 0.556
69.6504 1.100
69.6807 -0.024
69.7110 0.312
69.7413 0.439
69.7715 -0.370
69.8018 0.643
69.8321 0.511
69.8624 0.172
69.8926 -0.168
69.9229 -0.143
69.9532 -0.169
69.9835 0.482
70.0138 0.560
70.0440 -0.194
70.0743 0.406
70.1046 -0.192
70.1349 -0.008
70.1652 0.645
70.1954 0.152
70.2257 0.285
70.2560 0.314
70.2863 0.343
70.3166 0.373
70.3468 -0.014
70.3771 0.225
70.4074 0.308
70.4377 0.078
70.4679 -0.255
70.4982 -0.108
70.5285 0.769
70.5588 0.397
70.5891 0.441
70.6193 0.381
70.6496 0.270
70.6799 0.524
70.7102 0.361
70.7405 0.563
70.7707 0.141
70.8010 0.187
70.8313 0.547
70.8616 0.230
70.8918 0.277
70.9221 0.117
70.9524 0.061
70.9827 -0.203
71.0130 -0.050
71.0432 0.572
71.0735 -0.003
71.1038 -0.266
71.1341 -0.323
71.1644 0.505
71.1946 -0.021
71.2249 0.078
71.2552 0.022
71.2855 0.122
71.3157 -0.194
71.3460 0.480
71.3763 -0.044
71.4066 0.058
71.4369 0.264
71.4671 -0.415
71.4974 -0.209
71.5277 -0.211
71.5580 -0.005
71.5883 -0.110
71.6185 0.097
71.6488 -0.008
71.6791 0.252
71.7094 0.409
71.7396 0.096
71.7699 0.253
71.8002 0.098
71.8305 -0.682
71.8608 0.726
71.8910 0.259
71.9213 -0.207
71.9516 -0.309
71.9819 0.476
72.0122 -0.146
72.0424 0.587
72.0727 -0.243
72.1030 -0.238
72.1333 0.548
72.1635 -0.020
72.1938 0.662
72.2241 -0.270
72.2544 0.257
72.2847 0.628
72.3149 0.270
72.3452 0.850
72.3755 0.805
72.4058 0.917
72.4361 0.873
72.4663 0.725
72.4966 0.942
72.5269 1.367
72.5572 0.543
72.5874 0.813
72.6177 0.511
72.6480 0.729
72.6783 0.480
72.7086 0.438
72.7388 0.293
72.7691 0.305
72.7994 0.265
72.8297 -0.087
72.8600 0.134
72.8902 0.511
72.9205 0.160
72.9508 0.225
72.9811 0.344
73.0113 0.358
73.0416 0.372
73.0719 0.700
73.1022 0.038
73.1325 -0.259
73.1627 0.002
73.1930 0.473
73.2233 0.579
73.2536 0.008
73.2839 0.114
73.3141 -0.039
73.3444 0.485
73.3747 0.071
73.4050 0.440
73.4353 0.079
73.4655 -0.073
73.4958 -0.224
73.5261 0.145
73.5564 0.255
73.5866 0.260
73.6169 0.058
73.6472 0.169
73.6775 -0.033
73.7078 0.026
73.7380 -0.227
73.7683 -0.021
73.7986 0.134
73.8289 0.289
73.8592 0.028
73.8894 -0.181
73.9197 0.028
73.9500 0.080
73.9803 0.549
74.0105 -0.127
74.0408 0.291
74.0711 0.136
74.1014 0.502
74.1317 -0.016
74.1619 0.299
74.1922 0.458
74.2225 0.461
74.2528 0.152
74.2831 0.364
74.3133 0.524
74.3436 0.373
74.3739 0.169
74.4042 0.539
74.4344 -0.081
74.4647 0.238
74.4950 0.036
74.5253 0.771
74.5556 0.465
74.5858 0.160
74.6161 0.480
74.6464 0.592
74.6767 0.548
74.7070 0.192
74.7372 -0.060
74.7675 -0.259
74.7978 0.088
74.8281 0.070
74.8583 0.209
74.8886 0.193
74.9189 0.176
74.9492 0.316
74.9795 0.144
75.0097 0.962
75.0400 0.166
75.0703 -0.370
75.1006 0.292
75.1309 0.122
75.1611 -0.100
75.1914 0.303
75.2217 0.290
75.2520 0.329
75.2822 -0.100
75.3125 -0.165
75.3428 0.605
75.3731 -0.292
75.4034 0.322
75.4336 0.155
75.4639 0.300
75.4942 0.238
75.5245 -0.189
75.5548 -0.146
75.5850 -0.051
75.6153 -0.216
75.6456 0.088
75.6759 -0.077
75.7061 -0.085
75.7364 0.012
75.7667 0.109
75.7970 -0.158
75.8273 -0.113
75.8575 0.402
75.8878 -0.073
75.9181 -0.131
75.9484 0.229
75.9787 -0.089
76.0089 0.480
76.0392 -0.358
76.0695 0.003
76.0998 0.156
76.1301 0.152
76.1603 0.254
76.1906 0.303
76.2209 0.249
76.2512 0.091
76.2814 0.141
76.3117 0.348
76.3420 0.087
76.3723 0.295
76.4026 -0.175
76.4328 0.086
76.4631 0.086
76.4934 1.077
76.5237 -0.016
76.5540 0.610
76.5842 0.143
76.6145 0.666
76.6448 0.252
76.6751 -0.110
76.7053 0.466
76.7356 0.469
76.7659 0.942
76.7962 0.633
76.8265 0.742
76.8567 0.851
76.8870 0.700
76.9173 0.705
76.9476 0.763
76.9779 0.508
77.0081 0.619
77.0384 0.417
77.0687 0.529
77.0990 0.588
77.1292 0.700
77.1595 0.552
77.1898 0.300
77.2201 1.090
77.2504 0.369
77.2806 0.431
77.3109 0.232
77.3412 0.398
77.3715 1.086
77.4018 0.367
77.4320 0.639
77.4623 0.286
77.4926 0.453
77.5229 0.309
77.5531 0.061
77.5834 -0.239
77.6137 -0.240
77.6440 0.333
77.6743 -0.188
77.7045 0.541
77.7348 -0.344
77.7651 -0.239
77.7954 -0.032
77.8257 0.071
77.8559 -0.035
77.8862 0.173
77.9165 0.537
77.9468 0.120
77.9770 0.224
78.0073 0.329
78.0376 -0.139
78.0679 -0.138
78.0982 -0.136
78.1284 0.126
78.1587 0.128
78.1890 0.495
78.2193 0.030
78.2496 0.033
78.2798 0.192
78.3101 0.040
78.3404 0.617
78.3707 -0.264
78.4009 -0.363
78.4312 0.319
78.4615 0.376
78.4918 -0.035
78.5221 0.284
78.5523 0.290
78.5826 0.401
78.6129 -0.425
78.6432 0.207
78.6735 -0.046
78.7037 0.171
78.7340 -0.029
78.7643 0.292
78.7946 -0.012
78.8248 0.154
78.8551 -0.201
78.8854 0.017
78.9157 -0.285
78.9460 0.019
78.9762 0.689
79.0065 0.160
79.0368 0.361
79.0671 0.511
79.0974 0.921
79.1276 0.290
79.1579 -0.497
79.1882 -0.034
79.2185 0.117
79.2488 -0.304
79.2790 0.056
79.3093 -0.365
79.3396 0.048
79.3699 -0.112
79.4001 0.197
79.4304 -0.535
79.4607 0.244
79.4910 0.085
79.5213 0.292
79.5515 -0.335
79.5818 0.029
79.6121 0.184
79.6424 -0.077
79.6727 0.339
79.7029 -0.025
79.7332 -0.441
79.7635 0.081
79.7938 0.083
79.8240 0.293
79.8543 0.608
79.8846 0.143
79.9149 -0.063
79.9452 -0.059
79.9754 0.257
80.0057 0.366
80.0360 0.631
80.0663 -0.094
80.0966 0.224
80.1268 0.177
80.1571 0.444
80.1874 -0.019
80.2177 0.508
80.2479 -0.214
80.2782 -0.415
80.3085 0.255
80.3388 0.717
80.3691 0.294
80.3993 0.027
80.4296 0.177
80.4599 0.016
80.4902 -0.042
80.5205 0.370
80.5507 0.678
80.5810 0.361
80.6113 -0.059
80.6416 0.562
80.6718 0.143
80.7021 0.504
80.7324 0.398
80.7627 0.604
80.7930 -0.231
80.8232 -0.233
80.8535 0.077
80.8838 0.180
80.9141 0.387
80.9444 0.386
80.9746 0.072
81.0049 0.280
81.0352 0.853
81.0655 0.437
81.0957 0.177
81.1260 0.021
81.1563 0.179
81.1866 0.805
81.2169 0.859
81.2471 0.393
81.2774 0.812
81.3077 0.242
81.3380 0.922
81.3683 0.405
81.3985 0.773
81.4288 0.778
81.4591 0.522
81.4894 0.527
81.5196 0.480
81.5499 0.381
81.5802 0.074
81.6105 0.289
81.6408 -0.017
81.6710 0.094
81.7013 0.466
81.7316 -0.152
81.7619 0.221
81.7922 -0.084
81.8224 0.237
81.8527 0.298
81.8830 0.307
81.9133 0.109
81.9436 0.431
81.9738 0.441
82.0041 -0.069
82.0344 -0.215
82.0647 -0.165
82.0949 -0.011
82.1252 0.248
82.1555 0.715
82.1858 0.350
82.2161 0.089
82.2463 0.088
82.2766 0.193
82.3069 0.089
82.3372 0.454
82.3675 0.090
82.3977 0.352
82.4280 0.250
82.4583 0.043
82.4886 -0.215
82.5188 -0.166
82.5491 -0.013
82.5794 0.556
82.6097 -0.227
82.6400 0.395
82.6702 0.289
82.7005 0.183
82.7308 0.182
82.7611 0.181
82.7914 0.128
82.8216 0.284
82.8519 0.023
82.8822 0.128
82.9125 0.285
82.9427 0.286
82.9730 -0.182
83.0033 -0.076
83.0336 0.134
83.0639 0.241
83.0941 -0.121
83.1244 0.038
83.1547 -0.115
83.1850 0.097
83.2153 0.934
83.2455 0.053
83.2758 -0.046
83.3061 0.167
83.3364 0.277
83.3666 -0.082
83.3969 -0.389
83.4272 0.124
83.4575 0.064
83.4878 0.056
83.5180 0.154
83.5483 -0.374
83.5786 0.140
83.6089 0.082
83.6392 -0.080
83.6694 -0.033
83.6997 0.118
83.7300 0.530
83.7603 0.421
83.7905 -0.052
83.8208 0.413
83.8511 0.202
83.8814 -0.010
83.9117 -0.221
83.9419 0.032
83.9722 0.130
84.0025 0.019
84.0328 0.117
84.0631 -0.201
84.0933 0.106
84.1236 0.153
84.1539 -0.008
84.1842 -0.012
84.2144 0.192
84.2447 0.032
84.2750 0.341
84.3053 0.442
84.3356 0.127
84.3658 0.229
84.3961 -0.034
84.4264 -0.036
84.4567 -0.089
84.4870 0.222
84.5172 0.274
84.5475 -0.143
84.5778 0.690
84.6081 0.065
84.6383 0.430
84.6686 -0.506
84.6989 -0.141
84.7292 -0.243
84.7595 0.331
84.7897 -0.083
84.8200 0.232
84.8503 0.339
84.8806 -0.387
84.9109 -0.227
84.9411 0.340
84.9714 -0.291
85.0017 0.172
85.0320 0.532
85.0623 0.266
85.0925 0.158
85.1228 0.049
85.1531 0.410
85.1834 0.146
85.2136 -0.430
85.2439 -0.068
85.2742 -0.592
85.3045 0.396
85.3348 -0.075
85.3650 0.288
85.3953 0.079
85.4256 -0.183
85.4559 -0.079
85.4862 0.285
85.5164 -0.235
85.5467 0.390
85.5770 -0.234
85.6073 -0.233
85.6375 0.182
85.6678 -0.028
85.6981 0.283
85.7284 -0.083
85.7587 0.020
85.7889 0.385
85.8192 -0.084
85.8495 -0.084
85.8798 0.125
85.9101 -0.135
85.9403 0.387
85.9706 0.285
86.0009 -0.182
86.0312 0.237
86.0614 0.240
86.0917 -0.070
86.1220 0.298
86.1523 0.145
86.1826 0.201
86.2128 0.205
86.2431 -0.363
86.2734 -0.164
86.3037 -0.068
86.3340 0.288
86.3642 -0.085
86.3945 0.272
86.4248 -0.048
86.4551 0.414
86.4853 0.199
86.5156 0.297
86.5459 -0.334
86.5762 0.129
86.6065 0.071
86.6367 0.014
86.6670 -0.199
86.6973 0.317
86.7276 -0.103
86.7579 0.310
86.7881 0.150
86.8184 -0.113
86.8487 0.092
86.8790 0.194
86.9092 -0.433
86.9395 0.294
86.9698 0.032
87.0001 -0.021
87.0304 -0.490
87.0606 0.291
87.0909 -0.126
87.1212 -0.178
87.1515 -0.125
87.1818 -0.020
87.2120 -0.175
87.2423 0.295
87.2726 -0.276
87.3029 0.299
87.3331 -0.271
87.3634 -0.112
87.3937 0.308
87.4240 0.155
87.4543 0.315
87.4845 -0.201
87.5148 0.012
87.5451 -0.192
87.5754 -0.239
87.6057 -0.236
87.6359 0.288
87.6662 0.292
87.6965 -0.016
87.7268 -0.064
87.7571 -0.059
87.7873 -0.107
87.8176 0.211
87.8479 -0.148
87.8782 0.327
87.9084 -0.083
87.9387 -0.285
87.9690 0.115
87.9993 0.098
88.0296 -0.022
88.0598 0.066
88.0901 -0.002
88.1204 0.399
88.1507 0.072
88.1810 0.265
88.2112 -0.113
88.2415 -0.180
88.2718 0.171
88.3021 0.106
88.3323 0.145
88.3626 -0.128
88.3929 0.485
88.4232 0.056
88.4535 0.357
88.4837 0.293
88.5140 -0.134
88.5443 -0.197
88.5746 -0.103
88.6049 0.303
88.6351 0.294
88.6654 -0.132
88.6957 0.327
88.7260 0.058
88.7562 0.050
88.7865 0.042
88.8168 -0.174
88.8471 0.495
88.8774 0.280
88.9076 0.013
88.9379 0.736
88.9682 0.469
88.9985 0.516
89.0288 0.146
89.0590 0.766
89.0893 0.865
89.1196 0.965
89.1499 0.596
89.1801 0.749
89.2104 1.162
89.2407 0.898
89.2710 0.948
89.3013 1.727
89.3315 0.683
89.3618 1.931
89.3921 1.774
89.4224 1.200
89.4527 1.772
89.4829 1.198
89.5132 2.188
89.5435 1.251
89.5738 1.824
89.6040 1.304
89.6343 1.045
89.6646 1.307
89.6949 1.621
89.7252 1.155
89.7554 1.105
89.7857 2.098
89.8160 0.955
89.8463 1.271
89.8766 0.754
89.9068 0.602
89.9371 1.336
89.9674 0.299
89.9977 1.034
90.0279 0.935
90.0582 0.889
90.0885 0.478
90.1188 0.016
90.1491 0.909
90.1793 0.499
90.2096 0.507
90.2399 0.358
90.2702 0.158
90.3005 0.479
90.3307 -0.033
90.3610 0.237
90.3913 -0.066
90.4216 0.308
90.4518 -0.150
90.4821 0.121
90.5124 0.027
90.5427 0.403
90.5730 0.623
90.6032 0.322
90.6335 -0.186
90.6638 -0.017
90.6941 0.047
90.7244 -0.512
90.7546 0.335
90.7849 0.192
90.8152 0.258
90.8455 0.429
90.8758 0.600
90.9060 0.147
90.9363 0.214
90.9666 -0.239
90.9969 -0.341
91.0271 0.338
91.0574 0.444
91.0877 -0.282
91.1180 0.554
91.1483 0.245
91.1785 0.093
91.2088 0.513
91.2391 0.205
91.2694 -0.259
91.2997 -0.165
91.3299 0.449
91.3602 0.179
91.3905 -0.716
91.4208 0.160
91.4510 0.307
91.4813 0.038
91.5116 0.030
91.5419 0.334
91.5722 0.118
91.6024 -0.045
91.6327 0.469
91.6630 0.150
91.6933 0.143
91.7236 -0.019
91.7538 -0.285
91.7841 0.069
91.8144 0.007
91.8447 0.154
91.8749 -0.168
91.9052 -0.073
91.9355 0.127
91.9658 -0.350
91.9961 0.684
92.0263 -0.522
92.0566 -0.112
92.0869 0.193
92.1172 -0.074
92.1475 0.233
92.1777 0.018
92.2080 0.169
92.2383 0.008
92.2686 -0.362
92.2988 0.154
92.3291 0.098
92.3594 -0.010
92.3897 0.195
92.4200 -0.121
92.4502 0.241
92.4805 0.707
92.5108 0.340
92.5411 0.494
92.5714 0.076
92.6016 0.127
92.6319 0.282
92.6622 -0.187
92.6925 0.906
92.7227 0.594
92.7530 0.490
92.7833 0.543
92.8136 0.127
92.8439 0.285
92.8741 -0.287
92.9044 -0.024
92.9347 0.186
92.9650 0.450
92.9953 0.661
93.0255 0.508
93.0558 0.460
93.0861 0.151
93.1164 -0.053
93.1466 0.316
93.1769 0.582
93.2072 -0.298
93.2375 0.176
93.2678 0.130
93.2980 -0.176
93.3283 -0.169
93.3586 0.202
93.3889 -0.311
93.4192 -0.155
93.4494 -0.311
93.4797 0.209
93.5100 0.312
93.5403 0.208
93.5706 0.156
93.6008 0.053
93.6311 -0.311
93.6614 -0.008
93.6917 -0.485
93.7219 0.184
93.7522 0.020
93.7825 -0.249
93.8128 0.161
93.8431 -0.263
93.8733 -0.009
93.9036 0.558
93.9339 0.656
93.9642 0.077
93.9945 0.436
94.0247 -0.141
94.0550 -0.094
94.0853 -0.255
94.1156 0.471
94.1458 -0.262
94.1761 -0.266
94.2064 0.139
94.2367 -0.132
94.2670 0.378
94.2972 -0.154
94.3275 -0.060
94.3578 0.763
94.3881 -0.028
94.4184 0.224
94.4486 0.267
94.4789 0.206
94.5092 -0.011
94.5395 0.085
94.5697 0.078
94.6000 0.227
94.6303 0.532
94.6606 0.161
94.6909 0.155
94.7211 1.138
94.7514 0.820
94.7817 0.242
94.8120 0.914
94.8423 0.701
94.8725 0.540
94.9028 1.317
94.9331 0.689
94.9634 1.883
94.9936 0.734
95.0239 1.461
95.0542 0.938
95.0845 1.300
95.1148 0.778
95.1450 0.724
95.1753 0.567
95.2056 0.879
95.2359 1.451
95.2662 1.660
95.2964 1.400
95.3267 1.400
95.3570 0.828
95.3873 1.767
95.4175 0.519
95.4478 1.406
95.4781 0.783
95.5084 0.734
95.5387 0.737
95.5689 0.428
95.5992 0.119
95.6295 0.852
95.6598 0.700
95.6901 0.236
95.7203 0.501
95.7506 0.558
95.7809 0.147
95.8112 0.726
95.8414 0.264
95.8717 0.479
95.9020 0.538
95.9323 0.076
95.9626 -0.021
95.9928 0.508
96.0231 0.360
96.0534 0.525
96.0837 0.378
96.1140 0.179
96.1442 0.084
96.1745 -0.271
96.2048 -0.211
96.2351 -0.100
96.2653 0.846
96.2956 -0.188
96.3259 0.602
96.3562 -0.275
96.3865 -0.266
96.4167 0.159
96.4470 -0.249
96.4773 0.020
96.5076 0.029
96.5379 -0.118
96.5681 -0.056
96.5984 0.058
96.6287 0.277
96.6590 -0.285
96.6893 -0.226
96.7195 -0.062
96.7498 -0.314
96.7801 0.267
96.8104 0.275
96.8406 -0.289
96.8709 0.294
96.9012 0.564
96.9315 0.261
96.9618 0.011
96.9920 0.073
97.0223 -0.228
97.0526 0.408
97.0829 -0.153
97.1132 0.015
97.1434 -0.025
97.1737 0.404
97.2040 0.105
97.2343 -0.090
97.2645 0.705
97.2948 -0.063
97.3251 0.212
97.3554 0.643
97.3857 0.502
97.4159 0.517
97.4462 0.012
97.4765 -0.233
97.5068 0.014
97.5371 0.052
97.5673 -0.013
97.5976 0.130
97.6279 -0.195
97.6582 -0.363
97.6884 0.248
97.7187 0.183
97.7490 0.117
97.7793 0.417
97.8096 0.405
97.8398 0.288
97.8701 0.277
97.9004 0.317
97.9307 0.879
97.9610 0.608
97.9912 -0.027
98.0215 0.223
98.0518 0.421
98.0821 0.308
98.1123 0.090
98.1426 1.123
98.1729 0.229
98.2032 0.638
98.2335 0.526
98.2637 -0.054
98.2940 1.136
98.3243 1.025
98.3546 0.654
98.3849 0.232
98.4151 1.007
98.4454 0.481
98.4757 0.736
98.5060 0.731
98.5362 0.623
98.5665 1.348
98.5968 0.250
98.6271 0.715
98.6574 0.400
98.6876 0.709
98.7179 1.019
98.7482 0.496
98.7785 0.078
98.8088 0.649
98.8390 0.544
98.8693 0.699
98.8996 0.178
98.9299 0.855
98.9601 -0.082
98.9904 -0.290
99.0207 0.492
99.0510 -0.080
99.0813 0.338
99.1115 -0.181
99.1418 -0.022
99.1721 0.293
99.2024 0.348
99.2327 -0.066
99.2629 0.250
99.2932 0.566
99.3235 -0.002
99.3538 0.002
99.3841 -0.097
99.4143 -0.457
99.4446 0.278
99.4749 0.128
99.5052 0.029
99.5354 0.453
99.5657 -0.270
99.5960 0.050
99.6263 -0.255
99.6566 -0.198
99.6868 0.224
99.7171 -0.083
99.7474 -0.077
99.7777 0.242
99.8080 -0.324
99.8382 0.569
99.8685 -0.153
99.8988 0.063
99.9291 0.227
99.9593 -0.285
99.9896 -0.175
100.0199 0.092
100.0502 0.046
100.0805 -0.155
100.1107 0.061
100.1410 -0.244
100.1713 -0.093
100.2016 0.162
100.2319 0.314
100.2621 0.101
100.2924 0.305
100.3227 0.145
100.3530 -0.067
100.3832 -0.226
100.4135 -0.020
100.4438 -0.075
100.4741 -0.598
100.5044 0.127
100.5346 -0.190
100.5649 0.223
100.5952 0.532
100.6255 0.112
100.6558 0.109
100.6860 -0.101
100.7163 -0.156
100.7466 0.051
100.7769 0.258
100.8071 0.152
100.8374 -0.317
100.8677 -0.005
100.8980 0.046
100.9283 -0.110
100.9585 -0.161
100.9888 -0.160
101.0191 -0.107
101.0494 -0.106
101.0797 -0.104
101.1099 -0.050
101.1402 0.109
101.1705 0.112
101.2008 -0.250
101.2310 -0.203
101.2613 0.052
101.2916 -0.317
101.3219 0.303
101.3522 0.195
101.3824 0.503
101.4127 0.135
101.4430 0.132
101.4733 -0.339
101.5036 0.075
101.5338 0.020
101.5641 0.539
101.5944 0.069
101.6247 0.224
101.6549 -0.141
101.6852 -0.142
101.7155 0.691
101.7458 -0.142
101.7761 0.223
101.8063 -0.089
101.8366 -0.192
101.8669 -0.190
101.8972 -0.449
101.9275 0.387
101.9577 0.077
101.9880 -0.389
102.0183 -0.043
102.0486 0.199
102.0788 -0.184
102.1091 0.528
102.1394 -0.115
102.1697 -0.392
102.2000 0.216
102.2302 0.148
102.2605 0.184
102.2908 -0.405
102.3211 -0.003
102.3514 0.294
102.3816 0.696
102.4119 -0.151
102.4422 0.355
102.4725 0.446
102.5028 0.224
102.5330 -0.049
102.5633 0.303
102.5936 -0.282
102.6239 -0.034
102.6541 0.215
102.6844 -0.213
102.7147 -0.120
102.7450 0.130
102.7753 0.900
102.8055 -0.255
102.8358 -0.005
102.8661 0.090
102.8964 0.706
102.9267 -0.084
102.9569 0.064
102.9872 0.577
103.0175 0.361
103.0478 0.510
103.0780 -0.122
103.1083 -0.337
103.1386 0.179
103.1689 0.852
103.1992 0.118
103.2294 0.479
103.2597 0.007
103.2900 0.057
103.3203 0.366
103.3506 0.052
103.3808 0.362
103.4111 0.829
103.4414 0.724
103.4717 0.567
103.5019 -0.215
103.5322 0.357
103.5625 -0.059
103.5928 0.149
103.6231 0.202
103.6533 -0.526
103.6836 0.934
103.7139 0.987
103.7442 0.468
103.7745 0.731
103.8047 0.630
103.8350 0.424
103.8653 1.001
103.8956 0.692
103.9258 0.800
103.9561 0.961
103.9864 -0.285
104.0167 0.501
104.0470 1.288
104.0772 0.773
104.1075 1.091
104.1378 0.785
104.1681 0.740
104.1984 0.538
104.2286 0.441
104.2589 0.605
104.2892 0.613
104.3195 0.622
104.3497 0.474
104.3800 0.431
104.4103 0.388
104.4406 0.346
104.4709 1.137
104.5011 0.835
104.5314 0.116
104.5617 -0.081
104.5920 0.555
104.6223 0.358
104.6525 0.214
104.6828 0.226
104.7131 0.083
104.7434 -0.165
104.7736 0.265
104.8039 0.227
104.8342 -0.228
104.8645 0.828
104.8948 -0.199
104.9250 -0.184
104.9553 0.248
104.9856 0.367
105.0159 0.175
105.0462 0.191
105.0764 0.208
105.1067 -0.088
105.1370 -0.123
105.1673 -0.105
105.1975 0.121
105.2278 0.192
105.2581 0.158
105.2884 -0.083
105.3187 0.353
105.3489 0.008
105.3792 -0.441
105.4095 0.026
105.4398 0.390
105.4701 0.338
105.5003 -0.079
105.5306 0.338
105.5609 -0.547
105.5912 0.235
105.6215 0.028
105.6517 0.602
105.6820 0.031
105.7123 0.502
105.7426 0.192
105.7728 -0.065
105.8031 0.459
105.8334 0.150
105.8637 0.362
105.8940 0.054
105.9242 0.162
105.9545 -0.301
105.9848 0.172
106.0151 -0.239
106.0454 -0.142
106.0756 0.319
106.1059 0.052
106.1362 -0.215
106.1665 0.195
106.1967 0.346
106.2270 -0.181
106.2573 0.022
106.2876 -0.243
106.3179 0.065
106.3481 0.060
106.3784 0.421
106.4087 -0.416
106.4390 0.310
106.4693 0.151
106.4995 0.148
106.5298 0.198
106.5601 -0.221
106.5904 0.194
106.6206 -0.172
106.6509 0.035
106.6812 0.087
106.7115 -0.122
106.7418 0.451
106.7720 0.035
106.8023 -0.225
106.8326 -0.120
106.8629 0.454
106.8932 0.300
106.9234 0.146
106.9537 0.304
106.9840 0.203
107.0143 -0.211
107.0445 0.105
107.0748 0.317
107.1051 0.373
107.1354 0.117
107.1657 0.538
107.1959 -0.082
107.2262 0.704
107.2565 -0.227
107.2868 0.456
107.3171 0.358
107.3473 -0.208
107.3776 0.215
107.4079 0.118
107.4382 -0.239
107.4684 -0.453
107.4987 0.686
107.5290 -0.361
107.5593 -0.054
107.5896 0.618
107.6198 0.353
107.6501 1.026
107.6804 -0.332
107.7107 0.237
107.7410 0.650
107.7712 0.022
107.8015 0.280
107.8318 0.121
107.8621 -0.506
107.8923 0.065
107.9226 0.116
107.9529 0.375
107.9832 -0.042
108.0135 0.270
108.0437 -0.147
108.0740 -0.094
108.1043 -0.771
108.1346 0.480
108.1649 -0.092
108.1951 -0.090
108.2254 0.693
108.2557 0.591
108.2860 0.073
108.3163 0.649
108.3465 -0.129
108.3768 0.083
108.4071 -0.018
108.4374 0.455
108.4676 -0.113
108.4979 -0.056
108.5282 -0.259
108.5585 0.109
108.5888 0.164
108.6190 -0.145
108.6493 -0.089
108.6796 -0.085
108.7099 -0.028
108.7402 0.081
108.7704 -0.174
108.8007 0.248
108.8310 0.150
108.8613 -0.260
108.8915 0.059
108.9218 -0.195
108.9521 0.646
108.9824 -0.023
109.0127 0.037
109.0429 0.045
109.0732 -0.311
109.1035 -0.012
109.1338 0.755
109.1641 -0.247
109.1943 0.261
109.2246 0.144
109.2549 0.184
109.2852 0.068
109.3154 -0.412
109.3457 0.826
109.3760 -0.330
109.4063 0.805
109.4366 -0.455
109.4668 0.056
109.4971 0.046
109.5274 -0.328
109.5577 0.757
109.5880 0.488
109.6182 0.220
109.6485 -0.049
109.6788 -0.056
109.7091 -0.011
109.7393 0.086
109.7696 -0.441
109.7999 -0.030
109.8302 0.172
109.8605 0.584
109.8907 0.267
109.9210 0.054
109.9513 0.050
109.9816 -0.319
110.0119 0.043
110.0421 0.352
110.0724 0.453
110.1027 0.347
110.1330 0.345
110.1632 0.655
110.1935 0.706
110.2238 0.288
110.2541 0.600
110.2844 0.599
110.3146 0.703
110.3449 0.391
110.3752 0.600
110.4055 0.184
110.4358 0.133
110.4660 -0.178
110.4963 0.501
110.5266 0.399
110.5569 0.714
110.5871 0.977
110.6174 0.512
110.6477 0.567
110.6780 0.727
110.7083 0.159
110.7385 0.372
110.7688 0.376
110.7991 0.954
110.8294 0.387
110.8597 0.393
110.8899 0.139
110.9202 0.562
110.9505 0.360
110.9808 0.628
111.0110 0.219
111.0413 0.122
111.0716 0.235
111.1019 -0.330
111.1322 0.200
111.1624 -0.052
111.1927 0.114
111.2230 0.124
111.2533 0.082
111.2836 -0.272
111.3138 0.103
111.3441 0.271
111.3744 -0.239
111.4047 -0.296
111.4350 0.325
111.4652 0.008
111.4955 0.421
111.5258 0.470
111.5561 0.415
111.5863 0.099
111.6166 0.253
111.6469 0.407
111.6772 -0.220
111.7075 -0.013
111.7377 -0.431
111.7680 0.089
111.7983 0.193
111.8286 0.349
111.8589 0.089
111.8891 0.142
111.9194 -0.066
111.9497 -0.221
111.9800 0.145
112.0102 0.459
112.0405 -0.111
112.0708 0.099
112.1011 -0.314
112.1314 0.262
112.1616 0.630
112.1919 0.321
112.2222 0.481
112.2525 0.121
112.2828 0.178
112.3130 -0.129
112.3433 0.553
112.3736 -0.274
112.4039 0.253
112.4341 -0.001
112.4644 0.058
112.4947 0.065
112.5250 0.020
112.5553 0.080
112.5855 -0.172
112.6158 0.045
112.6461 -0.311
112.6764 0.005
112.7067 0.477
112.7369 -0.144
112.7672 0.485
112.7975 0.229
112.8278 0.754
112.8580 -0.542
112.8883 0.296
112.9186 0.354
112.9489 0.152
112.9792 0.054
113.0094 0.686
113.0397 -0.401
113.0700 0.388
113.1003 -0.125
113.1306 -0.221
113.1608 -0.024
113.1911 -0.086
113.2214 0.112
113.2517 0.519
113.2819 0.509
113.3122 0.083
113.3425 0.178
113.3728 0.430
113.4031 -0.464
113.4333 0.310
113.4636 0.667
113.4939 -0.278
113.5242 -0.233
113.5545 -0.083
113.5847 0.068
113.6150 0.219
113.6453 -0.099
113.6756 -0.051
113.7058 0.413
113.7361 -0.112
113.7664 -0.116
113.7967 0.089
113.8270 0.190
113.8572 0.396
113.8875 0.342
113.9178 0.496
113.9481 -0.079
113.9784 -0.080
114.0086 -0.185
114.0389 0.022
114.0692 -0.239
114.0995 -0.038
114.1298 -0.253
114.1600 0.104
114.1903 -0.059
114.2206 0.196
114.2509 0.138
114.2811 -0.180
114.3114 0.283
114.3417 0.434
114.3720 0.274
114.4023 -0.199
114.4325 -0.047
114.4628 -0.363
114.4931 0.089
114.5234 -0.136
114.5537 -0.048
114.5839 -0.012
114.6142 0.129
114.6445 -0.147
114.6748 -0.057
114.7050 -0.072
114.7353 -0.399
114.7656 0.421
114.7959 -0.061
114.8262 0.342
114.8564 0.121
114.8867 -0.048
114.9170 0.044
114.9473 0.188
114.9776 0.073
115.0078 0.426
115.0381 0.624
115.0684 -0.377
115.0987 0.030
115.1289 0.176
115.1592 0.010
115.1895 -0.363
115.2198 0.044
115.2501 -0.069
115.2803 0.079
115.3106 -0.190
115.3409 -0.198
115.3712 0.055
115.4015 0.100
115.4317 -0.324
115.4620 0.139
115.4923 0.237
115.5226 0.179
115.5528 0.173
115.5831 0.064
115.6134 0.215
115.6437 0.054
115.6740 0.831
115.7042 0.931
115.7345 1.136
115.7648 0.768
115.7951 0.609
115.8254 1.179
115.8556 0.448
115.8859 1.279
115.9162 1.017
115.9465 0.600
115.9767 1.276
116.0070 1.275
116.0373 0.598
116.0676 1.327
116.0979 1.275
116.1281 0.859
116.1584 1.642
116.1887 0.862
116.2190 0.864
116.2493 1.178
116.2795 0.347
116.3098 0.767
116.3401 0.874
116.3704 1.190
116.4006 1.089
116.4309 0.312
116.4612 0.889
116.4915 0.946
116.5218 0.534
116.5520 1.373
116.5823 1.118
116.6126 0.760
116.6429 1.027
116.6732 1.450
116.7034 0.572
116.7337 1.621
116.7640 0.483
116.7943 0.230
116.8245 0.499
116.8548 0.195
116.8851 0.777
116.9154 0.318
116.9457 0.536
116.9759 0.494
117.0062 1.285
117.0365 -0.110
117.0668 0.734
117.0971 0.589
117.1273 -0.024
117.1576 -0.116
117.1879 0.417
117.2182 0.481
117.2485 0.390
117.2787 0.299
117.3090 0.313
117.3393 0.015
117.3696 0.185
117.3998 0.356
117.4301 0.006
117.4604 0.386
117.4907 -0.119
117.5210 -0.311
117.5512 0.161
117.5815 -0.200
117.6118 0.586
117.6421 0.226
117.6724 0.543
117.7026 0.600
117.7329 0.137
117.7632 0.299
117.7935 0.357
117.8237 0.468
117.8540 0.579
117.8843 0.325
117.9146 0.020
117.9449 0.497
117.9751 -0.120
118.0054 0.201
118.0357 -0.259
118.0660 -0.157
118.0963 0.101
118.1265 -0.110
118.1568 0.566
118.1871 0.148
118.2174 0.251
118.2476 -0.166
118.2779 0.094
118.3082 0.302
118.3385 0.406
118.3688 0.147
118.3990 0.252
118.4293 0.670
118.4596 -0.474
118.4899 0.413
118.5202 0.259
118.5504 -0.519
118.5807 -0.213
118.6110 -0.115
118.6413 -0.069
118.6715 0.186
118.7018 0.233
118.7321 0.385
118.7624 0.432
118.7927 -0.249
118.8229 0.529
118.8532 -0.256
118.8835 -0.415
118.9138 0.311
118.9441 -0.264
118.9743 0.203
119.0046 0.046
119.0349 0.201
119.0652 0.096
119.0954 -0.165
119.1257 0.043
119.1560 -0.113
119.1863 0.148
119.2166 0.097
119.2468 0.255
119.2771 -0.212
119.3074 -0.211
119.3377 0.104
119.3680 0.680
119.3982 -0.047
119.4285 -0.200
119.4588 -0.196
119.4891 -0.244
119.5193 -0.135
119.5496 0.340
119.5799 -0.070
119.6102 0.301
119.6405 -0.109
119.6707 0.211
119.7010 0.010
119.7313 0.331
119.7616 0.026
119.7919 0.087
119.8221 0.148
119.8524 0.834
119.8827 0.115
119.9130 0.489
119.9433 0.239
119.9735 0.041
120.0038 0.000
