'Id: "" Comment: "" Operator: "Lab Manager" Anode: "Cu" Scantype: "Locked Coupled" TimePerStep: "19.2" X: "9999" Y: "9999" Z: "9999" 
10.0015 0.000
10.0318 -0.466
10.0620 -0.100
10.0923 -0.358
10.1226 0.426
10.1529 -0.665
10.1832 -0.245
10.2134 0.800
10.2437 -0.394
10.2740 -0.442
10.3043 0.365
10.3346 0.391
10.3648 0.053
10.3951 0.184
10.4254 -0.206
10.4557 -0.230
10.4859 0.214
10.5162 0.816
10.5465 0.219
10.5768 0.144
10.6071 0.643
10.6373 -0.109
10.6676 -0.183
10.6979 -0.517
10.7282 1.129
10.7585 0.952
10.7887 0.046
10.8190 -0.130
10.8493 -0.410
10.8796 -0.359
10.9098 0.265
10.9401 0.369
10.9704 -0.100
11.0007 0.266
11.0310 -0.671
11.0612 0.059
11.0915 0.113
11.1218 -0.041
11.1521 0.534
11.1824 0.901
11.2126 1.217
11.2429 1.116
11.2732 -0.026
11.3035 0.500
11.3337 0.192
11.3640 0.457
11.3943 0.358
11.4246 0.260
11.4549 0.266
11.4851 0.742
11.5154 -0.033
11.5457 1.433
11.5760 0.086
11.6063 0.303
11.6365 1.718
11.6668 -0.149
11.6971 0.642
11.7274 0.183
11.7577 -0.328
11.7879 0.516
11.8182 0.005
11.8485 -0.400
11.8788 -0.338
11.9090 -0.015
11.9393 -0.838
11.9696 0.475
11.9999 -0.451
12.0302 0.081
12.0604 0.458
12.0907 1.043
12.1210 0.744
12.1513 0.444
12.1816 0.354
12.2118 1.149
12.2421 0.434
12.2724 0.970
12.3027 0.620
12.3329 0.480
12.3632 -0.442
12.3935 0.616
12.4238 0.737
12.4541 0.441
12.4843 1.188
12.5146 0.164
12.5449 -0.078
12.5752 0.357
12.6055 0.584
12.6357 0.447
12.6660 -0.210
12.6963 1.633
12.7266 -0.169
12.7568 0.112
12.7871 0.133
12.8174 0.936
12.8477 0.906
12.8780 0.928
12.9082 0.795
12.9385 1.182
12.9688 0.425
12.9991 0.448
13.0294 1.046
13.0596 0.654
13.0899 0.262
13.1202 -0.494
13.1505 -0.252
13.1807 0.512
13.2110 0.078
13.2413 0.894
13.2716 0.304
13.3019 1.330
13.3321 0.637
13.3624 -0.577
13.3927 1.179
13.4230 0.174
13.4533 0.473
13.4835 -0.271
13.5138 0.809
13.5441 0.796
13.5744 -0.310
13.6046 0.615
13.6349 -0.127
13.6652 0.851
13.6955 0.319
13.7258 0.725
13.7560 1.026
13.7863 0.756
13.8166 1.475
13.8469 0.216
13.8772 -0.002
13.9074 0.927
13.9377 0.658
13.9680 0.546
13.9983 -0.399
14.0285 0.375
14.0588 0.212
14.0891 -0.419
14.1194 0.877
14.1497 0.142
14.1799 0.501
14.2102 0.548
14.2405 -0.498
14.2708 0.227
14.3011 0.588
14.3313 -0.092
14.3616 1.102
14.3919 0.475
14.4222 -0.309
14.4524 0.679
14.4827 0.105
14.5130 0.208
14.5433 -0.053
14.5736 0.832
14.6038 -0.054
14.6341 0.051
14.6644 0.260
14.6947 -0.155
14.7250 0.315
14.7552 -0.100
14.7855 0.059
14.8158 0.009
14.8461 -0.404
14.8764 0.485
14.9066 0.280
14.9369 -0.601
14.9672 0.445
14.9975 -0.123
15.0277 0.456
15.0580 -0.320
15.0883 -0.210
15.1186 -0.203
15.1489 0.585
15.1791 0.019
15.2094 -0.546
15.2397 0.026
15.2700 0.078
15.3003 -0.339
15.3305 0.494
15.3608 0.182
15.3911 0.236
15.4214 0.289
15.4516 -0.022
15.4819 -0.072
15.5122 0.556
15.5425 0.611
15.5728 0.197
15.6030 -0.945
15.6333 0.465
15.6636 0.470
15.6939 -0.255
15.7242 -0.354
15.7544 -0.088
15.7847 -0.134
15.8150 0.237
15.8453 0.088
15.8755 0.303
15.9058 0.102
15.9361 0.579
15.9664 -0.142
15.9967 0.856
16.0269 -0.333
16.0572 -0.324
16.0875 -0.314
16.1178 0.477
16.1481 -0.137
16.1783 0.186
16.2086 0.198
16.2389 -0.416
16.2692 -0.156
16.2994 0.103
16.3297 0.311
16.3600 -0.001
16.3903 0.937
16.4206 -0.365
16.4508 -0.468
16.4811 0.415
16.5114 -0.265
16.5417 0.670
16.5720 0.043
16.6022 0.302
16.6325 -0.272
16.6628 0.040
16.6931 -0.898
16.7233 0.873
16.7536 -0.273
16.7839 0.457
16.8142 -0.010
16.8445 0.304
16.8747 -0.163
16.9050 0.152
16.9353 0.988
16.9656 0.939
16.9959 0.161
17.0261 0.790
17.0564 0.430
17.0867 0.747
17.1170 0.439
17.1472 0.757
17.1775 -0.071
17.2078 0.873
17.2381 0.098
17.2684 -0.312
17.2986 0.581
17.3289 0.068
17.3592 -0.185
17.3895 0.449
17.4198 0.770
17.4500 -0.783
17.4803 -0.357
17.5106 0.574
17.5409 -0.526
17.5712 0.561
17.6014 0.816
17.6317 -0.126
17.6620 0.077
17.6923 -0.240
17.7225 -0.400
17.7528 0.377
17.7831 -0.042
17.8134 -0.202
17.8437 0.108
17.8739 0.367
17.9042 0.781
17.9345 0.311
17.9648 0.362
17.9951 -0.055
18.0253 0.778
18.0556 0.049
18.0859 1.091
18.1162 0.103
18.1464 0.260
18.1767 1.095
18.2070 0.160
18.2373 -0.150
18.2676 0.269
18.2978 -0.717
18.3281 0.172
18.3584 0.384
18.3887 -0.028
18.4190 0.549
18.4492 0.554
18.4795 1.185
18.5098 0.253
18.5401 0.468
18.5703 0.630
18.6006 0.012
18.6309 0.384
18.6612 -0.337
18.6915 0.244
18.7217 -0.060
18.7520 -0.520
18.7823 0.098
18.8126 0.663
18.8429 0.396
18.8731 0.442
18.9034 0.644
18.9337 -0.247
18.9640 -0.044
18.9942 0.628
19.0245 0.207
19.0548 -0.005
19.0851 0.147
19.1154 -0.221
19.1456 1.183
19.1759 0.659
19.2062 0.345
19.2365 -0.074
19.2668 0.654
19.2970 0.288
19.3273 -0.077
19.3576 -0.807
19.3879 0.391
19.4181 0.236
19.4484 -0.024
19.4787 0.446
19.5090 0.343
19.5393 -0.228
19.5695 0.191
19.5998 0.663
19.6301 -0.219
19.6604 -0.320
19.6907 0.726
19.7209 -0.624
19.7512 0.109
19.7815 0.167
19.8118 -0.141
19.8420 0.542
19.8723 0.965
19.9026 0.451
19.9329 0.562
19.9632 0.257
19.9934 0.264
20.0237 0.116
20.0540 -0.500
20.0843 0.029
20.1146 0.507
20.1448 0.465
20.1751 0.006
20.2054 0.225
20.2357 -0.390
20.2659 -0.174
20.2962 0.303
20.3265 0.000
20.3568 0.217
20.3871 0.122
20.4173 0.080
20.4476 -0.119
20.4779 0.152
20.5082 0.267
20.5385 0.799
20.5687 1.019
20.5990 0.042
20.6293 0.575
20.6596 0.900
20.6899 0.184
20.7201 -0.323
20.7504 0.055
20.7807 0.018
20.8110 0.553
20.8412 0.412
20.8715 -0.146
20.9018 0.703
20.9321 -0.218
20.9624 -0.201
20.9926 0.389
21.0229 -0.115
21.0532 1.257
21.0835 -0.131
21.1138 -0.321
21.1440 0.033
21.1743 -0.134
21.2046 1.002
21.2349 0.367
21.2651 0.149
21.2954 1.234
21.3257 0.444
21.3560 0.384
21.3863 0.063
21.4165 0.264
21.4468 0.257
21.4771 1.292
21.5074 0.504
21.5377 0.603
21.5679 0.441
21.5982 0.279
21.6285 0.431
21.6588 0.010
21.6890 -0.098
21.7193 0.471
21.7496 0.728
21.7799 0.413
21.8102 0.202
21.8404 -0.530
21.8707 0.510
21.9010 0.248
21.9313 0.560
21.9616 0.247
21.9918 -0.066
22.0221 1.184
22.0524 0.820
22.0827 0.300
22.1129 0.406
22.1432 -0.061
22.1735 0.566
22.2038 0.360
22.2341 0.571
22.2643 -0.520
22.2946 -0.520
22.3249 0.564
22.3552 0.346
22.3855 0.440
22.4157 0.640
22.4460 -0.150
22.4763 0.154
22.5066 -0.167
22.5368 0.399
22.5671 0.600
22.5974 0.541
22.6277 0.274
22.6580 0.164
22.6882 -0.050
22.7185 0.466
22.7488 0.357
22.7791 -0.273
22.8094 0.713
22.8396 -0.385
22.8699 0.706
22.9002 0.026
22.9305 -0.081
22.9607 0.489
22.9910 0.800
23.0213 -0.191
23.0516 0.537
23.0819 0.693
23.1121 0.588
23.1424 0.328
23.1727 0.276
23.2030 -0.192
23.2333 1.216
23.2635 -0.293
23.2938 0.282
23.3241 -0.184
23.3544 -0.494
23.3846 0.967
23.4149 0.346
23.4452 0.141
23.4755 0.302
23.5058 -0.267
23.5360 0.468
23.5663 0.213
23.5966 0.531
23.6269 0.537
23.6572 1.533
23.6874 -0.127
23.7177 0.662
23.7480 1.138
23.7783 -0.624
23.8086 0.322
23.8388 0.070
23.8691 -0.442
23.8994 -0.037
23.9297 0.265
23.9599 -0.371
23.9902 0.504
24.0205 0.754
24.0508 -0.089
24.0811 0.474
24.1113 0.205
24.1416 -0.064
24.1719 -0.124
24.2022 -0.184
24.2325 0.902
24.2627 -0.251
24.2930 -0.153
24.3233 0.413
24.3536 -0.010
24.3838 -0.015
24.4141 -0.020
24.4444 -0.546
24.4747 0.072
24.5050 0.169
24.5352 0.736
24.5655 -0.989
24.5958 0.255
24.6261 -0.584
24.6564 0.036
24.6866 0.501
24.7169 -0.025
24.7472 -0.185
24.7775 -0.032
24.8077 0.538
24.8380 0.223
24.8683 0.429
24.8986 0.167
24.9289 0.009
24.9591 0.060
24.9894 0.163
25.0197 -0.202
25.0500 0.006
25.0803 0.736
25.1105 0.372
25.1408 -0.304
25.1711 0.479
25.2014 -0.196
25.2316 -0.142
25.2619 0.017
25.2922 0.280
25.3225 0.180
25.3528 -0.077
25.3830 0.396
25.4133 0.192
25.4436 0.510
25.4739 0.254
25.5042 0.208
25.5344 -0.567
25.5647 0.429
25.5950 0.332
25.6253 0.912
25.6555 0.763
25.6858 0.615
25.7161 -0.158
25.7464 0.580
25.7767 0.224
25.8069 -0.443
25.8372 0.296
25.8675 -0.111
25.8978 -0.829
25.9281 1.369
25.9583 0.756
25.9886 0.351
26.0189 -0.523
26.0492 0.375
26.0794 1.013
26.1097 0.558
26.1400 0.780
26.1703 0.325
26.2006 -0.390
26.2308 -0.302
26.2611 0.880
26.2914 0.551
26.3217 -0.350
26.3520 0.052
26.3822 0.089
26.4125 0.335
26.4428 0.425
26.4731 -0.838
26.5034 0.711
26.5336 0.073
26.5639 0.113
26.5942 -0.212
26.6245 0.141
26.6547 0.234
26.6850 0.119
26.7153 0.213
26.7456 -0.423
26.7759 0.974
26.8061 0.287
26.8364 0.591
26.8667 0.426
26.8970 0.574
26.9273 0.306
26.9575 0.558
26.9878 0.291
27.0181 -0.133
27.0484 -0.087
27.0786 -0.353
27.1089 -0.262
27.1392 0.870
27.1695 0.337
27.1998 -0.196
27.2300 0.521
27.2603 0.509
27.2906 -0.127
27.3209 0.071
27.3512 0.217
27.3814 1.092
27.4117 0.874
27.4420 -0.177
27.4723 0.231
27.5025 0.223
27.5328 -0.046
27.5631 0.467
27.5934 -0.217
27.6237 0.818
27.6539 0.134
27.6842 0.336
27.7145 0.018
27.7448 0.481
27.7751 0.632
27.8053 0.680
27.8356 0.415
27.8659 -0.162
27.8962 0.251
27.9264 0.092
27.9567 0.089
27.9870 0.556
28.0173 -0.123
28.0476 0.083
28.0778 -0.230
28.1081 0.914
28.1384 -0.128
28.1687 0.133
28.1990 0.758
28.2292 0.915
28.2595 0.187
28.2898 0.813
28.3201 0.138
28.3503 -0.641
28.3806 0.924
28.4109 0.718
28.4412 -0.216
28.4715 -0.368
28.5017 0.239
28.5320 0.483
28.5623 0.049
28.5926 1.023
28.6229 1.111
28.6531 0.158
28.6834 0.403
28.7137 0.076
28.7440 -0.303
28.7742 -0.057
28.8045 0.659
28.8348 0.489
28.8651 0.424
28.8954 -0.578
28.9256 0.035
28.9559 0.961
28.9862 -0.301
29.0165 -0.416
29.0468 0.334
29.0770 -0.113
29.1073 0.534
29.1376 0.608
29.1679 -0.775
29.1981 0.029
29.2284 -0.364
29.2587 0.076
29.2890 0.673
29.3193 -0.240
29.3495 -0.059
29.3798 0.175
29.4101 0.409
29.4404 0.331
29.4707 0.566
29.5009 -0.137
29.5312 -0.370
29.5615 0.178
29.5918 0.310
29.6221 0.860
29.6523 -0.101
29.6826 0.605
29.7129 0.114
29.7432 0.143
29.7734 0.278
29.8037 -0.108
29.8340 -0.442
29.8643 0.161
29.8946 0.711
29.9248 0.533
29.9551 1.189
29.9854 0.022
30.0157 -0.415
30.0460 -0.436
30.0762 -0.053
30.1065 0.694
30.1368 1.285
30.1671 0.679
30.1973 0.595
30.2276 0.093
30.2579 0.582
30.2882 0.759
30.3185 0.363
30.3487 0.384
30.3790 0.875
30.4093 1.105
30.4396 0.450
30.4699 1.358
30.5001 1.902
30.5304 1.561
30.5607 1.169
30.5910 1.193
30.6212 -0.085
30.6515 0.826
30.6818 1.320
30.7121 1.762
30.7424 0.643
30.7726 1.763
30.8029 3.405
30.8332 2.390
30.8635 2.782
30.8938 1.821
30.9240 2.995
30.9543 3.597
30.9846 3.939
31.0149 4.802
31.0451 4.936
31.0754 5.851
31.1057 6.820
31.1360 7.580
31.1663 6.674
31.1965 9.622
31.2268 11.946
31.2571 10.521
31.2874 13.366
31.3177 15.900
31.3479 18.277
31.3782 20.499
31.4085 23.242
31.4388 27.443
31.4690 35.031
31.4993 33.087
31.5296 42.290
31.5599 44.357
31.5902 48.665
31.6204 52.713
31.6507 51.032
31.6810 50.392
31.7113 45.691
31.7416 42.917
31.7718 35.613
31.8021 32.267
31.8324 26.213
31.8627 23.805
31.8929 21.606
31.9232 17.897
31.9535 16.480
31.9838 12.512
32.0141 10.470
32.0443 10.461
32.0746 8.316
32.1049 9.089
32.1352 6.059
32.1655 5.635
32.1957 6.200
32.2260 5.359
32.2563 4.259
32.2866 3.419
32.3169 2.371
32.3471 2.886
32.3774 2.725
32.4077 2.824
32.4380 1.829
32.4682 1.669
32.4985 1.978
32.5288 1.505
32.5591 0.669
32.5894 1.031
32.6196 1.653
32.6499 1.547
32.6802 0.504
32.7105 1.180
32.7408 0.242
32.7710 0.814
32.8013 -0.748
32.8316 1.283
32.8619 1.232
32.8921 0.452
32.9224 0.609
32.9527 0.767
32.9830 0.353
33.0133 0.251
33.0435 -1.256
33.0738 0.935
33.1041 -0.416
33.1344 -0.516
33.1647 -0.064
33.1949 0.336
33.2252 -0.775
33.2555 0.459
33.2858 -0.546
33.3160 0.741
33.3463 -0.003
33.3766 0.451
33.4069 0.697
33.4372 -0.098
33.4674 -0.112
33.4977 0.344
33.5280 0.592
33.5583 0.996
33.5886 0.984
33.6188 0.348
33.6491 1.743
33.6794 2.097
33.7097 1.722
33.7399 2.024
33.7702 2.379
33.8005 3.464
33.8308 2.673
33.8611 4.488
33.8913 4.011
33.9216 6.868
33.9519 4.985
33.9822 6.905
34.0125 8.513
34.0427 10.434
34.0730 13.658
34.1033 16.361
34.1336 19.220
34.1638 25.257
34.1941 37.753
34.2244 46.551
34.2547 57.485
34.2850 63.419
34.3152 64.823
34.3455 52.789
34.3758 47.891
34.4061 41.327
34.4364 29.919
34.4666 23.356
34.4969 17.053
34.5272 14.657
34.5575 9.918
34.5877 9.554
34.6180 6.847
34.6483 6.952
34.6786 6.537
34.7089 4.612
34.7391 5.448
34.7694 4.826
34.7997 3.632
34.8300 3.427
34.8603 3.223
34.8905 3.071
34.9208 3.284
34.9511 3.133
34.9814 1.836
35.0116 1.530
35.0419 2.630
35.0722 2.637
35.1025 2.487
35.1328 3.901
35.1630 2.399
35.1933 2.875
35.2236 2.884
35.2539 4.560
35.2842 2.538
35.3144 5.673
35.3447 3.287
35.3750 6.006
35.4053 5.079
35.4356 4.882
35.4658 5.571
35.4961 7.979
35.5264 7.418
35.5567 7.743
35.5869 10.882
35.6172 9.333
35.6475 11.065
35.6778 11.340
35.7081 15.521
35.7383 18.193
35.7686 19.875
35.7989 22.078
35.8292 25.063
35.8595 30.028
35.8897 33.378
35.9200 39.385
35.9503 43.934
35.9806 54.213
36.0108 57.512
36.0411 64.927
36.0714 72.498
36.1017 73.924
36.1320 74.882
36.1622 77.142
36.1925 72.423
36.2228 65.725
36.2531 59.914
36.2834 51.498
36.3136 46.208
36.3439 39.772
36.3742 34.170
36.4045 27.891
36.4347 23.905
36.4650 24.190
36.4953 17.808
36.5256 16.322
36.5559 12.441
36.5861 14.707
36.6164 10.566
36.6467 9.916
36.6770 7.495
36.7073 6.636
36.7375 6.508
36.7678 5.234
36.7981 5.210
36.8284 5.135
36.8586 4.174
36.8889 3.214
36.9192 4.963
36.9495 3.378
36.9798 3.357
37.0100 3.024
37.0403 2.430
37.0706 1.628
37.1009 2.025
37.1312 1.849
37.1614 1.309
37.1917 1.916
37.2220 1.845
37.2523 0.838
37.2825 0.820
37.3128 1.115
37.3431 1.671
37.3734 1.082
37.4037 0.962
37.4339 1.259
37.4642 0.358
37.4945 0.968
37.5248 1.005
37.5551 0.262
37.5853 0.977
37.6156 1.068
37.6459 0.951
37.6762 -0.103
37.7064 -0.116
37.7367 -0.232
37.7670 0.017
37.7973 -0.046
37.8276 0.829
37.8578 0.610
37.8881 -0.077
37.9184 0.226
37.9487 0.841
37.9790 0.051
38.0092 0.459
38.0395 0.399
38.0698 -0.754
38.1001 -0.359
38.1304 0.088
38.1606 0.171
38.1909 0.724
38.2212 0.651
38.2515 0.631
38.2817 -0.169
38.3120 0.489
38.3423 0.522
38.3726 0.348
38.4029 0.069
38.4331 1.302
38.4634 1.024
38.4937 -0.243
38.5240 -0.676
38.5543 0.350
38.5845 1.116
38.6148 -0.358
38.6451 0.200
38.6754 0.133
38.7056 -0.349
38.7359 -0.137
38.7662 0.336
38.7965 -0.129
38.8268 0.345
38.8570 -0.066
38.8873 0.408
38.9176 0.571
38.9479 1.046
38.9782 0.375
39.0084 0.174
39.0387 0.286
39.0690 -0.018
39.0993 0.355
39.1295 0.415
39.1598 0.008
39.1901 0.434
39.2204 0.131
39.2507 0.662
39.2809 -0.160
39.3112 0.424
39.3415 0.227
39.3718 0.395
39.4021 0.199
39.4323 -0.101
39.4626 0.328
39.4929 -0.023
39.5232 -0.426
39.5534 0.317
39.5837 0.436
39.6140 0.190
39.6443 -0.003
39.6746 0.013
39.7048 0.601
39.7351 0.305
39.7654 0.218
39.7957 0.183
39.8260 0.252
39.8562 0.479
39.8865 0.549
39.9168 0.359
39.9471 0.639
39.9773 0.293
40.0076 1.095
40.0379 0.438
40.0682 0.406
40.0985 0.166
40.1287 0.396
40.1590 -0.363
40.1893 -0.352
40.2196 1.222
40.2499 -0.224
40.2801 0.309
40.3104 0.009
40.3407 0.075
40.3710 1.078
40.4012 0.311
40.4315 0.117
40.4618 -0.337
40.4921 -0.082
40.5224 0.695
40.5526 0.378
40.5829 -0.199
40.6132 0.475
40.6435 -0.205
40.6738 0.209
40.7040 -0.054
40.7343 0.413
40.7646 0.203
40.7949 0.514
40.8251 0.357
40.8554 0.096
40.8857 -0.008
40.9160 0.565
40.9463 0.878
40.9765 0.307
41.0068 0.985
41.0371 0.414
41.0674 -0.156
41.0977 0.523
41.1279 0.005
41.1582 -0.147
41.1885 0.377
41.2188 0.277
41.2491 0.177
41.2793 0.651
41.3096 0.708
41.3399 -0.067
41.3702 1.085
41.4004 0.258
41.4307 0.733
41.4610 -0.093
41.4913 0.123
41.5216 0.600
41.5518 -0.277
41.5821 0.617
41.6124 0.834
41.6427 0.375
41.6730 0.541
41.7032 0.551
41.7335 0.406
41.7638 0.365
41.7941 0.636
41.8243 -0.029
41.8546 0.660
41.8849 0.777
41.9152 0.738
41.9455 0.230
41.9757 0.817
42.0060 0.570
42.0363 0.585
42.0666 0.027
42.0969 -0.271
42.1271 -0.077
42.1574 0.690
42.1877 0.624
42.2180 0.663
42.2482 0.233
42.2785 0.221
42.3088 0.313
42.3391 0.145
42.3694 0.602
42.3996 1.164
42.4299 -0.097
42.4602 0.257
42.4905 -0.013
42.5208 0.446
42.5510 0.333
42.5813 0.584
42.6116 0.211
42.6419 -0.109
42.6721 0.091
42.7024 0.136
42.7327 0.129
42.7630 0.331
42.7933 0.533
42.8235 -0.202
42.8538 0.678
42.8841 0.204
42.9144 0.356
42.9447 -0.013
42.9749 0.296
43.0052 -0.124
43.0355 -0.596
43.0658 0.755
43.0960 0.753
43.1263 -0.239
43.1566 0.489
43.1869 0.279
43.2172 -0.086
43.2474 0.122
43.2777 -0.034
43.3080 0.591
43.3383 0.592
43.3686 0.645
43.3988 0.177
43.4291 -0.029
43.4594 -0.704
43.4897 0.340
43.5199 0.395
43.5502 0.711
43.5805 0.350
43.6108 0.407
43.6411 0.567
43.6713 -0.053
43.7016 -0.360
43.7319 0.166
43.7622 -0.036
43.7925 -0.290
43.8227 -0.148
43.8530 -0.058
43.8833 -0.072
43.9136 0.175
43.9439 -0.150
43.9741 0.045
44.0044 0.294
44.0347 -0.239
44.0650 -0.250
44.0952 -0.209
44.1255 0.769
44.1558 0.186
44.1861 0.333
44.2164 -0.094
44.2466 0.262
44.2769 0.826
44.3072 0.297
44.3375 0.862
44.3678 -0.240
44.3980 0.586
44.4283 -0.306
44.4586 -0.104
44.4889 0.098
44.5191 -0.012
44.5494 0.087
44.5797 -0.022
44.6100 -0.079
44.6403 0.386
44.6705 0.121
44.7008 0.639
44.7311 -0.250
44.7614 -0.044
44.7917 0.006
44.8219 0.108
44.8522 -0.415
44.8825 0.418
44.9128 0.573
44.9430 0.156
44.9733 -0.052
45.0036 -0.312
45.0339 -0.216
45.0642 -0.223
45.0944 -0.281
45.1247 0.650
45.1550 0.227
45.1853 0.326
45.2156 -0.148
45.2458 0.264
45.2761 -0.209
45.3064 -0.317
45.3367 -0.282
45.3669 0.066
45.3972 0.310
45.4275 -0.279
45.4578 -0.086
45.4881 0.055
45.5183 -0.064
45.5486 0.181
45.5789 0.063
45.6092 -0.263
45.6395 0.609
45.6697 0.231
45.7000 0.219
45.7303 -0.106
45.7606 -0.118
45.7908 0.027
45.8211 0.068
45.8514 -0.099
45.8817 -0.109
45.9120 0.401
45.9422 -0.285
45.9725 0.487
46.0028 0.270
46.0331 0.105
46.0634 -0.268
46.0936 0.298
46.1239 -0.230
46.1542 -0.342
46.1845 -0.144
46.2147 -0.103
46.2450 0.772
46.2753 -0.227
46.3056 0.284
46.3359 0.327
46.3661 0.266
46.3964 -0.367
46.4267 -0.114
46.4570 0.034
46.4873 -0.129
46.5175 0.176
46.5478 0.483
46.5781 0.529
46.6084 1.617
46.6386 1.038
46.6689 0.565
46.6992 0.873
46.7295 1.806
46.7598 1.854
46.7900 1.330
46.8203 1.119
46.8506 1.637
46.8809 1.843
46.9112 2.206
46.9414 2.829
46.9717 2.411
47.0020 3.556
47.0323 2.671
47.0626 4.285
47.0928 4.025
47.1231 5.276
47.1534 5.642
47.1837 6.789
47.2139 8.822
47.2442 8.564
47.2745 10.442
47.3048 12.320
47.3351 15.448
47.3653 15.661
47.3956 14.831
47.4259 15.096
47.4562 14.841
47.4865 15.107
47.5167 13.550
47.5470 11.212
47.5773 11.948
47.6076 8.205
47.6378 9.462
47.6681 6.709
47.6984 5.676
47.7287 5.059
47.7590 4.495
47.7892 4.504
47.8195 2.951
47.8498 2.961
47.8801 3.544
47.9104 1.628
47.9406 2.055
47.9709 1.181
48.0012 2.079
48.0315 0.737
48.0617 0.489
48.0920 1.023
48.1223 0.776
48.1526 0.581
48.1829 1.428
48.2131 1.130
48.2434 0.833
48.2737 0.067
48.3040 0.864
48.3343 0.150
48.3645 -0.146
48.3948 0.340
48.4251 0.617
48.4554 0.791
48.4856 0.288
48.5159 0.931
48.5462 0.273
48.5765 1.229
48.6068 0.988
48.6370 0.696
48.6673 0.247
48.6976 0.007
48.7279 0.393
48.7582 -0.211
48.7884 0.123
48.8187 0.041
48.8490 -0.092
48.8793 0.191
48.9095 0.422
48.9398 -0.283
48.9701 -0.416
49.0004 0.303
49.0307 0.189
49.0609 0.232
49.0912 0.588
49.1215 0.579
49.1518 -0.054
49.1821 -0.114
49.2123 -0.070
49.2426 0.131
49.2729 -0.292
49.3032 0.483
49.3334 0.425
49.3637 0.992
49.3940 0.258
49.4243 0.461
49.4546 0.040
49.4848 0.401
49.5151 0.084
49.5454 -0.127
49.5757 0.443
49.6060 0.232
49.6362 0.177
49.6665 -0.137
49.6968 0.174
49.7271 -0.192
49.7574 0.224
49.7876 0.745
49.8179 0.381
49.8482 0.068
49.8785 0.434
49.9087 0.383
49.9390 0.228
49.9693 0.074
49.9996 -0.132
50.0299 -0.337
50.0601 0.186
50.0904 0.292
50.1207 0.347
50.1510 0.663
50.1813 0.198
50.2115 -0.787
50.2418 -0.106
50.2721 0.212
50.3024 0.269
50.3326 0.014
50.3629 -0.136
50.3932 0.027
50.4235 -0.487
50.4538 0.041
50.4840 0.256
50.5143 0.525
50.5446 -0.040
50.5749 -0.031
50.6052 0.134
50.6354 0.144
50.6657 -0.003
50.6960 -0.045
50.7263 -0.295
50.7565 -0.145
50.7868 0.369
50.8171 0.050
50.8474 0.357
50.8777 -0.795
50.9079 0.346
50.9382 -0.076
50.9685 0.076
50.9988 0.020
51.0291 0.017
51.0593 -0.039
51.0896 0.167
51.1199 0.321
51.1502 -0.150
51.1804 0.160
51.2107 -0.205
51.2410 0.158
51.2713 -0.155
51.3016 -0.832
51.3318 0.207
51.3621 -0.003
51.3924 0.152
51.4227 -0.421
51.4530 0.620
51.4832 -0.005
51.5135 -0.161
51.5438 0.047
51.5741 0.361
51.6043 0.571
51.6346 -0.209
51.6649 -0.155
51.6952 0.108
51.7255 -0.097
51.7557 -0.250
51.7860 0.014
51.8163 0.643
51.8466 0.074
51.8769 -0.650
51.9071 -0.029
51.9374 -0.398
51.9677 0.275
51.9980 -0.353
52.0282 -0.200
52.0585 0.318
52.0888 -0.101
52.1191 -0.207
52.1494 -0.104
52.1796 0.155
52.2099 0.050
52.2402 -0.211
52.2705 -0.471
52.3008 0.675
52.3310 -0.626
52.3613 0.208
52.3916 0.366
52.4219 0.628
52.4521 -0.099
52.4824 0.164
52.5127 -0.301
52.5430 -0.090
52.5733 1.008
52.6035 0.179
52.6338 -0.337
52.6641 -0.125
52.6944 -0.120
52.7247 -0.219
52.7549 0.151
52.7852 -0.311
52.8155 -0.100
52.8458 0.633
52.8761 0.325
52.9063 0.329
52.9366 0.178
52.9669 0.131
52.9972 0.241
53.0274 0.664
53.0577 0.618
53.0880 0.260
53.1183 0.580
53.1486 0.015
53.1788 -0.290
53.2091 -0.356
53.2394 0.567
53.2697 0.658
53.3000 -0.189
53.3302 -0.097
53.3605 -0.005
53.3908 0.504
53.4211 0.440
53.4513 0.220
53.4816 -0.363
53.5119 -0.170
53.5422 0.232
53.5725 0.790
53.6027 0.203
53.6330 -0.175
53.6633 -0.032
53.6936 -0.201
53.7239 0.516
53.7541 0.035
53.7844 0.700
53.8147 0.220
53.8450 0.730
53.8752 -0.322
53.9055 0.084
53.9358 0.231
53.9661 0.169
53.9964 0.004
54.0266 0.047
54.0569 0.039
54.0872 -0.125
54.1175 -0.133
54.1478 -0.088
54.1780 0.218
54.2083 -0.049
54.2386 -0.159
54.2689 -0.321
54.2991 -0.178
54.3294 0.487
54.3597 0.214
54.3900 0.150
54.4203 0.087
54.4505 -0.081
54.4808 0.482
54.5111 0.211
54.5414 -0.164
54.5717 -0.329
54.6019 -0.036
54.6322 0.050
54.6625 -0.437
54.6928 0.691
54.7230 -0.472
54.7533 -0.281
54.7836 0.484
54.8139 -0.210
54.8442 -0.226
54.8744 -0.137
54.9047 -0.569
54.9350 0.562
54.9653 0.079
54.9956 0.117
55.0258 0.156
55.0561 -0.170
55.0864 0.130
55.1167 0.169
55.1469 -0.416
55.1772 -0.118
55.2075 0.389
55.2378 -0.145
55.2681 0.623
55.2983 -0.327
55.3286 -0.444
55.3589 0.690
55.3892 0.522
55.4195 0.719
55.4497 -0.021
55.4800 -0.032
55.5103 0.218
55.5406 0.521
55.5709 1.553
55.6011 0.711
55.6314 1.536
55.6617 0.850
55.6920 1.936
55.7222 1.564
55.7525 0.099
55.7828 1.030
55.8131 1.388
55.8434 1.434
55.8736 2.366
55.9039 2.308
55.9342 2.356
55.9645 3.653
55.9948 3.858
56.0250 4.166
56.0553 4.528
56.0856 5.358
56.1159 6.085
56.1461 5.926
56.1764 6.706
56.2067 8.215
56.2370 9.464
56.2673 11.859
56.2975 12.483
56.3278 13.681
56.3581 15.974
56.3884 18.579
56.4187 18.372
56.4489 19.988
56.4792 18.584
56.5095 16.971
56.5398 18.849
56.5700 17.290
56.6003 16.877
56.6306 14.849
56.6609 13.916
56.6912 10.692
56.7214 8.770
56.7517 9.035
56.7820 8.000
56.8123 7.849
56.8426 6.866
56.8728 4.842
56.9031 4.693
56.9334 3.972
56.9637 4.344
56.9939 2.842
57.0242 2.695
57.0545 2.236
57.0848 2.037
57.1151 2.047
57.1453 1.641
57.1756 1.183
57.2059 0.673
57.2362 1.674
57.2665 0.592
57.2967 1.750
57.3270 0.825
57.3573 1.411
57.3876 1.060
57.4178 0.814
57.4481 0.099
57.4784 0.634
57.5087 0.493
57.5390 0.247
57.5692 -0.101
57.5995 -0.346
57.6298 0.921
57.6601 0.313
57.6904 0.903
57.7206 -0.069
57.7509 -0.155
57.7812 0.332
57.8115 0.663
57.8417 -0.203
57.8720 -0.236
57.9023 0.253
57.9326 0.377
57.9629 0.346
57.9931 0.419
58.0234 0.128
58.0537 0.201
58.0840 0.744
58.1143 0.038
58.1445 0.425
58.1748 0.032
58.2051 1.149
58.2354 -0.077
58.2656 -0.312
58.2959 0.108
58.3262 0.373
58.3565 -0.091
58.3868 -0.086
58.4170 -0.653
58.4473 0.238
58.4776 -0.380
58.5079 0.356
58.5382 0.259
58.5684 0.631
58.5987 0.170
58.6290 -0.030
58.6593 0.239
58.6896 -0.065
58.7198 0.361
58.7501 0.684
58.7804 0.069
58.8107 -0.337
58.8409 -0.037
58.8712 0.004
58.9015 0.722
58.9318 0.555
58.9621 0.180
58.9923 0.014
59.0226 0.265
59.0529 -0.056
59.0832 0.091
59.1135 0.447
59.1437 0.075
59.1740 0.067
59.2043 0.216
59.2346 0.418
59.2648 0.203
59.2951 -0.220
59.3254 -0.278
59.3557 0.134
59.3860 0.285
59.4162 -0.032
59.4465 -0.140
59.4768 -0.144
59.5071 -0.095
59.5374 0.162
59.5676 0.107
59.5979 0.313
59.6282 -0.366
59.6585 0.727
59.6887 -0.212
59.7190 -0.161
59.7493 0.099
59.7796 -0.265
59.8099 -0.317
59.8401 -0.057
59.8704 -0.317
59.9007 -0.277
59.9310 0.389
59.9613 0.170
59.9915 0.263
60.0218 0.044
60.0521 -0.070
60.0824 -0.132
60.1126 -0.141
60.1429 0.632
60.1732 -0.210
60.2035 0.407
60.2338 0.087
60.2640 0.392
60.2943 0.281
60.3246 -0.351
60.3549 0.424
60.3852 0.262
60.4154 0.205
60.4457 0.252
60.4760 -0.222
60.5063 -0.226
60.5365 0.135
60.5668 -0.598
60.5971 -0.081
60.6274 0.177
60.6577 0.122
60.6879 -0.036
60.7182 -0.090
60.7485 0.585
60.7788 -0.145
60.8091 -0.250
60.8393 -0.302
60.8696 0.010
60.8999 0.010
60.9302 -0.145
60.9604 -0.613
60.9907 0.483
61.0210 0.380
61.0513 0.851
61.0816 -0.083
61.1118 0.180
61.1421 0.131
61.1724 -0.229
61.2027 -0.329
61.2330 -0.038
61.2632 0.358
61.2935 0.182
61.3238 0.214
61.3541 0.091
61.3844 -0.033
61.4146 0.105
61.4449 0.503
61.4752 0.329
61.5055 -0.053
61.5357 0.555
61.5660 -0.087
61.5963 -0.468
61.6266 0.142
61.6569 -0.029
61.6871 0.374
61.7174 0.620
61.7477 -0.122
61.7780 -0.344
61.8083 -0.044
61.8385 0.256
61.8688 0.869
61.8991 0.962
61.9294 0.951
61.9596 0.628
61.9899 0.617
62.0202 0.920
62.0505 1.170
62.0808 0.953
62.1110 0.996
62.1413 1.404
62.1716 1.448
62.2019 2.274
62.2322 2.266
62.2624 3.145
62.2927 2.461
62.3230 5.007
62.3533 5.001
62.3835 4.371
62.4138 5.199
62.4441 6.548
62.4744 7.325
62.5047 7.009
62.5349 8.568
62.5652 11.169
62.5955 12.937
62.6258 13.038
62.6561 13.661
62.6863 17.462
62.7166 15.846
62.7469 15.220
62.7772 17.980
62.8074 16.417
62.8377 14.490
62.8680 14.126
62.8983 12.148
62.9286 10.952
62.9588 11.891
62.9891 8.091
63.0194 7.417
63.0497 7.524
63.0800 5.808
63.1102 6.385
63.1405 3.941
63.1708 3.268
63.2011 2.856
63.2313 3.382
63.2616 2.398
63.2919 2.092
63.3222 1.890
63.3525 1.428
63.3827 1.279
63.4130 0.765
63.4433 0.304
63.4736 1.719
63.5039 0.373
63.5341 1.059
63.5644 0.756
63.5947 0.505
63.6250 0.255
63.6552 0.891
63.6855 0.537
63.7158 0.444
63.7461 0.456
63.7764 0.155
63.8066 -0.353
63.8369 -0.295
63.8672 0.024
63.8975 -0.022
63.9278 -0.848
63.9580 1.451
63.9883 -0.676
64.0186 0.582
64.0489 -0.763
64.0791 -0.181
64.1094 0.401
64.1397 -0.006
64.1700 -0.048
64.2003 -0.141
64.2305 0.234
64.2608 0.090
64.2911 0.257
64.3214 0.113
64.3517 -0.551
64.3819 0.399
64.4122 0.048
64.4425 0.061
64.4728 -0.706
64.5031 0.298
64.5333 0.000
64.5636 -0.141
64.5939 -0.333
64.6242 0.149
64.6544 -0.098
64.6847 -0.031
64.7150 0.087
64.7453 0.727
64.7756 -0.455
64.8058 -0.179
64.8361 -0.267
64.8664 0.218
64.8967 -0.390
64.9270 -0.183
64.9572 -0.028
64.9875 -0.081
65.0178 -0.134
65.0481 -0.030
65.0783 0.282
65.1086 -0.082
65.1389 0.075
65.1692 0.181
65.1995 0.182
65.2297 -0.076
65.2600 0.499
65.2903 0.137
65.3206 0.088
65.3509 -0.169
65.3811 -0.321
65.4114 -0.347
65.4417 0.408
65.4720 0.226
65.5022 0.513
65.5325 -0.189
65.5628 -0.422
65.5931 0.648
65.6234 -0.209
65.6536 0.496
65.6839 -0.099
65.7142 -0.226
65.7445 -0.144
65.7748 -0.322
65.8050 0.646
65.8353 0.468
65.8656 0.135
65.8959 0.584
65.9261 1.032
65.9564 0.284
65.9867 0.733
66.0170 0.350
66.0473 1.113
66.0775 1.459
66.1078 1.702
66.1381 1.372
66.1684 1.824
66.1987 1.078
66.2289 1.635
66.2592 2.088
66.2895 2.645
66.3198 1.380
66.3500 1.574
66.3803 1.404
66.4106 1.390
66.4409 1.220
66.4712 0.999
66.5014 0.257
66.5317 0.348
66.5620 1.482
66.5923 1.210
66.6226 0.418
66.6528 -0.166
66.6831 0.813
66.7134 0.334
66.7437 0.325
66.7739 0.992
66.8042 -0.006
66.8345 -0.379
66.8648 -0.027
66.8951 -0.507
66.9253 0.211
66.9556 -0.789
66.9859 1.180
67.0162 0.024
67.0465 0.743
67.0767 1.776
67.1070 0.881
67.1373 0.091
67.1676 1.333
67.1978 0.232
67.2281 0.485
67.2584 1.728
67.2887 1.252
67.3190 2.132
67.3492 1.970
67.3795 2.120
67.4098 2.740
67.4401 3.413
67.4704 4.658
67.5006 4.342
67.5309 4.078
67.5612 5.377
67.5915 6.624
67.6218 6.934
67.6520 7.869
67.6823 7.764
67.7126 10.523
67.7429 8.230
67.7731 10.209
67.8034 9.375
67.8337 10.469
67.8640 10.574
67.8943 9.377
67.9245 9.587
67.9548 9.745
67.9851 9.018
68.0154 8.552
68.0457 8.971
68.0759 7.151
68.1062 5.853
68.1365 4.972
68.1668 5.028
68.1970 5.398
68.2273 3.892
68.2576 5.564
68.2879 3.279
68.3182 3.910
68.3484 3.396
68.3787 1.945
68.4090 2.785
68.4393 2.585
68.4696 2.177
68.4998 1.768
68.5301 2.246
68.5604 2.620
68.5907 2.109
68.6209 1.546
68.6512 1.921
68.6815 3.026
68.7118 3.193
68.7421 3.674
68.7723 3.634
68.8026 3.698
68.8329 3.346
68.8632 3.620
68.8935 4.988
68.9237 4.481
68.9540 3.766
68.9843 6.020
69.0146 3.952
69.0448 4.332
69.0751 3.410
69.1054 4.208
69.1357 3.495
69.1660 3.304
69.1962 3.165
69.2265 2.974
69.2568 2.419
69.2871 2.334
69.3174 2.613
69.3476 2.111
69.3779 0.412
69.4082 0.901
69.4385 0.921
69.4687 0.265
69.4990 0.338
69.5293 0.568
69.5596 0.590
69.5899 0.612
69.6201 1.000
69.6504 -0.331
69.6807 0.369
69.7110 0.237
69.7413 0.521
69.7715 0.181
69.8018 -0.210
69.8321 0.179
69.8624 0.361
69.8926 -0.237
69.9229 0.258
69.9532 -0.184
69.9835 0.520
70.0138 0.444
70.0440 -0.153
70.0743 -0.073
70.1046 -0.096
70.1349 0.193
70.1652 0.119
70.1954 -0.112
70.2257 -0.082
70.2560 -0.311
70.2863 0.129
70.3166 0.310
70.3468 -0.238
70.3771 0.152
70.4074 0.334
70.4377 0.204
70.4679 0.386
70.4982 0.257
70.5285 -0.289
70.5588 0.312
70.5891 -0.337
70.6193 -0.280
70.6496 -0.228
70.6799 -0.123
70.7102 0.243
70.7405 0.089
70.7707 -0.013
70.8010 -0.011
70.8313 0.409
70.8616 0.099
70.8918 -0.001
70.9221 0.836
70.9524 0.007
70.9827 1.002
71.0130 0.382
71.0432 0.596
71.0735 0.654
71.1038 -0.121
71.1341 0.250
71.1644 -0.264
71.1946 -0.204
71.2249 0.012
71.2552 -0.188
71.2855 -0.076
71.3157 -0.327
71.3460 0.307
71.3763 -0.412
71.4066 0.119
71.4369 -0.236
71.4671 -0.068
71.4974 -0.266
71.5277 -0.119
71.5580 -0.232
71.5883 -0.084
71.6185 0.272
71.6488 -0.100
71.6791 -0.056
71.7094 0.354
71.7396 0.295
71.7699 0.236
71.8002 -0.394
71.8305 0.173
71.8608 0.272
71.8910 -0.410
71.9213 0.106
71.9516 0.102
71.9819 0.255
72.0122 0.147
72.0424 -0.376
72.0727 0.090
72.1030 0.140
72.1333 0.919
72.1635 0.189
72.1938 0.552
72.2241 0.239
72.2544 1.020
72.2847 0.447
72.3149 0.760
72.3452 0.761
72.3755 1.127
72.4058 0.920
72.4361 1.183
72.4663 0.664
72.4966 0.823
72.5269 0.722
72.5572 0.778
72.5874 0.521
72.6177 0.630
72.6480 0.374
72.6783 0.692
72.7086 0.541
72.7388 0.182
72.7691 0.709
72.7994 0.455
72.8297 1.087
72.8600 -0.156
72.8902 0.113
72.9205 0.016
72.9508 0.390
72.9811 0.450
73.0113 0.564
73.0416 -0.104
73.0719 0.115
73.1022 -0.239
73.1325 0.344
73.1627 0.095
73.1930 0.367
73.2233 0.170
73.2536 0.287
73.2839 0.195
73.3141 0.365
73.3444 0.066
73.3747 -0.493
73.4050 -0.028
73.4353 0.491
73.4655 -0.241
73.4958 0.226
73.5261 0.225
73.5564 0.432
73.5866 0.432
73.6169 0.171
73.6472 0.431
73.6775 0.224
73.7078 -0.140
73.7380 0.122
73.7683 0.227
73.7986 -0.135
73.8289 0.232
73.8592 0.703
73.8894 0.602
73.9197 0.033
73.9500 -0.171
73.9803 -0.063
74.0105 0.723
74.0408 -0.366
74.0711 0.265
74.1014 -0.094
74.1317 0.433
74.1619 -0.185
74.1922 0.759
74.2225 0.037
74.2528 0.201
74.2831 0.157
74.3133 -0.043
74.3436 0.487
74.3739 0.184
74.4042 0.350
74.4344 0.047
74.4647 0.006
74.4950 0.016
74.5253 -0.337
74.5556 0.012
74.5858 0.310
74.6161 0.765
74.6464 0.178
74.6767 0.477
74.7070 0.099
74.7372 0.138
74.7675 0.282
74.7978 0.427
74.8281 -0.262
74.8583 0.039
74.8886 -0.024
74.9189 -0.243
74.9492 0.476
74.9795 -0.106
75.0097 -0.011
75.0400 -0.697
75.0703 0.388
75.1006 0.171
75.1309 0.163
75.1611 0.000
75.1914 -0.164
75.2217 0.142
75.2520 -0.072
75.2822 -0.130
75.3125 0.125
75.3428 0.171
75.3731 0.375
75.4034 0.110
75.4336 -0.415
75.4639 0.103
75.4942 -0.057
75.5245 -0.112
75.5548 -0.166
75.5850 -0.429
75.6153 0.455
75.6456 -0.432
75.6759 0.036
75.7061 0.556
75.7364 0.347
75.7667 -0.642
75.7970 0.244
75.8273 -0.641
75.8575 0.090
75.8878 -0.013
75.9181 0.146
75.9484 -0.060
75.9787 -0.266
76.0089 -0.015
76.0392 0.341
76.0695 0.488
76.0998 0.011
76.1301 0.315
76.1603 -0.109
76.1906 -0.065
76.2209 -0.176
76.2512 0.287
76.2814 -0.032
76.3117 0.014
76.3420 -0.252
76.3723 0.212
76.4026 0.416
76.4328 0.255
76.4631 0.512
76.4934 0.925
76.5237 0.244
76.5540 -0.227
76.5842 -0.073
76.6145 1.019
76.6448 1.017
76.6751 0.807
76.7053 0.442
76.7356 0.910
76.7659 1.327
76.7962 0.858
76.8265 1.484
76.8567 1.537
76.8870 1.122
76.9173 1.071
76.9476 1.594
76.9779 1.024
77.0081 0.298
77.0384 0.301
77.0687 0.617
77.0990 0.934
77.1292 0.209
77.1595 0.735
77.1898 0.167
77.2201 0.433
77.2504 1.220
77.2806 0.498
77.3109 0.088
77.3412 0.563
77.3715 0.050
77.4018 -0.046
77.4320 0.639
77.4623 0.283
77.4926 0.032
77.5229 0.093
77.5531 0.207
77.5834 0.478
77.6137 0.384
77.6440 0.031
77.6743 0.250
77.7045 -0.415
77.7348 0.430
77.7651 0.443
77.7954 0.143
77.8257 -0.052
77.8559 -0.143
77.8862 -0.285
77.9165 0.191
77.9468 0.198
77.9770 -0.524
78.0073 0.005
78.0376 0.118
78.0679 0.179
78.0982 -0.073
78.1284 0.249
78.1587 0.364
78.1890 0.061
78.2193 0.437
78.2496 0.135
78.2798 0.459
78.3101 0.263
78.3404 -0.090
78.3707 0.340
78.4009 0.196
78.4312 0.158
78.4615 0.640
78.4918 -0.492
78.5221 0.408
78.5523 -0.202
78.5826 0.439
78.6129 -0.015
78.6432 -0.259
78.6735 0.042
78.7037 0.134
78.7340 0.071
78.7643 0.112
78.7946 0.101
78.8248 0.195
78.8551 0.758
78.8854 0.228
78.9157 -0.354
78.9460 0.210
78.9762 0.098
79.0065 0.142
79.0368 -0.490
79.0671 0.023
79.0974 0.329
79.1276 0.271
79.1579 -0.360
79.1882 0.207
79.2185 0.306
79.2488 0.197
79.2790 -0.120
79.3093 -0.072
79.3396 -0.649
79.3699 0.285
79.4001 0.178
79.4304 0.020
79.4607 0.590
79.4910 -0.089
79.5213 -0.403
79.5515 0.169
79.5818 0.481
79.6121 -0.144
79.6424 0.116
79.6727 0.065
79.7029 -0.195
79.7332 0.431
79.7635 -0.192
79.7938 0.279
79.8240 0.021
79.8543 -0.237
79.8846 0.079
79.9149 -0.022
79.9452 0.399
79.9754 0.038
80.0057 -0.009
80.0360 0.100
80.0663 -0.259
80.0966 -0.064
80.1268 -0.181
80.1571 0.431
80.1874 0.575
80.2177 -0.374
80.2479 0.031
80.2782 -0.188
80.3085 0.010
80.3388 -0.053
80.3691 -0.115
80.3993 0.345
80.4296 -0.185
80.4599 -0.142
80.4902 0.110
80.5205 -0.002
80.5507 0.147
80.5810 0.139
80.6113 -0.128
80.6416 0.178
80.6718 0.276
80.7021 0.271
80.7324 -0.255
80.7627 -0.260
80.7930 0.048
80.8232 0.565
80.8535 -0.116
80.8838 -0.119
80.9141 0.139
80.9444 -0.176
80.9746 0.030
81.0049 0.237
81.0352 0.600
81.0655 -0.286
81.0957 0.651
81.1260 0.547
81.1563 0.547
81.1866 0.704
81.2169 0.861
81.2471 0.394
81.2774 0.344
81.3077 0.398
81.3380 0.036
81.3683 0.820
81.3985 0.563
81.4288 0.202
81.4591 0.571
81.4894 0.523
81.5196 0.476
81.5499 0.221
81.5802 0.643
81.6105 0.597
81.6408 -0.386
81.6710 0.089
81.7013 0.565
81.7316 0.156
81.7619 0.164
81.7922 0.224
81.8224 0.493
81.8527 -0.540
81.8830 0.199
81.9133 -0.156
81.9436 -0.250
81.9738 0.120
82.0041 0.229
82.0344 0.391
82.0647 0.189
82.0949 -0.013
82.1252 0.046
82.1555 -0.467
82.1858 0.000
82.2161 0.052
82.2463 0.208
82.2766 -0.157
82.3069 0.260
82.3372 -0.156
82.3675 0.210
82.3977 0.212
82.4280 -0.203
82.4583 0.268
82.4886 0.271
82.5188 -0.403
82.5491 -0.191
82.5794 0.021
82.6097 0.077
82.6400 0.082
82.6702 -0.226
82.7005 0.092
82.7308 0.046
82.7611 0.469
82.7914 0.371
82.8216 0.013
82.8519 -0.136
82.8822 -0.024
82.9125 0.088
82.9427 -0.112
82.9730 -0.363
83.0033 0.153
83.0336 0.202
83.0639 -0.219
83.0941 0.195
83.1244 -0.068
83.1547 0.242
83.1850 -0.073
83.2153 0.394
83.2455 -0.128
83.2758 -0.337
83.3061 0.180
83.3364 0.020
83.3666 -0.140
83.3969 0.274
83.4272 0.584
83.4575 0.113
83.4878 0.319
83.5180 -0.307
83.5483 -0.204
83.5786 0.316
83.6089 0.576
83.6392 -0.153
83.6694 0.056
83.6997 0.265
83.7300 0.006
83.7603 -0.253
83.7905 0.114
83.8208 0.689
83.8511 -0.297
83.8814 -0.086
83.9117 -0.239
83.9419 -0.237
83.9722 0.233
84.0025 -0.286
84.0328 -0.127
84.0631 -0.333
84.0933 0.243
84.1236 -0.066
84.1539 -0.114
84.1842 -0.214
84.2144 0.155
84.2447 0.368
84.2750 0.113
84.3053 0.275
84.3356 -0.083
84.3658 -0.233
84.3961 -0.186
84.4264 0.121
84.4567 0.168
84.4870 0.633
84.5172 0.316
84.5475 0.261
84.5778 0.205
84.6081 0.254
84.6383 0.096
84.6686 0.042
84.6989 -0.221
84.7292 0.039
84.7595 0.194
84.7897 0.245
84.8200 0.454
84.8503 0.089
84.8806 -0.171
84.9109 -0.170
84.9411 -0.116
84.9714 0.146
85.0017 0.200
85.0320 0.515
85.0623 0.205
85.0925 0.365
85.1228 0.056
85.1531 0.112
85.1834 0.116
85.2136 0.798
85.2439 0.439
85.2742 -0.077
85.3045 -0.071
85.3348 0.196
85.3650 0.671
85.3953 0.262
85.4256 0.426
85.4559 0.225
85.4862 -0.131
85.5164 -0.227
85.5467 0.124
85.5770 0.372
85.6073 0.360
85.6375 -0.069
85.6678 0.076
85.6981 -0.092
85.7284 0.106
85.7587 0.303
85.7889 0.189
85.8192 0.075
85.8495 0.222
85.8798 0.265
85.9101 -0.212
85.9403 0.196
85.9706 -0.541
86.0009 0.285
86.0312 0.174
86.0614 0.271
86.0917 0.161
86.1220 -0.210
86.1523 0.618
86.1826 -0.012
86.2128 0.192
86.2431 0.135
86.2734 0.027
86.3037 -0.237
86.3340 -0.084
86.3642 0.486
86.3945 -0.142
86.4248 -0.092
86.4551 -0.250
86.4853 0.010
86.5156 0.009
86.5459 0.061
86.5762 -0.147
86.6065 0.427
86.6367 -0.353
86.6670 0.221
86.6973 0.223
86.7276 0.382
86.7579 -0.241
86.7881 0.127
86.8184 0.026
86.8487 0.186
86.8790 -0.018
86.9092 0.455
86.9395 0.252
86.9698 -0.004
87.0001 -0.362
87.0304 0.112
87.0606 -0.298
87.0909 0.282
87.1212 0.185
87.1515 -0.016
87.1818 -0.112
87.2120 -0.156
87.2423 0.009
87.2726 -0.190
87.3029 -0.389
87.3331 0.234
87.3634 0.128
87.3937 -0.238
87.4240 -0.239
87.4543 -0.141
87.4845 0.009
87.5148 0.211
87.5451 0.466
87.5754 0.044
87.6057 0.456
87.6359 0.243
87.6662 -0.021
87.6965 0.287
87.7268 -0.185
87.7571 0.021
87.7873 -0.138
87.8176 -0.244
87.8479 -0.045
87.8782 -0.002
87.9084 0.301
87.9387 0.449
87.9690 0.181
87.9993 -0.243
88.0296 0.062
88.0598 0.420
88.0901 0.205
88.1204 0.303
88.1507 -0.015
88.1810 0.344
88.2112 0.183
88.2415 -0.290
88.2718 0.174
88.3021 0.431
88.3323 0.115
88.3626 -0.096
88.3929 -0.255
88.4232 -0.311
88.4535 0.296
88.4837 -0.347
88.5140 0.000
88.5443 0.295
88.5746 0.278
88.6049 0.158
88.6351 -0.119
88.6654 0.126
88.6957 0.215
88.7260 0.096
88.7562 0.551
88.7865 0.224
88.8168 0.002
88.8471 0.093
88.8774 0.340
88.9076 0.484
88.9379 -0.101
88.9682 -0.009
88.9985 0.865
89.0288 0.542
89.0590 0.114
89.0893 0.469
89.1196 0.771
89.1499 1.126
89.1801 0.596
89.2104 1.161
89.2407 1.308
89.2710 1.248
89.3013 1.605
89.3315 1.702
89.3618 2.112
89.3921 2.574
89.4224 2.047
89.4527 1.625
89.4829 2.297
89.5132 3.125
89.5435 2.183
89.5738 2.543
89.6040 1.863
89.6343 2.224
89.6646 1.648
89.6949 1.645
89.7252 1.070
89.7554 1.901
89.7857 1.952
89.8160 0.857
89.8463 1.742
89.8766 1.272
89.9068 1.481
89.9371 1.117
89.9674 0.336
89.9977 0.650
90.0279 0.443
90.0582 0.705
90.0885 0.187
90.1188 0.554
90.1491 0.088
90.1793 0.248
90.2096 0.304
90.2399 0.256
90.2702 -0.417
90.3005 0.213
90.3307 0.271
90.3610 0.068
90.3913 -0.082
90.4216 -0.128
90.4518 -0.069
90.4821 -0.114
90.5124 -0.054
90.5427 0.162
90.5730 -0.038
90.6032 0.388
90.6335 0.084
90.6638 -0.427
90.6941 0.364
90.7244 0.322
90.7546 -0.396
90.7849 -0.177
90.8152 -0.165
90.8455 -0.154
90.8758 0.275
90.9060 -0.337
90.9363 -0.223
90.9666 0.100
90.9969 0.007
91.0271 0.018
91.0574 -0.074
91.0877 -0.010
91.1180 0.627
91.1483 -0.089
91.1785 -0.336
91.2088 0.407
91.2391 -0.100
91.2694 0.331
91.2997 0.345
91.3299 -0.212
91.3602 0.272
91.3905 -0.337
91.4208 -0.238
91.4510 -0.086
91.4813 -0.090
91.5116 -0.198
91.5419 0.112
91.5722 -0.256
91.6024 -0.102
91.6327 -0.260
91.6630 -0.009
91.6933 -0.071
91.7236 -0.235
91.7538 -0.140
91.7841 0.165
91.8144 -0.363
91.8447 -0.117
91.8749 0.025
91.9052 0.532
91.9355 0.051
91.9658 0.246
91.9961 -0.027
92.0263 -0.039
92.0566 -0.050
92.0869 0.095
92.1172 -0.125
92.1475 0.386
92.1777 0.219
92.2080 -0.520
92.2383 -0.167
92.2686 0.239
92.2988 -0.085
92.3291 0.374
92.3594 0.207
92.3897 0.354
92.4200 0.188
92.4502 0.388
92.4805 0.223
92.5108 0.267
92.5411 0.415
92.5714 0.408
92.6016 -0.224
92.6319 0.082
92.6622 0.492
92.6925 0.278
92.7227 0.272
92.7530 0.475
92.7833 0.887
92.8136 0.727
92.8439 -0.007
92.8741 -0.062
92.9044 0.247
92.9347 1.077
92.9650 -0.071
92.9953 -0.229
93.0255 -0.231
93.0558 0.184
93.0861 -0.337
93.1164 -0.132
93.1466 -0.082
93.1769 0.645
93.2072 0.800
93.2375 -0.191
93.2678 0.225
93.2980 -0.192
93.3283 -0.245
93.3586 -0.192
93.3889 -0.139
93.4192 -0.295
93.4494 0.175
93.4797 -0.189
93.5100 -0.188
93.5403 -0.290
93.5706 -0.236
93.6008 0.183
93.6311 -0.231
93.6614 0.085
93.6917 -0.120
93.7219 -0.168
93.7522 -0.163
93.7825 -0.159
93.8128 0.055
93.8431 -0.044
93.8733 -0.194
93.9036 0.073
93.9339 -0.910
93.9642 -0.027
93.9945 -0.289
94.0247 -0.290
94.0550 -0.190
94.0853 0.379
94.1156 0.116
94.1458 0.113
94.1761 -0.515
94.2064 0.317
94.2367 -0.206
94.2670 -0.311
94.2972 0.256
94.3275 0.042
94.3578 0.193
94.3881 -0.645
94.4184 -0.024
94.4486 -0.028
94.4789 0.125
94.5092 -0.191
94.5395 0.223
94.5697 0.377
94.6000 -0.145
94.6303 -0.095
94.6606 0.216
94.6909 0.632
94.7211 0.007
94.7514 0.163
94.7817 0.007
94.8120 0.893
94.8423 0.790
94.8725 0.948
94.9028 1.471
94.9331 1.212
94.9634 1.371
94.9936 1.791
95.0239 1.482
95.0542 2.267
95.0845 2.271
95.1148 2.848
95.1450 2.801
95.1753 2.286
95.2056 1.354
95.2359 1.672
95.2662 1.783
95.2964 2.050
95.3267 1.641
95.3570 2.273
95.3873 1.552
95.4175 1.039
95.4478 1.933
95.4781 1.786
95.5084 1.379
95.5387 1.128
95.5689 1.451
95.5992 1.514
95.6295 1.264
95.6598 0.286
95.6901 0.819
95.7203 0.414
95.7506 0.843
95.7809 0.596
95.8112 0.036
95.8414 0.519
95.8717 1.001
95.9020 0.339
95.9323 0.822
95.9626 0.264
95.9928 0.488
96.0231 0.869
96.0534 0.468
96.0837 0.746
96.1140 0.971
96.1442 -0.001
96.1745 0.642
96.2048 -0.069
96.2351 -0.259
96.2653 0.100
96.2956 0.199
96.3259 0.559
96.3562 0.399
96.3865 0.135
96.4167 0.131
96.4470 0.337
96.4773 0.126
96.5076 0.071
96.5379 0.486
96.5681 0.433
96.5984 -0.037
96.6287 -0.246
96.6590 0.430
96.6893 -0.038
96.7195 0.222
96.7498 -0.194
96.7801 0.380
96.8104 -0.035
96.8406 0.332
96.8709 0.074
96.9012 -0.184
96.9315 -0.546
96.9618 0.237
96.9920 -0.491
97.0223 -0.072
97.0526 0.555
97.0829 -0.015
97.1132 0.353
97.1434 0.512
97.1737 0.152
97.2040 -0.157
97.2343 0.838
97.2645 0.582
97.2948 0.119
97.3251 0.697
97.3554 0.078
97.3857 0.241
97.4159 0.040
97.4462 0.099
97.4765 -0.102
97.5068 -0.250
97.5371 -0.056
97.5673 0.450
97.5976 -0.241
97.6279 -0.255
97.6582 0.147
97.6884 -0.283
97.7187 0.172
97.7490 0.472
97.7793 -0.061
97.8096 0.343
97.8398 -0.138
97.8701 0.320
97.9004 0.517
97.9307 0.454
97.9610 -0.389
97.9912 0.642
98.0215 0.633
98.0518 0.103
98.0821 -0.270
98.1123 0.034
98.1426 0.390
98.1729 0.747
98.2032 0.063
98.2335 1.150
98.2637 0.883
98.2940 0.408
98.3243 0.454
98.3546 1.595
98.3849 1.069
98.4151 0.960
98.4454 1.060
98.4757 0.588
98.5060 0.532
98.5362 1.362
98.5665 0.631
98.5968 1.201
98.6271 0.939
98.6574 1.198
98.6876 0.624
98.7179 0.831
98.7482 0.258
98.7785 0.570
98.8088 0.883
98.8390 0.259
98.8693 0.468
98.8996 0.209
98.9299 0.315
98.9601 0.109
98.9904 0.529
99.0207 0.688
99.0510 0.066
99.0813 0.018
99.1115 0.387
99.1418 -0.077
99.1721 -0.020
99.2024 0.454
99.2327 0.147
99.2629 0.361
99.2932 0.107
99.3235 0.218
99.3538 -0.400
99.3841 0.650
99.4143 0.085
99.4446 -0.324
99.4749 0.102
99.5052 0.111
99.5354 0.172
99.5657 0.026
99.5960 -0.172
99.6263 -0.266
99.6566 -0.202
99.6868 0.121
99.7171 -0.283
99.7474 0.041
99.7777 -0.728
99.8080 0.587
99.8382 -0.128
99.8685 0.198
99.8988 0.003
99.9291 0.383
99.9593 0.137
99.9896 0.100
100.0199 -0.041
100.0502 -0.389
100.0805 0.072
100.1107 0.378
100.1410 0.059
100.1713 0.053
100.2016 0.099
100.2319 0.250
100.2621 0.401
100.2924 -0.229
100.3227 -0.285
100.3530 0.281
100.3832 -0.194
100.4135 0.269
100.4438 -0.362
100.4741 -0.158
100.5044 0.045
100.5346 -0.272
100.5649 0.402
100.5952 0.085
100.6255 0.186
100.6558 -0.025
100.6860 -0.027
100.7163 0.335
100.7466 0.490
100.7769 -0.137
100.8071 0.071
100.8374 -0.138
100.8677 0.278
100.8980 -0.242
100.9283 0.123
100.9585 -0.137
100.9888 0.438
101.0191 0.387
101.0494 -0.131
101.0797 -0.337
101.1099 0.179
101.1402 0.383
101.1705 0.171
101.2008 0.324
101.2310 0.530
101.2613 0.527
101.2916 -0.100
101.3219 0.158
101.3522 0.209
101.3824 0.052
101.4127 -0.366
101.4430 0.415
101.4733 -0.001
101.5036 -0.209
101.5338 0.208
101.5641 -0.415
101.5944 -0.153
101.6247 0.631
101.6549 -0.148
101.6852 0.324
101.7155 0.224
101.7458 0.540
101.7761 0.232
101.8063 -0.076
101.8366 -0.123
101.8669 0.247
101.8972 0.253
101.9275 -0.001
101.9577 -0.255
101.9880 -0.112
102.0183 0.499
102.0486 0.695
102.0788 0.787
102.1091 0.046
102.1394 -0.070
102.1697 0.335
102.2000 -0.092
102.2302 -0.311
102.2605 0.146
102.2908 0.239
102.3211 0.384
102.3514 0.686
102.3816 -0.053
102.4119 -0.115
102.4422 -0.020
102.4725 0.648
102.5028 0.795
102.5330 0.162
102.5633 0.883
102.5936 0.459
102.6239 0.660
102.6541 0.393
102.6844 0.960
102.7147 0.746
102.7450 0.323
102.7753 0.787
102.8055 1.042
102.8358 0.257
102.8661 0.565
102.8964 0.822
102.9267 0.506
102.9569 0.399
102.9872 0.657
103.0175 0.603
103.0478 1.017
103.0780 0.599
103.1083 0.598
103.1386 0.650
103.1689 0.962
103.1992 0.910
103.2294 0.286
103.2597 -0.234
103.2900 -0.285
103.3203 0.279
103.3506 0.323
103.3808 0.054
103.4111 0.359
103.4414 0.248
103.4717 0.658
103.5019 0.912
103.5322 0.073
103.5625 0.328
103.5928 0.635
103.6231 0.890
103.6533 0.678
103.6836 0.986
103.7139 1.086
103.7442 0.718
103.7745 0.924
103.8047 0.921
103.8350 1.492
103.8653 1.073
103.8956 0.707
103.9258 1.019
103.9561 1.956
103.9864 1.435
104.0167 1.747
104.0470 1.539
104.0772 1.540
104.1075 1.333
104.1378 2.012
104.1681 1.024
104.1984 0.974
104.2286 1.185
104.2589 1.241
104.2892 1.609
104.3195 1.404
104.3497 1.617
104.3800 1.309
104.4103 1.002
104.4406 1.372
104.4709 1.065
104.5011 0.290
104.5314 0.609
104.5617 0.720
104.5920 0.831
104.6223 0.839
104.6525 0.587
104.6828 -0.134
104.7131 0.187
104.7434 0.717
104.7736 -0.054
104.8039 0.008
104.8342 0.331
104.8645 0.133
104.8948 -0.012
104.9250 -0.053
104.9553 -0.093
104.9856 0.232
105.0159 0.088
105.0462 0.258
105.0764 -0.562
105.1067 0.545
105.1370 0.403
105.1673 0.053
105.1975 0.016
105.2278 -0.177
105.2581 -0.370
105.2884 0.636
105.3187 0.756
105.3489 0.669
105.3792 0.270
105.4095 -0.182
105.4398 0.826
105.4701 0.323
105.5003 0.550
105.5306 -0.160
105.5609 -0.244
105.5912 0.174
105.6215 0.333
105.6517 0.753
105.6820 0.287
105.7123 0.030
105.7426 0.138
105.7728 0.195
105.8031 0.147
105.8334 -0.004
105.8637 -0.572
105.8940 0.051
105.9242 -0.420
105.9545 0.568
105.9848 0.410
106.0151 0.253
106.0454 -0.008
106.0756 0.461
106.1059 0.253
106.1362 0.670
106.1665 0.463
106.1967 -0.057
106.2270 0.101
106.2573 -0.209
106.2876 -0.311
106.3179 0.254
106.3481 0.403
106.3784 0.136
106.4087 0.234
106.4390 0.228
106.4693 0.118
106.4995 0.061
106.5298 0.004
106.5601 0.156
106.5904 0.828
106.6206 0.252
106.6509 -0.272
106.6812 0.245
106.7115 -0.174
106.7418 -0.072
106.7720 -0.126
106.8023 0.602
106.8326 -0.128
106.8629 -0.181
106.8932 0.600
106.9234 -0.025
106.9537 -0.285
106.9840 0.072
107.0143 0.272
107.0445 0.057
107.0748 -0.002
107.1051 0.356
107.1354 -0.118
107.1657 -0.020
107.1959 0.340
107.2262 0.595
107.2565 -0.034
107.2868 0.430
107.3171 0.427
107.3473 -0.410
107.3776 -0.100
107.4079 0.209
107.4382 -0.053
107.4684 -0.055
107.4987 0.412
107.5290 -0.057
107.5593 0.359
107.5896 0.567
107.6198 -0.267
107.6501 0.776
107.6804 0.308
107.7107 -0.264
107.7410 0.206
107.7712 0.261
107.8015 -0.206
107.8318 -0.255
107.8621 0.163
107.8923 0.009
107.9226 0.064
107.9529 -0.089
107.9832 -0.242
108.0135 -0.290
108.0437 0.443
108.0740 0.239
108.1043 -0.016
108.1346 -0.063
108.1649 0.203
108.1951 0.053
108.2254 -0.305
108.2557 0.379
108.2860 0.074
108.3163 -0.023
108.3465 0.089
108.3768 0.097
108.4071 0.315
108.4374 0.584
108.4676 0.229
108.4979 0.239
108.5282 -0.063
108.5585 0.156
108.5888 -0.094
108.6190 -0.239
108.6493 -0.090
108.6796 0.527
108.7099 0.572
108.7402 -0.111
108.7704 1.080
108.8007 0.501
108.8310 0.079
108.8613 -0.082
108.8915 0.434
108.9218 0.169
108.9521 0.321
108.9824 0.370
109.0127 0.106
109.0429 0.155
109.0732 0.100
109.1035 -0.214
109.1338 -0.164
109.1641 -0.217
109.1943 -0.218
109.2246 0.354
109.2549 0.510
109.2852 0.354
109.3154 0.511
109.3457 -0.165
109.3760 0.721
109.4063 0.150
109.4366 0.777
109.4668 -0.106
109.4971 0.261
109.5274 0.525
109.5577 0.008
109.5880 -0.040
109.6182 -0.244
109.6485 0.055
109.6788 0.510
109.7091 0.081
109.7393 0.746
109.7696 0.525
109.7999 0.045
109.8302 0.086
109.8605 0.127
109.8907 0.482
109.9210 0.419
109.9513 0.514
109.9816 1.078
110.0119 0.444
110.0421 0.383
110.0724 1.052
110.1027 0.680
110.1330 0.672
110.1632 0.717
110.1935 0.763
110.2238 1.486
110.2541 0.542
110.2844 0.693
110.3146 0.688
110.3449 0.006
110.3752 1.043
110.4055 0.310
110.4358 0.776
110.4660 0.512
110.4963 1.186
110.5266 0.975
110.5569 0.609
110.5871 0.451
110.6174 0.554
110.6477 -0.072
110.6780 -0.021
110.7083 0.344
110.7385 0.240
110.7688 0.136
110.7991 0.762
110.8294 0.295
110.8597 0.349
110.8899 0.247
110.9202 0.926
110.9505 -0.425
110.9808 -0.266
111.0110 0.154
111.0413 0.209
111.0716 0.004
111.1019 0.372
111.1322 -0.145
111.1624 0.329
111.1927 0.073
111.2230 0.547
111.2533 -0.020
111.2836 0.090
111.3138 0.669
111.3441 0.572
111.3744 -0.358
111.4047 0.378
111.4350 0.647
111.4652 -0.074
111.4955 0.560
111.5258 -0.473
111.5561 -0.255
111.5863 -0.154
111.6166 -0.209
111.6469 -0.212
111.6772 -0.162
111.7075 -0.008
111.7377 -0.113
111.7680 0.250
111.7983 -0.011
111.8286 0.406
111.8589 0.302
111.8891 0.146
111.9194 -0.062
111.9497 -0.008
111.9800 -0.059
112.0102 0.308
112.0405 0.102
112.0708 0.261
112.1011 0.212
112.1314 0.111
112.1616 0.115
112.1919 0.432
112.2222 -0.136
112.2525 -0.027
112.2828 0.343
112.3130 -0.224
112.3433 0.719
112.3736 0.309
112.4039 0.056
112.4341 0.115
112.4644 -0.554
112.4947 0.027
112.5250 0.087
112.5553 0.096
112.5855 -0.624
112.6158 -0.061
112.6461 0.085
112.6764 0.075
112.7067 -0.143
112.7369 0.317
112.7672 0.725
112.7975 -0.012
112.8278 0.188
112.8580 -0.080
112.8883 0.278
112.9186 -0.094
112.9489 0.056
112.9792 0.154
113.0094 0.045
113.0397 0.352
113.0700 0.191
113.1003 0.082
113.1306 0.338
113.1608 0.179
113.1911 -0.241
113.2214 0.276
113.2517 -0.039
113.2819 -0.510
113.3122 0.426
113.3425 -0.200
113.3728 0.059
113.4031 -0.202
113.4333 -0.046
113.4636 0.215
113.4939 -0.150
113.5242 -0.097
113.5545 0.009
113.5847 -0.042
113.6150 -0.248
113.6453 -0.037
113.6756 0.018
113.7058 0.073
113.7361 0.076
113.7664 -0.128
113.7967 -0.020
113.8270 0.245
113.8572 -0.166
113.8875 0.256
113.9178 -0.520
113.9481 -0.208
113.9784 0.053
114.0086 -0.208
114.0389 0.105
114.0692 0.210
114.0995 0.212
114.1298 -0.047
114.1600 0.320
114.1903 -0.043
114.2206 -0.040
114.2509 0.172
114.2811 0.019
114.3114 -0.133
114.3417 -0.337
114.3720 0.176
114.4023 0.377
114.4325 0.110
114.4628 0.051
114.4931 0.514
114.5234 -0.117
114.5537 0.034
114.5839 -0.075
114.6142 0.233
114.6445 0.125
114.6748 0.381
114.7050 0.065
114.7353 0.323
114.7656 -0.305
114.7959 -0.099
114.8262 0.524
114.8564 0.575
114.8867 -0.051
114.9170 -0.260
114.9473 0.035
114.9776 -0.085
115.0078 0.055
115.0381 -0.481
115.0684 0.233
115.0987 0.479
115.1289 0.725
115.1592 0.190
115.1895 0.124
115.2198 0.059
115.2501 0.150
115.2803 0.294
115.3106 -0.187
115.3409 0.218
115.3712 0.311
115.4015 0.612
115.4317 0.549
115.4620 0.227
115.4923 0.581
115.5226 -0.053
115.5528 0.459
115.5831 0.398
115.6134 0.390
115.6437 0.538
115.6740 0.270
115.7042 0.107
115.7345 0.308
115.7648 0.510
115.7951 1.025
115.8254 0.759
115.8556 1.483
115.8859 0.957
115.9162 0.744
115.9465 0.636
115.9767 1.257
116.0070 1.514
116.0373 1.407
116.0676 1.925
116.0979 1.350
116.1281 1.869
116.1584 1.503
116.1887 1.762
116.2190 2.387
116.2493 1.605
116.2795 1.553
116.3098 2.178
116.3401 2.023
116.3704 2.180
116.4006 1.036
116.4309 1.038
116.4612 1.197
116.4915 1.668
116.5218 1.359
116.5520 0.893
116.5823 1.835
116.6126 0.745
116.6429 1.114
116.6732 1.380
116.7034 1.229
116.7337 1.339
116.7640 0.460
116.7943 0.570
116.8245 1.098
116.8548 0.324
116.8851 -0.085
116.9154 1.121
116.9457 0.973
116.9759 -0.008
117.0062 0.522
117.0365 0.792
117.0668 0.490
117.0971 0.813
117.1273 0.563
117.1576 -0.155
117.1879 -0.300
117.2182 0.441
117.2485 0.297
117.2787 -0.003
117.3090 0.323
117.3393 0.284
117.3696 1.183
117.3998 0.208
117.4301 0.118
117.4604 0.029
117.4907 0.409
117.5210 0.112
117.5512 0.336
117.5815 0.196
117.6118 0.526
117.6421 0.074
117.6724 -0.065
117.7026 -0.255
117.7329 -0.255
117.7632 0.214
117.7935 0.892
117.8237 -0.096
117.8540 0.583
117.8843 0.846
117.9146 0.223
117.9449 0.695
117.9751 0.438
118.0054 -0.132
118.0357 0.133
118.0660 0.033
118.0963 0.455
118.1265 -0.217
118.1568 0.257
118.1871 0.159
118.2174 0.113
118.2476 0.328
118.2779 -0.290
118.3082 0.239
118.3385 0.090
118.3688 0.567
118.3990 0.055
118.4293 0.064
118.4596 0.750
118.4899 -0.073
118.5202 0.041
118.5504 0.260
118.5807 0.063
118.6110 -0.239
118.6413 -0.042
118.6715 0.260
118.7018 0.510
118.7321 -0.178
118.7624 0.542
118.7927 -0.197
118.8229 -0.518
118.8532 0.410
118.8835 0.298
118.9138 -0.127
118.9441 0.335
118.9743 -0.089
119.0046 0.112
119.0349 0.002
119.0652 0.569
119.0954 -0.166
119.1257 -0.171
119.1560 -0.697
119.1863 0.288
119.2166 -0.081
119.2468 0.280
119.2771 0.016
119.3074 -0.091
119.3377 0.323
119.3680 -0.148
119.3982 -0.254
119.4285 -0.255
119.4588 -0.158
119.4891 0.253
119.5193 0.612
119.5496 0.294
119.5799 0.080
119.6102 -0.028
119.6405 -0.137
119.6707 -0.141
119.7010 -0.196
119.7313 0.113
119.7616 -0.463
119.7919 0.056
119.8221 0.106
119.8524 -0.260
119.8827 -0.115
119.9130 -0.074
119.9433 -0.084
119.9735 0.322
120.0038 0.000
