'Id: "" Comment: "" Operator: "Lab Manager" Anode: "Cu" Scantype: "Locked Coupled" TimePerStep: "19.2" X: "9999" Y: "9999" Z: "9999" 
10.0015 0.000
10.0318 -0.065
10.0620 -0.598
10.0923 0.171
10.1226 0.681
10.1529 -0.216
10.1832 -0.122
10.2134 0.545
10.2437 -0.455
10.2740 0.734
10.3043 0.100
10.3346 -0.013
10.3648 0.187
10.3951 -0.134
10.4254 0.015
10.4557 -0.201
10.4859 1.043
10.5162 -0.370
10.5465 0.978
10.5768 0.087
10.6071 0.707
10.6373 0.077
10.6676 -0.136
10.6979 -0.036
10.7282 0.065
10.7585 0.270
10.7887 0.058
10.8190 0.785
10.8493 0.783
10.8796 -0.209
10.9098 0.831
10.9401 0.153
10.9704 2.184
11.0007 1.507
11.0310 0.048
11.0612 -0.055
11.0915 1.508
11.1218 1.093
11.1521 1.355
11.1824 1.565
11.2126 1.047
11.2429 0.997
11.2732 0.844
11.3035 2.150
11.3337 1.477
11.3640 1.377
11.3943 2.632
11.4246 2.376
11.4549 2.173
11.4851 1.867
11.5154 2.029
11.5457 2.505
11.5760 1.782
11.6063 2.571
11.6365 1.902
11.6668 2.587
11.6971 3.012
11.7274 2.032
11.7577 2.822
11.7879 1.061
11.8182 1.436
11.8485 1.915
11.8788 1.561
11.9090 2.145
11.9393 1.115
11.9696 1.127
11.9999 0.775
12.0302 1.361
12.0604 0.436
12.0907 1.648
12.1210 0.828
12.1513 0.322
12.1816 0.284
12.2118 1.341
12.2421 0.783
12.2724 1.112
12.3027 0.503
12.3329 -0.158
12.3632 0.276
12.3935 0.814
12.4238 0.103
12.4541 0.746
12.4843 -0.121
12.5146 -0.310
12.5449 -0.343
12.5752 0.249
12.6055 -0.251
12.6357 -0.023
12.6660 0.206
12.6963 -0.397
12.7266 -0.584
12.7568 0.792
12.7871 0.346
12.8174 -0.153
12.8477 -0.911
12.8780 0.198
12.9082 -0.412
12.9385 -0.500
12.9688 0.557
12.9991 -0.103
13.0294 0.486
13.0596 -0.642
13.0899 0.625
13.1202 0.122
13.1505 0.245
13.1807 -0.413
13.2110 -0.448
13.2413 0.507
13.2716 -0.048
13.3019 0.075
13.3321 0.667
13.3624 0.477
13.3927 -0.232
13.4230 1.298
13.4533 -0.452
13.4835 -0.275
13.5138 -0.515
13.5441 0.549
13.5744 -0.002
13.6046 -0.032
13.6349 0.095
13.6652 0.326
13.6955 0.922
13.7258 0.373
13.7560 0.398
13.7863 0.162
13.8166 -0.386
13.8469 -0.231
13.8772 0.498
13.9074 -0.231
13.9377 -0.178
13.9680 0.916
13.9983 0.189
14.0285 0.346
14.0588 0.036
14.0891 0.247
14.1194 -0.480
14.1497 0.044
14.1799 -0.785
14.2102 0.312
14.2405 0.421
14.2708 -0.304
14.3011 -0.246
14.3313 0.019
14.3616 0.234
14.3919 0.657
14.4222 -0.378
14.4524 0.306
14.4827 -0.208
14.5130 -0.252
14.5433 0.017
14.5736 0.910
14.6038 -0.278
14.6341 -0.269
14.6644 0.938
14.6947 0.271
14.7250 0.282
14.7552 0.345
14.7855 0.564
14.8158 0.628
14.8461 0.223
14.8764 0.132
14.9066 0.249
14.9369 0.418
14.9672 0.119
14.9975 -0.805
15.0277 0.043
15.0580 -0.463
15.0883 0.802
15.1186 0.245
15.1489 -0.365
15.1791 -0.220
15.2094 0.030
15.2397 0.071
15.2700 -0.303
15.3003 0.572
15.3305 0.511
15.3608 0.190
15.3911 -0.132
15.4214 0.746
15.4516 0.269
15.4819 -0.415
15.5122 0.202
15.5425 -0.117
15.5728 -0.383
15.6030 0.704
15.6333 -0.343
15.6636 -0.140
15.6939 0.012
15.7242 -0.357
15.7544 -0.153
15.7847 0.573
15.8150 0.049
15.8453 0.202
15.8755 0.148
15.9058 0.146
15.9361 0.404
15.9664 0.559
15.9967 -0.223
16.0269 -0.224
16.0572 0.453
16.0875 -0.119
16.1178 0.610
16.1481 -0.170
16.1783 -0.012
16.2086 0.458
16.2389 -0.269
16.2692 0.203
16.2994 0.153
16.3297 0.000
16.3600 -0.152
16.3903 0.216
16.4206 -0.300
16.4508 -0.191
16.4811 0.908
16.5114 0.132
16.5417 -0.226
16.5720 -0.324
16.6022 -0.057
16.6325 -0.362
16.6628 -0.094
16.6931 -0.034
16.7233 -0.443
16.7536 0.607
16.7839 0.044
16.8142 -0.468
16.8445 -0.001
16.8747 -0.107
16.9050 -0.629
16.9353 1.089
16.9656 0.620
16.9959 0.255
17.0261 0.724
17.0564 0.360
17.0867 -0.368
17.1170 -0.632
17.1472 0.563
17.1775 0.144
17.2078 0.298
17.2381 0.452
17.2684 0.295
17.2986 0.346
17.3289 0.085
17.3592 0.657
17.3895 0.814
17.4198 -0.280
17.4500 -0.070
17.4803 0.191
17.5106 0.662
17.5409 0.143
17.5712 -0.376
17.6014 0.669
17.6317 0.203
17.6620 -0.314
17.6923 0.055
17.7225 0.007
17.7528 -0.093
17.7831 0.433
17.8134 -0.134
17.8437 0.184
17.8739 0.139
17.9042 0.145
17.9345 0.204
17.9648 0.108
17.9951 0.011
18.0253 0.280
18.0556 0.601
18.0859 -0.172
18.1162 -0.058
18.1464 -0.361
18.1767 -0.302
18.2070 0.019
18.2373 0.547
18.2676 0.348
18.2978 -0.060
18.3281 -0.624
18.3584 0.097
18.3887 0.349
18.4190 0.238
18.4492 0.074
18.4795 0.536
18.5098 0.843
18.5401 0.733
18.5703 -0.315
18.6006 0.513
18.6309 0.300
18.6612 -0.329
18.6915 0.292
18.7217 0.288
18.7520 0.337
18.7823 1.011
18.8126 -0.502
18.8429 -0.243
18.8731 0.120
18.9034 -0.455
18.9337 0.274
18.9640 0.013
18.9942 0.585
19.0245 0.950
19.0548 -0.351
19.0851 0.587
19.1154 0.276
19.1456 -0.139
19.1759 0.332
19.2062 0.178
19.2365 0.285
19.2668 0.080
19.2970 -0.177
19.3273 0.088
19.3576 -0.220
19.3879 0.774
19.4181 -0.263
19.4484 0.524
19.4787 -0.043
19.5090 0.484
19.5393 -0.186
19.5695 0.238
19.5998 0.297
19.6301 -0.216
19.6604 -0.416
19.6907 0.257
19.7209 -0.112
19.7512 0.405
19.7815 0.297
19.8118 0.033
19.8420 -0.282
19.8723 0.288
19.9026 0.026
19.9329 -0.028
19.9632 0.127
19.9934 -0.238
20.0237 0.022
20.0540 -0.187
20.0843 -0.343
20.1146 0.179
20.1448 1.013
20.1751 0.337
20.2054 0.235
20.2357 -0.075
20.2659 0.500
20.2962 0.555
20.3265 -0.015
20.3568 -0.271
20.3871 -0.111
20.4173 0.102
20.4476 0.367
20.4779 0.476
20.5082 0.847
20.5385 0.384
20.5687 -0.287
20.5990 0.605
20.6293 0.144
20.6596 -0.265
20.6899 -0.309
20.7201 -0.353
20.7504 -0.244
20.7807 0.646
20.8110 -0.598
20.8412 0.397
20.8715 0.299
20.9018 0.410
20.9321 0.521
20.9624 -0.201
20.9926 -0.349
21.0229 -0.034
21.0532 0.074
21.0835 -0.547
21.1138 0.551
21.1440 0.139
21.1743 0.404
21.2046 0.566
21.2349 -0.626
21.2651 -0.256
21.2954 0.063
21.3257 0.174
21.3560 0.442
21.3863 0.710
21.4165 0.458
21.4468 0.675
21.4771 0.319
21.5074 1.162
21.5377 0.286
21.5679 0.452
21.5982 1.244
21.6285 0.838
21.6588 0.588
21.6890 -0.546
21.7193 -0.547
21.7496 0.963
21.7799 1.015
21.8102 -0.547
21.8404 -0.338
21.8707 0.330
21.9010 0.165
21.9313 0.522
21.9616 0.722
21.9918 0.298
22.0221 1.019
22.0524 -0.862
22.0827 1.006
22.1129 0.271
22.1432 0.213
22.1735 0.416
22.2038 -0.266
22.2341 0.354
22.2643 0.194
22.2946 -0.799
22.3249 0.447
22.3552 -0.598
22.3855 0.389
22.4157 0.595
22.4460 -0.292
22.4763 -0.345
22.5066 0.065
22.5368 0.268
22.5671 0.106
22.5974 0.674
22.6277 -0.424
22.6580 -0.116
22.6882 0.401
22.7185 1.492
22.7488 0.343
22.7791 0.080
22.8094 0.598
22.8396 -0.289
22.8699 -0.030
22.9002 0.125
22.9305 -0.345
22.9607 0.436
22.9910 0.593
23.0213 0.176
23.0516 0.125
23.0819 -0.082
23.1121 0.232
23.1424 0.807
23.1727 0.236
23.2030 0.083
23.2333 -0.174
23.2635 -0.067
23.2938 0.302
23.3241 -0.059
23.3544 -0.210
23.3846 1.045
23.4149 0.061
23.4452 -0.142
23.4755 0.125
23.5058 -0.390
23.5360 -0.087
23.5663 0.164
23.5966 0.311
23.6269 0.094
23.6572 0.190
23.6874 -0.026
23.7177 0.175
23.7480 -0.041
23.7783 -0.516
23.8086 0.675
23.8388 -0.112
23.8691 0.039
23.8994 0.606
23.9297 0.497
23.9599 -0.340
23.9902 0.749
24.0205 -0.036
24.0508 0.482
24.0811 0.375
24.1113 0.164
24.1416 0.162
24.1719 -0.204
24.2022 0.107
24.2325 0.002
24.2627 -0.364
24.2930 0.052
24.3233 -0.365
24.3536 0.052
24.3838 0.261
24.4141 -0.624
24.4444 0.159
24.4747 0.473
24.5050 0.579
24.5352 -0.044
24.5655 -0.353
24.5958 -0.875
24.6261 1.155
24.6564 -0.043
24.6866 0.634
24.7169 0.738
24.7472 0.635
24.7775 0.011
24.8077 0.117
24.8380 -0.454
24.8683 0.538
24.8986 0.071
24.9289 0.439
24.9591 0.859
24.9894 0.811
25.0197 0.555
25.0500 -0.170
25.0803 -0.061
25.1105 0.569
25.1408 0.054
25.1711 0.217
25.2014 0.536
25.2316 0.386
25.2619 0.185
25.2922 0.453
25.3225 0.097
25.3528 0.209
25.3830 -0.042
25.4133 0.331
25.4436 0.653
25.4739 0.351
25.5042 0.674
25.5344 0.372
25.5647 0.070
25.5950 -0.022
25.6253 -0.375
25.6555 0.210
25.6858 0.639
25.7161 -0.285
25.7464 -0.272
25.7767 0.784
25.8069 -0.348
25.8372 -0.333
25.8675 -0.496
25.8978 0.540
25.9281 0.326
25.9583 0.164
25.9886 0.368
26.0189 0.363
26.0492 0.255
26.0794 -0.165
26.1097 0.248
26.1400 0.870
26.1703 -0.122
26.2006 0.136
26.2308 -0.126
26.2611 0.446
26.2914 0.549
26.3217 -0.233
26.3520 -0.338
26.3822 0.109
26.4125 -0.017
26.4428 0.795
26.4731 -0.216
26.5034 -0.185
26.5336 0.993
26.5639 0.191
26.5942 0.276
26.6245 0.673
26.6547 0.134
26.6850 0.636
26.7153 0.357
26.7456 0.496
26.7759 -0.146
26.8061 -0.059
26.8364 0.133
26.8667 0.064
26.8970 0.569
26.9273 -0.227
26.9575 -0.138
26.9878 0.160
27.0181 0.666
27.0484 0.288
27.0786 0.951
27.1089 0.834
27.1392 -0.273
27.1695 1.017
27.1998 0.380
27.2300 -0.204
27.2603 0.149
27.2906 0.138
27.3209 -0.081
27.3512 -0.299
27.3814 0.264
27.4117 0.099
27.4420 1.079
27.4723 0.394
27.5025 0.125
27.5328 1.003
27.5631 0.527
27.5934 -0.157
27.6237 -0.581
27.6539 0.247
27.6842 0.032
27.7145 -0.494
27.7448 0.008
27.7751 -0.739
27.8053 0.076
27.8356 0.267
27.8659 0.771
27.8962 -0.079
27.9264 1.155
27.9567 -0.215
27.9870 -0.022
28.0173 0.796
28.0476 0.781
28.0778 -0.171
28.1081 -0.393
28.1384 -0.409
28.1687 0.565
28.1990 -0.283
28.2292 -0.037
28.2595 0.001
28.2898 0.612
28.3201 0.859
28.3503 -0.300
28.3806 -0.416
28.4109 1.134
28.4412 0.237
28.4715 0.642
28.5017 -0.203
28.5320 0.620
28.5623 0.193
28.5926 0.079
28.6229 0.799
28.6531 0.373
28.6834 -0.053
28.7137 0.304
28.7440 0.139
28.7742 0.757
28.8045 0.333
28.8348 -0.143
28.8651 0.319
28.8954 -0.468
28.9256 -0.281
28.9559 0.687
28.9862 0.041
29.0165 0.749
29.0468 -0.261
29.0770 -0.281
29.1073 -0.404
29.1376 -0.267
29.1679 0.808
29.1981 0.164
29.2284 0.511
29.2587 1.066
29.2890 -0.566
29.3193 -0.426
29.3495 0.573
29.3798 -0.302
29.4101 0.646
29.4404 0.188
29.4707 -0.061
29.5009 0.367
29.5312 -0.142
29.5615 -0.025
29.5918 0.092
29.6221 -0.833
29.6523 -0.042
29.6826 0.020
29.7129 0.343
29.7432 -1.260
29.7734 0.053
29.8037 -0.196
29.8340 -0.080
29.8643 -0.328
29.8946 -0.159
29.9248 -0.250
29.9551 0.753
29.9854 0.298
30.0157 0.677
30.0460 0.223
30.0762 0.134
30.1065 0.566
30.1368 -0.200
30.1671 0.598
30.1973 0.406
30.2276 0.579
30.2579 0.909
30.2882 0.614
30.3185 1.101
30.3487 -0.235
30.3790 0.722
30.4093 0.532
30.4396 0.500
30.4699 -0.261
30.5001 0.749
30.5304 1.394
30.5607 0.947
30.5910 0.239
30.6212 1.147
30.6515 0.856
30.6818 1.348
30.7121 1.944
30.7424 1.967
30.7726 1.991
30.8029 2.172
30.8332 2.196
30.8635 2.586
30.8938 2.351
30.9240 3.418
30.9543 3.861
30.9846 3.367
31.0149 5.164
31.0451 5.139
31.0754 6.521
31.1057 8.893
31.1360 7.203
31.1663 10.200
31.1965 12.000
31.2268 13.853
31.2571 12.685
31.2874 15.788
31.3177 15.975
31.3479 20.538
31.3782 21.038
31.4085 24.976
31.4388 25.998
31.4690 32.697
31.4993 35.803
31.5296 41.253
31.5599 43.683
31.5902 45.852
31.6204 50.366
31.6507 52.068
31.6810 50.280
31.7113 47.243
31.7416 42.279
31.7718 40.961
31.8021 39.852
31.8324 33.379
31.8627 27.531
31.8929 24.184
31.9232 23.285
31.9535 18.844
31.9838 16.332
32.0141 14.704
32.0443 13.390
32.0746 9.472
32.1049 10.815
32.1352 7.783
32.1655 7.616
32.1957 5.679
32.2260 4.992
32.2563 4.826
32.2866 3.255
32.3169 3.454
32.3471 3.029
32.3774 3.230
32.4077 1.972
32.4380 2.850
32.4682 2.219
32.4985 0.337
32.5288 1.633
32.5591 0.326
32.5894 0.268
32.6196 0.420
32.6499 0.623
32.6802 0.463
32.7105 0.980
32.7408 0.717
32.7710 0.505
32.8013 -0.279
32.8316 -0.645
32.8619 0.499
32.8921 -0.284
32.9224 0.080
32.9527 0.391
32.9830 -0.390
33.0133 -0.807
33.0435 0.430
33.0738 0.417
33.1041 -0.949
33.1344 0.028
33.1647 0.433
33.1949 0.526
33.2252 -1.152
33.2555 0.452
33.2858 -0.860
33.3160 0.068
33.3463 -0.098
33.3766 -0.628
33.4069 0.457
33.4372 -0.488
33.4674 0.597
33.4977 -0.400
33.5280 0.531
33.5583 0.107
33.5886 0.049
33.6188 0.876
33.6491 0.767
33.6794 0.605
33.7097 1.017
33.7399 2.836
33.7702 1.581
33.8005 1.734
33.8308 3.762
33.8611 5.061
33.8913 4.330
33.9216 7.452
33.9519 7.607
33.9822 7.554
34.0125 8.438
34.0427 12.083
34.0730 13.385
34.1033 17.812
34.1336 20.365
34.1638 26.720
34.1941 33.805
34.2244 39.692
34.2547 53.913
34.2850 62.613
34.3152 67.772
34.3455 61.525
34.3758 57.154
34.4061 46.116
34.4364 36.642
34.4666 30.917
34.4969 23.475
34.5272 17.282
34.5575 16.819
34.5877 12.711
34.6180 10.843
34.6483 9.027
34.6786 9.816
34.7089 6.126
34.7391 4.780
34.7694 5.517
34.7997 5.266
34.8300 4.859
34.8603 5.025
34.8905 5.347
34.9208 3.222
34.9511 3.338
34.9814 4.338
35.0116 2.110
35.0419 3.060
35.0722 4.635
35.1025 3.762
35.1328 4.765
35.1630 4.518
35.1933 3.491
35.2236 4.547
35.2539 4.874
35.2842 5.202
35.3144 5.061
35.3447 5.754
35.3750 4.885
35.4053 6.568
35.4356 6.741
35.4658 7.488
35.4961 8.912
35.5264 11.638
35.5567 9.053
35.5869 11.311
35.6172 12.581
35.6475 14.163
35.6778 17.464
35.7081 19.360
35.7383 20.839
35.7686 22.839
35.7989 26.247
35.8292 28.769
35.8595 31.447
35.8897 36.939
35.9200 43.160
35.9503 47.923
35.9806 55.759
36.0108 55.523
36.0411 68.777
36.0714 73.386
36.1017 76.119
36.1320 76.562
36.1622 77.369
36.1925 77.917
36.2228 74.298
36.2531 70.575
36.2834 63.572
36.3136 56.517
36.3439 49.254
36.3742 42.876
36.4045 37.124
36.4347 34.342
36.4650 29.372
36.4953 25.392
36.5256 26.152
36.5559 17.173
36.5861 17.725
36.6164 16.247
36.6467 14.977
36.6770 13.239
36.7073 11.553
36.7375 10.389
36.7678 8.808
36.7981 8.009
36.8284 6.794
36.8586 5.735
36.8889 6.135
36.9192 4.504
36.9495 5.322
36.9798 5.306
37.0100 4.302
37.0403 2.516
37.0706 3.387
37.1009 2.384
37.1312 2.162
37.1614 2.721
37.1917 2.709
37.2220 1.186
37.2523 2.163
37.2825 2.256
37.3128 1.984
37.3431 1.556
37.3734 2.379
37.4037 1.796
37.4339 0.484
37.4642 1.308
37.4945 1.352
37.5248 0.874
37.5551 1.803
37.5853 1.119
37.6156 0.486
37.6459 0.792
37.6762 0.160
37.7064 1.143
37.7367 1.241
37.7670 0.507
37.7973 0.449
37.8276 1.382
37.8578 0.701
37.8881 1.322
37.9184 0.693
37.9487 0.690
37.9790 0.739
38.0092 1.570
38.0395 0.318
38.0698 1.150
38.1001 1.096
38.1304 0.054
38.1606 -0.103
38.1909 -0.520
38.2212 0.116
38.2515 0.908
38.2817 0.607
38.3120 0.151
38.3423 -0.566
38.3726 0.332
38.4029 0.085
38.4331 -0.110
38.4634 0.945
38.4937 1.012
38.5240 0.349
38.5543 0.208
38.5845 0.588
38.6148 -0.230
38.6451 1.036
38.6754 -0.457
38.7056 0.393
38.7359 0.462
38.7662 -0.145
38.7965 -0.023
38.8268 0.725
38.8570 0.223
38.8873 0.659
38.9176 -0.676
38.9479 0.178
38.9782 0.042
39.0084 0.479
39.0387 0.031
39.0690 -0.520
39.0993 0.015
39.1295 0.133
39.1598 0.408
39.1901 0.319
39.2204 0.542
39.2507 -0.380
39.2809 -0.468
39.3112 0.418
39.3415 -0.311
39.3718 0.106
39.4021 0.368
39.4323 -0.204
39.4626 0.319
39.4929 0.009
39.5232 0.480
39.5534 0.067
39.5837 0.487
39.6140 -0.551
39.6443 -0.234
39.6746 0.656
39.7048 0.817
39.7351 -0.584
39.7654 -0.057
39.7957 -0.364
39.8260 0.111
39.8562 1.054
39.8865 0.696
39.9168 0.546
39.9471 0.032
39.9773 -0.064
40.0076 0.048
40.0379 0.108
40.0682 -0.040
40.0985 0.073
40.1287 -0.230
40.1590 -0.012
40.1893 0.155
40.2196 0.686
40.2499 -0.136
40.2801 0.292
40.3104 -0.009
40.3407 -0.101
40.3710 0.640
40.4012 0.497
40.4315 0.614
40.4618 -0.310
40.4921 0.173
40.5224 -0.125
40.5526 -0.423
40.5829 0.269
40.6132 0.285
40.6435 0.613
40.6738 -0.256
40.7040 0.021
40.7343 0.194
40.7646 0.055
40.7949 -0.187
40.8251 -0.325
40.8554 -0.062
40.8857 0.202
40.9160 -0.003
40.9463 -0.364
40.9765 0.161
41.0068 -0.042
41.0371 0.484
41.0674 0.437
41.0977 0.443
41.1279 0.189
41.1582 0.039
41.1885 0.150
41.2188 0.522
41.2491 0.270
41.2793 0.643
41.3096 0.182
41.3399 0.452
41.3702 0.357
41.4004 -0.050
41.4307 0.012
41.4610 0.439
41.4913 0.711
41.5216 -0.112
41.5518 0.577
41.5821 0.120
41.6124 0.341
41.6427 0.250
41.6730 0.002
41.7032 0.120
41.7335 0.134
41.7638 0.878
41.7941 0.840
41.8243 1.064
41.8546 0.142
41.8849 -0.311
41.9152 -0.116
41.9455 0.184
41.9757 -0.245
42.0060 0.472
42.0363 0.773
42.0666 -0.384
42.0969 -0.082
42.1271 0.897
42.1574 0.835
42.1877 -0.164
42.2180 -0.017
42.2482 0.547
42.2785 0.122
42.3088 -0.042
42.3391 0.002
42.3694 0.464
42.3996 0.769
42.4299 1.075
42.4602 0.392
42.4905 -0.134
42.5208 0.017
42.5510 0.116
42.5813 0.163
42.6116 0.628
42.6419 0.468
42.6721 -0.005
42.7024 0.097
42.7327 0.459
42.7630 -0.065
42.7933 -0.171
42.8235 0.661
42.8538 -0.330
42.8841 0.190
42.9144 -0.227
42.9447 0.294
42.9749 0.034
43.0052 0.087
43.0355 -0.276
43.0658 0.090
43.0960 0.352
43.1263 0.407
43.1566 -0.424
43.1869 -0.317
43.2172 -0.317
43.2474 0.035
43.2777 -0.342
43.3080 0.219
43.3383 0.363
43.3686 0.039
43.3988 0.028
43.4291 -0.190
43.4594 0.581
43.4897 0.415
43.5199 -0.220
43.5502 0.396
43.5805 -0.498
43.6108 -0.194
43.6411 0.424
43.6713 0.624
43.7016 0.461
43.7319 0.298
43.7622 -0.073
43.7925 0.129
43.8227 0.176
43.8530 -0.350
43.8833 0.010
43.9136 -0.047
43.9439 0.001
43.9741 0.102
44.0044 0.567
44.0347 -0.009
44.0650 0.562
44.0952 -0.013
44.1255 0.350
44.1558 0.817
44.1861 0.452
44.2164 0.503
44.2466 -0.539
44.2769 0.243
44.3072 -0.069
44.3375 0.869
44.3678 0.662
44.3980 -0.690
44.4283 -0.220
44.4586 0.408
44.4889 0.671
44.5191 0.362
44.5494 -0.624
44.5797 -0.324
44.6100 0.237
44.6403 -0.087
44.6705 0.474
44.7008 -0.162
44.7311 -0.068
44.7614 0.703
44.7917 -0.401
44.8219 0.163
44.8522 -0.211
44.8825 -0.115
44.9128 0.241
44.9430 0.546
44.9733 0.851
45.0036 0.115
45.0339 -0.257
45.0642 0.102
45.0944 0.096
45.1247 -0.066
45.1550 -0.280
45.1853 0.132
45.2156 0.596
45.2458 0.019
45.2761 0.120
45.3064 -0.717
45.3367 0.218
45.3669 0.320
45.3972 -0.776
45.4275 0.628
45.4578 -0.259
45.4881 0.001
45.5183 0.521
45.5486 -0.052
45.5789 -0.260
45.6092 -0.155
45.6395 0.054
45.6697 0.472
45.7000 0.005
45.7303 0.996
45.7606 0.114
45.7908 0.689
45.8211 0.015
45.8514 -0.345
45.8817 -0.157
45.9120 -0.124
45.9422 -0.039
45.9725 0.932
46.0028 0.862
46.0331 -0.458
46.0634 0.358
46.0936 0.809
46.1239 0.584
46.1542 0.568
46.1845 0.448
46.2147 0.172
46.2450 0.157
46.2753 1.027
46.3056 -0.341
46.3359 0.478
46.3661 0.673
46.3964 0.868
46.4267 0.282
46.4570 1.051
46.4873 1.091
46.5175 0.975
46.5478 0.964
46.5781 2.359
46.6084 0.369
46.6386 1.245
46.6689 1.027
46.6992 1.382
46.7295 1.269
46.7598 0.895
46.7900 1.147
46.8203 1.504
46.8506 2.799
46.8809 2.635
46.9112 3.462
46.9414 2.987
46.9717 4.752
47.0020 4.017
47.0323 5.106
47.0626 4.267
47.0928 6.711
47.1231 5.197
47.1534 6.651
47.1837 9.565
47.2139 8.260
47.2442 12.476
47.2745 12.213
47.3048 11.847
47.3351 14.919
47.3653 14.188
47.3956 16.636
47.4259 16.219
47.4562 17.313
47.4865 15.647
47.5167 14.502
47.5470 14.451
47.5773 12.474
47.6076 10.965
47.6378 11.280
47.6681 8.939
47.6984 8.734
47.7287 7.800
47.7590 6.242
47.7892 4.788
47.8195 3.282
47.8498 3.808
47.8801 3.137
47.9104 2.570
47.9406 2.993
47.9709 2.427
48.0012 2.798
48.0315 1.920
48.0617 1.511
48.0920 1.103
48.1223 1.112
48.1526 0.808
48.1829 0.974
48.2131 1.296
48.2434 0.681
48.2737 -0.246
48.3040 0.234
48.3343 0.141
48.3645 0.153
48.3948 -0.564
48.4251 0.073
48.4554 0.034
48.4856 0.464
48.5159 0.477
48.5462 0.491
48.5765 0.870
48.6068 0.364
48.6370 1.056
48.6673 0.499
48.6976 -0.110
48.7279 0.062
48.7582 0.287
48.7884 0.148
48.8187 0.165
48.8490 -0.494
48.8793 -0.120
48.9095 0.150
48.9398 0.265
48.9701 0.223
49.0004 0.390
49.0307 0.298
49.0609 -0.212
49.0912 0.165
49.1215 -0.291
49.1518 0.138
49.1821 0.204
49.2123 0.269
49.2426 -0.342
49.2729 -0.226
49.3032 0.046
49.3334 0.215
49.3637 -0.085
49.3940 0.188
49.4243 0.254
49.4546 0.736
49.4848 -0.135
49.5151 0.452
49.5454 0.467
49.5757 -0.091
49.6060 -0.023
49.6362 0.097
49.6665 0.166
49.6968 0.391
49.7271 -0.373
49.7574 -0.147
49.7876 -0.442
49.8179 0.187
49.8482 -0.018
49.8785 0.507
49.9087 0.720
49.9390 0.152
49.9693 0.053
49.9996 0.163
50.0299 0.117
50.0601 0.071
50.0904 0.287
50.1207 -0.435
50.1510 0.718
50.1813 -0.003
50.2115 -0.255
50.2418 -0.090
50.2721 -0.446
50.3024 0.293
50.3326 1.449
50.3629 -0.207
50.3932 0.480
50.4235 0.127
50.4538 -0.070
50.4840 0.150
50.5143 0.266
50.5446 0.331
50.5749 0.761
50.6052 -0.215
50.6354 0.111
50.6657 0.021
50.6960 0.452
50.7263 -0.158
50.7565 -0.299
50.7868 -0.098
50.8171 0.051
50.8474 0.825
50.8777 0.194
50.9079 0.397
50.9382 0.339
50.9685 0.334
50.9988 0.694
51.0291 0.637
51.0593 -0.565
51.0896 -0.256
51.1199 0.053
51.1502 0.259
51.1804 -0.525
51.2107 -0.058
51.2410 0.513
51.2713 -0.165
51.3016 0.719
51.3318 0.719
51.3621 0.041
51.3924 1.031
51.4227 0.198
51.4530 -0.321
51.4832 0.045
51.5135 -0.266
51.5438 0.621
51.5741 0.364
51.6043 0.106
51.6346 -0.203
51.6649 -0.304
51.6952 -0.361
51.7255 0.519
51.7557 0.254
51.7860 -0.011
51.8163 0.818
51.8466 0.137
51.8769 -0.126
51.9071 1.017
51.9374 -0.496
51.9677 0.283
51.9980 0.177
52.0282 0.592
52.0585 0.123
52.0888 -0.086
52.1191 -0.659
52.1494 0.226
52.1796 -0.242
52.2099 0.280
52.2402 0.385
52.2705 0.231
52.3008 -0.080
52.3310 0.652
52.3613 0.238
52.3916 0.658
52.4219 -0.223
52.4521 0.041
52.4824 0.566
52.5127 0.519
52.5430 0.055
52.5733 -0.304
52.6035 -0.056
52.6338 -0.016
52.6641 0.284
52.6944 0.169
52.7247 0.418
52.7549 0.616
52.7852 0.189
52.8155 0.491
52.8458 0.273
52.8761 0.524
52.9063 -0.214
52.9366 0.611
52.9669 0.811
52.9972 0.387
53.0274 -0.454
53.0577 -0.096
53.0880 0.106
53.1183 0.152
53.1486 -0.115
53.1788 0.141
53.2091 -0.177
53.2394 0.235
53.2697 0.127
53.3000 -0.502
53.3302 0.223
53.3605 -0.300
53.3908 0.009
53.4211 0.111
53.4513 0.682
53.4816 -0.101
53.5119 0.159
53.5422 -0.051
53.5725 -0.364
53.6027 0.089
53.6330 0.542
53.6633 0.162
53.6936 0.198
53.7239 0.027
53.7541 -0.039
53.7844 -0.261
53.8147 0.454
53.8450 -0.601
53.8752 0.897
53.9055 0.468
53.9358 -0.222
53.9661 -0.598
53.9964 0.266
54.0266 -0.379
54.0569 -0.035
54.0872 -0.003
54.1175 0.186
54.1478 -0.145
54.1780 0.617
54.2083 -0.026
54.2386 1.258
54.2689 0.095
54.2991 0.077
54.3294 0.061
54.3597 0.200
54.3900 -0.076
54.4203 -0.040
54.4505 0.830
54.4808 -0.018
54.5111 -0.136
54.5414 -0.671
54.5717 0.200
54.6019 -0.230
54.6322 -0.139
54.6625 0.005
54.6928 -0.111
54.7230 -0.331
54.7533 0.282
54.7836 0.167
54.8139 -0.365
54.8442 -0.124
54.8744 0.118
54.9047 0.515
54.9350 -0.649
54.9653 -0.146
54.9956 0.982
55.0258 0.132
55.0561 0.531
55.0864 0.515
55.1167 0.030
55.1469 0.587
55.1772 -0.157
55.2075 0.661
55.2378 -0.031
55.2681 0.111
55.2983 0.514
55.3286 0.605
55.3589 -0.502
55.3892 0.163
55.4195 0.411
55.4497 -0.122
55.4800 1.273
55.5103 1.470
55.5406 0.678
55.5709 1.449
55.6011 0.449
55.6314 1.690
55.6617 1.108
55.6920 1.515
55.7222 2.028
55.7525 2.176
55.7828 3.887
55.8131 2.109
55.8434 3.352
55.8736 3.658
55.9039 2.923
55.9342 4.792
55.9645 3.484
55.9948 5.459
56.0250 5.819
56.0553 4.721
56.0856 6.904
56.1159 7.682
56.1461 9.502
56.1764 8.353
56.2067 9.289
56.2370 10.745
56.2673 11.941
56.2975 15.326
56.3278 13.606
56.3581 15.793
56.3884 20.585
56.4187 20.898
56.4489 21.628
56.4792 20.431
56.5095 20.953
56.5398 20.903
56.5700 20.280
56.6003 18.043
56.6306 17.473
56.6609 15.706
56.6912 15.397
56.7214 11.443
56.7517 11.448
56.7820 9.682
56.8123 8.073
56.8426 8.287
56.8728 7.564
56.9031 5.591
56.9334 7.733
56.9637 5.970
56.9939 5.040
57.0242 4.840
57.0545 4.536
57.0848 2.878
57.1151 2.939
57.1453 3.053
57.1756 3.479
57.2059 3.021
57.2362 2.928
57.2665 2.939
57.2967 1.648
57.3270 1.191
57.3573 1.724
57.3876 1.268
57.4178 0.760
57.4481 0.826
57.4784 1.569
57.5087 0.906
57.5390 0.608
57.5692 -0.263
57.5995 0.221
57.6298 0.550
57.6601 -0.163
57.6904 0.426
57.7206 0.391
57.7509 0.200
57.7812 0.894
57.8115 0.548
57.8417 0.202
57.8720 0.741
57.9023 0.812
57.9326 0.832
57.9629 -0.659
57.9931 0.299
58.0234 0.372
58.0537 -0.128
58.0840 -0.210
58.1143 0.593
58.1445 -0.531
58.1748 -0.092
58.2051 0.035
58.2354 0.059
58.2656 0.030
58.2959 -0.206
58.3262 -0.494
58.3565 0.233
58.3868 0.543
58.4170 -0.344
58.4473 0.019
58.4776 -0.294
58.5079 0.747
58.5382 0.747
58.5684 0.643
58.5987 -0.502
58.6290 0.488
58.6593 -0.188
58.6896 0.335
58.7198 0.702
58.7501 -0.337
58.7804 0.082
58.8107 0.502
58.8409 -0.171
58.8712 0.406
58.9015 -0.111
58.9318 0.050
58.9621 0.368
58.9923 -0.408
59.0226 0.275
59.0529 0.802
59.0832 0.080
59.1135 1.077
59.1437 0.303
59.1740 0.467
59.2043 0.527
59.2346 -0.141
59.2648 -0.184
59.2951 0.242
59.3254 0.043
59.3557 -0.259
59.3860 -0.040
59.4162 0.335
59.4465 0.295
59.4768 0.098
59.5071 -0.307
59.5374 0.643
59.5676 0.135
59.5979 0.201
59.6282 -0.098
59.6585 1.218
59.6887 -0.174
59.7190 -0.107
59.7493 0.481
59.7796 -0.389
59.8099 -0.321
59.8401 -0.129
59.8704 -0.041
59.9007 -0.161
59.9310 0.293
59.9613 0.017
59.9915 0.367
60.0218 0.301
60.0521 0.079
60.0824 0.743
60.1126 0.521
60.1429 0.509
60.1732 0.497
60.2035 0.172
60.2338 0.421
60.2640 -0.006
60.2943 0.660
60.3246 0.077
60.3549 -0.037
60.3852 0.266
60.4154 0.413
60.4457 0.143
60.4760 0.343
60.5063 0.544
60.5365 0.067
60.5668 0.008
60.5971 0.939
60.6274 0.151
60.6577 0.301
60.6879 0.087
60.7182 0.186
60.7485 -0.184
60.7788 0.281
60.8091 0.381
60.8393 -0.248
60.8696 0.269
60.8999 0.162
60.9302 0.159
60.9604 -0.468
60.9907 -0.128
61.0210 0.004
61.0513 0.970
61.0816 0.374
61.1118 0.351
61.1421 0.016
61.1724 0.254
61.2027 0.232
61.2330 0.055
61.2632 0.294
61.2935 0.377
61.3238 0.201
61.3541 0.181
61.3844 -0.151
61.4146 0.298
61.4449 0.228
61.4752 0.418
61.5055 0.608
61.5357 0.278
61.5660 0.052
61.5963 0.817
61.6266 0.540
61.6569 0.992
61.6871 0.560
61.7174 0.388
61.7477 1.051
61.7780 1.192
61.8083 0.397
61.8385 1.373
61.8688 0.578
61.8991 0.513
61.9294 0.917
61.9596 1.113
61.9899 0.893
62.0202 1.038
62.0505 1.756
62.0808 1.432
62.1110 1.682
62.1413 2.350
62.1716 1.871
62.2019 2.122
62.2322 2.947
62.2624 3.824
62.2927 4.910
62.3230 5.423
62.3533 4.478
62.3835 8.273
62.4138 5.819
62.4441 8.365
62.4744 9.557
62.5047 8.770
62.5349 9.338
62.5652 11.469
62.5955 13.288
62.6258 15.211
62.6561 14.843
62.6863 16.871
62.7166 17.181
62.7469 19.210
62.7772 17.698
62.8074 18.217
62.8377 16.966
62.8680 18.371
62.8983 15.142
62.9286 16.965
62.9588 13.163
62.9891 12.070
63.0194 10.509
63.0497 8.375
63.0800 6.658
63.1102 6.452
63.1405 6.507
63.1708 6.145
63.2011 4.638
63.2313 4.746
63.2616 2.355
63.2919 3.662
63.3222 2.521
63.3525 2.891
63.3827 3.001
63.4130 2.278
63.4433 1.920
63.4736 2.135
63.5039 1.830
63.5341 0.535
63.5644 0.856
63.5947 0.239
63.6250 0.769
63.6552 0.570
63.6855 1.048
63.7158 0.589
63.7461 0.704
63.7764 0.558
63.8066 0.309
63.8369 0.529
63.8672 0.541
63.8975 0.188
63.9278 -0.580
63.9580 0.839
63.9883 0.436
64.0186 -0.227
64.0489 0.464
64.0791 -0.251
64.1094 0.233
64.1397 0.561
64.1700 -0.413
64.2003 -0.032
64.2305 0.401
64.2608 0.157
64.2911 0.487
64.3214 1.026
64.3517 0.419
64.3819 -0.240
64.4122 0.143
64.4425 -0.202
64.4728 -0.078
64.5031 -0.267
64.5333 0.587
64.5636 0.087
64.5939 -0.361
64.6242 -0.414
64.6544 0.628
64.6847 -0.414
64.7150 -0.361
64.7453 -0.213
64.7756 -0.273
64.8058 0.032
64.8361 0.233
64.8664 0.174
64.8967 0.116
64.9270 -0.203
64.9572 -0.365
64.9875 0.140
65.0178 0.698
65.0481 0.578
65.0783 -0.166
65.1086 0.184
65.1389 0.222
65.1692 -0.312
65.1995 -0.899
65.2297 0.495
65.2600 -0.351
65.2903 0.470
65.3206 -0.063
65.3509 0.082
65.3811 0.175
65.4114 -0.044
65.4417 0.102
65.4720 -0.324
65.5022 -0.334
65.5325 -0.083
65.5628 0.325
65.5931 0.369
65.6234 0.049
65.6536 -0.167
65.6839 0.190
65.7142 -0.494
65.7445 -0.154
65.7748 0.811
65.8050 0.475
65.8353 0.920
65.8656 0.949
65.8959 0.198
65.9261 0.852
65.9564 0.883
65.9867 0.913
66.0170 1.048
66.0473 1.288
66.0775 1.372
66.1078 0.987
66.1381 1.072
66.1684 1.990
66.1987 2.023
66.2289 1.536
66.2592 1.414
66.2895 1.709
66.3198 1.118
66.3500 2.195
66.3803 1.345
66.4106 1.173
66.4409 1.157
66.4712 1.558
66.5014 1.647
66.5317 0.591
66.5620 0.785
66.5923 1.501
66.6226 2.060
66.6528 0.328
66.6831 0.263
66.7134 0.720
66.7437 0.864
66.7739 0.696
66.8042 0.737
66.8345 0.883
66.8648 0.247
66.8951 1.018
66.9253 0.280
66.9556 0.479
66.9859 0.314
67.0162 0.982
67.0465 0.609
67.0767 0.498
67.1070 1.115
67.1373 1.525
67.1676 1.154
67.1978 1.668
67.2281 1.142
67.2584 1.761
67.2887 2.642
67.3190 2.845
67.3492 2.841
67.3795 3.254
67.4098 3.823
67.4401 5.747
67.4704 3.870
67.5006 4.700
67.5309 5.324
67.5612 6.937
67.5915 7.404
67.6218 6.830
67.6520 8.757
67.6823 9.538
67.7126 9.851
67.7429 9.331
67.7731 11.311
67.8034 12.250
67.8337 11.835
67.8640 11.733
67.8943 12.517
67.9245 13.979
67.9548 12.263
67.9851 12.996
68.0154 10.969
68.0457 10.192
68.0759 8.531
68.1062 7.807
68.1365 7.135
68.1668 7.141
68.1970 5.429
68.2273 6.217
68.2576 5.912
68.2879 5.555
68.3182 4.261
68.3484 3.644
68.3787 3.809
68.4090 3.037
68.4393 3.099
68.4696 3.369
68.4998 3.588
68.5301 2.973
68.5604 2.151
68.5907 4.715
68.6209 3.893
68.6512 2.968
68.6815 3.345
68.7118 3.722
68.7421 4.830
68.7723 3.802
68.8026 4.649
68.8329 4.403
68.8632 4.314
68.8935 3.912
68.9237 4.761
68.9540 4.413
68.9843 5.940
69.0146 5.852
69.0448 5.817
69.0751 4.741
69.1054 5.124
69.1357 3.528
69.1660 4.484
69.1962 2.628
69.2265 4.366
69.2568 3.501
69.2871 1.906
69.3174 2.864
69.3476 2.833
69.3779 1.605
69.4082 2.043
69.4385 2.586
69.4687 1.307
69.4990 0.548
69.5293 0.676
69.5596 0.960
69.5899 0.463
69.6201 0.540
69.6504 1.294
69.6807 0.902
69.7110 -0.010
69.7413 0.433
69.7715 0.512
69.8018 0.382
69.8321 -0.372
69.8624 -0.343
69.8926 0.050
69.9229 -0.441
69.9532 0.682
69.9835 -0.434
70.0138 -0.299
70.0440 0.148
70.0743 -0.289
70.1046 0.055
70.1349 0.191
70.1652 -0.349
70.1954 -0.181
70.2257 -0.324
70.2560 -0.259
70.2863 0.171
70.3166 -0.440
70.3468 0.303
70.3771 0.214
70.4074 0.333
70.4377 -0.381
70.4679 0.520
70.4982 -0.193
70.5285 0.449
70.5588 -0.211
70.5891 0.119
70.6193 -0.124
70.6496 -0.002
70.6799 -0.400
70.7102 0.348
70.7405 0.367
70.7707 -0.290
70.8010 0.146
70.8313 -0.406
70.8616 0.135
70.8918 -0.260
70.9221 0.074
70.9524 -0.112
70.9827 0.066
71.0130 -0.224
71.0432 -0.044
71.0735 0.760
71.1038 0.003
71.1341 -0.442
71.1644 0.039
71.1946 0.051
71.2249 -0.353
71.2552 0.701
71.2855 0.194
71.3157 -0.209
71.3460 -0.299
71.3763 -0.090
71.4066 -0.661
71.4369 0.382
71.4671 -0.293
71.4974 0.491
71.5277 0.703
71.5580 0.758
71.5883 -0.176
71.6185 0.297
71.6488 0.250
71.6791 0.203
71.7094 -0.052
71.7396 -0.151
71.7699 -0.249
71.8002 -0.295
71.8305 -0.042
71.8608 0.472
71.8910 -0.108
71.9213 0.199
71.9516 0.036
71.9819 -0.178
72.0122 0.755
72.0424 0.021
72.0727 0.225
72.1030 0.012
72.1333 0.321
72.1635 0.370
72.1938 0.940
72.2241 0.677
72.2544 0.675
72.2847 0.465
72.3149 0.724
72.3452 0.514
72.3755 0.878
72.4058 2.024
72.4361 0.618
72.4663 0.514
72.4966 0.619
72.5269 0.829
72.5572 0.779
72.5874 0.729
72.6177 1.096
72.6480 0.994
72.6783 0.685
72.7086 0.637
72.7388 -0.036
72.7691 0.645
72.7994 0.129
72.8297 0.030
72.8600 0.192
72.8902 0.510
72.9205 0.517
72.9508 0.419
72.9811 0.582
73.0113 0.225
73.0416 -0.236
73.0719 -0.280
73.1022 0.510
73.1325 -0.262
73.1627 -0.200
73.1930 0.382
73.2233 0.549
73.2536 0.663
73.2839 0.153
73.3141 0.060
73.3444 0.124
73.3747 -0.124
73.4050 0.409
73.4353 -0.099
73.4655 -0.086
73.4958 -0.280
73.5261 -0.227
73.5564 0.400
73.5866 0.245
73.6169 0.196
73.6472 0.095
73.6775 -0.058
73.7078 -0.263
73.7380 -0.311
73.7683 0.313
73.7986 -0.052
73.8289 -0.260
73.8592 -0.363
73.8894 0.419
73.9197 -0.257
73.9500 0.109
73.9803 -0.097
74.0105 -0.355
74.0408 0.273
74.0711 -0.296
74.1014 0.072
74.1317 0.180
74.1619 -0.076
74.1922 0.346
74.2225 0.299
74.2528 0.148
74.2831 0.258
74.3133 -0.152
74.3436 -0.041
74.3739 -0.086
74.4042 0.286
74.4344 0.137
74.4647 0.406
74.4950 -0.054
74.5253 0.372
74.5556 0.068
74.5858 0.078
74.6161 -0.172
74.6464 -0.266
74.6767 0.046
74.7070 0.567
74.7372 0.307
74.7675 0.880
74.7978 0.308
74.8281 0.414
74.8583 0.103
74.8886 -0.311
74.9189 -0.058
74.9492 0.716
74.9795 0.762
75.0097 -0.442
75.0400 0.125
75.0703 0.536
75.1006 0.323
75.1309 0.058
75.1611 0.679
75.1914 0.102
75.2217 0.203
75.2520 0.356
75.2822 -0.428
75.3125 0.038
75.3428 0.245
75.3731 -0.278
75.4034 0.138
75.4336 0.085
75.4639 -0.020
75.4942 0.657
75.5245 -0.019
75.5548 0.034
75.5850 0.451
75.6153 0.297
75.6456 0.298
75.6759 -0.064
75.7061 0.303
75.7364 0.463
75.7667 -0.211
75.7970 -0.363
75.8273 0.248
75.8575 0.184
75.8878 0.015
75.9181 0.263
75.9484 0.304
75.9787 -0.020
76.0089 0.177
76.0392 0.740
76.0695 -0.416
76.0998 0.251
76.1301 0.033
76.1603 0.181
76.1906 0.380
76.2209 0.372
76.2512 0.416
76.2814 -0.060
76.3117 0.714
76.3420 0.864
76.3723 0.389
76.4026 0.643
76.4328 0.638
76.4631 0.424
76.4934 0.420
76.5237 1.301
76.5540 0.359
76.5842 0.824
76.6145 1.029
76.6448 0.766
76.6751 0.503
76.7053 1.699
76.7356 1.697
76.7659 0.863
76.7962 1.122
76.8265 0.913
76.8567 1.226
76.8870 1.330
76.9173 1.539
76.9476 1.957
76.9779 0.552
77.0081 1.804
77.0384 1.233
77.0687 2.017
77.0990 1.186
77.1292 1.137
77.1595 0.464
77.1898 1.718
77.2201 1.149
77.2504 0.581
77.2806 1.107
77.3109 0.280
77.3412 0.546
77.3715 0.136
77.4018 0.611
77.4320 0.045
77.4623 0.313
77.4926 0.373
77.5229 0.538
77.5531 0.026
77.5834 0.608
77.6137 0.357
77.6440 0.366
77.6743 0.064
77.7045 -0.082
77.7348 0.450
77.7651 0.514
77.7954 0.109
77.8257 -0.192
77.8559 -0.179
77.8862 -0.271
77.9165 -0.017
77.9468 0.863
77.9770 -0.133
78.0073 0.435
78.0376 0.013
78.0679 0.530
78.0982 0.057
78.1284 0.522
78.1587 -0.211
78.1890 0.359
78.2193 -0.425
78.2496 0.302
78.2798 0.144
78.3101 -0.066
78.3404 -0.276
78.3707 -0.123
78.4009 -0.075
78.4312 0.390
78.4615 0.127
78.4918 -0.240
78.5221 0.226
78.5523 -0.140
78.5826 -0.037
78.6129 -0.194
78.6432 0.326
78.6735 -0.195
78.7037 0.065
78.7340 0.535
78.7643 -0.142
78.7946 -0.036
78.8248 -0.191
78.8551 -0.241
78.8854 0.491
78.9157 -0.340
78.9460 0.184
78.9762 0.188
79.0065 -0.069
79.0368 0.404
79.0671 -0.632
79.0974 -0.107
79.1276 0.472
79.1579 -0.147
79.1882 0.276
79.2185 -0.343
79.2488 0.289
79.2790 -0.016
79.3093 -0.008
79.3396 0.313
79.3699 0.269
79.4001 -0.034
79.4304 0.600
79.4607 -0.276
79.4910 -0.266
79.5213 -0.369
79.5515 0.517
79.5818 0.101
79.6121 0.311
79.6424 0.313
79.6727 0.523
79.7029 -0.255
79.7332 -0.148
79.7635 0.584
79.7938 -0.349
79.8240 0.540
79.8543 0.388
79.8846 0.654
79.9149 -0.018
79.9452 -0.221
79.9754 0.098
80.0057 -0.260
80.0360 -0.366
80.0663 0.414
80.0966 -0.316
80.1268 0.413
80.1571 0.257
80.1874 0.257
80.2177 0.310
80.2479 0.103
80.2782 -0.260
80.3085 -0.223
80.3388 0.387
80.3691 0.633
80.3993 -0.110
80.4296 0.189
80.4599 -0.240
80.4902 0.060
80.5205 0.464
80.5507 0.452
80.5810 0.388
80.6113 0.273
80.6416 0.419
80.6718 -0.217
80.7021 0.138
80.7324 -0.080
80.7627 0.588
80.7930 0.371
80.8232 0.310
80.8535 0.250
80.8838 0.034
80.9141 -0.077
80.9444 -0.397
80.9746 0.326
81.0049 0.163
81.0352 0.418
81.0655 0.361
81.0957 0.251
81.1260 0.507
81.1563 0.347
81.1866 0.864
81.2169 1.173
81.2471 -0.028
81.2774 0.854
81.3077 0.904
81.3380 0.277
81.3683 0.744
81.3985 0.691
81.4288 -0.039
81.4591 0.482
81.4894 0.378
81.5196 0.170
81.5499 1.160
81.5802 0.640
81.6105 0.485
81.6408 0.435
81.6710 0.333
81.7013 0.284
81.7316 0.079
81.7619 -0.230
81.7922 0.294
81.8224 0.403
81.8527 -0.374
81.8830 0.881
81.9133 0.105
81.9436 0.215
81.9738 0.325
82.0041 0.123
82.0344 -0.338
82.0647 0.606
82.0949 0.562
82.1252 -0.003
82.1555 0.422
82.1858 0.379
82.2161 -0.133
82.2463 0.137
82.2766 -0.217
82.3069 -0.363
82.3372 0.268
82.3675 0.274
82.3977 0.229
82.4280 0.184
82.4583 -0.017
82.4886 -0.061
82.5188 0.416
82.5491 -0.096
82.5794 0.225
82.6097 0.391
82.6400 0.036
82.6702 0.046
82.7005 0.057
82.7308 -0.036
82.7611 -0.285
82.7914 0.083
82.8216 0.452
82.8519 0.300
82.8822 0.305
82.9125 -0.002
82.9427 0.212
82.9730 0.479
83.0033 -0.192
83.0336 0.127
83.0639 -0.282
83.0941 -0.014
83.1244 0.202
83.1547 -0.466
83.1850 -0.041
83.2153 0.125
83.2455 0.238
83.2758 0.300
83.3061 -0.679
83.3364 0.269
83.3666 0.437
83.3969 0.240
83.4272 0.043
83.4575 -0.101
83.4878 -0.244
83.5180 0.010
83.5483 -0.049
83.5786 0.675
83.6089 -0.112
83.6392 0.560
83.6694 0.035
83.6997 0.291
83.7300 0.652
83.7603 0.232
83.7905 0.177
83.8208 0.278
83.8511 0.224
83.8814 0.274
83.9117 0.272
83.9419 -0.041
83.9722 0.218
84.0025 0.374
84.0328 -0.043
84.0631 -0.198
84.0933 -0.250
84.1236 0.215
84.1539 -0.102
84.1842 -0.001
84.2144 -0.056
84.2447 -0.163
84.2750 -0.009
84.3053 -0.063
84.3356 -0.064
84.3658 0.091
84.3961 0.402
84.4264 -0.067
84.4567 0.194
84.4870 0.038
84.5172 0.195
84.5475 -0.012
84.5778 -0.427
84.6081 0.199
84.6383 -0.111
84.6686 0.361
84.6989 -0.261
84.7292 0.576
84.7595 -0.358
84.7897 -0.250
84.8200 -0.100
84.8503 0.362
84.8806 -0.165
84.9109 0.455
84.9411 0.189
84.9714 -0.076
85.0017 -0.185
85.0320 -0.084
85.0623 0.016
85.0925 0.117
85.1228 0.166
85.1531 -0.045
85.1834 -0.255
85.2136 -0.052
85.2439 0.309
85.2742 0.148
85.3045 0.613
85.3348 0.558
85.3650 0.399
85.3953 0.344
85.4256 0.082
85.4559 -0.024
85.4862 0.235
85.5164 -0.026
85.5467 -0.079
85.5770 0.390
85.6073 0.025
85.6375 0.130
85.6678 0.443
85.6981 -0.337
85.7284 0.134
85.7587 0.188
85.7889 0.034
85.8192 -0.067
85.8495 0.145
85.8798 0.305
85.9101 -0.108
85.9403 -0.052
85.9706 -0.255
86.0009 0.056
86.0312 0.003
86.0614 0.054
86.0917 -0.102
86.1220 0.210
86.1523 -0.206
86.1826 0.368
86.2128 0.421
86.2431 0.267
86.2734 0.529
86.3037 0.375
86.3340 0.274
86.3642 0.121
86.3945 -0.084
86.4248 0.181
86.4551 0.654
86.4853 -0.696
86.5156 0.195
86.5459 -0.164
86.5762 0.154
86.6065 -0.100
86.6367 -0.250
86.6670 0.112
86.6973 0.005
86.7276 0.993
86.7579 0.054
86.7881 0.573
86.8184 0.207
86.8487 0.259
86.8790 0.103
86.9092 0.259
86.9395 0.468
86.9698 0.156
87.0001 0.314
87.0304 0.368
87.0606 0.422
87.0909 0.060
87.1212 -0.250
87.1515 -0.215
87.1818 0.393
87.2120 1.002
87.2423 0.361
87.2726 0.553
87.3029 0.434
87.3331 0.002
87.3634 -0.272
87.3937 0.234
87.4240 -0.092
87.4543 -0.053
87.4845 -0.431
87.5148 0.650
87.5451 0.482
87.5754 0.001
87.6057 -0.271
87.6359 -0.497
87.6662 0.423
87.6965 -0.166
87.7268 -0.079
87.7571 0.009
87.7873 -0.319
87.8176 0.343
87.8479 -0.141
87.8782 0.000
87.9084 -0.066
87.9387 0.285
87.9690 0.271
87.9993 -0.159
88.0296 -0.015
88.0598 0.233
88.0901 -0.039
88.1204 -0.728
88.1507 0.094
88.1810 -0.593
88.2112 0.594
88.2415 -0.041
88.2718 -0.050
88.3021 0.097
88.3323 0.505
88.3626 -0.337
88.3929 0.228
88.4232 0.065
88.4535 0.318
88.4837 0.571
88.5140 -0.112
88.5443 0.455
88.5746 -0.228
88.6049 -0.390
88.6351 0.277
88.6654 0.422
88.6957 0.152
88.7260 -0.222
88.7562 0.758
88.7865 0.176
88.8168 0.480
88.8471 0.680
88.8774 -0.005
88.9076 0.977
88.9379 1.439
88.9682 0.807
88.9985 0.176
89.0288 -0.038
89.0590 0.529
89.0893 1.149
89.1196 0.676
89.1499 1.765
89.1801 1.084
89.2104 0.872
89.2407 1.338
89.2710 1.699
89.3013 2.062
89.3315 2.164
89.3618 2.214
89.3921 1.588
89.4224 2.629
89.4527 2.420
89.4829 3.253
89.5132 2.316
89.5435 1.848
89.5738 2.369
89.6040 2.475
89.6343 2.477
89.6646 2.843
89.6949 3.731
89.7252 3.213
89.7554 1.915
89.7857 2.387
89.8160 2.183
89.8463 1.458
89.8766 1.203
89.9068 1.885
89.9371 0.797
89.9674 0.438
89.9977 1.538
90.0279 0.920
90.0582 1.448
90.0885 1.456
90.1188 0.839
90.1491 0.899
90.1793 1.012
90.2096 0.969
90.2399 1.030
90.2702 -0.106
90.3005 0.582
90.3307 0.592
90.3610 0.707
90.3913 0.458
90.4216 -0.363
90.4518 -0.299
90.4821 0.220
90.5124 0.427
90.5427 0.061
90.5730 0.061
90.6032 0.269
90.6335 -0.565
90.6638 0.113
90.6941 0.479
90.7244 -0.093
90.7546 -0.248
90.7849 -0.089
90.8152 0.069
90.8455 0.124
90.8758 0.180
90.9060 0.496
90.9363 -0.386
90.9666 0.660
90.9969 -0.429
91.0271 0.097
91.0574 0.728
91.0877 0.473
91.1180 0.219
91.1483 -0.243
91.1785 -0.236
91.2088 0.292
91.2391 0.092
91.2694 -0.421
91.2997 0.213
91.3299 -0.039
91.3602 -0.290
91.3905 0.070
91.4208 -0.350
91.4510 0.219
91.4813 0.425
91.5116 0.526
91.5419 0.263
91.5722 -0.259
91.6024 -0.105
91.6327 0.155
91.6630 -0.107
91.6933 0.570
91.7236 0.362
91.7538 -0.367
91.7841 -0.158
91.8144 0.312
91.8447 0.366
91.8749 0.628
91.9052 -0.255
91.9355 0.737
91.9658 0.167
91.9961 -0.038
92.0263 1.008
92.0566 0.075
92.0869 -0.389
92.1172 -0.040
92.1475 0.309
92.1777 -0.539
92.2080 0.228
92.2383 0.319
92.2686 0.409
92.2988 0.084
92.3291 0.435
92.3594 -0.202
92.3897 0.307
92.4200 0.556
92.4502 0.597
92.4805 0.430
92.5108 1.200
92.5411 0.774
92.5714 0.451
92.6016 0.130
92.6319 0.537
92.6622 0.060
92.6925 0.990
92.7227 0.982
92.7530 0.402
92.7833 -0.283
92.8136 0.232
92.8439 0.955
92.8741 0.793
92.9044 0.318
92.9347 0.001
92.9650 0.986
92.9953 0.252
93.0255 0.977
93.0558 0.922
93.0861 0.033
93.1164 0.291
93.1466 0.184
93.1769 0.391
93.2072 0.337
93.2375 0.232
93.2678 0.543
93.2980 -0.030
93.3283 -0.082
93.3586 -0.030
93.3889 -0.029
93.4192 0.180
93.4494 0.234
93.4797 -0.546
93.5100 -0.187
93.5403 -0.140
93.5706 -0.041
93.6008 -0.202
93.6311 -0.050
93.6614 -0.054
93.6917 -0.058
93.7219 -0.322
93.7522 0.457
93.7825 -0.275
93.8128 -0.120
93.8431 0.034
93.8733 -0.071
93.9036 -0.072
93.9339 0.240
93.9642 -0.437
93.9945 -0.072
94.0247 -0.228
94.0550 0.763
94.0853 -0.226
94.1156 0.297
94.1458 0.612
94.1761 0.146
94.2064 -0.008
94.2367 -0.317
94.2670 -0.057
94.2972 -0.317
94.3275 -0.317
94.3578 0.297
94.3881 -0.078
94.4184 0.276
94.4486 0.162
94.4789 1.090
94.5092 0.144
94.5395 -0.178
94.5697 0.543
94.6000 0.223
94.6303 0.840
94.6606 0.781
94.6909 1.087
94.7211 1.080
94.7514 0.345
94.7817 1.120
94.8120 0.178
94.8423 0.746
94.8725 1.054
94.9028 1.102
94.9331 0.525
94.9634 1.303
94.9936 2.550
95.0239 1.297
95.0542 1.972
95.0845 2.439
95.1148 1.813
95.1450 1.812
95.1753 2.280
95.2056 1.602
95.2359 2.748
95.2662 2.749
95.2964 2.489
95.3267 2.178
95.3570 2.909
95.3873 1.556
95.4175 1.663
95.4478 1.510
95.4781 2.086
95.5084 2.454
95.5387 1.833
95.5689 1.420
95.5992 0.696
95.6295 1.795
95.6598 1.644
95.6901 1.545
95.7203 -0.480
95.7506 0.777
95.7809 1.044
95.8112 0.166
95.8414 1.320
95.8717 -0.078
95.9020 0.451
95.9323 0.825
95.9626 0.261
95.9928 0.844
96.0231 0.281
96.0534 0.500
96.0837 0.042
96.1140 -0.208
96.1442 -0.092
96.1745 0.076
96.2048 -0.224
96.2351 0.154
96.2653 0.010
96.2956 0.232
96.3259 0.090
96.3562 0.417
96.3865 0.067
96.4167 0.446
96.4470 -0.163
96.4773 -0.304
96.5076 0.173
96.5379 0.286
96.5681 0.243
96.5984 0.200
96.6287 -0.572
96.6590 -0.149
96.6893 -0.299
96.7195 0.172
96.7498 0.072
96.7801 0.023
96.8104 0.131
96.8406 0.240
96.8709 -0.120
96.9012 0.302
96.9315 0.568
96.9618 -0.051
96.9920 -0.149
97.0223 0.066
97.0526 0.021
97.0829 0.549
97.1132 -0.276
97.1434 -0.007
97.1737 -0.572
97.2040 0.052
97.2343 0.364
97.2645 -0.210
97.2948 -0.002
97.3251 -0.001
97.3554 0.312
97.3857 0.365
97.4159 0.731
97.4462 0.316
97.4765 0.162
97.5068 0.217
97.5371 -0.145
97.5673 0.067
97.5976 0.175
97.6279 -0.290
97.6582 -0.146
97.6884 0.311
97.7187 0.664
97.7490 0.705
97.7793 0.798
97.8096 0.423
97.8398 -0.212
97.8701 0.404
97.9004 0.394
97.9307 0.021
97.9610 -0.196
97.9912 0.838
98.0215 -0.107
98.0518 0.354
98.0821 0.295
98.1123 0.601
98.1426 0.907
98.1729 0.224
98.2032 0.219
98.2335 0.058
98.2637 0.939
98.2940 0.466
98.3243 0.983
98.3546 0.719
98.3849 0.976
98.4151 1.338
98.4454 1.492
98.4757 1.177
98.5060 1.228
98.5362 2.216
98.5665 0.861
98.5968 1.017
98.6271 0.809
98.6574 0.184
98.6876 1.070
98.7179 1.280
98.7482 0.344
98.7785 1.908
98.8088 1.598
98.8390 0.455
98.8693 1.447
98.8996 1.190
98.9299 1.038
98.9601 0.625
98.9904 1.776
99.0207 1.520
99.0510 0.015
99.0813 -0.187
99.1115 0.652
99.1418 0.502
99.1721 0.509
99.2024 0.152
99.2327 0.420
99.2629 0.740
99.2932 0.176
99.3235 -0.232
99.3538 0.090
99.3841 -0.057
99.4143 0.109
99.4446 -0.037
99.4749 0.026
99.5052 -0.119
99.5354 -0.108
99.5657 -0.044
99.5960 0.125
99.6263 -0.019
99.6566 0.203
99.6868 -0.045
99.7171 -0.031
99.7474 0.504
99.7777 -0.002
99.8080 0.430
99.8382 0.497
99.8685 0.148
99.8988 0.060
99.9291 0.076
99.9593 -0.271
99.9896 0.267
100.0199 0.128
100.0502 -0.271
100.0805 -0.174
100.1107 0.028
100.1410 0.229
100.1713 0.431
100.2016 0.426
100.2319 -0.101
100.2621 0.363
100.2924 0.098
100.3227 0.719
100.3530 -0.431
100.3832 0.243
100.4135 0.031
100.4438 0.393
100.4741 -0.026
100.5044 0.076
100.5346 0.179
100.5649 0.073
100.5952 0.281
100.6255 0.124
100.6558 0.124
100.6860 -0.136
100.7163 0.073
100.7466 0.178
100.7769 0.440
100.8071 0.025
100.8374 -0.441
100.8677 0.134
100.8980 0.346
100.9283 0.349
100.9585 0.145
100.9888 0.045
101.0191 0.466
101.0494 0.158
101.0797 0.372
101.1099 -0.612
101.1402 -0.033
101.1705 0.546
101.2008 0.345
101.2310 -0.117
101.2613 0.360
101.2916 0.472
101.3219 0.012
101.3522 0.385
101.3824 0.238
101.4127 0.768
101.4430 0.778
101.4733 0.267
101.5036 0.434
101.5338 0.289
101.5641 -0.220
101.5944 -0.260
101.6247 0.130
101.6549 0.573
101.6852 -0.234
101.7155 -0.103
101.7458 0.914
101.7761 0.108
101.8063 0.344
101.8366 0.373
101.8669 0.089
101.8972 0.431
101.9275 0.408
101.9577 -0.239
101.9880 0.208
102.0183 0.395
102.0486 0.634
102.0788 0.562
102.1091 0.333
102.1394 0.261
102.1697 0.815
102.2000 0.170
102.2302 -0.109
102.2605 0.342
102.2908 -0.093
102.3211 0.983
102.3514 -0.128
102.3816 0.429
102.4119 0.673
102.4422 0.084
102.4725 1.162
102.5028 0.626
102.5330 -0.170
102.5633 0.440
102.5936 0.009
102.6239 0.204
102.6541 0.503
102.6844 1.428
102.7147 0.946
102.7450 0.049
102.7753 0.922
102.8055 0.234
102.8358 0.952
102.8661 0.629
102.8964 0.983
102.9267 1.181
102.9569 0.859
102.9872 0.590
103.0175 0.894
103.0478 1.042
103.0780 1.086
103.1083 0.557
103.1386 0.133
103.1689 0.387
103.1992 0.537
103.2294 1.260
103.2597 0.577
103.2900 -0.001
103.3203 -0.006
103.3506 -0.115
103.3808 0.090
103.4111 0.815
103.4414 1.437
103.4717 0.600
103.5019 0.650
103.5322 0.335
103.5625 1.167
103.5928 0.801
103.6231 0.487
103.6533 0.382
103.6836 0.069
103.7139 0.590
103.7442 0.278
103.7745 1.477
103.8047 0.749
103.8350 1.167
103.8653 0.961
103.8956 1.120
103.9258 0.914
103.9561 2.115
103.9864 1.494
104.0167 2.070
104.0470 0.929
104.0772 1.506
104.1075 1.511
104.1378 1.100
104.1681 1.679
104.1984 1.112
104.2286 0.806
104.2589 1.386
104.2892 1.289
104.3195 1.245
104.3497 1.305
104.3800 0.741
104.4103 1.687
104.4406 1.020
104.4709 0.977
104.5011 1.248
104.5314 0.893
104.5617 0.748
104.5920 0.915
104.6223 0.302
104.6525 0.262
104.6828 1.472
104.7131 0.339
104.7434 0.352
104.7736 -0.468
104.8039 -0.299
104.8342 0.234
104.8645 0.142
104.8948 0.208
104.9250 -0.143
104.9553 0.808
104.9856 -0.063
105.0159 0.004
105.0462 0.227
105.0764 -0.070
105.1067 0.519
105.1370 -0.402
105.1673 -0.073
105.1975 -0.056
105.2278 -0.299
105.2581 -0.182
105.2884 0.092
105.3187 0.210
105.3489 -0.193
105.3792 0.135
105.4095 -0.319
105.4398 0.269
105.4701 -0.132
105.5003 -0.011
105.5306 0.213
105.5609 0.074
105.5912 -0.169
105.6215 -0.047
105.6517 0.335
105.6820 0.041
105.7123 -0.148
105.7426 -0.337
105.7728 0.188
105.8031 0.558
105.8334 -0.009
105.8637 -0.159
105.8940 0.316
105.9242 0.219
105.9545 0.487
105.9848 -0.495
106.0151 -0.175
106.0454 -0.271
106.0756 -0.025
106.1059 -0.091
106.1362 -0.156
106.1665 0.091
106.1967 -0.235
106.2270 0.118
106.2573 0.106
106.2876 -0.323
106.3179 0.655
106.3481 -0.189
106.3784 0.165
106.4087 -0.001
106.4390 -0.063
106.4693 0.396
106.4995 0.023
106.5298 1.108
106.5601 -0.046
106.5904 -0.210
106.6206 0.147
106.6509 -0.329
106.6812 0.550
106.7115 -0.082
106.7418 0.225
106.7720 0.323
106.8023 -0.098
106.8326 -0.259
106.8629 -0.108
106.8932 0.045
106.9234 -0.376
106.9537 0.298
106.9840 0.452
107.0143 0.345
107.0445 0.447
107.0748 0.706
107.1051 -0.077
107.1354 -0.026
107.1657 0.286
107.1959 -0.027
107.2262 0.182
107.2565 0.078
107.2868 -0.494
107.3171 -0.025
107.3473 -0.078
107.3776 0.287
107.4079 -0.025
107.4382 -0.284
107.4684 -0.022
107.4987 0.188
107.5290 0.971
107.5593 0.088
107.5896 0.195
107.6198 0.146
107.6501 0.827
107.6804 -0.471
107.7107 0.054
107.7410 0.163
107.7712 -0.092
107.8015 0.174
107.8318 0.128
107.8621 -0.282
107.8923 -0.119
107.9226 -0.477
107.9529 0.260
107.9832 0.007
108.0135 -0.141
108.0437 0.128
108.0740 0.189
108.1043 -0.114
108.1346 0.313
108.1649 0.063
108.1951 -0.031
108.2254 -0.280
108.2557 -0.023
108.2860 0.286
108.3163 0.127
108.3465 0.073
108.3768 -0.137
108.4071 -0.086
108.4374 0.069
108.4676 -0.296
108.4979 0.225
108.5282 0.225
108.5585 -0.035
108.5888 0.122
108.6190 0.071
108.6493 0.542
108.6796 0.335
108.7099 -0.235
108.7402 0.184
108.7704 0.448
108.8007 -0.017
108.8310 0.195
108.8613 -0.009
108.8915 0.152
108.9218 -0.363
108.9521 -0.107
108.9824 0.149
109.0127 0.198
109.0429 -0.065
109.0732 0.088
109.1035 -0.122
109.1338 -0.280
109.1641 -0.027
109.1943 0.384
109.2246 0.170
109.2549 0.008
109.2852 -0.569
109.3154 0.728
109.3457 -0.266
109.3760 0.460
109.4063 -0.377
109.4366 0.818
109.4668 0.034
109.4971 0.240
109.5274 0.707
109.5577 -0.388
109.5880 -0.285
109.6182 0.065
109.6485 -0.053
109.6788 0.611
109.7091 0.702
109.7393 -0.040
109.7696 -0.313
109.7999 0.613
109.8302 0.497
109.8605 0.590
109.8907 0.371
109.9210 0.673
109.9513 0.507
109.9816 1.122
110.0119 0.384
110.0421 0.427
110.0724 0.471
110.1027 0.671
110.1330 -0.066
110.1632 0.187
110.1935 0.597
110.2238 0.695
110.2541 0.168
110.2844 1.047
110.3146 -0.052
110.3449 -0.109
110.3752 0.147
110.4055 0.143
110.4358 0.191
110.4660 0.604
110.4963 1.018
110.5266 0.546
110.5569 0.336
110.5871 1.063
110.6174 0.801
110.6477 0.331
110.6780 0.174
110.7083 0.382
110.7385 0.226
110.7688 0.226
110.7991 0.643
110.8294 0.801
110.8597 0.333
110.8899 0.335
110.9202 0.494
110.9505 -0.128
110.9808 0.343
111.0110 -0.278
111.0413 0.142
111.0716 0.094
111.1019 -0.005
111.1322 0.052
111.1624 -0.099
111.1927 0.115
111.2230 -0.348
111.2533 0.128
111.2836 0.082
111.3138 -0.587
111.3441 0.097
111.3744 -0.363
111.4047 -0.042
111.4350 0.279
111.4652 -0.285
111.4955 0.090
111.5258 -0.473
111.5561 0.371
111.5863 0.069
111.6166 0.288
111.6469 -0.065
111.6772 -0.157
111.7075 -0.249
111.7377 -0.236
111.7680 0.402
111.7983 -0.053
111.8286 0.013
111.8589 -0.285
111.8891 -0.175
111.9194 -0.272
111.9497 -0.213
111.9800 0.732
112.0102 0.166
112.0405 0.227
112.0708 0.548
112.1011 0.921
112.1314 -0.215
112.1616 0.524
112.1919 0.273
112.2222 -0.029
112.2525 0.242
112.2828 -0.267
112.3130 -0.151
112.3433 0.642
112.3736 -0.283
112.4039 -0.271
112.4341 0.203
112.4644 0.156
112.4947 0.057
112.5250 0.375
112.5553 0.016
112.5855 -0.185
112.6158 0.082
112.6461 0.402
112.6764 0.566
112.7067 0.313
112.7369 0.217
112.7672 0.122
112.7975 0.131
112.8278 0.349
112.8580 0.255
112.8883 0.161
112.9186 0.797
112.9489 0.026
112.9792 -0.222
113.0094 0.050
113.0397 0.270
113.0700 -0.290
113.1003 0.608
113.1306 -0.264
113.1608 -0.250
113.1911 0.203
113.2214 0.760
113.2517 0.276
113.2819 0.313
113.3122 0.455
113.3425 0.024
113.3728 0.322
113.4031 0.361
113.4333 0.139
113.4636 -0.082
113.4939 0.166
113.5242 0.363
113.5545 0.247
113.5847 -0.077
113.6150 0.538
113.6453 0.006
113.6756 0.049
113.7058 0.143
113.7361 0.967
113.7664 -0.031
113.7967 0.377
113.8270 0.421
113.8572 0.048
113.8875 0.041
113.9178 -0.018
113.9481 0.132
113.9784 0.178
114.0086 0.380
114.0389 -0.146
114.0692 -0.255
114.0995 -0.208
114.1298 -0.056
114.1600 -0.112
114.1903 -0.167
114.2206 0.246
114.2509 0.816
114.2811 -0.280
114.3114 -0.021
114.3417 0.029
114.3720 0.601
114.4023 -0.129
114.4325 0.756
114.4628 -0.234
114.4931 -0.025
114.5234 0.028
114.5537 0.133
114.5839 0.291
114.6142 -0.280
114.6445 -0.280
114.6748 0.220
114.7050 -0.529
114.7353 -0.028
114.7656 -0.204
114.7959 0.454
114.8262 -0.033
114.8564 -0.311
114.8867 0.087
114.9170 1.319
114.9473 0.104
114.9776 0.556
115.0078 -0.138
115.0381 0.262
115.0684 0.663
115.0987 -0.238
115.1289 0.112
115.1592 -0.216
115.1895 0.812
115.2198 0.746
115.2501 -0.414
115.2803 0.511
115.3106 0.758
115.3409 -0.140
115.3712 0.109
115.4015 0.149
115.4317 0.659
115.4620 0.856
115.4923 0.325
115.5226 0.419
115.5528 0.565
115.5831 1.025
115.6134 0.391
115.6437 0.955
115.6740 0.634
115.7042 0.366
115.7345 0.463
115.7648 0.924
115.7951 1.855
115.8254 1.120
115.8556 1.270
115.8859 1.004
115.9162 0.895
115.9465 1.307
115.9767 1.510
116.0070 1.975
116.0373 2.024
116.0676 1.812
116.0979 2.122
116.1281 1.494
116.1584 1.284
116.1887 2.063
116.2190 2.114
116.2493 1.124
116.2795 1.852
116.3098 2.008
116.3401 2.165
116.3704 1.280
116.4006 1.177
116.4309 0.970
116.4612 1.128
116.4915 2.276
116.5218 1.237
116.5520 2.385
116.5823 1.347
116.6126 2.496
116.6429 1.094
116.6732 1.672
116.7034 0.478
116.7337 1.369
116.7640 1.218
116.7943 0.599
116.8245 0.554
116.8548 0.560
116.8851 1.974
116.9154 0.471
116.9457 0.843
116.9759 1.008
117.0062 1.068
117.0365 0.869
117.0668 0.358
117.0971 0.420
117.1273 0.117
117.1576 -0.028
117.1879 0.660
117.2182 1.035
117.2485 0.735
117.2787 0.330
117.3090 0.707
117.3393 -0.113
117.3696 0.421
117.3998 0.226
117.4301 0.188
117.4604 0.046
117.4907 -0.304
117.5210 -0.351
117.5512 0.540
117.5815 1.171
117.6118 0.553
117.6421 0.195
117.6724 0.202
117.7026 0.522
117.7329 0.425
117.7632 -0.087
117.7935 0.807
117.8237 0.347
117.8540 0.148
117.8843 0.106
117.9146 -0.040
117.9449 0.283
117.9751 -0.175
118.0054 0.253
118.0357 0.056
118.0660 -0.713
118.0963 0.601
118.1265 -0.011
118.1568 0.211
118.1871 -0.245
118.2174 -0.491
118.2476 0.409
118.2779 0.267
118.3082 0.439
118.3385 -0.223
118.3688 -0.363
118.3990 0.253
118.4293 -0.171
118.4596 0.342
118.4899 -0.342
118.5202 0.641
118.5504 0.166
118.5807 0.265
118.6110 0.259
118.6413 0.306
118.6715 0.145
118.7018 -0.172
118.7321 -0.696
118.7624 0.446
118.7927 1.016
118.8229 0.284
118.8532 0.333
118.8835 -0.137
118.9138 0.017
118.9441 -0.244
118.9743 0.223
119.0046 0.171
119.0349 0.275
119.0652 0.015
119.0954 0.068
119.1257 -0.192
119.1560 0.174
119.1863 -0.032
119.2166 -0.655
119.2468 0.493
119.2771 -0.389
119.3074 0.187
119.3377 0.295
119.3680 -0.118
119.3982 -0.061
119.4285 -0.056
119.4588 -0.363
119.4891 0.101
119.5193 0.409
119.5496 0.354
119.5799 0.402
119.6102 0.660
119.6405 -0.072
119.6707 0.343
119.7010 -0.492
119.7313 0.027
119.7616 -0.026
119.7919 0.442
119.8221 0.026
119.8524 0.286
119.8827 -0.078
119.9130 -0.285
119.9433 0.157
119.9735 0.130
120.0038 0.000
