'Id: "" Comment: "" Operator: "Lab Manager" Anode: "Cu" Scantype: "Locked Coupled" TimePerStep: "19.2" X: "9999" Y: "9999" Z: "9999" 
10.0015 0.000
10.0318 0.869
10.0620 0.019
10.0923 0.472
10.1226 1.499
10.1529 1.484
10.1832 0.636
10.2134 0.621
10.2437 0.399
10.2740 0.854
10.3043 0.581
10.3346 0.464
10.3648 -0.122
10.3951 0.804
10.4254 0.480
10.4557 0.781
10.4859 -0.428
10.5162 0.499
10.5465 0.905
10.5768 0.374
10.6071 1.719
10.6373 0.252
10.6676 0.555
10.6979 0.391
10.7282 -0.086
10.7585 0.062
10.7887 0.211
10.8190 0.100
10.8493 0.354
10.8796 1.025
10.9098 0.707
10.9401 0.753
10.9704 0.540
11.0007 0.952
11.0310 1.156
11.0612 1.985
11.0915 0.731
11.1218 0.363
11.1521 0.569
11.1824 1.816
11.2126 1.085
11.2429 0.041
11.2732 1.082
11.3035 -0.013
11.3337 0.038
11.3640 0.871
11.3943 -0.066
11.4246 0.247
11.4549 1.029
11.4851 -0.481
11.5154 0.094
11.5457 0.825
11.5760 0.514
11.6063 0.361
11.6365 0.676
11.6668 -0.414
11.6971 0.631
11.7274 -0.302
11.7577 0.952
11.7879 0.228
11.8182 0.181
11.8485 0.759
11.8788 0.296
11.9090 0.615
11.9393 0.622
11.9696 0.577
11.9999 0.688
12.0302 -0.085
12.0604 -0.806
12.0907 0.143
12.1210 0.415
12.1513 1.105
12.1816 -0.236
12.2118 -0.327
12.2421 0.676
12.2724 -0.196
12.3027 -0.390
12.3329 0.033
12.3632 0.040
12.3935 -0.006
12.4238 0.366
12.4541 0.582
12.4843 -0.660
12.5146 0.286
12.5449 0.607
12.5752 -0.321
12.6055 -0.051
12.6357 1.417
12.6660 -0.344
12.6963 0.344
12.7266 -1.052
12.7568 -0.155
12.7871 -0.351
12.8174 0.025
12.8477 -0.379
12.8780 -0.012
12.9082 0.461
12.9385 -0.838
12.9688 0.312
12.9991 -0.048
13.0294 0.322
13.0596 0.483
13.0899 0.020
13.1202 0.339
13.1505 0.710
13.1807 0.664
13.2110 0.151
13.2413 0.366
13.2716 0.166
13.3019 -0.138
13.3321 0.079
13.3624 -0.225
13.3927 -0.372
13.4230 0.194
13.4533 1.021
13.4835 0.703
13.5138 0.698
13.5441 0.276
13.5744 -0.458
13.6046 0.319
13.6349 0.679
13.6652 0.155
13.6955 0.047
13.7258 0.253
13.7560 0.615
13.7863 0.664
13.8166 0.506
13.8469 0.088
13.8772 0.556
13.9074 0.555
13.9377 0.450
13.9680 0.398
13.9983 1.597
14.0285 0.139
14.0588 0.453
14.0891 0.350
14.1194 0.300
14.1497 -0.011
14.1799 0.461
14.2102 -0.005
14.2405 -0.367
14.2708 -0.155
14.3011 0.266
14.3313 -0.302
14.3616 0.067
14.3919 -0.501
14.4222 0.078
14.4524 1.021
14.4827 0.298
14.5130 0.409
14.5433 0.103
14.5736 0.163
14.6038 -0.038
14.6341 -0.030
14.6644 0.447
14.6947 -0.273
14.7250 -0.368
14.7552 -0.216
14.7855 0.717
14.8158 0.037
14.8461 0.763
14.8764 0.708
14.9066 0.289
14.9369 0.131
14.9672 -0.027
14.9975 0.544
15.0277 0.127
15.0580 -0.342
15.0883 -0.447
15.1186 0.439
15.1489 0.231
15.1791 0.180
15.2094 -0.079
15.2397 0.339
15.2700 -0.284
15.3003 0.864
15.3305 -0.123
15.3608 0.714
15.3911 0.092
15.4214 -0.008
15.4516 -0.368
15.4819 -0.215
15.5122 0.303
15.5425 0.040
15.5728 -0.223
15.6030 0.609
15.6333 0.243
15.6636 0.294
15.6939 -0.696
15.7242 0.033
15.7544 0.137
15.7847 0.190
15.8150 0.034
15.8453 0.869
15.8755 0.506
15.9058 -0.013
15.9361 0.094
15.9664 0.669
15.9967 0.672
16.0269 0.311
16.0572 0.159
16.0875 0.371
16.1178 0.897
16.1481 -0.296
16.1783 -0.083
16.2086 -0.754
16.2389 0.125
16.2692 0.224
16.2994 0.219
16.3297 0.163
16.3600 0.262
16.3903 0.259
16.4206 0.255
16.4508 0.825
16.4811 0.457
16.5114 0.507
16.5417 -0.224
16.5720 -0.017
16.6022 -0.019
16.6325 0.657
16.6628 0.657
16.6931 -0.385
16.7233 -0.229
16.7536 0.709
16.7839 0.346
16.8142 0.138
16.8445 0.453
16.8747 0.611
16.9050 0.301
16.9353 0.564
16.9656 0.619
16.9959 1.404
17.0261 0.470
17.0564 0.578
17.0867 -0.355
17.1170 0.171
17.1472 0.333
17.1775 0.495
17.2078 0.917
17.2381 0.507
17.2684 -0.007
17.2986 -0.365
17.3289 -0.151
17.3592 0.116
17.3895 -0.346
17.4198 0.962
17.4500 0.501
17.4803 0.196
17.5106 0.047
17.5409 0.108
17.5712 0.898
17.6014 0.177
17.6317 0.499
17.6620 -0.012
17.6923 -0.002
17.7225 0.686
17.7528 -0.085
17.7831 0.031
17.8134 -0.322
17.8437 0.210
17.8739 0.066
17.9042 -0.390
17.9345 -0.021
17.9648 0.349
17.9951 -0.167
18.0253 -0.318
18.0556 1.563
18.0859 -0.358
18.1162 0.795
18.1464 0.489
18.1767 -0.181
18.2070 1.129
18.2373 -0.113
18.2676 0.416
18.2978 -0.096
18.3281 0.226
18.3584 -0.390
18.3887 -0.196
18.4190 -0.159
18.4492 0.504
18.4795 -0.135
18.5098 0.164
18.5401 0.672
18.5703 0.086
18.6006 0.178
18.6309 -0.303
18.6612 0.050
18.6915 0.143
18.7217 0.809
18.7520 0.277
18.7823 -0.306
18.8126 0.101
18.8429 -0.169
18.8731 0.083
18.9034 0.230
18.9337 -0.143
18.9640 0.266
18.9942 0.675
19.0245 -0.114
19.0548 0.244
19.0851 0.081
19.1154 -0.238
19.1456 0.277
19.1759 -0.145
19.2062 -0.202
19.2365 0.002
19.2668 0.362
19.2970 0.045
19.3273 -0.375
19.3576 0.455
19.3879 -0.694
19.4181 0.346
19.4484 -0.334
19.4787 0.081
19.5090 0.497
19.5393 -0.598
19.5695 -0.234
19.5998 -0.131
19.6301 0.234
19.6604 0.235
19.6907 -0.650
19.7209 -0.179
19.7512 0.448
19.7815 -0.435
19.8118 -0.275
19.8420 -0.220
19.8723 -0.268
19.9026 -0.212
19.9329 0.001
19.9632 -0.150
19.9934 -0.145
20.0237 0.903
20.0540 0.076
20.0843 -0.231
20.1146 -0.224
20.1448 0.513
20.1751 -0.261
20.2054 -0.097
20.2357 0.172
20.2659 0.232
20.2962 -0.123
20.3265 -0.114
20.3568 0.781
20.3871 -0.302
20.4173 -0.292
20.4476 -0.229
20.4779 0.355
20.5082 -0.154
20.5385 -0.298
20.5687 0.235
20.5990 0.872
20.6293 -0.313
20.6596 -0.403
20.6899 0.756
20.7201 0.822
20.7504 0.681
20.7807 1.008
20.8110 0.034
20.8412 0.362
20.8715 0.690
20.9018 0.238
20.9321 0.463
20.9624 1.053
20.9926 -0.023
21.0229 0.932
21.0532 -0.560
21.0835 -0.333
21.1138 0.384
21.1440 0.529
21.1743 0.415
21.2046 0.665
21.2349 0.290
21.2651 0.124
21.2954 0.532
21.3257 0.106
21.3560 0.462
21.3863 0.402
21.4165 0.655
21.4468 -0.134
21.4771 0.432
21.5074 0.998
21.5377 1.148
21.5679 0.309
21.5982 -0.217
21.6285 0.663
21.6588 0.033
21.6890 0.445
21.7193 0.025
21.7496 0.385
21.7799 -0.191
21.8102 0.067
21.8404 0.220
21.8707 -0.303
21.9010 -0.096
21.9313 0.788
21.9616 0.318
21.9918 -0.412
22.0221 0.264
22.0524 0.369
22.0827 -0.256
22.1129 0.161
22.1432 0.006
22.1735 0.684
22.2038 -0.199
22.2341 0.272
22.2643 -0.090
22.2946 0.590
22.3249 0.228
22.3552 -0.237
22.3855 0.028
22.4157 1.022
22.4460 0.089
22.4763 -0.167
22.5066 0.360
22.5368 -0.364
22.5671 -0.320
22.5974 0.870
22.6277 0.602
22.6580 0.490
22.6882 -0.246
22.7185 0.112
22.7488 -0.363
22.7791 0.725
22.8094 -0.374
22.8396 0.142
22.8699 0.345
22.9002 0.133
22.9305 -0.132
22.9607 0.177
22.9910 0.174
23.0213 0.483
23.0516 0.689
23.0819 -0.042
23.1121 0.842
23.1424 -0.306
23.1727 0.474
23.2030 0.578
23.2333 -0.099
23.2635 0.161
23.2938 -0.307
23.3241 -0.046
23.3544 0.580
23.3846 0.581
23.4149 0.531
23.4452 -0.039
23.4755 -0.349
23.5058 -0.141
23.5360 0.849
23.5663 0.017
23.5966 0.174
23.6269 -0.241
23.6572 0.647
23.6874 -0.236
23.7177 -0.598
23.7480 0.284
23.7783 0.332
23.8086 -0.036
23.8388 0.639
23.8691 0.219
23.8994 -0.616
23.9297 0.372
23.9599 0.423
23.9902 -0.099
24.0205 0.942
24.0508 0.212
24.0811 -0.100
24.1113 -0.464
24.1416 0.735
24.1719 -0.254
24.2022 0.060
24.2325 -0.250
24.2627 0.325
24.2930 -0.349
24.3233 -0.306
24.3536 0.154
24.3838 0.354
24.4141 -0.070
24.4444 0.027
24.4747 -0.501
24.5050 0.169
24.5352 -0.254
24.5655 -0.572
24.5958 0.306
24.6261 0.455
24.6564 0.656
24.6866 0.649
24.7169 -0.555
24.7472 -0.092
24.7775 0.163
24.8077 0.053
24.8380 0.726
24.8683 0.200
24.8986 -0.481
24.9289 0.193
24.9591 -0.384
24.9894 0.186
25.0197 0.600
25.0500 0.494
25.0803 0.544
25.1105 0.230
25.1408 0.333
25.1711 0.072
25.2014 0.228
25.2316 0.176
25.2619 -0.084
25.2922 0.281
25.3225 -0.030
25.3528 0.283
25.3830 -0.288
25.4133 -0.494
25.4436 0.339
25.4739 0.340
25.5042 -0.024
25.5344 0.602
25.5647 0.812
25.5950 -0.124
25.6253 1.076
25.6555 0.610
25.6858 -0.273
25.7161 -0.061
25.7464 0.515
25.7767 0.103
25.8069 -0.206
25.8372 -0.357
25.8675 0.001
25.8978 -0.057
25.9281 0.094
25.9583 -0.015
25.9886 0.605
26.0189 -0.389
26.0492 0.492
26.0794 0.020
26.1097 0.642
26.1400 -0.247
26.1703 0.167
26.2006 1.415
26.2308 0.059
26.2611 0.162
26.2914 0.004
26.3217 0.368
26.3520 1.097
26.3822 -0.257
26.4125 -0.361
26.4428 -0.168
26.4731 -0.078
26.5034 0.220
26.5336 0.466
26.5639 -0.641
26.5942 -0.133
26.6245 -0.303
26.6547 0.466
26.6850 -0.483
26.7153 -0.235
26.7456 -0.142
26.7759 -0.466
26.8061 0.357
26.8364 -0.070
26.8667 0.180
26.8970 0.431
26.9273 0.162
26.9575 -0.472
26.9878 0.769
27.0181 1.022
27.0484 -0.132
27.0786 0.121
27.1089 0.218
27.1392 0.628
27.1695 0.361
27.1998 -0.009
27.2300 -0.379
27.2603 -0.124
27.2906 0.653
27.3209 -0.445
27.3512 0.072
27.3814 0.797
27.4117 0.690
27.4420 -0.042
27.4723 -0.044
27.5025 -0.203
27.5328 0.004
27.5631 1.148
27.5934 -0.623
27.6237 -0.520
27.6539 0.676
27.6842 -0.003
27.7145 0.933
27.7448 0.671
27.7751 -0.319
27.8053 0.045
27.8356 0.202
27.8659 0.254
27.8962 0.359
27.9264 0.777
27.9567 0.466
27.9870 -0.105
28.0173 -0.572
28.0476 0.142
28.0778 -0.341
28.1081 0.218
28.1384 -0.004
28.1687 0.244
28.1990 0.752
28.2292 -0.146
28.2595 0.415
28.2898 -0.014
28.3201 -0.390
28.3503 -0.352
28.3806 0.258
28.4109 0.088
28.4412 0.595
28.4715 -0.407
28.5017 0.153
28.5320 0.192
28.5623 0.440
28.5926 0.064
28.6229 1.251
28.6531 0.094
28.6834 -0.438
28.7137 0.125
28.7440 0.740
28.7742 -0.572
28.8045 -0.373
28.8348 0.087
28.8651 -0.442
28.8954 -0.047
28.9256 -0.434
28.9559 0.430
28.9862 -0.008
29.0165 0.127
29.0468 -0.258
29.0770 -0.017
29.1073 0.328
29.1376 0.308
29.1679 0.550
29.1981 0.479
29.2284 0.877
29.2587 -0.651
29.2890 0.321
29.3193 -0.321
29.3495 -0.650
29.3798 0.360
29.4101 0.330
29.4404 0.039
29.4707 0.218
29.5009 -0.020
29.5312 0.055
29.5615 0.235
29.5918 0.414
29.6221 -0.811
29.6523 0.098
29.6826 -0.918
29.7129 0.305
29.7432 0.591
29.7734 -0.581
29.8037 1.372
29.8340 0.409
29.8643 0.071
29.8946 -0.214
29.9248 0.491
29.9551 0.207
29.9854 -0.494
30.0157 -0.169
30.0460 -0.052
30.0762 0.118
30.1065 0.756
30.1368 -0.271
30.1671 0.837
30.1973 0.539
30.2276 -0.018
30.2579 -0.472
30.2882 -0.144
30.3185 0.341
30.3487 0.930
30.3790 0.373
30.4093 2.577
30.4396 1.032
30.4699 0.529
30.5001 0.234
30.5304 -0.373
30.5607 1.052
30.5910 0.863
30.6212 0.466
30.6515 0.798
30.6818 1.495
30.7121 2.036
30.7424 1.953
30.7726 2.547
30.8029 1.943
30.8332 2.538
30.8635 2.873
30.8938 2.844
30.9240 4.273
30.9543 4.296
30.9846 4.841
31.0149 4.240
31.0451 5.931
31.0754 5.279
31.1057 7.231
31.1360 6.632
31.1663 7.439
31.1965 9.080
31.2268 9.940
31.2571 12.571
31.2874 13.224
31.3177 14.085
31.3479 18.748
31.3782 16.381
31.4085 22.451
31.4388 25.293
31.4690 28.656
31.4993 32.853
31.5296 39.029
31.5599 40.310
31.5902 46.903
31.6204 45.008
31.6507 47.175
31.6810 45.540
31.7113 44.167
31.7416 40.241
31.7718 35.223
31.8021 32.339
31.8324 27.842
31.8627 26.679
31.8929 20.568
31.9232 17.322
31.9535 15.742
31.9838 14.580
32.0141 9.981
32.0443 10.018
32.0746 7.659
32.1049 7.800
32.1352 6.380
32.1655 4.803
32.1957 4.269
32.2260 3.787
32.2563 2.524
32.2866 1.730
32.3169 2.707
32.3471 3.581
32.3774 2.163
32.4077 1.371
32.4380 1.673
32.4682 1.089
32.4985 0.402
32.5288 1.434
32.5591 0.696
32.5894 -0.094
32.6196 -0.051
32.6499 1.087
32.6802 0.402
32.7105 0.290
32.7408 0.856
32.7710 0.433
32.8013 0.427
32.8316 0.681
32.8619 0.728
32.8921 -0.840
32.9224 -0.012
32.9527 0.661
32.9830 -0.437
33.0133 -0.493
33.0435 0.337
33.0738 -1.749
33.1041 -0.189
33.1344 -0.504
33.1647 -0.298
33.1949 -0.247
33.2252 -0.561
33.2555 -0.470
33.2858 0.507
33.3160 -0.704
33.3463 -0.143
33.3766 -0.468
33.4069 -0.427
33.4372 1.072
33.4674 -0.241
33.4977 -0.511
33.5280 0.572
33.5583 0.771
33.5886 0.449
33.6188 2.003
33.6491 1.317
33.6794 2.142
33.7097 -0.209
33.7399 1.919
33.7702 1.078
33.8005 2.478
33.8308 3.148
33.8611 4.392
33.8913 4.022
33.9216 5.215
33.9519 5.210
33.9822 6.768
34.0125 8.587
34.0427 9.573
34.0730 13.580
34.1033 17.431
34.1336 19.147
34.1638 25.499
34.1941 30.757
34.2244 37.526
34.2547 49.088
34.2850 54.139
34.3152 52.992
34.3455 47.680
34.3758 46.586
34.4061 34.087
34.4364 28.723
34.4666 22.214
34.4969 17.737
34.5272 14.406
34.5575 12.012
34.5877 10.765
34.6180 8.320
34.6483 9.261
34.6786 6.401
34.7089 4.113
34.7391 4.951
34.7694 3.290
34.7997 3.764
34.8300 3.561
34.8603 3.463
34.8905 2.740
34.9208 1.966
34.9511 1.869
34.9814 3.179
35.0116 2.874
35.0419 2.153
35.0722 3.047
35.1025 3.109
35.1328 2.545
35.1630 3.076
35.1933 3.502
35.2236 3.461
35.2539 2.378
35.2842 4.160
35.3144 3.547
35.3447 4.548
35.3750 4.977
35.4053 4.573
35.4356 5.003
35.4658 6.058
35.4961 5.603
35.5264 6.399
35.5567 8.132
35.5869 7.991
35.6172 9.777
35.6475 13.334
35.6778 14.236
35.7081 15.450
35.7383 18.487
35.7686 18.973
35.7989 21.282
35.8292 25.467
35.8595 26.631
35.8897 31.754
35.9200 33.804
35.9503 41.584
35.9806 46.447
36.0108 52.978
36.0411 58.623
36.0714 59.217
36.1017 67.102
36.1320 70.614
36.1622 67.146
36.1925 67.741
36.2228 59.743
36.2531 53.985
36.2834 50.675
36.3136 46.375
36.3439 37.754
36.3742 35.851
36.4045 30.876
36.4347 24.755
36.4650 22.385
36.4953 18.192
36.5256 17.072
36.5559 14.235
36.5861 11.762
36.6164 9.654
36.6467 8.588
36.6770 8.303
36.7073 6.665
36.7375 6.694
36.7678 5.473
36.7981 5.138
36.8284 4.491
36.8586 3.844
36.8889 4.344
36.9192 3.437
36.9495 2.583
36.9798 2.719
37.0100 1.658
37.0403 1.846
37.0706 3.181
37.1009 2.329
37.1312 1.894
37.1614 2.084
37.1917 1.962
37.2220 0.070
37.2523 0.678
37.2825 1.443
37.3128 1.218
37.3431 -0.412
37.3734 0.405
37.4037 0.338
37.4339 0.011
37.4642 0.673
37.4945 0.347
37.5248 0.021
37.5551 0.216
37.5853 0.255
37.6156 -0.279
37.6459 0.595
37.6762 0.322
37.7064 0.519
37.7367 0.248
37.7670 0.497
37.7973 0.122
37.8276 -0.096
37.8578 0.051
37.8881 0.093
37.9184 0.084
37.9487 -0.445
37.9790 -0.044
38.0092 -0.371
38.0395 1.750
38.0698 -1.233
38.1001 -0.049
38.1304 0.511
38.1606 -0.856
38.1909 0.381
38.2212 0.473
38.2515 0.096
38.2817 0.189
38.3120 -0.551
38.3423 0.115
38.3726 0.157
38.4029 -0.374
38.4331 0.033
38.4634 0.336
38.4937 -0.402
38.5240 0.006
38.5543 0.258
38.5845 0.094
38.6148 0.399
38.6451 -0.650
38.6754 -0.349
38.7056 0.733
38.7359 0.410
38.7662 -0.903
38.7965 -0.132
38.8268 0.119
38.8570 -0.255
38.8873 -0.368
38.9176 0.267
38.9479 -0.400
38.9782 0.132
39.0084 -0.794
39.0387 0.259
39.0690 0.063
39.0993 -0.237
39.1295 0.140
39.1598 0.362
39.1901 0.063
39.2204 1.014
39.2507 0.820
39.2809 0.105
39.3112 0.120
39.3415 0.031
39.3718 0.099
39.4021 -0.093
39.4323 -0.129
39.4626 -0.008
39.4929 0.114
39.5232 -0.442
39.5534 -0.065
39.5837 -0.313
39.6140 0.586
39.6443 0.182
39.6746 -0.429
39.7048 0.679
39.7351 -0.400
39.7654 -0.229
39.7957 -0.162
39.8260 0.270
39.8562 0.182
39.8865 0.459
39.9168 -0.202
39.9471 -0.237
39.9773 0.458
40.0076 0.684
40.0379 0.233
40.0682 0.564
40.0985 -0.250
40.1287 0.186
40.1590 0.310
40.1893 0.173
40.2196 0.037
40.2499 -0.098
40.2801 -0.858
40.3104 0.128
40.3407 0.697
40.3710 0.018
40.4012 0.223
40.4315 0.117
40.4618 0.272
40.4921 0.427
40.5224 0.061
40.5526 0.217
40.5829 -0.096
40.6132 0.217
40.6435 0.009
40.6738 0.426
40.7040 0.428
40.7343 -0.196
40.7646 0.900
40.7949 0.069
40.8251 -0.033
40.8554 -0.238
40.8857 1.068
40.9160 0.238
40.9463 -0.643
40.9765 0.143
41.0068 -0.426
41.0371 0.153
41.0674 0.158
41.0977 -0.200
41.1279 0.379
41.1582 0.334
41.1885 0.184
41.2188 0.140
41.2491 0.148
41.2793 0.208
41.3096 0.060
41.3399 -0.295
41.3702 0.131
41.4004 0.453
41.4307 -0.214
41.4610 -0.308
41.4913 -0.201
41.5216 0.688
41.5518 0.119
41.5821 -0.033
41.6124 0.076
41.6427 0.029
41.6730 0.347
41.7032 0.561
41.7335 -0.319
41.7638 0.000
41.7941 1.309
41.8243 0.275
41.8546 0.491
41.8849 0.238
41.9152 -0.274
41.9455 -0.109
41.9757 0.160
42.0060 -0.299
42.0363 -0.299
42.0666 0.010
42.0969 0.268
42.1271 0.214
42.1574 0.160
42.1877 0.419
42.2180 0.262
42.2482 0.365
42.2785 0.625
42.3088 0.053
42.3391 -0.103
42.3694 0.522
42.3996 -0.101
42.4299 -0.412
42.4602 0.579
42.4905 0.113
42.5208 0.584
42.5510 0.326
42.5813 -0.087
42.6116 0.594
42.6419 -0.392
42.6721 -0.387
42.7024 0.763
42.7327 0.456
42.7630 0.201
42.7933 0.936
42.8235 0.370
42.8538 0.480
42.8841 0.175
42.9144 0.547
42.9447 0.503
42.9749 -0.062
43.0052 0.050
43.0355 0.320
43.0658 0.225
43.0960 0.651
43.1263 0.348
43.1566 0.150
43.1869 0.474
43.2172 0.068
43.2474 -0.285
43.2777 -0.093
43.3080 0.257
43.3383 0.346
43.3686 -0.242
43.3988 0.213
43.4291 0.616
43.4594 0.290
43.4897 0.277
43.5199 0.212
43.5502 -0.009
43.5805 0.604
43.6108 0.228
43.6411 0.217
43.6713 0.466
43.7016 0.873
43.7319 -0.231
43.7622 0.124
43.7925 0.114
43.8227 0.470
43.8530 0.096
43.8833 0.036
43.9136 0.341
43.9439 0.593
43.9741 -0.143
44.0044 -0.723
44.0347 0.729
44.0650 0.515
44.0952 0.248
44.1255 0.608
44.1558 0.238
44.1861 0.181
44.2164 -0.396
44.2466 0.121
44.2769 -0.091
44.3072 0.479
44.3375 0.476
44.3678 0.057
44.3980 -0.049
44.4283 -0.416
44.4586 0.095
44.4889 -0.280
44.5191 0.960
44.5494 0.690
44.5797 0.941
44.6100 0.828
44.6403 0.298
44.6705 -0.231
44.7008 0.022
44.7311 0.067
44.7614 0.476
44.7917 0.053
44.8219 0.099
44.8522 0.561
44.8825 -0.069
44.9128 -0.022
44.9430 0.285
44.9733 -0.032
45.0036 -0.557
45.0339 0.481
45.0642 0.061
45.0944 -0.150
45.1247 -0.101
45.1550 -0.624
45.1853 0.143
45.2156 0.442
45.2458 0.585
45.2761 -0.001
45.3064 0.351
45.3367 0.026
45.3669 0.274
45.3972 -0.362
45.4275 -0.165
45.4578 0.032
45.4881 -0.291
45.5183 -0.092
45.5486 -0.102
45.5789 -0.216
45.6092 1.234
45.6395 -0.598
45.6697 -0.033
45.7000 0.375
45.7303 0.107
45.7606 0.569
45.7908 0.093
45.8211 0.243
45.8514 0.081
45.8817 -0.342
45.9120 -0.045
45.9422 -0.321
45.9725 -0.232
46.0028 0.535
46.0331 0.468
46.0634 0.037
46.0936 0.180
46.1239 0.427
46.1542 -0.107
46.1845 0.402
46.2147 0.025
46.2450 0.534
46.2753 0.887
46.3056 -0.010
46.3359 0.344
46.3661 -0.135
46.3964 0.584
46.4267 0.470
46.4570 0.721
46.4873 0.869
46.5175 0.131
46.5478 0.539
46.5781 0.792
46.6084 0.628
46.6386 1.298
46.6689 0.667
46.6992 0.921
46.7295 0.863
46.7598 1.638
46.7900 0.696
46.8203 1.524
46.8506 1.155
46.8809 1.672
46.9112 2.397
46.9414 2.654
46.9717 2.234
47.0020 2.857
47.0323 3.479
47.0626 4.519
47.0928 3.892
47.1231 4.933
47.1534 7.276
47.1837 6.494
47.2139 7.900
47.2442 8.577
47.2745 9.151
47.3048 11.183
47.3351 11.810
47.3653 12.645
47.3956 12.438
47.4259 12.962
47.4562 12.392
47.4865 13.697
47.5167 12.867
47.5470 9.694
47.5773 9.125
47.6076 9.390
47.6378 7.624
47.6681 7.369
47.6984 7.219
47.7287 4.881
47.7590 4.575
47.7892 5.207
47.8195 3.652
47.8498 2.982
47.8801 2.834
47.9104 2.009
47.9406 1.549
47.9709 2.183
48.0012 1.047
48.0315 1.421
48.0617 1.223
48.0920 1.025
48.1223 0.671
48.1526 1.047
48.1829 0.694
48.2131 1.123
48.2434 0.666
48.2737 0.835
48.3040 0.588
48.3343 0.706
48.3645 0.563
48.3948 0.369
48.4251 -0.189
48.4554 0.503
48.4856 0.206
48.5159 0.325
48.5462 0.081
48.5765 0.149
48.6068 -0.094
48.6370 -0.338
48.6673 -0.282
48.6976 -0.330
48.7279 0.612
48.7582 -0.061
48.7884 0.101
48.8187 0.366
48.8490 -0.253
48.8793 0.274
48.9095 0.333
48.9398 -0.546
48.9701 0.243
49.0004 0.146
49.0307 -0.106
49.0609 -0.098
49.0912 0.275
49.1215 -0.236
49.1518 0.294
49.1821 -0.113
49.2123 -0.051
49.2426 -0.144
49.2729 -0.238
49.3032 -0.174
49.3334 0.254
49.3637 0.058
49.3940 0.278
49.4243 -0.178
49.4546 0.200
49.4848 0.318
49.5151 -0.189
49.5454 0.085
49.5757 -0.317
49.6060 -0.214
49.6362 -0.266
49.6665 0.463
49.6968 -0.318
49.7271 -0.266
49.7574 -0.317
49.7876 -0.109
49.8179 -0.004
49.8482 -0.264
49.8785 0.258
49.9087 -0.001
49.9390 0.053
49.9693 -0.049
49.9996 0.318
50.0299 -0.669
50.0601 0.741
50.0904 -0.766
50.1207 0.019
50.1510 0.440
50.1813 0.185
50.2115 -0.123
50.2418 0.143
50.2721 -0.111
50.3024 -0.001
50.3326 0.318
50.3629 -0.092
50.3932 0.489
50.4235 0.444
50.4538 0.348
50.4840 -0.269
50.5143 0.782
50.5446 0.374
50.5749 -0.033
50.6052 0.185
50.6354 0.612
50.6657 -0.263
50.6960 -0.304
50.7263 0.115
50.7565 0.274
50.7868 -0.452
50.8171 0.540
50.8474 0.752
50.8777 0.079
50.9079 0.188
50.9382 -0.797
50.9685 0.666
50.9988 0.724
51.0291 0.157
51.0593 -0.254
51.0896 0.586
51.1199 0.228
51.1502 -0.389
51.1804 -0.193
51.2107 0.525
51.2410 -0.423
51.2713 0.140
51.3016 0.546
51.3318 -0.192
51.3621 0.319
51.3924 0.050
51.4227 -0.271
51.4530 -0.279
51.4832 0.755
51.5135 0.226
51.5438 0.063
51.5741 0.265
51.6043 -0.158
51.6346 0.617
51.6649 -0.170
51.6952 -0.435
51.7255 0.341
51.7557 0.076
51.7860 0.280
51.8163 -0.192
51.8466 -0.196
51.8769 0.530
51.9071 0.215
51.9374 0.109
51.9677 -0.310
51.9980 0.262
52.0282 -0.312
52.0585 -0.263
52.0888 0.152
52.1191 -0.371
52.1494 -0.007
52.1796 0.252
52.2099 -0.061
52.2402 0.200
52.2705 -0.373
52.3008 0.773
52.3310 -0.424
52.3613 0.411
52.3916 -0.316
52.4219 0.519
52.4521 0.521
52.4824 0.107
52.5127 -0.202
52.5430 -0.094
52.5733 0.222
52.6035 -0.294
52.6338 -0.134
52.6641 0.288
52.6944 -0.332
52.7247 -0.013
52.7549 0.462
52.7852 0.103
52.8155 -0.098
52.8458 -0.143
52.8761 -0.135
52.9063 -0.805
52.9366 0.245
52.9669 -0.059
52.9972 0.055
53.0274 0.012
53.0577 -0.135
53.0880 0.553
53.1183 -0.114
53.1486 -0.416
53.1788 0.149
53.2091 -0.485
53.2394 0.028
53.2697 0.280
53.3000 0.429
53.3302 0.318
53.3605 0.468
53.3908 -0.164
53.4211 -0.222
53.4513 -0.175
53.4816 0.392
53.5119 0.700
53.5422 0.539
53.5725 0.639
53.6027 -0.302
53.6330 -0.305
53.6633 -0.308
53.6936 0.095
53.7239 0.290
53.7541 -0.139
53.7844 0.369
53.8147 -0.268
53.8450 0.294
53.8752 0.126
53.9055 -0.041
53.9358 -0.364
53.9661 0.147
53.9964 0.085
54.0266 -0.550
54.0569 0.222
54.0872 0.266
54.1175 0.205
54.1478 -0.219
54.1780 0.346
54.2083 0.495
54.2386 -0.501
54.2689 0.534
54.2991 -0.097
54.3294 -0.572
54.3597 0.138
54.3900 -0.557
54.4203 0.102
54.4505 0.397
54.4808 0.119
54.5111 0.154
54.5414 0.085
54.5717 -0.348
54.6019 0.314
54.6322 0.090
54.6625 -0.394
54.6928 0.008
54.7230 -0.111
54.7533 -0.021
54.7836 0.434
54.8139 -0.464
54.8442 0.616
54.8744 0.031
54.9047 0.123
54.9350 -0.045
54.9653 0.568
54.9956 0.401
55.0258 -0.287
55.0561 -0.349
55.0864 -0.054
55.1167 -0.280
55.1469 0.537
55.1772 0.677
55.2075 -0.069
55.2378 0.333
55.2681 0.526
55.2983 0.823
55.3286 0.027
55.3589 -0.143
55.3892 1.145
55.4195 0.715
55.4497 0.077
55.4800 0.741
55.5103 0.729
55.5406 1.030
55.5709 0.133
55.6011 1.319
55.6314 0.683
55.6617 1.298
55.6920 1.809
55.7222 1.434
55.7525 1.164
55.7828 2.249
55.8131 0.730
55.8434 2.545
55.8736 1.808
55.9039 2.633
55.9342 2.105
55.9645 2.515
55.9948 3.342
56.0250 4.430
56.0553 4.320
56.0856 6.033
56.1159 6.184
56.1461 6.857
56.1764 7.738
56.2067 8.047
56.2370 9.658
56.2673 9.759
56.2975 10.797
56.3278 11.837
56.3581 13.918
56.3884 16.052
56.4187 17.092
56.4489 17.820
56.4792 18.028
56.5095 17.715
56.5398 16.726
56.5700 15.216
56.6003 15.790
56.6306 11.728
56.6609 13.917
56.6912 11.680
56.7214 11.213
56.7517 8.820
56.7820 8.094
56.8123 6.952
56.8426 5.810
56.8728 5.553
56.9031 5.089
56.9334 4.678
56.9637 4.422
56.9939 3.386
57.0242 2.871
57.0545 2.617
57.0848 2.572
57.1151 3.308
57.1453 2.274
57.1756 2.490
57.2059 1.353
57.2362 1.309
57.2665 2.620
57.2967 1.327
57.3270 1.598
57.3573 0.305
57.3876 0.837
57.4178 0.795
57.4481 0.598
57.4784 1.078
57.5087 0.986
57.5390 1.103
57.5692 0.594
57.5995 -0.330
57.6298 0.621
57.6601 0.530
57.6904 -0.133
57.7206 -0.171
57.7509 0.157
57.7812 0.745
57.8115 -0.021
57.8417 0.255
57.8720 -0.353
57.9023 -0.345
57.9326 0.080
57.9629 0.609
57.9931 0.097
58.0234 -0.519
58.0537 -0.040
58.0840 0.439
58.1143 -0.280
58.1445 0.148
58.1748 -0.102
58.2051 -0.246
58.2354 0.391
58.2656 0.090
58.2959 -0.626
58.3262 0.376
58.3565 -0.391
58.3868 0.039
58.4170 -0.364
58.4473 0.006
58.4776 -0.509
58.5079 0.121
58.5382 0.127
58.5684 0.550
58.5987 -0.380
58.6290 0.200
58.6593 0.260
58.6896 -0.410
58.7198 -0.089
58.7501 0.337
58.7804 0.137
58.8107 -0.530
58.8409 0.104
58.8712 -0.198
58.9015 0.229
58.9318 -0.229
58.9621 -0.218
58.9923 0.054
59.0226 0.379
59.0529 -0.234
59.0832 -0.325
59.1135 0.156
59.1437 -0.039
59.1740 0.027
59.2043 -0.585
59.2346 0.211
59.2648 -0.295
59.2951 0.709
59.3254 0.100
59.3557 -0.197
59.3860 -0.337
59.4162 0.228
59.4465 -0.040
59.4768 -0.099
59.5071 0.259
59.5374 -0.529
59.5676 0.246
59.5979 -0.801
59.6282 -0.129
59.6585 0.283
59.6887 -0.347
59.7190 0.483
59.7493 -0.875
59.7796 -0.045
59.8099 -0.153
59.8401 -0.364
59.8704 0.205
59.9007 -0.216
59.9310 -0.323
59.9613 0.403
59.9915 -0.173
60.0218 0.345
60.0521 0.499
60.0824 0.289
60.1126 0.080
60.1429 -0.390
60.1732 0.963
60.2035 -0.026
60.2338 0.182
60.2640 -0.078
60.2943 -0.390
60.3246 0.116
60.3549 0.413
60.3852 0.086
60.4154 0.333
60.4457 0.267
60.4760 -0.007
60.5063 0.448
60.5365 0.540
60.5668 -0.358
60.5971 0.828
60.6274 0.295
60.6577 0.232
60.6879 -0.456
60.7182 0.679
60.7485 -0.008
60.7788 0.399
60.8091 0.129
60.8393 -0.037
60.8696 -0.254
60.8999 -0.575
60.9302 0.563
60.9604 0.399
60.9907 -0.962
61.0210 -0.136
61.0513 0.483
61.0816 0.425
61.1118 0.002
61.1421 0.257
61.1724 -0.269
61.2027 0.091
61.2330 0.035
61.2632 -0.074
61.2935 -0.390
61.3238 0.114
61.3541 -0.268
61.3844 -0.233
61.4146 -0.249
61.4449 0.516
61.4752 -0.646
61.5055 0.172
61.5357 -0.416
61.5660 -0.118
61.5963 -0.080
61.6266 0.114
61.6569 0.569
61.6871 0.191
61.7174 0.178
61.7477 0.791
61.7780 1.039
61.8083 0.714
61.8385 0.547
61.8688 1.421
61.8991 0.577
61.9294 0.879
61.9596 1.234
61.9899 1.588
62.0202 1.423
62.0505 0.997
62.0808 0.885
62.1110 1.189
62.1413 2.067
62.1716 2.111
62.2019 2.833
62.2322 2.410
62.2624 4.070
62.2927 3.127
62.3230 4.736
62.3533 3.637
62.3835 4.048
62.4138 5.919
62.4441 5.446
62.4744 6.432
62.5047 9.397
62.5349 7.780
62.5652 9.235
62.5955 10.379
62.6258 13.241
62.6561 11.261
62.6863 12.718
62.7166 12.352
62.7469 13.706
62.7772 12.612
62.8074 13.289
62.8377 14.540
62.8680 12.249
62.8983 10.792
62.9286 9.075
62.9588 7.879
62.9891 9.132
63.0194 9.239
63.0497 6.898
63.0800 6.433
63.1102 5.812
63.1405 5.035
63.1708 3.529
63.2011 3.274
63.2313 4.373
63.2616 2.452
63.2919 2.302
63.3222 2.568
63.3525 1.742
63.3827 2.010
63.4130 1.236
63.4433 1.504
63.4736 1.044
63.5039 0.948
63.5341 0.176
63.5644 1.071
63.5947 0.300
63.6250 0.778
63.6552 0.685
63.6855 0.748
63.7158 0.134
63.7461 0.146
63.7764 0.366
63.8066 0.430
63.8369 0.235
63.8672 -0.221
63.8975 -0.416
63.9278 0.268
63.9580 -0.402
63.9883 0.491
64.0186 0.030
64.0489 0.768
64.0791 -0.057
64.1094 -0.308
64.1397 -0.247
64.1700 0.440
64.2003 -0.019
64.2305 0.356
64.2608 0.471
64.2911 -0.663
64.3214 0.390
64.3517 0.506
64.3819 -0.055
64.4122 0.219
64.4425 0.388
64.4728 0.193
64.5031 0.050
64.5333 -0.196
64.5636 -0.494
64.5939 0.233
64.6242 -0.186
64.6544 -0.291
64.6847 -0.084
64.7150 0.280
64.7453 0.227
64.7756 -0.138
64.8058 0.383
64.8361 0.124
64.8664 0.020
64.8967 -0.239
64.9270 0.023
64.9572 -0.079
64.9875 -1.014
65.0178 0.239
65.0481 -0.226
65.0783 0.246
65.1086 -0.479
65.1389 0.150
65.1692 0.155
65.1995 0.576
65.2297 0.269
65.2600 0.067
65.2903 -0.032
65.3206 -0.390
65.3509 0.053
65.3811 0.287
65.4114 0.105
65.4417 0.131
65.4720 0.106
65.5022 0.550
65.5325 -0.151
65.5628 -0.071
65.5931 -0.147
65.6234 0.195
65.6536 -0.297
65.6839 -0.163
65.7142 0.596
65.7445 0.105
65.7748 -0.124
65.8050 -0.093
65.8353 -0.114
65.8656 -0.030
65.8959 0.158
65.9261 -0.017
65.9564 0.015
65.9867 0.882
66.0170 0.707
66.0473 0.793
66.0775 0.567
66.1078 0.810
66.1381 1.314
66.1684 1.402
66.1987 0.656
66.2289 1.682
66.2592 1.562
66.2895 0.610
66.3198 1.897
66.3500 1.466
66.3803 1.868
66.4106 0.553
66.4409 1.320
66.4712 1.360
66.5014 0.722
66.5317 0.866
66.5620 0.542
66.5923 0.218
66.6226 0.259
66.6528 0.092
66.6831 1.175
66.7134 0.748
66.7437 0.374
66.7739 0.156
66.8042 0.043
66.8345 0.295
66.8648 0.443
66.8951 0.539
66.9253 0.011
66.9556 0.733
66.9859 0.570
67.0162 1.085
67.0465 0.193
67.0767 0.552
67.1070 0.182
67.1373 0.542
67.1676 0.954
67.1978 0.585
67.2281 1.519
67.2584 1.463
67.2887 1.096
67.3190 1.822
67.3492 2.289
67.3795 2.547
67.4098 2.806
67.4401 3.273
67.4704 3.898
67.5006 3.637
67.5309 4.782
67.5612 4.626
67.5915 4.783
67.6218 7.024
67.6520 6.400
67.6823 6.766
67.7126 8.331
67.7429 6.354
67.7731 9.013
67.8034 9.329
67.8337 8.239
67.8640 9.493
67.8943 8.195
67.9245 8.408
67.9548 9.559
67.9851 7.168
68.0154 6.288
68.0457 7.649
68.0759 6.249
68.1062 5.995
68.1365 5.325
68.1668 4.968
68.1970 5.653
68.2273 3.839
68.2576 4.212
68.2879 2.450
68.3182 3.189
68.3484 2.678
68.3787 3.000
68.4090 2.490
68.4393 2.657
68.4696 2.304
68.4998 2.680
68.5301 2.484
68.5604 2.600
68.5907 2.196
68.6209 1.793
68.6512 2.014
68.6815 3.539
68.7118 1.417
68.7421 2.734
68.7723 2.749
68.8026 2.608
68.8329 3.978
68.8632 3.681
68.8935 4.687
68.9237 4.704
68.9540 4.252
68.9843 3.905
69.0146 4.183
69.0448 4.097
69.0751 3.387
69.1054 4.083
69.1357 4.258
69.1660 3.445
69.1962 3.100
69.2265 3.225
69.2568 1.631
69.2871 2.381
69.3174 2.194
69.3476 1.852
69.3779 0.468
69.4082 0.699
69.4385 0.513
69.4687 1.110
69.4990 1.133
69.5293 0.636
69.5596 0.400
69.5899 0.686
69.6201 0.815
69.6504 1.153
69.6807 0.658
69.7110 0.945
69.7413 -0.487
69.7715 -0.252
69.8018 -0.276
69.8321 0.324
69.8624 0.821
69.8926 0.693
69.9229 0.306
69.9532 0.022
69.9835 0.937
70.0138 0.967
70.0440 -0.096
70.0743 0.039
70.1046 0.174
70.1349 0.778
70.1652 -0.075
70.1954 -0.304
70.2257 0.065
70.2560 0.642
70.2863 0.074
70.3166 0.964
70.3468 0.605
70.3771 0.038
70.4074 0.096
70.4377 0.624
70.4679 -0.151
70.4982 -0.247
70.5285 -0.031
70.5588 -0.128
70.5891 0.037
70.6193 -0.267
70.6496 -0.258
70.6799 0.481
70.7102 -0.030
70.7405 1.126
70.7707 0.199
70.8010 0.262
70.8313 -0.299
70.8616 0.077
70.8918 0.453
70.9221 -0.211
70.9524 -0.511
70.9827 0.440
71.0130 -0.068
71.0432 0.415
71.0735 -0.039
71.1038 -0.337
71.1341 0.078
71.1644 0.547
71.1946 0.442
71.2249 -0.078
71.2552 0.027
71.2855 -0.129
71.3157 -0.232
71.3460 -0.178
71.3763 0.241
71.4066 -0.173
71.4369 0.142
71.4671 0.666
71.4974 0.149
71.5277 0.100
71.5580 0.053
71.5883 0.318
71.6185 0.166
71.6488 0.120
71.6791 0.542
71.7094 -0.025
71.7396 -0.279
71.7699 0.197
71.8002 0.048
71.8305 0.368
71.8608 0.063
71.8910 -0.137
71.9213 0.289
71.9516 0.454
71.9819 0.515
72.0122 0.369
72.0424 -0.402
72.0727 0.598
72.1030 -0.121
72.1333 -0.266
72.1635 -0.168
72.1938 0.607
72.2241 0.288
72.2544 -0.134
72.2847 0.329
72.3149 1.105
72.3452 0.632
72.3755 1.669
72.4058 0.207
72.4361 0.620
72.4663 0.826
72.4966 0.406
72.5269 1.550
72.5572 0.558
72.5874 0.452
72.6177 1.128
72.6480 0.554
72.6783 0.866
72.7086 0.606
72.7388 0.241
72.7691 0.658
72.7994 0.243
72.8297 0.452
72.8600 0.141
72.8902 0.247
72.9205 0.302
72.9508 -0.320
72.9811 -0.161
73.0113 0.467
73.0416 -0.362
73.0719 0.163
73.1022 0.116
73.1325 0.277
73.1627 0.230
73.1930 -0.181
73.2233 0.137
73.2536 -0.221
73.2839 0.099
73.3141 -0.259
73.3444 0.426
73.3747 0.017
73.4050 -0.235
73.4353 0.607
73.4655 -0.166
73.4958 -0.260
73.5261 -0.055
73.5564 0.047
73.5866 -0.059
73.6169 -0.269
73.6472 0.303
73.6775 -0.115
73.7078 0.510
73.7380 0.562
73.7683 0.302
73.7986 -0.322
73.8289 -0.009
73.8592 -0.164
73.8894 0.359
73.9197 0.153
73.9500 -0.105
73.9803 0.158
74.0105 -0.203
74.0408 -0.252
74.0711 0.481
74.1014 0.173
74.1317 -0.083
74.1619 -0.442
74.1922 0.397
74.2225 0.611
74.2528 0.409
74.2831 -0.002
74.3133 -0.255
74.3436 -0.050
74.3739 -0.210
74.4042 -0.212
74.4344 -0.371
74.4647 0.565
74.4950 0.355
74.5253 0.041
74.5556 -0.012
74.5858 -0.169
74.6161 0.508
74.6464 -0.013
74.6767 0.353
74.7070 0.249
74.7372 0.042
74.7675 0.304
74.7978 -0.371
74.8281 0.361
74.8583 -0.365
74.8886 0.263
74.9189 -0.255
74.9492 -0.147
74.9795 0.378
75.0097 0.175
75.0400 0.023
75.0703 -0.127
75.1006 -0.278
75.1309 0.301
75.1611 0.099
75.1914 0.158
75.2217 0.217
75.2520 -0.036
75.2822 0.285
75.3125 0.553
75.3428 -0.219
75.3731 -0.418
75.4034 0.320
75.4336 -0.087
75.4639 -0.545
75.4942 0.114
75.5245 0.462
75.5548 0.081
75.5850 0.065
75.6153 0.101
75.6456 0.138
75.6759 0.383
75.7061 0.004
75.7364 0.094
75.7667 -0.233
75.7970 0.066
75.8273 0.261
75.8575 0.248
75.8878 -0.441
75.9181 -0.192
75.9484 0.371
75.9787 0.412
76.0089 -0.118
76.0392 -0.075
76.0695 0.020
76.0998 -0.093
76.1301 0.055
76.1603 -0.109
76.1906 -0.013
76.2209 0.032
76.2512 0.129
76.2814 -0.138
76.3117 -0.092
76.3420 0.111
76.3723 0.001
76.4026 0.205
76.4328 0.096
76.4631 0.352
76.4934 0.452
76.5237 0.605
76.5540 0.550
76.5842 0.755
76.6145 0.440
76.6448 0.595
76.6751 1.010
76.7053 1.269
76.7356 0.955
76.7659 0.694
76.7962 1.371
76.8265 1.006
76.8567 0.694
76.8870 1.268
76.9173 0.540
76.9476 0.386
76.9779 1.325
77.0081 0.755
77.0384 1.174
77.0687 0.083
77.0990 1.232
77.1292 1.653
77.1595 0.407
77.1898 -0.005
77.2201 0.729
77.2504 0.891
77.2806 0.271
77.3109 0.590
77.3412 -0.029
77.3715 0.134
77.4018 0.245
77.4320 0.409
77.4623 -0.312
77.4926 -0.044
77.5229 0.798
77.5531 0.078
77.5834 -0.225
77.6137 0.409
77.6440 -0.049
77.6743 0.482
77.7045 -0.185
77.7348 0.556
77.7651 -0.370
77.7954 0.006
77.8257 -0.034
77.8559 0.031
77.8862 -0.216
77.9165 -0.255
77.9468 -0.001
77.9770 0.046
78.0073 0.405
78.0376 0.140
78.0679 0.761
78.0982 0.027
78.1284 0.128
78.1587 -0.553
78.1890 -0.035
78.2193 -0.090
78.2496 0.221
78.2798 0.375
78.3101 0.061
78.3404 0.320
78.3707 0.163
78.4009 0.579
78.4312 -0.046
78.4615 -0.202
78.4918 0.268
78.5221 0.165
78.5523 0.062
78.5826 0.272
78.6129 -0.351
78.6432 0.172
78.6735 -0.085
78.7037 0.126
78.7340 -0.339
78.7643 0.290
78.7946 -0.643
78.8248 0.091
78.8551 0.461
78.8854 0.154
78.9157 0.576
78.9460 0.061
78.9762 0.120
79.0065 0.439
79.0368 0.395
79.0671 0.350
79.0974 0.619
79.1276 0.106
79.1579 -0.250
79.1882 -0.143
79.2185 0.225
79.2488 0.176
79.2790 -0.237
79.3093 -0.076
79.3396 0.449
79.3699 0.142
79.4001 -0.113
79.4304 -0.160
79.4607 0.211
79.4910 0.270
79.5213 0.745
79.5515 0.231
79.5818 0.031
79.6121 0.039
79.6424 0.411
79.6727 -0.257
79.7029 -0.144
79.7332 -0.239
79.7635 0.172
79.7938 0.219
79.8240 0.318
79.8543 0.418
79.8846 -0.211
79.9149 0.150
79.9452 -0.010
79.9754 -0.274
80.0057 0.088
80.0360 -0.123
80.0663 0.240
80.0966 -0.178
80.1268 0.237
80.1571 -0.128
80.1874 0.132
80.2177 0.027
80.2479 -0.337
80.2782 0.016
80.3085 0.265
80.3388 0.255
80.3691 0.088
80.3993 0.130
80.4296 -0.036
80.4599 0.163
80.4902 0.050
80.5205 -0.011
80.5507 -0.331
80.5810 0.390
80.6113 0.331
80.6416 0.480
80.6718 0.161
80.7021 0.467
80.7324 -0.164
80.7627 -0.482
80.7930 0.762
80.8232 0.393
80.8535 -0.237
80.8838 -0.189
80.9141 0.068
80.9444 0.169
80.9746 0.009
81.0049 0.632
81.0352 0.161
81.0655 -0.102
81.0957 0.366
81.1260 0.416
81.1563 -0.053
81.1866 0.571
81.2169 0.207
81.2471 0.103
81.2774 0.312
81.3077 1.667
81.3380 0.106
81.3683 0.368
81.3985 0.057
81.4288 0.581
81.4591 0.115
81.4894 0.535
81.5196 0.642
81.5499 0.125
81.5802 0.755
81.6105 0.551
81.6408 0.139
81.6710 0.457
81.7013 0.099
81.7316 0.365
81.7619 -0.410
81.7922 0.274
81.8224 0.229
81.8527 -0.023
81.8830 0.245
81.9133 0.149
81.9436 -0.207
81.9738 -0.250
82.0041 -0.250
82.0344 0.218
82.0647 0.010
82.0949 0.270
82.1252 0.219
82.1555 -0.093
82.1858 0.013
82.2161 0.066
82.2463 -0.088
82.2766 -0.086
82.3069 0.021
82.3372 0.180
82.3675 0.392
82.3977 0.604
82.4280 0.140
82.4583 0.144
82.4886 0.149
82.5188 0.363
82.5491 0.316
82.5794 0.114
82.6097 -0.244
82.6400 -0.196
82.6702 0.321
82.7005 0.266
82.7308 0.003
82.7611 -0.052
82.7914 0.155
82.8216 -0.420
82.8519 0.100
82.8822 0.099
82.9125 -0.110
82.9427 0.619
82.9730 0.046
83.0033 -0.005
83.0336 0.204
83.0639 0.049
83.0941 0.259
83.1244 0.001
83.1547 -0.205
83.1850 0.162
83.2153 0.373
83.2455 -0.144
83.2758 0.172
83.3061 -0.292
83.3364 0.077
83.3666 0.447
83.3969 0.087
83.4272 0.406
83.4575 -0.213
83.4878 -0.624
83.5180 0.259
83.5483 0.308
83.5786 0.201
83.6089 -0.426
83.6392 0.041
83.6694 -0.168
83.6997 0.196
83.7300 0.091
83.7603 0.820
83.7905 0.299
83.8208 0.039
83.8511 0.144
83.8814 0.458
83.9117 -0.165
83.9419 -0.163
83.9722 -0.057
84.0025 -0.158
84.0328 -0.155
84.0631 -0.204
84.0933 -0.148
84.1236 0.377
84.1539 0.173
84.1842 0.230
84.2144 -0.285
84.2447 -0.179
84.2750 0.501
84.3053 -0.069
84.3356 0.194
84.3658 -0.114
84.3961 -0.058
84.4264 0.311
84.4567 0.367
84.4870 -0.148
84.5172 0.326
84.5475 0.227
84.5778 0.234
84.6081 0.032
84.6383 0.351
84.6686 -0.110
84.6989 -0.363
84.7292 0.156
84.7595 0.102
84.7897 -0.368
84.8200 0.203
84.8503 -0.006
84.8806 0.150
84.9109 0.515
84.9411 0.255
84.9714 0.568
85.0017 0.309
85.0320 0.571
85.0623 0.052
85.0925 0.367
85.1228 0.005
85.1531 -0.044
85.1834 0.792
85.2136 0.275
85.2439 -0.242
85.2742 0.179
85.3045 -0.076
85.3348 0.502
85.3650 0.768
85.3953 0.045
85.4256 -0.001
85.4559 0.005
85.4862 0.273
85.5164 0.176
85.5467 -0.285
85.5770 -0.141
85.6073 0.315
85.6375 0.147
85.6678 0.136
85.6981 0.281
85.7284 0.270
85.7587 0.364
85.7889 -0.063
85.8192 -0.072
85.8495 0.127
85.8798 0.014
85.9101 0.370
85.9403 -0.003
85.9706 0.250
86.0009 -0.122
86.0312 0.183
86.0614 0.437
86.0917 0.535
86.1220 0.112
86.1523 -0.050
86.1826 0.257
86.2128 -0.060
86.2431 0.352
86.2734 -0.121
86.3037 0.292
86.3340 0.080
86.3642 0.077
86.3945 0.179
86.4248 0.072
86.4551 0.435
86.4853 0.225
86.5156 -0.193
86.5459 0.275
86.5762 0.223
86.6065 0.327
86.6367 0.327
86.6670 0.015
86.6973 -0.244
86.7276 -0.410
86.7579 0.413
86.7881 -0.429
86.8184 0.395
86.8487 0.074
86.8790 0.222
86.9092 -0.515
86.9395 0.259
86.9698 -0.164
87.0001 -0.171
87.0304 -0.229
87.0606 0.129
87.0909 -0.137
87.1212 -0.090
87.1515 0.166
87.1818 -0.255
87.2120 -0.209
87.2423 0.149
87.2726 -0.169
87.3029 0.087
87.3331 0.082
87.3634 0.442
87.3937 0.126
87.4240 -0.763
87.4543 0.275
87.4845 0.168
87.5148 -0.251
87.5451 -0.097
87.5754 -0.099
87.6057 -0.153
87.6359 0.471
87.6662 -0.103
87.6965 -0.363
87.7268 0.152
87.7571 -0.375
87.7873 0.557
87.8176 0.084
87.8479 0.131
87.8782 0.179
87.9084 0.123
87.9387 -0.089
87.9690 -0.196
87.9993 0.009
88.0296 -0.201
88.0598 0.057
88.0901 0.264
88.1204 -0.102
88.1507 -0.311
88.1810 0.142
88.2112 0.023
88.2415 0.373
88.2718 -0.214
88.3021 -0.071
88.3323 -0.084
88.3626 -0.149
88.3929 0.255
88.4232 -0.070
88.4535 -0.030
88.4837 0.011
88.5140 -0.001
88.5443 -0.220
88.5746 0.551
88.6049 -0.240
88.6351 -0.146
88.6654 -0.363
88.6957 0.200
88.7260 0.659
88.7562 0.285
88.7865 0.276
88.8168 0.528
88.8471 0.155
88.8774 0.043
88.9076 0.400
88.9379 -0.232
88.9682 0.282
88.9985 0.276
89.0288 0.791
89.0590 0.681
89.0893 0.520
89.1196 0.463
89.1499 0.198
89.1801 1.496
89.2104 0.346
89.2407 0.447
89.2710 0.757
89.3013 0.702
89.3315 1.168
89.3618 0.854
89.3921 1.165
89.4224 2.310
89.4527 1.111
89.4829 2.204
89.5132 1.527
89.5435 1.840
89.5738 1.580
89.6040 1.737
89.6343 1.895
89.6646 1.167
89.6949 1.743
89.7252 1.901
89.7554 1.227
89.7857 1.230
89.8160 1.234
89.8463 1.342
89.8766 1.138
89.9068 0.674
89.9371 0.627
89.9674 0.789
89.9977 0.117
90.0279 0.853
90.0582 1.536
90.0885 -0.124
90.1188 0.561
90.1491 0.412
90.1793 0.212
90.2096 0.324
90.2399 0.698
90.2702 -0.491
90.3005 0.456
90.3307 0.049
90.3610 0.476
90.3913 0.330
90.4216 -0.492
90.4518 0.300
90.4821 -0.209
90.5124 0.584
90.5427 0.336
90.5730 0.245
90.6032 0.414
90.6335 -0.666
90.6638 0.025
90.6941 -0.221
90.7244 0.002
90.7546 0.225
90.7849 0.501
90.8152 0.256
90.8455 0.012
90.8758 0.184
90.9060 -0.372
90.9363 0.114
90.9666 -0.285
90.9969 -0.085
91.0271 0.325
91.0574 -0.047
91.0877 -0.002
91.1180 0.513
91.1483 0.455
91.1785 0.762
91.2088 0.288
91.2391 0.595
91.2694 0.174
91.2997 -0.194
91.3299 0.114
91.3602 0.163
91.3905 0.056
91.4208 0.314
91.4510 -0.574
91.4813 0.309
91.5116 0.777
91.5419 -0.006
91.5722 0.046
91.6024 0.045
91.6327 -0.059
91.6630 0.358
91.6933 -0.267
91.7236 -0.266
91.7538 0.091
91.7841 -0.281
91.8144 0.025
91.8447 -0.034
91.8749 -0.041
91.9052 0.058
91.9355 0.156
91.9658 -0.005
91.9961 -0.271
92.0263 -0.125
92.0566 0.385
92.0869 -0.042
92.1172 -0.104
92.1475 0.408
92.1777 0.347
92.2080 -0.339
92.2383 0.226
92.2686 -0.095
92.2988 0.054
92.3291 0.047
92.3594 0.873
92.3897 -0.071
92.4200 0.288
92.4502 0.959
92.4805 0.277
92.5108 0.115
92.5411 0.579
92.5714 0.367
92.6016 0.311
92.6319 0.359
92.6622 0.773
92.6925 0.718
92.7227 0.507
92.7530 0.661
92.7833 0.347
92.8136 0.658
92.8439 0.345
92.8741 0.240
92.9044 0.813
92.9347 0.605
92.9650 -0.072
92.9953 -0.123
93.0255 0.034
93.0558 0.348
93.0861 0.246
93.1164 0.197
93.1466 0.303
93.1769 0.098
93.2072 -0.055
93.2375 -0.520
93.2678 0.110
93.2980 0.166
93.3283 0.223
93.3586 -0.344
93.3889 0.078
93.4192 -0.280
93.4494 -0.077
93.4797 0.023
93.5100 -0.033
93.5403 0.327
93.5706 0.220
93.6008 -0.096
93.6311 -0.463
93.6614 0.160
93.6917 -0.207
93.7219 0.104
93.7522 -0.105
93.7825 -0.106
93.8128 0.258
93.8431 0.050
93.8733 -0.054
93.9036 -0.157
93.9339 0.156
93.9642 -0.311
93.9945 -0.110
94.0247 -0.376
94.0550 0.868
94.0853 0.290
94.1156 0.076
94.1458 -0.085
94.1761 0.015
94.2064 0.323
94.2367 0.528
94.2670 -0.048
94.2972 -0.363
94.3275 0.096
94.3578 0.138
94.3881 -0.183
94.4184 0.173
94.4486 0.269
94.4789 0.625
94.5092 0.618
94.5395 -0.223
94.5697 -0.073
94.6000 0.545
94.6303 -0.294
94.6606 0.221
94.6909 0.788
94.7211 0.106
94.7514 0.466
94.7817 0.514
94.8120 1.083
94.8423 0.871
94.8725 0.764
94.9028 1.230
94.9331 0.967
94.9634 1.278
94.9936 1.172
95.0239 0.910
95.0542 0.961
95.0845 1.742
95.1148 1.533
95.1450 1.638
95.1753 1.638
95.2056 0.962
95.2359 1.901
95.2662 2.006
95.2964 1.800
95.3267 1.438
95.3570 1.232
95.3873 1.444
95.4175 1.707
95.4478 1.399
95.4781 1.507
95.5084 0.366
95.5387 0.527
95.5689 1.209
95.5992 1.423
95.6295 1.638
95.6598 0.967
95.6901 1.547
95.7203 0.773
95.7506 0.624
95.7809 0.788
95.8112 0.588
95.8414 0.336
95.8717 0.553
95.9020 -0.115
95.9323 0.572
95.9626 0.947
95.9928 0.645
96.0231 -0.074
96.0534 0.146
96.0837 -0.311
96.1140 -0.101
96.1442 0.422
96.1745 0.165
96.2048 0.116
96.2351 -0.141
96.2653 -0.085
96.2956 0.232
96.3259 0.236
96.3562 -0.644
96.3865 -0.170
96.4167 0.461
96.4470 0.259
96.4773 -0.256
96.5076 -0.041
96.5379 0.435
96.5681 -0.078
96.5984 -0.070
96.6287 0.042
96.6590 -0.001
96.6893 -0.044
96.7195 -0.035
96.7498 -0.389
96.7801 0.084
96.8104 0.088
96.8406 -0.167
96.8709 -0.214
96.9012 -0.260
96.9315 -0.358
96.9618 0.794
96.9920 -0.345
97.0223 -0.702
97.0526 0.392
97.0829 0.132
97.1132 0.445
97.1434 0.603
97.1737 0.032
97.2040 0.502
97.2343 0.140
97.2645 0.143
97.2948 0.042
97.3251 0.253
97.3554 1.091
97.3857 0.105
97.4159 0.162
97.4462 0.219
97.4765 -0.088
97.5068 0.073
97.5371 -0.285
97.5673 -0.035
97.5976 0.267
97.6279 -0.368
97.6582 0.612
97.6884 0.135
97.7187 0.647
97.7490 0.482
97.7793 0.057
97.8096 -0.054
97.8398 0.355
97.8701 0.973
97.9004 -0.023
97.9307 0.336
97.9610 0.486
97.9912 0.272
98.0215 0.424
98.0518 0.575
98.0821 0.571
98.1123 0.463
98.1426 0.980
98.1729 0.821
98.2032 0.037
98.2335 -0.226
98.2637 0.188
98.2940 0.134
98.3243 0.289
98.3546 0.705
98.3849 0.652
98.4151 1.069
98.4454 1.017
98.4757 1.069
98.5060 0.914
98.5362 1.332
98.5665 0.917
98.5968 0.866
98.6271 0.660
98.6574 1.028
98.6876 1.343
98.7179 1.086
98.7482 0.673
98.7785 0.782
98.8088 0.265
98.8390 0.478
98.8693 0.900
98.8996 0.906
98.9299 0.808
98.9601 0.606
98.9904 0.144
99.0207 1.036
99.0510 0.158
99.0813 0.374
99.1115 0.487
99.1418 0.183
99.1721 0.400
99.2024 0.253
99.2327 0.315
99.2629 0.221
99.2932 0.283
99.3235 0.763
99.3538 -0.424
99.3841 -0.152
99.4143 0.328
99.4446 0.236
99.4749 -0.220
99.5052 -0.259
99.5354 0.261
99.5657 0.156
99.5960 0.051
99.6263 0.207
99.6566 0.468
99.6868 0.052
99.7171 0.522
99.7474 -0.206
99.7777 0.108
99.8080 0.006
99.8382 -0.200
99.8685 0.324
99.8988 0.171
99.9291 -0.190
99.9593 0.074
99.9896 0.131
100.0199 -0.177
100.0502 0.713
100.0805 0.302
100.1107 0.099
100.1410 0.314
100.1713 0.372
100.2016 0.067
100.2319 0.178
100.2621 0.394
100.2924 0.402
100.3227 0.463
100.3530 -0.102
100.3832 0.480
100.4135 0.438
100.4438 -0.073
100.4741 0.197
100.5044 0.364
100.5346 -0.042
100.5649 -0.239
100.5952 -0.239
100.6255 0.269
100.6558 -0.213
100.6860 -0.017
100.7163 0.283
100.7466 0.167
100.7769 0.676
100.8071 0.404
100.8374 -0.023
100.8677 0.018
100.8980 0.633
100.9283 0.102
100.9585 0.510
100.9888 0.240
101.0191 0.596
101.0494 -0.089
101.0797 0.320
101.1099 0.416
101.1402 -0.320
101.1705 0.038
101.2008 0.292
101.2310 -0.288
101.2613 0.071
101.2916 0.066
101.3219 0.478
101.3522 0.161
101.3824 -0.260
101.4127 -0.220
101.4430 -0.126
101.4733 0.436
101.5036 0.217
101.5338 -0.105
101.5641 0.302
101.5944 -0.593
101.6247 0.180
101.6549 -0.037
101.6852 -0.045
101.7155 -0.157
101.7458 -0.164
101.7761 0.402
101.8063 -0.490
101.8366 0.493
101.8669 -0.294
101.8972 -0.247
101.9275 -0.773
101.9577 0.733
101.9880 0.155
102.0183 -0.005
102.0486 -0.113
102.0788 0.196
102.1091 0.246
102.1394 0.243
102.1697 0.137
102.2000 -0.646
102.2302 0.446
102.2605 -0.284
102.2908 0.444
102.3211 -0.233
102.3514 -0.285
102.3816 0.269
102.4119 0.147
102.4422 0.182
102.4725 0.008
102.5028 0.148
102.5330 0.600
102.5633 0.584
102.5936 0.152
102.6239 0.553
102.6541 0.955
102.6844 -0.049
102.7147 0.978
102.7450 0.652
102.7753 1.003
102.8055 -0.052
102.8358 0.560
102.8661 0.392
102.8964 0.796
102.9267 0.159
102.9569 0.617
102.9872 0.033
103.0175 0.960
103.0478 0.116
103.0780 0.523
103.1083 0.566
103.1386 -0.068
103.1689 0.861
103.1992 0.279
103.2294 0.271
103.2597 -0.049
103.2900 0.152
103.3203 0.041
103.3506 -0.226
103.3808 0.081
103.4111 0.335
103.4414 0.121
103.4717 0.533
103.5019 0.528
103.5322 0.524
103.5625 0.051
103.5928 0.464
103.6231 0.149
103.6533 0.614
103.6836 0.924
103.7139 0.037
103.7442 1.441
103.7745 1.023
103.8047 0.970
103.8350 -0.072
103.8653 0.813
103.8956 1.386
103.9258 0.709
103.9561 0.606
103.9864 0.711
104.0167 1.077
104.0470 1.236
104.0772 0.613
104.1075 0.511
104.1378 0.827
104.1681 0.830
104.1984 1.042
104.2286 1.411
104.2589 0.686
104.2892 1.524
104.3195 0.488
104.3497 0.233
104.3800 0.291
104.4103 -0.328
104.4406 0.096
104.4709 0.624
104.5011 0.006
104.5314 1.264
104.5617 1.011
104.5920 0.291
104.6223 -0.117
104.6525 0.413
104.6828 0.944
104.7131 -0.296
104.7434 0.339
104.7736 -0.067
104.8039 0.309
104.8342 -0.045
104.8645 0.019
104.8948 -0.073
104.9250 -0.269
104.9553 -0.047
104.9856 -0.294
105.0159 0.136
105.0462 0.046
105.0764 -0.200
105.1067 -0.133
105.1370 0.298
105.1673 0.105
105.1975 0.121
105.2278 -0.279
105.2581 0.310
105.2884 -0.246
105.3187 -0.280
105.3489 -0.221
105.3792 -0.057
105.4095 0.264
105.4398 -0.353
105.4701 0.229
105.5003 0.082
105.5306 0.457
105.5609 0.415
105.5912 -0.148
105.6215 -0.137
105.6517 -0.022
105.6820 -0.271
105.7123 -0.271
105.7426 -0.119
105.7728 0.242
105.8031 0.343
105.8334 0.131
105.8637 -0.028
105.8940 -0.082
105.9242 0.020
105.9545 -0.034
105.9848 -0.243
106.0151 -0.244
106.0454 0.328
106.0756 0.120
106.1059 -0.245
106.1362 -0.400
106.1665 0.330
106.1967 0.227
106.2270 0.072
106.2573 0.335
106.2876 0.285
106.3179 -0.285
106.3481 -0.238
106.3784 0.071
106.4087 0.327
106.4390 0.324
106.4693 -0.252
106.4995 -0.098
106.5298 0.056
106.5601 -0.259
106.5904 -0.052
106.6206 -0.261
106.6509 0.363
106.6812 -0.158
106.7115 0.414
106.7418 -0.262
106.7720 0.155
106.8023 -0.052
106.8326 -0.363
106.8629 0.102
106.8932 0.411
106.9234 -0.216
106.9537 -0.271
106.9840 0.561
107.0143 0.299
107.0445 -0.223
107.0748 -0.016
107.1051 -0.069
107.1354 0.608
107.1657 0.088
107.1959 -0.068
107.2262 -0.692
107.2565 0.351
107.2868 -0.272
107.3171 0.251
107.3473 0.097
107.3776 -0.421
107.4079 0.467
107.4382 0.210
107.4684 0.787
107.4987 -0.198
107.5290 -0.610
107.5593 0.489
107.5896 0.181
107.6198 0.187
107.6501 -0.223
107.6804 0.512
107.7107 -0.158
107.7410 0.058
107.7712 -0.195
107.8015 -0.187
107.8318 -0.127
107.8621 0.038
107.8923 -0.266
107.9226 -0.264
107.9529 -0.002
107.9832 0.052
108.0135 0.054
108.0437 -0.151
108.0740 -0.044
108.1043 0.272
108.1346 -0.141
108.1649 -0.085
108.1951 -0.184
108.2254 0.810
108.2557 0.242
108.2860 0.404
108.3163 -0.215
108.3465 -0.260
108.3768 0.000
108.4071 0.156
108.4374 -0.156
108.4676 -0.363
108.4979 0.207
108.5282 -0.159
108.5585 -0.056
108.5888 -0.109
108.6190 -0.110
108.6493 0.306
108.6796 -0.163
108.7099 0.723
108.7402 -0.266
108.7704 -0.213
108.8007 0.101
108.8310 0.051
108.8613 -0.311
108.8915 -0.009
108.9218 0.033
108.9521 0.179
108.9824 0.117
109.0127 -0.100
109.0429 -0.109
109.0732 -0.013
109.1035 -0.073
109.1338 0.440
109.1641 -0.609
109.1943 0.009
109.2246 -0.102
109.2549 -0.108
109.2852 -0.166
109.3154 0.245
109.3457 -0.124
109.3760 -0.389
109.4063 0.173
109.4366 0.370
109.4668 -0.161
109.4971 0.454
109.5274 0.601
109.5577 0.019
109.5880 -0.198
109.6182 0.783
109.6485 -0.162
109.6788 -0.587
109.7091 0.396
109.7393 0.128
109.7696 -0.451
109.7999 0.064
109.8302 0.422
109.8605 0.677
109.8907 -0.474
109.9210 0.199
109.9513 -0.535
109.9816 0.607
110.0119 0.031
110.0421 0.184
110.0724 0.493
110.1027 0.387
110.1330 0.593
110.1632 1.008
110.1935 0.798
110.2238 0.380
110.2541 0.171
110.2844 0.692
110.3146 0.431
110.3449 0.275
110.3752 0.120
110.4055 0.590
110.4358 0.435
110.4660 -0.240
110.4963 0.752
110.5266 0.807
110.5569 0.393
110.5871 1.021
110.6174 0.139
110.6477 0.300
110.6780 0.408
110.7083 0.257
110.7385 0.002
110.7688 -0.149
110.7991 0.795
110.8294 -0.397
110.8597 0.391
110.8899 0.085
110.9202 -0.220
110.9505 0.517
110.9808 0.056
111.0110 -0.300
111.0413 0.855
111.0716 0.448
111.1019 0.249
111.1322 0.051
111.1624 -0.043
111.1927 0.176
111.2230 0.447
111.2533 -0.062
111.2836 0.366
111.3138 0.014
111.3441 0.235
111.3744 0.039
111.4047 0.469
111.4350 0.066
111.4652 -0.076
111.4955 -0.218
111.5258 0.317
111.5561 -0.032
111.5863 -0.121
111.6166 0.416
111.6469 0.015
111.6772 -0.437
111.7075 0.622
111.7377 0.327
111.7680 0.240
111.7983 -0.002
111.8286 -0.244
111.8589 0.010
111.8891 0.368
111.9194 -0.002
111.9497 0.618
111.9800 0.301
112.0102 0.505
112.0405 -0.125
112.0708 0.288
112.1011 0.129
112.1314 -0.447
112.1616 0.071
112.1919 0.173
112.2222 -0.090
112.2525 0.169
112.2828 0.324
112.3130 -0.510
112.3433 -0.250
112.3736 -0.202
112.4039 0.210
112.4341 0.050
112.4644 0.358
112.4947 0.563
112.5250 0.352
112.5553 -0.223
112.5855 0.243
112.6158 0.033
112.6461 0.396
112.6764 -0.334
112.7067 0.238
112.7369 -0.335
112.7672 0.498
112.7975 0.134
112.8278 0.083
112.8580 -0.281
112.8883 0.346
112.9186 -0.382
112.9489 -0.119
112.9792 0.404
113.0094 -0.426
113.0397 -0.162
113.0700 0.518
113.1003 0.054
113.1306 0.319
113.1608 0.428
113.1911 0.381
113.2214 0.230
113.2517 -0.337
113.2819 -0.190
113.3122 0.166
113.3425 0.262
113.3728 0.306
113.4031 0.820
113.4333 0.344
113.4636 0.233
113.4939 0.018
113.5242 0.377
113.5545 0.006
113.5847 -0.207
113.6150 -0.160
113.6453 0.616
113.6756 0.039
113.7058 0.088
113.7361 0.032
113.7664 0.237
113.7967 0.078
113.8270 0.024
113.8572 0.230
113.8875 0.228
113.9178 -0.242
113.9481 -0.086
113.9784 -0.087
114.0086 0.382
114.0389 0.330
114.0692 -0.034
114.0995 -0.085
114.1298 0.489
114.1600 0.178
114.1903 -0.184
114.2206 0.026
114.2509 -0.023
114.2811 0.449
114.3114 -0.068
114.3417 0.196
114.3720 -0.060
114.4023 0.048
114.4325 -0.415
114.4628 -0.020
114.4931 0.167
114.5234 0.146
114.5537 -0.031
114.5839 0.157
114.6142 -0.123
114.6445 -0.142
114.6748 0.463
114.7050 0.861
114.7353 -0.303
114.7656 -0.164
114.7959 0.860
114.8262 0.113
114.8564 -0.164
114.8867 0.184
114.9170 0.585
114.9473 -0.317
114.9776 0.345
115.0078 0.747
115.0381 0.419
115.0684 0.301
115.0987 -0.078
115.1289 -0.039
115.1592 -0.208
115.1895 0.247
115.2198 -0.130
115.2501 -0.090
115.2803 0.576
115.3106 0.096
115.3409 0.918
115.3712 0.595
115.4015 -0.093
115.4317 0.470
115.4620 0.357
115.4923 -0.173
115.5226 0.235
115.5528 0.955
115.5831 0.166
115.6134 0.523
115.6437 0.568
115.6740 0.717
115.7042 0.658
115.7345 0.183
115.7648 0.334
115.7951 0.484
115.8254 1.365
115.8556 0.943
115.8859 0.522
115.9162 1.351
115.9465 1.504
115.9767 0.824
116.0070 1.394
116.0373 0.974
116.0676 0.399
116.0979 0.554
116.1281 0.709
116.1584 0.655
116.1887 0.863
116.2190 1.383
116.2493 1.123
116.2795 1.332
116.3098 0.603
116.3401 0.917
116.3704 0.762
116.4006 0.139
116.4309 0.454
116.4612 1.081
116.4915 0.772
116.5218 2.129
116.5520 1.560
116.5823 1.251
116.6126 0.995
116.6429 0.844
116.6732 0.641
116.7034 0.594
116.7337 0.704
116.7640 0.242
116.7943 0.196
116.8245 0.672
116.8548 0.002
116.8851 0.791
116.9154 1.060
116.9457 0.808
116.9759 0.243
117.0062 0.617
117.0365 0.418
117.0668 0.585
117.0971 0.647
117.1273 0.397
117.1576 0.512
117.1879 -0.101
117.2182 0.640
117.2485 0.287
117.2787 1.237
117.3090 0.052
117.3393 -0.143
117.3696 0.495
117.3998 0.509
117.4301 0.107
117.4604 0.590
117.4907 0.085
117.5210 -0.213
117.5512 0.220
117.5815 -0.024
117.6118 0.253
117.6421 0.322
117.6724 0.026
117.7026 0.148
117.7329 0.322
117.7632 -0.389
117.7935 0.099
117.8237 0.170
117.8540 0.450
117.8843 0.470
117.9146 -0.031
117.9449 0.875
117.9751 0.167
118.0054 -0.229
118.0357 -0.311
118.0660 0.260
118.0963 0.622
118.1265 -0.108
118.1568 -0.110
118.1871 0.098
118.2174 0.202
118.2476 0.150
118.2779 0.150
118.3082 0.255
118.3385 0.569
118.3688 -0.263
118.3990 0.259
118.4293 -0.364
118.4596 0.368
118.4899 -0.202
118.5202 -0.042
118.5504 -0.195
118.5807 0.851
118.6110 0.126
118.6413 0.547
118.6715 0.657
118.7018 -0.380
118.7321 0.251
118.7624 -0.107
118.7927 0.160
118.8229 -0.250
118.8532 -0.255
118.8835 0.313
118.9138 -0.212
118.9441 0.721
118.9743 -0.168
119.0046 0.141
119.0349 0.711
119.0652 0.709
119.0954 0.186
119.1257 0.444
119.1560 0.026
119.1863 -0.183
119.2166 0.441
119.2468 -0.237
119.2771 0.128
119.3074 -0.236
119.3377 -0.027
119.3680 0.078
119.3982 -0.441
119.4285 -0.035
119.4588 0.058
119.4891 0.101
119.5193 -0.065
119.5496 0.134
119.5799 0.073
119.6102 -0.352
119.6405 0.264
119.6707 -0.212
119.7010 0.041
119.7313 0.190
119.7616 0.652
119.7919 -0.187
119.8221 0.327
119.8524 -0.147
119.8827 0.056
119.9130 -0.261
119.9433 -0.266
119.9735 0.258
120.0038 0.000
