'Id: "" Comment: "" Operator: "Lab Manager" Anode: "Cu" Scantype: "Locked Coupled" TimePerStep: "19.2" X: "9999" Y: "9999" Z: "9999" 
10.0015 0.000
10.0318 -0.417
10.0620 -0.396
10.0923 0.614
10.1226 0.323
10.1529 0.136
10.1832 -0.468
10.2134 -0.157
10.2437 0.467
10.2740 0.049
10.3043 -0.004
10.3346 0.152
10.3648 0.516
10.3951 0.724
10.4254 0.412
10.4557 0.152
10.4859 0.205
10.5162 0.622
10.5465 -0.523
10.5768 -0.261
10.6071 0.938
10.6373 0.419
10.6676 0.213
10.6979 0.579
10.7282 0.061
10.7585 0.324
10.7887 -0.142
10.8190 0.017
10.8493 1.687
10.8796 -0.341
10.9098 0.080
10.9401 0.344
10.9704 -0.537
11.0007 -0.012
11.0310 0.201
11.0612 -0.524
11.0915 0.575
11.1218 0.476
11.1521 -0.456
11.1824 -0.033
11.2126 0.546
11.2429 -0.594
11.2732 0.714
11.3035 0.461
11.3337 0.259
11.3640 0.214
11.3943 0.638
11.4246 -0.188
11.4549 0.184
11.4851 -0.328
11.5154 0.253
11.5457 -0.468
11.5760 -0.147
11.6063 0.070
11.6365 -0.181
11.6668 1.234
11.6971 0.463
11.7274 0.629
11.7577 0.535
11.7879 0.701
11.8182 1.232
11.8485 0.305
11.8788 -0.621
11.9090 0.275
11.9393 0.026
11.9696 -0.066
11.9999 0.518
12.0302 -0.095
12.0604 1.845
12.0907 -0.435
12.1210 0.047
12.1513 0.529
12.1816 0.646
12.2118 0.138
12.2421 -0.525
12.2724 0.947
12.3027 -0.029
12.3329 0.350
12.3632 0.625
12.3935 0.327
12.4238 0.134
12.4541 -0.216
12.4843 0.477
12.5146 -0.445
12.5449 0.092
12.5752 0.160
12.6055 0.384
12.6357 0.453
12.6660 -0.520
12.6963 -0.421
12.7266 0.928
12.7568 0.558
12.7871 0.501
12.8174 0.340
12.8477 0.180
12.8780 0.436
12.9082 -0.037
12.9385 -0.041
12.9688 0.477
12.9991 0.421
13.0294 0.210
13.0596 0.624
13.0899 -0.316
13.1202 0.098
13.1505 0.408
13.1807 -0.479
13.2110 -0.064
13.2413 0.455
13.2716 0.090
13.3019 -0.641
13.3321 0.661
13.3624 0.087
13.3927 0.087
13.4230 0.243
13.4533 0.035
13.4835 -0.538
13.5138 1.286
13.5441 0.349
13.5744 0.298
13.6046 -0.222
13.6349 0.196
13.6652 0.875
13.6955 -0.425
13.7258 -0.006
13.7560 0.569
13.7863 0.728
13.8166 0.678
13.8469 -0.673
13.8772 -0.357
13.9074 0.368
13.9377 0.365
13.9680 -0.003
13.9983 -0.006
14.0285 -0.112
14.0588 -0.115
14.0891 -0.117
14.1194 0.610
14.1497 -0.590
14.1799 0.554
14.2102 -0.072
14.2405 -0.021
14.2708 0.291
14.3011 0.446
14.3313 0.446
14.3616 0.497
14.3919 -0.180
14.4222 0.602
14.4524 0.081
14.4827 0.134
14.5130 0.135
14.5433 -0.801
14.5736 0.294
14.6038 0.191
14.6341 -0.484
14.6644 0.091
14.6947 0.197
14.7250 -0.009
14.7552 -0.631
14.7855 0.153
14.8158 0.416
14.8461 0.055
14.8764 -0.150
14.9066 -0.042
14.9369 0.119
14.9672 0.435
14.9975 0.440
15.0277 0.393
15.0580 -0.384
15.0883 0.194
15.1186 0.512
15.1489 0.570
15.1791 0.107
15.2094 0.686
15.2397 0.380
15.2700 0.074
15.3003 -0.180
15.3305 -0.017
15.3608 0.042
15.3911 0.206
15.4214 0.422
15.4516 0.273
15.4819 0.021
15.5122 -0.439
15.5425 0.246
15.5728 -0.058
15.6030 0.420
15.6333 -0.248
15.6636 0.439
15.6939 0.553
15.7242 -0.688
15.7544 0.052
15.7847 0.010
15.8150 0.437
15.8453 0.760
15.8755 0.250
15.9058 0.210
15.9361 0.586
15.9664 0.441
15.9967 0.974
16.0269 0.569
16.0572 0.321
16.0875 0.802
16.1178 0.190
16.1481 0.047
16.1783 0.425
16.2086 0.594
16.2389 -0.329
16.2692 -0.650
16.2994 1.062
16.3297 -0.196
16.3600 1.151
16.3903 0.676
16.4206 0.617
16.4508 0.663
16.4811 0.032
16.5114 0.182
16.5417 0.333
16.5720 -0.194
16.6022 -0.043
16.6325 -0.152
16.6628 1.145
16.6931 0.672
16.7233 0.824
16.7536 0.976
16.7839 0.659
16.8142 1.020
16.8445 0.704
16.8747 1.326
16.9050 0.334
16.9353 1.425
16.9656 0.537
16.9959 0.013
17.0261 0.324
17.0564 0.061
17.0867 0.789
17.1170 1.048
17.1472 0.265
17.1775 0.056
17.2078 0.159
17.2381 0.211
17.2684 -0.310
17.2986 0.731
17.3289 0.159
17.3592 0.524
17.3895 -0.205
17.4198 0.317
17.4500 0.838
17.4803 -0.098
17.5106 0.372
17.5409 -0.407
17.5712 0.272
17.6014 -0.299
17.6317 0.537
17.6620 -0.815
17.6923 0.438
17.7225 0.493
17.7528 0.080
17.7831 0.396
17.8134 0.347
17.8437 -0.378
17.8739 0.199
17.9042 -0.265
17.9345 -0.052
17.9648 0.474
17.9951 -0.042
18.0253 0.640
18.0556 0.021
18.0859 -0.286
18.1162 -0.384
18.1464 0.664
18.1767 0.774
18.2070 -0.157
18.2373 0.111
18.2676 0.691
18.2978 0.594
18.3281 -0.336
18.3584 -0.224
18.3887 -0.008
18.4190 0.261
18.4492 0.998
18.4795 1.215
18.5098 0.026
18.5401 0.764
18.5703 0.826
18.6006 0.888
18.6309 0.481
18.6612 0.491
18.6915 0.970
18.7217 -0.374
18.7520 0.574
18.7823 0.741
18.8126 -0.133
18.8429 0.712
18.8731 0.775
18.9034 0.631
18.9337 1.372
18.9640 0.291
18.9942 0.511
19.0245 0.524
19.0548 0.225
19.0851 0.290
19.1154 0.251
19.1456 0.525
19.1759 1.997
19.2062 0.032
19.2365 -0.110
19.2668 -0.304
19.2970 -0.054
19.3273 0.405
19.3576 0.343
19.3879 0.438
19.4181 0.168
19.4484 0.419
19.4787 0.202
19.5090 0.193
19.5393 0.237
19.5695 0.281
19.5998 -0.405
19.6301 0.213
19.6604 0.622
19.6907 1.031
19.7209 -0.591
19.7512 0.027
19.7815 0.541
19.8118 0.587
19.8420 0.685
19.8723 0.419
19.9026 -0.369
19.9329 0.459
19.9632 0.037
19.9934 0.709
20.0237 -0.233
20.0540 1.429
20.0843 -0.242
20.1146 0.066
20.1448 -0.303
20.1751 0.214
20.2054 0.159
20.2357 0.051
20.2659 -0.212
20.2962 1.087
20.3265 0.095
20.3568 0.092
20.3871 -0.379
20.4173 1.182
20.4476 0.190
20.4779 0.606
20.5082 -0.073
20.5385 0.551
20.5687 0.134
20.5990 -0.284
20.6293 -0.024
20.6596 0.497
20.6899 -0.076
20.7201 0.810
20.7504 -0.075
20.7807 0.707
20.8110 0.551
20.8412 0.240
20.8715 0.502
20.9018 0.035
20.9321 -0.015
20.9624 -0.170
20.9926 0.041
21.0229 0.929
21.0532 0.775
21.0835 0.414
21.1138 0.000
21.1440 -0.153
21.1743 -0.045
21.2046 0.688
21.2349 0.276
21.2651 0.072
21.2954 0.597
21.3257 0.498
21.3560 0.034
21.3863 -0.221
21.4165 0.305
21.4468 0.154
21.4771 0.368
21.5074 -0.146
21.5377 0.798
21.5679 0.700
21.5982 -0.179
21.6285 0.245
21.6588 0.200
21.6890 0.208
21.7193 -0.097
21.7496 -0.141
21.7799 0.023
21.8102 0.292
21.8404 -0.168
21.8707 0.153
21.9010 0.631
21.9313 -0.194
21.9616 0.649
21.9918 0.503
22.0221 0.304
22.0524 0.992
22.0827 -0.509
22.1129 0.544
22.1432 0.450
22.1735 0.149
22.2038 0.056
22.2341 -0.141
22.2643 -0.442
22.2946 0.176
22.3249 0.012
22.3552 0.317
22.3855 -0.523
22.4157 0.356
22.4460 0.089
22.4763 -0.022
22.5066 0.232
22.5368 -0.034
22.5671 -0.144
22.5974 0.840
22.6277 0.210
22.6580 0.570
22.6882 0.565
22.7185 -0.012
22.7488 0.140
22.7791 0.396
22.8094 -0.702
22.8396 -0.237
22.8699 -0.032
22.9002 -0.243
22.9305 0.014
22.9607 -0.093
22.9910 -0.408
23.0213 0.163
23.0516 0.734
23.0819 0.211
23.1121 -0.676
23.1424 -0.157
23.1727 0.987
23.2030 -0.212
23.2333 0.203
23.2635 -0.110
23.2938 0.670
23.3241 0.410
23.3544 0.045
23.3846 0.097
23.4149 0.201
23.4452 0.722
23.4755 0.515
23.5058 0.307
23.5360 0.048
23.5663 -0.211
23.5966 -0.418
23.6269 0.573
23.6572 -0.623
23.6874 -0.308
23.7177 0.264
23.7480 0.369
23.7783 0.108
23.8086 -0.308
23.8388 -0.574
23.8691 0.670
23.8994 -0.325
23.9297 -0.122
23.9599 0.706
23.9902 0.701
24.0205 -0.449
24.0508 -0.037
24.0811 0.949
24.1113 -0.201
24.1416 -0.205
24.1719 -0.312
24.2022 0.046
24.2325 0.405
24.2627 -0.069
24.2930 -0.178
24.3233 0.338
24.3536 0.177
24.3838 -0.453
24.4141 1.002
24.4444 0.581
24.4747 -0.360
24.5050 0.209
24.5352 -0.159
24.5655 -0.266
24.5958 0.825
24.6261 0.301
24.6564 0.768
24.6866 0.088
24.7169 -0.278
24.7472 1.022
24.7775 -0.386
24.8077 -0.179
24.8380 -0.180
24.8683 -0.129
24.8986 -0.390
24.9289 0.704
24.9591 0.443
24.9894 0.391
25.0197 0.495
25.0500 0.444
25.0803 0.080
25.1105 0.446
25.1408 0.030
25.1711 0.969
25.2014 0.033
25.2316 -0.069
25.2619 -0.276
25.2922 -0.065
25.3225 1.031
25.3528 -0.424
25.3830 0.047
25.4133 0.103
25.4436 0.106
25.4739 0.058
25.5042 0.582
25.5344 0.066
25.5647 -0.451
25.5950 0.179
25.6253 -0.337
25.6555 -0.139
25.6858 0.008
25.7161 0.676
25.7464 -0.010
25.7767 0.502
25.8069 0.963
25.8372 0.069
25.8675 -0.199
25.8978 -0.416
25.9281 0.254
25.9583 0.559
25.9886 0.447
26.0189 0.231
26.0492 0.537
26.0794 -0.251
26.1097 0.211
26.1400 0.309
26.1703 0.564
26.2006 -0.067
26.2308 0.136
26.2611 -0.234
26.2914 0.750
26.3217 0.328
26.3520 -0.510
26.3822 -0.254
26.4125 0.055
26.4428 0.363
26.4731 -0.005
26.5034 -0.217
26.5336 0.821
26.5639 -0.588
26.5942 0.294
26.6245 0.552
26.6547 0.081
26.6850 0.183
26.7153 0.181
26.7456 0.439
26.7759 -0.291
26.8061 0.437
26.8364 -0.346
26.8667 -0.190
26.8970 0.434
26.9273 0.798
26.9575 0.277
26.9878 0.277
27.0181 1.267
27.0484 0.017
27.0786 0.278
27.1089 -0.346
27.1392 0.072
27.1695 0.334
27.1998 0.075
27.2300 -0.340
27.2603 0.444
27.2906 -0.023
27.3209 -1.062
27.3512 0.191
27.3814 1.131
27.4117 -0.845
27.4420 0.877
27.4723 0.152
27.5025 0.728
27.5328 0.316
27.5631 -0.357
27.5934 0.429
27.6237 0.225
27.6539 -0.134
27.6842 -0.338
27.7145 0.171
27.7448 0.680
27.7751 0.095
27.8053 1.021
27.8356 -0.031
27.8659 -0.147
27.8962 0.520
27.9264 0.301
27.9567 0.551
27.9870 0.020
28.0173 0.635
28.0476 0.209
28.0778 -0.270
28.1081 0.346
28.1384 0.910
28.1687 -0.088
28.1990 0.112
28.2292 0.468
28.2595 0.251
28.2898 0.921
28.3201 0.652
28.3503 0.020
28.3806 0.273
28.4109 0.006
28.4412 1.249
28.4715 0.618
28.5017 0.247
28.5320 -0.072
28.5623 -0.130
28.5926 -0.344
28.6229 0.953
28.6531 0.583
28.6834 -0.203
28.7137 0.938
28.7440 0.465
28.7742 0.148
28.8045 -0.012
28.8348 -0.120
28.8651 1.074
28.8954 -0.336
28.9256 0.755
28.9559 0.596
28.9862 0.541
29.0165 -0.035
29.0468 -0.349
29.0770 -0.071
29.1073 -0.054
29.1376 0.121
29.1679 -0.278
29.1981 0.470
29.2284 0.228
29.2587 -0.222
29.2890 0.005
29.3193 0.650
29.3495 0.669
29.3798 0.168
29.4101 0.449
29.4404 0.052
29.4707 0.593
29.5009 -0.011
29.5312 0.218
29.5615 0.865
29.5918 0.105
29.6221 0.335
29.6523 -0.165
29.6826 0.430
29.7129 0.973
29.7432 0.215
29.7734 0.654
29.8037 0.573
29.8340 0.700
29.8643 -0.527
29.8946 0.330
29.9248 0.771
29.9551 0.430
29.9854 0.142
30.0157 0.010
30.0460 0.504
30.0762 0.685
30.1065 0.710
30.1368 0.944
30.1671 0.709
30.1973 0.006
30.2276 -0.229
30.2579 1.256
30.2882 0.449
30.3185 0.997
30.3487 0.763
30.3790 0.582
30.4093 1.130
30.4396 0.220
30.4699 0.717
30.5001 1.266
30.5304 1.346
30.5607 1.635
30.5910 1.143
30.6212 1.797
30.6515 1.410
30.6818 0.918
30.7121 2.979
30.7424 3.478
30.7726 3.664
30.8029 2.861
30.8332 2.579
30.8635 3.912
30.8938 3.631
30.9240 3.297
30.9543 4.318
30.9846 6.173
31.0149 5.267
31.0451 4.883
31.0754 5.071
31.1057 5.677
31.1360 9.199
31.1663 7.722
31.1965 6.818
31.2268 10.966
31.2571 10.531
31.2874 11.762
31.3177 12.838
31.3479 17.143
31.3782 16.970
31.4085 19.400
31.4388 26.310
31.4690 27.596
31.4993 31.121
31.5296 34.490
31.5599 35.567
31.5902 37.426
31.6204 37.515
31.6507 39.999
31.6810 38.213
31.7113 37.157
31.7416 32.819
31.7718 29.679
31.8021 24.926
31.8324 21.838
31.8627 19.325
31.8929 17.801
31.9232 14.662
31.9535 15.534
31.9838 12.240
32.0141 11.081
32.0443 9.767
32.0746 7.515
32.1049 6.982
32.1352 6.970
32.1655 4.771
32.1957 3.457
32.2260 4.227
32.2563 5.050
32.2866 2.227
32.3169 4.716
32.3471 2.674
32.3774 2.821
32.4077 2.394
32.4380 2.541
32.4682 2.010
32.4985 1.220
32.5288 1.367
32.5591 0.004
32.5894 0.986
32.6196 0.977
32.6499 0.188
32.6802 0.753
32.7105 0.173
32.7408 0.009
32.7710 0.679
32.8013 -0.005
32.8316 0.613
32.8619 0.971
32.8921 -0.129
32.9224 0.907
32.9527 0.536
32.9830 -0.407
33.0133 0.213
33.0435 -0.417
33.0738 -0.110
33.1041 1.136
33.1344 -0.119
33.1647 0.033
33.1949 0.602
33.2252 0.025
33.2555 0.543
33.2858 -0.502
33.3160 -0.766
33.3463 0.741
33.3766 0.894
33.4069 -0.463
33.4372 0.368
33.4674 1.251
33.4977 1.405
33.5280 0.205
33.5583 0.307
33.5886 0.618
33.6188 1.086
33.6491 1.293
33.6794 1.553
33.7097 1.656
33.7399 2.802
33.7702 0.510
33.8005 1.812
33.8308 3.271
33.8611 3.948
33.8913 4.626
33.9216 5.408
33.9519 5.670
33.9822 8.536
34.0125 7.287
34.0427 11.195
34.0730 12.343
34.1033 13.439
34.1336 17.765
34.1638 23.757
34.1941 28.968
34.2244 34.232
34.2547 44.027
34.2850 48.510
34.3152 46.795
34.3455 46.330
34.3758 35.501
34.4061 31.756
34.4364 25.771
34.4666 20.776
34.4969 14.844
34.5272 12.193
34.5575 11.782
34.5877 9.757
34.6180 8.669
34.6483 6.071
34.6786 6.547
34.7089 6.345
34.7391 4.008
34.7694 4.641
34.7997 3.867
34.8300 5.177
34.8603 2.528
34.8905 2.536
34.9208 2.961
34.9511 4.220
34.9814 3.604
35.0116 2.467
35.0419 2.789
35.0722 3.423
35.1025 3.850
35.1328 2.349
35.1630 3.401
35.1933 4.036
35.2236 4.464
35.2539 4.162
35.2842 4.538
35.3144 5.643
35.3447 6.696
35.3750 6.031
35.4053 6.720
35.4356 5.846
35.4658 5.286
35.4961 5.611
35.5264 9.322
35.5567 9.283
35.5869 9.296
35.6172 11.966
35.6475 11.563
35.6778 13.817
35.7081 14.768
35.7383 18.272
35.7686 19.433
35.7989 20.437
35.8292 25.765
35.8595 28.645
35.8897 29.910
35.9200 31.957
35.9503 35.567
35.9806 43.917
36.0108 48.881
36.0411 49.158
36.0714 54.435
36.1017 57.265
36.1320 57.230
36.1622 55.529
36.1925 55.182
36.2228 54.263
36.2531 49.594
36.2834 46.018
36.3136 37.756
36.3439 35.639
36.3742 30.815
36.4045 24.428
36.4347 21.583
36.4650 18.061
36.4953 17.248
36.5256 16.018
36.5559 14.684
36.5861 12.361
36.6164 11.861
36.6467 7.403
36.6770 7.841
36.7073 7.655
36.7375 6.791
36.7678 5.667
36.7981 6.471
36.8284 4.618
36.8586 3.443
36.8889 3.675
36.9192 2.812
36.9495 3.461
36.9798 4.266
37.0100 2.675
37.0403 3.845
37.0706 3.192
37.1009 2.852
37.1312 1.679
37.1614 2.121
37.1917 1.469
37.2220 1.077
37.2523 1.572
37.2825 0.973
37.3128 1.207
37.3431 1.077
37.3734 2.302
37.4037 1.131
37.4339 1.314
37.4642 0.351
37.4945 0.483
37.5248 -0.531
37.5551 0.643
37.5853 0.463
37.6156 0.595
37.6459 1.457
37.6762 0.236
37.7064 0.629
37.7367 0.971
37.7670 0.167
37.7973 0.978
37.8276 0.123
37.8578 0.205
37.8881 0.183
37.9184 0.214
37.9487 0.245
37.9790 0.849
38.0092 0.047
38.0395 0.026
38.0698 0.631
38.1001 0.246
38.1304 -0.086
38.1606 0.102
38.1909 1.281
38.2212 0.480
38.2515 -0.476
38.2817 0.286
38.3120 0.111
38.3423 0.458
38.3726 -0.394
38.4029 0.630
38.4331 0.196
38.4634 -0.030
38.4937 0.630
38.5240 -0.221
38.5543 -0.342
38.5845 0.145
38.6148 -0.253
38.6451 -0.078
38.6754 0.357
38.7056 0.012
38.7359 -0.333
38.7662 -0.216
38.7965 0.996
38.8268 0.542
38.8570 -0.225
38.8873 -0.314
38.9176 -0.247
38.9479 0.393
38.9782 0.148
39.0084 0.424
39.0387 -0.498
39.0690 -0.169
39.0993 0.160
39.1295 0.697
39.1598 0.505
39.1901 0.158
39.2204 0.279
39.2507 0.661
39.2809 0.418
39.3112 0.228
39.3415 0.350
39.3718 0.212
39.4021 0.335
39.4323 0.718
39.4626 0.112
39.4929 -0.390
39.5232 -0.077
39.5534 0.392
39.5837 -0.180
39.6140 0.394
39.6443 0.395
39.6746 -0.020
39.7048 -0.487
39.7351 0.608
39.7654 -0.484
39.7957 0.925
39.8260 -0.062
39.8562 0.357
39.8865 -0.525
39.9168 0.363
39.9471 -0.206
39.9773 0.110
40.0076 0.113
40.0379 -0.299
40.0682 -0.351
40.0985 0.639
40.1287 0.222
40.1590 0.223
40.1893 0.380
40.2196 0.382
40.2499 0.175
40.2801 -0.188
40.3104 0.439
40.3407 -0.393
40.3710 -0.026
40.4012 0.393
40.4315 -0.385
40.4618 0.660
40.4921 -0.275
40.5224 -0.063
40.5526 0.253
40.5829 -0.003
40.6132 0.105
40.6435 0.266
40.6738 0.270
40.7040 0.327
40.7343 0.072
40.7646 -0.132
40.7949 -0.022
40.8251 0.348
40.8554 -0.323
40.8857 0.100
40.9160 -0.102
40.9463 0.009
40.9765 -0.193
41.0068 -0.290
41.0371 -0.135
41.0674 -0.032
41.0977 0.071
41.1279 -0.034
41.1582 -0.243
41.1885 -0.087
41.2188 0.642
41.2491 0.433
41.2793 0.486
41.3096 0.382
41.3399 -0.607
41.3702 -0.033
41.4004 0.177
41.4307 -0.187
41.4610 -0.445
41.4913 0.338
41.5216 -0.442
41.5518 -0.283
41.5821 -0.021
41.6124 0.294
41.6427 -0.068
41.6730 -0.117
41.7032 0.095
41.7335 -0.058
41.7638 -0.107
41.7941 -0.624
41.8243 0.154
41.8546 0.098
41.8849 0.146
41.9152 0.039
41.9455 -0.120
41.9757 0.085
42.0060 0.031
42.0363 0.028
42.0666 -0.234
42.0969 -0.184
42.1271 0.335
42.1574 0.126
42.1877 0.072
42.2180 0.176
42.2482 -0.034
42.2785 0.591
42.3088 -0.347
42.3391 0.122
42.3694 0.226
42.3996 -0.034
42.4299 -0.242
42.4602 -0.189
42.4905 0.281
42.5208 0.178
42.5510 -0.081
42.5813 -0.079
42.6116 -0.337
42.6419 0.130
42.6721 -0.237
42.7024 0.127
42.7327 0.178
42.7630 -0.656
42.7933 0.124
42.8235 0.228
42.8538 -0.241
42.8841 -0.137
42.9144 -0.032
42.9447 -0.240
42.9749 -0.239
43.0052 -0.082
43.0355 -0.237
43.0658 0.024
43.0960 0.130
43.1263 -0.389
43.1566 0.186
43.1869 0.241
43.2172 -0.278
43.2474 -0.171
43.2777 -0.012
43.3080 -0.009
43.3383 -0.266
43.3686 0.259
43.3988 -0.102
43.4291 -0.098
43.4594 -0.093
43.4897 0.015
43.5199 -0.345
43.5502 0.077
43.5805 0.759
43.6108 0.140
43.6411 0.198
43.6713 -0.005
43.7016 -0.468
43.7319 0.057
43.7622 0.322
43.7925 -0.038
43.8227 0.643
43.8530 -0.029
43.8833 -0.180
43.9136 0.033
43.9439 0.039
43.9741 0.253
44.0044 0.103
44.0347 -0.047
44.0650 0.063
44.0952 0.018
44.1255 0.389
44.1558 0.448
44.1861 0.039
44.2164 0.099
44.2466 -0.050
44.2769 -0.146
44.3072 0.122
44.3375 0.287
44.3678 0.556
44.3980 -0.477
44.4283 -0.311
44.4586 0.520
44.4889 0.310
44.5191 0.412
44.5494 0.046
44.5797 0.617
44.6100 0.200
44.6403 0.667
44.6705 0.042
44.7008 0.146
44.7311 0.458
44.7614 0.041
44.7917 -0.115
44.8219 -0.271
44.8522 -0.024
44.8825 0.275
44.9128 0.158
44.9430 0.250
44.9733 0.602
45.0036 0.485
45.0339 0.369
45.0642 0.148
45.0944 -0.072
45.1247 0.959
45.1550 0.270
45.1853 0.207
45.2156 0.925
45.2458 0.238
45.2761 0.123
45.3064 0.530
45.3367 -0.418
45.3669 0.093
45.3972 -0.228
45.4275 -0.081
45.4578 0.691
45.4881 -0.568
45.5183 0.465
45.5486 -0.325
45.5789 -0.228
45.6092 -0.288
45.6395 0.173
45.6697 -0.408
45.7000 0.679
45.7303 0.099
45.7606 0.457
45.7908 0.242
45.8211 -0.389
45.8514 -0.191
45.8817 0.684
45.9120 0.831
45.9422 1.186
45.9725 0.552
46.0028 0.855
46.0331 0.170
46.0634 0.161
46.0936 -0.108
46.1239 0.353
46.1542 0.033
46.1845 -0.235
46.2147 0.174
46.2450 -0.042
46.2753 -0.361
46.3056 0.726
46.3359 1.136
46.3661 0.817
46.3964 0.186
46.4267 0.024
46.4570 1.425
46.4873 0.586
46.5175 0.946
46.5478 0.628
46.5781 0.780
46.6084 0.932
46.6386 0.459
46.6689 0.663
46.6992 1.336
46.7295 1.593
46.7598 1.329
46.7900 2.055
46.8203 2.000
46.8506 1.581
46.8809 2.724
46.9112 2.149
46.9414 3.033
46.9717 2.771
47.0020 3.342
47.0323 4.382
47.0626 4.694
47.0928 4.172
47.1231 5.109
47.1534 6.410
47.1837 4.900
47.2139 7.139
47.2442 7.296
47.2745 9.276
47.3048 8.651
47.3351 8.808
47.3653 10.112
47.3956 11.415
47.4259 10.948
47.4562 11.106
47.4865 10.275
47.5167 10.225
47.5470 10.332
47.5773 7.886
47.6076 7.993
47.6378 7.163
47.6681 5.604
47.6984 4.827
47.7287 4.622
47.7590 4.730
47.7892 3.641
47.8195 2.500
47.8498 2.921
47.8801 2.197
47.9104 1.629
47.9406 1.843
47.9709 1.380
48.0012 1.438
48.0315 0.558
48.0617 1.502
48.0920 0.936
48.1223 2.036
48.1526 0.845
48.1829 0.957
48.2131 0.495
48.2434 0.295
48.2737 0.927
48.3040 0.206
48.3343 0.319
48.3645 0.536
48.3948 0.024
48.4251 -0.019
48.4554 -0.218
48.4856 0.260
48.5159 0.322
48.5462 0.592
48.5765 0.237
48.6068 0.352
48.6370 -0.419
48.6673 0.321
48.6976 0.280
48.7279 0.500
48.7582 0.511
48.7884 0.262
48.8187 -0.403
48.8490 -0.182
48.8793 -0.170
48.9095 -0.105
48.9398 0.324
48.9701 -0.131
49.0004 0.194
49.0307 -0.105
49.0609 -0.091
49.0912 -0.285
49.1215 0.132
49.1518 -0.127
49.1821 0.239
49.2123 0.501
49.2426 -0.174
49.2729 -0.016
49.3032 0.143
49.3334 -0.219
49.3637 0.304
49.3940 0.411
49.4243 -0.054
49.4546 0.418
49.4848 0.630
49.5151 0.165
49.5454 -0.195
49.5757 -0.035
49.6060 0.334
49.6362 0.548
49.6665 -0.333
49.6968 -0.276
49.7271 0.349
49.7574 0.401
49.7876 0.140
49.8179 0.453
49.8482 0.088
49.8785 -0.015
49.9087 -0.119
49.9390 -0.222
49.9693 0.196
49.9996 0.249
50.0299 0.095
50.0601 -0.060
50.0904 0.255
50.1207 -0.055
50.1510 0.104
50.1813 0.263
50.2115 -0.151
50.2418 0.321
50.2721 -0.040
50.3024 0.276
50.3326 0.072
50.3629 0.388
50.3932 0.705
50.4235 0.293
50.4538 0.298
50.4840 0.251
50.5143 -0.056
50.5446 0.262
50.5749 0.163
50.6052 0.429
50.6354 0.227
50.6657 0.077
50.6960 -0.385
50.7263 0.143
50.7565 0.462
50.7868 0.313
50.8171 0.738
50.8474 0.120
50.8777 -0.184
50.9079 0.397
50.9382 -0.272
50.9685 0.101
50.9988 0.475
51.0291 0.484
51.0593 0.441
51.0896 0.086
51.1199 0.408
51.1502 0.470
51.1804 -0.040
51.2107 0.595
51.2410 0.189
51.2713 -0.061
51.3016 -0.049
51.3318 -0.038
51.3621 0.078
51.3924 0.194
51.4227 0.153
51.4530 0.426
51.4832 0.647
51.5135 0.295
51.5438 0.620
51.5741 -0.148
51.6043 -0.239
51.6346 -0.147
51.6649 -0.002
51.6952 0.246
51.7255 0.026
51.7557 0.484
51.7860 0.577
51.8163 0.514
51.8466 0.087
51.8769 0.753
51.9071 0.275
51.9374 1.202
51.9677 0.099
51.9980 0.089
52.0282 0.705
52.0585 0.592
52.0888 -0.355
52.1191 -0.259
52.1494 0.409
52.1796 -0.016
52.2099 0.705
52.2402 0.541
52.2705 0.168
52.3008 -0.048
52.3310 0.153
52.3613 0.146
52.3916 0.348
52.4219 0.185
52.4521 0.230
52.4824 0.016
52.5127 0.531
52.5430 0.056
52.5733 -0.210
52.6035 0.618
52.6338 0.249
52.6641 0.139
52.6944 0.083
52.7247 0.235
52.7549 0.387
52.7852 0.122
52.8155 0.535
52.8458 0.063
52.8761 0.060
52.9063 0.317
52.9366 -0.207
52.9669 -0.314
52.9972 0.882
53.0274 0.463
53.0577 -0.476
53.0880 0.511
53.1183 0.354
53.1486 0.352
53.1788 0.508
53.2091 -0.118
53.2394 0.454
53.2697 0.506
53.3000 0.193
53.3302 0.141
53.3605 0.506
53.3908 0.142
53.4211 0.351
53.4513 -0.429
53.4816 -0.012
53.5119 -0.271
53.5422 -0.167
53.5725 0.041
53.6027 0.301
53.6330 0.509
53.6633 0.249
53.6936 -0.219
53.7239 -0.271
53.7541 0.080
53.7844 0.483
53.8147 0.105
53.8450 0.509
53.8752 0.131
53.9055 0.535
53.9358 0.210
53.9661 0.354
53.9964 0.029
54.0266 0.018
54.0569 0.058
54.0872 -0.214
54.1175 0.400
54.1478 0.754
54.1780 0.483
54.2083 0.368
54.2386 0.201
54.2689 0.295
54.2991 0.234
54.3294 0.589
54.3597 -0.150
54.3900 0.049
54.4203 -0.324
54.4505 0.448
54.4808 0.388
54.5111 -0.193
54.5414 -0.306
54.5717 0.572
54.6019 -0.217
54.6322 0.401
54.6625 0.185
54.6928 -0.238
54.7230 0.016
54.7533 0.061
54.7836 0.159
54.8139 0.049
54.8442 -0.113
54.8744 0.298
54.9047 -0.176
54.9350 -0.337
54.9653 0.226
54.9956 1.155
55.0258 0.678
55.0561 0.200
55.0864 -0.016
55.1167 0.288
55.1469 0.437
55.1772 1.158
55.2075 0.109
55.2378 0.779
55.2681 0.929
55.2983 -0.067
55.3286 0.187
55.3589 1.066
55.3892 0.851
55.4195 0.637
55.4497 0.996
55.4800 0.627
55.5103 1.038
55.5406 0.773
55.5709 2.174
55.6011 1.389
55.6314 0.864
55.6617 1.016
55.6920 1.898
55.7222 1.582
55.7525 1.474
55.7828 1.784
55.8131 2.198
55.8434 2.455
55.8736 1.672
55.9039 2.815
55.9342 3.595
55.9645 3.853
55.9948 4.425
56.0250 4.736
56.0553 4.475
56.0856 4.526
56.1159 5.932
56.1461 6.973
56.1764 7.494
56.2067 8.327
56.2370 7.494
56.2673 9.109
56.2975 8.902
56.3278 9.267
56.3581 10.987
56.3884 12.864
56.4187 14.584
56.4489 14.846
56.4792 15.578
56.5095 13.080
56.5398 14.697
56.5700 14.231
56.6003 13.036
56.6306 12.258
56.6609 9.970
56.6912 8.411
56.7214 8.415
56.7517 6.180
56.7820 6.861
56.8123 5.980
56.8426 6.037
56.8728 4.167
56.9031 4.276
56.9334 3.449
56.9637 3.975
56.9939 2.887
57.0242 3.102
57.0545 2.639
57.0848 2.073
57.1151 1.924
57.1453 1.931
57.1756 2.198
57.2059 1.737
57.2362 2.109
57.2665 2.065
57.2967 0.146
57.3270 1.249
57.3573 1.205
57.3876 0.693
57.4178 1.171
57.4481 1.180
57.4784 0.356
57.5087 0.887
57.5390 0.689
57.5692 1.428
57.5995 0.136
57.6298 0.199
57.6601 0.262
57.6904 0.534
57.7206 0.389
57.7509 0.244
57.7812 0.412
57.8115 -0.045
57.8417 0.644
57.8720 0.292
57.9023 0.045
57.9326 0.578
57.9629 0.539
57.9931 0.396
58.0234 -0.111
58.0537 0.372
58.0840 0.594
58.1143 0.556
58.1445 0.362
58.1748 0.221
58.2051 -0.285
58.2354 -0.186
58.2656 -0.398
58.2959 0.639
58.3262 -0.094
58.3565 0.267
58.3868 -0.049
58.4170 0.417
58.4473 -0.107
58.4776 -0.162
58.5079 0.617
58.5382 0.406
58.5684 -0.116
58.5987 1.028
58.6290 0.193
58.6593 0.139
58.6896 0.555
58.7198 0.189
58.7501 -0.072
58.7804 -0.229
58.8107 -0.125
58.8409 0.396
58.8712 0.032
58.9015 -0.280
58.9318 -0.076
58.9621 -0.080
58.9923 -0.083
59.0226 -0.035
59.0529 0.119
59.0832 -0.093
59.1135 0.269
59.1437 -0.098
59.1740 0.161
59.2043 0.159
59.2346 0.261
59.2648 0.260
59.2951 0.154
59.3254 0.361
59.3557 0.413
59.3860 0.204
59.4162 0.308
59.4465 0.151
59.4768 -0.005
59.5071 0.047
59.5374 -0.213
59.5676 0.465
59.5979 0.675
59.6282 0.103
59.6585 -0.052
59.6887 0.314
59.7190 -0.257
59.7493 0.058
59.7796 0.320
59.8099 0.115
59.8401 0.065
59.8704 -0.452
59.9007 0.124
59.9310 0.856
59.9613 -0.234
59.9915 0.447
60.0218 0.347
60.0521 -0.065
60.0824 0.408
60.1126 -0.108
60.1429 -0.468
60.1732 0.150
60.2035 0.455
60.2338 0.240
60.2640 -0.339
60.2943 0.279
60.3246 0.065
60.3549 -0.098
60.3852 0.053
60.4154 0.047
60.4457 0.146
60.4760 0.297
60.5063 -0.072
60.5365 -0.337
60.5668 0.115
60.5971 0.099
60.6274 -0.177
60.6577 0.276
60.6879 0.209
60.7182 0.298
60.7485 -0.029
60.7788 -0.044
60.8091 -0.527
60.8393 0.344
60.8696 1.060
60.8999 0.317
60.9302 0.303
60.9604 0.186
60.9907 0.277
61.0210 0.108
61.0513 -0.321
61.0816 0.031
61.1118 0.592
61.1421 0.528
61.1724 -0.057
61.2027 0.088
61.2330 0.337
61.2632 0.326
61.2935 -0.466
61.3238 -0.112
61.3541 0.451
61.3844 -0.445
61.4146 -0.194
61.4449 0.473
61.4752 0.412
61.5055 -0.066
61.5357 0.550
61.5660 0.958
61.5963 0.585
61.6266 0.264
61.6569 -0.369
61.6871 0.560
61.7174 0.501
61.7477 0.702
61.7780 0.070
61.8083 0.219
61.8385 0.785
61.8688 0.935
61.8991 0.356
61.9294 0.558
61.9596 0.917
61.9899 0.651
62.0202 0.906
62.0505 2.098
62.0808 1.520
62.1110 1.985
62.1413 1.095
62.1716 2.028
62.2019 2.024
62.2322 2.176
62.2624 3.058
62.2927 2.951
62.3230 3.677
62.3533 3.205
62.3835 6.327
62.4138 3.616
62.4441 4.187
62.4744 5.331
62.5047 6.683
62.5349 8.661
62.5652 7.982
62.5955 8.606
62.6258 8.658
62.6561 9.959
62.6863 10.896
62.7166 11.260
62.7469 11.833
62.7772 10.792
62.8074 12.615
62.8377 11.626
62.8680 10.377
62.8983 9.493
62.9286 8.817
62.9588 7.829
62.9891 7.519
63.0194 6.583
63.0497 6.169
63.0800 5.025
63.1102 3.518
63.1405 4.093
63.1708 2.742
63.2011 3.423
63.2313 2.541
63.2616 2.441
63.2919 2.393
63.3222 1.147
63.3525 1.829
63.3827 1.833
63.4130 1.109
63.4433 1.531
63.4736 1.484
63.5039 0.240
63.5341 0.819
63.5644 0.877
63.5947 0.258
63.6250 0.212
63.6552 0.948
63.6855 -0.034
63.7158 1.171
63.7461 0.605
63.7764 0.353
63.8066 0.204
63.8369 0.577
63.8672 0.794
63.8975 0.229
63.9278 0.290
63.9580 -0.014
63.9883 -0.317
64.0186 -0.050
64.0489 -0.303
64.0791 -0.035
64.1094 0.025
64.1397 -0.436
64.1700 0.197
64.2003 0.309
64.2305 -0.255
64.2608 -0.090
64.2911 -0.134
64.3214 0.136
64.3517 0.249
64.3819 0.051
64.4122 -0.304
64.4425 0.643
64.4728 -0.388
64.5031 0.039
64.5333 -0.158
64.5636 -0.304
64.5939 0.111
64.6242 -0.411
64.6544 0.316
64.6847 -0.206
64.7150 0.158
64.7453 -0.312
64.7756 -0.052
64.8058 0.677
64.8361 0.260
64.8664 -0.052
64.8967 0.104
64.9270 0.365
64.9572 0.106
64.9875 0.055
65.0178 0.004
65.0481 0.109
65.0783 -0.045
65.1086 -0.304
65.1389 -0.252
65.1692 0.372
65.1995 -0.565
65.2297 -0.200
65.2600 -0.148
65.2903 -0.304
65.3206 -0.164
65.3509 -0.233
65.3811 0.272
65.4114 0.308
65.4417 -0.280
65.4720 -0.244
65.5022 -0.103
65.5325 -0.170
65.5628 -0.341
65.5931 0.738
65.6234 -0.109
65.6536 0.293
65.6839 -0.085
65.7142 -0.047
65.7445 0.044
65.7748 0.968
65.8050 0.538
65.8353 0.109
65.8656 0.409
65.8959 0.345
65.9261 0.593
65.9564 1.102
65.9867 1.298
66.0170 0.662
66.0473 0.078
66.0775 1.109
66.1078 1.098
66.1381 1.087
66.1684 1.233
66.1987 0.963
66.2289 0.120
66.2592 1.672
66.2895 1.090
66.3198 1.029
66.3500 1.853
66.3803 1.428
66.4106 1.107
66.4409 0.369
66.4712 0.622
66.5014 0.770
66.5317 0.867
66.5620 0.651
66.5923 0.696
66.6226 1.783
66.6528 1.411
66.6831 0.207
66.7134 0.357
66.7437 1.340
66.7739 0.189
66.8042 -0.077
66.8345 0.438
66.8648 0.277
66.8951 0.480
66.9253 -0.045
66.9556 -0.206
66.9859 1.040
67.0162 0.984
67.0465 0.251
67.0767 0.924
67.1070 0.400
67.1373 0.189
67.1676 0.915
67.1978 1.277
67.2281 0.649
67.2584 1.168
67.2887 1.478
67.3190 2.206
67.3492 2.308
67.3795 1.838
67.4098 3.191
67.4401 2.878
67.4704 3.294
67.5006 4.283
67.5309 3.710
67.5612 3.866
67.5915 4.960
67.6218 4.961
67.6520 5.899
67.6823 5.119
67.7126 7.099
67.7429 7.257
67.7731 8.196
67.8034 7.208
67.8337 7.522
67.8640 8.046
67.8943 7.944
67.9245 7.686
67.9548 7.272
67.9851 6.026
68.0154 6.081
68.0457 5.824
68.0759 5.307
68.1062 5.207
68.1365 5.941
68.1668 3.549
68.1970 3.346
68.2273 3.038
68.2576 4.398
68.2879 3.518
68.3182 3.836
68.3484 2.071
68.3787 2.337
68.4090 2.500
68.4393 1.829
68.4696 2.721
68.4998 2.208
68.5301 2.683
68.5604 2.899
68.5907 1.865
68.6209 2.915
68.6512 1.985
68.6815 1.994
68.7118 3.409
68.7421 2.896
68.7723 3.218
68.8026 3.071
68.8329 3.393
68.8632 2.778
68.8935 2.944
68.9237 3.996
68.9540 3.225
68.9843 4.173
69.0146 3.090
69.0448 3.517
69.0751 2.852
69.1054 1.717
69.1357 3.500
69.1660 3.460
69.1962 2.222
69.2265 2.547
69.2568 2.038
69.2871 1.635
69.3174 1.596
69.3476 1.713
69.3779 1.310
69.4082 1.063
69.4385 1.077
69.4687 1.091
69.4990 1.106
69.5293 0.495
69.5596 0.302
69.5899 0.108
69.6201 0.280
69.6504 -0.017
69.6807 0.728
69.7110 0.119
69.7413 0.239
69.7715 0.568
69.8018 0.689
69.8321 -0.284
69.8624 0.046
69.8926 -0.353
69.9229 0.602
69.9532 0.307
69.9835 -0.248
70.0138 -0.074
70.0440 -0.003
70.0743 0.276
70.1046 -0.174
70.1349 -0.207
70.1652 0.385
70.1954 0.040
70.2257 -0.148
70.2560 -0.076
70.2863 -0.212
70.3166 0.433
70.3468 -0.536
70.3771 -0.150
70.4074 -0.441
70.4377 0.192
70.4679 -0.372
70.4982 -0.103
70.5285 -0.094
70.5588 0.280
70.5891 0.081
70.6193 -0.118
70.6496 -0.264
70.6799 0.006
70.7102 0.173
70.7405 -0.494
70.7707 -0.127
70.8010 0.187
70.8313 -0.488
70.8616 -0.017
70.8918 0.506
70.9221 0.144
70.9524 -0.061
70.9827 -0.110
71.0130 -0.002
71.0432 -0.311
71.0735 0.056
71.1038 0.215
71.1341 -0.095
71.1644 0.065
71.1946 0.120
71.2249 0.385
71.2552 0.232
71.2855 -0.128
71.3157 0.293
71.3460 0.037
71.3763 -0.063
71.4066 0.567
71.4369 -0.209
71.4671 -0.255
71.4974 0.216
71.5277 0.478
71.5580 -0.353
71.5883 0.015
71.6185 -0.035
71.6488 0.177
71.6791 0.336
71.7094 0.027
71.7396 -0.021
71.7699 0.139
71.8002 0.144
71.8305 0.461
71.8608 0.101
71.8910 -0.259
71.9213 -0.051
71.9516 -0.208
71.9819 0.000
72.0122 0.208
72.0424 0.469
72.0727 -0.051
72.1030 0.522
72.1333 0.106
72.1635 0.576
72.1938 0.369
72.2241 0.319
72.2544 0.112
72.2847 0.270
72.3149 0.585
72.3452 0.796
72.3755 0.486
72.4058 0.437
72.4361 0.753
72.4663 0.496
72.4966 1.020
72.5269 0.190
72.5572 0.403
72.5874 -0.010
72.6177 0.307
72.6480 0.468
72.6783 0.525
72.7086 0.739
72.7388 0.484
72.7691 0.333
72.7994 -0.182
72.8297 1.439
72.8600 -0.482
72.8902 0.254
72.9205 0.365
72.9508 -0.149
72.9811 0.222
73.0113 0.126
73.0416 0.394
73.0719 0.193
73.1022 0.097
73.1325 0.262
73.1627 -0.094
73.1930 -0.086
73.2233 -0.233
73.2536 -0.233
73.2839 0.286
73.3141 0.336
73.3444 0.595
73.3747 -0.031
73.4050 0.593
73.4353 0.175
73.4655 0.174
73.4958 0.122
73.5261 0.070
73.5564 0.226
73.5866 0.382
73.6169 -0.294
73.6472 -0.085
73.6775 0.228
73.7078 -0.135
73.7380 -0.394
73.7683 0.493
73.7986 0.026
73.8289 -0.128
73.8592 0.082
73.8894 -0.384
73.9197 0.452
73.9500 0.142
73.9803 0.302
74.0105 0.305
74.0408 0.153
74.0711 0.261
74.1014 -0.100
74.1317 0.061
74.1619 -0.195
74.1922 0.278
74.2225 0.492
74.2528 -0.076
74.2831 -0.227
74.3133 -0.013
74.3436 0.514
74.3739 0.365
74.4042 -0.045
74.4344 0.066
74.4647 0.906
74.4950 0.028
74.5253 0.661
74.5556 0.095
74.5858 0.051
74.6161 0.112
74.6464 0.485
74.6767 -0.184
74.7070 0.138
74.7372 -0.114
74.7675 0.156
74.7978 0.582
74.8281 0.123
74.8583 0.394
74.8886 0.196
74.9189 0.206
74.9492 0.373
74.9795 0.488
75.0097 0.083
75.0400 0.146
75.0703 -0.311
75.1006 -0.116
75.1309 0.078
75.1611 0.273
75.1914 -0.260
75.2217 0.456
75.2520 0.183
75.2822 0.170
75.3125 -0.311
75.3428 0.407
75.3731 0.343
75.4034 0.383
75.4336 0.320
75.4639 -0.577
75.4942 0.142
75.5245 -0.390
75.5548 0.537
75.5850 0.319
75.6153 -0.004
75.6456 -0.014
75.6759 0.081
75.7061 0.593
75.7364 -0.094
75.7667 -0.519
75.7970 0.410
75.8273 0.297
75.8575 -0.023
75.8878 0.333
75.9181 -0.039
75.9484 0.058
75.9787 -0.002
76.0089 0.720
76.0392 -0.120
76.0695 0.342
76.0998 0.336
76.1301 0.226
76.1603 0.220
76.1906 0.162
76.2209 0.000
76.2512 0.099
76.2814 -0.218
76.3117 0.141
76.3420 0.658
76.3723 0.028
76.4026 0.128
76.4328 0.176
76.4631 -0.192
76.4934 0.690
76.5237 1.156
76.5540 0.163
76.5842 0.369
76.6145 1.199
76.6448 0.885
76.6751 0.258
76.7053 1.089
76.7356 0.358
76.7659 1.086
76.7962 0.772
76.8265 0.511
76.8567 1.760
76.8870 0.926
76.9173 0.822
76.9476 0.769
76.9779 0.926
77.0081 0.145
77.0384 0.666
77.0687 1.240
77.0990 0.304
77.1292 0.617
77.1595 1.244
77.1898 0.516
77.2201 -0.055
77.2504 0.312
77.2806 0.731
77.3109 0.161
77.3412 0.268
77.3715 0.427
77.4018 0.639
77.4320 0.486
77.4623 0.334
77.4926 -0.183
77.5229 0.133
77.5531 -0.435
77.5834 -0.066
77.6137 -0.269
77.6440 0.204
77.6743 -0.467
77.7045 -0.152
77.7348 -0.305
77.7651 0.323
77.7954 0.431
77.8257 0.070
77.8559 0.021
77.8862 0.338
77.9165 0.342
77.9468 0.347
77.9770 0.352
78.0073 0.305
78.0376 -0.055
78.0679 0.003
78.0982 0.321
78.1284 0.223
78.1587 0.385
78.1890 -0.077
78.2193 0.242
78.2496 -0.116
78.2798 0.256
78.3101 -0.153
78.3404 -0.250
78.3707 0.279
78.4009 -0.078
78.4312 -0.122
78.4615 0.043
78.4918 -0.053
78.5221 -0.148
78.5523 0.382
78.5826 0.026
78.6129 0.036
78.6432 -0.319
78.6735 0.524
78.7037 0.066
78.7340 0.701
78.7643 -0.069
78.7946 -0.215
78.8248 0.102
78.8551 -0.050
78.8854 0.580
78.9157 0.324
78.9460 0.069
78.9762 0.178
79.0065 -0.545
79.0368 -0.136
79.0671 0.325
79.0974 0.578
79.1276 0.415
79.1579 0.408
79.1882 0.297
79.2185 -0.074
79.2488 0.024
79.2790 0.643
79.3093 -0.092
79.3396 0.424
79.3699 0.575
79.4001 0.101
79.4304 0.044
79.4607 -0.221
79.4910 -0.173
79.5213 -0.020
79.5515 -0.023
79.5818 0.182
79.6121 -0.082
79.6424 0.124
79.6727 0.174
79.7029 0.015
79.7332 0.013
79.7635 0.480
79.7938 0.218
79.8240 0.217
79.8543 0.007
79.8846 0.111
79.9149 0.162
79.9452 0.005
79.9754 -0.047
80.0057 -0.099
80.0360 0.474
80.0663 0.110
80.0966 0.111
80.1268 0.268
80.1571 0.165
80.1874 0.531
80.2177 0.272
80.2479 0.534
80.2782 -0.089
80.3085 0.122
80.3388 0.020
80.3691 0.387
80.3993 0.182
80.4296 0.133
80.4599 -0.489
80.4902 0.036
80.5205 -0.221
80.5507 -0.071
80.5810 0.548
80.6113 0.334
80.6416 -0.245
80.6718 0.010
80.7021 0.265
80.7324 0.260
80.7627 -0.005
80.7930 0.042
80.8232 0.507
80.8535 0.346
80.8838 0.342
80.9141 0.183
80.9444 0.544
80.9746 0.176
81.0049 0.277
81.0352 0.170
81.0655 0.845
81.0957 0.113
81.1260 0.892
81.1563 0.474
81.1866 -0.205
81.2169 0.419
81.2471 0.886
81.2774 0.156
81.3077 0.103
81.3380 0.207
81.3683 0.415
81.3985 0.675
81.4288 0.311
81.4591 0.103
81.4894 -0.053
81.5196 0.104
81.5499 0.522
81.5802 -0.102
81.6105 0.056
81.6408 0.266
81.6710 0.216
81.7013 0.062
81.7316 0.221
81.7619 0.327
81.7922 0.018
81.8224 -0.031
81.8527 0.076
81.8830 -0.545
81.9133 -0.023
81.9436 0.030
81.9738 -0.073
82.0041 -0.175
82.0344 0.035
82.0647 -0.015
82.0949 0.092
82.1252 0.147
82.1555 -0.163
82.1858 -0.004
82.2161 0.468
82.2463 0.211
82.2766 -0.149
82.3069 -0.041
82.3372 0.015
82.3675 0.228
82.3977 0.232
82.4280 0.237
82.4583 -0.018
82.4886 -0.221
82.5188 -0.173
82.5491 0.188
82.5794 0.705
82.6097 0.025
82.6400 -0.083
82.6702 0.175
82.7005 -0.088
82.7308 -0.195
82.7611 0.272
82.7914 0.166
82.8216 -0.409
82.8519 0.371
82.8822 0.473
82.9125 -0.153
82.9427 0.003
82.9730 0.054
83.0033 0.002
83.0336 -0.519
83.0639 0.051
83.0941 -0.421
83.1244 0.306
83.1547 0.512
83.1850 0.250
83.2153 -0.013
83.2455 0.403
83.2758 0.297
83.3061 0.036
83.3364 0.451
83.3666 -0.018
83.3969 -0.018
83.4272 -0.227
83.4575 -0.175
83.4878 -0.174
83.5180 0.400
83.5483 -0.328
83.5786 -0.066
83.6089 -0.221
83.6392 -0.219
83.6694 -0.009
83.6997 0.254
83.7300 0.256
83.7603 -0.471
83.7905 0.366
83.8208 0.108
83.8511 -0.097
83.8814 -0.093
83.9117 0.484
83.9419 -0.398
83.9722 -0.185
84.0025 -0.285
84.0328 0.235
84.0631 -0.182
84.0933 0.182
84.1236 -0.026
84.1539 -0.130
84.1842 -0.025
84.2144 -0.493
84.2447 0.079
84.2750 0.390
84.3053 0.077
84.3356 0.233
84.3658 -0.027
84.3961 -0.131
84.4264 -0.078
84.4567 0.130
84.4870 0.183
84.5172 -0.024
84.5475 0.030
84.5778 -0.021
84.6081 0.033
84.6383 0.347
84.6686 -0.067
84.6989 -0.221
84.7292 -0.221
84.7595 -0.169
84.7897 -0.065
84.8200 -0.169
84.8503 -0.117
84.8806 0.145
84.9109 -0.063
84.9411 -0.114
84.9714 0.044
85.0017 0.253
85.0320 0.255
85.0623 0.049
85.0925 0.051
85.1228 -0.155
85.1531 0.317
85.1834 0.059
85.2136 0.427
85.2439 0.117
85.2742 0.069
85.3045 0.229
85.3348 -0.132
85.3650 0.550
85.3953 0.085
85.4256 0.090
85.4559 -0.009
85.4862 -0.212
85.5164 0.262
85.5467 0.632
85.5770 0.013
85.6073 0.071
85.6375 0.389
85.6678 0.292
85.6981 0.142
85.7284 -0.059
85.7587 -0.208
85.7889 0.008
85.8192 -0.349
85.8495 0.440
85.8798 0.241
85.9101 -0.376
85.9403 0.050
85.9706 -0.202
86.0009 -0.050
86.0312 0.257
86.0614 0.721
86.0917 0.040
86.1220 0.036
86.1523 -0.072
86.1826 0.029
86.2128 -0.027
86.2431 -0.030
86.2734 0.071
86.3037 -0.140
86.3340 0.170
86.3642 0.220
86.3945 0.634
86.4248 0.372
86.4551 -0.255
86.4853 0.161
86.5156 0.212
86.5459 0.159
86.5762 -0.363
86.6065 -0.111
86.6367 0.454
86.6670 0.498
86.6973 0.282
86.7276 0.015
86.7579 -0.201
86.7881 0.001
86.8184 -0.214
86.8487 0.144
86.8790 0.294
86.9092 0.288
86.9395 0.334
86.9698 0.068
87.0001 -0.146
87.0304 0.370
87.0606 0.209
87.0909 -0.160
87.1212 -0.165
87.1515 -0.221
87.1818 0.028
87.2120 -0.139
87.2423 -0.201
87.2726 0.465
87.3029 0.142
87.3331 0.497
87.3634 -0.346
87.3937 0.217
87.4240 -0.313
87.4543 -0.061
87.4845 0.294
87.5148 -0.391
87.5451 -0.139
87.5754 0.113
87.6057 0.313
87.6359 0.045
87.6662 -0.119
87.6965 0.343
87.7268 -0.081
87.7571 0.017
87.7873 -0.094
87.8176 0.212
87.8479 0.050
87.8782 -0.009
87.9084 -0.327
87.9387 0.189
87.9690 0.548
87.9993 -0.186
88.0296 -0.087
88.0598 0.117
88.0901 -0.356
88.1204 -0.048
88.1507 0.365
88.1810 -0.316
88.2112 -0.007
88.2415 -0.166
88.2718 -0.065
88.3021 0.401
88.3323 -0.539
88.3626 -0.229
88.3929 -0.231
88.4232 -0.285
88.4535 0.284
88.4837 -0.136
88.5140 0.590
88.5443 -0.247
88.5746 -0.250
88.6049 0.264
88.6351 -0.002
88.6654 0.304
88.6957 0.038
88.7260 -0.020
88.7562 0.599
88.7865 0.281
88.8168 0.276
88.8471 -0.354
88.8774 0.527
88.9076 0.367
88.9379 0.154
88.9682 0.254
88.9985 0.407
89.0288 0.716
89.0590 1.025
89.0893 0.710
89.1196 1.071
89.1499 0.808
89.1801 1.483
89.2104 1.064
89.2407 1.583
89.2710 0.852
89.3013 0.642
89.3315 1.058
89.3618 1.526
89.3921 1.941
89.4224 1.524
89.4527 1.107
89.4829 1.524
89.5132 1.472
89.5435 1.212
89.5738 1.889
89.6040 1.421
89.6343 1.579
89.6646 1.059
89.6949 1.060
89.7252 1.375
89.7554 1.481
89.7857 1.327
89.8160 1.381
89.8463 1.019
89.8766 0.866
89.9068 0.660
89.9371 0.716
89.9674 1.188
89.9977 0.619
90.0279 0.570
90.0582 0.470
90.0885 0.475
90.1188 0.063
90.1491 0.484
90.1793 0.802
90.2096 -0.078
90.2399 -0.229
90.2702 0.193
90.3005 0.251
90.3307 0.101
90.3610 0.628
90.3913 0.322
90.4216 -0.087
90.4518 0.232
90.4821 0.344
90.5124 0.091
90.5427 -0.006
90.5730 0.106
90.6032 0.219
90.6335 0.071
90.6638 -0.389
90.6941 -0.020
90.7244 -0.172
90.7546 0.250
90.7849 0.151
90.8152 -0.209
90.8455 0.057
90.8758 -0.093
90.9060 -0.608
90.9363 0.284
90.9666 0.290
90.9969 0.140
91.0271 -0.009
91.0574 -0.471
91.0877 0.110
91.1180 0.378
91.1483 0.125
91.1785 0.185
91.2088 -0.328
91.2391 -0.059
91.2694 0.263
91.2997 0.011
91.3299 -0.084
91.3602 0.915
91.3905 -0.117
91.4208 0.049
91.4510 -0.149
91.4813 0.017
91.5116 -0.337
91.5419 0.017
91.5722 -0.358
91.6024 0.101
91.6327 0.299
91.6630 0.446
91.6933 -0.189
91.7236 0.323
91.7538 -0.207
91.7841 0.201
91.8144 -0.224
91.8447 0.601
91.8749 0.176
91.9052 0.533
91.9355 0.004
91.9658 0.674
91.9961 0.094
92.0263 -0.122
92.0566 0.080
92.0869 0.282
92.1172 0.640
92.1475 -0.147
92.1777 -0.257
92.2080 0.310
92.2383 0.409
92.2686 -0.273
92.2988 0.295
92.3291 0.238
92.3594 0.181
92.3897 0.229
92.4200 0.017
92.4502 0.117
92.4805 0.270
92.5108 0.214
92.5411 0.523
92.5714 0.312
92.6016 1.039
92.6319 0.567
92.6622 0.305
92.6925 0.615
92.7227 -0.012
92.7530 -0.013
92.7833 0.558
92.8136 0.766
92.8439 0.348
92.8741 0.451
92.9044 0.555
92.9347 0.294
92.9650 0.294
92.9953 0.972
93.0255 -0.174
93.0558 0.140
93.0861 0.453
93.1164 -0.067
93.1466 -0.222
93.1769 0.249
93.2072 0.250
93.2375 0.304
93.2678 0.463
93.2980 -0.316
93.3283 -0.001
93.3586 0.523
93.3889 0.422
93.4192 0.373
93.4494 -0.352
93.4797 -0.244
93.5100 0.277
93.5403 0.017
93.5706 -0.034
93.6008 0.331
93.6311 0.488
93.6614 -0.135
93.6917 -0.029
93.7219 -0.184
93.7522 0.079
93.7825 0.706
93.8128 -0.021
93.8431 0.242
93.8733 -0.067
93.9036 0.405
93.9339 0.096
93.9642 -0.317
93.9945 0.207
94.0247 0.055
94.0550 0.320
94.0853 0.377
94.1156 -0.035
94.1458 -0.239
94.1761 0.067
94.2064 0.528
94.2367 0.574
94.2670 0.359
94.2972 0.092
94.3275 0.086
94.3578 0.653
94.3881 0.387
94.4184 0.225
94.4486 0.428
94.4789 0.736
94.5092 0.731
94.5395 0.570
94.5697 0.305
94.6000 0.301
94.6303 0.610
94.6606 0.762
94.6909 0.446
94.7211 0.964
94.7514 0.857
94.7817 -0.083
94.8120 0.122
94.8423 0.537
94.8725 0.639
94.9028 1.054
94.9331 1.260
94.9634 1.728
94.9936 0.737
95.0239 1.257
95.0542 1.256
95.0845 0.995
95.1148 1.255
95.1450 1.620
95.1753 1.308
95.2056 2.245
95.2359 1.413
95.2662 1.153
95.2964 1.779
95.3267 1.260
95.3570 1.626
95.3873 0.534
95.4175 1.473
95.4478 0.954
95.4781 1.738
95.5084 1.845
95.5387 0.598
95.5689 0.809
95.5992 0.813
95.6295 1.233
95.6598 0.872
95.6901 1.188
95.7203 1.193
95.7506 0.832
95.7809 0.993
95.8112 1.050
95.8414 0.326
95.8717 0.748
95.9020 -0.080
95.9323 0.082
95.9626 0.297
95.9928 0.303
96.0231 0.622
96.0534 0.264
96.0837 -0.042
96.1140 0.382
96.1442 0.442
96.1745 0.449
96.2048 0.145
96.2351 0.205
96.2653 -0.048
96.2956 -0.039
96.3259 0.178
96.3562 0.083
96.3865 0.092
96.4167 0.466
96.4470 0.319
96.4773 0.277
96.5076 0.443
96.5379 0.245
96.5681 0.308
96.5984 0.162
96.6287 0.538
96.6590 -0.180
96.6893 -0.221
96.7195 0.131
96.7498 -0.089
96.7801 0.576
96.8104 0.721
96.8406 0.554
96.8709 0.074
96.9012 0.271
96.9315 0.208
96.9618 -0.114
96.9920 0.188
97.0223 0.438
97.0526 0.220
97.0829 -0.154
97.1132 0.149
97.1434 0.036
97.1737 -0.129
97.2040 -0.398
97.2343 0.479
97.2645 -0.154
97.2948 0.150
97.3251 0.038
97.3554 0.031
97.3857 0.284
97.4159 0.329
97.4462 0.062
97.4765 0.264
97.5068 -0.159
97.5371 -0.218
97.5673 -0.171
97.5976 0.083
97.6279 0.390
97.6582 0.333
97.6884 -0.193
97.7187 -0.250
97.7490 -0.049
97.7793 0.360
97.8096 -0.273
97.8398 -0.228
97.8701 0.390
97.9004 -0.242
97.9307 0.325
97.9610 -0.306
97.9912 0.781
98.0215 0.359
98.0518 0.353
98.0821 1.077
98.1123 0.238
98.1426 -0.183
98.1729 0.645
98.2032 0.537
98.2335 0.376
98.2637 0.685
98.2940 0.629
98.3243 0.313
98.3546 0.257
98.3849 0.723
98.4151 0.355
98.4454 1.186
98.4757 0.558
98.5060 0.400
98.5362 0.710
98.5665 1.750
98.5968 0.863
98.6271 0.341
98.6574 0.757
98.6876 0.547
98.7179 0.911
98.7482 0.703
98.7785 0.025
98.8088 0.650
98.8390 0.546
98.8693 0.547
98.8996 -0.234
98.9299 0.184
98.9601 0.601
98.9904 0.238
99.0207 0.084
99.0510 0.242
99.0813 0.035
99.1115 0.038
99.1418 0.352
99.1721 0.251
99.2024 0.150
99.2327 0.257
99.2629 -0.260
99.2932 -0.517
99.3235 0.945
99.3538 0.063
99.3841 0.068
99.4143 -0.345
99.4446 0.754
99.4749 0.498
99.5052 0.295
99.5354 -0.168
99.5657 -0.215
99.5960 -0.053
99.6263 -0.255
99.6566 0.012
99.6868 -0.138
99.7171 0.442
99.7474 -0.176
99.7777 -0.064
99.8080 -0.108
99.8382 -0.205
99.8685 -0.144
99.8988 0.229
99.9291 -0.075
99.9593 0.194
99.9896 0.255
100.0199 0.160
100.0502 0.065
100.0805 0.179
100.1107 0.137
100.1410 -0.009
100.1713 0.210
100.2016 -0.040
100.2319 -0.081
100.2621 0.242
100.2924 -0.163
100.3227 0.525
100.3530 0.172
100.3832 0.393
100.4135 -0.376
100.4438 0.313
100.4741 0.117
100.5044 0.078
100.5346 0.456
100.5649 -0.260
100.5952 0.118
100.6255 -0.233
100.6558 -0.083
100.6860 0.118
100.7163 0.216
100.7466 0.106
100.7769 -0.056
100.8071 0.094
100.8374 0.193
100.8677 0.188
100.8980 0.391
100.9283 0.438
100.9585 0.017
100.9888 0.065
101.0191 0.113
101.0494 0.317
101.0797 -0.051
101.1099 -0.263
101.1402 0.411
101.1705 -0.165
101.2008 0.301
101.2310 0.142
101.2613 0.400
101.2916 0.138
101.3219 -0.281
101.3522 0.082
101.3824 0.081
101.4127 -0.233
101.4430 -0.140
101.4733 -0.202
101.5036 0.152
101.5338 -0.171
101.5641 -0.129
101.5944 0.486
101.6247 0.216
101.6549 -0.002
101.6852 0.718
101.7155 0.241
101.7458 0.388
101.7761 0.172
101.8063 -0.201
101.8366 0.051
101.8669 -0.061
101.8972 -0.068
101.9275 0.133
101.9577 0.230
101.9880 0.431
102.0183 -0.044
102.0486 -0.519
102.0788 0.099
102.1091 -0.012
102.1394 0.607
102.1697 -0.025
102.2000 -0.135
102.2302 0.381
102.2605 0.219
102.2908 -0.255
102.3211 -0.213
102.3514 -0.066
102.3816 0.290
102.4119 0.385
102.4422 0.220
102.4725 -0.048
102.5028 0.412
102.5330 0.300
102.5633 -0.072
102.5936 0.493
102.6239 0.538
102.6541 0.010
102.6844 0.212
102.7147 -0.003
102.7450 0.199
102.7753 -0.120
102.8055 0.291
102.8358 0.181
102.8661 0.279
102.8964 0.691
102.9267 0.634
102.9569 0.056
102.9872 0.364
103.0175 -0.109
103.0478 -0.009
103.0780 0.560
103.1083 0.087
103.1386 0.397
103.1689 1.175
103.1992 0.599
103.2294 0.283
103.2597 -0.136
103.2900 0.539
103.3203 0.589
103.3506 0.274
103.3808 0.064
103.4111 0.115
103.4414 0.114
103.4717 -0.095
103.5019 -0.044
103.5322 0.216
103.5625 0.059
103.5928 0.267
103.6231 0.632
103.6533 0.372
103.6836 0.060
103.7139 0.478
103.7442 0.791
103.7745 0.376
103.8047 -0.039
103.8350 1.108
103.8653 0.693
103.8956 1.060
103.9258 0.281
103.9561 0.857
103.9864 0.703
104.0167 0.446
104.0470 0.814
104.0772 1.495
104.1075 1.550
104.1378 0.877
104.1681 0.725
104.1984 0.678
104.2286 0.943
104.2589 0.322
104.2892 0.588
104.3195 0.958
104.3497 0.182
104.3800 0.813
104.4103 0.298
104.4406 0.877
104.4709 0.311
104.5011 1.098
104.5314 0.168
104.5617 0.175
104.5920 0.703
104.6223 -0.279
104.6525 0.406
104.6828 0.310
104.7131 0.683
104.7434 -0.142
104.7736 0.075
104.8039 0.292
104.8342 -0.532
104.8645 -0.106
104.8948 0.476
104.9250 0.017
104.9553 0.027
104.9856 0.142
105.0159 0.829
105.0462 -0.045
105.0764 0.330
105.1067 0.133
105.1370 -0.220
105.1673 0.156
105.1975 0.063
105.2278 -0.341
105.2581 0.557
105.2884 0.465
105.3187 0.113
105.3489 -0.239
105.3792 -0.077
105.4095 0.240
105.4398 -0.067
105.4701 -0.061
105.5003 0.570
105.5306 0.628
105.5609 0.322
105.5912 0.172
105.6215 0.075
105.6517 -0.126
105.6820 0.298
105.7123 0.305
105.7426 0.104
105.7728 0.112
105.8031 0.589
105.8334 0.077
105.8637 -0.227
105.8940 -0.062
105.9242 -0.054
105.9545 0.997
105.9848 -0.036
106.0151 0.182
106.0454 -0.069
106.0756 0.254
106.1059 0.420
106.1362 0.378
106.1665 -0.132
106.1967 0.035
106.2270 -0.215
106.2573 -0.172
106.2876 0.601
106.3179 0.280
106.3481 0.323
106.3784 -0.049
106.4087 -0.005
106.4390 -0.013
106.4693 0.396
106.4995 0.025
106.5298 0.122
106.5601 0.219
106.5904 0.160
106.6206 -0.106
106.6509 -0.112
106.6812 -0.327
106.7115 0.397
106.7418 -0.025
106.7720 -0.135
106.8023 -0.192
106.8326 0.012
106.8629 0.216
106.8932 0.211
106.9234 -0.157
106.9537 0.203
106.9840 -0.061
107.0143 0.196
107.0445 0.089
107.0748 0.346
107.1051 -0.073
107.1354 -0.128
107.1657 0.443
107.1959 0.076
107.2262 0.127
107.2565 0.177
107.2868 -0.137
107.3171 0.279
107.3473 0.174
107.3776 0.590
107.4079 0.016
107.4382 0.120
107.4684 0.328
107.4987 0.328
107.5290 0.329
107.5593 0.173
107.5896 -0.190
107.6198 0.175
107.6501 0.176
107.6804 0.282
107.7107 -0.029
107.7410 0.130
107.7712 0.236
107.8015 0.291
107.8318 0.137
107.8621 0.244
107.8923 -0.065
107.9226 -0.166
107.9529 -0.006
107.9832 0.258
108.0135 0.210
108.0437 -0.099
108.0740 0.427
108.1043 0.640
108.1346 0.228
108.1649 0.545
108.1951 -0.126
108.2254 -0.537
108.2557 0.250
108.2860 -0.005
108.3163 -0.311
108.3465 0.057
108.3768 0.320
108.4071 0.011
108.4374 0.484
108.4676 -0.085
108.4979 -0.133
108.5282 0.549
108.5585 -0.020
108.5888 0.194
108.6190 -0.218
108.6493 0.100
108.6796 -0.103
108.7099 0.267
108.7402 0.950
108.7704 0.228
108.8007 -0.131
108.8310 -0.020
108.8613 -0.117
108.8915 -0.110
108.9218 -0.363
108.9521 0.147
108.9824 0.450
109.0127 -0.185
109.0429 0.222
109.0732 0.473
109.1035 0.099
109.1338 -0.223
109.1641 0.133
109.1943 0.645
109.2246 0.324
109.2549 -0.153
109.2852 0.100
109.3154 0.144
109.3457 0.293
109.3760 0.286
109.4063 0.226
109.4366 0.220
109.4668 0.369
109.4971 0.311
109.5274 0.253
109.5577 0.299
109.5880 0.033
109.6182 0.340
109.6485 0.491
109.6788 0.277
109.7091 0.272
109.7393 0.685
109.7696 0.264
109.7999 0.312
109.8302 0.620
109.8605 0.616
109.8907 -0.012
109.9210 0.245
109.9513 0.867
109.9816 0.552
110.0119 0.237
110.0421 0.234
110.0724 0.701
110.1027 0.647
110.1330 0.385
110.1632 1.061
110.1935 0.174
110.2238 0.850
110.2541 0.381
110.2844 0.224
110.3146 0.484
110.3449 0.901
110.3752 0.640
110.4055 0.484
110.4358 0.277
110.4660 0.121
110.4963 0.695
110.5266 0.696
110.5569 0.750
110.5871 0.543
110.6174 0.806
110.6477 0.860
110.6780 0.289
110.7083 0.917
110.7385 1.232
110.7688 0.767
110.7991 0.666
110.8294 -0.216
110.8597 0.100
110.8899 0.990
110.9202 0.733
110.9505 0.373
110.9808 -0.039
111.0110 0.487
111.0413 0.596
111.0716 -0.076
111.1019 0.451
111.1322 0.404
111.1624 -0.058
111.1927 0.104
111.2230 0.371
111.2533 -0.039
111.2836 -0.084
111.3138 0.444
111.3441 -0.122
111.3744 -0.167
111.4047 0.102
111.4350 0.110
111.4652 0.326
111.4955 0.178
111.5258 0.083
111.5561 0.092
111.5863 0.049
111.6166 0.579
111.6469 -0.089
111.6772 0.025
111.7075 -0.017
111.7377 -0.215
111.7680 -0.118
111.7983 0.031
111.8286 0.024
111.8589 0.538
111.8891 0.115
111.9194 0.161
111.9497 -0.262
111.9800 -0.007
112.0102 -0.221
112.0405 0.032
112.0708 0.286
112.1011 0.331
112.1314 0.064
112.1616 -0.202
112.1919 -0.104
112.2222 0.151
112.2525 0.249
112.2828 -0.121
112.3130 -0.126
112.3433 0.078
112.3736 0.281
112.4039 0.121
112.4341 -0.040
112.4644 0.738
112.4947 0.265
112.5250 0.001
112.5553 0.362
112.5855 0.047
112.6158 0.148
112.6461 0.250
112.6764 0.091
112.7067 0.610
112.7369 -0.173
112.7672 -0.227
112.7975 0.240
112.8278 0.082
112.8580 0.186
112.8883 0.601
112.9186 -0.024
112.9489 -0.233
112.9792 0.023
113.0094 0.070
113.0397 0.274
113.0700 -0.251
113.1003 -0.047
113.1306 0.262
113.1608 0.259
113.1911 0.047
113.2214 0.409
113.2517 -0.115
113.2819 -0.170
113.3122 0.349
113.3425 -0.070
113.3728 -0.489
113.4031 0.395
113.4333 0.081
113.4636 0.444
113.4939 -0.286
113.5242 -0.339
113.5545 0.598
113.5847 0.285
113.6150 -0.340
113.6453 0.025
113.6756 -0.183
113.7058 0.130
113.7361 -0.286
113.7664 0.392
113.7967 -0.284
113.8270 -0.231
113.8572 0.240
113.8875 -0.279
113.9178 0.556
113.9481 -0.014
113.9784 0.301
114.0086 -0.582
114.0389 -0.006
114.0692 -0.211
114.0995 0.157
114.1298 0.057
114.1600 -0.460
114.1903 0.533
114.2206 0.225
114.2509 -0.187
114.2811 0.287
114.3114 0.135
114.3417 0.036
114.3720 -0.010
114.4023 0.048
114.4325 -0.311
114.4628 -0.013
114.4931 0.025
114.5234 0.324
114.5537 -0.002
114.5839 -0.067
114.6142 0.076
114.6445 -0.249
114.6748 0.155
114.7050 0.247
114.7353 0.026
114.7656 -0.038
114.7959 0.315
114.8262 0.304
114.8564 -0.020
114.8867 0.125
114.9170 -0.042
114.9473 0.156
114.9776 -0.063
115.0078 -0.125
115.0381 0.178
115.0684 0.220
115.0987 0.263
115.1289 0.201
115.1592 0.244
115.1895 -0.389
115.2198 -0.189
115.2501 0.323
115.2803 0.003
115.3106 0.151
115.3409 0.300
115.3712 0.344
115.4015 0.441
115.4317 0.174
115.4620 -0.197
115.4923 0.630
115.5226 0.051
115.5528 0.826
115.5831 0.299
115.6134 0.294
115.6437 -0.076
115.6740 0.856
115.7042 0.851
115.7345 0.899
115.7648 0.582
115.7951 0.786
115.8254 0.990
115.8556 0.726
115.8859 0.983
115.9162 0.979
115.9465 0.976
115.9767 0.713
116.0070 0.919
116.0373 0.760
116.0676 0.758
116.0979 0.496
116.1281 0.858
116.1584 0.961
116.1887 0.856
116.2190 0.802
116.2493 1.479
116.2795 1.270
116.3098 1.634
116.3401 0.540
116.3704 0.696
116.4006 1.009
116.4309 1.791
116.4612 1.271
116.4915 0.595
116.5218 1.377
116.5520 1.066
116.5823 1.328
116.6126 0.705
116.6429 0.759
116.6732 1.022
116.7034 0.712
116.7337 0.454
116.7640 0.926
116.7943 0.981
116.8245 0.828
116.8548 0.311
116.8851 0.315
116.9154 1.308
116.9457 0.011
116.9759 0.849
117.0062 0.437
117.0365 0.129
117.0668 1.280
117.0971 0.713
117.1273 0.458
117.1576 -0.005
117.1879 -0.520
117.2182 0.058
117.2485 -0.093
117.2787 0.225
117.3090 -0.238
117.3393 -0.076
117.3696 -0.175
117.3998 0.457
117.4301 0.411
117.4604 0.417
117.4907 0.112
117.5210 0.171
117.5512 0.387
117.5815 -0.075
117.6118 -0.015
117.6421 0.097
117.6724 0.106
117.7026 0.062
117.7329 -0.086
117.7632 0.288
117.7935 -0.016
117.8237 -0.163
117.8540 0.107
117.8843 -0.039
117.9146 0.127
117.9449 0.137
117.9751 -0.165
118.0054 -0.154
118.0357 0.117
118.0660 0.389
118.0963 0.348
118.1265 -0.213
118.1568 -0.097
118.1871 -0.189
118.2174 -0.073
118.2476 0.304
118.2779 0.786
118.3082 0.590
118.3385 0.395
118.3688 0.252
118.3990 0.109
118.4293 0.175
118.4596 0.346
118.4899 0.204
118.5202 0.635
118.5504 -0.288
118.5807 -0.221
118.6110 -0.278
118.6413 0.602
118.6715 -0.027
118.7018 0.177
118.7321 0.537
118.7624 0.117
118.7927 -0.095
118.8229 0.005
118.8532 0.158
118.8835 0.207
118.9138 0.309
118.9441 0.306
118.9743 0.148
119.0046 0.354
119.0349 0.456
119.0652 0.194
119.0954 0.297
119.1257 0.191
119.1560 0.138
119.1863 -0.019
119.2166 -0.072
119.2468 0.188
119.2771 -0.124
119.3074 0.188
119.3377 0.293
119.3680 0.450
119.3982 0.138
119.4285 0.295
119.4588 -0.328
119.4891 0.611
119.5193 0.248
119.5496 0.406
119.5799 0.095
119.6102 -0.579
119.6405 0.309
119.6707 0.051
119.7010 0.002
119.7313 0.370
119.7616 0.530
119.7919 -0.300
119.8221 0.225
119.8524 0.021
119.8827 0.181
119.9130 0.290
119.9433 -0.122
119.9735 -0.221
120.0038 0.000
