'Id: "" Comment: "" Operator: "Lab Manager" Anode: "Cu" Scantype: "Locked Coupled" TimePerStep: "19.2" X: "9999" Y: "9999" Z: "9999" 
10.0015 0.000
10.0318 0.397
10.0620 0.586
10.0923 0.359
10.1226 -0.390
10.1529 -0.233
10.1832 0.079
10.2134 -0.858
10.2437 0.289
10.2740 0.342
10.3043 -0.022
10.3346 -0.646
10.3648 0.397
10.3951 0.451
10.4254 -0.432
10.4557 0.247
10.4859 -0.376
10.5162 0.303
10.5465 0.150
10.5768 -0.420
10.6071 0.312
10.6373 0.055
10.6676 -0.514
10.6979 0.427
10.7282 -0.351
10.7585 -0.190
10.7887 0.075
10.8190 0.496
10.8493 -0.385
10.8796 0.089
10.9098 -0.531
10.9401 0.151
10.9704 0.417
11.0007 0.058
11.0310 0.533
11.0612 -0.450
11.0915 -0.236
11.1218 0.083
11.1521 0.038
11.1824 -0.007
11.2126 0.417
11.2429 -0.357
11.2732 0.328
11.3035 -0.029
11.3337 0.500
11.3640 -0.221
11.3943 -0.317
11.4246 0.109
11.4549 0.535
11.4851 0.180
11.5154 0.190
11.5457 0.304
11.5760 -0.155
11.6063 -0.613
11.6365 0.960
11.6668 0.241
11.6971 0.409
11.7274 0.316
11.7577 -0.090
11.7879 -0.234
11.8182 0.194
11.8485 0.050
11.8788 0.583
11.9090 -0.134
11.9393 -0.017
11.9696 0.100
11.9999 -0.148
12.0302 0.178
12.0604 -0.121
12.0907 0.101
12.1210 0.375
12.1513 0.233
12.1816 -0.221
12.2118 0.106
12.2421 -0.192
12.2724 0.604
12.3027 -0.266
12.3329 0.061
12.3632 -0.236
12.3935 0.405
12.4238 0.213
12.4541 0.281
12.4843 0.610
12.5146 -0.415
12.5449 -0.572
12.5752 0.465
12.6055 0.669
12.6357 0.300
12.6660 0.505
12.6963 0.397
12.7266 0.029
12.7568 0.286
12.7871 0.126
12.8174 0.279
12.8477 0.225
12.8780 0.378
12.9082 0.168
12.9385 0.113
12.9688 0.372
12.9991 0.995
13.0294 -0.257
13.0596 -0.050
13.0899 0.106
13.1202 -0.364
13.1505 0.156
13.1807 -0.313
13.2110 0.728
13.2413 1.301
13.2716 0.728
13.3019 -0.157
13.3321 -0.209
13.3624 0.209
13.3927 0.835
13.4230 0.211
13.4533 0.629
13.4835 -0.255
13.5138 -0.149
13.5441 -0.147
13.5744 0.063
13.6046 0.222
13.6349 0.068
13.6652 0.800
13.6955 -0.082
13.7258 0.233
13.7560 -0.232
13.7863 -0.280
13.8166 0.084
13.8469 -0.021
13.8772 0.031
13.9074 -0.177
13.9377 -0.280
13.9680 0.027
13.9983 0.543
14.0285 0.383
14.0588 0.274
14.0891 0.062
14.1194 0.058
14.1497 0.159
14.1799 0.312
14.2102 0.048
14.2405 -0.163
14.2708 0.042
14.3011 -0.221
14.3313 0.037
14.3616 0.348
14.3919 0.658
14.4222 0.240
14.4524 0.499
14.4827 0.133
14.5130 0.861
14.5433 0.183
14.5736 0.286
14.6038 0.181
14.6341 -0.027
14.6644 0.129
14.6947 0.129
14.7250 0.390
14.7552 -0.183
14.7855 0.026
14.8158 -0.285
14.8461 -0.232
14.8764 0.341
14.9066 -0.230
14.9369 0.032
14.9672 -0.175
14.9975 0.139
15.0277 1.026
15.0580 -0.117
15.0883 0.562
15.1186 -0.008
15.1489 0.516
15.1791 1.092
15.2094 0.262
15.2397 0.578
15.2700 0.269
15.3003 -0.352
15.3305 -0.140
15.3608 0.593
15.3911 0.077
15.4214 0.498
15.4516 0.451
15.4819 0.092
15.5122 0.045
15.5425 0.363
15.5728 0.004
15.6030 0.062
15.6333 -0.088
15.6636 -0.290
15.6939 0.237
15.7242 0.036
15.7544 0.980
15.7847 0.779
15.8150 0.317
15.8453 -0.456
15.8755 0.072
15.9058 -0.024
15.9361 -0.276
15.9664 0.253
15.9967 -0.207
16.0269 0.270
16.0572 0.123
16.0875 0.341
16.1178 -0.171
16.1481 0.203
16.1783 -0.099
16.2086 0.484
16.2389 0.442
16.2692 0.348
16.2994 0.515
16.3297 0.213
16.3600 0.016
16.3903 -0.285
16.4206 0.031
16.4508 -0.122
16.4811 -0.171
16.5114 -0.115
16.5417 0.566
16.5720 0.258
16.6022 0.367
16.6325 0.007
16.6628 0.116
16.6931 0.329
16.7233 -0.082
16.7536 -0.285
16.7839 0.130
16.8142 0.597
16.8445 0.596
16.8747 0.075
16.9050 -0.343
16.9353 0.021
16.9656 0.542
16.9959 0.073
17.0261 0.021
17.0564 0.386
17.0867 0.387
17.1170 0.023
17.1472 0.388
17.1775 -0.079
17.2078 0.495
17.2381 0.080
17.2684 0.446
17.2986 0.136
17.3289 -0.070
17.3592 0.088
17.3895 0.508
17.4198 0.094
17.4500 -0.216
17.4803 -0.108
17.5106 0.051
17.5409 0.107
17.5712 0.111
17.6014 -0.250
17.6317 -0.196
17.6620 0.534
17.6923 0.067
17.7225 0.590
17.7528 -0.085
17.7831 0.439
17.8134 -0.132
17.8437 -0.441
17.8739 0.187
17.9042 -0.070
17.9345 -0.430
17.9648 0.355
17.9951 0.412
18.0253 0.260
18.0556 0.213
18.0859 -0.199
18.1162 -0.142
18.1464 0.072
18.1767 0.129
18.2070 0.344
18.2373 -0.171
18.2676 -0.113
18.2978 0.102
18.3281 -0.048
18.3584 0.376
18.3887 0.383
18.4190 0.286
18.4492 0.449
18.4795 0.457
18.5098 0.361
18.5401 0.160
18.5703 -0.509
18.6006 0.229
18.6309 0.498
18.6612 0.038
18.6915 -0.161
18.7217 0.057
18.7520 0.118
18.7823 0.180
18.8126 0.138
18.8429 0.564
18.8731 0.575
18.9034 -0.248
18.9337 0.700
18.9640 0.242
18.9942 -0.059
19.0245 0.108
19.0548 0.016
19.0851 -0.233
19.1154 0.024
19.1456 0.281
19.1759 0.173
19.2062 0.587
19.2365 -0.302
19.2668 -0.252
19.2970 0.527
19.3273 0.680
19.3576 0.366
19.3879 0.208
19.4181 0.310
19.4484 0.257
19.4787 0.151
19.5090 0.254
19.5393 -0.111
19.5695 0.253
19.5998 0.513
19.6301 -0.008
19.6604 0.096
19.6907 -0.060
19.7209 -0.164
19.7512 -0.007
19.7815 0.306
19.8118 -0.266
19.8420 0.673
19.8723 -0.159
19.9026 0.415
19.9329 0.573
19.9632 0.315
19.9934 -0.256
20.0237 0.476
20.0540 -0.094
20.0843 0.117
20.1146 0.120
20.1448 0.071
20.1751 -0.030
20.2054 0.078
20.2357 -0.022
20.2659 -0.122
20.2962 0.194
20.3265 0.355
20.3568 -0.005
20.3871 0.469
20.4173 0.526
20.4476 -0.146
20.4779 0.433
20.5082 -0.030
20.5385 -0.233
20.5687 0.075
20.5990 0.800
20.6293 0.431
20.6596 0.010
20.6899 0.163
20.7201 0.211
20.7504 0.156
20.7807 0.257
20.8110 0.410
20.8412 -0.113
20.8715 0.145
20.9018 0.194
20.9321 0.296
20.9624 0.503
20.9926 0.293
21.0229 0.760
21.0532 -0.075
21.0835 0.237
21.1138 -0.389
21.1440 -0.183
21.1743 0.283
21.2046 -0.136
21.2349 1.008
21.2651 -0.036
21.2954 0.015
21.3257 -0.039
21.3560 0.325
21.3863 0.793
21.4165 0.167
21.4468 0.114
21.4771 0.478
21.5074 0.218
21.5377 0.270
21.5679 0.218
21.5982 0.062
21.6285 0.115
21.6588 -0.301
21.6890 0.013
21.7193 0.691
21.7496 0.172
21.7799 0.538
21.8102 0.071
21.8404 -0.083
21.8707 0.336
21.9010 -0.026
21.9313 -0.075
21.9616 0.396
21.9918 0.139
22.0221 -0.014
22.0524 0.458
22.0827 0.410
22.1129 0.102
22.1432 -0.311
22.1735 -0.052
22.2038 0.467
22.2341 -0.055
22.2643 0.152
22.2946 0.360
22.3249 0.463
22.3552 0.098
22.3855 -0.058
22.4157 -0.215
22.4460 -0.116
22.4763 -0.122
22.5066 0.237
22.5368 0.596
22.5671 -0.294
22.5974 0.222
22.6277 0.321
22.6580 0.629
22.6882 -0.260
22.7185 0.308
22.7488 -0.060
22.7791 -0.168
22.8094 0.714
22.8396 -0.018
22.8699 -0.125
22.9002 -0.024
22.9305 0.078
22.9607 -0.394
22.9910 0.073
23.0213 0.227
23.0516 0.069
23.0819 0.224
23.1121 0.431
23.1424 -0.143
23.1727 -0.040
23.2030 0.115
23.2333 0.167
23.2635 -0.250
23.2938 0.114
23.3241 0.010
23.3544 0.167
23.3846 -0.041
23.4149 0.012
23.4452 0.325
23.4755 -0.195
23.5058 -0.141
23.5360 -0.244
23.5663 0.487
23.5966 0.229
23.6269 0.127
23.6572 -0.027
23.6874 0.079
23.7177 -0.074
23.7480 0.137
23.7783 -0.068
23.8086 -0.221
23.8388 -0.119
23.8691 -0.070
23.8994 0.345
23.9297 -0.178
23.9599 -0.076
23.9902 -0.442
24.0205 0.286
24.0508 0.128
24.0811 0.127
24.1113 0.075
24.1416 0.491
24.1719 -0.083
24.2022 0.282
24.2325 0.282
24.2627 -0.083
24.2930 -0.030
24.3233 0.700
24.3536 0.076
24.3838 0.233
24.4141 -0.130
24.4444 0.027
24.4747 -0.127
24.5050 -0.177
24.5352 -0.071
24.5655 -0.173
24.5958 0.142
24.6261 0.145
24.6564 -0.008
24.6866 0.047
24.7169 -0.158
24.7472 -0.259
24.7775 0.208
24.8077 -0.159
24.8380 -0.213
24.8683 -0.111
24.8986 0.305
24.9289 -0.113
24.9591 -0.062
24.9894 0.093
25.0197 0.509
25.0500 -0.064
25.0803 -0.221
25.1105 -0.170
25.1408 0.350
25.1711 -0.015
25.2014 0.505
25.2316 -0.016
25.2619 0.349
25.2922 -0.119
25.3225 0.246
25.3528 0.298
25.3830 0.143
25.4133 0.300
25.4436 0.093
25.4739 0.876
25.5042 1.034
25.5344 0.202
25.5647 0.725
25.5950 1.509
25.6253 1.095
25.6555 1.566
25.6858 0.892
25.7161 2.510
25.7464 1.628
25.7767 1.996
25.8069 2.260
25.8372 1.743
25.8675 1.591
25.8978 1.647
25.9281 1.235
25.9583 1.344
25.9886 0.932
26.0189 0.208
26.0492 0.526
26.0794 0.376
26.1097 0.069
26.1400 0.075
26.1703 0.706
26.2006 -0.173
26.2308 -0.010
26.2611 0.049
26.2914 0.212
26.3217 0.323
26.3520 -0.242
26.3822 0.391
26.4125 0.138
26.4428 0.250
26.4731 -0.106
26.5034 -0.202
26.5336 0.066
26.5639 0.229
26.5942 -0.285
26.6245 -0.188
26.6547 0.221
26.6850 0.631
26.7153 0.364
26.7456 0.305
26.7759 0.247
26.8061 0.605
26.8364 0.338
26.8667 0.281
26.8970 0.379
26.9273 0.270
26.9575 0.056
26.9878 0.520
27.0181 0.307
27.0484 0.094
27.0786 0.037
27.1089 0.606
27.1392 0.133
27.1695 0.286
27.1998 0.178
27.2300 -0.294
27.2603 -0.089
27.2906 0.533
27.3209 0.270
27.3512 0.216
27.3814 0.370
27.4117 0.107
27.4420 0.313
27.4723 0.520
27.5025 0.310
27.5328 0.986
27.5631 0.308
27.5934 0.203
27.6237 0.358
27.6539 0.462
27.6842 0.566
27.7145 0.201
27.7448 0.202
27.7751 -0.215
27.8053 -0.164
27.8356 -0.008
27.8659 0.512
27.8962 0.355
27.9264 0.303
27.9567 0.199
27.9870 -0.322
28.0173 -0.113
28.0476 -0.112
28.0778 0.045
28.1081 -0.215
28.1384 -0.175
28.1687 -0.082
28.1990 0.531
28.2292 0.051
28.2595 0.249
28.2898 0.134
28.3201 0.175
28.3503 0.008
28.3806 0.415
28.4109 0.300
28.4412 -0.022
28.4715 -0.032
28.5017 0.688
28.5320 -0.050
28.5623 -0.007
28.5926 0.036
28.6229 -0.077
28.6531 -0.137
28.6834 0.115
28.7137 0.628
28.7440 0.360
28.7742 -0.169
28.8045 -0.072
28.8348 0.025
28.8651 0.122
28.8954 0.011
28.9256 0.057
28.9559 0.050
28.9862 0.148
29.0165 0.455
29.0468 0.033
29.0770 0.235
29.1073 -0.135
29.1376 0.798
29.1679 0.376
29.1981 0.528
29.2284 0.211
29.2587 0.311
29.2890 0.515
29.3193 0.876
29.3495 0.976
29.3798 1.129
29.4101 0.709
29.4404 0.654
29.4707 2.213
29.5009 0.596
29.5312 1.271
29.5615 1.894
29.5918 0.850
29.6221 1.004
29.6523 0.846
29.6826 0.220
29.7129 0.271
29.7432 0.270
29.7734 0.165
29.8037 0.477
29.8340 0.060
29.8643 0.580
29.8946 0.216
29.9248 0.164
29.9551 0.060
29.9854 0.217
30.0157 -0.095
30.0460 -0.250
30.0762 -0.250
30.1065 -0.106
30.1368 -0.117
30.1671 -0.389
30.1973 0.171
30.2276 0.315
30.2579 0.355
30.2882 0.344
30.3185 0.384
30.3487 0.216
30.3790 0.674
30.4093 0.090
30.4396 -0.077
30.4699 0.069
30.5001 0.319
30.5304 -0.212
30.5607 0.142
30.5910 0.497
30.6212 -0.033
30.6515 0.895
30.6818 1.199
30.7121 0.460
30.7424 0.764
30.7726 0.652
30.8029 0.539
30.8332 0.896
30.8635 0.888
30.8938 1.297
30.9240 1.654
30.9543 1.386
30.9846 1.223
31.0149 2.206
31.0451 2.303
31.0754 2.349
31.1057 1.978
31.1360 2.857
31.1663 2.956
31.1965 3.158
31.2268 3.517
31.2571 5.491
31.2874 5.018
31.3177 5.117
31.3479 6.519
31.3782 6.983
31.4085 7.656
31.4388 8.954
31.4690 12.492
31.4993 13.426
31.5296 15.506
31.5599 16.961
31.5902 18.573
31.6204 18.153
31.6507 19.244
31.6810 19.190
31.7113 15.230
31.7416 13.821
31.7718 14.236
31.8021 10.537
31.8324 9.702
31.8627 8.139
31.8929 7.773
31.9232 5.793
31.9535 5.012
31.9838 4.543
32.0141 4.126
32.0443 3.084
32.0746 2.772
32.1049 3.033
32.1352 1.576
32.1655 2.306
32.1957 2.307
32.2260 1.215
32.2563 1.581
32.2866 1.270
32.3169 1.012
32.3471 1.014
32.3774 0.599
32.4077 0.602
32.4380 1.386
32.4682 0.764
32.4985 0.663
32.5288 0.458
32.5591 0.983
32.5894 0.205
32.6196 -0.051
32.6499 0.422
32.6802 0.270
32.7105 0.692
32.7408 0.696
32.7710 -0.080
32.8013 0.446
32.8316 0.035
32.8619 0.822
32.8921 0.151
32.9224 0.417
32.9527 0.528
32.9830 0.274
33.0133 0.072
33.0435 -0.598
33.0738 -0.023
33.1041 -0.125
33.1344 0.607
33.1647 -0.276
33.1949 -0.862
33.2252 0.687
33.2555 0.622
33.2858 0.192
33.3160 0.075
33.3463 0.375
33.3766 0.311
33.4069 0.976
33.4372 0.339
33.4674 0.119
33.4977 0.160
33.5280 -0.112
33.5583 -0.071
33.5886 0.491
33.6188 0.064
33.6491 -0.363
33.6794 -0.009
33.7097 -0.279
33.7399 0.389
33.7702 1.005
33.8005 0.579
33.8308 1.403
33.8611 1.291
33.8913 1.334
33.9216 2.003
33.9519 0.902
33.9822 1.623
34.0125 2.344
34.0427 2.233
34.0730 4.257
34.1033 4.979
34.1336 7.264
34.1638 10.018
34.1941 13.866
34.2244 16.151
34.2547 17.760
34.2850 17.806
34.3152 14.936
34.3455 13.108
34.3758 10.186
34.4061 8.879
34.4364 5.177
34.4666 3.818
34.4969 2.564
34.5272 2.560
34.5575 0.733
34.5877 1.250
34.6180 1.819
34.6483 0.566
34.6786 1.136
34.7089 0.612
34.7391 0.662
34.7694 0.399
34.7997 0.240
34.8300 0.290
34.8603 0.393
34.8905 0.704
34.9208 0.754
34.9511 0.961
34.9814 0.335
35.0116 0.595
35.0419 0.594
35.0722 0.698
35.1025 0.073
35.1328 0.334
35.1630 0.438
35.1933 1.115
35.2236 0.804
35.2539 0.336
35.2842 0.753
35.3144 1.015
35.3447 1.277
35.3750 0.602
35.4053 0.864
35.4356 1.178
35.4658 1.858
35.4961 1.027
35.5264 2.123
35.5567 2.283
35.5869 1.296
35.6172 2.393
35.6475 3.074
35.6778 3.130
35.7081 4.175
35.7383 4.596
35.7686 4.548
35.7989 6.532
35.8292 5.495
35.8595 8.729
35.8897 9.099
35.9200 9.677
35.9503 11.922
35.9806 13.959
36.0108 16.257
36.0411 17.774
36.0714 20.020
36.1017 21.485
36.1320 22.116
36.1622 19.519
36.1925 20.464
36.2228 18.857
36.2531 18.240
36.2834 15.695
36.3136 12.370
36.3439 9.357
36.3742 7.699
36.4045 7.239
36.4347 4.956
36.4650 5.851
36.4953 4.454
36.5256 3.578
36.5559 3.223
36.5861 2.712
36.6164 1.785
36.6467 1.118
36.6770 1.962
36.7073 1.400
36.7375 1.411
36.7678 0.276
36.7981 0.183
36.8284 0.247
36.8586 0.883
36.8889 0.947
36.9192 -0.030
36.9495 0.503
36.9798 0.933
37.0100 0.841
37.0403 -0.083
37.0706 0.607
37.1009 -0.213
37.1312 0.478
37.1614 0.075
37.1917 -0.067
37.2220 -0.105
37.2523 0.065
37.2825 0.132
37.3128 0.095
37.3431 0.006
37.3734 0.177
37.4037 -0.224
37.4339 -0.260
37.4642 0.005
37.4945 -0.145
37.5248 0.069
37.5551 -0.133
37.5853 0.134
37.6156 -0.068
37.6459 0.564
37.6762 -0.002
37.7064 0.161
37.7367 0.325
37.7670 0.176
37.7973 -0.233
37.8276 0.087
37.8578 0.252
37.8881 -0.104
37.9184 0.165
37.9487 0.173
37.9790 0.286
38.0092 -0.225
38.0395 0.097
38.0698 0.054
38.1001 0.012
38.1304 -0.186
38.1606 -0.228
38.1909 -0.218
38.2212 0.001
38.2515 -0.196
38.2817 0.231
38.3120 -0.070
38.3423 0.358
38.3726 -0.515
38.4029 -0.139
38.4331 -0.023
38.4634 0.510
38.4937 -0.154
38.5240 0.171
38.5543 -0.285
38.5845 -0.116
38.6148 -0.104
38.6451 0.169
38.6754 -0.182
38.7056 -0.221
38.7359 0.049
38.7662 0.320
38.7965 0.382
38.8268 -0.128
38.8570 0.768
38.8873 0.154
38.9176 0.321
38.9479 -0.188
38.9782 0.136
39.0084 0.147
39.0387 0.472
39.0690 0.328
39.0993 0.028
39.1295 0.509
39.1598 -0.156
39.1901 -0.038
39.2204 0.079
39.2507 0.092
39.2809 0.054
39.3112 -0.089
39.3415 -0.127
39.3718 0.356
39.4021 -0.254
39.4323 -0.188
39.4626 0.020
39.4929 0.279
39.5232 0.018
39.5534 0.070
39.5837 0.278
39.6140 -0.138
39.6443 -0.242
39.6746 0.487
39.7048 0.280
39.7351 0.020
39.7654 0.438
39.7957 0.179
39.8260 -0.080
39.8562 0.078
39.8865 -0.233
39.9168 -0.028
39.9471 0.020
39.9773 -0.088
40.0076 0.169
40.0379 -0.042
40.0682 -0.045
40.0985 0.056
40.1287 -0.103
40.1590 -0.157
40.1893 -0.003
40.2196 -0.161
40.2499 0.462
40.2801 0.252
40.3104 -0.009
40.3407 0.146
40.3710 0.249
40.4012 0.248
40.4315 -0.117
40.4618 -0.169
40.4921 -0.169
40.5224 -0.065
40.5526 0.092
40.5829 -0.064
40.6132 -0.063
40.6435 0.094
40.6738 0.199
40.7040 -0.060
40.7343 -0.111
40.7646 0.048
40.7949 -0.055
40.8251 0.156
40.8554 0.158
40.8857 0.421
40.9160 0.476
40.9463 0.271
40.9765 0.482
41.0068 -0.087
41.0371 -0.188
41.0674 0.018
41.0977 0.329
41.1279 -0.194
41.1582 0.117
41.1885 0.272
41.2188 0.479
41.2491 0.061
41.2793 0.008
41.3096 -0.305
41.3399 0.111
41.3702 0.476
41.4004 0.059
41.4307 0.111
41.4610 -0.044
41.4913 -0.096
41.5216 0.217
41.5518 0.270
41.5821 -0.093
41.6124 -0.144
41.6427 0.275
41.6730 -0.140
41.7032 -0.138
41.7335 -0.188
41.7638 -0.188
41.7941 0.072
41.8243 0.019
41.8546 -0.138
41.8849 0.017
41.9152 0.017
41.9455 0.173
41.9757 0.121
42.0060 -0.034
42.0363 -0.138
42.0666 -0.137
42.0969 0.280
42.1271 -0.135
42.1574 -0.082
42.1877 0.232
42.2180 0.234
42.2482 -0.337
42.2785 -0.180
42.3088 0.030
42.3391 -0.126
42.3694 -0.176
42.3996 0.242
42.4299 -0.069
42.4602 -0.015
42.4905 0.144
42.5208 -0.010
42.5510 0.097
42.5813 0.047
42.6116 -0.002
42.6419 -0.051
42.6721 0.109
42.7024 -0.044
42.7327 0.169
42.7630 -0.088
42.7933 0.073
42.8235 -0.027
42.8538 0.238
42.8841 -0.070
42.9144 -0.117
42.9447 0.149
42.9749 0.050
43.0052 0.317
43.0355 0.270
43.0658 0.120
43.0960 0.491
43.1263 0.133
43.1566 -0.069
43.1869 0.303
43.2172 -0.159
43.2474 0.317
43.2777 -0.040
43.3080 0.124
43.3383 -0.337
43.3686 -0.084
43.3988 0.325
43.4291 0.005
43.4594 0.102
43.4897 -0.061
43.5199 0.037
43.5502 0.238
43.5805 -0.028
43.6108 0.018
43.6411 0.012
43.6713 0.110
43.7016 -0.104
43.7319 0.255
43.7622 0.563
43.7925 0.089
43.8227 -0.072
43.8530 -0.180
43.8833 -0.187
43.9136 0.276
43.9439 -0.043
43.9741 -0.153
44.0044 0.362
44.0347 0.044
44.0650 0.404
44.0952 0.347
44.1255 0.394
44.1558 -0.027
44.1861 -0.188
44.2164 -0.296
44.2466 0.274
44.2769 -0.146
44.3072 -0.045
44.3375 0.213
44.3678 0.314
44.3980 0.156
44.4283 -0.003
44.4586 0.308
44.4889 -0.006
44.5191 0.044
44.5494 0.043
44.5797 0.042
44.6100 0.093
44.6403 0.144
44.6705 -0.169
44.7008 -0.221
44.7311 0.247
44.7614 0.091
44.7917 0.196
44.8219 0.300
44.8522 0.041
44.8825 0.771
44.9128 -0.113
44.9430 -0.060
44.9733 0.254
45.0036 0.412
45.0339 0.258
45.0642 0.104
45.0944 -0.207
45.1247 -0.057
45.1550 -0.324
45.1853 0.399
45.2156 0.341
45.2458 0.127
45.2761 -0.035
45.3064 0.064
45.3367 0.267
45.3669 0.001
45.3972 -0.004
45.4275 0.148
45.4578 0.144
45.4881 0.087
45.5183 -0.021
45.5486 0.184
45.5789 -0.237
45.6092 -0.084
45.6395 -0.191
45.6697 0.275
45.7000 0.012
45.7303 -0.199
45.7606 -0.202
45.7908 -0.366
45.8211 0.617
45.8514 -0.016
45.8817 -0.023
45.9120 0.075
45.9422 0.016
45.9725 0.166
46.0028 0.108
46.0331 0.102
46.0634 -0.061
46.0936 0.038
46.1239 -0.384
46.1542 0.132
46.1845 0.127
46.2147 0.382
46.2450 -0.039
46.2753 -0.512
46.3056 0.526
46.3359 -0.103
46.3661 -0.055
46.3964 -0.215
46.4267 -0.378
46.4570 0.293
46.4873 0.234
46.5175 0.436
46.5478 0.326
46.5781 0.320
46.6084 0.471
46.6386 0.830
46.6689 0.304
46.6992 1.081
46.7295 0.190
46.7598 0.082
46.7900 0.025
46.8203 0.594
46.8506 0.851
46.8809 0.430
46.9112 0.531
46.9414 0.059
46.9717 0.524
47.0020 0.886
47.0323 1.092
47.0626 0.621
47.0928 1.035
47.1231 1.606
47.1534 1.239
47.1837 1.186
47.2139 1.653
47.2442 1.756
47.2745 1.755
47.3048 1.389
47.3351 2.170
47.3653 2.170
47.3956 2.221
47.4259 3.107
47.4562 1.649
47.4865 2.639
47.5167 2.483
47.5470 1.755
47.5773 1.547
47.6076 1.653
47.6378 1.394
47.6681 1.239
47.6984 0.824
47.7287 1.399
47.7590 0.985
47.7892 0.831
47.8195 0.469
47.8498 1.097
47.8801 0.475
47.9104 0.270
47.9406 0.378
47.9709 0.173
48.0012 0.906
48.0315 0.337
48.0617 0.342
48.0920 -0.175
48.1223 0.247
48.1526 -0.009
48.1829 0.152
48.2131 -0.311
48.2434 -0.101
48.2737 0.266
48.3040 1.154
48.3343 0.011
48.3645 0.013
48.3948 -0.348
48.4251 0.072
48.4554 -0.237
48.4856 0.079
48.5159 -0.022
48.5462 0.243
48.5765 0.195
48.6068 0.512
48.6370 -0.525
48.6673 0.209
48.6976 0.526
48.7279 0.375
48.7582 0.329
48.7884 0.074
48.8187 -0.285
48.8490 -0.025
48.8793 0.182
48.9095 0.181
48.9398 0.077
48.9701 -0.028
49.0004 -0.028
49.0307 0.285
49.0609 -0.340
49.0912 -0.079
49.1215 -0.130
49.1518 0.184
49.1821 -0.284
49.2123 0.082
49.2426 -0.177
49.2729 0.034
49.3032 0.244
49.3334 -0.223
49.3637 0.613
49.3940 0.095
49.4243 0.306
49.4546 -0.107
49.4848 -0.208
49.5151 0.106
49.5454 0.472
49.5757 0.057
49.6060 0.111
49.6362 0.165
49.6665 0.012
49.6968 -0.142
49.7271 -0.191
49.7574 0.072
49.7876 -0.081
49.8179 0.079
49.8482 0.187
49.8785 0.295
49.9087 -0.326
49.9390 0.355
49.9693 -0.109
49.9996 0.312
50.0299 0.057
50.0601 -0.042
50.0904 0.276
50.1207 0.073
50.1510 0.235
50.1813 -0.020
50.2115 -0.222
50.2418 0.149
50.2721 -0.001
50.3024 -0.046
50.3326 -0.143
50.3629 0.281
50.3932 -0.233
50.4235 -0.234
50.4538 0.495
50.4840 -0.339
50.5143 -0.131
50.5446 -0.184
50.5749 0.077
50.6052 0.389
50.6354 -0.443
50.6657 -0.130
50.6960 0.235
50.7263 -0.285
50.7565 -0.179
50.7868 0.031
50.8171 0.397
50.8474 -0.174
50.8777 0.349
50.9079 0.456
50.9382 0.042
50.9685 -0.008
50.9988 -0.161
51.0291 -0.054
51.0593 0.210
51.0896 -0.359
51.1199 0.114
51.1502 0.274
51.1804 -0.503
51.2107 -0.082
51.2410 0.287
51.2713 0.032
51.3016 0.141
51.3318 0.563
51.3621 0.204
51.3924 0.209
51.4227 0.059
51.4530 0.013
51.4832 0.019
51.5135 0.026
51.5438 0.084
51.5741 0.352
51.6043 0.307
51.6346 0.575
51.6649 -0.095
51.6952 0.590
51.7255 0.077
51.7557 0.189
51.7860 0.198
51.8163 0.102
51.8466 0.475
51.8769 -0.193
51.9071 0.233
51.9374 0.086
51.9677 -0.165
51.9980 -0.067
52.0282 0.447
52.0585 0.284
52.0888 0.434
52.1191 -0.041
52.1494 -0.099
52.1796 0.416
52.2099 0.567
52.2402 0.145
52.2705 0.504
52.3008 0.343
52.3310 -0.182
52.3613 0.021
52.3916 0.121
52.4219 0.117
52.4521 0.322
52.4824 -0.047
52.5127 -0.050
52.5430 0.051
52.5733 -0.056
52.6035 0.306
52.6338 0.042
52.6641 0.040
52.6944 0.194
52.7247 -0.433
52.7549 -0.018
52.7852 0.032
52.8155 0.083
52.8458 -0.022
52.8761 0.393
52.9063 0.236
52.9366 -0.285
52.9669 0.183
52.9972 0.183
53.0274 -0.129
53.0577 -0.025
53.0880 0.340
53.1183 -0.024
53.1486 -0.335
53.1788 0.134
53.2091 0.344
53.2394 0.346
53.2697 -0.174
53.3000 0.349
53.3302 0.299
53.3605 0.093
53.3908 0.148
53.4211 0.255
53.4513 0.258
53.4816 0.573
53.5119 0.316
53.5422 0.372
53.5725 -0.249
53.6027 -0.141
53.6330 0.071
53.6633 -0.029
53.6936 -0.180
53.7239 0.080
53.7541 0.185
53.7844 0.290
53.8147 0.187
53.8450 0.241
53.8752 -0.071
53.9055 0.087
53.9358 0.350
53.9661 0.352
53.9964 0.354
54.0266 0.148
54.0569 0.255
54.0872 0.206
54.1175 -0.364
54.1478 0.368
54.1780 -0.045
54.2083 0.167
54.2386 0.171
54.2689 0.228
54.2991 -0.029
54.3294 -0.284
54.3597 0.074
54.3900 0.120
54.4203 0.322
54.4505 0.628
54.4808 -0.002
54.5111 0.253
54.5414 0.196
54.5717 -0.070
54.6019 0.134
54.6322 0.129
54.6625 0.021
54.6928 -0.036
54.7230 0.221
54.7533 0.165
54.7836 0.213
54.8139 0.262
54.8442 0.155
54.8744 -0.004
54.9047 0.253
54.9350 0.199
54.9653 0.300
54.9956 0.142
55.0258 0.036
55.0561 -0.070
55.0864 0.345
55.1167 0.292
55.1469 0.655
55.1772 0.498
55.2075 0.289
55.2378 -0.024
55.2681 -0.180
55.2983 -0.137
55.3286 0.220
55.3589 -0.101
55.3892 0.256
55.4195 0.196
55.4497 0.449
55.4800 0.286
55.5103 0.123
55.5406 0.168
55.5709 0.474
55.6011 0.103
55.6314 0.357
55.6617 0.820
55.6920 0.137
55.7222 0.132
55.7525 0.074
55.7828 0.642
55.8131 0.533
55.8434 0.112
55.8736 0.576
55.9039 0.155
55.9342 0.984
55.9645 0.616
55.9948 1.237
56.0250 0.244
56.0553 1.543
56.0856 1.279
56.1159 1.849
56.1461 1.847
56.1764 2.053
56.2067 2.311
56.2370 2.986
56.2673 2.411
56.2975 3.712
56.3278 2.877
56.3581 3.813
56.3884 3.396
56.4187 4.697
56.4489 5.738
56.4792 4.123
56.5095 4.644
56.5398 4.748
56.5700 4.019
56.6003 4.071
56.6306 3.760
56.6609 3.292
56.6912 3.293
56.7214 3.034
56.7517 1.993
56.7820 1.995
56.8123 2.049
56.8426 1.478
56.8728 1.220
56.9031 1.118
56.9334 0.704
56.9637 0.655
56.9939 0.502
57.0242 0.922
57.0545 0.144
57.0848 0.200
57.1151 0.673
57.1453 0.156
57.1756 0.473
57.2059 0.269
57.2362 0.639
57.2665 0.748
57.2967 -0.028
57.3270 0.289
57.3573 -0.226
57.3876 0.093
57.4178 0.255
57.4481 0.105
57.4784 0.580
57.5087 -0.039
57.5390 -0.136
57.5692 0.340
57.5995 0.347
57.6298 0.407
57.6601 0.466
57.6904 0.162
57.7206 0.222
57.7509 0.022
57.7812 -0.178
57.8115 0.247
57.8417 0.673
57.8720 0.109
57.9023 0.170
57.9326 0.128
57.9629 0.242
57.9931 0.251
58.0234 0.157
58.0537 0.168
58.0840 -0.030
58.1143 0.085
58.1445 -0.165
58.1748 -0.100
58.2051 0.276
58.2354 0.289
58.2656 -0.063
58.2959 -0.206
58.3262 0.101
58.3565 0.147
58.3868 0.350
58.4170 0.189
58.4473 0.548
58.4776 0.127
58.5079 -0.034
58.5382 0.014
58.5684 -0.146
58.5987 0.058
58.6290 0.107
58.6593 -0.261
58.6896 -0.004
58.7198 0.201
58.7501 -0.114
58.7804 0.143
58.8107 -0.015
58.8409 0.295
58.8712 -0.176
58.9015 0.031
58.9318 0.237
58.9621 0.392
58.9923 0.079
59.0226 0.286
59.0529 0.546
59.0832 0.128
59.1135 -0.185
59.1437 0.076
59.1740 -0.341
59.2043 0.128
59.2346 0.233
59.2648 -0.079
59.2951 0.651
59.3254 -0.286
59.3557 -0.232
59.3860 0.337
59.4162 0.177
59.4465 0.174
59.4768 0.015
59.5071 0.116
59.5374 0.166
59.5676 0.007
59.5979 0.422
59.6282 0.576
59.6585 0.210
59.6887 0.104
59.7190 0.363
59.7493 -0.003
59.7796 0.205
59.8099 -0.004
59.8401 0.047
59.8704 0.307
59.9007 -0.109
59.9310 -0.005
59.9613 0.203
59.9915 -0.109
60.0218 0.153
60.0521 0.154
60.0824 -0.210
60.1126 0.000
60.1429 0.158
60.1732 0.107
60.2035 0.786
60.2338 -0.462
60.2640 -0.147
60.2943 0.741
60.3246 0.015
60.3549 0.018
60.3852 0.229
60.4154 0.077
60.4457 -0.180
60.4760 -0.030
60.5063 -0.035
60.5365 0.272
60.5668 0.215
60.5971 -0.259
60.6274 0.153
60.6577 -0.321
60.6879 -0.012
60.7182 -0.173
60.7485 0.031
60.7788 0.078
60.8091 0.021
60.8393 0.121
60.8696 0.012
60.8999 -0.044
60.9302 0.525
60.9604 0.001
60.9907 -0.107
61.0210 -0.006
61.0513 0.356
61.0816 -0.116
61.1118 0.090
61.1421 0.556
61.1724 0.085
61.2027 -0.021
61.2330 0.029
61.2632 -0.180
61.2935 0.018
61.3238 0.164
61.3541 0.103
61.3844 -0.011
61.4146 0.240
61.4449 0.023
61.4752 0.014
61.5055 0.058
61.5357 0.466
61.5660 0.198
61.5963 0.242
61.6266 0.182
61.6569 -0.034
61.6871 -0.249
61.7174 0.264
61.7477 0.310
61.7780 0.095
61.8083 -0.120
61.8385 0.290
61.8688 0.336
61.8991 0.122
61.9294 0.481
61.9596 -0.097
61.9899 0.158
62.0202 0.257
62.0505 -0.165
62.0808 0.039
62.1110 0.451
62.1413 0.239
62.1716 0.495
62.2019 0.543
62.2322 0.071
62.2624 0.380
62.2927 0.481
62.3230 0.791
62.3533 1.048
62.3835 1.514
62.4138 1.512
62.4441 1.041
62.4744 1.768
62.5047 2.235
62.5349 1.921
62.5652 2.128
62.5955 2.752
62.6258 2.022
62.6561 2.907
62.6863 2.802
62.7166 2.125
62.7469 2.593
62.7772 2.229
62.8074 2.646
62.8377 2.751
62.8680 2.543
62.8983 2.179
62.9286 1.764
62.9588 2.703
62.9891 0.777
63.0194 1.716
63.0497 0.989
63.0800 1.356
63.1102 1.098
63.1405 0.527
63.1708 0.374
63.2011 0.846
63.2313 0.693
63.2616 0.488
63.2919 0.543
63.3222 0.183
63.3525 0.395
63.3827 0.503
63.4130 0.299
63.4433 0.408
63.4736 -0.160
63.5039 -0.155
63.5341 -0.202
63.5644 0.013
63.5947 -0.189
63.6250 -0.078
63.6552 0.242
63.6855 0.145
63.7158 0.048
63.7461 0.004
63.7764 -0.093
63.8066 0.645
63.8369 0.080
63.8672 0.193
63.8975 0.201
63.9278 -0.207
63.9580 -0.145
63.9883 -0.188
64.0186 0.129
64.0489 0.186
64.0791 0.086
64.1094 -0.273
64.1397 0.044
64.1700 -0.002
64.2003 0.524
64.2305 -0.147
64.2608 -0.037
64.2911 -0.135
64.3214 -0.180
64.3517 0.029
64.3819 -0.229
64.4122 0.085
64.4425 0.087
64.4728 0.037
64.5031 0.092
64.5333 0.094
64.5636 0.045
64.5939 -0.004
64.6242 -0.001
64.6544 -0.049
64.6847 0.319
64.7150 0.062
64.7453 -0.038
64.7756 0.175
64.8058 -0.029
64.8361 -0.285
64.8664 0.082
64.8967 0.084
64.9270 0.242
64.9572 -0.172
64.9875 -0.118
65.0178 -0.167
65.0481 0.305
65.0783 -0.057
65.1086 0.207
65.1389 0.159
65.1692 0.423
65.1995 0.010
65.2297 0.535
65.2600 0.279
65.2903 -0.081
65.3206 -0.232
65.3509 0.123
65.3811 0.063
65.4114 -0.050
65.4417 0.410
65.4720 -0.119
65.5022 -0.231
65.5325 0.230
65.5628 0.015
65.5931 0.216
65.6234 0.052
65.6536 0.566
65.6839 -0.117
65.7142 0.293
65.7445 0.339
65.7748 0.020
65.8050 0.327
65.8353 0.582
65.8656 0.159
65.8959 -0.106
65.9261 0.253
65.9564 0.301
65.9867 0.244
66.0170 0.500
66.0473 0.548
66.0775 0.388
66.1078 0.384
66.1381 0.276
66.1684 0.221
66.1987 0.478
66.2289 0.475
66.2592 0.264
66.2895 0.261
66.3198 0.624
66.3500 0.465
66.3803 0.255
66.4106 -0.007
66.4409 0.564
66.4712 0.511
66.5014 -0.115
66.5317 0.040
66.5620 0.248
66.5923 0.456
66.6226 0.455
66.6528 0.403
66.6831 -0.013
66.7134 0.352
66.7437 0.352
66.7739 -0.116
66.8042 0.458
66.8345 -0.426
66.8648 0.200
66.8951 0.150
66.9253 -0.109
66.9556 0.101
66.9859 0.104
67.0162 -0.259
67.0465 -0.058
67.0767 0.352
67.1070 0.137
67.1373 0.182
67.1676 0.280
67.1978 0.066
67.2281 0.268
67.2584 0.418
67.2887 1.038
67.3190 0.408
67.3492 0.246
67.3795 0.710
67.4098 0.497
67.4401 1.013
67.4704 0.384
67.5006 1.109
67.5309 1.417
67.5612 1.257
67.5915 1.202
67.6218 1.459
67.6520 1.560
67.6823 1.922
67.7126 2.023
67.7429 2.281
67.7731 2.904
67.8034 3.110
67.8337 2.796
67.8640 2.586
67.8943 1.855
67.9245 2.218
67.9548 1.592
67.9851 2.425
68.0154 1.747
68.0457 1.955
68.0759 1.069
68.1062 1.121
68.1365 1.330
68.1668 1.382
68.1970 0.549
68.2273 0.654
68.2576 0.395
68.2879 0.813
68.3182 0.189
68.3484 0.816
68.3787 0.453
68.4090 0.455
68.4393 0.718
68.4696 0.772
68.4998 0.306
68.5301 0.622
68.5604 0.416
68.5907 0.472
68.6209 0.423
68.6512 0.166
68.6815 0.847
68.7118 0.591
68.7421 0.856
68.7723 0.652
68.8026 0.709
68.8329 0.974
68.8632 1.083
68.8935 1.401
68.9237 1.042
68.9540 0.683
68.9843 1.418
69.0146 0.695
69.0448 1.327
69.0751 1.021
69.1054 0.611
69.1357 1.034
69.1660 0.469
69.1962 0.580
69.2265 0.431
69.2568 0.700
69.2871 0.499
69.3174 0.768
69.3476 -0.057
69.3779 0.160
69.4082 0.377
69.4385 0.334
69.4687 0.083
69.4990 0.405
69.5293 0.206
69.5596 0.268
69.5899 -0.086
69.6201 -0.232
69.6504 0.143
69.6807 0.258
69.7110 0.060
69.7413 -0.241
69.7715 0.135
69.8018 -0.062
69.8321 -0.310
69.8624 0.111
69.8926 0.116
69.9229 -0.035
69.9532 0.127
69.9835 -0.284
70.0138 -0.073
70.0440 0.191
70.0743 0.350
70.1046 -0.063
70.1349 0.045
70.1652 0.153
70.1954 0.157
70.2257 -0.151
70.2560 0.062
70.2863 0.327
70.3166 0.176
70.3468 0.338
70.3771 -0.230
70.4074 -0.068
70.4377 0.042
70.4679 0.100
70.4982 -0.154
70.5285 -0.047
70.5588 0.008
70.5891 -0.041
70.6193 -0.194
70.6496 0.122
70.6799 -0.030
70.7102 0.234
70.7405 0.290
70.7707 -0.070
70.8010 -0.065
70.8313 0.044
70.8616 0.205
70.8918 0.262
70.9221 0.112
70.9524 0.169
70.9827 0.436
71.0130 0.233
71.0432 0.292
71.0735 -0.066
71.1038 0.253
71.1341 0.207
71.1644 0.267
71.1946 -0.091
71.2249 -0.031
71.2552 -0.128
71.2855 0.024
71.3157 0.280
71.3460 0.224
71.3763 0.272
71.4066 -0.096
71.4369 0.057
71.4671 -0.155
71.4974 0.102
71.5277 0.152
71.5580 0.253
71.5883 0.251
71.6185 0.196
71.6488 0.246
71.6791 0.296
71.7094 0.138
71.7396 0.085
71.7699 0.032
71.8002 -0.126
71.8305 0.290
71.8608 0.394
71.8910 0.185
71.9213 -0.180
71.9516 -0.132
71.9819 0.072
72.0122 0.120
72.0424 -0.040
72.0727 0.113
72.1030 0.162
72.1333 0.211
72.1635 0.729
72.1938 -0.003
72.2241 0.307
72.2544 0.252
72.2847 -0.323
72.3149 0.144
72.3452 0.299
72.3755 0.193
72.4058 0.088
72.4361 0.399
72.4663 0.138
72.4966 0.345
72.5269 0.501
72.5572 0.241
72.5874 0.293
72.6177 0.501
72.6480 -0.176
72.6783 0.190
72.7086 0.034
72.7388 0.035
72.7691 0.140
72.7994 -0.014
72.8297 -0.013
72.8600 0.197
72.8902 0.251
72.9205 0.202
72.9508 -0.317
72.9811 0.050
73.0113 0.366
73.0416 0.160
73.0719 0.216
73.1022 -0.093
73.1325 0.067
73.1627 -0.138
73.1930 -0.036
73.2233 0.222
73.2536 0.168
73.2839 0.426
73.3141 0.216
73.3444 -0.202
73.3747 -0.047
73.4050 -0.048
73.4353 -0.101
73.4655 0.471
73.4958 0.054
73.5261 -0.051
73.5564 0.053
73.5866 -0.103
73.6169 0.106
73.6472 0.210
73.6775 -0.101
73.7078 0.056
73.7380 -0.099
73.7683 0.214
73.7986 -0.044
73.8289 0.218
73.8592 -0.093
73.8894 -0.143
73.9197 0.224
73.9500 -0.138
73.9803 -0.240
74.0105 0.388
74.0408 0.182
74.0711 -0.023
74.1014 0.136
74.1317 0.035
74.1619 0.091
74.1922 0.355
74.2225 0.046
74.2528 0.102
74.2831 -0.154
74.3133 -0.049
74.3436 -0.048
74.3739 -0.046
74.4042 0.268
74.4344 -0.043
74.4647 0.323
74.4950 -0.039
74.5253 0.171
74.5556 0.278
74.5858 0.125
74.6161 0.128
74.6464 0.026
74.6767 -0.022
74.7070 -0.019
74.7372 0.089
74.7675 -0.115
74.7978 -0.111
74.8281 0.050
74.8583 0.054
74.8886 0.215
74.9189 0.116
74.9492 0.069
74.9795 0.074
75.0097 0.288
75.0400 -0.070
75.0703 -0.116
75.1006 -0.017
75.1309 0.344
75.1611 0.340
75.1914 0.024
75.2217 0.125
75.2520 0.382
75.2822 0.171
75.3125 -0.144
75.3428 0.218
75.3731 0.424
75.4034 0.005
75.4336 -0.154
75.4639 0.050
75.4942 0.410
75.5245 0.093
75.5548 -0.067
75.5850 0.085
75.6153 0.186
75.6456 0.234
75.6759 0.075
75.7061 0.176
75.7364 0.017
75.7667 0.431
75.7970 -0.249
75.8273 0.009
75.8575 -0.045
75.8878 0.110
75.9181 -0.048
75.9484 -0.154
75.9787 0.101
76.0089 0.043
76.0392 0.037
76.0695 0.136
76.0998 -0.233
76.1301 0.074
76.1603 0.226
76.1906 -0.091
76.2209 0.113
76.2512 0.057
76.2814 -0.104
76.3117 0.101
76.3420 -0.111
76.3723 0.094
76.4026 -0.013
76.4328 0.193
76.4631 0.242
76.4934 0.083
76.5237 0.289
76.5540 -0.025
76.5842 0.442
76.6145 -0.081
76.6448 0.283
76.6751 0.229
76.7053 0.176
76.7356 -0.085
76.7659 0.435
76.7962 0.070
76.8265 0.174
76.8567 0.226
76.8870 0.279
76.9173 0.435
76.9476 0.228
76.9779 0.176
77.0081 0.073
77.0384 0.022
77.0687 0.441
77.0990 0.338
77.1292 0.184
77.1595 0.186
77.1898 0.188
77.2201 -0.122
77.2504 0.506
77.2806 0.040
77.3109 0.043
77.3412 0.255
77.3715 -0.159
77.4018 0.158
77.4320 0.214
77.4623 0.374
77.4926 -0.038
77.5229 -0.086
77.5531 -0.133
77.5834 0.236
77.6137 0.190
77.6440 -0.170
77.6743 0.044
77.7045 0.206
77.7348 0.004
77.7651 0.010
77.7954 0.017
77.8257 -0.029
77.8559 0.186
77.8862 0.297
77.9165 -0.112
77.9468 0.312
77.9770 0.059
78.0073 0.171
78.0376 -0.133
78.0679 -0.073
78.0982 -0.116
78.1284 -0.070
78.1587 -0.022
78.1890 0.285
78.2193 0.281
78.2496 0.329
78.2798 0.168
78.3101 0.164
78.3404 -0.100
78.3707 0.001
78.4009 0.049
78.4312 -0.058
78.4615 0.200
78.4918 -0.011
78.5221 0.195
78.5523 -0.224
78.5826 0.034
78.6129 0.136
78.6432 0.291
78.6735 0.081
78.7037 0.444
78.7340 0.027
78.7643 -0.287
78.7946 0.338
78.8248 0.077
78.8551 0.129
78.8854 -0.028
78.9157 0.337
78.9460 -0.079
78.9762 0.286
79.0065 0.026
79.0368 -0.025
79.0671 -0.128
79.0974 0.080
79.1276 -0.024
79.1579 0.028
79.1882 -0.128
79.2185 -0.028
79.2488 0.019
79.2790 -0.037
79.3093 -0.094
79.3396 0.111
79.3699 0.107
79.4001 -0.001
79.4304 0.204
79.4607 -0.008
79.4910 -0.011
79.5213 -0.222
79.5515 0.088
79.5818 -0.071
79.6121 0.292
79.6424 -0.127
79.6727 -0.129
79.7029 0.026
79.7332 -0.132
79.7635 0.075
79.7938 -0.030
79.8240 0.074
79.8543 -0.083
79.8846 0.229
79.9149 -0.084
79.9452 0.385
79.9754 0.125
80.0057 -0.239
80.0360 0.126
80.0663 0.179
80.0966 -0.184
80.1268 0.025
80.1571 0.131
80.1874 -0.232
80.2177 -0.077
80.2479 -0.183
80.2782 0.389
80.3085 0.127
80.3388 0.231
80.3691 0.074
80.3993 0.125
80.4296 0.490
80.4599 0.021
80.4902 0.021
80.5205 -0.135
80.5507 0.127
80.5810 0.127
80.6113 0.024
80.6416 -0.131
80.6718 -0.129
80.7021 -0.232
80.7324 0.184
80.7627 -0.076
80.7930 0.184
80.8232 -0.180
80.8535 -0.131
80.8838 0.282
80.9141 0.227
80.9444 -0.192
80.9746 0.170
81.0049 0.167
81.0352 0.009
81.0655 0.215
81.0957 -0.047
81.1260 -0.048
81.1563 0.107
81.1866 0.158
81.2169 -0.052
81.2471 0.208
81.2774 0.051
81.3077 -0.053
81.3380 -0.001
81.3683 -0.001
81.3985 -0.001
81.4288 0.468
81.4591 0.052
81.4894 0.158
81.5196 -0.154
81.5499 -0.103
81.5802 -0.052
81.6105 0.051
81.6408 -0.054
81.6710 0.154
81.7013 0.101
81.7316 -0.055
81.7619 0.153
81.7922 -0.107
81.8224 0.206
81.8527 0.206
81.8830 0.207
81.9133 0.156
81.9436 -0.051
81.9738 -0.258
82.0041 0.108
82.0344 -0.203
82.0647 -0.045
82.0949 0.009
82.1252 -0.040
82.1555 0.066
82.1858 -0.140
82.2161 0.280
82.2463 -0.029
82.2766 0.234
82.3069 -0.283
82.3372 0.033
82.3675 0.297
82.3977 0.249
82.4280 -0.007
82.4583 0.258
82.4886 -0.206
82.5188 -0.203
82.5491 0.269
82.5794 0.013
82.6097 0.225
82.6400 -0.084
82.6702 -0.028
82.7005 -0.180
82.7308 0.080
82.7611 0.288
82.7914 -0.129
82.8216 0.079
82.8519 0.183
82.8822 0.183
82.9125 0.027
82.9427 0.028
82.9730 -0.284
83.0033 0.028
83.0336 0.080
83.0639 0.184
83.0941 0.236
83.1244 0.289
83.1547 0.289
83.1850 0.029
83.2153 0.187
83.2455 0.031
83.2758 0.137
83.3061 -0.122
83.3364 0.244
83.3666 0.298
83.3969 -0.168
83.4272 -0.114
83.4575 -0.007
83.4878 0.100
83.5180 -0.001
83.5483 0.262
83.5786 0.214
83.6089 0.321
83.6392 0.065
83.6694 -0.035
83.6997 0.281
83.7300 0.338
83.7603 -0.126
83.7905 -0.069
83.8208 -0.116
83.8511 0.036
83.8814 0.241
83.9117 -0.023
83.9419 -0.131
83.9722 0.543
84.0025 0.176
84.0328 -0.035
84.0631 0.171
84.0933 0.064
84.1236 0.270
84.1539 0.164
84.1842 -0.150
84.2144 -0.099
84.2447 0.212
84.2750 0.159
84.3053 0.262
84.3356 -0.103
84.3658 0.261
84.3961 0.417
84.4264 0.261
84.4567 0.053
84.4870 0.366
84.5172 0.002
84.5475 -0.154
84.5778 0.055
84.6081 0.003
84.6383 -0.048
84.6686 0.109
84.6989 -0.047
84.7292 0.058
84.7595 0.060
84.7897 0.270
84.8200 0.115
84.8503 0.169
84.8806 -0.193
84.9109 0.122
84.9411 0.020
84.9714 -0.081
85.0017 0.234
85.0320 0.133
85.0623 0.189
85.0925 -0.120
85.1228 -0.116
85.1531 0.140
85.1834 0.241
85.2136 0.290
85.2439 0.130
85.2742 -0.029
85.3045 0.073
85.3348 0.278
85.3650 0.120
85.3953 0.118
85.4256 0.064
85.4559 0.062
85.4862 -0.096
85.5164 -0.097
85.5467 -0.046
85.5770 0.318
85.6073 0.213
85.6375 0.160
85.6678 0.056
85.6981 0.004
85.7284 0.108
85.7587 0.109
85.7889 0.213
85.8192 -0.046
85.8495 0.111
85.8798 0.060
85.9101 0.218
85.9403 -0.145
85.9706 0.117
86.0009 -0.089
86.0312 -0.087
86.0614 0.280
86.0917 0.022
86.1220 0.181
86.1523 0.184
86.1826 0.187
86.2128 0.191
86.2431 -0.014
86.2734 -0.114
86.3037 0.255
86.3340 0.051
86.3642 -0.205
86.3945 -0.001
86.4248 0.361
86.4551 0.097
86.4853 0.042
86.5156 -0.117
86.5459 0.193
86.5762 0.139
86.6065 -0.020
86.6367 0.135
86.6670 -0.127
86.6973 -0.082
86.7276 0.067
86.7579 0.165
86.7881 0.054
86.8184 -0.056
86.8487 0.094
86.8790 -0.224
86.9092 0.031
86.9395 0.077
86.9698 -0.032
87.0001 0.171
87.0304 0.062
87.0606 -0.202
87.0909 0.210
87.1212 0.102
87.1515 -0.111
87.1818 -0.062
87.2120 -0.066
87.2423 0.191
87.2726 0.188
87.3029 0.029
87.3331 -0.182
87.3634 0.076
87.3937 -0.135
87.4240 0.176
87.4543 -0.034
87.4845 0.224
87.5148 0.014
87.5451 -0.039
87.5754 0.064
87.6057 -0.093
87.6359 0.115
87.6662 0.219
87.6965 0.218
87.7268 -0.094
87.7571 0.062
87.7873 0.011
87.8176 0.220
87.8479 0.064
87.8782 -0.091
87.9084 0.170
87.9387 0.120
87.9690 -0.243
87.9993 -0.033
88.0296 0.021
88.0598 0.023
88.0901 -0.130
88.1204 -0.180
88.1507 0.181
88.1810 -0.030
88.2112 -0.086
88.2415 -0.088
88.2718 -0.039
88.3021 0.167
88.3323 0.217
88.3626 -0.150
88.3929 0.004
88.4232 0.263
88.4535 0.157
88.4837 -0.052
88.5140 -0.105
88.5443 -0.106
88.5746 0.362
88.6049 0.101
88.6351 0.049
88.6654 -0.107
88.6957 0.362
88.7260 0.049
88.7562 -0.262
88.7865 0.207
88.8168 -0.052
88.8471 0.105
88.8774 -0.154
88.9076 -0.055
88.9379 0.408
88.9682 0.195
88.9985 -0.018
89.0288 0.081
89.0590 0.025
89.0893 0.177
89.1196 0.173
89.1499 0.377
89.1801 -0.043
89.2104 0.162
89.2407 0.315
89.2710 0.520
89.3013 0.622
89.3315 0.203
89.3618 0.617
89.3921 0.302
89.4224 0.144
89.4527 0.351
89.4829 0.505
89.5132 0.400
89.5435 0.138
89.5738 0.398
89.6040 -0.020
89.6343 0.553
89.6646 0.136
89.6949 0.448
89.7252 0.188
89.7554 0.448
89.7857 0.397
89.8160 0.137
89.8463 0.867
89.8766 0.139
89.9068 0.245
89.9371 0.455
89.9674 0.508
89.9977 0.094
90.0279 -0.008
90.0582 0.150
90.0885 0.257
90.1188 0.051
90.1491 0.211
90.1793 0.162
90.2096 -0.147
90.2399 -0.145
90.2702 0.066
90.3005 0.433
90.3307 -0.242
90.3610 0.074
90.3913 0.025
90.4216 -0.232
90.4518 0.028
90.4821 0.445
90.5124 -0.024
90.5427 0.029
90.5730 0.186
90.6032 -0.021
90.6335 0.344
90.6638 0.085
90.6941 0.035
90.7244 0.036
90.7546 0.247
90.7849 0.197
90.8152 0.043
90.8455 0.045
90.8758 0.204
90.9060 0.155
90.9363 0.419
90.9666 0.266
90.9969 0.009
91.0271 0.117
91.0574 0.069
91.0877 0.125
91.1180 0.286
91.1483 0.030
91.1785 0.035
91.2088 0.040
91.2391 0.201
91.2694 0.154
91.2997 0.056
91.3299 0.114
91.3602 0.172
91.3905 0.282
91.4208 0.445
91.4510 0.035
91.4813 -0.010
91.5116 0.153
91.5419 0.160
91.5722 -0.145
91.6024 0.332
91.6327 0.340
91.6630 0.191
91.6933 0.096
91.7236 0.365
91.7538 0.165
91.7841 0.382
91.8144 0.183
91.8447 0.140
91.8749 -0.007
91.9052 -0.153
91.9355 0.048
91.9658 0.145
91.9961 0.085
92.0263 0.287
92.0566 0.384
92.0869 0.221
92.1172 0.371
92.1475 0.001
92.1777 0.151
92.2080 0.093
92.2383 0.192
92.2686 0.499
92.2988 0.338
92.3291 0.229
92.3594 0.328
92.3897 0.324
92.4200 0.320
92.4502 0.316
92.4805 0.312
92.5108 0.204
92.5411 0.253
92.5714 0.302
92.6016 0.351
92.6319 0.087
92.6622 0.241
92.6925 0.187
92.7227 0.184
92.7530 0.287
92.7833 -0.132
92.8136 0.283
92.8439 -0.031
92.8741 0.020
92.9044 0.280
92.9347 0.123
92.9650 0.278
92.9953 0.538
93.0255 0.486
93.0558 0.226
93.0861 0.278
93.1164 -0.138
93.1466 0.019
93.1769 0.176
93.2072 0.125
93.2375 -0.186
93.2678 0.180
93.2980 0.026
93.3283 -0.077
93.3586 0.030
93.3889 0.084
93.4192 0.399
93.4494 -0.171
93.4797 0.040
93.5100 0.043
93.5403 -0.005
93.5706 0.154
93.6008 0.262
93.6311 0.162
93.6614 0.270
93.6917 -0.142
93.7219 0.279
93.7522 0.180
93.7825 -0.127
93.8128 -0.127
93.8431 0.175
93.8733 -0.096
93.9036 0.102
93.9339 -0.064
93.9642 0.291
93.9945 0.073
94.0247 0.116
94.0550 0.420
94.0853 0.098
94.1156 0.038
94.1458 0.238
94.1761 -0.083
94.2064 0.013
94.2367 0.162
94.2670 -0.158
94.2972 0.303
94.3275 0.192
94.3578 -0.180
94.3881 -0.133
94.4184 0.382
94.4486 0.169
94.4789 0.373
94.5092 0.108
94.5395 0.156
94.5697 -0.057
94.6000 -0.269
94.6303 0.352
94.6606 -0.016
94.6909 0.554
94.7211 0.238
94.7514 0.287
94.7817 0.180
94.8120 0.230
94.8423 0.332
94.8725 0.226
94.9028 0.432
94.9331 0.274
94.9634 0.117
94.9936 0.376
95.0239 0.166
95.0542 0.218
95.0845 0.425
95.1148 0.165
95.1450 0.164
95.1753 0.164
95.2056 0.321
95.2359 0.321
95.2662 0.634
95.2964 0.323
95.3267 0.376
95.3570 0.221
95.3873 0.639
95.4175 0.693
95.4478 0.226
95.4781 0.540
95.5084 0.386
95.5387 0.284
95.5689 0.600
95.5992 0.238
95.6295 0.449
95.6598 -0.016
95.6901 0.560
95.7203 -0.061
95.7506 -0.057
95.7809 0.155
95.8112 -0.309
95.8414 0.268
95.8717 0.325
95.9020 -0.035
95.9323 0.179
95.9626 -0.076
95.9928 0.190
96.0231 0.143
96.0534 -0.059
96.0837 0.156
96.1140 0.527
96.1442 0.169
96.1745 0.175
96.2048 0.234
96.2351 0.346
96.2653 0.509
96.2956 0.048
96.3259 0.004
96.3562 -0.144
96.3865 0.072
96.4167 -0.128
96.4470 -0.077
96.4773 -0.077
96.5076 0.026
96.5379 -0.026
96.5681 0.182
96.5984 0.286
96.6287 0.130
96.6590 0.287
96.6893 0.548
96.7195 -0.181
96.7498 -0.128
96.7801 0.023
96.8104 0.017
96.8406 0.167
96.8709 0.214
96.9012 0.105
96.9315 -0.213
96.9618 0.251
96.9920 0.247
97.0223 0.034
97.0526 0.030
97.0829 -0.078
97.1132 -0.134
97.1434 -0.138
97.1737 0.171
97.2040 0.011
97.2343 -0.149
97.2645 0.368
97.2948 -0.156
97.3251 -0.003
97.3554 -0.006
97.3857 -0.113
97.4159 -0.115
97.4462 0.247
97.4765 0.193
97.5068 -0.069
97.5371 0.086
97.5673 -0.124
97.5976 0.083
97.6279 -0.022
97.6582 0.394
97.6884 -0.023
97.7187 -0.232
97.7490 0.077
97.7793 -0.082
97.8096 -0.033
97.8398 -0.035
97.8701 0.067
97.9004 0.065
97.9307 -0.094
97.9610 -0.147
97.9912 -0.048
98.0215 -0.001
98.0518 0.047
98.0821 0.355
98.1123 -0.222
98.1426 0.243
98.1729 0.552
98.2032 0.184
98.2335 0.129
98.2637 0.542
98.2940 0.227
98.3243 0.172
98.3546 0.639
98.3849 0.116
98.4151 0.374
98.4454 0.060
98.4757 0.423
98.5060 -0.047
98.5362 0.108
98.5665 -0.050
98.5968 0.262
98.6271 0.157
98.6574 0.574
98.6876 0.365
98.7179 0.365
98.7482 -0.155
98.7785 0.001
98.8088 -0.206
98.8390 0.053
98.8693 -0.157
98.8996 0.154
98.9299 -0.055
98.9601 0.204
98.9904 0.047
99.0207 0.151
99.0510 -0.161
99.0813 0.255
99.1115 0.151
99.1418 0.152
99.1721 0.152
99.2024 0.153
99.2327 0.154
99.2629 0.051
99.2932 -0.052
99.3235 -0.258
99.3538 0.107
99.3841 0.108
99.4143 0.108
99.4446 0.162
99.4749 -0.306
99.5052 0.113
99.5354 0.166
99.5657 0.064
99.5960 0.118
99.6263 -0.140
99.6566 -0.137
99.6868 0.022
99.7171 0.181
99.7474 -0.024
99.7777 0.188
99.8080 -0.382
99.8382 0.195
99.8685 0.199
99.8988 -0.161
99.9291 0.156
99.9593 -0.048
99.9896 -0.147
100.0199 0.014
100.0502 -0.086
100.0805 0.023
100.1107 0.028
100.1410 -0.122
100.1713 0.300
100.2016 0.149
100.2319 0.208
100.2621 0.057
100.2924 -0.040
100.3227 -0.138
100.3530 0.017
100.3832 -0.037
100.4135 0.067
100.4438 0.066
100.4741 0.377
100.5044 0.169
100.5346 -0.040
100.5649 0.064
100.5952 0.012
100.6255 0.064
100.6558 -0.091
100.6860 0.170
100.7163 -0.142
100.7466 -0.089
100.7769 0.017
100.8071 -0.138
100.8374 -0.032
100.8677 0.282
100.8980 -0.029
100.9283 0.078
100.9585 0.288
100.9888 -0.074
101.0191 0.345
101.0494 -0.120
101.0797 0.143
101.1099 -0.114
101.1402 0.306
101.1705 -0.003
101.2008 0.210
101.2310 0.110
101.2613 0.166
101.2916 0.118
101.3219 -0.085
101.3522 -0.184
101.3824 0.237
101.4127 0.295
101.4430 -0.116
101.4733 -0.058
101.5036 0.156
101.5338 0.162
101.5641 0.377
101.5944 -0.085
101.6247 0.026
101.6549 -0.072
101.6852 -0.116
101.7155 -0.125
101.7458 0.231
101.7761 0.066
101.8063 -0.046
101.8366 -0.002
101.8669 0.355
101.8972 0.347
101.9275 0.340
101.9577 0.072
101.9880 0.117
102.0183 0.111
102.0486 0.156
102.0788 0.254
102.1091 0.300
102.1394 0.242
102.1697 0.132
102.2000 0.179
102.2302 -0.087
102.2605 -0.092
102.2908 0.059
102.3211 -0.154
102.3514 -0.003
102.3816 0.512
102.4119 0.350
102.4422 0.241
102.4725 0.027
102.5028 0.127
102.5330 0.174
102.5633 0.117
102.5936 0.269
102.6239 0.265
102.6541 0.157
102.6844 -0.107
102.7147 0.255
102.7450 -0.269
102.7753 0.769
102.8055 -0.171
102.8358 0.347
102.8661 0.137
102.8964 0.134
102.9267 -0.180
102.9569 -0.082
102.9872 0.120
103.0175 0.271
103.0478 0.161
103.0780 0.260
103.1083 0.255
103.1386 0.042
103.1689 0.193
103.1992 0.189
103.2294 -0.232
103.2597 0.129
103.2900 0.125
103.3203 0.017
103.3506 0.170
103.3808 -0.042
103.4111 0.007
103.4414 -0.048
103.4717 -0.415
103.5019 0.208
103.5322 0.414
103.5625 0.516
103.5928 0.045
103.6231 -0.008
103.6533 0.615
103.6836 0.041
103.7139 0.040
103.7442 0.092
103.7745 -0.117
103.8047 0.091
103.8350 0.455
103.8653 0.143
103.8956 0.039
103.9258 0.248
103.9561 0.040
103.9864 0.041
104.0167 0.302
104.0470 0.512
104.0772 0.618
104.1075 0.099
104.1378 -0.004
104.1681 0.623
104.1984 0.261
104.2286 0.055
104.2589 0.214
104.2892 0.113
104.3195 0.585
104.3497 0.067
104.3800 0.123
104.4103 0.127
104.4406 0.339
104.4709 0.135
104.5011 -0.017
104.5314 0.248
104.5617 0.045
104.5920 0.102
104.6223 -0.154
104.6525 0.060
104.6828 0.118
104.7131 0.020
104.7434 0.234
104.7736 0.553
104.8039 0.038
104.8342 0.201
104.8645 0.104
104.8948 0.528
104.9250 0.274
104.9553 -0.083
104.9856 0.133
105.0159 0.193
105.0462 0.253
105.0764 0.001
105.1067 0.062
105.1370 -0.138
105.1673 -0.090
105.1975 0.166
105.2278 0.057
105.2581 0.209
105.2884 0.310
105.3187 0.202
105.3489 -0.062
105.3792 0.300
105.4095 0.088
105.4398 -0.123
105.4701 0.031
105.5003 0.081
105.5306 0.183
105.5609 0.285
105.5912 0.127
105.6215 0.281
105.6517 0.593
105.6820 -0.086
105.7123 0.226
105.7426 0.486
105.7728 -0.088
105.8031 0.329
105.8334 -0.088
105.8637 0.016
105.8940 0.329
105.9242 0.225
105.9545 0.174
105.9848 -0.086
106.0151 0.072
106.0454 -0.239
106.0756 0.075
106.1059 -0.028
106.1362 0.130
106.1665 -0.180
106.1967 -0.074
106.2270 0.241
106.2573 0.087
106.2876 0.298
106.3179 -0.063
106.3481 0.200
106.3784 -0.109
106.4087 0.051
106.4390 -0.258
106.4693 -0.005
106.4995 0.040
106.5298 0.137
106.5601 0.339
106.5904 -0.084
106.6206 0.014
106.6509 -0.045
106.6812 -0.155
106.7115 0.309
106.7418 0.303
106.7720 0.298
106.8023 0.189
106.8326 0.288
106.8629 0.075
106.8932 -0.034
106.9234 0.431
106.9537 -0.042
106.9840 0.110
107.0143 0.159
107.0445 -0.209
107.0748 0.100
107.1051 -0.215
107.1354 0.042
107.1657 0.196
107.1959 0.402
107.2262 0.139
107.2565 0.190
107.2868 0.240
107.3171 0.186
107.3473 0.185
107.3776 0.027
107.4079 0.131
107.4382 -0.026
107.4684 0.181
107.4987 0.337
107.5290 0.129
107.5593 0.077
107.5896 -0.027
107.6198 0.130
107.6501 -0.234
107.6804 0.288
107.7107 -0.284
107.7410 0.238
107.7712 0.135
107.8015 0.085
107.8318 0.191
107.8621 0.037
107.8923 0.039
107.9226 -0.114
107.9529 0.149
107.9832 -0.161
108.0135 -0.001
108.0437 -0.206
108.0740 0.052
108.1043 0.049
108.1346 -0.109
108.1649 -0.007
108.1951 0.095
108.2254 0.250
108.2557 0.248
108.2860 0.143
108.3163 -0.223
108.3465 -0.015
108.3768 -0.016
108.4071 0.296
108.4374 -0.173
108.4676 0.140
108.4979 0.140
108.5282 0.297
108.5585 -0.119
108.5888 0.194
108.6190 -0.066
108.6493 0.248
108.6796 0.198
108.7099 0.251
108.7402 -0.059
108.7704 0.411
108.8007 -0.315
108.8310 0.052
108.8613 -0.206
108.8915 0.000
108.9218 -0.366
108.9521 0.153
108.9824 0.256
109.0127 0.098
109.0429 0.097
109.0732 -0.112
109.1035 0.304
109.1338 0.251
109.1641 -0.165
109.1943 0.251
109.2246 0.095
109.2549 0.043
109.2852 0.252
109.3154 -0.007
109.3457 -0.006
109.3760 0.151
109.4063 0.257
109.4366 0.154
109.4668 -0.156
109.4971 -0.310
109.5274 0.203
109.5577 0.092
109.5880 -0.020
109.6182 0.286
109.6485 0.071
109.6788 -0.039
109.7091 0.423
109.7393 -0.156
109.7696 0.047
109.7999 0.458
109.8302 0.296
109.8605 0.499
109.8907 0.182
109.9210 0.125
109.9513 0.433
109.9816 0.533
110.0119 0.060
110.0421 0.160
110.0724 0.000
110.1027 0.205
110.1330 0.462
110.1632 0.199
110.1935 0.300
110.2238 0.089
110.2541 0.138
110.2844 0.240
110.3146 0.551
110.3449 0.393
110.3752 0.339
110.4055 0.494
110.4358 0.180
110.4660 0.075
110.4963 0.334
110.5266 0.334
110.5569 0.073
110.5871 0.229
110.6174 0.437
110.6477 -0.032
110.6780 0.229
110.7083 0.178
110.7385 -0.134
110.7688 0.232
110.7991 0.024
110.8294 0.026
110.8597 0.184
110.8899 0.029
110.9202 -0.125
110.9505 0.086
110.9808 -0.172
111.0110 0.195
111.0413 -0.115
111.0716 0.357
111.1019 -0.004
111.1322 0.260
111.1624 0.263
111.1927 0.371
111.2230 0.271
111.2533 -0.089
111.2836 0.124
111.3138 0.493
111.3441 0.133
111.3744 0.295
111.4047 0.196
111.4350 0.201
111.4652 0.103
111.4955 0.265
111.5258 0.375
111.5561 0.278
111.5863 -0.237
111.6166 0.343
111.6469 0.402
111.6772 -0.164
111.7075 -0.156
111.7377 0.200
111.7680 0.191
111.7983 0.339
111.8286 0.331
111.8589 0.323
111.8891 0.263
111.9194 0.047
111.9497 0.300
111.9800 0.137
112.0102 0.338
112.0405 0.019
112.0708 0.169
112.1011 -0.150
112.1314 0.052
112.1616 -0.006
112.1919 0.301
112.2222 0.035
112.2525 0.134
112.2828 -0.183
112.3130 0.177
112.3433 -0.089
112.3736 -0.353
112.4039 0.215
112.4341 -0.101
112.4644 0.207
112.4947 0.256
112.5250 -0.008
112.5553 -0.011
112.5855 0.246
112.6158 0.035
112.6461 0.241
112.6764 0.134
112.7067 -0.232
112.7369 0.599
112.7672 -0.080
112.7975 0.440
112.8278 0.074
112.8580 -0.084
112.8883 -0.085
112.9186 0.227
112.9489 -0.034
112.9792 -0.451
113.0094 0.226
113.0397 0.122
113.0700 0.122
113.1003 0.435
113.1306 0.019
113.1608 0.124
113.1911 -0.395
113.2214 0.231
113.2517 -0.028
113.2819 0.130
113.3122 -0.285
113.3425 -0.077
113.3728 -0.077
113.4031 0.183
113.4333 -0.233
113.4636 0.236
113.4939 -0.024
113.5242 0.237
113.5545 -0.074
113.5847 0.240
113.6150 -0.228
113.6453 -0.122
113.6756 0.088
113.7058 -0.379
113.7361 0.249
113.7664 0.251
113.7967 -0.215
113.8270 -0.056
113.8572 0.207
113.8875 -0.050
113.9178 0.474
113.9481 -0.147
113.9784 0.065
114.0086 -0.139
114.0389 0.126
114.0692 -0.078
114.0995 -0.073
114.1298 -0.173
114.1600 -0.021
114.1903 -0.078
114.2206 0.074
114.2509 0.746
114.2811 0.326
114.3114 0.270
114.3417 0.318
114.3720 0.106
114.4023 0.416
114.4325 -0.056
114.4628 0.358
114.4931 0.199
114.5234 -0.064
114.5537 0.403
114.5839 0.088
114.6142 0.034
114.6445 -0.020
114.6748 0.083
114.7050 -0.022
114.7353 -0.127
114.7656 0.028
114.7959 -0.024
114.8262 -0.129
114.8564 0.235
114.8867 0.027
114.9170 -0.025
114.9473 -0.180
114.9776 -0.189
115.0078 0.322
115.0381 0.262
115.0684 0.045
115.0987 0.193
115.1289 -0.023
115.1592 0.229
115.1895 0.013
115.2198 0.579
115.2501 -0.210
115.2803 0.356
115.3106 0.402
115.3409 0.343
115.3712 0.128
115.4015 0.018
115.4317 0.168
115.4620 0.214
115.4923 0.000
115.5226 -0.005
115.5528 0.459
115.5831 0.245
115.6134 -0.280
115.6437 0.132
115.6740 0.128
115.7042 0.228
115.7345 -0.193
115.7648 0.428
115.7951 -0.044
115.8254 0.057
115.8556 0.054
115.8859 0.155
115.9162 -0.056
115.9465 -0.110
115.9767 0.512
116.0070 0.510
116.0373 0.144
116.0676 0.090
116.0979 0.141
116.1281 0.087
116.1584 0.399
116.1887 0.450
116.2190 0.554
116.2493 0.553
116.2795 0.189
116.3098 0.136
116.3401 0.241
116.3704 0.554
116.4006 0.294
116.4309 0.086
116.4612 0.192
116.4915 -0.120
116.5218 -0.275
116.5520 0.769
116.5823 0.458
116.6126 0.408
116.6429 0.150
116.6732 -0.004
116.7034 0.103
116.7337 -0.311
116.7640 -0.049
116.7943 -0.047
116.8245 0.216
116.8548 0.218
116.8851 0.221
116.9154 0.119
116.9457 -0.034
116.9759 -0.135
117.0062 0.337
117.0365 0.184
117.0668 0.605
117.0971 0.661
117.1273 -0.325
117.1576 0.044
117.1879 -0.472
117.2182 0.210
117.2485 0.163
117.2787 0.689
117.3090 0.278
117.3393 0.023
117.3696 0.081
117.3998 -0.018
117.4301 -0.011
117.4604 -0.057
117.4907 -0.207
117.5210 0.113
117.5512 0.328
117.5815 0.179
117.6118 0.656
117.6421 0.403
117.6724 0.203
117.7026 -0.414
117.7329 -0.041
117.7632 0.384
117.7935 0.080
117.8237 0.141
117.8540 -0.162
117.8843 0.056
117.9146 0.065
117.9449 -0.081
117.9751 0.189
118.0054 -0.061
118.0357 -0.051
118.0660 0.481
118.0963 0.023
118.1265 0.294
118.1568 0.045
118.1871 -0.308
118.2174 0.068
118.2476 -0.180
118.2779 -0.021
118.3082 0.035
118.3385 -0.065
118.3688 -0.009
118.3990 0.151
118.4293 -0.105
118.4596 -0.048
118.4899 0.477
118.5202 0.170
118.5504 0.279
118.5807 0.180
118.6110 0.603
118.6413 0.348
118.6715 0.563
118.7018 0.517
118.7321 0.106
118.7624 -0.147
118.7927 -0.156
118.8229 0.617
118.8532 0.296
118.8835 0.496
118.9138 0.437
118.9441 0.325
118.9743 -0.099
119.0046 -0.107
119.0349 0.043
119.0652 0.453
119.0954 0.446
119.1257 0.127
119.1560 0.017
119.1863 0.219
119.2166 -0.047
119.2468 0.156
119.2771 0.671
119.3074 0.354
119.3377 0.244
119.3680 0.344
119.3982 0.391
119.4285 0.075
119.4588 0.175
119.4891 -0.038
119.5193 -0.093
119.5496 0.424
119.5799 0.056
119.6102 0.157
119.6405 0.310
119.6707 -0.005
119.7010 -0.059
119.7313 0.199
119.7616 0.093
119.7919 0.039
119.8221 -0.067
119.8524 -0.173
119.8827 -0.055
119.9130 -0.042
119.9433 0.024
119.9735 0.090
120.0038 0.000
