'Id: "" Comment: "" Operator: "Lab Manager" Anode: "Cu" Scantype: "Locked Coupled" TimePerStep: "19.2" X: "9999" Y: "9999" Z: "9999" 
10.0015 0.000
10.0318 0.133
10.0620 0.996
10.0923 1.391
10.1226 1.160
10.1529 0.097
10.1832 0.596
10.2134 -0.050
10.2437 0.711
10.2740 0.482
10.3043 -0.371
10.3346 0.755
10.3648 0.579
10.3951 0.925
10.4254 0.125
10.4557 -0.154
10.4859 1.547
10.5162 -0.503
10.5465 -0.780
10.5768 0.574
10.6071 0.054
10.6373 0.212
10.6676 -0.308
10.6979 0.475
10.7282 -0.095
10.7585 0.845
10.7887 0.014
10.8190 0.538
10.8493 -0.292
10.8796 -0.184
10.9098 0.237
10.9401 -0.332
10.9704 -0.067
11.0007 0.667
11.0310 -0.629
11.0612 -0.363
11.0915 1.153
11.1218 0.222
11.1521 0.176
11.1824 0.704
11.2126 -0.330
11.2429 0.719
11.2732 0.779
11.3035 0.266
11.3337 0.327
11.3640 0.023
11.3943 0.449
11.4246 0.510
11.4549 0.416
11.4851 0.582
11.5154 0.697
11.5457 0.343
11.5760 0.094
11.6063 -0.780
11.6365 -0.049
11.6668 -0.046
11.6971 -0.095
11.7274 -0.403
11.7577 0.014
11.7879 -0.454
11.8182 0.068
11.8485 0.799
11.8788 -0.189
11.9090 0.178
11.9393 0.337
11.9696 0.444
11.9999 0.655
12.0302 0.763
12.0604 0.610
12.0907 -0.792
12.1210 0.254
12.1513 0.311
12.1816 -0.309
12.2118 0.009
12.2421 0.275
12.2724 0.229
12.3027 1.069
12.3329 0.346
12.3632 -0.376
12.3935 -0.160
12.4238 0.212
12.4541 -0.301
12.4843 -0.397
12.5146 -0.077
12.5449 -0.175
12.5752 0.614
12.6055 0.153
12.6357 0.213
12.6660 0.377
12.6963 0.751
12.7266 0.551
12.7568 0.196
12.7871 -0.055
12.8174 0.528
12.8477 0.329
12.8780 0.080
12.9082 0.559
12.9385 -0.471
12.9688 1.050
12.9991 -0.136
13.0294 -0.124
13.0596 0.774
13.0899 -0.671
13.1202 0.175
13.1505 -0.332
13.1807 1.400
13.2110 0.216
13.2413 0.335
13.2716 -0.797
13.3019 0.312
13.3321 0.015
13.3624 0.030
13.3927 -0.162
13.4230 -0.354
13.4533 -0.754
13.4835 0.397
13.5138 0.350
13.5441 -0.008
13.5744 -0.367
13.6046 0.369
13.6349 -0.249
13.6652 0.279
13.6955 0.026
13.7258 0.451
13.7560 0.042
13.7863 -0.158
13.8166 0.476
13.8469 0.693
13.8772 0.390
13.9074 0.452
13.9377 -0.267
13.9680 -0.100
13.9983 0.588
14.0285 0.078
14.0588 0.402
14.0891 -0.056
14.1194 0.842
14.1497 0.281
14.1799 1.023
14.2102 -0.839
14.2405 -0.357
14.2708 0.421
14.3011 -0.051
14.3313 0.624
14.3616 0.518
14.3919 0.307
14.4222 -0.007
14.4524 0.461
14.4827 0.720
14.5130 1.188
14.5433 0.771
14.5736 0.927
14.6038 0.094
14.6341 0.199
14.6644 0.200
14.6947 0.045
14.7250 -0.266
14.7552 -0.524
14.7855 0.676
14.8158 0.366
14.8461 0.108
14.8764 -0.253
14.9066 0.480
14.9369 0.848
14.9672 0.227
14.9975 -0.237
15.0277 -0.232
15.0580 0.242
15.0883 -0.170
15.1186 0.201
15.1489 0.415
15.1791 -0.047
15.2094 -0.353
15.2397 -0.044
15.2700 1.099
15.3003 -0.258
15.3305 0.104
15.3608 -0.158
15.3911 0.361
15.4214 0.464
15.4516 -0.214
15.4819 0.097
15.5122 0.462
15.5425 0.253
15.5728 0.670
15.6030 -0.267
15.6333 -0.266
15.6636 1.037
15.6939 0.310
15.7242 0.363
15.7544 -0.572
15.7847 -0.312
15.8150 0.157
15.8453 -0.364
15.8755 -0.108
15.9058 0.461
15.9361 -0.064
15.9664 -0.119
15.9967 -0.070
16.0269 0.448
16.0572 -0.076
16.0875 -0.026
16.1178 0.076
16.1481 -0.029
16.1783 0.699
16.2086 -0.604
16.2389 -0.293
16.2692 -0.032
16.2994 -0.032
16.3297 -0.032
16.3600 0.489
16.3903 0.021
16.4206 -0.238
16.4508 -0.184
16.4811 0.443
16.5114 -1.169
16.5417 -0.229
16.5720 0.034
16.6022 -0.484
16.6325 0.509
16.6628 0.149
16.6931 -0.316
16.7233 0.001
16.7536 -0.463
16.7839 0.844
16.8142 0.120
16.8445 0.230
16.8747 0.132
16.9050 0.503
16.9353 0.458
16.9656 -0.369
16.9959 0.212
17.0261 0.219
17.0564 0.644
17.0867 0.392
17.1170 0.036
17.1472 -0.633
17.1775 0.210
17.2078 0.376
17.2381 0.073
17.2684 0.917
17.2986 0.094
17.3289 0.209
17.3592 0.012
17.3895 -0.342
17.4198 -0.342
17.4500 0.075
17.4803 0.128
17.5106 0.701
17.5409 0.390
17.5712 0.131
17.6014 -0.076
17.6317 0.603
17.6620 0.241
17.6923 0.400
17.7225 0.923
17.7528 0.302
17.7831 -0.893
17.8134 0.361
17.8437 0.313
17.8739 0.474
17.9042 0.219
17.9345 0.120
17.9648 -0.604
17.9951 0.548
18.0253 0.189
18.0556 -0.013
18.0859 0.046
18.1162 -0.572
18.1464 -0.001
18.1767 -0.314
18.2070 0.206
18.2373 0.570
18.2676 -0.316
18.2978 0.257
18.3281 0.882
18.3584 0.102
18.3887 -0.053
18.4190 0.417
18.4492 0.314
18.4795 0.264
18.5098 0.058
18.5401 0.425
18.5703 0.637
18.6006 0.067
18.6309 0.071
18.6612 0.647
18.6915 -0.286
18.7217 -0.333
18.7520 -0.124
18.7823 0.606
18.8126 0.503
18.8429 0.036
18.8731 -0.170
18.9034 0.978
18.9337 -0.165
18.9640 0.255
18.9942 -0.158
19.0245 0.002
19.0548 0.110
19.0851 0.479
19.1154 -0.090
19.1456 0.280
19.1759 0.702
19.2062 0.499
19.2365 -0.172
19.2668 -0.166
19.2970 0.466
19.3273 0.212
19.3576 -0.093
19.3879 -0.398
19.4181 0.704
19.4484 0.503
19.4787 -0.217
19.5090 -0.156
19.5393 0.009
19.5695 0.383
19.5998 -0.128
19.6301 -0.222
19.6604 0.049
19.6907 0.111
19.7209 -0.086
19.7512 0.863
19.7815 0.874
19.8118 0.314
19.8420 0.742
19.8723 0.234
19.9026 -0.222
19.9329 -0.312
19.9632 -0.156
19.9934 0.210
20.0237 0.055
20.0540 1.255
20.0843 -0.306
20.1146 0.530
20.1448 0.220
20.1751 -0.142
20.2054 -0.035
20.2357 -0.083
20.2659 0.285
20.2962 0.498
20.3265 0.450
20.3568 0.038
20.3871 -0.061
20.4173 -0.003
20.4476 0.211
20.4779 0.738
20.5082 0.536
20.5385 1.167
20.5687 0.133
20.5990 0.609
20.6293 0.877
20.6596 0.052
20.6899 0.529
20.7201 -0.296
20.7504 1.484
20.7807 0.972
20.8110 0.357
20.8412 0.262
20.8715 0.585
20.9018 -0.186
20.9321 0.815
20.9624 2.180
20.9926 0.629
21.0229 1.266
21.0532 0.028
21.0835 -0.116
21.1138 -0.311
21.1440 0.154
21.1743 -0.162
21.2046 0.773
21.2349 0.250
21.2651 -0.117
21.2954 -0.066
21.3257 0.713
21.3560 0.191
21.3863 -0.174
21.4165 0.086
21.4468 1.700
21.4771 0.086
21.5074 0.816
21.5377 0.556
21.5679 0.349
21.5982 0.350
21.6285 0.560
21.6588 0.771
21.6890 0.565
21.7193 0.984
21.7496 0.883
21.7799 0.261
21.8102 -0.100
21.8404 0.373
21.8707 1.002
21.9010 0.225
21.9313 0.022
21.9616 -0.598
21.9918 0.015
22.0221 0.576
22.0524 0.616
22.0827 0.397
22.1129 0.386
22.1432 0.636
22.1735 1.042
22.2038 -0.114
22.2341 0.658
22.2643 0.284
22.2946 0.014
22.3249 -0.203
22.3552 0.466
22.3855 -0.271
22.4157 0.502
22.4460 -0.235
22.4763 0.279
22.5066 0.168
22.5368 0.214
22.5671 0.364
22.5974 0.150
22.6277 0.092
22.6580 0.555
22.6882 -0.960
22.7185 -0.131
22.7488 0.073
22.7791 0.329
22.8094 0.117
22.8396 -0.198
22.8699 0.215
22.9002 0.056
22.9305 0.106
22.9607 0.156
22.9910 0.415
23.0213 0.517
23.0516 0.464
23.0819 0.463
23.1121 0.046
23.1424 -0.214
23.1727 0.151
23.2030 0.203
23.2333 0.256
23.2635 -0.628
23.2938 0.050
23.3241 -0.365
23.3544 0.367
23.3846 -0.308
23.4149 -0.364
23.4452 0.727
23.4755 -0.161
23.5058 0.201
23.5360 0.042
23.5663 0.405
23.5966 0.143
23.6269 0.298
23.6572 -0.484
23.6874 0.088
23.7177 0.192
23.7480 0.348
23.7783 0.609
23.8086 -0.432
23.8388 0.090
23.8691 -0.065
23.8994 0.249
23.9297 0.199
23.9599 0.045
23.9902 0.203
24.0205 0.258
24.0508 -0.363
24.0811 -0.211
24.1113 0.567
24.1416 0.303
24.1719 0.353
24.2022 -0.483
24.2325 0.296
24.2627 0.607
24.2930 0.137
24.3233 -0.229
24.3536 0.447
24.3838 -0.335
24.4141 0.498
24.4444 0.030
24.4747 0.030
24.5050 0.187
24.5352 0.240
24.5655 0.346
24.5958 0.400
24.6261 0.141
24.6564 0.508
24.6866 -0.062
24.7169 -0.007
24.7472 -0.108
24.7775 0.468
24.8077 0.264
24.8380 0.008
24.8683 -0.144
24.8986 0.226
24.9289 -0.342
24.9591 0.393
24.9894 0.138
25.0197 -0.064
25.0500 0.046
25.0803 -0.468
25.1105 -0.005
25.1408 -0.011
25.1711 0.348
25.2014 -0.230
25.2316 0.911
25.2619 0.854
25.2922 0.121
25.3225 0.482
25.3528 0.061
25.3830 -0.150
25.4133 0.472
25.4436 -0.052
25.4739 0.519
25.5042 -0.316
25.5344 0.203
25.5647 0.149
25.5950 -0.320
25.6253 0.304
25.6555 0.668
25.6858 0.095
25.7161 0.304
25.7464 -0.217
25.7767 0.461
25.8069 0.150
25.8372 0.151
25.8675 0.257
25.8978 -0.157
25.9281 0.418
25.9583 0.317
25.9886 -0.045
26.0189 0.480
26.0492 0.588
26.0794 -0.294
26.1097 0.544
26.1400 0.080
26.1703 0.554
26.2006 0.663
26.2308 -0.217
26.2611 0.414
26.2914 -0.048
26.3217 0.687
26.3520 -0.243
26.3822 -0.028
26.4125 0.709
26.4428 0.613
26.4731 0.673
26.5034 -0.152
26.5336 -0.299
26.5639 0.104
26.5942 0.194
26.6245 0.337
26.6547 -0.301
26.6850 0.468
26.7153 0.456
26.7456 0.027
26.7759 -0.245
26.8061 -0.308
26.8364 -0.058
26.8667 -0.173
26.8970 1.015
26.9273 0.016
26.9575 -0.306
26.9878 -0.054
27.0181 -0.376
27.0484 0.137
27.0786 0.389
27.1089 0.121
27.1392 0.374
27.1695 0.315
27.1998 0.464
27.2300 -0.219
27.2603 0.139
27.2906 0.863
27.3209 0.701
27.3512 0.488
27.3814 -0.559
27.4117 0.426
27.4420 -0.255
27.4723 0.105
27.5025 -0.107
27.5328 -0.162
27.5631 -0.321
27.5934 0.088
27.6237 -0.543
27.6539 0.283
27.6842 -0.608
27.7145 0.167
27.7448 0.057
27.7751 0.208
27.8053 0.047
27.8356 0.355
27.8659 0.142
27.8962 -0.018
27.9264 -0.021
27.9567 0.079
27.9870 0.441
28.0173 0.022
28.0476 0.540
28.0778 0.226
28.1081 0.588
28.1384 0.795
28.1687 0.221
28.1990 -0.613
28.2292 0.116
28.2595 0.116
28.2898 -0.405
28.3201 0.064
28.3503 -0.091
28.3806 0.170
28.4109 0.380
28.4412 0.434
28.4715 -0.502
28.5017 0.334
28.5320 -0.288
28.5623 0.652
28.5926 -0.438
28.6229 -0.070
28.6531 -0.014
28.6834 0.251
28.7137 0.620
28.7440 0.365
28.7742 -0.099
28.8045 0.375
28.8348 0.486
28.8651 0.544
28.8954 0.186
28.9256 0.088
28.9559 -0.321
28.9862 -0.131
29.0165 0.008
29.0468 0.615
29.0770 0.025
29.1073 0.113
29.1376 -0.060
29.1679 0.289
29.1981 0.481
29.2284 -0.107
29.2587 0.138
29.2890 0.383
29.3193 0.577
29.3495 -0.114
29.3798 0.080
29.4101 -0.246
29.4404 0.679
29.4707 -0.011
29.5009 1.278
29.5312 0.224
29.5615 0.577
29.5918 0.409
29.6221 0.189
29.6523 0.282
29.6826 -0.093
29.7129 0.209
29.7432 -0.166
29.7734 0.449
29.8037 0.544
29.8340 0.327
29.8643 -0.047
29.8946 0.414
29.9248 0.405
29.9551 0.450
29.9854 0.025
30.0157 -0.138
30.0460 -0.353
30.0762 -0.017
30.1065 0.424
30.1368 0.084
30.1671 0.786
30.1973 0.134
30.2276 0.212
30.2579 1.228
30.2882 0.733
30.3185 0.447
30.3487 0.630
30.3790 0.397
30.4093 0.737
30.4396 0.713
30.4699 0.741
30.5001 0.509
30.5304 1.110
30.5607 0.514
30.5910 1.169
30.6212 0.626
30.6515 1.177
30.6818 1.467
30.7121 1.915
30.7424 1.269
30.7726 2.133
30.8029 1.488
30.8332 2.353
30.8635 1.969
30.8938 2.105
30.9240 2.607
30.9543 2.432
30.9846 2.361
31.0149 3.437
31.0451 4.461
31.0754 3.610
31.1057 4.634
31.1360 4.565
31.1663 5.121
31.1965 6.511
31.2268 6.703
31.2571 8.927
31.2874 9.120
31.3177 9.834
31.3479 12.476
31.3782 14.857
31.4085 17.552
31.4388 16.861
31.4690 22.420
31.4993 25.063
31.5296 30.988
31.5599 29.830
31.5902 36.953
31.6204 39.701
31.6507 37.502
31.6810 35.043
31.7113 31.543
31.7416 29.449
31.7718 21.834
31.8021 22.033
31.8324 18.481
31.8627 14.826
31.8929 13.828
31.9232 10.329
31.9535 8.654
31.9838 8.334
32.0141 8.222
32.0443 6.183
32.0746 4.614
32.1049 4.919
32.1352 4.444
32.1655 3.084
32.1957 3.391
32.2260 2.916
32.2563 1.817
32.2866 2.281
32.3169 2.641
32.3471 1.856
32.3774 1.175
32.4077 0.703
32.4380 0.126
32.4682 1.738
32.4985 2.204
32.5288 1.473
32.5591 0.689
32.5894 -0.250
32.6196 1.624
32.6499 -0.096
32.6802 0.424
32.7105 0.215
32.7408 0.424
32.7710 0.059
32.8013 -0.461
32.8316 0.321
32.8619 0.114
32.8921 -0.197
32.9224 -0.091
32.9527 -0.297
32.9830 -0.087
33.0133 1.010
33.0435 0.076
33.0738 -0.598
33.1041 -0.041
33.1344 0.256
33.1647 0.918
33.1949 0.174
33.2252 0.681
33.2555 0.354
33.2858 -0.076
33.3160 1.108
33.3463 0.418
33.3766 -0.168
33.4069 -0.233
33.4372 0.484
33.4674 0.473
33.4977 -0.060
33.5280 0.346
33.5583 0.647
33.5886 0.845
33.6188 0.262
33.6491 0.720
33.6794 0.398
33.7097 0.337
33.7399 0.692
33.7702 1.882
33.8005 2.030
33.8308 1.917
33.8611 2.691
33.8913 2.996
33.9216 3.405
33.9519 3.711
33.9822 6.048
34.0125 5.209
34.0427 5.620
34.0730 9.156
34.1033 11.234
34.1336 14.250
34.1638 20.027
34.1941 29.345
34.2244 39.394
34.2547 49.702
34.2850 51.783
34.3152 46.259
34.3455 41.048
34.3758 37.608
34.4061 26.356
34.4364 20.729
34.4666 14.113
34.4969 10.466
34.5272 9.007
34.5575 7.132
34.5877 7.132
34.6180 5.622
34.6483 4.997
34.6786 4.321
34.7089 3.489
34.7391 2.344
34.7694 1.877
34.7997 1.671
34.8300 1.622
34.8603 2.406
34.8905 1.784
34.9208 1.527
34.9511 0.957
34.9814 0.441
35.0116 0.966
35.0419 0.866
35.0722 0.767
35.1025 1.241
35.1328 1.247
35.1630 1.357
35.1933 1.884
35.2236 1.266
35.2539 2.574
35.2842 2.634
35.3144 2.225
35.3447 2.232
35.3750 2.709
35.4053 2.718
35.4356 2.883
35.4658 3.100
35.4961 3.891
35.5264 3.640
35.5567 5.682
35.5869 6.161
35.6172 5.547
35.6475 8.787
35.6778 8.642
35.7081 10.581
35.7383 9.863
35.7686 10.397
35.7989 14.524
35.8292 15.995
35.8595 19.133
35.8897 22.480
35.9200 22.963
35.9503 31.415
35.9806 35.648
36.0108 39.673
36.0411 46.199
36.0714 49.548
36.1017 52.792
36.1320 53.850
36.1622 51.158
36.1925 50.654
36.2228 45.046
36.2531 38.866
36.2834 35.602
36.3136 29.370
36.3439 26.160
36.3742 21.387
36.4045 15.676
36.4347 15.696
36.4650 11.809
36.4953 12.610
36.5256 9.610
36.5559 6.818
36.5861 7.724
36.6164 5.818
36.6467 4.850
36.6770 4.039
36.7073 5.311
36.7375 3.198
36.7678 3.169
36.7981 4.025
36.8284 2.590
36.8586 3.864
36.8889 0.659
36.9192 1.777
36.9495 1.593
36.9798 1.618
37.0100 1.592
37.0403 1.513
37.0706 1.122
37.1009 1.045
37.1312 1.123
37.1614 1.046
37.1917 1.125
37.2220 0.059
37.2523 -0.173
37.2825 0.480
37.3128 1.081
37.3431 0.433
37.3734 -0.111
37.4037 -0.185
37.4339 0.469
37.4642 0.135
37.4945 0.270
37.5248 0.613
37.5551 -0.294
37.5853 0.154
37.6156 0.603
37.6459 0.427
37.6762 -0.166
37.7064 0.283
37.7367 0.733
37.7670 0.350
37.7973 0.279
37.8276 0.938
37.8578 0.087
37.8881 0.434
37.9184 -0.313
37.9487 -0.329
37.9790 -0.160
38.0092 0.373
38.0395 0.335
38.0698 0.244
38.1001 0.206
38.1304 -0.457
38.1606 0.548
38.1909 0.042
38.2212 0.161
38.2515 0.177
38.2817 0.193
38.3120 0.313
38.3423 -0.087
38.3726 -0.435
38.4029 0.156
38.4331 0.433
38.4634 0.660
38.4937 0.469
38.5240 -0.189
38.5543 0.455
38.5845 0.370
38.6148 -0.080
38.6451 -0.112
38.6754 0.533
38.7056 -0.020
38.7359 -0.572
38.7662 0.063
38.7965 0.074
38.8268 0.397
38.8570 -0.165
38.8873 -0.153
38.9176 0.379
38.9479 0.079
38.9782 -0.065
39.0084 -0.729
39.0387 0.325
39.0690 0.651
39.0993 0.092
39.1295 -0.311
39.1598 0.016
39.1901 0.395
39.2204 0.462
39.2507 0.582
39.2809 0.233
39.3112 0.509
39.3415 0.161
39.3718 -0.083
39.4021 0.038
39.4323 0.472
39.4626 0.385
39.4929 0.767
39.5232 -0.100
39.5534 0.700
39.5837 0.302
39.6140 0.008
39.6443 -0.024
39.6746 0.100
39.7048 0.276
39.7351 0.557
39.7654 0.108
39.7957 0.442
39.8260 -0.005
39.8562 -0.244
39.8865 -0.043
39.9168 0.107
39.9471 0.673
39.9773 0.407
40.0076 0.349
40.0379 0.135
40.0682 0.078
40.0985 0.386
40.1287 0.486
40.1590 0.378
40.1893 0.270
40.2196 0.162
40.2499 0.732
40.2801 0.416
40.3104 0.153
40.3407 0.568
40.3710 -0.007
40.4012 0.356
40.4315 0.355
40.4618 0.406
40.4921 0.249
40.5224 0.562
40.5526 0.041
40.5829 0.354
40.6132 -0.062
40.6435 1.032
40.6738 0.357
40.7040 0.410
40.7343 0.412
40.7646 0.362
40.7949 0.052
40.8251 0.107
40.8554 0.423
40.8857 0.635
40.9160 0.066
40.9463 0.591
40.9765 -0.134
41.0068 -0.337
41.0371 0.175
41.0674 -0.094
41.0977 0.418
41.1279 -0.058
41.1582 0.455
41.1885 0.031
41.2188 -0.237
41.2491 0.382
41.2793 0.323
41.3096 -0.047
41.3399 -0.365
41.3702 0.879
41.4004 -0.168
41.4307 -0.172
41.4610 -0.125
41.4913 -0.389
41.5216 0.176
41.5518 0.534
41.5821 0.319
41.6124 0.104
41.6427 0.046
41.6730 0.092
41.7032 -0.070
41.7335 -0.023
41.7638 0.493
41.7941 0.072
41.8243 -0.141
41.8546 -0.301
41.8849 0.633
41.9152 -0.360
41.9455 -0.154
41.9757 -0.157
42.0060 -0.003
42.0363 0.360
42.0666 -0.006
42.0969 -0.164
42.1271 0.200
42.1574 -0.270
42.1877 0.303
42.2180 0.511
42.2482 0.199
42.2785 -0.113
42.3088 -0.060
42.3391 0.097
42.3694 -0.005
42.3996 0.048
42.4299 0.624
42.4602 0.001
42.4905 0.264
42.5208 -0.149
42.5510 -0.146
42.5813 -0.090
42.6116 0.279
42.6419 -0.238
42.6721 -0.337
42.7024 0.291
42.7327 -0.175
42.7630 0.089
42.7933 0.197
42.8235 0.410
42.8538 0.206
42.8841 0.315
42.9144 0.633
42.9447 -0.039
42.9749 -0.085
43.0052 0.130
43.0355 0.136
43.0658 0.143
43.0960 -0.006
43.1263 -0.259
43.1566 0.048
43.1869 -0.323
43.2172 0.089
43.2474 0.292
43.2777 -0.441
43.3080 -0.237
43.3383 -0.137
43.3686 0.380
43.3988 0.429
43.4291 0.061
43.4594 0.006
43.4897 -0.100
43.5199 0.679
43.5502 -0.208
43.5805 0.103
43.6108 -0.002
43.6411 -0.160
43.6713 -0.160
43.7016 -0.108
43.7319 -0.056
43.7622 -0.212
43.7925 -0.003
43.8227 -0.001
43.8530 -0.260
43.8833 -0.001
43.9136 -0.054
43.9439 -0.003
43.9741 0.049
44.0044 0.258
44.0347 0.258
44.0650 -0.002
44.0952 -0.105
44.1255 0.209
44.1558 -0.206
44.1861 0.317
44.2164 0.059
44.2466 0.062
44.2769 0.690
44.3072 0.328
44.3375 -0.189
44.3678 -0.029
44.3980 0.080
44.4283 -0.437
44.4586 0.297
44.4889 0.823
44.5191 -0.109
44.5494 -0.363
44.5797 0.151
44.6100 0.249
44.6403 0.088
44.6705 -0.074
44.7008 0.181
44.7311 0.177
44.7614 -0.140
44.7917 0.064
44.8219 0.217
44.8522 0.474
44.8825 0.210
44.9128 0.207
44.9430 -0.420
44.9733 0.359
45.0036 -0.008
45.0339 0.095
45.0642 0.250
45.0944 -0.011
45.1247 0.249
45.1550 0.613
45.1853 -0.064
45.2156 0.145
45.2458 -0.219
45.2761 0.042
45.3064 -0.165
45.3367 0.149
45.3669 0.099
45.3972 0.518
45.4275 -0.260
45.4578 -0.572
45.4881 0.295
45.5183 0.173
45.5486 0.155
45.5789 -0.280
45.6092 0.536
45.6395 -0.470
45.6697 -0.070
45.7000 0.122
45.7303 -0.259
45.7606 0.038
45.7908 0.595
45.8211 0.424
45.8514 -0.112
45.8817 0.030
45.9120 -0.036
45.9422 0.731
45.9725 0.145
46.0028 0.444
46.0331 -0.194
46.0634 -0.415
46.0936 0.354
46.1239 0.082
46.1542 0.435
46.1845 0.319
46.2147 0.412
46.2450 -0.171
46.2753 -0.234
46.3056 0.173
46.3359 0.580
46.3661 0.310
46.3964 -0.324
46.4267 0.188
46.4570 0.180
46.4873 -0.141
46.5175 0.476
46.5478 0.104
46.5781 0.566
46.6084 -0.118
46.6386 0.605
46.6689 1.171
46.6992 0.332
46.7295 0.847
46.7598 0.634
46.7900 0.420
46.8203 0.937
46.8506 0.412
46.8809 0.824
46.9112 0.768
46.9414 1.390
46.9717 1.387
47.0020 1.332
47.0323 1.330
47.0626 2.422
47.0928 3.097
47.1231 3.200
47.1534 4.188
47.1837 5.177
47.2139 4.239
47.2442 5.905
47.2745 7.364
47.3048 8.093
47.3351 7.938
47.3653 10.700
47.3956 10.076
47.4259 9.974
47.4562 9.715
47.4865 7.270
47.5167 8.991
47.5470 8.317
47.5773 6.445
47.6076 5.668
47.6378 3.640
47.6681 3.853
47.6984 3.701
47.7287 2.925
47.7590 2.670
47.7892 2.467
47.8195 2.213
47.8498 1.281
47.8801 1.392
47.9104 1.503
47.9406 1.041
47.9709 0.841
48.0012 0.952
48.0315 0.544
48.0617 -0.021
48.0920 1.290
48.1223 0.518
48.1526 0.371
48.1829 0.433
48.2131 0.391
48.2434 0.557
48.2737 -0.421
48.3040 0.371
48.3343 0.278
48.3645 0.394
48.3948 0.510
48.4251 0.522
48.4554 0.118
48.4856 -0.182
48.5159 0.092
48.5462 -0.207
48.5765 0.067
48.6068 0.290
48.6370 -0.113
48.6673 -0.202
48.6976 -0.135
48.7279 -0.276
48.7582 0.143
48.7884 0.144
48.8187 -0.270
48.8490 0.045
48.8793 0.308
48.9095 -0.106
48.9398 0.002
48.9701 -0.099
49.0004 -0.199
49.0307 -0.143
49.0609 0.227
49.0912 0.336
49.1215 0.445
49.1518 0.607
49.1821 -0.272
49.2123 -0.214
49.2426 -0.208
49.2729 -0.253
49.3032 0.275
49.3334 -0.238
49.3637 -0.022
49.3940 0.090
49.4243 -0.162
49.4546 -0.153
49.4848 0.273
49.5151 -0.030
49.5454 0.605
49.5757 -0.323
49.6060 -0.260
49.6362 -0.001
49.6665 -0.105
49.6968 0.155
49.7271 0.051
49.7574 -0.260
49.7876 -0.056
49.8179 -0.007
49.8482 -0.271
49.8785 0.351
49.9087 -0.120
49.9390 -0.227
49.9693 -0.593
49.9996 0.394
50.0299 0.497
50.0601 0.080
50.0904 -0.546
50.1207 0.183
50.1510 0.078
50.1813 0.183
50.2115 0.236
50.2418 0.757
50.2721 -0.231
50.3024 0.656
50.3326 -0.019
50.3629 0.087
50.3932 0.454
50.4235 -0.064
50.4538 0.199
50.4840 -0.058
50.5143 -0.470
50.5446 0.315
50.5749 0.059
50.6052 0.376
50.6354 0.173
50.6657 -0.291
50.6960 0.236
50.7263 0.138
50.7565 -0.273
50.7868 0.567
50.8171 0.262
50.8474 0.165
50.8777 0.016
50.9079 -0.184
50.9382 0.188
50.9685 0.197
50.9988 -0.159
51.0291 0.007
51.0593 0.433
51.0896 0.078
51.1199 0.505
51.1502 0.046
51.1804 0.265
51.2107 0.329
51.2410 -0.493
51.2713 -0.274
51.3016 0.570
51.3318 -0.148
51.3621 0.176
51.3924 0.553
51.4227 -0.112
51.4530 0.421
51.4832 0.382
51.5135 0.499
51.5438 0.148
51.5741 0.422
51.6043 0.280
51.6346 0.347
51.6649 0.310
51.6952 -0.405
51.7255 -0.233
51.7557 0.435
51.7860 -0.198
51.8163 0.523
51.8466 0.255
51.8769 0.716
51.9071 0.188
51.9374 -0.080
51.9677 0.278
51.9980 0.168
52.0282 -0.098
52.0585 0.469
52.0888 0.568
52.1191 -0.114
52.1494 0.142
52.1796 0.137
52.2099 0.081
52.2402 0.390
52.2705 0.074
52.3008 0.071
52.3310 0.381
52.3613 0.222
52.3916 -0.041
52.4219 0.322
52.4521 0.425
52.4824 -0.097
52.5127 0.110
52.5430 0.162
52.5733 -0.151
52.6035 -0.151
52.6338 -0.150
52.6641 0.163
52.6944 -0.149
52.7247 0.113
52.7549 0.323
52.7852 -0.091
52.8155 0.640
52.8458 0.018
52.8761 0.177
52.9063 0.128
52.9366 -0.598
52.9669 -0.086
52.9972 0.425
53.0274 0.051
53.0577 0.094
53.0880 -0.227
53.1183 0.026
53.1486 0.070
53.1788 0.219
53.2091 0.211
53.2394 0.204
53.2697 -0.271
53.3000 0.296
53.3302 -0.439
53.3605 -0.028
53.3908 0.279
53.4211 0.326
53.4513 0.009
53.4816 0.109
53.5119 0.104
53.5422 0.205
53.5725 -0.111
53.6027 0.146
53.6330 -0.117
53.6633 0.558
53.6936 0.399
53.7239 0.085
53.7541 -0.073
53.7844 0.395
53.8147 -0.127
53.8450 0.029
53.8752 0.133
53.9055 -0.180
53.9358 0.185
53.9661 0.134
53.9964 0.135
54.0266 0.449
54.0569 0.294
54.0872 0.453
54.1175 0.403
54.1478 -0.220
54.1780 0.148
54.2083 0.776
54.2386 -0.106
54.2689 0.263
54.2991 -0.045
54.3294 -0.041
54.3597 -0.244
54.3900 -0.089
54.4203 0.118
54.4505 0.117
54.4808 0.378
54.5111 0.273
54.5414 0.430
54.5717 0.326
54.6019 -0.350
54.6322 -0.244
54.6625 0.107
54.6928 0.458
54.7230 -0.180
54.7533 0.172
54.7836 -0.256
54.8139 -0.112
54.8442 0.397
54.8744 0.178
54.9047 -0.094
54.9350 0.260
54.9653 0.146
54.9956 0.396
55.0258 0.074
55.0561 1.054
55.0864 0.108
55.1167 0.151
55.1469 -0.014
55.1772 0.239
55.2075 -0.342
55.2378 0.067
55.2681 0.216
55.2983 -0.363
55.3286 -0.167
55.3589 0.706
55.3892 0.226
55.4195 0.475
55.4497 0.620
55.4800 0.245
55.5103 0.026
55.5406 0.172
55.5709 0.840
55.6011 0.570
55.6314 0.561
55.6617 0.500
55.6920 0.856
55.7222 0.484
55.7525 1.049
55.7828 0.989
55.8131 1.555
55.8434 0.610
55.8736 1.958
55.9039 1.535
55.9342 1.894
55.9645 1.211
55.9948 1.883
56.0250 2.138
56.0553 3.384
56.0856 3.588
56.1159 3.792
56.1461 4.466
56.1764 5.139
56.2067 4.668
56.2370 6.800
56.2673 7.058
56.2975 7.942
56.3278 8.721
56.3581 9.293
56.3884 10.281
56.4187 11.582
56.4489 13.040
56.4792 10.332
56.5095 11.530
56.5398 9.291
56.5700 9.760
56.6003 9.553
56.6306 8.773
56.6609 7.160
56.6912 6.850
56.7214 5.758
56.7517 5.501
56.7820 4.410
56.8123 4.205
56.8426 4.104
56.8728 3.119
56.9031 1.977
56.9334 2.398
56.9637 1.466
56.9939 1.836
57.0242 1.529
57.0545 1.430
57.0848 0.760
57.1151 1.131
57.1453 0.877
57.1756 0.624
57.2059 0.840
57.2362 0.379
57.2665 0.335
57.2967 0.656
57.3270 0.039
57.3573 1.090
57.3876 0.735
57.4178 0.224
57.4481 0.129
57.4784 0.244
57.5087 0.359
57.5390 0.266
57.5692 0.589
57.5995 0.445
57.6298 -0.064
57.6601 0.208
57.6904 0.638
57.7206 0.755
57.7509 0.247
57.7812 0.886
57.8115 0.170
57.8417 0.080
57.8720 -0.218
57.9023 -0.255
57.9326 0.161
57.9629 0.108
57.9931 0.107
58.0234 0.159
58.0537 0.524
58.0840 0.473
58.1143 -0.308
58.1445 0.162
58.1748 0.633
58.2051 -0.043
58.2354 -0.092
58.2656 -0.090
58.2959 0.017
58.3262 0.385
58.3565 0.284
58.3868 0.027
58.4170 0.032
58.4473 0.505
58.4776 -0.272
58.5079 -0.111
58.5382 -0.001
58.5684 0.161
58.5987 -0.250
58.6290 -0.198
58.6593 0.115
58.6896 -0.041
58.7198 0.325
58.7501 0.430
58.7804 0.380
58.8107 -0.087
58.8409 0.176
58.8712 0.282
58.9015 -0.288
58.9318 0.601
58.9621 -0.021
58.9923 -0.121
59.0226 0.091
59.0529 0.096
59.0832 -0.160
59.1135 0.158
59.1437 0.059
59.1740 0.273
59.2043 0.175
59.2346 -0.079
59.2648 0.552
59.2951 0.247
59.3254 0.254
59.3557 -0.363
59.3860 -0.212
59.4162 -0.008
59.4465 0.301
59.4768 0.609
59.5071 -0.071
59.5374 0.082
59.5676 0.027
59.5979 0.545
59.6282 0.075
59.6585 -0.240
59.6887 -0.241
59.7190 0.382
59.7493 0.017
59.7796 -0.140
59.8099 -0.244
59.8401 -0.044
59.8704 0.261
59.9007 0.201
59.9310 -0.067
59.9613 0.395
59.9915 -0.236
60.0218 -0.086
60.0521 0.221
60.0824 -0.202
60.1126 -0.311
60.1429 0.256
60.1732 0.041
60.2035 0.036
60.2338 -0.543
60.2640 0.130
60.2943 0.437
60.3246 0.121
60.3549 0.064
60.3852 0.061
60.4154 -0.099
60.4457 0.002
60.4760 -0.001
60.5063 -0.211
60.5365 -0.005
60.5668 0.306
60.5971 0.044
60.6274 0.199
60.6577 -0.219
60.6879 0.406
60.7182 0.093
60.7485 -0.271
60.7788 0.406
60.8091 0.146
60.8393 0.095
60.8696 -0.059
60.8999 -0.058
60.9302 0.048
60.9604 0.103
60.9907 -0.363
61.0210 -0.067
61.0513 -0.134
61.0816 0.163
61.1118 -0.164
61.1421 0.447
61.1724 0.328
61.2027 0.106
61.2330 0.041
61.2632 -0.285
61.2935 0.171
61.3238 -0.363
61.3541 -0.062
61.3844 -0.022
61.4146 -0.294
61.4449 0.163
61.4752 -0.265
61.5055 0.194
61.5357 0.496
61.5660 0.329
61.5963 -0.097
61.6266 -0.731
61.6569 0.301
61.6871 0.136
61.7174 0.336
61.7477 0.172
61.7780 0.581
61.8083 -0.208
61.8385 0.202
61.8688 0.716
61.8991 0.032
61.9294 -0.183
61.9596 0.489
61.9899 0.587
62.0202 0.790
62.0505 0.108
62.0808 0.052
62.1110 1.610
62.1413 1.450
62.1716 1.706
62.2019 0.870
62.2322 1.023
62.2624 1.176
62.2927 2.528
62.3230 2.005
62.3533 3.149
62.3835 2.679
62.4138 3.251
62.4441 3.459
62.4744 4.448
62.5047 6.010
62.5349 6.114
62.5652 6.063
62.5955 7.834
62.6258 8.200
62.6561 9.451
62.6863 10.651
62.7166 10.549
62.7469 9.770
62.7772 10.242
62.8074 12.172
62.8377 9.519
62.8680 9.575
62.8983 6.193
62.9286 7.291
62.9588 6.931
62.9891 5.113
63.0194 4.181
63.0497 3.509
63.0800 3.463
63.1102 2.688
63.1405 2.486
63.1708 2.285
63.2011 1.407
63.2313 1.623
63.2616 1.109
63.2919 1.274
63.3222 1.230
63.3525 0.301
63.3827 1.144
63.4130 0.632
63.4433 0.590
63.4736 0.027
63.5039 0.298
63.5341 0.829
63.5644 0.111
63.5947 0.279
63.6250 0.134
63.6552 -0.427
63.6855 0.575
63.7158 0.588
63.7461 0.184
63.7764 0.301
63.8066 0.940
63.8369 0.537
63.8672 0.447
63.8975 0.565
63.9278 0.164
63.9580 0.127
63.9883 0.090
64.0186 0.210
64.0489 -0.503
64.0791 0.399
64.1094 0.259
64.1397 0.016
64.1700 0.241
64.2003 0.467
64.2305 0.642
64.2608 0.035
64.2911 -0.259
64.3214 -0.009
64.3517 -0.279
64.3819 0.336
64.4122 0.587
64.4425 0.161
64.4728 0.101
64.5031 -0.220
64.5333 0.188
64.5636 -0.080
64.5939 0.694
64.6242 0.479
64.6544 0.159
64.6847 0.205
64.7150 -0.062
64.7453 -0.120
64.7756 -0.229
64.8058 0.443
64.8361 0.229
64.8664 -0.244
64.8967 -0.040
64.9270 0.060
64.9572 0.213
64.9875 -0.363
65.0178 -0.161
65.0481 -0.166
65.0783 -0.015
65.1086 -0.332
65.1389 0.132
65.1692 0.180
65.1995 0.281
65.2297 -0.140
65.2600 -0.091
65.2903 -0.198
65.3206 0.425
65.3509 0.006
65.3811 -0.048
65.4114 0.107
65.4417 -0.467
65.4720 -0.070
65.5022 0.171
65.5325 0.308
65.5628 0.394
65.5931 0.063
65.6234 -0.163
65.6536 -0.337
65.6839 0.219
65.7142 -0.059
65.7445 0.133
65.7748 0.117
65.8050 0.153
65.8353 0.659
65.8656 -0.294
65.8959 0.056
65.9261 0.562
65.9564 0.340
65.9867 -0.091
66.0170 0.000
66.0473 0.611
66.0775 0.494
66.1078 0.586
66.1381 0.938
66.1684 0.770
66.1987 0.289
66.2289 0.799
66.2592 0.944
66.2895 0.673
66.3198 0.454
66.3500 0.392
66.3803 0.799
66.4106 0.841
66.4409 0.936
66.4712 1.032
66.5014 0.242
66.5317 0.755
66.5620 0.278
66.5923 -0.198
66.6226 0.263
66.6528 -0.316
66.6831 0.146
66.7134 0.296
66.7437 -0.127
66.7739 0.232
66.8042 0.175
66.8345 -0.247
66.8648 -0.095
66.8951 -0.308
66.9253 -0.004
66.9556 -0.221
66.9859 -0.282
67.0162 0.075
67.0465 0.224
67.0767 -0.044
67.1070 -0.103
67.1373 -0.318
67.1676 0.561
67.1978 -0.278
67.2281 0.342
67.2584 0.024
67.2887 0.175
67.3190 0.952
67.3492 0.374
67.3795 0.526
67.4098 1.721
67.4401 1.665
67.4704 1.818
67.5006 1.763
67.5309 3.011
67.5612 2.748
67.5915 2.799
67.6218 4.828
67.6520 4.358
67.6823 4.462
67.7126 4.930
67.7429 6.388
67.7731 5.034
67.8034 5.712
67.8337 7.223
67.8640 6.078
67.8943 5.090
67.9245 4.623
67.9548 4.312
67.9851 5.773
68.0154 4.213
68.0457 3.747
68.0759 3.959
68.1062 4.171
68.1365 3.237
68.1668 2.043
68.1970 1.840
68.2273 1.792
68.2576 1.641
68.2879 1.282
68.3182 0.507
68.3484 1.190
68.3787 0.728
68.4090 0.526
68.4393 0.637
68.4696 1.218
68.4998 0.236
68.5301 1.233
68.5604 0.513
68.5907 0.730
68.6209 0.947
68.6512 1.269
68.6815 0.758
68.7118 1.080
68.7421 1.767
68.7723 1.101
68.8026 1.945
68.8329 2.321
68.8632 2.020
68.8935 2.188
68.9237 3.346
68.9540 3.098
68.9843 3.267
69.0146 3.124
69.0448 2.408
69.0751 2.318
69.1054 1.447
69.1357 2.086
69.1660 1.997
69.1962 1.126
69.2265 2.183
69.2568 1.105
69.2871 0.444
69.3174 0.513
69.3476 1.258
69.3779 0.702
69.4082 0.407
69.4385 0.893
69.4687 0.391
69.4990 -0.112
69.5293 0.011
69.5596 0.550
69.5899 0.361
69.6201 0.224
69.6504 0.140
69.6807 0.473
69.7110 -0.028
69.7413 0.201
69.7715 -0.246
69.8018 -0.173
69.8321 -0.255
69.8624 0.128
69.8926 0.043
69.9229 -0.093
69.9532 0.447
69.9835 0.259
70.0138 -0.137
70.0440 0.457
70.0743 -0.043
70.1046 0.500
70.1349 0.001
70.1652 0.127
70.1954 -0.007
70.2257 0.120
70.2560 0.247
70.2863 -0.302
70.3166 0.450
70.3468 -0.203
70.3771 0.082
70.4074 -0.154
70.4377 -0.389
70.4679 0.179
70.4982 -0.033
70.5285 -0.090
70.5588 0.428
70.5891 0.008
70.6193 0.265
70.6496 0.523
70.6799 0.260
70.7102 -0.107
70.7405 0.204
70.7707 0.515
70.8010 0.514
70.8313 0.148
70.8616 0.043
70.8918 -0.113
70.9221 0.252
70.9524 0.304
70.9827 -0.268
71.0130 -0.215
71.0432 -0.062
71.0735 0.351
71.1038 0.036
71.1341 -0.071
71.1644 -0.021
71.1946 0.237
71.2249 -0.285
71.2552 0.494
71.2855 -0.392
71.3157 -0.028
71.3460 0.128
71.3763 -0.133
71.4066 -0.185
71.4369 -0.028
71.4671 0.077
71.4974 -0.078
71.5277 -0.285
71.5580 0.126
71.5883 0.536
71.6185 0.062
71.6488 0.004
71.6791 0.052
71.7094 -0.214
71.7396 0.043
71.7699 0.091
71.8002 -0.121
71.8305 0.344
71.8608 -0.336
71.8910 -0.131
71.9213 -0.133
71.9516 -0.083
71.9819 0.384
72.0122 -0.034
72.0424 0.069
72.0727 0.016
72.1030 0.223
72.1333 0.171
72.1635 0.275
72.1938 -0.037
72.2241 0.277
72.2544 0.538
72.2847 -0.138
72.3149 0.229
72.3452 0.491
72.3755 0.181
72.4058 0.704
72.4361 0.811
72.4663 0.554
72.4966 0.558
72.5269 0.458
72.5572 0.879
72.5874 0.623
72.6177 0.576
72.6480 0.060
72.6783 0.638
72.7086 -0.241
72.7388 0.025
72.7691 0.396
72.7994 -0.066
72.8297 -0.215
72.8600 -0.003
72.8902 0.052
72.9205 0.004
72.9508 0.165
72.9811 0.325
73.0113 0.174
73.0416 0.127
73.0719 -0.180
73.1022 0.242
73.1325 0.405
73.1627 0.203
73.1930 0.105
73.2233 0.008
73.2536 -0.036
73.2839 -0.185
73.3141 0.552
73.3444 0.196
73.3747 0.673
73.4050 0.370
73.4353 0.067
73.4655 -0.445
73.4958 0.294
73.5261 -0.008
73.5564 0.159
73.5866 0.118
73.6169 0.337
73.6472 0.401
73.6775 0.100
73.7078 -0.148
73.7380 -0.188
73.7683 -0.144
73.7986 0.109
73.8289 -0.054
73.8592 0.199
73.8894 0.192
73.9197 0.082
73.9500 -0.028
73.9803 -0.034
74.0105 0.169
74.0408 0.164
74.0711 0.263
74.1014 0.207
74.1317 -0.162
74.1619 0.146
74.1922 -0.117
74.2225 0.192
74.2528 0.241
74.2831 0.134
74.3133 -0.389
74.3436 -0.026
74.3739 0.077
74.4042 0.023
74.4344 -0.030
74.4647 -0.135
74.4950 -0.083
74.5253 -0.187
74.5556 0.282
74.5858 0.231
74.6161 -0.029
74.6464 0.077
74.6767 0.130
74.7070 0.028
74.7372 -0.022
74.7675 -0.176
74.7978 0.140
74.8281 0.143
74.8583 -0.270
74.8886 -0.006
74.9189 0.102
74.9492 0.211
74.9795 0.007
75.0097 0.065
75.0400 0.330
75.0703 0.024
75.1006 -0.127
75.1309 -0.172
75.1611 0.199
75.1914 0.050
75.2217 -0.151
75.2520 -0.144
75.2822 -0.188
75.3125 -0.035
75.3428 -0.089
75.3731 -0.092
75.4034 0.531
75.4336 0.061
75.4639 0.372
75.4942 0.579
75.5245 -0.307
75.5548 -0.047
75.5850 0.317
75.6153 -0.151
75.6456 0.005
75.6759 -0.150
75.7061 -0.097
75.7364 0.061
75.7667 0.271
75.7970 0.325
75.8273 0.275
75.8575 -0.191
75.8878 -0.188
75.9181 0.066
75.9484 -0.149
75.9787 0.521
76.0089 0.099
76.0392 -0.116
76.0695 -0.121
76.0998 0.239
76.1301 -0.183
76.1603 0.281
76.1906 0.173
76.2209 -0.091
76.2512 0.374
76.2814 0.267
76.3117 0.055
76.3420 0.209
76.3723 -0.314
76.4026 0.518
76.4328 -0.109
76.4631 -0.006
76.4934 0.722
76.5237 0.305
76.5540 0.721
76.5842 0.721
76.6145 0.409
76.6448 0.982
76.6751 0.619
76.7053 0.724
76.7356 0.569
76.7659 0.415
76.7962 0.626
76.8265 0.628
76.8567 0.631
76.8870 0.738
76.9173 0.638
76.9476 1.371
76.9779 0.750
77.0081 1.379
77.0384 0.238
77.0687 0.556
77.0990 0.822
77.1292 0.879
77.1595 0.990
77.1898 0.788
77.2201 0.378
77.2504 0.697
77.2806 0.392
77.3109 0.295
77.3412 0.616
77.3715 0.364
77.4018 0.112
77.4320 0.173
77.4623 0.286
77.4926 0.139
77.5229 0.201
77.5531 -0.049
77.5834 0.430
77.6137 -0.132
77.6440 -0.173
77.6743 0.130
77.7045 0.329
77.7348 0.060
77.7651 0.364
77.7954 0.408
77.8257 0.296
77.8559 -0.129
77.8862 0.020
77.9165 0.534
77.9468 -0.097
77.9770 -0.052
78.0073 0.463
78.0376 0.353
78.0679 -0.121
78.0982 -0.126
78.1284 -0.131
78.1587 0.125
78.1890 0.121
78.2193 0.326
78.2496 -0.198
78.2798 -0.097
78.3101 -0.152
78.3404 0.053
78.3707 -0.209
78.4009 0.101
78.4312 -0.056
78.4615 0.047
78.4918 0.098
78.5221 -0.007
78.5523 0.097
78.5826 0.201
78.6129 0.201
78.6432 0.046
78.6735 -0.110
78.7037 -0.056
78.7340 -0.159
78.7643 0.104
78.7946 -0.363
78.8248 -0.050
78.8551 -0.311
78.8854 0.101
78.9157 -0.163
78.9460 -0.011
78.9762 0.037
79.0065 -0.175
79.0368 0.135
79.0671 0.080
79.0974 0.286
79.1276 -0.185
79.1579 0.022
79.1882 0.020
79.2185 -0.033
79.2488 0.018
79.2790 0.122
79.3093 0.122
79.3396 0.330
79.3699 0.278
79.4001 0.227
79.4304 -0.189
79.4607 0.229
79.4910 -0.133
79.5213 -0.184
79.5515 -0.129
79.5818 0.186
79.6121 0.137
79.6424 -0.068
79.6727 -0.117
79.7029 -0.165
79.7332 0.048
79.7635 -0.052
79.7938 -0.099
79.8240 0.010
79.8543 -0.140
79.8846 -0.134
79.9149 0.132
79.9452 -0.070
79.9754 0.041
80.0057 0.309
80.0360 0.160
80.0663 0.428
80.0966 0.124
80.1268 -0.180
80.1571 -0.190
80.1874 0.373
80.2177 0.520
80.2479 -0.062
80.2782 0.034
80.3085 0.338
80.3388 -0.138
80.3691 0.167
80.3993 -0.205
80.4296 0.309
80.4599 0.146
80.4902 -0.173
80.5205 0.081
80.5507 0.128
80.5810 -0.034
80.6113 0.274
80.6416 0.061
80.6718 -0.152
80.7021 0.156
80.7324 -0.212
80.7627 0.253
80.7930 -0.062
80.8232 -0.221
80.8535 0.505
80.8838 -0.122
80.9141 0.085
80.9444 0.135
80.9746 0.707
81.0049 0.602
81.0352 0.184
81.0655 0.549
81.0957 0.445
81.1260 0.341
81.1563 0.237
81.1866 0.655
81.2169 0.240
81.2471 0.189
81.2774 0.556
81.3077 0.246
81.3380 1.082
81.3683 0.355
81.3985 0.515
81.4288 0.258
81.4591 0.470
81.4894 0.162
81.5196 0.739
81.5499 -0.141
81.5802 0.020
81.6105 -0.079
81.6408 -0.177
81.6710 0.298
81.7013 -0.112
81.7316 0.051
81.7619 0.266
81.7922 -0.248
81.8224 -0.188
81.8527 -0.034
81.8830 0.016
81.9133 0.795
81.9436 -0.040
81.9738 0.219
82.0041 0.009
82.0344 -0.096
82.0647 0.112
82.0949 0.008
82.1252 0.217
82.1555 -0.200
82.1858 -0.042
82.2161 0.219
82.2463 0.012
82.2766 -0.090
82.3069 -0.036
82.3372 -0.138
82.3675 -0.135
82.3977 0.181
82.4280 -0.337
82.4583 -0.128
82.4886 -0.127
82.5188 -0.126
82.5491 0.084
82.5794 -0.123
82.6097 0.140
82.6400 0.194
82.6702 -0.167
82.7005 0.096
82.7308 -0.109
82.7611 0.103
82.7914 0.055
82.8216 -0.045
82.8519 0.116
82.8822 0.173
82.9125 -0.082
82.9427 -0.285
82.9730 0.130
83.0033 0.129
83.0336 -0.080
83.0639 0.127
83.0941 -0.082
83.1244 0.074
83.1547 0.075
83.1850 0.127
83.2153 0.076
83.2455 0.181
83.2758 -0.078
83.3061 0.080
83.3364 0.186
83.3666 -0.228
83.3969 -0.121
83.4272 -0.170
83.4575 -0.062
83.4878 0.098
83.5180 0.258
83.5483 0.002
83.5786 0.215
83.6089 0.428
83.6392 -0.036
83.6694 0.074
83.6997 -0.493
83.7300 -0.030
83.7603 0.328
83.7905 0.115
83.8208 0.109
83.8511 0.261
83.8814 -0.056
83.9117 -0.061
83.9419 -0.377
83.9722 0.244
84.0025 -0.123
84.0328 0.342
84.0631 0.392
84.0933 -0.184
84.1236 -0.081
84.1539 0.229
84.1842 0.228
84.2144 -0.086
84.2447 0.122
84.2750 0.174
84.3053 0.226
84.3356 -0.087
84.3658 -0.086
84.3961 0.123
84.4264 0.020
84.4567 0.126
84.4870 -0.237
84.5172 0.025
84.5475 -0.180
84.5778 -0.127
84.6081 0.030
84.6383 0.188
84.6686 0.138
84.6989 0.036
84.7292 -0.118
84.7595 0.301
84.7897 0.044
84.8200 0.099
84.8503 0.103
84.8806 -0.049
84.9109 -0.149
84.9411 0.012
84.9714 -0.035
85.0017 0.179
85.0320 0.184
85.0623 -0.018
85.0925 0.093
85.1228 0.151
85.1531 -0.206
85.1834 -0.104
85.2136 -0.002
85.2439 -0.003
85.2742 -0.108
85.3045 0.152
85.3348 -0.057
85.3650 -0.161
85.3953 0.308
85.4256 -0.160
85.4559 0.206
85.4862 -0.054
85.5164 0.052
85.5467 -0.206
85.5770 -0.005
85.6073 0.145
85.6375 0.294
85.6678 0.080
85.6981 0.491
85.7284 0.382
85.7587 0.533
85.7889 -0.201
85.8192 0.576
85.8495 -0.001
85.8798 0.724
85.9101 -0.165
85.9403 0.040
85.9706 -0.119
86.0009 0.243
86.0312 -0.020
86.0614 0.135
86.0917 0.237
86.1220 0.080
86.1523 0.079
86.1826 -0.130
86.2128 0.078
86.2431 0.234
86.2734 -0.130
86.3037 0.079
86.3340 -0.285
86.3642 -0.025
86.3945 0.391
86.4248 0.390
86.4551 0.130
86.4853 0.130
86.5156 0.131
86.5459 0.132
86.5762 0.133
86.6065 -0.282
86.6367 -0.072
86.6670 0.034
86.6973 0.401
86.7276 0.352
86.7579 0.199
86.7881 0.254
86.8184 -0.054
86.8487 -0.259
86.8790 0.099
86.9092 0.144
86.9395 0.553
86.9698 0.078
87.0001 0.124
87.0304 0.066
87.0606 0.269
87.0909 0.055
87.1212 -0.054
87.1515 -0.111
87.1818 0.041
87.2120 -0.015
87.2423 -0.018
87.2726 0.031
87.3029 0.132
87.3331 -0.340
87.3634 0.335
87.3937 0.385
87.4240 -0.138
87.4543 0.017
87.4845 -0.348
87.5148 0.588
87.5451 -0.193
87.5754 0.275
87.6057 0.171
87.6359 -0.089
87.6662 0.068
87.6965 0.122
87.7268 0.019
87.7571 -0.188
87.7873 -0.091
87.8176 -0.149
87.8479 0.105
87.8782 -0.214
87.9084 0.145
87.9387 -0.016
87.9690 0.135
87.9993 -0.443
88.0296 0.178
88.0598 -0.087
88.0901 -0.143
88.1204 0.271
88.1507 0.163
88.1810 0.213
88.2112 -0.415
88.2415 -0.168
88.2718 -0.130
88.3021 0.117
88.3323 0.261
88.3626 -0.064
88.3929 0.028
88.4232 0.016
88.4535 0.056
88.4837 -0.059
88.5140 -0.018
88.5443 -0.133
88.5746 -0.091
88.6049 0.107
88.6351 0.097
88.6654 -0.329
88.6957 0.548
88.7260 0.070
88.7562 0.010
88.7865 -0.259
88.8168 0.045
88.8471 0.141
88.8774 0.029
88.9076 0.021
88.9379 -0.142
88.9682 0.111
88.9985 0.469
89.0288 -0.162
89.0590 0.144
89.0893 1.024
89.1196 0.446
89.1499 0.285
89.1801 0.592
89.2104 0.328
89.2407 0.376
89.2710 0.320
89.3013 0.733
89.3315 0.209
89.3618 0.987
89.3921 0.933
89.4224 0.879
89.4527 1.345
89.4829 1.136
89.5132 1.030
89.5435 1.342
89.5738 0.925
89.6040 0.299
89.6343 1.706
89.6646 1.081
89.6949 0.977
89.7252 0.874
89.7554 0.876
89.7857 1.242
89.8160 0.567
89.8463 0.882
89.8766 0.624
89.9068 0.731
89.9371 0.317
89.9674 0.321
89.9977 0.221
90.0279 -0.348
90.0582 0.281
90.0885 0.130
90.1188 0.135
90.1491 0.401
90.1793 0.251
90.2096 0.048
90.2399 -0.102
90.2702 -0.043
90.3005 -0.140
90.3307 0.024
90.3610 0.031
90.3913 -0.221
90.4216 -0.160
90.4518 0.422
90.4821 -0.142
90.5124 0.284
90.5427 0.086
90.5730 -0.060
90.6032 0.159
90.6335 -0.351
90.6638 0.129
90.6941 0.245
90.7244 0.153
90.7546 0.269
90.7849 -0.031
90.8152 0.190
90.8455 0.203
90.8758 -0.096
90.9060 0.126
90.9363 -0.120
90.9666 -0.001
90.9969 -0.195
91.0271 -0.192
91.0574 0.176
91.0877 -0.289
91.1180 0.339
91.1483 0.031
91.1785 -0.068
91.2088 -0.220
91.2391 0.254
91.2694 0.103
91.2997 -0.047
91.3299 0.115
91.3602 0.017
91.3905 -0.028
91.4208 -0.021
91.4510 0.299
91.4813 -0.006
91.5116 0.106
91.5419 -0.042
91.5722 -0.033
91.6024 -0.180
91.6327 -0.038
91.6630 -0.052
91.6933 -0.222
91.7236 0.338
91.7538 0.429
91.7841 0.208
91.8144 0.092
91.8447 -0.233
91.8749 -0.035
91.9052 0.162
91.9355 0.256
91.9658 0.298
91.9961 0.027
92.0263 0.591
92.0566 -0.096
92.0869 0.156
92.1172 -0.218
92.1475 0.191
92.1777 -0.025
92.2080 0.175
92.2383 0.220
92.2686 0.369
92.2988 -0.002
92.3291 -0.269
92.3594 0.350
92.3897 -0.229
92.4200 0.130
92.4502 0.073
92.4805 0.381
92.5108 -0.197
92.5411 0.424
92.5714 0.681
92.6016 0.469
92.6319 0.257
92.6622 0.150
92.6925 0.200
92.7227 -0.167
92.7530 0.560
92.7833 0.507
92.8136 0.662
92.8439 0.088
92.8741 0.764
92.9044 0.347
92.9347 0.191
92.9650 0.347
92.9953 0.296
93.0255 0.193
93.0558 0.090
93.0861 -0.378
93.1164 0.145
93.1466 -0.009
93.1769 -0.215
93.2072 -0.003
93.2375 0.053
93.2678 0.213
93.2980 0.322
93.3283 -0.247
93.3586 -0.033
93.3889 0.493
93.4192 -0.283
93.4494 0.036
93.4797 0.198
93.5100 0.101
93.5403 0.160
93.5706 0.167
93.6008 0.174
93.6311 0.026
93.6614 0.138
93.6917 0.199
93.7219 -0.261
93.7522 0.113
93.7825 -0.034
93.8128 -0.233
93.8431 0.087
93.8733 0.354
93.9036 -0.211
93.9339 -0.151
93.9642 -0.195
93.9945 -0.052
94.0247 0.664
94.0550 -0.339
94.0853 0.065
94.1156 0.157
94.1458 0.406
94.1761 0.186
94.2064 -0.242
94.2367 -0.045
94.2670 0.049
94.2972 0.091
94.3275 0.393
94.3578 -0.137
94.3881 0.166
94.4184 0.157
94.4486 0.044
94.4789 -0.069
94.5092 0.183
94.5395 0.124
94.5697 0.689
94.6000 -0.308
94.6303 0.571
94.6606 0.200
94.6909 0.298
94.7211 0.709
94.7514 0.755
94.7817 0.177
94.8120 0.589
94.8423 0.740
94.8725 0.215
94.9028 0.524
94.9331 0.520
94.9634 0.673
94.9936 0.514
95.0239 0.771
95.0542 1.029
95.0845 0.767
95.1148 1.026
95.1450 1.076
95.1753 0.659
95.2056 1.022
95.2359 1.074
95.2662 0.918
95.2964 1.126
95.3267 1.752
95.3570 1.075
95.3873 0.347
95.4175 1.078
95.4478 0.611
95.4781 1.030
95.5084 1.136
95.5387 0.826
95.5689 0.517
95.5992 0.312
95.6295 0.524
95.6598 0.945
95.6901 0.324
95.7203 0.224
95.7506 0.385
95.7809 0.495
95.8112 0.084
95.8414 -0.067
95.8717 0.252
95.9020 0.155
95.9323 -0.412
95.9626 0.585
95.9928 0.020
96.0231 -0.233
96.0534 0.034
96.0837 -0.271
96.1140 0.153
96.1442 0.056
96.1745 -0.092
96.2048 0.229
96.2351 -0.023
96.2653 -0.274
96.2956 0.100
96.3259 0.005
96.3562 0.484
96.3865 0.025
96.4167 0.244
96.4470 -0.370
96.4773 0.266
96.5076 0.434
96.5379 0.081
96.5681 0.146
96.5984 -0.207
96.6287 -0.108
96.6590 0.095
96.6893 0.298
96.7195 0.137
96.7498 0.133
96.7801 0.337
96.8104 0.021
96.8406 -0.399
96.8709 0.119
96.9012 0.116
96.9315 0.218
96.9618 -0.045
96.9920 0.058
97.0223 0.317
97.0526 0.107
97.0829 -0.258
97.1132 0.262
97.1434 0.001
97.1737 0.105
97.2040 0.106
97.2343 -0.050
97.2645 0.264
97.2948 0.057
97.3251 -0.202
97.3554 -0.056
97.3857 0.037
97.4159 -0.285
97.4462 0.122
97.4765 0.268
97.5068 -0.105
97.5371 -0.010
97.5673 -0.071
97.5976 0.129
97.6279 0.330
97.6582 0.114
97.6884 -0.102
97.7187 0.048
97.7490 0.458
97.7793 -0.278
97.8096 -0.024
97.8398 -0.185
97.8701 0.122
97.9004 -0.040
97.9307 -0.044
97.9610 0.785
97.9912 0.208
98.0215 0.725
98.0518 0.148
98.0821 0.093
98.1123 0.455
98.1426 0.608
98.1729 -0.019
98.2032 -0.021
98.2335 0.707
98.2637 0.029
98.2940 0.080
98.3243 0.236
98.3546 0.131
98.3849 0.548
98.4151 0.496
98.4454 0.340
98.4757 0.602
98.5060 0.082
98.5362 1.022
98.5665 0.815
98.5968 0.661
98.6271 0.507
98.6574 -0.010
98.6876 0.618
98.7179 0.621
98.7482 0.833
98.7785 0.421
98.8088 0.113
98.8390 0.430
98.8693 0.279
98.8996 0.233
98.9299 0.030
98.9601 0.088
98.9904 0.407
99.0207 -0.315
99.0510 0.212
99.0813 0.220
99.1115 -0.033
99.1418 0.444
99.1721 0.192
99.2024 -0.268
99.2327 0.261
99.2629 0.948
99.2932 0.541
99.3235 0.498
99.3538 -0.064
99.3841 -0.002
99.4143 0.530
99.4446 -0.240
99.4749 -0.072
99.5052 0.044
99.5354 0.160
99.5657 0.016
99.5960 -0.179
99.6263 0.250
99.6566 -0.361
99.6868 0.382
99.7171 0.031
99.7474 0.254
99.7777 -0.044
99.8080 -0.029
99.8382 -0.066
99.8685 -0.206
99.8988 0.102
99.9291 0.307
99.9593 0.252
99.9896 -0.116
100.0199 0.194
100.0502 0.140
100.0805 0.346
100.1107 -0.489
100.1410 0.135
100.1713 0.030
100.2016 0.602
100.2319 -0.023
100.2621 0.498
100.2924 0.186
100.3227 -0.074
100.3530 -0.021
100.3832 0.136
100.4135 -0.018
100.4438 0.088
100.4741 0.142
100.5044 0.353
100.5346 0.095
100.5649 0.046
100.5952 0.102
100.6255 0.054
100.6558 0.266
100.6860 -0.094
100.7163 0.119
100.7466 -0.084
100.7769 0.234
100.8071 0.344
100.8374 0.193
100.8677 0.669
100.8980 0.154
100.9283 0.161
100.9585 0.221
100.9888 -0.032
101.0191 -0.232
101.0494 0.066
101.0797 0.052
101.1099 -0.118
101.1402 0.130
101.1705 0.012
101.2008 0.417
101.2310 0.040
101.2613 0.028
101.2916 0.589
101.3219 0.109
101.3522 0.306
101.3824 0.296
101.4127 -0.131
101.4430 -0.089
101.4733 0.213
101.5036 -0.161
101.5338 -0.065
101.5641 0.030
101.5944 -0.135
101.6247 0.274
101.6549 0.162
101.6852 -0.158
101.7155 0.512
101.7458 -0.172
101.7761 0.134
101.8063 0.284
101.8366 -0.191
101.8669 -0.196
101.8972 -0.202
101.9275 -0.009
101.9577 0.236
101.9880 -0.092
102.0183 0.206
102.0486 0.295
102.0788 0.021
102.1091 0.215
102.1394 -0.267
102.1697 0.136
102.2000 0.227
102.2302 -0.046
102.2605 -0.006
102.2908 0.086
102.3211 -0.082
102.3514 0.167
102.3816 -0.052
102.4119 0.302
102.4422 0.291
102.4725 0.542
102.5028 0.115
102.5330 -0.259
102.5633 -0.060
102.5936 0.452
102.6239 0.131
102.6541 -0.138
102.6844 0.531
102.7147 0.107
102.7450 0.516
102.7753 0.092
102.8055 -0.123
102.8358 0.339
102.8661 0.229
102.8964 0.171
102.9267 0.582
102.9569 0.108
102.9872 -0.313
103.0175 -0.005
103.0478 0.251
103.0780 0.299
103.1083 0.139
103.1386 -0.228
103.1689 0.237
103.1992 0.495
103.2294 0.024
103.2597 0.230
103.2900 -0.084
103.3203 0.279
103.3506 -0.138
103.3808 0.017
103.4111 0.017
103.4414 0.538
103.4717 -0.035
103.5019 0.226
103.5322 -0.034
103.5625 0.384
103.5928 0.282
103.6231 -0.394
103.6533 0.077
103.6836 0.496
103.7139 0.603
103.7442 0.033
103.7745 0.506
103.8047 0.614
103.8350 0.930
103.8653 0.934
103.8956 0.575
103.9258 0.684
103.9561 0.325
103.9864 1.163
104.0167 1.013
104.0470 0.238
104.0772 1.078
104.1075 0.564
104.1378 0.103
104.1681 0.579
104.1984 0.326
104.2286 0.751
104.2589 0.135
104.2892 0.248
104.3195 1.247
104.3497 0.214
104.3800 0.068
104.4103 0.911
104.4406 0.401
104.4709 0.307
104.5011 0.475
104.5314 0.174
104.5617 0.602
104.5920 0.666
104.6223 0.314
104.6525 0.170
104.6828 0.287
104.7131 0.353
104.7434 0.627
104.7736 -0.089
104.8039 -0.022
104.8342 0.044
104.8645 0.268
104.8948 -0.186
104.9250 0.194
104.9553 -0.207
104.9856 -0.148
105.0159 0.328
105.0462 0.388
105.0764 -0.125
105.1067 0.456
105.1370 0.048
105.1673 -0.047
105.1975 0.483
105.2278 0.284
105.2581 -0.123
105.2884 -0.009
105.3187 -0.207
105.3489 0.046
105.3792 0.247
105.4095 -0.177
105.4398 0.077
105.4701 0.383
105.5003 0.220
105.5306 0.631
105.5609 0.313
105.5912 -0.109
105.6215 -0.114
105.6517 -0.119
105.6820 0.137
105.7123 0.029
105.7426 -0.131
105.7728 0.178
105.8031 0.227
105.8334 -0.088
105.8637 0.014
105.8940 -0.092
105.9242 -0.042
105.9545 0.321
105.9848 -0.149
106.0151 -0.202
106.0454 -0.099
106.0756 0.161
106.1059 -0.048
106.1362 -0.048
106.1665 0.056
106.1967 -0.099
106.2270 0.006
106.2573 -0.202
106.2876 -0.151
106.3179 0.421
106.3481 -0.101
106.3784 -0.206
106.4087 0.211
106.4390 -0.049
106.4693 0.160
106.4995 0.473
106.5298 -0.255
106.5601 -0.202
106.5904 0.207
106.6206 -0.009
106.6509 0.400
106.6812 0.132
106.7115 -0.083
106.7418 -0.194
106.7720 -0.044
106.8023 0.158
106.8326 0.101
106.8629 0.304
106.8932 0.403
106.9234 -0.070
106.9537 0.029
106.9840 -0.183
107.0143 -0.187
107.0445 0.122
107.0748 -0.141
107.1051 -0.196
107.1354 0.270
107.1657 -0.096
107.1959 0.266
107.2262 0.161
107.2565 -0.101
107.2868 -0.102
107.3171 -0.050
107.3473 0.054
107.3776 0.106
107.4079 0.106
107.4382 -0.205
107.4684 -0.152
107.4987 0.109
107.5290 -0.149
107.5593 -0.199
107.5896 0.324
107.6198 -0.194
107.6501 0.225
107.6804 -0.032
107.7107 0.284
107.7410 0.080
107.7712 -0.176
107.8015 0.245
107.8318 -0.427
107.8621 -0.058
107.8923 -0.208
107.9226 -0.158
107.9529 0.048
107.9832 -0.057
108.0135 -0.214
108.0437 0.410
108.0740 0.149
108.1043 -0.736
108.1346 0.097
108.1649 0.046
108.1951 0.203
108.2254 -0.056
108.2557 0.310
108.2860 0.208
108.3163 -0.259
108.3465 0.004
108.3768 -0.202
108.4071 -0.094
108.4374 0.065
108.4676 0.225
108.4979 -0.135
108.5282 0.026
108.5585 0.447
108.5888 0.140
108.6190 -0.063
108.6493 0.046
108.6796 0.209
108.7099 -0.202
108.7402 -0.263
108.7704 0.353
108.8007 0.500
108.8310 -0.081
108.8613 0.171
108.8915 0.371
108.9218 0.260
108.9521 -0.060
108.9824 0.141
109.0127 -0.021
109.0429 0.024
109.0732 -0.034
109.1035 -0.248
109.1338 0.476
109.1641 0.263
109.1943 0.154
109.2246 -0.215
109.2549 -0.172
109.2852 -0.130
109.3154 0.174
109.3457 0.009
109.3760 0.053
109.4063 -0.164
109.4366 0.349
109.4668 0.185
109.4971 -0.238
109.5274 0.119
109.5577 0.217
109.5880 0.003
109.6182 -0.212
109.6485 0.252
109.6788 -0.118
109.7091 0.554
109.7393 0.185
109.7696 0.337
109.7999 -0.032
109.8302 0.121
109.8605 0.586
109.8907 0.062
109.9210 0.216
109.9513 0.422
109.9816 -0.205
110.0119 0.314
110.0421 0.052
110.0724 -0.001
110.1027 0.571
110.1330 0.310
110.1632 0.362
110.1935 0.623
110.2238 0.102
110.2541 -0.001
110.2844 0.521
110.3146 0.054
110.3449 0.941
110.3752 -0.255
110.4055 0.268
110.4358 0.167
110.4660 0.326
110.4963 0.434
110.5266 0.802
110.5569 0.389
110.5871 0.289
110.6174 0.502
110.6477 0.455
110.6780 0.044
110.7083 -0.003
110.7385 0.107
110.7688 0.061
110.7991 0.120
110.8294 0.752
110.8597 0.238
110.8899 0.454
110.9202 0.306
110.9505 0.366
110.9808 0.218
111.0110 -0.086
111.0413 -0.233
111.0716 0.131
111.1019 0.234
111.1322 -0.027
111.1624 -0.027
111.1927 0.025
111.2230 0.130
111.2533 -0.130
111.2836 -0.233
111.3138 0.184
111.3441 0.444
111.3744 -0.181
111.4047 0.029
111.4350 -0.127
111.4652 -0.125
111.4955 -0.020
111.5258 -0.226
111.5561 0.141
111.5863 -0.065
111.6166 -0.010
111.6469 -0.215
111.6772 -0.119
111.7075 0.185
111.7377 -0.083
111.7680 0.170
111.7983 0.162
111.8286 0.364
111.8589 0.201
111.8891 0.142
111.9194 -0.072
111.9497 -0.078
111.9800 0.334
112.0102 -0.140
112.0405 0.011
112.0708 0.163
112.1011 0.107
112.1314 -0.209
112.1616 0.048
112.1919 0.044
112.2222 0.198
112.2525 0.300
112.2828 -0.223
112.3130 -0.173
112.3433 -0.331
112.3736 0.345
112.4039 0.500
112.4341 0.239
112.4644 0.343
112.4947 0.030
112.5250 0.187
112.5553 -0.177
112.5855 -0.176
112.6158 0.190
112.6461 0.087
112.6764 -0.379
112.7067 0.717
112.7369 0.042
112.7672 -0.215
112.7975 0.621
112.8278 0.104
112.8580 -0.101
112.8883 0.008
112.9186 0.533
112.9489 0.330
112.9792 0.126
113.0094 0.028
113.0397 -0.123
113.0700 -0.221
113.1003 0.096
113.1306 -0.003
113.1608 0.366
113.1911 0.216
113.2214 -0.351
113.2517 0.280
113.2819 0.234
113.3122 0.033
113.3425 0.300
113.3728 -0.422
113.4031 0.211
113.4333 0.427
113.4636 -0.033
113.4939 -0.233
113.5242 0.087
113.5545 0.042
113.5847 0.466
113.6150 0.213
113.6453 -0.039
113.6756 -0.083
113.7058 0.395
113.7361 0.144
113.7664 0.049
113.7967 -0.202
113.8270 -0.113
113.8572 0.028
113.8875 0.377
113.9178 0.310
113.9481 0.660
113.9784 0.177
114.0086 0.424
114.0389 0.150
114.0692 0.085
114.0995 0.697
114.1298 0.007
114.1600 0.099
114.1903 -0.173
114.2206 0.232
114.2509 0.117
114.2811 -0.519
114.3114 -0.063
114.3417 0.289
114.3720 0.172
114.4023 -0.152
114.4325 0.201
114.4628 0.190
114.4931 0.179
114.5234 0.064
114.5537 -0.050
114.5839 0.148
114.6142 0.034
114.6445 0.077
114.6748 0.016
114.7050 0.164
114.7353 -0.105
114.7656 -0.113
114.7959 -0.017
114.8262 0.080
114.8564 0.438
114.8867 -0.246
114.9170 -0.096
114.9473 0.314
114.9776 0.204
115.0078 0.094
115.0381 0.558
115.0684 -0.384
115.0987 0.028
115.1289 0.649
115.1592 -0.605
115.1895 -0.140
115.2198 0.534
115.2501 0.114
115.2803 0.059
115.3106 0.213
115.3409 -0.049
115.3712 -0.259
115.4015 0.099
115.4317 0.145
115.4620 -0.069
115.4923 -0.126
115.5226 -0.079
115.5528 0.281
115.5831 -0.245
115.6134 -0.040
115.6437 0.373
115.6740 0.629
115.7042 0.314
115.7345 -0.158
115.7648 -0.004
115.7951 0.046
115.8254 0.044
115.8556 0.928
115.8859 -0.219
115.9162 1.238
115.9465 0.404
115.9767 -0.013
116.0070 -0.013
116.0373 1.550
116.0676 0.770
116.0979 0.406
116.1281 1.345
116.1584 0.513
116.1887 1.192
116.2190 0.413
116.2493 0.416
116.2795 0.367
116.3098 0.787
116.3401 0.738
116.3704 0.429
116.4006 0.381
116.4309 0.751
116.4612 0.599
116.4915 -0.021
116.5218 1.078
116.5520 0.980
116.5823 0.726
116.6126 0.992
116.6429 0.114
116.6732 0.069
116.7034 0.701
116.7337 0.188
116.7640 0.196
116.7943 0.673
116.8245 0.317
116.8548 0.847
116.8851 0.544
116.9154 0.345
116.9457 -0.218
116.9759 0.209
117.0062 0.219
117.0365 -0.239
117.0668 -0.447
117.0971 0.387
117.1273 0.284
117.1576 0.337
117.1879 -0.130
117.2182 0.496
117.2485 -0.127
117.2787 0.084
117.3090 0.399
117.3393 0.350
117.3696 0.614
117.3998 0.201
117.4301 0.153
117.4604 0.053
117.4907 -0.098
117.5210 0.532
117.5512 0.068
117.5815 -0.030
117.6118 -0.233
117.6421 -0.077
117.6724 0.340
117.7026 -0.180
117.7329 0.081
117.7632 0.186
117.7935 0.136
117.8237 -0.019
117.8540 0.296
117.8843 0.038
117.9146 0.093
117.9449 -0.321
117.9751 0.151
118.0054 -0.470
118.0357 0.471
118.0660 0.476
118.0963 -0.197
118.1265 -0.192
118.1568 -0.134
118.1871 -0.441
118.2174 0.183
118.2476 -0.547
118.2779 0.026
118.3082 0.286
118.3385 -0.182
118.3688 0.079
118.3990 0.028
118.4293 0.341
118.4596 -0.386
118.4899 -0.020
118.5202 0.087
118.5504 0.350
118.5807 0.301
118.6110 0.095
118.6413 -0.161
118.6715 -0.001
118.7018 0.367
118.7321 -0.097
118.7624 -0.144
118.7927 0.278
118.8229 -0.342
118.8532 0.028
118.8835 0.086
118.9138 -0.376
118.9441 -0.005
118.9743 -0.050
119.0046 0.426
119.0349 -0.035
119.0652 0.182
119.0954 0.346
119.1257 0.146
119.1560 0.468
119.1863 0.269
119.2166 -0.086
119.2468 0.444
119.2771 0.298
119.3074 0.101
119.3377 0.163
119.3680 0.383
119.3982 -0.231
119.4285 0.146
119.4588 -0.207
119.4891 -0.101
119.5193 0.734
119.5496 0.215
119.5799 0.217
119.6102 -0.250
119.6405 0.066
119.6707 0.173
119.7010 -0.032
119.7313 0.337
119.7616 0.289
119.7919 0.293
119.8221 0.402
119.8524 0.407
119.8827 -0.004
119.9130 0.418
119.9433 -0.253
119.9735 -0.195
120.0038 0.000
