'Id: "" Comment: "" Operator: "Lab Manager" Anode: "Cu" Scantype: "Locked Coupled" TimePerStep: "19.2" X: "9999" Y: "9999" Z: "9999" 
10.0015 0.000
10.0318 0.867
10.0620 0.015
10.0923 0.153
10.1226 1.124
10.1529 0.273
10.1832 -0.265
10.2134 -0.387
10.2437 -0.561
10.2740 -0.260
10.3043 -1.574
10.3346 -0.011
10.3648 0.041
10.3951 0.094
10.4254 0.823
10.4557 -0.842
10.4859 0.825
10.5162 -0.424
10.5465 -0.005
10.5768 0.048
10.6071 0.467
10.6373 0.834
10.6676 0.628
10.6979 0.578
10.7282 0.997
10.7585 0.948
10.7887 -0.611
10.8190 0.226
10.8493 -0.239
10.8796 0.493
10.9098 0.810
10.9401 0.658
10.9704 2.433
11.0007 2.386
11.0310 1.922
11.0612 3.958
11.0915 3.078
11.1218 3.031
11.1521 3.818
11.1824 2.574
11.2126 2.007
11.2429 1.128
11.2732 0.718
11.3035 0.777
11.3337 0.628
11.3640 1.052
11.3943 -0.087
11.4246 0.285
11.4549 -0.644
11.4851 0.666
11.5154 1.247
11.5457 0.370
11.5760 -0.351
11.6063 0.075
11.6365 0.240
11.6668 -0.532
11.6971 -0.001
11.7274 0.946
11.7577 -0.346
11.7879 -0.076
11.8182 -0.013
11.8485 0.205
11.8788 -0.513
11.9090 0.800
11.9393 0.082
11.9696 0.562
11.9999 -0.155
12.0302 -0.143
12.0604 0.546
12.0907 -0.275
12.1210 0.102
12.1513 0.479
12.1816 0.023
12.2118 -0.172
12.2421 -0.211
12.2724 -0.875
12.3027 0.337
12.3329 0.351
12.3632 0.000
12.3935 0.952
12.4238 1.227
12.4541 -0.581
12.4843 0.944
12.5146 0.178
12.5449 0.038
12.5752 -0.676
12.6055 -0.260
12.6357 0.261
12.6660 -0.103
12.6963 0.835
12.7266 -0.779
12.7568 -0.101
12.7871 -0.048
12.8174 -0.411
12.8477 0.267
12.8780 -0.044
12.9082 0.479
12.9385 -0.040
12.9688 0.484
12.9991 0.486
13.0294 0.645
13.0596 0.336
13.0899 1.224
13.1202 -0.074
13.1505 0.242
13.1807 0.766
13.2110 0.718
13.2413 0.202
13.2716 0.154
13.3019 -0.623
13.3321 -0.363
13.3624 0.367
13.3927 -0.102
13.4230 0.107
13.4533 0.212
13.4835 0.317
13.5138 0.526
13.5441 0.215
13.5744 0.685
13.6046 0.322
13.6349 0.011
13.6652 -0.143
13.6955 0.016
13.7258 0.018
13.7560 0.281
13.7863 -0.288
13.8166 0.131
13.8469 -0.334
13.8772 0.972
13.9074 0.194
13.9377 0.719
13.9680 -0.318
13.9983 -0.054
14.0285 -0.622
14.0588 1.206
14.0891 -0.195
14.1194 0.018
14.1497 -1.174
14.1799 0.498
14.2102 0.452
14.2405 0.927
14.2708 -0.734
14.3011 -0.102
14.3313 -0.408
14.3616 -0.245
14.3919 -0.342
14.4222 -0.490
14.4524 0.136
14.4827 0.554
14.5130 0.034
14.5433 0.557
14.5736 0.038
14.6038 0.405
14.6341 -0.270
14.6644 -0.111
14.6947 -0.265
14.7250 0.728
14.7552 -1.092
14.7855 -0.047
14.8158 -0.460
14.8461 -0.195
14.8764 -0.087
14.9066 0.282
14.9369 0.703
14.9672 -0.386
14.9975 -0.485
15.0277 -0.483
15.0580 -0.428
15.0883 0.305
15.1186 -0.109
15.1489 0.103
15.1791 -0.674
15.2094 -0.045
15.2397 0.480
15.2700 -0.245
15.3003 -0.293
15.3305 0.077
15.3608 -0.335
15.3911 -0.330
15.4214 -0.480
15.4516 -0.325
15.4819 0.091
15.5122 -0.586
15.5425 0.560
15.5728 -0.378
15.6030 -0.013
15.6333 -0.221
15.6636 -0.480
15.6939 -0.272
15.7242 -0.324
15.7544 0.353
15.7847 -0.167
15.8150 -0.375
15.8453 0.876
15.8755 0.200
15.9058 0.201
15.9361 -0.266
15.9664 1.090
15.9967 0.571
16.0269 0.209
16.0572 -0.153
16.0875 0.110
16.1178 -0.721
16.1481 -0.304
16.1783 0.426
16.2086 -0.354
16.2389 0.219
16.2692 0.169
16.2994 0.483
16.3297 0.120
16.3600 -0.087
16.3903 0.228
16.4206 0.438
16.4508 0.545
16.4811 0.287
16.5114 -0.074
16.5417 0.241
16.5720 -0.068
16.6022 -0.012
16.6325 -0.582
16.6628 -0.109
16.6931 0.833
16.7233 0.421
16.7536 0.321
16.7839 -0.560
16.8142 0.018
16.8445 0.544
16.8747 0.654
16.9050 0.139
16.9353 -0.064
16.9656 0.151
16.9959 0.209
17.0261 -0.149
17.0564 0.899
17.0867 -0.239
17.1170 -0.024
17.1472 0.921
17.1775 -0.270
17.2078 -0.262
17.2381 0.319
17.2684 0.171
17.2986 -0.029
17.3289 0.084
17.3592 -0.324
17.3895 -0.002
17.4198 0.371
17.4500 0.120
17.4803 -0.234
17.5106 0.244
17.5409 0.150
17.5712 -0.308
17.6014 -0.454
17.6317 -0.293
17.6620 0.857
17.6923 0.237
17.7225 0.086
17.7528 0.039
17.7831 -0.425
17.8134 0.102
17.8437 0.368
17.8739 -0.147
17.9042 -0.661
17.9345 -0.042
17.9648 0.161
17.9951 0.104
18.0253 0.256
18.0556 0.095
18.0859 0.246
18.1162 0.138
18.1464 0.342
18.1767 0.338
18.2070 -0.082
18.2373 0.175
18.2676 0.849
18.2978 0.117
18.3281 0.166
18.3584 -0.357
18.3887 0.421
18.4190 0.367
18.4492 0.261
18.4795 0.259
18.5098 0.102
18.5401 -0.316
18.5703 0.151
18.6006 0.671
18.6309 -0.215
18.6612 -0.007
18.6915 0.253
18.7217 0.305
18.7520 0.305
18.7823 0.254
18.8126 0.462
18.8429 0.203
18.8731 0.100
18.9034 0.101
18.9337 0.363
18.9640 1.458
18.9942 0.210
19.0245 -0.517
19.0548 0.006
19.0851 0.685
19.1154 -0.301
19.1456 -0.246
19.1759 -0.295
19.2062 0.385
19.2365 -0.289
19.2668 0.392
19.2970 0.605
19.3273 0.609
19.3576 0.405
19.3879 0.462
19.4181 -0.002
19.4484 0.419
19.4787 0.320
19.5090 -0.403
19.5393 0.279
19.5695 -0.079
19.5998 0.916
19.6301 0.089
19.6604 -0.008
19.6907 0.519
19.7209 0.161
19.7512 -0.040
19.7815 -0.605
19.8118 0.548
19.8420 -0.017
19.8723 1.137
19.9026 -0.001
19.9329 0.112
19.9632 0.172
19.9934 -0.079
20.0237 0.086
20.0540 -0.009
20.0843 -0.364
20.1146 0.114
20.1448 -0.553
20.1751 -0.299
20.2054 0.215
20.2357 0.001
20.2659 -0.318
20.2962 0.406
20.3265 0.036
20.3568 0.239
20.3871 -0.496
20.4173 0.176
20.4476 0.224
20.4779 0.063
20.5082 -0.410
20.5385 0.159
20.5687 -0.418
20.5990 -0.057
20.6293 -0.008
20.6596 -0.532
20.6899 0.142
20.7201 0.295
20.7504 0.188
20.7807 0.446
20.8110 -0.545
20.8412 -0.443
20.8715 0.177
20.9018 -0.192
20.9321 0.116
20.9624 0.216
20.9926 -0.257
21.0229 -0.053
21.0532 0.412
21.0835 -0.581
21.1138 0.041
21.1440 0.351
21.1743 -0.225
21.2046 0.137
21.2349 -0.699
21.2651 0.080
21.2954 0.287
21.3257 -0.028
21.3560 -0.029
21.3863 0.386
21.4165 -0.240
21.4468 -0.137
21.4771 -0.241
21.5074 0.071
21.5377 -0.294
21.5679 0.643
21.5982 -0.607
21.6285 0.123
21.6588 0.019
21.6890 0.072
21.7193 -0.448
21.7496 -0.238
21.7799 -0.289
21.8102 -0.027
21.8404 0.288
21.8707 -0.283
21.9010 -0.021
21.9313 -0.070
21.9616 -0.224
21.9918 0.144
22.0221 -0.530
22.0524 -0.321
22.0827 -0.423
22.1129 -0.369
22.1432 -0.159
22.1735 0.520
22.2038 0.575
22.2341 -0.308
22.2643 0.580
22.2946 0.531
22.3249 -0.142
22.3552 -0.556
22.3855 -0.031
22.4157 -0.340
22.4460 -0.233
22.4763 -0.437
22.5066 0.557
22.5368 0.092
22.5671 0.045
22.5974 0.206
22.6277 0.263
22.6580 0.581
22.6882 -0.299
22.7185 0.227
22.7488 0.129
22.7791 -0.230
22.8094 -0.223
22.8396 0.356
22.8699 -0.366
22.9002 -0.255
22.9305 0.637
22.9607 0.072
22.9910 0.131
23.0213 0.764
23.0516 -0.166
23.0819 0.676
23.1121 0.320
23.1424 -0.192
23.1727 0.129
23.2030 0.086
23.2333 -0.165
23.2635 -0.312
23.2938 -0.146
23.3241 -0.136
23.3544 0.394
23.3846 0.613
23.4149 -0.574
23.4452 0.113
23.4755 -0.188
23.5058 -0.073
23.5360 -0.061
23.5663 -0.415
23.5966 -0.474
23.6269 0.768
23.6572 0.292
23.6874 0.077
23.7177 0.382
23.7480 -0.041
23.7783 -0.412
23.8086 0.675
23.8388 -0.164
23.8691 0.247
23.8994 -0.384
23.9297 0.392
23.9599 0.022
23.9902 0.121
24.0205 -0.196
24.0508 0.320
24.0811 0.055
24.1113 0.468
24.1416 0.412
24.1719 -0.061
24.2022 -0.064
24.2325 0.141
24.2627 0.034
24.2930 0.083
24.3233 0.340
24.3536 -0.235
24.3838 -0.081
24.4141 -0.083
24.4444 -0.033
24.4747 0.070
24.5050 0.120
24.5352 0.015
24.5655 0.170
24.5958 0.378
24.6261 0.013
24.6564 0.064
24.6866 0.481
24.7169 -0.561
24.7472 0.481
24.7775 0.013
24.8077 -0.351
24.8380 0.223
24.8683 -0.401
24.8986 -0.400
24.9289 0.435
24.9591 0.385
24.9894 0.179
25.0197 -0.132
25.0500 -0.181
25.0803 0.446
25.1105 -0.124
25.1408 0.400
25.1711 0.507
25.2014 -0.271
25.2316 0.358
25.2619 0.102
25.2922 0.106
25.3225 -0.098
25.3528 0.166
25.3830 -0.089
25.4133 0.124
25.4436 0.494
25.4739 0.082
25.5042 -0.485
25.5344 0.927
25.5647 -0.421
25.5950 0.054
25.6253 0.060
25.6555 0.015
25.6858 0.855
25.7161 0.758
25.7464 0.869
25.7767 -0.061
25.8069 -0.574
25.8372 -0.115
25.8675 -0.073
25.8978 -0.186
25.9281 0.013
25.9583 0.109
25.9886 -0.421
26.0189 0.196
26.0492 -0.333
26.0794 -0.289
26.1097 0.536
26.1400 0.216
26.1703 0.781
26.2006 0.201
26.2308 0.455
26.2611 -0.333
26.2914 0.025
26.3217 -0.294
26.3520 0.950
26.3822 0.527
26.4125 0.001
26.4428 -0.265
26.4731 -0.166
26.5034 -0.276
26.5336 0.188
26.5639 0.288
26.5942 -0.342
26.6245 0.279
26.6547 -0.037
26.6850 -0.145
26.7153 -0.045
26.7456 0.108
26.7759 0.261
26.8061 -0.002
26.8364 -0.109
26.8667 0.357
26.8970 -0.114
26.9273 -0.220
26.9575 -0.118
26.9878 -0.432
27.0181 0.191
27.0484 -0.331
27.0786 0.345
27.1089 0.084
27.1392 0.031
27.1695 -0.125
27.1998 0.135
27.2300 0.916
27.2603 0.031
27.2906 -0.438
27.3209 -0.346
27.3512 0.475
27.3814 -0.006
27.4117 0.190
27.4420 1.272
27.4723 -0.250
27.5025 0.051
27.5328 0.405
27.5631 -0.231
27.5934 0.487
27.6237 -0.097
27.6539 -0.784
27.6842 0.560
27.7145 0.186
27.7448 -0.241
27.7751 -0.198
27.8053 0.105
27.8356 0.044
27.8659 -0.434
27.8962 0.287
27.9264 -0.243
27.9567 -0.147
27.9870 0.054
28.0173 0.358
28.0476 0.351
28.0778 -1.167
28.1081 0.336
28.1384 0.902
28.1687 -0.042
28.1990 0.472
28.2292 -1.149
28.2595 -0.322
28.2898 0.193
28.3201 0.240
28.3503 0.078
28.3806 0.021
28.4109 -0.349
28.4412 0.271
28.4715 -0.827
28.5017 -0.311
28.5320 0.831
28.5623 0.306
28.5926 0.094
28.6229 -0.951
28.6531 0.243
28.6834 0.240
28.7137 0.081
28.7440 0.495
28.7742 0.075
28.8045 -0.135
28.8348 0.436
28.8651 -0.087
28.8954 0.276
28.9256 -0.351
28.9559 0.794
28.9862 -0.353
29.0165 -0.094
29.0468 -0.042
29.0770 -0.511
29.1073 -0.176
29.1376 -0.153
29.1679 1.120
29.1981 -0.055
29.2284 0.385
29.2587 -0.477
29.2890 0.016
29.3193 -0.117
29.3495 -0.405
29.3798 0.088
29.4101 0.634
29.4404 0.346
29.4707 -0.723
29.5009 -0.281
29.5312 -0.411
29.5615 0.760
29.5918 -1.193
29.6221 0.187
29.6523 0.162
29.6826 0.032
29.7129 -0.254
29.7432 0.919
29.7734 -0.096
29.8037 -0.276
29.8340 0.116
29.8643 -0.429
29.8946 -0.089
29.9248 -0.373
29.9551 0.176
29.9854 0.257
30.0157 -0.183
30.0460 -0.102
30.0762 -0.229
30.1065 0.530
30.1368 0.247
30.1671 0.277
30.1973 -0.161
30.2276 0.129
30.2579 0.785
30.2882 -0.070
30.3185 -0.143
30.3487 1.347
30.3790 -0.445
30.4093 1.097
30.4396 1.389
30.4699 0.536
30.5001 0.777
30.5304 1.486
30.5607 1.884
30.5910 0.250
30.6212 2.002
30.6515 1.045
30.6818 1.287
30.7121 1.581
30.7424 2.084
30.7726 2.014
30.8029 1.267
30.8332 2.239
30.8635 2.222
30.8938 3.663
30.9240 2.657
30.9543 3.421
30.9846 3.353
31.0149 4.743
31.0451 4.987
31.0754 3.617
31.1057 6.258
31.1360 7.284
31.1663 7.738
31.1965 7.775
31.2268 9.791
31.2571 11.912
31.2874 13.460
31.3177 13.915
31.3479 15.151
31.3782 17.637
31.4085 22.728
31.4388 21.673
31.4690 25.775
31.4993 27.481
31.5296 29.291
31.5599 35.268
31.5902 37.235
31.6204 36.181
31.6507 35.232
31.6810 32.512
31.7113 31.928
31.7416 30.927
31.7718 24.093
31.8021 18.822
31.8324 20.270
31.8627 17.134
31.8929 15.093
31.9232 12.844
31.9535 9.917
31.9838 8.293
32.0141 9.326
32.0443 7.650
32.0746 6.912
32.1049 6.122
32.1352 5.853
32.1655 6.470
32.1957 3.649
32.2260 3.225
32.2563 2.749
32.2866 2.429
32.3169 3.151
32.3471 1.633
32.3774 1.002
32.4077 1.099
32.4380 0.624
32.4682 1.347
32.4985 1.081
32.5288 0.971
32.5591 0.601
32.5894 0.752
32.6196 0.539
32.6499 0.742
32.6802 1.311
32.7105 0.265
32.7408 -0.052
32.7710 0.777
32.8013 0.669
32.8316 0.509
32.8619 0.298
32.8921 -0.539
32.9224 0.344
32.9527 -0.076
32.9830 0.286
33.0133 -0.549
33.0435 -0.135
33.0738 -0.709
33.1041 -0.142
33.1344 -0.720
33.1647 0.421
33.1949 -0.001
33.2252 -0.318
33.2555 -0.478
33.2858 -0.170
33.3160 0.555
33.3463 0.447
33.3766 -0.077
33.4069 0.024
33.4372 -0.136
33.4674 0.539
33.4977 0.015
33.5280 0.065
33.5583 0.375
33.5886 0.633
33.6188 1.256
33.6491 1.307
33.6794 1.983
33.7097 1.929
33.7399 0.001
33.7702 1.511
33.8005 2.187
33.8308 2.760
33.8611 3.072
33.8913 3.124
33.9216 4.583
33.9519 4.688
33.9822 6.095
34.0125 7.814
34.0427 7.972
34.0730 11.358
34.1033 15.214
34.1336 16.934
34.1638 21.780
34.1941 27.772
34.2244 33.868
34.2547 37.673
34.2850 38.821
34.3152 40.699
34.3455 34.557
34.3758 31.279
34.4061 22.637
34.4364 19.620
34.4666 14.468
34.4969 9.941
34.5272 9.216
34.5575 6.929
34.5877 7.455
34.6180 6.575
34.6483 4.601
34.6786 3.617
34.7089 3.831
34.7391 3.472
34.7694 3.635
34.7997 2.599
34.8300 2.918
34.8603 2.613
34.8905 1.995
34.9208 3.200
34.9511 2.687
34.9814 2.955
35.0116 2.754
35.0419 3.491
35.0722 3.448
35.1025 2.727
35.1328 2.631
35.1630 2.432
35.1933 2.025
35.2236 2.503
35.2539 1.939
35.2842 3.564
35.3144 4.042
35.3447 4.105
35.3750 4.636
35.4053 5.219
35.4356 4.970
35.4658 4.356
35.4961 6.607
35.5264 6.410
35.5567 7.203
35.5869 7.840
35.6172 9.154
35.6475 10.833
35.6778 10.897
35.7081 12.421
35.7383 14.621
35.7686 14.582
35.7989 19.023
35.8292 22.838
35.8595 23.789
35.8897 26.876
35.9200 29.963
35.9503 31.749
35.9806 39.836
36.0108 40.684
36.0411 45.387
36.0714 47.225
36.1017 48.074
36.1320 50.381
36.1622 49.772
36.1925 48.747
36.2228 41.419
36.2531 38.623
36.2834 32.078
36.3136 29.751
36.3439 27.112
36.3742 21.817
36.4045 18.292
36.4347 15.810
36.4650 16.766
36.4953 13.294
36.5256 12.688
36.5559 10.363
36.5861 9.548
36.6164 7.119
36.6467 6.722
36.6770 6.377
36.7073 5.719
36.7375 4.750
36.7678 5.135
36.7981 3.384
36.8284 3.873
36.8586 4.467
36.8889 2.978
36.9192 3.155
36.9495 2.603
36.9798 2.677
37.0100 1.761
37.0403 1.419
37.0706 2.014
37.1009 1.307
37.1312 1.486
37.1614 1.509
37.1917 0.751
37.2220 1.087
37.2523 0.537
37.2825 0.353
37.3128 0.533
37.3431 0.453
37.3734 0.008
37.4037 1.283
37.4339 -0.255
37.4642 0.499
37.4945 0.577
37.5248 0.446
37.5551 -0.102
37.5853 0.601
37.6156 0.211
37.6459 -0.232
37.6762 0.576
37.7064 0.603
37.7367 0.317
37.7670 0.917
37.7973 -0.202
37.8276 0.503
37.8578 0.218
37.8881 -0.066
37.9184 -0.559
37.9487 0.146
37.9790 -0.190
38.0092 -0.005
38.0395 -0.392
38.0698 0.210
38.1001 0.395
38.1304 0.165
38.1606 -0.014
38.1909 -0.348
38.2212 0.151
38.2515 0.025
38.2817 -0.309
38.3120 -0.174
38.3423 -0.716
38.3726 -0.021
38.4029 0.362
38.4331 0.328
38.4634 -0.696
38.4937 -0.312
38.5240 0.435
38.5543 0.038
38.5845 0.578
38.6148 0.024
38.6451 -0.477
38.6754 -0.208
38.7056 0.791
38.7359 -0.294
38.7662 -0.024
38.7965 0.403
38.8268 -0.160
38.8570 -0.619
38.8873 0.225
38.9176 -0.130
38.9479 -0.067
38.9782 -0.733
39.0084 0.528
39.0387 -0.450
39.0690 -0.178
39.0993 0.563
39.1295 0.314
39.1598 -0.090
39.1901 -0.599
39.2204 0.091
39.2507 -0.104
39.2809 0.325
39.3112 -0.078
39.3415 0.248
39.3718 0.470
39.4021 -0.870
39.4323 -0.179
39.4626 0.668
39.4929 -0.203
39.5232 0.229
39.5534 0.087
39.5837 -0.158
39.6140 -0.142
39.6443 -0.127
39.6746 -0.163
39.7048 0.217
39.7351 -0.131
39.7654 0.198
39.7957 -0.046
39.8260 -0.029
39.8562 -0.481
39.8865 0.578
39.9168 -0.186
39.9471 0.613
39.9773 0.058
40.0076 -0.340
40.0379 0.095
40.0682 0.113
40.0985 0.132
40.1287 0.567
40.1590 0.222
40.1893 -0.332
40.2196 -0.364
40.2499 0.048
40.2801 0.199
40.3104 0.768
40.3407 -0.070
40.3710 0.187
40.4012 -0.077
40.4315 0.336
40.4618 -0.345
40.4921 0.277
40.5224 0.431
40.5526 0.428
40.5829 -0.147
40.6132 -0.202
40.6435 -0.100
40.6738 -0.466
40.7040 0.053
40.7343 -0.053
40.7646 0.259
40.7949 -0.107
40.8251 0.153
40.8554 -0.212
40.8857 -0.005
40.9160 0.152
40.9463 0.256
40.9765 0.360
41.0068 0.621
41.0371 -0.524
41.0674 0.362
41.0977 -0.262
41.1279 -0.729
41.1582 0.574
41.1885 -0.518
41.2188 -0.099
41.2491 -0.513
41.2793 0.479
41.3096 0.012
41.3399 -0.141
41.3702 0.226
41.4004 0.073
41.4307 -0.496
41.4610 -0.024
41.4913 -0.228
41.5216 0.401
41.5518 -0.324
41.5821 0.045
41.6124 -0.107
41.6427 -0.310
41.6730 0.476
41.7032 -0.143
41.7335 0.071
41.7638 -0.653
41.7941 0.447
41.8243 -0.016
41.8546 -0.322
41.8849 -0.211
41.9152 -0.100
41.9455 -0.093
41.9757 -0.242
42.0060 0.286
42.0363 -0.279
42.0666 -0.063
42.0969 -0.315
42.1271 -0.151
42.1574 0.326
42.1877 0.648
42.2180 -0.020
42.2482 0.249
42.2785 0.415
42.3088 0.112
42.3391 -0.399
42.3694 -0.250
42.3996 0.264
42.4299 0.102
42.4602 -0.217
42.4905 0.194
42.5208 0.292
42.5510 0.391
42.5813 -0.031
42.6116 0.068
42.6419 0.427
42.6721 0.058
42.7024 -0.103
42.7327 -0.523
42.7630 0.358
42.7933 0.146
42.8235 -0.066
42.8538 -0.122
42.8841 -0.073
42.9144 -0.128
42.9447 0.286
42.9749 0.179
43.0052 -0.136
43.0355 0.695
43.0658 -0.088
43.0960 0.067
43.1263 -0.195
43.1566 0.064
43.1869 0.427
43.2172 -0.094
43.2474 -0.095
43.2777 -0.304
43.3080 0.165
43.3383 -0.044
43.3686 -0.148
43.3988 -0.408
43.4291 0.270
43.4594 0.167
43.4897 -0.145
43.5199 -0.196
43.5502 -0.611
43.5805 0.062
43.6108 -0.099
43.6411 0.418
43.6713 -0.106
43.7016 0.411
43.7319 0.043
43.7622 -0.168
43.7925 0.089
43.8227 0.399
43.8530 -0.072
43.8833 -0.126
43.9136 0.236
43.9439 0.651
43.9741 -0.600
44.0044 0.336
44.0347 0.022
44.0650 0.282
44.0952 0.177
44.1255 -0.136
44.1558 -0.397
44.1861 0.228
44.2164 -0.397
44.2466 0.593
44.2769 0.541
44.3072 -0.135
44.3375 0.283
44.3678 0.180
44.3980 -0.340
44.4283 0.026
44.4586 0.288
44.4889 0.134
44.5191 0.241
44.5494 0.243
44.5797 0.089
44.6100 0.874
44.6403 0.147
44.6705 -0.110
44.7008 0.467
44.7311 -0.207
44.7614 0.214
44.7917 0.062
44.8219 -0.455
44.8522 -0.205
44.8825 -0.215
44.9128 0.347
44.9430 0.077
44.9733 0.328
45.0036 -0.046
45.0339 0.309
45.0642 -0.273
45.0944 -0.022
45.1247 0.074
45.1550 -0.143
45.1853 0.318
45.2156 0.101
45.2458 -0.011
45.2761 -0.123
45.3064 0.078
45.3367 0.175
45.3669 0.481
45.3972 -0.099
45.4275 0.259
45.4578 0.201
45.4881 0.194
45.5183 0.032
45.5486 0.287
45.5789 0.125
45.6092 0.016
45.6395 -0.354
45.6697 0.370
45.7000 0.157
45.7303 -0.420
45.7606 0.721
45.7908 0.040
45.8211 -0.328
45.8514 -0.384
45.8817 -0.030
45.9120 0.116
45.9422 0.210
45.9725 0.409
46.0028 0.034
46.0331 -0.548
46.0634 0.276
46.0936 -0.358
46.1239 -0.471
46.1542 0.302
46.1845 -0.019
46.2147 0.337
46.2450 0.173
46.2753 -0.095
46.3056 -0.155
46.3359 0.150
46.3661 0.612
46.3964 0.970
46.4267 -0.131
46.4570 0.540
46.4873 0.013
46.5175 0.371
46.5478 0.521
46.5781 -0.578
46.6084 0.042
46.6386 0.401
46.6689 0.083
46.6992 0.808
46.7295 0.647
46.7598 1.111
46.7900 0.326
46.8203 1.311
46.8506 0.839
46.8809 1.616
46.9112 1.196
46.9414 1.870
46.9717 2.336
47.0020 2.959
47.0323 2.696
47.0626 2.485
47.0928 3.004
47.1231 4.512
47.1534 4.927
47.1837 5.603
47.2139 6.070
47.2442 6.382
47.2745 6.798
47.3048 7.839
47.3351 8.776
47.3653 9.453
47.3956 9.349
47.4259 9.401
47.4562 9.245
47.4865 8.413
47.5167 7.789
47.5470 6.956
47.5773 6.853
47.6076 5.917
47.6378 4.930
47.6681 4.827
47.6984 3.163
47.7287 3.686
47.7590 2.178
47.7892 2.806
47.8195 2.184
47.8498 1.614
47.8801 1.409
47.9104 1.153
47.9406 1.417
47.9709 0.119
48.0012 1.269
48.0315 0.961
48.0617 0.861
48.0920 0.606
48.1223 0.403
48.1526 0.304
48.1829 0.361
48.2131 0.367
48.2434 0.217
48.2737 0.796
48.3040 0.386
48.3343 0.080
48.3645 -0.174
48.3948 -0.375
48.4251 0.101
48.4554 -0.204
48.4856 0.949
48.5159 -0.397
48.5462 0.236
48.5765 0.452
48.6068 0.096
48.6370 0.261
48.6673 0.010
48.6976 0.644
48.7279 0.080
48.7582 0.350
48.7884 0.099
48.8187 0.109
48.8490 0.172
48.8793 -0.078
48.9095 0.036
48.9398 -0.005
48.9701 -0.254
49.0004 -0.295
49.0307 0.341
49.0609 0.040
49.0912 0.104
49.1215 0.064
49.1518 0.233
49.1821 0.089
49.2123 0.154
49.2426 0.375
49.2729 -0.497
49.3032 0.454
49.3334 -0.210
49.3637 -0.665
49.3940 0.067
49.4243 -0.347
49.4546 -0.083
49.4848 0.025
49.5151 -0.076
49.5454 -0.124
49.5757 -0.589
49.6060 0.770
49.6362 -0.007
49.6665 0.362
49.6968 -0.414
49.7271 -0.357
49.7574 0.010
49.7876 0.429
49.8179 -0.558
49.8482 0.747
49.8785 -0.396
49.9087 0.440
49.9390 -0.494
49.9693 0.239
49.9996 -0.382
50.0299 0.612
50.0601 0.668
50.0904 -0.421
50.1207 -0.260
50.1510 0.109
50.1813 -0.406
50.2115 -0.193
50.2418 0.282
50.2721 0.079
50.3024 0.085
50.3326 -0.013
50.3629 0.150
50.3932 -0.052
50.4235 0.632
50.4538 -0.038
50.4840 -0.343
50.5143 -0.295
50.5446 -0.090
50.5749 -0.354
50.6052 0.164
50.6354 0.317
50.6657 0.262
50.6960 0.729
50.7263 0.466
50.7565 0.255
50.7868 0.097
50.8171 -0.113
50.8474 0.563
50.8777 0.353
50.9079 0.561
50.9382 0.039
50.9685 -0.066
50.9988 -0.014
51.0291 -0.118
51.0593 0.402
51.0896 0.038
51.1199 0.091
51.1502 -0.325
51.1804 0.457
51.2107 0.093
51.2410 0.251
51.2713 0.825
51.3016 0.462
51.3318 0.256
51.3621 0.102
51.3924 0.156
51.4227 -0.258
51.4530 0.161
51.4832 -0.252
51.5135 -0.041
51.5438 -0.350
51.5741 0.175
51.6043 -0.290
51.6346 0.183
51.6649 0.187
51.6952 0.035
51.7255 -0.585
51.7557 0.409
51.7860 0.154
51.8163 -0.101
51.8466 0.060
51.8769 -0.090
51.9071 -0.240
51.9374 -0.234
51.9677 0.293
51.9980 -0.325
52.0282 -0.371
52.0585 0.200
52.0888 0.198
52.1191 0.196
52.1494 0.247
52.1796 0.142
52.2099 0.245
52.2402 -0.069
52.2705 -0.226
52.3008 -0.070
52.3310 -0.174
52.3613 0.399
52.3916 0.399
52.4219 0.608
52.4521 0.348
52.4824 0.609
52.5127 0.402
52.5430 0.403
52.5733 -0.429
52.6035 0.406
52.6338 -0.217
52.6641 -0.423
52.6944 0.088
52.7247 0.079
52.7549 0.279
52.7852 0.166
52.8155 0.261
52.8458 -0.112
52.8761 -0.224
52.9063 -0.128
52.9366 0.020
52.9669 -0.091
52.9972 0.266
53.0274 0.415
53.0577 0.095
53.0880 -0.068
53.1183 0.030
53.1486 -0.341
53.1788 0.226
53.2091 -0.040
53.2394 0.319
53.2697 -0.103
53.3000 0.100
53.3302 0.095
53.3605 -0.119
53.3908 0.450
53.4211 0.654
53.4513 0.129
53.4816 -0.084
53.5119 -0.087
53.5422 -0.039
53.5725 0.531
53.6027 0.267
53.6330 0.368
53.6633 -0.259
53.6936 -0.002
53.7239 0.152
53.7541 -0.110
53.7844 -0.060
53.8147 0.147
53.8450 0.145
53.8752 0.092
53.9055 0.716
53.9358 0.455
53.9661 -0.275
53.9964 0.141
54.0266 0.558
54.0569 0.454
54.0872 0.506
54.1175 0.298
54.1478 -0.170
54.1780 -0.430
54.2083 0.024
54.2386 0.790
54.2689 -0.266
54.2991 -0.333
54.3294 0.070
54.3597 0.368
54.3900 0.094
54.4203 -0.024
54.4505 -0.090
54.4808 0.001
54.5111 0.092
54.5414 -0.129
54.5717 0.015
54.6019 -0.102
54.6322 -0.114
54.6625 0.134
54.6928 -0.138
54.7230 0.111
54.7533 0.516
54.7836 0.505
54.8139 0.546
54.8442 -0.037
54.8744 0.004
54.9047 0.098
54.9350 -0.277
54.9653 -0.807
54.9956 0.329
55.0258 0.997
55.0561 0.050
55.0864 -0.220
55.1167 0.292
55.1469 -0.133
55.1772 0.119
55.2075 0.840
55.2378 0.051
55.2681 0.147
55.2983 0.765
55.3286 0.289
55.3589 0.177
55.3892 0.639
55.4195 0.528
55.4497 0.522
55.4800 1.140
55.5103 -0.480
55.5406 -0.017
55.5709 0.342
55.6011 0.909
55.6314 0.695
55.6617 1.055
55.6920 0.946
55.7222 0.212
55.7525 0.885
55.7828 1.870
55.8131 2.179
55.8434 1.863
55.8736 1.026
55.9039 2.168
55.9342 1.644
55.9645 1.693
55.9948 2.837
56.0250 2.261
56.0553 3.717
56.0856 2.986
56.1159 4.182
56.1461 5.691
56.1764 4.648
56.2067 6.157
56.2370 7.145
56.2673 6.520
56.2975 8.082
56.3278 9.487
56.3581 9.643
56.3884 11.154
56.4187 10.685
56.4489 10.842
56.4792 13.030
56.5095 12.562
56.5398 10.636
56.5700 9.440
56.6003 9.702
56.6306 7.933
56.6609 8.143
56.6912 7.468
56.7214 5.491
56.7517 5.806
56.7820 3.934
56.8123 5.187
56.8426 4.201
56.8728 3.319
56.9031 3.479
56.9334 2.597
56.9637 2.341
56.9939 1.876
57.0242 3.183
57.0545 2.406
57.0848 1.265
57.1151 1.270
57.1453 1.015
57.1756 1.437
57.2059 1.339
57.2362 0.720
57.2665 -0.211
57.2967 0.420
57.3270 0.635
57.3573 0.746
57.3876 1.013
57.4178 0.656
57.4481 1.184
57.4784 0.671
57.5087 0.210
57.5390 -0.198
57.5692 0.799
57.5995 0.495
57.6298 0.244
57.6601 0.148
57.6904 0.001
57.7206 0.167
57.7509 0.176
57.7812 -0.439
57.8115 -0.326
57.8417 0.204
57.8720 0.213
57.9023 -0.142
57.9326 0.180
57.9629 0.034
57.9931 0.252
58.0234 0.159
58.0537 -0.352
58.0840 0.024
58.1143 -0.122
58.1445 0.306
58.1748 -0.307
58.2051 0.225
58.2354 0.237
58.2656 -0.168
58.2959 -0.156
58.3262 -0.143
58.3565 -0.131
58.3868 0.351
58.4170 0.051
58.4473 0.273
58.4776 0.443
58.5079 -0.064
58.5382 0.366
58.5684 -0.557
58.5987 -0.230
58.6290 -0.112
58.6593 -0.357
58.6896 -0.308
58.7198 -0.155
58.7501 -0.001
58.7804 0.257
58.8107 -0.110
58.8409 -0.372
58.8712 0.251
58.9015 0.146
58.9318 -0.428
58.9621 0.300
58.9923 0.091
59.0226 0.090
59.0529 0.350
59.0832 0.350
59.1135 -0.223
59.1437 0.558
59.1740 -0.170
59.2043 -0.014
59.2346 -0.169
59.2648 -0.220
59.2951 -0.062
59.3254 0.199
59.3557 -0.320
59.3860 -0.057
59.4162 0.518
59.4465 -0.157
59.4768 0.158
59.5071 0.109
59.5374 0.216
59.5676 -0.042
59.5979 -0.403
59.6282 -0.091
59.6585 0.117
59.6887 0.221
59.7190 0.585
59.7493 0.429
59.7796 0.273
59.8099 0.325
59.8401 -0.195
59.8704 0.014
59.9007 0.328
59.9310 -0.192
59.9613 0.279
59.9915 -0.136
60.0218 0.334
60.0521 0.128
60.0824 0.131
60.1126 -0.127
60.1429 -0.229
60.1732 0.399
60.2035 0.142
60.2338 -0.011
60.2640 -0.528
60.2943 0.257
60.3246 -0.207
60.3549 0.266
60.3852 -0.095
60.4154 -0.350
60.4457 -0.106
60.4760 0.086
60.5063 0.174
60.5365 0.001
60.5668 -0.118
60.5971 0.074
60.6274 -0.201
60.6577 0.409
60.6879 -0.075
60.7182 -0.142
60.7485 0.209
60.7788 -0.170
60.8091 0.180
60.8393 -0.198
60.8696 0.361
60.8999 -0.433
60.9302 0.283
60.9604 0.009
60.9907 -0.055
61.0210 0.140
61.0513 0.024
61.0816 0.116
61.1118 0.833
61.1421 -0.012
61.1724 0.706
61.2027 0.226
61.2330 -0.358
61.2632 -0.161
61.2935 0.037
61.3238 -0.338
61.3541 -0.609
61.3844 0.788
61.4146 0.101
61.4449 -0.117
61.4752 -0.022
61.5055 -0.188
61.5357 -0.092
61.5660 0.003
61.5963 -0.266
61.6266 0.299
61.6569 0.395
61.6871 -0.290
61.7174 0.431
61.7477 0.372
61.7780 0.781
61.8083 0.045
61.8385 0.351
61.8688 0.969
61.8991 0.442
61.9294 -0.189
61.9596 0.534
61.9899 1.778
62.0202 1.460
62.0505 0.778
62.0808 1.814
62.1110 1.393
62.1413 0.711
62.1716 1.696
62.2019 1.014
62.2322 1.792
62.2624 2.621
62.2927 2.774
62.3230 2.093
62.3533 2.455
62.3835 2.712
62.4138 4.167
62.4441 3.071
62.4744 4.423
62.5047 6.139
62.5349 6.242
62.5652 6.292
62.5955 6.968
62.6258 8.060
62.6561 8.788
62.6863 8.579
62.7166 8.213
62.7469 11.755
62.7772 9.202
62.8074 9.671
62.8377 8.734
62.8680 8.213
62.8983 6.443
62.9286 7.173
62.9588 7.122
62.9891 5.196
63.0194 5.770
63.0497 3.897
63.0800 3.794
63.1102 4.682
63.1405 3.643
63.1708 1.926
63.2011 2.346
63.2313 2.244
63.2616 1.102
63.2919 1.053
63.3222 1.369
63.3525 0.956
63.3827 0.856
63.4130 0.652
63.4433 0.864
63.4736 0.817
63.5039 0.821
63.5341 0.306
63.5644 0.936
63.5947 -0.205
63.6250 0.166
63.6552 0.067
63.6855 -0.239
63.7158 0.340
63.7461 -0.018
63.7764 -0.063
63.8066 -0.109
63.8369 -0.206
63.8672 -0.094
63.8975 0.070
63.9278 0.338
63.9580 -0.227
63.9883 0.094
64.0186 -0.627
64.0489 -0.150
64.0791 0.171
64.1094 -0.132
64.1397 -0.383
64.1700 -0.322
64.2003 -0.104
64.2305 -0.146
64.2608 -0.396
64.2911 -0.131
64.3214 0.447
64.3517 -0.120
64.3819 0.302
64.4122 -0.265
64.4425 -0.363
64.4728 -0.252
64.5031 -0.037
64.5333 0.490
64.5636 -0.076
64.5939 -0.277
64.6242 -0.113
64.6544 -0.001
64.6847 -0.514
64.7150 0.067
64.7453 -0.238
64.7756 -0.073
64.8058 0.040
64.8361 -0.159
64.8664 -0.046
64.8967 -0.141
64.9270 -0.340
64.9572 -0.382
64.9875 0.183
65.0178 -0.345
65.0481 -0.248
65.0783 -0.203
65.1086 -0.210
65.1389 0.304
65.1692 0.402
65.1995 0.188
65.2297 -0.391
65.2600 0.280
65.2903 -0.038
65.3206 -0.564
65.3509 0.056
65.3811 -0.417
65.4114 0.047
65.4417 0.198
65.4720 0.090
65.5022 0.138
65.5325 -0.022
65.5628 -0.390
65.5931 -0.143
65.6234 0.260
65.6536 0.195
65.6839 -0.027
65.7142 0.898
65.7445 0.104
65.7748 -0.273
65.8050 -0.181
65.8353 0.224
65.8656 0.421
65.8959 0.774
65.9261 0.189
65.9564 0.126
65.9867 0.063
66.0170 1.719
66.0473 -0.166
66.0775 0.396
66.1078 0.543
66.1381 1.054
66.1684 0.263
66.1987 1.035
66.2289 0.713
66.2592 0.652
66.2895 0.591
66.3198 1.312
66.3500 1.095
66.3803 0.826
66.4106 0.714
66.4409 1.019
66.4712 0.022
66.5014 0.119
66.5317 0.424
66.5620 0.730
66.5923 0.046
66.6226 0.508
66.6528 0.398
66.6831 0.548
66.7134 0.386
66.7437 0.276
66.7739 0.479
66.8042 0.474
66.8345 -0.156
66.8648 0.881
66.8951 -0.373
66.9253 -0.065
66.9556 0.347
66.9859 -0.021
67.0162 0.808
67.0465 0.440
67.0767 -0.032
67.1070 0.590
67.1373 1.316
67.1676 0.220
67.1978 0.999
67.2281 -0.045
67.2584 1.359
67.2887 1.982
67.3190 1.408
67.3492 1.615
67.3795 1.874
67.4098 1.613
67.4401 2.393
67.4704 2.497
67.5006 3.382
67.5309 3.173
67.5612 3.069
67.5915 3.382
67.6218 4.737
67.6520 3.644
67.6823 4.426
67.7126 5.521
67.7429 6.772
67.7731 5.888
67.8034 6.151
67.8337 6.205
67.8640 5.165
67.8943 6.366
67.9245 5.691
67.9548 5.798
67.9851 6.739
68.0154 4.294
68.0457 4.141
68.0759 3.364
68.1062 4.097
68.1365 3.476
68.1668 2.126
68.1970 3.693
68.2273 1.875
68.2576 2.349
68.2879 2.198
68.3182 2.203
68.3484 2.052
68.3787 2.683
68.4090 2.064
68.4393 1.758
68.4696 1.660
68.4998 1.563
68.5301 1.674
68.5604 2.045
68.5907 1.584
68.6209 2.477
68.6512 1.703
68.6815 2.180
68.7118 1.511
68.7421 2.509
68.7723 1.736
68.8026 2.630
68.8329 3.108
68.8632 2.232
68.8935 2.293
68.9237 1.782
68.9540 2.990
68.9843 2.687
69.0146 2.176
69.0448 1.926
69.0751 1.573
69.1054 2.365
69.1357 1.699
69.1660 2.231
69.1962 1.096
69.2265 1.994
69.2568 1.693
69.2871 1.653
69.3174 0.728
69.3476 1.626
69.3779 0.337
69.4082 0.714
69.4385 1.040
69.4687 0.116
69.4990 0.650
69.5293 0.820
69.5596 0.782
69.5899 0.692
69.6201 -0.127
69.6504 0.357
69.6807 0.267
69.7110 0.387
69.7413 -0.327
69.7715 0.626
69.8018 0.173
69.8321 -0.228
69.8624 -0.212
69.8926 -0.508
69.9229 0.134
69.9532 -0.006
69.9835 0.011
70.0138 -0.076
70.0440 -0.423
70.0743 0.324
70.1046 0.446
70.1349 -0.057
70.1652 -0.299
70.1954 0.188
70.2257 -0.314
70.2560 -0.504
70.2863 0.183
70.3166 -0.380
70.3468 -0.162
70.3771 -0.152
70.4074 -0.246
70.4377 -0.235
70.4679 0.140
70.4982 -0.266
70.5285 -0.255
70.5588 0.121
70.5891 -0.388
70.6193 0.040
70.6496 -0.052
70.6799 0.325
70.7102 0.025
70.7405 0.298
70.7707 0.154
70.8010 0.376
70.8313 0.232
70.8616 -0.067
70.8918 -0.522
70.9221 -0.052
70.9524 -0.103
70.9827 -0.102
71.0130 0.004
71.0432 0.162
71.0735 -0.200
71.1038 0.062
71.1341 0.221
71.1644 -0.297
71.1946 -0.138
71.2249 0.282
71.2552 -0.444
71.2855 0.601
71.3157 -0.177
71.3460 -0.069
71.3763 -0.065
71.4066 0.044
71.4369 -0.420
71.4671 0.001
71.4974 -0.046
71.5277 -0.353
71.5580 0.069
71.5883 0.178
71.6185 -0.441
71.6488 -0.290
71.6791 0.278
71.7094 0.221
71.7396 0.217
71.7699 0.108
71.8002 0.208
71.8305 0.100
71.8608 0.096
71.8910 0.197
71.9213 0.090
71.9516 -0.070
71.9819 -0.385
72.0122 0.393
72.0424 -0.078
72.0727 0.441
72.1030 0.647
72.1333 0.177
72.1635 0.123
72.1938 0.486
72.2241 0.433
72.2544 -0.089
72.2847 0.535
72.3149 0.483
72.3452 0.326
72.3755 0.482
72.4058 0.899
72.4361 0.378
72.4663 0.431
72.4966 0.015
72.5269 0.797
72.5572 0.381
72.5874 0.643
72.6177 0.228
72.6480 0.438
72.6783 -0.341
72.7086 0.651
72.7388 0.236
72.7691 -0.073
72.7994 0.086
72.8297 0.245
72.8600 0.040
72.8902 -0.113
72.9205 -0.266
72.9508 -0.001
72.9811 -0.101
73.0113 -0.305
73.0416 -0.148
73.0719 -0.146
73.1022 -0.196
73.1325 -0.089
73.1627 0.278
73.1930 0.072
73.2233 -0.342
73.2536 -0.026
73.2839 -0.023
73.3141 -0.020
73.3444 -0.485
73.3747 0.405
73.4050 0.096
73.4353 -0.160
73.4655 0.001
73.4958 0.006
73.5261 -0.250
73.5564 0.172
73.5866 0.177
73.6169 0.496
73.6472 0.137
73.6775 0.247
73.7078 0.045
73.7380 0.051
73.7683 -0.307
73.7986 0.013
73.8289 -0.084
73.8592 0.235
73.8894 0.087
73.9197 0.042
73.9500 -0.262
73.9803 0.163
74.0105 -0.350
74.0408 -0.081
74.0711 -0.072
74.1014 -0.063
74.1317 0.102
74.1619 0.164
74.1922 0.121
74.2225 -0.077
74.2528 0.454
74.2831 0.099
74.3133 0.162
74.3436 0.016
74.3739 -0.077
74.4042 -0.274
74.4344 -0.022
74.4647 -0.031
74.4950 0.170
74.5253 0.058
74.5556 0.415
74.5858 -0.114
74.6161 0.400
74.6464 0.133
74.6767 0.126
74.7070 0.380
74.7372 -0.252
74.7675 -0.049
74.7978 0.101
74.8281 -0.478
74.8583 -0.067
74.8886 -0.280
74.9189 -0.080
74.9492 0.069
74.9795 0.114
75.0097 0.055
75.0400 -0.056
75.0703 -0.375
75.1006 0.295
75.1309 -0.128
75.1611 -0.081
75.1914 0.017
75.2217 -0.041
75.2520 -0.046
75.2822 0.157
75.3125 0.048
75.3428 -0.061
75.3731 0.195
75.4034 -0.122
75.4336 0.395
75.4639 -0.130
75.4942 0.127
75.5245 -0.345
75.5548 0.485
75.5850 -0.195
75.6153 -0.042
75.6456 -0.409
75.6759 -0.047
75.7061 -0.935
75.7364 -0.053
75.7667 0.152
75.7970 -0.215
75.8273 -0.010
75.8575 -0.065
75.8878 -0.119
75.9181 -0.069
75.9484 0.606
75.9787 -0.177
76.0089 0.133
76.0392 -0.076
76.0695 0.079
76.0998 -0.183
76.1301 0.025
76.1603 -0.236
76.1906 -0.236
76.2209 -0.341
76.2512 0.284
76.2814 -0.132
76.3117 0.077
76.3420 0.338
76.3723 -0.078
76.4026 0.340
76.4328 0.081
76.4631 0.447
76.4934 0.553
76.5237 -0.018
76.5540 0.349
76.5842 0.507
76.6145 0.249
76.6448 1.033
76.6751 0.568
76.7053 0.571
76.7356 0.939
76.7659 0.995
76.7962 0.738
76.8265 0.586
76.8567 0.382
76.8870 0.907
76.9173 1.329
76.9476 0.084
76.9779 0.558
77.0081 0.511
77.0384 0.464
77.0687 0.835
77.0990 0.736
77.1292 0.691
77.1595 0.541
77.1898 0.964
77.2201 0.502
77.2504 0.978
77.2806 0.048
77.3109 0.315
77.3412 0.219
77.3715 0.383
77.4018 0.808
77.4320 0.556
77.4623 0.616
77.4926 0.104
77.5229 -0.512
77.5531 -0.203
77.5834 0.627
77.6137 0.311
77.6440 -0.109
77.6743 -0.112
77.7045 0.354
77.7348 0.560
77.7651 0.089
77.7954 0.139
77.8257 0.085
77.8559 -0.281
77.8862 0.082
77.9165 0.133
77.9468 -0.024
77.9770 0.079
78.0073 0.599
78.0376 0.599
78.0679 -0.130
78.0982 0.078
78.1284 0.443
78.1587 -0.338
78.1890 0.757
78.2193 0.132
78.2496 0.394
78.2798 -0.334
78.3101 -0.280
78.3404 -0.125
78.3707 -0.281
78.4009 0.291
78.4312 0.031
78.4615 0.135
78.4918 0.083
78.5221 0.084
78.5523 0.033
78.5826 -0.071
78.6129 0.035
78.6432 0.036
78.6735 -0.170
78.7037 -0.064
78.7340 0.042
78.7643 0.148
78.7946 0.359
78.8248 0.101
78.8551 -0.156
78.8854 -0.101
78.9157 -0.150
78.9460 0.114
78.9762 -0.090
79.0065 0.486
79.0368 -0.030
79.0671 -0.130
79.0974 0.239
79.1276 0.088
79.1579 0.145
79.1882 0.202
79.2185 0.208
79.2488 0.161
79.2790 0.167
79.3093 0.069
79.3396 0.336
79.3699 0.290
79.4001 0.245
79.4304 -0.165
79.4607 -0.262
79.4910 0.049
79.5213 -0.212
79.5515 0.152
79.5818 0.517
79.6121 0.048
79.6424 0.673
79.6727 -0.004
79.7029 0.361
79.7332 -0.159
79.7635 -0.262
79.7938 -0.010
79.8240 -0.017
79.8543 0.288
79.8846 0.177
79.9149 0.430
79.9452 0.163
79.9754 -0.156
80.0057 -0.058
80.0360 0.196
80.0663 0.138
80.0966 0.028
80.1268 0.023
80.1571 0.018
80.1874 0.325
80.2177 0.060
80.2479 0.107
80.2782 -0.366
80.3085 0.203
80.3388 0.199
80.3691 -0.170
80.3993 -0.225
80.4296 0.084
80.4599 -0.284
80.4902 -0.026
80.5205 0.231
80.5507 -0.136
80.5810 0.331
80.6113 -0.036
80.6416 0.223
80.6718 0.221
80.7021 -0.458
80.7324 0.843
80.7627 -0.043
80.7930 0.060
80.8232 0.060
80.8535 0.528
80.8838 -0.045
80.9141 0.059
80.9444 0.007
80.9746 -0.149
81.0049 0.373
81.0352 -0.199
81.0655 0.375
81.0957 0.532
81.1260 0.221
81.1563 0.379
81.1866 0.537
81.2169 0.540
81.2471 0.854
81.2774 0.076
81.3077 -0.078
81.3380 0.081
81.3683 0.866
81.3985 0.036
81.4288 0.248
81.4591 0.252
81.4894 0.412
81.5196 0.833
81.5499 0.785
81.5802 0.269
81.6105 -0.247
81.6408 0.435
81.6710 0.128
81.7013 0.134
81.7316 -0.225
81.7619 -0.271
81.7922 -0.218
81.8224 -0.164
81.8527 0.151
81.8830 0.101
81.9133 0.260
81.9436 0.002
81.9738 -0.256
82.0041 0.425
82.0344 0.063
82.0647 0.327
82.0949 -0.138
82.1252 0.283
82.1555 0.131
82.1858 0.135
82.2161 0.608
82.2463 0.196
82.2766 -0.267
82.3069 -0.262
82.3372 -0.004
82.3675 -0.059
82.3977 -0.009
82.4280 0.406
82.4583 -0.116
82.4886 0.403
82.5188 0.037
82.5491 0.140
82.5794 0.243
82.6097 0.087
82.6400 0.190
82.6702 -0.018
82.7005 0.190
82.7308 0.399
82.7611 -0.278
82.7914 0.191
82.8216 -0.016
82.8519 -0.171
82.8822 0.195
82.9125 -0.064
82.9427 0.406
82.9730 -0.113
83.0033 0.098
83.0336 -0.161
83.0639 -0.262
83.0941 -0.008
83.1244 0.194
83.1547 0.345
83.1850 -0.025
83.2153 0.126
83.2455 -0.296
83.2758 -0.041
83.3061 -0.306
83.3364 0.002
83.3666 -0.002
83.3969 -0.163
83.4272 0.302
83.4575 -0.066
83.4878 -0.226
83.5180 0.083
83.5483 -0.232
83.5786 0.390
83.6089 0.335
83.6392 -0.761
83.6694 -0.086
83.6997 0.225
83.7300 0.379
83.7603 -0.039
83.7905 -0.197
83.8208 0.427
83.8511 0.270
83.8814 0.321
83.9117 0.425
83.9419 0.112
83.9722 -0.305
84.0025 -0.044
84.0328 0.113
84.0631 -0.304
84.0933 -0.200
84.1236 -0.147
84.1539 0.009
84.1842 -0.043
84.2144 0.323
84.2447 -0.145
84.2750 0.481
84.3053 0.066
84.3356 -0.245
84.3658 0.121
84.3961 0.123
84.4264 0.125
84.4567 -0.081
84.4870 0.234
84.5172 0.081
84.5475 0.188
84.5778 -0.121
84.6081 0.143
84.6383 0.459
84.6686 -0.110
84.6989 -0.054
84.7292 0.106
84.7595 0.059
84.7897 0.220
84.8200 -0.244
84.8503 -0.031
84.8806 0.704
84.9109 -0.124
84.9411 -0.274
84.9714 0.035
85.0017 0.032
85.0320 -0.075
85.0623 -0.130
85.0925 -0.132
85.1228 0.126
85.1531 0.228
85.1834 0.122
85.2136 -0.036
85.2439 0.640
85.2742 -0.299
85.3045 0.169
85.3348 0.168
85.3650 -0.145
85.3953 -0.406
85.4256 0.059
85.4559 0.211
85.4862 -0.574
85.5164 0.256
85.5467 -0.060
85.5770 0.145
85.6073 -0.067
85.6375 0.608
85.6678 -0.280
85.6981 0.446
85.7284 -0.129
85.7587 -0.339
85.7889 0.388
85.8192 -0.134
85.8495 0.594
85.8798 0.020
85.9101 0.019
85.9403 0.383
85.9706 0.226
86.0009 0.278
86.0312 -0.347
86.0614 0.018
86.0917 -0.347
86.1220 0.123
86.1523 0.176
86.1826 0.333
86.2128 -0.239
86.2431 0.231
86.2734 0.389
86.3037 -0.234
86.3340 -0.076
86.3642 -0.177
86.3945 0.137
86.4248 -0.277
86.4551 -0.225
86.4853 0.349
86.5156 -0.276
86.5459 0.349
86.5762 0.142
86.6065 0.039
86.6367 -0.221
86.6670 -0.271
86.6973 -0.062
86.7276 0.096
86.7579 0.306
86.7881 -0.056
86.8184 -0.106
86.8487 0.156
86.8790 0.211
86.9092 0.162
86.9395 0.165
86.9698 -0.040
87.0001 -0.141
87.0304 0.383
87.0606 -0.081
87.0909 -0.129
87.1212 -0.177
87.1515 0.088
87.1818 -0.116
87.2120 -0.059
87.2423 -0.262
87.2726 -0.108
87.3029 0.515
87.3331 0.514
87.3634 -0.061
87.3937 -0.062
87.4240 -0.011
87.4543 0.249
87.4845 0.353
87.5148 0.196
87.5451 0.196
87.5754 -0.116
87.6057 -0.116
87.6359 -0.168
87.6662 -0.323
87.6965 0.147
87.7268 0.148
87.7571 0.201
87.7873 -0.058
87.8176 -0.160
87.8479 -0.262
87.8782 -0.117
87.9084 0.288
87.9387 -0.243
87.9690 -0.150
87.9993 0.517
88.0296 0.038
88.0598 0.184
88.0901 -0.295
88.1204 0.269
88.1507 0.520
88.1810 0.094
88.2112 0.033
88.2415 0.076
88.2718 0.067
88.3021 -0.358
88.3323 -0.159
88.3626 0.248
88.3929 -0.229
88.4232 -0.186
88.4535 0.118
88.4837 0.318
88.5140 0.153
88.5443 -0.220
88.5746 0.554
88.6049 -0.027
88.6351 0.018
88.6654 0.167
88.6957 0.368
88.7260 -0.055
88.7562 0.199
88.7865 -0.016
88.8168 0.291
88.8471 0.128
88.8774 0.175
88.9076 0.950
88.9379 0.164
88.9682 0.523
88.9985 0.414
89.0288 -0.163
89.0590 0.718
89.0893 0.609
89.1196 0.605
89.1499 1.070
89.1801 1.015
89.2104 0.803
89.2407 0.904
89.2710 1.161
89.3013 0.898
89.3315 0.687
89.3618 1.050
89.3921 1.152
89.4224 1.045
89.4527 1.304
89.4829 0.521
89.5132 0.781
89.5435 1.665
89.5738 1.247
89.6040 1.091
89.6343 1.871
89.6646 0.777
89.6949 1.246
89.7252 0.778
89.7554 0.986
89.7857 0.622
89.8160 0.779
89.8463 0.520
89.8766 0.782
89.9068 0.783
89.9371 0.108
89.9674 0.318
89.9977 0.476
90.0279 0.375
90.0582 0.377
90.0885 0.171
90.1188 0.331
90.1491 -0.187
90.1793 0.702
90.2096 0.445
90.2399 0.449
90.2702 0.140
90.3005 -0.116
90.3307 0.513
90.3610 -0.003
90.3913 -0.102
90.4216 -0.305
90.4518 -0.097
90.4821 0.216
90.5124 -0.148
90.5427 -0.095
90.5730 0.218
90.6032 -0.093
90.6335 0.221
90.6638 0.223
90.6941 0.329
90.7244 0.122
90.7546 -0.084
90.7849 -0.185
90.8152 -0.339
90.8455 0.289
90.8758 0.084
90.9060 -0.017
90.9363 0.247
90.9666 -0.322
90.9969 -0.058
91.0271 -0.054
91.0574 -0.362
91.0877 -0.049
91.1180 -0.100
91.1483 -0.099
91.1785 0.058
91.2088 -0.044
91.2391 -0.043
91.2694 -0.041
91.2997 -0.247
91.3299 -0.297
91.3602 -0.037
91.3905 -0.297
91.4208 -0.297
91.4510 0.013
91.4813 0.167
91.5116 -0.304
91.5419 0.319
91.5722 0.265
91.6024 0.159
91.6327 0.002
91.6630 -0.208
91.6933 -0.104
91.7236 -0.157
91.7538 -0.053
91.7841 0.363
91.8144 0.415
91.8447 -0.470
91.8749 0.155
91.9052 0.156
91.9355 -0.156
91.9658 -0.102
91.9961 -0.414
92.0263 -0.001
92.0566 -0.006
92.0869 -0.062
92.1172 0.299
92.1475 -0.121
92.1777 0.396
92.2080 0.498
92.2383 -0.287
92.2686 -0.289
92.2988 -0.136
92.3291 -0.086
92.3594 0.016
92.3897 -0.090
92.4200 -0.039
92.4502 0.272
92.4805 0.010
92.5108 0.374
92.5411 0.529
92.5714 0.425
92.6016 0.216
92.6319 0.997
92.6622 0.841
92.6925 0.008
92.7227 0.737
92.7530 -0.095
92.7833 0.583
92.8136 -0.093
92.8439 0.377
92.8741 -0.090
92.9044 0.484
92.9347 0.330
92.9650 -0.085
92.9953 0.074
93.0255 0.858
93.0558 0.861
93.0861 0.395
93.1164 0.086
93.1466 -0.015
93.1769 -0.063
93.2072 0.357
93.2375 0.309
93.2678 -0.051
93.2980 0.005
93.3283 -0.094
93.3586 0.275
93.3889 -0.501
93.4192 0.286
93.4494 0.031
93.4797 0.245
93.5100 0.095
93.5403 -0.107
93.5706 -0.153
93.6008 0.218
93.6311 -0.088
93.6614 -0.289
93.6917 -0.078
93.7219 -0.284
93.7522 0.344
93.7825 0.139
93.8128 0.559
93.8431 0.511
93.8733 0.671
93.9036 0.154
93.9339 -0.206
93.9642 -0.358
93.9945 0.100
94.0247 0.038
94.0550 0.132
94.0853 0.539
94.1156 0.529
94.1458 0.259
94.1761 -0.167
94.2064 0.449
94.2367 0.075
94.2670 0.066
94.2972 -0.411
94.3275 -0.003
94.3578 -0.219
94.3881 0.033
94.4184 0.338
94.4486 -0.294
94.4789 0.636
94.5092 0.577
94.5395 0.362
94.5697 0.251
94.6000 0.870
94.6303 0.395
94.6606 0.180
94.6909 0.018
94.7211 -0.144
94.7514 0.216
94.7817 0.836
94.8120 0.726
94.8423 0.670
94.8725 0.040
94.9028 1.130
94.9331 1.230
94.9634 1.174
94.9936 0.858
95.0239 0.385
95.0542 1.632
95.0845 1.317
95.1148 0.949
95.1450 1.624
95.1753 1.257
95.2056 1.307
95.2359 1.825
95.2662 1.094
95.2964 1.041
95.3267 1.456
95.3570 1.299
95.3873 1.142
95.4175 1.297
95.4478 0.255
95.4781 0.828
95.5084 1.296
95.5387 0.776
95.5689 0.307
95.5992 0.568
95.6295 0.204
95.6598 0.830
95.6901 0.467
95.7203 0.208
95.7506 0.678
95.7809 0.368
95.8112 0.213
95.8414 -0.045
95.8717 0.114
95.9020 0.117
95.9323 0.328
95.9626 -0.190
95.9928 0.230
96.0231 0.182
96.0534 0.081
96.0837 0.450
96.1140 0.141
96.1442 -0.115
96.1745 -0.110
96.2048 0.103
96.2351 -0.048
96.2653 0.009
96.2956 0.379
96.3259 0.176
96.3562 -0.130
96.3865 -0.124
96.4167 0.299
96.4470 0.409
96.4773 -0.313
96.5076 -0.202
96.5379 0.222
96.5681 -0.084
96.5984 -0.597
96.6287 -0.027
96.6590 -0.030
96.6893 -0.136
96.7195 0.122
96.7498 0.328
96.7801 -0.247
96.8104 -0.040
96.8406 -0.042
96.8709 0.269
96.9012 0.008
96.9315 -0.045
96.9618 -0.046
96.9920 0.475
97.0223 -0.463
97.0526 0.058
97.0829 0.006
97.1132 -0.098
97.1434 -0.305
97.1737 -0.155
97.2040 -0.056
97.2343 0.096
97.2645 -0.274
97.2948 -0.070
97.3251 0.134
97.3554 -0.078
97.3857 0.230
97.4159 -0.190
97.4462 -0.193
97.4765 -0.093
97.5068 -0.096
97.5371 -0.359
97.5673 0.159
97.5976 -0.103
97.6279 -0.314
97.6582 0.101
97.6884 -0.109
97.7187 0.045
97.7490 -0.060
97.7793 0.251
97.8096 -0.479
97.8398 0.249
97.8701 -0.272
97.9004 0.196
97.9307 0.040
97.9610 -0.272
97.9912 0.197
98.0215 -0.063
98.0518 0.146
98.0821 -0.218
98.1123 0.148
98.1426 0.306
98.1729 0.568
98.2032 0.570
98.2335 0.207
98.2637 0.157
98.2940 0.316
98.3243 0.996
98.3546 0.321
98.3849 0.064
98.4151 0.432
98.4454 0.800
98.4757 0.595
98.5060 0.443
98.5362 0.343
98.5665 0.295
98.5968 0.873
98.6271 0.513
98.6574 0.726
98.6876 0.419
98.7179 0.476
98.7482 0.586
98.7785 0.331
98.8088 -0.027
98.8390 0.813
98.8693 0.350
98.8996 0.096
98.9299 0.572
98.9601 0.319
98.9904 -0.143
99.0207 0.177
99.0510 0.706
99.0813 0.610
99.1115 0.149
99.1418 0.470
99.1721 -0.042
99.2024 0.018
99.2327 -0.077
99.2629 0.401
99.2932 0.411
99.3235 0.576
99.3538 0.170
99.3841 0.180
99.4143 0.398
99.4446 0.148
99.4749 0.211
99.5052 0.170
99.5354 -0.027
99.5657 -0.277
99.5960 -0.075
99.6263 0.388
99.6566 0.538
99.6868 0.428
99.7171 0.110
99.7474 -0.208
99.7777 0.203
99.8080 -0.375
99.8382 0.141
99.8685 0.293
99.8988 0.132
99.9291 0.388
99.9593 0.124
99.9896 -0.036
100.0199 0.013
100.0502 -0.147
100.0805 0.162
100.1107 0.107
100.1410 -0.156
100.1713 0.206
100.2016 -0.004
100.2319 -0.007
100.2621 -0.113
100.2924 -0.010
100.3227 0.145
100.3530 0.144
100.3832 -0.014
100.4135 0.090
100.4438 0.089
100.4741 -0.172
100.5044 -0.068
100.5346 -0.068
100.5649 0.505
100.5952 0.141
100.6255 -0.066
100.6558 -0.013
100.6860 0.561
100.7163 0.145
100.7466 -0.166
100.7769 0.148
100.8071 0.046
100.8374 -0.004
100.8677 -0.210
100.8980 -0.051
100.9283 0.004
100.9585 -0.306
100.9888 -0.107
101.0191 -0.168
101.0494 0.291
101.0797 -0.343
101.1099 0.117
101.1402 0.369
101.1705 0.257
101.2008 -0.116
101.2310 -0.020
101.2613 -0.184
101.2916 0.538
101.3219 0.218
101.3522 -0.102
101.3824 0.465
101.4127 0.041
101.4430 0.035
101.4733 0.289
101.5036 0.335
101.5338 0.173
101.5641 0.167
101.5944 0.422
101.6247 0.053
101.6549 0.569
101.6852 0.199
101.7155 -0.222
101.7458 -0.070
101.7761 -0.126
101.8063 -0.443
101.8366 0.023
101.8669 -0.553
101.8972 0.173
101.9275 0.170
101.9577 -0.041
101.9880 0.009
102.0183 -0.514
102.0486 0.421
102.0788 -0.362
102.1091 -0.051
102.1394 0.104
102.1697 -0.522
102.2000 -0.219
102.2302 -0.073
102.2605 -0.344
102.2908 0.064
102.3211 -0.102
102.3514 -0.163
102.3816 -0.172
102.4119 -0.077
102.4422 0.696
102.4725 0.114
102.5028 0.262
102.5330 0.359
102.5633 -0.118
102.5936 0.656
102.6239 0.492
102.6541 -0.036
102.6844 -0.147
102.7147 -0.206
102.7450 0.517
102.7753 0.459
102.8055 0.349
102.8358 0.030
102.8661 -0.236
102.8964 -0.189
102.9267 -0.246
102.9569 -0.147
102.9872 0.056
103.0175 0.364
103.0478 0.256
103.0780 0.147
103.1083 0.352
103.1386 0.504
103.1689 0.449
103.1992 0.185
103.2294 0.859
103.2597 0.023
103.2900 0.020
103.3203 -0.034
103.3506 0.276
103.3808 0.013
103.4111 0.064
103.4414 0.635
103.4717 0.425
103.5019 0.528
103.5322 -0.254
103.5625 0.110
103.5928 0.005
103.6231 0.057
103.6533 0.473
103.6836 0.317
103.7139 0.005
103.7442 0.891
103.7745 0.006
103.8047 0.840
103.8350 0.321
103.8653 0.582
103.8956 0.480
103.9258 0.638
103.9561 0.536
103.9864 0.746
104.0167 0.592
104.0470 0.334
104.0772 0.337
104.1075 0.549
104.1378 0.396
104.1681 0.920
104.1984 0.819
104.2286 0.563
104.2589 0.775
104.2892 0.311
104.3195 1.617
104.3497 0.164
104.3800 0.012
104.4103 0.174
104.4406 0.596
104.4709 1.122
104.5011 0.399
104.5314 0.301
104.5617 0.359
104.5920 0.053
104.6223 -0.201
104.6525 0.327
104.6828 -0.291
104.7131 0.029
104.7434 0.140
104.7736 -0.633
104.8039 -0.001
104.8342 0.424
104.8645 -0.245
104.8948 0.545
104.9250 -0.279
104.9553 0.198
104.9856 0.155
105.0159 0.113
105.0462 0.174
105.0764 0.184
105.1067 -0.379
105.1370 -0.212
105.1673 -0.098
105.1975 0.382
105.2278 -0.389
105.2581 0.039
105.2884 -0.002
105.3187 -0.147
105.3489 0.334
105.3792 -0.019
105.4095 -0.319
105.4398 0.058
105.4701 0.018
105.5003 0.135
105.5306 0.096
105.5609 -0.308
105.5912 -0.206
105.6215 0.417
105.6517 -0.106
105.6820 0.205
105.7123 -0.213
105.7426 0.358
105.7728 -0.164
105.8031 -0.113
105.8334 0.251
105.8637 -0.062
105.8940 -0.114
105.9242 -0.114
105.9545 -0.322
105.9848 0.199
106.0151 0.252
106.0454 -0.112
106.0756 -0.111
106.1059 0.202
106.1362 -0.109
106.1665 -0.055
106.1967 -0.001
106.2270 -0.103
106.2573 0.055
106.2876 0.318
106.3179 0.165
106.3481 0.011
106.3784 -0.090
106.4087 0.070
106.4390 0.073
106.4693 -0.079
106.4995 0.081
106.5298 0.241
106.5601 0.246
106.5904 -0.479
106.6206 -0.214
106.6509 -0.261
106.6812 -0.152
106.7115 0.218
106.7418 0.224
106.7720 -0.135
106.8023 0.080
106.8326 -0.331
106.8629 -0.176
106.8932 0.395
106.9234 0.238
106.9537 -0.232
106.9840 0.080
107.0143 0.340
107.0445 0.235
107.0748 0.235
107.1051 0.183
107.1354 0.183
107.1657 0.340
107.1959 -0.076
107.2262 0.081
107.2565 0.082
107.2868 0.032
107.3171 0.085
107.3473 0.087
107.3776 0.453
107.4079 0.351
107.4382 -0.063
107.4684 0.252
107.4987 0.151
107.5290 0.258
107.5593 0.209
107.5896 0.161
107.6198 0.477
107.6501 0.116
107.6804 0.224
107.7107 0.124
107.7410 0.285
107.7712 0.029
107.8015 -0.174
107.8318 -0.013
107.8621 -0.007
107.8923 0.467
107.9226 -0.048
107.9529 0.062
107.9832 0.068
108.0135 0.283
108.0437 0.029
108.0740 0.505
108.1043 0.147
108.1346 0.102
108.1649 -0.099
108.1951 -0.351
108.2254 0.003
108.2557 0.149
108.2860 0.244
108.3163 0.495
108.3465 -0.139
108.3768 0.008
108.4071 0.208
108.4374 -0.009
108.4676 0.191
108.4979 0.026
108.5282 -0.294
108.5585 0.010
108.5888 -0.101
108.6190 -0.161
108.6493 -0.012
108.6796 0.398
108.7099 -0.286
108.7402 0.177
108.7704 0.170
108.8007 0.216
108.8310 0.158
108.8613 -0.316
108.8915 0.460
108.9218 -0.014
108.9521 0.189
108.9824 -0.232
109.0127 -0.289
109.0429 -0.087
109.0732 -0.249
109.1035 0.423
109.1338 -0.260
109.1641 -0.005
109.1943 0.095
109.2246 -0.014
109.2549 0.346
109.2852 -0.388
109.3154 0.129
109.3457 -0.031
109.3760 0.121
109.4063 0.013
109.4366 -0.094
109.4668 0.267
109.4971 0.056
109.5274 -0.155
109.5577 -0.261
109.5880 -0.055
109.6182 -0.005
109.6485 -0.059
109.6788 -0.009
109.7091 -0.010
109.7393 0.249
109.7696 -0.169
109.7999 0.195
109.8302 0.247
109.8605 0.194
109.8907 0.298
109.9210 -0.222
109.9513 0.611
109.9816 0.508
110.0119 0.665
110.0421 0.145
110.0724 0.094
110.1027 0.407
110.1330 0.305
110.1632 0.255
110.1935 -0.056
110.2238 0.519
110.2541 -0.104
110.2844 0.420
110.3146 0.006
110.3449 0.947
110.3752 0.169
110.4055 0.328
110.4358 0.019
110.4660 0.544
110.4963 0.288
110.5266 0.813
110.5569 0.088
110.5871 0.353
110.6174 0.410
110.6477 0.207
110.6780 0.004
110.7083 0.218
110.7385 0.432
110.7688 0.230
110.7991 0.184
110.8294 0.503
110.8597 0.510
110.8899 0.412
110.9202 0.211
110.9505 0.270
110.9808 -0.087
111.0110 0.233
111.0413 0.241
111.0716 0.405
111.1019 0.362
111.1322 -0.099
111.1624 0.066
111.1927 0.544
111.2230 0.189
111.2533 0.250
111.2836 0.051
111.3138 0.530
111.3441 -0.189
111.3744 -0.023
111.4047 -0.064
111.4350 -0.262
111.4652 -0.104
111.4955 0.627
111.5258 0.420
111.5561 0.058
111.5863 0.842
111.6166 0.063
111.6469 0.066
111.6772 0.226
111.7075 0.281
111.7377 0.128
111.7680 0.444
111.7983 0.188
111.8286 -0.016
111.8589 0.353
111.8891 0.201
111.9194 0.466
111.9497 -0.154
111.9800 -0.253
112.0102 -0.368
112.0405 0.195
112.0708 -0.024
112.1011 0.383
112.1314 0.581
112.1616 0.050
112.1919 0.041
112.2222 0.032
112.2525 -0.134
112.2828 -0.195
112.3130 -0.047
112.3433 -0.212
112.3736 0.144
112.4039 0.136
112.4341 0.024
112.4644 0.069
112.4947 0.218
112.5250 -0.050
112.5553 0.151
112.5855 -0.012
112.6158 -0.383
112.6461 -0.077
112.6764 -0.031
112.7067 0.640
112.7369 -0.096
112.7672 -0.049
112.7975 0.049
112.8278 -0.164
112.8580 -0.170
112.8883 -0.018
112.9186 0.029
112.9489 -0.236
112.9792 -0.136
113.0094 -0.244
113.0397 0.325
113.0700 0.008
113.1003 -0.047
113.1306 0.002
113.1608 -0.106
113.1911 0.048
113.2214 0.358
113.2517 0.043
113.2819 -0.064
113.3122 0.195
113.3425 0.141
113.3728 -0.329
113.4031 0.294
113.4333 -0.176
113.4636 0.188
113.4939 0.448
113.5242 0.291
113.5545 -0.178
113.5847 -0.335
113.6150 0.083
113.6453 -0.229
113.6756 -0.280
113.7058 -0.227
113.7361 -0.017
113.7664 -0.172
113.7967 0.142
113.8270 -0.168
113.8572 0.250
113.8875 -0.216
113.9178 0.620
113.9481 -0.002
113.9784 -0.103
114.0086 -0.256
114.0389 -0.149
114.0692 -0.249
114.0995 0.067
114.1298 -0.137
114.1600 -0.289
114.1903 -0.138
114.2206 0.430
114.2509 -0.357
114.2811 -0.205
114.3114 -0.262
114.3417 0.046
114.3720 -0.115
114.4023 0.350
114.4325 -0.122
114.4628 0.030
114.4931 0.183
114.5234 -0.080
114.5537 -0.031
114.5839 -0.034
114.6142 0.120
114.6445 -0.039
114.6748 0.324
114.7050 -0.199
114.7353 -0.253
114.7656 -0.150
114.7959 0.109
114.8262 0.056
114.8564 -0.362
114.8867 -0.163
114.9170 -0.069
114.9473 0.026
114.9776 0.017
115.0078 0.216
115.0381 -0.001
115.0684 0.094
115.0987 0.190
115.1289 0.182
115.1592 -0.035
115.1895 -0.407
115.2198 0.002
115.2501 0.255
115.2803 -0.117
115.3106 0.033
115.3409 -0.182
115.3712 0.280
115.4015 0.065
115.4317 0.528
115.4620 0.261
115.4923 0.204
115.5226 0.459
115.5528 0.141
115.5831 0.344
115.6134 0.443
115.6437 1.012
115.6740 0.955
115.7042 0.170
115.7345 0.270
115.7648 0.370
115.7951 0.523
115.8254 0.311
115.8556 0.516
115.8859 0.826
115.9162 0.459
115.9465 0.821
115.9767 0.610
116.0070 0.712
116.0373 -0.227
116.0676 1.594
116.0979 0.655
116.1281 0.758
116.1584 0.236
116.1887 0.964
116.2190 0.495
116.2493 0.651
116.2795 0.651
116.3098 1.015
116.3401 0.703
116.3704 1.016
116.4006 1.173
116.4309 0.445
116.4612 0.550
116.4915 0.655
116.5218 0.032
116.5520 0.971
116.5823 0.765
116.6126 0.975
116.6429 1.029
116.6732 1.344
116.7034 0.878
116.7337 0.517
116.7640 0.520
116.7943 0.888
116.8245 0.423
116.8548 0.427
116.8851 0.274
116.9154 0.331
116.9457 0.544
116.9759 0.548
117.0062 0.501
117.0365 0.714
117.0668 0.355
117.0971 -0.160
117.1273 0.679
117.1576 0.581
117.1879 0.691
117.2182 -0.084
117.2485 -0.077
117.2787 0.138
117.3090 0.145
117.3393 0.568
117.3696 0.055
117.3998 0.271
117.4301 0.175
117.4604 -0.234
117.4907 -0.122
117.5210 -0.113
117.5512 0.312
117.5815 -0.096
117.6118 0.643
117.6421 0.340
117.6724 0.141
117.7026 0.150
117.7329 0.785
117.7632 0.587
117.7935 0.025
117.8237 -0.381
117.8540 0.098
117.8843 -0.360
117.9146 -0.206
117.9449 -0.208
117.9751 0.519
118.0054 -0.107
118.0357 0.047
118.0660 0.202
118.0963 -0.163
118.1265 0.044
118.1568 0.408
118.1871 0.564
118.2174 -0.165
118.2476 -0.009
118.2779 0.251
118.3082 0.043
118.3385 0.200
118.3688 0.045
118.3990 0.098
118.4293 -0.005
118.4596 0.622
118.4899 0.102
118.5202 0.000
118.5504 -0.258
118.5807 0.161
118.6110 0.267
118.6413 -0.042
118.6715 0.013
118.7018 -0.140
118.7321 0.123
118.7624 -0.081
118.7927 0.027
118.8229 -0.230
118.8532 0.295
118.8835 0.300
118.9138 0.200
118.9441 -0.524
118.9743 0.158
119.0046 -0.306
119.0349 -0.257
119.0652 -0.053
119.0954 0.152
119.1257 -0.007
119.1560 -0.218
119.1863 0.404
119.2166 0.089
119.2468 0.347
119.2771 0.241
119.3074 0.291
119.3377 -0.231
119.3680 0.340
119.3982 0.027
119.4285 0.182
119.4588 0.077
119.4891 0.076
119.5193 -0.185
119.5496 -0.081
119.5799 -0.289
119.6102 -0.081
119.6405 0.179
119.6707 0.439
119.7010 0.387
119.7313 0.179
119.7616 -0.237
119.7919 -0.289
119.8221 -0.010
119.8524 0.217
119.8827 -0.337
119.9130 0.254
119.9433 0.169
119.9735 0.189
120.0038 0.000
