'Id: "" Comment: "" Operator: "Lab Manager" Anode: "Cu" Scantype: "Locked Coupled" TimePerStep: "19.2" X: "9999" Y: "9999" Z: "9999" 
10.0015 0.000
10.0318 -0.585
10.0620 -0.320
10.0923 -0.681
10.1226 -0.244
10.1529 -0.537
10.1832 0.525
10.2134 -0.340
10.2437 0.462
10.2740 0.222
10.3043 -0.069
10.3346 -0.153
10.3648 0.546
10.3951 0.046
10.4254 0.119
10.4557 -0.328
10.4859 -0.098
10.5162 0.497
10.5465 0.363
10.5768 0.437
10.6071 -0.531
10.6373 -0.092
10.6676 0.504
10.6979 0.058
10.7282 -0.492
10.7585 0.208
10.7887 -0.030
10.8190 -0.475
10.8493 -0.325
10.8796 0.034
10.9098 -0.388
10.9401 0.284
10.9704 -0.242
11.0007 0.014
11.0310 0.477
11.0612 0.525
11.0915 0.729
11.1218 0.255
11.1521 -0.113
11.1824 1.393
11.2126 0.243
11.2429 1.489
11.2732 0.287
11.3035 0.388
11.3337 0.385
11.3640 -0.452
11.3943 0.170
11.4246 0.583
11.4549 0.164
11.4851 0.682
11.5154 0.783
11.5457 0.260
11.5760 0.466
11.6063 -0.213
11.6365 0.618
11.6668 0.200
11.6971 -0.271
11.7274 0.769
11.7577 0.611
11.7879 0.402
11.8182 -0.016
11.8485 0.920
11.8788 0.294
11.9090 -0.227
11.9393 0.085
11.9696 1.751
11.9999 0.136
12.0302 0.500
12.0604 0.500
12.0907 -0.021
12.1210 0.552
12.1513 0.657
12.1816 0.657
12.2118 -0.071
12.2421 0.190
12.2724 0.347
12.3027 -0.225
12.3329 0.349
12.3632 -0.326
12.3935 -0.169
12.4238 0.510
12.4541 0.147
12.4843 0.566
12.5146 -0.005
12.5449 -0.836
12.5752 0.156
12.6055 0.158
12.6357 0.265
12.6660 0.215
12.6963 0.166
12.7266 0.221
12.7568 0.068
12.7871 0.436
12.8174 -0.342
12.8477 0.079
12.8780 -1.064
12.9082 -0.018
12.9385 0.194
12.9688 0.094
12.9991 -0.162
13.0294 0.155
13.0596 0.680
13.0899 -0.148
13.1202 0.221
13.1505 0.278
13.1807 0.439
13.2110 0.028
13.2413 0.242
13.2716 0.560
13.3019 0.045
13.3321 0.467
13.3624 -0.204
13.3927 -0.094
13.4230 0.173
13.4533 0.388
13.4835 -0.023
13.5138 -0.016
13.5441 -0.478
13.5744 -0.002
13.6046 0.213
13.6349 0.064
13.6652 -0.710
13.6955 -0.343
13.7258 0.180
13.7560 0.442
13.7863 0.288
13.8166 0.031
13.8469 -0.019
13.8772 0.036
13.9074 -0.013
13.9377 0.563
13.9680 0.514
13.9983 -0.316
14.0285 -0.417
14.0588 -0.257
14.0891 0.007
14.1194 -0.354
14.1497 -0.193
14.1799 0.280
14.2102 -0.289
14.2405 0.497
14.2708 -0.072
14.3011 0.402
14.3313 0.146
14.3616 -0.005
14.3919 -0.260
14.4222 -0.046
14.4524 -0.562
14.4827 0.173
14.5130 0.699
14.5433 0.445
14.5736 0.190
14.6038 -0.376
14.6341 -0.162
14.6644 -0.259
14.6947 -0.253
14.7250 0.275
14.7552 -0.500
14.7855 0.184
14.8158 -0.381
14.8461 0.251
14.8764 -0.575
14.9066 -0.307
14.9369 -0.091
14.9672 0.281
14.9975 -0.075
15.0277 -0.328
15.0580 -0.163
15.0883 0.001
15.1186 0.843
15.1489 0.071
15.1791 -0.233
15.2094 0.245
15.2397 -0.215
15.2700 0.003
15.3003 0.429
15.3305 -0.187
15.3608 -0.073
15.3911 -0.220
15.4214 -0.418
15.4516 -0.512
15.4819 0.166
15.5122 0.063
15.5425 0.482
15.5728 0.379
15.6030 -0.192
15.6333 0.279
15.6636 0.541
15.6939 0.179
15.7242 0.077
15.7544 0.340
15.7847 -0.178
15.8150 -0.175
15.8453 -0.589
15.8755 -0.070
15.9058 0.188
15.9361 -0.126
15.9664 -0.283
15.9967 0.080
16.0269 -0.494
16.0572 0.129
16.0875 -0.028
16.1178 0.180
16.1481 0.596
16.1783 0.647
16.2086 0.178
16.2389 0.021
16.2692 0.073
16.2994 -0.291
16.3297 0.073
16.3600 0.074
16.3903 0.178
16.4206 0.387
16.4508 0.023
16.4811 -0.028
16.5114 0.025
16.5417 0.026
16.5720 -0.025
16.6022 0.446
16.6325 0.760
16.6628 0.241
16.6931 -0.018
16.7233 -0.329
16.7536 -0.066
16.7839 0.405
16.8142 0.303
16.8445 0.097
16.8747 -0.160
16.9050 -0.053
16.9353 0.210
16.9656 -0.308
16.9959 0.112
17.0261 0.376
17.0564 -0.246
17.0867 0.748
17.1170 -0.655
17.1472 0.286
17.1775 -0.334
17.2078 0.191
17.2381 -0.274
17.2684 0.199
17.2986 -0.317
17.3289 0.417
17.3592 -0.307
17.3895 0.271
17.4198 0.224
17.4500 0.333
17.4803 0.026
17.5106 0.292
17.5409 0.559
17.5712 0.200
17.6014 0.414
17.6317 0.316
17.6620 -0.459
17.6923 -0.036
17.7225 -0.289
17.7528 0.238
17.7831 -0.067
17.8134 -0.685
17.8437 -0.164
17.8739 -0.112
17.9042 -0.164
17.9345 0.410
17.9648 -0.058
17.9951 -0.370
18.0253 0.673
18.0556 0.518
18.0859 -0.367
18.1162 -0.209
18.1464 -0.103
18.1767 0.576
18.2070 0.004
18.2373 0.006
18.2676 0.425
18.2978 -0.250
18.3281 0.430
18.3584 -0.141
18.3887 0.122
18.4190 -0.187
18.4492 0.076
18.4795 -0.181
18.5098 0.655
18.5401 0.346
18.5703 -0.171
18.6006 0.093
18.6309 0.097
18.6612 -0.472
18.6915 -0.104
18.7217 0.161
18.7520 0.113
18.7823 -0.143
18.8126 0.539
18.8429 0.023
18.8731 -0.337
18.9034 0.137
18.9337 0.038
18.9640 -0.165
18.9942 -0.003
19.0245 -0.518
19.0548 0.269
19.0851 0.066
19.1154 -0.344
19.1456 0.079
19.1759 0.085
19.2062 0.352
19.2365 0.515
19.2668 0.157
19.2970 0.216
19.3273 0.275
19.3576 -0.083
19.3879 0.081
19.4181 0.349
19.4484 -0.008
19.4787 0.104
19.5090 0.111
19.5393 0.172
19.5695 0.284
19.5998 -0.333
19.6301 -0.168
19.6604 -0.212
19.6907 -0.359
19.7209 -0.052
19.7512 -0.005
19.7815 0.094
19.8118 0.245
19.8420 -0.020
19.8723 0.131
19.9026 0.335
19.9329 0.330
19.9632 0.170
19.9934 0.010
20.0237 0.839
20.0540 0.314
20.0843 0.206
20.1146 0.255
20.1448 -0.165
20.1751 -0.065
20.2054 0.141
20.2357 -0.435
20.2659 -0.178
20.2962 0.184
20.3265 -0.235
20.3568 -0.186
20.3871 0.333
20.4173 0.539
20.4476 -0.192
20.4779 0.275
20.5082 0.117
20.5385 0.063
20.5687 -0.512
20.5990 -0.044
20.6293 0.215
20.6596 0.683
20.6899 0.109
20.7201 0.369
20.7504 -0.309
20.7807 0.419
20.8110 0.315
20.8412 -0.206
20.8715 -0.154
20.9018 0.783
20.9321 0.107
20.9624 0.055
20.9926 0.055
21.0229 -0.361
21.0532 -0.152
21.0835 -0.463
21.1138 0.006
21.1440 0.372
21.1743 -0.199
21.2046 -0.146
21.2349 0.012
21.2651 0.639
21.2954 0.380
21.3257 -0.087
21.3560 -0.241
21.3863 -0.082
21.4165 -0.080
21.4468 -0.546
21.4771 -0.129
21.5074 -0.285
21.5377 0.341
21.5679 0.498
21.5982 -0.231
21.6285 0.031
21.6588 0.032
21.6890 0.398
21.7193 0.034
21.7496 0.609
21.7799 -0.327
21.8102 -0.169
21.8404 -0.480
21.8707 0.043
21.9010 -0.215
21.9313 0.308
21.9616 -0.210
21.9918 -0.259
22.0221 0.004
22.0524 -0.098
22.0827 -0.199
22.1129 -0.143
22.1432 0.016
22.1735 -0.449
22.2038 0.023
22.2341 0.444
22.2643 -0.177
22.2946 0.035
22.3249 -0.065
22.3552 0.304
22.3855 -0.108
22.4157 -0.156
22.4460 -0.099
22.4763 -0.146
22.5066 -0.245
22.5368 -0.084
22.5671 0.130
22.5974 0.187
22.6277 -0.016
22.6580 -0.166
22.6882 0.256
22.7185 -0.050
22.7488 -0.356
22.7791 -0.150
22.8094 0.212
22.8396 -0.362
22.8699 0.261
22.9002 -0.053
22.9305 0.050
22.9607 -0.004
22.9910 -0.161
23.0213 -0.162
23.0516 -0.059
23.0819 -0.216
23.1121 -0.164
23.1424 0.200
23.1727 0.095
23.2030 -0.322
23.2333 0.095
23.2635 0.251
23.2938 -0.113
23.3241 0.148
23.3544 -0.216
23.3846 -0.268
23.4149 0.567
23.4452 -0.787
23.4755 -0.056
23.5058 -0.316
23.5360 -0.210
23.5663 0.260
23.5966 0.418
23.6269 0.160
23.6572 -0.307
23.6874 -0.045
23.7177 0.322
23.7480 0.220
23.7783 0.119
23.8086 -0.191
23.8388 -0.241
23.8691 -0.394
23.8994 0.494
23.9297 0.081
23.9599 -0.280
23.9902 -0.485
24.0205 0.086
24.0508 -0.384
24.0811 -0.125
24.1113 0.291
24.1416 -0.543
24.1719 0.289
24.2022 -0.024
24.2325 0.184
24.2627 -0.025
24.2930 -0.181
24.3233 0.079
24.3536 -0.025
24.3838 -0.181
24.4141 0.080
24.4444 0.132
24.4747 -0.076
24.5050 -0.179
24.5352 0.134
24.5655 0.083
24.5958 -0.124
24.6261 -0.279
24.6564 0.764
24.6866 0.089
24.7169 0.195
24.7472 -0.116
24.7775 0.251
24.8077 -0.268
24.8380 -0.630
24.8683 0.310
24.8986 0.364
24.9289 0.055
24.9591 0.162
24.9894 0.113
25.0197 -0.041
25.0500 -0.194
25.0803 0.070
25.1105 0.386
25.1408 0.078
25.1711 0.446
25.2014 -0.123
25.2316 0.037
25.2619 0.302
25.2922 0.411
25.3225 -0.158
25.3528 -0.309
25.3830 0.060
25.4133 0.221
25.4436 0.122
25.4739 0.336
25.5042 -0.023
25.5344 0.138
25.5647 -0.012
25.5950 0.046
25.6253 0.312
25.6555 -0.255
25.6858 0.428
25.7161 0.226
25.7464 -0.027
25.7767 -0.125
25.8069 -0.066
25.8372 -0.372
25.8675 -0.120
25.8978 0.237
25.9281 0.176
25.9583 0.064
25.9886 -0.048
26.0189 0.517
26.0492 0.145
26.0794 -0.123
26.1097 -0.078
26.1400 0.227
26.1703 0.585
26.2006 -0.151
26.2308 0.154
26.2611 -0.008
26.2914 -0.171
26.3217 0.031
26.3520 0.025
26.3822 0.175
26.4125 0.169
26.4428 0.111
26.4731 0.001
26.5034 -0.421
26.5336 -0.062
26.5639 0.193
26.5942 -0.124
26.6245 0.079
26.6547 0.179
26.6850 0.018
26.7153 -0.247
26.7456 -0.199
26.7759 0.005
26.8061 -0.156
26.8364 -0.108
26.8667 0.097
26.8970 -0.167
26.9273 0.090
26.9575 -0.018
26.9878 -0.282
27.0181 -0.233
27.0484 0.181
27.0786 0.335
27.1089 0.123
27.1392 -0.035
27.1695 -0.038
27.1998 -0.144
27.2300 0.062
27.2603 -0.252
27.2906 0.267
27.3209 -0.048
27.3512 -0.153
27.3814 0.106
27.4117 -0.312
27.4420 0.155
27.4723 -0.523
27.5025 -0.003
27.5328 -0.160
27.5631 0.308
27.5934 -0.526
27.6237 0.047
27.6539 0.359
27.6842 -0.005
27.7145 0.203
27.7448 0.099
27.7751 -0.213
27.8053 -0.629
27.8356 0.101
27.8659 0.102
27.8962 -0.106
27.9264 -0.209
27.9567 -0.103
27.9870 -0.154
28.0173 -0.205
28.0476 -0.359
28.0778 -0.257
28.1081 0.210
28.1384 0.625
28.1687 -0.366
28.1990 -0.263
28.2292 0.205
28.2595 -0.005
28.2898 -0.579
28.3201 -0.059
28.3503 0.357
28.3806 -0.060
28.4109 -0.164
28.4412 -0.216
28.4715 -0.216
28.5017 -0.268
28.5320 -0.320
28.5623 0.253
28.5926 -0.371
28.6229 0.150
28.6531 0.255
28.6834 -0.213
28.7137 -0.003
28.7440 -0.106
28.7742 -0.157
28.8045 0.053
28.8348 -0.258
28.8651 0.264
28.8954 0.058
28.9256 0.685
28.9559 -0.146
28.9862 -0.196
29.0165 -0.089
29.0468 0.018
29.0770 0.072
29.1073 -0.029
29.1376 0.026
29.1679 -0.075
29.1981 -0.644
29.2284 -0.132
29.2587 0.017
29.2890 0.738
29.3193 -0.051
29.3495 -0.007
29.3798 0.090
29.4101 -0.438
29.4404 0.076
29.4707 0.277
29.5009 0.322
29.5312 -0.257
29.5615 -0.368
29.5918 -0.122
29.6221 0.280
29.6523 0.006
29.6826 0.096
29.7129 -0.074
29.7432 0.433
29.7734 0.054
29.8037 0.406
29.8340 -0.129
29.8643 -0.350
29.8946 0.158
29.9248 -0.168
29.9551 0.184
29.9854 0.171
30.0157 0.419
30.0460 0.147
30.0762 -0.595
30.1065 0.331
30.1368 -0.202
30.1671 -0.058
30.1973 -0.174
30.2276 0.648
30.2579 -0.248
30.2882 0.261
30.3185 0.302
30.3487 -0.021
30.3790 -0.449
30.4093 -0.043
30.4396 0.259
30.4699 0.613
30.5001 -0.491
30.5304 0.228
30.5607 -0.198
30.5910 0.261
30.6212 0.407
30.6515 0.450
30.6818 0.128
30.7121 0.431
30.7424 0.057
30.7726 -0.056
30.8029 -0.065
30.8332 0.604
30.8635 0.856
30.8938 0.639
30.9240 0.631
30.9543 0.935
30.9846 0.979
31.0149 2.065
31.0451 1.536
31.0754 1.633
31.1057 2.146
31.1360 1.670
31.1663 1.611
31.1965 2.958
31.2268 3.993
31.2571 3.205
31.2874 3.823
31.3177 5.327
31.3479 6.415
31.3782 5.888
31.4085 7.496
31.4388 9.886
31.4690 9.255
31.4993 10.656
31.5296 13.619
31.5599 12.729
31.5902 13.557
31.6204 14.489
31.6507 14.953
31.6810 14.740
31.7113 13.277
31.7416 11.345
31.7718 10.872
31.8021 8.003
31.8324 7.010
31.8627 7.006
31.8929 4.554
31.9232 4.707
31.9535 4.443
31.9838 2.356
32.0141 2.769
32.0443 2.662
32.0746 2.659
32.1049 1.354
32.1352 1.352
32.1655 1.245
32.1957 1.451
32.2260 1.761
32.2563 0.874
32.2866 0.559
32.3169 1.443
32.3471 0.556
32.3774 0.294
32.4077 0.188
32.4380 0.447
32.4682 1.071
32.4985 0.393
32.5288 0.809
32.5591 -0.129
32.5894 0.078
32.6196 -0.026
32.6499 -0.131
32.6802 0.025
32.7105 0.182
32.7408 -0.443
32.7710 0.599
32.8013 0.443
32.8316 -0.390
32.8619 -0.077
32.8921 -0.024
32.9224 0.342
32.9527 -0.595
32.9830 0.032
33.0133 0.033
33.0435 -0.122
33.0738 -0.172
33.1041 -0.014
33.1344 -0.220
33.1647 -0.062
33.1949 -0.112
33.2252 -0.578
33.2555 -0.167
33.2858 0.244
33.3160 0.394
33.3463 -0.496
33.3766 0.332
33.4069 -0.038
33.4372 0.061
33.4674 0.317
33.4977 -0.260
33.5280 0.308
33.5583 -0.217
33.5886 -0.013
33.6188 0.087
33.6491 0.291
33.6794 0.652
33.7097 0.649
33.7399 1.426
33.7702 0.642
33.8005 0.274
33.8308 0.792
33.8611 1.049
33.8913 1.463
33.9216 1.721
33.9519 1.458
33.9822 2.757
34.0125 3.797
34.0427 3.378
34.0730 4.210
34.1033 6.187
34.1336 7.748
34.1638 9.829
34.1941 13.266
34.2244 14.723
34.2547 16.805
34.2850 18.158
34.3152 17.063
34.3455 15.084
34.3758 12.948
34.4061 11.281
34.4364 8.884
34.4666 5.655
34.4969 4.770
34.5272 3.312
34.5575 3.156
34.5877 3.156
34.6180 2.115
34.6483 1.595
34.6786 1.491
34.7089 0.503
34.7391 0.973
34.7694 0.609
34.7997 0.871
34.8300 0.300
34.8603 0.197
34.8905 1.553
34.9208 0.826
34.9511 0.412
34.9814 0.674
35.0116 0.260
35.0419 0.940
35.0722 0.369
35.1025 -0.201
35.1328 0.427
35.1630 0.378
35.1933 0.069
35.2236 0.437
35.2539 0.024
35.2842 1.069
35.3144 0.969
35.3447 1.754
35.3750 2.018
35.4053 2.022
35.4356 0.829
35.4658 2.135
35.4961 2.661
35.5264 2.509
35.5567 2.202
35.5869 2.728
35.6172 2.368
35.6475 2.999
35.6778 4.306
35.7081 3.739
35.7383 3.953
35.7686 5.105
35.7989 6.777
35.8292 7.513
35.8595 9.134
35.8897 10.338
35.9200 12.272
35.9503 13.581
35.9806 16.139
36.0108 16.459
36.0411 18.602
36.0714 20.276
36.1017 20.439
36.1320 22.061
36.1622 19.048
36.1925 18.431
36.2228 19.481
36.2531 15.062
36.2834 13.976
36.3136 11.745
36.3439 10.972
36.3742 7.596
36.4045 6.615
36.4347 5.478
36.4650 5.591
36.4953 3.882
36.5256 2.641
36.5559 3.745
36.5861 3.025
36.6164 2.410
36.6467 2.055
36.6770 1.284
36.7073 1.555
36.7375 1.513
36.7678 1.576
36.7981 1.170
36.8284 1.076
36.8586 1.035
36.8889 1.203
36.9192 -0.140
36.9495 0.913
36.9798 0.560
37.0100 0.780
37.0403 -0.407
37.0706 0.074
37.1009 -0.174
37.1312 0.098
37.1614 0.319
37.1917 0.019
37.2220 0.188
37.2523 0.253
37.2825 0.057
37.3128 0.331
37.3431 -0.281
37.3734 0.045
37.4037 0.214
37.4339 0.124
37.4642 0.606
37.4945 -0.109
37.5248 0.634
37.5551 0.128
37.5853 -0.379
37.6156 0.417
37.6459 -0.246
37.6762 0.134
37.7064 -0.424
37.7367 0.216
37.7670 0.022
37.7973 0.350
37.8276 -0.207
37.8578 0.017
37.8881 0.241
37.9184 0.152
37.9487 0.168
37.9790 -0.180
38.0092 0.097
38.0395 -0.043
38.0698 0.286
38.1001 -0.375
38.1304 -0.306
38.1606 -0.341
38.1909 -0.024
38.2212 -0.332
38.2515 0.141
38.2817 -0.063
38.3120 -0.006
38.3423 -0.106
38.3726 -0.101
38.4029 0.165
38.4331 -0.351
38.4634 -0.033
38.4937 0.025
38.5240 -0.178
38.5543 0.088
38.5845 -0.218
38.6148 -0.108
38.6451 0.263
38.6754 -0.199
38.7056 -0.037
38.7359 -0.030
38.7662 -0.284
38.7965 0.036
38.8268 -0.322
38.8570 -0.106
38.8873 -0.047
38.9176 -0.300
38.9479 -0.448
38.9782 0.127
39.0084 -0.079
39.0387 0.549
39.0690 -0.334
39.0993 0.450
39.1295 -0.484
39.1598 -0.117
39.1901 0.303
39.2204 -0.110
39.2507 -0.106
39.2809 0.783
39.3112 -0.620
39.3415 0.270
39.3718 -0.247
39.4021 -0.034
39.4323 -0.030
39.4626 0.131
39.4929 -0.125
39.5232 0.401
39.5534 0.093
39.5837 -0.006
39.6140 -0.365
39.6443 0.057
39.6746 -0.146
39.7048 -0.036
39.7351 0.074
39.7654 -0.649
39.7957 -0.070
39.8260 -0.064
39.8562 -0.266
39.8865 0.209
39.9168 -0.097
39.9471 -0.194
39.9773 0.125
40.0076 0.341
40.0379 -0.017
40.0682 0.303
40.0985 -0.106
40.1287 0.371
40.1590 -0.038
40.1893 -0.187
40.2196 -0.231
40.2499 -0.223
40.2801 0.150
40.3104 -0.049
40.3407 -0.093
40.3710 -0.240
40.4012 0.081
40.4315 -0.379
40.4618 -0.222
40.4921 -0.222
40.5224 0.039
40.5526 -0.012
40.5829 0.405
40.6132 0.094
40.6435 0.147
40.6738 -0.008
40.7040 0.097
40.7343 0.203
40.7646 0.100
40.7949 0.206
40.8251 0.000
40.8554 0.210
40.8857 0.056
40.9160 -0.150
40.9463 -0.199
40.9765 -0.040
41.0068 -0.142
41.0371 0.069
41.0674 0.124
41.0977 -0.185
41.1279 0.339
41.1582 0.291
41.1885 0.086
41.2188 -0.275
41.2491 -0.115
41.2793 -0.215
41.3096 0.362
41.3399 -0.258
41.3702 -0.254
41.4004 -0.050
41.4307 -0.003
41.4610 0.462
41.4913 0.354
41.5216 -0.067
41.5518 -0.071
41.5821 0.186
41.6124 0.026
41.6427 0.231
41.6730 -0.085
41.7032 -0.140
41.7335 0.066
41.7638 -0.094
41.7941 0.008
41.8243 0.005
41.8546 0.420
41.8849 -0.051
41.9152 -0.106
41.9455 -0.108
41.9757 0.359
42.0060 -0.111
42.0363 -0.113
42.0666 -0.010
42.0969 0.093
42.1271 0.040
42.1574 0.143
42.1877 0.194
42.2180 0.193
42.2482 -0.224
42.2785 0.088
42.3088 0.192
42.3391 0.140
42.3694 0.035
42.3996 -0.016
42.4299 -0.172
42.4602 -0.172
42.4905 0.037
42.5208 -0.067
42.5510 0.038
42.5813 -0.065
42.6116 0.197
42.6419 0.094
42.6721 -0.061
42.7024 -0.164
42.7327 -0.266
42.7630 -0.110
42.7933 -0.266
42.8235 -0.164
42.8538 0.147
42.8841 0.093
42.9144 0.248
42.9447 -0.118
42.9749 -0.067
43.0052 0.453
43.0355 0.140
43.0658 0.295
43.0960 0.087
43.1263 -0.070
43.1566 0.138
43.1869 0.138
43.2172 0.190
43.2474 0.190
43.2777 0.295
43.3080 -0.122
43.3383 0.244
43.3686 -0.172
43.3988 -0.224
43.4291 -0.431
43.4594 0.091
43.4897 -0.064
43.5199 -0.115
43.5502 0.251
43.5805 0.096
43.6108 -0.059
43.6411 -0.213
43.6713 0.206
43.7016 0.051
43.7319 -0.259
43.7622 -0.048
43.7925 0.162
43.8227 -0.199
43.8530 -0.093
43.8833 0.015
43.9136 0.018
43.9439 0.021
43.9741 -0.080
44.0044 -0.181
44.0347 -0.229
44.0650 -0.121
44.0952 0.299
44.1255 -0.218
44.1558 0.151
44.1861 -0.105
44.2164 -0.049
44.2466 0.164
44.2769 -0.091
44.3072 -0.451
44.3375 -0.039
44.3678 0.112
44.3980 0.212
44.4283 0.208
44.4586 0.152
44.4889 0.095
44.5191 0.092
44.5494 -0.016
44.5797 0.865
44.6100 -0.180
44.6403 -0.079
44.6705 -0.082
44.7008 -0.085
44.7311 -0.088
44.7614 0.013
44.7917 -0.198
44.8219 0.164
44.8522 0.058
44.8825 0.316
44.9128 -0.259
44.9430 -0.001
44.9733 0.206
45.0036 0.569
45.0339 -0.006
45.0642 0.201
45.0944 -0.008
45.1247 -0.166
45.1550 0.042
45.1853 0.041
45.2156 0.249
45.2458 0.092
45.2761 0.196
45.3064 0.091
45.3367 0.195
45.3669 0.299
45.3972 0.143
45.4275 0.039
45.4578 -0.064
45.4881 0.092
45.5183 0.197
45.5486 0.094
45.5789 0.251
45.6092 0.357
45.6395 0.306
45.6697 0.359
45.7000 -0.108
45.7303 0.206
45.7606 -0.261
45.7908 0.575
45.8211 0.421
45.8514 0.735
45.8817 0.061
45.9120 -0.145
45.9422 -0.299
45.9725 0.006
46.0028 -0.002
46.0331 -0.217
46.0634 0.244
46.0936 -0.284
46.1239 0.126
46.1542 0.171
46.1845 0.320
46.2147 0.574
46.2450 0.255
46.2753 0.249
46.3056 0.346
46.3359 -0.076
46.3661 0.126
46.3964 0.225
46.4267 0.271
46.4570 -0.047
46.4873 0.989
46.5175 -0.006
46.5478 0.250
46.5781 0.088
46.6084 0.344
46.6386 -0.025
46.6689 0.127
46.6992 0.226
46.7295 0.535
46.7598 0.374
46.7900 0.318
46.8203 -0.102
46.8506 0.727
46.8809 0.411
46.9112 0.147
46.9414 1.238
46.9717 0.714
47.0020 0.450
47.0323 0.552
47.0626 0.862
47.0928 1.015
47.1231 1.221
47.1534 1.323
47.1837 1.685
47.2139 2.308
47.2442 3.244
47.2745 3.242
47.3048 2.980
47.3351 2.614
47.3653 4.175
47.3956 3.705
47.4259 3.913
47.4562 4.224
47.4865 3.286
47.5167 3.338
47.5470 2.816
47.5773 2.503
47.6076 2.816
47.6378 1.878
47.6681 0.993
47.6984 1.045
47.7287 1.202
47.7590 1.306
47.7892 1.255
47.8195 0.370
47.8498 0.423
47.8801 0.685
47.9104 0.374
47.9406 0.375
47.9709 0.585
48.0012 0.066
48.0315 0.067
48.0617 0.486
48.0920 0.592
48.1223 0.126
48.1526 0.076
48.1829 0.339
48.2131 -0.179
48.2434 0.240
48.2737 0.243
48.3040 0.767
48.3343 0.353
48.3645 0.148
48.3948 0.672
48.4251 -0.470
48.4554 0.315
48.4856 -0.098
48.5159 -0.041
48.5462 0.588
48.5765 0.279
48.6068 0.388
48.6370 -0.128
48.6673 0.033
48.6976 0.142
48.7279 -0.478
48.7582 0.152
48.7884 -0.155
48.8187 -0.306
48.8490 0.002
48.8793 -0.210
48.9095 -0.005
48.9398 0.356
48.9701 0.301
49.0004 -0.223
49.0307 -0.122
49.0609 0.187
49.0912 0.236
49.1215 -0.287
49.1518 -0.290
49.1821 -0.137
49.2123 0.121
49.2426 -0.195
49.2729 0.167
49.3032 -0.148
49.3334 0.110
49.3637 -0.049
49.3940 -0.103
49.4243 -0.209
49.4546 -0.003
49.4848 0.308
49.5151 0.306
49.5454 -0.008
49.5757 0.252
49.6060 0.042
49.6362 -0.272
49.6665 -0.064
49.6968 -0.013
49.7271 -0.326
49.7574 0.090
49.7876 0.194
49.8179 -0.223
49.8482 -0.067
49.8785 -0.327
49.9087 0.090
49.9390 0.142
49.9693 0.038
49.9996 0.039
50.0299 -0.533
50.0601 0.093
50.0904 -0.010
50.1207 0.095
50.1510 0.044
50.1813 -0.215
50.2115 -0.109
50.2418 0.205
50.2721 -0.470
50.3024 0.105
50.3326 -0.310
50.3629 -0.256
50.3932 -0.307
50.4235 0.215
50.4538 -0.200
50.4840 -0.146
50.5143 0.220
50.5446 0.170
50.5749 0.068
50.6052 -0.295
50.6354 -0.084
50.6657 -0.290
50.6960 -0.291
50.7263 0.281
50.7565 -0.085
50.7868 -0.190
50.8171 0.018
50.8474 0.173
50.8777 -0.087
50.9079 0.068
50.9382 -0.140
50.9685 0.329
50.9988 0.068
51.0291 0.225
51.0593 -0.139
51.0896 0.122
51.1199 0.174
51.1502 0.019
51.1804 -0.084
51.2107 0.125
51.2410 -0.186
51.2713 -0.185
51.3016 -0.131
51.3318 0.131
51.3621 0.237
51.3924 0.239
51.4227 -0.280
51.4530 0.191
51.4832 -0.119
51.5135 -0.221
51.5438 0.355
51.5741 0.149
51.6043 -0.004
51.6346 -0.053
51.6649 -0.415
51.6952 0.318
51.7255 0.217
51.7557 0.221
51.7860 -0.297
51.8163 -0.188
51.8466 -0.237
51.8769 0.028
51.9071 0.501
51.9374 -0.172
51.9677 -0.115
51.9980 0.046
52.0282 0.259
52.0585 0.004
52.0888 -0.043
52.1191 0.379
52.1494 0.124
52.1796 -0.131
52.2099 -0.334
52.2402 0.141
52.2705 -0.165
52.3008 -0.211
52.3310 -0.101
52.3613 0.010
52.3916 0.068
52.4219 0.127
52.4521 -0.022
52.4824 0.453
52.5127 0.825
52.5430 -0.001
52.5733 -0.254
52.6035 -0.157
52.6338 0.096
52.6641 -0.015
52.6944 0.395
52.7247 0.128
52.7549 0.122
52.7852 0.011
52.8155 0.005
52.8458 0.728
52.8761 -0.007
52.9063 0.144
52.9366 -0.018
52.9669 0.549
52.9972 0.284
53.0274 0.018
53.0577 0.065
53.0880 0.216
53.1183 0.212
53.1486 -0.001
53.1788 0.307
53.2091 -0.270
53.2394 0.142
53.2697 0.450
53.3000 -0.231
53.3302 -0.234
53.3605 0.022
53.3908 -0.137
53.4211 0.276
53.4513 0.169
53.4816 0.166
53.5119 0.527
53.5422 0.160
53.5725 0.053
53.6027 -0.106
53.6330 0.152
53.6633 0.098
53.6936 -0.165
53.7239 -0.219
53.7541 -0.064
53.7844 -0.326
53.8147 0.037
53.8450 -0.225
53.8752 -0.226
53.9055 -0.071
53.9358 0.136
53.9661 0.552
53.9964 -0.334
54.0266 0.134
54.0569 0.082
54.0872 0.238
54.1175 0.342
54.1478 0.029
54.1780 0.029
54.2083 -0.231
54.2386 0.134
54.2689 -0.074
54.2991 0.135
54.3294 -0.020
54.3597 -0.436
54.3900 -0.018
54.4203 0.192
54.4505 0.349
54.4808 -0.587
54.5111 0.092
54.5414 0.146
54.5717 -0.216
54.6019 0.150
54.6322 -0.108
54.6625 -0.001
54.6928 -0.155
54.7230 0.056
54.7533 0.111
54.7836 -0.042
54.8139 -0.144
54.8442 0.433
54.8744 0.228
54.9047 -0.133
54.9350 -0.026
54.9653 0.134
54.9956 -0.435
55.0258 -0.066
55.0561 0.147
55.0864 0.099
55.1167 -0.053
55.1469 0.160
55.1772 0.165
55.2075 -0.195
55.2378 0.019
55.2681 0.180
55.2983 -0.023
55.3286 0.191
55.3589 -0.324
55.3892 -0.266
55.4195 -0.064
55.4497 0.243
55.4800 0.289
55.5103 0.127
55.5406 0.382
55.5709 0.325
55.6011 0.268
55.6314 0.576
55.6617 0.258
55.6920 -0.007
55.7222 0.145
55.7525 0.713
55.7828 0.657
55.8131 0.601
55.8434 0.805
55.8736 0.645
55.9039 0.381
55.9342 0.378
55.9645 1.364
55.9948 1.100
56.0250 1.566
56.0553 2.240
56.0856 0.831
56.1159 1.609
56.1461 1.711
56.1764 2.177
56.2067 2.071
56.2370 2.694
56.2673 3.108
56.2975 2.690
56.3278 3.157
56.3581 3.468
56.3884 3.519
56.4187 4.715
56.4489 4.349
56.4792 5.234
56.5095 4.660
56.5398 5.024
56.5700 3.096
56.6003 3.356
56.6306 3.096
56.6609 2.835
56.6912 2.835
56.7214 2.158
56.7517 2.262
56.7820 1.325
56.8123 1.847
56.8426 1.743
56.8728 0.911
56.9031 1.432
56.9334 0.965
56.9637 0.758
56.9939 0.915
57.0242 0.708
57.0545 0.606
57.0848 0.139
57.1151 0.401
57.1453 0.664
57.1756 0.562
57.2059 0.200
57.2362 0.046
57.2665 0.465
57.2967 0.051
57.3270 -0.050
57.3573 -0.307
57.3876 0.061
57.4178 -0.092
57.4481 -0.089
57.4784 0.071
57.5087 0.023
57.5390 -0.130
57.5692 -0.334
57.5995 0.087
57.6298 -0.169
57.6601 0.252
57.6904 -0.108
57.7206 -0.364
57.7509 0.006
57.7812 -0.041
57.8115 0.016
57.8417 -0.083
57.8720 0.027
57.9023 -0.020
57.9326 -0.483
57.9629 -0.118
57.9931 -0.066
58.0234 -0.222
58.0537 0.299
58.0840 0.040
58.1143 0.092
58.1445 -0.323
58.1748 0.303
58.2051 -0.269
58.2354 -0.112
58.2656 -0.266
58.2959 -0.057
58.3262 -0.161
58.3565 -0.004
58.3868 0.310
58.4170 0.103
58.4473 -0.052
58.4776 0.001
58.5079 0.159
58.5382 0.317
58.5684 0.215
58.5987 0.009
58.6290 -0.041
58.6593 -0.195
58.6896 -0.089
58.7198 -0.451
58.7501 0.229
58.7804 -0.081
58.8107 0.183
58.8409 -0.179
58.8712 -0.071
58.9015 -0.120
58.9318 0.040
58.9621 -0.165
58.9923 0.152
59.0226 -0.105
59.0529 0.056
59.0832 -0.200
59.1135 -0.196
59.1437 -0.035
59.1740 -0.083
59.2043 -0.078
59.2346 0.188
59.2648 -0.172
59.2951 -0.219
59.3254 -0.161
59.3557 0.521
59.3860 0.163
59.4162 0.116
59.4465 0.018
59.4768 0.076
59.5071 -0.126
59.5374 -0.015
59.5676 0.252
59.5979 -0.106
59.6282 0.005
59.6585 0.116
59.6887 0.019
59.7190 0.026
59.7493 -0.227
59.7796 -0.234
59.8099 0.177
59.8401 0.223
59.8704 0.009
59.9007 0.055
59.9310 0.205
59.9613 -0.008
59.9915 -0.170
60.0218 -0.332
60.0521 0.184
60.0824 0.179
60.1126 -0.138
60.1429 0.170
60.1732 0.061
60.2035 0.109
60.2338 -0.104
60.2640 0.152
60.2943 -0.268
60.3246 0.197
60.3549 -0.224
60.3852 0.346
60.4154 -0.127
60.4457 -0.182
60.4760 0.075
60.5063 -0.136
60.5365 -0.087
60.5668 0.171
60.5971 -0.196
60.6274 0.114
60.6577 0.112
60.6879 0.005
60.7182 0.003
60.7485 -0.207
60.7788 0.156
60.8091 0.102
60.8393 0.621
60.8696 -0.057
60.8999 0.202
60.9302 -0.320
60.9604 0.305
60.9907 -0.009
61.0210 -0.166
61.0513 -0.010
61.0816 -0.166
61.1118 -0.375
61.1421 0.034
61.1724 0.183
61.2027 0.332
61.2330 -0.144
61.2632 -0.047
61.2935 -0.210
61.3238 0.044
61.3541 0.089
61.3844 0.031
61.4146 0.024
61.4449 -0.034
61.4752 0.116
61.5055 0.006
61.5357 0.000
61.5660 -0.162
61.5963 -0.011
61.6266 -0.277
61.6569 -0.021
61.6871 -0.027
61.7174 -0.344
61.7477 0.328
61.7780 -0.093
61.8083 0.111
61.8385 0.575
61.8688 0.050
61.8991 0.098
61.9294 0.355
61.9596 0.559
61.9899 0.503
62.0202 0.031
62.0505 0.236
62.0808 0.649
62.1110 0.178
62.1413 0.279
62.1716 0.797
62.2019 0.586
62.2322 0.583
62.2624 1.050
62.2927 0.631
62.3230 1.097
62.3533 0.887
62.3835 1.406
62.4138 0.988
62.4441 1.507
62.4744 1.037
62.5047 1.869
62.5349 2.545
62.5652 2.856
62.5955 2.699
62.6258 2.698
62.6561 2.854
62.6863 2.958
62.7166 4.103
62.7469 3.270
62.7772 3.478
62.8074 3.218
62.8377 2.906
62.8680 3.427
62.8983 3.063
62.9286 2.126
62.9588 2.283
62.9891 2.596
63.0194 2.025
63.0497 1.453
63.0800 0.986
63.1102 1.560
63.1405 1.041
63.1708 0.886
63.2011 0.680
63.2313 0.422
63.2616 0.476
63.2919 0.739
63.3222 0.116
63.3525 0.275
63.3827 0.486
63.4130 -0.032
63.4433 0.232
63.4736 0.339
63.5039 -0.126
63.5341 0.086
63.5644 -0.015
63.5947 0.301
63.6250 -0.111
63.6552 0.413
63.6855 -0.103
63.7158 -0.255
63.7461 0.166
63.7764 -0.090
63.8066 -0.398
63.8369 0.284
63.8672 0.289
63.8975 0.503
63.9278 -0.429
63.9580 -0.007
63.9883 -0.106
64.0186 -0.048
64.0489 -0.407
64.0791 -0.093
64.1094 -0.040
64.1397 0.014
64.1700 -0.245
64.2003 0.121
64.2305 -0.085
64.2608 -0.083
64.2911 0.075
64.3214 -0.131
64.3517 -0.076
64.3819 -0.074
64.4122 0.137
64.4425 0.192
64.4728 -0.118
64.5031 -0.219
64.5333 0.410
64.5636 -0.004
64.5939 0.104
64.6242 0.108
64.6544 0.007
64.6847 -0.093
64.7150 0.067
64.7453 0.020
64.7756 -0.132
64.8058 -0.024
64.8361 -0.279
64.8664 0.142
64.8967 -0.322
64.9270 0.152
64.9572 0.053
64.9875 -0.254
65.0178 -0.204
65.0481 0.212
65.0783 0.054
65.1086 0.053
65.1389 0.104
65.1692 -0.053
65.1995 0.050
65.2297 0.206
65.2600 -0.003
65.2903 -0.160
65.3206 0.048
65.3509 0.205
65.3811 0.048
65.4114 0.049
65.4417 -0.055
65.4720 -0.159
65.5022 -0.106
65.5325 -0.001
65.5628 0.104
65.5931 -0.051
65.6234 0.054
65.6536 0.316
65.6839 -0.204
65.7142 -0.254
65.7445 -0.057
65.7748 0.037
65.8050 -0.182
65.8353 -0.037
65.8656 0.266
65.8959 0.099
65.9261 0.089
65.9564 0.287
65.9867 -0.087
66.0170 0.320
66.0473 0.519
66.0775 0.509
66.1078 -0.073
66.1381 0.074
66.1684 -0.091
66.1987 -0.048
66.2289 0.152
66.2592 0.091
66.2895 0.499
66.3198 0.543
66.3500 -0.194
66.3803 0.371
66.4106 0.050
66.4409 0.355
66.4712 0.504
66.5014 0.340
66.5317 0.072
66.5620 0.274
66.5923 0.006
66.6226 -0.313
66.6528 0.305
66.6831 0.090
66.7134 -0.021
66.7437 0.181
66.7739 -0.189
66.8042 0.169
66.8345 -0.305
66.8648 -0.311
66.8951 0.049
66.9253 0.253
66.9556 -0.012
66.9859 -0.276
67.0162 0.033
67.0465 -0.023
67.0767 0.234
67.1070 -0.134
67.1373 0.019
67.1676 0.015
67.1978 0.169
67.2281 -0.251
67.2584 -0.045
67.2887 0.525
67.3190 0.158
67.3492 0.052
67.3795 0.518
67.4098 0.151
67.4401 1.035
67.4704 0.408
67.5006 0.771
67.5309 0.874
67.5612 1.029
67.5915 0.923
67.6218 1.860
67.6520 2.276
67.6823 0.869
67.7126 1.701
67.7429 1.857
67.7731 1.388
67.8034 1.908
67.8337 1.908
67.8640 1.544
67.8943 2.221
67.9245 1.492
67.9548 1.701
67.9851 1.702
68.0154 1.911
68.0457 1.078
68.0759 1.236
68.1062 1.549
68.1365 1.863
68.1668 0.615
68.1970 0.981
68.2273 0.878
68.2576 0.099
68.2879 0.778
68.3182 0.155
68.3484 0.470
68.3787 0.525
68.4090 0.319
68.4393 0.530
68.4696 0.689
68.4998 0.536
68.5301 0.122
68.5604 0.178
68.5907 0.546
68.6209 0.497
68.6512 0.084
68.6815 0.401
68.7118 -0.064
68.7421 0.096
68.7723 0.569
68.8026 0.469
68.8329 0.578
68.8632 0.479
68.8935 0.484
68.9237 1.426
68.9540 0.494
68.9843 0.655
69.0146 0.765
69.0448 0.874
69.0751 0.672
69.1054 0.417
69.1357 0.111
69.1660 0.690
69.1962 0.071
69.2265 0.129
69.2568 0.552
69.2871 0.403
69.3174 0.201
69.3476 0.156
69.3779 0.319
69.4082 0.222
69.4385 0.542
69.4687 0.133
69.4990 -0.172
69.5293 0.201
69.5596 0.156
69.5899 -0.148
69.6201 -0.036
69.6504 -0.131
69.6807 0.137
69.7110 -0.375
69.7413 -0.054
69.7715 -0.097
69.8018 -0.140
69.8321 0.026
69.8624 0.139
69.8926 -0.164
69.9229 -0.102
69.9532 -0.040
69.9835 -0.447
70.0138 0.032
70.0440 -0.427
70.0743 -0.158
70.1046 -0.254
70.1349 -0.089
70.1652 0.076
70.1954 -0.071
70.2257 0.042
70.2560 0.052
70.2863 0.061
70.3166 0.019
70.3468 -0.128
70.3771 -0.274
70.4074 0.048
70.4377 -0.098
70.4679 -0.140
70.4982 0.027
70.5285 -0.171
70.5588 0.101
70.5891 0.424
70.6193 -0.086
70.6496 0.029
70.6799 -0.011
70.7102 0.417
70.7405 0.272
70.7707 0.127
70.8010 -0.225
70.8313 -0.229
70.8616 0.237
70.8918 -0.027
70.9221 0.022
70.9524 0.331
70.9827 -0.036
71.0130 -0.091
71.0432 0.115
71.0735 -0.304
71.1038 0.058
71.1341 0.212
71.1644 -0.259
71.1946 0.104
71.2249 -0.158
71.2552 0.049
71.2855 0.360
71.3157 -0.058
71.3460 -0.112
71.3763 -0.165
71.4066 -0.009
71.4369 -0.114
71.4671 -0.063
71.4974 -0.011
71.5277 -0.116
71.5580 -0.116
71.5883 0.145
71.6185 0.301
71.6488 0.145
71.6791 0.145
71.7094 0.146
71.7396 0.094
71.7699 -0.165
71.8002 -0.060
71.8305 0.149
71.8608 -0.266
71.8910 0.152
71.9213 -0.003
71.9516 0.103
71.9819 0.365
72.0122 0.055
72.0424 0.161
72.0727 -0.306
72.1030 -0.258
72.1333 0.258
72.1635 -0.163
72.1938 0.041
72.2241 -0.015
72.2544 -0.227
72.2847 0.342
72.3149 -0.182
72.3452 0.439
72.3755 0.019
72.4058 0.120
72.4361 -0.352
72.4663 0.114
72.4966 0.111
72.5269 0.213
72.5572 0.158
72.5874 0.104
72.6177 -0.003
72.6480 0.204
72.6783 0.150
72.7086 0.096
72.7388 0.094
72.7691 0.040
72.7994 -0.013
72.8297 -0.170
72.8600 0.089
72.8902 0.036
72.9205 -0.017
72.9508 -0.070
72.9811 0.086
73.0113 -0.071
73.0416 -0.019
73.0719 -0.071
73.1022 -0.123
73.1325 -0.227
73.1627 -0.018
73.1930 0.034
73.2233 0.087
73.2536 0.140
73.2839 -0.120
73.3141 -0.118
73.3444 -0.065
73.3747 -0.220
73.4050 -0.166
73.4353 0.044
73.4655 -0.267
73.4958 -0.057
73.5261 -0.211
73.5564 -0.052
73.5866 -0.415
73.6169 -0.047
73.6472 0.164
73.6775 0.270
73.7078 -0.143
73.7380 -0.244
73.7683 0.123
73.7986 -0.134
73.8289 0.130
73.8592 -0.022
73.8894 -0.071
73.9197 0.141
73.9500 -0.115
73.9803 -0.111
74.0105 -0.054
74.0408 -0.050
74.0711 -0.254
74.1014 -0.049
74.1317 -0.001
74.1619 -0.057
74.1922 0.096
74.2225 0.040
74.2528 0.089
74.2831 0.138
74.3133 -0.021
74.3436 -0.076
74.3739 0.130
74.4042 -0.081
74.4344 0.073
74.4647 0.123
74.4950 -0.192
74.5253 -0.038
74.5556 -0.092
74.5858 0.167
74.6161 0.061
74.6464 -0.305
74.6767 0.111
74.7070 -0.359
74.7372 -0.152
74.7675 -0.257
74.7978 0.107
74.8281 0.054
74.8583 -0.207
74.8886 -0.103
74.9189 -0.311
74.9492 0.158
74.9795 -0.155
75.0097 -0.467
75.0400 0.106
75.0703 0.107
75.1006 -0.049
75.1309 -0.100
75.1611 -0.203
75.1914 0.058
75.2217 0.216
75.2520 0.269
75.2822 0.375
75.3125 0.012
75.3428 -0.142
75.3731 -0.349
75.4034 0.122
75.4336 0.124
75.4639 0.127
75.4942 -0.235
75.5245 -0.024
75.5548 -0.282
75.5850 -0.074
75.6153 0.187
75.6456 -0.074
75.6759 0.239
75.7061 0.136
75.7364 -0.124
75.7667 -0.071
75.7970 -0.175
75.8273 -0.122
75.8575 0.140
75.8878 0.037
75.9181 -0.118
75.9484 0.092
75.9787 -0.323
76.0089 0.148
76.0392 -0.006
76.0695 -0.213
76.0998 -0.213
76.1301 -0.164
76.1603 -0.114
76.1906 0.143
76.2209 0.245
76.2512 0.086
76.2814 0.344
76.3117 0.029
76.3420 -0.025
76.3723 0.233
76.4026 0.075
76.4328 -0.083
76.4631 0.228
76.4934 0.123
76.5237 -0.087
76.5540 0.381
76.5842 0.119
76.6145 0.119
76.6448 0.274
76.6751 0.222
76.7053 0.169
76.7356 0.481
76.7659 0.117
76.7962 -0.040
76.8265 0.533
76.8567 0.117
76.8870 0.065
76.9173 -0.247
76.9476 0.119
76.9779 0.067
77.0081 0.173
77.0384 0.174
77.0687 0.279
77.0990 0.176
77.1292 0.334
77.1595 -0.289
77.1898 0.077
77.2201 0.131
77.2504 0.498
77.2806 -0.021
77.3109 -0.174
77.3412 0.609
77.3715 0.143
77.4018 0.250
77.4320 -0.111
77.4623 -0.213
77.4926 -0.003
77.5229 -0.001
77.5531 0.105
77.5834 0.211
77.6137 -0.048
77.6440 -0.358
77.6743 -0.046
77.7045 0.006
77.7348 0.162
77.7651 0.162
77.7954 0.058
77.8257 -0.202
77.8559 -0.358
77.8862 0.111
77.9165 -0.044
77.9468 0.061
77.9770 0.426
78.0073 -0.250
78.0376 -0.145
78.0679 0.013
78.0982 -0.142
78.1284 0.068
78.1587 -0.139
78.1890 -0.033
78.2193 0.021
78.2496 -0.029
78.2798 0.026
78.3101 0.080
78.3404 0.083
78.3707 0.189
78.4009 0.088
78.4312 0.195
78.4615 0.355
78.4918 -0.215
78.5221 0.153
78.5523 0.261
78.5826 0.056
78.6129 -0.097
78.6432 -0.197
78.6735 0.009
78.7037 0.162
78.7340 -0.153
78.7643 0.209
78.7946 -0.054
78.8248 -0.005
78.8551 0.150
78.8854 0.043
78.9157 0.093
78.9460 0.144
78.9762 -0.170
79.0065 0.089
79.0368 -0.225
79.0671 -0.176
79.0974 0.238
79.1276 -0.285
79.1579 0.181
79.1882 -0.238
79.2185 0.281
79.2488 0.019
79.2790 -0.140
79.3093 -0.037
79.3396 -0.195
79.3699 -0.092
79.4001 0.167
79.4304 -0.042
79.4607 0.061
79.4910 -0.305
79.5213 -0.149
79.5515 -0.410
79.5818 0.053
79.6121 -0.110
79.6424 -0.064
79.6727 0.139
79.7029 -0.180
79.7332 0.127
79.7635 0.122
79.7938 0.012
79.8240 -0.045
79.8543 -0.206
79.8846 -0.159
79.9149 -0.060
79.9452 -0.168
79.9754 0.140
80.0057 0.083
80.0360 -0.077
80.0663 0.075
80.0966 0.123
80.1268 0.119
80.1571 0.116
80.1874 -0.044
80.2177 -0.047
80.2479 0.002
80.2782 -0.366
80.3085 -0.004
80.3388 -0.163
80.3691 0.094
80.3993 -0.429
80.4296 -0.171
80.4599 -0.121
80.4902 0.033
80.5205 0.031
80.5507 -0.335
80.5810 -0.076
80.6113 -0.130
80.6416 -0.079
80.6718 -0.133
80.7021 -0.082
80.7324 -0.031
80.7627 -0.188
80.7930 -0.032
80.8232 -0.241
80.8535 -0.188
80.8838 0.073
80.9141 0.074
80.9444 0.075
80.9746 -0.080
81.0049 0.026
81.0352 -0.233
81.0655 -0.179
81.0957 0.031
81.1260 0.189
81.1563 -0.173
81.1866 0.037
81.2169 -0.012
81.2471 0.147
81.2774 0.045
81.3077 0.361
81.3380 0.103
81.3683 0.054
81.3985 0.005
81.4288 0.113
81.4591 -0.196
81.4894 0.068
81.5196 0.072
81.5499 0.024
81.5802 0.132
81.6105 0.032
81.6408 0.297
81.6710 0.562
81.7013 0.098
81.7316 0.102
81.7619 0.212
81.7922 -0.044
81.8224 0.118
81.8527 0.227
81.8830 -0.028
81.9133 0.238
81.9436 0.348
81.9738 -0.219
82.0041 -0.213
82.0344 0.052
82.0647 0.108
82.0949 0.320
82.1252 0.272
82.1555 -0.140
82.1858 -0.083
82.2161 0.182
82.2463 0.186
82.2766 0.035
82.3069 0.144
82.3372 -0.059
82.3675 -0.158
82.3977 -0.100
82.4280 -0.199
82.4583 0.172
82.4886 0.490
82.5188 -0.077
82.5491 0.242
82.5794 -0.012
82.6097 0.046
82.6400 0.209
82.6702 0.112
82.7005 0.327
82.7308 -0.031
82.7611 -0.180
82.7914 -0.131
82.8216 0.074
82.8519 -0.034
82.8822 0.275
82.9125 0.220
82.9427 0.009
82.9730 0.319
83.0033 0.160
83.0336 0.157
83.0639 -0.157
83.0941 -0.160
83.1244 -0.214
83.1547 0.149
83.1850 0.043
83.2153 0.197
83.2455 0.196
83.2758 0.038
83.3061 0.245
83.3364 -0.120
83.3666 0.139
83.3969 0.138
83.4272 -0.227
83.4575 -0.071
83.4878 0.241
83.5180 -0.020
83.5483 0.032
83.5786 0.136
83.6089 -0.020
83.6392 -0.228
83.6694 0.241
83.6997 0.242
83.7300 -0.018
83.7603 0.348
83.7905 0.036
83.8208 0.142
83.8511 0.039
83.8814 -0.220
83.9117 -0.123
83.9419 -0.285
83.9722 0.125
84.0025 0.119
84.0328 0.061
84.0631 0.264
84.0933 -0.002
84.1236 0.044
84.1539 -0.222
84.1842 0.190
84.2144 -0.180
84.2447 -0.133
84.2750 -0.085
84.3053 0.118
84.3356 0.062
84.3658 -0.151
84.3961 0.209
84.4264 -0.107
84.4567 -0.007
84.4870 0.093
84.5172 -0.223
84.5475 -0.018
84.5778 -0.282
84.6081 -0.077
84.6383 -0.079
84.6686 -0.186
84.6989 -0.188
84.7292 -0.242
84.7595 0.172
84.7897 -0.038
84.8200 0.012
84.8503 -0.198
84.8806 0.009
84.9109 0.112
84.9411 -0.202
84.9714 -0.151
85.0017 0.056
85.0320 -0.205
85.0623 -0.049
85.0925 0.002
85.1228 -0.050
85.1531 -0.102
85.1834 0.262
85.2136 -0.363
85.2439 0.106
85.2742 -0.258
85.3045 -0.206
85.3348 -0.258
85.3650 0.106
85.3953 -0.207
85.4256 -0.155
85.4559 0.210
85.4862 0.106
85.5164 -0.311
85.5467 -0.102
85.5770 0.003
85.6073 0.107
85.6375 -0.100
85.6678 -0.203
85.6981 0.110
85.7284 0.007
85.7587 -0.147
85.7889 -0.146
85.8192 -0.144
85.8495 0.118
85.8798 -0.036
85.9101 0.070
85.9403 0.124
85.9706 -0.082
86.0009 -0.079
86.0312 -0.077
86.0614 -0.282
86.0917 -0.020
86.1220 -0.071
86.1523 0.140
86.1826 -0.015
86.2128 -0.169
86.2431 0.042
86.2734 0.200
86.3037 -0.266
86.3340 -0.003
86.3642 -0.209
86.3945 0.107
86.4248 -0.307
86.4551 -0.095
86.4853 0.012
86.5156 -0.089
86.5459 0.019
86.5762 -0.237
86.6065 0.027
86.6367 0.135
86.6670 0.035
86.6973 0.091
86.7276 0.044
86.7579 -0.264
86.7881 0.262
86.8184 -0.046
86.8487 0.063
86.8790 -0.140
86.9092 0.021
86.9395 0.027
86.9698 0.084
87.0001 -0.222
87.0304 0.148
87.0606 -0.002
87.0909 0.108
87.1212 -0.042
87.1515 -0.244
87.1818 -0.034
87.2120 -0.032
87.2423 0.126
87.2726 -0.132
87.3029 0.078
87.3331 -0.180
87.3634 -0.186
87.3937 0.173
87.4240 0.063
87.4543 0.265
87.4845 -0.053
87.5148 -0.006
87.5451 0.093
87.5754 0.035
87.6057 0.187
87.6359 0.234
87.6662 0.073
87.6965 -0.036
87.7268 -0.197
87.7571 -0.153
87.7873 0.204
87.8176 -0.168
87.8479 0.293
87.8782 -0.183
87.9084 0.122
87.9387 -0.094
87.9690 0.056
87.9993 0.101
88.0296 0.042
88.0598 0.087
88.0901 -0.127
88.1204 -0.134
88.1507 -0.192
88.1810 0.010
88.2112 -0.048
88.2415 -0.314
88.2718 0.149
88.3021 0.196
88.3323 0.034
88.3626 0.237
88.3929 -0.080
88.4232 0.071
88.4535 -0.038
88.4837 -0.147
88.5140 0.318
88.5443 -0.051
88.5746 -0.003
88.6049 0.045
88.6351 -0.324
88.6654 0.037
88.6957 0.085
88.7260 -0.022
88.7562 0.287
88.7865 -0.133
88.8168 -0.136
88.8471 0.069
88.8774 0.327
88.9076 -0.093
88.9379 -0.095
88.9682 -0.202
88.9985 -0.100
89.0288 -0.206
89.0590 -0.052
89.0893 0.103
89.1196 0.309
89.1499 0.099
89.1801 -0.058
89.2104 -0.112
89.2407 0.200
89.2710 0.199
89.3013 0.094
89.3315 0.093
89.3618 -0.012
89.3921 0.248
89.4224 0.769
89.4527 0.144
89.4829 0.612
89.5132 0.456
89.5435 -0.012
89.5738 -0.116
89.6040 0.145
89.6343 0.198
89.6646 0.198
89.6949 0.408
89.7252 0.253
89.7554 0.306
89.7857 0.151
89.8160 -0.056
89.8463 0.311
89.8766 0.260
89.9068 0.106
89.9371 0.056
89.9674 0.110
89.9977 -0.096
90.0279 0.011
90.0582 0.587
90.0885 -0.036
90.1188 -0.241
90.1491 -0.135
90.1793 0.023
90.2096 0.233
90.2399 -0.181
90.2702 -0.179
90.3005 0.032
90.3307 -0.174
90.3610 -0.119
90.3913 -0.012
90.4216 -0.217
90.4518 -0.006
90.4821 -0.107
90.5124 -0.103
90.5427 0.161
90.5730 0.008
90.6032 0.168
90.6335 0.068
90.6638 0.072
90.6941 -0.340
90.7244 -0.128
90.7546 -0.227
90.7849 -0.226
90.8152 -0.016
90.8455 -0.014
90.8758 0.091
90.9060 0.145
90.9363 -0.321
90.9666 -0.007
90.9969 0.048
91.0271 -0.158
91.0574 0.209
91.0877 0.108
91.1180 0.006
91.1483 0.166
91.1785 0.065
91.2088 0.016
91.2391 -0.189
91.2694 0.127
91.2997 -0.078
91.3299 -0.230
91.3602 -0.025
91.3905 0.127
91.4208 0.176
91.4510 -0.036
91.4813 0.065
91.5116 -0.094
91.5419 -0.097
91.5722 0.056
91.6024 0.158
91.6327 -0.365
91.6630 0.101
91.6933 -0.005
91.7236 -0.059
91.7538 0.043
91.7841 -0.063
91.8144 0.196
91.8447 -0.223
91.8749 0.245
91.9052 -0.225
91.9355 -0.226
91.9658 -0.227
91.9961 -0.126
92.0263 -0.077
92.0566 0.076
92.0869 -0.292
92.1172 -0.086
92.1475 0.068
92.1777 0.013
92.2080 -0.406
92.2383 0.217
92.2686 -0.254
92.2988 0.109
92.3291 0.368
92.3594 0.054
92.3897 0.313
92.4200 0.051
92.4502 -0.263
92.4805 -0.160
92.5108 0.046
92.5411 0.044
92.5714 0.043
92.6016 0.041
92.6319 0.040
92.6622 0.143
92.6925 -0.170
92.7227 0.037
92.7530 0.245
92.7833 0.192
92.8136 0.036
92.8439 -0.069
92.8741 -0.121
92.9044 0.139
92.9347 0.035
92.9650 -0.069
92.9953 0.088
93.0255 -0.016
93.0558 -0.275
93.0861 0.403
93.1164 -0.117
93.1466 0.092
93.1769 -0.115
93.2072 0.043
93.2375 -0.164
93.2678 -0.214
93.2980 0.048
93.3283 -0.263
93.3586 -0.159
93.3889 0.414
93.4192 -0.055
93.4494 0.153
93.4797 -0.159
93.5100 -0.367
93.5403 0.048
93.5706 -0.109
93.6008 -0.006
93.6311 0.045
93.6614 0.044
93.6917 -0.061
93.7219 -0.114
93.7522 -0.218
93.7825 -0.010
93.8128 -0.219
93.8431 0.302
93.8733 0.041
93.9036 0.042
93.9339 -0.166
93.9642 -0.062
93.9945 -0.321
94.0247 -0.008
94.0550 -0.216
94.0853 0.150
94.1156 -0.109
94.1458 -0.056
94.1761 -0.367
94.2064 -0.057
94.2367 0.044
94.2670 -0.116
94.2972 -0.014
94.3275 -0.329
94.3578 -0.071
94.3881 0.135
94.4184 -0.024
94.4486 0.026
94.4789 0.024
94.5092 0.127
94.5395 -0.135
94.5697 -0.241
94.6000 -0.034
94.6303 0.016
94.6606 0.014
94.6909 0.013
94.7211 0.012
94.7514 0.271
94.7817 0.010
94.8120 0.374
94.8423 0.321
94.8725 0.685
94.9028 -0.045
94.9331 -0.045
94.9634 0.007
94.9936 0.215
95.0239 0.215
95.0542 0.216
95.0845 0.320
95.1148 0.529
95.1450 0.009
95.1753 0.270
95.2056 0.324
95.2359 0.846
95.2662 0.274
95.2964 0.536
95.3267 0.694
95.3570 0.383
95.3873 0.020
95.4175 0.178
95.4478 0.180
95.4781 0.079
95.5084 0.289
95.5387 0.396
95.5689 0.086
95.5992 0.558
95.6295 0.040
95.6598 0.043
95.6901 0.046
95.7203 0.258
95.7506 0.261
95.7809 0.265
95.8112 0.217
95.8414 0.065
95.8717 0.017
95.9020 -0.135
95.9323 -0.183
95.9626 -0.179
95.9928 0.034
96.0231 -0.013
96.0534 0.200
96.0837 0.153
96.1140 0.002
96.1442 0.112
96.1745 -0.091
96.2048 0.123
96.2351 -0.184
96.2653 -0.230
96.2956 0.084
96.3259 -0.123
96.3562 0.138
96.3865 0.036
96.4167 -0.171
96.4470 0.091
96.4773 0.249
96.5076 0.147
96.5379 0.045
96.5681 0.100
96.5984 -0.158
96.6287 0.157
96.6590 0.108
96.6893 0.163
96.7195 0.010
96.7498 0.065
96.7801 0.173
96.8104 0.072
96.8406 0.075
96.8709 0.079
96.9012 -0.177
96.9315 -0.225
96.9618 0.082
96.9920 0.181
97.0223 0.385
97.0526 0.015
97.0829 0.115
97.1132 -0.046
97.1434 0.002
97.1737 -0.055
97.2040 0.202
97.2343 0.094
97.2645 -0.223
97.2948 -0.122
97.3251 -0.282
97.3554 0.025
97.3857 -0.033
97.4159 -0.247
97.4462 -0.044
97.4765 0.263
97.5068 0.102
97.5371 -0.007
97.5673 0.144
97.5976 -0.173
97.6279 0.291
97.6582 -0.077
97.6884 0.335
97.7187 0.123
97.7490 -0.038
97.7793 0.063
97.8096 -0.097
97.8398 -0.153
97.8701 0.104
97.9004 -0.368
97.9307 0.358
97.9610 -0.009
97.9912 -0.168
98.0215 -0.015
98.0518 -0.122
98.0821 -0.124
98.1123 0.082
98.1426 -0.024
98.1729 0.026
98.2032 -0.028
98.2335 0.439
98.2637 -0.083
98.2940 -0.085
98.3243 -0.034
98.3546 0.538
98.3849 -0.140
98.4151 0.119
98.4454 -0.455
98.4757 0.170
98.5060 0.065
98.5362 -0.195
98.5665 0.117
98.5968 -0.352
98.6271 0.273
98.6574 0.013
98.6876 0.118
98.7179 0.066
98.7482 0.171
98.7785 0.484
98.8088 -0.088
98.8390 -0.139
98.8693 0.123
98.8996 0.385
98.9299 -0.083
98.9601 0.023
98.9904 0.077
99.0207 0.027
99.0510 -0.336
99.0813 0.344
99.1115 -0.123
99.1418 0.036
99.1721 0.091
99.2024 0.094
99.2327 0.044
99.2629 0.360
99.2932 -0.106
99.3235 -0.206
99.3538 -0.099
99.3841 -0.043
99.4143 -0.300
99.4446 0.069
99.4749 0.021
99.5052 0.077
99.5354 0.029
99.5657 -0.279
99.5960 0.142
99.6263 0.043
99.6566 -0.108
99.6868 0.001
99.7171 0.058
99.7474 0.011
99.7777 -0.035
99.8080 -0.134
99.8382 0.236
99.8685 -0.174
99.8988 -0.012
99.9291 -0.006
99.9593 0.052
99.9896 -0.306
100.0199 -0.148
100.0502 -0.095
100.0805 0.115
100.1107 0.065
100.1410 0.119
100.1713 -0.139
100.2016 0.019
100.2319 0.230
100.2621 -0.132
100.2924 -0.130
100.3227 0.185
100.3530 0.084
100.3832 0.243
100.4135 0.247
100.4438 0.250
100.4741 0.358
100.5044 0.205
100.5346 0.000
100.5649 0.421
100.5952 0.008
100.6255 0.116
100.6558 0.069
100.6860 -0.031
100.7163 -0.027
100.7466 0.343
100.7769 -0.069
100.8071 -0.220
100.8374 -0.021
100.8677 0.335
100.8980 0.066
100.9283 0.161
100.9585 0.153
100.9888 -0.064
101.0191 -0.176
101.0494 -0.028
101.0797 -0.192
101.1099 0.113
101.1402 0.106
101.1705 0.098
101.2008 0.195
101.2310 -0.072
101.2613 0.077
101.2916 -0.086
101.3219 0.115
101.3522 0.161
101.3824 -0.002
101.4127 -0.216
101.4430 -0.066
101.4733 -0.124
101.5036 -0.234
101.5338 0.019
101.5641 0.220
101.5944 -0.256
101.6247 -0.055
101.6549 0.043
101.6852 -0.016
101.7155 0.082
101.7458 -0.394
101.7761 -0.035
101.8063 0.167
101.8366 -0.256
101.8669 -0.053
101.8972 0.045
101.9275 0.040
101.9577 0.034
101.9880 -0.492
102.0183 -0.028
102.0486 0.227
102.0788 0.066
102.1091 -0.043
102.1394 -0.047
102.1697 -0.364
102.2000 -0.004
102.2302 -0.216
102.2605 -0.220
102.2908 0.036
102.3211 0.137
102.3514 0.029
102.3816 0.026
102.4119 -0.238
102.4422 0.123
102.4725 -0.088
102.5028 -0.091
102.5330 0.063
102.5633 0.112
102.5936 0.005
102.6239 -0.049
102.6541 0.053
102.6844 0.103
102.7147 -0.003
102.7450 -0.005
102.7753 -0.163
102.8055 -0.008
102.8358 -0.061
102.8661 -0.062
102.8964 0.093
102.9267 -0.064
102.9569 -0.169
102.9872 -0.222
103.0175 -0.327
103.0478 0.090
103.0780 0.039
103.1083 0.144
103.1386 -0.116
103.1689 0.041
103.1992 0.198
103.2294 -0.061
103.2597 -0.060
103.2900 -0.266
103.3203 -0.215
103.3506 -0.111
103.3808 -0.112
103.4111 -0.112
103.4414 0.253
103.4717 -0.007
103.5019 0.045
103.5322 -0.059
103.5625 -0.006
103.5928 0.098
103.6231 -0.317
103.6533 0.048
103.6836 0.153
103.7139 0.363
103.7442 -0.104
103.7745 0.105
103.8047 0.211
103.8350 0.421
103.8653 0.580
103.8956 0.217
103.9258 0.011
103.9561 0.534
103.9864 0.068
104.0167 0.070
104.0470 0.073
104.0772 0.545
104.1075 -0.546
104.1378 0.239
104.1681 0.138
104.1984 0.350
104.2286 0.041
104.2589 0.097
104.2892 0.309
104.3195 0.417
104.3497 0.369
104.3800 0.425
104.4103 0.065
104.4406 0.330
104.4709 -0.134
104.5011 -0.441
104.5314 0.085
104.5617 -0.275
104.5920 0.147
104.6223 0.048
104.6525 -0.102
104.6828 0.112
104.7131 -0.143
104.7434 -0.241
104.7736 0.019
104.8039 0.331
104.8342 -0.033
104.8645 -0.189
104.8948 0.332
104.9250 0.124
104.9553 -0.084
104.9856 0.125
105.0159 -0.343
105.0462 -0.240
105.0764 0.019
105.1067 -0.191
105.1370 0.120
105.1673 0.223
105.1975 -0.090
105.2278 -0.195
105.2581 0.325
105.2884 -0.196
105.3187 -0.040
105.3489 -0.093
105.3792 0.011
105.4095 0.324
105.4398 0.168
105.4701 0.012
105.5003 0.064
105.5306 0.065
105.5609 -0.143
105.5912 0.014
105.6215 -0.297
105.6517 0.069
105.6820 -0.086
105.7123 -0.241
105.7426 -0.189
105.7728 -0.033
105.8031 0.175
105.8334 -0.398
105.8637 -0.033
105.8940 0.123
105.9242 -0.189
105.9545 0.072
105.9848 0.177
106.0151 -0.238
106.0454 -0.185
106.0756 0.232
106.1059 0.130
106.1362 -0.025
106.1665 -0.180
106.1967 -0.074
106.2270 0.084
106.2573 -0.226
106.2876 -0.068
106.3179 0.039
106.3481 0.093
106.3784 -0.009
106.4087 0.046
106.4390 0.257
106.4693 0.573
106.4995 -0.205
106.5298 0.163
106.5601 0.322
106.5904 -0.091
106.6206 -0.087
106.6509 0.177
106.6812 0.285
106.7115 -0.231
106.7418 -0.227
106.7720 0.032
106.8023 -0.230
106.8326 0.133
106.8629 0.289
106.8932 -0.025
106.9234 -0.182
106.9537 -0.339
106.9840 0.076
107.0143 -0.186
107.0445 0.334
107.0748 0.333
107.1051 -0.294
107.1354 -0.034
107.1657 0.225
107.1959 -0.036
107.2262 -0.140
107.2565 -0.089
107.2868 -0.037
107.3171 -0.245
107.3473 0.015
107.3776 -0.089
107.4079 -0.193
107.4382 -0.036
107.4684 -0.140
107.4987 -0.035
107.5290 0.070
107.5593 -0.033
107.5896 0.333
107.6198 0.126
107.6501 -0.081
107.6804 -0.080
107.7107 -0.287
107.7410 -0.026
107.7712 0.234
107.8015 0.130
107.8318 0.078
107.8621 0.338
107.8923 -0.182
107.9226 0.131
107.9529 0.028
107.9832 0.081
108.0135 0.082
108.0437 0.187
108.0740 -0.124
108.1043 -0.227
108.1346 -0.125
108.1649 0.082
108.1951 0.185
108.2254 -0.181
108.2557 0.235
108.2860 -0.183
108.3163 0.389
108.3465 -0.288
108.3768 -0.185
108.4071 0.336
108.4374 -0.081
108.4676 0.232
108.4979 0.232
108.5282 0.180
108.5585 0.284
108.5888 -0.184
108.6190 -0.027
108.6493 -0.026
108.6796 -0.182
108.7099 -0.181
108.7402 0.133
108.7704 -0.230
108.8007 0.136
108.8310 0.033
108.8613 0.139
108.8915 -0.171
108.9218 -0.117
108.9521 0.197
108.9824 -0.217
109.0127 -0.110
109.0429 0.049
109.0732 -0.157
109.1035 -0.258
109.1338 0.049
109.1641 0.149
109.1943 -0.064
109.2246 0.244
109.2549 -0.021
109.2852 0.079
109.3154 -0.133
109.3457 0.228
109.3760 -0.141
109.4063 -0.040
109.4366 0.008
109.4668 0.057
109.4971 -0.154
109.5274 -0.210
109.5577 0.360
109.5880 0.254
109.6182 -0.062
109.6485 0.092
109.6788 -0.171
109.7091 -0.121
109.7393 0.294
109.7696 0.188
109.7999 -0.074
109.8302 -0.128
109.8605 0.183
109.8907 0.338
109.9210 0.076
109.9513 0.179
109.9816 0.282
110.0119 0.021
110.0421 0.177
110.0724 0.489
110.1027 -0.085
110.1330 -0.241
110.1632 -0.086
110.1935 0.329
110.2238 -0.037
110.2541 0.431
110.2844 -0.038
110.3146 0.273
110.3449 0.221
110.3752 0.168
110.4055 -0.093
110.4358 0.220
110.4660 -0.093
110.4963 -0.041
110.5266 0.116
110.5569 0.324
110.5871 0.533
110.6174 0.013
110.6477 0.222
110.6780 0.275
110.7083 0.120
110.7385 0.121
110.7688 0.175
110.7991 0.072
110.8294 -0.291
110.8597 -0.184
110.8899 -0.078
110.9202 0.133
110.9505 0.188
110.9808 -0.278
111.0110 -0.118
111.0413 0.041
111.0716 -0.164
111.1019 0.048
111.1322 0.208
111.1624 0.055
111.1927 -0.045
111.2230 -0.093
111.2533 0.328
111.2836 -0.189
111.3138 0.076
111.3441 -0.128
111.3744 -0.227
111.4047 -0.073
111.4350 0.028
111.4652 0.026
111.4955 -0.340
111.5258 0.283
111.5561 -0.188
111.5863 0.227
111.6166 -0.035
111.6469 -0.244
111.6772 0.432
111.7075 0.066
111.7377 -0.143
111.7680 0.012
111.7983 0.428
111.8286 0.011
111.8589 -0.041
111.8891 -0.042
111.9194 0.010
111.9497 0.167
111.9800 -0.041
112.0102 0.011
112.0405 0.220
112.0708 0.220
112.1011 -0.143
112.1314 -0.195
112.1616 -0.037
112.1919 -0.192
112.2222 0.017
112.2525 -0.190
112.2828 0.020
112.3130 -0.290
112.3433 -0.080
112.3736 -0.234
112.4039 -0.025
112.4341 0.028
112.4644 -0.178
112.4947 -0.073
112.5250 -0.227
112.5553 -0.126
112.5855 0.027
112.6158 -0.081
112.6461 0.177
112.6764 0.226
112.7067 0.328
112.7369 0.065
112.7672 0.010
112.7975 0.060
112.8278 -0.255
112.8580 0.004
112.8883 0.002
112.9186 -0.156
112.9489 0.103
112.9792 -0.055
113.0094 -0.212
113.0397 0.047
113.0700 -0.162
113.1003 -0.059
113.1306 -0.164
113.1608 0.200
113.1911 -0.321
113.2214 -0.061
113.2517 0.252
113.2819 -0.165
113.3122 0.148
113.3425 -0.008
113.3728 -0.216
113.4031 0.149
113.4333 -0.319
113.4636 0.254
113.4939 0.203
113.5242 -0.004
113.5545 -0.055
113.5847 -0.157
113.6150 0.105
113.6453 0.315
113.6756 -0.048
113.7058 0.058
113.7361 -0.305
113.7664 0.114
113.7967 0.117
113.8270 0.380
113.8572 -0.295
113.8875 0.021
113.9178 -0.289
113.9481 0.235
113.9784 -0.126
114.0086 -0.227
114.0389 -0.020
114.0692 0.031
114.0995 -0.074
114.1298 0.134
114.1600 0.082
114.1903 0.029
114.2206 -0.283
114.2509 -0.023
114.2811 -0.179
114.3114 0.238
114.3417 0.082
114.3720 0.083
114.4023 0.135
114.4325 0.032
114.4628 -0.019
114.4931 0.243
114.5234 -0.225
114.5537 0.089
114.5839 -0.014
114.6142 -0.324
114.6445 -0.010
114.6748 -0.008
114.7050 -0.110
114.7353 0.100
114.7656 0.207
114.7959 0.053
114.8262 0.108
114.8564 -0.150
114.8867 0.166
114.9170 0.221
114.9473 -0.141
114.9776 0.279
115.0078 -0.134
115.0381 -0.130
115.0684 0.030
115.0987 0.034
115.1289 0.507
115.1592 0.511
115.1895 -0.006
115.2198 -0.053
115.2501 0.264
115.2803 -0.044
115.3106 0.169
115.3409 0.435
115.3712 0.128
115.4015 -0.023
115.4317 0.347
115.4620 0.196
115.4923 0.046
115.5226 0.364
115.5528 -0.151
115.5831 -0.197
115.6134 0.005
115.6437 0.155
115.6740 0.148
115.7042 0.715
115.7345 0.396
115.7648 0.390
115.7951 0.333
115.8254 0.535
115.8556 0.530
115.8859 0.212
115.9162 0.155
115.9465 0.202
115.9767 0.770
116.0070 0.348
116.0373 0.291
116.0676 0.547
116.0979 0.595
116.1281 0.486
116.1584 0.639
116.1887 0.426
116.2190 0.735
116.2493 0.002
116.2795 0.259
116.3098 0.360
116.3401 0.356
116.3704 0.457
116.4006 -0.223
116.4309 0.087
116.4612 0.293
116.4915 0.394
116.5218 0.444
116.5520 0.233
116.5823 0.075
116.6126 0.698
116.6429 0.540
116.6732 0.278
116.7034 0.589
116.7337 0.379
116.7640 0.430
116.7943 0.324
116.8245 -0.041
116.8548 0.531
116.8851 0.009
116.9154 0.477
116.9457 0.164
116.9759 -0.097
117.0062 0.007
117.0365 -0.253
117.0668 0.268
117.0971 0.268
117.1273 0.373
117.1576 0.113
117.1879 0.009
117.2182 0.010
117.2485 0.011
117.2787 0.220
117.3090 0.170
117.3393 0.015
117.3696 -0.244
117.3998 0.174
117.4301 -0.241
117.4604 0.126
117.4907 0.180
117.5210 -0.183
117.5512 0.132
117.5815 -0.334
117.6118 -0.227
117.6421 -0.071
117.6724 0.241
117.7026 -0.176
117.7329 -0.020
117.7632 -0.020
117.7935 0.189
117.8237 -0.228
117.8540 -0.227
117.8843 -0.227
117.9146 -0.177
117.9449 0.186
117.9751 0.445
118.0054 0.183
118.0357 0.234
118.0660 -0.184
118.0963 0.127
118.1265 0.022
118.1568 -0.031
118.1871 0.177
118.2174 -0.032
118.2476 0.020
118.2779 0.072
118.3082 -0.293
118.3385 -0.136
118.3688 -0.084
118.3990 -0.031
118.4293 0.021
118.4596 -0.186
118.4899 0.648
118.5202 0.388
118.5504 0.077
118.5807 -0.234
118.6110 -0.183
118.6413 -0.027
118.6715 0.234
118.7018 -0.235
118.7321 0.025
118.7624 0.026
118.7927 -0.078
118.8229 -0.130
118.8532 0.132
118.8835 -0.128
118.9138 0.081
118.9441 0.239
118.9743 -0.281
119.0046 -0.227
119.0349 -0.075
119.0652 -0.027
119.0954 0.125
119.1257 0.121
119.1560 -0.039
119.1863 0.217
119.2166 -0.099
119.2468 0.523
119.2771 0.259
119.3074 -0.108
119.3377 0.097
119.3680 -0.218
119.3982 0.144
119.4285 0.454
119.4588 0.191
119.4891 -0.228
119.5193 0.134
119.5496 0.028
119.5799 -0.182
119.6102 -0.392
119.6405 0.075
119.6707 0.022
119.7010 0.021
119.7313 -0.241
119.7616 -0.147
119.7919 -0.052
119.8221 -0.009
119.8524 -0.175
119.8827 -0.236
119.9130 0.015
119.9433 -0.254
119.9735 -0.266
120.0038 0.000
