'Id: "" Comment: "" Operator: "Lab Manager" Anode: "Cu" Scantype: "Locked Coupled" TimePerStep: "19.2" X: "9999" Y: "9999" Z: "9999" 
10.0015 0.000
10.0318 -0.433
10.0620 -1.249
10.0923 0.326
10.1226 -1.067
10.1529 -0.272
10.1832 0.158
10.2134 -0.036
10.2437 -0.126
10.2740 -0.163
10.3043 -0.408
10.3346 0.440
10.3648 -0.169
10.3951 -0.413
10.4254 -0.248
10.4557 0.075
10.4859 0.606
10.5162 0.356
10.5465 1.044
10.5768 -0.195
10.6071 0.077
10.6373 -0.641
10.6676 0.152
10.6979 0.633
10.7282 -0.344
10.7585 0.242
10.7887 0.464
10.8190 -0.043
10.8493 -1.175
10.8796 0.505
10.9098 -0.470
10.9401 0.639
10.9704 0.862
11.0007 0.409
11.0310 0.008
11.0612 1.587
11.0915 0.457
11.1218 0.213
11.1521 0.386
11.1824 0.404
11.2126 -0.204
11.2429 1.168
11.2732 0.145
11.3035 0.163
11.3337 0.234
11.3640 0.878
11.3943 0.169
11.4246 0.292
11.4549 1.615
11.4851 -0.136
11.5154 -0.011
11.5457 0.270
11.5760 -0.438
11.6063 -0.051
11.6365 -0.238
11.6668 -0.372
11.6971 0.152
11.7274 -0.104
11.7577 -0.308
11.7879 0.009
11.8182 0.430
11.8485 0.331
11.8788 -0.341
11.9090 0.863
11.9393 -0.433
11.9696 1.032
11.9999 -0.420
12.0302 0.785
12.0604 0.428
12.0907 0.279
12.1210 0.339
12.1513 0.503
12.1816 0.616
12.2118 0.260
12.2421 0.113
12.2724 0.018
12.3027 -0.389
12.3329 0.403
12.3632 0.778
12.3935 0.476
12.4238 0.591
12.4541 -0.023
12.4843 0.926
12.5146 0.626
12.5449 1.263
12.5752 -0.600
12.6055 0.038
12.6357 0.312
12.6660 0.013
12.6963 0.078
12.7266 1.030
12.7568 -0.154
12.7871 0.382
12.8174 0.397
12.8477 0.621
12.8780 0.324
12.9082 -0.390
12.9385 -0.292
12.9688 -0.142
12.9991 0.529
13.0294 -0.049
13.0596 0.258
13.0899 -0.581
13.1202 0.248
13.1505 0.816
13.1807 1.021
13.2110 0.809
13.2413 -0.132
13.2716 0.594
13.3019 -0.034
13.3321 -0.349
13.3624 -0.197
13.3927 -0.252
13.4230 0.110
13.4533 0.680
13.4835 0.573
13.5138 0.936
13.5441 0.257
13.5744 0.151
13.6046 0.827
13.6349 0.150
13.6652 0.462
13.6955 0.253
13.7258 -0.372
13.7560 0.045
13.7863 -0.371
13.8166 0.724
13.8469 0.048
13.8772 0.258
13.9074 0.469
13.9377 0.054
13.9680 0.161
13.9983 -0.096
14.0285 0.011
14.0588 1.160
14.0891 0.071
14.1194 -0.134
14.1497 -0.442
14.1799 0.186
14.2102 -0.227
14.2405 0.245
14.2708 0.874
14.3011 -0.320
14.3313 0.257
14.3616 1.460
14.3919 0.059
14.4222 0.376
14.4524 0.174
14.4827 1.117
14.5130 0.498
14.5433 -0.016
14.5736 1.606
14.6038 0.727
14.6341 -0.098
14.6644 0.378
14.6947 0.230
14.7250 0.499
14.7552 0.403
14.7855 0.100
14.8158 0.109
14.8461 -0.142
14.8764 0.598
14.9066 -0.225
14.9369 0.566
14.9672 -0.464
14.9975 -0.193
15.0277 -0.390
15.0580 0.230
15.0883 0.330
15.1186 0.638
15.1489 -0.095
15.1791 0.005
15.2094 0.314
15.2397 0.415
15.2700 0.985
15.3003 0.305
15.3305 0.511
15.3608 0.822
15.3911 0.820
15.4214 0.767
15.4516 -0.536
15.4819 0.244
15.5122 0.973
15.5425 -0.537
15.5728 0.192
15.6030 1.078
15.6333 0.193
15.6636 -0.118
15.6939 0.456
15.7242 -0.167
15.7544 0.044
15.7847 0.619
15.8150 0.049
15.8453 0.312
15.8755 0.315
15.9058 0.371
15.9361 -0.354
15.9664 -0.298
15.9967 0.332
16.0269 0.232
16.0572 0.133
16.0875 0.295
16.1178 0.926
16.1481 0.307
16.1783 0.574
16.2086 0.060
16.2389 0.171
16.2692 0.438
16.2994 0.134
16.3297 0.506
16.3600 0.410
16.3903 0.262
16.4206 0.896
16.4508 0.958
16.4811 -0.335
16.5114 -0.325
16.5417 -0.232
16.5720 0.383
16.6022 0.529
16.6325 -0.106
16.6628 0.302
16.6931 0.293
16.7233 0.440
16.7536 0.275
16.7839 -0.098
16.8142 0.103
16.8445 0.408
16.8747 0.401
16.9050 1.019
16.9353 -0.186
16.9656 0.693
16.9959 0.218
17.0261 -0.517
17.0564 1.041
17.0867 0.410
17.1170 0.041
17.1472 0.505
17.1775 -0.280
17.2078 0.601
17.2381 0.962
17.2684 0.803
17.2986 0.279
17.3289 0.902
17.3592 -0.142
17.3895 0.428
17.4198 -0.459
17.4500 0.061
17.4803 -0.409
17.5106 0.528
17.5409 -0.150
17.5712 0.475
17.6014 0.371
17.6317 0.163
17.6620 0.320
17.6923 0.217
17.7225 0.687
17.7528 0.533
17.7831 0.066
17.8134 0.120
17.8437 -0.138
17.8739 -0.031
17.9042 -0.288
17.9345 0.601
17.9648 0.501
17.9951 0.401
18.0253 -0.272
18.0556 -0.006
18.0859 1.040
18.1162 -0.309
18.1464 0.218
18.1767 0.224
18.2070 0.074
18.2373 0.341
18.2676 0.296
18.2978 0.355
18.3281 -0.158
18.3584 -0.619
18.3887 0.327
18.4190 0.700
18.4492 0.188
18.4795 -0.584
18.5098 0.883
18.5401 -0.253
18.5703 0.695
18.6006 -0.232
18.6309 -0.117
18.6612 -0.002
18.6915 -0.408
18.7217 0.385
18.7520 0.397
18.7823 0.305
18.8126 -0.151
18.8429 -0.034
18.8731 0.448
18.9034 -0.112
18.9337 0.371
18.9640 0.645
18.9942 0.086
19.0245 -0.264
19.0548 0.064
19.0851 -0.337
19.1154 -0.024
19.1456 0.341
19.1759 -0.074
19.2062 0.500
19.2365 -0.019
19.2668 0.348
19.2970 -0.171
19.3273 0.509
19.3576 -0.008
19.3879 -0.318
19.4181 0.936
19.4484 0.940
19.4787 -0.670
19.5090 0.064
19.5393 -0.036
19.5695 -0.187
19.5998 -0.442
19.6301 0.230
19.6604 0.121
19.6907 0.168
19.7209 0.580
19.7512 0.940
19.7815 0.364
19.8118 -0.265
19.8420 0.565
19.8723 0.562
19.9026 -0.013
19.9329 1.390
19.9632 0.763
19.9934 0.553
20.0237 -0.073
20.0540 -0.543
20.0843 0.185
20.1146 0.393
20.1448 0.341
20.1751 -0.232
20.2054 0.393
20.2357 -0.023
20.2659 0.239
20.2962 0.449
20.3265 -0.123
20.3568 0.192
20.3871 0.663
20.4173 0.665
20.4476 0.095
20.4779 -0.266
20.5082 0.519
20.5385 0.262
20.5687 0.839
20.5990 -0.146
20.6293 -0.298
20.6596 -0.032
20.6899 0.182
20.7201 -0.125
20.7504 0.506
20.7807 -0.321
20.8110 0.310
20.8412 0.786
20.8715 0.428
20.9018 0.176
20.9321 -0.494
20.9624 -0.131
20.9926 0.076
21.0229 0.128
21.0532 0.075
21.0835 -0.082
21.1138 0.648
21.1440 0.440
21.1743 0.232
21.2046 0.441
21.2349 -0.078
21.2651 0.236
21.2954 -0.231
21.3257 0.240
21.3560 0.815
21.3863 -0.120
21.4165 -0.221
21.4468 0.356
21.4771 0.255
21.5074 -0.157
21.5377 0.576
21.5679 0.320
21.5982 -0.143
21.6285 0.695
21.6588 -0.081
21.6890 0.602
21.7193 0.244
21.7496 0.407
21.7799 0.101
21.8102 0.004
21.8404 0.741
21.8707 -0.033
21.9010 0.496
21.9313 0.504
21.9616 -0.112
21.9918 -0.572
22.0221 0.148
22.0524 0.555
22.0827 0.130
22.1129 0.434
22.1432 0.217
22.1735 0.105
22.2038 0.566
22.2341 0.090
22.2643 0.760
22.2946 0.128
22.3249 0.278
22.3552 0.324
22.3855 0.526
22.4157 0.364
22.4460 -0.162
22.4763 -0.063
22.5066 0.350
22.5368 -0.071
22.5671 0.133
22.5974 0.338
22.6277 0.490
22.6580 0.383
22.6882 0.016
22.7185 0.326
22.7488 -0.301
22.7791 0.218
22.8094 -0.253
22.8396 0.059
22.8699 0.214
22.9002 0.318
22.9305 0.213
22.9607 0.369
22.9910 -0.151
23.0213 0.527
23.0516 0.059
23.0819 0.164
23.1121 -0.095
23.1424 0.064
23.1727 0.014
23.2030 -0.036
23.2333 0.331
23.2635 -0.082
23.2938 0.442
23.3241 0.602
23.3544 -0.436
23.3846 -0.015
23.4149 0.094
23.4452 0.568
23.4755 -0.312
23.5058 0.318
23.5360 0.168
23.5663 0.070
23.5966 0.077
23.6269 0.083
23.6572 0.143
23.6874 0.462
23.7177 0.001
23.7480 0.322
23.7783 -0.295
23.8086 -0.504
23.8388 0.484
23.8691 -0.090
23.8994 0.222
23.9297 -0.091
23.9599 0.326
23.9902 0.222
24.0205 -0.142
24.0508 -0.193
24.0811 -0.139
24.1113 0.227
24.1416 0.124
24.1719 0.387
24.2022 -0.027
24.2325 -0.285
24.2627 1.073
24.2930 -0.070
24.3233 -0.066
24.3536 -0.479
24.3838 0.515
24.4141 0.520
24.4444 0.265
24.4747 -0.199
24.5050 -0.245
24.5352 0.542
24.5655 0.548
24.5958 0.034
24.6261 -0.012
24.6564 0.829
24.6866 0.211
24.7169 0.532
24.7472 0.019
24.7775 -0.285
24.8077 -0.195
24.8380 0.573
24.8683 0.092
24.8986 -0.650
24.9289 -0.037
24.9591 0.212
24.9894 0.462
25.0197 0.294
25.0500 1.065
25.0803 0.378
25.1105 0.368
25.1408 -0.111
25.1711 0.713
25.2014 -0.129
25.2316 0.175
25.2619 -0.094
25.2922 0.210
25.3225 0.515
25.3528 -0.638
25.3830 -0.177
25.4133 -0.027
25.4436 -0.346
25.4739 0.116
25.5042 0.058
25.5344 -0.260
25.5647 0.985
25.5950 0.094
25.6253 0.454
25.6555 -0.227
25.6858 0.342
25.7161 0.182
25.7464 0.543
25.7767 -0.294
25.8069 -0.140
25.8372 0.378
25.8675 -0.510
25.8978 -0.095
25.9281 -0.148
25.9583 0.631
25.9886 -0.359
26.0189 0.161
26.0492 -0.256
26.0794 -0.308
26.1097 0.211
26.1400 0.106
26.1703 -0.364
26.2006 0.625
26.2308 -0.052
26.2611 0.312
26.2914 0.156
26.3217 0.157
26.3520 0.522
26.3822 0.263
26.4125 -0.308
26.4428 -0.836
26.4731 0.459
26.5034 -0.224
26.5336 0.343
26.5639 0.181
26.5942 -0.398
26.6245 0.587
26.6547 0.530
26.6850 0.213
26.7153 0.156
26.7456 -0.212
26.7759 0.045
26.8061 0.562
26.8364 -0.535
26.8667 -0.277
26.8970 -0.071
26.9273 0.656
26.9575 0.706
26.9878 0.392
27.0181 0.183
27.0484 0.234
27.0786 0.754
27.1089 0.077
27.1392 0.077
27.1695 0.286
27.1998 0.287
27.2300 -0.702
27.2603 -0.241
27.2906 0.376
27.3209 -0.361
27.3512 0.153
27.3814 -0.322
27.4117 -0.068
27.4420 0.446
27.4723 0.492
27.5025 0.279
27.5328 -0.612
27.5631 0.477
27.5934 -0.049
27.6237 0.103
27.6539 -0.630
27.6842 0.043
27.7145 -0.168
27.7448 1.183
27.7751 0.295
27.8053 -0.750
27.8356 0.082
27.8659 0.236
27.8962 0.443
27.9264 0.129
27.9567 -0.080
27.9870 0.128
28.0173 0.648
28.0476 0.648
28.0778 0.128
28.1081 0.337
28.1384 0.650
28.1687 0.182
28.1990 -0.181
28.2292 -0.022
28.2595 -0.020
28.2898 0.295
28.3201 0.141
28.3503 -0.012
28.3806 -0.321
28.4109 0.019
28.4412 -0.214
28.4715 0.074
28.5017 0.779
28.5320 -0.026
28.5623 0.263
28.5926 -0.437
28.6229 0.113
28.6531 0.403
28.6834 -0.192
28.7137 -0.058
28.7440 -0.444
28.7742 0.159
28.8045 0.138
28.8348 0.951
28.8651 0.462
28.8954 -0.235
28.9256 0.474
28.9559 0.038
28.9862 -0.345
29.0165 0.469
29.0468 -0.487
29.0770 -0.245
29.1073 -0.106
29.1376 0.553
29.1679 0.015
29.1981 -0.471
29.2284 0.138
29.2587 -0.243
29.2890 -0.207
29.3193 -0.327
29.3495 0.439
29.3798 -0.097
29.4101 -0.112
29.4404 0.238
29.4707 0.328
29.5009 0.783
29.5312 -0.220
29.5615 -0.650
29.5918 0.268
29.6221 -0.324
29.6523 -0.343
29.6826 -0.257
29.7129 -0.379
29.7432 0.221
29.7734 0.406
29.8037 0.434
29.8340 -0.631
29.8643 0.439
29.8946 0.260
29.9248 0.082
29.9551 -0.253
29.9854 0.662
30.0157 0.276
30.0460 -0.162
30.0762 0.182
30.1065 -0.255
30.1368 -0.536
30.1671 0.694
30.1973 0.049
30.2276 0.915
30.2579 -0.146
30.2882 0.512
30.3185 0.650
30.3487 0.424
30.3790 0.302
30.4093 -0.237
30.4396 0.996
30.4699 0.458
30.5001 1.483
30.5304 0.790
30.5607 0.721
30.5910 1.122
30.6212 0.117
30.6515 0.831
30.6818 0.035
30.7121 0.333
30.7424 1.152
30.7726 1.659
30.8029 1.385
30.8332 1.528
30.8635 2.817
30.8938 2.909
30.9240 2.688
30.9543 3.249
30.9846 2.508
31.0149 3.539
31.0451 4.621
31.0754 3.933
31.1057 5.225
31.1360 7.454
31.1663 7.132
31.1965 8.008
31.2268 8.155
31.2571 8.615
31.2874 9.179
31.3177 11.462
31.3479 13.746
31.3782 18.217
31.4085 18.470
31.4388 18.411
31.4690 23.977
31.4993 27.044
31.5296 29.798
31.5599 31.771
31.5902 33.172
31.6204 33.167
31.6507 36.130
31.6810 31.074
31.7113 28.517
31.7416 27.732
31.7718 25.645
31.8021 21.319
31.8324 18.764
31.8627 15.688
31.8929 15.633
31.9232 12.298
31.9535 11.723
31.9838 8.649
32.0141 7.918
32.0443 5.261
32.0746 5.677
32.1049 6.979
32.1352 5.729
32.1655 5.417
32.1957 3.699
32.2260 3.283
32.2563 3.076
32.2866 2.088
32.3169 2.350
32.3471 2.508
32.3774 1.938
32.4077 2.201
32.4380 1.423
32.4682 1.739
32.4985 1.118
32.5288 0.705
32.5591 1.803
32.5894 0.818
32.6196 1.292
32.6499 0.672
32.6802 1.094
32.7105 0.423
32.7408 0.221
32.7710 2.363
32.8013 0.599
32.8316 0.241
32.8619 1.290
32.8921 0.256
32.9224 0.733
32.9527 1.158
32.9830 0.177
33.0133 0.186
33.0435 -0.429
33.0738 -0.445
33.1041 0.529
33.1344 0.410
33.1647 1.436
33.1949 0.901
33.2252 -0.103
33.2555 -0.169
33.2858 1.224
33.3160 0.169
33.3463 0.312
33.3766 0.820
33.4069 -0.025
33.4372 0.119
33.4674 0.940
33.4977 0.304
33.5280 0.709
33.5583 0.542
33.5886 1.625
33.6188 1.719
33.6491 0.720
33.6794 0.502
33.7097 1.691
33.7399 2.307
33.7702 1.569
33.8005 2.029
33.8308 2.490
33.8611 4.097
33.8913 2.423
33.9216 4.968
33.9519 6.732
33.9822 6.360
34.0125 6.979
34.0427 10.203
34.0730 9.468
34.1033 12.223
34.1336 12.426
34.1638 20.338
34.1941 24.553
34.2244 30.955
34.2547 35.639
34.2850 36.416
34.3152 37.976
34.3455 35.265
34.3758 29.481
34.4061 27.552
34.4364 18.383
34.4666 14.840
34.4969 11.505
34.5272 10.254
34.5575 7.441
34.5877 6.660
34.6180 4.837
34.6483 4.889
34.6786 3.588
34.7089 4.786
34.7391 4.683
34.7694 3.695
34.7997 2.343
34.8300 2.710
34.8603 2.191
34.8905 2.663
34.9208 2.562
34.9511 1.836
34.9814 2.360
35.0116 2.573
35.0419 2.681
35.0722 2.477
35.1025 2.743
35.1328 2.383
35.1630 2.441
35.1933 2.499
35.2236 3.807
35.2539 4.178
35.2842 3.820
35.3144 3.202
35.3447 4.304
35.3750 3.895
35.4053 4.423
35.4356 5.786
35.4658 5.951
35.4961 5.074
35.5264 6.854
35.5567 6.760
35.5869 7.707
35.6172 8.603
35.6475 8.040
35.6778 11.228
35.7081 13.427
35.7383 13.490
35.7686 16.991
35.7989 18.983
35.8292 19.151
35.8595 21.351
35.8897 27.666
35.9200 28.305
35.9503 32.068
35.9806 36.561
36.0108 37.773
36.0411 43.777
36.0714 45.667
36.1017 47.140
36.1320 50.437
36.1622 45.713
36.1925 45.990
36.2228 41.683
36.2531 36.387
36.2834 33.644
36.3136 30.536
36.3439 26.752
36.3742 20.728
36.4045 19.288
36.4347 17.379
36.4650 16.200
36.4953 12.573
36.5256 11.290
36.5559 8.498
36.5861 8.518
36.6164 7.236
36.6467 6.632
36.6770 6.601
36.7073 5.736
36.7375 4.404
36.7678 4.738
36.7981 3.406
36.8284 2.491
36.8586 2.879
36.8889 3.527
36.9192 2.092
36.9495 1.334
36.9798 2.192
37.0100 2.841
37.0403 2.189
37.0706 1.172
37.1009 1.926
37.1312 1.379
37.1614 1.978
37.1917 1.327
37.2220 1.614
37.2523 0.912
37.2825 1.720
37.3128 1.643
37.3431 0.890
37.3734 0.970
37.4037 0.998
37.4339 0.610
37.4642 0.275
37.4945 0.929
37.5248 0.646
37.5551 1.093
37.5853 0.394
37.6156 1.154
37.6459 -0.014
37.6762 1.111
37.7064 0.934
37.7367 0.289
37.7670 0.686
37.7973 0.093
37.8276 0.855
37.8578 0.523
37.8881 0.817
37.9184 -0.087
37.9487 0.624
37.9790 0.190
38.0092 0.641
38.0395 0.207
38.0698 0.086
38.1001 0.069
38.1304 -0.520
38.1606 -0.049
38.1909 -0.568
38.2212 1.258
38.2515 0.480
38.2817 -0.090
38.3120 -0.087
38.3423 0.125
38.3726 -0.547
38.4029 0.603
38.4331 -0.174
38.4634 0.352
38.4937 -0.632
38.5240 -0.053
38.5543 0.317
38.5845 0.011
38.6148 0.174
38.6451 0.493
38.6754 -0.073
38.7056 -0.065
38.7359 -0.109
38.7662 0.107
38.7965 0.064
38.8268 -0.084
38.8570 0.081
38.8873 0.351
38.9176 -0.004
38.9479 -0.046
38.9782 0.121
39.0084 -0.442
39.0387 0.194
39.0690 -0.107
39.0993 -0.304
39.1295 0.073
39.1598 0.190
39.1901 -0.006
39.2204 0.163
39.2507 -0.136
39.2809 0.190
39.3112 -0.525
39.3415 0.166
39.3718 0.285
39.4021 0.196
39.4323 -0.258
39.4626 -0.242
39.4929 0.294
39.5232 0.415
39.5534 0.744
39.5837 -0.125
39.6140 -0.056
39.6443 -0.143
39.6746 0.448
39.7048 -0.107
39.7351 -0.141
39.7654 -0.174
39.7957 0.313
39.8260 0.332
39.8562 0.508
39.8865 -0.409
39.9168 -0.337
39.9471 0.449
39.9773 0.298
40.0076 -0.061
40.0379 -0.212
40.0682 0.003
40.0985 0.165
40.1287 0.380
40.1590 -0.081
40.1893 0.447
40.2196 0.194
40.2499 0.619
40.2801 0.263
40.3104 0.375
40.3407 0.280
40.3710 -0.127
40.4012 0.038
40.4315 0.777
40.4618 0.110
40.4921 -0.035
40.5224 -0.285
40.5526 0.077
40.5829 0.075
40.6132 0.282
40.6435 -0.293
40.6738 -0.085
40.7040 0.174
40.7343 0.070
40.7646 0.278
40.7949 0.018
40.8251 0.487
40.8554 0.175
40.8857 0.228
40.9160 -0.239
40.9463 -0.081
40.9765 -0.235
41.0068 -0.337
41.0371 0.282
41.0674 0.276
41.0977 -0.094
41.1279 0.370
41.1582 0.157
41.1885 0.569
41.2188 0.096
41.2491 0.926
41.2793 0.557
41.3096 0.398
41.3399 0.187
41.3702 -0.128
41.4004 0.234
41.4307 0.024
41.4610 0.439
41.4913 -0.084
41.5216 0.280
41.5518 0.592
41.5821 0.018
41.6124 -0.034
41.6427 0.175
41.6730 -0.346
41.7032 0.228
41.7335 0.177
41.7638 0.230
41.7941 0.493
41.8243 0.130
41.8546 -0.024
41.8849 0.500
41.9152 -0.018
41.9455 0.714
41.9757 -0.012
42.0060 0.305
42.0363 -0.003
42.0666 -0.207
42.0969 0.631
42.1271 0.011
42.1574 0.121
42.1877 -0.134
42.2180 -0.180
42.2482 0.451
42.2785 0.197
42.3088 0.361
42.3391 0.055
42.3694 -0.093
42.3996 0.644
42.4299 0.027
42.4602 0.140
42.4905 -0.060
42.5208 -0.363
42.5510 0.099
42.5813 0.405
42.6116 -0.070
42.6419 0.393
42.6721 0.128
42.7024 0.643
42.7327 0.222
42.7630 0.270
42.7933 0.265
42.8235 0.262
42.8538 -0.055
42.8841 0.151
42.9144 0.148
42.9447 -0.532
42.9749 0.091
43.0052 -0.120
43.0355 0.191
43.0658 -0.383
43.0960 0.449
43.1263 -0.229
43.1566 0.448
43.1869 0.239
43.2172 0.292
43.2474 0.032
43.2777 -0.280
43.3080 0.815
43.3383 -0.382
43.3686 -0.172
43.3988 0.403
43.4291 0.249
43.4594 0.356
43.4897 0.255
43.5199 -0.054
43.5502 0.106
43.5805 0.057
43.6108 0.009
43.6411 0.379
43.6713 -0.346
43.7016 0.440
43.7319 -0.023
43.7622 0.347
43.7925 -0.115
43.8227 0.204
43.8530 0.106
43.8833 0.061
43.9136 -0.244
43.9439 -0.101
43.9741 0.147
44.0044 0.395
44.0347 0.279
44.0650 0.007
44.0952 0.100
44.1255 0.141
44.1558 -0.131
44.1861 0.015
44.2164 0.370
44.2466 0.047
44.2769 0.246
44.3072 -0.128
44.3375 0.176
44.3678 0.115
44.3980 0.159
44.4283 0.203
44.4586 0.300
44.4889 0.136
44.5191 0.181
44.5494 -0.294
44.5797 0.064
44.6100 -0.359
44.6403 0.104
44.6705 -0.110
44.7008 0.250
44.7311 0.297
44.7614 0.084
44.7917 -0.337
44.8219 0.284
44.8522 0.384
44.8825 -0.244
44.9128 -0.143
44.9430 0.219
44.9733 0.373
45.0036 0.215
45.0339 0.161
45.0642 0.263
45.0944 0.002
45.1247 -0.155
45.1550 0.052
45.1853 0.000
45.2156 0.261
45.2458 -0.052
45.2761 -0.467
45.3064 0.098
45.3367 -0.586
45.3669 0.032
45.3972 -0.027
45.4275 -0.241
45.4578 0.326
45.4881 -0.096
45.5183 0.055
45.5486 0.258
45.5789 -0.163
45.6092 -0.272
45.6395 -0.276
45.6697 0.235
45.7000 0.016
45.7303 0.110
45.7606 0.517
45.7908 0.143
45.8211 -0.074
45.8514 0.438
45.8817 0.169
45.9120 0.213
45.9422 0.101
45.9725 0.198
46.0028 -0.278
46.0331 -0.337
46.0634 0.327
46.0936 0.315
46.1239 0.199
46.1542 -0.074
46.1845 -0.085
46.2147 0.008
46.2450 -0.159
46.2753 0.403
46.3056 -0.336
46.3359 0.592
46.3661 -0.147
46.3964 0.781
46.4267 0.252
46.4570 0.399
46.4873 0.026
46.5175 0.331
46.5478 0.271
46.5781 0.264
46.6084 0.309
46.6386 0.041
46.6689 0.712
46.6992 -0.075
46.7295 0.752
46.7598 1.319
46.7900 0.741
46.8203 0.684
46.8506 0.732
46.8809 1.405
46.9112 1.348
46.9414 2.178
46.9717 1.654
47.0020 2.015
47.0323 2.325
47.0626 2.479
47.0928 3.102
47.1231 3.308
47.1534 4.348
47.1837 4.556
47.2139 4.659
47.2442 6.169
47.2745 5.856
47.3048 7.470
47.3351 7.731
47.3653 10.128
47.3956 8.462
47.4259 9.609
47.4562 9.142
47.4865 7.998
47.5167 7.010
47.5470 7.065
47.5773 5.974
47.6076 4.727
47.6378 5.356
47.6681 4.213
47.6984 3.957
47.7287 3.180
47.7590 2.664
47.7892 1.888
47.8195 2.674
47.8498 1.482
47.8801 1.436
47.9104 1.390
47.9406 1.553
47.9709 0.361
48.0012 0.785
48.0315 1.001
48.0617 0.957
48.0920 0.704
48.1223 -0.069
48.1526 0.148
48.1829 0.209
48.2131 0.635
48.2434 0.905
48.2737 -0.179
48.3040 0.352
48.3343 -0.054
48.3645 0.374
48.3948 0.020
48.4251 0.188
48.4554 -0.113
48.4856 0.264
48.5159 1.058
48.5462 0.029
48.5765 -0.271
48.6068 0.263
48.6370 0.068
48.6673 0.187
48.6976 0.409
48.7279 0.372
48.7582 -0.395
48.7884 -0.276
48.8187 -0.115
48.8490 0.150
48.8793 -0.366
48.9095 -0.049
48.9398 0.374
48.9701 -0.454
49.0004 0.229
49.0307 -0.546
49.0609 -0.177
49.0912 -0.120
49.1215 -0.115
49.1518 0.567
49.1821 -0.313
49.2123 0.526
49.2426 0.115
49.2729 -0.556
49.3032 0.441
49.3334 0.031
49.3637 0.507
49.3940 0.358
49.4243 0.262
49.4546 -0.667
49.4848 0.123
49.5151 0.079
49.5454 0.088
49.5757 0.046
49.6060 0.003
49.6362 0.014
49.6665 -0.237
49.6968 0.243
49.7271 0.098
49.7574 0.005
49.7876 -0.088
49.8179 -0.024
49.8482 -0.168
49.8785 -0.155
49.9087 -0.038
49.9390 0.027
49.9693 0.249
49.9996 -0.154
50.0299 -0.244
50.0601 -0.563
50.0904 0.369
50.1207 0.156
50.1510 -0.058
50.1813 0.042
50.2115 -0.171
50.2418 0.606
50.2721 0.602
50.3024 -0.234
50.3326 -0.185
50.3629 0.437
50.3932 -0.034
50.4235 0.692
50.4538 -0.247
50.4840 -0.196
50.5143 -0.250
50.5446 0.218
50.5749 0.009
50.6052 0.374
50.6354 0.530
50.6657 -0.251
50.6960 -0.250
50.7263 0.214
50.7565 -0.208
50.7868 0.048
50.8171 0.253
50.8474 0.092
50.8777 0.089
50.9079 0.190
50.9382 0.031
50.9685 -0.389
50.9988 0.859
51.0291 0.284
51.0593 -0.186
51.0896 0.177
51.1199 -0.189
51.1502 0.331
51.1804 -0.242
51.2107 0.383
51.2410 0.487
51.2713 0.331
51.3016 0.019
51.3318 -0.292
51.3621 0.491
51.3924 -0.237
51.4227 0.390
51.4530 0.028
51.4832 0.395
51.5135 -0.019
51.5438 0.558
51.5741 -0.324
51.6043 0.253
51.6346 -0.056
51.6649 0.313
51.6952 -0.047
51.7255 -0.250
51.7557 -0.098
51.7860 0.783
51.8163 0.363
51.8466 0.255
51.8769 0.147
51.9071 0.353
51.9374 -0.327
51.9677 -0.121
51.9980 -0.019
52.0282 -0.125
52.0585 0.134
52.0888 0.498
52.1191 0.445
52.1494 -0.181
52.1796 -0.285
52.2099 0.232
52.2402 0.176
52.2705 0.381
52.3008 -0.195
52.3310 -0.094
52.3613 0.268
52.3916 -0.567
52.4219 -0.048
52.4521 0.054
52.4824 0.001
52.5127 0.209
52.5430 -0.365
52.5733 -0.053
52.6035 -0.053
52.6338 0.000
52.6641 -0.208
52.6944 0.366
52.7247 0.002
52.7549 0.212
52.7852 -0.203
52.8155 0.164
52.8458 0.427
52.8761 -0.195
52.9063 0.485
52.9366 -0.241
52.9669 -0.081
52.9972 -0.441
53.0274 0.128
53.0577 0.126
53.0880 -0.346
53.1183 -0.035
53.1486 0.327
53.1788 -0.039
53.2091 0.481
53.2394 -0.405
53.2697 -0.094
53.3000 -0.354
53.3302 0.271
53.3605 -0.042
53.3908 -0.249
53.4211 0.481
53.4513 0.065
53.4816 0.171
53.5119 0.485
53.5422 -0.033
53.5725 0.386
53.6027 0.076
53.6330 -0.181
53.6633 0.343
53.6936 0.347
53.7239 -0.431
53.7541 0.042
53.7844 0.151
53.8147 0.208
53.8450 0.109
53.8752 -0.250
53.9055 -0.157
53.9358 -0.013
53.9661 -0.128
53.9964 -0.035
54.0266 -0.514
54.0569 0.361
54.0872 0.195
54.1175 -0.024
54.1478 0.019
54.1780 0.218
54.2083 -0.467
54.2386 -0.170
54.2689 0.181
54.2991 0.010
54.3294 0.153
54.3597 0.296
54.3900 -0.134
54.4203 0.114
54.4505 -0.159
54.4808 -0.119
54.5111 0.129
54.5414 -0.195
54.5717 -0.050
54.6019 0.148
54.6322 -0.384
54.6625 0.231
54.6928 0.013
54.7230 0.472
54.7533 -0.006
54.7836 0.141
54.8139 -0.337
54.8442 0.488
54.8744 0.272
54.9047 0.003
54.9350 -0.056
54.9653 -0.116
54.9956 -0.018
55.0258 -0.285
55.0561 -0.195
55.0864 -0.001
55.1167 0.142
55.1469 0.910
55.1772 0.792
55.2075 0.259
55.2378 0.976
55.2681 -0.130
55.2983 0.327
55.3286 0.055
55.3589 0.356
55.3892 0.449
55.4195 0.335
55.4497 0.429
55.4800 0.992
55.5103 0.930
55.5406 1.129
55.5709 0.651
55.6011 1.580
55.6314 0.478
55.6617 0.886
55.6920 0.983
55.7222 0.507
55.7525 0.656
55.7828 1.482
55.8131 0.434
55.8434 0.844
55.8736 1.255
55.9039 1.562
55.9342 1.661
55.9645 2.437
55.9948 2.953
56.0250 1.959
56.0553 2.216
56.0856 4.243
56.1159 3.667
56.1461 4.705
56.1764 4.546
56.2067 4.856
56.2370 5.896
56.2673 6.935
56.2975 8.548
56.3278 8.183
56.3581 9.484
56.3884 9.170
56.4187 10.785
56.4489 11.201
56.4792 12.087
56.5095 10.629
56.5398 10.057
56.5700 11.204
56.6003 8.810
56.6306 7.978
56.6609 7.251
56.6912 5.952
56.7214 7.204
56.7517 5.957
56.7820 4.554
56.8123 3.464
56.8426 3.208
56.8728 3.420
56.9031 3.425
56.9334 2.649
56.9637 2.133
56.9939 1.826
57.0242 2.613
57.0545 2.098
57.0848 2.157
57.1151 2.112
57.1453 1.285
57.1756 1.084
57.2059 0.988
57.2362 0.319
57.2665 0.171
57.2967 0.127
57.3270 0.240
57.3573 -0.115
57.3876 0.103
57.4178 0.060
57.4481 0.175
57.4784 0.706
57.5087 0.196
57.5390 0.520
57.5692 0.531
57.5995 0.595
57.6298 -0.383
57.6601 0.202
57.6904 0.579
57.7206 0.228
57.7509 -0.019
57.7812 -0.058
57.8115 0.425
57.8417 0.074
57.8720 0.401
57.9023 -0.001
57.9326 -0.246
57.9629 -0.179
57.9931 -0.163
58.0234 -0.043
58.0537 0.078
58.0840 0.511
58.1143 -0.253
58.1445 -0.080
58.1748 -0.114
58.2051 -0.461
58.2354 0.234
58.2656 -0.112
58.2959 0.115
58.3262 -0.074
58.3565 0.049
58.3868 0.382
58.4170 -0.171
58.4473 -0.255
58.4776 0.111
58.5079 0.269
58.5382 0.324
58.5684 -0.091
58.5987 0.121
58.6290 0.176
58.6593 0.283
58.6896 0.079
58.7198 0.083
58.7501 0.452
58.7804 -0.012
58.8107 0.670
58.8409 0.206
58.8712 0.525
58.9015 0.114
58.9318 0.120
58.9621 -0.186
58.9923 -0.335
59.0226 0.505
59.0529 -0.269
59.0832 0.208
59.1135 0.060
59.1437 -0.244
59.1740 -0.042
59.2043 0.369
59.2346 0.729
59.2648 0.359
59.2951 0.303
59.3254 0.142
59.3557 0.138
59.3860 -0.439
59.4162 0.079
59.4465 0.597
59.4768 -0.500
59.5071 -0.190
59.5374 0.485
59.5676 0.640
59.5979 -0.039
59.6282 0.481
59.6585 0.011
59.6887 0.427
59.7190 0.687
59.7493 0.010
59.7796 -0.250
59.8099 0.010
59.8401 0.270
59.8704 -0.146
59.9007 -0.250
59.9310 0.056
59.9613 -0.107
59.9915 0.304
60.0218 -0.275
60.0521 0.137
60.0824 -0.493
60.1126 -0.084
60.1429 0.586
60.1732 0.007
60.2035 -0.207
60.2338 -0.265
60.2640 0.510
60.2943 0.141
60.3246 -0.333
60.3549 0.183
60.3852 -0.134
60.4154 -0.085
60.4457 0.588
60.4760 0.064
60.5063 0.425
60.5365 0.110
60.5668 0.472
60.5971 0.001
60.6274 -0.053
60.6577 0.154
60.6879 -0.316
60.7182 -0.004
60.7485 -0.005
60.7788 0.933
60.8091 0.204
60.8393 0.152
60.8696 -0.056
60.8999 0.153
60.9302 -0.054
60.9604 -0.260
60.9907 0.086
61.0210 -0.141
61.0513 -0.003
61.0816 0.292
61.1118 -0.454
61.1421 0.310
61.1724 0.033
61.2027 -0.087
61.2330 -0.260
61.2632 0.402
61.2935 0.334
61.3238 0.215
61.3541 -0.269
61.3844 0.029
61.4146 0.223
61.4449 -0.311
61.4752 -0.167
61.5055 -0.023
61.5357 0.903
61.5660 0.215
61.5963 0.256
61.6266 -0.223
61.6569 -0.234
61.6871 0.225
61.7174 0.059
61.7477 0.102
61.7780 0.509
61.8083 0.344
61.8385 0.180
61.8688 0.171
61.8991 0.632
61.9294 0.885
61.9596 -0.112
61.9899 0.611
62.0202 1.073
62.0505 0.858
62.0808 1.217
62.1110 0.638
62.1413 0.633
62.1716 1.461
62.2019 1.456
62.2322 2.285
62.2624 1.708
62.2927 2.277
62.3230 1.701
62.3533 3.572
62.3835 2.840
62.4138 2.629
62.4441 4.242
62.4744 5.542
62.5047 4.238
62.5349 4.653
62.5652 7.100
62.5955 6.422
62.6258 6.578
62.6561 7.568
62.6863 7.984
62.7166 8.193
62.7469 8.506
62.7772 9.497
62.8074 9.603
62.8377 8.563
62.8680 6.429
62.8983 7.213
62.9286 7.372
62.9588 6.437
62.9891 6.180
63.0194 4.673
63.0497 4.208
63.0800 3.848
63.1102 3.071
63.1405 3.649
63.1708 2.769
63.2011 1.732
63.2313 1.790
63.2616 2.682
63.2919 1.646
63.3222 1.184
63.3525 0.670
63.3827 0.990
63.4130 1.050
63.4433 1.266
63.4736 0.545
63.5039 0.085
63.5341 0.198
63.5644 -0.366
63.5947 0.216
63.6250 0.070
63.6552 0.340
63.6855 -0.326
63.7158 0.049
63.7461 0.060
63.7764 0.123
63.8066 0.656
63.8369 0.720
63.8672 0.003
63.8975 0.484
63.9278 -0.389
63.9580 -0.011
63.9883 -0.102
64.0186 0.433
64.0489 0.083
64.0791 -0.059
64.1094 -0.357
64.1397 0.335
64.1700 0.194
64.2003 -0.363
64.2305 -0.157
64.2608 -0.106
64.2911 0.153
64.3214 -0.161
64.3517 -0.057
64.3819 -0.214
64.4122 -0.109
64.4425 0.360
64.4728 0.204
64.5031 0.257
64.5333 0.050
64.5636 0.104
64.5939 -0.311
64.6242 -0.051
64.6544 0.262
64.6847 -0.259
64.7150 0.315
64.7453 -0.048
64.7756 0.005
64.8058 -0.618
64.8361 0.269
64.8664 -0.301
64.8967 0.014
64.9270 -0.348
64.9572 0.437
64.9875 0.128
65.0178 -0.806
65.0481 -0.086
65.0783 0.271
65.1086 -0.050
65.1389 -0.005
65.1692 -0.169
65.1995 0.032
65.2297 0.390
65.2600 -0.346
65.2903 0.325
65.3206 -0.097
65.3509 -0.363
65.3811 0.148
65.4114 0.399
65.4417 -0.130
65.4720 0.122
65.5022 -0.459
65.5325 0.054
65.5628 -0.370
65.5931 0.247
65.6234 -0.280
65.6536 -0.406
65.6839 0.562
65.7142 -0.188
65.7445 0.260
65.7748 -0.021
65.8050 0.584
65.8353 -0.060
65.8656 -0.184
65.8959 0.318
65.9261 0.039
65.9564 -0.032
65.9867 -0.102
66.0170 0.661
66.0473 0.748
66.0775 -0.051
66.1078 0.870
66.1381 0.749
66.1684 0.316
66.1987 0.352
66.2289 1.014
66.2592 0.894
66.2895 0.358
66.3198 1.177
66.3500 0.225
66.3803 0.210
66.4106 0.717
66.4409 0.964
66.4712 0.222
66.5014 0.522
66.5317 0.196
66.5620 0.549
66.5923 -0.140
66.6226 -0.152
66.6528 -0.163
66.6831 0.555
66.7134 -0.029
66.7437 0.429
66.7739 -0.570
66.8042 -0.216
66.8345 -0.329
66.8648 -0.181
66.8951 0.072
66.9253 0.481
66.9556 -0.047
66.9859 -0.210
67.0162 -0.060
67.0465 0.038
67.0767 0.605
67.1070 -0.286
67.1373 0.282
67.1676 0.433
67.1978 0.273
67.2281 0.529
67.2584 0.837
67.2887 0.990
67.3190 0.622
67.3492 1.244
67.3795 0.877
67.4098 1.447
67.4401 0.924
67.4704 1.808
67.5006 2.848
67.5309 2.639
67.5612 3.159
67.5915 3.210
67.6218 2.793
67.6520 3.575
67.6823 3.106
67.7126 5.138
67.7429 4.983
67.7731 6.651
67.8034 5.559
67.8337 5.404
67.8640 5.980
67.8943 5.201
67.9245 4.995
67.9548 5.728
67.9851 4.637
68.0154 5.579
68.0457 3.343
68.0759 3.920
68.1062 3.248
68.1365 2.784
68.1668 2.477
68.1970 2.587
68.2273 2.228
68.2576 0.932
68.2879 0.991
68.3182 1.988
68.3484 1.891
68.3787 0.961
68.4090 1.229
68.4393 1.497
68.4696 1.193
68.4998 1.046
68.5301 0.482
68.5604 0.439
68.5907 1.438
68.6209 1.344
68.6512 1.511
68.6815 1.417
68.7118 1.584
68.7421 2.481
68.7723 1.398
68.8026 1.619
68.8329 1.735
68.8632 2.008
68.8935 1.812
68.9237 1.877
68.9540 3.193
68.9843 1.644
69.0146 2.804
69.0448 2.714
69.0751 1.947
69.1054 3.108
69.1357 1.717
69.1660 0.690
69.1962 1.227
69.2265 1.452
69.2568 2.353
69.2871 1.120
69.3174 0.981
69.3476 0.790
69.3779 0.547
69.4082 0.826
69.4385 0.427
69.4687 0.446
69.4990 1.038
69.5293 0.901
69.5596 -0.330
69.5899 0.940
69.6201 0.179
69.6504 0.512
69.6807 -0.040
69.7110 0.502
69.7413 -0.310
69.7715 0.493
69.8018 0.254
69.8321 -0.140
69.8624 -0.013
69.8926 0.009
69.9229 0.033
69.9532 -0.048
69.9835 -0.024
70.0138 -0.260
70.0440 -0.082
70.0743 0.149
70.1046 0.380
70.1349 0.247
70.1652 -0.198
70.1954 -0.227
70.2257 0.006
70.2560 0.030
70.2863 -0.102
70.3166 -0.389
70.3468 0.136
70.3771 0.089
70.4074 0.458
70.4377 0.255
70.4679 -0.156
70.4982 0.319
70.5285 0.117
70.5588 0.748
70.5891 -0.078
70.6193 0.241
70.6496 -0.012
70.6799 0.256
70.7102 0.525
70.7405 0.429
70.7707 0.334
70.8010 -0.282
70.8313 -0.117
70.8616 0.101
70.8918 0.111
70.9221 0.225
70.9524 -0.285
70.9827 -0.183
71.0130 0.335
71.0432 0.438
71.0735 0.020
71.1038 -0.190
71.1341 -0.347
71.1644 0.381
71.1946 0.069
71.2249 0.121
71.2552 0.173
71.2855 0.486
71.3157 0.070
71.3460 0.436
71.3763 -0.396
71.4066 0.075
71.4369 0.025
71.4671 -0.285
71.4974 0.020
71.5277 0.117
71.5580 -0.359
71.5883 0.103
71.6185 0.201
71.6488 0.143
71.6791 -0.227
71.7094 0.340
71.7396 -0.029
71.7699 0.383
71.8002 -0.091
71.8305 -0.512
71.8608 0.214
71.8910 0.366
71.9213 0.103
71.9516 0.048
71.9819 -0.319
72.0122 0.251
72.0424 0.301
72.0727 -0.377
72.1030 0.246
72.1333 -0.328
72.1635 0.453
72.1938 -0.485
72.2241 0.087
72.2544 0.244
72.2847 0.244
72.3149 0.453
72.3452 0.246
72.3755 0.456
72.4058 0.301
72.4361 -0.009
72.4663 0.514
72.4966 0.933
72.5269 0.468
72.5572 0.210
72.5874 0.370
72.6177 0.374
72.6480 0.170
72.6783 0.435
72.7086 0.440
72.7388 0.184
72.7691 0.138
72.7994 0.300
72.8297 0.201
72.8600 0.260
72.8902 -0.359
72.9205 0.013
72.9508 0.124
72.9811 -0.076
73.0113 0.036
73.0416 0.200
73.0719 0.417
73.1022 0.061
73.1325 -0.190
73.1627 -0.233
73.1930 0.246
73.2233 0.309
73.2536 0.216
73.2839 0.175
73.3141 -0.074
73.3444 0.407
73.3747 0.159
73.4050 0.119
73.4353 -0.285
73.4655 -0.076
73.4958 0.238
73.5261 -0.073
73.5564 0.346
73.5866 0.400
73.6169 -0.223
73.6472 0.249
73.6775 -0.269
73.7078 -0.057
73.7380 0.259
73.7683 -0.466
73.7986 -0.202
73.8289 0.112
73.8592 0.009
73.8894 0.011
73.9197 0.221
73.9500 0.015
73.9803 -0.086
74.0105 0.281
74.0408 0.024
74.0711 -0.233
74.1014 0.024
74.1317 0.333
74.1619 -0.399
74.1922 -0.038
74.2225 0.429
74.2528 -0.043
74.2831 0.112
74.3133 0.110
74.3436 -0.047
74.3739 -0.153
74.4042 0.211
74.4344 -0.050
74.4647 -0.102
74.4950 -0.154
74.5253 -0.049
74.5556 0.525
74.5858 -0.047
74.6161 -0.202
74.6464 0.052
74.6767 -0.163
74.7070 0.092
74.7372 -0.122
74.7675 0.133
74.7978 -0.080
74.8281 -0.033
74.8583 0.171
74.8886 -0.302
74.9189 -0.045
74.9492 -0.049
74.9795 -0.208
75.0097 0.099
75.0400 -0.063
75.0703 0.036
75.1006 -0.229
75.1309 0.132
75.1611 -0.081
75.1914 -0.084
75.2217 0.016
75.2520 -0.195
75.2822 -0.198
75.3125 0.268
75.3428 0.475
75.3731 -0.309
75.4034 -0.154
75.4336 0.157
75.4639 0.313
75.4942 0.000
75.5245 0.156
75.5548 -0.105
75.5850 -0.157
75.6153 -0.156
75.6456 0.157
75.6759 0.107
75.7061 -0.152
75.7364 0.110
75.7667 -0.148
75.7970 0.271
75.8273 0.013
75.8575 -0.348
75.8878 0.645
75.9181 0.180
75.9484 0.288
75.9787 0.136
76.0089 -0.068
76.0392 0.406
76.0695 -0.110
76.0998 -0.208
76.1301 0.147
76.1603 0.087
76.1906 0.078
76.2209 -0.190
76.2512 -0.146
76.2814 -0.049
76.3117 0.413
76.3420 0.718
76.3723 0.451
76.4026 -0.024
76.4328 0.596
76.4631 0.486
76.4934 1.106
76.5237 0.163
76.5540 0.211
76.5842 0.988
76.6145 0.567
76.6448 1.032
76.6751 0.508
76.7053 0.400
76.7356 0.762
76.7659 0.812
76.7962 0.758
76.8265 0.600
76.8567 0.494
76.8870 0.180
76.9173 0.648
76.9476 0.439
76.9779 0.751
77.0081 -0.238
77.0384 0.751
77.0687 0.440
77.0990 0.440
77.1292 0.181
77.1595 0.495
77.1898 0.497
77.2201 0.083
77.2504 0.241
77.2806 0.140
77.3109 0.351
77.3412 0.251
77.3715 0.202
77.4018 0.050
77.4320 0.263
77.4623 0.163
77.4926 0.376
77.5229 0.069
77.5531 -0.238
77.5834 0.185
77.6137 -0.017
77.6440 0.041
77.6743 0.256
77.7045 0.263
77.7348 0.271
77.7651 -0.190
77.7954 0.078
77.8257 0.191
77.8559 -0.113
77.8862 -0.208
77.9165 0.103
77.9468 0.206
77.9770 0.100
78.0073 0.308
78.0376 -0.161
78.0679 -0.057
78.0982 -0.057
78.1284 0.465
78.1587 0.049
78.1890 -0.054
78.2193 0.260
78.2496 0.210
78.2798 0.160
78.3101 0.058
78.3404 0.113
78.3707 0.012
78.4009 -0.141
78.4312 0.331
78.4615 0.283
78.4918 0.340
78.5221 -0.124
78.5523 -0.015
78.5826 -0.166
78.6129 0.100
78.6432 0.158
78.6735 0.007
78.7037 -0.455
78.7340 0.073
78.7643 -0.285
78.7946 -0.026
78.8248 0.233
78.8551 -0.237
78.8854 0.231
78.9157 -0.239
78.9460 0.386
78.9762 0.230
79.0065 0.334
79.0368 0.231
79.0671 0.231
79.0974 -0.132
79.1276 -0.026
79.1579 -0.337
79.1882 0.076
79.2185 -0.291
79.2488 0.383
79.2790 0.328
79.3093 0.013
79.3396 0.168
79.3699 0.166
79.4001 0.060
79.4304 0.216
79.4607 -0.150
79.4910 0.110
79.5213 0.006
79.5515 -0.150
79.5818 -0.202
79.6121 0.007
79.6424 -0.201
79.6727 0.113
79.7029 0.166
79.7332 0.168
79.7635 -0.247
79.7938 0.120
79.8240 0.331
79.8543 -0.187
79.8846 0.128
79.9149 -0.233
79.9452 -0.075
79.9754 0.187
80.0057 -0.124
80.0360 0.347
80.0663 0.142
80.0966 0.405
80.1268 0.148
80.1571 0.255
80.1874 -0.210
80.2177 0.263
80.2479 0.215
80.2782 0.116
80.3085 -0.035
80.3388 -0.030
80.3691 -0.337
80.3993 0.073
80.4296 -0.142
80.4599 0.007
80.4902 -0.207
80.5205 0.151
80.5507 -0.011
80.5810 0.245
80.6113 0.240
80.6416 0.235
80.6718 0.230
80.7021 0.226
80.7324 0.587
80.7627 0.219
80.7930 0.164
80.8232 0.213
80.8535 0.002
80.8838 0.313
80.9141 0.259
80.9444 0.622
80.9746 0.308
81.0049 0.307
81.0352 0.046
81.0655 0.097
81.0957 0.254
81.1260 -0.059
81.1563 0.671
81.1866 0.099
81.2169 0.413
81.2471 -0.055
81.2774 -0.001
81.3077 0.210
81.3380 0.212
81.3683 0.267
81.3985 0.114
81.4288 0.117
81.4591 -0.088
81.4894 0.229
81.5196 1.431
81.5499 0.238
81.5802 -0.018
81.6105 -0.325
81.6408 0.149
81.6710 0.103
81.7013 0.265
81.7316 0.376
81.7619 0.018
81.7922 0.025
81.8224 0.136
81.8527 0.300
81.8830 0.256
81.9133 0.577
81.9436 0.065
81.9738 0.386
82.0041 -0.125
82.0344 -0.116
82.0647 -0.054
82.0949 0.581
82.1252 0.331
82.1555 0.394
82.1858 -0.064
82.2161 0.364
82.2463 0.115
82.2766 -0.133
82.3069 -0.173
82.3372 -0.079
82.3675 0.641
82.3977 0.423
82.4280 0.154
82.4583 0.614
82.4886 0.189
82.5188 0.233
82.5491 0.225
82.5794 -0.095
82.6097 -0.102
82.6400 -0.057
82.6702 -0.116
82.7005 0.243
82.7308 0.028
82.7611 0.231
82.7914 0.070
82.8216 0.273
82.8519 0.216
82.8822 0.055
82.9125 -0.157
82.9427 -0.057
82.9730 0.044
83.0033 0.197
83.0336 0.767
83.0639 -0.173
83.0941 0.137
83.1244 0.396
83.1547 -0.022
83.1850 0.237
83.2153 0.079
83.2455 -0.130
83.2758 0.130
83.3061 -0.182
83.3364 -0.182
83.3666 -0.025
83.3969 -0.233
83.4272 0.077
83.4575 0.231
83.4878 0.020
83.5180 0.279
83.5483 -0.296
83.5786 -0.141
83.6089 0.014
83.6392 -0.091
83.6694 0.013
83.6997 -0.091
83.7300 -0.195
83.7603 0.117
83.7905 0.169
83.8208 0.221
83.8511 0.013
83.8814 -0.195
83.9117 -0.195
83.9419 -0.039
83.9722 -0.195
84.0025 -0.041
84.0328 0.165
84.0631 0.060
84.0933 0.058
84.1236 0.109
84.1539 -0.152
84.1842 -0.205
84.2144 0.420
84.2447 -0.100
84.2750 0.213
84.3053 -0.412
84.3356 0.266
84.3658 0.007
84.3961 0.009
84.4264 -0.041
84.4567 -0.195
84.4870 -0.144
84.5172 0.220
84.5475 -0.041
84.5778 0.167
84.6081 0.115
84.6383 0.011
84.6686 -0.041
84.6989 0.012
84.7292 -0.195
84.7595 0.011
84.7897 0.268
84.8200 -0.099
84.8503 -0.049
84.8806 0.314
84.9109 0.000
84.9411 -0.157
84.9714 0.519
85.0017 -0.158
85.0320 0.258
85.0623 -0.210
85.0925 -0.053
85.1228 0.156
85.1531 -0.104
85.1834 0.262
85.2136 0.264
85.2439 -0.099
85.2742 0.268
85.3045 0.219
85.3348 0.170
85.3650 -0.088
85.3953 -0.396
85.4256 0.337
85.4559 -0.076
85.4862 0.033
85.5164 -0.015
85.5467 -0.062
85.5770 -0.108
85.6073 0.002
85.6375 0.581
85.6678 -0.194
85.6981 -0.188
85.7284 0.171
85.7587 0.218
85.7889 0.057
85.8192 0.156
85.8495 -0.004
85.8798 0.200
85.9101 -0.064
85.9403 0.037
85.9706 -0.018
86.0009 0.396
86.0312 -0.180
86.0614 -0.130
86.0917 -0.184
86.1220 0.179
86.1523 0.230
86.1826 0.125
86.2128 0.385
86.2431 0.124
86.2734 0.072
86.3037 -0.136
86.3340 -0.031
86.3642 0.282
86.3945 0.440
86.4248 0.285
86.4551 0.339
86.4853 -0.180
86.5156 0.291
86.5459 0.086
86.5762 -0.172
86.6065 0.092
86.6367 0.304
86.6670 -0.108
86.6973 0.000
86.7276 0.109
86.7579 0.062
86.7881 0.327
86.8184 -0.188
86.8487 -0.351
86.8790 0.320
86.9092 0.158
86.9395 0.256
86.9698 0.147
87.0001 -0.015
87.0304 0.189
87.0606 -0.180
87.0909 -0.184
87.1212 0.072
87.1515 -0.192
87.1818 -0.195
87.2120 0.167
87.2423 -0.147
87.2726 0.268
87.3029 0.214
87.3331 0.161
87.3634 0.420
87.3937 -0.309
87.4240 0.055
87.4543 -0.101
87.4845 0.264
87.5148 0.160
87.5451 0.213
87.5754 0.110
87.6057 -0.044
87.6359 0.218
87.6662 0.220
87.6965 0.015
87.7268 0.278
87.7571 -0.084
87.7873 -0.028
87.8176 -0.493
87.8479 0.081
87.8782 -0.022
87.9084 0.084
87.9387 0.451
87.9690 0.089
87.9993 0.717
88.0296 -0.009
88.0598 0.306
88.0901 -0.054
88.1204 0.262
88.1507 0.058
88.1810 0.167
88.2112 0.015
88.2415 -0.188
88.2718 -0.047
88.3021 0.042
88.3323 0.028
88.3626 0.534
88.3929 0.104
88.4232 0.402
88.4535 0.337
88.4837 -0.041
88.5140 -0.106
88.5443 0.455
88.5746 0.286
88.6049 0.066
88.6351 0.263
88.6654 0.200
88.6957 0.397
88.7260 0.126
88.7562 0.584
88.7865 -0.051
88.8168 0.565
88.8471 0.503
88.8774 -0.027
88.9076 0.590
88.9379 0.060
88.9682 0.625
88.9985 0.513
89.0288 0.714
89.0590 0.290
89.0893 0.231
89.1196 0.485
89.1499 0.583
89.1801 0.941
89.2104 0.936
89.2407 0.670
89.2710 1.238
89.3013 0.920
89.3315 1.124
89.3618 0.026
89.3921 0.908
89.4224 0.696
89.4527 1.370
89.4829 1.419
89.5132 1.521
89.5435 1.154
89.5738 0.944
89.6040 0.838
89.6343 0.732
89.6646 1.252
89.6949 0.991
89.7252 1.355
89.7554 0.782
89.7857 1.251
89.8160 0.470
89.8463 0.940
89.8766 0.941
89.9068 1.046
89.9371 1.256
89.9674 0.060
89.9977 0.375
90.0279 0.170
90.0582 0.016
90.0885 -0.032
90.1188 0.232
90.1491 0.131
90.1793 -0.073
90.2096 0.088
90.2399 0.301
90.2702 0.462
90.3005 0.051
90.3307 0.421
90.3610 0.428
90.3913 0.434
90.4216 -0.028
90.4518 0.031
90.4821 0.038
90.5124 0.671
90.5427 -0.103
90.5730 0.270
90.6032 -0.138
90.6335 0.235
90.6638 0.088
90.6941 -0.215
90.7244 -0.169
90.7546 -0.070
90.7849 -0.075
90.8152 -0.080
90.8455 -0.137
90.8758 0.067
90.9060 0.011
90.9363 0.059
90.9666 -0.048
90.9969 0.053
91.0271 -0.054
91.0574 0.777
91.0877 0.046
91.1180 0.356
91.1483 -0.114
91.1785 0.093
91.2088 0.144
91.2391 0.144
91.2694 0.195
91.2997 0.039
91.3299 -0.221
91.3602 -0.014
91.3905 -0.118
91.4208 0.038
91.4510 -0.014
91.4813 -0.170
91.5116 -0.170
91.5419 -0.221
91.5722 -0.221
91.6024 0.139
91.6327 -0.335
91.6630 -0.079
91.6933 -0.083
91.7236 0.226
91.7538 -0.194
91.7841 -0.093
91.8144 -0.096
91.8447 0.162
91.8749 0.316
91.9052 0.002
91.9355 0.000
91.9658 -0.209
91.9961 -0.210
92.0263 -0.159
92.0566 -0.003
92.0869 0.049
92.1172 0.779
92.1475 -0.002
92.1777 -0.418
92.2080 0.260
92.2383 -0.311
92.2686 -0.207
92.2988 0.470
92.3291 0.522
92.3594 0.002
92.3897 0.211
92.4200 0.004
92.4502 -0.047
92.4805 0.059
92.5108 0.217
92.5411 0.324
92.5714 0.535
92.6016 0.225
92.6319 0.645
92.6622 0.545
92.6925 -0.128
92.7227 0.397
92.7530 0.245
92.7833 0.615
92.8136 0.047
92.8439 0.417
92.8741 0.423
92.9044 0.585
92.9347 0.591
92.9650 0.702
92.9953 0.241
93.0255 0.092
93.0558 0.308
93.0861 0.211
93.1164 0.636
93.1466 0.332
93.1769 -0.232
93.2072 0.194
93.2375 0.099
93.2678 0.161
93.2980 0.067
93.3283 0.286
93.3586 0.193
93.3889 -0.109
93.4192 -0.202
93.4494 0.013
93.4797 0.176
93.5100 0.131
93.5403 0.294
93.5706 0.302
93.6008 -0.003
93.6311 -0.151
93.6614 -0.195
93.6917 0.104
93.7219 0.090
93.7522 0.285
93.7825 -0.093
93.8128 0.259
93.8431 -0.014
93.8733 0.442
93.9036 -0.247
93.9339 0.210
93.9642 0.095
93.9945 0.240
94.0247 -0.135
94.0550 -0.042
94.0853 0.052
94.1156 0.407
94.1458 0.033
94.1761 0.180
94.2064 0.119
94.2367 0.111
94.2670 0.311
94.2972 0.095
94.3275 0.191
94.3578 0.080
94.3881 0.125
94.4184 0.222
94.4486 0.060
94.4789 -0.363
94.5092 -0.008
94.5395 -0.070
94.5697 0.233
94.6000 0.380
94.6303 0.111
94.6606 0.467
94.6909 0.146
94.7211 0.295
94.7514 0.287
94.7817 0.749
94.8120 0.950
94.8423 0.683
94.8725 1.042
94.9028 0.254
94.9331 0.770
94.9634 1.389
94.9936 0.134
95.0239 1.223
95.0542 0.906
95.0845 0.694
95.1148 0.898
95.1450 1.051
95.1753 1.621
95.2056 1.201
95.2359 1.355
95.2662 0.155
95.2964 0.778
95.3267 0.880
95.3570 1.139
95.3873 0.722
95.4175 1.711
95.4478 0.721
95.4781 -0.061
95.5084 1.033
95.5387 0.409
95.5689 1.139
95.5992 0.411
95.6295 0.568
95.6598 0.518
95.6901 0.051
95.7203 0.574
95.7506 0.629
95.7809 0.580
95.8112 0.427
95.8414 0.014
95.8717 -0.086
95.9020 0.074
95.9323 -0.077
95.9626 -0.125
95.9928 -0.224
96.0231 0.146
96.0534 0.152
96.0837 -0.050
96.1140 0.165
96.1442 -0.402
96.1745 0.230
96.2048 -0.023
96.2351 0.297
96.2653 -0.059
96.2956 0.209
96.3259 -0.095
96.3562 0.070
96.3865 -0.233
96.4167 -0.018
96.4470 0.094
96.4773 -0.159
96.5076 -0.308
96.5379 0.325
96.5681 -0.187
96.5984 -0.127
96.6287 0.195
96.6590 -0.004
96.6893 -0.203
96.7195 -0.037
96.7498 0.077
96.7801 -0.225
96.8104 -0.005
96.8406 0.370
96.8709 0.278
96.9012 0.185
96.9315 0.041
96.9618 0.418
96.9920 -0.299
97.0223 0.027
97.0526 0.144
97.0829 -0.259
97.1132 -0.106
97.1434 -0.110
97.1737 -0.061
97.2040 0.509
97.2343 -0.171
97.2645 0.087
97.2948 0.241
97.3251 0.292
97.3554 0.030
97.3857 -0.128
97.4159 0.132
97.4462 0.184
97.4765 0.235
97.5068 0.184
97.5371 -0.233
97.5673 -0.139
97.5976 0.425
97.6279 0.259
97.6582 0.198
97.6884 -0.019
97.7187 0.493
97.7490 -0.088
97.7793 0.373
97.8096 -0.051
97.8398 0.254
97.8701 -0.013
97.9004 0.189
97.9307 0.234
97.9610 0.072
97.9912 0.275
98.0215 0.113
98.0518 0.108
98.0821 0.051
98.1123 0.255
98.1426 0.043
98.1729 0.560
98.2032 -0.017
98.2335 -0.020
98.2637 -0.023
98.2940 0.652
98.3243 0.181
98.3546 0.439
98.3849 0.594
98.4151 0.592
98.4454 0.643
98.4757 0.174
98.5060 0.642
98.5362 0.538
98.5665 0.434
98.5968 0.382
98.6271 0.227
98.6574 0.957
98.6876 0.646
98.7179 0.335
98.7482 0.702
98.7785 0.704
98.8088 0.343
98.8390 0.033
98.8693 0.193
98.8996 1.238
98.9299 0.669
98.9601 0.517
98.9904 0.573
99.0207 -0.151
99.0510 0.375
99.0813 0.016
99.1115 0.022
99.1418 -0.389
99.1721 0.029
99.2024 -0.333
99.2327 0.138
99.2629 -0.380
99.2932 0.508
99.3235 0.042
99.3538 0.202
99.3841 -0.158
99.4143 -0.102
99.4446 0.215
99.4749 -0.093
99.5052 -0.088
99.5354 0.178
99.5657 -0.025
99.5960 0.398
99.6263 -0.273
99.6566 0.359
99.6868 0.158
99.7171 -0.252
99.7474 0.016
99.7777 -0.028
99.8080 -0.489
99.8382 0.301
99.8685 -0.002
99.8988 -0.202
99.9291 -0.047
99.9593 0.421
99.9896 -0.257
100.0199 0.108
100.0502 0.264
100.0805 -0.204
100.1107 0.109
100.1410 -0.047
100.1713 -0.202
100.2016 -0.204
100.2319 0.470
100.2621 0.468
100.2924 -0.210
100.3227 -0.056
100.3530 0.100
100.3832 0.359
100.4135 0.098
100.4438 0.411
100.4741 -0.006
100.5044 0.099
100.5346 -0.004
100.5649 -0.056
100.5952 -0.054
100.6255 -0.157
100.6558 -0.050
100.6860 0.056
100.7163 -0.202
100.7466 -0.105
100.7769 -0.061
100.8071 0.141
100.8374 -0.231
100.8677 0.023
100.8980 0.017
100.9283 0.323
100.9585 -0.047
100.9888 -0.208
101.0191 -0.111
101.0494 -0.117
101.0797 0.085
101.1099 -0.285
101.1402 -0.032
101.1705 0.012
101.2008 0.057
101.2310 0.207
101.2613 -0.373
101.2916 0.090
101.3219 -0.124
101.3522 0.287
101.3824 0.125
101.4127 0.120
101.4430 0.220
101.4733 -0.097
101.5036 0.368
101.5338 -0.105
101.5641 -0.004
101.5944 0.045
101.6247 0.198
101.6549 -0.221
101.6852 -0.279
101.7155 0.288
101.7458 0.178
101.7761 0.017
101.8063 -0.092
101.8366 0.059
101.8669 0.055
101.8972 -0.157
101.9275 -0.005
101.9577 -0.060
101.9880 -0.167
102.0183 -0.326
102.0486 0.348
102.0788 -0.227
102.1091 0.344
102.1394 -0.022
102.1697 -0.127
102.2000 0.341
102.2302 -0.389
102.2605 0.132
102.2908 -0.285
102.3211 -0.091
102.3514 -0.209
102.3816 -0.119
102.4119 0.284
102.4422 -0.094
102.4725 0.050
102.5028 0.194
102.5330 0.025
102.5633 0.274
102.5936 0.522
102.6239 -0.062
102.6541 -0.229
102.6844 0.229
102.7147 0.010
102.7450 0.312
102.7753 0.094
102.8055 -0.071
102.8358 0.492
102.8661 0.484
102.8964 0.215
102.9267 -0.054
102.9569 -0.062
102.9872 0.139
103.0175 -0.025
103.0478 0.541
103.0780 0.326
103.1083 -0.045
103.1386 0.522
103.1689 -0.161
103.1992 0.146
103.2294 0.453
103.2597 0.813
103.2900 0.027
103.3203 0.388
103.3506 -0.137
103.3808 0.068
103.4111 -0.092
103.4414 0.478
103.4717 0.111
103.5019 0.369
103.5322 0.106
103.5625 -0.156
103.5928 0.364
103.6231 -0.158
103.6533 -0.211
103.6836 -0.160
103.7139 -0.212
103.7442 -0.212
103.7745 0.101
103.8047 0.154
103.8350 0.155
103.8653 0.417
103.8956 0.783
103.9258 0.524
103.9561 1.360
103.9864 0.581
104.0167 0.636
104.0470 -0.142
104.0772 0.903
104.1075 0.490
104.1378 0.703
104.1681 0.239
104.1984 0.972
104.2286 0.561
104.2589 0.045
104.2892 0.780
104.3195 0.942
104.3497 0.584
104.3800 -0.087
104.4103 0.441
104.4406 0.188
104.4709 0.143
104.5011 0.568
104.5314 0.524
104.5617 0.689
104.5920 0.072
104.6223 0.446
104.6525 0.612
104.6828 0.153
104.7131 -0.150
104.7434 0.485
104.7736 0.131
104.8039 0.403
104.8342 -0.055
104.8645 -0.148
104.8948 -0.084
104.9250 0.553
104.9553 0.253
104.9856 -0.411
105.0159 0.071
105.0462 -0.332
105.0764 0.202
105.1067 -0.148
105.1370 0.699
105.1673 -0.224
105.1975 0.520
105.2278 0.327
105.2581 -0.022
105.2884 0.046
105.3187 0.479
105.3489 -0.025
105.3792 -0.113
105.4095 0.008
105.4398 -0.130
105.4701 0.096
105.5003 -0.043
105.5306 -0.285
105.5609 0.076
105.5912 -0.188
105.6215 0.069
105.6517 -0.246
105.6820 0.428
105.7123 -0.147
105.7426 0.111
105.7728 -0.047
105.8031 0.056
105.8334 -0.049
105.8637 -0.207
105.8940 0.001
105.9242 0.314
105.9545 -0.051
105.9848 -0.363
106.0151 0.105
106.0454 -0.051
106.0756 0.053
106.1059 0.105
106.1362 0.315
106.1665 -0.153
106.1967 0.265
106.2270 0.527
106.2573 0.216
106.2876 0.062
106.3179 0.273
106.3481 -0.141
106.3784 0.435
106.4087 -0.082
106.4390 0.182
106.4693 0.343
106.4995 0.191
106.5298 -0.013
106.5601 0.044
106.5904 0.779
106.6206 0.003
106.6509 0.790
106.6812 -0.089
106.7115 0.282
106.7418 0.185
106.7720 0.192
106.8023 -0.009
106.8326 -0.261
106.8629 0.632
106.8932 0.432
106.9234 0.389
106.9537 0.450
106.9840 0.251
107.0143 0.573
107.0445 -0.250
107.0748 -0.188
107.1051 0.009
107.1354 0.153
107.1657 0.038
107.1959 -0.233
107.2262 0.642
107.2565 0.840
107.2868 0.517
107.3171 0.247
107.3473 0.811
107.3776 0.177
107.4079 -0.040
107.4382 0.160
107.4684 0.100
107.4987 0.248
107.5290 0.397
107.5593 0.494
107.5896 0.331
107.6198 0.064
107.6501 0.422
107.6804 -0.001
107.7107 0.046
107.7410 -0.064
107.7712 -0.069
107.8015 -0.178
107.8318 0.495
107.8621 0.283
107.8923 0.331
107.9226 0.015
107.9529 0.064
107.9832 0.217
108.0135 0.215
108.0437 -0.204
108.0740 0.263
108.1043 0.053
108.1346 0.208
108.1649 0.103
108.1951 0.206
108.2254 0.154
108.2557 -0.055
108.2860 0.310
108.3163 -0.054
108.3465 -0.053
108.3768 -0.052
108.4071 -0.259
108.4374 0.108
108.4676 0.268
108.4979 -0.042
108.5282 -0.194
108.5585 -0.295
108.5888 0.283
108.6190 -0.130
108.6493 -0.125
108.6796 0.349
108.7099 -0.218
108.7402 0.048
108.7704 -0.363
108.8007 -0.007
108.8310 -0.171
108.8613 0.081
108.8915 0.074
108.9218 0.119
108.9521 -0.148
108.9824 0.366
109.0127 -0.317
109.0429 0.145
109.0732 -0.173
109.1035 -0.022
109.1338 0.494
109.1641 -0.188
109.1943 0.277
109.2246 0.116
109.2549 -0.096
109.2852 -0.152
109.3154 0.574
109.3457 -0.105
109.3760 -0.004
109.4063 0.202
109.4366 0.565
109.4668 0.355
109.4971 0.249
109.5274 -0.116
109.5577 -0.221
109.5880 -0.070
109.6182 0.028
109.6485 -0.133
109.6788 0.279
109.7091 -0.090
109.7393 0.062
109.7696 0.371
109.7999 0.263
109.8302 0.156
109.8605 0.049
109.8907 0.359
109.9210 0.200
109.9513 0.146
109.9816 0.405
110.0119 0.612
110.0421 -0.170
110.0724 0.090
110.1027 0.089
110.1330 0.818
110.1632 0.350
110.1935 0.767
110.2238 0.091
110.2541 0.300
110.2844 0.249
110.3146 0.095
110.3449 0.305
110.3752 0.776
110.4055 0.571
110.4358 0.834
110.4660 0.421
110.4963 -0.305
110.5266 0.428
110.5569 0.485
110.5871 0.437
110.6174 0.598
110.6477 -0.178
110.6780 -0.016
110.7083 0.302
110.7385 0.100
110.7688 0.210
110.7991 0.478
110.8294 -0.088
110.8597 -0.446
110.8899 0.447
110.9202 -0.066
110.9505 0.151
110.9808 0.628
111.0110 0.429
111.0413 -0.291
111.0716 0.343
111.1019 -0.064
111.1322 0.051
111.1624 0.269
111.1927 0.280
111.2230 0.291
111.2533 -0.062
111.2836 -0.415
111.3138 0.113
111.3441 0.068
111.3744 0.023
111.4047 -0.021
111.4350 0.456
111.4652 0.360
111.4955 -0.152
111.5258 -0.195
111.5561 0.161
111.5863 0.101
111.6166 0.249
111.6469 0.554
111.6772 0.131
111.7075 0.019
111.7377 0.013
111.7680 -0.098
111.7983 0.209
111.8286 0.255
111.8589 0.146
111.8891 -0.015
111.9194 0.657
111.9497 0.288
111.9800 0.075
112.0102 -0.085
112.0405 0.276
112.0708 -0.196
112.1011 -0.198
112.1314 -0.045
112.1616 -0.203
112.1919 0.107
112.2222 -0.051
112.2525 -0.208
112.2828 0.103
112.3130 0.311
112.3433 -0.366
112.3736 0.363
112.4039 -0.053
112.4341 -0.208
112.4644 0.101
112.4947 -0.006
112.5250 0.147
112.5553 -0.012
112.5855 -0.066
112.6158 0.401
112.6461 0.139
112.6764 0.346
112.7067 -0.019
112.7369 0.397
112.7672 -0.125
112.7975 -0.020
112.8278 -0.072
112.8580 -0.176
112.8883 -0.071
112.9186 0.087
112.9489 0.297
112.9792 0.663
113.0094 -0.012
113.0397 0.043
113.0700 0.254
113.1003 0.205
113.1306 0.312
113.1608 -0.205
113.1911 0.164
113.2214 0.064
113.2517 0.225
113.2819 0.074
113.3122 0.287
113.3425 0.189
113.3728 -0.170
113.4031 -0.164
113.4333 0.155
113.4636 0.058
113.4939 0.117
113.5242 0.228
113.5545 -0.285
113.5847 -0.190
113.6150 0.270
113.6453 0.210
113.6756 -0.111
113.7058 0.142
113.7361 0.030
113.7664 0.023
113.7967 -0.089
113.8270 -0.147
113.8572 0.055
113.8875 0.257
113.9178 -0.165
113.9481 -0.067
113.9784 0.397
114.0086 -0.076
114.0389 0.179
114.0692 -0.033
114.0995 -0.193
114.1298 0.168
114.1600 -0.252
114.1903 -0.047
114.2206 0.263
114.2509 -0.156
114.2811 -0.001
114.3114 0.413
114.3417 -0.057
114.3720 0.046
114.4023 -0.163
114.4325 -0.007
114.4628 0.358
114.4931 -0.163
114.5234 -0.215
114.5537 0.193
114.5839 0.340
114.6142 0.332
114.6445 -0.145
114.6748 -0.101
114.7050 -0.056
114.7353 0.249
114.7656 -0.070
114.7959 0.288
114.8262 0.073
114.8564 0.171
114.8867 -0.199
114.9170 0.056
114.9473 0.260
114.9776 0.151
115.0078 0.250
115.0381 0.090
115.0684 -0.122
115.0987 -0.126
115.1289 -0.337
115.1592 0.172
115.1895 -0.153
115.2198 0.200
115.2501 0.189
115.2803 -0.187
115.3106 0.167
115.3409 -0.104
115.3712 0.146
115.4015 0.032
115.4317 -0.185
115.4620 0.535
115.4923 0.057
115.5226 0.205
115.5528 -0.377
115.5831 0.032
115.6134 0.493
115.6437 0.486
115.6740 -0.042
115.7042 -0.153
115.7345 0.466
115.7648 0.095
115.7951 0.766
115.8254 0.448
115.8556 -0.130
115.8859 0.803
115.9162 0.434
115.9465 0.534
115.9767 0.634
116.0070 0.734
116.0373 0.992
116.0676 0.468
116.0979 0.777
116.1281 0.202
116.1584 0.981
116.1887 0.459
116.2190 0.666
116.2493 0.821
116.2795 1.080
116.3098 0.663
116.3401 0.298
116.3704 1.027
116.4006 0.559
116.4309 0.664
116.4612 1.290
116.4915 0.510
116.5218 0.460
116.5520 1.555
116.5823 0.776
116.6126 0.883
116.6429 0.521
116.6732 0.681
116.7034 -0.358
116.7337 0.323
116.7640 0.327
116.7943 0.332
116.8245 0.336
116.8548 0.029
116.8851 0.399
116.9154 -0.220
116.9457 -0.215
116.9759 0.469
117.0062 -0.098
117.0365 0.222
117.0668 -0.240
117.0971 0.236
117.1273 0.140
117.1576 -0.112
117.1879 0.105
117.2182 0.009
117.2485 -0.138
117.2787 -0.493
117.3090 0.191
117.3393 -0.114
117.3696 0.155
117.3998 -0.097
117.4301 -0.349
117.4604 0.181
117.4907 0.295
117.5210 -0.112
117.5512 -0.050
117.5815 -0.144
117.6118 0.023
117.6421 -0.227
117.6724 -0.007
117.7026 -0.152
117.7329 0.849
117.7632 -0.284
117.7935 0.093
117.8237 -0.259
117.8540 -0.040
117.8843 0.492
117.9146 -0.539
117.9449 -0.215
117.9751 0.105
118.0054 0.061
118.0357 0.174
118.0660 0.287
118.0963 0.191
118.1265 0.096
118.1568 -0.259
118.1871 -0.047
118.2174 0.269
118.2476 0.794
118.2779 0.277
118.3082 0.490
118.3385 0.339
118.3688 0.136
118.3990 -0.171
118.4293 0.199
118.4596 -0.160
118.4899 0.107
118.5202 0.322
118.5504 0.486
118.5807 0.389
118.6110 0.084
118.6413 0.040
118.6715 0.361
118.7018 -0.464
118.7321 -0.195
118.7624 -0.089
118.7927 0.382
118.8229 -0.032
118.8532 -0.081
118.8835 0.391
118.9138 0.030
118.9441 0.346
118.9743 0.402
119.0046 0.094
119.0349 0.203
119.0652 0.416
119.0954 0.109
119.1257 0.011
119.1560 0.121
119.1863 0.023
119.2166 0.654
119.2468 -0.016
119.2771 0.304
119.3074 0.728
119.3377 0.475
119.3680 0.067
119.3982 0.492
119.4285 0.709
119.4588 0.510
119.4891 0.311
119.5193 0.164
119.5496 -0.139
119.5799 -0.180
119.6102 0.158
119.6405 0.339
119.6707 0.209
119.7010 0.183
119.7313 -0.415
119.7616 -0.110
119.7919 0.508
119.8221 0.762
119.8524 0.183
119.8827 -0.031
119.9130 0.432
119.9433 -0.199
119.9735 0.109
120.0038 0.000
