'Id: "" Comment: "" Operator: "Lab Manager" Anode: "Cu" Scantype: "Locked Coupled" TimePerStep: "19.2" X: "9999" Y: "9999" Z: "9999" 
10.0015 0.000
10.0318 0.352
10.0620 -0.702
10.0923 -0.501
10.1226 0.846
10.1529 0.110
10.1832 -0.469
10.2134 -0.007
10.2437 0.405
10.2740 0.087
10.3043 -0.022
10.3346 -0.391
10.3648 -0.344
10.3951 0.226
10.4254 0.066
10.4557 0.375
10.4859 -0.773
10.5162 0.370
10.5465 -0.049
10.5768 -0.102
10.6071 -0.677
10.6373 0.520
10.6676 -0.574
10.6979 0.259
10.7282 0.207
10.7585 -0.782
10.7887 -0.104
10.8190 -0.468
10.8493 0.211
10.8796 -0.516
10.9098 0.684
10.9401 0.218
10.9704 0.429
11.0007 0.328
11.0310 0.071
11.0612 -0.289
11.0915 0.653
11.1218 0.085
11.1521 -0.483
11.1824 0.616
11.2126 0.049
11.2429 0.888
11.2732 0.114
11.3035 -0.192
11.3337 0.232
11.3640 0.708
11.3943 -0.273
11.4246 0.204
11.4549 -0.152
11.4851 0.430
11.5154 -0.915
11.5457 -0.280
11.5760 -0.114
11.6063 -0.780
11.6365 0.163
11.6668 -0.507
11.6971 0.073
11.7274 0.653
11.7577 0.348
11.7879 -0.633
11.8182 -0.104
11.8485 0.478
11.8788 0.539
11.9090 -0.025
11.9393 0.089
11.9696 0.412
11.9999 0.110
12.0302 0.277
12.0604 0.601
12.0907 0.196
12.1210 0.000
12.1513 0.324
12.1816 -0.132
12.2118 -0.431
12.2421 0.468
12.2724 0.169
12.3027 -0.806
12.3329 -0.134
12.3632 -0.295
12.3935 0.222
12.4238 -0.251
12.4541 -0.046
12.4843 0.003
12.5146 0.157
12.5449 0.363
12.5752 -0.108
12.6055 0.724
12.6357 -0.475
12.6660 1.243
12.6963 -0.581
12.7266 0.565
12.7568 0.409
12.7871 -0.164
12.8174 0.045
12.8477 0.307
12.8780 0.777
12.9082 0.259
12.9385 0.365
12.9688 -0.413
12.9991 0.058
13.0294 -0.095
13.0596 -0.247
13.0899 -0.087
13.1202 -0.134
13.1505 0.339
13.1807 0.501
13.2110 0.298
13.2413 -0.425
13.2716 0.310
13.3019 -0.517
13.3321 -0.197
13.3624 0.122
13.3927 -0.078
13.4230 -0.070
13.4533 0.615
13.4835 0.520
13.5138 -0.304
13.5441 -0.034
13.5744 0.288
13.6046 0.142
13.6349 -0.160
13.6652 0.944
13.6955 0.591
13.7258 -0.387
13.7560 -0.167
13.7863 -0.258
13.8166 -0.246
13.8469 0.288
13.8772 -0.376
13.9074 -0.642
13.9377 0.812
13.9680 -0.183
13.9983 0.125
14.0285 -0.296
14.0588 0.482
14.0891 0.270
14.1194 0.163
14.1497 0.525
14.1799 -0.259
14.2102 -0.313
14.2405 -0.263
14.2708 0.153
14.3011 -0.317
14.3313 -0.266
14.3616 0.047
14.3919 0.516
14.4222 0.412
14.4524 -0.212
14.4827 -0.367
14.5130 -0.314
14.5433 0.417
14.5736 -0.101
14.6038 0.943
14.6341 -0.148
14.6644 0.377
14.6947 -0.505
14.7250 -0.032
14.7552 0.076
14.7855 0.654
14.8158 0.347
14.8461 -0.533
14.8764 0.045
14.9066 1.250
14.9369 -0.098
14.9672 -0.195
14.9975 -0.084
15.0277 -0.024
15.0580 -0.224
15.0883 0.201
15.1186 -0.728
15.1489 -0.154
15.1791 0.265
15.2094 0.007
15.2397 -0.199
15.2700 0.169
15.3003 0.016
15.3305 0.488
15.3608 0.232
15.3911 0.132
15.4214 0.606
15.4516 -0.274
15.4819 0.669
15.5122 0.206
15.5425 0.524
15.5728 1.104
15.6030 -1.077
15.6333 0.337
15.6636 0.293
15.6939 0.665
15.7242 -0.108
15.7544 0.370
15.7847 0.483
15.8150 0.805
15.8453 0.242
15.8755 0.408
15.9058 0.315
15.9361 0.482
15.9664 -0.028
15.9967 0.244
16.0269 0.464
16.0572 -0.409
16.0875 -0.136
16.1178 -0.227
16.1481 -0.057
16.1783 0.738
16.2086 -0.602
16.2389 0.141
16.2692 0.052
16.2994 -0.349
16.3297 -0.047
16.3600 0.724
16.3903 0.558
16.4206 0.548
16.4508 0.539
16.4811 -0.511
16.5114 0.418
16.5417 0.671
16.5720 0.507
16.6022 -0.386
16.6325 -0.028
16.6628 1.007
16.6931 1.417
16.7233 0.005
16.7536 0.208
16.7839 0.047
16.8142 0.302
16.8445 -0.171
16.8747 -0.331
16.9050 0.863
16.9353 0.183
16.9656 0.336
16.9959 0.334
17.0261 0.592
17.0564 0.434
17.0867 0.172
17.1170 -0.142
17.1472 0.170
17.1775 0.950
17.2078 -0.091
17.2381 0.690
17.2684 0.587
17.2986 0.015
17.3289 0.589
17.3592 0.747
17.3895 0.436
17.4198 0.074
17.4500 0.598
17.4803 0.445
17.5106 0.031
17.5409 -0.069
17.5712 0.143
17.6014 0.096
17.6317 0.049
17.6620 0.158
17.6923 -0.357
17.7225 -0.145
17.7528 0.433
17.7831 1.063
17.8134 0.026
17.8437 0.136
17.8739 -0.379
17.9042 1.086
17.9345 0.103
17.9648 0.839
17.9951 0.221
18.0253 0.125
18.0556 0.029
18.0859 1.079
18.1162 0.098
18.1464 0.316
18.1767 0.794
18.2070 0.439
18.2373 0.033
18.2676 0.616
18.2978 1.044
18.3281 0.274
18.3584 0.286
18.3887 1.131
18.4190 0.831
18.4492 0.843
18.4795 0.232
18.5098 0.870
18.5401 -0.210
18.5703 -0.248
18.6006 -0.650
18.6309 0.276
18.6612 -0.412
18.6915 0.255
18.7217 0.921
18.7520 0.130
18.7823 0.746
18.8126 0.164
18.8429 0.467
18.8731 0.094
18.9034 0.399
18.9337 0.599
18.9640 0.383
18.9942 -0.196
19.0245 1.255
19.0548 0.051
19.0851 -0.059
19.1154 0.300
19.1456 0.399
19.1759 -0.804
19.2062 0.962
19.2365 0.437
19.2668 1.267
19.2970 0.430
19.3273 -0.042
19.3576 0.268
19.3879 0.265
19.4181 0.472
19.4484 -0.311
19.4787 -0.104
19.5090 0.051
19.5393 0.050
19.5695 0.727
19.5998 0.467
19.6301 0.207
19.6604 0.104
19.6907 0.365
19.7209 0.054
19.7512 0.785
19.7815 -0.150
19.8118 0.790
19.8420 -0.040
19.8723 -0.349
19.9026 -0.086
19.9329 0.283
19.9632 -0.130
19.9934 0.551
20.0237 0.296
20.0540 0.092
20.0843 -0.371
20.1146 0.364
20.1448 0.162
20.1751 -0.300
20.2054 -0.345
20.2357 -0.294
20.2659 0.123
20.2962 0.280
20.3265 -0.292
20.3568 -0.655
20.3871 0.753
20.4173 0.129
20.4476 -0.024
20.4779 0.447
20.5082 0.658
20.5385 0.245
20.5687 0.926
20.5990 1.451
20.6293 -0.159
20.6596 0.158
20.6899 0.007
20.7201 -0.092
20.7504 -0.138
20.7807 1.170
20.8110 0.292
20.8412 0.090
20.8715 0.045
20.9018 -0.468
20.9321 0.004
20.9624 0.111
20.9926 0.062
21.0229 0.118
21.0532 0.539
21.0835 0.283
21.1138 0.757
21.1440 0.137
21.1743 0.663
21.2046 1.450
21.2349 0.207
21.2651 0.370
21.2954 -0.040
21.3257 -0.033
21.3560 -0.702
21.3863 0.079
21.4165 0.600
21.4468 -0.129
21.4771 -0.024
21.5074 0.446
21.5377 0.135
21.5679 0.033
21.5982 0.713
21.6285 0.767
21.6588 0.302
21.6890 0.201
21.7193 0.777
21.7496 -0.156
21.7799 0.838
21.8102 -0.251
21.8404 0.015
21.8707 0.437
21.9010 1.120
21.9313 0.345
21.9616 0.820
21.9918 0.202
22.0221 -0.468
22.0524 -0.163
22.0827 0.664
22.1129 -0.229
22.1432 -0.339
22.1735 0.801
22.2038 1.420
22.2341 -0.096
22.2643 0.055
22.2946 -0.053
22.3249 0.828
22.3552 0.772
22.3855 -0.326
22.4157 1.182
22.4460 0.554
22.4763 0.760
22.5066 -0.284
22.5368 0.235
22.5671 0.494
22.5974 0.180
22.6277 -0.237
22.6580 0.075
22.6882 0.492
22.7185 0.700
22.7488 0.128
22.7791 0.598
22.8094 0.287
22.8396 -0.076
22.8699 0.604
22.9002 0.814
22.9305 0.921
22.9607 1.133
22.9910 0.303
23.0213 0.568
23.0516 0.259
23.0819 0.681
23.1121 0.738
23.1424 0.535
23.1727 0.749
23.2030 0.338
23.2333 0.032
23.2635 0.612
23.2938 0.932
23.3241 1.095
23.3544 0.635
23.3846 0.591
23.4149 0.443
23.4452 0.400
23.4755 0.357
23.5058 -0.258
23.5360 0.325
23.5663 0.491
23.5966 -0.071
23.6269 0.774
23.6572 -0.621
23.6874 0.536
23.7177 0.705
23.7480 0.040
23.7783 -0.728
23.8086 -0.001
23.8388 -0.159
23.8691 -0.316
23.8994 0.152
23.9297 0.881
23.9599 0.100
23.9902 0.933
24.0205 0.569
24.0508 0.206
24.0811 0.467
24.1113 0.469
24.1416 0.680
24.1719 0.005
24.2022 -0.096
24.2325 0.167
24.2627 0.067
24.2930 0.383
24.3233 -0.030
24.3536 -0.546
24.3838 0.068
24.4141 0.682
24.4444 0.828
24.4747 0.662
24.5050 1.121
24.5352 0.747
24.5655 0.842
24.5958 -0.208
24.6261 0.356
24.6564 -0.172
24.6866 0.393
24.7169 0.646
24.7472 1.056
24.7775 0.112
24.8077 0.366
24.8380 0.465
24.8683 0.043
24.8986 0.819
24.9289 -0.228
24.9591 0.601
24.9894 0.754
25.0197 0.385
25.0500 0.382
25.0803 0.067
25.1105 0.168
25.1408 0.583
25.1711 1.310
25.2014 -0.150
25.2316 -0.359
25.2619 0.369
25.2922 0.056
25.3225 0.577
25.3528 0.109
25.3830 -0.516
25.4133 0.319
25.4436 0.737
25.4739 1.051
25.5042 0.428
25.5344 0.587
25.5647 0.902
25.5950 0.488
25.6253 -0.289
25.6555 -0.494
25.6858 0.323
25.7161 0.360
25.7464 0.865
25.7767 -0.244
25.8069 0.263
25.8372 0.352
25.8675 0.338
25.8978 -0.352
25.9281 0.155
25.9583 -0.118
25.9886 0.859
26.0189 0.378
26.0492 0.470
26.0794 0.042
26.1097 -0.281
26.1400 0.489
26.1703 0.999
26.2006 0.416
26.2308 0.251
26.2611 -0.280
26.2914 0.909
26.3217 0.744
26.3520 -0.201
26.3822 0.728
26.4125 0.408
26.4428 0.870
26.4731 -0.283
26.5034 0.127
26.5336 -0.191
26.5639 0.063
26.5942 0.110
26.6245 0.105
26.6547 0.100
26.6850 0.096
26.7153 -0.064
26.7456 -0.068
26.7759 0.033
26.8061 0.811
26.8364 1.225
26.8667 1.588
26.8970 1.013
26.9273 0.230
26.9575 0.021
26.9878 0.176
27.0181 0.072
27.0484 1.113
27.0786 0.384
27.1089 0.229
27.1392 0.282
27.1695 -0.446
27.1998 0.389
27.2300 0.912
27.2603 0.342
27.2906 0.084
27.3209 0.296
27.3512 0.976
27.3814 -0.218
27.4117 -0.370
27.4420 0.833
27.4723 0.681
27.5025 0.114
27.5328 -0.349
27.5631 -0.214
27.5934 0.130
27.6237 0.995
27.6539 0.610
27.6842 0.018
27.7145 0.311
27.7448 0.344
27.7751 0.117
27.8053 0.724
27.8356 -0.075
27.8659 0.324
27.8962 0.516
27.9264 0.655
27.9567 0.378
27.9870 0.623
28.0173 -0.174
28.0476 0.279
28.0778 0.941
28.1081 -0.271
28.1384 -0.390
28.1687 0.318
28.1990 0.869
28.2292 -0.037
28.2595 0.046
28.2898 0.339
28.3201 0.267
28.3503 1.028
28.3806 0.176
28.4109 0.469
28.4412 -0.174
28.4715 0.589
28.5017 0.675
28.5320 -0.071
28.5623 0.641
28.5926 0.780
28.6229 0.035
28.6531 -0.138
28.6834 -0.205
28.7137 -0.012
28.7440 1.119
28.7742 0.062
28.8045 -0.368
28.8348 0.295
28.8651 0.854
28.8954 0.008
28.9256 -0.005
28.9559 -0.174
28.9862 -0.290
29.0165 0.427
29.0468 0.572
29.0770 0.197
29.1073 -0.126
29.1376 0.124
29.1679 0.426
29.1981 -0.104
29.2284 0.616
29.2587 0.346
29.2890 0.703
29.3193 -0.035
29.3495 0.582
29.3798 -0.102
29.4101 -0.005
29.4404 -0.324
29.4707 0.242
29.5009 0.653
29.5312 0.751
29.5615 0.538
29.5918 0.793
29.6221 -0.253
29.6523 -0.413
29.6826 -0.192
29.7129 -0.283
29.7432 0.096
29.7734 0.266
29.8037 0.697
29.8340 -0.329
29.8643 1.196
29.8946 0.066
29.9248 0.082
29.9551 -0.058
29.9854 0.167
30.0157 0.705
30.0460 -0.267
30.0762 0.063
30.1065 0.810
30.1368 -0.213
30.1671 0.171
30.1973 0.658
30.2276 0.990
30.2579 1.219
30.2882 0.770
30.3185 0.478
30.3487 1.020
30.3790 0.469
30.4093 -0.187
30.4396 1.085
30.4699 1.368
30.5001 1.807
30.5304 0.633
30.5607 0.760
30.5910 1.149
30.6212 1.381
30.6515 1.406
30.6818 1.587
30.7121 1.456
30.7424 3.617
30.7726 2.653
30.8029 3.252
30.8332 3.123
30.8635 2.369
30.8938 2.552
30.9240 4.820
30.9543 5.212
30.9846 5.085
31.0149 4.332
31.0451 5.976
31.0754 6.787
31.1057 7.077
31.1360 8.461
31.1663 8.857
31.1965 9.200
31.2268 12.409
31.2571 11.919
31.2874 14.712
31.3177 16.359
31.3479 18.267
31.3782 20.696
31.4085 23.698
31.4388 27.534
31.4690 31.266
31.4993 34.321
31.5296 35.450
31.5599 40.225
31.5902 42.344
31.6204 41.650
31.6507 44.291
31.6810 44.432
31.7113 42.542
31.7416 42.423
31.7718 36.575
31.8021 27.967
31.8324 28.006
31.8627 24.086
31.8929 19.178
31.9232 16.613
31.9535 13.892
31.9838 12.995
32.0141 11.213
32.0443 10.629
32.0746 9.108
32.1049 5.608
32.1352 6.900
32.1655 5.380
32.1957 3.547
32.2260 4.528
32.2563 4.051
32.2866 2.740
32.3169 4.243
32.3471 2.933
32.3774 3.499
32.4077 2.763
32.4380 1.715
32.4682 2.177
32.4985 1.443
32.5288 1.385
32.5591 0.911
32.5894 0.646
32.6196 1.215
32.6499 0.273
32.6802 0.582
32.7105 1.204
32.7408 0.107
32.7710 0.209
32.8013 0.155
32.8316 0.361
32.8619 -0.005
32.8921 0.411
32.9224 -1.569
32.9527 0.305
32.9830 -0.528
33.0133 0.045
33.0435 0.202
33.0738 -0.526
33.1041 -0.943
33.1344 0.932
33.1647 -1.360
33.1949 -0.526
33.2252 -0.384
33.2555 -0.398
33.2858 0.058
33.3160 -0.216
33.3463 0.501
33.3766 -0.189
33.4069 0.528
33.4372 0.621
33.4674 1.339
33.4977 0.495
33.5280 0.588
33.5583 1.099
33.5886 1.922
33.6188 1.653
33.6491 0.289
33.6794 0.489
33.7097 2.147
33.7399 1.774
33.7702 1.819
33.8005 2.957
33.8308 3.367
33.8611 3.673
33.8913 3.927
33.9216 4.546
33.9519 5.739
33.9822 7.660
34.0125 8.958
34.0427 10.828
34.0730 14.991
34.1033 16.862
34.1336 21.442
34.1638 25.553
34.1941 32.217
34.2244 38.621
34.2547 50.286
34.2850 59.503
34.3152 58.148
34.3455 52.261
34.3758 41.115
34.4061 37.521
34.4364 29.084
34.4666 21.376
34.4969 17.106
34.5272 12.941
34.5575 12.682
34.5877 9.142
34.6180 8.519
34.6483 6.855
34.6786 7.327
34.7089 3.528
34.7391 5.459
34.7694 5.099
34.7997 3.228
34.8300 2.452
34.8603 4.749
34.8905 3.035
34.9208 3.614
34.9511 2.735
34.9814 3.419
35.0116 3.113
35.0419 3.537
35.0722 3.336
35.1025 2.511
35.1328 3.197
35.1630 4.976
35.1933 2.850
35.2236 3.641
35.2539 4.275
35.2842 4.546
35.3144 4.452
35.3447 5.244
35.3750 5.047
35.4053 5.632
35.4356 6.842
35.4658 7.114
35.4961 8.169
35.5264 7.609
35.5567 10.331
35.5869 9.667
35.6172 12.650
35.6475 12.873
35.6778 13.617
35.7081 16.028
35.7383 17.085
35.7686 18.038
35.7989 21.544
35.8292 25.675
35.8595 29.078
35.8897 31.960
35.9200 38.332
35.9503 39.079
35.9806 44.931
36.0108 53.387
36.0411 55.854
36.0714 59.623
36.1017 66.518
36.1320 67.319
36.1622 66.819
36.1925 62.517
36.2228 58.320
36.2531 58.185
36.2834 49.613
36.3136 43.177
36.3439 36.898
36.3742 33.744
36.4045 29.809
36.4347 26.135
36.4650 22.044
36.4953 20.350
36.5256 16.625
36.5559 14.462
36.5861 13.967
36.6164 12.482
36.6467 9.644
36.6770 9.098
36.7073 8.968
36.7375 7.329
36.7678 5.846
36.7981 6.551
36.8284 4.340
36.8586 5.515
36.8889 3.409
36.9192 4.584
36.9495 3.624
36.9798 3.133
37.0100 3.789
37.0403 1.997
37.0706 1.611
37.1009 2.737
37.1312 2.300
37.1614 1.395
37.1917 2.209
37.2220 2.294
37.2523 1.598
37.2825 1.580
37.3128 1.249
37.3431 0.659
37.3734 0.902
37.4037 1.093
37.4339 1.962
37.4642 0.592
37.4945 1.305
37.5248 0.769
37.5551 0.493
37.5853 0.010
37.6156 1.141
37.6459 1.179
37.6762 0.332
37.7064 -0.202
37.7367 -0.580
37.7670 0.918
37.7973 0.229
37.8276 0.686
37.8578 -0.003
37.8881 0.507
37.9184 0.496
37.9487 -0.348
37.9790 -0.410
38.0092 0.047
38.0395 -0.017
38.0698 0.077
38.1001 0.066
38.1304 0.264
38.1606 -0.683
38.1909 0.036
38.2212 -0.390
38.2515 -0.210
38.2817 0.074
38.3120 0.203
38.3423 0.644
38.3726 0.565
38.4029 0.538
38.4331 -0.374
38.4634 0.850
38.4937 0.408
38.5240 -0.347
38.5543 0.149
38.5845 0.333
38.6148 -0.368
38.6451 -0.289
38.6754 0.259
38.7056 -0.754
38.7359 -0.219
38.7662 0.420
38.7965 0.800
38.8268 -0.331
38.8570 0.362
38.8873 -0.143
38.9176 0.290
38.9479 -0.058
38.9782 -0.353
39.0084 -0.026
39.0387 -0.219
39.0690 0.474
39.0993 -0.500
39.1295 0.454
39.1598 0.575
39.1901 0.383
39.2204 -0.172
39.2507 -0.311
39.2809 0.801
39.3112 0.767
39.3415 -0.047
39.3718 0.441
39.4021 0.148
39.4323 0.272
39.4626 0.084
39.4929 0.208
39.5232 0.229
39.5534 0.407
39.5837 0.272
39.6140 -0.331
39.6443 0.108
39.6746 -0.286
39.7048 0.519
39.7351 -0.083
39.7654 0.670
39.7957 0.486
39.8260 0.667
39.8562 0.744
39.8865 0.717
39.9168 0.430
39.9471 0.716
39.9773 0.378
40.0076 0.717
40.0379 0.379
40.0682 -0.166
40.0985 -0.295
40.1287 -0.145
40.1590 0.683
40.1893 1.146
40.2196 -0.057
40.2499 0.615
40.2801 0.246
40.3104 0.607
40.3407 0.603
40.3710 0.548
40.4012 0.493
40.4315 0.542
40.4618 0.123
40.4921 -0.087
40.5224 0.328
40.5526 0.275
40.5829 0.639
40.6132 0.482
40.6435 -0.195
40.6738 -0.299
40.7040 0.059
40.7343 0.261
40.7646 0.567
40.7949 0.406
40.8251 -0.225
40.8554 0.343
40.8857 0.339
40.9160 0.595
40.9463 -0.034
40.9765 0.536
41.0068 0.637
41.0371 0.061
41.0674 0.424
41.0977 -0.620
41.1279 0.368
41.1582 0.054
41.1885 0.053
41.2188 -0.364
41.2491 0.157
41.2793 -0.104
41.3096 0.105
41.3399 0.627
41.3702 0.003
41.4004 0.265
41.4307 -0.618
41.4610 0.842
41.4913 0.116
41.5216 0.379
41.5518 -0.086
41.5821 0.490
41.6124 0.599
41.6427 0.186
41.6730 0.243
41.7032 0.405
41.7335 -0.267
41.7638 0.104
41.7941 0.006
41.8243 -0.196
41.8546 0.071
41.8849 0.235
41.9152 -0.070
41.9455 -0.062
41.9757 -0.262
42.0060 0.424
42.0363 0.068
42.0666 -0.131
42.0969 0.556
42.1271 0.254
42.1574 0.108
42.1877 -0.402
42.2180 0.182
42.2482 0.194
42.2785 -0.107
42.3088 0.531
42.3391 0.439
42.3694 0.817
42.3996 0.830
42.4299 0.479
42.4602 0.233
42.4905 0.508
42.5208 0.939
42.5510 1.007
42.5813 0.293
42.6116 -0.212
42.6419 0.429
42.6721 0.446
42.7024 0.150
42.7327 0.949
42.7630 0.185
42.7933 -0.266
42.8235 -0.284
42.8538 0.635
42.8841 0.773
42.9144 -0.079
42.9447 -0.148
42.9749 0.720
43.0052 0.339
43.0355 0.062
43.0658 0.775
43.0960 0.447
43.1263 0.744
43.1566 -0.156
43.1869 0.090
43.2172 0.075
43.2474 1.155
43.2777 0.256
43.3080 0.295
43.3383 0.022
43.3686 0.114
43.3988 0.518
43.4291 0.142
43.4594 0.026
43.4897 0.015
43.5199 0.057
43.5502 -0.006
43.5805 0.297
43.6108 -0.025
43.6411 0.330
43.6713 -0.147
43.7016 0.157
43.7319 0.253
43.7622 -0.120
43.7925 0.237
43.8227 0.126
43.8530 -0.089
43.8833 -0.304
43.9136 -0.259
43.9439 -0.162
43.9741 0.351
44.0044 -0.020
44.0347 -0.078
44.0650 0.437
44.0952 0.379
44.1255 -0.147
44.1558 0.213
44.1861 -0.469
44.2164 0.673
44.2466 0.565
44.2769 -0.688
44.3072 0.194
44.3375 0.400
44.3678 -0.019
44.3980 -0.177
44.4283 0.290
44.4586 0.184
44.4889 -0.389
44.5191 0.183
44.5494 0.079
44.5797 0.600
44.6100 -0.025
44.6403 -0.232
44.6705 0.186
44.7008 -0.125
44.7311 0.606
44.7614 -0.433
44.7917 0.194
44.8219 0.041
44.8522 0.721
44.8825 -0.785
44.9128 0.417
44.9430 0.525
44.9733 0.478
45.0036 -0.298
45.0339 0.333
45.0642 1.380
45.0944 -0.332
45.1247 -0.013
45.1550 0.254
45.1853 0.105
45.2156 -0.304
45.2458 -0.222
45.2761 -0.035
45.3064 0.464
45.3367 0.234
45.3669 0.109
45.3972 0.349
45.4275 0.225
45.4578 -0.108
45.4881 0.446
45.5183 -0.667
45.5486 -0.321
45.5789 0.181
45.6092 0.735
45.6395 -0.169
45.6697 -0.291
45.7000 -0.049
45.7303 -0.222
45.7606 -0.187
45.7908 0.213
45.8211 0.092
45.8514 0.493
45.8817 -0.043
45.9120 0.462
45.9422 -0.334
45.9725 0.224
46.0028 -0.258
46.0331 -0.168
46.0634 -0.338
46.0936 0.118
46.1239 -0.520
46.1542 -0.064
46.1845 0.392
46.2147 0.172
46.2450 0.421
46.2753 0.305
46.3056 0.294
46.3359 0.440
46.3661 0.273
46.3964 0.784
46.4267 0.514
46.4570 0.036
46.4873 0.652
46.5175 0.383
46.5478 0.740
46.5781 0.159
46.6084 0.100
46.6386 1.291
46.6689 0.346
46.6992 0.913
46.7295 0.907
46.7598 1.162
46.7900 1.833
46.8203 0.995
46.8506 1.303
46.8809 1.559
46.9112 1.972
46.9414 2.281
46.9717 2.799
47.0020 3.473
47.0323 3.523
47.0626 3.417
47.0928 4.977
47.1231 5.809
47.1534 6.954
47.1837 6.745
47.2139 6.120
47.2442 7.943
47.2745 9.245
47.3048 10.392
47.3351 9.976
47.3653 11.332
47.3956 13.105
47.4259 12.170
47.4562 11.287
47.4865 11.342
47.5167 9.939
47.5470 10.203
47.5773 8.228
47.6076 8.232
47.6378 9.122
47.6681 7.565
47.6984 6.737
47.7287 5.076
47.7590 4.874
47.7892 3.630
47.8195 4.106
47.8498 2.863
47.8801 1.933
47.9104 2.045
47.9406 1.637
47.9709 1.593
48.0012 1.602
48.0315 1.508
48.0617 0.632
48.0920 0.538
48.1223 0.548
48.1526 0.403
48.1829 0.674
48.2131 1.415
48.2434 0.437
48.2737 0.345
48.3040 0.202
48.3343 0.475
48.3645 -0.449
48.3948 0.085
48.4251 0.047
48.4554 0.062
48.4856 0.024
48.5159 -0.065
48.5462 0.523
48.5765 0.331
48.6068 0.139
48.6370 -0.157
48.6673 0.328
48.6976 0.241
48.7279 -0.262
48.7582 0.225
48.7884 -0.174
48.8187 -0.103
48.8490 0.541
48.8793 0.092
48.9095 0.007
48.9398 -0.233
48.9701 -0.317
49.0004 0.063
49.0307 0.600
49.0609 -0.321
49.0912 0.686
49.1215 0.442
49.1518 -0.426
49.1821 -0.043
49.2123 -0.546
49.2426 0.089
49.2729 -0.004
49.3032 0.423
49.3334 0.174
49.3637 0.185
49.3940 -0.115
49.4243 -0.311
49.4546 0.154
49.4848 0.203
49.5151 0.616
49.5454 -0.532
49.5757 0.508
49.6060 1.391
49.6362 -0.173
49.6665 -0.070
49.6968 0.867
49.7271 0.294
49.7574 0.190
49.7876 0.034
49.8179 0.138
49.8482 0.921
49.8785 1.026
49.9087 -0.170
49.9390 0.041
49.9693 -0.061
49.9996 -0.267
50.0299 0.726
50.0601 -0.052
50.0904 0.942
50.1207 0.061
50.1510 -0.299
50.1813 -0.039
50.2115 0.066
50.2418 0.536
50.2721 0.329
50.3024 0.070
50.3326 0.072
50.3629 0.075
50.3932 0.598
50.4235 -0.232
50.4538 0.136
50.4840 0.192
50.5143 0.352
50.5446 -0.008
50.5749 0.101
50.6052 -0.362
50.6354 0.737
50.6657 0.014
50.6960 0.124
50.7263 -0.130
50.7565 0.138
50.7868 0.041
50.8171 -0.368
50.8474 0.057
50.8777 0.117
50.9079 0.074
50.9382 0.187
50.9685 0.197
50.9988 -0.210
51.0291 0.113
51.0593 0.176
51.0896 0.759
51.1199 0.354
51.1502 -0.311
51.1804 -0.315
51.2107 0.879
51.2410 0.250
51.2713 0.403
51.3016 -0.172
51.3318 -0.018
51.3621 0.448
51.3924 0.343
51.4227 0.029
51.4530 0.236
51.4832 -0.077
51.5135 -0.077
51.5438 -0.285
51.5741 -0.138
51.6043 0.686
51.6346 0.157
51.6649 -0.007
51.6952 -0.119
51.7255 -0.022
51.7557 0.127
51.7860 0.016
51.8163 0.271
51.8466 0.056
51.8769 0.311
51.9071 0.723
51.9374 -0.115
51.9677 -0.016
51.9980 -0.020
52.0282 0.341
52.0585 0.025
52.0888 0.126
52.1191 0.280
52.1494 0.225
52.1796 -0.193
52.2099 0.795
52.2402 -0.352
52.2705 0.272
52.3008 0.375
52.3310 0.011
52.3613 0.011
52.3916 0.063
52.4219 0.481
52.4521 0.951
52.4824 -0.089
52.5127 0.434
52.5430 0.540
52.5733 0.022
52.6035 0.338
52.6338 0.445
52.6641 0.136
52.6944 0.401
52.7247 0.145
52.7549 -0.163
52.7852 0.259
52.8155 -0.204
52.8458 0.010
52.8761 0.485
52.9063 0.179
52.9366 0.343
52.9669 0.350
52.9972 -0.320
53.0274 -0.155
53.0577 0.061
53.0880 0.070
53.1183 -0.494
53.1486 -0.043
53.1788 0.617
53.2091 0.600
53.2394 0.687
53.2697 0.358
53.3000 0.082
53.3302 -0.142
53.3605 0.416
53.3908 -0.016
53.4211 0.178
53.4513 -0.045
53.4816 -0.163
53.5119 0.032
53.5422 -0.242
53.5725 0.527
53.6027 -0.371
53.6330 -0.071
53.6633 0.074
53.6936 -0.042
53.7239 -0.157
53.7541 -0.167
53.7844 -0.074
53.8147 0.021
53.8450 -0.406
53.8752 0.262
53.9055 0.358
53.9358 0.193
53.9661 0.028
53.9964 0.229
54.0266 -0.039
54.0569 0.735
54.0872 -0.313
54.1175 0.618
54.1478 -0.065
54.1780 -0.383
54.2083 0.184
54.2386 -0.081
54.2689 -0.502
54.2991 0.379
54.3294 -0.562
54.3597 -0.149
54.3900 0.212
54.4203 -0.728
54.4505 -0.173
54.4808 0.642
54.5111 0.104
54.5414 0.608
54.5717 -0.399
54.6019 0.106
54.6322 0.038
54.6625 0.699
54.6928 0.007
54.7230 0.305
54.7533 -0.022
54.7836 0.068
54.8139 -0.051
54.8442 -0.116
54.8744 -0.338
54.9047 -0.198
54.9350 -0.579
54.9653 0.863
54.9956 0.118
55.0258 0.155
55.0561 0.504
55.0864 -0.083
55.1167 0.475
55.1469 0.253
55.1772 0.604
55.2075 1.112
55.2378 0.161
55.2681 0.618
55.2983 0.449
55.3286 1.062
55.3589 0.113
55.3892 0.415
55.4195 0.300
55.4497 0.498
55.4800 0.175
55.5103 1.728
55.5406 0.521
55.5709 0.616
55.6011 0.920
55.6314 2.110
55.6617 1.164
55.6920 0.896
55.7222 1.358
55.7525 0.674
55.7828 1.970
55.8131 2.224
55.8434 1.281
55.8736 2.161
55.9039 3.302
55.9342 2.307
55.9645 3.866
55.9948 4.070
56.0250 4.379
56.0553 4.897
56.0856 3.696
56.1159 5.724
56.1461 6.816
56.1764 6.502
56.2067 8.479
56.2370 8.270
56.2673 10.092
56.2975 11.706
56.3278 11.290
56.3581 13.217
56.3884 15.197
56.4187 15.406
56.4489 16.137
56.4792 16.660
56.5095 17.807
56.5398 15.779
56.5700 15.313
56.6003 16.462
56.6306 12.715
56.6609 10.844
56.6912 10.328
56.7214 9.551
56.7517 9.244
56.7820 8.884
56.8123 7.692
56.8426 7.959
56.8728 6.090
56.9031 5.420
56.9334 4.437
56.9637 3.768
56.9939 4.348
57.0242 2.638
57.0545 1.761
57.0848 2.447
57.1151 1.362
57.1453 2.101
57.1756 2.372
57.2059 1.236
57.2362 1.872
57.2665 1.206
57.2967 1.165
57.3270 1.177
57.3573 0.616
57.3876 1.149
57.4178 1.266
57.4481 0.707
57.4784 0.876
57.5087 0.995
57.5390 0.540
57.5692 0.867
57.5995 1.455
57.6298 0.325
57.6601 0.236
57.6904 0.096
57.7206 0.946
57.7509 0.025
57.7812 0.302
57.8115 -0.253
57.8417 0.129
57.8720 0.877
57.9023 0.791
57.9326 0.289
57.9629 0.309
57.9931 -0.193
58.0234 0.192
58.0537 0.368
58.0840 0.389
58.1143 0.358
58.1445 0.744
58.1748 0.505
58.2051 0.476
58.2354 0.029
58.2656 -0.312
58.2959 -0.270
58.3262 -0.227
58.3565 0.286
58.3868 0.694
58.4170 -0.043
58.4473 -0.311
58.4776 0.255
58.5079 -0.065
58.5382 0.294
58.5684 0.079
58.5987 -0.083
58.6290 0.589
58.6593 0.011
58.6896 -0.098
58.7198 -0.571
58.7501 0.675
58.7804 -0.110
58.8107 -0.269
58.8409 -0.012
58.8712 -0.119
58.9015 0.400
58.9318 -0.175
58.9621 0.866
58.9923 0.448
59.0226 -0.022
59.0529 0.238
59.0832 -0.439
59.1135 0.291
59.1437 -0.021
59.1740 0.605
59.2043 0.190
59.2346 0.035
59.2648 0.298
59.2951 0.092
59.3254 -0.166
59.3557 0.410
59.3860 -0.159
59.4162 -0.728
59.4465 0.214
59.4768 0.375
59.5071 -0.349
59.5374 -0.031
59.5676 -0.390
59.5979 0.084
59.6282 0.193
59.6585 -0.375
59.6887 0.099
59.7190 0.001
59.7493 -0.097
59.7796 0.118
59.8099 -0.656
59.8401 0.132
59.8704 -0.694
59.9007 -0.061
59.9310 0.208
59.9613 0.061
59.9915 -0.034
60.0218 -0.390
60.0521 0.089
60.0824 0.255
60.1126 -0.308
60.1429 -0.248
60.1732 0.282
60.2035 -0.334
60.2338 -0.064
60.2640 -0.262
60.2943 0.373
60.3246 -0.137
60.3549 0.030
60.3852 0.354
60.4154 -0.103
60.4457 -0.299
60.4760 -0.011
60.5063 0.225
60.5365 -0.580
60.5668 0.594
60.5971 0.103
60.6274 0.028
60.6577 0.370
60.6879 0.660
60.7182 0.951
60.7485 0.149
60.7788 0.388
60.8091 0.107
60.8393 0.399
60.8696 -0.193
60.8999 0.412
60.9302 0.132
60.9604 -0.303
60.9907 0.564
61.0210 0.390
61.0513 0.059
61.0816 -0.375
61.1118 0.025
61.1421 0.112
61.1724 -0.164
61.2027 0.080
61.2330 -0.040
61.2632 0.101
61.2935 -0.539
61.3238 0.541
61.3541 -0.359
61.3844 -0.060
61.4146 0.030
61.4449 -0.399
61.4752 0.578
61.5055 -0.841
61.5357 -0.020
61.5660 0.437
61.5963 -0.564
61.6266 -0.210
61.6569 0.144
61.6871 0.811
61.7174 -0.241
61.7477 -0.146
61.7780 -0.520
61.8083 0.199
61.8385 1.074
61.8688 0.440
61.8991 0.743
61.9294 0.109
61.9596 1.194
61.9899 1.186
62.0202 1.699
62.0505 1.483
62.0808 0.903
62.1110 1.729
62.1413 1.827
62.1716 2.289
62.2019 2.440
62.2322 2.122
62.2624 3.367
62.2927 3.102
62.3230 3.462
62.3533 4.656
62.3835 4.652
62.4138 6.212
62.4441 5.636
62.4744 5.894
62.5047 6.048
62.5349 9.900
62.5652 9.274
62.5955 10.731
62.6258 10.990
62.6561 11.146
62.6863 12.813
62.7166 14.167
62.7469 12.814
62.7772 13.127
62.8074 12.920
62.8377 13.339
62.8680 10.685
62.8983 11.468
62.9286 10.586
62.9588 10.068
62.9891 9.394
63.0194 7.680
63.0497 8.101
63.0800 5.813
63.1102 6.079
63.1405 5.876
63.1708 4.788
63.2011 3.387
63.2313 2.561
63.2616 2.932
63.2919 2.626
63.3222 1.957
63.3525 1.913
63.3827 0.410
63.4130 1.617
63.4433 0.896
63.4736 1.427
63.5039 0.811
63.5341 0.977
63.5644 0.675
63.5947 0.634
63.6250 1.426
63.6552 0.500
63.6855 0.251
63.7158 0.315
63.7461 1.265
63.7764 -0.180
63.8066 0.198
63.8369 0.419
63.8672 0.485
63.8975 -0.177
63.9278 0.775
63.9580 0.737
63.9883 0.232
64.0186 0.248
64.0489 0.680
64.0791 -0.137
64.1094 0.036
64.1397 0.106
64.1700 -0.190
64.2003 -0.276
64.2305 0.003
64.2608 -0.239
64.2911 -0.220
64.3214 0.111
64.3517 0.131
64.3819 0.151
64.4122 0.067
64.4425 0.557
64.4728 -0.100
64.5031 -0.234
64.5333 -0.317
64.5636 -0.017
64.5939 0.126
64.6242 -0.251
64.6544 0.154
64.6847 0.715
64.7150 0.652
64.7453 0.693
64.7756 0.266
64.8058 0.412
64.8361 -0.847
64.8664 0.133
64.8967 0.644
64.9270 -0.510
64.9572 -0.206
64.9875 -0.266
65.0178 0.351
65.0481 0.032
65.0783 0.025
65.1086 -0.972
65.1389 0.272
65.1692 0.318
65.1995 0.261
65.2297 -0.213
65.2600 -0.218
65.2903 -0.118
65.3206 0.972
65.3509 -0.022
65.3811 -0.546
65.4114 0.053
65.4417 0.445
65.4720 0.263
65.5022 0.134
65.5325 0.214
65.5628 -0.903
65.5931 0.583
65.6234 -0.273
65.6536 0.173
65.6839 1.244
65.7142 0.284
65.7445 0.054
65.7748 0.345
65.8050 -0.405
65.8353 -0.113
65.8656 1.272
65.8959 -0.050
65.9261 0.243
65.9564 0.276
65.9867 0.569
66.0170 0.551
66.0473 0.793
66.0775 1.556
66.1078 1.330
66.1381 1.261
66.1684 1.401
66.1987 1.384
66.2289 0.430
66.2592 1.613
66.2895 2.014
66.3198 1.478
66.3500 1.255
66.3803 1.397
66.4106 1.122
66.4409 0.588
66.4712 1.512
66.5014 0.718
66.5317 1.122
66.5620 1.162
66.5923 0.265
66.6226 1.087
66.6528 0.294
66.6831 0.648
66.7134 0.377
66.7437 0.055
66.7739 0.722
66.8042 0.036
66.8345 -0.390
66.8648 -0.087
66.8951 1.102
66.9253 0.417
66.9556 0.304
66.9859 -0.797
67.0162 0.497
67.0465 0.074
67.0767 0.640
67.1070 0.790
67.1373 1.408
67.1676 0.465
67.1978 0.460
67.2281 1.080
67.2584 2.221
67.2887 1.540
67.3190 1.692
67.3492 2.834
67.3795 2.779
67.4098 2.776
67.4401 1.836
67.4704 2.772
67.5006 4.124
67.5309 3.081
67.5612 4.434
67.5915 4.850
67.6218 4.849
67.6520 7.297
67.6823 7.194
67.7126 7.819
67.7429 7.560
67.7731 7.822
67.8034 7.511
67.8337 8.034
67.8640 9.339
67.8943 9.289
67.9245 9.761
67.9548 7.473
67.9851 7.269
68.0154 7.325
68.0457 6.601
68.0759 5.929
68.1062 5.830
68.1365 5.731
68.1668 5.008
68.1970 5.015
68.2273 3.772
68.2576 2.945
68.2879 2.849
68.3182 3.169
68.3484 1.615
68.3787 3.186
68.4090 3.351
68.4393 2.006
68.4696 2.537
68.4998 2.182
68.5301 2.557
68.5604 2.255
68.5907 2.943
68.6209 2.486
68.6512 2.290
68.6815 2.666
68.7118 3.356
68.7421 2.223
68.7723 2.809
68.8026 3.708
68.8329 3.774
68.8632 3.580
68.8935 3.334
68.9237 3.141
68.9540 4.719
68.9843 3.901
69.0146 3.188
69.0448 2.840
69.0751 3.898
69.1054 4.540
69.1357 2.735
69.1660 3.274
69.1962 2.667
69.2265 2.946
69.2568 2.757
69.2871 2.932
69.3174 1.493
69.3476 0.993
69.3779 1.534
69.4082 1.450
69.4385 0.534
69.4687 -0.226
69.4990 0.317
69.5293 0.339
69.5596 -0.003
69.5899 0.957
69.6201 0.407
69.6504 0.796
69.6807 0.663
69.7110 0.115
69.7413 -0.277
69.7715 -0.200
69.8018 0.033
69.8321 0.111
69.8624 0.033
69.8926 -0.305
69.9229 -0.330
69.9532 0.634
69.9835 -0.328
70.0138 -0.144
70.0440 0.041
70.0743 -0.295
70.1046 -0.006
70.1349 0.076
70.1652 -0.624
70.1954 -0.040
70.2257 0.284
70.2560 0.088
70.2863 0.205
70.3166 -0.199
70.3468 0.074
70.3771 0.504
70.4074 0.675
70.4377 0.064
70.4679 0.234
70.4982 0.145
70.5285 -0.256
70.5588 -0.293
70.5891 0.192
70.6193 0.208
70.6496 -0.192
70.6799 -0.123
70.7102 0.624
70.7405 -0.452
70.7707 -0.017
70.8010 -0.468
70.8313 0.058
70.8616 0.324
70.8918 0.173
70.9221 0.075
70.9524 0.550
70.9827 -0.068
71.0130 0.304
71.0432 -0.210
71.0735 0.163
71.1038 0.483
71.1341 -0.185
71.1644 -0.280
71.1946 0.195
71.2249 0.619
71.2552 0.158
71.2855 0.114
71.3157 0.018
71.3460 -0.441
71.3763 0.033
71.4066 0.507
71.4369 0.721
71.4671 0.207
71.4974 -0.047
71.5277 0.168
71.5580 0.072
71.5883 -0.337
71.6185 -0.021
71.6488 0.087
71.6791 0.352
71.7094 0.357
71.7396 0.050
71.7699 -0.205
71.8002 -0.199
71.8305 -0.244
71.8608 0.127
71.8910 0.395
71.9213 0.610
71.9516 0.045
71.9819 -0.311
72.0122 -0.005
72.0424 0.615
72.0727 0.610
72.1030 0.136
72.1333 0.288
72.1635 0.492
72.1938 0.592
72.2241 -0.088
72.2544 0.326
72.2847 0.583
72.3149 0.477
72.3452 0.579
72.3755 0.838
72.4058 0.316
72.4361 1.200
72.4663 0.314
72.4966 0.522
72.5269 0.575
72.5572 0.731
72.5874 0.576
72.6177 1.046
72.6480 1.048
72.6783 1.258
72.7086 0.219
72.7388 0.482
72.7691 0.537
72.7994 -0.033
72.8297 0.596
72.8600 0.913
72.8902 -0.020
72.9205 0.349
72.9508 0.458
72.9811 0.099
73.0113 0.418
73.0416 0.320
73.0719 0.274
73.1022 0.437
73.1325 0.341
73.1627 0.192
73.1930 -0.217
73.2233 -0.260
73.2536 0.163
73.2839 0.169
73.3141 0.385
73.3444 -0.077
73.3747 0.712
73.4050 -0.269
73.4353 0.000
73.4655 -0.200
73.4958 -0.191
73.5261 -0.337
73.5564 0.230
73.5866 -0.193
73.6169 0.010
73.6472 -0.255
73.6775 -0.155
73.7078 0.518
73.7380 -0.163
73.7683 -0.062
73.7986 -0.065
73.8289 -0.224
73.8592 -0.070
73.8894 -0.072
73.9197 -0.074
73.9500 0.029
73.9803 0.132
74.0105 0.184
74.0408 -0.129
74.0711 -0.181
74.1014 0.133
74.1317 0.133
74.1619 0.447
74.1922 0.136
74.2225 -0.226
74.2528 0.089
74.2831 -0.117
74.3133 0.667
74.3436 -0.058
74.3739 -0.211
74.4042 0.366
74.4344 -0.046
74.4647 -0.145
74.4950 -0.244
74.5253 0.230
74.5556 0.236
74.5858 0.399
74.6161 0.249
74.6464 0.152
74.6767 -0.205
74.7070 -0.250
74.7372 -0.248
74.7675 0.431
74.7978 -0.243
74.8281 0.073
74.8583 -0.185
74.8886 0.236
74.9189 0.188
74.9492 0.296
74.9795 0.197
75.0097 0.306
75.0400 -0.209
75.0703 -0.047
75.1006 0.376
75.1309 0.122
75.1611 0.389
75.1914 0.345
75.2217 -0.012
75.2520 0.516
75.2822 0.160
75.3125 -0.144
75.3428 -0.239
75.3731 0.063
75.4034 0.418
75.4336 0.095
75.4639 0.346
75.4942 0.025
75.5245 -0.244
75.5548 -0.572
75.5850 0.299
75.6153 0.962
75.6456 0.532
75.6759 -0.159
75.7061 0.141
75.7364 -0.288
75.7667 0.220
75.7970 0.208
75.8273 0.717
75.8575 0.029
75.8878 -0.034
75.9181 0.320
75.9484 0.049
75.9787 0.040
76.0089 0.134
76.0392 0.594
76.0695 0.064
76.0998 0.212
76.1301 0.048
76.1603 0.040
76.1906 -0.019
76.2209 0.495
76.2512 -0.085
76.2814 -0.143
76.3117 0.268
76.3420 0.523
76.3723 0.361
76.4026 0.565
76.4328 0.352
76.4631 0.504
76.4934 -0.021
76.5237 0.601
76.5540 0.181
76.5842 0.804
76.6145 0.385
76.6448 0.956
76.6751 0.641
76.7053 1.109
76.7356 0.900
76.7659 0.951
76.7962 0.066
76.8265 1.055
76.8567 0.431
76.8870 0.744
76.9173 1.214
76.9476 1.581
76.9779 0.333
77.0081 1.012
77.0384 1.223
77.0687 0.809
77.0990 0.813
77.1292 1.077
77.1595 0.196
77.1898 0.304
77.2201 0.622
77.2504 0.158
77.2806 -0.149
77.3109 0.586
77.3412 0.176
77.3715 0.338
77.4018 0.085
77.4320 -0.012
77.4623 0.204
77.4926 -0.361
77.5229 0.429
77.5531 0.229
77.5834 0.082
77.6137 0.092
77.6440 0.206
77.6743 0.476
77.7045 0.226
77.7348 0.394
77.7651 0.561
77.7954 -0.052
77.8257 -0.197
77.8559 0.024
77.8862 0.141
77.9165 -0.054
77.9468 -0.145
77.9770 -0.392
78.0073 0.247
78.0376 0.158
78.0679 -0.244
78.0982 -0.197
78.1284 -0.202
78.1587 -0.155
78.1890 -0.107
78.2193 -0.163
78.2496 0.459
78.2798 -0.169
78.3101 0.349
78.3404 -0.330
78.3707 -0.020
78.4009 -0.178
78.4312 -0.127
78.4615 -0.336
78.4918 0.393
78.5221 0.132
78.5523 0.288
78.5826 -0.232
78.6129 -0.127
78.6432 0.291
78.6735 0.241
78.7037 0.034
78.7340 0.089
78.7643 0.560
78.7946 0.251
78.8248 0.150
78.8551 -0.003
78.8854 -0.572
78.9157 0.055
78.9460 0.162
78.9762 0.060
79.0065 -0.198
79.0368 0.066
79.0671 0.278
79.0974 0.386
79.1276 -0.079
79.1579 0.395
79.1882 0.191
79.2185 -0.168
79.2488 0.046
79.2790 0.000
79.3093 -0.098
79.3396 0.638
79.3699 0.073
79.4001 -0.232
79.4304 -0.120
79.4607 0.252
79.4910 -0.052
79.5213 -0.095
79.5515 0.487
79.5818 0.237
79.6121 0.507
79.6424 0.153
79.6727 0.320
79.7029 0.591
79.7332 0.342
79.7635 -0.219
79.7938 -0.519
79.8240 0.246
79.8543 0.438
79.8846 0.371
79.9149 0.096
79.9452 -0.127
79.9754 0.379
80.0057 0.521
80.0360 0.508
80.0663 0.338
80.0966 0.326
80.1268 -0.052
80.1571 0.353
80.1874 0.081
80.2177 0.017
80.2479 0.162
80.2782 -0.005
80.3085 0.193
80.3388 -0.129
80.3691 0.226
80.3993 0.269
80.4296 -0.417
80.4599 -0.166
80.4902 0.191
80.5205 -0.442
80.5507 0.019
80.5810 -0.092
80.6113 -0.255
80.6416 -0.003
80.6718 0.146
80.7021 -0.069
80.7324 0.288
80.7627 0.178
80.7930 -0.245
80.8232 -0.251
80.8535 0.473
80.8838 0.312
80.9141 0.151
80.9444 -0.166
80.9746 0.664
81.0049 0.816
81.0352 -0.124
81.0655 -0.231
81.0957 -0.078
81.1260 0.076
81.1563 0.127
81.1866 -0.083
81.2169 0.176
81.2471 0.071
81.2774 0.071
81.3077 0.384
81.3380 0.488
81.3683 0.281
81.3985 0.438
81.4288 0.908
81.4591 0.076
81.4894 0.079
81.5196 0.810
81.5499 -0.020
81.5802 -0.329
81.6105 0.507
81.6408 0.199
81.6710 0.099
81.7013 0.468
81.7316 0.734
81.7619 0.427
81.7922 -0.609
81.8224 0.074
81.8527 0.236
81.8830 0.399
81.9133 0.042
81.9436 -0.003
81.9738 -0.255
82.0041 -0.252
82.0344 0.013
82.0647 -0.243
82.0949 0.178
82.1252 0.339
82.1555 0.084
82.1858 -0.014
82.2161 -0.477
82.2463 0.155
82.2766 0.109
82.3069 -0.457
82.3372 0.020
82.3675 0.132
82.3977 0.244
82.4280 -0.268
82.4583 0.053
82.4886 0.271
82.5188 0.229
82.5491 0.291
82.5794 0.197
82.6097 -0.105
82.6400 0.167
82.6702 -0.239
82.7005 -0.389
82.7308 0.284
82.7611 0.125
82.7914 -0.035
82.8216 -0.141
82.8519 0.221
82.8822 0.271
82.9125 0.009
82.9427 0.112
82.9730 0.007
83.0033 -0.045
83.0336 -0.150
83.0639 -0.514
83.0941 0.268
83.1244 -0.252
83.1547 0.010
83.1850 0.011
83.2153 0.013
83.2455 0.120
83.2758 -0.086
83.3061 -0.239
83.3364 -0.237
83.3666 0.025
83.3969 -0.337
83.4272 0.082
83.4575 0.137
83.4878 -0.120
83.5180 0.197
83.5483 0.045
83.5786 0.309
83.6089 0.783
83.6392 0.163
83.6694 0.377
83.6997 -0.086
83.7300 0.233
83.7603 -0.229
83.7905 -0.118
83.8208 0.254
83.8511 0.418
83.8814 -0.095
83.9117 0.070
83.9419 -0.026
83.9722 0.817
84.0025 0.514
84.0328 0.107
84.0631 0.481
84.0933 0.284
84.1236 0.086
84.1539 0.410
84.1842 0.526
84.2144 0.434
84.2447 0.654
84.2750 0.771
84.3053 0.472
84.3356 0.120
84.3658 -0.283
84.3961 0.513
84.4264 -0.306
84.4567 0.334
84.4870 -0.172
84.5172 0.521
84.5475 0.380
84.5778 0.501
84.6081 0.153
84.6383 -0.195
84.6686 -0.156
84.6989 0.248
84.7292 0.652
84.7595 0.640
84.7897 0.368
84.8200 -0.060
84.8503 0.293
84.8806 0.387
84.9109 0.220
84.9411 0.679
84.9714 0.305
85.0017 0.452
85.0320 -0.026
85.0623 0.382
85.0925 0.374
85.1228 0.575
85.1531 0.046
85.1834 0.560
85.2136 0.032
85.2439 0.078
85.2742 0.176
85.3045 -0.038
85.3348 0.113
85.3650 0.629
85.3953 0.104
85.4256 0.099
85.4559 0.408
85.4862 0.196
85.5164 0.037
85.5467 0.451
85.5770 0.500
85.6073 0.081
85.6375 -0.285
85.6678 -0.032
85.6981 0.013
85.7284 -0.201
85.7587 0.469
85.7889 0.516
85.8192 0.250
85.8495 0.088
85.8798 0.240
85.9101 -0.025
85.9403 0.596
85.9706 0.436
86.0009 0.120
86.0312 0.222
86.0614 0.375
86.0917 -0.044
86.1220 0.215
86.1523 -0.568
86.1826 0.056
86.2128 -0.101
86.2431 0.055
86.2734 -0.258
86.3037 0.315
86.3340 0.107
86.3642 0.160
86.3945 0.370
86.4248 0.059
86.4551 0.061
86.4853 0.376
86.5156 -0.246
86.5459 0.538
86.5762 0.125
86.6065 0.702
86.6367 0.029
86.6670 -0.227
86.6973 -0.073
86.7276 -0.022
86.7579 0.497
86.7881 -0.077
86.8184 -0.025
86.8487 0.131
86.8790 0.287
86.9092 -0.389
86.9395 -0.236
86.9698 0.542
87.0001 0.123
87.0304 0.225
87.0606 0.483
87.0909 0.274
87.1212 0.585
87.1515 0.272
87.1818 0.427
87.2120 0.636
87.2423 0.167
87.2726 0.585
87.3029 0.117
87.3331 0.170
87.3634 0.172
87.3937 -0.086
87.4240 0.072
87.4543 0.075
87.4845 0.755
87.5148 -0.491
87.5451 -0.227
87.5754 0.333
87.6057 0.373
87.6359 0.412
87.6662 0.349
87.6965 0.389
87.7268 0.014
87.7571 -0.101
87.7873 0.826
87.8176 0.139
87.8479 0.233
87.8782 0.745
87.9084 0.059
87.9387 0.258
87.9690 0.146
87.9993 0.190
88.0296 0.235
88.0598 0.019
88.0901 0.325
88.1204 0.423
88.1507 0.052
88.1810 0.046
88.2112 0.301
88.2415 0.244
88.2718 0.292
88.3021 0.443
88.3323 -0.081
88.3626 0.123
88.3929 0.224
88.4232 -0.091
88.4535 -0.250
88.4837 0.098
88.5140 0.550
88.5443 0.170
88.5746 0.310
88.6049 0.243
88.6351 0.072
88.6654 0.526
88.6957 0.303
88.7260 0.289
88.7562 0.015
88.7865 0.419
88.8168 0.249
88.8471 0.185
88.8774 0.016
88.9076 0.578
88.9379 0.306
88.9682 0.920
88.9985 0.440
89.0288 0.430
89.0590 1.253
89.0893 0.723
89.1196 0.870
89.1499 0.861
89.1801 0.644
89.2104 0.792
89.2407 0.940
89.2710 1.245
89.3013 1.863
89.3315 0.919
89.3618 1.277
89.3921 1.635
89.4224 2.567
89.4527 1.416
89.4829 1.932
89.5132 1.875
89.5435 1.610
89.5738 1.815
89.6040 1.603
89.6343 0.975
89.6646 1.753
89.6949 1.855
89.7252 1.488
89.7554 1.590
89.7857 1.433
89.8160 0.598
89.8463 2.212
89.8766 1.274
89.9068 0.910
89.9371 0.337
89.9674 1.015
89.9977 0.704
90.0279 0.757
90.0582 0.915
90.0885 0.813
90.1188 0.763
90.1491 -0.327
90.1793 0.457
90.2096 0.617
90.2399 0.256
90.2702 -0.208
90.3005 0.682
90.3307 0.322
90.3610 0.067
90.3913 -0.083
90.4216 0.183
90.4518 -0.123
90.4821 0.405
90.5124 -0.369
90.5427 -0.258
90.5730 0.167
90.6032 0.123
90.6335 -0.441
90.6638 -0.068
90.6941 -0.266
90.7244 -0.048
90.7546 0.483
90.7849 -0.339
90.8152 -0.120
90.8455 -0.056
90.8758 0.529
90.9060 -0.761
90.9363 -0.072
90.9666 0.045
90.9969 -0.202
91.0271 0.072
91.0574 -0.018
91.0877 0.049
91.1180 0.636
91.1483 -0.286
91.1785 -0.219
91.2088 -0.255
91.2391 -0.094
91.2694 0.224
91.2997 0.386
91.3299 -0.181
91.3602 0.346
91.3905 0.145
91.4208 0.204
91.4510 0.055
91.4813 -0.250
91.5116 -0.250
91.5419 0.155
91.5722 -0.118
91.6024 0.183
91.6327 0.433
91.6630 0.214
91.6933 0.672
91.7236 0.245
91.7538 -0.181
91.7841 0.070
91.8144 -0.148
91.8447 -0.260
91.8749 -0.115
91.9052 -0.333
91.9355 0.230
91.9658 -0.248
91.9961 0.421
92.0263 -0.161
92.0566 -0.065
92.0869 0.552
92.1172 0.024
92.1475 -0.035
92.1777 0.323
92.2080 -0.465
92.2383 0.102
92.2686 0.356
92.2988 0.299
92.3291 0.242
92.3594 0.394
92.3897 -0.184
92.4200 0.073
92.4502 0.278
92.4805 0.379
92.5108 0.272
92.5411 0.634
92.5714 0.475
92.6016 0.682
92.6319 -0.101
92.6622 0.002
92.6925 0.210
92.7227 0.210
92.7530 -0.311
92.7833 -0.156
92.8136 0.156
92.8439 0.885
92.8741 0.834
92.9044 0.001
92.9347 0.783
92.9650 0.576
92.9953 0.422
93.0255 0.580
93.0558 0.322
93.0861 -0.040
93.1164 0.015
93.1466 0.123
93.1769 0.179
93.2072 0.131
93.2375 -0.073
93.2678 0.297
93.2980 0.563
93.3283 0.152
93.3586 -0.467
93.3889 -0.106
93.4192 -0.161
93.4494 -0.059
93.4797 -0.269
93.5100 -0.271
93.5403 -0.173
93.5706 0.133
93.6008 -0.134
93.6311 0.381
93.6614 -0.145
93.6917 -0.254
93.7219 -0.050
93.7522 0.154
93.7825 -0.475
93.8128 0.094
93.8431 0.143
93.8733 -0.016
93.9036 -0.071
93.9339 0.396
93.9642 0.082
93.9945 0.132
94.0247 -0.181
94.0550 0.495
94.0853 -0.182
94.1156 0.026
94.1458 0.235
94.1761 -0.285
94.2064 -0.194
94.2367 -0.259
94.2670 -0.219
94.2972 0.394
94.3275 0.070
94.3578 -0.202
94.3881 -0.109
94.4184 -0.171
94.4486 0.392
94.4789 0.382
94.5092 0.424
94.5395 0.155
94.5697 -0.010
94.6000 0.346
94.6303 0.859
94.6606 0.278
94.6909 0.323
94.7211 0.264
94.7514 0.414
94.7817 0.303
94.8120 0.714
94.8423 0.396
94.8725 0.807
94.9028 0.282
94.9331 1.215
94.9634 0.586
94.9936 0.999
95.0239 1.203
95.0542 0.940
95.0845 1.667
95.1148 1.456
95.1450 0.725
95.1753 0.723
95.2056 1.399
95.2359 1.398
95.2662 1.554
95.2964 1.293
95.3267 0.877
95.3570 1.398
95.3873 1.764
95.4175 0.619
95.4478 1.558
95.4781 1.977
95.5084 1.146
95.5387 1.253
95.5689 0.839
95.5992 0.999
95.6295 0.586
95.6598 0.277
95.6901 0.594
95.7203 0.391
95.7506 0.969
95.7809 0.297
95.8112 0.772
95.8414 0.101
95.8717 0.212
95.9020 0.063
95.9323 0.018
95.9626 0.338
95.9928 0.502
96.0231 0.354
96.0534 -0.314
96.0837 0.528
96.1140 -0.347
96.1442 0.496
96.1745 -0.692
96.2048 -0.057
96.2351 0.892
96.2653 0.070
96.2956 0.081
96.3259 0.145
96.3562 -0.103
96.3865 0.639
96.4167 -0.025
96.4470 -0.011
96.4773 0.159
96.5076 0.121
96.5379 0.083
96.5681 -0.215
96.5984 -0.200
96.6287 -0.392
96.6590 0.301
96.6893 -0.100
96.7195 0.281
96.7498 0.038
96.7801 0.159
96.8104 0.229
96.8406 -0.221
96.8709 -0.255
96.9012 0.095
96.9315 -0.075
96.9618 -0.297
96.9920 0.159
97.0223 -0.062
97.0526 0.655
97.0829 -0.138
97.1132 -0.202
97.1434 -0.266
97.1737 -0.070
97.2040 0.334
97.2343 -0.095
97.2645 -0.263
97.2948 -0.066
97.3251 0.027
97.3554 -0.244
97.3857 0.370
97.4159 -0.473
97.4462 0.038
97.4765 -0.076
97.5068 0.176
97.5371 -0.249
97.5673 0.159
97.5976 -0.422
97.6279 -0.065
97.6582 0.188
97.6884 0.494
97.7187 0.227
97.7490 -0.039
97.7793 0.111
97.8096 -0.051
97.8398 0.361
97.8701 -0.217
97.9004 -0.169
97.9307 -0.017
97.9610 0.188
97.9912 0.237
98.0215 -0.235
98.0518 0.752
98.0821 0.125
98.1123 0.540
98.1426 0.122
98.1729 0.433
98.2032 0.068
98.2335 0.171
98.2637 0.796
98.2940 0.432
98.3243 0.797
98.3546 0.382
98.3849 0.331
98.4151 0.489
98.4454 0.439
98.4757 -0.080
98.5060 0.861
98.5362 1.020
98.5665 0.972
98.5968 1.288
98.6271 0.667
98.6574 0.411
98.6876 0.208
98.7179 0.474
98.7482 0.636
98.7785 0.537
98.8088 0.492
98.8390 0.394
98.8693 0.766
98.8996 0.930
98.9299 0.417
98.9601 0.633
98.9904 0.485
99.0207 0.546
99.0510 0.764
99.0813 1.346
99.1115 -0.154
99.1418 0.689
99.1721 -0.289
99.2024 0.555
99.2327 -0.007
99.2629 -0.203
99.2932 0.330
99.3235 -0.335
99.3538 0.199
99.3841 0.160
99.4143 0.069
99.4446 -0.282
99.4749 0.253
99.5052 0.268
99.5354 0.231
99.5657 0.142
99.5960 -0.259
99.6263 -0.102
99.6566 0.264
99.6868 0.214
99.7171 0.372
99.7474 0.322
99.7777 0.377
99.8080 0.016
99.8382 0.384
99.8685 0.127
99.8988 0.027
99.9291 -0.020
99.9593 -0.171
99.9896 -0.062
100.0199 -0.160
100.0502 0.471
100.0805 0.008
100.1107 0.536
100.1410 0.074
100.1713 0.029
100.2016 -0.171
100.2319 0.202
100.2621 0.887
100.2924 0.011
100.3227 0.124
100.3530 0.134
100.3832 0.196
100.4135 0.154
100.4438 0.217
100.4741 -0.189
100.5044 0.499
100.5346 0.042
100.5649 0.159
100.5952 0.015
100.6255 -0.337
100.6558 0.019
100.6860 0.114
100.7163 0.158
100.7466 0.515
100.7769 -0.014
100.8071 0.240
100.8374 0.077
100.8677 0.487
100.8980 0.429
100.9283 0.631
100.9585 0.105
100.9888 0.048
101.0191 0.460
101.0494 0.039
101.0797 0.400
101.1099 0.136
101.1402 0.341
101.1705 -0.078
101.2008 -0.081
101.2310 -0.031
101.2613 -0.241
101.2916 0.122
101.3219 -0.087
101.3522 -0.244
101.3824 0.005
101.4127 0.047
101.4430 0.140
101.4733 -0.078
101.5036 -0.192
101.5338 0.424
101.5641 -0.210
101.5944 -0.218
101.6247 -0.226
101.6549 0.131
101.6852 0.540
101.7155 0.168
101.7458 -0.255
101.7761 -0.221
101.8063 -0.030
101.8366 0.318
101.8669 0.301
101.8972 0.389
101.9275 0.165
101.9577 0.045
101.9880 0.499
102.0183 0.015
102.0486 -0.052
102.0788 0.455
102.1091 0.389
102.1394 0.011
102.1697 0.102
102.2000 -0.014
102.2302 -0.131
102.2605 0.482
102.2908 -0.155
102.3211 -0.062
102.3514 -0.229
102.3816 0.229
102.4119 0.011
102.4422 -0.051
102.4725 0.460
102.5028 0.555
102.5330 -0.131
102.5633 -0.139
102.5936 -0.355
102.6239 0.574
102.6541 0.984
102.6844 0.196
102.7147 -0.019
102.7450 0.235
102.7753 -0.136
102.8055 0.952
102.8358 0.531
102.8661 0.526
102.8964 0.261
102.9267 0.309
102.9569 0.878
102.9872 -0.063
103.0175 -0.274
103.0478 0.296
103.0780 0.293
103.1083 0.708
103.1386 0.342
103.1689 0.705
103.1992 0.288
103.2294 0.079
103.2597 0.235
103.2900 0.131
103.3203 -0.650
103.3506 -0.086
103.3808 0.271
103.4111 0.315
103.4414 -0.317
103.4717 -0.116
103.5019 -0.175
103.5322 -0.077
103.5625 0.333
103.5928 0.171
103.6231 -0.303
103.6533 0.421
103.6836 0.677
103.7139 0.308
103.7442 0.200
103.7745 0.353
103.8047 0.245
103.8350 0.399
103.8653 -0.020
103.8956 0.394
103.9258 0.497
103.9561 0.964
103.9864 1.379
104.0167 1.066
104.0470 0.337
104.0772 1.222
104.1075 0.858
104.1378 1.015
104.1681 0.443
104.1984 0.601
104.2286 1.175
104.2589 0.240
104.2892 0.868
104.3195 1.183
104.3497 0.717
104.3800 0.565
104.4103 0.569
104.4406 0.208
104.4709 0.421
104.5011 0.322
104.5314 0.223
104.5617 0.698
104.5920 0.652
104.6223 0.294
104.6525 0.457
104.6828 -0.109
104.7131 0.367
104.7434 -0.250
104.7736 -0.138
104.8039 -0.181
104.8342 0.609
104.8645 0.618
104.8948 0.211
104.9250 -0.404
104.9553 0.075
104.9856 -0.487
105.0159 0.045
105.0462 -0.777
105.0764 0.120
105.1067 0.080
105.1370 -0.324
105.1673 0.158
105.1975 0.171
105.2278 -0.388
105.2581 0.147
105.2884 -0.048
105.3187 0.071
105.3489 0.034
105.3792 0.310
105.4095 0.117
105.4398 0.446
105.4701 0.098
105.5003 0.010
105.5306 -0.181
105.5609 0.097
105.5912 0.219
105.6215 0.602
105.6517 0.204
105.6820 -0.038
105.7123 -0.070
105.7426 -0.259
105.7728 0.107
105.8031 0.578
105.8334 0.164
105.8637 -0.146
105.8940 0.482
105.9242 0.330
105.9545 -0.291
105.9848 0.338
106.0151 0.342
106.0454 -0.278
106.0756 -0.064
106.1059 0.306
106.1362 0.104
106.1665 0.110
106.1967 0.013
106.2270 0.176
106.2573 -0.493
106.2876 -0.130
106.3179 0.183
106.3481 0.235
106.3784 -0.442
106.4087 0.080
106.4390 0.029
106.4693 0.239
106.4995 0.240
106.5298 0.138
106.5601 0.401
106.5904 -0.221
106.6206 -0.113
106.6509 0.046
106.6812 0.103
106.7115 0.315
106.7418 -0.045
106.7720 0.377
106.8023 -0.191
106.8326 -0.029
106.8629 -0.075
106.8932 1.026
106.9234 0.251
106.9537 -0.054
106.9840 0.162
107.0143 -0.091
107.0445 -0.239
107.0748 0.074
107.1051 -0.030
107.1354 0.491
107.1657 0.075
107.1959 -0.080
107.2262 0.130
107.2565 0.341
107.2868 0.760
107.3171 0.710
107.3473 0.505
107.3776 0.144
107.4079 0.147
107.4382 1.141
107.4684 0.521
107.4987 0.109
107.5290 1.104
107.5593 0.328
107.5896 -0.187
107.6198 -0.389
107.6501 0.230
107.6804 0.329
107.7107 0.220
107.7410 0.685
107.7712 0.004
107.8015 0.052
107.8318 0.361
107.8621 0.202
107.8923 0.408
107.9226 0.458
107.9529 0.299
107.9832 0.715
108.0135 0.818
108.0437 -0.173
108.0740 0.295
108.1043 0.087
108.1346 0.244
108.1649 -0.173
108.1951 0.401
108.2254 -0.170
108.2557 0.196
108.2860 -0.010
108.3163 0.773
108.3465 0.255
108.3768 -0.158
108.4071 -0.259
108.4374 0.198
108.4676 0.291
108.4979 0.072
108.5282 0.217
108.5585 -0.106
108.5888 0.457
108.6190 0.135
108.6493 0.022
108.6796 -0.091
108.7099 -0.360
108.7402 0.569
108.7704 -0.220
108.8007 -0.123
108.8310 0.078
108.8613 0.124
108.8915 0.221
108.9218 0.059
108.9521 -0.415
108.9824 -0.006
109.0127 0.299
109.0429 0.084
109.0732 0.338
109.1035 0.123
109.1338 -0.247
109.1641 0.268
109.1943 -0.049
109.2246 0.675
109.2549 -0.214
109.2852 0.094
109.3154 0.142
109.3457 0.452
109.3760 0.032
109.4063 0.030
109.4366 -0.441
109.4668 0.016
109.4971 0.005
109.5274 -0.214
109.5577 0.661
109.5880 0.599
109.6182 0.433
109.6485 -0.306
109.6788 -0.054
109.7091 0.145
109.7393 0.762
109.7696 0.285
109.7999 -0.087
109.8302 0.375
109.8605 0.733
109.8907 -0.263
109.9210 0.460
109.9513 -0.223
109.9816 0.449
110.0119 0.131
110.0421 0.491
110.0724 0.070
110.1027 0.378
110.1330 0.583
110.1632 0.424
110.1935 0.837
110.2238 0.939
110.2541 0.208
110.2844 0.675
110.3146 0.048
110.3449 0.203
110.3752 0.151
110.4055 0.306
110.4358 0.827
110.4660 -0.110
110.4963 0.568
110.5266 0.465
110.5569 0.362
110.5871 1.145
110.6174 0.626
110.6477 0.004
110.6780 -0.254
110.7083 0.322
110.7385 0.221
110.7688 -0.087
110.7991 0.282
110.8294 0.547
110.8597 0.135
110.8899 0.192
110.9202 0.250
110.9505 0.360
110.9808 0.367
111.0110 -0.043
111.0413 -0.036
111.0716 -0.237
111.1019 -0.177
111.1322 -0.065
111.1624 -0.108
111.1927 0.057
111.2230 -0.090
111.2533 0.076
111.2836 -0.227
111.3138 -0.060
111.3441 0.471
111.3744 -0.559
111.4047 0.285
111.4350 0.141
111.4652 0.049
111.4955 0.113
111.5258 0.022
111.5561 0.608
111.5863 -0.212
111.6166 -0.250
111.6469 -0.046
111.6772 0.366
111.7075 0.466
111.7377 -0.266
111.7680 0.199
111.7983 0.196
111.8286 0.194
111.8589 -0.277
111.8891 0.034
111.9194 -0.228
111.9497 0.344
111.9800 -0.230
112.0102 -0.074
112.0405 0.082
112.0708 -0.334
112.1011 -0.021
112.1314 0.032
112.1616 0.190
112.1919 0.244
112.2222 -0.483
112.2525 -0.064
112.2828 0.199
112.3130 0.098
112.3433 -0.107
112.3736 -0.624
112.4039 0.153
112.4341 -0.007
112.4644 -0.218
112.4947 0.351
112.5250 -0.068
112.5553 0.138
112.5855 0.032
112.6158 -0.282
112.6461 0.446
112.6764 -0.180
112.7067 0.080
112.7369 -0.025
112.7672 -0.285
112.7975 0.074
112.8278 -0.348
112.8580 0.116
112.8883 0.163
112.9186 0.055
112.9489 0.312
112.9792 0.100
113.0094 -0.372
113.0397 0.406
113.0700 -0.273
113.1003 0.037
113.1306 0.140
113.1608 0.243
113.1911 -0.435
113.2214 0.189
113.2517 -0.176
113.2819 0.189
113.3122 0.346
113.3425 0.242
113.3728 -0.382
113.4031 0.089
113.4333 0.039
113.4636 -0.063
113.4939 0.148
113.5242 0.255
113.5545 -0.055
113.5847 0.001
113.6150 -0.255
113.6453 0.004
113.6756 -0.414
113.7058 0.054
113.7361 0.158
113.7664 0.262
113.7967 0.315
113.8270 -0.154
113.8572 -0.465
113.8875 0.214
113.9178 0.215
113.9481 -0.095
113.9784 0.220
114.0086 0.223
114.0389 -0.139
114.0692 0.021
114.0995 -0.183
114.1298 -0.023
114.1600 -0.174
114.1903 -0.065
114.2206 -0.164
114.2509 -0.106
114.2811 0.056
114.3114 -0.250
114.3417 -0.158
114.3720 0.246
114.4023 0.443
114.4325 0.744
114.4628 0.316
114.4931 0.514
114.5234 -0.069
114.5537 0.077
114.5839 -0.297
114.6142 0.319
114.6445 0.362
114.6748 -0.220
114.7050 -0.228
114.7353 0.442
114.7656 -0.243
114.7959 0.375
114.8262 0.056
114.8564 0.206
114.8867 0.147
114.9170 0.402
114.9473 0.032
114.9776 -0.702
115.0078 0.010
115.0381 0.358
115.0684 0.185
115.0987 1.054
115.1289 0.309
115.1592 -0.332
115.1895 -0.190
115.2198 0.159
115.2501 -0.376
115.2803 0.287
115.3106 0.430
115.3409 0.208
115.3712 0.143
115.4015 -0.182
115.4317 0.378
115.4620 0.210
115.4923 0.250
115.5226 0.135
115.5528 0.072
115.5831 0.739
115.6134 0.416
115.6437 0.719
115.6740 0.918
115.7042 0.856
115.7345 1.108
115.7648 0.735
115.7951 0.883
115.8254 1.240
115.8556 0.348
115.8859 0.705
115.9162 0.907
115.9465 0.797
115.9767 1.364
116.0070 0.837
116.0373 0.780
116.0676 1.192
116.0979 0.771
116.1281 1.183
116.1584 0.763
116.1887 1.280
116.2190 0.600
116.2493 1.535
116.2795 1.116
116.3098 1.479
116.3401 0.592
116.3704 1.580
116.4006 0.069
116.4309 1.266
116.4612 1.370
116.4915 1.006
116.5218 1.059
116.5520 0.799
116.5823 1.321
116.6126 1.323
116.6429 0.856
116.6732 0.598
116.7034 0.549
116.7337 0.968
116.7640 0.659
116.7943 0.663
116.8245 0.094
116.8548 0.047
116.8851 -0.209
116.9154 0.317
116.9457 0.218
116.9759 0.172
117.0062 0.126
117.0365 0.237
117.0668 -0.016
117.0971 0.616
117.1273 0.259
117.1576 -0.149
117.1879 -0.193
117.2182 0.545
117.2485 -0.019
117.2787 0.095
117.3090 -0.208
117.3393 0.115
117.3696 0.438
117.3998 0.657
117.4301 0.148
117.4604 -0.101
117.4907 -0.246
117.5210 -0.285
117.5512 0.300
117.5815 0.000
117.6118 -0.404
117.6421 0.183
117.6724 0.613
117.7026 -0.206
117.7329 -0.765
117.7632 0.344
117.7935 0.359
117.8237 0.010
117.8540 -0.235
117.8843 -0.271
117.9146 -0.255
117.9449 -0.188
117.9751 0.505
118.0054 -0.155
118.0357 0.122
118.0660 -0.017
118.0963 -0.260
118.1265 -0.043
118.1568 -0.034
118.1871 0.235
118.2174 -0.119
118.2476 -0.109
118.2779 -0.255
118.3082 -0.103
118.3385 0.153
118.3688 -0.059
118.3990 -0.271
118.4293 0.195
118.4596 0.140
118.4899 -0.123
118.5202 -0.072
118.5504 0.186
118.5807 0.133
118.6110 -0.389
118.6413 0.184
118.6715 0.027
118.7018 0.028
118.7321 0.028
118.7624 0.342
118.7927 0.603
118.8229 -0.072
118.8532 0.138
118.8835 -0.120
118.9138 -0.430
118.9441 0.250
118.9743 0.098
119.0046 0.258
119.0349 -0.311
119.0652 -0.213
119.0954 0.667
119.1257 -0.276
119.1560 -0.021
119.1863 -0.077
119.2166 0.075
119.2468 -0.033
119.2771 0.120
119.3074 0.273
119.3377 -0.511
119.3680 0.163
119.3982 0.474
119.4285 -0.049
119.4588 -0.206
119.4891 -0.155
119.5193 -0.156
119.5496 -0.260
119.5799 -0.209
119.6102 0.208
119.6405 0.261
119.6707 -0.363
119.7010 -0.216
119.7313 0.035
119.7616 -0.234
119.7919 -0.295
119.8221 0.426
119.8524 -0.415
119.8827 -0.266
119.9130 -0.181
119.9433 0.113
119.9735 -0.271
120.0038 0.000
