'Id: "" Comment: "" Operator: "Lab Manager" Anode: "Cu" Scantype: "Locked Coupled" TimePerStep: "19.2" X: "9999" Y: "9999" Z: "9999" 
10.0015 0.000
10.0318 0.101
10.0620 -0.059
10.0923 -1.208
10.1226 0.036
10.1529 0.186
10.1832 -0.446
10.2134 -0.295
10.2437 0.115
10.2740 -0.672
10.3043 0.781
10.3346 0.411
10.3648 0.302
10.3951 0.817
10.4254 -0.125
10.4557 -0.338
10.4859 -0.499
10.5162 0.230
10.5465 -0.447
10.5768 0.595
10.6071 1.429
10.6373 0.492
10.6676 0.337
10.6979 0.546
10.7282 0.547
10.7585 -0.180
10.7887 -0.439
10.8190 0.708
10.8493 0.033
10.8796 1.076
10.9098 0.089
10.9401 1.029
10.9704 -0.167
11.0007 0.826
11.0310 -0.213
11.0612 0.571
11.0915 -0.103
11.1218 0.213
11.1521 -0.201
11.1824 0.793
11.2126 0.328
11.2429 0.904
11.2732 -0.446
11.3035 0.496
11.3337 0.605
11.3640 -0.016
11.3943 -0.115
11.4246 -0.110
11.4549 -0.209
11.4851 -0.048
11.5154 -0.199
11.5457 0.432
11.5760 -0.188
11.6063 0.079
11.6365 -0.124
11.6668 0.768
11.6971 0.306
11.7274 0.052
11.7577 0.319
11.7879 0.221
11.8182 0.645
11.8485 0.340
11.8788 0.399
11.9090 -0.166
11.9393 -0.627
11.9696 0.106
11.9999 0.580
12.0302 0.949
12.0604 0.277
12.0907 0.439
12.1210 0.028
12.1513 0.606
12.1816 -0.013
12.2118 1.086
12.2421 0.207
12.2724 0.526
12.3027 -0.197
12.3329 -0.399
12.3632 0.233
12.3935 0.292
12.4238 0.351
12.4541 0.983
12.4843 -0.208
12.5146 0.164
12.5449 -0.349
12.5752 0.492
12.6055 -0.593
12.6357 0.769
12.6660 -0.264
12.6963 0.786
12.7266 0.378
12.7568 0.855
12.7871 -0.334
12.8174 0.352
12.8477 0.518
12.8780 0.059
12.9082 -0.140
12.9385 -0.547
12.9688 0.192
12.9991 0.098
13.0294 0.369
13.0596 0.327
13.0899 0.390
13.1202 0.661
13.1505 -0.734
13.1807 0.162
13.2110 -0.243
13.2413 0.133
13.2716 -0.012
13.3019 -0.209
13.3321 0.480
13.3624 -0.289
13.3927 0.192
13.4230 0.152
13.4533 -0.095
13.4835 -0.343
13.5138 0.451
13.5441 0.516
13.5744 -0.252
13.6046 0.699
13.6349 0.087
13.6652 0.153
13.6955 0.427
13.7258 -0.079
13.7560 0.299
13.7863 -0.103
13.8166 -0.036
13.8469 -0.647
13.8772 -0.023
13.9074 0.080
13.9377 -0.077
13.9680 0.808
13.9983 -0.026
14.0285 0.286
14.0588 0.233
14.0891 0.025
14.1194 0.286
14.1497 0.338
14.1799 0.390
14.2102 0.287
14.2405 0.392
14.2708 -0.128
14.3011 -0.023
14.3313 -0.803
14.3616 -0.024
14.3919 -0.078
14.4222 0.649
14.4524 0.178
14.4827 0.177
14.5130 0.071
14.5433 0.538
14.5736 -0.192
14.6038 0.536
14.6341 0.015
14.6644 0.379
14.6947 0.118
14.7250 -0.143
14.7552 -0.195
14.7855 -0.195
14.8158 0.430
14.8461 0.118
14.8764 -0.246
14.9066 -0.454
14.9369 0.640
14.9672 0.693
14.9975 0.903
15.0277 0.019
15.0580 -0.032
15.0883 0.074
15.1186 0.076
15.1489 0.703
15.1791 0.236
15.2094 -0.178
15.2397 -0.020
15.2700 -0.121
15.3003 0.506
15.3305 -0.012
15.3608 0.564
15.3911 0.568
15.4214 -0.314
15.4516 0.627
15.4819 0.891
15.5122 -0.043
15.5425 -0.195
15.5728 0.174
15.6030 0.230
15.6333 -0.807
15.6636 0.604
15.6939 0.140
15.7242 0.718
15.7544 -0.266
15.7847 0.156
15.8150 -0.776
15.8453 -0.202
15.8755 0.163
15.9058 0.425
15.9361 0.270
15.9664 0.115
15.9967 -0.613
16.0269 -0.090
16.0572 0.328
16.0875 0.539
16.1178 0.541
16.1481 -0.186
16.1783 1.171
16.2086 -0.285
16.2389 0.187
16.2692 -0.070
16.2994 0.402
16.3297 -0.064
16.3600 0.356
16.3903 0.256
16.4206 0.416
16.4508 -0.517
16.4811 0.060
16.5114 -0.248
16.5417 0.694
16.5720 -0.343
16.6022 -0.234
16.6325 -0.386
16.6628 0.245
16.6931 0.146
16.7233 0.724
16.7536 0.261
16.7839 -0.358
16.8142 -0.304
16.8445 0.324
16.8747 0.170
16.9050 0.173
16.9353 0.228
16.9656 0.023
16.9959 0.442
17.0261 0.185
17.0564 0.189
17.0867 -0.016
17.1170 0.613
17.1472 0.461
17.1775 0.205
17.2078 -0.207
17.2381 0.474
17.2684 0.323
17.2986 0.119
17.3289 0.437
17.3592 0.025
17.3895 -0.230
17.4198 0.922
17.4500 0.042
17.4803 -0.317
17.5106 0.054
17.5409 -0.200
17.5712 -0.402
17.6014 0.438
17.6317 -0.285
17.6620 0.659
17.6923 -0.323
17.7225 0.101
17.7528 0.160
17.7831 -0.249
17.8134 -0.137
17.8437 0.183
17.8739 0.451
17.9042 0.980
17.9345 -0.157
17.9648 0.580
17.9951 0.329
18.0253 0.077
18.0556 0.294
18.0859 0.251
18.1162 0.209
18.1464 -0.563
18.1767 -0.248
18.2070 0.537
18.2373 0.227
18.2676 0.387
18.2978 -0.286
18.3281 0.342
18.3584 0.242
18.3887 -0.066
18.4190 0.146
18.4492 -0.110
18.4795 0.259
18.5098 -0.152
18.5401 0.113
18.5703 1.212
18.6006 0.175
18.6309 0.233
18.6612 -0.230
18.6915 -0.173
18.7217 -0.323
18.7520 -0.064
18.7823 0.871
18.8126 -0.224
18.8429 -0.173
18.8731 0.346
18.9034 0.658
18.9337 0.240
18.9640 -0.125
18.9942 -0.074
19.0245 0.239
19.0548 -0.230
19.0851 0.395
19.1154 -0.491
19.1456 0.759
19.1759 0.291
19.2062 -0.281
19.2365 0.084
19.2668 0.814
19.2970 0.555
19.3273 0.504
19.3576 -0.328
19.3879 0.507
19.4181 0.040
19.4484 0.198
19.4787 -0.165
19.5090 -0.214
19.5393 0.257
19.5695 0.520
19.5998 0.106
19.6301 -0.152
19.6604 0.059
19.6907 0.271
19.7209 -0.194
19.7512 0.122
19.7815 0.386
19.8118 0.285
19.8420 0.446
19.8723 0.085
19.9026 0.141
19.9329 -0.010
19.9632 0.255
19.9934 0.885
20.0237 -0.360
20.0540 0.530
20.0843 0.379
20.1146 -0.188
20.1448 0.182
20.1751 0.136
20.2054 0.454
20.2357 0.043
20.2659 0.258
20.2962 -0.152
20.3265 0.115
20.3568 0.226
20.3871 0.285
20.4173 0.500
20.4476 0.716
20.4779 0.411
20.5082 0.731
20.5385 0.166
20.5687 -0.087
20.5990 0.286
20.6293 -0.019
20.6596 -0.010
20.6899 0.102
20.7201 0.476
20.7504 -0.557
20.7807 0.494
20.8110 -0.070
20.8412 0.096
20.8715 0.522
20.9018 0.948
20.9321 0.281
20.9624 0.447
20.9926 0.666
21.0229 0.728
21.0532 0.530
21.0835 0.072
21.1138 -0.073
21.1440 -0.427
21.1743 0.035
21.2046 0.444
21.2349 0.021
21.2651 0.222
21.2954 0.684
21.3257 0.417
21.3560 0.203
21.3863 0.718
21.4165 0.607
21.4468 -0.232
21.4771 0.492
21.5074 -0.087
21.5377 0.742
21.5679 0.163
21.5982 0.159
21.6285 0.831
21.6588 0.253
21.6890 0.145
21.7193 0.401
21.7496 -0.281
21.7799 0.236
21.8102 0.701
21.8404 0.541
21.8707 0.381
21.9010 0.274
21.9313 0.219
21.9616 0.216
21.9918 0.317
22.0221 0.054
22.0524 0.468
22.0827 0.414
22.1129 0.099
22.1432 0.409
22.1735 0.407
22.2038 0.093
22.2341 -0.481
22.2643 -0.121
22.2946 0.136
22.3249 -0.128
22.3552 -0.288
22.3855 0.437
22.4157 0.174
22.4460 -0.090
22.4763 0.220
22.5066 0.113
22.5368 0.475
22.5671 -0.049
22.5974 0.574
22.6277 -0.001
22.6580 0.518
22.6882 0.308
22.7185 -0.163
22.7488 0.305
22.7791 -0.061
22.8094 -0.375
22.8396 0.145
22.8699 -0.168
22.9002 -0.117
22.9305 -0.274
22.9607 0.038
22.9910 0.403
23.0213 -0.326
23.0516 0.247
23.0819 0.664
23.1121 0.299
23.1424 0.300
23.1727 -0.168
23.2030 0.458
23.2333 -0.374
23.2635 0.669
23.2938 -0.423
23.3241 0.672
23.3544 -0.003
23.3846 0.051
23.4149 0.261
23.4452 -0.101
23.4755 -0.047
23.5058 -0.096
23.5360 -0.146
23.5663 0.430
23.5966 0.537
23.6269 0.228
23.6572 -0.081
23.6874 0.495
23.7177 -0.022
23.7480 0.086
23.7783 -0.170
23.8086 0.147
23.8388 0.411
23.8691 0.051
23.8994 -0.100
23.9297 -0.147
23.9599 -0.351
23.9902 0.113
24.0205 0.108
24.0508 -0.366
24.0811 0.306
24.1113 -0.011
24.1416 0.453
24.1719 -0.072
24.2022 -0.493
24.2325 0.493
24.2627 0.072
24.2930 0.173
24.3233 -0.195
24.3536 0.374
24.3838 0.059
24.4141 -0.153
24.4444 0.574
24.4747 0.310
24.5050 -0.161
24.5352 0.201
24.5655 -0.061
24.5958 0.197
24.6261 0.299
24.6564 0.298
24.6866 0.400
24.7169 0.034
24.7472 -0.019
24.7775 0.344
24.8077 -0.282
24.8380 0.343
24.8683 -0.075
24.8986 0.238
24.9289 -0.179
24.9591 -0.179
24.9894 0.550
25.0197 0.185
25.0500 0.290
25.0803 -0.543
25.1105 0.031
25.1408 0.396
25.1711 0.449
25.2014 -0.174
25.2316 0.452
25.2619 -0.224
25.2922 0.299
25.3225 -0.272
25.3528 0.199
25.3830 -0.216
25.4133 -0.161
25.4436 0.362
25.4739 0.521
25.5042 -0.154
25.5344 0.058
25.5647 -0.356
25.5950 -0.040
25.6253 0.589
25.6555 -0.345
25.6858 -0.185
25.7161 -0.025
25.7464 0.031
25.7767 0.088
25.8069 0.144
25.8372 0.045
25.8675 0.154
25.8978 -0.206
25.9281 -0.097
25.9583 -0.300
25.9886 -0.041
26.0189 -0.355
26.0492 0.789
26.0794 -0.202
26.1097 0.162
26.1400 -0.464
26.1703 0.212
26.2006 0.108
26.2308 0.472
26.2611 0.315
26.2914 -0.414
26.3217 0.419
26.3520 0.472
26.3822 0.472
26.4125 -0.100
26.4428 0.109
26.4731 0.318
26.5034 -0.150
26.5336 0.320
26.5639 0.582
26.5942 -0.562
26.6245 -0.300
26.6547 -0.246
26.6850 0.590
26.7153 -0.710
26.7456 -0.134
26.7759 0.390
26.8061 -0.024
26.8364 -0.177
26.8667 0.347
26.8970 0.298
26.9273 0.042
26.9575 0.462
26.9878 0.831
27.0181 0.835
27.0484 0.006
27.0786 0.218
27.1089 -0.558
27.1392 -0.256
27.1695 -0.110
27.1998 0.504
27.2300 0.026
27.2603 0.068
27.2906 0.215
27.3209 0.153
27.3512 0.300
27.3814 0.707
27.4117 0.750
27.4420 0.117
27.4723 -0.100
27.5025 0.047
27.5328 -0.117
27.5631 0.031
27.5934 -0.186
27.6237 0.640
27.6539 0.580
27.6842 0.781
27.7145 -0.008
27.7448 0.349
27.7751 -0.126
27.8053 1.429
27.8356 -0.036
27.8659 0.114
27.8962 -0.049
27.9264 -0.107
27.9567 0.407
27.9870 0.193
28.0173 0.864
28.0476 0.026
28.0778 0.124
28.1081 0.484
28.1384 -0.199
28.1687 0.213
28.1990 0.052
28.2292 -0.005
28.2595 -0.113
28.2898 0.247
28.3201 0.139
28.3503 0.395
28.3806 -0.286
28.4109 0.544
28.4412 0.124
28.4715 0.068
28.5017 0.221
28.5320 0.114
28.5623 0.528
28.5926 -0.100
28.6229 0.106
28.6531 0.364
28.6834 -0.003
28.7137 0.256
28.7440 0.462
28.7742 -0.008
28.8045 0.407
28.8348 -0.063
28.8651 0.092
28.8954 0.247
28.9256 0.038
28.9559 0.141
28.9862 -0.172
29.0165 -0.329
29.0468 -0.286
29.0770 0.642
29.1073 0.944
29.1376 0.050
29.1679 0.301
29.1981 -0.073
29.2284 0.231
29.2587 0.274
29.2890 -0.099
29.3193 -0.107
29.3495 -0.324
29.3798 0.397
29.4101 0.077
29.4404 -0.035
29.4707 -0.199
29.5009 0.002
29.5312 -0.057
29.5615 0.509
29.5918 0.137
29.6221 -0.182
29.6523 0.280
29.6826 0.899
29.7129 -0.097
29.7432 0.261
29.7734 0.203
29.8037 0.302
29.8340 -0.069
29.8643 0.030
29.8946 0.806
29.9248 -0.241
29.9551 -0.350
29.9854 -0.054
30.0157 0.503
30.0460 0.226
30.0762 -0.051
30.1065 0.142
30.1368 0.126
30.1671 0.058
30.1973 -0.165
30.2276 0.340
30.2579 -0.404
30.2882 0.362
30.3185 -0.642
30.3487 0.072
30.3790 0.058
30.4093 0.460
30.4396 0.394
30.4699 -0.349
30.5001 0.106
30.5304 0.352
30.5607 -0.078
30.5910 0.273
30.6212 0.469
30.6515 0.664
30.6818 0.911
30.7121 0.586
30.7424 1.355
30.7726 0.718
30.8029 0.653
30.8332 1.891
30.8635 1.671
30.8938 2.024
30.9240 0.450
30.9543 1.324
30.9846 2.354
31.0149 2.187
31.0451 2.645
31.0754 2.218
31.1057 3.353
31.1360 3.394
31.1663 4.061
31.1965 3.478
31.2268 4.145
31.2571 5.542
31.2874 7.251
31.3177 7.033
31.3479 8.430
31.3782 10.088
31.4085 10.443
31.4388 12.935
31.4690 15.166
31.4993 19.063
31.5296 21.555
31.5599 18.005
31.5902 20.758
31.6204 20.698
31.6507 21.576
31.6810 20.839
31.7113 18.019
31.7416 16.554
31.7718 13.838
31.8021 12.686
31.8324 10.023
31.8627 10.329
31.8929 9.489
31.9232 5.420
31.9535 4.841
31.9838 5.617
32.0141 3.372
32.0443 3.314
32.0746 4.038
32.1049 3.147
32.1352 2.621
32.1655 2.616
32.1957 1.987
32.2260 1.670
32.2563 0.832
32.2866 1.661
32.3169 0.719
32.3471 1.393
32.3774 1.024
32.4077 0.708
32.4380 0.913
32.4682 -0.080
32.4985 0.959
32.5288 0.018
32.5591 0.380
32.5894 -0.091
32.6196 -0.094
32.6499 -0.408
32.6802 0.475
32.7105 -0.152
32.7408 0.471
32.7710 0.469
32.8013 -0.417
32.8316 0.883
32.8619 -0.368
32.8921 0.048
32.9224 0.672
32.9527 -0.058
32.9830 -0.214
33.0133 0.046
33.0435 -0.527
33.0738 0.514
33.1041 -0.527
33.1344 -0.006
33.1647 0.203
33.1949 0.047
33.2252 -0.369
33.2555 -0.420
33.2858 0.205
33.3160 0.049
33.3463 -0.316
33.3766 -0.420
33.4069 -0.112
33.4372 -0.376
33.4674 -0.224
33.4977 -0.384
33.5280 -0.231
33.5583 0.078
33.5886 0.856
33.6188 -0.710
33.6491 -0.244
33.6794 0.847
33.7097 0.792
33.7399 1.362
33.7702 1.204
33.8005 1.358
33.8308 1.408
33.8611 2.760
33.8913 2.550
33.9216 1.768
33.9519 3.172
33.9822 3.171
34.0125 4.004
34.0427 5.253
34.0730 6.606
34.1033 9.418
34.1336 11.605
34.1638 13.220
34.1941 17.959
34.2244 24.053
34.2547 25.355
34.2850 27.595
34.3152 23.950
34.3455 21.607
34.3758 15.619
34.4061 14.995
34.4364 11.090
34.4666 9.164
34.4969 5.728
34.5272 5.313
34.5575 6.669
34.5877 4.588
34.6180 2.663
34.6483 1.624
34.6786 2.616
34.7089 2.202
34.7391 1.424
34.7694 2.104
34.7997 0.701
34.8300 1.173
34.8603 2.114
34.8905 1.024
34.9208 0.924
34.9511 1.292
34.9814 1.505
35.0116 0.780
35.0419 2.451
35.0722 0.529
35.1025 1.367
35.1328 1.059
35.1630 1.221
35.1933 1.643
35.2236 0.763
35.2539 2.227
35.2842 1.399
35.3144 0.936
35.3447 2.401
35.3750 2.251
35.4053 1.372
35.4356 3.097
35.4658 3.052
35.4961 3.476
35.5264 3.170
35.5567 3.646
35.5869 4.122
35.6172 5.224
35.6475 5.961
35.6778 6.385
35.7081 6.706
35.7383 5.672
35.7686 8.910
35.7989 8.814
35.8292 11.427
35.8595 13.936
35.8897 14.414
35.9200 16.611
35.9503 20.162
35.9806 23.401
36.0108 25.129
36.0411 27.066
36.0714 27.545
36.1017 29.794
36.1320 28.242
36.1622 26.899
36.1925 27.639
36.2228 22.858
36.2531 22.088
36.2834 17.880
36.3136 17.943
36.3439 13.319
36.3742 12.446
36.4045 11.520
36.4347 9.397
36.4650 7.950
36.4953 6.556
36.5256 5.840
36.5559 5.800
36.5861 5.136
36.6164 3.691
36.6467 2.975
36.6770 2.988
36.7073 2.845
36.7375 1.400
36.7678 1.987
36.7981 2.730
36.8284 2.171
36.8586 2.029
36.8889 1.054
36.9192 0.965
36.9495 0.719
36.9798 1.880
37.0100 1.114
37.0403 1.389
37.0706 0.519
37.1009 0.743
37.1312 -0.075
37.1614 0.306
37.1917 1.051
37.2220 1.484
37.2523 0.250
37.2825 0.319
37.3128 -0.133
37.3431 0.040
37.3734 0.005
37.4037 0.387
37.4339 0.196
37.4642 0.370
37.4945 -0.342
37.5248 -0.116
37.5551 0.371
37.5853 1.014
37.6156 0.720
37.6459 0.270
37.6762 0.184
37.7064 0.151
37.7367 -0.351
37.7670 0.085
37.7973 0.261
37.8276 0.332
37.8578 0.039
37.8881 0.684
37.9184 -0.234
37.9487 0.151
37.9790 0.484
38.0092 0.244
38.0395 0.213
38.0698 0.390
38.1001 0.150
38.1304 0.484
38.1606 -0.693
38.1909 0.214
38.2212 0.287
38.2515 -0.680
38.2817 -0.294
38.3120 0.074
38.3423 0.286
38.3726 0.394
38.4029 0.398
38.4331 0.350
38.4634 0.563
38.4937 -0.214
38.5240 0.051
38.5543 0.316
38.5845 0.477
38.6148 0.066
38.6451 0.123
38.6754 0.129
38.7056 0.082
38.7359 0.088
38.7662 -0.323
38.7965 -0.112
38.8268 0.620
38.8570 -0.367
38.8873 -0.103
38.9176 0.264
38.9479 -0.097
38.9782 0.323
39.0084 -0.402
39.0387 0.226
39.0690 -0.238
39.0993 0.026
39.1295 0.499
39.1598 0.035
39.1901 0.248
39.2204 -0.008
39.2507 -0.055
39.2809 -0.102
39.3112 -0.149
39.3415 0.117
39.3718 -0.086
39.4021 0.441
39.4323 0.447
39.4626 -0.068
39.4929 0.303
39.5232 0.049
39.5534 0.316
39.5837 -0.355
39.6140 0.433
39.6443 -0.080
39.6746 -0.021
39.7048 0.195
39.7351 0.306
39.7654 0.262
39.7957 -0.355
39.8260 -0.191
39.8562 0.130
39.8865 0.190
39.9168 -0.218
39.9471 -0.261
39.9773 0.104
40.0076 0.000
40.0379 0.470
40.0682 0.419
40.0985 0.004
40.1287 -0.516
40.1590 0.215
40.1893 0.165
40.2196 0.167
40.2499 -0.091
40.2801 0.275
40.3104 -0.035
40.3407 0.280
40.3710 0.127
40.4012 0.494
40.4315 0.341
40.4618 0.136
40.4921 0.087
40.5224 0.091
40.5526 0.147
40.5829 0.099
40.6132 0.155
40.6435 -0.049
40.6738 -0.305
40.7040 0.637
40.7343 0.537
40.7646 0.021
40.7949 0.078
40.8251 0.084
40.8554 0.193
40.8857 0.303
40.9160 0.100
40.9463 0.418
40.9765 0.268
41.0068 -0.038
41.0371 -0.188
41.0674 0.912
41.0977 -0.123
41.1279 0.092
41.1582 -0.213
41.1885 0.002
41.2188 0.166
41.2491 0.121
41.2793 0.337
41.3096 0.085
41.3399 0.249
41.3702 -0.264
41.4004 -0.261
41.4307 0.263
41.4610 -0.307
41.4913 -0.096
41.5216 0.064
41.5518 -0.245
41.5821 0.071
41.6124 -0.289
41.6427 -0.086
41.6730 -0.144
41.7032 0.112
41.7335 0.315
41.7638 0.519
41.7941 0.463
41.8243 0.562
41.8546 0.246
41.8849 -0.175
41.9152 0.030
41.9455 0.390
41.9757 0.022
42.0060 0.227
42.0363 -0.088
42.0666 0.221
42.0969 0.270
42.1271 0.059
42.1574 0.265
42.1877 0.107
42.2180 0.052
42.2482 -0.002
42.2785 -0.004
42.3088 0.047
42.3391 -0.111
42.3694 -0.060
42.3996 -0.062
42.4299 0.510
42.4602 -0.064
42.4905 0.092
42.5208 -0.013
42.5510 0.039
42.5813 0.143
42.6116 0.038
42.6419 0.143
42.6721 0.247
42.7024 0.039
42.7327 0.144
42.7630 0.197
42.7933 -0.167
42.8235 -0.010
42.8538 0.044
42.8841 -0.372
42.9144 0.359
42.9447 -0.212
42.9749 0.415
43.0052 -0.156
43.0355 -0.206
43.0658 0.057
43.0960 0.007
43.1263 0.218
43.1566 -0.039
43.1869 0.016
43.2172 0.019
43.2474 -0.342
43.2777 -0.035
43.3080 0.012
43.3383 0.268
43.3686 0.420
43.3988 0.051
43.4291 -0.005
43.4594 -0.061
43.4897 0.092
43.5199 -0.068
43.5502 0.189
43.5805 0.342
43.6108 0.026
43.6411 0.388
43.6713 -0.188
43.7016 -0.034
43.7319 0.120
43.7622 -0.247
43.7925 -0.249
43.8227 0.271
43.8530 0.009
43.8833 -0.253
43.9136 0.580
43.9439 0.579
43.9741 0.474
44.0044 0.161
44.0347 -0.099
44.0650 0.526
44.0952 0.109
44.1255 -0.203
44.1558 0.474
44.1861 0.058
44.2164 -0.306
44.2466 0.216
44.2769 0.217
44.3072 0.218
44.3375 0.011
44.3678 -0.248
44.3980 0.066
44.4283 -0.244
44.4586 0.279
44.4889 -0.500
44.5191 0.127
44.5494 0.129
44.5797 -0.233
44.6100 0.031
44.6403 -0.018
44.6705 -0.067
44.7008 0.249
44.7311 0.252
44.7614 0.256
44.7917 0.051
44.8219 0.263
44.8522 0.111
44.8825 -0.145
44.9128 0.016
44.9430 -0.240
44.9733 -0.087
45.0036 0.430
45.0339 0.166
45.0642 -0.202
45.0944 0.160
45.1247 -0.051
45.1550 0.154
45.1853 -0.265
45.2156 -0.166
45.2458 0.349
45.2761 0.291
45.3064 -0.339
45.3367 -0.188
45.3669 0.432
45.3972 -0.094
45.4275 0.474
45.4578 0.209
45.4881 -0.056
45.5183 0.096
45.5486 0.509
45.5789 0.140
45.6092 0.241
45.6395 -0.180
45.6697 -0.027
45.7000 0.543
45.7303 -0.137
45.7606 -0.244
45.7908 0.430
45.8211 -0.250
45.8514 0.060
45.8817 -0.254
45.9120 -0.212
45.9422 0.090
45.9725 0.497
46.0028 -0.293
46.0331 0.322
46.0634 0.365
46.0936 -0.060
46.1239 -0.277
46.1542 0.287
46.1845 0.278
46.2147 -0.355
46.2450 0.262
46.2753 0.254
46.3056 -0.587
46.3359 0.395
46.3661 0.387
46.3964 0.015
46.4267 0.164
46.4570 0.314
46.4873 0.150
46.5175 -0.169
46.5478 0.137
46.5781 0.027
46.6084 0.750
46.6386 0.327
46.6689 0.321
46.6992 0.680
46.7295 0.674
46.7598 0.773
46.7900 0.507
46.8203 0.763
46.8506 1.070
46.8809 0.337
46.9112 0.749
46.9414 1.057
46.9717 1.313
47.0020 1.153
47.0323 1.982
47.0626 1.978
47.0928 1.662
47.1231 2.492
47.1534 2.020
47.1837 3.892
47.2139 4.201
47.2442 4.303
47.2745 3.936
47.3048 4.089
47.3351 4.816
47.3653 5.752
47.3956 5.281
47.4259 4.810
47.4562 4.861
47.4865 5.432
47.5167 4.337
47.5470 4.596
47.5773 4.283
47.6076 2.980
47.6378 1.938
47.6681 1.937
47.6984 1.260
47.7287 1.364
47.7590 1.676
47.7892 0.999
47.8195 0.843
47.8498 1.364
47.8801 0.636
47.9104 0.168
47.9406 0.377
47.9709 0.639
48.0012 0.275
48.0315 0.537
48.0617 0.331
48.0920 0.020
48.1223 -0.134
48.1526 0.024
48.1829 0.078
48.2131 -0.076
48.2434 0.396
48.2737 0.242
48.3040 0.297
48.3343 -0.116
48.3645 -0.113
48.3948 -0.162
48.4251 -0.106
48.4554 -0.050
48.4856 -0.099
48.5159 -0.095
48.5462 -0.038
48.5765 -0.138
48.6068 0.127
48.6370 -0.077
48.6673 -0.020
48.6976 -0.119
48.7279 -0.218
48.7582 -0.161
48.7884 0.105
48.8187 -0.045
48.8490 -0.039
48.8793 0.331
48.9095 -0.236
48.9398 0.031
48.9701 -0.275
49.0004 -0.061
49.0307 -0.108
49.0609 0.158
49.0912 0.163
49.1215 -0.144
49.1518 -0.033
49.1821 -0.027
49.2123 0.187
49.2426 -0.379
49.2729 0.461
49.3032 0.103
49.3334 0.006
49.3637 -0.196
49.3940 -0.136
49.4243 -0.442
49.4546 0.191
49.4848 0.303
49.5151 0.207
49.5454 0.058
49.5757 -0.663
49.6060 0.596
49.6362 -0.333
49.6665 -0.220
49.6968 0.049
49.7271 -0.254
49.7574 -0.308
49.7876 0.368
49.8179 0.367
49.8482 0.054
49.8785 0.418
49.9087 0.105
49.9390 0.261
49.9693 -0.051
49.9996 0.522
50.0299 -0.051
50.0601 0.054
50.0904 -0.050
50.1207 -0.101
50.1510 -0.048
50.1813 -0.047
50.2115 -0.254
50.2418 0.005
50.2721 -0.204
50.3024 0.264
50.3326 -0.049
50.3629 -0.206
50.3932 0.367
50.4235 0.054
50.4538 0.367
50.4840 0.054
50.5143 0.055
50.5446 0.003
50.5749 0.004
50.6052 0.005
50.6354 -0.306
50.6657 0.945
50.6960 -0.043
50.7263 -0.615
50.7565 0.168
50.7868 0.222
50.8171 -0.297
50.8474 0.018
50.8777 -0.084
50.9079 -0.081
50.9382 -0.287
50.9685 0.706
50.9988 0.084
51.0291 0.035
51.0593 0.038
51.0896 0.198
51.1199 -0.059
51.1502 0.414
51.1804 0.209
51.2107 0.109
51.2410 -0.303
51.2713 -0.090
51.3016 -0.190
51.3318 0.232
51.3621 -0.024
51.3924 0.034
51.4227 -0.013
51.4530 -0.112
51.4832 0.258
51.5135 -0.048
51.5438 0.114
51.5741 0.016
51.6043 -0.290
51.6346 -0.032
51.6649 -0.190
51.6952 0.173
51.7255 0.536
51.7557 0.118
51.7860 0.585
51.8163 0.428
51.8466 0.115
51.8769 0.478
51.9071 0.270
51.9374 0.217
51.9677 0.321
51.9980 0.008
52.0282 -0.148
52.0585 0.061
52.0888 -0.147
52.1191 0.062
52.1494 0.219
52.1796 0.168
52.2099 -0.092
52.2402 0.118
52.2705 0.067
52.3008 0.537
52.3310 0.435
52.3613 0.072
52.3916 -0.290
52.4219 -0.082
52.4521 0.282
52.4824 0.230
52.5127 0.073
52.5430 0.126
52.5733 0.074
52.6035 0.179
52.6338 -0.081
52.6641 -0.184
52.6944 0.650
52.7247 -0.078
52.7549 -0.076
52.7852 -0.127
52.8155 0.187
52.8458 0.085
52.8761 0.243
52.9063 0.454
52.9366 0.039
52.9669 0.094
52.9972 0.305
53.0274 0.360
53.0577 -0.210
53.0880 0.210
53.1183 -0.360
53.1486 0.477
53.1788 0.220
53.2091 0.068
53.2394 0.280
53.2697 -0.341
53.3000 -0.232
53.3302 -0.028
53.3605 0.436
53.3908 0.328
53.4211 0.116
53.4513 0.216
53.4816 0.109
53.5119 0.001
53.5422 0.050
53.5725 -0.213
53.6027 0.252
53.6330 -0.271
53.6633 0.351
53.6936 0.089
53.7239 0.034
53.7541 -0.593
53.7844 0.239
53.8147 -0.024
53.8450 0.027
53.8752 -0.027
53.9055 0.649
53.9358 -0.081
53.9661 -0.030
53.9964 0.386
54.0266 0.125
54.0569 -0.240
54.0872 -0.189
54.1175 0.019
54.1478 -0.190
54.1780 0.070
54.2083 0.174
54.2386 0.018
54.2689 -0.138
54.2991 -0.346
54.3294 0.175
54.3597 0.020
54.3900 -0.240
54.4203 -0.042
54.4505 -0.157
54.4808 0.249
54.5111 -0.074
54.5414 -0.084
54.5717 0.270
54.6019 -0.052
54.6322 0.251
54.6625 -0.019
54.6928 -0.185
54.7230 -0.142
54.7533 0.005
54.7836 0.153
54.8139 -0.012
54.8442 -0.177
54.8744 0.440
54.9047 -0.142
54.9350 0.111
54.9653 -0.053
54.9956 -0.217
55.0258 -0.121
55.0561 -0.128
55.0864 -0.083
55.1167 0.222
55.1469 0.267
55.1772 0.521
55.2075 0.462
55.2378 0.352
55.2681 0.085
55.2983 -0.077
55.3286 0.021
55.3589 -0.245
55.3892 0.113
55.4195 0.160
55.4497 0.207
55.4800 -0.059
55.5103 0.457
55.5406 0.348
55.5709 0.291
55.6011 0.339
55.6314 0.179
55.6617 0.643
55.6920 0.170
55.7222 0.479
55.7525 0.996
55.7828 0.732
55.8131 0.937
55.8434 1.194
55.8736 0.306
55.9039 1.605
55.9342 1.134
55.9645 0.975
55.9948 1.598
56.0250 1.595
56.0553 2.270
56.0856 1.852
56.1159 1.590
56.1461 2.265
56.1764 2.472
56.2067 2.263
56.2370 3.147
56.2673 3.667
56.2975 5.020
56.3278 5.436
56.3581 4.915
56.3884 6.842
56.4187 6.477
56.4489 6.113
56.4792 7.050
56.5095 6.322
56.5398 6.270
56.5700 5.333
56.6003 5.230
56.6306 4.867
56.6609 4.087
56.6912 4.348
56.7214 3.204
56.7517 2.008
56.7820 2.426
56.8123 1.699
56.8426 1.805
56.8728 0.870
56.9031 1.550
56.9334 1.813
56.9637 0.774
56.9939 0.829
57.0242 1.666
57.0545 0.732
57.0848 0.475
57.1151 0.114
57.1453 0.899
57.1756 0.226
57.2059 0.542
57.2362 0.182
57.2665 0.291
57.2967 0.347
57.3270 0.144
57.3573 0.149
57.3876 -0.055
57.4178 0.263
57.4481 0.112
57.4784 0.274
57.5087 -0.345
57.5390 0.130
57.5692 0.396
57.5995 -0.118
57.6298 -0.268
57.6601 -0.107
57.6904 -0.155
57.7206 -0.097
57.7509 0.324
57.7812 -0.035
57.8115 0.023
57.8417 0.028
57.8720 -0.018
57.9023 0.301
57.9326 -0.058
57.9629 -0.260
57.9931 -0.201
58.0234 0.222
58.0537 -0.448
58.0840 0.079
58.1143 -0.382
58.1445 0.042
58.1748 -0.055
58.2051 -0.308
58.2354 0.221
58.2656 -0.396
58.2959 -0.241
58.3262 0.019
58.3565 0.070
58.3868 0.121
58.4170 0.017
58.4473 -0.244
58.4776 -0.139
58.5079 -0.035
58.5382 0.173
58.5684 0.278
58.5987 -0.398
58.6290 -0.033
58.6593 -0.397
58.6896 0.073
58.7198 -0.238
58.7501 0.076
58.7804 -0.027
58.8107 -0.129
58.8409 -0.179
58.8712 0.031
58.9015 -0.071
58.9318 0.036
58.9621 0.091
58.9923 -0.115
59.0226 0.305
59.0529 -0.421
59.0832 -0.210
59.1135 -0.206
59.1437 0.058
59.1740 -0.199
59.2043 0.013
59.2346 -0.087
59.2648 0.334
59.2951 0.026
59.3254 -0.074
59.3557 0.087
59.3860 0.144
59.4162 -0.059
59.4465 -0.106
59.4768 0.003
59.5071 0.061
59.5374 -0.298
59.5676 0.177
59.5979 0.130
59.6282 -0.228
59.6585 0.039
59.6887 -0.111
59.7190 -0.417
59.7493 0.163
59.7796 0.326
59.8099 -0.396
59.8401 -0.232
59.8704 0.287
59.9007 -0.026
59.9310 -0.131
59.9613 0.389
59.9915 -0.132
60.0218 0.493
60.0521 -0.184
60.0824 -0.080
60.1126 0.285
60.1429 0.129
60.1732 -0.079
60.2035 0.026
60.2338 0.079
60.2640 -0.232
60.2943 -0.127
60.3246 -0.073
60.3549 -0.124
60.3852 0.294
60.4154 -0.173
60.4457 -0.171
60.4760 0.144
60.5063 0.199
60.5365 0.253
60.5668 0.412
60.5971 -0.054
60.6274 -0.103
60.6577 0.213
60.6879 -0.253
60.7182 0.376
60.7485 0.432
60.7788 -0.033
60.8091 -0.134
60.8393 -0.129
60.8696 0.135
60.8999 0.296
60.9302 0.144
60.9604 0.045
60.9907 -0.106
61.0210 -0.205
61.0513 0.737
61.0816 0.378
61.1118 0.071
61.1421 -0.235
61.1724 -0.089
61.2027 0.005
61.2330 0.413
61.2632 -0.065
61.2935 -0.179
61.3238 0.489
61.3541 -0.041
61.3844 0.263
61.4146 0.203
61.4449 0.351
61.4752 0.238
61.5055 0.022
61.5357 0.118
61.5660 0.423
61.5963 0.051
61.6266 0.199
61.6569 -0.120
61.6871 0.237
61.7174 0.126
61.7477 0.328
61.7780 0.842
61.8083 0.263
61.8385 0.413
61.8688 0.563
61.8991 0.088
61.9294 0.551
61.9596 0.597
61.9899 0.175
62.0202 0.795
62.0505 0.738
62.0808 0.472
62.1110 1.197
62.1413 0.567
62.1716 0.511
62.2019 0.819
62.2322 1.283
62.2624 1.436
62.2927 1.484
62.3230 1.428
62.3533 1.737
62.3835 1.942
62.4138 2.564
62.4441 2.457
62.4744 3.131
62.5047 3.493
62.5349 3.699
62.5652 4.113
62.5955 3.850
62.6258 5.307
62.6561 5.096
62.6863 5.668
62.7166 5.353
62.7469 5.196
62.7772 4.778
62.8074 4.464
62.8377 5.349
62.8680 4.463
62.8983 4.775
62.9286 4.618
62.9588 3.159
62.9891 3.628
63.0194 2.743
63.0497 3.055
63.0800 1.754
63.1102 1.598
63.1405 1.078
63.1708 1.235
63.2011 0.976
63.2313 0.925
63.2616 0.822
63.2919 0.772
63.3222 0.877
63.3525 0.567
63.3827 0.569
63.4130 0.571
63.4433 0.157
63.4736 0.003
63.5039 -0.255
63.5341 0.529
63.5644 0.272
63.5947 0.431
63.6250 0.174
63.6552 0.230
63.6855 0.285
63.7158 0.029
63.7461 0.033
63.7764 0.037
63.8066 0.145
63.8369 0.619
63.8672 0.050
63.8975 0.524
63.9278 -0.148
63.9580 -0.247
63.9883 0.069
64.0186 -0.031
64.0489 0.234
64.0791 -0.022
64.1094 0.087
64.1397 0.300
64.1700 -0.111
64.2003 0.102
64.2305 -0.205
64.2608 0.113
64.2911 -0.090
64.3214 -0.240
64.3517 -0.237
64.3819 0.183
64.4122 -0.179
64.4425 -0.071
64.4728 -0.171
64.5031 0.353
64.5333 -0.008
64.5636 -0.264
64.5939 -0.008
64.6242 -0.220
64.6544 -0.224
64.6847 0.293
64.7150 0.498
64.7453 -0.078
64.7756 -0.237
64.8058 -0.032
64.8361 0.017
64.8664 -0.246
64.8967 0.064
64.9270 0.010
64.9572 0.216
64.9875 0.318
65.0178 0.108
65.0481 -0.050
65.0783 0.261
65.1086 0.051
65.1389 0.154
65.1692 -0.212
65.1995 -0.265
65.2297 0.195
65.2600 0.238
65.2903 0.020
65.3206 -0.301
65.3509 0.367
65.3811 0.046
65.4114 -0.170
65.4417 -0.231
65.4720 0.438
65.5022 0.170
65.5325 -0.306
65.5628 -0.105
65.5931 -0.009
65.6234 -0.224
65.6536 0.081
65.6839 0.126
65.7142 0.276
65.7445 -0.147
65.7748 0.523
65.8050 0.101
65.8353 -0.010
65.8656 0.089
65.8959 0.604
65.9261 0.234
65.9564 0.072
65.9867 0.379
66.0170 0.166
66.0473 0.213
66.0775 0.208
66.1078 0.672
66.1381 0.043
66.1684 0.403
66.1987 0.451
66.2289 0.343
66.2592 -0.025
66.2895 0.492
66.3198 0.645
66.3500 0.693
66.3803 0.065
66.4106 0.583
66.4409 0.424
66.4712 0.421
66.5014 0.106
66.5317 -0.365
66.5620 -0.002
66.5923 -0.161
66.6226 0.098
66.6528 0.148
66.6831 0.564
66.7134 0.562
66.7437 0.249
66.7739 0.248
66.8042 -0.118
66.8345 -0.275
66.8648 -0.070
66.8951 -0.074
66.9253 -0.026
66.9556 0.127
66.9859 0.384
67.0162 -0.139
67.0465 0.066
67.0767 -0.041
67.1070 0.686
67.1373 0.110
67.1676 0.317
67.1978 0.314
67.2281 0.208
67.2584 0.050
67.2887 0.830
67.3190 0.672
67.3492 1.244
67.3795 0.410
67.4098 0.669
67.4401 1.450
67.4704 1.293
67.5006 1.553
67.5309 2.125
67.5612 1.761
67.5915 2.438
67.6218 2.334
67.6520 2.178
67.6823 3.168
67.7126 3.273
67.7429 2.128
67.7731 3.014
67.8034 4.057
67.8337 3.954
67.8640 3.435
67.8943 2.968
67.9245 2.761
67.9548 2.399
67.9851 2.401
68.0154 2.403
68.0457 2.510
68.0759 1.471
68.1062 2.151
68.1365 2.258
68.1668 1.480
68.1970 1.223
68.2273 1.591
68.2576 1.490
68.2879 1.390
68.3182 0.977
68.3484 0.981
68.3787 0.985
68.4090 0.677
68.4393 0.578
68.4696 0.739
68.4998 0.483
68.5301 1.061
68.5604 0.025
68.5907 1.176
68.6209 0.609
68.6512 0.354
68.6815 1.349
68.7118 1.147
68.7421 0.528
68.7723 1.629
68.8026 1.583
68.8329 1.069
68.8632 1.440
68.8935 1.135
68.9237 0.986
68.9540 1.306
68.9843 1.365
69.0146 0.904
69.0448 1.589
69.0751 2.066
69.1054 1.345
69.1357 1.145
69.1660 0.685
69.1962 0.641
69.2265 1.171
69.2568 0.659
69.2871 0.929
69.3174 1.146
69.3476 0.426
69.3779 0.436
69.4082 0.394
69.4385 0.716
69.4687 -0.003
69.4990 0.320
69.5293 0.018
69.5596 0.029
69.5899 -0.169
69.6201 0.363
69.6504 0.113
69.6807 0.281
69.7110 0.136
69.7413 -0.009
69.7715 -0.049
69.8018 -0.193
69.8321 -0.181
69.8624 0.144
69.8926 0.312
69.9229 0.064
69.9532 -0.287
69.9835 -0.075
70.0138 0.347
70.0440 -0.117
70.0743 0.148
70.1046 -0.107
70.1349 0.315
70.1652 -0.096
70.1954 0.066
70.2257 0.019
70.2560 -0.183
70.2863 0.188
70.3166 0.038
70.3468 0.044
70.3771 0.311
70.4074 -0.046
70.4377 0.169
70.4679 0.176
70.4982 -0.233
70.5285 -0.181
70.5588 0.027
70.5891 0.027
70.6193 -0.389
70.6496 0.445
70.6799 0.133
70.7102 0.446
70.7405 -0.022
70.7707 -0.177
70.8010 0.397
70.8313 -0.018
70.8616 0.088
70.8918 0.246
70.9221 -0.012
70.9524 0.198
70.9827 0.565
71.0130 -0.110
71.0432 -0.003
71.0735 -0.313
71.1038 0.211
71.1341 0.162
71.1644 0.061
71.1946 0.169
71.2249 -0.036
71.2552 0.488
71.2855 0.076
71.3157 0.028
71.3460 -0.124
71.3763 0.088
71.4066 0.093
71.4369 0.358
71.4671 -0.106
71.4974 -0.309
71.5277 0.425
71.5580 -0.090
71.5883 -0.241
71.6185 0.181
71.6488 0.239
71.6791 -0.119
71.7094 0.408
71.7396 -0.003
71.7699 -0.204
71.8002 0.000
71.8305 0.256
71.8608 0.148
71.8910 0.040
71.9213 0.193
71.9516 0.033
71.9819 0.394
72.0122 0.495
72.0424 0.388
72.0727 0.125
72.1030 0.383
72.1333 0.016
72.1635 0.326
72.1938 0.012
72.2241 -0.042
72.2544 0.008
72.2847 0.319
72.3149 0.474
72.3452 0.108
72.3755 0.523
72.4058 0.470
72.4361 0.313
72.4663 0.104
72.4966 0.468
72.5269 0.260
72.5572 0.155
72.5874 0.676
72.6177 -0.053
72.6480 -0.001
72.6783 0.312
72.7086 0.053
72.7388 0.574
72.7691 0.367
72.7994 0.212
72.8297 0.265
72.8600 0.319
72.8902 0.060
72.9205 0.270
72.9508 0.324
72.9811 0.430
73.0113 0.016
73.0416 -0.086
73.0719 -0.135
73.1022 0.024
73.1325 0.027
73.1627 -0.283
73.1930 0.294
73.2233 0.141
73.2536 0.040
73.2839 0.096
73.3141 -0.056
73.3444 0.000
73.3747 -0.204
73.4050 0.000
73.4353 -0.055
73.4655 0.046
73.4958 -0.061
73.5261 -0.064
73.5564 -0.015
73.5866 0.087
73.6169 0.085
73.6472 0.030
73.6775 0.237
73.7078 -0.026
73.7380 -0.079
73.7683 0.023
73.7986 0.282
73.8289 -0.344
73.8592 0.072
73.8894 0.071
73.9197 0.070
73.9500 0.017
73.9803 0.121
74.0105 0.225
74.0408 0.225
74.0711 0.173
74.1014 0.069
74.1317 -0.347
74.1619 -0.034
74.1922 -0.033
74.2225 0.072
74.2528 -0.344
74.2831 0.022
74.3133 -0.029
74.3436 0.129
74.3739 -0.234
74.4042 0.185
74.4344 0.551
74.4647 -0.019
74.4950 0.087
74.5253 -0.119
74.5556 -0.220
74.5858 0.408
74.6161 0.046
74.6464 0.101
74.6767 0.105
74.7070 -0.361
74.7372 -0.101
74.7675 0.211
74.7978 0.002
74.8281 0.054
74.8583 0.054
74.8886 -0.154
74.9189 -0.102
74.9492 0.107
74.9795 -0.049
75.0097 0.056
75.0400 -0.100
75.0703 0.422
75.1006 -0.045
75.1309 0.164
75.1611 0.010
75.1914 0.063
75.2217 -0.143
75.2520 0.328
75.2822 0.174
75.3125 0.280
75.3428 0.178
75.3731 -0.027
75.4034 -0.129
75.4336 -0.230
75.4639 0.132
75.4942 0.077
75.5245 0.231
75.5548 0.280
75.5850 0.122
75.6153 0.120
75.6456 0.274
75.6759 -0.196
75.7061 0.010
75.7364 -0.147
75.7667 0.164
75.7970 -0.150
75.8273 0.058
75.8575 -0.151
75.8878 0.369
75.9181 -0.100
75.9484 0.212
75.9787 0.212
76.0089 0.003
76.0392 -0.049
76.0695 -0.204
76.0998 0.050
76.1301 0.305
76.1603 0.247
76.1906 -0.123
76.2209 0.289
76.2512 0.180
76.2814 0.071
76.3117 -0.195
76.3420 0.426
76.3723 0.109
76.4026 0.261
76.4328 0.049
76.4631 0.149
76.4934 -0.011
76.5237 0.194
76.5540 0.034
76.5842 0.135
76.6145 0.184
76.6448 0.025
76.6751 0.230
76.7053 0.488
76.7356 0.486
76.7659 0.692
76.7962 0.221
76.8265 0.271
76.8567 -0.043
76.8870 0.320
76.9173 0.162
76.9476 0.578
76.9779 0.004
77.0081 0.315
77.0384 0.418
77.0687 -0.155
77.0990 0.417
77.1292 0.417
77.1595 -0.052
77.1898 0.000
77.2201 0.521
77.2504 0.522
77.2806 0.262
77.3109 0.158
77.3412 -0.049
77.3715 0.004
77.4018 0.161
77.4320 0.058
77.4623 0.008
77.4926 -0.095
77.5229 -0.093
77.5531 -0.039
77.5834 0.067
77.6137 0.070
77.6440 0.176
77.6743 -0.030
77.7045 -0.027
77.7348 -0.284
77.7651 0.025
77.7954 0.074
77.8257 0.435
77.8559 -0.297
77.8862 0.013
77.9165 -0.145
77.9468 0.425
77.9770 -0.306
78.0073 0.109
78.0376 -0.050
78.0679 -0.051
78.0982 -0.105
78.1284 -0.054
78.1587 -0.055
78.1890 -0.056
78.2193 -0.109
78.2496 0.046
78.2798 -0.058
78.3101 0.045
78.3404 -0.059
78.3707 0.045
78.4009 0.254
78.4312 -0.319
78.4615 -0.006
78.4918 -0.058
78.5221 -0.057
78.5523 0.048
78.5826 -0.211
78.6129 0.155
78.6432 0.000
78.6735 -0.103
78.7037 -0.101
78.7340 -0.047
78.7643 -0.149
78.7946 -0.199
78.8248 0.116
78.8551 -0.089
78.8854 0.018
78.9157 0.125
78.9460 -0.132
78.9762 0.028
79.0065 -0.333
79.0368 -0.017
79.0671 0.091
79.0974 -0.165
79.1276 0.203
79.1579 -0.157
79.1882 0.004
79.2185 0.217
79.2488 0.014
79.2790 -0.190
79.3093 -0.088
79.3396 -0.142
79.3699 -0.092
79.4001 0.166
79.4304 0.217
79.4607 0.267
79.4910 -0.047
79.5213 -0.048
79.5515 0.055
79.5818 -0.154
79.6121 -0.103
79.6424 0.001
79.6727 0.209
79.7029 0.313
79.7332 0.000
79.7635 0.000
79.7938 0.156
79.8240 0.001
79.8543 -0.051
79.8846 0.002
79.9149 -0.310
79.9452 0.001
79.9754 0.052
80.0057 -0.001
80.0360 0.050
80.0663 -0.108
80.0966 0.152
80.1268 0.152
80.1571 -0.109
80.1874 0.203
80.2177 -0.266
80.2479 0.047
80.2782 0.464
80.3085 0.100
80.3388 -0.108
80.3691 0.101
80.3993 0.310
80.4296 0.259
80.4599 0.000
80.4902 0.001
80.5205 -0.362
80.5507 0.001
80.5810 0.260
80.6113 -0.002
80.6416 -0.003
80.6718 -0.160
80.7021 -0.005
80.7324 -0.110
80.7627 0.046
80.7930 0.254
80.8232 0.202
80.8535 -0.111
80.8838 -0.007
80.9141 0.254
80.9444 -0.006
80.9746 0.203
81.0049 -0.005
81.0352 -0.004
81.0655 0.153
81.0957 0.103
81.1260 0.000
81.1563 0.470
81.1866 0.264
81.2169 0.370
81.2471 0.111
81.2774 0.009
81.3077 0.428
81.3380 0.118
81.3683 0.017
81.3985 0.228
81.4288 0.440
81.4591 -0.026
81.4894 -0.387
81.5196 0.028
81.5499 0.182
81.5802 0.285
81.6105 0.544
81.6408 -0.030
81.6710 0.021
81.7013 0.177
81.7316 0.020
81.7619 -0.032
81.7922 0.176
81.8224 -0.085
81.8527 0.280
81.8830 0.280
81.9133 0.385
81.9436 0.021
81.9738 0.125
82.0041 0.074
82.0344 0.075
82.0647 0.285
82.0949 -0.026
82.1252 0.392
82.1555 0.394
82.1858 -0.021
82.2161 0.033
82.2463 0.035
82.2766 0.037
82.3069 -0.168
82.3372 -0.010
82.3675 -0.267
82.3977 0.205
82.4280 0.156
82.4583 -0.154
82.4886 -0.098
82.5188 0.166
82.5491 0.014
82.5794 0.070
82.6097 0.126
82.6400 -0.130
82.6702 0.083
82.7005 0.139
82.7308 -0.116
82.7611 0.253
82.7914 0.102
82.8216 0.055
82.8519 0.477
82.8822 0.170
82.9125 -0.241
82.9427 0.078
82.9730 -0.176
83.0033 -0.071
83.0336 -0.018
83.0639 0.295
83.0941 0.140
83.1244 -0.014
83.1547 0.144
83.1850 0.145
83.2153 0.199
83.2455 -0.111
83.2758 0.256
83.3061 0.415
83.3364 0.105
83.3666 0.212
83.3969 -0.150
83.4272 0.634
83.4575 0.117
83.4878 0.172
83.5180 -0.032
83.5483 0.076
83.5786 0.080
83.6089 0.188
83.6392 0.661
83.6694 0.040
83.6997 0.097
83.7300 -0.159
83.7603 -0.164
83.7905 0.404
83.8208 0.139
83.8511 -0.021
83.8814 0.391
83.9117 -0.030
83.9419 0.175
83.9722 0.327
84.0025 0.219
84.0328 -0.201
84.0631 0.369
84.0933 0.365
84.1236 -0.054
84.1539 -0.109
84.1842 0.097
84.2144 0.146
84.2447 0.196
84.2750 0.142
84.3053 0.140
84.3356 0.242
84.3658 0.084
84.3961 0.134
84.4264 0.237
84.4567 0.132
84.4870 0.027
84.5172 -0.026
84.5475 0.077
84.5778 0.129
84.6081 0.024
84.6383 -0.028
84.6686 0.232
84.6989 -0.237
84.7292 0.180
84.7595 0.129
84.7897 0.233
84.8200 0.026
84.8503 0.235
84.8806 -0.233
84.9109 -0.023
84.9411 -0.126
84.9714 -0.176
85.0017 0.134
85.0320 0.133
85.0623 0.340
85.0925 0.026
85.1228 0.181
85.1531 0.024
85.1834 0.127
85.2136 0.127
85.2439 0.439
85.2742 0.230
85.3045 0.074
85.3348 0.283
85.3650 0.022
85.3953 -0.029
85.4256 0.023
85.4559 -0.132
85.4862 0.077
85.5164 0.338
85.5467 -0.233
85.5770 -0.023
85.6073 -0.074
85.6375 -0.176
85.6678 0.079
85.6981 -0.030
85.7284 -0.035
85.7587 0.169
85.7889 0.008
85.8192 0.317
85.8495 0.104
85.8798 0.048
85.9101 0.149
85.9403 0.197
85.9706 -0.223
86.0009 0.399
86.0312 -0.073
86.0614 -0.180
86.0917 -0.079
86.1220 0.074
86.1523 0.228
86.1826 0.017
86.2128 -0.090
86.2431 0.116
86.2734 -0.147
86.3037 -0.149
86.3340 -0.151
86.3642 -0.309
86.3945 0.157
86.4248 0.050
86.4551 0.100
86.4853 -0.111
86.5156 0.043
86.5459 -0.012
86.5762 -0.014
86.6065 -0.015
86.6367 0.035
86.6670 -0.331
86.6973 0.136
86.7276 0.239
86.7579 0.030
86.7881 -0.075
86.8184 0.185
86.8487 0.184
86.8790 0.027
86.9092 0.027
86.9395 -0.077
86.9698 -0.025
87.0001 -0.181
87.0304 0.028
87.0606 0.289
87.0909 -0.231
87.1212 -0.022
87.1515 0.396
87.1818 -0.072
87.2120 -0.122
87.2423 -0.121
87.2726 -0.119
87.3029 0.039
87.3331 -0.063
87.3634 -0.113
87.3937 0.150
87.4240 -0.108
87.4543 -0.053
87.4845 -0.102
87.5148 0.109
87.5451 -0.200
87.5754 -0.093
87.6057 -0.350
87.6359 0.227
87.6662 -0.186
87.6965 0.026
87.7268 -0.230
87.7571 -0.017
87.7873 0.195
87.8176 0.252
87.8479 0.152
87.8782 0.209
87.9084 0.006
87.9387 0.271
87.9690 0.016
87.9993 0.178
88.0296 0.131
88.0598 -0.019
88.0901 -0.170
88.1204 -0.074
88.1507 -0.030
88.1810 -0.039
88.2112 0.057
88.2415 -0.003
88.2718 0.146
88.3021 0.399
88.3323 0.183
88.3626 0.072
88.3929 0.065
88.4232 0.058
88.4535 0.207
88.4837 -0.060
88.5140 0.090
88.5443 -0.073
88.5746 0.234
88.6049 0.019
88.6351 0.014
88.6654 0.112
88.6957 0.055
88.7260 0.414
88.7562 0.096
88.7865 0.456
88.8168 0.138
88.8471 0.238
88.8774 0.233
88.9076 0.021
88.9379 0.433
88.9682 0.429
88.9985 0.061
89.0288 0.630
89.0590 0.626
89.0893 0.363
89.1196 0.880
89.1499 0.252
89.1801 0.302
89.2104 0.247
89.2407 -0.016
89.2710 0.138
89.3013 0.500
89.3315 0.967
89.3618 0.496
89.3921 1.432
89.4224 0.493
89.4527 0.387
89.4829 1.063
89.5132 0.854
89.5435 0.957
89.5738 0.487
89.6040 0.487
89.6343 0.174
89.6646 0.434
89.6949 0.798
89.7252 0.903
89.7554 0.590
89.7857 0.851
89.8160 0.331
89.8463 0.540
89.8766 0.385
89.9068 0.386
89.9371 0.491
89.9674 0.336
89.9977 0.025
90.0279 0.183
90.0582 0.758
90.0885 0.447
90.1188 0.449
90.1491 -0.069
90.1793 0.142
90.2096 0.613
90.2399 0.460
90.2702 0.150
90.3005 0.414
90.3307 0.157
90.3610 -0.100
90.3913 0.268
90.4216 0.272
90.4518 0.119
90.4821 0.176
90.5124 -0.133
90.5427 0.028
90.5730 -0.071
90.6032 0.350
90.6335 -0.010
90.6638 -0.005
90.6941 -0.051
90.7244 0.371
90.7546 -0.040
90.7849 0.017
90.8152 -0.029
90.8455 -0.231
90.8758 0.027
90.9060 0.128
90.9363 -0.030
90.9666 -0.189
90.9969 0.434
91.0271 -0.036
91.0574 0.483
91.0877 -0.040
91.1180 0.063
91.1483 -0.198
91.1785 0.061
91.2088 -0.305
91.2391 0.320
91.2694 -0.254
91.2997 0.006
91.3299 -0.150
91.3602 0.266
91.3905 0.266
91.4208 0.319
91.4510 0.007
91.4813 0.320
91.5116 0.008
91.5419 0.009
91.5722 0.062
91.6024 0.011
91.6327 0.012
91.6630 0.066
91.6933 0.172
91.7236 -0.191
91.7538 0.124
91.7841 -0.239
91.8144 0.076
91.8447 0.027
91.8749 -0.335
91.9052 -0.028
91.9355 -0.033
91.9658 -0.090
91.9961 -0.095
92.0263 0.265
92.0566 -0.157
92.0869 0.672
92.1172 0.356
92.1475 0.039
92.1777 0.400
92.2080 0.344
92.2383 0.132
92.2686 -0.132
92.2988 0.229
92.3291 -0.034
92.3594 0.015
92.3897 -0.040
92.4200 0.010
92.4502 0.424
92.4805 0.005
92.5108 0.211
92.5411 0.157
92.5714 -0.209
92.6016 0.206
92.6319 -0.056
92.6622 0.047
92.6925 0.046
92.7227 0.045
92.7530 -0.164
92.7833 0.356
92.8136 0.407
92.8439 0.251
92.8741 0.303
92.9044 -0.062
92.9347 -0.270
92.9650 0.199
92.9953 -0.217
93.0255 -0.008
93.0558 0.149
93.0861 0.410
93.1164 0.359
93.1466 -0.056
93.1769 0.154
93.2072 0.103
93.2375 0.157
93.2678 0.419
93.2980 -0.047
93.3283 0.216
93.3586 -0.042
93.3889 0.273
93.4192 -0.245
93.4494 0.174
93.4797 0.386
93.5100 -0.080
93.5403 -0.129
93.5706 -0.125
93.6008 0.400
93.6311 -0.117
93.6614 0.095
93.6917 0.360
93.7219 0.260
93.7522 0.004
93.7825 0.217
93.8128 -0.091
93.8431 -0.190
93.8733 -0.143
93.9036 0.165
93.9339 0.108
93.9642 0.155
93.9945 0.202
94.0247 0.459
94.0550 -0.327
94.0853 0.034
94.1156 -0.335
94.1458 -0.026
94.1761 0.074
94.2064 0.019
94.2367 -0.037
94.2670 0.117
94.2972 0.114
94.3275 0.215
94.3578 -0.048
94.3881 -0.207
94.4184 0.048
94.4486 0.095
94.4789 -0.118
94.5092 0.294
94.5395 0.549
94.5697 -0.028
94.6000 -0.033
94.6303 0.119
94.6606 -0.145
94.6909 0.268
94.7211 0.368
94.7514 0.312
94.7817 -0.004
94.8120 0.201
94.8423 0.719
94.8725 0.143
94.9028 0.401
94.9331 0.242
94.9634 0.240
94.9936 0.289
95.0239 -0.234
95.0542 0.389
95.0845 0.388
95.1148 0.646
95.1450 0.437
95.1753 -0.190
95.2056 0.382
95.2359 0.798
95.2662 0.849
95.2964 0.327
95.3267 0.223
95.3570 0.222
95.3873 0.378
95.4175 0.483
95.4478 0.222
95.4781 0.118
95.5084 0.379
95.5387 -0.037
95.5689 0.016
95.5992 0.590
95.6295 0.174
95.6598 0.072
95.6901 0.438
95.7203 0.543
95.7506 0.285
95.7809 0.130
95.8112 0.028
95.8414 0.031
95.8717 0.398
95.9020 -0.121
95.9323 0.195
95.9626 -0.115
95.9928 0.096
96.0231 -0.005
96.0534 -0.157
96.0837 -0.102
96.1140 0.371
96.1442 0.166
96.1745 -0.142
96.2048 -0.190
96.2351 0.075
96.2653 -0.233
96.2956 -0.076
96.3259 -0.335
96.3562 0.344
96.3865 -0.071
96.4167 -0.173
96.4470 -0.015
96.4773 -0.065
96.5076 0.198
96.5379 0.044
96.5681 -0.005
96.5984 -0.159
96.6287 0.157
96.6590 -0.048
96.6893 0.007
96.7195 0.115
96.7498 0.170
96.7801 -0.138
96.8104 -0.082
96.8406 0.182
96.8709 0.239
96.9012 0.452
96.9315 0.248
96.9618 0.148
96.9920 -0.107
97.0223 0.002
97.0526 0.060
97.0829 -0.039
97.1132 -0.190
97.1434 -0.089
97.1737 -0.145
97.2040 0.060
97.2343 0.004
97.2645 0.105
97.2948 0.258
97.3251 -0.213
97.3554 0.044
97.3857 0.198
97.4159 -0.065
97.4462 -0.067
97.4765 0.035
97.5068 0.033
97.5371 0.031
97.5673 0.030
97.5976 -0.232
97.6279 -0.028
97.6582 -0.188
97.6884 0.121
97.7187 0.014
97.7490 -0.093
97.7793 0.008
97.8096 -0.047
97.8398 0.002
97.8701 0.208
97.9004 -0.003
97.9307 0.204
97.9610 0.306
97.9912 0.252
98.0215 0.146
98.0518 -0.012
98.0821 -0.013
98.1123 0.298
98.1426 0.036
98.1729 0.244
98.2032 0.295
98.2335 0.243
98.2637 0.294
98.2940 0.450
98.3243 0.034
98.3546 0.502
98.3849 0.763
98.4151 -0.070
98.4454 -0.017
98.4757 0.400
98.5060 0.401
98.5362 0.246
98.5665 -0.013
98.5968 0.092
98.6271 -0.219
98.6574 0.304
98.6876 -0.007
98.7179 0.308
98.7482 0.414
98.7785 0.364
98.8088 0.367
98.8390 0.578
98.8693 0.268
98.8996 0.376
98.9299 0.014
98.9601 0.070
98.9904 0.021
99.0207 0.181
99.0510 0.133
99.0813 -0.020
99.1115 0.401
99.1418 0.197
99.1721 -0.215
99.2024 0.050
99.2327 -0.310
99.2629 -0.052
99.2932 -0.316
99.3235 0.411
99.3538 -0.060
99.3841 0.041
99.4143 -0.065
99.4446 0.141
99.4749 0.035
99.5052 0.033
99.5354 0.136
99.5657 -0.230
99.5960 0.133
99.6263 0.028
99.6566 0.079
99.6868 0.495
99.7171 -0.130
99.7474 0.234
99.7777 0.025
99.8080 -0.027
99.8382 0.025
99.8685 -0.079
99.8988 0.026
99.9291 -0.182
99.9593 0.340
99.9896 0.028
100.0199 -0.492
100.0502 0.030
100.0805 0.084
100.1107 -0.123
100.1410 -0.017
100.1713 0.089
100.2016 0.039
100.2319 0.197
100.2621 0.043
100.2924 0.358
100.3227 -0.056
100.3530 -0.053
100.3832 0.315
100.4135 0.058
100.4438 -0.095
100.4741 0.012
100.5044 0.016
100.5346 -0.137
100.5649 0.232
100.5952 -0.389
100.6255 -0.176
100.6558 -0.016
100.6860 -0.063
100.7163 -0.006
100.7466 0.155
100.7769 -0.256
100.8071 -0.162
100.8374 0.193
100.8677 0.080
100.8980 0.071
100.9283 0.062
100.9585 0.157
100.9888 0.045
101.0191 0.192
101.0494 0.028
101.0797 -0.084
101.1099 0.012
101.1402 0.004
101.1705 0.465
101.2008 -0.063
101.2310 0.398
101.2613 -0.338
101.2916 0.176
101.3219 0.169
101.3522 0.163
101.3824 -0.156
101.4127 -0.163
101.4430 -0.273
101.4733 0.242
101.5036 0.132
101.5338 -0.186
101.5641 -0.088
101.5944 -0.093
101.6247 0.214
101.6549 -0.051
101.6852 -0.056
101.7155 0.043
101.7458 -0.013
101.7761 0.139
101.8063 -0.022
101.8366 -0.026
101.8669 -0.134
101.8972 -0.085
101.9275 -0.141
101.9577 -0.092
101.9880 0.009
102.0183 -0.203
102.0486 0.107
102.0788 -0.261
102.1091 0.466
102.1394 0.047
102.1697 0.357
102.2000 -0.009
102.2302 -0.168
102.2605 0.247
102.2908 -0.171
102.3211 -0.224
102.3514 0.030
102.3816 0.025
102.4119 0.019
102.4422 -0.038
102.4725 -0.148
102.5028 -0.101
102.5330 0.363
102.5633 0.411
102.5936 -0.167
102.6239 0.194
102.6541 -0.227
102.6844 0.446
102.7147 0.077
102.7450 0.074
102.7753 -0.346
102.8055 0.119
102.8358 0.168
102.8661 -0.148
102.8964 0.110
102.9267 0.107
102.9569 0.365
102.9872 0.519
103.0175 0.308
103.0478 0.410
103.0780 0.096
103.1083 0.042
103.1386 -0.063
103.1689 0.143
103.1992 -0.014
103.2294 0.297
103.2597 0.192
103.2900 -0.486
103.3203 -0.017
103.3506 -0.018
103.3808 0.294
103.4111 0.659
103.4414 0.034
103.4717 -0.278
103.5019 0.347
103.5322 0.087
103.5625 -0.433
103.5928 0.297
103.6231 0.298
103.6533 0.143
103.6836 0.144
103.7139 0.458
103.7442 0.512
103.7745 0.774
103.8047 -0.213
103.8350 0.049
103.8653 0.156
103.8956 0.315
103.9258 0.369
103.9561 0.581
103.9864 0.427
104.0167 0.118
104.0470 0.382
104.0772 0.125
104.1075 0.285
104.1378 0.288
104.1681 -0.176
104.1984 0.817
104.2286 0.405
104.2589 0.097
104.2892 -0.211
104.3195 0.002
104.3497 0.476
104.3800 0.898
104.4103 0.330
104.4406 0.596
104.4709 0.601
104.5011 -0.122
104.5314 0.405
104.5617 0.046
104.5920 0.052
104.6223 -0.045
104.6525 -0.091
104.6828 0.489
104.7131 0.391
104.7434 -0.070
104.7736 0.249
104.8039 -0.212
104.8342 0.108
104.8645 -0.301
104.8948 0.124
104.9250 -0.129
104.9553 0.088
104.9856 -0.112
105.0159 -0.208
105.0462 0.104
105.0764 0.416
105.1067 -0.157
105.1370 0.364
105.1673 0.000
105.1975 0.000
105.2278 0.053
105.2581 0.001
105.2884 -0.102
105.3187 0.003
105.3489 0.264
105.3792 0.109
105.4095 -0.254
105.4398 0.060
105.4701 0.166
105.5003 0.012
105.5306 0.066
105.5609 -0.296
105.5912 0.071
105.6215 0.178
105.6517 -0.028
105.6820 -0.233
105.7123 0.025
105.7426 0.180
105.7728 0.022
105.8031 -0.188
105.8334 0.176
105.8637 -0.086
105.8940 0.070
105.9242 0.069
105.9545 0.277
105.9848 0.172
106.0151 0.328
106.0454 0.276
106.0756 0.068
106.1059 0.120
106.1362 0.225
106.1665 -0.087
106.1967 -0.190
106.2270 0.175
106.2573 0.020
106.2876 -0.083
106.3179 0.231
106.3481 0.024
106.3784 0.026
106.4087 -0.076
106.4390 0.343
106.4693 -0.176
106.4995 0.243
106.5298 -0.171
106.5601 0.040
106.5904 0.408
106.6206 0.150
106.6509 0.101
106.6812 0.209
106.7115 -0.152
106.7418 -0.044
106.7720 0.272
106.8023 0.224
106.8326 0.228
106.8629 -0.028
106.8932 0.133
106.9234 -0.071
106.9537 -0.170
106.9840 -0.009
107.0143 0.413
107.0445 0.158
107.0748 0.216
107.1051 -0.143
107.1354 -0.190
107.1657 -0.142
107.1959 0.376
107.2262 0.164
107.2565 -0.100
107.2868 -0.051
107.3171 0.154
107.3473 0.099
107.3776 0.252
107.4079 -0.219
107.4382 0.247
107.4684 0.037
107.4987 0.035
107.5290 0.085
107.5593 -0.230
107.5896 0.081
107.6198 -0.285
107.6501 0.026
107.6804 -0.131
107.7107 -0.080
107.7410 -0.029
107.7712 -0.133
107.8015 0.647
107.8318 0.439
107.8621 0.074
107.8923 0.074
107.9226 0.387
107.9529 0.231
107.9832 -0.238
108.0135 0.076
108.0437 -0.236
108.0740 0.182
108.1043 0.131
108.1346 -0.181
108.1649 0.133
108.1951 0.239
108.2254 0.241
108.2557 -0.330
108.2860 -0.120
108.3163 0.352
108.3465 0.094
108.3768 0.357
108.4071 0.307
108.4374 0.102
108.4676 0.157
108.4979 0.108
108.5282 0.268
108.5585 -0.041
108.5888 -0.089
108.6190 -0.190
108.6493 -0.033
108.6796 0.019
108.7099 0.540
108.7402 -0.240
108.7704 0.021
108.8007 -0.135
108.8310 0.023
108.8613 0.076
108.8915 0.338
108.9218 0.079
108.9521 -0.076
108.9824 0.187
109.0127 0.085
109.0429 0.087
109.0732 0.245
109.1035 0.248
109.1338 -0.010
109.1641 0.253
109.1943 0.204
109.2246 -0.001
109.2549 0.263
109.2852 0.058
109.3154 0.218
109.3457 0.274
109.3760 0.278
109.4063 -0.082
109.4366 -0.026
109.4668 -0.334
109.4971 0.026
109.5274 0.282
109.5577 0.017
109.5880 0.534
109.6182 0.113
109.6485 0.005
109.6788 0.209
109.7091 0.570
109.7393 0.411
109.7696 0.251
109.7999 0.040
109.8302 0.558
109.8605 0.555
109.8907 0.240
109.9210 0.237
109.9513 0.548
109.9816 0.129
110.0119 -0.394
110.0421 0.073
110.0724 0.071
110.1027 0.070
110.1330 0.381
110.1632 0.484
110.1935 0.640
110.2238 0.066
110.2541 0.534
110.2844 0.794
110.3146 0.325
110.3449 0.221
110.3752 0.012
110.4055 0.221
110.4358 0.273
110.4660 0.326
110.4963 -0.194
110.5266 0.744
110.5569 0.589
110.5871 0.017
110.6174 0.226
110.6477 0.124
110.6780 0.073
110.7083 -0.029
110.7385 0.233
110.7688 0.079
110.7991 -0.231
110.8294 -0.077
110.8597 0.180
110.8899 0.439
110.9202 0.124
110.9505 -0.191
110.9808 0.589
111.0110 0.066
111.0413 0.013
111.0716 0.584
111.1019 0.062
111.1322 -0.043
111.1624 0.060
111.1927 -0.044
111.2230 0.424
111.2533 0.007
111.2836 0.267
111.3138 -0.098
111.3441 0.007
111.3744 0.319
111.4047 0.216
111.4350 0.112
111.4652 0.269
111.4955 0.114
111.5258 0.167
111.5561 0.116
111.5863 0.118
111.6166 -0.141
111.6469 -0.087
111.6772 -0.190
111.7075 -0.036
111.7377 0.065
111.7680 -0.145
111.7983 0.373
111.8286 0.215
111.8589 0.161
111.8891 -0.206
111.9194 0.053
111.9497 -0.105
111.9800 -0.106
112.0102 0.049
112.0405 0.100
112.0708 0.256
112.1011 0.099
112.1314 0.255
112.1616 -0.162
112.1919 0.254
112.2222 -0.006
112.2525 0.098
112.2828 0.359
112.3130 -0.057
112.3433 -0.057
112.3736 0.048
112.4039 0.310
112.4341 0.415
112.4644 -0.157
112.4947 0.105
112.5250 0.107
112.5553 0.057
112.5855 0.423
112.6158 -0.044
112.6461 0.011
112.6764 0.117
112.7067 0.068
112.7369 -0.190
112.7672 -0.350
112.7975 0.427
112.8278 -0.098
112.8580 0.002
112.8883 0.311
112.9186 0.099
112.9489 0.252
112.9792 -0.064
113.0094 -0.067
113.0397 0.086
113.0700 0.240
113.1003 0.185
113.1306 0.391
113.1608 -0.184
113.1911 -0.343
113.2214 0.280
113.2517 0.174
113.2819 0.016
113.3122 -0.089
113.3425 0.222
113.3728 0.221
113.4031 -0.145
113.4333 -0.042
113.4636 -0.146
113.4939 -0.199
113.5242 0.005
113.5545 0.001
113.5847 -0.107
113.6150 -0.163
113.6453 0.250
113.6756 0.038
113.7058 0.295
113.7361 0.135
113.7664 0.445
113.7967 0.181
113.8270 -0.030
113.8572 -0.084
113.8875 0.121
113.9178 0.223
113.9481 0.013
113.9784 0.167
114.0086 0.218
114.0389 -0.409
114.0692 0.215
114.0995 0.370
114.1298 0.264
114.1600 -0.049
114.1903 0.002
114.2206 0.106
114.2509 -0.103
114.2811 0.053
114.3114 -0.052
114.3417 -0.208
114.3720 -0.156
114.4023 -0.157
114.4325 0.260
114.4628 0.208
114.4931 0.208
114.5234 0.364
114.5537 -0.104
114.5839 -0.208
114.6142 0.000
114.6445 -0.417
114.6748 0.625
114.7050 -0.209
114.7353 0.156
114.7656 0.156
114.7959 -0.208
114.8262 -0.164
114.8564 0.557
114.8867 -0.024
114.9170 0.541
114.9473 0.377
114.9776 -0.308
115.0078 0.101
115.0381 0.406
115.0684 0.243
115.0987 -0.337
115.1289 0.125
115.1592 0.535
115.1895 0.528
115.2198 0.210
115.2501 0.308
115.2803 0.145
115.3106 -0.121
115.3409 0.134
115.3712 -0.288
115.4015 -0.137
115.4317 0.067
115.4620 -0.353
115.4923 0.163
115.5226 0.160
115.5528 -0.052
115.5831 0.153
115.6134 0.253
115.6437 -0.271
115.6740 0.143
115.7042 -0.120
115.7345 0.033
115.7648 -0.021
115.7951 0.081
115.8254 0.131
115.8556 -0.028
115.8859 0.647
115.9162 0.073
115.9465 0.123
115.9767 0.487
116.0070 -0.140
116.0373 0.380
116.0676 0.223
116.0979 0.170
116.1281 0.118
116.1584 0.169
116.1887 0.273
116.2190 0.169
116.2493 0.117
116.2795 0.222
116.3098 0.378
116.3401 0.170
116.3704 0.275
116.4006 0.693
116.4309 0.173
116.4612 0.070
116.4915 0.176
116.5218 0.750
116.5520 0.283
116.5823 0.337
116.6126 0.443
116.6429 0.862
116.6732 0.448
116.7034 0.242
116.7337 0.453
116.7640 0.092
116.7943 0.251
116.8245 -0.111
116.8548 -0.107
116.8851 0.782
116.9154 0.160
116.9457 0.268
116.9759 0.272
117.0062 0.433
117.0365 0.125
117.0668 -0.079
117.0971 0.290
117.1273 0.034
117.1576 -0.169
117.1879 -0.112
117.2182 0.206
117.2485 -0.101
117.2787 0.113
117.3090 0.275
117.3393 -0.136
117.3696 -0.077
117.3998 0.189
117.4301 0.456
117.4604 -0.006
117.4907 0.313
117.5210 0.528
117.5512 -0.089
117.5815 0.387
117.6118 0.186
117.6421 -0.328
117.6724 0.045
117.7026 -0.416
117.7329 -0.051
117.7632 0.210
117.7935 0.262
117.8237 -0.310
117.8540 0.316
117.8843 0.005
117.9146 0.006
117.9449 0.060
117.9751 0.009
118.0054 -0.197
118.0357 0.065
118.0660 -0.089
118.0963 0.070
118.1265 -0.032
118.1568 0.127
118.1871 -0.131
118.2174 0.081
118.2476 0.188
118.2779 -0.017
118.3082 -0.014
118.3385 0.198
118.3688 -0.006
118.3990 0.050
118.4293 -0.259
118.4596 -0.046
118.4899 -0.042
118.5202 -0.090
118.5504 0.123
118.5807 -0.029
118.6110 -0.128
118.6413 -0.175
118.6715 0.195
118.7018 0.252
118.7321 -0.315
118.7624 -0.206
118.7927 0.312
118.8229 0.153
118.8532 0.515
118.8835 0.304
118.9138 0.094
118.9441 0.300
118.9743 0.194
119.0046 0.452
119.0349 0.190
119.0652 0.137
119.0954 0.083
119.1257 0.030
119.1560 -0.023
119.1863 0.549
119.2166 0.184
119.2468 -0.025
119.2771 0.287
119.3074 0.131
119.3377 -0.130
119.3680 -0.077
119.3982 0.027
119.4285 -0.077
119.4588 -0.284
119.4891 0.072
119.5193 -0.352
119.5496 0.005
119.5799 0.414
119.6102 -0.114
119.6405 0.504
119.6707 -0.232
119.7010 0.178
119.7313 0.224
119.7616 0.165
119.7919 0.419
119.8221 -0.003
119.8524 -0.166
119.8827 -0.015
119.9130 0.031
119.9433 -0.339
119.9735 0.039
120.0038 0.000
