'Id: "" Comment: "" Operator: "Lab Manager" Anode: "Cu" Scantype: "Locked Coupled" TimePerStep: "19.2" X: "9999" Y: "9999" Z: "9999" 
10.0015 0.000
10.0318 -0.494
10.0620 0.237
10.0923 -0.543
10.1226 0.189
10.1529 -1.006
10.1832 -0.118
10.2134 0.302
10.2437 -0.423
10.2740 -0.275
10.3043 -0.074
10.3346 0.492
10.3648 -0.244
10.3951 -0.302
10.4254 -0.568
10.4557 0.468
10.4859 -0.475
10.5162 -0.219
10.5465 -0.068
10.5768 -0.072
10.6071 -0.284
10.6373 -0.443
10.6676 1.533
10.6979 1.166
10.7282 1.424
10.7585 0.694
10.7887 0.848
10.8190 2.827
10.8493 1.211
10.8796 1.628
10.9098 1.940
10.9401 3.139
10.9704 4.598
11.0007 6.683
11.0310 9.028
11.0612 10.332
11.0915 10.126
11.1218 11.067
11.1521 10.289
11.1824 9.876
11.2126 9.150
11.2429 5.665
11.2732 4.211
11.3035 3.487
11.3337 2.764
11.3640 0.634
11.3943 1.109
11.4246 1.480
11.4549 1.435
11.4851 -0.224
11.5154 1.190
11.5457 -0.781
11.5760 0.060
11.6063 -0.243
11.6365 0.079
11.6668 0.140
11.6971 -0.110
11.7274 0.161
11.7577 0.588
11.7879 0.703
11.8182 0.454
11.8485 0.414
11.8788 -0.251
11.9090 -0.134
11.9393 -0.173
11.9696 -0.055
11.9999 -0.666
12.0302 0.546
12.0604 -0.117
12.0907 0.002
12.1210 0.330
12.1513 -0.123
12.1816 -0.211
12.2118 -0.195
12.2421 -0.282
12.2724 -0.004
12.3027 -0.403
12.3329 -0.398
12.3632 0.961
12.3935 0.550
12.4238 0.348
12.4541 0.094
12.4843 0.570
12.5146 -0.308
12.5449 0.169
12.5752 0.385
12.6055 0.237
12.6357 0.142
12.6660 0.360
12.6963 -0.256
12.7266 0.327
12.7568 0.702
12.7871 0.348
12.8174 -0.422
12.8477 -0.046
12.8780 0.904
12.9082 0.812
12.9385 0.929
12.9688 0.421
12.9991 0.070
13.0294 -0.073
13.0596 0.462
13.0899 0.685
13.1202 -0.133
13.1505 -0.014
13.1807 0.991
13.2110 0.591
13.2413 0.399
13.2716 0.520
13.3019 -0.036
13.3321 0.242
13.3624 -0.313
13.3927 0.695
13.4230 0.454
13.4533 -0.361
13.4835 0.075
13.5138 1.866
13.5441 0.741
13.5744 0.240
13.6046 -0.624
13.6349 -0.210
13.6652 -0.055
13.6955 0.516
13.7258 0.515
13.7560 0.775
13.7863 0.201
13.8166 0.722
13.8469 -0.006
13.8772 0.359
13.9074 0.256
13.9377 -0.368
13.9680 0.676
13.9983 -0.311
14.0285 0.108
14.0588 0.320
14.0891 0.479
14.1194 -0.611
14.1497 1.008
14.1799 0.388
14.2102 0.132
14.2405 0.346
14.2708 1.289
14.3011 -0.632
14.3313 -0.105
14.3616 0.423
14.3919 1.368
14.4222 0.178
14.4524 0.133
14.4827 0.402
14.5130 0.307
14.5433 -0.465
14.5736 0.117
14.6038 0.960
14.6341 0.814
14.6644 0.044
14.6947 -0.206
14.7250 0.535
14.7552 0.859
14.7855 0.767
14.8158 -0.106
14.8461 -0.353
14.8764 -0.194
14.9066 -0.243
14.9369 -0.136
14.9672 0.649
14.9975 0.185
15.0277 0.710
15.0580 0.246
15.0883 0.824
15.1186 0.309
15.1489 0.576
15.1791 0.374
15.2094 0.120
15.2397 0.336
15.2700 1.229
15.3003 -0.222
15.3305 0.881
15.3608 0.316
15.3911 0.065
15.4214 0.543
15.4516 0.084
15.4819 -0.218
15.5122 -0.468
15.5425 0.252
15.5728 -0.277
15.6030 0.652
15.6333 0.332
15.6636 1.002
15.6939 0.109
15.7242 0.624
15.7544 0.305
15.7847 -0.274
15.8150 0.450
15.8453 0.445
15.8755 -0.133
15.9058 0.071
15.9361 0.327
15.9664 -0.145
15.9967 -0.357
16.0269 0.995
16.0572 0.367
16.0875 0.105
16.1178 0.467
16.1481 0.831
16.1783 0.101
16.2086 0.465
16.2389 0.464
16.2692 -0.213
16.2994 0.569
16.3297 0.883
16.3600 0.415
16.3903 0.469
16.4206 1.044
16.4508 0.161
16.4811 0.216
16.5114 0.167
16.5417 -0.506
16.5720 1.060
16.6022 0.023
16.6325 -0.025
16.6628 0.189
16.6931 -0.327
16.7233 0.252
16.7536 0.467
16.7839 0.317
16.8142 0.585
16.8445 0.904
16.8747 0.235
16.9050 -0.017
16.9353 0.252
16.9656 0.781
16.9959 0.478
17.0261 1.477
17.0564 -0.492
17.0867 0.456
17.1170 0.207
17.1472 0.374
17.1775 0.490
17.2078 1.023
17.2381 0.358
17.2684 0.891
17.2986 1.008
17.3289 0.605
17.3592 0.567
17.3895 0.477
17.4198 0.335
17.4500 -0.171
17.4803 -0.364
17.5106 0.197
17.5409 -0.022
17.5712 0.383
17.6014 0.060
17.6317 0.570
17.6620 0.769
17.6923 0.499
17.7225 0.281
17.7528 0.949
17.7831 0.993
17.8134 0.568
17.8437 0.508
17.8739 0.449
17.9042 0.754
17.9345 0.123
17.9648 0.533
17.9951 0.736
18.0253 -0.155
18.0556 0.152
18.0859 0.147
18.1162 -0.117
18.1464 0.504
18.1767 0.031
18.2070 0.185
18.2373 -0.027
18.2676 -0.342
18.2978 -0.292
18.3281 0.278
18.3584 -0.193
18.3887 0.691
18.4190 0.273
18.4492 1.158
18.4795 0.011
18.5098 0.532
18.5401 -0.197
18.5703 0.585
18.6006 0.846
18.6309 0.744
18.6612 0.381
18.6915 0.227
18.7217 0.646
18.7520 -0.393
18.7823 0.392
18.8126 -0.073
18.8429 0.764
18.8731 0.352
18.9034 0.721
18.9337 0.414
18.9640 0.576
18.9942 -0.044
19.0245 0.588
19.0548 0.230
19.0851 0.758
19.1154 0.088
19.1456 0.096
19.1759 0.260
19.2062 0.738
19.2365 0.747
19.2668 -0.234
19.2970 0.609
19.3273 -0.474
19.3576 -0.151
19.3879 -0.297
19.4181 -0.702
19.4484 0.338
19.4787 0.649
19.5090 0.597
19.5393 0.388
19.5695 -0.029
19.5998 0.128
19.6301 0.181
19.6604 1.068
19.6907 -0.233
19.7209 0.238
19.7512 -0.125
19.7815 0.555
19.8118 0.819
19.8420 0.405
19.8723 0.357
19.9026 -0.003
19.9329 0.574
19.9632 0.736
19.9934 0.064
20.0237 0.017
20.0540 0.232
20.0843 0.447
20.1146 0.714
20.1448 0.148
20.1751 0.156
20.2054 0.112
20.2357 0.589
20.2659 0.702
20.2962 -0.122
20.3265 -0.321
20.3568 -0.176
20.3871 1.219
20.4173 -0.145
20.4476 0.105
20.4779 -0.009
20.5082 0.607
20.5385 1.067
20.5687 0.121
20.5990 -0.200
20.6293 0.053
20.6596 0.775
20.6899 0.716
20.7201 0.449
20.7504 0.234
20.7807 0.332
20.8110 -0.038
20.8412 -0.564
20.8715 0.317
20.9018 0.052
20.9321 0.673
20.9624 0.618
20.9926 0.562
21.0229 -0.118
21.0532 0.036
21.0835 0.607
21.1138 0.084
21.1440 0.187
21.1743 0.603
21.2046 0.082
21.2349 0.446
21.2651 -0.283
21.2954 0.134
21.3257 -0.333
21.3560 -0.384
21.3863 0.815
21.4165 -0.016
21.4468 -0.014
21.4771 0.405
21.5074 0.565
21.5377 0.203
21.5679 -0.157
21.5982 -0.049
21.6285 0.008
21.6588 0.377
21.6890 -0.034
21.7193 -0.289
21.7496 -0.074
21.7799 0.401
21.8102 0.095
21.8404 0.102
21.8707 0.318
21.9010 -0.455
21.9313 0.074
21.9616 0.083
21.9918 0.040
22.0221 0.258
22.0524 0.059
22.0827 0.070
22.1129 0.549
22.1432 -0.013
22.1735 0.884
22.2038 0.739
22.2341 0.387
22.2643 -0.069
22.2946 -0.317
22.3249 -0.123
22.3552 0.540
22.3855 -0.046
22.4157 0.774
22.4460 0.292
22.4763 0.592
22.5066 0.944
22.5368 1.141
22.5671 0.817
22.5974 0.389
22.6277 0.431
22.6580 0.421
22.6882 0.203
22.7185 0.401
22.7488 -0.181
22.7791 0.175
22.8094 1.156
22.8396 -0.466
22.8699 0.099
22.9002 -0.168
22.9305 0.346
22.9607 0.183
22.9910 0.073
23.0213 0.119
23.0516 0.062
23.0819 0.057
23.1121 -0.104
23.1424 0.204
23.1727 -0.060
23.2030 -0.115
23.2333 1.392
23.2635 0.087
23.2938 -0.176
23.3241 -0.177
23.3544 -0.283
23.3846 -0.388
23.4149 0.757
23.4452 0.027
23.4755 -0.338
23.5058 0.026
23.5360 0.494
23.5663 -0.392
23.5966 0.390
23.6269 -0.339
23.6572 0.026
23.6874 0.444
23.7177 0.133
23.7480 0.031
23.7783 0.658
23.8086 -0.276
23.8388 0.143
23.8691 0.095
23.8994 0.359
23.9297 0.259
23.9599 0.160
23.9902 0.269
24.0205 0.118
24.0508 0.072
24.0811 0.494
24.1113 0.709
24.1416 -0.221
24.1719 0.046
24.2022 -0.311
24.2325 1.208
24.2627 -0.242
24.2930 -0.494
24.3233 0.287
24.3536 -0.495
24.3838 -0.182
24.4141 -0.234
24.4444 0.080
24.4747 0.237
24.5050 1.020
24.5352 0.033
24.5655 -0.121
24.5958 -0.119
24.6261 -0.480
24.6564 0.357
24.6866 -0.056
24.7169 0.365
24.7472 0.318
24.7775 0.114
24.8077 0.536
24.8380 0.386
24.8683 0.132
24.8986 0.555
24.9289 0.354
24.9591 -0.316
24.9894 0.316
25.0197 0.272
25.0500 0.177
25.0803 0.759
25.1105 0.247
25.1408 0.100
25.1711 0.266
25.2014 0.173
25.2316 -0.337
25.2619 -0.143
25.2922 0.052
25.3225 0.351
25.3528 -0.130
25.3830 0.274
25.4133 0.001
25.4436 -0.010
25.4739 -0.126
25.5042 0.801
25.5344 0.582
25.5647 -0.730
25.5950 0.041
25.6253 0.345
25.6555 0.908
25.6858 -0.194
25.7161 0.475
25.7464 0.728
25.7767 -0.061
25.8069 0.869
25.8372 0.185
25.8675 0.439
25.8978 0.486
25.9281 0.428
25.9583 -0.046
25.9886 0.418
26.0189 -0.264
26.0492 -0.007
26.0794 -0.115
26.1097 0.350
26.1400 -0.121
26.1703 -0.332
26.2006 -0.230
26.2308 0.028
26.2611 -0.494
26.2914 0.015
26.3217 -0.778
26.3520 0.878
26.3822 0.085
26.4125 0.127
26.4428 0.221
26.4731 0.367
26.5034 -0.475
26.5336 -0.172
26.5639 0.028
26.5942 0.228
26.6245 0.637
26.6547 -0.100
26.6850 0.726
26.7153 -0.739
26.7456 0.088
26.7759 0.603
26.8061 0.129
26.8364 -0.293
26.8667 0.431
26.8970 -0.146
26.9273 0.735
26.9575 0.107
26.9878 -0.417
27.0181 0.517
27.0484 0.515
27.0786 0.825
27.1089 -0.375
27.1392 -0.324
27.1695 -0.065
27.1998 -0.013
27.2300 0.455
27.2603 0.143
27.2906 0.195
27.3209 -0.168
27.3512 0.510
27.3814 0.199
27.4117 0.566
27.4420 0.360
27.4723 0.258
27.5025 -0.416
27.5328 -0.213
27.5631 1.188
27.5934 0.402
27.6237 0.450
27.6539 0.030
27.6842 0.547
27.7145 -0.446
27.7448 0.228
27.7751 0.643
27.8053 0.172
27.8356 0.431
27.8659 0.273
27.8962 0.272
27.9264 0.688
27.9567 -0.458
27.9870 -0.353
28.0173 0.246
28.0476 0.376
28.0778 0.507
28.1081 0.743
28.1384 1.135
28.1687 0.121
28.1990 0.201
28.2292 -0.083
28.2595 -0.002
28.2898 -0.337
28.3201 0.162
28.3503 -0.017
28.3806 0.431
28.4109 0.409
28.4412 0.076
28.4715 0.108
28.5017 -0.277
28.5320 0.120
28.5623 -0.316
28.5926 -0.231
28.6229 -0.041
28.6531 0.983
28.6834 -0.285
28.7137 -0.302
28.7440 0.149
28.7742 0.029
28.8045 -0.300
28.8348 -0.212
28.8651 0.293
28.8954 0.018
28.9256 -0.257
28.9559 -0.011
28.9862 -0.442
29.0165 0.059
29.0468 0.039
29.0770 0.124
29.1073 0.470
29.1376 0.504
29.1679 -0.087
29.1981 -0.209
29.2284 -0.018
29.2587 0.069
29.2890 -0.156
29.3193 0.453
29.3495 0.177
29.3798 -0.203
29.4101 -0.166
29.4404 -0.337
29.4707 0.014
29.5009 0.156
29.5312 0.611
29.5615 -0.339
29.5918 -0.040
29.6221 -0.417
29.6523 -0.300
29.6826 0.129
29.7129 -0.170
29.7432 -0.313
29.7734 0.326
29.8037 0.289
29.8340 0.407
29.8643 0.214
29.8946 0.646
29.9248 0.141
29.9551 0.053
29.9854 0.018
30.0157 1.389
30.0460 0.000
30.0762 -0.347
30.1065 0.036
30.1368 0.419
30.1671 0.386
30.1973 0.770
30.2276 -0.409
30.2579 0.653
30.2882 0.153
30.3185 1.007
30.3487 0.767
30.3790 1.206
30.4093 1.123
30.4396 0.729
30.4699 1.689
30.5001 1.608
30.5304 0.381
30.5607 0.718
30.5910 0.221
30.6212 1.444
30.6515 0.896
30.6818 0.504
30.7121 2.770
30.7424 2.848
30.7726 1.676
30.8029 2.276
30.8332 2.303
30.8635 2.956
30.8938 2.255
30.9240 3.168
30.9543 2.885
30.9846 5.205
31.0149 4.922
31.0451 4.848
31.0754 5.555
31.1057 6.263
31.1360 8.013
31.1663 8.825
31.1965 8.388
31.2268 10.348
31.2571 11.578
31.2874 14.632
31.3177 14.040
31.3479 18.084
31.3782 18.431
31.4085 19.611
31.4388 24.437
31.4690 27.702
31.4993 33.623
31.5296 37.617
31.5599 40.101
31.5902 44.513
31.6204 46.685
31.6507 47.139
31.6810 46.240
31.7113 45.288
31.7416 45.744
31.7718 40.730
31.8021 33.270
31.8324 30.497
31.8627 27.256
31.8929 22.921
31.9232 18.639
31.9535 14.931
31.9838 12.941
32.0141 13.243
32.0443 11.359
32.0746 7.912
32.1049 6.444
32.1352 5.290
32.1655 7.678
32.1957 6.264
32.2260 4.537
32.2563 4.739
32.2866 2.961
32.3169 4.049
32.3471 2.376
32.3774 2.995
32.4077 2.365
32.4380 2.152
32.4682 2.669
32.4985 2.873
32.5288 1.932
32.5591 1.564
32.5894 1.561
32.6196 1.194
32.6499 0.879
32.6802 0.825
32.7105 0.772
32.7408 1.709
32.7710 0.875
32.8013 1.291
32.8316 -0.688
32.8619 1.969
32.8921 1.032
32.9224 0.460
32.9527 1.191
32.9830 -1.098
33.0133 -0.367
33.0435 -1.041
33.0738 0.399
33.1041 0.016
33.1344 -0.367
33.1647 -0.280
33.1949 0.223
33.2252 -0.523
33.2555 0.971
33.2858 1.007
33.3160 0.210
33.3463 -0.326
33.3766 0.597
33.4069 1.572
33.4372 1.662
33.4674 0.346
33.4977 0.124
33.5280 0.059
33.5583 0.359
33.5886 2.690
33.6188 0.856
33.6491 0.063
33.6794 1.614
33.7097 1.603
33.7399 1.593
33.7702 3.146
33.8005 3.292
33.8308 1.929
33.8611 4.524
33.8913 5.193
33.9216 5.497
33.9519 6.583
33.9822 7.722
34.0125 7.975
34.0427 8.906
34.0730 13.431
34.1033 14.519
34.1336 18.315
34.1638 23.831
34.1941 26.952
34.2244 39.656
34.2547 48.297
34.2850 57.200
34.3152 57.249
34.3455 59.538
34.3758 49.640
34.4061 44.585
34.4364 34.740
34.4666 27.864
34.4969 21.196
34.5272 16.873
34.5575 13.696
34.5877 10.883
34.6180 7.811
34.6483 6.718
34.6786 7.032
34.7089 6.044
34.7391 6.150
34.7694 3.809
34.7997 4.281
34.8300 3.659
34.8603 4.809
34.8905 6.375
34.9208 4.140
34.9511 2.218
34.9814 4.619
35.0116 3.166
35.0419 3.380
35.0722 4.168
35.1025 4.278
35.1328 3.661
35.1630 3.824
35.1933 4.717
35.2236 3.111
35.2539 3.536
35.2842 4.274
35.3144 5.013
35.3447 5.387
35.3750 6.647
35.4053 6.866
35.4356 6.669
35.4658 5.430
35.4961 8.462
35.5264 8.110
35.5567 9.320
35.5869 8.551
35.6172 11.846
35.6475 12.224
35.6778 12.967
35.7081 15.429
35.7383 17.006
35.7686 20.302
35.7989 24.537
35.8292 23.667
35.8595 27.068
35.8897 33.387
35.9200 37.779
35.9503 43.265
35.9806 50.314
36.0108 58.769
36.0411 61.600
36.0714 65.786
36.1017 71.065
36.1320 75.668
36.1622 76.261
36.1925 71.802
36.2228 67.969
36.2531 67.782
36.2834 58.168
36.3136 51.887
36.3439 43.368
36.3742 38.651
36.4045 32.841
36.4347 30.781
36.4650 26.013
36.4953 20.516
36.5256 21.478
36.5559 17.336
36.5861 15.226
36.6164 11.554
36.6467 10.955
36.6770 10.043
36.7073 7.206
36.7375 8.327
36.7678 7.521
36.7981 6.194
36.8284 6.275
36.8586 4.845
36.8889 5.083
36.9192 2.612
36.9495 4.569
36.9798 2.255
37.0100 2.598
37.0403 2.629
37.0706 3.546
37.1009 2.484
37.1312 1.787
37.1614 2.184
37.1917 3.050
37.2220 1.625
37.2523 1.867
37.2825 1.119
37.3128 1.154
37.3431 0.251
37.3734 0.963
37.4037 1.415
37.4339 2.128
37.4642 1.175
37.4945 0.587
37.5248 0.467
37.5551 0.400
37.5853 1.219
37.6156 0.112
37.6459 -0.058
37.6762 0.658
37.7064 0.801
37.7367 0.633
37.7670 1.037
37.7973 -0.433
37.8276 0.233
37.8578 0.430
37.8881 0.003
37.9184 -0.580
37.9487 0.608
37.9790 0.130
38.0092 0.590
38.0395 0.165
38.0698 -0.417
38.1001 -0.336
38.1304 0.266
38.1606 -0.486
38.1909 0.482
38.2212 -0.113
38.2515 -0.134
38.2817 -0.780
38.3120 0.172
38.3423 0.136
38.3726 0.047
38.4029 -0.093
38.4331 -0.285
38.4634 -0.164
38.4937 0.218
38.5240 -0.493
38.5543 0.046
38.5845 0.325
38.6148 0.291
38.6451 0.779
38.6754 -0.399
38.7056 0.246
38.7359 -0.358
38.7662 -0.286
38.7965 0.308
38.8268 0.122
38.8570 -0.325
38.8873 -0.043
38.9176 0.449
38.9479 -0.466
38.9782 -0.026
39.0084 0.259
39.0387 -0.551
39.0690 -0.005
39.0993 0.176
39.1295 0.930
39.1598 -0.450
39.1901 -0.320
39.2204 -0.033
39.2507 -0.267
39.2809 0.125
39.3112 -0.525
39.3415 -0.028
39.3718 0.678
39.4021 0.185
39.4323 -0.619
39.4626 0.973
39.4929 -0.247
39.5232 0.044
39.5534 0.283
39.5837 -0.416
39.6140 -0.252
39.6443 0.746
39.6746 0.025
39.7048 0.295
39.7351 0.043
39.7654 -0.155
39.7957 0.792
39.8260 0.074
39.8562 0.032
39.8865 0.043
39.9168 -0.518
39.9471 0.536
39.9773 -0.546
40.0076 0.300
40.0379 0.157
40.0682 0.535
40.0985 0.236
40.1287 -0.791
40.1590 0.317
40.1893 0.697
40.2196 0.087
40.2499 -0.262
40.2801 0.275
40.3104 0.187
40.3407 -0.317
40.3710 -0.163
40.4012 -0.269
40.4315 0.407
40.4618 0.250
40.4921 -0.219
40.5224 -0.011
40.5526 0.458
40.5829 -0.167
40.6132 -0.166
40.6435 0.513
40.6738 -0.058
40.7040 -0.317
40.7343 0.100
40.7646 0.048
40.7949 -0.420
40.8251 0.207
40.8554 -0.104
40.8857 0.419
40.9160 0.108
40.9463 0.059
40.9765 0.166
41.0068 0.274
41.0371 -0.087
41.0674 -0.499
41.0977 0.443
41.1279 0.240
41.1582 -0.640
41.1885 0.147
41.2188 -0.003
41.2491 -0.101
41.2793 0.635
41.3096 0.590
41.3399 0.285
41.3702 0.293
41.4004 0.198
41.4307 -0.002
41.4610 0.580
41.4913 0.590
41.5216 0.079
41.5518 0.454
41.5821 0.204
41.6124 0.163
41.6427 0.018
41.6730 -0.074
41.7032 0.251
41.7335 0.576
41.7638 0.224
41.7941 -0.075
41.8243 -0.218
41.8546 0.213
41.8849 0.332
41.9152 0.607
41.9455 0.258
41.9757 0.169
42.0060 0.498
42.0363 0.150
42.0666 0.218
42.0969 -0.285
42.1271 -0.285
42.1574 0.123
42.1877 0.116
42.2180 0.265
42.2482 0.102
42.2785 -0.061
42.3088 0.610
42.3391 0.553
42.3694 -0.338
42.3996 0.282
42.4299 0.486
42.4602 0.638
42.4905 0.114
42.5208 0.110
42.5510 0.107
42.5813 0.209
42.6116 0.259
42.6419 0.205
42.6721 0.099
42.7024 0.515
42.7327 -0.007
42.7630 0.097
42.7933 0.253
42.8235 0.410
42.8538 0.046
42.8841 0.412
42.9144 0.101
42.9447 -0.157
42.9749 -0.468
43.0052 0.201
43.0355 0.610
43.0658 -0.179
43.0960 0.023
43.1263 0.433
43.1566 0.218
43.1869 0.004
43.2172 0.102
43.2474 -0.424
43.2777 0.301
43.3080 -0.433
43.3383 0.449
43.3686 0.445
43.3988 -0.079
43.4291 0.126
43.4594 -0.084
43.4897 -0.139
43.5199 -0.140
43.5502 0.067
43.5805 0.013
43.6108 0.169
43.6411 0.065
43.6713 -0.091
43.7016 -0.299
43.7319 -0.094
43.7622 0.111
43.7925 0.420
43.8227 0.209
43.8530 -0.053
43.8833 -0.159
43.9136 0.361
43.9439 0.360
43.9741 0.099
44.0044 0.098
44.0347 -0.058
44.0650 -0.161
44.0952 -0.004
44.1255 0.206
44.1558 0.259
44.1861 -0.311
44.2164 -0.222
44.2466 0.648
44.2769 0.321
44.3072 0.047
44.3375 0.033
44.3678 -0.344
44.3980 0.059
44.4283 0.151
44.4586 -0.121
44.4889 0.648
44.5191 -0.353
44.5494 -0.312
44.5797 0.615
44.6100 -0.332
44.6403 -0.030
44.6705 0.117
44.7008 0.368
44.7311 0.620
44.7614 0.456
44.7917 0.291
44.8219 0.544
44.8522 -0.036
44.8825 -0.251
44.9128 0.420
44.9430 0.258
44.9733 -0.321
45.0036 -0.431
45.0339 0.553
45.0642 0.496
45.0944 -0.291
45.1247 0.486
45.1550 -0.351
45.1853 0.166
45.2156 0.163
45.2458 -0.048
45.2761 -0.468
45.3064 0.098
45.3367 0.351
45.3669 -0.124
45.3972 -0.860
45.4275 0.280
45.4578 -0.090
45.4881 -0.095
45.5183 -0.204
45.5486 0.364
45.5789 0.256
45.6092 0.201
45.6395 0.562
45.6697 0.455
45.7000 0.348
45.7303 -0.227
45.7606 0.344
45.7908 0.291
45.8211 0.759
45.8514 0.289
45.8817 0.237
45.9120 0.237
45.9422 0.029
45.9725 0.395
46.0028 0.709
46.0331 -0.227
46.0634 -0.329
46.0936 -0.037
46.1239 0.620
46.1542 0.653
46.1845 -0.199
46.2147 0.043
46.2450 0.754
46.2753 0.424
46.3056 0.875
46.3359 1.014
46.3661 0.269
46.3964 0.409
46.4267 0.497
46.4570 0.742
46.4873 0.623
46.5175 0.243
46.5478 0.906
46.5781 1.569
46.6084 0.253
46.6386 0.136
46.6689 0.748
46.6992 0.840
46.7295 0.203
46.7598 1.545
46.7900 1.742
46.8203 2.044
46.8506 1.565
46.8809 0.982
46.9112 1.753
46.9414 2.733
46.9717 2.412
47.0020 3.757
47.0323 3.905
47.0626 3.220
47.0928 5.504
47.1231 6.018
47.1534 6.584
47.1837 7.411
47.2139 7.822
47.2442 8.858
47.2745 12.134
47.3048 13.535
47.3351 11.343
47.3653 14.152
47.3956 13.471
47.4259 14.978
47.4562 13.308
47.4865 15.285
47.5167 13.980
47.5470 12.885
47.5773 11.998
47.6076 10.955
47.6378 7.934
47.6681 8.506
47.6984 7.985
47.7287 5.278
47.7590 4.914
47.7892 3.717
47.8195 4.292
47.8498 4.137
47.8801 4.452
47.9104 2.215
47.9406 1.437
47.9709 2.013
48.0012 1.809
48.0315 2.386
48.0617 1.401
48.0920 0.989
48.1223 0.682
48.1526 0.896
48.1829 0.694
48.2131 -0.028
48.2434 0.239
48.2737 0.194
48.3040 0.150
48.3343 -0.259
48.3645 -0.094
48.3948 -0.086
48.4251 -0.024
48.4554 0.193
48.4856 -0.265
48.5159 0.578
48.5462 0.016
48.5765 -0.650
48.6068 0.040
48.6370 -0.780
48.6673 0.483
48.6976 0.185
48.7279 0.095
48.7582 0.110
48.7884 -0.292
48.8187 0.036
48.8490 -0.208
48.8793 -0.296
48.9095 -0.280
48.9398 -0.054
48.9701 0.067
49.0004 0.085
49.0307 -0.366
49.0609 0.434
49.0912 -0.432
49.1215 0.264
49.1518 -0.029
49.1821 -0.269
49.2123 0.116
49.2426 -0.280
49.2729 0.158
49.3032 -0.550
49.3334 0.253
49.3637 0.328
49.3940 0.298
49.4243 -0.200
49.4546 0.136
49.4848 0.004
49.5151 -0.180
49.5454 0.001
49.5757 -0.078
49.6060 0.364
49.6362 -0.080
49.6665 0.155
49.6968 0.181
49.7271 -0.104
49.7574 -0.650
49.7876 0.130
49.8179 0.077
49.8482 0.494
49.8785 0.702
49.9087 -0.444
49.9390 0.130
49.9693 0.183
49.9996 -0.128
50.0299 0.135
50.0601 0.137
50.0904 0.556
50.1207 0.663
50.1510 0.198
50.1813 0.514
50.2115 -0.367
50.2418 0.627
50.2721 0.007
50.3024 0.116
50.3326 0.903
50.3629 -0.601
50.3932 0.135
50.4235 0.089
50.4538 0.201
50.4840 -0.417
50.5143 -0.096
50.5446 0.225
50.5749 0.233
50.6052 -0.018
50.6354 0.096
50.6657 -0.415
50.6960 -0.058
50.7263 0.352
50.7565 -0.227
50.7868 -0.494
50.8171 0.282
50.8474 0.121
50.8777 0.689
50.9079 -0.096
50.9382 0.473
50.9685 0.000
50.9988 0.362
51.0291 0.307
51.0593 0.513
51.0896 0.303
51.1199 0.249
51.1502 0.144
51.1804 0.403
51.2107 0.246
51.2410 0.767
51.2713 0.038
51.3016 0.143
51.3318 -0.012
51.3621 -0.271
51.3924 -0.061
51.4227 0.462
51.4530 -0.004
51.4832 -0.054
51.5135 0.002
51.5438 0.318
51.5741 0.062
51.6043 0.118
51.6346 0.175
51.6649 0.649
51.6952 -0.075
51.7255 0.556
51.7557 0.094
51.7860 0.101
51.8163 -0.309
51.8466 0.272
51.8769 -0.085
51.9071 -0.754
51.9374 0.120
51.9677 0.421
51.9980 0.045
52.0282 -0.018
52.0585 0.181
52.0888 -0.298
52.1191 0.422
52.1494 -0.160
52.1796 0.404
52.2099 0.135
52.2402 0.231
52.2705 0.380
52.3008 -0.044
52.3310 0.262
52.3613 0.099
52.3916 -0.584
52.4219 0.504
52.4521 -0.074
52.4824 0.285
52.5127 -0.553
52.5430 0.225
52.5733 -0.144
52.6035 0.165
52.6338 -0.150
52.6641 -0.413
52.6944 0.522
52.7247 0.103
52.7549 0.258
52.7852 -0.316
52.8155 0.152
52.8458 0.099
52.8761 -0.005
52.9063 -0.056
52.9366 0.205
52.9669 -0.002
52.9972 0.260
53.0274 0.574
53.0577 0.212
53.0880 -0.150
53.1183 -0.147
53.1486 0.377
53.1788 0.485
53.2091 0.281
53.2394 -0.131
53.2697 0.082
53.3000 0.139
53.3302 0.249
53.3605 -0.057
53.3908 -0.363
53.4211 0.091
53.4513 1.172
53.4816 0.221
53.5119 0.468
53.5422 0.352
53.5725 0.131
53.6027 0.068
53.6330 -0.360
53.6633 0.306
53.6936 0.608
53.7239 0.181
53.7541 -0.037
53.7844 -0.307
53.8147 0.569
53.8450 -0.325
53.8752 0.032
53.9055 0.180
53.9358 0.068
53.9661 -0.043
53.9964 0.419
54.0266 0.308
54.0569 -0.479
54.0872 0.193
54.1175 0.083
54.1478 1.068
54.1780 1.011
54.2083 0.382
54.2386 0.431
54.2689 -0.458
54.2991 0.268
54.3294 0.682
54.3597 -0.101
54.3900 -0.676
54.4203 0.156
54.4505 0.831
54.4808 0.362
54.5111 0.101
54.5414 0.361
54.5717 0.361
54.6019 0.518
54.6322 0.415
54.6625 0.364
54.6928 -0.364
54.7230 -0.317
54.7533 0.025
54.7836 1.045
54.8139 0.190
54.8442 0.534
54.8744 -0.320
54.9047 0.544
54.9350 0.681
54.9653 0.557
54.9956 0.694
55.0258 0.623
55.0561 1.333
55.0864 0.638
55.1167 -0.057
55.1469 0.238
55.1772 0.013
55.2075 1.090
55.2378 0.293
55.2681 0.641
55.2983 0.626
55.3286 0.142
55.3589 0.856
55.3892 0.634
55.4195 0.724
55.4497 0.398
55.4800 0.541
55.5103 0.788
55.5406 0.203
55.5709 0.764
55.6011 1.273
55.6314 1.730
55.6617 2.084
55.6920 2.282
55.7222 1.803
55.7525 1.637
55.7828 1.627
55.8131 1.201
55.8434 3.120
55.8736 2.695
55.9039 3.312
55.9342 2.315
55.9645 3.870
55.9948 3.551
56.0250 3.961
56.0553 4.945
56.0856 5.460
56.1159 5.194
56.1461 6.596
56.1764 7.685
56.2067 8.410
56.2370 9.656
56.2673 11.684
56.2975 12.462
56.3278 12.876
56.3581 15.478
56.3884 17.039
56.4187 17.662
56.4489 18.442
56.4792 20.265
56.5095 19.691
56.5398 18.598
56.5700 17.348
56.6003 15.838
56.6306 15.475
56.6609 14.383
56.6912 12.458
56.7214 10.377
56.7517 9.494
56.7820 8.455
56.8123 6.011
56.8426 6.171
56.8728 6.071
56.9031 8.211
56.9334 5.351
56.9637 4.419
56.9939 4.008
57.0242 3.650
57.0545 3.187
57.0848 1.788
57.1151 2.993
57.1453 2.428
57.1756 2.123
57.2059 1.246
57.2362 2.088
57.2665 1.264
57.2967 1.170
57.3270 0.659
57.3573 1.086
57.3876 1.200
57.4178 0.222
57.4481 0.962
57.4784 0.974
57.5087 0.257
57.5390 0.582
57.5692 1.168
57.5995 -0.173
57.6298 0.987
57.6601 0.636
57.6904 0.494
57.7206 0.457
57.7509 0.420
57.7812 0.696
57.8115 0.139
57.8417 0.416
57.8720 0.485
57.9023 0.450
57.9326 -0.262
57.9629 0.120
57.9931 0.087
58.0234 -0.468
58.0537 -0.048
58.0840 0.423
58.1143 -0.094
58.1445 0.639
58.1748 0.070
58.2051 0.544
58.2354 0.132
58.2656 0.137
58.2959 0.247
58.3262 0.462
58.3565 0.989
58.3868 -0.254
58.4170 0.743
58.4473 -0.344
58.4776 0.498
58.5079 -0.796
58.5382 0.307
58.5684 1.305
58.5987 0.169
58.6290 0.231
58.6593 0.345
58.6896 0.512
58.7198 0.211
58.7501 -0.299
58.7804 0.598
58.8107 0.194
58.8409 -0.158
58.8712 0.115
58.9015 0.285
58.9318 -0.014
58.9621 -0.312
58.9923 -0.047
59.0226 -0.198
59.0529 -0.297
59.0832 0.230
59.1135 -0.180
59.1437 0.087
59.1740 0.094
59.2043 0.310
59.2346 0.005
59.2648 -0.247
59.2951 0.075
59.3254 0.084
59.3557 -0.376
59.3860 -0.001
59.4162 -0.304
59.4465 -0.108
59.4768 0.348
59.5071 -0.237
59.5374 0.428
59.5676 -0.312
59.5979 -0.115
59.6282 0.708
59.6585 0.333
59.6887 0.792
59.7190 0.470
59.7493 -0.216
59.7796 -0.069
59.8099 0.183
59.8401 0.384
59.8704 -0.093
59.9007 0.056
59.9310 0.466
59.9613 -0.165
59.9915 -0.432
60.0218 0.240
60.0521 -0.182
60.0824 -0.239
60.1126 -0.244
60.1429 0.325
60.1732 0.477
60.2035 -0.203
60.2338 0.106
60.2640 0.052
60.2943 0.205
60.3246 0.099
60.3549 -0.319
60.3852 0.409
60.4154 -0.321
60.4457 -0.321
60.4760 -0.064
60.5063 0.350
60.5365 -0.486
60.5668 -0.072
60.5971 0.395
60.6274 0.498
60.6577 0.288
60.6879 -0.337
60.7182 -0.252
60.7485 -0.271
60.7788 0.231
60.8091 0.474
60.8393 0.717
60.8696 -0.446
60.8999 -0.151
60.9302 0.302
60.9604 0.234
60.9907 0.166
61.0210 0.099
61.0513 0.657
61.0816 0.486
61.1118 0.211
61.1421 -0.428
61.1724 0.601
61.2027 -0.193
61.2330 -0.154
61.2632 -0.218
61.2935 0.603
61.3238 0.071
61.3541 0.476
61.3844 0.205
61.4146 -0.013
61.4449 0.445
61.4752 0.436
61.5055 0.114
61.5357 -0.937
61.5660 -0.067
61.5963 0.283
61.6266 0.164
61.6569 -0.580
61.6871 1.333
61.7174 0.070
61.7477 0.786
61.7780 0.825
61.8083 1.438
61.8385 0.488
61.8688 0.945
61.8991 0.569
61.9294 0.350
61.9596 0.704
61.9899 1.319
62.0202 1.205
62.0505 2.029
62.0808 1.395
62.1110 1.386
62.1413 2.211
62.1716 2.307
62.2019 3.706
62.2322 2.553
62.2624 4.109
62.2927 3.529
62.3230 3.679
62.3533 5.653
62.3835 4.814
62.4138 6.112
62.4441 6.472
62.4744 7.353
62.5047 7.401
62.5349 9.533
62.5652 9.739
62.5955 11.507
62.6258 12.755
62.6561 14.888
62.6863 15.199
62.7166 16.240
62.7469 15.666
62.7772 14.260
62.8074 16.499
62.8377 14.208
62.8680 13.323
62.8983 14.522
62.9286 11.555
62.9588 12.442
62.9891 9.841
63.0194 10.104
63.0497 8.440
63.0800 6.308
63.1102 7.875
63.1405 5.639
63.1708 4.133
63.2011 4.503
63.2313 4.560
63.2616 3.316
63.2919 1.968
63.3222 2.391
63.3525 2.398
63.3827 2.614
63.4130 1.475
63.4433 1.587
63.4736 1.700
63.5039 1.865
63.5341 0.468
63.5644 0.790
63.5947 0.331
63.6250 0.237
63.6552 0.456
63.6855 0.988
63.7158 0.635
63.7461 0.699
63.7764 -0.070
63.8066 0.828
63.8369 -0.045
63.8672 0.177
63.8975 -0.383
63.9278 0.257
63.9580 -0.146
63.9883 0.077
64.0186 0.822
64.0489 0.421
64.0791 0.228
64.1094 0.297
64.1397 -0.676
64.1700 -0.249
64.2003 0.802
64.2305 0.344
64.2608 -0.113
64.2911 0.419
64.3214 0.223
64.3517 0.183
64.3819 0.508
64.4122 -0.625
64.4425 -0.143
64.4728 -0.338
64.5031 -0.350
64.5333 0.472
64.5636 0.357
64.5939 -0.332
64.6242 -0.082
64.6544 0.377
64.6847 -0.258
64.7150 -0.215
64.7453 0.401
64.7756 -0.285
64.8058 -0.345
64.8361 0.166
64.8664 -0.207
64.8967 -0.007
64.9270 -0.327
64.9572 0.082
64.9875 -0.030
65.0178 -0.089
65.0481 0.165
65.0783 -0.466
65.1086 -0.002
65.1389 -0.112
65.1692 -0.117
65.1995 0.816
65.2297 0.239
65.2600 -0.806
65.2903 -0.203
65.3206 -0.172
65.3509 0.120
65.3811 -0.005
65.4114 -0.442
65.4417 0.054
65.4720 -0.596
65.5022 0.786
65.5325 -0.800
65.5628 0.113
65.5931 -0.066
65.6234 -0.089
65.6536 -0.320
65.6839 0.023
65.7142 0.105
65.7445 -0.697
65.7748 0.375
65.8050 0.615
65.8353 0.334
65.8656 0.315
65.8959 -0.017
65.9261 0.328
65.9564 0.362
65.9867 0.760
66.0170 0.117
66.0473 -0.317
66.0775 1.072
66.1078 0.534
66.1381 1.455
66.1684 0.762
66.1987 1.059
66.2289 0.731
66.2592 0.039
66.2895 1.379
66.3198 0.844
66.3500 0.570
66.3803 0.713
66.4106 1.220
66.4409 1.156
66.4712 0.623
66.5014 0.506
66.5317 1.016
66.5620 0.484
66.5923 0.369
66.6226 0.202
66.6528 0.349
66.6831 0.495
66.7134 -0.139
66.7437 -0.044
66.7739 -0.208
66.8042 0.669
66.8345 0.088
66.8648 0.029
66.8951 0.491
66.9253 0.380
66.9556 1.311
66.9859 0.733
67.0162 0.363
67.0465 1.035
67.0767 -0.272
67.1070 0.505
67.1373 0.501
67.1676 1.279
67.1978 0.077
67.2281 0.856
67.2584 1.166
67.2887 1.268
67.3190 1.319
67.3492 2.047
67.3795 2.202
67.4098 3.451
67.4401 3.555
67.4704 2.670
67.5006 3.973
67.5309 4.339
67.5612 4.027
67.5915 5.956
67.6218 5.854
67.6520 8.565
67.6823 7.839
67.7126 9.821
67.7429 9.252
67.7731 9.985
67.8034 9.208
67.8337 9.995
67.8640 10.208
67.8943 10.578
67.9245 9.126
67.9548 11.424
67.9851 9.295
68.0154 8.000
68.0457 9.466
68.0759 9.005
68.1062 6.669
68.1365 6.261
68.1668 5.906
68.1970 4.509
68.2273 3.998
68.2576 4.372
68.2879 3.602
68.3182 3.925
68.3484 3.103
68.3787 3.010
68.4090 3.439
68.4393 2.774
68.4696 2.891
68.4998 2.019
68.5301 1.876
68.5604 2.932
68.5907 2.738
68.6209 2.856
68.6512 3.028
68.6815 3.095
68.7118 2.851
68.7421 4.117
68.7723 2.623
68.8026 3.161
68.8329 4.168
68.8632 4.706
68.8935 5.558
68.9237 4.013
68.9540 5.855
68.9843 4.468
69.0146 5.998
69.0448 4.456
69.0751 5.413
69.1054 3.195
69.1357 4.518
69.1660 4.070
69.1962 4.613
69.2265 2.917
69.2568 3.252
69.2871 3.848
69.3174 2.309
69.3476 1.551
69.3779 1.263
69.4082 1.443
69.4385 1.000
69.4687 1.441
69.4990 1.415
69.5293 0.972
69.5596 -0.095
69.5899 1.286
69.6201 0.949
69.6504 0.091
69.6807 0.379
69.7110 1.032
69.7413 0.488
69.7715 0.517
69.8018 0.286
69.8321 0.003
69.8624 -0.279
69.8926 0.012
69.9229 0.095
69.9532 1.012
69.9835 -0.050
70.0138 0.815
70.0440 0.171
70.0743 -0.005
70.1046 0.028
70.1349 0.479
70.1652 0.356
70.1954 -0.234
70.2257 -0.304
70.2560 0.184
70.2863 0.568
70.3166 -0.298
70.3468 0.295
70.3771 0.940
70.4074 0.336
70.4377 0.462
70.4679 0.379
70.4982 0.036
70.5285 0.475
70.5588 -0.075
70.5891 0.469
70.6193 0.493
70.6496 1.141
70.6799 0.384
70.7102 0.565
70.7405 -0.556
70.7707 0.095
70.8010 0.641
70.8313 -0.062
70.8616 0.694
70.8918 -0.113
70.9221 0.279
70.9524 0.255
70.9827 0.387
71.0130 -0.210
71.0432 -0.285
71.0735 0.225
71.1038 0.268
71.1341 0.675
71.1644 0.249
71.1946 0.240
71.2249 -0.237
71.2552 0.588
71.2855 0.007
71.3157 0.677
71.3460 0.254
71.3763 0.195
71.4066 0.918
71.4369 0.235
71.4671 0.282
71.4974 0.068
71.5277 0.272
71.5580 0.684
71.5883 -0.257
71.6185 -0.260
71.6488 0.199
71.6791 0.919
71.7094 0.024
71.7396 0.172
71.7699 -0.305
71.8002 0.104
71.8305 0.044
71.8608 0.089
71.8910 0.916
71.9213 0.597
71.9516 0.487
71.9819 0.846
72.0122 0.268
72.0424 0.524
72.0727 0.103
72.1030 -0.161
72.1333 0.512
72.1635 0.665
72.1938 0.506
72.2241 0.660
72.2544 0.085
72.2847 1.229
72.3149 0.134
72.3452 0.862
72.3755 1.330
72.4058 1.330
72.4361 1.278
72.4663 0.497
72.4966 1.227
72.5269 1.229
72.5572 1.335
72.5874 0.712
72.6177 1.600
72.6480 0.977
72.6783 0.981
72.7086 1.088
72.7388 0.415
72.7691 0.888
72.7994 1.414
72.8297 0.429
72.8600 0.591
72.8902 0.493
72.9205 0.395
72.9508 0.818
72.9811 -0.008
73.0113 0.624
73.0416 0.736
73.0719 0.484
73.1022 0.388
73.1325 -0.332
73.1627 0.198
73.1930 -0.469
73.2233 0.166
73.2536 0.176
73.2839 -0.073
73.3141 0.094
73.3444 -0.259
73.3747 -0.042
73.4050 0.227
73.4353 -0.596
73.4655 0.143
73.4958 0.257
73.5261 0.788
73.5564 -0.086
73.5866 0.238
73.6169 0.145
73.6472 0.210
73.6775 0.482
73.7078 0.027
73.7380 0.144
73.7683 -0.259
73.7986 -0.112
73.8289 -0.068
73.8592 0.704
73.8894 0.280
73.9197 0.324
73.9500 0.317
73.9803 -0.002
74.0105 0.252
74.0408 0.558
74.0711 -0.176
74.1014 0.339
74.1317 -0.135
74.1619 0.017
74.1922 0.378
74.2225 0.322
74.2528 0.266
74.2831 0.055
74.3133 0.156
74.3436 0.623
74.3739 -0.004
74.4042 -0.058
74.4344 0.618
74.4647 -0.164
74.4950 -0.216
74.5253 0.253
74.5556 -0.268
74.5858 0.254
74.6161 0.099
74.6464 -0.368
74.6767 0.206
74.7070 0.157
74.7372 0.264
74.7675 0.267
74.7978 0.010
74.8281 0.065
74.8583 0.591
74.8886 0.230
74.9189 -0.025
74.9492 0.397
74.9795 0.142
75.0097 -0.112
75.0400 0.207
75.0703 0.214
75.1006 0.221
75.1309 0.281
75.1611 0.080
75.1914 -0.172
75.2217 0.045
75.2520 0.159
75.2822 -0.196
75.3125 -0.239
75.3428 -0.204
75.3731 0.404
75.4034 0.074
75.4336 0.110
75.4639 0.302
75.4942 0.130
75.5245 0.688
75.5548 0.100
75.5850 -0.019
75.6153 0.019
75.6456 0.057
75.6759 -0.061
75.7061 0.291
75.7364 0.278
75.7667 0.214
75.7970 0.098
75.8273 0.242
75.8575 0.231
75.8878 -0.092
75.9181 -0.102
75.9484 -0.269
75.9787 0.242
76.0089 -0.444
76.0392 0.224
76.0695 0.216
76.0998 -0.001
76.1301 0.148
76.1603 0.245
76.1906 -0.075
76.2209 -0.029
76.2512 0.381
76.2814 0.167
76.3117 0.109
76.3420 0.260
76.3723 0.412
76.4026 0.512
76.4328 0.456
76.4631 0.348
76.4934 0.032
76.5237 0.550
76.5540 0.287
76.5842 0.962
76.6145 0.075
76.6448 0.490
76.6751 1.167
76.7053 1.895
76.7356 1.322
76.7659 0.853
76.7962 1.271
76.8265 0.543
76.8567 1.325
76.8870 1.327
76.9173 1.589
76.9476 2.061
76.9779 0.761
77.0081 1.285
77.0384 0.872
77.0687 1.033
77.0990 1.610
77.1292 1.250
77.1595 0.422
77.1898 0.479
77.2201 0.641
77.2504 0.960
77.2806 0.394
77.3109 1.338
77.3412 0.565
77.3715 0.156
77.4018 0.633
77.4320 0.693
77.4623 0.285
77.4926 -0.487
77.5229 0.044
77.5531 0.054
77.5834 0.377
77.6137 -0.185
77.6440 0.086
77.6743 0.411
77.7045 0.318
77.7348 0.279
77.7651 0.447
77.7954 -0.321
77.8257 -0.255
77.8559 -0.046
77.8862 0.631
77.9165 0.164
77.9468 0.165
77.9770 0.323
78.0073 -0.143
78.0376 0.068
78.0679 -0.242
78.0982 -0.134
78.1284 -0.235
78.1587 0.030
78.1890 -0.018
78.2193 0.144
78.2496 -0.164
78.2798 0.467
78.3101 -0.100
78.3404 -0.250
78.3707 -0.036
78.4009 0.543
78.4312 0.342
78.4615 0.140
78.4918 0.252
78.5221 0.155
78.5523 0.059
78.5826 0.119
78.6129 0.076
78.6432 -0.331
78.6735 0.355
78.7037 0.209
78.7340 0.063
78.7643 -0.239
78.7946 -0.129
78.8248 0.397
78.8551 0.507
78.8854 -0.112
78.9157 0.311
78.9460 -0.359
78.9762 0.638
79.0065 0.385
79.0368 0.654
79.0671 0.402
79.0974 0.150
79.1276 0.160
79.1579 -0.039
79.1882 0.075
79.2185 -0.227
79.2488 -0.187
79.2790 0.010
79.3093 0.519
79.3396 0.196
79.3699 -0.023
79.4001 0.071
79.4304 0.270
79.4607 0.417
79.4910 0.096
79.5213 0.087
79.5515 0.131
79.5818 0.123
79.6121 0.324
79.6424 -0.204
79.6727 0.415
79.7029 -0.269
79.7332 0.038
79.7635 -0.228
79.7938 0.392
79.8240 0.543
79.8543 0.226
79.8846 0.587
79.9149 0.167
79.9452 0.007
79.9754 0.108
80.0057 -0.102
80.0360 0.416
80.0663 -0.054
80.0966 -0.160
80.1268 0.464
80.1571 0.360
80.1874 0.255
80.2177 0.464
80.2479 0.100
80.2782 -0.056
80.3085 -0.054
80.3388 0.260
80.3691 -0.519
80.3993 -0.219
80.4296 0.343
80.4599 0.331
80.4902 0.269
80.5205 0.414
80.5507 0.196
80.5810 0.447
80.6113 0.490
80.6416 0.325
80.6718 -0.153
80.7021 -0.057
80.7324 -0.169
80.7627 0.293
80.7930 0.598
80.8232 0.123
80.8535 0.221
80.8838 -0.201
80.9141 -0.103
80.9444 0.725
80.9746 -0.008
81.0049 0.560
81.0352 0.765
81.0655 0.344
81.0957 0.393
81.1260 -0.130
81.1563 0.492
81.1866 0.334
81.2169 0.228
81.2471 0.800
81.2774 0.903
81.3077 0.694
81.3380 0.277
81.3683 0.903
81.3985 0.382
81.4288 0.540
81.4591 0.228
81.4894 1.324
81.5196 0.232
81.5499 -0.390
81.5802 0.602
81.6105 0.189
81.6408 -0.485
81.6710 0.353
81.7013 -0.007
81.7316 0.101
81.7619 -0.206
81.7922 0.633
81.8224 0.535
81.8527 0.020
81.8830 0.131
81.9133 0.138
81.9436 0.041
81.9738 -0.107
82.0041 -0.255
82.0344 0.052
82.0647 0.359
82.0949 0.198
82.1252 -0.170
82.1555 -0.487
82.1858 0.239
82.2161 -0.077
82.2463 0.024
82.2766 0.282
82.3069 -0.032
82.3372 0.175
82.3675 -0.556
82.3977 -0.088
82.4280 -0.089
82.4583 -0.089
82.4886 0.120
82.5188 0.016
82.5491 -0.139
82.5794 -0.398
82.6097 0.489
82.6400 -0.134
82.6702 -0.183
82.7005 0.236
82.7308 -0.281
82.7611 0.243
82.7914 -0.013
82.8216 -0.009
82.8519 0.100
82.8822 -0.311
82.9125 -0.045
82.9427 0.169
82.9730 -0.242
83.0033 -0.131
83.0336 -0.177
83.0639 -0.222
83.0941 -0.006
83.1244 0.054
83.1547 -0.250
83.1850 -0.190
83.2153 0.234
83.2455 -0.382
83.2758 0.303
83.3061 0.052
83.3364 -0.095
83.3666 0.071
83.3969 0.238
83.4272 0.300
83.4575 -0.366
83.4878 -0.042
83.5180 -0.239
83.5483 -0.192
83.5786 0.064
83.6089 0.008
83.6392 0.524
83.6694 0.104
83.6997 0.101
83.7300 0.411
83.7603 0.460
83.7905 0.146
83.8208 -0.064
83.8511 0.299
83.8814 -0.223
83.9117 0.141
83.9419 -0.015
83.9722 -0.171
84.0025 0.194
84.0328 -0.170
84.0631 0.144
84.0933 0.146
84.1236 -0.061
84.1539 0.098
84.1842 -0.055
84.2144 0.312
84.2447 -0.153
84.2750 -0.305
84.3053 0.324
84.3356 -0.400
84.3658 -0.239
84.3961 0.071
84.4264 0.433
84.4567 0.326
84.4870 0.064
84.5172 0.219
84.5475 -0.043
84.5778 0.426
84.6081 0.217
84.6383 -0.460
84.6686 0.165
84.6989 0.322
84.7292 0.063
84.7595 0.221
84.7897 0.015
84.8200 -0.244
84.8503 0.228
84.8806 -0.342
84.9109 0.234
84.9411 -0.126
84.9714 -0.226
85.0017 0.091
85.0320 0.044
85.0623 -0.159
85.0925 0.159
85.1228 -0.199
85.1531 0.640
85.1834 0.491
85.2136 -0.335
85.2439 -0.171
85.2742 0.045
85.3045 -0.311
85.3348 -0.005
85.3650 -0.011
85.3953 -0.173
85.4256 0.603
85.4559 0.129
85.4862 -0.084
85.5164 -0.088
85.5467 0.169
85.5770 -0.147
85.6073 -0.150
85.6375 -0.361
85.6678 0.574
85.6981 0.364
85.7284 -0.002
85.7587 0.205
85.7889 -0.056
85.8192 0.152
85.8495 0.152
85.8798 -0.212
85.9101 0.309
85.9403 0.779
85.9706 0.156
86.0009 -0.363
86.0312 -0.110
86.0614 0.300
86.0917 -0.228
86.1220 -0.234
86.1523 0.072
86.1826 0.119
86.2128 0.687
86.2431 0.109
86.2734 -0.104
86.3037 -0.003
86.3340 0.149
86.3642 -0.166
86.3945 0.091
86.4248 0.401
86.4551 0.191
86.4853 0.606
86.5156 0.292
86.5459 -0.022
86.5762 0.030
86.6065 -0.022
86.6367 0.082
86.6670 0.291
86.6973 -0.177
86.7276 0.033
86.7579 0.295
86.7881 0.245
86.8184 -0.430
86.8487 0.042
86.8790 0.358
86.9092 0.205
86.9395 0.209
86.9698 0.630
87.0001 0.531
87.0304 0.379
87.0606 0.385
87.0909 -0.026
87.1212 -0.020
87.1515 -0.117
87.1818 -0.006
87.2120 -0.311
87.2423 0.040
87.2726 0.130
87.3029 0.742
87.3331 0.261
87.3634 -0.012
87.3937 0.080
87.4240 -0.244
87.4543 -0.100
87.4845 0.409
87.5148 0.658
87.5451 -0.291
87.5754 0.272
87.6057 0.313
87.6359 -0.009
87.6662 -0.123
87.6965 0.077
87.7268 -0.297
87.7571 0.476
87.7873 0.052
87.8176 0.617
87.8479 0.349
87.8782 -0.595
87.9084 0.128
87.9387 -0.295
87.9690 0.116
87.9993 0.163
88.0296 -0.415
88.0598 -0.115
88.0901 0.551
88.1204 0.124
88.1507 0.009
88.1810 -0.262
88.2112 0.510
88.2415 -0.437
88.2718 0.595
88.3021 -0.247
88.3323 0.005
88.3626 -0.003
88.3929 -0.271
88.4232 -0.025
88.4535 -0.144
88.4837 0.259
88.5140 0.193
88.5443 0.180
88.5746 0.063
88.6049 -0.054
88.6351 0.350
88.6654 -0.182
88.6957 0.587
88.7260 0.212
88.7562 0.201
88.7865 0.399
88.8168 0.129
88.8471 0.692
88.8774 0.162
88.9076 0.206
88.9379 0.249
88.9682 0.293
88.9985 0.442
89.0288 0.903
89.0590 0.688
89.0893 0.838
89.1196 1.040
89.1499 0.774
89.1801 1.029
89.2104 0.659
89.2407 1.540
89.2710 1.223
89.3013 1.324
89.3315 1.581
89.3618 1.630
89.3921 2.044
89.4224 1.729
89.4527 2.091
89.4829 2.142
89.5132 1.828
89.5435 2.869
89.5738 1.931
89.6040 1.618
89.6343 1.775
89.6646 2.297
89.6949 2.610
89.7252 1.882
89.7554 1.676
89.7857 1.886
89.8160 1.108
89.8463 1.840
89.8766 1.635
89.9068 1.587
89.9371 1.434
89.9674 1.908
89.9977 1.235
90.0279 1.501
90.0582 1.246
90.0885 0.523
90.1188 1.623
90.1491 0.588
90.1793 0.231
90.2096 0.967
90.2399 0.611
90.2702 -0.162
90.3005 0.784
90.3307 0.064
90.3610 -0.187
90.3913 0.343
90.4216 0.145
90.4518 -0.105
90.4821 -0.146
90.5124 0.126
90.5427 0.346
90.5730 0.046
90.6032 -0.359
90.6335 0.383
90.6638 0.501
90.6941 -0.111
90.7244 0.268
90.7546 -0.083
90.7849 -0.172
90.8152 0.468
90.8455 -0.141
90.8758 -0.230
90.9060 -0.266
90.9363 -0.054
90.9666 -0.363
90.9969 0.099
91.0271 0.248
91.0574 -0.174
91.0877 0.185
91.1180 0.752
91.1483 0.331
91.1785 -0.091
91.2088 -0.251
91.2391 0.162
91.2694 0.002
91.2997 0.468
91.3299 -0.576
91.3602 -0.110
91.3905 0.044
91.4208 -0.009
91.4510 -0.375
91.4813 0.197
91.5116 -0.220
91.5419 -0.063
91.5722 -0.167
91.6024 -0.271
91.6327 -0.179
91.6630 0.539
91.6933 -0.306
91.7236 -0.057
91.7538 -0.276
91.7841 -0.234
91.8144 0.485
91.8447 0.475
91.8749 -0.004
91.9052 -0.169
91.9355 0.030
91.9658 -0.134
91.9961 -0.246
92.0263 -0.046
92.0566 -0.261
92.0869 0.513
92.1172 0.611
92.1475 -0.021
92.1777 -0.131
92.2080 -0.240
92.2383 0.224
92.2686 0.427
92.2988 0.163
92.3291 0.836
92.3594 0.728
92.3897 -0.213
92.4200 0.201
92.4502 -0.009
92.4805 0.041
92.5108 0.612
92.5411 0.298
92.5714 0.714
92.6016 0.505
92.6319 0.766
92.6622 0.297
92.6925 1.131
92.7227 1.080
92.7530 1.030
92.7833 -0.167
92.8136 0.356
92.8439 0.463
92.8741 1.039
92.9044 0.782
92.9347 0.525
92.9650 0.633
92.9953 0.482
93.0255 0.955
93.0558 0.075
93.0861 -0.024
93.1164 -0.122
93.1466 0.510
93.1769 -0.421
93.2072 0.211
93.2375 0.635
93.2678 -0.034
93.2980 0.391
93.3283 0.504
93.3586 -0.112
93.3889 0.053
93.4192 -0.250
93.4494 0.125
93.4797 0.500
93.5100 -0.114
93.5403 0.002
93.5706 1.211
93.6008 -0.027
93.6311 -0.014
93.6614 0.415
93.6917 0.064
93.7219 0.181
93.7522 0.091
93.7825 -0.415
93.8128 -0.071
93.8431 0.117
93.8733 0.045
93.9036 0.391
93.9339 -0.305
93.9642 0.405
93.9945 -0.029
94.0247 0.630
94.0550 0.925
94.0853 -0.185
94.1156 -0.150
94.1458 -0.010
94.1761 -0.130
94.2064 0.219
94.2367 0.100
94.2670 0.294
94.2972 0.227
94.3275 0.786
94.3578 -0.009
94.3881 -0.074
94.4184 0.226
94.4486 0.370
94.4789 0.670
94.5092 0.398
94.5395 0.282
94.5697 -0.301
94.6000 -0.104
94.6303 0.199
94.6606 0.085
94.6909 1.326
94.7211 0.483
94.7514 0.995
94.7817 0.727
94.8120 0.354
94.8423 0.972
94.8725 1.069
94.9028 1.583
94.9331 1.056
94.9634 0.581
94.9936 0.888
95.0239 1.299
95.0542 1.555
95.0845 1.082
95.1148 1.703
95.1450 1.386
95.1753 2.164
95.2056 2.057
95.2359 1.638
95.2662 2.052
95.2964 2.415
95.3267 1.789
95.3570 1.475
95.3873 2.100
95.4175 1.578
95.4478 1.370
95.4781 2.673
95.5084 1.215
95.5387 1.477
95.5689 1.687
95.5992 1.168
95.6295 0.806
95.6598 0.548
95.6901 0.551
95.7203 1.075
95.7506 1.079
95.7809 0.354
95.8112 -0.214
95.8414 0.364
95.8717 0.630
95.9020 0.167
95.9323 0.277
95.9626 -0.081
95.9928 0.134
96.0231 0.402
96.0534 -0.007
96.0837 -0.624
96.1140 0.061
96.1442 -0.088
96.1745 0.129
96.2048 -0.279
96.2351 0.043
96.2653 -0.416
96.2956 0.375
96.3259 0.072
96.3562 0.187
96.3865 0.250
96.4167 -0.311
96.4470 -0.196
96.4773 0.180
96.5076 -0.172
96.5379 -0.160
96.5681 -0.251
96.5984 -0.290
96.6287 0.028
96.6590 0.295
96.6893 -0.115
96.7195 0.934
96.7498 0.056
96.7801 0.064
96.8104 -0.136
96.8406 -0.128
96.8709 -0.067
96.9012 -0.213
96.9315 -0.100
96.9618 -0.037
96.9920 -0.131
97.0223 -0.016
97.0526 -0.317
97.0829 0.111
97.1132 -0.033
97.1434 -0.177
97.1737 -0.060
97.2040 -0.203
97.2343 0.123
97.2645 0.085
97.2948 -0.266
97.3251 0.582
97.3554 0.025
97.3857 0.613
97.4159 0.108
97.4462 0.124
97.4765 -0.016
97.5068 -0.363
97.5371 0.053
97.5673 -0.156
97.5976 0.417
97.6279 0.001
97.6582 -0.311
97.6884 0.038
97.7187 0.648
97.7490 0.008
97.7793 -0.214
97.8096 0.814
97.8398 1.477
97.8701 0.370
97.9004 -0.111
97.9307 0.970
97.9610 0.958
97.9912 0.478
98.0215 0.571
98.0518 0.091
98.0821 0.393
98.1123 0.591
98.1426 0.686
98.1729 0.104
98.2032 0.824
98.2335 0.867
98.2637 0.807
98.2940 0.122
98.3243 0.844
98.3546 1.306
98.3849 1.038
98.4151 0.824
98.4454 1.235
98.4757 1.125
98.5060 0.963
98.5362 1.479
98.5665 0.902
98.5968 0.898
98.6271 0.165
98.6574 0.891
98.6876 0.420
98.7179 1.250
98.7482 0.936
98.7785 0.882
98.8088 0.203
98.8390 1.348
98.8693 0.358
98.8996 -0.007
98.9299 0.566
98.9601 -0.058
98.9904 0.620
99.0207 0.361
99.0510 0.050
99.0813 0.104
99.1115 -0.050
99.1418 0.630
99.1721 0.894
99.2024 0.272
99.2327 0.484
99.2629 -0.188
99.2932 -0.236
99.3235 0.394
99.3538 -0.121
99.3841 0.406
99.4143 0.516
99.4446 0.523
99.4749 0.113
99.5052 -0.401
99.5354 0.388
99.5657 0.240
99.5960 0.197
99.6263 -0.263
99.6566 0.371
99.6868 0.172
99.7171 0.130
99.7474 -0.120
99.7777 -0.109
99.8080 0.371
99.8382 -0.086
99.8685 -0.231
99.8988 -0.271
99.9291 0.101
99.9593 0.369
99.9896 0.481
100.0199 -0.292
100.0502 0.759
100.0805 -0.170
100.1107 0.100
100.1410 0.266
100.1713 0.120
100.2016 -0.182
100.2319 0.194
100.2621 0.361
100.2924 -0.252
100.3227 0.281
100.3530 0.033
100.3832 0.046
100.4135 0.111
100.4438 0.021
100.4741 0.035
100.5044 0.518
100.5346 0.429
100.5649 0.027
100.5952 -0.062
100.6255 -0.150
100.6558 0.387
100.6860 0.404
100.7163 -0.204
100.7466 -0.239
100.7769 0.058
100.8071 0.616
100.8374 0.393
100.8677 0.275
100.8980 0.001
100.9283 0.091
100.9585 -0.547
100.9888 0.951
101.0191 0.314
101.0494 0.302
101.0797 -0.074
101.1099 0.487
101.1402 -0.201
101.1705 0.153
101.2008 -0.013
101.2310 0.186
101.2613 -0.032
101.2916 -0.093
101.3219 0.159
101.3522 0.411
101.3824 -0.117
101.4127 0.240
101.4430 -0.132
101.4733 0.226
101.5036 0.116
101.5338 -0.151
101.5641 -0.208
101.5944 -0.266
101.6247 0.250
101.6549 0.244
101.6852 0.239
101.7155 -0.286
101.7458 0.230
101.7761 0.226
101.8063 0.171
101.8366 0.480
101.8669 -0.252
101.8972 0.371
101.9275 0.213
101.9577 0.732
101.9880 -0.259
102.0183 0.105
102.0486 0.365
102.0788 -0.104
102.1091 0.105
102.1394 -0.363
102.1697 -0.055
102.2000 -0.007
102.2302 -0.271
102.2605 -0.080
102.2908 -0.305
102.3211 0.251
102.3514 0.652
102.3816 0.219
102.4119 0.776
102.4422 0.345
102.4725 0.642
102.5028 -0.101
102.5330 0.249
102.5633 0.653
102.5936 0.691
102.6239 0.991
102.6541 0.458
102.6844 0.289
102.7147 0.538
102.7450 0.318
102.7753 0.776
102.8055 0.297
102.8358 1.068
102.8661 0.121
102.8964 0.424
102.9267 0.206
102.9569 0.458
102.9872 0.658
103.0175 0.494
103.0478 0.382
103.0780 0.427
103.1083 0.472
103.1386 0.570
103.1689 1.189
103.1992 0.194
103.2294 0.501
103.2597 0.548
103.2900 0.648
103.3203 0.592
103.3506 0.432
103.3808 0.012
103.4111 0.425
103.4414 0.371
103.4717 0.264
103.5019 0.366
103.5322 0.105
103.5625 0.989
103.5928 1.040
103.6231 1.509
103.6533 0.519
103.6836 0.155
103.7139 0.989
103.7442 0.834
103.7745 0.888
103.8047 0.733
103.8350 1.361
103.8653 0.894
103.8956 0.950
103.9258 1.422
103.9561 0.905
103.9864 1.690
104.0167 1.539
104.0470 1.700
104.0772 1.705
104.1075 1.659
104.1378 1.561
104.1681 1.411
104.1984 1.209
104.2286 0.956
104.2589 0.808
104.2892 2.691
104.3195 1.032
104.3497 1.458
104.3800 1.467
104.4103 0.591
104.4406 0.809
104.4709 1.236
104.5011 0.570
104.5314 0.737
104.5617 1.165
104.5920 1.020
104.6223 0.043
104.6525 0.004
104.6828 1.214
104.7131 0.446
104.7434 0.512
104.7736 0.110
104.8039 0.593
104.8342 0.087
104.8645 0.519
104.8948 0.430
104.9250 0.394
104.9553 -0.163
104.9856 0.010
105.0159 -0.285
105.0462 0.038
105.0764 0.310
105.1067 -0.094
105.1370 0.074
105.1673 0.087
105.1975 -0.056
105.2278 0.270
105.2581 0.544
105.2884 0.194
105.3187 -0.260
105.3489 -0.158
105.3792 -0.106
105.4095 -0.107
105.4398 -0.003
105.4701 -0.055
105.5003 0.258
105.5306 -0.106
105.5609 0.677
105.5912 -0.155
105.6215 -0.049
105.6517 -0.046
105.6820 0.061
105.7123 0.481
105.7426 -0.036
105.7728 0.072
105.8031 0.076
105.8334 0.081
105.8637 -0.175
105.8940 -0.325
105.9242 0.514
105.9545 0.208
105.9848 -0.098
106.0151 0.013
106.0454 -0.032
106.0756 -0.128
106.1059 0.192
106.1362 0.045
106.1665 -0.572
106.1967 -0.004
106.2270 0.044
106.2573 -0.168
106.2876 -0.016
106.3179 0.241
106.3481 -0.022
106.3784 -0.337
106.4087 0.075
106.4390 0.487
106.4693 0.170
106.4995 -0.198
106.5298 0.163
106.5601 0.108
106.5904 0.365
106.6206 0.311
106.6509 0.622
106.6812 -0.005
106.7115 0.098
106.7418 0.202
106.7720 0.253
106.8023 0.045
106.8326 0.722
106.8629 0.515
106.8932 -0.005
106.9234 0.309
106.9537 0.624
106.9840 0.105
107.0143 0.160
107.0445 -0.202
107.0748 1.052
107.1051 0.691
107.1354 0.278
107.1657 0.595
107.1959 0.652
107.2262 0.189
107.2565 0.351
107.2868 0.096
107.3171 -0.158
107.3473 0.266
107.3776 0.690
107.4079 0.229
107.4382 -0.024
107.4684 0.297
107.4987 0.097
107.5290 0.159
107.5593 0.012
107.5896 0.595
107.6198 0.188
107.6501 0.303
107.6804 -0.311
107.7107 -0.259
107.7410 0.357
107.7712 0.817
107.8015 0.392
107.8318 0.697
107.8621 0.481
107.8923 0.162
107.9226 0.624
107.9529 0.305
107.9832 0.351
108.0135 1.023
108.0437 0.132
108.0740 0.648
108.1043 0.175
108.1346 -0.246
108.1649 0.168
108.1951 0.320
108.2254 0.109
108.2557 0.211
108.2860 0.209
108.3163 0.363
108.3465 0.049
108.3768 0.257
108.4071 0.204
108.4374 0.256
108.4676 0.204
108.4979 -0.056
108.5282 0.153
108.5585 0.051
108.5888 -0.104
108.6190 0.471
108.6493 0.057
108.6796 -0.201
108.7099 -0.250
108.7402 0.046
108.7704 0.290
108.8007 0.273
108.8310 0.153
108.8613 0.190
108.8915 -0.085
108.9218 0.681
108.9521 -0.010
108.9824 0.549
109.0127 -0.090
109.0429 0.314
109.0732 0.197
109.1035 0.185
109.1338 -0.036
109.1641 0.890
109.1943 -0.111
109.2246 0.451
109.2549 0.024
109.2852 -0.194
109.3154 0.265
109.3457 -0.422
109.3760 0.403
109.4063 -0.231
109.4366 -0.239
109.4668 -0.039
109.4971 -0.254
109.5274 0.103
109.5577 -0.216
109.5880 0.038
109.6182 -0.280
109.6485 -0.237
109.6788 0.068
109.7091 0.216
109.7393 0.105
109.7696 0.150
109.7999 -0.065
109.8302 -0.123
109.8605 0.652
109.8907 0.855
109.9210 0.433
109.9513 -0.092
109.9816 0.685
110.0119 0.681
110.0421 0.625
110.0724 0.362
110.1027 0.359
110.1330 0.304
110.1632 0.459
110.1935 0.509
110.2238 0.872
110.2541 0.247
110.2844 -0.327
110.3146 0.871
110.3449 -0.170
110.3752 0.924
110.4055 -0.013
110.4358 0.406
110.4660 0.668
110.4963 0.357
110.5266 0.360
110.5569 0.311
110.5871 0.627
110.6174 0.995
110.6477 1.207
110.6780 0.170
110.7083 0.383
110.7385 -0.028
110.7688 0.758
110.7991 0.452
110.8294 0.614
110.8597 0.257
110.8899 -0.101
110.9202 0.792
110.9505 0.227
110.9808 0.287
111.0110 0.192
111.0413 -0.633
111.0716 0.314
111.1019 -0.249
111.1322 -0.031
111.1624 -0.124
111.1927 0.720
111.2230 0.002
111.2533 0.482
111.2836 -0.026
111.3138 0.403
111.3441 -0.262
111.3744 -0.144
111.4047 -0.027
111.4350 0.248
111.4652 -0.103
111.4955 0.120
111.5258 -0.385
111.5561 0.463
111.5863 -0.302
111.6166 0.235
111.6469 -0.165
111.6772 0.060
111.7075 -0.183
111.7377 0.564
111.7680 -0.147
111.7983 -0.285
111.8286 0.180
111.8589 0.384
111.8891 0.745
111.9194 0.482
111.9497 0.323
111.9800 0.373
112.0102 0.579
112.0405 0.578
112.0708 0.316
112.1011 0.211
112.1314 0.576
112.1616 0.524
112.1919 0.107
112.2222 0.212
112.2525 0.266
112.2828 0.267
112.3130 0.113
112.3433 0.011
112.3736 0.170
112.4039 0.433
112.4341 -0.188
112.4644 0.284
112.4947 0.132
112.5250 -0.176
112.5553 0.194
112.5855 0.251
112.6158 0.205
112.6461 0.107
112.6764 0.686
112.7067 0.172
112.7369 -0.237
112.7672 0.604
112.7975 -0.326
112.8278 0.620
112.8580 0.681
112.8883 -0.143
112.9186 0.075
112.9489 -0.019
112.9792 0.095
113.0094 -0.311
113.0397 -0.061
113.0700 0.293
113.1003 0.075
113.1306 0.118
113.1608 0.838
113.1911 0.360
113.2214 0.196
113.2517 -0.177
113.2819 0.337
113.3122 -0.243
113.3425 0.323
113.3728 -0.048
113.4031 0.102
113.4333 0.357
113.4636 0.404
113.4939 0.399
113.5242 0.082
113.5545 -0.027
113.5847 0.230
113.6150 -0.190
113.6453 0.588
113.6756 -0.404
113.7058 -0.250
113.7361 -0.051
113.7664 0.148
113.7967 0.400
113.8270 -0.234
113.8572 0.956
113.8875 0.063
113.9178 -0.361
113.9481 0.309
113.9784 0.198
114.0086 -0.225
114.0389 0.498
114.0692 -0.028
114.0995 0.175
114.1298 0.587
114.1600 0.271
114.1903 -0.358
114.2206 0.055
114.2509 -0.573
114.2811 0.361
114.3114 0.255
114.3417 -0.112
114.3720 0.043
114.4023 0.250
114.4325 0.040
114.4628 0.196
114.4931 0.404
114.5234 -0.325
114.5537 0.249
114.5839 0.771
114.6142 0.251
114.6445 0.618
114.6748 0.880
114.7050 0.101
114.7353 -0.260
114.7656 -0.178
114.7959 0.270
114.8262 -0.324
114.8564 0.281
114.8867 -0.312
114.9170 -0.123
114.9473 0.378
114.9776 -0.578
115.0078 0.393
115.0381 0.271
115.0684 0.461
115.0987 0.288
115.1289 0.114
115.1592 0.567
115.1895 0.342
115.2198 0.222
115.2501 -0.002
115.2803 0.556
115.3106 0.125
115.3409 -0.098
115.3712 0.461
115.4015 0.135
115.4317 -0.034
115.4620 0.630
115.4923 0.461
115.5226 0.657
115.5528 0.646
115.5831 0.635
115.6134 0.624
115.6437 0.874
115.6740 0.290
115.7042 0.177
115.7345 0.740
115.7648 0.471
115.7951 0.410
115.8254 0.975
115.8556 0.758
115.8859 1.584
115.9162 0.744
115.9465 1.310
115.9767 0.887
116.0070 0.673
116.0373 1.188
116.0676 1.131
116.0979 1.386
116.1281 1.590
116.1584 1.378
116.1887 1.478
116.2190 1.943
116.2493 1.107
116.2795 1.000
116.3098 1.363
116.3401 1.882
116.3704 1.360
116.4006 1.254
116.4309 0.733
116.4612 1.983
116.4915 1.618
116.5218 1.410
116.5520 1.567
116.5823 2.089
116.6126 1.310
116.6429 1.728
116.6732 1.210
116.7034 0.431
116.7337 0.591
116.7640 1.480
116.7943 0.859
116.8245 1.227
116.8548 0.867
116.8851 0.195
116.9154 0.617
116.9457 0.675
116.9759 1.046
117.0062 0.844
117.0365 0.747
117.0668 0.963
117.0971 -0.176
117.1273 0.197
117.1576 0.310
117.1879 0.318
117.2182 -0.297
117.2485 0.181
117.2787 0.764
117.3090 0.045
117.3393 0.056
117.3696 0.067
117.3998 0.807
117.4301 -0.431
117.4604 -0.054
117.4907 -0.302
117.5210 0.388
117.5512 0.141
117.5815 -0.470
117.6118 0.117
117.6421 -0.546
117.6724 -0.072
117.7026 0.143
117.7329 0.149
117.7632 0.676
117.7935 0.475
117.8237 0.065
117.8540 -0.239
117.8843 0.029
117.9146 0.246
117.9449 0.046
117.9751 0.733
118.0054 -0.404
118.0357 0.283
118.0660 -0.175
118.0963 -0.164
118.1265 -0.049
118.1568 0.431
118.1871 0.026
118.2174 -0.274
118.2476 0.103
118.2779 -0.092
118.3082 -0.131
118.3385 0.143
118.3688 -0.311
118.3990 -0.093
118.4293 0.178
118.4596 0.449
118.4899 0.147
118.5202 -0.310
118.5504 0.223
118.5807 0.235
118.6110 0.039
118.6413 -0.260
118.6715 -0.160
118.7018 -0.112
118.7321 0.458
118.7624 -0.482
118.7927 0.088
118.8229 0.086
118.8532 -0.124
118.8835 0.343
118.9138 0.238
118.9441 -0.127
118.9743 -0.127
119.0046 -0.023
119.0349 -0.126
119.0652 0.239
119.0954 0.188
119.1257 -0.227
119.1560 0.453
119.1863 -0.066
119.2166 0.250
119.2468 -0.528
119.2771 -0.108
119.3074 -0.260
119.3377 -0.209
119.3680 -0.157
119.3982 -0.260
119.4285 -0.011
119.4588 0.134
119.4891 -0.345
119.5193 0.374
119.5496 -0.157
119.5799 0.199
119.6102 0.606
119.6405 0.598
119.6707 0.173
119.7010 -0.304
119.7313 -0.051
119.7616 -0.058
119.7919 0.404
119.8221 0.294
119.8524 -0.337
119.8827 -0.292
119.9130 0.430
119.9433 -0.045
119.9735 -0.468
120.0038 0.000
