'Id: "" Comment: "" Operator: "Lab Manager" Anode: "Cu" Scantype: "Locked Coupled" TimePerStep: "19.2" X: "9999" Y: "9999" Z: "9999" 
10.0015 0.000
10.0318 -0.509
10.0620 -0.205
10.0923 0.932
10.1226 -1.368
10.1529 0.291
10.1832 0.075
10.2134 0.224
10.2437 -0.356
10.2740 0.210
10.3043 0.359
10.3346 -0.168
10.3648 0.190
10.3951 0.705
10.4254 0.282
10.4557 0.328
10.4859 -0.250
10.5162 -0.151
10.5465 -0.364
10.5768 -0.630
10.6071 0.256
10.6373 1.819
10.6676 0.465
10.6979 -0.263
10.7282 1.665
10.7585 1.093
10.7887 0.730
10.8190 0.002
10.8493 0.004
10.8796 0.527
10.9098 1.102
10.9401 0.948
10.9704 1.055
11.0007 1.058
11.0310 0.957
11.0612 1.429
11.0915 1.172
11.1218 1.280
11.1521 1.076
11.1824 1.132
11.2126 0.095
11.2429 0.412
11.2732 0.782
11.3035 0.474
11.3337 1.261
11.3640 0.694
11.3943 0.126
11.4246 -0.492
11.4549 0.347
11.4851 -0.063
11.5154 0.256
11.5457 0.367
11.5760 1.364
11.6063 1.059
11.6365 0.285
11.6668 0.345
11.6971 -0.064
11.7274 -0.524
11.7577 0.994
11.7879 -0.091
11.8182 -0.238
11.8485 1.229
11.8788 0.353
11.9090 -0.418
11.9393 -0.096
11.9696 0.278
11.9999 0.757
12.0302 0.247
12.0604 1.039
12.0907 0.321
12.1210 0.332
12.1513 -0.230
12.1816 0.459
12.2118 0.575
12.2421 0.430
12.2724 0.026
12.3027 0.351
12.3329 -0.887
12.3632 -0.424
12.3935 0.404
12.4238 0.555
12.4541 0.445
12.4843 -0.080
12.5146 0.019
12.5449 0.171
12.5752 1.104
12.6055 -0.411
12.6357 0.836
12.6660 0.415
12.6963 0.516
12.7266 0.461
12.7568 0.718
12.7871 -0.639
12.8174 -0.225
12.8477 0.658
12.8780 0.188
12.9082 0.238
12.9385 0.601
12.9688 0.235
12.9991 0.442
13.0294 1.430
13.0596 0.023
13.0899 0.127
13.1202 0.439
13.1505 0.647
13.1807 0.074
13.2110 -0.186
13.2413 -0.081
13.2716 0.753
13.3019 -0.131
13.3321 0.495
13.3624 0.444
13.3927 -0.283
13.4230 0.448
13.4533 0.294
13.4835 0.088
13.5138 -0.066
13.5441 0.353
13.5744 0.565
13.6046 0.047
13.6349 0.050
13.6652 0.783
13.6955 0.370
13.7258 0.374
13.7560 -0.194
13.7863 -0.711
13.8166 1.117
13.8469 -0.076
13.8772 0.086
13.9074 -0.430
13.9377 -0.744
13.9680 1.286
13.9983 0.869
14.0285 -0.121
14.0588 0.659
14.0891 -0.018
14.1194 0.711
14.1497 -0.018
14.1799 0.191
14.2102 0.504
14.2405 0.192
14.2708 0.246
14.3011 -0.482
14.3313 -0.064
14.3616 -0.323
14.3919 0.044
14.4222 -0.787
14.4524 0.361
14.4827 -0.366
14.5130 -0.363
14.5433 0.005
14.5736 -0.304
14.6038 0.064
14.6341 0.536
14.6644 -0.241
14.6947 0.128
14.7250 0.601
14.7552 0.032
14.7855 -0.015
14.8158 -0.062
14.8461 -0.057
14.8764 -0.259
14.9066 0.684
14.9369 -0.612
14.9672 0.175
14.9975 -0.496
15.0277 0.657
15.0580 0.091
15.0883 -0.163
15.1186 -0.156
15.1489 -0.669
15.1791 0.485
15.2094 -0.080
15.2397 -0.072
15.2700 0.301
15.3003 0.466
15.3305 0.266
15.3608 0.171
15.3911 -0.653
15.4214 0.085
15.4516 0.251
15.4819 -0.416
15.5122 -0.316
15.5425 -0.321
15.5728 0.144
15.6030 0.035
15.6333 -0.229
15.6636 -0.232
15.6939 0.129
15.7242 -0.499
15.7544 0.591
15.7847 -0.193
15.8150 -0.143
15.8453 0.532
15.8755 -0.252
15.9058 -0.253
15.9361 -0.099
15.9664 0.421
15.9967 0.472
16.0269 -0.259
16.0572 -0.363
16.0875 0.105
16.1178 -0.521
16.1481 -0.156
16.1783 -0.625
16.2086 0.104
16.2389 0.417
16.2692 0.261
16.2994 0.991
16.3297 -0.414
16.3600 0.212
16.3903 0.317
16.4206 -0.462
16.4508 -0.252
16.4811 0.010
16.5114 -0.352
16.5417 0.379
16.5720 0.538
16.6022 0.385
16.6325 -0.133
16.6628 -0.442
16.6931 0.077
16.7233 -0.132
16.7536 0.648
16.7839 0.022
16.8142 0.699
16.8445 0.699
16.8747 0.021
16.9050 0.386
16.9353 0.074
16.9656 0.960
16.9959 0.596
17.0261 0.545
17.0564 -0.026
17.0867 0.027
17.1170 0.029
17.1472 0.656
17.1775 -0.384
17.2078 0.764
17.2381 -0.379
17.2684 -0.011
17.2986 0.617
17.3289 -0.161
17.3592 0.207
17.3895 0.367
17.4198 0.423
17.4500 0.166
17.4803 0.275
17.5106 0.488
17.5409 -0.289
17.5712 -0.284
17.6014 0.711
17.6317 0.144
17.6620 0.566
17.6923 0.468
17.7225 0.265
17.7528 0.324
17.7831 0.122
17.8134 0.285
17.8437 0.865
17.8739 0.091
17.9042 -0.162
17.9345 0.158
17.9648 -0.303
17.9951 0.278
18.0253 0.234
18.0556 0.399
18.0859 -0.269
18.1162 0.886
18.1464 0.166
18.1767 -0.762
18.2070 0.445
18.2373 0.768
18.2676 0.048
18.2978 0.163
18.3281 -0.035
18.3584 0.080
18.3887 0.560
18.4190 0.519
18.4492 0.426
18.4795 -0.500
18.5098 0.502
18.5401 0.201
18.5703 -0.047
18.6006 -0.139
18.6309 -0.803
18.6612 0.077
18.6915 0.280
18.7217 0.015
18.7520 0.375
18.7823 0.735
18.8126 0.835
18.8429 0.310
18.8731 0.879
18.9034 0.875
18.9337 0.560
18.9640 0.921
18.9942 0.241
19.0245 -0.230
19.0548 0.080
19.0851 0.338
19.1154 0.336
19.1456 0.438
19.1759 -0.084
19.2062 0.695
19.2365 0.173
19.2668 0.693
19.2970 0.172
19.3273 0.952
19.3576 0.015
19.3879 0.015
19.4181 -0.246
19.4484 0.901
19.4787 -0.088
19.5090 0.017
19.5393 0.122
19.5695 0.383
19.5998 0.125
19.6301 0.491
19.6604 -0.132
19.6907 0.755
19.7209 0.133
19.7512 -0.334
19.7815 0.034
19.8118 0.297
19.8420 0.353
19.8723 -0.008
19.9026 0.412
19.9329 -0.053
19.9632 0.212
19.9934 -0.201
20.0237 0.585
20.0540 0.694
20.0843 -0.030
20.1146 0.183
20.1448 0.606
20.1751 0.299
20.2054 0.357
20.2357 -0.002
20.2659 -0.725
20.2962 -0.046
20.3265 0.529
20.3568 0.010
20.3871 -0.040
20.4173 0.119
20.4476 0.278
20.4779 0.333
20.5082 -0.393
20.5385 1.069
20.5687 0.083
20.5990 -0.382
20.6293 -0.231
20.6596 0.233
20.6899 0.697
20.7201 0.328
20.7504 -0.041
20.7807 0.112
20.8110 0.733
20.8412 0.313
20.8715 -0.368
20.9018 0.514
20.9321 0.043
20.9624 -0.220
20.9926 -0.588
21.0229 0.348
21.0532 0.033
21.0835 0.448
21.1138 0.811
21.1440 0.705
21.1743 1.017
21.2046 0.755
21.2349 0.182
21.2651 -0.183
21.2954 0.077
21.3257 -0.444
21.3560 0.233
21.3863 -0.235
21.4165 0.182
21.4468 -0.390
21.4771 0.184
21.5074 0.081
21.5377 -0.386
21.5679 -0.280
21.5982 0.608
21.6285 0.506
21.6588 0.301
21.6890 -0.530
21.7193 -0.266
21.7496 -0.314
21.7799 0.002
21.8102 -0.932
21.8404 0.531
21.8707 -0.142
21.9010 -0.033
21.9313 -0.445
21.9616 0.237
21.9918 1.284
22.0221 0.456
22.0524 0.358
22.0827 -0.001
22.1129 0.422
22.1432 0.376
22.1735 -0.086
22.2038 0.494
22.2341 -0.645
22.2643 0.195
22.2946 0.359
22.3249 0.002
22.3552 0.166
22.3855 0.279
22.4157 0.391
22.4460 0.035
22.4763 0.356
22.5066 0.105
22.5368 0.114
22.5671 0.592
22.5974 0.915
22.6277 -0.221
22.6580 -0.368
22.6882 -0.217
22.7185 -0.170
22.7488 0.033
22.7791 -0.285
22.8094 -0.081
22.8396 -0.451
22.8699 0.170
22.9002 0.322
22.9305 0.006
22.9607 0.106
22.9910 0.311
23.0213 0.464
23.0516 0.513
23.0819 0.093
23.1121 0.091
23.1424 0.140
23.1727 -0.174
23.2030 -0.333
23.2333 -0.126
23.2635 0.289
23.2938 0.496
23.3241 -0.130
23.3544 0.025
23.3846 0.702
23.4149 0.441
23.4452 -0.289
23.4755 0.232
23.5058 0.233
23.5360 0.025
23.5663 1.067
23.5966 -0.078
23.6269 0.027
23.6572 0.029
23.6874 0.134
23.7177 -1.114
23.7480 -0.181
23.7783 -0.030
23.8086 -0.243
23.8388 0.482
23.8691 -0.355
23.8994 0.422
23.9297 0.575
23.9599 -0.366
23.9902 0.204
24.0205 -0.164
24.0508 -0.219
24.0811 -0.325
24.1113 -0.015
24.1416 0.243
24.1719 -0.071
24.2022 0.187
24.2325 0.134
24.2627 -0.024
24.2930 -0.233
24.3233 -0.598
24.3536 0.443
24.3838 0.338
24.4141 0.703
24.4444 -0.234
24.4747 0.026
24.5050 -0.129
24.5352 -0.389
24.5655 0.497
24.5958 0.394
24.6261 0.656
24.6564 -0.592
24.6866 1.024
24.7169 -0.119
24.7472 -0.117
24.7775 -0.479
24.8077 0.513
24.8380 0.256
24.8683 -0.106
24.8986 -0.831
24.9289 0.110
24.9591 -0.355
24.9894 0.066
25.0197 -0.451
25.0500 0.387
25.0803 0.235
25.1105 0.032
25.1408 -0.119
25.1711 0.355
25.2014 0.673
25.2316 0.002
25.2619 -0.148
25.2922 0.483
25.3225 0.177
25.3528 -0.285
25.3830 0.503
25.4133 -0.427
25.4436 -0.368
25.4739 0.249
25.5042 0.136
25.5344 0.388
25.5647 0.172
25.5950 0.632
25.6253 0.364
25.6555 -0.529
25.6858 -0.119
25.7161 -0.335
25.7464 -0.185
25.7767 0.798
25.8069 -0.354
25.8372 0.421
25.8675 -0.054
25.8978 0.305
25.9281 0.352
25.9583 -0.122
25.9886 0.341
26.0189 0.441
26.0492 -0.033
26.0794 0.223
26.1097 0.011
26.1400 0.059
26.1703 0.264
26.2006 0.104
26.2308 0.205
26.2611 -0.319
26.2914 0.407
26.3217 0.248
26.3520 0.038
26.3822 -0.121
26.4125 0.086
26.4428 -0.281
26.4731 0.030
26.5034 0.133
26.5336 0.028
26.5639 0.027
26.5942 -0.026
26.6245 0.026
26.6547 0.599
26.6850 0.130
26.7153 -0.391
26.7456 -0.130
26.7759 -0.077
26.8061 -0.024
26.8364 -0.023
26.8667 0.031
26.8970 0.084
26.9273 0.503
26.9575 0.088
26.9878 0.038
27.0181 0.093
27.0484 -0.269
27.0786 0.463
27.1089 0.570
27.1392 0.053
27.1695 -0.256
27.1998 0.425
27.2300 0.376
27.2603 0.641
27.2906 0.698
27.3209 0.390
27.3512 0.603
27.3814 1.546
27.4117 1.030
27.4420 -0.058
27.4723 0.208
27.5025 -0.515
27.5328 -0.275
27.5631 0.486
27.5934 -0.211
27.6237 0.915
27.6539 0.270
27.6842 0.199
27.7145 1.169
27.7448 0.525
27.7751 -0.171
27.8053 0.749
27.8356 0.209
27.8659 0.296
27.8962 0.226
27.9264 0.469
27.9567 0.972
27.9870 0.017
28.0173 0.261
28.0476 0.505
28.0778 -0.554
28.1081 -0.205
28.1384 -0.117
28.1687 0.752
28.1990 0.216
28.2292 0.044
28.2595 0.185
28.2898 0.118
28.3201 0.416
28.3503 -0.275
28.3806 0.127
28.4109 0.061
28.4412 0.151
28.4715 0.815
28.5017 -0.136
28.5320 0.267
28.5623 -0.110
28.5926 0.241
28.6229 -0.813
28.6531 0.269
28.6834 -0.056
28.7137 0.193
28.7440 0.077
28.7742 -0.195
28.8045 0.471
28.8348 0.825
28.8651 0.397
28.8954 0.491
28.9256 0.272
28.9559 0.366
28.9862 0.200
29.0165 0.190
29.0468 0.494
29.0770 0.797
29.1073 -0.410
29.1376 -1.096
29.1679 0.342
29.1981 0.686
29.2284 -0.064
29.2587 -0.500
29.2890 0.626
29.3193 0.398
29.3495 -0.247
29.3798 -0.109
29.4101 -0.545
29.4404 0.217
29.4707 -0.218
29.5009 -0.444
29.5312 -0.202
29.5615 0.978
29.5918 -0.654
29.6221 -0.203
29.6523 1.134
29.6826 -0.185
29.7129 -0.462
29.7432 -0.068
29.7734 0.222
29.8037 0.200
29.8340 -0.759
29.8643 0.990
29.8946 0.083
29.9248 -0.459
29.9551 0.301
29.9854 0.280
30.0157 0.989
30.0460 0.187
30.0762 0.479
30.1065 0.824
30.1368 0.283
30.1671 0.316
30.1973 0.818
30.2276 -0.035
30.2579 0.363
30.2882 1.646
30.3185 0.482
30.3487 1.193
30.3790 0.029
30.4093 0.064
30.4396 0.202
30.4699 0.654
30.5001 0.533
30.5304 1.922
30.5607 1.124
30.5910 0.587
30.6212 1.352
30.6515 1.127
30.6818 1.841
30.7121 1.669
30.7424 1.237
30.7726 3.253
30.8029 2.405
30.8332 2.286
30.8635 2.845
30.8938 2.049
30.9240 2.452
30.9543 4.521
30.9846 4.247
31.0149 4.807
31.0451 5.210
31.0754 5.927
31.1057 4.768
31.1360 7.620
31.1663 6.983
31.1965 8.638
31.2268 9.355
31.2571 10.177
31.2874 12.040
31.3177 13.227
31.3479 15.039
31.3782 16.747
31.4085 20.799
31.4388 21.310
31.4690 23.227
31.4993 27.644
31.5296 29.301
31.5599 33.771
31.5902 35.897
31.6204 36.878
31.6507 34.890
31.6810 37.694
31.7113 36.227
31.7416 32.053
31.7718 30.014
31.8021 26.829
31.8324 24.165
31.8627 22.075
31.8929 16.912
31.9232 15.863
31.9535 13.253
31.9838 13.142
32.0141 9.490
32.0443 11.880
32.0746 8.437
32.1049 7.859
32.1352 5.562
32.1655 5.661
32.1957 6.021
32.2260 4.089
32.2563 3.720
32.2866 4.289
32.3169 2.983
32.3471 3.865
32.3774 3.653
32.4077 2.817
32.4380 1.564
32.4682 4.061
32.4985 1.350
32.5288 1.504
32.5591 0.669
32.5894 1.656
32.6196 0.978
32.6499 1.289
32.6802 0.610
32.7105 1.443
32.7408 0.765
32.7710 0.868
32.8013 0.451
32.8316 0.451
32.8619 0.087
32.8921 0.973
32.9224 -0.121
32.9527 -0.537
32.9830 -0.287
33.0133 1.682
33.0435 -0.098
33.0738 1.350
33.1041 1.236
33.1344 0.550
33.1647 -0.345
33.1949 0.428
33.2252 0.315
33.2555 0.411
33.2858 0.194
33.3160 -1.012
33.3463 0.595
33.3766 -0.142
33.4069 0.788
33.4372 1.406
33.4674 -0.111
33.4977 1.289
33.5280 0.449
33.5583 1.224
33.5886 0.801
33.6188 1.525
33.6491 3.238
33.6794 1.201
33.7097 0.258
33.7399 1.660
33.7702 2.593
33.8005 2.119
33.8308 2.636
33.8611 3.726
33.8913 3.149
33.9216 4.760
33.9519 7.152
33.9822 5.899
34.0125 7.198
34.0427 9.748
34.0730 10.891
34.1033 12.972
34.1336 15.783
34.1638 20.520
34.1941 27.133
34.2244 31.819
34.2547 37.756
34.2850 45.307
34.3152 46.921
34.3455 43.483
34.3758 39.212
34.4061 34.524
34.4364 27.128
34.4666 20.306
34.4969 15.671
34.5272 14.943
34.5575 10.412
34.5877 10.466
34.6180 7.290
34.6483 5.729
34.6786 4.846
34.7089 4.848
34.7391 4.538
34.7694 2.718
34.7997 3.710
34.8300 4.702
34.8603 3.091
34.8905 4.032
34.9208 3.150
34.9511 2.425
34.9814 2.585
35.0116 2.694
35.0419 3.324
35.0722 1.870
35.1025 2.448
35.1328 2.818
35.1630 3.813
35.1933 3.246
35.2236 3.199
35.2539 3.205
35.2842 4.462
35.3144 5.145
35.3447 4.006
35.3750 5.211
35.4053 5.791
35.4356 6.632
35.4658 6.223
35.4961 6.491
35.5264 6.812
35.5567 8.174
35.5869 7.870
35.6172 10.379
35.6475 10.597
35.6778 12.064
35.7081 14.157
35.7383 14.948
35.7686 16.624
35.7989 16.270
35.8292 23.728
35.8595 20.457
35.8897 27.083
35.9200 30.843
35.9503 33.823
35.9806 38.314
36.0108 42.753
36.0411 43.962
36.0714 49.547
36.1017 55.081
36.1320 51.603
36.1622 53.387
36.1925 50.744
36.2228 48.361
36.2531 46.291
36.2834 42.503
36.3136 35.433
36.3439 31.020
36.3742 29.888
36.4045 24.434
36.4347 23.511
36.4650 19.880
36.4953 14.687
36.5256 15.744
36.5559 14.145
36.5861 10.359
36.6164 10.531
36.6467 8.048
36.6770 8.585
36.7073 8.029
36.7375 7.369
36.7678 4.834
36.7981 6.257
36.8284 6.014
36.8586 3.532
36.8889 3.915
36.9192 3.725
36.9495 2.597
36.9798 2.303
37.0100 2.531
37.0403 1.560
37.0706 1.736
37.1009 1.495
37.1312 2.504
37.1614 2.472
37.1917 2.024
37.2220 1.107
37.2523 1.075
37.2825 0.679
37.3128 0.440
37.3431 1.451
37.3734 0.587
37.4037 0.505
37.4339 0.006
37.4642 -0.180
37.4945 1.144
37.5248 0.125
37.5551 0.252
37.5853 0.223
37.6156 -0.170
37.6459 0.322
37.6762 0.190
37.7064 0.266
37.7367 0.811
37.7670 1.096
37.7973 0.026
37.8276 -0.105
37.8578 -0.288
37.8881 -0.315
37.9184 0.440
37.9487 -0.941
37.9790 0.595
38.0092 -0.160
38.0395 -0.810
38.0698 0.570
38.1001 -0.236
38.1304 -0.261
38.1606 -0.442
38.1909 0.047
38.2212 -0.298
38.2515 -0.121
38.2817 -0.256
38.3120 0.129
38.3423 -0.058
38.3726 -0.349
38.4029 0.245
38.4331 -0.410
38.4634 -0.075
38.4937 0.208
38.5240 0.230
38.5543 0.513
38.5845 -1.495
38.6148 0.143
38.6451 0.270
38.6754 -0.644
38.7056 0.318
38.7359 -0.075
38.7662 -1.040
38.7965 0.018
38.8268 -0.069
38.8570 -0.209
38.8873 -0.295
38.9176 -0.070
38.9479 0.052
38.9782 -0.346
39.0084 -0.380
39.0387 -0.362
39.0690 -0.395
39.0993 0.299
39.1295 -0.360
39.1598 0.439
39.1901 0.405
39.2204 -0.149
39.2507 -0.131
39.2809 -0.529
39.3112 0.167
39.3415 -0.699
39.3718 -0.002
39.4021 -0.087
39.4323 0.038
39.4626 -0.619
39.4929 -0.084
39.5232 -0.018
39.5534 -0.368
39.5837 0.429
39.6140 -0.702
39.6443 0.095
39.6746 0.371
39.7048 0.334
39.7351 0.090
39.7654 -0.363
39.7957 -0.247
39.8260 0.181
39.8562 0.141
39.8865 0.466
39.9168 0.374
39.9471 0.386
39.9773 -0.174
40.0076 -0.213
40.0379 0.217
40.0682 -0.447
40.0985 -0.225
40.1287 0.153
40.1590 0.167
40.1893 0.494
40.2196 0.509
40.2499 0.367
40.2801 0.903
40.3104 0.553
40.3407 0.308
40.3710 0.428
40.4012 -0.337
40.4315 -0.485
40.4618 0.461
40.4921 0.522
40.5224 0.115
40.5526 -0.396
40.5829 0.394
40.6132 0.040
40.6435 -0.106
40.6738 1.154
40.7040 0.175
40.7343 0.238
40.7646 0.301
40.7949 0.416
40.8251 0.480
40.8554 0.856
40.8857 -0.330
40.9160 0.515
40.9463 0.215
40.9765 0.436
41.0068 0.396
41.0371 0.357
41.0674 0.006
41.0977 0.280
41.1279 0.085
41.1582 0.411
41.1885 0.582
41.2188 -0.290
41.2491 0.662
41.2793 -0.052
41.3096 -0.402
41.3399 0.006
41.3702 0.517
41.4004 0.248
41.4307 0.656
41.4610 0.700
41.4913 0.014
41.5216 0.579
41.5518 -0.210
41.5821 0.043
41.6124 0.400
41.6427 0.185
41.6730 0.178
41.7032 0.171
41.7335 0.321
41.7638 0.002
41.7941 0.413
41.8243 -0.166
41.8546 -0.171
41.8849 0.136
41.9152 0.495
41.9455 0.386
41.9757 -0.400
42.0060 0.533
42.0363 0.112
42.0666 0.317
42.0969 0.000
42.1271 -0.055
42.1574 0.671
42.1877 -0.322
42.2180 0.248
42.2482 -0.172
42.2785 -0.382
42.3088 0.657
42.3391 0.030
42.3694 0.080
42.3996 0.079
42.4299 0.233
42.4602 -0.080
42.4905 0.231
42.5208 0.491
42.5510 -0.551
42.5813 0.073
42.6116 -0.135
42.6419 0.126
42.6721 0.543
42.7024 -0.290
42.7327 0.023
42.7630 0.285
42.7933 0.078
42.8235 0.131
42.8538 -0.075
42.8841 -0.126
42.9144 -0.071
42.9447 0.191
42.9749 -0.014
43.0052 -0.116
43.0355 -0.321
43.0658 -0.267
43.0960 -0.212
43.1263 -0.105
43.1566 0.158
43.1869 0.109
43.2172 0.321
43.2474 0.377
43.2777 0.172
43.3080 0.020
43.3383 0.649
43.3686 -0.232
43.3988 -0.279
43.4291 -0.066
43.4594 0.096
43.4897 0.101
43.5199 -0.154
43.5502 0.164
43.5805 0.275
43.6108 0.020
43.6411 0.444
43.6713 -0.018
43.7016 0.197
43.7319 0.308
43.7622 0.159
43.7925 0.531
43.8227 0.070
43.8530 0.130
43.8833 0.712
43.9136 0.460
43.9439 -0.261
43.9741 -0.304
44.0044 0.063
44.0347 0.065
44.0650 0.381
44.0952 0.071
44.1255 1.064
44.1558 0.078
44.1861 0.186
44.2164 0.346
44.2466 0.714
44.2769 0.198
44.3072 -0.006
44.3375 0.468
44.3678 0.837
44.3980 0.061
44.4283 -0.298
44.4586 -0.209
44.4889 0.505
44.5191 0.386
44.5494 0.059
44.5797 0.774
44.6100 0.031
44.6403 0.017
44.6705 -0.153
44.7008 -0.010
44.7311 0.446
44.7614 0.641
44.7917 -0.049
44.8219 0.616
44.8522 -0.074
44.8825 -0.190
44.9128 -0.254
44.9430 0.412
44.9733 0.556
45.0036 0.181
45.0339 0.430
45.0642 -0.310
45.0944 0.253
45.1247 -0.122
45.1550 0.076
45.1853 0.014
45.2156 -0.256
45.2458 0.516
45.2761 0.402
45.3064 -0.232
45.3367 -0.292
45.3669 0.376
45.3972 -0.205
45.4275 0.099
45.4578 1.029
45.4881 -0.125
45.5183 0.701
45.5486 0.069
45.5789 -0.094
45.6092 0.055
45.6395 0.257
45.6697 0.094
45.7000 -0.537
45.7303 -0.131
45.7606 -0.506
45.7908 0.629
45.8211 -0.110
45.8514 -0.173
45.8817 0.234
45.9120 0.277
45.9422 0.528
45.9725 0.102
46.0028 0.041
46.0331 0.241
46.0634 0.128
46.0936 0.015
46.1239 -0.097
46.1542 0.312
46.1845 0.565
46.2147 0.401
46.2450 0.602
46.2753 0.075
46.3056 0.224
46.3359 0.061
46.3661 0.315
46.3964 0.518
46.4267 0.564
46.4570 0.194
46.4873 0.501
46.5175 0.496
46.5478 0.699
46.5781 0.486
46.6084 0.013
46.6386 0.477
46.6689 0.577
46.6992 0.782
46.7295 1.299
46.7598 1.139
46.7900 0.667
46.8203 1.081
46.8506 1.390
46.8809 1.700
46.9112 1.958
46.9414 2.633
46.9717 2.163
47.0020 2.630
47.0323 3.045
47.0626 3.773
47.0928 4.137
47.1231 4.605
47.1534 5.542
47.1837 4.552
47.2139 5.697
47.2442 7.312
47.2745 7.781
47.3048 8.094
47.3351 7.991
47.3653 10.908
47.3956 10.493
47.4259 10.963
47.4562 10.548
47.4865 10.289
47.5167 9.198
47.5470 7.846
47.5773 7.223
47.6076 7.174
47.6378 6.240
47.6681 4.941
47.6984 5.569
47.7287 4.427
47.7590 2.920
47.7892 2.768
47.8195 2.929
47.8498 2.829
47.8801 2.677
47.9104 1.953
47.9406 1.125
47.9709 1.912
48.0012 0.771
48.0315 0.934
48.0617 1.669
48.0920 0.373
48.1223 0.275
48.1526 0.595
48.1829 0.862
48.2131 1.286
48.2434 0.199
48.2737 0.571
48.3040 0.892
48.3343 0.014
48.3645 0.387
48.3948 0.239
48.4251 0.717
48.4554 0.257
48.4856 -0.150
48.5159 0.484
48.5462 0.181
48.5765 0.295
48.6068 0.826
48.6370 0.107
48.6673 0.482
48.6976 -0.497
48.7279 0.191
48.7582 -0.006
48.7884 0.318
48.8187 -0.035
48.8490 0.081
48.8793 -0.168
48.9095 -0.051
48.9398 0.482
48.9701 -0.183
49.0004 0.403
49.0307 0.156
49.0609 -0.195
49.0912 -0.598
49.1215 0.249
49.1518 0.783
49.1821 0.121
49.2123 0.083
49.2426 0.098
49.2729 -0.200
49.3032 0.128
49.3334 0.143
49.3637 0.419
49.3940 0.226
49.4243 0.034
49.4546 -0.054
49.4848 -0.350
49.5151 0.014
49.5454 0.118
49.5757 0.535
49.6060 0.535
49.6362 -0.090
49.6665 -0.245
49.6968 0.224
49.7271 0.590
49.7574 -0.034
49.7876 -0.292
49.8179 0.439
49.8482 0.441
49.8785 -0.443
49.9087 0.393
49.9390 0.344
49.9693 0.138
49.9996 -0.588
50.0299 0.405
50.0601 0.044
50.0904 0.413
50.1207 0.156
50.1510 -0.204
50.1813 -0.304
50.2115 0.061
50.2418 0.061
50.2721 0.478
50.3024 0.062
50.3326 0.063
50.3629 0.637
50.3932 0.222
50.4235 0.015
50.4538 -0.243
50.4840 -0.033
50.5143 0.126
50.5446 0.076
50.5749 -0.129
50.6052 0.030
50.6354 0.345
50.6657 0.036
50.6960 -0.220
50.7263 0.252
50.7565 0.204
50.7868 0.521
50.8171 1.098
50.8474 -0.043
50.8777 -0.142
50.9079 0.644
50.9382 0.389
50.9685 0.082
50.9988 -0.068
51.0291 0.251
51.0593 0.153
51.0896 0.472
51.1199 -0.199
51.1502 -0.348
51.1804 0.161
51.2107 0.463
51.2410 0.296
51.2713 0.338
51.3016 0.536
51.3318 -0.412
51.3621 0.620
51.3924 0.350
51.4227 0.913
51.4530 0.175
51.4832 0.166
51.5135 0.574
51.5438 0.253
51.5741 0.192
51.6043 0.288
51.6346 -0.032
51.6649 0.116
51.6952 0.317
51.7255 0.258
51.7557 -0.009
51.7860 -0.537
51.8163 0.550
51.8466 0.283
51.8769 0.486
51.9071 -0.041
51.9374 -0.047
51.9677 -0.365
51.9980 0.359
52.0282 -0.063
52.0585 0.141
52.0888 -0.020
52.1191 0.392
52.1494 -0.029
52.1796 0.332
52.2099 -0.140
52.2402 0.377
52.2705 -0.303
52.3008 -0.202
52.3310 -0.257
52.3613 0.209
52.3916 0.571
52.4219 -0.160
52.4521 0.098
52.4824 0.513
52.5127 0.303
52.5430 -0.010
52.5733 0.041
52.6035 -0.064
52.6338 0.039
52.6641 -0.065
52.6944 -0.690
52.7247 0.035
52.7549 0.084
52.7852 -0.284
52.8155 0.078
52.8458 0.387
52.8761 -0.136
52.9063 0.018
52.9366 -0.088
52.9669 -0.507
52.9972 0.325
53.0274 -0.093
53.0577 0.166
53.0880 0.269
53.1183 -0.096
53.1486 -0.045
53.1788 0.476
53.2091 0.371
53.2394 0.007
53.2697 0.164
53.3000 0.320
53.3302 -0.096
53.3605 0.166
53.3908 0.427
53.4211 -0.040
53.4513 -0.090
53.4816 0.380
53.5119 -0.034
53.5422 0.385
53.5725 0.127
53.6027 0.494
53.6330 0.081
53.6633 0.084
53.6936 -0.017
53.7239 -0.378
53.7541 -0.018
53.7844 -0.231
53.8147 0.077
53.8450 0.125
53.8752 -0.295
53.9055 -0.038
53.9358 0.375
53.9661 -0.045
53.9964 -0.048
54.0266 0.158
54.0569 0.207
54.0872 0.049
54.1175 -0.162
54.1478 -0.111
54.1780 -0.061
54.2083 0.094
54.2386 0.197
54.2689 0.092
54.2991 0.247
54.3294 -0.170
54.3597 -0.274
54.3900 -0.327
54.4203 -0.132
54.4505 -0.145
54.4808 -0.106
54.5111 0.193
54.5414 -0.184
54.5717 0.429
54.6019 0.208
54.6322 -0.168
54.6625 -0.128
54.6928 0.329
54.7230 -0.203
54.7533 0.515
54.7836 0.087
54.8139 0.962
54.8442 -0.090
54.8744 -0.048
54.9047 0.150
54.9350 -0.068
54.9653 0.443
54.9956 0.069
55.0258 0.373
55.0561 0.311
55.0864 0.303
55.1167 0.815
55.1469 0.494
55.1772 0.643
55.2075 0.739
55.2378 0.679
55.2681 0.151
55.2983 0.873
55.3286 -0.071
55.3589 0.130
55.3892 1.009
55.4195 0.117
55.4497 0.372
55.4800 0.053
55.5103 1.037
55.5406 0.615
55.5709 0.766
55.6011 1.074
55.6314 1.121
55.6617 0.960
55.6920 0.800
55.7222 1.525
55.7525 1.000
55.7828 0.945
55.8131 1.879
55.8434 2.032
55.8736 1.977
55.9039 2.391
55.9342 2.388
55.9645 3.740
55.9948 2.852
56.0250 2.173
56.0553 5.349
56.0856 3.577
56.1159 4.409
56.1461 5.501
56.1764 5.397
56.2067 6.177
56.2370 6.906
56.2673 7.271
56.2975 8.625
56.3278 9.563
56.3581 9.303
56.3884 11.491
56.4187 13.367
56.4489 13.212
56.4792 12.745
56.5095 15.246
56.5398 12.540
56.5700 11.969
56.6003 10.773
56.6306 10.984
56.6609 9.268
56.6912 7.657
56.7214 7.295
56.7517 6.778
56.7820 6.261
56.8123 6.212
56.8426 4.237
56.8728 3.773
56.9031 4.611
56.9334 2.949
56.9637 3.891
56.9939 3.167
57.0242 3.329
57.0545 1.616
57.0848 1.726
57.1151 2.669
57.1453 2.415
57.1756 1.380
57.2059 1.595
57.2362 1.915
57.2665 1.661
57.2967 1.408
57.3270 0.791
57.3573 1.320
57.3876 0.911
57.4178 0.659
57.4481 0.459
57.4784 1.093
57.5087 1.362
57.5390 0.382
57.5692 0.704
57.5995 0.192
57.6298 -0.058
57.6601 0.785
57.6904 0.691
57.7206 0.806
57.7509 0.035
57.7812 0.827
57.8115 -0.151
57.8417 0.017
57.8720 0.393
57.9023 0.613
57.9326 0.885
57.9629 0.168
57.9931 -0.340
58.0234 0.089
58.0537 0.311
58.0840 0.376
58.1143 0.233
58.1445 -0.327
58.1748 -0.327
58.2051 0.871
58.2354 -0.327
58.2656 -0.327
58.2959 0.296
58.3262 0.397
58.3565 -0.282
58.3868 0.392
58.4170 0.338
58.4473 0.232
58.4776 0.439
58.5079 -0.500
58.5382 0.176
58.5684 0.280
58.5987 0.383
58.6290 -0.346
58.6593 -0.242
58.6896 -0.034
58.7198 -0.659
58.7501 0.435
58.7804 0.436
58.8107 -0.084
58.8409 -0.135
58.8712 -0.238
58.9015 0.285
58.9318 0.234
58.9621 -0.285
58.9923 -0.178
59.0226 0.085
59.0529 -0.069
59.0832 -0.431
59.1135 0.041
59.1437 -0.008
59.1740 0.308
59.2043 0.000
59.2346 -0.048
59.2648 -0.305
59.2951 -0.404
59.3254 0.267
59.3557 -0.104
59.3860 -0.058
59.4162 0.302
59.4465 -0.485
59.4768 0.604
59.5071 -0.443
59.5374 -0.187
59.5676 0.850
59.5979 0.117
59.6282 -0.147
59.6585 0.109
59.6887 -0.415
59.7190 0.103
59.7493 -0.317
59.7796 0.097
59.8099 -0.218
59.8401 0.196
59.8704 0.090
59.9007 0.244
59.9310 -0.070
59.9613 -0.072
59.9915 0.396
60.0218 -0.856
60.0521 0.185
60.0824 -0.076
60.1126 0.236
60.1429 -0.233
60.1732 -0.128
60.2035 0.184
60.2338 0.029
60.2640 0.186
60.2943 0.030
60.3246 -0.229
60.3549 -0.332
60.3852 -0.080
60.4154 0.693
60.4457 -0.357
60.4760 0.469
60.5063 -0.059
60.5365 -0.015
60.5668 0.082
60.5971 0.440
60.6274 0.381
60.6577 -0.146
60.6879 -0.413
60.7182 0.258
60.7485 -0.425
60.7788 -0.170
60.8091 0.033
60.8393 -0.701
60.8696 0.231
60.8999 0.331
60.9302 -0.090
60.9604 -0.199
60.9907 -0.307
61.0210 -0.467
61.0513 0.415
61.0816 -0.318
61.1118 0.356
61.1421 -0.428
61.1724 0.090
61.2027 -0.381
61.2330 -0.133
61.2632 0.271
61.2935 0.363
61.3238 -0.326
61.3541 -0.026
61.3844 -0.246
61.4146 0.108
61.4449 -0.268
61.4752 0.190
61.5055 0.387
61.5357 0.585
61.5660 0.106
61.5963 0.148
61.6266 -0.174
61.6569 0.806
61.6871 0.067
61.7174 0.058
61.7477 0.466
61.7780 0.509
61.8083 0.032
61.8385 1.117
61.8688 0.693
61.8991 0.581
61.9294 0.000
61.9596 -0.320
61.9899 0.663
62.0202 0.656
62.0505 1.066
62.0808 0.851
62.1110 0.584
62.1413 1.359
62.1716 1.145
62.2019 1.869
62.2322 1.499
62.2624 2.379
62.2927 1.905
62.3230 3.046
62.3533 3.354
62.3835 3.558
62.4138 3.867
62.4441 3.863
62.4744 4.640
62.5047 5.418
62.5349 6.457
62.5652 7.235
62.5955 7.961
62.6258 8.532
62.6561 9.311
62.6863 10.663
62.7166 11.130
62.7469 10.503
62.7772 11.491
62.8074 10.031
62.8377 9.458
62.8680 9.717
62.8983 8.415
62.9286 6.956
62.9588 8.622
62.9891 7.633
63.0194 7.217
63.0497 5.446
63.0800 5.343
63.1102 3.573
63.1405 4.095
63.1708 3.263
63.2011 3.056
63.2313 2.433
63.2616 2.279
63.2919 1.188
63.3222 1.399
63.3525 0.880
63.3827 1.352
63.4130 0.105
63.4433 0.942
63.4736 -0.096
63.5039 -0.040
63.5341 1.318
63.5644 0.073
63.5947 1.015
63.6250 0.186
63.6552 0.191
63.6855 0.352
63.7158 -0.267
63.7461 -0.001
63.7764 0.057
63.8066 0.219
63.8369 -0.087
63.8672 0.128
63.8975 -0.074
63.9278 0.037
63.9580 0.409
63.9883 0.104
64.0186 0.320
64.0489 0.119
64.0791 -0.602
64.1094 -0.073
64.1397 -0.637
64.1700 0.100
64.2003 0.005
64.2305 -0.142
64.2608 0.232
64.2911 -0.071
64.3214 -0.113
64.3517 -0.520
64.3819 0.324
64.4122 -0.030
64.4425 0.293
64.4728 -0.113
64.5031 -0.258
64.5333 -0.090
64.5636 0.077
64.5939 0.402
64.6242 -0.055
64.6544 -0.668
64.6847 0.019
64.7150 0.654
64.7453 -0.429
64.7756 -0.002
64.8058 0.114
64.8361 0.073
64.8664 0.292
64.8967 0.148
64.9270 0.472
64.9572 0.119
64.9875 -0.337
65.0178 -0.275
65.0481 0.152
65.0783 -0.202
65.1086 -0.139
65.1389 -0.388
65.1692 0.144
65.1995 -0.156
65.2297 -0.457
65.2600 0.099
65.2903 0.134
65.3206 0.222
65.3509 0.257
65.3811 -0.123
65.4114 0.382
65.4417 -0.363
65.4720 -0.014
65.5022 0.335
65.5325 0.112
65.5628 0.149
65.5931 -0.022
65.6234 0.849
65.6536 0.158
65.6839 -0.377
65.7142 -0.130
65.7445 0.273
65.7748 0.103
65.8050 -0.222
65.8353 0.129
65.8656 -0.091
65.8959 0.625
65.9261 0.040
65.9564 0.549
65.9867 0.589
66.0170 0.317
66.0473 0.723
66.0775 1.128
66.1078 1.690
66.1381 0.690
66.1684 1.201
66.1987 0.618
66.2289 1.753
66.2592 0.962
66.2895 0.640
66.3198 1.256
66.3500 0.518
66.3803 1.551
66.4106 0.500
66.4409 0.752
66.4712 1.421
66.5014 0.632
66.5317 0.207
66.5620 0.512
66.5923 1.026
66.6226 0.394
66.6528 1.168
66.6831 -0.349
66.7134 0.582
66.7437 0.263
66.7739 -0.107
66.8042 0.460
66.8345 1.079
66.8648 -0.228
66.8951 0.235
66.9253 0.283
66.9556 -0.035
66.9859 0.638
67.0162 0.894
67.0465 0.890
67.0767 0.574
67.1070 0.987
67.1373 0.463
67.1676 1.449
67.1978 1.342
67.2281 0.975
67.2584 1.910
67.2887 1.908
67.3190 2.947
67.3492 1.643
67.3795 2.267
67.4098 1.953
67.4401 1.899
67.4704 2.419
67.5006 3.825
67.5309 2.001
67.5612 3.407
67.5915 3.459
67.6218 4.814
67.6520 4.606
67.6823 6.065
67.7126 5.232
67.7429 6.327
67.7731 7.578
67.8034 7.215
67.8337 7.113
67.8640 6.073
67.8943 6.179
67.9245 7.223
67.9548 6.966
67.9851 5.979
68.0154 6.451
68.0457 5.516
68.0759 5.832
68.1062 4.273
68.1365 3.704
68.1668 4.594
68.1970 3.765
68.2273 3.509
68.2576 4.608
68.2879 3.363
68.3182 3.108
68.3484 2.696
68.3787 3.431
68.4090 1.979
68.4393 2.454
68.4696 1.002
68.4998 1.373
68.5301 1.432
68.5604 1.543
68.5907 1.758
68.6209 1.870
68.6512 2.919
68.6815 2.927
68.7118 2.831
68.7421 2.266
68.7723 1.702
68.8026 2.700
68.8329 3.126
68.8632 2.979
68.8935 2.832
68.9237 3.050
68.9540 3.164
68.9843 3.331
69.0146 2.612
69.0448 2.831
69.0751 2.060
69.1054 2.800
69.1357 2.811
69.1660 2.823
69.1962 2.470
69.2265 2.898
69.2568 1.660
69.2871 1.568
69.3174 1.164
69.3476 0.812
69.3779 1.763
69.4082 1.516
69.4385 0.435
69.4687 0.449
69.4990 1.609
69.5293 0.425
69.5596 0.231
69.5899 1.026
69.6201 0.312
69.6504 0.119
69.6807 0.655
69.7110 0.722
69.7413 0.061
69.7715 0.285
69.8018 -0.220
69.8321 0.265
69.8624 0.281
69.8926 -0.119
69.9229 0.211
69.9532 -0.397
69.9835 0.089
70.0138 -0.154
70.0440 0.437
70.0743 -0.170
70.1046 0.317
70.1349 -0.029
70.1652 0.094
70.1954 -0.044
70.2257 0.132
70.2560 0.151
70.2863 -0.506
70.3166 -0.182
70.3468 -0.013
70.3771 -0.261
70.4074 -0.040
70.4377 0.130
70.4679 0.456
70.4982 0.209
70.5285 -0.090
70.5588 0.289
70.5891 0.355
70.6193 -0.047
70.6496 -0.189
70.6799 0.087
70.7102 0.050
70.7405 0.273
70.7707 0.497
70.8010 0.253
70.8313 0.112
70.8616 0.493
70.8918 0.457
70.9221 0.526
70.9524 -0.082
70.9827 -0.273
71.0130 -0.020
71.0432 0.025
71.0735 -0.138
71.1038 0.376
71.1341 0.109
71.1644 0.259
71.1946 0.669
71.2249 0.143
71.2552 -0.280
71.2855 -0.234
71.3157 0.177
71.3460 0.328
71.3763 0.114
71.4066 0.161
71.4369 0.104
71.4671 -0.109
71.4974 0.303
71.5277 0.090
71.5580 -0.174
71.5883 -0.230
71.6185 -0.286
71.6488 -0.081
71.6791 0.229
71.7094 0.175
71.7396 -0.296
71.7699 0.327
71.8002 0.012
71.8305 0.271
71.8608 -0.355
71.8910 -0.252
71.9213 -0.045
71.9516 0.163
71.9819 -0.046
72.0122 0.110
72.0424 0.266
72.0727 0.370
72.1030 0.110
72.1333 -0.098
72.1635 0.111
72.1938 0.425
72.2241 0.426
72.2544 0.219
72.2847 0.221
72.3149 0.327
72.3452 0.850
72.3755 0.019
72.4058 0.386
72.4361 1.170
72.4663 1.017
72.4966 0.551
72.5269 0.763
72.5572 0.715
72.5874 0.406
72.6177 0.098
72.6480 1.196
72.6783 0.523
72.7086 0.476
72.7388 0.481
72.7691 -0.139
72.7994 0.335
72.8297 0.185
72.8600 0.295
72.8902 0.301
72.9205 -0.214
72.9508 0.262
72.9811 0.164
73.0113 0.275
73.0416 0.178
73.0719 -0.022
73.1022 0.089
73.1325 -0.372
73.1627 -0.103
73.1930 -0.200
73.2233 -0.191
73.2536 0.130
73.2839 0.138
73.3141 -0.061
73.3444 0.104
73.3747 0.322
73.4050 -0.033
73.4353 0.185
73.4655 0.195
73.4958 0.361
73.5261 0.163
73.5564 -0.347
73.5866 0.080
73.6169 0.404
73.6472 0.103
73.6775 -0.094
73.7078 -0.343
73.7380 0.083
73.7683 0.145
73.7986 0.207
73.8289 -0.200
73.8592 0.018
73.8894 0.289
73.9197 0.612
73.9500 -0.054
73.9803 0.426
74.0105 0.281
74.0408 0.032
74.0711 -0.321
74.1014 0.160
74.1317 -0.140
74.1619 0.237
74.1922 -0.167
74.2225 0.366
74.2528 0.483
74.2831 0.392
74.3133 0.458
74.3436 0.159
74.3739 0.850
74.4042 0.031
74.4344 -0.215
74.4647 -0.177
74.4950 -0.035
74.5253 0.315
74.5556 0.249
74.5858 0.496
74.6161 0.222
74.6464 -0.052
74.6767 0.144
74.7070 0.027
74.7372 0.066
74.7675 0.262
74.7978 -0.271
74.8281 0.447
74.8583 0.122
74.8886 -0.045
74.9189 0.100
74.9492 0.141
74.9795 -0.078
75.0097 0.224
75.0400 0.005
75.0703 0.047
75.1006 0.037
75.1309 0.079
75.1611 0.226
75.1914 0.113
75.2217 0.156
75.2520 0.459
75.2822 -0.278
75.3125 0.078
75.3428 -0.399
75.3731 0.791
75.4034 -0.102
75.4336 -0.370
75.4639 0.091
75.4942 0.188
75.5245 0.025
75.5548 -0.190
75.5850 0.220
75.6153 -0.151
75.6456 0.156
75.6759 -0.371
75.7061 -0.169
75.7364 -0.228
75.7667 0.391
75.7970 -0.032
75.8273 0.587
75.8575 -0.095
75.8878 0.160
75.9181 -0.835
75.9484 0.201
75.9787 -0.220
76.0089 -0.172
76.0392 0.188
76.0695 -0.077
76.0998 0.024
76.1301 -0.345
76.1603 0.121
76.1906 0.274
76.2209 0.010
76.2512 0.268
76.2814 -0.151
76.3117 -0.102
76.3420 0.625
76.3723 0.051
76.4026 0.205
76.4328 -0.109
76.4631 0.203
76.4934 0.045
76.5237 0.357
76.5540 0.513
76.5842 -0.009
76.6145 0.773
76.6448 0.721
76.6751 1.190
76.7053 0.617
76.7356 0.305
76.7659 0.775
76.7962 0.881
76.8265 -0.056
76.8567 0.363
76.8870 0.781
76.9173 0.471
76.9476 0.942
76.9779 1.205
77.0081 0.947
77.0384 -0.144
77.0687 1.318
77.0990 0.280
77.1292 0.127
77.1595 0.339
77.1898 0.760
77.2201 0.295
77.2504 0.404
77.2806 0.200
77.3109 0.674
77.3412 0.054
77.3715 0.060
77.4018 -0.091
77.4320 0.071
77.4623 -0.131
77.4926 0.344
77.5229 0.194
77.5531 0.357
77.5834 0.103
77.6137 -0.462
77.6440 0.222
77.6743 -0.187
77.7045 0.029
77.7348 -0.223
77.7651 -0.163
77.7954 0.210
77.8257 0.427
77.8559 -0.033
77.8862 -0.128
77.9165 -0.014
77.9468 -0.317
77.9770 -0.009
78.0073 0.090
78.0376 0.086
78.0679 0.394
78.0982 0.651
78.1284 -0.134
78.1587 0.071
78.1890 -0.037
78.2193 0.065
78.2496 -0.199
78.2798 -0.045
78.3101 -0.151
78.3404 0.523
78.3707 -0.156
78.4009 -0.366
78.4312 0.206
78.4615 0.153
78.4918 0.047
78.5221 0.151
78.5523 -0.423
78.5826 -0.059
78.6129 0.045
78.6432 -0.059
78.6735 -0.267
78.7037 0.098
78.7340 -0.526
78.7643 0.100
78.7946 -0.211
78.8248 0.207
78.8551 0.469
78.8854 0.054
78.9157 -0.152
78.9460 -0.306
78.9762 0.426
79.0065 0.012
79.0368 -0.142
79.0671 -0.086
79.0974 -0.291
79.1276 0.075
79.1579 0.076
79.1882 0.287
79.2185 -0.284
79.2488 -0.125
79.2790 -0.071
79.3093 -0.120
79.3396 -0.065
79.3699 -0.061
79.4001 -0.110
79.4304 0.102
79.4607 0.106
79.4910 0.058
79.5213 0.011
79.5515 -0.037
79.5818 -0.136
79.6121 0.181
79.6424 0.083
79.6727 -0.016
79.7029 0.250
79.7332 -0.004
79.7635 -0.207
79.7938 0.737
79.8240 -0.246
79.8543 0.126
79.8846 0.029
79.9149 0.088
79.9452 -0.113
79.9754 0.051
80.0057 -0.149
80.0360 -0.193
80.0663 0.336
80.0966 0.501
80.1268 -0.324
80.1571 -0.262
80.1874 0.302
80.2177 0.034
80.2479 -0.130
80.2782 -0.138
80.3085 0.115
80.3388 0.108
80.3691 0.361
80.3993 -0.114
80.4296 0.139
80.4599 0.081
80.4902 0.335
80.5205 -0.191
80.5507 0.063
80.5810 0.475
80.6113 0.313
80.6416 0.308
80.6718 0.199
80.7021 -0.170
80.7324 -0.122
80.7627 -0.074
80.7930 0.078
80.8232 0.491
80.8535 -0.085
80.8838 -0.089
80.9141 0.065
80.9444 0.270
80.9746 0.059
81.0049 0.213
81.0352 0.107
81.0655 0.313
81.0957 0.728
81.1260 0.206
81.1563 0.153
81.1866 0.568
81.2169 0.515
81.2471 0.827
81.2774 0.358
81.3077 0.410
81.3380 0.514
81.3683 0.254
81.3985 0.567
81.4288 -0.005
81.4591 0.465
81.4894 0.414
81.5196 0.728
81.5499 0.417
81.5802 0.002
81.6105 0.473
81.6408 0.423
81.6710 0.373
81.7013 0.220
81.7316 0.639
81.7619 0.382
81.7922 0.333
81.8224 0.337
81.8527 0.132
81.8830 -0.176
81.9133 0.037
81.9436 0.041
81.9738 -0.058
82.0041 0.415
82.0344 0.837
82.0647 -0.095
82.0949 -0.246
82.1252 0.019
82.1555 -0.080
82.1858 0.081
82.2161 0.138
82.2463 0.299
82.2766 0.045
82.3069 0.102
82.3372 0.265
82.3675 0.063
82.3977 -0.035
82.4280 -0.341
82.4583 0.019
82.4886 0.483
82.5188 -0.042
82.5491 0.111
82.5794 0.003
82.6097 0.312
82.6400 0.308
82.6702 -0.112
82.7005 0.250
82.7308 0.091
82.7611 -0.015
82.7914 0.087
82.8216 0.137
82.8519 0.135
82.8822 -0.179
82.9125 0.132
82.9427 0.339
82.9730 -0.234
83.0033 -0.027
83.0336 0.077
83.0639 0.285
83.0941 0.129
83.1244 -0.392
83.1547 0.025
83.1850 0.547
83.2153 0.079
83.2455 -0.180
83.2758 -0.075
83.3061 0.343
83.3364 -0.124
83.3666 0.764
83.3969 0.349
83.4272 0.091
83.4575 0.302
83.4878 0.097
83.5180 -0.057
83.5483 -0.001
83.5786 0.679
83.6089 0.267
83.6392 -0.042
83.6694 0.379
83.6997 0.123
83.7300 -0.393
83.7603 0.028
83.7905 0.137
83.8208 -0.014
83.8511 0.200
83.8814 0.206
83.9117 0.056
83.9419 0.218
83.9722 0.433
84.0025 -0.238
84.0328 -0.231
84.0631 -0.231
84.0933 0.180
84.1236 -0.242
84.1539 0.014
84.1842 -0.095
84.2144 -0.100
84.2447 0.625
84.2750 0.569
84.3053 0.096
84.3356 0.144
84.3658 0.089
84.3961 0.138
84.4264 0.239
84.4567 -0.129
84.4870 -0.027
84.5172 -0.290
84.5475 0.437
84.5778 -0.138
84.6081 0.069
84.6383 0.120
84.6686 0.118
84.6989 -0.039
84.7292 0.221
84.7595 0.116
84.7897 0.324
84.8200 0.115
84.8503 -0.301
84.8806 0.063
84.9109 0.116
84.9411 0.169
84.9714 -0.247
85.0017 0.067
85.0320 0.016
85.0623 0.122
85.0925 0.280
85.1228 -0.031
85.1531 -0.341
85.1834 0.025
85.2136 0.340
85.2439 -0.022
85.2742 0.241
85.3045 0.400
85.3348 0.299
85.3650 0.146
85.3953 -0.059
85.4256 0.101
85.4559 0.209
85.4862 0.473
85.5164 0.165
85.5467 0.117
85.5770 0.330
85.6073 0.231
85.6375 0.236
85.6678 0.294
85.6981 0.195
85.7284 0.670
85.7587 -0.001
85.7889 0.057
85.8192 0.533
85.8495 0.018
85.8798 -0.287
85.9101 -0.038
85.9403 0.108
85.9706 0.045
86.0009 0.347
86.0312 -0.080
86.0614 0.483
86.0917 0.056
86.1220 0.151
86.1523 0.089
86.1826 -0.128
86.2128 0.436
86.2431 0.010
86.2734 -0.415
86.3037 0.046
86.3340 0.142
86.3642 0.082
86.3945 -0.238
86.4248 0.119
86.4551 -0.044
86.4853 -0.520
86.5156 0.046
86.5459 -0.221
86.5762 0.033
86.6065 0.444
86.6367 0.230
86.6670 0.224
86.6973 0.323
86.7276 -0.464
86.7579 0.000
86.7881 -0.317
86.8184 -0.013
86.8487 -0.073
86.8790 0.023
86.9092 -0.037
86.9395 0.737
86.9698 -0.104
87.0001 0.306
87.0304 -0.326
87.0606 -0.229
87.0909 -0.235
87.1212 -0.137
87.1515 0.013
87.1818 -0.097
87.2120 0.001
87.2423 -0.369
87.2726 0.355
87.3029 0.142
87.3331 -0.019
87.3634 0.081
87.3937 -0.132
87.4240 -0.031
87.4543 0.225
87.4845 -0.351
87.5148 -0.042
87.5451 0.163
87.5754 -0.153
87.6057 0.261
87.6359 -0.054
87.6662 -0.160
87.6965 0.307
87.7268 -0.424
87.7571 0.043
87.7873 -0.011
87.8176 -0.168
87.8479 -0.273
87.8782 -0.070
87.9084 -0.439
87.9387 0.129
87.9690 -0.500
87.9993 0.172
88.0296 -0.300
88.0598 0.008
88.0901 0.213
88.1204 0.262
88.1507 0.155
88.1810 -0.056
88.2112 -0.059
88.2415 -0.270
88.2718 -0.064
88.3021 -0.066
88.3323 -0.015
88.3626 -0.486
88.3929 0.399
88.4232 -0.071
88.4535 0.344
88.4837 -0.073
88.5140 -0.230
88.5443 0.031
88.5746 -0.021
88.6049 0.031
88.6351 0.135
88.6654 -0.176
88.6957 -0.280
88.7260 0.079
88.7562 -0.032
88.7865 0.171
88.8168 0.321
88.8471 0.211
88.8774 0.102
88.9076 -0.216
88.9379 -0.064
88.9682 0.192
88.9985 0.291
89.0288 0.183
89.0590 0.856
89.0893 0.332
89.1196 0.849
89.1499 0.064
89.1801 0.999
89.2104 1.048
89.2407 0.420
89.2710 1.616
89.3013 0.311
89.3315 1.143
89.3618 1.349
89.3921 1.087
89.4224 0.774
89.4527 1.450
89.4829 0.980
89.5132 1.188
89.5435 1.031
89.5738 1.864
89.6040 0.718
89.6343 1.083
89.6646 2.073
89.6949 1.553
89.7252 1.085
89.7554 1.399
89.7857 1.400
89.8160 0.516
89.8463 0.830
89.8766 0.989
89.9068 1.147
89.9371 0.993
89.9674 0.840
89.9977 1.467
90.0279 0.481
90.0582 0.276
90.0885 0.436
90.1188 0.648
90.1491 -0.390
90.1793 0.083
90.2096 0.296
90.2399 0.040
90.2702 0.253
90.3005 0.258
90.3307 0.003
90.3610 0.321
90.3913 0.223
90.4216 -0.709
90.4518 0.183
90.4821 -0.280
90.5124 -0.280
90.5427 -0.179
90.5730 0.235
90.6032 -0.236
90.6335 0.230
90.6638 -0.345
90.6941 0.434
90.7244 -0.245
90.7546 0.691
90.7849 -0.144
90.8152 -0.561
90.8455 0.271
90.8758 0.218
90.9060 -0.199
90.9363 0.217
90.9666 -0.147
90.9969 0.166
91.0271 0.010
91.0574 -0.719
91.0877 0.063
91.1180 -0.040
91.1483 -0.247
91.1785 -0.245
91.2088 0.173
91.2391 0.227
91.2694 -0.187
91.2997 0.179
91.3299 0.026
91.3602 0.341
91.3905 -0.385
91.4208 -0.017
91.4510 0.247
91.4813 -0.218
91.5116 -0.006
91.5419 0.154
91.5722 0.107
91.6024 0.059
91.6327 -0.196
91.6630 -0.035
91.6933 -0.186
91.7236 -0.024
91.7538 -0.227
91.7841 -0.273
91.8144 -0.169
91.8447 -0.430
91.8749 0.195
91.9052 -0.221
91.9355 0.039
91.9658 0.353
91.9961 0.354
92.0263 -0.166
92.0566 -0.061
92.0869 -0.372
92.1172 0.042
92.1475 0.195
92.1777 0.296
92.2080 0.137
92.2383 0.811
92.2686 0.080
92.2988 -0.026
92.3291 0.128
92.3594 0.439
92.3897 0.229
92.4200 0.280
92.4502 0.591
92.4805 0.018
92.5108 -0.139
92.5411 0.485
92.5714 0.329
92.6016 0.954
92.6319 0.277
92.6622 0.434
92.6925 0.331
92.7227 0.071
92.7530 0.125
92.7833 0.595
92.8136 0.076
92.8439 0.807
92.8741 0.236
92.9044 0.863
92.9347 0.136
92.9650 0.243
92.9953 0.350
93.0255 -0.063
93.0558 0.357
93.0861 0.152
93.1164 0.000
93.1466 0.316
93.1769 0.321
93.2072 0.273
93.2375 0.174
93.2678 -0.030
93.2980 -0.025
93.3283 0.397
93.3586 -0.014
93.3889 0.409
93.4192 0.415
93.4494 0.109
93.4797 0.376
93.5100 0.278
93.5403 0.337
93.5706 0.553
93.6008 -0.325
93.6311 -0.266
93.6614 0.295
93.6917 0.440
93.7219 -0.144
93.7522 0.418
93.7825 -0.062
93.8128 0.136
93.8431 -0.030
93.8733 -0.353
93.9036 0.210
93.9339 0.356
93.9642 -0.278
93.9945 0.338
94.0247 -0.192
94.0550 -0.149
94.0853 -0.105
94.1156 -0.270
94.1458 0.295
94.1761 0.130
94.2064 0.071
94.2367 0.063
94.2670 0.264
94.2972 0.205
94.3275 -0.010
94.3578 0.400
94.3881 -0.075
94.4184 0.075
94.4486 -0.139
94.4789 0.219
94.5092 -0.151
94.5395 0.521
94.5697 0.672
94.6000 0.511
94.6303 0.663
94.6606 0.502
94.6909 0.290
94.7211 0.338
94.7514 0.074
94.7817 0.695
94.8120 0.640
94.8423 0.741
94.8725 0.998
94.9028 0.423
94.9331 0.681
94.9634 1.356
94.9936 0.625
95.0239 0.987
95.0542 0.986
95.0845 0.828
95.1148 1.348
95.1450 1.607
95.1753 1.086
95.2056 1.450
95.2359 0.825
95.2662 0.356
95.2964 1.502
95.3267 1.086
95.3570 0.930
95.3873 1.140
95.4175 1.453
95.4478 1.142
95.4781 0.935
95.5084 1.041
95.5387 1.304
95.5689 0.785
95.5992 1.308
95.6295 0.425
95.6598 1.314
95.6901 0.692
95.7203 0.174
95.7506 0.438
95.7809 0.182
95.8112 0.290
95.8414 0.606
95.8717 0.246
95.9020 0.407
95.9323 0.516
95.9626 -0.052
95.9928 0.266
96.0231 0.219
96.0534 -0.244
96.0837 0.127
96.1140 0.498
96.1442 -0.173
96.1745 0.042
96.2048 -0.003
96.2351 0.316
96.2653 0.480
96.2956 0.331
96.3259 -0.130
96.3562 0.034
96.3865 0.511
96.4167 -0.262
96.4470 0.007
96.4773 -0.401
96.5076 0.181
96.5379 0.139
96.5681 0.356
96.5984 -0.363
96.6287 0.376
96.6590 0.074
96.6893 0.032
96.7195 0.303
96.7498 0.158
96.7801 0.012
96.8104 -0.029
96.8406 -0.017
96.8709 -0.266
96.9012 -0.003
96.9315 -0.366
96.9618 0.053
96.9920 0.264
97.0223 -0.097
97.0526 -0.251
97.0829 0.117
97.1132 -0.400
97.1434 0.072
97.1737 0.024
97.2040 -0.128
97.2343 0.450
97.2645 -0.015
97.2948 0.095
97.3251 -0.265
97.3554 -0.116
97.3857 0.502
97.4159 -0.026
97.4462 -0.240
97.4765 -0.247
97.5068 0.580
97.5371 0.523
97.5673 0.361
97.5976 0.095
97.6279 0.037
97.6582 -0.124
97.6884 0.236
97.7187 0.388
97.7490 0.175
97.7793 0.379
97.8096 0.115
97.8398 0.320
97.8701 0.681
97.9004 0.105
97.9307 1.039
97.9610 0.463
97.9912 0.461
98.0215 0.146
98.0518 0.821
98.0821 0.975
98.1123 -0.016
98.1426 -0.070
98.1729 0.971
98.2032 0.397
98.2335 0.188
98.2637 0.291
98.2940 0.343
98.3243 1.072
98.3546 1.228
98.3849 0.447
98.4151 0.448
98.4454 0.396
98.4757 0.814
98.5060 0.971
98.5362 0.608
98.5665 1.027
98.5968 1.393
98.6271 0.822
98.6574 0.668
98.6876 0.775
98.7179 0.465
98.7482 0.624
98.7785 0.575
98.8088 0.683
98.8390 0.218
98.8693 1.003
98.8996 0.173
98.9299 0.542
98.9601 0.234
98.9904 0.135
99.0207 0.765
99.0510 0.301
99.0813 0.463
99.1115 1.041
99.1418 0.578
99.1721 0.063
99.2024 0.434
99.2327 0.076
99.2629 0.291
99.2932 0.558
99.3235 0.253
99.3538 0.260
99.3841 0.164
99.4143 0.120
99.4446 0.596
99.4749 0.084
99.5052 0.300
99.5354 0.361
99.5657 -0.151
99.5960 -0.246
99.6263 0.061
99.6566 -0.049
99.6868 0.310
99.7171 0.045
99.7474 -0.117
99.7777 -0.121
99.8080 0.082
99.8382 0.651
99.8685 0.074
99.8988 0.070
99.9291 0.379
99.9593 -0.302
99.9896 0.112
100.0199 0.265
100.0502 0.054
100.0805 0.156
100.1107 0.466
100.1410 -0.109
100.1713 0.045
100.2016 0.408
100.2319 0.042
100.2621 0.145
100.2924 0.092
100.3227 0.091
100.3530 -0.482
100.3832 -0.066
100.4135 0.038
100.4438 -0.118
100.4741 -0.170
100.5044 0.560
100.5346 0.248
100.5649 0.249
100.5952 0.094
100.6255 0.200
100.6558 -0.215
100.6860 0.828
100.7163 0.049
100.7466 0.208
100.7769 0.366
100.8071 -0.204
100.8374 -0.253
100.8677 -0.057
100.8980 -0.173
100.9283 0.231
100.9585 0.063
100.9888 -0.209
101.0191 0.353
101.0494 0.029
101.0797 -0.034
101.1099 0.633
101.1402 -0.471
101.1705 0.508
101.2008 -0.023
101.2310 -0.345
101.2613 0.008
101.2916 -0.264
101.3219 -0.067
101.3522 0.235
101.3824 -0.244
101.4127 -0.099
101.4430 -0.057
101.4733 -0.067
101.5036 0.184
101.5338 0.018
101.5641 -0.096
101.5944 -0.261
101.6247 -0.114
101.6549 -0.018
101.6852 -0.183
101.7155 -0.295
101.7458 0.166
101.7761 0.627
101.8063 0.203
101.8366 0.144
101.8669 0.085
101.8972 -0.025
101.9275 -0.240
101.9577 -0.142
101.9880 0.061
102.0183 -0.205
102.0486 0.154
102.0788 -0.320
102.1091 0.040
102.1394 -0.121
102.1697 -0.282
102.2000 0.599
102.2302 0.543
102.2605 -0.138
102.2908 -0.298
102.3211 -0.460
102.3514 0.315
102.3816 -0.368
102.4119 -0.269
102.4422 -0.118
102.4725 0.137
102.5028 0.080
102.5330 -0.081
102.5633 0.280
102.5936 -0.350
102.6239 -0.304
102.6541 0.210
102.6844 0.517
102.7147 0.198
102.7450 0.140
102.7753 0.291
102.8055 -0.079
102.8358 0.177
102.8661 0.172
102.8964 0.532
102.9267 -0.098
102.9569 0.106
102.9872 -0.002
103.0175 0.203
103.0478 0.147
103.0780 -0.377
103.1083 -0.120
103.1386 0.190
103.1689 0.187
103.1992 0.133
103.2294 0.287
103.2597 0.493
103.2900 -0.081
103.3203 0.230
103.3506 -0.345
103.3808 0.435
103.4111 0.278
103.4414 -0.295
103.4717 -0.087
103.5019 0.537
103.5322 0.121
103.5625 0.173
103.5928 0.382
103.6231 0.278
103.6533 0.279
103.6836 0.384
103.7139 0.542
103.7442 0.023
103.7745 0.285
103.8047 0.599
103.8350 0.237
103.8653 0.500
103.8956 0.659
103.9258 0.661
103.9561 0.352
103.9864 1.293
104.0167 1.140
104.0470 0.519
104.0772 0.523
104.1075 0.944
104.1378 0.584
104.1681 0.640
104.1984 0.541
104.2286 0.494
104.2589 0.760
104.2892 0.765
104.3195 0.510
104.3497 0.256
104.3800 0.262
104.4103 0.321
104.4406 0.379
104.4709 1.480
104.5011 0.289
104.5314 0.296
104.5617 0.512
104.5920 0.624
104.6223 -0.149
104.6525 0.223
104.6828 -0.081
104.7131 -0.020
104.7434 0.249
104.7736 -0.159
104.8039 0.007
104.8342 -0.452
104.8645 -0.027
104.8948 0.035
104.9250 0.409
104.9553 0.263
104.9856 -0.248
105.0159 0.179
105.0462 -0.228
105.0764 -0.165
105.1067 -0.102
105.1370 -0.195
105.1673 -0.184
105.1975 0.401
105.2278 0.048
105.2581 -0.096
105.2884 0.020
105.3187 0.033
105.3489 -0.059
105.3792 -0.254
105.4095 0.071
105.4398 -0.228
105.4701 -0.267
105.5003 -0.004
105.5306 0.207
105.5609 0.157
105.5912 -0.517
105.6215 -0.150
105.6517 0.114
105.6820 0.586
105.7123 0.434
105.7426 -0.031
105.7728 0.285
105.8031 -0.283
105.8334 0.502
105.8637 -0.066
105.8940 0.148
105.9242 0.205
105.9545 -0.050
105.9848 0.216
106.0151 0.014
106.0454 0.020
106.0756 0.130
106.1059 0.345
106.1362 0.248
106.1665 0.671
106.1967 0.418
106.2270 0.425
106.2573 -0.296
106.2876 0.024
106.3179 0.188
106.3481 0.249
106.3784 0.309
106.4087 -0.099
106.4390 -0.246
106.4693 0.060
106.4995 0.106
106.5298 0.100
106.5601 0.146
106.5904 0.140
106.6206 0.343
106.6509 -0.027
106.6812 0.176
106.7115 0.276
106.7418 0.792
106.7720 -0.306
106.8023 0.367
106.8326 0.259
106.8629 -0.266
106.8932 -0.009
106.9234 0.352
106.9537 -0.224
106.9840 0.763
107.0143 -0.177
107.0445 0.185
107.0748 0.079
107.1051 0.389
107.1354 0.179
107.1657 0.178
107.1959 0.072
107.2262 0.384
107.2565 0.175
107.2868 0.122
107.3171 -0.035
107.3473 0.590
107.3776 0.225
107.4079 0.642
107.4382 0.018
107.4684 0.123
107.4987 -0.033
107.5290 -0.032
107.5593 0.230
107.5896 0.284
107.6198 0.286
107.6501 -0.077
107.6804 -0.127
107.7107 0.292
107.7410 -0.070
107.7712 0.246
107.8015 0.093
107.8318 0.148
107.8621 -0.317
107.8923 -0.159
107.9226 -0.208
107.9529 -0.154
107.9832 0.266
108.0135 0.321
108.0437 0.220
108.0740 -0.349
108.1043 0.175
108.1346 -0.237
108.1649 0.183
108.1951 -0.125
108.2254 0.088
108.2557 0.197
108.2860 0.202
108.3163 0.364
108.3465 0.161
108.3768 -0.146
108.4071 -0.140
108.4374 0.231
108.4676 0.758
108.4979 0.348
108.5282 0.094
108.5585 -0.315
108.5888 -0.114
108.6190 0.087
108.6493 -0.076
108.6796 0.178
108.7099 -0.401
108.7402 0.427
108.7704 -0.100
108.8007 0.259
108.8310 -0.215
108.8613 0.197
108.8915 -0.277
108.9218 0.291
108.9521 0.026
108.9824 0.647
109.0127 0.226
109.0429 0.223
109.0732 -0.093
109.1035 -0.253
109.1338 0.051
109.1641 -0.114
109.1943 0.190
109.2246 0.651
109.2549 0.071
109.2852 0.271
109.3154 -0.101
109.3457 0.309
109.3760 -0.115
109.4063 0.295
109.4366 0.289
109.4668 0.022
109.4971 -0.036
109.5274 0.531
109.5577 0.005
109.5880 -0.313
109.6182 0.307
109.6485 -0.115
109.6788 0.089
109.7091 -0.176
109.7393 0.132
109.7696 -0.028
109.7999 0.020
109.8302 0.277
109.8605 0.117
109.8907 0.062
109.9210 -0.045
109.9513 0.525
109.9816 0.366
110.0119 0.208
110.0421 0.206
110.0724 0.360
110.1027 0.098
110.1330 0.722
110.1632 0.877
110.1935 0.147
110.2238 0.198
110.2541 0.823
110.2844 0.354
110.3146 0.458
110.3449 0.302
110.3752 0.354
110.4055 0.876
110.4358 0.512
110.4660 0.357
110.4963 0.410
110.5266 -0.422
110.5569 0.465
110.5871 1.040
110.6174 0.365
110.6477 0.524
110.6780 0.422
110.7083 0.373
110.7385 0.428
110.7688 0.900
110.7991 0.018
110.8294 0.282
110.8597 0.286
110.8899 0.290
110.9202 -0.070
110.9505 -0.326
110.9808 0.512
111.0110 0.100
111.0413 0.366
111.0716 -0.306
111.1019 0.794
111.1322 -0.190
111.1624 0.493
111.1927 0.031
111.2230 0.298
111.2533 0.200
111.2836 0.155
111.3138 0.371
111.3441 0.274
111.3744 0.125
111.4047 -0.023
111.4350 -0.015
111.4652 -0.163
111.4955 0.262
111.5258 0.219
111.5561 0.072
111.5863 -0.075
111.6166 0.351
111.6469 0.308
111.6772 0.162
111.7075 -0.140
111.7377 0.495
111.7680 0.349
111.7983 0.464
111.8286 0.058
111.8589 0.226
111.8891 0.133
111.9194 0.145
111.9497 0.104
111.9800 0.064
112.0102 -0.236
112.0405 -0.090
112.0708 0.368
112.1011 0.149
112.1314 0.191
112.1616 0.077
112.1919 -0.089
112.2222 -0.150
112.2525 -0.159
112.2828 0.196
112.3130 0.031
112.3433 -0.237
112.3736 0.536
112.4039 -0.098
112.4341 -0.105
112.4644 -0.009
112.4947 0.244
112.5250 -0.023
112.5553 -0.135
112.5855 -0.037
112.6158 0.008
112.6461 -0.154
112.6764 -0.160
112.7067 0.407
112.7369 -0.068
112.7672 0.031
112.7975 0.130
112.8278 -0.448
112.8580 -0.141
112.8883 0.166
112.9186 0.108
112.9489 -0.053
112.9792 -0.058
113.0094 0.041
113.0397 -0.224
113.0700 -0.072
113.1003 -0.076
113.1306 -0.028
113.1608 -0.136
113.1911 -0.244
113.2214 -0.091
113.2517 0.218
113.2819 0.111
113.3122 -0.256
113.3425 0.263
113.3728 0.052
113.4031 -0.366
113.4333 0.205
113.4636 0.203
113.4939 -0.111
113.5242 -0.424
113.5545 0.252
113.5847 -0.374
113.6150 0.303
113.6453 -0.478
113.6756 0.199
113.7058 0.459
113.7361 0.095
113.7664 0.252
113.7967 -0.007
113.8270 -0.267
113.8572 -0.109
113.8875 -0.108
113.9178 0.206
113.9481 0.207
113.9784 -0.103
114.0086 0.003
114.0389 0.214
114.0692 0.164
114.0995 0.531
114.1298 -0.143
114.1600 -0.035
114.1903 -0.344
114.2206 0.017
114.2509 0.482
114.2811 0.114
114.3114 0.007
114.3417 -0.048
114.3720 -0.102
114.4023 0.312
114.4325 0.258
114.4628 -0.109
114.4931 -0.267
114.5234 -0.329
114.5537 0.442
114.5839 0.068
114.6142 0.162
114.6445 0.257
114.6748 0.456
114.7050 0.447
114.7353 0.646
114.7656 -0.143
114.7959 0.369
114.8262 0.778
114.8564 -0.324
114.8867 -0.280
114.9170 -0.237
114.9473 0.119
114.9776 0.423
115.0078 0.466
115.0381 0.041
115.0684 -0.123
115.0987 0.286
115.1289 -0.190
115.1592 0.323
115.1895 -0.101
115.2198 -0.108
115.2501 0.511
115.2803 0.140
115.3106 -0.075
115.3409 0.127
115.3712 -0.139
115.4015 0.324
115.4317 0.371
115.4620 0.574
115.4923 0.309
115.5226 0.148
115.5528 0.299
115.5831 0.087
115.6134 0.447
115.6437 0.808
115.6740 0.544
115.7042 0.489
115.7345 0.433
115.7648 0.847
115.7951 0.688
115.8254 -0.044
115.8556 0.475
115.8859 0.577
115.9162 0.419
115.9465 0.469
115.9767 0.312
116.0070 0.831
116.0373 1.039
116.0676 1.090
116.0979 0.360
116.1281 1.297
116.1584 0.516
116.1887 1.089
116.2190 1.506
116.2493 1.090
116.2795 1.143
116.3098 1.092
116.3401 0.572
116.3704 1.407
116.4006 1.461
116.4309 0.942
116.4612 0.736
116.4915 0.634
116.5218 0.897
116.5520 1.160
116.5823 0.434
116.6126 0.645
116.6429 1.169
116.6732 0.652
116.7034 0.500
116.7337 0.712
116.7640 0.613
116.7943 0.044
116.8245 0.674
116.8548 0.314
116.8851 0.528
116.9154 0.429
116.9457 -0.034
116.9759 0.232
117.0062 0.342
117.0365 0.349
117.0668 0.459
117.0971 0.518
117.1273 0.056
117.1576 0.376
117.1879 -0.241
117.2182 -0.286
117.2485 0.130
117.2787 0.494
117.3090 -0.288
117.3393 -0.132
117.3696 -0.028
117.3998 0.389
117.4301 -0.131
117.4604 -0.235
117.4907 0.131
117.5210 0.236
117.5512 -0.023
117.5815 -0.022
117.6118 -0.124
117.6421 0.190
117.6724 0.141
117.7026 0.143
117.7329 -0.219
117.7632 0.044
117.7935 0.099
117.8237 0.207
117.8540 0.002
117.8843 0.266
117.9146 0.062
117.9449 0.014
117.9751 -0.190
118.0054 0.231
118.0357 -0.181
118.0660 -0.280
118.0963 -0.121
118.1265 -0.171
118.1568 -0.011
118.1871 0.148
118.2174 -0.578
118.2476 0.415
118.2779 0.002
118.3082 -0.098
118.3385 0.583
118.3688 0.066
118.3990 0.175
118.4293 0.232
118.4596 0.393
118.4899 -0.122
118.5202 -0.273
118.5504 -0.061
118.5807 0.255
118.6110 0.363
118.6413 -0.257
118.6715 0.164
118.7018 -0.352
118.7321 0.226
118.7624 0.335
118.7927 0.028
118.8229 -0.175
118.8532 -0.221
118.8835 0.410
118.9138 -0.052
118.9441 -0.306
118.9743 0.065
119.0046 -0.292
119.0349 -0.085
119.0652 -0.035
119.0954 0.173
119.1257 0.068
119.1560 0.223
119.1863 -0.090
119.2166 0.014
119.2468 0.796
119.2771 -0.506
119.3074 0.536
119.3377 -0.140
119.3680 0.017
119.3982 -0.451
119.4285 0.123
119.4588 0.073
119.4891 -0.238
119.5193 -0.236
119.5496 0.079
119.5799 -0.387
119.6102 0.084
119.6405 0.295
119.6707 -0.066
119.7010 0.354
119.7313 0.097
119.7616 -0.212
119.7919 -0.260
119.8221 0.119
119.8524 0.498
119.8827 0.356
119.9130 0.163
119.9433 0.073
119.9735 0.193
120.0038 0.000
