'Id: "" Comment: "" Operator: "Lab Manager" Anode: "Cu" Scantype: "Locked Coupled" TimePerStep: "19.2" X: "9999" Y: "9999" Z: "9999" 
10.0015 0.000
10.0318 -2.590
10.0620 -2.493
10.0923 -1.750
10.1226 -1.215
10.1529 -2.243
10.1832 -2.168
10.2134 -1.045
10.2437 -2.578
10.2740 -1.030
10.3043 -0.472
10.3346 -1.266
10.3648 1.168
10.3951 -1.761
10.4254 -3.932
10.4557 1.224
10.4859 -2.109
10.5162 -1.515
10.5465 1.996
10.5768 -1.471
10.6071 -1.553
10.6373 -0.465
10.6676 -1.511
10.6979 -1.102
10.7282 -0.483
10.7585 0.084
10.7887 -3.307
10.8190 -0.666
10.8493 -2.764
10.8796 1.962
10.9098 -0.604
10.9401 1.831
10.9704 3.173
11.0007 3.526
11.0310 6.171
11.0612 8.869
11.0915 5.577
11.1218 8.693
11.1521 2.225
11.1824 5.029
11.2126 4.709
11.2429 6.785
11.2732 3.549
11.3035 4.741
11.3337 4.996
11.3640 7.282
11.3943 11.444
11.4246 11.961
11.4549 18.416
11.4851 23.257
11.5154 24.765
11.5457 37.628
11.5760 42.835
11.6063 56.376
11.6365 75.022
11.6668 97.001
11.6971 124.607
11.7274 149.556
11.7577 151.121
11.7879 126.071
11.8182 87.481
11.8485 49.412
11.8788 25.302
11.9090 16.973
11.9393 8.697
11.9696 7.974
11.9999 5.273
12.0302 3.874
12.0604 4.558
12.0907 5.504
12.1210 6.971
12.1513 5.731
12.1816 4.178
12.2118 0.230
12.2421 -0.071
12.2724 1.243
12.3027 -1.141
12.3329 -0.920
12.3632 -0.227
12.3935 -0.835
12.4238 0.016
12.4541 0.607
12.4843 -1.145
12.5146 -0.686
12.5449 -0.851
12.5752 -0.031
12.6055 -1.137
12.6357 0.935
12.6660 0.611
12.6963 0.340
12.7266 -0.087
12.7568 -0.774
12.7871 -0.783
12.8174 -0.219
12.8477 -0.695
12.8780 -0.807
12.9082 0.703
12.9385 0.078
12.9688 -1.067
12.9991 -0.120
13.0294 1.036
13.0596 0.473
13.0899 0.484
13.1202 1.955
13.1505 -0.689
13.1807 -1.197
13.2110 0.662
13.2413 0.438
13.2716 0.371
13.3019 0.044
13.3321 3.155
13.3624 0.746
13.3927 0.889
13.4230 4.992
13.4533 2.793
13.4835 2.782
13.5138 2.928
13.5441 4.897
13.5744 2.596
13.6046 2.327
13.6349 2.422
13.6652 1.946
13.6955 1.366
13.7258 2.714
13.7560 3.645
13.7863 1.660
13.8166 2.958
13.8469 3.005
13.8772 2.429
13.9074 3.571
13.9377 4.350
13.9680 4.296
13.9983 5.232
14.0285 3.876
14.0588 5.178
14.0891 5.022
14.1194 7.210
14.1497 7.993
14.1799 8.046
14.2102 7.580
14.2405 9.927
14.2708 8.680
14.3011 9.309
14.3313 11.657
14.3616 11.715
14.3919 13.179
14.4222 14.175
14.4524 14.702
14.4827 14.814
14.5130 17.322
14.5433 21.236
14.5736 20.985
14.6038 25.213
14.6341 24.911
14.6644 30.495
14.6947 29.464
14.7250 30.309
14.7552 30.426
14.7855 31.168
14.8158 30.244
14.8461 29.425
14.8764 27.825
14.9066 28.100
14.9369 21.970
14.9672 20.476
14.9975 17.941
15.0277 16.500
15.0580 13.393
15.0883 13.776
15.1186 9.784
15.1489 8.189
15.1791 7.376
15.2094 6.512
15.2397 6.116
15.2700 6.190
15.3003 7.046
15.3305 5.923
15.3608 3.238
15.3911 3.367
15.4214 2.714
15.4516 2.270
15.4819 1.827
15.5122 2.270
15.5425 1.829
15.5728 2.637
15.6030 0.790
15.6333 2.225
15.6636 0.483
15.6939 1.711
15.7242 2.731
15.7544 0.730
15.7847 1.751
15.8150 -0.300
15.8453 1.086
15.8755 1.223
15.9058 0.476
15.9361 0.874
15.9664 1.117
15.9967 0.580
16.0269 -0.218
16.0572 -0.702
16.0875 0.229
16.1178 -0.089
16.1481 0.531
16.1783 0.318
16.2086 -0.259
16.2389 -0.054
16.2692 -0.109
16.2994 -0.372
16.3297 0.147
16.3600 -0.062
16.3903 0.145
16.4206 0.614
16.4508 -0.427
16.4811 0.251
16.5114 -0.268
16.5417 -0.318
16.5720 -0.420
16.6022 -0.288
16.6325 -0.416
16.6628 0.447
16.6931 -0.357
16.7233 0.402
16.7536 -0.036
16.7839 0.256
16.8142 0.808
16.8445 -0.201
16.8747 1.446
16.9050 0.074
16.9353 0.524
16.9656 0.819
16.9959 0.125
17.0261 0.109
17.0564 0.457
17.0867 0.286
17.1170 0.167
17.1472 0.049
17.1775 -0.330
17.2078 0.751
17.2381 -0.459
17.2684 0.727
17.2986 -0.118
17.3289 -0.181
17.3592 0.017
17.3895 -0.201
17.4198 0.050
17.4500 0.354
17.4803 0.554
17.5106 -0.078
17.5409 -0.345
17.5712 -0.441
17.6014 0.557
17.6317 0.254
17.6620 0.525
17.6923 0.171
17.7225 0.494
17.7528 -0.483
17.7831 -0.263
17.8134 -0.042
17.8437 -0.028
17.8739 -0.275
17.9042 0.157
17.9345 -0.037
17.9648 -0.333
17.9951 -0.328
18.0253 -0.217
18.0556 -0.210
18.0859 0.162
18.1162 0.171
18.1464 -0.237
18.1767 0.449
18.2070 0.355
18.2373 0.886
18.2676 -0.040
18.2978 0.231
18.3281 0.244
18.3584 0.100
18.3887 0.426
18.4190 -0.029
18.4492 1.131
18.4795 0.312
18.5098 0.536
18.5401 -0.073
18.5703 0.308
18.6006 0.377
18.6309 -0.699
18.6612 0.257
18.6915 0.745
18.7217 0.191
18.7520 0.784
18.7823 0.804
18.8126 0.877
18.8429 0.951
18.8731 -0.277
18.9034 1.100
18.9337 -0.179
18.9640 -0.311
18.9942 0.178
19.0245 1.033
19.0548 -0.195
19.0851 0.244
19.1154 0.632
19.1456 1.124
19.1759 0.055
19.2062 1.278
19.2365 0.470
19.2668 1.225
19.2970 0.730
19.3273 1.643
19.3576 1.462
19.3879 1.230
19.4181 1.102
19.4484 1.548
19.4787 1.057
19.5090 2.389
19.5393 1.379
19.5695 2.712
19.5998 2.953
19.6301 2.204
19.6604 3.800
19.6907 3.729
19.7209 3.242
19.7512 4.579
19.7815 4.354
19.8118 3.244
19.8420 3.437
19.8723 3.578
19.9026 4.449
19.9329 3.394
19.9632 4.057
19.9934 3.420
20.0237 3.459
20.0540 2.250
20.0843 3.593
20.1146 1.759
20.1448 1.958
20.1751 2.782
20.2054 1.471
20.2357 0.993
20.2659 0.934
20.2962 1.395
20.3265 0.868
20.3568 1.070
20.3871 1.533
20.4173 0.070
20.4476 0.430
20.4779 1.311
20.5082 -0.150
20.5385 0.316
20.5687 0.938
20.5990 -0.261
20.6293 0.206
20.6596 -0.002
20.6899 0.362
20.7201 -0.419
20.7504 -0.053
20.7807 -0.364
20.8110 0.107
20.8412 0.057
20.8715 -0.200
20.9018 -0.196
20.9321 -0.244
20.9624 -0.239
20.9926 0.026
21.0229 -0.280
21.0532 0.091
21.0835 0.410
21.1138 0.261
21.1440 0.946
21.1743 2.934
21.2046 4.402
21.2349 5.661
21.2651 3.693
21.2954 2.662
21.3257 1.267
21.3560 0.133
21.3863 0.354
21.4165 0.471
21.4468 0.745
21.4771 0.916
21.5074 0.462
21.5377 0.165
21.5679 0.233
21.5982 0.041
21.6285 0.370
21.6588 -0.342
21.6890 -0.326
21.7193 0.003
21.7496 0.020
21.7799 0.350
21.8102 0.369
21.8404 0.491
21.8707 -0.166
21.9010 -0.095
21.9313 0.395
21.9616 0.207
21.9918 -0.032
22.0221 1.448
22.0524 0.273
22.0827 -0.277
22.1129 0.164
22.1432 0.188
22.1735 0.682
22.2038 0.811
22.2341 0.004
22.2643 0.655
22.2946 0.318
22.3249 0.137
22.3552 -0.304
22.3855 -0.194
22.4157 0.542
22.4460 -0.076
22.4763 0.191
22.5066 0.616
22.5368 0.312
22.5671 0.477
22.5974 0.175
22.6277 -0.128
22.6580 0.248
22.6882 0.155
22.7185 0.010
22.7488 -0.238
22.7791 -0.068
22.8094 0.101
22.8396 0.324
22.8699 0.703
22.9002 -0.323
22.9305 -0.151
22.9607 0.021
22.9910 -0.274
23.0213 0.160
23.0516 0.751
23.0819 -0.533
23.1121 -0.149
23.1424 0.391
23.1727 0.516
23.2030 0.693
23.2333 1.391
23.2635 2.038
23.2938 0.967
23.3241 0.886
23.3544 2.003
23.3846 1.142
23.4149 2.052
23.4452 2.702
23.4755 2.103
23.5058 2.807
23.5360 2.625
23.5663 3.330
23.5966 2.420
23.6269 3.959
23.6572 2.947
23.6874 4.695
23.7177 7.069
23.7480 5.538
23.7783 8.173
23.8086 8.309
23.8388 7.300
23.8691 6.916
23.8994 5.388
23.9297 4.484
23.9599 3.321
23.9902 1.377
24.0205 2.142
24.0508 1.241
24.0811 1.278
24.1113 1.055
24.1416 1.145
24.1719 1.028
24.2022 1.484
24.2325 1.002
24.2627 1.199
24.2930 2.959
24.3233 3.573
24.3536 3.615
24.3838 4.387
24.4141 4.065
24.4444 3.119
24.4747 3.268
24.5050 4.198
24.5352 4.243
24.5655 5.903
24.5958 4.908
24.6261 6.257
24.6564 5.732
24.6866 5.936
24.7169 6.818
24.7472 9.524
24.7775 9.053
24.8077 10.770
24.8380 10.664
24.8683 13.528
24.8986 15.976
24.9289 14.414
24.9591 14.415
24.9894 12.750
25.0197 13.325
25.0500 10.255
25.0803 10.310
25.1105 7.137
25.1408 5.683
25.1711 5.323
25.2014 4.860
25.2316 5.127
25.2619 3.467
25.2922 2.015
25.3225 2.648
25.3528 1.458
25.3830 1.207
25.4133 2.206
25.4436 0.705
25.4739 0.299
25.5042 0.414
25.5344 0.582
25.5647 0.334
25.5950 0.711
25.6253 1.298
25.6555 0.114
25.6858 0.128
25.7161 -0.274
25.7464 0.054
25.7767 0.018
25.8069 -0.173
25.8372 -0.417
25.8675 -0.320
25.8978 -0.588
25.9281 0.708
25.9583 0.233
25.9886 -0.033
26.0189 0.848
26.0492 0.114
26.0794 0.058
26.1097 0.732
26.1400 -0.417
26.1703 0.415
26.2006 -0.056
26.2308 -0.213
26.2611 0.359
26.2914 -0.005
26.3217 0.204
26.3520 -0.420
26.3822 -0.378
26.4125 0.238
26.4428 0.750
26.4731 1.419
26.5034 0.369
26.5336 0.831
26.5639 1.605
26.5942 1.964
26.6245 1.281
26.6547 1.693
26.6850 1.532
26.7153 3.456
26.7456 3.192
26.7759 3.710
26.8061 4.750
26.8364 5.529
26.8667 3.966
26.8970 4.903
26.9273 2.819
26.9575 2.247
26.9878 1.988
27.0181 0.948
27.0484 2.252
27.0786 2.047
27.1089 1.165
27.1392 0.856
27.1695 0.965
27.1998 0.970
27.2300 1.028
27.2603 -0.424
27.2906 1.926
27.3209 1.048
27.3512 1.004
27.3814 1.221
27.4117 0.761
27.4420 0.562
27.4723 2.395
27.5025 1.468
27.5328 3.094
27.5631 1.595
27.5934 2.910
27.6237 3.496
27.6539 3.717
27.6842 3.992
27.7145 5.986
27.7448 5.428
27.7751 7.162
27.8053 7.126
27.8356 7.091
27.8659 7.838
27.8962 9.210
27.9264 8.082
27.9567 7.580
27.9870 8.173
28.0173 8.454
28.0476 8.318
28.0778 6.777
28.1081 6.278
28.1384 4.790
28.1687 4.396
28.1990 4.992
28.2292 2.881
28.2595 3.374
28.2898 1.785
28.3201 1.758
28.3503 1.941
28.3806 0.926
28.4109 2.151
28.4412 1.033
28.4715 1.687
28.5017 0.362
28.5320 -0.025
28.5623 0.213
28.5926 0.556
28.6229 -0.037
28.6531 0.203
28.6834 -0.494
28.7137 -0.148
28.7440 0.771
28.7742 0.233
28.8045 0.112
28.8348 -0.009
28.8651 -0.598
28.8954 0.051
28.9256 0.596
28.9559 0.672
28.9862 -0.292
29.0165 -0.005
29.0468 0.177
29.0770 -0.213
29.1073 0.336
29.1376 0.624
29.1679 0.236
29.1981 1.203
29.2284 0.191
29.2587 -0.247
29.2890 0.044
29.3193 0.961
29.3495 0.160
29.3798 0.140
29.4101 -0.035
29.4404 -0.002
29.4707 0.137
29.5009 0.797
29.5312 0.051
29.5615 0.347
29.5918 0.175
29.6221 0.368
29.6523 0.146
29.6826 -0.389
29.7129 0.170
29.7432 -0.363
29.7734 -0.161
29.8037 -0.063
29.8340 0.401
29.8643 -0.073
29.8946 -0.285
29.9248 -0.135
29.9551 0.797
29.9854 0.376
30.0157 -0.357
30.0460 -0.152
30.0762 0.209
30.1065 0.155
30.1368 -0.108
30.1671 -0.109
30.1973 -0.110
30.2276 0.046
30.2579 0.046
30.2882 -0.109
30.3185 0.153
30.3487 -0.001
30.3790 -0.363
30.4093 0.025
30.4396 0.205
30.4699 -0.083
30.5001 -0.318
30.5304 0.176
30.5607 0.880
30.5910 0.490
30.6212 0.309
30.6515 -0.548
30.6818 0.053
30.7121 -0.334
30.7424 0.112
30.7726 -0.535
30.8029 0.277
30.8332 -0.317
30.8635 -0.128
30.8938 0.164
30.9240 0.197
30.9543 0.387
30.9846 -0.777
31.0149 -0.325
31.0451 -0.295
31.0754 0.049
31.1057 -0.076
31.1360 -0.357
31.1663 0.770
31.1965 0.282
31.2268 -0.153
31.2571 0.507
31.2874 0.698
31.3177 0.941
31.3479 2.071
31.3782 1.535
31.4085 1.832
31.4388 2.182
31.4690 4.304
31.4993 6.166
31.5296 5.840
31.5599 5.672
31.5902 6.285
31.6204 8.097
31.6507 6.368
31.6810 6.566
31.7113 6.453
31.7416 4.152
31.7718 3.831
31.8021 2.313
31.8324 2.879
31.8627 1.310
31.8929 1.668
31.9232 2.079
31.9535 2.022
31.9838 0.247
32.0141 1.129
32.0443 1.177
32.0746 0.289
32.1049 1.693
32.1352 0.754
32.1655 1.014
32.1957 0.544
32.2260 0.544
32.2563 1.847
32.2866 0.130
32.3169 -0.077
32.3471 0.342
32.3774 0.345
32.4077 -0.016
32.4380 0.196
32.4682 0.409
32.4985 1.039
32.5288 0.888
32.5591 0.634
32.5894 1.109
32.6196 1.481
32.6499 2.375
32.6802 3.737
32.7105 6.819
32.7408 13.079
32.7710 17.932
32.8013 13.516
32.8316 10.611
32.8619 7.966
32.8921 3.343
32.9224 1.950
32.9527 0.661
32.9830 0.727
33.0133 0.533
33.0435 1.017
33.0738 0.981
33.1041 1.674
33.1344 0.076
33.1647 1.448
33.1949 0.268
33.2252 0.599
33.2555 0.722
33.2858 0.012
33.3160 0.709
33.3463 0.209
33.3766 0.647
33.4069 0.877
33.4372 0.379
33.4674 0.141
33.4977 0.373
33.5280 0.866
33.5583 0.161
33.5886 -0.387
33.6188 0.212
33.6491 -0.178
33.6794 -0.047
33.7097 0.292
33.7399 0.164
33.7702 -0.224
33.8005 -0.299
33.8308 -0.272
33.8611 0.225
33.8913 -0.007
33.9216 0.126
33.9519 -0.782
33.9822 0.030
34.0125 -0.096
34.0427 0.248
34.0730 0.124
34.1033 0.833
34.1336 1.022
34.1638 1.316
34.1941 1.038
34.2244 1.801
34.2547 1.732
34.2850 1.560
34.3152 1.388
34.3455 1.633
34.3758 1.202
34.4061 0.250
34.4364 0.393
34.4666 0.848
34.4969 0.680
34.5272 0.824
34.5575 0.865
34.5877 0.750
34.6180 1.000
34.6483 0.730
34.6786 0.565
34.7089 1.598
34.7391 1.694
34.7694 1.530
34.7997 1.003
34.8300 1.986
34.8603 2.293
34.8905 3.433
34.9208 4.262
34.9511 4.518
34.9814 5.713
35.0116 4.303
35.0419 4.301
35.0722 3.258
35.1025 3.204
35.1328 1.068
35.1630 1.901
35.1933 1.016
35.2236 1.329
35.2539 0.966
35.2842 1.125
35.3144 0.606
35.3447 0.037
35.3750 0.613
35.4053 -0.007
35.4356 0.310
35.4658 0.211
35.4961 0.321
35.5264 0.588
35.5567 1.168
35.5869 -0.074
35.6172 1.132
35.6475 0.516
35.6778 0.108
35.7081 0.795
35.7383 1.378
35.7686 0.087
35.7989 0.515
35.8292 1.413
35.8595 1.738
35.8897 2.272
35.9200 2.859
35.9503 3.967
35.9806 4.398
36.0108 6.028
36.0411 5.524
36.0714 5.280
36.1017 6.182
36.1320 5.991
36.1622 5.020
36.1925 2.955
36.2228 3.079
36.2531 3.151
36.2834 3.380
36.3136 2.463
36.3439 1.183
36.3742 1.361
36.4045 0.394
36.4347 0.782
36.4650 -0.080
36.4953 -0.003
36.5256 -0.239
36.5559 -0.370
36.5861 0.438
36.6164 -0.369
36.6467 -0.290
36.6770 0.143
36.7073 -0.310
36.7375 0.072
36.7678 -0.067
36.7981 -0.153
36.8284 -0.238
36.8586 -0.115
36.8889 0.478
36.9192 0.290
36.9495 -0.314
36.9798 -0.032
37.0100 -0.271
37.0403 0.032
37.0706 0.230
37.1009 0.326
37.1312 -0.048
37.1614 0.570
37.1917 0.718
37.2220 0.087
37.2523 0.914
37.2825 0.543
37.3128 1.736
37.3431 2.304
37.3734 1.259
37.4037 2.141
37.4339 2.086
37.4642 0.781
37.4945 1.300
37.5248 1.820
37.5551 0.465
37.5853 1.090
37.6156 1.663
37.6459 0.675
37.6762 1.145
37.7064 0.470
37.7367 0.785
37.7670 0.788
37.7973 0.115
37.8276 0.640
37.8578 0.905
37.8881 0.234
37.9184 0.135
37.9487 0.038
37.9790 -0.111
38.0092 0.105
38.0395 0.113
38.0698 0.174
38.1001 0.183
38.1304 0.818
38.1606 -0.161
38.1909 0.631
38.2212 0.018
38.2515 0.342
38.2817 0.459
38.3120 0.524
38.3423 0.122
38.3726 -0.072
38.4029 0.307
38.4331 0.114
38.4634 0.078
38.4937 -0.218
38.5240 0.268
38.5543 0.078
38.5845 -0.321
38.6148 0.219
38.6451 0.655
38.6754 0.779
38.7056 0.695
38.7359 -0.273
38.7662 0.217
38.7965 -0.021
38.8268 -0.311
38.8570 0.050
38.8873 -0.162
38.9176 -0.009
38.9479 0.249
38.9782 0.039
39.0084 -0.274
39.0387 0.246
39.0690 -0.535
39.0993 0.142
39.1295 0.039
39.1598 0.041
39.1901 0.199
39.2204 0.046
39.2507 0.205
39.2809 0.261
39.3112 -0.308
39.3415 -0.094
39.3718 -0.141
39.4021 0.386
39.4323 0.028
39.4626 0.192
39.4929 0.147
39.5232 0.364
39.5534 0.477
39.5837 -0.191
39.6140 -0.285
39.6443 0.241
39.6746 0.454
39.7048 0.356
39.7351 -0.315
39.7654 0.056
39.7957 -0.040
39.8260 0.280
39.8562 0.341
39.8865 0.194
39.9168 -0.213
39.9471 0.266
39.9773 -0.192
40.0076 -0.285
40.0379 0.229
40.0682 0.013
40.0985 0.059
40.1287 -0.051
40.1590 -0.056
40.1893 -0.216
40.2196 0.040
40.2499 0.141
40.2801 -0.227
40.3104 0.031
40.3407 0.029
40.3710 0.028
40.4012 -0.233
40.4315 0.007
40.4618 -0.170
40.4921 0.487
40.5224 0.155
40.5526 0.241
40.5829 0.535
40.6132 -0.108
40.6435 0.605
40.6738 0.484
40.7040 1.041
40.7343 0.713
40.7646 0.073
40.7949 0.528
40.8251 1.035
40.8554 1.021
40.8857 0.592
40.9160 0.945
40.9463 1.350
40.9765 1.026
41.0068 0.651
41.0371 0.902
41.0674 0.945
41.0977 0.207
41.1279 0.928
41.1582 0.400
41.1885 0.288
41.2188 0.334
41.2491 0.380
41.2793 0.791
41.3096 0.005
41.3399 0.157
41.3702 -0.107
41.4004 0.880
41.4307 0.252
41.4610 0.354
41.4913 0.665
41.5216 0.352
41.5518 0.820
41.5821 0.352
41.6124 0.665
41.6427 0.458
41.6730 0.981
41.7032 0.879
41.7335 0.674
41.7638 0.260
41.7941 -0.152
41.8243 0.373
41.8546 0.899
41.8849 0.593
41.9152 -0.130
41.9455 0.033
41.9757 -0.116
42.0060 0.049
42.0363 -0.151
42.0666 0.066
42.0969 0.024
42.1271 -0.695
42.1574 0.409
42.1877 -0.048
42.2180 -0.036
42.2482 0.289
42.2785 -0.063
42.3088 0.107
42.3391 -0.139
42.3694 0.344
42.3996 -0.265
42.4299 0.271
42.4602 -0.390
42.4905 -0.112
42.5208 -0.199
42.5510 -0.233
42.5813 -0.114
42.6116 -0.202
42.6419 -0.082
42.6721 0.038
42.7024 0.056
42.7327 0.438
42.7630 -0.065
42.7933 0.110
42.8235 -0.131
42.8538 -0.215
42.8841 -0.215
42.9144 0.143
42.9447 -0.124
42.9749 0.444
43.0052 0.387
43.0355 -0.035
43.0658 0.482
43.0960 -0.094
43.1263 0.007
43.1566 -0.360
43.1869 0.472
43.2172 -0.050
43.2474 -0.259
43.2777 0.101
43.3080 -0.112
43.3383 0.613
43.3686 0.402
43.3988 0.451
43.4291 0.241
43.4594 -0.230
43.4897 0.238
43.5199 0.498
43.5502 0.185
43.5805 -0.022
43.6108 0.760
43.6411 -0.072
43.6713 0.191
43.7016 -0.014
43.7319 0.041
43.7622 0.201
43.7925 0.518
43.8227 -0.362
43.8530 -0.148
43.8833 0.014
43.9136 -0.031
43.9439 -0.076
43.9741 0.140
44.0044 -0.007
44.0347 -0.311
44.0650 0.049
44.0952 0.565
44.1255 -0.168
44.1558 0.141
44.1861 -0.331
44.2164 0.396
44.2466 0.186
44.2769 0.288
44.3072 0.079
44.3375 -0.025
44.3678 -0.389
44.3980 0.070
44.4283 -0.147
44.4586 0.574
44.4889 -0.215
44.5191 -0.170
44.5494 -0.072
44.5797 0.235
44.6100 -0.135
44.6403 0.277
44.6705 0.168
44.7008 0.321
44.7311 0.213
44.7614 0.106
44.7917 0.209
44.8219 -0.053
44.8522 0.467
44.8825 0.154
44.9128 0.310
44.9430 0.467
44.9733 -0.313
45.0036 -0.311
45.0339 0.365
45.0642 0.416
45.0944 0.259
45.1247 0.363
45.1550 0.208
45.1853 0.417
45.2156 0.107
45.2458 0.005
45.2761 0.008
45.3064 0.064
45.3367 0.380
45.3669 0.541
45.3972 0.702
45.4275 -0.021
45.4578 0.246
45.4881 0.305
45.5183 0.052
45.5486 0.268
45.5789 -0.088
45.6092 0.077
45.6395 0.347
45.6697 0.670
45.7000 -0.205
45.7303 0.171
45.7606 0.287
45.7908 0.300
45.8211 -0.208
45.8514 -0.259
45.8817 0.247
45.9120 0.389
45.9422 -0.042
45.9725 0.049
46.0028 0.453
46.0331 0.337
46.0634 0.481
46.0936 -0.259
46.1239 0.147
46.1542 -0.123
46.1845 0.284
46.2147 0.328
46.2450 0.371
46.2753 0.364
46.3056 -0.164
46.3359 0.402
46.3661 0.083
46.3964 0.026
46.4267 0.073
46.4570 0.173
46.4873 -0.404
46.5175 0.114
46.5478 0.059
46.5781 0.161
46.6084 0.263
46.6386 0.054
46.6689 -0.415
46.6992 -0.020
46.7295 -0.040
46.7598 -0.164
46.7900 -0.027
46.8203 -0.307
46.8506 0.248
46.8809 -0.134
46.9112 0.109
46.9414 -0.064
46.9717 -0.184
47.0020 -0.148
47.0323 0.410
47.0626 -0.125
47.0928 0.018
47.1231 0.369
47.1534 0.408
47.1837 -0.177
47.2139 0.437
47.2442 -0.043
47.2745 -0.054
47.3048 0.249
47.3351 -0.125
47.3653 -0.082
47.3956 0.795
47.4259 -0.358
47.4562 0.312
47.4865 0.253
47.5167 -0.170
47.5470 -0.175
47.5773 0.497
47.6076 -0.237
47.6378 0.228
47.6681 -0.244
47.6984 0.118
47.7287 0.272
47.7590 -0.198
47.7892 0.218
47.8195 0.113
47.8498 0.113
47.8801 -0.199
47.9104 0.271
47.9406 -0.196
47.9709 -0.037
48.0012 -0.190
48.0315 0.021
48.0617 -0.027
48.0920 0.030
48.1223 -0.434
48.1526 0.145
48.1829 -0.266
48.2131 -0.229
48.2434 -0.140
48.2737 -0.311
48.3040 0.192
48.3343 0.122
48.3645 -0.468
48.3948 -0.073
48.4251 0.531
48.4554 0.353
48.4856 -0.292
48.5159 0.626
48.5462 -0.279
48.5765 0.275
48.6068 -0.524
48.6370 0.344
48.6673 -0.090
48.6976 -0.054
48.7279 0.190
48.7582 0.279
48.7884 0.993
48.8187 0.719
48.8490 0.705
48.8793 1.109
48.9095 0.679
48.9398 0.511
48.9701 0.812
49.0004 0.749
49.0307 1.364
49.0609 0.781
49.0912 0.459
49.1215 0.607
49.1518 0.859
49.1821 0.122
49.2123 0.636
49.2426 0.109
49.2729 0.520
49.3032 0.567
49.3334 0.666
49.3637 0.453
49.3940 0.502
49.4243 1.020
49.4546 0.132
49.4848 0.286
49.5151 0.337
49.5454 1.221
49.5757 0.856
49.6060 0.127
49.6362 0.284
49.6665 0.286
49.6968 0.131
49.7271 0.134
49.7574 -0.124
49.7876 0.036
49.8179 0.040
49.8482 0.254
49.8785 0.467
49.9087 0.265
49.9390 -0.510
49.9693 -0.139
49.9996 -0.288
50.0299 0.137
50.0601 -0.063
50.0904 0.363
50.1207 -0.148
50.1510 -0.138
50.1813 -0.231
50.2115 0.562
50.2418 -0.208
50.2721 -0.299
50.3024 0.069
50.3326 -0.238
50.3629 0.027
50.3932 -0.228
50.4235 -0.169
50.4538 -0.162
50.4840 0.522
50.5143 -0.095
50.5446 -0.295
50.5749 0.110
50.6052 -0.630
50.6354 0.348
50.6657 -0.339
50.6960 0.276
50.7263 -0.202
50.7565 -0.106
50.7868 -0.062
50.8171 0.243
50.8474 -0.025
50.8777 0.073
50.9079 0.432
50.9382 -0.094
50.9685 -0.047
50.9988 0.157
51.0291 0.258
51.0593 -0.526
51.0896 0.565
51.1199 -0.218
51.1502 0.510
51.1804 0.977
51.2107 0.456
51.2410 0.405
51.2713 0.718
51.3016 0.355
51.3318 0.565
51.3621 1.505
51.3924 -0.106
51.4227 0.314
51.4530 0.943
51.4832 0.635
51.5135 0.484
51.5438 0.959
51.5741 0.549
51.6043 0.816
51.6346 0.720
51.6649 -0.054
51.6952 0.684
51.7255 -0.036
51.7557 0.443
51.7860 0.245
51.8163 0.256
51.8466 0.996
51.8769 0.227
51.9071 -0.229
51.9374 0.305
51.9677 0.006
51.9980 -0.188
52.0282 0.295
52.0585 0.623
52.0888 0.795
52.1191 0.135
52.1494 0.412
52.1796 -0.716
52.2099 0.344
52.2402 -0.367
52.2705 -0.035
52.3008 0.193
52.3310 0.318
52.3613 0.287
52.3916 -0.213
52.4219 0.174
52.4521 0.509
52.4824 0.011
52.5127 -0.121
52.5430 0.059
52.5733 -0.228
52.6035 -0.255
52.6338 0.109
52.6641 0.265
52.6944 0.421
52.7247 0.474
52.7549 0.371
52.7852 0.373
52.8155 0.428
52.8458 0.587
52.8761 0.122
52.9063 -0.290
52.9366 0.756
52.9669 0.501
52.9972 0.194
53.0274 0.045
53.0577 0.624
53.0880 1.049
53.1183 1.109
53.1486 0.388
53.1788 0.554
53.2091 -0.218
53.2394 0.574
53.2697 0.220
53.3000 0.596
53.3302 -0.017
53.3605 0.360
53.3908 0.634
53.4211 0.491
53.4513 0.297
53.4816 0.573
53.5119 0.327
53.5422 0.343
53.5725 1.037
53.6027 0.741
53.6330 0.030
53.6633 0.569
53.6936 0.379
53.7239 0.190
53.7541 -0.259
53.7844 -0.164
53.8147 0.452
53.8450 0.339
53.8752 0.488
53.9055 0.324
53.9358 0.214
53.9661 -0.001
53.9964 0.254
54.0266 -0.116
54.0569 0.609
54.0872 -0.020
54.1175 -0.075
54.1478 -0.130
54.1780 -0.028
54.2083 0.283
54.2386 -0.343
54.2689 0.437
54.2991 0.177
54.3294 0.073
54.3597 0.127
54.3900 -0.184
54.4203 -0.338
54.4505 0.342
54.4808 -0.176
54.5111 0.141
54.5414 -0.219
54.5717 0.046
54.6019 -0.105
54.6322 0.318
54.6625 0.325
54.6928 0.072
54.7230 -0.337
54.7533 -0.016
54.7836 0.201
54.8139 0.106
54.8442 0.064
54.8744 0.283
54.9047 -0.226
54.9350 -0.215
54.9653 -0.053
54.9956 -0.203
55.0258 0.064
55.0561 0.072
55.0864 -0.389
55.1167 -0.037
55.1469 -0.050
55.1772 -0.322
55.2075 0.448
55.2378 0.072
55.2681 0.062
55.2983 -0.104
55.3286 -0.217
55.3589 0.191
55.3892 -0.025
55.4195 0.384
55.4497 0.377
55.4800 -0.098
55.5103 0.730
55.5406 0.516
55.5709 0.564
55.6011 -0.117
55.6314 0.087
55.6617 0.293
55.6920 0.134
55.7222 0.497
55.7525 -0.129
55.7828 -0.130
55.8131 0.182
55.8434 0.495
55.8736 0.183
55.9039 0.081
55.9342 0.083
55.9645 -0.227
55.9948 -0.136
56.0250 0.008
56.0553 0.725
56.0856 0.505
56.1159 0.807
56.1461 0.901
56.1764 0.474
56.2067 0.934
56.2370 1.238
56.2673 1.334
56.2975 1.847
56.3278 2.205
56.3581 1.938
56.3884 2.297
56.4187 2.239
56.4489 2.755
56.4792 1.814
56.5095 0.873
56.5398 1.494
56.5700 1.284
56.6003 1.230
56.6306 1.228
56.6609 0.707
56.6912 0.862
56.7214 0.029
56.7517 0.343
56.7820 0.709
56.8123 0.242
56.8426 0.713
56.8728 0.248
56.9031 -0.113
56.9334 0.047
56.9637 0.416
56.9939 0.265
57.0242 0.323
57.0545 0.278
57.0848 0.128
57.1151 0.136
57.1453 0.248
57.1756 -0.056
57.2059 -0.047
57.2362 0.067
57.2665 0.130
57.2967 -0.068
57.3270 0.152
57.3573 0.112
57.3876 0.020
57.4178 -0.227
57.4481 -0.030
57.4784 0.169
57.5087 0.263
57.5390 0.514
57.5692 0.349
57.5995 0.029
57.6298 0.282
57.6601 0.223
57.6904 0.112
57.7206 0.315
57.7509 0.310
57.7812 -0.007
57.8115 0.301
57.8417 0.349
57.8720 -0.018
57.9023 -0.021
57.9326 -0.023
57.9629 -0.128
57.9931 -0.389
58.0234 0.182
58.0537 0.389
58.0840 0.076
58.1143 0.337
58.1445 0.077
58.1748 -0.130
58.2051 -0.389
58.2354 0.178
58.2656 -0.243
58.2959 -0.039
58.3262 0.166
58.3565 0.006
58.3868 0.525
58.4170 0.575
58.4473 0.209
58.4776 0.625
58.5079 -0.105
58.5382 1.093
58.5684 2.084
58.5987 3.856
58.6290 5.316
58.6593 2.662
58.6896 1.832
58.7198 1.315
58.7501 2.256
58.7804 2.470
58.8107 2.423
58.8409 0.866
58.8712 0.716
58.9015 0.098
58.9318 -0.363
58.9621 -0.060
58.9923 0.243
59.0226 0.026
59.0529 0.383
59.0832 0.010
59.1135 0.108
59.1437 0.101
59.1740 -0.061
59.2043 0.455
59.2346 0.242
59.2648 0.186
59.2951 0.182
59.3254 0.075
59.3557 -0.240
59.3860 -0.190
59.4162 -0.035
59.4465 -0.244
59.4768 0.008
59.5071 0.001
59.5374 0.463
59.5676 -0.637
59.5979 -0.018
59.6282 0.081
59.6585 0.285
59.6887 0.437
59.7190 0.121
59.7493 0.014
59.7796 0.480
59.8099 0.843
59.8401 0.633
59.8704 0.008
59.9007 0.268
59.9310 0.685
59.9613 0.894
59.9915 0.375
60.0218 0.637
60.0521 0.692
60.0824 0.799
60.1126 -0.030
60.1429 0.703
60.1732 0.812
60.2035 0.922
60.2338 1.084
60.2640 1.039
60.2943 1.046
60.3246 0.324
60.3549 0.853
60.3852 -0.023
60.4154 0.142
60.4457 0.256
60.4760 -0.150
60.5063 0.069
60.5365 0.445
60.5668 0.249
60.5971 0.262
60.6274 -0.037
60.6577 -0.388
60.6879 0.251
60.7182 0.006
60.7485 0.177
60.7788 0.297
60.8091 -0.259
60.8393 -0.259
60.8696 0.311
60.8999 0.256
60.9302 -0.163
60.9604 0.148
60.9907 0.043
61.0210 0.146
61.0513 -0.166
61.0816 -0.582
61.1118 0.669
61.1421 0.306
61.1724 0.361
61.2027 -0.053
61.2330 0.315
61.2632 0.162
61.2935 -0.146
61.3238 0.276
61.3541 0.126
61.3844 -0.285
61.4146 -0.084
61.4449 -0.247
61.4752 0.216
61.5055 -0.571
61.5357 -0.003
61.5660 0.201
61.5963 0.146
61.6266 -0.118
61.6569 -0.017
61.6871 -0.227
61.7174 0.031
61.7477 -0.179
61.7780 -0.233
61.8083 0.224
61.8385 -0.152
61.8688 -0.111
61.8991 0.243
61.9294 0.703
61.9596 0.485
61.9899 0.320
62.0202 0.104
62.0505 0.669
62.0808 0.402
62.1110 -0.073
62.1413 0.494
62.1716 0.176
62.2019 0.328
62.2322 0.636
62.2624 0.111
62.2927 1.306
62.3230 0.054
62.3533 0.885
62.3835 0.832
62.4138 0.206
62.4441 0.570
62.4744 0.102
62.5047 0.467
62.5349 0.417
62.5652 0.627
62.5955 0.890
62.6258 0.893
62.6561 0.636
62.6863 0.380
62.7166 0.802
62.7469 1.119
62.7772 -0.021
62.8074 0.507
62.8377 0.462
62.8680 0.209
62.8983 0.373
62.9286 0.173
62.9588 0.131
62.9891 0.505
63.0194 0.255
63.0497 0.474
63.0800 -0.139
63.1102 0.133
63.1405 -0.115
63.1708 0.159
63.2011 0.329
63.2313 0.187
63.2616 0.566
63.2919 0.269
63.3222 0.285
63.3525 -0.220
63.3827 0.266
63.4130 -0.081
63.4433 0.302
63.4736 0.112
63.5039 0.288
63.5341 0.203
63.5644 0.120
63.5947 0.453
63.6250 -0.046
63.6552 -0.233
63.6855 0.072
63.7158 0.170
63.7461 0.267
63.7764 0.470
63.8066 -0.004
63.8369 0.356
63.8672 0.143
63.8975 -0.121
63.9278 0.032
63.9580 -0.126
63.9883 0.184
64.0186 -0.130
64.0489 -0.235
64.0791 0.286
64.1094 0.286
64.1397 0.287
64.1700 0.132
64.2003 -0.126
64.2305 0.397
64.2608 -0.121
64.2911 0.247
64.3214 0.147
64.3517 -0.108
64.3819 0.105
64.4122 -0.097
64.4425 -0.195
64.4728 0.064
64.5031 0.011
64.5333 -0.042
64.5636 0.166
64.5939 -0.093
64.6242 -0.040
64.6544 -0.091
64.6847 -0.088
64.7150 0.383
64.7453 -0.447
64.7756 -0.182
64.8058 0.030
64.8361 0.140
64.8664 0.041
64.8967 -0.057
64.9270 -0.259
64.9572 0.105
64.9875 -0.052
65.0178 0.574
65.0481 -0.051
65.0783 0.211
65.1086 0.317
65.1389 -0.201
65.1692 0.062
65.1995 0.222
65.2297 0.278
65.2600 -0.134
65.2903 0.288
65.3206 0.450
65.3509 -0.012
65.3811 -0.005
65.4114 0.158
65.4417 0.062
65.4720 -0.085
65.5022 -0.180
65.5325 -0.028
65.5628 0.177
65.5931 0.278
65.6234 0.016
65.6536 0.066
65.6839 -0.091
65.7142 0.481
65.7445 0.012
65.7748 0.013
65.8050 0.379
65.8353 0.224
65.8656 0.382
65.8959 0.333
65.9261 -0.080
65.9564 -0.180
65.9867 -0.029
66.0170 0.018
66.0473 0.640
66.0775 0.376
66.1078 0.321
66.1381 0.475
66.1684 0.421
66.1987 0.316
66.2289 0.263
66.2592 0.211
66.2895 0.524
66.3198 0.577
66.3500 -0.098
66.3803 0.269
66.4106 0.324
66.4409 0.223
66.4712 0.071
66.5014 -0.029
66.5317 -0.180
66.5620 0.026
66.5923 0.390
66.6226 -0.028
66.6528 0.285
66.6831 -0.027
66.7134 0.026
66.7437 -0.025
66.7739 0.186
66.8042 -0.228
66.8345 0.244
66.8648 0.508
66.8951 -0.217
66.9253 -0.004
66.9556 -0.259
66.9859 0.049
67.0162 0.253
67.0465 0.301
67.0767 -0.015
67.1070 0.034
67.1373 0.031
67.1676 -0.022
67.1978 -0.024
67.2281 0.340
67.2584 -0.285
67.2887 -0.180
67.3190 0.065
67.3492 -0.365
67.3795 0.090
67.4098 -0.235
67.4401 0.325
67.4704 0.261
67.5006 0.459
67.5309 -0.177
67.5612 0.282
67.5915 0.012
67.6218 0.576
67.6520 0.463
67.6823 0.299
67.7126 0.604
67.7429 0.545
67.7731 0.591
67.8034 0.013
67.8337 0.841
67.8640 0.628
67.8943 0.103
67.9245 0.048
67.9548 0.357
67.9851 0.147
68.0154 0.301
68.0457 0.456
68.0759 0.352
68.1062 -0.065
68.1365 -0.012
68.1668 0.405
68.1970 0.303
68.2273 -0.164
68.2576 0.047
68.2879 0.467
68.3182 -0.102
68.3484 -0.202
68.3787 0.108
68.4090 -0.206
68.4393 0.001
68.4696 -0.157
68.4998 0.051
68.5301 0.000
68.5604 -0.156
68.5907 -0.207
68.6209 0.205
68.6512 0.096
68.6815 0.300
68.7118 0.297
68.7421 0.294
68.7723 0.291
68.8026 0.185
68.8329 0.965
68.8632 0.808
68.8935 1.485
68.9237 0.652
68.9540 0.445
68.9843 0.238
69.0146 0.605
69.0448 0.347
69.0751 0.454
69.1054 0.458
69.1357 0.410
69.1660 -0.002
69.1962 0.473
69.2265 0.166
69.2568 0.120
69.2871 0.284
69.3174 0.396
69.3476 0.039
69.3779 0.048
69.4082 -0.047
69.4385 0.171
69.4687 -0.027
69.4990 0.401
69.5293 0.152
69.5596 0.060
69.5899 -0.188
69.6201 -0.043
69.6504 0.051
69.6807 0.093
69.7110 0.291
69.7413 0.022
69.7715 0.326
69.8018 -0.307
69.8321 -0.106
69.8624 0.304
69.8926 -0.171
69.9229 0.084
69.9532 -0.182
69.9835 0.335
70.0138 -0.138
70.0440 -0.194
70.0743 0.064
70.1046 0.270
70.1349 -0.044
70.1652 -0.202
70.1954 -0.097
70.2257 0.112
70.2560 0.114
70.2863 -0.145
70.3166 -0.038
70.3468 -0.034
70.3771 0.490
70.4074 -0.078
70.4377 0.083
70.4679 0.088
70.4982 -0.114
70.5285 0.153
70.5588 -0.361
70.5891 0.272
70.6193 -0.032
70.6496 -0.128
70.6799 -0.066
70.7102 0.100
70.7405 -0.098
70.7707 -0.087
70.8010 -0.075
70.8313 -0.011
70.8616 -0.050
70.8918 0.171
70.9221 0.445
70.9524 0.251
70.9827 0.110
71.0130 0.334
71.0432 0.090
71.0735 -0.206
71.1038 -0.058
71.1341 -0.169
71.1644 -0.019
71.1946 0.027
71.2249 0.230
71.2552 0.070
71.2855 0.065
71.3157 -0.147
71.3460 0.007
71.3763 -0.048
71.4066 -0.050
71.4369 0.470
71.4671 0.208
71.4974 0.104
71.5277 0.417
71.5580 -0.103
71.5883 0.419
71.6185 -0.100
71.6488 0.111
71.6791 -0.302
71.7094 0.014
71.7396 0.070
71.7699 -0.082
71.8002 -0.285
71.8305 0.127
71.8608 0.175
71.8910 -0.038
71.9213 0.219
71.9516 -0.044
71.9819 0.006
72.0122 -0.048
72.0424 -0.050
72.0727 -0.363
72.1030 0.100
72.1333 0.094
72.1635 0.037
72.1938 -0.124
72.2241 0.185
72.2544 0.442
72.2847 0.074
72.3149 0.072
72.3452 0.070
72.3755 0.694
72.4058 -0.192
72.4361 -0.088
72.4663 0.277
72.4966 0.226
72.5269 0.020
72.5572 0.022
72.5874 -0.080
72.6177 -0.180
72.6480 0.026
72.6783 0.026
72.7086 -0.027
72.7388 0.338
72.7691 0.443
72.7994 -0.077
72.8297 0.290
72.8600 0.188
72.8902 0.400
72.9205 0.039
72.9508 0.251
72.9811 0.464
73.0113 0.313
73.0416 0.267
73.0719 0.013
73.1022 0.384
73.1325 -0.129
73.1627 0.452
73.1930 0.200
73.2233 0.365
73.2536 0.531
73.2839 0.437
73.3141 0.552
73.3444 0.147
73.3747 0.471
73.4050 0.067
73.4353 -0.180
73.4655 -0.033
73.4958 0.062
73.5261 0.054
73.5564 0.099
73.5866 0.300
73.6169 0.242
73.6472 0.132
73.6775 0.126
73.7078 0.122
73.7380 0.065
73.7683 -0.042
73.7986 0.059
73.8289 0.004
73.8592 0.315
73.8894 -0.051
73.9197 0.000
73.9500 0.156
73.9803 0.052
74.0105 0.001
74.0408 -0.258
74.0711 0.051
74.1014 0.205
74.1317 -0.005
74.1619 -0.006
74.1922 0.098
74.2225 0.202
74.2528 -0.110
74.2831 -0.005
74.3133 0.257
74.3436 0.051
74.3739 0.002
74.4042 -0.151
74.4344 -0.043
74.4647 0.013
74.4950 0.279
74.5253 -0.080
74.5556 0.186
74.5858 0.036
74.6161 -0.165
74.6464 -0.278
74.6767 0.338
74.7070 0.121
74.7372 0.165
74.7675 0.158
74.7978 0.204
74.8281 -0.167
74.8583 -0.173
74.8886 -0.129
74.9189 -0.084
74.9492 0.273
74.9795 -0.150
75.0097 -0.052
75.0400 0.099
75.0703 -0.270
75.1006 0.142
75.1309 0.191
75.1611 -0.281
75.1914 -0.076
75.2217 -0.182
75.2520 0.233
75.2822 0.024
75.3125 0.649
75.3428 -0.080
75.3731 0.337
75.4034 -0.182
75.4336 -0.180
75.4639 -0.026
75.4942 -0.131
75.5245 0.025
75.5548 0.182
75.5850 -0.026
75.6153 0.393
75.6456 -0.074
75.6759 -0.176
75.7061 0.192
75.7364 -0.169
75.7667 0.200
75.7970 -0.004
75.8273 0.001
75.8575 -0.045
75.8878 0.170
75.9181 -0.032
75.9484 -0.232
75.9787 0.072
76.0089 -0.039
76.0392 -0.150
76.0695 0.052
76.0998 -0.109
76.1301 0.146
76.1603 -0.015
76.1906 0.086
76.2209 0.291
76.2512 -0.025
76.2814 -0.079
76.3117 -0.133
76.3420 0.075
76.3723 0.126
76.4026 -0.134
76.4328 0.231
76.4631 -0.080
76.4934 -0.079
76.5237 -0.180
76.5540 -0.128
76.5842 0.029
76.6145 -0.022
76.6448 -0.020
76.6751 0.138
76.7053 0.193
76.7356 -0.168
76.7659 -0.060
76.7962 0.101
76.8265 -0.206
76.8567 0.008
76.8870 -0.090
76.9173 0.438
76.9476 0.237
76.9779 0.036
77.0081 0.201
77.0384 0.419
77.0687 0.064
77.0990 -0.083
77.1292 -0.072
77.1595 -0.165
77.1898 0.036
77.2201 -0.128
77.2504 0.022
77.2806 0.224
77.3109 -0.095
77.3412 0.317
77.3715 0.208
77.4018 -0.004
77.4320 0.045
77.4623 0.146
77.4926 0.144
77.5229 -0.119
77.5531 0.088
77.5834 -0.121
77.6137 -0.173
77.6440 -0.233
77.6743 0.332
77.7045 -0.144
77.7348 0.006
77.7651 0.208
77.7954 -0.110
77.8257 -0.062
77.8559 0.246
77.8862 -0.070
77.9165 -0.126
77.9468 -0.180
77.9770 -0.080
78.0073 -0.083
78.0376 0.123
78.0679 0.121
78.0982 -0.401
78.1284 0.171
78.1587 0.118
78.1890 0.223
78.2193 -0.037
78.2496 0.121
78.2798 -0.033
78.3101 0.125
78.3404 0.128
78.3707 -0.233
78.4009 -0.082
78.4312 -0.296
78.4615 0.220
78.4918 -0.253
78.5221 0.265
78.5523 0.105
78.5826 0.103
78.6129 0.153
78.6432 0.100
78.6735 -0.110
78.7037 -0.110
78.7340 0.099
78.7643 0.152
78.7946 -0.107
78.8248 0.363
78.8551 0.210
78.8854 -0.152
78.9157 0.321
78.9460 0.064
78.9762 0.017
79.0065 0.074
79.0368 0.289
79.0671 -0.174
79.0974 -0.062
79.1276 0.049
79.1579 -0.203
79.1882 0.274
79.2185 0.179
79.2488 0.085
79.2790 0.095
79.3093 -0.258
79.3396 -0.056
79.3699 0.095
79.4001 0.403
79.4304 -0.070
79.4607 -0.022
79.4910 0.184
79.5213 -0.027
79.5515 0.283
79.5818 -0.291
79.6121 0.281
79.6424 -0.032
79.6727 0.281
79.7029 -0.135
79.7332 0.231
79.7635 0.285
79.7938 0.236
79.8240 -0.074
79.8543 0.138
79.8846 -0.014
79.9149 -0.113
79.9452 -0.056
79.9754 -0.206
80.0057 0.098
80.0360 -0.222
80.0663 0.136
80.0966 -0.391
80.1268 -0.033
80.1571 0.431
80.1874 0.582
80.2177 0.370
80.2479 -0.050
80.2782 -0.054
80.3085 0.152
80.3388 0.307
80.3691 -0.163
80.3993 -0.008
80.4296 0.044
80.4599 -0.112
80.4902 -0.163
80.5205 0.567
80.5507 -0.004
80.5810 0.103
80.6113 -0.259
80.6416 -0.059
80.6718 0.038
80.7021 0.343
80.7324 -0.080
80.7627 -0.139
80.7930 -0.092
80.8232 0.059
80.8535 -0.102
80.8838 0.207
80.9141 -0.213
80.9444 -0.112
80.9746 -0.114
81.0049 0.040
81.0352 0.039
81.0655 -0.118
81.0957 0.299
81.1260 -0.117
81.1563 -0.064
81.1866 0.406
81.2169 -0.060
81.2471 0.047
81.2774 -0.106
81.3077 -0.259
81.3380 0.164
81.3683 0.014
81.3985 0.177
81.4288 -0.077
81.4591 0.400
81.4894 0.148
81.5196 0.365
81.5499 0.166
81.5802 0.229
81.6105 -0.230
81.6408 0.355
81.6710 0.002
81.7013 0.118
81.7316 0.079
81.7619 0.301
81.7922 0.367
81.8224 0.121
81.8527 -0.020
81.8830 0.464
81.9133 0.012
81.9436 -0.180
81.9738 0.018
82.0041 -0.043
82.0344 0.260
82.0647 0.096
82.0949 0.088
82.1252 0.081
82.1555 -0.082
82.1858 -0.192
82.2161 0.427
82.2463 -0.255
82.2766 0.053
82.3069 0.466
82.3372 -0.214
82.3675 -0.165
82.3977 0.145
82.4280 -0.013
82.4583 0.038
82.4886 0.089
82.5188 -0.016
82.5491 -0.119
82.5794 0.142
82.6097 0.508
82.6400 -0.063
82.6702 0.095
82.7005 0.151
82.7308 0.102
82.7611 -0.206
82.7914 -0.055
82.8216 0.044
82.8519 -0.012
82.8822 0.089
82.9125 0.034
82.9427 0.032
82.9730 0.238
83.0033 0.028
83.0336 0.028
83.0639 -0.129
83.0941 -0.180
83.1244 0.175
83.1547 -0.094
83.1850 0.002
83.2153 -0.006
83.2455 -0.013
83.2758 0.241
83.3061 0.079
83.3364 -0.135
83.3666 0.069
83.3969 -0.040
83.4272 0.269
83.4575 0.318
83.4878 -0.206
83.5180 -0.051
83.5483 0.468
83.5786 0.259
83.6089 0.050
83.6392 0.363
83.6694 -0.053
83.6997 0.104
83.7300 -0.259
83.7603 -0.056
83.7905 -0.166
83.8208 -0.119
83.8511 -0.020
83.8814 -0.076
83.9117 0.129
83.9419 0.178
83.9722 -0.293
84.0025 0.330
84.0328 -0.036
84.0631 0.432
84.0933 0.120
84.1236 -0.088
84.1539 -0.087
84.1842 0.487
84.2144 -0.084
84.2447 -0.081
84.2750 0.182
84.3053 0.030
84.3356 -0.070
84.3658 -0.065
84.3961 0.045
84.4264 -0.262
84.4567 0.265
84.4870 -0.248
84.5172 -0.032
84.5475 -0.180
84.5778 0.077
84.6081 0.491
84.6383 -0.189
84.6686 -0.138
84.6989 -0.035
84.7292 -0.088
84.7595 0.433
84.7897 -0.088
84.8200 -0.139
84.8503 0.280
84.8806 0.126
84.9109 -0.028
84.9411 0.132
84.9714 0.292
85.0017 0.088
85.0320 0.301
85.0623 0.255
85.0925 0.104
85.1228 0.059
85.1531 0.014
85.1834 0.282
85.2136 0.082
85.2439 0.195
85.2742 -0.108
85.3045 0.059
85.3348 0.017
85.3650 0.132
85.3953 0.248
85.4256 0.104
85.4559 0.325
85.4862 0.130
85.5164 0.144
85.5467 -0.154
85.5770 -0.114
85.6073 0.604
85.6375 0.073
85.6678 -0.146
85.6981 0.157
85.7284 0.044
85.7587 0.035
85.7889 0.236
85.8192 0.020
85.8495 -0.091
85.8798 0.215
85.9101 0.418
85.9403 -0.317
85.9706 0.252
86.0009 0.352
86.0312 -0.068
86.0614 -0.019
86.0917 0.083
86.1220 0.185
86.1523 0.340
86.1826 -0.025
86.2128 0.027
86.2431 0.027
86.2734 -0.180
86.3037 0.024
86.3340 0.021
86.3642 -0.085
86.3945 0.173
86.4248 0.588
86.4551 0.483
86.4853 0.014
86.5156 0.223
86.5459 0.015
86.5762 0.277
86.6065 0.019
86.6367 0.021
86.6670 0.389
86.6973 0.236
86.7276 0.032
86.7579 0.193
86.7881 0.146
86.8184 0.048
86.8487 0.106
86.8790 0.426
86.9092 0.381
86.9395 -0.028
86.9698 -0.071
87.0001 0.094
87.0304 -0.156
87.0606 -0.156
87.0909 0.050
87.1212 -0.056
87.1515 -0.057
87.1818 -0.110
87.2120 0.307
87.2423 0.412
87.2726 -0.212
87.3029 0.102
87.3331 0.312
87.3634 0.055
87.3937 -0.046
87.4240 0.114
87.4543 0.118
87.4845 0.176
87.5148 0.077
87.5451 0.083
87.5754 0.142
87.6057 0.305
87.6359 -0.104
87.6662 -0.147
87.6965 0.098
87.7268 0.293
87.7571 -0.085
87.7873 0.214
87.8176 -0.007
87.8479 0.502
87.8782 -0.082
87.9084 -0.145
87.9387 -0.103
87.9690 0.096
87.9993 0.035
88.0296 0.182
88.0598 -0.138
88.0901 0.011
88.1204 -0.100
88.1507 0.050
88.1810 -0.060
88.2112 0.195
88.2415 -0.122
88.2718 -0.022
88.3021 -0.025
88.3323 -0.028
88.3626 -0.291
88.3929 0.228
88.4232 0.174
88.4535 0.278
88.4837 -0.087
88.5140 0.226
88.5443 0.175
88.5746 -0.032
88.6049 0.022
88.6351 -0.027
88.6654 -0.232
88.6957 0.075
88.7260 0.019
88.7562 -0.037
88.7865 -0.040
88.8168 0.010
88.8471 0.268
88.8774 0.215
88.9076 -0.046
88.9379 0.318
88.9682 -0.151
88.9985 0.319
89.0288 0.164
89.0590 -0.303
89.0893 0.012
89.1196 -0.089
89.1499 -0.033
89.1801 -0.029
89.2104 -0.232
89.2407 0.080
89.2710 0.237
89.3013 0.186
89.3315 0.135
89.3618 0.033
89.3921 -0.173
89.4224 -0.017
89.4527 -0.068
89.4829 0.037
89.5132 -0.014
89.5435 -0.116
89.5738 0.407
89.6040 0.202
89.6343 0.049
89.6646 0.158
89.6949 0.006
89.7252 -0.093
89.7554 0.017
89.7857 -0.132
89.8160 0.135
89.8463 -0.118
89.8766 0.203
89.9068 0.368
89.9371 0.377
89.9674 -0.030
89.9977 -0.072
90.0279 -0.217
90.0582 0.159
90.0885 0.692
90.1188 0.028
90.1491 -0.011
90.1793 -0.154
90.2096 0.039
90.2399 -0.132
90.2702 0.114
90.3005 0.205
90.3307 0.192
90.3610 0.075
90.3913 -0.041
90.4216 -0.313
90.4518 0.145
90.4821 0.030
90.5124 0.020
90.5427 0.063
90.5730 0.003
90.6032 0.151
90.6335 0.039
90.6638 0.136
90.6941 0.182
90.7244 -0.032
90.7546 0.014
90.7849 0.166
90.8152 0.110
90.8455 -0.206
90.8758 -0.052
90.9060 0.103
90.9363 -0.106
90.9666 -0.054
90.9969 0.051
91.0271 -0.105
91.0574 0.053
91.0877 -0.205
91.1180 0.162
91.1483 0.009
91.1785 0.169
91.2088 0.330
91.2391 -0.030
91.2694 0.132
91.2997 0.242
91.3299 -0.012
91.3602 -0.057
91.3905 -0.102
91.4208 0.167
91.4510 -0.293
91.4813 0.081
91.5116 -0.117
91.5419 -0.107
91.5722 0.477
91.6024 -0.136
91.6327 -0.072
91.6630 0.201
91.6933 -0.150
91.7236 0.176
91.7538 0.242
91.7841 0.205
91.8144 0.169
91.8447 -0.180
91.8749 -0.143
91.9052 0.466
91.9355 0.296
91.9658 -0.343
91.9961 0.216
92.0263 0.204
92.0566 -0.069
92.0869 0.232
92.1172 -0.092
92.1475 0.054
92.1777 -0.165
92.2080 -0.017
92.2383 0.235
92.2686 -0.241
92.2988 -0.144
92.3291 -0.099
92.3594 0.208
92.3897 -0.110
92.4200 -0.063
92.4502 0.194
92.4805 -0.123
92.5108 0.083
92.5411 -0.180
92.5714 -0.027
92.6016 0.335
92.6319 0.021
92.6622 0.489
92.6925 0.176
92.7227 0.176
92.7530 -0.084
92.7833 -0.031
92.8136 -0.029
92.8439 0.181
92.8741 -0.180
92.9044 -0.133
92.9347 0.122
92.9650 -0.090
92.9953 -0.146
93.0255 -0.045
93.0558 -0.047
93.0861 -0.153
93.1164 -0.259
93.1466 0.208
93.1769 -0.106
93.2072 -0.159
93.2375 -0.160
93.2678 0.048
93.2980 -0.055
93.3283 0.206
93.3586 0.104
93.3889 -0.363
93.4192 -0.057
93.4494 -0.063
93.4797 -0.016
93.5100 0.187
93.5403 -0.026
93.5706 0.022
93.6008 -0.241
93.6311 0.120
93.6614 -0.090
93.6917 -0.144
93.7219 0.220
93.7522 -0.041
93.7825 0.011
93.8128 0.011
93.8431 -0.040
93.8733 -0.351
93.9036 0.225
93.9339 -0.241
93.9642 0.335
93.9945 0.339
94.0247 -0.073
94.0550 0.140
94.0853 -0.063
94.1156 -0.057
94.1458 0.367
94.1761 -0.147
94.2064 -0.035
94.2367 0.130
94.2670 -0.018
94.2972 -0.112
94.3275 -0.311
94.3578 0.146
94.3881 -0.333
94.4184 0.021
94.4486 -0.406
94.4789 0.261
94.5092 -0.268
94.5395 -0.068
94.5697 -0.337
94.6000 0.124
94.6303 -0.039
94.6606 0.059
94.6909 0.365
94.7211 -0.005
94.7514 -0.062
94.7817 -0.066
94.8120 0.191
94.8423 0.031
94.8725 0.289
94.9028 -0.130
94.9331 0.338
94.9634 0.128
94.9936 0.024
95.0239 0.232
95.0542 0.598
95.0845 0.026
95.1148 -0.441
95.1450 0.027
95.1753 -0.337
95.2056 0.132
95.2359 -0.127
95.2662 0.396
95.2964 -0.175
95.3267 0.141
95.3570 -0.168
95.3873 0.148
95.4175 -0.160
95.4478 -0.206
95.4781 0.214
95.5084 0.063
95.5387 0.172
95.5689 0.022
95.5992 0.132
95.6295 0.347
95.6598 0.042
95.6901 -0.054
95.7203 0.267
95.7506 -0.245
95.7809 0.182
95.8112 -0.173
95.8414 -0.173
95.8717 0.030
95.9020 0.597
95.9323 -0.189
95.9626 0.119
95.9928 0.064
96.0231 0.165
96.0534 0.162
96.0837 0.160
96.1140 -0.310
96.1442 -0.051
96.1745 0.313
96.2048 0.209
96.2351 -0.155
96.2653 -0.049
96.2956 -0.047
96.3259 0.059
96.3562 -0.094
96.3865 0.222
96.4167 0.278
96.4470 0.023
96.4773 0.028
96.5076 -0.071
96.5379 -0.169
96.5681 -0.005
96.5984 -0.206
96.6287 0.048
96.6590 -0.010
96.6893 0.037
96.7195 0.084
96.7498 -0.233
96.7801 0.285
96.8104 0.073
96.8406 0.331
96.8709 -0.296
96.9012 -0.037
96.9315 0.067
96.9618 0.692
96.9920 0.484
97.0223 -0.089
97.0526 -0.035
97.0829 -0.241
97.1132 0.334
97.1434 0.077
97.1737 0.080
97.2040 0.345
97.2343 -0.171
97.2645 0.147
97.2948 0.153
97.3251 0.159
97.3554 0.062
97.3857 0.070
97.4159 0.026
97.4462 0.034
97.4765 -0.165
97.5068 -0.017
97.5371 -0.024
97.5673 -0.084
97.5976 0.326
97.6279 -0.044
97.6582 -0.154
97.6884 0.049
97.7187 -0.111
97.7490 0.197
97.7793 0.038
97.8096 0.139
97.8398 0.502
97.8701 0.031
97.9004 0.082
97.9307 -0.074
97.9610 -0.022
97.9912 0.135
98.0215 -0.073
98.0518 -0.123
98.0821 -0.173
98.1123 0.034
98.1426 -0.123
98.1729 0.085
98.2032 -0.070
98.2335 0.035
98.2637 -0.120
98.2940 -0.118
98.3243 -0.063
98.3546 0.148
98.3849 -0.108
98.4151 0.000
98.4454 0.161
98.4757 0.114
98.5060 0.277
98.5362 -0.186
98.5665 -0.022
98.5968 0.037
98.6271 -0.059
98.6574 0.263
98.6876 0.116
98.7179 0.073
98.7482 0.396
98.7785 0.043
98.8088 -0.258
98.8390 -0.001
98.8693 0.154
98.8996 0.048
98.9299 -0.110
98.9601 -0.058
98.9904 0.515
99.0207 0.047
99.0510 0.152
99.0813 -0.054
99.1115 -0.156
99.1418 -0.050
99.1721 0.161
99.2024 0.425
99.2327 0.220
99.2629 0.173
99.2932 -0.239
99.3235 0.131
99.3538 0.293
99.3841 -0.169
99.4143 0.099
99.4446 -0.310
99.4749 -0.062
99.5052 0.136
99.5354 0.177
99.5657 0.167
99.5960 0.157
99.6263 0.200
99.6566 -0.016
99.6868 0.340
99.7171 0.385
99.7474 0.014
99.7777 -0.045
99.8080 0.106
99.8382 -0.055
99.8685 0.044
99.8988 0.301
99.9291 0.193
99.9593 0.138
99.9896 -0.229
100.0199 -0.022
100.0502 0.133
100.0805 0.080
100.1107 -0.441
100.1410 -0.031
100.1713 0.536
100.2016 -0.147
100.2319 0.056
100.2621 -0.105
100.2924 0.100
100.3227 -0.112
100.3530 -0.167
100.3832 -0.013
100.4135 -0.067
100.4438 0.036
100.4741 -0.173
100.5044 0.035
100.5346 -0.173
100.5649 -0.069
100.5952 -0.121
100.6255 0.245
100.6558 -0.066
100.6860 0.196
100.7163 -0.322
100.7466 0.150
100.7769 0.102
100.8071 0.002
100.8374 -0.046
100.8677 -0.144
100.8980 0.070
100.9283 0.389
100.9585 0.448
100.9888 0.143
101.0191 -0.005
101.0494 -0.048
101.0797 0.065
101.1099 0.440
101.1402 0.137
101.1705 0.200
101.2008 0.524
101.2310 -0.141
101.2613 -0.180
101.2916 0.173
101.3219 0.162
101.3522 -0.213
101.3824 0.142
101.4127 0.289
101.4430 -0.032
101.4733 0.012
101.5036 -0.047
101.5338 0.154
101.5641 0.148
101.5944 -0.119
101.6247 0.189
101.6549 0.080
101.6852 0.128
101.7155 0.072
101.7458 -0.035
101.7761 0.691
101.8063 0.012
101.8366 0.167
101.8669 0.270
101.8972 0.010
101.9275 0.166
101.9577 -0.145
101.9880 0.116
102.0183 0.275
102.0486 0.069
102.0788 0.384
102.1091 0.076
102.1394 -0.076
102.1697 0.657
102.2000 -0.014
102.2302 -0.165
102.2605 -0.070
102.2908 0.025
102.3211 0.120
102.3514 0.529
102.3816 -0.155
102.4119 0.411
102.4422 -0.012
102.4725 0.242
102.5028 0.133
102.5330 0.285
102.5633 -0.136
102.5936 -0.244
102.6239 0.222
102.6541 0.271
102.6844 0.218
102.7147 0.216
102.7450 0.059
102.7753 -0.097
102.8055 0.372
102.8358 0.060
102.8661 0.010
102.8964 0.168
102.9267 0.587
102.9569 0.174
102.9872 0.021
103.0175 0.025
103.0478 -0.074
103.0780 -0.173
103.1083 0.089
103.1386 -0.169
103.1689 -0.062
103.1992 0.202
103.2294 -0.055
103.2597 -0.311
103.2900 0.101
103.3203 0.044
103.3506 -0.012
103.3808 0.245
103.4111 0.137
103.4414 -0.282
103.4717 0.081
103.5019 0.392
103.5322 0.079
103.5625 -0.026
103.5928 -0.078
103.6231 0.027
103.6533 -0.075
103.6836 0.291
103.7139 0.554
103.7442 0.245
103.7745 -0.012
103.8047 0.357
103.8350 0.153
103.8653 -0.206
103.8956 -0.107
103.9258 0.202
103.9561 0.094
103.9864 -0.013
104.0167 0.453
104.0470 0.087
104.0772 0.033
104.1075 0.137
104.1378 -0.124
104.1681 0.241
104.1984 0.085
104.2286 0.139
104.2589 0.037
104.2892 -0.065
104.3195 0.043
104.3497 0.255
104.3800 0.155
104.4103 -0.153
104.4406 0.113
104.4709 0.483
104.5011 0.125
104.5314 -0.441
104.5617 -0.084
104.5920 0.066
104.6223 0.007
104.6525 0.210
104.6828 0.048
104.7131 -0.217
104.7434 0.195
104.7736 0.400
104.8039 -0.332
104.8342 0.082
104.8645 -0.493
104.8948 -0.025
104.9250 0.130
104.9553 0.078
104.9856 -0.078
105.0159 0.079
105.0462 -0.180
105.0764 -0.032
105.1067 0.066
105.1370 -0.253
105.1673 0.157
105.1975 0.308
105.2278 -0.009
105.2581 0.039
105.2884 0.035
105.3187 -0.124
105.3489 -0.074
105.3792 -0.180
105.4095 0.026
105.4398 0.233
105.4701 0.025
105.5003 -0.080
105.5306 0.129
105.5609 0.026
105.5912 -0.180
105.6215 -0.131
105.6517 -0.081
105.6820 -0.082
105.7123 -0.083
105.7426 0.177
105.7728 -0.135
105.8031 0.282
105.8334 0.075
105.8637 -0.496
105.8940 0.027
105.9242 -0.282
105.9545 0.086
105.9848 0.038
106.0151 0.095
106.0454 0.100
106.0756 -0.206
106.1059 -0.047
106.1362 -0.043
106.1665 0.117
106.1967 -0.191
106.2270 0.127
106.2573 0.185
106.2876 -0.173
106.3179 -0.173
106.3481 0.190
106.3784 0.136
106.4087 -0.437
106.4390 0.604
106.4693 -0.073
106.4995 -0.124
106.5298 0.086
106.5601 -0.016
106.5904 0.038
106.6206 -0.063
106.6509 0.097
106.6812 0.153
106.7115 -0.258
106.7418 -0.109
106.7720 -0.010
106.8023 0.089
106.8326 0.032
106.8629 -0.441
106.8932 0.021
106.9234 -0.351
106.9537 0.112
106.9840 0.418
107.0143 -0.108
107.0445 0.148
107.0748 -0.168
107.1051 -0.068
107.1354 0.086
107.1657 0.135
107.1959 0.081
107.2262 -0.180
107.2565 -0.082
107.2868 -0.243
107.3171 0.222
107.3473 -0.250
107.3776 0.059
107.4079 -0.204
107.4382 0.054
107.4684 0.053
107.4987 -0.104
107.5290 0.312
107.5593 0.156
107.5896 0.053
107.6198 0.315
107.6501 0.056
107.6804 0.475
107.7107 0.010
107.7410 0.169
107.7712 -0.035
107.8015 0.022
107.8318 0.079
107.8621 0.242
107.8923 0.144
107.9226 -0.058
107.9529 -0.206
107.9832 0.115
108.0135 -0.241
108.0437 0.029
108.0740 0.248
108.1043 0.363
108.1346 -0.251
108.1649 -0.083
108.1951 0.086
108.2254 -0.005
108.2557 0.060
108.2860 0.231
108.3163 -0.171
108.3465 -0.156
108.3768 -0.012
108.4071 0.290
108.4374 0.227
108.4676 -0.043
108.4979 0.207
108.5282 -0.374
108.5585 0.242
108.5888 0.234
108.6190 -0.189
108.6493 0.533
108.6796 0.110
108.7099 0.365
108.7402 0.568
108.7704 0.095
108.8007 0.300
108.8310 0.140
108.8613 0.085
108.8915 0.031
108.9218 0.029
108.9521 -0.232
108.9824 0.023
109.0127 0.435
109.0429 0.118
109.0732 0.114
109.1035 0.163
109.1338 0.056
109.1641 0.159
109.1943 -0.468
109.2246 0.261
109.2549 0.104
109.2852 -0.052
109.3154 -0.103
109.3457 0.159
109.3760 0.160
109.4063 -0.045
109.4366 0.270
109.4668 -0.195
109.4971 0.017
109.5274 0.126
109.5577 -0.129
109.5880 0.398
109.6182 -0.012
109.6485 0.151
109.6788 -0.206
109.7091 -0.107
109.7393 0.150
109.7696 0.199
109.7999 0.144
109.8302 0.350
109.8605 0.192
109.8907 0.139
109.9210 -0.174
109.9513 -0.070
109.9816 -0.018
110.0119 -0.173
110.0421 -0.075
110.0724 0.283
110.1027 0.017
110.1330 -0.092
110.1632 -0.201
110.1935 0.212
110.2238 0.469
110.2541 0.049
110.2844 0.203
110.3146 0.202
110.3449 -0.008
110.3752 -0.008
110.4055 0.200
110.4358 0.148
110.4660 0.097
110.4963 0.047
110.5266 -0.003
110.5569 0.364
110.5871 -0.049
110.6174 -0.045
110.6477 0.168
110.6780 0.121
110.7083 -0.030
110.7385 -0.180
110.7688 0.082
110.7991 -0.176
110.8294 0.088
110.8597 0.092
110.8899 0.200
110.9202 0.205
110.9505 -0.206
110.9808 -0.157
111.0110 -0.055
111.0413 0.256
111.0716 -0.110
111.1019 0.150
111.1322 0.202
111.1624 0.099
111.1927 -0.108
111.2230 0.154
111.2533 0.156
111.2836 0.211
111.3138 0.214
111.3441 0.166
111.3744 0.067
111.4047 -0.137
111.4350 0.025
111.4652 0.031
111.4955 0.455
111.5258 -0.111
111.5561 -0.103
111.5863 0.218
111.6166 -0.086
111.6469 -0.336
111.6772 0.133
111.7075 0.030
111.7377 0.136
111.7680 0.190
111.7983 0.349
111.8286 -0.169
111.8589 0.356
111.8891 -0.056
111.9194 0.261
111.9497 -0.150
111.9800 0.273
112.0102 0.332
112.0405 -0.078
112.0708 0.191
112.1011 0.407
112.1314 -0.105
112.1616 -0.147
112.1919 0.072
112.2222 0.187
112.2525 -0.010
112.2828 -0.206
112.3130 0.047
112.3433 -0.063
112.3736 0.035
112.4039 0.082
112.4341 0.442
112.4644 0.229
112.4947 0.277
112.5250 0.639
112.5553 0.636
112.5855 0.113
112.6158 0.060
112.6461 0.319
112.6764 -0.202
112.7067 0.527
112.7369 0.112
112.7672 0.373
112.7975 0.375
112.8278 0.065
112.8580 -0.088
112.8883 0.020
112.9186 0.180
112.9489 -0.232
112.9792 -0.142
113.0094 0.157
113.0397 0.144
113.0700 0.079
113.1003 0.276
113.1306 -0.048
113.1608 -0.007
113.1911 0.139
113.2214 -0.079
113.2517 0.016
113.2819 -0.097
113.3122 0.156
113.3425 -0.008
113.3728 -0.015
113.4031 0.239
113.4333 0.494
113.4636 -0.032
113.4939 0.276
113.5242 -0.145
113.5545 -0.097
113.5847 -0.100
113.6150 -0.311
113.6453 0.152
113.6756 0.095
113.7058 0.038
113.7361 0.138
113.7664 -0.126
113.7967 -0.025
113.8270 -0.027
113.8572 -0.133
113.8875 -0.134
113.9178 0.021
113.9481 -0.083
113.9784 0.177
114.0086 0.074
114.0389 -0.029
114.0692 0.130
114.0995 -0.180
114.1298 -0.076
114.1600 0.238
114.1903 0.136
114.2206 0.086
114.2509 -0.067
114.2811 0.092
114.3114 0.409
114.3417 0.049
114.3720 -0.363
114.4023 -0.002
114.4325 -0.162
114.4628 0.147
114.4931 -0.168
114.5234 -0.014
114.5537 -0.016
114.5839 -0.069
114.6142 -0.017
114.6445 -0.121
114.6748 -0.173
114.7050 -0.119
114.7353 0.247
114.7656 0.354
114.7959 -0.164
114.8262 0.048
114.8564 -0.104
114.8867 -0.099
114.9170 0.271
114.9473 0.121
114.9776 0.336
115.0078 0.082
115.0381 0.090
115.0684 0.358
115.0987 0.419
115.1289 -0.197
115.1592 0.230
115.1895 0.136
115.2198 0.043
115.2501 -0.258
115.2803 -0.017
115.3106 0.069
115.3409 0.156
115.3712 0.451
115.4015 0.539
115.4317 0.054
115.4620 0.038
115.4923 -0.029
115.5226 0.165
115.5528 0.151
115.5831 -0.018
115.6134 -0.135
115.6437 -0.043
115.6740 0.258
115.7042 0.403
115.7345 0.028
115.7648 0.018
115.7951 -0.043
115.8254 -0.208
115.8556 0.200
115.8859 -0.381
115.9162 -0.023
115.9465 0.231
115.9767 -0.036
116.0070 -0.093
116.0373 0.006
116.0676 -0.467
116.0979 0.052
116.1281 -0.002
116.1584 -0.107
116.1887 0.153
116.2190 0.100
116.2493 0.153
116.2795 0.258
116.3098 0.364
116.3401 0.106
116.3704 -0.099
116.4006 0.373
116.4309 -0.144
116.4612 -0.035
116.4915 0.334
116.5218 0.079
116.5520 -0.123
116.5823 0.249
116.6126 -0.161
116.6429 0.055
116.6732 0.012
116.7034 -0.188
116.7337 -0.035
116.7640 0.171
116.7943 -0.300
116.8245 0.115
116.8548 -0.199
116.8851 -0.043
116.9154 0.166
116.9457 -0.042
116.9759 -0.041
117.0062 0.117
117.0365 0.067
117.0668 -0.086
117.0971 -0.135
117.1273 -0.027
117.1576 0.030
117.1879 -0.173
117.2182 0.093
117.2485 0.151
117.2787 -0.155
117.3090 -0.095
117.3393 -0.087
117.3696 0.077
117.3998 0.399
117.4301 -0.008
117.4604 -0.259
117.4907 0.044
117.5210 0.400
117.5512 -0.025
117.5815 -0.033
117.6118 -0.040
117.6421 -0.047
117.6724 0.156
117.7026 0.046
117.7329 -0.011
117.7632 -0.172
117.7935 0.189
117.8237 -0.023
117.8540 0.078
117.8843 0.232
117.9146 -0.238
117.9449 -0.031
117.9751 -0.188
118.0054 0.017
118.0357 -0.090
118.0660 0.063
118.0963 0.374
118.1265 0.373
118.1568 -0.045
118.1871 -0.201
118.2174 0.216
118.2476 -0.357
118.2779 0.426
118.3082 0.168
118.3385 -0.351
118.3688 -0.087
118.3990 -0.188
118.4293 -0.446
118.4596 0.287
118.4899 0.030
118.5202 -0.330
118.5504 0.039
118.5807 -0.164
118.6110 0.363
118.6413 0.057
118.6715 0.273
118.7018 0.072
118.7321 -0.180
118.7624 -0.078
118.7927 0.024
118.8229 -0.081
118.8532 0.439
118.8835 -0.238
118.9138 0.023
118.9441 0.076
118.9743 -0.026
119.0046 -0.180
119.0349 -0.073
119.0652 0.295
119.0954 -0.014
119.1257 0.199
119.1560 0.100
119.1863 -0.363
119.2166 -0.053
119.2468 0.361
119.2771 0.307
119.3074 0.046
119.3377 -0.111
119.3680 0.097
119.3982 0.150
119.4285 -0.005
119.4588 -0.160
119.4891 0.102
119.5193 -0.207
119.5496 0.213
119.5799 -0.096
119.6102 -0.248
119.6405 0.330
119.6707 0.283
119.7010 -0.127
119.7313 -0.173
119.7616 -0.062
119.7919 0.154
119.8221 -0.098
119.8524 0.066
119.8827 0.023
119.9130 0.189
119.9433 -0.061
119.9735 -0.206
120.0038 0.000
