'Id: "" Comment: "" Operator: "Lab Manager" Anode: "Cu" Scantype: "Locked Coupled" TimePerStep: "19.2" X: "9999" Y: "9999" Z: "9999" 
10.0015 0.000
10.0318 -1.197
10.0620 0.118
10.0923 -0.650
10.1226 -0.142
10.1529 0.263
10.1832 0.459
10.2134 0.395
10.2437 -0.346
10.2740 -0.253
10.3043 -0.420
10.3346 -0.072
10.3648 0.329
10.3951 0.938
10.4254 1.443
10.4557 0.490
10.4859 0.891
10.5162 -0.426
10.5465 0.757
10.5768 -0.038
10.6071 0.416
10.6373 -0.067
10.6676 -0.393
10.6979 0.068
10.7282 0.686
10.7585 0.679
10.7887 1.192
10.8190 0.144
10.8493 0.815
10.8796 0.132
10.9098 0.803
10.9401 0.537
10.9704 1.937
11.0007 1.203
11.0310 1.562
11.0612 1.193
11.0915 -0.009
11.1218 0.455
11.1521 0.503
11.1824 1.020
11.2126 0.131
11.2429 1.013
11.2732 -0.136
11.3035 0.851
11.3337 -0.558
11.3640 -0.040
11.3943 0.375
11.4246 0.164
11.4549 -0.515
11.4851 0.473
11.5154 0.837
11.5457 -0.102
11.5760 -0.624
11.6063 0.886
11.6365 0.417
11.6668 0.157
11.6971 0.313
11.7274 0.313
11.7577 -0.572
11.7879 0.835
11.8182 0.107
11.8485 0.108
11.8788 1.047
11.9090 -0.305
11.9393 -0.303
11.9696 0.012
11.9999 0.118
12.0302 -0.400
12.0604 -0.085
12.0907 0.178
12.1210 1.067
12.1513 -0.440
12.1816 0.240
12.2118 0.661
12.2421 -0.481
12.2724 1.086
12.3027 0.830
12.3329 -0.207
12.3632 -0.150
12.3935 -0.249
12.4238 0.329
12.4541 0.075
12.4843 0.289
12.5146 0.868
12.5449 0.197
12.5752 0.152
12.6055 0.419
12.6357 0.895
12.6660 0.121
12.6963 0.701
12.7266 0.240
12.7568 -0.273
12.7871 -0.108
12.8174 -0.464
12.8477 0.221
12.8780 0.595
12.9082 0.552
12.9385 0.770
12.9688 0.258
12.9991 0.320
13.0294 0.330
13.0596 1.018
13.0899 0.143
13.1202 0.206
13.1505 0.217
13.1807 0.488
13.2110 -0.177
13.2413 0.303
13.2716 -0.258
13.3019 0.744
13.3321 0.287
13.3624 -0.273
13.3927 0.157
13.4230 -0.664
13.4533 0.131
13.4835 0.040
13.5138 -0.206
13.5441 0.745
13.5744 0.082
13.6046 -0.372
13.6349 -0.109
13.6652 0.206
13.6955 -0.468
13.7258 -0.156
13.7560 0.521
13.7863 -0.155
13.8166 0.678
13.8469 0.262
13.8772 0.003
13.9074 0.941
13.9377 0.318
13.9680 0.163
13.9983 0.165
14.0285 -0.250
14.0588 -0.143
14.0891 -0.193
14.1194 0.227
14.1497 -0.135
14.1799 0.910
14.2102 0.132
14.2405 -0.177
14.2708 0.140
14.3011 0.873
14.3313 0.148
14.3616 0.778
14.3919 0.314
14.4222 0.579
14.4524 -0.353
14.4827 0.538
14.5130 0.179
14.5433 -0.388
14.5736 0.608
14.6038 0.719
14.6341 -0.420
14.6644 0.680
14.6947 0.010
14.7250 0.226
14.7552 0.598
14.7855 0.137
14.8158 0.250
14.8461 1.091
14.8764 0.058
14.9066 -0.037
14.9369 0.701
14.9672 0.346
14.9975 0.824
15.0277 0.677
15.0580 0.479
15.0883 -0.344
15.1186 0.135
15.1489 0.354
15.1791 -0.260
15.2094 -0.353
15.2397 0.269
15.2700 -0.254
15.3003 -0.048
15.3305 0.315
15.3608 0.262
15.3911 -0.469
15.4214 -0.001
15.4516 0.831
15.4819 1.195
15.5122 0.101
15.5425 -0.160
15.5728 -0.003
15.6030 0.882
15.6333 1.195
15.6636 0.206
15.6939 0.155
15.7242 0.677
15.7544 0.262
15.7847 0.368
15.8150 0.214
15.8453 1.257
15.8755 0.270
15.9058 0.950
15.9361 0.015
15.9664 0.279
15.9967 1.063
16.0269 1.015
16.0572 -0.075
16.0875 1.022
16.1178 -0.015
16.1481 0.041
16.1783 0.098
16.2086 0.155
16.2389 0.525
16.2692 0.062
16.2994 -0.037
16.3297 -0.239
16.3600 -0.442
16.3903 0.282
16.4206 0.172
16.4508 -0.093
16.4811 0.683
16.5114 -0.050
16.5417 0.570
16.5720 -0.580
16.6022 0.406
16.6325 0.975
16.6628 0.555
16.6931 0.083
16.7233 0.914
16.7536 1.119
16.7839 -0.185
16.8142 0.281
16.8445 0.592
16.8747 0.434
16.9050 0.068
16.9353 0.170
16.9656 0.742
16.9959 -0.457
17.0261 0.116
17.0564 0.688
17.0867 0.063
17.1170 0.011
17.1472 -0.353
17.1775 -0.147
17.2078 0.736
17.2381 0.005
17.2684 0.108
17.2986 0.054
17.3289 -0.676
17.3592 0.104
17.3895 0.103
17.4198 0.103
17.4500 0.363
17.4803 0.727
17.5106 0.311
17.5409 0.676
17.5712 0.364
17.6014 -0.260
17.6317 0.470
17.6620 0.628
17.6923 0.473
17.7225 0.267
17.7528 0.425
17.7831 0.427
17.8134 0.274
17.8437 -0.401
17.8739 0.279
17.9042 0.335
17.9345 -0.443
17.9648 0.186
17.9951 0.346
18.0253 0.194
18.0556 0.094
18.0859 0.203
18.1162 -0.157
18.1464 -0.308
18.1767 -0.095
18.2070 -0.349
18.2373 0.119
18.2676 -0.350
18.2978 0.536
18.3281 0.640
18.3584 -0.088
18.3887 0.954
18.4190 -0.139
18.4492 -0.242
18.4795 0.854
18.5098 0.907
18.5401 -0.289
18.5703 -0.338
18.6006 1.018
18.6309 0.760
18.6612 1.076
18.6915 0.402
18.7217 0.405
18.7520 0.617
18.7823 0.777
18.8126 0.104
18.8429 0.629
18.8731 0.061
18.9034 0.638
18.9337 0.279
18.9640 0.544
18.9942 -0.336
19.0245 0.191
19.0548 0.822
19.0851 -0.005
19.1154 -0.468
19.1456 0.051
19.1759 0.466
19.2062 1.038
19.2365 0.411
19.2668 0.358
19.2970 -0.111
19.3273 -0.059
19.3576 0.461
19.3879 -0.216
19.4181 0.565
19.4484 0.774
19.4787 0.775
19.5090 0.203
19.5393 -0.109
19.5695 0.101
19.5998 -0.001
19.6301 0.573
19.6604 0.575
19.6907 0.005
19.7209 0.059
19.7512 0.687
19.7815 0.534
19.8118 0.329
19.8420 0.280
19.8723 0.232
19.9026 -0.025
19.9329 1.281
19.9632 0.817
19.9934 0.926
20.0237 -0.319
20.0540 -0.158
20.0843 -0.049
20.1146 0.217
20.1448 0.327
20.1751 0.437
20.2054 -0.338
20.2357 -0.492
20.2659 0.395
20.2962 0.605
20.3265 0.503
20.3568 -0.015
20.3871 0.925
20.4173 0.147
20.4476 -0.735
20.4779 0.310
20.5082 0.001
20.5385 0.370
20.5687 0.009
20.5990 0.899
20.6293 -0.294
20.6596 0.283
20.6899 0.445
20.7201 0.242
20.7504 0.351
20.7807 0.357
20.8110 0.571
20.8412 -0.360
20.8715 0.115
20.9018 0.434
20.9321 0.129
20.9624 0.344
20.9926 0.820
21.0229 0.516
21.0532 0.523
21.0835 0.636
21.1138 0.800
21.1440 0.184
21.1743 0.245
21.2046 0.149
21.2349 0.575
21.2651 0.324
21.2954 -0.343
21.3257 0.604
21.3560 0.458
21.3863 -0.052
21.4165 0.011
21.4468 -0.031
21.4771 0.189
21.5074 0.877
21.5377 0.732
21.5679 0.276
21.5982 -0.390
21.6285 -0.243
21.6588 0.477
21.6890 -0.105
21.7193 -0.322
21.7496 0.191
21.7799 0.912
21.8102 0.852
21.8404 0.375
21.8707 0.055
21.9010 0.464
21.9313 0.666
21.9616 0.138
21.9918 0.288
22.0221 -0.188
22.0524 -0.037
22.0827 -0.043
22.1129 0.576
22.1432 0.102
22.1735 0.669
22.2038 0.508
22.2341 0.764
22.2643 -0.126
22.2946 -0.495
22.3249 0.438
22.3552 0.070
22.3855 0.223
22.4157 0.115
22.4460 -0.513
22.4763 0.161
22.5066 0.263
22.5368 0.573
22.5671 0.779
22.5974 0.152
22.6277 0.567
22.6580 0.305
22.6882 -0.009
22.7185 1.032
22.7488 0.771
22.7791 0.405
22.8094 -0.116
22.8396 0.405
22.8699 0.145
22.9002 -0.115
22.9305 -0.479
22.9607 0.250
22.9910 0.929
23.0213 0.774
23.0516 0.463
23.0819 -0.525
23.1121 0.883
23.1424 0.677
23.1727 0.158
23.2030 0.265
23.2333 0.372
23.2635 0.115
23.2938 0.327
23.3241 0.226
23.3544 -0.447
23.3846 0.078
23.4149 0.447
23.4452 -0.174
23.4755 -0.325
23.5058 0.036
23.5360 -0.333
23.5663 0.549
23.5966 0.286
23.6269 1.273
23.6572 0.541
23.6874 0.695
23.7177 1.005
23.7480 -0.091
23.7783 -0.301
23.8086 -0.302
23.8388 -0.095
23.8691 0.112
23.8994 0.632
23.9297 0.215
23.9599 0.319
23.9902 0.423
24.0205 0.631
24.0508 1.205
24.0811 0.320
24.1113 0.008
24.1416 -0.199
24.1719 0.688
24.2022 0.220
24.2325 0.274
24.2627 0.224
24.2930 0.956
24.3233 0.229
24.3536 0.388
24.3838 0.130
24.4141 0.446
24.4444 0.449
24.4747 0.297
24.5050 -0.064
24.5352 -0.112
24.5655 -0.004
24.5958 -0.416
24.6261 0.043
24.6564 0.709
24.6866 -0.030
24.7169 -0.561
24.7472 0.315
24.7775 0.462
24.8077 -0.120
24.8380 0.444
24.8683 0.331
24.8986 0.062
24.9289 -0.102
24.9591 -0.214
24.9894 -0.274
25.0197 0.135
25.0500 0.180
25.0803 -0.504
25.1105 0.010
25.1408 0.003
25.1711 0.205
25.2014 0.668
25.2316 -0.328
25.2619 0.083
25.2922 -0.287
25.3225 0.229
25.3528 -0.349
25.3830 0.272
25.4133 -0.254
25.4436 0.002
25.4739 0.363
25.5042 0.620
25.5344 -0.009
25.5647 0.613
25.5950 0.401
25.6253 0.294
25.6555 -0.229
25.6858 0.393
25.7161 -0.390
25.7464 0.285
25.7767 -0.133
25.8069 0.282
25.8372 -0.136
25.8675 0.540
25.8978 0.852
25.9281 -0.138
25.9583 0.486
25.9886 -0.295
26.0189 -0.191
26.0492 0.226
26.0794 -0.502
26.1097 0.696
26.1400 -0.292
26.1703 0.647
26.2006 0.440
26.2308 0.129
26.2611 -0.494
26.2914 -0.088
26.3217 -0.306
26.3520 -0.316
26.3822 -0.013
26.4125 0.290
26.4428 -0.188
26.4731 0.011
26.5034 -0.050
26.5336 0.150
26.5639 -0.171
26.5942 0.394
26.6245 -0.343
26.6547 -0.299
26.6850 0.788
26.7153 0.468
26.7456 0.201
26.7759 0.402
26.8061 -0.490
26.8364 -0.288
26.8667 -0.554
26.8970 1.055
26.9273 -0.045
26.9575 0.783
26.9878 -0.472
27.0181 -0.060
27.0484 0.040
27.0786 -0.329
27.1089 0.083
27.1392 0.288
27.1695 0.076
27.1998 0.437
27.2300 1.059
27.2603 1.056
27.2906 0.324
27.3209 0.373
27.3512 0.735
27.3814 0.317
27.4117 0.002
27.4420 0.522
27.4723 0.208
27.5025 0.259
27.5328 0.518
27.5631 0.465
27.5934 -0.212
27.6237 0.048
27.6539 0.048
27.6842 0.152
27.7145 0.257
27.7448 0.206
27.7751 0.415
27.8053 -0.105
27.8356 -0.416
27.8659 0.144
27.8962 1.121
27.9264 0.327
27.9567 0.471
27.9870 0.719
28.0173 0.811
28.0476 0.331
28.0778 0.840
28.1081 -0.213
28.1384 0.453
28.1687 -0.495
28.1990 0.015
28.2292 -0.307
28.2595 -0.317
28.2898 0.558
28.3201 -0.024
28.3503 -0.034
28.3806 0.478
28.4109 0.729
28.4412 0.408
28.4715 0.035
28.5017 -0.546
28.5320 0.016
28.5623 0.317
28.5926 0.410
28.6229 -0.798
28.6531 0.389
28.6834 0.744
28.7137 0.682
28.7440 -0.474
28.7742 -0.379
28.8045 -0.046
28.8348 0.184
28.8651 0.102
28.8954 0.280
28.9256 -0.219
28.9559 -0.145
28.9862 0.815
29.0165 0.369
29.0468 0.913
29.0770 0.051
29.1073 -0.186
29.1376 0.515
29.1679 -0.503
29.1981 0.250
29.2284 -0.298
29.2587 -0.482
29.2890 0.533
29.3193 -0.380
29.3495 -0.146
29.3798 0.088
29.4101 0.270
29.4404 0.504
29.4707 0.114
29.5009 0.088
29.5312 0.427
29.5615 -0.223
29.5918 -0.196
29.6221 0.040
29.6523 -0.088
29.6826 0.304
29.7129 -0.658
29.7432 0.204
29.7734 -0.913
29.8037 0.470
29.8340 -0.334
29.8643 0.528
29.8946 0.297
29.9248 -0.350
29.9551 -0.008
29.9854 0.700
30.0157 1.355
30.0460 0.344
30.0762 0.062
30.1065 -0.271
30.1368 -0.448
30.1671 -0.110
30.1973 -0.084
30.2276 0.046
30.2579 0.749
30.2882 0.515
30.3185 -0.760
30.3487 0.204
30.3790 0.440
30.4093 0.936
30.4396 1.432
30.4699 0.471
30.5001 0.186
30.5304 0.944
30.5607 1.076
30.5910 1.991
30.6212 1.238
30.6515 1.684
30.6818 1.089
30.7121 0.598
30.7424 2.190
30.7726 2.637
30.8029 3.553
30.8332 3.010
30.8635 2.573
30.8938 4.010
30.9240 2.479
30.9543 3.656
30.9846 5.250
31.0149 4.762
31.0451 5.836
31.0754 6.701
31.1057 6.578
31.1360 6.819
31.1663 7.686
31.1965 9.542
31.2268 11.711
31.2571 11.276
31.2874 12.456
31.3177 14.209
31.3479 16.692
31.3782 18.341
31.4085 21.397
31.4388 24.453
31.4690 26.259
31.4993 32.806
31.5296 34.560
31.5599 37.409
31.5902 37.498
31.6204 38.784
31.6507 42.363
31.6810 40.733
31.7113 41.135
31.7416 37.162
31.7718 34.544
31.8021 29.686
31.8324 27.068
31.8627 23.305
31.8929 20.739
31.9232 18.903
31.9535 13.005
31.9838 14.659
32.0141 10.740
32.0443 10.572
32.0746 9.831
32.1049 8.830
32.1352 7.568
32.1655 6.776
32.1957 5.931
32.2260 4.462
32.2563 4.347
32.2866 3.087
32.3169 3.077
32.3471 2.546
32.3774 2.589
32.4077 1.798
32.4380 2.883
32.4682 1.520
32.4985 2.136
32.5288 1.919
32.5591 0.557
32.5894 1.122
32.6196 2.416
32.6499 0.742
32.6802 0.630
32.7105 0.623
32.7408 0.408
32.7710 -0.119
32.8013 1.437
32.8316 0.858
32.8619 0.383
32.8921 -0.508
32.9224 -0.409
32.9527 -0.310
32.9830 -0.523
33.0133 -0.372
33.0435 0.613
33.0738 -0.173
33.1041 -0.593
33.1344 0.809
33.1647 -0.028
33.1949 -0.240
33.2252 -0.399
33.2555 0.119
33.2858 0.480
33.3160 0.113
33.3463 0.371
33.3766 -0.204
33.4069 0.211
33.4372 1.095
33.4674 0.573
33.4977 0.780
33.5280 1.248
33.5583 2.133
33.5886 1.612
33.6188 2.028
33.6491 1.924
33.6794 1.351
33.7097 0.466
33.7399 1.925
33.7702 1.197
33.8005 3.698
33.8308 2.658
33.8611 3.545
33.8913 3.235
33.9216 5.112
33.9519 6.260
33.9822 7.252
34.0125 8.713
34.0427 11.268
34.0730 12.209
34.1033 13.098
34.1336 18.831
34.1638 20.971
34.1941 27.537
34.2244 35.042
34.2547 44.213
34.2850 49.426
34.3152 51.359
34.3455 49.072
34.3758 42.828
34.4061 36.375
34.4364 30.236
34.4666 22.482
34.4969 19.415
34.5272 14.578
34.5575 11.825
34.5877 9.644
34.6180 8.402
34.6483 6.847
34.6786 7.428
34.7089 5.822
34.7391 4.476
34.7694 4.589
34.7997 3.452
34.8300 3.409
34.8603 3.418
34.8905 3.688
34.9208 4.583
34.9511 3.864
34.9814 3.562
35.0116 3.937
35.0419 4.156
35.0722 3.333
35.1025 3.032
35.1328 3.512
35.1630 3.941
35.1933 2.963
35.2236 4.538
35.2539 3.925
35.2842 4.042
35.3144 5.617
35.3447 5.265
35.3750 5.643
35.4053 5.865
35.4356 6.660
35.4658 6.986
35.4961 7.209
35.5264 8.630
35.5567 9.686
35.5869 11.003
35.6172 10.029
35.6475 10.669
35.6778 13.028
35.7081 14.815
35.7383 16.706
35.7686 16.878
35.7989 19.707
35.8292 22.328
35.8595 28.335
35.8897 28.873
35.9200 33.265
35.9503 40.210
35.9806 38.926
36.0108 45.767
36.0411 51.202
36.0714 56.429
36.1017 57.594
36.1320 60.165
36.1622 61.122
36.1925 58.797
36.2228 54.703
36.2531 52.848
36.2834 43.753
36.3136 44.399
36.3439 38.482
36.3742 34.232
36.4045 31.076
36.4347 25.368
36.4650 23.411
36.4953 18.224
36.5256 16.892
36.5559 14.935
36.5861 11.781
36.6164 11.231
36.6467 9.535
36.6770 9.246
36.7073 9.321
36.7375 7.053
36.7678 6.400
36.7981 5.278
36.8284 6.397
36.8586 3.505
36.8889 3.946
36.9192 3.919
36.9495 3.007
36.9798 3.397
37.0100 3.944
37.0403 2.043
37.0706 2.381
37.1009 3.398
37.1312 2.383
37.1614 1.837
37.1917 1.603
37.2220 1.318
37.2523 2.492
37.2825 1.843
37.3128 1.037
37.3431 0.805
37.3734 1.563
37.4037 0.238
37.4339 1.100
37.4642 0.609
37.4945 0.117
37.5248 0.772
37.5551 1.166
37.5853 0.103
37.6156 0.654
37.6459 1.414
37.6762 1.549
37.7064 1.007
37.7367 0.205
37.7670 0.602
37.7973 0.790
37.8276 1.134
37.8578 -0.396
37.8881 0.001
37.9184 0.867
37.9487 -0.142
37.9790 0.933
38.0092 1.019
38.0395 0.792
38.0698 -0.216
38.1001 -0.598
38.1304 0.247
38.1606 0.051
38.1909 0.219
38.2212 0.231
38.2515 0.557
38.2817 0.101
38.3120 -0.043
38.3423 -0.133
38.3726 0.505
38.4029 0.207
38.4331 -0.352
38.4634 -0.130
38.4937 -0.324
38.5240 -0.778
38.5543 0.435
38.5845 -0.695
38.6148 0.101
38.6451 -0.300
38.6754 -0.336
38.7056 0.149
38.7359 -0.095
38.7662 0.078
38.7965 -0.010
38.8268 0.580
38.8570 -0.236
38.8873 0.511
38.9176 0.477
38.9479 0.078
38.9782 0.148
39.0084 -0.302
39.0387 0.602
39.0690 -0.317
39.0993 -0.141
39.1295 -0.747
39.1598 0.262
39.1901 -0.291
39.2204 0.406
39.2507 0.218
39.2809 0.395
39.3112 0.103
39.3415 0.176
39.3718 0.250
39.4021 0.063
39.4323 0.241
39.4626 -0.258
39.4929 0.337
39.5232 0.203
39.5534 -0.139
39.5837 -0.845
39.6140 0.480
39.6443 -0.070
39.6746 -0.150
39.7048 0.446
39.7351 0.106
39.7654 -0.026
39.7957 0.467
39.8260 -0.602
39.8562 -0.317
39.8865 0.202
39.9168 0.408
39.9471 0.510
39.9773 0.457
40.0076 0.507
40.0379 0.142
40.0682 0.245
40.0985 -0.173
40.1287 0.244
40.1590 0.348
40.1893 -0.486
40.2196 0.348
40.2499 0.192
40.2801 -0.276
40.3104 0.089
40.3407 -0.066
40.3710 0.509
40.4012 0.094
40.4315 -0.217
40.4618 -0.007
40.4921 0.308
40.5224 -0.731
40.5526 0.470
40.5829 0.108
40.6132 0.476
40.6435 0.428
40.6738 0.275
40.7040 0.175
40.7343 -0.029
40.7646 -0.650
40.7949 0.083
40.8251 -0.434
40.8554 0.091
40.8857 0.617
40.9160 -0.160
40.9463 0.053
40.9765 0.059
41.0068 -0.196
41.0371 0.226
41.0674 -0.237
41.0977 0.394
41.1279 -0.329
41.1582 -0.270
41.1885 0.414
41.2188 0.369
41.2491 0.168
41.2793 -0.033
41.3096 -0.129
41.3399 0.087
41.3702 0.564
41.4004 -0.105
41.4307 0.217
41.4610 -0.139
41.4913 -0.026
41.5216 0.036
41.5518 -0.423
41.5821 0.368
41.6124 1.107
41.6427 0.336
41.6730 -0.174
41.7032 0.149
41.7335 0.004
41.7638 0.327
41.7941 0.651
41.8243 0.299
41.8546 0.258
41.8849 -0.094
41.9152 -0.290
41.9455 -0.085
41.9757 0.433
42.0060 0.222
42.0363 0.324
42.0666 0.166
42.0969 0.007
42.1271 -0.203
42.1574 0.056
42.1877 0.524
42.2180 0.210
42.2482 0.418
42.2785 0.521
42.3088 0.365
42.3391 0.625
42.3694 -0.469
42.3996 0.157
42.4299 -0.311
42.4602 -0.106
42.4905 0.099
42.5208 0.461
42.5510 0.458
42.5813 0.092
42.6116 -0.015
42.6419 0.296
42.6721 0.086
42.7024 0.606
42.7327 -0.021
42.7630 0.343
42.7933 0.082
42.8235 0.029
42.8538 -0.127
42.8841 0.081
42.9144 -0.179
42.9447 -0.178
42.9749 0.031
43.0052 0.032
43.0355 0.554
43.0658 -0.070
43.0960 0.244
43.1263 0.142
43.1566 0.040
43.1869 -0.218
43.2172 0.097
43.2474 0.569
43.2777 0.155
43.3080 0.314
43.3383 -0.151
43.3686 -0.199
43.3988 0.638
43.4291 0.122
43.4594 -0.134
43.4897 0.339
43.5199 0.448
43.5502 0.141
43.5805 -0.010
43.6108 0.204
43.6411 -0.520
43.6713 -0.162
43.7016 -0.012
43.7319 0.086
43.7622 -0.024
43.7925 0.387
43.8227 0.173
43.8530 0.741
43.8833 1.049
43.9136 0.211
43.9439 -0.367
43.9741 0.098
44.0044 0.146
44.0347 0.819
44.0650 0.138
44.0952 -0.646
44.1255 0.601
44.1558 0.285
44.1861 0.387
44.2164 -0.137
44.2466 0.226
44.2769 0.641
44.3072 0.326
44.3375 -0.144
44.3678 0.011
44.3980 -0.146
44.4283 0.113
44.4586 -0.408
44.4889 0.581
44.5191 -0.096
44.5494 0.165
44.5797 -0.252
44.6100 -0.043
44.6403 -0.250
44.6705 0.115
44.7008 0.586
44.7311 0.014
44.7614 -0.245
44.7917 -0.295
44.8219 0.060
44.8522 0.519
44.8825 0.457
44.9128 0.812
44.9430 0.022
44.9733 0.013
45.0036 0.473
45.0339 0.100
45.0642 0.248
45.0944 0.656
45.1247 0.336
45.1550 -0.036
45.1853 -0.304
45.2156 -0.216
45.2458 -0.024
45.2761 0.221
45.3064 0.987
45.3367 -0.122
45.3669 -0.450
45.3972 0.212
45.4275 -0.740
45.4578 0.339
45.4881 0.013
45.5183 0.207
45.5486 0.454
45.5789 -0.081
45.6092 -0.198
45.6395 0.362
45.6697 0.088
45.7000 0.336
45.7303 -0.145
45.7606 0.260
45.7908 0.300
45.8211 0.028
45.8514 0.225
45.8817 -0.047
45.9120 -0.370
45.9422 0.244
45.9725 -0.444
46.0028 -0.089
46.0331 -0.204
46.0634 0.099
46.0936 0.246
46.1239 -0.024
46.1542 0.332
46.1845 -0.094
46.2147 0.627
46.2450 0.983
46.2753 0.298
46.3056 0.915
46.3359 -0.031
46.3661 0.483
46.3964 0.111
46.4267 0.781
46.4570 0.305
46.4873 0.351
46.5175 0.813
46.5478 0.755
46.5781 1.218
46.6084 0.952
46.6386 0.686
46.6689 0.525
46.6992 1.353
46.7295 0.984
46.7598 1.552
46.7900 1.079
46.8203 0.659
46.8506 1.749
46.8809 1.849
46.9112 2.002
46.9414 2.051
46.9717 2.257
47.0020 2.983
47.0323 3.762
47.0626 3.760
47.0928 3.914
47.1231 5.371
47.1534 4.588
47.1837 6.046
47.2139 7.451
47.2442 8.075
47.2745 7.970
47.3048 9.793
47.3351 11.355
47.3653 11.408
47.3956 11.096
47.4259 10.367
47.4562 11.514
47.4865 10.838
47.5167 9.850
47.5470 9.018
47.5773 9.020
47.6076 9.074
47.6378 7.566
47.6681 6.370
47.6984 4.967
47.7287 5.334
47.7590 5.233
47.7892 3.466
47.8195 3.157
47.8498 3.525
47.8801 2.332
47.9104 1.503
47.9406 1.559
47.9709 1.512
48.0012 1.621
48.0315 2.043
48.0617 1.215
48.0920 1.169
48.1223 0.394
48.1526 1.390
48.1829 0.875
48.2131 0.934
48.2434 0.212
48.2737 0.167
48.3040 -0.295
48.3343 0.130
48.3645 -0.175
48.3948 0.458
48.4251 0.675
48.4554 -0.463
48.4856 0.640
48.5159 0.388
48.5462 -0.227
48.5765 -0.687
48.6068 0.625
48.6370 0.166
48.6673 0.072
48.6976 0.551
48.7279 0.250
48.7582 -0.104
48.7884 -0.406
48.8187 0.283
48.8490 -0.904
48.8793 0.462
48.9095 -0.619
48.9398 0.487
48.9701 -0.386
49.0004 0.251
49.0307 -0.309
49.0609 -0.035
49.0912 0.031
49.1215 -0.060
49.1518 0.318
49.1821 -0.240
49.2123 -0.122
49.2426 -0.264
49.2729 0.168
49.3032 -0.182
49.3334 -0.271
49.3637 0.526
49.3940 0.177
49.4243 -0.015
49.4546 -0.468
49.4848 0.066
49.5151 0.860
49.5454 0.091
49.5757 -0.052
49.6060 -0.611
49.6362 0.340
49.6665 -0.531
49.6968 -0.101
49.7271 -0.295
49.7574 -0.247
49.7876 -0.095
49.8179 0.162
49.8482 0.158
49.8785 -0.002
49.9087 -0.161
49.9390 0.148
49.9693 0.145
49.9996 0.403
50.0299 0.453
50.0601 -0.278
50.0904 0.084
50.1207 -0.230
50.1510 0.446
50.1813 0.080
50.2115 -0.129
50.2418 0.131
50.2721 0.391
50.3024 0.078
50.3326 -0.183
50.3629 0.547
50.3932 0.652
50.4235 -0.754
50.4538 -0.128
50.4840 0.133
50.5143 0.031
50.5446 -0.176
50.5749 0.034
50.6052 -0.172
50.6354 0.351
50.6657 0.145
50.6960 0.773
50.7263 0.359
50.7565 -0.002
50.7868 0.627
50.8171 0.057
50.8474 -0.095
50.8777 0.430
50.9079 -0.555
50.9382 -0.238
50.9685 0.444
50.9988 0.814
51.0291 0.454
51.0593 0.095
51.0896 0.518
51.1199 0.003
51.1502 -0.043
51.1804 0.120
51.2107 -0.290
51.2410 -0.241
51.2713 0.068
51.3016 0.222
51.3318 -0.145
51.3621 0.321
51.3924 0.215
51.4227 0.213
51.4530 -0.101
51.4832 -0.206
51.5135 -0.520
51.5438 0.257
51.5741 0.357
51.6043 0.041
51.6346 -0.172
51.6649 0.085
51.6952 0.342
51.7255 0.391
51.7557 0.545
51.7860 0.542
51.8163 0.384
51.8466 0.277
51.8769 0.171
51.9071 -0.247
51.9374 0.220
51.9677 -0.094
51.9980 -0.095
52.0282 0.217
52.0585 0.112
52.0888 0.373
52.1191 -0.409
52.1494 -0.148
52.1796 -0.096
52.2099 -0.095
52.2402 -0.094
52.2705 -0.041
52.3008 -0.040
52.3310 0.743
52.3613 -0.192
52.3916 -0.295
52.4219 -0.295
52.4521 0.116
52.4824 -0.306
52.5127 -0.050
52.5430 -0.055
52.5733 0.200
52.6035 -0.169
52.6338 0.556
52.6641 -0.333
52.6944 0.340
52.7247 0.285
52.7549 -0.396
52.7852 -0.138
52.8155 0.015
52.8458 -0.092
52.8761 0.375
52.9063 0.581
52.9366 0.266
52.9669 0.161
52.9972 -0.258
53.0274 0.210
53.0577 0.261
53.0880 0.104
53.1183 -0.157
53.1486 0.416
53.1788 -0.261
53.2091 -0.261
53.2394 0.260
53.2697 0.209
53.3000 -0.416
53.3302 -0.163
53.3605 0.298
53.3908 0.031
53.4211 -0.289
53.4513 -0.088
53.4816 -0.146
53.5119 -0.361
53.5422 0.362
53.5725 0.252
53.6027 0.298
53.6330 0.085
53.6633 0.288
53.6936 0.074
53.7239 -0.191
53.7541 -0.091
53.7844 0.009
53.8147 -0.100
53.8450 -0.103
53.8752 -0.055
53.9055 -0.735
53.9358 0.199
53.9661 0.092
53.9964 0.610
54.0266 0.503
54.0569 -0.488
54.0872 -0.022
54.1175 -0.075
54.1478 0.288
54.1780 -0.391
54.2083 0.233
54.2386 0.441
54.2689 0.232
54.2991 0.961
54.3294 0.075
54.3597 0.336
54.3900 0.180
54.4203 0.180
54.4505 0.285
54.4808 -0.182
54.5111 -0.077
54.5414 0.602
54.5717 0.135
54.6019 0.501
54.6322 0.816
54.6625 0.402
54.6928 -0.221
54.7230 1.032
54.7533 0.098
54.7836 -0.055
54.8139 -0.104
54.8442 -0.308
54.8744 -0.165
54.9047 0.708
54.9350 0.487
54.9653 -0.047
54.9956 0.254
55.0258 -0.019
55.0561 0.699
55.0864 1.416
55.1167 -0.210
55.1469 0.352
55.1772 0.654
55.2075 0.435
55.2378 0.373
55.2681 0.571
55.2983 1.342
55.3286 0.708
55.3589 0.177
55.3892 0.429
55.4195 0.888
55.4497 0.619
55.4800 0.715
55.5103 1.123
55.5406 0.959
55.5709 1.889
55.6011 1.360
55.6314 0.988
55.6617 0.825
55.6920 0.922
55.7222 1.645
55.7525 1.326
55.7828 2.778
55.8131 1.991
55.8434 2.714
55.8736 3.334
55.9039 2.964
55.9342 3.324
55.9645 3.788
55.9948 3.419
56.0250 4.716
56.0553 4.035
56.0856 5.333
56.1159 6.007
56.1461 6.212
56.1764 6.313
56.2067 8.758
56.2370 8.286
56.2673 9.586
56.2975 10.053
56.3278 10.988
56.3581 13.382
56.3884 14.214
56.4187 16.504
56.4489 14.576
56.4792 16.346
56.5095 16.241
56.5398 16.085
56.5700 14.001
56.6003 13.168
56.6306 12.127
56.6609 11.138
56.6912 11.191
56.7214 9.733
56.7517 9.005
56.7820 8.382
56.8123 6.977
56.8426 6.927
56.8728 5.575
56.9031 4.744
56.9334 4.330
56.9637 3.604
56.9939 3.295
57.0242 3.038
57.0545 3.145
57.0848 2.420
57.1151 1.851
57.1453 2.116
57.1756 2.641
57.2059 1.187
57.2362 2.078
57.2665 1.406
57.2967 1.359
57.3270 1.990
57.3573 0.485
57.3876 1.273
57.4178 0.602
57.4481 0.505
57.4784 0.511
57.5087 1.039
57.5390 1.151
57.5692 0.533
57.5995 -0.032
57.6298 -0.128
57.6601 0.505
57.6904 0.357
57.7206 0.053
57.7509 0.271
57.7812 0.905
57.8115 0.133
57.8417 0.143
57.8720 1.090
57.9023 0.475
57.9326 -0.348
57.9629 -0.390
57.9931 0.389
58.0234 0.231
58.0537 0.490
58.0840 0.332
58.1143 -0.190
58.1445 0.330
58.1748 -0.296
58.2051 0.068
58.2354 0.589
58.2656 0.693
58.2959 -0.089
58.3262 0.068
58.3565 0.225
58.3868 0.486
58.4170 -0.450
58.4473 0.280
58.4776 0.125
58.5079 -0.081
58.5382 0.129
58.5684 -0.442
58.5987 -0.075
58.6290 0.605
58.6593 -0.174
58.6896 -0.588
58.7198 0.353
58.7501 0.044
58.7804 -0.682
58.8107 0.051
58.8409 -0.049
58.8712 -0.201
58.9015 0.168
58.9318 0.121
58.9621 -0.239
58.9923 0.444
59.0226 0.084
59.0529 -0.327
59.0832 0.200
59.1135 0.363
59.1437 0.317
59.1740 -0.041
59.2043 0.018
59.2346 0.442
59.2648 0.136
59.2951 0.561
59.3254 -0.213
59.3557 0.212
59.3860 -0.145
59.4162 0.124
59.4465 -0.284
59.4768 -0.171
59.5071 0.307
59.5374 0.577
59.5676 0.014
59.5979 -0.185
59.6282 0.086
59.6585 0.148
59.6887 -0.206
59.7190 -0.299
59.7493 -0.086
59.7796 0.387
59.8099 -0.129
59.8401 0.137
59.8704 0.455
59.9007 -0.112
59.9310 0.571
59.9613 0.525
59.9915 -0.042
60.0218 0.330
60.0521 -0.080
60.0824 0.291
60.1126 0.768
60.1429 0.411
60.1732 0.679
60.2035 0.218
60.2338 0.174
60.2640 0.443
60.2943 0.816
60.3246 0.252
60.3549 -0.311
60.3852 -0.226
60.4154 0.017
60.4457 0.780
60.4760 0.033
60.5063 0.589
60.5365 0.155
60.5668 0.086
60.5971 0.538
60.6274 0.104
60.6577 0.088
60.6879 0.280
60.7182 0.317
60.7485 0.041
60.7788 1.171
60.8091 0.219
60.8393 -0.421
60.8696 0.501
60.8999 0.331
60.9302 -0.256
60.9604 0.042
60.9907 0.080
61.0210 0.432
61.0513 -0.103
61.0816 0.301
61.1118 -0.181
61.1421 0.119
61.1724 -0.258
61.2027 0.355
61.2330 0.396
61.2632 0.436
61.2935 1.050
61.3238 0.413
61.3541 0.142
61.3844 -0.442
61.4146 -0.088
61.4449 0.005
61.4752 0.983
61.5055 -0.225
61.5357 0.598
61.5660 -0.246
61.5963 0.525
61.6266 0.463
61.6569 -0.015
61.6871 0.913
61.7174 0.644
61.7477 0.531
61.7780 0.783
61.8083 0.774
61.8385 0.662
61.8688 0.394
61.8991 0.646
61.9294 0.431
61.9596 0.788
61.9899 0.000
62.0202 1.399
62.0505 1.549
62.0808 1.334
62.1110 1.745
62.1413 1.687
62.1716 1.942
62.2019 2.926
62.2322 4.015
62.2624 3.020
62.2927 4.474
62.3230 3.011
62.3533 3.268
62.3835 4.722
62.4138 5.135
62.4441 4.506
62.4744 5.180
62.5047 6.063
62.5349 7.831
62.5652 7.464
62.5955 8.503
62.6258 9.699
62.6561 12.874
62.6863 11.049
62.7166 11.569
62.7469 12.870
62.7772 11.202
62.8074 13.649
62.8377 13.128
62.8680 11.826
62.8983 11.565
62.9286 10.159
62.9588 10.160
62.9891 8.598
63.0194 8.286
63.0497 6.308
63.0800 5.737
63.1102 5.686
63.1405 3.709
63.1708 3.971
63.2011 4.338
63.2313 2.830
63.2616 2.781
63.2919 2.628
63.3222 1.746
63.3525 1.280
63.3827 1.545
63.4130 2.382
63.4433 0.928
63.4736 1.765
63.5039 0.728
63.5341 0.577
63.5644 0.582
63.5947 0.327
63.6250 1.010
63.6552 0.078
63.6855 0.605
63.7158 0.611
63.7461 0.149
63.7764 0.260
63.8066 0.162
63.8369 0.534
63.8672 0.906
63.8975 0.237
63.9278 0.557
63.9580 0.409
63.9883 0.574
64.0186 0.061
64.0489 -0.034
64.0791 -0.338
64.1094 0.087
64.1397 0.303
64.1700 0.102
64.2003 0.579
64.2305 -0.454
64.2608 -0.185
64.2911 0.553
64.3214 0.093
64.3517 -0.054
64.3819 0.216
64.4122 -0.087
64.4425 -0.077
64.4728 -0.119
64.5031 -0.004
64.5333 -0.515
64.5636 0.121
64.5939 -0.232
64.6242 0.196
64.6544 0.624
64.6847 -0.406
64.7150 0.231
64.7453 -0.277
64.7756 -0.317
64.8058 0.209
64.8361 -0.254
64.8664 0.221
64.8967 0.279
64.9270 -0.288
64.9572 0.656
64.9875 0.142
65.0178 -0.163
65.0481 -0.312
65.0783 -0.019
65.1086 -0.194
65.1389 -0.317
65.1692 -0.283
65.1995 0.167
65.2297 0.410
65.2600 0.288
65.2903 -0.094
65.3206 0.097
65.3509 -0.232
65.3811 -0.301
65.4114 -0.057
65.4417 -0.074
65.4720 -0.038
65.5022 -0.001
65.5325 0.139
65.5628 -1.126
65.5931 0.265
65.6234 0.094
65.6536 -0.442
65.6839 -0.038
65.7142 0.157
65.7445 0.301
65.7748 0.288
65.8050 -0.037
65.8353 0.108
65.8656 0.825
65.8959 0.084
65.9261 0.125
65.9564 0.999
65.9867 1.301
66.0170 0.613
66.0473 1.071
66.0775 1.217
66.1078 0.687
66.1381 0.989
66.1684 2.074
66.1987 1.023
66.2289 1.118
66.2592 1.474
66.2895 0.892
66.3198 1.248
66.3500 1.761
66.3803 1.597
66.4106 0.704
66.4409 1.217
66.4712 1.002
66.5014 0.943
66.5317 0.676
66.5620 1.034
66.5923 0.246
66.6226 0.865
66.6528 -0.234
66.6831 0.073
66.7134 0.640
66.7437 0.583
66.7739 0.943
66.8042 0.365
66.8345 -0.108
66.8648 0.773
66.8951 -0.012
66.9253 0.349
66.9556 0.450
66.9859 0.551
67.0162 0.548
67.0465 0.910
67.0767 1.376
67.1070 0.540
67.1373 0.434
67.1676 1.578
67.1978 1.056
67.2281 1.419
67.2584 1.626
67.2887 2.302
67.3190 1.572
67.3492 3.238
67.3795 3.186
67.4098 3.186
67.4401 2.926
67.4704 3.551
67.5006 2.979
67.5309 4.126
67.5612 4.804
67.5915 4.389
67.6218 5.224
67.6520 6.684
67.6823 6.061
67.7126 8.147
67.7429 8.306
67.7731 8.204
67.8034 9.145
67.8337 9.148
67.8640 9.256
67.8943 8.322
67.9245 7.545
67.9548 7.653
67.9851 8.439
68.0154 5.891
68.0457 7.407
68.0759 6.943
68.1062 5.751
68.1365 4.558
68.1668 5.762
68.1970 4.726
68.2273 4.212
68.2576 4.218
68.2879 3.756
68.3182 3.867
68.3484 3.146
68.3787 3.205
68.4090 2.171
68.4393 1.814
68.4696 1.666
68.4998 1.883
68.5301 2.412
68.5604 3.463
68.5907 2.482
68.6209 2.179
68.6512 2.762
68.6815 3.136
68.7118 2.677
68.7421 2.323
68.7723 3.010
68.8026 3.698
68.8329 3.084
68.8632 4.241
68.8935 3.680
68.9237 3.014
68.9540 4.745
68.9843 3.142
69.0146 3.623
69.0448 4.052
69.0751 3.961
69.1054 2.516
69.1357 4.300
69.1660 3.688
69.1962 2.400
69.2265 3.299
69.2568 2.480
69.2871 1.922
69.3174 2.561
69.3476 1.691
69.3779 1.758
69.4082 1.929
69.4385 1.008
69.4687 1.700
69.4990 1.196
69.5293 1.056
69.5596 1.072
69.5899 1.245
69.6201 1.002
69.6504 0.654
69.6807 0.620
69.7110 -0.040
69.7413 -0.282
69.7715 -0.056
69.8018 0.275
69.8321 -0.332
69.8624 0.000
69.8926 0.383
69.9229 0.403
69.9532 0.058
69.9835 0.077
70.0138 0.254
70.0440 -0.299
70.0743 -0.231
70.1046 0.931
70.1349 0.583
70.1652 0.548
70.1954 -0.060
70.2257 -0.199
70.2560 -0.337
70.2863 0.241
70.3166 0.351
70.3468 -0.163
70.3771 -0.209
70.4074 0.422
70.4377 0.169
70.4679 0.436
70.4982 -0.390
70.5285 0.139
70.5588 0.094
70.5891 -0.262
70.6193 0.163
70.6496 0.067
70.6799 -0.341
70.7102 0.085
70.7405 -0.167
70.7707 0.051
70.8010 0.061
70.8313 0.435
70.8616 0.497
70.8918 0.872
70.9221 -0.419
70.9524 0.321
70.9827 0.540
71.0130 -0.178
71.0432 -0.271
71.0735 -0.214
71.1038 -0.261
71.1341 0.005
71.1644 0.115
71.1946 0.017
71.2249 0.127
71.2552 0.393
71.2855 -0.329
71.3157 0.146
71.3460 0.153
71.3763 0.161
71.4066 0.220
71.4369 0.228
71.4671 -0.285
71.4974 -0.179
71.5277 0.448
71.5580 -0.123
71.5883 0.505
71.6185 0.195
71.6488 0.355
71.6791 -0.111
71.7094 -0.316
71.7396 0.417
71.7699 -0.047
71.8002 0.321
71.8305 -0.299
71.8608 0.487
71.8910 -0.185
71.9213 0.132
71.9516 0.502
71.9819 -0.169
72.0122 0.201
72.0424 0.051
72.0727 -0.255
72.1030 -0.049
72.1333 0.158
72.1635 0.104
72.1938 0.259
72.2241 0.519
72.2544 0.049
72.2847 -0.212
72.3149 0.725
72.3452 0.465
72.3755 0.934
72.4058 0.934
72.4361 0.414
72.4663 0.623
72.4966 1.041
72.5269 0.417
72.5572 0.627
72.5874 0.733
72.6177 0.527
72.6480 0.894
72.6783 0.636
72.7086 0.742
72.7388 0.537
72.7691 1.061
72.7994 0.700
72.8297 -0.026
72.8600 -0.074
72.8902 0.764
72.9205 -0.170
72.9508 -0.061
72.9811 0.465
73.0113 0.001
73.0416 0.423
73.0719 0.168
73.1022 -0.035
73.1325 0.492
73.1627 -0.179
73.1930 0.765
73.2233 0.407
73.2536 -0.055
73.2839 0.109
73.3141 0.324
73.3444 0.488
73.3747 0.756
73.4050 -0.329
73.4353 0.148
73.4655 -0.104
73.4958 0.061
73.5261 0.330
73.5564 0.496
73.5866 0.505
73.6169 0.411
73.6472 0.212
73.6775 0.326
73.7078 -0.028
73.7380 0.191
73.7683 0.046
73.7986 0.473
73.8289 -0.088
73.8592 -0.285
73.8894 0.130
73.9197 0.493
73.9500 0.492
73.9803 0.335
74.0105 0.074
74.0408 0.022
74.0711 0.282
74.1014 -0.499
74.1317 0.179
74.1619 0.283
74.1922 0.336
74.2225 0.441
74.2528 -0.026
74.2831 -0.441
74.3133 0.073
74.3436 -0.090
74.3739 0.321
74.4042 0.210
74.4344 0.465
74.4647 0.459
74.4950 0.142
74.5253 0.084
74.5556 -0.441
74.5858 -0.030
74.6161 -0.035
74.6464 -0.091
74.6767 -0.304
74.7070 0.213
74.7372 0.209
74.7675 0.049
74.7978 -0.007
74.8281 -0.114
74.8583 0.091
74.8886 0.296
74.9189 0.294
74.9492 0.031
74.9795 -0.023
75.0097 0.235
75.0400 0.546
75.0703 0.232
75.1006 0.283
75.1309 0.178
75.1611 0.542
75.1914 0.385
75.2217 -0.396
75.2520 -0.136
75.2822 0.073
75.3125 -0.135
75.3428 -0.239
75.3731 0.064
75.4034 -0.361
75.4336 0.463
75.4639 -0.223
75.4942 0.029
75.5245 0.698
75.5548 -0.091
75.5850 -0.151
75.6153 -0.158
75.6456 -0.009
75.6759 0.036
75.7061 -0.023
75.7364 0.075
75.7667 0.381
75.7970 0.531
75.8273 0.577
75.8575 0.103
75.8878 0.254
75.9181 -0.116
75.9484 0.191
75.9787 0.031
76.0089 0.339
76.0392 0.334
76.0695 0.382
76.0998 0.379
76.1301 0.063
76.1603 -0.097
76.1906 0.160
76.2209 0.001
76.2512 0.155
76.2814 0.361
76.3117 -0.266
76.3420 0.357
76.3723 0.043
76.4026 -0.428
76.4328 0.717
76.4631 0.612
76.4934 0.038
76.5237 -0.067
76.5540 0.402
76.5842 0.194
76.6145 0.402
76.6448 1.079
76.6751 0.455
76.7053 0.873
76.7356 0.665
76.7659 1.240
76.7962 0.408
76.8265 1.243
76.8567 1.766
76.8870 1.508
76.9173 0.677
76.9476 0.992
76.9779 1.047
77.0081 0.686
77.0384 0.585
77.0687 0.901
77.0990 0.332
77.1292 0.180
77.1595 0.601
77.1898 1.074
77.2201 0.662
77.2504 0.876
77.2806 0.621
77.3109 0.991
77.3412 0.476
77.3715 0.117
77.4018 0.280
77.4320 0.546
77.4623 0.084
77.4926 -0.169
77.5229 0.150
77.5531 0.262
77.5834 0.165
77.6137 -0.452
77.6440 0.910
77.6743 0.450
77.7045 0.511
77.7348 0.415
77.7651 0.320
77.7954 0.590
77.8257 0.026
77.8559 0.609
77.8862 0.410
77.9165 -0.100
77.9468 0.014
77.9770 -0.236
78.0073 0.192
78.0376 0.515
78.0679 -0.150
78.0982 0.070
78.1284 0.550
78.1587 0.250
78.1890 0.158
78.2193 0.170
78.2496 0.027
78.2798 -0.221
78.3101 -0.018
78.3404 0.498
78.3707 0.337
78.4009 0.176
78.4312 0.171
78.4615 0.011
78.4918 0.528
78.5221 0.420
78.5523 -0.417
78.5826 0.465
78.6129 0.410
78.6432 -0.270
78.6735 0.092
78.7037 0.611
78.7340 -0.225
78.7643 -0.174
78.7946 0.553
78.8248 0.239
78.8551 0.499
78.8854 -0.127
78.9157 -0.024
78.9460 0.913
78.9762 0.444
79.0065 -0.025
79.0368 0.184
79.0671 -0.128
79.0974 0.185
79.1276 -0.179
79.1579 0.239
79.1882 -0.020
79.2185 0.711
79.2488 0.661
79.2790 -0.170
79.3093 -0.220
79.3396 0.199
79.3699 0.462
79.4001 0.049
79.4304 0.364
79.4607 0.264
79.4910 -0.045
79.5213 0.011
79.5515 0.067
79.5818 -0.085
79.6121 0.285
79.6424 0.498
79.6727 0.034
79.7029 -0.221
79.7332 -0.385
79.7635 0.752
79.7938 0.536
79.8240 -0.357
79.8543 0.470
79.8846 0.046
79.9149 0.039
79.9452 -0.020
79.9754 0.026
80.0057 0.020
80.0360 0.483
80.0663 0.425
80.0966 0.368
80.1268 -0.210
80.1571 -0.163
80.1874 0.197
80.2177 -0.068
80.2479 0.136
80.2782 -0.285
80.3085 -0.083
80.3388 -0.141
80.3691 0.218
80.3993 0.056
80.4296 0.155
80.4599 -0.111
80.4902 0.353
80.5205 -0.381
80.5507 0.344
80.5810 -0.181
80.6113 -0.185
80.6416 0.176
80.6718 -0.036
80.7021 0.481
80.7324 -0.095
80.7627 -0.045
80.7930 0.056
80.8232 0.575
80.8535 0.364
80.8838 0.779
80.9141 0.100
80.9444 -0.109
80.9746 0.306
81.0049 0.253
81.0352 -0.164
81.0655 0.304
81.0957 0.512
81.1260 0.304
81.1563 0.512
81.1866 0.356
81.2169 0.461
81.2471 0.098
81.2774 0.307
81.3077 0.569
81.3380 0.779
81.3683 1.093
81.3985 0.626
81.4288 0.368
81.4591 0.319
81.4894 0.374
81.5196 0.325
81.5499 0.744
81.5802 0.644
81.6105 0.439
81.6408 0.495
81.6710 0.343
81.7013 0.295
81.7316 0.404
81.7619 -0.112
81.7922 0.049
81.8224 -0.101
81.8527 0.217
81.8830 0.379
81.9133 0.072
81.9436 0.339
81.9738 -0.071
82.0041 -0.429
82.0344 0.203
82.0647 -0.259
82.0949 -0.162
82.1252 0.092
82.1555 0.450
82.1858 0.392
82.2161 0.022
82.2463 0.120
82.2766 0.062
82.3069 0.370
82.3372 0.000
82.3675 -0.213
82.3977 0.095
82.4280 -0.066
82.4583 -0.226
82.4886 -0.751
82.5188 0.496
82.5491 -0.549
82.5794 -0.084
82.6097 0.017
82.6400 -0.037
82.6702 -0.092
82.7005 -0.094
82.7308 0.164
82.7611 0.058
82.7914 -0.256
82.8216 0.003
82.8519 0.419
82.8822 0.106
82.9125 0.001
82.9427 0.365
82.9730 0.261
83.0033 0.157
83.0336 -0.207
83.0639 -0.311
83.0941 0.262
83.1244 0.053
83.1547 -0.154
83.1850 -0.206
83.2153 -0.153
83.2455 -0.048
83.2758 -0.203
83.3061 0.163
83.3364 0.009
83.3666 -0.146
83.3969 0.013
83.4272 -0.089
83.4575 -0.190
83.4878 0.021
83.5180 0.180
83.5483 -0.285
83.5786 -0.125
83.6089 0.556
83.6392 -0.169
83.6694 0.044
83.6997 0.153
83.7300 -0.311
83.7603 -0.101
83.7905 -0.152
83.8208 0.007
83.8511 -0.147
83.8814 0.688
83.9117 -0.194
83.9419 0.225
83.9722 0.437
84.0025 -0.237
84.0328 0.652
84.0631 0.031
84.0933 -0.069
84.1236 0.195
84.1539 -0.060
84.1842 -0.004
84.2144 -0.051
84.2447 0.423
84.2750 0.168
84.3053 0.278
84.3356 -0.081
84.3658 -0.074
84.3961 0.140
84.4264 -0.113
84.4567 -0.159
84.4870 -0.308
84.5172 0.272
84.5475 0.332
84.5778 -0.077
84.6081 0.191
84.6383 0.096
84.6686 0.156
84.6989 0.373
84.7292 0.017
84.7595 -0.130
84.7897 -0.068
84.8200 -0.215
84.8503 -0.169
84.8806 -0.071
84.9109 0.496
84.9411 -0.187
84.9714 0.537
85.0017 0.219
85.0320 0.006
85.0623 0.157
85.0925 0.101
85.1228 0.513
85.1531 -0.012
85.1834 -0.120
85.2136 -0.124
85.2439 0.446
85.2742 0.391
85.3045 -0.029
85.3348 -0.188
85.3650 0.487
85.3953 0.172
85.4256 -0.142
85.4559 -0.144
85.4862 0.011
85.5164 0.009
85.5467 0.477
85.5770 0.268
85.6073 0.528
85.6375 0.475
85.6678 -0.098
85.6981 -0.150
85.7284 -0.358
85.7587 0.789
85.7889 0.008
85.8192 -0.095
85.8495 0.011
85.8798 0.272
85.9101 0.170
85.9403 -0.193
85.9706 0.174
86.0009 0.072
86.0312 0.283
86.0614 0.026
86.0917 0.133
86.1220 0.605
86.1523 0.296
86.1826 -0.221
86.2128 -0.060
86.2431 0.152
86.2734 0.053
86.3037 0.161
86.3340 0.427
86.3642 -0.089
86.3945 0.333
86.4248 0.339
86.4551 0.501
86.4853 0.299
86.5156 -0.320
86.5459 0.104
86.5762 -0.150
86.6065 0.013
86.6367 0.125
86.6670 0.132
86.6973 -0.329
86.7276 0.096
86.7579 -0.208
86.7881 -0.115
86.8184 -0.125
86.8487 0.438
86.8790 0.637
86.9092 0.315
86.9395 0.461
86.9698 0.244
87.0001 -0.025
87.0304 0.487
87.0606 -0.042
87.0909 0.470
87.1212 -0.006
87.1515 -0.222
87.1818 0.135
87.2120 0.180
87.2423 0.121
87.2726 0.322
87.3029 0.212
87.3331 0.049
87.3634 -0.009
87.3937 -0.015
87.4240 0.188
87.4543 0.703
87.4845 0.177
87.5148 -0.140
87.5451 0.220
87.5754 0.111
87.6057 0.524
87.6359 0.103
87.6662 -0.422
87.6965 0.356
87.7268 0.040
87.7571 0.194
87.7873 0.347
87.8176 -0.072
87.8479 -0.075
87.8782 -0.233
87.9084 0.015
87.9387 0.003
87.9690 0.095
87.9993 0.343
88.0296 0.071
88.0598 0.112
88.0901 0.257
88.1204 0.194
88.1507 0.391
88.1810 0.381
88.2112 0.214
88.2415 -0.108
88.2718 -0.014
88.3021 -0.023
88.3323 0.280
88.3626 -0.042
88.3929 0.470
88.4232 0.566
88.4535 0.401
88.4837 -0.024
88.5140 -0.032
88.5443 -0.300
88.5746 0.161
88.6049 -0.002
88.6351 0.199
88.6654 0.401
88.6957 0.134
88.7260 0.127
88.7562 0.121
88.7865 0.324
88.8168 0.266
88.8471 0.105
88.8774 0.308
88.9076 0.459
88.9379 0.611
88.9682 0.554
88.9985 -0.127
89.0288 0.494
89.0590 0.855
89.0893 0.539
89.1196 1.212
89.1499 0.428
89.1801 1.154
89.2104 1.464
89.2407 1.618
89.2710 1.668
89.3013 0.781
89.3315 1.456
89.3618 0.934
89.3921 1.349
89.4224 2.234
89.4527 2.129
89.4829 1.972
89.5132 2.753
89.5435 1.295
89.5738 2.232
89.6040 1.868
89.6343 1.921
89.6646 1.505
89.6949 1.610
89.7252 1.299
89.7554 1.040
89.7857 0.990
89.8160 1.565
89.8463 1.046
89.8766 1.309
89.9068 1.052
89.9371 1.159
89.9674 0.485
89.9977 0.749
90.0279 1.117
90.0582 1.121
90.0885 0.396
90.1188 0.556
90.1491 0.769
90.1793 0.253
90.2096 0.883
90.2399 0.576
90.2702 0.009
90.3005 0.223
90.3307 0.073
90.3610 0.079
90.3913 0.294
90.4216 0.613
90.4518 0.151
90.4821 -0.050
90.5124 0.009
90.5427 -0.192
90.5730 0.025
90.6032 0.033
90.6335 0.770
90.6638 -0.055
90.6941 0.214
90.7244 0.171
90.7546 0.129
90.7849 0.190
90.8152 0.096
90.8455 -0.311
90.8758 -0.057
90.9060 0.198
90.9363 0.245
90.9666 -0.385
90.9969 -0.026
91.0271 -0.187
91.0574 0.121
91.0877 0.065
91.1180 0.686
91.1483 0.682
91.1785 0.522
91.2088 0.206
91.2391 -0.370
91.2694 0.408
91.2997 -0.219
91.3299 0.351
91.3602 0.141
91.3905 0.035
91.4208 0.397
91.4510 0.240
91.4813 -0.126
91.5116 -0.023
91.5419 0.705
91.5722 -0.337
91.6024 0.079
91.6327 0.079
91.6630 -0.389
91.6933 -0.034
91.7236 0.114
91.7538 -0.259
91.7841 -0.007
91.8144 0.037
91.8447 0.029
91.8749 0.282
91.9052 0.431
91.9355 0.060
91.9658 0.261
91.9961 -0.475
92.0263 0.196
92.0566 0.607
92.0869 0.080
92.1172 -0.447
92.1475 0.069
92.1777 -0.197
92.2080 0.215
92.2383 0.366
92.2686 0.049
92.2988 0.097
92.3291 0.301
92.3594 0.245
92.3897 -0.123
92.4200 0.864
92.4502 0.392
92.4805 0.493
92.5108 0.021
92.5411 0.175
92.5714 0.225
92.6016 0.119
92.6319 0.690
92.6622 0.689
92.6925 0.792
92.7227 0.270
92.7530 0.217
92.7833 -0.044
92.8136 -0.044
92.8439 0.893
92.8741 0.476
92.9044 0.060
92.9347 0.894
92.9650 -0.043
92.9953 0.531
93.0255 0.116
93.0558 0.430
93.0861 0.119
93.1164 0.173
93.1466 -0.345
93.1769 0.699
93.2072 0.024
93.2375 -0.441
93.2678 0.028
93.2980 -0.284
93.3283 0.498
93.3586 -0.439
93.3889 0.083
93.4192 0.345
93.4494 0.555
93.4797 -0.016
93.5100 -0.274
93.5403 0.197
93.5706 -0.008
93.6008 -0.110
93.6311 0.206
93.6614 0.522
93.6917 -0.204
93.7219 0.269
93.7522 -0.092
93.7825 -0.244
93.8128 -0.239
93.8431 -0.182
93.8733 0.448
93.9036 0.141
93.9339 -0.114
93.9642 0.308
93.9945 -0.415
94.0247 -0.260
94.0550 -0.112
94.0853 0.192
94.1156 0.132
94.1458 0.437
94.1761 -0.195
94.2064 0.111
94.2367 -0.157
94.2670 -0.059
94.2972 0.716
94.3275 0.085
94.3578 0.391
94.3881 0.802
94.4184 -0.141
94.4486 0.063
94.4789 0.110
94.5092 0.313
94.5395 -0.160
94.5697 0.513
94.6000 0.040
94.6303 1.026
94.6606 0.449
94.6909 0.759
94.7211 0.912
94.7514 0.649
94.7817 0.906
94.8120 0.175
94.8423 0.589
94.8725 0.275
94.9028 1.211
94.9331 1.209
94.9634 1.468
94.9936 1.311
95.0239 0.946
95.0542 0.789
95.0845 0.737
95.1148 1.309
95.1450 1.674
95.1753 1.987
95.2056 1.467
95.2359 0.999
95.2662 1.677
95.2964 1.366
95.3267 0.795
95.3570 1.109
95.3873 1.736
95.4175 1.634
95.4478 1.636
95.4781 1.274
95.5084 0.913
95.5387 0.916
95.5689 1.024
95.5992 1.027
95.6295 0.979
95.6598 0.931
95.6901 1.040
95.7203 1.200
95.7506 0.736
95.7809 0.533
95.8112 0.070
95.8414 0.648
95.8717 0.550
95.9020 0.503
95.9323 -0.063
95.9626 0.829
95.9928 0.054
96.0231 -0.043
96.0534 0.172
96.0837 0.179
96.1140 -0.125
96.1442 0.664
96.1745 0.203
96.2048 -0.414
96.2351 0.324
96.2653 0.333
96.2956 1.123
96.3259 0.194
96.3562 -0.161
96.3865 -0.255
96.4167 0.004
96.4470 0.211
96.4773 0.002
96.5076 0.262
96.5379 -0.311
96.5681 0.209
96.5984 -0.311
96.6287 0.575
96.6590 0.002
96.6893 -0.362
96.7195 0.212
96.7498 0.057
96.7801 0.215
96.8104 0.425
96.8406 -0.198
96.8709 -0.039
96.9012 0.224
96.9315 0.018
96.9618 0.021
96.9920 0.076
97.0223 -0.441
97.0526 -0.032
97.0829 -0.143
97.1132 -0.253
97.1434 -0.155
97.1737 0.255
97.2040 -0.271
97.2343 0.244
97.2645 0.447
97.2948 0.494
97.3251 0.177
97.3554 -0.193
97.3857 0.116
97.4159 -0.201
97.4462 0.055
97.4765 -0.365
97.5068 0.725
97.5371 0.201
97.5673 -0.062
97.5976 -0.273
97.6279 0.297
97.6582 -0.122
97.6884 0.866
97.7187 -0.595
97.7490 -0.128
97.7793 -0.285
97.8096 0.179
97.8398 0.539
97.8701 0.170
97.9004 0.218
97.9307 0.371
97.9610 -0.414
97.9912 -0.209
98.0215 0.465
98.0518 0.410
98.0821 0.408
98.1123 0.457
98.1426 -0.170
98.1729 0.818
98.2032 0.035
98.2335 0.450
98.2637 0.032
98.2940 0.344
98.3243 0.239
98.3546 0.291
98.3849 0.395
98.4151 0.447
98.4454 0.395
98.4757 0.708
98.5060 1.229
98.5362 0.866
98.5665 0.710
98.5968 0.660
98.6271 1.182
98.6574 0.246
98.6876 0.665
98.7179 0.303
98.7482 0.462
98.7785 0.673
98.8088 0.103
98.8390 0.471
98.8693 0.943
98.8996 0.582
98.9299 0.742
98.9601 0.798
98.9904 0.698
99.0207 0.391
99.0510 0.864
99.0813 0.244
99.1115 1.083
99.1418 0.255
99.1721 0.834
99.2024 0.423
99.2327 0.169
99.2629 0.436
99.2932 0.286
99.3235 -0.124
99.3538 0.300
99.3841 0.204
99.4143 -0.049
99.4446 0.167
99.4749 -0.085
99.5052 0.496
99.5354 -0.121
99.5657 -0.112
99.5960 -0.259
99.6263 0.161
99.6566 0.165
99.6868 0.273
99.7171 0.485
99.7474 -0.135
99.7777 -0.026
99.8080 0.291
99.8382 0.192
99.8685 -0.115
99.8988 0.307
99.9291 0.053
99.9593 -0.150
99.9896 0.273
100.0199 -0.085
100.0502 0.026
100.0805 -0.071
100.1107 -0.064
100.1410 0.464
100.1713 0.055
100.2016 0.220
100.2319 -0.033
100.2621 0.184
100.2924 0.297
100.3227 0.254
100.3530 -0.102
100.3832 0.012
100.4135 0.229
100.4438 -0.073
100.4741 0.197
100.5044 0.051
100.5346 0.270
100.5649 0.593
100.5952 0.291
100.6255 0.094
100.6558 -0.415
100.6860 -0.058
100.7163 0.352
100.7466 -0.227
100.7769 -0.340
100.8071 0.589
100.8374 0.580
100.8677 0.259
100.8980 0.512
100.9283 0.035
100.9585 0.184
100.9888 -0.084
101.0191 -0.143
101.0494 0.423
101.0797 -0.001
101.1099 0.201
101.1402 0.247
101.1705 -0.175
101.2008 -0.077
101.2310 -0.239
101.2613 -0.143
101.2916 0.110
101.3219 -0.054
101.3522 0.511
101.3824 0.087
101.4127 0.185
101.4430 0.282
101.4733 0.536
101.5036 -0.147
101.5338 -0.049
101.5641 -0.003
101.5944 -0.061
101.6247 0.142
101.6549 0.189
101.6852 -0.180
101.7155 0.232
101.7458 -0.033
101.7761 -0.090
101.8063 -0.250
101.8366 -0.160
101.8669 0.399
101.8972 -0.343
101.9275 0.216
101.9577 0.203
101.9880 0.086
102.0183 0.334
102.0486 0.061
102.0788 0.361
102.1091 0.297
102.1394 -0.079
102.1697 0.066
102.2000 0.263
102.2302 -0.009
102.2605 -0.071
102.2908 -0.082
102.3211 0.168
102.3514 0.783
102.3816 0.357
102.4119 0.399
102.4422 -0.027
102.4725 0.120
102.5028 0.163
102.5330 0.207
102.5633 -0.062
102.5936 -0.019
102.6239 0.130
102.6541 0.434
102.6844 -0.042
102.7147 0.159
102.7450 0.360
102.7753 0.979
102.8055 1.024
102.8358 0.601
102.8661 1.324
102.8964 0.172
102.9267 0.740
102.9569 0.109
102.9872 0.312
103.0175 0.099
103.0478 0.146
103.0780 0.506
103.1083 0.242
103.1386 0.550
103.1689 0.546
103.1992 -0.030
103.2294 -0.086
103.2597 0.432
103.2900 0.273
103.3203 -0.199
103.3506 0.684
103.3808 0.057
103.4111 0.211
103.4414 -0.103
103.4717 0.573
103.5019 0.259
103.5322 0.362
103.5625 0.205
103.5928 0.725
103.6231 -0.160
103.6533 0.256
103.6836 0.308
103.7139 -0.004
103.7442 0.309
103.7745 0.154
103.8047 1.457
103.8350 0.416
103.8653 1.460
103.8956 0.941
103.9258 1.099
103.9561 1.413
103.9864 1.260
104.0167 1.314
104.0470 0.953
104.0772 0.643
104.1075 0.647
104.1378 0.494
104.1681 1.175
104.1984 1.231
104.2286 0.975
104.2589 1.084
104.2892 1.401
104.3195 0.521
104.3497 0.474
104.3800 0.531
104.4103 0.693
104.4406 1.116
104.4709 0.184
104.5011 0.712
104.5314 0.249
104.5617 0.413
104.5920 -0.205
104.6223 0.219
104.6525 0.434
104.6828 -0.287
104.7131 0.659
104.7434 0.250
104.7736 -0.366
104.8039 0.007
104.8342 0.328
104.8645 0.129
104.8948 -0.018
104.9250 0.148
104.9553 0.471
104.9856 0.168
105.0159 0.335
105.0462 0.137
105.0764 0.252
105.1067 0.315
105.1370 -0.195
105.1673 0.286
105.1975 -0.067
105.2278 0.205
105.2581 0.374
105.2884 -0.239
105.3187 0.451
105.3489 -0.005
105.3792 0.373
105.4095 0.386
105.4398 -0.226
105.4701 -0.108
105.5003 -0.250
105.5306 -0.088
105.5609 0.491
105.5912 -0.231
105.6215 -0.225
105.6517 0.095
105.6820 -0.315
105.7123 0.161
105.7426 0.169
105.7728 -0.084
105.8031 -0.128
105.8334 -0.172
105.8637 -0.007
105.8940 -0.572
105.9242 0.054
105.9545 -0.101
105.9848 0.838
106.0151 0.006
106.0454 0.217
106.0756 -0.094
106.1059 0.169
106.1362 0.484
106.1665 -0.086
106.1967 0.490
106.2270 -0.341
106.2573 -0.389
106.2876 0.387
106.3179 -0.192
106.3481 -0.040
106.3784 -0.097
106.4087 -0.154
106.4390 0.519
106.4693 0.515
106.4995 0.146
106.5298 0.091
106.5601 0.087
106.5904 0.136
106.6206 0.394
106.6509 -0.494
106.6812 -0.028
106.7115 0.647
106.7418 0.072
106.7720 0.018
106.8023 0.173
106.8326 -0.037
106.8629 -0.194
106.8932 0.117
106.9234 0.638
106.9537 0.064
106.9840 0.481
107.0143 0.064
107.0445 0.898
107.0748 0.273
107.1051 0.326
107.1354 -0.246
107.1657 -0.244
107.1959 -0.507
107.2262 0.324
107.2565 -0.407
107.2868 -0.096
107.3171 0.059
107.3473 0.214
107.3776 0.109
107.4079 0.056
107.4382 0.055
107.4684 0.420
107.4987 -0.205
107.5290 0.264
107.5593 0.056
107.5896 -0.048
107.6198 0.109
107.6501 0.267
107.6804 0.112
107.7107 0.009
107.7410 -0.145
107.7712 0.482
107.8015 -0.558
107.8318 0.018
107.8621 -0.084
107.8923 -0.133
107.9226 0.183
107.9529 0.186
107.9832 -0.122
108.0135 0.454
108.0437 -0.010
108.0740 0.307
108.1043 0.728
108.1346 0.212
108.1649 0.217
108.1951 0.014
108.2254 0.176
108.2557 0.233
108.2860 0.187
108.3163 0.194
108.3465 -0.165
108.3768 -0.054
108.4071 0.318
108.4374 -0.092
108.4676 0.124
108.4979 -0.337
108.5282 -0.086
108.5585 0.686
108.5888 0.000
108.6190 0.512
108.6493 0.035
108.6796 0.235
108.7099 -0.085
108.7402 -0.041
108.7704 0.212
108.8007 0.101
108.8310 0.198
108.8613 -0.121
108.8915 0.133
108.9218 -0.134
108.9521 -0.244
108.9824 0.111
109.0127 -0.055
109.0429 0.144
109.0732 -0.021
109.1035 -0.290
109.1338 0.379
109.1641 0.162
109.1943 0.102
109.2246 0.303
109.2549 0.243
109.2852 0.080
109.3154 -0.344
109.3457 0.327
109.3760 0.164
109.4063 -0.103
109.4366 0.099
109.4668 0.614
109.4971 0.296
109.5274 0.551
109.5577 -0.079
109.5880 0.229
109.6182 0.328
109.6485 0.480
109.6788 -0.306
109.7091 0.159
109.7393 0.208
109.7696 -0.317
109.7999 0.149
109.8302 0.458
109.8605 0.143
109.8907 -0.120
109.9210 0.398
109.9513 0.188
109.9816 0.082
110.0119 0.184
110.0421 0.287
110.0724 -0.027
110.1027 0.337
110.1330 0.544
110.1632 0.648
110.1935 0.596
110.2238 0.856
110.2541 0.804
110.2844 1.065
110.3146 0.336
110.3449 0.285
110.3752 0.338
110.4055 0.704
110.4358 0.081
110.4660 0.239
110.4963 0.501
110.5266 0.504
110.5569 0.246
110.5871 -0.168
110.6174 0.877
110.6477 0.463
110.6780 0.414
110.7083 0.158
110.7385 0.630
110.7688 0.322
110.7991 0.118
110.8294 -0.034
110.8597 0.232
110.8899 -0.128
110.9202 0.242
110.9505 0.456
110.9808 0.462
111.0110 0.103
111.0413 -0.255
111.0716 0.064
111.1019 0.174
111.1322 -0.287
111.1624 0.345
111.1927 0.612
111.2230 0.099
111.2533 0.263
111.2836 0.271
111.3138 0.071
111.3441 0.288
111.3744 0.089
111.4047 -0.215
111.4350 0.263
111.4652 -0.196
111.4955 0.178
111.5258 0.188
111.5561 0.459
111.5863 0.052
111.6166 0.219
111.6469 -0.134
111.6772 0.450
111.7075 0.878
111.7377 0.889
111.7680 0.068
111.7983 -0.233
111.8286 -0.183
111.8589 0.649
111.8891 -0.134
111.9194 -0.187
111.9497 0.437
111.9800 0.748
112.0102 -0.034
112.0405 -0.034
112.0708 0.279
112.1011 0.070
112.1314 0.071
112.1616 0.488
112.1919 0.332
112.2222 0.542
112.2525 0.439
112.2828 0.180
112.3130 -0.183
112.3433 -0.233
112.3736 0.019
112.4039 0.063
112.4341 0.212
112.4644 0.777
112.4947 0.093
112.5250 -0.227
112.5553 0.131
112.5855 -0.084
112.6158 0.326
112.6461 0.372
112.6764 0.105
112.7067 -0.161
112.7369 0.407
112.7672 -0.120
112.7975 0.084
112.8278 -0.077
112.8580 -0.030
112.8883 0.070
112.9186 0.483
112.9489 0.114
112.9792 -0.046
113.0094 0.107
113.0397 -0.104
113.0700 -0.212
113.1003 0.150
113.1306 0.304
113.1608 -0.219
113.1911 0.091
113.2214 -0.275
113.2517 0.349
113.2819 0.087
113.3122 -0.435
113.3425 0.085
113.3728 -0.072
113.4031 -0.229
113.4333 0.032
113.4636 0.084
113.4939 -0.072
113.5242 -0.176
113.5545 -0.383
113.5847 0.607
113.6150 -0.485
113.6453 0.089
113.6756 0.351
113.7058 0.197
113.7361 -0.322
113.7664 0.097
113.7967 -0.369
113.8270 0.207
113.8572 0.418
113.8875 -0.047
113.9178 0.060
113.9481 -0.040
113.9784 -0.244
114.0086 -0.047
114.0389 -0.110
114.0692 0.140
114.0995 -0.078
114.1298 0.225
114.1600 0.111
114.1903 0.205
114.2206 0.561
114.2509 0.552
114.2811 0.335
114.3114 -0.299
114.3417 -0.255
114.3720 0.100
114.4023 -0.065
114.4325 0.186
114.4628 0.698
114.4931 -0.248
114.5234 0.213
114.5537 -0.056
114.5839 0.457
114.6142 -0.540
114.6445 0.494
114.6748 -0.190
114.7050 0.533
114.7353 0.213
114.7656 -0.158
114.7959 0.253
114.8262 0.039
114.8564 0.137
114.8867 -0.181
114.9170 0.335
114.9473 0.382
114.9776 -0.092
115.0078 0.164
115.0381 0.160
115.0684 0.052
115.0987 -0.213
115.1289 0.252
115.1592 -0.220
115.1895 0.506
115.2198 -0.174
115.2501 -0.228
115.2803 0.186
115.3106 -0.337
115.3409 -0.137
115.3712 0.167
115.4015 0.315
115.4317 0.047
115.4620 0.352
115.4923 -0.124
115.5226 0.493
115.5528 -0.034
115.5831 0.219
115.6134 0.630
115.6437 0.884
115.6740 0.149
115.7042 0.195
115.7345 0.867
115.7648 0.601
115.7951 1.325
115.8254 0.331
115.8556 1.055
115.8859 0.582
115.9162 1.151
115.9465 0.939
115.9767 0.987
116.0070 0.880
116.0373 0.929
116.0676 0.926
116.0979 1.652
116.1281 1.337
116.1584 1.231
116.1887 0.968
116.2190 1.175
116.2493 1.173
116.2795 1.432
116.3098 1.119
116.3401 1.378
116.3704 1.065
116.4006 1.065
116.4309 0.804
116.4612 1.273
116.4915 1.221
116.5218 0.336
116.5520 1.171
116.5823 1.432
116.6126 0.392
116.6429 0.133
116.6732 0.916
116.7034 0.761
116.7337 0.659
116.7640 0.349
116.7943 0.404
116.8245 0.407
116.8548 0.931
116.8851 0.205
116.9154 0.781
116.9457 0.473
116.9759 0.789
117.0062 0.272
117.0365 0.902
117.0668 0.386
117.0971 0.443
117.1273 0.604
117.1576 0.349
117.1879 0.199
117.2182 -0.056
117.2485 0.263
117.2787 0.477
117.3090 0.692
117.3393 -0.395
117.3696 0.602
117.3998 -0.172
117.4301 0.200
117.4604 0.051
117.4907 0.007
117.5210 -0.505
117.5512 0.180
117.5815 0.449
117.6118 -0.063
117.6421 -0.054
117.6724 -0.148
117.7026 0.174
117.7329 -0.337
117.7632 -0.124
117.7935 0.142
117.8237 0.460
117.8540 -0.107
117.8843 -0.257
117.9146 0.374
117.9449 0.120
117.9751 -0.290
118.0054 -0.022
118.0357 0.089
118.0660 0.149
118.0963 0.000
118.1265 0.164
118.1568 -0.140
118.1871 -0.028
118.2174 0.085
118.2476 -0.219
118.2779 0.051
118.3082 0.581
118.3385 -0.087
118.3688 -0.441
118.3990 0.136
118.4293 -0.485
118.4596 0.406
118.4899 -0.319
118.5202 0.051
118.5504 0.161
118.5807 0.062
118.6110 -0.244
118.6413 -0.030
118.6715 0.185
118.7018 -0.121
118.7321 0.511
118.7624 -0.107
118.7927 0.265
118.8229 0.221
118.8532 -0.032
118.8835 0.549
118.9138 -0.276
118.9441 0.305
118.9743 0.418
119.0046 -0.042
119.0349 0.384
119.0652 0.133
119.0954 0.455
119.1257 0.153
119.1560 0.371
119.1863 0.225
119.2166 -0.233
119.2468 -0.233
119.2771 0.182
119.3074 0.180
119.3377 0.596
119.3680 0.595
119.3982 0.177
119.4285 0.385
119.4588 0.176
119.4891 0.072
119.5193 0.384
119.5496 0.228
119.5799 0.437
119.6102 0.021
119.6405 0.439
119.6707 0.440
119.7010 0.025
119.7313 0.027
119.7616 0.341
119.7919 0.187
119.8221 0.085
119.8524 -0.277
119.8827 0.455
119.9130 0.354
119.9433 0.097
119.9735 -0.004
120.0038 0.000
