'Id: "" Comment: "" Operator: "Lab Manager" Anode: "Cu" Scantype: "Locked Coupled" TimePerStep: "19.2" X: "9999" Y: "9999" Z: "9999" 
10.0015 0.000
10.0318 11.686
10.0620 14.205
10.0923 25.265
10.1226 23.358
10.1529 30.252
10.1832 32.303
10.2134 37.478
10.2437 49.113
10.2740 49.184
10.3043 53.423
10.3346 57.297
10.3648 61.119
10.3951 58.848
10.4254 62.305
10.4557 63.055
10.4859 60.784
10.5162 60.231
10.5465 60.408
10.5768 64.752
10.6071 53.471
10.6373 60.835
10.6676 56.533
10.6979 51.711
10.7282 51.680
10.7585 44.618
10.7887 43.025
10.8190 40.546
10.8493 39.110
10.8796 40.225
10.9098 31.341
10.9401 31.832
10.9704 29.145
11.0007 28.386
11.0310 24.450
11.0612 21.139
11.0915 17.203
11.1218 16.028
11.1521 11.884
11.1824 5.500
11.2126 1.200
11.2429 1.848
11.2732 0.778
11.3035 4.238
11.3337 -1.363
11.3640 -0.507
11.3943 -1.160
11.4246 1.051
11.4549 -1.113
11.4851 -1.818
11.5154 1.435
11.5457 -1.979
11.5760 -1.650
11.6063 -0.749
11.6365 -1.618
11.6668 -0.438
11.6971 -1.030
11.7274 0.931
11.7577 3.049
11.7879 -2.490
11.8182 1.398
11.8485 -3.255
11.8788 -1.456
11.9090 -1.719
11.9393 1.492
11.9696 -2.069
11.9999 -0.942
12.0302 -0.700
12.0604 -0.822
12.0907 -1.153
12.1210 -2.682
12.1513 1.029
12.1816 -0.365
12.2118 2.513
12.2421 -0.599
12.2724 -0.639
12.3027 1.354
12.3329 -1.185
12.3632 -1.536
12.3935 0.995
12.4238 1.756
12.4541 1.423
12.4843 -2.243
12.5146 -1.169
12.5449 -0.560
12.5752 -1.357
12.6055 0.868
12.6357 -1.283
12.6660 -0.204
12.6963 -0.376
12.7266 -2.682
12.7568 1.001
12.7871 -0.108
12.8174 -0.851
12.8477 0.332
12.8780 -1.089
12.9082 -0.483
12.9385 0.176
12.9688 0.678
12.9991 -0.174
13.0294 -0.141
13.0596 -0.836
13.0899 0.031
13.1202 1.992
13.1505 -0.422
13.1807 0.497
13.2110 -0.615
13.2413 -0.476
13.2716 0.339
13.3019 -1.605
13.3321 0.669
13.3624 -0.651
13.3927 -1.033
13.4230 0.006
13.4533 -0.309
13.4835 0.679
13.5138 -0.938
13.5441 -0.784
13.5744 -0.943
13.6046 0.566
13.6349 1.084
13.6652 -1.157
13.6955 1.237
13.7258 0.923
13.7560 -0.641
13.7863 -0.278
13.8166 -0.436
13.8469 -0.385
13.8772 0.551
13.9074 -0.960
13.9377 0.758
13.9680 1.330
13.9983 0.600
14.0285 -1.067
14.0588 -0.598
14.0891 0.705
14.1194 -0.127
14.1497 1.020
14.1799 -1.426
14.2102 2.117
14.2405 2.587
14.2708 -1.109
14.3011 1.236
14.3313 0.978
14.3616 -0.479
14.3919 -0.477
14.4222 0.619
14.4524 -0.160
14.4827 2.447
14.5130 0.574
14.5433 1.671
14.5736 -0.618
14.6038 2.041
14.6341 -1.186
14.6644 1.838
14.6947 0.747
14.7250 -0.135
14.7552 1.275
14.7855 3.205
14.8158 1.073
14.8461 2.795
14.8764 2.903
14.9066 0.303
14.9369 2.338
14.9672 1.040
14.9975 2.867
15.0277 1.308
15.0580 1.625
15.0883 2.932
15.1186 2.311
15.1489 2.941
15.1791 6.539
15.2094 1.648
15.2397 3.893
15.2700 4.470
15.3003 3.590
15.3305 3.387
15.3608 2.507
15.3911 3.293
15.4214 5.226
15.4516 5.284
15.4819 3.414
15.5122 4.253
15.5425 4.988
15.5728 3.588
15.6030 3.959
15.6333 3.132
15.6636 3.294
15.6939 3.040
15.7242 3.620
15.7544 4.407
15.7847 4.727
15.8150 5.046
15.8453 3.647
15.8755 4.643
15.9058 5.119
15.9361 5.907
15.9664 3.675
15.9967 2.016
16.0269 3.586
16.0572 3.333
16.0875 3.810
16.1178 4.078
16.1481 2.002
16.1783 2.219
16.2086 2.123
16.2389 2.495
16.2692 3.441
16.2994 0.168
16.3297 2.156
16.3600 1.488
16.3903 3.736
16.4206 1.245
16.4508 1.827
16.4811 2.304
16.5114 3.303
16.5417 2.323
16.5720 2.228
16.6022 1.873
16.6325 0.528
16.6628 1.371
16.6931 0.704
16.7233 0.557
16.7536 0.150
16.7839 -0.465
16.8142 1.941
16.8445 -0.444
16.8747 0.295
16.9050 0.462
16.9353 0.316
16.9656 0.275
16.9959 0.077
17.0261 -0.641
17.0564 0.880
17.0867 1.672
17.1170 -0.660
17.1472 0.080
17.1775 0.092
17.2078 -0.262
17.2381 0.219
17.2684 -0.915
17.2986 1.128
17.3289 1.816
17.3592 2.766
17.3895 -1.128
17.4198 0.186
17.4500 -0.427
17.4803 -0.727
17.5106 -1.079
17.5409 1.173
17.5712 0.404
17.6014 -0.729
17.6317 0.690
17.6620 0.703
17.6923 -0.273
17.7225 -0.937
17.7528 0.306
17.7831 0.716
17.8134 -0.384
17.8437 2.579
17.8739 1.322
17.9042 1.837
17.9345 2.664
17.9648 -0.467
17.9951 1.767
18.0253 0.928
18.0556 1.131
18.0859 2.271
18.1162 1.901
18.1464 2.104
18.1767 1.369
18.2070 1.729
18.2373 0.786
18.2676 2.969
18.2978 2.756
18.3281 4.157
18.3584 1.757
18.3887 2.169
18.4190 2.060
18.4492 3.775
18.4795 2.260
18.5098 3.766
18.5401 3.085
18.5703 3.758
18.6006 4.588
18.6309 2.761
18.6612 4.060
18.6915 4.733
18.7217 3.376
18.7520 4.310
18.7823 6.077
18.8126 4.095
18.8429 4.352
18.8731 4.350
18.9034 3.826
18.9337 4.865
18.9640 4.602
18.9942 2.933
19.0245 3.347
19.0548 3.084
19.0851 2.249
19.1154 2.559
19.1456 2.505
19.1759 2.503
19.2062 2.814
19.2365 2.343
19.2668 1.664
19.2970 2.965
19.3273 2.391
19.3576 1.764
19.3879 2.336
19.4181 0.929
19.4484 1.553
19.4787 1.031
19.5090 0.718
19.5393 1.759
19.5695 2.019
19.5998 0.091
19.6301 0.091
19.6604 1.132
19.6907 1.444
19.7209 0.871
19.7512 -0.066
19.7815 1.444
19.8118 0.976
19.8420 0.299
19.8723 0.976
19.9026 -0.429
19.9329 -0.689
19.9632 1.395
19.9934 -0.896
20.0237 -0.583
20.0540 -0.634
20.0843 0.453
20.1146 0.810
20.1448 0.386
20.1751 -0.663
20.2054 -0.097
20.2357 -0.781
20.2659 0.127
20.2962 0.253
20.3265 1.265
20.3568 0.818
20.3871 -0.045
20.4173 0.082
20.4476 0.469
20.4779 0.075
20.5082 -0.215
20.5385 0.746
20.5687 0.404
20.5990 -0.041
20.6293 -0.018
20.6596 1.724
20.6899 -0.753
20.7201 0.156
20.7504 0.023
20.7807 -0.265
20.8110 -0.242
20.8412 0.095
20.8715 1.161
20.9018 0.351
20.9321 -0.718
20.9624 -0.069
20.9926 0.841
21.0229 -0.333
21.0532 0.161
21.0835 -0.335
21.1138 1.304
21.1440 0.392
21.1743 0.729
21.2046 1.067
21.2349 0.415
21.2651 1.430
21.2954 1.351
21.3257 -0.030
21.3560 0.256
21.3863 0.074
21.4165 1.037
21.4468 -0.031
21.4771 0.151
21.5074 0.959
21.5377 -0.265
21.5679 -0.343
21.5982 -0.160
21.6285 -0.342
21.6588 -0.211
21.6890 0.493
21.7193 0.624
21.7496 -0.183
21.7799 -0.572
21.8102 0.224
21.8404 -0.335
21.8707 0.722
21.9010 -0.045
21.9313 0.335
21.9616 0.194
21.9918 -0.781
22.0221 -0.155
22.0524 -0.414
22.0827 -0.048
22.1129 0.995
22.1432 1.308
22.1735 0.268
22.2038 -0.043
22.2341 -0.093
22.2643 -0.196
22.2946 -0.506
22.3249 -0.296
22.3552 0.748
22.3855 -1.281
22.4157 -0.185
22.4460 -0.183
22.4763 1.278
22.5066 -0.074
22.5368 1.335
22.5671 1.025
22.5974 0.820
22.6277 -0.479
22.6580 0.826
22.6882 0.152
22.7185 -0.053
22.7488 1.409
22.7791 -0.515
22.8094 -0.563
22.8396 -0.161
22.8699 0.137
22.9002 1.008
22.9305 0.160
22.9607 -0.479
22.9910 0.705
23.0213 0.327
23.0516 0.469
23.0819 1.133
23.1121 0.286
23.1424 0.637
23.1727 0.780
23.2030 0.610
23.2333 0.441
23.2635 1.209
23.2938 1.508
23.3241 1.964
23.3544 2.368
23.3846 1.470
23.4149 1.718
23.4452 2.070
23.4755 2.057
23.5058 0.535
23.5360 0.522
23.5663 1.864
23.5966 1.748
23.6269 1.632
23.6572 2.350
23.6874 0.671
23.7177 1.597
23.7480 2.159
23.7783 2.199
23.8086 2.136
23.8388 1.916
23.8691 2.582
23.8994 2.832
23.9297 2.508
23.9599 2.081
23.9902 2.487
24.0205 2.008
24.0508 3.664
24.0811 1.622
24.1113 2.185
24.1416 2.852
24.1719 2.477
24.2022 2.103
24.2325 2.249
24.2627 2.916
24.2930 3.271
24.3233 4.980
24.3536 4.658
24.3838 2.201
24.4141 4.119
24.4444 3.485
24.4747 4.674
24.5050 3.831
24.5352 5.229
24.5655 4.595
24.5958 3.701
24.6261 5.463
24.6564 2.694
24.6866 4.613
24.7169 3.719
24.7472 3.920
24.7775 3.703
24.8077 4.216
24.8380 5.771
24.8683 4.877
24.8986 4.818
24.9289 5.644
24.9591 5.532
24.9894 6.306
25.0197 6.351
25.0500 8.896
25.0803 5.764
25.1105 6.642
25.1408 5.906
25.1711 7.149
25.2014 6.778
25.2316 8.022
25.2619 6.088
25.2922 7.175
25.3225 7.273
25.3528 6.798
25.3830 7.990
25.4133 7.568
25.4436 8.447
25.4739 9.379
25.5042 5.676
25.5344 7.858
25.5647 8.790
25.5950 8.211
25.6253 8.102
25.6555 9.816
25.6858 7.884
25.7161 7.254
25.7464 9.228
25.7767 8.286
25.8069 9.167
25.8372 8.537
25.8675 9.314
25.8978 9.153
25.9281 9.305
25.9583 9.301
25.9886 8.672
26.0189 11.533
26.0492 10.539
26.0794 8.192
26.1097 10.845
26.1400 9.122
26.1703 9.015
26.2006 11.043
26.2308 10.675
26.2611 11.349
26.2914 10.148
26.3217 11.447
26.3520 11.080
26.3822 10.400
26.4125 11.804
26.4428 11.385
26.4731 10.861
26.5034 10.599
26.5336 10.336
26.5639 11.115
26.5942 12.884
26.6245 11.736
26.6547 10.328
26.6850 10.274
26.7153 13.085
26.7456 10.740
26.7759 11.833
26.8061 13.342
26.8364 14.278
26.8667 12.246
26.8970 12.870
26.9273 12.921
26.9575 14.274
26.9878 12.294
27.0181 12.606
27.0484 13.387
27.0786 13.387
27.1089 13.855
27.1392 13.334
27.1695 15.209
27.1998 14.428
27.2300 13.647
27.2603 14.116
27.2906 14.324
27.3209 16.408
27.3512 15.419
27.3814 14.691
27.4117 15.941
27.4420 14.901
27.4723 13.704
27.5025 14.850
27.5328 13.914
27.5631 14.957
27.5934 14.125
27.6237 15.064
27.6539 14.805
27.6842 15.692
27.7145 12.308
27.7448 14.967
27.7751 16.114
27.8053 15.127
27.8356 15.546
27.8659 12.996
27.8962 12.581
27.9264 12.636
27.9567 14.409
27.9870 13.162
28.0173 13.113
28.0476 14.261
28.0778 13.119
28.1081 14.059
28.1384 11.406
28.1687 14.534
28.1990 10.475
28.2292 12.822
28.2595 11.263
28.2898 11.059
28.3201 10.906
28.3503 10.806
28.3806 11.852
28.4109 11.439
28.4412 10.714
28.4715 11.031
28.5017 10.306
28.5320 10.050
28.5623 8.961
28.5926 9.330
28.6229 9.699
28.6531 8.663
28.6834 9.449
28.7137 8.725
28.7440 7.220
28.7742 8.475
28.8045 6.970
28.8348 7.027
28.8651 8.908
28.8954 6.622
28.9256 8.347
28.9559 8.196
28.9862 5.806
29.0165 5.344
29.0468 5.142
29.0770 6.137
29.1073 6.092
29.1376 5.213
29.1679 5.688
29.1981 6.789
29.2284 4.295
29.2587 6.021
29.2890 4.205
29.3193 3.118
29.3495 3.334
29.3798 4.279
29.4101 3.817
29.4404 4.346
29.4707 3.989
29.5009 3.944
29.5312 2.390
29.5615 1.721
29.5918 1.572
29.6221 3.820
29.6523 3.516
29.6826 2.534
29.7129 2.855
29.7432 2.916
29.7734 2.977
29.8037 2.621
29.8340 1.484
29.8643 2.691
29.8946 1.762
29.9248 2.240
29.9551 2.874
29.9854 1.477
30.0157 2.060
30.0460 1.028
30.0762 1.975
30.1065 1.724
30.1368 1.994
30.1671 2.056
30.1973 1.493
30.2276 0.826
30.2579 -0.101
30.2882 0.222
30.3185 0.649
30.3487 1.805
30.3790 1.035
30.4093 1.618
30.4396 -0.089
30.4699 0.494
30.5001 -0.120
30.5304 0.152
30.5607 -0.306
30.5910 -0.086
30.6212 2.842
30.6515 0.979
30.6818 -0.520
30.7121 0.013
30.7424 -1.017
30.7726 0.401
30.8029 0.517
30.8332 -0.460
30.8635 1.323
30.8938 -0.592
30.9240 -1.100
30.9543 0.891
30.9846 0.383
31.0149 0.084
31.0451 0.096
31.0754 -0.203
31.1057 -0.398
31.1360 0.917
31.1663 -0.007
31.1965 0.839
31.2268 0.228
31.2571 -0.904
31.2874 1.193
31.3177 0.373
31.3479 0.231
31.3782 0.609
31.4085 0.623
31.4388 0.221
31.4690 -1.067
31.4993 -0.173
31.5296 -0.113
31.5599 -0.209
31.5902 0.893
31.6204 -0.296
31.6507 0.338
31.6810 -1.320
31.7113 0.668
31.7416 -0.573
31.7718 0.165
31.8021 -1.336
31.8324 0.705
31.8627 1.183
31.8929 -0.005
31.9232 0.890
31.9535 -0.507
31.9838 0.180
32.0141 0.242
32.0443 -0.217
32.0746 0.262
32.1049 0.012
32.1352 -0.394
32.1655 0.033
32.1957 -0.269
32.2260 0.315
32.2563 -0.352
32.2866 0.232
32.3169 0.764
32.3471 0.150
32.3774 0.213
32.4077 0.224
32.4380 0.079
32.4682 1.028
32.4985 0.779
32.5288 1.156
32.5591 2.053
32.5894 2.794
32.6196 1.608
32.6499 3.339
32.6802 3.038
32.7105 2.217
32.7408 4.261
32.7710 3.232
32.8013 2.828
32.8316 1.434
32.8619 1.551
32.8921 0.470
32.9224 1.785
32.9527 2.788
32.9830 2.020
33.0133 1.408
33.0435 2.150
33.0738 1.851
33.1041 0.980
33.1344 0.212
33.1647 1.528
33.1949 1.125
33.2252 0.566
33.2555 0.372
33.2858 -0.656
33.3160 0.296
33.3463 0.050
33.3766 -0.196
33.4069 -0.025
33.4372 0.406
33.4674 0.890
33.4977 -0.137
33.5280 -0.382
33.5583 1.039
33.5886 0.325
33.6188 1.226
33.6491 -0.061
33.6794 0.840
33.7097 -0.134
33.7399 -0.743
33.7702 0.627
33.8005 0.382
33.8308 -0.123
33.8611 -0.107
33.8913 0.587
33.9216 0.134
33.9519 0.932
33.9822 -0.145
34.0125 0.861
34.0427 0.461
34.0730 1.519
34.1033 0.963
34.1336 0.147
34.1638 -0.513
34.1941 -0.200
34.2244 0.113
34.2547 0.686
34.2850 0.531
34.3152 1.677
34.3455 0.845
34.3758 0.898
34.4061 0.587
34.4364 0.223
34.4666 1.110
34.4969 1.528
34.5272 0.904
34.5575 -0.032
34.5877 1.012
34.6180 1.118
34.6483 -0.182
34.6786 1.434
34.7089 1.176
34.7391 1.230
34.7694 1.180
34.7997 -0.119
34.8300 0.300
34.8603 0.511
34.8905 0.878
34.9208 0.881
34.9511 0.727
34.9814 0.782
35.0116 0.421
35.0419 0.528
35.0722 1.000
35.1025 0.900
35.1328 -0.243
35.1630 0.750
35.1933 1.275
35.2236 0.550
35.2539 1.074
35.2842 -0.067
35.3144 0.874
35.3447 1.087
35.3750 0.049
35.4053 1.720
35.4356 1.256
35.4658 1.261
35.4961 0.953
35.5264 1.947
35.5567 1.327
35.5869 0.655
35.6172 0.765
35.6475 0.509
35.6778 0.827
35.7081 0.780
35.7383 1.984
35.7686 1.365
35.7989 1.006
35.8292 1.532
35.8595 2.007
35.8897 1.961
35.9200 1.498
35.9503 0.411
35.9806 1.355
36.0108 2.455
36.0411 0.743
36.0714 1.010
36.1017 1.433
36.1320 1.961
36.1622 1.186
36.1925 1.298
36.2228 1.826
36.2531 1.885
36.2834 0.486
36.3136 0.962
36.3439 0.241
36.3742 0.665
36.4045 2.131
36.4347 0.889
36.4650 0.688
36.4953 0.853
36.5256 0.861
36.5559 0.036
36.5861 1.450
36.6164 0.678
36.6467 1.155
36.6770 0.486
36.7073 1.016
36.7375 1.598
36.7678 0.409
36.7981 0.522
36.8284 1.208
36.8586 -0.553
36.8889 0.289
36.9192 1.236
36.9495 -0.108
36.9798 1.881
37.0100 1.213
37.0403 0.077
37.0706 0.973
37.1009 1.191
37.1312 2.087
37.1614 0.534
37.1917 0.389
37.2220 1.545
37.2523 0.462
37.2825 -0.048
37.3128 -0.038
37.3431 0.911
37.3734 -0.693
37.4037 0.829
37.4339 0.423
37.4642 -0.451
37.4945 0.342
37.5248 0.718
37.5551 0.625
37.5853 0.741
37.6156 0.024
37.6459 0.452
37.6762 1.193
37.7064 0.112
37.7367 0.436
37.7670 0.240
37.7973 0.253
37.8276 0.682
37.8578 -0.295
37.8881 0.863
37.9184 0.095
37.9487 0.993
37.9790 0.850
38.0092 0.655
38.0395 0.668
38.0698 0.473
38.1001 0.695
38.1304 0.812
38.1606 0.461
38.1909 1.308
38.2212 0.489
38.2515 -0.122
38.2817 0.725
38.3120 0.843
38.3423 0.493
38.3726 -0.587
38.4029 0.365
38.4331 1.005
38.4634 -0.178
38.4937 0.982
38.5240 -0.149
38.5543 0.126
38.5845 0.246
38.6148 0.469
38.6451 0.484
38.6754 0.239
38.7056 0.098
38.7359 0.010
38.7662 0.702
38.7965 0.614
38.8268 -0.256
38.8570 -0.448
38.8873 -0.276
38.9176 -0.157
38.9479 0.692
38.9782 0.916
39.0084 0.099
39.0387 0.740
39.0690 0.027
39.0993 -0.791
39.1295 0.788
39.1598 -0.446
39.1901 0.508
39.2204 0.264
39.2507 0.281
39.2809 0.662
39.3112 -0.415
39.3415 -0.137
39.3718 -0.433
39.4021 0.145
39.4323 -0.007
39.4626 0.311
39.4929 0.576
39.5232 0.737
39.5534 -0.872
39.5837 0.071
39.6140 -0.132
39.6443 -0.127
39.6746 -0.486
39.7048 0.666
39.7351 -0.370
39.7654 0.157
39.7957 -0.515
39.8260 0.117
39.8562 -0.554
39.8865 0.494
39.9168 -0.333
39.9471 -0.796
39.9773 0.930
40.0076 0.363
40.0379 -0.099
40.0682 0.533
40.0985 0.384
40.1287 -0.338
40.1590 0.190
40.1893 0.614
40.2196 -0.681
40.2499 -0.257
40.2801 -0.041
40.3104 -0.241
40.3407 -0.963
40.3710 0.288
40.4012 -0.128
40.4315 0.081
40.4618 -0.335
40.4921 0.812
40.5224 0.500
40.5526 -0.749
40.5829 -0.018
40.6132 0.191
40.6435 -0.432
40.6738 0.663
40.7040 -0.690
40.7343 0.718
40.7646 0.303
40.7949 0.461
40.8251 -0.005
40.8554 -0.784
40.8857 0.937
40.9160 0.731
40.9463 1.150
40.9765 -0.046
41.0068 0.374
41.0371 0.064
41.0674 0.171
41.0977 -0.243
41.1279 0.697
41.1582 0.753
41.1885 0.548
41.2188 0.343
41.2491 0.450
41.2793 1.027
41.3096 0.509
41.3399 1.034
41.3702 -0.004
41.4004 -0.417
41.4307 -0.260
41.4610 1.304
41.4913 -0.727
41.5216 0.056
41.5518 -0.360
41.5821 0.996
41.6124 1.257
41.6427 0.894
41.6730 0.271
41.7032 1.366
41.7335 0.899
41.7638 -0.297
41.7941 0.539
41.8243 1.218
41.8546 0.387
41.8849 0.337
41.9152 0.235
41.9455 1.123
41.9757 -0.437
42.0060 1.128
42.0363 0.454
42.0666 1.238
42.0969 0.876
42.1271 0.358
42.1574 0.622
42.1877 1.250
42.2180 0.160
42.2482 -0.566
42.2785 0.063
42.3088 0.744
42.3391 0.018
42.3694 -0.134
42.3996 -0.026
42.4299 0.603
42.4602 0.087
42.4905 -0.222
42.5208 1.033
42.5510 0.621
42.5813 -0.104
42.6116 -0.047
42.6419 0.739
42.6721 -0.402
42.7024 -0.449
42.7327 0.702
42.7630 0.446
42.7933 -0.225
42.8235 -0.272
42.8538 -0.162
42.8841 0.000
42.9144 -0.255
42.9447 0.480
42.9749 0.069
43.0052 -0.237
43.0355 0.342
43.0658 -0.329
43.0960 0.406
43.1263 -0.004
43.1566 0.211
43.1869 -0.199
43.2172 -0.036
43.2474 0.179
43.2777 0.394
43.3080 0.245
43.3383 -0.113
43.3686 -0.210
43.3988 -0.098
43.4291 0.118
43.4594 0.177
43.4897 0.810
43.5199 0.661
43.5502 0.513
43.5805 0.104
43.6108 0.060
43.6411 0.225
43.6713 -0.392
43.7016 0.241
43.7319 0.250
43.7622 0.102
43.7925 -0.515
43.8227 -0.037
43.8530 -0.289
43.8833 -0.280
43.9136 -0.792
43.9439 0.363
43.9741 -0.252
44.0044 0.226
44.0347 -1.171
44.0650 -0.183
44.0952 0.129
44.1255 0.128
44.1558 -0.498
44.1861 0.178
44.2164 -0.031
44.2466 0.489
44.2769 0.593
44.3072 -0.085
44.3375 0.280
44.3678 -0.033
44.3980 0.175
44.4283 0.071
44.4586 0.123
44.4889 0.176
44.5191 1.322
44.5494 0.280
44.5797 0.229
44.6100 -0.031
44.6403 0.282
44.6705 -0.290
44.7008 -0.237
44.7311 -0.027
44.7614 -0.131
44.7917 -0.390
44.8219 -0.029
44.8522 -0.241
44.8825 -0.454
44.9128 0.324
44.9430 -0.721
44.9733 0.265
45.0036 -0.416
45.0339 -0.212
45.0642 1.243
45.0944 0.197
45.1247 -0.223
45.1550 0.294
45.1853 -0.178
45.2156 -0.234
45.2458 0.075
45.2761 0.228
45.3064 0.016
45.3367 0.534
45.3669 0.167
45.3972 0.320
45.4275 0.161
45.4578 0.002
45.4881 0.676
45.5183 -0.107
45.5486 -0.058
45.5789 0.357
45.6092 0.198
45.6395 0.405
45.6697 -0.014
45.7000 -0.380
45.7303 0.191
45.7606 0.501
45.7908 1.542
45.8211 0.551
45.8514 -0.128
45.8817 0.965
45.9120 -0.443
45.9422 -0.392
45.9725 0.805
46.0028 0.752
46.0331 -0.186
46.0634 0.803
46.0936 0.333
46.1239 0.437
46.1542 -0.292
46.1845 0.541
46.2147 0.436
46.2450 0.020
46.2753 0.488
46.3056 -0.241
46.3359 -0.397
46.3661 -0.397
46.3964 0.123
46.4267 0.903
46.4570 0.850
46.4873 0.120
46.5175 0.068
46.5478 0.692
46.5781 0.327
46.6084 -0.142
46.6386 0.430
46.6689 0.326
46.6992 -0.612
46.7295 0.951
46.7598 -0.299
46.7900 0.743
46.8203 0.222
46.8506 0.483
46.8809 0.223
46.9112 -0.505
46.9414 0.277
46.9717 -0.087
47.0020 0.382
47.0323 -0.189
47.0626 -0.397
47.0928 0.161
47.1231 0.459
47.1534 0.027
47.1837 -0.040
47.2139 -0.106
47.2442 0.035
47.2745 0.802
47.3048 -0.150
47.3351 0.097
47.3653 0.395
47.3956 1.058
47.4259 0.315
47.4562 0.093
47.4865 0.131
47.5167 0.170
47.5470 -0.261
47.5773 0.299
47.6076 0.442
47.6378 1.418
47.6681 0.572
47.6984 0.194
47.7287 0.962
47.7590 0.585
47.7892 1.145
47.8195 0.143
47.8498 0.339
47.8801 0.743
47.9104 0.522
47.9406 0.406
47.9709 0.342
48.0012 -0.347
48.0315 0.214
48.0617 -0.423
48.0920 -0.280
48.1223 -0.240
48.1526 0.216
48.1829 0.307
48.2131 0.295
48.2434 0.960
48.2737 -0.094
48.3040 0.623
48.3343 0.871
48.3645 0.651
48.3948 -0.507
48.4251 0.627
48.4554 0.459
48.4856 0.969
48.5159 0.697
48.5462 0.529
48.5765 0.883
48.6068 0.559
48.6370 1.121
48.6673 0.693
48.6976 0.422
48.7279 0.567
48.7582 -0.224
48.7884 0.807
48.8187 0.900
48.8490 1.203
48.8793 0.151
48.9095 2.068
48.9398 -0.078
48.9701 1.579
49.0004 0.788
49.0307 1.039
49.0609 0.248
49.0912 1.488
49.1215 1.427
49.1518 0.792
49.1821 1.356
49.2123 1.503
49.2426 1.598
49.2729 1.069
49.3032 1.945
49.3334 1.364
49.3637 1.303
49.3940 0.878
49.4243 1.286
49.4546 0.965
49.4848 1.061
49.5151 1.522
49.5454 1.149
49.5757 2.079
49.6060 1.134
49.6362 1.490
49.6665 2.212
49.6968 2.257
49.7271 2.458
49.7574 1.096
49.7876 1.401
49.8179 0.717
49.8482 1.960
49.8785 2.005
49.9087 1.842
49.9390 2.513
49.9693 1.412
49.9996 2.135
50.0299 0.931
50.0601 2.070
50.0904 2.377
50.1207 1.746
50.1510 2.677
50.1813 3.400
50.2115 1.572
50.2418 1.670
50.2721 2.758
50.3024 2.128
50.3326 2.331
50.3629 3.263
50.3932 2.633
50.4235 1.638
50.4538 1.790
50.4840 2.149
50.5143 2.457
50.5446 2.036
50.5749 2.083
50.6052 1.870
50.6354 2.387
50.6657 2.070
50.6960 1.753
50.7263 2.739
50.7565 2.839
50.7868 2.314
50.8171 2.363
50.8474 2.151
50.8777 1.731
50.9079 1.310
50.9382 2.401
50.9685 2.554
50.9988 2.238
51.0291 2.235
51.0593 2.961
51.0896 2.958
51.1199 2.695
51.1502 1.807
51.1804 1.701
51.2107 1.854
51.2410 2.737
51.2713 2.266
51.3016 2.525
51.3318 1.168
51.3621 1.792
51.3924 2.102
51.4227 2.309
51.4530 3.193
51.4832 3.347
51.5135 2.044
51.5438 1.365
51.5741 2.614
51.6043 2.040
51.6346 1.935
51.6649 2.507
51.6952 1.985
51.7255 1.880
51.7557 2.244
51.7860 2.244
51.8163 1.722
51.8466 1.462
51.8769 1.618
51.9071 1.513
51.9374 1.461
51.9677 1.930
51.9980 1.253
52.0282 0.889
52.0585 1.671
52.0888 2.192
52.1191 -0.568
52.1494 1.881
52.1796 1.621
52.2099 1.414
52.2402 2.404
52.2705 2.614
52.3008 1.156
52.3310 0.897
52.3613 1.680
52.3916 1.994
52.4219 0.329
52.4521 1.060
52.4824 1.374
52.5127 1.272
52.5430 0.388
52.5733 1.484
52.6035 1.538
52.6338 1.437
52.6641 1.335
52.6944 1.233
52.7247 0.923
52.7549 0.666
52.7852 1.293
52.8155 0.463
52.8458 1.768
52.8761 1.875
52.9063 1.254
52.9366 1.361
52.9669 -0.094
52.9972 0.222
53.0274 0.694
53.0577 0.802
53.0880 1.119
53.1183 0.862
53.1486 0.970
53.1788 0.037
53.2091 0.510
53.2394 0.879
53.2697 1.508
53.3000 0.523
53.3302 1.049
53.3605 1.574
53.3908 0.589
53.4211 1.219
53.4513 -0.182
53.4816 0.188
53.5119 1.079
53.5422 0.198
53.5725 0.725
53.6027 0.418
53.6330 0.840
53.6633 1.002
53.6936 0.122
53.7239 0.493
53.7541 1.228
53.7844 0.036
53.8147 -0.322
53.8450 1.039
53.8752 0.472
53.9055 0.947
53.9358 0.381
53.9661 0.909
53.9964 -0.178
54.0266 1.183
54.0569 0.669
54.0872 0.520
54.1175 0.163
54.1478 0.691
54.1780 0.490
54.2083 -0.075
54.2386 0.401
54.2689 0.409
54.2991 1.094
54.3294 0.789
54.3597 0.224
54.3900 0.024
54.4203 0.241
54.4505 0.614
54.4808 0.362
54.5111 0.266
54.5414 0.639
54.5717 0.179
54.6019 -0.333
54.6322 0.301
54.6625 0.988
54.6928 0.320
54.7230 0.902
54.7533 1.015
54.7836 -0.277
54.8139 0.357
54.8442 0.471
54.8744 0.950
54.9047 1.012
54.9350 0.449
54.9653 0.459
54.9956 0.104
55.0258 0.427
55.0561 0.385
55.0864 0.917
55.1167 0.719
55.1469 0.626
55.1772 0.793
55.2075 0.647
55.2378 1.127
55.2681 0.513
55.2983 1.045
55.3286 0.848
55.3589 0.078
55.3892 -0.119
55.4195 0.518
55.4497 0.269
55.4800 0.385
55.5103 0.710
55.5406 0.461
55.5709 1.202
55.6011 0.590
55.6314 1.592
55.6617 0.302
55.6920 0.991
55.7222 1.056
55.7525 0.444
55.7828 0.248
55.8131 -0.572
55.8434 -0.205
55.8736 0.787
55.9039 0.060
55.9342 0.115
55.9645 0.587
55.9948 -0.296
56.0250 0.540
56.0553 0.283
56.0856 0.182
56.1159 0.498
56.1461 0.137
56.1764 0.296
56.2067 0.144
56.2370 0.095
56.2673 0.099
56.2975 -0.105
56.3278 0.628
56.3581 0.215
56.3884 1.417
56.4187 -1.130
56.4489 0.072
56.4792 -0.080
56.5095 -0.127
56.5398 -0.070
56.5700 -0.639
56.6003 0.356
56.6306 -0.316
56.6609 0.366
56.6912 0.059
56.7214 0.116
56.7517 0.695
56.7820 0.283
56.8123 -0.388
56.8426 -0.226
56.8728 0.248
56.9031 -0.110
56.9334 0.000
56.9637 -0.150
56.9939 0.221
57.0242 -0.606
57.0545 0.442
57.0848 -0.177
57.1151 0.142
57.1453 -0.059
57.1756 0.104
57.2059 -0.410
57.2362 -0.511
57.2665 0.483
57.2967 0.018
57.3270 -0.030
57.3573 0.287
57.3876 -0.386
57.4178 -0.121
57.4481 -0.377
57.4784 -0.529
57.5087 0.518
57.5390 0.835
57.5692 -0.150
57.5995 0.168
57.6298 -0.557
57.6601 0.022
57.6904 -0.859
57.7206 0.021
57.7509 0.276
57.7812 -0.562
57.8115 0.006
57.8417 -0.208
57.8720 0.569
57.9023 0.564
57.9326 -0.431
57.9629 -0.175
57.9931 0.289
58.0234 -0.549
58.0537 -0.084
58.0840 0.016
58.1143 -0.249
58.1445 0.580
58.1748 0.472
58.2051 -0.052
58.2354 0.256
58.2656 0.878
58.2959 0.770
58.3262 0.298
58.3565 1.440
58.3868 1.125
58.4170 1.174
58.4473 0.650
58.4776 0.803
58.5079 0.696
58.5382 0.849
58.5684 -0.143
58.5987 0.636
58.6290 0.946
58.6593 0.996
58.6896 0.994
58.7198 0.366
58.7501 0.312
58.7804 0.883
58.8107 1.350
58.8409 1.713
58.8712 0.982
58.9015 0.460
58.9318 -0.375
58.9621 0.353
58.9923 -0.482
59.0226 0.090
59.0529 0.245
59.0832 0.453
59.1135 0.556
59.1437 0.608
59.1740 0.711
59.2043 0.658
59.2346 0.398
59.2648 0.710
59.2951 0.501
59.3254 -0.332
59.3557 0.762
59.3860 0.345
59.4162 0.606
59.4465 0.866
59.4768 -0.019
59.5071 0.294
59.5374 0.555
59.5676 0.139
59.5979 0.088
59.6282 0.662
59.6585 1.184
59.6887 0.924
59.7190 0.092
59.7493 0.250
59.7796 0.460
59.8099 0.409
59.8401 0.879
59.8704 -0.161
59.9007 0.831
59.9310 0.208
59.9613 -0.259
59.9915 0.472
60.0218 0.891
60.0521 0.268
60.0824 -0.719
60.1126 0.221
60.1429 1.005
60.1732 -0.086
60.2035 0.125
60.2338 0.857
60.2640 1.173
60.2943 -0.074
60.3246 0.971
60.3549 1.287
60.3852 0.561
60.4154 0.460
60.4457 -0.213
60.4760 0.832
60.5063 -0.206
60.5365 -0.410
60.5668 0.003
60.5971 -0.208
60.6274 0.570
60.6577 0.463
60.6879 0.199
60.7182 0.821
60.7485 0.246
60.7788 0.295
60.8091 1.386
60.8393 -0.439
60.8696 -0.077
60.8999 0.650
60.9302 0.752
60.9604 -0.135
60.9907 0.644
61.0210 0.798
61.0513 0.484
61.0816 0.118
61.1118 0.012
61.1421 0.219
61.1724 0.270
61.2027 0.008
61.2330 0.320
61.2632 1.100
61.2935 0.682
61.3238 0.213
61.3541 0.629
61.3844 0.940
61.4146 0.107
61.4449 0.679
61.4752 0.731
61.5055 1.147
61.5357 1.303
61.5660 0.574
61.5963 0.522
61.6266 0.314
61.6569 0.887
61.6871 0.888
61.7174 1.357
61.7477 -0.049
61.7780 0.733
61.8083 0.369
61.8385 0.735
61.8688 0.632
61.8991 0.737
61.9294 1.624
61.9596 0.375
61.9899 0.689
62.0202 1.315
62.0505 0.015
62.0808 1.058
62.1110 1.060
62.1413 0.124
62.1716 1.637
62.2019 1.170
62.2322 1.693
62.2624 1.279
62.2927 1.594
62.3230 0.554
62.3533 0.817
62.3835 1.862
62.4138 1.292
62.4441 0.670
62.4744 1.402
62.5047 1.405
62.5349 0.262
62.5652 1.359
62.5955 1.519
62.6258 1.366
62.6561 1.787
62.6863 1.634
62.7166 1.430
62.7469 1.642
62.7772 1.750
62.8074 1.806
62.8377 0.665
62.8680 1.294
62.8983 0.986
62.9286 0.938
62.9588 0.943
62.9891 1.208
63.0194 2.046
63.0497 1.687
63.0800 1.015
63.1102 1.697
63.1405 1.806
63.1708 1.551
63.2011 1.036
63.2313 1.510
63.2616 1.411
63.2919 1.625
63.3222 0.642
63.3525 1.325
63.3827 0.810
63.4130 1.337
63.4433 1.187
63.4736 1.870
63.5039 0.887
63.5341 1.883
63.5644 1.890
63.5947 1.480
63.6250 0.185
63.6552 1.494
63.6855 1.345
63.7158 1.352
63.7461 1.515
63.7764 0.585
63.8066 1.478
63.8369 0.809
63.8672 0.712
63.8975 2.595
63.9278 1.613
63.9580 1.256
63.9883 0.900
64.0186 1.012
64.0489 0.604
64.0791 0.821
64.1094 0.985
64.1397 0.421
64.1700 0.846
64.2003 1.740
64.2305 0.499
64.2608 0.873
64.2911 1.351
64.3214 0.943
64.3517 0.900
64.3819 0.649
64.4122 0.555
64.4425 0.564
64.4728 0.626
64.5031 1.157
64.5333 1.114
64.5636 0.916
64.5939 0.405
64.6242 0.259
64.6544 0.686
64.6847 0.957
64.7150 0.707
64.7453 -0.116
64.7756 0.728
64.8058 -0.094
64.8361 0.750
64.8664 0.813
64.8967 0.512
64.9270 0.471
64.9572 0.482
64.9875 -0.027
65.0178 0.088
65.0481 0.829
65.0783 0.216
65.1086 -0.137
65.1389 1.177
65.1692 0.147
65.1995 0.941
65.2297 0.797
65.2600 0.392
65.2903 -0.116
65.3206 0.782
65.3509 -0.456
65.3811 0.130
65.4114 0.403
65.4417 0.260
65.4720 0.117
65.5022 0.546
65.5325 0.299
65.5628 0.573
65.5931 0.534
65.6234 -0.129
65.6536 0.509
65.6839 0.575
65.7142 -0.036
65.7445 -0.283
65.7748 0.304
65.8050 0.423
65.8353 0.229
65.8656 0.034
65.8959 0.049
65.9261 0.220
65.9564 -0.026
65.9867 -0.220
66.0170 0.681
66.0473 -0.086
66.0775 0.815
66.1078 -0.108
66.1381 -0.092
66.1684 -0.494
66.1987 0.135
66.2289 0.711
66.2592 0.767
66.2895 0.093
66.3198 0.409
66.3500 0.153
66.3803 0.573
66.4106 0.838
66.4409 -0.304
66.4712 -0.039
66.5014 -0.035
66.5317 0.282
66.5620 -0.078
66.5923 -0.333
66.6226 -0.282
66.6528 0.447
66.6831 0.811
66.7134 -0.023
66.7437 0.081
66.7739 0.497
66.8042 -0.076
66.8345 0.654
66.8648 0.446
66.8951 0.550
66.9253 -0.543
66.9556 -0.074
66.9859 -0.334
67.0162 0.187
67.0465 0.449
67.0767 0.241
67.1070 -0.539
67.1373 -0.121
67.1676 0.349
67.1978 1.079
67.2281 0.351
67.2584 -0.324
67.2887 0.094
67.3190 0.720
67.3492 0.149
67.3795 -0.213
67.4098 0.466
67.4401 0.468
67.4704 -0.416
67.5006 0.472
67.5309 0.318
67.5612 -0.096
67.5915 -0.302
67.6218 0.482
67.6520 -0.244
67.6823 0.175
67.7126 0.491
67.7429 0.182
67.7731 0.653
67.8034 -0.489
67.8337 -0.329
67.8640 0.189
67.8943 0.186
67.9245 0.652
67.9548 0.024
67.9851 0.491
68.0154 0.488
68.0457 -0.035
68.0759 1.369
68.1062 -0.247
68.1365 -0.093
68.1668 0.634
68.1970 0.476
68.2273 0.475
68.2576 0.161
68.2879 -0.518
68.3182 0.470
68.3484 0.105
68.3787 0.416
68.4090 -0.106
68.4393 0.466
68.4696 0.726
68.4998 0.048
68.5301 0.360
68.5604 1.557
68.5907 0.098
68.6209 -0.162
68.6512 0.566
68.6815 0.045
68.7118 0.670
68.7421 -0.111
68.7723 -0.111
68.8026 0.202
68.8329 0.098
68.8632 -0.161
68.8935 0.204
68.9237 1.298
68.9540 0.205
68.9843 -0.159
69.0146 0.415
69.0448 0.052
69.0751 0.366
69.1054 0.471
69.1357 0.056
69.1660 0.266
69.1962 0.163
69.2265 0.581
69.2568 0.114
69.2871 0.585
69.3174 0.327
69.3476 0.902
69.3779 0.331
69.4082 0.802
69.4385 0.283
69.4687 -0.339
69.4990 0.132
69.5293 0.656
69.5596 -0.227
69.5899 0.453
69.6201 -0.117
69.6504 0.407
69.6807 0.410
69.7110 -0.055
69.7413 0.157
69.7715 -0.100
69.8018 0.164
69.8321 0.168
69.8624 0.015
69.8926 0.644
69.9229 0.544
69.9532 0.548
69.9835 0.656
70.0138 0.140
70.0440 -0.116
70.0743 -0.112
70.1046 0.414
70.1349 -0.206
70.1652 0.684
70.1954 0.272
70.2257 -0.244
70.2560 0.074
70.2863 0.444
70.3166 -0.020
70.3468 -0.171
70.3771 0.043
70.4074 -0.055
70.4377 0.888
70.4679 1.571
70.4982 0.275
70.5285 -0.136
70.5588 0.443
70.5891 -0.488
70.6193 0.352
70.6496 0.514
70.6799 0.417
70.7102 0.059
70.7405 0.222
70.7707 0.281
70.8010 -0.337
70.8313 -0.231
70.8616 0.240
70.8918 0.502
70.9221 0.140
70.9524 -0.430
70.9827 0.093
71.0130 0.044
71.0432 0.099
71.0735 -0.419
71.1038 0.573
71.1341 0.264
71.1644 0.111
71.1946 0.583
71.2249 0.222
71.2552 0.382
71.2855 0.750
71.3157 0.024
71.3460 0.445
71.3763 0.084
71.4066 0.505
71.4369 0.248
71.4671 0.096
71.4974 0.049
71.5277 0.470
71.5580 0.474
71.5883 0.062
71.6185 -0.194
71.6488 0.436
71.6791 0.233
71.7094 0.134
71.7396 0.660
71.7699 -0.064
71.8002 0.149
71.8305 0.676
71.8608 0.421
71.8910 0.270
71.9213 0.015
71.9516 -0.031
71.9819 -0.546
72.0122 0.072
72.0424 0.168
72.0727 0.265
72.1030 0.258
72.1333 0.407
72.1635 0.088
72.1938 0.185
72.2241 0.439
72.2544 0.796
72.2847 0.009
72.3149 -0.102
72.3452 0.412
72.3755 0.250
72.4058 0.243
72.4361 -0.075
72.4663 0.179
72.4966 0.382
72.5269 0.011
72.5572 -0.255
72.5874 -0.312
72.6177 0.098
72.6480 -0.065
72.6783 0.554
72.7086 -0.285
72.7388 0.230
72.7691 0.224
72.7994 0.479
72.8297 0.473
72.8600 0.259
72.8902 0.202
72.9205 -0.168
72.9508 0.035
72.9811 0.707
73.0113 -0.131
73.0416 -0.188
73.0719 1.005
73.1022 0.115
73.1325 0.579
73.1627 -0.050
73.1930 0.049
73.2233 0.722
73.2536 -0.063
73.2839 0.766
73.3141 0.033
73.3444 0.185
73.3747 0.181
73.4050 0.490
73.4353 0.539
73.4655 0.379
73.4958 0.324
73.5261 0.372
73.5564 0.265
73.5866 0.575
73.6169 0.311
73.6472 0.100
73.6775 0.826
73.7078 0.042
73.7380 0.040
73.7683 0.610
73.7986 -0.121
73.8289 0.137
73.8592 0.135
73.8894 -0.023
73.9197 0.652
73.9500 -0.131
73.9803 0.231
74.0105 0.282
74.0408 -0.084
74.0711 0.487
74.1014 -0.243
74.1317 0.068
74.1619 0.327
74.1922 -0.299
74.2225 0.533
74.2528 1.001
74.2831 0.167
74.3133 0.427
74.3436 1.104
74.3739 0.478
74.4042 -0.199
74.4344 0.373
74.4647 -0.200
74.4950 0.269
74.5253 0.165
74.5556 0.321
74.5858 1.780
74.6161 0.322
74.6464 0.479
74.6767 -0.094
74.7070 0.688
74.7372 0.689
74.7675 0.690
74.7978 -0.038
74.8281 0.275
74.8583 0.589
74.8886 0.486
74.9189 -0.085
74.9492 0.124
74.9795 0.230
75.0097 0.544
75.0400 -0.287
75.0703 -0.390
75.1006 0.341
75.1309 0.447
75.1611 0.293
75.1914 -0.070
75.2217 0.505
75.2520 -0.014
75.2822 0.822
75.3125 0.511
75.3428 0.514
75.3731 0.100
75.4034 0.727
75.4336 0.261
75.4639 0.524
75.4942 0.684
75.5245 0.478
75.5548 0.169
75.5850 -0.609
75.6153 0.852
75.6456 -0.394
75.6759 0.443
75.7061 -0.022
75.7364 0.138
75.7667 0.506
75.7970 0.041
75.8273 -0.215
75.8575 -0.263
75.8878 0.418
75.9181 0.058
75.9484 0.218
75.9787 0.640
76.0089 0.332
76.0392 0.337
76.0695 0.237
76.0998 0.086
76.1301 0.560
76.1603 0.877
76.1906 -0.107
76.2209 0.471
76.2512 -0.148
76.2814 -0.039
76.3117 -0.293
76.3420 0.441
76.3723 -0.021
76.4026 -0.120
76.4328 0.668
76.4631 0.049
76.4934 0.628
76.5237 -0.512
76.5540 0.016
76.5842 0.543
76.6145 0.029
76.6448 -0.121
76.6751 0.407
76.7053 -0.107
76.7356 -0.308
76.7659 0.106
76.7962 -0.105
76.8265 0.466
76.8567 0.412
76.8870 0.931
76.9173 0.200
76.9476 0.563
76.9779 0.561
77.0081 -0.118
77.0384 -0.067
77.0687 -0.069
77.0990 -0.487
77.1292 0.241
77.1595 0.188
77.1898 0.031
77.2201 0.186
77.2504 0.238
77.2806 0.549
77.3109 0.340
77.3412 0.965
77.3715 0.756
77.4018 0.079
77.4320 0.027
77.4623 0.235
77.4926 -0.026
77.5229 0.495
77.5531 0.131
77.5834 -0.494
77.6137 -0.077
77.6440 -0.233
77.6743 -0.232
77.7045 0.758
77.7348 0.134
77.7651 0.343
77.7954 0.084
77.8257 0.241
77.8559 0.502
77.8862 0.295
77.9165 0.140
77.9468 0.246
77.9770 0.456
78.0073 0.197
78.0376 -0.062
78.0679 -0.685
78.0982 0.411
78.1284 -0.004
78.1587 -0.887
78.1890 0.990
78.2193 0.316
78.2496 0.214
78.2798 -0.304
78.3101 -0.041
78.3404 0.326
78.3707 0.016
78.4009 -0.293
78.4312 -0.030
78.4615 0.025
78.4918 0.185
78.5221 0.657
78.5523 0.088
78.5826 -0.065
78.6129 0.303
78.6432 0.411
78.6735 0.884
78.7037 0.054
78.7340 0.267
78.7643 0.219
78.7946 0.067
78.8248 0.071
78.8551 0.388
78.8854 0.080
78.9157 -0.124
78.9460 0.090
78.9762 0.199
79.0065 -0.421
79.0368 0.104
79.0671 0.318
79.0974 0.584
79.1276 -0.817
79.1579 -0.187
79.1882 -0.389
79.2185 0.233
79.2488 0.960
79.2790 0.333
79.3093 -0.138
79.3396 0.485
79.3699 0.223
79.4001 0.013
79.4304 0.376
79.4607 0.479
79.4910 0.008
79.5213 -0.201
79.5515 0.162
79.5818 0.109
79.6121 0.212
79.6424 0.003
79.6727 -0.310
79.7029 0.106
79.7332 -0.208
79.7635 0.052
79.7938 -0.313
79.8240 0.052
79.8543 -0.053
79.8846 0.312
79.9149 0.103
79.9452 0.572
79.9754 0.000
80.0057 0.781
80.0360 0.573
80.0663 -0.103
80.0966 0.262
80.1268 -0.206
80.1571 -0.101
80.1874 0.108
80.2177 0.057
80.2479 0.683
80.2782 0.320
80.3085 0.165
80.3388 0.166
80.3691 -0.093
80.3993 0.638
80.4296 0.275
80.4599 0.173
80.4902 0.227
80.5205 0.541
80.5507 0.075
80.5810 0.077
80.6113 -0.337
80.6416 -0.031
80.6718 0.327
80.7021 0.061
80.7324 -0.101
80.7627 0.622
80.7930 0.044
80.8232 -0.014
80.8535 0.553
80.8838 -0.129
80.9141 -0.134
80.9444 -0.087
80.9746 0.168
81.0049 -0.254
81.0352 0.523
81.0655 0.518
81.0957 0.097
81.1260 0.144
81.1563 0.035
81.1866 -0.281
81.2169 0.235
81.2471 0.023
81.2774 0.644
81.3077 -0.142
81.3380 0.792
81.3683 0.007
81.3985 -0.049
81.4288 0.260
81.4591 0.673
81.4894 0.253
81.5196 0.459
81.5499 -0.326
81.5802 -0.069
81.6105 0.293
81.6408 -0.126
81.6710 -0.337
81.7013 0.441
81.7316 0.282
81.7619 0.176
81.7922 0.330
81.8224 0.327
81.8527 0.013
81.8830 -0.041
81.9133 -0.043
81.9436 -0.201
81.9738 -0.047
82.0041 0.733
82.0344 0.262
82.0647 0.678
82.0949 0.155
82.1252 0.415
82.1555 -0.472
82.1858 0.308
82.2161 0.307
82.2463 0.411
82.2766 0.098
82.3069 0.670
82.3372 0.305
82.3675 0.877
82.3977 0.408
82.4280 0.668
82.4583 0.147
82.4886 0.252
82.5188 0.043
82.5491 -0.113
82.5794 0.408
82.6097 1.242
82.6400 0.097
82.6702 0.201
82.7005 -0.215
82.7308 0.463
82.7611 0.256
82.7914 -0.056
82.8216 0.050
82.8519 -0.001
82.8822 -0.312
82.9125 -0.262
82.9427 0.675
82.9730 0.830
83.0033 0.621
83.0336 0.672
83.0639 0.411
83.0941 0.046
83.1244 0.358
83.1547 0.254
83.1850 0.306
83.2153 0.358
83.2455 -0.163
83.2758 -0.059
83.3061 0.514
83.3364 -0.215
83.3666 0.463
83.3969 0.307
83.4272 -0.005
83.4575 0.152
83.4878 -0.212
83.5180 0.414
83.5483 -0.054
83.5786 0.468
83.6089 0.417
83.6392 -0.415
83.6694 -0.257
83.6997 0.004
83.7300 -0.150
83.7603 0.112
83.7905 -0.772
83.8208 -0.041
83.8511 0.013
83.8814 0.380
83.9117 0.226
83.9419 1.062
83.9722 0.179
84.0025 0.025
84.0328 -0.025
84.0631 0.082
84.0933 0.033
84.1236 0.088
84.1539 0.091
84.1842 0.406
84.2144 0.253
84.2447 -0.004
84.2750 -0.052
84.3053 0.055
84.3356 0.632
84.3658 0.427
84.3961 0.431
84.4264 0.331
84.4567 0.283
84.4870 0.547
84.5172 -0.074
84.5475 0.191
84.5778 0.508
84.6081 0.200
84.6383 -0.056
84.6686 0.209
84.6989 0.370
84.7292 0.584
84.7595 -0.141
84.7897 -0.135
84.8200 0.078
84.8503 -0.021
84.8806 0.141
84.9109 0.719
84.9411 0.152
84.9714 0.418
85.0017 -0.045
85.0320 -0.299
85.0623 -0.091
85.0925 -0.299
85.1228 -0.041
85.1531 0.322
85.1834 0.477
85.2136 0.215
85.2439 0.110
85.2742 -0.360
85.3045 0.003
85.3348 0.054
85.3650 0.678
85.3953 0.313
85.4256 0.364
85.4559 0.572
85.4862 0.415
85.5164 0.571
85.5467 0.570
85.5770 0.258
85.6073 0.518
85.6375 0.101
85.6678 0.101
85.6981 0.258
85.7284 0.102
85.7587 0.050
85.7889 0.259
85.8192 0.936
85.8495 0.104
85.8798 -0.052
85.9101 -0.311
85.9403 0.101
85.9706 0.202
86.0009 0.406
86.0312 0.195
86.0614 0.972
86.0917 -0.385
86.1220 0.601
86.1523 0.650
86.1826 0.126
86.2128 0.227
86.2431 0.120
86.2734 0.430
86.3037 0.844
86.3340 -0.460
86.3642 0.370
86.3945 0.003
86.4248 0.210
86.4551 -0.001
86.4853 0.049
86.5156 0.776
86.5459 0.306
86.5762 0.877
86.6065 0.511
86.6367 0.040
86.6670 -0.274
86.6973 -0.171
86.7276 0.088
86.7579 0.139
86.7881 0.034
86.8184 0.398
86.8487 0.085
86.8790 0.292
86.9092 0.552
86.9395 0.551
86.9698 -0.022
87.0001 0.603
87.0304 -0.179
87.0606 -0.075
87.0909 -0.127
87.1212 0.394
87.1515 0.290
87.1818 0.655
87.2120 0.447
87.2423 0.604
87.2726 0.396
87.3029 -0.280
87.3331 0.502
87.3634 0.711
87.3937 0.347
87.4240 0.036
87.4543 -0.119
87.4845 -0.170
87.5148 0.560
87.5451 0.041
87.5754 0.147
87.6057 0.513
87.6359 -0.162
87.6662 0.621
87.6965 0.623
87.7268 1.250
87.7571 0.627
87.7873 -0.100
87.8176 0.059
87.8479 -0.355
87.8782 0.272
87.9084 0.379
87.9387 0.174
87.9690 0.333
87.9993 0.284
88.0296 0.495
88.0598 0.655
88.0901 0.450
88.1204 0.036
88.1507 0.821
88.1810 0.721
88.2112 0.464
88.2415 -0.105
88.2718 0.576
88.3021 0.163
88.3323 0.115
88.3626 0.276
88.3929 0.488
88.4232 0.649
88.4535 0.029
88.4837 0.085
88.5140 0.350
88.5443 0.407
88.5746 0.360
88.6049 0.417
88.6351 0.162
88.6654 0.115
88.6957 0.381
88.7260 0.230
88.7562 -0.494
88.7865 -0.181
88.8168 0.601
88.8471 0.602
88.8774 -0.230
88.9076 0.083
88.9379 -0.176
88.9682 0.294
88.9985 0.452
89.0288 0.349
89.0590 -0.379
89.0893 -0.064
89.1196 0.562
89.1499 0.460
89.1801 0.201
89.2104 0.672
89.2407 0.102
89.2710 0.364
89.3013 0.419
89.3315 0.317
89.3618 0.944
89.3921 0.166
89.4224 0.429
89.4527 0.015
89.4829 0.695
89.5132 0.177
89.5435 -0.132
89.5738 -0.077
89.6040 0.343
89.6343 0.243
89.6646 0.246
89.6949 -0.167
89.7252 0.358
89.7554 -0.107
89.7857 -0.311
89.8160 0.161
89.8463 0.164
89.8766 0.533
89.9068 -0.505
89.9371 0.384
89.9674 0.127
89.9977 -0.285
90.0279 -0.186
90.0582 0.331
90.0885 0.274
90.1188 0.270
90.1491 0.318
90.1793 -0.207
90.2096 0.571
90.2399 -0.058
90.2702 0.303
90.3005 0.351
90.3307 -0.225
90.3610 0.345
90.3913 0.237
90.4216 -0.079
90.4518 -0.290
90.4821 0.071
90.5124 0.380
90.5427 0.116
90.5730 0.061
90.6032 0.423
90.6335 0.211
90.6638 0.625
90.6941 0.205
90.7244 -0.058
90.7546 0.408
90.7849 0.198
90.8152 0.299
90.8455 0.818
90.8758 0.034
90.9060 0.293
90.9363 0.759
90.9666 -0.024
90.9969 0.079
91.0271 0.337
91.0574 -0.133
91.0877 -0.134
91.1180 0.385
91.1483 -0.398
91.1785 -0.295
91.2088 -0.194
91.2391 0.480
91.2694 0.425
91.2997 -0.099
91.3299 -0.102
91.3602 0.520
91.3905 0.100
91.4208 -0.215
91.4510 1.137
91.4813 0.040
91.5116 0.142
91.5419 -0.069
91.5722 -0.175
91.6024 -0.229
91.6327 -0.023
91.6630 0.079
91.6933 0.286
91.7236 0.024
91.7538 0.074
91.7841 0.698
91.8144 -0.345
91.8447 0.122
91.8749 0.173
91.9052 0.120
91.9355 0.067
91.9658 0.170
91.9961 -0.039
92.0263 -0.196
92.0566 -0.092
92.0869 0.063
92.1172 0.428
92.1475 -0.094
92.1777 -0.354
92.2080 0.323
92.2383 0.167
92.2686 0.167
92.2988 0.532
92.3291 0.480
92.3594 0.845
92.3897 0.897
92.4200 -0.560
92.4502 -0.299
92.4805 -0.194
92.5108 0.536
92.5411 0.329
92.5714 -0.816
92.6016 0.019
92.6319 -0.345
92.6622 0.125
92.6925 0.023
92.7227 0.181
92.7530 -0.078
92.7833 0.653
92.8136 -0.439
92.8439 0.032
92.8741 -0.122
92.9044 -0.276
92.9347 0.299
92.9650 0.145
92.9953 -0.269
93.0255 0.203
93.0558 -0.263
93.0861 0.365
93.1164 -0.049
93.1466 0.371
93.1769 -0.303
93.2072 0.638
93.2375 0.380
93.2678 0.228
93.2980 0.492
93.3283 -0.234
93.3586 0.239
93.3889 0.138
93.4192 -0.378
93.4494 0.251
93.4797 -0.318
93.5100 0.624
93.5403 0.211
93.5706 -0.045
93.6008 0.168
93.6311 1.163
93.6614 0.022
93.6917 0.131
93.7219 0.188
93.7522 0.609
93.7825 0.198
93.8128 0.099
93.8431 0.469
93.8733 0.006
93.9036 -0.145
93.9339 0.173
93.9642 0.335
93.9945 0.706
94.0247 -0.069
94.0550 0.666
94.0853 -0.318
94.1156 -0.311
94.1458 0.368
94.1761 0.109
94.2064 0.476
94.2367 0.114
94.2670 0.012
94.2972 0.535
94.3275 0.903
94.3578 0.228
94.3881 0.127
94.4184 0.025
94.4486 0.133
94.4789 0.188
94.5092 0.087
94.5395 0.038
94.5697 1.291
94.6000 -0.268
94.6303 -0.160
94.6606 0.417
94.6909 -0.152
94.7211 0.477
94.7514 -0.197
94.7817 0.120
94.8120 0.385
94.8423 -0.184
94.8725 -0.075
94.9028 -0.331
94.9331 0.454
94.9634 0.355
94.9936 0.412
95.0239 0.781
95.0542 0.213
95.0845 -0.354
95.1148 0.015
95.1450 0.229
95.1753 0.026
95.2056 0.865
95.2359 0.454
95.2662 0.981
95.2964 0.413
95.3267 0.784
95.3570 0.738
95.3873 0.223
95.4175 0.021
95.4478 -0.285
95.4781 0.020
95.5084 0.066
95.5387 0.215
95.5689 0.157
95.5992 0.046
95.6295 0.977
95.6598 -0.227
95.6901 0.184
95.7203 0.021
95.7506 0.432
95.7809 -0.251
95.8112 0.577
95.8414 -0.106
95.8717 0.201
95.9020 0.039
95.9323 0.190
95.9626 0.029
95.9928 -0.081
96.0231 0.279
96.0534 0.118
96.0837 -0.304
96.1140 0.056
96.1442 0.364
96.1745 -0.057
96.2048 -0.166
96.2351 -0.327
96.2653 0.346
96.2956 -0.127
96.3259 -0.339
96.3562 0.699
96.3865 0.278
96.4167 0.535
96.4470 -0.250
96.4773 0.840
96.5076 0.524
96.5379 0.521
96.5681 0.361
96.5984 -0.006
96.6287 0.199
96.6590 -0.377
96.6893 0.402
96.7195 -0.018
96.7498 0.136
96.7801 0.550
96.8104 0.183
96.8406 0.233
96.8709 -0.082
96.9012 -0.032
96.9315 -0.399
96.9618 0.277
96.9920 0.119
97.0223 0.221
97.0526 0.272
97.0829 -0.615
97.1132 0.060
97.1434 -0.045
97.1737 0.527
97.2040 0.265
97.2343 0.108
97.2645 0.263
97.2948 0.210
97.3251 0.262
97.3554 0.886
97.3857 0.156
97.4159 0.416
97.4462 0.156
97.4765 0.572
97.5068 0.051
97.5371 0.312
97.5673 0.624
97.5976 0.156
97.6279 -0.104
97.6582 0.104
97.6884 0.105
97.7187 0.418
97.7490 0.262
97.7793 0.263
97.8096 0.264
97.8398 0.578
97.8701 0.787
97.9004 0.267
97.9307 -0.096
97.9610 -0.459
97.9912 0.272
98.0215 0.325
98.0518 0.275
98.0821 0.485
98.1123 0.487
98.1426 -0.500
98.1729 0.439
98.2032 0.129
98.2335 0.444
98.2637 0.550
98.2940 0.449
98.3243 -0.122
98.3546 0.350
98.3849 0.353
98.4151 0.147
98.4454 0.202
98.4757 -0.107
98.5060 0.105
98.5362 -0.048
98.5665 0.268
98.5968 0.375
98.6271 -0.038
98.6574 0.070
98.6876 0.283
98.7179 0.182
98.7482 0.082
98.7785 -0.591
98.8088 0.507
98.8390 0.459
98.8693 0.151
98.8996 0.781
98.9299 0.004
98.9601 0.113
98.9904 0.066
99.0207 0.592
99.0510 0.441
99.0813 0.342
99.1115 -0.486
99.1418 0.040
99.1721 0.202
99.2024 0.415
99.2327 0.109
99.2629 0.791
99.2932 0.485
99.3235 0.439
99.3538 0.132
99.3841 0.034
99.4143 0.301
99.4446 0.255
99.4749 -0.363
99.5052 -0.210
99.5354 0.412
99.5657 0.148
99.5960 0.666
99.6263 0.247
99.6566 0.400
99.6868 0.450
99.7171 0.708
99.7474 0.133
99.7777 0.391
99.8080 0.180
99.8382 1.012
99.8685 0.385
99.8988 0.227
99.9291 -0.400
99.9593 0.952
99.9896 0.586
100.0199 0.324
100.0502 0.115
100.0805 0.426
100.1107 -0.044
100.1410 0.163
100.1713 0.215
100.2016 0.109
100.2319 0.057
100.2621 0.837
100.2924 0.108
100.3227 0.159
100.3530 0.367
100.3832 -0.258
100.4135 0.367
100.4438 0.315
100.4741 0.731
100.5044 0.211
100.5346 0.836
100.5649 0.420
100.5952 0.212
100.6255 0.056
100.6558 0.109
100.6860 0.318
100.7163 0.319
100.7466 -0.409
100.7769 0.477
100.8071 -0.199
100.8374 0.376
100.8677 0.481
100.8980 -0.142
100.9283 0.120
100.9585 0.121
100.9888 0.019
101.0191 -0.656
101.0494 0.179
101.0797 0.181
101.1099 0.131
101.1402 0.290
101.1705 0.396
101.2008 0.086
101.2310 0.089
101.2613 0.196
101.2916 0.251
101.3219 0.566
101.3522 0.309
101.3824 -0.001
101.4127 -0.258
101.4430 0.214
101.4733 -0.095
101.5036 -0.091
101.5338 0.329
101.5641 0.333
101.5944 -0.237
101.6247 0.236
101.6549 0.396
101.6852 0.400
101.7155 0.717
101.7458 0.409
101.7761 -0.107
101.8063 -0.363
101.8366 0.152
101.8669 -0.009
101.8972 0.299
101.9275 0.971
101.9577 0.550
101.9880 0.233
102.0183 0.385
102.0486 0.224
102.0788 0.220
102.1091 -0.045
102.1394 0.628
102.1697 -0.209
102.2000 0.256
102.2302 -0.112
102.2605 0.405
102.2908 0.454
102.3211 0.346
102.3514 0.030
102.3816 0.235
102.4119 -0.185
102.4422 0.073
102.4725 0.122
102.5028 0.067
102.5330 0.012
102.5633 -0.042
102.5936 0.372
102.6239 0.734
102.6541 0.159
102.6844 -0.208
102.7147 0.154
102.7450 0.048
102.7753 0.255
102.8055 0.044
102.8358 -0.061
102.8661 1.187
102.8964 0.040
102.9267 -0.170
102.9569 -0.276
102.9872 0.035
103.0175 0.347
103.0478 0.137
103.0780 0.344
103.1083 0.083
103.1386 0.759
103.1689 0.029
103.1992 0.445
103.2294 0.548
103.2597 0.183
103.2900 0.235
103.3203 0.130
103.3506 -0.235
103.3808 -0.183
103.4111 0.078
103.4414 0.130
103.4717 -0.078
103.5019 -0.391
103.5322 0.339
103.5625 0.339
103.5928 0.184
103.6231 -0.024
103.6533 0.654
103.6836 -0.075
103.7139 0.603
103.7442 0.240
103.7745 -0.071
103.8047 0.451
103.8350 -0.329
103.8653 0.089
103.8956 0.403
103.9258 0.353
103.9561 0.198
103.9864 -0.165
104.0167 0.358
104.0470 0.777
104.0772 0.414
104.1075 0.208
104.1378 0.263
104.1681 0.057
104.1984 0.112
104.2286 -0.042
104.2589 0.430
104.2892 0.485
104.3195 0.175
104.3497 0.178
104.3800 -0.235
104.4103 -0.024
104.4406 -0.177
104.4709 0.139
104.5011 -0.274
104.5314 0.511
104.5617 0.150
104.5920 -0.419
104.6223 0.471
104.6525 0.319
104.6828 0.323
104.7131 0.223
104.7434 0.123
104.7736 0.284
104.8039 0.080
104.8342 0.137
104.8645 0.037
104.8948 0.199
104.9250 -0.109
104.9553 0.365
104.9856 0.891
105.0159 0.271
105.0462 0.016
105.0764 -0.134
105.1067 0.184
105.1370 0.346
105.1673 0.091
105.1975 0.461
105.2278 0.415
105.2581 0.005
105.2884 0.428
105.3187 0.538
105.3489 0.597
105.3792 -0.074
105.4095 0.089
105.4398 0.512
105.4701 0.050
105.5003 -0.255
105.5306 -0.102
105.5609 0.051
105.5912 0.308
105.6215 0.200
105.6517 -0.115
105.6820 -0.066
105.7123 0.921
105.7426 0.501
105.7728 0.186
105.8031 0.705
105.8334 0.650
105.8637 0.648
105.8940 0.177
105.9242 0.331
105.9545 0.641
105.9848 -0.142
106.0151 0.429
106.0454 0.428
106.0756 -0.147
106.1059 0.477
106.1362 0.319
106.1665 0.109
106.1967 0.733
106.2270 0.367
106.2573 0.627
106.2876 0.105
106.3179 -0.260
106.3481 -0.106
106.3784 0.413
106.4087 -0.006
106.4390 0.409
106.4693 0.459
106.4995 0.145
106.5298 0.040
106.5601 0.611
106.5904 -0.015
106.6206 0.557
106.6509 0.139
106.6812 0.607
106.7115 0.397
106.7418 0.032
106.7720 0.031
106.8023 -0.126
106.8326 0.082
106.8629 -0.022
106.8932 0.394
106.9234 0.081
106.9537 0.186
106.9840 -0.127
107.0143 0.082
107.0445 -0.127
107.0748 -0.126
107.1051 0.135
107.1354 -0.282
107.1657 0.084
107.1959 0.449
107.2262 -0.019
107.2565 0.295
107.2868 -0.225
107.3171 0.713
107.3473 0.090
107.3776 0.508
107.4079 -0.064
107.4382 0.250
107.4684 0.148
107.4987 -0.424
107.5290 0.047
107.5593 0.987
107.5896 0.155
107.6198 0.366
107.6501 0.108
107.6804 0.631
107.7107 0.269
107.7410 0.375
107.7712 0.013
107.8015 0.068
107.8318 0.071
107.8621 -0.030
107.8923 0.233
107.9226 0.914
107.9529 0.344
107.9832 0.504
108.0135 0.611
108.0437 0.406
108.0740 0.410
108.1043 0.153
108.1346 0.105
108.1649 0.474
108.1951 -0.251
108.2254 0.534
108.2557 0.018
108.2860 0.595
108.3163 0.443
108.3465 0.396
108.3768 0.244
108.4071 0.822
108.4374 -0.059
108.4676 0.675
108.4979 0.368
108.5282 0.373
108.5585 0.795
108.5888 0.332
108.6190 0.337
108.6493 0.082
108.6796 0.088
108.7099 0.719
108.7402 -0.317
108.7704 -0.259
108.8007 0.364
108.8310 0.310
108.8613 0.673
108.8915 0.619
108.9218 0.201
108.9521 0.460
108.9824 0.042
109.0127 0.665
109.0429 0.247
109.0732 0.715
109.1035 0.089
109.1338 0.244
109.1641 0.921
109.1943 0.868
109.2246 0.399
109.2549 0.502
109.2852 0.398
109.3154 0.085
109.3457 0.449
109.3760 0.085
109.4063 1.178
109.4366 0.085
109.4668 0.502
109.4971 0.137
109.5274 0.398
109.5577 0.242
109.5880 0.139
109.6182 0.087
109.6485 -0.016
109.6788 0.506
109.7091 0.663
109.7393 0.143
109.7696 0.301
109.7999 0.250
109.8302 0.877
109.8605 0.253
109.8907 0.046
109.9210 0.465
109.9513 -0.054
109.9816 0.000
110.0119 0.158
110.0421 0.473
110.0724 -0.098
110.1027 0.217
110.1330 0.219
110.1632 -0.195
110.1935 -0.244
110.2238 0.167
110.2541 0.630
110.2844 0.468
110.3146 0.358
110.3449 0.249
110.3752 0.296
110.4055 -0.334
110.4358 0.598
110.4660 0.593
110.4963 0.276
110.5266 0.271
110.5569 0.163
110.5871 0.419
110.6174 0.466
110.6477 0.358
110.6780 0.562
110.7083 0.089
110.7385 0.137
110.7688 0.446
110.7991 0.182
110.8294 0.178
110.8597 0.539
110.8899 0.119
110.9202 0.115
110.9505 0.164
110.9808 0.369
111.0110 0.210
111.0413 0.155
111.0716 0.569
111.1019 -0.111
111.1322 -0.114
111.1624 0.196
111.1927 0.506
111.2230 0.243
111.2533 -0.332
111.2836 0.447
111.3138 0.133
111.3441 0.756
111.3744 0.077
111.4047 0.544
111.4350 0.386
111.4652 0.124
111.4955 0.018
111.5258 0.121
111.5561 0.120
111.5863 -0.090
111.6166 0.169
111.6469 -0.040
111.6772 -0.353
111.7075 0.740
111.7377 0.010
111.7680 -0.043
111.7983 0.582
111.8286 0.165
111.8589 -0.044
111.8891 0.633
111.9194 0.164
111.9497 -0.200
111.9800 -0.148
112.0102 -0.200
112.0405 0.217
112.0708 0.374
112.1011 0.635
112.1314 0.011
112.1616 0.115
112.1919 0.950
112.2222 0.273
112.2525 0.743
112.2828 0.328
112.3130 0.433
112.3433 0.174
112.3736 -0.033
112.4039 0.073
112.4341 0.023
112.4644 0.337
112.4947 -0.078
112.5250 0.237
112.5553 0.239
112.5855 -0.228
112.6158 0.816
112.6461 0.193
112.6764 0.248
112.7067 0.719
112.7369 0.357
112.7672 0.152
112.7975 0.259
112.8278 -0.259
112.8580 -0.215
112.8883 0.246
112.9186 0.551
112.9489 0.179
112.9792 0.119
113.0094 0.112
113.0397 0.105
113.0700 0.150
113.1003 0.716
113.1306 0.656
113.1608 0.598
113.1911 0.226
113.2214 -0.405
113.2517 -0.152
113.2819 1.040
113.3122 0.304
113.3425 0.090
113.3728 0.657
113.4031 0.338
113.4333 0.020
113.4636 0.639
113.4939 0.164
113.5242 -0.570
113.5545 0.466
113.5847 -0.009
113.6150 0.142
113.6453 0.345
113.6756 0.392
113.7058 0.023
113.7361 0.226
113.7664 -0.039
113.7967 0.060
113.8270 0.108
113.8572 -0.209
113.8875 0.307
113.9178 0.147
113.9481 0.143
113.9784 0.034
114.0086 -0.074
114.0389 0.235
114.0692 0.804
114.0995 -0.294
114.1298 0.067
114.1600 0.012
114.1903 0.269
114.2206 0.005
114.2509 -0.102
114.2811 0.051
114.3114 -0.265
114.3417 -0.111
114.3720 0.407
114.4023 0.508
114.4325 0.245
114.4628 0.295
114.4931 0.084
114.5234 0.029
114.5537 -0.598
114.5839 0.025
114.6142 -0.237
114.6445 -0.031
114.6748 -0.033
114.7050 -0.138
114.7353 0.173
114.7656 -0.089
114.7959 0.586
114.8262 0.429
114.8564 0.011
114.8867 -0.094
114.9170 -0.252
114.9473 -0.304
114.9776 0.580
115.0078 0.579
115.0381 0.319
115.0684 -0.307
115.0987 -0.099
115.1289 -0.151
115.1592 0.057
115.1895 -0.152
115.2198 0.057
115.2501 0.161
115.2803 0.318
115.3106 0.110
115.3409 0.162
115.3712 0.006
115.4015 0.111
115.4317 0.060
115.4620 0.582
115.4923 -0.355
115.5226 -0.041
115.5528 -0.197
115.5831 0.326
115.6134 0.327
115.6437 -0.088
115.6740 -0.243
115.7042 0.175
115.7345 0.281
115.7648 0.075
115.7951 -0.132
115.8254 0.131
115.8556 0.081
115.8859 0.291
115.9162 0.346
115.9465 -0.381
115.9767 0.143
116.0070 0.249
116.0373 -0.060
116.0676 0.411
116.0979 -0.575
116.1281 -0.051
116.1584 0.160
116.1887 0.476
116.2190 -0.094
116.2493 -0.090
116.2795 0.174
116.3098 0.177
116.3401 -0.235
116.3704 -0.023
116.4006 -0.071
116.4309 -0.276
116.4612 -0.271
116.4915 0.202
116.5218 0.103
116.5520 0.264
116.5823 0.842
116.6126 0.431
116.6429 0.019
116.6732 0.701
116.7034 0.603
116.7337 0.296
116.7640 0.666
116.7943 -0.006
116.8245 -0.052
116.8548 0.319
116.8851 0.220
116.9154 0.175
116.9457 0.233
116.9759 0.291
117.0062 0.245
117.0365 -0.113
117.0668 0.363
117.0971 0.422
117.1273 0.324
117.1576 -0.033
117.1879 0.078
117.2182 -0.384
117.2485 0.352
117.2787 0.464
117.3090 0.732
117.3393 0.166
117.3696 0.434
117.3998 0.182
117.4301 0.502
117.4604 -0.219
117.4907 -0.107
117.5210 -0.255
117.5512 -0.255
117.5815 0.260
117.6118 -0.059
117.6421 0.144
117.6724 0.295
117.7026 0.393
117.7329 -0.289
117.7632 0.487
117.7935 -0.195
117.8237 0.216
117.8540 0.315
117.8843 0.154
117.9146 -0.111
117.9449 0.509
117.9751 0.036
118.0054 0.813
118.0357 0.444
118.0660 -0.550
118.0963 0.904
118.1265 -0.089
118.1568 -0.250
118.1871 0.892
118.2174 -0.049
118.2476 0.260
118.2779 0.673
118.3082 0.149
118.3385 0.145
118.3688 0.402
118.3990 -0.017
118.4293 0.657
118.4596 0.706
118.4899 -0.078
118.5202 0.179
118.5504 0.229
118.5807 0.278
118.6110 -0.401
118.6413 0.013
118.6715 -0.198
118.7018 0.477
118.7321 0.215
118.7624 -0.308
118.7927 0.471
118.8229 0.470
118.8532 0.312
118.8835 0.050
118.9138 0.257
118.9441 0.047
118.9743 0.410
119.0046 0.461
119.0349 0.304
119.0652 0.355
119.0954 -0.271
119.1257 -0.637
119.1560 0.456
119.1863 0.142
119.2166 0.870
119.2468 1.025
119.2771 -0.226
119.3074 0.242
119.3377 -0.279
119.3680 0.293
119.3982 0.605
119.4285 0.396
119.4588 0.032
119.4891 0.604
119.5193 0.760
119.5496 0.396
119.5799 -0.594
119.6102 0.604
119.6405 0.188
119.6707 0.397
119.7010 0.293
119.7313 -0.123
119.7616 -0.018
119.7919 0.035
119.8221 -0.329
119.8524 0.558
119.8827 0.298
119.9130 -0.273
119.9433 0.145
119.9735 -0.271
120.0038 0.000
