'Id: "" Comment: "" Operator: "Lab Manager" Anode: "Cu" Scantype: "Locked Coupled" TimePerStep: "19.2" X: "9999" Y: "9999" Z: "9999" 
10.0015 0.000
10.0318 -0.480
10.0620 -0.466
10.0923 0.121
10.1226 0.136
10.1529 0.463
10.1832 -0.095
10.2134 0.493
10.2437 -0.064
10.2740 -0.621
10.3043 0.749
10.3346 -0.693
10.3648 0.573
10.3951 -0.244
10.4254 -0.383
10.4557 0.155
10.4859 -0.973
10.5162 0.555
10.5465 -0.105
10.5768 -0.451
10.6071 0.088
10.6373 0.315
10.6676 -0.395
10.6979 0.301
10.7282 0.112
10.7585 0.131
10.7887 0.411
10.8190 -0.246
10.8493 0.087
10.8796 0.211
10.9098 -0.341
10.9401 -0.164
10.9704 -0.663
11.0007 0.013
11.0310 0.690
11.0612 0.690
11.0915 1.002
11.1218 0.326
11.1521 0.326
11.1824 -0.298
11.2126 0.745
11.2429 1.215
11.2732 0.800
11.3035 0.229
11.3337 0.439
11.3640 0.181
11.3943 -0.337
11.4246 0.915
11.4549 0.137
11.4851 0.349
11.5154 -0.169
11.5457 0.772
11.5760 -0.474
11.6063 0.260
11.6365 1.410
11.6668 0.216
11.6971 0.169
11.7274 0.747
11.7577 -0.185
11.7879 -0.075
11.8182 -0.486
11.8485 1.134
11.8788 0.620
11.9090 0.210
11.9393 0.373
11.9696 0.536
11.9999 1.272
12.0302 0.029
12.0604 0.870
12.0907 -0.111
12.1210 0.886
12.1513 0.062
12.1816 0.487
12.2118 0.756
12.2421 0.557
12.2724 0.618
12.3027 0.940
12.3329 0.846
12.3632 0.491
12.3935 0.501
12.4238 0.824
12.4541 -0.155
12.4843 -0.456
12.5146 1.065
12.5449 0.348
12.5752 0.776
12.6055 -0.202
12.6357 -0.085
12.6660 -0.073
12.6963 0.304
12.7266 0.109
12.7568 0.694
12.7871 0.499
12.8174 0.200
12.8477 0.318
12.8780 -0.501
12.9082 -0.331
12.9385 -0.472
12.9688 0.203
12.9991 0.357
13.0294 0.616
13.0596 0.042
13.0899 1.082
13.1202 0.821
13.1505 -0.221
13.1807 -0.065
13.2110 0.091
13.2413 -0.378
13.2716 -0.169
13.3019 0.248
13.3321 0.144
13.3624 0.823
13.3927 0.043
13.4230 0.044
13.4533 0.358
13.4835 0.412
13.5138 0.519
13.5441 0.469
13.5744 0.472
13.6046 0.006
13.6349 0.217
13.6652 0.377
13.6955 -0.297
13.7258 0.176
13.7560 0.024
13.7863 0.288
13.8166 -0.020
13.8469 0.037
13.8772 -0.166
13.9074 0.308
13.9377 0.574
13.9680 -0.098
13.9983 -0.144
14.0285 0.279
14.0588 -0.235
14.0891 0.136
14.1194 -0.378
14.1497 0.358
14.1799 -0.155
14.2102 0.113
14.2405 0.173
14.2708 0.076
14.3011 0.449
14.3313 -0.219
14.3616 0.050
14.3919 0.371
14.4222 0.485
14.4524 0.442
14.4827 0.712
14.5130 0.149
14.5433 -0.049
14.5736 0.430
14.6038 0.180
14.6341 0.452
14.6644 0.411
14.6947 0.734
14.7250 -0.296
14.7552 -0.648
14.7855 0.179
14.8158 0.173
14.8461 -0.249
14.8764 -0.047
14.9066 0.105
14.9369 0.047
14.9672 -0.322
14.9975 -0.326
15.0277 0.346
15.0580 0.342
15.0883 0.547
15.1186 0.700
15.1489 0.280
15.1791 0.537
15.2094 0.534
15.2397 0.427
15.2700 -0.252
15.3003 -0.358
15.3305 -0.204
15.3608 0.471
15.3911 0.053
15.4214 0.104
15.4516 -0.157
15.4819 0.415
15.5122 -0.159
15.5425 0.466
15.5728 -0.159
15.6030 0.258
15.6333 -0.002
15.6636 0.311
15.6939 0.416
15.7242 0.105
15.7544 0.054
15.7847 0.420
15.8150 -0.307
15.8453 -0.357
15.8755 -0.459
15.9058 0.585
15.9361 -0.454
15.9664 0.383
15.9967 0.594
16.0269 -0.288
16.0572 -0.180
16.0875 0.033
16.1178 0.610
16.1481 0.145
16.1783 0.046
16.2086 0.155
16.2389 0.004
16.2692 -0.095
16.2994 0.171
16.3297 0.229
16.3600 0.131
16.3903 0.085
16.4206 -0.065
16.4508 -0.058
16.4811 0.209
16.5114 -0.096
16.5417 0.589
16.5720 -0.185
16.6022 0.135
16.6325 0.248
16.6628 -0.056
16.6931 -0.673
16.7233 -0.042
16.7536 0.121
16.7839 0.284
16.8142 -0.282
16.8445 -0.588
16.8747 0.409
16.9050 -0.156
16.9353 0.424
16.9656 -0.349
16.9959 -0.611
17.0261 0.587
17.0564 0.169
17.0867 0.325
17.1170 0.429
17.1472 0.533
17.1775 0.482
17.2078 -0.143
17.2381 -0.142
17.2684 0.380
17.2986 0.381
17.3289 0.383
17.3592 0.072
17.3895 0.126
17.4198 0.128
17.4500 0.131
17.4803 -0.179
17.5106 -0.905
17.5409 0.081
17.5712 -0.391
17.6014 0.283
17.6317 -0.189
17.6620 0.538
17.6923 -0.402
17.7225 1.002
17.7528 0.323
17.7831 -0.511
17.8134 -0.200
17.8437 0.840
17.8739 -0.098
17.9042 -0.203
17.9345 0.109
17.9648 -0.152
17.9951 0.317
18.0253 0.317
18.0556 -0.047
18.0859 -0.046
18.1162 -0.097
18.1464 0.008
18.1767 0.374
18.2070 0.011
18.2373 -0.195
18.2676 -0.349
18.2978 -0.245
18.3281 0.693
18.3584 -0.400
18.3887 0.017
18.4190 0.279
18.4492 0.384
18.4795 0.073
18.5098 0.022
18.5401 -0.288
18.5703 0.391
18.6006 0.237
18.6309 -0.177
18.6612 -0.538
18.6915 0.142
18.7217 -0.115
18.7520 0.097
18.7823 0.152
18.8126 0.104
18.8429 0.317
18.8731 -0.043
18.9034 -0.090
18.9337 0.071
18.9640 0.024
18.9942 0.602
19.0245 0.139
19.0548 -0.376
19.0851 0.099
19.1154 -0.155
19.1456 -0.565
19.1759 0.059
19.2062 0.110
19.2365 0.318
19.2668 -0.151
19.2970 -0.308
19.3273 0.161
19.3576 0.265
19.3879 0.787
19.4181 0.163
19.4484 0.059
19.4787 0.165
19.5090 0.166
19.5393 -0.093
19.5695 0.274
19.5998 0.068
19.6301 0.070
19.6604 0.281
19.6907 -0.081
19.7209 -0.025
19.7512 -0.126
19.7815 -0.123
19.8118 -0.223
19.8420 0.093
19.8723 0.202
19.9026 -0.262
19.9329 0.628
19.9632 -0.044
19.9934 -0.091
20.0237 -0.138
20.0540 -0.080
20.0843 0.134
20.1146 -0.068
20.1448 -0.114
20.1751 0.309
20.2054 0.264
20.2357 -0.354
20.2659 0.383
20.2962 0.494
20.3265 -0.123
20.3568 -0.323
20.3871 -0.116
20.4173 0.143
20.4476 -0.118
20.4779 0.246
20.5082 -0.066
20.5385 -0.014
20.5687 0.559
20.5990 0.039
20.6293 0.821
20.6596 -0.533
20.6899 -0.323
20.7201 -0.114
20.7504 -0.321
20.7807 0.148
20.8110 0.098
20.8412 0.360
20.8715 -0.055
20.9018 0.520
20.9321 0.262
20.9624 0.577
20.9926 0.320
21.0229 0.063
21.0532 0.170
21.0835 0.121
21.1138 0.073
21.1440 0.390
21.1743 0.602
21.2046 -0.226
21.2349 -0.326
21.2651 0.144
21.2954 -0.168
21.3257 -0.270
21.3560 0.877
21.3863 0.046
21.4165 0.516
21.4468 0.623
21.4771 -0.156
21.5074 -0.205
21.5377 -0.150
21.5679 0.634
21.5982 -0.247
21.6285 0.225
21.6588 -0.552
21.6890 0.285
21.7193 0.394
21.7496 -0.018
21.7799 0.247
21.8102 -0.112
21.8404 0.258
21.8707 0.159
21.9010 0.061
21.9313 -0.089
21.9616 -0.031
21.9918 0.392
22.0221 -0.018
22.0524 -0.427
22.0827 -0.068
22.1129 -0.230
22.1432 0.025
22.1735 0.020
22.2038 -0.297
22.2341 0.271
22.2643 -0.098
22.2946 0.107
22.3249 -0.366
22.3552 -0.109
22.3855 0.044
22.4157 0.145
22.4460 0.142
22.4763 0.296
22.5066 0.085
22.5368 -0.073
22.5671 0.029
22.5974 -0.129
22.6277 0.130
22.6580 -0.132
22.6882 -0.028
22.7185 -0.133
22.7488 0.075
22.7791 -0.134
22.8094 0.074
22.8396 0.127
22.8699 0.075
22.9002 -0.237
22.9305 0.701
22.9607 0.182
22.9910 -0.494
23.0213 -0.076
23.0516 -0.022
23.0819 0.397
23.1121 0.295
23.1424 -0.275
23.1727 -0.377
23.2030 0.192
23.2333 0.135
23.2635 0.236
23.2938 -0.133
23.3241 -0.553
23.3544 0.225
23.3846 -0.090
23.4149 0.115
23.4452 0.165
23.4755 0.214
23.5058 -0.152
23.5360 0.419
23.5663 0.313
23.5966 0.311
23.6269 -0.159
23.6572 -0.159
23.6874 -0.316
23.7177 -0.213
23.7480 0.152
23.7783 -0.213
23.8086 0.048
23.8388 0.049
23.8691 -0.263
23.8994 0.311
23.9297 0.104
23.9599 -0.311
23.9902 -0.205
24.0205 0.213
24.0508 0.059
24.0811 0.166
24.1113 -0.040
24.1416 0.224
24.1719 0.175
24.2022 -0.030
24.2325 -0.131
24.2627 -0.075
24.2930 0.815
24.3233 -0.014
24.3536 -0.010
24.3838 0.308
24.4141 0.365
24.4444 0.110
24.4747 -0.093
24.5050 0.902
24.5352 0.023
24.5655 0.133
24.5958 -0.069
24.6261 -0.114
24.6564 0.205
24.6866 0.160
24.7169 -0.041
24.7472 0.227
24.7775 0.287
24.8077 0.712
24.8380 0.252
24.8683 -0.105
24.8986 0.113
24.9289 -0.295
24.9591 -0.195
24.9894 0.270
25.0197 -0.047
25.0500 -0.363
25.0803 0.884
25.1105 -0.109
25.1408 0.461
25.1711 0.302
25.2014 0.144
25.2316 -0.067
25.2619 0.400
25.2922 0.034
25.3225 0.293
25.3528 -0.021
25.3830 0.030
25.4133 -0.075
25.4436 0.289
25.4739 0.185
25.5042 -0.024
25.5344 0.081
25.5647 0.081
25.5950 0.186
25.6253 0.395
25.6555 -0.072
25.6858 0.554
25.7161 0.191
25.7464 0.297
25.7767 0.455
25.8069 -0.324
25.8372 0.096
25.8675 0.307
25.8978 0.049
25.9281 -0.156
25.9583 0.004
25.9886 0.372
26.0189 0.272
26.0492 0.693
26.0794 0.072
26.1097 -0.079
26.1400 -0.127
26.1703 0.087
26.2006 0.144
26.2308 -0.215
26.2611 0.208
26.2914 -0.047
26.3217 0.168
26.3520 -0.086
26.3822 -0.288
26.4125 -0.033
26.4428 0.327
26.4731 0.791
26.5034 0.317
26.5336 0.209
26.5639 -0.056
26.5942 0.044
26.6245 0.041
26.6547 0.402
26.6850 0.190
26.7153 0.135
26.7456 0.080
26.7759 -0.183
26.8061 0.544
26.8364 0.021
26.8667 0.019
26.8970 -0.347
26.9273 -0.092
26.9575 0.059
26.9878 0.055
27.0181 0.050
27.0484 -0.423
27.0786 0.198
27.1089 -0.014
27.1392 -0.487
27.1695 0.656
27.1998 -0.129
27.2300 0.598
27.2603 0.230
27.2906 0.280
27.3209 0.174
27.3512 0.068
27.3814 0.118
27.4117 0.012
27.4420 0.219
27.4723 -0.198
27.5025 0.218
27.5328 -0.148
27.5631 0.269
27.5934 0.425
27.6237 -0.096
27.6539 0.009
27.6842 -0.251
27.7145 0.375
27.7448 0.220
27.7751 0.638
27.8053 -0.246
27.8356 -0.296
27.8659 0.383
27.8962 0.281
27.9264 0.127
27.9567 0.546
27.9870 -0.284
28.0173 -0.281
28.0476 0.244
28.0778 -0.117
28.1081 -0.322
28.1384 0.037
28.1687 0.136
28.1990 0.287
28.2292 -0.187
28.2595 0.277
28.2898 0.221
28.3201 0.268
28.3503 0.473
28.3806 -0.156
28.4109 -0.108
28.4412 0.410
28.4715 -0.062
28.5017 0.612
28.5320 0.401
28.5623 0.347
28.5926 -0.072
28.6229 0.395
28.6531 0.237
28.6834 -0.181
28.7137 0.442
28.7440 0.025
28.7742 0.024
28.8045 0.076
28.8348 -0.029
28.8651 0.440
28.8954 -0.185
28.9256 0.440
28.9559 0.076
28.9862 0.494
29.0165 0.183
29.0468 0.340
29.0770 -0.127
29.1073 0.031
29.1376 0.242
29.1679 0.452
29.1981 0.194
29.2284 -0.220
29.2587 -0.217
29.2890 0.464
29.3193 0.207
29.3495 -0.363
29.3798 0.162
29.4101 -0.302
29.4404 -0.302
29.4707 0.056
29.5009 -0.107
29.5312 0.095
29.5615 -0.015
29.5918 0.136
29.6221 0.704
29.6523 0.490
29.6826 0.016
29.7129 0.220
29.7432 -0.149
29.7734 -0.309
29.8037 -0.118
29.8340 -0.030
29.8643 0.526
29.8946 0.197
29.9248 -0.131
29.9551 0.634
29.9854 0.515
30.0157 -0.230
30.0460 0.016
30.0762 0.314
30.1065 -0.066
30.1368 0.493
30.1671 0.323
30.1973 0.153
30.2276 -0.173
30.2579 0.647
30.2882 0.165
30.3185 0.360
30.3487 -0.017
30.3790 0.231
30.4093 0.792
30.4396 -0.002
30.4699 0.820
30.5001 0.132
30.5304 0.381
30.5607 0.422
30.5910 0.463
30.6212 -0.016
30.6515 0.651
30.6818 0.432
30.7121 0.370
30.7424 0.465
30.7726 0.768
30.8029 0.655
30.8332 1.271
30.8635 0.897
30.8938 1.202
30.9240 1.037
30.9543 1.602
30.9846 1.438
31.0149 1.639
31.0451 1.007
31.0754 1.312
31.1057 1.462
31.1360 1.924
31.1663 2.803
31.1965 2.641
31.2268 2.895
31.2571 3.619
31.2874 5.540
31.3177 5.483
31.3479 5.843
31.3782 8.182
31.4085 8.438
31.4388 9.319
31.4690 11.503
31.4993 13.947
31.5296 18.839
31.5599 18.523
31.5902 21.020
31.6204 20.445
31.6507 19.296
31.6810 18.408
31.7113 16.531
31.7416 13.977
31.7718 12.674
31.8021 8.818
31.8324 9.129
31.8627 5.691
31.8929 4.753
31.9232 4.961
31.9535 3.710
31.9838 3.398
32.0141 1.940
32.0443 2.357
32.0746 2.879
32.1049 2.254
32.1352 2.099
32.1655 2.570
32.1957 2.311
32.2260 1.115
32.2563 1.325
32.2866 0.651
32.3169 1.434
32.3471 1.073
32.3774 0.086
32.4077 0.923
32.4380 1.447
32.4682 0.617
32.4985 0.153
32.5288 0.678
32.5591 0.057
32.5894 -0.198
32.6196 0.223
32.6499 0.072
32.6802 0.234
32.7105 0.239
32.7408 0.506
32.7710 0.043
32.8013 -0.367
32.8316 -0.174
32.8619 0.071
32.8921 0.109
32.9224 -0.114
32.9527 0.913
32.9830 0.795
33.0133 0.521
33.0435 0.039
33.0738 -0.079
33.1041 0.638
33.1344 -0.052
33.1647 0.352
33.1949 0.079
33.2252 0.379
33.2555 -0.101
33.2858 0.356
33.3160 -0.124
33.3463 0.594
33.3766 -0.719
33.4069 -0.261
33.4372 -0.115
33.4674 -0.178
33.4977 0.073
33.5280 0.167
33.5583 0.522
33.5886 -0.008
33.6188 -0.590
33.6491 0.026
33.6794 0.486
33.7097 0.426
33.7399 0.939
33.7702 0.306
33.8005 0.454
33.8308 1.020
33.8611 0.961
33.8913 1.683
33.9216 2.405
33.9519 1.878
33.9822 2.809
34.0125 3.064
34.0427 3.735
34.0730 3.886
34.1033 6.901
34.1336 8.511
34.1638 11.058
34.1941 14.074
34.2244 17.143
34.2547 20.576
34.2850 23.385
34.3152 20.048
34.3455 16.555
34.3758 12.854
34.4061 10.924
34.4364 7.744
34.4666 4.096
34.4969 3.833
34.5272 2.268
34.5575 2.162
34.5877 1.848
34.6180 2.160
34.6483 0.804
34.6786 1.116
34.7089 -0.083
34.7391 1.063
34.7694 0.854
34.7997 0.177
34.8300 1.063
34.8603 0.491
34.8905 0.804
34.9208 0.493
34.9511 0.233
34.9814 -0.286
35.0116 0.341
35.0419 0.603
35.0722 0.397
35.1025 0.920
35.1328 0.038
35.1630 0.561
35.1933 1.242
35.2236 0.360
35.2539 0.884
35.2842 0.367
35.3144 0.632
35.3447 1.261
35.3750 0.693
35.4053 0.697
35.4356 1.119
35.4658 1.333
35.4961 1.703
35.5264 1.969
35.5567 2.339
35.5869 1.825
35.6172 2.300
35.6475 2.671
35.6778 3.511
35.7081 4.196
35.7383 5.453
35.7686 5.513
35.7989 5.416
35.8292 5.528
35.8595 7.151
35.8897 10.077
35.9200 12.950
35.9503 15.511
35.9806 18.437
36.0108 19.905
36.0411 27.050
36.0714 27.789
36.1017 29.153
36.1320 28.851
36.1622 26.049
36.1925 23.508
36.2228 20.811
36.2531 16.708
36.2834 14.948
36.3136 11.991
36.3439 9.660
36.3742 7.849
36.4045 6.560
36.4347 6.104
36.4650 4.137
36.4953 4.411
36.5256 3.800
36.5559 3.032
36.5861 3.046
36.6164 1.914
36.6467 2.033
36.6770 1.787
36.7073 1.437
36.7375 1.557
36.7678 1.520
36.7981 0.494
36.8284 1.082
36.8586 1.463
36.8889 0.490
36.9192 0.558
36.9495 0.367
36.9798 0.800
37.0100 0.193
37.0403 0.783
37.0706 0.696
37.1009 0.350
37.1312 -0.153
37.1614 -0.343
37.1917 -0.078
37.2220 0.395
37.2523 0.347
37.2825 0.040
37.3128 0.722
37.3431 0.623
37.3734 0.576
37.4037 0.166
37.4339 0.015
37.4642 -0.030
37.4945 -0.024
37.5248 -0.069
37.5551 0.146
37.5853 -0.159
37.6156 0.681
37.6459 -0.353
37.6762 0.020
37.7064 0.340
37.7367 -0.276
37.7670 0.045
37.7973 0.054
37.8276 -0.406
37.8578 -0.136
37.8881 0.291
37.9184 0.145
37.9487 0.469
37.9790 -0.406
38.0092 0.282
38.0395 -0.019
38.0698 -0.528
38.1001 -0.047
38.1304 -0.140
38.1606 -0.231
38.1909 -0.063
38.2212 -0.154
38.2515 -0.297
38.2817 0.029
38.3120 0.198
38.3423 -0.205
38.3726 -0.034
38.4029 0.136
38.4331 -0.162
38.4634 -0.408
38.4937 0.336
38.5240 0.039
38.5543 0.158
38.5845 0.330
38.6148 -0.175
38.6451 0.154
38.6754 0.483
38.7056 -0.126
38.7359 -0.109
38.7662 0.116
38.7965 -0.075
38.8268 -0.214
38.8570 -0.092
38.8873 -0.074
38.9176 -0.264
38.9479 -0.045
38.9782 0.227
39.0084 0.291
39.0387 -0.062
39.0690 0.315
39.0993 -0.090
39.1295 -0.338
39.1598 0.026
39.1901 0.130
39.2204 0.182
39.2507 0.235
39.2809 0.600
39.3112 -0.285
39.3415 -0.024
39.3718 0.134
39.4021 0.344
39.4323 0.866
39.4626 -0.070
39.4929 0.557
39.5232 0.143
39.5534 -0.063
39.5837 0.201
39.6140 0.464
39.6443 -0.210
39.6746 -0.206
39.7048 0.214
39.7351 -0.042
39.7654 0.223
39.7957 0.123
39.8260 0.128
39.8562 -0.440
39.8865 -0.186
39.9168 0.069
39.9471 0.480
39.9773 0.110
40.0076 -0.363
40.0379 0.205
40.0682 -0.112
40.0985 -0.012
40.1287 -0.120
40.1590 -0.176
40.1893 0.237
40.2196 -0.131
40.2499 0.022
40.2801 -0.293
40.3104 0.225
40.3407 -0.142
40.3710 0.221
40.4012 -0.198
40.4315 -0.304
40.4618 0.268
40.4921 0.319
40.5224 -0.151
40.5526 -0.100
40.5829 0.264
40.6132 -0.101
40.6435 -0.101
40.6738 -0.100
40.7040 0.056
40.7343 -0.256
40.7646 -0.256
40.7949 0.005
40.8251 -0.150
40.8554 0.163
40.8857 -0.200
40.9160 -0.250
40.9463 -0.092
40.9765 0.222
41.0068 0.068
41.0371 -0.190
41.0674 0.021
41.0977 -0.237
41.1279 -0.233
41.1582 0.134
41.1885 -0.122
41.2188 0.142
41.2491 -0.010
41.2793 -0.371
41.3096 0.311
41.3399 0.003
41.3702 -0.148
41.4004 -0.247
41.4307 0.065
41.4610 0.324
41.4913 -0.041
41.5216 0.011
41.5518 0.219
41.5821 0.011
41.6124 -0.093
41.6427 0.481
41.6730 0.013
41.7032 -0.142
41.7335 0.015
41.7638 0.121
41.7941 0.123
41.8243 -0.344
41.8546 -0.081
41.8849 -0.131
41.9152 0.080
41.9455 -0.073
41.9757 0.190
42.0060 0.142
42.0363 0.302
42.0666 -0.528
42.0969 0.153
42.1271 0.158
42.1574 -0.150
42.1877 0.115
42.2180 0.016
42.2482 -0.291
42.2785 0.079
42.3088 0.137
42.3391 0.195
42.3694 0.305
42.3996 0.260
42.4299 0.214
42.4602 -0.091
42.4905 0.228
42.5208 -0.129
42.5510 -0.277
42.5813 0.147
42.6116 -0.001
42.6419 -0.201
42.6721 0.172
42.7024 0.077
42.7327 0.086
42.7630 0.043
42.7933 0.574
42.8235 0.375
42.8538 0.125
42.8841 0.083
42.9144 -0.115
42.9447 -0.209
42.9749 -0.011
43.0052 0.240
43.0355 0.386
43.0658 0.325
43.0960 -0.101
43.1263 0.046
43.1566 -0.119
43.1869 0.029
43.2172 0.124
43.2474 -0.196
43.2777 0.525
43.3080 -0.108
43.3383 0.458
43.3686 0.138
43.3988 -0.494
43.4291 0.177
43.4594 0.118
43.4897 0.164
43.5199 0.002
43.5502 -0.004
43.5805 0.042
43.6108 0.193
43.6411 0.240
43.6713 -0.441
43.7016 -0.082
43.7319 -0.034
43.7622 0.066
43.7925 0.167
43.8227 -0.150
43.8530 -0.257
43.8833 0.104
43.9136 0.152
43.9439 0.045
43.9741 0.094
44.0044 0.040
44.0347 0.454
44.0650 0.295
44.0952 -0.332
44.1255 -0.229
44.1558 -0.022
44.1861 -0.388
44.2164 -0.030
44.2466 -0.140
44.2769 0.063
44.3072 0.058
44.3375 -0.416
44.3678 0.048
44.3980 0.356
44.4283 -0.117
44.4586 0.140
44.4889 0.032
44.5191 0.080
44.5494 -0.184
44.5797 0.178
44.6100 -0.033
44.6403 0.016
44.6705 0.014
44.7008 0.480
44.7311 -0.459
44.7614 0.112
44.7917 0.006
44.8219 -0.256
44.8522 -0.100
44.8825 0.003
44.9128 -0.310
44.9430 0.262
44.9733 -0.311
45.0036 -0.051
45.0339 -0.103
45.0642 -0.154
45.0944 0.107
45.1247 0.056
45.1550 -0.256
45.1853 -0.153
45.2156 -0.258
45.2458 0.418
45.2761 -0.469
45.3064 -0.157
45.3367 -0.157
45.3669 0.259
45.3972 -0.366
45.4275 -0.105
45.4578 -0.365
45.4881 0.048
45.5183 -0.164
45.5486 0.040
45.5789 0.141
45.6092 -0.331
45.6395 0.083
45.6697 -0.128
45.7000 -0.182
45.7303 0.232
45.7606 0.335
45.7908 -0.136
45.8211 0.019
45.8514 0.278
45.8817 -0.192
45.9120 0.068
45.9422 -0.193
45.9725 -0.089
46.0028 0.015
46.0331 -0.401
46.0634 0.016
46.0936 0.277
46.1239 0.017
46.1542 0.227
46.1845 0.384
46.2147 -0.083
46.2450 -0.133
46.2753 -0.287
46.3056 0.069
46.3359 0.477
46.3661 -0.052
46.3964 -0.007
46.4267 0.246
46.4570 0.134
46.4873 -0.185
46.5175 0.016
46.5478 0.427
46.5781 0.472
46.6084 -0.107
46.6386 -0.008
46.6689 0.299
46.6992 -0.019
46.7295 0.497
46.7598 0.648
46.7900 0.435
46.8203 0.535
46.8506 0.218
46.8809 0.318
46.9112 0.262
46.9414 0.571
46.9717 0.412
47.0020 1.398
47.0323 0.667
47.0626 0.247
47.0928 1.078
47.1231 1.128
47.1534 1.387
47.1837 1.646
47.2139 2.113
47.2442 2.945
47.2745 3.569
47.3048 3.829
47.3351 4.923
47.3653 4.245
47.3956 4.610
47.4259 4.714
47.4562 4.923
47.4865 3.257
47.5167 3.102
47.5470 3.259
47.5773 2.792
47.6076 2.325
47.6378 1.337
47.6681 1.652
47.6984 0.769
47.7287 2.126
47.7590 1.035
47.7892 1.246
47.8195 0.208
47.8498 0.264
47.8801 0.267
47.9104 0.532
47.9406 0.432
47.9709 0.332
48.0012 0.597
48.0315 -0.075
48.0617 0.764
48.0920 0.248
48.1223 0.150
48.1526 -0.157
48.1829 0.318
48.2131 0.116
48.2434 0.071
48.2737 -0.027
48.3040 -0.072
48.3343 -0.168
48.3645 -0.057
48.3948 0.055
48.4251 0.272
48.4554 0.124
48.4856 0.288
48.5159 0.245
48.5462 0.202
48.5765 -0.102
48.6068 -0.092
48.6370 0.490
48.6673 -0.177
48.6976 0.094
48.7279 0.052
48.7582 0.271
48.7884 0.073
48.8187 -0.124
48.8490 -0.113
48.8793 -0.309
48.9095 0.055
48.9398 0.419
48.9701 0.003
49.0004 0.368
49.0307 0.056
49.0609 0.369
49.0912 0.474
49.1215 0.111
49.1518 0.008
49.1821 -0.146
49.2123 0.273
49.2426 -0.038
49.2729 0.434
49.3032 -0.241
49.3334 -0.238
49.3637 0.021
49.3940 -0.346
49.4243 0.330
49.4546 0.068
49.4848 -0.037
49.5151 0.119
49.5454 -0.142
49.5757 0.379
49.6060 0.014
49.6362 0.483
49.6665 0.379
49.6968 0.536
49.7271 0.016
49.7574 0.069
49.7876 0.123
49.8179 0.177
49.8482 0.022
49.8785 0.024
49.9087 -0.286
49.9390 0.081
49.9693 0.188
49.9996 0.191
50.0299 0.455
50.0601 0.563
50.0904 0.462
50.1207 0.050
50.1510 -0.050
50.1813 0.214
50.2115 0.167
50.2418 -0.036
50.2721 -0.031
50.3024 0.130
50.3326 -0.229
50.3629 -0.442
50.3932 0.490
50.4235 0.068
50.4538 0.324
50.4840 0.528
50.5143 0.211
50.5446 0.155
50.5749 0.203
50.6052 0.252
50.6354 -0.168
50.6657 -0.119
50.6960 0.190
50.7263 0.084
50.7565 0.289
50.7868 0.339
50.8171 -0.183
50.8474 -0.341
50.8777 0.438
50.9079 0.073
50.9382 -0.189
50.9685 0.227
50.9988 0.279
51.0291 0.383
51.0593 -0.086
51.0896 -0.034
51.1199 0.019
51.1502 0.228
51.1804 0.228
51.2107 -0.343
51.2410 -0.238
51.2713 0.280
51.3016 0.173
51.3318 -0.038
51.3621 -0.092
51.3924 0.114
51.4227 -0.148
51.4530 0.111
51.4832 0.162
51.5135 0.213
51.5438 0.576
51.5741 -0.101
51.6043 0.107
51.6346 -0.050
51.6649 0.054
51.6952 -0.049
51.7255 -0.257
51.7557 0.004
51.7860 0.005
51.8163 -0.045
51.8466 0.008
51.8769 0.219
51.9071 0.221
51.9374 -0.246
51.9677 0.226
51.9980 0.176
52.0282 -0.081
52.0585 -0.234
52.0888 -0.439
52.1191 0.184
52.1494 0.182
52.1796 -0.132
52.2099 -0.238
52.2402 -0.189
52.2705 0.069
52.3008 -0.142
52.3310 0.429
52.3613 -0.354
52.3916 0.165
52.4219 -0.357
52.4521 0.058
52.4824 -0.151
52.5127 0.004
52.5430 0.108
52.5733 -0.101
52.6035 -0.257
52.6338 0.052
52.6641 0.205
52.6944 -0.162
52.7247 0.356
52.7549 -0.219
52.7852 -0.064
52.8155 -0.066
52.8458 0.193
52.8761 -0.017
52.9063 0.190
52.9366 0.346
52.9669 -0.124
52.9972 0.032
53.0274 0.032
53.0577 0.241
53.0880 0.085
53.1183 -0.071
53.1486 -0.174
53.1788 -0.225
53.2091 0.037
53.2394 0.142
53.2697 0.352
53.3000 -0.323
53.3302 0.096
53.3605 -0.318
53.3908 0.414
53.4211 -0.260
53.4513 -0.153
53.4816 -0.098
53.5119 0.166
53.5422 -0.142
53.5725 -0.086
53.6027 -0.238
53.6330 -0.089
53.6633 0.164
53.6936 -0.052
53.7239 0.097
53.7541 -0.118
53.7844 0.084
53.8147 -0.026
53.8450 -0.084
53.8752 -0.038
53.9055 0.165
53.9358 -0.101
53.9661 0.258
53.9964 0.254
54.0266 0.353
54.0569 -0.224
54.0872 0.188
54.1175 0.288
54.1478 -0.184
54.1780 0.125
54.2083 0.382
54.2386 -0.037
54.2689 -0.092
54.2991 -0.303
54.3294 0.059
54.3597 -0.307
54.3900 -0.049
54.4203 0.210
54.4505 0.052
54.4808 -0.105
54.5111 0.103
54.5414 -0.054
54.5717 -0.159
54.6019 -0.003
54.6322 -0.315
54.6625 0.050
54.6928 -0.314
54.7230 0.155
54.7533 -0.313
54.7836 -0.209
54.8139 -0.001
54.8442 -0.158
54.8744 0.050
54.9047 -0.001
54.9350 -0.001
54.9653 -0.521
54.9956 -0.061
55.0258 -0.330
55.0561 0.079
55.0864 -0.033
55.1167 0.063
55.1469 -0.100
55.1772 -0.107
55.2075 0.198
55.2378 0.296
55.2681 -0.180
55.2983 -0.134
55.3286 -0.088
55.3589 0.115
55.3892 -0.203
55.4195 0.104
55.4497 0.203
55.4800 -0.010
55.5103 -0.379
55.5406 0.241
55.5709 -0.127
55.6011 0.025
55.6314 -0.083
55.6617 0.226
55.6920 0.536
55.7222 -0.144
55.7525 0.217
55.7828 0.371
55.8131 0.629
55.8434 0.159
55.8736 0.365
55.9039 0.936
55.9342 1.091
55.9645 0.413
55.9948 0.412
56.0250 0.828
56.0553 0.203
56.0856 0.880
56.1159 2.286
56.1461 1.662
56.1764 1.506
56.2067 2.653
56.2370 1.352
56.2673 2.707
56.2975 3.542
56.3278 3.804
56.3581 4.379
56.3884 5.944
56.4187 4.592
56.4489 5.949
56.4792 5.639
56.5095 5.382
56.5398 5.489
56.5700 5.128
56.6003 4.820
56.6306 3.782
56.6609 3.109
56.6912 2.958
56.7214 2.754
56.7517 2.290
56.7820 1.723
56.8123 1.624
56.8426 1.474
56.8728 1.584
56.9031 0.652
56.9334 0.607
56.9637 -0.064
56.9939 0.620
57.0242 0.940
57.0545 0.270
57.0848 0.017
57.1151 0.338
57.1453 -0.071
57.1756 -0.011
57.2059 -0.158
57.2362 0.267
57.2665 0.537
57.2967 0.858
57.3270 0.347
57.3573 0.148
57.3876 0.419
57.4178 0.168
57.4481 0.283
57.4784 0.762
57.5087 -0.164
57.5390 -0.361
57.5692 0.110
57.5995 -0.148
57.6298 -0.040
57.6601 -0.089
57.6904 -0.190
57.7206 -0.238
57.7509 -0.078
57.7812 0.031
57.8115 0.244
57.8417 -0.064
57.8720 -0.163
57.9023 0.311
57.9326 0.264
57.9629 0.165
57.9931 0.640
58.0234 0.021
58.0537 0.392
58.0840 0.138
58.1143 0.093
58.1445 -0.108
58.1748 -0.257
58.2051 0.584
58.2354 0.070
58.2656 0.131
58.2959 0.295
58.3262 0.147
58.3565 0.156
58.3868 -0.304
58.4170 -0.203
58.4473 0.055
58.4776 0.833
58.5079 0.154
58.5382 0.047
58.5684 0.150
58.5987 0.200
58.6290 0.042
58.6593 -0.011
58.6896 0.196
58.7198 -0.065
58.7501 0.455
58.7804 0.195
58.8107 -0.066
58.8409 0.091
58.8712 0.143
58.9015 -0.012
58.9318 -0.064
58.9621 -0.219
58.9923 -0.065
59.0226 0.453
59.0529 0.190
59.0832 0.084
59.1135 -0.074
59.1437 0.341
59.1740 0.132
59.2043 0.078
59.2346 0.182
59.2648 -0.131
59.2951 0.077
59.3254 0.129
59.3557 0.285
59.3860 0.129
59.4162 -0.391
59.4465 0.026
59.4768 0.131
59.5071 -0.024
59.5374 0.030
59.5676 0.136
59.5979 -0.227
59.6282 -0.172
59.6585 0.144
59.6887 -0.114
59.7190 -0.214
59.7493 0.310
59.7796 0.262
59.8099 0.058
59.8401 0.114
59.8704 0.067
59.9007 0.176
59.9310 0.129
59.9613 -0.022
59.9915 -0.277
60.0218 -0.022
60.0521 -0.132
60.0824 0.122
60.1126 -0.091
60.1429 0.112
60.1732 -0.049
60.2035 -0.002
60.2338 -0.110
60.2640 -0.219
60.2943 -0.067
60.3246 0.397
60.3549 -0.076
60.3852 -0.185
60.4154 0.124
60.4457 -0.036
60.4760 -0.195
60.5063 0.010
60.5365 0.111
60.5668 0.317
60.5971 0.106
60.6274 -0.053
60.6577 0.049
60.6879 0.204
60.7182 0.202
60.7485 -0.163
60.7788 0.044
60.8091 0.043
60.8393 -0.010
60.8696 0.042
60.8999 0.302
60.9302 -0.114
60.9604 0.095
60.9907 -0.061
61.0210 -0.112
61.0513 0.097
61.0816 0.411
61.1118 0.152
61.1421 0.049
61.1724 0.156
61.2027 0.054
61.2330 -0.048
61.2632 0.215
61.2935 0.218
61.3238 0.013
61.3541 -0.244
61.3844 0.176
61.4146 -0.028
61.4449 -0.180
61.4752 0.032
61.5055 0.037
61.5357 -0.219
61.5660 -0.125
61.5963 0.541
61.6266 -0.042
61.6569 0.312
61.6871 0.302
61.7174 0.762
61.7477 0.127
61.7780 0.222
61.8083 0.213
61.8385 -0.004
61.8688 0.352
61.8991 0.500
61.9294 0.180
61.9596 0.485
61.9899 0.165
62.0202 0.157
62.0505 0.254
62.0808 0.977
62.1110 0.501
62.1413 0.547
62.1716 0.176
62.2019 0.796
62.2322 0.686
62.2624 0.576
62.2927 0.519
62.3230 1.243
62.3533 0.926
62.3835 1.182
62.4138 1.542
62.4441 1.538
62.4744 1.378
62.5047 2.677
62.5349 2.621
62.5652 2.775
62.5955 2.876
62.6258 3.967
62.6561 5.163
62.6863 4.379
62.7166 4.482
62.7469 4.792
62.7772 3.281
62.8074 3.227
62.8377 4.424
62.8680 3.851
62.8983 3.433
62.9286 2.339
62.9588 1.819
62.9891 2.548
63.0194 1.663
63.0497 1.872
63.0800 1.092
63.1102 0.937
63.1405 0.990
63.1708 1.252
63.2011 0.733
63.2313 0.683
63.2616 0.269
63.2919 0.271
63.3222 -0.195
63.3525 0.173
63.3827 0.385
63.4130 0.128
63.4433 0.340
63.4736 0.396
63.5039 -0.069
63.5341 0.405
63.5644 0.201
63.5947 0.154
63.6250 -0.102
63.6552 -0.096
63.6855 -0.247
63.7158 -0.143
63.7461 0.014
63.7764 0.119
63.8066 -0.036
63.8369 -0.400
63.8672 0.018
63.8975 0.228
63.9278 0.074
63.9580 -0.185
63.9883 0.130
64.0186 -0.336
64.0489 -0.179
64.0791 0.083
64.1094 -0.176
64.1397 0.138
64.1700 -0.277
64.2003 -0.119
64.2305 -0.168
64.2608 -0.218
64.2911 -0.111
64.3214 0.153
64.3517 -0.157
64.3819 -0.257
64.4122 0.111
64.4425 -0.250
64.4728 0.275
64.5031 -0.190
64.5333 -0.238
64.5636 -0.082
64.5939 -0.134
64.6242 -0.238
64.6544 -0.185
64.6847 -0.081
64.7150 -0.080
64.7453 0.286
64.7756 -0.338
64.8058 -0.128
64.8361 -0.022
64.8664 -0.072
64.8967 0.087
64.9270 0.037
64.9572 -0.221
64.9875 0.043
65.0178 -0.110
65.0481 -0.107
65.0783 -0.103
65.1086 -0.516
65.1389 0.053
65.1692 -0.368
65.1995 0.149
65.2297 -0.219
65.2600 -0.118
65.2903 0.244
65.3206 0.085
65.3509 -0.230
65.3811 -0.128
65.4114 -0.130
65.4417 -0.080
65.4720 -0.238
65.5022 -0.091
65.5325 -0.205
65.5628 -0.161
65.5931 -0.222
65.6234 0.030
65.6536 -0.187
65.6839 0.274
65.7142 -0.099
65.7445 0.258
65.7748 -0.166
65.8050 -0.173
65.8353 0.185
65.8656 -0.187
65.8959 0.328
65.9261 0.009
65.9564 0.003
65.9867 -0.003
66.0170 0.252
66.0473 -0.118
66.0775 0.450
66.1078 0.185
66.1381 0.910
66.1684 0.280
66.1987 0.328
66.2289 0.741
66.2592 0.685
66.2895 0.109
66.3198 -0.154
66.3500 0.051
66.3803 0.413
66.4106 -0.006
66.4409 0.200
66.4712 -0.062
66.5014 -0.064
66.5317 -0.170
66.5620 0.089
66.5923 0.088
66.6226 0.139
66.6528 -0.122
66.6831 0.034
66.7134 -0.226
66.7437 -0.070
66.7739 0.191
66.8042 0.140
66.8345 0.401
66.8648 -0.223
66.8951 0.247
66.9253 -0.324
66.9556 -0.166
66.9859 -0.164
67.0162 -0.110
67.0465 -0.264
67.0767 0.042
67.1070 0.036
67.1373 0.135
67.1676 0.077
67.1978 0.332
67.2281 -0.090
67.2584 0.322
67.2887 -0.256
67.3190 0.157
67.3492 -0.004
67.3795 0.148
67.4098 0.666
67.4401 1.183
67.4704 0.867
67.5006 0.656
67.5309 1.747
67.5612 0.911
67.5915 1.169
67.6218 2.313
67.6520 1.373
67.6823 1.997
67.7126 2.256
67.7429 1.994
67.7731 2.670
67.8034 3.347
67.8337 2.774
67.8640 3.034
67.8943 2.878
67.9245 2.774
67.9548 2.982
67.9851 2.254
68.0154 2.203
68.0457 2.465
68.0759 1.841
68.1062 1.009
68.1365 1.115
68.1668 0.857
68.1970 0.703
68.2273 0.445
68.2576 0.709
68.2879 0.816
68.3182 0.923
68.3484 -0.063
68.3787 0.514
68.4090 0.414
68.4393 0.210
68.4696 0.371
68.4998 0.532
68.5301 -0.036
68.5604 -0.135
68.5907 0.495
68.6209 0.605
68.6512 0.507
68.6815 0.252
68.7118 0.154
68.7421 0.422
68.7723 0.897
68.8026 0.748
68.8329 0.651
68.8632 0.867
68.8935 1.083
68.9237 0.779
68.9540 1.308
68.9843 1.368
69.0146 1.637
69.0448 0.761
69.0751 1.499
69.1054 0.936
69.1357 0.945
69.1660 0.382
69.1962 0.705
69.2265 0.924
69.2568 0.413
69.2871 -0.045
69.3174 0.227
69.3476 0.342
69.3779 0.302
69.4082 0.209
69.4385 0.221
69.4687 0.338
69.4990 -0.067
69.5293 0.259
69.5596 -0.041
69.5899 0.337
69.6201 0.507
69.6504 0.260
69.6807 -0.403
69.7110 0.027
69.7413 0.094
69.7715 0.525
69.8018 0.279
69.8321 0.711
69.8624 0.101
69.8926 -0.352
69.9229 -0.147
69.9532 0.006
69.9835 -0.258
70.0138 0.365
70.0440 -0.263
70.0743 -0.005
70.1046 0.097
70.1349 -0.321
70.1652 0.302
70.1954 0.144
70.2257 0.091
70.2560 0.090
70.2863 -0.171
70.3166 0.193
70.3468 0.193
70.3771 -0.224
70.4074 -0.015
70.4377 -0.171
70.4679 0.403
70.4982 -0.013
70.5285 0.093
70.5588 0.042
70.5891 0.148
70.6193 -0.267
70.6496 0.100
70.6799 -0.054
70.7102 0.105
70.7405 -0.257
70.7707 0.110
70.8010 -0.147
70.8313 0.117
70.8616 -0.139
70.8918 -0.083
70.9221 -0.027
70.9524 -0.127
70.9827 0.138
71.0130 0.039
71.0432 0.149
71.0735 0.206
71.1038 0.785
71.1341 -0.043
71.1644 -0.089
71.1946 -0.187
71.2249 -0.184
71.2552 -0.077
71.2855 0.134
71.3157 -0.176
71.3460 -0.068
71.3763 -0.065
71.4066 -0.165
71.4369 0.099
71.4671 0.051
71.4974 0.004
71.5277 -0.044
71.5580 -0.143
71.5883 0.071
71.6185 -0.028
71.6488 0.394
71.6791 0.088
71.7094 -0.011
71.7396 0.412
71.7699 -0.050
71.8002 0.009
71.8305 0.068
71.8608 0.232
71.8910 -0.021
71.9213 -0.118
71.9516 -0.162
71.9819 -0.060
72.0122 0.093
72.0424 -0.222
72.0727 0.088
72.1030 -0.279
72.1333 0.240
72.1635 0.343
72.1938 0.289
72.2241 -0.024
72.2544 0.027
72.2847 0.234
72.3149 0.442
72.3452 0.234
72.3755 0.234
72.4058 0.234
72.4361 0.130
72.4663 -0.077
72.4966 0.705
72.5269 0.237
72.5572 0.239
72.5874 0.240
72.6177 0.450
72.6480 0.244
72.6783 0.507
72.7086 0.353
72.7388 0.096
72.7691 -0.214
72.7994 -0.118
72.8297 0.083
72.8600 0.232
72.8902 0.381
72.9205 0.218
72.9508 0.107
72.9811 0.048
73.0113 -0.167
73.0416 -0.017
73.0719 0.186
73.1022 0.024
73.1325 -0.242
73.1627 0.430
73.1930 0.008
73.2233 0.056
73.2536 0.103
73.2839 0.255
73.3141 -0.009
73.3444 -0.117
73.3747 0.140
73.4050 0.137
73.4353 0.134
73.4655 0.235
73.4958 -0.028
73.5261 -0.187
73.5564 -0.033
73.5866 0.069
73.6169 -0.037
73.6472 0.118
73.6775 0.168
73.7078 0.115
73.7380 0.062
73.7683 0.061
73.7986 -0.252
73.8289 0.164
73.8592 0.112
73.8894 -0.148
73.9197 -0.096
73.9500 0.269
73.9803 -0.042
74.0105 0.011
74.0408 -0.092
74.0711 -0.143
74.1014 0.015
74.1317 0.017
74.1619 -0.032
74.1922 0.022
74.2225 -0.079
74.2528 -0.024
74.2831 -0.073
74.3133 0.191
74.3436 0.142
74.3739 -0.375
74.4042 -0.171
74.4344 0.136
74.4647 0.027
74.4950 0.284
74.5253 -0.085
74.5556 0.223
74.5858 -0.145
74.6161 -0.148
74.6464 0.005
74.6767 0.002
74.7070 0.103
74.7372 0.101
74.7675 -0.058
74.7978 -0.112
74.8281 -0.061
74.8583 0.093
74.8886 -0.064
74.9189 -0.065
74.9492 0.090
74.9795 -0.223
75.0097 0.037
75.0400 -0.015
75.0703 0.089
75.1006 0.037
75.1309 -0.118
75.1611 -0.065
75.1914 -0.273
75.2217 0.039
75.2520 0.039
75.2822 -0.013
75.3125 -0.065
75.3428 0.144
75.3731 0.092
75.4034 0.093
75.4336 -0.062
75.4639 -0.008
75.4942 0.254
75.5245 0.308
75.5548 -0.315
75.5850 0.208
75.6153 -0.102
75.6456 0.109
75.6759 -0.096
75.7061 0.063
75.7364 -0.194
75.7667 -0.090
75.7970 0.221
75.8273 0.012
75.8575 -0.040
75.8878 0.116
75.9181 0.116
75.9484 0.117
75.9787 -0.039
76.0089 0.222
76.0392 -0.193
76.0695 -0.140
76.0998 0.070
76.1301 -0.137
76.1603 -0.187
76.1906 -0.038
76.2209 0.008
76.2512 0.157
76.2814 -0.006
76.3117 0.040
76.3420 0.138
76.3723 0.237
76.4026 0.075
76.4328 -0.191
76.4631 0.273
76.4934 0.008
76.5237 0.003
76.5540 0.363
76.5842 0.255
76.6145 0.043
76.6448 -0.065
76.6751 0.296
76.7053 -0.124
76.7356 0.238
76.7659 0.235
76.7962 0.441
76.8265 0.855
76.8567 0.124
76.8870 0.278
76.9173 0.225
76.9476 0.327
76.9779 0.118
77.0081 -0.039
77.0384 0.585
77.0687 0.064
77.0990 0.168
77.1292 0.429
77.1595 0.012
77.1898 0.429
77.2201 0.170
77.2504 -0.298
77.2806 0.120
77.3109 0.121
77.3412 0.279
77.3715 0.073
77.4018 -0.081
77.4320 -0.131
77.4623 0.132
77.4926 0.239
77.5229 0.034
77.5531 0.142
77.5834 -0.376
77.6137 0.045
77.6440 0.049
77.6743 0.262
77.7045 -0.255
77.7348 -0.198
77.7651 0.166
77.7954 -0.200
77.8257 0.060
77.8559 0.112
77.8862 0.060
77.9165 0.060
77.9468 0.009
77.9770 -0.147
78.0073 0.010
78.0376 -0.093
78.0679 -0.039
78.0982 0.067
78.1284 -0.036
78.1587 -0.190
78.1890 0.021
78.2193 -0.237
78.2496 -0.026
78.2798 0.081
78.3101 0.033
78.3404 -0.172
78.3707 -0.377
78.4009 0.140
78.4312 -0.280
78.4615 -0.127
78.4918 -0.130
78.5221 -0.080
78.5523 0.178
78.5826 -0.241
78.6129 -0.139
78.6432 0.067
78.6735 -0.143
78.7037 0.012
78.7340 0.011
78.7643 -0.198
78.7946 -0.042
78.8248 0.010
78.8551 0.010
78.8854 -0.042
78.9157 0.063
78.9460 0.012
78.9762 -0.352
79.0065 0.066
79.0368 -0.037
79.0671 0.069
79.0974 0.123
79.1276 -0.083
79.1579 0.076
79.1882 -0.078
79.2185 0.237
79.2488 0.032
79.2790 0.036
79.3093 -0.169
79.3396 0.251
79.3699 0.099
79.4001 0.156
79.4304 0.108
79.4607 0.061
79.4910 0.222
79.5213 0.227
79.5515 0.285
79.5818 0.342
79.6121 0.140
79.6424 0.042
79.6727 -0.316
79.7029 0.211
79.7332 0.114
79.7635 -0.243
79.7938 -0.138
79.8240 0.019
79.8543 0.281
79.8846 0.127
79.9149 0.181
79.9452 0.026
79.9754 0.133
80.0057 -0.229
80.0360 0.191
80.0663 0.194
80.0966 -0.168
80.1268 -0.216
80.1571 0.139
80.1874 0.078
80.2177 -0.139
80.2479 0.164
80.2782 -0.052
80.3085 0.148
80.3388 -0.225
80.3691 -0.076
80.3993 -0.136
80.4296 0.378
80.4599 0.058
80.4902 0.052
80.5205 -0.111
80.5507 -0.013
80.5810 -0.124
80.6113 0.079
80.6416 -0.291
80.6718 0.016
80.7021 -0.041
80.7324 -0.098
80.7627 0.210
80.7930 0.101
80.8232 0.045
80.8535 -0.011
80.8838 0.089
80.9141 -0.019
80.9444 0.291
80.9746 -0.181
81.0049 0.441
81.0352 0.022
81.0655 -0.085
81.0957 -0.035
81.1260 0.224
81.1563 0.222
81.1866 -0.456
81.2169 -0.145
81.2471 0.167
81.2774 -0.199
81.3077 0.218
81.3380 -0.095
81.3683 -0.095
81.3985 0.114
81.4288 0.010
81.4591 0.063
81.4894 -0.249
81.5196 0.013
81.5499 0.223
81.5802 -0.297
81.6105 0.018
81.6408 -0.136
81.6710 0.439
81.7013 -0.079
81.7316 -0.129
81.7619 -0.125
81.7922 -0.070
81.8224 -0.223
81.8527 0.039
81.8830 -0.064
81.9133 -0.115
81.9436 0.043
81.9738 0.254
82.0041 0.152
82.0344 -0.366
82.0647 -0.103
82.0949 -0.048
82.1252 -0.097
82.1555 -0.198
82.1858 -0.042
82.2161 0.062
82.2463 -0.094
82.2766 0.010
82.3069 -0.198
82.3372 -0.147
82.3675 0.061
82.3977 -0.043
82.4280 0.374
82.4583 -0.199
82.4886 -0.042
82.5188 -0.146
82.5491 0.063
82.5794 0.273
82.6097 -0.194
82.6400 0.016
82.6702 -0.035
82.7005 0.072
82.7308 -0.343
82.7611 0.129
82.7914 -0.077
82.8216 0.135
82.8519 0.294
82.8822 -0.119
82.9125 0.041
82.9427 -0.163
82.9730 0.049
83.0033 0.106
83.0336 0.006
83.0639 0.011
83.0941 -0.140
83.1244 -0.187
83.1547 -0.129
83.1850 -0.020
83.2153 -0.327
83.2455 0.096
83.2758 0.102
83.3061 0.577
83.3364 -0.145
83.3666 0.174
83.3969 0.129
83.4272 -0.072
83.4575 -0.117
83.4878 0.047
83.5180 0.107
83.5483 -0.093
83.5786 0.228
83.6089 0.081
83.6392 -0.015
83.6694 -0.162
83.6997 -0.115
83.7300 -0.016
83.7603 -0.125
83.7905 0.443
83.8208 -0.239
83.8511 0.226
83.8814 0.117
83.9117 -0.095
83.9419 -0.046
83.9722 -0.050
84.0025 0.051
84.0328 -0.212
84.0631 0.202
84.0933 0.096
84.1236 0.041
84.1539 -0.065
84.1842 0.038
84.2144 0.088
84.2447 -0.017
84.2750 -0.175
84.3053 -0.125
84.3356 -0.024
84.3658 -0.078
84.3961 0.180
84.4264 -0.239
84.4567 0.072
84.4870 -0.138
84.5172 0.174
84.5475 -0.036
84.5778 -0.193
84.6081 0.171
84.6383 -0.089
84.6686 0.067
84.6989 0.223
84.7292 0.172
84.7595 0.068
84.7897 -0.191
84.8200 -0.089
84.8503 0.065
84.8806 -0.197
84.9109 -0.042
84.9411 -0.043
84.9714 0.060
85.0017 0.059
85.0320 0.215
85.0623 0.162
85.0925 -0.046
85.1228 0.111
85.1531 0.059
85.1834 -0.149
85.2136 -0.044
85.2439 0.322
85.2742 0.167
85.3045 0.117
85.3348 -0.038
85.3650 0.016
85.3953 -0.085
85.4256 -0.291
85.4559 0.180
85.4862 -0.129
85.5164 0.030
85.5467 -0.175
85.5770 -0.126
85.6073 -0.129
85.6375 0.181
85.6678 -0.134
85.6981 0.073
85.7284 0.175
85.7587 -0.035
85.7889 0.015
85.8192 -0.142
85.8495 -0.039
85.8798 -0.092
85.9101 -0.093
85.9403 -0.145
85.9706 0.063
86.0009 -0.041
86.0312 0.064
86.0614 0.169
86.0917 0.169
86.1220 0.066
86.1523 -0.089
86.1826 -0.243
86.2128 0.064
86.2431 0.060
86.2734 -0.049
86.3037 -0.053
86.3340 -0.056
86.3642 0.357
86.3945 0.353
86.4248 -0.171
86.4551 0.295
86.4853 -0.228
86.5156 -0.022
86.5459 -0.077
86.5762 0.130
86.6065 0.128
86.6367 -0.082
86.6670 -0.031
86.6973 0.124
86.7276 -0.293
86.7579 0.123
86.7881 0.019
86.8184 -0.034
86.8487 -0.138
86.8790 -0.241
86.9092 0.332
86.9395 -0.084
86.9698 -0.187
87.0001 -0.134
87.0304 0.595
87.0606 0.075
87.0909 -0.237
87.1212 0.129
87.1515 -0.026
87.1818 -0.128
87.2120 0.082
87.2423 -0.125
87.2726 0.086
87.3029 -0.224
87.3331 0.195
87.3634 0.146
87.3937 0.150
87.4240 0.309
87.4543 -0.052
87.4845 -0.100
87.5148 0.321
87.5451 0.169
87.5754 0.122
87.6057 -0.186
87.6359 0.132
87.6662 0.033
87.6965 0.142
87.7268 0.409
87.7571 0.050
87.7873 0.004
87.8176 -0.146
87.8479 -0.035
87.8782 0.077
87.9084 0.188
87.9387 -0.117
87.9690 -0.162
87.9993 -0.214
88.0296 0.139
88.0598 0.023
88.0901 0.012
88.1204 0.157
88.1507 0.094
88.1810 0.031
88.2112 0.177
88.2415 0.062
88.2718 0.104
88.3021 -0.166
88.3323 0.189
88.3626 -0.081
88.3929 0.066
88.4232 -0.047
88.4535 -0.159
88.4837 0.093
88.5140 -0.072
88.5443 0.077
88.5746 0.173
88.6049 0.061
88.6351 0.054
88.6654 0.204
88.6957 -0.168
88.7260 0.086
88.7562 -0.024
88.7865 0.178
88.8168 -0.140
88.8471 -0.146
88.8774 -0.151
88.9076 -0.052
88.9379 0.620
88.9682 0.042
88.9985 -0.066
89.0288 -0.018
89.0590 -0.022
89.0893 0.443
89.1196 0.023
89.1499 0.072
89.1801 0.381
89.2104 0.222
89.2407 0.167
89.2710 0.426
89.3013 -0.045
89.3315 0.161
89.3618 0.420
89.3921 0.367
89.4224 0.209
89.4527 0.208
89.4829 0.364
89.5132 0.155
89.5435 0.468
89.5738 0.468
89.6040 0.468
89.6343 0.677
89.6646 0.521
89.6949 0.314
89.7252 -0.049
89.7554 0.265
89.7857 0.475
89.8160 0.164
89.8463 0.114
89.8766 0.169
89.9068 0.171
89.9371 0.070
89.9674 0.177
89.9977 0.024
90.0279 0.340
90.0582 -0.281
90.0885 0.192
90.1188 -0.116
90.1491 -0.112
90.1793 0.101
90.2096 -0.206
90.2399 0.320
90.2702 -0.091
90.3005 -0.086
90.3307 -0.184
90.3610 -0.074
90.3913 0.558
90.4216 -0.061
90.4518 -0.158
90.4821 -0.099
90.5124 -0.300
90.5427 0.070
90.5730 -0.029
90.6032 -0.128
90.6335 0.034
90.6638 -0.221
90.6941 -0.067
90.7244 0.348
90.7546 0.033
90.7849 -0.177
90.8152 0.134
90.8455 0.081
90.8758 0.027
90.9060 -0.286
90.9363 -0.026
90.9666 -0.026
90.9969 0.078
91.0271 0.182
91.0574 -0.339
91.0877 -0.078
91.1180 0.132
91.1483 0.237
91.1785 0.082
91.2088 0.031
91.2391 0.033
91.2694 0.087
91.2997 0.089
91.3299 -0.117
91.3602 -0.010
91.3905 -0.111
91.4208 -0.056
91.4510 -0.104
91.4813 0.107
91.5116 0.111
91.5419 -0.145
91.5722 -0.141
91.6024 -0.084
91.6327 0.025
91.6630 0.134
91.6933 -0.069
91.7236 0.093
91.7538 -0.318
91.7841 0.157
91.8144 0.059
91.8447 -0.143
91.8749 0.176
91.9052 0.027
91.9355 -0.175
91.9658 -0.071
91.9961 0.188
92.0263 -0.021
92.0566 0.135
92.0869 0.239
92.1172 0.135
92.1475 -0.021
92.1777 0.136
92.2080 -0.124
92.2383 -0.175
92.2686 0.028
92.2988 -0.081
92.3291 0.122
92.3594 0.170
92.3897 -0.043
92.4200 0.109
92.4502 0.053
92.4805 0.205
92.5108 0.046
92.5411 -0.270
92.5714 0.456
92.6016 0.141
92.6319 0.555
92.6622 -0.020
92.6925 0.134
92.7227 0.132
92.7530 0.130
92.7833 0.493
92.8136 0.336
92.8439 -0.238
92.8741 -0.187
92.9044 -0.139
92.9347 -0.091
92.9650 0.062
92.9953 0.215
93.0255 -0.049
93.0558 0.104
93.0861 0.258
93.1164 0.099
93.1466 -0.112
93.1769 0.146
93.2072 0.092
93.2375 -0.326
93.2678 0.089
93.2980 0.088
93.3283 -0.173
93.3586 -0.018
93.3889 -0.122
93.4192 0.086
93.4494 0.138
93.4797 0.190
93.5100 0.764
93.5403 0.348
93.5706 -0.068
93.6008 -0.171
93.6311 0.299
93.6614 0.092
93.6917 -0.062
93.7219 0.096
93.7522 -0.266
93.7825 0.049
93.8128 0.000
93.8431 -0.153
93.8733 0.058
93.9036 0.062
93.9339 0.326
93.9642 -0.087
93.9945 -0.187
94.0247 0.015
94.0550 -0.305
94.0853 0.210
94.1156 -0.161
94.1458 0.093
94.1761 0.087
94.2064 0.238
94.2367 -0.340
94.2670 0.019
94.2972 -0.090
94.3275 0.009
94.3578 0.057
94.3881 0.313
94.4184 -0.107
94.4486 -0.111
94.4789 -0.011
94.5092 0.038
94.5395 0.244
94.5697 0.345
94.6000 -0.074
94.6303 -0.025
94.6606 -0.287
94.6909 0.128
94.7211 -0.134
94.7514 0.437
94.7817 0.019
94.8120 0.018
94.8423 0.434
94.8725 -0.087
94.9028 0.069
94.9331 0.173
94.9634 0.330
94.9936 0.434
95.0239 0.123
95.0542 0.176
95.0845 0.229
95.1148 0.543
95.1450 0.701
95.1753 1.015
95.2056 0.548
95.2359 0.186
95.2662 0.710
95.2964 0.504
95.3267 0.403
95.3570 0.615
95.3873 0.358
95.4175 0.414
95.4478 0.365
95.4781 0.474
95.5084 0.218
95.5387 0.066
95.5689 0.384
95.5992 0.441
95.6295 0.446
95.6598 0.660
95.6901 0.302
95.7203 0.568
95.7506 0.262
95.7809 -0.096
95.8112 0.119
95.8414 -0.134
95.8717 -0.023
95.9020 0.141
95.9323 0.149
95.9626 -0.052
95.9928 0.061
96.0231 -0.295
96.0534 -0.091
96.0837 -0.042
96.1140 0.164
96.1442 -0.152
96.1745 0.054
96.2048 0.520
96.2351 -0.003
96.2653 0.048
96.2956 -0.006
96.3259 0.305
96.3562 -0.269
96.3865 0.043
96.4167 -0.271
96.4470 -0.067
96.4773 0.398
96.5076 0.133
96.5379 -0.027
96.5681 0.126
96.5984 0.122
96.6287 0.119
96.6590 -0.144
96.6893 0.061
96.7195 0.111
96.7498 -0.048
96.7801 0.159
96.8104 0.105
96.8406 0.103
96.8709 -0.210
96.9012 0.049
96.9315 -0.108
96.9618 0.048
96.9920 0.047
97.0223 -0.265
97.0526 0.256
97.0829 0.152
97.1132 -0.160
97.1434 -0.159
97.1737 -0.002
97.2040 -0.365
97.2343 0.157
97.2645 -0.050
97.2948 -0.100
97.3251 0.163
97.3554 0.165
97.3857 0.012
97.4159 -0.194
97.4462 -0.038
97.4765 0.066
97.5068 -0.299
97.5371 0.170
97.5673 0.066
97.5976 -0.090
97.6279 0.015
97.6582 -0.088
97.6884 0.173
97.7187 0.070
97.7490 -0.084
97.7793 -0.187
97.8096 -0.140
97.8398 -0.198
97.8701 0.213
97.9004 -0.104
97.9307 0.151
97.9610 -0.010
97.9912 -0.014
98.0215 0.242
98.0518 0.134
98.0821 0.026
98.1123 0.231
98.1426 -0.085
98.1729 0.485
98.2032 0.065
98.2335 0.271
98.2637 0.581
98.2940 0.215
98.3243 0.265
98.3546 0.732
98.3849 0.470
98.4151 -0.208
98.4454 0.572
98.4757 -0.157
98.5060 0.050
98.5362 0.102
98.5665 0.102
98.5968 0.623
98.6271 0.259
98.6574 0.000
98.6876 0.313
98.7179 0.158
98.7482 0.472
98.7785 0.213
98.8088 0.111
98.8390 0.321
98.8693 0.063
98.8996 -0.038
98.9299 0.173
98.9601 0.228
98.9904 0.075
99.0207 -0.077
99.0510 -0.126
99.0813 0.451
99.1115 -0.013
99.1418 0.408
99.1721 0.048
99.2024 -0.103
99.2327 0.110
99.2629 0.428
99.2932 0.434
99.3235 -0.342
99.3538 0.394
99.3841 0.035
99.4143 -0.375
99.4446 -0.066
99.4749 0.139
99.5052 0.136
99.5354 0.238
99.5657 0.391
99.5960 0.129
99.6263 -0.082
99.6566 0.020
99.6868 -0.033
99.7171 0.121
99.7474 0.329
99.7777 0.171
99.8080 -0.090
99.8382 -0.038
99.8685 0.014
99.8988 0.274
99.9291 0.222
99.9593 0.171
99.9896 -0.089
100.0199 -0.140
100.0502 0.174
100.0805 0.123
100.1107 0.177
100.1410 0.179
100.1713 0.024
100.2016 -0.077
100.2319 0.029
100.2621 0.188
100.2924 0.087
100.3227 -0.014
100.3530 -0.271
100.3832 -0.010
100.4135 -0.011
100.4438 0.042
100.4741 -0.271
100.5044 -0.068
100.5346 0.342
100.5649 0.024
100.5952 0.018
100.6255 -0.195
100.6558 0.164
100.6860 0.160
100.7163 0.572
100.7466 0.203
100.7769 0.147
100.8071 0.039
100.8374 0.087
100.8677 -0.073
100.8980 -0.128
100.9283 -0.079
100.9585 0.023
100.9888 -0.032
101.0191 -0.138
101.0494 -0.036
101.0797 0.171
101.1099 0.013
101.1402 0.324
101.1705 0.115
101.2008 -0.303
101.2310 0.322
101.2613 0.061
101.2916 -0.096
101.3219 0.009
101.3522 -0.356
101.3824 0.010
101.4127 -0.198
101.4430 -0.198
101.4733 -0.045
101.5036 0.004
101.5338 -0.103
101.5641 0.102
101.5944 -0.004
101.6247 0.046
101.6549 0.096
101.6852 0.094
101.7155 -0.116
101.7458 0.039
101.7761 -0.118
101.8063 0.193
101.8366 -0.276
101.8669 0.088
101.8972 -0.120
101.9275 0.140
101.9577 0.088
101.9880 -0.067
102.0183 -0.223
102.0486 0.028
102.0788 0.071
102.1091 0.113
102.1394 -0.416
102.1697 0.200
102.2000 0.764
102.2302 -0.286
102.2605 0.071
102.2908 0.167
102.3211 0.211
102.3514 -0.265
102.3816 0.145
102.4119 0.138
102.4422 -0.129
102.4725 0.021
102.5028 0.119
102.5330 -0.044
102.5633 0.211
102.5936 -0.367
102.6239 0.305
102.6541 -0.065
102.6844 0.243
102.7147 0.551
102.7450 -0.131
102.7753 0.126
102.8055 -0.035
102.8358 -0.038
102.8661 -0.146
102.8964 -0.097
102.9267 0.213
102.9569 -0.154
102.9872 -0.261
103.0175 0.205
103.0478 0.360
103.0780 -0.163
103.1083 0.304
103.1386 0.043
103.1689 0.250
103.1992 0.510
103.2294 0.092
103.2597 0.092
103.2900 -0.012
103.3203 -0.064
103.3506 0.197
103.3808 -0.115
103.4111 -0.219
103.4414 0.251
103.4717 0.305
103.5019 -0.110
103.5322 0.204
103.5625 -0.107
103.5928 0.468
103.6231 0.002
103.6533 -0.255
103.6836 -0.050
103.7139 -0.104
103.7442 0.259
103.7745 0.361
103.8047 0.151
103.8350 0.254
103.8653 0.201
103.8956 0.617
103.9258 0.252
103.9561 -0.061
103.9864 0.408
104.0167 -0.009
104.0470 0.356
104.0772 0.513
104.1075 0.045
104.1378 -0.058
104.1681 0.204
104.1984 0.257
104.2286 -0.001
104.2589 0.001
104.2892 -0.049
104.3195 0.005
104.3497 0.216
104.3800 -0.041
104.4103 -0.246
104.4406 0.174
104.4709 0.021
104.5011 -0.027
104.5314 -0.335
104.5617 0.346
104.5920 0.142
104.6223 -0.165
104.6525 0.256
104.6828 0.053
104.7131 0.007
104.7434 -0.039
104.7736 0.071
104.8039 -0.027
104.8342 -0.125
104.8645 0.246
104.8948 -0.215
104.9250 -0.156
104.9553 -0.097
104.9856 -0.089
105.0159 0.023
105.0462 0.135
105.0764 0.664
105.1067 0.256
105.1370 -0.099
105.1673 0.118
105.1975 0.179
105.2278 -0.072
105.2581 0.407
105.2884 0.000
105.3187 -0.198
105.3489 -0.300
105.3792 0.163
105.4095 -0.364
105.4398 0.151
105.4701 -0.114
105.5003 -0.172
105.5306 0.240
105.5609 -0.025
105.5912 0.179
105.6215 -0.190
105.6517 -0.038
105.6820 0.063
105.7123 -0.097
105.7426 -0.048
105.7728 -0.051
105.8031 0.154
105.8334 -0.057
105.8637 -0.163
105.8940 -0.113
105.9242 0.145
105.9545 -0.117
105.9848 0.090
106.0151 0.141
106.0454 -0.277
106.0756 -0.121
106.1059 0.035
106.1362 -0.070
106.1665 0.035
106.1967 0.035
106.2270 0.139
106.2573 0.036
106.2876 -0.328
106.3179 0.090
106.3481 0.196
106.3784 -0.115
106.4087 -0.165
106.4390 -0.111
106.4693 0.100
106.4995 0.050
106.5298 0.313
106.5601 0.160
106.5904 -0.097
106.6206 -0.250
106.6509 0.060
106.6812 0.266
106.7115 -0.153
106.7418 0.106
106.7720 0.208
106.8023 -0.054
106.8326 -0.055
106.8629 -0.056
106.8932 -0.109
106.9234 -0.057
106.9537 -0.109
106.9840 0.099
107.0143 0.151
107.0445 0.100
107.0748 -0.108
107.1051 0.362
107.1354 -0.210
107.1657 -0.209
107.1959 0.002
107.2262 -0.047
107.2565 0.008
107.2868 0.168
107.3171 0.380
107.3473 -0.033
107.3776 0.440
107.4079 0.183
107.4382 -0.437
107.4684 0.349
107.4987 0.146
107.5290 -0.318
107.5593 0.781
107.5896 0.058
107.6198 -0.041
107.6501 0.070
107.6804 0.232
107.7107 0.187
107.7410 0.142
107.7712 0.149
107.8015 0.156
107.8318 0.112
107.8621 -0.037
107.8923 -0.133
107.9226 0.031
107.9529 -0.012
107.9832 0.049
108.0135 -0.099
108.0437 -0.037
108.0740 0.076
108.1043 -0.175
108.1346 -0.128
108.1649 0.179
108.1951 0.018
108.2254 0.221
108.2557 -0.044
108.2860 0.056
108.3163 0.051
108.3465 -0.109
108.3768 0.044
108.4071 0.144
108.4374 0.193
108.4676 0.138
108.4979 0.187
108.5282 0.393
108.5585 0.182
108.5888 -0.185
108.6190 0.282
108.6493 0.281
108.6796 0.123
108.7099 -0.087
108.7402 0.225
108.7704 -0.244
108.8007 0.120
108.8310 0.067
108.8613 0.119
108.8915 -0.037
108.9218 0.224
108.9521 -0.140
108.9824 0.070
109.0127 0.175
109.0429 -0.188
109.0732 -0.187
109.1035 0.020
109.1338 -0.138
109.1641 -0.087
109.1943 0.484
109.2246 -0.037
109.2549 0.379
109.2852 0.066
109.3154 -0.039
109.3457 0.118
109.3760 -0.091
109.4063 0.014
109.4366 -0.246
109.4668 -0.045
109.4971 -0.157
109.5274 -0.112
109.5577 -0.015
109.5880 0.082
109.6182 0.284
109.6485 0.070
109.6788 0.272
109.7091 0.266
109.7393 0.416
109.7696 0.307
109.7999 0.250
109.8302 0.140
109.8605 0.448
109.8907 -0.129
109.9210 -0.133
109.9513 0.279
109.9816 0.223
110.0119 0.012
110.0421 0.217
110.0724 0.213
110.1027 -0.258
110.1330 -0.209
110.1632 0.099
110.1935 0.303
110.2238 0.403
110.2541 -0.070
110.2844 -0.126
110.3146 0.444
110.3449 0.545
110.3752 -0.188
110.4055 0.382
110.4358 0.224
110.4660 0.273
110.4963 -0.302
110.5266 0.165
110.5569 0.268
110.5871 -0.046
110.6174 -0.360
110.6477 0.212
110.6780 0.263
110.7083 0.107
110.7385 -0.154
110.7688 0.211
110.7991 0.315
110.8294 -0.101
110.8597 0.420
110.8899 -0.152
110.9202 0.058
110.9505 -0.149
110.9808 -0.304
111.0110 0.115
111.0413 0.117
111.0716 0.224
111.1019 -0.190
111.1322 -0.031
111.1624 -0.080
111.1927 -0.025
111.2230 -0.177
111.2533 -0.069
111.2836 -0.117
111.3138 0.095
111.3441 -0.213
111.3744 -0.104
111.4047 -0.047
111.4350 -0.250
111.4652 0.012
111.4955 -0.091
111.5258 0.119
111.5561 -0.087
111.5863 0.227
111.6166 0.074
111.6469 0.128
111.6772 0.079
111.7075 -0.126
111.7377 -0.123
111.7680 0.141
111.7983 0.353
111.8286 0.045
111.8589 0.205
111.8891 -0.051
111.9194 0.058
111.9497 0.011
111.9800 -0.088
112.0102 0.126
112.0405 -0.025
112.0708 -0.071
112.1011 0.144
112.1314 -0.058
112.1616 0.000
112.1919 0.007
112.2222 -0.090
112.2525 -0.187
112.2828 -0.140
112.3130 -0.042
112.3433 -0.047
112.3736 0.208
112.4039 0.307
112.4341 0.094
112.4644 0.141
112.4947 -0.228
112.5250 0.185
112.5553 0.077
112.5855 0.074
112.6158 0.070
112.6461 0.015
112.6764 0.272
112.7067 -0.147
112.7369 -0.097
112.7672 0.109
112.7975 0.107
112.8278 0.314
112.8580 -0.052
112.8883 0.103
112.9186 -0.003
112.9489 0.309
112.9792 0.152
113.0094 0.048
113.0397 0.204
113.0700 -0.056
113.1003 -0.004
113.1306 0.205
113.1608 0.050
113.1911 0.363
113.2214 0.000
113.2517 0.262
113.2819 -0.257
113.3122 0.006
113.3425 -0.148
113.3728 -0.198
113.4031 -0.047
113.4333 0.104
113.4636 0.204
113.4939 -0.114
113.5242 0.247
113.5545 0.190
113.5847 0.082
113.6150 -0.078
113.6453 0.336
113.6756 0.072
113.7058 -0.035
113.7361 0.327
113.7664 0.064
113.7967 0.114
113.8270 0.060
113.8572 0.006
113.8875 0.317
113.9178 0.211
113.9481 -0.207
113.9784 0.001
114.0086 -0.052
114.0389 0.208
114.0692 -0.209
114.0995 -0.209
114.1298 -0.053
114.1600 -0.105
114.1903 -0.053
114.2206 0.312
114.2509 -0.001
114.2811 -0.156
114.3114 0.105
114.3417 0.002
114.3720 0.003
114.4023 -0.151
114.4325 -0.149
114.4628 -0.199
114.4931 0.063
114.5234 0.014
114.5537 -0.088
114.5839 -0.189
114.6142 0.335
114.6445 -0.182
114.6748 -0.126
114.7050 -0.070
114.7353 -0.066
114.7656 -0.218
114.7959 0.203
114.8262 0.104
114.8564 0.161
114.8867 -0.198
114.9170 -0.209
114.9473 0.406
114.9776 0.187
115.0078 -0.084
115.0381 -0.094
115.0684 -0.051
115.0987 0.200
115.1289 0.139
115.1592 0.078
115.1895 0.069
115.2198 0.112
115.2501 0.260
115.2803 -0.112
115.3106 0.140
115.3409 -0.075
115.3712 -0.187
115.4015 0.171
115.4317 -0.305
115.4620 0.209
115.4923 -0.162
115.5226 0.665
115.5528 0.243
115.5831 0.289
115.6134 -0.081
115.6437 0.226
115.6740 -0.456
115.7042 -0.096
115.7345 0.108
115.7648 0.416
115.7951 0.360
115.8254 -0.060
115.8556 -0.064
115.8859 0.245
115.9162 -0.227
115.9465 0.552
115.9767 -0.024
116.0070 0.130
116.0373 0.336
116.0676 0.230
116.0979 0.385
116.1281 0.748
116.1584 0.590
116.1887 0.016
116.2190 0.328
116.2493 0.328
116.2795 0.536
116.3098 0.379
116.3401 0.900
116.3704 -0.193
116.4006 0.016
116.4309 0.121
116.4612 0.331
116.4915 0.124
116.5218 0.594
116.5520 0.440
116.5823 0.181
116.6126 0.183
116.6429 0.290
116.6732 0.189
116.7034 0.036
116.7337 0.560
116.7640 0.251
116.7943 0.254
116.8245 -0.054
116.8548 0.106
116.8851 0.579
116.9154 0.323
116.9457 0.120
116.9759 0.073
117.0062 0.130
117.0365 -0.229
117.0668 -0.172
117.0971 0.093
117.1273 -0.058
117.1576 -0.053
117.1879 -0.100
117.2182 -0.146
117.2485 0.120
117.2787 -0.030
117.3090 0.080
117.3393 0.035
117.3696 -0.219
117.3998 -0.113
117.4301 -0.059
117.4604 -0.005
117.4907 0.205
117.5210 -0.001
117.5512 -0.050
117.5815 0.317
117.6118 -0.357
117.6421 0.324
117.6724 0.275
117.7026 -0.138
117.7329 0.283
117.7632 -0.181
117.7935 0.031
117.8237 0.244
117.8540 0.145
117.8843 -0.162
117.9146 -0.209
117.9449 0.101
117.9751 0.254
118.0054 -0.165
118.0357 0.301
118.0660 0.142
118.0963 -0.068
118.1265 0.087
118.1568 0.137
118.1871 0.084
118.2174 -0.126
118.2476 -0.022
118.2779 0.290
118.3082 0.081
118.3385 0.133
118.3688 -0.336
118.3990 -0.127
118.4293 0.082
118.4596 0.499
118.4899 -0.125
118.5202 0.293
118.5504 -0.122
118.5807 0.088
118.6110 -0.170
118.6413 0.301
118.6715 0.199
118.7018 0.567
118.7321 0.101
118.7624 -0.209
118.7927 -0.160
118.8229 -0.006
118.8532 -0.113
118.8835 -0.167
118.9138 0.091
118.9441 0.246
118.9743 0.036
119.0046 0.086
119.0349 0.502
119.0652 -0.176
119.0954 -0.020
119.1257 0.552
119.1560 -0.021
119.1863 0.239
119.2166 0.136
119.2468 0.136
119.2771 -0.176
119.3074 0.086
119.3377 -0.121
119.3680 0.193
119.3982 -0.170
119.4285 -0.168
119.4588 0.302
119.4891 0.044
119.5193 0.255
119.5496 -0.263
119.5799 0.053
119.6102 -0.048
119.6405 -0.096
119.6707 -0.040
119.7010 0.224
119.7313 -0.240
119.7616 0.233
119.7919 0.081
119.8221 0.190
119.8524 0.300
119.8827 -0.164
119.9130 0.103
119.9433 0.056
119.9735 -0.198
120.0038 0.000
