'Id: "" Comment: "" Operator: "Lab Manager" Anode: "Cu" Scantype: "Locked Coupled" TimePerStep: "19.2" X: "9999" Y: "9999" Z: "9999" 
10.0015 0.000
10.0318 -0.030
10.0620 -0.164
10.0923 -0.454
10.1226 -0.383
10.1529 -1.041
10.1832 0.430
10.2134 -0.494
10.2437 -0.412
10.2740 0.139
10.3043 0.430
10.3346 0.305
10.3648 0.544
10.3951 -0.518
10.4254 0.607
10.4557 -0.195
10.4859 -0.423
10.5162 0.165
10.5465 -0.079
10.5768 0.146
10.6071 0.058
10.6373 0.283
10.6676 0.143
10.6979 0.004
10.7282 -0.239
10.7585 0.039
10.7887 -0.203
10.8190 -0.185
10.8493 0.510
10.8796 0.164
10.9098 -1.223
10.9401 -0.119
10.9704 -0.316
11.0007 0.529
11.0310 0.593
11.0612 -0.229
11.0915 -0.321
11.1218 0.368
11.1521 -0.088
11.1824 0.810
11.2126 -0.791
11.2429 0.316
11.2732 -0.400
11.3035 -0.657
11.3337 0.857
11.3640 0.392
11.3943 0.969
11.4246 0.192
11.4549 0.144
11.4851 1.347
11.5154 0.414
11.5457 0.523
11.5760 0.998
11.6063 1.472
11.6365 0.384
11.6668 0.547
11.6971 0.761
11.7274 1.393
11.7577 -0.527
11.7879 -0.051
11.8182 0.946
11.8485 -0.141
11.8788 -0.393
11.9090 -0.284
11.9393 0.242
11.9696 0.715
11.9999 0.721
12.0302 -0.784
12.0604 0.889
12.0907 -0.147
12.1210 0.797
12.1513 -0.081
12.1816 -0.022
12.2118 0.193
12.2421 0.825
12.2724 -0.625
12.3027 -0.149
12.3329 0.693
12.3632 -0.341
12.3935 1.022
12.4238 0.198
12.4541 -0.679
12.4843 0.737
12.5146 0.017
12.5449 -0.598
12.5752 0.028
12.6055 0.551
12.6357 -0.593
12.6660 -0.018
12.6963 0.609
12.7266 0.299
12.7568 0.198
12.7871 0.514
12.8174 -0.108
12.8477 -0.052
12.8780 -0.153
12.9082 0.112
12.9385 -0.248
12.9688 0.798
12.9991 0.282
13.0294 0.391
13.0596 0.136
13.0899 0.298
13.1202 0.564
13.1505 0.726
13.1807 -0.622
13.2110 0.270
13.2413 -0.140
13.2716 1.273
13.3019 0.916
13.3321 0.142
13.3624 -0.371
13.3927 0.574
13.4230 0.322
13.4533 0.486
13.4835 0.755
13.5138 0.296
13.5441 0.305
13.5744 0.106
13.6046 -0.562
13.6349 0.594
13.6652 0.395
13.6955 0.302
13.7258 0.364
13.7560 0.062
13.7863 0.438
13.8166 0.658
13.8469 0.357
13.8772 0.264
13.9074 0.276
13.9377 1.174
13.9680 -0.272
13.9983 -0.468
14.0285 0.310
14.0588 0.619
14.0891 -0.426
14.1194 0.457
14.1497 0.142
14.1799 0.764
14.2102 0.554
14.2405 -0.073
14.2708 -0.023
14.3011 1.017
14.3313 0.339
14.3616 0.494
14.3919 0.858
14.4222 0.545
14.4524 -0.288
14.4827 0.753
14.5130 0.389
14.5433 0.598
14.5736 -0.027
14.6038 -0.338
14.6341 0.028
14.6644 0.081
14.6947 0.187
14.7250 0.345
14.7552 -0.069
14.7855 0.193
14.8158 0.196
14.8461 -0.218
14.8764 0.254
14.9066 0.257
14.9369 -0.260
14.9672 0.733
14.9975 1.206
15.0277 0.065
15.0580 0.069
15.0883 -0.291
15.1186 -0.390
15.1489 0.335
15.1791 0.071
15.2094 -0.298
15.2397 0.636
15.2700 0.112
15.3003 -0.360
15.3305 0.471
15.3608 0.156
15.3911 0.102
15.4214 0.047
15.4516 1.139
15.4819 0.200
15.5122 -0.010
15.5425 -0.011
15.5728 0.874
15.6030 0.196
15.6333 0.144
15.6636 -0.325
15.6939 1.498
15.7242 0.508
15.7544 0.353
15.7847 0.301
15.8150 0.406
15.8453 0.564
15.8755 0.878
15.9058 -0.110
15.9361 -0.108
15.9664 -0.054
15.9967 -0.676
16.0269 0.095
16.0572 0.242
16.0875 -0.028
16.1178 1.160
16.1481 0.109
16.1783 0.101
16.2086 -0.064
16.2389 0.500
16.2692 0.648
16.2994 -0.453
16.3297 -0.044
16.3600 0.053
16.3903 0.150
16.4206 0.143
16.4508 0.553
16.4811 0.182
16.5114 0.384
16.5417 0.169
16.5720 -0.045
16.6022 0.262
16.6325 -0.107
16.6628 0.148
16.6931 0.195
16.7233 0.347
16.7536 -0.178
16.7839 -0.234
16.8142 -0.290
16.8445 0.540
16.8747 0.536
16.9050 0.117
16.9353 -0.407
16.9656 0.424
16.9959 -0.204
17.0261 1.305
17.0564 0.678
17.0867 -0.157
17.1170 -0.263
17.1472 0.569
17.1775 0.620
17.2078 -0.266
17.2381 0.359
17.2684 -0.006
17.2986 0.567
17.3289 0.880
17.3592 0.724
17.3895 -0.369
17.4198 0.569
17.4500 -0.471
17.4803 -0.261
17.5106 -0.468
17.5409 0.313
17.5712 -1.197
17.6014 -0.259
17.6317 0.107
17.6620 -0.257
17.6923 -0.099
17.7225 0.527
17.7528 0.321
17.7831 0.115
17.8134 0.325
17.8437 0.120
17.8739 -0.242
17.9042 0.230
17.9345 0.233
17.9648 -0.493
17.9951 0.501
18.0253 0.036
18.0556 0.457
18.0859 -0.268
18.1162 0.102
18.1464 0.055
18.1767 -0.409
18.2070 0.690
18.2373 -0.450
18.2676 -0.183
18.2978 0.916
18.3281 0.194
18.3584 0.357
18.3887 -0.314
18.4190 -0.359
18.4492 1.368
18.4795 -0.291
18.5098 0.602
18.5401 0.506
18.5703 0.462
18.6006 0.523
18.6309 -0.614
18.6612 0.176
18.6915 0.133
18.7217 -0.066
18.7520 0.465
18.7823 0.162
18.8126 0.277
18.8429 -0.442
18.8731 -0.230
18.9034 -0.121
18.9337 -0.273
18.9640 0.409
18.9942 -0.941
19.0245 0.523
19.0548 -0.409
19.0851 -0.039
19.1154 -0.137
19.1456 0.181
19.1759 -0.906
19.2062 0.819
19.2365 -0.112
19.2668 0.208
19.2970 -0.774
19.3273 0.275
19.3576 0.647
19.3879 -0.387
19.4181 0.143
19.4484 0.307
19.4787 0.316
19.5090 0.169
19.5393 0.595
19.5695 0.239
19.5998 -0.272
19.6301 0.519
19.6604 -0.043
19.6907 -0.345
19.7209 -0.197
19.7512 -0.047
19.7815 0.258
19.8118 0.408
19.8420 0.558
19.8723 0.343
19.9026 0.546
19.9329 0.436
19.9632 -0.143
19.9934 -0.044
20.0237 -0.465
20.0540 0.467
20.0843 0.098
20.1146 -0.062
20.1448 -0.066
20.1751 0.451
20.2054 -0.334
20.2357 0.027
20.2659 1.066
20.2962 -0.343
20.3265 0.227
20.3568 0.538
20.3871 0.379
20.4173 -0.091
20.4476 -0.249
20.4779 -0.094
20.5082 0.582
20.5385 0.268
20.5687 0.632
20.5990 -0.306
20.6293 0.215
20.6596 0.423
20.6899 -0.566
20.7201 0.008
20.7504 0.373
20.7807 0.478
20.8110 -0.302
20.8412 -0.196
20.8715 0.274
20.9018 -0.088
20.9321 0.383
20.9624 -0.448
20.9926 -0.185
21.0229 0.287
21.0532 0.446
21.0835 -0.332
21.1138 -0.016
21.1440 -0.064
21.1743 -0.112
21.2046 0.465
21.2349 -0.103
21.2651 -0.098
21.2954 -0.145
21.3257 0.537
21.3560 -0.342
21.3863 0.341
21.4165 0.919
21.4468 -0.220
21.4771 -0.057
21.5074 0.522
21.5377 0.009
21.5679 1.005
21.5982 0.492
21.6285 0.291
21.6588 0.820
21.6890 0.516
21.7193 0.316
21.7496 -0.144
21.7799 -0.187
21.8102 -0.074
21.8404 -0.064
21.8707 0.883
21.9010 0.268
21.9313 -0.347
21.9616 0.497
21.9918 1.549
22.0221 0.622
22.0524 0.633
22.0827 0.228
22.1129 -0.333
22.1432 -0.333
22.1735 -0.137
22.2038 -0.097
22.2341 0.308
22.2643 -0.068
22.2946 0.338
22.3249 0.692
22.3552 -0.621
22.3855 0.254
22.4157 -0.642
22.4460 0.234
22.4763 0.537
22.5066 -0.150
22.5368 0.831
22.5671 -0.168
22.5974 -0.176
22.6277 0.180
22.6580 0.692
22.6882 -0.201
22.7185 0.729
22.7488 0.930
22.7791 -0.067
22.8094 -0.178
22.8396 -0.029
22.8699 -0.035
22.9002 0.375
22.9305 0.786
22.9607 -0.054
22.9910 0.045
23.0213 0.769
23.0516 -0.226
23.0819 -0.231
23.1121 1.223
23.1424 -0.292
23.1727 -0.140
23.2030 0.117
23.2333 -0.095
23.2635 -0.046
23.2938 0.211
23.3241 0.364
23.3544 -0.472
23.3846 -0.058
23.4149 -0.060
23.4452 0.511
23.4755 -0.012
23.5058 0.508
23.5360 -0.379
23.5663 -0.172
23.5966 0.973
23.6269 0.244
23.6572 -0.434
23.6874 0.243
23.7177 0.400
23.7480 0.765
23.7783 0.088
23.8086 0.402
23.8388 0.195
23.8691 0.561
23.8994 0.354
23.9297 0.668
23.9599 0.149
23.9902 -0.057
24.0205 0.102
24.0508 0.261
24.0811 0.160
24.1113 -0.357
24.1416 0.011
24.1719 0.067
24.2022 -0.034
24.2325 0.179
24.2627 -0.337
24.2930 0.084
24.3233 0.349
24.3536 -0.531
24.3838 0.204
24.4141 -0.103
24.4444 0.528
24.4747 -0.247
24.5050 -0.762
24.5352 0.339
24.5655 0.085
24.5958 0.197
24.6261 0.204
24.6564 -0.049
24.6866 -0.145
24.7169 -0.345
24.7472 -0.290
24.7775 -0.129
24.8077 0.656
24.8380 0.140
24.8683 0.821
24.8986 0.670
24.9289 -0.002
24.9591 0.160
24.9894 0.166
25.0197 0.432
25.0500 -0.187
25.0803 -0.076
25.1105 0.034
25.1408 0.510
25.1711 -0.108
25.2014 0.420
25.2316 0.011
25.2619 -0.294
25.2922 -0.338
25.3225 -0.338
25.3528 0.120
25.3830 0.108
25.4133 -0.372
25.4436 -0.018
25.4739 0.128
25.5042 0.795
25.5344 -0.257
25.5647 0.670
25.5950 0.400
25.6253 0.651
25.6555 0.069
25.6858 0.737
25.7161 0.104
25.7464 -0.217
25.7767 0.816
25.8069 0.079
25.8372 0.227
25.8675 0.585
25.8978 -0.517
25.9281 -0.055
25.9583 0.043
25.9886 0.349
26.0189 -0.231
26.0492 0.649
26.0794 0.435
26.1097 0.533
26.1400 0.840
26.1703 0.210
26.2006 -0.159
26.2308 -0.060
26.2611 -0.168
26.2914 0.192
26.3217 0.240
26.3520 0.185
26.3822 -0.027
26.4125 -0.291
26.4428 -0.033
26.4731 -0.297
26.5034 0.274
26.5336 0.324
26.5639 -0.095
26.5942 -0.357
26.6245 -0.165
26.6547 0.027
26.6850 -0.665
26.7153 0.309
26.7456 0.242
26.7759 0.279
26.8061 0.056
26.8364 -0.271
26.8667 -0.234
26.8970 -0.144
26.9273 0.259
26.9575 0.454
26.9878 -0.236
27.0181 0.636
27.0484 0.415
27.0786 0.559
27.1089 -0.131
27.1392 0.430
27.1695 0.522
27.1998 0.042
27.2300 -0.178
27.2603 0.384
27.2906 0.113
27.3209 -0.367
27.3512 0.196
27.3814 0.498
27.4117 0.332
27.4420 0.739
27.4723 0.729
27.5025 -0.478
27.5328 -0.383
27.5631 0.127
27.5934 -0.039
27.6237 -0.050
27.6539 0.878
27.6842 -0.591
27.7145 -0.236
27.7448 0.224
27.7751 0.059
27.8053 0.154
27.8356 -0.271
27.8659 0.345
27.8962 -0.913
27.9264 0.902
27.9567 -0.304
27.9870 -0.207
28.0173 0.151
28.0476 -0.377
28.0778 -0.280
28.1081 0.078
28.1384 -0.032
28.1687 -0.246
28.1990 -0.513
28.2292 0.524
28.2595 -0.003
28.2898 0.045
28.3201 1.029
28.3503 0.139
28.3806 0.031
28.4109 0.756
28.4412 -0.342
28.4715 0.228
28.5017 0.068
28.5320 -0.039
28.5623 0.375
28.5926 0.684
28.6229 0.005
28.6531 0.211
28.6834 -1.041
28.7137 -0.157
28.7440 0.050
28.7742 1.142
28.8045 0.568
28.8348 0.307
28.8651 -0.787
28.8954 0.411
28.9256 0.671
28.9559 -0.787
28.9862 0.464
29.0165 1.037
29.0468 -0.003
29.0770 0.571
29.1073 -0.053
29.1376 -0.468
29.1679 0.071
29.1981 -0.172
29.2284 0.316
29.2587 -0.864
29.2890 -0.168
29.3193 -0.201
29.3495 0.443
29.3798 -0.318
29.4101 0.222
29.4404 -0.279
29.4707 -0.727
29.5009 0.648
29.5312 0.095
29.5615 0.377
29.5918 0.398
29.6221 -0.310
29.6523 0.181
29.6826 0.203
29.7129 -0.192
29.7432 -0.221
29.7734 0.530
29.8037 0.501
29.8340 -0.622
29.8643 -0.442
29.8946 -0.157
29.9248 -0.184
29.9551 -0.420
29.9854 -0.030
30.0157 -0.265
30.0460 0.855
30.0762 0.464
30.1065 0.647
30.1368 0.517
30.1671 0.439
30.1973 -0.002
30.2276 0.806
30.2579 1.198
30.2882 0.757
30.3185 0.316
30.3487 0.136
30.3790 -0.044
30.4093 0.818
30.4396 0.170
30.4699 0.407
30.5001 1.791
30.5304 1.195
30.5607 1.694
30.5910 2.401
30.6212 1.494
30.6515 1.004
30.6818 1.764
30.7121 2.368
30.7424 2.451
30.7726 1.857
30.8029 2.775
30.8332 2.702
30.8635 2.266
30.8938 3.132
30.9240 3.164
30.9543 3.406
30.9846 5.522
31.0149 5.295
31.0451 5.485
31.0754 7.550
31.1057 7.688
31.1360 8.192
31.1663 9.424
31.1965 9.459
31.2268 11.213
31.2571 12.290
31.2874 15.190
31.3177 14.080
31.3479 16.147
31.3782 19.569
31.4085 23.512
31.4388 25.319
31.4690 27.179
31.4993 34.769
31.5296 34.910
31.5599 41.146
31.5902 41.392
31.6204 44.712
31.6507 44.959
31.6810 42.081
31.7113 38.057
31.7416 37.211
31.7718 35.636
31.8021 30.779
31.8324 28.475
31.8627 23.203
31.8929 21.993
31.9232 16.149
31.9535 16.242
31.9838 13.366
32.0141 12.730
32.0443 9.386
32.0746 8.491
32.1049 6.085
32.1352 4.981
32.1655 6.482
32.1957 5.014
32.2260 5.266
32.2563 3.642
32.2866 3.269
32.3169 3.157
32.3471 4.086
32.3774 2.724
32.4077 2.716
32.4380 2.240
32.4682 2.441
32.4985 2.122
32.5288 2.011
32.5591 1.275
32.5894 1.061
32.6196 0.534
32.6499 1.205
32.6802 1.096
32.7105 1.507
32.7408 0.200
32.7710 -0.117
32.8013 0.555
32.8316 0.343
32.8619 0.078
32.8921 -0.342
32.9224 0.644
32.9527 1.213
32.9830 -0.040
33.0133 0.426
33.0435 -0.097
33.0738 -0.412
33.1041 1.044
33.1344 0.417
33.1647 -0.001
33.1949 -0.523
33.2252 -0.217
33.2555 0.714
33.2858 -0.229
33.3160 -1.172
33.3463 0.385
33.3766 0.849
33.4069 0.480
33.4372 0.475
33.4674 0.731
33.4977 0.831
33.5280 1.088
33.5583 1.345
33.5886 1.654
33.6188 0.505
33.6491 1.908
33.6794 1.854
33.7097 1.539
33.7399 3.047
33.7702 1.847
33.8005 2.939
33.8308 3.094
33.8611 3.561
33.8913 5.592
33.9216 6.633
33.9519 5.330
33.9822 8.090
34.0125 9.705
34.0427 10.747
34.0730 13.143
34.1033 15.175
34.1336 19.134
34.1638 26.896
34.1941 33.147
34.2244 36.222
34.2547 45.911
34.2850 48.309
34.3152 51.228
34.3455 48.419
34.3758 42.224
34.4061 36.289
34.4364 30.303
34.4666 22.494
34.4969 17.967
34.5272 13.908
34.5575 12.090
34.5877 9.646
34.6180 8.036
34.6483 8.093
34.6786 5.442
34.7089 5.656
34.7391 3.631
34.7694 4.001
34.7997 4.164
34.8300 3.910
34.8603 3.812
34.8905 3.142
34.9208 3.045
34.9511 3.001
34.9814 4.102
35.0116 3.433
35.0419 2.087
35.0722 3.085
35.1025 3.354
35.1328 2.633
35.1630 2.903
35.1933 3.746
35.2236 4.484
35.2539 4.546
35.2842 4.140
35.3144 4.983
35.3447 4.890
35.3750 4.692
35.4053 5.641
35.4356 5.600
35.4658 5.820
35.4961 8.071
35.5264 7.927
35.5567 10.126
35.5869 7.639
35.6172 9.787
35.6475 10.789
35.6778 12.782
35.7081 12.899
35.7383 18.382
35.7686 18.500
35.7989 20.597
35.8292 25.195
35.8595 25.262
35.8897 31.995
35.9200 35.969
35.9503 39.005
35.9806 43.604
36.0108 51.484
36.0411 56.188
36.0714 58.183
36.1017 65.179
36.1320 63.477
36.1622 63.390
36.1925 62.313
36.2228 55.403
36.2531 54.432
36.2834 47.470
36.3136 42.384
36.3439 38.965
36.3742 32.630
36.4045 27.805
36.4347 23.710
36.4650 22.062
36.4953 18.384
36.5256 15.435
36.5559 14.101
36.5861 11.621
36.6164 8.569
36.6467 10.673
36.6770 7.153
36.7073 7.330
36.7375 6.987
36.7678 4.874
36.7981 4.271
36.8284 4.032
36.8586 4.107
36.8889 3.505
36.9192 3.059
36.9495 3.238
36.9798 2.272
37.0100 3.129
37.0403 2.424
37.0706 2.396
37.1009 1.796
37.1312 1.925
37.1614 2.522
37.1917 1.975
37.2220 0.385
37.2523 1.505
37.2825 0.801
37.3128 1.088
37.3431 1.739
37.3734 1.610
37.4037 0.855
37.4339 0.413
37.4642 0.910
37.4945 0.104
37.5248 0.600
37.5551 0.368
37.5853 0.136
37.6156 0.581
37.6459 0.818
37.6762 1.264
37.7064 -0.374
37.7367 -0.136
37.7670 0.206
37.7973 -0.129
37.8276 0.422
37.8578 0.192
37.8881 0.015
37.9184 0.046
37.9487 0.337
37.9790 0.577
38.0092 -0.173
38.0395 0.067
38.0698 0.099
38.1001 0.444
38.1304 -0.304
38.1606 0.145
38.1909 -0.186
38.2212 -0.205
38.2515 0.401
38.2817 0.331
38.3120 0.156
38.3423 0.920
38.3726 -0.296
38.4029 0.624
38.4331 -0.799
38.4634 -0.087
38.4937 -0.520
38.5240 0.127
38.5543 -0.892
38.5845 0.120
38.6148 -0.065
38.6451 0.948
38.6754 -0.279
38.7056 0.266
38.7359 -0.388
38.7662 0.314
38.7965 0.182
38.8268 -0.523
38.8570 -0.081
38.8873 0.308
38.9176 0.959
38.9479 0.620
38.9782 0.593
39.0084 0.619
39.0387 0.021
39.0690 -0.005
39.0993 0.282
39.1295 -0.055
39.1598 0.076
39.1901 -0.157
39.2204 0.079
39.2507 0.159
39.2809 0.552
39.3112 0.008
39.3415 0.557
39.3718 0.169
39.4021 -0.635
39.4323 0.072
39.4626 -0.055
39.4929 -0.442
39.5232 0.079
39.5534 0.757
39.5837 -0.128
39.6140 0.289
39.6443 0.238
39.6746 0.031
39.7048 0.137
39.7351 0.295
39.7654 0.297
39.7957 -0.014
39.8260 1.030
39.8562 0.304
39.8865 -0.266
39.9168 0.050
39.9471 -0.520
39.9773 0.001
40.0076 -0.103
40.0379 -0.102
40.0682 0.211
40.0985 0.577
40.1287 0.161
40.1590 -0.462
40.1893 -0.096
40.2196 -0.094
40.2499 0.064
40.2801 0.015
40.3104 0.174
40.3407 -0.084
40.3710 0.128
40.4012 -0.077
40.4315 0.239
40.4618 0.087
40.4921 -0.065
40.5224 0.199
40.5526 0.204
40.5829 -0.208
40.6132 0.266
40.6435 -0.093
40.6738 -0.192
40.7040 0.178
40.7343 0.184
40.7646 -0.226
40.7949 -0.219
40.8251 -0.317
40.8554 0.053
40.8857 -0.097
40.9160 0.378
40.9463 -0.241
40.9765 0.495
41.0068 0.189
41.0371 -0.429
41.0674 0.047
41.0977 0.159
41.1279 -0.146
41.1582 0.540
41.1885 0.860
41.2188 0.713
41.2491 -0.372
41.2793 -0.572
41.3096 0.424
41.3399 0.274
41.3702 0.280
41.4004 0.078
41.4307 0.710
41.4610 0.092
41.4913 0.204
41.5216 0.628
41.5518 0.167
41.5821 0.175
41.6124 1.277
41.6427 -0.225
41.6730 0.409
41.7032 0.730
41.7335 0.062
41.7638 -0.605
41.7941 0.134
41.8243 -0.013
41.8546 0.622
41.8849 -0.409
41.9152 -0.086
41.9455 0.186
41.9757 0.353
42.0060 -0.365
42.0363 0.637
42.0666 0.075
42.0969 0.244
42.1271 0.517
42.1574 0.269
42.1877 0.646
42.2180 -0.018
42.2482 0.256
42.2785 0.113
42.3088 0.439
42.3391 0.245
42.3694 0.311
42.3996 0.638
42.4299 0.341
42.4602 0.824
42.4905 0.579
42.5208 0.855
42.5510 0.037
42.5813 -0.363
42.6116 -0.012
42.6419 0.340
42.6721 0.066
42.7024 0.419
42.7327 0.302
42.7630 0.030
42.7933 0.226
42.8235 0.475
42.8538 0.516
42.8841 1.026
42.9144 -0.131
42.9447 0.588
42.9749 0.994
43.0052 -0.318
43.0355 0.036
43.0658 -0.234
43.0960 -0.243
43.1263 -0.356
43.1566 0.364
43.1869 -0.218
43.2172 0.190
43.2474 0.286
43.2777 0.018
43.3080 0.010
43.3383 0.003
43.3686 -0.109
43.3988 -0.063
43.4291 0.190
43.4594 -0.077
43.4897 -0.135
43.5199 -0.141
43.5502 -0.616
43.5805 0.264
43.6108 0.155
43.6411 0.098
43.6713 0.405
43.7016 0.453
43.7319 0.605
43.7622 -0.181
43.7925 -0.081
43.8227 0.176
43.8530 -0.192
43.8833 0.222
43.9136 -0.250
43.9439 0.060
43.9741 0.370
44.0044 -0.153
44.0347 -0.624
44.0650 0.199
44.0952 0.346
44.1255 0.545
44.1558 -0.246
44.1861 0.005
44.2164 0.309
44.2466 0.144
44.2769 0.032
44.3072 0.753
44.3375 1.057
44.3678 0.373
44.3980 -0.312
44.4283 0.410
44.4586 0.039
44.4889 0.084
44.5191 0.182
44.5494 -0.189
44.5797 0.691
44.6100 0.581
44.6403 0.106
44.6705 0.257
44.7008 0.461
44.7311 -0.482
44.7614 0.295
44.7917 0.343
44.8219 0.287
44.8522 -0.186
44.8825 -0.085
44.9128 0.172
44.9430 0.377
44.9733 0.166
45.0036 0.320
45.0339 -0.308
45.0642 0.263
45.0944 -0.520
45.1247 0.260
45.1550 0.206
45.1853 -0.003
45.2156 -0.317
45.2458 -0.116
45.2761 -0.279
45.3064 -0.546
45.3367 0.331
45.3669 -0.459
45.3972 0.209
45.4275 0.253
45.4578 -0.015
45.4881 0.707
45.5183 -0.186
45.5486 0.015
45.5789 -0.148
45.6092 -0.572
45.6395 0.198
45.6697 0.500
45.7000 -0.604
45.7303 0.062
45.7606 0.208
45.7908 0.198
45.8211 0.501
45.8514 0.284
45.8817 0.222
45.9120 0.057
45.9422 0.153
45.9725 0.144
46.0028 0.032
46.0331 0.545
46.0634 0.433
46.0936 -0.044
46.1239 0.157
46.1542 0.984
46.1845 -0.065
46.2147 0.450
46.2450 0.131
46.2753 0.437
46.3056 0.067
46.3359 0.426
46.3661 -0.205
46.3964 0.415
46.4267 0.619
46.4570 0.718
46.4873 0.454
46.5175 0.918
46.5478 -0.127
46.5781 0.702
46.6084 0.855
46.6386 0.643
46.6689 0.484
46.6992 1.419
46.7295 1.104
46.7598 1.935
46.7900 1.100
46.8203 1.567
46.8506 2.347
46.8809 2.085
46.9112 2.657
46.9414 2.135
46.9717 2.968
47.0020 2.759
47.0323 3.072
47.0626 3.697
47.0928 4.218
47.1231 5.052
47.1534 5.730
47.1837 6.877
47.2139 7.347
47.2442 6.984
47.2745 9.382
47.3048 9.800
47.3351 11.469
47.3653 10.743
47.3956 12.464
47.4259 11.842
47.4562 12.679
47.4865 10.026
47.5167 11.801
47.5470 10.451
47.5773 10.038
47.6076 7.751
47.6378 7.287
47.6681 6.667
47.6984 5.787
47.7287 5.219
47.7590 3.975
47.7892 4.241
47.8195 3.258
47.8498 2.587
47.8801 2.385
47.9104 2.132
47.9406 1.566
47.9709 0.427
48.0012 1.320
48.0315 1.745
48.0617 1.388
48.0920 1.657
48.1223 1.509
48.1526 0.372
48.1829 0.694
48.2131 0.547
48.2434 0.765
48.2737 0.827
48.3040 0.628
48.3343 0.430
48.3645 0.128
48.3948 1.337
48.4251 0.254
48.4554 0.161
48.4856 0.276
48.5159 0.340
48.5462 0.144
48.5765 0.677
48.6068 0.793
48.6370 0.285
48.6673 0.350
48.6976 0.207
48.7279 0.064
48.7582 -0.079
48.7884 -0.013
48.8187 -0.363
48.8490 0.068
48.8793 0.396
48.9095 0.204
48.9398 -0.249
48.9701 0.340
49.0004 0.253
49.0307 -0.304
49.0609 -0.245
49.0912 0.700
49.1215 0.238
49.1518 0.142
49.1821 0.358
49.2123 -0.416
49.2426 -0.305
49.2729 0.535
49.3032 0.646
49.3334 0.913
49.3637 0.347
49.3940 0.511
49.4243 0.102
49.4546 -0.098
49.4848 0.223
49.5151 0.283
49.5454 0.240
49.5757 0.197
49.6060 -0.419
49.6362 -0.045
49.6665 -0.140
49.6968 0.391
49.7271 0.349
49.7574 0.828
49.7876 -0.255
49.8179 -0.036
49.8482 -0.285
49.8785 -0.076
49.9087 -0.022
49.9390 0.865
49.9693 -0.071
49.9996 0.296
50.0299 0.298
50.0601 0.301
50.0904 0.251
50.1207 0.411
50.1510 0.258
50.1813 -0.051
50.2115 0.317
50.2418 0.529
50.2721 -0.091
50.3024 0.590
50.3326 0.751
50.3629 -0.546
50.3932 -0.280
50.4235 0.441
50.4538 -0.087
50.4840 0.636
50.5143 0.161
50.5446 0.206
50.5749 0.721
50.6052 -0.118
50.6354 0.397
50.6657 0.183
50.6960 0.751
50.7263 0.642
50.7565 -0.040
50.7868 -0.200
50.8171 0.160
50.8474 0.260
50.8777 0.829
50.9079 -0.216
50.9382 0.146
50.9685 -0.118
50.9988 -0.068
51.0291 0.085
51.0593 0.135
51.0896 -0.023
51.1199 -0.233
51.1502 0.026
51.1804 0.024
51.2107 0.127
51.2410 0.283
51.2713 -0.499
51.3016 -0.135
51.3318 0.542
51.3621 0.230
51.3924 0.230
51.4227 0.491
51.4530 0.544
51.4832 0.076
51.5135 -0.131
51.5438 0.340
51.5741 0.550
51.6043 0.552
51.6346 0.502
51.6649 0.765
51.6952 0.091
51.7255 0.250
51.7557 0.045
51.7860 -0.108
51.8163 0.208
51.8466 -0.309
51.8769 0.477
51.9071 0.065
51.9374 0.069
51.9677 -0.030
51.9980 -0.546
52.0282 0.071
52.0585 0.739
52.0888 0.835
52.1191 -0.058
52.1494 -0.274
52.1796 0.187
52.2099 -0.289
52.2402 0.642
52.2705 0.062
52.3008 0.628
52.3310 -0.211
52.3613 0.147
52.3916 -0.327
52.4219 0.136
52.4521 0.547
52.4824 0.230
52.5127 0.068
52.5430 0.272
52.5733 -0.670
52.6035 0.316
52.6338 -0.001
52.6641 0.152
52.6944 -0.164
52.7247 -0.115
52.7549 0.090
52.7852 0.244
52.8155 0.033
52.8458 0.343
52.8761 -0.232
52.9063 -0.285
52.9366 -0.235
52.9669 0.181
52.9972 -0.081
53.0274 0.075
53.0577 0.282
53.0880 -0.239
53.1183 -0.135
53.1486 0.595
53.1788 0.231
53.2091 0.023
53.2394 0.180
53.2697 -0.131
53.3000 0.026
53.3302 0.340
53.3605 0.082
53.3908 0.344
53.4211 -0.174
53.4513 -0.640
53.4816 0.300
53.5119 0.407
53.5422 -0.371
53.5725 -0.055
53.6027 -0.311
53.6330 0.103
53.6633 0.309
53.6936 0.151
53.7239 -0.163
53.7541 0.565
53.7844 -0.113
53.8147 -0.218
53.8450 0.042
53.8752 0.927
53.9055 0.093
53.9358 0.562
53.9661 -0.010
53.9964 0.251
54.0266 0.356
54.0569 -0.216
54.0872 0.098
54.1175 0.203
54.1478 0.778
54.1780 -0.209
54.2083 -0.468
54.2386 0.243
54.2689 -0.087
54.2991 0.520
54.3294 0.086
54.3597 0.225
54.3900 0.885
54.4203 0.087
54.4505 0.070
54.4808 0.575
54.5111 0.090
54.5414 0.178
54.5717 1.048
54.6019 -0.374
54.6322 0.497
54.6625 0.065
54.6928 0.102
54.7230 0.400
54.7533 -0.030
54.7836 0.216
54.8139 -0.266
54.8442 0.033
54.8744 0.280
54.9047 1.048
54.9350 0.515
54.9653 -0.227
54.9956 0.125
55.0258 0.374
55.0561 0.362
55.0864 0.038
55.1167 0.599
55.1469 0.015
55.1772 1.098
55.2075 0.046
55.2378 0.661
55.2681 0.546
55.2983 1.057
55.3286 0.423
55.3589 0.049
55.3892 0.092
55.4195 0.135
55.4497 0.387
55.4800 0.847
55.5103 0.526
55.5406 1.195
55.5709 0.719
55.6011 0.868
55.6314 1.173
55.6617 1.218
55.6920 2.149
55.7222 1.517
55.7525 2.136
55.7828 1.661
55.8131 1.812
55.8434 1.962
55.8736 2.842
55.9039 3.566
55.9342 2.780
55.9645 3.297
55.9948 3.292
56.0250 4.226
56.0553 4.534
56.0856 5.364
56.1159 6.298
56.1461 6.087
56.1764 7.021
56.2067 8.112
56.2370 8.735
56.2673 9.514
56.2975 12.116
56.3278 11.020
56.3581 11.279
56.3884 14.976
56.4187 16.277
56.4489 16.224
56.4792 15.390
56.5095 16.276
56.5398 15.911
56.5700 15.078
56.6003 13.464
56.6306 13.725
56.6609 11.746
56.6912 9.560
56.7214 8.884
56.7517 9.563
56.7820 7.013
56.8123 4.880
56.8426 7.486
56.8728 5.562
56.9031 4.939
56.9334 4.422
56.9637 3.279
56.9939 4.428
57.0242 3.547
57.0545 2.092
57.0848 2.201
57.1151 2.414
57.1453 2.262
57.1756 1.173
57.2059 1.647
57.2362 1.549
57.2665 1.398
57.2967 1.560
57.3270 1.306
57.3573 0.687
57.3876 0.955
57.4178 1.639
57.4481 0.864
57.4784 0.403
57.5087 1.088
57.5390 0.366
57.5692 0.062
57.5995 0.695
57.6298 0.860
57.6601 0.192
57.6904 0.409
57.7206 0.939
57.7509 -0.093
57.7812 0.698
57.8115 0.552
57.8417 0.198
57.8720 0.469
57.9023 0.479
57.9326 0.178
57.9629 0.449
57.9931 0.409
58.0234 -0.413
58.0537 0.172
58.0840 0.392
58.1143 0.092
58.1445 0.209
58.1748 -0.038
58.2051 0.339
58.2354 -0.064
58.2656 -0.050
58.2959 0.536
58.3262 -0.231
58.3565 0.252
58.3868 0.111
58.4170 0.802
58.4473 -0.016
58.4776 0.260
58.5079 0.171
58.5382 0.187
58.5684 0.359
58.5987 0.688
58.6290 0.027
58.6593 -0.112
58.6896 -0.304
58.7198 -0.134
58.7501 0.139
58.7804 0.205
58.8107 0.115
58.8409 0.285
58.8712 -0.274
58.9015 -0.311
58.9318 0.309
58.9621 0.252
58.9923 0.196
59.0226 0.192
59.0529 -0.489
59.0832 -0.075
59.1135 0.755
59.1437 -0.238
59.1740 -0.241
59.2043 -0.451
59.2346 0.692
59.2648 0.430
59.2951 0.115
59.3254 0.322
59.3557 0.321
59.3860 0.059
59.4162 0.579
59.4465 -0.307
59.4768 0.318
59.5071 0.057
59.5374 0.162
59.5676 0.162
59.5979 0.371
59.6282 -0.097
59.6585 0.112
59.6887 -0.147
59.7190 -0.353
59.7493 0.690
59.7796 0.275
59.8099 0.330
59.8401 0.228
59.8704 0.335
59.9007 0.338
59.9310 0.445
59.9613 -0.072
59.9915 0.609
60.0218 0.300
60.0521 0.096
60.0824 0.101
60.1126 -0.311
60.1429 -0.069
60.1732 0.225
60.2035 -0.470
60.2338 0.918
60.2640 0.692
60.2943 0.571
60.3246 -0.488
60.3549 0.641
60.3852 0.312
60.4154 -0.017
60.4457 0.384
60.4760 0.003
60.5063 -0.117
60.5365 0.545
60.5668 -0.095
60.5971 0.307
60.6274 -0.073
60.6577 0.017
60.6879 -0.205
60.7182 0.093
60.7485 0.027
60.7788 0.691
60.8091 0.001
60.8393 -0.273
60.8696 0.548
60.8999 -0.038
60.9302 -0.310
60.9604 0.667
60.9907 -0.595
61.0210 0.123
61.0513 0.372
61.0816 0.101
61.1118 -0.171
61.1421 -0.390
61.1724 0.224
61.2027 0.160
61.2330 0.878
61.2632 -0.227
61.2935 0.491
61.3238 -0.092
61.3541 -0.207
61.3844 -0.321
61.4146 0.762
61.4449 0.544
61.4752 0.795
61.5055 -0.568
61.5357 0.204
61.5660 0.612
61.5963 0.604
61.6266 0.023
61.6569 0.640
61.6871 0.736
61.7174 0.312
61.7477 0.305
61.7780 0.714
61.8083 0.655
61.8385 0.805
61.8688 -0.399
61.8991 0.636
61.9294 0.422
61.9596 1.042
61.9899 1.036
62.0202 1.239
62.0505 1.391
62.0808 0.813
62.1110 2.007
62.1413 2.419
62.1716 1.894
62.2019 2.464
62.2322 2.825
62.2624 3.134
62.2927 3.287
62.3230 4.483
62.3533 4.011
62.3835 3.957
62.4138 4.215
62.4441 4.318
62.4744 5.827
62.5047 6.867
62.5349 8.168
62.5652 8.011
62.5955 8.635
62.6258 10.614
62.6561 10.666
62.6863 11.083
62.7166 12.385
62.7469 13.532
62.7772 11.397
62.8074 12.857
62.8377 11.816
62.8680 11.141
62.8983 10.882
62.9286 11.145
62.9588 8.699
62.9891 8.285
63.0194 8.132
63.0497 5.999
63.0800 6.159
63.1102 4.860
63.1405 4.708
63.1708 3.930
63.2011 3.570
63.2313 3.314
63.2616 3.839
63.2919 2.438
63.3222 1.870
63.3525 2.501
63.3827 1.725
63.4130 1.679
63.4433 0.956
63.4736 1.535
63.5039 1.021
63.5341 1.549
63.5644 -0.163
63.5947 0.990
63.6250 0.373
63.6552 0.172
63.6855 0.805
63.7158 -0.020
63.7461 0.301
63.7764 0.050
63.8066 -0.462
63.8369 0.276
63.8672 0.338
63.8975 -0.278
63.9278 -0.059
63.9580 0.263
63.9883 0.065
64.0186 0.284
64.0489 0.556
64.0791 -0.266
64.1094 0.318
64.1397 0.277
64.1700 0.237
64.2003 0.145
64.2305 -0.363
64.2608 0.066
64.2911 -0.130
64.3214 -0.325
64.3517 -0.468
64.3819 0.362
64.4122 -0.214
64.4425 0.407
64.4728 0.092
64.5031 0.141
64.5333 -0.226
64.5636 -0.072
64.5939 -0.491
64.6242 0.133
64.6544 -0.077
64.6847 0.078
64.7150 0.181
64.7453 -0.133
64.7756 -0.133
64.8058 0.179
64.8361 -0.290
64.8664 0.439
64.8967 -0.237
64.9270 0.232
64.9572 -0.757
64.9875 0.286
65.0178 -0.442
65.0481 -0.241
65.0783 -0.041
65.1086 0.004
65.1389 -0.264
65.1692 0.198
65.1995 -0.330
65.2297 -0.233
65.2600 0.542
65.2903 -0.141
65.3206 -0.563
65.3509 0.316
65.3811 0.623
65.4114 -0.059
65.4417 -0.324
65.4720 0.452
65.5022 -0.385
65.5325 -0.338
65.5628 0.272
65.5931 -0.107
65.6234 0.347
65.6536 0.333
65.6839 -0.463
65.7142 0.774
65.7445 0.291
65.7748 -0.087
65.8050 0.421
65.8353 0.720
65.8656 0.031
65.8959 0.018
65.9261 0.475
65.9564 1.036
65.9867 0.555
66.0170 1.533
66.0473 0.637
66.0775 0.678
66.1078 -0.375
66.1381 1.438
66.1684 0.178
66.1987 1.001
66.2289 1.824
66.2592 1.138
66.2895 1.649
66.3198 1.744
66.3500 1.475
66.3803 1.831
66.4106 1.562
66.4409 0.356
66.4712 1.182
66.5014 1.122
66.5317 1.062
66.5620 0.430
66.5923 1.048
66.6226 0.312
66.6528 0.150
66.6831 1.446
66.7134 1.492
66.7437 -0.024
66.7739 0.231
66.8042 1.163
66.8345 0.585
66.8648 0.424
66.8951 0.471
66.9253 0.832
66.9556 0.619
66.9859 0.355
67.0162 1.133
67.0465 0.973
67.0767 1.335
67.1070 1.123
67.1373 1.173
67.1676 0.129
67.1978 2.210
67.2281 0.906
67.2584 0.852
67.2887 2.153
67.3190 2.048
67.3492 2.307
67.3795 1.838
67.4098 2.775
67.4401 2.827
67.4704 2.983
67.5006 4.546
67.5309 3.504
67.5612 5.016
67.5915 4.860
67.6218 5.434
67.6520 5.280
67.6823 6.271
67.7126 7.054
67.7429 7.577
67.7731 8.309
67.8034 9.353
67.8337 7.585
67.8640 7.797
67.8943 7.019
67.9245 8.949
67.9548 8.276
67.9851 7.707
68.0154 7.816
68.0457 6.987
68.0759 6.263
68.1062 5.434
68.1365 5.127
68.1668 5.654
68.1970 4.305
68.2273 4.936
68.2576 3.067
68.2879 4.272
68.3182 3.706
68.3484 2.098
68.3787 2.886
68.4090 2.581
68.4393 2.224
68.4696 2.284
68.4998 2.345
68.5301 2.353
68.5604 1.997
68.5907 1.537
68.6209 2.796
68.6512 1.608
68.6815 2.086
68.7118 2.200
68.7421 2.523
68.7723 3.054
68.8026 3.273
68.8329 3.700
68.8632 4.232
68.8935 4.243
68.9237 3.422
68.9540 3.225
68.9843 3.966
69.0146 4.395
69.0448 4.095
69.0751 4.524
69.1054 3.652
69.1357 3.144
69.1660 4.095
69.1962 2.286
69.2265 2.352
69.2568 2.210
69.2871 2.016
69.3174 1.510
69.3476 1.577
69.3779 1.644
69.4082 1.242
69.4385 0.737
69.4687 1.326
69.4990 1.186
69.5293 0.629
69.5596 0.698
69.5899 0.715
69.6201 0.680
69.6504 0.853
69.6807 0.089
69.7110 0.732
69.7413 0.594
69.7715 0.612
69.8018 0.370
69.8321 0.910
69.8624 0.564
69.8926 -0.407
69.9229 0.186
69.9532 0.101
69.9835 -0.348
70.0138 0.662
70.0440 -0.359
70.0743 0.391
70.1046 0.307
70.1349 0.380
70.1652 -0.275
70.1954 0.371
70.2257 -0.024
70.2560 -0.158
70.2863 0.698
70.3166 -0.790
70.3468 -0.142
70.3771 -0.223
70.4074 0.008
70.4377 0.552
70.4679 0.055
70.4982 -0.442
70.5285 -0.022
70.5588 0.815
70.5891 0.297
70.6193 -0.064
70.6496 0.044
70.6799 -0.004
70.7102 0.157
70.7405 0.162
70.7707 0.114
70.8010 -0.401
70.8313 0.229
70.8616 0.287
70.8918 0.605
70.9221 0.923
70.9524 0.253
70.9827 -0.210
71.0130 0.266
71.0432 0.273
71.0735 -0.136
71.1038 -0.285
71.1341 0.188
71.1644 0.245
71.1946 0.355
71.2249 -0.265
71.2552 -0.051
71.2855 0.007
71.3157 0.117
71.3460 0.072
71.3763 0.026
71.4066 0.294
71.4369 0.457
71.4671 -0.213
71.4974 0.159
71.5277 0.219
71.5580 0.175
71.5883 -0.389
71.6185 -0.130
71.6488 0.285
71.6791 0.284
71.7094 0.075
71.7396 0.127
71.7699 0.022
71.8002 0.387
71.8305 -0.030
71.8608 0.336
71.8910 0.232
71.9213 0.441
71.9516 0.182
71.9819 -0.025
72.0122 0.289
72.0424 0.656
72.0727 0.710
72.1030 0.504
72.1333 0.611
72.1635 0.249
72.1938 0.409
72.2241 0.204
72.2544 0.884
72.2847 1.201
72.3149 0.684
72.3452 1.209
72.3755 0.485
72.4058 1.166
72.4361 1.744
72.4663 0.916
72.4966 0.974
72.5269 0.250
72.5572 0.934
72.5874 0.627
72.6177 0.790
72.6480 0.536
72.6783 0.647
72.7086 0.811
72.7388 0.245
72.7691 1.295
72.7994 0.834
72.8297 -0.043
72.8600 -0.035
72.8902 0.390
72.9205 0.347
72.9508 -0.113
72.9811 0.313
73.0113 0.323
73.0416 0.229
73.0719 0.291
73.1022 0.509
73.1325 0.155
73.1627 0.374
73.1930 0.802
73.2233 0.136
73.2536 0.564
73.2839 0.368
73.3141 -0.037
73.3444 -0.545
73.3747 0.079
73.4050 0.807
73.4353 0.650
73.4655 0.442
73.4958 0.858
73.5261 0.025
73.5564 0.390
73.5866 -0.026
73.6169 -0.337
73.6472 0.072
73.6775 0.220
73.7078 0.421
73.7380 -0.159
73.7683 0.251
73.7986 -0.276
73.8289 0.394
73.8592 -0.029
73.8894 0.330
73.9197 -0.092
73.9500 0.006
73.9803 -0.103
74.0105 0.361
74.0408 0.721
74.0711 -0.117
74.1014 0.660
74.1317 -0.074
74.1619 -0.129
74.1922 -0.029
74.2225 0.020
74.2528 -0.035
74.2831 0.275
74.3133 0.220
74.3436 0.322
74.3739 0.372
74.4042 0.318
74.4344 -0.257
74.4647 0.315
74.4950 0.053
74.5253 -0.208
74.5556 -0.157
74.5858 0.468
74.6161 0.155
74.6464 -0.053
74.6767 -0.053
74.7070 0.260
74.7372 0.209
74.7675 -0.311
74.7978 -0.154
74.8281 -0.205
74.8583 0.109
74.8886 -0.201
74.9189 0.009
74.9492 0.115
74.9795 0.066
75.0097 -0.244
75.0400 -0.041
75.0703 0.162
75.1006 0.001
75.1309 0.413
75.1611 -0.164
75.1914 -0.064
75.2217 -0.016
75.2520 0.761
75.2822 -0.284
75.3125 0.182
75.3428 0.179
75.3731 0.541
75.4034 0.070
75.4336 -0.089
75.4639 0.065
75.4942 0.897
75.5245 0.114
75.5548 -0.043
75.5850 -0.149
75.6153 0.111
75.6456 -0.098
75.6759 -0.046
75.7061 -0.046
75.7364 0.215
75.7667 0.163
75.7970 0.320
75.8273 0.164
75.8575 0.061
75.8878 -0.250
75.9181 -0.198
75.9484 -0.250
75.9787 0.158
76.0089 0.201
76.0392 0.193
76.0695 -0.389
76.0998 0.332
76.1301 0.845
76.1603 0.161
76.1906 0.049
76.2209 0.146
76.2512 0.348
76.2814 0.497
76.3117 -0.134
76.3420 -0.036
76.3723 0.010
76.4026 0.421
76.4328 0.103
76.4631 0.514
76.4934 0.197
76.5237 0.348
76.5540 0.500
76.5842 0.392
76.6145 0.336
76.6448 0.592
76.6751 0.901
76.7053 0.638
76.7356 1.312
76.7659 0.788
76.7962 0.890
76.8265 0.575
76.8567 0.260
76.8870 1.196
76.9173 0.673
76.9476 0.516
76.9779 0.931
77.0081 1.139
77.0384 0.721
77.0687 0.252
77.0990 0.512
77.1292 0.721
77.1595 1.086
77.1898 0.617
77.2201 0.618
77.2504 0.463
77.2806 1.141
77.3109 0.362
77.3412 0.155
77.3715 -0.208
77.4018 -0.153
77.4320 0.109
77.4623 -0.305
77.4926 0.532
77.5229 0.222
77.5531 0.226
77.5834 0.438
77.6137 0.077
77.6440 -0.335
77.6743 0.763
77.7045 -0.066
77.7348 -0.165
77.7651 0.100
77.7954 -0.311
77.8257 -0.049
77.8559 0.110
77.8862 0.321
77.9165 0.116
77.9468 0.483
77.9770 0.122
78.0073 0.126
78.0376 0.078
78.0679 -0.283
78.0982 0.190
78.1284 0.038
78.1587 0.252
78.1890 -0.004
78.2193 0.158
78.2496 0.215
78.2798 -0.039
78.3101 -0.346
78.3404 0.285
78.3707 0.136
78.4009 -0.014
78.4312 0.202
78.4615 -0.260
78.4918 0.008
78.5221 0.016
78.5523 -0.654
78.5826 0.136
78.6129 -0.012
78.6432 -0.212
78.6735 0.162
78.7037 0.535
78.7340 -0.549
78.7643 0.242
78.7946 -0.165
78.8248 -0.311
78.8551 0.205
78.8854 0.097
78.9157 -0.115
78.9460 -0.170
78.9762 0.087
79.0065 -0.489
79.0368 0.029
79.0671 0.755
79.0974 0.232
79.1276 -0.239
79.1579 0.228
79.1882 -0.138
79.2185 0.433
79.2488 -0.193
79.2790 0.119
79.3093 0.222
79.3396 0.378
79.3699 0.170
79.4001 -0.195
79.4304 0.014
79.4607 0.171
79.4910 -0.193
79.5213 -0.244
79.5515 -0.244
79.5818 -0.196
79.6121 -0.199
79.6424 0.006
79.6727 0.160
79.7029 0.157
79.7332 0.155
79.7635 0.257
79.7938 -0.213
79.8240 -0.059
79.8543 0.200
79.8846 -0.061
79.9149 0.198
79.9452 0.250
79.9754 0.249
80.0057 0.145
80.0360 -0.376
80.0663 0.250
80.0966 0.042
80.1268 0.407
80.1571 -0.164
80.1874 0.358
80.2177 0.151
80.2479 0.153
80.2782 0.519
80.3085 0.365
80.3388 0.316
80.3691 -0.254
80.3993 0.374
80.4296 -0.092
80.4599 0.068
80.4902 0.123
80.5205 -0.133
80.5507 -0.441
80.5810 0.180
80.6113 0.178
80.6416 -0.086
80.6718 -0.244
80.7021 -0.142
80.7324 0.013
80.7627 0.168
80.7930 0.167
80.8232 0.115
80.8535 -0.146
80.8838 0.531
80.9141 0.635
80.9444 0.739
80.9746 -0.198
81.0049 0.220
81.0352 0.273
81.0655 -0.090
81.0957 0.797
81.1260 0.173
81.1563 0.592
81.1866 0.282
81.2169 0.336
81.2471 1.120
81.2774 0.342
81.3077 0.137
81.3380 0.348
81.3683 0.560
81.3985 1.241
81.4288 0.933
81.4591 1.250
81.4894 0.057
81.5196 0.530
81.5499 0.483
81.5802 0.280
81.6105 0.338
81.6408 0.708
81.6710 0.558
81.7013 0.148
81.7316 0.363
81.7619 0.369
81.7922 0.533
81.8224 -0.085
81.8527 0.495
81.8830 0.190
81.9133 0.407
81.9436 0.259
81.9738 0.528
82.0041 0.172
82.0344 0.128
82.0647 0.450
82.0949 0.043
82.1252 0.521
82.1555 0.323
82.1858 0.020
82.2161 -0.073
82.2463 0.562
82.2766 0.469
82.3069 0.272
82.3372 0.023
82.3675 0.607
82.3977 0.358
82.4280 0.006
82.4583 -0.190
82.4886 0.604
82.5188 -0.009
82.5491 0.369
82.5794 0.538
82.6097 0.448
82.6400 0.097
82.6702 -0.202
82.7005 -0.108
82.7308 0.455
82.7611 0.393
82.7914 0.070
82.8216 0.530
82.8519 0.260
82.8822 -0.062
82.9125 0.502
82.9427 0.181
82.9730 0.121
83.0033 0.530
83.0336 0.105
83.0639 0.045
83.0941 -0.066
83.1244 0.239
83.1547 0.493
83.1850 0.174
83.2153 0.219
83.2455 0.317
83.2758 0.207
83.3061 0.410
83.3364 -0.064
83.3666 0.087
83.3969 -0.179
83.4272 0.025
83.4575 -0.344
83.4878 0.120
83.5180 0.012
83.5483 -0.044
83.5786 0.109
83.6089 0.002
83.6392 -0.210
83.6694 -0.160
83.6997 0.045
83.7300 0.147
83.7603 -0.324
83.7905 0.143
83.8208 0.298
83.8511 0.297
83.8814 0.400
83.9117 0.347
83.9419 -0.227
83.9722 0.293
84.0025 0.189
84.0328 -0.175
84.0631 0.502
84.0933 0.242
84.1236 0.243
84.1539 0.296
84.1842 0.193
84.2144 0.611
84.2447 0.092
84.2750 -0.166
84.3053 -0.164
84.3356 0.411
84.3658 -0.159
84.3961 0.000
84.4264 0.160
84.4567 0.319
84.4870 0.375
84.5172 0.327
84.5475 -0.138
84.5778 0.023
84.6081 -0.389
84.6383 0.022
84.6686 0.643
84.6989 0.013
84.7292 0.165
84.7595 0.473
84.7897 0.521
84.8200 0.310
84.8503 0.410
84.8806 0.303
84.9109 0.040
84.9411 -0.067
84.9714 0.191
85.0017 -0.176
85.0320 -0.022
85.0623 -0.492
85.0925 0.235
85.1228 0.026
85.1531 -0.131
85.1834 0.128
85.2136 0.492
85.2439 0.336
85.2742 0.231
85.3045 0.961
85.3348 -0.133
85.3650 0.024
85.3953 0.234
85.4256 0.079
85.4559 -0.076
85.4862 -0.075
85.5164 -0.073
85.5467 -0.227
85.5770 -0.026
85.6073 -0.137
85.6375 0.272
85.6678 0.422
85.6981 0.364
85.7284 -0.059
85.7587 -0.273
85.7889 0.815
85.8192 0.184
85.8495 -0.081
85.8798 -0.086
85.9101 -0.195
85.9403 0.113
85.9706 0.056
86.0009 -0.156
86.0312 0.309
86.0614 0.097
86.0917 -0.114
86.1220 0.143
86.1523 -0.120
86.1826 -0.123
86.2128 -0.073
86.2431 -0.179
86.2734 0.236
86.3037 -0.026
86.3340 0.597
86.3642 -0.029
86.3945 0.699
86.4248 0.126
86.4551 0.802
86.4853 -0.083
86.5156 -0.031
86.5459 0.230
86.5762 0.126
86.6065 0.127
86.6367 0.180
86.6670 -0.340
86.6973 -0.026
86.7276 0.653
86.7579 -0.230
86.7881 0.189
86.8184 -0.278
86.8487 0.298
86.8790 0.093
86.9092 -0.477
86.9395 0.151
86.9698 0.155
87.0001 -0.154
87.0304 0.267
87.0606 0.167
87.0909 0.745
87.1212 -0.552
87.1515 0.078
87.1818 0.135
87.2120 0.558
87.2423 -0.062
87.2726 0.413
87.3029 0.784
87.3331 0.114
87.3634 -0.036
87.3937 0.700
87.4240 0.551
87.4543 -0.118
87.4845 0.150
87.5148 -0.259
87.5451 -0.117
87.5754 0.077
87.6057 0.375
87.6359 0.153
87.6662 0.036
87.6965 0.439
87.7268 0.478
87.7571 0.049
87.7873 0.348
87.8176 0.597
87.8479 0.168
87.8782 0.416
87.9084 -0.064
87.9387 0.237
87.9690 -0.191
87.9993 -0.045
88.0296 0.048
88.0598 0.246
88.0901 -0.285
88.1204 0.330
88.1507 0.008
88.1810 -0.210
88.2112 -0.011
88.2415 0.397
88.2718 0.076
88.3021 -0.506
88.3323 0.528
88.3626 0.259
88.3929 -0.217
88.4232 0.192
88.4535 0.237
88.4837 0.125
88.5140 -0.246
88.5443 0.581
88.5746 0.158
88.6049 -0.005
88.6351 0.458
88.6654 0.244
88.6957 -0.022
88.7260 0.025
88.7562 0.177
88.7865 0.120
88.8168 0.480
88.8471 0.840
88.8774 0.628
88.9076 0.833
88.9379 0.465
88.9682 0.618
88.9985 1.188
89.0288 0.872
89.0590 0.505
89.0893 0.347
89.1196 0.501
89.1499 1.124
89.1801 0.862
89.2104 1.017
89.2407 0.860
89.2710 1.432
89.3013 1.223
89.3315 1.639
89.3618 1.900
89.3921 2.108
89.4224 1.327
89.4527 1.432
89.4829 1.589
89.5132 2.059
89.5435 2.060
89.5738 1.385
89.6040 1.438
89.6343 1.441
89.6646 1.443
89.6949 0.977
89.7252 1.292
89.7554 1.711
89.7857 1.975
89.8160 1.406
89.8463 1.461
89.8766 1.153
89.9068 0.636
89.9371 1.109
89.9674 1.531
89.9977 0.494
90.0279 0.864
90.0582 0.400
90.0885 0.406
90.1188 0.724
90.1491 0.470
90.1793 -0.044
90.2096 0.483
90.2399 0.438
90.2702 0.184
90.3005 -0.277
90.3307 0.355
90.3610 0.467
90.3913 0.996
90.4216 -0.141
90.4518 0.180
90.4821 0.397
90.5124 0.250
90.5427 0.259
90.5730 -0.096
90.6032 0.017
90.6335 -0.337
90.6638 0.023
90.6941 0.228
90.7244 0.849
90.7546 -0.144
90.7849 -0.095
90.8152 -0.254
90.8455 0.213
90.8758 0.054
90.9060 -0.104
90.9363 0.519
90.9666 -0.264
90.9969 0.359
91.0271 0.150
91.0574 0.097
91.0877 -0.268
91.1180 0.617
91.1483 0.200
91.1785 -0.165
91.2088 0.148
91.2391 0.201
91.2694 0.097
91.2997 0.098
91.3299 0.256
91.3602 -0.003
91.3905 0.155
91.4208 0.000
91.4510 0.471
91.4813 0.318
91.5116 -0.149
91.5419 -0.250
91.5722 0.055
91.6024 -0.369
91.6327 0.457
91.6630 0.189
91.6933 -0.078
91.7236 0.124
91.7538 0.170
91.7841 -0.149
91.8144 -0.363
91.8447 0.203
91.8749 -0.011
91.9052 0.087
91.9355 -0.075
91.9658 -0.080
91.9961 0.071
92.0263 -0.402
92.0566 0.687
92.0869 0.422
92.1172 0.470
92.1475 0.258
92.1777 0.306
92.2080 -0.114
92.2383 0.820
92.2686 0.088
92.2988 0.450
92.3291 0.031
92.3594 0.758
92.3897 0.026
92.4200 0.389
92.4502 0.179
92.4805 0.074
92.5108 0.385
92.5411 0.228
92.5714 0.124
92.6016 0.488
92.6319 0.332
92.6622 0.540
92.6925 0.436
92.7227 0.645
92.7530 0.229
92.7833 0.439
92.8136 0.492
92.8439 0.494
92.8741 0.548
92.9044 -0.023
92.9347 0.188
92.9650 0.607
92.9953 0.610
93.0255 1.081
93.0558 0.147
93.0861 -0.214
93.1164 0.311
93.1466 -0.050
93.1769 0.527
93.2072 0.167
93.2375 0.224
93.2678 0.229
93.2980 0.651
93.3283 0.187
93.3586 0.610
93.3889 0.199
93.4192 0.257
93.4494 0.211
93.4797 0.010
93.5100 0.329
93.5403 0.232
93.5706 0.083
93.6008 0.403
93.6311 -0.266
93.6614 -0.154
93.6917 -0.250
93.7219 -0.106
93.7522 0.038
93.7825 0.026
93.8128 0.639
93.8431 0.419
93.8733 0.669
93.9036 0.033
93.9339 -0.187
93.9642 0.115
93.9945 -0.051
94.0247 0.460
94.0550 0.346
94.0853 -0.081
94.1156 0.118
94.1458 0.578
94.1761 -0.056
94.2064 -0.117
94.2367 -0.177
94.2670 0.388
94.2972 0.328
94.3275 -0.305
94.3578 0.573
94.3881 0.305
94.4184 0.194
94.4486 0.031
94.4789 -0.184
94.5092 0.018
94.5395 0.481
94.5697 0.423
94.6000 0.366
94.6303 0.933
94.6606 0.043
94.6909 0.455
94.7211 0.450
94.7514 0.967
94.7817 0.025
94.8120 0.959
94.8423 1.059
94.8725 0.535
94.9028 1.001
94.9331 1.362
94.9634 1.464
94.9936 1.930
95.0239 1.095
95.0542 1.301
95.0845 0.935
95.1148 1.402
95.1450 1.453
95.1753 1.504
95.2056 2.441
95.2359 2.076
95.2662 1.190
95.2964 2.180
95.3267 1.659
95.3570 0.566
95.3873 1.035
95.4175 1.505
95.4478 1.558
95.4781 1.247
95.5084 0.103
95.5387 1.042
95.5689 1.305
95.5992 0.370
95.6295 0.633
95.6598 1.157
95.6901 0.951
95.7203 0.851
95.7506 1.063
95.7809 0.806
95.8112 0.393
95.8414 0.502
95.8717 0.454
95.9020 0.667
95.9323 0.308
95.9626 0.365
95.9928 0.162
96.0231 0.220
96.0534 0.799
96.0837 0.649
96.1140 0.447
96.1442 0.610
96.1745 -0.060
96.2048 -0.157
96.2351 0.215
96.2653 0.743
96.2956 0.595
96.3259 -0.074
96.3562 0.143
96.3865 -0.057
96.4167 0.056
96.4470 0.742
96.4773 0.283
96.5076 0.292
96.5379 0.146
96.5681 0.520
96.5984 -0.094
96.6287 0.281
96.6590 0.552
96.6893 -0.166
96.7195 -0.259
96.7498 0.209
96.7801 0.572
96.8104 0.207
96.8406 0.207
96.8709 0.206
96.9012 -0.366
96.9315 0.103
96.9618 -0.261
96.9920 0.416
97.0223 0.574
97.0526 0.367
97.0829 -0.465
97.1132 -0.255
97.1434 -0.472
97.1737 0.665
97.2040 -0.333
97.2343 0.232
97.2645 0.016
97.2948 0.374
97.3251 -0.259
97.3554 0.255
97.3857 0.196
97.4159 0.190
97.4462 -0.337
97.4765 -0.135
97.5068 0.328
97.5371 0.479
97.5673 -0.099
97.5976 -0.103
97.6279 0.205
97.6582 0.148
97.6884 0.144
97.7187 -0.225
97.7490 0.084
97.7793 0.029
97.8096 0.130
97.8398 0.179
97.8701 0.124
97.9004 0.382
97.9307 0.120
97.9610 -0.247
97.9912 0.689
98.0215 -0.563
98.0518 0.009
98.0821 0.633
98.1123 0.216
98.1426 0.163
98.1729 0.059
98.2032 0.527
98.2335 0.580
98.2637 0.632
98.2940 0.372
98.3243 0.269
98.3546 0.479
98.3849 0.688
98.4151 0.638
98.4454 1.213
98.4757 0.746
98.5060 0.748
98.5362 0.959
98.5665 0.650
98.5968 0.705
98.6271 1.021
98.6574 0.660
98.6876 0.976
98.7179 1.240
98.7482 0.620
98.7785 0.780
98.8088 0.108
98.8390 0.165
98.8693 0.691
98.8996 0.749
98.9299 0.390
98.9601 0.292
98.9904 0.298
99.0207 0.721
99.0510 0.727
99.0813 0.005
99.1115 0.585
99.1418 -0.189
99.1721 -0.337
99.2024 0.244
99.2327 0.410
99.2629 0.523
99.2932 0.428
99.3235 0.021
99.3538 -0.281
99.3841 0.562
99.4143 0.208
99.4446 0.375
99.4749 -0.135
99.5052 0.501
99.5354 0.252
99.5657 0.420
99.5960 0.120
99.6263 -0.389
99.6566 -0.081
99.6868 0.228
99.7171 0.590
99.7474 0.222
99.7777 -0.041
99.8080 0.581
99.8382 -0.255
99.8685 0.108
99.8988 -0.102
99.9291 0.261
99.9593 0.155
99.9896 0.310
100.0199 0.361
100.0502 0.725
100.0805 -0.265
100.1107 0.412
100.1410 0.412
100.1713 0.100
100.2016 -0.160
100.2319 0.622
100.2621 0.310
100.2924 0.259
100.3227 0.782
100.3530 -0.154
100.3832 0.577
100.4135 -0.098
100.4438 -0.043
100.4741 -0.041
100.5044 0.535
100.5346 0.174
100.5649 -0.083
100.5952 -0.028
100.6255 -0.024
100.6558 0.137
100.6860 -0.067
100.7163 -0.375
100.7466 0.359
100.7769 0.312
100.8071 -0.048
100.8374 0.479
100.8677 -0.088
100.8980 -0.239
100.9283 0.065
100.9585 -0.205
100.9888 0.411
101.0191 -0.118
101.0494 -0.230
101.0797 0.074
101.1099 -0.038
101.1402 -0.097
101.1705 0.572
101.2008 0.149
101.2310 -0.223
101.2613 0.187
101.2916 -0.236
101.3219 0.071
101.3522 -0.040
101.3824 0.528
101.4127 0.262
101.4430 0.309
101.4733 0.304
101.5036 -0.117
101.5338 -0.226
101.5641 0.186
101.5944 0.026
101.6247 0.335
101.6549 0.332
101.6852 0.016
101.7155 0.690
101.7458 0.583
101.7761 0.060
101.8063 -0.203
101.8366 -0.153
101.8669 -0.259
101.8972 0.197
101.9275 -0.023
101.9577 0.278
101.9880 0.318
102.0183 0.672
102.0486 0.192
102.0788 0.494
102.1091 -0.142
102.1394 0.108
102.1697 0.567
102.2000 0.297
102.2302 -0.129
102.2605 0.695
102.2908 0.217
102.3211 0.052
102.3514 0.460
102.3816 0.555
102.4119 -0.338
102.4422 -0.034
102.4725 0.584
102.5028 0.576
102.5330 0.153
102.5633 0.041
102.5936 0.399
102.6239 0.132
102.6541 0.595
102.6844 0.433
102.7147 0.271
102.7450 0.734
102.7753 0.520
102.8055 0.203
102.8358 0.667
102.8661 0.298
102.8964 0.710
102.9267 0.810
102.9569 -0.027
102.9872 0.490
103.0175 0.487
103.0478 1.161
103.0780 0.481
103.1083 0.582
103.1386 0.372
103.1689 0.682
103.1992 0.628
103.2294 1.512
103.2597 0.937
103.2900 0.259
103.3203 0.623
103.3506 0.257
103.3808 -0.264
103.4111 1.090
103.4414 -0.160
103.4717 0.413
103.5019 0.414
103.5322 0.154
103.5625 0.311
103.5928 0.208
103.6231 1.407
103.6533 0.367
103.6836 0.369
103.7139 0.632
103.7442 0.582
103.7745 0.845
103.8047 0.848
103.8350 1.164
103.8653 0.490
103.8956 0.650
103.9258 0.706
103.9561 1.179
103.9864 0.506
104.0167 1.083
104.0470 0.880
104.0772 1.770
104.1075 1.880
104.1378 1.312
104.1681 0.745
104.1984 0.699
104.2286 0.705
104.2589 0.660
104.2892 1.291
104.3195 1.923
104.3497 0.785
104.3800 1.209
104.4103 1.321
104.4406 0.808
104.4709 0.659
104.5011 0.512
104.5314 0.729
104.5617 0.477
104.5920 0.799
104.6223 0.860
104.6525 0.297
104.6828 0.723
104.7131 0.733
104.7434 0.379
104.7736 0.077
104.8039 0.869
104.8342 0.672
104.8645 0.058
104.8948 0.174
104.9250 -0.023
104.9553 0.354
104.9856 0.053
105.0159 0.326
105.0462 0.078
105.0764 -0.013
105.1067 0.417
105.1370 0.222
105.1673 -0.337
105.1975 -0.180
105.2278 0.654
105.2581 0.498
105.2884 0.031
105.3187 -0.020
105.3489 0.555
105.3792 0.557
105.4095 0.299
105.4398 0.093
105.4701 0.356
105.5003 -0.631
105.5306 -0.159
105.5609 0.730
105.5912 0.473
105.6215 0.060
105.6517 0.012
105.6820 0.225
105.7123 0.021
105.7426 0.026
105.7728 0.187
105.8031 0.297
105.8334 0.667
105.8637 -0.161
105.8940 -0.311
105.9242 0.201
105.9545 0.401
105.9848 0.184
106.0151 0.072
106.0454 0.220
106.0756 -0.256
106.1059 0.049
106.1362 -0.375
106.1665 0.243
106.1967 0.236
106.2270 -0.083
106.2573 0.067
106.2876 0.009
106.3179 0.577
106.3481 0.102
106.3784 -0.007
106.4087 0.353
106.4390 -0.381
106.4693 0.083
106.4995 -0.182
106.5298 -0.290
106.5601 0.644
106.5904 0.015
106.6206 0.116
106.6509 0.165
106.6812 -0.046
106.7115 -0.101
106.7418 0.365
106.7720 0.103
106.8023 -0.055
106.8326 -0.109
106.8629 0.098
106.8932 0.045
106.9234 0.252
106.9537 -0.530
106.9840 0.407
107.0143 0.615
107.0445 -0.114
107.0748 0.147
107.1051 0.043
107.1354 0.096
107.1657 0.201
107.1959 0.567
107.2262 -0.161
107.2565 0.570
107.2868 -0.418
107.3171 0.105
107.3473 0.004
107.3776 -0.202
107.4079 0.113
107.4382 -0.040
107.4684 0.276
107.4987 0.280
107.5290 -0.029
107.5593 -0.181
107.5896 0.396
107.6198 0.453
107.6501 -0.011
107.6804 -0.006
107.7107 0.364
107.7410 0.057
107.7712 0.271
107.8015 0.590
107.8318 -0.081
107.8621 0.134
107.8923 0.192
107.9226 0.147
107.9529 0.415
107.9832 0.370
108.0135 0.222
108.0437 0.282
108.0740 0.394
108.1043 0.715
108.1346 0.151
108.1649 -0.309
108.1951 0.169
108.2254 -0.239
108.2557 -0.441
108.2860 0.280
108.3163 0.065
108.3465 0.006
108.3768 0.520
108.4071 -0.320
108.4374 0.298
108.4676 0.136
108.4979 -0.026
108.5282 -0.084
108.5585 0.276
108.5888 0.062
108.6190 0.370
108.6493 0.001
108.6796 -0.056
108.7099 0.252
108.7402 0.144
108.7704 0.193
108.8007 -0.123
108.8310 0.082
108.8613 0.131
108.8915 0.076
108.9218 0.074
108.9521 -0.033
108.9824 -0.243
109.0127 0.641
109.0429 0.275
109.0732 -0.143
109.1035 0.429
109.1338 0.688
109.1641 0.115
109.1943 -0.198
109.2246 0.062
109.2549 0.166
109.2852 -0.250
109.3154 -0.207
109.3457 0.044
109.3760 0.451
109.4063 0.078
109.4366 0.330
109.4668 -0.043
109.4971 0.417
109.5274 0.149
109.5577 0.037
109.5880 -0.023
109.6182 -0.134
109.6485 0.484
109.6788 0.113
109.7091 0.002
109.7393 0.360
109.7696 -0.062
109.7999 0.140
109.8302 0.447
109.8605 0.129
109.8907 0.593
109.9210 0.432
109.9513 0.167
109.9816 0.371
110.0119 0.627
110.0421 0.415
110.0724 0.620
110.1027 0.616
110.1330 -0.116
110.1632 0.610
110.1935 0.243
110.2238 0.293
110.2541 0.238
110.2844 0.393
110.3146 0.599
110.3449 -0.027
110.3752 0.284
110.4055 0.700
110.4358 1.064
110.4660 0.594
110.4963 0.438
110.5266 0.698
110.5569 0.803
110.5871 0.543
110.6174 -0.030
110.6477 0.180
110.6780 0.702
110.7083 0.495
110.7385 0.132
110.7688 0.602
110.7991 0.604
110.8294 0.034
110.8597 0.714
110.8899 -0.325
110.9202 -0.062
110.9505 0.775
110.9808 -0.003
111.0110 0.418
111.0413 0.161
111.0716 0.322
111.1019 0.378
111.1322 0.331
111.1624 0.492
111.1927 -0.023
111.2230 -0.226
111.2533 0.144
111.2836 0.046
111.3138 -0.260
111.3441 -0.098
111.3744 0.065
111.4047 0.072
111.4350 0.027
111.4652 0.138
111.4955 0.406
111.5258 0.154
111.5561 0.110
111.5863 0.170
111.6166 0.283
111.6469 -0.177
111.6772 -0.220
111.7075 0.310
111.7377 0.059
111.7680 -0.036
111.7983 0.912
111.8286 0.036
111.8589 0.151
111.8891 -0.099
111.9194 -0.036
111.9497 -0.493
111.9800 0.082
112.0102 0.606
112.0405 0.244
112.0708 -0.221
112.1011 -0.218
112.1314 -0.266
112.1616 0.467
112.1919 0.159
112.2222 0.319
112.2525 -0.093
112.2828 0.121
112.3130 -0.239
112.3433 -0.192
112.3736 0.532
112.4039 0.319
112.4341 -0.154
112.4644 0.206
112.4947 -0.215
112.5250 0.302
112.5553 0.038
112.5855 -0.174
112.6158 -0.229
112.6461 0.445
112.6764 -0.182
112.7067 0.076
112.7369 0.073
112.7672 0.280
112.7975 -0.243
112.8278 -0.244
112.8580 0.271
112.8883 0.214
112.9186 -0.104
112.9489 -0.004
112.9792 0.303
113.0094 0.924
113.0397 -0.174
113.0700 0.395
113.1003 0.652
113.1306 -0.080
113.1608 -0.031
113.1911 0.539
113.2214 -0.297
113.2517 -0.248
113.2819 -0.250
113.3122 0.269
113.3425 -0.513
113.3728 -0.098
113.4031 -0.099
113.4333 -0.204
113.4636 0.316
113.4939 0.316
113.5242 0.108
113.5545 0.733
113.5847 0.317
113.6150 0.213
113.6453 0.526
113.6756 -0.566
113.7058 0.216
113.7361 0.114
113.7664 -0.040
113.7967 0.170
113.8270 -0.296
113.8572 0.331
113.8875 0.386
113.9178 0.181
113.9481 0.340
113.9784 -0.281
114.0086 0.035
114.0389 0.091
114.0692 0.356
114.0995 -0.213
114.1298 0.417
114.1600 0.422
114.1903 -0.093
114.2206 -0.244
114.2509 0.002
114.2811 0.456
114.3114 -0.235
114.3417 0.220
114.3720 0.050
114.4023 0.245
114.4325 0.284
114.4628 -0.249
114.4931 0.363
114.5234 -0.431
114.5537 0.078
114.5839 0.327
114.6142 0.159
114.6445 -0.165
114.6748 0.136
114.7050 -0.239
114.7353 0.115
114.7656 0.000
114.7959 0.302
114.8262 0.188
114.8564 -0.134
114.8867 0.325
114.9170 -0.205
114.9473 0.359
114.9776 -0.066
115.0078 -0.023
115.0381 0.334
115.0684 -0.091
115.0987 -0.099
115.1289 0.362
115.1592 0.147
115.1895 0.140
115.2198 0.237
115.2501 0.335
115.2803 0.641
115.3106 0.635
115.3409 0.108
115.3712 0.154
115.4015 0.461
115.4317 -0.533
115.4620 0.347
115.4923 0.134
115.5226 -0.079
115.5528 -0.083
115.5831 0.486
115.6134 0.170
115.6437 0.687
115.6740 0.111
115.7042 0.993
115.7345 0.418
115.7648 0.363
115.7951 0.309
115.8254 1.036
115.8556 0.826
115.8859 1.085
115.9162 0.562
115.9465 0.613
115.9767 1.081
116.0070 0.195
116.0373 0.612
116.0676 1.132
116.0979 1.653
116.1281 0.351
116.1584 0.508
116.1887 1.030
116.2190 1.239
116.2493 1.293
116.2795 1.190
116.3098 1.713
116.3401 0.413
116.3704 1.405
116.4006 0.522
116.4309 0.681
116.4612 1.465
116.4915 1.781
116.5218 1.211
116.5520 0.850
116.5823 1.427
116.6126 1.067
116.6429 1.123
116.6732 0.555
116.7034 1.081
116.7337 1.659
116.7640 0.935
116.7943 1.618
116.8245 0.894
116.8548 0.952
116.8851 1.011
116.9154 0.340
116.9457 1.128
116.9759 0.094
117.0062 0.518
117.0365 0.109
117.0668 1.054
117.0971 0.697
117.1273 0.237
117.1576 0.297
117.1879 -0.058
117.2182 0.784
117.2485 -0.405
117.2787 0.021
117.3090 0.396
117.3393 -0.063
117.3696 0.416
117.3998 -0.251
117.4301 1.218
117.4604 -0.073
117.4907 0.094
117.5210 -0.311
117.5512 -0.050
117.5815 -0.100
117.6118 0.058
117.6421 0.320
117.6724 0.270
117.7026 0.116
117.7329 0.691
117.7632 0.278
117.7935 0.177
117.8237 -0.133
117.8540 -0.442
117.8843 0.552
117.9146 0.087
117.9449 -0.221
117.9751 -0.008
118.0054 0.153
118.0357 -0.259
118.0660 -0.101
118.0963 0.578
118.1265 0.060
118.1568 0.479
118.1871 0.117
118.2174 0.277
118.2476 0.384
118.2779 0.804
118.3082 0.444
118.3385 0.343
118.3688 -0.017
118.3990 -0.012
118.4293 0.253
118.4596 -0.628
118.4899 0.211
118.5202 0.685
118.5504 -0.142
118.5807 1.061
118.6110 0.495
118.6413 -0.228
118.6715 0.300
118.7018 -0.058
118.7321 0.262
118.7624 -0.200
118.7927 -0.244
118.8229 -0.088
118.8532 -0.193
118.8835 0.380
118.9138 0.433
118.9441 0.329
118.9743 -0.295
119.0046 -0.085
119.0349 -0.188
119.0652 0.699
119.0954 0.284
119.1257 0.390
119.1560 -0.128
119.1863 0.031
119.2166 0.815
119.2468 -0.172
119.2771 0.560
119.3074 0.356
119.3377 0.099
119.3680 -0.418
119.3982 0.263
119.4285 -0.357
119.4588 -0.196
119.4891 0.017
119.5193 -0.290
119.5496 0.184
119.5799 -0.279
119.6102 0.456
119.6405 0.254
119.6707 0.573
119.7010 0.319
119.7313 0.013
119.7616 0.020
119.7919 -0.233
119.8221 -0.086
119.8524 0.426
119.8827 0.209
119.9130 0.096
119.9433 0.140
119.9735 -0.754
120.0038 0.000
