'Id: "" Comment: "" Operator: "Lab Manager" Anode: "Cu" Scantype: "Locked Coupled" TimePerStep: "19.2" X: "9999" Y: "9999" Z: "9999" 
10.0015 0.000
10.0318 0.139
10.0620 0.382
10.0923 -0.520
10.1226 -0.242
10.1529 1.079
10.1832 1.149
10.2134 0.334
10.2437 1.603
10.2740 0.684
10.3043 1.536
10.3346 1.451
10.3648 0.533
10.3951 1.385
10.4254 2.603
10.4557 2.205
10.4859 1.027
10.5162 1.672
10.5465 1.327
10.5768 3.379
10.6071 1.837
10.6373 1.909
10.6676 1.825
10.6979 2.054
10.7282 0.721
10.7585 1.992
10.7887 2.065
10.8190 1.097
10.8493 2.472
10.8796 2.233
10.9098 3.401
10.9401 3.787
10.9704 5.372
11.0007 6.279
11.0310 6.093
11.0612 7.313
11.0915 7.596
11.1218 4.962
11.1521 4.985
11.1824 3.029
11.2126 1.750
11.2429 1.252
11.2732 2.525
11.3035 1.611
11.3337 1.739
11.3640 1.450
11.3943 0.901
11.4246 1.915
11.4549 1.158
11.4851 0.505
11.5154 0.894
11.5457 0.554
11.5760 0.578
11.6063 1.020
11.6365 0.264
11.6668 0.653
11.6971 0.835
11.7274 0.704
11.7577 0.261
11.7879 1.380
11.8182 0.468
11.8485 1.119
11.8788 0.676
11.9090 0.130
11.9393 -0.156
11.9696 0.287
11.9999 0.157
12.0302 0.080
12.0604 0.159
12.0907 0.082
12.1210 0.005
12.1513 0.032
12.1816 0.528
12.2118 -0.694
12.2421 0.375
12.2724 0.195
12.3027 0.431
12.3329 -0.583
12.3632 0.227
12.3935 0.255
12.4238 0.284
12.4541 -0.312
12.4843 -0.293
12.5146 0.507
12.5449 0.266
12.5752 -0.496
12.6055 0.045
12.6357 0.117
12.6660 -0.124
12.6963 0.781
12.7266 0.229
12.7568 -0.220
12.7871 0.478
12.8174 -0.127
12.8477 0.415
12.8780 0.332
12.9082 0.092
12.9385 0.582
12.9688 -0.282
12.9991 0.417
13.0294 -0.187
13.0596 -0.165
13.0899 0.273
13.1202 0.243
13.1505 0.318
13.1807 -0.546
13.2110 -0.271
13.2413 -0.007
13.2716 0.308
13.3019 -0.262
13.3321 -0.050
13.3624 0.474
13.3927 0.113
13.4230 -0.039
13.4533 -0.140
13.4835 0.437
13.5138 0.389
13.5441 0.706
13.5744 -0.435
13.6046 0.090
13.6349 0.199
13.6652 -0.057
13.6955 0.521
13.7258 -0.255
13.7560 0.584
13.7863 0.224
13.8166 -0.135
13.8469 -0.285
13.8772 0.184
13.9074 -0.025
13.9377 0.288
13.9680 -0.284
13.9983 0.029
14.0285 0.030
14.0588 0.864
14.0891 -0.177
14.1194 0.554
14.1497 -0.018
14.1799 0.296
14.2102 0.506
14.2405 0.664
14.2708 -0.064
14.3011 1.188
14.3313 0.253
14.3616 0.099
14.3919 0.414
14.4222 -0.313
14.4524 0.367
14.4827 0.214
14.5130 -0.148
14.5433 0.897
14.5736 0.119
14.6038 -0.555
14.6341 0.282
14.6644 0.285
14.6947 0.706
14.7250 -0.071
14.7552 -0.172
14.7855 -0.272
14.8158 0.358
14.8461 -0.315
14.8764 -0.050
14.9066 0.320
14.9369 -0.092
14.9672 0.381
14.9975 0.230
15.0277 -0.337
15.0580 -0.178
15.0883 0.398
15.1186 -0.328
15.1489 0.456
15.1791 -0.218
15.2094 0.359
15.2397 -0.002
15.2700 0.314
15.3003 0.266
15.3305 0.322
15.3608 -0.247
15.3911 0.434
15.4214 -0.186
15.4516 0.339
15.4819 0.604
15.5122 0.088
15.5425 0.354
15.5728 0.255
15.6030 -0.261
15.6333 0.005
15.6636 0.115
15.6939 0.277
15.7242 0.543
15.7544 -0.649
15.7847 0.190
15.8150 0.457
15.8453 0.672
15.8755 -0.416
15.9058 0.060
15.9361 0.483
15.9664 0.438
15.9967 0.080
16.0269 0.348
16.0572 0.095
16.0875 0.415
16.1178 0.058
16.1481 0.430
16.1783 0.230
16.2086 -0.022
16.2389 0.090
16.2692 0.046
16.2994 -0.102
16.3297 -0.041
16.3600 0.020
16.3903 0.081
16.4206 0.090
16.4508 -0.005
16.4811 0.160
16.5114 0.430
16.5417 -0.029
16.5720 -0.020
16.6022 -0.010
16.6325 -0.156
16.6628 0.010
16.6931 0.125
16.7233 -0.021
16.7536 0.042
16.7839 0.313
16.8142 0.219
16.8445 0.022
16.8747 -0.071
16.9050 0.252
16.9353 0.108
16.9656 0.275
16.9959 0.599
17.0261 -0.274
17.0564 0.154
17.0867 -0.042
17.1170 -0.082
17.1472 0.139
17.1775 -0.057
17.2078 0.424
17.2381 0.333
17.2684 0.189
17.2986 0.255
17.3289 -0.149
17.3592 -0.188
17.3895 0.176
17.4198 0.071
17.4500 -0.138
17.4803 0.486
17.5106 0.121
17.5409 0.589
17.5712 0.068
17.6014 0.329
17.6317 0.016
17.6620 -0.244
17.6923 0.538
17.7225 0.278
17.7528 0.122
17.7831 0.384
17.8134 0.124
17.8437 0.386
17.8739 -0.082
17.9042 0.336
17.9345 0.077
17.9648 0.079
17.9951 0.497
18.0253 -0.022
18.0556 0.137
18.0859 0.087
18.1162 0.037
18.1464 -0.013
18.1767 0.198
18.2070 0.045
18.2373 -0.057
18.2676 0.207
18.2978 0.158
18.3281 0.109
18.3584 0.217
18.3887 -0.092
18.4190 0.120
18.4492 0.228
18.4795 0.180
18.5098 -0.129
18.5401 0.032
18.5703 0.505
18.6006 0.093
18.6309 -0.059
18.6612 0.519
18.6915 0.316
18.7217 0.529
18.7520 0.117
18.7823 0.540
18.8126 -0.028
18.8429 -0.022
18.8731 -0.173
18.9034 0.036
18.9337 0.245
18.9640 -0.014
18.9942 0.091
19.0245 0.404
19.0548 0.093
19.0851 0.407
19.1154 0.357
19.1456 0.306
19.1759 0.256
19.2062 0.102
19.2365 0.208
19.2668 0.158
19.2970 0.004
19.3273 0.215
19.3576 0.582
19.3879 0.220
19.4181 0.119
19.4484 0.487
19.4787 0.021
19.5090 -0.080
19.5393 -0.180
19.5695 0.130
19.5998 0.181
19.6301 0.231
19.6604 -0.083
19.6907 0.072
19.7209 0.696
19.7512 0.330
19.7815 0.381
19.8118 -0.245
19.8420 0.067
19.8723 0.639
19.9026 0.222
19.9329 0.274
19.9632 0.378
19.9934 0.222
20.0237 0.222
20.0540 0.222
20.0843 0.275
20.1146 -0.037
20.1448 -0.089
20.1751 -0.296
20.2054 0.174
20.2357 0.071
20.2659 0.072
20.2962 0.490
20.3265 0.075
20.3568 0.858
20.3871 0.078
20.4173 -0.180
20.4476 -0.026
20.4779 -0.027
20.5082 0.388
20.5385 0.282
20.5687 0.125
20.5990 -0.189
20.6293 0.488
20.6596 0.018
20.6899 0.226
20.7201 -0.035
20.7504 0.069
20.7807 0.069
20.8110 0.329
20.8412 1.058
20.8715 0.017
20.9018 0.330
20.9321 0.174
20.9624 0.435
20.9926 0.279
21.0229 -0.032
21.0532 0.229
21.0835 0.022
21.1138 0.076
21.1440 0.077
21.1743 0.287
21.2046 -0.336
21.2349 0.291
21.2651 -0.072
21.2954 0.190
21.3257 0.557
21.3560 0.039
21.3863 0.042
21.4165 0.253
21.4468 -0.005
21.4771 0.258
21.5074 0.105
21.5377 0.109
21.5679 -0.096
21.5982 0.168
21.6285 0.067
21.6588 -0.033
21.6890 0.127
21.7193 0.131
21.7496 0.083
21.7799 0.140
21.8102 -0.064
21.8404 0.461
21.8707 -0.003
21.9010 -0.206
21.9313 0.050
21.9616 0.359
21.9918 0.042
22.0221 -0.065
22.0524 -0.017
22.0827 0.605
22.1129 0.185
22.1432 0.077
22.1735 0.283
22.2038 0.020
22.2341 -0.087
22.2643 0.066
22.2946 0.637
22.3249 0.270
22.3552 0.111
22.3855 0.214
22.4157 0.160
22.4460 -0.207
22.4763 0.156
22.5066 -0.210
22.5368 -0.003
22.5671 0.309
22.5974 -0.057
22.6277 0.150
22.6580 0.358
22.6882 -0.164
22.7185 0.461
22.7488 0.409
22.7791 -0.008
22.8094 -0.165
22.8396 0.042
22.8699 -0.064
22.9002 -0.222
22.9305 0.194
22.9607 -0.172
22.9910 0.139
23.0213 -0.226
23.0516 0.241
23.0819 0.241
23.1121 -0.176
23.1424 0.084
23.1727 0.135
23.2030 0.344
23.2333 0.135
23.2635 -0.333
23.2938 0.031
23.3241 0.136
23.3544 -0.176
23.3846 -0.019
23.4149 0.190
23.4452 0.139
23.4755 0.088
23.5058 -0.171
23.5360 0.143
23.5663 -0.168
23.5966 -0.010
23.6269 -0.165
23.6572 -0.165
23.6874 -0.011
23.7177 0.248
23.7480 0.142
23.7783 -0.120
23.8086 0.295
23.8388 0.242
23.8691 0.032
23.8994 -0.229
23.9297 0.186
23.9599 -0.283
23.9902 0.029
24.0205 -0.232
24.0508 0.028
24.0811 0.393
24.1113 -0.232
24.1416 -0.075
24.1719 -0.074
24.2022 -0.282
24.2325 0.136
24.2627 0.033
24.2930 0.398
24.3233 0.139
24.3536 -0.120
24.3838 0.038
24.4141 -0.116
24.4444 0.094
24.4747 0.356
24.5050 0.150
24.5352 -0.004
24.5655 -0.001
24.5958 -0.051
24.6261 0.317
24.6564 0.372
24.6866 0.166
24.7169 0.013
24.7472 0.121
24.7775 0.593
24.8077 -0.237
24.8380 0.235
24.8683 0.291
24.8986 0.295
24.9289 -0.065
24.9591 0.095
24.9894 0.204
25.0197 -0.156
25.0500 -0.310
25.0803 0.213
25.1105 0.007
25.1408 -0.147
25.1711 0.273
25.2014 -0.089
25.2316 -0.086
25.2619 0.230
25.2922 0.389
25.3225 0.341
25.3528 0.240
25.3830 0.140
25.4133 0.144
25.4436 -0.113
25.4739 0.308
25.5042 -0.104
25.5344 0.473
25.5647 0.478
25.5950 0.326
25.6253 0.070
25.6555 0.127
25.6858 -0.180
25.7161 -0.072
25.7464 0.243
25.7767 0.039
25.8069 0.199
25.8372 -0.162
25.8675 0.154
25.8978 0.002
25.9281 0.579
25.9583 -0.197
25.9886 0.224
26.0189 0.437
26.0492 -0.079
26.0794 0.082
26.1097 0.139
26.1400 -0.064
26.1703 0.150
26.2006 0.155
26.2308 0.161
26.2611 0.063
26.2914 0.277
26.3217 -0.030
26.3520 -0.128
26.3822 -0.076
26.4125 0.236
26.4428 0.391
26.4731 0.339
26.5034 -0.130
26.5336 0.131
26.5639 0.235
26.5942 0.183
26.6245 0.079
26.6547 0.184
26.6850 -0.128
26.7153 -0.075
26.7456 0.186
26.7759 0.239
26.8061 0.189
26.8364 0.086
26.8667 0.087
26.8970 0.089
26.9273 0.143
26.9575 0.301
26.9878 0.199
27.0181 0.045
27.0484 0.151
27.0786 -0.003
27.1089 0.052
27.1392 -0.154
27.1695 -0.001
27.1998 0.256
27.2300 0.045
27.2603 0.146
27.2906 0.403
27.3209 0.140
27.3512 0.033
27.3814 0.343
27.4117 -0.024
27.4420 0.286
27.4723 -0.133
27.5025 0.073
27.5328 0.123
27.5631 0.226
27.5934 0.016
27.6237 0.066
27.6539 -0.091
27.6842 -0.092
27.7145 0.115
27.7448 0.270
27.7751 0.321
27.8053 0.269
27.8356 0.320
27.8659 -0.097
27.8962 0.215
27.9264 0.059
27.9567 0.215
27.9870 0.320
28.0173 0.320
28.0476 -0.044
28.0778 0.425
28.1081 0.218
28.1384 0.166
28.1687 0.219
28.1990 0.116
28.2292 0.066
28.2595 0.171
28.2898 0.277
28.3201 -0.138
28.3503 -0.084
28.3806 0.282
28.4109 0.180
28.4412 0.183
28.4715 -0.180
28.5017 -0.132
28.5320 0.437
28.5623 -0.035
28.5926 0.013
28.6229 -0.042
28.6531 0.163
28.6834 -0.049
28.7137 0.052
28.7440 0.101
28.7742 -0.214
28.8045 0.096
28.8348 0.093
28.8651 0.091
28.8954 0.192
28.9256 0.034
28.9559 -0.124
28.9862 0.134
29.0165 -0.232
29.0468 -0.078
29.0770 0.181
29.1073 0.023
29.1376 0.177
29.1679 -0.033
29.1981 0.070
29.2284 0.277
29.2587 0.120
29.2890 0.327
29.3193 0.222
29.3495 0.222
29.3798 0.117
29.4101 0.429
29.4404 -0.092
29.4707 0.168
29.5009 -0.092
29.5312 0.116
29.5615 0.273
29.5918 0.013
29.6221 -0.143
29.6523 0.066
29.6826 0.067
29.7129 -0.192
29.7432 0.121
29.7734 -0.138
29.8037 -0.140
29.8340 0.327
29.8643 -0.091
29.8946 0.115
29.9248 -0.147
29.9551 0.008
29.9854 0.007
30.0157 0.214
30.0460 0.213
30.0762 -0.256
30.1065 0.108
30.1368 -0.049
30.1671 -0.258
30.1973 0.101
30.2276 0.147
30.2579 -0.067
30.2882 -0.281
30.3185 0.182
30.3487 -0.135
30.3790 0.120
30.4093 -0.198
30.4396 0.423
30.4699 0.262
30.5001 -0.212
30.5304 0.044
30.5607 0.040
30.5910 -0.016
30.6212 0.032
30.6515 0.028
30.6818 0.233
30.7121 -0.031
30.7424 0.173
30.7726 0.483
30.8029 0.219
30.8332 0.216
30.8635 0.005
30.8938 0.210
30.9240 -0.001
30.9543 -0.264
30.9846 0.255
31.0149 0.253
31.0451 0.407
31.0754 0.040
31.1057 0.507
31.1360 0.922
31.1663 0.244
31.1965 0.555
31.2268 0.345
31.2571 0.500
31.2874 0.551
31.3177 0.446
31.3479 1.904
31.3782 1.070
31.4085 1.434
31.4388 2.059
31.4690 2.059
31.4993 1.174
31.5296 2.372
31.5599 2.632
31.5902 2.893
31.6204 2.842
31.6507 2.738
31.6810 2.635
31.7113 2.896
31.7416 2.429
31.7718 1.388
31.8021 1.390
31.8324 2.016
31.8627 1.236
31.8929 0.613
31.9232 0.876
31.9535 0.461
31.9838 0.724
32.0141 0.674
32.0443 0.103
32.0746 0.731
32.1049 0.578
32.1352 0.268
32.1655 0.427
32.1957 0.378
32.2260 0.486
32.2563 0.489
32.2866 0.076
32.3169 0.080
32.3471 0.136
32.3774 0.296
32.4077 0.405
32.4380 0.096
32.4682 0.049
32.4985 0.157
32.5288 -0.202
32.5591 0.323
32.5894 -0.036
32.6196 0.021
32.6499 0.078
32.6802 0.292
32.7105 -0.067
32.7408 -0.009
32.7710 0.153
32.8013 -0.206
32.8316 -0.106
32.8619 0.359
32.8921 0.408
32.9224 0.248
32.9527 0.036
32.9830 -0.071
33.0133 -0.126
33.0435 -0.025
33.0738 -0.132
33.1041 -0.083
33.1344 -0.033
33.1647 -0.088
33.1949 0.222
33.2252 0.012
33.2555 0.010
33.2858 -0.096
33.3160 0.059
33.3463 -0.099
33.3766 0.055
33.4069 -0.206
33.4372 0.105
33.4674 -0.052
33.4977 -0.001
33.5280 -0.158
33.5583 0.310
33.5886 0.049
33.6188 -0.055
33.6491 -0.003
33.6794 -0.003
33.7097 0.101
33.7399 0.205
33.7702 -0.107
33.8005 0.258
33.8308 0.207
33.8611 -0.261
33.8913 0.260
33.9216 0.157
33.9519 -0.154
33.9822 -0.108
34.0125 0.408
34.0427 0.142
34.0730 0.918
34.1033 0.548
34.1336 0.804
34.1638 0.955
34.1941 0.899
34.2244 2.196
34.2547 2.765
34.2850 2.760
34.3152 2.340
34.3455 2.231
34.3758 1.915
34.4061 1.339
34.4364 0.658
34.4666 0.186
34.4969 0.235
34.5272 0.388
34.5575 0.333
34.5877 0.278
34.6180 -0.038
34.6483 0.272
34.6786 0.061
34.7089 0.372
34.7391 -0.151
34.7694 0.159
34.7997 0.053
34.8300 -0.365
34.8603 0.206
34.8905 -0.004
34.9208 0.359
34.9511 -0.215
34.9814 -0.164
35.0116 -0.165
35.0419 -0.009
35.0722 -0.009
35.1025 -0.114
35.1328 -0.010
35.1630 -0.062
35.1933 0.303
35.2236 -0.009
35.2539 -0.165
35.2842 -0.165
35.3144 0.148
35.3447 0.306
35.3750 0.306
35.4053 -0.265
35.4356 -0.004
35.4658 0.466
35.4961 -0.001
35.5264 0.261
35.5567 0.107
35.5869 0.369
35.6172 0.163
35.6475 0.842
35.6778 0.480
35.7081 0.534
35.7383 0.589
35.7686 0.644
35.7989 0.959
35.8292 1.014
35.8595 1.069
35.8897 1.177
35.9200 1.597
35.9503 1.861
35.9806 1.813
36.0108 2.598
36.0411 2.029
36.0714 3.543
36.1017 2.766
36.1320 2.927
36.1622 2.723
36.1925 3.249
36.2228 2.160
36.2531 2.894
36.2834 2.170
36.3136 1.342
36.3439 1.712
36.3742 1.457
36.4045 0.629
36.4347 0.739
36.4650 0.797
36.4953 1.011
36.5256 0.653
36.5559 0.503
36.5861 0.666
36.6164 0.881
36.6467 0.314
36.6770 0.373
36.7073 0.589
36.7375 0.335
36.7678 0.134
36.7981 0.246
36.8284 0.306
36.8586 0.001
36.8889 0.061
36.9192 0.069
36.9495 0.233
36.9798 0.085
37.0100 0.146
37.0403 0.258
37.0706 0.007
37.1009 0.016
37.1312 0.025
37.1614 -0.018
37.1917 0.303
37.2220 0.261
37.2523 0.374
37.2825 0.071
37.3128 -0.127
37.3431 -0.023
37.3734 0.237
37.4037 0.445
37.4339 0.185
37.4642 0.393
37.4945 0.341
37.5248 -0.023
37.5551 0.238
37.5853 -0.021
37.6156 0.032
37.6459 0.397
37.6762 -0.071
37.7064 0.035
37.7367 0.141
37.7670 0.038
37.7973 0.144
37.8276 0.198
37.8578 0.043
37.8881 0.150
37.9184 0.360
37.9487 0.467
37.9790 -0.104
38.0092 -0.257
38.0395 0.156
38.0698 0.153
38.1001 -0.162
38.1304 0.148
38.1606 0.145
38.1909 0.142
38.2212 0.192
38.2515 0.242
38.2817 0.084
38.3120 0.186
38.3423 0.132
38.3726 0.287
38.4029 0.077
38.4331 0.388
38.4634 0.022
38.4937 -0.135
38.5240 0.333
38.5543 0.019
38.5845 0.279
38.6148 0.122
38.6451 0.018
38.6754 0.017
38.7056 -0.087
38.7359 0.069
38.7662 0.382
38.7965 0.174
38.8268 0.018
38.8570 0.123
38.8873 0.280
38.9176 0.176
38.9479 0.021
38.9782 0.230
39.0084 0.180
39.0387 0.025
39.0690 0.078
39.0993 0.132
39.1295 0.238
39.1598 0.032
39.1901 0.138
39.2204 0.296
39.2507 -0.014
39.2809 0.145
39.3112 0.148
39.3415 0.202
39.3718 0.101
39.4021 -0.104
39.4323 -0.103
39.4626 -0.101
39.4929 0.317
39.5232 0.267
39.5534 0.009
39.5837 0.272
39.6140 0.170
39.6443 0.068
39.6746 0.331
39.7048 0.126
39.7351 0.076
39.7654 0.027
39.7957 0.135
39.8260 -0.070
39.8562 -0.067
39.8865 0.093
39.9168 0.045
39.9471 0.361
39.9773 0.053
40.0076 -0.100
40.0379 0.061
40.0682 0.170
40.0985 0.174
40.1287 0.023
40.1590 -0.129
40.1893 -0.081
40.2196 0.122
40.2499 0.014
40.2801 0.114
40.3104 0.214
40.3407 0.106
40.3710 0.519
40.4012 0.202
40.4315 0.251
40.4618 -0.013
40.4921 0.401
40.5224 0.137
40.5526 0.186
40.5829 0.079
40.6132 0.441
40.6435 0.386
40.6738 0.123
40.7040 0.225
40.7343 0.119
40.7646 0.169
40.7949 0.063
40.8251 0.165
40.8554 0.268
40.8857 -0.098
40.9160 0.109
40.9463 0.108
40.9765 0.159
41.0068 -0.051
41.0371 0.157
41.0674 0.052
41.0977 0.312
41.1279 -0.001
41.1582 0.103
41.1885 -0.001
41.2188 0.103
41.2491 0.103
41.2793 0.052
41.3096 -0.104
41.3399 0.000
41.3702 0.156
41.4004 0.209
41.4307 -0.156
41.4610 0.313
41.4913 0.054
41.5216 -0.050
41.5518 -0.153
41.5821 0.105
41.6124 -0.105
41.6427 0.101
41.6730 0.307
41.7032 0.149
41.7335 0.148
41.7638 -0.218
41.7941 0.145
41.8243 -0.013
41.8546 0.038
41.8849 0.402
41.9152 0.089
41.9455 -0.016
41.9757 0.296
42.0060 0.139
42.0363 0.087
42.0666 0.295
42.0969 -0.069
42.1271 -0.069
42.1574 0.087
42.1877 -0.068
42.2180 0.036
42.2482 -0.119
42.2785 0.038
42.3088 -0.013
42.3391 0.040
42.3694 0.041
42.3996 0.303
42.4299 0.044
42.4602 0.150
42.4905 0.048
42.5208 -0.054
42.5510 -0.104
42.5813 -0.003
42.6116 0.151
42.6419 -0.111
42.6721 0.043
42.7024 -0.168
42.7327 0.039
42.7630 0.037
42.7933 -0.069
42.8235 0.034
42.8538 -0.020
42.8841 0.031
42.9144 0.239
42.9447 -0.023
42.9749 0.341
43.0052 0.028
43.0355 0.236
43.0658 -0.129
43.0960 0.287
43.1263 -0.130
43.1566 -0.025
43.1869 -0.129
43.2172 0.236
43.2474 0.028
43.2777 0.080
43.3080 -0.127
43.3383 -0.024
43.3686 0.080
43.3988 0.079
43.4291 0.287
43.4594 -0.026
43.4897 0.078
43.5199 -0.078
43.5502 0.131
43.5805 -0.130
43.6108 0.131
43.6411 0.288
43.6713 -0.076
43.7016 -0.179
43.7319 0.134
43.7622 -0.074
43.7925 0.083
43.8227 0.292
43.8530 -0.228
43.8833 0.034
43.9136 -0.069
43.9439 0.140
43.9741 0.090
44.0044 0.143
44.0347 0.093
44.0650 0.199
44.0952 0.149
44.1255 0.464
44.1558 0.102
44.1861 -0.104
44.2164 -0.104
44.2466 0.050
44.2769 0.100
44.3072 0.255
44.3375 0.253
44.3678 0.251
44.3980 -0.115
44.4283 0.249
44.4586 0.091
44.4889 0.090
44.5191 -0.067
44.5494 0.245
44.5797 0.245
44.6100 0.140
44.6403 -0.121
44.6705 0.244
44.7008 0.296
44.7311 0.140
44.7614 -0.225
44.7917 0.245
44.8219 0.141
44.8522 0.194
44.8825 0.090
44.9128 0.300
44.9430 0.040
44.9733 0.458
45.0036 0.251
45.0339 -0.112
45.0642 -0.006
45.0944 0.256
45.1247 -0.002
45.1550 0.104
45.1853 0.158
45.2156 0.004
45.2458 0.267
45.2761 0.166
45.3064 0.064
45.3367 0.276
45.3669 -0.034
45.3972 0.334
45.4275 0.025
45.4578 0.132
45.4881 0.188
45.5183 -0.069
45.5486 0.508
45.5789 0.460
45.6092 -0.057
45.6395 -0.208
45.6697 0.046
45.7000 0.301
45.7303 0.139
45.7606 0.081
45.7908 0.128
45.8211 0.122
45.8514 0.117
45.8817 0.269
45.9120 0.472
45.9422 0.051
45.9725 0.202
46.0028 0.354
46.0331 0.350
46.0634 0.085
46.0936 -0.127
46.1239 -0.031
46.1542 0.274
46.1845 0.110
46.2147 0.519
46.2450 0.147
46.2753 0.400
46.3056 0.185
46.3359 0.126
46.3661 0.067
46.3964 0.112
46.4267 -0.102
46.4570 0.099
46.4873 0.249
46.5175 0.452
46.5478 0.185
46.5781 0.023
46.6084 0.070
46.6386 0.220
46.6689 -0.202
46.6992 0.053
46.7295 -0.004
46.7598 0.095
46.7900 0.038
46.8203 0.034
46.8506 0.081
46.8809 0.181
46.9112 0.020
46.9414 0.120
46.9717 0.220
47.0020 0.268
47.0323 0.108
47.0626 0.469
47.0928 -0.055
47.1231 0.202
47.1534 -0.218
47.1837 0.717
47.2139 -0.015
47.2442 0.346
47.2745 0.448
47.3048 0.029
47.3351 0.547
47.3653 0.389
47.3956 0.230
47.4259 0.437
47.4562 0.279
47.4865 0.329
47.5167 0.900
47.5470 0.170
47.5773 0.273
47.6076 0.219
47.6378 0.062
47.6681 -0.095
47.6984 0.113
47.7287 0.164
47.7590 0.320
47.7892 0.111
47.8195 0.111
47.8498 -0.097
47.8801 -0.097
47.9104 0.007
47.9406 0.320
47.9709 -0.096
48.0012 -0.147
48.0315 -0.253
48.0617 0.266
48.0920 -0.100
48.1223 0.107
48.1526 0.002
48.1829 0.157
48.2131 0.156
48.2434 -0.209
48.2737 -0.053
48.3040 -0.106
48.3343 -0.106
48.3645 -0.054
48.3948 -0.002
48.4251 -0.054
48.4554 0.155
48.4856 -0.001
48.5159 -0.209
48.5462 0.156
48.5765 -0.155
48.6068 0.367
48.6370 -0.049
48.6673 0.004
48.6976 0.006
48.7279 0.059
48.7582 -0.147
48.7884 -0.099
48.8187 -0.207
48.8490 0.207
48.8793 -0.109
48.9095 0.096
48.9398 -0.115
48.9701 0.038
49.0004 0.036
49.0307 -0.123
49.0609 0.083
49.0912 -0.180
49.1215 -0.025
49.1518 0.442
49.1821 0.180
49.2123 0.075
49.2426 -0.083
49.2729 -0.136
49.3032 0.072
49.3334 0.332
49.3637 -0.085
49.3940 0.070
49.4243 -0.034
49.4546 -0.034
49.4848 0.122
49.5151 -0.138
49.5454 -0.086
49.5757 0.071
49.6060 0.228
49.6362 -0.032
49.6665 0.178
49.6968 0.074
49.7271 -0.185
49.7574 0.077
49.7876 0.182
49.8179 -0.128
49.8482 -0.075
49.8785 0.031
49.9087 -0.123
49.9390 -0.277
49.9693 0.298
49.9996 -0.064
50.0299 -0.061
50.0601 0.097
50.0904 0.048
50.1207 -0.053
50.1510 0.315
50.1813 0.162
50.2115 0.269
50.2418 -0.144
50.2721 0.172
50.3024 0.228
50.3326 -0.081
50.3629 0.236
50.3932 -0.072
50.4235 0.088
50.4538 -0.116
50.4840 0.097
50.5143 -0.106
50.5446 0.003
50.5749 0.008
50.6052 -0.091
50.6354 -0.138
50.6657 0.015
50.6960 0.011
50.7263 0.477
50.7565 0.109
50.7868 -0.050
50.8171 -0.053
50.8474 -0.004
50.8777 0.462
50.9079 -0.113
50.9382 -0.063
50.9685 -0.014
50.9988 0.089
51.0291 0.139
51.0593 -0.123
51.0896 0.083
51.1199 -0.023
51.1502 -0.128
51.1804 0.027
51.2107 -0.130
51.2410 -0.131
51.2713 0.076
51.3016 0.023
51.3318 -0.081
51.3621 -0.134
51.3924 0.126
51.4227 0.230
51.4530 -0.134
51.4832 0.022
51.5135 0.022
51.5438 -0.133
51.5741 -0.081
51.6043 0.076
51.6346 0.285
51.6649 -0.235
51.6952 -0.129
51.7255 -0.024
51.7557 0.134
51.7860 0.135
51.8163 0.033
51.8466 0.035
51.8769 0.505
51.9071 0.091
51.9374 0.353
51.9677 -0.009
51.9980 0.462
52.0282 0.100
52.0585 0.311
52.0888 0.158
52.1191 0.109
52.1494 0.060
52.1796 -0.093
52.2099 0.015
52.2402 -0.138
52.2705 -0.086
52.3008 0.331
52.3310 0.123
52.3613 0.384
52.3916 0.280
52.4219 0.124
52.4521 -0.083
52.4824 0.126
52.5127 -0.133
52.5430 0.180
52.5733 -0.027
52.6035 0.079
52.6338 0.237
52.6641 -0.074
52.6944 0.605
52.7247 -0.122
52.7549 0.088
52.7852 0.143
52.8155 0.041
52.8458 -0.113
52.8761 0.098
52.9063 0.049
52.9366 -0.052
52.9669 -0.049
52.9972 0.371
53.0274 -0.042
53.0577 0.326
53.0880 -0.087
53.1183 0.177
53.1486 0.077
53.1788 -0.232
53.2091 -0.025
53.2394 -0.078
53.2697 0.077
53.3000 -0.133
53.3302 0.022
53.3605 -0.030
53.3908 -0.083
53.4211 0.072
53.4513 0.228
53.4816 0.176
53.5119 -0.033
53.5422 -0.189
53.5725 0.332
53.6027 0.124
53.6330 0.072
53.6633 0.125
53.6936 -0.135
53.7239 0.231
53.7541 0.023
53.7844 -0.080
53.8147 0.026
53.8450 -0.025
53.8752 -0.128
53.9055 -0.074
53.9358 -0.020
53.9661 0.139
53.9964 0.193
54.0266 0.039
54.0569 -0.114
54.0872 0.201
54.1175 0.256
54.1478 0.259
54.1780 0.522
54.2083 -0.152
54.2386 0.112
54.2689 0.116
54.2991 0.276
54.3294 0.071
54.3597 0.127
54.3900 0.027
54.4203 0.396
54.4505 0.088
54.4808 0.301
54.5111 0.097
54.5414 0.102
54.5717 0.107
54.6019 0.060
54.6322 0.117
54.6625 0.122
54.6928 0.024
54.7230 -0.127
54.7533 0.024
54.7836 0.071
54.8139 -0.039
54.8442 0.060
54.8744 0.108
54.9047 0.051
54.9350 -0.006
54.9653 -0.167
54.9956 0.090
55.0258 0.242
55.0561 -0.127
55.0864 0.025
55.1167 -0.083
55.1469 -0.034
55.1772 0.327
55.2075 -0.249
55.2378 0.164
55.2681 0.161
55.2983 0.158
55.3286 0.155
55.3589 0.205
55.3892 -0.058
55.4195 -0.060
55.4497 0.094
55.4800 0.092
55.5103 -0.067
55.5406 -0.016
55.5709 0.242
55.6011 -0.020
55.6314 0.083
55.6617 0.082
55.6920 -0.180
55.7222 -0.025
55.7525 0.130
55.7828 0.077
55.8131 -0.081
55.8434 0.127
55.8736 0.074
55.9039 0.073
55.9342 0.072
55.9645 -0.188
55.9948 0.332
56.0250 0.072
56.0553 0.280
56.0856 0.280
56.1159 0.437
56.1461 0.229
56.1764 0.073
56.2067 0.543
56.2370 -0.030
56.2673 0.076
56.2975 0.493
56.3278 0.130
56.3581 0.340
56.3884 0.654
56.4187 0.864
56.4489 0.918
56.4792 0.607
56.5095 0.297
56.5398 0.820
56.5700 0.510
56.6003 0.564
56.6306 0.411
56.6609 -0.055
56.6912 0.573
56.7214 0.523
56.7517 0.214
56.7820 0.322
56.8123 0.169
56.8426 0.329
56.8728 -0.032
56.9031 0.076
56.9334 0.392
56.9637 0.240
56.9939 0.088
57.0242 0.145
57.0545 0.097
57.0848 0.102
57.1151 0.211
57.1453 -0.044
57.1756 0.221
57.2059 0.227
57.2362 0.180
57.2665 -0.127
57.2967 -0.126
57.3270 0.344
57.3573 0.137
57.3876 -0.018
57.4178 -0.069
57.4481 -0.015
57.4784 0.091
57.5087 0.145
57.5390 -0.009
57.5692 -0.007
57.5995 0.308
57.6298 0.206
57.6601 0.053
57.6904 -0.153
57.7206 0.003
57.7509 0.003
57.7812 0.055
57.8115 0.160
57.8417 0.056
57.8720 0.265
57.9023 0.214
57.9326 0.006
57.9629 -0.045
57.9931 -0.096
58.0234 0.009
58.0537 0.167
58.0840 0.117
58.1143 0.014
58.1445 0.016
58.1748 0.018
58.2051 0.124
58.2354 0.178
58.2656 0.181
58.2959 0.131
58.3262 -0.023
58.3565 0.032
58.3868 0.244
58.4170 0.038
58.4473 0.042
58.4776 0.045
58.5079 0.048
58.5382 -0.104
58.5684 -0.055
58.5987 0.151
58.6290 0.096
58.6593 0.094
58.6896 -0.012
58.7198 -0.066
58.7501 0.036
58.7804 0.295
58.8107 0.398
58.8409 -0.073
58.8712 0.030
58.9015 0.029
58.9318 0.132
58.9621 0.027
58.9923 0.027
59.0226 0.026
59.0529 -0.026
59.0832 0.025
59.1135 0.077
59.1437 0.025
59.1740 -0.027
59.2043 0.286
59.2346 -0.026
59.2648 0.026
59.2951 0.027
59.3254 0.184
59.3557 -0.023
59.3860 0.134
59.4162 -0.125
59.4465 0.137
59.4768 0.138
59.5071 0.036
59.5374 0.142
59.5676 0.039
59.5979 -0.011
59.6282 0.096
59.6585 0.150
59.6887 0.309
59.7190 -0.001
59.7493 0.210
59.7796 0.057
59.8099 0.476
59.8401 -0.198
59.8704 -0.090
59.9007 -0.041
59.9310 -0.045
59.9613 0.056
59.9915 0.054
60.0218 0.155
60.0521 0.100
60.0824 0.098
60.1126 0.252
60.1429 -0.011
60.1732 0.039
60.2035 0.089
60.2338 0.087
60.2640 0.138
60.2943 0.032
60.3246 0.031
60.3549 -0.179
60.3852 0.029
60.4154 0.028
60.4457 0.027
60.4760 -0.025
60.5063 0.235
60.5365 -0.026
60.5668 0.234
60.5971 -0.026
60.6274 0.183
60.6577 -0.077
60.6879 0.027
60.7182 0.028
60.7485 -0.024
60.7788 -0.179
60.8091 0.081
60.8393 0.028
60.8696 0.184
60.8999 -0.024
60.9302 0.132
60.9604 0.028
60.9907 -0.076
61.0210 -0.075
61.0513 -0.231
61.0816 0.131
61.1118 0.388
61.1421 0.542
61.1724 0.123
61.2027 0.016
61.2330 0.014
61.2632 0.116
61.2935 -0.094
61.3238 0.060
61.3541 0.006
61.3844 0.057
61.4146 0.264
61.4449 0.263
61.4752 0.157
61.5055 0.000
61.5357 -0.001
61.5660 -0.001
61.5963 -0.106
61.6266 0.154
61.6569 0.154
61.6871 -0.055
61.7174 0.049
61.7477 -0.107
61.7780 0.310
61.8083 -0.002
61.8385 -0.054
61.8688 0.207
61.8991 -0.104
61.9294 0.001
61.9596 0.054
61.9899 -0.153
62.0202 -0.001
62.0505 -0.058
62.0808 0.094
62.1110 -0.015
62.1413 -0.019
62.1716 0.082
62.2019 0.286
62.2322 0.282
62.2624 0.227
62.2927 0.276
62.3230 0.064
62.3533 0.113
62.3835 -0.046
62.4138 0.159
62.4441 0.365
62.4744 -0.002
62.5047 0.204
62.5349 0.045
62.5652 0.303
62.5955 0.145
62.6258 0.351
62.6561 0.454
62.6863 0.452
62.7166 0.451
62.7469 0.658
62.7772 0.448
62.8074 0.708
62.8377 0.446
62.8680 0.185
62.8983 0.080
62.9286 0.236
62.9588 0.184
62.9891 0.288
63.0194 0.131
63.0497 0.079
63.0800 0.288
63.1102 -0.181
63.1405 0.184
63.1708 0.237
63.2011 0.238
63.2313 -0.074
63.2616 -0.021
63.2919 -0.124
63.3222 0.138
63.3525 0.140
63.3827 -0.067
63.4130 -0.013
63.4433 0.093
63.4736 0.147
63.5039 -0.007
63.5341 0.047
63.5644 -0.107
63.5947 0.260
63.6250 0.003
63.6552 0.005
63.6855 0.165
63.7158 -0.041
63.7461 0.067
63.7764 -0.086
63.8066 -0.083
63.8369 0.025
63.8672 -0.127
63.8975 0.034
63.9278 -0.065
63.9580 -0.060
63.9883 0.050
64.0186 -0.049
64.0489 0.113
64.0791 0.067
64.1094 0.021
64.1397 -0.025
64.1700 -0.123
64.2003 0.039
64.2305 0.046
64.2608 0.157
64.2911 -0.149
64.3214 -0.090
64.3517 0.012
64.3819 -0.042
64.4122 0.165
64.4425 -0.045
64.4728 -0.099
64.5031 0.161
64.5333 -0.101
64.5636 0.159
64.5939 0.210
64.6242 0.001
64.6544 0.052
64.6847 0.364
64.7150 0.104
64.7453 0.104
64.7756 0.052
64.8058 0.000
64.8361 -0.104
64.8664 -0.001
64.8967 0.102
64.9270 -0.002
64.9572 -0.003
64.9875 -0.055
65.0178 0.153
65.0481 -0.003
65.0783 -0.003
65.1086 0.206
65.1389 0.206
65.1692 -0.054
65.1995 0.051
65.2297 -0.156
65.2600 -0.057
65.2903 0.146
65.3206 -0.015
65.3509 -0.020
65.3811 0.132
65.4114 0.024
65.4417 -0.033
65.4720 0.172
65.5022 -0.197
65.5325 -0.045
65.5628 0.108
65.5931 0.052
65.6234 0.101
65.6536 -0.058
65.6839 0.095
65.7142 0.144
65.7445 0.089
65.7748 0.138
65.8050 0.136
65.8353 -0.179
65.8656 -0.077
65.8959 0.078
65.9261 -0.027
65.9564 -0.080
65.9867 0.387
66.0170 -0.186
66.0473 0.126
66.0775 -0.083
66.1078 0.073
66.1381 -0.032
66.1684 0.124
66.1987 -0.084
66.2289 0.333
66.2592 0.229
66.2895 -0.031
66.3198 -0.083
66.3500 0.178
66.3803 0.023
66.4106 0.128
66.4409 0.233
66.4712 0.078
66.5014 -0.024
66.5317 0.029
66.5620 0.239
66.5923 0.033
66.6226 0.035
66.6528 -0.015
66.6831 0.195
66.7134 -0.011
66.7437 -0.008
66.7739 -0.110
66.8042 0.153
66.8345 -0.104
66.8648 -0.104
66.8951 0.099
66.9253 0.147
66.9556 -0.066
66.9859 -0.070
67.0162 0.134
67.0465 -0.026
67.0767 -0.082
67.1070 0.174
67.1373 -0.090
67.1676 0.063
67.1978 0.008
67.2281 0.265
67.2584 0.001
67.2887 -0.054
67.3190 -0.160
67.3492 0.254
67.3795 0.147
67.4098 0.040
67.4401 -0.014
67.4704 -0.016
67.5006 -0.018
67.5309 0.136
67.5612 -0.126
67.5915 0.133
67.6218 0.132
67.6520 -0.078
67.6823 0.390
67.7126 0.233
67.7429 0.128
67.7731 0.231
67.8034 0.387
67.8337 0.178
67.8640 0.386
67.8943 0.386
67.9245 0.021
67.9548 0.178
67.9851 0.022
68.0154 0.335
68.0457 -0.030
68.0759 0.023
68.1062 0.232
68.1365 0.077
68.1668 -0.130
68.1970 0.184
68.2273 0.185
68.2576 -0.074
68.2879 -0.020
68.3182 0.138
68.3484 -0.173
68.3787 0.090
68.4090 -0.116
68.4393 -0.113
68.4696 0.203
68.4998 -0.106
68.5301 0.105
68.5604 0.109
68.5907 0.061
68.6209 0.169
68.6512 -0.087
68.6815 0.126
68.7118 -0.026
68.7421 0.447
68.7723 0.035
68.8026 0.040
68.8329 0.045
68.8632 0.102
68.8935 -0.153
68.9237 -0.049
68.9540 -0.049
68.9843 0.055
69.0146 0.055
69.0448 0.524
69.0751 -0.049
69.1054 0.056
69.1357 0.108
69.1660 0.161
69.1962 0.110
69.2265 0.059
69.2568 0.112
69.2871 0.113
69.3174 0.167
69.3476 -0.040
69.3779 0.118
69.4082 -0.036
69.4385 0.070
69.4687 0.385
69.4990 0.022
69.5293 -0.132
69.5596 -0.027
69.5899 -0.078
69.6201 -0.025
69.6504 0.081
69.6807 0.134
69.7110 0.032
69.7413 0.086
69.7715 -0.017
69.8018 -0.015
69.8321 -0.013
69.8624 -0.010
69.8926 -0.008
69.9229 -0.058
69.9532 -0.003
69.9835 -0.104
70.0138 0.003
70.0440 0.110
70.0743 0.009
70.1046 0.220
70.1349 0.015
70.1652 0.019
70.1954 0.074
70.2257 0.130
70.2560 -0.074
70.2863 -0.018
70.3166 0.038
70.3468 0.095
70.3771 -0.109
70.4074 0.104
70.4377 0.108
70.4679 -0.095
70.4982 -0.203
70.5285 0.055
70.5588 0.052
70.5891 0.153
70.6193 -0.058
70.6496 -0.061
70.6799 0.041
70.7102 0.038
70.7405 0.140
70.7707 0.190
70.8010 0.084
70.8313 -0.178
70.8616 -0.075
70.8918 -0.025
70.9221 0.338
70.9524 0.077
70.9827 -0.185
71.0130 -0.030
71.0432 -0.030
71.0735 0.021
71.1038 0.333
71.1341 -0.032
71.1644 0.072
71.1946 0.072
71.2249 0.020
71.2552 0.072
71.2855 -0.032
71.3157 -0.240
71.3460 0.021
71.3763 0.178
71.4066 -0.030
71.4369 -0.029
71.4671 0.077
71.4974 0.078
71.5277 0.027
71.5580 -0.075
71.5883 0.030
71.6185 0.032
71.6488 0.034
71.6791 0.401
71.7094 0.038
71.7396 0.145
71.7699 0.147
71.8002 -0.058
71.8305 -0.108
71.8608 0.052
71.8910 0.159
71.9213 -0.046
71.9516 -0.095
71.9819 -0.046
72.0122 0.003
72.0424 -0.104
72.0727 0.050
72.1030 -0.161
72.1333 0.045
72.1635 -0.009
72.1938 -0.168
72.2241 0.039
72.2544 0.193
72.2847 0.087
72.3149 -0.018
72.3452 -0.124
72.3755 -0.021
72.4058 0.134
72.4361 0.289
72.4663 -0.128
72.4966 -0.129
72.5269 0.077
72.5572 0.023
72.5874 0.021
72.6177 0.019
72.6480 0.330
72.6783 0.016
72.7086 -0.037
72.7388 0.014
72.7691 0.012
72.7994 0.012
72.8297 0.011
72.8600 0.375
72.8902 -0.043
72.9205 -0.043
72.9508 0.009
72.9811 -0.043
73.0113 0.009
73.0416 0.009
73.0719 0.217
73.1022 0.009
73.1325 -0.094
73.1627 0.115
73.1930 0.012
73.2233 0.012
73.2536 0.118
73.2839 -0.193
73.3141 0.068
73.3444 0.018
73.3747 -0.033
73.4050 0.073
73.4353 0.127
73.4655 -0.079
73.4958 -0.181
73.5261 0.025
73.5564 0.128
73.5866 0.074
73.6169 0.072
73.6472 0.018
73.6775 0.173
73.7078 0.016
73.7380 0.067
73.7683 0.118
73.7986 0.013
73.8289 0.012
73.8592 0.011
73.8894 -0.145
73.9197 0.063
73.9500 -0.042
73.9803 0.010
74.0105 0.010
74.0408 0.271
74.0711 -0.041
74.1014 -0.041
74.1317 0.168
74.1619 -0.143
74.1922 -0.090
74.2225 0.014
74.2528 0.013
74.2831 -0.039
74.3133 -0.143
74.3436 0.274
74.3739 0.118
74.4042 0.067
74.4344 0.067
74.4647 0.016
74.4950 -0.087
74.5253 0.018
74.5556 -0.085
74.5858 0.125
74.6161 0.126
74.6464 0.180
74.6767 -0.131
74.7070 -0.181
74.7372 0.077
74.7675 0.022
74.7978 0.020
74.8281 0.382
74.8583 0.015
74.8886 0.013
74.9189 0.011
74.9492 0.166
74.9795 0.008
75.0097 0.162
75.0400 0.213
75.0703 0.056
75.1006 0.055
75.1309 0.001
75.1611 0.157
75.1914 0.000
75.2217 -0.001
75.2520 -0.053
75.2822 -0.105
75.3125 -0.001
75.3428 -0.001
75.3731 -0.001
75.4034 0.311
75.4336 -0.001
75.4639 -0.104
75.4942 -0.004
75.5245 0.045
75.5548 -0.011
75.5850 0.090
75.6153 -0.122
75.6456 -0.021
75.6759 0.185
75.7061 -0.026
75.7364 -0.029
75.7667 -0.031
75.7970 -0.034
75.8273 0.120
75.8575 -0.038
75.8878 -0.144
75.9181 0.271
75.9484 -0.200
75.9787 0.111
76.0089 -0.046
76.0392 -0.100
76.0695 -0.049
76.0998 -0.050
76.1301 0.054
76.1603 -0.051
76.1906 -0.052
76.2209 -0.104
76.2512 0.103
76.2814 -0.106
76.3117 -0.003
76.3420 -0.056
76.3723 0.204
76.4026 0.100
76.4328 -0.057
76.4631 0.047
76.4934 0.099
76.5237 -0.057
76.5540 0.100
76.5842 0.152
76.6145 0.153
76.6448 0.154
76.6751 -0.054
76.7053 -0.053
76.7356 -0.052
76.7659 0.158
76.7962 -0.101
76.8265 0.005
76.8567 0.058
76.8870 -0.044
76.9173 0.270
76.9476 0.064
76.9779 0.014
77.0081 0.017
77.0384 0.175
77.0687 -0.030
77.0990 -0.132
77.1292 0.022
77.1595 0.332
77.1898 0.174
77.2201 -0.037
77.2504 -0.039
77.2806 0.063
77.3109 0.062
77.3412 0.008
77.3715 0.111
77.4018 -0.203
77.4320 0.004
77.4623 0.055
77.4926 0.054
77.5229 -0.051
77.5531 -0.103
77.5834 -0.052
77.6137 -0.104
77.6440 -0.104
77.6743 -0.104
77.7045 -0.104
77.7348 -0.053
77.7651 0.102
77.7954 0.206
77.8257 -0.055
77.8559 0.049
77.8862 -0.160
77.9165 0.205
77.9468 0.153
77.9770 0.049
78.0073 -0.055
78.0376 -0.055
78.0679 -0.002
78.0982 -0.001
78.1284 -0.053
78.1587 0.053
78.1890 0.002
78.2193 -0.049
78.2496 0.161
78.2798 0.214
78.3101 0.112
78.3404 0.061
78.3707 0.011
78.4009 0.066
78.4312 0.120
78.4615 0.174
78.4918 0.021
78.5221 0.180
78.5523 -0.130
78.5826 -0.023
78.6129 -0.020
78.6432 0.087
78.6735 0.039
78.7037 -0.114
78.7340 -0.006
78.7643 -0.003
78.7946 -0.051
78.8248 0.162
78.8551 -0.147
78.8854 -0.090
78.9157 0.066
78.9460 0.066
78.9762 0.170
79.0065 0.066
79.0368 -0.090
79.0671 -0.147
79.0974 0.058
79.1276 0.002
79.1579 -0.002
79.1882 -0.006
79.2185 -0.009
79.2488 0.039
79.2790 -0.068
79.3093 0.293
79.3396 0.030
79.3699 -0.077
79.4001 0.129
79.4304 -0.134
79.4607 0.019
79.4910 -0.087
79.5213 0.223
79.5515 0.065
79.5818 -0.145
79.6121 0.061
79.6424 -0.044
79.6727 0.058
79.7029 0.318
79.7332 -0.100
79.7635 -0.049
79.7938 0.054
79.8240 0.053
79.8543 -0.052
79.8846 -0.104
79.9149 -0.053
79.9452 -0.054
79.9754 0.205
80.0057 -0.004
80.0360 0.047
80.0663 -0.057
80.0966 -0.058
80.1268 -0.058
80.1571 0.150
80.1874 0.254
80.2177 0.098
80.2479 0.203
80.2782 0.047
80.3085 0.047
80.3388 0.048
80.3691 -0.055
80.3993 -0.054
80.4296 -0.053
80.4599 -0.104
80.4902 -0.053
80.5205 -0.053
80.5507 -0.157
80.5810 0.207
80.6113 -0.053
80.6416 -0.001
80.6718 -0.053
80.7021 -0.104
80.7324 0.050
80.7627 0.100
80.7930 -0.006
80.8232 0.097
80.8535 0.148
80.8838 0.042
80.9141 0.145
80.9444 -0.012
80.9746 0.091
81.0049 -0.014
81.0352 -0.067
81.0655 -0.171
81.0957 0.193
81.1260 0.141
81.1563 0.037
81.1866 -0.015
81.2169 -0.067
81.2471 0.141
81.2774 -0.067
81.3077 0.090
81.3380 -0.065
81.3683 0.144
81.3985 0.353
81.4288 0.250
81.4591 0.148
81.4894 -0.059
81.5196 0.046
81.5499 -0.056
81.5802 0.102
81.6105 -0.104
81.6408 -0.050
81.6710 0.160
81.7013 0.110
81.7316 0.164
81.7619 0.531
81.7922 -0.040
81.8224 0.067
81.8527 -0.035
81.8830 0.124
81.9133 0.023
81.9436 0.130
81.9738 -0.127
82.0041 -0.078
82.0344 0.180
82.0647 0.021
82.0949 -0.033
82.1252 0.173
82.1555 0.067
82.1858 0.117
82.2161 -0.041
82.2463 0.009
82.2766 0.216
82.3069 -0.150
82.3372 0.005
82.3675 0.056
82.3977 0.211
82.4280 -0.050
82.4583 0.001
82.4886 -0.052
82.5188 -0.052
82.5491 0.104
82.5794 0.104
82.6097 -0.105
82.6400 0.260
82.6702 -0.105
82.7005 -0.104
82.7308 -0.052
82.7611 0.313
82.7914 -0.051
82.8216 0.002
82.8519 -0.153
82.8822 0.054
82.9125 0.002
82.9427 0.157
82.9730 -0.052
83.0033 0.313
83.0336 0.000
83.0639 -0.052
83.0941 0.000
83.1244 -0.104
83.1547 -0.104
83.1850 -0.055
83.2153 0.099
83.2455 -0.008
83.2758 -0.062
83.3061 -0.169
83.3364 0.142
83.3666 -0.173
83.3969 -0.070
83.4272 0.032
83.4575 0.031
83.4878 -0.075
83.5180 0.080
83.5483 0.027
83.5786 0.026
83.6089 0.077
83.6392 0.233
83.6694 -0.080
83.6997 -0.081
83.7300 0.127
83.7603 -0.029
83.7905 -0.081
83.8208 0.023
83.8511 -0.081
83.8814 0.076
83.9117 0.233
83.9419 -0.131
83.9722 -0.026
84.0025 0.235
84.0328 -0.232
84.0631 0.082
84.0933 -0.125
84.1236 0.084
84.1539 -0.070
84.1842 0.088
84.2144 -0.118
84.2447 0.144
84.2750 0.042
84.3053 -0.060
84.3356 0.099
84.3658 -0.055
84.3961 0.052
84.4264 -0.153
84.4567 0.006
84.4870 -0.095
84.5172 0.117
84.5475 0.224
84.5778 0.123
84.6081 0.387
84.6383 -0.078
84.6686 -0.022
84.6989 -0.122
84.7292 0.039
84.7595 -0.009
84.7897 -0.005
84.8200 -0.104
84.8503 -0.001
84.8806 -0.001
84.9109 0.051
84.9411 0.207
84.9714 0.155
85.0017 0.051
85.0320 0.155
85.0623 -0.001
85.0925 -0.156
85.1228 -0.004
85.1531 0.253
85.1834 0.145
85.2136 -0.118
85.2439 -0.017
85.2742 -0.073
85.3045 0.029
85.3348 -0.026
85.3650 -0.029
85.3953 -0.083
85.4256 0.018
85.4559 0.172
85.4862 -0.038
85.5164 -0.040
85.5467 -0.042
85.5770 0.165
85.6073 0.216
85.6375 0.058
85.6678 0.057
85.6981 0.108
85.7284 0.002
85.7587 0.106
85.7889 -0.051
85.8192 -0.052
85.8495 -0.104
85.8798 -0.052
85.9101 -0.104
85.9403 -0.104
85.9706 0.313
86.0009 -0.050
86.0312 0.055
86.0614 -0.049
86.0917 0.161
86.1220 0.058
86.1523 0.007
86.1826 0.009
86.2128 0.115
86.2431 -0.040
86.2734 0.066
86.3037 -0.036
86.3340 0.227
86.3642 -0.031
86.3945 0.023
86.4248 0.234
86.4551 0.081
86.4853 -0.021
86.5156 -0.017
86.5459 0.038
86.5762 -0.011
86.6065 0.149
86.6367 -0.056
86.6670 -0.104
86.6973 0.051
86.7276 -0.002
86.7579 0.049
86.7881 0.048
86.8184 -0.108
86.8487 0.047
86.8790 0.047
86.9092 -0.057
86.9395 0.203
86.9698 -0.057
87.0001 0.099
87.0304 -0.004
87.0606 -0.004
87.0909 0.049
87.1212 -0.002
87.1515 -0.105
87.1818 -0.054
87.2120 -0.003
87.2423 0.048
87.2726 -0.057
87.3029 0.151
87.3331 -0.006
87.3634 -0.110
87.3937 0.046
87.4240 -0.162
87.4543 0.046
87.4845 -0.006
87.5148 -0.005
87.5451 0.047
87.5754 0.256
87.6057 -0.160
87.6359 -0.054
87.6662 -0.157
87.6965 -0.002
87.7268 0.363
87.7571 -0.106
87.7873 -0.054
87.8176 -0.002
87.8479 0.050
87.8782 0.051
87.9084 0.051
87.9387 0.052
87.9690 0.001
87.9993 -0.051
88.0296 0.003
88.0598 0.004
88.0901 -0.099
88.1204 0.007
88.1507 0.217
88.1810 0.010
88.2112 0.012
88.2415 -0.090
88.2718 -0.093
88.3021 0.164
88.3323 0.005
88.3626 0.211
88.3929 0.000
88.4232 -0.003
88.4535 0.047
88.4837 -0.164
88.5140 -0.009
88.5443 -0.115
88.5746 0.195
88.6049 -0.067
88.6351 0.244
88.6654 0.243
88.6957 0.033
88.7260 0.137
88.7562 0.240
88.7865 -0.021
88.8168 0.238
88.8471 0.082
88.8774 -0.075
88.9076 0.289
88.9379 0.081
88.9682 0.237
88.9985 -0.075
89.0288 -0.023
89.0590 -0.022
89.0893 0.030
89.1196 0.083
89.1499 0.293
89.1801 0.085
89.2104 -0.018
89.2407 0.088
89.2710 -0.015
89.3013 0.091
89.3315 0.249
89.3618 0.250
89.3921 0.200
89.4224 -0.006
89.4527 -0.004
89.4829 -0.157
89.5132 -0.055
89.5435 0.047
89.5738 0.045
89.6040 0.148
89.6343 0.199
89.6646 0.093
89.6949 -0.220
89.7252 0.039
89.7554 0.247
89.7857 -0.014
89.8160 0.141
89.8463 -0.015
89.8766 -0.016
89.9068 0.088
89.9371 -0.068
89.9674 0.141
89.9977 0.037
90.0279 0.089
90.0582 -0.014
90.0885 0.143
90.1188 -0.013
90.1491 0.092
90.1793 -0.063
90.2096 0.199
90.2399 0.044
90.2702 0.098
90.3005 0.308
90.3307 -0.159
90.3610 -0.105
90.3913 0.099
90.4216 -0.113
90.4518 0.040
90.4821 -0.119
90.5124 0.086
90.5427 0.083
90.5730 0.184
90.6032 -0.079
90.6335 0.023
90.6638 0.072
90.6941 0.174
90.7244 -0.140
90.7546 -0.038
90.7849 -0.092
90.8152 0.010
90.8455 0.165
90.8758 0.007
90.9060 0.006
90.9363 0.004
90.9666 0.003
90.9969 0.263
91.0271 -0.050
91.0574 0.262
91.0877 -0.051
91.1180 0.104
91.1483 -0.104
91.1785 -0.104
91.2088 -0.052
91.2391 0.105
91.2694 0.002
91.2997 0.159
91.3299 0.108
91.3602 0.318
91.3905 0.058
91.4208 0.060
91.4510 0.114
91.4813 -0.041
91.5116 0.117
91.5419 -0.141
91.5722 -0.035
91.6024 -0.033
91.6327 -0.239
91.6630 0.129
91.6933 0.027
91.7236 -0.022
91.7538 0.398
91.7841 0.244
91.8144 0.091
91.8447 -0.009
91.8749 -0.006
91.9052 0.206
91.9355 -0.050
91.9658 0.110
91.9961 0.010
92.0263 -0.090
92.0566 -0.093
92.0869 0.164
92.1172 0.005
92.1475 -0.050
92.1777 0.156
92.2080 0.101
92.2383 -0.006
92.2686 0.201
92.2988 -0.010
92.3291 -0.012
92.3594 0.038
92.3897 -0.015
92.4200 0.087
92.4502 0.034
92.4805 0.137
92.5108 -0.021
92.5411 0.187
92.5714 0.186
92.6016 -0.023
92.6319 -0.024
92.6622 -0.024
92.6925 -0.024
92.7227 0.027
92.7530 0.132
92.7833 0.028
92.8136 -0.076
92.8439 -0.024
92.8741 -0.023
92.9044 0.186
92.9347 -0.022
92.9650 0.031
92.9953 0.084
93.0255 0.034
93.0558 -0.069
93.0861 0.297
93.1164 -0.014
93.1466 0.040
93.1769 0.094
93.2072 -0.008
93.2375 0.046
93.2678 -0.056
93.2980 -0.105
93.3283 -0.004
93.3586 -0.164
93.3889 0.094
93.4192 0.039
93.4494 0.296
93.4797 0.190
93.5100 -0.021
93.5403 0.081
93.5706 0.027
93.6008 -0.079
93.6311 0.075
93.6614 -0.083
93.6917 0.072
93.7219 -0.034
93.7522 -0.035
93.7825 0.276
93.8128 -0.194
93.8431 -0.038
93.8733 -0.039
93.9036 0.065
93.9339 0.220
93.9642 -0.040
93.9945 -0.145
94.0247 0.220
94.0550 0.116
94.0853 0.012
94.1156 0.064
94.1458 -0.092
94.1761 -0.091
94.2064 0.066
94.2367 -0.037
94.2670 0.276
94.2972 0.226
94.3275 0.227
94.3578 0.020
94.3881 0.074
94.4184 -0.081
94.4486 -0.079
94.4789 0.079
94.5092 -0.127
94.5395 -0.025
94.5697 0.180
94.6000 -0.031
94.6303 -0.033
94.6606 -0.087
94.6909 -0.037
94.7211 -0.039
94.7514 0.115
94.7817 0.062
94.8120 0.060
94.8423 -0.098
94.8725 0.110
94.9028 -0.100
94.9331 0.003
94.9634 0.002
94.9936 0.054
95.0239 0.105
95.0542 0.053
95.0845 0.053
95.1148 0.157
95.1450 -0.104
95.1753 0.001
95.2056 0.157
95.2359 0.157
95.2662 0.106
95.2964 -0.050
95.3267 -0.049
95.3570 -0.048
95.3873 -0.099
95.4175 0.423
95.4478 0.216
95.4781 -0.043
95.5084 -0.041
95.5387 0.013
95.5689 0.067
95.5992 0.069
95.6295 0.280
95.6598 0.126
95.6901 0.024
95.7203 0.027
95.7506 -0.127
95.7809 0.029
95.8112 -0.024
95.8414 0.236
95.8717 0.027
95.9020 0.235
95.9323 -0.025
95.9626 -0.025
95.9928 -0.025
96.0231 0.340
96.0534 -0.076
96.0837 0.029
96.1140 0.029
96.1442 0.135
96.1745 -0.021
96.2048 -0.020
96.2351 0.190
96.2653 0.192
96.2956 0.037
96.3259 0.039
96.3562 0.041
96.3865 0.303
96.4167 -0.060
96.4470 -0.005
96.4773 -0.003
96.5076 -0.104
96.5379 -0.004
96.5681 -0.008
96.5984 0.093
96.6287 -0.015
96.6590 -0.018
96.6893 -0.021
96.7195 0.080
96.7498 -0.027
96.7801 0.074
96.8104 -0.033
96.8406 -0.035
96.8709 0.015
96.9012 -0.040
96.9315 0.063
96.9618 -0.096
96.9920 -0.097
97.0223 0.161
97.0526 -0.101
97.0829 -0.050
97.1132 0.418
97.1434 -0.208
97.1737 -0.053
97.2040 0.154
97.2343 -0.055
97.2645 0.101
97.2948 0.205
97.3251 0.257
97.3554 0.152
97.3857 0.309
97.4159 -0.004
97.4462 0.101
97.4765 0.153
97.5068 0.154
97.5371 0.259
97.5673 -0.053
97.5976 -0.104
97.6279 0.102
97.6582 -0.057
97.6884 0.149
97.7187 -0.009
97.7490 0.197
97.7793 -0.065
97.8096 0.142
97.8398 -0.120
97.8701 0.139
97.9004 -0.071
97.9307 -0.072
97.9610 0.083
97.9912 -0.074
98.0215 0.134
98.0518 -0.179
98.0821 -0.079
98.1123 -0.082
98.1426 0.175
98.1729 -0.140
98.2032 -0.091
98.2335 -0.094
98.2637 0.059
98.2940 0.005
98.3243 0.054
98.3546 0.208
98.3849 -0.158
98.4151 0.048
98.4454 0.098
98.4757 -0.112
98.5060 0.199
98.5362 0.354
98.5665 -0.064
98.5968 -0.013
98.6271 0.142
98.6574 0.141
98.6876 0.036
98.7179 -0.069
98.7482 -0.121
98.7785 0.191
98.8088 0.138
98.8390 -0.070
98.8693 -0.018
98.8996 0.139
98.9299 0.191
98.9601 -0.069
98.9904 -0.068
99.0207 0.141
99.0510 0.194
99.0813 -0.222
99.1115 -0.116
99.1418 -0.063
99.1721 0.043
99.2024 -0.111
99.2327 0.204
99.2629 -0.055
99.2932 0.208
99.3235 0.002
99.3538 -0.099
99.3841 0.008
99.4143 0.063
99.4446 -0.090
99.4749 0.173
99.5052 0.177
99.5354 0.128
99.5657 -0.077
99.5960 0.083
99.6263 0.087
99.6566 0.300
99.6868 0.095
99.7171 -0.057
99.7474 -0.104
99.7777 -0.160
99.8080 0.200
99.8382 0.405
99.8685 0.088
99.8988 0.085
99.9291 -0.075
99.9593 0.078
99.9896 0.231
100.0199 0.228
100.0502 -0.192
100.0805 0.066
100.1107 0.168
100.1410 -0.095
100.1713 -0.046
100.2016 0.056
100.2319 0.002
100.2621 -0.104
100.2924 -0.106
100.3227 -0.003
100.3530 -0.109
100.3832 0.150
100.4135 -0.112
100.4438 0.148
100.4741 -0.114
100.5044 -0.010
100.5346 0.041
100.5649 0.093
100.5952 -0.064
100.6255 -0.116
100.6558 -0.066
100.6860 0.193
100.7163 -0.069
100.7466 -0.070
100.7769 0.085
100.8071 0.084
100.8374 0.187
100.8677 -0.022
100.8980 0.186
100.9283 0.133
100.9585 -0.023
100.9888 0.185
101.0191 0.185
101.0494 -0.127
101.0797 -0.023
101.1099 0.342
101.1402 -0.126
101.1705 -0.073
101.2008 -0.020
101.2310 0.085
101.2613 0.190
101.2916 0.087
101.3219 0.193
101.3522 0.038
101.3824 0.040
101.4127 -0.167
101.4430 0.095
101.4733 -0.007
101.5036 -0.057
101.5338 0.258
101.5641 0.104
101.5944 -0.153
101.6247 -0.048
101.6549 0.162
101.6852 0.164
101.7155 -0.043
101.7458 -0.093
101.7761 -0.039
101.8063 0.067
101.8366 0.018
101.8669 0.228
101.8972 -0.082
101.9275 0.025
101.9577 0.289
101.9880 0.031
102.0183 0.243
102.0486 -0.067
102.0788 0.249
102.1091 0.045
102.1394 -0.056
102.1697 -0.104
102.2000 -0.054
102.2302 0.101
102.2605 0.100
102.2908 -0.057
102.3211 0.202
102.3514 -0.111
102.3816 0.096
102.4119 -0.061
102.4422 0.303
102.4725 0.147
102.5028 0.199
102.5330 0.251
102.5633 0.043
102.5936 0.043
102.6239 -0.009
102.6541 0.044
102.6844 0.149
102.7147 -0.059
102.7450 -0.058
102.7753 0.203
102.8055 0.257
102.8358 0.362
102.8661 0.051
102.8964 0.313
102.9267 0.263
102.9569 0.161
102.9872 0.267
103.0175 -0.043
103.0478 0.271
103.0780 0.118
103.1083 0.276
103.1386 0.279
103.1689 -0.030
103.1992 -0.132
103.2294 0.020
103.2597 0.172
103.2900 0.063
103.3203 0.111
103.3506 -0.049
103.3808 0.208
103.4111 0.048
103.4414 0.044
103.4717 0.353
103.5019 -0.015
103.5322 0.086
103.5625 0.031
103.5928 0.185
103.6231 0.130
103.6533 0.179
103.6836 0.385
103.7139 -0.242
103.7442 -0.036
103.7745 0.066
103.8047 0.377
103.8350 0.010
103.8653 0.165
103.8956 0.111
103.9258 0.162
103.9561 0.161
103.9864 -0.101
104.0167 0.523
104.0470 0.158
104.0772 0.262
104.1075 0.157
104.1378 0.104
104.1681 0.156
104.1984 -0.052
104.2286 0.260
104.2589 0.000
104.2892 0.469
104.3195 0.053
104.3497 0.158
104.3800 -0.102
104.4103 -0.153
104.4406 0.158
104.4709 0.106
104.5011 0.105
104.5314 -0.104
104.5617 0.156
104.5920 0.104
104.6223 0.208
104.6525 -0.104
104.6828 0.157
104.7131 0.053
104.7434 -0.051
104.7736 -0.102
104.8039 -0.101
104.8342 0.056
104.8645 0.161
104.8948 0.215
104.9250 0.060
104.9553 -0.095
104.9856 0.115
105.0159 0.013
105.0462 0.223
105.0764 0.277
105.1067 0.175
105.1370 0.073
105.1673 0.076
105.1975 0.078
105.2278 -0.127
105.2581 -0.026
105.2884 0.022
105.3187 0.280
105.3489 -0.088
105.3792 0.013
105.4095 0.167
105.4398 0.112
105.4701 0.266
105.5003 0.055
105.5306 -0.052
105.5609 -0.054
105.5912 0.153
105.6215 -0.005
105.6517 -0.007
105.6820 -0.113
105.7123 0.146
105.7426 -0.115
105.7728 -0.116
105.8031 -0.066
105.8334 0.192
105.8637 -0.122
105.8940 0.085
105.9242 0.136
105.9545 0.291
105.9848 -0.074
106.0151 -0.127
106.0454 0.131
106.0756 -0.027
106.1059 0.180
106.1362 0.023
106.1665 0.073
106.1967 0.072
106.2270 -0.137
106.2573 0.279
106.2876 -0.087
106.3179 0.121
106.3481 0.173
106.3784 0.068
106.4087 0.068
106.4390 -0.036
106.4693 0.068
106.4995 0.225
106.5298 -0.191
106.5601 0.174
106.5904 -0.034
106.6206 0.019
106.6509 -0.084
106.6812 0.178
106.7115 0.075
106.7418 -0.080
106.7720 -0.027
106.8023 -0.025
106.8326 -0.232
106.8629 0.081
106.8932 -0.023
106.9234 -0.127
106.9537 0.238
106.9840 -0.022
107.0143 -0.125
107.0445 0.084
107.0748 0.137
107.1051 0.242
107.1354 -0.069
107.1657 0.193
107.1959 0.038
107.2262 -0.116
107.2565 -0.011
107.2868 0.147
107.3171 -0.060
107.3473 -0.007
107.3776 0.099
107.4079 -0.055
107.4382 -0.209
107.4684 0.158
107.4987 -0.153
107.5290 -0.046
107.5593 0.217
107.5896 0.116
107.6198 0.327
107.6501 0.174
107.6804 0.021
107.7107 0.024
107.7410 0.027
107.7712 0.083
107.8015 0.035
107.8318 -0.014
107.8621 0.199
107.8923 -0.005
107.9226 -0.001
107.9529 -0.205
107.9832 0.052
108.0135 0.153
108.0437 0.047
108.0740 0.044
108.1043 -0.011
108.1346 0.247
108.1649 -0.067
108.1951 0.035
108.2254 -0.019
108.2557 -0.021
108.2860 -0.127
108.3163 0.078
108.3465 -0.030
108.3768 0.279
108.4071 0.016
108.4374 0.013
108.4676 0.427
108.4979 -0.045
108.5282 0.057
108.5585 0.003
108.5888 -0.052
108.6190 -0.054
108.6493 0.048
108.6796 -0.058
108.7099 0.045
108.7402 0.095
108.7704 0.094
108.8007 0.249
108.8310 -0.065
108.8613 -0.014
108.8915 0.402
108.9218 -0.067
108.9521 -0.068
108.9824 -0.173
109.0127 0.140
109.0429 0.556
109.0732 -0.017
109.1035 0.139
109.1338 -0.069
109.1641 0.140
109.1943 -0.120
109.2246 0.350
109.2549 0.246
109.2852 0.039
109.3154 -0.116
109.3457 -0.066
109.3760 -0.015
109.4063 0.244
109.4366 0.086
109.4668 0.242
109.4971 0.136
109.5274 -0.073
109.5577 -0.073
109.5880 -0.074
109.6182 -0.074
109.6485 0.082
109.6788 -0.126
109.7091 0.082
109.7393 0.238
109.7696 0.030
109.7999 -0.021
109.8302 0.084
109.8605 0.189
109.8907 -0.071
109.9210 0.347
109.9513 0.296
109.9816 0.505
110.0119 -0.222
110.0421 -0.116
110.0724 0.246
110.1027 -0.069
110.1330 0.189
110.1632 0.082
110.1935 -0.076
110.2238 -0.130
110.2541 0.285
110.2844 0.023
110.3146 0.021
110.3449 -0.136
110.3752 0.487
110.4055 0.174
110.4358 -0.035
110.4660 -0.036
110.4963 0.067
110.5266 -0.037
110.5569 0.014
110.5871 0.118
110.6174 -0.142
110.6477 -0.038
110.6780 0.118
110.7083 0.119
110.7385 0.327
110.7688 -0.037
110.7991 0.016
110.8294 0.173
110.8597 0.018
110.8899 0.071
110.9202 0.281
110.9505 0.022
110.9808 -0.029
111.0110 -0.027
111.0413 0.079
111.0716 -0.127
111.1019 -0.022
111.1322 0.552
111.1624 -0.072
111.1927 0.138
111.2230 0.035
111.2533 0.193
111.2836 0.143
111.3138 0.041
111.3441 -0.061
111.3744 -0.059
111.4047 0.152
111.4350 -0.002
111.4652 -0.104
111.4955 0.055
111.5258 0.267
111.5561 0.113
111.5863 0.012
111.6166 -0.036
111.6469 0.071
111.6772 -0.081
111.7075 -0.078
111.7377 -0.074
111.7680 0.712
111.7983 -0.013
111.8286 0.095
111.8589 -0.005
111.8891 -0.104
111.9194 -0.104
111.9497 0.104
111.9800 0.051
112.0102 0.208
112.0405 0.260
112.0708 0.416
112.1011 0.312
112.1314 0.052
112.1616 0.053
112.1919 0.262
112.2222 0.107
112.2525 0.212
112.2828 0.005
112.3130 0.058
112.3433 0.268
112.3736 0.269
112.4039 0.115
112.4341 0.013
112.4644 0.275
112.4947 0.069
112.5250 0.175
112.5553 0.438
112.5855 0.180
112.6158 0.027
112.6461 -0.179
112.6764 0.024
112.7067 -0.189
112.7369 0.223
112.7672 0.062
112.7975 0.057
112.8278 0.053
112.8580 -0.108
112.8883 0.200
112.9186 0.248
112.9489 0.349
112.9792 0.032
113.0094 0.289
113.0397 0.025
113.0700 0.126
113.1003 0.019
113.1306 0.068
113.1608 0.013
113.1911 0.166
113.2214 0.320
113.2517 0.005
113.2819 0.159
113.3122 0.000
113.3425 -0.158
113.3728 0.256
113.4031 0.046
113.4333 0.149
113.4636 0.147
113.4939 -0.115
113.5242 -0.012
113.5545 -0.013
113.5847 0.142
113.6150 0.089
113.6453 0.401
113.6756 0.192
113.7058 0.036
113.7361 0.139
113.7664 0.087
113.7967 0.348
113.8270 0.296
113.8572 -0.069
113.8875 0.036
113.9178 0.557
113.9481 0.141
113.9784 0.090
114.0086 -0.013
114.0389 -0.116
114.0692 -0.065
114.0995 -0.065
114.1298 -0.014
114.1600 0.142
114.1903 0.038
114.2206 0.090
114.2509 0.195
114.2811 0.039
114.3114 -0.013
114.3417 -0.116
114.3720 -0.014
114.4023 -0.015
114.4325 -0.016
114.4628 -0.069
114.4931 0.139
114.5234 0.191
114.5537 0.190
114.5839 -0.070
114.6142 0.034
114.6445 0.086
114.6748 0.138
114.7050 -0.070
114.7353 0.086
114.7656 -0.017
114.7959 0.140
114.8262 0.401
114.8564 -0.067
114.8867 -0.066
114.9170 -0.116
114.9473 -0.016
114.9776 0.241
115.0078 -0.022
115.0381 -0.077
115.0684 0.076
115.0987 -0.031
115.1289 0.123
115.1592 0.173
115.1895 0.171
115.2198 0.012
115.2501 0.062
115.2803 0.112
115.3106 0.163
115.3409 0.005
115.3712 0.003
115.4015 0.158
115.4317 0.001
115.4620 -0.104
115.4923 -0.053
115.5226 0.207
115.5528 0.050
115.5831 0.205
115.6134 0.101
115.6437 -0.108
115.6740 -0.056
115.7042 -0.055
115.7345 0.257
115.7648 0.101
115.7951 0.154
115.8254 -0.054
115.8556 0.051
115.8859 0.365
115.9162 -0.051
115.9465 0.315
115.9767 0.003
116.0070 0.109
116.0373 0.215
116.0676 0.269
116.0979 0.062
116.1281 0.064
116.1584 0.171
116.1887 0.225
116.2190 0.123
116.2493 0.126
116.2795 0.389
116.3098 0.183
116.3401 0.290
116.3704 0.346
116.4006 0.141
116.4309 -0.116
116.4612 -0.117
116.4915 0.196
116.5218 0.039
116.5520 0.039
116.5823 0.092
116.6126 0.404
116.6429 0.301
116.6732 0.354
116.7034 0.042
116.7337 0.407
116.7640 0.044
116.7943 0.045
116.8245 0.150
116.8548 0.048
116.8851 0.206
116.9154 0.520
116.9457 -0.051
116.9759 -0.153
117.0062 0.101
117.0365 -0.061
117.0668 -0.015
117.0971 0.031
117.1273 0.025
117.1576 0.124
117.1879 0.066
117.2182 -0.043
117.2485 0.108
117.2787 0.312
117.3090 0.255
117.3393 -0.010
117.3696 -0.067
117.3998 0.189
117.4301 0.080
117.4604 0.285
117.4907 -0.188
117.5210 -0.036
117.5512 0.117
117.5815 -0.043
117.6118 0.058
117.6421 -0.310
117.6724 0.364
117.7026 -0.056
117.7329 -0.007
117.7632 -0.010
117.7935 -0.064
117.8237 0.142
117.8540 0.087
117.8843 -0.071
117.9146 -0.073
117.9449 0.185
117.9751 0.027
118.0054 -0.235
118.0357 0.128
118.0660 0.075
118.0963 0.073
118.1265 0.229
118.1568 -0.345
118.1871 -0.138
118.2174 -0.088
118.2476 -0.038
118.2779 -0.092
118.3082 0.166
118.3385 0.008
118.3688 0.111
118.3990 -0.047
118.4293 -0.101
118.4596 -0.310
118.4899 0.157
118.5202 -0.105
118.5504 -0.106
118.5807 -0.107
118.6110 0.204
118.6413 -0.005
118.6715 0.099
118.7018 -0.058
118.7321 -0.111
118.7624 -0.007
118.7927 -0.059
118.8229 -0.111
118.8532 -0.059
118.8835 0.254
118.9138 -0.111
118.9441 0.254
118.9743 0.099
119.0046 0.048
119.0349 -0.056
119.0652 -0.107
119.0954 -0.105
119.1257 -0.104
119.1560 0.158
119.1863 0.003
119.2166 -0.203
119.2468 0.163
119.2771 -0.095
119.3074 -0.197
119.3377 0.274
119.3680 -0.088
119.3982 -0.138
119.4285 -0.138
119.4588 -0.190
119.4891 0.227
119.5193 -0.189
119.5496 0.072
119.5799 0.073
119.6102 -0.030
119.6405 -0.029
119.6707 -0.236
119.7010 0.390
119.7313 0.131
119.7616 -0.336
119.7919 -0.078
119.8221 -0.028
119.8524 -0.030
119.8827 -0.032
119.9130 -0.138
119.9433 0.082
119.9735 -0.011
120.0038 0.000
