'Id: "" Comment: "" Operator: "Lab Manager" Anode: "Cu" Scantype: "Locked Coupled" TimePerStep: "19.2" X: "9999" Y: "9999" Z: "9999" 
10.0015 0.000
10.0318 0.222
10.0620 -1.224
10.0923 0.061
10.1226 0.355
10.1529 1.691
10.1832 1.986
10.2134 2.854
10.2437 3.930
10.2740 4.798
10.3043 3.842
10.3346 4.814
10.3648 8.495
10.3951 5.509
10.4254 6.012
10.4557 9.380
10.4859 8.165
10.5162 10.751
10.5465 10.526
10.5768 9.467
10.6071 9.970
10.6373 10.630
10.6676 13.217
10.6979 13.044
10.7282 13.183
10.7585 11.968
10.7887 13.149
10.8190 13.497
10.8493 10.199
10.8796 12.317
10.9098 13.290
10.9401 13.273
10.9704 11.798
11.0007 11.261
11.0310 11.869
11.0612 14.457
11.0915 12.617
11.1218 12.288
11.1521 13.470
11.1824 11.526
11.2126 13.020
11.2429 9.983
11.2732 10.175
11.3035 7.867
11.3337 8.163
11.3640 7.262
11.3943 7.246
11.4246 8.896
11.4549 8.880
11.4851 7.666
11.5154 11.817
11.5457 10.134
11.5760 13.139
11.6063 16.665
11.6365 20.607
11.6668 19.237
11.6971 19.430
11.7274 17.435
11.7577 16.482
11.7879 13.706
11.8182 11.190
11.8485 10.602
11.8788 10.587
11.9090 11.717
11.9393 12.379
11.9696 9.290
11.9999 11.723
12.0302 10.718
12.0604 12.474
12.0907 9.594
12.1210 9.735
12.1513 6.647
12.1816 7.205
12.2118 6.825
12.2421 3.946
12.2724 6.222
12.3027 3.812
12.3329 5.099
12.3632 4.407
12.3935 1.423
12.4238 2.398
12.4541 2.800
12.4843 0.963
12.5146 -0.510
12.5449 0.725
12.5752 0.346
12.6055 0.956
12.6357 1.359
12.6660 2.490
12.6963 1.903
12.7266 0.170
12.7568 1.197
12.7871 0.558
12.8174 0.908
12.8477 -0.043
12.8780 -0.370
12.9082 -0.436
12.9385 0.279
12.9688 0.786
12.9991 -0.114
13.0294 0.810
13.0596 0.796
13.0899 0.001
13.1202 -0.534
13.1505 -0.257
13.1807 0.905
13.2110 0.244
13.2413 0.052
13.2716 -0.505
13.3019 -0.464
13.3321 0.670
13.3624 0.555
13.3927 0.335
13.4230 -0.197
13.4533 0.678
13.4835 0.198
13.5138 0.395
13.5441 -0.345
13.5744 -0.460
13.6046 0.414
13.6349 -0.534
13.6652 0.132
13.6955 -0.452
13.7258 0.110
13.7560 0.672
13.7863 0.297
13.8166 -0.495
13.8469 -0.089
13.8772 1.672
13.9074 0.515
13.9377 -0.381
13.9680 -0.027
13.9983 0.067
14.0285 0.369
14.0588 -0.891
14.0891 0.297
14.1194 -1.172
14.1497 -0.036
14.1799 0.058
14.2102 -0.109
14.2405 0.298
14.2708 0.392
14.3011 0.174
14.3313 0.737
14.3616 0.623
14.3919 -0.273
14.4222 -0.178
14.4524 0.437
14.4827 0.011
14.5130 -0.520
14.5433 0.019
14.5736 0.140
14.6038 1.148
14.6341 0.384
14.6644 0.142
14.6947 0.472
14.7250 1.271
14.7552 0.039
14.7855 0.110
14.8158 -0.289
14.8461 0.354
14.8764 -0.201
14.9066 0.390
14.9369 0.513
14.9672 0.271
14.9975 -0.805
15.0277 -0.161
15.0580 0.326
15.0883 0.344
15.1186 0.363
15.1489 1.006
15.1791 0.296
15.2094 0.575
15.2397 -0.136
15.2700 0.091
15.3003 -0.203
15.3305 1.223
15.3608 0.512
15.3911 1.104
15.4214 1.383
15.4516 0.100
15.4819 0.640
15.5122 0.086
15.5425 1.251
15.5728 0.593
15.6030 0.820
15.6333 0.736
15.6636 1.276
15.6939 1.347
15.7242 -0.248
15.7544 0.396
15.7847 -0.158
15.8150 0.331
15.8453 0.402
15.8755 0.838
15.9058 1.743
15.9361 1.138
15.9664 0.949
15.9967 0.396
16.0269 1.249
16.0572 1.269
16.0875 1.653
16.1178 1.986
16.1481 1.224
16.1783 1.765
16.2086 0.431
16.2389 1.232
16.2692 2.033
16.2994 2.106
16.3297 0.563
16.3600 0.844
16.3903 1.177
16.4206 2.239
16.4508 0.748
16.4811 1.133
16.5114 1.623
16.5417 1.539
16.5720 1.038
16.6022 1.007
16.6325 0.246
16.6628 0.631
16.6931 1.173
16.7233 0.673
16.7536 1.631
16.7839 1.079
16.8142 0.475
16.8445 0.235
16.8747 0.829
16.9050 0.121
16.9353 0.089
16.9656 0.058
16.9959 0.288
17.0261 0.830
17.0564 -0.451
17.0867 0.299
17.1170 0.008
17.1472 0.185
17.1775 0.259
17.2078 0.384
17.2381 0.406
17.2684 0.844
17.2986 0.032
17.3289 -0.311
17.3592 0.010
17.3895 0.488
17.4198 -0.337
17.4500 0.402
17.4803 0.046
17.5106 0.159
17.5409 -0.248
17.5712 -0.187
17.6014 -0.021
17.6317 0.248
17.6620 1.039
17.6923 -0.150
17.7225 -0.088
17.7528 0.286
17.7831 0.504
17.8134 0.201
17.8437 0.262
17.8739 0.532
17.9042 -0.344
17.9345 0.343
17.9648 0.040
17.9951 0.050
18.0253 0.112
18.0556 -0.034
18.0859 -0.129
18.1162 0.715
18.1464 -0.004
18.1767 0.318
18.2070 0.224
18.2373 -0.391
18.2676 0.453
18.2978 0.671
18.3281 -0.048
18.3584 0.067
18.3887 0.806
18.4190 -0.225
18.4492 0.306
18.4795 -0.048
18.5098 0.223
18.5401 -0.496
18.5703 0.244
18.6006 0.046
18.6309 0.057
18.6612 0.015
18.6915 0.286
18.7217 0.766
18.7520 0.204
18.7823 -0.046
18.8126 0.173
18.8429 0.132
18.8731 -0.065
18.9034 0.310
18.9337 -0.356
18.9640 -0.188
18.9942 0.760
19.0245 0.251
19.0548 -0.467
19.0851 -0.199
19.1154 -0.088
19.1456 0.076
19.1759 0.136
19.2062 0.092
19.2365 0.100
19.2668 0.264
19.2970 -0.145
19.3273 0.123
19.3576 0.235
19.3879 0.087
19.4181 -0.113
19.4484 -0.157
19.4787 0.372
19.5090 -0.245
19.5393 0.388
19.5695 -0.124
19.5998 -0.116
19.6301 -0.056
19.6604 0.109
19.6907 0.013
19.7209 0.699
19.7512 0.082
19.7815 0.091
19.8118 0.308
19.8420 -0.309
19.8723 0.065
19.9026 0.282
19.9329 0.082
19.9632 0.039
19.9934 -0.421
20.0237 0.421
20.0540 0.638
20.0843 -0.030
20.1146 0.031
20.1448 0.197
20.1751 0.414
20.2054 -0.098
20.2357 -0.245
20.2659 0.181
20.2962 0.190
20.3265 0.043
20.3568 0.313
20.3871 -0.407
20.4173 0.019
20.4476 -0.023
20.4779 -0.066
20.5082 0.204
20.5385 0.578
20.5687 0.432
20.5990 0.389
20.6293 -0.486
20.6596 -0.112
20.6899 -0.311
20.7201 0.154
20.7504 -0.006
20.7807 0.251
20.8110 0.507
20.8412 0.347
20.8715 0.708
20.9018 -0.337
20.9321 -0.080
20.9624 -0.188
20.9926 0.121
21.0229 0.117
21.0532 0.061
21.0835 -0.099
21.1138 0.053
21.1440 -0.159
21.1743 0.306
21.2046 0.042
21.2349 -0.014
21.2651 -0.017
21.2954 -0.177
21.3257 0.028
21.3560 0.285
21.3863 -0.240
21.4165 0.122
21.4468 0.483
21.4771 0.271
21.5074 -0.045
21.5377 0.161
21.5679 0.262
21.5982 0.206
21.6285 -0.109
21.6588 0.252
21.6890 0.197
21.7193 0.246
21.7496 0.504
21.7799 0.345
21.8102 0.550
21.8404 0.183
21.8707 0.128
21.9010 0.125
21.9313 0.279
21.9616 0.745
21.9918 0.378
22.0221 0.531
22.0524 -0.044
22.0827 0.266
22.1129 0.316
22.1432 -0.051
22.1735 0.467
22.2038 -0.160
22.2341 0.775
22.2643 0.564
22.2946 0.041
22.3249 0.300
22.3552 0.506
22.3855 0.400
22.4157 0.189
22.4460 0.708
22.4763 -0.023
22.5066 -0.129
22.5368 0.598
22.5671 0.128
22.5974 0.282
22.6277 0.124
22.6580 0.122
22.6882 -0.035
22.7185 0.380
22.7488 0.066
22.7791 0.324
22.8094 0.063
22.8396 -0.043
22.8699 0.268
22.9002 0.162
22.9305 0.422
22.9607 0.368
22.9910 -0.362
23.0213 0.105
23.0516 -0.208
23.0819 -0.419
23.1121 0.308
23.1424 0.046
23.1727 -0.008
23.2030 -0.114
23.2333 -0.012
23.2635 -0.379
23.2938 0.401
23.3241 0.347
23.3544 0.293
23.3846 0.187
23.4149 0.029
23.4452 0.392
23.4755 0.495
23.5058 0.753
23.5360 0.544
23.5663 1.323
23.5966 0.541
23.6269 0.591
23.6572 0.955
23.6874 0.745
23.7177 0.119
23.7480 0.795
23.7783 0.168
23.8086 0.115
23.8388 0.479
23.8691 0.946
23.8994 0.424
23.9297 0.528
23.9599 0.266
23.9902 0.109
24.0205 0.108
24.0508 0.264
24.0811 0.107
24.1113 0.991
24.1416 0.522
24.1719 1.042
24.2022 0.000
24.2325 -0.001
24.2627 -0.053
24.2930 0.519
24.3233 0.102
24.3536 0.258
24.3838 0.726
24.4141 0.934
24.4444 1.507
24.4747 0.621
24.5050 1.090
24.5352 1.350
24.5655 1.194
24.5958 1.350
24.6261 0.725
24.6564 1.350
24.6866 1.506
24.7169 1.454
24.7472 1.350
24.7775 1.611
24.8077 2.184
24.8380 1.403
24.8683 1.976
24.8986 0.466
24.9289 1.404
24.9591 1.040
24.9894 1.665
25.0197 1.145
25.0500 1.302
25.0803 1.302
25.1105 1.146
25.1408 0.991
25.1711 0.835
25.2014 0.367
25.2316 0.837
25.2619 0.577
25.2922 1.099
25.3225 0.787
25.3528 0.788
25.3830 1.102
25.4133 0.843
25.4436 1.104
25.4739 0.897
25.5042 0.585
25.5344 0.483
25.5647 0.328
25.5950 0.745
25.6253 0.486
25.6555 0.800
25.6858 0.281
25.7161 0.126
25.7464 0.700
25.7767 0.598
25.8069 0.026
25.8372 0.653
25.8675 0.707
25.8978 0.240
25.9281 0.450
25.9583 0.972
25.9886 0.349
26.0189 0.195
26.0492 0.718
26.0794 0.407
26.1097 0.565
26.1400 0.515
26.1703 0.465
26.2006 0.624
26.2308 0.209
26.2611 0.107
26.2914 0.214
26.3217 -0.045
26.3520 0.531
26.3822 0.168
26.4125 0.483
26.4428 0.173
26.4731 0.280
26.5034 0.022
26.5336 0.441
26.5639 0.131
26.5942 0.655
26.6245 0.397
26.6547 -0.173
26.6850 0.403
26.7153 0.041
26.7456 0.096
26.7759 0.307
26.8061 0.466
26.8364 0.365
26.8667 -0.517
26.8970 -0.202
26.9273 0.114
26.9575 -0.143
26.9878 0.120
27.0181 0.123
27.0484 -0.238
27.0786 0.182
27.1089 0.342
27.1392 0.345
27.1695 0.088
27.1998 0.352
27.2300 0.355
27.2603 0.046
27.2906 -0.002
27.3209 -0.155
27.3512 0.109
27.3814 0.113
27.4117 0.586
27.4420 0.433
27.4723 0.020
27.5025 0.076
27.5328 -0.128
27.5631 -0.020
27.5934 0.192
27.6237 0.144
27.6539 -0.112
27.6842 0.101
27.7145 -0.156
27.7448 0.109
27.7751 0.374
27.8053 0.117
27.8356 0.018
27.8659 0.334
27.8962 0.495
27.9264 0.135
27.9567 -0.121
27.9870 0.144
28.0173 0.305
28.0476 -0.003
28.0778 0.054
28.1081 0.788
28.1384 -0.197
28.1687 -0.192
28.1990 0.281
28.2292 -0.026
28.2595 0.135
28.2898 0.140
28.3201 -0.064
28.3503 -0.111
28.3806 0.259
28.4109 0.004
28.4412 -0.043
28.4715 -0.038
28.5017 0.280
28.5320 0.025
28.5623 0.238
28.5926 0.244
28.6229 -0.064
28.6531 0.150
28.6834 0.416
28.7137 0.161
28.7440 0.219
28.7742 -0.244
28.8045 0.178
28.8348 0.028
28.8651 -0.019
28.8954 0.039
28.9256 0.514
28.9559 -0.314
28.9862 0.109
29.0165 0.063
29.0468 0.225
29.0770 -0.082
29.1073 0.445
29.1376 0.139
29.1679 -0.220
29.1981 0.516
29.2284 0.053
29.2587 0.060
29.2890 0.118
29.3193 -0.240
29.3495 0.235
29.3798 0.137
29.4101 0.144
29.4404 0.254
29.4707 0.313
29.5009 0.163
29.5312 0.118
29.5615 0.698
29.5918 0.027
29.6221 0.242
29.6523 0.145
29.6826 -0.004
29.7129 -0.154
29.7432 0.053
29.7734 0.259
29.8037 -0.159
29.8340 0.204
29.8643 0.306
29.8946 -0.320
29.9248 0.095
29.9551 0.145
29.9854 0.092
30.0157 0.090
30.0460 0.401
30.0762 -0.121
30.1065 0.190
30.1368 0.241
30.1671 -0.229
30.1973 0.082
30.2276 0.081
30.2579 0.080
30.2882 0.183
30.3185 0.078
30.3487 -0.288
30.3790 0.284
30.4093 -0.081
30.4396 0.282
30.4699 0.177
30.5001 0.437
30.5304 0.384
30.5607 0.071
30.5910 0.070
30.6212 -0.087
30.6515 0.173
30.6818 0.277
30.7121 0.120
30.7424 0.120
30.7726 0.119
30.8029 0.119
30.8332 0.118
30.8635 -0.038
30.8938 -0.038
30.9240 0.743
30.9543 0.013
30.9846 0.117
31.0149 0.534
31.0451 0.169
31.0754 0.378
31.1057 0.221
31.1360 0.221
31.1663 0.638
31.1965 0.690
31.2268 0.274
31.2571 0.378
31.2874 0.327
31.3177 0.379
31.3479 0.483
31.3782 0.536
31.4085 0.745
31.4388 0.849
31.4690 0.642
31.4993 0.278
31.5296 0.695
31.5599 0.852
31.5902 -0.085
31.6204 0.749
31.6507 0.385
31.6810 0.594
31.7113 0.543
31.7416 0.388
31.7718 0.857
31.8021 0.285
31.8324 0.495
31.8627 0.235
31.8929 0.289
31.9232 0.342
31.9535 0.708
31.9838 0.448
32.0141 0.450
32.0443 0.555
32.0746 0.244
32.1049 0.298
32.1352 0.247
32.1655 0.353
32.1957 0.250
32.2260 0.408
32.2563 0.097
32.2866 0.203
32.3169 -0.004
32.3471 0.518
32.3774 0.104
32.4077 0.262
32.4380 0.003
32.4682 0.161
32.4985 0.267
32.5288 0.009
32.5591 0.323
32.5894 0.221
32.6196 0.328
32.6499 0.225
32.6802 0.019
32.7105 0.230
32.7408 0.128
32.7710 0.599
32.8013 0.133
32.8316 0.187
32.8619 0.189
32.8921 0.400
32.9224 0.090
32.9527 0.041
32.9830 0.252
33.0133 0.306
33.0435 0.413
33.0738 0.103
33.1041 0.158
33.1344 -0.151
33.1647 0.060
33.1949 0.167
33.2252 0.274
33.2555 0.277
33.2858 0.176
33.3160 0.439
33.3463 -0.131
33.3766 -0.128
33.4069 -0.128
33.4372 0.393
33.4674 -0.024
33.4977 0.185
33.5280 0.133
33.5583 0.341
33.5886 0.081
33.6188 -0.128
33.6491 -0.129
33.6794 0.287
33.7097 0.026
33.7399 0.025
33.7702 -0.028
33.8005 0.075
33.8308 0.283
33.8611 0.386
33.8913 -0.083
33.9216 0.177
33.9519 0.280
33.9822 0.280
34.0125 -0.086
34.0427 0.278
34.0730 0.174
34.1033 0.173
34.1336 0.329
34.1638 0.069
34.1941 -0.036
34.2244 0.276
34.2547 0.068
34.2850 0.380
34.3152 0.172
34.3455 0.068
34.3758 0.120
34.4061 0.015
34.4364 0.172
34.4666 -0.037
34.4969 -0.193
34.5272 0.589
34.5575 0.120
34.5877 0.121
34.6180 0.173
34.6483 0.069
34.6786 0.069
34.7089 -0.034
34.7391 -0.034
34.7694 0.279
34.7997 -0.085
34.8300 0.124
34.8603 0.125
34.8905 0.021
34.9208 -0.134
34.9511 0.335
34.9814 -0.133
35.0116 -0.236
35.0419 0.286
35.0722 0.391
35.1025 0.079
35.1328 -0.024
35.1630 -0.075
35.1933 0.186
35.2236 -0.125
35.2539 -0.020
35.2842 0.242
35.3144 -0.017
35.3447 -0.068
35.3750 0.037
35.4053 -0.222
35.4356 0.301
35.4658 0.094
35.4961 0.304
35.5264 0.201
35.5567 0.307
35.5869 0.360
35.6172 0.102
35.6475 -0.053
35.6778 0.001
35.7081 -0.154
35.7383 0.055
35.7686 0.212
35.7989 0.056
35.8292 0.108
35.8595 0.161
35.8897 0.370
35.9200 0.266
35.9503 0.162
35.9806 0.111
36.0108 0.216
36.0411 0.269
36.0714 0.321
36.1017 0.218
36.1320 0.323
36.1622 0.220
36.1925 0.116
36.2228 0.222
36.2531 0.066
36.2834 -0.089
36.3136 -0.036
36.3439 0.174
36.3742 0.019
36.4045 0.228
36.4347 0.177
36.4650 0.074
36.4953 -0.029
36.5256 0.181
36.5559 -0.130
36.5861 0.288
36.6164 -0.023
36.6467 0.447
36.6770 0.084
36.7073 0.034
36.7375 0.296
36.7678 0.141
36.7981 0.039
36.8284 0.197
36.8586 -0.062
36.8889 0.409
36.9192 0.150
36.9495 0.100
36.9798 0.102
37.0100 0.104
37.0403 0.054
37.0706 0.056
37.1009 0.163
37.1312 -0.096
37.1614 0.219
37.1917 0.169
37.2220 0.172
37.2523 -0.138
37.2825 0.124
37.3128 0.127
37.3431 -0.027
37.3734 0.340
37.4037 -0.074
37.4339 0.033
37.4642 0.192
37.4945 0.038
37.5248 0.093
37.5551 0.044
37.5853 0.046
37.6156 -0.003
37.6459 -0.104
37.6762 0.051
37.7064 0.467
37.7367 -0.055
37.7670 0.204
37.7973 0.360
37.8276 0.099
37.8578 0.358
37.8881 0.201
37.9184 0.044
37.9487 0.304
37.9790 0.303
38.0092 0.355
38.0395 0.250
38.0698 0.146
38.1001 0.145
38.1304 0.093
38.1606 0.144
38.1909 0.248
38.2212 0.144
38.2515 0.091
38.2817 0.091
38.3120 0.091
38.3423 0.299
38.3726 0.351
38.4029 0.299
38.4331 0.039
38.4634 0.351
38.4937 0.039
38.5240 0.039
38.5543 0.352
38.5845 -0.013
38.6148 0.144
38.6451 0.300
38.6754 0.196
38.7056 -0.012
38.7359 0.197
38.7662 0.093
38.7965 -0.010
38.8268 -0.114
38.8570 0.199
38.8873 -0.008
38.9176 0.305
38.9479 0.357
38.9782 0.098
39.0084 0.203
39.0387 0.256
39.0690 0.152
39.0993 0.101
39.1295 0.415
39.1598 -0.053
39.1901 -0.104
39.2204 -0.001
39.2507 0.154
39.2809 0.361
39.3112 0.204
39.3415 0.151
39.3718 0.046
39.4021 0.045
39.4323 0.096
39.4626 0.616
39.4929 0.198
39.5232 0.145
39.5534 0.197
39.5837 0.404
39.6140 -0.013
39.6443 0.195
39.6746 0.090
39.7048 -0.015
39.7351 -0.067
39.7654 0.193
39.7957 -0.120
39.8260 0.088
39.8562 0.140
39.8865 0.035
39.9168 0.035
39.9471 0.139
39.9773 0.087
40.0076 0.087
40.0379 0.034
40.0682 0.087
40.0985 0.139
40.1287 0.191
40.1590 0.087
40.1893 0.139
40.2196 0.399
40.2499 0.139
40.2801 0.296
40.3104 0.088
40.3407 0.453
40.3710 -0.120
40.4012 0.089
40.4315 0.246
40.4618 0.246
40.4921 0.351
40.5224 0.143
40.5526 0.404
40.5829 0.040
40.6132 0.093
40.6435 0.198
40.6738 0.042
40.7040 0.147
40.7343 0.148
40.7646 0.201
40.7949 0.098
40.8251 0.151
40.8554 0.152
40.8857 0.205
40.9160 0.207
40.9463 -0.001
40.9765 0.313
41.0068 0.106
41.0371 0.159
41.0674 0.109
41.0977 0.162
41.1279 0.007
41.1582 0.165
41.1885 0.114
41.2188 0.220
41.2491 0.065
41.2793 0.223
41.3096 0.121
41.3399 0.227
41.3702 0.072
41.4004 -0.030
41.4307 0.232
41.4610 0.338
41.4913 0.027
41.5216 -0.179
41.5518 0.029
41.5821 0.236
41.6124 0.131
41.6427 0.026
41.6730 0.234
41.7032 0.286
41.7335 0.285
41.7638 0.180
41.7941 0.076
41.8243 0.127
41.8546 -0.029
41.8849 0.127
41.9152 0.178
41.9455 -0.082
41.9757 0.074
42.0060 0.230
42.0363 0.178
42.0666 0.073
42.0969 0.125
42.1271 0.073
42.1574 0.073
42.1877 0.177
42.2180 0.178
42.2482 0.230
42.2785 0.230
42.3088 0.386
42.3391 0.074
42.3694 0.127
42.3996 0.127
42.4299 0.075
42.4602 -0.028
42.4905 0.076
42.5208 0.285
42.5510 0.129
42.5813 0.026
42.6116 0.026
42.6419 0.079
42.6721 -0.128
42.7024 0.185
42.7327 0.238
42.7630 -0.178
42.7933 0.344
42.8235 0.032
42.8538 0.189
42.8841 0.138
42.9144 0.087
42.9447 0.244
42.9749 0.246
43.0052 0.038
43.0355 0.144
43.0658 0.093
43.0960 0.198
43.1263 0.096
43.1566 -0.163
43.1869 0.098
43.2172 0.360
43.2474 -0.003
43.2777 -0.262
43.3080 -0.055
43.3383 0.255
43.3686 0.045
43.3988 0.199
43.4291 -0.011
43.4594 -0.117
43.4897 0.246
43.5199 0.296
43.5502 0.034
43.5805 -0.020
43.6108 -0.022
43.6411 -0.075
43.6713 0.079
43.7016 -0.026
43.7319 0.024
43.7622 0.075
43.7925 0.022
43.8227 0.072
43.8530 0.175
43.8833 0.018
43.9136 0.225
43.9439 0.276
43.9741 0.327
44.0044 0.221
44.0347 0.324
44.0650 0.011
44.0952 0.010
44.1255 0.113
44.1558 0.008
44.1861 0.007
44.2164 0.111
44.2466 0.214
44.2769 0.161
44.3072 0.265
44.3375 0.264
44.3678 0.055
44.3980 0.002
44.4283 0.106
44.4586 0.053
44.4889 0.261
44.5191 0.001
44.5494 0.261
44.5797 0.156
44.6100 0.000
44.6403 -0.209
44.6705 0.312
44.7008 0.155
44.7311 0.103
44.7614 -0.053
44.7917 0.259
44.8219 -0.001
44.8522 0.363
44.8825 0.051
44.9128 -0.053
44.9430 0.208
44.9733 0.416
45.0036 0.052
45.0339 -0.104
45.0642 -0.104
45.0944 0.260
45.1247 -0.001
45.1550 0.155
45.1853 -0.001
45.2156 0.207
45.2458 0.259
45.2761 -0.053
45.3064 0.051
45.3367 0.103
45.3669 0.051
45.3972 0.259
45.4275 0.155
45.4578 0.208
45.4881 0.052
45.5183 -0.104
45.5486 -0.106
45.5789 0.360
45.6092 0.097
45.6395 0.199
45.6697 0.093
45.7000 -0.013
45.7303 0.089
45.7606 0.139
45.7908 0.189
45.8211 0.187
45.8514 -0.023
45.8817 0.079
45.9120 0.182
45.9422 -0.029
45.9725 0.491
46.0028 0.124
46.0331 0.018
46.0634 0.017
46.0936 0.172
46.1239 0.170
46.1542 0.116
46.1845 0.167
46.2147 -0.251
46.2450 0.008
46.2753 0.215
46.3056 0.162
46.3359 0.213
46.3661 0.055
46.3964 0.158
46.4267 0.053
46.4570 0.312
46.4873 0.155
46.5175 -0.002
46.5478 0.153
46.5781 -0.004
46.6084 0.099
46.6386 0.203
46.6689 0.150
46.6992 0.097
46.7295 0.148
46.7598 0.148
46.7900 0.147
46.8203 0.042
46.8506 0.042
46.8809 0.354
46.9112 0.197
46.9414 -0.012
46.9717 0.144
47.0020 0.352
47.0323 -0.013
47.0626 0.456
47.0928 0.039
47.1231 0.039
47.1534 0.091
47.1837 -0.118
47.2139 0.143
47.2442 0.091
47.2745 -0.013
47.3048 -0.013
47.3351 0.351
47.3653 0.247
47.3956 0.300
47.4259 -0.221
47.4562 -0.116
47.4865 0.140
47.5167 -0.125
47.5470 -0.025
47.5773 0.127
47.6076 0.227
47.6378 0.067
47.6681 0.272
47.6984 0.424
47.7287 0.055
47.7590 0.208
47.7892 0.048
47.8195 0.044
47.8498 0.144
47.8801 0.453
47.9104 0.397
47.9406 0.029
47.9709 0.286
48.0012 -0.134
48.0315 0.279
48.0617 -0.089
48.0920 0.012
48.1223 -0.096
48.1526 -0.047
48.1829 0.262
48.2131 0.155
48.2434 0.256
48.2737 0.096
48.3040 -0.011
48.3343 0.403
48.3645 -0.017
48.3948 0.397
48.4251 0.654
48.4554 -0.026
48.4856 0.180
48.5159 0.281
48.5462 0.174
48.5765 0.223
48.6068 0.117
48.6370 0.114
48.6673 0.111
48.6976 0.005
48.7279 0.106
48.7582 0.000
48.7884 -0.003
48.8187 0.151
48.8490 0.357
48.8793 -0.062
48.9095 0.404
48.9398 -0.067
48.9701 0.140
49.0004 0.085
49.0307 0.135
49.0609 0.237
49.0912 0.131
49.1215 -0.131
49.1518 0.023
49.1821 0.490
49.2123 0.280
49.2426 0.278
49.2729 0.016
49.3032 0.326
49.3334 -0.144
49.3637 0.011
49.3940 -0.147
49.4243 -0.097
49.4546 0.213
49.4848 0.003
49.5151 0.470
49.5454 0.260
49.5757 0.362
49.6060 -0.108
49.6362 0.203
49.6665 -0.112
49.6968 -0.061
49.7271 -0.011
49.7574 -0.116
49.7876 -0.118
49.8179 0.037
49.8482 0.296
49.8785 0.086
49.9087 -0.071
49.9390 0.032
49.9693 -0.022
49.9996 0.185
50.0299 -0.076
50.0601 0.183
50.0904 0.234
50.1207 0.129
50.1510 -0.080
50.1813 0.440
50.2115 -0.134
50.2418 0.282
50.2721 0.177
50.3024 0.384
50.3326 0.227
50.3629 0.695
50.3932 0.642
50.4235 0.225
50.4538 0.329
50.4840 0.328
50.5143 0.849
50.5446 0.119
50.5749 0.275
50.6052 0.118
50.6354 0.118
50.6657 0.065
50.6960 0.482
50.7263 0.430
50.7565 0.377
50.7868 0.429
50.8171 0.273
50.8474 0.585
50.8777 0.065
50.9079 0.585
50.9382 0.221
50.9685 0.117
50.9988 0.377
51.0291 0.326
51.0593 0.170
51.0896 -0.038
51.1199 0.587
51.1502 0.171
51.1804 0.171
51.2107 0.432
51.2410 0.172
51.2713 0.172
51.3016 0.381
51.3318 0.278
51.3621 0.643
51.3924 0.227
51.4227 0.124
51.4530 0.437
51.4832 0.334
51.5135 0.335
51.5438 -0.185
51.5741 0.284
51.6043 0.129
51.6346 0.495
51.6649 0.235
51.6952 -0.180
51.7255 0.706
51.7557 0.135
51.7860 0.292
51.8163 0.606
51.8466 -0.018
51.8769 0.400
51.9071 0.350
51.9374 0.038
51.9677 0.092
51.9980 0.198
52.0282 -0.009
52.0585 -0.007
52.0888 -0.058
52.1191 0.256
52.1494 -0.211
52.1796 0.468
52.2099 0.105
52.2402 0.055
52.2705 0.422
52.3008 0.319
52.3310 0.269
52.3613 0.167
52.3916 -0.143
52.4219 0.015
52.4521 0.174
52.4824 0.228
52.5127 0.386
52.5430 -0.028
52.5733 0.287
52.6035 -0.023
52.6338 0.135
52.6641 0.346
52.6944 0.296
52.7247 0.299
52.7549 0.354
52.7852 0.044
52.8155 0.203
52.8458 0.257
52.8761 0.000
52.9063 -0.154
52.9366 0.055
52.9669 0.264
52.9972 0.109
53.0274 0.370
53.0577 0.058
53.0880 0.424
53.1183 -0.044
53.1486 0.218
53.1788 0.271
53.2091 0.272
53.2394 -0.040
53.2697 0.274
53.3000 0.171
53.3302 0.329
53.3605 0.330
53.3908 -0.085
53.4211 0.020
53.4513 -0.135
53.4816 0.284
53.5119 0.129
53.5422 0.130
53.5725 0.340
53.6027 -0.127
53.6330 0.291
53.6633 -0.071
53.6936 0.034
53.7239 0.088
53.7541 -0.118
53.7844 0.144
53.8147 -0.062
53.8450 -0.008
53.8752 -0.006
53.9055 0.152
53.9358 -0.054
53.9661 0.417
53.9964 0.054
54.0266 0.473
54.0569 0.059
54.0872 0.373
54.1175 -0.093
54.1478 0.066
54.1780 0.068
54.2083 0.435
54.2386 0.177
54.2689 0.232
54.2991 0.130
54.3294 -0.232
54.3597 -0.075
54.3900 0.291
54.4203 0.031
54.4505 0.084
54.4808 0.398
54.5111 0.399
54.5414 0.036
54.5717 0.089
54.6019 0.298
54.6322 0.299
54.6625 -0.064
54.6928 0.042
54.7230 -0.061
54.7533 -0.060
54.7836 0.046
54.8139 -0.109
54.8442 0.049
54.8744 -0.002
54.9047 0.312
54.9350 -0.155
54.9653 0.159
54.9956 0.057
55.0258 0.111
55.0561 0.008
55.0864 0.114
55.1167 0.273
55.1469 -0.038
55.1772 0.120
55.2075 0.122
55.2378 -0.032
55.2681 0.439
55.2983 0.181
55.3286 -0.078
55.3589 0.185
55.3892 -0.177
55.4195 0.190
55.4497 0.348
55.4800 -0.014
55.5103 0.197
55.5406 -0.218
55.5709 0.045
55.6011 0.256
55.6314 -0.054
55.6617 0.053
55.6920 0.004
55.7222 0.006
55.7525 0.009
55.7828 -0.144
55.8131 0.119
55.8434 0.070
55.8736 0.021
55.9039 0.076
55.9342 -0.025
55.9645 0.186
55.9948 -0.071
56.0250 0.244
56.0553 0.195
56.0856 0.198
56.1159 0.045
56.1461 0.049
56.1764 -0.104
56.2067 -0.054
56.2370 -0.003
56.2673 0.099
56.2975 0.150
56.3278 0.253
56.3581 -0.009
56.3884 -0.011
56.4187 0.144
56.4489 0.247
56.4792 -0.015
56.5095 -0.016
56.5398 0.087
56.5700 -0.018
56.6003 0.345
56.6306 -0.020
56.6609 0.135
56.6912 -0.022
56.7214 0.289
56.7517 0.236
56.7820 0.339
56.8123 0.234
56.8426 -0.079
56.8728 0.285
56.9031 -0.028
56.9334 0.284
56.9637 -0.186
56.9939 0.178
57.0242 0.074
57.0545 0.021
57.0848 0.125
57.1151 0.385
57.1453 0.228
57.1756 0.019
57.2059 0.123
57.2362 0.123
57.2665 -0.138
57.2967 0.018
57.3270 -0.034
57.3573 -0.086
57.3876 -0.034
57.4178 0.174
57.4481 0.435
57.4784 -0.034
57.5087 -0.034
57.5390 0.071
57.5692 0.071
57.5995 0.019
57.6298 -0.033
57.6601 0.020
57.6904 0.176
57.7206 0.073
57.7509 0.333
57.7812 -0.135
57.8115 -0.082
57.8417 0.127
57.8720 0.127
57.9023 -0.028
57.9326 -0.028
57.9629 -0.027
57.9931 0.026
58.0234 -0.077
58.0537 0.028
58.0840 -0.023
58.1143 -0.075
58.1445 -0.178
58.1748 0.292
58.2051 -0.124
58.2354 0.294
58.2656 -0.017
58.2959 0.088
58.3262 0.194
58.3565 0.039
58.3868 -0.012
58.4170 0.041
58.4473 0.095
58.4776 0.200
58.5079 -0.111
58.5382 -0.057
58.5684 0.101
58.5987 -0.002
58.6290 -0.104
58.6593 0.000
58.6896 0.207
58.7198 0.103
58.7501 0.155
58.7804 -0.054
58.8107 0.050
58.8409 -0.055
58.8712 0.258
58.9015 -0.003
58.9318 -0.003
58.9621 0.101
58.9923 -0.055
59.0226 0.205
59.0529 0.153
59.0832 0.049
59.1135 0.049
59.1437 -0.003
59.1740 0.050
59.2043 -0.002
59.2346 0.050
59.2648 -0.002
59.2951 0.051
59.3254 -0.053
59.3557 -0.052
59.3860 0.000
59.4162 0.209
59.4465 -0.051
59.4768 -0.050
59.5071 0.055
59.5374 -0.153
59.5676 0.002
59.5979 -0.155
59.6282 0.261
59.6585 0.156
59.6887 -0.106
59.7190 0.258
59.7493 0.049
59.7796 -0.056
59.8099 -0.004
59.8401 0.047
59.8704 0.047
59.9007 0.046
59.9310 0.202
59.9613 0.149
59.9915 0.045
60.0218 0.044
60.0521 0.304
60.0824 0.096
60.1126 0.095
60.1429 -0.009
60.1732 0.199
60.2035 0.147
60.2338 0.043
60.2640 -0.009
60.2943 -0.061
60.3246 0.251
60.3549 -0.009
60.3852 -0.009
60.4154 0.043
60.4457 0.252
60.4760 0.148
60.5063 -0.112
60.5365 0.461
60.5668 0.044
60.5971 -0.007
60.6274 0.045
60.6577 0.306
60.6879 -0.006
60.7182 0.099
60.7485 0.152
60.7788 0.100
60.8091 -0.264
60.8393 0.050
60.8696 -0.054
60.8999 -0.053
60.9302 -0.104
60.9604 -0.051
60.9907 -0.102
61.0210 0.003
61.0513 -0.048
61.0816 0.005
61.1118 0.006
61.1421 0.007
61.1724 0.217
61.2027 0.218
61.2330 -0.093
61.2632 0.325
61.2935 0.014
61.3238 -0.037
61.3541 0.016
61.3844 -0.034
61.4146 0.124
61.4449 0.125
61.4752 0.023
61.5055 0.180
61.5357 0.234
61.5660 -0.024
61.5963 -0.127
61.6266 0.082
61.6569 0.238
61.6871 0.290
61.7174 0.134
61.7477 0.394
61.7780 0.030
61.8083 -0.282
61.8385 -0.022
61.8688 -0.073
61.8991 0.135
61.9294 0.031
61.9596 0.084
61.9899 0.032
62.0202 0.033
62.0505 0.033
62.0808 -0.070
62.1110 0.035
62.1413 0.087
62.1716 0.297
62.2019 0.037
62.2322 0.038
62.2624 -0.014
62.2927 -0.013
62.3230 0.197
62.3533 0.041
62.3835 0.355
62.4138 0.148
62.4441 0.253
62.4744 0.098
62.5047 -0.005
62.5349 0.048
62.5652 0.101
62.5955 -0.002
62.6258 -0.156
62.6561 -0.001
62.6863 -0.002
62.7166 -0.002
62.7469 -0.159
62.7772 0.153
62.8074 -0.056
62.8377 0.203
62.8680 0.047
62.8983 -0.006
62.9286 -0.058
62.9588 -0.007
62.9891 0.045
63.0194 0.045
63.0497 0.097
63.0800 0.149
63.1102 -0.060
63.1405 0.252
63.1708 -0.008
63.2011 -0.008
63.2313 0.200
63.2616 -0.008
63.2919 -0.008
63.3222 -0.008
63.3525 0.201
63.3827 0.097
63.4130 -0.007
63.4433 -0.059
63.4736 0.097
63.5039 -0.006
63.5341 -0.058
63.5644 -0.058
63.5947 -0.161
63.6250 0.152
63.6552 -0.004
63.6855 0.101
63.7158 0.362
63.7461 -0.054
63.7764 -0.157
63.8066 -0.003
63.8369 -0.004
63.8672 0.099
63.8975 0.202
63.9278 0.045
63.9580 0.148
63.9883 0.147
64.0186 0.250
64.0489 0.041
64.0791 0.040
64.1094 0.143
64.1397 0.038
64.1700 0.142
64.2003 0.141
64.2305 -0.068
64.2608 -0.017
64.2911 -0.122
64.3214 0.034
64.3517 -0.071
64.3819 0.137
64.4122 0.189
64.4425 0.136
64.4728 -0.176
64.5031 0.136
64.5333 0.031
64.5636 -0.125
64.5939 0.187
64.6242 -0.021
64.6544 0.083
64.6847 0.083
64.7150 -0.022
64.7453 0.239
64.7756 -0.022
64.8058 0.083
64.8361 0.239
64.8664 0.135
64.8967 -0.021
64.9270 0.031
64.9572 0.084
64.9875 0.032
65.0178 -0.020
65.0481 -0.019
65.0783 0.085
65.1086 0.034
65.1389 -0.018
65.1692 0.087
65.1995 0.087
65.2297 -0.120
65.2600 0.089
65.2903 0.194
65.3206 -0.014
65.3509 -0.013
65.3811 -0.012
65.4114 0.197
65.4417 -0.010
65.4720 0.043
65.5022 0.200
65.5325 0.045
65.5628 0.202
65.5931 0.047
65.6234 0.048
65.6536 -0.002
65.6839 0.311
65.7142 0.000
65.7445 0.054
65.7748 0.211
65.8050 -0.100
65.8353 0.006
65.8656 0.060
65.8959 0.113
65.9261 -0.041
65.9564 -0.040
65.9867 -0.090
66.0170 -0.194
66.0473 0.223
66.0775 0.068
66.1078 0.068
66.1381 0.173
66.1684 -0.034
66.1987 0.071
66.2289 0.280
66.2592 -0.084
66.2895 0.021
66.3198 -0.134
66.3500 0.023
66.3803 0.024
66.4106 0.181
66.4409 0.026
66.4712 0.288
66.5014 0.133
66.5317 0.030
66.5620 0.239
66.5923 -0.124
66.6226 0.242
66.6528 -0.069
66.6831 -0.067
66.7134 0.247
66.7437 0.300
66.7739 0.041
66.8042 0.147
66.8345 0.045
66.8648 -0.006
66.8951 0.465
66.9253 0.050
66.9556 0.364
66.9859 -0.051
67.0162 0.159
67.0465 0.057
67.0767 0.059
67.1070 0.061
67.1373 0.220
67.1676 0.222
67.1978 -0.141
67.2281 -0.087
67.2584 0.016
67.2887 0.066
67.3190 0.012
67.3492 0.322
67.3795 -0.096
67.4098 0.215
67.4401 0.213
67.4704 0.211
67.5006 0.053
67.5309 0.260
67.5612 -0.002
67.5915 0.048
67.6218 0.047
67.6520 -0.007
67.6823 0.044
67.7126 0.043
67.7429 0.197
67.7731 0.040
67.8034 0.195
67.8337 -0.015
67.8640 0.036
67.8943 0.243
67.9245 0.138
67.9548 0.241
67.9851 -0.072
68.0154 0.083
68.0457 -0.022
68.0759 0.185
68.1062 -0.076
68.1365 -0.129
68.1668 0.026
68.1970 -0.027
68.2273 0.128
68.2576 0.127
68.2879 -0.030
68.3182 0.021
68.3484 0.072
68.3787 0.280
68.4090 0.122
68.4393 0.278
68.4696 0.017
68.4998 -0.036
68.5301 0.432
68.5604 -0.090
68.5907 -0.090
68.6209 -0.040
68.6512 -0.145
68.6815 0.374
68.7118 0.009
68.7421 0.059
68.7723 0.006
68.8026 0.109
68.8329 0.160
68.8632 -0.153
68.8935 0.054
68.9237 0.053
68.9540 -0.156
68.9843 -0.053
69.0146 -0.002
69.0448 -0.002
69.0751 -0.003
69.1054 0.101
69.1357 -0.004
69.1660 0.048
69.1962 0.151
69.2265 0.099
69.2568 -0.110
69.2871 -0.006
69.3174 -0.006
69.3476 0.098
69.3779 0.098
69.4082 -0.007
69.4385 0.253
69.4687 -0.111
69.4990 -0.059
69.5293 -0.007
69.5596 0.045
69.5899 -0.007
69.6201 -0.163
69.6504 0.098
69.6807 -0.111
69.7110 0.098
69.7413 -0.006
69.7715 0.047
69.8018 -0.057
69.8321 0.047
69.8624 -0.004
69.8926 -0.004
69.9229 -0.003
69.9532 0.102
69.9835 -0.054
70.0138 -0.105
70.0440 -0.001
70.0743 -0.156
70.1046 0.000
70.1349 0.104
70.1652 -0.104
70.1954 -0.104
70.2257 0.104
70.2560 0.104
70.2863 -0.052
70.3166 0.052
70.3468 0.001
70.3771 0.053
70.4074 0.001
70.4377 -0.051
70.4679 -0.050
70.4982 0.002
70.5285 -0.153
70.5588 0.055
70.5891 0.004
70.6193 -0.048
70.6496 -0.047
70.6799 0.006
70.7102 0.007
70.7405 -0.097
70.7707 0.060
70.8010 0.009
70.8313 0.010
70.8616 0.115
70.8918 0.012
70.9221 0.013
70.9524 -0.090
70.9827 -0.090
71.0130 0.013
71.0432 0.011
71.0735 0.010
71.1038 0.009
71.1341 0.008
71.1644 0.215
71.1946 0.110
71.2249 0.056
71.2552 0.003
71.2855 0.107
71.3157 0.158
71.3460 -0.156
71.3763 0.104
71.4066 -0.001
71.4369 -0.106
71.4671 0.102
71.4974 0.153
71.5277 -0.056
71.5580 -0.004
71.5883 0.047
71.6185 0.047
71.6488 -0.162
71.6791 0.202
71.7094 -0.007
71.7396 -0.163
71.7699 0.149
71.8002 -0.060
71.8305 0.044
71.8608 -0.112
71.8910 0.200
71.9213 -0.060
71.9516 0.044
71.9819 -0.008
72.0122 0.096
72.0424 0.044
72.0727 0.096
72.1030 0.096
72.1333 0.148
72.1635 0.044
72.1938 0.045
72.2241 0.149
72.2544 -0.059
72.2847 0.202
72.3149 0.098
72.3452 -0.005
72.3755 -0.005
72.4058 0.048
72.4361 -0.004
72.4663 -0.003
72.4966 0.154
72.5269 -0.054
72.5572 -0.001
72.5874 -0.104
72.6177 -0.001
72.6480 0.155
72.6783 0.050
72.7086 -0.003
72.7388 -0.055
72.7691 0.257
72.7994 0.204
72.8297 -0.213
72.8600 -0.057
72.8902 -0.005
72.9205 -0.057
72.9508 -0.006
72.9811 0.098
73.0113 0.046
73.0416 0.098
73.0719 0.306
73.1022 -0.006
73.1325 0.150
73.1627 -0.006
73.1930 0.150
73.2233 0.150
73.2536 -0.006
73.2839 -0.110
73.3141 0.203
73.3444 0.204
73.3747 0.256
73.4050 -0.160
73.4353 -0.004
73.4655 -0.003
73.4958 -0.003
73.5261 -0.002
73.5564 0.051
73.5866 -0.001
73.6169 -0.208
73.6472 0.000
73.6775 0.208
73.7078 0.000
73.7380 -0.156
73.7683 -0.001
73.7986 0.051
73.8289 0.051
73.8592 -0.053
73.8894 0.051
73.9197 0.050
73.9500 -0.158
73.9803 0.206
74.0105 0.050
74.0408 0.102
74.0711 -0.002
74.1014 0.050
74.1317 -0.002
74.1619 -0.001
74.1922 0.103
74.2225 0.103
74.2528 -0.001
74.2831 0.000
74.3133 -0.052
74.3436 0.209
74.3739 0.105
74.4042 0.210
74.4344 0.054
74.4647 0.055
74.4950 0.055
74.5253 -0.048
74.5556 0.109
74.5858 0.370
74.6161 0.214
74.6464 0.163
74.6767 0.268
74.7070 0.009
74.7372 -0.094
74.7675 0.219
74.7978 0.116
74.8281 -0.091
74.8583 -0.090
74.8886 -0.144
74.9189 0.063
74.9492 0.010
74.9795 0.009
75.0097 -0.096
75.0400 0.163
75.0703 -0.047
75.1006 0.057
75.1309 0.108
75.1611 -0.102
75.1914 0.054
75.2217 0.001
75.2520 -0.104
75.2822 -0.002
75.3125 -0.107
75.3428 0.048
75.3731 0.047
75.4034 -0.059
75.4336 0.097
75.4639 0.095
75.4942 -0.062
75.5245 0.093
75.5548 -0.116
75.5850 0.091
75.6153 -0.066
75.6456 0.402
75.6759 0.141
75.7061 0.140
75.7364 0.139
75.7667 -0.018
75.7970 0.138
75.8273 0.085
75.8575 -0.019
75.8878 -0.176
75.9181 0.084
75.9484 0.031
75.9787 -0.021
76.0089 0.030
76.0392 -0.074
76.0695 0.082
76.0998 0.082
76.1301 -0.127
76.1603 -0.023
76.1906 0.133
76.2209 0.028
76.2512 0.028
76.2814 0.288
76.3117 0.132
76.3420 0.027
76.3723 -0.077
76.4026 0.131
76.4328 0.236
76.4631 0.131
76.4934 0.079
76.5237 0.184
76.5540 -0.077
76.5842 0.080
76.6145 0.080
76.6448 0.080
76.6751 -0.076
76.7053 0.237
76.7356 0.081
76.7659 0.134
76.7962 0.030
76.8265 0.239
76.8567 -0.021
76.8870 -0.020
76.9173 0.084
76.9476 -0.071
76.9779 0.034
77.0081 0.191
77.0384 0.191
77.0687 0.192
77.0990 -0.015
77.1292 0.038
77.1595 0.143
77.1898 0.040
77.2201 -0.063
77.2504 -0.114
77.2806 0.095
77.3109 -0.008
77.3412 0.149
77.3715 -0.006
77.4018 -0.004
77.4320 0.205
77.4623 -0.002
77.4926 -0.104
77.5229 0.001
77.5531 0.106
77.5834 0.212
77.6137 0.004
77.6440 -0.046
77.6743 0.007
77.7045 0.008
77.7348 0.062
77.7651 0.376
77.7954 -0.092
77.8257 -0.090
77.8559 -0.039
77.8862 -0.040
77.9165 -0.041
77.9468 -0.094
77.9770 0.113
78.0073 0.008
78.0376 -0.045
78.0679 -0.098
78.0982 0.005
78.1284 0.213
78.1587 -0.048
78.1890 0.055
78.2193 0.055
78.2496 0.054
78.2798 0.054
78.3101 0.001
78.3404 0.105
78.3707 -0.052
78.4009 0.104
78.4312 0.208
78.4615 0.051
78.4918 0.312
78.5221 -0.001
78.5523 -0.157
78.5826 -0.054
78.6129 -0.003
78.6432 0.257
78.6735 0.100
78.7037 0.099
78.7340 -0.006
78.7643 -0.007
78.7946 0.253
78.8248 -0.008
78.8551 0.200
78.8854 -0.061
78.9157 -0.166
78.9460 0.094
78.9762 -0.010
79.0065 -0.011
79.0368 -0.063
79.0671 0.093
79.0974 -0.011
79.1276 0.249
79.1579 0.145
79.1882 0.040
79.2185 0.144
79.2488 0.144
79.2790 0.144
79.3093 -0.012
79.3396 -0.012
79.3699 -0.011
79.4001 -0.011
79.4304 -0.011
79.4607 0.093
79.4910 0.146
79.5213 -0.114
79.5515 -0.062
79.5818 0.251
79.6121 -0.009
79.6424 0.304
79.6727 0.201
79.7029 0.045
79.7332 -0.006
79.7635 0.203
79.7938 -0.005
79.8240 0.204
79.8543 0.049
79.8846 0.362
79.9149 -0.002
79.9452 -0.001
79.9754 0.469
80.0057 0.210
80.0360 0.107
80.0663 0.004
80.0966 0.005
80.1268 0.266
80.1571 0.007
80.1874 0.165
80.2177 0.062
80.2479 -0.041
80.2782 0.013
80.3085 -0.090
80.3388 -0.090
80.3691 0.013
80.3993 0.116
80.4296 0.063
80.4599 0.218
80.4902 0.009
80.5205 0.008
80.5507 -0.202
80.5810 0.058
80.6113 -0.047
80.6416 0.160
80.6718 0.108
80.7021 0.003
80.7324 -0.050
80.7627 0.001
80.7930 0.001
80.8232 0.209
80.8535 0.052
80.8838 0.052
80.9141 0.103
80.9444 -0.001
80.9746 -0.054
81.0049 -0.002
81.0352 0.154
81.0655 0.206
81.0957 0.154
81.1260 0.154
81.1563 -0.003
81.1866 0.101
81.2169 0.466
81.2471 0.206
81.2774 0.049
81.3077 -0.055
81.3380 -0.002
81.3683 -0.002
81.3985 0.467
81.4288 -0.002
81.4591 0.051
81.4894 0.051
81.5196 -0.001
81.5499 -0.261
81.5802 -0.001
81.6105 -0.002
81.6408 -0.003
81.6710 -0.003
81.7013 0.152
81.7316 0.152
81.7619 0.151
81.7922 0.099
81.8224 -0.058
81.8527 -0.007
81.8830 0.462
81.9133 0.045
81.9436 -0.060
81.9738 0.148
82.0041 0.096
82.0344 0.044
82.0647 0.200
82.0949 0.304
82.1252 0.200
82.1555 -0.009
82.1858 -0.009
82.2161 0.095
82.2463 0.252
82.2766 -0.009
82.3069 -0.008
82.3372 -0.112
82.3675 0.252
82.3977 0.305
82.4280 -0.059
82.4583 0.045
82.4886 0.150
82.5188 -0.110
82.5491 0.463
82.5794 0.047
82.6097 0.308
82.6400 -0.004
82.6702 0.257
82.7005 0.050
82.7308 0.154
82.7611 -0.001
82.7914 -0.104
82.8216 -0.001
82.8519 -0.054
82.8822 0.258
82.9125 -0.159
82.9427 0.361
82.9730 0.048
83.0033 -0.004
83.0336 0.204
83.0639 -0.005
83.0941 -0.006
83.1244 0.202
83.1547 0.046
83.1850 0.098
83.2153 -0.059
83.2455 0.150
83.2758 -0.007
83.3061 0.149
83.3364 -0.007
83.3666 0.045
83.3969 0.149
83.4272 -0.059
83.4575 0.410
83.4878 0.358
83.5180 0.046
83.5483 -0.006
83.5786 0.151
83.6089 -0.005
83.6392 -0.005
83.6694 0.204
83.6997 0.100
83.7300 0.361
83.7603 -0.107
83.7905 -0.002
83.8208 0.103
83.8511 -0.001
83.8814 -0.104
83.9117 -0.001
83.9419 -0.002
83.9722 0.154
84.0025 0.049
84.0328 0.100
84.0631 -0.005
84.0933 0.047
84.1236 0.203
84.1539 0.098
84.1842 0.306
84.2144 0.097
84.2447 0.097
84.2750 0.044
84.3053 -0.008
84.3356 -0.008
84.3658 -0.009
84.3961 -0.009
84.4264 0.095
84.4567 0.147
84.4870 0.147
84.5172 -0.009
84.5475 -0.009
84.5778 0.043
84.6081 0.252
84.6383 -0.009
84.6686 0.096
84.6989 0.044
84.7292 -0.060
84.7595 0.097
84.7897 0.097
84.8200 0.045
84.8503 -0.163
84.8806 0.098
84.9109 -0.057
84.9411 0.099
84.9714 0.100
85.0017 -0.003
85.0320 -0.003
85.0623 -0.054
85.0925 -0.105
85.1228 -0.001
85.1531 0.207
85.1834 -0.054
85.2136 -0.001
85.2439 -0.001
85.2742 -0.053
85.3045 -0.105
85.3348 -0.002
85.3650 -0.003
85.3953 -0.003
85.4256 0.257
85.4559 0.100
85.4862 0.099
85.5164 -0.058
85.5467 -0.006
85.5770 0.046
85.6073 0.358
85.6375 -0.111
85.6678 -0.007
85.6981 0.149
85.7284 0.044
85.7587 0.201
85.7889 0.200
85.8192 -0.060
85.8495 0.148
85.8798 -0.008
85.9101 -0.008
85.9403 -0.112
85.9706 0.044
86.0009 -0.007
86.0312 -0.007
86.0614 0.045
86.0917 0.202
86.1220 -0.058
86.1523 0.046
86.1826 0.047
86.2128 -0.005
86.2431 0.048
86.2734 -0.004
86.3037 -0.003
86.3340 0.206
86.3642 -0.054
86.3945 -0.210
86.4248 -0.002
86.4551 -0.003
86.4853 0.049
86.5156 -0.056
86.5459 0.152
86.5762 0.412
86.6065 -0.005
86.6367 -0.006
86.6670 -0.058
86.6973 0.046
86.7276 -0.007
86.7579 0.045
86.7881 0.045
86.8184 -0.007
86.8487 0.045
86.8790 -0.112
86.9092 0.097
86.9395 0.149
86.9698 0.045
87.0001 0.045
87.0304 -0.163
87.0606 0.045
87.0909 0.097
87.1212 0.202
87.1515 -0.058
87.1818 -0.006
87.2120 0.099
87.2423 0.047
87.2726 0.204
87.3029 -0.160
87.3331 0.205
87.3634 -0.003
87.3937 0.362
87.4240 0.311
87.4543 -0.001
87.4845 -0.104
87.5148 -0.001
87.5451 0.051
87.5754 -0.001
87.6057 0.102
87.6359 -0.106
87.6662 -0.002
87.6965 0.102
87.7268 0.049
87.7571 -0.003
87.7873 0.101
87.8176 0.205
87.8479 0.257
87.8782 -0.211
87.9084 0.258
87.9387 0.362
87.9690 -0.003
87.9993 -0.055
88.0296 0.154
88.0598 0.206
88.0901 -0.002
88.1204 -0.105
88.1507 -0.053
88.1810 -0.001
88.2112 -0.054
88.2415 0.051
88.2718 -0.054
88.3021 -0.001
88.3323 -0.001
88.3626 -0.001
88.3929 -0.157
88.4232 0.416
88.4535 0.000
88.4837 -0.104
88.5140 0.000
88.5443 -0.001
88.5746 0.103
88.6049 0.259
88.6351 0.155
88.6654 -0.001
88.6957 0.207
88.7260 -0.001
88.7562 -0.001
88.7865 -0.001
88.8168 -0.105
88.8471 -0.053
88.8774 0.051
88.9076 -0.002
88.9379 0.051
88.9682 0.259
88.9985 0.051
89.0288 -0.001
89.0590 0.259
89.0893 0.051
89.1196 0.208
89.1499 -0.105
89.1801 -0.104
89.2104 0.102
89.2407 0.049
89.2710 0.152
89.3013 -0.110
89.3315 0.045
89.3618 0.096
89.3921 0.042
89.4224 -0.115
89.4527 0.196
89.4829 -0.065
89.5132 -0.014
89.5435 0.089
89.5738 0.140
89.6040 0.087
89.6343 0.242
89.6646 0.189
89.6949 0.032
89.7252 -0.021
89.7554 -0.022
89.7857 -0.075
89.8160 -0.023
89.8463 0.080
89.8766 -0.024
89.9068 -0.025
89.9371 -0.025
89.9674 0.130
89.9977 0.026
90.0279 0.025
90.0582 -0.027
90.0885 -0.027
90.1188 -0.028
90.1491 0.180
90.1793 0.128
90.2096 0.024
90.2399 -0.028
90.2702 -0.028
90.3005 0.128
90.3307 0.180
90.3610 -0.080
90.3913 0.076
90.4216 0.389
90.4518 0.128
90.4821 -0.028
90.5124 -0.132
90.5427 0.025
90.5730 0.234
90.6032 0.183
90.6335 -0.077
90.6638 0.132
90.6941 0.081
90.7244 -0.126
90.7546 0.083
90.7849 -0.072
90.8152 0.085
90.8455 0.034
90.8758 0.348
90.9060 -0.016
90.9363 -0.067
90.9666 -0.065
90.9969 -0.012
91.0271 -0.063
91.0574 0.043
91.0877 -0.008
91.1180 0.150
91.1483 0.151
91.1785 -0.108
91.2088 0.206
91.2391 0.260
91.2694 0.314
91.2997 0.315
91.3299 0.109
91.3602 0.111
91.3905 0.008
91.4208 0.114
91.4510 0.012
91.4813 -0.090
91.5116 -0.090
91.5419 0.014
91.5722 0.222
91.6024 -0.143
91.6327 0.065
91.6630 0.013
91.6933 0.065
91.7236 0.169
91.7538 -0.092
91.7841 0.429
91.8144 0.065
91.8447 -0.039
91.8749 0.013
91.9052 0.013
91.9355 0.065
91.9658 -0.091
91.9961 -0.090
92.0263 -0.040
92.0566 -0.042
92.0869 -0.095
92.1172 0.007
92.1475 -0.151
92.1777 -0.048
92.2080 0.055
92.2383 0.001
92.2686 -0.052
92.2988 -0.158
92.3291 0.153
92.3594 -0.212
92.3897 0.203
92.4200 0.046
92.4502 0.097
92.4805 0.148
92.5108 0.042
92.5411 -0.011
92.5714 -0.064
92.6016 0.196
92.6319 -0.014
92.6622 0.090
92.6925 -0.015
92.7227 -0.016
92.7530 -0.017
92.7833 0.035
92.8136 -0.174
92.8439 -0.019
92.8741 0.085
92.9044 -0.020
92.9347 -0.020
92.9650 -0.021
92.9953 0.031
93.0255 0.135
93.0558 0.030
93.0861 0.134
93.1164 0.186
93.1466 -0.023
93.1769 -0.075
93.2072 -0.023
93.2375 -0.075
93.2678 0.081
93.2980 -0.127
93.3283 -0.075
93.3586 -0.023
93.3889 0.081
93.4192 -0.127
93.4494 -0.023
93.4797 -0.075
93.5100 -0.076
93.5403 -0.024
93.5706 -0.024
93.6008 0.028
93.6311 0.184
93.6614 -0.077
93.6917 -0.025
93.7219 0.184
93.7522 0.080
93.7825 -0.076
93.8128 -0.024
93.8431 0.184
93.8733 0.184
93.9036 0.133
93.9339 -0.128
93.9642 -0.023
93.9945 -0.127
94.0247 0.080
94.0550 0.026
94.0853 -0.027
94.1156 0.336
94.1458 -0.082
94.1761 -0.084
94.2064 0.280
94.2367 0.018
94.2670 -0.087
94.2972 -0.141
94.3275 0.171
94.3578 0.065
94.3881 0.012
94.4184 0.011
94.4486 0.010
94.4789 -0.043
94.5092 -0.096
94.5395 0.164
94.5697 -0.046
94.6000 0.058
94.6303 0.057
94.6606 0.213
94.6909 -0.048
94.7211 0.211
94.7514 -0.050
94.7817 0.158
94.8120 0.158
94.8423 -0.155
94.8725 -0.052
94.9028 -0.052
94.9331 -0.052
94.9634 -0.053
94.9936 0.051
95.0239 0.155
95.0542 0.155
95.0845 -0.053
95.1148 0.363
95.1450 0.155
95.1753 -0.158
95.2056 -0.001
95.2359 0.051
95.2662 0.051
95.2964 -0.053
95.3267 0.103
95.3570 -0.053
95.3873 -0.052
95.4175 -0.104
95.4478 -0.053
95.4781 -0.209
95.5084 0.311
95.5387 -0.054
95.5689 0.415
95.5992 -0.106
95.6295 0.050
95.6598 -0.054
95.6901 -0.054
95.7203 -0.002
95.7506 -0.054
95.7809 -0.054
95.8112 -0.002
95.8414 0.310
95.8717 0.050
95.9020 0.050
95.9323 -0.001
95.9626 0.103
95.9928 -0.053
96.0231 -0.053
96.0534 0.000
96.0837 0.157
96.1140 0.105
96.1442 -0.051
96.1745 -0.154
96.2048 0.159
96.2351 -0.153
96.2653 -0.101
96.2956 -0.102
96.3259 0.002
96.3562 0.262
96.3865 -0.051
96.4167 -0.103
96.4470 0.105
96.4773 -0.052
96.5076 -0.104
96.5379 -0.053
96.5681 0.050
96.5984 0.205
96.6287 0.360
96.6590 -0.110
96.6893 -0.059
96.7195 -0.060
96.7498 -0.009
96.7801 0.095
96.8104 -0.063
96.8406 0.041
96.8709 -0.168
96.9012 0.195
96.9315 0.038
96.9618 -0.066
96.9920 -0.015
97.0223 -0.015
97.0526 0.140
97.0829 0.296
97.1132 0.035
97.1434 0.295
97.1737 -0.122
97.2040 0.034
97.2343 0.086
97.2645 -0.071
97.2948 -0.019
97.3251 0.085
97.3554 0.137
97.3857 -0.071
97.4159 0.085
97.4462 0.033
97.4765 -0.071
97.5068 -0.071
97.5371 0.241
97.5673 0.085
97.5976 -0.019
97.6279 -0.018
97.6582 -0.018
97.6884 0.295
97.7187 -0.069
97.7490 0.035
97.7793 -0.173
97.8096 0.088
97.8398 -0.068
97.8701 0.089
97.9004 0.038
97.9307 -0.066
97.9610 -0.065
97.9912 0.300
98.0215 0.197
98.0518 0.094
98.0821 0.042
98.1123 0.200
98.1426 0.044
98.1729 0.045
98.2032 -0.058
98.2335 0.152
98.2637 0.153
98.2940 0.102
98.3243 0.103
98.3546 -0.104
98.3849 -0.053
98.4151 0.051
98.4454 -0.054
98.4757 -0.055
98.5060 0.205
98.5362 -0.004
98.5665 0.204
98.5968 -0.005
98.6271 -0.006
98.6574 0.046
98.6876 -0.006
98.7179 -0.111
98.7482 0.149
98.7785 -0.164
98.8088 0.201
98.8390 -0.112
98.8693 0.200
98.8996 -0.008
98.9299 0.200
98.9601 -0.008
98.9904 -0.112
99.0207 0.096
99.0510 0.305
99.0813 -0.060
99.1115 -0.060
99.1418 0.045
99.1721 -0.059
99.2024 0.098
99.2327 0.202
99.2629 -0.006
99.2932 -0.057
99.3235 0.308
99.3538 -0.004
99.3841 -0.004
99.4143 0.205
99.4446 -0.107
99.4749 -0.054
99.5052 0.207
99.5354 0.260
99.5657 -0.052
99.5960 0.001
99.6263 0.002
99.6566 -0.153
99.6868 0.053
99.7171 0.103
99.7474 -0.107
99.7777 -0.005
99.8080 -0.007
99.8382 -0.061
99.8685 -0.115
99.8988 0.248
99.9291 0.142
99.9593 0.140
99.9896 -0.122
100.0199 0.085
100.0502 0.187
100.0805 0.133
100.1107 -0.024
100.1410 -0.078
100.1713 -0.079
100.2016 0.023
100.2319 -0.082
100.2621 -0.084
100.2924 0.019
100.3227 0.174
100.3530 0.121
100.3832 0.068
100.4135 0.015
100.4438 -0.039
100.4741 -0.092
100.5044 0.324
100.5346 -0.042
100.5649 0.166
100.5952 -0.043
100.6255 -0.096
100.6558 0.215
100.6860 -0.098
100.7163 0.110
100.7466 -0.099
100.7769 -0.100
100.8071 0.160
100.8374 0.315
100.8677 -0.154
100.8980 -0.050
100.9283 0.158
100.9585 -0.103
100.9888 0.313
101.0191 0.105
101.0494 0.000
101.0797 0.104
101.1099 0.052
101.1402 -0.209
101.1705 0.104
101.2008 0.156
101.2310 -0.053
101.2613 -0.053
101.2916 0.052
101.3219 -0.052
101.3522 -0.052
101.3824 0.000
101.4127 0.000
101.4430 0.209
101.4733 -0.155
101.5036 0.157
101.5338 -0.103
101.5641 0.002
101.5944 -0.102
101.6247 0.263
101.6549 0.004
101.6852 0.108
101.7155 -0.047
101.7458 -0.099
101.7761 0.110
101.8063 -0.045
101.8366 0.060
101.8669 0.061
101.8972 0.166
101.9275 0.167
101.9577 -0.093
101.9880 0.117
102.0183 -0.091
102.0486 -0.090
102.0788 0.120
102.1091 0.173
102.1394 -0.034
102.1697 0.071
102.2000 -0.083
102.2302 0.022
102.2605 0.023
102.2908 0.077
102.3211 0.235
102.3514 0.184
102.3816 -0.127
102.4119 -0.073
102.4422 -0.072
102.4725 0.243
102.5028 0.088
102.5330 0.090
102.5633 -0.065
102.5936 0.093
102.6239 0.043
102.6541 0.253
102.6844 0.308
102.7147 -0.107
102.7450 0.051
102.7753 -0.051
102.8055 0.160
102.8358 0.214
102.8661 0.008
102.8964 0.218
102.9267 0.116
102.9569 -0.038
102.9872 0.069
103.0175 0.124
103.0478 0.178
103.0780 0.024
103.1083 0.027
103.1386 -0.179
103.1689 0.028
103.1992 -0.026
103.2294 0.076
103.2597 0.178
103.2900 -0.032
103.3203 -0.033
103.3506 -0.035
103.3808 0.120
103.4111 0.066
103.4414 0.117
103.4717 0.167
103.5019 0.166
103.5322 0.321
103.5625 0.059
103.5928 0.058
103.6231 -0.048
103.6533 -0.153
103.6836 0.106
103.7139 0.261
103.7442 -0.053
103.7745 0.206
103.8047 0.257
103.8350 0.255
103.8653 0.254
103.8956 -0.060
103.9258 0.043
103.9561 0.042
103.9864 -0.063
104.0167 0.144
104.0470 0.299
104.0772 0.142
104.1075 0.037
104.1378 0.193
104.1681 0.140
104.1984 0.035
104.2286 0.503
104.2589 -0.071
104.2892 0.137
104.3195 0.032
104.3497 0.031
104.3800 0.187
104.4103 -0.074
104.4406 -0.074
104.4709 -0.023
104.5011 0.029
104.5314 -0.023
104.5617 0.497
104.5920 0.132
104.6223 0.184
104.6525 0.340
104.6828 0.236
104.7131 -0.025
104.7434 0.288
104.7736 0.027
104.8039 0.392
104.8342 -0.025
104.8645 0.080
104.8948 0.444
104.9250 0.184
104.9553 0.080
104.9856 0.393
105.0159 0.133
105.0462 0.081
105.0764 0.134
105.1067 0.030
105.1370 0.239
105.1673 -0.021
105.1975 -0.073
105.2278 -0.020
105.2581 0.085
105.2884 -0.071
105.3187 -0.070
105.3489 0.243
105.3792 -0.068
105.4095 0.245
105.4398 0.090
105.4701 0.038
105.5003 0.300
105.5306 0.353
105.5609 0.146
105.5912 0.199
105.6215 -0.060
105.6517 0.201
105.6820 0.098
105.7123 0.204
105.7426 -0.055
105.7728 -0.002
105.8031 0.416
105.8334 0.261
105.8637 -0.102
105.8940 0.056
105.9242 0.266
105.9545 0.320
105.9848 0.269
106.0151 0.271
106.0454 0.116
106.0756 0.378
106.1059 0.432
106.1362 0.382
106.1665 0.228
106.1967 0.230
106.2270 0.127
106.2573 0.286
106.2876 0.027
106.3179 -0.231
106.3481 0.027
106.3784 0.232
106.4087 0.126
106.4390 0.384
106.4693 -0.088
106.4995 0.170
106.5298 0.480
106.5601 0.218
106.5904 0.059
106.6206 0.161
106.6509 0.159
106.6812 0.417
106.7115 0.154
106.7418 0.152
106.7720 0.410
106.8023 -0.008
106.8326 0.354
106.8629 0.092
106.8932 0.455
106.9234 -0.068
106.9537 0.138
106.9840 0.293
107.0143 -0.021
107.0445 0.029
107.0748 -0.025
107.1051 0.182
107.1354 0.232
107.1657 0.179
107.1959 -0.031
107.2262 0.228
107.2565 -0.034
107.2868 0.121
107.3171 0.172
107.3473 0.222
107.3776 0.430
107.4079 -0.040
107.4382 0.011
107.4684 0.061
107.4987 -0.044
107.5290 0.163
107.5593 0.371
107.5896 0.057
107.6198 0.056
107.6501 0.368
107.6804 -0.049
107.7107 0.262
107.7410 -0.207
107.7712 0.104
107.8015 -0.052
107.8318 0.311
107.8621 0.155
107.8923 0.258
107.9226 -0.055
107.9529 -0.055
107.9832 -0.056
108.0135 -0.056
108.0437 0.048
108.0740 0.308
108.1043 0.308
108.1346 -0.057
108.1649 0.255
108.1951 -0.005
108.2254 0.047
108.2557 -0.058
108.2860 0.046
108.3163 -0.006
108.3465 0.255
108.3768 0.151
108.4071 0.203
108.4374 0.047
108.4676 0.151
108.4979 -0.057
108.5282 -0.161
108.5585 0.152
108.5888 0.309
108.6190 -0.003
108.6493 -0.003
108.6796 -0.002
108.7099 -0.002
108.7402 -0.053
108.7704 -0.052
108.8007 0.052
108.8310 0.001
108.8613 0.575
108.8915 0.055
108.9218 0.108
108.9521 0.265
108.9824 -0.151
109.0127 0.058
109.0429 -0.045
109.0732 -0.044
109.1035 -0.147
109.1338 0.219
109.1641 0.272
109.1943 -0.039
109.2246 0.327
109.2549 0.016
109.2852 0.277
109.3154 0.018
109.3457 -0.032
109.3760 0.229
109.4063 0.179
109.4366 0.024
109.4668 0.130
109.4971 0.080
109.5274 -0.127
109.5577 -0.023
109.5880 0.081
109.6182 -0.180
109.6485 0.132
109.6788 0.132
109.7091 0.028
109.7393 0.080
109.7696 0.237
109.7999 -0.024
109.8302 -0.024
109.8605 0.029
109.8907 -0.023
109.9210 -0.023
109.9513 -0.023
109.9816 -0.023
110.0119 0.030
110.0421 0.082
110.0724 0.239
110.1027 0.031
110.1330 -0.020
110.1632 0.084
110.1935 0.345
110.2238 0.138
110.2541 0.034
110.2844 0.035
110.3146 0.140
110.3449 0.193
110.3752 0.090
110.4055 -0.014
110.4358 0.039
110.4660 -0.012
110.4963 0.198
110.5266 0.094
110.5569 0.304
110.5871 0.201
110.6174 0.202
110.6477 0.203
110.6780 0.205
110.7083 0.154
110.7385 0.051
110.7688 0.000
110.7991 -0.050
110.8294 -0.153
110.8597 0.107
110.8899 -0.050
110.9202 0.209
110.9505 0.156
110.9808 0.156
111.0110 0.103
111.0413 -0.002
111.0716 0.050
111.1019 0.049
111.1322 0.153
111.1624 -0.003
111.1927 0.413
111.2230 0.152
111.2533 0.204
111.2836 0.152
111.3138 -0.005
111.3441 -0.005
111.3744 0.255
111.4047 0.307
111.4350 -0.005
111.4652 0.203
111.4955 0.047
111.5258 -0.005
111.5561 -0.005
111.5863 0.047
111.6166 -0.004
111.6469 0.100
111.6772 0.100
111.7075 0.049
111.7377 0.153
111.7680 -0.055
111.7983 -0.054
111.8286 0.415
111.8589 -0.001
111.8891 -0.001
111.9194 -0.104
111.9497 -0.001
111.9800 0.205
112.0102 -0.004
112.0405 -0.006
112.0708 0.253
112.1011 0.356
112.1314 0.147
112.1616 0.041
112.1919 0.144
112.2222 0.039
112.2525 0.246
112.2828 0.193
112.3130 0.088
112.3433 -0.121
112.3736 -0.018
112.4039 -0.175
112.4341 0.189
112.4644 0.136
112.4947 0.031
112.5250 0.082
112.5553 0.342
112.5855 0.081
112.6158 0.497
112.6461 0.392
112.6764 0.027
112.7067 0.391
112.7369 -0.026
112.7672 0.130
112.7975 -0.078
112.8278 -0.079
112.8580 0.234
112.8883 0.285
112.9186 0.389
112.9489 -0.132
112.9792 0.389
113.0094 0.025
113.0397 0.077
113.0700 0.025
113.1003 -0.027
113.1306 0.025
113.1608 0.129
113.1911 0.077
113.2214 0.494
113.2517 0.078
113.2819 0.234
113.3122 0.131
113.3425 0.079
113.3728 0.184
113.4031 0.392
113.4333 0.185
113.4636 0.237
113.4939 0.030
113.5242 0.239
113.5545 0.239
113.5847 0.240
113.6150 -0.072
113.6453 0.033
113.6756 0.242
113.7058 0.191
113.7361 0.348
113.7664 0.037
113.7967 0.350
113.8270 -0.169
113.8572 0.196
113.8875 0.250
113.9178 -0.062
113.9481 0.096
113.9784 0.305
114.0086 0.046
114.0389 -0.004
114.0692 0.101
114.0995 0.051
114.1298 -0.104
114.1600 -0.054
114.1903 -0.159
114.2206 0.308
114.2509 0.151
114.2811 0.045
114.3114 0.409
114.3417 0.511
114.3720 0.094
114.4023 -0.012
114.4325 0.352
114.4628 0.142
114.4931 0.194
114.5234 0.349
114.5537 0.087
114.5839 0.035
114.6142 0.086
114.6445 -0.071
114.6748 -0.072
114.7050 0.552
114.7353 0.083
114.7656 0.030
114.7959 -0.023
114.8262 0.029
114.8564 0.133
114.8867 0.184
114.9170 0.444
114.9473 0.392
114.9776 0.027
115.0078 0.443
115.0381 0.026
115.0684 -0.026
115.0987 0.130
115.1289 0.286
115.1592 0.234
115.1895 0.182
115.2198 0.130
115.2501 0.078
115.2803 0.390
115.3106 0.026
115.3409 0.234
115.3712 0.130
115.4015 0.235
115.4317 0.027
115.4620 0.027
115.4923 0.444
115.5226 0.028
115.5528 0.080
115.5831 0.029
115.6134 -0.231
115.6437 0.027
115.6740 0.129
115.7042 0.023
115.7345 0.125
115.7648 0.071
115.7951 0.122
115.8254 0.068
115.8556 0.170
115.8859 -0.040
115.9162 0.167
115.9465 0.269
115.9767 0.215
116.0070 0.058
116.0373 0.264
116.0676 0.211
116.0979 0.157
116.1281 0.052
116.1584 0.050
116.1887 -0.107
116.2190 0.048
116.2493 0.307
116.2795 -0.111
116.3098 -0.008
116.3401 0.199
116.3704 0.094
116.4006 0.041
116.4309 0.405
116.4612 0.091
116.4915 0.403
116.5218 -0.171
116.5520 0.297
116.5823 0.088
116.6126 0.295
116.6429 0.191
116.6732 0.086
116.7034 0.137
116.7337 0.033
116.7640 0.032
116.7943 0.084
116.8245 0.187
116.8548 0.291
116.8851 0.134
116.9154 0.030
116.9457 0.238
116.9759 -0.283
117.0062 -0.023
117.0365 0.237
117.0668 0.394
117.0971 0.081
117.1273 0.029
117.1576 -0.179
117.1879 0.027
117.2182 0.285
117.2485 -0.029
117.2787 0.021
117.3090 -0.033
117.3393 0.017
117.3696 0.015
117.3998 -0.039
117.4301 0.220
117.4604 -0.042
117.4907 0.061
117.5210 -0.254
117.5512 0.161
117.5815 0.316
117.6118 0.054
117.6421 -0.103
117.6724 0.156
117.7026 -0.002
117.7329 -0.003
117.7632 -0.161
117.7935 0.307
117.8237 0.149
117.8540 0.200
117.8843 -0.061
117.9146 0.146
117.9449 0.041
117.9751 0.300
118.0054 -0.118
118.0357 0.090
118.0660 0.089
118.0963 0.297
118.1265 0.556
118.1568 0.139
118.1871 0.190
118.2174 0.398
118.2476 0.241
118.2779 0.032
118.3082 0.136
118.3385 -0.021
118.3688 0.031
118.3990 0.134
118.4293 -0.022
118.4596 0.134
118.4899 -0.023
118.5202 -0.023
118.5504 0.237
118.5807 0.601
118.6110 -0.076
118.6413 0.132
118.6715 0.185
118.7018 -0.024
118.7321 0.028
118.7624 0.080
118.7927 0.081
118.8229 -0.128
118.8532 -0.026
118.8835 0.336
118.9138 -0.030
118.9441 0.019
118.9743 0.277
119.0046 0.275
119.0349 -0.196
119.0652 0.063
119.0954 -0.044
119.1257 0.111
119.1560 0.109
119.1863 0.211
119.2166 0.053
119.2468 -0.053
119.2771 0.362
119.3074 -0.057
119.3377 -0.007
119.3680 -0.112
119.3982 -0.062
119.4285 -0.116
119.4588 -0.013
119.4891 0.142
119.5193 0.036
119.5496 0.243
119.5799 -0.019
119.6102 -0.020
119.6405 -0.074
119.6707 0.185
119.7010 0.080
119.7313 0.131
119.7616 -0.079
119.7919 0.128
119.8221 -0.185
119.8524 0.283
119.8827 0.021
119.9130 0.124
119.9433 -0.137
119.9735 -0.138
120.0038 0.000
