'Id: "" Comment: "" Operator: "Lab Manager" Anode: "Cu" Scantype: "Locked Coupled" TimePerStep: "19.2" X: "9999" Y: "9999" Z: "9999" 
10.0015 0.000
10.0318 -0.702
10.0620 0.184
10.0923 -0.440
10.1226 -0.439
10.1529 -0.057
10.1832 -0.092
10.2134 -0.126
10.2437 0.882
10.2740 -0.141
10.3043 0.659
10.3346 -0.884
10.3648 0.229
10.3951 -0.688
10.4254 0.582
10.4557 -0.647
10.4859 -0.470
10.5162 0.802
10.5465 -0.583
10.5768 0.273
10.6071 0.452
10.6373 -0.098
10.6676 0.862
10.6979 0.209
10.7282 0.181
10.7585 -0.263
10.7887 0.230
10.8190 0.568
10.8493 -0.188
10.8796 -0.266
10.9098 -0.032
10.9401 1.193
10.9704 0.647
11.0007 0.882
11.0310 1.431
11.0612 1.198
11.0915 0.446
11.1218 0.943
11.1521 -0.017
11.1824 1.262
11.2126 0.771
11.2429 1.322
11.2732 0.311
11.3035 0.238
11.3337 0.790
11.3640 0.457
11.3943 -0.084
11.4246 -0.416
11.4549 0.098
11.4851 0.977
11.5154 -0.019
11.5457 1.017
11.5760 0.543
11.6063 0.799
11.6365 0.169
11.6668 1.050
11.6971 0.473
11.7274 0.678
11.7577 0.258
11.7879 0.047
11.8182 0.357
11.8485 0.199
11.8788 0.457
11.9090 0.508
11.9393 0.195
11.9696 0.194
11.9999 -0.223
12.0302 -0.379
12.0604 -0.172
12.0907 0.035
12.1210 0.399
12.1513 1.075
12.1816 0.763
12.2118 0.138
12.2421 -0.070
12.2724 0.088
12.3027 -0.172
12.3329 0.559
12.3632 0.093
12.3935 0.356
12.4238 -0.058
12.4541 -0.055
12.4843 0.574
12.5146 0.578
12.5449 -0.147
12.5752 0.118
12.6055 -0.190
12.6357 0.024
12.6660 0.394
12.6963 0.609
12.7266 0.615
12.7568 0.674
12.7871 0.108
12.8174 0.064
12.8477 0.697
12.8780 0.393
12.9082 0.193
12.9385 0.775
12.9688 -0.205
12.9991 -0.143
13.0294 0.804
13.0596 0.659
13.0899 0.565
13.1202 0.681
13.1505 0.796
13.1807 -0.077
13.2110 -0.117
13.2413 -0.365
13.2716 -0.258
13.3019 0.839
13.3321 0.373
13.3624 1.054
13.3927 0.746
13.4230 0.437
13.4533 0.286
13.4835 -0.126
13.5138 0.297
13.5441 -0.062
13.5744 1.350
13.6046 0.263
13.6349 1.416
13.6652 -0.191
13.6955 0.441
13.7258 -0.124
13.7560 0.353
13.7863 0.466
13.8166 0.788
13.8469 -0.296
13.8772 1.328
13.9074 0.192
13.9377 0.463
13.9680 0.214
13.9983 -0.400
14.0285 0.341
14.0588 -0.064
14.0891 -0.416
14.1194 0.098
14.1497 0.299
14.1799 -0.020
14.2102 0.651
14.2405 -0.241
14.2708 0.691
14.3011 -0.043
14.3313 0.473
14.3616 1.146
14.3919 0.777
14.4222 0.513
14.4524 0.093
14.4827 0.663
14.5130 0.400
14.5433 0.554
14.5736 0.135
14.6038 0.342
14.6341 1.434
14.6644 -0.077
14.6947 -0.390
14.7250 0.118
14.7552 -0.467
14.7855 0.979
14.8158 0.290
14.8461 0.435
14.8764 -0.254
14.9066 -0.317
14.9369 0.402
14.9672 -0.493
14.9975 -0.295
15.0277 0.217
15.0580 -0.625
15.0883 0.043
15.1186 -0.121
15.1489 0.183
15.1791 -0.866
15.2094 0.742
15.2397 0.318
15.2700 -0.313
15.3003 0.045
15.3305 0.300
15.3608 0.555
15.3911 -0.335
15.4214 0.285
15.4516 0.177
15.4819 -0.140
15.5122 0.638
15.5425 -0.042
15.5728 0.164
15.6030 0.369
15.6333 0.784
15.6636 -0.103
15.6939 0.208
15.7242 -0.001
15.7544 -0.210
15.7847 -0.054
15.8150 1.561
15.8453 -0.105
15.8755 -0.365
15.9058 -0.468
15.9361 0.416
15.9664 0.570
15.9967 0.204
16.0269 -0.057
16.0572 -0.318
16.0875 0.099
16.1178 0.151
16.1481 0.516
16.1783 0.361
16.2086 -0.263
16.2389 -0.366
16.2692 -0.572
16.2994 0.420
16.3297 -0.568
16.3600 0.216
16.3903 -0.041
16.4206 -0.142
16.4508 0.487
16.4811 -0.967
16.5114 0.652
16.5417 -0.750
16.5720 -0.015
16.6022 -0.218
16.6325 -0.368
16.6628 0.003
16.6931 -0.042
16.7233 0.486
16.7536 0.337
16.7839 0.293
16.8142 0.406
16.8445 0.623
16.8747 -0.045
16.9050 0.016
16.9353 0.287
16.9656 0.141
16.9959 0.151
17.0261 0.110
17.0564 0.069
17.0867 0.550
17.1170 0.041
17.1472 1.303
17.1775 0.483
17.2078 -0.442
17.2381 -0.439
17.2684 0.919
17.2986 0.141
17.3289 -0.167
17.3592 0.254
17.3895 -0.054
17.4198 0.628
17.4500 0.113
17.4803 0.848
17.5106 0.020
17.5409 0.652
17.5712 0.763
17.6014 1.031
17.6317 -0.264
17.6620 0.890
17.6923 0.899
17.7225 0.282
17.7528 0.448
17.7831 0.353
17.8134 -0.106
17.8437 0.009
17.8739 -0.345
17.9042 -0.091
17.9345 0.632
17.9648 0.887
17.9951 -0.316
18.0253 0.564
18.0556 0.039
18.0859 0.243
18.1162 0.344
18.1464 0.393
18.1767 0.442
18.2070 0.283
18.2373 0.176
18.2676 -0.242
18.2978 0.590
18.3281 -0.557
18.3584 0.067
18.3887 0.066
18.4190 0.379
18.4492 -0.298
18.4795 -0.349
18.5098 -0.349
18.5401 -0.041
18.5703 0.216
18.6006 -0.257
18.6309 0.209
18.6612 0.102
18.6915 -0.056
18.7217 -0.267
18.7520 0.201
18.7823 -0.269
18.8126 0.355
18.8429 0.250
18.8731 0.510
18.9034 -0.531
18.9337 -0.010
18.9640 -0.165
18.9942 0.357
19.0245 -0.110
19.0548 0.049
19.0851 0.624
19.1154 0.210
19.1456 0.109
19.1759 0.061
19.2062 -0.248
19.2365 0.537
19.2668 0.334
19.2970 0.391
19.3273 0.292
19.3576 0.193
19.3879 0.304
19.4181 -0.054
19.4484 -0.412
19.4787 0.428
19.5090 -0.345
19.5393 -0.394
19.5695 0.444
19.5998 0.396
19.6301 0.609
19.6604 0.146
19.6907 -0.422
19.7209 0.366
19.7512 0.320
19.7815 -0.246
19.8118 0.698
19.8420 -0.076
19.8723 0.192
19.9026 -0.529
19.9329 1.042
19.9632 0.270
19.9934 0.488
20.0237 0.081
20.0540 -0.014
20.0843 0.413
20.1146 -0.097
20.1448 0.018
20.1751 0.342
20.2054 0.406
20.2357 0.731
20.2659 0.014
20.2962 -0.390
20.3265 0.017
20.3568 -0.097
20.3871 0.363
20.4173 0.146
20.4476 -0.436
20.4779 0.650
20.5082 -0.348
20.5385 0.114
20.5687 0.471
20.5990 0.256
20.6293 0.094
20.6596 0.244
20.6899 0.186
20.7201 -0.756
20.7504 0.072
20.7807 -0.141
20.8110 0.063
20.8412 0.060
20.8715 0.212
20.9018 0.209
20.9321 0.363
20.9624 0.361
20.9926 0.775
21.0229 -0.372
21.0532 -0.269
21.0835 -0.062
21.1138 -0.323
21.1440 0.302
21.1743 0.459
21.2046 -0.322
21.2349 -0.321
21.2651 -0.059
21.2954 0.411
21.3257 -0.212
21.3560 0.624
21.3863 -0.727
21.4165 -0.255
21.4468 0.165
21.4771 -0.144
21.5074 0.642
21.5377 0.073
21.5679 0.287
21.5982 0.136
21.6285 0.194
21.6588 -0.009
21.6890 0.154
21.7193 0.473
21.7496 -0.353
21.7799 -0.033
21.8102 -0.390
21.8404 0.081
21.8707 0.188
21.9010 0.086
21.9313 -0.171
21.9616 0.665
21.9918 -0.321
22.0221 -0.056
22.0524 0.730
22.0827 0.735
22.1129 0.740
22.1432 0.224
22.1735 0.751
22.2038 0.080
22.2341 0.400
22.2643 0.094
22.2946 0.466
22.3249 0.005
22.3552 -0.143
22.3855 0.855
22.4157 0.916
22.4460 -0.481
22.4763 -0.263
22.5066 0.163
22.5368 0.382
22.5671 0.080
22.5974 0.091
22.6277 -0.054
22.6580 0.792
22.6882 0.075
22.7185 -0.225
22.7488 -0.317
22.7791 -0.277
22.8094 0.389
22.8396 0.325
22.8699 0.314
22.9002 -0.269
22.9305 0.398
22.9607 0.596
22.9910 0.534
23.0213 0.057
23.0516 0.100
23.0819 -0.325
23.1121 -0.229
23.1424 0.284
23.1727 0.225
23.2030 0.010
23.2333 0.160
23.2635 -0.784
23.2938 0.304
23.3241 0.351
23.3544 0.919
23.3846 0.237
23.4149 0.129
23.4452 0.906
23.4755 0.277
23.5058 -0.403
23.5360 0.272
23.5663 0.269
23.5966 0.215
23.6269 0.422
23.6572 -0.257
23.6874 0.159
23.7177 0.731
23.7480 0.731
23.7783 0.106
23.8086 0.054
23.8388 0.159
23.8691 0.317
23.8994 -0.046
23.9297 0.320
23.9599 0.583
23.9902 -0.300
24.0205 0.172
24.0508 -0.137
24.0811 -0.081
24.1113 -0.650
24.1416 0.129
24.1719 0.701
24.2022 -0.029
24.2325 0.074
24.2627 0.386
24.2930 -0.239
24.3233 0.178
24.3536 -0.237
24.3838 0.076
24.4141 -0.131
24.4444 0.027
24.4747 0.186
24.5050 -0.176
24.5352 -0.329
24.5655 0.076
24.5958 -0.142
24.6261 -0.204
24.6564 0.411
24.6866 0.454
24.7169 0.393
24.7472 -0.033
24.7775 -0.041
24.8077 0.264
24.8380 0.152
24.8683 -0.324
24.8986 0.086
24.9289 0.288
24.9591 -0.343
24.9894 -0.036
25.0197 0.115
25.0500 0.526
25.0803 0.209
25.1105 -0.524
25.1408 0.305
25.1711 0.146
25.2014 0.038
25.2316 0.140
25.2619 -0.175
25.2922 -0.386
25.3225 0.446
25.3528 0.132
25.3830 -0.025
25.4133 0.235
25.4436 0.026
25.4739 -0.182
25.5042 -0.546
25.5344 0.231
25.5647 -0.085
25.5950 -0.141
25.6253 -0.717
25.6555 0.217
25.6858 -0.306
25.7161 0.004
25.7464 0.002
25.7767 -0.364
25.8069 0.052
25.8372 0.051
25.8675 0.311
25.8978 -0.210
25.9281 0.312
25.9583 -0.156
25.9886 -0.468
26.0189 0.208
26.0492 -0.314
26.0794 0.467
26.1097 0.154
26.1400 0.207
26.1703 0.416
26.2006 0.312
26.2308 0.210
26.2611 -0.258
26.2914 -0.256
26.3217 0.268
26.3520 -0.407
26.3822 0.065
26.4125 0.017
26.4428 0.021
26.4731 0.598
26.5034 0.654
26.5336 -0.122
26.5639 0.092
26.5942 0.202
26.6245 -0.313
26.6547 0.058
26.6850 -0.144
26.7153 -0.189
26.7456 -0.338
26.7759 -0.131
26.8061 -0.029
26.8364 0.022
26.8667 0.333
26.8970 0.176
26.9273 0.124
26.9575 0.436
26.9878 0.176
27.0181 0.593
27.0484 0.490
27.0786 0.231
27.1089 0.285
27.1392 -0.546
27.1695 -0.251
27.1998 0.252
27.2300 1.016
27.2603 -0.043
27.2906 0.982
27.3209 0.393
27.3512 -0.039
27.3814 0.049
27.4117 0.139
27.4420 -0.085
27.4723 0.370
27.5025 -0.217
27.5328 0.290
27.5631 0.485
27.5934 0.368
27.6237 -0.061
27.6539 0.187
27.6842 -0.345
27.7145 -0.253
27.7448 0.205
27.7751 -0.795
27.8053 0.080
27.8356 -0.087
27.8659 -0.669
27.8962 0.207
27.9264 0.302
27.9567 0.346
27.9870 -0.183
28.0173 0.330
28.0476 0.635
28.0778 0.055
28.1081 0.569
28.1384 0.459
28.1687 0.349
28.1990 0.135
28.2292 0.859
28.2595 0.489
28.2898 -0.453
28.3201 1.157
28.3503 -0.253
28.3806 0.734
28.4109 0.626
28.4412 -0.262
28.4715 -0.368
28.5017 0.243
28.5320 0.073
28.5623 0.373
28.5926 0.517
28.6229 0.400
28.6531 0.024
28.6834 0.533
28.7137 0.730
28.7440 0.511
28.7742 0.240
28.8045 0.230
28.8348 0.064
28.8651 0.940
28.8954 -0.214
28.9256 -0.379
28.9559 0.119
28.9862 -0.163
29.0165 -0.341
29.0468 -0.362
29.0770 0.137
29.1073 0.429
29.1376 0.253
29.1679 -0.080
29.1981 0.474
29.2284 0.455
29.2587 -0.345
29.2890 -0.885
29.3193 0.384
29.3495 0.663
29.3798 0.109
29.4101 0.337
29.4404 -0.685
29.4707 -0.197
29.5009 -0.072
29.5312 -0.259
29.5615 -0.134
29.5918 0.252
29.6221 0.482
29.6523 -0.120
29.6826 0.371
29.7129 0.290
29.7432 -0.468
29.7734 -0.240
29.8037 0.979
29.8340 0.271
29.8643 0.240
29.8946 -0.885
29.9248 -0.189
29.9551 0.246
29.9854 0.005
30.0157 0.129
30.0460 -0.216
30.0762 -0.039
30.1065 -1.008
30.1368 0.471
30.1671 1.118
30.1973 0.202
30.2276 0.588
30.2579 0.663
30.2882 0.425
30.3185 0.553
30.3487 0.368
30.3790 -0.077
30.4093 0.000
30.4396 1.014
30.4699 1.716
30.5001 0.335
30.5304 0.152
30.5607 0.960
30.5910 0.361
30.6212 -0.185
30.6515 1.926
30.6818 2.839
30.7121 0.835
30.7424 2.009
30.7726 2.507
30.8029 2.275
30.8332 1.836
30.8635 3.272
30.8938 4.604
30.9240 3.645
30.9543 4.614
30.9846 3.916
31.0149 4.312
31.0451 3.771
31.0754 7.241
31.1057 6.440
31.1360 7.515
31.1663 8.121
31.1965 9.665
31.2268 8.814
31.2571 11.921
31.2874 13.987
31.3177 15.637
31.3479 16.454
31.3782 21.230
31.4085 22.776
31.4388 27.448
31.4690 28.006
31.4993 33.981
31.5296 35.425
31.5599 39.474
31.5902 42.533
31.6204 47.884
31.6507 44.903
31.6810 41.817
31.7113 43.472
31.7416 38.512
31.7718 35.115
31.8021 29.584
31.8324 24.469
31.8627 22.896
31.8929 20.178
31.9232 19.803
31.9535 14.221
31.9838 12.442
32.0141 12.277
32.0443 8.050
32.0746 8.459
32.1049 6.941
32.1352 5.215
32.1655 5.469
32.1957 5.411
32.2260 5.196
32.2563 3.993
32.2866 2.894
32.3169 2.525
32.3471 2.364
32.3774 3.193
32.4077 1.835
32.4380 3.759
32.4682 1.620
32.4985 1.409
32.5288 1.616
32.5591 1.457
32.5894 0.570
32.6196 -0.316
32.6499 0.777
32.6802 0.307
32.7105 1.037
32.7408 0.828
32.7710 0.360
32.8013 0.830
32.8316 -0.210
32.8619 0.573
32.8921 0.210
32.9224 -0.881
32.9527 -0.045
32.9830 -0.510
33.0133 1.212
33.0435 -0.399
33.0738 0.074
33.1041 -0.598
33.1344 -0.044
33.1647 -0.061
33.1949 0.025
33.2252 0.685
33.2555 0.148
33.2858 0.392
33.3160 1.313
33.3463 0.777
33.3766 0.501
33.4069 0.486
33.4372 0.107
33.4674 -0.168
33.4977 1.016
33.5280 1.315
33.5583 0.365
33.5886 0.612
33.6188 -0.181
33.6491 1.265
33.6794 1.566
33.7097 1.867
33.7399 1.752
33.7702 1.794
33.8005 2.460
33.8308 4.742
33.8611 4.472
33.8913 4.203
33.9216 6.277
33.9519 7.415
33.9822 8.449
34.0125 8.076
34.0427 10.673
34.0730 14.260
34.1033 19.254
34.1336 19.456
34.1638 24.346
34.1941 33.038
34.2244 38.346
34.2547 49.070
34.2850 59.378
34.3152 55.520
34.3455 51.350
34.3758 42.909
34.4061 39.677
34.4364 31.862
34.4666 22.328
34.4969 18.681
34.5272 14.304
34.5575 10.084
34.5877 9.667
34.6180 7.896
34.6483 8.990
34.6786 5.500
34.7089 4.824
34.7391 6.075
34.7694 3.629
34.7997 4.151
34.8300 4.779
34.8603 3.167
34.8905 2.649
34.9208 2.860
34.9511 2.395
34.9814 4.014
35.0116 2.664
35.0419 4.075
35.0722 2.257
35.1025 2.940
35.1328 4.039
35.1630 3.473
35.1933 3.583
35.2236 3.903
35.2539 2.868
35.2842 3.032
35.3144 3.926
35.3447 3.934
35.3750 5.037
35.4053 6.140
35.4356 5.524
35.4658 4.492
35.4961 7.263
35.5264 6.492
35.5567 9.732
35.5869 9.275
35.6172 11.995
35.6475 12.632
35.6778 13.269
35.7081 15.053
35.7383 15.743
35.7686 19.715
35.7989 19.937
35.8292 26.878
35.8595 29.497
35.8897 31.700
35.9200 36.194
35.9503 40.116
35.9806 50.601
36.0108 53.117
36.0411 61.259
36.0714 66.484
36.1017 70.252
36.1320 68.759
36.1622 69.507
36.1925 68.119
36.2228 59.909
36.2531 57.480
36.2834 50.365
36.3136 43.353
36.3439 37.801
36.3742 32.665
36.4045 27.947
36.4347 24.896
36.4650 20.647
36.4953 16.867
36.5256 16.264
36.5559 13.110
36.5861 11.154
36.6164 11.230
36.6467 10.421
36.6770 8.883
36.7073 8.543
36.7375 7.995
36.7678 5.573
36.7981 6.015
36.8284 5.208
36.8586 5.079
36.8889 3.960
36.9192 3.571
36.9495 2.817
36.9798 3.418
37.0100 1.936
37.0403 1.288
37.0706 1.421
37.1009 0.669
37.1312 1.793
37.1614 2.344
37.1917 1.125
37.2220 1.833
37.2523 1.447
37.2825 1.062
37.3128 1.719
37.3431 0.814
37.3734 0.222
37.4037 0.672
37.4339 1.539
37.4642 0.062
37.4945 0.201
37.5248 1.225
37.5551 -0.250
37.5853 0.722
37.6156 0.237
37.6459 1.628
37.6762 0.154
37.7064 0.763
37.7367 0.384
37.7670 0.109
37.7973 0.459
37.8276 0.758
37.8578 -0.141
37.8881 0.315
37.9184 -0.896
37.9487 -0.179
37.9790 0.017
38.0092 0.058
38.0395 -0.110
38.0698 0.348
38.1001 0.963
38.1304 -0.558
38.1606 0.266
38.1909 0.256
38.2212 -0.222
38.2515 -0.178
38.2817 0.126
38.3120 0.118
38.3423 0.319
38.3726 0.468
38.4029 -0.268
38.4331 -0.379
38.4634 0.221
38.4937 0.613
38.5240 -0.557
38.5543 -0.372
38.5845 0.268
38.6148 -0.342
38.6451 0.142
38.6754 -0.207
38.7056 -0.139
38.7359 0.242
38.7662 -0.106
38.7965 -0.349
38.8268 0.137
38.8570 -0.053
38.8873 -0.035
38.9176 0.349
38.9479 -0.674
38.9782 0.126
39.0084 -0.166
39.0387 0.270
39.0690 -0.022
39.0993 0.156
39.1295 0.906
39.1598 -0.375
39.1901 0.481
39.2204 -0.591
39.2507 0.369
39.2809 0.132
39.3112 0.416
39.3415 -0.290
39.3718 -0.057
39.4021 0.488
39.4323 -0.737
39.4626 0.069
39.4929 0.043
39.5232 -0.192
39.5534 0.043
39.5837 0.278
39.6140 0.565
39.6443 1.166
39.6746 0.412
39.7048 -0.028
39.7351 -0.312
39.7654 -0.311
39.7957 0.681
39.8260 0.111
39.8562 0.322
39.8865 0.533
39.9168 0.433
39.9471 -0.292
39.9773 0.597
40.0076 0.706
40.0379 0.399
40.0682 0.561
40.0985 0.045
40.1287 -0.469
40.1590 0.475
40.1893 0.013
40.2196 0.489
40.2499 0.601
40.2801 -0.016
40.3104 -0.581
40.3407 0.417
40.3710 0.374
40.4012 0.019
40.4315 0.394
40.4618 0.456
40.4921 0.258
40.5224 -0.043
40.5526 0.437
40.5829 -0.177
40.6132 -0.217
40.6435 -0.205
40.6738 0.069
40.7040 0.030
40.7343 0.199
40.7646 0.109
40.7949 0.540
40.8251 0.398
40.8554 0.465
40.8857 0.116
40.9160 -0.337
40.9463 -0.083
40.9765 -0.610
41.0068 0.270
41.0371 0.317
41.0674 -0.261
41.0977 0.099
41.1279 -0.113
41.1582 -0.117
41.1885 -0.224
41.2188 0.085
41.2491 -0.126
41.2793 0.028
41.3096 0.183
41.3399 0.337
41.3702 -0.132
41.4004 0.440
41.4307 -0.134
41.4610 -0.290
41.4913 0.122
41.5216 0.223
41.5518 -0.354
41.5821 0.633
41.6124 -0.099
41.6427 -0.206
41.6730 -0.104
41.7032 -0.001
41.7335 -0.107
41.7638 0.100
41.7941 0.412
41.8243 0.152
41.8546 0.464
41.8849 0.048
41.9152 0.101
41.9455 -0.002
41.9757 -0.157
42.0060 0.158
42.0363 0.160
42.0666 0.111
42.0969 0.062
42.1271 0.117
42.1574 0.121
42.1877 0.698
42.2180 0.598
42.2482 0.291
42.2785 0.348
42.3088 -0.376
42.3391 0.099
42.3694 -0.415
42.3996 -0.047
42.4299 0.166
42.4602 0.275
42.4905 0.645
42.5208 -0.078
42.5510 0.084
42.5813 0.194
42.6116 0.930
42.6419 -0.156
42.6721 0.268
42.7024 0.276
42.7327 -0.185
42.7630 -0.280
42.7933 0.020
42.8235 0.477
42.8538 -0.056
42.8841 0.610
42.9144 -0.234
42.9447 0.277
42.9749 0.111
43.0052 -0.107
43.0355 0.717
43.0658 -0.230
43.0960 0.126
43.1263 0.431
43.1566 0.266
43.1869 -0.314
43.2172 0.044
43.2474 -0.588
43.2777 0.187
43.3080 0.129
43.3383 -0.554
43.3686 0.170
43.3988 0.061
43.4291 0.056
43.4594 0.469
43.4897 -0.264
43.5199 0.253
43.5502 0.302
43.5805 0.664
43.6108 -0.224
43.6411 -0.070
43.6713 -0.123
43.7016 0.240
43.7319 -0.126
43.7622 -0.074
43.7925 -0.387
43.8227 0.186
43.8530 0.083
43.8833 0.396
43.9136 0.606
43.9439 0.868
43.9741 0.297
44.0044 0.299
44.0347 0.198
44.0650 -0.476
44.0952 0.621
44.1255 0.052
44.1558 -0.256
44.1861 0.217
44.2164 -0.038
44.2466 0.279
44.2769 0.025
44.3072 0.447
44.3375 -0.171
44.3678 0.096
44.3980 0.155
44.4283 0.111
44.4586 0.014
44.4889 0.752
44.5191 0.343
44.5494 0.248
44.5797 0.101
44.6100 0.476
44.6403 0.069
44.6705 -0.285
44.7008 -0.033
44.7311 0.637
44.7614 0.213
44.7917 0.259
44.8219 0.825
44.8522 0.350
44.8825 0.501
44.9128 0.027
44.9430 -0.238
44.9733 0.122
45.0036 0.066
45.0339 0.114
45.0642 0.215
45.0944 -0.309
45.1247 0.313
45.1550 -0.002
45.1853 0.205
45.2156 0.776
45.2458 0.462
45.2761 -0.372
45.3064 0.148
45.3367 0.825
45.3669 0.148
45.3972 0.201
45.4275 -0.163
45.4578 0.464
45.4881 0.518
45.5183 -0.001
45.5486 -0.363
45.5789 0.030
45.6092 0.736
45.6395 1.338
45.6697 0.638
45.7000 0.564
45.7303 0.543
45.7606 0.417
45.7908 0.761
45.8211 -0.302
45.8514 -0.270
45.8817 0.231
45.9120 -0.205
45.9422 0.193
45.9725 0.226
46.0028 0.572
46.0331 -0.071
46.0634 -0.089
46.0936 0.050
46.1239 0.710
46.1542 0.381
46.1845 0.625
46.2147 0.245
46.2450 0.438
46.2753 0.318
46.3056 -0.217
46.3359 -0.180
46.3661 -0.194
46.3964 0.782
46.4267 0.561
46.4570 0.183
46.4873 1.056
46.5175 0.783
46.5478 0.511
46.5781 0.083
46.6084 0.645
46.6386 1.207
46.6689 1.196
46.6992 1.551
46.7295 1.697
46.7598 2.001
46.7900 1.783
46.8203 1.723
46.8506 1.350
46.8809 1.863
46.9112 2.532
46.9414 1.952
46.9717 2.727
47.0020 3.554
47.0323 2.923
47.0626 4.584
47.0928 5.203
47.1231 4.521
47.1534 6.184
47.1837 7.221
47.2139 8.155
47.2442 8.776
47.2745 8.617
47.3048 12.989
47.3351 13.872
47.3653 11.683
47.3956 14.233
47.4259 14.284
47.4562 13.293
47.4865 14.647
47.5167 12.563
47.5470 10.480
47.5773 10.897
47.6076 8.294
47.6378 6.993
47.6681 6.162
47.6984 4.809
47.7287 4.447
47.7590 4.658
47.7892 3.828
47.8195 3.310
47.8498 3.210
47.8801 3.058
47.9104 2.073
47.9406 1.817
47.9709 1.666
48.0012 1.151
48.0315 1.678
48.0617 0.539
48.0920 0.597
48.1223 1.334
48.1526 -0.013
48.1829 1.193
48.2131 0.784
48.2434 -0.249
48.2737 0.437
48.3040 0.394
48.3343 0.039
48.3645 0.310
48.3948 -0.201
48.4251 0.122
48.4554 0.550
48.4856 -0.063
48.5159 -0.051
48.5462 -0.196
48.5765 -0.027
48.6068 -0.587
48.6370 0.208
48.6673 0.430
48.6976 -0.546
48.7279 -0.271
48.7582 -0.048
48.7884 0.019
48.8187 0.451
48.8490 0.363
48.8793 -0.090
48.9095 0.135
48.9398 -0.941
48.9701 -0.039
49.0004 0.187
49.0307 0.101
49.0609 -0.245
49.0912 -0.226
49.1215 -0.520
49.1518 0.274
49.1821 0.026
49.2123 0.769
49.2426 0.991
49.2729 -0.141
49.3032 0.081
49.3334 -0.268
49.3637 0.007
49.3940 -0.551
49.4243 0.090
49.4546 0.263
49.4848 -0.242
49.5151 0.661
49.5454 0.365
49.5757 0.122
49.6060 0.140
49.6362 -0.102
49.6665 0.282
49.6968 -0.324
49.7271 0.060
49.7574 -1.014
49.7876 -0.028
49.8179 0.646
49.8482 -0.033
49.8785 0.069
49.9087 -0.141
49.9390 0.431
49.9693 0.065
49.9996 0.377
50.0299 0.950
50.0601 0.533
50.0904 0.013
50.1207 0.014
50.1510 0.223
50.1813 -0.348
50.2115 -0.138
50.2418 -0.291
50.2721 0.545
50.3024 0.079
50.3326 -0.022
50.3629 0.503
50.3932 0.767
50.4235 -0.009
50.4538 -0.213
50.4840 -0.207
50.5143 0.163
50.5446 0.169
50.5749 0.331
50.6052 0.338
50.6354 0.345
50.6657 0.144
50.6960 0.152
50.7263 0.733
50.7565 0.742
50.7868 0.021
50.8171 0.395
50.8474 0.301
50.8777 1.144
50.9079 0.686
50.9382 0.853
50.9685 -0.490
50.9988 -0.271
51.0291 0.191
51.0593 -0.024
51.0896 0.074
51.1199 0.433
51.1502 0.323
51.1804 0.578
51.2107 0.469
51.2410 0.361
51.2713 0.044
51.3016 0.666
51.3318 -0.171
51.3621 -0.226
51.3924 0.396
51.4227 0.290
51.4530 -0.129
51.4832 0.755
51.5135 0.546
51.5438 -0.497
51.5741 0.180
51.6043 0.284
51.6346 -0.236
51.6649 -0.131
51.6952 0.286
51.7255 -0.546
51.7557 -0.238
51.7860 0.017
51.8163 0.013
51.8466 -0.512
51.8769 0.317
51.9071 0.418
51.9374 0.102
51.9677 0.516
51.9980 0.305
52.0282 0.512
52.0585 0.562
52.0888 -0.481
52.1191 -0.013
52.1494 -0.066
52.1796 0.663
52.2099 0.455
52.2402 -0.117
52.2705 0.144
52.3008 0.666
52.3310 -0.061
52.3613 0.253
52.3916 0.360
52.4219 0.154
52.4521 -0.520
52.4824 -0.113
52.5127 0.347
52.5430 0.286
52.5733 -0.243
52.6035 0.061
52.6338 -0.259
52.6641 0.359
52.6944 0.716
52.7247 0.032
52.7549 0.339
52.7852 -0.188
52.8155 -0.037
52.8458 0.270
52.8761 1.046
52.9063 0.677
52.9366 -0.212
52.9669 0.409
52.9972 -0.532
53.0274 -0.170
53.0577 0.035
53.0880 0.294
53.1183 -0.229
53.1486 0.342
53.1788 0.966
53.2091 -0.233
53.2394 -0.598
53.2697 0.286
53.3000 0.285
53.3302 0.336
53.3605 -0.029
53.3908 0.075
53.4211 0.544
53.4513 0.023
53.4816 -0.080
53.5119 -0.443
53.5422 0.183
53.5725 0.237
53.6027 0.396
53.6330 0.190
53.6633 0.037
53.6936 0.509
53.7239 0.097
53.7541 -0.108
53.7844 -0.363
53.8147 0.146
53.8450 0.655
53.8752 0.071
53.9055 0.530
53.9358 1.144
53.9661 0.718
53.9964 -0.125
54.0266 0.543
54.0569 -0.039
54.0872 0.526
54.1175 0.049
54.1478 0.510
54.1780 -0.018
54.2083 -0.337
54.2386 0.061
54.2689 0.460
54.2991 0.495
54.3294 0.583
54.3597 0.150
54.3900 0.081
54.4203 0.326
54.4505 -0.210
54.4808 -0.225
54.5111 -0.031
54.5414 0.475
54.5717 -0.320
54.6019 0.448
54.6322 0.434
54.6625 0.318
54.6928 -0.580
54.7230 0.137
54.7533 0.177
54.7836 0.739
54.8139 0.415
54.8442 -0.012
54.8744 0.342
54.9047 0.489
54.9350 0.583
54.9653 -0.364
54.9956 -0.539
55.0258 0.849
55.0561 0.049
55.0864 -0.177
55.1167 0.014
55.1469 -0.003
55.1772 -0.489
55.2075 0.745
55.2378 0.469
55.2681 -0.016
55.2983 0.229
55.3286 -0.098
55.3589 -0.009
55.3892 0.446
55.4195 0.536
55.4497 0.314
55.4800 0.718
55.5103 0.549
55.5406 0.432
55.5709 0.941
55.6011 0.669
55.6314 0.710
55.6617 1.272
55.6920 1.886
55.7222 1.043
55.7525 2.543
55.7828 1.544
55.8131 0.962
55.8434 2.151
55.8736 2.351
55.9039 2.708
55.9342 3.065
55.9645 3.734
55.9948 4.300
56.0250 3.877
56.0553 4.548
56.0856 5.271
56.1159 6.099
56.1461 6.094
56.1764 6.506
56.2067 6.762
56.2370 9.258
56.2673 10.869
56.2975 9.928
56.3278 12.009
56.3581 13.256
56.3884 16.379
56.4187 17.575
56.4489 16.740
56.4792 17.937
56.5095 16.686
56.5398 14.446
56.5700 14.602
56.6003 12.363
56.6306 11.322
56.6609 12.677
56.6912 8.825
56.7214 8.045
56.7517 7.683
56.7820 7.165
56.8123 7.793
56.8426 4.827
56.8728 4.102
56.9031 5.408
56.9334 4.266
56.9637 4.063
56.9939 2.766
57.0242 2.927
57.0545 2.256
57.0848 2.106
57.1151 0.967
57.1453 2.015
57.1756 2.127
57.2059 0.676
57.2362 1.413
57.2665 0.692
57.2967 1.274
57.3270 0.866
57.3573 0.876
57.3876 0.625
57.4178 0.948
57.4481 0.854
57.4784 0.553
57.5087 -0.217
57.5390 0.836
57.5692 0.692
57.5995 0.027
57.6298 0.196
57.6601 0.313
57.6904 0.327
57.7206 0.549
57.7509 0.667
57.7812 -0.672
57.8115 -0.241
57.8417 -0.173
57.8720 -0.210
57.9023 0.119
57.9326 -0.021
57.9629 0.204
57.9931 0.117
58.0234 -0.022
58.0537 0.257
58.0840 0.275
58.1143 -0.384
58.1445 0.416
58.1748 -0.189
58.2051 0.247
58.2354 0.111
58.2656 -0.494
58.2959 -0.068
58.3262 0.149
58.3565 0.159
58.3868 0.325
58.4170 -0.498
58.4473 -0.071
58.4776 -0.320
58.5079 0.160
58.5382 0.119
58.5684 -0.129
58.5987 0.248
58.6290 -0.208
58.6593 -0.038
58.6896 -0.442
58.7198 0.078
58.7501 0.234
58.7804 0.286
58.8107 0.182
58.8409 0.079
58.8712 0.080
58.9015 0.706
58.9318 -0.022
58.9621 0.710
58.9923 -0.069
59.0226 0.350
59.0529 0.197
59.0832 0.097
59.1135 0.934
59.1437 0.573
59.1740 -0.568
59.2043 0.166
59.2346 0.067
59.2648 0.125
59.2951 -0.390
59.3254 -0.073
59.3557 0.087
59.3860 -0.429
59.4162 0.097
59.4465 -0.054
59.4768 0.056
59.5071 0.010
59.5374 0.276
59.5676 -0.029
59.5979 0.394
59.6282 0.506
59.6585 0.149
59.6887 -0.468
59.7190 -0.111
59.7493 0.246
59.7796 -0.126
59.8099 0.023
59.8401 0.120
59.8704 0.375
59.9007 0.056
59.9310 0.571
59.9613 0.306
59.9915 0.093
60.0218 0.192
60.0521 -0.489
60.0824 0.080
60.1126 0.442
60.1429 0.178
60.1732 -0.345
60.2035 0.017
60.2338 0.171
60.2640 0.222
60.2943 0.116
60.3246 -0.301
60.3549 0.219
60.3852 0.115
60.4154 0.063
60.4457 0.637
60.4760 -0.352
60.5063 -0.038
60.5365 -0.557
60.5668 0.487
60.5971 0.020
60.6274 0.023
60.6577 -0.182
60.6879 -0.230
60.7182 0.138
60.7485 0.507
60.7788 0.512
60.8091 -0.108
60.8393 -0.363
60.8696 0.134
60.8999 -0.201
60.9302 0.402
60.9604 -0.089
60.9907 0.307
61.0210 -0.079
61.0513 1.046
61.0816 0.869
61.1118 0.276
61.1421 0.517
61.1724 0.706
61.2027 0.322
61.2330 0.356
61.2632 -0.131
61.2935 -0.097
61.3238 0.927
61.3541 0.129
61.3844 0.477
61.4146 -0.269
61.4449 0.080
61.4752 -0.092
61.5055 0.049
61.5357 0.502
61.5660 0.592
61.5963 0.422
61.6266 0.460
61.6569 0.863
61.6871 0.069
61.7174 -0.048
61.7477 1.137
61.7780 0.604
61.8083 0.280
61.8385 0.633
61.8688 0.258
61.8991 0.612
61.9294 0.758
61.9596 0.644
61.9899 0.791
62.0202 1.146
62.0505 1.085
62.0808 1.650
62.1110 1.642
62.1413 1.634
62.1716 1.627
62.2019 2.505
62.2322 2.342
62.2624 2.753
62.2927 3.320
62.3230 4.252
62.3533 4.090
62.3835 4.554
62.4138 4.654
62.4441 6.056
62.4744 5.844
62.5047 7.872
62.5349 8.130
62.5652 9.794
62.5955 11.406
62.6258 11.040
62.6561 13.278
62.6863 12.496
62.7166 13.953
62.7469 15.515
62.7772 14.734
62.8074 13.068
62.8377 15.464
62.8680 12.861
62.8983 11.509
62.9286 10.052
62.9588 8.596
62.9891 8.911
63.0194 8.133
63.0497 5.584
63.0800 5.900
63.1102 4.498
63.1405 3.721
63.1708 3.725
63.2011 3.314
63.2313 2.538
63.2616 1.971
63.2919 2.915
63.3222 2.140
63.3525 1.782
63.3827 1.737
63.4130 1.745
63.4433 1.180
63.4736 1.293
63.5039 1.458
63.5341 0.738
63.5644 1.060
63.5947 1.017
63.6250 0.663
63.6552 0.048
63.6855 1.049
63.7158 0.019
63.7461 0.499
63.7764 0.459
63.8066 0.367
63.8369 0.067
63.8672 0.185
63.8975 -0.010
63.9278 -0.205
63.9580 0.382
63.9883 -0.280
64.0186 0.256
64.0489 -0.406
64.0791 0.339
64.1094 0.980
64.1397 0.319
64.1700 0.023
64.2003 0.353
64.2305 -0.359
64.2608 0.596
64.2911 -0.635
64.3214 -0.200
64.3517 -0.442
64.3819 0.235
64.4122 0.235
64.4425 0.236
64.4728 0.184
64.5031 -0.179
64.5333 0.239
64.5636 0.449
64.5939 -0.017
64.6242 -0.223
64.6544 -0.272
64.6847 -0.164
64.7150 -0.317
64.7453 -0.074
64.7756 0.378
64.8058 0.361
64.8361 0.137
64.8664 -0.087
64.8967 0.314
64.9270 0.298
64.9572 0.336
64.9875 -0.408
65.0178 -0.057
65.0481 -0.123
65.0783 -0.032
65.1086 -0.254
65.1389 0.567
65.1692 -0.122
65.1995 -0.082
65.2297 0.115
65.2600 -0.001
65.2903 0.145
65.3206 0.082
65.3509 -0.136
65.3811 -0.250
65.4114 -0.832
65.4417 0.292
65.4720 -0.405
65.5022 -0.061
65.5325 0.179
65.5628 0.368
65.5931 -0.381
65.6234 0.017
65.6536 -0.054
65.6839 -0.280
65.7142 0.067
65.7445 -0.315
65.7748 0.240
65.8050 0.015
65.8353 0.364
65.8656 0.243
65.8959 0.384
65.9261 0.942
65.9564 0.250
65.9867 0.600
66.0170 0.533
66.0473 0.676
66.0775 0.454
66.1078 2.316
66.1381 1.209
66.1684 0.572
66.1987 0.925
66.2289 1.173
66.2592 1.110
66.2895 1.151
66.3198 1.766
66.3500 2.693
66.3803 1.589
66.4106 0.174
66.4409 0.842
66.4712 1.510
66.5014 0.460
66.5317 1.077
66.5620 0.340
66.5923 0.437
66.6226 0.587
66.6528 0.215
66.6831 -0.676
66.7134 -0.164
66.7437 -0.016
66.7739 0.237
66.8042 0.281
66.8345 1.056
66.8648 0.268
66.8951 -0.260
66.9253 -0.005
66.9556 0.458
66.9859 0.869
67.0162 0.239
67.0465 0.235
67.0767 0.700
67.1070 0.748
67.1373 0.953
67.1676 1.314
67.1978 0.530
67.2281 1.257
67.2584 0.265
67.2887 1.722
67.3190 2.554
67.3492 1.095
67.3795 2.032
67.4098 2.605
67.4401 3.282
67.4704 3.439
67.5006 4.221
67.5309 4.483
67.5612 5.109
67.5915 5.268
67.6218 5.635
67.6520 6.106
67.6823 6.370
67.7126 8.092
67.7429 8.565
67.7731 7.683
67.8034 9.667
67.8337 9.776
67.8640 9.521
67.8943 9.891
67.9245 8.595
67.9548 8.550
67.9851 6.525
68.0154 7.522
68.0457 7.321
68.0759 6.600
68.1062 6.035
68.1365 5.731
68.1668 5.271
68.1970 4.187
68.2273 4.509
68.2576 3.581
68.2879 2.602
68.3182 3.030
68.3484 1.895
68.3787 2.375
68.4090 2.439
68.4393 2.295
68.4696 2.204
68.4998 2.060
68.5301 2.022
68.5604 2.348
68.5907 2.778
68.6209 1.855
68.6512 1.818
68.6815 3.448
68.7118 2.526
68.7421 2.542
68.7723 3.079
68.8026 3.408
68.8329 2.748
68.8632 4.432
68.8935 3.460
68.9237 3.322
68.9540 4.278
68.9843 4.921
69.0146 4.732
69.0448 3.450
69.0751 4.251
69.1054 4.063
69.1357 3.719
69.1660 3.740
69.1962 2.928
69.2265 3.522
69.2568 1.253
69.2871 3.254
69.3174 2.183
69.3476 2.154
69.3779 1.032
69.4082 1.733
69.4385 0.611
69.4687 1.261
69.4990 1.130
69.5293 1.311
69.5596 1.129
69.5899 0.634
69.6201 0.817
69.6504 0.635
69.6807 -0.067
69.7110 1.315
69.7413 1.030
69.7715 0.642
69.8018 0.931
69.8321 0.231
69.8624 0.208
69.8926 0.550
69.9229 -0.097
69.9532 1.184
69.9835 0.173
70.0138 -0.056
70.0440 -0.337
70.0743 0.083
70.1046 -0.070
70.1349 -0.065
70.1652 0.043
70.1954 0.152
70.2257 0.991
70.2560 -0.045
70.2863 0.586
70.3166 0.332
70.3468 0.495
70.3771 0.242
70.4074 -0.272
70.4377 -0.004
70.4679 0.421
70.4982 0.169
70.5285 0.074
70.5588 -0.073
70.5891 0.562
70.6193 0.364
70.6496 0.582
70.6799 -0.188
70.7102 -0.229
70.7405 0.095
70.7707 0.054
70.8010 -0.038
70.8313 -0.025
70.8616 -0.064
70.8918 -0.363
70.9221 0.097
70.9524 0.505
70.9827 0.341
71.0130 0.125
71.0432 0.014
71.0735 0.007
71.1038 0.417
71.1341 0.098
71.1644 0.457
71.1946 0.608
71.2249 0.186
71.2552 -0.392
71.2855 -0.031
71.3157 -0.139
71.3460 0.170
71.3763 0.218
71.4066 -0.201
71.4369 0.578
71.4671 -0.154
71.4974 0.470
71.5277 0.104
71.5580 0.780
71.5883 0.310
71.6185 -0.315
71.6488 0.206
71.6791 0.154
71.7094 -0.210
71.7396 0.000
71.7699 -0.363
71.8002 0.049
71.8305 -0.320
71.8608 0.717
71.8910 -0.067
71.9213 0.242
71.9516 -0.074
71.9819 0.028
72.0122 -0.182
72.0424 -0.028
72.0727 0.491
72.1030 0.438
72.1333 0.333
72.1635 0.385
72.1938 0.229
72.2241 0.854
72.2544 0.178
72.2847 1.169
72.3149 1.014
72.3452 0.703
72.3755 0.133
72.4058 0.552
72.4361 0.607
72.4663 1.548
72.4966 0.406
72.5269 1.035
72.5572 0.206
72.5874 0.210
72.6177 0.893
72.6480 0.117
72.6783 0.123
72.7086 0.546
72.7388 0.344
72.7691 0.247
72.7994 0.150
72.8297 -0.363
72.8600 -0.098
72.8902 0.219
72.9205 -0.245
72.9508 -0.291
72.9811 0.392
73.0113 0.242
73.0416 0.144
73.0719 -0.266
73.1022 -0.104
73.1325 -0.097
73.1627 0.013
73.1930 -0.188
73.2233 0.028
73.2536 -0.017
73.2839 -0.009
73.3141 0.520
73.3444 0.008
73.3747 -0.295
73.4050 0.183
73.4353 -0.224
73.4655 -0.162
73.4958 -0.255
73.5261 0.006
73.5564 0.268
73.5866 0.217
73.6169 -0.354
73.6472 -0.091
73.6775 0.068
73.7078 -0.242
73.7380 -0.238
73.7683 -0.078
73.7986 -0.022
73.8289 -0.174
73.8592 0.248
73.8894 0.409
73.9197 -0.210
73.9500 -0.204
73.9803 0.115
74.0105 -0.139
74.0408 0.024
74.0711 0.292
74.1014 0.508
74.1317 0.152
74.1619 -0.256
74.1922 0.221
74.2225 0.231
74.2528 -0.177
74.2831 0.302
74.3133 -0.208
74.3436 -0.093
74.3739 -0.239
74.4042 0.118
74.4344 -0.359
74.4647 -0.002
74.4950 0.355
74.5253 -0.016
74.5556 0.238
74.5858 0.180
74.6161 -0.190
74.6464 0.117
74.6767 -0.149
74.7070 -0.101
74.7372 -0.210
74.7675 0.255
74.7978 -0.113
74.8281 0.144
74.8583 0.246
74.8886 0.191
74.9189 0.033
74.9492 -0.385
74.9795 0.290
75.0097 0.133
75.0400 -0.232
75.0703 0.132
75.1006 0.080
75.1309 -0.076
75.1611 0.082
75.1914 0.395
75.2217 -0.228
75.2520 0.659
75.2822 0.297
75.3125 0.247
75.3428 0.146
75.3731 -0.007
75.4034 -0.003
75.4336 -0.155
75.4639 -0.202
75.4942 -0.041
75.5245 0.485
75.5548 0.230
75.5850 -0.337
75.6153 -0.186
75.6456 -0.034
75.6759 -0.038
75.7061 0.479
75.7364 0.267
75.7667 0.421
75.7970 0.158
75.8273 0.416
75.8575 0.101
75.8878 -0.004
75.9181 -0.162
75.9484 0.566
75.9787 -0.059
76.0089 0.462
76.0392 -0.163
76.0695 0.046
76.0998 0.516
76.1301 -0.056
76.1603 0.779
76.1906 0.417
76.2209 0.263
76.2512 0.266
76.2814 0.373
76.3117 -0.248
76.3420 -0.244
76.3723 0.010
76.4026 0.265
76.4328 0.468
76.4631 0.307
76.4934 0.980
76.5237 0.507
76.5540 0.868
76.5842 0.761
76.6145 0.237
76.6448 0.235
76.6751 0.857
76.7053 0.699
76.7356 0.854
76.7659 1.530
76.7962 1.373
76.8265 1.216
76.8567 0.800
76.8870 0.540
76.9173 1.113
76.9476 0.854
76.9779 1.168
77.0081 1.066
77.0384 0.651
77.0687 0.810
77.0990 0.709
77.1292 0.972
77.1595 0.455
77.1898 0.407
77.2201 0.411
77.2504 0.989
77.2806 0.577
77.3109 0.999
77.3412 0.537
77.3715 0.543
77.4018 0.237
77.4320 0.921
77.4623 0.303
77.4926 -0.210
77.5229 0.527
77.5531 -0.142
77.5834 0.023
77.6137 0.345
77.6440 0.667
77.6743 -0.052
77.7045 0.114
77.7348 -0.136
77.7651 0.865
77.7954 0.147
77.8257 0.002
77.8559 -0.298
77.8862 0.391
77.9165 0.664
77.9468 0.000
77.9770 0.066
78.0073 -0.233
78.0376 -0.030
78.0679 0.121
78.0982 0.116
78.1284 0.632
78.1587 0.003
78.1890 0.051
78.2193 0.621
78.2496 0.565
78.2798 -0.167
78.3101 0.300
78.3404 0.089
78.3707 0.296
78.4009 -0.434
78.4312 -0.019
78.4615 0.502
78.4918 0.137
78.5221 0.033
78.5523 -0.227
78.5826 -0.028
78.6129 0.014
78.6432 0.370
78.6735 0.101
78.7037 0.249
78.7340 -0.072
78.7643 -0.184
78.7946 0.590
78.8248 -0.041
78.8551 0.265
78.8854 0.779
78.9157 -0.216
78.9460 -0.013
78.9762 -0.122
79.0065 -0.023
79.0368 -0.027
79.0671 0.125
79.0974 0.434
79.1276 0.327
79.1579 0.324
79.1882 0.426
79.2185 0.111
79.2488 0.526
79.2790 -0.101
79.3093 0.055
79.3396 -0.154
79.3699 0.054
79.4001 0.002
79.4304 -0.102
79.4607 0.055
79.4910 -0.152
79.5213 0.058
79.5515 0.060
79.5818 0.218
79.6121 0.064
79.6424 0.120
79.6727 0.435
79.7029 -0.186
79.7332 0.079
79.7635 -0.282
79.7938 0.244
79.8240 0.301
79.8543 -0.058
79.8846 -0.052
79.9149 0.423
79.9452 0.065
79.9754 -0.188
80.0057 -0.337
80.0360 0.222
80.0663 -0.105
80.0966 0.038
80.1268 -0.183
80.1571 0.325
80.1874 0.156
80.2177 -0.064
80.2479 0.601
80.2782 0.017
80.3085 0.162
80.3388 0.152
80.3691 0.298
80.3993 -0.285
80.4296 -0.241
80.4599 0.168
80.4902 -0.152
80.5205 0.257
80.5507 0.303
80.5810 -0.224
80.6113 -0.126
80.6416 0.129
80.6718 0.176
80.7021 -0.194
80.7324 -0.250
80.7627 0.371
80.7930 -0.206
80.8232 -0.314
80.8535 0.360
80.8838 0.514
80.9141 -0.270
80.9444 0.197
80.9746 -0.065
81.0049 -0.326
81.0352 0.558
81.0655 0.245
81.0957 0.558
81.1260 0.141
81.1563 0.402
81.1866 0.403
81.2169 0.561
81.2471 -0.010
81.2774 1.658
81.3077 0.775
81.3380 0.049
81.3683 0.781
81.3985 0.681
81.4288 0.424
81.4591 -0.040
81.4894 0.016
81.5196 0.438
81.5499 -0.130
81.5802 0.918
81.6105 -0.170
81.6408 0.826
81.6710 0.260
81.7013 0.215
81.7316 -0.350
81.7619 0.387
81.7922 -0.230
81.8224 -0.013
81.8527 0.152
81.8830 -0.099
81.9133 -0.089
81.9436 0.025
81.9738 0.036
82.0041 -0.214
82.0344 0.266
82.0647 -0.035
82.0949 0.029
82.1252 0.510
82.1555 -0.102
82.1858 0.119
82.2161 -0.076
82.2463 -0.427
82.2766 0.421
82.3069 0.019
82.3372 -0.227
82.3675 -0.076
82.3977 0.127
82.4280 -0.086
82.4583 -0.038
82.4886 0.219
82.5188 0.163
82.5491 -0.100
82.5794 -0.051
82.6097 -0.106
82.6400 -0.160
82.6702 -0.109
82.7005 0.202
82.7308 -0.424
82.7611 -0.060
82.7914 -0.008
82.8216 0.200
82.8519 0.253
82.8822 0.358
82.9125 -0.318
82.9427 -0.004
82.9730 0.258
83.0033 0.209
83.0336 0.680
83.0639 -0.150
83.0941 -0.199
83.1244 0.430
83.1547 0.330
83.1850 0.074
83.2153 0.183
83.2455 -0.020
83.2758 -0.171
83.3061 0.669
83.3364 0.258
83.3666 -0.100
83.3969 -0.093
83.4272 -0.137
83.4575 0.183
83.4878 -0.173
83.5180 0.043
83.5483 0.052
83.5786 0.010
83.6089 0.019
83.6392 0.446
83.6694 0.092
83.6997 0.050
83.7300 0.113
83.7603 0.333
83.7905 0.345
83.8208 -0.112
83.8511 0.370
83.8814 0.174
83.9117 0.292
83.9419 -0.320
83.9722 -0.202
84.0025 0.202
84.0328 -0.227
84.0631 0.229
84.0933 0.165
84.1236 0.206
84.1539 -0.065
84.1842 0.132
84.2144 0.122
84.2447 0.112
84.2750 0.571
84.3053 0.562
84.3356 0.657
84.3658 -0.237
84.3961 -0.089
84.4264 0.424
84.4567 -0.104
84.4870 0.201
84.5172 -0.014
84.5475 0.344
84.5778 0.182
84.6081 0.020
84.6383 0.119
84.6686 0.062
84.6989 0.266
84.7292 -0.259
84.7595 -0.212
84.7897 0.461
84.8200 -0.012
84.8503 -0.068
84.8806 -0.019
84.9109 0.551
84.9411 -0.025
84.9714 -0.027
85.0017 0.283
85.0320 -0.031
85.0623 0.541
85.0925 -0.502
85.1228 0.331
85.1531 0.175
85.1834 0.019
85.2136 -0.189
85.2439 0.228
85.2742 -0.083
85.3045 0.336
85.3348 -0.027
85.3650 -0.441
85.3953 0.073
85.4256 0.172
85.4559 -0.251
85.4862 0.369
85.5164 0.364
85.5467 0.360
85.5770 -0.061
85.6073 0.456
85.6375 0.088
85.6678 -0.071
85.6981 0.082
85.7284 0.236
85.7587 -0.495
85.7889 0.129
85.8192 -0.029
85.8495 0.439
85.8798 -0.082
85.9101 0.386
85.9403 0.022
85.9706 -0.029
86.0009 -0.028
86.0312 -0.027
86.0614 -0.025
86.0917 0.081
86.1220 0.344
86.1523 0.086
86.1826 0.246
86.2128 0.405
86.2431 -0.007
86.2734 -0.055
86.3037 -0.467
86.3340 0.100
86.3642 -0.061
86.3945 -0.117
86.4248 0.399
86.4551 0.031
86.4853 -0.025
86.5156 -0.184
86.5459 0.178
86.5762 0.227
86.6065 0.330
86.6367 -0.089
86.6670 0.379
86.6973 0.170
86.7276 0.325
86.7579 0.117
86.7881 0.169
86.8184 0.170
86.8487 0.170
86.8790 -0.089
86.9092 -0.087
86.9395 -0.189
86.9698 -0.187
87.0001 0.076
87.0304 0.288
87.0606 -0.386
87.0909 -0.226
87.1212 0.403
87.1515 0.043
87.1818 -0.056
87.2120 -0.415
87.2423 0.094
87.2726 0.135
87.3029 -0.188
87.3331 0.166
87.3634 0.209
87.3937 -0.009
87.4240 0.086
87.4543 -0.184
87.4845 -0.088
87.5148 0.164
87.5451 0.052
87.5754 0.305
87.6057 -0.170
87.6359 -0.177
87.6662 -0.079
87.6965 0.019
87.7268 0.170
87.7571 -0.200
87.7873 0.629
87.8176 -0.313
87.8479 -0.317
87.8782 0.408
87.9084 -0.168
87.9387 0.714
87.9690 -0.122
87.9993 -0.020
88.0296 -0.178
88.0598 0.081
88.0901 -0.337
88.1204 -0.039
88.1507 0.468
88.1810 -0.170
88.2112 -0.131
88.2415 0.116
88.2718 0.208
88.3021 -0.221
88.3323 0.289
88.3626 0.121
88.3929 -0.515
88.4232 0.100
88.4535 -0.015
88.4837 0.080
88.5140 0.122
88.5443 -0.095
88.5746 0.104
88.6049 -0.008
88.6351 -0.016
88.6654 0.237
88.6957 0.907
88.7260 -0.194
88.7562 0.164
88.7865 -0.155
88.8168 0.725
88.8471 -0.010
88.8774 -0.067
88.9076 0.553
88.9379 0.497
88.9682 0.441
88.9985 0.854
89.0288 0.382
89.0590 0.223
89.0893 0.689
89.1196 0.999
89.1499 0.893
89.1801 0.684
89.2104 0.891
89.2407 1.411
89.2710 1.359
89.3013 0.890
89.3315 1.984
89.3618 1.203
89.3921 2.142
89.4224 1.206
89.4527 1.885
89.4829 1.575
89.5132 2.306
89.5435 1.893
89.5738 1.844
89.6040 1.275
89.6343 1.852
89.6646 2.064
89.6949 1.913
89.7252 1.605
89.7554 1.350
89.7857 1.825
89.8160 0.946
89.8463 1.057
89.8766 1.324
89.9068 1.488
89.9371 1.495
89.9674 0.930
89.9977 1.720
90.0279 1.000
90.0582 0.123
90.0885 1.122
90.1188 0.716
90.1491 0.986
90.1793 0.216
90.2096 0.018
90.2399 0.602
90.2702 0.510
90.3005 0.262
90.3307 0.691
90.3610 0.651
90.3913 0.456
90.4216 0.209
90.4518 0.171
90.4821 0.446
90.5124 0.304
90.5427 -0.098
90.5730 0.230
90.6032 -0.119
90.6335 -0.311
90.6638 0.161
90.6941 -0.147
90.7244 -0.143
90.7546 0.487
90.7849 0.856
90.8152 0.289
90.8455 -0.018
90.8758 -0.012
90.9060 -0.005
90.9363 0.054
90.9666 -0.200
90.9969 0.693
91.0271 0.024
91.0574 0.553
91.0877 0.458
91.1180 -0.106
91.1483 0.476
91.1785 -0.243
91.2088 -0.285
91.2391 0.286
91.2694 0.596
91.2997 0.126
91.3299 1.322
91.3602 0.384
91.3905 0.435
91.4208 0.227
91.4510 0.227
91.4813 0.019
91.5116 0.489
91.5419 0.074
91.5722 -0.029
91.6024 -0.079
91.6327 0.496
91.6630 -0.178
91.6933 -0.227
91.7236 -0.087
91.7538 0.313
91.7841 0.193
91.8144 0.074
91.8447 0.059
91.8749 0.565
91.9052 0.134
91.9355 0.068
91.9658 0.002
91.9961 -0.115
92.0263 0.236
92.0566 0.641
92.0869 0.264
92.1172 0.252
92.1475 0.449
92.1777 0.282
92.2080 0.479
92.2383 0.625
92.2686 0.719
92.2988 0.241
92.3291 1.013
92.3594 0.692
92.3897 0.371
92.4200 0.571
92.4502 -0.166
92.4805 0.660
92.5108 0.549
92.5411 0.646
92.5714 0.171
92.6016 -0.095
92.6319 0.680
92.6622 0.259
92.6925 0.097
92.7227 0.301
92.7530 0.662
92.7833 0.293
92.8136 0.759
92.8439 0.235
92.8741 0.805
92.9044 0.595
92.9347 0.228
92.9650 0.591
92.9953 0.121
93.0255 0.016
93.0558 0.484
93.0861 0.432
93.1164 -0.036
93.1466 -0.192
93.1769 0.069
93.2072 0.123
93.2375 0.229
93.2678 0.595
93.2980 0.025
93.3283 -0.024
93.3586 0.395
93.3889 0.138
93.4192 0.299
93.4494 0.251
93.4797 0.099
93.5100 -0.260
93.5403 -0.111
93.5706 0.039
93.6008 0.137
93.6311 0.027
93.6614 0.021
93.6917 0.016
93.7219 -0.092
93.7522 0.007
93.7825 0.108
93.8128 -0.417
93.8431 0.257
93.8733 0.515
93.9036 -0.165
93.9339 0.250
93.9642 0.040
93.9945 0.403
94.0247 0.089
94.0550 0.037
94.0853 0.088
94.1156 0.349
94.1458 -0.015
94.1761 0.142
94.2064 -0.013
94.2367 0.092
94.2670 -0.062
94.2972 -0.008
94.3275 0.568
94.3578 -0.106
94.3881 -0.363
94.4184 0.146
94.4486 0.083
94.4789 0.072
94.5092 0.426
94.5395 0.469
94.5697 0.198
94.6000 0.866
94.6303 0.701
94.6606 0.484
94.6909 0.684
94.7211 0.781
94.7514 0.878
94.7817 0.714
94.8120 0.655
94.8423 0.545
94.8725 0.695
94.9028 0.898
94.9331 1.361
94.9634 1.669
94.9936 1.092
95.0239 1.244
95.0542 1.865
95.0845 0.924
95.1148 1.025
95.1450 1.231
95.1753 1.801
95.2056 1.383
95.2359 1.329
95.2662 1.484
95.2964 1.431
95.3267 1.743
95.3570 1.118
95.3873 1.326
95.4175 0.702
95.4478 1.224
95.4781 1.381
95.5084 0.810
95.5387 1.072
95.5689 1.127
95.5992 1.130
95.6295 1.289
95.6598 1.501
95.6901 1.088
95.7203 0.363
95.7506 0.211
95.7809 -0.044
95.8112 0.899
95.8414 0.592
95.8717 0.546
95.9020 0.188
95.9323 -0.066
95.9626 0.202
95.9928 0.522
96.0231 -0.356
96.0534 -0.243
96.0837 0.234
96.1140 0.295
96.1442 0.096
96.1745 0.001
96.2048 0.636
96.2351 -0.030
96.2653 0.710
96.2956 -0.165
96.3259 -0.101
96.3562 0.067
96.3865 -0.285
96.4167 -0.022
96.4470 0.970
96.4773 -0.016
96.5076 -0.273
96.5379 0.512
96.5681 -0.057
96.5984 0.104
96.6287 -0.256
96.6590 0.010
96.6893 0.172
96.7195 0.230
96.7498 0.497
96.7801 -0.069
96.8104 -0.114
96.8406 -0.159
96.8709 -0.255
96.9012 -0.255
96.9315 -0.255
96.9618 0.161
96.9920 0.421
97.0223 0.005
97.0526 -0.255
97.0829 -0.156
97.1132 -0.003
97.1434 -0.059
97.1737 -0.063
97.2040 0.455
97.2343 -0.746
97.2645 0.033
97.2948 -0.229
97.3251 -0.179
97.3554 0.237
97.3857 -0.129
97.4159 -0.182
97.4462 0.183
97.4765 -0.077
97.5068 -0.285
97.5371 0.119
97.5673 -0.310
97.5976 0.459
97.6279 -0.073
97.6582 -0.241
97.6884 0.322
97.7187 -0.106
97.7490 0.249
97.7793 0.239
97.8096 -0.031
97.8398 -0.092
97.8701 0.108
97.9004 0.308
97.9307 0.352
97.9610 -0.228
97.9912 0.390
98.0215 0.175
98.0518 -0.092
98.0821 -0.203
98.1123 0.573
98.1426 0.568
98.1729 0.354
98.2032 0.454
98.2335 0.293
98.2637 0.446
98.2940 0.650
98.3243 0.751
98.3546 0.176
98.3849 0.642
98.4151 1.057
98.4454 1.107
98.4757 0.533
98.5060 0.688
98.5362 1.573
98.5665 0.896
98.5968 0.271
98.6271 0.532
98.6574 0.741
98.6876 0.273
98.7179 0.014
98.7482 0.902
98.7785 0.956
98.8088 0.907
98.8390 -0.340
98.8693 0.653
98.8996 0.761
98.9299 0.661
98.9601 0.092
98.9904 0.305
99.0207 -0.002
99.0510 0.472
99.0813 0.010
99.1115 -0.088
99.1418 0.491
99.1721 0.498
99.2024 -0.536
99.2327 0.201
99.2629 0.574
99.2932 0.374
99.3235 -0.242
99.3538 0.392
99.3841 0.245
99.4143 -0.266
99.4446 -0.265
99.4749 -0.003
99.5052 -0.105
99.5354 0.053
99.5657 -0.413
99.5960 0.214
99.6263 0.009
99.6566 0.638
99.6868 0.329
99.7171 -0.448
99.7474 -0.079
99.7777 0.603
99.8080 0.244
99.8382 0.250
99.8685 -0.369
99.8988 0.367
99.9291 -0.772
99.9593 0.433
99.9896 0.232
100.0199 -0.333
100.0502 0.352
100.0805 0.830
100.1107 0.214
100.1410 -0.194
100.1713 0.076
100.2016 -0.174
100.2319 -0.059
100.2621 0.420
100.2924 0.067
100.3227 0.391
100.3530 -0.170
100.3832 0.102
100.4135 0.167
100.4438 -0.184
100.4741 0.037
100.5044 -0.053
100.5346 -0.091
100.5649 -0.285
100.5952 0.133
100.6255 -0.073
100.6558 0.241
100.6860 -0.069
100.7163 -0.014
100.7466 -0.063
100.7769 0.149
100.8071 -0.003
100.8374 -0.467
100.8677 0.057
100.8980 0.165
100.9283 0.221
100.9585 0.278
100.9888 -0.030
101.0191 -0.441
101.0494 0.074
101.0797 0.330
101.1099 0.013
101.1402 0.269
101.1705 -0.360
101.2008 0.158
101.2310 -0.106
101.2613 0.412
101.2916 -0.111
101.3219 0.304
101.3522 0.198
101.3824 -0.116
101.4127 -0.065
101.4430 0.924
101.4733 -0.118
101.5036 0.351
101.5338 0.143
101.5641 0.092
101.5944 0.562
101.6247 0.199
101.6549 0.045
101.6852 0.568
101.7155 -0.158
101.7458 0.053
101.7761 0.213
101.8063 0.738
101.8366 0.273
101.8669 0.851
101.8972 -0.134
101.9275 -0.233
101.9577 0.110
101.9880 0.557
102.0183 0.275
102.0486 0.202
102.0788 0.130
102.1091 -0.047
102.1394 0.506
102.1697 0.435
102.2000 0.155
102.2302 0.397
102.2605 -0.038
102.2908 0.308
102.3211 0.499
102.3514 0.638
102.3816 0.257
102.4119 0.449
102.4422 0.068
102.4725 0.052
102.5028 0.818
102.5330 0.490
102.5633 0.632
102.5936 0.097
102.6239 0.135
102.6541 0.590
102.6844 0.837
102.7147 0.720
102.7450 0.707
102.7753 1.060
102.8055 0.006
102.8358 0.360
102.8661 0.088
102.8964 0.390
102.9267 1.213
102.9569 -0.047
102.9872 -0.005
103.0175 0.455
103.0478 0.134
103.0780 1.063
103.1083 0.586
103.1386 0.422
103.1689 -0.107
103.1992 0.563
103.2294 0.036
103.2597 -0.127
103.2900 0.544
103.3203 0.383
103.3506 0.065
103.3808 0.425
103.4111 0.524
103.4414 0.676
103.4717 0.412
103.5019 0.513
103.5322 0.145
103.5625 0.507
103.5928 -0.120
103.6231 0.607
103.6533 0.449
103.6836 0.761
103.7139 0.239
103.7442 1.540
103.7745 0.186
103.8047 0.968
103.8350 0.395
103.8653 0.813
103.8956 1.231
103.9258 0.660
103.9561 1.078
103.9864 0.820
104.0167 1.292
104.0470 0.879
104.0772 0.986
104.1075 1.303
104.1378 1.255
104.1681 0.947
104.1984 0.327
104.2286 0.697
104.2589 0.911
104.2892 1.386
104.3195 0.767
104.3497 0.826
104.3800 0.625
104.4103 0.424
104.4406 0.848
104.4709 1.117
104.5011 0.709
104.5314 0.562
104.5617 0.102
104.5920 0.685
104.6223 0.122
104.6525 0.549
104.6828 0.143
104.7131 0.050
104.7434 0.270
104.7736 0.178
104.8039 0.034
104.8342 0.255
104.8645 0.216
104.8948 0.438
104.9250 0.139
104.9553 0.674
104.9856 -0.041
105.0159 0.495
105.0462 -0.167
105.0764 0.473
105.1067 -0.709
105.1370 -0.119
105.1673 0.366
105.1975 -0.242
105.2278 -0.225
105.2581 -0.676
105.2884 0.268
105.3187 -0.351
105.3489 -0.083
105.3792 0.132
105.4095 0.088
105.4398 0.148
105.4701 0.156
105.5003 -0.095
105.5306 -0.138
105.5609 -0.389
105.5912 0.187
105.6215 0.034
105.6517 0.037
105.6820 0.458
105.7123 -0.736
105.7426 0.311
105.7728 0.108
105.8031 0.009
105.8334 0.067
105.8637 0.750
105.8940 -0.337
105.9242 0.191
105.9545 -0.167
105.9848 -0.159
106.0151 0.110
106.0454 0.222
106.0756 0.283
106.1059 0.344
106.1362 0.354
106.1665 -0.053
106.1967 -0.251
106.2270 0.332
106.2573 -0.334
106.2876 -0.010
106.3179 -0.311
106.3481 0.045
106.3784 0.140
106.4087 0.080
106.4390 0.384
106.4693 -0.040
106.4995 0.422
106.5298 0.363
106.5601 0.096
106.5904 0.194
106.6206 0.449
106.6509 -0.130
106.6812 -0.239
106.7115 0.169
106.7418 0.369
106.7720 -0.003
106.8023 -0.063
106.8326 0.034
106.8629 -0.181
106.8932 -0.083
106.9234 0.015
106.9537 0.061
106.9840 0.056
107.0143 -0.157
107.0445 0.463
107.0748 -0.218
107.1051 0.455
107.1354 0.399
107.1657 0.448
107.1959 0.081
107.2262 0.234
107.2565 -0.132
107.2868 0.491
107.3171 0.646
107.3473 0.385
107.3776 -0.137
107.4079 0.123
107.4382 0.384
107.4684 -0.084
107.4987 0.021
107.5290 -0.030
107.5593 -0.185
107.5896 0.286
107.6198 0.236
107.6501 -0.178
107.6804 0.294
107.7107 0.193
107.7410 0.301
107.7712 0.201
107.8015 -0.003
107.8318 0.158
107.8621 -0.358
107.8923 0.064
107.9226 0.331
107.9529 -0.184
107.9832 0.135
108.0135 -0.118
108.0437 -0.006
108.0740 -0.259
108.1043 0.050
108.1346 0.048
108.1649 -0.059
108.1951 0.043
108.2254 -0.114
108.2557 0.301
108.2860 0.092
108.3163 -0.065
108.3465 -0.169
108.3768 0.248
108.4071 0.196
108.4374 -0.428
108.4676 0.094
108.4979 -0.008
108.5282 0.463
108.5585 0.152
108.5888 0.155
108.6190 0.263
108.6493 -0.411
108.6796 0.270
108.7099 -0.143
108.7402 0.227
108.7704 0.075
108.8007 0.185
108.8310 0.086
108.8613 0.353
108.8915 -0.005
108.9218 -0.259
108.9521 0.047
108.9824 0.250
109.0127 0.348
109.0429 0.135
109.0732 -0.234
109.1035 -0.239
109.1338 0.279
109.1641 0.015
109.1943 0.012
109.2246 0.166
109.2549 -0.045
109.2852 0.370
109.3154 0.161
109.3457 0.212
109.3760 0.211
109.4063 0.107
109.4366 0.367
109.4668 0.628
109.4971 -0.205
109.5274 0.109
109.5577 0.632
109.5880 0.321
109.6182 0.792
109.6485 0.378
109.6788 0.589
109.7091 0.540
109.7393 -0.081
109.7696 -0.337
109.7999 0.122
109.8302 0.998
109.8605 0.208
109.8907 0.356
109.9210 0.452
109.9513 0.444
109.9816 0.281
110.0119 0.378
110.0421 0.267
110.0724 1.458
110.1027 0.828
110.1330 0.874
110.1632 1.338
110.1935 0.551
110.2238 0.859
110.2541 0.699
110.2844 1.320
110.3146 0.744
110.3449 0.793
110.3752 0.843
110.4055 0.997
110.4358 0.838
110.4660 0.160
110.4963 0.836
110.5266 0.574
110.5569 1.668
110.5871 0.365
110.6174 0.105
110.6477 0.262
110.6780 1.096
110.7083 0.421
110.7385 0.474
110.7688 0.216
110.7991 1.104
110.8294 -0.195
110.8597 0.329
110.8899 0.124
110.9202 -0.133
110.9505 0.445
110.9808 0.605
111.0110 0.298
111.0413 0.095
111.0716 0.205
111.1019 0.888
111.1322 0.634
111.1624 0.224
111.1927 0.388
111.2230 0.239
111.2533 0.455
111.2836 0.568
111.3138 -0.153
111.3441 0.064
111.3744 -0.239
111.4047 -0.143
111.4350 0.527
111.4652 0.363
111.4955 -0.373
111.5258 -0.171
111.5561 0.656
111.5863 0.494
111.6166 -0.241
111.6469 -0.142
111.6772 -0.094
111.7075 0.370
111.7377 -0.051
111.7680 0.154
111.7983 0.255
111.8286 -0.112
111.8589 0.041
111.8891 -0.273
111.9194 0.246
111.9497 -0.016
111.9800 -0.017
112.0102 0.034
112.0405 -0.175
112.0708 0.190
112.1011 0.034
112.1314 0.139
112.1616 0.088
112.1919 -0.015
112.2222 -0.117
112.2525 0.770
112.2828 -0.061
112.3130 0.099
112.3433 0.102
112.3736 -0.259
112.4039 -0.050
112.4341 -0.205
112.4644 0.422
112.4947 0.059
112.5250 0.478
112.5553 0.117
112.5855 0.484
112.6158 -0.033
112.6461 0.075
112.6764 -0.025
112.7067 0.084
112.7369 -0.224
112.7672 -0.219
112.7975 0.256
112.8278 0.054
112.8580 -0.409
112.8883 0.015
112.9186 -0.239
112.9489 0.020
112.9792 0.227
113.0094 0.279
113.0397 0.330
113.0700 0.382
113.1003 -0.242
113.1306 0.071
113.1608 0.280
113.1911 0.073
113.2214 -0.029
113.2517 -0.287
113.2819 0.340
113.3122 -0.282
113.3425 0.503
113.3728 -0.275
113.4031 0.406
113.4333 0.098
113.4636 0.259
113.4939 0.108
113.5242 -0.199
113.5545 0.223
113.5847 -0.135
113.6150 -0.233
113.6453 0.176
113.6756 0.638
113.7058 0.579
113.7361 0.520
113.7664 0.149
113.7967 -0.169
113.8270 0.346
113.8572 0.081
113.8875 -0.340
113.9178 0.020
113.9481 -0.088
113.9784 -0.196
114.0086 -0.147
114.0389 -0.046
114.0692 -0.049
114.0995 -0.259
114.1298 0.097
114.1600 -0.120
114.1903 -0.076
114.2206 0.124
114.2509 0.273
114.2811 0.058
114.3114 0.728
114.3417 0.201
114.3720 0.560
114.4023 -0.019
114.4325 -0.128
114.4628 0.127
114.4931 -0.294
114.5234 0.171
114.5537 -0.250
114.5839 -0.163
114.6142 -0.127
114.6445 0.065
114.6748 0.049
114.7050 -0.175
114.7353 0.226
114.7656 0.472
114.7959 -0.011
114.8262 0.599
114.8564 -0.196
114.8867 0.208
114.9170 -0.118
114.9473 0.182
114.9776 -0.091
115.0078 0.053
115.0381 -0.271
115.0684 -0.127
115.0987 0.433
115.1289 0.681
115.1592 0.044
115.1895 0.137
115.2198 0.490
115.2501 -0.458
115.2803 0.417
115.3106 0.511
115.3409 0.137
115.3712 0.076
115.4015 0.379
115.4317 0.423
115.4620 0.154
115.4923 0.094
115.5226 0.347
115.5528 0.600
115.5831 0.333
115.6134 0.692
115.6437 0.269
115.6740 0.576
115.7042 0.779
115.7345 0.045
115.7648 0.925
115.7951 0.973
115.8254 1.438
115.8556 0.654
115.8859 1.380
115.9162 2.106
115.9465 0.541
115.9767 0.331
116.0070 0.798
116.0373 0.953
116.0676 1.108
116.0979 1.264
116.1281 1.107
116.1584 1.316
116.1887 2.306
116.2190 0.849
116.2493 1.058
116.2795 1.268
116.3098 1.583
116.3401 1.377
116.3704 1.223
116.4006 0.966
116.4309 1.594
116.4612 0.817
116.4915 0.821
116.5218 0.357
116.5520 0.258
116.5823 0.992
116.6126 0.737
116.6429 1.108
116.6732 0.593
116.7034 0.652
116.7337 1.180
116.7640 0.771
116.7943 0.258
116.8245 0.526
116.8548 0.639
116.8851 1.117
116.9154 0.241
116.9457 0.667
116.9759 0.208
117.0062 0.323
117.0365 -0.031
117.0668 0.240
117.0971 0.148
117.1273 0.160
117.1576 0.016
117.1879 0.080
117.2182 0.510
117.2485 0.315
117.2787 0.589
117.3090 0.082
117.3393 -0.008
117.3696 0.007
117.3998 0.543
117.4301 0.298
117.4604 -0.520
117.4907 -0.256
117.5210 0.424
117.5512 0.479
117.5815 0.119
117.6118 0.435
117.6421 -0.081
117.6724 -0.232
117.7026 0.190
117.7329 0.404
117.7632 0.358
117.7935 -0.313
117.8237 0.527
117.8540 0.534
117.8843 0.489
117.9146 0.393
117.9449 0.037
117.9751 0.149
118.0054 -0.154
118.0357 0.376
118.0660 0.229
118.0963 0.135
118.1265 0.354
118.1568 0.261
118.1871 0.011
118.2174 0.335
118.2476 0.139
118.2779 0.099
118.3082 0.007
118.3385 0.593
118.3688 -0.227
118.3990 0.308
118.4293 0.009
118.4596 0.544
118.4899 -0.014
118.5202 -0.467
118.5504 0.047
118.5807 0.510
118.6110 0.504
118.6413 0.290
118.6715 0.077
118.7018 0.333
118.7321 -0.192
118.7624 0.220
118.7927 0.113
118.8229 -0.047
118.8532 -0.154
118.8835 0.000
118.9138 0.675
118.9441 0.517
118.9743 -0.057
119.0046 0.359
119.0349 -0.215
119.0652 -0.007
119.0954 -0.163
119.1257 0.202
119.1560 0.203
119.1863 0.517
119.2166 0.779
119.2468 0.155
119.2771 0.158
119.3074 0.733
119.3377 -0.305
119.3680 0.115
119.3982 0.275
119.4285 -0.138
119.4588 0.648
119.4891 0.392
119.5193 -0.280
119.5496 0.091
119.5799 0.357
119.6102 0.988
119.6405 0.422
119.6707 0.689
119.7010 -0.032
119.7313 -0.233
119.7616 0.026
119.7919 -0.235
119.8221 -0.183
119.8524 -0.131
119.8827 0.078
119.9130 0.339
119.9433 -0.337
119.9735 -0.468
120.0038 0.000
