'Id: "" Comment: "" Operator: "Lab Manager" Anode: "Cu" Scantype: "Locked Coupled" TimePerStep: "19.2" X: "9999" Y: "9999" Z: "9999" 
10.0015 0.000
10.0318 -0.420
10.0620 -0.403
10.0923 -0.136
10.1226 -0.754
10.1529 0.189
10.1832 -0.169
10.2134 -0.527
10.2437 0.522
10.2740 1.154
10.3043 0.380
10.3346 0.075
10.3648 -0.230
10.3951 -0.222
10.4254 0.411
10.4557 0.732
10.4859 0.636
10.5162 -0.188
10.5465 0.081
10.5768 0.038
10.6071 0.360
10.6373 0.318
10.6676 0.484
10.6979 0.286
10.7282 1.026
10.7585 -0.057
10.7887 0.266
10.8190 -0.140
10.8493 -0.285
10.8796 0.612
10.9098 -0.105
10.9401 0.480
10.9704 0.492
11.0007 0.088
11.0310 0.569
11.0612 -0.616
11.0915 0.022
11.1218 -0.173
11.1521 0.674
11.1824 0.063
11.2126 0.233
11.2429 0.351
11.2732 -0.572
11.3035 -0.311
11.3337 -0.258
11.3640 -0.310
11.3943 0.681
11.4246 1.203
11.4549 -0.306
11.4851 0.165
11.5154 -0.250
11.5457 1.159
11.5760 -0.089
11.6063 0.279
11.6365 -0.448
11.6668 1.170
11.6971 0.548
11.7274 -0.073
11.7577 0.087
11.7879 -0.013
11.8182 -0.113
11.8485 0.256
11.8788 -0.521
11.9090 0.265
11.9393 0.166
11.9696 0.068
11.9999 -0.291
12.0302 -0.598
12.0604 0.340
12.0907 0.132
12.1210 -0.283
12.1513 0.603
12.1816 0.604
12.2118 0.658
12.2421 0.139
12.2724 0.349
12.3027 0.247
12.3329 0.615
12.3632 0.044
12.3935 0.620
12.4238 0.988
12.4541 0.627
12.4843 -0.203
12.5146 -0.564
12.5449 0.482
12.5752 -0.087
12.6055 0.491
12.6357 0.339
12.6660 0.031
12.6963 -0.120
12.7266 0.094
12.7568 1.245
12.7871 -0.415
12.8174 0.424
12.8477 0.066
12.8780 1.218
12.9082 0.443
12.9385 -0.123
12.9688 -0.168
12.9991 1.194
13.0294 0.160
13.0596 0.689
13.0899 -0.033
13.1202 -0.180
13.1505 -0.328
13.1807 0.149
13.2110 0.366
13.2413 0.844
13.2716 -0.709
13.3019 -0.022
13.3321 -0.481
13.3624 1.039
13.3927 -0.252
13.4230 0.175
13.4533 -0.179
13.4835 -0.012
13.5138 1.249
13.5441 0.011
13.5744 0.127
13.6046 0.607
13.6349 0.984
13.6652 0.527
13.6955 1.321
13.7258 0.292
13.7560 0.565
13.7863 -0.463
13.8166 -0.345
13.8469 0.168
13.8772 0.838
13.9074 0.362
13.9377 1.084
13.9680 -0.069
13.9983 0.706
14.0285 0.231
14.0588 0.121
14.0891 1.105
14.1194 0.058
14.1497 0.729
14.1799 -0.369
14.2102 0.719
14.2405 0.558
14.2708 0.762
14.3011 0.654
14.3313 -0.079
14.3616 0.698
14.3919 -0.399
14.4222 0.535
14.4524 0.532
14.4827 0.842
14.5130 0.318
14.5433 0.524
14.5736 0.418
14.6038 0.468
14.6341 0.206
14.6644 0.152
14.6947 0.046
14.7250 0.566
14.7552 0.565
14.7855 0.044
14.8158 0.356
14.8461 0.356
14.8764 0.512
14.9066 0.252
14.9369 -0.269
14.9672 0.149
14.9975 0.514
15.0277 0.151
15.0580 -0.473
15.0883 0.310
15.1186 0.312
15.1489 0.210
15.1791 -0.309
15.2094 -0.307
15.2397 -0.252
15.2700 0.949
15.3003 -0.194
15.3305 -0.034
15.3608 -0.030
15.3911 0.234
15.4214 0.550
15.4516 0.555
15.4819 1.080
15.5122 -0.426
15.5425 0.048
15.5728 0.209
15.6030 0.683
15.6333 0.272
15.6636 -0.659
15.6939 0.753
15.7242 0.238
15.7544 0.297
15.7847 -0.634
15.8150 0.415
15.8453 -0.307
15.8755 0.637
15.9058 0.333
15.9361 0.445
15.9664 -0.277
15.9967 0.044
16.0269 0.261
16.0572 1.155
16.0875 0.591
16.1178 0.184
16.1481 1.078
16.1783 0.619
16.2086 -0.100
16.2389 0.535
16.2692 0.545
16.2994 -0.017
16.3297 -0.475
16.3600 0.265
16.3903 0.328
16.4206 0.496
16.4508 0.351
16.4811 0.780
16.5114 0.635
16.5417 -0.550
16.5720 -0.329
16.6022 0.186
16.6325 0.910
16.6628 0.540
16.6931 0.536
16.7233 0.479
16.7536 0.527
16.7839 -0.207
16.8142 0.206
16.8445 0.098
16.8747 0.355
16.9050 0.821
16.9353 0.922
16.9656 0.815
16.9959 0.239
17.0261 0.497
17.0564 0.547
17.0867 0.389
17.1170 1.325
17.1472 0.282
17.1775 0.020
17.2078 0.384
17.2381 -0.086
17.2684 0.487
17.2986 -0.139
17.3289 0.643
17.3592 0.278
17.3895 0.643
17.4198 0.696
17.4500 0.332
17.4803 0.437
17.5106 0.022
17.5409 0.648
17.5712 -0.184
17.6014 -0.025
17.6317 -0.284
17.6620 -0.333
17.6923 0.189
17.7225 0.347
17.7528 0.713
17.7831 1.027
17.8134 0.040
17.8437 0.459
17.8739 0.670
17.9042 0.256
17.9345 0.207
17.9648 0.523
17.9951 0.423
18.0253 0.218
18.0556 0.326
18.0859 0.591
18.1162 -0.186
18.1464 0.496
18.1767 0.084
18.2070 0.662
18.2373 -0.322
18.2676 0.048
18.2978 -0.154
18.3281 -0.044
18.3584 0.744
18.3887 0.437
18.4190 0.288
18.4492 0.659
18.4795 0.198
18.5098 0.101
18.5401 -0.308
18.5703 -0.196
18.6006 0.020
18.6309 0.237
18.6612 0.402
18.6915 0.567
18.7217 0.211
18.7520 0.168
18.7823 1.219
18.8126 -0.646
18.8429 -0.012
18.8731 0.311
18.9034 0.686
18.9337 0.384
18.9640 0.290
18.9942 0.145
19.0245 -0.312
19.0548 -0.107
19.0851 1.037
19.1154 0.202
19.1456 0.981
19.1759 0.823
19.2062 0.041
19.2365 0.300
19.2668 1.445
19.2970 0.142
19.3273 0.402
19.3576 0.819
19.3879 0.089
19.4181 0.038
19.4484 0.246
19.4787 0.039
19.5090 0.508
19.5393 0.093
19.5695 0.198
19.5998 -0.008
19.6301 0.722
19.6604 -0.005
19.6907 0.050
19.7209 -0.312
19.7512 -0.158
19.7815 0.100
19.8118 0.151
19.8420 0.149
19.8723 0.252
19.9026 -0.061
19.9329 0.771
19.9632 0.146
19.9934 0.302
20.0237 0.146
20.0540 0.198
20.0843 0.250
20.1146 1.084
20.1448 0.252
20.1751 -0.216
20.2054 0.671
20.2357 0.360
20.2659 0.518
20.2962 0.155
20.3265 -0.468
20.3568 -0.100
20.3871 0.840
20.4173 0.635
20.4476 -0.403
20.4779 0.590
20.5082 0.646
20.5385 -0.236
20.5687 0.862
20.5990 -0.383
20.6293 0.455
20.6596 -0.218
20.6899 -0.056
20.7201 0.418
20.7504 0.267
20.7807 0.013
20.8110 0.540
20.8412 0.494
20.8715 -0.333
20.9018 0.455
20.9321 0.410
20.9624 0.261
20.9926 0.476
21.0229 -0.193
21.0532 0.804
21.0835 0.448
21.1138 0.196
21.1440 -0.161
21.1743 0.161
21.2046 -0.299
21.2349 -0.779
21.2651 1.085
21.2954 0.033
21.3257 0.231
21.3560 0.689
21.3863 0.679
21.4165 -0.320
21.4468 -0.226
21.4771 0.286
21.5074 0.121
21.5377 0.008
21.5679 -0.522
21.5982 0.355
21.6285 0.243
21.6588 0.339
21.6890 0.331
21.7193 0.532
21.7496 -0.725
21.7799 0.778
21.8102 -0.114
21.8404 0.035
21.8707 0.133
21.9010 0.075
21.9313 0.017
21.9616 0.271
21.9918 0.630
22.0221 0.156
22.0524 -0.109
22.0827 0.042
22.1129 0.037
22.1432 0.398
22.1735 0.706
22.2038 0.702
22.2341 0.386
22.2643 0.538
22.2946 0.223
22.3249 0.063
22.3552 0.165
22.3855 0.266
22.4157 0.107
22.4460 -0.051
22.4763 0.103
22.5066 0.102
22.5368 0.152
22.5671 -0.005
22.5974 -0.111
22.6277 -0.372
22.6580 0.513
22.6882 -0.269
22.7185 -0.321
22.7488 -0.164
22.7791 -0.111
22.8094 0.411
22.8396 -0.004
22.8699 0.050
22.9002 0.052
22.9305 0.262
22.9607 0.056
22.9910 0.163
23.0213 -0.095
23.0516 0.377
23.0819 -0.349
23.1121 -0.241
23.1424 -0.133
23.1727 0.183
23.2030 -0.334
23.2333 0.244
23.2635 0.300
23.2938 0.461
23.3241 0.310
23.3544 0.315
23.3846 0.217
23.4149 0.222
23.4452 1.062
23.4755 0.182
23.5058 -0.697
23.5360 0.664
23.5663 0.098
23.5966 1.199
23.6269 0.008
23.6572 0.172
23.6874 0.336
23.7177 0.292
23.7480 -0.065
23.7783 0.048
23.8086 -0.308
23.8388 -0.308
23.8691 -0.464
23.8994 0.369
23.9297 0.265
23.9599 0.995
23.9902 -0.358
24.0205 0.320
24.0508 -0.043
24.0811 0.531
24.1113 0.221
24.1416 0.014
24.1719 -0.192
24.2022 0.227
24.2325 -0.135
24.2627 0.024
24.2930 -0.285
24.3233 0.447
24.3536 -0.278
24.3838 -0.222
24.4141 -0.218
24.4444 -0.683
24.4747 0.311
24.5050 0.264
24.5352 0.946
24.5655 -0.039
24.5958 0.123
24.6261 0.233
24.6564 0.082
24.6866 0.401
24.7169 0.771
24.7472 0.517
24.7775 -0.361
24.8077 0.114
24.8380 -0.035
24.8683 0.545
24.8986 -0.020
24.9289 0.925
24.9591 0.360
24.9894 0.212
25.0197 -0.300
25.0500 0.230
25.0803 -0.126
25.1105 0.456
25.1408 -0.003
25.1711 -0.150
25.2014 0.589
25.2316 0.755
25.2619 0.609
25.2922 0.828
25.3225 0.943
25.3528 -0.088
25.3830 -0.285
25.4133 -0.401
25.4436 0.630
25.4739 0.307
25.5042 0.296
25.5344 0.807
25.5647 0.380
25.5950 0.057
25.6253 0.621
25.6555 0.663
25.6858 -0.023
25.7161 0.020
25.7464 -0.301
25.7767 0.628
25.8069 0.047
25.8372 0.559
25.8675 0.447
25.8978 0.387
25.9281 0.224
25.9583 0.321
25.9886 0.157
26.0189 0.151
26.0492 0.873
26.0794 0.711
26.1097 0.080
26.1400 0.074
26.1703 0.381
26.2006 0.271
26.2308 -0.099
26.2611 0.105
26.2914 0.516
26.3217 0.356
26.3520 0.508
26.3822 -0.069
26.4125 0.604
26.4428 0.652
26.4731 -0.132
26.5034 0.125
26.5336 0.174
26.5639 -0.089
26.5942 0.741
26.6245 0.010
26.6547 -0.148
26.6850 -0.202
26.7153 -0.308
26.7456 0.092
26.7759 0.285
26.8061 0.321
26.8364 0.150
26.8667 -0.022
26.8970 -0.193
26.9273 -0.260
26.9575 0.663
26.9878 0.441
27.0181 0.010
27.0484 0.465
27.0786 0.295
27.1089 0.490
27.1392 -0.044
27.1695 0.360
27.1998 -0.226
27.2300 0.543
27.2603 0.010
27.2906 0.154
27.3209 0.246
27.3512 0.547
27.3814 0.067
27.4117 0.212
27.4420 0.149
27.4723 -0.122
27.5025 0.597
27.5328 0.274
27.5631 0.316
27.5934 0.046
27.6237 -0.016
27.6539 -0.338
27.6842 -0.038
27.7145 1.251
27.7448 -0.377
27.7751 0.079
27.8053 0.119
27.8356 0.419
27.8659 0.563
27.8962 -0.073
27.9264 -0.137
27.9567 -0.044
27.9870 0.413
28.0173 -0.066
28.0476 -0.337
28.0778 -0.139
28.1081 0.892
28.1384 -0.628
28.1687 -0.222
28.1990 0.186
28.2292 -0.032
28.2595 0.219
28.2898 -0.154
28.3201 -0.111
28.3503 0.454
28.3806 -0.127
28.4109 0.906
28.4412 -0.091
28.4715 0.110
28.5017 0.831
28.5320 0.720
28.5623 0.870
28.5926 0.082
28.6229 0.336
28.6531 0.069
28.6834 0.636
28.7137 0.266
28.7440 -0.261
28.7742 -0.266
28.8045 0.198
28.8348 -0.016
28.8651 -0.281
28.8954 -0.546
28.9256 0.440
28.9559 -0.085
28.9862 0.172
29.0165 1.054
29.0468 0.686
29.0770 -0.463
29.1073 0.055
29.1376 -0.365
29.1679 -0.064
29.1981 0.340
29.2284 0.120
29.2587 -0.204
29.2890 0.462
29.3193 0.451
29.3495 0.493
29.3798 0.742
29.4101 -0.206
29.4404 -0.372
29.4707 0.173
29.5009 -0.896
29.5312 0.432
29.5615 -0.429
29.5918 0.170
29.6221 -0.013
29.6523 0.221
29.6826 0.925
29.7129 -0.143
29.7432 0.353
29.7734 0.744
29.8037 0.042
29.8340 0.486
29.8643 0.461
29.8946 0.124
29.9248 -0.369
29.9551 0.753
29.9854 0.313
30.0157 0.914
30.0460 1.360
30.0762 0.347
30.1065 0.481
30.1368 -0.323
30.1671 1.061
30.1973 0.622
30.2276 1.121
30.2579 1.516
30.2882 1.025
30.3185 0.952
30.3487 0.983
30.3790 0.702
30.4093 1.150
30.4396 0.921
30.4699 1.682
30.5001 1.402
30.5304 0.445
30.5607 1.102
30.5910 2.281
30.6212 1.949
30.6515 1.410
30.6818 2.120
30.7121 1.373
30.7424 3.021
30.7726 2.691
30.8029 2.934
30.8332 2.656
30.8635 3.941
30.8938 3.663
30.9240 3.646
30.9543 3.265
30.9846 5.176
31.0149 4.274
31.0451 4.831
31.0754 6.170
31.1057 7.040
31.1360 8.483
31.1663 6.853
31.1965 10.432
31.2268 9.949
31.2571 9.987
31.2874 12.316
31.3177 14.125
31.3479 15.726
31.3782 17.119
31.4085 19.293
31.4388 22.770
31.4690 23.226
31.4993 29.099
31.5296 31.638
31.5599 32.355
31.5902 35.000
31.6204 39.675
31.6507 37.060
31.6810 37.986
31.7113 37.298
31.7416 34.735
31.7718 30.454
31.8021 26.485
31.8324 25.902
31.8627 21.569
31.8929 18.122
31.9232 14.258
31.9535 12.530
31.9838 11.740
32.0141 9.023
32.0443 10.056
32.0746 8.798
32.1049 8.008
32.1352 6.021
32.1655 5.857
32.1957 5.642
32.2260 5.530
32.2563 4.482
32.2866 3.277
32.3169 2.541
32.3471 2.014
32.3774 3.779
32.4077 2.210
32.4380 2.465
32.4682 2.616
32.4985 1.725
32.5288 1.408
32.5591 1.039
32.5894 0.826
32.6196 1.811
32.6499 1.598
32.6802 0.813
32.7105 0.758
32.7408 -0.027
32.7710 1.324
32.8013 0.175
32.8316 0.901
32.8619 0.066
32.8921 -0.249
32.9224 0.530
32.9527 -0.774
32.9830 0.474
33.0133 -0.465
33.0435 0.263
33.0738 0.575
33.1041 -0.311
33.1344 -0.572
33.1647 0.357
33.1949 1.391
33.2252 0.394
33.2555 -0.082
33.2858 0.797
33.3160 0.686
33.3463 1.096
33.3766 1.766
33.4069 0.771
33.4372 0.192
33.4674 1.228
33.4977 2.003
33.5280 0.436
33.5583 0.587
33.5886 1.103
33.6188 1.359
33.6491 0.990
33.6794 0.777
33.7097 1.763
33.7399 1.707
33.7702 2.172
33.8005 3.107
33.8308 4.302
33.8611 4.767
33.8913 3.359
33.9216 5.856
33.9519 5.802
33.9822 5.956
34.0125 10.069
34.0427 8.714
34.0730 11.577
34.1033 15.118
34.1336 16.679
34.1638 20.585
34.1941 25.585
34.2244 32.928
34.2547 41.626
34.2850 47.616
34.3152 44.283
34.3455 40.690
34.3758 37.410
34.4061 33.922
34.4364 27.621
34.4666 18.768
34.4969 15.333
34.5272 14.658
34.5575 12.056
34.5877 9.194
34.6180 8.103
34.6483 5.918
34.6786 6.495
34.7089 5.977
34.7391 4.002
34.7694 4.110
34.7997 4.374
34.8300 3.493
34.8603 4.539
34.8905 3.294
34.9208 2.882
34.9511 3.669
34.9814 3.622
35.0116 4.097
35.0419 3.165
35.0722 1.713
35.1025 3.907
35.1328 4.226
35.1630 3.607
35.1933 3.458
35.2236 3.986
35.2539 4.410
35.2842 3.637
35.3144 3.332
35.3447 4.694
35.3750 5.119
35.4053 5.232
35.4356 6.595
35.4658 5.875
35.4961 7.707
35.5264 8.133
35.5567 6.372
35.5869 9.246
35.6172 11.392
35.6475 12.392
35.6778 12.767
35.7081 13.767
35.7383 17.112
35.7686 16.863
35.7989 19.166
35.8292 21.834
35.8595 25.856
35.8897 28.420
35.9200 30.047
35.9503 39.435
35.9806 39.916
36.0108 45.398
36.0411 48.432
36.0714 51.779
36.1017 56.168
36.1320 53.577
36.1622 56.664
36.1925 52.460
36.2228 53.308
36.2531 46.656
36.2834 41.515
36.3136 38.040
36.3439 33.160
36.3742 28.384
36.4045 25.067
36.4347 21.697
36.4650 18.849
36.4953 16.522
36.5256 15.914
36.5559 12.858
36.5861 11.104
36.6164 11.174
36.6467 10.306
36.6770 9.803
36.7073 6.801
36.7375 6.350
36.7678 6.890
36.7981 5.658
36.8284 5.209
36.8586 3.978
36.8889 4.258
36.9192 3.809
36.9495 2.579
36.9798 3.432
37.0100 3.401
37.0403 2.796
37.0706 2.557
37.1009 1.432
37.1312 3.276
37.1614 2.256
37.1917 1.132
37.2220 2.039
37.2523 1.853
37.2825 1.615
37.3128 1.325
37.3431 0.410
37.3734 1.267
37.4037 0.248
37.4339 0.793
37.4642 1.181
37.4945 0.788
37.5248 -0.386
37.5551 0.889
37.5853 0.705
37.6156 0.938
37.6459 0.390
37.6762 0.259
37.7064 0.129
37.7367 0.415
37.7670 0.441
37.7973 0.779
37.8276 0.597
37.8578 -0.157
37.8881 -0.026
37.9184 -0.468
37.9487 0.081
37.9790 -0.256
38.0092 0.136
38.0395 -0.877
38.0698 0.141
38.1001 -0.143
38.1304 -0.166
38.1606 0.488
38.1909 0.673
38.2212 0.286
38.2515 0.420
38.2817 -0.123
38.3120 0.480
38.3423 -0.166
38.3726 -0.031
38.4029 -0.001
38.4331 -0.490
38.4634 0.114
38.4937 0.510
38.5240 0.386
38.5543 0.053
38.5845 0.762
38.6148 0.691
38.6451 -0.266
38.6754 -0.598
38.7056 0.309
38.7359 -0.347
38.7662 -0.065
38.7965 0.843
38.8268 0.396
38.8570 0.575
38.8873 0.546
38.9176 -0.004
38.9479 -0.242
38.9782 0.094
39.0084 -0.039
39.0387 0.714
39.0690 -0.251
39.0993 0.658
39.1295 -0.307
39.1598 -0.126
39.1901 0.368
39.2204 0.289
39.2507 0.002
39.2809 -0.806
39.3112 0.034
39.3415 0.198
39.3718 -0.003
39.4021 -0.047
39.4323 -0.091
39.4626 0.646
39.4929 0.029
39.5232 -0.327
39.5534 0.672
39.5837 0.212
39.6140 0.169
39.6443 0.439
39.6746 0.189
39.7048 0.303
39.7351 0.782
39.7654 0.532
39.7957 1.011
39.8260 0.033
39.8562 0.304
39.8865 0.003
39.9168 0.535
39.9471 0.495
39.9773 0.247
40.0076 0.467
40.0379 0.688
40.0682 0.180
40.0985 0.713
40.1287 0.414
40.1590 0.532
40.1893 0.493
40.2196 0.403
40.2499 0.469
40.2801 0.535
40.3104 0.289
40.3407 0.252
40.3710 -0.306
40.4012 0.125
40.4315 -0.068
40.4618 -0.260
40.4921 -0.112
40.5224 -0.171
40.5526 0.863
40.5829 -0.290
40.6132 0.276
40.6435 0.114
40.6738 0.003
40.7040 0.414
40.7343 0.147
40.7646 0.662
40.7949 0.032
40.8251 0.496
40.8554 0.438
40.8857 0.277
40.9160 0.377
40.9463 0.633
40.9765 0.160
41.0068 0.365
41.0371 0.257
41.0674 -0.163
41.0977 -0.271
41.1279 0.192
41.1582 0.602
41.1885 0.179
41.2188 0.225
41.2491 0.584
41.2793 0.371
41.3096 0.522
41.3399 0.361
41.3702 -0.582
41.4004 -0.222
41.4307 0.399
41.4610 0.030
41.4913 0.339
41.5216 0.127
41.5518 0.332
41.5821 0.589
41.6124 0.066
41.6427 -0.302
41.6730 0.165
41.7032 -0.411
41.7335 -0.048
41.7638 0.054
41.7941 0.573
41.8243 0.155
41.8546 0.310
41.8849 -0.003
41.9152 -0.316
41.9455 0.204
41.9757 0.308
42.0060 0.360
42.0363 -0.004
42.0666 0.361
42.0969 -0.055
42.1271 -0.367
42.1574 0.832
42.1877 0.104
42.2180 0.262
42.2482 -0.205
42.2785 -0.151
42.3088 -0.045
42.3391 0.687
42.3694 0.012
42.3996 0.640
42.4299 0.331
42.4602 0.386
42.4905 -0.287
42.5208 0.029
42.5510 0.189
42.5813 -0.276
42.6116 -0.230
42.6419 -0.079
42.6721 0.436
42.7024 0.066
42.7327 -0.044
42.7630 0.264
42.7933 0.103
42.8235 -0.058
42.8538 0.198
42.8841 -0.067
42.9144 -0.383
42.9447 0.186
42.9749 -0.078
43.0052 -0.393
43.0355 0.437
43.0658 -0.191
43.0960 0.431
43.1263 -0.300
43.1566 -0.146
43.1869 0.008
43.2172 0.059
43.2474 -0.047
43.2777 0.473
43.3080 -0.049
43.3383 -0.154
43.3686 0.106
43.3988 -0.311
43.4291 -0.057
43.4594 -0.272
43.4897 -0.069
43.5199 -0.231
43.5502 0.180
43.5805 0.279
43.6108 0.274
43.6411 -0.251
43.6713 0.005
43.7016 0.313
43.7319 -0.264
43.7622 -0.060
43.7925 -0.063
43.8227 0.090
43.8530 0.138
43.8833 -0.073
43.9136 -0.076
43.9439 0.078
43.9741 0.076
44.0044 0.022
44.0347 0.124
44.0650 -0.086
44.0952 0.746
44.1255 -0.453
44.1558 -0.089
44.1861 0.014
44.2164 0.013
44.2466 -0.143
44.2769 -0.299
44.3072 0.222
44.3375 -0.143
44.3678 -0.350
44.3980 0.588
44.4283 -0.400
44.4586 0.017
44.4889 0.123
44.5191 0.073
44.5494 0.179
44.5797 -0.131
44.6100 -0.442
44.6403 0.186
44.6705 -0.124
44.7008 0.139
44.7311 -0.171
44.7614 0.197
44.7917 0.617
44.8219 0.412
44.8522 -0.209
44.8825 0.993
44.9128 0.320
44.9430 0.012
44.9733 0.225
45.0036 -0.238
45.0339 -0.285
45.0642 0.126
45.0944 0.538
45.1247 0.326
45.1550 -0.043
45.1853 0.161
45.2156 0.105
45.2458 0.518
45.2761 0.098
45.3064 0.199
45.3367 -0.481
45.3669 0.194
45.3972 -0.173
45.4275 0.189
45.4578 0.447
45.4881 0.185
45.5183 0.027
45.5486 0.234
45.5789 0.233
45.6092 0.388
45.6395 0.127
45.6697 0.231
45.7000 0.699
45.7303 -0.186
45.7606 -0.290
45.7908 -0.037
45.8211 0.372
45.8514 0.260
45.8817 0.513
45.9120 0.090
45.9422 0.083
45.9725 0.024
46.0028 -0.295
46.0331 -0.042
46.0634 0.524
46.0936 0.621
46.1239 0.562
46.1542 0.034
46.1845 0.549
46.2147 0.595
46.2450 0.172
46.2753 0.635
46.3056 0.525
46.3359 0.051
46.3661 0.515
46.3964 0.458
46.4267 0.089
46.4570 0.865
46.4873 0.549
46.5175 0.493
46.5478 0.854
46.5781 0.017
46.6084 0.847
46.6386 1.000
46.6689 1.101
46.6992 0.994
46.7295 0.731
46.7598 1.510
46.7900 0.727
46.8203 0.830
46.8506 1.766
46.8809 2.493
46.9112 3.169
46.9414 3.012
46.9717 2.699
47.0020 2.751
47.0323 2.699
47.0626 3.219
47.0928 3.897
47.1231 5.356
47.1534 5.252
47.1837 5.878
47.2139 6.765
47.2442 8.433
47.2745 7.705
47.3048 8.228
47.3351 10.105
47.3653 10.159
47.3956 11.255
47.4259 10.373
47.4562 9.698
47.4865 10.379
47.5167 9.653
47.5470 9.761
47.5773 7.733
47.6076 8.154
47.6378 7.116
47.6681 4.986
47.6984 5.407
47.7287 4.266
47.7590 2.917
47.7892 2.870
47.8195 2.824
47.8498 2.153
47.8801 1.898
47.9104 1.904
47.9406 1.651
47.9709 2.282
48.0012 1.716
48.0315 1.411
48.0617 1.418
48.0920 1.530
48.1223 1.746
48.1526 0.817
48.1829 0.981
48.2131 0.625
48.2434 1.103
48.2737 0.851
48.3040 0.340
48.3343 0.037
48.3645 0.150
48.3948 0.525
48.4251 0.431
48.4554 0.545
48.4856 0.087
48.5159 0.306
48.5462 1.202
48.5765 0.380
48.6068 0.444
48.6370 0.455
48.6673 0.571
48.6976 -0.146
48.7279 0.179
48.7582 0.348
48.7884 -0.108
48.8187 1.050
48.8490 0.647
48.8793 0.296
48.9095 0.934
48.9398 0.167
48.9701 0.077
49.0004 0.195
49.0307 0.106
49.0609 0.693
49.0912 0.135
49.1215 0.671
49.1518 0.791
49.1821 0.182
49.2123 -0.011
49.2426 -0.255
49.2729 -0.210
49.3032 0.461
49.3334 0.350
49.3637 0.709
49.3940 0.442
49.4243 0.437
49.4546 -0.298
49.4848 0.218
49.5151 0.421
49.5454 0.416
49.5757 0.047
49.6060 0.355
49.6362 0.299
49.6665 0.452
49.6968 0.344
49.7271 0.913
49.7574 0.546
49.7876 0.491
49.8179 0.488
49.8482 -0.036
49.8785 0.431
49.9087 -0.352
49.9390 0.114
49.9693 0.373
49.9996 -0.305
50.0299 0.214
50.0601 -0.307
50.0904 0.161
50.1207 0.004
50.1510 -0.205
50.1813 0.160
50.2115 0.420
50.2418 -0.048
50.2721 0.577
50.3024 0.630
50.3326 0.475
50.3629 0.060
50.3932 0.061
50.4235 0.792
50.4538 1.107
50.4840 0.380
50.5143 -0.139
50.5446 0.020
50.5749 -0.186
50.6052 0.390
50.6354 -0.127
50.6657 0.033
50.6960 -0.328
50.7263 0.249
50.7565 0.044
50.7868 -0.107
50.8171 -0.311
50.8474 0.163
50.8777 0.011
50.9079 0.382
50.9382 0.075
50.9685 0.028
50.9988 0.399
51.0291 0.093
51.0593 -0.317
51.0896 0.523
51.1199 0.530
51.1502 0.537
51.1804 0.545
51.2107 0.761
51.2410 -0.169
51.2713 0.256
51.3016 0.785
51.3318 0.533
51.3621 -0.187
51.3924 0.707
51.4227 0.039
51.4530 0.205
51.4832 -0.046
51.5135 -0.244
51.5438 0.057
51.5741 0.306
51.6043 0.816
51.6346 0.024
51.6649 0.014
51.6952 0.004
51.7255 0.046
51.7557 0.401
51.7860 0.391
51.8163 0.173
51.8466 0.321
51.8769 -0.053
51.9071 -0.061
51.9374 0.138
51.9677 -0.391
51.9980 0.904
52.0282 -0.302
52.0585 0.420
52.0888 -0.057
52.1191 0.249
52.1494 0.034
52.1796 0.131
52.2099 -0.344
52.2402 -0.038
52.2705 0.425
52.3008 -0.206
52.3310 -0.003
52.3613 -0.112
52.3916 0.039
52.4219 0.034
52.4521 0.134
52.4824 0.233
52.5127 -0.031
52.5430 0.382
52.5733 0.117
52.6035 0.166
52.6338 -0.358
52.6641 0.056
52.6944 0.209
52.7247 -0.106
52.7549 -0.109
52.7852 -0.111
52.8155 0.252
52.8458 0.094
52.8761 0.092
52.9063 -0.065
52.9366 -0.066
52.9669 0.298
52.9972 -0.432
53.0274 -0.120
53.0577 -0.120
53.0880 0.140
53.1183 0.297
53.1486 0.089
53.1788 0.506
53.2091 0.351
53.2394 -0.273
53.2697 0.145
53.3000 -0.322
53.3302 0.201
53.3605 -0.422
53.3908 0.726
53.4211 -0.574
53.4513 0.263
53.4816 -0.203
53.5119 0.060
53.5422 -0.145
53.5725 0.536
53.6027 0.175
53.6330 0.179
53.6633 0.028
53.6936 0.188
53.7239 0.141
53.7541 -0.167
53.7844 -0.266
53.8147 0.185
53.8450 0.012
53.8752 -0.162
53.9055 0.134
53.9358 -0.092
53.9661 -0.108
53.9964 0.032
54.0266 -0.609
54.0569 0.156
54.0872 -0.016
54.1175 -0.032
54.1478 0.370
54.1780 0.146
54.2083 -0.077
54.2386 -0.039
54.2689 0.207
54.2991 -0.120
54.3294 -0.290
54.3597 0.061
54.3900 0.516
54.4203 0.294
54.4505 -0.084
54.4808 -0.045
54.5111 0.463
54.5414 -0.174
54.5717 -0.291
54.6019 -0.251
54.6322 -0.055
54.6625 0.090
54.6928 -0.026
54.7230 0.276
54.7533 -0.308
54.7836 -0.111
54.8139 0.243
54.8442 0.024
54.8744 -0.298
54.9047 -0.308
54.9350 0.306
54.9653 -0.174
54.9956 0.127
55.0258 0.586
55.0561 0.211
55.0864 -0.008
55.1167 -0.070
55.1469 0.181
55.1772 0.015
55.2075 0.995
55.2378 0.205
55.2681 0.873
55.2983 -0.177
55.3286 0.023
55.3589 0.015
55.3892 0.684
55.4195 0.468
55.4497 0.148
55.4800 1.339
55.5103 0.290
55.5406 0.804
55.5709 0.849
55.6011 0.635
55.6314 1.462
55.6617 1.039
55.6920 1.398
55.7222 1.028
55.7525 1.491
55.7828 0.913
55.8131 1.273
55.8434 1.321
55.8736 1.473
55.9039 3.083
55.9342 2.246
55.9645 2.607
55.9948 2.968
56.0250 3.433
56.0553 4.732
56.0856 4.313
56.1159 4.987
56.1461 6.131
56.1764 5.452
56.2067 5.710
56.2370 7.167
56.2673 7.842
56.2975 9.560
56.3278 10.028
56.3581 10.652
56.3884 12.422
56.4187 12.109
56.4489 13.724
56.4792 12.526
56.5095 12.057
56.5398 12.162
56.5700 12.840
56.6003 10.966
56.6306 9.561
56.6609 9.875
56.6912 8.678
56.7214 7.326
56.7517 7.432
56.7820 7.122
56.8123 5.250
56.8426 5.148
56.8728 4.683
56.9031 3.800
56.9334 3.700
56.9637 3.130
56.9939 2.926
57.0242 2.097
57.0545 2.934
57.0848 1.793
57.1151 1.850
57.1453 1.751
57.1756 1.496
57.2059 0.876
57.2362 1.246
57.2665 1.148
57.2967 0.529
57.3270 1.004
57.3573 0.750
57.3876 1.226
57.4178 0.243
57.4481 0.667
57.4784 0.675
57.5087 0.526
57.5390 0.430
57.5692 1.584
57.5995 1.175
57.6298 0.090
57.6601 0.463
57.6904 0.525
57.7206 0.378
57.7509 0.074
57.7812 0.136
57.8115 0.302
57.8417 -0.312
57.8720 -0.562
57.9023 1.168
57.9326 -0.435
57.9629 -0.267
57.9931 0.318
58.0234 -0.294
58.0537 0.135
58.0840 0.252
58.1143 -0.100
58.1445 -0.139
58.1748 -0.021
58.2051 -0.060
58.2354 0.110
58.2656 0.176
58.2959 -0.018
58.3262 -0.211
58.3565 0.116
58.3868 0.079
58.4170 0.250
58.4473 0.005
58.4776 -0.500
58.5079 0.401
58.5382 -0.052
58.5684 -0.140
58.5987 -0.175
58.6290 0.571
58.6593 -0.193
58.6896 -0.280
58.7198 0.035
58.7501 -0.065
58.7804 0.251
58.8107 -0.214
58.8409 0.520
58.8712 0.003
58.9015 0.477
58.9318 0.013
58.9621 0.330
58.9923 -0.029
59.0226 0.602
59.0529 0.555
59.0832 -0.428
59.1135 -0.161
59.1437 -0.415
59.1740 0.205
59.2043 -0.059
59.2346 0.093
59.2648 -0.015
59.2951 0.086
59.3254 0.291
59.3557 0.184
59.3860 -0.184
59.4162 -0.082
59.4465 0.436
59.4768 -0.243
59.5071 0.068
59.5374 0.327
59.5676 -0.196
59.5979 0.063
59.6282 -0.094
59.6585 0.374
59.6887 -0.251
59.7190 -0.721
59.7493 0.477
59.7796 0.009
59.8099 0.165
59.8401 0.322
59.8704 -0.511
59.9007 -0.145
59.9310 0.637
59.9613 0.170
59.9915 0.536
60.0218 0.017
60.0521 -0.085
60.0824 -0.343
60.1126 0.337
60.1429 0.183
60.1732 0.343
60.2035 -0.227
60.2338 -0.276
60.2640 0.079
60.2943 -0.296
60.3246 0.110
60.3549 0.413
60.3852 -0.742
60.4154 -0.178
60.4457 -0.031
60.4760 0.272
60.5063 0.264
60.5365 -0.161
60.5668 0.455
60.5971 0.083
60.6274 -0.081
60.6577 -0.037
60.6879 0.060
60.7182 -0.363
60.7485 -0.011
60.7788 0.185
60.8091 -0.192
60.8393 -0.100
60.8696 -0.059
60.8999 0.607
60.9302 0.022
60.9604 0.324
60.9907 -0.572
61.0210 -0.010
61.0513 -0.228
61.0816 0.387
61.1118 -0.092
61.1421 0.055
61.1724 -0.007
61.2027 0.297
61.2330 -0.442
61.2632 -0.244
61.2935 0.579
61.3238 -0.473
61.3541 -0.274
61.3844 0.549
61.4146 -0.346
61.4449 0.426
61.4752 0.261
61.5055 0.512
61.5357 -0.173
61.5660 0.027
61.5963 -0.190
61.6266 0.167
61.6569 0.055
61.6871 -0.109
61.7174 0.248
61.7477 0.606
61.7780 0.182
61.8083 0.332
61.8385 0.742
61.8688 0.267
61.8991 0.626
61.9294 0.255
61.9596 0.667
61.9899 0.922
62.0202 0.708
62.0505 0.808
62.0808 1.532
62.1110 1.476
62.1413 1.419
62.1716 1.832
62.2019 2.089
62.2322 1.981
62.2624 2.238
62.2927 2.444
62.3230 2.910
62.3533 3.584
62.3835 3.946
62.4138 3.736
62.4441 5.036
62.4744 6.076
62.5047 6.074
62.5349 7.740
62.5652 7.686
62.5955 7.946
62.6258 7.685
62.6561 9.716
62.6863 9.351
62.7166 10.549
62.7469 10.549
62.7772 12.060
62.8074 13.155
62.8377 11.437
62.8680 11.907
62.8983 8.731
62.9286 7.743
62.9588 8.214
62.9891 5.716
63.0194 6.083
63.0497 6.085
63.0800 5.307
63.1102 4.164
63.1405 4.948
63.1708 2.868
63.2011 2.820
63.2313 3.866
63.2616 2.672
63.2919 2.520
63.3222 1.899
63.3525 0.810
63.3827 1.076
63.4130 0.977
63.4433 0.774
63.4736 0.831
63.5039 0.316
63.5341 0.948
63.5644 1.371
63.5947 0.856
63.6250 0.134
63.6552 0.662
63.6855 0.148
63.7158 0.676
63.7461 -0.254
63.7764 -0.194
63.8066 0.700
63.8369 0.396
63.8672 0.665
63.8975 0.413
63.9278 0.370
63.9580 0.327
63.9883 0.076
64.0186 -0.019
64.0489 0.200
64.0791 0.418
64.1094 0.220
64.1397 0.022
64.1700 -0.123
64.2003 0.252
64.2305 0.472
64.2608 0.483
64.2911 0.078
64.3214 -0.170
64.3517 0.206
64.3819 0.063
64.4122 0.440
64.4425 0.192
64.4728 -0.524
64.5031 0.427
64.5333 0.648
64.5636 0.610
64.5939 0.259
64.6242 0.221
64.6544 -0.285
64.6847 -0.385
64.7150 0.558
64.7453 0.094
64.7756 0.048
64.8058 -0.051
64.8361 -0.253
64.8664 0.482
64.8967 -0.033
64.9270 -0.130
64.9572 0.189
64.9875 -0.221
65.0178 0.255
65.0481 0.419
65.0783 0.010
65.1086 0.174
65.1389 0.547
65.1692 0.191
65.1995 0.147
65.2297 0.416
65.2600 0.009
65.2903 -0.190
65.3206 -0.337
65.3509 0.217
65.3811 0.095
65.4114 0.546
65.4417 0.320
65.4720 -0.583
65.5022 0.546
65.5325 -0.096
65.5628 0.356
65.5931 0.547
65.6234 0.635
65.6536 0.723
65.6839 0.447
65.7142 0.483
65.7445 -0.053
65.7748 -0.433
65.8050 1.323
65.8353 0.319
65.8656 0.304
65.8959 0.290
65.9261 0.953
65.9564 1.512
65.9867 0.456
66.0170 1.537
66.0473 1.732
66.0775 0.521
66.1078 1.394
66.1381 1.798
66.1684 1.317
66.1987 0.992
66.2289 0.876
66.2592 1.385
66.2895 1.790
66.3198 0.894
66.3500 1.456
66.3803 1.497
66.4106 1.278
66.4409 1.216
66.4712 0.997
66.5014 0.779
66.5317 0.353
66.5620 1.177
66.5923 0.855
66.6226 2.044
66.6528 0.733
66.6831 0.516
66.7134 0.404
66.7437 0.604
66.7739 1.065
66.8042 0.120
66.8345 0.165
66.8648 0.053
66.8951 0.567
66.9253 1.029
66.9556 0.658
66.9859 1.016
67.0162 0.489
67.0465 0.900
67.0767 1.051
67.1070 1.097
67.1373 1.301
67.1676 0.983
67.1978 1.551
67.2281 1.807
67.2584 1.907
67.2887 1.017
67.3190 1.743
67.3492 3.093
67.3795 2.048
67.4098 2.045
67.4401 2.407
67.4704 2.560
67.5006 4.068
67.5309 3.597
67.5612 4.376
67.5915 4.843
67.6218 5.571
67.6520 4.111
67.6823 6.870
67.7126 5.671
67.7429 7.181
67.7731 6.035
67.8034 8.066
67.8337 8.170
67.8640 8.014
67.8943 6.139
67.9245 6.296
67.9548 6.818
67.9851 7.235
68.0154 5.414
68.0457 5.363
68.0759 4.323
68.1062 4.325
68.1365 4.431
68.1668 3.288
68.1970 3.968
68.2273 3.502
68.2576 3.453
68.2879 3.404
68.3182 4.397
68.3484 2.213
68.3787 2.478
68.4090 2.899
68.4393 2.434
68.4696 2.543
68.4998 2.339
68.5301 2.032
68.5604 2.506
68.5907 2.720
68.6209 1.944
68.6512 2.002
68.6815 2.946
68.7118 2.484
68.7421 1.918
68.7723 2.810
68.8026 1.931
68.8329 3.866
68.8632 2.884
68.8935 3.673
68.9237 3.368
68.9540 3.793
68.9843 3.645
69.0146 2.977
69.0448 2.986
69.0751 2.995
69.1054 3.264
69.1357 3.430
69.1660 2.503
69.1962 2.877
69.2265 2.314
69.2568 2.637
69.2871 2.023
69.3174 1.669
69.3476 1.420
69.3779 0.858
69.4082 1.807
69.4385 0.882
69.4687 0.164
69.4990 1.270
69.5293 0.606
69.5596 0.775
69.5899 0.423
69.6201 -0.085
69.6504 0.189
69.6807 0.515
69.7110 0.425
69.7413 -0.239
69.7715 0.661
69.8018 0.103
69.8321 0.065
69.8624 0.132
69.8926 0.720
69.9229 -0.046
69.9532 0.334
69.9835 0.090
70.0138 0.054
70.0440 -0.086
70.0743 0.034
70.1046 0.259
70.1349 -0.245
70.1652 -0.124
70.1954 0.258
70.2257 0.016
70.2560 0.450
70.2863 0.208
70.3166 0.174
70.3468 0.400
70.3771 -0.622
70.4074 0.282
70.4377 -0.064
70.4679 0.008
70.4982 -0.285
70.5285 0.037
70.5588 0.255
70.5891 0.004
70.6193 0.066
70.6496 -0.288
70.6799 0.191
70.7102 -0.163
70.7405 0.213
70.7707 -0.453
70.8010 0.340
70.8313 -0.378
70.8616 -0.001
70.8918 -0.250
70.9221 0.007
70.9524 -0.206
70.9827 0.259
71.0130 0.204
71.0432 -0.112
71.0735 0.042
71.1038 0.299
71.1341 -0.172
71.1644 -0.226
71.1946 -0.229
71.2249 0.290
71.2552 0.185
71.2855 0.079
71.3157 -0.808
71.3460 0.337
71.3763 0.076
71.4066 -0.133
71.4369 0.023
71.4671 -0.341
71.4974 0.388
71.5277 -0.028
71.5580 -0.236
71.5883 0.025
71.6185 -0.026
71.6488 -0.546
71.6791 0.079
71.7094 -0.390
71.7396 0.756
71.7699 0.184
71.8002 -0.180
71.8305 0.237
71.8608 0.550
71.8910 0.448
71.9213 -0.228
71.9516 0.138
71.9819 0.296
72.0122 0.142
72.0424 -0.012
72.0727 0.095
72.1030 -0.163
72.1333 -0.003
72.1635 -0.104
72.1938 0.628
72.2241 -0.149
72.2544 0.011
72.2847 0.379
72.3149 0.592
72.3452 0.597
72.3755 0.289
72.4058 0.606
72.4361 0.612
72.4663 0.721
72.4966 0.831
72.5269 0.837
72.5572 0.635
72.5874 0.902
72.6177 0.075
72.6480 0.759
72.6783 0.557
72.7086 0.617
72.7388 0.312
72.7691 0.371
72.7994 0.275
72.8297 -0.133
72.8600 -0.229
72.8902 0.300
72.9205 0.153
72.9508 0.578
72.9811 0.119
73.0113 -0.080
73.0416 -0.070
73.0719 -0.008
73.1022 -0.154
73.1325 0.273
73.1627 0.075
73.1930 -0.227
73.2233 0.097
73.2536 0.056
73.2839 0.328
73.3141 -0.025
73.3444 0.351
73.3747 -0.053
73.4050 -0.249
73.4353 0.128
73.4655 -0.328
73.4958 0.154
73.5261 0.167
73.5564 0.597
73.5866 0.246
73.6169 -0.208
73.6472 -0.315
73.6775 0.620
73.7078 0.201
73.7380 0.407
73.7683 0.145
73.7986 0.716
73.8289 0.141
73.8592 0.088
73.8894 0.712
73.9197 -0.174
73.9500 0.242
73.9803 0.138
74.0105 0.554
74.0408 0.346
74.0711 0.294
74.1014 -0.070
74.1317 -0.017
74.1619 0.036
74.1922 0.194
74.2225 0.091
74.2528 0.145
74.2831 0.303
74.3133 -0.164
74.3436 0.359
74.3739 -0.263
74.4042 -0.208
74.4344 0.098
74.4647 -0.168
74.4950 0.556
74.5253 0.082
74.5556 0.077
74.5858 0.072
74.6161 0.380
74.6464 0.012
74.6767 0.164
74.7070 -0.361
74.7372 -0.052
74.7675 -0.003
74.7978 0.150
74.8281 0.355
74.8583 -0.012
74.8886 0.194
74.9189 0.348
74.9492 0.033
74.9795 -0.177
75.0097 0.082
75.0400 -0.024
75.0703 -0.025
75.1006 0.078
75.1309 0.546
75.1611 -0.079
75.1914 0.129
75.2217 0.337
75.2520 0.181
75.2822 -0.131
75.3125 -0.026
75.3428 -0.078
75.3731 -0.337
75.4034 0.122
75.4336 0.165
75.4639 -0.156
75.4942 -0.269
75.5245 0.555
75.5548 -0.442
75.5850 0.018
75.6153 0.062
75.6456 0.159
75.6759 0.256
75.7061 -0.012
75.7364 0.085
75.7667 -0.026
75.7970 -0.032
75.8273 -0.039
75.8575 0.059
75.8878 0.053
75.9181 0.152
75.9484 0.094
75.9787 0.662
76.0089 0.345
76.0392 -0.077
76.0695 -0.029
76.0998 0.227
76.1301 0.535
76.1603 0.323
76.1906 0.111
76.2209 0.160
76.2512 0.469
76.2814 0.310
76.3117 0.099
76.3420 0.356
76.3723 -0.115
76.4026 0.560
76.4328 -0.014
76.4631 0.088
76.4934 0.035
76.5237 0.502
76.5540 0.605
76.5842 0.552
76.6145 0.604
76.6448 0.812
76.6751 0.916
76.7053 0.864
76.7356 0.760
76.7659 0.240
76.7962 -0.020
76.8265 0.659
76.8567 0.764
76.8870 1.390
76.9173 0.923
76.9476 0.873
76.9779 0.563
77.0081 0.982
77.0384 0.359
77.0687 0.987
77.0990 0.574
77.1292 0.369
77.1595 0.580
77.1898 0.428
77.2201 0.380
77.2504 0.228
77.2806 0.857
77.3109 -0.076
77.3412 0.814
77.3715 0.090
77.4018 0.512
77.4320 0.049
77.4623 0.367
77.4926 0.321
77.5229 -0.090
77.5531 0.646
77.5834 0.600
77.6137 0.347
77.6440 0.406
77.6743 -0.003
77.7045 0.160
77.7348 -0.040
77.7651 0.384
77.7954 0.392
77.8257 0.036
77.8559 0.097
77.8862 -0.467
77.9165 -0.048
77.9468 0.371
77.9770 0.217
78.0073 0.064
78.0376 -0.037
78.0679 0.070
78.0982 0.387
78.1284 -0.131
78.1587 0.551
78.1890 0.034
78.2193 0.247
78.2496 -0.061
78.2798 -0.108
78.3101 0.210
78.3404 0.267
78.3707 0.116
78.4009 0.591
78.4312 0.284
78.4615 -0.022
78.4918 0.141
78.5221 0.096
78.5523 0.571
78.5826 -0.151
78.6129 0.169
78.6432 0.385
78.6735 0.341
78.7037 -0.224
78.7340 -0.112
78.7643 0.209
78.7946 0.426
78.8248 -0.190
78.8551 -0.233
78.8854 0.234
78.9157 0.388
78.9460 -0.134
78.9762 -0.031
79.0065 0.072
79.0368 0.175
79.0671 0.122
79.0974 0.330
79.1276 -0.035
79.1579 0.173
79.1882 -0.035
79.2185 0.851
79.2488 0.018
79.2790 0.227
79.3093 0.176
79.3396 0.490
79.3699 0.283
79.4001 0.077
79.4304 -0.026
79.4607 0.029
79.4910 0.291
79.5213 0.190
79.5515 0.505
79.5818 0.716
79.6121 0.511
79.6424 0.359
79.6727 0.154
79.7029 -0.311
79.7332 -0.110
79.7635 0.092
79.7938 0.293
79.8240 0.235
79.8543 0.437
79.8846 0.483
79.9149 0.321
79.9452 0.315
79.9754 0.466
80.0057 0.409
80.0360 0.352
80.0663 0.347
80.0966 -0.334
80.1268 0.495
80.1571 -0.030
80.1874 0.122
80.2177 0.275
80.2479 -0.093
80.2782 -0.096
80.3085 0.370
80.3388 -0.258
80.3691 -0.208
80.3993 0.306
80.4296 0.092
80.4599 0.502
80.4902 -0.180
80.5205 0.179
80.5507 -0.139
80.5810 0.116
80.6113 0.320
80.6416 0.159
80.6718 -0.001
80.7021 -0.214
80.7324 0.199
80.7627 0.664
80.7930 0.088
80.8232 0.136
80.8535 0.498
80.8838 -0.026
80.9141 0.493
80.9444 0.178
80.9746 0.124
81.0049 0.642
81.0352 0.016
81.0655 0.431
81.0957 0.378
81.1260 0.168
81.1563 0.428
81.1866 0.480
81.2169 0.531
81.2471 0.844
81.2774 0.063
81.3077 0.532
81.3380 0.480
81.3683 1.314
81.3985 0.221
81.4288 0.327
81.4591 0.068
81.4894 0.174
81.5196 -0.137
81.5499 -0.187
81.5802 0.024
81.6105 0.651
81.6408 1.019
81.6710 0.293
81.7013 0.140
81.7316 0.143
81.7619 0.355
81.7922 0.307
81.8224 0.311
81.8527 0.315
81.8830 -0.305
81.9133 0.168
81.9436 0.017
81.9738 -0.290
82.0041 0.132
82.0344 0.086
82.0647 0.404
82.0949 0.098
82.1252 0.156
82.1555 0.006
82.1858 0.013
82.2161 0.020
82.2463 -0.025
82.2766 0.400
82.3069 0.251
82.3372 0.259
82.3675 -0.202
82.3977 -0.245
82.4280 0.286
82.4583 0.243
82.4886 0.253
82.5188 0.107
82.5491 0.169
82.5794 -0.132
82.6097 0.347
82.6400 0.306
82.6702 0.630
82.7005 0.172
82.7308 -0.337
82.7611 -0.137
82.7914 0.375
82.8216 0.158
82.8519 0.306
82.8822 0.297
82.9125 -0.179
82.9427 -0.187
82.9730 0.274
83.0033 0.163
83.0336 0.156
83.0639 0.097
83.0941 0.143
83.1244 -0.020
83.1547 0.339
83.1850 0.385
83.2153 0.119
83.2455 0.113
83.2758 0.420
83.3061 -0.157
83.3364 0.202
83.3666 -0.011
83.3969 0.193
83.4272 0.189
83.4575 -0.335
83.4878 -0.027
83.5180 -0.290
83.5483 0.175
83.5786 -0.297
83.6089 -0.039
83.6392 0.427
83.6694 -0.408
83.6997 0.319
83.7300 0.160
83.7603 0.263
83.7905 0.105
83.8208 0.156
83.8511 -0.053
83.8814 -0.106
83.9117 0.102
83.9419 0.570
83.9722 -0.159
84.0025 0.466
84.0328 -0.263
84.0631 0.311
84.0933 -0.053
84.1236 -0.208
84.1539 -0.157
84.1842 0.051
84.2144 0.676
84.2447 -0.157
84.2750 0.208
84.3053 0.157
84.3356 -0.311
84.3658 -0.104
84.3961 -0.418
84.4264 0.362
84.4567 0.414
84.4870 -0.004
84.5172 0.517
84.5475 0.152
84.5778 -0.265
84.6081 -0.056
84.6383 0.153
84.6686 -0.315
84.6989 0.050
84.7292 0.156
84.7595 0.157
84.7897 0.367
84.8200 0.057
84.8503 -0.202
84.8806 0.269
84.9109 0.116
84.9411 -0.090
84.9714 -0.087
85.0017 0.333
85.0320 0.284
85.0623 0.184
85.0925 -0.073
85.1228 0.139
85.1531 0.352
85.1834 0.044
85.2136 -0.003
85.2439 -0.363
85.2742 0.051
85.3045 0.153
85.3348 0.151
85.3650 -0.215
85.3953 0.044
85.4256 0.042
85.4559 0.406
85.4862 -0.064
85.5164 0.196
85.5467 0.091
85.5770 0.299
85.6073 0.091
85.6375 -0.013
85.6678 0.561
85.6981 0.145
85.7284 -0.219
85.7587 -0.010
85.7889 0.252
85.8192 0.358
85.8495 0.099
85.8798 0.205
85.9101 -0.157
85.9403 -0.519
85.9706 0.210
86.0009 0.210
86.0312 0.106
86.0614 -0.258
86.0917 0.003
86.1220 -0.152
86.1523 0.214
86.1826 0.163
86.2128 -0.512
86.2431 0.271
86.2734 0.221
86.3037 0.119
86.3340 0.070
86.3642 0.020
86.3945 -0.081
86.4248 -0.130
86.4551 -0.022
86.4853 0.242
86.5156 0.090
86.5459 -0.063
86.5762 0.254
86.6065 0.155
86.6367 -0.205
86.6670 -0.044
86.6973 -0.195
86.7276 0.006
86.7579 -0.210
86.7881 0.252
86.8184 0.037
86.8487 0.551
86.8790 0.232
86.9092 -0.034
86.9395 0.220
86.9698 0.371
87.0001 -0.155
87.0304 0.048
87.0606 0.251
87.0909 0.194
87.1212 -0.279
87.1515 0.081
87.1818 -0.236
87.2120 0.177
87.2423 0.069
87.2726 0.951
87.3029 -0.302
87.3331 -0.097
87.3634 0.005
87.3937 0.106
87.4240 0.260
87.4543 0.154
87.4845 0.152
87.5148 0.046
87.5451 0.462
87.5754 0.044
87.6057 -0.218
87.6359 0.094
87.6662 0.198
87.6965 0.145
87.7268 0.145
87.7571 -0.167
87.7873 0.458
87.8176 0.094
87.8479 0.095
87.8782 0.304
87.9084 0.201
87.9387 0.151
87.9690 0.204
87.9993 0.102
88.0296 -0.208
88.0598 -0.325
88.0901 0.339
88.1204 0.015
88.1507 0.628
88.1810 0.095
88.2112 0.396
88.2415 0.541
88.2718 -0.147
88.3021 0.467
88.3323 -0.273
88.3626 0.029
88.3929 -0.034
88.4232 0.269
88.4535 0.467
88.4837 -0.167
88.5140 -0.020
88.5443 0.023
88.5746 0.430
88.6049 0.265
88.6351 -0.108
88.6654 0.405
88.6957 0.397
88.7260 0.389
88.7562 0.486
88.7865 0.426
88.8168 0.732
88.8471 -0.004
88.8774 0.093
88.9076 0.816
88.9379 0.497
88.9682 0.647
88.9985 0.485
89.0288 0.844
89.0590 1.099
89.0893 0.157
89.1196 -0.004
89.1499 1.345
89.1801 1.445
89.2104 0.920
89.2407 0.291
89.2710 1.120
89.3013 1.377
89.3315 1.217
89.3618 0.902
89.3921 1.680
89.4224 1.313
89.4527 1.623
89.4829 1.308
89.5132 1.671
89.5435 1.617
89.5738 1.199
89.6040 0.729
89.6343 0.884
89.6646 1.456
89.6949 1.872
89.7252 1.871
89.7554 1.194
89.7857 1.350
89.8160 0.934
89.8463 0.778
89.8766 0.727
89.9068 1.196
89.9371 0.208
89.9674 0.574
89.9977 0.575
90.0279 0.785
90.0582 0.319
90.0885 0.269
90.1188 0.428
90.1491 0.066
90.1793 0.225
90.2096 0.593
90.2399 -0.081
90.2702 -0.338
90.3005 0.655
90.3307 0.191
90.3610 0.299
90.3913 0.147
90.4216 0.048
90.4518 0.157
90.4821 -0.255
90.5124 0.324
90.5427 -0.140
90.5730 0.335
90.6032 0.237
90.6335 -0.226
90.6638 0.302
90.6941 -0.108
90.7244 -0.206
90.7546 -0.042
90.7849 0.017
90.8152 -0.340
90.8455 0.293
90.8758 -0.012
90.9060 0.309
90.9363 0.266
90.9666 0.014
90.9969 0.075
91.0271 -0.020
91.0574 0.458
91.0877 -0.105
91.1180 0.477
91.1483 -0.294
91.1785 0.029
91.2088 -0.221
91.2391 -0.178
91.2694 -0.030
91.2997 0.274
91.3299 0.318
91.3602 -0.158
91.3905 0.199
91.4208 -0.225
91.4510 0.445
91.4813 -0.135
91.5116 0.171
91.5419 -0.044
91.5722 0.314
91.6024 0.308
91.6327 -0.218
91.6630 0.141
91.6933 -0.125
91.7236 0.338
91.7538 0.073
91.7841 -0.088
91.8144 -0.040
91.8447 -0.149
91.8749 -0.153
91.9052 0.052
91.9355 0.257
91.9658 0.201
91.9961 0.354
92.0263 -0.326
92.0566 0.557
92.0869 0.034
92.1172 0.084
92.1475 -0.335
92.1777 0.132
92.2080 -0.078
92.2383 0.025
92.2686 0.493
92.2988 -0.342
92.3291 -0.134
92.3594 -0.239
92.3897 0.173
92.4200 0.011
92.4502 0.319
92.4805 0.054
92.5108 0.050
92.5411 0.410
92.5714 0.667
92.6016 0.246
92.6319 0.191
92.6622 0.344
92.6925 0.289
92.7227 0.442
92.7530 0.023
92.7833 0.594
92.8136 -0.033
92.8439 0.069
92.8741 0.536
92.9044 0.170
92.9347 0.794
92.9650 0.480
92.9953 0.011
93.0255 0.583
93.0558 0.322
93.0861 -0.095
93.1164 0.322
93.1466 0.791
93.1769 -0.198
93.2072 0.376
93.2375 0.117
93.2678 -0.299
93.2980 0.223
93.3283 -0.087
93.3586 0.331
93.3889 -0.083
93.4192 0.440
93.4494 0.599
93.4797 -0.076
93.5100 -0.177
93.5403 0.347
93.5706 -0.222
93.6008 0.250
93.6311 -0.006
93.6614 0.258
93.6917 -0.154
93.7219 -0.202
93.7522 0.220
93.7825 0.069
93.8128 -0.239
93.8431 -0.132
93.8733 -0.598
93.9036 0.174
93.9339 0.426
93.9642 0.365
93.9945 -0.061
94.0247 0.087
94.0550 0.443
94.0853 -0.138
94.1156 0.271
94.1458 -0.361
94.1761 0.100
94.2064 -0.167
94.2367 -0.122
94.2670 0.027
94.2972 0.229
94.3275 0.119
94.3578 0.477
94.3881 -0.205
94.4184 0.518
94.4486 0.409
94.4789 -0.013
94.5092 0.242
94.5395 -0.075
94.5697 0.129
94.6000 0.594
94.6303 0.590
94.6606 0.586
94.6909 0.166
94.7211 0.110
94.7514 0.628
94.7817 0.625
94.8120 0.206
94.8423 0.880
94.8725 0.982
94.9028 0.511
94.9331 0.770
94.9634 -0.065
94.9936 1.548
95.0239 0.818
95.0542 1.182
95.0845 1.129
95.1148 1.285
95.1450 0.816
95.1753 0.816
95.2056 1.441
95.2359 1.181
95.2662 1.494
95.2964 0.818
95.3267 0.559
95.3570 1.289
95.3873 0.978
95.4175 0.355
95.4478 1.191
95.4781 0.828
95.5084 1.872
95.5387 0.729
95.5689 0.888
95.5992 0.162
95.6295 0.582
95.6598 0.794
95.6901 0.381
95.7203 0.490
95.7506 0.181
95.7809 0.238
95.8112 1.180
95.8414 0.143
95.8717 0.201
95.9020 0.362
95.9323 0.107
95.9626 0.269
95.9928 0.275
96.0231 -0.187
96.0534 -0.077
96.0837 0.086
96.1140 -0.167
96.1442 -0.056
96.1745 0.316
96.2048 0.063
96.2351 1.113
96.2653 0.027
96.2956 0.400
96.3259 0.356
96.3562 0.417
96.3865 -0.043
96.4167 0.227
96.4470 0.132
96.4773 0.038
96.5076 0.256
96.5379 -0.047
96.5681 0.536
96.5984 -0.182
96.6287 -0.015
96.6590 -0.161
96.6893 0.528
96.7195 0.018
96.7498 -0.179
96.7801 0.042
96.8104 -0.467
96.8406 -0.002
96.8709 0.047
96.9012 0.201
96.9315 0.302
96.9618 0.039
96.9920 0.454
97.0223 0.087
97.0526 0.398
97.0829 -0.281
97.1132 1.124
97.1434 0.655
97.1737 0.393
97.2040 0.341
97.2343 0.028
97.2645 -0.389
97.2948 0.019
97.3251 0.114
97.3554 -0.519
97.3857 -0.006
97.4159 -0.171
97.4462 0.134
97.4765 0.075
97.5068 0.484
97.5371 -0.252
97.5673 -0.155
97.5976 -0.213
97.6279 0.145
97.6582 -0.122
97.6884 -0.023
97.7187 -0.029
97.7490 0.070
97.7793 -0.040
97.8096 -0.253
97.8398 0.159
97.8701 -0.106
97.9004 0.671
97.9307 -0.271
97.9610 0.090
97.9912 0.294
98.0215 0.603
98.0518 -0.285
98.0821 0.337
98.1123 0.178
98.1426 -0.137
98.1729 0.537
98.2032 0.066
98.2335 0.325
98.2637 -0.093
98.2940 0.113
98.3243 0.373
98.3546 -0.149
98.3849 0.423
98.4151 -0.307
98.4454 0.787
98.4757 0.839
98.5060 0.995
98.5362 1.256
98.5665 0.579
98.5968 0.528
98.6271 0.841
98.6574 0.478
98.6876 0.948
98.7179 0.064
98.7482 0.587
98.7785 0.225
98.8088 0.748
98.8390 0.230
98.8693 0.180
98.8996 0.340
98.9299 0.030
98.9601 0.919
98.9904 0.246
99.0207 0.198
99.0510 0.723
99.0813 0.727
99.1115 -0.050
99.1418 -0.045
99.1721 0.272
99.2024 0.330
99.2327 0.179
99.2629 -0.024
99.2932 -0.486
99.3235 0.509
99.3538 0.203
99.3841 0.001
99.4143 -0.409
99.4446 0.744
99.4749 -0.082
99.5052 0.394
99.5354 -0.275
99.5657 0.098
99.5960 -0.207
99.6263 0.479
99.6566 0.175
99.6868 0.444
99.7171 0.453
99.7474 0.202
99.7777 0.107
99.8080 0.377
99.8382 0.491
99.8685 -0.332
99.8988 0.095
99.9291 -0.311
99.9593 -0.052
99.9896 -0.209
100.0199 0.364
100.0502 0.155
100.0805 -0.001
100.1107 0.207
100.1410 -0.157
100.1713 0.000
100.2016 0.417
100.2319 -0.155
100.2621 0.003
100.2924 0.056
100.3227 0.006
100.3530 0.008
100.3832 0.010
100.4135 0.065
100.4438 0.171
100.4741 0.174
100.5044 0.333
100.5346 -0.132
100.5649 -0.285
100.5952 0.184
100.6255 0.185
100.6558 0.185
100.6860 -0.282
100.7163 0.344
100.7466 -0.124
100.7769 0.190
100.8071 -0.224
100.8374 -0.014
100.8677 0.353
100.8980 -0.322
100.9283 -0.215
100.9585 0.193
100.9888 -0.076
101.0191 0.645
101.0494 -0.145
101.0797 0.264
101.1099 -0.160
101.1402 -0.428
101.1705 0.346
101.2008 0.026
101.2310 0.384
101.2613 0.273
101.2916 -0.046
101.3219 0.104
101.3522 0.515
101.3824 -0.064
101.4127 -0.121
101.4430 0.082
101.4733 0.129
101.5036 0.228
101.5338 0.119
101.5641 -0.198
101.5944 0.111
101.6247 0.211
101.6549 0.103
101.6852 -0.265
101.7155 0.148
101.7458 0.041
101.7761 -0.066
101.8063 -0.068
101.8366 0.137
101.8669 0.292
101.8972 -0.283
101.9275 -0.233
101.9577 -0.190
101.9880 0.218
102.0183 -0.103
102.0486 0.566
102.0788 0.037
102.1091 -0.283
102.1394 0.022
102.1697 -0.089
102.2000 0.008
102.2302 0.157
102.2605 0.463
102.2908 -0.012
102.3211 -0.279
102.3514 0.392
102.3816 -0.135
102.4119 -0.244
102.4422 -0.201
102.4725 0.102
102.5028 0.198
102.5330 0.554
102.5633 0.025
102.5936 0.433
102.6239 0.269
102.6541 0.418
102.6844 0.307
102.7147 0.404
102.7450 0.241
102.7753 -0.183
102.8055 0.488
102.8358 0.586
102.8661 0.528
102.8964 1.043
102.9267 0.933
102.9569 0.094
102.9872 0.558
103.0175 0.709
103.0478 0.809
103.0780 0.284
103.1083 0.748
103.1386 0.223
103.1689 -0.145
103.1992 0.424
103.2294 0.108
103.2597 0.210
103.2900 0.311
103.3203 -0.473
103.3506 0.462
103.3808 0.356
103.4111 0.197
103.4414 0.091
103.4717 0.715
103.5019 0.349
103.5322 0.504
103.5625 0.607
103.5928 -0.174
103.6231 0.242
103.6533 0.294
103.6836 0.919
103.7139 -0.227
103.7442 0.346
103.7745 0.764
103.8047 0.452
103.8350 0.922
103.8653 0.351
103.8956 1.394
103.9258 -0.011
103.9561 0.356
103.9864 0.983
104.0167 0.829
104.0470 0.936
104.0772 0.731
104.1075 0.942
104.1378 1.050
104.1681 0.481
104.1984 0.589
104.2286 0.749
104.2589 0.857
104.2892 0.289
104.3195 0.710
104.3497 0.559
104.3800 0.929
104.4103 0.778
104.4406 0.835
104.4709 0.372
104.5011 0.587
104.5314 0.020
104.5617 0.600
104.5920 0.190
104.6223 0.405
104.6525 0.256
104.6828 1.409
104.7131 0.115
104.7434 -0.086
104.7736 -0.026
104.8039 0.243
104.8342 0.303
104.8645 0.312
104.8948 -0.044
104.9250 -0.139
104.9553 -0.181
104.9856 0.037
105.0159 -0.058
105.0462 0.057
105.0764 -0.506
105.1067 0.390
105.1370 -0.120
105.1673 0.047
105.1975 0.006
105.2278 0.122
105.2581 -0.023
105.2884 0.249
105.3187 -0.155
105.3489 0.013
105.3792 0.546
105.4095 0.143
105.4398 0.260
105.4701 -0.040
105.5003 -0.026
105.5306 -0.221
105.5609 -0.116
105.5912 -0.064
105.6215 0.197
105.6517 0.042
105.6820 0.512
105.7123 0.357
105.7426 -0.266
105.7728 -0.056
105.8031 0.259
105.8334 0.053
105.8637 0.263
105.8940 -0.150
105.9242 0.269
105.9545 0.272
105.9848 0.536
106.0151 0.175
106.0454 -0.081
106.0756 0.496
106.1059 0.240
106.1362 -0.172
106.1665 0.509
106.1967 -0.215
106.2270 -0.482
106.2573 0.344
106.2876 0.129
106.3179 0.279
106.3481 0.273
106.3784 0.162
106.4087 0.313
106.4390 0.047
106.4693 -0.167
106.4995 0.036
106.5298 0.188
106.5601 -0.129
106.5904 0.283
106.6206 0.539
106.6509 -0.090
106.6812 -0.042
106.7115 -0.410
106.7418 0.108
106.7720 0.157
106.8023 0.049
106.8326 -0.162
106.8629 0.096
106.8932 0.407
106.9234 -0.168
106.9537 0.090
106.9840 0.089
107.0143 -0.225
107.0445 -0.018
107.0748 -0.227
107.1051 -0.335
107.1354 0.285
107.1657 0.594
107.1959 -0.191
107.2262 0.066
107.2565 0.219
107.2868 0.008
107.3171 -0.203
107.3473 0.263
107.3776 0.157
107.4079 -0.001
107.4382 -0.420
107.4684 0.099
107.4987 -0.110
107.5290 0.774
107.5593 0.304
107.5896 0.095
107.6198 -0.166
107.6501 0.042
107.6804 -0.062
107.7107 0.251
107.7410 0.251
107.7712 -0.113
107.8015 0.148
107.8318 -0.111
107.8621 0.099
107.8923 -0.056
107.9226 -0.054
107.9529 0.156
107.9832 0.210
108.0135 0.786
108.0437 -0.149
108.0740 -0.198
108.1043 0.273
108.1346 0.850
108.1649 -0.084
108.1951 -0.081
108.2254 -0.337
108.2557 0.131
108.2860 0.390
108.3163 0.389
108.3465 -0.132
108.3768 -0.393
108.4071 0.232
108.4374 -0.080
108.4676 0.233
108.4979 0.025
108.5282 0.390
108.5585 0.183
108.5888 0.289
108.6190 0.082
108.6493 0.031
108.6796 -0.227
108.7099 -0.337
108.7402 0.282
108.7704 -0.140
108.8007 0.271
108.8310 -0.359
108.8613 0.157
108.8915 0.100
108.9218 -0.009
108.9521 0.195
108.9824 0.139
109.0127 -0.334
109.0429 0.027
109.0732 0.128
109.1035 -0.500
109.1338 0.122
109.1641 0.223
109.1943 0.168
109.2246 -0.094
109.2549 0.164
109.2852 0.058
109.3154 -0.100
109.3457 -0.049
109.3760 -0.259
109.4063 0.099
109.4366 -0.011
109.4668 0.764
109.4971 0.289
109.5274 0.492
109.5577 0.122
109.5880 0.325
109.6182 -0.096
109.6485 -0.049
109.6788 0.051
109.7091 0.411
109.7393 0.199
109.7696 0.403
109.7999 0.868
109.8302 0.396
109.8605 0.237
109.8907 0.494
109.9210 0.439
109.9513 0.749
109.9816 0.226
110.0119 0.120
110.0421 0.275
110.0724 0.013
110.1027 0.376
110.1330 0.583
110.1632 0.165
110.1935 0.633
110.2238 0.633
110.2541 0.060
110.2844 0.164
110.3146 1.414
110.3449 0.373
110.3752 0.998
110.4055 0.218
110.4358 0.532
110.4660 0.116
110.4963 0.691
110.5266 0.172
110.5569 1.007
110.5871 0.853
110.6174 0.282
110.6477 -0.080
110.6780 0.600
110.7083 0.395
110.7385 0.607
110.7688 0.246
110.7991 0.093
110.8294 0.462
110.8597 0.310
110.8899 0.054
110.9202 0.371
110.9505 0.272
110.9808 0.746
111.0110 -0.187
111.0413 -0.181
111.0716 0.293
111.1019 0.351
111.1322 0.045
111.1624 0.000
111.1927 0.215
111.2230 0.794
111.2533 -0.292
111.2836 -0.233
111.3138 0.238
111.3441 -0.124
111.3744 0.139
111.4047 0.559
111.4350 0.562
111.4652 0.461
111.4955 0.569
111.5258 0.261
111.5561 -0.360
111.5863 0.165
111.6166 -0.247
111.6469 0.122
111.6772 0.075
111.7075 0.028
111.7377 -0.227
111.7680 -0.230
111.7983 0.445
111.8286 -0.078
111.8589 -0.236
111.8891 0.335
111.9194 0.438
111.9497 0.385
111.9800 0.071
112.0102 0.070
112.0405 0.070
112.0708 0.278
112.1011 0.017
112.1314 0.174
112.1616 0.070
112.1919 0.487
112.2222 -0.189
112.2525 0.281
112.2828 -0.083
112.3130 0.127
112.3433 0.285
112.3736 0.078
112.4039 0.393
112.4341 -0.230
112.4644 -0.227
112.4947 0.079
112.5250 0.646
112.5553 0.119
112.5855 0.218
112.6158 -0.100
112.6461 0.103
112.6764 -0.267
112.7067 0.249
112.7369 0.453
112.7672 0.292
112.7975 0.080
112.8278 0.128
112.8580 -0.240
112.8883 -0.035
112.9186 0.743
112.9489 0.375
112.9792 0.008
113.0094 0.057
113.0397 -0.205
113.0700 0.365
113.1003 -0.209
113.1306 -0.107
113.1608 0.361
113.1911 -0.057
113.2214 -0.006
113.2517 -0.007
113.2819 0.409
113.3122 -0.008
113.3425 -0.008
113.3728 -0.112
113.4031 0.253
113.4333 0.358
113.4636 0.098
113.4939 -0.682
113.5242 0.413
113.5545 0.050
113.5847 0.207
113.6150 -0.051
113.6453 0.472
113.6756 -0.359
113.7058 0.060
113.7361 0.375
113.7664 0.691
113.7967 0.694
113.8270 0.125
113.8572 0.337
113.8875 -0.024
113.9178 -0.020
113.9481 0.505
113.9784 0.354
114.0086 0.463
114.0389 0.103
114.0692 0.004
114.0995 0.374
114.1298 -0.089
114.1600 -0.031
114.1903 -0.233
114.2206 0.065
114.2509 0.103
114.2811 0.245
114.3114 0.180
114.3417 0.114
114.3720 0.101
114.4023 -0.381
114.4325 0.231
114.4628 -0.198
114.4931 0.154
114.5234 0.142
114.5537 0.078
114.5839 -0.195
114.6142 0.679
114.6445 0.251
114.6748 0.136
114.7050 -0.031
114.7353 -0.042
114.7656 0.521
114.7959 0.146
114.8262 0.032
114.8564 0.283
114.8867 0.065
114.9170 0.108
114.9473 -0.006
114.9776 -0.327
115.0078 0.185
115.0381 -0.084
115.0684 0.377
115.0987 -0.100
115.1289 0.205
115.1592 0.614
115.1895 0.242
115.2198 0.131
115.2501 0.124
115.2803 0.274
115.3106 0.684
115.3409 -0.312
115.3712 -0.266
115.4015 0.144
115.4317 0.502
115.4620 0.547
115.4923 0.125
115.5226 0.275
115.5528 0.998
115.5831 0.472
115.6134 -0.159
115.6437 1.242
115.6740 0.143
115.7042 0.607
115.7345 0.447
115.7648 1.067
115.7951 0.178
115.8254 0.591
115.8556 0.535
115.8859 0.323
115.9162 0.789
115.9465 0.473
115.9767 0.887
116.0070 0.416
116.0373 1.403
116.0676 1.714
116.0979 1.191
116.1281 1.137
116.1584 1.136
116.1887 0.822
116.2190 1.602
116.2493 0.768
116.2795 0.976
116.3098 0.976
116.3401 1.340
116.3704 0.611
116.4006 1.028
116.4309 0.977
116.4612 0.561
116.4915 1.396
116.5218 0.616
116.5520 0.617
116.5823 0.254
116.6126 0.933
116.6429 0.623
116.6732 0.365
116.7034 0.055
116.7337 0.474
116.7640 0.321
116.7943 0.689
116.8245 1.057
116.8548 0.436
116.8851 1.013
116.9154 -0.233
116.9457 0.865
116.9759 -0.224
117.0062 0.302
117.0365 0.619
117.0668 1.145
117.0971 0.474
117.1273 0.323
117.1576 0.850
117.1879 0.179
117.2182 -0.179
117.2485 0.036
117.2787 1.136
117.3090 0.050
117.3393 0.317
117.3696 -0.040
117.3998 0.593
117.4301 0.184
117.4604 0.088
117.4907 -0.007
117.5210 -0.363
117.5512 0.061
117.5815 -0.087
117.6118 0.181
117.6421 -0.019
117.6724 0.303
117.7026 0.051
117.7329 0.320
117.7632 0.069
117.7935 -0.182
117.8237 -0.120
117.8540 0.619
117.8843 -0.100
117.9146 -0.246
117.9449 -0.131
117.9751 0.453
118.0054 0.152
118.0357 0.267
118.0660 -0.242
118.0963 -0.126
118.1265 -0.010
118.1568 0.158
118.1871 0.170
118.2174 0.339
118.2476 -0.169
118.2779 0.209
118.3082 0.274
118.3385 -0.337
118.3688 -0.230
118.3990 0.191
118.4293 -0.014
118.4596 0.042
118.4899 0.150
118.5202 0.311
118.5504 0.055
118.5807 0.373
118.6110 0.326
118.6413 0.018
118.6715 0.701
118.7018 -0.022
118.7321 -0.016
118.7624 0.146
118.7927 0.257
118.8229 0.472
118.8532 0.426
118.8835 0.173
118.9138 0.441
118.9441 -0.281
118.9743 -0.221
119.0046 0.085
119.0349 0.809
119.0652 -0.186
119.0954 0.589
119.1257 -0.249
119.1560 0.111
119.1863 0.470
119.2166 0.310
119.2468 0.357
119.2771 0.041
119.3074 -0.067
119.3377 -0.227
119.3680 0.073
119.3982 0.060
119.4285 0.100
119.4588 -0.069
119.4891 0.544
119.5193 -0.301
119.5496 0.052
119.5799 0.614
119.6102 -0.647
119.6405 0.540
119.6707 0.373
119.7010 -0.314
119.7313 0.613
119.7616 0.291
119.7919 0.385
119.8221 0.376
119.8524 0.262
119.8827 -0.216
119.9130 -0.068
119.9433 -0.337
119.9735 -0.012
120.0038 0.000
