'Id: "" Comment: "" Operator: "Lab Manager" Anode: "Cu" Scantype: "Locked Coupled" TimePerStep: "19.2" X: "9999" Y: "9999" Z: "9999" 
10.0015 0.000
10.0318 0.417
10.0620 -0.573
10.0923 -0.404
10.1226 0.129
10.1529 -0.691
10.1832 -0.054
10.2134 0.376
10.2437 0.181
10.2740 0.820
10.3043 -0.156
10.3346 -0.455
10.3648 -0.961
10.3951 0.244
10.4254 0.928
10.4557 -0.366
10.4859 1.152
10.5162 0.482
10.5465 0.334
10.5768 0.499
10.6071 0.351
10.6373 0.776
10.6676 0.629
10.6979 0.378
10.7282 0.387
10.7585 0.448
10.7887 0.250
10.8190 1.353
10.8493 0.478
10.8796 0.592
10.9098 1.071
10.9401 2.488
10.9704 3.384
11.0007 4.749
11.0310 5.438
11.0612 6.803
11.0915 4.732
11.1218 4.483
11.1521 3.349
11.1824 2.945
11.2126 2.957
11.2429 1.980
11.2732 1.628
11.3035 0.756
11.3337 0.456
11.3640 0.626
11.3943 -0.038
11.4246 1.538
11.4549 0.146
11.4851 0.837
11.5154 0.435
11.5457 0.866
11.5760 0.933
11.6063 0.583
11.6365 1.015
11.6668 -0.220
11.6971 0.212
11.7274 0.593
11.7577 0.765
11.7879 0.052
11.8182 -0.453
11.8485 0.241
11.8788 -0.576
11.9090 0.170
11.9393 1.229
11.9696 0.673
11.9999 0.378
12.0302 0.708
12.0604 0.309
12.0907 0.484
12.1210 0.450
12.1513 -0.417
12.1816 0.383
12.2118 0.766
12.2421 -0.309
12.2724 0.023
12.3027 -0.062
12.3329 1.572
12.3632 0.550
12.3935 -0.419
12.4238 0.434
12.4541 0.559
12.4843 0.111
12.5146 -0.181
12.5449 -0.577
12.5752 0.008
12.6055 0.490
12.6357 0.190
12.6660 0.255
12.6963 -0.305
12.7266 0.906
12.7568 0.919
12.7871 0.048
12.8174 0.895
12.8477 0.492
12.8780 0.767
12.9082 1.146
12.9385 0.587
12.9688 0.967
12.9991 0.305
13.0294 1.101
13.0596 0.700
13.0899 0.142
13.1202 -0.727
13.1505 -0.314
13.1807 0.465
13.2110 0.670
13.2413 -0.218
13.2716 -0.480
13.3019 1.080
13.3321 0.245
13.3624 0.243
13.3927 -0.227
13.4230 0.032
13.4533 0.291
13.4835 1.176
13.5138 0.394
13.5441 -0.180
13.5744 0.237
13.6046 0.757
13.6349 0.393
13.6652 0.393
13.6955 1.175
13.7258 1.227
13.7560 0.343
13.7863 0.396
13.8166 1.230
13.8469 0.242
13.8772 -0.485
13.9074 -0.171
13.9377 0.039
13.9680 1.031
13.9983 0.409
14.0285 0.932
14.0588 0.674
14.0891 -0.208
14.1194 0.524
14.1497 1.048
14.1799 0.948
14.2102 0.691
14.2405 0.122
14.2708 -0.342
14.3011 -0.078
14.3313 0.344
14.3616 0.557
14.3919 1.655
14.4222 -0.163
14.4524 0.468
14.4827 0.317
14.5130 0.323
14.5433 0.224
14.5736 0.804
14.6038 0.081
14.6341 0.243
14.6644 0.875
14.6947 0.726
14.7250 0.368
14.7552 0.375
14.7855 0.591
14.8158 -0.287
14.8461 -0.018
14.8764 -0.062
14.9066 0.258
14.9369 0.006
14.9672 0.015
14.9975 0.441
15.0277 0.606
15.0580 0.146
15.0883 0.000
15.1186 -0.147
15.1489 0.279
15.1791 0.862
15.2094 0.300
15.2397 -0.003
15.2700 -0.461
15.3003 -0.158
15.3305 0.666
15.3608 0.604
15.3911 -0.239
15.4214 0.846
15.4516 -0.205
15.4819 -0.213
15.5122 -0.274
15.5425 0.030
15.5728 0.282
15.6030 0.170
15.6333 0.527
15.6636 0.363
15.6939 0.043
15.7242 0.193
15.7544 0.811
15.7847 -0.290
15.8150 0.120
15.8453 -0.147
15.8755 0.264
15.9058 -0.315
15.9361 0.981
15.9664 -0.326
15.9967 0.137
16.0269 0.809
16.0572 0.543
16.0875 0.226
16.1178 -0.612
16.1481 0.321
16.1783 -0.569
16.2086 -0.156
16.2389 -0.368
16.2692 0.618
16.2994 -0.167
16.3297 -0.483
16.3600 0.087
16.3903 -0.489
16.4206 0.290
16.4508 0.965
16.4811 0.025
16.5114 -0.811
16.5417 0.542
16.5720 -0.241
16.6022 0.070
16.6325 -0.088
16.6628 -0.037
16.6931 0.275
16.7233 0.066
16.7536 -0.195
16.7839 0.221
16.8142 -0.248
16.8445 0.221
16.8747 -0.508
16.9050 0.222
16.9353 0.170
16.9656 -0.454
16.9959 -0.245
17.0261 0.069
17.0564 0.383
17.0867 0.228
17.1170 0.126
17.1472 0.389
17.1775 0.078
17.2078 0.237
17.2381 -0.073
17.2684 0.138
17.2986 -0.223
17.3289 -0.377
17.3592 0.304
17.3895 0.308
17.4198 -0.366
17.4500 -0.206
17.4803 -0.254
17.5106 -0.197
17.5409 -0.140
17.5712 0.385
17.6014 -0.235
17.6317 0.499
17.6620 -0.120
17.6923 0.146
17.7225 0.412
17.7528 -0.676
17.7831 0.268
17.8134 0.795
17.8437 0.385
17.8739 0.600
17.9042 -0.279
17.9345 0.301
17.9648 0.048
17.9951 0.576
18.0253 0.167
18.0556 -0.710
18.0859 -0.181
18.1162 0.452
18.1464 0.200
18.1767 0.052
18.2070 0.009
18.2373 0.278
18.2676 0.131
18.2978 -0.432
18.3281 -0.058
18.3584 0.004
18.3887 0.327
18.4190 -0.184
18.4492 -0.590
18.4795 0.039
18.5098 0.096
18.5401 -0.524
18.5703 -0.154
18.6006 -0.045
18.6309 0.117
18.6612 0.122
18.6915 -0.080
18.7217 0.291
18.7520 0.401
18.7823 0.251
18.8126 0.258
18.8429 0.421
18.8731 -0.249
18.9034 -0.398
18.9337 0.070
18.9640 -0.191
18.9942 -0.712
19.0245 0.069
19.0548 0.017
19.0851 0.485
19.1154 -0.087
19.1456 0.122
19.1759 -0.398
19.2062 -0.397
19.2365 0.334
19.2668 0.804
19.2970 0.338
19.3273 -0.650
19.3576 0.134
19.3879 -0.385
19.4181 -0.174
19.4484 0.090
19.4787 -0.376
19.5090 0.200
19.5393 -0.265
19.5695 -0.053
19.5998 -0.205
19.6301 -0.253
19.6604 -0.249
19.6907 0.381
19.7209 0.125
19.7512 -0.391
19.7815 0.551
19.8118 0.505
19.8420 -0.271
19.8723 -0.161
19.9026 -0.312
19.9329 -0.045
19.9632 0.013
19.9934 -0.241
20.0237 0.339
20.0540 0.397
20.0843 -0.064
20.1146 0.464
20.1448 0.263
20.1751 -0.250
20.2054 -0.086
20.2357 0.442
20.2659 0.190
20.2962 -0.218
20.3265 0.520
20.3568 0.164
20.3871 0.277
20.4173 0.078
20.4476 -0.694
20.4779 0.618
20.5082 0.523
20.5385 0.585
20.5687 -0.707
20.5990 0.137
20.6293 0.043
20.6596 0.367
20.6899 0.430
20.7201 0.336
20.7504 -0.173
20.7807 0.255
20.8110 0.059
20.8412 0.539
20.8715 0.499
20.9018 0.407
20.9321 0.784
20.9624 -0.088
20.9926 0.914
21.0229 0.354
21.0532 -0.310
21.0835 -0.348
21.1138 0.006
21.1440 0.152
21.1743 0.611
21.2046 0.862
21.2349 0.019
21.2651 -0.250
21.2954 0.574
21.3257 0.565
21.3560 0.348
21.3863 -0.077
21.4165 0.279
21.4468 0.063
21.4771 0.367
21.5074 0.307
21.5377 0.560
21.5679 -0.124
21.5982 0.025
21.6285 0.226
21.6588 0.532
21.6890 -0.203
21.7193 0.311
21.7496 0.097
21.7799 -0.066
21.8102 0.293
21.8404 -0.494
21.8707 0.178
21.9010 0.433
21.9313 0.220
21.9616 0.788
21.9918 -0.206
22.0221 0.467
22.0524 -0.110
22.0827 0.459
22.1129 0.038
22.1432 -0.278
22.1735 0.292
22.2038 -0.128
22.2341 0.337
22.2643 0.126
22.2946 0.071
22.3249 -0.035
22.3552 0.119
22.3855 0.117
22.4157 -0.458
22.4460 0.113
22.4763 0.112
22.5066 0.267
22.5368 -0.203
22.5671 -0.308
22.5974 0.004
22.6277 0.160
22.6580 0.836
22.6882 0.107
22.7185 -0.361
22.7488 0.420
22.7791 0.056
22.8094 0.421
22.8396 -0.203
22.8699 -0.671
22.9002 0.685
22.9305 0.113
22.9607 0.271
22.9910 -0.300
23.0213 -0.506
23.0516 0.590
23.0819 0.488
23.1121 0.178
23.1424 0.806
23.1727 -0.076
23.2030 0.031
23.2333 -0.486
23.2635 0.195
23.2938 -0.010
23.3241 0.567
23.3544 0.363
23.3846 -0.674
23.4149 0.164
23.4452 0.064
23.4755 0.069
23.5058 0.439
23.5360 -0.129
23.5663 0.398
23.5966 0.091
23.6269 -0.215
23.6572 0.468
23.6874 0.266
23.7177 0.377
23.7480 -0.138
23.7783 0.494
23.8086 -0.280
23.8388 0.457
23.8691 -0.265
23.8994 -0.361
23.9297 0.003
23.9599 -0.361
23.9902 -0.262
24.0205 0.098
24.0508 -0.063
24.0811 0.558
24.1113 0.137
24.1416 -0.127
24.1719 -0.131
24.2022 0.438
24.2325 0.383
24.2627 0.640
24.2930 0.898
24.3233 0.061
24.3536 0.059
24.3838 0.004
24.4141 0.263
24.4444 -0.416
24.4747 0.467
24.5050 -0.055
24.5352 -0.161
24.5655 0.359
24.5958 0.514
24.6261 0.253
24.6564 0.200
24.6866 0.252
24.7169 0.252
24.7472 -0.009
24.7775 -0.217
24.8077 -0.477
24.8380 0.095
24.8683 0.563
24.8986 -0.166
24.9289 0.250
24.9591 0.146
24.9894 0.042
25.0197 0.719
25.0500 0.928
25.0803 -0.113
25.1105 -0.425
25.1408 -0.008
25.1711 -0.425
25.2014 0.200
25.2316 0.513
25.2619 0.305
25.2922 0.410
25.3225 -0.214
25.3528 -0.057
25.3830 0.049
25.4133 -0.210
25.4436 -0.573
25.4739 0.210
25.5042 0.004
25.5344 0.111
25.5647 -0.304
25.5950 -0.249
25.6253 -0.298
25.6555 0.070
25.6858 0.490
25.7161 -0.236
25.7464 0.132
25.7767 0.397
25.8069 0.296
25.8372 0.040
25.8675 -0.268
25.8978 0.206
25.9281 -0.206
25.9583 -0.045
25.9886 -0.352
26.0189 -0.034
26.0492 0.128
26.0794 0.186
26.1097 -0.017
26.1400 0.198
26.1703 0.465
26.2006 0.003
26.2308 -0.459
26.2611 0.173
26.2914 0.336
26.3217 0.083
26.3520 0.507
26.3822 -0.006
26.4125 0.523
26.4428 0.375
26.4731 -0.033
26.5034 -0.337
26.5336 0.713
26.5639 0.305
26.5942 0.314
26.6245 0.272
26.6547 0.437
26.6850 0.968
26.7153 0.353
26.7456 0.311
26.7759 0.217
26.8061 0.071
26.8364 -0.335
26.8667 -0.247
26.8970 0.257
26.9273 0.241
26.9575 0.172
26.9878 -0.156
27.0181 -0.016
27.0484 0.229
27.0786 0.265
27.1089 -0.115
27.1392 0.183
27.1695 1.001
27.1998 0.518
27.2300 0.660
27.2603 1.270
27.2906 -0.202
27.3209 0.461
27.3512 0.499
27.3814 -0.452
27.4117 0.004
27.4420 0.095
27.4723 0.499
27.5025 0.121
27.5328 0.473
27.5631 0.044
27.5934 0.761
27.6237 -0.449
27.6539 1.050
27.6842 0.361
27.7145 0.090
27.7448 -0.130
27.7751 0.068
27.8053 0.265
27.8356 -0.110
27.8659 0.400
27.8962 -0.131
27.9264 0.536
27.9567 0.318
27.9870 0.257
28.0173 0.195
28.0476 -0.335
28.0778 0.125
28.1081 -0.197
28.1384 -0.049
28.1687 -0.057
28.1990 0.038
28.2292 0.291
28.2595 -0.030
28.2898 0.275
28.3201 -0.357
28.3503 0.521
28.3806 0.306
28.4109 -0.170
28.4412 -0.333
28.4715 0.129
28.5017 -0.346
28.5320 -0.404
28.5623 -0.317
28.5926 0.343
28.6229 -0.403
28.6531 0.361
28.6834 -0.124
28.7137 -0.088
28.7440 0.260
28.7742 -0.016
28.8045 -0.448
28.8348 0.005
28.8651 0.562
28.8954 -0.390
28.9256 0.272
28.9559 0.153
28.9862 0.503
29.0165 0.020
29.0468 -0.307
29.0770 -0.477
29.1073 0.499
29.1376 0.121
29.1679 0.472
29.1981 0.511
29.2284 0.185
29.2587 0.016
29.2890 0.420
29.3193 0.252
29.3495 -0.229
29.3798 -0.398
29.4101 -0.201
29.4404 0.204
29.4707 -0.016
29.5009 0.233
29.5312 -0.871
29.5615 -0.257
29.5918 0.305
29.6221 0.138
29.6523 -0.601
29.6826 -0.311
29.7129 0.136
29.7432 0.427
29.7734 -0.532
29.8037 -0.449
29.8340 0.259
29.8643 -0.022
29.8946 -0.355
29.9248 0.197
29.9551 0.437
29.9854 -0.052
30.0157 0.449
30.0460 0.221
30.0762 -0.163
30.1065 -0.026
30.1368 0.163
30.1671 1.134
30.1973 -0.500
30.2276 0.367
30.2579 0.089
30.2882 0.331
30.3185 0.625
30.3487 -0.174
30.3790 0.694
30.4093 1.354
30.4396 0.191
30.4699 1.372
30.5001 0.782
30.5304 -0.276
30.5607 0.958
30.5910 0.264
30.6212 0.717
30.6515 2.107
30.6818 1.050
30.7121 1.035
30.7424 2.061
30.7726 1.473
30.8029 2.240
30.8332 1.652
30.8635 2.315
30.8938 2.092
30.9240 3.380
30.9543 1.648
30.9846 2.884
31.0149 4.120
31.0451 3.326
31.0754 3.417
31.1057 5.852
31.1360 5.319
31.1663 5.671
31.1965 6.960
31.2268 6.323
31.2571 9.384
31.2874 8.904
31.3177 11.705
31.3479 11.121
31.3782 12.047
31.4085 14.953
31.4388 17.234
31.4690 19.827
31.4993 22.109
31.5296 24.494
31.5599 26.516
31.5902 26.766
31.6204 29.830
31.6507 28.883
31.6810 27.311
31.7113 22.510
31.7416 24.741
31.7718 21.295
31.8021 18.370
31.8324 17.060
31.8627 15.594
31.8929 11.732
31.9232 11.203
31.9535 9.060
31.9838 9.313
32.0141 7.692
32.0443 5.550
32.0746 6.741
32.1049 3.193
32.1352 4.072
32.1655 4.170
32.1957 2.445
32.2260 3.481
32.2563 2.330
32.2866 2.585
32.3169 1.174
32.3471 1.898
32.3774 1.425
32.4077 0.639
32.4380 1.572
32.4682 0.318
32.4985 1.825
32.5288 0.050
32.5591 0.515
32.5894 0.877
32.6196 0.457
32.6499 -0.171
32.6802 -0.070
32.7105 0.501
32.7408 0.082
32.7710 -0.285
32.8013 0.234
32.8316 0.649
32.8619 0.127
32.8921 -0.031
32.9224 0.541
32.9527 -0.398
32.9830 -0.086
33.0133 -0.139
33.0435 -1.233
33.0738 1.215
33.1041 -0.191
33.1344 -0.035
33.1647 0.018
33.1949 -0.555
33.2252 -0.664
33.2555 0.737
33.2858 -0.361
33.3160 -0.209
33.3463 -0.474
33.3766 0.147
33.4069 -0.169
33.4372 0.192
33.4674 -0.385
33.4977 0.862
33.5280 1.015
33.5583 0.804
33.5886 1.218
33.6188 -0.191
33.6491 0.432
33.6794 0.586
33.7097 0.167
33.7399 1.207
33.7702 1.258
33.8005 1.882
33.8308 2.401
33.8611 2.817
33.8913 2.243
33.9216 4.118
33.9519 4.117
33.9822 5.471
34.0125 5.263
34.0427 7.763
34.0730 8.285
34.1033 11.150
34.1336 13.442
34.1638 15.318
34.1941 20.788
34.2244 27.196
34.2547 32.250
34.2850 33.918
34.3152 32.670
34.3455 28.818
34.3758 27.570
34.4061 23.823
34.4364 18.774
34.4666 13.620
34.4969 10.030
34.5272 9.200
34.5575 6.651
34.5877 5.613
34.6180 4.680
34.6483 4.424
34.6786 3.022
34.7089 3.234
34.7391 2.093
34.7694 3.140
34.7997 1.791
34.8300 2.005
34.8603 1.750
34.8905 2.120
34.9208 1.657
34.9511 1.819
34.9814 2.086
35.0116 2.145
35.0419 2.308
35.0722 2.575
35.1025 1.696
35.1328 1.912
35.1630 1.190
35.1933 2.188
35.2236 2.091
35.2539 3.141
35.2842 3.826
35.3144 3.470
35.3447 3.218
35.3750 2.654
35.4053 3.601
35.4356 6.891
35.4658 3.619
35.4961 5.973
35.5264 5.930
35.5567 6.253
35.5869 5.065
35.6172 7.263
35.6475 7.274
35.6778 9.993
35.7081 11.306
35.7383 11.317
35.7686 12.787
35.7989 14.204
35.8292 17.185
35.8595 17.561
35.8897 20.178
35.9200 22.951
35.9503 29.942
35.9806 31.465
36.0108 33.666
36.0411 37.429
36.0714 39.317
36.1017 43.237
36.1320 41.688
36.1622 42.275
36.1925 41.560
36.2228 39.387
36.2531 35.651
36.2834 30.666
36.3136 27.816
36.3439 21.373
36.3742 20.346
36.4045 18.122
36.4347 14.232
36.4650 14.091
36.4953 12.753
36.5256 7.978
36.5559 7.786
36.5861 7.594
36.6164 7.663
36.6467 6.274
36.6770 6.083
36.7073 4.590
36.7375 3.357
36.7678 2.698
36.7981 4.591
36.8284 3.047
36.8586 3.690
36.8889 2.094
36.9192 2.373
36.9495 1.976
36.9798 1.630
37.0100 1.181
37.0403 1.044
37.0706 1.064
37.1009 1.240
37.1312 1.312
37.1614 1.124
37.1917 1.197
37.2220 1.634
37.2523 1.186
37.2825 0.791
37.3128 0.396
37.3431 1.042
37.3734 0.908
37.4037 0.929
37.4339 0.795
37.4642 1.130
37.4945 0.788
37.5248 0.707
37.5551 0.209
37.5853 -0.185
37.6156 0.359
37.6459 0.591
37.6762 0.198
37.7064 0.378
37.7367 -0.640
37.7670 0.218
37.7973 0.555
37.8276 0.632
37.8578 -0.385
37.8881 -0.777
37.9184 0.232
37.9487 0.095
37.9790 1.000
38.0092 -0.074
38.0395 0.155
38.0698 0.696
38.1001 -0.117
38.1304 0.373
38.1606 -0.180
38.1909 0.206
38.2212 0.019
38.2515 -0.220
38.2817 -0.198
38.3120 -0.385
38.3423 -0.206
38.3726 -0.184
38.4029 0.359
38.4331 0.017
38.4634 -0.429
38.4937 -0.157
38.5240 0.271
38.5543 -0.343
38.5845 0.294
38.6148 -0.007
38.6451 0.057
38.6754 0.017
38.7056 -0.335
38.7359 -0.374
38.7662 -0.002
38.7965 0.161
38.8268 -0.040
38.8570 0.280
38.8873 0.184
38.9176 -0.121
38.9479 0.043
38.9782 -0.052
39.0084 0.008
39.0387 -0.035
39.0690 -0.234
39.0993 0.191
39.1295 0.409
39.1598 -0.259
39.1901 -0.197
39.2204 -0.499
39.2507 0.136
39.2809 0.459
39.3112 -0.156
39.3415 -0.145
39.3718 -0.082
39.4021 -0.071
39.4323 -0.216
39.4626 0.056
39.4929 0.432
39.5232 0.183
39.5534 0.091
39.5837 0.364
39.6140 0.012
39.6443 -0.444
39.6746 -0.122
39.7048 -0.007
39.7351 0.264
39.7654 -0.194
39.7957 0.390
39.8260 0.193
39.8562 0.257
39.8865 0.112
39.9168 0.697
39.9471 -0.333
39.9773 0.096
40.0076 0.004
40.0379 0.277
40.0682 0.186
40.0985 -0.270
40.1287 0.108
40.1590 -0.087
40.1893 -0.334
40.2196 -0.020
40.2499 0.189
40.2801 -0.382
40.3104 -0.120
40.3407 -0.066
40.3710 0.144
40.4012 0.407
40.4315 0.410
40.4618 -0.317
40.4921 0.103
40.5224 -0.259
40.5526 0.005
40.5829 -0.356
40.6132 0.689
40.6435 0.380
40.6738 -0.136
40.7040 0.649
40.7343 0.393
40.7646 0.137
40.7949 0.663
40.8251 0.147
40.8554 -0.056
40.8857 -0.207
40.9160 -0.462
40.9463 0.109
40.9765 0.263
41.0068 0.157
41.0371 -0.053
41.0674 0.414
41.0977 0.152
41.1279 0.464
41.1582 0.098
41.1885 0.306
41.2188 -0.008
41.2491 -0.112
41.2793 -0.269
41.3096 -0.164
41.3399 -0.112
41.3702 -0.112
41.4004 0.514
41.4307 -0.110
41.4610 -0.161
41.4913 0.256
41.5216 -0.003
41.5518 0.520
41.5821 0.001
41.6124 0.003
41.6427 0.890
41.6730 -0.358
41.7032 -0.251
41.7335 0.221
41.7638 0.067
41.7941 -0.034
41.8243 0.230
41.8546 -0.079
41.8849 -0.596
41.9152 0.241
41.9455 -0.380
41.9757 -0.167
42.0060 0.150
42.0363 0.155
42.0666 0.107
42.0969 -0.044
42.1271 0.326
42.1574 -0.033
42.1877 0.129
42.2180 0.030
42.2482 0.453
42.2785 -0.009
42.3088 0.466
42.3391 -0.309
42.3694 -0.250
42.3996 0.695
42.4299 0.233
42.4602 0.293
42.4905 0.196
42.5208 -0.161
42.5510 0.368
42.5813 0.168
42.6116 0.281
42.6419 0.185
42.6721 0.194
42.7024 0.619
42.7327 -0.101
42.7630 0.221
42.7933 -0.082
42.8235 -0.124
42.8538 -0.062
42.8841 0.573
42.9144 0.584
42.9447 0.177
42.9749 -0.124
43.0052 -0.374
43.0355 0.029
43.0658 0.016
43.0960 0.107
43.1263 0.251
43.1566 0.342
43.1869 0.226
43.2172 0.370
43.2474 0.097
43.2777 -0.227
43.3080 -0.082
43.3383 0.323
43.3686 -0.001
43.3988 0.197
43.4291 0.081
43.4594 0.279
43.4897 0.008
43.5199 -0.002
43.5502 0.092
43.5805 0.499
43.6108 0.020
43.6411 -0.041
43.6713 0.054
43.7016 0.149
43.7319 0.192
43.7622 -0.025
43.7925 -0.034
43.8227 -0.250
43.8530 0.210
43.8833 0.255
43.9136 -0.170
43.9439 -0.125
43.9741 -0.497
44.0044 0.225
44.0347 0.166
44.0650 0.211
44.0952 0.205
44.1255 -0.375
44.1558 0.036
44.1861 0.186
44.2164 -0.445
44.2466 0.018
44.2769 0.482
44.3072 -0.148
44.3375 0.159
44.3678 -0.106
44.3980 0.358
44.4283 0.197
44.4586 0.089
44.4889 0.033
44.5191 -0.544
44.5494 -0.131
44.5797 -0.031
44.6100 -0.400
44.6403 0.221
44.6705 -0.147
44.7008 0.006
44.7311 0.368
44.7614 0.261
44.7917 0.362
44.8219 0.255
44.8522 0.305
44.8825 0.251
44.9128 0.249
44.9430 -0.586
44.9733 -0.328
45.0036 0.031
45.0339 -0.235
45.0642 0.333
45.0944 0.692
45.1247 -0.459
45.1550 -0.256
45.1853 0.104
45.2156 0.100
45.2458 0.095
45.2761 -0.117
45.3064 -0.642
45.3367 0.084
45.3669 -0.180
45.3972 -0.288
45.4275 -0.135
45.4578 0.019
45.4881 -0.245
45.5183 0.013
45.5486 0.323
45.5789 0.165
45.6092 -0.358
45.6395 0.005
45.6697 0.004
45.7000 -0.258
45.7303 0.105
45.7606 0.000
45.7908 -0.730
45.8211 -0.116
45.8514 -0.022
45.8817 -0.449
45.9120 0.218
45.9422 0.156
45.9725 0.042
46.0028 0.554
46.0331 0.076
46.0634 -0.142
46.0936 0.162
46.1239 -0.212
46.1542 -0.168
46.1845 0.032
46.2147 -0.393
46.2450 -0.088
46.2753 -0.252
46.3056 -0.156
46.3359 0.774
46.3661 0.559
46.3964 -0.073
46.4267 -0.132
46.4570 0.226
46.4873 0.116
46.5175 1.151
46.5478 0.103
46.5781 0.306
46.6084 0.144
46.6386 0.399
46.6689 0.498
46.6992 0.962
46.7295 0.020
46.7598 -0.454
46.7900 0.167
46.8203 0.423
46.8506 0.992
46.8809 0.988
46.9112 0.984
46.9414 1.137
46.9717 1.915
47.0020 1.391
47.0323 2.170
47.0626 2.688
47.0928 2.217
47.1231 3.725
47.1534 3.514
47.1837 4.398
47.2139 4.552
47.2442 4.499
47.2745 4.706
47.3048 5.694
47.3351 6.423
47.3653 8.141
47.3956 7.619
47.4259 7.463
47.4562 7.150
47.4865 6.265
47.5167 7.671
47.5470 7.099
47.5773 6.058
47.6076 5.121
47.6378 3.560
47.6681 3.144
47.6984 3.666
47.7287 2.001
47.7590 1.899
47.7892 1.745
47.8195 1.435
47.8498 0.708
47.8801 0.919
47.9104 0.192
47.9406 1.341
47.9709 0.459
48.0012 0.723
48.0315 0.726
48.0617 0.105
48.0920 0.994
48.1223 0.113
48.1526 0.482
48.1829 0.383
48.2131 0.075
48.2434 -0.545
48.2737 0.085
48.3040 0.090
48.3343 0.408
48.3645 -0.159
48.3948 -0.361
48.4251 -0.147
48.4554 0.277
48.4856 0.023
48.5159 0.343
48.5462 -0.015
48.5765 -0.007
48.6068 -0.416
48.6370 0.008
48.6673 -0.557
48.6976 -0.080
48.7279 -0.175
48.7582 -0.010
48.7884 0.207
48.8187 0.424
48.8490 -0.348
48.8793 0.130
48.9095 -0.381
48.9398 -0.007
48.9701 -0.153
49.0004 0.586
49.0307 -0.028
49.0609 0.086
49.0912 -0.267
49.1215 0.108
49.1518 -0.349
49.1821 -0.130
49.2123 0.038
49.2426 -0.263
49.2729 0.062
49.3032 -0.447
49.3334 0.034
49.3637 -0.006
49.3940 0.268
49.4243 -0.240
49.4546 -0.019
49.4848 -0.110
49.5151 0.164
49.5454 0.386
49.5757 0.192
49.6060 -0.055
49.6362 -0.197
49.6665 -0.026
49.6968 -0.272
49.7271 0.004
49.7574 -0.242
49.7876 -0.487
49.8179 0.140
49.8482 -0.014
49.8785 -0.168
49.9087 0.095
49.9390 0.045
49.9693 -0.264
49.9996 -0.157
50.0299 -0.154
50.0601 0.058
50.0904 0.270
50.1207 0.274
50.1510 -0.347
50.1813 0.282
50.2115 -0.078
50.2418 0.031
50.2721 0.609
50.3024 0.093
50.3326 0.723
50.3629 0.051
50.3932 0.005
50.4235 0.011
50.4538 0.069
50.4840 -0.290
50.5143 -0.247
50.5446 0.265
50.5749 0.256
50.6052 -0.013
50.6354 0.760
50.6657 -0.134
50.6960 -0.037
50.7263 0.007
50.7565 0.155
50.7868 -0.217
50.8171 -0.276
50.8474 0.030
50.8777 0.283
50.9079 0.381
50.9382 0.218
50.9685 0.108
50.9988 0.518
51.0291 0.148
51.0593 0.246
51.0896 -0.280
51.1199 -0.285
51.1502 -0.186
51.1804 -0.035
51.2107 0.117
51.2410 -0.409
51.2713 0.056
51.3016 -0.313
51.3318 -0.264
51.3621 0.201
51.3924 -0.219
51.4227 0.091
51.4530 -0.172
51.4832 0.138
51.5135 0.396
51.5438 -0.075
51.5741 -0.233
51.6043 0.025
51.6346 0.232
51.6649 0.491
51.6952 0.230
51.7255 -0.188
51.7557 0.020
51.7860 -0.710
51.8163 -0.033
51.8466 -0.138
51.8769 0.175
51.9071 0.019
51.9374 -0.346
51.9677 0.436
51.9980 -0.292
52.0282 -0.031
52.0585 0.075
52.0888 -0.289
52.1191 -0.027
52.1494 0.184
52.1796 0.342
52.2099 -0.073
52.2402 -0.018
52.2705 0.245
52.3008 -0.273
52.3310 -0.427
52.3613 0.514
52.3916 0.517
52.4219 -0.261
52.4521 -0.569
52.4824 0.216
52.5127 0.168
52.5430 0.120
52.5733 0.125
52.6035 -0.183
52.6338 0.395
52.6641 -0.225
52.6944 0.145
52.7247 0.254
52.7549 -0.209
52.7852 -0.099
52.8155 0.063
52.8458 -0.139
52.8761 0.128
52.9063 0.031
52.9366 -0.275
52.9669 -0.320
52.9972 0.260
53.0274 -0.045
53.0577 -0.298
53.0880 -0.200
53.1183 0.002
53.1486 0.360
53.1788 -0.167
53.2091 0.035
53.2394 -0.127
53.2697 0.388
53.3000 0.331
53.3302 0.065
53.3605 0.008
53.3908 -0.205
53.4211 0.207
53.4513 0.307
53.4816 -0.010
53.5119 0.403
53.5422 -0.330
53.5725 0.083
53.6027 0.184
53.6330 -0.184
53.6633 0.021
53.6936 -0.398
53.7239 0.224
53.7541 0.170
53.7844 0.428
53.8147 -0.147
53.8450 -0.305
53.8752 -0.203
53.9055 0.265
53.9358 0.055
53.9661 -0.258
53.9964 -0.311
54.0266 0.209
54.0569 0.365
54.0872 -0.365
54.1175 -0.313
54.1478 -0.158
54.1780 0.049
54.2083 -0.160
54.2386 0.360
54.2689 -0.057
54.2991 0.151
54.3294 0.307
54.3597 0.203
54.3900 0.568
54.4203 -0.421
54.4505 0.100
54.4808 0.049
54.5111 -0.158
54.5414 -0.313
54.5717 -0.064
54.6019 -0.075
54.6322 0.019
54.6625 0.008
54.6928 0.571
54.7230 -0.377
54.7533 0.394
54.7836 0.853
54.8139 -0.094
54.8442 -0.207
54.8744 -0.164
54.9047 -0.382
54.9350 0.183
54.9653 -0.139
54.9956 0.530
55.0258 0.261
55.0561 0.201
55.0864 -0.015
55.1167 0.551
55.1469 0.387
55.1772 0.380
55.2075 0.633
55.2378 0.418
55.2681 0.411
55.2983 -0.168
55.3286 -0.279
55.3589 1.017
55.3892 0.439
55.4195 0.068
55.4497 0.323
55.4800 0.058
55.5103 0.678
55.5406 0.412
55.5709 0.355
55.6011 1.341
55.6314 0.243
55.6617 0.395
55.6920 0.130
55.7222 0.856
55.7525 1.529
55.7828 1.161
55.8131 1.419
55.8434 1.364
55.8736 1.986
55.9039 1.671
55.9342 1.512
55.9645 1.458
55.9948 2.654
56.0250 1.975
56.0553 1.974
56.0856 2.701
56.1159 3.586
56.1461 3.064
56.1764 4.626
56.2067 4.365
56.2370 5.250
56.2673 6.187
56.2975 6.343
56.3278 7.333
56.3581 8.062
56.3884 8.948
56.4187 10.043
56.4489 10.356
56.4792 10.045
56.5095 8.588
56.5398 9.058
56.5700 8.071
56.6003 6.302
56.6306 6.616
56.6609 6.983
56.6912 6.361
56.7214 4.020
56.7517 4.127
56.7820 4.286
56.8123 2.883
56.8426 3.668
56.8728 2.995
56.9031 1.957
56.9334 1.753
56.9637 2.121
56.9939 1.136
57.0242 1.922
57.0545 2.292
57.0848 0.995
57.1151 1.208
57.1453 1.422
57.1756 0.490
57.2059 0.757
57.2362 0.867
57.2665 0.769
57.2967 0.775
57.3270 0.574
57.3573 1.049
57.3876 0.119
57.4178 0.699
57.4481 0.758
57.4784 -0.224
57.5087 0.617
57.5390 0.105
57.5692 0.009
57.5995 0.225
57.6298 0.494
57.6601 0.347
57.6904 0.252
57.7206 0.573
57.7509 0.739
57.7812 -0.293
57.8115 -0.492
57.8417 0.185
57.8720 0.132
57.9023 0.497
57.9326 0.393
57.9629 0.028
57.9931 -0.023
58.0234 0.082
58.0537 0.551
58.0840 0.136
58.1143 0.293
58.1445 0.086
58.1748 0.088
58.2051 0.090
58.2354 -0.377
58.2656 -0.010
58.2959 0.096
58.3262 0.099
58.3565 0.206
58.3868 -0.052
58.4170 -0.517
58.4473 0.007
58.4776 0.167
58.5079 -0.142
58.5382 0.539
58.5684 0.387
58.5987 -0.025
58.6290 0.656
58.6593 0.453
58.6896 -0.063
58.7198 -0.266
58.7501 -0.313
58.7804 -0.210
58.8107 -0.106
58.8409 -0.003
58.8712 0.153
58.9015 -0.211
58.9318 -0.159
58.9621 -0.211
58.9923 -0.158
59.0226 -0.262
59.0529 -0.313
59.0832 -0.052
59.1135 0.157
59.1437 -0.155
59.1740 -0.414
59.2043 0.316
59.2346 0.057
59.2648 0.163
59.2951 0.165
59.3254 0.375
59.3557 0.013
59.3860 0.172
59.4162 -0.138
59.4465 -0.291
59.4768 0.076
59.5071 -0.077
59.5374 -0.230
59.5676 -0.382
59.5979 0.246
59.6282 0.407
59.6585 0.098
59.6887 -0.001
59.7190 0.159
59.7493 0.112
59.7796 0.013
59.8099 0.174
59.8401 -0.289
59.8704 -0.127
59.9007 -0.174
59.9310 -0.064
59.9613 0.411
59.9915 0.001
60.0218 -0.097
60.0521 0.118
60.0824 -0.135
60.1126 -0.024
60.1429 -0.485
60.1732 -0.074
60.2035 -0.340
60.2338 0.228
60.2640 0.015
60.2943 0.479
60.3246 0.787
60.3549 -0.103
60.3852 -0.524
60.4154 0.097
60.4457 -0.115
60.4760 -0.118
60.5063 0.191
60.5365 0.135
60.5668 -0.284
60.5971 0.182
60.6274 0.179
60.6577 -0.188
60.6879 0.018
60.7182 0.589
60.7485 -0.506
60.7788 0.169
60.8091 0.636
60.8393 0.427
60.8696 0.113
60.8999 -0.148
60.9302 -0.096
60.9604 0.164
60.9907 -0.357
61.0210 -0.265
61.0513 0.558
61.0816 0.234
61.1118 0.484
61.1421 0.057
61.1724 -0.058
61.2027 -0.224
61.2330 -0.130
61.2632 0.225
61.2935 0.007
61.3238 -0.158
61.3541 0.041
61.3844 -0.072
61.4146 1.065
61.4449 0.119
61.4752 0.423
61.5055 0.311
61.5357 0.303
61.5660 0.139
61.5963 0.339
61.6266 -0.241
61.6569 0.116
61.6871 -0.203
61.7174 -0.470
61.7477 0.252
61.7780 0.298
61.8083 0.396
61.8385 0.442
61.8688 0.020
61.8991 0.483
61.9294 0.998
61.9596 0.732
61.9899 0.623
62.0202 0.775
62.0505 0.926
62.0808 -0.172
62.1110 1.230
62.1413 1.174
62.1716 0.910
62.2019 1.323
62.2322 1.684
62.2624 2.097
62.2927 1.990
62.3230 2.247
62.3533 1.984
62.3835 3.232
62.4138 2.761
62.4441 3.123
62.4744 2.861
62.5047 4.213
62.5349 5.149
62.5652 5.512
62.5955 5.095
62.6258 7.021
62.6561 6.499
62.6863 6.238
62.7166 7.644
62.7469 7.019
62.7772 7.696
62.8074 6.394
62.8377 7.749
62.8680 6.031
62.8983 6.292
62.9286 4.887
62.9588 4.836
62.9891 3.900
63.0194 4.787
63.0497 4.216
63.0800 3.072
63.1102 2.241
63.1405 2.816
63.1708 1.881
63.2011 1.050
63.2313 1.939
63.2616 1.630
63.2919 1.685
63.3222 1.636
63.3525 1.119
63.3827 0.602
63.4130 0.867
63.4433 0.923
63.4736 0.147
63.5039 0.568
63.5341 0.365
63.5644 0.578
63.5947 0.167
63.6250 0.433
63.6552 0.178
63.6855 0.132
63.7158 0.398
63.7461 0.561
63.7764 -0.006
63.8066 0.105
63.8369 0.425
63.8672 0.484
63.8975 -0.134
63.9278 0.030
63.9580 0.402
63.9883 -0.007
64.0186 -0.051
64.0489 -0.043
64.0791 0.382
64.1094 -0.338
64.1397 -0.173
64.1700 -0.320
64.2003 -0.052
64.2305 -0.095
64.2608 0.070
64.2911 -0.338
64.3214 0.140
64.3517 0.514
64.3819 0.003
64.4122 -0.092
64.4425 -0.134
64.4728 0.033
64.5031 0.251
64.5333 0.210
64.5636 0.585
64.5939 -0.238
64.6242 -0.383
64.6544 0.126
64.6847 0.219
64.7150 0.364
64.7453 0.300
64.7756 0.081
64.8058 -0.190
64.8361 0.424
64.8664 -0.159
64.8967 -0.222
64.9270 -0.023
64.9572 0.071
64.9875 0.478
65.0178 0.000
65.0481 -0.114
65.0783 -0.071
65.1086 -0.444
65.1389 0.068
65.1692 -0.149
65.1995 0.155
65.2297 -0.061
65.2600 -0.069
65.2903 -0.389
65.3206 -0.038
65.3509 -0.052
65.3811 -0.325
65.4114 -0.443
65.4417 0.221
65.4720 -0.314
65.5022 0.298
65.5325 -0.392
65.5628 -0.301
65.5931 -0.209
65.6234 -0.118
65.6536 0.391
65.6839 -0.090
65.7142 -0.466
65.7445 0.303
65.7748 -0.229
65.8050 0.333
65.8353 0.374
65.8656 0.311
65.8959 0.300
65.9261 0.602
65.9564 0.487
65.9867 0.060
66.0170 0.051
66.0473 0.093
66.0775 0.292
66.1078 0.543
66.1381 0.169
66.1684 0.420
66.1987 1.089
66.2289 0.611
66.2592 1.072
66.2895 0.178
66.3198 0.483
66.3500 0.527
66.3803 0.207
66.4106 0.356
66.4409 -0.016
66.4712 0.237
66.5014 0.074
66.5317 0.120
66.5620 0.374
66.5923 -0.101
66.6226 0.414
66.6528 0.304
66.6831 -0.275
66.7134 -0.020
66.7437 -0.077
66.7739 0.126
66.8042 -0.191
66.8345 0.012
66.8648 0.737
66.8951 -0.517
66.9253 0.364
66.9556 0.204
66.9859 0.356
67.0162 -0.168
67.0465 -0.067
67.0767 0.138
67.1070 0.864
67.1373 -0.128
67.1676 -0.182
67.1978 0.284
67.2281 0.386
67.2584 0.592
67.2887 0.174
67.3190 0.850
67.3492 1.369
67.3795 0.795
67.4098 1.054
67.4401 1.470
67.4704 1.209
67.5006 1.886
67.5309 2.667
67.5612 2.823
67.5915 3.084
67.6218 2.720
67.6520 4.023
67.6823 3.763
67.7126 4.858
67.7429 4.598
67.7731 4.131
67.8034 6.060
67.8337 4.864
67.8640 4.449
67.8943 4.503
67.9245 5.703
67.9548 4.248
67.9851 4.511
68.0154 3.628
68.0457 3.840
68.0759 2.281
68.1062 2.336
68.1365 2.600
68.1668 2.396
68.1970 1.619
68.2273 1.675
68.2576 1.367
68.2879 1.737
68.3182 1.116
68.3484 0.861
68.3787 1.439
68.4090 1.601
68.4393 1.450
68.4696 1.404
68.4998 0.681
68.5301 1.729
68.5604 0.902
68.5907 0.909
68.6209 1.020
68.6512 1.444
68.6815 1.138
68.7118 1.198
68.7421 1.466
68.7723 1.734
68.8026 1.586
68.8329 1.750
68.8632 2.696
68.8935 1.820
68.9237 1.985
68.9540 1.837
68.9843 1.482
69.0146 1.387
69.0448 2.074
69.0751 1.979
69.1054 2.146
69.1357 1.479
69.1660 1.020
69.1962 1.448
69.2265 0.729
69.2568 1.730
69.2871 1.220
69.3174 0.554
69.3476 0.618
69.3779 -0.100
69.4082 0.277
69.4385 0.445
69.4687 0.301
69.4990 0.366
69.5293 -0.090
69.5596 0.392
69.5899 0.509
69.6201 0.210
69.6504 0.484
69.6807 0.497
69.7110 -0.270
69.7413 -0.308
69.7715 -0.086
69.8018 -0.227
69.8321 -0.109
69.8624 0.167
69.8926 -0.339
69.9229 0.145
69.9532 -0.256
69.9835 -0.189
70.0138 -0.173
70.0440 -0.313
70.0743 -0.409
70.1046 0.381
70.1349 0.181
70.1652 0.086
70.1954 -0.061
70.2257 -0.104
70.2560 -0.303
70.2863 0.124
70.3166 -0.283
70.3468 -0.013
70.3771 -0.002
70.4074 -0.200
70.4377 -0.033
70.4679 -0.179
70.4982 0.301
70.5285 -0.104
70.5588 -0.041
70.5891 -0.290
70.6193 -0.180
70.6496 0.033
70.6799 -0.326
70.7102 0.201
70.7405 -0.314
70.7707 0.265
70.8010 -0.145
70.8313 -0.087
70.8616 0.024
70.8918 -0.021
70.9221 -0.066
70.9524 0.045
70.9827 -0.156
71.0130 0.008
71.0432 -0.140
71.0735 0.233
71.1038 -0.019
71.1341 0.197
71.1644 -0.263
71.1946 0.111
71.2249 0.068
71.2552 0.494
71.2855 -0.018
71.3157 0.252
71.3460 -0.103
71.3763 -0.249
71.4066 0.491
71.4369 -0.020
71.4671 -0.061
71.4974 0.054
71.5277 -0.092
71.5580 0.336
71.5883 0.087
71.6185 -0.266
71.6488 -0.166
71.6791 0.038
71.7094 -0.070
71.7396 0.030
71.7699 0.183
71.8002 -0.029
71.8305 0.176
71.8608 0.069
71.8910 0.274
71.9213 0.115
71.9516 0.425
71.9819 -0.046
72.0122 0.265
72.0424 0.263
72.0727 0.261
72.1030 0.156
72.1333 -0.158
72.1635 0.153
72.1938 -0.108
72.2241 0.204
72.2544 0.255
72.2847 0.151
72.3149 0.255
72.3452 0.411
72.3755 0.672
72.4058 0.620
72.4361 0.152
72.4663 0.830
72.4966 0.518
72.5269 0.520
72.5572 0.417
72.5874 0.731
72.6177 1.202
72.6480 0.006
72.6783 0.425
72.7086 0.219
72.7388 0.325
72.7691 0.224
72.7994 0.540
72.8297 0.230
72.8600 0.390
72.8902 0.029
72.9205 -0.071
72.9508 0.193
72.9811 -0.063
73.0113 -0.163
73.0416 -0.107
73.0719 0.211
73.1022 0.111
73.1325 0.065
73.1627 -0.086
73.1930 0.180
73.2233 -0.283
73.2536 -0.017
73.2839 -0.167
73.3141 0.620
73.3444 0.262
73.3747 0.217
73.4050 0.640
73.4353 -0.082
73.4655 -0.022
73.4958 0.193
73.5261 0.462
73.5564 -0.103
73.5866 0.165
73.6169 0.069
73.6472 -0.131
73.6775 0.034
73.7078 0.199
73.7380 0.052
73.7683 -0.095
73.7986 -0.138
73.8289 -0.388
73.8592 0.076
73.8894 -0.085
73.9197 0.745
73.9500 -0.145
73.9803 -0.096
74.0105 0.317
74.0408 0.470
74.0711 0.206
74.1014 -0.057
74.1317 -0.060
74.1619 0.302
74.1922 0.196
74.2225 0.298
74.2528 0.035
74.2831 0.086
74.3133 -0.333
74.3436 0.083
74.3739 0.029
74.4042 0.081
74.4344 0.340
74.4647 -0.077
74.4950 0.131
74.5253 0.235
74.5556 0.339
74.5858 -0.077
74.6161 0.340
74.6464 0.184
74.6767 -0.076
74.7070 -0.179
74.7372 0.135
74.7675 0.188
74.7978 0.086
74.8281 0.660
74.8583 -0.067
74.8886 0.092
74.9189 0.042
74.9492 0.305
74.9795 -0.005
75.0097 0.050
75.0400 -0.259
75.0703 -0.116
75.1006 0.132
75.1309 0.485
75.1611 0.265
75.1914 0.097
75.2217 0.137
75.2520 0.074
75.2822 0.167
75.3125 -0.157
75.3428 -0.011
75.3731 0.030
75.4034 0.332
75.4336 -0.199
75.4639 0.260
75.4942 0.146
75.5245 0.032
75.5548 0.231
75.5850 -0.247
75.6153 -0.256
75.6456 0.048
75.6759 0.300
75.7061 0.031
75.7364 -0.133
75.7667 0.015
75.7970 -0.097
75.8273 -0.313
75.8575 0.201
75.8878 -0.535
75.9181 -0.178
75.9484 0.128
75.9787 0.069
76.0089 0.115
76.0392 -0.047
76.0695 -0.053
76.0998 -0.059
76.1301 -0.273
76.1603 -0.122
76.1906 -0.126
76.2209 0.391
76.2512 -0.395
76.2814 -0.398
76.3117 0.379
76.3420 -0.041
76.3723 0.112
76.4026 0.213
76.4328 0.106
76.4631 0.052
76.4934 -0.524
76.5237 0.255
76.5540 -0.007
76.5842 -0.269
76.6145 0.510
76.6448 0.040
76.6751 0.455
76.7053 0.506
76.7356 0.506
76.7659 0.401
76.7962 0.504
76.8265 0.712
76.8567 0.348
76.8870 0.035
76.9173 0.296
76.9476 0.296
76.9779 0.401
77.0081 0.038
77.0384 0.299
77.0687 -0.064
77.0990 0.041
77.1292 -0.113
77.1595 0.045
77.1898 0.047
77.2201 0.258
77.2504 0.364
77.2806 0.106
77.3109 -0.255
77.3412 -0.148
77.3715 0.324
77.4018 -0.350
77.4320 -0.138
77.4623 0.074
77.4926 0.234
77.5229 0.082
77.5531 -0.017
77.5834 -0.273
77.6137 -0.165
77.6440 -0.265
77.6743 -0.364
77.7045 0.265
77.7348 0.010
77.7651 -0.037
77.7954 0.073
77.8257 -0.495
77.8559 0.240
77.8862 -0.119
77.9165 0.148
77.9468 0.363
77.9770 0.005
78.0073 0.324
78.0376 -0.294
78.0679 0.077
78.0982 -0.176
78.1284 -0.012
78.1587 0.360
78.1890 0.264
78.2193 -0.249
78.2496 -0.136
78.2798 -0.024
78.3101 0.089
78.3404 -0.058
78.3707 0.159
78.4009 0.064
78.4312 -0.083
78.4615 0.291
78.4918 0.301
78.5221 0.103
78.5523 -0.199
78.5826 0.280
78.6129 0.030
78.6432 -0.115
78.6735 -0.104
78.7037 0.167
78.7340 -0.186
78.7643 -0.226
78.7946 -0.075
78.8248 -0.080
78.8551 -0.084
78.8854 0.015
78.9157 0.116
78.9460 -0.201
78.9762 -0.100
79.0065 -0.312
79.0368 0.153
79.0671 0.671
79.0974 0.251
79.1276 0.092
79.1579 0.090
79.1882 0.087
79.2185 0.137
79.2488 0.083
79.2790 0.342
79.3093 -0.129
79.3396 0.391
79.3699 0.390
79.4001 0.232
79.4304 0.023
79.4607 0.179
79.4910 -0.082
79.5213 -0.134
79.5515 0.126
79.5818 0.074
79.6121 0.335
79.6424 -0.133
79.6727 -0.237
79.7029 -0.140
79.7332 -0.044
79.7635 0.261
79.7938 0.045
79.8240 0.038
79.8543 -0.177
79.8846 -0.132
79.9149 0.122
79.9452 0.116
79.9754 0.162
80.0057 0.364
80.0360 0.254
80.0663 -0.325
80.0966 0.087
80.1268 -0.231
80.1571 0.285
80.1874 0.020
80.2177 -0.089
80.2479 0.063
80.2782 -0.150
80.3085 0.263
80.3388 0.311
80.3691 -0.005
80.3993 0.148
80.4296 -0.012
80.4599 0.037
80.4902 0.190
80.5205 0.448
80.5507 -0.336
80.5810 0.027
80.6113 0.077
80.6416 0.075
80.6718 0.281
80.7021 -0.241
80.7324 -0.034
80.7627 -0.400
80.7930 0.068
80.8232 -0.297
80.8535 0.015
80.8838 -0.090
80.9141 -0.090
80.9444 -0.090
80.9746 0.327
81.0049 0.015
81.0352 0.068
81.0655 0.017
81.0957 -0.295
81.1260 -0.087
81.1563 -0.088
81.1866 -0.037
81.2169 0.275
81.2471 -0.141
81.2774 -0.141
81.3077 0.276
81.3380 0.276
81.3683 0.016
81.3985 -0.035
81.4288 0.174
81.4591 0.644
81.4894 -0.084
81.5196 0.282
81.5499 -0.028
81.5802 0.130
81.6105 0.028
81.6408 0.603
81.6710 0.033
81.7013 0.140
81.7316 0.090
81.7619 -0.219
81.7922 -0.268
81.8224 0.151
81.8527 0.205
81.8830 0.312
81.9133 0.106
81.9436 -0.256
81.9738 -0.409
82.0041 0.374
82.0344 -0.092
82.0647 -0.245
82.0949 0.227
82.1252 -0.238
82.1555 -0.183
82.1858 -0.075
82.2161 0.190
82.2463 -0.015
82.2766 -0.010
82.3069 0.150
82.3372 -0.053
82.3675 -0.205
82.3977 0.165
82.4280 -0.246
82.4583 -0.347
82.4886 0.230
82.5188 -0.183
82.5491 -0.126
82.5794 -0.070
82.6097 0.195
82.6400 -0.008
82.6702 -0.368
82.7005 -0.054
82.7308 -0.001
82.7611 -0.051
82.7914 -0.050
82.8216 -0.048
82.8519 0.058
82.8822 0.321
82.9125 -0.093
82.9427 0.066
82.9730 -0.296
83.0033 0.020
83.0336 0.075
83.0639 0.130
83.0941 0.082
83.1244 0.138
83.1547 0.038
83.1850 -0.010
83.2153 -0.006
83.2455 -0.366
83.2758 -0.052
83.3061 0.106
83.3364 0.108
83.3666 0.058
83.3969 -0.148
83.4272 0.323
83.4575 -0.195
83.4878 0.225
83.5180 0.696
83.5483 -0.082
83.5786 -0.547
83.6089 0.025
83.6392 0.077
83.6694 0.233
83.6997 -0.080
83.7300 0.129
83.7603 -0.079
83.7905 -0.183
83.8208 -0.130
83.8511 0.287
83.8814 -0.337
83.9117 0.342
83.9419 0.031
83.9722 0.293
84.0025 0.034
84.0328 -0.224
84.0631 0.299
84.0933 0.041
84.1236 -0.113
84.1539 -0.058
84.1842 0.258
84.2144 0.000
84.2447 0.108
84.2750 0.007
84.3053 -0.041
84.3356 0.067
84.3658 -0.189
84.3961 -0.081
84.4264 -0.284
84.4567 0.023
84.4870 0.382
84.5172 -0.144
84.5475 0.111
84.5778 0.002
84.6081 -0.055
84.6383 -0.007
84.6686 -0.011
84.6989 0.402
84.7292 0.241
84.7595 0.082
84.7897 0.078
84.8200 0.023
84.8503 0.384
84.8806 -0.035
84.9109 0.327
84.9411 0.012
84.9714 -0.147
85.0017 -0.045
85.0320 -0.047
85.0623 -0.205
85.0925 0.263
85.1228 0.001
85.1531 -0.052
85.1834 -0.053
85.2136 0.050
85.2439 -0.315
85.2742 0.049
85.3045 0.310
85.3348 0.310
85.3650 -0.419
85.3953 -0.054
85.4256 0.103
85.4559 -0.209
85.4862 0.105
85.5164 0.158
85.5467 0.211
85.5770 -0.099
85.6073 -0.098
85.6375 -0.044
85.6678 0.011
85.6981 -0.039
85.7284 -0.088
85.7587 0.071
85.7889 0.282
85.8192 0.493
85.8495 0.132
85.8798 0.292
85.9101 0.035
85.9403 -0.065
85.9706 0.044
86.0009 -0.004
86.0312 0.000
86.0614 -0.151
86.0917 0.166
86.1220 0.276
86.1523 -0.032
86.1826 -0.391
86.2128 0.448
86.2431 0.246
86.2734 0.044
86.3037 -0.002
86.3340 0.161
86.3642 0.220
86.3945 0.018
86.4248 -0.183
86.4551 0.241
86.4853 0.405
86.5156 0.048
86.5459 -0.205
86.5762 -0.205
86.6065 0.100
86.6367 0.301
86.6670 -0.019
86.6973 0.339
86.7276 0.175
86.7579 0.013
86.7881 0.110
86.8184 0.260
86.8487 0.254
86.8790 0.092
86.9092 0.086
86.9395 -0.075
86.9698 -0.081
87.0001 -0.294
87.0304 0.222
87.0606 0.269
87.0909 0.317
87.1212 0.104
87.1515 -0.056
87.1818 0.044
87.2120 -0.168
87.2423 0.245
87.2726 0.189
87.3029 -0.178
87.3331 -0.077
87.3634 0.337
87.3937 -0.082
87.4240 0.071
87.4543 0.017
87.4845 0.276
87.5148 -0.195
87.5451 0.064
87.5754 0.375
87.6057 0.165
87.6359 0.321
87.6662 0.059
87.6965 0.215
87.7268 0.267
87.7571 0.058
87.7873 0.371
87.8176 0.214
87.8479 -0.046
87.8782 0.163
87.9084 0.112
87.9387 0.373
87.9690 0.114
87.9993 -0.093
88.0296 0.117
88.0598 -0.038
88.0901 -0.036
88.1204 0.227
88.1507 0.594
88.1810 -0.081
88.2112 -0.234
88.2415 0.017
88.2718 0.424
88.3021 0.155
88.3323 0.667
88.3626 0.190
88.3929 0.181
88.4232 -0.087
88.4535 0.217
88.4837 0.262
88.5140 -0.058
88.5443 0.299
88.5746 0.396
88.6049 0.285
88.6351 0.122
88.6654 0.063
88.6957 0.056
88.7260 0.050
88.7562 -0.060
88.7865 0.247
88.8168 0.658
88.8471 0.288
88.8774 -0.134
88.9076 0.538
88.9379 0.325
88.9682 0.372
88.9985 0.680
89.0288 0.311
89.0590 0.568
89.0893 0.304
89.1196 0.560
89.1499 0.557
89.1801 0.762
89.2104 1.071
89.2407 0.860
89.2710 0.805
89.3013 0.647
89.3315 1.373
89.3618 0.903
89.3921 0.849
89.4224 0.482
89.4527 1.054
89.4829 1.521
89.5132 1.051
89.5435 0.425
89.5738 0.789
89.6040 0.580
89.6343 0.684
89.6646 1.101
89.6949 1.257
89.7252 1.153
89.7554 0.789
89.7857 1.050
89.8160 0.686
89.8463 0.322
89.8766 0.688
89.9068 -0.039
89.9371 0.066
89.9674 0.433
89.9977 0.330
90.0279 0.124
90.0582 0.283
90.0885 0.181
90.1188 0.705
90.1491 0.031
90.1793 0.138
90.2096 0.402
90.2399 0.093
90.2702 0.357
90.3005 0.153
90.3307 0.053
90.3610 0.474
90.3913 0.166
90.4216 0.014
90.4518 0.071
90.4821 -0.132
90.5124 0.394
90.5427 0.556
90.5730 -0.063
90.6032 -0.266
90.6335 -0.006
90.6638 -0.214
90.6941 -0.110
90.7244 -0.057
90.7546 0.464
90.7849 -0.316
90.8152 -0.211
90.8455 0.102
90.8758 0.260
90.9060 0.261
90.9363 -0.206
90.9666 0.005
90.9969 -0.202
91.0271 0.269
91.0574 -0.197
91.0877 -0.246
91.1180 0.061
91.1483 -0.100
91.1785 -0.053
91.2088 0.047
91.2391 -0.218
91.2694 -0.013
91.2997 0.139
91.3299 -0.385
91.3602 0.236
91.3905 0.181
91.4208 -0.239
91.4510 0.018
91.4813 -0.036
91.5116 -0.195
91.5419 -0.093
91.5722 -0.043
91.6024 -0.254
91.6327 -0.256
91.6630 0.160
91.6933 -0.414
91.7236 0.367
91.7538 0.158
91.7841 0.054
91.8144 -0.259
91.8447 -0.051
91.8749 0.002
91.9052 -0.362
91.9355 0.159
91.9658 0.108
91.9961 -0.256
92.0263 -0.256
92.0566 -0.105
92.0869 0.098
92.1172 -0.116
92.1475 -0.277
92.1777 0.395
92.2080 -0.079
92.2383 0.073
92.2686 0.069
92.2988 -0.196
92.3291 0.165
92.3594 0.161
92.3897 0.313
92.4200 0.414
92.4502 0.307
92.4805 -0.009
92.5108 0.665
92.5411 0.559
92.5714 0.088
92.6016 0.294
92.6319 0.083
92.6622 0.602
92.6925 0.288
92.7227 0.495
92.7530 0.390
92.7833 0.284
92.8136 0.075
92.8439 0.335
92.8741 -0.134
92.9044 -0.135
92.9347 -0.447
92.9650 0.178
92.9953 0.022
93.0255 -0.082
93.0558 0.336
93.0861 0.128
93.1164 0.077
93.1466 0.026
93.1769 0.236
93.2072 -0.023
93.2375 0.344
93.2678 0.658
93.2980 0.140
93.3283 -0.222
93.3586 0.093
93.3889 -0.165
93.4192 0.047
93.4494 0.154
93.4797 0.210
93.5100 0.005
93.5403 0.061
93.5706 -0.144
93.6008 0.121
93.6311 0.230
93.6614 0.390
93.6917 0.343
93.7219 -0.329
93.7522 -0.272
93.7825 0.411
93.8128 0.052
93.8431 0.318
93.8733 0.220
93.9036 -0.295
93.9339 -0.184
93.9642 0.291
93.9945 0.141
94.0247 0.305
94.0550 0.416
94.0853 -0.202
94.1156 0.066
94.1458 -0.291
94.1761 -0.143
94.2064 -0.099
94.2367 0.102
94.2670 -0.167
94.2972 0.295
94.3275 0.287
94.3578 -0.241
94.3881 0.273
94.4184 0.006
94.4486 0.260
94.4789 -0.163
94.5092 0.039
94.5395 0.398
94.5697 0.652
94.6000 0.074
94.6303 -0.400
94.6606 0.480
94.6909 0.423
94.7211 0.678
94.7514 0.622
94.7817 0.565
94.8120 0.561
94.8423 0.505
94.8725 0.189
94.9028 0.914
94.9331 0.807
94.9634 0.699
94.9936 0.904
95.0239 0.641
95.0542 0.951
95.0845 0.844
95.1148 0.686
95.1450 1.309
95.1753 0.838
95.2056 0.784
95.2359 0.262
95.2662 1.146
95.2964 0.676
95.3267 1.040
95.3570 0.623
95.3873 0.414
95.4175 0.987
95.4478 0.309
95.4781 1.455
95.5084 1.143
95.5387 0.258
95.5689 1.040
95.5992 0.155
95.6295 0.261
95.6598 0.418
95.6901 0.524
95.7203 0.421
95.7506 0.319
95.7809 0.165
95.8112 -0.041
95.8414 0.169
95.8717 0.016
95.9020 0.279
95.9323 0.230
95.9626 0.389
95.9928 0.184
96.0231 0.188
96.0534 0.608
96.0837 0.092
96.1140 0.096
96.1442 -0.004
96.1745 0.209
96.2048 0.682
96.2351 -0.146
96.2653 -0.089
96.2956 0.073
96.3259 -0.286
96.3562 -0.072
96.3865 -0.066
96.4167 -0.216
96.4470 -0.210
96.4773 -0.256
96.5076 0.105
96.5379 0.049
96.5681 0.098
96.5984 -0.062
96.6287 -0.169
96.6590 -0.172
96.6893 -0.331
96.7195 0.239
96.7498 -0.076
96.7801 0.338
96.8104 0.128
96.8406 -0.447
96.8709 -0.084
96.9012 0.123
96.9315 -0.347
96.9618 -0.198
96.9920 0.003
97.0223 -0.109
97.0526 0.249
97.0829 -0.591
97.1132 -0.233
97.1434 0.021
97.1737 0.118
97.2040 0.164
97.2343 0.054
97.2645 0.153
97.2948 -0.165
97.3251 -0.066
97.3554 -0.123
97.3857 0.236
97.4159 -0.185
97.4462 0.123
97.4765 -0.246
97.5068 -0.198
97.5371 -0.254
97.5673 -0.102
97.5976 -0.157
97.6279 0.048
97.6582 -0.007
97.6884 -0.010
97.7187 -0.326
97.7490 -0.016
97.7793 -0.174
97.8096 -0.072
97.8398 0.082
97.8701 0.132
97.9004 -0.234
97.9307 0.338
97.9610 0.076
97.9912 0.179
98.0215 -0.238
98.0518 0.074
98.0821 0.177
98.1123 -0.187
98.1426 -0.187
98.1729 -0.031
98.2032 0.126
98.2335 0.439
98.2637 0.283
98.2940 0.024
98.3243 0.077
98.3546 0.235
98.3849 0.236
98.4151 0.446
98.4454 0.344
98.4757 0.346
98.5060 0.140
98.5362 0.559
98.5665 0.666
98.5968 0.669
98.6271 0.151
98.6574 0.259
98.6876 0.262
98.7179 0.370
98.7482 0.166
98.7785 0.430
98.8088 0.695
98.8390 0.178
98.8693 0.079
98.8996 -0.020
98.9299 0.141
98.9601 0.407
98.9904 0.152
99.0207 0.366
99.0510 0.059
99.0813 0.742
99.1115 -0.033
99.1418 0.182
99.1721 0.345
99.2024 -0.065
99.2327 0.098
99.2629 0.105
99.2932 0.217
99.3235 0.120
99.3538 -0.237
99.3841 0.136
99.4143 0.405
99.4446 -0.420
99.4749 -0.256
99.5052 0.003
99.5354 -0.051
99.5657 -0.052
99.5960 0.103
99.6263 0.206
99.6566 0.154
99.6868 0.049
99.7171 0.309
99.7474 0.048
99.7777 0.152
99.8080 -0.212
99.8382 -0.107
99.8685 -0.107
99.8988 0.623
99.9291 -0.105
99.9593 0.104
99.9896 -0.519
100.0199 -0.153
100.0502 -0.256
100.0805 -0.099
100.1107 -0.256
100.1410 -0.206
100.1713 0.313
100.2016 -0.209
100.2319 -0.003
100.2621 0.309
100.2924 0.985
100.3227 -0.371
100.3530 0.097
100.3832 -0.112
100.4135 -0.164
100.4438 -0.373
100.4741 0.305
100.5044 -0.008
100.5346 -0.059
100.5649 0.306
100.5952 -0.214
100.6255 0.255
100.6558 -0.108
100.6860 -0.159
100.7163 -0.209
100.7466 0.105
100.7769 -0.154
100.8071 -0.256
100.8374 -0.203
100.8677 -0.150
100.8980 -0.253
100.9283 0.113
100.9585 0.010
100.9888 0.220
101.0191 -0.143
101.0494 -0.141
101.0797 -0.087
101.1099 0.019
101.1402 -0.291
101.1705 0.337
101.2008 0.080
101.2310 0.135
101.2613 -0.435
101.2916 -0.015
101.3219 0.041
101.3522 0.149
101.3824 -0.003
101.4127 -0.155
101.4430 0.162
101.4733 0.375
101.5036 0.120
101.5338 0.750
101.5641 0.026
101.5944 -0.021
101.6247 0.870
101.6549 -0.113
101.6852 -0.368
101.7155 0.035
101.7458 -0.031
101.7761 0.371
101.8063 -0.111
101.8366 -0.020
101.8669 0.123
101.8972 -0.099
101.9275 -0.268
101.9577 0.034
101.9880 0.179
102.0183 0.116
102.0486 0.002
102.0788 -0.009
102.1091 0.241
102.1394 0.232
102.1697 0.274
102.2000 -0.152
102.2302 -0.162
102.2605 0.350
102.2908 -0.024
102.3211 0.228
102.3514 0.272
102.3816 0.367
102.4119 0.203
102.4422 -0.065
102.4725 0.135
102.5028 0.128
102.5330 -0.192
102.5633 -0.304
102.5936 0.262
102.6239 0.620
102.6541 -0.064
102.6844 0.346
102.7147 0.132
102.7450 0.022
102.7753 0.380
102.8055 0.375
102.8358 0.213
102.8661 0.104
102.8964 0.255
102.9267 -0.115
102.9569 0.662
102.9872 -0.072
103.0175 0.393
103.0478 0.180
103.0780 0.177
103.1083 0.017
103.1386 0.169
103.1689 0.166
103.1992 0.267
103.2294 -0.100
103.2597 0.261
103.2900 0.051
103.3203 0.309
103.3506 0.046
103.3808 0.044
103.4111 -0.218
103.4414 0.041
103.4717 0.040
103.5019 0.559
103.5322 -0.275
103.5625 0.141
103.5928 0.401
103.6231 0.452
103.6533 0.296
103.6836 0.036
103.7139 -0.172
103.7442 0.245
103.7745 0.193
103.8047 0.142
103.8350 0.039
103.8653 0.352
103.8956 0.145
103.9258 0.199
103.9561 0.722
103.9864 0.619
104.0167 0.830
104.0470 0.624
104.0772 0.158
104.1075 0.629
104.1378 0.111
104.1681 0.844
104.1984 0.691
104.2286 0.746
104.2589 0.698
104.2892 0.650
104.3195 0.237
104.3497 0.137
104.3800 0.402
104.4103 1.136
104.4406 0.152
104.4709 0.157
104.5011 0.318
104.5314 -0.249
104.5617 -0.191
104.5920 -0.290
104.6223 -0.127
104.6525 -0.067
104.6828 0.200
104.7131 0.468
104.7434 -0.253
104.7736 -0.141
104.8039 -0.081
104.8342 0.083
104.8645 0.248
104.8948 0.465
104.9250 -0.099
104.9553 -0.298
104.9856 0.019
105.0159 -0.080
105.0462 -0.178
105.0764 0.244
105.1067 0.302
105.1370 -0.264
105.1673 0.002
105.1975 -0.199
105.2278 0.068
105.2581 0.023
105.2884 0.082
105.3187 -0.015
105.3489 0.045
105.3792 0.052
105.4095 0.112
105.4398 0.225
105.4701 -0.236
105.5003 0.293
105.5306 0.198
105.5609 0.103
105.5912 -0.097
105.6215 -0.139
105.6517 -0.182
105.6820 -0.120
105.7123 0.202
105.7426 -0.465
105.7728 -0.246
105.8031 0.168
105.8334 -0.042
105.8637 0.060
105.8940 -0.045
105.9242 0.110
105.9545 -0.048
105.9848 -0.049
106.0151 0.159
106.0454 -0.206
106.0756 0.106
106.1059 0.158
106.1362 0.053
106.1665 -0.155
106.1967 -0.102
106.2270 -0.102
106.2573 -0.101
106.2876 0.160
106.3179 -0.099
106.3481 -0.045
106.3784 -0.044
106.4087 0.166
106.4390 0.116
106.4693 -0.246
106.4995 -0.196
106.5298 -0.041
106.5601 0.113
106.5904 -0.200
106.6206 -0.149
106.6509 0.110
106.6812 0.266
106.7115 0.266
106.7418 -0.203
106.7720 0.265
106.8023 0.161
106.8326 0.214
106.8629 -0.046
106.8932 -0.150
106.9234 -0.149
106.9537 0.529
106.9840 0.010
107.0143 -0.093
107.0445 0.378
107.0748 -0.141
107.1051 0.434
107.1354 -0.033
107.1657 -0.395
107.1959 -0.034
107.2262 -0.089
107.2565 0.116
107.2868 0.165
107.3171 0.058
107.3473 0.211
107.3776 -0.052
107.4079 0.154
107.4382 0.204
107.4684 -0.006
107.4987 -0.112
107.5290 0.199
107.5593 0.459
107.5896 0.301
107.6198 -0.168
107.6501 -0.065
107.6804 -0.065
107.7107 0.247
107.7410 0.299
107.7712 0.247
107.8015 0.091
107.8318 0.091
107.8621 -0.064
107.8923 0.301
107.9226 0.042
107.9529 0.303
107.9832 -0.060
108.0135 0.411
108.0437 -0.369
108.0740 0.519
108.1043 -0.208
108.1346 0.159
108.1649 -0.359
108.1951 0.008
108.2254 0.219
108.2557 -0.246
108.2860 -0.455
108.3163 0.222
108.3465 0.066
108.3768 -0.350
108.4071 -0.037
108.4374 0.381
108.4676 -0.035
108.4979 -0.242
108.5282 0.333
108.5585 -0.187
108.5888 0.024
108.6190 0.286
108.6493 -0.181
108.6796 0.499
108.7099 -0.071
108.7402 -0.329
108.7704 0.039
108.8007 -0.166
108.8310 0.097
108.8613 -0.420
108.8915 -0.169
108.9218 0.395
108.9521 -0.030
108.9824 -0.247
109.0127 0.525
109.0429 -0.212
109.0732 -0.324
109.1035 0.293
109.1338 0.181
109.1641 -0.191
109.1943 0.218
109.2246 0.263
109.2549 -0.056
109.2852 -0.167
109.3154 -0.121
109.3457 -0.232
109.3760 -0.186
109.4063 -0.244
109.4366 -0.146
109.4668 0.057
109.4971 0.000
109.5274 0.047
109.5577 -0.114
109.5880 -0.015
109.6182 -0.020
109.6485 0.289
109.6788 0.337
109.7091 -0.240
109.7393 -0.140
109.7696 0.169
109.7999 0.322
109.8302 0.006
109.8605 0.420
109.8907 -0.156
109.9210 -0.159
109.9513 -0.161
109.9816 0.358
110.0119 -0.165
110.0421 0.302
110.0724 0.248
110.1027 0.351
110.1330 0.454
110.1632 0.088
110.1935 0.191
110.2238 0.712
110.2541 0.451
110.2844 0.346
110.3146 0.138
110.3449 0.294
110.3752 0.503
110.4055 0.087
110.4358 0.244
110.4660 0.245
110.4963 0.298
110.5266 0.195
110.5569 0.457
110.5871 0.458
110.6174 0.460
110.6477 0.046
110.6780 0.413
110.7083 0.103
110.7385 0.209
110.7688 0.108
110.7991 0.215
110.8294 -0.094
110.8597 0.639
110.8899 -0.243
110.9202 0.073
110.9505 0.025
110.9808 0.081
111.0110 -0.435
111.0413 0.038
111.0716 0.252
111.1019 -0.056
111.1322 0.001
111.1624 -0.202
111.1927 -0.144
111.2230 0.174
111.2533 -0.028
111.2836 0.030
111.3138 -0.015
111.3441 0.200
111.3744 -0.419
111.4047 -0.256
111.4350 0.211
111.4652 0.001
111.4955 0.156
111.5258 -0.106
111.5561 -0.002
111.5863 -0.264
111.6166 0.360
111.6469 -0.005
111.6772 -0.057
111.7075 -0.005
111.7377 0.047
111.7680 -0.109
111.7983 -0.265
111.8286 0.101
111.8589 0.674
111.8891 -0.054
111.9194 0.104
111.9497 -0.207
111.9800 -0.049
112.0102 0.005
112.0405 -0.045
112.0708 -0.199
112.1011 0.011
112.1314 -0.038
112.1616 -0.087
112.1919 -0.293
112.2222 0.022
112.2525 0.024
112.2828 -0.077
112.3130 -0.022
112.3433 -0.071
112.3736 -0.172
112.4039 -0.013
112.4341 0.147
112.4644 0.047
112.4947 -0.106
112.5250 -0.154
112.5553 0.007
112.5855 -0.093
112.6158 0.120
112.6461 0.438
112.6764 0.599
112.7067 0.136
112.7369 0.193
112.7672 0.147
112.7975 0.049
112.8278 0.576
112.8580 0.061
112.8883 0.172
112.9186 0.022
112.9489 0.185
112.9792 0.140
113.0094 -0.009
113.0397 -0.366
113.0700 -0.059
113.1003 -0.169
113.1306 0.399
113.1608 -0.023
113.1911 0.233
113.2214 0.488
113.2517 0.484
113.2819 -0.094
113.3122 0.163
113.3425 0.159
113.3728 0.467
113.4031 0.151
113.4333 -0.165
113.4636 0.092
113.4939 -0.379
113.5242 -0.018
113.5545 -0.489
113.5847 0.082
113.6150 -0.389
113.6453 0.129
113.6756 -0.185
113.7058 -0.447
113.7361 0.116
113.7664 0.158
113.7967 0.044
113.8270 0.087
113.8572 0.026
113.8875 -0.244
113.9178 -0.357
113.9481 0.207
113.9784 -0.009
114.0086 -0.070
114.0389 -0.286
114.0692 0.070
114.0995 0.115
114.1298 -0.153
114.1600 -0.264
114.1903 -0.115
114.2206 0.243
114.2509 -0.337
114.2811 0.178
114.3114 -0.089
114.3417 -0.199
114.3720 0.056
114.4023 0.206
114.4325 -0.476
114.4628 -0.273
114.4931 0.237
114.5234 -0.033
114.5537 -0.043
114.5839 0.104
114.6142 0.198
114.6445 0.033
114.6748 -0.133
114.7050 -0.246
114.7353 0.423
114.7656 -0.159
114.7959 -0.219
114.8262 0.033
114.8564 0.129
114.8867 -0.139
114.9170 -0.198
114.9473 -0.154
114.9776 0.204
115.0078 -0.324
115.0381 -0.174
115.0684 0.236
115.0987 -0.187
115.1289 0.067
115.1592 -0.616
115.1895 -0.153
115.2198 0.051
115.2501 -0.110
115.2803 0.250
115.3106 -0.223
115.3409 -0.227
115.3712 0.550
115.4015 -0.339
115.4317 -0.446
115.4620 0.696
115.4923 -0.192
115.5226 -0.143
115.5528 -0.042
115.5831 0.372
115.6134 -0.411
115.6437 0.524
115.6740 -0.103
115.7042 0.208
115.7345 0.102
115.7648 0.934
115.7951 0.204
115.8254 0.776
115.8556 0.202
115.8859 0.358
115.9162 0.357
115.9465 0.878
115.9767 -0.060
116.0070 0.566
116.0373 0.306
116.0676 0.567
116.0979 0.307
116.1281 0.568
116.1584 0.934
116.1887 0.571
116.2190 0.312
116.2493 0.574
116.2795 0.785
116.3098 0.891
116.3401 0.841
116.3704 0.844
116.4006 1.263
116.4309 0.849
116.4612 0.436
116.4915 0.856
116.5218 0.443
116.5520 0.238
116.5823 0.502
116.6126 0.506
116.6429 0.667
116.6732 -0.006
116.7034 0.051
116.7337 0.421
116.7640 0.270
116.7943 0.379
116.8245 -0.032
116.8548 -0.183
116.8851 0.448
116.9154 0.246
116.9457 0.252
116.9759 0.467
117.0062 0.317
117.0365 0.116
117.0668 0.644
117.0971 0.130
117.1273 0.137
117.1576 -0.220
117.1879 0.257
117.2182 -0.204
117.2485 0.065
117.2787 0.698
117.3090 0.394
117.3393 -0.013
117.3696 -0.057
117.3998 0.057
117.4301 -0.298
117.4604 -0.143
117.4907 0.065
117.5210 0.117
117.5512 0.221
117.5815 -0.039
117.6118 0.065
117.6421 0.170
117.6724 0.014
117.7026 -0.297
117.7329 0.172
117.7632 -0.347
117.7935 0.019
117.8237 0.385
117.8540 0.231
117.8843 -0.080
117.9146 -0.025
117.9449 0.133
117.9751 -0.124
118.0054 -0.226
118.0357 -0.171
118.0660 -0.167
118.0963 -0.008
118.1265 -0.421
118.1568 0.260
118.1871 -0.048
118.2174 -0.096
118.2476 0.012
118.2779 -0.139
118.3082 0.126
118.3385 0.443
118.3688 -0.020
118.3990 -0.067
118.4293 -0.478
118.4596 -0.011
118.4899 -0.065
118.5202 -0.066
118.5504 0.193
118.5807 -0.277
118.6110 0.295
118.6413 -0.174
118.6715 -0.227
118.7018 0.242
118.7321 -0.175
118.7624 0.242
118.7927 0.034
118.8229 -0.174
118.8532 -0.069
118.8835 -0.172
118.9138 -0.119
118.9441 -0.274
118.9743 0.092
119.0046 -0.479
119.0349 0.564
119.0652 -0.006
119.0954 -0.264
119.1257 -0.212
119.1560 -0.263
119.1863 0.102
119.2166 -0.001
119.2468 0.001
119.2771 -0.258
119.3074 0.160
119.3377 0.058
119.3680 0.165
119.3982 0.011
119.4285 -0.039
119.4588 -0.088
119.4891 -0.294
119.5193 0.230
119.5496 0.129
119.5799 -0.180
119.6102 0.033
119.6405 -0.328
119.6707 -0.012
119.7010 -0.268
119.7313 -0.057
119.7616 -0.418
119.7919 0.210
119.8221 -0.412
119.8524 -0.252
119.8827 0.012
119.9130 0.068
119.9433 -0.501
119.9735 -0.094
120.0038 0.000
