'Id: "" Comment: "" Operator: "Lab Manager" Anode: "Cu" Scantype: "Locked Coupled" TimePerStep: "19.2" X: "9999" Y: "9999" Z: "9999" 
10.0015 0.000
10.0318 0.274
10.0620 -0.650
10.0923 -0.346
10.1226 -0.511
10.1529 0.419
10.1832 -0.318
10.2134 0.613
10.2437 0.189
10.2740 -1.067
10.3043 -0.169
10.3346 -0.051
10.3648 0.588
10.3951 -0.440
10.4254 -0.165
10.4557 -0.150
10.4859 0.229
10.5162 0.766
10.5465 -0.520
10.5768 0.590
10.6071 -0.175
10.6373 0.207
10.6676 -0.401
10.6979 0.346
10.7282 0.468
10.7585 0.591
10.7887 -0.224
10.8190 0.316
10.8493 0.023
10.8796 0.668
10.9098 0.428
10.9401 0.188
10.9704 -0.520
11.0007 -0.143
11.0310 -0.027
11.0612 -0.274
11.0915 0.520
11.1218 0.534
11.1521 0.235
11.1824 -0.011
11.2126 0.056
11.2429 0.123
11.2732 0.346
11.3035 0.518
11.3337 0.118
11.3640 0.030
11.3943 0.151
11.4246 -0.301
11.4549 0.029
11.4851 0.152
11.5154 0.586
11.5457 0.188
11.5760 0.260
11.6063 0.696
11.6365 0.194
11.6668 0.475
11.6971 0.860
11.7274 0.516
11.7577 0.798
11.7879 0.872
11.8182 0.060
11.8485 0.343
11.8788 -0.416
11.9090 -0.323
11.9393 -0.231
11.9696 0.540
11.9999 1.623
12.0302 1.144
12.0604 1.498
12.0907 0.499
12.1210 0.594
12.1513 0.950
12.1816 0.473
12.2118 0.100
12.2421 0.405
12.2724 0.241
12.3027 0.651
12.3329 0.071
12.3632 0.638
12.3935 -0.045
12.4238 0.106
12.4541 0.569
12.4843 -0.425
12.5146 0.664
12.5449 -0.121
12.5752 -0.021
12.6055 0.028
12.6357 0.494
12.6660 0.856
12.6963 0.541
12.7266 -0.086
12.7568 -0.192
12.7871 0.797
12.8174 0.744
12.8477 -0.038
12.8780 -0.090
12.9082 0.744
12.9385 0.172
12.9688 0.381
12.9991 0.382
13.0294 0.801
13.0596 0.334
13.0899 0.389
13.1202 -0.129
13.1505 0.186
13.1807 0.398
13.2110 0.298
13.2413 -0.271
13.2716 -0.214
13.3019 0.312
13.3321 0.890
13.3624 0.115
13.3927 0.642
13.4230 -0.185
13.4533 -0.230
13.4835 -0.379
13.5138 -0.271
13.5441 0.358
13.5744 -0.574
13.6046 0.316
13.6349 0.321
13.6652 0.483
13.6955 0.906
13.7258 -0.181
13.7560 0.138
13.7863 0.615
13.8166 -0.003
13.8469 -0.568
13.8772 0.118
13.9074 0.335
13.9377 -0.125
13.9680 1.082
13.9983 0.311
14.0285 -0.043
14.0588 0.436
14.0891 0.499
14.1194 -0.063
14.1497 -0.468
14.1799 0.095
14.2102 0.711
14.2405 0.338
14.2708 0.277
14.3011 0.217
14.3313 0.365
14.3616 0.670
14.3919 0.350
14.4222 0.344
14.4524 0.598
14.4827 0.383
14.5130 0.221
14.5433 -0.461
14.5736 0.003
14.6038 -0.679
14.6341 0.098
14.6644 -0.218
14.6947 -0.274
14.7250 -0.016
14.7552 0.137
14.7855 -0.022
14.8158 0.497
14.8461 1.069
14.8764 -0.495
14.9066 0.598
14.9369 -0.549
14.9672 0.180
14.9975 -0.080
15.0277 0.077
15.0580 0.599
15.0883 0.287
15.1186 -0.232
15.1489 -0.230
15.1791 0.033
15.2094 -0.381
15.2397 0.091
15.2700 0.094
15.3003 -0.371
15.3305 -0.002
15.3608 0.419
15.3911 0.476
15.4214 -0.352
15.4516 -0.659
15.4819 0.702
15.5122 0.135
15.5425 -0.067
15.5728 -0.372
15.6030 -0.213
15.6333 0.364
15.6636 0.524
15.6939 0.215
15.7242 -0.509
15.7544 0.329
15.7847 0.074
15.8150 0.184
15.8453 0.398
15.8755 0.092
15.9058 0.359
15.9361 0.053
15.9664 0.269
15.9967 -0.244
16.0269 -0.340
16.0572 0.190
16.0875 0.094
16.1178 0.156
16.1481 1.259
16.1783 0.019
16.2086 0.394
16.2389 -0.272
16.2692 -0.001
16.2994 1.365
16.3297 0.491
16.3600 1.337
16.3903 0.933
16.4206 -0.044
16.4508 -0.187
16.4811 0.087
16.5114 0.726
16.5417 0.167
16.5720 -0.443
16.6022 0.145
16.6325 0.421
16.6628 0.020
16.6931 -0.172
16.7233 -0.520
16.7536 0.193
16.7839 1.219
16.8142 1.725
16.8445 0.876
16.8747 -0.180
16.9050 0.848
16.9353 0.000
16.9656 0.299
16.9959 0.078
17.0261 -0.143
17.0564 -0.051
17.0867 0.614
17.1170 0.446
17.1472 -0.138
17.1775 -0.097
17.2078 1.246
17.2381 -0.170
17.2684 0.549
17.2986 0.227
17.3289 -0.355
17.3592 0.157
17.3895 -0.007
17.4198 0.401
17.4500 -0.283
17.4803 0.230
17.5106 -0.350
17.5409 0.737
17.5712 -0.154
17.6014 -0.368
17.6317 -0.687
17.6620 0.557
17.6923 -0.073
17.7225 0.807
17.7528 -0.291
17.7831 0.017
17.8134 -0.143
17.8437 0.790
17.8739 0.631
17.9042 -0.309
17.9345 -0.208
17.9648 0.311
17.9951 -0.108
18.0253 0.151
18.0556 -0.214
18.0859 -0.163
18.1162 0.097
18.1464 0.670
18.1767 0.046
18.2070 0.046
18.2373 0.256
18.2676 -0.055
18.2978 -0.210
18.3281 -0.520
18.3584 0.264
18.3887 -0.150
18.4190 0.165
18.4492 -0.092
18.4795 0.589
18.5098 -0.032
18.5401 0.077
18.5703 0.082
18.6006 -0.486
18.6309 0.197
18.6612 -0.370
18.6915 0.157
18.7217 0.059
18.7520 0.483
18.7823 -0.239
18.8126 0.030
18.8429 0.715
18.8731 -0.162
18.9034 -0.726
18.9337 0.689
18.9640 0.803
18.9942 0.136
19.0245 -0.218
19.0548 -0.468
19.0851 0.254
19.1154 0.143
19.1456 -0.124
19.1759 0.182
19.2062 0.436
19.2365 -0.299
19.2668 0.113
19.2970 0.316
19.3273 -0.209
19.3576 0.880
19.3879 0.252
19.4181 -0.533
19.4484 0.714
19.4787 -0.487
19.5090 -0.020
19.5393 0.394
19.5695 -0.128
19.5998 -0.442
19.6301 0.181
19.6604 -0.550
19.6907 -0.030
19.7209 0.333
19.7512 -0.032
19.7815 0.228
19.8118 0.228
19.8420 0.593
19.8723 0.542
19.9026 0.387
19.9329 0.336
19.9632 1.067
19.9934 1.226
20.0237 1.384
20.0540 0.762
20.0843 1.547
20.1146 0.509
20.1448 -0.060
20.1751 0.049
20.2054 0.366
20.2357 0.423
20.2659 -0.196
20.2962 0.226
20.3265 -0.444
20.3568 0.187
20.3871 -0.275
20.4173 0.254
20.4476 -0.416
20.4779 -0.201
20.5082 0.483
20.5385 0.126
20.5687 0.498
20.5990 0.350
20.6293 0.619
20.6596 0.003
20.6899 -0.040
20.7201 0.386
20.7504 0.032
20.7807 0.459
20.8110 0.157
20.8412 0.637
20.8715 -0.133
20.9018 0.555
20.9321 -0.005
20.9624 0.268
20.9926 0.280
21.0229 -0.436
21.0532 -0.109
21.0835 0.217
21.1138 -0.446
21.1440 -0.014
21.1743 -0.104
21.2046 0.745
21.2349 -0.020
21.2651 1.142
21.2954 0.377
21.3257 -0.127
21.3560 0.203
21.3863 0.376
21.4165 0.707
21.4468 0.204
21.4771 1.213
21.5074 0.190
21.5377 -0.468
21.5679 -0.163
21.5982 0.611
21.6285 0.552
21.6588 0.181
21.6890 0.956
21.7193 0.846
21.7496 0.111
21.7799 0.263
21.8102 0.727
21.8404 0.722
21.8707 -0.011
21.9010 0.819
21.9313 0.764
21.9616 0.396
21.9918 0.029
22.0221 0.964
22.0524 0.494
22.0827 0.492
22.1129 0.179
22.1432 0.022
22.1735 -0.239
22.2038 -0.031
22.2341 0.386
22.2643 1.481
22.2946 0.128
22.3249 -0.183
22.3552 -0.546
22.3855 0.225
22.4157 -0.305
22.4460 -0.263
22.4763 0.093
22.5066 0.241
22.5368 0.389
22.5671 0.016
22.5974 0.217
22.6277 0.366
22.6580 0.828
22.6882 0.144
22.7185 0.503
22.7488 -0.180
22.7791 -0.342
22.8094 0.223
22.8396 0.007
22.8699 0.000
22.9002 0.775
22.9305 0.091
22.9607 0.189
22.9910 -0.806
23.0213 -0.139
23.0516 0.372
23.0819 0.103
23.1121 0.719
23.1424 -0.122
23.1727 -0.807
23.2030 0.591
23.2333 -0.354
23.2635 0.317
23.2938 0.466
23.3241 0.096
23.3544 0.246
23.3846 0.501
23.4149 0.861
23.4452 0.179
23.4755 -0.138
23.5058 -0.038
23.5360 -0.250
23.5663 0.216
23.5966 -0.047
23.6269 0.575
23.6572 0.104
23.6874 -0.887
23.7177 0.310
23.7480 -0.108
23.7783 0.516
23.8086 0.151
23.8388 -0.630
23.8691 0.308
23.8994 -0.368
23.9297 1.612
23.9599 -0.053
23.9902 -0.624
24.0205 0.102
24.0508 0.413
24.0811 0.880
24.1113 0.357
24.1416 0.564
24.1719 0.147
24.2022 -0.218
24.2325 -0.062
24.2627 -0.270
24.2930 -0.217
24.3233 0.148
24.3536 -0.475
24.3838 0.308
24.4141 -0.576
24.4444 0.468
24.4747 0.003
24.5050 0.162
24.5352 0.322
24.5655 -0.247
24.5958 0.434
24.6261 0.231
24.6564 0.027
24.6866 0.345
24.7169 0.455
24.7472 0.878
24.7775 0.103
24.8077 0.162
24.8380 -0.039
24.8683 0.177
24.8986 0.653
24.9289 -0.067
24.9591 0.670
24.9894 0.523
25.0197 -0.613
25.0500 0.334
25.0803 -0.020
25.1105 0.146
25.1408 -0.572
25.1711 -0.113
25.2014 -0.227
25.2316 0.492
25.2619 0.067
25.2922 0.475
25.3225 -0.523
25.3528 0.562
25.3830 0.399
25.4133 0.391
25.4436 -0.136
25.4739 0.430
25.5042 -0.201
25.5344 -0.103
25.5647 0.048
25.5950 0.720
25.6253 0.351
25.6555 -0.174
25.6858 0.238
25.7161 -0.442
25.7464 -0.029
25.7767 0.020
25.8069 -0.451
25.8372 0.276
25.8675 0.639
25.8978 -0.092
25.9281 -0.353
25.9583 0.111
25.9886 0.212
26.0189 -0.156
26.0492 -0.836
26.0794 0.255
26.1097 0.044
26.1400 1.032
26.1703 -0.220
26.2006 -0.013
26.2308 0.038
26.2611 -0.379
26.2914 0.402
26.3217 0.090
26.3520 0.143
26.3822 0.092
26.4125 -0.220
26.4428 0.043
26.4731 0.045
26.5034 0.308
26.5336 -0.002
26.5639 -0.728
26.5942 0.034
26.6245 0.067
26.6547 0.517
26.6850 0.498
26.7153 0.532
26.7456 0.046
26.7759 0.601
26.8061 0.376
26.8364 0.568
26.8667 0.343
26.8970 -0.297
26.9273 0.208
26.9575 -0.328
26.9878 0.959
27.0181 0.737
27.0484 0.723
27.0786 0.657
27.1089 0.748
27.1392 0.422
27.1695 0.670
27.1998 0.033
27.2300 0.334
27.2603 0.531
27.2906 -0.366
27.3209 0.353
27.3512 0.082
27.3814 0.489
27.4117 -0.094
27.4420 0.574
27.4723 -0.060
27.5025 -0.173
27.5328 0.392
27.5631 -0.449
27.5934 1.471
27.6237 0.370
27.6539 0.728
27.6842 -0.112
27.7145 -0.431
27.7448 0.658
27.7751 0.288
27.8053 -0.603
27.8356 0.122
27.8659 0.274
27.8962 -0.563
27.9264 0.215
27.9567 -0.309
27.9870 -0.624
28.0173 0.357
28.0476 -0.431
28.0778 -0.022
28.1081 0.544
28.1384 0.433
28.1687 0.115
28.1990 0.525
28.2292 -0.105
28.2595 0.255
28.2898 0.510
28.3201 0.089
28.3503 1.544
28.3806 0.655
28.4109 0.026
28.4412 -0.393
28.4715 -0.100
28.5017 0.818
28.5320 0.643
28.5623 0.937
28.5926 0.346
28.6229 -0.088
28.6531 0.416
28.6834 -0.122
28.7137 -0.295
28.7440 -0.103
28.7742 -0.327
28.8045 0.022
28.8348 0.528
28.8651 0.201
28.8954 0.030
28.9256 0.433
28.9559 0.367
28.9862 0.719
29.0165 -0.075
29.0468 0.745
29.0770 -0.256
29.1073 -0.112
29.1376 0.710
29.1679 -0.030
29.1981 -0.145
29.2284 -0.885
29.2587 0.182
29.2890 0.728
29.3193 0.649
29.3495 -0.263
29.3798 0.440
29.4101 0.050
29.4404 0.233
29.4707 -0.469
29.5009 0.080
29.5312 -0.101
29.5615 0.500
29.5918 -0.565
29.6221 -0.379
29.6523 -0.090
29.6826 0.201
29.7129 0.074
29.7432 -0.468
29.7734 -0.025
29.8037 -0.206
29.8340 0.342
29.8643 -0.619
29.8946 0.294
29.9248 0.375
29.9551 0.508
29.9854 0.277
30.0157 0.150
30.0460 0.440
30.0762 0.575
30.1065 0.137
30.1368 -0.457
30.1671 -0.178
30.1973 0.673
30.2276 0.484
30.2579 1.337
30.2882 0.627
30.3185 0.960
30.3487 0.719
30.3790 0.844
30.4093 0.605
30.4396 1.564
30.4699 0.961
30.5001 0.827
30.5304 1.526
30.5607 0.872
30.5910 1.781
30.6212 2.013
30.6515 0.995
30.6818 2.322
30.7121 1.305
30.7424 1.174
30.7726 2.032
30.8029 2.735
30.8332 2.449
30.8635 2.892
30.8938 3.544
30.9240 1.644
30.9543 4.537
30.9846 4.981
31.0149 3.551
31.0451 5.924
31.0754 6.630
31.1057 7.441
31.1360 7.939
31.1663 7.605
31.1965 8.885
31.2268 10.791
31.2571 12.125
31.2874 12.156
31.3177 16.303
31.3479 17.273
31.3782 20.379
31.4085 22.860
31.4388 26.018
31.4690 27.667
31.4993 34.420
31.5296 36.902
31.5599 40.635
31.5902 41.764
31.6204 47.685
31.6507 47.721
31.6810 45.622
31.7113 43.992
31.7416 41.009
31.7718 35.786
31.8021 30.563
31.8324 30.862
31.8627 25.796
31.8929 20.731
31.9232 18.374
31.9535 14.872
31.9838 13.454
32.0141 12.193
32.0443 11.035
32.0746 9.566
32.1049 8.149
32.1352 6.108
32.1655 5.265
32.1957 4.266
32.2260 3.579
32.2563 3.623
32.2866 5.437
32.3169 3.815
32.3471 3.807
32.3774 1.717
32.4077 2.647
32.4380 3.370
32.4682 2.114
32.4985 1.639
32.5288 1.946
32.5591 0.951
32.5894 1.572
32.6196 2.244
32.6499 2.188
32.6802 0.935
32.7105 0.515
32.7408 0.564
32.7710 1.134
32.8013 -0.066
32.8316 0.714
32.8619 -0.382
32.8921 0.607
32.9224 2.065
32.9527 0.866
32.9830 1.075
33.0133 -0.019
33.0435 0.503
33.0738 0.087
33.1041 -0.536
33.1344 -0.344
33.1647 -0.100
33.1949 0.144
33.2252 0.337
33.2555 1.155
33.2858 0.203
33.3160 0.293
33.3463 0.331
33.3766 -0.203
33.4069 0.200
33.4372 0.291
33.4674 0.123
33.4977 0.527
33.5280 0.828
33.5583 0.920
33.5886 2.316
33.6188 1.263
33.6491 1.045
33.6794 1.764
33.7097 2.119
33.7399 1.328
33.7702 1.528
33.8005 1.936
33.8308 2.813
33.8611 4.784
33.8913 6.079
33.9216 4.718
33.9519 6.794
33.9822 7.569
34.0125 7.355
34.0427 11.777
34.0730 13.230
34.1033 17.027
34.1336 21.293
34.1638 24.987
34.1941 33.056
34.2244 39.459
34.2547 48.154
34.2850 53.203
34.3152 54.659
34.3455 50.543
34.3758 45.749
34.4061 39.759
34.4364 30.956
34.4666 23.143
34.4969 18.142
34.5272 14.184
34.5575 11.945
34.5877 10.384
34.6180 8.875
34.6483 7.314
34.6786 6.118
34.7089 5.548
34.7391 5.602
34.7694 4.876
34.7997 2.328
34.8300 2.853
34.8603 2.492
34.8905 3.539
34.9208 2.189
34.9511 3.236
34.9814 3.607
35.0116 2.050
35.0419 2.630
35.0722 3.157
35.1025 2.539
35.1328 4.578
35.1630 4.221
35.1933 3.865
35.2236 2.832
35.2539 4.091
35.2842 5.038
35.3144 2.860
35.3447 3.599
35.3750 5.797
35.4053 6.225
35.4356 4.986
35.4658 6.716
35.4961 9.489
35.5264 7.157
35.5567 8.420
35.5869 9.370
35.6172 10.061
35.6475 11.741
35.6778 14.620
35.7081 14.791
35.7383 17.670
35.7686 19.143
35.7989 22.336
35.8292 23.758
35.8595 29.868
35.8897 32.333
35.9200 36.933
35.9503 45.232
35.9806 48.114
36.0108 52.195
36.0411 59.765
36.0714 64.211
36.1017 66.262
36.1320 68.625
36.1622 70.155
36.1925 64.238
36.2228 63.478
36.2531 55.686
36.2834 51.749
36.3136 46.146
36.3439 40.856
36.3742 32.805
36.4045 31.526
36.4347 24.622
36.4650 21.625
36.4953 21.024
36.5256 17.246
36.5559 15.552
36.5861 13.442
36.6164 11.280
36.6467 8.805
36.6770 8.936
36.7073 8.285
36.7375 5.447
36.7678 5.422
36.7981 5.085
36.8284 4.905
36.8586 5.038
36.8889 3.087
36.9192 3.325
36.9495 2.989
36.9798 2.290
37.0100 2.476
37.0403 2.611
37.0706 1.548
37.1009 2.257
37.1312 3.226
37.1614 2.060
37.1917 1.311
37.2220 0.666
37.2523 0.804
37.2825 0.889
37.3128 0.871
37.3431 1.061
37.3734 0.471
37.4037 0.141
37.4339 0.489
37.4642 0.577
37.4945 0.769
37.5248 -0.341
37.5551 1.154
37.5853 -0.631
37.6156 0.292
37.6459 -0.087
37.6762 1.045
37.7064 0.458
37.7367 0.341
37.7670 -0.557
37.7973 0.003
37.8276 -0.009
37.8578 0.761
37.8881 -0.032
37.9184 0.426
37.9487 -0.106
37.9790 0.144
38.0092 0.395
38.0395 -0.240
38.0698 0.533
38.1001 0.472
38.1304 -0.839
38.1606 -0.326
38.1909 0.031
38.2212 -0.029
38.2515 -0.348
38.2817 -0.407
38.3120 0.258
38.3423 0.611
38.3726 -0.234
38.4029 -0.037
38.4331 0.889
38.4634 -0.319
38.4937 -0.173
38.5240 -0.026
38.5543 -0.296
38.5845 0.059
38.6148 -0.001
38.6451 0.511
38.6754 0.191
38.7056 -0.442
38.7359 -0.160
38.7662 0.018
38.7965 -0.637
38.8268 0.947
38.8570 0.345
38.8873 1.045
38.9176 0.287
38.9479 0.207
38.9782 0.283
39.0084 0.308
39.0387 0.072
39.0690 -0.423
39.0993 0.436
39.1295 -0.163
39.1598 -0.345
39.1901 -0.242
39.2204 -0.399
39.2507 0.330
39.2809 0.486
39.3112 0.331
39.3415 0.279
39.3718 0.541
39.4021 0.178
39.4323 0.753
39.4626 0.339
39.4929 0.289
39.5232 0.136
39.5534 -0.121
39.5837 0.820
39.6140 -0.425
39.6443 0.204
39.6746 0.209
39.7048 0.058
39.7351 -0.457
39.7654 0.434
39.7957 0.389
39.8260 0.031
39.8562 0.038
39.8865 -0.163
39.9168 0.053
39.9471 0.217
39.9773 0.174
40.0076 -0.130
40.0379 -0.120
40.0682 0.150
40.0985 0.108
40.1287 0.066
40.1590 0.754
40.1893 0.921
40.2196 0.151
40.2499 -0.201
40.2801 0.071
40.3104 0.240
40.3407 0.201
40.3710 -0.098
40.4012 0.019
40.4315 -0.175
40.4618 0.256
40.4921 0.583
40.5224 0.130
40.5526 -0.063
40.5829 0.161
40.6132 -0.135
40.6435 0.194
40.6738 -0.570
40.7040 0.384
40.7343 0.871
40.7646 -0.153
40.7949 0.491
40.8251 0.822
40.8554 0.060
40.8857 -0.337
40.9160 -0.030
40.9463 0.487
40.9765 0.118
41.0068 0.271
41.0371 0.424
41.0674 -0.256
41.0977 0.418
41.1279 0.364
41.1582 0.154
41.1885 0.152
41.2188 0.151
41.2491 -0.110
41.2793 -0.058
41.3096 0.307
41.3399 0.724
41.3702 0.099
41.4004 -0.004
41.4307 1.039
41.4610 0.156
41.4913 -0.259
41.5216 -0.308
41.5518 -0.054
41.5821 0.357
41.6124 -0.378
41.6427 -0.227
41.6730 0.393
41.7032 0.492
41.7335 0.436
41.7638 0.328
41.7941 0.220
41.8243 0.634
41.8546 0.371
41.8849 0.160
41.9152 -0.259
41.9455 0.625
41.9757 0.259
42.0060 0.206
42.0363 0.206
42.0666 0.518
42.0969 0.258
42.1271 -0.315
42.1574 -0.158
42.1877 -0.312
42.2180 -0.054
42.2482 0.152
42.2785 0.099
42.3088 0.515
42.3391 0.097
42.3694 0.409
42.3996 0.618
42.4299 -0.059
42.4602 0.255
42.4905 0.412
42.5208 0.414
42.5510 0.363
42.5813 -0.103
42.6116 0.681
42.6419 -0.045
42.6721 0.635
42.7024 0.118
42.7327 -0.086
42.7630 0.022
42.7933 -0.598
42.8235 0.018
42.8538 0.166
42.8841 0.418
42.9144 -0.163
42.9447 0.298
42.9749 -0.230
43.0052 -0.237
43.0355 0.850
43.0658 0.219
43.0960 0.109
43.1263 -0.001
43.1566 0.255
43.1869 0.250
43.2172 -0.431
43.2474 0.346
43.2777 -0.335
43.3080 -0.182
43.3383 0.024
43.3686 0.073
43.3988 -0.137
43.4291 0.382
43.4594 0.224
43.4897 0.275
43.5199 -0.246
43.5502 0.431
43.5805 -0.403
43.6108 0.119
43.6411 -0.245
43.6713 -0.296
43.7016 0.434
43.7319 -0.085
43.7622 0.178
43.7925 0.077
43.8227 -0.077
43.8530 0.083
43.8833 0.034
43.9136 0.299
43.9439 -0.061
43.9741 -0.317
44.0044 0.095
44.0347 0.507
44.0650 0.712
44.0952 -0.281
44.1255 0.288
44.1558 0.181
44.1861 0.283
44.2164 0.333
44.2466 0.227
44.2769 0.069
44.3072 0.380
44.3375 -0.766
44.3678 0.067
44.3980 0.223
44.4283 -0.037
44.4586 0.328
44.4889 0.538
44.5191 -0.034
44.5494 0.072
44.5797 0.439
44.6100 0.494
44.6403 0.288
44.6705 0.292
44.7008 0.712
44.7311 0.716
44.7614 0.200
44.7917 0.100
44.8219 -0.468
44.8522 -0.064
44.8825 -0.285
44.9128 -0.037
44.9430 -0.309
44.9733 -0.321
45.0036 -0.236
45.0339 0.423
45.0642 0.665
45.0944 0.282
45.1247 0.577
45.1550 0.143
45.1853 0.075
45.2156 0.423
45.2458 0.302
45.2761 0.443
45.3064 0.323
45.3367 0.465
45.3669 -0.175
45.3972 -0.085
45.4275 0.214
45.4578 0.148
45.4881 -0.126
45.5183 0.070
45.5486 0.110
45.5789 -0.007
45.6092 0.190
45.6395 0.283
45.6697 0.272
45.7000 -0.520
45.7303 -0.224
45.7606 -0.293
45.7908 0.316
45.8211 0.040
45.8514 -0.288
45.8817 0.010
45.9120 0.308
45.9422 -0.123
45.9725 0.019
46.0028 -0.255
46.0331 -0.112
46.0634 0.240
46.0936 0.019
46.1239 0.320
46.1542 -0.004
46.1845 -0.745
46.2147 0.182
46.2450 0.275
46.2753 -0.152
46.3056 -0.057
46.3359 -0.223
46.3661 0.236
46.3964 -0.241
46.4267 -0.041
46.4570 0.211
46.4873 -0.317
46.5175 -0.272
46.5478 0.293
46.5781 0.495
46.6084 0.749
46.6386 0.379
46.6689 0.321
46.6992 0.212
46.7295 1.093
46.7598 0.463
46.7900 1.241
46.8203 0.508
46.8506 1.807
46.8809 1.856
46.9112 1.124
46.9414 1.018
46.9717 2.735
47.0020 3.410
47.0323 3.930
47.0626 3.929
47.0928 3.356
47.1231 4.450
47.1534 6.481
47.1837 7.211
47.2139 9.191
47.2442 8.620
47.2745 10.080
47.3048 10.759
47.3351 11.647
47.3653 12.535
47.3956 11.966
47.4259 13.480
47.4562 11.817
47.4865 13.124
47.5167 9.639
47.5470 9.696
47.5773 10.795
47.6076 9.239
47.6378 8.099
47.6681 6.908
47.6984 6.029
47.7287 4.943
47.7590 4.742
47.7892 3.396
47.8195 3.196
47.8498 4.194
47.8801 2.693
47.9104 2.286
47.9406 2.452
47.9709 1.576
48.0012 1.327
48.0315 1.598
48.0617 0.411
48.0920 0.944
48.1223 1.216
48.1526 0.656
48.1829 -0.009
48.2131 0.317
48.2434 0.695
48.2737 0.761
48.3040 0.150
48.3343 0.946
48.3645 1.430
48.3948 -0.638
48.4251 0.315
48.4554 0.904
48.4856 0.556
48.5159 -0.053
48.5462 0.538
48.5765 0.347
48.6068 -0.156
48.6370 0.435
48.6673 0.245
48.6976 0.733
48.7279 0.752
48.7582 0.043
48.7884 -0.093
48.8187 -0.333
48.8490 -0.263
48.8793 0.381
48.9095 -0.016
48.9398 -0.101
48.9701 0.440
49.0004 -0.060
49.0307 -0.195
49.0609 -0.278
49.0912 0.160
49.1215 0.025
49.1518 -0.317
49.1821 0.001
49.2123 0.110
49.2426 0.064
49.2729 -0.191
49.3032 -0.028
49.3334 0.812
49.3637 0.142
49.3940 0.358
49.4243 0.470
49.4546 -0.303
49.4848 0.487
49.5151 0.392
49.5454 0.297
49.5757 -0.110
49.6060 -0.308
49.6362 -0.254
49.6665 0.008
49.6968 0.427
49.7271 0.325
49.7574 -0.192
49.7876 0.071
49.8179 0.127
49.8482 -0.077
49.8785 0.448
49.9087 0.297
49.9390 -0.167
49.9693 0.099
49.9996 -0.363
50.0299 -0.047
50.0601 -0.304
50.0904 -0.358
50.1207 0.525
50.1510 0.940
50.1813 -0.415
50.2115 0.261
50.2418 0.365
50.2721 -0.833
50.3024 0.208
50.3326 -0.416
50.3629 0.106
50.3932 0.263
50.4235 -0.464
50.4538 0.006
50.4840 -0.304
50.5143 -0.410
50.5446 0.629
50.5749 0.211
50.6052 0.313
50.6354 0.000
50.6657 0.103
50.6960 0.415
50.7263 -0.106
50.7565 -0.105
50.7868 -0.052
50.8171 0.574
50.8474 -0.102
50.8777 0.733
50.9079 0.319
50.9382 0.217
50.9685 0.428
50.9988 0.171
51.0291 0.071
51.0593 0.283
51.0896 -0.546
51.1199 -0.234
51.1502 -0.079
51.1804 -0.444
51.2107 0.233
51.2410 0.233
51.2713 0.390
51.3016 0.443
51.3318 -0.077
51.3621 -0.023
51.3924 0.396
51.4227 0.190
51.4530 0.036
51.4832 -0.117
51.5135 0.512
51.5438 -0.057
51.5741 -0.001
51.6043 0.264
51.6346 0.582
51.6649 0.431
51.6952 -0.032
51.7255 -0.339
51.7557 0.553
51.7860 1.289
51.8163 -0.162
51.8466 0.783
51.8769 -0.147
51.9071 -0.295
51.9374 0.119
51.9677 -0.508
51.9980 0.584
52.0282 0.426
52.0585 -0.043
52.0888 0.268
52.1191 0.007
52.1494 0.372
52.1796 0.216
52.2099 0.373
52.2402 0.322
52.2705 0.219
52.3008 0.065
52.3310 0.067
52.3613 0.226
52.3916 0.385
52.4219 -0.081
52.4521 -0.337
52.4824 0.127
52.5127 0.279
52.5430 -0.089
52.5733 0.272
52.6035 0.790
52.6338 -0.150
52.6641 0.056
52.6944 0.731
52.7247 0.261
52.7549 0.155
52.7852 0.259
52.8155 -0.679
52.8458 0.362
52.8761 0.571
52.9063 -0.262
52.9366 -0.052
52.9669 -0.363
52.9972 0.091
53.0274 0.494
53.0577 0.377
53.0880 -0.052
53.1183 0.508
53.1486 0.236
53.1788 0.328
53.2091 0.525
53.2394 -0.007
53.2697 0.295
53.3000 0.024
53.3302 0.118
53.3605 0.317
53.3908 0.048
53.4211 0.560
53.4513 0.239
53.4816 -0.447
53.5119 0.171
53.5422 -0.357
53.5725 0.625
53.6027 -0.423
53.6330 -0.013
53.6633 0.033
53.6936 0.132
53.7239 0.335
53.7541 0.226
53.7844 -0.403
53.8147 0.322
53.8450 -0.099
53.8752 0.106
53.9055 0.468
53.9358 0.153
53.9661 -0.214
53.9964 0.305
54.0266 0.095
54.0569 0.927
54.0872 0.249
54.1175 0.561
54.1478 0.301
54.1780 0.093
54.2083 0.719
54.2386 0.511
54.2689 0.252
54.2991 -0.215
54.3294 -0.317
54.3597 0.088
54.3900 0.910
54.4203 0.222
54.4505 0.472
54.4808 0.046
54.5111 0.400
54.5414 0.599
54.5717 0.382
54.6019 0.373
54.6322 0.626
54.6625 0.670
54.6928 0.871
54.7230 0.030
54.7533 0.179
54.7836 -0.556
54.8139 0.375
54.8442 -0.151
54.8744 0.729
54.9047 0.307
54.9350 0.198
54.9653 0.715
54.9956 -0.175
55.0258 0.134
55.0561 -0.390
55.0864 -0.096
55.1167 0.459
55.1469 0.805
55.1772 0.527
55.2075 0.458
55.2378 0.753
55.2681 0.424
55.2983 0.824
55.3286 1.017
55.3589 0.897
55.3892 0.674
55.4195 0.763
55.4497 0.697
55.4800 0.891
55.5103 0.825
55.5406 1.020
55.5709 0.486
55.6011 1.307
55.6314 1.868
55.6617 0.866
55.6920 1.688
55.7222 1.885
55.7525 1.979
55.7828 2.802
55.8131 2.167
55.8434 2.990
55.8736 2.564
55.9039 2.347
55.9342 4.057
55.9645 4.153
55.9948 4.458
56.0250 4.919
56.0553 5.224
56.0856 5.582
56.1159 5.732
56.1461 6.872
56.1764 8.481
56.2067 7.486
56.2370 9.512
56.2673 10.497
56.2975 12.628
56.3278 11.583
56.3581 14.704
56.3884 15.378
56.4187 18.136
56.4489 18.811
56.4792 18.861
56.5095 18.286
56.5398 18.285
56.5700 17.347
56.6003 15.784
56.6306 14.117
56.6609 12.502
56.6912 11.774
56.7214 10.212
56.7517 9.015
56.7820 9.225
56.8123 8.446
56.8426 7.771
56.8728 7.097
56.9031 4.027
56.9334 4.291
56.9637 5.597
56.9939 3.622
57.0242 2.845
57.0545 3.527
57.0848 2.179
57.1151 2.080
57.1453 2.086
57.1756 2.509
57.2059 2.307
57.2362 1.481
57.2665 2.166
57.2967 1.080
57.3270 1.296
57.3573 0.732
57.3876 0.949
57.4178 0.282
57.4481 0.656
57.4784 0.353
57.5087 1.562
57.5390 0.479
57.5692 0.594
57.5995 -0.176
57.6298 0.826
57.6601 0.421
57.6904 -0.400
57.7206 0.082
57.7509 -0.113
57.7812 -0.099
57.8115 -0.241
57.8417 0.502
57.8720 -0.368
57.9023 0.272
57.9326 -0.182
57.9629 -0.322
57.9931 0.215
58.0234 0.440
58.0537 0.249
58.0840 0.058
58.1143 0.232
58.1445 0.354
58.1748 0.164
58.2051 0.235
58.2354 0.098
58.2656 -0.247
58.2959 0.189
58.3262 -0.416
58.3565 -0.160
58.3868 -0.112
58.4170 -0.064
58.4473 0.869
58.4776 0.449
58.5079 0.082
58.5382 -0.494
58.5684 -0.032
58.5987 0.534
58.6290 -0.305
58.6593 0.730
58.6896 0.308
58.7198 -0.114
58.7501 -0.275
58.7804 0.189
58.8107 0.810
58.8409 0.077
58.8712 0.074
58.9015 0.904
58.9318 -0.140
58.9621 0.170
58.9923 0.325
59.0226 0.115
59.0529 0.374
59.0832 0.217
59.1135 -0.252
59.1437 -0.252
59.1740 0.321
59.2043 -0.252
59.2346 0.010
59.2648 -0.301
59.2951 0.013
59.3254 -0.297
59.3557 0.122
59.3860 -0.553
59.4162 0.336
59.4465 -0.390
59.4768 -0.287
59.5071 -0.027
59.5374 -0.131
59.5676 -0.079
59.5979 0.806
59.6282 -0.234
59.6585 -0.494
59.6887 0.289
59.7190 0.395
59.7493 -0.385
59.7796 0.139
59.8099 0.037
59.8401 -0.116
59.8704 0.148
59.9007 -0.213
59.9310 -0.365
59.9613 0.577
59.9915 0.165
60.0218 -0.246
60.0521 -0.188
60.0824 0.599
60.1126 -0.905
60.1429 -0.325
60.1732 0.501
60.2035 -0.288
60.2338 -0.034
60.2640 -0.301
60.2943 -0.046
60.3246 0.261
60.3549 -0.422
60.3852 0.407
60.4154 -0.066
60.4457 -0.279
60.4760 -0.230
60.5063 0.339
60.5365 -0.029
60.5668 0.073
60.5971 -0.190
60.6274 0.537
60.6577 0.588
60.6879 -0.351
60.7182 0.065
60.7485 0.221
60.7788 0.325
60.8091 0.221
60.8393 -0.820
60.8696 0.223
60.8999 0.068
60.9302 0.226
60.9604 0.071
60.9907 0.386
61.0210 0.597
61.0513 -0.233
61.0816 0.344
61.1118 -0.329
61.1421 -0.401
61.1724 0.830
61.2027 0.447
61.2330 -0.092
61.2632 -0.006
61.2935 0.289
61.3238 0.689
61.3541 -0.109
61.3844 0.864
61.4146 0.223
61.4449 0.519
61.4752 -0.225
61.5055 -0.084
61.5357 0.110
61.5660 0.096
61.5963 0.551
61.6266 0.224
61.6569 -0.518
61.6871 1.032
61.7174 1.436
61.7477 0.487
61.7780 0.839
61.8083 0.203
61.8385 0.765
61.8688 0.286
61.8991 0.796
61.9294 0.474
61.9596 0.777
61.9899 1.080
62.0202 0.863
62.0505 1.792
62.0808 1.472
62.1110 1.985
62.1413 2.603
62.1716 2.596
62.2019 1.547
62.2322 3.156
62.2624 2.525
62.2927 3.301
62.3230 4.285
62.3533 3.968
62.3835 5.005
62.4138 5.678
62.4441 6.768
62.4744 6.765
62.5047 8.637
62.5349 7.541
62.5652 10.455
62.5955 10.870
62.6258 13.056
62.6561 12.586
62.6863 12.898
62.7166 13.627
62.7469 14.200
62.7772 14.460
62.8074 14.149
62.8377 13.264
62.8680 13.161
62.8983 12.747
62.9286 11.082
62.9588 10.356
62.9891 8.952
63.0194 8.747
63.0497 7.501
63.0800 5.838
63.1102 5.426
63.1405 4.597
63.1708 5.383
63.2011 4.556
63.2313 3.364
63.2616 2.797
63.2919 2.230
63.3222 2.133
63.3525 1.672
63.3827 2.044
63.4130 0.854
63.4433 0.602
63.4736 1.861
63.5039 0.724
63.5341 0.890
63.5644 1.889
63.5947 0.858
63.6250 0.972
63.6552 1.140
63.6855 0.786
63.7158 0.121
63.7461 0.497
63.7764 -0.376
63.8066 0.731
63.8369 0.067
63.8672 0.393
63.8975 0.094
63.9278 -0.725
63.9580 0.279
63.9883 0.503
64.0186 0.726
64.0489 0.273
64.0791 -0.596
64.1094 0.410
64.1397 0.062
64.1700 -0.338
64.2003 -0.134
64.2305 0.695
64.2608 0.171
64.2911 0.376
64.3214 0.425
64.3517 0.109
64.3819 0.055
64.4122 0.261
64.4425 -0.105
64.4728 -0.158
64.5031 0.674
64.5333 0.309
64.5636 -0.420
64.5939 0.257
64.6242 0.049
64.6544 -0.054
64.6847 -0.157
64.7150 -0.364
64.7453 0.209
64.7756 -0.050
64.8058 -0.102
64.8361 0.004
64.8664 0.422
64.8967 0.007
64.9270 0.166
64.9572 0.585
64.9875 -0.089
65.0178 -0.085
65.0481 -0.290
65.0783 0.027
65.1086 0.031
65.1389 0.036
65.1692 0.094
65.1995 0.516
65.2297 0.261
65.2600 0.216
65.2903 0.170
65.3206 -0.552
65.3509 0.654
65.3811 0.193
65.4114 0.357
65.4417 -0.676
65.4720 -0.333
65.5022 -0.153
65.5325 0.288
65.5628 0.469
65.5931 0.702
65.6234 0.259
65.6536 0.754
65.6839 0.311
65.7142 0.338
65.7445 0.105
65.7748 0.809
65.8050 0.160
65.8353 0.344
65.8656 1.258
65.8959 -0.276
65.9261 0.430
65.9564 1.085
65.9867 0.698
66.0170 0.676
66.0473 1.228
66.0775 0.842
66.1078 1.290
66.1381 1.218
66.1684 0.885
66.1987 0.970
66.2289 1.992
66.2592 1.557
66.2895 0.965
66.3198 1.937
66.3500 1.085
66.3803 0.808
66.4106 1.363
66.4409 0.566
66.4712 1.226
66.5014 1.314
66.5317 0.674
66.5620 0.398
66.5923 -0.085
66.6226 0.369
66.6528 0.771
66.6831 -0.076
66.7134 0.015
66.7437 0.627
66.7739 0.979
66.8042 0.081
66.8345 -0.139
66.8648 0.474
66.8951 -0.266
66.9253 0.244
66.9556 0.442
66.9859 0.379
67.0162 0.057
67.0465 0.152
67.0767 0.976
67.1070 0.915
67.1373 2.001
67.1676 0.430
67.1978 0.787
67.2281 1.249
67.2584 0.930
67.2887 2.017
67.3190 1.906
67.3492 2.317
67.3795 1.531
67.4098 2.672
67.4401 3.552
67.4704 3.913
67.5006 4.482
67.5309 4.634
67.5612 5.308
67.5915 5.982
67.6218 5.563
67.6520 7.019
67.6823 7.226
67.7126 7.954
67.7429 8.057
67.7731 9.306
67.8034 11.494
67.8337 9.306
67.8640 9.202
67.8943 10.662
67.9245 10.246
67.9548 9.102
67.9851 7.541
68.0154 8.273
68.0457 6.609
68.0759 6.716
68.1062 6.823
68.1365 5.942
68.1668 5.008
68.1970 4.231
68.2273 4.392
68.2576 3.773
68.2879 2.476
68.3182 3.367
68.3484 3.009
68.3787 2.599
68.4090 2.346
68.4393 2.457
68.4696 1.319
68.4998 2.994
68.5301 1.284
68.5604 2.022
68.5907 1.979
68.6209 2.040
68.6512 2.519
68.6815 2.477
68.7118 2.436
68.7421 3.176
68.7723 1.781
68.8026 3.199
68.8329 3.628
68.8632 4.057
68.8935 4.226
68.9237 2.990
68.9540 3.836
68.9843 3.069
69.0146 4.490
69.0448 3.463
69.0751 2.749
69.1054 4.170
69.1357 3.457
69.1660 3.004
69.1962 3.490
69.2265 3.142
69.2568 2.169
69.2871 2.291
69.3174 2.257
69.3476 1.859
69.3779 0.836
69.4082 0.803
69.4385 0.353
69.4687 0.998
69.4990 0.498
69.5293 1.195
69.5596 0.956
69.5899 0.977
69.6201 -0.095
69.6504 0.812
69.6807 0.470
69.7110 -0.132
69.7413 0.359
69.7715 0.070
69.8018 0.719
69.8321 0.743
69.8624 -0.170
69.8926 -0.197
69.9229 0.141
69.9532 -0.146
69.9835 0.088
70.0138 -0.250
70.0440 -0.067
70.0743 -0.248
70.1046 0.404
70.1349 -0.193
70.1652 -0.477
70.1954 0.385
70.2257 0.101
70.2560 -0.338
70.2863 0.264
70.3166 -0.018
70.3468 0.272
70.3771 -0.374
70.4074 -0.082
70.4377 -0.416
70.4679 0.115
70.4982 0.333
70.5285 -0.334
70.5588 -0.011
70.5891 0.052
70.6193 0.116
70.6496 -0.081
70.6799 -0.069
70.7102 -0.212
70.7405 -0.304
70.7707 -0.297
70.8010 -0.133
70.8313 0.187
70.8616 -0.065
70.8918 -0.005
70.9221 -0.100
70.9524 0.169
70.9827 -0.081
71.0130 0.189
71.0432 -0.165
71.0735 -0.207
71.1038 -0.613
71.1341 0.336
71.1644 0.192
71.1946 -0.109
71.2249 0.685
71.2552 -0.292
71.2855 -0.174
71.3157 -0.109
71.3460 -0.147
71.3763 0.128
71.4066 -0.014
71.4369 -0.363
71.4671 0.049
71.4974 1.035
71.5277 0.250
71.5580 0.351
71.5883 -0.069
71.6185 0.241
71.6488 0.239
71.6791 -0.023
71.7094 0.288
71.7396 0.339
71.7699 0.234
71.8002 -0.026
71.8305 0.391
71.8608 -0.442
71.8910 -0.285
71.9213 -0.082
71.9516 0.175
71.9819 0.379
72.0122 -0.145
72.0424 0.633
72.0727 -0.152
72.1030 0.575
72.1333 0.156
72.1635 0.623
72.1938 0.882
72.2241 0.152
72.2544 0.360
72.2847 0.516
72.3149 0.047
72.3452 0.881
72.3755 1.403
72.4058 0.883
72.4361 0.832
72.4663 0.834
72.4966 0.628
72.5269 0.943
72.5572 1.155
72.5874 0.898
72.6177 0.693
72.6480 0.489
72.6783 0.389
72.7086 0.498
72.7388 0.087
72.7691 0.405
72.7994 0.879
72.8297 0.365
72.8600 0.424
72.8902 0.066
72.9205 -0.135
72.9508 -0.127
72.9811 0.454
73.0113 0.150
73.0416 0.315
73.0719 -0.249
73.1022 0.021
73.1325 -0.177
73.1627 0.145
73.1930 0.469
73.2233 -0.145
73.2536 0.439
73.2839 -0.122
73.3141 -0.006
73.3444 0.215
73.3747 -0.189
73.4050 -0.384
73.4353 0.775
73.4655 -0.200
73.4958 0.647
73.5261 0.037
73.5564 -0.260
73.5866 -0.150
73.6169 0.065
73.6472 0.124
73.6775 0.392
73.7078 -0.381
73.7380 0.408
73.7683 0.521
73.7986 0.269
73.8289 -0.086
73.8592 -0.441
73.8894 0.127
73.9197 -0.242
73.9500 0.222
73.9803 -0.198
74.0105 0.111
74.0408 0.212
74.0711 -0.520
74.1014 -0.160
74.1317 -0.112
74.1619 0.665
74.1922 -0.381
74.2225 -0.124
74.2528 -0.127
74.2831 0.183
74.3133 0.024
74.3436 0.126
74.3739 0.124
74.4042 0.123
74.4344 -0.086
74.4647 -0.243
74.4950 -0.191
74.5253 -0.191
74.5556 0.070
74.5858 0.175
74.6161 -0.345
74.6464 0.178
74.6767 0.700
74.7070 0.338
74.7372 0.185
74.7675 -0.073
74.7978 -0.069
74.8281 0.091
74.8583 0.043
74.8886 0.151
74.9189 -0.052
74.9492 -0.255
74.9795 0.056
75.0097 0.002
75.0400 0.105
75.0703 0.313
75.1006 0.052
75.1309 0.208
75.1611 -0.052
75.1914 0.001
75.2217 0.158
75.2520 0.108
75.2822 -0.255
75.3125 -0.255
75.3428 0.100
75.3731 -0.117
75.4034 0.812
75.4336 0.127
75.4639 0.015
75.4942 -0.045
75.5245 -0.260
75.5548 -0.215
75.5850 -0.169
75.6153 0.138
75.6456 -0.180
75.6759 -0.081
75.7061 0.279
75.7364 -0.194
75.7667 0.427
75.7970 -0.201
75.8273 0.108
75.8575 0.730
75.8878 -0.106
75.9181 -0.264
75.9484 -0.266
75.9787 0.039
76.0089 0.083
76.0392 0.597
76.0695 0.590
76.0998 0.011
76.1301 0.161
76.1603 0.259
76.1906 0.358
76.2209 0.457
76.2512 -0.017
76.2814 0.604
76.3117 0.288
76.3420 0.492
76.3723 0.020
76.4026 0.069
76.4328 1.161
76.4631 0.429
76.4934 0.428
76.5237 0.166
76.5540 0.842
76.5842 0.164
76.6145 0.580
76.6448 0.684
76.6751 0.372
76.7053 1.727
76.7356 0.947
76.7659 1.574
76.7962 1.628
76.8265 0.484
76.8567 1.320
76.8870 1.010
76.9173 1.170
76.9476 1.486
76.9779 1.490
77.0081 1.130
77.0384 1.447
77.0687 0.254
77.0990 1.406
77.1292 0.526
77.1595 0.689
77.1898 0.435
77.2201 0.233
77.2504 1.022
77.2806 0.301
77.3109 0.569
77.3412 0.682
77.3715 0.065
77.4018 0.127
77.4320 0.761
77.4623 0.094
77.4926 -0.260
77.5229 -0.359
77.5531 0.637
77.5834 0.488
77.6137 0.130
77.6440 0.606
77.6743 0.614
77.7045 -0.264
77.7348 -0.255
77.7651 -0.099
77.7954 0.526
77.8257 0.527
77.8559 -0.045
77.8862 0.165
77.9165 -0.302
77.9468 0.169
77.9770 0.119
78.0073 0.591
78.0376 -0.083
78.0679 -0.184
78.0982 0.237
78.1284 0.241
78.1587 0.194
78.1890 -0.010
78.2193 -0.004
78.2496 -0.415
78.2798 0.052
78.3101 0.050
78.3404 0.050
78.3707 -0.159
78.4009 0.622
78.4312 0.778
78.4615 0.206
78.4918 -0.054
78.5221 0.573
78.5523 -0.311
78.5826 -0.205
78.6129 0.474
78.6432 0.165
78.6735 -0.197
78.7037 0.223
78.7340 0.696
78.7643 0.023
78.7946 -0.285
78.8248 0.023
78.8551 -0.189
78.8854 0.068
78.9157 0.377
78.9460 -0.355
78.9762 0.164
79.0065 0.214
79.0368 0.368
79.0671 0.054
79.0974 -0.259
79.1276 -0.003
79.1579 0.201
79.1882 -0.220
79.2185 0.194
79.2488 0.399
79.2790 -0.281
79.3093 -0.023
79.3396 0.235
79.3699 0.182
79.4001 0.233
79.4304 0.127
79.4607 0.283
79.4910 0.231
79.5213 -0.133
79.5515 0.023
79.5818 -0.028
79.6121 -0.391
79.6424 0.288
79.6727 -0.023
79.7029 -0.593
79.7332 0.347
79.7635 -0.119
79.7938 -0.011
79.8240 0.201
79.8543 0.101
79.8846 -0.467
79.9149 -0.060
79.9452 0.296
79.9754 0.392
80.0057 -0.136
80.0360 0.221
80.0663 0.162
80.0966 0.103
80.1268 -0.112
80.1571 0.142
80.1874 0.085
80.2177 -0.702
80.2479 -0.032
80.2782 -0.092
80.3085 0.109
80.3388 0.311
80.3691 0.096
80.3993 0.351
80.4296 -0.071
80.4599 -0.025
80.4902 -0.134
80.5205 0.227
80.5507 0.639
80.5810 -0.198
80.6113 -0.253
80.6416 0.004
80.6718 -0.415
80.7021 0.048
80.7324 0.147
80.7627 0.039
80.7930 0.347
80.8232 0.551
80.8535 0.027
80.8838 -0.132
80.9141 0.490
80.9444 -0.085
80.9746 0.121
81.0049 0.484
81.0352 0.483
81.0655 0.378
81.0957 0.377
81.1260 0.481
81.1563 -0.665
81.1866 0.482
81.2169 0.535
81.2471 -0.245
81.2774 0.694
81.3077 0.748
81.3380 0.750
81.3683 0.649
81.3985 0.392
81.4288 0.239
81.4591 0.659
81.4894 0.507
81.5196 -0.269
81.5499 0.256
81.5802 0.157
81.6105 0.215
81.6408 0.430
81.6710 0.228
81.7013 0.547
81.7316 -0.175
81.7619 0.561
81.7922 0.413
81.8224 0.213
81.8527 0.222
81.8830 0.855
81.9133 0.188
81.9436 0.145
81.9738 -0.157
82.0041 -0.095
82.0344 -0.032
82.0647 0.031
82.0949 -0.322
82.1252 0.211
82.1555 -0.194
82.1858 -0.389
82.2161 0.232
82.2463 -0.137
82.2766 0.224
82.3069 0.013
82.3372 0.010
82.3675 -0.305
82.3977 0.058
82.4280 -0.100
82.4583 0.159
82.4886 -0.207
82.5188 0.105
82.5491 0.001
82.5794 0.001
82.6097 -0.050
82.6400 -0.050
82.6702 -0.048
82.7005 0.526
82.7308 -0.045
82.7611 -0.251
82.7914 0.273
82.8216 -0.036
82.8519 -0.137
82.8822 0.179
82.9125 0.079
82.9427 -0.125
82.9730 -0.172
83.0033 0.406
83.0336 0.047
83.0639 -0.363
83.0941 0.004
83.1244 -0.045
83.1547 0.219
83.1850 0.275
83.2153 -0.138
83.2455 0.075
83.2758 0.444
83.3061 0.762
83.3364 -0.222
83.3666 0.096
83.3969 -0.210
83.4272 0.214
83.4575 0.429
83.4878 0.176
83.5180 -0.389
83.5483 -0.130
83.5786 0.129
83.6089 -0.133
83.6392 0.440
83.6694 -0.081
83.6997 0.492
83.7300 0.493
83.7603 -0.132
83.7905 0.495
83.8208 0.392
83.8511 -0.127
83.8814 -0.072
83.9117 0.295
83.9419 0.246
83.9722 0.354
84.0025 0.306
84.0328 -0.680
84.0631 0.210
84.0933 0.007
84.1236 -0.092
84.1539 0.122
84.1842 -0.445
84.2144 0.499
84.2447 0.141
84.2750 0.409
84.3053 -0.052
84.3356 0.164
84.3658 0.328
84.3961 -0.028
84.4264 -0.227
84.4567 -0.083
84.4870 0.790
84.5172 0.361
84.5475 -0.067
84.5778 -0.026
84.6081 -0.193
84.6383 0.317
84.6686 0.515
84.6989 0.662
84.7292 0.235
84.7595 0.435
84.7897 -0.147
84.8200 -0.051
84.8503 -0.163
84.8806 0.194
84.9109 0.083
84.9411 0.284
84.9714 0.173
85.0017 0.584
85.0320 0.266
85.0623 0.260
85.0925 -0.109
85.1228 -0.166
85.1531 0.142
85.1834 0.347
85.2136 -0.178
85.2439 -0.285
85.2742 0.232
85.3045 -0.084
85.3348 0.174
85.3650 0.327
85.3953 -0.248
85.4256 -0.250
85.4559 0.217
85.4862 0.060
85.5164 -0.045
85.5467 0.163
85.5770 0.058
85.6073 -0.254
85.6375 0.528
85.6678 0.685
85.6981 -0.095
85.7284 -0.250
85.7587 0.009
85.7889 0.216
85.8192 0.111
85.8495 -0.098
85.8798 -0.307
85.9101 0.475
85.9403 0.371
85.9706 -0.201
86.0009 0.061
86.0312 0.271
86.0614 -0.405
86.0917 -0.194
86.1220 -0.191
86.1523 -0.084
86.1826 -0.133
86.2128 -0.546
86.2431 0.186
86.2734 0.293
86.3037 0.296
86.3340 -0.222
86.3642 -0.218
86.3945 0.255
86.4248 0.207
86.4551 -0.257
86.4853 0.009
86.5156 0.171
86.5459 -0.188
86.5762 0.235
86.6065 0.502
86.6367 -0.220
86.6670 0.204
86.6973 0.108
86.7276 0.324
86.7579 0.124
86.7881 -0.075
86.8184 0.403
86.8487 0.204
86.8790 0.579
86.9092 -0.140
86.9395 0.235
86.9698 0.454
87.0001 0.153
87.0304 0.269
87.0606 0.073
87.0909 -0.227
87.1212 -0.088
87.1515 1.196
87.1818 -0.123
87.2120 0.330
87.2423 0.782
87.2726 -0.015
87.3029 -0.239
87.3331 -0.155
87.3634 -0.226
87.3937 -0.194
87.4240 -0.057
87.4543 0.029
87.4845 -0.198
87.5148 0.514
87.5451 0.496
87.5754 0.114
87.6057 -0.528
87.6359 -0.023
87.6662 0.534
87.6965 0.257
87.7268 0.086
87.7571 -0.190
87.7873 0.212
87.8176 -0.271
87.8479 -0.024
87.8782 0.119
87.9084 -0.311
87.9387 -0.066
87.9690 -0.029
87.9993 0.425
88.0296 0.410
88.0598 -0.177
88.0901 -0.242
88.1204 0.317
88.1507 -0.217
88.1810 -0.177
88.2112 -0.710
88.2415 0.268
88.2718 -0.056
88.3021 0.401
88.3323 -0.182
88.3626 0.224
88.3929 -0.411
88.4232 -0.056
88.4535 -0.118
88.4837 -0.022
88.5140 -0.135
88.5443 -0.143
88.5746 -0.047
88.6049 0.206
88.6351 0.095
88.6654 0.713
88.6957 -0.075
88.7260 -0.133
88.7562 -0.295
88.7865 0.166
88.8168 0.314
88.8471 0.619
88.8774 0.196
88.9076 0.137
88.9379 0.443
88.9682 0.281
88.9985 0.379
89.0288 0.999
89.0590 1.411
89.0893 0.156
89.1196 0.621
89.1499 1.138
89.1801 0.249
89.2104 0.767
89.2407 0.973
89.2710 1.335
89.3013 1.437
89.3315 1.904
89.3618 0.861
89.3921 1.017
89.4224 1.954
89.4527 1.172
89.4829 1.016
89.5132 2.111
89.5435 1.955
89.5738 1.748
89.6040 1.385
89.6343 1.752
89.6646 1.546
89.6949 1.393
89.7252 2.177
89.7554 1.556
89.7857 1.299
89.8160 0.939
89.8463 1.308
89.8766 0.896
89.9068 0.954
89.9371 1.220
89.9674 0.132
89.9977 0.607
90.0279 1.083
90.0582 0.882
90.0885 0.316
90.1188 0.168
90.1491 0.280
90.1793 0.185
90.2096 0.454
90.2399 1.193
90.2702 0.265
90.3005 0.171
90.3307 -0.496
90.3610 0.244
90.3913 0.151
90.4216 -0.202
90.4518 -0.190
90.4821 -0.074
90.5124 0.043
90.5427 0.004
90.5730 -0.243
90.6032 -0.125
90.6335 0.097
90.6638 0.372
90.6941 0.335
90.7244 -0.171
90.7546 -0.624
90.7849 0.208
90.8152 -0.105
90.8455 -0.053
90.8758 0.259
90.9060 0.468
90.9363 0.260
90.9666 -0.364
90.9969 0.002
91.0271 -0.569
91.0574 0.319
91.0877 -0.564
91.1180 -0.041
91.1483 -0.350
91.1785 0.331
91.2088 0.127
91.2391 -0.182
91.2694 -0.177
91.2997 -0.224
91.3299 -0.271
91.3602 0.092
91.3905 0.038
91.4208 0.297
91.4510 -0.068
91.4813 -0.121
91.5116 0.348
91.5419 0.192
91.5722 -0.224
91.6024 0.141
91.6327 -0.326
91.6630 -0.064
91.6933 -0.271
91.7236 -0.018
91.7538 0.026
91.7841 0.331
91.8144 0.011
91.8447 -0.099
91.8749 -0.262
91.9052 0.669
91.9355 -0.482
91.9658 0.502
91.9961 0.185
92.0263 0.285
92.0566 -0.136
92.0869 0.277
92.1172 -0.039
92.1475 -0.563
92.1777 0.268
92.2080 -0.204
92.2383 -0.153
92.2686 -1.040
92.2988 0.200
92.3291 0.295
92.3594 0.546
92.3897 0.590
92.4200 0.113
92.4502 0.261
92.4805 0.931
92.5108 0.247
92.5411 0.813
92.5714 0.703
92.6016 0.436
92.6319 0.326
92.6622 0.061
92.6925 0.941
92.7227 0.520
92.7530 0.412
92.7833 -0.269
92.8136 0.300
92.8439 -0.276
92.8741 0.295
92.9044 0.344
92.9347 0.342
92.9650 0.184
92.9953 0.183
93.0255 -0.078
93.0558 0.026
93.0861 0.286
93.1164 0.026
93.1466 -0.234
93.1769 -0.337
93.2072 0.286
93.2375 0.492
93.2678 -0.186
93.2980 -0.030
93.3283 0.021
93.3586 -0.187
93.3889 -0.239
93.4192 0.230
93.4494 -0.289
93.4797 0.285
93.5100 -0.078
93.5403 -0.492
93.5706 0.291
93.6008 0.086
93.6311 -0.692
93.6614 0.405
93.6917 0.148
93.7219 0.257
93.7522 -0.468
93.7825 -0.207
93.8128 -0.258
93.8431 -0.100
93.8733 -0.307
93.9036 0.737
93.9339 -0.042
93.9642 0.221
93.9945 -0.557
94.0247 -0.137
94.0550 -0.394
94.0853 0.235
94.1156 0.448
94.1458 -0.068
94.1761 0.354
94.2064 0.360
94.2367 -0.311
94.2670 -0.323
94.2972 0.602
94.3275 0.122
94.3578 0.111
94.3881 0.309
94.4184 -0.170
94.4486 0.653
94.4789 0.331
94.5092 0.426
94.5395 0.209
94.5697 -0.060
94.6000 1.286
94.6303 -0.128
94.6606 0.854
94.6909 0.326
94.7211 1.049
94.7514 0.730
94.7817 0.620
94.8120 0.771
94.8423 0.713
94.8725 0.761
94.9028 1.173
94.9331 1.012
94.9634 1.894
94.9936 0.953
95.0239 0.690
95.0542 1.885
95.0845 1.570
95.1148 1.672
95.1450 1.202
95.1753 1.409
95.2056 1.356
95.2359 0.939
95.2662 2.085
95.2964 2.033
95.3267 2.815
95.3570 1.306
95.3873 1.411
95.4175 1.778
95.4478 1.676
95.4781 1.470
95.5084 1.420
95.5387 0.903
95.5689 0.698
95.5992 0.806
95.6295 0.654
95.6598 0.503
95.6901 1.237
95.7203 0.305
95.7506 0.623
95.7809 0.629
95.8112 0.323
95.8414 -0.035
95.8717 0.493
95.9020 0.345
95.9323 0.457
95.9626 0.309
95.9928 0.474
96.0231 0.014
96.0534 -0.081
96.0837 -0.019
96.1140 -0.009
96.1442 0.366
96.1745 0.429
96.2048 -0.237
96.2351 -0.121
96.2653 0.151
96.2956 -0.461
96.3259 0.333
96.3562 -0.019
96.3865 -0.266
96.4167 0.060
96.4470 -0.134
96.4773 -0.276
96.5076 0.052
96.5379 0.641
96.5681 0.449
96.5984 -0.003
96.6287 0.118
96.6590 0.083
96.6893 0.153
96.7195 -0.141
96.7498 0.137
96.7801 -0.260
96.8104 -0.260
96.8406 0.199
96.8709 0.242
96.9012 0.077
96.9315 0.068
96.9618 0.216
96.9920 -0.052
97.0223 0.097
97.0526 -0.222
97.0829 -0.177
97.1132 0.181
97.1434 0.332
97.1737 0.378
97.2040 0.061
97.2343 0.160
97.2645 0.052
97.2948 -0.682
97.3251 0.148
97.3554 -0.220
97.3857 0.350
97.4159 -0.121
97.4462 0.397
97.4765 0.083
97.5068 0.029
97.5371 -0.024
97.5673 -0.285
97.5976 0.072
97.6279 0.274
97.6582 -0.045
97.6884 -0.363
97.7187 0.095
97.7490 -0.175
97.7793 -0.185
97.8096 0.327
97.8398 0.422
97.8701 0.726
97.9004 -0.063
97.9307 0.085
97.9610 -0.026
97.9912 0.227
98.0215 0.481
98.0518 0.474
98.0821 0.573
98.1123 0.723
98.1426 -0.011
98.1729 0.557
98.2032 0.292
98.2335 0.340
98.2637 0.388
98.2940 0.958
98.3243 0.330
98.3546 0.640
98.3849 0.325
98.4151 0.115
98.4454 1.050
98.4757 0.633
98.5060 0.736
98.5362 1.360
98.5665 0.475
98.5968 0.215
98.6271 0.632
98.6574 0.216
98.6876 0.478
98.7179 1.730
98.7482 0.430
98.7785 0.745
98.8088 0.487
98.8390 0.542
98.8693 0.129
98.8996 0.342
98.9299 0.606
98.9601 0.871
98.9904 0.095
99.0207 -0.056
99.0510 0.471
99.0813 0.268
99.1115 0.119
99.1418 0.282
99.1721 0.029
99.2024 0.609
99.2327 0.096
99.2629 0.625
99.2932 0.321
99.3235 0.070
99.3538 -0.441
99.3841 -0.017
99.4143 -0.165
99.4446 -0.470
99.4749 0.477
99.5052 0.121
99.5354 0.131
99.5657 0.401
99.5960 0.463
99.6263 0.161
99.6566 0.068
99.6868 -0.285
99.7171 -0.018
99.7474 -0.114
99.7777 0.362
99.8080 0.318
99.8382 -0.038
99.8685 -0.029
99.8988 0.241
99.9291 -0.218
99.9593 -0.260
99.9896 0.009
100.0199 0.278
100.0502 -0.337
100.0805 -0.238
100.1107 0.175
100.1410 0.066
100.1713 -0.302
100.2016 0.164
100.2319 0.265
100.2621 0.158
100.2924 -0.417
100.3227 0.258
100.3530 -0.160
100.3832 0.360
100.4135 -0.161
100.4438 -0.006
100.4741 0.515
100.5044 0.568
100.5346 -0.265
100.5649 0.413
100.5952 -0.314
100.6255 -0.260
100.6558 -0.263
100.6860 0.361
100.7163 0.255
100.7466 -0.059
100.7769 0.253
100.8071 -0.268
100.8374 0.357
100.8677 0.201
100.8980 -0.059
100.9283 -0.214
100.9585 0.308
100.9888 -0.106
101.0191 -0.260
101.0494 -0.052
101.0797 -0.209
101.1099 -0.260
101.1402 -0.157
101.1705 -0.106
101.2008 0.050
101.2310 0.051
101.2613 0.260
101.2916 -0.260
101.3219 -0.260
101.3522 0.247
101.3824 -0.495
101.4127 0.221
101.4430 -0.260
101.4733 0.249
101.5036 -0.127
101.5338 0.279
101.5641 0.059
101.5944 -0.107
101.6247 0.039
101.6549 0.081
101.6852 0.176
101.7155 0.636
101.7458 -0.415
101.7761 -0.058
101.8063 -0.066
101.8366 0.187
101.8669 0.284
101.8972 -0.296
101.9275 0.479
101.9577 -0.100
101.9880 -0.002
102.0183 -0.059
102.0486 -0.585
102.0788 0.296
102.1091 0.135
102.1394 -0.442
102.1697 -0.088
102.2000 0.371
102.2302 -0.577
102.2605 -0.013
102.2908 0.030
102.3211 0.177
102.3514 -0.300
102.3816 0.369
102.4119 0.413
102.4422 0.249
102.4725 -0.018
102.5028 -0.546
102.5330 0.067
102.5633 0.992
102.5936 0.512
102.6239 0.136
102.6541 -0.396
102.6844 0.583
102.7147 0.052
102.7450 0.667
102.7753 0.553
102.8055 0.387
102.8358 0.847
102.8661 0.110
102.8964 0.831
102.9267 -0.219
102.9569 0.659
102.9872 0.288
103.0175 0.333
103.0478 0.275
103.0780 -0.252
103.1083 -0.101
103.1386 0.571
103.1689 0.097
103.1992 0.405
103.2294 0.193
103.2597 0.449
103.2900 0.342
103.3203 0.131
103.3506 0.180
103.3808 0.594
103.4111 -0.501
103.4414 0.174
103.4717 0.225
103.5019 -0.401
103.5322 0.901
103.5625 1.005
103.5928 0.224
103.6231 0.954
103.6533 0.642
103.6836 0.904
103.7139 0.437
103.7442 0.335
103.7745 0.963
103.8047 0.341
103.8350 1.281
103.8653 0.816
103.8956 1.289
103.9258 0.408
103.9561 1.454
103.9864 1.303
104.0167 0.735
104.0470 1.106
104.0772 1.372
104.1075 1.222
104.1378 0.760
104.1681 1.288
104.1984 1.036
104.2286 0.939
104.2589 0.635
104.2892 1.321
104.3195 1.278
104.3497 0.923
104.3800 0.151
104.4103 1.620
104.4406 0.953
104.4709 0.547
104.5011 0.246
104.5314 0.466
104.5617 0.582
104.5920 0.022
104.6223 0.607
104.6525 0.047
104.6828 0.113
104.7131 -0.030
104.7434 0.349
104.7736 -0.470
104.8039 0.274
104.8342 -0.231
104.8645 0.253
104.8948 0.634
104.9250 -0.131
104.9553 0.302
104.9856 0.111
105.0159 -0.236
105.0462 -0.271
105.0764 0.156
105.1067 0.323
105.1370 0.177
105.1673 0.136
105.1975 0.616
105.2278 0.368
105.2581 0.224
105.2884 0.132
105.3187 0.041
105.3489 0.471
105.3792 0.537
105.4095 0.186
105.4398 0.617
105.4701 0.476
105.5003 0.334
105.5306 -0.327
105.5609 -0.051
105.5912 0.434
105.6215 0.555
105.6517 -0.210
105.6820 -0.244
105.7123 -0.147
105.7426 0.108
105.7728 -0.002
105.8031 0.357
105.8334 0.039
105.8637 0.347
105.8940 0.499
105.9242 -0.130
105.9545 0.491
105.9848 0.331
106.0151 0.745
106.0454 0.170
106.0756 -0.510
106.1059 0.270
106.1362 0.268
106.1665 0.215
106.1967 0.371
106.2270 0.527
106.2573 0.475
106.2876 -0.306
106.3179 0.215
106.3481 0.216
106.3784 0.218
106.4087 0.428
106.4390 0.326
106.4693 -0.401
106.4995 0.331
106.5298 0.022
106.5601 0.130
106.5904 0.394
106.6206 0.399
106.6509 0.091
106.6812 0.565
106.7115 0.466
106.7418 0.576
106.7720 -0.043
106.8023 -0.244
106.8326 -0.047
106.8629 0.358
106.8932 0.191
106.9234 0.545
106.9537 0.535
106.9840 0.109
107.0143 0.256
107.0445 0.038
107.0748 -0.074
107.1051 -0.135
107.1354 -0.194
107.1657 -0.098
107.1959 0.103
107.2262 0.149
107.2565 0.090
107.2868 -0.072
107.3171 0.495
107.3473 0.438
107.3776 -0.400
107.4079 0.064
107.4382 0.060
107.4684 -0.153
107.4987 0.261
107.5290 0.153
107.5593 -0.318
107.5896 0.721
107.6198 -0.583
107.6501 0.353
107.6804 0.404
107.7107 -0.118
107.7410 -0.119
107.7712 0.246
107.8015 -0.171
107.8318 0.090
107.8621 0.351
107.8923 0.040
107.9226 0.667
107.9529 -0.060
107.9832 0.203
108.0135 -0.003
108.0437 -0.260
108.0740 0.044
108.1043 -0.275
108.1346 0.187
108.1649 0.336
108.1951 -0.087
108.2254 0.116
108.2557 0.111
108.2860 -0.676
108.3163 -0.062
108.3465 0.083
108.3768 0.073
108.4071 0.010
108.4374 0.313
108.4676 0.043
108.4979 0.190
108.5282 0.130
108.5585 0.330
108.5888 0.009
108.6190 -0.259
108.6493 0.567
108.6796 0.300
108.7099 -0.071
108.7402 -0.234
108.7704 0.021
108.8007 -0.557
108.8310 0.062
108.8613 0.006
108.8915 0.210
108.9218 0.466
108.9521 0.358
108.9824 -0.374
109.0127 -0.012
109.0429 0.037
109.0732 0.139
109.1035 0.033
109.1338 -0.229
109.1641 0.239
109.1943 -0.074
109.2246 -0.699
109.2549 0.290
109.2852 0.447
109.3154 -0.073
109.3457 -0.280
109.3760 0.076
109.4063 -0.452
109.4366 0.165
109.4668 -0.154
109.4971 0.048
109.5274 0.458
109.5577 -0.224
109.5880 -0.438
109.6182 0.338
109.6485 -0.031
109.6788 0.329
109.7091 0.221
109.7393 -0.095
109.7696 0.058
109.7999 0.107
109.8302 0.625
109.8605 -0.262
109.8907 -0.108
109.9210 0.412
109.9513 -0.370
109.9816 -0.163
110.0119 -0.007
110.0421 0.358
110.0724 0.671
110.1027 0.359
110.1330 0.673
110.1632 -0.211
110.1935 0.989
110.2238 0.366
110.2541 -0.048
110.2844 -0.149
110.3146 0.375
110.3449 0.483
110.3752 0.435
110.4055 -0.394
110.4358 -0.285
110.4660 0.393
110.4963 0.603
110.5266 0.502
110.5569 1.025
110.5871 0.611
110.6174 0.406
110.6477 0.358
110.6780 0.362
110.7083 0.627
110.7385 0.006
110.7688 0.532
110.7991 0.277
110.8294 1.273
110.8597 -0.023
110.8899 0.244
110.9202 0.147
110.9505 0.571
110.9808 -0.151
111.0110 0.118
111.0413 -0.707
111.0716 0.187
111.1019 -0.221
111.1322 0.726
111.1624 0.893
111.1927 0.226
111.2230 -0.285
111.2533 -0.065
111.2836 -0.262
111.3138 0.218
111.3441 0.126
111.3744 0.139
111.4047 -0.161
111.4350 -0.252
111.4652 0.074
111.4955 0.140
111.5258 -0.002
111.5561 -0.092
111.5863 -0.337
111.6166 0.131
111.6469 0.026
111.6772 0.286
111.7075 0.286
111.7377 0.183
111.7680 -0.337
111.7983 0.289
111.8286 0.083
111.8589 0.345
111.8891 0.400
111.9194 0.350
111.9497 -0.220
111.9800 -0.164
112.0102 0.257
112.0405 -0.260
112.0708 0.370
112.1011 0.114
112.1314 0.119
112.1616 0.073
112.1919 -0.025
112.2222 0.242
112.2525 -0.012
112.2828 -0.109
112.3130 -0.101
112.3433 0.323
112.3736 0.123
112.4039 -0.337
112.4341 -0.083
112.4644 -0.037
112.4947 0.166
112.5250 0.160
112.5553 0.103
112.5855 0.255
112.6158 0.199
112.6461 -0.065
112.6764 0.244
112.7067 0.241
112.7369 0.082
112.7672 -0.337
112.7975 0.598
112.8278 0.545
112.8580 0.023
112.8883 -0.187
112.9186 0.177
112.9489 -0.760
112.9792 0.125
113.0094 0.595
113.0397 0.179
113.0700 0.285
113.1003 0.390
113.1306 -0.285
113.1608 0.187
113.1911 -0.071
113.2214 0.192
113.2517 0.248
113.2819 0.148
113.3122 0.100
113.3425 0.469
113.3728 -0.411
113.4031 -0.250
113.4333 0.277
113.4636 -0.029
113.4939 -0.023
113.5242 -0.120
113.5545 0.200
113.5847 0.260
113.6150 0.059
113.6453 0.380
113.6756 0.024
113.7058 0.086
113.7361 -0.321
113.7664 0.522
113.7967 -0.197
113.8270 -0.239
113.8572 0.214
113.8875 0.145
113.9178 -0.079
113.9481 0.375
113.9784 -0.213
114.0086 0.501
114.0389 0.175
114.0692 0.525
114.0995 0.303
114.1298 -0.022
114.1600 0.277
114.1903 0.421
114.2206 0.045
114.2509 -0.123
114.2811 -0.083
114.3114 -0.041
114.3417 -0.260
114.3720 -0.075
114.4023 0.476
114.4325 -0.432
114.4628 -0.193
114.4931 0.046
114.5234 0.181
114.5537 0.109
114.5839 0.609
114.6142 -0.296
114.6445 0.049
114.6748 0.082
114.7050 0.064
114.7353 -0.163
114.7656 -0.285
114.7959 -0.094
114.8262 -0.006
114.8564 -0.022
114.8867 -0.090
114.9170 -0.001
114.9473 -0.537
114.9776 0.438
115.0078 0.111
115.0381 0.253
115.0684 0.344
115.0987 0.174
115.1289 0.161
115.1592 0.409
115.1895 0.553
115.2198 -0.136
115.2501 0.113
115.2803 -0.210
115.3106 0.196
115.3409 0.706
115.3712 -0.033
115.4015 0.114
115.4317 0.469
115.4620 0.200
115.4923 -0.069
115.5226 -0.077
115.5528 0.123
115.5831 0.272
115.6134 -0.099
115.6437 -0.054
115.6740 -0.112
115.7042 0.663
115.7345 0.241
115.7648 0.965
115.7951 0.804
115.8254 0.851
115.8556 0.899
115.8859 0.739
115.9162 0.527
115.9465 0.629
115.9767 1.043
116.0070 0.936
116.0373 0.570
116.0676 1.453
116.0979 1.192
116.1281 0.826
116.1584 1.347
116.1887 0.253
116.2190 1.243
116.2493 1.243
116.2795 0.619
116.3098 0.621
116.3401 0.466
116.3704 0.677
116.4006 0.992
116.4309 1.046
116.4612 2.039
116.4915 1.314
116.5218 1.005
116.5520 1.322
116.5823 0.962
116.6126 0.342
116.6429 1.337
116.6732 0.978
116.7034 0.620
116.7337 1.095
116.7640 0.060
116.7943 0.640
116.8245 0.491
116.8548 0.760
116.8851 0.299
116.9154 0.516
116.9457 0.629
116.9759 1.160
117.0062 0.648
117.0365 0.398
117.0668 0.565
117.0971 0.420
117.1273 0.170
117.1576 -0.339
117.1879 0.454
117.2182 -0.002
117.2485 0.531
117.2787 0.128
117.3090 0.037
117.3393 -0.106
117.3696 -0.039
117.3998 -0.389
117.4301 0.087
117.4604 0.095
117.4907 -0.574
117.5210 0.059
117.5512 0.120
117.5815 -0.079
117.6118 0.087
117.6421 -0.163
117.6724 -0.257
117.7026 0.535
117.7329 0.442
117.7632 0.557
117.7935 -0.368
117.8237 0.009
117.8540 0.021
117.8843 -0.070
117.9146 0.100
117.9449 0.165
117.9751 0.179
118.0054 0.350
118.0357 0.313
118.0660 0.692
118.0963 0.031
118.1265 0.724
118.1568 0.011
118.1871 -0.441
118.2174 0.030
118.2476 0.398
118.2779 -0.484
118.3082 0.040
118.3385 -0.216
118.3688 0.674
118.3990 0.522
118.4293 -0.514
118.4596 -0.040
118.4899 0.070
118.5202 -0.288
118.5504 0.552
118.5807 0.351
118.6110 0.098
118.6413 -0.311
118.6715 -0.057
118.7018 0.197
118.7321 0.348
118.7624 -0.178
118.7927 -0.131
118.8229 0.021
118.8532 0.173
118.8835 -0.456
118.9138 0.061
118.9441 -0.202
118.9743 0.108
119.0046 0.262
119.0349 -0.261
119.0652 -0.107
119.0954 0.413
119.1257 -0.525
119.1560 -0.266
119.1863 0.203
119.2166 -0.110
119.2468 -0.109
119.2771 0.412
119.3074 -0.056
119.3377 0.415
119.3680 0.625
119.3982 0.471
119.4285 0.109
119.4588 -0.201
119.4891 0.115
119.5193 -0.246
119.5496 -0.138
119.5799 -0.082
119.6102 -0.441
119.6405 0.135
119.6707 0.347
119.7010 -0.378
119.7313 -0.061
119.7616 -0.212
119.7919 -0.467
119.8221 0.170
119.8524 0.078
119.8827 -0.378
119.9130 0.000
119.9433 0.274
119.9735 -0.337
120.0038 0.000
