'Id: "" Comment: "" Operator: "Lab Manager" Anode: "Cu" Scantype: "Locked Coupled" TimePerStep: "19.2" X: "9999" Y: "9999" Z: "9999" 
10.0015 0.000
10.0318 0.270
10.0620 0.228
10.0923 0.968
10.1226 -0.167
10.1529 -0.624
10.1832 0.300
10.2134 -0.234
10.2437 0.430
10.2740 0.314
10.3043 0.145
10.3346 0.082
10.3648 0.539
10.3951 0.684
10.4254 0.257
10.4557 1.445
10.4859 0.081
10.5162 0.436
10.5465 0.688
10.5768 0.731
10.6071 1.244
10.6373 -0.379
10.6676 -0.386
10.6979 0.172
10.7282 1.409
10.7585 0.510
10.7887 1.330
10.8190 0.328
10.8493 0.471
10.8796 0.303
10.9098 1.021
10.9401 1.374
10.9704 -0.043
11.0007 1.874
11.0310 0.874
11.0612 1.333
11.0915 0.542
11.1218 1.887
11.1521 0.993
11.1824 0.360
11.2126 0.404
11.2429 1.386
11.2732 0.233
11.3035 0.435
11.3337 1.418
11.3640 0.318
11.3943 0.156
11.4246 -0.109
11.4549 -0.114
11.4851 0.923
11.5154 0.606
11.5457 0.811
11.5760 1.120
11.6063 -0.654
11.6365 0.020
11.6668 -0.086
11.6971 0.277
11.7274 0.171
11.7577 1.003
11.7879 -0.144
11.8182 0.794
11.8485 0.846
11.8788 -0.665
11.9090 -0.403
11.9393 0.011
11.9696 -0.773
11.9999 0.631
12.0302 0.474
12.0604 0.212
12.0907 0.107
12.1210 -0.779
12.1513 1.148
12.1816 0.993
12.2118 -0.465
12.2421 -0.620
12.2724 0.631
12.3027 0.008
12.3329 0.479
12.3632 1.107
12.3935 0.641
12.4238 -0.293
12.4541 -0.081
12.4843 0.183
12.5146 -0.594
12.5449 0.661
12.5752 0.146
12.6055 0.516
12.6357 -0.416
12.6660 -0.097
12.6963 -0.194
12.7266 0.333
12.7568 0.080
12.7871 -0.693
12.8174 0.149
12.8477 -0.780
12.8780 -0.105
12.9082 1.040
12.9385 0.102
12.9688 -0.263
12.9991 0.519
13.0294 0.363
13.0596 0.312
13.0899 -0.416
13.1202 -0.260
13.1505 -0.207
13.1807 -0.154
13.2110 -0.205
13.2413 0.369
13.2716 -0.567
13.3019 0.217
13.3321 -0.249
13.3624 -0.298
13.3927 0.122
13.4230 -0.343
13.4533 0.234
13.4835 0.551
13.5138 -0.799
13.5441 -0.221
13.5744 -0.423
13.6046 0.416
13.6349 0.318
13.6652 -0.040
13.6955 0.384
13.7258 -0.546
13.7560 0.139
13.7863 1.553
13.8166 -0.730
13.8469 0.529
13.8772 -0.503
13.9074 0.027
13.9377 -0.588
13.9680 0.256
13.9983 -0.306
14.0285 -0.243
14.0588 0.394
14.0891 0.718
14.1194 0.210
14.1497 0.014
14.1799 -0.390
14.2102 0.028
14.2405 0.185
14.2708 0.082
14.3011 -0.229
14.3313 -0.331
14.3616 -0.120
14.3919 0.091
14.4222 -0.374
14.4524 0.828
14.4827 -0.262
14.5130 0.471
14.5433 -0.045
14.5736 0.794
14.6038 -0.034
14.6341 0.545
14.6644 -0.438
14.6947 0.610
14.7250 0.565
14.7552 -0.574
14.7855 -0.045
14.8158 0.432
14.8461 -0.289
14.8764 0.189
14.9066 0.094
14.9369 0.156
14.9672 0.426
14.9975 0.645
15.0277 -0.022
15.0580 -0.063
15.0883 -0.676
15.1186 0.116
15.1489 0.127
15.1791 0.034
15.2094 0.723
15.2397 0.266
15.2700 0.018
15.3003 0.344
15.3305 -0.060
15.3608 1.048
15.3911 0.645
15.4214 0.503
15.4516 0.309
15.4819 -0.144
15.5122 0.548
15.5425 -0.321
15.5728 -0.357
15.6030 -0.004
15.6333 0.454
15.6636 0.600
15.6939 0.485
15.7242 0.423
15.7544 -0.055
15.7847 0.613
15.8150 -0.125
15.8453 0.284
15.8755 0.119
15.9058 0.424
15.9361 -0.208
15.9664 0.306
15.9967 0.300
16.0269 0.033
16.0572 0.600
16.0875 -0.447
16.1178 0.277
16.1481 0.117
16.1783 -0.096
16.2086 1.046
16.2389 0.313
16.2692 -0.106
16.2994 -0.109
16.3297 0.253
16.3600 0.147
16.3903 0.406
16.4206 0.457
16.4508 0.508
16.4811 -0.170
16.5114 0.351
16.5417 0.195
16.5720 -0.013
16.6022 -0.428
16.6325 0.875
16.6628 0.356
16.6931 0.618
16.7233 0.256
16.7536 -0.053
16.7839 -0.467
16.8142 1.047
16.8445 0.426
16.8747 0.691
16.9050 -0.033
16.9353 1.013
16.9656 0.133
16.9959 0.608
17.0261 0.510
17.0564 0.256
17.0867 0.732
17.1170 0.010
17.1472 -0.138
17.1775 -0.182
17.2078 -0.330
17.2381 0.877
17.2684 0.052
17.2986 0.583
17.3289 0.228
17.3592 0.655
17.3895 -0.167
17.4198 0.260
17.4500 0.011
17.4803 1.013
17.5106 -0.329
17.5409 0.569
17.5712 1.311
17.6014 0.178
17.6317 0.088
17.6620 0.362
17.6923 -0.196
17.7225 -0.390
17.7528 0.227
17.7831 -0.197
17.8134 0.473
17.8437 0.257
17.8739 0.146
17.9042 -0.224
17.9345 0.082
17.9648 0.389
17.9951 0.332
18.0253 0.848
18.0556 -0.250
18.0859 -0.202
18.1162 0.003
18.1464 0.364
18.1767 0.153
18.2070 0.567
18.2373 0.356
18.2676 -0.322
18.2978 0.874
18.3281 -0.117
18.3584 0.977
18.3887 0.351
18.4190 0.039
18.4492 0.196
18.4795 0.613
18.5098 0.198
18.5401 0.095
18.5703 0.097
18.6006 0.724
18.6309 0.415
18.6612 -0.468
18.6915 -0.364
18.7217 0.514
18.7520 -0.222
18.7823 0.135
18.8126 0.493
18.8429 0.331
18.8731 -0.143
18.9034 0.632
18.9337 0.159
18.9640 0.414
18.9942 -0.423
19.0245 0.250
19.0548 -0.014
19.0851 0.556
19.1154 0.345
19.1456 -0.335
19.1759 0.340
19.2062 0.286
19.2365 -0.027
19.2668 -0.028
19.2970 -0.602
19.3273 0.544
19.3576 0.231
19.3879 0.232
19.4181 -0.080
19.4484 0.338
19.4787 0.705
19.5090 -0.283
19.5393 0.449
19.5695 -0.121
19.5998 0.090
19.6301 -0.010
19.6604 0.462
19.6907 0.362
19.7209 -0.102
19.7512 -0.357
19.7815 -0.143
19.8118 0.383
19.8420 0.181
19.8723 -0.282
19.9026 -0.171
19.9329 0.045
19.9632 0.365
19.9934 -0.304
20.0237 -0.036
20.0540 0.025
20.0843 0.607
20.1146 0.095
20.1448 -0.572
20.1751 -0.041
20.2054 0.385
20.2357 0.344
20.2659 0.146
20.2962 -0.364
20.3265 -0.091
20.3568 0.181
20.3871 0.037
20.4173 0.102
20.4476 0.792
20.4779 0.441
20.5082 0.247
20.5385 0.522
20.5687 0.172
20.5990 0.083
20.6293 0.619
20.6596 -0.511
20.6899 0.547
20.7201 -0.061
20.7504 0.424
20.7807 0.129
20.8110 0.616
20.8412 -0.304
20.8715 -0.442
20.9018 0.322
20.9321 1.504
20.9624 0.706
20.9926 0.430
21.0229 0.049
21.0532 0.711
21.0835 0.540
21.1138 0.994
21.1440 0.772
21.1743 0.290
21.2046 -0.349
21.2349 0.732
21.2651 -0.010
21.2954 0.238
21.3257 -0.138
21.3560 0.111
21.3863 0.516
21.4165 0.818
21.4468 -0.494
21.4771 0.589
21.5074 0.840
21.5377 0.779
21.5679 0.145
21.5982 0.032
21.6285 0.337
21.6588 -0.400
21.6890 -0.095
21.7193 0.158
21.7496 0.256
21.7799 -0.011
21.8102 -0.069
21.8404 -0.231
21.8707 -0.601
21.9010 0.540
21.9313 0.484
21.9616 0.115
21.9918 0.216
22.0221 -0.152
22.0524 -0.259
22.0827 -0.001
22.1129 0.153
22.1432 -0.422
22.1735 1.087
22.2038 0.044
22.2341 0.669
22.2643 0.252
22.2946 -0.165
22.3249 0.148
22.3552 -0.216
22.3855 0.619
22.4157 -0.057
22.4460 0.102
22.4763 -0.886
22.5066 0.159
22.5368 -0.047
22.5671 0.530
22.5974 0.169
22.6277 0.173
22.6580 -0.447
22.6882 0.860
22.7185 -0.020
22.7488 -0.275
22.7791 0.200
22.8094 -0.159
22.8396 0.786
22.8699 -0.197
22.9002 -0.293
22.9305 0.131
22.9607 -0.069
22.9910 -0.112
23.0213 -0.728
23.0516 0.154
23.0819 0.567
23.1121 0.043
23.1424 0.614
23.1727 0.247
23.2030 0.506
23.2333 -0.173
23.2635 0.764
23.2938 -0.695
23.3241 0.086
23.3544 -0.122
23.3846 -0.330
23.4149 -0.017
23.4452 0.141
23.4755 -0.326
23.5058 0.405
23.5360 0.043
23.5663 0.410
23.5966 0.205
23.6269 -0.261
23.6572 0.316
23.6874 0.216
23.7177 0.638
23.7480 -0.035
23.7783 0.752
23.8086 0.445
23.8388 -0.851
23.8691 0.718
23.8994 0.204
23.9297 -0.049
23.9599 0.011
23.9902 -0.085
24.0205 -0.754
24.0508 0.133
24.0811 -0.230
24.1113 -0.227
24.1416 0.088
24.1719 -0.326
24.2022 0.355
24.2325 -0.370
24.2627 0.259
24.2930 0.680
24.3233 0.373
24.3536 -0.195
24.3838 0.436
24.4141 0.546
24.4444 -0.541
24.4747 0.247
24.5050 0.046
24.5352 0.679
24.5655 -0.094
24.5958 0.487
24.6261 0.496
24.6564 0.244
24.6866 -0.007
24.7169 -0.413
24.7472 0.170
24.7775 -0.288
24.8077 -0.329
24.8380 -0.329
24.8683 0.283
24.8986 0.949
24.9289 -0.261
24.9591 0.562
24.9894 -0.126
25.0197 0.176
25.0500 -0.042
25.0803 0.938
25.1105 -0.113
25.1408 0.087
25.1711 -0.391
25.2014 0.330
25.2316 -0.354
25.2619 0.315
25.2922 0.361
25.3225 0.354
25.3528 0.608
25.3830 0.030
25.4133 0.493
25.4436 -0.241
25.4739 -0.402
25.5042 0.427
25.5344 0.423
25.5647 0.263
25.5950 0.520
25.6253 0.882
25.6555 0.306
25.6858 -0.425
25.7161 0.042
25.7464 -0.584
25.7767 0.092
25.8069 0.039
25.8372 0.091
25.8675 -0.325
25.8978 0.665
25.9281 0.718
25.9583 0.667
25.9886 0.981
26.0189 -0.788
26.0492 -0.004
26.0794 -0.001
26.1097 0.210
26.1400 0.266
26.1703 0.478
26.2006 0.482
26.2308 -0.659
26.2611 -0.342
26.2914 0.583
26.3217 -0.106
26.3520 -0.222
26.3822 -0.129
26.4125 0.902
26.4428 0.162
26.4731 0.620
26.5034 -0.275
26.5336 0.549
26.5639 -0.085
26.5942 0.531
26.6245 0.314
26.6547 -0.162
26.6850 -0.170
26.7153 0.968
26.7456 0.024
26.7759 0.070
26.8061 -0.353
26.8364 -0.319
26.8667 -0.023
26.8970 0.117
26.9273 1.246
26.9575 0.605
26.9878 -0.244
27.0181 -0.311
27.0484 0.143
27.0786 0.233
27.1089 -0.094
27.1392 0.049
27.1695 0.348
27.1998 -0.133
27.2300 0.583
27.2603 0.415
27.2906 0.091
27.3209 0.912
27.3512 0.537
27.3814 0.526
27.4117 0.464
27.4420 0.506
27.4723 0.080
27.5025 0.748
27.5328 -0.303
27.5631 0.835
27.5934 0.358
27.6237 -0.171
27.6539 -0.230
27.6842 0.805
27.7145 0.173
27.7448 0.375
27.7751 0.422
27.8053 0.416
27.8356 0.307
27.8659 -0.167
27.8962 -0.379
27.9264 -0.703
27.9567 0.536
27.9870 0.578
28.0173 0.828
28.0476 -0.119
28.0778 -0.389
28.1081 0.539
28.1384 -0.042
28.1687 -0.311
28.1990 0.775
28.2292 -0.014
28.2595 -0.073
28.2898 -0.028
28.3201 0.434
28.3503 -0.093
28.3806 0.266
28.4109 0.417
28.4412 -0.734
28.4715 0.147
28.5017 0.143
28.5320 -0.017
28.5623 -0.073
28.5926 0.185
28.6229 0.859
28.6531 0.440
28.6834 0.230
28.7137 0.593
28.7440 0.591
28.7742 0.174
28.8045 0.226
28.8348 -0.087
28.8651 0.278
28.8954 0.174
28.9256 0.071
28.9559 0.020
28.9862 0.335
29.0165 0.389
29.0468 -0.390
29.0770 -0.433
29.1073 0.826
29.1376 0.523
29.1679 -0.873
29.1981 -0.029
29.2284 0.763
29.2587 0.357
29.2890 0.056
29.3193 0.641
29.3495 0.236
29.3798 -0.116
29.4101 -0.155
29.4404 -0.090
29.4707 -0.597
29.5009 0.199
29.5312 -0.672
29.5615 0.228
29.5918 -0.590
29.6221 0.883
29.6523 0.274
29.6826 -0.386
29.7129 -0.318
29.7432 0.533
29.7734 -0.023
29.8037 0.464
29.8340 0.847
29.8643 0.188
29.8946 0.259
29.9248 0.018
29.9551 -0.275
29.9854 -0.411
30.0157 -0.130
30.0460 0.255
30.0762 -0.141
30.1065 0.975
30.1368 0.007
30.1671 0.394
30.1973 -0.156
30.2276 0.804
30.2579 1.036
30.2882 0.174
30.3185 0.250
30.3487 0.848
30.3790 1.081
30.4093 0.690
30.4396 1.549
30.4699 0.897
30.5001 1.132
30.5304 0.378
30.5607 0.301
30.5910 0.172
30.6212 1.606
30.6515 1.322
30.6818 1.975
30.7121 2.681
30.7424 2.242
30.7726 2.636
30.8029 2.041
30.8332 3.218
30.8635 3.249
30.8938 3.072
30.9240 5.030
30.9543 3.239
30.9846 4.365
31.0149 5.596
31.0451 5.681
31.0754 6.027
31.1057 8.874
31.1360 6.408
31.1663 8.005
31.1965 9.863
31.2268 11.617
31.2571 14.152
31.2874 15.334
31.3177 17.298
31.3479 18.376
31.3782 22.372
31.4085 27.149
31.4388 30.572
31.4690 33.423
31.4993 39.087
31.5296 40.011
31.5599 46.405
31.5902 48.320
31.6204 48.516
31.6507 47.984
31.6810 49.483
31.7113 48.691
31.7416 42.483
31.7718 38.515
31.8021 33.453
31.8324 27.246
31.8627 21.508
31.8929 20.405
31.9232 19.407
31.9535 17.733
31.9838 14.705
32.0141 12.666
32.0443 9.899
32.0746 8.799
32.1049 10.043
32.1352 7.277
32.1655 5.918
32.1957 5.601
32.2260 4.919
32.2563 5.644
32.2866 4.495
32.3169 2.356
32.3471 3.239
32.3774 2.038
32.4077 3.859
32.4380 2.555
32.4682 1.876
32.4985 1.511
32.5288 1.458
32.5591 1.406
32.5894 1.249
32.6196 1.250
32.6499 1.511
32.6802 0.523
32.7105 0.472
32.7408 -0.203
32.7710 0.893
32.8013 0.479
32.8316 0.794
32.8619 1.787
32.8921 0.177
32.9224 1.014
32.9527 1.071
32.9830 -0.226
33.0133 0.300
33.0435 0.253
33.0738 0.676
33.1041 0.214
33.1344 -0.248
33.1647 -0.241
33.1949 -0.859
33.2252 0.270
33.2555 0.201
33.2858 -0.284
33.3160 0.064
33.3463 0.934
33.3766 0.554
33.4069 -0.294
33.4372 0.160
33.4674 0.927
33.4977 1.069
33.5280 0.951
33.5583 1.147
33.5886 0.978
33.6188 0.757
33.6491 2.255
33.6794 1.202
33.7097 1.816
33.7399 2.326
33.7702 1.690
33.8005 2.878
33.8308 2.712
33.8611 5.099
33.8913 4.517
33.9216 5.185
33.9519 6.114
33.9822 7.513
34.0125 9.328
34.0427 12.133
34.0730 14.106
34.1033 16.808
34.1336 22.843
34.1638 27.525
34.1941 36.374
34.2244 44.702
34.2547 57.042
34.2850 63.131
34.3152 57.711
34.3455 55.676
34.3758 47.027
34.4061 36.295
34.4364 29.835
34.4666 22.854
34.4969 18.008
34.5272 13.216
34.5575 12.954
34.5877 9.100
34.6180 7.381
34.6483 4.829
34.6786 4.986
34.7089 7.175
34.7391 4.937
34.7694 4.418
34.7997 3.482
34.8300 2.912
34.8603 4.686
34.8905 2.918
34.9208 4.172
34.9511 2.457
34.9814 3.972
35.0116 3.195
35.0419 2.055
35.0722 2.529
35.1025 4.566
35.1328 3.531
35.1630 1.506
35.1933 3.961
35.2236 4.073
35.2539 3.820
35.2842 4.818
35.3144 3.733
35.3447 4.523
35.3750 4.897
35.4053 5.792
35.4356 7.989
35.4658 7.114
35.4961 8.583
35.5264 8.022
35.5567 9.804
35.5869 10.753
35.6172 12.536
35.6475 12.862
35.6778 15.895
35.7081 16.482
35.7383 20.871
35.7686 21.249
35.7989 24.597
35.8292 29.612
35.8595 29.471
35.8897 34.591
35.9200 42.576
35.9503 46.654
35.9806 56.723
36.0108 61.167
36.0411 68.789
36.0714 70.526
36.1017 73.877
36.1320 73.271
36.1622 72.925
36.1925 71.643
36.2228 62.339
36.2531 58.453
36.2834 51.494
36.3136 46.724
36.3439 39.818
36.3742 35.256
36.4045 29.288
36.4347 27.748
36.4650 23.240
36.4953 19.721
36.5256 16.672
36.5559 14.300
36.5861 13.699
36.6164 12.474
36.6467 10.780
36.6770 8.930
36.7073 7.758
36.7375 6.274
36.7678 6.665
36.7981 5.493
36.8284 5.260
36.8586 5.496
36.8889 3.285
36.9192 4.823
36.9495 3.550
36.9798 3.162
37.0100 3.400
37.0403 2.336
37.0706 2.575
37.1009 1.511
37.1312 2.167
37.1614 1.417
37.1917 1.345
37.2220 1.429
37.2523 1.618
37.2825 1.390
37.3128 1.163
37.3431 1.301
37.3734 0.709
37.4037 0.900
37.4339 1.247
37.4642 0.970
37.4945 0.693
37.5248 0.989
37.5551 0.400
37.5853 0.280
37.6156 0.630
37.6459 -0.114
37.6762 0.496
37.7064 0.743
37.7367 -0.521
37.7670 1.445
37.7973 0.494
37.8276 0.221
37.8578 -0.989
37.8881 -0.167
37.9184 0.498
37.9487 -0.085
37.9790 -0.148
38.0092 1.144
38.0395 0.665
38.0698 0.187
38.1001 -0.343
38.1304 0.794
38.1606 0.056
38.1909 0.204
38.2212 -0.012
38.2515 0.450
38.2817 0.443
38.3120 0.124
38.3423 -0.195
38.3726 1.154
38.4029 0.002
38.4331 0.206
38.4634 1.295
38.4937 0.561
38.5240 0.297
38.5543 0.606
38.5845 0.186
38.6148 -0.598
38.6451 -0.174
38.6754 -0.167
38.7056 0.153
38.7359 0.317
38.7662 1.159
38.7965 0.908
38.8268 0.604
38.8570 0.458
38.8873 -0.001
38.9176 0.582
38.9479 0.020
38.9782 0.500
39.0084 0.303
39.0387 0.002
39.0690 0.171
39.0993 0.652
39.1295 -0.325
39.1598 -0.416
39.1901 0.377
39.2204 0.598
39.2507 0.090
39.2809 -0.418
39.3112 0.325
39.3415 0.182
39.3718 0.301
39.4021 0.159
39.4323 0.070
39.4626 0.085
39.4929 0.517
39.5232 0.325
39.5534 -0.180
39.5837 0.514
39.6140 0.167
39.6443 0.288
39.6746 -0.110
39.7048 0.012
39.7351 -0.230
39.7654 0.154
39.7957 0.902
39.8260 0.506
39.8562 0.161
39.8865 0.963
39.9168 0.202
39.9471 1.005
39.9773 0.037
40.0076 0.736
40.0379 0.550
40.0682 0.000
40.0985 0.856
40.1287 0.463
40.1590 0.539
40.1893 0.095
40.2196 0.640
40.2499 -0.272
40.2801 -0.299
40.3104 -0.255
40.3407 0.832
40.3710 0.200
40.4012 0.402
40.4315 0.084
40.4618 0.599
40.4921 0.281
40.5224 0.381
40.5526 0.272
40.5829 0.164
40.6132 0.316
40.6435 0.521
40.6738 0.779
40.7040 0.724
40.7343 0.357
40.7646 0.355
40.7949 0.562
40.8251 0.405
40.8554 0.404
40.8857 -0.169
40.9160 0.195
40.9463 0.039
40.9765 0.665
41.0068 0.458
41.0371 -0.166
41.0674 0.149
41.0977 0.047
41.1279 0.622
41.1582 0.417
41.1885 -0.309
41.2188 -0.097
41.2491 0.116
41.2793 0.693
41.3096 0.229
41.3399 0.287
41.3702 0.240
41.4004 0.142
41.4307 0.409
41.4610 0.728
41.4913 -0.723
41.5216 -0.299
41.5518 0.475
41.5821 0.207
41.6124 0.148
41.6427 0.298
41.6730 -0.437
41.7032 0.287
41.7335 -0.135
41.7638 -0.296
41.7941 0.116
41.8243 0.424
41.8546 -0.048
41.8849 0.001
41.9152 -0.107
41.9455 0.099
41.9757 0.045
42.0060 0.668
42.0363 -0.011
42.0666 -0.064
42.0969 -0.325
42.1271 0.300
42.1574 -0.065
42.1877 0.508
42.2180 0.040
42.2482 -0.115
42.2785 -0.270
42.3088 -0.059
42.3391 0.464
42.3694 0.206
42.3996 -0.208
42.4299 0.160
42.4602 -0.513
42.4905 0.637
42.5208 -0.140
42.5510 0.177
42.5813 0.443
42.6116 0.188
42.6419 -0.274
42.6721 0.044
42.7024 -0.209
42.7327 0.058
42.7630 -0.195
42.7933 -0.083
42.8235 -0.074
42.8538 0.403
42.8841 0.203
42.9144 0.004
42.9447 0.483
42.9749 0.233
43.0052 0.608
43.0355 0.358
43.0658 0.942
43.0960 0.225
43.1263 0.341
43.1566 -0.012
43.1869 -0.363
43.2172 0.043
43.2474 0.397
43.2777 0.127
43.3080 0.118
43.3383 0.630
43.3686 0.361
43.3988 -0.012
43.4291 0.710
43.4594 0.598
43.4897 -0.190
43.5199 0.168
43.5502 0.266
43.5805 -0.001
43.6108 -0.215
43.6411 0.874
43.6713 0.244
43.7016 0.604
43.7319 -0.077
43.7622 0.492
43.7925 0.072
43.8227 0.122
43.8530 1.057
43.8833 0.481
43.9136 0.584
43.9439 -0.147
43.9741 0.269
44.0044 0.633
44.0347 0.059
44.0650 0.372
44.0952 0.372
44.1255 0.477
44.1558 0.635
44.1861 0.011
44.2164 -0.299
44.2466 -0.160
44.2769 0.449
44.3072 -0.087
44.3375 0.522
44.3678 -0.066
44.3980 0.336
44.4283 0.217
44.4586 0.308
44.4889 0.815
44.5191 0.020
44.5494 0.060
44.5797 0.464
44.6100 0.295
44.6403 0.231
44.6705 0.064
44.7008 0.678
44.7311 -0.166
44.7614 -0.281
44.7917 0.126
44.8219 0.533
44.8522 0.628
44.8825 -0.109
44.9128 0.611
44.9430 0.447
44.9733 0.491
45.0036 0.120
45.0339 0.269
45.0642 -0.258
45.0944 0.933
45.1247 0.511
45.1550 0.297
45.1853 -0.125
45.2156 0.287
45.2458 0.648
45.2761 -0.085
45.3064 -0.089
45.3367 -0.092
45.3669 0.218
45.3972 0.163
45.4275 -0.464
45.4578 0.732
45.4881 0.314
45.5183 -0.364
45.5486 -0.266
45.5789 0.041
45.6092 -0.329
45.6395 -0.086
45.6697 0.001
45.7000 -0.171
45.7303 -0.083
45.7606 0.006
45.7908 -0.166
45.8211 -0.076
45.8514 -0.507
45.8817 0.208
45.9120 0.454
45.9422 1.014
45.9725 -0.093
46.0028 -0.210
46.0331 0.872
46.0634 -0.442
46.0936 0.328
46.1239 0.525
46.1542 -0.371
46.1845 0.452
46.2147 -0.079
46.2450 0.953
46.2753 -0.410
46.3056 0.519
46.3359 -0.063
46.3661 -0.331
46.3964 1.432
46.4267 -0.294
46.4570 -0.041
46.4873 -0.152
46.5175 0.207
46.5478 0.409
46.5781 0.039
46.6084 0.347
46.6386 0.446
46.6689 0.598
46.6992 0.854
46.7295 0.642
46.7598 1.316
46.7900 1.470
46.8203 1.519
46.8506 1.465
46.8809 2.088
46.9112 1.670
46.9414 2.034
46.9717 3.596
47.0020 4.012
47.0323 4.585
47.0626 5.836
47.0928 4.899
47.1231 7.088
47.1534 6.568
47.1837 7.404
47.2139 9.958
47.2442 11.575
47.2745 13.506
47.3048 15.384
47.3351 13.253
47.3653 14.507
47.3956 16.178
47.4259 14.048
47.4562 13.532
47.4865 14.632
47.5167 11.929
47.5470 12.040
47.5773 11.266
47.6076 10.700
47.6378 7.478
47.6681 7.017
47.6984 5.047
47.7287 5.316
47.7590 5.012
47.7892 4.293
47.8195 4.459
47.8498 3.011
47.8801 2.917
47.9104 2.772
47.9406 1.898
47.9709 1.753
48.0012 2.234
48.0315 1.621
48.0617 1.217
48.0920 1.908
48.1223 1.505
48.1526 1.362
48.1829 1.949
48.2131 0.714
48.2434 0.521
48.2737 1.213
48.3040 0.344
48.3343 0.256
48.3645 1.731
48.3948 -0.023
48.4251 0.306
48.4554 0.480
48.4856 0.134
48.5159 -0.160
48.5462 0.015
48.5765 0.398
48.6068 -0.311
48.6370 0.438
48.6673 0.406
48.6976 0.791
48.7279 0.135
48.7582 0.365
48.7884 -0.030
48.8187 0.513
48.8490 0.379
48.8793 -0.223
48.9095 -0.304
48.9398 0.005
48.9701 0.157
49.0004 -0.107
49.0307 0.255
49.0609 0.669
49.0912 0.146
49.1215 0.040
49.1518 0.403
49.1821 -0.275
49.2123 0.245
49.2426 0.036
49.2729 0.401
49.3032 0.297
49.3334 -0.171
49.3637 0.299
49.3940 0.144
49.4243 0.094
49.4546 1.086
49.4848 0.672
49.5151 -0.002
49.5454 0.158
49.5757 0.630
49.6060 -0.251
49.6362 0.378
49.6665 -0.086
49.6968 0.076
49.7271 0.967
49.7574 0.608
49.7876 -0.166
49.8179 0.101
49.8482 0.472
49.8785 0.167
49.9087 -0.241
49.9390 -0.337
49.9693 0.280
49.9996 0.169
50.0299 0.266
50.0601 0.103
50.0904 0.045
50.1207 0.143
50.1510 0.034
50.1813 0.081
50.2115 -0.236
50.2418 -0.189
50.2721 0.224
50.3024 0.012
50.3326 0.061
50.3629 -0.046
50.3932 0.264
50.4235 0.783
50.4538 0.469
50.4840 0.207
50.5143 -0.002
50.5446 -0.002
50.5749 0.206
50.6052 -0.679
50.6354 0.311
50.6657 0.208
50.6960 0.574
50.7263 0.263
50.7565 0.525
50.7868 0.215
50.8171 -0.095
50.8474 0.221
50.8777 0.121
50.9079 -0.084
50.9382 0.546
50.9685 0.290
50.9988 -0.070
51.0291 0.352
51.0593 0.306
51.0896 -0.104
51.1199 -0.254
51.1502 -0.299
51.1804 0.009
51.2107 -0.255
51.2410 0.106
51.2713 0.467
51.3016 -0.004
51.3318 0.202
51.3621 0.512
51.3924 -0.427
51.4227 -0.168
51.4530 0.404
51.4832 -0.065
51.5135 0.404
51.5438 0.248
51.5741 -0.325
51.6043 -0.063
51.6346 0.667
51.6649 0.148
51.6952 -0.215
51.7255 0.100
51.7557 -0.001
51.7860 -0.466
51.8163 0.579
51.8466 0.739
51.8769 0.014
51.9071 -0.033
51.9374 -0.549
51.9677 0.238
51.9980 -0.121
52.0282 0.510
52.0585 0.569
52.0888 0.159
52.1191 -0.146
52.1494 -0.295
52.1796 -0.026
52.2099 -0.017
52.2402 0.513
52.2705 0.002
52.3008 0.220
52.3310 -0.290
52.3613 -0.199
52.3916 0.413
52.4219 0.401
52.4521 0.650
52.4824 0.169
52.5127 -0.207
52.5430 0.460
52.5733 0.033
52.6035 0.335
52.6338 -0.091
52.6641 0.681
52.6944 0.151
52.7247 0.559
52.7549 0.082
52.7852 -0.030
52.8155 0.067
52.8458 0.216
52.8761 0.001
52.9063 -0.214
52.9366 -0.272
52.9669 0.556
52.9972 0.759
53.0274 0.650
53.0577 0.801
53.0880 0.068
53.1183 0.377
53.1486 0.738
53.1788 0.318
53.2091 -0.257
53.2394 -0.363
53.2697 0.304
53.3000 0.451
53.3302 0.285
53.3605 0.537
53.3908 0.268
53.4211 -0.365
53.4513 0.097
53.4816 0.402
53.5119 0.291
53.5422 -0.184
53.5725 -0.138
53.6027 0.794
53.6330 -0.410
53.6633 -0.050
53.6936 0.102
53.7239 -0.007
53.7541 0.198
53.7844 0.142
53.8147 0.087
53.8450 0.345
53.8752 0.030
53.9055 0.445
53.9358 -0.338
53.9661 -0.079
53.9964 0.545
54.0266 -0.445
54.0569 -0.080
54.0872 0.181
54.1175 0.233
54.1478 -0.599
54.1780 0.080
54.2083 0.602
54.2386 -0.073
54.2689 0.451
54.2991 0.245
54.3294 -0.064
54.3597 -0.217
54.3900 -0.317
54.4203 0.179
54.4505 -0.158
54.4808 0.600
54.5111 0.837
54.5414 0.032
54.5717 0.322
54.6019 -0.117
54.6322 0.017
54.6625 -0.005
54.6928 0.234
54.7230 -0.047
54.7533 0.453
54.7836 0.224
54.8139 -0.316
54.8442 0.133
54.8744 -0.095
54.9047 -0.009
54.9350 0.285
54.9653 0.944
54.9956 -0.167
55.0258 0.701
55.0561 0.684
55.0864 0.251
55.1167 0.339
55.1469 -0.250
55.1772 0.308
55.2075 -0.437
55.2378 0.382
55.2681 0.472
55.2983 0.614
55.3286 0.705
55.3589 1.056
55.3892 0.731
55.4195 0.771
55.4497 0.863
55.4800 0.539
55.5103 0.111
55.5406 0.777
55.5709 0.766
55.6011 0.756
55.6314 0.851
55.6617 0.945
55.6920 2.030
55.7222 1.813
55.7525 2.065
55.7828 1.589
55.8131 1.998
55.8434 2.772
55.8736 2.557
55.9039 3.019
55.9342 3.846
55.9645 3.424
55.9948 4.773
56.0250 5.080
56.0553 4.399
56.0856 4.447
56.1159 7.047
56.1461 7.460
56.1764 8.030
56.2067 8.913
56.2370 12.140
56.2673 12.554
56.2975 13.646
56.3278 15.572
56.3581 16.249
56.3884 18.852
56.4187 19.790
56.4489 20.727
56.4792 19.061
56.5095 19.115
56.5398 18.751
56.5700 17.659
56.6003 17.870
56.6306 14.383
56.6609 13.344
56.6912 11.472
56.7214 10.539
56.7517 9.866
56.7820 9.037
56.8123 7.896
56.8426 6.807
56.8728 5.094
56.9031 5.308
56.9334 4.845
56.9637 4.852
56.9939 3.349
57.0242 3.304
57.0545 2.999
57.0848 3.736
57.1151 2.599
57.1453 2.035
57.1756 1.367
57.2059 1.429
57.2362 1.960
57.2665 1.658
57.2967 1.773
57.3270 1.211
57.3573 1.743
57.3876 0.036
57.4178 0.257
57.4481 0.478
57.4784 1.272
57.5087 0.504
57.5390 0.674
57.5692 0.740
57.5995 0.078
57.6298 0.040
57.6601 0.576
57.6904 0.123
57.7206 -0.225
57.7509 0.208
57.7812 0.120
57.8115 0.710
57.8417 -0.418
57.8720 0.693
57.9023 0.347
57.9326 -0.155
57.9629 0.176
57.9931 0.821
58.0234 0.007
58.0537 -0.338
58.0840 0.027
58.1143 -0.130
58.1445 -0.286
58.1748 -0.129
58.2051 -0.232
58.2354 -0.022
58.2656 0.657
58.2959 -0.226
58.3262 -0.380
58.3565 0.613
58.3868 -0.321
58.4170 0.255
58.4473 -0.470
58.4776 0.264
58.5079 0.737
58.5382 0.430
58.5684 0.071
58.5987 0.025
58.6290 -0.333
58.6593 -0.122
58.6896 -0.013
58.7198 -0.113
58.7501 0.100
58.7804 -0.312
58.8107 -0.514
58.8409 0.377
58.8712 0.487
58.9015 -0.079
58.9318 -0.280
58.9621 0.300
58.9923 0.672
59.0226 0.159
59.0529 -0.874
59.0832 0.125
59.1135 0.030
59.1437 -0.325
59.1740 -0.109
59.2043 0.211
59.2346 -0.040
59.2648 -0.448
59.2951 0.186
59.3254 -0.169
59.3557 0.466
59.3860 0.164
59.4162 0.175
59.4465 0.134
59.4768 0.093
59.5071 0.105
59.5374 0.430
59.5676 0.234
59.5979 -0.170
59.6282 -0.312
59.6585 -0.110
59.6887 0.093
59.7190 0.191
59.7493 0.030
59.7796 0.286
59.8099 -0.551
59.8401 0.278
59.8704 -0.454
59.9007 0.376
59.9310 0.790
59.9613 0.163
59.9915 0.525
60.0218 0.107
60.0521 0.262
60.0824 -0.364
60.1126 -0.220
60.1429 0.237
60.1732 0.018
60.2035 -0.046
60.2338 0.100
60.2640 0.610
60.2943 0.236
60.3246 0.174
60.3549 0.113
60.3852 -0.313
60.4154 0.356
60.4457 0.087
60.4760 0.027
60.5063 0.332
60.5365 -0.560
60.5668 -0.254
60.5971 0.052
60.6274 -0.267
60.6577 0.249
60.6879 -0.329
60.7182 -0.291
60.7485 0.112
60.7788 -0.161
60.8091 -0.434
60.8393 0.439
60.8696 0.479
60.8999 0.468
60.9302 0.352
60.9604 0.133
60.9907 -0.138
61.0210 0.061
61.0513 0.155
61.0816 0.198
61.1118 0.137
61.1421 -0.288
61.1724 0.329
61.2027 0.008
61.2330 -0.468
61.2632 0.036
61.2935 -0.345
61.3238 0.576
61.3541 -0.533
61.3844 0.076
61.4146 0.321
61.4449 -0.006
61.4752 0.709
61.5055 0.226
61.5357 0.473
61.5660 0.877
61.5963 -0.282
61.6266 0.278
61.6569 0.631
61.6871 0.202
61.7174 0.243
61.7477 0.284
61.7780 -0.039
61.8083 0.263
61.8385 0.566
61.8688 0.713
61.8991 1.120
61.9294 0.695
61.9596 0.895
61.9899 0.522
62.0202 1.400
62.0505 1.601
62.0808 1.594
62.1110 2.004
62.1413 1.633
62.1716 0.690
62.2019 1.883
62.2322 2.815
62.2624 2.967
62.2927 3.640
62.3230 3.844
62.3533 5.143
62.3835 5.348
62.4138 6.699
62.4441 6.436
62.4744 8.726
62.5047 8.255
62.5349 9.504
62.5652 12.576
62.5955 11.482
62.6258 13.305
62.6561 15.284
62.6863 16.743
62.7166 14.713
62.7469 17.370
62.7772 15.341
62.8074 17.895
62.8377 13.001
62.8680 12.483
62.8983 12.695
62.9286 11.136
62.9588 10.411
62.9891 10.415
63.0194 8.128
63.0497 7.456
63.0800 5.691
63.1102 5.801
63.1405 5.442
63.1708 4.147
63.2011 3.008
63.2313 3.015
63.2616 2.554
63.2919 3.291
63.3222 2.727
63.3525 1.381
63.3827 1.338
63.4130 1.348
63.4433 1.097
63.4736 2.670
63.5039 1.118
63.5341 1.650
63.5644 0.568
63.5947 0.632
63.6250 0.227
63.6552 0.240
63.6855 0.357
63.7158 0.110
63.7461 0.071
63.7764 0.762
63.8066 0.360
63.8369 0.687
63.8672 0.442
63.8975 -0.011
63.9278 0.473
63.9580 0.125
63.9883 0.767
64.0186 -0.258
64.0489 0.488
64.0791 -0.067
64.1094 0.681
64.1397 0.178
64.1700 0.562
64.2003 0.373
64.2305 -0.181
64.2608 0.204
64.2911 0.328
64.3214 0.662
64.3517 -0.046
64.3819 -0.338
64.4122 0.082
64.4425 0.763
64.4728 0.194
64.5031 0.146
64.5333 0.255
64.5636 -0.052
64.5939 0.526
64.6242 0.115
64.6544 0.330
64.6847 0.232
64.7150 0.708
64.7453 -0.222
64.7756 0.202
64.8058 -0.259
64.8361 0.739
64.8664 0.019
64.8967 0.185
64.9270 -0.223
64.9572 -0.317
64.9875 -0.139
65.0178 0.508
65.0481 0.270
65.0783 0.605
65.1086 0.420
65.1389 -0.286
65.1692 0.467
65.1995 0.127
65.2297 -0.057
65.2600 0.541
65.2903 -0.423
65.3206 0.072
65.3509 0.254
65.3811 -0.188
65.4114 -1.099
65.4417 0.335
65.4720 -0.107
65.5022 0.859
65.5325 0.575
65.5628 -0.334
65.5931 -0.357
65.6234 0.295
65.6536 0.009
65.6839 0.818
65.7142 0.169
65.7445 0.718
65.7748 -0.087
65.8050 0.567
65.8353 0.909
65.8656 0.001
65.8959 0.708
65.9261 0.426
65.9564 0.666
65.9867 0.645
66.0170 0.416
66.0473 0.760
66.0775 0.897
66.1078 1.451
66.1381 1.432
66.1684 0.632
66.1987 1.030
66.2289 2.262
66.2592 0.891
66.2895 0.561
66.3198 1.690
66.3500 1.309
66.3803 1.762
66.4106 1.694
66.4409 1.054
66.4712 0.622
66.5014 0.764
66.5317 1.427
66.5620 0.684
66.5923 0.202
66.6226 -0.280
66.6528 -0.449
66.6831 0.529
66.7134 0.517
66.7437 0.245
66.7739 0.286
66.8042 -0.246
66.8345 0.004
66.8648 0.254
66.8951 -0.641
66.9253 0.079
66.9556 0.695
66.9859 0.218
67.0162 0.783
67.0465 0.358
67.0767 0.663
67.1070 0.865
67.1373 1.119
67.1676 1.164
67.1978 0.742
67.2281 0.320
67.2584 0.262
67.2887 0.726
67.3190 1.920
67.3492 1.603
67.3795 3.214
67.4098 2.377
67.4401 3.416
67.4704 3.622
67.5006 4.505
67.5309 4.607
67.5612 5.439
67.5915 5.959
67.6218 7.156
67.6520 8.094
67.6823 9.083
67.7126 10.229
67.7429 9.970
67.7731 9.606
67.8034 10.025
67.8337 10.599
67.8640 11.279
67.8943 9.354
67.9245 10.295
67.9548 8.788
67.9851 9.521
68.0154 7.077
68.0457 7.967
68.0759 6.982
68.1062 5.686
68.1365 6.056
68.1668 6.374
68.1970 3.620
68.2273 4.721
68.2576 2.905
68.2879 3.381
68.3182 3.545
68.3484 2.877
68.3787 3.458
68.4090 3.467
68.4393 2.487
68.4696 4.007
68.4998 2.507
68.5301 2.257
68.5604 2.007
68.5907 2.331
68.6209 2.499
68.6512 2.303
68.6815 2.888
68.7118 3.005
68.7421 2.706
68.7723 3.292
68.8026 4.504
68.8329 4.778
68.8632 4.689
68.8935 4.027
68.9237 4.459
68.9540 4.839
68.9843 5.688
69.0146 4.715
69.0448 4.993
69.0751 3.708
69.1054 4.559
69.1357 4.264
69.1660 2.355
69.1962 3.416
69.2265 2.602
69.2568 2.048
69.2871 2.328
69.3174 2.401
69.3476 1.432
69.3779 0.776
69.4082 1.682
69.4385 -0.015
69.4687 0.736
69.4990 1.228
69.5293 0.782
69.5596 0.492
69.5899 0.256
69.6201 0.019
69.6504 0.616
69.6807 0.276
69.7110 0.458
69.7413 -0.038
69.7715 -0.324
69.8018 0.014
69.8321 -0.011
69.8624 0.120
69.8926 -0.009
69.9229 -0.190
69.9532 -0.057
69.9835 -0.342
70.0138 -0.267
70.0440 -0.245
70.0743 0.090
70.1046 -0.251
70.1349 -0.175
70.1652 0.318
70.1954 -0.231
70.2257 -0.102
70.2560 -0.702
70.2863 0.154
70.3166 -0.084
70.3468 -0.321
70.3771 -0.193
70.4074 -0.012
70.4377 -0.196
70.4679 -0.431
70.4982 0.584
70.5285 -0.744
70.5588 0.011
70.5891 -0.014
70.6193 -0.300
70.6496 -0.325
70.6799 0.537
70.7102 -0.217
70.7405 0.333
70.7707 -0.159
70.8010 0.183
70.8313 0.316
70.8616 0.190
70.8918 -0.353
70.9221 0.616
70.9524 -0.082
70.9827 -0.363
71.0130 0.102
71.0432 0.046
71.0735 0.044
71.1038 0.562
71.1341 0.039
71.1644 -0.119
71.1946 -0.120
71.2249 0.347
71.2552 -0.018
71.2855 -0.070
71.3157 0.034
71.3460 0.608
71.3763 -0.069
71.4066 -0.276
71.4369 -0.073
71.4671 -0.026
71.4974 -0.083
71.5277 0.120
71.5580 -0.040
71.5883 0.060
71.6185 -0.360
71.6488 0.626
71.6791 0.259
71.7094 -0.264
71.7396 -0.058
71.7699 0.149
71.8002 -0.009
71.8305 0.355
71.8608 -0.271
71.8910 -0.011
71.9213 0.302
71.9516 0.251
71.9819 -0.321
72.0122 0.565
72.0424 0.202
72.0727 -0.212
72.1030 0.415
72.1333 -0.207
72.1635 0.421
72.1938 0.425
72.2241 0.689
72.2544 0.954
72.2847 0.490
72.3149 0.339
72.3452 1.021
72.3755 1.079
72.4058 0.773
72.4361 1.509
72.4663 0.526
72.4966 1.002
72.5269 1.374
72.5572 0.966
72.5874 0.870
72.6177 0.410
72.6480 0.731
72.6783 0.741
72.7086 0.907
72.7388 0.657
72.7691 0.824
72.7994 0.262
72.8297 0.534
72.8600 1.067
72.8902 0.193
72.9205 -0.211
72.9508 -0.146
72.9811 0.701
73.0113 0.246
73.0416 0.728
73.0719 0.534
73.1022 0.080
73.1325 -0.217
73.1627 0.632
73.1930 0.023
73.2233 0.560
73.2536 0.316
73.2839 -0.032
73.3141 0.298
73.3444 -0.101
73.3747 -0.239
73.4050 0.115
73.4353 0.364
73.4655 0.041
73.4958 0.552
73.5261 -0.187
73.5564 0.272
73.5866 0.159
73.6169 0.671
73.6472 0.715
73.6775 0.291
73.7078 0.335
73.7380 -0.297
73.7683 0.165
73.7986 -0.050
73.8289 0.309
73.8592 0.199
73.8894 -0.015
73.9197 0.241
73.9500 -0.024
73.9803 -0.080
74.0105 0.228
74.0408 0.642
74.0711 -0.247
74.1014 0.011
74.1317 0.165
74.1619 -0.254
74.1922 -0.255
74.2225 -0.153
74.2528 0.106
74.2831 0.157
74.3133 -0.208
74.3436 0.312
74.3739 0.312
74.4042 0.000
74.4344 -0.103
74.4647 0.106
74.4950 -0.101
74.5253 -0.255
74.5556 0.105
74.5858 -0.004
74.6161 -0.112
74.6464 1.030
74.6767 0.297
74.7070 -0.383
74.7372 0.396
74.7675 0.498
74.7978 -0.233
74.8281 0.442
74.8583 -0.184
74.8886 0.128
74.9189 0.232
74.9492 0.180
74.9795 0.388
75.0097 0.129
75.0400 0.338
75.0703 -0.129
75.1006 0.081
75.1309 0.708
75.1611 0.398
75.1914 -0.015
75.2217 -0.064
75.2520 -0.217
75.2822 0.204
75.3125 0.000
75.3428 -0.255
75.3731 -0.255
75.4034 0.150
75.4336 0.035
75.4639 0.129
75.4942 0.379
75.5245 -0.100
75.5548 -0.109
75.5850 -0.066
75.6153 0.081
75.6456 -0.344
75.6759 0.013
75.7061 0.005
75.7364 -0.054
75.7667 -0.218
75.7970 -0.068
75.8273 0.291
75.8575 0.077
75.8878 0.175
75.9181 -0.403
75.9484 0.218
75.9787 0.318
76.0089 -0.311
76.0392 -0.270
76.0695 -0.175
76.0998 0.336
76.1301 -0.246
76.1603 0.474
76.1906 0.257
76.2209 0.145
76.2512 -0.071
76.2814 -0.547
76.3117 0.227
76.3420 0.220
76.3723 0.266
76.4026 0.468
76.4328 0.359
76.4631 -0.532
76.4934 0.557
76.5237 0.761
76.5540 0.028
76.5842 0.128
76.6145 0.594
76.6448 1.216
76.6751 1.265
76.7053 1.107
76.7356 1.470
76.7659 1.052
76.7962 2.353
76.8265 1.258
76.8567 0.789
76.8870 0.789
76.9173 1.311
76.9476 0.634
76.9779 1.000
77.0081 0.741
77.0384 1.160
77.0687 0.694
77.0990 0.696
77.1292 0.595
77.1595 0.963
77.1898 0.550
77.2201 0.919
77.2504 0.611
77.2806 0.356
77.3109 -0.108
77.3412 0.731
77.3715 0.737
77.4018 0.067
77.4320 0.230
77.4623 0.237
77.4926 0.088
77.5229 -0.373
77.5531 0.261
77.5834 0.269
77.6137 -0.190
77.6440 -0.494
77.6743 0.245
77.7045 0.777
77.7348 0.475
77.7651 0.486
77.7954 -0.284
77.8257 0.092
77.8559 0.260
77.8862 -0.248
77.9165 0.025
77.9468 -0.222
77.9770 -0.260
78.0073 -0.259
78.0376 0.264
78.0679 0.162
78.0982 -0.252
78.1284 0.272
78.1587 0.536
78.1890 0.383
78.2193 -0.342
78.2496 0.340
78.2798 0.397
78.3101 -0.015
78.3404 0.095
78.3707 -0.211
78.4009 0.108
78.4312 0.687
78.4615 0.278
78.4918 0.233
78.5221 0.085
78.5523 -0.011
78.5826 0.258
78.6129 0.163
78.6432 0.068
78.6735 0.026
78.7037 0.192
78.7340 0.203
78.7643 0.109
78.7946 0.121
78.8248 0.132
78.8551 0.300
78.8854 0.313
78.9157 -0.091
78.9460 0.130
78.9762 0.144
79.0065 -0.259
79.0368 -0.090
79.0671 -0.441
79.0974 0.118
79.1276 0.262
79.1579 0.302
79.1882 0.029
79.2185 0.174
79.2488 0.475
79.2790 0.308
79.3093 0.193
79.3396 0.079
79.3699 -0.087
79.4001 0.320
79.4304 0.207
79.4607 0.250
79.4910 -0.019
79.5213 0.130
79.5515 -0.243
79.5818 -0.250
79.6121 -0.103
79.6424 0.044
79.6727 0.139
79.7029 -0.078
79.7332 0.174
79.7635 0.010
79.7938 -0.258
79.8240 0.360
79.8543 0.353
79.8846 0.086
79.9149 0.184
79.9452 -0.602
79.9754 0.121
80.0057 -0.352
80.0360 -0.044
80.0663 -0.205
80.0966 -0.260
80.1268 0.093
80.1571 -0.075
80.1874 -0.190
80.2177 0.060
80.2479 0.102
80.2782 0.144
80.3085 -0.074
80.3388 0.021
80.3691 0.221
80.3993 -0.412
80.4296 0.309
80.4599 -0.115
80.4902 -0.331
80.5205 0.235
80.5507 -0.240
80.5810 -0.142
80.6113 0.061
80.6416 -0.049
80.6718 0.155
80.7021 -0.371
80.7324 -0.062
80.7627 -0.066
80.7930 -0.122
80.8232 0.448
80.8535 -0.075
80.8838 -0.078
80.9141 -0.132
80.9444 0.075
80.9746 -0.135
81.0049 -0.135
81.0352 0.125
81.0655 0.333
81.0957 -0.084
81.1260 0.802
81.1563 0.699
81.1866 0.336
81.2169 0.755
81.2471 0.913
81.2774 0.499
81.3077 0.918
81.3380 0.453
81.3683 0.509
81.3985 0.877
81.4288 0.361
81.4591 0.157
81.4894 0.110
81.5196 0.220
81.5499 0.695
81.5802 0.440
81.6105 0.655
81.6408 0.454
81.6710 0.253
81.7013 0.000
81.7316 0.269
81.7619 0.486
81.7922 0.130
81.8224 -0.173
81.8527 0.305
81.8830 0.159
81.9133 -0.143
81.9436 -0.237
81.9738 -0.069
82.0041 -0.110
82.0344 0.215
82.0647 -0.086
82.0949 -0.177
82.1252 -0.216
82.1555 -0.255
82.1858 0.212
82.2161 -0.102
82.2463 0.522
82.2766 0.364
82.3069 0.364
82.3372 -0.313
82.3675 0.469
82.3977 0.105
82.4280 -0.259
82.4583 0.159
82.4886 -0.099
82.5188 0.268
82.5491 0.114
82.5794 -0.248
82.6097 0.224
82.6400 0.124
82.6702 -0.705
82.7005 -0.024
82.7308 -0.227
82.7611 0.194
82.7914 -0.269
82.8216 0.154
82.8519 -0.100
82.8822 -0.250
82.9125 -0.044
82.9427 0.058
82.9730 -0.308
83.0033 0.211
83.0336 -0.415
83.0639 0.262
83.0941 -0.416
83.1244 -0.103
83.1547 -0.259
83.1850 0.159
83.2153 0.629
83.2455 -0.359
83.2758 -0.097
83.3061 -0.199
83.3364 0.273
83.3666 -0.141
83.3969 0.123
83.4272 0.231
83.4575 -0.441
83.4878 -0.180
83.5180 -0.232
83.5483 0.186
83.5786 -0.281
83.6089 0.190
83.6392 -0.120
83.6694 -0.118
83.6997 0.198
83.7300 0.358
83.7603 -0.107
83.7905 -0.415
83.8208 0.527
83.8511 -0.198
83.8814 -0.244
83.9117 0.122
83.9419 0.073
83.9722 -0.497
84.0025 0.079
84.0328 0.135
84.0631 0.660
84.0933 0.248
84.1236 0.357
84.1539 -0.107
84.1842 0.367
84.2144 0.478
84.2447 -0.558
84.2750 -0.239
84.3053 -0.131
84.3356 0.186
84.3658 0.347
84.3961 0.300
84.4264 0.722
84.4567 0.311
84.4870 -0.152
84.5172 -0.198
84.5475 -0.087
84.5778 0.077
84.6081 0.293
84.6383 -0.064
84.6686 0.257
84.6989 -0.047
84.7292 0.222
84.7595 0.336
84.7897 -0.227
84.8200 -0.388
84.8503 0.545
84.8806 0.072
84.9109 0.172
84.9411 0.742
84.9714 0.895
85.0017 0.163
85.0320 0.682
85.0623 0.315
85.0925 -0.259
85.1228 -0.263
85.1531 0.357
85.1834 0.562
85.2136 0.298
85.2439 -0.069
85.2742 -0.124
85.3045 0.238
85.3348 -0.076
85.3650 0.287
85.3953 -0.027
85.4256 0.129
85.4559 0.649
85.4862 -0.028
85.5164 0.233
85.5467 0.077
85.5770 -0.078
85.6073 -0.233
85.6375 -0.087
85.6678 0.216
85.6981 0.207
85.7284 -0.427
85.7587 0.137
85.7889 -0.079
85.8192 -0.087
85.8495 0.322
85.8798 0.315
85.9101 0.256
85.9403 -0.115
85.9706 0.504
86.0009 0.499
86.0312 0.181
86.0614 -0.032
86.0917 0.224
86.1220 -0.145
86.1523 -0.201
86.1826 0.213
86.2128 -0.207
86.2431 0.103
86.2734 0.153
86.3037 -0.161
86.3340 0.045
86.3642 -0.164
86.3945 -0.165
86.4248 0.095
86.4551 0.147
86.4853 -0.113
86.5156 -0.112
86.5459 -0.163
86.5762 0.308
86.6065 0.257
86.6367 -0.001
86.6670 -0.206
86.6973 -0.047
86.7276 0.269
86.7579 -0.144
86.7881 -0.244
86.8184 -0.199
86.8487 -0.048
86.8790 0.415
86.9092 0.045
86.9395 0.405
86.9698 -0.069
87.0001 -0.177
87.0304 0.496
87.0606 -0.184
87.0909 0.177
87.1212 -0.138
87.1515 0.329
87.1818 0.222
87.2120 -0.248
87.2423 -0.249
87.2726 -0.250
87.3029 -0.043
87.3331 -0.044
87.3634 0.319
87.3937 0.214
87.4240 0.006
87.4543 0.214
87.4845 -0.045
87.5148 -0.044
87.5451 -0.199
87.5754 -0.250
87.6057 -0.250
87.6359 0.254
87.6662 0.028
87.6965 -0.405
87.7268 0.724
87.7571 0.239
87.7873 -0.245
87.8176 -0.156
87.8479 0.037
87.8782 -0.186
87.9084 -0.043
87.9387 -0.266
87.9690 -0.228
87.9993 0.174
88.0296 0.004
88.0598 -0.322
88.0901 0.447
88.1204 0.122
88.1507 -0.047
88.1810 0.254
88.2112 -0.071
88.2415 0.022
88.2718 0.064
88.3021 -0.468
88.3323 -0.013
88.3626 0.025
88.3929 -0.196
88.4232 0.155
88.4535 -0.326
88.4837 0.078
88.5140 -0.142
88.5443 0.471
88.5746 -0.217
88.6049 0.241
88.6351 0.178
88.6654 0.481
88.6957 -0.206
88.7260 0.097
88.7562 -0.224
88.7865 0.080
88.8168 0.748
88.8471 0.324
88.8774 0.108
88.9076 0.674
88.9379 0.146
88.9682 -0.068
88.9985 -0.022
89.0288 0.493
89.0590 1.061
89.0893 1.004
89.1196 1.624
89.1499 1.516
89.1801 1.512
89.2104 0.780
89.2407 1.037
89.2710 1.139
89.3013 1.710
89.3315 1.760
89.3618 2.488
89.3921 3.111
89.4224 1.861
89.4527 1.756
89.4829 2.694
89.5132 2.121
89.5435 2.122
89.5738 1.967
89.6040 1.604
89.6343 2.283
89.6646 1.608
89.6949 2.600
89.7252 1.561
89.7554 1.669
89.7857 1.829
89.8160 2.041
89.8463 1.108
89.8766 0.801
89.9068 0.858
89.9371 0.759
89.9674 0.713
89.9977 0.616
90.0279 0.466
90.0582 0.473
90.0885 -0.144
90.1188 0.749
90.1491 0.132
90.1793 0.349
90.2096 0.254
90.2399 0.576
90.2702 -0.144
90.3005 -0.290
90.3307 -0.078
90.3610 0.238
90.3913 0.347
90.4216 -0.221
90.4518 0.357
90.4821 -0.055
90.5124 0.368
90.5427 0.114
90.5730 -0.348
90.6032 0.023
90.6335 -0.022
90.6638 -0.170
90.6941 0.046
90.7244 -0.154
90.7546 -0.145
90.7849 0.073
90.8152 0.030
90.8455 0.092
90.8758 0.154
90.9060 -0.564
90.9363 -0.032
90.9666 0.083
90.9969 -0.009
91.0271 0.055
91.0574 -0.036
91.0877 0.133
91.1180 -0.271
91.1483 -0.100
91.1785 -0.138
91.2088 -0.019
91.2391 -0.003
91.2694 0.325
91.2997 -0.076
91.3299 0.357
91.3602 0.739
91.3905 0.444
91.4208 0.201
91.4510 0.271
91.4813 0.081
91.5116 0.412
91.5419 0.431
91.5722 0.034
91.6024 -0.311
91.6327 -0.016
91.6630 0.540
91.6933 0.003
91.7236 0.195
91.7538 0.232
91.7841 -0.252
91.8144 -0.111
91.8447 -0.021
91.8749 0.485
91.9052 -0.206
91.9355 0.406
91.9658 0.393
91.9961 0.536
92.0263 -0.101
92.0566 0.043
92.0869 0.084
92.1172 0.229
92.1475 0.166
92.1777 0.155
92.2080 0.197
92.2383 0.500
92.2686 0.335
92.2988 0.378
92.3291 0.578
92.3594 0.830
92.3897 0.041
92.4200 0.450
92.4502 1.276
92.4805 0.124
92.5108 0.273
92.5411 0.632
92.5714 1.147
92.6016 0.569
92.6319 0.200
92.6622 0.872
92.6925 0.139
92.7227 1.541
92.7530 0.496
92.7833 0.806
92.8136 0.491
92.8439 1.322
92.8741 0.903
92.9044 1.110
92.9347 0.119
92.9650 0.431
92.9953 0.275
93.0255 -0.090
93.0558 -0.090
93.0861 0.224
93.1164 0.121
93.1466 -0.086
93.1769 0.489
93.2072 0.439
93.2375 0.598
93.2678 0.496
93.2980 -0.073
93.3283 -0.278
93.3586 0.403
93.3889 -0.009
93.4192 -0.056
93.4494 -0.311
93.4797 0.098
93.5100 -0.066
93.5403 -0.124
93.5706 0.286
93.6008 -0.345
93.6311 0.326
93.6614 0.269
93.6917 -0.048
93.7219 -0.418
93.7522 0.151
93.7825 -0.321
93.8128 0.457
93.8431 0.037
93.8733 0.086
93.9036 0.136
93.9339 -0.022
93.9642 -0.024
93.9945 -0.494
94.0247 0.064
94.0550 0.206
94.0853 0.035
94.1156 0.178
94.1458 0.112
94.1761 0.099
94.2064 -0.018
94.2367 0.178
94.2670 0.114
94.2972 0.102
94.3275 0.091
94.3578 0.393
94.3881 0.122
94.4184 0.216
94.4486 0.414
94.4789 0.718
94.5092 0.656
94.5395 0.075
94.5697 0.483
94.6000 0.163
94.6303 0.572
94.6606 0.461
94.6909 0.714
94.7211 0.968
94.7514 1.171
94.7817 0.748
94.8120 0.118
94.8423 0.530
94.8725 1.046
94.9028 1.459
94.9331 1.038
94.9634 0.983
94.9936 0.563
95.0239 1.810
95.0542 1.443
95.0845 2.119
95.1148 2.638
95.1450 2.064
95.1753 1.178
95.2056 1.646
95.2359 1.906
95.2662 1.750
95.2964 1.282
95.3267 1.023
95.3570 0.712
95.3873 1.807
95.4175 1.445
95.4478 1.447
95.4781 1.450
95.5084 1.610
95.5387 1.197
95.5689 1.253
95.5992 2.039
95.6295 0.846
95.6598 1.267
95.6901 1.169
95.7203 0.029
95.7506 1.285
95.7809 0.615
95.8112 0.361
95.8414 0.473
95.8717 0.377
95.9020 0.281
95.9323 0.341
95.9626 0.454
95.9928 0.724
96.0231 0.213
96.0534 0.379
96.0837 0.233
96.1140 0.348
96.1442 0.255
96.1745 0.267
96.2048 -0.399
96.2351 -0.178
96.2653 0.095
96.2956 -0.204
96.3259 -0.295
96.3562 0.343
96.3865 -0.111
96.4167 0.060
96.4470 -0.082
96.4773 -0.119
96.5076 -0.468
96.5379 0.159
96.5681 0.006
96.5984 0.269
96.6287 -0.041
96.6590 0.432
96.6893 0.071
96.7195 0.700
96.7498 -0.181
96.7801 -0.332
96.8104 0.246
96.8406 -0.008
96.8709 0.310
96.9012 -0.048
96.9315 0.376
96.9618 -0.659
96.9920 -0.130
97.0223 0.294
97.0526 0.251
97.0829 -0.262
97.1132 -0.148
97.1434 0.070
97.1737 -0.389
97.2040 -0.038
97.2343 -0.260
97.2645 -0.273
97.2948 0.183
97.3251 0.484
97.3554 -0.205
97.3857 -0.060
97.4159 -0.592
97.4462 0.335
97.4765 -0.092
97.5068 -0.154
97.5371 0.566
97.5673 -0.120
97.5976 -0.129
97.6279 0.071
97.6582 0.115
97.6884 0.472
97.7187 -0.108
97.7490 0.353
97.7793 0.503
97.8096 -0.388
97.8398 -0.290
97.8701 0.221
97.9004 0.264
97.9307 -0.057
97.9610 0.091
97.9912 0.396
98.0215 -0.654
98.0518 0.120
98.0821 0.426
98.1123 0.263
98.1426 0.205
98.1729 0.147
98.2032 1.184
98.2335 0.033
98.2637 0.549
98.2940 0.441
98.3243 0.801
98.3546 0.485
98.3849 0.847
98.4151 0.584
98.4454 1.206
98.4757 1.413
98.5060 0.317
98.5362 0.993
98.5665 0.211
98.5968 0.419
98.6271 0.783
98.6574 0.575
98.6876 0.680
98.7179 0.525
98.7482 1.099
98.7785 0.684
98.8088 0.530
98.8390 0.532
98.8693 -0.142
98.8996 0.226
98.9299 0.750
98.9601 0.442
98.9904 -0.439
99.0207 0.503
99.0510 0.352
99.0813 0.357
99.1115 -0.574
99.1418 0.630
99.1721 0.376
99.2024 -0.294
99.2327 -0.183
99.2629 -0.748
99.2932 0.510
99.3235 -0.158
99.3538 -0.045
99.3841 -0.088
99.4143 -0.027
99.4446 -0.225
99.4749 -0.423
99.5052 0.421
99.5354 -0.037
99.5657 0.079
99.5960 0.039
99.6263 -0.157
99.6566 0.220
99.6868 -0.028
99.7171 -0.067
99.7474 0.468
99.7777 0.274
99.8080 -0.441
99.8382 -0.166
99.8685 0.578
99.8988 0.125
99.9291 -0.067
99.9593 -0.415
99.9896 0.114
100.0199 0.175
100.0502 0.237
100.0805 0.351
100.1107 -0.420
100.1410 0.268
100.1713 -0.502
100.2016 -0.074
100.2319 -0.167
100.2621 0.106
100.2924 -0.038
100.3227 -0.389
100.3530 0.072
100.3832 0.378
100.4135 -0.567
100.4438 -0.260
100.4741 0.149
100.5044 0.299
100.5346 -0.020
100.5649 -0.026
100.5952 -0.135
100.6255 0.224
100.6558 0.167
100.6860 0.215
100.7163 0.523
100.7466 -0.522
100.7769 -0.056
100.8071 0.045
100.8374 -0.322
100.8677 0.040
100.8980 -0.222
100.9283 0.037
100.9585 -0.068
100.9888 0.452
101.0191 0.295
101.0494 -0.069
101.0797 0.348
101.1099 -0.068
101.1402 0.350
101.1705 -0.013
101.2008 0.562
101.2310 -0.529
101.2613 0.254
101.2916 -0.107
101.3219 -0.051
101.3522 -0.152
101.3824 0.634
101.4127 -0.039
101.4430 0.018
101.4733 0.701
101.5036 0.237
101.5338 0.296
101.5641 0.094
101.5944 0.048
101.6247 0.316
101.6549 0.376
101.6852 0.071
101.7155 -0.441
101.7458 -0.049
101.7761 -0.124
101.8063 0.113
101.8366 0.247
101.8669 0.224
101.8972 0.723
101.9275 0.128
101.9577 0.055
101.9880 -0.018
102.0183 0.326
102.0486 0.254
102.0788 0.546
102.1091 -0.098
102.1394 0.352
102.1697 -0.136
102.2000 0.679
102.2302 -0.068
102.2605 0.123
102.2908 -0.363
102.3211 0.454
102.3514 -0.136
102.3816 0.109
102.4119 0.093
102.4422 0.442
102.4725 -0.094
102.5028 0.309
102.5330 0.607
102.5633 0.072
102.5936 0.007
102.6239 0.410
102.6541 0.189
102.6844 0.021
102.7147 0.217
102.7450 0.726
102.7753 0.246
102.8055 -0.233
102.8358 0.381
102.8661 0.267
102.8964 0.205
102.9267 -0.221
102.9569 0.760
102.9872 0.178
103.0175 0.170
103.0478 0.214
103.0780 0.155
103.1083 0.200
103.1386 0.089
103.1689 0.499
103.1992 0.181
103.2294 0.279
103.2597 0.326
103.2900 0.478
103.3203 0.265
103.3506 -0.260
103.3808 0.569
103.4111 0.254
103.4414 -0.166
103.4717 0.092
103.5019 -0.379
103.5322 0.140
103.5625 0.242
103.5928 -0.123
103.6231 0.449
103.6533 0.813
103.6836 0.553
103.7139 1.074
103.7442 0.397
103.7745 0.555
103.8047 0.244
103.8350 0.766
103.8653 0.925
103.8956 1.709
103.9258 1.191
103.9561 1.298
103.9864 1.354
104.0167 1.879
104.0470 1.467
104.0772 0.951
104.1075 2.050
104.1378 1.326
104.1681 1.280
104.1984 2.016
104.2286 1.502
104.2589 1.353
104.2892 0.423
104.3195 0.222
104.3497 0.647
104.3800 1.333
104.4103 0.144
104.4406 0.882
104.4709 0.006
104.5011 0.589
104.5314 0.339
104.5617 0.350
104.5920 0.830
104.6223 0.269
104.6525 0.958
104.6828 -0.019
104.7131 0.202
104.7434 0.423
104.7736 -0.189
104.8039 0.554
104.8342 0.464
104.8645 0.271
104.8948 -0.287
104.9250 -0.324
104.9553 0.473
104.9856 0.176
105.0159 -0.224
105.0462 -0.363
105.0764 0.271
105.1067 0.021
105.1370 0.395
105.1673 0.302
105.1975 -0.468
105.2278 0.272
105.2581 -0.289
105.2884 0.296
105.3187 0.413
105.3489 0.686
105.3792 -0.394
105.4095 -0.276
105.4398 0.311
105.4701 0.012
105.5003 -0.337
105.5306 0.040
105.5609 0.677
105.5912 0.221
105.6215 -0.286
105.6517 -0.064
105.6820 -0.154
105.7123 0.173
105.7426 -0.177
105.7728 -0.266
105.8031 0.216
105.8334 0.438
105.8637 0.608
105.8940 -0.107
105.9242 -0.040
105.9545 -0.285
105.9848 0.085
106.0151 -0.274
106.0454 0.097
106.0756 0.052
106.1059 -0.045
106.1362 0.691
106.1665 -0.134
106.1967 -0.022
106.2270 -0.066
106.2573 0.516
106.2876 0.421
106.3179 0.691
106.3481 0.337
106.3784 -0.017
106.4087 0.254
106.4390 0.005
106.4693 -0.244
106.4995 -0.048
106.5298 0.045
106.5601 0.554
106.5904 0.179
106.6206 0.169
106.6509 0.992
106.6812 0.149
106.7115 -0.017
106.7418 0.599
106.7720 0.695
106.8023 0.218
106.8326 0.054
106.8629 0.567
106.8932 0.560
106.9234 -0.176
106.9537 0.443
106.9840 0.281
107.0143 -0.089
107.0445 0.374
107.0748 0.057
107.1051 -0.104
107.1354 -0.160
107.1657 0.514
107.1959 0.094
107.2262 -0.066
107.2565 0.296
107.2868 0.086
107.3171 0.292
107.3473 -0.282
107.3776 0.654
107.4079 0.029
107.4382 0.080
107.4684 -0.128
107.4987 0.029
107.5290 0.238
107.5593 -0.074
107.5896 0.605
107.6198 0.815
107.6501 0.713
107.6804 1.028
107.7107 0.094
107.7410 0.514
107.7712 -0.107
107.8015 0.105
107.8318 0.318
107.8621 0.531
107.8923 -0.036
107.9226 0.021
107.9529 -0.285
107.9832 0.029
108.0135 0.552
108.0437 -0.487
108.0740 0.297
108.1043 0.301
108.1346 0.148
108.1649 0.152
108.1951 0.000
108.2254 -0.255
108.2557 -0.216
108.2860 0.344
108.3163 0.384
108.3465 -0.097
108.3768 -0.056
108.4071 0.297
108.4374 0.026
108.4676 -0.089
108.4979 0.058
108.5282 -0.160
108.5585 -0.430
108.5888 0.394
108.6190 -0.135
108.6493 -0.039
108.6796 -0.099
108.7099 -0.002
108.7402 0.407
108.7704 0.348
108.8007 -0.127
108.8310 0.024
108.8613 -0.190
108.8915 -0.560
108.9218 0.268
108.9521 -0.361
108.9824 0.104
109.0127 0.308
109.0429 -0.320
109.0732 -0.167
109.1035 0.508
109.1338 -0.172
109.1641 -0.121
109.1943 0.450
109.2246 0.345
109.2549 -0.698
109.2852 0.292
109.3154 -0.490
109.3457 -0.177
109.3760 -0.124
109.4063 0.554
109.4366 -0.225
109.4668 -0.276
109.4971 -0.179
109.5274 0.022
109.5577 0.119
109.5880 0.008
109.6182 0.367
109.6485 0.725
109.6788 -0.270
109.7091 -0.171
109.7393 0.033
109.7696 0.029
109.7999 0.389
109.8302 -0.083
109.8605 0.435
109.8907 0.015
109.9210 0.794
109.9513 0.531
109.9816 0.582
110.0119 0.476
110.0421 0.736
110.0724 0.214
110.1027 0.266
110.1330 0.891
110.1632 0.735
110.1935 0.476
110.2238 0.165
110.2541 0.791
110.2844 0.845
110.3146 0.535
110.3449 0.226
110.3752 0.958
110.4055 0.493
110.4358 0.444
110.4660 0.969
110.4963 0.297
110.5266 -0.323
110.5569 0.620
110.5871 0.105
110.6174 0.111
110.6477 0.690
110.6780 0.176
110.7083 0.444
110.7385 0.920
110.7688 -0.009
110.7991 0.624
110.8294 0.216
110.8597 0.173
110.8899 0.391
110.9202 0.557
110.9505 -0.110
110.9808 0.213
111.0110 0.224
111.0413 -0.337
111.0716 -0.184
111.1019 0.126
111.1322 0.384
111.1624 0.799
111.1927 0.225
111.2230 0.484
111.2533 0.431
111.2836 0.379
111.3138 -0.038
111.3441 0.067
111.3744 0.432
111.4047 -0.035
111.4350 0.019
111.4652 0.437
111.4955 -0.029
111.5258 0.130
111.5561 0.029
111.5863 0.865
111.6166 -0.173
111.6469 0.352
111.6772 0.565
111.7075 0.206
111.7377 -0.310
111.7680 -0.044
111.7983 -0.090
111.8286 0.073
111.8589 -0.077
111.8891 -0.017
111.9194 0.615
111.9497 0.102
111.9800 -0.098
112.0102 0.328
112.0405 0.441
112.0708 0.138
112.1011 -0.009
112.1314 -0.415
112.1616 0.057
112.1919 -0.616
112.2222 0.066
112.2525 0.331
112.2828 -0.288
112.3130 0.082
112.3433 0.557
112.3736 -0.218
112.4039 0.310
112.4341 0.369
112.4644 0.064
112.4947 0.228
112.5250 -0.128
112.5553 -0.067
112.5855 0.619
112.6158 0.212
112.6461 0.586
112.6764 0.544
112.7067 0.450
112.7369 0.149
112.7672 0.473
112.7975 -0.141
112.8278 -0.181
112.8580 0.561
112.8883 0.209
112.9186 0.066
112.9489 -0.233
112.9792 -0.025
113.0094 0.079
113.0397 -0.285
113.0700 -0.041
113.1003 0.881
113.1306 -0.020
113.1608 0.590
113.1911 0.314
113.2214 0.248
113.2517 0.546
113.2819 -0.092
113.3122 0.103
113.3425 -0.483
113.3728 0.546
113.4031 0.325
113.4333 0.209
113.4636 -0.167
113.4939 0.031
113.5242 0.072
113.5545 0.166
113.5847 -0.261
113.6150 0.355
113.6453 0.137
113.6756 0.024
113.7058 0.485
113.7361 -0.148
113.7664 -0.260
113.7967 0.253
113.8270 -0.014
113.8572 0.188
113.8875 0.338
113.9178 0.176
113.9481 0.170
113.9784 -0.564
114.0086 0.160
114.0389 -0.052
114.0692 0.152
114.0995 0.148
114.1298 -0.480
114.1600 0.142
114.1903 -0.121
114.2206 0.346
114.2509 -0.541
114.2811 -0.126
114.3114 -0.023
114.3417 -0.440
114.3720 0.185
114.4023 0.133
114.4325 -0.075
114.4628 0.187
114.4931 0.396
114.5234 -0.279
114.5537 0.191
114.5839 0.194
114.6142 0.405
114.6445 -0.061
114.6748 -0.266
114.7050 -0.128
114.7353 -0.043
114.7656 0.095
114.7959 0.494
114.8262 0.112
114.8564 -0.166
114.8867 -0.026
114.9170 -0.042
114.9473 0.150
114.9776 -0.387
115.0078 0.067
115.0381 -0.156
115.0684 -0.119
115.0987 0.648
115.1289 0.062
115.1592 0.048
115.1895 -0.121
115.2198 -0.081
115.2501 0.948
115.2803 0.519
115.3106 0.143
115.3409 0.393
115.3712 0.121
115.4015 0.371
115.4317 0.257
115.4620 0.247
115.4923 0.342
115.5226 1.219
115.5528 0.585
115.5831 -0.152
115.6134 0.934
115.6437 0.510
115.6740 0.659
115.7042 0.600
115.7345 0.854
115.7648 0.692
115.7951 0.531
115.8254 1.202
115.8556 1.771
115.8859 0.933
115.9162 1.241
115.9465 1.185
115.9767 1.495
116.0070 1.179
116.0373 0.604
116.0676 1.487
116.0979 1.381
116.1281 1.432
116.1584 1.587
116.1887 1.690
116.2190 1.117
116.2493 1.377
116.2795 1.065
116.3098 1.483
116.3401 0.807
116.3704 2.163
116.4006 2.008
116.4309 0.969
116.4612 1.284
116.4915 1.548
116.5218 1.863
116.5520 1.086
116.5823 1.090
116.6126 0.209
116.6429 1.464
116.6732 1.469
116.7034 0.954
116.7337 0.544
116.7640 0.863
116.7943 0.140
116.8245 1.241
116.8548 0.259
116.8851 0.267
116.9154 0.379
116.9457 0.596
116.9759 0.137
117.0062 0.458
117.0365 0.416
117.0668 0.478
117.0971 0.020
117.1273 0.343
117.1576 0.251
117.1879 0.262
117.2182 -0.038
117.2485 1.276
117.2787 0.351
117.3090 0.364
117.3393 -0.039
117.3696 -0.494
117.3998 0.085
117.4301 0.196
117.4604 0.099
117.4907 0.210
117.5210 0.530
117.5512 0.070
117.5815 0.286
117.6118 -0.122
117.6421 0.252
117.6724 -0.520
117.7026 -0.202
117.7329 -0.196
117.7632 -0.138
117.7935 -0.027
117.8237 -0.177
117.8540 -0.065
117.8843 0.203
117.9146 0.211
117.9449 0.063
117.9751 -0.606
118.0054 0.185
118.0357 -0.014
118.0660 0.204
118.0963 0.162
118.1265 0.068
118.1568 -0.337
118.1871 -0.020
118.2174 0.088
118.2476 0.198
118.2779 0.151
118.3082 0.209
118.3385 -0.462
118.3688 0.482
118.3990 -0.136
118.4293 0.497
118.4596 0.140
118.4899 -0.113
118.5202 -0.260
118.5504 -0.058
118.5807 0.354
118.6110 -0.276
118.6413 0.084
118.6715 0.653
118.7018 0.285
118.7321 0.125
118.7624 -0.086
118.7927 -0.141
118.8229 0.274
118.8532 0.220
118.8835 0.114
118.9138 0.061
118.9441 0.581
118.9743 0.737
119.0046 -0.305
119.0349 0.008
119.0652 0.478
119.0954 -0.198
119.1257 0.012
119.1560 -0.247
119.1863 -0.244
119.2166 0.071
119.2468 -0.291
119.2771 0.129
119.3074 0.498
119.3377 0.293
119.3680 -0.119
119.3982 0.095
119.4285 0.152
119.4588 -0.415
119.4891 -0.111
119.5193 0.401
119.5496 0.393
119.5799 -0.239
119.6102 0.066
119.6405 0.008
119.6707 -0.259
119.7010 -0.057
119.7313 -0.062
119.7616 -0.068
119.7919 -0.072
119.8221 -0.598
119.8524 0.065
119.8827 0.311
119.9130 -0.016
119.9433 -0.290
119.9735 -0.015
120.0038 0.000
