'Id: "" Comment: "" Operator: "Lab Manager" Anode: "Cu" Scantype: "Locked Coupled" TimePerStep: "19.2" X: "9999" Y: "9999" Z: "9999" 
10.0015 0.000
10.0318 -0.991
10.0620 -0.956
10.0923 -0.322
10.1226 -1.458
10.1529 0.157
10.1832 -0.832
10.2134 -0.563
10.2437 0.228
10.2740 -0.700
10.3043 -0.326
10.3346 0.466
10.3648 0.424
10.3951 -0.190
10.4254 0.290
10.4557 -0.636
10.4859 -0.624
10.5162 0.089
10.5465 0.125
10.5768 2.089
10.6071 0.304
10.6373 -0.127
10.6676 0.483
10.6979 1.199
10.7282 1.811
10.7585 2.058
10.7887 1.629
10.8190 0.835
10.8493 2.907
10.8796 3.676
10.9098 4.759
10.9401 5.165
10.9704 9.061
11.0007 6.759
11.0310 7.114
11.0612 7.938
11.0915 6.418
11.1218 6.931
11.1521 6.870
11.1824 4.831
11.2126 7.428
11.2429 7.264
11.2732 8.351
11.3035 11.261
11.3337 12.766
11.3640 23.073
11.3943 28.536
11.4246 40.302
11.4549 55.974
11.4851 62.064
11.5154 69.664
11.5457 67.525
11.5760 66.324
11.6063 56.217
11.6365 47.829
11.6668 36.369
11.6971 28.138
11.7274 23.658
11.7577 21.678
11.7879 19.698
11.8182 16.000
11.8485 15.271
11.8788 12.511
11.9090 11.210
11.9393 8.607
11.9696 8.348
11.9999 7.621
12.0302 5.279
12.0604 3.928
12.0907 5.702
12.1210 2.476
12.1513 3.521
12.1816 2.953
12.2118 0.926
12.2421 2.806
12.2724 0.780
12.3027 0.369
12.3329 1.364
12.3632 0.381
12.3935 -0.498
12.4238 0.447
12.4541 0.454
12.4843 0.566
12.5146 0.106
12.5449 0.270
12.5752 -0.033
12.6055 0.080
12.6357 -0.535
12.6660 0.569
12.6963 -0.775
12.7266 -0.400
12.7568 -0.181
12.7871 -0.429
12.8174 -0.310
12.8477 -0.347
12.8780 -0.175
12.9082 0.050
12.9385 0.431
12.9688 0.292
12.9991 -0.316
13.0294 0.483
13.0596 0.345
13.0899 0.155
13.1202 0.694
13.1505 0.401
13.1807 0.056
13.2110 0.388
13.2413 0.148
13.2716 0.169
13.3019 -0.227
13.3321 0.159
13.3624 0.545
13.3927 1.244
13.4230 1.163
13.4533 -0.169
13.4835 -0.094
13.5138 -0.018
13.5441 0.422
13.5744 0.395
13.6046 0.003
13.6349 0.392
13.6652 -0.520
13.6955 0.443
13.7258 0.105
13.7560 -0.598
13.7863 -0.076
13.8166 -0.283
13.8469 0.083
13.8772 0.085
13.9074 -0.225
13.9377 1.340
13.9680 0.093
13.9983 -0.112
14.0285 -0.212
14.0588 -0.312
14.0891 -0.047
14.1194 0.010
14.1497 0.171
14.1799 0.229
14.2102 -0.494
14.2405 -0.183
14.2708 -0.131
14.3011 0.337
14.3313 1.431
14.3616 0.285
14.3919 0.390
14.4222 0.495
14.4524 0.393
14.4827 1.280
14.5130 0.501
14.5433 1.128
14.5736 2.173
14.6038 1.916
14.6341 2.649
14.6644 2.444
14.6947 1.980
14.7250 2.662
14.7552 3.604
14.7855 2.672
14.8158 2.730
14.8461 3.674
14.8764 3.316
14.9066 1.500
14.9369 3.278
14.9672 2.139
14.9975 2.408
15.0277 0.593
15.0580 1.540
15.0883 1.392
15.1186 1.246
15.1489 2.193
15.1791 0.068
15.2094 0.443
15.2397 0.870
15.2700 -0.108
15.3003 0.789
15.3305 0.437
15.3608 -0.072
15.3911 0.514
15.4214 0.266
15.4516 0.332
15.4819 0.242
15.5122 0.204
15.5425 0.166
15.5728 -0.340
15.6030 -0.116
15.6333 -0.205
15.6636 -0.084
15.6939 -0.485
15.7242 0.209
15.7544 -0.347
15.7847 0.348
15.8150 0.210
15.8453 -0.501
15.8755 0.403
15.9058 0.057
15.9361 -0.236
15.9664 0.669
15.9967 -0.145
16.0269 -0.332
16.0572 0.470
16.0875 0.230
16.1178 -0.165
16.1481 0.013
16.1783 0.452
16.2086 0.162
16.2389 -0.648
16.2692 0.208
16.2994 -0.289
16.3297 0.048
16.3600 0.333
16.3903 0.930
16.4206 0.487
16.4508 0.356
16.4811 -0.087
16.5114 -0.321
16.5417 -0.171
16.5720 0.187
16.6022 0.129
16.6325 0.905
16.6628 -0.246
16.6931 0.686
16.7233 0.265
16.7536 0.574
16.7839 0.309
16.8142 0.931
16.8445 0.147
16.8747 0.978
16.9050 1.548
16.9353 0.401
16.9656 0.191
16.9959 0.450
17.0261 0.658
17.0564 0.501
17.0867 0.657
17.1170 -0.072
17.1472 1.231
17.1775 0.034
17.2078 0.660
17.2381 0.298
17.2684 -0.169
17.2986 0.615
17.3289 -0.372
17.3592 0.100
17.3895 -0.053
17.4198 0.055
17.4500 0.476
17.4803 -0.144
17.5106 -0.139
17.5409 0.127
17.5712 -0.076
17.6014 -0.278
17.6317 0.302
17.6620 0.152
17.6923 -0.257
17.7225 0.480
17.7528 -0.085
17.7831 -0.494
17.8134 0.132
17.8437 0.185
17.8739 -0.126
17.9042 0.710
17.9345 0.035
17.9648 0.506
17.9951 0.509
18.0253 -0.164
18.0556 -0.317
18.0859 -0.054
18.1162 -0.051
18.1464 0.629
18.1767 -0.252
18.2070 0.221
18.2373 0.069
18.2676 0.178
18.2978 0.079
18.3281 0.292
18.3584 0.194
18.3887 -0.685
18.4190 0.207
18.4492 -0.880
18.4795 0.690
18.5098 -0.084
18.5401 0.445
18.5703 0.245
18.6006 -0.006
18.6309 0.107
18.6612 -0.300
18.6915 0.491
18.7217 -0.228
18.7520 0.720
18.7823 0.106
18.8126 -0.039
18.8429 0.181
18.8731 0.558
18.9034 0.362
18.9337 0.062
18.9640 0.336
18.9942 0.349
19.0245 0.519
19.0548 0.013
19.0851 -0.494
19.1154 0.028
19.1456 0.133
19.1759 0.343
19.2062 -0.020
19.2365 0.346
19.2668 0.505
19.2970 0.300
19.3273 1.084
19.3576 -0.163
19.3879 -0.002
19.4181 0.939
19.4484 -0.098
19.4787 1.261
19.5090 -0.192
19.5393 -0.290
19.5695 -0.139
19.5998 -0.040
19.6301 0.319
19.6604 0.471
19.6907 0.936
19.7209 0.151
19.7512 0.303
19.7815 0.300
19.8118 0.141
19.8420 0.087
19.8723 0.293
19.9026 0.813
19.9329 0.759
19.9632 0.394
19.9934 0.758
20.0237 0.862
20.0540 0.498
20.0843 0.186
20.1146 0.239
20.1448 0.865
20.1751 0.606
20.2054 -0.069
20.2357 0.142
20.2659 -0.063
20.2962 1.763
20.3265 0.099
20.3568 0.676
20.3871 0.003
20.4173 0.112
20.4476 0.430
20.4779 0.435
20.5082 -0.132
20.5385 0.551
20.5687 0.089
20.5990 -0.321
20.6293 0.207
20.6596 0.371
20.6899 0.535
20.7201 0.230
20.7504 0.291
20.7807 0.613
20.8110 -0.003
20.8412 0.736
20.8715 0.121
20.9018 -0.285
20.9321 -0.087
20.9624 1.205
20.9926 0.363
21.0229 0.302
21.0532 0.449
21.0835 0.858
21.1138 0.277
21.1440 1.363
21.1743 0.887
21.2046 1.818
21.2349 1.447
21.2651 1.649
21.2954 1.175
21.3257 0.544
21.3560 0.748
21.3863 0.535
21.4165 0.218
21.4468 -0.567
21.4771 0.211
21.5074 -0.209
21.5377 0.673
21.5679 0.463
21.5982 0.044
21.6285 0.303
21.6588 -0.063
21.6890 0.196
21.7193 -0.482
21.7496 0.404
21.7799 -0.169
21.8102 0.040
21.8404 -0.324
21.8707 0.094
21.9010 0.148
21.9313 0.462
21.9616 0.621
21.9918 -0.262
22.0221 0.262
22.0524 0.578
22.0827 0.061
22.1129 0.221
22.1432 0.017
22.1735 -0.134
22.2038 -0.337
22.2341 0.177
22.2643 0.535
22.2946 0.373
22.3249 0.159
22.3552 0.362
22.3855 -0.059
22.4157 0.405
22.4460 -0.016
22.4763 0.501
22.5066 0.290
22.5368 -0.078
22.5671 -0.185
22.5974 0.230
22.6277 0.019
22.6580 -0.295
22.6882 -0.105
22.7185 -0.385
22.7488 0.535
22.7791 -0.004
22.8094 0.447
22.8396 -0.300
22.8699 0.465
22.9002 -0.125
22.9305 -0.089
22.9607 -0.313
22.9910 0.245
23.0213 0.490
23.0516 0.319
23.0819 0.252
23.1121 0.968
23.1424 0.902
23.1727 2.503
23.2030 3.584
23.2333 2.895
23.2635 2.570
23.2938 3.339
23.3241 3.849
23.3544 3.577
23.3846 2.577
23.4149 2.983
23.4452 3.598
23.4755 2.443
23.5058 2.902
23.5360 1.904
23.5663 2.520
23.5966 1.418
23.6269 2.036
23.6572 1.091
23.6874 0.719
23.7177 -0.121
23.7480 0.966
23.7783 1.065
23.8086 0.694
23.8388 0.898
23.8691 1.101
23.8994 0.784
23.9297 1.040
23.9599 1.193
23.9902 0.981
24.0205 0.145
24.0508 1.027
24.0811 0.348
24.1113 -0.071
24.1416 0.032
24.1719 0.760
24.2022 0.030
24.2325 1.384
24.2627 0.863
24.2930 1.592
24.3233 1.280
24.3536 0.969
24.3838 0.970
24.4141 -0.122
24.4444 0.609
24.4747 0.351
24.5050 0.406
24.5352 0.201
24.5655 0.413
24.5958 0.521
24.6261 0.369
24.6564 0.477
24.6866 0.222
24.7169 0.384
24.7472 0.337
24.7775 0.708
24.8077 0.141
24.8380 0.304
24.8683 -0.261
24.8986 0.944
24.9289 0.952
24.9591 0.908
24.9894 0.656
25.0197 0.509
25.0500 0.779
25.0803 0.580
25.1105 0.799
25.1408 0.653
25.1711 0.560
25.2014 0.727
25.2316 0.791
25.2619 0.803
25.2922 -0.175
25.3225 0.567
25.3528 0.580
25.3830 0.489
25.4133 0.763
25.4436 0.153
25.4739 -0.093
25.5042 -0.287
25.5344 0.353
25.5647 0.421
25.5950 0.333
25.6253 -0.068
25.6555 -0.103
25.6858 0.591
25.7161 0.088
25.7464 -0.468
25.7767 -0.068
25.8069 -0.084
25.8372 -0.204
25.8675 -0.220
25.8978 -0.131
25.9281 -0.041
25.9583 0.309
25.9886 0.295
26.0189 0.125
26.0492 -0.097
26.0794 0.098
26.1097 -0.175
26.1400 0.334
26.1703 0.270
26.2006 1.612
26.2308 1.497
26.2611 1.330
26.2914 1.476
26.3217 2.716
26.3520 3.175
26.3822 2.697
26.4125 2.219
26.4428 1.585
26.4731 2.931
26.5034 2.402
26.5336 3.020
26.5639 3.742
26.5942 2.537
26.6245 2.635
26.6547 3.202
26.6850 2.206
26.7153 1.680
26.7456 1.206
26.7759 0.837
26.8061 1.093
26.8364 2.027
26.8667 1.451
26.8970 1.239
26.9273 2.018
26.9575 1.286
26.9878 2.430
27.0181 1.386
27.0484 1.281
27.0786 0.551
27.1089 0.967
27.1392 0.914
27.1695 0.654
27.1998 1.384
27.2300 0.343
27.2603 0.761
27.2906 0.242
27.3209 -0.329
27.3512 -0.228
27.3814 0.395
27.4117 0.862
27.4420 1.381
27.4723 -0.027
27.5025 0.337
27.5328 0.649
27.5631 1.014
27.5934 0.493
27.6237 0.233
27.6539 0.078
27.6842 0.132
27.7145 0.498
27.7448 0.708
27.7751 0.502
27.8053 1.026
27.8356 0.769
27.8659 1.085
27.8962 1.401
27.9264 0.728
27.9567 1.306
27.9870 -0.043
28.0173 0.535
28.0476 0.228
28.0778 0.964
28.1081 0.241
28.1384 -0.325
28.1687 -0.214
28.1990 0.470
28.2292 0.112
28.2595 0.380
28.2898 -0.237
28.3201 0.136
28.3503 0.197
28.3806 -0.314
28.4109 0.060
28.4412 0.434
28.4715 0.601
28.5017 -0.430
28.5320 -0.107
28.5623 -0.356
28.5926 0.177
28.6229 -0.384
28.6531 0.149
28.6834 -0.151
28.7137 0.071
28.7440 0.032
28.7742 -0.423
28.8045 0.321
28.8348 0.075
28.8651 -0.223
28.8954 -0.311
28.9256 0.272
28.9559 -0.291
28.9862 0.189
29.0165 0.044
29.0468 0.733
29.0770 -0.192
29.1073 0.497
29.1376 0.145
29.1679 0.054
29.1981 -0.141
29.2284 0.082
29.2587 0.252
29.2890 0.162
29.3193 -0.291
29.3495 0.974
29.3798 0.156
29.4101 -0.140
29.4404 0.085
29.4707 0.622
29.5009 0.067
29.5312 -0.280
29.5615 -0.147
29.5918 0.352
29.6221 0.226
29.6523 0.517
29.6826 0.288
29.7129 0.580
29.7432 -0.065
29.7734 -0.294
29.8037 0.312
29.8340 0.084
29.8643 -0.299
29.8946 -0.171
29.9248 -0.043
29.9551 0.711
29.9854 -0.515
30.0157 0.656
30.0460 -0.256
30.0762 0.499
30.1065 0.057
30.1368 1.125
30.1671 0.215
30.1973 -0.227
30.2276 0.009
30.2579 0.350
30.2882 0.795
30.3185 0.355
30.3487 0.176
30.3790 0.101
30.4093 -0.390
30.4396 -0.046
30.4699 0.089
30.5001 0.954
30.5304 0.569
30.5607 0.341
30.5910 0.477
30.6212 0.510
30.6515 0.231
30.6818 0.265
30.7121 0.871
30.7424 0.072
30.7726 0.888
30.8029 0.194
30.8332 1.740
30.8635 2.453
30.8938 1.187
30.9240 1.015
30.9543 2.094
30.9846 1.975
31.0149 2.638
31.0451 1.842
31.0754 1.672
31.1057 3.013
31.1360 3.886
31.1663 3.977
31.1965 4.746
31.2268 5.255
31.2571 7.275
31.2874 7.160
31.3177 9.128
31.3479 11.409
31.3782 14.628
31.4085 16.181
31.4388 17.682
31.4690 23.507
31.4993 23.550
31.5296 30.834
31.5599 33.326
31.5902 32.641
31.6204 31.853
31.6507 30.179
31.6810 28.662
31.7113 23.813
31.7416 20.317
31.7718 16.927
31.8021 13.276
31.8324 11.553
31.8627 11.080
31.8929 8.524
31.9232 7.895
31.9535 6.954
31.9838 5.754
32.0141 4.397
32.0443 5.333
32.0746 4.394
32.1049 2.934
32.1352 3.558
32.1655 2.776
32.1957 2.724
32.2260 2.984
32.2563 1.891
32.2866 1.788
32.3169 1.685
32.3471 1.478
32.3774 1.532
32.4077 0.858
32.4380 0.704
32.4682 -0.491
32.4985 0.502
32.5288 -0.067
32.5591 0.510
32.5894 0.671
32.6196 2.290
32.6499 1.723
32.6802 1.728
32.7105 2.255
32.7408 3.460
32.7710 1.747
32.8013 1.494
32.8316 2.022
32.8619 0.832
32.8921 0.268
32.9224 -0.088
32.9527 1.066
32.9830 -0.383
33.0133 0.721
33.0435 0.314
33.0738 -0.405
33.1041 0.231
33.1344 0.346
33.1647 -0.267
33.1949 -0.933
33.2252 0.798
33.2555 0.394
33.2858 -0.218
33.3160 -0.361
33.3463 -0.660
33.3766 0.552
33.4069 -0.111
33.4372 0.008
33.4674 -0.498
33.4977 0.350
33.5280 -0.988
33.5583 0.069
33.5886 0.034
33.6188 -0.106
33.6491 -0.349
33.6794 -0.004
33.7097 0.654
33.7399 -0.042
33.7702 0.304
33.8005 0.391
33.8308 -0.460
33.8611 0.460
33.8913 0.912
33.9216 0.739
33.9519 1.296
33.9822 0.187
34.0125 2.046
34.0427 2.656
34.0730 2.954
34.1033 4.034
34.1336 6.312
34.1638 11.246
34.1941 12.639
34.2244 16.689
34.2547 14.905
34.2850 14.216
34.3152 10.923
34.3455 10.235
34.3758 6.891
34.4061 3.859
34.4364 4.630
34.4666 1.704
34.4969 2.111
34.5272 1.268
34.5575 0.895
34.5877 0.782
34.6180 1.608
34.6483 1.860
34.6786 1.905
34.7089 0.804
34.7391 0.642
34.7694 1.208
34.7997 1.567
34.8300 1.874
34.8603 3.483
34.8905 1.604
34.9208 2.849
34.9511 2.376
34.9814 3.883
35.0116 2.526
35.0419 1.064
35.0722 1.999
35.1025 1.841
35.1328 1.006
35.1630 1.525
35.1933 0.222
35.2236 1.315
35.2539 0.793
35.2842 0.168
35.3144 2.513
35.3447 1.263
35.3750 1.785
35.4053 1.891
35.4356 1.424
35.4658 2.520
35.4961 1.428
35.5264 2.317
35.5567 2.685
35.5869 3.574
35.6172 3.578
35.6475 3.946
35.6778 5.878
35.7081 7.602
35.7383 5.628
35.7686 8.082
35.7989 8.505
35.8292 12.834
35.8595 13.206
35.8897 14.724
35.9200 20.252
35.9503 21.406
35.9806 24.643
36.0108 29.548
36.0411 29.453
36.0714 34.618
36.1017 34.576
36.1320 33.076
36.1622 29.232
36.1925 25.806
36.2228 22.952
36.2531 18.016
36.2834 15.528
36.3136 13.561
36.3439 10.241
36.3742 10.410
36.4045 8.444
36.4347 7.625
36.4650 5.712
36.4953 4.737
36.5256 3.919
36.5559 3.569
36.5861 2.283
36.6164 2.768
36.6467 3.097
36.6770 0.770
36.7073 1.516
36.7375 1.690
36.7678 2.384
36.7981 0.996
36.8284 1.380
36.8586 0.617
36.8889 0.897
36.9192 0.760
36.9495 0.572
36.9798 1.165
37.0100 0.405
37.0403 0.478
37.0706 0.447
37.1009 0.105
37.1312 -0.081
37.1614 0.410
37.1917 0.329
37.2220 0.300
37.2523 -0.249
37.2825 -0.329
37.3128 -0.464
37.3431 0.756
37.3734 0.517
37.4037 -0.189
37.4339 -0.010
37.4642 0.326
37.4945 0.089
37.5248 0.373
37.5551 -0.071
37.5853 0.318
37.6156 -0.177
37.6459 -0.308
37.6762 -0.289
37.7064 -0.269
37.7367 0.428
37.7670 0.240
37.7973 1.042
37.8276 -0.030
37.8578 -0.061
37.8881 -0.404
37.9184 0.296
37.9487 -0.567
37.9790 0.341
38.0092 -0.260
38.0395 0.232
38.0698 -0.004
38.1001 0.072
38.1304 0.045
38.1606 0.643
38.1909 -0.165
38.2212 -0.243
38.2515 -0.009
38.2817 0.487
38.3120 0.149
38.3423 0.854
38.3726 0.100
38.4029 0.284
38.4331 0.053
38.4634 0.290
38.4937 0.319
38.5240 0.505
38.5543 -0.195
38.5845 0.044
38.6148 -0.082
38.6451 -0.259
38.6754 0.101
38.7056 0.305
38.7359 0.093
38.7662 0.610
38.7965 0.294
38.8268 -0.281
38.8570 0.237
38.8873 -0.026
38.9176 0.129
38.9479 0.023
38.9782 -0.082
39.0084 -0.239
39.0387 -0.136
39.0690 0.227
39.0993 0.070
39.1295 0.694
39.1598 0.329
39.1901 -0.192
39.2204 0.694
39.2507 0.226
39.2809 0.435
39.3112 -0.136
39.3415 -0.342
39.3718 0.597
39.4021 0.131
39.4323 0.238
39.4626 0.242
39.4929 -0.484
39.5232 0.145
39.5534 0.202
39.5837 0.623
39.6140 0.160
39.6443 0.217
39.6746 -0.194
39.7048 0.073
39.7351 -0.233
39.7654 -0.233
39.7957 -0.140
39.8260 -0.046
39.8562 -0.109
39.8865 -0.119
39.9168 -0.129
39.9471 0.279
39.9773 -0.043
40.0076 0.209
40.0379 -0.476
40.0682 -0.119
40.0985 -0.179
40.1287 -0.082
40.1590 0.067
40.1893 -0.095
40.2196 0.003
40.2499 -0.159
40.2801 0.252
40.3104 0.456
40.3407 0.035
40.3710 0.030
40.4012 0.079
40.4315 0.388
40.4618 -0.084
40.4921 -0.035
40.5224 0.223
40.5526 1.419
40.5829 0.532
40.6132 0.687
40.6435 0.217
40.6738 0.477
40.7040 0.998
40.7343 0.165
40.7646 0.790
40.7949 1.156
40.8251 0.532
40.8554 0.690
40.8857 0.379
40.9160 0.121
40.9463 0.437
40.9765 -0.029
41.0068 -0.078
41.0371 -0.074
41.0674 0.607
41.0977 0.716
41.1279 -0.269
41.1582 0.883
41.1885 -0.258
41.2188 0.217
41.2491 0.536
41.2793 -0.343
41.3096 -0.336
41.3399 0.818
41.3702 0.096
41.4004 -0.052
41.4307 0.217
41.4610 -0.086
41.4913 0.027
41.5216 0.349
41.5518 0.203
41.5821 0.109
41.6124 0.068
41.6427 0.444
41.6730 0.820
41.7032 -0.054
41.7335 0.323
41.7638 0.075
41.7941 0.192
41.8243 -0.211
41.8546 0.271
41.8849 -0.183
41.9152 -0.221
41.9455 0.192
41.9757 0.293
42.0060 0.186
42.0363 0.184
42.0666 0.599
42.0969 0.128
42.1271 -0.029
42.1574 -0.030
42.1877 0.021
42.2180 0.281
42.2482 -0.500
42.2785 0.074
42.3088 0.439
42.3391 0.336
42.3694 -0.079
42.3996 -0.233
42.4299 0.134
42.4602 0.137
42.4905 0.089
42.5208 0.145
42.5510 -0.424
42.5813 -0.055
42.6116 0.731
42.6419 -0.097
42.6721 0.273
42.7024 0.435
42.7327 -0.131
42.7630 0.344
42.7933 0.091
42.8235 -0.058
42.8538 -0.259
42.8841 0.104
42.9144 0.050
42.9447 0.049
42.9749 0.152
43.0052 0.569
43.0355 -0.004
43.0658 -0.108
43.0960 0.413
43.1263 0.779
43.1566 0.155
43.1869 0.157
43.2172 -0.466
43.2474 0.422
43.2777 0.321
43.3080 0.272
43.3383 0.119
43.3686 0.332
43.3988 0.284
43.4291 0.028
43.4594 0.033
43.4897 0.195
43.5199 0.513
43.5502 0.155
43.5805 0.734
43.6108 0.116
43.6411 0.592
43.6713 0.547
43.7016 -0.226
43.7319 0.043
43.7622 -0.001
43.7925 0.165
43.8227 -0.086
43.8530 -0.337
43.8833 0.121
43.9136 -0.202
43.9439 -0.004
43.9741 -0.274
44.0044 0.081
44.0347 -0.189
44.0650 -0.094
44.0952 -0.102
44.1255 0.098
44.1558 0.403
44.1861 -0.021
44.2164 0.024
44.2466 0.226
44.2769 0.688
44.3072 0.630
44.3375 0.156
44.3678 0.255
44.3980 0.354
44.4283 0.298
44.4586 -0.123
44.4889 0.446
44.5191 0.235
44.5494 0.753
44.5797 0.542
44.6100 0.383
44.6403 0.069
44.6705 0.015
44.7008 0.795
44.7311 0.222
44.7614 0.586
44.7917 0.534
44.8219 0.430
44.8522 0.326
44.8825 1.005
44.9128 0.225
44.9430 0.435
44.9733 -0.032
45.0036 0.492
45.0339 0.130
45.0642 0.185
45.0944 0.501
45.1247 0.193
45.1550 0.614
45.1853 0.514
45.2156 0.623
45.2458 0.316
45.2761 0.583
45.3064 0.433
45.3367 0.283
45.3669 0.185
45.3972 0.505
45.4275 -0.112
45.4578 -0.208
45.4881 0.150
45.5183 -0.169
45.5486 0.555
45.5789 0.237
45.6092 -0.028
45.6395 0.279
45.6697 0.171
45.7000 0.428
45.7303 0.789
45.7606 0.004
45.7908 -0.571
45.8211 0.032
45.8514 0.115
45.8817 -0.218
45.9120 -0.030
45.9422 0.367
45.9725 -0.069
46.0028 -0.193
46.0331 -0.003
46.0634 0.291
46.0936 0.012
46.1239 0.099
46.1542 0.185
46.1845 -0.092
46.2147 0.725
46.2450 0.136
46.2753 0.015
46.3056 0.729
46.3359 0.089
46.3661 0.386
46.3964 -0.149
46.4267 -0.059
46.4570 0.500
46.4873 -0.242
46.5175 -0.255
46.5478 -0.478
46.5781 0.341
46.6084 -0.037
46.6386 0.470
46.6689 -0.064
46.6992 0.028
46.7295 0.120
46.7598 0.577
46.7900 -0.112
46.8203 0.293
46.8506 0.751
46.8809 0.272
46.9112 -0.155
46.9414 0.513
46.9717 0.243
47.0020 0.650
47.0323 0.642
47.0626 1.154
47.0928 0.365
47.1231 0.982
47.1534 0.715
47.1837 1.698
47.2139 2.004
47.2442 1.997
47.2745 1.627
47.3048 2.663
47.3351 2.450
47.3653 2.966
47.3956 2.493
47.4259 2.125
47.4562 2.798
47.4865 1.701
47.5167 1.334
47.5470 1.227
47.5773 0.861
47.6076 0.755
47.6378 1.795
47.6681 1.169
47.6984 0.439
47.7287 0.335
47.7590 0.960
47.7892 0.491
47.8195 0.701
47.8498 0.598
47.8801 0.235
47.9104 0.653
47.9406 -0.022
47.9709 -0.279
48.0012 0.453
48.0315 0.560
48.0617 0.824
48.0920 0.308
48.1223 0.104
48.1526 0.161
48.1829 -0.355
48.2131 0.380
48.2434 0.177
48.2737 -0.025
48.3040 0.190
48.3343 -0.115
48.3645 -0.108
48.3948 -0.204
48.4251 -0.092
48.4554 0.073
48.4856 0.446
48.5159 -0.326
48.5462 0.048
48.5765 0.371
48.6068 0.017
48.6370 -0.285
48.6673 0.023
48.6976 0.437
48.7279 0.069
48.7582 0.275
48.7884 0.116
48.8187 0.479
48.8490 0.529
48.8793 0.580
48.9095 1.100
48.9398 0.370
48.9701 0.682
49.0004 0.266
49.0307 0.371
49.0609 0.268
49.0912 0.529
49.1215 0.531
49.1518 0.950
49.1821 1.056
49.2123 0.694
49.2426 0.385
49.2729 0.909
49.3032 0.392
49.3334 -0.176
49.3637 0.036
49.3940 -0.011
49.4243 0.932
49.4546 0.157
49.4848 0.006
49.5151 0.742
49.5454 0.592
49.5757 0.079
49.6060 0.242
49.6362 -0.166
49.6665 0.259
49.6968 0.267
49.7271 0.120
49.7574 0.337
49.7876 0.347
49.8179 0.566
49.8482 0.003
49.8785 0.483
49.9087 0.442
49.9390 0.141
49.9693 0.205
49.9996 0.790
50.0299 0.334
50.0601 0.138
50.0904 0.152
50.1207 0.686
50.1510 0.283
50.1813 -0.015
50.2115 -0.104
50.2418 0.119
50.2721 0.031
50.3024 0.463
50.3326 0.063
50.3629 -0.233
50.3932 -0.129
50.4235 -0.233
50.4538 -0.233
50.4840 0.179
50.5143 -0.034
50.5446 0.638
50.5749 -0.407
50.6052 0.006
50.6354 0.315
50.6657 0.364
50.6960 0.361
50.7263 0.359
50.7565 -0.059
50.7868 0.252
50.8171 -0.010
50.8474 0.198
50.8777 -0.115
50.9079 0.198
50.9382 -0.271
50.9685 0.303
50.9988 -0.061
51.0291 -0.059
51.0593 0.151
51.0896 0.153
51.1199 0.104
51.1502 0.054
51.1804 0.058
51.2107 0.218
51.2410 -0.299
51.2713 0.122
51.3016 -0.082
51.3318 -0.233
51.3621 -0.083
51.3924 0.068
51.4227 -0.145
51.4530 -0.202
51.4832 0.106
51.5135 0.363
51.5438 0.151
51.5741 -0.061
51.6043 -0.064
51.6346 0.350
51.6649 0.713
51.6952 0.242
51.7255 -0.124
51.7557 0.344
51.7860 0.447
51.8163 0.551
51.8466 -0.126
51.8769 0.030
51.9071 0.239
51.9374 0.293
51.9677 0.554
51.9980 -0.173
52.0282 0.350
52.0585 0.092
52.0888 0.460
52.1191 -0.422
52.1494 0.415
52.1796 -0.206
52.2099 0.215
52.2402 0.011
52.2705 -0.088
52.3008 -0.135
52.3310 -0.233
52.3613 -0.136
52.3916 -0.090
52.4219 -0.148
52.4521 -0.154
52.4824 0.413
52.5127 0.043
52.5430 -0.326
52.5733 0.295
52.6035 -0.022
52.6338 0.183
52.6641 -0.602
52.6944 0.281
52.7247 0.434
52.7549 0.068
52.7852 -0.090
52.8155 0.012
52.8458 0.167
52.8761 0.219
52.9063 -0.094
52.9366 -0.355
52.9669 0.167
52.9972 -0.145
53.0274 -0.405
53.0577 0.326
53.0880 -0.141
53.1183 0.070
53.1486 0.072
53.1788 0.388
53.2091 0.287
53.2394 0.082
53.2697 0.451
53.3000 -0.118
53.3302 0.095
53.3605 0.152
53.3908 -0.467
53.4211 -0.102
53.4513 -0.205
53.4816 -0.048
53.5119 -0.046
53.5422 -0.305
53.5725 0.687
53.6027 -0.091
53.6330 -0.036
53.6633 -0.085
53.6936 0.023
53.7239 0.079
53.7541 -0.177
53.7844 -0.172
53.8147 -0.166
53.8450 -0.161
53.8752 -0.155
53.9055 -0.044
53.9358 0.275
53.9661 0.074
53.9964 -0.127
54.0266 0.089
54.0569 -0.007
54.0872 -0.259
54.1175 0.048
54.1478 0.302
54.1780 0.141
54.2083 0.136
54.2386 0.340
54.2689 -0.133
54.2991 -0.137
54.3294 -0.088
54.3597 -0.143
54.3900 0.270
54.4203 0.008
54.4505 0.006
54.4808 0.056
54.5111 0.315
54.5414 0.471
54.5717 -0.103
54.6019 0.053
54.6322 -0.467
54.6625 -0.007
54.6928 0.038
54.7230 -0.126
54.7533 0.388
54.7836 0.121
54.8139 -0.094
54.8442 0.629
54.8744 0.051
54.9047 -0.007
54.9350 0.405
54.9653 -0.433
54.9956 0.292
55.0258 0.184
55.0561 0.077
55.0864 -0.239
55.1167 -0.150
55.1469 -0.062
55.1772 -0.441
55.2075 0.325
55.2378 0.363
55.2681 0.245
55.2983 0.544
55.3286 -0.407
55.3589 0.153
55.3892 0.140
55.4195 0.284
55.4497 -0.404
55.4800 0.157
55.5103 0.406
55.5406 -0.177
55.5709 0.125
55.6011 0.532
55.6314 -0.311
55.6617 -0.008
55.6920 0.243
55.7222 0.652
55.7525 -0.086
55.7828 0.167
55.8131 0.784
55.8434 0.100
55.8736 1.239
55.9039 1.233
55.9342 1.696
55.9645 1.482
55.9948 1.216
56.0250 1.732
56.0553 1.988
56.0856 1.984
56.1159 3.439
56.1461 3.904
56.1764 4.213
56.2067 5.252
56.2370 5.771
56.2673 6.967
56.2975 7.590
56.3278 8.110
56.3581 8.005
56.3884 8.994
56.4187 9.150
56.4489 9.515
56.4792 9.463
56.5095 7.954
56.5398 9.205
56.5700 7.749
56.6003 6.344
56.6306 6.295
56.6609 4.266
56.6912 3.957
56.7214 4.117
56.7517 3.496
56.7820 2.823
56.8123 2.463
56.8426 1.947
56.8728 0.650
56.9031 1.333
56.9334 1.808
56.9637 0.668
56.9939 0.675
57.0242 0.578
57.0545 0.429
57.0848 -0.084
57.1151 0.081
57.1453 -0.171
57.1756 0.359
57.2059 0.316
57.2362 0.482
57.2665 0.284
57.2967 0.242
57.3270 0.305
57.3573 -0.204
57.3876 0.068
57.4178 -0.493
57.4481 -0.020
57.4784 0.142
57.5087 -0.009
57.5390 -0.471
57.5692 0.212
57.5995 -0.145
57.6298 -0.295
57.6601 0.234
57.6904 -0.435
57.7206 -0.010
57.7509 0.050
57.7812 -0.409
57.8115 0.277
57.8417 0.131
57.8720 -0.745
57.9023 0.255
57.9326 -0.150
57.9629 -0.139
57.9931 -0.076
58.0234 -0.116
58.0537 0.105
58.0840 -0.351
58.1143 0.183
58.1445 0.196
58.1748 -0.259
58.2051 -0.160
58.2354 0.407
58.2656 -0.067
58.2959 0.293
58.3262 -0.388
58.3565 -0.184
58.3868 0.125
58.4170 0.435
58.4473 0.276
58.4776 0.013
58.5079 0.011
58.5382 0.895
58.5684 0.320
58.5987 0.788
58.6290 0.215
58.6593 0.058
58.6896 0.110
58.7198 0.267
58.7501 0.372
58.7804 -0.148
58.8107 -0.354
58.8409 0.689
58.8712 0.275
58.9015 0.121
58.9318 0.124
58.9621 -0.133
58.9923 -0.285
59.0226 0.183
59.0529 -0.130
59.0832 0.234
59.1135 0.443
59.1437 -0.182
59.1740 -0.285
59.2043 0.394
59.2346 0.604
59.2648 0.033
59.2951 0.191
59.3254 0.298
59.3557 0.458
59.3860 0.097
59.4162 0.257
59.4465 -0.312
59.4768 0.474
59.5071 0.479
59.5374 0.328
59.5676 -0.083
59.5979 0.496
59.6282 0.346
59.6585 0.249
59.6887 0.256
59.7190 0.420
59.7493 0.323
59.7796 -0.033
59.8099 -0.285
59.8401 0.074
59.8704 0.328
59.9007 0.739
59.9310 0.161
59.9613 0.417
59.9915 0.517
60.0218 0.513
60.0521 1.187
60.0824 0.767
60.1126 0.347
60.1429 0.814
60.1732 0.499
60.2035 -0.128
60.2338 0.600
60.2640 0.286
60.2943 0.546
60.3246 0.181
60.3549 0.754
60.3852 0.130
60.4154 0.235
60.4457 -0.389
60.4760 -0.189
60.5063 0.116
60.5365 -0.361
60.5668 0.465
60.5971 0.042
60.6274 0.244
60.6577 0.550
60.6879 -0.133
60.7182 -0.190
60.7485 0.065
60.7788 -0.200
60.8091 0.317
60.8393 -0.051
60.8696 0.101
60.8999 -0.162
60.9302 -0.061
60.9604 0.249
60.9907 -0.170
61.0210 -0.223
61.0513 -0.121
61.0816 0.087
61.1118 0.138
61.1421 0.138
61.1724 0.399
61.2027 0.139
61.2330 0.139
61.2632 0.141
61.2935 -0.118
61.3238 -0.064
61.3541 0.147
61.3844 -0.059
61.4146 0.152
61.4449 -0.261
61.4752 0.159
61.5055 0.320
61.5357 0.168
61.5660 -0.296
61.5963 0.178
61.6266 -0.337
61.6569 -0.139
61.6871 0.475
61.7174 -0.056
61.7477 -0.117
61.7780 0.134
61.8083 -0.031
61.8385 0.117
61.8688 0.213
61.8991 0.518
61.9294 0.093
61.9596 -0.174
61.9899 -0.129
62.0202 -0.239
62.0505 0.380
62.0808 0.218
62.1110 0.317
62.1413 0.104
62.1716 0.672
62.2019 0.512
62.2322 0.248
62.2624 0.713
62.2927 0.971
62.3230 1.176
62.3533 1.174
62.3835 1.485
62.4138 1.639
62.4441 1.013
62.4744 1.377
62.5047 2.262
62.5349 2.314
62.5652 2.262
62.5955 2.263
62.6258 2.628
62.6561 2.213
62.6863 3.361
62.7166 2.738
62.7469 3.105
62.7772 2.847
62.8074 2.434
62.8377 1.864
62.8680 2.806
62.8983 1.456
62.9286 1.721
62.9588 1.674
62.9891 0.846
63.0194 0.591
63.0497 0.754
63.0800 0.604
63.1102 0.298
63.1405 0.149
63.1708 0.365
63.2011 -0.096
63.2313 0.850
63.2616 0.963
63.2919 -0.018
63.3222 0.200
63.3525 -0.467
63.3827 -0.150
63.4130 0.480
63.4433 0.433
63.4736 0.439
63.5039 -0.336
63.5341 0.139
63.5644 0.042
63.5947 -0.315
63.6250 0.474
63.6552 -0.143
63.6855 0.490
63.7158 -0.126
63.7461 0.091
63.7764 0.101
63.8066 0.371
63.8369 0.069
63.8672 -0.286
63.8975 0.038
63.9278 0.310
63.9580 0.061
63.9883 0.021
64.0186 0.398
64.0489 -0.267
64.0791 0.163
64.1094 -0.032
64.1397 0.190
64.1700 -0.004
64.2003 0.011
64.2305 0.338
64.2608 0.249
64.2911 -0.152
64.3214 0.125
64.3517 -0.119
64.3819 -0.311
64.4122 0.148
64.4425 0.294
64.4728 0.232
64.5031 -0.142
64.5333 0.527
64.5636 -0.159
64.5939 -0.167
64.6242 -0.019
64.6544 -0.078
64.6847 -0.137
64.7150 -0.196
64.7453 -0.202
64.7756 -0.104
64.8058 -0.110
64.8361 0.302
64.8664 0.297
64.8967 0.032
64.9270 -0.233
64.9572 0.018
64.9875 0.113
65.0178 0.052
65.0481 0.148
65.0783 -0.069
65.1086 -0.129
65.1389 0.124
65.1692 -0.039
65.1995 0.111
65.2297 -0.156
65.2600 0.151
65.2903 -0.011
65.3206 0.192
65.3509 -0.386
65.3811 0.443
65.4114 -0.082
65.4417 -0.138
65.4720 -0.141
65.5022 -0.353
65.5325 0.374
65.5628 -0.097
65.5931 0.422
65.6234 -0.205
65.6536 0.107
65.6839 -0.467
65.7142 -0.061
65.7445 -0.227
65.7748 0.128
65.8050 0.379
65.8353 0.110
65.8656 0.101
65.8959 0.353
65.9261 0.658
65.9564 -0.079
65.9867 -0.346
66.0170 0.533
66.0473 0.891
66.0775 0.468
66.1078 0.463
66.1381 0.197
66.1684 0.036
66.1987 0.656
66.2289 0.548
66.2592 0.180
66.2895 0.697
66.3198 0.225
66.3500 0.691
66.3803 1.210
66.4106 0.531
66.4409 -0.252
66.4712 0.216
66.5014 0.579
66.5317 0.266
66.5620 0.579
66.5923 0.527
66.6226 0.059
66.6528 0.528
66.6831 0.113
66.7134 0.479
66.7437 0.013
66.7739 -0.037
66.8042 -0.191
66.8345 -0.135
66.8648 -0.236
66.8951 0.341
66.9253 -0.176
66.9556 -0.223
66.9859 -0.114
67.0162 0.725
67.0465 0.157
67.0767 0.007
67.1070 0.482
67.1373 -0.084
67.1676 -0.285
67.1978 0.118
67.2281 0.626
67.2584 0.562
67.2887 0.393
67.3190 0.537
67.3492 0.995
67.3795 0.775
67.4098 1.129
67.4401 1.171
67.4704 1.005
67.5006 1.359
67.5309 2.392
67.5612 1.862
67.5915 2.010
67.6218 2.314
67.6520 2.567
67.6823 3.080
67.7126 4.115
67.7429 2.858
67.7731 2.799
67.8034 3.314
67.8337 3.569
67.8640 3.824
67.8943 3.819
67.9245 3.137
67.9548 2.456
67.9851 1.515
68.0154 2.605
68.0457 1.560
68.0759 1.349
68.1062 2.441
68.1365 0.668
68.1668 1.239
68.1970 0.821
68.2273 0.456
68.2576 0.872
68.2879 0.715
68.3182 0.507
68.3484 0.664
68.3787 0.717
68.4090 0.510
68.4393 0.407
68.4696 0.149
68.4998 0.776
68.5301 0.519
68.5604 0.366
68.5907 0.942
68.6209 0.581
68.6512 1.002
68.6815 1.423
68.7118 0.960
68.7421 0.704
68.7723 1.804
68.8026 1.706
68.8329 1.504
68.8632 1.979
68.8935 1.205
68.9237 1.525
68.9540 2.470
68.9843 1.489
69.0146 1.654
69.0448 0.934
69.0751 1.412
69.1054 2.046
69.1357 1.327
69.1660 0.556
69.1962 0.775
69.2265 0.422
69.2568 0.329
69.2871 0.185
69.3174 0.145
69.3476 -0.259
69.3779 -0.092
69.4082 0.439
69.4385 0.294
69.4687 -0.215
69.4990 0.005
69.5293 0.069
69.5596 -0.179
69.5899 -0.062
69.6201 -0.257
69.6504 0.434
69.6807 0.344
69.7110 0.150
69.7413 -0.096
69.7715 0.023
69.8018 0.195
69.8321 0.159
69.8624 0.592
69.8926 -0.069
69.9229 -0.208
69.9532 0.058
69.9835 -0.092
70.0138 -0.241
70.0440 0.599
70.0743 0.190
70.1046 -0.323
70.1349 -0.002
70.1652 0.006
70.1954 0.119
70.2257 0.129
70.2560 -0.122
70.2863 0.201
70.3166 -0.154
70.3468 -0.195
70.3771 -0.037
70.4074 0.173
70.4377 0.331
70.4679 -0.135
70.4982 -0.028
70.5285 0.235
70.5588 0.187
70.5891 -0.070
70.6193 -0.117
70.6496 0.304
70.6799 0.153
70.7102 -0.207
70.7405 -0.098
70.7707 -0.042
70.8010 0.119
70.8313 -0.188
70.8616 -0.090
70.8918 0.164
70.9221 0.055
70.9524 -0.003
70.9827 -0.060
71.0130 0.144
71.0432 0.140
71.0735 -0.072
71.1038 0.080
71.1341 0.025
71.1644 0.022
71.1946 0.124
71.2249 0.278
71.2552 -0.036
71.2855 -0.089
71.3157 -0.038
71.3460 -0.143
71.3763 -0.195
71.4066 0.012
71.4369 0.688
71.4671 0.323
71.4974 -0.406
71.5277 -0.146
71.5580 0.115
71.5883 0.220
71.6185 -0.456
71.6488 0.171
71.6791 -0.348
71.7094 0.071
71.7396 -0.031
71.7699 0.129
71.8002 -0.337
71.8305 -0.079
71.8608 -0.082
71.8910 0.280
71.9213 -0.243
71.9516 0.068
71.9819 -0.402
72.0122 0.014
72.0424 -0.091
72.0727 -0.091
72.1030 -0.195
72.1333 -0.145
72.1635 0.271
72.1938 -0.043
72.2241 0.060
72.2544 -0.044
72.2847 -0.044
72.3149 0.581
72.3452 0.113
72.3755 0.323
72.4058 0.220
72.4361 -0.195
72.4663 -0.194
72.4966 0.277
72.5269 0.070
72.5572 0.020
72.5874 0.335
72.6177 -0.026
72.6480 0.185
72.6783 0.397
72.7086 0.141
72.7388 -0.063
72.7691 0.046
72.7994 0.155
72.8297 0.005
72.8600 0.011
72.8902 -0.244
72.9205 0.232
72.9508 -0.126
72.9811 0.194
73.0113 0.410
73.0416 0.158
73.0719 -0.146
73.1022 -0.033
73.1325 -0.180
73.1627 -0.391
73.1930 0.336
73.2233 0.126
73.2536 -0.292
73.2839 -0.032
73.3141 -0.033
73.3444 0.019
73.3747 0.227
73.4050 -0.189
73.4353 0.125
73.4655 0.386
73.4958 -0.029
73.5261 -0.027
73.5564 -0.180
73.5866 -0.076
73.6169 -0.180
73.6472 -0.130
73.6775 -0.132
73.7078 -0.081
73.7380 -0.082
73.7683 0.386
73.7986 0.542
73.8289 0.022
73.8592 -0.030
73.8894 0.440
73.9197 0.076
73.9500 0.234
73.9803 -0.233
74.0105 -0.178
74.0408 0.345
74.0711 -0.017
74.1014 0.090
74.1317 -0.115
74.1619 0.149
74.1922 -0.055
74.2225 -0.311
74.2528 0.103
74.2831 -0.004
74.3133 0.098
74.3436 -0.008
74.3739 -0.061
74.4042 0.042
74.4344 0.458
74.4647 -0.324
74.4950 -0.064
74.5253 0.145
74.5556 -0.115
74.5858 0.042
74.6161 -0.060
74.6464 -0.163
74.6767 -0.056
74.7070 -0.054
74.7372 0.053
74.7675 0.108
74.7978 0.372
74.8281 -0.040
74.8583 -0.036
74.8886 -0.083
74.9189 -0.235
74.9492 0.187
74.9795 -0.275
75.0097 0.304
75.0400 0.206
75.0703 0.161
75.1006 -0.040
75.1309 0.332
75.1611 -0.077
75.1914 -0.016
75.2217 -0.060
75.2520 0.053
75.2822 0.063
75.3125 0.593
75.3428 0.291
75.3731 -0.167
75.4034 -0.156
75.4336 0.091
75.4639 -0.234
75.4942 0.067
75.5245 0.003
75.5548 0.148
75.5850 -0.123
75.6153 0.231
75.6456 0.012
75.6759 -0.414
75.7061 0.305
75.7364 -0.016
75.7667 -0.077
75.7970 0.123
75.8273 -0.302
75.8575 0.003
75.8878 0.256
75.9181 -0.011
75.9484 -0.070
75.9787 -0.285
76.0089 0.121
76.0392 -0.045
76.0695 -0.368
76.0998 0.300
76.1301 -0.074
76.1603 0.021
76.1906 -0.144
76.2209 -0.152
76.2512 -0.107
76.2814 -0.063
76.3117 -0.018
76.3420 -0.233
76.3723 0.282
76.4026 0.588
76.4328 0.010
76.4631 0.161
76.4934 -0.053
76.5237 -0.213
76.5540 0.251
76.5842 -0.013
76.6145 -0.068
76.6448 0.241
76.6751 0.238
76.7053 -0.233
76.7356 -0.181
76.7659 0.756
76.7962 0.235
76.8265 -0.129
76.8567 -0.024
76.8870 0.081
76.9173 0.239
76.9476 0.293
76.9779 0.243
77.0081 0.246
77.0384 0.041
77.0687 -0.060
77.0990 -0.265
77.1292 0.364
77.1595 -0.152
77.1898 0.269
77.2201 -0.402
77.2504 0.072
77.2806 0.286
77.3109 0.032
77.3412 0.143
77.3715 -0.006
77.4018 0.261
77.4320 -0.252
77.4623 0.069
77.4926 -0.027
77.5229 0.190
77.5531 -0.113
77.5834 -0.103
77.6137 0.115
77.6440 0.386
77.6743 0.084
77.7045 -0.114
77.7348 -0.259
77.7651 0.154
77.7954 -0.371
77.8257 0.199
77.8559 0.352
77.8862 -0.172
77.9165 -0.070
77.9468 0.137
77.9770 -0.021
78.0073 0.290
78.0376 -0.076
78.0679 0.028
78.0982 -0.233
78.1284 0.027
78.1587 0.131
78.1890 0.079
78.2193 -0.077
78.2496 -0.180
78.2798 -0.128
78.3101 0.290
78.3404 -0.178
78.3707 0.241
78.4009 -0.226
78.4312 0.453
78.4615 0.508
78.4918 -0.218
78.5221 0.098
78.5523 0.310
78.5826 0.054
78.6129 0.319
78.6432 0.115
78.6735 -0.088
78.7037 -0.030
78.7340 -0.180
78.7643 0.083
78.7946 0.346
78.8248 0.193
78.8551 -0.116
78.8854 -0.059
78.9157 -0.003
78.9460 -0.258
78.9762 0.050
79.0065 0.308
79.0368 0.044
79.0671 -0.219
79.0974 0.300
79.1276 -0.170
79.1579 0.245
79.1882 -0.017
79.2185 0.503
79.2488 0.034
79.2790 -0.070
79.3093 -0.017
79.3396 -0.173
79.3699 0.029
79.4001 0.127
79.4304 -0.035
79.4607 0.220
79.4910 0.007
79.5213 0.054
79.5515 0.050
79.5818 -0.058
79.6121 0.355
79.6424 0.300
79.6727 0.349
79.7029 -0.174
79.7332 -0.020
79.7635 0.239
79.7938 -0.127
79.8240 -0.233
79.8543 0.178
79.8846 -0.037
79.9149 0.218
79.9452 -0.100
79.9754 -0.105
80.0057 0.046
80.0360 0.302
80.0663 0.351
80.0966 0.191
80.1268 -0.177
80.1571 -0.180
80.1874 0.026
80.2177 -0.080
80.2479 -0.030
80.2782 -0.188
80.3085 0.014
80.3388 -0.148
80.3691 -0.154
80.3993 0.205
80.4296 -0.112
80.4599 0.091
80.4902 -0.173
80.5205 -0.021
80.5507 -0.181
80.5810 -0.028
80.6113 0.282
80.6416 0.332
80.6718 -0.035
80.7021 0.015
80.7324 -0.142
80.7627 0.221
80.7930 0.064
80.8232 0.168
80.8535 -0.300
80.8838 0.117
80.9141 -0.195
80.9444 -0.143
80.9746 -0.039
81.0049 0.274
81.0352 0.066
81.0655 -0.141
81.0957 0.277
81.1260 -0.242
81.1563 -0.135
81.1866 -0.081
81.2169 -0.182
81.2471 -0.231
81.2774 0.450
81.3077 -0.171
81.3380 -0.062
81.3683 -0.162
81.3985 -0.157
81.4288 -0.099
81.4591 0.115
81.4894 0.174
81.5196 -0.080
81.5499 -0.230
81.5802 0.299
81.6105 -0.006
81.6408 -0.206
81.6710 0.062
81.7013 0.175
81.7316 -0.285
81.7619 -0.129
81.7922 -0.182
81.8224 0.286
81.8527 0.130
81.8830 0.078
81.9133 -0.129
81.9436 -0.545
81.9738 0.183
82.0041 -0.078
82.0344 -0.182
82.0647 0.182
82.0949 0.235
82.1252 0.080
82.1555 -0.023
82.1858 0.343
82.2161 -0.072
82.2463 0.139
82.2766 0.245
82.3069 -0.272
82.3372 -0.061
82.3675 -0.005
82.3977 -0.105
82.4280 0.316
82.4583 0.269
82.4886 0.483
82.5188 -0.137
82.5491 0.025
82.5794 -0.020
82.6097 -0.066
82.6400 -0.007
82.6702 0.001
82.7005 -0.096
82.7308 0.069
82.7611 0.234
82.7914 -0.018
82.8216 0.043
82.8519 0.001
82.8822 0.323
82.9125 0.282
82.9427 -0.020
82.9730 -0.061
83.0033 -0.258
83.0336 0.102
83.0639 -0.110
83.0941 0.355
83.1244 -0.013
83.1547 -0.016
83.1850 -0.018
83.2153 -0.072
83.2455 0.134
83.2758 0.081
83.3061 0.080
83.3364 0.444
83.3666 -0.025
83.3969 0.183
83.4272 0.132
83.4575 -0.180
83.4878 -0.077
83.5180 -0.079
83.5483 0.233
83.5786 0.389
83.6089 0.285
83.6392 0.181
83.6694 0.078
83.6997 0.079
83.7300 -0.336
83.7603 -0.028
83.7905 -0.136
83.8208 0.069
83.8511 0.066
83.8814 -0.249
83.9117 0.114
83.9419 0.008
83.9722 0.058
84.0025 0.057
84.0328 0.056
84.0631 0.369
84.0933 0.108
84.1236 0.004
84.1539 0.109
84.1842 0.058
84.2144 0.320
84.2447 0.322
84.2750 -0.249
84.3053 -0.038
84.3356 0.069
84.3658 -0.188
84.3961 0.024
84.4264 0.080
84.4567 0.084
84.4870 0.089
84.5172 0.094
84.5475 0.152
84.5778 -0.155
84.6081 0.268
84.6383 0.066
84.6686 0.073
84.6989 -0.180
84.7292 -0.035
84.7595 -0.045
84.7897 0.101
84.8200 0.195
84.8503 0.186
84.8806 0.021
84.9109 0.012
84.9411 0.004
84.9714 -0.056
85.0017 0.040
85.0320 0.085
85.0623 0.443
85.0925 0.333
85.1228 0.014
85.1531 0.008
85.1834 -0.049
85.2136 0.050
85.2439 0.149
85.2742 -0.272
85.3045 -0.067
85.3348 0.138
85.3650 -0.282
85.3953 0.080
85.4256 0.077
85.4559 0.179
85.4862 -0.083
85.5164 0.072
85.5467 -0.189
85.5770 0.279
85.6073 -0.294
85.6375 0.018
85.6678 -0.502
85.6981 0.072
85.7284 0.073
85.7587 -0.186
85.7889 0.076
85.8192 0.027
85.8495 -0.127
85.8798 -0.020
85.9101 -0.173
85.9403 -0.068
85.9706 -0.014
86.0009 0.248
86.0312 -0.010
86.0614 0.357
86.0917 0.047
86.1220 -0.158
86.1523 -0.206
86.1826 0.212
86.2128 0.005
86.2431 0.371
86.2734 0.113
86.3037 0.324
86.3340 0.327
86.3642 -0.190
86.3945 -0.082
86.4248 0.078
86.4551 0.031
86.4853 0.400
86.5156 0.041
86.5459 0.098
86.5762 0.052
86.6065 0.059
86.6367 -0.039
86.6670 0.020
86.6973 0.080
86.7276 0.140
86.7579 0.096
86.7881 -0.156
86.8184 -0.058
86.8487 -0.063
86.8790 -0.016
86.9092 0.396
86.9395 0.183
86.9698 -0.133
87.0001 0.228
87.0304 0.068
87.0606 0.274
87.0909 0.063
87.1212 0.061
87.1515 0.267
87.1818 0.058
87.2120 0.265
87.2423 -0.205
87.2726 -0.153
87.3029 0.420
87.3331 0.317
87.3634 0.057
87.3937 0.266
87.4240 0.112
87.4543 0.061
87.4845 -0.093
87.5148 0.327
87.5451 -0.243
87.5754 0.073
87.6057 -0.028
87.6359 0.289
87.6662 -0.019
87.6965 0.454
87.7268 0.095
87.7571 -0.108
87.7873 -0.206
87.8176 0.149
87.8479 0.140
87.8782 -0.234
87.9084 0.122
87.9387 0.374
87.9690 0.054
87.9993 -0.005
88.0296 0.352
88.0598 -0.279
88.0901 -0.025
88.1204 0.021
88.1507 -0.089
88.1810 0.062
88.2112 0.057
88.2415 0.469
88.2718 0.361
88.3021 0.097
88.3323 0.302
88.3626 -0.014
88.3929 -0.173
88.4232 0.025
88.4535 0.014
88.4837 0.264
88.5140 0.098
88.5443 -0.171
88.5746 -0.180
88.6049 0.018
88.6351 -0.409
88.6654 0.102
88.6957 0.145
88.7260 -0.020
88.7562 -0.029
88.7865 -0.089
88.8168 0.216
88.8471 -0.156
88.8774 0.410
88.9076 -0.014
88.9379 -0.176
88.9682 0.182
88.9985 -0.084
89.0288 0.276
89.0590 0.219
89.0893 0.266
89.1196 0.783
89.1499 0.310
89.1801 -0.162
89.2104 0.460
89.2407 0.874
89.2710 0.507
89.3013 0.557
89.3315 -0.017
89.3618 0.346
89.3921 0.449
89.4224 0.449
89.4527 -0.228
89.4829 0.084
89.5132 -0.019
89.5435 0.711
89.5738 0.244
89.6040 0.662
89.6343 0.039
89.6646 -0.115
89.6949 0.148
89.7252 0.672
89.7554 0.676
89.7857 0.263
89.8160 0.319
89.8463 0.480
89.8766 0.693
89.9068 -0.291
89.9371 0.392
89.9674 -0.227
89.9977 0.196
90.0279 0.099
90.0582 -0.259
90.0885 -0.047
90.1188 0.218
90.1491 0.066
90.1793 0.175
90.2096 0.129
90.2399 -0.126
90.2702 0.453
90.3005 -0.114
90.3307 -0.003
90.3610 0.056
90.3913 0.376
90.4216 -0.085
90.4518 -0.077
90.4821 -0.068
90.5124 -0.059
90.5427 0.211
90.5730 0.012
90.6032 -0.030
90.6335 -0.020
90.6638 -0.113
90.6941 -0.415
90.7244 0.152
90.7546 -0.063
90.7849 -0.120
90.8152 -0.022
90.8455 -0.131
90.8758 -0.083
90.9060 -0.088
90.9363 0.013
90.9666 -0.043
90.9969 0.214
91.0271 0.316
91.0574 0.001
91.0877 -0.158
91.1180 0.153
91.1483 -0.317
91.1785 -0.006
91.2088 0.150
91.2391 -0.059
91.2694 0.514
91.2997 0.150
91.3299 0.203
91.3602 -0.004
91.3905 0.050
91.4208 -0.105
91.4510 -0.311
91.4813 0.149
91.5116 -0.067
91.5419 0.237
91.5722 0.021
91.6024 0.014
91.6327 0.371
91.6630 0.573
91.6933 0.098
91.7236 0.144
91.7538 -0.330
91.7841 0.030
91.8144 -0.079
91.8447 -0.188
91.8749 -0.038
91.9052 -0.096
91.9355 -0.153
91.9658 0.050
91.9961 -0.059
92.0263 0.249
92.0566 -0.120
92.0869 0.085
92.1172 0.081
92.1475 0.130
92.1777 -0.081
92.2080 -0.031
92.2383 0.176
92.2686 0.435
92.2988 0.277
92.3291 0.172
92.3594 0.172
92.3897 -0.037
92.4200 0.068
92.4502 0.589
92.4805 0.434
92.5108 0.071
92.5411 -0.032
92.5714 0.127
92.6016 0.025
92.6319 0.288
92.6622 -0.177
92.6925 -0.069
92.7227 0.091
92.7530 0.095
92.7833 0.204
92.8136 0.469
92.8439 0.110
92.8741 -0.092
92.9044 0.070
92.9347 0.389
92.9650 0.240
92.9953 -0.014
93.0255 -0.110
93.0558 0.002
93.0861 0.479
93.1164 -0.033
93.1466 -0.389
93.1769 0.083
93.2072 -0.070
93.2375 0.298
93.2678 -0.114
93.2980 0.255
93.3283 0.207
93.3586 0.108
93.3889 0.010
93.4192 0.172
93.4494 0.230
93.4797 -0.232
93.5100 -0.173
93.5403 0.237
93.5706 0.648
93.6008 0.225
93.6311 -0.249
93.6614 0.007
93.6917 -0.259
93.7219 0.046
93.7522 0.299
93.7825 -0.073
93.8128 0.545
93.8431 0.070
93.8733 0.272
93.9036 -0.098
93.9339 0.209
93.9642 0.360
93.9945 0.303
94.0247 0.091
94.0550 -0.122
94.0853 -0.125
94.1156 -0.285
94.1458 0.173
94.1761 -0.203
94.2064 0.098
94.2367 -0.120
94.2670 -0.131
94.2972 0.016
94.3275 0.111
94.3578 0.310
94.3881 0.041
94.4184 0.241
94.4486 -0.080
94.4789 -0.139
94.5092 -0.094
94.5395 -0.049
94.5697 0.101
94.6000 0.251
94.6303 0.141
94.6606 0.031
94.6909 0.703
94.7211 0.074
94.7514 -0.035
94.7817 0.118
94.8120 0.218
94.8423 0.423
94.8725 0.264
94.9028 0.522
94.9331 -0.157
94.9634 0.206
94.9936 0.673
95.0239 0.620
95.0542 0.515
95.0845 0.619
95.1148 0.776
95.1450 0.828
95.1753 0.985
95.2056 0.622
95.2359 0.884
95.2662 0.313
95.2964 0.732
95.3267 0.526
95.3570 0.685
95.3873 0.897
95.4175 0.224
95.4478 0.124
95.4781 0.180
95.5084 -0.180
95.5387 0.086
95.5689 0.039
95.5992 0.410
95.6295 0.260
95.6598 0.006
95.6901 0.222
95.7203 -0.084
95.7506 -0.440
95.7809 0.297
95.8112 -0.007
95.8414 -0.363
95.8717 0.054
95.9020 -0.050
95.9323 0.158
95.9626 -0.049
95.9928 0.265
96.0231 0.058
96.0534 -0.200
96.0837 0.167
96.1140 0.117
96.1442 -0.192
96.1745 -0.137
96.2048 -0.185
96.2351 -0.025
96.2653 -0.228
96.2956 0.141
96.3259 -0.218
96.3562 0.204
96.3865 -0.311
96.4167 -0.154
96.4470 -0.049
96.4773 0.057
96.5076 0.267
96.5379 -0.148
96.5681 0.011
96.5984 -0.090
96.6287 -0.035
96.6590 -0.188
96.6893 0.072
96.7195 -0.137
96.7498 0.384
96.7801 -0.137
96.8104 -0.032
96.8406 0.125
96.8709 0.127
96.9012 -0.080
96.9315 0.026
96.9618 0.185
96.9920 0.032
97.0223 -0.121
97.0526 0.299
97.0829 -0.166
97.1132 0.099
97.1434 -0.053
97.1737 0.213
97.2040 0.478
97.2343 0.119
97.2645 0.074
97.2948 -0.337
97.3251 -0.023
97.3554 -0.022
97.3857 -0.177
97.4159 0.190
97.4462 -0.225
97.4765 0.247
97.5068 -0.063
97.5371 -0.007
97.5673 0.049
97.5976 0.001
97.6279 0.005
97.6582 0.322
97.6884 0.119
97.7187 0.125
97.7490 -0.130
97.7793 0.450
97.8096 0.248
97.8398 0.099
97.8701 -0.363
97.9004 -0.060
97.9307 0.191
97.9610 -0.182
97.9912 0.174
98.0215 0.009
98.0518 0.366
98.0821 0.046
98.1123 0.247
98.1426 0.553
98.1729 0.234
98.2032 -0.032
98.2335 0.327
98.2637 0.322
98.2940 0.421
98.3243 0.416
98.3546 -0.005
98.3849 0.044
98.4151 0.405
98.4454 0.454
98.4757 0.347
98.5060 0.449
98.5362 0.447
98.5665 0.289
98.5968 0.340
98.6271 -0.078
98.6574 0.234
98.6876 0.390
98.7179 0.234
98.7482 -0.078
98.7785 0.027
98.8088 0.237
98.8390 0.030
98.8693 0.240
98.8996 0.243
98.9299 0.194
98.9601 -0.012
98.9904 -0.112
99.0207 0.152
99.0510 -0.104
99.0813 0.265
99.1115 -0.199
99.1418 0.119
99.1721 -0.032
99.2024 -0.026
99.2327 -0.019
99.2629 0.039
99.2932 0.099
99.3235 0.262
99.3538 0.010
99.3841 -0.034
99.4143 -0.025
99.4446 -0.173
99.4749 -0.011
99.5052 0.203
99.5354 0.000
99.5657 0.058
99.5960 0.169
99.6263 0.020
99.6566 0.184
99.6868 0.191
99.7171 0.095
99.7474 0.156
99.7777 -0.044
99.8080 0.278
99.8382 0.235
99.8685 0.714
99.8988 0.151
99.9291 0.162
99.9593 0.069
99.9896 -0.180
100.0199 -0.028
100.0502 0.437
100.0805 0.277
100.1107 0.117
100.1410 0.322
100.1713 0.007
100.2016 0.161
100.2319 0.420
100.2621 0.158
100.2924 -0.051
100.3227 -0.156
100.3530 0.093
100.3832 -0.230
100.4135 0.124
100.4438 0.167
100.4741 0.001
100.5044 -0.165
100.5346 -0.017
100.5649 0.080
100.5952 0.176
100.6255 0.169
100.6558 0.215
100.6860 0.052
100.7163 0.046
100.7466 -0.064
100.7769 -0.017
100.8071 0.030
100.8374 0.338
100.8677 0.021
100.8980 -0.087
100.9283 -0.038
100.9585 -0.146
100.9888 0.008
101.0191 -0.099
101.0494 0.004
101.0797 -0.311
101.1099 0.050
101.1402 0.098
101.1705 -0.218
101.2008 0.144
101.2310 0.141
101.2613 -0.174
101.2916 -0.124
101.3219 -0.178
101.3522 -0.075
101.3824 0.028
101.4127 -0.233
101.4430 0.022
101.4733 -0.037
101.5036 -0.042
101.5338 0.004
101.5641 0.000
101.5944 0.099
101.6247 0.407
101.6549 -0.169
101.6852 -0.173
101.7155 0.293
101.7458 -0.127
101.7761 -0.077
101.8063 0.338
101.8366 -0.185
101.8669 0.074
101.8972 -0.031
101.9275 0.021
101.9577 -0.188
101.9880 -0.091
102.0183 0.110
102.0486 0.363
102.0788 0.044
102.1091 -0.066
102.1394 -0.124
102.1697 -0.130
102.2000 0.021
102.2302 0.537
102.2605 -0.196
102.2908 0.008
102.3211 -0.464
102.3514 0.157
102.3816 0.311
102.4119 -0.056
102.4422 -0.006
102.4725 -0.112
102.5028 -0.114
102.5330 0.145
102.5633 -0.064
102.5936 0.092
102.6239 0.405
102.6541 0.457
102.6844 -0.219
102.7147 0.407
102.7450 0.096
102.7753 0.306
102.8055 0.360
102.8358 0.154
102.8661 0.418
102.8964 0.473
102.9267 0.112
102.9569 -0.092
102.9872 0.016
103.0175 0.125
103.0478 -0.078
103.0780 0.448
103.1083 0.193
103.1386 0.043
103.1689 0.206
103.1992 0.578
103.2294 0.116
103.2597 0.124
103.2900 0.184
103.3203 0.505
103.3506 -0.059
103.3808 -0.206
103.4111 0.101
103.4414 0.356
103.4717 -0.169
103.5019 0.191
103.5322 0.135
103.5625 -0.025
103.5928 0.076
103.6231 0.021
103.6533 0.435
103.6836 -0.192
103.7139 0.015
103.7442 0.482
103.7745 -0.040
103.8047 0.116
103.8350 -0.041
103.8653 -0.092
103.8956 0.429
103.9258 0.325
103.9561 0.014
103.9864 0.224
104.0167 0.018
104.0470 0.228
104.0772 0.491
104.1075 0.234
104.1378 0.237
104.1681 -0.019
104.1984 0.037
104.2286 0.354
104.2589 -0.162
104.2892 -0.001
104.3195 0.421
104.3497 0.011
104.3800 0.590
104.4103 0.284
104.4406 0.395
104.4709 -0.118
104.5011 -0.006
104.5314 -0.259
104.5617 0.052
104.5920 0.207
104.6223 0.414
104.6525 0.362
104.6828 0.049
104.7131 -0.055
104.7434 -0.055
104.7736 0.102
104.8039 -0.105
104.8342 -0.103
104.8645 0.159
104.8948 0.109
104.9250 -0.044
104.9553 -0.146
104.9856 0.066
105.0159 -0.138
105.0462 0.230
105.0764 -0.026
105.1067 -0.125
105.1370 -0.120
105.1673 0.146
105.1975 -0.056
105.2278 -0.206
105.2581 0.108
105.2884 0.110
105.3187 0.374
105.3489 0.116
105.3792 0.120
105.4095 0.175
105.4398 0.232
105.4701 -0.076
105.5003 0.449
105.5306 -0.066
105.5609 -0.165
105.5912 -0.165
105.6215 0.197
105.6517 -0.014
105.6820 0.191
105.7123 0.450
105.7426 0.136
105.7728 0.603
105.8031 0.185
105.8334 0.132
105.8637 -0.180
105.8940 -0.082
105.9242 0.121
105.9545 -0.040
105.9848 0.372
106.0151 0.003
106.0454 -0.105
106.0756 0.152
106.1059 0.045
106.1362 0.042
106.1665 0.144
106.1967 -0.119
106.2270 -0.173
106.2573 -0.076
106.2876 0.282
106.3179 -0.089
106.3481 0.061
106.3784 0.003
106.4087 0.467
106.4390 -0.163
106.4693 0.249
106.4995 -0.068
106.5298 0.084
106.5601 0.289
106.5904 0.130
106.6206 -0.133
106.6509 0.073
106.6812 0.123
106.7115 -0.400
106.7418 -0.037
106.7720 0.275
106.8023 0.066
106.8326 0.014
106.8629 0.066
106.8932 -0.090
106.9234 0.119
106.9537 0.277
106.9840 0.122
107.0143 0.280
107.0445 0.439
107.0748 0.233
107.1051 -0.180
107.1354 -0.180
107.1657 -0.129
107.1959 0.132
107.2262 -0.285
107.2565 -0.077
107.2868 -0.026
107.3171 -0.131
107.3473 0.390
107.3776 0.130
107.4079 0.131
107.4382 -0.441
107.4684 -0.076
107.4987 0.549
107.5290 -0.128
107.5593 0.186
107.5896 0.239
107.6198 0.085
107.6501 0.243
107.6804 0.089
107.7107 0.092
107.7410 0.043
107.7712 -0.110
107.8015 0.102
107.8318 -0.414
107.8621 0.111
107.8923 -0.144
107.9226 0.330
107.9529 0.179
107.9832 0.133
108.0135 -0.173
108.0437 -0.125
108.0740 0.288
108.1043 0.180
108.1346 -0.031
108.1649 0.487
108.1951 -0.088
108.2254 0.118
108.2557 0.169
108.2860 -0.197
108.3163 0.114
108.3465 0.218
108.3768 -0.251
108.4071 -0.094
108.4374 0.114
108.4676 -0.353
108.4979 0.117
108.5282 0.223
108.5585 0.172
108.5888 0.487
108.6190 -0.031
108.6493 -0.132
108.6796 -0.180
108.7099 0.181
108.7402 -0.342
108.7704 -0.031
108.8007 0.332
108.8310 0.174
108.8613 -0.295
108.8915 0.016
108.9218 -0.244
108.9521 0.433
108.9824 0.017
109.0127 0.070
109.0429 0.540
109.0732 -0.240
109.1035 0.492
109.1338 0.025
109.1641 -0.285
109.1943 0.013
109.2246 0.155
109.2549 -0.015
109.2852 -0.445
109.3154 0.115
109.3457 -0.314
109.3760 0.246
109.4063 0.234
109.4366 -0.142
109.4668 0.263
109.4971 -0.217
109.5274 0.033
109.5577 0.284
109.5880 0.117
109.6182 0.160
109.6485 -0.057
109.6788 0.246
109.7091 0.030
109.7393 0.022
109.7696 -0.038
109.7999 0.059
109.8302 0.208
109.8605 0.045
109.8907 -0.065
109.9210 0.294
109.9513 -0.024
109.9816 0.387
110.0119 0.174
110.0421 0.118
110.0724 0.166
110.1027 -0.359
110.1330 0.471
110.1632 0.052
110.1935 0.362
110.2238 -0.213
110.2541 0.202
110.2844 -0.164
110.3146 0.668
110.3449 0.042
110.3752 -0.427
110.4055 0.146
110.4358 -0.010
110.4660 0.199
110.4963 -0.112
110.5266 0.045
110.5569 0.256
110.5871 -0.055
110.6174 -0.208
110.6477 -0.050
110.6780 -0.047
110.7083 0.268
110.7385 -0.198
110.7688 -0.194
110.7991 -0.034
110.8294 -0.029
110.8597 0.236
110.8899 0.241
110.9202 -0.014
110.9505 0.096
110.9808 -0.002
111.0110 0.213
111.0413 -0.093
111.0716 0.071
111.1019 -0.078
111.1322 0.034
111.1624 0.199
111.1927 -0.261
111.2230 0.112
111.2533 -0.243
111.2836 0.027
111.3138 -0.275
111.3441 0.048
111.3744 0.111
111.4047 -0.034
111.4350 0.134
111.4652 0.042
111.4955 0.263
111.5258 0.119
111.5561 -0.180
111.5863 -0.180
111.6166 0.130
111.6469 -0.081
111.6772 0.022
111.7075 -0.032
111.7377 -0.345
111.7680 0.384
111.7983 -0.033
111.8286 0.227
111.8589 0.176
111.8891 0.020
111.9194 -0.031
111.9497 0.023
111.9800 0.233
112.0102 0.184
112.0405 0.134
112.0708 0.189
112.1011 -0.224
112.1314 -0.064
112.1616 0.201
112.1919 0.153
112.2222 -0.311
112.2525 -0.107
112.2828 -0.059
112.3130 -0.167
112.3433 0.038
112.3736 -0.330
112.4039 0.188
112.4341 0.030
112.4644 0.184
112.4947 0.339
112.5250 -0.392
112.5553 0.337
112.5855 -0.393
112.6158 0.284
112.6461 0.232
112.6764 0.076
112.7067 -0.079
112.7369 0.235
112.7672 -0.337
112.7975 -0.180
112.8278 -0.082
112.8580 0.018
112.8883 0.378
112.9186 0.269
112.9489 0.422
112.9792 0.314
113.0094 -0.053
113.0397 -0.108
113.0700 0.150
113.1003 0.512
113.1306 0.198
113.1608 0.041
113.1911 0.144
113.2214 0.039
113.2517 0.352
113.2819 0.091
113.3122 0.248
113.3425 0.457
113.3728 0.042
113.4031 0.044
113.4333 0.046
113.4636 0.204
113.4939 -0.105
113.5242 -0.259
113.5545 0.158
113.5847 -0.259
113.6150 0.053
113.6453 0.158
113.6756 -0.153
113.7058 0.161
113.7361 -0.098
113.7664 0.216
113.7967 -0.042
113.8270 -0.039
113.8572 -0.088
113.8875 0.176
113.9178 -0.080
113.9481 -0.180
113.9784 0.125
114.0086 -0.089
114.0389 0.165
114.0692 0.316
114.0995 0.415
114.1298 0.097
114.1600 -0.168
114.1903 0.297
114.2206 0.137
114.2509 0.186
114.2811 -0.234
114.3114 0.076
114.3417 0.230
114.3720 0.280
114.4023 0.122
114.4325 0.069
114.4628 -0.140
114.4931 -0.037
114.5234 -0.089
114.5537 0.536
114.5839 0.381
114.6142 0.173
114.6445 -0.034
114.6748 0.280
114.7050 0.022
114.7353 -0.340
114.7656 0.183
114.7959 -0.074
114.8262 0.034
114.8564 0.142
114.8867 0.146
114.9170 -0.162
114.9473 0.156
114.9776 0.265
115.0078 -0.042
115.0381 0.277
115.0684 0.127
115.0987 0.290
115.1289 0.245
115.1592 -0.060
115.1895 0.052
115.2198 0.321
115.2501 0.069
115.2803 -0.130
115.3106 -0.173
115.3409 0.127
115.3712 0.532
115.4015 0.260
115.4317 0.353
115.4620 0.238
115.4923 0.175
115.5226 0.321
115.5528 0.207
115.5831 -0.011
115.6134 0.553
115.6437 0.700
115.6740 0.431
115.7042 0.111
115.7345 0.520
115.7648 0.408
115.7951 0.193
115.8254 0.864
115.8556 0.337
115.8859 0.383
115.9162 0.481
115.9465 0.372
115.9767 0.732
116.0070 0.519
116.0373 0.671
116.0676 0.251
116.0979 -0.013
116.1281 0.297
116.1584 0.399
116.1887 0.709
116.2190 0.759
116.2493 0.445
116.2795 0.184
116.3098 0.339
116.3401 0.287
116.3704 0.287
116.4006 0.183
116.4309 0.079
116.4612 0.653
116.4915 0.446
116.5218 0.656
116.5520 0.190
116.5823 0.245
116.6126 -0.013
116.6429 0.459
116.6732 0.150
116.7034 0.206
116.7337 0.263
116.7640 0.215
116.7943 0.272
116.8245 0.174
116.8548 -0.237
116.8851 0.602
116.9154 0.296
116.9457 0.095
116.9759 0.102
117.0062 0.006
117.0365 0.118
117.0668 -0.134
117.0971 0.343
117.1273 0.196
117.1576 0.049
117.1879 0.424
117.2182 -0.139
117.2485 -0.180
117.2787 -0.024
117.3090 -0.128
117.3393 0.082
117.3696 0.031
117.3998 0.449
117.4301 -0.278
117.4604 0.349
117.4907 0.352
117.5210 0.147
117.5512 -0.267
117.5815 0.206
117.6118 0.054
117.6421 0.110
117.6724 0.480
117.7026 0.173
117.7329 0.126
117.7632 -0.285
117.7935 -0.080
117.8237 0.021
117.8540 -0.086
117.8843 0.068
117.9146 -0.142
117.9449 0.481
117.9751 0.011
118.0054 0.010
118.0357 0.582
118.0660 0.165
118.0963 0.009
118.1265 0.270
118.1568 -0.146
118.1871 0.168
118.2174 -0.299
118.2476 0.015
118.2779 -0.191
118.3082 0.124
118.3385 0.127
118.3688 -0.182
118.3990 0.343
118.4293 -0.070
118.4596 0.195
118.4899 0.096
118.5202 -0.212
118.5504 0.263
118.5807 0.425
118.6110 -0.038
118.6413 0.073
118.6715 -0.232
118.7018 -0.031
118.7321 0.222
118.7624 0.320
118.7927 0.001
118.8229 0.307
118.8532 -0.115
118.8835 0.140
118.9138 -0.073
118.9441 0.027
118.9743 0.023
119.0046 0.332
119.0349 0.432
119.0652 0.169
119.0954 0.218
119.1257 0.060
119.1560 0.371
119.1863 0.109
119.2166 0.003
119.2468 0.419
119.2771 0.002
119.3074 -0.259
119.3377 0.055
119.3680 0.004
119.3982 -0.099
119.4285 -0.097
119.4588 0.583
119.4891 0.116
119.5193 -0.245
119.5496 0.019
119.5799 0.283
119.6102 0.287
119.6405 0.135
119.6707 0.036
119.7010 0.458
119.7313 0.099
119.7616 -0.104
119.7919 0.059
119.8221 0.430
119.8524 0.020
119.8827 0.497
119.9130 -0.173
119.9433 -0.165
119.9735 -0.202
120.0038 0.000
