'Id: "" Comment: "" Operator: "Lab Manager" Anode: "Cu" Scantype: "Locked Coupled" TimePerStep: "19.2" X: "9999" Y: "9999" Z: "9999" 
10.0015 0.000
10.0318 6.915
10.0620 11.694
10.0923 10.745
10.1226 15.316
10.1529 17.335
10.1832 26.542
10.2134 28.301
10.2437 29.331
10.2740 34.111
10.3043 40.037
10.3346 40.651
10.3648 45.223
10.3951 45.524
10.4254 45.513
10.4557 49.147
10.4859 53.407
10.5162 49.542
10.5465 44.531
10.5768 52.385
10.6071 51.229
10.6373 54.031
10.6676 55.322
10.6979 53.906
10.7282 54.312
10.7585 49.875
10.7887 43.927
10.8190 48.501
10.8493 46.460
10.8796 52.752
10.9098 43.628
10.9401 39.451
10.9704 34.963
11.0007 35.787
11.0310 36.923
11.0612 29.049
11.0915 27.998
11.1218 21.896
11.1521 20.845
11.1824 12.346
11.2126 18.379
11.2429 14.100
11.2732 10.081
11.3035 10.020
11.3337 8.710
11.3640 10.316
11.3943 3.224
11.4246 7.435
11.4549 3.989
11.4851 2.731
11.5154 1.057
11.5457 1.726
11.5760 4.583
11.6063 0.929
11.6365 1.755
11.6668 2.685
11.6971 -0.343
11.7274 -0.090
11.7577 -1.399
11.7879 -1.927
11.8182 1.171
11.8485 1.978
11.8788 -2.216
11.9090 2.185
11.9393 -2.008
11.9696 0.257
11.9999 -0.395
12.0302 -0.108
12.0604 0.386
12.0907 0.360
12.1210 -1.957
12.1513 1.194
12.1816 0.283
12.2118 0.621
12.2421 -0.185
12.2724 2.862
12.3027 0.441
12.3329 1.561
12.3632 0.911
12.3935 -1.562
12.4238 -1.130
12.4541 1.229
12.4843 1.453
12.5146 -0.876
12.5449 -0.443
12.5752 -1.261
12.6055 -0.378
12.6357 1.338
12.6660 -2.622
12.6963 -1.218
12.7266 0.438
12.7568 -1.811
12.7871 1.825
12.8174 1.919
12.8477 1.441
12.8780 -0.131
12.9082 1.317
12.9385 -1.557
12.9688 -1.149
12.9991 0.605
13.0294 -0.921
13.0596 -2.291
13.0899 0.790
13.1202 -1.181
13.1505 0.338
13.1807 0.867
13.2110 -1.625
13.2413 0.363
13.2716 -0.618
13.3019 0.797
13.3321 0.754
13.3624 -1.164
13.3927 0.408
13.4230 -1.875
13.4533 -0.384
13.4835 -0.196
13.5138 0.514
13.5441 -1.902
13.5744 0.058
13.6046 0.351
13.6349 1.634
13.6652 -0.104
13.6955 -0.332
13.7258 -1.340
13.7560 0.880
13.7863 -0.128
13.8166 0.738
13.8469 0.251
13.8772 0.441
13.9074 2.037
13.9377 0.560
13.9680 1.687
13.9983 -0.466
14.0285 0.766
14.0588 -0.711
14.0891 -2.083
14.1194 0.700
14.1497 -1.151
14.1799 0.382
14.2102 3.166
14.2405 0.898
14.2708 1.286
14.3011 -0.097
14.3313 1.333
14.3616 1.357
14.3919 1.068
14.4222 -0.366
14.4524 0.491
14.4827 2.338
14.5130 1.842
14.5433 1.866
14.5736 3.661
14.6038 2.279
14.6341 0.064
14.6644 0.454
14.6947 5.322
14.7250 3.941
14.7552 3.132
14.7855 3.001
14.8158 3.755
14.8461 1.697
14.8764 1.827
14.9066 5.758
14.9369 2.398
14.9672 0.809
14.9975 2.345
15.0277 1.642
15.0580 3.960
15.0883 5.496
15.1186 2.084
15.1489 2.996
15.1791 2.189
15.2094 2.580
15.2397 1.148
15.2700 3.779
15.3003 3.128
15.3305 4.873
15.3608 1.879
15.3911 3.052
15.4214 3.444
15.4516 3.835
15.4819 5.425
15.5122 3.733
15.5425 4.542
15.5728 3.892
15.6030 2.930
15.6333 2.333
15.6636 4.600
15.6939 4.992
15.7242 3.874
15.7544 4.319
15.7847 4.607
15.8150 4.740
15.8453 3.309
15.8755 3.546
15.9058 3.991
15.9361 4.540
15.9664 2.017
15.9967 2.098
16.0269 1.606
16.0572 1.895
16.0875 2.809
16.1178 3.359
16.1481 3.596
16.1783 2.272
16.2086 3.134
16.2389 1.289
16.2692 4.131
16.2994 0.514
16.3297 2.367
16.3600 3.803
16.3903 1.229
16.4206 3.654
16.4508 0.403
16.4811 1.214
16.5114 -0.474
16.5417 -0.079
16.5720 2.816
16.6022 1.752
16.6325 0.637
16.6628 0.668
16.6931 -0.135
16.7233 0.157
16.7536 1.698
16.7839 -0.146
16.8142 -0.011
16.8445 0.697
16.8747 0.052
16.9050 0.343
16.9353 0.167
16.9656 -0.635
16.9959 -0.083
17.0261 -1.353
17.0564 0.189
17.0867 -0.300
17.1170 0.514
17.1472 0.025
17.1775 0.318
17.2078 -0.796
17.2381 0.643
17.2684 0.831
17.2986 0.551
17.3289 0.324
17.3592 -0.737
17.3895 -0.757
17.4198 0.015
17.4500 0.474
17.4803 -0.368
17.5106 1.029
17.5409 -0.283
17.5712 0.594
17.6014 0.324
17.6317 0.888
17.6620 0.619
17.6923 -0.171
17.7225 -0.024
17.7528 0.489
17.7831 1.209
17.8134 1.930
17.8437 0.984
17.8739 1.653
17.9042 2.478
17.9345 1.376
17.9648 0.118
17.9951 2.402
18.0253 3.228
18.0556 0.616
18.0859 1.285
18.1162 2.684
18.1464 1.114
18.1767 2.878
18.2070 2.662
18.2373 0.832
18.2676 2.648
18.2978 2.849
18.3281 3.155
18.3584 3.513
18.3887 3.610
18.4190 3.968
18.4492 4.326
18.4795 2.966
18.5098 3.480
18.5401 5.193
18.5703 3.312
18.6006 2.889
18.6309 3.196
18.6612 6.054
18.6915 4.538
18.7217 5.834
18.7520 5.829
18.7823 5.615
18.8126 5.714
18.8429 4.563
18.8731 3.932
18.9034 3.406
18.9337 3.662
18.9640 5.376
18.9942 2.714
19.0245 2.189
19.0548 3.643
19.0851 2.805
19.1154 4.206
19.1456 3.421
19.1759 2.583
19.2062 2.995
19.2365 2.470
19.2668 0.800
19.2970 1.733
19.3273 2.250
19.3576 0.996
19.3879 1.514
19.4181 1.562
19.4484 1.975
19.4787 2.232
19.5090 2.229
19.5393 1.288
19.5695 0.868
19.5998 1.542
19.6301 -0.492
19.6604 0.495
19.6907 0.388
19.7209 1.271
19.7512 -0.294
19.7815 -0.557
19.8118 0.326
19.8420 1.053
19.8723 0.113
19.9026 2.194
19.9329 0.161
19.9632 -0.935
19.9934 0.313
20.0237 -0.053
20.0540 -0.211
20.0843 -0.317
20.1146 0.202
20.1448 1.086
20.1751 0.304
20.2054 -0.322
20.2357 0.510
20.2659 -0.221
20.2962 0.404
20.3265 -0.587
20.3568 -0.442
20.3871 0.692
20.4173 -0.933
20.4476 -0.580
20.4779 0.185
20.5082 -0.248
20.5385 0.882
20.5687 0.189
20.5990 0.329
20.6293 -0.729
20.6596 -0.290
20.6899 0.514
20.7201 -0.089
20.7504 -0.067
20.7807 -0.044
20.8110 -0.022
20.8412 -0.676
20.8715 0.052
20.9018 0.051
20.9321 1.143
20.9624 -0.055
20.9926 -0.212
21.0229 0.360
21.0532 0.099
21.0835 0.463
21.1138 -0.058
21.1440 1.608
21.1743 1.868
21.2046 1.243
21.2349 0.878
21.2651 -0.163
21.2954 2.076
21.3257 0.879
21.3560 0.514
21.3863 0.619
21.4165 1.036
21.4468 0.620
21.4771 1.194
21.5074 -0.628
21.5377 1.039
21.5679 0.832
21.5982 0.312
21.6285 -0.781
21.6588 -0.272
21.6890 1.071
21.7193 1.111
21.7496 0.214
21.7799 0.567
21.8102 1.546
21.8404 1.014
21.8707 -0.925
21.9010 0.418
21.9313 -0.009
21.9616 1.282
21.9918 0.229
22.0221 -0.615
22.0524 0.573
22.0827 -0.219
22.1129 1.072
22.1432 0.020
22.1735 0.323
22.2038 -0.573
22.2341 -0.481
22.2643 0.341
22.2946 -0.713
22.3249 0.057
22.3552 0.201
22.3855 0.086
22.4157 -0.238
22.4460 -0.562
22.4763 0.520
22.5066 -0.324
22.5368 1.227
22.5671 -0.034
22.5974 0.216
22.6277 -0.003
22.6580 0.819
22.6882 -1.431
22.7185 0.538
22.7488 -0.306
22.7791 1.142
22.8094 1.913
22.8396 1.538
22.8699 0.018
22.9002 -0.305
22.9305 0.310
22.9607 -0.116
22.9910 0.135
23.0213 1.427
23.0516 -0.353
23.0819 1.200
23.1121 1.138
23.1424 1.233
23.1727 1.328
23.2030 1.267
23.2333 1.258
23.2635 1.718
23.2938 0.407
23.3241 1.024
23.3544 0.234
23.3846 1.788
23.4149 0.894
23.4452 0.156
23.4755 1.971
23.5058 1.546
23.5360 2.215
23.5663 1.113
23.5966 1.522
23.6269 1.671
23.6572 3.017
23.6874 2.020
23.7177 3.210
23.7480 2.265
23.7783 2.623
23.8086 3.553
23.8388 2.816
23.8691 3.695
23.8994 2.594
23.9297 3.941
23.9599 2.164
23.9902 3.563
24.0205 2.463
24.0508 3.290
24.0811 2.762
24.1113 2.652
24.1416 4.573
24.1719 5.035
24.2022 4.456
24.2325 3.148
24.2627 3.090
24.2930 4.334
24.3233 3.860
24.3536 4.896
24.3838 5.828
24.4141 5.302
24.4444 5.661
24.4747 6.385
24.5050 6.900
24.5352 5.802
24.5655 6.786
24.5958 5.896
24.6261 6.464
24.6564 7.136
24.6866 6.559
24.7169 7.596
24.7472 8.112
24.7775 6.858
24.8077 8.520
24.8380 8.308
24.8683 8.877
24.8986 8.248
24.9289 8.869
24.9591 7.407
24.9894 8.861
25.0197 9.951
25.0500 9.531
25.0803 6.767
25.1105 8.170
25.1408 10.042
25.1711 9.622
25.2014 7.536
25.2316 9.876
25.2619 7.842
25.2922 10.340
25.3225 9.556
25.3528 9.449
25.3830 8.873
25.4133 11.006
25.4436 10.275
25.4739 10.845
25.5042 11.260
25.5344 11.154
25.5647 10.527
25.5950 10.421
25.6253 10.523
25.6555 10.105
25.6858 10.988
25.7161 9.997
25.7464 10.933
25.7767 8.484
25.8069 13.587
25.8372 12.804
25.8675 11.189
25.8978 11.344
25.9281 10.458
25.9583 9.155
25.9886 8.321
26.0189 11.133
26.0492 8.945
26.0794 11.340
26.1097 11.496
26.1400 11.235
26.1703 10.662
26.2006 10.662
26.2308 13.110
26.2611 10.298
26.2914 11.548
26.3217 9.673
26.3520 10.975
26.3822 9.309
26.4125 11.133
26.4428 11.237
26.4731 11.134
26.5034 7.958
26.5336 9.990
26.5639 10.981
26.5942 10.513
26.6245 10.879
26.6547 11.088
26.6850 12.288
26.7153 11.351
26.7456 10.311
26.7759 12.553
26.8061 10.888
26.8364 10.889
26.8667 12.402
26.8970 10.685
26.9273 12.041
26.9575 12.460
26.9878 11.681
27.0181 11.579
27.0484 12.988
27.0786 13.199
27.1089 11.952
27.1392 15.444
27.1695 11.228
27.1998 13.783
27.2300 11.286
27.2603 15.039
27.2906 13.636
27.3209 13.431
27.3512 13.278
27.3814 14.688
27.4117 14.795
27.4420 17.507
27.4723 13.240
27.5025 16.265
27.5328 16.633
27.5631 15.127
27.5934 16.850
27.6237 16.229
27.6539 16.962
27.6842 16.290
27.7145 16.503
27.7448 17.549
27.7751 17.085
27.8053 14.589
27.8356 16.105
27.8659 17.464
27.8962 14.760
27.9264 15.547
27.9567 16.021
27.9870 15.818
28.0173 16.135
28.0476 17.235
28.0778 12.761
28.1081 17.037
28.1384 15.949
28.1687 14.445
28.1990 13.305
28.2292 14.978
28.2595 14.411
28.2898 12.646
28.3201 13.069
28.3503 13.388
28.3806 10.686
28.4109 13.505
28.4412 13.095
28.4715 12.685
28.5017 12.952
28.5320 10.251
28.5623 11.195
28.5926 12.088
28.6229 10.689
28.6531 9.706
28.6834 11.641
28.7137 9.409
28.7440 9.312
28.7742 8.434
28.8045 11.254
28.8348 8.346
28.8651 8.718
28.8954 8.466
28.9256 8.109
28.9559 9.628
28.9862 7.917
29.0165 8.967
29.0468 8.403
29.0770 6.797
29.1073 8.264
29.1376 7.335
29.1679 6.615
29.1981 5.321
29.2284 6.528
29.2587 4.610
29.2890 5.192
29.3193 6.191
29.3495 5.784
29.3798 3.762
29.4101 4.761
29.4404 4.823
29.4707 4.833
29.5009 4.322
29.5312 3.863
29.5615 4.133
29.5918 3.622
29.6221 4.518
29.6523 3.955
29.6826 2.716
29.7129 3.455
29.7432 3.362
29.7734 2.643
29.8037 2.654
29.8340 3.133
29.8643 2.259
29.8946 3.051
29.9248 2.906
29.9551 2.136
29.9854 2.512
30.0157 2.106
30.0460 0.347
30.0762 2.911
30.1065 0.162
30.1368 1.944
30.1671 2.060
30.1973 0.666
30.2276 2.761
30.2579 1.367
30.2882 1.900
30.3185 1.235
30.3487 0.883
30.3790 1.989
30.4093 1.481
30.4396 0.556
30.4699 1.819
30.5001 0.790
30.5304 0.178
30.5607 -0.122
30.5910 0.464
30.6212 -0.356
30.6515 1.272
30.6818 0.764
30.7121 0.517
30.7424 1.364
30.7726 1.534
30.8029 1.600
30.8332 0.937
30.8635 1.263
30.8938 -0.025
30.9240 0.145
30.9543 0.524
30.9846 0.538
31.0149 0.292
31.0451 0.932
31.0754 0.894
31.1057 1.117
31.1360 0.246
31.1663 0.938
31.1965 1.474
31.2268 0.395
31.2571 -0.163
31.2874 0.373
31.3177 1.066
31.3479 0.873
31.3782 1.201
31.4085 0.904
31.4388 1.128
31.4690 0.675
31.4993 0.847
31.5296 0.342
31.5599 -0.944
31.5902 0.582
31.6204 1.484
31.6507 -0.323
31.6810 0.110
31.7113 0.231
31.7416 0.768
31.7718 0.316
31.8021 -0.032
31.8324 0.506
31.8627 0.210
31.8929 0.279
31.9232 0.088
31.9535 0.990
31.9838 0.174
32.0141 -0.069
32.0443 -0.676
32.0746 0.102
32.1049 0.204
32.1352 0.878
32.1655 -0.166
32.1957 1.134
32.2260 1.496
32.2563 0.140
32.2866 0.503
32.3169 0.449
32.3471 1.749
32.3774 1.070
32.4077 1.173
32.4380 1.952
32.4682 0.649
32.4985 1.272
32.5288 1.115
32.5591 1.895
32.5894 2.258
32.6196 2.153
32.6499 3.715
32.6802 5.172
32.7105 3.713
32.7408 4.650
32.7710 3.608
32.8013 4.545
32.8316 2.200
32.8619 3.138
32.8921 2.981
32.9224 1.419
32.9527 1.366
32.9830 2.148
33.0133 1.263
33.0435 0.846
33.0738 1.784
33.1041 1.941
33.1344 2.097
33.1647 1.421
33.1949 0.745
33.2252 1.162
33.2555 0.277
33.2858 0.487
33.3160 0.592
33.3463 0.229
33.3766 -0.187
33.4069 -0.133
33.4372 -0.445
33.4674 -0.651
33.4977 0.913
33.5280 0.446
33.5583 -0.438
33.5886 -0.071
33.6188 -0.538
33.6491 0.349
33.6794 -0.222
33.7097 0.041
33.7399 -0.373
33.7702 0.775
33.8005 -1.462
33.8308 0.155
33.8611 0.418
33.8913 0.265
33.9216 -0.097
33.9519 -0.511
33.9822 0.847
34.0125 0.485
34.0427 0.072
34.0730 0.596
34.1033 1.016
34.1336 0.707
34.1638 1.388
34.1941 -0.015
34.2244 0.614
34.2547 0.357
34.2850 0.309
34.3152 0.522
34.3455 1.047
34.3758 1.832
34.4061 0.743
34.4364 1.841
34.4666 -0.082
34.4969 1.069
34.5272 0.240
34.5575 -0.016
34.5877 -0.011
34.6180 1.713
34.6483 0.364
34.6786 0.525
34.7089 1.572
34.7391 0.588
34.7694 2.156
34.7997 0.703
34.8300 0.344
34.8603 0.871
34.8905 1.189
34.9208 -0.107
34.9511 0.576
34.9814 0.790
35.0116 0.692
35.0419 1.584
35.0722 1.069
35.1025 0.815
35.1328 0.405
35.1630 0.568
35.1933 1.095
35.2236 1.571
35.2539 1.369
35.2842 0.699
35.3144 1.123
35.3447 0.401
35.3750 -0.113
35.4053 2.030
35.4356 1.777
35.4658 0.066
35.4961 0.334
35.5264 1.071
35.5567 0.714
35.5869 0.722
35.6172 1.823
35.6475 1.988
35.6778 2.308
35.7081 1.483
35.7383 1.335
35.7686 1.135
35.7989 0.779
35.8292 1.413
35.8595 2.047
35.8897 2.368
35.9200 1.856
35.9503 1.188
35.9806 1.249
36.0108 1.102
36.0411 1.163
36.0714 1.329
36.1017 2.536
36.1320 0.827
36.1622 1.826
36.1925 1.471
36.2228 0.908
36.2531 0.293
36.2834 0.719
36.3136 0.313
36.3439 1.104
36.3742 1.062
36.4045 1.802
36.4347 0.927
36.4650 0.260
36.4953 1.000
36.5256 0.125
36.5559 0.761
36.5861 0.355
36.6164 0.366
36.6467 0.533
36.6770 1.013
36.7073 0.920
36.7375 -0.631
36.7678 0.787
36.7981 0.121
36.8284 0.602
36.8586 0.978
36.8889 1.771
36.9192 0.585
36.9495 1.691
36.9798 0.296
37.0100 0.881
37.0403 2.248
37.0706 0.593
37.1009 0.293
37.1312 0.150
37.1614 1.725
37.1917 0.019
37.2220 0.188
37.2523 1.086
37.2825 0.526
37.3128 1.008
37.3431 0.708
37.3734 0.097
37.4037 0.266
37.4339 0.540
37.4642 0.606
37.4945 0.359
37.5248 0.633
37.5551 0.282
37.5853 1.181
37.6156 1.508
37.6459 0.845
37.6762 1.692
37.7064 1.446
37.7367 0.835
37.7670 1.162
37.7973 1.072
37.8276 1.920
37.8578 1.050
37.8881 1.116
37.9184 0.038
37.9487 0.261
37.9790 2.047
38.0092 1.072
38.0395 0.879
38.0698 1.155
38.1001 1.118
38.1304 1.342
38.1606 0.576
38.1909 1.477
38.2212 0.712
38.2515 1.353
38.2817 1.994
38.3120 1.333
38.3423 0.255
38.3726 1.625
38.4029 1.069
38.4331 1.658
38.4634 0.893
38.4937 0.962
38.5240 0.666
38.5543 0.735
38.5845 0.700
38.6148 0.144
38.6451 0.525
38.6754 1.741
38.7056 0.143
38.7359 0.733
38.7662 0.959
38.7965 1.081
38.8268 0.682
38.8570 0.856
38.8873 -1.002
38.9176 -0.411
38.9479 -0.445
38.9782 0.239
39.0084 0.037
39.0387 0.304
39.0690 0.468
39.0993 -0.098
39.1295 0.950
39.1598 0.593
39.1901 0.600
39.2204 0.972
39.2507 0.771
39.2809 -0.940
39.3112 -0.151
39.3415 0.742
39.3718 1.271
39.4021 0.550
39.4323 -0.223
39.4626 0.149
39.4929 0.366
39.5232 0.009
39.5534 0.226
39.5837 0.547
39.6140 0.295
39.6443 -0.061
39.6746 0.000
39.7048 0.165
39.7351 -0.138
39.7654 0.235
39.7957 -0.433
39.8260 -0.226
39.8562 0.710
39.8865 -0.072
39.9168 1.021
39.9471 1.176
39.9773 -0.544
40.0076 0.341
40.0379 0.704
40.0682 -1.119
40.0985 0.547
40.1287 -0.027
40.1590 1.692
40.1893 -0.600
40.2196 0.754
40.2499 -0.757
40.2801 0.597
40.3104 -0.132
40.3407 0.493
40.3710 0.077
40.4012 0.441
40.4315 0.494
40.4618 0.963
40.4921 -0.338
40.5224 0.339
40.5526 -0.077
40.5829 0.185
40.6132 0.134
40.6435 0.447
40.6738 0.188
40.7040 0.554
40.7343 0.763
40.7646 0.192
40.7949 0.037
40.8251 0.038
40.8554 1.238
40.8857 -0.062
40.9160 -0.008
40.9463 0.254
40.9765 1.454
41.0068 0.466
41.0371 0.365
41.0674 0.992
41.0977 0.005
41.1279 0.736
41.1582 1.312
41.1885 0.585
41.2188 0.744
41.2491 0.747
41.2793 1.062
41.3096 0.597
41.3399 0.704
41.3702 0.759
41.4004 0.867
41.4307 0.506
41.4610 0.561
41.4913 0.461
41.5216 0.725
41.5518 1.041
41.5821 0.263
41.6124 1.049
41.6427 -0.093
41.6730 0.692
41.7032 0.905
41.7335 0.284
41.7638 0.861
41.7941 1.022
41.8243 0.766
41.8546 -0.271
41.8849 0.359
41.9152 1.249
41.9455 2.452
41.9757 0.634
42.0060 1.160
42.0363 0.176
42.0666 1.118
42.0969 0.343
42.1271 1.286
42.1574 1.499
42.1877 1.140
42.2180 0.521
42.2482 -0.046
42.2785 0.845
42.3088 1.112
42.3391 1.066
42.3694 0.447
42.3996 0.453
42.4299 0.043
42.4602 -0.002
42.4905 0.785
42.5208 -0.354
42.5510 0.174
42.5813 0.337
42.6116 0.969
42.6419 -0.431
42.6721 0.618
42.7024 0.105
42.7327 0.372
42.7630 0.067
42.7933 0.491
42.8235 0.551
42.8538 0.767
42.8841 -0.163
42.9144 1.147
42.9447 0.374
42.9749 0.382
43.0052 0.442
43.0355 0.398
43.0658 0.094
43.0960 -0.106
43.1263 -0.410
43.1566 -0.197
43.1869 0.121
43.2172 -0.134
43.2474 0.288
43.2777 0.189
43.3080 -0.483
43.3383 0.825
43.3686 0.414
43.3988 -0.310
43.4291 -0.148
43.4594 0.223
43.4897 0.072
43.5199 0.495
43.5502 0.397
43.5805 1.081
43.6108 0.358
43.6411 -0.417
43.6713 0.267
43.7016 0.794
43.7319 -0.397
43.7622 -0.130
43.7925 0.033
43.8227 0.561
43.8530 -0.421
43.8833 -0.258
43.9136 -0.355
43.9439 0.642
43.9741 -0.496
44.0044 -0.437
44.0347 0.613
44.0650 0.412
44.0952 -0.049
44.1255 0.167
44.1558 0.175
44.1861 0.131
44.2164 -0.590
44.2466 0.200
44.2769 0.781
44.3072 0.008
44.3375 0.538
44.3678 0.390
44.3980 0.503
44.4283 0.251
44.4586 0.052
44.4889 0.582
44.5191 -0.503
44.5494 -0.390
44.5797 -0.241
44.6100 0.169
44.6403 0.214
44.6705 0.207
44.7008 0.200
44.7311 0.349
44.7614 0.499
44.7917 0.128
44.8219 0.173
44.8522 0.531
44.8825 -0.152
44.9128 1.040
44.9430 0.981
44.9733 0.350
45.0036 0.709
45.0339 0.130
45.0642 0.854
45.0944 -0.090
45.1247 0.478
45.1550 -0.361
45.1853 -0.054
45.2156 0.514
45.2458 0.300
45.2761 -0.122
45.3064 0.915
45.3367 0.806
45.3669 0.124
45.3972 1.160
45.4275 0.218
45.4578 -0.047
45.4881 0.678
45.5183 0.205
45.5486 1.138
45.5789 -0.116
45.6092 0.557
45.6395 0.657
45.6697 0.601
45.7000 0.961
45.7303 1.322
45.7606 0.537
45.7908 -0.821
45.8211 0.218
45.8514 0.058
45.8817 0.054
45.9120 1.041
45.9422 -0.160
45.9725 0.462
46.0028 0.146
46.0331 0.143
46.0634 0.088
46.0936 0.086
46.1239 0.344
46.1542 0.133
46.1845 -0.130
46.2147 0.753
46.2450 -0.395
46.2753 0.592
46.3056 0.955
46.3359 -0.089
46.3661 0.170
46.3964 -0.093
46.4267 -0.407
46.4570 0.107
46.4873 0.100
46.5175 -0.219
46.5478 0.555
46.5781 0.965
46.6084 0.073
46.6386 -0.038
46.6689 -0.357
46.6992 0.418
46.7295 0.360
46.7598 -0.063
46.7900 -0.173
46.8203 0.446
46.8506 0.284
46.8809 0.382
46.9112 0.272
46.9414 0.163
46.9717 -0.520
47.0020 -0.119
47.0323 -0.134
47.0626 -0.149
47.0928 0.461
47.1231 0.394
47.1534 -0.506
47.1837 0.052
47.2139 0.402
47.2442 -0.030
47.2745 0.893
47.3048 -0.163
47.3351 0.448
47.3653 0.486
47.3956 0.263
47.4259 0.405
47.4562 0.860
47.4865 -0.352
47.5167 0.885
47.5470 0.090
47.5773 0.128
47.6076 0.427
47.6378 0.934
47.6681 0.400
47.6984 0.543
47.7287 0.061
47.7590 0.205
47.7892 0.348
47.8195 0.283
47.8498 0.478
47.8801 0.934
47.9104 1.130
47.9406 -0.601
47.9709 0.480
48.0012 0.155
48.0315 0.924
48.0617 -0.025
48.0920 -0.975
48.1223 1.461
48.1526 0.355
48.1829 -0.021
48.2131 0.540
48.2434 0.581
48.2737 2.496
48.3040 -0.015
48.3343 0.442
48.3645 1.108
48.3948 0.212
48.4251 1.034
48.4554 1.179
48.4856 0.491
48.5159 1.262
48.5462 0.522
48.5765 0.980
48.6068 1.334
48.6370 0.126
48.6673 0.376
48.6976 1.147
48.7279 1.084
48.7582 1.804
48.7884 1.221
48.8187 1.107
48.8490 0.732
48.8793 0.618
48.9095 1.130
48.9398 0.703
48.9701 1.996
49.0004 1.466
49.0307 1.352
49.0609 0.458
49.0912 0.970
49.1215 1.065
49.1518 0.743
49.1821 1.672
49.2123 0.778
49.2426 0.717
49.2729 1.959
49.3032 1.117
49.3334 2.359
49.3637 0.163
49.3940 2.186
49.4243 1.032
49.4546 2.743
49.4848 0.964
49.5151 0.748
49.5454 1.209
49.5757 0.681
49.6060 0.673
49.6362 1.186
49.6665 1.439
49.6968 1.641
49.7271 2.154
49.7574 1.626
49.7876 2.505
49.8179 1.769
49.8482 2.283
49.8785 2.380
49.9087 1.696
49.9390 2.055
49.9693 2.309
49.9996 2.719
50.0299 2.035
50.0601 2.654
50.0904 3.742
50.1207 3.111
50.1510 1.803
50.1813 1.485
50.2115 3.250
50.2418 2.723
50.2721 4.385
50.3024 2.556
50.3326 3.124
50.3629 2.910
50.3932 2.592
50.4235 3.369
50.4538 3.051
50.4840 4.192
50.5143 2.781
50.5446 2.516
50.5749 3.188
50.6052 3.392
50.6354 3.648
50.6657 3.696
50.6960 3.692
50.7263 3.167
50.7565 3.527
50.7868 3.784
50.8171 2.373
50.8474 4.453
50.8777 4.033
50.9079 3.560
50.9382 4.182
50.9685 2.772
50.9988 4.592
51.0291 3.859
51.0593 3.023
51.0896 2.863
51.1199 3.069
51.1502 4.212
51.1804 3.636
51.2107 3.789
51.2410 3.735
51.2713 2.378
51.3016 4.042
51.3318 3.102
51.3621 2.319
51.3924 2.369
51.4227 3.148
51.4530 2.573
51.4832 2.675
51.5135 3.142
51.5438 2.411
51.5741 3.139
51.6043 3.398
51.6346 2.563
51.6649 2.978
51.6952 0.998
51.7255 2.090
51.7557 2.766
51.7860 2.245
51.8163 2.869
51.8466 2.451
51.8769 3.336
51.9071 2.294
51.9374 1.928
51.9677 1.147
51.9980 1.198
52.0282 1.719
52.0585 1.719
52.0888 2.500
52.1191 1.823
52.1494 1.302
52.1796 1.823
52.2099 2.084
52.2402 0.574
52.2705 1.981
52.3008 1.512
52.3310 1.096
52.3613 2.295
52.3916 1.358
52.4219 1.047
52.4521 0.110
52.4824 1.361
52.5127 2.300
52.5430 1.989
52.5733 2.303
52.6035 1.262
52.6338 2.879
52.6641 0.589
52.6944 1.788
52.7247 1.217
52.7549 2.209
52.7852 0.544
52.8155 0.702
52.8458 1.590
52.8761 1.957
52.9063 0.292
52.9366 1.389
52.9669 1.183
52.9972 0.873
53.0274 1.813
53.0577 1.399
53.0880 0.152
53.1183 1.041
53.1486 1.408
53.1788 0.787
53.2091 1.623
53.2394 1.054
53.2697 0.693
53.3000 0.384
53.3302 1.741
53.3605 0.599
53.3908 0.603
53.4211 2.013
53.4513 0.871
53.4816 0.459
53.5119 0.255
53.5422 1.040
53.5725 0.420
53.6027 0.684
53.6330 0.845
53.6633 1.892
53.6936 0.542
53.7239 1.328
53.7541 0.604
53.7844 0.088
53.8147 -0.584
53.8450 1.609
53.8752 0.364
53.9055 0.578
53.9358 1.312
53.9661 1.318
53.9964 0.907
54.0266 1.173
54.0569 1.491
54.0872 1.133
54.1175 0.930
54.1478 1.457
54.1780 0.734
54.2083 0.011
54.2386 1.841
54.2689 0.545
54.2991 0.135
54.3294 0.194
54.3597 0.929
54.3900 1.092
54.4203 0.214
54.4505 1.211
54.4808 0.697
54.5111 1.173
54.5414 0.711
54.5717 0.719
54.6019 0.049
54.6322 0.473
54.6625 0.950
54.6928 -0.084
54.7230 0.236
54.7533 1.025
54.7836 0.929
54.8139 0.520
54.8442 0.633
54.8744 0.849
54.9047 -0.132
54.9350 0.606
54.9653 -0.532
54.9956 0.258
55.0258 0.267
55.0561 0.328
55.0864 1.274
55.1167 0.814
55.1469 0.459
55.1772 0.989
55.2075 1.884
55.2378 1.112
55.2681 0.861
55.2983 0.141
55.3286 0.515
55.3589 0.369
55.3892 -0.142
55.4195 1.951
55.4497 1.180
55.4800 0.044
55.5103 0.263
55.5406 0.429
55.5709 1.585
55.6011 0.346
55.6314 0.617
55.6617 -0.206
55.6920 -0.039
55.7222 0.336
55.7525 1.233
55.7828 0.567
55.8131 -0.672
55.8434 0.328
55.8736 0.913
55.9039 0.611
55.9342 1.248
55.9645 1.103
55.9948 0.646
56.0250 0.814
56.0553 -0.997
56.0856 1.411
56.1159 -0.505
56.1461 0.549
56.1764 0.405
56.2067 0.209
56.2370 0.221
56.2673 -0.183
56.2975 0.038
56.3278 -0.158
56.3581 -0.718
56.3884 0.857
56.4187 -0.744
56.4489 1.040
56.4792 0.740
56.5095 0.805
56.5398 0.506
56.5700 1.249
56.6003 1.158
56.6306 0.234
56.6609 -0.429
56.6912 -0.315
56.7214 -0.043
56.7517 0.228
56.7820 0.343
56.8123 0.302
56.8426 0.470
56.8728 -0.092
56.9031 0.076
56.9334 0.400
56.9637 -0.057
56.9939 0.058
57.0242 0.956
57.0545 0.394
57.0848 1.031
57.1151 -0.102
57.1453 -0.038
57.1756 0.443
57.2059 0.559
57.2362 0.259
57.2665 0.740
57.2967 0.492
57.3270 1.443
57.3573 0.622
57.3876 -0.355
57.4178 0.596
57.4481 1.130
57.4784 0.466
57.5087 -0.146
57.5390 0.284
57.5692 0.141
57.5995 0.519
57.6298 0.689
57.6601 -0.079
57.6904 -0.065
57.7206 -0.572
57.7509 0.096
57.7812 0.034
57.8115 0.285
57.8417 0.172
57.8720 0.840
57.9023 1.195
57.9326 0.561
57.9629 0.709
57.9931 1.013
58.0234 0.379
58.0537 0.631
58.0840 0.518
58.1143 0.197
58.1445 0.710
58.1748 1.066
58.2051 -0.088
58.2354 0.217
58.2656 0.417
58.2959 0.514
58.3262 1.235
58.3565 1.123
58.3868 1.636
58.4170 1.994
58.4473 1.205
58.4776 1.562
58.5079 1.503
58.5382 1.548
58.5684 0.812
58.5987 1.534
58.6290 1.579
58.6593 0.843
58.6896 1.358
58.7198 0.726
58.7501 0.667
58.7804 0.453
58.8107 0.707
58.8409 1.117
58.8712 0.486
58.9015 0.116
58.9318 0.995
58.9621 0.520
58.9923 1.296
59.0226 0.353
59.0529 0.712
59.0832 0.446
59.1135 -0.236
59.1437 0.175
59.1740 0.638
59.2043 1.102
59.2346 0.889
59.2648 -0.366
59.2951 0.723
59.3254 0.301
59.3557 0.088
59.3860 0.552
59.4162 0.027
59.4465 1.169
59.4768 0.644
59.5071 0.118
59.5374 -0.198
59.5676 1.621
59.5979 0.523
59.6282 0.571
59.6585 -0.162
59.6887 0.043
59.7190 0.612
59.7493 0.140
59.7796 0.137
59.8099 -0.283
59.8401 0.130
59.8704 -0.081
59.9007 1.166
59.9310 0.486
59.9613 0.118
59.9915 0.532
60.0218 1.207
60.0521 0.944
60.0824 0.264
60.1126 0.366
60.1429 0.416
60.1732 0.362
60.2035 0.984
60.2338 0.409
60.2640 -0.009
60.2943 0.197
60.3246 1.602
60.3549 0.506
60.3852 -0.120
60.4154 0.555
60.4457 1.596
60.4760 1.126
60.5063 0.239
60.5365 0.186
60.5668 0.185
60.5971 -0.129
60.6274 -0.442
60.6577 0.181
60.6879 -0.343
60.7182 1.321
60.7485 0.173
60.7788 0.692
60.8091 0.638
60.8393 0.532
60.8696 -0.147
60.8999 0.997
60.9302 0.526
60.9604 0.577
60.9907 0.367
61.0210 0.105
61.0513 0.155
61.0816 0.675
61.1118 1.143
61.1421 0.464
61.1724 0.932
61.2027 0.567
61.2330 1.451
61.2632 0.773
61.2935 1.033
61.3238 0.824
61.3541 0.511
61.3844 0.615
61.4146 0.563
61.4449 0.614
61.4752 1.135
61.5055 0.718
61.5357 0.771
61.5660 0.667
61.5963 0.875
61.6266 0.823
61.6569 1.709
61.6871 1.085
61.7174 1.346
61.7477 1.451
61.7780 0.149
61.8083 1.557
61.8385 0.724
61.8688 2.288
61.8991 1.351
61.9294 1.196
61.9596 0.885
61.9899 1.199
62.0202 0.836
62.0505 1.463
62.0808 1.100
62.1110 0.268
62.1413 0.687
62.1716 1.678
62.2019 1.264
62.2322 1.006
62.2624 1.893
62.2927 1.062
62.3230 2.523
62.3533 1.796
62.3835 0.601
62.4138 0.864
62.4441 1.388
62.4744 1.547
62.5047 1.915
62.5349 1.449
62.5652 2.181
62.5955 1.872
62.6258 1.511
62.6561 2.452
62.6863 2.351
62.7166 1.469
62.7469 1.577
62.7772 1.789
62.8074 1.533
62.8377 2.474
62.8680 1.489
62.8983 0.816
62.9286 1.341
62.9588 1.397
62.9891 1.141
63.0194 2.083
63.0497 1.463
63.0800 2.561
63.1102 2.462
63.1405 1.737
63.1708 1.847
63.2011 1.748
63.2313 1.336
63.2616 1.081
63.2919 1.399
63.3222 1.769
63.3525 1.149
63.3827 1.311
63.4130 1.838
63.4433 1.687
63.4736 0.912
63.5039 1.230
63.5341 1.393
63.5644 1.399
63.5947 1.613
63.6250 1.620
63.6552 2.824
63.6855 2.049
63.7158 1.222
63.7461 1.333
63.7764 1.288
63.8066 2.076
63.8369 1.510
63.8672 1.048
63.8975 1.212
63.9278 2.105
63.9580 0.706
63.9883 1.651
64.0186 2.231
64.0489 1.822
64.0791 0.892
64.1094 1.212
64.1397 1.637
64.1700 1.489
64.2003 1.028
64.2305 1.088
64.2608 0.784
64.2911 2.146
64.3214 1.582
64.3517 1.226
64.3819 1.703
64.4122 1.660
64.4425 1.252
64.4728 1.834
64.5031 1.113
64.5333 1.800
64.5636 0.246
64.5939 0.620
64.6242 0.942
64.6544 1.420
64.6847 1.065
64.7150 1.023
64.7453 1.970
64.7756 1.823
64.8058 0.687
64.8361 0.853
64.8664 -0.386
64.8967 1.082
64.9270 0.467
64.9572 1.311
64.9875 0.644
65.0178 0.915
65.0481 0.717
65.0783 0.728
65.1086 0.114
65.1389 0.229
65.1692 -0.073
65.1995 0.824
65.2297 0.054
65.2600 -0.664
65.2903 0.441
65.3206 0.452
65.3509 0.724
65.3811 0.215
65.4114 -0.086
65.4417 0.030
65.4720 0.250
65.5022 0.262
65.5325 0.170
65.5628 0.026
65.5931 -0.118
65.6234 0.624
65.6536 -0.249
65.6839 0.076
65.7142 0.140
65.7445 -0.472
65.7748 0.009
65.8050 0.126
65.8353 -0.173
65.8656 -0.108
65.8959 0.634
65.9261 0.231
65.9564 0.036
65.9867 0.153
66.0170 -0.666
66.0473 0.024
66.0775 -0.066
66.1078 0.364
66.1381 0.326
66.1684 -0.129
66.1987 0.250
66.2289 0.004
66.2592 -0.034
66.2895 0.293
66.3198 -0.110
66.3500 0.582
66.3803 -0.081
66.4106 -0.014
66.4409 -0.416
66.4712 0.053
66.5014 0.730
66.5317 0.001
66.5620 -0.051
66.5923 0.002
66.6226 0.159
66.6528 0.628
66.6831 -0.465
66.7134 0.525
66.7437 0.266
66.7739 -0.411
66.8042 0.059
66.8345 -0.044
66.8648 0.322
66.8951 0.219
66.9253 0.064
66.9556 -0.143
66.9859 0.588
67.0162 -0.244
67.0465 0.175
67.0767 -0.136
67.1070 0.283
67.1373 0.076
67.1676 0.443
67.1978 0.133
67.2281 0.135
67.2584 0.242
67.2887 0.817
67.3190 0.767
67.3492 -0.011
67.3795 0.044
67.4098 -0.162
67.4401 0.674
67.4704 -0.312
67.5006 -0.257
67.5309 0.163
67.5612 0.166
67.5915 0.430
67.6218 0.069
67.6520 0.697
67.6823 0.076
67.7126 -0.024
67.7429 0.344
67.7731 0.400
67.8034 0.092
67.8337 -0.165
67.8640 -0.161
67.8943 0.104
67.9245 -0.308
67.9548 0.009
67.9851 -0.039
68.0154 -0.242
68.0457 -0.134
68.0759 0.653
68.1062 0.032
68.1365 -0.171
68.1668 0.824
68.1970 0.100
68.2273 -0.468
68.2576 -0.053
68.2879 -0.680
68.3182 0.152
68.3484 0.410
68.3787 0.409
68.4090 0.147
68.4393 -0.063
68.4696 0.404
68.4998 -0.326
68.5301 0.246
68.5604 0.245
68.5907 0.192
68.6209 1.128
68.6512 0.607
68.6815 -0.123
68.7118 0.553
68.7421 0.865
68.7723 0.292
68.8026 0.239
68.8329 0.395
68.8632 0.708
68.8935 0.135
68.9237 -0.073
68.9540 0.239
68.9843 -0.021
69.0146 -0.385
69.0448 0.448
69.0751 0.188
69.1054 0.345
69.1357 0.138
69.1660 0.243
69.1962 -0.017
69.2265 0.192
69.2568 0.506
69.2871 -0.066
69.3174 0.769
69.3476 0.926
69.3779 0.563
69.4082 -0.165
69.4385 0.514
69.4687 0.568
69.4990 -0.004
69.5293 0.519
69.5596 0.781
69.5899 0.940
69.6201 -0.048
69.6504 0.632
69.6807 -0.252
69.7110 0.115
69.7413 0.274
69.7715 0.485
69.8018 0.800
69.8321 0.647
69.8624 0.545
69.8926 0.027
69.9229 0.447
69.9532 -0.123
69.9835 0.506
70.0138 0.301
70.0440 0.721
70.0743 0.412
70.1046 0.311
70.1349 -0.050
70.1652 -0.359
70.1954 0.687
70.2257 0.014
70.2560 0.695
70.2863 0.230
70.3166 0.338
70.3468 0.395
70.3771 0.660
70.4074 0.091
70.4377 0.148
70.4679 -0.108
70.4982 -0.416
70.5285 0.156
70.5588 0.258
70.5891 0.674
70.6193 0.048
70.6496 0.151
70.6799 0.150
70.7102 0.253
70.7405 0.096
70.7707 0.043
70.8010 0.511
70.8313 -0.063
70.8616 0.666
70.8918 0.353
70.9221 -0.637
70.9524 0.248
70.9827 0.144
71.0130 -0.012
71.0432 0.717
71.0735 0.405
71.1038 0.249
71.1341 0.822
71.1644 0.406
71.1946 0.823
71.2249 0.251
71.2552 -0.165
71.2855 -0.165
71.3157 0.149
71.3460 0.254
71.3763 0.046
71.4066 0.360
71.4369 0.674
71.4671 -0.002
71.4974 0.052
71.5277 -0.520
71.5580 -0.001
71.5883 -0.158
71.6185 0.622
71.6488 0.256
71.6791 -0.422
71.7094 0.722
71.7396 -0.372
71.7699 0.252
71.8002 -0.062
71.8305 -0.114
71.8608 -0.011
71.8910 0.093
71.9213 0.457
71.9516 0.248
71.9819 0.040
72.0122 0.508
72.0424 0.508
72.0727 -0.273
72.1030 -0.169
72.1333 -0.429
72.1635 0.613
72.1938 0.092
72.2241 -0.220
72.2544 0.406
72.2847 -0.218
72.3149 -0.166
72.3452 -0.321
72.3755 0.305
72.4058 -0.059
72.4361 0.619
72.4663 0.100
72.4966 0.257
72.5269 -0.366
72.5572 0.052
72.5874 0.053
72.6177 0.628
72.6480 -0.204
72.6783 0.788
72.7086 0.477
72.7388 0.167
72.7691 0.117
72.7994 0.327
72.8297 0.017
72.8600 -0.345
72.8902 0.126
72.9205 0.181
72.9508 -0.546
72.9811 -0.134
73.0113 0.591
73.0416 0.014
73.0719 0.270
73.1022 0.474
73.1325 0.730
73.1627 0.101
73.1930 0.462
73.2233 -0.167
73.2536 0.610
73.2839 -0.643
73.3141 0.135
73.3444 0.027
73.3747 0.284
73.4050 1.531
73.4353 0.277
73.4655 0.066
73.4958 1.521
73.5261 0.060
73.5564 1.047
73.5866 0.575
73.6169 -0.365
73.6472 0.049
73.6775 -0.162
73.7078 0.773
73.7380 0.042
73.7683 0.821
73.7986 0.715
73.8289 1.025
73.8592 -0.175
73.8894 0.344
73.9197 0.239
73.9500 0.289
73.9803 -0.025
74.0105 1.380
74.0408 0.389
74.0711 0.804
74.1014 0.647
74.1317 0.645
74.1619 0.124
74.1922 0.071
74.2225 0.643
74.2528 0.434
74.2831 0.902
74.3133 -0.088
74.3436 -0.558
74.3739 1.317
74.4042 0.952
74.4344 0.535
74.4647 0.952
74.4950 0.900
74.5253 0.483
74.5556 0.327
74.5858 1.265
74.6161 0.640
74.6464 0.745
74.6767 0.589
74.7070 0.485
74.7372 0.642
74.7675 0.174
74.7978 0.488
74.8281 -0.084
74.8583 0.177
74.8886 0.543
74.9189 0.805
74.9492 0.910
74.9795 0.391
75.0097 0.601
75.0400 0.029
75.0703 0.812
75.1006 -0.019
75.1309 0.503
75.1611 0.557
75.1914 0.924
75.2217 0.145
75.2520 -0.269
75.2822 -0.059
75.3125 0.464
75.3428 0.571
75.3731 0.782
75.4034 0.837
75.4336 -0.098
75.4639 0.270
75.4942 0.273
75.5245 0.536
75.5548 0.695
75.5850 0.074
75.6153 0.181
75.6456 0.810
75.6759 -0.437
75.7061 0.088
75.7364 0.300
75.7667 0.199
75.7970 0.099
75.8273 0.207
75.8575 0.315
75.8878 0.632
75.9181 0.532
75.9484 -0.193
75.9787 -0.188
76.0089 0.233
76.0392 0.654
76.0695 0.502
76.0998 0.299
76.1301 -0.061
76.1603 0.309
76.1906 0.418
76.2209 -0.098
76.2512 -0.040
76.2814 -0.035
76.3117 0.231
76.3420 0.236
76.3723 -0.123
76.4026 0.352
76.4328 0.097
76.4631 0.259
76.4934 0.474
76.5237 0.271
76.5540 0.330
76.5842 0.127
76.6145 0.238
76.6448 0.401
76.6751 0.772
76.7053 -0.420
76.7356 -0.257
76.7659 0.375
76.7962 0.226
76.8265 0.024
76.8567 -0.333
76.8870 0.247
76.9173 0.150
76.9476 -0.364
76.9779 -0.100
77.0081 -0.044
77.0384 0.272
77.0687 0.327
77.0990 0.748
77.1292 0.595
77.1595 0.391
77.1898 -0.022
77.2201 0.294
77.2504 0.351
77.2806 -0.062
77.3109 -0.162
77.3412 0.936
77.3715 -0.101
77.4018 0.789
77.4320 0.065
77.4623 0.069
77.4926 0.283
77.5229 0.704
77.5531 0.032
77.5834 0.037
77.6137 1.188
77.6440 0.204
77.6743 -0.103
77.7045 0.371
77.7348 0.272
77.7651 -0.086
77.7954 -0.497
77.8257 0.394
77.8559 0.191
77.8862 -0.063
77.9165 0.620
77.9468 0.731
77.9770 0.581
78.0073 -0.194
78.0376 0.125
78.0679 -0.546
78.0982 -0.078
78.1284 0.599
78.1587 0.182
78.1890 -0.027
78.2193 0.233
78.2496 0.128
78.2798 0.545
78.3101 0.180
78.3404 0.128
78.3707 -0.028
78.4009 0.389
78.4312 0.546
78.4615 -0.079
78.4918 1.067
78.5221 -0.078
78.5523 0.600
78.5826 0.809
78.6129 0.341
78.6432 -0.075
78.6735 -0.490
78.7037 0.188
78.7340 0.293
78.7643 0.399
78.7946 0.192
78.8248 -0.171
78.8551 0.039
78.8854 0.717
78.9157 0.146
78.9460 0.148
78.9762 0.254
79.0065 0.412
79.0368 -0.158
79.0671 -0.312
79.0974 0.044
79.1276 0.712
79.1579 -0.077
79.1882 0.123
79.2185 0.011
79.2488 -0.257
79.2790 0.099
79.3093 0.300
79.3396 -0.020
79.3699 0.076
79.4001 0.954
79.4304 0.426
79.4607 0.315
79.4910 0.412
79.5213 0.457
79.5515 0.137
79.5818 -0.026
79.6121 -0.137
79.6424 0.221
79.6727 0.110
79.7029 -0.053
79.7332 0.409
79.7635 -0.118
79.7938 0.605
79.8240 0.286
79.8543 0.124
79.8846 0.118
79.9149 0.268
79.9452 0.575
79.9754 -0.368
80.0057 -0.166
80.0360 -0.119
80.0663 -0.073
80.0966 0.287
80.1268 -0.187
80.1571 0.432
80.1874 1.104
80.2177 -0.151
80.2479 0.105
80.2782 0.360
80.3085 0.668
80.3388 -0.378
80.3691 -0.175
80.3993 -0.023
80.4296 -0.027
80.4599 -0.031
80.4902 -0.192
80.5205 -0.040
80.5507 0.321
80.5810 0.108
80.6113 -0.104
80.6416 0.570
80.6718 0.514
80.7021 0.354
80.7324 -0.379
80.7627 0.243
80.7930 -0.021
80.8232 0.028
80.8535 0.233
80.8838 0.334
80.9141 0.227
80.9444 0.068
80.9746 -0.403
81.0049 0.219
81.0352 -0.461
81.0655 -0.046
81.0957 -0.153
81.1260 0.105
81.1563 0.467
81.1866 0.934
81.2169 0.463
81.2471 0.045
81.2774 0.460
81.3077 -0.063
81.3380 0.456
81.3683 -0.170
81.3985 -1.057
81.4288 0.347
81.4591 -0.175
81.4894 0.970
81.5196 -0.437
81.5499 0.551
81.5802 -0.179
81.6105 -0.024
81.6408 -0.024
81.6710 -0.390
81.7013 0.078
81.7316 0.285
81.7619 0.649
81.7922 -0.498
81.8224 0.230
81.8527 0.073
81.8830 0.385
81.9133 -0.344
81.9436 0.697
81.9738 -0.137
82.0041 1.061
82.0344 -0.033
82.0647 0.331
82.0949 -0.189
82.1252 -0.033
82.1555 0.123
82.1858 0.801
82.2161 0.697
82.2463 -0.240
82.2766 -0.292
82.3069 0.230
82.3372 0.022
82.3675 -0.342
82.3977 -0.082
82.4280 -0.030
82.4583 0.074
82.4886 0.022
82.5188 -0.135
82.5491 -0.135
82.5794 0.022
82.6097 -0.447
82.6400 0.179
82.6702 0.179
82.7005 0.179
82.7308 0.492
82.7611 0.389
82.7914 0.025
82.8216 0.234
82.8519 -0.025
82.8822 0.549
82.9125 -0.023
82.9427 0.499
82.9730 0.656
83.0033 0.085
83.0336 -0.435
83.0639 0.192
83.0941 0.037
83.1244 -0.169
83.1547 -0.115
83.1850 0.668
83.2153 0.409
83.2455 -0.838
83.2758 0.257
83.3061 -0.522
83.3364 -0.050
83.3666 -0.256
83.3969 -0.097
83.4272 0.061
83.4575 0.689
83.4878 0.171
83.5180 -0.347
83.5483 0.281
83.5786 0.128
83.6089 -0.338
83.6392 -0.074
83.6694 0.502
83.6997 -0.015
83.7300 0.978
83.7603 -0.268
83.7905 -0.004
83.8208 0.573
83.8511 -0.517
83.8814 -0.200
83.9117 0.012
83.9419 0.381
83.9722 -0.292
84.0025 0.389
84.0328 -0.387
84.0631 -0.331
84.0933 0.455
84.1236 -0.165
84.1539 -0.316
84.1842 0.053
84.2144 -0.150
84.2447 0.324
84.2750 0.016
84.3053 -0.343
84.3356 0.496
84.3658 0.345
84.3961 0.298
84.4264 -0.373
84.4567 1.091
84.4870 -0.466
84.5172 -0.095
84.5475 -0.245
84.5778 0.125
84.6081 0.496
84.6383 0.502
84.6686 0.144
84.6989 0.359
84.7292 -0.364
84.7595 -0.318
84.7897 0.040
84.8200 0.346
84.8503 0.028
84.8806 0.438
84.9109 -0.349
84.9411 0.218
84.9714 -0.309
85.0017 -0.263
85.0320 -0.164
85.0623 0.559
85.0925 0.085
85.1228 0.236
85.1531 0.491
85.1834 0.069
85.2136 -0.093
85.2439 -0.358
85.2742 0.939
85.3045 0.309
85.3348 0.044
85.3650 -0.013
85.3953 -0.122
85.4256 -0.074
85.4559 0.286
85.4862 0.125
85.5164 -0.035
85.5467 0.169
85.5770 0.738
85.6073 -0.100
85.6375 0.105
85.6678 0.049
85.6981 -0.371
85.7284 0.354
85.7587 0.351
85.7889 0.139
85.8192 -0.490
85.8495 0.393
85.8798 0.598
85.9101 -0.291
85.9403 -0.242
85.9706 0.328
86.0009 0.065
86.0312 0.167
86.0614 0.529
86.0917 0.057
86.1220 -0.154
86.1523 0.000
86.1826 0.102
86.2128 -0.212
86.2431 0.046
86.2734 0.565
86.3037 -0.218
86.3340 -0.064
86.3642 0.663
86.3945 -0.067
86.4248 0.348
86.4551 0.086
86.4853 -0.228
86.5156 0.448
86.5459 -0.439
86.5762 0.029
86.6065 0.028
86.6367 0.287
86.6670 0.078
86.6973 -0.183
86.7276 -0.079
86.7579 0.233
86.7881 0.336
86.8184 0.701
86.8487 -0.185
86.8790 0.388
86.9092 -0.029
86.9395 0.023
86.9698 -0.342
87.0001 -0.289
87.0304 -0.185
87.0606 0.232
87.0909 0.545
87.1212 -0.340
87.1515 -0.027
87.1818 0.495
87.2120 0.183
87.2423 0.653
87.2726 0.966
87.3029 0.030
87.3331 0.187
87.3634 0.189
87.3937 -0.175
87.4240 0.452
87.4543 -0.067
87.4845 -0.118
87.5148 0.196
87.5451 -0.166
87.5754 -0.321
87.6057 -0.319
87.6359 0.569
87.6662 0.050
87.6965 0.261
87.7268 -0.154
87.7571 0.265
87.7873 -0.045
87.8176 -0.250
87.8479 0.065
87.8782 0.432
87.9084 -0.034
87.9387 -0.187
87.9690 0.806
87.9993 -0.024
88.0296 0.344
88.0598 0.034
88.0901 -0.379
88.1204 0.250
88.1507 0.097
88.1810 0.570
88.2112 0.000
88.2415 0.265
88.2718 0.842
88.3021 -0.404
88.3323 -0.192
88.3626 0.125
88.3929 -0.131
88.4232 0.030
88.4535 0.347
88.4837 0.403
88.5140 -0.061
88.5443 -0.368
88.5746 0.366
88.6049 -0.150
88.6351 0.167
88.6654 0.641
88.6957 0.178
88.7260 0.027
88.7562 -0.280
88.7865 -0.118
88.8168 0.356
88.8471 0.570
88.8774 0.159
88.9076 0.426
88.9379 0.275
88.9682 -0.187
88.9985 -0.442
89.0288 0.241
89.0590 0.507
89.0893 0.045
89.1196 -0.106
89.1499 -0.256
89.1801 0.740
89.2104 0.121
89.2407 -0.081
89.2710 0.290
89.3013 0.037
89.3315 -0.009
89.3618 -0.158
89.3921 0.421
89.4224 0.220
89.4527 0.019
89.4829 0.442
89.5132 -0.123
89.5435 -0.168
89.5738 -0.109
89.6040 0.263
89.6343 0.636
89.6646 0.487
89.6949 0.547
89.7252 -0.539
89.7554 0.146
89.7857 0.154
89.8160 0.110
89.8463 0.118
89.8766 0.283
89.9068 0.343
89.9371 0.352
89.9674 0.360
89.9977 0.004
90.0279 0.482
90.0582 -0.082
90.0885 0.447
90.1188 -0.117
90.1491 1.038
90.1793 0.475
90.2096 0.328
90.2399 0.285
90.2702 0.555
90.3005 -0.217
90.3307 -0.311
90.3610 0.257
90.3913 0.721
90.4216 0.091
90.4518 0.452
90.4821 0.708
90.5124 0.339
90.5427 0.699
90.5730 0.591
90.6032 0.327
90.6335 0.427
90.6638 0.007
90.6941 0.055
90.7244 -0.053
90.7546 0.777
90.7849 -0.164
90.8152 0.301
90.8455 0.715
90.8758 0.191
90.9060 0.448
90.9363 0.497
90.9666 0.338
90.9969 -0.081
91.0271 -0.188
91.0574 0.591
91.0877 0.015
91.1180 0.221
91.1483 -0.042
91.1785 0.529
91.2088 0.996
91.2391 -0.361
91.2694 0.002
91.2997 0.833
91.3299 0.259
91.3602 -0.316
91.3905 0.672
91.4208 -0.319
91.4510 0.513
91.4813 0.251
91.5116 0.094
91.5419 1.447
91.5722 0.664
91.6024 0.247
91.6327 0.975
91.6630 0.297
91.6933 0.192
91.7236 0.296
91.7538 0.139
91.7841 0.243
91.8144 0.347
91.8447 0.607
91.8749 0.346
91.9052 0.086
91.9355 0.190
91.9658 0.138
91.9961 0.763
92.0263 0.815
92.0566 0.451
92.0869 0.556
92.1172 0.140
92.1475 0.505
92.1777 -0.380
92.2080 0.142
92.2383 0.247
92.2686 0.352
92.2988 0.406
92.3291 0.407
92.3594 0.512
92.3897 -0.111
92.4200 0.046
92.4502 0.465
92.4805 0.414
92.5108 -0.053
92.5411 0.001
92.5714 0.836
92.6016 0.474
92.6319 0.111
92.6622 0.738
92.6925 1.574
92.7227 0.743
92.7530 0.537
92.7833 0.331
92.8136 0.751
92.8439 0.389
92.8741 0.704
92.9044 0.551
92.9347 0.554
92.9650 0.088
92.9953 0.560
93.0255 -0.009
93.0558 0.567
93.0861 0.050
93.1164 -0.311
93.1466 -0.004
93.1769 0.148
93.2072 0.248
93.2375 0.556
93.2678 0.656
93.2980 -0.129
93.3283 0.179
93.3586 0.331
93.3889 0.484
93.4192 0.532
93.4494 0.528
93.4797 0.733
93.5100 0.156
93.5403 -0.212
93.5706 0.462
93.6008 0.199
93.6311 0.404
93.6614 0.088
93.6917 -0.384
93.7219 -0.022
93.7522 0.340
93.7825 0.702
93.8128 0.126
93.8431 -0.814
93.8733 0.590
93.9036 -0.298
93.9339 0.012
93.9642 -0.094
93.9945 0.112
94.0247 0.058
94.0550 -0.100
94.0853 0.992
94.1156 0.261
94.1458 0.312
94.1761 -0.107
94.2064 0.048
94.2367 0.672
94.2670 0.671
94.2972 0.149
94.3275 -0.061
94.3578 -0.010
94.3881 0.146
94.4184 0.249
94.4486 0.300
94.4789 -0.429
94.5092 -0.170
94.5395 -0.066
94.5697 0.246
94.6000 -0.119
94.6303 0.558
94.6606 -0.379
94.6909 -0.015
94.7211 0.350
94.7514 0.090
94.7817 0.194
94.8120 -0.534
94.8423 0.508
94.8725 0.248
94.9028 -0.220
94.9331 0.405
94.9634 0.354
94.9936 0.251
95.0239 0.148
95.0542 0.201
95.0845 0.463
95.1148 0.360
95.1450 -0.316
95.1753 0.571
95.2056 -0.469
95.2359 -0.363
95.2662 0.522
95.2964 0.054
95.3267 0.003
95.3570 -0.101
95.3873 -0.204
95.4175 0.057
95.4478 0.266
95.4781 -0.462
95.5084 0.008
95.5387 1.051
95.5689 -0.198
95.5992 -0.248
95.6295 0.170
95.6598 -0.193
95.6901 0.538
95.7203 -0.294
95.7506 0.541
95.7809 0.075
95.8112 -0.392
95.8414 0.027
95.8717 0.185
95.9020 0.500
95.9323 0.450
95.9626 0.088
95.9928 0.091
96.0231 0.510
96.0534 -0.060
96.0837 0.672
96.1140 -0.366
96.1442 -0.155
96.1745 -0.308
96.2048 -0.103
96.2351 -0.054
96.2653 -0.265
96.2956 -0.267
96.3259 0.095
96.3562 0.144
96.3865 0.454
96.4167 0.504
96.4470 1.231
96.4773 0.604
96.5076 -0.023
96.5379 0.912
96.5681 -0.131
96.5984 0.180
96.6287 0.490
96.6590 0.228
96.6893 0.487
96.7195 0.903
96.7498 0.641
96.7801 0.119
96.8104 -0.299
96.8406 0.169
96.8709 0.376
96.9012 0.063
96.9315 -0.407
96.9618 0.322
96.9920 0.581
97.0223 0.060
97.0526 0.060
97.0829 -0.045
97.1132 0.892
97.1434 0.163
97.1737 0.059
97.2040 0.736
97.2343 0.580
97.2645 0.528
97.2948 0.372
97.3251 0.945
97.3554 0.269
97.3857 0.894
97.4159 1.103
97.4462 0.427
97.4765 -0.093
97.5068 0.064
97.5371 0.534
97.5673 0.119
97.5976 0.224
97.6279 0.590
97.6582 0.331
97.6884 0.176
97.7187 -0.031
97.7490 0.596
97.7793 0.181
97.8096 0.443
97.8398 -0.440
97.8701 0.135
97.9004 0.554
97.9307 0.087
97.9610 0.662
97.9912 0.196
98.0215 0.251
98.0518 0.045
98.0821 0.308
98.1123 0.102
98.1426 -0.363
98.1729 -0.052
98.2032 -0.365
98.2335 0.468
98.2637 -0.366
98.2940 0.363
98.3243 -0.210
98.3546 0.258
98.3849 -0.002
98.4151 0.466
98.4454 -0.002
98.4757 -0.054
98.5060 0.154
98.5362 0.103
98.5665 0.416
98.5968 0.260
98.6271 0.156
98.6574 -0.155
98.6876 0.575
98.7179 0.523
98.7482 0.108
98.7785 0.630
98.8088 -0.359
98.8390 0.476
98.8693 0.321
98.8996 0.426
98.9299 -0.197
98.9601 -0.300
98.9904 0.171
99.0207 0.902
99.0510 0.331
99.0813 0.177
99.1115 -0.290
99.1418 0.493
99.1721 0.704
99.2024 0.498
99.2327 0.344
99.2629 -0.018
99.2932 0.297
99.3235 0.144
99.3538 0.615
99.3841 0.149
99.4143 0.673
99.4446 0.259
99.4749 -0.206
99.5052 -0.463
99.5354 0.686
99.5657 0.221
99.5960 0.224
99.6263 0.280
99.6566 0.440
99.6868 -0.181
99.7171 -0.073
99.7474 0.660
99.7777 0.247
99.8080 0.408
99.8382 0.933
99.8685 0.885
99.8988 -0.256
99.9291 0.321
99.9593 0.221
99.9896 -0.191
100.0199 -0.394
100.0502 0.861
100.0805 -0.020
100.1107 0.402
100.1410 0.459
100.1713 -0.160
100.2016 -0.311
100.2319 0.207
100.2621 -0.369
100.2924 0.254
100.3227 -0.165
100.3530 0.614
100.3832 -0.273
100.4135 -0.119
100.4438 0.087
100.4741 0.241
100.5044 0.344
100.5346 -0.231
100.5649 0.809
100.5952 0.183
100.6255 0.181
100.6558 0.284
100.6860 -0.238
100.7163 0.126
100.7466 -0.136
100.7769 0.436
100.8071 0.019
100.8374 0.226
100.8677 0.694
100.8980 0.485
100.9283 0.381
100.9585 0.172
100.9888 0.536
101.0191 -0.141
101.0494 0.067
101.0797 0.379
101.1099 0.119
101.1402 0.379
101.1705 0.067
101.2008 -0.037
101.2310 0.068
101.2613 1.058
101.2916 -0.139
101.3219 0.070
101.3522 -0.346
101.3824 0.175
101.4127 -0.136
101.4430 -0.135
101.4733 -0.394
101.5036 0.596
101.5338 0.389
101.5641 -0.338
101.5944 0.601
101.6247 0.029
101.6549 0.343
101.6852 0.137
101.7155 0.139
101.7458 0.349
101.7761 0.195
101.8063 0.822
101.8366 -0.426
101.8669 0.514
101.8972 -0.005
101.9275 0.415
101.9577 0.053
101.9880 -0.153
102.0183 0.058
102.0486 0.425
102.0788 0.428
102.1091 -0.194
102.1394 -0.295
102.1697 0.175
102.2000 0.333
102.2302 0.283
102.2605 -0.289
102.2908 0.234
102.3211 0.757
102.3514 0.029
102.3816 0.344
102.4119 0.085
102.4422 1.181
102.4725 0.507
102.5028 0.613
102.5330 -0.062
102.5633 0.097
102.5936 -0.161
102.6239 -0.002
102.6541 -0.311
102.6844 0.056
102.7147 0.007
102.7450 0.427
102.7753 -0.142
102.8055 0.903
102.8358 0.333
102.8661 -0.653
102.8964 -0.076
102.9267 -0.333
102.9569 0.713
102.9872 -0.065
103.0175 0.044
103.0478 0.568
103.0780 0.208
103.1083 0.108
103.1386 0.321
103.1689 0.273
103.1992 0.382
103.2294 0.126
103.2597 -0.077
103.2900 0.136
103.3203 0.453
103.3506 0.198
103.3808 -0.057
103.4111 0.156
103.4414 0.422
103.4717 -0.250
103.5019 0.016
103.5322 0.438
103.5625 0.132
103.5928 -0.123
103.6231 -0.065
103.6533 -0.059
103.6836 0.988
103.7139 0.213
103.7442 0.376
103.7745 0.174
103.8047 0.597
103.8350 -0.126
103.8653 -0.276
103.8956 0.033
103.9258 -0.336
103.9561 1.014
103.9864 -0.084
104.0167 0.069
104.0470 0.638
104.0772 -0.199
104.1075 0.735
104.1378 0.158
104.1681 0.728
104.1984 0.776
104.2286 0.148
104.2589 0.614
104.2892 0.246
104.3195 0.452
104.3497 0.449
104.3800 0.290
104.4103 -0.078
104.4406 0.128
104.4709 0.282
104.5011 0.331
104.5314 -0.088
104.5617 -0.090
104.5920 0.168
104.6223 0.843
104.6525 0.425
104.6828 -0.046
104.7131 -0.152
104.7434 0.003
104.7736 -0.415
104.8039 0.050
104.8342 -0.213
104.8645 0.148
104.8948 0.145
104.9250 0.559
104.9553 0.713
104.9856 0.033
105.0159 0.343
105.0462 0.393
105.0764 0.130
105.1067 0.440
105.1370 0.073
105.1673 0.488
105.1975 0.486
105.2278 0.171
105.2581 0.534
105.2884 -0.249
105.3187 0.531
105.3489 0.061
105.3792 0.111
105.4095 -0.046
105.4398 0.473
105.4701 0.680
105.5003 0.471
105.5306 0.678
105.5609 0.209
105.5912 -0.001
105.6215 -0.053
105.6517 -0.158
105.6820 -0.159
105.7123 0.153
105.7426 0.934
105.7728 0.257
105.8031 -0.004
105.8334 -0.264
105.8637 0.152
105.8940 0.152
105.9242 -0.108
105.9545 -0.264
105.9848 0.153
106.0151 1.039
106.0454 -0.106
106.0756 -0.158
106.1059 0.156
106.1362 -0.156
106.1665 -0.363
106.1967 0.523
106.2270 0.368
106.2573 -0.100
106.2876 -0.203
106.3179 0.372
106.3481 0.165
106.3784 0.166
106.4087 0.793
106.4390 -0.351
106.4693 0.067
106.4995 0.642
106.5298 0.279
106.5601 -0.239
106.5904 0.336
106.6206 0.182
106.6509 0.601
106.6812 -0.334
106.7115 0.241
106.7418 0.140
106.7720 0.195
106.8023 0.406
106.8326 -0.112
106.8629 0.307
106.8932 0.102
106.9234 -0.572
106.9537 -0.054
106.9840 -0.057
107.0143 0.565
107.0445 0.562
107.0748 0.246
107.1051 0.556
107.1354 0.136
107.1657 -0.543
107.1959 0.183
107.2262 0.181
107.2565 0.022
107.2868 0.228
107.3171 0.487
107.3473 0.380
107.3776 0.222
107.4079 0.116
107.4382 0.479
107.4684 0.113
107.4987 -0.202
107.5290 0.786
107.5593 0.264
107.5896 0.159
107.6198 -0.207
107.6501 0.364
107.6804 -0.001
107.7107 -0.106
107.7410 -0.211
107.7712 0.465
107.8015 0.516
107.8318 -0.266
107.8621 -0.162
107.8923 0.410
107.9226 0.514
107.9529 0.826
107.9832 0.201
108.0135 0.045
108.0437 0.253
108.0740 0.722
108.1043 -0.476
108.1346 0.150
108.1649 0.254
108.1951 -0.162
108.2254 -0.318
108.2557 0.256
108.2860 0.361
108.3163 0.101
108.3465 -0.211
108.3768 0.259
108.4071 -0.052
108.4374 0.782
108.4676 0.159
108.4979 -0.205
108.5282 0.266
108.5585 0.163
108.5888 -0.044
108.6190 0.479
108.6493 0.272
108.6796 0.691
108.7099 0.380
108.7402 0.122
108.7704 0.020
108.8007 0.804
108.8310 -0.027
108.8613 -0.546
108.8915 0.290
108.9218 0.605
108.9521 0.139
108.9824 0.298
109.0127 0.197
109.0429 0.408
109.0732 0.568
109.1035 0.154
109.1338 -0.624
109.1641 -0.106
109.1943 0.359
109.2246 0.356
109.2549 0.040
109.2852 0.610
109.3154 -0.278
109.3457 0.344
109.3760 0.029
109.4063 0.443
109.4366 0.336
109.4668 -0.031
109.4971 0.591
109.5274 0.172
109.5577 -0.247
109.5880 -0.092
109.6182 0.687
109.6485 -0.044
109.6788 0.058
109.7091 0.056
109.7393 0.159
109.7696 0.157
109.7999 -0.105
109.8302 0.571
109.8605 -0.056
109.8907 0.204
109.9210 -0.318
109.9513 -0.007
109.9816 0.669
110.0119 0.043
110.0421 0.668
110.0724 0.459
110.1027 0.302
110.1330 0.093
110.1632 -0.376
110.1935 0.196
110.2238 0.248
110.2541 -0.221
110.2844 -0.065
110.3146 -0.012
110.3449 0.352
110.3752 -0.064
110.4055 0.145
110.4358 -0.011
110.4660 0.198
110.4963 0.615
110.5266 0.251
110.5569 -0.061
110.5871 0.721
110.6174 0.358
110.6477 0.723
110.6780 0.360
110.7083 0.101
110.7385 -0.002
110.7688 0.468
110.7991 0.730
110.8294 0.315
110.8597 -0.257
110.8899 -0.307
110.9202 0.372
110.9505 -0.407
110.9808 0.480
111.0110 -0.038
111.0413 0.328
111.0716 -0.034
111.1019 0.489
111.1322 0.023
111.1624 0.130
111.1927 -0.180
111.2230 0.135
111.2533 -0.591
111.2836 0.349
111.3138 -0.064
111.3441 0.251
111.3744 0.046
111.4047 -0.419
111.4350 0.418
111.4652 0.421
111.4955 -0.148
111.5258 0.637
111.5561 0.067
111.5863 0.592
111.6166 -0.394
111.6469 0.183
111.6772 0.240
111.7075 0.869
111.7377 0.248
111.7680 -0.060
111.7983 -0.212
111.8286 -0.311
111.8589 0.258
111.8891 0.308
111.9194 0.148
111.9497 0.302
111.9800 0.299
112.0102 -0.068
112.0405 0.033
112.0708 -0.178
112.1011 0.445
112.1314 0.130
112.1616 0.336
112.1919 0.595
112.2222 0.072
112.2525 0.174
112.2828 0.276
112.3130 -0.194
112.3433 0.585
112.3736 0.584
112.4039 -0.355
112.4341 0.633
112.4644 0.475
112.4947 -0.047
112.5250 0.369
112.5553 0.836
112.5855 0.054
112.6158 -0.311
112.6461 0.000
112.6764 0.781
112.7067 -0.001
112.7369 0.206
112.7672 0.049
112.7975 -0.055
112.8278 -0.108
112.8580 0.882
112.8883 0.517
112.9186 0.256
112.9489 0.621
112.9792 0.413
113.0094 0.152
113.0397 -0.472
113.0700 -0.055
113.1003 0.570
113.1306 -0.107
113.1608 0.154
113.1911 0.207
113.2214 0.520
113.2517 -0.052
113.2819 0.626
113.3122 -0.206
113.3425 0.368
113.3728 0.474
113.4031 0.371
113.4333 0.685
113.4636 0.634
113.4939 0.011
113.5242 0.325
113.5545 0.483
113.5847 0.329
113.6150 0.018
113.6453 0.489
113.6756 0.126
113.7058 0.285
113.7361 0.391
113.7664 0.029
113.7967 0.240
113.8270 0.659
113.8572 -0.119
113.8875 -0.012
113.9178 0.095
113.9481 0.046
113.9784 0.934
114.0086 0.156
114.0389 0.941
114.0692 0.736
114.0995 -0.042
114.1298 -0.351
114.1600 0.225
114.1903 0.177
114.2206 0.493
114.2509 0.028
114.2811 -0.020
114.3114 0.505
114.3417 -0.012
114.3720 0.513
114.4023 0.153
114.4325 -0.311
114.4628 -0.110
114.4931 0.457
114.5234 0.555
114.5537 0.444
114.5839 0.386
114.6142 -0.245
114.6445 0.269
114.6748 0.263
114.7050 -0.263
114.7353 -0.165
114.7656 0.090
114.7959 0.136
114.8262 -0.182
114.8564 0.125
114.8867 0.328
114.9170 0.219
114.9473 0.214
114.9776 0.729
115.0078 -0.213
115.0381 0.668
115.0684 -0.066
115.0987 -0.279
115.1289 0.810
115.1592 0.545
115.1895 0.124
115.2198 0.223
115.2501 0.271
115.2803 0.007
115.3106 0.888
115.3409 0.259
115.3712 0.724
115.4015 0.251
115.4317 -0.221
115.4620 0.348
115.4923 -0.489
115.5226 0.289
115.5528 -0.287
115.5831 0.178
115.6134 -0.346
115.6437 0.276
115.6740 -0.039
115.7042 0.843
115.7345 0.476
115.7648 1.046
115.7951 -0.050
115.8254 -0.313
115.8556 0.674
115.8859 0.203
115.9162 0.149
115.9465 0.511
115.9767 -0.012
116.0070 0.142
116.0373 0.870
116.0676 0.035
116.0979 -0.019
116.1281 -0.229
116.1584 0.811
116.1887 0.757
116.2190 0.704
116.2493 -0.079
116.2795 0.181
116.3098 0.284
116.3401 0.231
116.3704 0.334
116.4006 0.906
116.4309 -0.084
116.4612 0.019
116.4915 0.488
116.5218 -0.294
116.5520 0.070
116.5823 0.799
116.6126 0.278
116.6429 0.278
116.6732 0.330
116.7034 0.330
116.7337 -0.295
116.7640 -0.294
116.7943 0.175
116.8245 -0.138
116.8548 0.332
116.8851 0.488
116.9154 0.489
116.9457 0.125
116.9759 0.230
117.0062 -0.342
117.0365 0.076
117.0668 0.389
117.0971 -0.026
117.1273 0.340
117.1576 0.237
117.1879 0.342
117.2182 0.084
117.2485 0.241
117.2787 -0.278
117.3090 0.089
117.3393 -0.170
117.3696 -0.116
117.3998 0.772
117.4301 0.305
117.4604 0.412
117.4907 0.466
117.5210 -0.365
117.5512 0.159
117.5815 0.526
117.6118 -0.044
117.6421 0.896
117.6724 0.170
117.7026 0.120
117.7329 0.176
117.7632 -0.290
117.7935 -0.237
117.8237 0.336
117.8540 0.546
117.8843 0.182
117.9146 0.183
117.9449 0.028
117.9751 0.133
118.0054 -0.178
118.0357 0.188
118.0660 0.242
118.0963 -0.330
118.1265 -0.068
118.1568 0.038
118.1871 0.249
118.2174 0.355
118.2476 1.034
118.2779 0.359
118.3082 0.101
118.3385 0.155
118.3688 0.157
118.3990 0.212
118.4293 0.110
118.4596 1.259
118.4899 0.637
118.5202 0.067
118.5504 0.278
118.5807 0.281
118.6110 0.909
118.6413 0.287
118.6715 -0.022
118.7018 0.294
118.7321 0.037
118.7624 0.301
118.7927 0.565
118.8229 -0.056
118.8532 -0.208
118.8835 0.108
118.9138 0.268
118.9441 0.272
118.9743 -0.036
119.0046 0.385
119.0349 0.337
119.0652 0.446
119.0954 0.399
119.1257 0.560
119.1560 0.356
119.1863 -0.108
119.2166 -0.311
119.2468 0.154
119.2771 0.932
119.3074 -0.112
119.3377 -0.115
119.3680 0.195
119.3982 0.036
119.4285 0.397
119.4588 0.447
119.4891 0.184
119.5193 1.171
119.5496 0.232
119.5799 0.177
119.6102 0.175
119.6405 -0.087
119.6707 0.223
119.7010 0.586
119.7313 0.272
119.7616 0.010
119.7919 0.633
119.8221 0.059
119.8524 0.422
119.8827 0.004
119.9130 0.576
119.9433 0.523
119.9735 0.470
120.0038 0.000
