'Id: "" Comment: "" Operator: "Lab Manager" Anode: "Cu" Scantype: "Locked Coupled" TimePerStep: "19.2" X: "9999" Y: "9999" Z: "9999" 
10.0015 0.000
10.0318 -0.357
10.0620 -0.209
10.0923 0.305
10.1226 -0.067
10.1529 0.082
10.1832 0.022
10.2134 0.171
10.2437 0.164
10.2740 -0.416
10.3043 -0.142
10.3346 1.173
10.3648 0.562
10.3951 -0.362
10.4254 0.797
10.4557 0.499
10.4859 -0.373
10.5162 -0.098
10.5465 0.020
10.5768 0.138
10.6071 0.517
10.6373 0.375
10.6676 0.442
10.6979 0.196
10.7282 0.211
10.7585 0.487
10.7887 0.241
10.8190 -0.317
10.8493 0.324
10.8796 -0.234
10.9098 0.927
10.9401 0.370
10.9704 -0.187
11.0007 -0.224
11.0310 0.053
11.0612 0.069
11.0915 0.918
11.1218 0.101
11.1521 0.117
11.1824 0.290
11.2126 0.932
11.2429 0.896
11.2732 0.496
11.3035 0.669
11.3337 0.634
11.3640 0.026
11.3943 0.460
11.4246 0.738
11.4549 0.131
11.4851 0.981
11.5154 -0.043
11.5457 -0.442
11.5760 0.076
11.6063 0.333
11.6365 0.226
11.6668 0.066
11.6971 0.220
11.7274 0.269
11.7577 0.475
11.7879 0.472
11.8182 -0.312
11.8485 1.196
11.8788 0.100
11.9090 -0.110
11.9393 0.513
11.9696 0.042
11.9999 0.769
12.0302 0.403
12.0604 0.401
12.0907 0.348
12.1210 0.138
12.1513 0.397
12.1816 -0.125
12.2118 1.124
12.2421 0.654
12.2724 -0.076
12.3027 0.600
12.3329 -0.129
12.3632 0.287
12.3935 0.026
12.4238 0.026
12.4541 0.598
12.4843 0.598
12.5146 -0.443
12.5449 0.442
12.5752 0.182
12.6055 0.026
12.6357 -0.234
12.6660 -0.285
12.6963 -0.076
12.7266 -0.023
12.7568 0.499
12.7871 -0.072
12.8174 0.085
12.8477 -0.278
12.8780 -0.120
12.9082 -0.014
12.9385 0.197
12.9688 0.303
12.9991 1.242
13.0294 -0.057
13.0596 0.674
13.0899 -0.105
13.1202 0.158
13.1505 0.317
13.1807 0.528
13.2110 0.219
13.2413 -0.091
13.2716 0.069
13.3019 0.020
13.3321 -0.029
13.3624 0.026
13.3927 0.290
13.4230 0.346
13.4533 -0.067
13.4835 0.510
13.5138 0.254
13.5441 0.466
13.5744 0.627
13.6046 0.058
13.6349 -0.406
13.6652 0.796
13.6955 -0.241
13.7258 0.129
13.7560 0.446
13.7863 -0.070
13.8166 0.039
13.8469 0.878
13.8772 0.206
13.9074 0.368
13.9377 -0.199
13.9680 -0.142
13.9983 0.437
14.0285 0.130
14.0588 0.918
14.0891 -0.326
14.1194 -0.112
14.1497 0.103
14.1799 0.214
14.2102 0.168
14.2405 -0.138
14.2708 0.650
14.3011 -0.333
14.3313 0.091
14.3616 0.254
14.3919 -0.467
14.4222 -0.205
14.4524 0.057
14.4827 0.059
14.5130 0.374
14.5433 -0.561
14.5736 0.170
14.6038 -0.088
14.6341 0.332
14.6644 -0.343
14.6947 0.597
14.7250 -0.181
14.7552 0.083
14.7855 0.034
14.8158 0.558
14.8461 0.040
14.8764 -0.165
14.9066 0.672
14.9369 0.468
14.9672 0.003
14.9975 0.371
15.0277 0.011
15.0580 0.015
15.0883 0.071
15.1186 0.076
15.1489 0.028
15.1791 -0.071
15.2094 0.298
15.2397 -0.374
15.2700 0.412
15.3003 -0.208
15.3305 -0.255
15.3608 0.109
15.3911 0.472
15.4214 0.367
15.4516 0.159
15.4819 0.471
15.5122 0.002
15.5425 0.210
15.5728 0.314
15.6030 -0.051
15.6333 -0.415
15.6636 0.418
15.6939 0.002
15.7242 0.315
15.7544 -0.518
15.7847 0.160
15.8150 -0.152
15.8453 0.057
15.8755 0.058
15.9058 -0.149
15.9361 -0.304
15.9664 0.322
15.9967 0.584
16.0269 -0.248
16.0572 0.171
16.0875 -0.036
16.1178 -0.607
16.1481 0.176
16.1783 -0.186
16.2086 0.233
16.2389 0.547
16.2692 0.394
16.2994 0.709
16.3297 -0.226
16.3600 0.454
16.3903 0.040
16.4206 -0.061
16.4508 0.046
16.4811 -0.003
16.5114 -0.208
16.5417 -0.205
16.5720 0.059
16.6022 -0.093
16.6325 1.160
16.6628 0.123
16.6931 -0.082
16.7233 -0.338
16.7536 0.395
16.7839 0.191
16.8142 0.508
16.8445 0.513
16.8747 -0.524
16.9050 0.262
16.9353 -0.306
16.9656 0.167
16.9959 -0.244
17.0261 -0.295
17.0564 0.488
17.0867 -0.240
17.1170 -0.551
17.1472 0.493
17.1775 0.234
17.2078 -0.024
17.2381 0.343
17.2684 -0.020
17.2986 0.191
17.3289 -0.171
17.3592 -0.220
17.3895 0.251
17.4198 -0.111
17.4500 0.048
17.4803 -0.053
17.5106 -0.206
17.5409 -0.046
17.5712 0.061
17.6014 -0.092
17.6317 -0.192
17.6620 0.437
17.6923 -0.289
17.7225 0.184
17.7528 -0.020
17.7831 0.817
17.8134 0.457
17.8437 -0.112
17.8739 0.309
17.9042 -0.259
17.9345 -0.254
17.9648 0.793
17.9951 0.173
18.0253 0.126
18.0556 -0.181
18.0859 -0.019
18.1162 0.247
18.1464 -0.268
18.1767 0.415
18.2070 0.108
18.2373 -0.146
18.2676 0.016
18.2978 0.335
18.3281 -0.388
18.3584 -0.173
18.3887 -0.010
18.4190 -0.264
18.4492 0.264
18.4795 0.271
18.5098 0.174
18.5401 0.181
18.5703 -0.020
18.6006 -0.221
18.6309 -0.012
18.6612 0.406
18.6915 0.251
18.7217 0.304
18.7520 0.618
18.7823 -0.370
18.8126 0.204
18.8429 -0.159
18.8731 0.104
18.9034 -0.051
18.9337 0.212
18.9640 0.005
18.9942 0.528
19.0245 -0.251
19.0548 0.325
19.0851 0.223
19.1154 -0.087
19.1456 -0.032
19.1759 0.440
19.2062 0.599
19.2365 0.342
19.2668 0.085
19.2970 0.348
19.3273 -0.482
19.3576 0.407
19.3879 0.046
19.4181 -0.002
19.4484 -0.154
19.4787 0.631
19.5090 -0.146
19.5393 0.119
19.5695 0.383
19.5998 0.127
19.6301 -0.233
19.6604 -0.079
19.6907 0.284
19.7209 0.594
19.7512 0.384
19.7815 0.017
19.8118 0.172
19.8420 -0.142
19.8723 0.013
19.9026 0.116
19.9329 0.375
19.9632 -0.043
19.9934 0.112
20.0237 0.476
20.0540 0.006
20.0843 -0.203
20.1146 0.161
20.1448 0.109
20.1751 -0.048
20.2054 0.420
20.2357 0.004
20.2659 0.368
20.2962 0.160
20.3265 -0.204
20.3568 0.317
20.3871 0.005
20.4173 0.422
20.4476 -0.098
20.4779 -0.046
20.5082 0.007
20.5385 -0.096
20.5687 -0.043
20.5990 -0.094
20.6293 0.428
20.6596 -0.039
20.6899 0.223
20.7201 0.173
20.7504 0.695
20.7807 0.593
20.8110 0.438
20.8412 -0.184
20.8715 0.026
20.9018 0.341
20.9321 -0.178
20.9624 0.346
20.9926 0.296
21.0229 0.247
21.0532 0.041
21.0835 0.253
21.1138 -0.109
21.1440 -0.106
21.1743 0.002
21.2046 0.161
21.2349 0.061
21.2651 -0.144
21.2954 0.172
21.3257 -0.293
21.3560 0.128
21.3863 -0.233
21.4165 0.136
21.4468 0.193
21.4771 -0.532
21.5074 0.149
21.5377 -0.054
21.5679 0.471
21.5982 0.997
21.6285 0.898
21.6588 0.486
21.6890 0.231
21.7193 -0.337
21.7496 -0.175
21.7799 0.144
21.8102 0.202
21.8404 -0.052
21.8707 0.110
21.9010 0.586
21.9313 0.019
21.9616 0.234
21.9918 0.345
22.0221 0.300
22.0524 -0.005
22.0827 -0.207
22.1129 0.050
22.1432 0.254
22.1735 0.250
22.2038 0.038
22.2341 -0.070
22.2643 0.551
22.2946 -0.130
22.3249 0.284
22.3552 0.072
22.3855 0.329
22.4157 0.222
22.4460 0.583
22.4763 -0.097
22.5066 0.161
22.5368 0.315
22.5671 0.520
22.5974 0.570
22.6277 0.359
22.6580 -0.164
22.6882 0.094
22.7185 0.249
22.7488 -0.170
22.7791 0.245
22.8094 0.087
22.8396 0.085
22.8699 0.084
22.9002 0.343
22.9305 0.081
22.9607 0.289
22.9910 0.652
23.0213 -0.182
23.0516 -0.027
23.0819 0.546
23.1121 0.076
23.1424 0.128
23.1727 -0.550
23.2030 0.388
23.2333 -0.237
23.2635 -0.029
23.2938 0.075
23.3241 0.752
23.3544 0.336
23.3846 -0.080
23.4149 0.077
23.4452 0.233
23.4755 -0.026
23.5058 -0.129
23.5360 -0.233
23.5663 0.185
23.5966 0.030
23.6269 0.240
23.6572 0.189
23.6874 -0.018
23.7177 0.348
23.7480 -0.119
23.7783 -0.169
23.8086 0.094
23.8388 -0.008
23.8691 -0.006
23.8994 -0.108
23.9297 0.311
23.9599 -0.103
23.9902 0.056
24.0205 -0.046
24.0508 -0.095
24.0811 0.169
24.1113 0.172
24.1416 0.071
24.1719 0.334
24.2022 0.130
24.2325 0.081
24.2627 0.553
24.2930 0.245
24.3233 -0.429
24.3536 0.200
24.3838 0.257
24.4141 0.261
24.4444 -0.308
24.4747 0.113
24.5050 -0.195
24.5352 0.174
24.5655 -0.081
24.5958 -0.337
24.6261 0.130
24.6564 -0.029
24.6866 0.386
24.7169 0.123
24.7472 0.121
24.7775 0.276
24.8077 0.274
24.8380 0.220
24.8683 0.062
24.8986 0.321
24.9289 -0.201
24.9591 0.215
24.9894 0.162
25.0197 0.525
25.0500 0.837
25.0803 0.003
25.1105 0.367
25.1408 0.418
25.1711 -0.311
25.2014 -0.051
25.2316 -0.051
25.2619 0.105
25.2922 0.105
25.3225 0.001
25.3528 -0.051
25.3830 -0.207
25.4133 0.419
25.4436 -0.206
25.4739 0.160
25.5042 0.056
25.5344 0.109
25.5647 0.215
25.5950 0.372
25.6253 0.009
25.6555 0.635
25.6858 -0.197
25.7161 0.065
25.7464 0.327
25.7767 0.173
25.8069 -0.086
25.8372 -0.188
25.8675 -0.084
25.8978 -0.032
25.9281 0.124
25.9583 -0.033
25.9886 0.175
26.0189 -0.033
26.0492 0.280
26.0794 0.228
26.1097 0.176
26.1400 -0.188
26.1703 -0.137
26.2006 0.227
26.2308 0.278
26.2611 0.278
26.2914 -0.140
26.3217 -0.140
26.3520 0.693
26.3822 0.224
26.4125 -0.349
26.4428 0.328
26.4731 -0.245
26.5034 0.172
26.5336 -0.088
26.5639 0.069
26.5942 0.173
26.6245 -0.295
26.6547 0.071
26.6850 0.228
26.7153 -0.188
26.7456 -0.238
26.7759 0.336
26.8061 0.390
26.8364 0.027
26.8667 0.237
26.8970 0.291
26.9273 -0.280
26.9575 0.035
26.9878 -0.015
27.0181 -0.012
27.0484 0.355
27.0786 0.357
27.1089 0.048
27.1392 -0.054
27.1695 0.210
27.1998 0.056
27.2300 -0.045
27.2603 -0.041
27.2906 -0.090
27.3209 0.226
27.3512 0.178
27.3814 0.129
27.4117 -0.075
27.4420 0.033
27.4723 -0.432
27.5025 0.249
27.5328 0.514
27.5631 0.414
27.5934 0.731
27.6237 0.163
27.6539 0.116
27.6842 0.016
27.7145 0.490
27.7448 -0.182
27.7751 0.032
27.8053 0.245
27.8356 0.459
27.8659 -0.108
27.8962 0.262
27.9264 0.788
27.9567 0.221
27.9870 0.852
28.0173 0.077
28.0476 0.396
28.0778 -0.275
28.1081 0.096
28.1384 0.363
28.1687 0.369
28.1990 0.272
28.2292 0.331
28.2595 0.338
28.2898 0.605
28.3201 0.092
28.3503 0.099
28.3806 -0.206
28.4109 -0.060
28.4412 0.712
28.4715 0.025
28.5017 0.745
28.5320 0.371
28.5623 0.257
28.5926 0.665
28.6229 0.447
28.6531 0.126
28.6834 0.377
28.7137 0.264
28.7440 0.099
28.7742 -0.117
28.8045 0.760
28.8348 0.335
28.8651 0.951
28.8954 -0.046
28.9256 0.362
28.9559 0.198
28.9862 0.503
29.0165 0.079
29.0468 -0.137
29.0770 0.168
29.1073 0.317
29.1376 0.101
29.1679 0.563
29.1981 0.035
29.2284 0.237
29.2587 0.178
29.2890 -0.037
29.3193 -0.304
29.3495 0.314
29.3798 0.621
29.4101 0.042
29.4404 0.660
29.4707 -0.231
29.5009 0.076
29.5312 -0.191
29.5615 0.012
29.5918 -0.045
29.6221 0.157
29.6523 -0.160
29.6826 -0.009
29.7129 0.611
29.7432 -0.124
29.7734 -0.233
29.8037 0.177
29.8340 0.014
29.8643 -0.201
29.8946 0.157
29.9248 0.515
29.9551 -0.220
29.9854 0.347
30.0157 0.080
30.0460 0.074
30.0762 0.120
30.1065 0.323
30.1368 0.161
30.1671 0.416
30.1973 0.098
30.2276 0.249
30.2579 -0.225
30.2882 0.239
30.3185 0.286
30.3487 -0.136
30.3790 0.120
30.4093 0.167
30.4396 0.215
30.4699 0.106
30.5001 0.154
30.5304 0.098
30.5607 0.510
30.5910 0.454
30.6212 0.034
30.6515 0.447
30.6818 0.443
30.7121 0.075
30.7424 0.436
30.7726 0.172
30.8029 0.482
30.8332 0.739
30.8635 0.736
30.8938 0.525
30.9240 0.470
30.9543 0.780
30.9846 0.829
31.0149 0.879
31.0451 0.929
31.0754 1.343
31.1057 0.664
31.1360 1.860
31.1663 1.181
31.1965 1.700
31.2268 2.011
31.2571 1.957
31.2874 2.789
31.3177 3.308
31.3479 2.995
31.3782 3.254
31.4085 4.711
31.4388 5.856
31.4690 6.376
31.4993 8.407
31.5296 7.729
31.5599 10.385
31.5902 8.614
31.6204 10.697
31.6507 10.593
31.6810 9.291
31.7113 7.676
31.7416 6.843
31.7718 6.687
31.8021 5.281
31.8324 3.928
31.8627 2.939
31.8929 3.200
31.9232 2.003
31.9535 2.525
31.9838 2.214
32.0141 1.694
32.0443 1.435
32.0746 1.593
32.1049 0.969
32.1352 0.606
32.1655 0.972
32.1957 0.818
32.2260 1.081
32.2563 0.301
32.2866 0.720
32.3169 0.931
32.3471 0.621
32.3774 0.415
32.4077 0.939
32.4380 0.525
32.4682 0.788
32.4985 1.051
32.5288 0.325
32.5591 0.381
32.5894 0.176
32.6196 0.387
32.6499 -0.026
32.6802 0.395
32.7105 0.971
32.7408 0.038
32.7710 -0.167
32.8013 -0.215
32.8316 -0.014
32.8619 0.500
32.8921 -0.548
32.9224 -0.035
32.9527 -0.093
32.9830 0.369
33.0133 0.466
33.0435 0.147
33.0738 0.245
33.1041 -0.282
33.1344 0.650
33.1647 0.175
33.1949 -0.352
33.2252 0.059
33.2555 -0.311
33.2858 -0.004
33.3160 0.407
33.3463 0.506
33.3766 0.137
33.4069 -0.024
33.4372 0.283
33.4674 0.070
33.4977 0.378
33.5280 0.009
33.5583 0.057
33.5886 0.261
33.6188 -0.368
33.6491 0.409
33.6794 0.665
33.7097 0.505
33.7399 1.126
33.7702 0.810
33.8005 0.078
33.8308 0.491
33.8611 0.696
33.8913 0.953
33.9216 1.158
33.9519 0.895
33.9822 1.986
34.0125 2.244
34.0427 1.772
34.0730 2.863
34.1033 3.590
34.1336 6.296
34.1638 7.544
34.1941 8.636
34.2244 12.280
34.2547 12.173
34.2850 12.536
34.3152 11.024
34.3455 9.669
34.3758 6.021
34.4061 4.874
34.4364 3.935
34.4666 2.580
34.4969 2.058
34.5272 1.953
34.5575 0.859
34.5877 0.754
34.6180 1.170
34.6483 0.805
34.6786 0.805
34.7089 0.753
34.7391 0.648
34.7694 0.648
34.7997 0.076
34.8300 0.649
34.8603 -0.132
34.8905 0.545
34.9208 0.754
34.9511 0.495
34.9814 0.339
35.0116 0.809
35.0419 0.341
35.0722 0.446
35.1025 0.916
35.1328 0.084
35.1630 0.711
35.1933 0.713
35.2236 0.506
35.2539 0.768
35.2842 0.718
35.3144 0.251
35.3447 0.618
35.3750 0.672
35.4053 0.414
35.4356 0.990
35.4658 0.888
35.4961 1.099
35.5264 1.883
35.5567 0.844
35.5869 2.149
35.6172 1.944
35.6475 2.520
35.6778 2.732
35.7081 2.423
35.7383 2.947
35.7686 3.159
35.7989 3.944
35.8292 4.365
35.8595 5.202
35.8897 5.936
35.9200 6.617
35.9503 8.184
35.9806 9.542
36.0108 9.651
36.0411 11.479
36.0714 12.890
36.1017 13.051
36.1320 13.837
36.1622 13.217
36.1925 11.243
36.2228 11.092
36.2531 11.098
36.2834 7.510
36.3136 6.942
36.3439 6.115
36.3742 5.339
36.4045 5.397
36.4347 3.841
36.4650 3.691
36.4953 2.552
36.5256 2.506
36.5559 3.242
36.5861 2.780
36.6164 2.005
36.6467 1.491
36.6770 1.342
36.7073 1.557
36.7375 0.940
36.7678 0.686
36.7981 0.434
36.8284 0.701
36.8586 0.553
36.8889 0.665
36.9192 0.464
36.9495 0.681
36.9798 0.272
37.0100 0.280
37.0403 0.966
37.0706 0.505
37.1009 0.462
37.1312 0.158
37.1614 0.115
37.1917 -0.085
37.2220 0.393
37.2523 0.246
37.2825 0.255
37.3128 -0.308
37.3431 -0.195
37.3734 0.175
37.4037 0.649
37.4339 -0.180
37.4642 0.399
37.4945 -0.169
37.5248 0.149
37.5551 -0.158
37.5853 0.161
37.6156 0.375
37.6459 -0.088
37.6762 -0.082
37.7064 0.133
37.7367 0.191
37.7670 0.302
37.7973 -0.369
37.8276 0.106
37.8578 0.374
37.8881 -0.192
37.9184 0.023
37.9487 0.395
37.9790 0.402
38.0092 0.097
38.0395 -0.104
38.0698 0.111
38.1001 0.432
38.1304 0.127
38.1606 0.135
38.1909 0.299
38.2212 -0.110
38.2515 0.263
38.2817 0.271
38.3120 0.332
38.3423 -0.128
38.3726 0.089
38.4029 -0.059
38.4331 -0.206
38.4634 0.106
38.4937 0.419
38.5240 -0.049
38.5543 0.003
38.5845 -0.048
38.6148 0.004
38.6451 0.109
38.6754 0.266
38.7056 0.372
38.7359 -0.096
38.7662 -0.043
38.7965 0.375
38.8268 0.272
38.8570 -0.299
38.8873 0.380
38.9176 0.121
38.9479 0.436
38.9782 -0.240
39.0084 0.179
39.0387 -0.027
39.0690 0.080
39.0993 -0.022
39.1295 -0.020
39.1598 -0.017
39.1901 -0.170
39.2204 0.145
39.2507 -0.113
39.2809 0.047
39.3112 0.050
39.3415 0.210
39.3718 0.265
39.4021 -0.096
39.4323 0.168
39.4626 0.120
39.4929 0.176
39.5232 -0.133
39.5534 0.028
39.5837 0.084
39.6140 0.036
39.6443 -0.012
39.6746 0.357
39.7048 -0.002
39.7351 -0.154
39.7654 0.057
39.7957 0.320
39.8260 0.323
39.8562 0.378
39.8865 0.277
39.9168 0.019
39.9471 -0.134
39.9773 -0.026
40.0076 -0.127
40.0379 0.137
40.0682 0.297
40.0985 0.249
40.1287 0.148
40.1590 0.413
40.1893 -0.104
40.2196 0.161
40.2499 0.165
40.2801 0.430
40.3104 -0.139
40.3407 0.387
40.3710 -0.025
40.4012 0.344
40.4315 0.193
40.4618 0.198
40.4921 -0.005
40.5224 0.521
40.5526 0.318
40.5829 0.011
40.6132 0.277
40.6435 -0.186
40.6738 -0.128
40.7040 0.128
40.7343 0.175
40.7646 0.482
40.7949 0.373
40.8251 0.004
40.8554 0.155
40.8857 -0.109
40.9160 0.199
40.9463 0.246
40.9765 -0.018
41.0068 0.186
41.0371 0.495
41.0674 0.074
41.0977 0.070
41.1279 0.015
41.1582 0.219
41.1885 0.008
41.2188 -0.152
41.2491 0.262
41.2793 -0.002
41.3096 0.256
41.3399 0.096
41.3702 0.250
41.4004 0.247
41.4307 0.245
41.4610 0.034
41.4913 0.188
41.5216 0.342
41.5518 -0.025
41.5821 0.130
41.6124 0.180
41.6427 0.282
41.6730 0.281
41.7032 0.019
41.7335 -0.139
41.7638 0.016
41.7941 0.015
41.8243 -0.038
41.8546 0.117
41.8849 0.428
41.9152 0.011
41.9455 -0.042
41.9757 0.426
42.0060 -0.095
42.0363 -0.043
42.0666 0.113
42.0969 -0.043
42.1271 -0.043
42.1574 -0.147
42.1877 -0.095
42.2180 0.114
42.2482 0.115
42.2785 0.167
42.3088 0.012
42.3391 0.117
42.3694 0.066
42.3996 0.171
42.4299 0.016
42.4602 -0.138
42.4905 -0.033
42.5208 0.125
42.5510 -0.134
42.5813 0.024
42.6116 0.183
42.6419 -0.388
42.6721 -0.128
42.7024 0.028
42.7327 -0.077
42.7630 -0.025
42.7933 0.444
42.8235 -0.129
42.8538 0.080
42.8841 -0.128
42.9144 -0.180
42.9447 0.183
42.9749 0.024
43.0052 0.127
43.0355 0.281
43.0658 0.071
43.0960 0.070
43.1263 -0.140
43.1566 0.067
43.1869 0.014
43.2172 0.065
43.2474 -0.092
43.2777 -0.093
43.3080 -0.042
43.3383 0.166
43.3686 -0.095
43.3988 -0.147
43.4291 0.110
43.4594 0.471
43.4897 0.000
43.5199 0.361
43.5502 0.098
43.5805 0.095
43.6108 0.301
43.6411 0.038
43.6713 0.088
43.7016 -0.071
43.7319 0.031
43.7622 0.029
43.7925 0.132
43.8227 0.078
43.8530 -0.028
43.8833 0.075
43.9136 0.125
43.9439 -0.032
43.9741 0.018
44.0044 0.017
44.0347 0.068
44.0650 0.015
44.0952 0.014
44.1255 0.170
44.1558 0.274
44.1861 -0.144
44.2164 -0.040
44.2466 0.116
44.2769 0.116
44.3072 0.012
44.3375 -0.040
44.3678 0.168
44.3980 0.065
44.4283 -0.039
44.4586 0.274
44.4889 -0.194
44.5191 0.119
44.5494 -0.036
44.5797 0.850
44.6100 -0.087
44.6403 -0.033
44.6705 0.020
44.7008 0.074
44.7311 0.075
44.7614 -0.132
44.7917 -0.026
44.8219 -0.232
44.8522 0.078
44.8825 -0.029
44.9128 0.125
44.9430 0.227
44.9733 -0.140
45.0036 -0.090
45.0339 0.272
45.0642 0.010
45.0944 -0.200
45.1247 0.267
45.1550 0.109
45.1853 0.160
45.2156 0.107
45.2458 0.366
45.2761 -0.260
45.3064 0.259
45.3367 0.102
45.3669 0.102
45.3972 -0.212
45.4275 0.048
45.4578 0.152
45.4881 -0.057
45.5183 0.203
45.5486 0.099
45.5789 -0.109
45.6092 0.516
45.6395 0.412
45.6697 -0.004
45.7000 -0.108
45.7303 0.101
45.7606 0.310
45.7908 0.154
45.8211 0.155
45.8514 -0.156
45.8817 -0.110
45.9120 0.196
45.9422 0.034
45.9725 0.393
46.0028 0.127
46.0331 0.174
46.0634 0.273
46.0936 0.007
46.1239 -0.154
46.1542 0.205
46.1845 0.149
46.2147 0.196
46.2450 -0.069
46.2753 0.187
46.3056 0.338
46.3359 -0.135
46.3661 -0.139
46.3964 -0.195
46.4267 0.478
46.4570 -0.099
46.4873 0.314
46.5175 0.102
46.5478 0.255
46.5781 0.356
46.6084 0.352
46.6386 -0.120
46.6689 0.190
46.6992 0.343
46.7295 -0.077
46.7598 0.285
46.7900 0.334
46.8203 0.644
46.8506 0.434
46.8809 0.015
46.9112 0.742
46.9414 0.114
46.9717 0.165
47.0020 0.111
47.0323 0.734
47.0626 0.784
47.0928 1.043
47.1231 1.146
47.1534 0.988
47.1837 0.622
47.2139 1.350
47.2442 1.037
47.2745 1.557
47.3048 1.869
47.3351 1.191
47.3653 0.826
47.3956 2.075
47.4259 1.606
47.4562 1.658
47.4865 1.449
47.5167 1.554
47.5470 1.137
47.5773 0.512
47.6076 0.929
47.6378 0.773
47.6681 1.399
47.6984 1.243
47.7287 0.515
47.7590 0.255
47.7892 0.256
47.8195 0.935
47.8498 0.571
47.8801 0.416
47.9104 0.470
47.9406 0.315
47.9709 0.317
48.0012 0.266
48.0315 0.060
48.0617 0.687
48.0920 0.272
48.1223 0.066
48.1526 0.329
48.1829 0.748
48.2131 -0.031
48.2434 0.232
48.2737 -0.077
48.3040 0.290
48.3343 -0.176
48.3645 -0.173
48.3948 0.091
48.4251 0.199
48.4554 -0.109
48.4856 -0.105
48.5159 0.368
48.5462 0.112
48.5765 -0.040
48.6068 -0.088
48.6370 0.282
48.6673 0.182
48.6976 0.083
48.7279 0.140
48.7582 0.145
48.7884 0.567
48.8187 0.520
48.8490 0.317
48.8793 -0.146
48.9095 0.224
48.9398 0.126
48.9701 0.184
49.0004 0.294
49.0307 0.456
49.0609 0.046
49.0912 -0.156
49.1215 -0.156
49.1518 0.205
49.1821 -0.006
49.2123 -0.009
49.2426 0.301
49.2729 0.090
49.3032 0.036
49.3334 0.033
49.3637 0.135
49.3940 0.550
49.4243 0.079
49.4546 0.233
49.4848 0.127
49.5151 0.438
49.5454 0.228
49.5757 0.383
49.6060 -0.347
49.6362 0.433
49.6665 -0.246
49.6968 -0.090
49.7271 0.065
49.7574 0.273
49.7876 0.272
49.8179 0.167
49.8482 0.115
49.8785 -0.042
49.9087 -0.042
49.9390 0.218
49.9693 0.010
49.9996 0.062
50.0299 0.166
50.0601 0.062
50.0904 0.063
50.1207 -0.145
50.1510 -0.144
50.1813 0.221
50.2115 0.222
50.2418 0.223
50.2721 0.484
50.3024 0.069
50.3326 0.435
50.3629 0.124
50.3932 0.177
50.4235 -0.082
50.4538 0.181
50.4840 0.182
50.5143 -0.180
50.5446 -0.131
50.5749 0.075
50.6052 0.281
50.6354 0.071
50.6657 0.173
50.6960 -0.037
50.7263 0.221
50.7565 0.324
50.7868 0.218
50.8171 0.477
50.8474 -0.097
50.8777 0.110
50.9079 0.213
50.9382 -0.049
50.9685 0.211
50.9988 0.054
51.0291 0.105
51.0593 0.000
51.0896 0.052
51.1199 0.312
51.1502 0.260
51.1804 0.051
51.2107 0.207
51.2410 -0.053
51.2713 -0.053
51.3016 0.051
51.3318 -0.156
51.3621 -0.104
51.3924 0.053
51.4227 -0.155
51.4530 0.002
51.4832 0.003
51.5135 0.056
51.5438 -0.047
51.5741 0.059
51.6043 0.269
51.6346 -0.199
51.6649 -0.093
51.6952 0.013
51.7255 0.275
51.7557 -0.087
51.7860 0.019
51.8163 0.021
51.8466 -0.081
51.8769 0.078
51.9071 -0.284
51.9374 -0.024
51.9677 0.080
51.9980 -0.024
52.0282 0.133
52.0585 -0.075
52.0888 -0.074
52.1191 0.499
52.1494 0.240
52.1796 0.189
52.2099 0.502
52.2402 -0.017
52.2705 0.088
52.3008 0.141
52.3310 -0.065
52.3613 0.457
52.3916 0.146
52.4219 -0.112
52.4521 0.306
52.4824 0.048
52.5127 0.050
52.5430 -0.156
52.5733 -0.001
52.6035 0.310
52.6338 -0.159
52.6641 0.517
52.6944 -0.265
52.7247 0.047
52.7549 0.411
52.7852 -0.058
52.8155 0.254
52.8458 0.410
52.8761 0.410
52.9063 0.254
52.9366 0.150
52.9669 0.150
52.9972 0.046
53.0274 0.151
53.0577 -0.005
53.0880 0.100
53.1183 -0.107
53.1486 0.102
53.1788 -0.105
53.2091 -0.156
53.2394 0.103
53.2697 -0.003
53.3000 0.360
53.3302 0.307
53.3605 0.306
53.3908 -0.216
53.4211 0.044
53.4513 0.460
53.4816 0.199
53.5119 0.458
53.5422 0.354
53.5725 0.197
53.6027 -0.168
53.6330 0.093
53.6633 0.145
53.6936 0.093
53.7239 -0.063
53.7541 -0.011
53.7844 -0.166
53.8147 0.095
53.8450 -0.113
53.8752 0.200
53.9055 0.201
53.9358 -0.058
53.9661 0.099
53.9964 0.048
54.0266 0.258
54.0569 -0.053
54.0872 0.053
54.1175 -0.258
54.1478 0.004
54.1780 -0.150
54.2083 0.113
54.2386 0.584
54.2689 -0.039
54.2991 -0.245
54.3294 0.122
54.3597 0.750
54.3900 0.649
54.4203 0.443
54.4505 0.446
54.4808 0.033
54.5111 0.140
54.5414 0.144
54.5717 0.199
54.6019 -0.162
54.6322 0.103
54.6625 -0.206
54.6928 -0.055
54.7230 -0.009
54.7533 0.142
54.7836 0.137
54.8139 0.028
54.8442 0.179
54.8744 0.070
54.9047 -0.143
54.9350 -0.147
54.9653 0.109
54.9956 -0.156
55.0258 -0.160
55.0561 0.356
55.0864 0.040
55.1167 0.088
55.1469 0.189
55.1772 -0.023
55.2075 -0.079
55.2378 0.283
55.2681 0.123
55.2983 0.276
55.3286 0.377
55.3589 -0.042
55.3892 0.320
55.4195 -0.048
55.4497 0.106
55.4800 0.052
55.5103 0.205
55.5406 0.360
55.5709 -0.163
55.6011 0.199
55.6314 0.301
55.6617 -0.169
55.6920 0.298
55.7222 0.244
55.7525 0.659
55.7828 0.294
55.8131 0.344
55.8434 0.343
55.8736 0.342
55.9039 0.706
55.9342 0.288
55.9645 0.496
55.9948 0.339
56.0250 0.808
56.0553 1.224
56.0856 1.015
56.1159 0.911
56.1461 1.119
56.1764 1.276
56.2067 1.588
56.2370 0.859
56.2673 2.631
56.2975 1.954
56.3278 1.694
56.3581 2.528
56.3884 2.894
56.4187 2.947
56.4489 2.948
56.4792 2.220
56.5095 2.898
56.5398 2.796
56.5700 3.110
56.6003 2.278
56.6306 1.967
56.6609 1.969
56.6912 1.711
56.7214 2.234
56.7517 1.350
56.7820 1.301
56.8123 1.720
56.8426 1.358
56.8728 0.579
56.9031 0.582
56.9334 0.689
56.9637 0.744
56.9939 0.487
57.0242 0.333
57.0545 0.701
57.0848 0.288
57.1151 0.187
57.1453 0.608
57.1756 0.039
57.2059 0.147
57.2362 0.255
57.2665 0.207
57.2967 0.263
57.3270 0.632
57.3573 -0.249
57.3876 0.224
57.4178 0.385
57.4481 0.390
57.4784 0.395
57.5087 0.087
57.5390 -0.012
57.5692 0.254
57.5995 -0.002
57.6298 0.212
57.6601 0.218
57.6904 0.067
57.7206 0.229
57.7509 0.235
57.7812 0.241
57.8115 -0.118
57.8417 0.201
57.8720 0.520
57.9023 0.057
57.9326 0.064
57.9629 -0.138
57.9931 -0.035
58.0234 0.016
58.0537 0.327
58.0840 0.170
58.1143 0.430
58.1445 -0.040
58.1748 0.012
58.2051 -0.041
58.2354 0.063
58.2656 0.010
58.2959 -0.354
58.3262 0.218
58.3565 0.062
58.3868 0.114
58.4170 -0.042
58.4473 0.011
58.4776 0.063
58.5079 0.220
58.5382 0.429
58.5684 0.118
58.5987 0.223
58.6290 0.276
58.6593 0.121
58.6896 0.174
58.7198 0.332
58.7501 0.177
58.7804 -0.290
58.8107 -0.080
58.8409 -0.079
58.8712 -0.129
58.9015 -0.127
58.9318 -0.073
58.9621 0.294
58.9923 0.192
59.0226 0.143
59.0529 0.250
59.0832 0.356
59.1135 0.099
59.1437 0.102
59.1740 -0.260
59.2043 0.212
59.2346 0.267
59.2648 0.114
59.2951 0.118
59.3254 0.226
59.3557 0.229
59.3860 -0.184
59.4162 -0.128
59.4465 0.234
59.4768 -0.133
59.5071 -0.083
59.5374 -0.137
59.5676 0.173
59.5979 0.275
59.6282 0.273
59.6585 0.272
59.6887 0.062
59.7190 0.112
59.7493 0.111
59.7796 0.318
59.8099 -0.100
59.8401 0.263
59.8704 0.002
59.9007 0.157
59.9310 -0.156
59.9613 0.156
59.9915 0.103
60.0218 0.363
60.0521 0.311
60.0824 -0.002
60.1126 0.050
60.1429 -0.002
60.1732 0.102
60.2035 0.102
60.2338 0.155
60.2640 -0.105
60.2943 -0.001
60.3246 0.104
60.3549 0.261
60.3852 0.002
60.4154 -0.154
60.4457 0.048
60.4760 0.094
60.5063 0.295
60.5365 -0.023
60.5668 0.231
60.5971 -0.036
60.6274 0.063
60.6577 -0.047
60.6879 -0.053
60.7182 0.045
60.7485 0.092
60.7788 -0.174
60.8091 0.237
60.8393 -0.184
60.8696 -0.085
60.8999 -0.038
60.9302 -0.147
60.9604 0.003
60.9907 0.050
61.0210 0.045
61.0513 0.144
61.0816 -0.330
61.1118 0.029
61.1421 -0.132
61.1724 0.124
61.2027 0.015
61.2330 0.011
61.2632 -0.254
61.2935 0.158
61.3238 0.050
61.3541 -0.111
61.3844 0.094
61.4146 -0.171
61.4449 0.086
61.4752 0.082
61.5055 0.131
61.5357 -0.081
61.5660 0.020
61.5963 -0.035
61.6266 0.014
61.6569 0.167
61.6871 0.216
61.7174 -0.047
61.7477 -0.414
61.7780 0.416
61.8083 -0.107
61.8385 -0.109
61.8688 0.097
61.8991 0.043
61.9294 0.301
61.9596 0.143
61.9899 0.037
62.0202 0.035
62.0505 0.086
62.0808 -0.020
62.1110 0.135
62.1413 0.030
62.1716 0.029
62.2019 0.340
62.2322 0.287
62.2624 0.338
62.2927 0.546
62.3230 0.285
62.3533 0.858
62.3835 0.180
62.4138 0.753
62.4441 1.326
62.4744 1.273
62.5047 0.701
62.5349 1.170
62.5652 1.482
62.5955 1.795
62.6258 2.056
62.6561 2.005
62.6863 1.745
62.7166 2.371
62.7469 1.122
62.7772 1.332
62.8074 1.593
62.8377 1.490
62.8680 1.596
62.8983 2.118
62.9286 1.182
62.9588 1.497
62.9891 0.926
63.0194 1.032
63.0497 0.617
63.0800 0.411
63.1102 0.726
63.1405 0.572
63.1708 0.158
63.2011 0.056
63.2313 0.007
63.2616 -0.094
63.2919 0.169
63.3222 -0.036
63.3525 0.019
63.3827 0.023
63.4130 -0.182
63.4433 0.186
63.4736 0.346
63.5039 0.193
63.5341 0.197
63.5644 0.149
63.5947 0.153
63.6250 0.001
63.6552 0.109
63.6855 0.062
63.7158 0.222
63.7461 0.071
63.7764 -0.133
63.8066 0.080
63.8369 -0.019
63.8672 0.247
63.8975 0.200
63.9278 0.049
63.9580 -0.362
63.9883 0.005
64.0186 0.112
64.0489 0.272
64.0791 -0.142
64.1094 0.122
64.1397 -0.135
64.1700 -0.028
64.2003 -0.128
64.2305 0.344
64.2608 -0.016
64.2911 -0.273
64.3214 0.200
64.3517 0.308
64.3819 -0.104
64.4122 0.005
64.4425 0.113
64.4728 -0.090
64.5031 -0.138
64.5333 -0.034
64.5636 0.070
64.5939 -0.138
64.6242 -0.034
64.6544 0.226
64.6847 -0.035
64.7150 0.069
64.7453 0.434
64.7756 -0.243
64.8058 0.069
64.8361 -0.035
64.8664 0.070
64.8967 -0.138
64.9270 -0.137
64.9572 0.020
64.9875 -0.032
65.0178 -0.135
65.0481 0.074
65.0783 -0.133
65.1086 -0.132
65.1389 0.025
65.1692 0.287
65.1995 0.237
65.2297 0.082
65.2600 -0.125
65.2903 0.085
65.3206 -0.121
65.3509 0.194
65.3811 0.092
65.4114 0.198
65.4417 -0.216
65.4720 0.203
65.5022 0.101
65.5325 -0.052
65.5628 -0.154
65.5931 0.100
65.6234 0.250
65.6536 -0.225
65.6839 0.238
65.7142 -0.029
65.7445 0.590
65.7748 -0.249
65.8050 0.266
65.8353 -0.104
65.8656 0.151
65.8959 0.354
65.9261 -0.068
65.9564 -0.073
65.9867 -0.078
66.0170 0.229
66.0473 0.224
66.0775 0.063
66.1078 0.059
66.1381 0.002
66.1684 0.050
66.1987 0.202
66.2289 0.146
66.2592 0.089
66.2895 -0.331
66.3198 0.238
66.3500 0.547
66.3803 0.022
66.4106 0.487
66.4409 -0.245
66.4712 0.220
66.5014 0.321
66.5317 0.266
66.5620 -0.205
66.5923 -0.156
66.6226 -0.003
66.6528 0.202
66.6831 -0.062
66.7134 -0.117
66.7437 0.245
66.7739 -0.123
66.8042 -0.125
66.8345 -0.284
66.8648 0.181
66.8951 0.021
66.9253 0.070
66.9556 -0.090
66.9859 -0.093
67.0162 0.216
67.0465 0.057
67.0767 -0.050
67.1070 -0.001
67.1373 0.205
67.1676 -0.110
67.1978 0.564
67.2281 0.562
67.2584 0.091
67.2887 0.245
67.3190 0.087
67.3492 -0.071
67.3795 0.344
67.4098 0.863
67.4401 0.393
67.4704 0.235
67.5006 0.598
67.5309 0.545
67.5612 0.908
67.5915 0.751
67.6218 1.167
67.6520 0.697
67.6823 1.113
67.7126 1.165
67.7429 1.008
67.7731 1.893
67.8034 1.528
67.8337 1.372
67.8640 1.685
67.8943 1.112
67.9245 0.956
67.9548 1.216
67.9851 1.998
68.0154 1.322
68.0457 1.218
68.0759 0.594
68.1062 0.334
68.1365 1.429
68.1668 0.597
68.1970 0.390
68.2273 0.495
68.2576 0.601
68.2879 0.290
68.3182 0.656
68.3484 0.293
68.3787 0.087
68.4090 0.453
68.4393 -0.013
68.4696 0.301
68.4998 0.095
68.5301 0.254
68.5604 0.205
68.5907 0.259
68.6209 0.106
68.6512 0.213
68.6815 0.320
68.7118 0.219
68.7421 0.535
68.7723 0.121
68.8026 0.646
68.8329 0.337
68.8632 0.236
68.8935 0.604
68.9237 0.400
68.9540 0.196
68.9843 0.877
69.0146 0.204
69.0448 0.729
69.0751 0.421
69.1054 0.530
69.1357 0.743
69.1660 0.226
69.1962 0.804
69.2265 0.393
69.2568 0.085
69.2871 0.195
69.3174 0.148
69.3476 0.153
69.3779 0.471
69.4082 0.060
69.4385 0.639
69.4687 0.228
69.4990 0.286
69.5293 0.344
69.5596 0.246
69.5899 -0.060
69.6201 -0.054
69.6504 0.005
69.6807 -0.040
69.7110 -0.138
69.7413 0.078
69.7715 -0.123
69.8018 -0.011
69.8321 -0.055
69.8624 0.213
69.8926 0.325
69.9229 -0.084
69.9532 -0.128
69.9835 -0.023
70.0138 0.134
70.0440 0.240
70.0743 0.032
70.1046 -0.123
70.1349 0.191
70.1652 0.036
70.1954 -0.118
70.2257 -0.065
70.2560 0.041
70.2863 0.095
70.3166 -0.059
70.3468 -0.109
70.3771 0.206
70.4074 0.052
70.4377 -0.102
70.4679 0.265
70.4982 -0.045
70.5285 -0.042
70.5588 -0.091
70.5891 0.016
70.6193 0.123
70.6496 -0.082
70.6799 0.078
70.7102 0.081
70.7405 -0.124
70.7707 0.088
70.8010 -0.116
70.8313 -0.114
70.8616 -0.007
70.8918 0.101
70.9221 0.052
70.9524 -0.153
70.9827 0.001
71.0130 -0.105
71.0432 -0.054
71.0735 0.049
71.1038 0.099
71.1341 0.046
71.1644 0.305
71.1946 -0.008
71.2249 -0.061
71.2552 -0.114
71.2855 -0.063
71.3157 -0.115
71.3460 0.249
71.3763 0.144
71.4066 0.196
71.4369 0.092
71.4671 0.092
71.4974 -0.116
71.5277 -0.068
71.5580 0.033
71.5883 0.186
71.6185 -0.130
71.6488 0.336
71.6791 0.333
71.7094 -0.087
71.7396 0.171
71.7699 0.168
71.8002 0.114
71.8305 0.007
71.8608 0.057
71.8910 -0.206
71.9213 0.001
71.9516 -0.157
71.9819 0.154
72.0122 0.100
72.0424 -0.058
72.0727 0.253
72.1030 0.148
72.1333 -0.061
72.1635 0.146
72.1938 0.197
72.2241 -0.273
72.2544 -0.013
72.2847 0.195
72.3149 0.038
72.3452 0.246
72.3755 0.142
72.4058 -0.015
72.4361 0.038
72.4663 0.194
72.4966 0.142
72.5269 0.194
72.5572 -0.014
72.5874 0.091
72.6177 -0.012
72.6480 0.041
72.6783 0.146
72.7086 0.303
72.7388 -0.009
72.7691 -0.060
72.7994 0.306
72.8297 0.256
72.8600 0.101
72.8902 0.051
72.9205 -0.104
72.9508 0.262
72.9811 0.317
73.0113 0.058
73.0416 0.008
73.0719 0.011
73.1022 0.013
73.1325 0.172
73.1627 0.018
73.1930 0.073
73.2233 -0.185
73.2536 0.131
73.2839 0.030
73.3141 0.085
73.3444 -0.016
73.3747 -0.116
73.4050 -0.113
73.4353 0.151
73.4655 -0.106
73.4958 -0.050
73.5261 0.319
73.5564 0.219
73.5866 0.015
73.6169 0.175
73.6472 0.284
73.6775 0.340
73.7078 0.345
73.7380 0.193
73.7683 0.250
73.7986 -0.005
73.8289 -0.104
73.8592 -0.056
73.8894 0.201
73.9197 0.197
73.9500 -0.015
73.9803 0.034
74.0105 0.187
74.0408 -0.024
74.0711 0.233
74.1014 0.074
74.1317 0.227
74.1619 -0.088
74.1922 0.222
74.2225 -0.145
74.2528 0.061
74.2831 -0.098
74.3133 -0.048
74.3436 -0.102
74.3739 -0.104
74.4042 -0.054
74.4344 -0.055
74.4647 -0.057
74.4950 -0.006
74.5253 0.096
74.5556 0.199
74.5858 0.146
74.6161 0.093
74.6464 0.144
74.6767 0.195
74.7070 -0.014
74.7372 0.298
74.7675 0.089
74.7978 -0.119
74.8281 -0.016
74.8583 0.036
74.8886 -0.068
74.9189 0.349
74.9492 -0.120
74.9795 -0.015
75.0097 -0.015
75.0400 0.142
75.0703 0.090
75.1006 -0.065
75.1309 -0.116
75.1611 -0.013
75.1914 -0.117
75.2217 0.091
75.2520 -0.118
75.2822 0.038
75.3125 0.038
75.3428 0.091
75.3731 0.247
75.4034 -0.065
75.4336 -0.116
75.4639 -0.016
75.4942 0.033
75.5245 0.133
75.5548 -0.078
75.5850 0.075
75.6153 0.019
75.6456 0.016
75.6759 0.118
75.7061 0.115
75.7364 0.216
75.7667 0.266
75.7970 -0.101
75.8273 -0.052
75.8575 -0.054
75.8878 -0.004
75.9181 0.150
75.9484 0.253
75.9787 -0.218
76.0089 0.145
76.0392 0.039
76.0695 -0.014
76.0998 -0.120
76.1301 -0.121
76.1603 0.346
76.1906 -0.019
76.2209 0.032
76.2512 0.083
76.2814 0.030
76.3117 -0.126
76.3420 0.029
76.3723 -0.023
76.4026 -0.128
76.4328 -0.024
76.4631 0.289
76.4934 0.184
76.5237 0.184
76.5540 -0.128
76.5842 0.185
76.6145 0.081
76.6448 -0.023
76.6751 0.499
76.7053 -0.073
76.7356 0.032
76.7659 0.241
76.7962 0.242
76.8265 0.035
76.8567 0.036
76.8870 0.298
76.9173 0.299
76.9476 -0.168
76.9779 0.094
77.0081 0.304
77.0384 0.254
77.0687 -0.108
77.0990 0.258
77.1292 0.104
77.1595 0.315
77.1898 0.318
77.2201 0.112
77.2504 0.063
77.2806 0.013
77.3109 0.225
77.3412 0.123
77.3715 0.179
77.4018 0.026
77.4320 0.342
77.4623 0.241
77.4926 -0.172
77.5229 -0.116
77.5531 -0.065
77.5834 0.352
77.6137 0.092
77.6440 -0.065
77.6743 -0.116
77.7045 0.093
77.7348 0.145
77.7651 0.198
77.7954 0.147
77.8257 0.200
77.8559 -0.111
77.8862 0.047
77.9165 0.205
77.9468 0.206
77.9770 0.104
78.0073 -0.051
78.0376 0.159
78.0679 -0.047
78.0982 0.163
78.1284 -0.043
78.1587 0.168
78.1890 0.170
78.2193 -0.192
78.2496 0.124
78.2798 0.074
78.3101 -0.079
78.3404 0.080
78.3707 0.292
78.4009 0.347
78.4312 0.246
78.4615 0.406
78.4918 0.149
78.5221 -0.056
78.5523 -0.104
78.5826 0.100
78.6129 0.201
78.6432 0.145
78.6735 0.246
78.7037 0.243
78.7340 -0.073
78.7643 0.184
78.7946 0.181
78.8248 0.335
78.8551 0.384
78.8854 0.225
78.9157 0.066
78.9460 -0.040
78.9762 0.270
79.0065 -0.045
79.0368 0.057
79.0671 -0.101
79.0974 -0.103
79.1276 -0.105
79.1579 -0.106
79.1882 0.100
79.2185 0.047
79.2488 -0.111
79.2790 0.148
79.3093 0.147
79.3396 -0.010
79.3699 0.093
79.4001 0.249
79.4304 0.352
79.4607 0.091
79.4910 -0.065
79.5213 0.143
79.5515 -0.014
79.5818 -0.066
79.6121 0.194
79.6424 -0.014
79.6727 0.038
79.7029 0.299
79.7332 -0.013
79.7635 -0.116
79.7938 -0.013
79.8240 0.352
79.8543 -0.222
79.8846 -0.013
79.9149 -0.117
79.9452 0.091
79.9754 -0.117
80.0057 0.040
80.0360 0.405
80.0663 -0.012
80.0966 0.302
80.1268 0.042
80.1571 0.199
80.1874 0.252
80.2177 0.149
80.2479 -0.006
80.2782 -0.056
80.3085 -0.003
80.3388 -0.053
80.3691 -0.104
80.3993 0.106
80.4296 0.004
80.4599 0.214
80.4902 0.112
80.5205 0.010
80.5507 0.221
80.5810 -0.037
80.6113 0.122
80.6416 0.125
80.6718 0.336
80.7021 0.130
80.7324 -0.127
80.7627 -0.079
80.7930 0.283
80.8232 0.227
80.8535 0.120
80.8838 0.221
80.9141 0.166
80.9444 0.163
80.9746 0.317
81.0049 0.158
81.0352 0.155
81.0655 0.153
81.0957 0.203
81.1260 0.148
81.1563 0.199
81.1866 -0.012
81.2169 0.038
81.2471 0.297
81.2774 0.243
81.3077 0.346
81.3380 0.241
81.3683 0.343
81.3985 0.342
81.4288 -0.128
81.4591 0.028
81.4894 0.496
81.5196 0.287
81.5499 0.182
81.5802 0.285
81.6105 -0.184
81.6408 0.181
81.6710 0.128
81.7013 -0.028
81.7316 0.024
81.7619 0.128
81.7922 -0.132
81.8224 0.129
81.8527 0.286
81.8830 0.182
81.9133 0.183
81.9436 -0.025
81.9738 0.028
82.0041 0.186
82.0344 -0.022
82.0647 0.188
82.0949 0.137
82.1252 -0.122
82.1555 0.088
82.1858 -0.066
82.2161 -0.116
82.2463 0.091
82.2766 0.298
82.3069 0.245
82.3372 0.140
82.3675 0.140
82.3977 0.139
82.4280 -0.070
82.4583 0.138
82.4886 0.034
82.5188 0.086
82.5491 0.190
82.5794 0.242
82.6097 0.294
82.6400 -0.018
82.6702 -0.121
82.7005 0.244
82.7308 0.036
82.7611 0.297
82.7914 0.038
82.8216 -0.118
82.8519 0.248
82.8822 0.041
82.9125 -0.062
82.9427 0.252
82.9730 0.097
83.0033 0.047
83.0336 0.049
83.0639 0.363
83.0941 0.209
83.1244 0.159
83.1547 0.161
83.1850 0.268
83.2153 0.218
83.2455 0.168
83.2758 0.223
83.3061 -0.035
83.3364 0.125
83.3666 0.388
83.3969 -0.078
83.4272 0.446
83.4575 -0.019
83.4878 0.089
83.5180 0.405
83.5483 0.460
83.5786 0.047
83.6089 0.155
83.6392 -0.257
83.6694 -0.104
83.6997 0.153
83.7300 0.254
83.7603 0.147
83.7905 -0.064
83.8208 -0.067
83.8511 0.295
83.8814 0.188
83.9117 0.394
83.9419 0.079
83.9722 0.025
84.0025 -0.081
84.0328 0.073
84.0631 -0.033
84.0933 0.382
84.1236 0.172
84.1539 0.066
84.1842 0.064
84.2144 -0.093
84.2447 0.062
84.2750 -0.043
84.3053 0.216
84.3356 -0.097
84.3658 0.006
84.3961 -0.099
84.4264 -0.099
84.4567 0.160
84.4870 0.160
84.5172 0.160
84.5475 0.264
84.5778 0.212
84.6081 0.212
84.6383 0.004
84.6686 0.108
84.6989 0.161
84.7292 0.005
84.7595 0.214
84.7897 0.267
84.8200 0.007
84.8503 0.008
84.8806 0.062
84.9109 -0.041
84.9411 0.012
84.9714 0.274
85.0017 -0.037
85.0320 0.017
85.0623 0.070
85.0925 0.072
85.1228 -0.030
85.1531 -0.080
85.1834 0.235
85.2136 0.029
85.2439 0.187
85.2742 -0.070
85.3045 -0.068
85.3348 0.039
85.3650 -0.010
85.3953 0.201
85.4256 -0.004
85.4559 0.051
85.4862 0.107
85.5164 -0.046
85.5467 -0.095
85.5770 0.117
85.6073 0.277
85.6375 -0.031
85.6678 -0.132
85.6981 0.021
85.7284 0.069
85.7587 0.170
85.7889 0.063
85.8192 0.007
85.8495 0.160
85.8798 0.157
85.9101 0.102
85.9403 0.412
85.9706 0.357
86.0009 -0.166
86.0312 0.404
86.0614 0.194
86.0917 0.139
86.1220 0.398
86.1523 -0.177
86.1826 -0.023
86.2128 0.132
86.2431 0.078
86.2734 -0.132
86.3037 0.075
86.3340 0.230
86.3642 0.229
86.3945 0.071
86.4248 0.122
86.4551 0.173
86.4853 -0.140
86.5156 -0.089
86.5459 -0.089
86.5762 0.171
86.6065 -0.090
86.6367 0.014
86.6670 0.431
86.6973 0.274
86.7276 0.014
86.7579 -0.090
86.7881 -0.038
86.8184 0.327
86.8487 0.015
86.8790 -0.036
86.9092 0.329
86.9395 -0.034
86.9698 0.019
87.0001 0.020
87.0304 0.073
87.0606 0.231
87.0909 0.128
87.1212 0.077
87.1515 0.391
87.1818 0.185
87.2120 0.291
87.2423 0.137
87.2726 -0.018
87.3029 0.141
87.3331 0.195
87.3634 -0.115
87.3937 0.148
87.4240 -0.058
87.4543 0.049
87.4845 -0.104
87.5148 -0.005
87.5451 -0.063
87.5754 -0.016
87.6057 0.084
87.6359 -0.025
87.6662 0.074
87.6965 0.069
87.7268 -0.091
87.7571 0.165
87.7873 0.056
87.8176 -0.104
87.8479 -0.056
87.8782 -0.008
87.9084 -0.012
87.9387 0.349
87.9690 0.137
87.9993 -0.127
88.0296 0.182
88.0598 0.022
88.0901 0.019
88.1204 -0.088
88.1507 -0.091
88.1810 0.010
88.2112 -0.045
88.2415 -0.099
88.2718 -0.050
88.3021 0.000
88.3323 -0.055
88.3626 0.151
88.3929 -0.059
88.4232 -0.165
88.4535 0.302
88.4837 0.300
88.5140 -0.014
88.5443 -0.172
88.5746 0.087
88.6049 0.242
88.6351 0.241
88.6654 -0.073
88.6957 -0.074
88.7260 -0.023
88.7562 -0.128
88.7865 -0.026
88.8168 -0.184
88.8471 0.178
88.8774 0.280
88.9076 0.070
88.9379 -0.140
88.9682 0.067
88.9985 0.326
89.0288 0.220
89.0590 -0.042
89.0893 0.009
89.1196 0.008
89.1499 0.111
89.1801 -0.046
89.2104 0.005
89.2407 0.109
89.2710 0.056
89.3013 0.160
89.3315 0.576
89.3618 0.055
89.3921 0.107
89.4224 0.420
89.4527 0.003
89.4829 0.576
89.5132 0.264
89.5435 0.421
89.5738 0.421
89.6040 0.370
89.6343 0.267
89.6646 0.215
89.6949 0.060
89.7252 0.061
89.7554 0.063
89.7857 0.012
89.8160 0.586
89.8463 0.171
89.8766 -0.192
89.9068 0.018
89.9371 0.020
89.9674 0.126
89.9977 0.285
90.0279 0.131
90.0582 -0.180
90.0885 0.187
90.1188 -0.175
90.1491 0.245
90.1793 0.195
90.2096 0.302
90.2399 0.045
90.2702 -0.004
90.3005 0.155
90.3307 0.315
90.3610 0.371
90.3913 -0.251
90.4216 -0.039
90.4518 0.121
90.4821 0.229
90.5124 -0.184
90.5427 -0.127
90.5730 0.236
90.6032 -0.026
90.6335 0.233
90.6638 0.076
90.6941 0.022
90.7244 0.230
90.7546 0.177
90.7849 0.020
90.8152 -0.033
90.8455 0.123
90.8758 -0.190
90.9060 0.122
90.9363 0.122
90.9666 0.070
90.9969 -0.138
91.0271 0.070
91.0574 0.227
91.0877 0.123
91.1180 0.175
91.1483 -0.084
91.1785 0.125
91.2088 0.073
91.2391 0.074
91.2694 0.336
91.2997 -0.028
91.3299 0.078
91.3602 -0.025
91.3905 0.133
91.4208 -0.022
91.4510 0.136
91.4813 0.034
91.5116 0.140
91.5419 -0.067
91.5722 -0.116
91.6024 -0.014
91.6327 0.193
91.6630 -0.069
91.6933 -0.018
91.7236 0.294
91.7538 -0.072
91.7841 0.031
91.8144 0.083
91.8447 0.342
91.8749 -0.127
91.9052 -0.127
91.9355 0.181
91.9658 0.177
91.9961 0.070
92.0263 0.066
92.0566 0.219
92.0869 0.007
92.1172 0.160
92.1475 -0.103
92.1777 0.102
92.2080 -0.057
92.2383 0.305
92.2686 -0.063
92.2988 0.247
92.3291 0.036
92.3594 -0.018
92.3897 -0.177
92.4200 0.238
92.4502 0.184
92.4805 0.026
92.5108 0.128
92.5411 -0.030
92.5714 0.073
92.6016 -0.033
92.6319 0.070
92.6622 0.069
92.6925 0.172
92.7227 0.275
92.7530 0.014
92.7833 0.221
92.8136 0.168
92.8439 0.011
92.8741 0.115
92.9044 0.063
92.9347 -0.146
92.9650 0.010
92.9953 0.114
93.0255 0.010
93.0558 0.167
93.0861 0.011
93.1164 0.063
93.1466 0.064
93.1769 0.169
93.2072 0.221
93.2375 -0.194
93.2678 -0.089
93.2980 0.068
93.3283 0.069
93.3586 0.019
93.3889 0.124
93.4192 -0.031
93.4494 -0.081
93.4797 0.181
93.5100 -0.025
93.5403 -0.128
93.5706 0.026
93.6008 0.180
93.6311 0.334
93.6614 0.020
93.6917 0.070
93.7219 0.224
93.7522 -0.038
93.7825 -0.091
93.8128 0.168
93.8431 -0.094
93.8733 0.113
93.9036 0.060
93.9339 -0.150
93.9642 0.058
93.9945 -0.047
94.0247 0.264
94.0550 -0.049
94.0853 0.055
94.1156 -0.206
94.1458 -0.001
94.1761 0.099
94.2064 -0.008
94.2367 -0.272
94.2670 0.349
94.2972 -0.227
94.3275 0.187
94.3578 -0.129
94.3881 -0.132
94.4184 0.230
94.4486 0.384
94.4789 -0.140
94.5092 0.275
94.5395 -0.144
94.5697 0.062
94.6000 0.164
94.6303 0.266
94.6606 0.212
94.6909 0.366
94.7211 0.052
94.7514 0.155
94.7817 -0.003
94.8120 0.256
94.8423 0.203
94.8725 0.254
94.9028 -0.164
94.9331 -0.113
94.9634 -0.113
94.9936 0.355
95.0239 -0.115
95.0542 -0.011
95.0845 0.405
95.1148 0.457
95.1450 0.301
95.1753 -0.064
95.2056 0.353
95.2359 0.145
95.2662 0.458
95.2964 -0.115
95.3267 0.146
95.3570 0.199
95.3873 0.095
95.4175 0.200
95.4478 -0.007
95.4781 0.046
95.5084 0.204
95.5387 0.413
95.5689 0.259
95.5992 0.468
95.6295 0.105
95.6598 0.107
95.6901 0.370
95.7203 -0.254
95.7506 0.113
95.7809 0.220
95.8112 0.274
95.8414 -0.192
95.8717 -0.138
95.9020 -0.083
95.9323 -0.079
95.9626 -0.076
95.9928 0.083
96.0231 -0.017
96.0534 0.091
96.0837 -0.114
96.1140 0.254
96.1442 0.102
96.1745 0.002
96.2048 -0.098
96.2351 0.323
96.2653 0.119
96.2956 -0.033
96.3259 0.128
96.3562 -0.180
96.3865 -0.073
96.4167 0.190
96.4470 -0.068
96.4773 -0.065
96.5076 0.146
96.5379 0.305
96.5681 0.100
96.5984 0.051
96.6287 0.315
96.6590 0.110
96.6893 0.114
96.7195 -0.039
96.7498 -0.191
96.7801 0.177
96.8104 -0.132
96.8406 0.237
96.8709 -0.019
96.9012 0.246
96.9315 0.198
96.9618 -0.058
96.9920 0.155
97.0223 0.160
97.0526 0.165
97.0829 0.066
97.1132 0.227
97.1434 -0.028
97.1737 -0.127
97.2040 0.076
97.2343 -0.033
97.2645 0.066
97.2948 0.165
97.3251 -0.100
97.3554 0.000
97.3857 -0.057
97.4159 -0.009
97.4462 0.143
97.4765 0.399
97.5068 0.187
97.5371 0.287
97.5673 -0.030
97.5976 0.227
97.6279 0.067
97.6582 0.376
97.6884 0.164
97.7187 0.317
97.7490 0.262
97.7793 0.363
97.8096 0.100
97.8398 -0.111
97.8701 0.042
97.9004 0.300
97.9307 -0.015
97.9610 0.191
97.9912 -0.124
98.0215 0.030
98.0518 0.028
98.0821 0.599
98.1123 0.024
98.1426 0.126
98.1729 -0.083
98.2032 -0.137
98.2335 0.226
98.2637 0.016
98.2940 0.432
98.3243 -0.038
98.3546 0.326
98.3849 0.325
98.4151 -0.093
98.4454 0.167
98.4757 0.271
98.5060 -0.094
98.5362 0.322
98.5665 0.114
98.5968 0.426
98.6271 0.322
98.6574 0.009
98.6876 0.322
98.7179 0.062
98.7482 0.011
98.7785 0.011
98.8088 0.064
98.8390 0.117
98.8693 0.534
98.8996 -0.142
98.9299 0.328
98.9601 0.225
98.9904 0.070
99.0207 0.384
99.0510 0.177
99.0813 0.231
99.1115 0.129
99.1418 -0.078
99.1721 0.081
99.2024 -0.021
99.2327 0.137
99.2629 -0.069
99.2932 0.090
99.3235 -0.168
99.3538 0.251
99.3841 0.202
99.4143 -0.055
99.4446 0.000
99.4749 -0.154
99.5052 0.055
99.5354 0.004
99.5657 -0.099
99.5960 0.162
99.6263 0.111
99.6566 0.321
99.6868 0.374
99.7171 -0.041
99.7474 0.117
99.7777 0.274
99.8080 0.328
99.8382 0.070
99.8685 0.176
99.8988 0.178
99.9291 0.336
99.9593 0.234
99.9896 0.133
100.0199 0.187
100.0502 -0.071
100.0805 0.088
100.1107 -0.117
100.1410 0.250
100.1713 0.201
100.2016 0.309
100.2319 0.156
100.2621 -0.153
100.2924 -0.106
100.3227 -0.059
100.3530 -0.011
100.3832 0.089
100.4135 0.084
100.4438 -0.024
100.4741 -0.028
100.5044 -0.032
100.5346 -0.036
100.5649 0.117
100.5952 0.061
100.6255 0.005
100.6558 0.158
100.6860 0.155
100.7163 0.568
100.7466 -0.112
100.7769 0.145
100.8071 0.247
100.8374 0.192
100.8677 0.085
100.8980 -0.074
100.9283 0.288
100.9585 -0.026
100.9888 0.024
101.0191 0.126
101.0494 0.124
101.0797 0.330
101.1099 0.172
101.1402 0.066
101.1705 0.117
101.2008 0.063
101.2310 0.062
101.2613 -0.043
101.2916 0.060
101.3219 0.059
101.3522 0.318
101.3824 0.161
101.4127 0.421
101.4430 0.056
101.4733 -0.101
101.5036 -0.101
101.5338 0.055
101.5641 0.107
101.5944 -0.154
101.6247 -0.051
101.6549 -0.105
101.6852 0.311
101.7155 -0.107
101.7458 -0.108
101.7761 0.151
101.8063 0.098
101.8366 -0.007
101.8669 -0.059
101.8972 0.252
101.9275 -0.217
101.9577 0.408
101.9880 0.043
102.0183 -0.061
102.0486 0.147
102.0788 0.251
102.1091 0.200
102.1394 0.096
102.1697 0.357
102.2000 0.305
102.2302 -0.059
102.2605 -0.058
102.2908 0.047
102.3211 -0.004
102.3514 -0.003
102.3816 -0.106
102.4119 0.104
102.4422 -0.051
102.4725 -0.154
102.5028 0.104
102.5330 0.309
102.5633 0.150
102.5936 -0.061
102.6239 -0.011
102.6541 0.351
102.6844 0.453
102.7147 -0.122
102.7450 0.084
102.7753 0.186
102.8055 0.497
102.8358 0.235
102.8661 0.025
102.8964 0.232
102.9267 0.439
102.9569 0.281
102.9872 -0.085
103.0175 -0.138
103.0478 -0.036
103.0780 0.431
103.1083 0.064
103.1386 -0.042
103.1689 0.217
103.1992 0.268
103.2294 -0.255
103.2597 0.265
103.2900 0.159
103.3203 0.158
103.3506 0.574
103.3808 0.052
103.4111 -0.001
103.4414 0.155
103.4717 -0.106
103.5019 0.310
103.5322 0.049
103.5625 0.413
103.5928 0.205
103.6231 0.309
103.6533 0.309
103.6836 0.309
103.7139 0.414
103.7442 0.102
103.7745 -0.210
103.8047 0.571
103.8350 0.208
103.8653 0.208
103.8956 0.261
103.9258 0.262
103.9561 0.055
103.9864 0.265
104.0167 0.370
104.0470 0.320
104.0772 0.269
104.1075 -0.041
104.1378 0.325
104.1681 0.483
104.1984 0.069
104.2286 0.227
104.2589 0.386
104.2892 0.232
104.3195 0.026
104.3497 -0.232
104.3800 0.026
104.4103 0.337
104.4406 -0.238
104.4709 0.072
104.5011 0.122
104.5314 0.121
104.5617 -0.037
104.5920 0.013
104.6223 0.377
104.6525 0.271
104.6828 0.166
104.7131 0.217
104.7434 0.268
104.7736 0.163
104.8039 0.058
104.8342 0.266
104.8645 0.213
104.8948 0.109
104.9250 0.109
104.9553 0.317
104.9856 -0.204
105.0159 0.161
105.0462 -0.100
105.0764 0.057
105.1067 -0.099
105.1370 0.110
105.1673 0.006
105.1975 -0.097
105.2278 0.060
105.2581 0.061
105.2884 0.218
105.3187 0.115
105.3489 -0.144
105.3792 0.326
105.4095 0.171
105.4398 -0.087
105.4701 -0.138
105.5003 0.071
105.5306 0.177
105.5609 0.230
105.5912 0.231
105.6215 0.284
105.6517 -0.079
105.6820 0.391
105.7123 0.133
105.7426 0.082
105.7728 0.084
105.8031 0.034
105.8334 0.036
105.8637 0.403
105.8940 -0.116
105.9242 -0.009
105.9545 -0.059
105.9848 0.257
106.0151 0.155
106.0454 -0.050
106.0756 -0.047
106.1059 0.425
106.1362 0.219
106.1665 0.066
106.1967 0.330
106.2270 0.178
106.2573 0.077
106.2876 -0.128
106.3179 -0.077
106.3481 0.077
106.3784 0.284
106.4087 0.126
106.4390 0.177
106.4693 -0.189
106.4995 0.174
106.5298 0.121
106.5601 -0.036
106.5904 0.327
106.6206 -0.090
106.6509 0.170
106.6812 -0.039
106.7115 -0.040
106.7418 0.325
106.7720 0.064
106.8023 0.116
106.8326 0.168
106.8629 -0.196
106.8932 0.012
106.9234 0.429
106.9537 0.065
106.9840 -0.039
107.0143 0.327
107.0445 0.432
107.0748 0.068
107.1051 0.121
107.1354 0.278
107.1657 -0.137
107.1959 -0.084
107.2262 -0.134
107.2565 0.180
107.2868 -0.027
107.3171 0.027
107.3473 -0.284
107.3776 0.028
107.4079 -0.077
107.4382 0.547
107.4684 0.130
107.4987 -0.026
107.5290 0.130
107.5593 0.181
107.5896 0.390
107.6198 0.077
107.6501 0.077
107.6804 0.078
107.7107 0.078
107.7410 0.183
107.7712 0.027
107.8015 -0.024
107.8318 -0.180
107.8621 0.078
107.8923 0.076
107.9226 -0.082
107.9529 0.020
107.9832 0.070
108.0135 0.172
108.0437 -0.038
108.0740 0.117
108.1043 0.063
108.1346 0.062
108.1649 0.060
108.1951 0.268
108.2254 0.214
108.2557 0.109
108.2860 0.265
108.3163 -0.101
108.3465 0.419
108.3768 0.002
108.4071 -0.050
108.4374 0.158
108.4676 0.001
108.4979 0.001
108.5282 0.262
108.5585 0.054
108.5888 0.158
108.6190 -0.050
108.6493 -0.154
108.6796 0.106
108.7099 -0.103
108.7402 0.210
108.7704 0.053
108.8007 0.001
108.8310 0.365
108.8613 0.209
108.8915 -0.103
108.9218 0.262
108.9521 0.158
108.9824 0.159
109.0127 0.159
109.0429 -0.100
109.0732 -0.151
109.1035 0.214
109.1338 0.059
109.1641 0.268
109.1943 0.166
109.2246 -0.093
109.2549 -0.092
109.2852 0.222
109.3154 0.224
109.3457 0.018
109.3760 0.436
109.4063 0.230
109.4366 0.493
109.4668 -0.026
109.4971 -0.128
109.5274 -0.028
109.5577 0.124
109.5880 0.224
109.6182 0.273
109.6485 0.112
109.6788 0.057
109.7091 0.157
109.7393 0.206
109.7696 0.306
109.7999 -0.166
109.8302 0.196
109.8605 0.349
109.8907 0.242
109.9210 -0.074
109.9513 0.288
109.9816 0.077
110.0119 -0.134
110.0421 0.333
110.0724 -0.138
110.1027 0.224
110.1330 0.482
110.1632 0.272
110.1935 0.166
110.2238 0.321
110.2541 -0.046
110.2844 0.474
110.3146 0.160
110.3449 0.158
110.3752 -0.051
110.4055 0.000
110.4358 -0.053
110.4660 0.206
110.4963 -0.003
110.5266 0.257
110.5569 0.361
110.5871 0.308
110.6174 0.308
110.6477 0.047
110.6780 -0.005
110.7083 0.151
110.7385 0.047
110.7688 0.047
110.7991 -0.056
110.8294 0.152
110.8597 0.049
110.8899 -0.003
110.9202 -0.002
110.9505 0.259
110.9808 0.104
111.0110 -0.051
111.0413 0.002
111.0716 -0.205
111.1019 0.161
111.1322 -0.045
111.1624 0.165
111.1927 -0.198
111.2230 0.012
111.2533 -0.090
111.2836 0.120
111.3138 -0.138
111.3441 -0.084
111.3744 0.334
111.4047 0.179
111.4350 0.233
111.4652 -0.078
111.4955 0.497
111.5258 0.186
111.5561 -0.020
111.5863 -0.070
111.6166 -0.068
111.6469 0.247
111.6772 -0.167
111.7075 -0.112
111.7377 0.047
111.7680 -0.002
111.7983 0.001
111.8286 0.316
111.8589 0.163
111.8891 -0.146
111.9194 0.222
111.9497 0.069
111.9800 0.073
112.0102 0.025
112.0405 -0.128
112.0708 -0.020
112.1011 -0.121
112.1314 0.038
112.1616 0.615
112.1919 0.045
112.2222 -0.003
112.2525 0.157
112.2828 0.160
112.3130 0.008
112.3433 0.325
112.3736 0.121
112.4039 0.437
112.4341 0.077
112.4644 -0.075
112.4947 0.347
112.5250 0.195
112.5553 0.044
112.5855 -0.003
112.6158 0.002
112.6461 0.580
112.6764 0.012
112.7067 0.174
112.7369 0.335
112.7672 0.185
112.7975 0.607
112.8278 0.196
112.8580 -0.058
112.8883 -0.104
112.9186 0.046
112.9489 0.091
112.9792 0.450
113.0094 0.027
113.0397 0.073
113.0700 0.327
113.1003 -0.095
113.1306 -0.101
113.1608 -0.106
113.1911 -0.008
113.2214 0.195
113.2517 0.086
113.2819 0.133
113.3122 0.284
113.3425 0.071
113.3728 0.170
113.4031 0.113
113.4333 0.265
113.4636 0.156
113.4939 -0.056
113.5242 0.148
113.5545 0.144
113.5847 0.244
113.6150 -0.177
113.6453 0.132
113.6756 0.336
113.7058 -0.032
113.7361 0.017
113.7664 0.170
113.7967 0.166
113.8270 0.111
113.8572 0.369
113.8875 0.209
113.9178 0.207
113.9481 0.152
113.9784 0.149
114.0086 -0.062
114.0389 0.040
114.0692 0.298
114.0995 0.036
114.1298 0.034
114.1600 0.188
114.1903 -0.022
114.2206 0.028
114.2509 -0.078
114.2811 0.233
114.3114 0.024
114.3417 -0.290
114.3720 0.230
114.4023 0.333
114.4325 -0.137
114.4628 -0.138
114.4931 0.117
114.5234 -0.045
114.5537 0.262
114.5839 0.049
114.6142 0.252
114.6445 0.247
114.6748 -0.175
114.7050 -0.128
114.7353 0.128
114.7656 0.019
114.7959 0.067
114.8262 0.062
114.8564 0.267
114.8867 0.106
114.9170 0.310
114.9473 0.046
114.9776 -0.062
115.0078 0.247
115.0381 0.139
115.0684 -0.229
115.0987 0.080
115.1289 0.181
115.1592 0.230
115.1895 0.175
115.2198 -0.089
115.2501 0.273
115.2803 0.166
115.3106 -0.045
115.3409 -0.100
115.3712 -0.258
115.4015 0.156
115.4317 0.205
115.4620 -0.110
115.4923 -0.112
115.5226 0.041
115.5528 0.248
115.5831 0.193
115.6134 -0.017
115.6437 0.450
115.6740 0.032
115.7042 0.134
115.7345 0.393
115.7648 0.235
115.7951 0.338
115.8254 -0.288
115.8556 0.232
115.8859 0.074
115.9162 0.282
115.9465 -0.032
115.9767 0.072
116.0070 0.123
116.0373 0.123
116.0676 -0.034
116.0979 -0.138
116.1281 -0.086
116.1584 0.331
116.1887 0.383
116.2190 -0.190
116.2493 0.071
116.2795 0.123
116.3098 -0.084
116.3401 0.020
116.3704 0.334
116.4006 0.126
116.4309 0.336
116.4612 0.441
116.4915 0.286
116.5218 0.131
116.5520 -0.232
116.5823 -0.076
116.6126 0.237
116.6429 0.029
116.6732 0.394
116.7034 -0.074
116.7337 0.083
116.7640 0.032
116.7943 0.502
116.8245 -0.174
116.8548 0.348
116.8851 -0.120
116.9154 -0.118
116.9457 0.717
116.9759 -0.115
117.0062 -0.113
117.0365 -0.059
117.0668 0.047
117.0971 0.049
117.1273 0.676
117.1576 -0.103
117.1879 0.108
117.2182 0.111
117.2485 0.165
117.2787 0.272
117.3090 0.119
117.3393 -0.086
117.3696 0.125
117.3998 0.128
117.4301 -0.025
117.4604 0.499
117.4907 0.190
117.5210 -0.170
117.5512 0.250
117.5815 -0.163
117.6118 0.206
117.6421 -0.155
117.6724 -0.046
117.7026 0.166
117.7329 0.067
117.7632 -0.137
117.7935 0.076
117.8237 -0.232
117.8540 -0.023
117.8843 0.081
117.9146 0.290
117.9449 -0.074
117.9751 0.187
118.0054 0.188
118.0357 0.032
118.0660 -0.227
118.0963 0.035
118.1265 0.088
118.1568 -0.119
118.1871 0.195
118.2174 0.353
118.2476 0.094
118.2779 0.044
118.3082 -0.058
118.3385 0.464
118.3688 -0.002
118.3990 0.000
118.4293 -0.154
118.4596 0.051
118.4899 0.152
118.5202 -0.111
118.5504 -0.218
118.5807 0.300
118.6110 -0.327
118.6413 -0.017
118.6715 0.189
118.7018 0.395
118.7321 -0.024
118.7624 0.286
118.7927 -0.080
118.8229 0.283
118.8532 0.177
118.8835 0.123
118.9138 0.017
118.9441 0.016
118.9743 0.067
119.0046 0.170
119.0349 0.065
119.0652 0.168
119.0954 0.115
119.1257 -0.094
119.1560 -0.147
119.1863 -0.147
119.2166 0.060
119.2468 0.059
119.2771 -0.150
119.3074 0.110
119.3377 0.058
119.3680 0.109
119.3982 0.213
119.4285 -0.099
119.4588 0.109
119.4891 0.005
119.5193 0.005
119.5496 0.006
119.5799 -0.150
119.6102 0.111
119.6405 -0.097
119.6707 -0.044
119.7010 -0.147
119.7313 0.008
119.7616 -0.098
119.7919 -0.046
119.8221 0.057
119.8524 0.264
119.8827 0.160
119.9130 0.159
119.9433 -0.258
119.9735 -0.156
120.0038 0.000
