'Id: "" Comment: "" Operator: "Lab Manager" Anode: "Cu" Scantype: "Locked Coupled" TimePerStep: "19.2" X: "9999" Y: "9999" Z: "9999" 
10.0015 0.000
10.0318 1.222
10.0620 -0.264
10.0923 0.385
10.1226 -0.007
10.1529 -0.659
10.1832 -0.163
10.2134 -0.291
10.2437 0.050
10.2740 -0.339
10.3043 -0.519
10.3346 -0.465
10.3648 0.110
10.3951 -0.462
10.4254 -0.564
10.4557 0.376
10.4859 -0.351
10.5162 0.016
10.5465 0.747
10.5768 0.750
10.6071 0.180
10.6373 0.183
10.6676 0.030
10.6979 0.502
10.7282 -0.016
10.7585 -0.064
10.7887 -0.113
10.8190 0.725
10.8493 -0.626
10.8796 0.056
10.9098 0.945
10.9401 0.846
10.9704 -0.191
11.0007 0.126
11.0310 0.287
11.0612 0.865
11.0915 0.506
11.1218 -0.322
11.1521 -0.004
11.1824 0.470
11.2126 0.164
11.2429 -0.299
11.2732 0.853
11.3035 0.182
11.3337 -0.332
11.3640 0.560
11.3943 -0.006
11.4246 -0.729
11.4549 -0.259
11.4851 0.733
11.5154 -0.047
11.5457 0.059
11.5760 0.009
11.6063 0.272
11.6365 0.066
11.6668 -0.608
11.6971 -0.085
11.7274 -0.447
11.7577 0.025
11.7879 -0.284
11.8182 -0.177
11.8485 0.087
11.8788 0.039
11.9090 0.928
11.9393 -0.423
11.9696 -0.523
11.9999 0.263
12.0302 -0.670
12.0604 -0.353
12.0907 0.016
12.1210 0.021
12.1513 0.026
12.1816 -0.386
12.2118 0.401
12.2421 -0.063
12.2724 -0.422
12.3027 -0.416
12.3329 -0.254
12.3632 0.221
12.3935 -0.137
12.4238 0.129
12.4541 -0.229
12.4843 1.340
12.5146 -0.059
12.5449 -0.625
12.5752 0.528
12.6055 -0.246
12.6357 0.438
12.6660 0.342
12.6963 0.506
12.7266 -0.476
12.7568 -0.103
12.7871 0.061
12.8174 -0.347
12.8477 0.130
12.8780 -0.226
12.9082 -0.582
12.9385 0.000
12.9688 -0.616
12.9991 -0.244
13.0294 0.181
13.0596 0.397
13.0899 -1.001
13.1202 -0.472
13.1505 -0.264
13.1807 -0.420
13.2110 0.258
13.2413 0.050
13.2716 0.051
13.3019 -0.417
13.3321 -0.468
13.3624 -0.154
13.3927 0.264
13.4230 -0.203
13.4533 0.164
13.4835 0.113
13.5138 -0.458
13.5441 0.222
13.5744 -0.297
13.6046 -0.034
13.6349 -0.187
13.6652 -0.237
13.6955 0.339
13.7258 -0.231
13.7560 -0.019
13.7863 -0.120
13.8166 -0.168
13.8469 -0.633
13.8772 -0.004
13.9074 -0.052
13.9377 -0.777
13.9680 0.477
13.9983 0.221
14.0285 -0.191
14.0588 -0.655
14.0891 -0.025
14.1194 0.084
14.1497 0.246
14.1799 0.147
14.2102 0.100
14.2405 0.471
14.2708 -0.513
14.3011 0.118
14.3313 0.749
14.3616 -0.964
14.3919 -0.436
14.4222 -0.169
14.4524 -0.371
14.4827 -0.416
14.5130 -0.357
14.5433 -0.193
14.5736 0.126
14.6038 0.290
14.6341 -0.067
14.6644 -0.371
14.6947 0.470
14.7250 0.270
14.7552 0.643
14.7855 -0.339
14.8158 0.243
14.8461 -0.425
14.8764 0.156
14.9066 -0.043
14.9369 0.122
14.9672 -0.441
14.9975 0.141
15.0277 -0.787
15.0580 -0.368
15.0883 0.050
15.1186 0.052
15.1489 0.315
15.1791 -0.204
15.2094 0.059
15.2397 -0.824
15.2700 0.481
15.3003 0.171
15.3305 -0.503
15.3608 -0.135
15.3911 0.285
15.4214 0.132
15.4516 -0.385
15.4819 -0.017
15.5122 0.143
15.5425 0.304
15.5728 -0.682
15.6030 0.417
15.6333 0.629
15.6636 -0.303
15.6939 -0.299
15.7242 -0.346
15.7544 -0.028
15.7847 -0.387
15.8150 -0.174
15.8453 0.561
15.8755 -0.162
15.9058 0.052
15.9361 -0.671
15.9664 0.012
15.9967 -0.606
16.0269 -0.131
16.0572 0.344
16.0875 -0.378
16.1178 -0.267
16.1481 -0.364
16.1783 0.529
16.2086 0.067
16.2389 -0.394
16.2692 -0.126
16.2994 -0.378
16.3297 -0.266
16.3600 -0.414
16.3903 -0.152
16.4206 0.319
16.4508 0.113
16.4811 0.115
16.5114 0.118
16.5417 0.537
16.5720 -0.033
16.6022 0.335
16.6325 -0.079
16.6628 0.289
16.6931 0.501
16.7233 0.036
16.7536 -0.065
16.7839 0.512
16.8142 0.725
16.8445 -0.156
16.8747 -0.152
16.9050 0.425
16.9353 -0.247
16.9656 -0.346
16.9959 0.440
17.0261 0.080
17.0564 0.086
17.0867 0.404
17.1170 -0.372
17.1472 0.311
17.1775 -0.204
17.2078 -0.198
17.2381 -0.400
17.2684 -0.550
17.2986 0.342
17.3289 -0.223
17.3592 0.721
17.3895 -0.521
17.4198 -0.097
17.4500 0.796
17.4803 0.178
17.5106 0.447
17.5409 0.299
17.5712 0.151
17.6014 -0.362
17.6317 0.532
17.6620 0.176
17.6923 0.185
17.7225 0.350
17.7528 0.359
17.7831 0.368
17.8134 0.326
17.8437 -0.029
17.8739 0.553
17.9042 -0.010
17.9345 -0.260
17.9648 0.115
17.9951 0.646
18.0253 0.604
18.0556 0.719
18.0859 0.365
18.1162 0.116
18.1464 0.335
18.1767 0.503
18.2070 -0.059
18.2373 -0.099
18.2676 -0.244
18.2978 0.237
18.3281 -0.012
18.3584 0.261
18.3887 0.690
18.4190 0.286
18.4492 0.194
18.4795 -0.262
18.5098 0.793
18.5401 0.389
18.5703 -0.118
18.6006 -0.365
18.6309 -0.058
18.6612 0.301
18.6915 0.452
18.7217 0.395
18.7520 1.015
18.7823 0.020
18.8126 0.380
18.8429 0.220
18.8731 0.684
18.9034 -0.414
18.9337 1.041
18.9640 0.828
18.9942 0.356
19.0245 0.404
19.0548 0.766
19.0851 0.815
19.1154 0.291
19.1456 0.340
19.1759 0.389
19.2062 0.334
19.2365 0.488
19.2668 0.382
19.2970 -0.037
19.3273 -0.300
19.3576 -0.093
19.3879 -0.303
19.4181 0.685
19.4484 0.163
19.4787 0.057
19.5090 0.473
19.5393 0.055
19.5695 -0.362
19.5998 0.054
19.6301 0.001
19.6604 0.209
19.6907 -0.104
19.7209 0.052
19.7512 0.261
19.7815 0.313
19.8118 0.053
19.8420 -0.050
19.8723 0.419
19.9026 0.628
19.9329 0.004
19.9632 0.630
19.9934 0.423
20.0237 0.217
20.0540 -0.355
20.0843 -0.515
20.1146 0.211
20.1448 0.364
20.1751 -0.473
20.2054 0.253
20.2357 0.146
20.2659 0.143
20.2962 0.193
20.3265 0.086
20.3568 -0.229
20.3871 0.186
20.4173 0.340
20.4476 -0.027
20.4779 0.545
20.5082 0.335
20.5385 -0.240
20.5687 0.332
20.5990 -0.190
20.6293 0.955
20.6596 0.173
20.6899 -0.088
20.7201 0.224
20.7504 1.004
20.7807 0.119
20.8110 0.171
20.8412 0.379
20.8715 0.015
20.9018 0.067
20.9321 -0.141
20.9624 0.173
20.9926 0.330
21.0229 -0.242
21.0532 0.384
21.0835 0.125
21.1138 0.074
21.1440 0.597
21.1743 0.025
21.2046 -0.285
21.2349 -0.179
21.2651 0.136
21.2954 0.138
21.3257 -0.068
21.3560 -0.273
21.3863 0.094
21.4165 0.462
21.4468 0.517
21.4771 0.051
21.5074 -0.102
21.5377 -0.098
21.5679 -0.355
21.5982 -0.255
21.6285 0.001
21.6588 -0.003
21.6890 -0.423
21.7193 0.250
21.7496 -0.743
21.7799 -0.330
21.8102 -0.281
21.8404 0.341
21.8707 0.494
21.9010 -0.134
21.9313 0.176
21.9616 0.121
21.9918 0.431
22.0221 -0.196
22.0524 -0.146
22.0827 0.217
22.1129 -0.097
22.1432 -0.359
22.1735 0.108
22.2038 -0.206
22.2341 -0.051
22.2643 -0.052
22.2946 -0.469
22.3249 0.624
22.3552 0.623
22.3855 -0.419
22.4157 -0.211
22.4460 0.258
22.4763 -0.315
22.5066 -0.003
22.5368 0.050
22.5671 -0.002
22.5974 -0.053
22.6277 0.364
22.6580 -0.416
22.6882 -0.363
22.7185 -0.102
22.7488 -0.362
22.7791 0.316
22.8094 0.057
22.8396 -0.255
22.8699 -0.097
22.9002 0.164
22.9305 -0.511
22.9607 -0.301
22.9910 -0.039
23.0213 -0.089
23.0516 0.121
23.0819 -0.449
23.1121 -0.291
23.1424 -0.393
23.1727 0.339
23.2030 -0.335
23.2333 -0.332
23.2635 -0.173
23.2938 -0.014
23.3241 -0.114
23.3544 0.149
23.3846 -0.003
23.4149 -0.260
23.4452 -0.308
23.4755 0.477
23.5058 -0.195
23.5360 -0.243
23.5663 -0.603
23.5966 0.287
23.6269 0.084
23.6572 -0.380
23.6874 0.146
23.7177 0.568
23.7480 -0.312
23.7783 -0.098
23.8086 -0.197
23.8388 -0.034
23.8691 -0.497
23.8994 0.186
23.9297 -0.380
23.9599 0.199
23.9902 0.362
24.0205 -0.152
24.0508 0.167
24.0811 -0.346
24.1113 0.078
24.1416 0.241
24.1719 -0.272
24.2022 0.100
24.2325 0.004
24.2627 0.325
24.2930 -0.240
24.3233 -0.336
24.3536 0.078
24.3838 0.595
24.4141 0.124
24.4444 0.277
24.4747 0.118
24.5050 0.064
24.5352 0.062
24.5655 0.112
24.5958 -0.411
24.6261 0.160
24.6564 -0.154
24.6866 0.209
24.7169 0.051
24.7472 0.154
24.7775 0.465
24.8077 0.204
24.8380 0.047
24.8683 -0.006
24.8986 -0.579
24.9289 0.306
24.9591 0.410
24.9894 -0.111
25.0197 -0.058
25.0500 -0.006
25.0803 0.515
25.1105 -0.109
25.1408 -0.213
25.1711 0.413
25.2014 -0.263
25.2316 0.363
25.2619 -0.156
25.2922 0.002
25.3225 0.264
25.3528 0.213
25.3830 0.215
25.4133 -0.355
25.4436 0.116
25.4739 0.274
25.5042 0.485
25.5344 -0.189
25.5647 -0.238
25.5950 0.129
25.6253 -0.597
25.6555 0.032
25.6858 0.556
25.7161 0.091
25.7464 -0.062
25.7767 0.203
25.8069 0.050
25.8372 -0.049
25.8675 0.215
25.8978 -0.249
25.9281 0.277
25.9583 0.073
25.9886 0.651
26.0189 -0.021
26.0492 -0.120
26.0794 0.407
26.1097 0.412
26.1400 0.418
26.1703 0.059
26.2006 0.169
26.2308 0.332
26.2611 0.026
26.2914 -0.072
26.3217 0.456
26.3520 -0.058
26.3822 -0.312
26.4125 -0.527
26.4428 0.196
26.4731 0.241
26.5034 0.443
26.5336 0.489
26.5639 0.223
26.5942 0.269
26.6245 0.055
26.6547 0.414
26.6850 0.148
26.7153 0.612
26.7456 0.086
26.7759 0.341
26.8061 0.024
26.8364 0.071
26.8667 -0.038
26.8970 0.427
26.9273 0.162
26.9575 -0.206
26.9878 0.519
27.0181 0.046
27.0484 -0.061
27.0786 0.248
27.1089 0.244
27.1392 0.710
27.1695 0.447
27.1998 0.288
27.2300 0.285
27.2603 0.491
27.2906 0.280
27.3209 0.174
27.3512 0.015
27.3814 -0.247
27.4117 0.220
27.4420 0.270
27.4723 0.738
27.5025 0.893
27.5328 0.006
27.5631 0.317
27.5934 0.837
27.6237 0.003
27.6539 0.524
27.6842 0.419
27.7145 0.471
27.7448 0.002
27.7751 0.210
27.8053 0.315
27.8356 0.003
27.8659 -0.049
27.8962 0.264
27.9264 0.005
27.9567 0.318
27.9870 0.215
28.0173 0.581
28.0476 0.530
28.0778 0.480
28.1081 0.586
28.1384 0.327
28.1687 -0.400
28.1990 0.383
28.2292 0.229
28.2595 -0.081
28.2898 0.182
28.3201 0.341
28.3503 -0.072
28.3806 -0.330
28.4109 -0.131
28.4412 0.225
28.4715 0.060
28.5017 0.259
28.5320 0.251
28.5623 0.346
28.5926 0.390
28.6229 0.382
28.6531 0.061
28.6834 0.053
28.7137 0.306
28.7440 0.611
28.7742 -0.334
28.8045 -0.029
28.8348 0.381
28.8651 -0.147
28.8954 -0.050
28.9256 0.517
28.9559 0.041
28.9862 -0.330
29.0165 0.549
29.0468 0.491
29.0770 -0.296
29.1073 0.636
29.1376 0.057
29.1679 0.052
29.1981 -0.005
29.2284 -0.167
29.2587 0.193
29.2890 0.188
29.3193 -0.077
29.3495 0.335
29.3798 0.122
29.4101 0.170
29.4404 0.426
29.4707 -0.203
29.5009 -0.363
29.5312 -0.171
29.5615 0.542
29.5918 -0.151
29.6221 0.249
29.6523 0.910
29.6826 0.061
29.7129 0.671
29.7432 0.134
29.7734 -0.037
29.8037 0.156
29.8340 -0.120
29.8643 0.595
29.8946 0.372
29.9248 0.097
29.9551 0.134
29.9854 0.224
30.0157 -0.050
30.0460 -0.116
30.0762 -0.078
30.1065 -0.300
30.1368 0.103
30.1671 -0.275
30.1973 0.024
30.2276 -0.041
30.2579 0.103
30.2882 0.090
30.3185 0.025
30.3487 0.221
30.3790 0.365
30.4093 -0.012
30.4396 -0.388
30.4699 0.902
30.5001 0.942
30.5304 0.827
30.5607 0.659
30.5910 -0.081
30.6212 0.116
30.6515 0.417
30.6818 0.511
30.7121 0.448
30.7424 0.073
30.7726 1.417
30.8029 0.886
30.8332 1.865
30.8635 0.814
30.8938 2.158
30.9240 1.055
30.9543 1.983
30.9846 1.922
31.0149 1.861
31.0451 2.164
31.0754 2.572
31.1057 2.043
31.1360 2.972
31.1663 4.005
31.1965 2.851
31.2268 3.624
31.2571 5.127
31.2874 5.171
31.3177 5.476
31.3479 7.864
31.3782 8.117
31.4085 9.621
31.4388 9.509
31.4690 11.690
31.4993 12.986
31.5296 14.177
31.5599 15.368
31.5902 16.716
31.6204 18.377
31.6507 16.444
31.6810 19.355
31.7113 14.974
31.7416 15.177
31.7718 13.401
31.8021 10.948
31.8324 9.276
31.8627 7.813
31.8929 7.496
31.9232 6.450
31.9535 5.976
31.9838 4.097
32.0141 3.572
32.0443 3.516
32.0746 3.512
32.1049 2.103
32.1352 1.734
32.1655 1.731
32.1957 1.936
32.2260 1.725
32.2563 1.774
32.2866 1.407
32.3169 1.092
32.3471 1.454
32.3774 0.149
32.4077 1.554
32.4380 1.135
32.4682 0.925
32.4985 0.506
32.5288 -0.016
32.5591 -0.799
32.5894 0.607
32.6196 0.918
32.6499 0.761
32.6802 0.395
32.7105 0.239
32.7408 -0.179
32.7710 0.290
32.8013 -0.231
32.8316 0.758
32.8619 0.290
32.8921 -0.387
32.9224 -0.022
32.9527 -0.386
32.9830 0.032
33.0133 -0.645
33.0435 0.086
33.0738 -0.017
33.1041 -0.276
33.1344 -0.587
33.1647 0.031
33.1949 -0.027
33.2252 -0.919
33.2555 -0.039
33.2858 -0.045
33.3160 0.002
33.3463 0.100
33.3766 -0.113
33.4069 -0.014
33.4372 0.241
33.4674 -0.858
33.4977 -0.237
33.5280 -0.034
33.5583 0.535
33.5886 0.062
33.6188 -0.046
33.6491 0.679
33.6794 0.779
33.7097 0.932
33.7399 1.137
33.7702 1.342
33.8005 1.026
33.8308 1.179
33.8611 1.280
33.8913 1.069
33.9216 1.483
33.9519 2.210
33.9822 2.468
34.0125 4.029
34.0427 4.079
34.0730 3.973
34.1033 5.325
34.1336 7.824
34.1638 9.281
34.1941 12.613
34.2244 17.924
34.2547 18.392
34.2850 20.839
34.3152 19.120
34.3455 17.869
34.3758 14.692
34.4061 10.681
34.4364 8.233
34.4666 7.036
34.4969 5.213
34.5272 4.172
34.5575 3.495
34.5877 2.610
34.6180 2.247
34.6483 2.092
34.6786 0.791
34.7089 1.261
34.7391 0.429
34.7694 0.899
34.7997 1.110
34.8300 0.278
34.8603 0.853
34.8905 -0.447
34.9208 0.754
34.9511 0.235
34.9814 0.707
35.0116 0.397
35.0419 0.452
35.0722 0.872
35.1025 0.355
35.1328 0.775
35.1630 0.414
35.1933 0.001
35.2236 1.099
35.2539 1.051
35.2842 1.940
35.3144 0.851
35.3447 1.220
35.3750 1.589
35.4053 0.500
35.4356 2.068
35.4658 1.031
35.4961 2.182
35.5264 2.240
35.5567 2.141
35.5869 3.866
35.6172 3.924
35.6475 2.367
35.6778 3.988
35.7081 4.828
35.7383 6.189
35.7686 5.831
35.7989 6.931
35.8292 7.876
35.8595 9.654
35.8897 10.494
35.9200 12.950
35.9503 12.749
35.9806 17.444
36.0108 20.212
36.0411 21.418
36.0714 22.260
36.1017 23.883
36.1320 25.922
36.1622 22.233
36.1925 21.982
36.2228 18.865
36.2531 16.427
36.2834 17.634
36.3136 14.831
36.3439 13.069
36.3742 9.225
36.4045 9.495
36.4347 6.068
36.4650 4.984
36.4953 4.994
36.5256 4.224
36.5559 4.703
36.5861 3.516
36.6164 3.579
36.6467 1.975
36.6770 2.403
36.7073 2.206
36.7375 1.801
36.7678 1.761
36.7981 1.564
36.8284 1.472
36.8586 1.015
36.8889 1.496
36.9192 0.884
36.9495 0.219
36.9798 0.961
37.0100 1.130
37.0403 0.622
37.0706 0.531
37.1009 0.701
37.1312 0.402
37.1614 0.832
37.1917 0.377
37.2220 -0.182
37.2523 -0.115
37.2825 0.263
37.3128 -0.191
37.3431 -0.437
37.3734 0.099
37.4037 0.114
37.4339 0.337
37.4642 0.977
37.4945 0.367
37.5248 -0.294
37.5551 0.294
37.5853 -0.002
37.6156 0.118
37.6459 -0.075
37.6762 0.358
37.7064 0.218
37.7367 -0.182
37.7670 0.095
37.7973 0.529
37.8276 0.181
37.8578 -0.427
37.8881 -0.355
37.9184 0.081
37.9487 -0.577
37.9790 0.120
38.0092 -0.225
38.0395 -0.205
38.0698 -0.028
38.1001 0.201
38.1304 -0.091
38.1606 0.398
38.1909 -0.258
38.2212 0.075
38.2515 0.044
38.2817 -0.195
38.3120 -0.330
38.3423 -0.013
38.3726 -0.112
38.4029 -0.108
38.4331 0.574
38.4634 0.267
38.4937 0.324
38.5240 0.486
38.5543 0.439
38.5845 0.028
38.6148 0.555
38.6451 0.353
38.6754 -0.371
38.7056 0.105
38.7359 -0.149
38.7662 -0.039
38.7965 0.020
38.8268 -0.077
38.8570 0.451
38.8873 -0.115
38.9176 0.153
38.9479 0.212
38.9782 0.168
39.0084 0.123
39.0387 0.183
39.0690 -0.225
39.0993 -0.113
39.1295 0.104
39.1598 0.269
39.1901 -0.243
39.2204 -0.078
39.2507 0.087
39.2809 0.148
39.3112 -0.155
39.3415 0.427
39.3718 -0.084
39.4021 0.447
39.4323 0.248
39.4626 0.310
39.4929 0.216
39.5232 0.175
39.5534 0.342
39.5837 -0.429
39.6140 -0.158
39.6443 -0.199
39.6746 0.333
39.7048 0.240
39.7351 0.720
39.7654 0.055
39.7957 0.014
39.8260 0.339
39.8562 -0.118
39.8865 -0.262
39.9168 -0.009
39.9471 0.192
39.9773 0.133
40.0076 0.543
40.0379 -0.036
40.0682 0.114
40.0985 0.003
40.1287 0.570
40.1590 -0.061
40.1893 0.245
40.2196 0.135
40.2499 0.026
40.2801 0.124
40.3104 0.015
40.3407 0.010
40.3710 0.057
40.4012 0.052
40.4315 0.621
40.4618 0.564
40.4921 -0.170
40.5224 -0.278
40.5526 -0.074
40.5829 0.495
40.6132 -0.081
40.6435 0.175
40.6738 0.068
40.7040 0.065
40.7343 0.218
40.7646 -0.150
40.7949 -0.153
40.8251 -0.155
40.8554 -0.262
40.8857 0.204
40.9160 0.202
40.9463 -0.060
40.9765 -0.375
41.0068 -0.063
41.0371 -0.220
41.0674 -0.273
41.0977 -0.274
41.1279 0.143
41.1582 0.038
41.1885 -0.118
41.2188 -0.066
41.2491 -0.013
41.2793 -0.377
41.3096 0.144
41.3399 0.301
41.3702 -0.167
41.4004 -0.062
41.4307 -0.113
41.4610 0.305
41.4913 -0.006
41.5216 -0.316
41.5518 0.050
41.5821 0.052
41.6124 0.158
41.6427 -0.048
41.6730 -0.202
41.7032 0.061
41.7335 0.168
41.7638 -0.142
41.7941 -0.243
41.8243 0.073
41.8546 0.076
41.8849 0.028
41.9152 0.135
41.9455 -0.173
41.9757 -0.013
42.0060 0.147
42.0363 -0.005
42.0666 -0.157
42.0969 0.004
42.1271 -0.096
42.1574 0.013
42.1877 -0.034
42.2180 -0.081
42.2482 0.133
42.2785 -0.122
42.3088 -0.273
42.3391 -0.273
42.3694 -0.118
42.3996 0.453
42.4299 0.140
42.4602 0.190
42.4905 0.189
42.5208 0.137
42.5510 0.344
42.5813 -0.021
42.6116 -0.126
42.6419 -0.178
42.6721 -0.074
42.7024 0.187
42.7327 0.187
42.7630 0.083
42.7933 -0.177
42.8235 0.553
42.8538 0.293
42.8841 -0.226
42.9144 0.295
42.9447 0.401
42.9749 0.298
43.0052 0.196
43.0355 0.041
43.0658 0.095
43.0960 0.357
43.1263 0.412
43.1566 0.049
43.1869 -0.313
43.2172 0.367
43.2474 0.109
43.2777 -0.356
43.3080 0.324
43.3383 0.431
43.3686 -0.138
43.3988 0.178
43.4291 0.025
43.4594 0.289
43.4897 0.241
43.5199 0.610
43.5502 -0.011
43.5805 -0.162
43.6108 -0.262
43.6411 -0.008
43.6713 0.351
43.7016 0.084
43.7319 -0.182
43.7622 0.333
43.7925 -0.089
43.8227 -0.303
43.8530 0.369
43.8833 -0.001
43.9136 0.307
43.9439 0.666
43.9741 0.401
44.0044 0.084
44.0347 -0.232
44.0650 0.284
44.0952 -0.084
44.1255 0.380
44.1558 0.116
44.1861 0.113
44.2164 -0.203
44.2466 -0.154
44.2769 -0.053
44.3072 -0.108
44.3375 -0.007
44.3678 -0.374
44.3980 0.509
44.4283 -0.119
44.4586 -0.225
44.4889 0.658
44.5191 -0.177
44.5494 -0.283
44.5797 -0.024
44.6100 0.548
44.6403 -0.025
44.6705 -0.130
44.7008 0.026
44.7311 -0.026
44.7614 0.234
44.7917 -0.495
44.8219 0.182
44.8522 -0.078
44.8825 -0.130
44.9128 -0.129
44.9430 0.341
44.9733 -0.179
45.0036 -0.022
45.0339 0.396
45.0642 0.033
45.0944 -0.330
45.1247 0.140
45.1550 -0.066
45.1853 0.196
45.2156 -0.114
45.2458 -0.320
45.2761 -0.017
45.3064 -0.079
45.3367 0.068
45.3669 0.059
45.3972 -0.055
45.4275 0.041
45.4578 -0.229
45.4881 -0.029
45.5183 0.119
45.5486 0.058
45.5789 -0.263
45.6092 -0.271
45.6395 0.294
45.6697 -0.495
45.7000 -0.138
45.7303 0.428
45.7606 -0.100
45.7908 -0.212
45.8211 0.146
45.8514 -0.434
45.8817 0.341
45.9120 0.386
45.9422 0.015
45.9725 -0.043
46.0028 0.263
46.0331 0.362
46.0634 -0.009
46.0936 0.142
46.1239 0.084
46.1542 -0.077
46.1845 0.126
46.2147 0.329
46.2450 -0.040
46.2753 -0.045
46.3056 0.315
46.3359 0.258
46.3661 -0.163
46.3964 0.146
46.4267 0.246
46.4570 0.242
46.4873 0.082
46.5175 0.183
46.5478 -0.081
46.5781 -0.084
46.6084 -0.348
46.6386 0.535
46.6689 -0.041
46.6992 -0.304
46.7295 0.215
46.7598 0.108
46.7900 0.523
46.8203 0.416
46.8506 0.571
46.8809 0.465
46.9112 0.359
46.9414 0.722
46.9717 1.138
47.0020 0.772
47.0323 1.032
47.0626 0.979
47.0928 1.082
47.1231 1.551
47.1534 1.863
47.1837 2.383
47.2139 2.071
47.2442 2.748
47.2745 3.061
47.3048 3.426
47.3351 4.416
47.3653 4.365
47.3956 4.261
47.4259 3.377
47.4562 4.003
47.4865 4.630
47.5167 4.319
47.5470 3.383
47.5773 3.385
47.6076 2.866
47.6378 2.607
47.6681 1.932
47.6984 1.362
47.7287 1.625
47.7590 1.055
47.7892 1.058
47.8195 0.852
47.8498 0.595
47.8801 0.598
47.9104 0.550
47.9406 0.241
47.9709 0.453
48.0012 1.082
48.0315 -0.112
48.0617 0.361
48.0920 -0.208
48.1223 0.422
48.1526 0.843
48.1829 0.119
48.2131 0.228
48.2434 0.129
48.2737 -0.334
48.3040 -0.121
48.3343 0.302
48.3645 -0.422
48.3948 -0.312
48.4251 0.260
48.4554 0.156
48.4856 0.051
48.5159 -0.418
48.5462 -0.001
48.5765 0.207
48.6068 -0.157
48.6370 -0.105
48.6673 -0.157
48.6976 0.104
48.7279 -0.468
48.7582 -0.102
48.7884 -0.101
48.8187 0.056
48.8490 -0.098
48.8793 -0.149
48.9095 -0.408
48.9398 0.010
48.9701 0.062
49.0004 0.011
49.0307 0.168
49.0609 -0.091
49.0912 0.119
49.1215 0.120
49.1518 0.018
49.1821 -0.137
49.2123 -0.291
49.2426 0.180
49.2729 -0.183
49.3032 0.497
49.3334 0.239
49.3637 0.137
49.3940 0.088
49.4243 0.039
49.4546 0.146
49.4848 0.150
49.5151 0.153
49.5454 -0.052
49.5757 0.160
49.6060 0.164
49.6362 0.064
49.6665 -0.296
49.6968 -0.136
49.7271 -0.392
49.7574 0.446
49.7876 -0.122
49.8179 -0.169
49.8482 0.357
49.8785 0.102
49.9087 0.264
49.9390 -0.096
49.9693 -0.402
49.9996 -0.036
50.0299 0.175
50.0601 -0.136
50.0904 -0.081
50.1207 -0.131
50.1510 0.236
50.1813 0.187
50.2115 0.242
50.2418 -0.171
50.2721 -0.168
50.3024 -0.373
50.3326 0.047
50.3629 -0.105
50.3932 0.211
50.4235 -0.358
50.4538 -0.197
50.4840 0.068
50.5143 -0.449
50.5446 -0.079
50.5749 -0.283
50.6052 -0.073
50.6354 -0.123
50.6657 -0.017
50.6960 -0.276
50.7263 0.091
50.7565 0.145
50.7868 -0.165
50.8171 -0.162
50.8474 -0.107
50.8777 0.208
50.9079 0.263
50.9382 0.735
50.9685 -0.147
50.9988 0.117
51.0291 -0.140
51.0593 0.333
51.0896 0.129
51.1199 0.081
51.1502 0.085
51.1804 0.089
51.2107 -0.323
51.2410 0.307
51.2713 0.156
51.3016 -0.256
51.3318 -0.251
51.3621 0.327
51.3924 -0.084
51.4227 0.182
51.4530 0.292
51.4832 0.038
51.5135 0.044
51.5438 -0.314
51.5741 0.109
51.6043 0.167
51.6346 0.070
51.6649 0.181
51.6952 -0.073
51.7255 -0.117
51.7557 0.046
51.7860 -0.259
51.8163 -0.159
51.8466 0.046
51.8769 -0.062
51.9071 0.299
51.9374 0.347
51.9677 0.448
51.9980 -0.232
52.0282 0.130
52.0585 0.127
52.0888 0.176
52.1191 0.486
52.1494 -0.141
52.1796 -0.039
52.2099 0.271
52.2402 0.582
52.2705 0.320
52.3008 -0.046
52.3310 -0.100
52.3613 0.159
52.3916 0.106
52.4219 -0.207
52.4521 0.313
52.4824 -0.001
52.5127 -0.210
52.5430 -0.262
52.5733 -0.314
52.6035 0.153
52.6338 0.048
52.6641 -0.422
52.6944 -0.059
52.7247 0.149
52.7549 0.304
52.7852 -0.426
52.8155 0.147
52.8458 -0.270
52.8761 -0.010
52.9063 -0.218
52.9366 0.146
52.9669 -0.426
52.9972 -0.165
53.0274 0.252
53.0577 0.201
53.0880 -0.163
53.1183 0.307
53.1486 0.464
53.1788 -0.003
53.2091 -0.262
53.2394 -0.112
53.2697 0.194
53.3000 0.084
53.3302 0.390
53.3605 0.176
53.3908 0.431
53.4211 -0.148
53.4513 -0.257
53.4816 -0.211
53.5119 -0.059
53.5422 -0.273
53.5725 -0.175
53.6027 -0.233
53.6330 -0.135
53.6633 -0.089
53.6936 0.583
53.7239 -0.100
53.7541 -0.157
53.7844 -0.162
53.8147 0.145
53.8450 -0.277
53.8752 0.083
53.9055 0.183
53.9358 0.335
53.9661 -0.086
53.9964 0.222
54.0266 -0.303
54.0569 0.006
54.0872 0.002
54.1175 -0.314
54.1478 0.047
54.1780 -0.112
54.2083 -0.376
54.2386 0.038
54.2689 0.087
54.2991 -0.280
54.3294 -0.126
54.3597 -0.024
54.3900 0.286
54.4203 -0.133
54.4505 -0.291
54.4808 0.124
54.5111 -0.242
54.5414 -0.244
54.5717 -0.141
54.6019 -0.298
54.6322 0.008
54.6625 -0.102
54.6928 -0.212
54.7230 -0.009
54.7533 -0.379
54.7836 0.189
54.8139 -0.285
54.8442 -0.134
54.8744 0.122
54.9047 -0.143
54.9350 0.165
54.9653 -0.256
54.9956 -0.156
55.0258 -0.056
55.0561 -0.112
55.0864 -0.168
55.1167 0.141
55.1469 -0.279
55.1772 -0.126
55.2075 -0.025
55.2378 -0.236
55.2681 0.125
55.2983 0.019
55.3286 -0.349
55.3589 0.118
55.3892 0.063
55.4195 0.009
55.4497 0.112
55.4800 -0.619
55.5103 -0.048
55.5406 0.263
55.5709 0.157
55.6011 -0.208
55.6314 0.520
55.6617 0.102
55.6920 0.518
55.7222 0.414
55.7525 0.465
55.7828 0.205
55.8131 0.465
55.8434 0.934
55.8736 1.038
55.9039 -0.107
55.9342 0.883
55.9645 0.467
55.9948 1.040
56.0250 0.937
56.0553 0.522
56.0856 2.294
56.1159 2.295
56.1461 2.140
56.1764 1.934
56.2067 2.509
56.2370 2.875
56.2673 3.086
56.2975 3.349
56.3278 4.236
56.3581 4.708
56.3884 5.127
56.4187 5.495
56.4489 4.508
56.4792 5.866
56.5095 4.567
56.5398 5.143
56.5700 3.741
56.6003 4.786
56.6306 3.436
56.6609 2.972
56.6912 3.184
56.7214 2.460
56.7517 3.141
56.7820 1.948
56.8123 2.161
56.8426 1.281
56.8728 1.547
56.9031 1.916
56.9334 0.984
56.9637 0.886
56.9939 0.527
57.0242 0.637
57.0545 0.487
57.0848 0.598
57.1151 0.396
57.1453 0.454
57.1756 0.513
57.2059 0.781
57.2362 0.527
57.2665 0.170
57.2967 0.073
57.3270 0.185
57.3573 0.296
57.3876 0.148
57.4178 -0.105
57.4481 0.112
57.4784 0.380
57.5087 0.128
57.5390 0.450
57.5692 0.094
57.5995 0.363
57.6298 -0.149
57.6601 0.069
57.6904 0.182
57.7206 0.087
57.7509 0.409
57.7812 -0.102
57.8115 0.117
57.8417 0.283
57.8720 0.085
57.9023 -0.061
57.9326 -0.311
57.9629 -0.056
57.9931 0.356
58.0234 0.352
58.0537 -0.018
58.0840 0.030
58.1143 0.286
58.1445 -0.186
58.1748 -0.086
58.2051 0.066
58.2354 0.375
58.2656 -0.149
58.2959 0.264
58.3262 0.053
58.3565 -0.054
58.3868 -0.005
58.4170 0.044
58.4473 0.302
58.4776 0.039
58.5079 -0.276
58.5382 -0.069
58.5684 -0.019
58.5987 0.291
58.6290 0.238
58.6593 0.080
58.6896 0.131
58.7198 -0.131
58.7501 0.285
58.7804 -0.237
58.8107 -0.238
58.8409 0.126
58.8712 -0.135
58.9015 0.126
58.9318 -0.083
58.9621 0.073
58.9923 0.021
59.0226 -0.134
59.0529 0.543
59.0832 -0.133
59.1135 0.284
59.1437 -0.132
59.1740 0.026
59.2043 0.027
59.2346 -0.024
59.2648 0.030
59.2951 0.240
59.3254 0.085
59.3557 -0.017
59.3860 0.037
59.4162 -0.169
59.4465 -0.166
59.4768 0.045
59.5071 0.048
59.5374 -0.314
59.5676 -0.155
59.5979 0.004
59.6282 -0.409
59.6585 0.063
59.6887 -0.142
59.7190 0.122
59.7493 0.178
59.7796 -0.183
59.8099 -0.074
59.8401 -0.383
59.8704 0.039
59.9007 0.043
59.9310 0.048
59.9613 0.209
59.9915 0.110
60.0218 0.063
60.0521 0.016
60.0824 0.126
60.1126 0.288
60.1429 0.345
60.1732 0.143
60.2035 0.149
60.2338 -0.001
60.2640 0.266
60.2943 0.272
60.3246 0.487
60.3549 -0.079
60.3852 -0.332
60.4154 -0.026
60.4457 0.281
60.4760 -0.090
60.5063 0.478
60.5365 -0.049
60.5668 0.206
60.5971 -0.424
60.6274 0.352
60.6577 0.452
60.6879 0.030
60.7182 0.026
60.7485 0.073
60.7788 0.486
60.8091 0.013
60.8393 -0.043
60.8696 -0.203
60.8999 -0.259
60.9302 0.096
60.9604 0.035
60.9907 0.234
61.0210 -0.088
61.0513 -0.045
61.0816 -0.418
61.1118 -0.062
61.1421 -0.069
61.1724 0.027
61.2027 0.176
61.2330 0.065
61.2632 0.110
61.2935 -0.001
61.3238 -0.060
61.3541 -0.171
61.3844 -0.073
61.4146 0.129
61.4449 -0.034
61.4752 -0.248
61.5055 0.059
61.5357 -0.103
61.5660 -0.109
61.5963 -0.219
61.6266 -0.068
61.6569 0.032
61.6871 0.131
61.7174 0.074
61.7477 -0.400
61.7780 0.377
61.8083 0.425
61.8385 0.004
61.8688 0.260
61.8991 -0.160
61.9294 -0.060
61.9596 0.510
61.9899 0.089
62.0202 -0.174
62.0505 0.291
62.0808 0.236
62.1110 0.338
62.1413 -0.030
62.1716 0.697
62.2019 0.330
62.2322 0.536
62.2624 0.430
62.2927 0.636
62.3230 1.103
62.3533 1.779
62.3835 1.933
62.4138 1.567
62.4441 2.035
62.4744 1.357
62.5047 2.085
62.5349 3.178
62.5652 2.605
62.5955 3.229
62.6258 3.490
62.6561 4.844
62.6863 3.646
62.7166 4.740
62.7469 4.115
62.7772 4.272
62.8074 2.345
62.8377 3.232
62.8680 3.285
62.8983 2.400
62.9286 3.599
62.9588 3.132
62.9891 2.561
63.0194 2.771
63.0497 1.731
63.0800 2.254
63.1102 1.058
63.1405 0.748
63.1708 0.646
63.2011 0.649
63.2313 0.391
63.2616 0.602
63.2919 0.137
63.3222 0.765
63.3525 0.404
63.3827 0.095
63.4130 0.255
63.4433 0.571
63.4736 -0.050
63.5039 0.267
63.5341 0.323
63.5644 0.119
63.5947 0.020
63.6250 0.545
63.6552 0.238
63.6855 0.347
63.7158 -0.065
63.7461 0.409
63.7764 0.102
63.8066 0.264
63.8369 0.062
63.8672 -0.088
63.8975 -0.291
63.9278 0.705
63.9580 0.191
63.9883 0.093
64.0186 0.204
64.0489 0.315
64.0791 0.426
64.1094 0.121
64.1397 -0.028
64.1700 0.032
64.2003 -0.169
64.2305 -0.057
64.2608 0.107
64.2911 0.011
64.3214 -0.033
64.3517 0.080
64.3819 0.401
64.4122 -0.112
64.4425 -0.259
64.4728 0.007
64.5031 -0.196
64.5333 0.174
64.5636 -0.133
64.5939 -0.388
64.6242 0.027
64.6544 -0.078
64.6847 0.024
64.7150 0.440
64.7453 -0.134
64.7756 0.229
64.8058 0.072
64.8361 0.176
64.8664 -0.085
64.8967 -0.086
64.9270 0.018
64.9572 -0.086
64.9875 0.018
65.0178 0.019
65.0481 0.019
65.0783 0.280
65.1086 0.124
65.1389 0.281
65.1692 -0.134
65.1995 0.336
65.2297 0.024
65.2600 0.026
65.2903 -0.077
65.3206 -0.283
65.3509 -0.032
65.3811 -0.093
65.4114 0.002
65.4417 0.150
65.4720 -0.015
65.5022 -0.075
65.5325 0.073
65.5628 -0.039
65.5931 -0.099
65.6234 0.466
65.6536 0.146
65.6839 -0.070
65.7142 0.287
65.7445 -0.189
65.7748 0.065
65.8050 -0.046
65.8353 -0.105
65.8656 0.097
65.8959 0.351
65.9261 -0.124
65.9564 0.182
65.9867 0.124
66.0170 0.535
66.0473 0.426
66.0775 -0.049
66.1078 0.206
66.1381 0.618
66.1684 0.561
66.1987 0.452
66.2289 0.135
66.2592 0.547
66.2895 0.594
66.3198 0.590
66.3500 0.065
66.3803 0.322
66.4106 0.266
66.4409 0.731
66.4712 0.311
66.5014 0.672
66.5317 0.096
66.5620 0.666
66.5923 0.350
66.6226 0.192
66.6528 0.397
66.6831 0.082
66.7134 0.236
66.7437 -0.078
66.7739 0.024
66.8042 -0.290
66.8345 0.229
66.8648 -0.033
66.8951 -0.139
66.9253 0.329
66.9556 -0.037
66.9859 -0.298
67.0162 -0.096
67.0465 -0.102
67.0767 0.465
67.1070 -0.009
67.1373 0.193
67.1676 0.136
67.1978 0.235
67.2281 -0.343
67.2584 0.589
67.2887 0.220
67.3190 0.476
67.3492 0.784
67.3795 1.092
67.4098 1.088
67.4401 0.511
67.4704 1.132
67.5006 1.232
67.5309 1.072
67.5612 0.965
67.5915 1.534
67.6218 1.531
67.6520 1.685
67.6823 2.307
67.7126 2.200
67.7429 1.833
67.7731 2.507
67.8034 3.286
67.8337 2.659
67.8640 1.668
67.8943 2.499
67.9245 2.602
67.9548 1.715
67.9851 2.443
68.0154 2.338
68.0457 1.816
68.0759 1.711
68.1062 1.346
68.1365 1.241
68.1668 1.084
68.1970 1.084
68.2273 1.136
68.2576 0.459
68.2879 1.240
68.3182 0.564
68.3484 0.356
68.3787 0.721
68.4090 0.566
68.4393 0.827
68.4696 0.516
68.4998 0.048
68.5301 0.154
68.5604 0.728
68.5907 0.001
68.6209 0.367
68.6512 0.421
68.6815 0.215
68.7118 0.686
68.7421 1.053
68.7723 0.170
68.8026 0.486
68.8329 0.697
68.8632 1.169
68.8935 1.224
68.9237 0.707
68.9540 0.814
68.9843 1.287
69.0146 0.666
69.0448 0.357
69.0751 0.778
69.1054 1.147
69.1357 0.735
69.1660 0.896
69.1962 0.327
69.2265 0.749
69.2568 0.181
69.2871 0.551
69.3174 0.140
69.3476 0.666
69.3779 -0.214
69.4082 0.261
69.4385 0.058
69.4687 0.117
69.4990 0.071
69.5293 -0.183
69.5596 -0.177
69.5899 -0.014
69.6201 -0.111
69.6504 -0.260
69.6807 0.268
69.7110 -0.194
69.7413 -0.238
69.7715 -0.387
69.8018 0.246
69.8321 -0.215
69.8624 -0.207
69.8926 -0.199
69.9229 -0.190
69.9532 -0.077
69.9835 -0.173
70.0138 -0.008
70.0440 0.105
70.0743 0.062
70.1046 -0.137
70.1349 -0.283
70.1652 0.143
70.1954 0.413
70.2257 -0.358
70.2560 -0.140
70.2863 -0.025
70.3166 -0.067
70.3468 -0.213
70.3771 -0.046
70.4074 -0.139
70.4377 -0.076
70.4679 -0.013
70.4982 -0.106
70.5285 0.062
70.5588 -0.239
70.5891 -0.187
70.6193 -0.083
70.6496 -0.135
70.6799 -0.083
70.7102 0.021
70.7405 -0.238
70.7707 0.023
70.8010 -0.081
70.8313 0.493
70.8616 0.025
70.8918 -0.077
70.9221 -0.232
70.9524 0.030
70.9827 -0.177
71.0130 0.033
71.0432 -0.173
71.0735 -0.015
71.1038 0.144
71.1341 -0.010
71.1644 -0.007
71.1946 -0.213
71.2249 -0.106
71.2552 -0.155
71.2855 -0.152
71.3157 -0.304
71.3460 0.061
71.3763 -0.043
71.4066 -0.355
71.4369 0.115
71.4671 -0.301
71.4974 0.013
71.5277 0.014
71.5580 -0.193
71.5883 0.121
71.6185 0.071
71.6488 -0.031
71.6791 0.023
71.7094 0.181
71.7396 0.132
71.7699 0.499
71.8002 -0.280
71.8305 0.452
71.8608 0.299
71.8910 0.198
71.9213 0.045
71.9516 -0.160
71.9819 -0.052
72.0122 0.108
72.0424 0.060
72.0727 -0.353
72.1030 -0.145
72.1333 -0.040
72.1635 -0.092
72.1938 0.221
72.2241 0.065
72.2544 0.222
72.2847 -0.142
72.3149 -0.141
72.3452 0.017
72.3755 0.018
72.4058 0.124
72.4361 0.230
72.4663 0.284
72.4966 0.442
72.5269 0.288
72.5572 0.186
72.5874 0.345
72.6177 -0.069
72.6480 0.402
72.6783 0.092
72.7086 -0.113
72.7388 -0.214
72.7691 -0.055
72.7994 0.208
72.8297 0.003
72.8600 0.110
72.8902 -0.199
72.9205 0.221
72.9508 0.120
72.9811 -0.345
73.0113 -0.080
73.0416 0.080
73.0719 -0.072
73.1022 -0.016
73.1325 0.145
73.1627 0.410
73.1930 0.467
73.2233 0.107
73.2536 0.008
73.2839 0.066
73.3141 -0.241
73.3444 -0.139
73.3747 0.119
73.4050 0.170
73.4353 0.116
73.4655 -0.198
73.4958 -0.095
73.5261 0.060
73.5564 0.163
73.5866 0.267
73.6169 -0.099
73.6472 -0.099
73.6775 0.265
73.7078 -0.048
73.7380 0.369
73.7683 0.161
73.7986 0.473
73.8289 0.005
73.8592 -0.046
73.8894 -0.306
73.9197 0.007
73.9500 -0.200
73.9803 -0.096
74.0105 0.113
74.0408 0.062
74.0711 0.115
74.1014 -0.249
74.1317 0.117
74.1619 -0.298
74.1922 0.068
74.2225 0.017
74.2528 -0.293
74.2831 -0.087
74.3133 -0.141
74.3436 0.014
74.3739 -0.039
74.4042 0.064
74.4344 0.115
74.4647 0.114
74.4950 0.114
74.5253 0.113
74.5556 0.165
74.5858 -0.044
74.6161 -0.096
74.6464 -0.200
74.6767 0.001
74.7070 0.047
74.7372 0.040
74.7675 -0.227
74.7978 0.132
74.8281 -0.239
74.8583 -0.193
74.8886 0.061
74.9189 -0.153
74.9492 0.050
74.9795 0.149
75.0097 -0.221
75.0400 -0.070
75.0703 -0.127
75.1006 0.025
75.1309 -0.188
75.1611 -0.036
75.1914 -0.249
75.2217 -0.045
75.2520 -0.205
75.2822 0.312
75.3125 -0.212
75.3428 -0.059
75.3731 0.042
75.4034 -0.222
75.4336 -0.433
75.4639 0.137
75.4942 -0.126
75.5245 0.028
75.5548 0.025
75.5850 0.127
75.6153 -0.291
75.6456 0.488
75.6759 -0.191
75.7061 -0.036
75.7364 -0.298
75.7667 0.013
75.7970 0.168
75.8273 -0.302
75.8575 0.114
75.8878 -0.043
75.9181 0.009
75.9484 -0.148
75.9787 -0.409
76.0089 0.059
76.0392 -0.203
76.0695 0.005
76.0998 -0.205
76.1301 0.055
76.1603 0.002
76.1906 -0.206
76.2209 0.002
76.2512 -0.050
76.2814 0.106
76.3117 0.002
76.3420 0.054
76.3723 0.107
76.4026 0.576
76.4328 0.056
76.4631 0.005
76.4934 0.058
76.5237 0.320
76.5540 0.009
76.5842 0.271
76.6145 0.116
76.6448 0.118
76.6751 0.016
76.7053 0.331
76.7356 0.541
76.7659 0.127
76.7962 0.390
76.8265 -0.180
76.8567 -0.021
76.8870 0.503
76.9173 0.298
76.9476 0.718
76.9779 0.045
77.0081 0.153
77.0384 -0.052
77.0687 0.056
77.0990 0.217
77.1292 0.169
77.1595 0.434
77.1898 0.126
77.2201 0.287
77.2504 0.240
77.2806 -0.224
77.3109 -0.063
77.3412 0.307
77.3715 0.469
77.4018 -0.307
77.4320 0.012
77.4623 0.018
77.4926 0.076
77.5229 -0.022
77.5531 0.037
77.5834 -0.217
77.6137 -0.112
77.6440 0.151
77.6743 0.153
77.7045 -0.158
77.7348 0.105
77.7651 -0.309
77.7954 0.058
77.8257 -0.200
77.8559 0.219
77.8862 0.170
77.9165 0.226
77.9468 -0.084
77.9770 0.180
78.0073 -0.129
78.0376 -0.073
78.0679 0.139
78.0982 0.196
78.1284 0.148
78.1587 -0.265
78.1890 0.209
78.2193 0.057
78.2496 0.062
78.2798 0.275
78.3101 -0.032
78.3404 0.181
78.3707 0.083
78.4009 -0.016
78.4312 0.094
78.4615 -0.004
78.4918 0.106
78.5221 -0.044
78.5523 -0.038
78.5826 0.125
78.6129 -0.181
78.6432 -0.182
78.6735 0.233
78.7037 0.180
78.7340 0.283
78.7643 0.074
78.7946 0.438
78.8248 0.281
78.8551 -0.188
78.8854 0.384
78.9157 -0.032
78.9460 -0.032
78.9762 0.124
79.0065 0.281
79.0368 0.021
79.0671 0.126
79.0974 0.075
79.1276 -0.029
79.1579 0.129
79.1882 0.130
79.2185 0.027
79.2488 0.550
79.2790 -0.021
79.3093 -0.019
79.3396 -0.122
79.3699 0.089
79.4001 -0.169
79.4304 -0.228
79.4607 0.182
79.4910 0.019
79.5213 0.222
79.5515 -0.045
79.5818 0.001
79.6121 0.256
79.6424 -0.115
79.6727 0.088
79.7029 0.187
79.7332 0.026
79.7635 0.125
79.7938 -0.193
79.8240 0.219
79.8543 -0.098
79.8846 -0.102
79.9149 0.258
79.9452 0.410
79.9754 -0.011
80.0057 0.090
80.0360 0.034
80.0663 0.187
80.0966 -0.129
80.1268 -0.132
80.1571 -0.031
80.1874 -0.034
80.2177 -0.141
80.2479 -0.040
80.2782 0.010
80.3085 -0.253
80.3388 0.005
80.3691 -0.101
80.3993 -0.311
80.4296 0.052
80.4599 -0.262
80.4902 0.101
80.5205 -0.161
80.5507 0.151
80.5810 0.046
80.6113 -0.059
80.6416 -0.112
80.6718 -0.217
80.7021 0.095
80.7324 -0.217
80.7627 -0.164
80.7930 0.045
80.8232 0.254
80.8535 0.047
80.8838 0.153
80.9141 -0.262
80.9444 0.104
80.9746 0.106
81.0049 -0.049
81.0352 -0.151
81.0655 0.060
81.0957 -0.094
81.1260 -0.039
81.1563 0.641
81.1866 0.435
81.2169 0.178
81.2471 0.337
81.2774 0.080
81.3077 0.032
81.3380 0.296
81.3683 0.195
81.3985 0.043
81.4288 0.151
81.4591 -0.001
81.4894 0.160
81.5196 0.113
81.5499 -0.091
81.5802 0.018
81.6105 -0.185
81.6408 -0.189
81.6710 0.172
81.7013 -0.143
81.7316 0.114
81.7619 0.111
81.7922 0.213
81.8224 0.106
81.8527 -0.261
81.8830 0.153
81.9133 -0.005
81.9436 -0.007
81.9738 -0.269
82.0041 0.094
82.0344 -0.116
82.0647 0.351
82.0949 -0.223
82.1252 -0.016
82.1555 -0.069
82.1858 -0.070
82.2161 -0.070
82.2463 0.190
82.2766 0.033
82.3069 -0.071
82.3372 -0.123
82.3675 -0.071
82.3977 -0.071
82.4280 0.190
82.4583 0.087
82.4886 0.244
82.5188 -0.068
82.5491 0.037
82.5794 -0.118
82.6097 0.248
82.6400 0.145
82.6702 -0.113
82.7005 -0.268
82.7308 0.099
82.7611 -0.159
82.7914 -0.053
82.8216 0.001
82.8519 0.317
82.8822 0.111
82.9125 -0.042
82.9427 0.169
82.9730 0.068
83.0033 -0.189
83.0336 0.023
83.0639 0.130
83.0941 -0.230
83.1244 0.034
83.1547 -0.066
83.1850 0.146
83.2153 -0.057
83.2455 -0.209
83.2758 -0.002
83.3061 0.153
83.3364 -0.109
83.3666 0.151
83.3969 0.150
83.4272 0.305
83.4575 0.253
83.4878 0.148
83.5180 0.252
83.5483 0.200
83.5786 -0.008
83.6089 0.200
83.6392 -0.008
83.6694 -0.111
83.6997 0.254
83.7300 0.098
83.7603 0.099
83.7905 -0.004
83.8208 -0.054
83.8511 -0.209
83.8814 -0.001
83.9117 -0.053
83.9419 0.000
83.9722 0.104
84.0025 0.365
84.0328 -0.103
84.0631 -0.206
84.0933 0.264
84.1236 0.004
84.1539 0.214
84.1842 0.216
84.2144 0.061
84.2447 0.167
84.2750 -0.040
84.3053 0.015
84.3356 0.329
84.3658 0.176
84.3961 0.178
84.4264 0.025
84.4567 -0.233
84.4870 -0.081
84.5172 -0.137
84.5475 0.172
84.5778 -0.040
84.6081 -0.044
84.6383 -0.099
84.6686 0.054
84.6989 -0.001
84.7292 -0.004
84.7595 0.150
84.7897 -0.061
84.8200 -0.011
84.8503 0.247
84.8806 0.036
84.9109 0.191
84.9411 0.085
84.9714 0.135
85.0017 -0.179
85.0320 -0.024
85.0623 -0.129
85.0925 -0.182
85.1228 0.233
85.1531 -0.184
85.1834 -0.080
85.2136 0.128
85.2439 -0.185
85.2742 -0.290
85.3045 0.231
85.3348 0.231
85.3650 0.231
85.3953 0.179
85.4256 0.076
85.4559 0.232
85.4862 0.233
85.5164 -0.131
85.5467 -0.077
85.5770 -0.128
85.6073 0.238
85.6375 -0.125
85.6678 0.085
85.6981 -0.018
85.7284 0.088
85.7587 0.143
85.7889 0.249
85.8192 -0.113
85.8495 0.150
85.8798 -0.108
85.9101 -0.209
85.9403 0.048
85.9706 0.254
86.0009 0.251
86.0312 0.249
86.0614 -0.066
86.0917 0.036
86.1220 -0.018
86.1523 0.136
86.1826 -0.178
86.2128 0.029
86.2431 -0.181
86.2734 0.130
86.3037 0.077
86.3340 -0.132
86.3642 -0.237
86.3945 0.072
86.4248 -0.191
86.4551 -0.037
86.4853 -0.248
86.5156 0.010
86.5459 0.112
86.5762 -0.046
86.6065 0.212
86.6367 0.002
86.6670 0.053
86.6973 0.051
86.7276 0.206
86.7579 -0.160
86.7881 -0.108
86.8184 -0.213
86.8487 0.046
86.8790 0.150
86.9092 0.202
86.9395 0.202
86.9698 -0.007
87.0001 -0.111
87.0304 -0.006
87.0606 -0.058
87.0909 -0.213
87.1212 -0.008
87.1515 -0.167
87.1818 -0.170
87.2120 -0.172
87.2423 -0.175
87.2726 -0.073
87.3029 0.081
87.3331 0.288
87.3634 -0.131
87.3937 -0.080
87.4240 0.023
87.4543 -0.187
87.4845 0.020
87.5148 -0.241
87.5451 -0.092
87.5754 -0.046
87.6057 -0.156
87.6359 -0.215
87.6662 0.144
87.6965 0.138
87.7268 -0.024
87.7571 -0.185
87.7873 0.278
87.8176 0.169
87.8479 -0.253
87.8782 0.628
87.9084 0.154
87.9387 -0.371
87.9690 0.093
87.9993 -0.276
88.0296 -0.071
88.0598 0.029
88.0901 -0.079
88.1204 -0.343
88.1507 0.070
88.1810 -0.037
88.2112 -0.093
88.2415 0.008
88.2718 -0.203
88.3021 -0.101
88.3323 0.261
88.3626 0.050
88.3929 -0.057
88.4232 -0.423
88.4535 0.096
88.4837 0.146
88.5140 -0.325
88.5443 -0.066
88.5746 -0.119
88.6049 -0.381
88.6351 0.031
88.6654 -0.078
88.6957 0.074
88.7260 -0.139
88.7562 -0.195
88.7865 -0.095
88.8168 0.006
88.8471 0.002
88.8774 -0.054
88.9076 0.151
88.9379 0.044
88.9682 0.197
88.9985 0.246
89.0288 -0.017
89.0590 0.136
89.0893 0.238
89.1196 0.236
89.1499 0.233
89.1801 -0.133
89.2104 0.542
89.2407 0.228
89.2710 -0.086
89.3013 0.277
89.3315 0.848
89.3618 0.222
89.3921 0.273
89.4224 0.377
89.4527 0.480
89.4829 0.532
89.5132 0.427
89.5435 0.114
89.5738 0.166
89.6040 0.427
89.6343 0.688
89.6646 0.167
89.6949 0.220
89.7252 0.064
89.7554 0.325
89.7857 0.170
89.8160 -0.037
89.8463 0.173
89.8766 0.539
89.9068 0.071
89.9371 -0.031
89.9674 -0.081
89.9977 0.233
90.0279 0.184
90.0582 0.030
90.0885 0.188
90.1188 -0.226
90.1491 0.142
90.1793 -0.168
90.2096 -0.008
90.2399 0.203
90.2702 -0.210
90.3005 0.210
90.3307 -0.047
90.3610 0.322
90.3913 0.013
90.4216 -0.087
90.4518 -0.186
90.4821 0.026
90.5124 -0.073
90.5427 -0.433
90.5730 -0.013
90.6032 -0.062
90.6335 0.045
90.6638 -0.160
90.6941 -0.104
90.7244 0.056
90.7546 -0.045
90.7849 -0.301
90.8152 -0.038
90.8455 -0.087
90.8758 0.125
90.9060 -0.133
90.9363 -0.077
90.9666 0.291
90.9969 0.034
91.0271 0.195
91.0574 -0.270
91.0877 -0.214
91.1180 -0.059
91.1483 0.096
91.1785 0.095
91.2088 0.198
91.2391 0.093
91.2694 0.092
91.2997 -0.273
91.3299 -0.169
91.3602 0.091
91.3905 -0.014
91.4208 -0.118
91.4510 0.507
91.4813 0.039
91.5116 -0.013
91.5419 0.092
91.5722 0.041
91.6024 -0.011
91.6327 0.042
91.6630 -0.373
91.6933 -0.059
91.7236 0.099
91.7538 -0.056
91.7841 -0.002
91.8144 -0.156
91.8447 -0.050
91.8749 0.265
91.9052 -0.098
91.9355 0.009
91.9658 -0.144
91.9961 -0.089
92.0263 -0.086
92.0566 -0.083
92.0869 0.180
92.1172 -0.076
92.1475 0.240
92.1777 -0.069
92.2080 -0.013
92.2383 -0.217
92.2686 -0.064
92.2988 0.194
92.3291 0.088
92.3594 0.190
92.3897 -0.020
92.4200 0.134
92.4502 0.028
92.4805 0.079
92.5108 -0.027
92.5411 -0.080
92.5714 0.127
92.6016 0.126
92.6319 0.126
92.6622 0.125
92.6925 -0.084
92.7227 0.333
92.7530 0.176
92.7833 -0.032
92.8136 -0.032
92.8439 0.385
92.8741 0.125
92.9044 0.126
92.9347 0.179
92.9650 0.128
92.9953 -0.132
93.0255 0.234
93.0558 -0.025
93.0861 0.029
93.1164 0.082
93.1466 0.188
93.1769 0.034
93.2072 0.140
93.2375 -0.118
93.2678 0.145
93.2980 0.044
93.3283 -0.058
93.3586 -0.055
93.3889 0.156
93.4192 0.003
93.4494 0.111
93.4797 -0.146
93.5100 0.170
93.5403 -0.087
93.5706 -0.030
93.6008 -0.183
93.6311 0.342
93.6614 -0.174
93.6917 -0.169
93.7219 -0.008
93.7522 0.049
93.7825 0.158
93.8128 -0.045
93.8431 0.012
93.8733 0.017
93.9036 -0.185
93.9339 -0.185
93.9642 -0.194
93.9945 0.214
94.0247 0.049
94.0550 0.041
94.0853 0.033
94.1156 0.129
94.1458 -0.035
94.1761 0.217
94.2064 0.106
94.2367 -0.058
94.2670 0.039
94.2972 0.188
94.3275 0.337
94.3578 0.070
94.3881 0.063
94.4184 -0.047
94.4486 -0.210
94.4789 0.044
94.5092 0.142
94.5395 -0.020
94.5697 0.339
94.6000 -0.240
94.6303 -0.141
94.6606 0.166
94.6909 0.109
94.7211 0.573
94.7514 0.255
94.7817 0.042
94.8120 0.038
94.8423 0.190
94.8725 0.550
94.9028 0.806
94.9331 0.125
94.9634 0.538
94.9936 0.535
95.0239 0.531
95.0542 0.371
95.0845 0.316
95.1148 0.574
95.1450 0.623
95.1753 0.620
95.2056 0.357
95.2359 0.719
95.2662 0.769
95.2964 0.923
95.3267 0.505
95.3570 0.294
95.3873 0.084
95.4175 -0.334
95.4478 0.134
95.4781 0.809
95.5084 0.444
95.5387 0.182
95.5689 0.234
95.5992 -0.027
95.6295 0.233
95.6598 -0.236
95.6901 0.024
95.7203 0.389
95.7506 -0.028
95.7809 0.077
95.8112 0.181
95.8414 -0.079
95.8717 -0.130
95.9020 -0.025
95.9323 0.132
95.9626 -0.179
95.9928 0.031
96.0231 -0.072
96.0534 0.294
96.0837 -0.173
96.1140 -0.066
96.1442 -0.168
96.1745 -0.114
96.2048 0.097
96.2351 -0.109
96.2653 -0.002
96.2956 -0.416
96.3259 0.004
96.3562 0.007
96.3865 0.271
96.4167 0.014
96.4470 -0.139
96.4773 -0.083
96.5076 0.025
96.5379 -0.127
96.5681 -0.227
96.5984 0.033
96.6287 -0.072
96.6590 0.239
96.6893 0.291
96.7195 0.186
96.7498 -0.126
96.7801 0.134
96.8104 -0.074
96.8406 -0.126
96.8709 0.291
96.9012 -0.125
96.9315 0.032
96.9618 -0.072
96.9920 0.033
97.0223 -0.018
97.0526 -0.433
97.0829 -0.068
97.1132 0.401
97.1434 -0.067
97.1737 0.090
97.2040 0.091
97.2343 0.093
97.2645 -0.062
97.2948 0.200
97.3251 -0.320
97.3554 -0.057
97.3857 -0.160
97.4159 0.051
97.4462 0.209
97.4765 -0.153
97.5068 0.058
97.5371 -0.096
97.5673 -0.249
97.5976 0.066
97.6279 -0.191
97.6582 0.021
97.6884 0.024
97.7187 0.080
97.7490 -0.229
97.7793 -0.121
97.8096 -0.273
97.8398 0.036
97.8701 -0.072
97.9004 0.342
97.9307 -0.026
97.9610 -0.029
97.9912 0.124
98.0215 0.122
98.0518 0.067
98.0821 -0.092
98.1123 0.062
98.1426 0.008
98.1729 0.319
98.2032 0.577
98.2335 0.315
98.2637 0.158
98.2940 0.156
98.3243 0.103
98.3546 0.154
98.3849 -0.055
98.4151 0.309
98.4454 0.569
98.4757 0.308
98.5060 0.151
98.5362 0.203
98.5665 0.568
98.5968 0.568
98.6271 0.048
98.6574 0.204
98.6876 0.049
98.7179 0.102
98.7482 0.103
98.7785 -0.261
98.8088 0.365
98.8390 0.106
98.8693 -0.257
98.8996 -0.151
98.9299 -0.045
98.9601 -0.095
98.9904 -0.301
99.0207 0.011
99.0510 0.062
99.0813 0.322
99.1115 -0.303
99.1418 -0.043
99.1721 -0.043
99.2024 -0.303
99.2327 0.114
99.2629 0.115
99.2932 0.011
99.3235 0.116
99.3538 -0.039
99.3841 -0.142
99.4143 0.067
99.4446 0.068
99.4749 0.018
99.5052 -0.032
99.5354 0.178
99.5657 -0.289
99.5960 0.026
99.6263 0.132
99.6566 -0.438
99.6868 -0.071
99.7171 -0.121
99.7474 -0.013
99.7777 0.146
99.8080 -0.059
99.8382 -0.004
99.8685 -0.052
99.8988 0.107
99.9291 -0.097
99.9593 0.272
99.9896 -0.089
100.0199 0.176
100.0502 0.180
100.0805 0.081
100.1107 -0.123
100.1410 -0.014
100.1713 -0.217
100.2016 -0.065
100.2319 0.192
100.2621 0.084
100.2924 0.133
100.3227 0.234
100.3530 0.126
100.3832 -0.033
100.4135 -0.088
100.4438 -0.143
100.4741 0.011
100.5044 -0.095
100.5346 0.111
100.5649 0.005
100.5952 0.003
100.6255 0.001
100.6558 -0.001
100.6860 -0.210
100.7163 0.153
100.7466 -0.265
100.7769 0.151
100.8071 0.150
100.8374 -0.320
100.8677 0.044
100.8980 -0.216
100.9283 -0.060
100.9585 -0.112
100.9888 -0.060
101.0191 0.044
101.0494 0.097
101.0797 0.149
101.1099 -0.111
101.1402 -0.214
101.1705 -0.058
101.2008 -0.111
101.2310 0.097
101.2613 0.200
101.2916 0.200
101.3219 -0.268
101.3522 -0.008
101.3824 -0.164
101.4127 0.357
101.4430 -0.111
101.4733 -0.058
101.5036 -0.161
101.5338 -0.160
101.5641 0.101
101.5944 -0.106
101.6247 0.104
101.6549 -0.050
101.6852 -0.049
101.7155 -0.203
101.7458 0.007
101.7761 0.062
101.8063 0.116
101.8366 -0.037
101.8669 0.069
101.8972 -0.084
101.9275 0.127
101.9577 0.078
101.9880 0.186
102.0183 0.189
102.0486 0.349
102.0788 0.249
102.1091 0.253
102.1394 0.101
102.1697 0.521
102.2000 -0.151
102.2302 -0.043
102.2605 0.118
102.2908 -0.293
102.3211 -0.198
102.3514 0.523
102.3816 0.202
102.4119 0.194
102.4422 0.030
102.4725 -0.030
102.5028 0.170
102.5330 0.111
102.5633 0.103
102.5936 0.096
102.6239 -0.067
102.6541 0.291
102.6844 -0.029
102.7147 0.694
102.7450 0.114
102.7753 0.056
102.8055 0.206
102.8358 0.252
102.8661 -0.275
102.8964 0.501
102.9267 -0.025
102.9569 0.386
102.9872 0.016
103.0175 0.376
103.0478 0.579
103.0780 -0.051
103.1083 0.465
103.1386 -0.008
103.1689 0.040
103.1992 -0.277
103.2294 0.032
103.2597 -0.024
103.2900 0.076
103.3203 0.020
103.3506 -0.087
103.3808 -0.143
103.4111 0.063
103.4414 -0.149
103.4717 -0.360
103.5019 0.055
103.5322 0.054
103.5625 -0.051
103.5928 0.052
103.6231 0.052
103.6533 0.207
103.6836 0.259
103.7139 0.363
103.7442 0.154
103.7745 0.310
103.8047 0.050
103.8350 -0.002
103.8653 0.832
103.8956 -0.209
103.9258 0.365
103.9561 -0.051
103.9864 0.627
104.0167 0.368
104.0470 0.734
104.0772 0.006
104.1075 0.321
104.1378 0.166
104.1681 0.116
104.1984 0.535
104.2286 0.225
104.2589 0.071
104.2892 0.646
104.3195 0.076
104.3497 0.079
104.3800 0.238
104.4103 0.346
104.4406 0.297
104.4709 0.092
104.5011 -0.009
104.5314 0.204
104.5617 0.312
104.5920 0.212
104.6223 -0.044
104.6525 -0.092
104.6828 -0.088
104.7131 0.073
104.7434 -0.078
104.7736 -0.125
104.8039 -0.172
104.8342 0.042
104.8645 -0.005
104.8948 -0.156
104.9250 0.163
104.9553 0.064
104.9856 0.175
105.0159 -0.132
105.0462 0.239
105.0764 0.194
105.1067 0.200
105.1370 0.155
105.1673 0.318
105.1975 0.221
105.2278 0.281
105.2581 0.184
105.2884 0.087
105.3187 -0.269
105.3489 -0.165
105.3792 -0.426
105.4095 0.088
105.4398 0.132
105.4701 -0.083
105.5003 0.691
105.5306 0.059
105.5609 0.104
105.5912 -0.059
105.6215 0.195
105.6517 0.136
105.6820 -0.287
105.7123 0.384
105.7426 -0.090
105.7728 -0.044
105.8031 0.367
105.8334 0.101
105.8637 0.200
105.8940 -0.274
105.9242 -0.227
105.9545 0.185
105.9848 0.077
106.0151 0.021
106.0454 0.277
106.0756 -0.143
106.1059 -0.095
106.1362 0.110
106.1665 -0.258
106.1967 -0.105
106.2270 -0.004
106.2573 0.150
106.2876 0.043
106.3179 -0.168
106.3481 -0.119
106.3784 0.087
106.4087 0.137
106.4390 -0.281
106.4693 -0.179
106.4995 -0.024
106.5298 0.130
106.5601 0.025
106.5904 -0.185
106.6206 0.022
106.6509 0.021
106.6812 0.177
106.7115 0.176
106.7418 0.384
106.7720 0.071
106.8023 -0.033
106.8326 0.175
106.8629 -0.241
106.8932 -0.189
106.9234 0.072
106.9537 -0.032
106.9840 -0.239
107.0143 -0.187
107.0445 0.074
107.0748 0.127
107.1051 -0.080
107.1354 0.025
107.1657 0.130
107.1959 -0.077
107.2262 -0.075
107.2565 -0.074
107.2868 -0.280
107.3171 -0.023
107.3473 -0.025
107.3776 -0.132
107.4079 0.074
107.4382 -0.033
107.4684 -0.035
107.4987 -0.193
107.5290 0.118
107.5593 0.064
107.5896 0.062
107.6198 -0.043
107.6501 -0.305
107.6804 0.267
107.7107 -0.099
107.7410 -0.308
107.7712 0.108
107.8015 0.056
107.8318 -0.049
107.8621 -0.153
107.8923 -0.049
107.9226 0.108
107.9529 0.212
107.9832 0.212
108.0135 -0.256
108.0437 -0.203
108.0740 0.111
108.1043 0.112
108.1346 0.061
108.1649 -0.198
108.1951 0.064
108.2254 0.117
108.2557 -0.089
108.2860 -0.139
108.3163 0.123
108.3465 -0.239
108.3768 -0.238
108.4071 0.233
108.4374 0.287
108.4676 0.133
108.4979 0.239
108.5282 -0.436
108.5585 -0.173
108.5888 0.298
108.6190 0.353
108.6493 0.044
108.6796 0.151
108.7099 0.206
108.7402 -0.155
108.7704 0.005
108.8007 0.060
108.8310 0.220
108.8613 0.224
108.8915 0.124
108.9218 -0.184
108.9521 -0.127
108.9824 -0.227
109.0127 -0.027
109.0429 0.382
109.0732 -0.042
109.1035 0.210
109.1338 -0.058
109.1641 0.039
109.1943 -0.124
109.2246 0.233
109.2549 0.122
109.2852 0.168
109.3154 0.161
109.3457 -0.002
109.3760 -0.112
109.4063 0.298
109.4366 -0.176
109.4668 0.234
109.4971 -0.292
109.5274 -0.141
109.5577 -0.251
109.5880 -0.048
109.6182 -0.262
109.6485 0.098
109.6788 0.092
109.7091 0.035
109.7393 0.187
109.7696 0.391
109.7999 -0.135
109.8302 0.069
109.8605 -0.039
109.8907 0.322
109.9210 0.109
109.9513 -0.051
109.9816 0.206
110.0119 0.619
110.0421 -0.009
110.0724 -0.324
110.1027 0.141
110.1330 -0.382
110.1632 0.709
110.1935 0.290
110.2238 0.131
110.2541 0.025
110.2844 0.179
110.3146 0.073
110.3449 -0.241
110.3752 -0.243
110.4055 -0.036
110.4358 0.275
110.4660 0.378
110.4963 0.013
110.5266 0.012
110.5569 0.324
110.5871 0.011
110.6174 -0.042
110.6477 -0.146
110.6780 -0.094
110.7083 0.114
110.7385 0.062
110.7688 0.271
110.7991 -0.354
110.8294 0.168
110.8597 0.065
110.8899 0.274
110.9202 0.067
110.9505 -0.140
110.9808 0.069
111.0110 0.332
111.0413 -0.344
111.0716 0.231
111.1019 -0.079
111.1322 -0.025
111.1624 0.133
111.1927 0.084
111.2230 -0.018
111.2533 -0.067
111.2836 -0.064
111.3138 0.356
111.3441 -0.058
111.3744 0.050
111.4047 0.210
111.4350 -0.099
111.4652 -0.043
111.4955 0.326
111.5258 0.330
111.5561 -0.031
111.5863 -0.391
111.6166 -0.080
111.6469 0.178
111.6772 0.020
111.7075 0.122
111.7377 -0.140
111.7680 -0.037
111.7983 -0.038
111.8286 -0.040
111.8589 0.064
111.8891 0.063
111.9194 -0.250
111.9497 -0.199
111.9800 0.061
112.0102 0.217
112.0405 0.061
112.0708 0.061
112.1011 -0.199
112.1314 0.270
112.1616 -0.094
112.1919 0.115
112.2222 -0.405
112.2525 0.012
112.2828 0.170
112.3130 0.067
112.3433 -0.140
112.3736 -0.086
112.4039 -0.033
112.4341 -0.031
112.4644 -0.029
112.4947 0.026
112.5250 0.236
112.5553 0.135
112.5855 0.189
112.6158 0.088
112.6461 0.455
112.6764 0.354
112.7067 0.201
112.7369 0.205
112.7672 0.156
112.7975 -0.100
112.8278 0.476
112.8580 -0.040
112.8883 0.328
112.9186 0.437
112.9489 0.077
112.9792 -0.283
113.0094 -0.183
113.0397 -0.082
113.0700 -0.137
113.1003 0.381
113.1306 -0.142
113.1608 0.011
113.1911 0.009
113.2214 0.163
113.2517 0.265
113.2819 0.315
113.3122 0.053
113.3425 0.312
113.3728 0.102
113.4031 0.257
113.4333 0.151
113.4636 -0.006
113.4939 0.201
113.5242 0.513
113.5545 -0.060
113.5847 -0.217
113.6150 -0.113
113.6453 -0.165
113.6756 -0.113
113.7058 -0.217
113.7361 0.147
113.7664 0.721
113.7967 0.096
113.8270 0.149
113.8572 0.202
113.8875 0.203
113.9178 0.152
113.9481 0.466
113.9784 0.624
114.0086 0.261
114.0389 0.576
114.0692 0.109
114.0995 -0.097
114.1298 -0.095
114.1600 0.168
114.1903 -0.142
114.2206 0.173
114.2509 0.280
114.2811 0.179
114.3114 0.286
114.3417 0.915
114.3720 0.293
114.4023 0.140
114.4325 -0.012
114.4628 0.409
114.4931 0.048
114.5234 0.052
114.5537 -0.308
114.5839 -0.160
114.6142 0.248
114.6445 0.344
114.6748 -0.080
114.7050 -0.036
114.7353 0.529
114.7656 0.053
114.7959 0.098
114.8262 0.559
114.8564 -0.021
114.8867 0.077
114.9170 0.487
114.9473 0.376
114.9776 0.057
115.0078 0.051
115.0381 0.409
115.0684 0.559
115.0987 0.189
115.1289 0.079
115.1592 0.126
115.1895 -0.036
115.2198 0.532
115.2501 0.058
115.2803 0.522
115.3106 -0.473
115.3409 0.148
115.3712 0.143
115.4015 0.087
115.4317 0.343
115.4620 -0.182
115.4923 0.491
115.5226 0.019
115.5528 0.224
115.5831 0.116
115.6134 -0.304
115.6437 0.110
115.6740 -0.154
115.7042 -0.157
115.7345 -0.003
115.7648 0.099
115.7951 -0.008
115.8254 0.667
115.8556 -0.012
115.8859 -0.014
115.9162 0.557
115.9465 0.556
115.9767 0.502
116.0070 0.188
116.0373 0.656
116.0676 0.395
116.0979 0.237
116.1281 0.393
116.1584 0.392
116.1887 0.288
116.2190 0.392
116.2493 0.392
116.2795 0.131
116.3098 0.444
116.3401 0.132
116.3704 0.497
116.4006 0.498
116.4309 0.499
116.4612 0.448
116.4915 0.084
116.5218 0.502
116.5520 0.712
116.5823 0.297
116.6126 0.142
116.6429 0.352
116.6732 0.146
116.7034 0.357
116.7337 0.463
116.7640 0.518
116.7943 0.000
116.8245 0.211
116.8548 0.110
116.8851 0.425
116.9154 -0.092
116.9457 -0.245
116.9759 0.071
117.0062 -0.186
117.0365 0.287
117.0668 0.603
117.0971 -0.174
117.1273 -0.222
117.1576 -0.009
117.1879 0.465
117.2182 0.001
117.2485 0.058
117.2787 0.271
117.3090 0.433
117.3393 0.178
117.3696 -0.025
117.3998 -0.020
117.4301 -0.222
117.4604 0.201
117.4907 -0.314
117.5210 -0.314
117.5512 0.259
117.5815 0.051
117.6118 0.052
117.6421 -0.104
117.6724 -0.103
117.7026 -0.311
117.7329 0.368
117.7632 0.265
117.7935 0.422
117.8237 0.216
117.8540 -0.199
117.8843 0.115
117.9146 -0.404
117.9449 0.276
117.9751 0.070
118.0054 -0.240
118.0357 0.075
118.0660 0.182
118.0963 0.133
118.1265 -0.177
118.1568 0.035
118.1871 0.090
118.2174 0.250
118.2476 -0.163
118.2779 0.362
118.3082 0.366
118.3385 -0.411
118.3688 -0.251
118.3990 0.059
118.4293 -0.100
118.4596 0.002
118.4899 0.103
118.5202 0.101
118.5504 -0.005
118.5807 -0.059
118.6110 -0.321
118.6413 0.094
118.6715 -0.428
118.7018 -0.013
118.7321 -0.170
118.7624 0.297
118.7927 -0.016
118.8229 -0.277
118.8532 0.347
118.8835 -0.174
118.9138 -0.070
118.9441 0.034
118.9743 0.086
119.0046 0.399
119.0349 0.035
119.0652 -0.173
119.0954 -0.016
119.1257 -0.015
119.1560 -0.066
119.1863 0.091
119.2166 -0.220
119.2468 -0.010
119.2771 0.200
119.3074 0.097
119.3377 -0.005
119.3680 0.414
119.3982 -0.157
119.4285 -0.311
119.4588 0.040
119.4891 -0.287
119.5193 -0.146
119.5496 -0.005
119.5799 0.031
119.6102 -0.036
119.6405 0.157
119.6707 -0.118
119.7010 -0.029
119.7313 -0.513
119.7616 0.150
119.7919 -0.073
119.8221 -0.400
119.8524 -0.003
119.8827 0.184
119.9130 -0.253
119.9433 0.144
119.9735 0.124
120.0038 0.000
