'Id: "" Comment: "" Operator: "Lab Manager" Anode: "Cu" Scantype: "Locked Coupled" TimePerStep: "19.2" X: "9999" Y: "9999" Z: "9999" 
10.0015 0.000
10.0318 0.969
10.0620 0.897
10.0923 0.774
10.1226 1.483
10.1529 1.204
10.1832 0.976
10.2134 0.593
10.2437 0.783
10.2740 0.765
10.3043 0.799
10.3346 1.198
10.3648 -0.017
10.3951 0.643
10.4254 -0.104
10.4557 0.661
10.4859 0.801
10.5162 -0.205
10.5465 0.404
10.5768 0.024
10.6071 -0.304
10.6373 -0.111
10.6676 0.655
10.6979 0.067
10.7282 -0.416
10.7585 -0.003
10.7887 0.150
10.8190 0.146
10.8493 0.456
10.8796 0.505
10.9098 0.034
10.9401 0.344
10.9704 0.811
11.0007 1.642
11.0310 0.599
11.0612 1.639
11.0915 0.075
11.1218 0.075
11.1521 0.230
11.1824 -0.083
11.2126 0.021
11.2429 -0.239
11.2732 0.595
11.3035 0.648
11.3337 -0.133
11.3640 -0.340
11.3943 -0.287
11.4246 -0.598
11.4549 0.394
11.4851 -0.125
11.5154 0.242
11.5457 0.609
11.5760 0.352
11.6063 -0.479
11.6365 0.306
11.6668 0.778
11.6971 0.938
11.7274 0.890
11.7577 0.738
11.7879 -0.247
11.8182 0.435
11.8485 0.232
11.8788 0.133
11.9090 0.764
11.9393 0.874
11.9696 0.255
11.9999 0.990
12.0302 -0.253
12.0604 -0.038
12.0907 1.063
12.1210 0.653
12.1513 0.921
12.1816 -0.269
12.2118 0.624
12.2421 0.268
12.2724 -0.036
12.3027 -0.131
12.3329 -0.226
12.3632 0.043
12.3935 0.313
12.4238 0.375
12.4541 0.333
12.4843 0.187
12.5146 0.041
12.5449 0.104
12.5752 -0.302
12.6055 0.491
12.6357 -0.435
12.6660 -0.007
12.6963 0.109
12.7266 -0.243
12.7568 -0.075
12.7871 0.303
12.8174 -0.622
12.8477 0.068
12.8780 0.603
12.9082 0.668
12.9385 0.474
12.9688 -0.606
12.9991 1.023
13.0294 -0.160
13.0596 0.740
13.0899 -0.182
13.1202 0.511
13.1505 0.110
13.1807 -0.083
13.2110 -0.379
13.2413 -0.272
13.2716 0.253
13.3019 1.298
13.3321 -0.156
13.3624 0.109
13.3927 0.165
13.4230 -0.246
13.4533 0.071
13.4835 0.233
13.5138 0.186
13.5441 -0.277
13.5744 -0.114
13.6046 0.152
13.6349 0.263
13.6652 0.270
13.6955 0.694
13.7258 0.232
13.7560 -0.073
13.7863 0.404
13.8166 0.464
13.8469 0.889
13.8772 0.168
13.9074 0.229
13.9377 -0.335
13.9680 -0.065
13.9983 -0.368
14.0285 0.045
14.0588 0.771
14.0891 0.716
14.1194 0.609
14.1497 -0.175
14.1799 -0.281
14.2102 -0.023
14.2405 0.653
14.2708 0.859
14.3011 0.337
14.3313 0.232
14.3616 -0.029
14.3919 -0.446
14.4222 0.283
14.4524 0.074
14.4827 -0.602
14.5130 0.492
14.5433 -0.028
14.5736 0.285
14.6038 0.026
14.6341 -0.233
14.6644 -0.283
14.6947 0.083
14.7250 0.242
14.7552 1.234
14.7855 -0.326
14.8158 1.135
14.8461 0.097
14.8764 -0.004
14.9066 0.052
14.9369 -0.153
14.9672 0.216
14.9975 0.273
15.0277 -0.244
15.0580 -0.343
15.0883 -0.963
15.1186 0.393
15.1489 0.187
15.1791 -0.228
15.2094 -0.694
15.2397 0.558
15.2700 0.092
15.3003 0.512
15.3305 1.036
15.3608 -0.002
15.3911 0.679
15.4214 0.631
15.4516 0.062
15.4819 0.848
15.5122 -0.605
15.5425 0.441
15.5728 0.030
15.6030 0.504
15.6333 -0.063
15.6636 -0.421
15.6939 0.262
15.7242 0.581
15.7544 -0.193
15.7847 0.595
15.8150 -0.335
15.8453 -0.276
15.8755 0.409
15.9058 0.313
15.9361 0.009
15.9664 0.851
15.9967 0.443
16.0269 -0.434
16.0572 0.253
16.0875 -0.103
16.1178 -0.353
16.1481 0.108
16.1783 0.673
16.2086 0.614
16.2389 0.294
16.2692 0.495
16.2994 0.385
16.3297 -0.195
16.3600 -0.357
16.3903 -0.050
16.4206 0.881
16.4508 -0.166
16.4811 1.079
16.5114 -0.176
16.5417 -0.024
16.5720 0.440
16.6022 0.280
16.6325 0.119
16.6628 -0.145
16.6931 0.477
16.7233 0.526
16.7536 1.304
16.7839 0.676
16.8142 -0.055
16.8445 -0.006
16.8747 -0.112
16.9050 -0.009
16.9353 0.406
16.9656 0.196
16.9959 0.039
17.0261 0.403
17.0564 1.444
17.0867 -0.327
17.1170 0.715
17.1472 0.507
17.1775 0.455
17.2078 0.091
17.2381 0.509
17.2684 -0.167
17.2986 0.564
17.3289 0.461
17.3592 -0.422
17.3895 0.465
17.4198 -0.105
17.4500 0.835
17.4803 0.578
17.5106 0.685
17.5409 -0.041
17.5712 0.275
17.6014 0.540
17.6317 -0.237
17.6620 -0.233
17.6923 0.189
17.7225 0.037
17.7528 0.615
17.7831 0.360
17.8134 0.001
17.8437 0.111
17.8739 -0.455
17.9042 0.280
17.9345 -0.078
17.9648 0.450
17.9951 0.561
18.0253 -0.004
18.0556 -0.257
18.0859 -0.353
18.1162 0.271
18.1464 -0.302
18.1767 0.635
18.2070 0.895
18.2373 0.166
18.2676 0.219
18.2978 0.480
18.3281 -0.144
18.3584 0.326
18.3887 0.536
18.4190 -0.244
18.4492 0.487
18.4795 0.281
18.5098 -0.081
18.5401 -0.131
18.5703 -0.076
18.6006 0.396
18.6309 -0.225
18.6612 -0.117
18.6915 -0.009
18.7217 -0.214
18.7520 0.364
18.7823 0.525
18.8126 0.061
18.8429 0.639
18.8731 0.175
18.9034 0.181
18.9337 0.187
18.9640 -0.015
18.9942 0.356
19.0245 0.675
19.0548 0.473
19.0851 -0.145
19.1154 -0.345
19.1456 -0.191
19.1759 -0.088
19.2062 0.172
19.2365 -0.246
19.2668 -0.455
19.2970 0.743
19.3273 0.639
19.3576 1.056
19.3879 0.483
19.4181 -0.453
19.4484 0.693
19.4787 -0.712
19.5090 -0.345
19.5393 -0.344
19.5695 0.855
19.5998 -0.445
19.6301 0.546
19.6604 -0.337
19.6907 0.030
19.7209 0.866
19.7512 -0.120
19.7815 0.560
19.8118 0.147
19.8420 0.723
19.8723 0.311
19.9026 0.940
19.9329 -0.254
19.9632 0.428
19.9934 0.641
20.0237 0.022
20.0540 -0.963
20.0843 0.026
20.1146 0.389
20.1448 0.648
20.1751 0.231
20.2054 0.230
20.2357 0.230
20.2659 0.074
20.2962 -0.082
20.3265 -0.030
20.3568 -0.342
20.3871 -0.342
20.4173 -0.137
20.4476 0.484
20.4779 -0.509
20.5082 0.165
20.5385 0.057
20.5687 0.315
20.5990 -0.052
20.6293 0.050
20.6596 -0.109
20.6899 0.202
20.7201 -0.216
20.7504 -0.165
20.7807 0.563
20.8110 0.353
20.8412 0.145
20.8715 1.290
20.9018 0.040
20.9321 0.144
20.9624 0.197
20.9926 0.145
21.0229 0.094
21.0532 -1.051
21.0835 0.826
21.1138 0.359
21.1440 -0.212
21.1743 0.675
21.2046 0.209
21.2349 0.055
21.2651 0.371
21.2954 0.322
21.3257 0.533
21.3560 0.276
21.3863 -0.032
21.4165 -0.184
21.4468 -0.336
21.4771 0.710
21.5074 0.402
21.5377 -0.738
21.5679 0.204
21.5982 -0.207
21.6285 0.424
21.6588 0.586
21.6890 -0.136
21.7193 0.235
21.7496 -0.019
21.7799 -0.585
21.8102 0.256
21.8404 0.420
21.8707 0.740
21.9010 -0.294
21.9313 -0.338
21.9616 0.338
21.9918 0.285
22.0221 -0.133
22.0524 -0.289
22.0827 -0.082
22.1129 0.908
22.1432 0.491
22.1735 0.440
22.2038 -0.237
22.2341 0.129
22.2643 -0.027
22.2946 0.548
22.3249 -0.232
22.3552 0.916
22.3855 0.189
22.4157 -0.070
22.4460 0.089
22.4763 0.092
22.5066 -0.634
22.5368 0.411
22.5671 -0.210
22.5974 0.418
22.6277 -0.151
22.6580 -0.146
22.6882 0.275
22.7185 -0.397
22.7488 0.129
22.7791 1.176
22.8094 0.296
22.8396 0.145
22.8699 -0.161
22.9002 0.730
22.9305 0.008
22.9607 -0.506
22.9910 0.334
23.0213 0.185
23.0516 -0.068
23.0819 0.096
23.1121 0.208
23.1424 0.216
23.1727 0.485
23.2030 0.598
23.2333 0.138
23.2635 -0.321
23.2938 -0.121
23.3241 -0.076
23.3544 0.541
23.3846 0.065
23.4149 0.110
23.4452 -0.886
23.4755 0.670
23.5058 0.247
23.5360 0.241
23.5663 0.392
23.5966 0.959
23.6269 0.745
23.6572 -0.041
23.6874 0.371
23.7177 -0.415
23.7480 0.310
23.7783 -0.215
23.8086 0.459
23.8388 0.351
23.8691 -0.329
23.8994 -0.806
23.9297 0.957
23.9599 0.324
23.9902 0.369
24.0205 0.258
24.0508 0.563
24.0811 0.140
24.1113 0.498
24.1416 -0.133
24.1719 0.070
24.2022 0.116
24.2325 0.059
24.2627 0.106
24.2930 0.257
24.3233 0.149
24.3536 -0.325
24.3838 0.400
24.4141 0.084
24.4444 0.185
24.4747 -0.027
24.5050 -0.291
24.5352 0.540
24.5655 0.225
24.5958 -0.194
24.6261 0.168
24.6564 0.635
24.6866 0.165
24.7169 -0.149
24.7472 0.422
24.7775 -0.256
24.8077 -0.152
24.8380 0.472
24.8683 0.212
24.8986 0.004
24.9289 0.785
24.9591 -0.725
24.9894 0.214
25.0197 -0.202
25.0500 -0.044
25.0803 -0.355
25.1105 0.167
25.1408 0.430
25.1711 0.432
25.2014 0.122
25.2316 -0.344
25.2619 -0.028
25.2922 -0.338
25.3225 -0.290
25.3528 1.164
25.3830 0.170
25.4133 0.427
25.4436 0.058
25.4739 0.263
25.5042 0.937
25.5344 0.153
25.5647 0.828
25.5950 0.721
25.6253 0.198
25.6555 0.040
25.6858 0.455
25.7161 0.453
25.7464 0.244
25.7767 -0.330
25.8069 -0.174
25.8372 -0.487
25.8675 1.023
25.8978 -0.175
25.9281 -0.435
25.9583 0.711
25.9886 -0.017
26.0189 0.869
26.0492 -0.171
26.0794 0.351
26.1097 0.301
26.1400 -0.166
26.1703 0.045
26.2006 0.464
26.2308 -0.210
26.2611 -0.468
26.2914 0.249
26.3217 0.550
26.3520 0.642
26.3822 0.370
26.4125 -0.266
26.4428 0.504
26.4731 0.077
26.5034 0.275
26.5336 0.577
26.5639 0.307
26.5942 0.141
26.6245 -0.546
26.6547 -0.093
26.6850 0.829
26.7153 1.074
26.7456 0.434
26.7759 -0.623
26.8061 0.300
26.8364 -0.599
26.8667 -0.041
26.8970 0.154
26.9273 0.349
26.9575 -0.029
26.9878 -0.251
27.0181 -0.212
27.0484 0.140
27.0786 -0.184
27.1089 -0.457
27.1392 0.260
27.1695 0.092
27.1998 0.133
27.2300 0.226
27.2603 -0.045
27.2906 -0.368
27.3209 -0.487
27.3512 0.489
27.3814 -0.358
27.4117 -0.111
27.4420 -0.333
27.4723 0.540
27.5025 0.319
27.5328 0.306
27.5631 -0.227
27.5934 0.230
27.6237 -0.355
27.6539 0.311
27.6842 -0.274
27.7145 -0.128
27.7448 -0.191
27.7751 0.111
27.8053 0.361
27.8356 -0.587
27.8659 0.028
27.8962 0.331
27.9264 0.530
27.9567 0.053
27.9870 0.408
28.0173 -0.121
28.0476 0.444
28.0778 -0.554
28.1081 0.011
28.1384 0.837
28.1687 -0.421
28.1990 -0.219
28.2292 -0.018
28.2595 -0.129
28.2898 -0.187
28.3201 -0.037
28.3503 0.009
28.3806 -0.309
28.4109 0.571
28.4412 -0.111
28.4715 0.665
28.5017 0.088
28.5320 -0.021
28.5623 -0.077
28.5926 -0.393
28.6229 0.011
28.6531 1.248
28.6834 0.507
28.7137 0.026
28.7440 -0.142
28.7742 -0.362
28.8045 0.252
28.8348 -0.124
28.8651 -0.030
28.8954 -0.301
28.9256 -0.572
28.9559 0.345
28.9862 -0.041
29.0165 -0.009
29.0468 1.117
29.0770 -0.362
29.1073 -0.329
29.1376 0.693
29.1679 -0.472
29.1981 0.186
29.2284 1.105
29.2587 0.722
29.2890 0.339
29.3193 -0.356
29.3495 1.033
29.3798 0.546
29.4101 -0.148
29.4404 0.044
29.4707 -0.494
29.5009 -0.008
29.5312 0.166
29.5615 -0.076
29.5918 0.619
29.6221 -0.299
29.6523 0.501
29.6826 -0.157
29.7129 -0.138
29.7432 -0.014
29.7734 0.943
29.8037 0.338
29.8340 0.827
29.8643 0.327
29.8946 -0.017
29.9248 0.056
29.9551 -0.235
29.9854 0.151
30.0157 0.485
30.0460 -0.378
30.0762 0.790
30.1065 0.135
30.1368 0.262
30.1671 0.389
30.1973 0.829
30.2276 0.176
30.2579 0.043
30.2882 0.588
30.3185 0.092
30.3487 1.262
30.3790 0.714
30.4093 0.062
30.4396 1.389
30.4699 2.144
30.5001 0.659
30.5304 0.581
30.5607 0.867
30.5910 1.831
30.6212 1.389
30.6515 1.833
30.6818 1.808
30.7121 2.721
30.7424 1.707
30.7726 1.526
30.8029 4.055
30.8332 2.521
30.8635 3.487
30.8938 4.714
30.9240 4.586
30.9543 3.418
30.9846 5.375
31.0149 5.144
31.0451 4.601
31.0754 6.194
31.1057 7.162
31.1360 7.245
31.1663 8.839
31.1965 9.704
31.2268 10.517
31.2571 12.007
31.2874 14.383
31.3177 14.988
31.3479 17.000
31.3782 18.387
31.4085 22.639
31.4388 25.745
31.4690 27.914
31.4993 32.323
31.5296 33.451
31.5599 37.600
31.5902 41.593
31.6204 47.044
31.6507 46.038
31.6810 46.125
31.7113 43.556
31.7416 42.342
31.7718 35.034
31.8021 35.800
31.8324 28.128
31.8627 25.977
31.8929 25.754
31.9232 21.000
31.9535 16.766
31.9838 15.815
32.0141 13.196
32.0443 10.631
32.0746 11.346
32.1049 9.302
32.1352 7.934
32.1655 6.880
32.1957 6.503
32.2260 4.459
32.2563 6.478
32.2866 4.748
32.3169 4.059
32.3471 3.579
32.3774 2.683
32.4077 1.474
32.4380 2.713
32.4682 1.922
32.4985 2.484
32.5288 1.641
32.5591 1.111
32.5894 0.841
32.6196 0.311
32.6499 1.396
32.6802 1.179
32.7105 0.806
32.7408 -0.140
32.7710 0.738
32.8013 0.678
32.8316 1.140
32.8619 -0.690
32.8921 0.136
32.9224 0.754
32.9527 1.217
32.9830 0.742
33.0133 0.163
33.0435 0.678
33.0738 0.100
33.1041 0.407
33.1344 -0.171
33.1647 0.866
33.1949 -0.492
33.2252 -0.132
33.2555 0.177
33.2858 0.329
33.3160 0.430
33.3463 -0.250
33.3766 0.476
33.4069 0.525
33.4372 1.252
33.4674 0.521
33.4977 1.300
33.5280 0.673
33.5583 -0.162
33.5886 1.816
33.6188 1.138
33.6491 1.658
33.6794 2.439
33.7097 1.501
33.7399 3.585
33.7702 2.075
33.8005 1.971
33.8308 3.534
33.8611 4.368
33.8913 4.891
33.9216 5.725
33.9519 6.144
33.9822 7.864
34.0125 9.429
34.0427 11.411
34.0730 13.236
34.1033 15.479
34.1336 18.659
34.1638 23.923
34.1941 27.000
34.2244 36.431
34.2547 45.602
34.2850 47.689
34.3152 58.788
34.3455 56.032
34.3758 54.371
34.4061 49.272
34.4364 37.820
34.4666 30.638
34.4969 25.488
34.5272 21.640
34.5575 15.709
34.5877 13.268
34.6180 11.192
34.6483 8.908
34.6786 7.978
34.7089 6.892
34.7391 6.692
34.7694 5.659
34.7997 4.209
34.8300 5.728
34.8603 3.550
34.8905 3.299
34.9208 3.777
34.9511 4.985
34.9814 4.526
35.0116 4.953
35.0419 4.599
35.0722 6.173
35.1025 3.528
35.1328 3.643
35.1630 4.175
35.1933 4.604
35.2236 2.689
35.2539 5.774
35.2842 4.797
35.3144 6.581
35.3447 6.125
35.3750 8.170
35.4053 6.725
35.4356 9.187
35.4658 8.263
35.4961 10.205
35.5264 9.334
35.5567 11.640
35.5869 9.051
35.6172 12.035
35.6475 13.301
35.6778 16.337
35.7081 16.926
35.7383 20.067
35.7686 20.709
35.7989 23.955
35.8292 26.576
35.8595 30.916
35.8897 32.600
35.9200 36.160
35.9503 42.688
35.9806 49.009
36.0108 51.840
36.0411 60.244
36.0714 63.075
36.1017 66.167
36.1320 68.739
36.1622 68.029
36.1925 69.195
36.2228 64.788
36.2531 62.153
36.2834 56.861
36.3136 49.121
36.3439 47.268
36.3742 41.091
36.4045 33.040
36.4347 30.822
36.4650 27.824
36.4953 23.054
36.5256 22.660
36.5559 18.048
36.5861 15.050
36.6164 14.501
36.6467 13.743
36.6770 11.944
36.7073 11.760
36.7375 9.388
36.7678 8.944
36.7981 7.771
36.8284 5.974
36.8586 5.999
36.8889 4.983
36.9192 4.905
36.9495 3.889
36.9798 4.436
37.0100 2.953
37.0403 3.240
37.0706 2.954
37.1009 3.555
37.1312 2.436
37.1614 2.100
37.1917 1.763
37.2220 2.208
37.2523 2.029
37.2825 2.057
37.3128 1.409
37.3431 1.803
37.3734 2.354
37.4037 0.456
37.4339 0.955
37.4642 1.975
37.4945 1.641
37.5248 0.630
37.5551 0.974
37.5853 -0.349
37.6156 0.776
37.6459 0.964
37.6762 0.215
37.7064 0.664
37.7367 0.697
37.7670 0.990
37.7973 0.867
37.8276 1.004
37.8578 0.465
37.8881 0.551
37.9184 0.012
37.9487 0.202
37.9790 0.080
38.0092 -0.354
38.0395 0.827
38.0698 0.446
38.1001 -0.352
38.1304 -0.056
38.1606 -0.072
38.1909 0.173
38.2212 0.626
38.2515 -0.223
38.2817 -0.030
38.3120 0.372
38.3423 -0.268
38.3726 0.864
38.4029 0.069
38.4331 0.159
38.4634 0.301
38.4937 0.340
38.5240 0.535
38.5543 0.158
38.5845 -0.376
38.6148 -0.132
38.6451 0.529
38.6754 0.408
38.7056 0.236
38.7359 0.637
38.7662 -0.160
38.7965 0.450
38.8268 0.539
38.8570 0.316
38.8873 -0.063
38.9176 -0.442
38.9479 0.082
38.9782 0.033
39.0084 -0.224
39.0387 -0.428
39.0690 0.409
39.0993 -0.368
39.1295 0.314
39.1598 0.267
39.1901 0.532
39.2204 0.694
39.2507 0.647
39.2809 0.080
39.3112 -0.070
39.3415 0.092
39.3718 0.151
39.4021 -0.311
39.4323 0.216
39.4626 0.120
39.4929 0.752
39.5232 -0.126
39.5534 -0.170
39.5837 -0.422
39.6140 0.420
39.6443 0.272
39.6746 -0.135
39.7048 0.082
39.7351 -0.325
39.7654 0.205
39.7957 0.268
39.8260 -0.347
39.8562 0.288
39.8865 -0.326
39.9168 0.154
39.9471 -0.200
39.9773 0.020
40.0076 -0.125
40.0379 -0.061
40.0682 0.472
40.0985 -0.244
40.1287 0.133
40.1590 0.302
40.1893 0.367
40.2196 0.797
40.2499 -0.075
40.2801 -0.321
40.3104 -0.310
40.3407 -0.090
40.3710 -0.131
40.4012 0.350
40.4315 -0.315
40.4618 0.530
40.4921 -0.238
40.5224 0.816
40.5526 0.048
40.5829 0.582
40.6132 0.491
40.6435 0.088
40.6738 0.363
40.7040 -0.300
40.7343 -0.494
40.7646 0.338
40.7949 -0.549
40.8251 0.283
40.8554 0.074
40.8857 0.698
40.9160 -0.032
40.9463 0.228
40.9765 0.228
41.0068 0.124
41.0371 0.593
41.0674 0.073
41.0977 0.074
41.1279 0.388
41.1582 0.233
41.1885 -0.286
41.2188 0.028
41.2491 0.134
41.2793 -0.228
41.3096 0.608
41.3399 0.715
41.3702 0.198
41.4004 0.618
41.4307 1.038
41.4610 0.208
41.4913 0.265
41.5216 0.061
41.5518 0.170
41.5821 0.174
41.6124 -0.029
41.6427 -0.023
41.6730 0.399
41.7032 0.248
41.7335 0.307
41.7638 0.209
41.7941 0.684
41.8243 0.274
41.8546 0.802
41.8849 0.601
41.9152 -0.693
41.9455 0.408
41.9757 0.989
42.0060 0.112
42.0363 0.121
42.0666 0.182
42.0969 1.180
42.1271 0.148
42.1574 -0.363
42.1877 -0.107
42.2180 0.358
42.2482 0.094
42.2785 0.559
42.3088 0.347
42.3391 0.084
42.3694 0.186
42.3996 1.016
42.4299 -0.444
42.4602 0.596
42.4905 0.542
42.5208 0.488
42.5510 0.643
42.5813 0.330
42.6116 0.642
42.6419 0.068
42.6721 0.172
42.7024 -0.505
42.7327 0.381
42.7630 -0.400
42.7933 -0.034
42.8235 0.123
42.8538 0.437
42.8841 -0.083
42.9144 0.075
42.9447 -0.339
42.9749 0.236
43.0052 0.290
43.0355 -0.124
43.0658 0.661
43.0960 0.716
43.1263 -0.114
43.1566 -0.006
43.1869 0.571
43.2172 0.471
43.2474 0.111
43.2777 0.220
43.3080 -0.140
43.3383 0.282
43.3686 -0.129
43.3988 0.189
43.4291 0.351
43.4594 0.305
43.4897 -0.001
43.5199 0.683
43.5502 0.169
43.5805 0.072
43.6108 -0.025
43.6411 0.348
43.6713 0.720
43.7016 1.145
43.7319 0.580
43.7622 0.016
43.7925 0.546
43.8227 0.711
43.8530 0.252
43.8833 -0.363
43.9136 -0.226
43.9439 0.536
43.9741 0.726
44.0044 0.604
44.0347 0.638
44.0650 0.359
44.0952 0.342
44.1255 0.220
44.1558 -0.057
44.1861 0.082
44.2164 0.899
44.2466 0.518
44.2769 0.554
44.3072 0.382
44.3375 0.887
44.3678 0.038
44.3980 -0.133
44.4283 -0.148
44.4586 -0.215
44.4889 0.761
44.5191 0.382
44.5494 0.108
44.5797 -0.219
44.6100 -0.076
44.6403 0.224
44.6705 0.159
44.7008 -0.271
44.7311 0.654
44.7614 0.174
44.7917 -0.203
44.8219 -0.215
44.8522 -0.226
44.8825 0.336
44.9128 0.637
44.9430 -0.207
44.9733 -0.165
45.0036 0.085
45.0339 0.231
45.0642 -0.091
45.0944 0.108
45.1247 0.255
45.1550 0.507
45.1853 0.446
45.2156 -0.396
45.2458 -0.300
45.2761 0.421
45.3064 -0.159
45.3367 0.198
45.3669 0.347
45.3972 -0.858
45.4275 0.177
45.4578 0.066
45.4881 0.529
45.5183 0.158
45.5486 -0.942
45.5789 0.355
45.6092 -0.275
45.6395 -0.332
45.6697 0.705
45.7000 0.231
45.7303 -0.450
45.7606 -0.142
45.7908 0.063
45.8211 0.216
45.8514 -0.152
45.8817 -0.416
45.9120 0.198
45.9422 0.240
45.9725 0.438
46.0028 -0.042
46.0331 -0.520
46.0634 0.512
46.0936 -0.279
46.1239 0.337
46.1542 0.640
46.1845 1.100
46.2147 0.206
46.2450 0.094
46.2753 0.606
46.3056 -0.287
46.3359 0.643
46.3661 0.011
46.3964 2.139
46.4267 0.570
46.4570 0.876
46.4873 0.349
46.5175 0.551
46.5478 1.222
46.5781 0.956
46.6084 0.690
46.6386 1.519
46.6689 1.722
46.6992 0.520
46.7295 1.765
46.7598 0.772
46.7900 2.018
46.8203 2.275
46.8506 1.438
46.8809 2.529
46.9112 2.474
46.9414 2.679
46.9717 3.250
47.0020 3.092
47.0323 4.496
47.0626 3.713
47.0928 5.066
47.1231 6.263
47.1534 5.428
47.1837 6.261
47.2139 8.709
47.2442 8.135
47.2745 9.906
47.3048 12.094
47.3351 12.720
47.3653 11.366
47.3956 13.711
47.4259 15.119
47.4562 13.350
47.4865 12.466
47.5167 11.218
47.5470 12.783
47.5773 11.692
47.6076 10.965
47.6378 10.448
47.6681 8.732
47.6984 8.006
47.7287 6.812
47.7590 5.879
47.7892 4.633
47.8195 5.054
47.8498 3.601
47.8801 3.345
47.9104 3.246
47.9406 2.210
47.9709 2.477
48.0012 2.326
48.0315 3.478
48.0617 1.974
48.0920 1.460
48.1223 1.624
48.1526 1.422
48.1829 1.013
48.2131 0.865
48.2434 1.081
48.2737 0.829
48.3040 0.421
48.3343 1.054
48.3645 0.751
48.3948 0.968
48.4251 0.717
48.4554 0.936
48.4856 0.320
48.5159 0.487
48.5462 -0.180
48.5765 0.664
48.6068 -0.158
48.6370 0.270
48.6673 0.489
48.6976 0.032
48.7279 0.305
48.7582 0.369
48.7884 0.329
48.8187 -0.231
48.8490 0.303
48.8793 0.420
48.9095 -0.035
48.9398 0.031
48.9701 0.669
49.0004 -0.098
49.0307 0.281
49.0609 -0.173
49.0912 -0.054
49.1215 0.430
49.1518 0.810
49.1821 0.201
49.2123 0.269
49.2426 0.233
49.2729 -0.168
49.3032 0.891
49.3334 -0.134
49.3637 0.039
49.3940 -0.308
49.4243 -0.051
49.4546 -0.106
49.4848 0.100
49.5151 0.462
49.5454 -0.425
49.5757 0.354
49.6060 0.509
49.6362 -0.222
49.6665 0.610
49.6968 -0.328
49.7271 0.192
49.7574 -0.277
49.7876 -0.277
49.8179 0.244
49.8482 -0.276
49.8785 0.557
49.9087 -0.171
49.9390 -0.534
49.9693 0.248
49.9996 -0.063
50.0299 -0.061
50.0601 -0.736
50.0904 0.360
50.1207 0.050
50.1510 -0.103
50.1813 -0.100
50.2115 0.060
50.2418 0.532
50.2721 0.119
50.3024 -0.502
50.3326 0.232
50.3629 -0.180
50.3932 0.189
50.4235 0.246
50.4538 -0.061
50.4840 0.674
50.5143 0.002
50.5446 0.112
50.5749 -0.194
50.6052 -0.239
50.6354 0.340
50.6657 0.087
50.6960 -0.062
50.7263 0.206
50.7565 -0.203
50.7868 -0.299
50.8171 0.178
50.8474 0.499
50.8777 0.143
50.9079 0.047
50.9382 0.056
50.9685 0.118
50.9988 0.596
51.0291 0.554
51.0593 0.147
51.0896 -0.415
51.1199 0.429
51.1502 0.127
51.1804 0.190
51.2107 -0.371
51.2410 0.109
51.2713 0.329
51.3016 0.445
51.3318 0.301
51.3621 0.679
51.3924 0.066
51.4227 1.017
51.4530 -0.376
51.4832 0.210
51.5135 0.745
51.5438 0.342
51.5741 0.982
51.6043 0.163
51.6346 -0.135
51.6649 0.297
51.6952 0.468
51.7255 0.796
51.7557 -0.282
51.7860 -0.266
51.8163 0.141
51.8466 0.391
51.8769 0.849
51.9071 0.631
51.9374 0.361
51.9677 0.456
51.9980 0.343
52.0282 0.230
52.0585 0.534
52.0888 0.213
52.1191 1.090
52.1494 0.197
52.1796 0.606
52.2099 0.338
52.2402 -0.138
52.2705 0.533
52.3008 0.161
52.3310 -0.158
52.3613 -0.372
52.3916 0.612
52.4219 0.606
52.4521 0.497
52.4824 0.804
52.5127 0.070
52.5430 0.846
52.5733 0.582
52.6035 0.630
52.6338 0.938
52.6641 0.414
52.6944 0.514
52.7247 0.511
52.7549 0.456
52.7852 0.662
52.8155 0.399
52.8458 0.293
52.8761 -0.490
52.9063 0.029
52.9366 -0.337
52.9669 0.011
52.9972 0.673
53.0274 0.450
53.0577 0.903
53.0880 0.055
53.1183 0.353
53.1486 0.235
53.1788 0.533
53.2091 -0.366
53.2394 0.089
53.2697 0.545
53.3000 0.219
53.3302 0.571
53.3605 -0.223
53.3908 -0.131
53.4211 0.222
53.4513 -0.727
53.4816 0.511
53.5119 0.708
53.5422 -0.188
53.5725 0.165
53.6027 0.363
53.6330 -0.272
53.6633 -0.074
53.6936 0.385
53.7239 -0.145
53.7541 0.418
53.7844 0.565
53.8147 -0.277
53.8450 -0.233
53.8752 0.175
53.9055 -0.093
53.9358 -0.258
53.9661 -0.005
53.9964 -0.273
54.0266 -0.228
54.0569 0.339
54.0872 0.957
54.1175 -0.299
54.1478 -0.149
54.1780 -0.728
54.2083 0.192
54.2386 0.019
54.2689 0.418
54.2991 0.558
54.3294 0.437
54.3597 -0.360
54.3900 0.458
54.4203 0.077
54.4505 0.218
54.4808 -0.266
54.5111 -0.229
54.5414 0.017
54.5717 0.211
54.6019 -0.063
54.6322 0.027
54.6625 0.794
54.6928 -0.052
54.7230 0.351
54.7533 0.390
54.7836 0.482
54.8139 0.053
54.8442 -0.272
54.8744 0.497
54.9047 0.485
54.9350 -0.203
54.9653 0.098
54.9956 0.869
55.0258 -0.236
55.0561 0.431
55.0864 0.368
55.1167 0.150
55.1469 0.765
55.1772 -0.130
55.2075 -0.087
55.2378 0.217
55.2681 0.677
55.2983 0.720
55.3286 0.295
55.3589 1.069
55.3892 1.113
55.4195 0.741
55.4497 1.046
55.4800 0.935
55.5103 1.241
55.5406 0.922
55.5709 0.759
55.6011 1.586
55.6314 0.904
55.6617 1.263
55.6920 0.841
55.7222 1.825
55.7525 2.029
55.7828 1.868
55.8131 2.176
55.8434 2.641
55.8736 2.116
55.9039 3.467
55.9342 3.828
55.9645 3.460
55.9948 4.655
56.0250 5.434
56.0553 4.078
56.0856 5.273
56.1159 6.157
56.1461 6.259
56.1764 6.727
56.2067 8.445
56.2370 9.798
56.2673 9.016
56.2975 9.484
56.3278 13.182
56.3581 13.130
56.3884 15.318
56.4187 16.412
56.4489 18.080
56.4792 18.550
56.5095 18.135
56.5398 16.157
56.5700 17.305
56.6003 15.953
56.6306 15.017
56.6609 13.718
56.6912 12.419
56.7214 11.328
56.7517 12.217
56.7820 8.939
56.8123 8.422
56.8426 7.905
56.8728 7.441
56.9031 7.289
56.9334 5.419
56.9637 5.320
56.9939 3.867
57.0242 3.977
57.0545 3.409
57.0848 2.374
57.1151 2.693
57.1453 2.335
57.1756 2.341
57.2059 1.098
57.2362 2.356
57.2665 1.374
57.2967 1.485
57.3270 1.702
57.3573 1.241
57.3876 1.458
57.4178 0.946
57.4481 -0.295
57.4784 0.860
57.5087 0.818
57.5390 0.879
57.5692 0.525
57.5995 0.743
57.6298 0.493
57.6601 1.181
57.6904 0.776
57.7206 0.214
57.7509 0.277
57.7812 -0.336
57.8115 0.353
57.8417 0.626
57.8720 0.378
57.9023 0.390
57.9326 -0.482
57.9629 0.833
57.9931 -0.299
58.0234 -0.806
58.0537 0.341
58.0840 0.656
58.1143 0.190
58.1445 0.973
58.1748 0.247
58.2051 0.458
58.2354 -0.007
58.2656 0.257
58.2959 0.261
58.3262 0.265
58.3565 0.113
58.3868 -0.247
58.4170 0.070
58.4473 0.075
58.4776 0.081
58.5079 -0.278
58.5382 0.248
58.5684 0.254
58.5987 0.000
58.6290 0.579
58.6593 1.055
58.6896 -0.188
58.7198 -0.024
58.7501 0.139
58.7804 -0.113
58.8107 -0.105
58.8409 0.424
58.8712 0.172
58.9015 -0.028
58.9318 0.242
58.9621 0.355
58.9923 0.989
59.0226 -0.511
59.0529 0.280
59.0832 0.499
59.1135 0.040
59.1437 0.051
59.1740 0.270
59.2043 0.854
59.2346 0.137
59.2648 0.617
59.2951 -0.308
59.3254 0.329
59.3557 -0.128
59.3860 -0.636
59.4162 0.211
59.4465 0.432
59.4768 0.185
59.5071 -0.114
59.5374 -0.308
59.5676 -0.308
59.5979 -0.473
59.6282 0.613
59.6585 -0.020
59.6887 -0.392
59.7190 0.174
59.7493 0.323
59.7796 -0.204
59.8099 -0.523
59.8401 1.085
59.8704 0.298
59.9007 0.292
59.9310 0.078
59.9613 0.021
59.9915 0.120
60.0218 0.376
60.0521 0.215
60.0824 0.419
60.1126 0.311
60.1429 0.203
60.1732 -0.113
60.2035 0.300
60.2338 0.245
60.2640 -0.174
60.2943 -0.125
60.3246 0.133
60.3549 -0.650
60.3852 -0.089
60.4154 0.315
60.4457 -0.218
60.4760 0.187
60.5063 -0.710
60.5365 0.581
60.5668 0.102
60.5971 0.455
60.6274 0.705
60.6577 -0.242
60.6879 -0.252
60.7182 0.311
60.7485 0.093
60.7788 0.761
60.8091 0.127
60.8393 0.066
60.8696 0.578
60.8999 0.258
60.9302 0.562
60.9604 0.086
60.9907 0.287
61.0210 -0.398
61.0513 -0.040
61.0816 0.161
61.1118 0.259
61.1421 0.149
61.1724 0.351
61.2027 0.293
61.2330 -0.338
61.2632 -0.243
61.2935 0.424
61.3238 -0.471
61.3541 0.093
61.3844 0.136
61.4146 0.336
61.4449 0.744
61.4752 -0.149
61.5055 -0.001
61.5357 0.199
61.5660 0.557
61.5963 0.289
61.6266 1.115
61.6569 0.380
61.6871 0.738
61.7174 0.159
61.7477 0.725
61.7780 0.251
61.8083 0.766
61.8385 1.126
61.8688 1.589
61.8991 0.543
61.9294 0.434
61.9596 1.107
61.9899 0.843
62.0202 1.047
62.0505 0.888
62.0808 2.030
62.1110 1.454
62.1413 2.337
62.1716 3.116
62.2019 2.332
62.2322 3.320
62.2624 2.589
62.2927 3.108
62.3230 3.524
62.3533 4.148
62.3835 4.980
62.4138 4.875
62.4441 6.542
62.4744 6.177
62.5047 8.834
62.5349 9.459
62.5652 10.397
62.5955 9.981
62.6258 11.076
62.6561 12.172
62.6863 13.788
62.7166 14.311
62.7469 13.063
62.7772 15.461
62.8074 13.745
62.8377 15.623
62.8680 12.970
62.8983 12.973
62.9286 11.102
62.9588 13.345
62.9891 11.214
63.0194 11.427
63.0497 9.504
63.0800 8.051
63.1102 7.691
63.1405 7.749
63.1708 6.140
63.2011 6.094
63.2313 4.381
63.2616 4.700
63.2919 3.873
63.3222 3.672
63.3525 2.741
63.3827 2.644
63.4130 2.287
63.4433 2.712
63.4736 1.626
63.5039 2.155
63.5341 1.591
63.5644 1.183
63.5947 1.557
63.6250 1.670
63.6552 1.107
63.6855 1.481
63.7158 0.346
63.7461 0.252
63.7764 1.200
63.8066 0.534
63.8369 0.492
63.8672 0.712
63.8975 0.619
63.9278 0.475
63.9580 0.643
63.9883 0.603
64.0186 0.564
64.0489 0.681
64.0791 0.225
64.1094 0.447
64.1397 0.721
64.1700 0.943
64.2003 0.436
64.2305 0.398
64.2608 -0.056
64.2911 0.740
64.3214 1.328
64.3517 0.562
64.3819 0.785
64.4122 0.280
64.4425 -0.277
64.4728 -0.312
64.5031 -0.222
64.5333 0.286
64.5636 0.898
64.5939 -0.208
64.6242 0.248
64.6544 0.184
64.6847 -0.193
64.7150 0.004
64.7453 -0.268
64.7756 0.086
64.8058 0.648
64.8361 0.429
64.8664 0.366
64.8967 -0.009
64.9270 0.190
64.9572 -0.237
64.9875 -0.142
65.0178 0.630
65.0481 -0.004
65.0783 0.613
65.1086 0.448
65.1389 1.065
65.1692 0.328
65.1995 0.737
65.2297 0.260
65.2600 0.566
65.2903 -0.327
65.3206 -0.333
65.3509 0.021
65.3811 0.011
65.4114 -0.364
65.4417 0.036
65.4720 -0.189
65.5022 0.524
65.5325 0.299
65.5628 1.117
65.5931 1.257
65.6234 0.200
65.6536 0.862
65.6839 -0.298
65.7142 -0.157
65.7445 0.558
65.7748 0.127
65.8050 0.269
65.8353 0.360
65.8656 0.138
65.8959 0.385
65.9261 0.737
65.9564 1.505
65.9867 1.545
66.0170 1.741
66.0473 1.833
66.0775 0.363
66.1078 1.758
66.1381 1.174
66.1684 1.632
66.1987 2.454
66.2289 1.663
66.2592 2.173
66.2895 1.799
66.3198 1.372
66.3500 1.467
66.3803 1.353
66.4106 1.449
66.4409 1.179
66.4712 1.588
66.5014 1.006
66.5317 1.884
66.5620 1.772
66.5923 1.139
66.6226 1.288
66.6528 1.646
66.6831 0.701
66.7134 1.007
66.7437 0.897
66.7739 0.318
66.8042 1.198
66.8345 0.202
66.8648 1.812
66.8951 0.713
66.9253 1.021
66.9556 1.068
66.9859 1.533
67.0162 0.903
67.0465 1.004
67.0767 1.469
67.1070 1.257
67.1373 1.463
67.1676 1.616
67.1978 2.655
67.2281 1.871
67.2584 1.921
67.2887 1.659
67.3190 2.803
67.3492 2.437
67.3795 3.061
67.4098 4.102
67.4401 4.414
67.4704 3.372
67.5006 5.195
67.5309 5.611
67.5612 4.362
67.5915 4.779
67.6218 5.822
67.6520 7.333
67.6823 6.761
67.7126 7.909
67.7429 7.911
67.7731 9.996
67.8034 9.686
67.8337 9.011
67.8640 10.316
67.8943 11.257
67.9245 8.604
67.9548 11.055
67.9851 8.299
68.0154 9.553
68.0457 9.453
68.0759 7.739
68.1062 7.223
68.1365 9.259
68.1668 6.712
68.1970 4.895
68.2273 5.369
68.2576 5.792
68.2879 3.871
68.3182 3.669
68.3484 4.041
68.3787 3.423
68.4090 4.628
68.4393 4.375
68.4696 3.706
68.4998 2.932
68.5301 2.159
68.5604 4.251
68.5907 3.218
68.6209 3.384
68.6512 3.705
68.6815 3.611
68.7118 3.568
68.7421 3.891
68.7723 3.797
68.8026 4.536
68.8329 3.818
68.8632 5.079
68.8935 4.413
68.9237 4.164
68.9540 4.592
68.9843 4.656
69.0146 4.721
69.0448 2.806
69.0751 5.267
69.1054 4.082
69.1357 4.407
69.1660 3.744
69.1962 3.809
69.2265 3.771
69.2568 2.327
69.2871 3.279
69.3174 2.877
69.3476 2.527
69.3779 2.126
69.4082 1.464
69.4385 2.834
69.4687 1.704
69.4990 0.418
69.5293 1.684
69.5596 1.753
69.5899 1.145
69.6201 0.537
69.6504 0.867
69.6807 1.405
69.7110 -0.035
69.7413 0.139
69.7715 0.835
69.8018 0.280
69.8321 0.664
69.8624 0.474
69.8926 0.338
69.9229 0.513
69.9532 0.637
69.9835 0.189
70.0138 0.261
70.0440 0.750
70.0743 -0.323
70.1046 0.219
70.1349 0.501
70.1652 0.418
70.1954 0.440
70.2257 0.150
70.2560 0.276
70.2863 0.090
70.3166 0.061
70.3468 -0.072
70.3771 0.472
70.4074 0.704
70.4377 0.103
70.4679 -0.290
70.4982 -0.184
70.5285 0.808
70.5588 0.498
70.5891 0.032
70.6193 0.295
70.6496 0.038
70.6799 0.666
70.7102 0.097
70.7405 0.048
70.7707 -0.104
70.8010 -0.047
70.8313 -0.147
70.8616 0.900
70.8918 -0.293
70.9221 0.545
70.9524 0.291
70.9827 -0.016
71.0130 -0.010
71.0432 0.100
71.0735 0.055
71.1038 0.010
71.1341 -0.244
71.1644 0.545
71.1946 -0.021
71.2249 -0.169
71.2552 -0.057
71.2855 0.212
71.3157 0.585
71.3460 -0.239
71.3763 -0.126
71.4066 0.352
71.4369 0.361
71.4671 0.215
71.4974 -0.140
71.5277 0.600
71.5580 0.402
71.5883 0.465
71.6185 0.215
71.6488 0.018
71.6791 0.550
71.7094 0.198
71.7396 -0.311
71.7699 -0.160
71.8002 0.251
71.8305 0.559
71.8608 0.086
71.8910 0.081
71.9213 0.338
71.9516 0.542
71.9819 0.539
72.0122 0.171
72.0424 0.063
72.0727 1.050
72.1030 0.370
72.1333 0.316
72.1635 0.366
72.1938 0.677
72.2241 1.040
72.2544 0.674
72.2847 0.568
72.3149 1.088
72.3452 1.661
72.3755 0.619
72.4058 0.827
72.4361 0.410
72.4663 0.931
72.4966 0.567
72.5269 1.193
72.5572 0.778
72.5874 0.779
72.6177 1.666
72.6480 0.522
72.6783 0.732
72.7086 0.891
72.7388 1.050
72.7691 1.053
72.7994 0.587
72.8297 1.059
72.8600 0.438
72.8902 0.233
72.9205 0.081
72.9508 0.189
72.9811 0.610
73.0113 0.199
73.0416 1.037
73.0719 0.053
73.1022 0.006
73.1325 0.064
73.1627 -0.034
73.1930 0.180
73.2233 0.291
73.2536 0.194
73.2839 0.305
73.3141 -0.261
73.3444 0.476
73.3747 -0.193
73.4050 0.335
73.4353 0.083
73.4655 0.144
73.4958 -0.212
73.5261 -0.255
73.5564 -0.042
73.5866 0.276
73.6169 0.178
73.6472 -0.389
73.6775 -0.132
73.7078 -0.031
73.7380 -0.190
73.7683 0.693
73.7986 0.534
73.8289 0.168
73.8592 0.062
73.8894 -0.409
73.9197 0.371
73.9500 -0.411
73.9803 0.786
74.0105 0.109
74.0408 0.264
74.0711 0.421
74.1014 0.629
74.1317 0.057
74.1619 -0.255
74.1922 -0.462
74.2225 0.529
74.2528 0.426
74.2831 0.688
74.3133 0.013
74.3436 0.588
74.3739 -0.138
74.4042 0.177
74.4344 -0.028
74.4647 -0.493
74.4950 0.076
74.5253 0.438
74.5556 0.123
74.5858 -0.087
74.6161 -0.350
74.6464 0.221
74.6767 -0.301
74.7070 0.114
74.7372 -0.303
74.7675 0.217
74.7978 0.320
74.8281 0.320
74.8583 0.164
74.8886 0.060
74.9189 0.217
74.9492 -0.043
74.9795 0.166
75.0097 -0.041
75.0400 -0.144
75.0703 -0.142
75.1006 0.172
75.1309 0.227
75.1611 -0.031
75.1914 0.648
75.2217 -0.130
75.2520 -0.023
75.2822 -0.280
75.3125 0.141
75.3428 0.301
75.3731 -0.008
75.4034 0.205
75.4336 -0.363
75.4639 -0.166
75.4942 -0.178
75.5245 0.332
75.5548 -0.095
75.5850 0.207
75.6153 0.197
75.6456 -0.074
75.6759 0.229
75.7061 0.271
75.7364 -0.102
75.7667 0.618
75.7970 -0.172
75.8273 0.028
75.8575 -0.241
75.8878 0.063
75.9181 -0.049
75.9484 0.048
75.9787 0.041
76.0089 0.190
76.0392 0.391
76.0695 0.385
76.0998 0.170
76.1301 0.477
76.1603 0.315
76.1906 0.361
76.2209 -0.217
76.2512 -0.014
76.2814 -0.071
76.3117 0.446
76.3420 -0.184
76.3723 0.489
76.4026 0.902
76.4328 0.898
76.4631 0.270
76.4934 0.371
76.5237 1.097
76.5540 0.574
76.5842 0.468
76.6145 0.413
76.6448 1.245
76.6751 1.191
76.7053 1.033
76.7356 0.720
76.7659 0.979
76.7962 0.979
76.8265 1.291
76.8567 1.343
76.8870 0.405
76.9173 0.822
76.9476 1.396
76.9779 0.459
77.0081 1.033
77.0384 0.878
77.0687 1.245
77.0990 1.611
77.1292 0.936
77.1595 0.938
77.1898 0.785
77.2201 0.423
77.2504 0.322
77.2806 0.898
77.3109 0.224
77.3412 0.437
77.3715 0.180
77.4018 0.601
77.4320 -0.280
77.4623 0.871
77.4926 0.459
77.5229 -0.161
77.5531 -0.415
77.5834 0.214
77.6137 0.532
77.6440 0.537
77.6743 0.594
77.7045 0.808
77.7348 0.189
77.7651 0.039
77.7954 0.149
77.8257 0.052
77.8559 0.527
77.8862 0.482
77.9165 -0.500
77.9468 0.081
77.9770 0.089
78.0073 -0.216
78.0376 0.209
78.0679 0.114
78.0982 0.279
78.1284 0.131
78.1587 -0.068
78.1890 -0.006
78.2193 0.368
78.2496 0.066
78.2798 0.076
78.3101 0.399
78.3404 -0.215
78.3707 -0.100
78.4009 0.120
78.4312 -0.285
78.4615 -0.073
78.4918 -0.120
78.5221 0.145
78.5523 -0.163
78.5826 0.259
78.6129 0.108
78.6432 -0.199
78.6735 0.171
78.7037 0.229
78.7340 -0.598
78.7643 -0.176
78.7946 0.246
78.8248 0.043
78.8551 0.309
78.8854 -0.050
78.9157 0.165
78.9460 0.015
78.9762 -0.239
79.0065 -0.036
79.0368 0.427
79.0671 0.161
79.0974 -0.105
79.1276 0.463
79.1579 0.198
79.1882 0.194
79.2185 -0.175
79.2488 0.134
79.2790 0.338
79.3093 -0.238
79.3396 -0.189
79.3699 -0.244
79.4001 -0.197
79.4304 0.475
79.4607 0.053
79.4910 0.257
79.5213 -0.112
79.5515 0.301
79.5818 -0.015
79.6121 0.242
79.6424 0.186
79.6727 0.704
79.7029 0.233
79.7332 -0.135
79.7635 -0.033
79.7938 0.434
79.8240 -0.089
79.8543 -0.090
79.8846 -0.196
79.9149 0.272
79.9452 -0.249
79.9754 0.271
80.0057 -0.511
80.0360 -0.042
80.0663 0.062
80.0966 -0.250
80.1268 -0.200
80.1571 0.215
80.1874 -0.047
80.2177 0.004
80.2479 0.055
80.2782 -0.050
80.3085 0.105
80.3388 -0.468
80.3691 0.313
80.3993 0.209
80.4296 -0.259
80.4599 -0.162
80.4902 0.195
80.5205 0.553
80.5507 0.390
80.5810 0.175
80.6113 0.481
80.6416 0.319
80.6718 0.157
80.7021 0.047
80.7324 -0.010
80.7627 0.037
80.7930 0.188
80.8232 -0.285
80.8535 -0.134
80.8838 0.591
80.9141 0.170
80.9444 0.375
80.9746 0.007
81.0049 -0.101
81.0352 0.313
81.0655 0.466
81.0957 0.880
81.1260 0.149
81.1563 0.355
81.1866 0.926
81.2169 1.132
81.2471 0.402
81.2774 0.297
81.3077 0.660
81.3380 1.389
81.3683 0.086
81.3985 0.815
81.4288 0.607
81.4591 1.128
81.4894 0.868
81.5196 0.556
81.5499 0.141
81.5802 0.455
81.6105 0.769
81.6408 0.250
81.6710 0.564
81.7013 0.879
81.7316 1.350
81.7619 0.155
81.7922 0.471
81.8224 0.578
81.8527 0.217
81.8830 0.065
81.9133 -0.348
81.9436 0.385
81.9738 0.650
82.0041 -0.126
82.0344 -0.017
82.0647 -0.220
82.0949 0.462
82.1252 0.156
82.1555 0.110
82.1858 0.116
82.2161 0.278
82.2463 0.181
82.2766 0.084
82.3069 -0.065
82.3372 -0.579
82.3675 0.315
82.3977 -0.198
82.4280 0.018
82.4583 0.600
82.4886 0.296
82.5188 0.253
82.5491 -0.311
82.5794 -0.211
82.6097 1.036
82.6400 0.303
82.6702 0.353
82.7005 0.089
82.7308 0.243
82.7611 0.137
82.7914 0.395
82.8216 -0.023
82.8519 -0.389
82.8822 0.078
82.9125 0.233
82.9427 0.023
82.9730 -0.082
83.0033 0.074
83.0336 0.074
83.0639 0.022
83.0941 -0.135
83.1244 -0.030
83.1547 0.023
83.1850 0.024
83.2153 -0.392
83.2455 0.234
83.2758 -0.076
83.3061 -0.022
83.3364 0.136
83.3666 -0.122
83.3969 -0.015
83.4272 -0.013
83.4575 0.251
83.4878 -0.110
83.5180 -0.107
83.5483 -0.259
83.5786 0.157
83.6089 -0.052
83.6392 0.000
83.6694 -0.104
83.6997 0.260
83.7300 0.053
83.7603 -0.103
83.7905 -0.102
83.8208 0.108
83.8511 0.005
83.8814 0.007
83.9117 -0.200
83.9419 -0.041
83.9722 0.326
84.0025 -0.192
84.0328 0.071
84.0631 -0.030
84.0933 0.598
84.1236 0.550
84.1539 -0.071
84.1842 0.141
84.2144 0.354
84.2447 0.515
84.2750 -0.105
84.3053 0.681
84.3356 -0.251
84.3658 -0.089
84.3961 -0.031
84.4264 -0.389
84.4567 0.079
84.4870 0.391
84.5172 0.079
84.5475 -0.129
84.5778 0.340
84.6081 0.185
84.6383 0.186
84.6686 -0.021
84.6989 -0.124
84.7292 -0.174
84.7595 0.088
84.7897 -0.222
84.8200 0.145
84.8503 0.044
84.8806 0.047
84.9109 -0.106
84.9411 -0.259
84.9714 0.160
85.0017 -0.151
85.0320 -0.096
85.0623 0.583
85.0925 0.378
85.1228 0.433
85.1531 0.489
85.1834 0.076
85.2136 -0.233
85.2439 -0.073
85.2742 0.244
85.3045 0.301
85.3348 0.045
85.3650 0.415
85.3953 0.264
85.4256 0.166
85.4559 0.119
85.4862 -0.083
85.5164 -0.233
85.5467 0.124
85.5770 0.272
85.6073 0.473
85.6375 -0.107
85.6678 0.354
85.6981 -0.173
85.7284 0.029
85.7587 0.439
85.7889 0.068
85.8192 -0.094
85.8495 0.213
85.8798 0.156
85.9101 0.359
85.9403 0.198
85.9706 0.558
86.0009 0.449
86.0312 -0.128
86.0614 0.233
86.0917 0.698
86.1220 0.330
86.1523 0.119
86.1826 -0.144
86.2128 0.530
86.2431 0.059
86.2734 0.682
86.3037 0.003
86.3340 0.210
86.3642 0.156
86.3945 0.103
86.4248 0.310
86.4551 -0.367
86.4853 0.101
86.5156 0.101
86.5459 0.101
86.5762 -0.159
86.6065 0.206
86.6367 0.572
86.6670 0.416
86.6973 0.001
86.7276 0.107
86.7579 0.057
86.7881 0.319
86.8184 0.061
86.8487 -0.145
86.8790 0.535
86.9092 -0.035
86.9395 0.333
86.9698 -0.132
87.0001 0.288
87.0304 -0.020
87.0606 0.297
87.0909 0.301
87.1212 0.098
87.1515 0.363
87.1818 -0.100
87.2120 0.114
87.2423 0.432
87.2726 0.282
87.3029 -0.233
87.3331 -0.233
87.3634 0.176
87.3937 0.637
87.4240 0.005
87.4543 0.102
87.4845 0.355
87.5148 0.244
87.5451 0.238
87.5754 0.492
87.6057 0.226
87.6359 0.220
87.6662 0.163
87.6965 0.209
87.7268 -0.108
87.7571 0.512
87.7873 0.195
87.8176 0.087
87.8479 0.135
87.8782 0.392
87.9084 0.597
87.9387 0.073
87.9690 0.278
87.9993 0.119
88.0296 0.273
88.0598 0.739
88.0901 0.529
88.1204 0.684
88.1507 0.213
88.1810 0.368
88.2112 0.263
88.2415 0.419
88.2718 0.470
88.3021 -0.259
88.3323 -0.415
88.3626 0.299
88.3929 0.389
88.4232 0.375
88.4535 0.882
88.4837 0.087
88.5140 0.229
88.5443 0.841
88.5746 -0.005
88.6049 0.399
88.6351 0.699
88.6654 0.791
88.6957 0.154
88.7260 0.194
88.7562 -0.078
88.7865 0.171
88.8168 0.421
88.8471 0.566
88.8774 0.608
88.9076 0.702
88.9379 1.056
88.9682 0.943
88.9985 0.881
89.0288 0.351
89.0590 1.071
89.0893 1.166
89.1196 1.522
89.1499 0.837
89.1801 1.037
89.2104 1.550
89.2407 1.439
89.2710 0.963
89.3013 2.206
89.3315 1.157
89.3618 1.984
89.3921 1.769
89.4224 2.336
89.4527 1.862
89.4829 2.273
89.5132 2.059
89.5435 2.054
89.5738 2.414
89.6040 2.461
89.6343 2.248
89.6646 2.348
89.6949 2.345
89.7252 2.393
89.7554 2.077
89.7857 1.033
89.8160 1.238
89.8463 1.340
89.8766 1.285
89.9068 2.220
89.9371 1.437
89.9674 0.967
89.9977 0.966
90.0279 1.485
90.0582 0.807
90.0885 0.702
90.1188 0.962
90.1491 0.546
90.1793 0.442
90.2096 0.182
90.2399 0.443
90.2702 0.912
90.3005 0.965
90.3307 0.290
90.3610 0.395
90.3913 0.762
90.4216 -0.122
90.4518 0.141
90.4821 0.196
90.5124 0.407
90.5427 0.306
90.5730 0.205
90.6032 0.260
90.6335 -0.257
90.6638 0.320
90.6941 0.377
90.7244 -0.140
90.7546 0.074
90.7849 0.027
90.8152 -0.229
90.8455 -0.223
90.8758 -0.009
90.9060 0.466
90.9363 -0.205
90.9666 -0.407
90.9969 0.381
91.0271 0.492
91.0574 0.083
91.0877 -0.014
91.1180 -0.162
91.1483 -0.154
91.1785 0.166
91.2088 0.019
91.2391 -0.546
91.2694 0.018
91.2997 0.114
91.3299 -0.311
91.3602 -0.059
91.3905 -0.015
91.4208 -0.180
91.4510 -0.083
91.4813 0.326
91.5116 -0.254
91.5419 -0.105
91.5722 0.409
91.6024 -0.535
91.6327 -0.280
91.6630 -0.029
91.6933 0.276
91.7236 -0.305
91.7538 -0.157
91.7841 0.357
91.8144 -0.536
91.8447 0.134
91.8749 -0.602
91.9052 0.329
91.9355 -0.510
91.9658 -0.099
91.9961 -0.261
92.0263 0.358
92.0566 -0.220
92.0869 -0.486
92.1172 0.291
92.1475 -0.130
92.1777 -0.239
92.2080 -0.139
92.2383 0.274
92.2686 0.115
92.2988 0.528
92.3291 0.212
92.3594 0.574
92.3897 0.103
92.4200 0.205
92.4502 -0.266
92.4805 1.034
92.5108 -0.113
92.5411 -0.062
92.5714 -0.011
92.6016 1.602
92.6319 0.039
92.6622 1.185
92.6925 0.299
92.7227 0.820
92.7530 0.925
92.7833 0.040
92.8136 0.250
92.8439 0.407
92.8741 -0.217
92.9044 0.306
92.9347 -0.057
92.9650 0.414
92.9953 0.729
93.0255 0.211
93.0558 0.057
93.0861 -0.096
93.1164 0.220
93.1466 0.120
93.1769 -0.345
93.2072 0.075
93.2375 -0.181
93.2678 -0.020
93.2980 0.558
93.3283 0.355
93.3586 -0.213
93.3889 -0.624
93.4192 0.253
93.4494 -0.433
93.4797 0.080
93.5100 -0.136
93.5403 -0.248
93.5706 0.578
93.6008 -0.262
93.6311 -0.165
93.6614 -0.224
93.6917 0.395
93.7219 -0.185
93.7522 -0.295
93.7825 -0.254
93.8128 0.152
93.8431 -0.484
93.8733 0.131
93.9036 -0.348
93.9339 0.632
93.9642 0.414
93.9945 -0.221
94.0247 0.135
94.0550 0.074
94.0853 0.013
94.1156 -0.048
94.1458 -0.160
94.1761 -0.272
94.2064 0.189
94.2367 0.442
94.2670 0.174
94.2972 0.219
94.3275 0.109
94.3578 -0.367
94.3881 0.148
94.4184 -0.066
94.4486 -0.645
94.4789 0.495
94.5092 0.386
94.5395 0.381
94.5697 0.689
94.6000 0.007
94.6303 0.732
94.6606 1.041
94.6909 0.151
94.7211 0.981
94.7514 0.822
94.7817 1.027
94.8120 0.399
94.8423 0.970
94.8725 0.863
94.9028 0.549
94.9331 1.380
94.9634 0.962
94.9936 1.013
95.0239 1.689
95.0542 1.948
95.0845 1.427
95.1148 1.323
95.1450 2.208
95.1753 0.594
95.2056 2.469
95.2359 2.001
95.2662 1.012
95.2964 1.743
95.3267 1.275
95.3570 2.006
95.3873 1.539
95.4175 1.073
95.4478 1.231
95.4781 1.390
95.5084 1.497
95.5387 1.240
95.5689 0.514
95.5992 0.830
95.6295 1.095
95.6598 0.786
95.6901 1.416
95.7203 0.952
95.7506 0.696
95.7809 0.805
95.8112 0.706
95.8414 0.556
95.8717 -0.167
95.9020 0.568
95.9323 0.105
95.9626 0.112
95.9928 0.119
96.0231 0.230
96.0534 0.133
96.0837 -0.484
96.1140 0.149
96.1442 0.053
96.1745 -0.304
96.2048 -0.088
96.2351 0.232
96.2653 0.188
96.2956 0.248
96.3259 -0.473
96.3562 0.108
96.3865 0.117
96.4167 -0.030
96.4470 -0.177
96.4773 0.405
96.5076 0.467
96.5379 -0.617
96.5681 -0.190
96.5984 0.133
96.6287 0.665
96.6590 -0.522
96.6893 0.531
96.7195 0.542
96.7498 -0.123
96.7801 0.201
96.8104 -0.099
96.8406 -0.607
96.8709 0.551
96.9012 -0.165
96.9315 -0.048
96.9618 -0.607
96.9920 0.188
97.0223 0.098
97.0526 -0.409
97.0829 0.387
97.1132 -0.276
97.1434 -0.743
97.1737 0.353
97.2040 -0.166
97.2343 -0.059
97.2645 0.569
97.2948 0.259
97.3251 0.002
97.3554 0.266
97.3857 0.113
97.4159 0.065
97.4462 0.538
97.4765 -0.291
97.5068 0.235
97.5371 0.292
97.5673 -0.120
97.5976 -0.271
97.6279 -0.172
97.6582 0.552
97.6884 -0.182
97.7187 0.386
97.7490 -0.035
97.7793 0.742
97.8096 -0.564
97.8398 0.787
97.8701 -0.206
97.9004 0.416
97.9307 0.048
97.9610 0.566
97.9912 0.147
98.0215 0.405
98.0518 0.664
98.0821 0.558
98.1123 -0.225
98.1426 0.607
98.1729 0.502
98.2032 0.137
98.2335 0.032
98.2637 0.918
98.2940 0.345
98.3243 0.918
98.3546 0.762
98.3849 0.607
98.4151 0.139
98.4454 0.869
98.4757 1.756
98.5060 0.768
98.5362 1.031
98.5665 1.033
98.5968 0.775
98.6271 1.663
98.6574 0.937
98.6876 1.461
98.7179 0.944
98.7482 0.531
98.7785 0.743
98.8088 1.268
98.8390 0.752
98.8693 0.913
98.8996 0.657
98.9299 0.454
98.9601 0.147
98.9904 0.622
99.0207 1.044
99.0510 0.842
99.0813 0.588
99.1115 0.595
99.1418 0.602
99.1721 0.505
99.2024 0.460
99.2327 0.416
99.2629 0.996
99.2932 0.744
99.3235 -0.081
99.3538 0.188
99.3841 0.041
99.4143 0.623
99.4446 0.268
99.4749 0.173
99.5052 0.808
99.5354 0.245
99.5657 0.620
99.5960 0.475
99.6263 0.538
99.6566 -0.128
99.6868 -0.013
99.7171 0.155
99.7474 -0.250
99.7777 -0.309
99.8080 0.361
99.8382 0.666
99.8685 0.920
99.8988 -0.180
99.9291 -0.238
99.9593 0.745
99.9896 -0.094
100.0199 0.370
100.0502 -0.052
100.0805 0.516
100.1107 0.303
100.1410 0.038
100.1713 0.138
100.2016 0.082
100.2319 -0.234
100.2621 0.387
100.2924 -0.085
100.3227 -0.088
100.3530 0.639
100.3832 -0.301
100.4135 0.113
100.4438 -0.045
100.4741 0.161
100.5044 -0.153
100.5346 0.263
100.5649 -0.103
100.5952 0.001
100.6255 0.313
100.6558 -0.104
100.6860 -0.260
100.7163 0.103
100.7466 0.103
100.7769 0.311
100.8071 0.155
100.8374 0.259
100.8677 -0.261
100.8980 -0.052
100.9283 -0.311
100.9585 0.098
100.9888 0.456
101.0191 0.137
101.0494 -0.025
101.0797 -0.240
101.1099 -0.141
101.1402 0.530
101.1705 -0.465
101.2008 -0.053
101.2310 0.359
101.2613 0.406
101.2916 0.245
101.3219 0.241
101.3522 0.706
101.3824 -0.495
101.4127 0.231
101.4430 0.488
101.4733 -0.296
101.5036 0.326
101.5338 -0.301
101.5641 0.218
101.5944 0.111
101.6247 -0.359
101.6549 0.213
101.6852 0.107
101.7155 0.315
101.7458 0.054
101.7761 -0.520
101.8063 -0.010
101.8366 -0.020
101.8669 -0.395
101.8972 0.636
101.9275 0.678
101.9577 -0.113
101.9880 -0.226
102.0183 1.015
102.0486 -0.244
102.0788 -0.409
102.1091 0.364
102.1394 -0.270
102.1697 -0.017
102.2000 -0.285
102.2302 0.068
102.2605 0.369
102.2908 0.149
102.3211 0.555
102.3514 0.231
102.3816 0.012
102.4119 0.575
102.4422 0.513
102.4725 0.034
102.5028 -0.340
102.5330 0.536
102.5633 0.267
102.5936 0.102
102.6239 0.458
102.6541 0.449
102.6844 0.598
102.7147 0.694
102.7450 0.426
102.7753 0.418
102.8055 0.776
102.8358 0.665
102.8661 0.658
102.8964 0.235
102.9267 0.438
102.9569 0.223
102.9872 1.103
103.0175 0.317
103.0478 0.468
103.0780 1.036
103.1083 0.979
103.1386 0.298
103.1689 0.970
103.1992 0.602
103.2294 0.234
103.2597 0.751
103.2900 0.071
103.3203 0.120
103.3506 0.430
103.3808 -0.145
103.4111 0.269
103.4414 0.371
103.4717 0.318
103.5019 0.108
103.5322 0.471
103.5625 0.991
103.5928 -0.155
103.6231 0.417
103.6533 0.313
103.6836 0.417
103.7139 0.365
103.7442 0.574
103.7745 0.887
103.8047 1.513
103.8350 0.577
103.8653 1.360
103.8956 1.101
103.9258 1.051
103.9561 0.428
103.9864 0.952
104.0167 1.163
104.0470 1.010
104.0772 1.378
104.1075 1.069
104.1378 0.708
104.1681 1.389
104.1984 1.705
104.2286 0.929
104.2589 2.079
104.2892 1.459
104.3195 0.840
104.3497 0.637
104.3800 1.059
104.4103 0.857
104.4406 0.915
104.4709 1.234
104.5011 0.824
104.5314 1.560
104.5617 1.463
104.5920 0.637
104.6223 0.541
104.6525 1.226
104.6828 0.244
104.7131 0.409
104.7434 0.053
104.7736 0.531
104.8039 -0.241
104.8342 0.445
104.8645 0.351
104.8948 0.256
104.9250 0.006
104.9553 -0.036
104.9856 -0.389
105.0159 0.082
105.0462 -0.072
105.0764 0.556
105.1067 0.090
105.1370 -0.011
105.1673 -0.424
105.1975 0.204
105.2278 0.208
105.2581 -0.152
105.2884 -0.148
105.3187 -0.039
105.3489 0.175
105.3792 0.388
105.4095 0.237
105.4398 0.035
105.4701 -0.532
105.5003 0.203
105.5306 -0.103
105.5609 0.164
105.5912 -0.454
105.6215 -0.082
105.6517 -0.127
105.6820 -0.276
105.7123 0.096
105.7426 0.050
105.7728 -0.516
105.8031 0.065
105.8334 0.281
105.8637 -0.493
105.8940 -0.016
105.9242 -0.060
105.9545 -0.051
105.9848 0.374
106.0151 -0.034
106.0454 0.080
106.0756 0.141
106.1059 -0.318
106.1362 0.005
106.1665 -0.141
106.1967 0.442
106.2270 0.297
106.2573 0.412
106.2876 0.163
106.3179 0.070
106.3481 -0.022
106.3784 0.198
106.4087 -0.154
106.4390 0.379
106.4693 0.236
106.4995 0.092
106.5298 -0.363
106.5601 -0.060
106.5904 0.035
106.6206 0.026
106.6509 0.538
106.6812 -0.304
106.7115 0.157
106.7418 -0.007
106.7720 0.141
106.8023 0.186
106.8326 0.127
106.8629 -0.141
106.8932 -0.095
106.9234 -0.102
106.9537 -0.108
106.9840 0.094
107.0143 0.557
107.0445 0.083
107.0748 0.234
107.1051 0.333
107.1354 -0.036
107.1657 0.376
107.1959 0.268
107.2262 0.264
107.2565 -0.261
107.2868 0.048
107.3171 -0.059
107.3473 0.146
107.3776 0.404
107.4079 -0.328
107.4382 0.503
107.4684 0.397
107.4987 -0.178
107.5290 -0.127
107.5593 0.028
107.5896 -0.130
107.6198 -0.130
107.6501 0.390
107.6804 0.390
107.7107 0.025
107.7410 0.442
107.7712 -0.235
107.8015 -0.182
107.8318 0.392
107.8621 0.706
107.8923 -0.126
107.9226 -0.177
107.9529 -0.748
107.9832 0.348
108.0135 0.455
108.0437 0.041
108.0740 0.408
108.1043 -0.005
108.1346 0.675
108.1649 -0.155
108.1951 0.006
108.2254 0.478
108.2557 0.379
108.2860 0.123
108.3163 0.544
108.3465 0.185
108.3768 0.190
108.4071 0.665
108.4374 0.046
108.4676 -0.157
108.4979 0.058
108.5282 0.273
108.5585 -0.033
108.5888 -0.234
108.6190 0.503
108.6493 -0.011
108.6796 0.049
108.7099 -0.255
108.7402 -0.108
108.7704 -0.324
108.8007 0.240
108.8310 0.180
108.8613 0.329
108.8915 0.113
108.9218 0.574
108.9521 0.203
108.9824 0.352
109.0127 -0.019
109.0429 -0.025
109.0732 0.282
109.1035 0.067
109.1338 0.531
109.1641 -0.568
109.1943 -0.105
109.2246 -0.266
109.2549 -0.223
109.2852 0.393
109.3154 0.175
109.3457 -0.198
109.3760 -0.311
109.4063 0.253
109.4366 0.140
109.4668 0.080
109.4971 -0.293
109.5274 0.480
109.5577 -0.725
109.5880 0.101
109.6182 0.979
109.6485 0.295
109.6788 -0.180
109.7091 0.282
109.7393 -0.088
109.7696 0.322
109.7999 0.317
109.8302 -0.001
109.8605 -0.058
109.8907 -0.115
109.9210 0.922
109.9513 0.292
109.9816 0.236
110.0119 0.388
110.0421 0.020
110.0724 -0.244
110.1027 0.691
110.1330 0.844
110.1632 0.841
110.1935 0.110
110.2238 0.420
110.2541 0.470
110.2844 0.000
110.3146 1.457
110.3449 1.091
110.3752 -0.056
110.4055 0.360
110.4358 0.880
110.4660 0.620
110.4963 0.724
110.5266 0.933
110.5569 0.100
110.5871 1.038
110.6174 0.049
110.6477 0.311
110.6780 0.261
110.7083 0.367
110.7385 0.473
110.7688 0.110
110.7991 0.269
110.8294 0.011
110.8597 0.171
110.8899 0.747
110.9202 0.125
110.9505 -0.027
110.9808 -0.388
111.0110 0.606
111.0413 0.298
111.0716 0.094
111.1019 -0.005
111.1322 0.625
111.1624 -0.150
111.1927 -0.040
111.2230 0.226
111.2533 -0.028
111.2836 -0.126
111.3138 -0.276
111.3441 -0.014
111.3744 -0.013
111.4047 0.457
111.4350 0.251
111.4652 0.097
111.4955 -0.266
111.5258 0.153
111.5561 0.416
111.5863 -0.414
111.6166 0.162
111.6469 0.322
111.6772 -0.091
111.7075 0.330
111.7377 -0.135
111.7680 0.078
111.7983 -0.230
111.8286 0.608
111.8589 0.457
111.8891 -0.475
111.9194 -0.208
111.9497 -0.203
111.9800 -0.092
112.0102 -0.190
112.0405 0.233
112.0708 0.136
112.1011 0.143
112.1314 -0.162
112.1616 0.471
112.1919 0.114
112.2222 -0.034
112.2525 -0.234
112.2828 0.035
112.3130 0.148
112.3433 -0.363
112.3736 -0.104
112.4039 0.104
112.4341 0.103
112.4644 -0.209
112.4947 0.260
112.5250 -0.157
112.5553 0.677
112.5855 -0.103
112.6158 0.210
112.6461 0.836
112.6764 -0.308
112.7067 0.371
112.7369 0.165
112.7672 0.167
112.7975 0.170
112.8278 -0.244
112.8580 0.175
112.8883 0.231
112.9186 0.755
112.9489 -0.491
112.9792 -0.071
113.0094 0.038
113.0397 0.407
113.0700 -0.317
113.1003 0.000
113.1306 -0.255
113.1608 -0.110
113.1911 0.245
113.2214 0.182
113.2517 -0.140
113.2819 0.371
113.3122 -0.159
113.3425 0.300
113.3728 -0.073
113.4031 -0.082
113.4333 0.274
113.4636 -0.255
113.4939 0.258
113.5242 0.146
113.5545 0.035
113.5847 -0.181
113.6150 0.073
113.6453 -0.038
113.6756 -0.149
113.7058 -0.311
113.7361 0.256
113.7664 -0.271
113.7967 -0.172
113.8270 0.864
113.8572 -0.234
113.8875 0.282
113.9178 0.225
113.9481 0.169
113.9784 0.061
114.0086 0.109
114.0389 -0.468
114.0692 -0.059
114.0995 -0.276
114.1298 -0.028
114.1600 0.012
114.1903 0.156
114.2206 -0.012
114.2509 0.237
114.2811 -0.243
114.3114 0.007
114.3417 -0.004
114.3720 0.037
114.4023 -0.025
114.4325 -0.139
114.4628 -0.097
114.4931 -0.263
114.5234 -0.272
114.5537 0.031
114.5839 -0.290
114.6142 -0.095
114.6445 -0.317
114.6748 0.295
114.7050 -0.760
114.7353 0.321
114.7656 -0.056
114.7959 -0.901
114.8262 0.441
114.8564 -0.091
114.8867 -0.728
114.9170 0.459
114.9473 -0.281
114.9776 -0.240
115.0078 0.114
115.0381 0.000
115.0684 0.355
115.0987 -0.020
115.1289 0.075
115.1592 0.066
115.1895 0.161
115.2198 -0.264
115.2501 -0.273
115.2803 0.032
115.3106 -0.028
115.3409 0.328
115.3712 -0.044
115.4015 0.053
115.4317 -0.422
115.4620 0.508
115.4923 0.294
115.5226 -0.129
115.5528 -0.135
115.5831 0.067
115.6134 0.166
115.6437 0.942
115.6740 0.572
115.7042 0.255
115.7345 1.136
115.7648 0.142
115.7951 0.919
115.8254 1.124
115.8556 2.006
115.8859 1.065
115.9162 0.281
115.9465 1.476
115.9767 0.640
116.0070 0.273
116.0373 1.521
116.0676 1.155
116.0979 1.153
116.1281 1.464
116.1584 1.099
116.1887 0.994
116.2190 1.566
116.2493 0.680
116.2795 1.201
116.3098 0.993
116.3401 1.879
116.3704 1.567
116.4006 1.568
116.4309 1.048
116.4612 0.997
116.4915 0.739
116.5218 0.532
116.5520 1.732
116.5823 1.005
116.6126 1.320
116.6429 0.646
116.6732 1.066
116.7034 0.496
116.7337 0.136
116.7640 0.139
116.7943 1.029
116.8245 0.825
116.8548 0.830
116.8851 0.626
116.9154 1.100
116.9457 0.480
116.9759 0.069
117.0062 0.804
117.0365 1.279
117.0668 -0.069
117.0971 0.406
117.1273 -0.576
117.1576 0.264
117.1879 1.313
117.2182 0.279
117.2485 0.131
117.2787 -0.538
117.3090 1.032
117.3393 0.312
117.3696 -0.357
117.3998 0.121
117.4301 0.339
117.4604 -0.329
117.4907 0.619
117.5210 0.108
117.5512 0.326
117.5815 0.024
117.6118 0.139
117.6421 0.202
117.6724 0.057
117.7026 0.173
117.7329 -0.076
117.7632 0.197
117.7935 -0.051
117.8237 0.169
117.8540 -0.026
117.8843 -0.117
117.9146 0.313
117.9449 0.326
117.9751 -0.442
118.0054 -0.275
118.0357 -0.005
118.0660 -0.046
118.0963 -0.140
118.1265 -0.285
118.1568 -0.175
118.1871 -0.221
118.2174 0.307
118.2476 -0.728
118.2779 -0.253
118.3082 -0.142
118.3385 0.074
118.3688 0.133
118.3990 0.245
118.4293 -0.112
118.4596 -0.052
118.4899 -0.095
118.5202 -0.035
118.5504 0.703
118.5807 -0.069
118.6110 -0.008
118.6413 -0.102
118.6715 -0.144
118.7018 0.230
118.7321 -0.385
118.7624 -0.166
118.7927 0.626
118.8229 0.429
118.8532 0.284
118.8835 -0.121
118.9138 -0.266
118.9441 0.096
118.9743 -0.063
119.0046 -0.066
119.0349 0.140
119.0652 0.138
119.0954 0.500
119.1257 -0.074
119.1560 0.080
119.1863 0.027
119.2166 -0.130
119.2468 0.078
119.2771 -0.079
119.3074 0.389
119.3377 -0.236
119.3680 0.181
119.3982 0.026
119.4285 0.235
119.4588 -0.389
119.4891 -0.189
119.5193 0.375
119.5496 -0.309
119.5799 0.464
119.6102 0.301
119.6405 -0.175
119.6707 0.547
119.7010 0.436
119.7313 0.482
119.7616 0.059
119.7919 -0.311
119.8221 -0.032
119.8524 0.196
119.8827 0.112
119.9130 -0.858
119.9433 -0.082
119.9735 -0.295
120.0038 0.000
