'Id: "" Comment: "" Operator: "Lab Manager" Anode: "Cu" Scantype: "Locked Coupled" TimePerStep: "19.2" X: "9999" Y: "9999" Z: "9999" 
10.0015 0.000
10.0318 0.391
10.0620 -0.520
10.0923 -0.291
10.1226 -0.270
10.1529 -0.196
10.1832 0.139
10.2134 0.525
10.2437 0.184
10.2740 0.207
10.3043 0.022
10.3346 -0.423
10.3648 0.008
10.3951 0.492
10.4254 0.977
10.4557 -0.362
10.4859 0.280
10.5162 0.296
10.5465 -0.572
10.5768 -0.262
10.6071 -0.367
10.6373 0.465
10.6676 -0.526
10.6979 0.307
10.7282 0.515
10.7585 -0.422
10.7887 1.037
10.8190 0.569
10.8493 -0.106
10.8796 0.677
10.9098 -0.259
10.9401 -0.517
10.9704 0.632
11.0007 1.000
11.0310 0.639
11.0612 0.278
11.0915 0.543
11.1218 -0.494
11.1521 0.553
11.1824 -0.327
11.2126 0.564
11.2429 0.049
11.2732 0.368
11.3035 -0.250
11.3337 0.747
11.3640 -0.131
11.3943 -0.696
11.4246 0.302
11.4549 0.571
11.4851 0.528
11.5154 -0.348
11.5457 -0.598
11.5760 0.400
11.6063 -0.217
11.6365 -0.104
11.6668 0.687
11.6971 -0.449
11.7274 0.082
11.7577 -0.012
11.7879 0.103
11.8182 0.114
11.8485 0.334
11.8788 0.190
11.9090 -0.319
11.9393 0.527
11.9696 -0.450
11.9999 0.189
12.0302 1.088
12.0604 0.321
12.0907 -0.810
12.1210 -0.014
12.1513 -0.468
12.1816 0.052
12.2118 0.052
12.2421 -0.260
12.2724 0.313
12.3027 0.158
12.3329 0.159
12.3632 -0.360
12.3935 0.371
12.4238 0.634
12.4541 -0.093
12.4843 -0.298
12.5146 -0.347
12.5449 -0.239
12.5752 -0.130
12.6055 0.291
12.6357 -0.069
12.6660 -0.168
12.6963 0.307
12.7266 -0.729
12.7568 0.215
12.7871 -0.143
12.8174 0.437
12.8477 1.018
12.8780 0.557
12.9082 0.044
12.9385 0.157
12.9688 0.583
12.9991 -0.241
13.0294 0.029
13.0596 -0.482
13.0899 0.414
13.1202 0.269
13.1505 -0.032
13.1807 -0.802
13.2110 0.304
13.2413 0.472
13.2716 0.172
13.3019 0.550
13.3321 0.876
13.3624 0.109
13.3927 -0.294
13.4230 -0.644
13.4533 0.465
13.4835 0.168
13.5138 -0.754
13.5441 -0.140
13.5744 0.735
13.6046 0.777
13.6349 0.143
13.6652 0.446
13.6955 0.073
13.7258 0.325
13.7560 -0.725
13.7863 0.049
13.8166 -0.271
13.8469 -0.070
13.8772 0.445
13.9074 0.022
13.9377 -0.088
13.9680 -0.146
13.9983 0.839
14.0285 0.365
14.0588 -0.681
14.0891 0.201
14.1194 0.197
14.1497 0.663
14.1799 -0.174
14.2102 -0.072
14.2405 0.238
14.2708 0.237
14.3011 -0.494
14.3313 0.390
14.3616 0.234
14.3919 0.962
14.4222 0.233
14.4524 0.130
14.4827 -0.338
14.5130 -0.337
14.5433 0.550
14.5736 0.083
14.6038 -0.227
14.6341 0.401
14.6644 0.508
14.6947 0.459
14.7250 -0.214
14.7552 -0.054
14.7855 0.055
14.8158 -0.409
14.8461 0.690
14.8764 -0.398
14.9066 -0.027
14.9369 -0.125
14.9672 0.767
14.9975 0.357
15.0277 -0.260
15.0580 -0.252
15.0883 -0.244
15.1186 0.025
15.1489 0.190
15.1791 0.147
15.2094 -0.624
15.2397 -0.102
15.2700 -0.256
15.3003 0.371
15.3305 -0.407
15.3608 -0.040
15.3911 -0.349
15.4214 0.541
15.4516 0.024
15.4819 -0.284
15.5122 0.294
15.5425 0.091
15.5728 -0.164
15.6030 -0.210
15.6333 -0.360
15.6636 0.012
15.6939 -0.294
15.7242 0.026
15.7544 0.242
15.7847 0.094
15.8150 -0.314
15.8453 1.310
15.8755 -0.243
15.9058 -0.390
15.9361 0.286
15.9664 0.181
15.9967 -0.185
16.0269 -0.133
16.0572 -0.185
16.0875 0.701
16.1178 0.754
16.1481 -0.443
16.1783 0.912
16.2086 0.393
16.2389 0.291
16.2692 -1.008
16.2994 -0.120
16.3297 0.404
16.3600 0.252
16.3903 0.152
16.4206 -0.365
16.4508 -0.161
16.4811 -0.635
16.5114 0.299
16.5417 -0.226
16.5720 0.447
16.6022 -0.754
16.6325 0.442
16.6628 -0.655
16.6931 0.906
16.7233 0.227
16.7536 0.434
16.7839 0.225
16.8142 0.537
16.8445 0.901
16.8747 0.016
16.9050 1.006
16.9353 0.226
16.9656 -0.190
16.9959 0.385
17.0261 0.647
17.0564 0.389
17.0867 0.236
17.1170 -0.386
17.1472 0.555
17.1775 0.611
17.2078 -0.583
17.2381 0.776
17.2684 -0.261
17.2986 0.943
17.3289 0.219
17.3592 0.538
17.3895 0.180
17.4198 0.916
17.4500 -0.640
17.4803 -0.215
17.5106 -0.103
17.5409 -0.199
17.5712 0.226
17.6014 -0.442
17.6317 -0.185
17.6620 0.123
17.6923 1.266
17.7225 0.534
17.7528 -0.042
17.7831 0.113
17.8134 0.111
17.8437 -0.047
17.8739 -0.360
17.9042 0.316
17.9345 0.055
17.9648 0.107
17.9951 0.472
18.0253 0.213
18.0556 -0.151
18.0859 0.424
18.1162 -0.304
18.1464 -0.041
18.1767 0.326
18.2070 -0.139
18.2373 0.229
18.2676 0.909
18.2978 -0.701
18.3281 0.137
18.3584 -0.015
18.3887 0.303
18.4190 0.048
18.4492 0.575
18.4795 0.113
18.5098 0.171
18.5401 0.439
18.5703 0.446
18.6006 0.402
18.6309 0.254
18.6612 0.210
18.6915 -0.041
18.7217 -0.240
18.7520 0.447
18.7823 -0.845
18.8126 -0.314
18.8429 0.634
18.8731 0.593
18.9034 0.500
18.9337 0.200
18.9640 -0.100
18.9942 0.537
19.0245 1.175
19.0548 0.355
19.0851 0.317
19.1154 -0.346
19.1456 0.345
19.1759 -0.213
19.2062 0.584
19.2365 1.016
19.2668 -0.270
19.2970 0.059
19.3273 0.753
19.3576 0.353
19.3879 0.214
19.4181 0.336
19.4484 -0.010
19.4787 0.060
19.5090 -0.494
19.5393 -0.035
19.5695 -0.202
19.5998 0.726
19.6301 0.665
19.6604 -0.177
19.6907 -0.498
19.7209 0.275
19.7512 0.319
19.7815 0.052
19.8118 0.253
19.8420 0.351
19.8723 0.188
19.9026 -0.182
19.9329 0.437
19.9632 0.797
19.9934 0.844
20.0237 0.371
20.0540 1.096
20.0843 0.676
20.1146 -0.369
20.1448 -0.529
20.1751 0.771
20.2054 0.508
20.2357 -0.483
20.2659 1.390
20.2962 0.921
20.3265 0.347
20.3568 0.399
20.3871 0.138
20.4173 0.191
20.4476 0.088
20.4779 0.557
20.5082 0.871
20.5385 0.300
20.5687 1.344
20.5990 -0.111
20.6293 0.256
20.6596 0.207
20.6899 0.263
20.7201 0.372
20.7504 1.001
20.7807 0.068
20.8110 0.334
20.8412 -0.442
20.8715 -0.286
20.9018 -0.338
20.9321 0.331
20.9624 0.218
20.9926 0.211
21.0229 0.411
21.0532 0.769
21.0835 0.970
21.1138 0.599
21.1440 -0.188
21.1743 0.223
21.2046 0.009
21.2349 0.942
21.2651 0.937
21.2954 0.464
21.3257 -0.113
21.3560 0.353
21.3863 0.506
21.4165 0.347
21.4468 0.240
21.4771 0.446
21.5074 0.809
21.5377 -0.286
21.5679 0.286
21.5982 0.442
21.6285 -0.496
21.6588 0.078
21.6890 -0.286
21.7193 0.496
21.7496 0.653
21.7799 0.082
21.8102 -0.176
21.8404 0.243
21.8707 0.662
21.9010 0.353
21.9313 0.565
21.9616 -0.160
21.9918 0.000
22.0221 0.838
22.0524 0.166
22.0827 -0.089
22.1129 -0.292
22.1432 -0.338
22.1735 -0.087
22.2038 -0.148
22.2341 0.469
22.2643 0.565
22.2946 0.400
22.3249 0.132
22.3552 0.282
22.3855 -0.038
22.4157 -0.044
22.4460 -0.259
22.4763 0.413
22.5066 0.928
22.5368 -0.066
22.5671 -0.331
22.5974 0.654
22.6277 -0.391
22.6580 -0.187
22.6882 -0.242
22.7185 -0.088
22.7488 0.795
22.7791 -0.145
22.8094 0.062
22.8396 -0.512
22.8699 0.685
22.9002 0.372
22.9305 0.580
22.9607 -0.045
22.9910 1.154
23.0213 0.113
23.0516 -0.302
23.0819 0.533
23.1121 -0.247
23.1424 -0.140
23.1727 0.071
23.2030 -0.551
23.2333 0.130
23.2635 0.030
23.2938 0.242
23.3241 -0.118
23.3544 0.044
23.3846 -0.055
23.4149 0.211
23.4452 0.061
23.4755 -0.349
23.5058 0.491
23.5360 -0.387
23.5663 0.975
23.5966 0.514
23.6269 0.262
23.6572 -0.302
23.6874 -0.137
23.7177 -0.336
23.7480 0.247
23.7783 0.153
23.8086 0.372
23.8388 -0.086
23.8691 0.290
23.8994 -0.063
23.9297 -0.676
23.9599 0.114
23.9902 -0.033
24.0205 0.288
24.0508 0.871
24.0811 0.881
24.1113 0.319
24.1416 0.590
24.1719 -0.076
24.2022 0.352
24.2325 0.521
24.2627 0.064
24.2930 0.129
24.3233 0.663
24.3536 -0.105
24.3838 0.221
24.4141 -0.337
24.4444 -0.193
24.4747 0.576
24.5050 0.616
24.5352 0.293
24.5655 0.282
24.5958 0.324
24.6261 0.105
24.6564 0.252
24.6866 -0.278
24.7169 0.338
24.7472 0.642
24.7775 0.373
24.8077 -0.312
24.8380 0.045
24.8683 0.455
24.8986 -0.073
24.9289 0.077
24.9591 0.644
24.9894 0.222
25.0197 0.008
25.0500 -0.049
25.0803 0.155
25.1105 0.776
25.1408 -0.322
25.1711 0.560
25.2014 0.089
25.2316 0.034
25.2619 0.292
25.2922 -0.231
25.3225 -0.232
25.3528 -0.338
25.3830 0.280
25.4133 1.002
25.4436 0.682
25.4739 0.623
25.5042 0.357
25.5344 0.507
25.5647 0.137
25.5950 -0.285
25.6253 0.284
25.6555 0.331
25.6858 0.588
25.7161 -0.353
25.7464 0.477
25.7767 0.630
25.8069 0.523
25.8372 0.313
25.8675 -0.106
25.8978 -0.524
25.9281 0.725
25.9583 -0.109
25.9886 0.672
26.0189 -0.057
26.0492 -0.525
26.0794 0.257
26.1097 0.779
26.1400 -0.261
26.1703 -0.780
26.2006 0.303
26.2308 0.449
26.2611 0.126
26.2914 0.793
26.3217 0.055
26.3520 0.567
26.3822 -0.536
26.4125 0.394
26.4428 0.282
26.4731 0.014
26.5034 1.725
26.5336 0.625
26.5639 0.931
26.5942 0.404
26.6245 0.659
26.6547 0.706
26.6850 0.701
26.7153 0.488
26.7456 -0.349
26.7759 -0.477
26.8061 0.699
26.8364 -0.574
26.8667 0.186
26.8970 0.164
26.9273 0.768
26.9575 0.851
26.9878 0.414
27.0181 -0.075
27.0484 0.739
27.0786 0.563
27.1089 0.440
27.1392 0.161
27.1695 -0.326
27.1998 -0.032
27.2300 0.836
27.2603 0.403
27.2906 1.063
27.3209 -0.047
27.3512 0.197
27.3814 0.077
27.4117 0.687
27.4420 -0.526
27.4723 -0.020
27.5025 0.227
27.5328 -0.621
27.5631 0.460
27.5934 -0.335
27.6237 0.174
27.6539 -0.464
27.6842 -0.007
27.7145 -0.175
27.7448 -0.290
27.7751 0.063
27.8053 -0.468
27.8356 -0.009
27.8659 0.398
27.8962 -0.132
27.9264 -0.037
27.9567 -0.254
27.9870 -0.158
28.0173 0.043
28.0476 -0.277
28.0778 0.601
28.1081 -0.395
28.1384 0.171
28.1687 -0.147
28.1990 1.150
28.2292 0.728
28.2595 -0.371
28.2898 0.250
28.3201 -0.484
28.3503 0.242
28.3806 0.030
28.4109 -0.233
28.4412 0.337
28.4715 -0.447
28.5017 0.229
28.5320 0.019
28.5623 0.174
28.5926 0.017
28.6229 0.381
28.6531 -0.088
28.6834 -0.296
28.7137 -0.087
28.7440 -0.034
28.7742 -0.397
28.8045 -0.526
28.8348 0.647
28.8651 -0.627
28.8954 -0.235
28.9256 0.315
28.9559 0.396
28.9862 0.216
29.0165 0.194
29.0468 -0.453
29.0770 0.931
29.1073 -0.705
29.1376 -0.413
29.1679 0.447
29.1981 -0.202
29.2284 0.190
29.2587 0.167
29.2890 0.143
29.3193 -0.296
29.3495 -0.423
29.3798 0.213
29.4101 0.642
29.4404 0.810
29.4707 -0.427
29.5009 -0.049
29.5312 -0.036
29.5615 -0.439
29.5918 0.043
29.6221 -0.985
29.6523 0.019
29.6826 1.179
29.7129 -0.212
29.7432 0.063
29.7734 0.079
29.8037 0.042
29.8340 0.007
29.8643 -0.498
29.8946 0.092
29.9248 -0.776
29.9551 0.544
29.9854 0.250
30.0157 -0.669
30.0460 0.027
30.0762 0.202
30.1065 -1.393
30.1368 0.241
30.1671 -0.311
30.1973 -0.290
30.2276 0.460
30.2579 -0.404
30.2882 0.399
30.3185 -0.308
30.3487 -0.286
30.3790 0.050
30.4093 1.271
30.4396 0.982
30.4699 0.589
30.5001 1.343
30.5304 1.472
30.5607 1.393
30.5910 0.950
30.6212 0.976
30.6515 0.377
30.6818 1.185
30.7121 1.055
30.7424 1.968
30.7726 2.308
30.8029 1.451
30.8332 1.427
30.8635 1.404
30.8938 3.569
30.9240 4.171
30.9543 3.941
30.9846 4.752
31.0149 3.950
31.0451 4.293
31.0754 5.887
31.1057 7.013
31.1360 7.670
31.1663 7.338
31.1965 10.600
31.2268 10.633
31.2571 12.698
31.2874 16.690
31.3177 17.245
31.3479 18.218
31.3782 19.919
31.4085 23.236
31.4388 26.501
31.4690 29.871
31.4993 33.345
31.5296 38.850
31.5599 38.627
31.5902 47.155
31.6204 46.411
31.6507 49.002
31.6810 47.530
31.7113 44.913
31.7416 44.328
31.7718 38.014
31.8021 35.658
31.8324 27.365
31.8627 27.302
31.8929 21.875
31.9232 20.042
31.9535 14.719
31.9838 13.199
32.0141 12.877
32.0443 8.702
32.0746 8.381
32.1049 9.883
32.1352 4.719
32.1655 5.962
32.1957 4.497
32.2260 4.438
32.2563 4.432
32.2866 4.165
32.3169 2.649
32.3471 2.436
32.3774 1.702
32.4077 2.479
32.4380 1.798
32.4682 0.700
32.4985 1.114
32.5288 0.746
32.5591 -0.767
32.5894 1.835
32.6196 0.896
32.6499 0.478
32.6802 -0.773
32.7105 0.945
32.7408 0.528
32.7710 0.319
32.8013 0.841
32.8316 0.581
32.8619 -0.043
32.8921 -0.250
32.9224 -0.039
32.9527 0.692
32.9830 1.111
33.0133 0.073
33.0435 -0.914
33.0738 0.548
33.1041 -0.541
33.1344 -0.541
33.1647 -0.346
33.1949 -0.047
33.2252 0.045
33.2555 0.814
33.2858 0.125
33.3160 0.530
33.3463 -0.054
33.3766 0.457
33.4069 -0.804
33.4372 1.061
33.4674 0.375
33.4977 0.313
33.5280 0.148
33.5583 0.036
33.5886 0.496
33.6188 0.436
33.6491 0.690
33.6794 0.110
33.7097 1.405
33.7399 1.503
33.7702 2.330
33.8005 3.523
33.8308 3.466
33.8611 3.878
33.8913 4.029
33.9216 4.286
33.9519 8.657
33.9822 6.935
34.0125 8.651
34.0427 10.159
34.0730 12.709
34.1033 13.592
34.1336 19.893
34.1638 23.538
34.1941 31.037
34.2244 36.870
34.2547 46.766
34.2850 57.079
34.3152 61.246
34.3455 53.539
34.3758 46.249
34.4061 41.876
34.4364 34.117
34.4666 23.860
34.4969 19.696
34.5272 14.804
34.5575 11.943
34.5877 10.436
34.6180 8.097
34.6483 7.633
34.6786 5.868
34.7089 5.352
34.7391 4.837
34.7694 3.802
34.7997 4.069
34.8300 3.660
34.8603 3.146
34.8905 3.675
34.9208 2.485
34.9511 3.066
34.9814 3.440
35.0116 3.293
35.0419 3.042
35.0722 2.219
35.1025 3.792
35.1328 3.178
35.1630 4.439
35.1933 3.200
35.2236 4.410
35.2539 3.120
35.2842 4.070
35.3144 4.448
35.3447 3.836
35.3750 5.048
35.4053 5.791
35.4356 8.305
35.4658 6.445
35.4961 7.450
35.5264 7.361
35.5567 8.888
35.5869 10.675
35.6172 12.098
35.6475 13.104
35.6778 13.538
35.7081 16.890
35.7383 18.679
35.7686 19.947
35.7989 21.841
35.8292 26.444
35.8595 30.526
35.8897 32.473
35.9200 40.410
35.9503 41.316
35.9806 50.816
36.0108 54.692
36.0411 59.558
36.0714 64.423
36.1017 71.217
36.1320 65.927
36.1622 67.617
36.1925 72.433
36.2228 65.894
36.2531 60.658
36.2834 55.527
36.3136 51.437
36.3439 40.994
36.3742 38.624
36.4045 33.338
36.4347 29.719
36.4650 23.913
36.4953 21.492
36.5256 19.072
36.5559 16.496
36.5861 12.566
36.6164 12.074
36.6467 10.176
36.6770 8.279
36.7073 7.788
36.7375 7.610
36.7678 7.068
36.7981 6.005
36.8284 5.672
36.8586 4.714
36.8889 5.059
36.9192 2.383
36.9495 4.760
36.9798 3.543
37.0100 3.212
37.0403 2.882
37.0706 2.812
37.1009 1.441
37.1312 1.371
37.1614 1.563
37.1917 2.328
37.2220 1.896
37.2523 1.985
37.2825 1.292
37.3128 1.694
37.3431 1.003
37.3734 1.822
37.4037 -0.066
37.4339 0.962
37.4642 1.522
37.4945 1.145
37.5248 0.560
37.5551 -0.233
37.5853 0.224
37.6156 0.630
37.6459 0.984
37.6762 0.453
37.7064 0.808
37.7367 1.111
37.7670 0.320
37.7973 0.989
37.8276 -0.062
37.8578 0.399
37.8881 -0.702
37.9184 -0.368
37.9487 0.435
37.9790 -0.115
38.0092 0.481
38.0395 0.661
38.0698 -0.410
38.1001 0.760
38.1304 -0.101
38.1606 -0.909
38.1909 0.262
38.2212 0.027
38.2515 0.105
38.2817 0.079
38.3120 -0.155
38.3423 0.185
38.3726 0.473
38.4029 0.917
38.4331 -0.357
38.4634 -0.329
38.4937 -0.039
38.5240 -0.010
38.5543 0.697
38.5845 0.414
38.6148 0.288
38.6451 0.892
38.6754 0.923
38.7056 -0.087
38.7359 0.205
38.7662 0.237
38.7965 0.790
38.8268 -0.114
38.8570 0.284
38.8873 0.057
38.9176 0.403
38.9479 -0.187
38.9782 0.629
39.0084 0.456
39.0387 0.491
39.0690 0.267
39.0993 -0.010
39.1295 -0.598
39.1598 0.029
39.1901 0.761
39.2204 0.191
39.2507 -0.223
39.2809 0.353
39.3112 0.305
39.3415 -0.107
39.3718 -0.363
39.4021 0.632
39.4323 0.481
39.4626 -0.139
39.4929 0.336
39.5232 0.499
39.5534 -0.171
39.5837 0.826
39.6140 1.250
39.6443 -0.409
39.6746 0.277
39.7048 -0.027
39.7351 0.815
39.7654 0.043
39.7957 -0.416
39.8260 0.009
39.8562 0.017
39.8865 0.286
39.9168 0.451
39.9471 0.199
39.9773 -0.104
40.0076 0.323
40.0379 0.333
40.0682 0.344
40.0985 0.251
40.1287 0.106
40.1590 0.326
40.1893 0.598
40.2196 0.663
40.2499 0.155
40.2801 0.845
40.3104 0.390
40.3407 0.039
40.3710 0.210
40.4012 -0.088
40.4315 0.240
40.4618 -0.214
40.4921 0.271
40.5224 0.495
40.5526 0.408
40.5829 1.050
40.6132 0.234
40.6435 -0.113
40.6738 0.113
40.7040 -0.337
40.7343 -0.087
40.7646 0.684
40.7949 0.414
40.8251 0.508
40.8554 0.708
40.8857 1.064
40.9160 -0.090
40.9463 -0.046
40.9765 0.467
41.0068 0.043
41.0371 0.297
41.0674 -0.387
41.0977 -0.028
41.1279 -0.294
41.1582 0.586
41.1885 0.008
41.2188 0.056
41.2491 0.572
41.2793 0.569
41.3096 -0.268
41.3399 0.458
41.3702 -0.326
41.4004 0.036
41.4307 1.024
41.4610 0.137
41.4913 -0.281
41.5216 -0.230
41.5518 -0.439
41.5821 0.395
41.6124 0.603
41.6427 -0.021
41.6730 0.761
41.7032 0.137
41.7335 -0.121
41.7638 -0.380
41.7941 0.404
41.8243 -0.166
41.8546 -0.267
41.8849 -0.159
41.9152 -0.259
41.9455 -0.099
41.9757 0.010
42.0060 0.744
42.0363 0.333
42.0666 -0.338
42.0969 0.033
42.1271 0.143
42.1574 0.358
42.1877 -0.259
42.2180 -0.304
42.2482 0.267
42.2785 0.265
42.3088 -0.518
42.3391 -0.102
42.3694 0.470
42.3996 0.625
42.4299 0.417
42.4602 0.000
42.4905 -0.311
42.5208 0.052
42.5510 -0.209
42.5813 -0.210
42.6116 -0.054
42.6419 0.676
42.6721 0.104
42.7024 -0.052
42.7327 0.158
42.7630 0.264
42.7933 0.214
42.8235 0.164
42.8538 -0.406
42.8841 0.170
42.9144 0.539
42.9447 -0.395
42.9749 0.182
43.0052 0.187
43.0355 0.505
43.0658 -0.063
43.0960 -0.057
43.1263 -0.520
43.1566 0.097
43.1869 -0.120
43.2172 0.237
43.2474 0.178
43.2777 0.535
43.3080 0.112
43.3383 0.106
43.3686 0.256
43.3988 0.042
43.4291 0.402
43.4594 0.241
43.4897 -0.232
43.5199 -0.080
43.5502 0.177
43.5805 0.121
43.6108 -0.298
43.6411 0.220
43.6713 -0.095
43.7016 -0.200
43.7319 0.058
43.7622 0.110
43.7925 0.525
43.8227 -0.881
43.8530 -0.308
43.8833 0.367
43.9136 -0.989
43.9439 -0.053
43.9741 0.415
44.0044 0.675
44.0347 -0.106
44.0650 0.050
44.0952 -0.054
44.1255 0.364
44.1558 1.042
44.1861 0.107
44.2164 -0.308
44.2466 -0.326
44.2769 0.386
44.3072 0.682
44.3375 -0.012
44.3678 0.024
44.3980 0.425
44.4283 0.149
44.4586 0.343
44.4889 0.172
44.5191 -0.311
44.5494 -0.273
44.5797 -0.131
44.6100 0.117
44.6403 0.208
44.6705 -0.325
44.7008 -0.389
44.7311 0.746
44.7614 0.579
44.7917 0.100
44.8219 0.246
44.8522 -0.701
44.8825 0.227
44.9128 0.374
44.9430 0.157
44.9733 -0.112
45.0036 -0.171
45.0339 0.081
45.0642 -0.134
45.0944 -0.245
45.1247 0.322
45.1550 -0.153
45.1853 -0.575
45.2156 0.357
45.2458 0.144
45.2761 -0.538
45.3064 0.031
45.3367 -0.338
45.3669 -0.086
45.3972 0.217
45.4275 0.157
45.4578 0.149
45.4881 0.037
45.5183 -0.231
45.5486 -0.290
45.5789 -0.661
45.6092 0.479
45.6395 -0.413
45.6697 -0.314
45.7000 -0.579
45.7303 0.458
45.7606 0.089
45.7908 0.189
45.8211 -0.284
45.8514 -0.235
45.8817 -0.185
45.9120 0.020
45.9422 -0.086
45.9725 0.277
46.0028 -0.297
46.0331 0.222
46.0634 0.118
46.0936 0.534
46.1239 -0.091
46.1542 0.639
46.1845 0.067
46.2147 -0.141
46.2450 0.017
46.2753 -0.345
46.3056 -0.045
46.3359 0.933
46.3661 0.713
46.3964 -0.235
46.4267 0.692
46.4570 0.525
46.4873 0.411
46.5175 0.975
46.5478 0.705
46.5781 0.124
46.6084 0.376
46.6386 0.576
46.6689 1.194
46.6992 1.082
46.7295 1.648
46.7598 1.538
46.7900 1.219
46.8203 1.422
46.8506 1.104
46.8809 1.672
46.9112 1.459
46.9414 3.017
46.9717 2.232
47.0020 3.114
47.0323 4.569
47.0626 5.816
47.0928 5.918
47.1231 5.812
47.1534 6.071
47.1837 7.736
47.2139 8.308
47.2442 9.662
47.2745 10.286
47.3048 10.287
47.3351 11.850
47.3653 13.621
47.3956 14.456
47.4259 13.937
47.4562 12.637
47.4865 12.900
47.5167 13.527
47.5470 13.010
47.5773 10.930
47.6076 10.725
47.6378 8.959
47.6681 8.547
47.6984 7.927
47.7287 5.640
47.7590 5.594
47.7892 4.611
47.8195 4.305
47.8498 3.218
47.8801 3.069
47.9104 2.920
47.9406 2.407
47.9709 3.093
48.0012 2.372
48.0315 1.496
48.0617 1.193
48.0920 1.202
48.1223 1.004
48.1526 1.067
48.1829 0.557
48.2131 0.777
48.2434 1.101
48.2737 0.279
48.3040 0.344
48.3343 0.409
48.3645 0.474
48.3948 0.644
48.4251 -0.072
48.4554 0.307
48.4856 0.895
48.5159 -0.080
48.5462 0.925
48.5765 -0.101
48.6068 0.488
48.6370 0.609
48.6673 0.157
48.6976 0.070
48.7279 -0.329
48.7582 -0.222
48.7884 0.615
48.8187 0.099
48.8490 -0.053
48.8793 0.264
48.9095 0.426
48.9398 -0.193
48.9701 -0.552
49.0004 0.340
49.0307 -0.487
49.0609 -0.271
49.0912 0.205
49.1215 0.578
49.1518 0.482
49.1821 -0.083
49.2123 -0.230
49.2426 0.196
49.2729 -0.159
49.3032 -0.096
49.3334 0.227
49.3637 -0.388
49.3940 0.353
49.4243 -0.625
49.4546 0.533
49.4848 -0.028
49.5151 -0.224
49.5454 0.362
49.5757 -0.458
49.6060 0.338
49.6362 0.873
49.6665 0.627
49.6968 0.017
49.7271 0.084
49.7574 -0.369
49.7876 0.064
49.8179 0.184
49.8482 -0.007
49.8785 0.114
49.9087 -0.650
49.9390 -0.075
49.9693 0.032
49.9996 0.139
50.0299 -0.222
50.0601 0.407
50.0904 0.619
50.1207 -0.001
50.1510 -0.100
50.1813 -0.147
50.2115 0.119
50.2418 0.125
50.2721 -0.389
50.3024 -0.081
50.3326 -0.188
50.3629 0.069
50.3932 1.004
50.4235 0.429
50.4538 0.375
50.4840 0.009
50.5143 -0.200
50.5446 0.320
50.5749 0.372
50.6052 0.111
50.6354 0.320
50.6657 0.529
50.6960 -0.511
50.7263 0.115
50.7565 0.013
50.7868 0.119
50.8171 -0.086
50.8474 -0.187
50.8777 0.233
50.9079 -0.076
50.9382 0.084
50.9685 -0.484
50.9988 0.146
51.0291 0.568
51.0593 0.104
51.0896 0.371
51.1199 0.169
51.1502 0.123
51.1804 0.078
51.2107 0.294
51.2410 0.146
51.2713 0.102
51.3016 -0.046
51.3318 0.067
51.3621 -0.392
51.3924 0.346
51.4227 0.148
51.4530 0.523
51.4832 0.221
51.5135 0.180
51.5438 0.400
51.5741 0.777
51.6043 0.216
51.6346 0.541
51.6649 -0.071
51.6952 0.776
51.7255 0.269
51.7557 0.647
51.7860 0.349
51.8163 1.093
51.8466 0.171
51.8769 0.760
51.9071 0.463
51.9374 0.375
51.9677 0.756
51.9980 0.253
52.0282 0.218
52.0585 -0.285
52.0888 -0.200
52.1191 0.615
52.1494 0.753
52.1796 0.475
52.2099 0.353
52.2402 1.377
52.2705 0.840
52.3008 0.250
52.3310 0.703
52.3613 0.219
52.3916 0.360
52.4219 1.230
52.4521 0.955
52.4824 -0.465
52.5127 0.302
52.5430 0.133
52.5733 0.172
52.6035 0.940
52.6338 0.199
52.6641 0.395
52.6944 0.123
52.7247 0.112
52.7549 0.257
52.7852 0.143
52.8155 0.237
52.8458 -0.502
52.8761 0.530
52.9063 -0.364
52.9366 0.304
52.9669 0.869
52.9972 0.028
53.0274 0.906
53.0577 -0.091
53.0880 0.319
53.1183 -0.052
53.1486 0.098
53.1788 0.457
53.2091 0.608
53.2394 -0.126
53.2697 0.390
53.3000 0.282
53.3302 -0.035
53.3605 0.222
53.3908 0.011
53.4211 0.269
53.4513 0.058
53.4816 0.108
53.5119 0.054
53.5422 -0.311
53.5725 -0.015
53.6027 -0.030
53.6330 0.163
53.6633 -0.165
53.6936 0.185
53.7239 0.432
53.7541 0.418
53.7844 0.717
53.8147 0.079
53.8450 0.014
53.8752 0.211
53.9055 0.355
53.9358 0.239
53.9661 -0.501
53.9964 0.738
54.0266 0.259
54.0569 -0.324
54.0872 0.031
54.1175 0.647
54.1478 -0.352
54.1780 0.733
54.2083 -0.108
54.2386 0.040
54.2689 0.345
54.2991 -0.131
54.3294 0.279
54.3597 0.586
54.3900 -0.150
54.4203 -0.520
54.4505 0.189
54.4808 0.065
54.5111 0.774
54.5414 0.234
54.5717 0.059
54.6019 -0.532
54.6322 0.074
54.6625 -0.152
54.6928 0.300
54.7230 0.335
54.7533 0.735
54.7836 0.093
54.8139 0.286
54.8442 -0.251
54.8744 0.567
54.9047 -0.177
54.9350 0.226
54.9653 -0.049
54.9956 -0.011
55.0258 -0.180
55.0561 -0.349
55.0864 -0.158
55.1167 -0.226
55.1469 0.071
55.1772 -0.413
55.2075 0.353
55.2378 0.234
55.2681 1.001
55.2983 -0.211
55.3286 1.130
55.3589 0.960
55.3892 0.062
55.4195 0.154
55.4497 -0.014
55.4800 0.339
55.5103 0.015
55.5406 1.150
55.5709 0.827
55.6011 0.973
55.6314 1.171
55.6617 1.318
55.6920 1.882
55.7222 1.821
55.7525 1.344
55.7828 2.169
55.8131 1.953
55.8434 1.685
55.8736 2.408
55.9039 2.714
55.9342 2.707
55.9645 3.743
55.9948 2.852
56.0250 3.472
56.0553 4.457
56.0856 5.599
56.1159 4.345
56.1461 6.945
56.1764 7.515
56.2067 7.981
56.2370 10.062
56.2673 10.425
56.2975 11.985
56.3278 12.557
56.3581 12.660
56.3884 16.149
56.4187 18.076
56.4489 17.920
56.4792 17.243
56.5095 19.379
56.5398 15.683
56.5700 15.736
56.6003 16.780
56.6306 15.012
56.6609 13.660
56.6912 13.819
56.7214 12.000
56.7517 9.452
56.7820 9.248
56.8123 7.742
56.8426 7.538
56.8728 6.919
56.9031 6.664
56.9334 4.535
56.9637 5.062
56.9939 4.131
57.0242 3.201
57.0545 3.990
57.0848 3.164
57.1151 2.599
57.1453 2.191
57.1756 2.409
57.2059 1.272
57.2362 1.595
57.2665 0.667
57.2967 1.146
57.3270 2.043
57.3573 1.325
57.3876 0.659
57.4178 0.671
57.4481 0.371
57.4784 0.019
57.5087 0.188
57.5390 0.566
57.5692 0.372
57.5995 0.490
57.6298 0.349
57.6601 0.364
57.6904 -0.038
57.7206 0.499
57.7509 0.306
57.7812 -0.250
57.8115 -0.390
57.8417 0.294
57.8720 0.561
57.9023 -0.160
57.9326 -0.048
57.9629 -0.040
57.9931 -0.344
58.0234 0.237
58.0537 0.142
58.0840 0.829
58.1143 -0.463
58.1445 0.276
58.1748 -0.130
58.2051 -0.379
58.2354 0.309
58.2656 -0.304
58.2959 -0.292
58.3262 -0.331
58.3565 -0.527
58.3868 0.789
58.4170 0.646
58.4473 0.660
58.4776 0.414
58.5079 0.273
58.5382 0.131
58.5684 -0.322
58.5987 0.215
58.6290 -0.134
58.6593 -0.325
58.6896 0.090
58.7198 -0.068
58.7501 0.817
58.7804 0.035
58.8107 -0.278
58.8409 0.660
58.8712 -0.069
58.9015 -0.068
58.9318 -0.014
58.9621 -0.325
58.9923 -0.169
59.0226 0.040
59.0529 -0.064
59.0832 0.406
59.1135 0.304
59.1437 0.358
59.1740 0.048
59.2043 0.050
59.2346 -0.207
59.2648 0.317
59.2951 0.217
59.3254 -0.040
59.3557 -0.139
59.3860 0.126
59.4162 -0.598
59.4465 -0.079
59.4768 0.127
59.5071 -0.343
59.5374 0.073
59.5676 -0.084
59.5979 0.280
59.6282 0.436
59.6585 0.541
59.6887 0.489
59.7190 -0.551
59.7493 0.231
59.7796 0.077
59.8099 -0.285
59.8401 -0.022
59.8704 -0.644
59.9007 0.401
59.9310 -0.012
59.9613 0.044
59.9915 0.048
60.0218 -0.520
60.0521 -0.010
60.0824 0.344
60.1126 -0.188
60.1429 -0.145
60.1732 -0.676
60.2035 0.252
60.2338 0.400
60.2640 -0.078
60.2943 0.331
60.3246 0.063
60.3549 -0.101
60.3852 0.048
60.4154 0.093
60.4457 -0.173
60.4760 0.133
60.5063 0.023
60.5365 0.279
60.5668 -0.247
60.5971 0.061
60.6274 -0.308
60.6577 -0.468
60.6879 0.362
60.7182 0.098
60.7485 -0.218
60.7788 -0.168
60.8091 0.350
60.8393 0.452
60.8696 -0.487
60.8999 0.449
60.9302 -0.281
60.9604 -0.333
60.9907 0.225
61.0210 1.357
61.0513 0.561
61.0816 -0.181
61.1118 0.327
61.1421 -0.259
61.1724 0.249
61.2027 -0.127
61.2330 -0.139
61.2632 -0.567
61.2935 0.360
61.3238 0.245
61.3541 -0.390
61.3844 -0.198
61.4146 0.566
61.4449 0.759
61.4752 0.587
61.5055 0.519
61.5357 -0.017
61.5660 0.489
61.5963 0.683
61.6266 0.617
61.6569 -0.334
61.6871 0.278
61.7174 0.369
61.7477 0.617
61.7780 0.866
61.8083 0.593
61.8385 0.686
61.8688 -0.158
61.8991 1.654
61.9294 1.123
61.9596 1.009
61.9899 1.104
62.0202 1.251
62.0505 0.877
62.0808 1.390
62.1110 1.538
62.1413 2.103
62.1716 2.513
62.2019 1.725
62.2322 2.343
62.2624 2.753
62.2927 3.633
62.3230 3.680
62.3533 4.768
62.3835 5.545
62.4138 5.020
62.4441 6.578
62.4744 7.200
62.5047 6.936
62.5349 10.319
62.5652 9.795
62.5955 10.627
62.6258 11.979
62.6561 12.759
62.6863 14.789
62.7166 13.122
62.7469 14.944
62.7772 14.372
62.8074 16.039
62.8377 15.519
62.8680 13.437
62.8983 12.917
62.9286 12.138
62.9588 11.463
62.9891 11.153
63.0194 8.917
63.0497 6.941
63.0800 7.362
63.1102 6.012
63.1405 4.714
63.1708 4.302
63.2011 3.526
63.2313 4.053
63.2616 2.653
63.2919 1.982
63.3222 3.134
63.3525 2.152
63.3827 1.274
63.4130 1.803
63.4433 0.561
63.4736 1.715
63.5039 1.308
63.5341 1.994
63.5644 0.598
63.5947 0.816
63.6250 0.514
63.6552 0.212
63.6855 0.640
63.7158 -0.234
63.7461 0.351
63.7764 0.207
63.8066 0.324
63.8369 0.285
63.8672 0.559
63.8975 0.416
63.9278 0.535
63.9580 -0.128
63.9883 0.512
64.0186 -0.046
64.0489 0.126
64.0791 -0.066
64.1094 -0.050
64.1397 -0.345
64.1700 -0.120
64.2003 -0.050
64.2305 -0.240
64.2608 -0.065
64.2911 0.266
64.3214 0.493
64.3517 -0.008
64.3819 0.741
64.4122 0.553
64.4425 -0.311
64.4728 0.595
64.5031 0.096
64.5333 0.274
64.5636 0.608
64.5939 0.006
64.6242 0.237
64.6544 0.104
64.6847 -0.133
64.7150 -0.317
64.7453 -0.275
64.7756 0.391
64.8058 0.434
64.8361 0.737
64.8664 0.571
64.8967 0.094
64.9270 -0.019
64.9572 0.390
64.9875 0.747
65.0178 0.271
65.0481 0.003
65.0783 0.101
65.1086 -0.114
65.1389 -0.797
65.1692 0.500
65.1995 0.287
65.2297 0.647
65.2600 -0.139
65.2903 1.003
65.3206 0.687
65.3509 -0.046
65.3811 -0.101
65.4114 -0.468
65.4417 0.130
65.4720 -0.105
65.5022 0.077
65.5325 -0.106
65.5628 0.233
65.5931 0.833
65.6234 0.443
65.6536 1.252
65.6839 0.707
65.7142 0.683
65.7445 0.868
65.7748 0.584
65.8050 0.510
65.8353 0.591
65.8656 0.882
65.8959 0.027
65.9261 1.204
65.9564 0.922
65.9867 0.537
66.0170 1.611
66.0473 1.174
66.0775 1.155
66.1078 1.136
66.1381 2.054
66.1684 1.203
66.1987 1.133
66.2289 1.636
66.2592 2.400
66.2895 2.019
66.3198 1.794
66.3500 1.830
66.3803 0.929
66.4106 2.007
66.4409 1.159
66.4712 0.884
66.5014 1.078
66.5317 0.856
66.5620 0.842
66.5923 0.412
66.6226 1.076
66.6528 0.647
66.6831 0.948
66.7134 0.415
66.7437 0.717
66.7739 0.966
66.8042 0.383
66.8345 0.893
66.8648 0.206
66.8951 0.561
66.9253 0.292
66.9556 0.648
66.9859 0.639
67.0162 0.684
67.0465 1.093
67.0767 0.825
67.1070 0.558
67.1373 1.489
67.1676 1.118
67.1978 1.112
67.2281 2.826
67.2584 1.414
67.2887 1.826
67.3190 2.395
67.3492 1.402
67.3795 2.804
67.4098 3.270
67.4401 3.111
67.4704 3.473
67.5006 4.200
67.5309 4.875
67.5612 5.812
67.5915 4.404
67.6218 5.341
67.6520 7.893
67.6823 7.321
67.7126 7.581
67.7429 9.457
67.7731 9.250
67.8034 10.606
67.8337 10.035
67.8640 10.090
67.8943 10.144
67.9245 9.314
67.9548 9.370
67.9851 7.863
68.0154 9.013
68.0457 7.768
68.0759 7.513
68.1062 6.737
68.1365 5.284
68.1668 4.821
68.1970 5.140
68.2273 5.720
68.2576 4.217
68.2879 4.745
68.3182 3.659
68.3484 3.199
68.3787 2.791
68.4090 2.175
68.4393 3.122
68.4696 1.673
68.4998 2.829
68.5301 3.048
68.5604 2.226
68.5907 1.872
68.6209 3.238
68.6512 2.938
68.6815 3.835
68.7118 2.286
68.7421 3.445
68.7723 4.291
68.8026 3.055
68.8329 3.799
68.8632 4.074
68.8935 2.943
68.9237 4.000
68.9540 3.911
68.9843 3.563
69.0146 4.152
69.0448 3.336
69.0751 4.238
69.1054 3.891
69.1357 4.534
69.1660 3.458
69.1962 3.477
69.2265 4.017
69.2568 2.734
69.2871 2.546
69.3174 2.253
69.3476 1.493
69.3779 0.836
69.4082 2.264
69.4385 1.608
69.4687 0.849
69.4990 1.028
69.5293 1.050
69.5596 1.074
69.5899 1.618
69.6201 0.704
69.6504 0.728
69.6807 -0.289
69.7110 -0.316
69.7413 0.386
69.7715 0.881
69.8018 0.386
69.8321 0.204
69.8624 -0.654
69.8926 0.310
69.9229 0.442
69.9532 -0.416
69.9835 -0.390
70.0138 0.452
70.0440 -0.008
70.0743 0.574
70.1046 -0.146
70.1349 -0.657
70.1652 0.343
70.1954 -0.428
70.2257 0.052
70.2560 0.063
70.2863 -0.446
70.3166 0.035
70.3468 -0.526
70.3771 0.112
70.4074 -0.136
70.4377 -0.122
70.4679 -0.265
70.4982 -0.198
70.5285 0.181
70.5588 0.196
70.5891 0.159
70.6193 -0.034
70.6496 0.139
70.6799 -0.209
70.7102 0.016
70.7405 -0.175
70.7707 0.467
70.8010 -0.713
70.8313 0.243
70.8616 -0.676
70.8918 -0.190
70.9221 0.088
70.9524 -0.103
70.9827 -0.137
71.0130 0.194
71.0432 0.474
71.0735 0.024
71.1038 -0.165
71.1341 0.793
71.1644 0.188
71.1946 0.626
71.2249 -0.343
71.2552 0.304
71.2855 0.378
71.3157 0.504
71.3460 0.318
71.3763 0.133
71.4066 -0.260
71.4369 -0.323
71.4671 0.448
71.4974 0.022
71.5277 0.168
71.5580 -0.153
71.5883 -0.162
71.6185 0.351
71.6488 -0.178
71.6791 0.283
71.7094 0.120
71.7396 -0.200
71.7699 0.002
71.8002 0.100
71.8305 0.563
71.8608 -0.223
71.8910 0.397
71.9213 0.548
71.9516 0.179
71.9819 -0.085
72.0122 0.172
72.0424 0.638
72.0727 0.062
72.1030 0.528
72.1333 0.526
72.1635 0.004
72.1938 0.263
72.2241 0.731
72.2544 0.574
72.2847 0.626
72.3149 0.938
72.3452 1.147
72.3755 0.680
72.4058 0.889
72.4361 0.943
72.4663 1.414
72.4966 0.635
72.5269 0.221
72.5572 0.693
72.5874 0.228
72.6177 0.648
72.6480 1.017
72.6783 0.449
72.7086 0.714
72.7388 0.355
72.7691 0.152
72.7994 0.419
72.8297 0.686
72.8600 0.276
72.8902 -0.082
72.9205 -0.022
72.9508 0.455
72.9811 0.515
73.0113 0.003
73.0416 0.168
73.0719 -0.239
73.1022 0.240
73.1325 0.042
73.1627 -0.260
73.1930 0.006
73.2233 0.012
73.2536 0.123
73.2839 0.286
73.3141 0.085
73.3444 0.301
73.3747 -0.004
73.4050 0.161
73.4353 0.534
73.4655 0.075
73.4958 0.136
73.5261 0.511
73.5564 -0.104
73.5866 -0.250
73.6169 -0.250
73.6472 0.110
73.6775 -0.154
73.7078 -0.158
73.7380 -0.005
73.7683 0.044
73.7986 -0.010
73.8289 -0.221
73.8592 0.506
73.8894 0.453
73.9197 -0.538
73.9500 -0.122
73.9803 0.659
74.0105 0.190
74.0408 0.347
74.0711 -0.121
74.1014 0.453
74.1317 -0.223
74.1619 0.248
74.1922 0.094
74.2225 0.357
74.2528 -0.213
74.2831 0.207
74.3133 -0.310
74.3436 0.162
74.3739 -0.250
74.4042 -0.250
74.4344 -0.199
74.4647 0.217
74.4950 0.217
74.5253 -0.147
74.5556 0.010
74.5858 -0.250
74.6161 -0.106
74.6464 -0.015
74.6767 0.286
74.7070 0.170
74.7372 0.106
74.7675 -0.478
74.7978 0.241
74.8281 -0.030
74.8583 0.065
74.8886 -0.101
74.9189 -0.214
74.9492 -0.223
74.9795 -0.127
75.0097 0.125
75.0400 0.221
75.0703 0.162
75.1006 -0.001
75.1309 0.669
75.1611 -0.274
75.1914 0.084
75.2217 -0.025
75.2520 0.074
75.2822 -0.191
75.3125 -0.300
75.3428 0.373
75.3731 0.214
75.4034 -0.102
75.4336 -0.157
75.4639 0.101
75.4942 0.307
75.5245 -0.424
75.5548 -0.113
75.5850 -0.218
75.6153 -0.271
75.6456 -0.068
75.6759 0.084
75.7061 -0.285
75.7364 -0.032
75.7667 0.117
75.7970 0.475
75.8273 -0.729
75.8575 -0.057
75.8878 -0.167
75.9181 0.140
75.9484 0.136
75.9787 -0.546
76.0089 -0.082
76.0392 0.070
76.0695 -0.142
76.0998 0.583
76.1301 0.424
76.1603 0.056
76.1906 -0.103
76.2209 0.416
76.2512 0.154
76.2814 0.152
76.3117 -0.005
76.3420 0.776
76.3723 0.359
76.4026 0.255
76.4328 0.776
76.4631 0.204
76.4934 0.621
76.5237 0.571
76.5540 0.521
76.5842 0.627
76.6145 0.994
76.6448 0.737
76.6751 1.313
76.7053 1.109
76.7356 1.008
76.7659 0.700
76.7962 0.445
76.8265 0.867
76.8567 0.924
76.8870 0.930
76.9173 1.510
76.9476 0.370
76.9779 1.888
77.0081 0.854
77.0384 0.497
77.0687 1.026
77.0990 1.607
77.1292 0.314
77.1595 0.480
77.1898 1.010
77.2201 0.343
77.2504 1.239
77.2806 1.146
77.3109 0.375
77.3412 -0.134
77.3715 0.295
77.4018 0.411
77.4320 0.267
77.4623 0.332
77.4926 0.450
77.5229 0.620
77.5531 0.478
77.5834 0.232
77.6137 -0.014
77.6440 -0.259
77.6743 0.049
77.7045 0.253
77.7348 0.457
77.7651 -0.015
77.7954 0.086
77.8257 0.344
77.8559 -0.127
77.8862 0.131
77.9165 -0.027
77.9468 -0.132
77.9770 0.231
78.0073 0.231
78.0376 0.178
78.0679 -0.238
78.0982 0.179
78.1284 0.180
78.1587 0.181
78.1890 -0.546
78.2193 0.029
78.2496 0.031
78.2798 0.138
78.3101 0.037
78.3404 -0.428
78.3707 0.149
78.4009 0.049
78.4312 -0.311
78.4615 0.002
78.4918 -0.100
78.5221 0.214
78.5523 -0.096
78.5826 0.115
78.6129 0.274
78.6432 -0.244
78.6735 -0.240
78.7037 0.025
78.7340 0.550
78.7643 -0.070
78.7946 0.404
78.8248 -0.164
78.8551 0.207
78.8854 0.005
78.9157 -0.093
78.9460 -0.034
78.9762 0.026
79.0065 0.294
79.0368 0.354
79.0671 0.102
79.0974 -0.045
79.1276 0.173
79.1579 0.234
79.1882 0.348
79.2185 0.046
79.2488 0.370
79.2790 0.016
79.3093 -0.233
79.3396 0.013
79.3699 0.363
79.4001 0.349
79.4304 0.335
79.4607 -0.147
79.4910 0.101
79.5213 0.140
79.5515 0.232
79.5818 0.272
79.6121 -0.051
79.6424 0.198
79.6727 0.083
79.7029 0.177
79.7332 -0.250
79.7635 -0.208
79.7938 0.459
79.8240 -0.123
79.8543 -0.080
79.8846 0.172
79.9149 0.424
79.9452 0.156
79.9754 0.252
80.0057 0.037
80.0360 -0.179
80.0663 -0.133
80.0966 -0.087
80.1268 0.324
80.1571 0.110
80.1874 0.210
80.2177 0.101
80.2479 -0.476
80.2782 0.041
80.3085 -0.067
80.3388 -0.070
80.3691 -0.073
80.3993 0.133
80.4296 0.183
80.4599 0.025
80.4902 -0.185
80.5205 0.127
80.5507 0.074
80.5810 -0.186
80.6113 0.126
80.6416 -0.290
80.6718 0.076
80.7021 0.233
80.7324 -0.234
80.7627 0.237
80.7930 0.240
80.8232 0.086
80.8535 0.402
80.8838 0.041
80.9141 0.097
80.9444 0.049
80.9746 -0.363
81.0049 -0.004
81.0352 0.095
81.0655 0.091
81.0957 -0.070
81.1260 0.135
81.1563 0.548
81.1866 0.024
81.2169 0.595
81.2471 0.801
81.2774 0.538
81.3077 0.172
81.3380 0.692
81.3683 0.066
81.3985 0.690
81.4288 0.534
81.4591 0.534
81.4894 0.014
81.5196 0.432
81.5499 0.173
81.5802 0.175
81.6105 0.125
81.6408 0.283
81.6710 0.078
81.7013 0.550
81.7316 0.449
81.7619 -0.015
81.7922 -0.063
81.8224 0.723
81.8527 -0.626
81.8830 -0.100
81.9133 0.218
81.9436 0.120
81.9738 -0.081
82.0041 -0.074
82.0344 0.193
82.0647 0.045
82.0949 -0.155
82.1252 0.530
82.1555 -0.086
82.1858 0.183
82.2161 0.193
82.2463 0.359
82.2766 -0.256
82.3069 0.067
82.3372 -0.234
82.3675 0.715
82.3977 -0.107
82.4280 0.322
82.4583 0.595
82.4886 0.399
82.5188 -0.004
82.5491 0.478
82.5794 0.544
82.6097 -0.535
82.6400 0.209
82.6702 0.536
82.7005 -0.281
82.7308 0.151
82.7611 -0.093
82.7914 -0.337
82.8216 0.138
82.8519 -0.011
82.8822 0.048
82.9125 0.421
82.9427 0.221
82.9730 0.489
83.0033 0.498
83.0336 -0.274
83.0639 -0.056
83.0941 0.475
83.1244 0.329
83.1547 0.183
83.1850 0.559
83.2153 0.102
83.2455 0.113
83.2758 0.959
83.3061 0.763
83.3364 -0.005
83.3666 0.945
83.3969 0.647
83.4272 0.296
83.4575 0.310
83.4878 0.117
83.5180 -0.233
83.5483 -0.090
83.5786 0.104
83.6089 0.560
83.6392 0.651
83.6694 -0.142
83.6997 0.523
83.7300 0.355
83.7603 -0.021
83.7905 0.593
83.8208 0.634
83.8511 0.259
83.8814 0.458
83.9117 -0.072
83.9419 0.543
83.9722 0.535
84.0025 0.162
84.0328 0.466
84.0631 0.407
84.0933 0.139
84.1236 0.288
84.1539 0.802
84.1842 0.588
84.2144 0.426
84.2447 0.004
84.2750 0.051
84.3053 0.463
84.3356 0.615
84.3658 0.350
84.3961 0.607
84.4264 0.031
84.4567 0.393
84.4870 0.443
84.5172 0.336
84.5475 0.022
84.5778 -0.188
84.6081 0.020
84.6383 0.019
84.6686 -0.137
84.6989 -0.033
84.7292 -0.137
84.7595 -0.032
84.7897 -0.135
84.8200 0.700
84.8503 -0.079
84.8806 -0.129
84.9109 0.030
84.9411 0.242
84.9714 0.141
85.0017 -0.012
85.0320 0.201
85.0623 0.310
85.0925 0.054
85.1228 0.580
85.1531 0.065
85.1834 0.019
85.2136 0.390
85.2439 0.032
85.2742 -0.221
85.3045 -0.130
85.3348 0.170
85.3650 0.835
85.3953 0.042
85.4256 0.291
85.4559 0.384
85.4862 -0.252
85.5164 0.207
85.5467 -0.012
85.5770 0.031
85.6073 -0.083
85.6375 0.482
85.6678 -0.100
85.6981 0.517
85.7284 0.197
85.7587 -0.227
85.7889 -0.078
85.8192 0.332
85.8495 0.013
85.8798 -0.149
85.9101 -0.050
85.9403 0.101
85.9706 0.148
86.0009 -0.481
86.0312 0.296
86.0614 0.084
86.0917 0.185
86.1220 -0.235
86.1523 0.023
86.1826 0.281
86.2128 0.279
86.2431 -0.399
86.2734 -0.088
86.3037 -0.089
86.3340 0.223
86.3642 0.796
86.3945 -0.037
86.4248 -0.244
86.4551 -0.143
86.4853 -0.041
86.5156 -0.199
86.5459 0.165
86.5762 0.111
86.6065 -0.202
86.6367 0.163
86.6670 0.215
86.6973 -0.358
86.7276 -0.097
86.7579 -0.147
86.7881 -0.198
86.8184 0.273
86.8487 0.223
86.8790 0.017
86.9092 0.281
86.9395 -0.237
86.9698 -0.441
87.0001 0.281
87.0304 0.222
87.0606 0.267
87.0909 0.261
87.1212 0.359
87.1515 -0.063
87.1818 -0.224
87.2120 0.396
87.2423 0.079
87.2726 -0.237
87.3029 0.280
87.3331 0.329
87.3634 0.691
87.3937 -0.041
87.4240 0.686
87.4543 -0.461
87.4845 -0.150
87.5148 -0.255
87.5451 0.317
87.5754 0.369
87.6057 0.265
87.6359 -0.047
87.6662 0.214
87.6965 -0.201
87.7268 0.113
87.7571 -0.250
87.7873 -0.103
87.8176 -0.268
87.8479 0.400
87.8782 0.392
87.9084 0.749
87.9387 0.116
87.9690 0.005
87.9993 0.519
88.0296 0.408
88.0598 -0.119
88.0901 0.345
88.1204 0.079
88.1507 0.126
88.1810 0.694
88.2112 0.378
88.2415 -0.147
88.2718 0.631
88.3021 0.211
88.3323 -0.260
88.3626 -0.330
88.3929 0.383
88.4232 -0.050
88.4535 -0.014
88.4837 0.074
88.5140 0.059
88.5443 -0.164
88.5746 0.082
88.6049 0.120
88.6351 -0.103
88.6654 -0.168
88.6957 0.079
88.7260 0.587
88.7562 0.158
88.7865 -0.218
88.8168 0.187
88.8471 0.749
88.8774 0.321
88.9076 0.467
88.9379 0.353
88.9682 0.135
88.9985 0.646
89.0288 0.325
89.0590 0.733
89.0893 0.828
89.1196 1.029
89.1499 0.761
89.1801 0.962
89.2104 1.424
89.2407 0.741
89.2710 1.620
89.3013 1.093
89.3315 1.244
89.3618 1.604
89.3921 2.381
89.4224 2.429
89.4527 1.331
89.4829 1.848
89.5132 2.627
89.5435 2.728
89.5738 2.153
89.6040 1.578
89.6343 2.045
89.6646 1.836
89.6949 1.731
89.7252 1.053
89.7554 1.365
89.7857 1.678
89.8160 1.783
89.8463 2.096
89.8766 1.160
89.9068 0.693
89.9371 0.799
89.9674 1.323
89.9977 1.221
90.0279 1.381
90.0582 0.291
90.0885 0.451
90.1188 -0.066
90.1491 0.199
90.1793 0.152
90.2096 0.106
90.2399 0.320
90.2702 0.222
90.3005 0.593
90.3307 0.079
90.3610 0.555
90.3913 -0.062
90.4216 0.102
90.4518 0.267
90.4821 -0.037
90.5124 0.389
90.5427 0.034
90.5730 -0.217
90.6032 -0.103
90.6335 -0.352
90.6638 0.700
90.6941 -0.018
90.7244 0.254
90.7546 -0.411
90.7849 0.331
90.8152 0.031
90.8455 0.253
90.8758 0.058
90.9060 0.020
90.9363 0.138
90.9666 -0.211
90.9969 -0.092
91.0271 -0.441
91.0574 0.132
91.0877 -0.128
91.1180 0.081
91.1483 0.030
91.1785 0.032
91.2088 0.190
91.2391 -0.224
91.2694 0.612
91.2997 0.042
91.3299 0.254
91.3602 -0.211
91.3905 -0.311
91.4208 0.248
91.4510 0.234
91.4813 0.169
91.5116 -0.104
91.5419 -0.013
91.5722 0.340
91.6024 0.016
91.6327 -0.204
91.6630 0.306
91.6933 0.035
91.7236 0.337
91.7538 0.327
91.7841 -0.516
91.8144 0.204
91.8447 -0.169
91.8749 -0.125
91.9052 0.127
91.9355 0.380
91.9658 -0.096
91.9961 -0.624
92.0263 0.152
92.0566 -0.166
92.0869 -0.170
92.1172 0.190
92.1475 0.082
92.1777 0.755
92.2080 0.127
92.2383 0.281
92.2686 -0.659
92.2988 0.537
92.3291 0.326
92.3594 0.117
92.3897 0.064
92.4200 0.532
92.4502 0.167
92.4805 -0.197
92.5108 0.480
92.5411 -0.040
92.5714 0.691
92.6016 0.328
92.6319 0.955
92.6622 0.749
92.6925 0.699
92.7227 0.338
92.7530 0.497
92.7833 0.345
92.8136 0.557
92.8439 0.822
92.8741 0.827
92.9044 0.312
92.9347 0.995
92.9650 -0.093
92.9953 0.642
93.0255 0.805
93.0558 1.073
93.0861 0.403
93.1164 0.776
93.1466 0.628
93.1769 0.168
93.2072 0.333
93.2375 0.342
93.2678 0.352
93.2980 0.102
93.3283 0.477
93.3586 0.488
93.3889 -0.022
93.4192 -0.062
93.4494 0.314
93.4797 0.118
93.5100 -0.182
93.5403 0.352
93.5706 -0.416
93.6008 0.223
93.6311 0.602
93.6614 0.408
93.6917 0.215
93.7219 0.230
93.7522 0.037
93.7825 -0.259
93.8128 -0.018
93.8431 0.172
93.8733 -0.055
93.9036 0.239
93.9339 0.118
93.9642 0.100
93.9945 -0.229
94.0247 0.223
94.0550 0.155
94.0853 0.035
94.1156 0.176
94.1458 0.473
94.1761 0.042
94.2064 0.444
94.2367 -0.091
94.2670 0.573
94.2972 -0.170
94.3275 -0.443
94.3578 0.326
94.3881 0.210
94.4184 0.406
94.4486 0.343
94.4789 0.436
94.5092 0.477
94.5395 0.519
94.5697 0.978
94.6000 1.125
94.6303 0.543
94.6606 0.273
94.6909 0.682
94.7211 0.309
94.7514 1.135
94.7817 0.815
94.8120 0.287
94.8423 1.218
94.8725 1.055
94.9028 1.154
94.9331 1.044
94.9634 1.352
94.9936 1.607
95.0239 1.395
95.0542 1.911
95.0845 1.804
95.1148 1.957
95.1450 1.433
95.1753 1.483
95.2056 1.689
95.2359 1.739
95.2662 2.258
95.2964 1.685
95.3267 2.621
95.3570 1.527
95.3873 1.840
95.4175 2.361
95.4478 0.852
95.4781 1.478
95.5084 1.688
95.5387 1.794
95.5689 0.911
95.5992 1.278
95.6295 0.291
95.6598 0.659
95.6901 1.236
95.7203 1.084
95.7506 0.724
95.7809 1.354
95.8112 0.422
95.8414 -0.198
95.8717 0.485
95.9020 0.440
95.9323 0.446
95.9626 0.297
95.9928 0.721
96.0231 0.104
96.0534 -0.200
96.0837 0.069
96.1140 -0.183
96.1442 -0.017
96.1745 0.409
96.2048 0.367
96.2351 0.065
96.2653 0.180
96.2956 -0.069
96.3259 0.620
96.3562 0.111
96.3865 1.269
96.4167 0.031
96.4470 -0.060
96.4773 0.266
96.5076 -0.085
96.5379 0.034
96.5681 -0.108
96.5984 -0.562
96.6287 0.235
96.6590 -0.271
96.6893 -0.204
96.7195 -0.242
96.7498 0.815
96.7801 0.205
96.8104 0.116
96.8406 0.393
96.8709 0.513
96.9012 0.269
96.9315 -0.234
96.9618 -0.009
96.9920 -0.095
97.0223 -0.285
97.0526 0.120
97.0829 0.213
97.1132 0.046
97.1434 0.452
97.1737 -0.235
97.2040 -0.193
97.2343 0.319
97.2645 0.206
97.2948 -0.063
97.3251 0.501
97.3554 -0.079
97.3857 0.017
97.4159 0.479
97.4462 -0.153
97.4765 0.049
97.5068 0.460
97.5371 0.298
97.5673 0.084
97.5976 -0.285
97.6279 -0.035
97.6582 0.632
97.6884 0.154
97.7187 0.457
97.7490 0.084
97.7793 1.065
97.8096 0.016
97.8398 -0.096
97.8701 0.678
97.9004 0.098
97.9307 0.508
97.9610 0.658
97.9912 0.027
98.0215 0.074
98.0518 0.538
98.0821 0.533
98.1123 0.477
98.1426 0.733
98.1729 0.261
98.2032 0.258
98.2335 0.411
98.2637 0.981
98.2940 0.615
98.3243 1.030
98.3546 1.080
98.3849 1.027
98.4151 1.860
98.4454 0.818
98.4757 1.235
98.5060 1.756
98.5362 1.445
98.5665 1.133
98.5968 0.718
98.6271 0.564
98.6574 0.827
98.6876 0.517
98.7179 0.781
98.7482 1.149
98.7785 1.048
98.8088 0.375
98.8390 0.484
98.8693 0.489
98.8996 0.234
98.9299 0.760
98.9601 0.766
98.9904 0.669
99.0207 0.780
99.0510 0.318
99.0813 0.482
99.1115 0.177
99.1418 0.915
99.1721 0.194
99.2024 0.463
99.2327 0.160
99.2629 0.014
99.2932 0.180
99.3235 -0.018
99.3538 0.045
99.3841 0.369
99.4143 0.224
99.4446 0.445
99.4749 -0.116
99.5052 0.834
99.5354 0.274
99.5657 -0.337
99.5960 -0.235
99.6263 0.440
99.6566 0.178
99.6868 0.020
99.7171 0.436
99.7474 0.279
99.7777 -0.346
99.8080 0.071
99.8382 0.280
99.8685 -0.032
99.8988 0.282
99.9291 0.284
99.9593 -0.026
99.9896 0.236
100.0199 -0.125
100.0502 -0.122
100.0805 0.142
100.1107 0.198
100.1410 0.254
100.1713 -0.210
100.2016 0.056
100.2319 0.061
100.2621 -0.142
100.2924 -0.083
100.3227 -0.389
100.3530 0.127
100.3832 0.019
100.4135 0.328
100.4438 0.429
100.4741 -0.095
100.5044 0.007
100.5346 -0.100
100.5649 0.263
100.5952 -0.103
100.6255 0.000
100.6558 -0.052
100.6860 0.051
100.7163 -0.417
100.7466 0.104
100.7769 -0.208
100.8071 0.106
100.8374 0.003
100.8677 -0.255
100.8980 -0.158
100.9283 -0.217
100.9585 0.246
100.9888 -0.125
101.0191 -0.182
101.0494 0.125
101.0797 0.120
101.1099 0.064
101.1402 0.164
101.1705 -0.048
101.2008 0.209
101.2310 0.206
101.2613 -0.109
101.2916 0.879
101.3219 -0.113
101.3522 0.198
101.3824 0.197
101.4127 0.353
101.4430 0.404
101.4733 -0.064
101.5036 0.196
101.5338 -0.115
101.5641 0.146
101.5944 0.044
101.6247 0.358
101.6549 0.256
101.6852 -0.210
101.7155 -0.363
101.7458 0.253
101.7761 -0.328
101.8063 0.289
101.8366 0.386
101.8669 0.379
101.8972 0.111
101.9275 -0.260
101.9577 0.255
101.9880 -0.063
102.0183 -0.120
102.0486 -0.333
102.0788 0.235
102.1091 0.647
102.1394 -0.086
102.1697 -0.089
102.2000 0.845
102.2302 -0.303
102.2605 0.163
102.2908 -0.255
102.3211 0.108
102.3514 0.732
102.3816 0.314
102.4119 0.782
102.4422 -0.155
102.4725 -0.520
102.5028 0.194
102.5330 0.074
102.5633 -0.097
102.5936 0.305
102.6239 0.551
102.6541 1.214
102.6844 0.420
102.7147 0.250
102.7450 0.915
102.7753 0.642
102.8055 0.317
102.8358 0.618
102.8661 0.919
102.8964 0.752
102.9267 1.002
102.9569 1.044
102.9872 0.722
103.0175 0.608
103.0478 0.391
103.0780 0.174
103.1083 1.103
103.1386 1.043
103.1689 0.306
103.1992 0.559
103.2294 0.240
103.2597 0.025
103.2900 0.488
103.3203 0.638
103.3506 0.528
103.3808 0.159
103.4111 0.050
103.4414 0.098
103.4717 0.563
103.5019 0.195
103.5322 0.400
103.5625 0.762
103.5928 0.030
103.6231 0.549
103.6533 0.651
103.6836 1.171
103.7139 0.649
103.7442 0.023
103.7745 0.232
103.8047 0.492
103.8350 0.753
103.8653 1.119
103.8956 1.016
103.9258 1.538
103.9561 1.019
103.9864 1.126
104.0167 0.972
104.0470 1.548
104.0772 1.083
104.1075 1.452
104.1378 1.091
104.1681 1.877
104.1984 1.674
104.2286 1.210
104.2589 1.633
104.2892 0.649
104.3195 1.072
104.3497 1.496
104.3800 0.409
104.4103 0.781
104.4406 0.321
104.4709 1.214
104.5011 0.598
104.5314 0.555
104.5617 0.825
104.5920 0.887
104.6223 0.949
104.6525 0.386
104.6828 1.127
104.7131 0.409
104.7434 0.472
104.7736 0.693
104.8039 -0.285
104.8342 -0.220
104.8645 0.887
104.8948 -0.037
104.9250 -0.075
104.9553 -0.009
104.9856 0.839
105.0159 0.281
105.0462 0.505
105.0764 0.208
105.1067 0.016
105.1370 -0.020
105.1673 -0.159
105.1975 1.108
105.2278 0.032
105.2581 0.518
105.2884 0.120
105.3187 -0.018
105.3489 -0.311
105.3792 0.063
105.4095 0.281
105.4398 0.135
105.4701 0.406
105.5003 0.313
105.5306 0.168
105.5609 0.701
105.5912 -0.068
105.6215 0.152
105.6517 0.009
105.6820 0.074
105.7123 0.036
105.7426 0.727
105.7728 0.324
105.8031 -0.025
105.8334 -0.219
105.8637 0.161
105.8940 0.646
105.9242 -0.015
105.9545 -0.259
105.9848 0.040
106.0151 0.755
106.0454 1.523
106.0756 0.052
106.1059 0.300
106.1362 0.340
106.1665 0.224
106.1967 -0.047
106.2270 0.515
106.2573 0.348
106.2876 -0.027
106.3179 0.484
106.3481 0.058
106.3784 0.309
106.4087 0.404
106.4390 0.292
106.4693 0.232
106.4995 -0.401
106.5298 -0.096
106.5601 0.575
106.5904 -0.005
106.6206 0.197
106.6509 0.244
106.6812 0.603
106.7115 0.025
106.7418 -0.084
106.7720 0.537
106.8023 -0.196
106.8326 -0.044
106.8629 -0.255
106.8932 -0.158
106.9234 0.252
106.9537 -0.015
106.9840 0.031
107.0143 0.025
107.0445 0.176
107.0748 0.223
107.1051 -0.198
107.1354 0.215
107.1657 0.315
107.1959 0.676
107.2262 0.465
107.2565 0.410
107.2868 0.303
107.3171 -0.167
107.3473 0.196
107.3776 -0.014
107.4079 0.350
107.4382 0.193
107.4684 0.089
107.4987 0.141
107.5290 -0.119
107.5593 0.247
107.5896 -0.012
107.6198 0.250
107.6501 -0.061
107.6804 0.515
107.7107 -0.159
107.7410 -0.260
107.7712 0.053
107.8015 0.211
107.8318 0.056
107.8621 0.527
107.8923 0.113
107.9226 -0.249
107.9529 0.223
107.9832 -0.033
108.0135 -0.133
108.0437 -0.181
108.0740 0.292
108.1043 -0.223
108.1346 0.511
108.1649 -0.004
108.1951 -0.206
108.2254 0.322
108.2557 0.172
108.2860 -0.081
108.3163 0.344
108.3465 -0.065
108.3768 0.673
108.4071 0.109
108.4374 0.535
108.4676 0.232
108.4979 0.241
108.5282 0.043
108.5585 0.210
108.5888 -0.247
108.6190 -0.132
108.6493 0.140
108.6796 0.153
108.7099 -0.043
108.7402 -0.239
108.7704 -0.050
108.8007 0.607
108.8310 0.327
108.8613 -0.369
108.8915 0.133
108.9218 -0.250
108.9521 -0.215
108.9824 0.029
109.0127 0.065
109.0429 -0.160
109.0732 0.241
109.1035 0.226
109.1338 0.316
109.1641 -0.064
109.1943 -0.234
109.2246 -0.091
109.2549 0.208
109.2852 -0.066
109.3154 -0.078
109.3457 -0.091
109.3760 0.054
109.4063 0.251
109.4366 0.083
109.4668 0.281
109.4971 -0.198
109.5274 0.104
109.5577 0.407
109.5880 -0.175
109.6182 0.180
109.6485 -0.089
109.6788 -0.097
109.7091 0.468
109.7393 -0.164
109.7696 0.141
109.7999 0.186
109.8302 0.493
109.8605 0.487
109.8907 -0.092
109.9210 0.111
109.9513 0.263
109.9816 0.414
110.0119 0.514
110.0421 0.406
110.0724 -0.170
110.1027 -0.069
110.1330 0.866
110.1632 0.551
110.1935 0.185
110.2238 0.756
110.2541 0.599
110.2844 0.338
110.3146 0.650
110.3449 1.379
110.3752 0.129
110.4055 0.442
110.4358 0.183
110.4660 0.497
110.4963 0.342
110.5266 1.022
110.5569 1.284
110.5871 0.350
110.6174 0.614
110.6477 0.096
110.6780 0.309
110.7083 0.417
110.7385 0.214
110.7688 0.792
110.7991 0.172
110.8294 -0.395
110.8597 0.393
110.8899 0.087
110.9202 0.510
110.9505 -0.159
110.9808 0.213
111.0110 0.742
111.0413 0.281
111.0716 0.082
111.1019 0.820
111.1322 0.205
111.1624 0.163
111.1927 0.225
111.2230 0.079
111.2533 0.142
111.2836 0.518
111.3138 -0.251
111.3441 -0.135
111.3744 -0.070
111.4047 -0.266
111.4350 0.049
111.4652 0.103
111.4955 0.626
111.5258 -0.101
111.5561 0.267
111.5863 0.114
111.6166 -0.090
111.6469 -0.138
111.6772 -0.030
111.7075 -0.337
111.7377 0.083
111.7680 -0.017
111.7983 0.195
111.8286 0.096
111.8589 -0.107
111.8891 0.054
111.9194 -0.252
111.9497 0.118
111.9800 -0.344
112.0102 0.027
112.0405 -0.017
112.0708 0.147
112.1011 0.415
112.1314 0.163
112.1616 0.224
112.1919 0.597
112.2222 0.086
112.2525 0.148
112.2828 0.575
112.3130 0.065
112.3433 0.388
112.3736 0.035
112.4039 0.515
112.4341 0.840
112.4644 0.123
112.4947 0.396
112.5250 0.774
112.5553 0.215
112.5855 0.281
112.6158 0.035
112.6461 -0.159
112.6764 0.064
112.7067 -0.233
112.7369 -0.294
112.7672 0.478
112.7975 0.053
112.8278 0.305
112.8580 0.297
112.8883 -0.075
112.9186 0.491
112.9489 0.432
112.9792 0.062
113.0094 0.368
113.0397 0.362
113.0700 0.357
113.1003 -0.064
113.1306 0.244
113.1608 0.031
113.1911 0.340
113.2214 0.753
113.2517 -0.083
113.2819 0.175
113.3122 0.850
113.3425 -0.194
113.3728 0.794
113.4031 -0.040
113.4333 0.167
113.4636 0.167
113.4939 0.167
113.5242 -0.354
113.5545 -0.092
113.5847 0.221
113.6150 -0.038
113.6453 -0.244
113.6756 -0.087
113.7058 0.279
113.7361 -0.344
113.7664 0.074
113.7967 0.025
113.8270 -0.285
113.8572 0.013
113.8875 0.415
113.9178 0.089
113.9481 0.127
113.9784 0.218
114.0086 0.205
114.0389 -0.276
114.0692 0.233
114.0995 0.117
114.1298 -0.103
114.1600 0.250
114.1903 -0.542
114.2206 0.021
114.2509 -0.197
114.2811 0.522
114.3114 -0.112
114.3417 -0.225
114.3720 -0.494
114.4023 0.280
114.4325 0.272
114.4628 -0.204
114.4931 -0.107
114.5234 0.199
114.5537 -0.120
114.5839 -0.230
114.6142 0.130
114.6445 0.489
114.6748 -0.089
114.7050 -0.093
114.7353 -0.305
114.7656 0.264
114.7959 0.261
114.8262 0.206
114.8564 0.568
114.8867 -0.007
114.9170 0.147
114.9473 -0.271
114.9776 -0.127
115.0078 -0.295
115.0381 0.683
115.0684 -0.057
115.0987 0.401
115.1289 0.547
115.1592 0.433
115.1895 0.111
115.2198 0.674
115.2501 -0.428
115.2803 -0.280
115.3106 0.435
115.3409 0.266
115.3712 -0.112
115.4015 0.709
115.4317 0.645
115.4620 0.477
115.4923 0.466
115.5226 0.455
115.5528 -0.494
115.5831 0.746
115.6134 0.736
115.6437 1.143
115.6740 0.093
115.7042 0.709
115.7345 0.700
115.7648 0.640
115.7951 1.674
115.8254 0.782
115.8556 0.670
115.8859 1.237
115.9162 0.710
115.9465 0.964
115.9767 1.011
116.0070 0.850
116.0373 1.418
116.0676 1.674
116.0979 0.993
116.1281 0.989
116.1584 1.194
116.1887 1.035
116.2190 1.866
116.2493 0.927
116.2795 1.289
116.3098 0.871
116.3401 1.235
116.3704 1.495
116.4006 1.338
116.4309 1.130
116.4612 1.495
116.4915 1.235
116.5218 1.549
116.5520 1.082
116.5823 1.813
116.6126 1.347
116.6429 1.037
116.6732 1.248
116.7034 0.939
116.7337 0.422
116.7640 0.791
116.7943 0.795
116.8245 0.956
116.8548 1.170
116.8851 0.707
116.9154 0.817
116.9457 0.042
116.9759 0.466
117.0062 0.160
117.0365 0.897
117.0668 0.019
117.0971 0.757
117.1273 0.609
117.1576 1.035
117.1879 -0.414
117.2182 0.168
117.2485 0.126
117.2787 0.606
117.3090 -0.373
117.3393 0.888
117.3696 0.379
117.3998 0.182
117.4301 0.247
117.4604 0.051
117.4907 0.377
117.5210 -0.079
117.5512 0.091
117.5815 -0.520
117.6118 -0.043
117.6421 -0.190
117.6724 0.027
117.7026 0.296
117.7329 0.879
117.7632 -0.465
117.7935 1.160
117.8237 0.337
117.8540 0.348
117.8843 0.151
117.9146 -0.045
117.9449 -0.241
117.9751 0.553
118.0054 0.618
118.0357 0.006
118.0660 0.228
118.0963 0.294
118.1265 0.048
118.1568 -0.146
118.1871 0.286
118.2174 0.146
118.2476 -0.255
118.2779 -0.366
118.3082 0.461
118.3385 -0.014
118.3688 0.502
118.3990 0.288
118.4293 -0.290
118.4596 0.279
118.4899 -0.090
118.5202 -0.198
118.5504 0.007
118.5807 0.109
118.6110 -0.050
118.6413 0.000
118.6715 0.258
118.7018 0.569
118.7321 -0.161
118.7624 0.255
118.7927 -0.162
118.8229 0.255
118.8532 -0.422
118.8835 0.151
118.9138 -0.212
118.9441 0.050
118.9743 -0.261
119.0046 0.366
119.0349 0.161
119.0652 -0.201
119.0954 0.011
119.1257 -0.038
119.1560 0.175
119.1863 -0.238
119.2166 0.028
119.2468 -0.280
119.2771 0.403
119.3074 0.044
119.3377 -0.001
119.3680 -0.255
119.3982 0.429
119.4285 0.020
119.4588 -0.441
119.4891 0.030
119.5193 -0.124
119.5496 -0.381
119.5799 0.352
119.6102 0.043
119.6405 -0.317
119.6707 0.104
119.7010 -0.099
119.7313 -0.250
119.7616 -0.363
119.7919 0.238
119.8221 -0.306
119.8524 0.088
119.8827 0.170
119.9130 -0.216
119.9433 0.022
119.9735 -0.520
120.0038 0.000
