'Id: "" Comment: "" Operator: "Lab Manager" Anode: "Cu" Scantype: "Locked Coupled" TimePerStep: "19.2" X: "9999" Y: "9999" Z: "9999" 
10.0015 0.000
10.0318 -0.466
10.0620 -0.420
10.0923 -0.426
10.1226 -0.520
10.1529 0.585
10.1832 0.649
10.2134 1.026
10.2437 -0.108
10.2740 -0.095
10.3043 0.178
10.3346 -0.017
10.3648 -0.420
10.3951 -0.110
10.4254 0.356
10.4557 0.249
10.4859 0.716
10.5162 0.766
10.5465 0.088
10.5768 0.503
10.6071 -0.122
10.6373 0.867
10.6676 -0.226
10.6979 0.295
10.7282 0.764
10.7585 0.453
10.7887 0.507
10.8190 0.456
10.8493 1.761
10.8796 1.295
10.9098 1.089
10.9401 2.030
10.9704 2.502
11.0007 5.267
11.0310 5.532
11.0612 7.203
11.0915 6.271
11.1218 5.286
11.1521 4.563
11.1824 3.007
11.2126 1.867
11.2429 2.916
11.2732 0.631
11.3035 0.170
11.3337 0.595
11.3640 1.228
11.3943 1.549
11.4246 0.673
11.4549 0.890
11.4851 -0.558
11.5154 0.233
11.5457 0.660
11.5760 0.827
11.6063 0.317
11.6365 0.329
11.6668 1.018
11.6971 0.665
11.7274 0.626
11.7577 -0.611
11.7879 -0.442
11.8182 0.655
11.8485 -0.018
11.8788 -0.171
11.9090 -0.062
11.9393 0.307
11.9696 -0.573
11.9999 0.005
12.0302 -0.406
12.0604 0.538
12.0907 0.701
12.1210 0.083
12.1513 0.246
12.1816 0.254
12.2118 -0.832
12.2421 0.686
12.2724 -1.284
12.3027 -0.234
12.3329 0.140
12.3632 -0.319
12.3935 -0.100
12.4238 0.014
12.4541 0.077
12.4843 -0.224
12.5146 0.412
12.5449 -0.878
12.5752 0.384
12.6055 -0.176
12.6357 -0.007
12.6660 -0.567
12.6963 0.540
12.7266 -0.748
12.7568 -0.109
12.7871 0.114
12.8174 0.859
12.8477 -0.376
12.8780 -0.152
12.9082 0.124
12.9385 -0.120
12.9688 0.106
12.9991 -0.346
13.0294 0.453
13.0596 -0.207
13.0899 -0.084
13.1202 0.351
13.1505 -0.672
13.1807 0.858
13.2110 0.461
13.2413 -0.144
13.2716 -0.072
13.3019 -0.416
13.3321 0.101
13.3624 -0.267
13.3927 0.406
13.4230 0.456
13.4533 1.078
13.4835 0.138
13.5138 1.126
13.5441 -0.230
13.5744 -0.023
13.6046 -0.284
13.6349 0.340
13.6652 0.861
13.6955 -0.181
13.7258 0.185
13.7560 -0.075
13.7863 0.760
13.8166 -0.801
13.8469 0.190
13.8772 0.193
13.9074 0.404
13.9377 -0.479
13.9680 0.618
13.9983 -0.107
14.0285 -0.624
14.0588 0.266
14.0891 -0.042
14.1194 0.328
14.1497 0.021
14.1799 -0.442
14.2102 0.345
14.2405 0.040
14.2708 0.515
14.3011 0.210
14.3313 -0.251
14.3616 0.382
14.3919 0.026
14.4222 0.086
14.4524 0.408
14.4827 -0.051
14.5130 0.167
14.5433 0.021
14.5736 0.708
14.6038 -0.062
14.6341 -0.468
14.6644 0.096
14.6947 0.139
14.7250 -0.650
14.7552 -0.086
14.7855 0.218
14.8158 0.105
14.8461 0.410
14.8764 0.038
14.9066 -0.022
14.9369 0.128
14.9672 -0.347
14.9975 -0.093
15.0277 0.214
15.0580 -0.261
15.0883 0.255
15.1186 0.407
15.1489 -0.327
15.1791 0.502
15.2094 0.134
15.2397 -0.390
15.2700 0.336
15.3003 0.282
15.3305 0.748
15.3608 -0.243
15.3911 0.536
15.4214 -0.663
15.4516 -0.247
15.4819 0.065
15.5122 0.325
15.5425 -0.195
15.5728 0.274
15.6030 0.483
15.6333 -0.661
15.6636 0.174
15.6939 0.488
15.7242 0.178
15.7544 -0.444
15.7847 0.653
15.8150 -0.229
15.8453 -0.642
15.8755 0.664
15.9058 0.200
15.9361 -0.264
15.9664 -0.415
15.9967 0.424
16.0269 0.273
16.0572 0.280
16.0875 0.234
16.1178 0.293
16.1481 0.197
16.1783 -0.212
16.2086 0.004
16.2389 0.377
16.2692 -0.291
16.2994 1.020
16.3297 0.404
16.3600 0.310
16.3903 -0.357
16.4206 -0.296
16.4508 0.443
16.4811 0.973
16.5114 0.202
16.5417 0.160
16.5720 0.223
16.6022 0.338
16.6325 0.454
16.6628 -0.836
16.6931 0.166
16.7233 0.595
16.7536 0.712
16.7839 -0.108
16.8142 0.062
16.8445 0.232
16.8747 0.246
16.9050 0.209
16.9353 -0.505
16.9656 0.968
16.9959 0.203
17.0261 -0.250
17.0564 1.016
17.0867 0.356
17.1170 0.946
17.1472 0.183
17.1775 0.669
17.2078 0.479
17.2381 0.862
17.2684 0.673
17.2986 0.588
17.3289 0.399
17.3592 0.523
17.3895 -0.758
17.4198 -0.321
17.4500 0.551
17.4803 1.266
17.5106 -0.205
17.5409 0.407
17.5712 0.499
17.6014 0.123
17.6317 0.371
17.6620 0.516
17.6923 0.037
17.7225 0.026
17.7528 0.485
17.7831 0.319
17.8134 0.726
17.8437 0.456
17.8739 0.604
17.9042 0.335
17.9345 0.900
17.9648 -0.514
17.9951 0.260
18.0253 -0.060
18.0556 0.038
18.0859 0.396
18.1162 0.546
18.1464 0.072
18.1767 -0.715
18.2070 0.322
18.2373 -0.412
18.2676 0.470
18.2978 -0.211
18.3281 0.202
18.3584 0.459
18.3887 0.457
18.4190 0.194
18.4492 0.348
18.4795 0.763
18.5098 0.085
18.5401 0.604
18.5703 0.656
18.6006 1.593
18.6309 -0.074
18.6612 -0.177
18.6915 0.292
18.7217 0.241
18.7520 0.243
18.7823 -0.797
18.8126 0.872
18.8429 -0.167
18.8731 -0.008
18.9034 0.047
18.9337 0.728
18.9640 0.211
18.9942 0.007
19.0245 -0.196
19.0548 -0.035
19.0851 0.699
19.1154 0.757
19.1456 0.451
19.1759 0.249
19.2062 -0.109
19.2365 0.211
19.2668 0.583
19.2970 0.331
19.3273 0.339
19.3576 0.608
19.3879 0.148
19.4181 -0.624
19.4484 -0.110
19.4787 0.821
19.5090 -0.071
19.5393 0.184
19.5695 0.387
19.5998 0.590
19.6301 0.273
19.6604 -0.305
19.6907 0.264
19.7209 0.625
19.7512 -0.212
19.7815 -0.267
19.8118 0.460
19.8420 0.145
19.8723 0.195
19.9026 -0.067
19.9329 0.661
19.9632 0.347
19.9934 0.451
20.0237 0.243
20.0540 -0.486
20.0843 0.139
20.1146 0.296
20.1448 -0.380
20.1751 0.247
20.2054 -0.116
20.2357 0.408
20.2659 0.514
20.2962 -0.003
20.3265 -0.104
20.3568 -1.038
20.3871 0.424
20.4173 -0.300
20.4476 0.486
20.4779 -0.343
20.5082 -0.077
20.5385 -0.592
20.5687 0.508
20.5990 -0.162
20.6293 -0.468
20.6596 0.217
20.6899 -0.296
20.7201 0.911
20.7504 0.920
20.7807 0.096
20.8110 -0.364
20.8412 -0.053
20.8715 0.310
20.9018 -0.055
20.9321 0.153
20.9624 -0.056
20.9926 0.204
21.0229 -0.316
21.0532 -0.263
21.0835 0.467
21.1138 0.000
21.1440 -0.311
21.1743 0.264
21.2046 0.475
21.2349 1.103
21.2651 0.533
21.2954 -0.244
21.3257 0.593
21.3560 1.014
21.3863 -0.336
21.4165 -0.226
21.4468 0.248
21.4771 0.254
21.5074 0.989
21.5377 0.579
21.5679 0.169
21.5982 -0.085
21.6285 -0.390
21.6588 0.120
21.6890 0.317
21.7193 0.307
21.7496 0.088
21.7799 0.599
21.8102 0.433
21.8404 0.789
21.8707 0.259
21.9010 -0.062
21.9313 0.138
21.9616 1.537
21.9918 0.592
22.0221 -0.457
22.0524 0.005
22.0827 0.259
22.1129 -0.319
22.1432 -0.065
22.1735 0.607
22.2038 0.081
22.2341 0.337
22.2643 0.073
22.2946 0.017
22.3249 0.117
22.3552 -0.198
22.3855 0.424
22.4157 -0.204
22.4460 -0.101
22.4763 -0.468
22.5066 0.154
22.5368 -0.005
22.5671 -0.112
22.5974 0.041
22.6277 0.144
22.6580 0.402
22.6882 0.089
22.7185 -0.173
22.7488 0.191
22.7791 0.035
22.8094 0.347
22.8396 -0.069
22.8699 -0.276
22.9002 -0.223
22.9305 -0.222
22.9607 -0.220
22.9910 0.251
23.0213 0.254
23.0516 0.049
23.0819 -0.469
23.1121 0.264
23.1424 0.580
23.1727 0.272
23.2030 0.121
23.2333 0.386
23.2635 -0.494
23.2938 -0.333
23.3241 0.135
23.3544 -0.282
23.3846 0.239
23.4149 0.968
23.4452 -0.124
23.4755 0.189
23.5058 0.295
23.5360 -0.120
23.5663 0.195
23.5966 0.250
23.6269 -0.216
23.6572 -0.056
23.6874 -0.209
23.7177 0.524
23.7480 -0.565
23.7783 0.169
23.8086 -0.139
23.8388 0.232
23.8691 0.185
23.8994 -0.329
23.9297 -0.178
23.9599 0.390
23.9902 -0.239
24.0205 -0.034
24.0508 -0.090
24.0811 0.272
24.1113 0.425
24.1416 0.214
24.1719 0.837
24.2022 -0.466
24.2325 -0.676
24.2627 0.521
24.2930 -0.105
24.3233 0.155
24.3536 0.155
24.3838 0.103
24.4141 -0.052
24.4444 0.834
24.4747 0.263
24.5050 0.838
24.5352 0.423
24.5655 0.478
24.5958 -0.093
24.6261 0.327
24.6564 0.070
24.6866 0.126
24.7169 0.599
24.7472 -0.125
24.7775 0.244
24.8077 -0.271
24.8380 0.464
24.8683 0.001
24.8986 0.268
24.9289 0.275
24.9591 0.542
24.9894 0.237
25.0197 -0.328
25.0500 0.253
25.0803 -0.364
25.1105 -0.210
25.1408 0.674
25.1711 0.204
25.2014 0.411
25.2316 0.514
25.2619 0.513
25.2922 -0.216
25.3225 0.305
25.3528 -0.111
25.3830 0.306
25.4133 0.099
25.4436 0.309
25.4739 0.311
25.5042 -0.676
25.5344 -0.257
25.5647 0.474
25.5950 0.424
25.6253 0.271
25.6555 0.795
25.6858 0.330
25.7161 0.282
25.7464 0.911
25.7767 0.604
25.8069 -0.173
25.8372 0.666
25.8675 0.203
25.8978 -0.364
25.9281 -0.160
25.9583 -0.321
25.9886 0.130
26.0189 0.634
26.0492 -0.424
26.0794 0.549
26.1097 0.012
26.1400 -0.056
26.1703 0.085
26.2006 0.851
26.2308 -0.153
26.2611 -0.324
26.2914 -0.858
26.3217 0.534
26.3520 0.886
26.3822 -0.429
26.4125 -0.338
26.4428 -0.144
26.4731 0.103
26.5034 -0.223
26.5336 0.649
26.5639 -0.249
26.5942 0.051
26.6245 -0.326
26.6547 -0.182
26.6850 0.119
26.7153 -0.152
26.7456 -0.111
26.7759 -0.225
26.8061 -0.340
26.8364 -0.349
26.8667 0.209
26.8970 0.091
26.9273 -0.443
26.9575 0.012
26.9878 0.312
27.0181 0.247
27.0484 0.444
27.0786 0.067
27.1089 -0.309
27.1392 -0.216
27.1695 0.138
27.1998 -0.081
27.2300 0.170
27.2603 0.264
27.2906 -0.839
27.3209 0.194
27.3512 0.029
27.3814 0.073
27.4117 -0.143
27.4420 0.422
27.4723 0.415
27.5025 -0.061
27.5328 -0.484
27.5631 0.135
27.5934 0.233
27.6237 -0.397
27.6539 0.483
27.6842 0.270
27.7145 0.214
27.7448 0.158
27.7751 -0.158
27.8053 0.255
27.8356 -0.321
27.8659 0.093
27.8962 0.247
27.9264 0.037
27.9567 0.348
27.9870 0.035
28.0173 -0.279
28.0476 0.137
28.0778 0.398
28.1081 0.242
28.1384 0.503
28.1687 -0.173
28.1990 0.245
28.2292 0.246
28.2595 -0.064
28.2898 0.043
28.3201 0.202
28.3503 -0.368
28.3806 -0.162
28.4109 0.148
28.4412 0.199
28.4715 1.396
28.5017 0.041
28.5320 -0.324
28.5623 0.509
28.5926 -0.324
28.6229 0.353
28.6531 0.094
28.6834 0.616
28.7137 0.045
28.7440 -0.370
28.7742 0.518
28.8045 -0.104
28.8348 1.253
28.8651 0.788
28.8954 0.531
28.9256 -0.038
28.9559 0.800
28.9862 0.857
29.0165 0.393
29.0468 0.503
29.0770 0.613
29.1073 -0.214
29.1376 -0.572
29.1679 0.219
29.1981 1.218
29.2284 0.447
29.2587 0.144
29.2890 -0.209
29.3193 0.322
29.3495 0.126
29.3798 0.398
29.4101 -0.267
29.4404 0.631
29.4707 0.071
29.5009 -0.489
29.5312 0.149
29.5615 -0.045
29.5918 0.698
29.6221 0.192
29.6523 -0.157
29.6826 1.056
29.7129 -0.231
29.7432 0.619
29.7734 0.375
29.8037 0.027
29.8340 0.773
29.8643 0.218
29.8946 1.017
29.9248 0.514
29.9551 0.012
29.9854 0.447
30.0157 -0.158
30.0460 1.632
30.0762 0.766
30.1065 0.631
30.1368 0.703
30.1671 0.985
30.1973 0.329
30.2276 0.351
30.2579 0.164
30.2882 0.551
30.3185 0.939
30.3487 -0.028
30.3790 0.412
30.4093 0.124
30.4396 2.023
30.4699 1.318
30.5001 1.604
30.5304 1.160
30.5607 1.602
30.5910 1.524
30.6212 1.134
30.6515 1.994
30.6818 1.396
30.7121 2.413
30.7424 1.972
30.7726 2.000
30.8029 3.122
30.8332 2.838
30.8635 2.659
30.8938 1.855
30.9240 3.239
30.9543 3.478
30.9846 2.988
31.0149 4.165
31.0451 6.331
31.0754 6.571
31.1057 6.447
31.1360 9.865
31.1663 8.647
31.1965 10.451
31.2268 10.849
31.2571 11.768
31.2874 13.417
31.3177 14.806
31.3479 18.278
31.3782 20.761
31.4085 21.995
31.4388 24.531
31.4690 26.702
31.4993 31.270
31.5296 33.911
31.5599 39.157
31.5902 37.788
31.6204 44.180
31.6507 43.646
31.6810 38.893
31.7113 37.005
31.7416 36.992
31.7718 31.876
31.8021 28.062
31.8324 24.300
31.8627 23.091
31.8929 21.830
31.9232 15.882
31.9535 15.247
31.9838 12.581
32.0141 12.520
32.0443 8.813
32.0746 7.502
32.1049 7.754
32.1352 7.694
32.1655 6.488
32.1957 6.533
32.2260 4.963
32.2563 4.592
32.2866 3.909
32.3169 4.372
32.3471 2.387
32.3774 1.965
32.4077 2.169
32.4380 1.487
32.4682 0.910
32.4985 1.375
32.5288 1.059
32.5591 2.462
32.5894 1.157
32.6196 1.415
32.6499 1.361
32.6802 0.891
32.7105 1.098
32.7408 -0.466
32.7710 0.888
32.8013 -0.102
32.8316 -0.622
32.8619 0.472
32.8921 0.264
32.9224 0.682
32.9527 -0.254
32.9830 0.842
33.0133 0.479
33.0435 -0.039
33.0738 0.173
33.1041 0.280
33.1344 0.180
33.1647 0.704
33.1949 0.084
33.2252 -0.068
33.2555 -0.167
33.2858 0.047
33.3160 -0.520
33.3463 -0.015
33.3766 -0.239
33.4069 0.735
33.4372 0.980
33.4674 2.007
33.4977 -0.507
33.5280 0.573
33.5583 0.820
33.5886 1.275
33.6188 1.523
33.6491 0.364
33.6794 1.498
33.7097 2.163
33.7399 1.371
33.7702 1.464
33.8005 1.974
33.8308 2.588
33.8611 4.557
33.8913 5.485
33.9216 5.528
33.9519 7.134
33.9822 6.344
34.0125 10.190
34.0427 11.276
34.0730 10.956
34.1033 13.136
34.1336 19.587
34.1638 23.227
34.1941 30.564
34.2244 37.381
34.2547 45.189
34.2850 51.121
34.3152 52.627
34.3455 47.049
34.3758 41.472
34.4061 35.063
34.4364 27.143
34.4666 21.358
34.4969 18.075
34.5272 13.854
34.5575 9.685
34.5877 10.517
34.6180 8.172
34.6483 6.713
34.6786 7.806
34.7089 6.035
34.7391 6.608
34.7694 3.380
34.7997 6.297
34.8300 2.601
34.8603 3.384
34.8905 3.125
34.9208 3.701
34.9511 2.662
34.9814 2.456
35.0116 2.512
35.0419 2.828
35.0722 4.343
35.1025 4.920
35.1328 4.300
35.1630 2.951
35.1933 3.373
35.2236 5.411
35.2539 3.542
35.2842 3.705
35.3144 4.858
35.3447 4.500
35.3750 5.602
35.4053 4.829
35.4356 7.545
35.4658 7.710
35.4961 8.084
35.5264 9.448
35.5567 9.145
35.5869 9.676
35.6172 11.978
35.6475 13.083
35.6778 13.407
35.7081 16.022
35.7383 19.107
35.7686 18.130
35.7989 19.445
35.8292 26.177
35.8595 24.992
35.8897 30.214
35.9200 36.947
35.9503 38.263
35.9806 45.466
36.0108 50.116
36.0411 56.330
36.0714 59.575
36.1017 65.372
36.1320 59.399
36.1622 66.395
36.1925 56.673
36.2228 58.149
36.2531 49.938
36.2834 46.206
36.3136 40.443
36.3439 38.535
36.3742 32.722
36.4045 29.095
36.4347 24.011
36.4650 21.428
36.4953 20.094
36.5256 16.991
36.5559 15.502
36.5861 12.555
36.6164 13.358
36.6467 10.308
36.6770 9.081
36.7073 7.229
36.7375 9.076
36.7678 6.600
36.7981 6.051
36.8284 5.191
36.8586 3.601
36.8889 5.241
36.9192 3.704
36.9495 3.678
36.9798 3.340
37.0100 2.013
37.0403 1.988
37.0706 3.162
37.1009 2.252
37.1312 1.603
37.1614 1.371
37.1917 2.807
37.2220 2.055
37.2523 1.147
37.2825 1.958
37.3128 1.676
37.3431 1.082
37.3734 1.009
37.4037 0.207
37.4339 -0.386
37.4642 1.000
37.4945 0.355
37.5248 1.013
37.5551 -0.203
37.5853 -0.274
37.6156 0.229
37.6459 1.565
37.6762 -0.275
37.7064 -0.501
37.7367 0.889
37.7670 0.039
37.7973 1.065
37.8276 0.164
37.8578 0.253
37.8881 -0.179
37.9184 0.067
37.9487 -0.937
37.9790 0.091
38.0092 0.025
38.0395 -0.092
38.0698 -0.261
38.1001 0.507
38.1304 -0.494
38.1606 0.275
38.1909 -0.413
38.2212 0.044
38.2515 -0.383
38.2817 -0.393
38.3120 -0.041
38.3423 0.624
38.3726 0.144
38.4029 -0.857
38.4331 0.070
38.4634 -0.357
38.4937 -0.107
38.5240 0.352
38.5543 0.395
38.5845 0.386
38.6148 0.482
38.6451 -0.412
38.6754 0.049
38.7056 0.770
38.7359 -0.174
38.7662 -0.546
38.7965 0.211
38.8268 0.603
38.8570 -0.202
38.8873 -0.017
38.9176 0.012
38.9479 0.145
38.9782 -0.242
39.0084 0.257
39.0387 -0.338
39.0690 -0.229
39.0993 0.089
39.1295 -0.114
39.1598 -0.473
39.1901 0.471
39.2204 0.112
39.2507 0.276
39.2809 0.856
39.3112 0.134
39.3415 -0.327
39.3718 0.150
39.4021 0.263
39.4323 0.168
39.4626 0.541
39.4929 0.499
39.5232 -0.324
39.5534 0.415
39.5837 0.322
39.6140 -0.449
39.6443 -0.073
39.6746 0.408
39.7048 0.576
39.7351 0.276
39.7654 0.185
39.7957 0.250
39.8260 0.212
39.8562 0.017
39.8865 -0.281
39.9168 -0.006
39.9471 0.269
39.9773 -0.288
40.0076 0.404
40.0379 0.004
40.0682 0.176
40.0985 -0.536
40.1287 0.471
40.1590 -0.137
40.1893 0.089
40.2196 0.784
40.2499 0.490
40.2801 -0.584
40.3104 0.060
40.3407 -0.702
40.3710 -0.035
40.4012 0.423
40.4315 0.518
40.4618 0.613
40.4921 -0.178
40.5224 0.074
40.5526 0.066
40.5829 0.683
40.6132 0.207
40.6435 -0.009
40.6738 -0.068
40.7040 -0.074
40.7343 0.128
40.7646 0.435
40.7949 1.002
40.8251 -0.253
40.8554 0.471
40.8857 -0.054
40.9160 0.203
40.9463 -0.166
40.9765 0.248
41.0068 -0.276
41.0371 0.242
41.0674 0.344
41.0977 -0.075
41.1279 0.341
41.1582 -0.129
41.1885 -0.026
41.2188 0.078
41.2491 -0.339
41.2793 0.442
41.3096 -0.234
41.3399 -0.806
41.3702 0.288
41.4004 0.237
41.4307 -0.752
41.4610 -0.021
41.4913 0.241
41.5216 0.191
41.5518 -0.223
41.5821 -0.012
41.6124 -0.060
41.6427 -0.265
41.6730 0.156
41.7032 -0.101
41.7335 0.269
41.7638 -0.299
41.7941 -0.248
41.8243 0.064
41.8546 0.480
41.8849 -0.405
41.9152 0.064
41.9455 -0.092
41.9757 0.013
42.0060 0.171
42.0363 -0.192
42.0666 -0.190
42.0969 -0.239
42.1271 0.545
42.1574 0.131
42.1877 0.031
42.2180 0.556
42.2482 -0.013
42.2785 -0.477
42.3088 0.101
42.3391 -0.050
42.3694 -0.201
42.3996 0.170
42.4299 0.124
42.4602 0.027
42.4905 0.190
42.5208 0.041
42.5510 0.049
42.5813 0.422
42.6116 0.014
42.6419 -0.290
42.6721 -0.755
42.7024 0.655
42.7327 -0.071
42.7630 0.403
42.7933 0.824
42.8235 -0.161
42.8538 -0.311
42.8841 0.207
42.9144 -0.056
42.9447 0.150
42.9749 -0.217
43.0052 0.094
43.0355 0.718
43.0658 -0.012
43.0960 0.196
43.1263 0.352
43.1566 -0.324
43.1869 0.249
43.2172 -0.271
43.2474 0.460
43.2777 -0.059
43.3080 0.724
43.3383 -0.315
43.3686 0.156
43.3988 0.055
43.4291 0.215
43.4594 -0.042
43.4897 -0.194
43.5199 0.228
43.5502 0.180
43.5805 0.915
43.6108 -0.173
43.6411 0.197
43.6713 -0.005
43.7016 -0.311
43.7319 0.165
43.7622 0.329
43.7925 -0.132
43.8227 -0.280
43.8530 -0.189
43.8833 0.267
43.9136 -0.006
43.9439 -0.226
43.9741 0.179
44.0044 0.532
44.0347 -0.677
44.0650 0.459
44.0952 0.032
44.1255 -0.343
44.1558 0.325
44.1861 0.316
44.2164 0.568
44.2466 0.611
44.2769 -0.386
44.3072 0.231
44.3375 -0.141
44.3678 0.060
44.3980 -0.103
44.4283 0.204
44.4586 -0.375
44.4889 0.140
44.5191 0.499
44.5494 -0.443
44.5797 0.282
44.6100 0.121
44.6403 -0.299
44.6705 -0.153
44.7008 1.139
44.7311 -0.016
44.7614 -0.337
44.7917 0.070
44.8219 0.321
44.8522 -0.156
44.8825 0.200
44.9128 0.244
44.9430 -0.180
44.9733 -0.344
45.0036 0.326
45.0339 -0.097
45.0642 0.418
45.0944 -0.265
45.1247 0.094
45.1550 0.088
45.1853 0.032
45.2156 -0.129
45.2458 -0.185
45.2761 0.019
45.3064 0.537
45.3367 -0.091
45.3669 0.166
45.3972 -0.096
45.4275 -0.203
45.4578 -0.308
45.4881 -0.206
45.5183 -0.154
45.5486 0.366
45.5789 -0.572
45.6092 -0.312
45.6395 -0.018
45.6697 -0.348
45.7000 0.364
45.7303 0.035
45.7606 0.279
45.7908 0.680
45.8211 0.300
45.8514 0.336
45.8817 0.061
45.9120 0.567
45.9422 -0.332
45.9725 -0.034
46.0028 -0.099
46.0331 -0.008
46.0634 0.291
46.0936 -0.502
46.1239 0.006
46.1542 0.151
46.1845 -0.069
46.2147 0.337
46.2450 -0.351
46.2753 0.264
46.3056 -0.111
46.3359 0.192
46.3661 0.130
46.3964 0.538
46.4267 0.269
46.4570 0.469
46.4873 -0.163
46.5175 -0.327
46.5478 0.447
46.5781 0.492
46.6084 0.434
46.6386 0.688
46.6689 0.682
46.6992 0.521
46.7295 0.828
46.7598 1.084
46.7900 0.819
46.8203 1.180
46.8506 0.812
46.8809 1.017
46.9112 1.951
46.9414 2.053
46.9717 1.842
47.0020 3.820
47.0323 4.131
47.0626 3.453
47.0928 5.327
47.1231 5.274
47.1534 5.743
47.1837 6.420
47.2139 6.994
47.2442 7.307
47.2745 9.653
47.3048 10.071
47.3351 10.646
47.3653 11.950
47.3956 11.953
47.4259 11.279
47.4562 12.168
47.4865 11.807
47.5167 10.770
47.5470 10.358
47.5773 9.529
47.6076 8.233
47.6378 9.384
47.6681 7.411
47.6984 6.376
47.7287 5.288
47.7590 4.514
47.7892 3.324
47.8195 3.540
47.8498 3.496
47.8801 2.983
47.9104 3.044
47.9406 1.543
47.9709 1.865
48.0012 1.667
48.0315 1.260
48.0617 0.698
48.0920 1.230
48.1223 1.553
48.1526 0.523
48.1829 0.848
48.2131 1.121
48.2434 0.352
48.2737 0.938
48.3040 1.264
48.3343 0.549
48.3645 1.084
48.3948 1.098
48.4251 0.280
48.4554 0.347
48.4856 1.144
48.5159 0.430
48.5462 1.124
48.5765 0.515
48.6068 0.064
48.6370 0.081
48.6673 0.307
48.6976 0.585
48.7279 0.916
48.7582 -0.367
48.7884 -0.087
48.8187 0.036
48.8490 0.212
48.8793 0.597
48.9095 0.149
48.9398 -0.299
48.9701 -0.250
49.0004 -0.200
49.0307 -0.462
49.0609 0.318
49.0912 0.057
49.1215 0.473
49.1518 0.472
49.1821 0.108
49.2123 -0.048
49.2426 -0.100
49.2729 0.266
49.3032 0.059
49.3334 0.478
49.3637 0.324
49.3940 -0.091
49.4243 0.277
49.4546 0.280
49.4848 0.023
49.5151 -0.337
49.5454 0.025
49.5757 -0.237
49.6060 -0.238
49.6362 -0.083
49.6665 -0.396
49.6968 0.437
49.7271 -0.656
49.7574 0.021
49.7876 0.074
49.8179 0.544
49.8482 0.181
49.8785 -0.025
49.9087 0.133
49.9390 0.031
49.9693 0.087
49.9996 0.142
50.0299 -0.636
50.0601 0.306
50.0904 0.310
50.1207 -0.206
50.1510 -0.149
50.1813 -0.560
50.2115 0.540
50.2418 0.338
50.2721 -0.125
50.3024 -0.066
50.3326 0.150
50.3629 -0.311
50.3932 -0.103
50.4235 0.157
50.4538 0.991
50.4840 -0.049
50.5143 0.264
50.5446 0.474
50.5749 -0.097
50.6052 0.322
50.6354 -0.456
50.6657 -0.245
50.6960 0.227
50.7263 -0.290
50.7565 -0.244
50.7868 -0.145
50.8171 0.215
50.8474 -0.154
50.8777 -0.002
50.9079 0.046
50.9382 0.042
50.9685 0.351
50.9988 0.192
51.0291 0.190
51.0593 0.344
51.0896 -0.752
51.1199 -0.076
51.1502 0.027
51.1804 -0.026
51.2107 0.182
51.2410 -0.599
51.2713 0.026
51.3016 0.079
51.3318 -0.181
51.3621 0.133
51.3924 -0.021
51.4227 -0.279
51.4530 -0.485
51.4832 0.507
51.5135 0.041
51.5438 0.201
51.5741 -0.420
51.6043 0.626
51.6346 -0.151
51.6649 0.167
51.6952 -0.245
51.7255 -0.187
51.7557 -0.025
51.7860 -0.279
51.8163 -0.116
51.8466 -0.369
51.8769 0.628
51.9071 -0.094
51.9374 0.227
51.9677 -0.077
51.9980 0.244
52.0282 0.462
52.0585 0.367
52.0888 -0.092
52.1191 -0.029
52.1494 -0.019
52.1796 0.149
52.2099 0.056
52.2402 -0.245
52.2705 -0.337
52.3008 0.279
52.3310 -0.250
52.3613 0.315
52.3916 0.308
52.4219 0.717
52.4521 0.086
52.4824 -0.285
52.5127 -0.031
52.5430 0.327
52.5733 0.009
52.6035 0.264
52.6338 -0.053
52.6641 0.046
52.6944 0.250
52.7247 0.559
52.7549 0.607
52.7852 0.031
52.8155 -0.232
52.8458 -0.495
52.8761 0.388
52.9063 -0.291
52.9366 0.124
52.9669 -0.241
52.9972 0.487
53.0274 -0.243
53.0577 0.122
53.0880 0.174
53.1183 -0.346
53.1486 -0.084
53.1788 -0.135
53.2091 0.231
53.2394 0.025
53.2697 0.496
53.3000 -0.074
53.3302 0.658
53.3605 0.453
53.3908 -0.116
53.4211 -0.007
53.4513 0.153
53.4816 0.158
53.5119 0.216
53.5422 0.169
53.5725 0.592
53.6027 0.025
53.6330 -0.280
53.6633 -0.241
53.6936 0.320
53.7239 -0.109
53.7541 0.401
53.7844 0.806
53.8147 0.692
53.8450 0.056
53.8752 0.203
53.9055 0.245
53.9358 0.757
53.9661 -0.294
53.9964 0.218
54.0266 0.366
54.0569 0.462
54.0872 0.038
54.1175 -0.073
54.1478 -0.184
54.1780 -0.295
54.2083 0.202
54.2386 -0.135
54.2689 -0.211
54.2991 0.026
54.3294 0.107
54.3597 -0.072
54.3900 0.374
54.4203 -0.012
54.4505 -0.138
54.4808 -0.107
54.5111 0.184
54.5414 0.111
54.5717 0.195
54.6019 -0.554
54.6322 0.364
54.6625 0.136
54.6928 0.066
54.7230 -0.318
54.7533 0.081
54.7836 -0.093
54.8139 -0.423
54.8442 0.393
54.8744 1.001
54.9047 0.464
54.9350 0.552
54.9653 -0.036
54.9956 0.157
55.0258 -0.379
55.0561 0.127
55.0864 0.061
55.1167 0.047
55.1469 0.242
55.1772 -0.032
55.2075 -0.253
55.2378 0.255
55.2681 1.337
55.2983 -0.237
55.3286 0.220
55.3589 0.469
55.3892 0.615
55.4195 0.500
55.4497 0.751
55.4800 0.324
55.5103 0.471
55.5406 1.348
55.5709 1.027
55.6011 0.394
55.6314 1.427
55.6617 1.055
55.6920 1.413
55.7222 0.885
55.7525 0.931
55.7828 2.539
55.8131 2.429
55.8434 2.320
55.8736 1.846
55.9039 2.258
55.9342 3.035
55.9645 3.447
55.9948 3.131
56.0250 4.378
56.0553 4.740
56.0856 3.591
56.1159 6.089
56.1461 6.087
56.1764 7.440
56.2067 6.762
56.2370 9.001
56.2673 9.625
56.2975 9.938
56.3278 13.011
56.3581 15.043
56.3884 15.096
56.4187 16.764
56.4489 13.640
56.4792 15.882
56.5095 16.770
56.5398 13.804
56.5700 12.922
56.6003 13.290
56.6306 11.679
56.6609 12.100
56.6912 8.979
56.7214 8.776
56.7517 8.937
56.7820 6.964
56.8123 7.126
56.8426 5.570
56.8728 4.170
56.9031 4.438
56.9334 4.862
56.9637 3.411
56.9939 3.211
57.0242 2.959
57.0545 2.238
57.0848 2.612
57.1151 1.320
57.1453 1.225
57.1756 1.860
57.2059 1.350
57.2362 1.361
57.2665 0.956
57.2967 0.863
57.3270 1.448
57.3573 1.617
57.3876 0.952
57.4178 1.382
57.4481 0.927
57.4784 1.409
57.5087 0.798
57.5390 0.813
57.5692 0.619
57.5995 0.843
57.6298 0.650
57.6601 0.458
57.6904 0.474
57.7206 -0.135
57.7509 0.039
57.7812 0.837
57.8115 0.230
57.8417 0.508
57.8720 -0.151
57.9023 -0.028
57.9326 -0.321
57.9629 -0.108
57.9931 -0.206
58.0234 0.164
58.0537 -0.455
58.0840 0.437
58.1143 -0.390
58.1445 -0.385
58.1748 0.556
58.2051 0.197
58.2354 -0.319
58.2656 0.624
58.2959 0.526
58.3262 0.532
58.3565 0.538
58.3868 0.337
58.4170 0.396
58.4473 0.404
58.4776 0.204
58.5079 0.212
58.5382 0.221
58.5684 -0.187
58.5987 -0.282
58.6290 0.353
58.6593 0.051
58.6896 -0.043
58.7198 -0.241
58.7501 0.291
58.7804 0.407
58.8107 -0.050
58.8409 0.119
58.8712 -0.390
58.9015 -0.074
58.9318 0.763
58.9621 -0.223
58.9923 0.302
59.0226 0.202
59.0529 0.312
59.0832 0.161
59.1135 0.010
59.1437 0.120
59.1740 0.230
59.2043 0.185
59.2346 0.140
59.2648 0.408
59.2951 0.259
59.3254 0.163
59.3557 0.015
59.3860 0.284
59.4162 0.450
59.4465 0.720
59.4768 0.000
59.5071 0.323
59.5374 0.073
59.5676 0.865
59.5979 -0.217
59.6282 -0.153
59.6585 0.327
59.6887 -0.285
59.7190 -0.446
59.7493 0.696
59.7796 0.537
59.8099 0.586
59.8401 -0.354
59.8704 -0.044
59.9007 0.683
59.9310 0.629
59.9613 0.263
59.9915 0.158
60.0218 -0.051
60.0521 -0.520
60.0824 0.095
60.1126 -0.019
60.1429 0.284
60.1732 0.014
60.2035 0.213
60.2338 0.152
60.2640 0.405
60.2943 0.292
60.3246 0.077
60.3549 0.434
60.3852 0.427
60.4154 0.004
60.4457 0.727
60.4760 -0.216
60.5063 0.195
60.5365 0.294
60.5668 0.497
60.5971 1.222
60.6274 0.489
60.6577 -0.035
60.6879 -0.299
60.7182 -0.270
60.7485 0.436
60.7788 0.102
60.8091 -0.024
60.8393 0.006
60.8696 -0.015
60.8999 -0.036
60.9302 -0.160
60.9604 -0.233
60.9907 -0.096
61.0210 0.301
61.0513 -0.395
61.0816 -0.153
61.1118 0.453
61.1421 -0.242
61.1724 0.470
61.2027 -0.746
61.2330 0.123
61.2632 -0.206
61.2935 0.351
61.3238 0.178
61.3541 -0.097
61.3844 -0.008
61.4146 -0.127
61.4449 -0.454
61.4752 0.677
61.5055 -0.743
61.5357 -0.131
61.5660 0.325
61.5963 -0.521
61.6266 0.039
61.6569 0.027
61.6871 0.068
61.7174 0.265
61.7477 0.514
61.7780 0.452
61.8083 0.025
61.8385 -0.141
61.8688 0.630
61.8991 0.673
61.9294 0.508
61.9596 1.490
61.9899 -0.029
62.0202 1.109
62.0505 0.321
62.0808 1.407
62.1110 1.922
62.1413 1.603
62.1716 0.503
62.2019 2.216
62.2322 2.523
62.2624 2.258
62.2927 2.931
62.3230 4.177
62.3533 3.496
62.3835 3.805
62.4138 5.208
62.4441 5.934
62.4744 6.088
62.5047 6.763
62.5349 8.116
62.5652 7.541
62.5955 9.155
62.6258 11.029
62.6561 11.237
62.6863 13.633
62.7166 12.228
62.7469 13.583
62.7772 13.480
62.8074 13.064
62.8377 11.087
62.8680 12.339
62.8983 11.352
62.9286 12.084
62.9588 9.327
62.9891 9.279
63.0194 7.929
63.0497 7.360
63.0800 5.333
63.1102 4.922
63.1405 3.677
63.1708 3.058
63.2011 3.689
63.2313 3.487
63.2616 2.765
63.2919 2.355
63.3222 2.103
63.3525 1.277
63.3827 2.067
63.4130 2.127
63.4433 1.720
63.4736 1.104
63.5039 1.009
63.5341 1.019
63.5644 1.655
63.5947 0.363
63.6250 0.322
63.6552 -0.239
63.6855 -0.279
63.7158 -0.007
63.7461 0.214
63.7764 0.279
63.8066 0.553
63.8369 -0.267
63.8672 0.007
63.8975 0.438
63.9278 0.140
63.9580 -0.053
63.9883 -0.298
64.0186 0.447
64.0489 -0.162
64.0791 0.219
64.1094 -0.442
64.1397 -0.176
64.1700 -0.066
64.2003 0.148
64.2305 1.196
64.2608 -0.516
64.2911 0.116
64.3214 0.124
64.3517 0.444
64.3819 0.556
64.4122 -0.321
64.4425 -0.312
64.4728 0.374
64.5031 0.123
64.5333 0.550
64.5636 -0.169
64.5939 -0.367
64.6242 0.373
64.6544 0.020
64.6847 0.136
64.7150 -0.008
64.7453 -0.048
64.7756 -0.244
64.8058 0.290
64.8361 -0.269
64.8664 -0.099
64.8967 -0.085
64.9270 0.346
64.9572 0.101
64.9875 0.272
65.0178 -0.390
65.0481 -0.261
65.0783 0.337
65.1086 0.206
65.1389 -0.238
65.1692 0.257
65.1995 0.335
65.2297 -0.159
65.2600 -0.028
65.2903 0.832
65.3206 -0.286
65.3509 -0.206
65.3811 -0.021
65.4114 0.216
65.4417 -0.172
65.4720 0.274
65.5022 0.512
65.5325 -0.031
65.5628 -0.417
65.5931 0.811
65.6234 0.113
65.6536 -0.220
65.6839 0.541
65.7142 0.209
65.7445 0.450
65.7748 0.587
65.8050 0.308
65.8353 0.602
65.8656 0.323
65.8959 0.305
65.9261 0.340
65.9564 0.531
65.9867 0.462
66.0170 0.759
66.0473 0.743
66.0775 0.831
66.1078 0.659
66.1381 1.009
66.1684 0.942
66.1987 0.303
66.2289 0.341
66.2592 1.526
66.2895 0.731
66.3198 0.875
66.3500 0.602
66.3803 0.538
66.4106 1.412
66.4409 -0.058
66.4712 0.608
66.5014 1.587
66.5317 1.524
66.5620 0.316
66.5923 0.359
66.6226 0.193
66.6528 0.132
66.6831 0.853
66.7134 0.272
66.7437 0.212
66.7739 -0.004
66.8042 -0.376
66.8345 0.032
66.8648 0.388
66.8951 0.588
66.9253 0.684
66.9556 0.520
66.9859 0.304
67.0162 0.245
67.0465 -0.074
67.0767 0.181
67.1070 0.018
67.1373 0.638
67.1676 0.841
67.1978 0.784
67.2281 0.832
67.2584 1.713
67.2887 1.449
67.3190 1.445
67.3492 0.870
67.3795 2.534
67.4098 2.583
67.4401 2.321
67.4704 3.830
67.5006 4.297
67.5309 5.494
67.5612 4.296
67.5915 4.660
67.6218 5.285
67.6520 6.588
67.6823 5.912
67.7126 6.486
67.7429 6.435
67.7731 8.625
67.8034 8.471
67.8337 8.525
67.8640 9.518
67.8943 8.375
67.9245 6.452
67.9548 6.508
67.9851 8.127
68.0154 5.944
68.0457 7.199
68.0759 5.955
68.1062 4.919
68.1365 5.498
68.1668 4.515
68.1970 3.272
68.2273 3.383
68.2576 3.756
68.2879 4.284
68.3182 2.574
68.3484 2.843
68.3787 2.956
68.4090 2.601
68.4393 3.132
68.4696 3.037
68.4998 2.475
68.5301 1.913
68.5604 2.028
68.5907 2.352
68.6209 2.416
68.6512 2.845
68.6815 3.066
68.7118 3.495
68.7421 2.623
68.7723 3.158
68.8026 3.953
68.8329 3.394
68.8632 2.940
68.8935 4.101
68.9237 3.335
68.9540 2.726
68.9843 3.263
69.0146 4.165
69.0448 2.984
69.0751 3.157
69.1054 2.446
69.1357 3.713
69.1660 2.898
69.1962 2.761
69.2265 2.415
69.2568 1.705
69.2871 2.923
69.3174 2.422
69.3476 1.765
69.3779 1.578
69.4082 1.338
69.4385 0.631
69.4687 2.006
69.4990 0.466
69.5293 1.009
69.5596 0.824
69.5899 0.535
69.6201 0.194
69.6504 0.322
69.6807 0.294
69.7110 0.110
69.7413 -0.073
69.7715 0.265
69.8018 0.186
69.8321 1.098
69.8624 -0.126
69.8926 0.422
69.9229 0.813
69.9532 0.476
69.9835 0.660
70.0138 -0.197
70.0440 0.040
70.0743 0.277
70.1046 0.254
70.1349 0.127
70.1652 -0.311
70.1954 -0.098
70.2257 0.115
70.2560 -0.192
70.2863 -0.030
70.3166 -0.337
70.3468 0.295
70.3771 -0.636
70.4074 -0.108
70.4377 -0.257
70.4679 -0.093
70.4982 0.123
70.5285 0.028
70.5588 -0.276
70.5891 -0.110
70.6193 0.160
70.6496 0.482
70.6799 -0.445
70.7102 -0.226
70.7405 0.306
70.7707 0.317
70.8010 -0.296
70.8313 0.028
70.8616 -0.064
70.8918 -0.572
70.9221 0.108
70.9524 0.111
70.9827 -0.042
71.0130 0.535
71.0432 -0.398
71.0735 0.075
71.1038 0.236
71.1341 -0.280
71.1644 0.403
71.1946 -0.060
71.2249 -0.262
71.2552 -0.151
71.2855 0.429
71.3157 -0.241
71.3460 -0.337
71.3763 0.296
71.4066 -0.216
71.4369 -0.467
71.4671 0.254
71.4974 0.038
71.5277 0.552
71.5580 0.597
71.5883 0.330
71.6185 -0.197
71.6488 -0.255
71.6791 0.833
71.7094 -0.161
71.7396 0.146
71.7699 -0.170
71.8002 -0.018
71.8305 0.082
71.8608 0.027
71.8910 0.076
71.9213 -0.031
71.9516 0.227
71.9819 -0.399
72.0122 0.537
72.0424 0.327
72.0727 0.222
72.1030 0.169
72.1333 -0.091
72.1635 0.534
72.1938 0.535
72.2241 -0.402
72.2544 0.016
72.2847 0.747
72.3149 0.697
72.3452 0.387
72.3755 0.546
72.4058 0.601
72.4361 0.865
72.4663 1.546
72.4966 0.612
72.5269 0.200
72.5572 0.518
72.5874 0.783
72.6177 0.216
72.6480 0.638
72.6783 0.593
72.7086 0.183
72.7388 0.554
72.7691 0.509
72.7994 0.569
72.8297 0.108
72.8600 -0.248
72.8902 0.334
72.9205 -0.230
72.9508 0.405
72.9811 0.102
73.0113 0.320
73.0416 0.123
73.0719 0.029
73.1022 0.041
73.1325 0.417
73.1627 0.429
73.1930 -0.601
73.2233 -0.015
73.2536 0.258
73.2839 -0.093
73.3141 0.181
73.3444 -0.169
73.3747 0.053
73.4050 -0.244
73.4353 -0.087
73.4655 0.436
73.4958 0.282
73.5261 0.024
73.5564 0.392
73.5866 -0.230
73.6169 0.347
73.6472 -0.222
73.6775 0.668
73.7078 -0.005
73.7380 0.261
73.7683 0.579
73.7986 0.272
73.8289 0.122
73.8592 -0.028
73.8894 0.396
73.9197 0.351
73.9500 0.358
73.9803 0.106
74.0105 0.166
74.0408 -0.086
74.0711 -0.233
74.1014 0.077
74.1317 0.022
74.1619 0.124
74.1922 0.330
74.2225 -0.088
74.2528 0.015
74.2831 0.379
74.3133 0.118
74.3436 0.170
74.3739 -0.039
74.4042 -0.142
74.4344 0.380
74.4647 0.225
74.4950 0.382
74.5253 -0.449
74.5556 0.283
74.5858 0.546
74.6161 -0.233
74.6464 0.188
74.6767 0.452
74.7070 0.143
74.7372 0.044
74.7675 -0.056
74.7978 -0.363
74.8281 0.094
74.8583 0.186
74.8886 0.435
74.9189 -0.461
74.9492 0.257
74.9795 0.247
75.0097 -0.283
75.0400 0.228
75.0703 -0.146
75.1006 0.158
75.1309 0.201
75.1611 0.454
75.1914 -0.127
75.2217 0.074
75.2520 -0.194
75.2822 -0.200
75.3125 0.054
75.3428 -0.056
75.3731 0.407
75.4034 -0.380
75.4336 -0.124
75.4639 0.392
75.4942 -0.341
75.5245 -0.189
75.5548 -0.088
75.5850 -0.196
75.6153 -0.198
75.6456 0.112
75.6759 0.526
75.7061 -0.257
75.7364 0.054
75.7667 -0.363
75.7970 -0.008
75.8273 -0.121
75.8575 -0.129
75.8878 0.071
75.9181 0.116
75.9484 0.421
75.9787 0.101
76.0089 0.147
76.0392 0.037
76.0695 0.447
76.0998 0.442
76.1301 0.228
76.1603 -0.037
76.1906 0.271
76.2209 0.684
76.2512 0.107
76.2814 0.260
76.3117 0.048
76.3420 0.150
76.3723 0.095
76.4026 0.354
76.4328 0.248
76.4631 0.091
76.4934 0.611
76.5237 0.610
76.5540 0.401
76.5842 1.808
76.6145 0.142
76.6448 0.195
76.6751 0.508
76.7053 0.926
76.7356 0.616
76.7659 0.826
76.7962 1.142
76.8265 1.561
76.8567 0.783
76.8870 0.995
76.9173 0.374
76.9476 0.639
76.9779 0.644
77.0081 0.753
77.0384 1.071
77.0687 0.712
77.0990 0.562
77.1292 0.777
77.1595 0.836
77.1898 1.312
77.2201 0.747
77.2504 1.171
77.2806 0.555
77.3109 0.251
77.3412 0.260
77.3715 0.373
77.4018 0.227
77.4320 1.174
77.4623 0.195
77.4926 0.310
77.5229 0.269
77.5531 0.072
77.5834 0.241
77.6137 -0.216
77.6440 -0.151
77.6743 0.955
77.7045 0.083
77.7348 0.409
77.7651 0.267
77.7954 -0.031
77.8257 -0.225
77.8559 0.259
77.8862 -0.038
77.9165 -0.022
77.9468 0.619
77.9770 -0.146
78.0073 0.079
78.0376 0.357
78.0679 0.010
78.0982 0.027
78.1284 -0.215
78.1587 -0.117
78.1890 0.345
78.2193 0.860
78.2496 0.334
78.2798 0.277
78.3101 0.220
78.3404 0.163
78.3707 0.003
78.4009 0.572
78.4312 0.517
78.4615 0.045
78.4918 0.250
78.5221 -0.169
78.5523 0.246
78.5826 0.297
78.6129 0.243
78.6432 0.086
78.6735 0.138
78.7037 -0.019
78.7340 0.033
78.7643 -0.070
78.7946 0.035
78.8248 0.140
78.8551 0.142
78.8854 -0.221
78.9157 -0.125
78.9460 -0.081
78.9762 0.067
79.0065 0.268
79.0368 0.001
79.0671 0.203
79.0974 -0.220
79.1276 -0.018
79.1579 -0.128
79.1882 -0.289
79.2185 0.279
79.2488 0.274
79.2790 0.427
79.3093 0.475
79.3396 -0.258
79.3699 0.052
79.4001 0.257
79.4304 0.463
79.4607 -0.320
79.4910 -0.113
79.5213 0.042
79.5515 -0.168
79.5818 -0.116
79.6121 0.092
79.6424 -0.064
79.6727 0.249
79.7029 -0.063
79.7332 -0.010
79.7635 -0.112
79.7938 0.358
79.8240 0.360
79.8543 0.051
79.8846 0.001
79.9149 -0.360
79.9452 0.217
79.9754 -0.144
80.0057 0.485
80.0360 0.594
80.0663 -0.078
80.0966 0.032
80.1268 -0.119
80.1571 -0.269
80.1874 0.884
80.2177 0.682
80.2479 0.325
80.2782 0.228
80.3085 0.028
80.3388 0.088
80.3691 -0.112
80.3993 -0.311
80.4296 0.151
80.4599 0.144
80.4902 0.033
80.5205 0.548
80.5507 0.282
80.5810 0.433
80.6113 0.011
80.6416 0.371
80.6718 0.002
80.7021 0.415
80.7324 0.411
80.7627 0.356
80.7930 0.353
80.8232 0.038
80.8535 0.557
80.8838 0.555
80.9141 0.241
80.9444 0.031
80.9746 0.447
81.0049 0.082
81.0352 0.655
81.0655 0.968
81.0957 0.344
81.1260 0.553
81.1563 1.075
81.1866 0.087
81.2169 0.818
81.2471 0.613
81.2774 0.824
81.3077 0.618
81.3380 0.466
81.3683 1.303
81.3985 0.786
81.4288 0.530
81.4591 0.796
81.4894 0.489
81.5196 0.494
81.5499 0.813
81.5802 0.559
81.6105 0.044
81.6408 0.260
81.6710 0.215
81.7013 0.535
81.7316 0.283
81.7619 1.021
81.7922 0.717
81.8224 0.518
81.8527 0.475
81.8830 0.433
81.9133 0.391
81.9436 0.610
81.9738 0.413
82.0041 0.320
82.0344 0.175
82.0647 0.448
82.0949 0.408
82.1252 0.473
82.1555 0.538
82.1858 0.603
82.2161 0.565
82.2463 0.423
82.2766 0.281
82.3069 0.296
82.3372 0.467
82.3675 0.795
82.3977 0.447
82.4280 0.515
82.4583 -0.302
82.4886 -0.180
82.5188 0.220
82.5491 0.204
82.5794 0.344
82.6097 0.537
82.6400 0.730
82.6702 0.299
82.7005 0.961
82.7308 0.270
82.7611 0.257
82.7914 0.764
82.8216 0.230
82.8519 0.374
82.8822 -0.211
82.9125 0.350
82.9427 0.182
82.9730 0.275
83.0033 0.108
83.0336 0.254
83.0639 0.035
83.0941 0.598
83.1244 -0.192
83.1547 0.580
83.1850 0.155
83.2153 0.875
83.2455 0.607
83.2758 -0.130
83.3061 0.071
83.3364 0.273
83.3666 0.526
83.3969 -0.157
83.4272 0.046
83.4575 0.457
83.4878 0.504
83.5180 -0.282
83.5483 0.078
83.5786 0.126
83.6089 -0.034
83.6392 -0.038
83.6694 0.011
83.6997 -0.095
83.7300 0.215
83.7603 0.473
83.7905 0.211
83.8208 -0.311
83.8511 -0.159
83.8814 0.254
83.9117 -0.114
83.9419 0.299
83.9722 0.088
84.0025 0.450
84.0328 -0.021
84.0631 0.238
84.0933 0.288
84.1236 0.391
84.1539 0.547
84.1842 -0.339
84.2144 0.286
84.2447 0.026
84.2750 0.235
84.3053 -0.337
84.3356 -0.185
84.3658 -0.033
84.3961 0.015
84.4264 0.376
84.4567 -0.096
84.4870 0.058
84.5172 0.212
84.5475 -0.155
84.5778 0.260
84.6081 -0.054
84.6383 0.153
84.6686 -0.056
84.6989 0.100
84.7292 -0.056
84.7595 0.049
84.7897 -0.003
84.8200 0.103
84.8503 -0.104
84.8806 -0.154
84.9109 0.681
84.9411 0.319
84.9714 0.010
85.0017 0.898
85.0320 0.121
85.0623 0.020
85.0925 0.129
85.1228 0.446
85.1531 -0.018
85.1834 -0.273
85.2136 0.254
85.2439 0.000
85.2742 0.006
85.3045 -0.039
85.3348 0.020
85.3650 -0.389
85.3953 0.027
85.4256 0.026
85.4559 0.026
85.4862 0.131
85.5164 -0.441
85.5467 -0.084
85.5770 -0.090
85.6073 0.372
85.6375 0.106
85.6678 -0.004
85.6981 0.042
85.7284 -0.015
85.7587 0.658
85.7889 0.237
85.8192 0.077
85.8495 -0.031
85.8798 -0.034
85.9101 0.067
85.9403 -0.144
85.9706 -0.042
86.0009 0.373
86.0312 -0.149
86.0614 -0.098
86.0917 0.006
86.1220 0.162
86.1523 -0.463
86.1826 0.370
86.2128 -0.202
86.2431 0.007
86.2734 0.009
86.3037 0.531
86.3340 0.221
86.3642 0.119
86.3945 0.278
86.4248 -0.187
86.4551 0.025
86.4853 0.289
86.5156 -0.019
86.5459 0.350
86.5762 0.251
86.6065 0.048
86.6367 -0.259
86.6670 -0.002
86.6973 0.046
86.7276 -0.217
86.7579 0.405
86.7881 -0.014
86.8184 0.349
86.8487 -0.382
86.8790 -0.175
86.9092 -0.176
86.9395 -0.020
86.9698 0.032
87.0001 0.501
87.0304 0.085
87.0606 -0.227
87.0909 -0.181
87.1212 0.594
87.1515 -0.401
87.1818 -0.042
87.2120 0.318
87.2423 0.313
87.2726 0.205
87.3029 0.097
87.3331 0.198
87.3634 0.351
87.3937 -0.121
87.4240 -0.071
87.4543 -0.281
87.4845 0.446
87.5148 -0.128
87.5451 -0.025
87.5754 -0.130
87.6057 0.078
87.6359 0.026
87.6662 0.079
87.6965 -0.233
87.7268 -0.233
87.7571 -0.027
87.7873 -0.082
87.8176 0.177
87.8479 0.175
87.8782 -0.035
87.9084 0.172
87.9387 0.172
87.9690 0.276
87.9993 0.015
88.0296 0.380
88.0598 0.381
88.0901 0.122
88.1204 0.071
88.1507 0.386
88.1810 -0.081
88.2112 0.286
88.2415 0.185
88.2718 -0.124
88.3021 0.608
88.3323 0.248
88.3626 0.148
88.3929 0.257
88.4232 -0.311
88.4535 -0.226
88.4837 0.590
88.5140 -0.001
88.5443 0.866
88.5746 0.276
88.6049 0.416
88.6351 0.243
88.6654 0.591
88.6957 0.471
88.7260 0.664
88.7562 0.076
88.7865 0.218
88.8168 0.308
88.8471 0.137
88.8774 0.696
88.9076 0.891
88.9379 0.670
88.9682 0.241
88.9985 1.114
89.0288 0.790
89.0590 0.518
89.0893 1.027
89.1196 0.652
89.1499 1.162
89.1801 1.152
89.2104 1.455
89.2407 1.654
89.2710 1.488
89.3013 1.011
89.3315 1.315
89.3618 2.140
89.3921 1.716
89.4224 0.667
89.4527 1.598
89.4829 0.914
89.5132 2.314
89.5435 1.423
89.5738 1.573
89.6040 1.881
89.6343 1.251
89.6646 1.767
89.6949 1.659
89.7252 0.666
89.7554 0.662
89.7857 1.440
89.8160 1.281
89.8463 1.331
89.8766 0.392
89.9068 0.859
89.9371 0.858
89.9674 0.857
89.9977 0.023
90.0279 0.648
90.0582 0.543
90.0885 0.388
90.1188 0.128
90.1491 0.442
90.1793 0.496
90.2096 0.133
90.2399 0.500
90.2702 0.450
90.3005 -0.068
90.3307 0.196
90.3610 0.252
90.3913 -0.369
90.4216 -0.052
90.4518 -0.204
90.4821 0.374
90.5124 0.015
90.5427 0.282
90.5730 -0.389
90.6032 -0.226
90.6335 -0.010
90.6638 -0.263
90.6941 -0.150
90.7244 -0.141
90.7546 0.024
90.7849 -0.592
90.8152 0.043
90.8455 0.053
90.8758 0.740
90.9060 -0.239
90.9363 0.293
90.9666 0.565
90.9969 -0.412
91.0271 0.277
91.0574 -0.231
91.0877 -0.010
91.1180 -0.101
91.1483 -0.140
91.1785 0.395
91.2088 -0.268
91.2391 0.372
91.2694 0.543
91.2997 0.038
91.3299 -0.363
91.3602 -0.010
91.3905 -0.229
91.4208 0.281
91.4510 0.166
91.4813 0.364
91.5116 -0.374
91.5419 0.033
91.5722 0.076
91.6024 -0.089
91.6327 0.163
91.6630 -0.053
91.6933 -0.008
91.7236 -0.432
91.7538 0.238
91.7841 -0.289
91.8144 0.121
91.8447 0.272
91.8749 0.110
91.9052 0.157
91.9355 0.517
91.9658 0.096
91.9961 0.456
92.0263 0.036
92.0566 -0.019
92.0869 0.030
92.1172 -0.389
92.1475 0.021
92.1777 -0.245
92.2080 0.166
92.2383 -0.100
92.2686 0.051
92.2988 -0.266
92.3291 -0.009
92.3594 0.091
92.3897 0.192
92.4200 0.398
92.4502 0.291
92.4805 -0.336
92.5108 0.496
92.5411 0.234
92.5714 0.545
92.6016 0.753
92.6319 0.231
92.6622 0.544
92.6925 0.596
92.7227 0.389
92.7530 -0.183
92.7833 1.016
92.8136 0.341
92.8439 0.291
92.8741 0.085
92.9044 0.921
92.9347 -0.118
92.9650 0.459
92.9953 0.202
93.0255 -0.158
93.0558 0.003
93.0861 0.112
93.1164 0.378
93.1466 0.019
93.1769 0.181
93.2072 0.083
93.2375 -0.379
93.2678 -0.007
93.2980 -0.260
93.3283 -0.207
93.3586 -0.153
93.3889 0.735
93.4192 -0.044
93.4494 0.428
93.4797 0.483
93.5100 0.487
93.5403 0.074
93.5706 -0.338
93.6008 0.187
93.6311 0.192
93.6614 0.250
93.6917 -0.161
93.7219 -0.311
93.7522 0.214
93.7825 0.948
93.8128 -0.036
93.8431 -0.083
93.8733 -0.285
93.9036 0.117
93.9339 0.414
93.9642 0.504
93.9945 -0.083
94.0247 0.112
94.0550 0.151
94.0853 -0.383
94.1156 0.178
94.1458 0.270
94.1761 -0.002
94.2064 -0.118
94.2367 0.548
94.2670 0.537
94.2972 0.735
94.3275 -0.004
94.3578 0.247
94.3881 0.133
94.4184 -0.396
94.4486 0.116
94.4789 0.472
94.5092 0.308
94.5395 0.561
94.5697 0.554
94.6000 -0.130
94.6303 0.332
94.6606 0.274
94.6909 0.164
94.7211 0.888
94.7514 0.727
94.7817 0.461
94.8120 0.822
94.8423 1.130
94.8725 1.022
94.9028 0.759
94.9331 0.912
94.9634 1.534
94.9936 0.907
95.0239 0.905
95.0542 1.112
95.0845 0.434
95.1148 1.683
95.1450 1.683
95.1753 1.162
95.2056 1.735
95.2359 1.840
95.2662 1.007
95.2964 0.644
95.3267 1.219
95.3570 1.012
95.3873 1.171
95.4175 1.278
95.4478 1.333
95.4781 1.753
95.5084 1.236
95.5387 0.928
95.5689 0.464
95.5992 0.521
95.6295 0.995
95.6598 1.052
95.6901 0.485
95.7203 0.492
95.7506 0.707
95.7809 0.401
95.8112 0.513
95.8414 0.781
95.8717 0.737
95.9020 0.537
95.9323 0.546
95.9626 0.763
95.9928 0.929
96.0231 0.470
96.0534 0.220
96.0837 0.126
96.1140 0.033
96.1442 0.148
96.1745 -0.153
96.2048 0.120
96.2351 0.288
96.2653 -0.063
96.2956 0.158
96.3259 0.067
96.3562 0.393
96.3865 -0.113
96.4167 -0.255
96.4470 -0.255
96.4773 0.214
96.5076 0.476
96.5379 -0.200
96.5681 0.114
96.5984 0.221
96.6287 0.067
96.6590 -0.243
96.6893 -0.135
96.7195 -0.288
96.7498 0.601
96.7801 -0.072
96.8104 0.298
96.8406 -0.166
96.8709 0.204
96.9012 0.470
96.9315 -0.045
96.9618 0.170
96.9920 0.385
97.0223 -0.285
97.0526 0.035
97.0829 0.043
97.1132 0.363
97.1434 -0.149
97.1737 -0.244
97.2040 0.056
97.2343 0.253
97.2645 0.814
97.2948 -0.447
97.3251 0.064
97.3554 -0.311
97.3857 -0.008
97.4159 0.139
97.4462 0.443
97.4765 -0.243
97.5068 -0.199
97.5371 -0.103
97.5673 0.255
97.5976 0.091
97.6279 -0.124
97.6582 -0.286
97.6884 0.489
97.7187 0.015
97.7490 0.218
97.7793 -0.152
97.8096 -0.260
97.8398 0.146
97.8701 -0.125
97.9004 -0.187
97.9307 0.116
97.9610 -0.102
97.9912 0.254
98.0215 0.037
98.0518 0.237
98.0821 0.229
98.1123 0.170
98.1426 0.371
98.1729 -0.209
98.2032 0.254
98.2335 0.821
98.2637 0.554
98.2940 0.132
98.3243 1.117
98.3546 0.592
98.3849 0.587
98.4151 0.375
98.4454 0.632
98.4757 0.420
98.5060 0.574
98.5362 1.509
98.5665 0.777
98.5968 0.463
98.6271 0.774
98.6574 1.815
98.6876 0.981
98.7179 0.824
98.7482 1.241
98.7785 0.252
98.8088 0.304
98.8390 0.410
98.8693 0.515
98.8996 0.413
98.9299 0.259
98.9601 0.574
98.9904 0.108
99.0207 0.475
99.0510 0.010
99.0813 0.483
99.1115 -0.086
99.1418 -0.342
99.1721 0.184
99.2024 0.554
99.2327 -0.065
99.2629 -0.736
99.2932 0.364
99.3235 -0.307
99.3538 -0.091
99.3841 0.281
99.4143 -0.232
99.4446 0.245
99.4749 -0.059
99.5052 0.366
99.5354 -0.041
99.5657 -0.188
99.5960 0.551
99.6263 -0.064
99.6566 -0.209
99.6868 0.166
99.7171 0.282
99.7474 0.033
99.7777 -0.059
99.8080 -0.255
99.8382 -0.035
99.8685 0.081
99.8988 0.145
99.9291 -0.050
99.9593 0.223
99.9896 0.914
100.0199 0.302
100.0502 -0.100
100.0805 0.747
100.1107 -0.071
100.1410 -0.212
100.1713 0.116
100.2016 -0.389
100.2319 -0.078
100.2621 0.026
100.2924 0.233
100.3227 -0.287
100.3530 0.130
100.3832 0.026
100.4135 0.287
100.4438 0.080
100.4741 -0.335
100.5044 0.032
100.5346 -0.122
100.5649 -0.171
100.5952 0.197
100.6255 0.252
100.6558 -0.265
100.6860 0.052
100.7163 0.786
100.7466 0.113
100.7769 0.119
100.8071 -0.292
100.8374 0.026
100.8677 0.553
100.8980 0.508
100.9283 0.046
100.9585 -0.259
100.9888 -0.008
101.0191 0.034
101.0494 -0.288
101.0797 0.433
101.1099 0.216
101.1402 0.572
101.1705 0.096
101.2008 0.036
101.2310 0.237
101.2613 0.127
101.2916 0.276
101.3219 -0.042
101.3522 0.525
101.3824 -0.366
101.4127 -0.110
101.4430 0.406
101.4733 0.246
101.5036 0.606
101.5338 -0.126
101.5641 0.079
101.5944 0.232
101.6247 -0.031
101.6549 0.644
101.6852 -0.191
101.7155 -0.244
101.7458 -0.054
101.7761 -0.124
101.8063 0.588
101.8366 -0.211
101.8669 -0.019
101.8972 0.225
101.9275 -0.156
101.9577 0.193
101.9880 0.334
102.0183 -0.202
102.0486 0.044
102.0788 -0.127
102.1091 0.432
102.1394 -0.154
102.1697 0.093
102.2000 0.236
102.2302 0.015
102.2605 0.264
102.2908 0.564
102.3211 0.188
102.3514 0.021
102.3816 0.114
102.4119 0.573
102.4422 0.563
102.4725 0.188
102.5028 -0.029
102.5330 -0.142
102.5633 0.266
102.5936 0.518
102.6239 0.718
102.6541 -0.383
102.6844 0.026
102.7147 -0.189
102.7450 0.013
102.7753 0.059
102.8055 -0.051
102.8358 0.412
102.8661 -0.061
102.8964 0.350
102.9267 0.398
102.9569 0.550
102.9872 0.443
103.0175 0.075
103.0478 0.228
103.0780 0.590
103.1083 0.379
103.1386 0.378
103.1689 0.324
103.1992 0.323
103.2294 0.009
103.2597 0.842
103.2900 0.426
103.3203 0.113
103.3506 0.531
103.3808 0.427
103.4111 0.793
103.4414 -0.038
103.4717 -0.141
103.5019 -0.034
103.5322 0.073
103.5625 -0.132
103.5928 -0.442
103.6231 0.180
103.6533 0.333
103.6836 0.590
103.7139 0.639
103.7442 0.377
103.7745 1.468
103.8047 0.894
103.8350 0.476
103.8653 1.256
103.8956 1.672
103.9258 0.735
103.9561 1.829
103.9864 1.569
104.0167 0.736
104.0470 0.738
104.0772 1.208
104.1075 0.741
104.1378 1.160
104.1681 0.642
104.1984 1.478
104.2286 0.648
104.2589 0.808
104.2892 0.031
104.3195 0.087
104.3497 1.082
104.3800 0.306
104.4103 0.624
104.4406 0.942
104.4709 0.531
104.5011 0.538
104.5314 0.545
104.5617 -0.021
104.5920 0.768
104.6223 0.359
104.6525 0.576
104.6828 0.949
104.7131 0.594
104.7434 0.186
104.7736 0.561
104.8039 0.154
104.8342 0.269
104.8645 0.436
104.8948 0.030
104.9250 -0.271
104.9553 -0.164
104.9856 0.047
105.0159 -0.002
105.0462 -0.467
105.0764 0.683
105.1067 0.114
105.1370 -0.246
105.1673 -0.241
105.1975 -0.132
105.2278 -0.022
105.2581 -0.224
105.2884 -0.218
105.3187 -0.211
105.3489 -0.152
105.3792 -0.040
105.4095 -0.189
105.4398 0.236
105.4701 0.297
105.5003 0.045
105.5306 0.158
105.5609 0.116
105.5912 -0.187
105.6215 -0.072
105.6517 -0.166
105.6820 -0.363
105.7123 0.220
105.7426 -0.133
105.7728 0.035
105.8031 -0.162
105.8334 0.111
105.8637 0.123
105.8940 -0.489
105.9242 0.045
105.9545 0.736
105.9848 -0.396
106.0151 0.243
106.0454 -0.263
106.0756 0.116
106.1059 -0.389
106.1362 -0.080
106.1665 0.698
106.1967 0.643
106.2270 0.380
106.2573 -0.248
106.2876 0.480
106.3179 0.270
106.3481 -0.252
106.3784 -0.149
106.4087 0.111
106.4390 -0.045
106.4693 0.007
106.4995 0.320
106.5298 -0.148
106.5601 0.114
106.5904 -0.040
106.6206 0.222
106.6509 -0.140
106.6812 -0.033
106.7115 0.439
106.7418 0.025
106.7720 -0.023
106.8023 -0.175
106.8326 0.142
106.8629 0.772
106.8932 0.152
106.9234 -0.311
106.9537 -0.112
106.9840 0.451
107.0143 0.129
107.0445 0.017
107.0748 0.008
107.1051 0.729
107.1354 0.097
107.1657 0.194
107.1959 -0.178
107.2262 0.284
107.2565 0.695
107.2868 0.012
107.3171 0.892
107.3473 0.053
107.3776 -0.316
107.4079 0.513
107.4382 -0.220
107.4684 -0.068
107.4987 -0.123
107.5290 0.290
107.5593 0.079
107.5896 -0.027
107.6198 0.440
107.6501 0.074
107.6804 0.229
107.7107 -0.137
107.7410 0.071
107.7712 0.071
107.8015 0.279
107.8318 0.436
107.8621 0.072
107.8923 -0.031
107.9226 0.284
107.9529 -0.392
107.9832 0.027
108.0135 0.186
108.0437 -0.019
108.0740 0.297
108.1043 -0.012
108.1346 0.305
108.1649 0.153
108.1951 0.210
108.2254 -0.098
108.2557 0.064
108.2860 0.747
108.3163 0.493
108.3465 0.291
108.3768 0.402
108.4071 -0.268
108.4374 0.521
108.4676 -0.304
108.4979 0.017
108.5282 -0.183
108.5585 0.191
108.5888 -0.165
108.6190 -0.311
108.6493 0.196
108.6796 0.444
108.7099 0.327
108.7402 -0.414
108.7704 0.095
108.8007 0.135
108.8310 0.228
108.8613 -0.043
108.8915 -0.001
108.9218 0.562
108.9521 -0.281
108.9824 0.022
109.0127 -0.144
109.0429 -0.204
109.0732 -0.213
109.1035 0.300
109.1338 -0.228
109.1641 -0.079
109.1943 -0.086
109.2246 -0.093
109.2549 -0.255
109.2852 0.052
109.3154 0.047
109.3457 0.043
109.3760 0.091
109.4063 -0.121
109.4366 0.032
109.4668 -0.127
109.4971 0.026
109.5274 0.024
109.5577 0.022
109.5880 -0.240
109.6182 0.488
109.6485 -0.138
109.6788 -0.086
109.7091 0.174
109.7393 0.487
109.7696 0.487
109.7999 0.071
109.8302 -0.188
109.8605 0.543
109.8907 0.597
109.9210 0.547
109.9513 0.602
109.9816 0.813
110.0119 0.608
110.0421 0.300
110.0724 0.720
110.1027 0.152
110.1330 0.521
110.1632 0.214
110.1935 0.480
110.2238 0.798
110.2541 0.856
110.2844 1.280
110.3146 0.557
110.3449 0.409
110.3752 0.572
110.4055 0.789
110.4358 1.266
110.4660 0.806
110.4963 1.284
110.5266 1.189
110.5569 0.730
110.5871 0.792
110.6174 1.219
110.6477 0.917
110.6780 0.668
110.7083 1.044
110.7385 0.848
110.7688 -0.234
110.7991 0.821
110.8294 1.250
110.8597 0.847
110.8899 0.652
110.9202 0.354
110.9505 1.149
110.9808 -0.086
111.0110 -0.227
111.0413 -0.185
111.0716 1.054
111.1019 0.159
111.1322 0.983
111.1624 -0.015
111.1927 0.809
111.2230 0.540
111.2533 0.376
111.2836 0.369
111.3138 0.986
111.3441 -0.114
111.3744 0.296
111.4047 -0.023
111.4350 0.232
111.4652 -0.086
111.4955 0.325
111.5258 0.216
111.5561 -0.205
111.5863 0.312
111.6166 0.516
111.6469 0.044
111.6772 0.302
111.7075 -0.274
111.7377 -0.172
111.7680 -0.122
111.7983 -0.124
111.8286 0.031
111.8589 0.083
111.8891 0.030
111.9194 -0.022
111.9497 0.395
111.9800 0.343
112.0102 0.292
112.0405 -0.124
112.0708 -0.226
112.1011 0.349
112.1314 0.455
112.1616 0.510
112.1919 -0.164
112.2222 -0.057
112.2525 -0.157
112.2828 -0.153
112.3130 0.060
112.3433 -0.144
112.3736 0.382
112.4039 0.075
112.4341 0.029
112.4644 -0.173
112.4947 -0.011
112.5250 0.413
112.5553 0.160
112.5855 0.428
112.6158 -0.345
112.6461 -0.233
112.6764 0.035
112.7067 -0.062
112.7369 0.415
112.7672 0.579
112.7975 -0.141
112.8278 -0.184
112.8580 -0.227
112.8883 0.139
112.9186 0.923
112.9489 0.040
112.9792 0.095
113.0094 -0.058
113.0397 0.050
113.0700 0.315
113.1003 0.006
113.1306 0.220
113.1608 -0.088
113.1911 -0.187
113.2214 -0.233
113.2517 0.223
113.2819 0.263
113.3122 0.146
113.3425 0.134
113.3728 0.539
113.4031 0.060
113.4333 0.153
113.4636 0.247
113.4939 0.185
113.5242 -0.086
113.5545 0.009
113.5847 -0.156
113.6150 0.565
113.6453 0.035
113.6756 -0.285
113.7058 0.020
113.7361 0.221
113.7664 0.578
113.7967 -0.001
113.8270 0.461
113.8572 0.611
113.8875 -0.280
113.9178 0.705
113.9481 0.335
113.9784 0.435
114.0086 0.327
114.0389 0.375
114.0692 0.215
114.0995 -0.361
114.1298 0.366
114.1600 0.155
114.1903 0.257
114.2206 0.255
114.2509 0.150
114.2811 0.357
114.3114 -0.060
114.3417 0.200
114.3720 -0.321
114.4023 -0.008
114.4325 0.045
114.4628 0.098
114.4931 -0.317
114.5234 0.258
114.5537 -0.313
114.5839 -0.154
114.6142 0.005
114.6445 0.425
114.6748 -0.144
114.7050 -0.244
114.7353 -0.004
114.7656 0.028
114.7959 0.374
114.8262 0.146
114.8564 -0.237
114.8867 0.109
114.9170 0.560
114.9473 -0.447
114.9776 0.369
115.0078 0.352
115.0381 -0.081
115.0684 -0.046
115.0987 -0.061
115.1289 -0.025
115.1592 -0.248
115.1895 0.935
115.2198 0.243
115.2501 -0.135
115.2803 0.268
115.3106 0.046
115.3409 0.345
115.3712 0.124
115.4015 0.268
115.4317 0.100
115.4620 0.245
115.4923 0.598
115.5226 0.796
115.5528 0.733
115.5831 0.306
115.6134 0.244
115.6437 0.651
115.6740 0.122
115.7042 0.738
115.7345 0.573
115.7648 1.086
115.7951 0.766
115.8254 0.342
115.8556 0.699
115.8859 0.172
115.9162 0.738
115.9465 0.889
115.9767 0.571
116.0070 0.982
116.0373 0.925
116.0676 1.233
116.0979 1.177
116.1281 1.121
116.1584 1.430
116.1887 0.646
116.2190 1.320
116.2493 1.682
116.2795 0.899
116.3098 0.741
116.3401 0.844
116.3704 1.989
116.4006 1.051
116.4309 1.363
116.4612 1.051
116.4915 0.687
116.5218 0.323
116.5520 0.897
116.5823 1.471
116.6126 0.796
116.6429 0.746
116.6732 0.541
116.7034 0.856
116.7337 0.495
116.7640 0.759
116.7943 0.086
116.8245 0.298
116.8548 0.043
116.8851 0.777
116.9154 0.366
116.9457 0.736
116.9759 0.482
117.0062 0.072
117.0365 0.495
117.0668 -0.019
117.0971 -0.011
117.1273 0.049
117.1576 0.318
117.1879 0.222
117.2182 -0.342
117.2485 0.136
117.2787 0.354
117.3090 -0.729
117.3393 0.219
117.3696 -0.239
117.3998 -0.280
117.4301 0.248
117.4604 -0.474
117.4907 0.003
117.5210 -0.197
117.5512 0.228
117.5815 0.029
117.6118 -0.379
117.6421 0.204
117.6724 -0.255
117.7026 0.120
117.7329 -0.234
117.7632 0.038
117.7935 -0.003
117.8237 0.061
117.8540 -0.083
117.8843 -0.070
117.9146 -0.266
117.9449 -0.209
117.9751 0.316
118.0054 0.060
118.0357 0.378
118.0660 0.331
118.0963 -0.340
118.1265 0.343
118.1568 -0.067
118.1871 -0.060
118.2174 -0.052
118.2476 0.684
118.2779 0.276
118.3082 0.284
118.3385 0.553
118.3688 -0.479
118.3990 0.259
118.4293 0.165
118.4596 0.019
118.4899 0.081
118.5202 0.092
118.5504 -0.209
118.5807 -0.250
118.6110 -0.091
118.6413 -0.036
118.6715 -0.032
118.7018 -0.185
118.7321 -0.233
118.7624 0.449
118.7927 0.297
118.8229 0.198
118.8532 0.204
118.8835 -0.467
118.9138 -0.147
118.9441 0.590
118.9743 -0.079
119.0046 0.295
119.0349 -0.061
119.0652 0.313
119.0954 0.271
119.1257 0.229
119.1560 0.656
119.1863 -0.062
119.2166 -0.103
119.2468 -0.040
119.2771 0.181
119.3074 0.193
119.3377 0.570
119.3680 -0.094
119.3982 0.128
119.4285 0.193
119.4588 -0.105
119.4891 0.274
119.5193 0.185
119.5496 -0.061
119.5799 1.101
119.6102 0.179
119.6405 0.091
119.6707 0.680
119.7010 0.124
119.7313 0.402
119.7616 0.940
119.7919 0.750
119.8221 0.352
119.8524 0.526
119.8827 0.233
119.9130 0.304
119.9433 0.116
119.9735 0.605
120.0038 0.000
