'Id: "" Comment: "" Operator: "Lab Manager" Anode: "Cu" Scantype: "Locked Coupled" TimePerStep: "19.2" X: "9999" Y: "9999" Z: "9999" 
10.0015 0.000
10.0318 1.182
10.0620 1.636
10.0923 0.163
10.1226 1.034
10.1529 0.499
10.1832 0.329
10.2134 0.836
10.2437 0.979
10.2740 0.445
10.3043 0.120
10.3346 0.316
10.3648 0.408
10.3951 0.605
10.4254 0.021
10.4557 0.739
10.4859 0.624
10.5162 0.145
10.5465 0.500
10.5768 0.647
10.6071 0.064
10.6373 0.420
10.6676 0.463
10.6979 0.038
10.7282 0.239
10.7585 0.752
10.7887 0.953
10.8190 0.008
10.8493 0.366
10.8796 0.255
10.9098 0.562
10.9401 0.452
10.9704 0.082
11.0007 0.233
11.0310 -0.657
11.0612 0.536
11.0915 0.376
11.1218 1.049
11.1521 0.108
11.1824 -0.416
11.2126 -0.045
11.2429 0.952
11.2732 -0.291
11.3035 0.446
11.3337 -0.744
11.3640 0.931
11.3943 0.002
11.4246 -0.302
11.4549 0.645
11.4851 0.290
11.5154 -0.013
11.5457 -0.420
11.5760 0.112
11.6063 0.852
11.6365 0.498
11.6668 -0.584
11.6971 -0.312
11.7274 0.013
11.7577 -0.079
11.7879 0.194
11.8182 -0.314
11.8485 -0.144
11.8788 0.338
11.9090 -0.064
11.9393 0.888
11.9696 0.590
11.9999 0.240
12.0302 -0.005
12.0604 0.115
12.0907 -0.442
12.1210 -0.063
12.1513 -0.049
12.1816 0.695
12.2118 0.345
12.2421 0.360
12.2724 0.063
12.3027 -0.702
12.3329 -0.028
12.3632 0.178
12.3935 0.175
12.4238 0.330
12.4541 0.849
12.4843 1.108
12.5146 0.847
12.5449 0.534
12.5752 -0.196
12.6055 -0.300
12.6357 0.325
12.6660 -0.143
12.6963 0.848
12.7266 0.328
12.7568 -0.191
12.7871 0.332
12.8174 -0.135
12.8477 0.024
12.8780 0.131
12.9082 -0.230
12.9385 -0.226
12.9688 0.194
12.9991 0.407
13.0294 0.568
13.0596 0.156
13.0899 0.421
13.1202 -0.563
13.1505 -0.192
13.1807 -0.186
13.2110 -0.075
13.2413 0.192
13.2716 0.668
13.3019 0.311
13.3321 0.058
13.3624 -0.090
13.3927 0.075
13.4230 0.552
13.4533 -0.480
13.4835 -0.054
13.5138 0.008
13.5441 0.486
13.5744 0.705
13.6046 0.872
13.6349 -0.054
13.6652 0.165
13.6955 -0.187
13.7258 0.189
13.7560 -0.059
13.7863 -0.255
13.8166 0.331
13.8469 0.449
13.8772 0.723
13.9074 0.372
13.9377 0.803
13.9680 0.662
13.9983 0.052
14.0285 1.421
14.0588 0.603
14.0891 -0.058
14.1194 0.167
14.1497 -0.442
14.1799 -0.140
14.2102 -0.307
14.2405 0.516
14.2708 0.402
14.3011 0.914
14.3313 0.071
14.3616 0.948
14.3919 0.314
14.4222 0.671
14.4524 -0.743
14.4827 0.239
14.5130 0.075
14.5433 1.110
14.5736 0.791
14.6038 0.316
14.6341 0.310
14.6644 0.252
14.6947 0.299
14.7250 0.659
14.7552 0.758
14.7855 0.285
14.8158 0.125
14.8461 0.173
14.8764 0.743
14.9066 -0.145
14.9369 0.269
14.9672 -0.255
14.9975 -0.361
15.0277 0.523
15.0580 -0.156
15.0883 0.052
15.1186 -0.053
15.1489 0.363
15.1791 0.519
15.2094 -0.105
15.2397 0.468
15.2700 -0.781
15.3003 0.262
15.3305 -0.049
15.3608 0.109
15.3911 0.007
15.4214 -0.251
15.4516 -0.092
15.4819 0.536
15.5122 1.373
15.5425 0.023
15.5728 -0.806
15.6030 0.028
15.6333 0.445
15.6636 0.967
15.6939 0.188
15.7242 -0.175
15.7544 -0.016
15.7847 0.195
15.8150 1.083
15.8453 0.305
15.8755 0.986
15.9058 0.104
15.9361 -0.360
15.9664 0.061
15.9967 0.118
16.0269 1.165
16.0572 0.337
16.0875 -0.126
16.1178 0.089
16.1481 0.199
16.1783 0.362
16.2086 0.005
16.2389 0.690
16.2692 0.385
16.2994 0.237
16.3297 0.141
16.3600 0.514
16.3903 -0.362
16.4206 0.481
16.4508 0.907
16.4811 0.188
16.5114 -0.322
16.5417 -0.468
16.5720 0.357
16.6022 0.246
16.6325 0.655
16.6628 0.231
16.6931 0.901
16.7233 0.061
16.7536 0.420
16.7839 0.518
16.8142 0.148
16.8445 -0.326
16.8747 0.294
16.9050 -0.023
16.9353 0.233
16.9656 0.855
16.9959 0.851
17.0261 0.535
17.0564 0.324
17.0867 0.374
17.1170 0.892
17.1472 0.630
17.1775 -0.101
17.2078 0.575
17.2381 0.001
17.2684 0.157
17.2986 1.146
17.3289 0.260
17.3592 -0.208
17.3895 -0.416
17.4198 0.260
17.4500 -0.418
17.4803 0.363
17.5106 -0.263
17.5409 0.466
17.5712 0.102
17.6014 -0.470
17.6317 0.208
17.6620 -0.468
17.6923 -0.159
17.7225 0.515
17.7528 0.096
17.7831 -0.063
17.8134 -0.273
17.8437 0.194
17.8739 -0.016
17.9042 0.296
17.9345 -0.278
17.9648 1.024
17.9951 0.242
18.0253 -0.383
18.0556 0.191
18.0859 -0.225
18.1162 0.037
18.1464 0.142
18.1767 0.405
18.2070 0.511
18.2373 0.409
18.2676 -0.109
18.2978 -0.210
18.3281 0.315
18.3584 -0.098
18.3887 0.531
18.4190 -0.038
18.4492 -0.345
18.4795 -0.186
18.5098 0.025
18.5401 -0.440
18.5703 0.085
18.6006 0.506
18.6309 0.302
18.6612 -0.058
18.6915 -0.105
18.7217 0.109
18.7520 -0.458
18.7823 0.329
18.8126 -0.342
18.8429 -0.294
18.8731 0.015
18.9034 0.063
18.9337 -0.201
18.9640 0.682
18.9942 0.523
19.0245 -0.261
19.0548 -0.315
19.0851 -0.056
19.1154 0.932
19.1456 -0.163
19.1759 -0.111
19.2062 -0.216
19.2365 -0.268
19.2668 0.357
19.2970 -0.059
19.3273 0.671
19.3576 0.256
19.3879 0.049
19.4181 -0.053
19.4484 -0.364
19.4787 0.106
19.5090 0.264
19.5393 0.579
19.5695 -0.304
19.5998 0.271
19.6301 -0.299
19.6604 0.330
19.6907 0.698
19.7209 0.129
19.7512 0.341
19.7815 -0.071
19.8118 0.351
19.8420 -0.425
19.8723 -0.107
19.9026 0.420
19.9329 -0.251
19.9632 -0.036
19.9934 -0.082
20.0237 0.082
20.0540 -0.119
20.0843 0.149
20.1146 -0.364
20.1448 -0.105
20.1751 0.050
20.2054 0.517
20.2357 0.100
20.2659 -0.109
20.2962 -0.005
20.3265 0.464
20.3568 0.308
20.3871 0.309
20.4173 -0.471
20.4476 0.311
20.4779 0.313
20.5082 -0.049
20.5385 0.318
20.5687 0.060
20.5990 0.323
20.6293 -0.663
20.6596 0.174
20.6899 0.543
20.7201 -0.338
20.7504 0.187
20.7807 0.244
20.8110 0.250
20.8412 -0.161
20.8715 -0.780
20.9018 0.208
20.9321 0.312
20.9624 0.989
20.9926 0.520
21.0229 -0.365
21.0532 -0.104
21.0835 -0.364
21.1138 0.157
21.1440 0.625
21.1743 0.209
21.2046 0.314
21.2349 -0.519
21.2651 0.524
21.2954 0.421
21.3257 0.163
21.3560 -0.252
21.3863 -0.093
21.4165 0.274
21.4468 0.590
21.4771 0.281
21.5074 0.232
21.5377 0.341
21.5679 -0.332
21.5982 0.037
21.6285 0.251
21.6588 0.256
21.6890 -0.207
21.7193 0.320
21.7496 -0.195
21.7799 0.489
21.8102 -0.025
21.8404 -0.070
21.8707 0.771
21.9010 0.519
21.9313 0.788
21.9616 0.067
21.9918 0.597
22.0221 -0.279
22.0524 0.147
22.0827 0.001
22.1129 -0.406
22.1432 0.386
22.1735 0.709
22.2038 0.096
22.2341 0.576
22.2643 -0.193
22.2946 -0.442
22.3249 0.237
22.3552 0.186
22.3855 -0.125
22.4157 0.398
22.4460 -0.589
22.4763 -0.274
22.5066 0.979
22.5368 0.410
22.5671 -0.055
22.5974 -0.416
22.6277 0.094
22.6580 -0.021
22.6882 0.593
22.7185 0.530
22.7488 0.208
22.7791 -0.114
22.8094 0.136
22.8396 -0.341
22.8699 0.067
22.9002 0.318
22.9305 0.206
22.9607 0.615
22.9910 0.243
23.0213 -0.025
23.0516 -0.292
23.0819 0.431
23.1121 0.008
23.1424 -0.050
23.1727 0.101
23.2030 -0.061
23.2333 -0.274
23.2635 0.242
23.2938 -0.335
23.3241 0.338
23.3544 -0.290
23.3846 -0.033
23.4149 0.172
23.4452 0.847
23.4755 0.688
23.5058 0.269
23.5360 0.111
23.5663 -0.150
23.5966 -0.360
23.6269 0.421
23.6572 -0.152
23.6874 -0.048
23.7177 -0.048
23.7480 0.421
23.7783 -0.046
23.8086 0.320
23.8388 -0.043
23.8691 -0.042
23.8994 -0.091
23.9297 -0.193
23.9599 -0.763
23.9902 0.386
24.0205 -0.340
24.0508 0.341
24.0811 0.762
24.1113 0.454
24.1416 0.251
24.1719 0.152
24.2022 -0.416
24.2325 -0.104
24.2627 0.051
24.2930 0.207
24.3233 0.103
24.3536 -0.834
24.3838 0.833
24.4141 -0.156
24.4444 0.054
24.4747 0.524
24.5050 -0.620
24.5352 0.163
24.5655 0.322
24.5958 -0.300
24.6261 -0.245
24.6564 0.227
24.6866 -0.185
24.7169 -0.494
24.7472 0.235
24.7775 0.859
24.8077 -0.234
24.8380 -0.182
24.8683 -0.390
24.8986 0.228
24.9289 0.637
24.9591 -0.256
24.9894 0.467
25.0197 -0.634
25.0500 0.037
25.0803 0.396
25.1105 -0.495
25.1408 -0.292
25.1711 -0.245
25.2014 0.428
25.2316 0.059
25.2619 0.367
25.2922 0.260
25.3225 0.204
25.3528 -0.267
25.3830 0.355
25.4133 0.197
25.4436 -0.066
25.4739 -0.172
25.5042 0.608
25.5344 0.607
25.5647 -0.175
25.5950 -0.175
25.6253 0.346
25.6555 -0.175
25.6858 -0.018
25.7161 -0.329
25.7464 0.032
25.7767 0.394
25.8069 0.183
25.8372 -0.392
25.8675 0.023
25.8978 -0.343
25.9281 0.594
25.9583 -0.918
25.9886 0.124
26.0189 0.019
26.0492 0.071
26.0794 0.385
26.1097 -0.240
26.1400 -0.134
26.1703 0.492
26.2006 0.129
26.2308 0.079
26.2611 0.447
26.2914 0.606
26.3217 -0.589
26.3520 -0.117
26.3822 -0.322
26.4125 0.568
26.4428 -0.157
26.4731 0.317
26.5034 -0.460
26.5336 -0.038
26.5639 0.176
26.5942 0.912
26.6245 -0.436
26.6547 -0.325
26.6850 0.035
26.7153 0.083
26.7456 -0.025
26.7759 0.440
26.8061 -0.188
26.8364 0.746
26.8667 0.171
26.8970 0.116
26.9273 0.479
26.9575 0.217
26.9878 -0.253
27.0181 0.892
27.0484 0.214
27.0786 -0.151
27.1089 0.370
27.1392 1.151
27.1695 0.162
27.1998 0.528
27.2300 0.686
27.2603 0.635
27.2906 0.012
27.3209 0.171
27.3512 0.069
27.3814 0.020
27.4117 0.075
27.4420 -0.025
27.4723 0.708
27.5025 -0.121
27.5328 -0.325
27.5631 0.129
27.5934 0.010
27.6237 0.516
27.6539 0.607
27.6842 0.957
27.7145 0.319
27.7448 0.254
27.7751 -0.071
27.8053 0.177
27.8356 0.321
27.8659 0.830
27.8962 0.559
27.9264 -0.338
27.9567 0.276
27.9870 -0.203
28.0173 -0.421
28.0476 1.132
28.0778 0.653
28.1081 0.332
28.1384 0.063
28.1687 0.679
28.1990 -0.058
28.2292 -0.118
28.2595 0.499
28.2898 0.492
28.3201 0.381
28.3503 -0.771
28.3806 -0.048
28.4109 0.571
28.4412 0.045
28.4715 0.717
28.5017 0.243
28.5320 0.447
28.5623 -0.599
28.5926 0.491
28.6229 -0.294
28.6531 -0.349
28.6834 -0.257
28.7137 0.252
28.7440 0.449
28.7742 -0.186
28.8045 -0.353
28.8348 0.207
28.8651 0.142
28.8954 0.391
28.9256 0.014
28.9559 0.003
28.9862 0.304
29.0165 1.440
29.0468 0.127
29.0770 0.429
29.1073 0.159
29.1376 0.254
29.1679 -0.120
29.1981 0.965
29.2284 -0.033
29.2587 0.375
29.2890 0.263
29.3193 0.100
29.3495 -0.220
29.3798 0.294
29.4101 -0.442
29.4404 -0.270
29.4707 0.579
29.5009 -0.134
29.5312 0.611
29.5615 -0.101
29.5918 0.020
29.6221 -0.015
29.6523 0.732
29.6826 0.438
29.7129 -0.221
29.7432 1.256
29.7734 0.077
29.8037 0.930
29.8340 0.637
29.8643 0.553
29.8946 0.521
29.9248 0.854
29.9551 0.198
29.9854 0.323
30.0157 0.657
30.0460 0.054
30.0762 0.805
30.1065 -0.630
30.1368 -0.399
30.1671 0.822
30.1973 0.585
30.2276 0.140
30.2579 -0.096
30.2882 0.345
30.3185 -0.463
30.3487 0.760
30.3790 -0.100
30.4093 0.342
30.4396 0.993
30.4699 0.030
30.5001 0.786
30.5304 0.657
30.5607 0.945
30.5910 2.743
30.6212 1.626
30.6515 1.966
30.6818 1.683
30.7121 0.983
30.7424 0.908
30.7726 1.302
30.8029 1.905
30.8332 0.894
30.8635 2.226
30.8938 2.622
30.9240 2.653
30.9543 3.466
30.9846 3.134
31.0149 5.145
31.0451 4.605
31.0754 4.898
31.1057 5.348
31.1360 4.757
31.1663 5.988
31.1965 6.387
31.2268 6.838
31.2571 10.415
31.2874 10.971
31.3177 11.944
31.3479 14.740
31.3782 15.089
31.4085 18.198
31.4388 20.475
31.4690 24.627
31.4993 27.216
31.5296 31.264
31.5599 33.386
31.5902 37.279
31.6204 39.505
31.6507 38.919
31.6810 36.458
31.7113 37.071
31.7416 30.444
31.7718 28.506
31.8021 25.213
31.8324 20.827
31.8627 18.004
31.8929 17.525
31.9232 14.077
31.9535 12.713
31.9838 8.329
32.0141 9.570
32.0443 8.051
32.0746 7.782
32.1049 5.638
32.1352 5.891
32.1655 5.363
32.1957 5.355
32.2260 2.849
32.2563 3.936
32.2866 3.409
32.3169 3.195
32.3471 2.148
32.3774 2.507
32.4077 1.356
32.4380 1.768
32.4682 1.868
32.4985 1.708
32.5288 1.080
32.5591 0.035
32.5894 0.709
32.6196 0.290
32.6499 0.235
32.6802 0.286
32.7105 0.596
32.7408 -0.238
32.7710 1.011
32.8013 0.177
32.8316 0.385
32.8619 1.218
32.8921 0.385
32.9224 0.125
32.9527 -1.436
32.9830 0.649
33.0133 0.963
33.0435 1.277
33.0738 -0.387
33.1041 -0.228
33.1344 -0.486
33.1647 0.127
33.1949 0.531
33.2252 0.363
33.2555 -0.742
33.2858 0.236
33.3160 0.330
33.3463 0.059
33.3766 0.518
33.4069 -0.117
33.4372 0.081
33.4674 -0.344
33.4977 0.063
33.5280 -0.258
33.5583 1.713
33.5886 1.237
33.6188 0.812
33.6491 1.014
33.6794 1.267
33.7097 1.469
33.7399 1.775
33.7702 2.238
33.8005 2.701
33.8308 3.269
33.8611 2.847
33.8913 3.571
33.9216 3.255
33.9519 5.334
33.9822 6.424
34.0125 7.150
34.0427 9.803
34.0730 10.425
34.1033 13.913
34.1336 14.067
34.1638 23.596
34.1941 27.709
34.2244 35.990
34.2547 46.406
34.2850 50.832
34.3152 53.176
34.3455 45.728
34.3758 37.083
34.4061 31.198
34.4364 24.793
34.4666 18.180
34.4969 18.182
34.5272 11.049
34.5575 8.499
34.5877 8.085
34.6180 6.630
34.6483 5.957
34.6786 5.440
34.7089 3.152
34.7391 2.688
34.7694 4.151
34.7997 3.948
34.8300 3.120
34.8603 2.136
34.8905 2.767
34.9208 1.836
34.9511 1.165
34.9814 2.943
35.0116 3.419
35.0419 2.125
35.0722 2.550
35.1025 2.141
35.1328 2.775
35.1630 2.836
35.1933 3.314
35.2236 1.970
35.2539 3.386
35.2842 3.084
35.3144 2.990
35.3447 4.199
35.3750 3.325
35.4053 5.159
35.4356 4.963
35.4658 5.340
35.4961 4.623
35.5264 7.657
35.5567 7.462
35.5869 7.788
35.6172 7.958
35.6475 11.097
35.6778 11.372
35.7081 11.491
35.7383 13.537
35.7686 15.584
35.7989 15.600
35.8292 18.897
35.8595 20.684
35.8897 25.910
35.9200 25.718
35.9503 34.277
35.9806 36.274
36.0108 39.417
36.0411 47.925
36.0714 48.882
36.1017 54.682
36.1320 55.535
36.1622 55.346
36.1925 52.866
36.2228 49.501
36.2531 49.313
36.2834 39.491
36.3136 38.522
36.3439 31.044
36.3742 28.201
36.4045 21.817
36.4347 18.611
36.4650 17.176
36.4953 13.293
36.5256 13.889
36.5559 12.663
36.5861 11.698
36.6164 9.483
36.6467 8.258
36.6770 6.512
36.7073 7.371
36.7375 5.782
36.7678 5.183
36.7981 5.366
36.8284 4.924
36.8586 3.962
36.8889 3.521
36.9192 2.559
36.9495 2.795
36.9798 2.407
37.0100 0.769
37.0403 1.840
37.0706 2.390
37.1009 2.108
37.1312 0.471
37.1614 1.595
37.1917 1.470
37.2220 1.292
37.2523 1.168
37.2825 2.033
37.3128 1.283
37.3431 0.795
37.3734 0.515
37.4037 0.027
37.4339 0.321
37.4642 0.094
37.4945 1.535
37.5248 0.579
37.5551 0.666
37.5853 0.545
37.6156 -0.045
37.6459 0.824
37.6762 0.495
37.7064 -0.041
37.7367 0.047
37.7670 1.334
37.7973 0.903
37.8276 1.149
37.8578 0.353
37.8881 1.329
37.9184 -0.039
37.9487 -0.365
37.9790 -0.026
38.0092 0.469
38.0395 0.339
38.0698 0.470
38.1001 0.862
38.1304 0.160
38.1606 -0.176
38.1909 0.268
38.2212 0.453
38.2515 -0.143
38.2817 1.084
38.3120 0.697
38.3423 0.206
38.3726 1.069
38.4029 0.475
38.4331 0.610
38.4634 0.016
38.4937 -0.109
38.5240 -0.390
38.5543 0.138
38.5845 0.041
38.6148 -0.056
38.6451 0.420
38.6754 0.220
38.7056 -0.345
38.7359 1.226
38.7662 0.558
38.7965 0.255
38.8268 0.473
38.8570 0.691
38.8873 -0.548
38.9176 0.295
38.9479 0.046
38.9782 0.005
39.0084 0.381
39.0387 0.758
39.0690 -0.011
39.0993 0.209
39.1295 0.639
39.1598 0.183
39.1901 0.666
39.2204 0.107
39.2507 0.433
39.2809 1.333
39.3112 -0.371
39.3415 -0.304
39.3718 -0.251
39.4021 0.478
39.4323 0.844
39.4626 0.168
39.4929 0.430
39.5232 0.224
39.5534 0.538
39.5837 -0.761
39.6140 0.648
39.6443 0.026
39.6746 0.290
39.7048 0.242
39.7351 0.142
39.7654 0.146
39.7957 0.047
39.8260 0.417
39.8562 -0.151
39.8865 0.012
39.9168 0.018
39.9471 0.389
39.9773 0.135
40.0076 -0.170
40.0379 -0.371
40.0682 0.366
40.0985 0.270
40.1287 -0.087
40.1590 0.183
40.1893 0.400
40.2196 0.357
40.2499 0.263
40.2801 -0.040
40.3104 -0.081
40.3407 0.190
40.3710 0.357
40.4012 0.264
40.4315 -0.089
40.4618 -0.754
40.4921 0.133
40.5224 -0.022
40.5526 0.136
40.5829 0.243
40.6132 0.037
40.6435 -0.116
40.6738 0.512
40.7040 -0.370
40.7343 -0.209
40.7646 0.472
40.7949 -0.565
40.8251 0.898
40.8554 0.591
40.8857 0.492
40.9160 0.082
40.9463 0.296
40.9765 0.876
41.0068 0.257
41.0371 0.369
41.0674 0.376
41.0977 0.072
41.1279 0.184
41.1582 0.453
41.1885 0.410
41.2188 0.367
41.2491 0.689
41.2793 0.646
41.3096 0.552
41.3399 -0.218
41.3702 0.209
41.4004 0.533
41.4307 -0.289
41.4610 0.087
41.4913 -0.266
41.5216 -0.118
41.5518 -0.022
41.5821 0.075
41.6124 0.119
41.6427 0.841
41.6730 0.470
41.7032 -0.005
41.7335 0.093
41.7638 0.191
41.7941 0.133
41.8243 0.232
41.8546 0.332
41.8849 0.275
41.9152 -0.094
41.9455 -0.150
41.9757 0.472
42.0060 -0.625
42.0363 -0.056
42.0666 0.723
42.0969 0.200
42.1271 0.302
42.1574 -0.324
42.1877 0.403
42.2180 -0.327
42.2482 -0.171
42.2785 -0.276
42.3088 -0.076
42.3391 -0.188
42.3694 0.169
42.3996 -0.151
42.4299 0.467
42.4602 0.044
42.4905 0.089
42.5208 0.448
42.5510 0.234
42.5813 0.280
42.6116 0.067
42.6419 -0.303
42.6721 0.057
42.7024 -0.624
42.7327 -0.003
42.7630 -0.267
42.7933 0.146
42.8235 -0.118
42.8538 -0.069
42.8841 -0.228
42.9144 0.135
42.9447 -0.232
42.9749 0.339
43.0052 0.182
43.0355 -0.079
43.0658 -0.340
43.0960 0.493
43.1263 -0.132
43.1566 0.805
43.1869 -0.236
43.2172 -0.183
43.2474 -0.494
43.2777 0.706
43.3080 -0.334
43.3383 0.085
43.3686 0.296
43.3988 -0.014
43.4291 -0.479
43.4594 0.201
43.4897 0.205
43.5199 0.314
43.5502 -0.619
43.5805 0.792
43.6108 -0.505
43.6411 -0.187
43.6713 -0.285
43.7016 0.230
43.7319 0.120
43.7622 0.271
43.7925 0.266
43.8227 0.105
43.8530 -0.003
43.8833 -0.267
43.9136 0.146
43.9439 0.039
43.9741 -0.016
44.0044 0.189
44.0347 -0.178
44.0650 -0.179
44.0952 -0.442
44.1255 0.228
44.1558 -0.613
44.1861 0.110
44.2164 -0.053
44.2466 -0.737
44.2769 0.560
44.3072 -0.071
44.3375 -0.128
44.3678 0.023
44.3980 0.070
44.4283 0.483
44.4586 0.635
44.4889 0.110
44.5191 -0.205
44.5494 0.156
44.5797 0.206
44.6100 -0.213
44.6403 -0.111
44.6705 0.199
44.7008 -0.062
44.7311 0.093
44.7614 -0.064
44.7917 0.092
44.8219 -0.117
44.8522 0.092
44.8825 0.249
44.9128 -0.167
44.9430 0.511
44.9733 -0.164
45.0036 -0.058
45.0339 -0.108
45.0642 0.155
45.0944 -0.311
45.1247 -0.107
45.1550 0.202
45.1853 -0.166
45.2156 0.091
45.2458 0.297
45.2761 0.139
45.3064 -0.020
45.3367 -0.073
45.3669 0.446
45.3972 0.445
45.4275 0.444
45.4578 -0.233
45.4881 -0.389
45.5183 0.273
45.5486 -0.054
45.5789 0.035
45.6092 0.282
45.6395 0.008
45.6697 0.203
45.7000 0.450
45.7303 -0.031
45.7606 -0.356
45.7908 0.569
45.8211 0.453
45.8514 -0.235
45.8817 0.066
45.9120 0.056
45.9422 -0.059
45.9725 -0.017
46.0028 0.546
46.0331 -0.244
46.0634 0.215
46.0936 0.206
46.1239 0.042
46.1542 0.034
46.1845 0.442
46.2147 -0.190
46.2450 -0.197
46.2753 0.004
46.3056 0.362
46.3359 0.200
46.3661 -0.379
46.3964 0.241
46.4267 -0.390
46.4570 -0.190
46.4873 0.427
46.5175 0.002
46.5478 0.775
46.5781 -0.587
46.6084 -0.021
46.6386 0.441
46.6689 0.226
46.6992 0.585
46.7295 0.579
46.7598 0.521
46.7900 0.880
46.8203 1.136
46.8506 1.340
46.8809 1.908
46.9112 1.019
46.9414 1.693
46.9717 1.377
47.0020 2.572
47.0323 2.725
47.0626 2.619
47.0928 4.075
47.1231 4.803
47.1534 4.176
47.1837 5.061
47.2139 7.144
47.2442 8.810
47.2745 7.039
47.3048 8.081
47.3351 8.654
47.3653 11.885
47.3956 11.573
47.4259 10.637
47.4562 9.650
47.4865 10.433
47.5167 9.238
47.5470 9.814
47.5773 8.671
47.6076 6.800
47.6378 6.491
47.6681 4.724
47.6984 4.729
47.7287 4.317
47.7590 2.603
47.7892 3.234
47.8195 2.771
47.8498 2.204
47.8801 2.419
47.9104 1.384
47.9406 1.391
47.9709 0.930
48.0012 1.407
48.0315 0.998
48.0617 0.121
48.0920 1.275
48.1223 0.660
48.1526 0.513
48.1829 1.095
48.2131 -0.249
48.2434 0.543
48.2737 0.501
48.3040 -0.008
48.3343 0.524
48.3645 -0.610
48.3948 0.287
48.4251 -0.274
48.4554 0.104
48.4856 0.533
48.5159 0.078
48.5462 0.196
48.5765 0.157
48.6068 0.172
48.6370 0.238
48.6673 0.201
48.6976 -0.148
48.7279 0.440
48.7582 0.039
48.7884 -0.361
48.8187 0.333
48.8490 0.506
48.8793 0.054
48.9095 0.592
48.9398 0.662
48.9701 -0.153
49.0004 0.334
49.0307 -0.272
49.0609 0.164
49.0912 -0.389
49.1215 -0.129
49.1518 -0.129
49.1821 0.236
49.2123 0.393
49.2426 0.134
49.2729 0.291
49.3032 -0.175
49.3334 0.191
49.3637 -0.171
49.3940 0.353
49.4243 0.460
49.4546 0.151
49.4848 0.415
49.5151 0.106
49.5454 0.423
49.5757 0.428
49.6060 0.381
49.6362 0.178
49.6665 -0.181
49.6968 0.190
49.7271 0.196
49.7574 -0.006
49.7876 -0.363
49.8179 0.047
49.8482 -0.219
49.8785 0.036
49.9087 0.551
49.9390 0.442
49.9693 -0.448
49.9996 0.382
50.0299 0.013
50.0601 0.062
50.0904 0.162
50.1207 0.160
50.1510 0.001
50.1813 0.311
50.2115 0.413
50.2418 -0.057
50.2721 0.306
50.3024 0.513
50.3326 0.044
50.3629 0.304
50.3932 -0.165
50.4235 0.096
50.4538 -0.268
50.4840 0.150
50.5143 -0.266
50.5446 -0.420
50.5749 0.467
50.6052 0.313
50.6354 0.732
50.6657 0.215
50.6960 0.166
50.7263 -0.039
50.7565 0.225
50.7868 -0.187
50.8171 -0.078
50.8474 -0.021
50.8777 0.140
50.9079 0.302
50.9382 -0.161
50.9685 -0.311
50.9988 0.210
51.0291 0.264
51.0593 -0.152
51.0896 0.319
51.1199 0.113
51.1502 -0.249
51.1804 0.274
51.2107 -0.035
51.2410 0.437
51.2713 -0.288
51.3016 0.549
51.3318 -0.280
51.3621 0.141
51.3924 0.146
51.4227 0.204
51.4530 -0.311
51.4832 -0.155
51.5135 0.106
51.5438 0.316
51.5741 0.056
51.6043 0.318
51.6346 0.112
51.6649 0.427
51.6952 0.065
51.7255 0.172
51.7557 0.175
51.7860 0.074
51.8163 -0.338
51.8466 0.030
51.8769 0.295
51.9071 -0.377
51.9374 0.462
51.9677 0.519
51.9980 0.473
52.0282 0.635
52.0585 0.329
52.0888 -0.185
52.1191 0.343
52.1494 0.038
52.1796 0.515
52.2099 0.106
52.2402 0.687
52.2705 0.644
52.3008 0.341
52.3310 0.402
52.3613 0.047
52.3916 -0.255
52.4219 -0.058
52.4521 0.399
52.4824 -0.185
52.5127 0.378
52.5430 -0.049
52.5733 0.045
52.6035 0.504
52.6338 0.286
52.6641 0.277
52.6944 0.269
52.7247 0.573
52.7549 0.148
52.7852 0.140
52.8155 0.133
52.8458 0.595
52.8761 -0.037
52.9063 0.009
52.9366 0.211
52.9669 0.205
52.9972 0.044
53.0274 0.559
53.0577 0.502
53.0880 0.602
53.1183 0.286
53.1486 0.178
53.1788 -0.295
53.2091 0.536
53.2394 0.064
53.2697 0.061
53.3000 -0.097
53.3302 0.422
53.3605 0.004
53.3908 0.419
53.4211 0.054
53.4513 -0.363
53.4816 -0.006
53.5119 0.405
53.5422 -0.122
53.5725 0.028
53.6027 -0.133
53.6330 0.278
53.6633 -0.248
53.6936 0.112
53.7239 -0.256
53.7541 0.052
53.7844 -0.212
53.8147 0.150
53.8450 -0.009
53.8752 -0.116
53.9055 0.298
53.9358 0.192
53.9661 -0.278
53.9964 0.554
54.0266 0.397
54.0569 0.709
54.0872 0.500
54.1175 -0.020
54.1478 -0.280
54.1780 0.025
54.2083 0.176
54.2386 0.013
54.2689 -0.200
54.2991 0.159
54.3294 -0.054
54.3597 0.254
54.3900 -0.011
54.4203 0.297
54.4505 0.138
54.4808 -0.126
54.5111 -0.285
54.5414 0.119
54.5717 -0.831
54.6019 0.042
54.6322 0.915
54.6625 -0.346
54.6928 0.059
54.7230 -0.004
54.7533 0.038
54.7836 0.028
54.8139 -0.295
54.8442 -0.207
54.8744 0.401
54.9047 0.437
54.9350 0.004
54.9653 0.353
54.9956 1.067
55.0258 -0.250
55.0561 0.152
55.0864 0.659
55.1167 0.853
55.1469 0.006
55.1772 0.201
55.2075 0.240
55.2378 -0.137
55.2681 0.632
55.2983 0.203
55.3286 0.921
55.3589 0.597
55.3892 0.742
55.4195 0.575
55.4497 0.044
55.4800 0.555
55.5103 0.962
55.5406 0.900
55.5709 1.412
55.6011 1.559
55.6314 -0.116
55.6617 1.491
55.6920 0.962
55.7222 0.590
55.7525 1.416
55.7828 1.618
55.8131 1.299
55.8434 0.876
55.8736 1.339
55.9039 1.646
55.9342 1.797
55.9645 1.740
55.9948 3.246
56.0250 2.617
56.0553 4.019
56.0856 4.120
56.1159 4.168
56.1461 5.728
56.1764 5.309
56.2067 6.140
56.2370 6.294
56.2673 7.959
56.2975 9.677
56.3278 9.103
56.3581 10.873
56.3884 11.914
56.4187 13.008
56.4489 11.915
56.4792 12.280
56.5095 14.885
56.5398 12.438
56.5700 13.169
56.6003 12.286
56.6306 9.215
56.6609 10.051
56.6912 8.596
56.7214 7.453
56.7517 6.675
56.7820 4.752
56.8123 4.913
56.8426 4.969
56.8728 3.985
56.9031 3.365
56.9334 2.485
56.9637 2.751
56.9939 2.132
57.0242 2.295
57.0545 1.989
57.0848 1.892
57.1151 1.691
57.1453 1.908
57.1756 1.291
57.2059 1.664
57.2362 1.620
57.2665 1.473
57.2967 0.389
57.3270 1.076
57.3573 0.721
57.3876 0.836
57.4178 0.690
57.4481 0.441
57.4784 0.452
57.5087 0.360
57.5390 0.476
57.5692 0.592
57.5995 0.657
57.6298 -0.059
57.6601 0.736
57.6904 0.801
57.7206 0.607
57.7509 0.152
57.7812 0.011
57.8115 0.338
57.8417 0.197
57.8720 -0.048
57.9023 0.177
57.9326 0.037
57.9629 -0.363
57.9931 0.002
58.0234 -0.205
58.0537 0.266
58.0840 0.685
58.1143 0.271
58.1445 -0.091
58.1748 0.277
58.2051 0.072
58.2354 0.284
58.2656 0.340
58.2959 0.292
58.3262 -0.224
58.3565 0.146
58.3868 -0.474
58.4170 0.105
58.4473 0.163
58.4776 0.117
58.5079 0.332
58.5382 0.079
58.5684 0.347
58.5987 0.146
58.6290 -0.367
58.6593 0.006
58.6896 -0.038
58.7198 0.076
58.7501 0.085
58.7804 -0.270
58.8107 0.261
58.8409 0.167
58.8712 -0.187
58.9015 -0.280
58.9318 -0.124
58.9621 -0.019
58.9923 -0.070
59.0226 0.557
59.0529 -0.223
59.0832 -0.221
59.1135 -0.167
59.1437 -0.060
59.1740 -0.161
59.2043 0.728
59.2346 0.315
59.2648 0.006
59.2951 0.219
59.3254 0.224
59.3557 -0.292
59.3860 0.078
59.4162 -0.229
59.4465 -0.171
59.4768 0.148
59.5071 0.363
59.5374 0.474
59.5676 -0.196
59.5979 0.020
59.6282 0.288
59.6585 0.244
59.6887 0.044
59.7190 -0.415
59.7493 -0.002
59.7796 -0.160
59.8099 0.150
59.8401 0.565
59.8704 -0.166
59.9007 0.197
59.9310 0.092
59.9613 0.509
59.9915 0.144
60.0218 0.352
60.0521 0.509
60.0824 -0.011
60.1126 -0.271
60.1429 -0.176
60.1732 0.440
60.2035 0.431
60.2338 0.058
60.2640 -0.211
60.2943 0.510
60.3246 0.502
60.3549 0.964
60.3852 0.592
60.4154 0.377
60.4457 0.579
60.4760 0.417
60.5063 0.463
60.5365 0.302
60.5668 0.141
60.5971 0.032
60.6274 -0.285
60.6577 0.544
60.6879 -0.241
60.7182 0.172
60.7485 0.273
60.7788 -0.667
60.8091 0.320
60.8393 -0.151
60.8696 -0.152
60.8999 0.159
60.9302 -0.363
60.9604 -0.120
60.9907 0.019
61.0210 -0.154
61.0513 0.038
61.0816 -0.290
61.1118 -0.777
61.1421 0.508
61.1724 -0.238
61.2027 0.109
61.2330 0.041
61.2632 0.077
61.2935 0.165
61.3238 -0.528
61.3541 0.186
61.3844 0.327
61.4146 -0.312
61.4449 0.090
61.4752 0.180
61.5055 -0.302
61.5357 0.778
61.5660 -0.068
61.5963 -0.028
61.6266 0.011
61.6569 0.260
61.6871 0.404
61.7174 0.237
61.7477 0.278
61.7780 0.163
61.8083 0.309
61.8385 0.820
61.8688 0.185
61.8991 0.905
61.9294 0.114
61.9596 0.991
61.9899 0.930
62.0202 0.349
62.0505 1.123
62.0808 1.376
62.1110 2.254
62.1413 1.831
62.1716 1.095
62.2019 1.245
62.2322 2.177
62.2624 2.015
62.2927 2.583
62.3230 2.369
62.3533 3.667
62.3835 2.673
62.4138 4.440
62.4441 5.374
62.4744 5.475
62.5047 5.680
62.5349 7.761
62.5652 7.967
62.5955 9.424
62.6258 9.370
62.6561 10.567
62.6863 10.930
62.7166 11.867
62.7469 9.054
62.7772 10.929
62.8074 10.409
62.8377 9.628
62.8680 9.942
62.8983 10.099
62.9286 8.538
62.9588 7.551
62.9891 7.136
63.0194 6.149
63.0497 4.173
63.0800 3.551
63.1102 4.388
63.1405 3.142
63.1708 2.990
63.2011 2.474
63.2313 1.854
63.2616 1.755
63.2919 2.021
63.3222 2.860
63.3525 1.772
63.3827 1.883
63.4130 1.890
63.4433 0.595
63.4736 1.384
63.5039 1.496
63.5341 0.462
63.5644 0.575
63.5947 1.677
63.6250 0.280
63.6552 0.550
63.6855 0.195
63.7158 0.309
63.7461 0.528
63.7764 0.070
63.8066 0.550
63.8369 -0.324
63.8672 -0.312
63.8975 -0.201
63.9278 0.014
63.9580 -0.083
63.9883 -0.179
64.0186 0.402
64.0489 -0.110
64.0791 -0.258
64.1094 0.324
64.1397 0.751
64.1700 0.083
64.2003 -0.167
64.2305 -0.052
64.2608 -0.042
64.2911 0.178
64.3214 0.450
64.3517 0.461
64.3819 0.057
64.4122 0.538
64.4425 0.499
64.4728 0.876
64.5031 -0.256
64.5333 -0.295
64.5636 0.275
64.5939 -0.249
64.6242 -0.043
64.6544 -0.045
64.6847 -0.099
64.7150 -0.309
64.7453 0.523
64.7756 -0.416
64.8058 -0.052
64.8361 -0.573
64.8664 0.469
64.8967 -0.052
64.9270 -0.520
64.9572 0.098
64.9875 0.560
65.0178 -0.071
65.0481 -0.598
65.0783 0.123
65.1086 0.064
65.1389 0.681
65.1692 0.258
65.1995 0.407
65.2297 -0.224
65.2600 0.291
65.2903 0.077
65.3206 -0.293
65.3509 0.171
65.3811 -0.720
65.4114 0.005
65.4417 -0.416
65.4720 0.038
65.5022 0.024
65.5325 0.062
65.5628 0.569
65.5931 -0.278
65.6234 -0.031
65.6536 0.113
65.6839 -0.004
65.7142 -0.120
65.7445 -0.132
65.7748 0.221
65.8050 -0.416
65.8353 -0.173
65.8656 0.330
65.8959 0.469
65.9261 0.139
65.9564 -0.086
65.9867 0.314
66.0170 0.871
66.0473 0.542
66.0775 0.527
66.1078 1.085
66.1381 0.861
66.1684 1.055
66.1987 0.468
66.2289 0.975
66.2592 1.014
66.2895 0.792
66.3198 1.248
66.3500 1.027
66.3803 1.171
66.4106 -0.039
66.4409 0.210
66.4712 0.146
66.5014 0.708
66.5317 0.333
66.5620 0.010
66.5923 -0.260
66.6226 0.980
66.6528 0.033
66.6831 0.129
66.7134 0.537
66.7437 -0.097
66.7739 -0.417
66.8042 0.252
66.8345 0.245
66.8648 0.550
66.8951 0.179
66.9253 0.224
66.9556 0.062
66.9859 0.265
67.0162 0.311
67.0465 -0.163
67.0767 0.405
67.1070 0.193
67.1373 0.709
67.1676 0.914
67.1978 0.598
67.2281 0.907
67.2584 0.592
67.2887 1.423
67.3190 0.691
67.3492 1.627
67.3795 1.625
67.4098 2.614
67.4401 2.717
67.4704 2.977
67.5006 2.247
67.5309 3.237
67.5612 3.394
67.5915 4.436
67.6218 4.750
67.6520 4.282
67.6823 5.742
67.7126 5.536
67.7429 6.163
67.7731 6.270
67.8034 6.846
67.8337 6.849
67.8640 6.905
67.8943 7.899
67.9245 6.913
67.9548 7.491
67.9851 5.829
68.0154 6.303
68.0457 7.038
68.0759 4.804
68.1062 5.019
68.1365 3.046
68.1668 3.314
68.1970 3.217
68.2273 2.651
68.2576 2.399
68.2879 2.303
68.3182 2.415
68.3484 2.164
68.3787 1.288
68.4090 1.505
68.4393 1.411
68.4696 1.890
68.4998 1.119
68.5301 2.276
68.5604 1.818
68.5907 0.736
68.6209 1.529
68.6512 1.905
68.6815 1.397
68.7118 1.618
68.7421 2.465
68.7723 2.530
68.8026 2.023
68.8329 1.933
68.8632 2.989
68.8935 3.108
68.9237 1.977
68.9540 2.513
68.9843 3.674
69.0146 3.534
69.0448 2.300
69.0751 2.942
69.1054 2.907
69.1357 2.351
69.1660 2.629
69.1962 1.137
69.2265 1.155
69.2568 1.538
69.2871 0.932
69.3174 1.212
69.3476 1.440
69.3779 1.408
69.4082 1.011
69.4385 0.146
69.4687 0.636
69.4990 1.282
69.5293 0.366
69.5596 -0.133
69.5899 0.202
69.6201 0.485
69.6504 0.351
69.6807 -0.355
69.7110 0.658
69.7413 0.421
69.7715 0.185
69.8018 0.105
69.8321 0.495
69.8624 -0.001
69.8926 0.129
69.9229 0.258
69.9532 0.389
69.9835 0.103
70.0138 0.129
70.0440 0.312
70.0743 -0.337
70.1046 -0.260
70.1349 0.210
70.1652 0.316
70.1954 0.475
70.2257 0.165
70.2560 -0.196
70.2863 -0.088
70.3166 0.124
70.3468 0.232
70.3771 0.236
70.4074 0.241
70.4377 0.767
70.4679 0.251
70.4982 -0.107
70.5285 -0.101
70.5588 0.322
70.5891 -0.245
70.6193 -0.342
70.6496 0.603
70.6799 -0.431
70.7102 -0.006
70.7405 -0.102
70.7707 -0.250
70.8010 0.114
70.8313 0.062
70.8616 0.375
70.8918 0.063
70.9221 0.324
70.9524 0.222
70.9827 0.015
71.0130 0.121
71.0432 0.227
71.0735 0.490
71.1038 0.233
71.1341 -0.493
71.1644 -0.185
71.1946 0.280
71.2249 0.485
71.2552 -0.143
71.2855 -0.250
71.3157 -0.151
71.3460 0.261
71.3763 -0.108
71.4066 0.148
71.4369 0.144
71.4671 -0.068
71.4974 -0.175
71.5277 0.290
71.5580 -0.285
71.5883 -0.237
71.6185 -0.084
71.6488 -0.243
71.6791 0.431
71.7094 0.637
71.7396 -0.094
71.7699 0.113
71.8002 -0.201
71.8305 0.110
71.8608 -0.099
71.8910 0.057
71.9213 0.161
71.9516 0.005
71.9819 -0.255
72.0122 0.002
72.0424 0.259
72.0727 -0.108
72.1030 0.202
72.1333 -0.112
72.1635 0.199
72.1938 0.145
72.2241 0.249
72.2544 -0.117
72.2847 0.560
72.3149 0.508
72.3452 0.560
72.3755 1.134
72.4058 0.718
72.4361 0.407
72.4663 0.721
72.4966 0.671
72.5269 0.361
72.5572 0.467
72.5874 -0.051
72.6177 -0.047
72.6480 0.529
72.6783 -0.196
72.7086 0.277
72.7388 0.437
72.7691 0.182
72.7994 -0.073
72.8297 -0.224
72.8600 -0.166
72.8902 -0.108
72.9205 -0.258
72.9508 0.322
72.9811 -0.244
73.0113 0.128
73.0416 0.240
73.0719 -0.793
73.1022 0.257
73.1325 -0.308
73.1627 0.066
73.1930 -0.081
73.2233 0.241
73.2536 -0.061
73.2839 -0.259
73.3141 0.113
73.3444 0.226
73.3747 -0.234
73.4050 -0.121
73.4353 -0.217
73.4655 0.001
73.4958 -0.145
73.5261 0.073
73.5564 -0.177
73.5866 -0.010
73.6169 -0.311
73.6472 0.061
73.6775 0.329
73.7078 0.284
73.7380 0.240
73.7683 -0.064
73.7986 -0.055
73.8289 -0.046
73.8592 0.328
73.8894 -0.027
73.9197 0.452
73.9500 0.514
73.9803 -0.152
74.0105 0.640
74.0408 0.131
74.0711 0.247
74.1014 0.363
74.1317 -0.250
74.1619 0.179
74.1922 0.036
74.2225 0.362
74.2528 0.636
74.2831 0.025
74.3133 0.195
74.3436 -0.207
74.3739 -0.163
74.4042 0.818
74.4344 0.497
74.4647 0.073
74.4950 0.066
74.5253 0.371
74.5556 0.208
74.5858 0.202
74.6161 0.664
74.6464 0.346
74.6767 0.184
74.7070 0.127
74.7372 0.174
74.7675 0.014
74.7978 -0.043
74.8281 -0.203
74.8583 0.263
74.8886 0.051
74.9189 -0.160
74.9492 -0.215
74.9795 -0.017
75.0097 -0.079
75.0400 0.275
75.0703 0.006
75.1006 0.048
75.1309 -0.221
75.1611 -0.126
75.1914 -0.186
75.2217 0.170
75.2520 -0.046
75.2822 -0.054
75.3125 0.043
75.3428 0.244
75.3731 -0.127
75.4034 0.648
75.4336 -0.035
75.4639 0.012
75.4942 0.319
75.5245 0.314
75.5548 0.309
75.5850 -0.216
75.6153 -0.064
75.6456 0.037
75.6759 -0.071
75.7061 0.134
75.7364 -0.285
75.7667 -0.085
75.7970 0.012
75.8273 -0.152
75.8575 -0.002
75.8878 0.147
75.9181 0.037
75.9484 -0.074
75.9787 0.025
76.0089 0.020
76.0392 -0.402
76.0695 0.166
76.0998 0.214
76.1301 -0.259
76.1603 -0.163
76.1906 -0.067
76.2209 0.186
76.2512 0.023
76.2814 0.224
76.3117 -0.199
76.3420 0.472
76.3723 0.050
76.4026 -0.060
76.4328 0.247
76.4631 0.086
76.4934 0.134
76.5237 0.650
76.5540 -0.083
76.5842 0.122
76.6145 0.535
76.6448 0.064
76.6751 0.374
76.7053 0.215
76.7356 1.307
76.7659 0.472
76.7962 0.627
76.8265 0.730
76.8567 0.782
76.8870 1.042
76.9173 0.365
76.9476 1.198
76.9779 0.886
77.0081 0.835
77.0384 0.732
77.0687 0.526
77.0990 0.267
77.1292 -0.147
77.1595 0.168
77.1898 0.848
77.2201 0.435
77.2504 0.386
77.2806 -0.027
77.3109 0.082
77.3412 -0.018
77.3715 0.664
77.4018 -0.216
77.4320 0.571
77.4623 -0.413
77.4926 0.062
77.5229 -0.244
77.5531 -0.082
77.5834 0.185
77.6137 -0.277
77.6440 0.304
77.6743 0.051
77.7045 0.006
77.7348 0.223
77.7651 -0.237
77.7954 0.292
77.8257 0.562
77.8559 -0.053
77.8862 -0.096
77.9165 0.123
77.9468 -0.127
77.9770 0.248
78.0073 -0.001
78.0376 -0.354
78.0679 0.126
78.0982 0.191
78.1284 0.151
78.1587 0.007
78.1890 0.020
78.2193 0.086
78.2496 0.100
78.2798 0.010
78.3101 -0.236
78.3404 0.091
78.3707 -0.259
78.4009 -0.049
78.4312 0.422
78.4615 0.320
78.4918 0.167
78.5221 0.170
78.5523 0.225
78.5826 0.177
78.6129 -0.132
78.6432 0.133
78.6735 0.138
78.7037 0.351
78.7340 0.408
78.7643 0.466
78.7946 0.264
78.8248 0.322
78.8551 -0.140
78.8854 0.231
78.9157 0.082
78.9460 -0.223
78.9762 -0.007
79.0065 -0.259
79.0368 0.046
79.0671 -0.170
79.0974 0.656
79.1276 0.076
79.1579 -0.088
79.1882 0.323
79.2185 0.525
79.2488 -0.106
79.2790 0.149
79.3093 0.613
79.3396 0.712
79.3699 0.603
79.4001 0.078
79.4304 -0.030
79.4607 0.592
79.4910 0.016
79.5213 0.065
79.5515 -0.198
79.5818 0.112
79.6121 0.371
79.6424 -0.048
79.6727 0.160
79.7029 0.002
79.7332 0.106
79.7635 0.158
79.7938 -0.467
79.8240 0.002
79.8543 0.003
79.8846 -0.100
79.9149 -0.047
79.9452 -0.045
79.9754 -0.252
80.0057 0.376
80.0360 -0.195
80.0663 0.329
80.0966 0.280
80.1268 0.076
80.1571 0.132
80.1874 0.084
80.2177 -0.120
80.2479 0.198
80.2782 0.151
80.3085 -0.208
80.3388 -0.114
80.3691 0.294
80.3993 -0.027
80.4296 0.277
80.4599 0.112
80.4902 0.313
80.5205 0.097
80.5507 0.558
80.5810 -0.178
80.6113 0.024
80.6416 0.226
80.6718 0.533
80.7021 0.006
80.7324 -0.051
80.7627 0.309
80.7930 -0.060
80.8232 -0.221
80.8535 0.034
80.8838 -0.126
80.9141 -0.027
80.9444 0.074
80.9746 0.330
81.0049 -0.038
81.0352 0.168
81.0655 0.373
81.0957 -0.046
81.1260 0.681
81.1563 0.419
81.1866 -0.051
81.2169 0.677
81.2471 0.572
81.2774 0.363
81.3077 0.103
81.3380 0.884
81.3683 0.572
81.3985 0.105
81.4288 0.314
81.4591 0.472
81.4894 0.161
81.5196 0.476
81.5499 0.322
81.5802 0.846
81.6105 0.120
81.6408 0.488
81.6710 -0.446
81.7013 0.444
81.7316 0.656
81.7619 0.088
81.7922 0.302
81.8224 0.151
81.8527 -0.260
81.8830 0.163
81.9133 0.169
81.9436 0.280
81.9738 0.443
82.0041 0.242
82.0344 0.354
82.0647 -0.055
82.0949 0.370
82.1252 0.014
82.1555 0.336
82.1858 -0.124
82.2161 0.511
82.2463 -0.104
82.2766 0.531
82.3069 -0.031
82.3372 0.188
82.3675 0.460
82.3977 0.159
82.4280 0.588
82.4583 0.444
82.4886 0.196
82.5188 -0.156
82.5491 -0.195
82.5794 0.116
82.6097 0.375
82.6400 0.061
82.6702 0.112
82.7005 0.268
82.7308 0.268
82.7611 0.112
82.7914 0.269
82.8216 0.061
82.8519 0.323
82.8822 -0.249
82.9125 -0.195
82.9427 0.007
82.9730 0.158
83.0033 0.256
83.0336 0.095
83.0639 -0.119
83.0941 -0.175
83.1244 -0.075
83.1547 0.650
83.1850 0.490
83.2153 0.695
83.2455 0.015
83.2758 -0.092
83.3061 0.218
83.3364 0.060
83.3666 0.163
83.3969 0.213
83.4272 0.160
83.4575 0.160
83.4878 -0.257
83.5180 0.107
83.5483 0.264
83.5786 0.316
83.6089 -0.047
83.6392 -0.306
83.6694 0.164
83.6997 0.218
83.7300 0.012
83.7603 0.171
83.7905 -0.243
83.8208 0.489
83.8511 -0.184
83.8814 0.392
83.9117 0.292
83.9419 0.037
83.9722 0.250
84.0025 0.099
84.0328 0.000
84.0631 0.266
84.0933 0.116
84.1236 0.123
84.1539 0.233
84.1842 -0.020
84.2144 -0.117
84.2447 -0.109
84.2750 0.316
84.3053 -0.249
84.3356 -0.188
84.3658 0.012
84.3961 -0.049
84.4264 0.047
84.4567 -0.117
84.4870 0.032
84.5172 0.025
84.5475 0.122
84.5778 0.428
84.6081 0.005
84.6383 0.155
84.6686 0.462
84.6989 -0.064
84.7292 0.348
84.7595 0.447
84.7897 0.078
84.8200 0.283
84.8503 0.644
84.8806 0.328
84.9109 0.221
84.9411 0.166
84.9714 0.007
85.0017 0.005
85.0320 0.472
85.0623 0.054
85.0925 -0.155
85.1228 0.209
85.1531 -0.156
85.1834 0.209
85.2136 0.053
85.2439 0.314
85.2742 0.627
85.3045 -0.049
85.3348 -0.152
85.3650 -0.202
85.3953 0.163
85.4256 -0.045
85.4559 0.111
85.4862 0.060
85.5164 0.009
85.5467 0.115
85.5770 0.169
85.6073 0.327
85.6375 0.277
85.6678 0.228
85.6981 0.231
85.7284 0.131
85.7587 0.082
85.7889 0.399
85.8192 0.299
85.8495 0.200
85.8798 0.569
85.9101 -0.050
85.9403 0.060
85.9706 -0.195
86.0009 -0.093
86.0312 0.321
86.0614 0.111
86.0917 -0.046
86.1220 0.473
86.1523 0.160
86.1826 0.524
86.2128 -0.101
86.2431 0.212
86.2734 0.264
86.3037 0.317
86.3340 0.214
86.3642 0.424
86.3945 -0.043
86.4248 -0.145
86.4551 -0.195
86.4853 -0.100
86.5156 0.152
86.5459 0.039
86.5762 -0.073
86.6065 0.752
86.6367 0.640
86.6670 0.112
86.6973 0.209
86.7276 0.203
86.7579 -0.220
86.7881 0.190
86.8184 0.497
86.8487 0.284
86.8790 0.279
86.9092 -0.091
86.9395 0.218
86.9698 -0.099
87.0001 -0.363
87.0304 0.154
87.0606 0.306
87.0909 0.355
87.1212 0.665
87.1515 0.037
87.1818 0.243
87.2120 0.397
87.2423 0.343
87.2726 -0.075
87.3029 0.133
87.3331 -0.285
87.3634 -0.083
87.3937 0.016
87.4240 0.062
87.4543 0.213
87.4845 0.469
87.5148 0.100
87.5451 0.148
87.5754 -0.012
87.6057 0.140
87.6359 -0.019
87.6662 -0.126
87.6965 -0.493
87.7268 0.175
87.7571 0.323
87.7873 0.002
87.8176 0.306
87.8479 -0.066
87.8782 0.552
87.9084 -0.237
87.9387 0.434
87.9690 0.063
87.9993 -0.047
88.0296 0.468
88.0598 0.254
88.0901 0.145
88.1204 0.401
88.1507 -0.073
88.1810 -0.285
88.2112 0.117
88.2415 -0.001
88.2718 0.349
88.3021 0.492
88.3323 0.062
88.3626 0.518
88.3929 -0.172
88.4232 0.285
88.4535 0.325
88.4837 0.209
88.5140 -0.219
88.5443 0.134
88.5746 0.072
88.6049 -0.512
88.6351 0.312
88.6654 -0.219
88.6957 0.136
88.7260 -0.237
88.7562 0.275
88.7865 0.006
88.8168 0.154
88.8471 0.407
88.8774 0.295
88.9076 0.080
88.9379 0.333
88.9682 -0.455
88.9985 -0.148
89.0288 0.211
89.0590 0.361
89.0893 1.033
89.1196 1.028
89.1499 0.711
89.1801 0.291
89.2104 1.068
89.2407 1.325
89.2710 0.957
89.3013 0.537
89.3315 1.056
89.3618 1.105
89.3921 1.104
89.4224 0.946
89.4527 1.361
89.4829 1.308
89.5132 1.255
89.5435 0.995
89.5738 0.890
89.6040 1.464
89.6343 1.933
89.6646 1.934
89.6949 1.467
89.7252 1.416
89.7554 0.637
89.7857 0.900
89.8160 0.850
89.8463 0.697
89.8766 1.169
89.9068 1.173
89.9371 0.916
89.9674 0.452
89.9977 0.821
90.0279 0.149
90.0582 -0.107
90.0885 0.524
90.1188 0.165
90.1491 -0.089
90.1793 0.751
90.2096 0.654
90.2399 0.088
90.2702 0.199
90.3005 0.103
90.3307 0.059
90.3610 0.016
90.3913 0.233
90.4216 0.450
90.4518 -0.009
90.4821 0.053
90.5124 -0.094
90.5427 0.125
90.5730 0.292
90.6032 0.199
90.6335 -0.310
90.6638 0.326
90.6941 -0.026
90.7244 -0.170
90.7546 -0.105
90.7849 -0.040
90.8152 -0.079
90.8455 -0.065
90.8758 -0.051
90.9060 -0.193
90.9363 0.134
90.9666 0.409
90.9969 0.112
91.0271 -0.185
91.0574 -0.221
91.0877 0.190
91.1180 -0.077
91.1483 -0.134
91.1785 -0.296
91.2088 0.272
91.2391 0.476
91.2694 -0.153
91.2997 0.416
91.3299 -0.004
91.3602 0.201
91.3905 0.146
91.4208 0.456
91.4510 -0.015
91.4813 -0.173
91.5116 -0.227
91.5419 -0.182
91.5722 0.384
91.6024 -0.300
91.6327 0.163
91.6630 0.105
91.6933 -0.370
91.7236 0.146
91.7538 0.141
91.7841 0.032
91.8144 -0.233
91.8447 -0.034
91.8749 0.113
91.9052 -0.416
91.9355 0.148
91.9658 0.453
91.9961 0.341
92.0263 0.490
92.0566 0.170
92.0869 0.268
92.1172 0.313
92.1475 0.047
92.1777 -0.219
92.2080 0.192
92.2383 0.031
92.2686 0.495
92.2988 0.386
92.3291 0.486
92.3594 -0.247
92.3897 -0.146
92.4200 0.371
92.4502 0.889
92.4805 0.210
92.5108 0.208
92.5411 -0.055
92.5714 0.673
92.6016 0.620
92.6319 0.046
92.6622 0.670
92.6925 0.149
92.7227 0.202
92.7530 0.567
92.7833 0.307
92.8136 -0.213
92.8439 0.466
92.8741 0.780
92.9044 0.469
92.9347 -0.049
92.9650 0.162
92.9953 0.321
93.0255 0.064
93.0558 0.328
93.0861 0.332
93.1164 -0.028
93.1466 0.549
93.1769 -0.227
93.2072 0.456
93.2375 0.357
93.2678 0.155
93.2980 -0.516
93.3283 0.220
93.3586 0.539
93.3889 -0.183
93.4192 0.189
93.4494 -0.011
93.4797 0.830
93.5100 0.370
93.5403 0.587
93.5706 -0.029
93.6008 -0.071
93.6311 0.251
93.6614 0.366
93.6917 0.689
93.7219 -0.446
93.7522 -0.227
93.7825 -0.440
93.8128 0.285
93.8431 0.230
93.8733 0.018
93.9036 -0.454
93.9339 0.220
93.9642 0.166
93.9945 0.476
94.0247 0.006
94.0550 -0.256
94.0853 0.159
94.1156 0.158
94.1458 0.106
94.1761 -0.415
94.2064 -0.063
94.2367 -0.076
94.2670 -0.036
94.2972 0.317
94.3275 0.357
94.3578 0.450
94.3881 -0.290
94.4184 0.741
94.4486 0.106
94.4789 0.513
94.5092 0.139
94.5395 0.546
94.5697 0.693
94.6000 1.049
94.6303 0.156
94.6606 0.564
94.6909 0.244
94.7211 1.070
94.7514 0.074
94.7817 0.379
94.8120 0.790
94.8423 0.992
94.8725 0.778
94.9028 0.721
94.9331 0.924
94.9634 0.711
94.9936 0.915
95.0239 1.223
95.0542 1.115
95.0845 1.633
95.1148 1.057
95.1450 1.887
95.1753 1.156
95.2056 1.049
95.2359 1.204
95.2662 1.359
95.2964 1.462
95.3267 1.044
95.3570 0.939
95.3873 1.200
95.4175 1.096
95.4478 1.200
95.4781 0.264
95.5084 0.213
95.5387 1.204
95.5689 0.216
95.5992 0.687
95.6295 0.272
95.6598 0.848
95.6901 0.174
95.7203 0.438
95.7506 0.754
95.7809 0.342
95.8112 0.086
95.8414 -0.014
95.8717 0.356
95.9020 -0.160
95.9323 0.263
95.9626 -0.096
95.9928 -0.038
96.0231 -0.396
96.0534 0.288
96.0837 0.452
96.1140 -0.009
96.1442 -0.157
96.1745 0.163
96.2048 0.380
96.2351 -0.027
96.2653 0.242
96.2956 -0.061
96.3259 0.210
96.3562 0.116
96.3865 -0.343
96.4167 0.189
96.4470 -0.060
96.4773 0.056
96.5076 -0.193
96.5379 -0.233
96.5681 -0.128
96.5984 -0.022
96.6287 0.292
96.6590 -0.174
96.6893 -0.120
96.7195 -0.065
96.7498 0.043
96.7801 0.254
96.8104 0.362
96.8406 -0.154
96.8709 0.423
96.9012 -0.249
96.9315 -0.140
96.9618 0.438
96.9920 -0.077
97.0223 -0.227
97.0526 0.031
97.0829 0.133
97.1132 -0.442
97.1434 0.181
97.1737 0.232
97.2040 -0.081
97.2343 0.023
97.2645 -0.134
97.2948 0.387
97.3251 0.023
97.3554 0.023
97.3857 0.337
97.4159 0.026
97.4462 -0.337
97.4765 0.022
97.5068 0.277
97.5371 0.012
97.5673 0.059
97.5976 0.002
97.6279 0.363
97.6582 0.099
97.6884 0.095
97.7187 0.822
97.7490 0.611
97.7793 0.191
97.8096 -0.019
97.8398 -0.177
97.8701 -0.022
97.9004 0.966
97.9307 -0.180
97.9610 -0.233
97.9912 -0.396
98.0215 0.431
98.0518 0.165
98.0821 0.159
98.1123 0.466
98.1426 0.357
98.1729 0.404
98.2032 0.296
98.2335 0.552
98.2637 0.288
98.2940 0.910
98.3243 0.959
98.3546 0.695
98.3849 0.849
98.4151 0.014
98.4454 0.325
98.4757 0.792
98.5060 0.895
98.5362 1.102
98.5665 0.581
98.5968 1.050
98.6271 0.685
98.6574 -0.252
98.6876 0.166
98.7179 0.792
98.7482 0.429
98.7785 0.483
98.8088 0.641
98.8390 0.800
98.8693 0.646
98.8996 0.285
98.9299 0.340
98.9601 1.281
98.9904 0.504
99.0207 0.300
99.0510 0.045
99.0813 0.362
99.1115 0.315
99.1418 0.269
99.1721 0.223
99.2024 0.073
99.2327 -0.181
99.2629 0.555
99.2932 -0.114
99.3235 0.049
99.3538 0.109
99.3841 0.170
99.4143 0.178
99.4446 -0.229
99.4749 0.509
99.5052 0.050
99.5354 0.060
99.5657 -0.138
99.5960 0.133
99.6263 -0.221
99.6566 -0.122
99.6868 0.186
99.7171 -0.130
99.7474 0.387
99.7777 -0.033
99.8080 0.276
99.8382 0.117
99.8685 0.114
99.8988 -0.253
99.9291 0.110
99.9593 -0.152
99.9896 0.368
100.0199 0.471
100.0502 0.054
100.0805 -0.311
100.1107 -0.003
100.1410 0.202
100.1713 0.615
100.2016 0.091
100.2319 -0.068
100.2621 0.398
100.2924 -0.229
100.3227 0.030
100.3530 -0.024
100.3832 0.079
100.4135 0.286
100.4438 0.130
100.4741 -0.027
100.5044 -0.131
100.5346 0.130
100.5649 0.079
100.5952 -0.441
100.6255 -0.031
100.6558 0.172
100.6860 0.114
100.7163 0.109
100.7466 0.052
100.7769 0.099
100.8071 0.147
100.8374 -0.013
100.8677 -0.277
100.8980 0.136
100.9283 -0.180
100.9585 -0.078
100.9888 -0.132
101.0191 0.022
101.0494 0.280
101.0797 -0.086
101.1099 -0.087
101.1402 0.069
101.1705 -0.296
101.2008 0.068
101.2310 -0.035
101.2613 -0.139
101.2916 0.070
101.3219 -0.085
101.3522 -0.187
101.3824 -0.081
101.4127 -0.027
101.4430 -0.233
101.4733 0.079
101.5036 -0.389
101.5338 -0.025
101.5641 -0.182
101.5944 0.026
101.6247 1.224
101.6549 -0.338
101.6852 -0.233
101.7155 -0.084
101.7458 0.014
101.7761 0.580
101.8063 0.157
101.8366 0.204
101.8669 0.250
101.8972 -0.797
101.9275 0.292
101.9577 -0.337
101.9880 -0.029
102.0183 -0.293
102.0486 0.276
102.0788 -0.404
102.1091 0.270
102.1394 0.320
102.1697 -0.203
102.2000 0.003
102.2302 -0.311
102.2605 0.037
102.2908 0.022
102.3211 0.631
102.3514 0.877
102.3816 0.341
102.4119 0.066
102.4422 -0.104
102.4725 0.195
102.5028 0.077
102.5330 0.585
102.5633 -0.105
102.5936 -0.170
102.6239 0.235
102.6541 0.119
102.6844 0.107
102.7147 0.356
102.7450 0.241
102.7753 0.127
102.8055 0.533
102.8358 0.054
102.8661 1.034
102.8964 0.244
102.9267 0.183
102.9569 -0.294
102.9872 0.687
103.0175 0.158
103.0478 0.255
103.0780 0.352
103.1083 0.188
103.1386 0.234
103.1689 0.280
103.1992 0.690
103.2294 0.268
103.2597 -0.206
103.2900 0.206
103.3203 0.045
103.3506 -0.376
103.3808 0.088
103.4111 -0.228
103.4414 0.029
103.4717 0.078
103.5019 0.180
103.5322 0.385
103.5625 0.383
103.5928 0.277
103.6231 0.641
103.6533 0.223
103.6836 0.170
103.7139 -0.351
103.7442 0.690
103.7745 0.378
103.8047 -0.143
103.8350 0.275
103.8653 0.068
103.8956 0.278
103.9258 0.644
103.9561 0.750
103.9864 0.753
104.0167 1.016
104.0470 1.071
104.0772 0.345
104.1075 1.495
104.1378 1.082
104.1681 0.566
104.1984 0.623
104.2286 0.940
104.2589 1.102
104.2892 0.014
104.3195 1.374
104.3497 0.495
104.3800 0.449
104.4103 0.509
104.4406 0.099
104.4709 0.159
104.5011 0.219
104.5314 0.123
104.5617 0.653
104.5920 0.505
104.6223 0.462
104.6525 0.212
104.6828 0.117
104.7131 -0.289
104.7434 0.399
104.7736 -0.476
104.8039 0.212
104.8342 0.120
104.8645 -0.181
104.8948 0.456
104.9250 0.052
104.9553 0.065
104.9856 -0.078
105.0159 0.092
105.0462 -0.467
105.0764 -0.037
105.1067 0.133
105.1370 -0.321
105.1673 0.371
105.1975 -0.343
105.2278 0.037
105.2581 -0.051
105.2884 -0.087
105.3187 0.085
105.3489 0.102
105.3792 -0.037
105.4095 -0.176
105.4398 -0.262
105.4701 0.381
105.5003 0.243
105.5306 -0.155
105.5609 0.020
105.5912 -0.221
105.6215 -0.110
105.6517 -0.311
105.6820 0.158
105.7123 -0.049
105.7426 0.108
105.7728 0.370
105.8031 -0.149
105.8334 0.322
105.8637 0.012
105.8940 0.223
105.9242 0.851
105.9545 0.333
105.9848 0.077
106.0151 0.445
106.0454 0.293
106.0756 0.298
106.1059 0.459
106.1362 0.048
106.1665 -0.363
106.1967 -0.001
106.2270 -0.003
106.2573 0.516
106.2876 0.463
106.3179 0.149
106.3481 0.356
106.3784 0.148
106.4087 0.147
106.4390 -0.113
106.4693 0.721
106.4995 0.461
106.5298 -0.423
106.5601 -0.005
106.5904 0.570
106.6206 -0.157
106.6509 0.262
106.6812 0.004
106.7115 0.007
106.7418 -0.198
106.7720 0.067
106.8023 -0.034
106.8326 0.127
106.8629 -0.337
106.8932 -0.086
106.9234 0.269
106.9537 -0.104
106.9840 0.356
107.0143 0.348
107.0445 0.027
107.0748 -0.136
107.1051 0.325
107.1354 0.006
107.1657 0.312
107.1959 -0.268
107.2262 -0.169
107.2565 0.190
107.2868 0.341
107.3171 0.179
107.3473 0.175
107.3776 0.118
107.4079 0.114
107.4382 -0.202
107.4684 -0.101
107.4987 -0.156
107.5290 0.102
107.5593 -0.213
107.5896 0.358
107.6198 -0.009
107.6501 0.250
107.6804 0.562
107.7107 0.301
107.7410 0.144
107.7712 0.404
107.8015 0.196
107.8318 0.092
107.8621 0.145
107.8923 -0.114
107.9226 -0.112
107.9529 -0.110
107.9832 -0.160
108.0135 -0.106
108.0437 0.366
108.0740 -0.152
108.1043 0.216
108.1346 0.012
108.1649 0.276
108.1951 -0.136
108.2254 0.650
108.2557 0.343
108.2860 0.296
108.3163 0.249
108.3465 0.047
108.3768 -0.259
108.4071 0.003
108.4374 0.473
108.4676 -0.254
108.4979 0.008
108.5282 0.011
108.5585 -0.039
108.5888 -0.192
108.6190 0.645
108.6493 0.076
108.6796 -0.337
108.7099 -0.030
108.7402 -0.139
108.7704 0.378
108.8007 -0.043
108.8310 0.109
108.8613 0.262
108.8915 0.102
108.9218 0.360
108.9521 0.253
108.9824 0.043
109.0127 0.249
109.0429 -0.065
109.0732 0.298
109.1035 0.297
109.1338 0.297
109.1641 0.088
109.1943 0.088
109.2246 -0.016
109.2549 -0.015
109.2852 -0.066
109.3154 -0.221
109.3457 0.027
109.3760 0.484
109.4063 0.212
109.4366 0.305
109.4668 0.242
109.4971 -0.133
109.5274 0.013
109.5577 0.107
109.5880 -0.111
109.6182 -0.172
109.6485 -0.025
109.6788 0.071
109.7091 0.063
109.7393 0.263
109.7696 0.620
109.7999 0.509
109.8302 0.918
109.8605 0.078
109.8907 0.124
109.9210 0.222
109.9513 0.060
109.9816 0.003
110.0119 -0.211
110.0421 0.201
110.0724 0.718
110.1027 0.870
110.1330 0.085
110.1632 0.290
110.1935 0.547
110.2238 0.440
110.2541 0.230
110.2844 0.592
110.3146 0.486
110.3449 0.381
110.3752 0.536
110.4055 0.118
110.4358 0.430
110.4660 0.586
110.4963 0.326
110.5266 0.066
110.5569 1.056
110.5871 0.224
110.6174 0.486
110.6477 -0.345
110.6780 0.750
110.7083 0.597
110.7385 0.443
110.7688 0.186
110.7991 0.033
110.8294 0.245
110.8597 0.405
110.8899 0.462
110.9202 0.154
110.9505 0.524
110.9808 0.581
111.0110 0.170
111.0413 0.593
111.0716 0.287
111.1019 -0.332
111.1322 -0.064
111.1624 0.516
111.1927 0.315
111.2230 0.792
111.2533 0.071
111.2836 -0.285
111.3138 -0.014
111.3441 -0.004
111.3744 -0.045
111.4047 0.123
111.4350 0.187
111.4652 -0.010
111.4955 0.471
111.5258 0.224
111.5561 0.080
111.5863 0.041
111.6166 -0.153
111.6469 0.069
111.6772 -0.073
111.7075 -0.215
111.7377 -0.171
111.7680 0.029
111.7983 0.021
111.8286 -0.143
111.8589 0.371
111.8891 -0.157
111.9194 -0.059
111.9497 0.038
111.9800 -0.020
112.0102 0.131
112.0405 0.126
112.0708 0.225
112.1011 0.585
112.1314 0.268
112.1616 0.212
112.1919 0.000
112.2222 0.205
112.2525 0.098
112.2828 0.095
112.3130 -0.064
112.3433 -0.222
112.3736 -0.120
112.4039 -0.069
112.4341 0.086
112.4644 -0.227
112.4947 -0.178
112.5250 0.289
112.5553 -0.078
112.5855 0.024
112.6158 -0.029
112.6461 0.074
112.6764 0.177
112.7067 0.489
112.7369 0.333
112.7672 -0.188
112.7975 -0.188
112.8278 -0.187
112.8580 -0.081
112.8883 0.076
112.9186 0.130
112.9489 0.028
112.9792 -0.126
113.0094 -0.175
113.0397 -0.068
113.0700 -0.117
113.1003 -0.061
113.1306 0.204
113.1608 0.260
113.1911 -0.412
113.2214 0.374
113.2517 -0.142
113.2819 -0.084
113.3122 0.078
113.3425 -0.019
113.3728 0.039
113.4031 -0.006
113.4333 -0.259
113.4636 0.051
113.4939 -0.056
113.5242 0.306
113.5545 0.357
113.5847 0.355
113.6150 0.093
113.6453 0.457
113.6756 0.456
113.7058 -0.325
113.7361 -0.221
113.7664 -0.014
113.7967 -0.015
113.8270 -0.016
113.8572 0.609
113.8875 0.296
113.9178 -0.016
113.9481 0.037
113.9784 -0.014
114.0086 0.664
114.0389 0.093
114.0692 0.095
114.0995 -0.059
114.1298 -0.005
114.1600 -0.054
114.1903 -0.259
114.2206 0.161
114.2509 -0.252
114.2811 0.326
114.3114 0.070
114.3417 -0.030
114.3720 -0.233
114.4023 0.066
114.4325 0.417
114.4628 -0.013
114.4931 0.391
114.5234 -0.142
114.5537 0.575
114.5839 0.876
114.6142 -0.073
114.6445 0.384
114.6748 0.061
114.7050 0.102
114.7353 0.457
114.7656 0.186
114.7959 -0.084
114.8262 -0.093
114.8564 -0.102
114.8867 0.254
114.9170 0.038
114.9473 0.134
114.9776 0.335
115.0078 0.119
115.0381 0.268
115.0684 0.262
115.0987 0.255
115.1289 0.145
115.1592 -0.017
115.1895 0.603
115.2198 0.181
115.2501 0.020
115.2803 -0.244
115.3106 -0.414
115.3409 0.666
115.3712 0.445
115.4015 0.275
115.4317 0.523
115.4620 0.303
115.4923 0.656
115.5226 0.592
115.5528 0.373
115.5831 0.310
115.6134 0.455
115.6437 0.654
115.6740 0.748
115.7042 0.530
115.7345 0.260
115.7648 0.929
115.7951 1.076
115.8254 0.599
115.8556 0.852
115.8859 0.948
115.9162 0.472
115.9465 0.205
115.9767 1.084
116.0070 1.494
116.0373 -0.022
116.0676 1.066
116.0979 1.269
116.1281 1.055
116.1584 0.790
116.1887 0.734
116.2190 0.417
116.2493 1.143
116.2795 0.254
116.3098 0.251
116.3401 0.873
116.3704 1.183
116.4006 0.921
116.4309 0.815
116.4612 0.241
116.4915 0.500
116.5218 0.812
116.5520 1.540
116.5823 0.811
116.6126 0.915
116.6429 0.603
116.6732 0.292
116.7034 0.605
116.7337 0.398
116.7640 0.400
116.7943 0.402
116.8245 0.874
116.8548 0.512
116.8851 0.515
116.9154 0.050
116.9457 -0.207
116.9759 0.058
117.0062 -0.042
117.0365 0.223
117.0668 -0.293
117.0971 -0.027
117.1273 -0.178
117.1576 0.193
117.1879 -0.217
117.2182 0.571
117.2485 0.213
117.2787 -0.300
117.3090 0.489
117.3393 0.184
117.3696 -0.016
117.3998 -0.164
117.4301 0.002
117.4604 0.115
117.4907 -0.448
117.5210 0.291
117.5512 0.145
117.5815 0.103
117.6118 0.114
117.6421 0.125
117.6724 -0.228
117.7026 0.409
117.7329 -0.256
117.7632 0.278
117.7935 -0.022
117.8237 -0.113
117.8540 0.526
117.8843 0.227
117.9146 -0.228
117.9449 -0.005
117.9751 -0.198
118.0054 0.286
118.0357 0.093
118.0660 0.317
118.0963 -0.032
118.1265 -0.172
118.1568 -0.311
118.1871 0.206
118.2174 -0.267
118.2476 -0.010
118.2779 -0.013
118.3082 0.349
118.3385 -0.435
118.3688 0.188
118.3990 0.134
118.4293 0.237
118.4596 0.444
118.4899 0.652
118.5202 -0.078
118.5504 -0.026
118.5807 0.130
118.6110 0.026
118.6413 0.183
118.6715 0.133
118.7018 0.030
118.7321 0.344
118.7624 -0.018
118.7927 -0.016
118.8229 0.091
118.8532 -0.114
118.8835 -0.215
118.9138 -0.211
118.9441 0.313
118.9743 0.266
119.0046 0.010
119.0349 -0.089
119.0652 0.072
119.0954 -0.391
119.1257 0.240
119.1560 0.142
119.1863 0.201
119.2166 0.677
119.2468 -0.045
119.2771 0.223
119.3074 0.023
119.3377 0.031
119.3680 -0.221
119.3982 -0.025
119.4285 0.016
119.4588 -0.360
119.4891 0.878
119.5193 0.086
119.5496 -0.289
119.5799 0.274
119.6102 0.108
119.6405 -0.162
119.6707 0.246
119.7010 0.081
119.7313 -0.188
119.7616 0.012
119.7919 0.056
119.8221 -0.003
119.8524 0.302
119.8827 -0.018
119.9130 -0.232
119.9433 -0.239
119.9735 -0.260
120.0038 0.000
