'Id: "" Comment: "" Operator: "Lab Manager" Anode: "Cu" Scantype: "Locked Coupled" TimePerStep: "19.2" X: "9999" Y: "9999" Z: "9999" 
10.0015 0.000
10.0318 0.147
10.0620 0.139
10.0923 -0.442
10.1226 -0.076
10.1529 0.343
10.1832 0.449
10.2134 -0.121
10.2437 -0.274
10.2740 0.042
10.3043 0.566
10.3346 -0.419
10.3648 0.211
10.3951 0.059
10.4254 0.534
10.4557 -0.346
10.4859 0.650
10.5162 -0.125
10.5465 0.298
10.5768 -0.371
10.6071 -0.416
10.6373 0.420
10.6676 0.215
10.6979 -1.136
10.7282 0.586
10.7585 -0.295
10.7887 0.178
10.8190 -0.650
10.8493 0.501
10.8796 -0.067
10.9098 0.512
10.9401 0.154
10.9704 -0.152
11.0007 0.897
11.0310 1.217
11.0612 0.235
11.0915 -0.225
11.1218 -0.164
11.1521 -0.572
11.1824 0.207
11.2126 0.309
11.2429 0.047
11.2732 -0.788
11.3035 0.409
11.3337 -0.112
11.3640 0.460
11.3943 -0.164
11.4246 0.513
11.4549 0.046
11.4851 0.516
11.5154 0.101
11.5457 -0.470
11.5760 0.105
11.6063 0.629
11.6365 -0.201
11.6668 0.324
11.6971 0.953
11.7274 0.592
11.7577 0.129
11.7879 -0.700
11.8182 0.452
11.8485 0.041
11.8788 0.985
11.9090 0.106
11.9393 -0.303
11.9696 -0.400
11.9999 -0.348
12.0302 -0.556
12.0604 0.538
12.0907 0.174
12.1210 -0.032
12.1513 -0.447
12.1816 0.284
12.2118 -0.026
12.2421 -0.075
12.2724 1.022
12.3027 0.140
12.3329 0.196
12.3632 -0.008
12.3935 -0.524
12.4238 0.315
12.4541 -0.461
12.4843 -0.247
12.5146 -0.397
12.5449 -0.077
12.5752 0.399
12.6055 -0.375
12.6357 -0.003
12.6660 0.370
12.6963 0.639
12.7266 -0.289
12.7568 -0.384
12.7871 -0.114
12.8174 -0.676
12.8477 0.163
12.8780 0.325
12.9082 -0.034
12.9385 -0.079
12.9688 -0.697
12.9991 0.144
13.0294 -0.109
13.0596 0.003
13.0899 -0.040
13.1202 0.646
13.1505 -0.230
13.1807 -0.168
13.2110 0.362
13.2413 -0.148
13.2716 -0.293
13.3019 0.030
13.3321 0.094
13.3624 0.731
13.3927 -0.298
13.4230 -0.390
13.4533 0.340
13.4835 -0.180
13.5138 0.081
13.5441 -0.490
13.5744 0.085
13.6046 -0.121
13.6349 -0.379
13.6652 0.039
13.6955 -0.012
13.7258 -0.271
13.7560 -0.321
13.7863 0.880
13.8166 0.883
13.8469 0.470
13.8772 0.317
13.9074 -0.460
13.9377 0.951
13.9680 -0.242
13.9983 -0.185
14.0285 0.498
14.0588 -0.851
14.0891 0.510
14.1194 -0.942
14.1497 0.263
14.1799 -0.666
14.2102 0.487
14.2405 0.079
14.2708 0.661
14.3011 -0.737
14.3313 -0.102
14.3616 0.272
14.3919 0.439
14.4222 -0.228
14.4524 -0.061
14.4827 0.055
14.5130 0.900
14.5433 0.131
14.5736 0.195
14.6038 -0.365
14.6341 -0.217
14.6644 0.399
14.6947 -0.234
14.7250 0.175
14.7552 0.637
14.7855 0.161
14.8158 0.363
14.8461 -0.320
14.8764 0.091
14.9066 0.034
14.9369 0.029
14.9672 0.232
14.9975 0.020
15.0277 0.120
15.0580 0.169
15.0883 0.791
15.1186 0.215
15.1489 0.057
15.1791 0.419
15.2094 -0.416
15.2397 0.208
15.2700 0.728
15.3003 -0.001
15.3305 -0.001
15.3608 -0.261
15.3911 0.208
15.4214 0.366
15.4516 0.784
15.4819 -0.360
15.5122 0.736
15.5425 -0.043
15.5728 0.013
15.6030 0.433
15.6333 0.332
15.6636 0.649
15.6939 0.654
15.7242 0.294
15.7544 0.560
15.7847 -0.424
15.8150 0.155
15.8453 0.005
15.8755 0.325
15.9058 0.332
15.9361 -0.494
15.9664 -0.277
15.9967 -0.321
16.0269 0.469
16.0572 0.062
16.0875 0.123
16.1178 0.394
16.1481 0.769
16.1783 -0.366
16.2086 0.426
16.2389 -0.187
16.2692 0.293
16.2994 -0.215
16.3297 0.318
16.3600 -0.137
16.3903 0.605
16.4206 -0.319
16.4508 0.112
16.4811 0.439
16.5114 0.194
16.5417 -0.572
16.5720 -0.160
16.6022 0.565
16.6325 0.770
16.6628 -0.171
16.6931 -0.070
16.7233 0.084
16.7536 -0.231
16.7839 0.705
16.8142 0.808
16.8445 0.494
16.8747 0.337
16.9050 0.962
16.9353 0.493
16.9656 1.171
16.9959 -0.130
17.0261 0.288
17.0564 0.810
17.0867 0.447
17.1170 0.866
17.1472 0.296
17.1775 0.091
17.2078 -0.114
17.2381 0.411
17.2684 -0.105
17.2986 0.837
17.3289 0.686
17.3592 0.483
17.3895 0.436
17.4198 0.182
17.4500 0.033
17.4803 -0.013
17.5106 0.984
17.5409 -0.310
17.5712 0.479
17.6014 -0.345
17.6317 -0.447
17.6620 0.858
17.6923 0.705
17.7225 0.709
17.7528 1.129
17.7831 0.248
17.8134 0.618
17.8437 0.519
17.8739 0.524
17.9042 0.166
17.9345 -0.245
17.9648 0.647
17.9951 0.602
18.0253 0.245
18.0556 0.618
18.0859 0.314
18.1162 -0.303
18.1464 0.540
18.1767 0.757
18.2070 0.871
18.2373 0.048
18.2676 0.111
18.2978 0.851
18.3281 0.081
18.3584 0.092
18.3887 0.625
18.4190 0.325
18.4492 -0.026
18.4795 0.247
18.5098 0.834
18.5401 1.473
18.5703 0.862
18.6006 0.096
18.6309 0.319
18.6612 0.907
18.6915 0.246
18.7217 0.940
18.7520 -0.033
18.7823 0.348
18.8126 -0.520
18.8429 -0.330
18.8731 1.163
18.9034 1.146
18.9337 0.712
18.9640 0.175
18.9942 0.835
19.0245 -0.014
19.0548 0.231
19.0851 1.206
19.1154 0.670
19.1456 -0.646
19.1759 0.382
19.2062 0.576
19.2365 0.771
19.2668 1.071
19.2970 0.330
19.3273 0.161
19.3576 1.348
19.3879 0.347
19.4181 0.440
19.4484 0.534
19.4787 -0.153
19.5090 -0.007
19.5393 0.296
19.5695 -0.338
19.5998 -0.138
19.6301 0.218
19.6604 -0.206
19.6907 0.203
19.7209 0.092
19.7512 0.137
19.7815 0.235
19.8118 0.125
19.8420 -0.089
19.8723 0.010
19.9026 -0.203
19.9329 -0.416
19.9632 0.255
19.9934 0.196
20.0237 0.346
20.0540 0.236
20.0843 0.387
20.1146 0.018
20.1448 -0.143
20.1751 0.113
20.2054 0.110
20.2357 -0.258
20.2659 -0.157
20.2962 -0.524
20.3265 0.619
20.3568 -0.164
20.3871 -0.061
20.4173 0.146
20.4476 0.250
20.4779 0.041
20.5082 0.614
20.5385 0.250
20.5687 -0.218
20.5990 1.137
20.6293 -0.111
20.6596 0.516
20.6899 0.050
20.7201 0.261
20.7504 -0.205
20.7807 0.319
20.8110 -0.458
20.8412 0.380
20.8715 0.280
20.9018 -0.548
20.9321 -0.074
20.9624 0.348
20.9926 -0.427
21.0229 0.153
21.0532 -0.153
21.0835 -0.093
21.1138 0.019
21.1440 0.548
21.1743 0.608
21.2046 0.565
21.2349 0.574
21.2651 0.636
21.2954 0.229
21.3257 0.083
21.3560 -0.166
21.3863 -0.989
21.4165 0.200
21.4468 0.452
21.4771 0.132
21.5074 0.436
21.5377 0.689
21.5679 -0.255
21.5982 0.103
21.6285 0.200
21.6588 0.924
21.6890 -0.280
21.7193 -0.285
21.7496 0.648
21.7799 0.279
21.8102 0.431
21.8404 -0.093
21.8707 0.476
21.9010 -0.464
21.9313 -0.102
21.9616 0.104
21.9918 0.103
22.0221 -0.315
22.0524 -0.316
22.0827 0.725
22.1129 0.673
22.1432 0.152
22.1735 0.569
22.2038 0.258
22.2341 0.519
22.2643 -0.052
22.2946 -0.206
22.3249 -0.464
22.3552 0.581
22.3855 0.272
22.4157 -0.350
22.4460 0.331
22.4763 -0.029
22.5066 0.288
22.5368 0.398
22.5671 0.507
22.5974 -0.060
22.6277 -0.314
22.6580 0.318
22.6882 0.065
22.7185 0.645
22.7488 -0.024
22.7791 0.713
22.8094 -0.059
22.8396 0.523
22.8699 -0.406
22.9002 0.073
22.9305 -0.282
22.9607 0.614
22.9910 0.417
23.0213 0.428
23.0516 -0.446
23.0819 0.139
23.1121 -0.109
23.1424 0.425
23.1727 0.282
23.2030 -0.329
23.2333 -0.290
23.2635 -0.249
23.2938 0.416
23.3241 0.405
23.3544 -0.126
23.3846 0.436
23.4149 -0.042
23.4452 -0.208
23.4755 -0.217
23.5058 0.660
23.5360 -0.026
23.5663 0.279
23.5966 -0.250
23.6269 -0.205
23.6572 0.361
23.6874 0.042
23.7177 0.505
23.7480 -0.178
23.7783 0.494
23.8086 0.853
23.8388 0.276
23.8691 0.220
23.8994 -0.149
23.9297 0.004
23.9599 0.366
23.9902 -0.679
24.0205 0.673
24.0508 0.098
24.0811 -0.320
24.1113 0.148
24.1416 0.147
24.1719 0.043
24.2022 -0.530
24.2325 0.460
24.2627 0.148
24.2930 -0.268
24.3233 0.151
24.3536 -0.004
24.3838 -0.210
24.4141 0.210
24.4444 0.421
24.4747 0.425
24.5050 0.012
24.5352 0.276
24.5655 -0.240
24.5958 0.442
24.6261 1.229
24.6564 0.037
24.6866 0.668
24.7169 0.049
24.7472 -0.673
24.7775 1.366
24.8077 -0.502
24.8380 -0.338
24.8683 0.120
24.8986 -0.151
24.9289 0.619
24.9591 0.140
24.9894 -0.494
25.0197 1.059
25.0500 -0.409
25.0803 -0.001
25.1105 0.460
25.1408 0.035
25.1711 -0.389
25.2014 0.333
25.2316 -0.194
25.2619 0.008
25.2922 0.679
25.3225 0.413
25.3528 -0.373
25.3830 0.247
25.4133 0.138
25.4436 0.238
25.4739 -0.286
25.5042 0.231
25.5344 -0.501
25.5647 0.174
25.5950 0.016
25.6253 0.222
25.6555 0.325
25.6858 0.272
25.7161 -0.250
25.7464 0.584
25.7767 -0.093
25.8069 0.741
25.8372 -0.404
25.8675 0.118
25.8978 -0.141
25.9281 0.174
25.9583 0.437
25.9886 0.908
26.0189 0.130
26.0492 0.446
26.0794 0.450
26.1097 0.090
26.1400 0.303
26.1703 -0.161
26.2006 0.470
26.2308 0.059
26.2611 0.690
26.2914 -0.397
26.3217 -0.390
26.3520 0.426
26.3822 -0.111
26.4125 -0.180
26.4428 0.637
26.4731 -0.212
26.5034 -0.071
26.5336 -0.086
26.5639 0.055
26.5942 -0.272
26.6245 -0.546
26.6547 0.324
26.6850 0.569
26.7153 -0.019
26.7456 0.123
26.7759 0.473
26.8061 -0.114
26.8364 0.237
26.8667 -0.297
26.8970 -0.309
26.9273 0.616
26.9575 -0.125
26.9878 -0.241
27.0181 0.477
27.0484 0.362
27.0786 0.039
27.1089 -0.179
27.1392 0.332
27.1695 -0.250
27.1998 -0.780
27.2300 0.982
27.2603 -0.067
27.2906 -0.335
27.3209 0.022
27.3512 -0.037
27.3814 0.425
27.4117 0.210
27.4420 0.413
27.4723 0.095
27.5025 -0.275
27.5328 0.502
27.5631 0.081
27.5934 0.233
27.6237 0.542
27.6539 -0.086
27.6842 0.224
27.7145 0.690
27.7448 0.636
27.7751 0.270
27.8053 0.321
27.8356 -0.045
27.8659 -0.566
27.8962 0.163
27.9264 -0.722
27.9567 0.529
27.9870 -0.252
28.0173 0.792
28.0476 -0.144
28.0778 1.108
28.1081 0.121
28.1384 0.645
28.1687 0.284
28.1990 -0.858
28.2292 -0.238
28.2595 0.123
28.2898 -0.349
28.3201 0.793
28.3503 -0.720
28.3806 0.111
28.4109 1.203
28.4412 0.107
28.4715 0.679
28.5017 1.407
28.5320 -0.676
28.5623 0.365
28.5926 -0.937
28.6229 -0.341
28.6531 0.724
28.6834 0.382
28.7137 0.041
28.7440 0.118
28.7742 0.663
28.8045 -0.250
28.8348 -0.016
28.8651 -0.042
28.8954 0.504
28.9256 -0.250
28.9559 -0.328
28.9862 0.949
29.0165 0.300
29.0468 0.224
29.0770 0.669
29.1073 0.281
29.1376 0.466
29.1679 1.121
29.1981 -0.620
29.2284 0.243
29.2587 0.065
29.2890 0.149
29.3193 -0.393
29.3495 -0.205
29.3798 0.608
29.4101 0.433
29.4404 -0.420
29.4707 -0.416
29.5009 -0.151
29.5312 -0.146
29.5615 1.110
29.5918 0.074
29.6221 0.184
29.6523 -0.278
29.6826 -0.323
29.7129 0.830
29.7432 0.317
29.7734 0.169
29.8037 0.802
29.8340 0.082
29.8643 1.393
29.8946 0.465
29.9248 -0.098
29.9551 1.006
29.9854 0.392
30.0157 0.039
30.0460 0.415
30.0762 0.791
30.1065 0.699
30.1368 0.243
30.1671 2.183
30.1973 0.009
30.2276 0.440
30.2579 0.975
30.2882 -0.052
30.3185 0.431
30.3487 0.238
30.3790 0.306
30.4093 0.322
30.4396 0.651
30.4699 1.970
30.5001 0.998
30.5304 1.536
30.5607 1.346
30.5910 1.104
30.6212 0.914
30.6515 1.298
30.6818 0.693
30.7121 1.025
30.7424 1.774
30.7726 2.524
30.8029 2.962
30.8332 3.035
30.8635 2.484
30.8938 4.434
30.9240 5.706
30.9543 4.219
30.9846 5.753
31.0149 5.255
31.0451 6.894
31.0754 6.294
31.1057 7.569
31.1360 8.167
31.1663 10.171
31.1965 10.927
31.2268 12.151
31.2571 12.647
31.2874 15.851
31.3177 14.576
31.3479 16.896
31.3782 22.549
31.4085 24.869
31.4388 26.930
31.4690 32.116
31.4993 35.843
31.5296 40.353
31.5599 42.779
31.5902 40.831
31.6204 47.529
31.6507 47.248
31.6810 47.541
31.7113 49.188
31.7416 47.398
31.7718 45.191
31.8021 37.048
31.8324 35.624
31.8627 29.721
31.8929 29.026
31.9232 22.968
31.9535 18.107
31.9838 18.664
32.0141 15.628
32.0443 13.321
32.0746 12.368
32.1049 10.635
32.1352 10.152
32.1655 8.575
32.1957 7.208
32.2260 5.268
32.2563 4.630
32.2866 5.711
32.3169 3.929
32.3471 3.032
32.3774 3.073
32.4077 4.676
32.4380 2.999
32.4682 2.052
32.4985 2.303
32.5288 2.918
32.5591 2.180
32.5894 1.078
32.6196 1.174
32.6499 1.791
32.6802 0.326
32.7105 0.892
32.7408 1.197
32.7710 0.931
32.8013 -0.012
32.8316 0.295
32.8619 -0.231
32.8921 -0.028
32.9224 0.697
32.9527 -0.192
32.9830 1.419
33.0133 -1.605
33.0435 -0.462
33.0738 -0.256
33.1041 -0.571
33.1344 -0.221
33.1647 0.182
33.1949 0.689
33.2252 -0.314
33.2555 -0.171
33.2858 -0.027
33.3160 -0.456
33.3463 -0.052
33.3766 0.197
33.4069 -0.335
33.4372 -0.241
33.4674 -0.460
33.4977 0.207
33.5280 0.562
33.5583 1.178
33.5886 1.117
33.6188 1.525
33.6491 1.100
33.6794 0.988
33.7097 1.658
33.7399 2.224
33.7702 2.165
33.8005 3.617
33.8308 3.039
33.8611 4.544
33.8913 4.643
33.9216 6.149
33.9519 9.061
33.9822 7.547
34.0125 9.626
34.0427 9.780
34.0730 11.912
34.1033 15.451
34.1336 21.491
34.1638 24.250
34.1941 28.572
34.2244 37.425
34.2547 48.570
34.2850 55.549
34.3152 63.623
34.3455 68.363
34.3758 65.187
34.4061 52.792
34.4364 43.784
34.4666 39.619
34.4969 26.914
34.5272 24.417
34.5575 16.868
34.5877 15.309
34.6180 12.397
34.6483 10.734
34.6786 8.812
34.7089 9.182
34.7391 6.271
34.7694 6.017
34.7997 5.190
34.8300 5.769
34.8603 5.099
34.8905 3.805
34.9208 4.177
34.9511 3.665
34.9814 3.986
35.0116 3.735
35.0419 4.473
35.0722 4.119
35.1025 4.806
35.1328 4.765
35.1630 5.192
35.1933 6.714
35.2236 5.163
35.2539 3.509
35.2842 5.136
35.3144 5.670
35.3447 4.954
35.3750 6.842
35.4053 7.273
35.4356 7.235
35.4658 7.927
35.4961 12.942
35.5264 8.635
35.5567 9.901
35.5869 12.469
35.6172 12.694
35.6475 13.285
35.6778 18.042
35.7081 20.403
35.7383 21.359
35.7686 25.388
35.7989 25.563
35.8292 28.968
35.8595 31.332
35.8897 37.445
35.9200 42.466
35.9503 44.206
35.9806 51.154
36.0108 57.322
36.0411 65.000
36.0714 72.106
36.1017 76.087
36.1320 75.485
36.1622 76.915
36.1925 75.637
36.2228 75.609
36.2531 74.280
36.2834 68.211
36.3136 62.091
36.3439 56.387
36.3742 47.664
36.4045 43.159
36.4347 39.019
36.4650 31.443
36.4953 28.085
36.5256 23.165
36.5559 21.319
36.5861 18.275
36.6164 16.429
36.6467 14.167
36.6770 12.166
36.7073 12.040
36.7375 11.342
36.7678 10.436
36.7981 9.165
36.8284 7.270
36.8586 7.771
36.8889 6.085
36.9192 5.493
36.9495 4.954
36.9798 5.352
37.0100 4.814
37.0403 4.015
37.0706 3.217
37.1009 4.190
37.1312 2.611
37.1614 2.595
37.1917 1.382
37.2220 1.523
37.2523 2.498
37.2825 1.858
37.3128 0.698
37.3431 2.352
37.3734 2.026
37.4037 0.815
37.4339 2.157
37.4642 0.218
37.4945 1.508
37.5248 1.236
37.5551 1.017
37.5853 0.642
37.6156 1.309
37.6459 0.778
37.6762 0.717
37.7064 0.656
37.7367 0.126
37.7670 0.951
37.7973 1.048
37.8276 0.988
37.8578 0.772
37.8881 0.610
37.9184 0.707
37.9487 0.701
37.9790 0.331
38.0092 0.586
38.0395 0.165
38.0698 0.213
38.1001 1.198
38.1304 0.986
38.1606 -0.163
38.1909 -0.426
38.2212 0.037
38.2515 0.345
38.2817 -0.076
38.3120 -0.288
38.3423 0.230
38.3726 0.539
38.4029 0.068
38.4331 -0.403
38.4634 -0.074
38.4937 -0.162
38.5240 0.428
38.5543 0.133
38.5845 0.047
38.6148 -0.143
38.6451 0.345
38.6754 0.833
38.7056 0.748
38.7359 0.195
38.7662 0.059
38.7965 0.184
38.8268 0.101
38.8570 0.695
38.8873 0.040
38.9176 -0.407
38.9479 0.345
38.9782 -0.309
39.0084 -0.598
39.0387 0.361
39.0690 -0.086
39.0993 -0.376
39.1295 0.005
39.1598 0.491
39.1901 0.039
39.2204 0.630
39.2507 0.231
39.2809 -0.167
39.3112 0.112
39.3415 0.756
39.3718 1.036
39.4021 0.170
39.4323 -0.122
39.4626 0.159
39.4929 0.180
39.5232 0.253
39.5534 -0.038
39.5837 0.505
39.6140 0.007
39.6443 -0.074
39.6746 -0.728
39.7048 0.110
39.7351 0.010
39.7654 -0.141
39.7957 -0.031
39.8260 -0.442
39.8562 0.815
39.8865 0.561
39.9168 0.204
39.9471 0.055
39.9773 -0.093
40.0076 -0.345
40.0379 -0.133
40.0682 0.027
40.0985 0.084
40.1287 -0.953
40.1590 0.042
40.1893 -0.160
40.2196 0.002
40.2499 0.477
40.2801 0.068
40.3104 0.648
40.3407 0.135
40.3710 -0.274
40.4012 0.151
40.4315 -0.205
40.4618 0.013
40.4921 0.908
40.5224 -0.332
40.5526 0.720
40.5829 0.522
40.6132 -0.248
40.6435 -0.236
40.6738 0.192
40.7040 -0.212
40.7343 0.165
40.7646 -0.187
40.7949 -0.329
40.8251 -0.019
40.8554 0.395
40.8857 -0.388
40.9160 0.965
40.9463 -0.181
40.9765 -0.130
41.0068 -0.130
41.0371 -0.130
41.0674 0.027
41.0977 0.757
41.1279 -0.491
41.1582 0.084
41.1885 0.554
41.2188 -0.120
41.2491 -0.273
41.2793 -0.062
41.3096 -0.058
41.3399 -0.262
41.3702 0.940
41.4004 -0.461
41.4307 0.586
41.4610 -0.034
41.4913 0.389
41.5216 0.447
41.5518 0.871
41.5821 -0.112
41.6124 -0.104
41.6427 0.008
41.6730 1.006
41.7032 0.285
41.7335 -0.174
41.7638 -0.061
41.7941 -0.364
41.8243 0.098
41.8546 -0.065
41.8849 0.449
41.9152 0.391
41.9455 0.125
41.9757 -0.297
42.0060 -0.146
42.0363 0.058
42.0666 -0.207
42.0969 0.675
42.1271 0.203
42.1574 0.356
42.1877 0.249
42.2180 0.143
42.2482 0.089
42.2785 -0.278
42.3088 0.450
42.3391 -0.332
42.3694 0.137
42.3996 0.449
42.4299 -0.227
42.4602 -0.175
42.4905 -0.017
42.5208 -0.276
42.5510 -0.118
42.5813 0.301
42.6116 -0.477
42.6419 0.098
42.6721 -0.367
42.7024 0.575
42.7327 0.579
42.7630 0.323
42.7933 -0.297
42.8235 0.281
42.8538 0.026
42.8841 0.085
42.9144 0.560
42.9447 -0.215
42.9749 -0.364
43.0052 0.264
43.0355 -0.202
43.0658 0.166
43.0960 -0.039
43.1263 -0.399
43.1566 0.595
43.1869 0.183
43.2172 -0.176
43.2474 0.090
43.2777 0.356
43.3080 1.040
43.3383 0.161
43.3686 0.376
43.3988 0.957
43.4291 -0.233
43.4594 0.400
43.4897 0.148
43.5199 -0.416
43.5502 -0.104
43.5805 -0.104
43.6108 -0.261
43.6411 0.208
43.6713 1.043
43.7016 0.783
43.7319 0.681
43.7622 0.266
43.7925 -0.201
43.8227 0.323
43.8530 0.170
43.8833 0.329
43.9136 0.645
43.9439 0.858
43.9741 -0.075
44.0044 -0.018
44.0347 -0.273
44.0650 0.149
44.0952 0.624
44.1255 -0.255
44.1558 0.533
44.1861 0.228
44.2164 -0.337
44.2466 -0.193
44.2769 0.107
44.3072 0.825
44.3375 0.502
44.3678 0.126
44.3980 0.220
44.4283 0.262
44.4586 0.149
44.4889 0.452
44.5191 0.756
44.5494 0.018
44.5797 0.271
44.6100 0.159
44.6403 -0.317
44.6705 -0.125
44.7008 1.005
44.7311 0.208
44.7614 -0.120
44.7917 0.178
44.8219 -0.097
44.8522 0.513
44.8825 0.187
44.9128 0.486
44.9430 0.369
44.9733 -0.373
45.0036 -0.125
45.0339 -0.189
45.0642 0.269
45.0944 0.362
45.1247 -0.066
45.1550 0.393
45.1853 -0.242
45.2156 0.217
45.2458 -0.053
45.2761 0.147
45.3064 0.190
45.3367 -0.078
45.3669 0.018
45.3972 0.636
45.4275 -0.048
45.4578 0.518
45.4881 0.147
45.5183 -0.535
45.5486 0.032
45.5789 -0.390
45.6092 0.005
45.6395 0.712
45.6697 -0.091
45.7000 0.305
45.7303 0.493
45.7606 -0.413
45.7908 -0.068
45.8211 -0.088
45.8514 0.258
45.8817 0.291
45.9120 0.168
45.9422 0.306
45.9725 -0.180
46.0028 0.272
46.0331 0.619
46.0634 0.655
46.0936 0.691
46.1239 0.519
46.1542 -0.278
46.1845 1.166
46.2147 -0.516
46.2450 0.199
46.2753 0.602
46.3056 0.068
46.3359 0.263
46.3661 -0.010
46.3964 -0.230
46.4267 0.226
46.4570 0.163
46.4873 1.141
46.5175 0.662
46.5478 1.120
46.5781 0.902
46.6084 0.267
46.6386 1.352
46.6689 1.655
46.6992 1.178
46.7295 1.014
46.7598 1.735
46.7900 1.780
46.8203 1.877
46.8506 1.714
46.8809 2.281
46.9112 1.963
46.9414 3.103
46.9717 3.932
47.0020 3.979
47.0323 4.964
47.0626 5.898
47.0928 5.165
47.1231 5.996
47.1534 7.295
47.1837 8.178
47.2139 9.947
47.2442 10.258
47.2745 11.194
47.3048 13.172
47.3351 14.734
47.3653 14.214
47.3956 14.995
47.4259 16.558
47.4562 16.143
47.4865 15.936
47.5167 16.927
47.5470 14.846
47.5773 12.557
47.6076 12.508
47.6378 12.199
47.6681 10.744
47.6984 8.665
47.7287 7.784
47.7590 7.685
47.7892 7.065
47.8195 5.404
47.8498 4.837
47.8801 3.906
47.9104 3.444
47.9406 2.931
47.9709 1.792
48.0012 2.425
48.0315 1.340
48.0617 1.609
48.0920 1.514
48.1223 0.951
48.1526 1.794
48.1829 1.752
48.2131 1.710
48.2434 1.097
48.2737 1.941
48.3040 0.599
48.3343 0.871
48.3645 1.092
48.3948 0.480
48.4251 0.858
48.4554 -0.378
48.4856 1.355
48.5159 1.057
48.5462 1.280
48.5765 -0.059
48.6068 0.008
48.6370 -0.028
48.6673 0.145
48.6976 -0.411
48.7279 0.283
48.7582 -0.533
48.7884 0.006
48.8187 0.284
48.8490 0.199
48.8793 -0.095
48.9095 0.706
48.9398 -0.264
48.9701 0.069
49.0004 -0.015
49.0307 -0.098
49.0609 0.184
49.0912 0.310
49.1215 -0.085
49.1518 0.094
49.1821 0.898
49.2123 0.192
49.2426 -0.045
49.2729 -0.125
49.3032 0.524
49.3334 -0.388
49.3637 0.001
49.3940 0.131
49.4243 -0.208
49.4546 -0.337
49.4848 0.237
49.5151 -0.022
49.5454 -0.124
49.5757 0.139
49.6060 0.142
49.6362 0.249
49.6665 -0.216
49.6968 0.309
49.7271 0.053
49.7574 0.266
49.7876 0.167
49.8179 -0.400
49.8482 0.856
49.8785 0.133
49.9087 -0.225
49.9390 0.147
49.9693 -0.002
49.9996 -0.359
50.0299 0.170
50.0601 0.023
50.0904 -0.073
50.1207 0.145
50.1510 -0.001
50.1813 0.165
50.2115 0.280
50.2418 0.082
50.2721 -0.115
50.3024 -0.311
50.3326 0.146
50.3629 0.186
50.3932 0.436
50.4235 -0.408
50.4538 0.884
50.4840 0.770
50.5143 -0.021
50.5446 0.543
50.5749 -0.299
50.6052 0.370
50.6354 0.414
50.6657 -0.114
50.6960 -0.226
50.7263 0.028
50.7565 0.595
50.7868 0.589
50.8171 -0.250
50.8474 -0.308
50.8777 0.781
50.9079 -0.369
50.9382 -0.321
50.9685 -0.012
50.9988 -0.588
51.0291 0.139
51.0593 -0.280
51.0896 -0.282
51.1199 0.029
51.1502 -0.285
51.1804 0.392
51.2107 -0.494
51.2410 -0.234
51.2713 0.340
51.3016 0.080
51.3318 0.029
51.3621 -0.074
51.3924 0.189
51.4227 -0.173
51.4530 0.142
51.4832 -0.272
51.5135 -0.112
51.5438 0.204
51.5741 -0.052
51.6043 0.369
51.6346 0.583
51.6649 -0.037
51.6952 -0.187
51.7255 -0.337
51.7557 0.242
51.7860 -0.272
51.8163 -0.317
51.8466 0.093
51.8769 -0.017
51.9071 -0.335
51.9374 0.285
51.9677 -0.033
51.9980 -0.141
52.0282 -0.302
52.0585 0.424
52.0888 0.733
52.1191 -0.572
52.1494 -0.106
52.1796 -0.317
52.2099 0.879
52.2402 0.148
52.2705 0.252
52.3008 -0.114
52.3310 -0.218
52.3613 0.250
52.3916 -0.062
52.4219 0.043
52.4521 1.242
52.4824 0.671
52.5127 0.309
52.5430 -0.054
52.5733 -0.416
52.6035 0.099
52.6338 0.250
52.6641 0.609
52.6944 -0.177
52.7247 0.235
52.7549 -0.030
52.7852 0.487
52.8155 -0.506
52.8458 0.064
52.8761 0.061
52.9063 0.423
52.9366 -0.464
52.9669 0.316
52.9972 0.627
53.0274 0.106
53.0577 -1.197
53.0880 -0.068
53.1183 0.124
53.1486 -0.153
53.1788 -0.117
53.2091 -0.133
53.2394 -0.200
53.2697 0.567
53.3000 0.083
53.3302 -0.295
53.3605 0.212
53.3908 -0.218
53.4211 -0.283
53.4513 0.486
53.4816 -0.047
53.5119 -0.059
53.5422 0.190
53.5725 -0.342
53.6027 -0.196
53.6330 0.679
53.6633 -0.216
53.6936 0.399
53.7239 0.338
53.7541 0.642
53.7844 -0.825
53.8147 0.104
53.8450 -0.216
53.8752 0.193
53.9055 -0.022
53.9358 0.024
53.9661 -0.607
53.9964 0.533
54.0266 0.007
54.0569 -0.207
54.0872 0.414
54.1175 -0.164
54.1478 -0.011
54.1780 -0.015
54.2083 0.347
54.2386 0.032
54.2689 -0.335
54.2991 -0.233
54.3294 -0.026
54.3597 -0.027
54.3900 1.170
54.4203 0.180
54.4505 0.596
54.4808 0.180
54.5111 -0.236
54.5414 0.026
54.5717 0.131
54.6019 0.498
54.6322 -0.229
54.6625 0.347
54.6928 0.558
54.7230 -0.116
54.7533 0.461
54.7836 -0.108
54.8139 -0.520
54.8442 0.132
54.8744 0.837
54.9047 0.032
54.9350 0.268
54.9653 0.401
54.9956 0.222
55.0258 1.085
55.0561 0.646
55.0864 0.208
55.1167 0.447
55.1469 0.426
55.1772 0.405
55.2075 0.437
55.2378 0.104
55.2681 0.970
55.2983 -0.299
55.3286 1.609
55.3589 0.758
55.3892 1.729
55.4195 1.607
55.4497 0.965
55.4800 1.730
55.5103 0.776
55.5406 1.801
55.5709 1.056
55.6011 0.416
55.6314 1.287
55.6617 1.845
55.6920 1.831
55.7222 1.869
55.7525 2.897
55.7828 3.874
55.8131 3.392
55.8434 3.276
55.8736 3.785
55.9039 3.409
55.9342 4.960
55.9645 4.950
55.9948 5.252
56.0250 5.138
56.0553 7.055
56.0856 7.515
56.1159 6.829
56.1461 8.487
56.1764 7.958
56.2067 10.502
56.2370 13.203
56.2673 11.009
56.2975 12.305
56.3278 15.007
56.3581 16.564
56.3884 21.037
56.4187 22.282
56.4489 19.465
56.4792 22.326
56.5095 19.665
56.5398 20.808
56.5700 19.607
56.6003 20.698
56.6306 19.081
56.6609 16.318
56.6912 16.369
56.7214 13.607
56.7517 13.398
56.7820 12.669
56.8123 11.054
56.8426 9.179
56.8728 7.357
56.9031 6.212
56.9334 6.631
56.9637 4.810
56.9939 4.603
57.0242 4.606
57.0545 3.620
57.0848 3.363
57.1151 3.887
57.1453 2.902
57.1756 2.594
57.2059 1.817
57.2362 3.177
57.2665 2.349
57.2967 1.887
57.3270 1.633
57.3573 1.379
57.3876 1.282
57.4178 1.342
57.4481 1.610
57.4784 0.785
57.5087 1.940
57.5390 1.793
57.5692 0.552
57.5995 0.666
57.6298 0.781
57.6601 0.583
57.6904 0.386
57.7206 0.501
57.7509 0.200
57.7812 0.056
57.8115 -0.191
57.8417 0.499
57.8720 1.033
57.9023 0.213
57.9326 0.019
57.9629 -0.071
57.9931 0.152
58.0234 -0.353
58.0537 -0.702
58.0840 0.399
58.1143 -0.531
58.1445 1.144
58.1748 0.371
58.2051 -0.037
58.2354 0.129
58.2656 -0.070
58.2959 -0.060
58.3262 -0.258
58.3565 -0.195
58.3868 -0.288
58.4170 -0.329
58.4473 -0.265
58.4776 -0.304
58.5079 0.021
58.5382 0.034
58.5684 -0.057
58.5987 0.009
58.6290 -0.185
58.6593 0.663
58.6896 0.105
58.7198 -0.088
58.7501 0.032
58.7804 -0.317
58.8107 0.064
58.8409 0.081
58.8712 0.411
58.9015 -0.144
58.9318 -0.126
58.9621 0.100
58.9923 -0.193
59.0226 0.659
59.0529 0.054
59.0832 0.699
59.1135 0.354
59.1437 0.531
59.1740 0.396
59.2043 -0.676
59.2346 -0.345
59.2648 -0.173
59.2951 0.156
59.3254 0.069
59.3557 0.399
59.3860 -0.104
59.4162 0.331
59.4465 0.350
59.4768 0.264
59.5071 0.284
59.5374 0.147
59.5676 0.063
59.5979 0.136
59.6282 -0.520
59.6585 0.282
59.6887 0.408
59.7190 0.326
59.7493 0.296
59.7796 0.527
59.8099 0.082
59.8401 -0.364
59.8704 -0.072
59.9007 1.573
59.9310 -0.530
59.9613 0.960
59.9915 0.211
60.0218 0.504
60.0521 0.277
60.0824 0.831
60.1126 -0.281
60.1429 -0.299
60.1732 0.413
60.2035 0.552
60.2338 0.379
60.2640 -0.419
60.2943 0.711
60.3246 0.747
60.3549 0.107
60.3852 -0.168
60.4154 0.338
60.4457 0.012
60.4760 0.519
60.5063 0.089
60.5365 -0.288
60.5668 -0.093
60.5971 0.260
60.6274 0.665
60.6577 0.132
60.6879 -0.556
60.7182 0.267
60.7485 0.465
60.7788 0.247
60.8091 0.290
60.8393 0.072
60.8696 -0.353
60.8999 -0.221
60.9302 0.275
60.9604 0.304
60.9907 0.176
61.0210 0.205
61.0513 -0.130
61.0816 -0.152
61.1118 -0.486
61.1421 0.742
61.1724 -0.008
61.2027 0.128
61.2330 0.472
61.2632 0.244
61.2935 0.224
61.3238 -0.159
61.3541 0.343
61.3844 0.272
61.4146 0.671
61.4449 -0.128
61.4752 -0.406
61.5055 0.411
61.5357 0.551
61.5660 0.639
61.5963 0.363
61.6266 0.399
61.6569 0.384
61.6871 0.787
61.7174 0.616
61.7477 0.550
61.7780 1.058
61.8083 1.305
61.8385 -0.166
61.8688 0.082
61.8991 0.695
61.9294 0.684
61.9596 1.819
61.9899 0.975
62.0202 2.162
62.0505 1.683
62.0808 1.830
62.1110 2.394
62.1413 2.385
62.1716 3.054
62.2019 2.577
62.2322 3.298
62.2624 4.489
62.2927 3.805
62.3230 5.986
62.3533 5.303
62.3835 6.651
62.4138 6.698
62.4441 7.839
62.4744 8.094
62.5047 10.538
62.5349 9.180
62.5652 12.510
62.5955 13.340
62.6258 14.483
62.6561 16.304
62.6863 16.927
62.7166 16.144
62.7469 19.216
62.7772 18.694
62.8074 18.121
62.8377 19.944
62.8680 17.548
62.8983 16.612
62.9286 17.133
62.9588 15.260
62.9891 13.231
63.0194 11.670
63.0497 11.100
63.0800 9.124
63.1102 8.763
63.1405 7.516
63.1708 7.260
63.2011 5.234
63.2313 5.030
63.2616 4.515
63.2919 4.156
63.3222 4.422
63.3525 1.512
63.3827 2.144
63.4130 2.203
63.4433 1.586
63.4736 1.802
63.5039 1.446
63.5341 1.090
63.5644 2.297
63.5947 1.525
63.6250 0.754
63.6552 1.181
63.6855 1.400
63.7158 0.525
63.7461 0.745
63.7764 0.497
63.8066 -1.054
63.8369 1.146
63.8672 0.378
63.8975 -0.390
63.9278 -0.012
63.9580 0.159
63.9883 0.486
64.0186 0.240
64.0489 0.568
64.0791 0.167
64.1094 -0.494
64.1397 0.095
64.1700 0.216
64.2003 0.077
64.2305 0.199
64.2608 -0.669
64.2911 0.235
64.3214 -0.007
64.3517 0.533
64.3819 0.084
64.4122 0.572
64.4425 0.020
64.4728 -0.272
64.5031 -0.356
64.5333 0.030
64.5636 -0.365
64.5939 -0.273
64.6242 0.549
64.6544 0.382
64.6847 0.371
64.7150 0.620
64.7453 0.089
64.7756 -0.597
64.8058 0.331
64.8361 0.947
64.8664 0.261
64.8967 -0.060
64.9270 0.036
64.9572 0.081
64.9875 0.282
65.0178 0.119
65.0481 0.061
65.0783 0.159
65.1086 0.310
65.1389 0.461
65.1692 -0.690
65.1995 0.451
65.2297 0.083
65.2600 -0.702
65.2903 -0.034
65.3206 0.009
65.3509 -0.416
65.3811 0.024
65.4114 0.465
65.4417 0.176
65.4720 -0.685
65.5022 0.069
65.5325 0.199
65.5628 0.433
65.5931 -0.114
65.6234 0.381
65.6536 0.043
65.6839 0.123
65.7142 0.411
65.7445 0.387
65.7748 -0.002
65.8050 0.027
65.8353 0.994
65.8656 0.658
65.8959 0.845
65.9261 0.198
65.9564 0.645
65.9867 0.311
66.0170 0.759
66.0473 0.739
66.0775 1.032
66.1078 1.950
66.1381 1.149
66.1684 1.078
66.1987 1.425
66.2289 1.042
66.2592 2.274
66.2895 1.840
66.3198 2.032
66.3500 1.755
66.3803 2.885
66.4106 1.202
66.4409 1.552
66.4712 1.016
66.5014 0.897
66.5317 1.560
66.5620 1.754
66.5923 0.283
66.6226 1.103
66.6528 0.517
66.6831 1.026
66.7134 1.014
66.7437 1.263
66.7739 1.200
66.8042 -0.061
66.8345 1.074
66.8648 1.012
66.8951 0.482
66.9253 1.358
66.9556 0.932
66.9859 0.455
67.0162 1.541
67.0465 0.387
67.0767 0.849
67.1070 1.102
67.1373 1.096
67.1676 1.662
67.1978 1.604
67.2281 2.172
67.2584 2.427
67.2887 2.423
67.3190 2.783
67.3492 3.717
67.3795 2.932
67.4098 3.918
67.4401 3.863
67.4704 5.215
67.5006 6.359
67.5309 4.743
67.5612 5.783
67.5915 6.772
67.6218 6.720
67.6520 8.647
67.6823 9.220
67.7126 10.731
67.7429 11.357
67.7731 12.608
67.8034 12.610
67.8337 12.404
67.8640 11.834
67.8943 11.785
67.9245 13.663
67.9548 13.354
67.9851 10.806
68.0154 10.030
68.0457 11.128
68.0759 10.717
68.1062 9.525
68.1365 7.760
68.1668 7.089
68.1970 6.679
68.2273 5.905
68.2576 5.496
68.2879 4.879
68.3182 4.262
68.3484 4.948
68.3787 3.551
68.4090 3.613
68.4393 3.623
68.4696 3.216
68.4998 4.060
68.5301 3.029
68.5604 2.260
68.5907 3.990
68.6209 3.065
68.6512 5.108
68.6815 3.507
68.7118 3.728
68.7421 3.430
68.7723 4.277
68.8026 4.031
68.8329 5.348
68.8632 5.519
68.8935 4.389
68.9237 5.238
68.9540 5.411
68.9843 5.896
69.0146 5.028
69.0448 5.046
69.0751 6.261
69.1054 5.238
69.1357 3.955
69.1660 4.755
69.1962 4.201
69.2265 4.950
69.2568 3.981
69.2871 3.376
69.3174 2.772
69.3476 1.960
69.3779 3.076
69.4082 2.473
69.4385 1.818
69.4687 1.997
69.4990 1.708
69.5293 0.482
69.5596 1.756
69.5899 1.676
69.6201 0.971
69.6504 -0.201
69.6807 0.605
69.7110 0.319
69.7413 0.553
69.7715 0.841
69.8018 0.451
69.8321 -0.095
69.8624 -0.171
69.8926 -0.247
69.9229 0.198
69.9532 0.331
69.9835 -0.368
70.0138 -0.078
70.0440 -0.204
70.0743 0.243
70.1046 -0.143
70.1349 -0.060
70.1652 -0.080
70.1954 0.004
70.2257 0.401
70.2560 -0.660
70.2863 0.363
70.3166 -0.385
70.3468 0.847
70.3771 -0.213
70.4074 -0.074
70.4377 0.378
70.4679 0.049
70.4982 0.137
70.5285 -0.192
70.5588 -0.624
70.5891 0.218
70.6193 -0.137
70.6496 -0.232
70.6799 0.351
70.7102 0.362
70.7405 -0.617
70.7707 0.175
70.8010 0.395
70.8313 0.147
70.8616 -0.153
70.8918 0.068
70.9221 -0.180
70.9524 -0.166
70.9827 -0.048
71.0130 0.018
71.0432 -0.280
71.0735 -0.317
71.1038 0.151
71.1341 -0.475
71.1644 0.826
71.1946 -0.267
71.2249 0.514
71.2552 0.098
71.2855 0.672
71.3157 0.517
71.3460 -0.418
71.3763 0.209
71.4066 -0.414
71.4369 0.631
71.4671 0.114
71.4974 0.326
71.5277 -0.556
71.5580 -0.187
71.5883 -0.130
71.6185 -0.124
71.6488 0.402
71.6791 -0.321
71.7094 0.206
71.7396 0.369
71.7699 -0.197
71.8002 -0.033
71.8305 -0.337
71.8608 0.075
71.8910 0.748
71.9213 0.692
71.9516 0.063
71.9819 0.269
72.0122 0.631
72.0424 0.108
72.0727 0.106
72.1030 0.365
72.1333 0.260
72.1635 0.207
72.1938 0.571
72.2241 -0.054
72.2544 0.936
72.2847 -0.157
72.3149 0.626
72.3452 0.732
72.3755 0.838
72.4058 1.309
72.4361 0.739
72.4663 1.002
72.4966 1.162
72.5269 0.749
72.5572 1.274
72.5874 1.123
72.6177 0.711
72.6480 0.612
72.6783 1.191
72.7086 1.145
72.7388 1.100
72.7691 0.169
72.7994 0.593
72.8297 0.236
72.8600 0.609
72.8902 -0.112
72.9205 0.418
72.9508 0.948
72.9811 0.228
73.0113 -0.074
73.0416 0.301
73.0719 -0.261
73.1022 0.583
73.1325 0.334
73.1627 0.398
73.1930 -0.267
73.2233 0.267
73.2536 0.072
73.2839 -0.071
73.3141 0.672
73.3444 0.113
73.3747 0.388
73.4050 -0.118
73.4353 0.002
73.4655 0.226
73.4958 -0.123
73.5261 0.519
73.5564 -0.558
73.5866 -0.280
73.6169 0.088
73.6472 0.457
73.6775 0.774
73.7078 0.466
73.7380 0.627
73.7683 -0.044
73.7986 0.483
73.8289 0.020
73.8592 -0.337
73.8894 0.018
73.9197 0.426
73.9500 0.781
73.9803 0.096
74.0105 0.192
74.0408 0.862
74.0711 -0.239
74.1014 0.432
74.1317 0.217
74.1619 0.159
74.1922 0.101
74.2225 -0.164
74.2528 0.247
74.2831 0.035
74.3133 0.604
74.3436 -0.025
74.3739 0.336
74.4042 0.594
74.4344 0.279
74.4647 0.068
74.4950 0.171
74.5253 -0.091
74.5556 0.533
74.5858 -0.614
74.6161 -0.197
74.6464 -0.249
74.6767 -0.040
74.7070 0.117
74.7372 0.274
74.7675 -0.088
74.7978 -0.034
74.8281 -0.084
74.8583 -0.133
74.8886 0.183
74.9189 -0.178
74.9492 -0.487
74.9795 0.715
75.0097 0.251
75.0400 0.152
75.0703 0.314
75.1006 0.320
75.1309 0.378
75.1611 -0.084
75.1914 -0.494
75.2217 0.133
75.2520 -0.074
75.2822 -0.280
75.3125 -0.133
75.3428 -0.142
75.3731 -0.254
75.4034 0.415
75.4336 -0.582
75.4639 0.192
75.4942 -0.388
75.5245 0.648
75.5548 0.329
75.5850 0.011
75.6153 0.006
75.6456 -0.468
75.6759 0.040
75.7061 0.287
75.7364 0.691
75.7667 0.053
75.7970 0.562
75.8273 0.238
75.8575 -0.034
75.8878 0.215
75.9181 0.205
75.9484 0.143
75.9787 0.029
76.0089 0.123
76.0392 -0.198
76.0695 -0.103
76.0998 0.566
76.1301 0.454
76.1603 -0.282
76.1906 0.387
76.2209 0.381
76.2512 0.218
76.2814 0.316
76.3117 0.571
76.3420 0.306
76.3723 0.249
76.4026 0.088
76.4328 0.553
76.4631 0.497
76.4934 0.077
76.5237 0.386
76.5540 0.644
76.5842 0.798
76.6145 0.588
76.6448 0.951
76.6751 0.898
76.7053 1.106
76.7356 0.481
76.7659 1.575
76.7962 1.523
76.8265 1.003
76.8567 1.057
76.8870 0.485
76.9173 0.592
76.9476 1.375
76.9779 1.690
77.0081 1.225
77.0384 2.479
77.0687 1.285
77.0990 0.976
77.1292 1.033
77.1595 0.517
77.1898 0.679
77.2201 1.310
77.2504 0.795
77.2806 0.698
77.3109 0.549
77.3412 -0.329
77.3715 0.147
77.4018 0.520
77.4320 0.112
77.4623 -0.036
77.4926 -0.183
77.5229 0.348
77.5531 0.723
77.5834 0.056
77.6137 0.067
77.6440 0.443
77.6743 0.090
77.7045 0.310
77.7348 0.166
77.7651 -0.290
77.7954 -0.235
77.8257 0.184
77.8559 -0.021
77.8862 0.035
77.9165 0.351
77.9468 0.668
77.9770 -0.056
78.0073 -0.363
78.0376 0.111
78.0679 0.013
78.0982 -0.240
78.1284 0.079
78.1587 0.086
78.1890 0.146
78.2193 0.415
78.2496 -0.306
78.2798 0.172
78.3101 0.546
78.3404 0.295
78.3707 0.462
78.4009 -0.413
78.4312 -0.090
78.4615 -0.131
78.4918 -0.276
78.5221 0.044
78.5523 0.468
78.5826 0.424
78.6129 0.119
78.6432 -0.185
78.6735 0.241
78.7037 -0.062
78.7340 -0.105
78.7643 -0.042
78.7946 0.437
78.8248 0.083
78.8551 -0.010
78.8854 -0.102
78.9157 0.118
78.9460 -0.234
78.9762 -0.117
79.0065 -0.260
79.0368 0.097
79.0671 0.090
79.0974 -0.228
79.1276 0.443
79.1579 0.073
79.1882 0.536
79.2185 0.531
79.2488 0.579
79.2790 0.419
79.3093 0.051
79.3396 0.620
79.3699 0.878
79.4001 0.667
79.4304 -0.325
79.4607 0.246
79.4910 -0.068
79.5213 -0.433
79.5515 0.243
79.5818 0.087
79.6121 0.295
79.6424 0.140
79.6727 0.401
79.7029 -0.327
79.7332 0.508
79.7635 -0.531
79.7938 0.044
79.8240 -0.266
79.8543 -0.223
79.8846 0.028
79.9149 -0.085
79.9452 0.114
79.9754 -0.154
80.0057 -0.058
80.0360 0.299
80.0663 0.188
80.0966 0.233
80.1268 0.019
80.1571 0.169
80.1874 0.424
80.2177 0.210
80.2479 0.153
80.2782 0.930
80.3085 0.405
80.3388 -0.015
80.3691 0.138
80.3993 0.135
80.4296 0.237
80.4599 0.287
80.4902 0.129
80.5205 0.336
80.5507 0.387
80.5810 -0.082
80.6113 -0.083
80.6416 -0.030
80.6718 -0.134
80.7021 -0.185
80.7324 0.597
80.7627 -0.755
80.7930 -0.128
80.8232 0.239
80.8535 0.242
80.8838 -0.276
80.9141 -0.283
80.9444 0.386
80.9746 0.223
81.0049 0.894
81.0352 0.263
81.0655 0.778
81.0957 0.512
81.1260 1.132
81.1563 0.867
81.1866 0.498
81.2169 1.275
81.2471 0.803
81.2774 0.435
81.3077 1.370
81.3380 1.159
81.3683 1.470
81.3985 0.010
81.4288 0.686
81.4591 0.581
81.4894 0.945
81.5196 1.257
81.5499 0.424
81.5802 -0.200
81.6105 1.259
81.6408 0.376
81.6710 0.534
81.7013 0.536
81.7316 1.059
81.7619 0.593
81.7922 0.597
81.8224 0.496
81.8527 0.657
81.8830 -0.432
81.9133 -0.063
81.9436 0.255
81.9738 -0.104
82.0041 0.371
82.0344 0.429
82.0647 -0.241
82.0949 0.391
82.1252 0.138
82.1555 0.146
82.1858 0.050
82.2161 0.163
82.2463 -0.036
82.2766 -0.079
82.3069 0.452
82.3372 0.046
82.3675 0.577
82.3977 0.015
82.4280 -0.130
82.4583 0.351
82.4886 -0.054
82.5188 -0.145
82.5491 -0.236
82.5794 0.194
82.6097 -0.105
82.6400 0.117
82.6702 -0.285
82.7005 -0.085
82.7308 0.427
82.7611 -0.049
82.7914 -0.004
82.8216 0.093
82.8519 0.711
82.8822 -0.389
82.9125 0.074
82.9427 0.277
82.9730 -0.301
83.0033 0.320
83.0336 0.367
83.0639 0.259
83.0941 -0.161
83.1244 -0.008
83.1547 0.146
83.1850 0.091
83.2153 0.558
83.2455 0.452
83.2758 0.191
83.3061 0.086
83.3364 -0.175
83.3666 0.502
83.3969 0.085
83.4272 0.347
83.4575 -0.173
83.4878 0.037
83.5180 0.195
83.5483 0.301
83.5786 0.252
83.6089 0.255
83.6392 -0.003
83.6694 -0.103
83.6997 0.110
83.7300 0.114
83.7603 0.067
83.7905 0.072
83.8208 0.182
83.8511 -0.177
83.8814 0.455
83.9117 0.045
83.9419 -0.260
83.9722 -0.207
84.0025 0.108
84.0328 -0.307
84.0631 0.477
84.0933 0.220
84.1236 -0.141
84.1539 0.123
84.1842 0.231
84.2144 -0.493
84.2447 -0.187
84.2750 0.225
84.3053 -0.040
84.3356 0.372
84.3658 0.108
84.3961 0.573
84.4264 0.049
84.4567 -0.006
84.4870 0.043
84.5172 -0.063
84.5475 0.040
84.5778 0.351
84.6081 -0.171
84.6383 0.037
84.6686 0.193
84.6989 0.193
84.7292 0.298
84.7595 0.403
84.7897 0.196
84.8200 -0.271
84.8503 0.356
84.8806 -0.006
84.9109 -0.003
84.9411 0.156
84.9714 0.160
85.0017 0.060
85.0320 0.272
85.0623 0.173
85.0925 -0.499
85.1228 -0.025
85.1531 0.294
85.1834 0.196
85.2136 0.046
85.2439 -0.572
85.2742 0.006
85.3045 0.376
85.3348 -0.087
85.3650 0.648
85.3953 0.395
85.4256 0.037
85.4559 0.357
85.4862 0.468
85.5164 0.060
85.5467 0.433
85.5770 -0.236
85.6073 0.034
85.6375 0.044
85.6678 -0.259
85.6981 -0.012
85.7284 0.392
85.7587 0.224
85.7889 -0.153
85.8192 -0.268
85.8495 0.242
85.8798 -0.134
85.9101 0.637
85.9403 0.002
85.9706 0.097
86.0009 0.296
86.0312 -0.078
86.0614 0.539
86.0917 0.271
86.1220 -0.310
86.1523 -0.005
86.1826 0.353
86.2128 0.555
86.2431 0.184
86.2734 0.282
86.3037 0.589
86.3340 0.376
86.3642 0.476
86.3945 0.263
86.4248 0.676
86.4551 0.047
86.4853 0.201
86.5156 0.250
86.5459 0.039
86.5762 -0.171
86.6065 -0.016
86.6367 -0.174
86.6670 0.034
86.6973 0.033
86.7276 0.450
86.7579 -0.331
86.7881 0.087
86.8184 -0.069
86.8487 -0.015
86.8790 0.091
86.9092 0.562
86.9395 0.044
86.9698 -0.266
87.0001 -0.171
87.0304 -0.180
87.0606 -0.033
87.0909 0.636
87.1212 0.472
87.1515 0.777
87.1818 0.145
87.2120 -0.227
87.2423 -0.025
87.2726 0.490
87.3029 0.276
87.3331 0.687
87.3634 0.474
87.3937 0.157
87.4240 -0.108
87.4543 -0.007
87.4845 0.354
87.5148 -0.118
87.5451 0.296
87.5754 0.398
87.6057 -0.125
87.6359 -0.074
87.6662 0.289
87.6965 0.184
87.7268 -0.181
87.7571 0.288
87.7873 -0.024
87.8176 0.237
87.8479 0.238
87.8782 0.917
87.9084 0.711
87.9387 0.036
87.9690 0.612
87.9993 0.250
88.0296 0.201
88.0598 -0.055
88.0901 -0.363
88.1204 0.084
88.1507 0.010
88.1810 0.458
88.2112 -0.031
88.2415 0.261
88.2718 -0.019
88.3021 0.534
88.3323 0.359
88.3626 -0.129
88.3929 0.582
88.4232 0.199
88.4535 0.807
88.4837 0.165
88.5140 -0.529
88.5443 0.392
88.5746 0.428
88.6049 0.100
88.6351 0.449
88.6654 0.591
88.6957 -0.205
88.7260 0.145
88.7562 0.027
88.7865 0.483
88.8168 0.938
88.8471 0.926
88.8774 0.809
88.9076 0.485
88.9379 0.786
88.9682 0.723
88.9985 0.816
89.0288 0.494
89.0590 1.473
89.0893 0.578
89.1196 1.715
89.1499 1.185
89.1801 1.385
89.2104 1.742
89.2407 1.786
89.2710 2.300
89.3013 2.189
89.3315 2.495
89.3618 2.958
89.3921 2.691
89.4224 2.269
89.4527 2.681
89.4829 2.260
89.5132 3.141
89.5435 2.304
89.5738 3.342
89.6040 2.714
89.6343 2.555
89.6646 2.084
89.6949 2.603
89.7252 2.289
89.7554 2.288
89.7857 2.183
89.8160 1.245
89.8463 2.131
89.8766 2.079
89.9068 1.975
89.9371 2.029
89.9674 1.249
89.9977 2.032
90.0279 1.201
90.0582 2.037
90.0885 1.051
90.1188 1.471
90.1491 0.589
90.1793 0.020
90.2096 0.650
90.2399 0.707
90.2702 0.556
90.3005 0.353
90.3307 -0.422
90.3610 0.106
90.3913 -0.148
90.4216 0.432
90.4518 0.336
90.4821 0.135
90.5124 0.092
90.5427 -0.160
90.5730 0.578
90.6032 0.432
90.6335 -0.079
90.6638 0.452
90.6941 -0.579
90.7244 0.526
90.7546 0.173
90.7849 0.445
90.8152 0.249
90.8455 -0.311
90.8758 -0.204
90.9060 -0.148
90.9363 0.481
90.9666 -0.036
90.9969 0.021
91.0271 0.026
91.0574 -0.125
91.0877 0.090
91.1180 -0.425
91.1483 0.259
91.1785 -0.724
91.2088 0.065
91.2391 0.125
91.2694 -0.075
91.2997 0.402
91.3299 -0.058
91.3602 0.004
91.3905 -0.299
91.4208 -0.089
91.4510 0.226
91.4813 0.229
91.5116 -0.028
91.5419 -0.233
91.5722 -0.073
91.6024 -0.277
91.6327 0.197
91.6630 0.462
91.6933 0.832
91.7236 0.526
91.7538 0.323
91.7841 0.226
91.8144 -0.236
91.8447 0.709
91.8749 -0.377
91.9052 -0.265
91.9355 0.473
91.9658 -0.039
91.9961 -0.290
92.0263 0.058
92.0566 0.250
92.0869 0.650
92.1172 -0.407
92.1475 0.203
92.1777 0.657
92.2080 -0.191
92.2383 0.576
92.2686 0.146
92.2988 0.601
92.3291 0.744
92.3594 0.159
92.3897 0.094
92.4200 0.916
92.4502 0.905
92.4805 0.529
92.5108 0.831
92.5411 0.456
92.5714 0.446
92.6016 1.582
92.6319 0.271
92.6622 1.252
92.6925 0.462
92.7227 0.923
92.7530 0.447
92.7833 1.116
92.8136 0.797
92.8439 0.218
92.8741 1.201
92.9044 0.414
92.9347 0.878
92.9650 -0.013
92.9953 0.660
93.0255 0.656
93.0558 0.443
93.0861 0.857
93.1164 -0.292
93.1466 0.226
93.1769 0.276
93.2072 0.639
93.2375 1.002
93.2678 0.115
93.2980 0.323
93.3283 0.583
93.3586 0.270
93.3889 0.166
93.4192 -0.562
93.4494 0.220
93.4797 -0.403
93.5100 0.484
93.5403 -0.399
93.5706 -0.084
93.6008 -0.133
93.6311 -0.650
93.6614 0.182
93.6917 -0.079
93.7219 -0.131
93.7522 0.755
93.7825 0.547
93.8128 -0.025
93.8431 -0.128
93.8733 0.238
93.9036 -0.072
93.9339 0.295
93.9642 -0.640
93.9945 -0.220
94.0247 -0.060
94.0550 -0.317
94.0853 -0.066
94.1156 0.707
94.1458 -0.343
94.1761 0.742
94.2064 -0.463
94.2367 -0.314
94.2670 -0.321
94.2972 0.136
94.3275 0.542
94.3578 0.479
94.3881 0.365
94.4184 0.824
94.4486 -0.331
94.4789 0.701
94.5092 -0.141
94.5395 -0.097
94.5697 0.416
94.6000 0.825
94.6303 0.558
94.6606 0.030
94.6909 0.961
94.7211 0.643
94.7514 0.689
94.7817 0.268
94.8120 0.732
94.8423 0.623
94.8725 1.713
94.9028 0.928
94.9331 1.445
94.9634 0.974
94.9936 0.867
95.0239 1.854
95.0542 1.748
95.0845 2.893
95.1148 1.954
95.1450 1.693
95.1753 1.641
95.2056 2.370
95.2359 2.683
95.2662 2.111
95.2964 2.217
95.3267 2.270
95.3570 2.585
95.3873 2.639
95.4175 2.226
95.4478 1.968
95.4781 1.764
95.5084 2.028
95.5387 2.605
95.5689 1.777
95.5992 1.678
95.6295 1.475
95.6598 1.376
95.6901 1.278
95.7203 1.181
95.7506 1.032
95.7809 0.622
95.8112 0.161
95.8414 0.899
95.8717 -0.030
95.9020 0.864
95.9323 1.394
95.9626 -0.002
95.9928 0.216
96.0231 0.591
96.0534 0.446
96.0837 0.353
96.1140 0.156
96.1442 0.012
96.1745 0.337
96.2048 -0.119
96.2351 0.675
96.2653 -0.093
96.2956 0.442
96.3259 -0.169
96.3562 0.315
96.3865 0.434
96.4167 0.033
96.4470 -0.108
96.4773 0.585
96.5076 0.394
96.5379 0.254
96.5681 0.272
96.5984 0.029
96.6287 -0.005
96.6590 -0.299
96.6893 -0.198
96.7195 -0.200
96.7498 0.370
96.7801 -0.152
96.8104 0.211
96.8406 -0.102
96.8709 -0.155
96.9012 -0.468
96.9315 0.196
96.9618 0.131
96.9920 -0.454
97.0223 0.679
97.0526 -0.114
97.0829 -0.021
97.1132 -0.188
97.1434 -0.042
97.1737 -0.053
97.2040 -0.011
97.2343 0.345
97.2645 0.283
97.2948 0.171
97.3251 -0.254
97.3554 0.727
97.3857 -0.062
97.4159 0.087
97.4462 0.029
97.4765 -0.030
97.5068 -0.296
97.5371 -0.458
97.5673 0.943
97.5976 0.000
97.6279 -0.317
97.6582 -0.118
97.6884 -0.231
97.7187 0.593
97.7490 0.168
97.7793 0.160
97.8096 -0.108
97.8398 -0.011
97.8701 0.503
97.9004 0.601
97.9307 -0.134
97.9610 0.173
97.9912 -0.041
98.0215 -0.254
98.0518 0.471
98.0821 0.050
98.1123 -0.266
98.1426 1.501
98.1729 -0.064
98.2032 0.245
98.2335 0.191
98.2637 0.971
98.2940 1.177
98.3243 0.864
98.3546 0.499
98.3849 1.175
98.4151 0.498
98.4454 1.072
98.4757 0.968
98.5060 1.699
98.5362 0.659
98.5665 0.921
98.5968 0.975
98.6271 1.187
98.6574 1.450
98.6876 1.193
98.7179 0.468
98.7482 0.628
98.7785 0.529
98.8088 1.732
98.8390 1.164
98.8693 0.910
98.8996 1.124
98.9299 0.610
98.9601 0.304
98.9904 0.989
99.0207 0.632
99.0510 0.432
99.0813 1.065
99.1115 0.501
99.1418 0.510
99.1721 0.259
99.2024 0.790
99.2327 0.332
99.2629 0.499
99.2932 -0.063
99.3235 0.001
99.3538 0.013
99.3841 0.181
99.4143 0.194
99.4446 -0.106
99.4749 0.533
99.5052 -0.287
99.5354 -0.168
99.5657 0.002
99.5960 0.122
99.6263 0.397
99.6566 -0.212
99.6868 0.065
99.7171 -0.283
99.7474 -0.162
99.7777 -0.197
99.8080 -0.128
99.8382 0.515
99.8685 0.065
99.8988 0.657
99.9291 0.051
99.9593 0.070
99.9896 0.090
100.0199 0.007
100.0502 -0.442
100.0805 0.018
100.1107 0.008
100.1410 0.208
100.1713 0.095
100.2016 -0.069
100.2319 0.496
100.2621 0.176
100.2924 -0.143
100.3227 0.058
100.3530 0.000
100.3832 -0.162
100.4135 0.093
100.4438 -0.068
100.4741 -0.281
100.5044 0.496
100.5346 -0.081
100.5649 -0.085
100.5952 -0.088
100.6255 0.066
100.6558 -0.041
100.6860 0.165
100.7163 0.216
100.7466 0.006
100.7769 -0.203
100.8071 0.421
100.8374 0.057
100.8677 0.318
100.8980 0.474
100.9283 1.361
100.9585 -0.096
100.9888 0.479
101.0191 0.220
101.0494 0.275
101.0797 -0.451
101.1099 0.021
101.1402 0.493
101.1705 0.029
101.2008 -0.279
101.2310 0.611
101.2613 0.564
101.2916 0.466
101.3219 -0.049
101.3522 0.530
101.3824 -0.036
101.4127 -0.133
101.4430 0.187
101.4733 -0.013
101.5036 0.412
101.5338 0.056
101.5641 -0.039
101.5944 -0.186
101.6247 -0.280
101.6549 0.058
101.6852 0.344
101.7155 0.266
101.7458 0.032
101.7761 0.007
101.8063 -0.278
101.8366 0.375
101.8669 0.404
101.8972 -0.037
101.9275 0.305
101.9577 0.595
101.9880 -0.417
102.0183 0.238
102.0486 -0.148
102.0788 0.404
102.1091 -0.086
102.1394 -0.054
102.1697 0.082
102.2000 0.323
102.2302 0.304
102.2605 0.545
102.2908 -0.203
102.3211 0.769
102.3514 0.126
102.3816 0.525
102.4119 0.613
102.4422 -0.446
102.4725 0.788
102.5028 0.095
102.5330 -0.441
102.5633 0.273
102.5936 0.363
102.6239 1.078
102.6541 0.595
102.6844 0.217
102.7147 0.412
102.7450 0.503
102.7753 1.012
102.8055 0.375
102.8358 0.415
102.8661 -0.013
102.8964 0.497
102.9267 0.331
102.9569 0.946
102.9872 -0.002
103.0175 0.406
103.0478 0.553
103.0780 0.649
103.1083 0.692
103.1386 0.737
103.1689 -0.208
103.1992 0.722
103.2294 0.872
103.2597 0.970
103.2900 0.599
103.3203 0.229
103.3506 0.224
103.3808 1.001
103.4111 -0.202
103.4414 1.149
103.4717 0.416
103.5019 1.038
103.5322 0.358
103.5625 0.720
103.5928 0.874
103.6231 0.716
103.6533 0.611
103.6836 0.714
103.7139 0.453
103.7442 0.765
103.7745 0.974
103.8047 0.870
103.8350 0.767
103.8653 0.508
103.8956 1.603
103.9258 0.876
103.9561 1.087
103.9864 1.455
104.0167 1.614
104.0470 2.243
104.0772 1.674
104.1075 1.730
104.1378 1.579
104.1681 1.428
104.1984 1.486
104.2286 1.596
104.2589 1.550
104.2892 0.567
104.3195 1.147
104.3497 0.790
104.3800 1.110
104.4103 0.910
104.4406 2.065
104.4709 1.136
104.5011 0.781
104.5314 0.478
104.5617 0.488
104.5920 0.134
104.6223 1.135
104.6525 -0.052
104.6828 0.533
104.7131 0.232
104.7434 0.662
104.7736 0.466
104.8039 0.375
104.8342 -0.184
104.8645 -0.014
104.8948 -0.208
104.9250 -0.193
104.9553 -0.126
104.9856 -0.059
105.0159 -0.147
105.0462 0.026
105.0764 -0.270
105.1067 0.476
105.1370 0.285
105.1673 -0.218
105.1975 0.009
105.2278 -0.494
105.2581 0.039
105.2884 0.259
105.3187 -0.770
105.3489 -0.184
105.3792 0.089
105.4095 -0.210
105.4398 -0.039
105.4701 -0.337
105.5003 0.085
105.5306 -0.273
105.5609 -0.162
105.5912 -0.311
105.6215 0.215
105.6517 -0.144
105.6820 -0.138
105.7123 0.129
105.7426 -0.385
105.7728 -0.065
105.8031 0.099
105.8334 0.315
105.8637 -0.406
105.8940 0.593
105.9242 -0.440
105.9545 -0.170
105.9848 0.309
106.0151 -0.306
106.0454 -0.139
106.0756 0.081
106.1059 0.249
106.1362 -0.365
106.1665 0.116
106.1967 -0.131
106.2270 -0.066
106.2573 -0.105
106.2876 -0.091
106.3179 -0.442
106.3481 0.139
106.3784 0.095
106.4087 0.156
106.4390 0.894
106.4693 -0.034
106.4995 -0.285
106.5298 -0.242
106.5601 -0.043
106.5904 -0.051
106.6206 0.254
106.6509 0.350
106.6812 -0.125
106.7115 0.389
106.7418 -0.243
106.7720 0.272
106.8023 -0.306
106.8326 0.209
106.8629 -0.004
106.8932 -0.008
106.9234 -0.065
106.9537 0.348
106.9840 1.231
107.0143 -0.231
107.0445 -0.337
107.0748 0.284
107.1051 0.124
107.1354 0.173
107.1657 0.327
107.1959 -0.509
107.2262 0.114
107.2565 -0.200
107.2868 0.111
107.3171 -0.462
107.3473 0.579
107.3776 0.631
107.4079 0.683
107.4382 0.528
107.4684 0.425
107.4987 0.322
107.5290 0.376
107.5593 -0.247
107.5896 0.329
107.6198 0.384
107.6501 0.491
107.6804 0.131
107.7107 0.135
107.7410 0.608
107.7712 -0.064
107.8015 -0.163
107.8318 0.624
107.8621 0.266
107.8923 0.168
107.9226 -0.294
107.9529 -0.026
107.9832 0.242
108.0135 -0.011
108.0437 0.102
108.0740 -0.306
108.1043 0.224
108.1346 0.233
108.1649 0.399
108.1951 0.358
108.2254 -0.309
108.2557 0.327
108.2860 0.234
108.3163 0.298
108.3465 -0.262
108.3768 0.011
108.4071 0.701
108.4374 0.401
108.4676 0.259
108.4979 0.481
108.5282 -0.181
108.5585 -0.271
108.5888 -0.188
108.6190 0.208
108.6493 1.020
108.6796 -0.198
108.7099 0.303
108.7402 0.544
108.7704 0.577
108.8007 0.297
108.8310 0.383
108.8613 -0.677
108.8915 -0.278
108.9218 0.799
108.9521 0.053
108.9824 0.297
109.0127 0.124
109.0429 0.369
109.0732 0.197
109.1035 -0.026
109.1338 0.428
109.1641 -0.055
109.1943 0.140
109.2246 -0.030
109.2549 -0.199
109.2852 0.152
109.3154 -0.016
109.3457 0.024
109.3760 -0.144
109.4063 0.053
109.4366 0.043
109.4668 -0.124
109.4971 0.282
109.5274 -0.092
109.5577 -0.205
109.5880 -0.474
109.6182 0.923
109.6485 0.811
109.6788 -0.186
109.7091 0.327
109.7393 -0.044
109.7696 -0.364
109.7999 0.099
109.8302 0.509
109.8605 0.243
109.8907 0.862
109.9210 -0.237
109.9513 0.592
109.9816 -0.142
110.0119 0.323
110.0421 -0.149
110.0724 0.368
110.1027 0.522
110.1330 0.051
110.1632 0.622
110.1935 -0.057
110.2238 0.566
110.2541 0.774
110.2844 0.565
110.3146 0.357
110.3449 0.409
110.3752 1.191
110.4055 1.035
110.4358 0.464
110.4660 0.674
110.4963 0.728
110.5266 0.887
110.5569 0.786
110.5871 0.581
110.6174 0.324
110.6477 0.224
110.6780 0.437
110.7083 0.910
110.7385 0.134
110.7688 0.088
110.7991 -0.584
110.8294 0.673
110.8597 0.419
110.8899 0.166
110.9202 0.277
110.9505 0.337
110.9808 -0.071
111.0110 0.458
111.0413 0.259
111.0716 0.373
111.1019 0.226
111.1322 -0.180
111.1624 -0.170
111.1927 0.102
111.2230 0.790
111.2533 0.020
111.2836 -0.124
111.3138 -0.268
111.3441 0.006
111.3744 0.279
111.4047 -0.020
111.4350 0.255
111.4652 0.269
111.4955 0.388
111.5258 0.507
111.5561 0.314
111.5863 -0.295
111.6166 -0.333
111.6469 0.567
111.6772 -0.252
111.7075 0.180
111.7377 0.144
111.7680 0.264
111.7983 0.280
111.8286 -0.016
111.8589 -0.415
111.8891 0.049
111.9194 -0.111
111.9497 -0.115
111.9800 0.663
112.0102 0.816
112.0405 -0.124
112.0708 0.656
112.1011 0.498
112.1314 -0.077
112.1616 0.287
112.1919 0.130
112.2222 -0.078
112.2525 -0.234
112.2828 -0.182
112.3130 -0.077
112.3433 0.029
112.3736 -0.021
112.4039 0.033
112.4341 -0.121
112.4644 -0.170
112.4947 -0.167
112.5250 -0.059
112.5553 -0.107
112.5855 0.366
112.6158 -0.046
112.6461 -0.145
112.6764 -0.087
112.7067 0.075
112.7369 -0.335
112.7672 0.296
112.7975 0.199
112.8278 0.519
112.8580 0.319
112.8883 0.639
112.9186 0.023
112.9489 0.032
112.9792 0.302
113.0094 -0.053
113.0397 0.269
113.0700 0.072
113.1003 0.187
113.1306 0.042
113.1608 -0.415
113.1911 -0.013
113.2214 0.026
113.2517 0.065
113.2819 0.260
113.3122 0.560
113.3425 0.861
113.3728 0.120
113.4031 1.046
113.4333 0.410
113.4636 0.660
113.4939 0.390
113.5242 0.224
113.5545 0.214
113.5847 0.414
113.6150 0.353
113.6453 -0.280
113.6756 -0.236
113.7058 0.017
113.7361 -0.094
113.7664 0.368
113.7967 -0.003
113.8270 0.460
113.8572 0.350
113.8875 -0.124
113.9178 0.236
113.9481 -0.081
113.9784 0.072
114.0086 0.224
114.0389 0.273
114.0692 0.114
114.0995 -0.201
114.1298 -0.151
114.1600 -0.101
114.1903 -0.050
114.2206 -0.728
114.2509 0.082
114.2811 0.371
114.3114 0.400
114.3417 0.169
114.3720 -0.270
114.4023 0.333
114.4325 -0.105
114.4628 0.134
114.4931 0.061
114.5234 0.041
114.5537 0.177
114.5839 -0.155
114.6142 -0.018
114.6445 -0.349
114.6748 0.205
114.7050 0.447
114.7353 0.065
114.7656 -0.004
114.7959 -0.178
114.8262 0.170
114.8564 -0.106
114.8867 0.138
114.9170 0.071
114.9473 0.160
114.9776 0.145
115.0078 -0.442
115.0381 -0.092
115.0684 0.310
115.0987 -0.330
115.1289 0.281
115.1592 -0.306
115.1895 0.671
115.2198 0.241
115.2501 0.801
115.2803 0.008
115.3106 -0.160
115.3409 -0.328
115.3712 0.807
115.4015 -0.297
115.4317 0.526
115.4620 0.516
115.4923 -0.431
115.5226 0.029
115.5528 0.228
115.5831 0.845
115.6134 0.733
115.6437 0.361
115.6740 0.770
115.7042 1.128
115.7345 1.382
115.7648 0.699
115.7951 1.526
115.8254 0.479
115.8556 0.058
115.8859 1.720
115.9162 0.935
115.9465 0.723
115.9767 1.917
116.0070 1.550
116.0373 2.120
116.0676 1.493
116.0979 1.230
116.1281 1.489
116.1584 1.644
116.1887 1.488
116.2190 2.008
116.2493 1.227
116.2795 1.800
116.3098 1.332
116.3401 1.646
116.3704 1.596
116.4006 2.222
116.4309 0.975
116.4612 0.561
116.4915 1.449
116.5218 1.088
116.5520 1.457
116.5823 1.513
116.6126 1.674
116.6429 1.731
116.6732 0.226
116.7034 0.753
116.7337 1.332
116.7640 1.286
116.7943 0.668
116.8245 0.884
116.8548 0.423
116.8851 1.733
116.9154 1.064
116.9457 0.344
116.9759 1.499
117.0062 0.207
117.0365 1.258
117.0668 0.644
117.0971 0.759
117.1273 0.718
117.1576 0.260
117.1879 0.012
117.2182 -0.236
117.2485 0.037
117.2787 0.310
117.3090 0.480
117.3393 0.285
117.3696 -0.013
117.3998 0.210
117.4301 0.694
117.4604 0.136
117.4907 0.256
117.5210 0.272
117.5512 -0.180
117.5815 0.253
117.6118 0.479
117.6421 -0.285
117.6724 -0.215
117.7026 0.429
117.7329 0.135
117.7632 0.363
117.7935 -0.347
117.8237 0.194
117.8540 -0.307
117.8843 0.183
117.9146 -0.369
117.9449 0.434
117.9751 -0.378
118.0054 -0.304
118.0357 -0.410
118.0660 0.421
118.0963 -0.102
118.1265 -0.676
118.1568 0.155
118.1871 -0.055
118.2174 0.100
118.2476 -0.370
118.2779 0.880
118.3082 0.411
118.3385 0.046
118.3688 -0.058
118.3990 0.308
118.4293 -0.264
118.4596 0.050
118.4899 0.000
118.5202 0.419
118.5504 -0.307
118.5807 0.061
118.6110 -0.040
118.6413 0.068
118.6715 0.594
118.7018 -0.339
118.7321 0.135
118.7624 -0.433
118.7927 0.563
118.8229 0.204
118.8532 0.107
118.8835 0.218
118.9138 0.225
118.9441 0.441
118.9743 -0.123
119.0046 0.406
119.0349 -0.210
119.0652 -0.201
119.0954 0.278
119.1257 -0.337
119.1560 -0.232
119.1863 0.082
119.2166 0.345
119.2468 0.243
119.2771 -0.275
119.3074 -0.063
119.3377 0.305
119.3680 -0.160
119.3982 -0.884
119.4285 0.208
119.4588 0.310
119.4891 0.257
119.5193 -0.160
119.5496 -0.212
119.5799 -0.212
119.6102 0.101
119.6405 0.518
119.6707 0.207
119.7010 -0.260
119.7313 0.627
119.7616 0.109
119.7919 0.268
119.8221 -0.041
119.8524 0.014
119.8827 -0.086
119.9130 -0.290
119.9433 -0.124
119.9735 0.511
120.0038 0.000
