'Id: "" Comment: "" Operator: "Lab Manager" Anode: "Cu" Scantype: "Locked Coupled" TimePerStep: "19.2" X: "9999" Y: "9999" Z: "9999" 
10.0015 0.000
10.0318 -1.133
10.0620 9.557
10.0923 13.738
10.1226 18.336
10.1529 17.674
10.1832 19.461
10.2134 23.541
10.2437 25.173
10.2740 30.921
10.3043 35.159
10.3346 33.825
10.3648 45.669
10.3951 50.378
10.4254 54.984
10.4557 56.257
10.4859 61.229
10.5162 61.774
10.5465 60.237
10.5768 57.243
10.6071 70.239
10.6373 72.662
10.6676 71.805
10.6979 76.158
10.7282 64.209
10.7585 68.458
10.7887 67.396
10.8190 72.168
10.8493 71.577
10.8796 63.329
10.9098 61.802
10.9401 55.327
10.9704 59.061
11.0007 57.692
11.0310 49.500
11.0612 48.185
11.0915 42.964
11.1218 34.827
11.1521 42.680
11.1824 33.972
11.2126 27.869
11.2429 27.599
11.2732 27.279
11.3035 23.365
11.3337 24.348
11.3640 15.957
11.3943 17.671
11.4246 18.031
11.4549 15.580
11.4851 17.609
11.5154 19.638
11.5457 19.376
11.5760 21.928
11.6063 26.772
11.6365 33.492
11.6668 44.692
11.6971 47.507
11.7274 56.469
11.7577 51.734
11.7879 34.812
11.8182 19.765
11.8485 7.897
11.8788 2.696
11.9090 7.444
11.9393 1.984
11.9696 2.983
11.9999 -0.496
12.0302 2.171
12.0604 1.610
12.0907 1.936
12.1210 -1.593
12.1513 -2.433
12.1816 1.937
12.2118 -0.256
12.2421 -2.812
12.2724 0.301
12.3027 1.227
12.3329 -1.440
12.3632 -1.695
12.3935 1.800
12.4238 0.608
12.4541 0.043
12.4843 -0.679
12.5146 -1.347
12.5449 -0.505
12.5752 -1.380
12.6055 0.445
12.6357 0.657
12.6660 2.119
12.6963 -0.792
12.7266 1.088
12.7568 -0.989
12.7871 -0.825
12.8174 -0.765
12.8477 -0.028
12.8780 -0.226
12.9082 -1.206
12.9385 -0.072
12.9688 0.958
12.9991 0.218
13.0294 -1.458
13.0596 -0.463
13.0899 1.575
13.1202 0.072
13.1505 -0.441
13.1807 -0.329
13.2110 0.566
13.2413 -0.934
13.2716 -0.506
13.3019 1.224
13.3321 1.185
13.3624 -3.698
13.3927 -1.027
13.4230 0.029
13.4533 -0.216
13.4835 0.790
13.5138 -1.953
13.5441 -0.750
13.5744 -1.005
13.6046 0.928
13.6349 2.497
13.6652 1.463
13.6955 3.347
13.7258 0.699
13.7560 0.241
13.7863 -0.009
13.8166 1.096
13.8469 -0.714
13.8772 1.747
13.9074 1.135
13.9377 -0.777
13.9680 -0.137
13.9983 -0.642
14.0285 -1.823
14.0588 0.581
14.0891 -0.348
14.1194 0.443
14.1497 1.131
14.1799 0.933
14.2102 1.778
14.2405 -0.813
14.2708 1.596
14.3011 0.621
14.3313 2.615
14.3616 -0.651
14.3919 1.761
14.4222 2.924
14.4524 0.911
14.4827 1.346
14.5130 2.720
14.5433 0.553
14.5736 3.282
14.6038 1.429
14.6341 0.150
14.6644 0.486
14.6947 -0.272
14.7250 2.358
14.7552 -0.481
14.7855 2.045
14.8158 1.864
14.8461 0.590
14.8764 2.754
14.9066 1.221
14.9369 -0.207
14.9672 -0.540
14.9975 1.835
15.0277 1.451
15.0580 0.443
15.0883 1.727
15.1186 1.189
15.1489 1.589
15.1791 2.355
15.2094 1.559
15.2397 0.451
15.2700 0.542
15.3003 2.352
15.3305 0.570
15.3608 0.611
15.3911 0.132
15.4214 1.372
15.4516 2.457
15.4819 1.147
15.5122 0.828
15.5425 2.488
15.5728 2.482
15.6030 0.030
15.6333 2.578
15.6636 0.439
15.6939 1.322
15.7242 0.122
15.7544 1.111
15.7847 -1.598
15.8150 1.320
15.8453 0.696
15.8755 0.021
15.9058 0.649
15.9361 0.444
15.9664 0.969
15.9967 0.714
16.0269 0.564
16.0572 1.248
16.0875 0.734
16.1178 0.534
16.1481 -0.498
16.1783 -0.593
16.2086 1.866
16.2389 -0.362
16.2692 1.004
16.2994 -0.129
16.3297 0.405
16.3600 0.107
16.3903 1.320
16.4206 0.086
16.4508 -0.470
16.4811 0.277
16.5114 -0.694
16.5417 0.158
16.5720 0.178
16.6022 0.094
16.6325 -0.822
16.6628 -0.292
16.6931 0.396
16.7233 -0.531
16.7536 0.522
16.7839 0.639
16.8142 0.704
16.8445 0.874
16.8747 -1.663
16.9050 0.436
16.9353 2.171
16.9656 0.886
16.9959 -1.805
17.0261 1.391
17.0564 -0.360
17.0867 0.962
17.1170 -0.684
17.1472 0.432
17.1775 0.558
17.2078 0.894
17.2381 -0.905
17.2684 -0.776
17.2986 -0.068
17.3289 -0.921
17.3592 0.309
17.3895 0.551
17.4198 -0.196
17.4500 -0.891
17.4803 0.447
17.5106 0.692
17.5409 0.729
17.5712 0.455
17.6014 0.494
17.6317 0.741
17.6620 -0.781
17.6923 -0.712
17.7225 -0.070
17.7528 0.000
17.7831 -0.242
17.8134 -1.003
17.8437 0.527
17.8739 0.653
17.9042 -0.159
17.9345 -0.397
17.9648 -0.686
17.9951 0.224
18.0253 0.978
18.0556 0.431
18.0859 1.395
18.1162 3.766
18.1464 2.283
18.1767 2.937
18.2070 0.623
18.2373 0.862
18.2676 1.570
18.2978 3.685
18.3281 2.520
18.3584 2.762
18.3887 3.421
18.4190 5.539
18.4492 2.866
18.4795 3.892
18.5098 5.336
18.5401 5.009
18.5703 5.100
18.6006 5.400
18.6309 2.993
18.6612 5.846
18.6915 4.742
18.7217 5.046
18.7520 5.349
18.7823 5.706
18.8126 4.709
18.8429 5.432
18.8731 4.281
18.9034 4.068
18.9337 5.105
18.9640 4.633
18.9942 5.100
19.0245 4.473
19.0548 4.159
19.0851 4.055
19.1154 3.066
19.1456 4.057
19.1759 1.663
19.2062 1.822
19.2365 3.284
19.2668 3.341
19.2970 2.461
19.3273 3.717
19.3576 1.953
19.3879 1.387
19.4181 1.760
19.4484 0.155
19.4787 0.425
19.5090 1.425
19.5393 1.072
19.5695 -0.062
19.5998 1.670
19.6301 -0.035
19.6604 0.344
19.6907 0.099
19.7209 0.583
19.7512 0.392
19.7815 -0.736
19.8118 0.271
19.8420 1.593
19.8723 1.560
19.9026 -0.763
19.9329 0.457
19.9632 -0.250
19.9934 -0.228
20.0237 -0.412
20.0540 -0.023
20.0843 0.054
20.1146 0.549
20.1448 -0.518
20.1751 0.343
20.2054 0.527
20.2357 -0.746
20.2659 0.430
20.2962 0.357
20.3265 0.180
20.3568 0.368
20.3871 1.755
20.4173 -0.034
20.4476 -1.041
20.4779 0.007
20.5082 -0.662
20.5385 0.857
20.5687 -0.697
20.5990 0.094
20.6293 0.053
20.6596 -0.405
20.6899 -0.132
20.7201 0.193
20.7504 -0.678
20.7807 0.222
20.8110 -0.232
20.8412 -0.372
20.8715 0.009
20.9018 -0.806
20.9321 0.358
20.9624 -0.144
20.9926 0.605
21.0229 0.261
21.0532 0.074
21.0835 1.190
21.1138 -0.610
21.1440 1.133
21.1743 1.678
21.2046 0.505
21.2349 1.781
21.2651 1.600
21.2954 0.273
21.3257 0.093
21.3560 0.852
21.3863 0.986
21.4165 -0.755
21.4468 -0.967
21.4771 0.853
21.5074 1.528
21.5377 -0.140
21.5679 -0.036
21.5982 -0.192
21.6285 1.371
21.6588 0.488
21.6890 0.021
21.7193 0.806
21.7496 -0.180
21.7799 0.034
21.8102 -0.273
21.8404 -0.007
21.8707 -0.989
21.9010 0.047
21.9313 0.667
21.9616 0.454
21.9918 -0.591
22.0221 0.656
22.0524 0.498
22.0827 -1.379
22.1129 0.964
22.1432 0.548
22.1735 0.445
22.2038 0.030
22.2341 1.074
22.2643 0.713
22.2946 0.457
22.3249 0.097
22.3552 0.363
22.3855 1.463
22.4157 0.481
22.4460 0.801
22.4763 1.435
22.5066 0.090
22.5368 1.038
22.5671 -0.305
22.5974 -0.554
22.6277 -0.426
22.6580 0.953
22.6882 0.561
22.7185 -0.559
22.7488 -1.367
22.7791 0.951
22.8094 0.197
22.8396 0.589
22.8699 -0.112
22.9002 -0.447
22.9305 0.364
22.9607 -0.022
22.9910 0.374
23.0213 0.302
23.0516 0.699
23.0819 -0.256
23.1121 -0.795
23.1424 1.897
23.1727 0.318
23.2030 -0.687
23.2333 0.341
23.2635 0.587
23.2938 -0.571
23.3241 -0.167
23.3544 0.655
23.3846 1.217
23.4149 1.312
23.4452 1.251
23.4755 0.409
23.5058 0.141
23.5360 -0.335
23.5663 1.534
23.5966 1.685
23.6269 2.827
23.6572 1.469
23.6874 4.539
23.7177 5.058
23.7480 4.067
23.7783 3.545
23.8086 3.545
23.8388 3.234
23.8691 0.736
23.8994 1.676
23.9297 0.950
23.9599 -0.192
23.9902 -0.239
24.0205 -1.223
24.0508 0.277
24.0811 1.101
24.1113 0.884
24.1416 0.199
24.1719 0.609
24.2022 0.707
24.2325 0.649
24.2627 1.009
24.2930 0.536
24.3233 3.033
24.3536 1.312
24.3838 3.081
24.4141 1.882
24.4444 1.049
24.4747 1.571
24.5050 3.395
24.5352 2.564
24.5655 0.796
24.5958 1.998
24.6261 2.211
24.6564 1.539
24.6866 3.211
24.7169 3.114
24.7472 2.549
24.7775 4.172
24.8077 3.087
24.8380 2.316
24.8683 2.118
24.8986 3.901
24.9289 3.392
24.9591 4.759
24.9894 3.367
25.0197 3.225
25.0500 4.022
25.0803 4.090
25.1105 3.950
25.1408 3.760
25.1711 3.153
25.2014 6.974
25.2316 2.463
25.2619 2.692
25.2922 3.339
25.3225 3.048
25.3528 3.592
25.3830 3.356
25.4133 3.797
25.4436 3.926
25.4739 3.119
25.5042 2.104
25.5344 2.236
25.5647 1.952
25.5950 3.804
25.6253 2.376
25.6555 2.042
25.6858 3.167
25.7161 3.252
25.7464 2.712
25.7767 4.100
25.8069 3.457
25.8372 3.336
25.8675 3.581
25.8978 2.420
25.9281 2.301
25.9583 3.277
25.9886 3.420
26.0189 2.263
26.0492 3.553
26.0794 2.241
26.1097 4.627
26.1400 1.649
26.1703 3.516
26.2006 3.144
26.2308 3.345
26.2611 4.068
26.2914 2.865
26.3217 4.111
26.3520 4.836
26.3822 4.000
26.4125 2.696
26.4428 4.518
26.4731 5.090
26.5034 3.424
26.5336 3.581
26.5639 4.468
26.5942 5.252
26.6245 4.838
26.6547 6.613
26.6850 5.160
26.7153 5.009
26.7456 6.630
26.7759 8.304
26.8061 7.531
26.8364 9.571
26.8667 9.684
26.8970 7.611
26.9273 8.560
26.9575 6.228
26.9878 7.907
27.0181 7.087
27.0484 8.507
27.0786 6.908
27.1089 8.121
27.1392 5.846
27.1695 7.165
27.1998 8.173
27.2300 7.410
27.2603 6.388
27.2906 7.398
27.3209 6.533
27.3512 7.388
27.3814 8.140
27.4117 6.236
27.4420 8.188
27.4723 6.077
27.5025 8.134
27.5328 5.713
27.5631 8.188
27.5934 7.747
27.6237 8.453
27.6539 8.013
27.6842 8.721
27.7145 6.408
27.7448 8.627
27.7751 6.681
27.8053 7.235
27.8356 8.779
27.8659 7.512
27.8962 9.267
27.9264 9.824
27.9567 8.090
27.9870 7.712
28.0173 8.427
28.0476 7.582
28.0778 5.955
28.1081 6.778
28.1384 5.778
28.1687 7.227
28.1990 5.499
28.2292 7.679
28.2595 5.432
28.2898 4.332
28.3201 6.566
28.3503 4.790
28.3806 6.036
28.4109 4.626
28.4412 3.634
28.4715 3.476
28.5017 5.038
28.5320 2.850
28.5623 5.767
28.5926 5.404
28.6229 2.958
28.6531 3.117
28.6834 5.256
28.7137 4.427
28.7440 1.463
28.7742 2.563
28.8045 3.872
28.8348 2.421
28.8651 2.638
28.8954 1.970
28.9256 1.563
28.9559 1.938
28.9862 1.064
29.0165 3.732
29.0468 1.349
29.0770 1.415
29.1073 1.429
29.1376 0.819
29.1679 1.252
29.1981 0.644
29.2284 2.536
29.2587 1.981
29.2890 1.115
29.3193 -0.324
29.3495 1.728
29.3798 0.343
29.4101 0.261
29.4404 1.274
29.4707 1.089
29.5009 1.270
29.5312 0.618
29.5615 2.571
29.5918 0.306
29.6221 0.125
29.6523 0.830
29.6826 -0.130
29.7129 0.316
29.7432 0.243
29.7734 0.535
29.8037 0.254
29.8340 -0.963
29.8643 -0.227
29.8946 0.666
29.9248 0.726
29.9551 1.517
29.9854 -0.349
30.0157 -0.703
30.0460 0.374
30.0762 1.087
30.1065 0.082
30.1368 -0.142
30.1671 0.469
30.1973 0.300
30.2276 -1.119
30.2579 0.380
30.2882 0.785
30.3185 -0.110
30.3487 0.713
30.3790 -0.441
30.4093 0.801
30.4396 -0.456
30.4699 -0.306
30.5001 -1.301
30.5304 0.333
30.5607 -0.376
30.5910 -0.354
30.6212 0.553
30.6515 -0.362
30.6818 -1.015
30.7121 0.409
30.7424 -0.198
30.7726 0.290
30.8029 -0.472
30.8332 0.330
30.8635 -0.118
30.8938 0.113
30.9240 0.656
30.9543 -0.310
30.9846 0.444
31.0149 -0.729
31.0451 0.339
31.0754 -0.989
31.1057 -0.289
31.1360 1.141
31.1663 -0.137
31.1965 0.253
31.2268 -1.075
31.2571 0.983
31.2874 -0.708
31.3177 0.622
31.3479 -0.807
31.3782 0.056
31.4085 1.441
31.4388 -0.975
31.4690 -0.370
31.4993 1.277
31.5296 0.061
31.5599 0.148
31.5902 -0.702
31.6204 -0.102
31.6507 -0.125
31.6810 0.529
31.7113 0.090
31.7416 0.173
31.7718 0.205
31.8021 0.341
31.8324 -0.251
31.8627 -0.477
31.8929 0.241
31.9232 0.804
31.9535 0.482
31.9838 0.318
32.0141 0.414
32.0443 -0.165
32.0746 0.870
32.1049 0.552
32.1352 0.444
32.1655 0.232
32.1957 1.375
32.2260 0.435
32.2563 0.642
32.2866 -0.140
32.3169 -0.036
32.3471 -0.191
32.3774 0.539
32.4077 1.167
32.4380 0.805
32.4682 0.549
32.4985 0.137
32.5288 0.455
32.5591 0.774
32.5894 0.937
32.6196 2.820
32.6499 3.870
32.6802 2.213
32.7105 2.848
32.7408 2.963
32.7710 2.610
32.8013 2.570
32.8316 1.542
32.8619 1.920
32.8921 2.300
32.9224 0.492
32.9527 1.238
32.9830 0.369
33.0133 1.064
33.0435 0.250
33.0738 -0.408
33.1041 1.070
33.1344 0.935
33.1647 0.279
33.1949 0.458
33.2252 0.377
33.2555 0.922
33.2858 -0.199
33.3160 -0.174
33.3463 -0.043
33.3766 0.713
33.4069 0.324
33.4372 -0.064
33.4674 -0.451
33.4977 -0.037
33.5280 0.378
33.5583 -0.769
33.5886 0.168
33.6188 -0.196
33.6491 0.794
33.6794 -0.298
33.7097 -0.451
33.7399 -0.096
33.7702 -0.468
33.8005 0.305
33.8308 0.194
33.8611 0.136
33.8913 -0.650
33.9216 -0.103
33.9519 -0.389
33.9822 -0.257
34.0125 -0.280
34.0427 0.895
34.0730 -0.221
34.1033 -0.346
34.1336 0.206
34.1638 -0.595
34.1941 0.167
34.2244 -0.215
34.2547 -0.285
34.2850 0.792
34.3152 -0.422
34.3455 0.084
34.3758 -0.191
34.4061 -0.048
34.4364 -0.165
34.4666 0.084
34.4969 0.385
34.5272 -0.407
34.5575 0.729
34.5877 0.043
34.6180 -0.121
34.6483 1.174
34.6786 -0.968
34.7089 -0.453
34.7391 0.739
34.7694 0.683
34.7997 0.471
34.8300 0.468
34.8603 0.727
34.8905 1.038
34.9208 -0.056
34.9511 0.621
34.9814 2.133
35.0116 -0.209
35.0419 0.158
35.0722 -0.047
35.1025 0.426
35.1328 0.535
35.1630 0.229
35.1933 -0.598
35.2236 -0.179
35.2539 0.241
35.2842 -0.953
35.3144 -0.114
35.3447 -0.213
35.3750 0.367
35.4053 0.218
35.4356 1.215
35.4658 0.547
35.4961 -0.016
35.5264 1.140
35.5567 -0.307
35.5869 0.017
35.6172 0.551
35.6475 0.095
35.6778 0.110
35.7081 0.437
35.7383 0.609
35.7686 0.417
35.7989 1.372
35.8292 1.078
35.8595 0.524
35.8897 0.127
35.9200 -0.530
35.9503 0.116
35.9806 -0.018
36.0108 -0.516
36.0411 1.017
36.0714 0.000
36.1017 0.910
36.1320 0.884
36.1622 0.598
36.1925 0.313
36.2228 0.601
36.2531 0.057
36.2834 0.764
36.3136 0.065
36.3439 -0.008
36.3742 0.753
36.4045 0.578
36.4347 -0.430
36.4650 -0.032
36.4953 -0.413
36.5256 -0.429
36.5559 -0.081
36.5861 0.321
36.6164 -0.058
36.6467 1.283
36.6770 -0.240
36.7073 -0.148
36.7375 -0.367
36.7678 0.508
36.7981 0.029
36.8284 0.385
36.8586 -0.040
36.8889 0.370
36.9192 0.155
36.9495 -0.528
36.9798 0.092
37.0100 0.505
37.0403 -0.697
37.0706 -0.335
37.1009 0.132
37.1312 0.183
37.1614 -0.234
37.1917 -0.286
37.2220 0.028
37.2523 -0.439
37.2825 -0.384
37.3128 -0.015
37.3431 -0.219
37.3734 0.203
37.4037 -0.468
37.4339 -0.154
37.4642 0.161
37.4945 -0.200
37.5248 0.065
37.5551 -0.243
37.5853 0.544
37.6156 0.602
37.6459 0.193
37.6762 0.201
37.7064 0.157
37.7367 0.323
37.7670 -0.135
37.7973 -0.385
37.8276 0.096
37.8578 0.004
37.8881 0.122
37.9184 -0.020
37.9487 0.255
37.9790 0.427
38.0092 0.287
38.0395 -0.008
38.0698 0.010
38.1001 0.445
38.1304 0.048
38.1606 -0.244
38.1909 0.506
38.2212 0.892
38.2515 0.811
38.2817 -0.624
38.3120 0.754
38.3423 0.362
38.3726 0.232
38.4029 0.779
38.4331 0.129
38.4634 -0.103
38.4937 -0.231
38.5240 0.007
38.5543 -0.327
38.5845 0.641
38.6148 0.517
38.6451 0.237
38.6754 1.260
38.7056 -0.581
38.7359 -0.390
38.7662 -0.331
38.7965 0.250
38.8268 -0.314
38.8570 -0.096
38.8873 -0.295
38.9176 -0.127
38.9479 0.509
38.9782 0.053
39.0084 0.223
39.0387 -0.024
39.0690 1.033
39.0993 0.684
39.1295 0.179
39.1598 -0.064
39.1901 -0.098
39.2204 0.545
39.2507 0.408
39.2809 -0.509
39.3112 0.398
39.3415 0.367
39.3718 -0.287
39.4021 -0.368
39.4323 -0.062
39.4626 0.401
39.4929 -0.073
39.5232 0.808
39.5534 0.180
39.5837 0.386
39.6140 -0.189
39.6443 0.122
39.6746 -0.034
39.7048 -0.503
39.7351 0.957
39.7654 -0.760
39.7957 0.753
39.8260 -0.285
39.8562 0.292
39.8865 -0.276
39.9168 -0.114
39.9471 0.883
39.9773 -0.100
40.0076 -0.248
40.0379 -0.655
40.0682 0.396
40.0985 0.146
40.1287 -0.416
40.1590 -0.113
40.1893 -0.121
40.2196 0.548
40.2499 0.176
40.2801 0.899
40.3104 0.112
40.3407 -0.414
40.3710 0.312
40.4012 0.517
40.4315 0.150
40.4618 0.356
40.4921 -0.009
40.5224 -0.114
40.5526 0.147
40.5829 -0.216
40.6132 -0.162
40.6435 0.154
40.6738 -0.416
40.7040 -0.108
40.7343 0.149
40.7646 0.458
40.7949 0.560
40.8251 0.037
40.8554 0.609
40.8857 0.765
40.9160 0.766
40.9463 -0.066
40.9765 0.457
41.0068 0.825
41.0371 0.516
41.0674 -0.052
41.0977 0.265
41.1279 0.688
41.1582 0.643
41.1885 1.015
41.2188 0.659
41.2491 -0.478
41.2793 -0.416
41.3096 0.527
41.3399 -1.238
41.3702 0.123
41.4004 -0.442
41.4307 -0.090
41.4610 0.626
41.4913 0.406
41.5216 0.604
41.5518 0.125
41.5821 -0.145
41.6124 0.055
41.6427 -0.265
41.6730 0.405
41.7032 -0.070
41.7335 -0.284
41.7638 0.284
41.7941 0.384
41.8243 0.016
41.8546 -0.194
41.8849 -0.092
41.9152 -0.197
41.9455 0.011
41.9757 -0.613
42.0060 0.274
42.0363 0.120
42.0666 -0.138
42.0969 0.127
42.1271 -0.390
42.1574 -0.077
42.1877 0.913
42.2180 -0.284
42.2482 0.708
42.2785 0.190
42.3088 -0.796
42.3391 0.250
42.3694 -0.318
42.3996 0.261
42.4299 -0.670
42.4602 -0.037
42.4905 -0.133
42.5208 -0.280
42.5510 -0.010
42.5813 -0.104
42.6116 -0.092
42.6419 0.284
42.6721 -0.849
42.7024 0.207
42.7327 -0.091
42.7630 0.288
42.7933 0.200
42.8235 -0.304
42.8538 0.443
42.8841 -0.320
42.9144 -0.353
42.9447 -0.178
42.9749 -0.263
43.0052 -0.712
43.0355 0.507
43.0658 -1.086
43.0960 0.395
43.1263 -0.207
43.1566 0.234
43.1869 0.311
43.2172 0.336
43.2474 0.623
43.2777 0.129
43.3080 -0.364
43.3383 -0.117
43.3686 0.548
43.3988 0.276
43.4291 0.056
43.4594 -0.423
43.4897 0.037
43.5199 0.809
43.5502 -0.188
43.5805 0.534
43.6108 -0.567
43.6411 0.157
43.6713 -0.421
43.7016 0.304
43.7319 -0.480
43.7622 0.975
43.7925 -0.172
43.8227 -0.121
43.8530 -0.069
43.8833 0.244
43.9136 -0.068
43.9439 0.299
43.9741 0.406
44.0044 -0.007
44.0347 -0.107
44.0650 0.367
44.0952 0.477
44.1255 0.379
44.1558 0.179
44.1861 0.239
44.2164 -0.794
44.2466 -0.107
44.2769 -0.253
44.3072 -0.085
44.3375 -0.333
44.3678 -0.062
44.3980 -0.311
44.4283 -0.247
44.4586 -0.338
44.4889 0.289
44.5191 0.084
44.5494 -0.329
44.5797 -0.329
44.6100 0.278
44.6403 0.574
44.6705 0.506
44.7008 -0.083
44.7311 0.007
44.7614 0.150
44.7917 0.345
44.8219 0.177
44.8522 0.426
44.8825 0.519
44.9128 -0.064
44.9430 -0.125
44.9733 -0.342
45.0036 0.114
45.0339 0.102
45.0642 -0.014
45.0944 0.340
45.1247 -0.347
45.1550 0.112
45.1853 0.312
45.2156 -0.477
45.2458 0.714
45.2761 0.239
45.3064 0.338
45.3367 -0.709
45.3669 -0.192
45.3972 -0.299
45.4275 -0.145
45.4578 -0.876
45.4881 0.477
45.5183 0.113
45.5486 0.166
45.5789 -0.041
45.6092 -0.091
45.6395 0.277
45.6697 0.332
45.7000 0.389
45.7303 0.238
45.7606 -0.589
45.7908 0.043
45.8211 -0.054
45.8514 0.059
45.8817 -0.244
45.9120 -0.182
45.9422 -0.536
45.9725 0.361
46.0028 0.217
46.0331 0.126
46.0634 0.035
46.0936 0.519
46.1239 -0.143
46.1542 -0.179
46.1845 -0.058
46.2147 -0.040
46.2450 0.135
46.2753 0.310
46.3056 0.434
46.3359 0.715
46.3661 0.164
46.3964 -0.074
46.4267 -0.832
46.4570 0.077
46.4873 0.206
46.5175 0.388
46.5478 0.467
46.5781 -0.131
46.6084 0.158
46.6386 0.186
46.6689 0.060
46.6992 0.507
46.7295 -0.087
46.7598 0.570
46.7900 -0.127
46.8203 -0.302
46.8506 0.358
46.8809 -0.232
46.9112 0.272
46.9414 0.048
46.9717 -0.123
47.0020 0.384
47.0323 -0.046
47.0626 -0.111
47.0928 -0.331
47.1231 -0.029
47.1534 -0.925
47.1837 0.264
47.2139 1.141
47.2442 0.039
47.2745 -0.385
47.3048 0.651
47.3351 0.124
47.3653 -0.401
47.3956 0.011
47.4259 -0.148
47.4562 -0.151
47.4865 -0.361
47.5167 -0.028
47.5470 0.514
47.5773 -0.662
47.6076 -0.066
47.6378 0.427
47.6681 -0.487
47.6984 0.424
47.7287 -0.279
47.7590 0.372
47.7892 0.191
47.8195 0.220
47.8498 -0.116
47.8801 0.591
47.9104 0.309
47.9406 0.601
47.9709 0.945
48.0012 0.457
48.0315 -0.395
48.0617 -0.048
48.0920 -0.012
48.1223 -0.393
48.1526 -0.279
48.1829 -0.319
48.2131 -0.307
48.2434 0.279
48.2737 -0.124
48.3040 0.359
48.3343 0.530
48.3645 0.129
48.3948 0.042
48.4251 0.268
48.4554 0.442
48.4856 -0.216
48.5159 0.481
48.5462 -0.019
48.5765 0.210
48.6068 0.337
48.6370 -0.161
48.6673 0.071
48.6976 0.199
48.7279 0.381
48.7582 -0.010
48.7884 1.163
48.8187 -0.268
48.8490 -0.240
48.8793 -0.107
48.9095 0.340
48.9398 0.214
48.9701 1.183
49.0004 -0.087
49.0307 0.363
49.0609 -0.333
49.0912 0.379
49.1215 0.518
49.1518 0.033
49.1821 -0.451
49.2123 -0.213
49.2426 -0.443
49.2729 -0.152
49.3032 -0.120
49.3334 -0.139
49.3637 -0.314
49.3940 0.085
49.4243 1.474
49.4546 0.000
49.4848 0.974
49.5151 0.386
49.5454 0.580
49.5757 -0.162
49.6060 1.180
49.6362 0.126
49.6665 0.272
49.6968 0.366
49.7271 0.200
49.7574 -0.433
49.7876 -0.285
49.8179 0.906
49.8482 0.275
49.8785 0.009
49.9087 -0.100
49.9390 -0.469
49.9693 -0.441
49.9996 0.368
50.0299 0.450
50.0601 0.636
50.0904 0.666
50.1207 1.010
50.1510 1.042
50.1813 0.086
50.2115 1.109
50.2418 0.310
50.2721 0.554
50.3024 0.798
50.3326 1.668
50.3629 0.456
50.3932 1.119
50.4235 2.981
50.4538 -0.208
50.4840 0.926
50.5143 0.967
50.5446 0.593
50.5749 0.584
50.6052 1.096
50.6354 1.453
50.6657 1.551
50.6960 1.128
50.7263 0.706
50.7565 0.753
50.7868 0.333
50.8171 0.226
50.8474 -0.037
50.8777 0.795
50.9079 0.222
50.9382 0.795
50.9685 1.785
50.9988 0.589
51.0291 1.164
51.0593 0.594
51.0896 0.546
51.1199 0.603
51.1502 0.557
51.1804 0.355
51.2107 1.664
51.2410 0.369
51.2713 0.743
51.3016 1.116
51.3318 0.397
51.3621 0.721
51.3924 0.889
51.4227 0.901
51.4530 1.123
51.4832 0.980
51.5135 0.735
51.5438 0.490
51.5741 1.652
51.6043 0.575
51.6346 0.229
51.6649 0.143
51.6952 0.891
51.7255 1.172
51.7557 0.360
51.7860 0.485
51.8163 0.508
51.8466 0.427
51.8769 -0.070
51.9071 1.257
51.9374 -0.332
51.9677 0.892
51.9980 0.450
52.0282 0.635
52.0585 0.194
52.0888 1.474
52.1191 0.931
52.1494 -0.288
52.1796 0.369
52.2099 -0.016
52.2402 -0.451
52.2705 -0.299
52.3008 -0.355
52.3310 0.788
52.3613 -0.048
52.3916 0.419
52.4219 0.679
52.4521 0.575
52.4824 -0.258
52.5127 0.629
52.5430 -0.358
52.5733 -0.198
52.6035 -0.924
52.6338 0.852
52.6641 0.597
52.6944 0.186
52.7247 -0.171
52.7549 0.097
52.7852 -0.051
52.8155 0.271
52.8458 -0.448
52.8761 -0.335
52.9063 0.247
52.9366 -0.107
52.9669 0.373
52.9972 0.385
53.0274 0.501
53.0577 -0.423
53.0880 0.217
53.1183 -0.133
53.1486 0.143
53.1788 0.420
53.2091 -0.969
53.2394 0.299
53.2697 -0.151
53.3000 -0.288
53.3302 -0.007
53.3605 0.431
53.3908 -0.016
53.4211 -0.046
53.4513 0.551
53.4816 0.054
53.5119 -0.494
53.5422 -0.014
53.5725 -0.367
53.6027 1.157
53.6330 0.128
53.6633 -0.743
53.6936 0.262
53.7239 0.694
53.7541 0.086
53.7844 -0.053
53.8147 0.278
53.8450 -0.745
53.8752 0.681
53.9055 0.285
53.9358 -0.163
53.9661 0.328
53.9964 -0.274
54.0266 0.999
54.0569 0.190
54.0872 0.944
54.1175 -0.436
54.1478 1.257
54.1780 0.139
54.2083 -0.302
54.2386 0.508
54.2689 0.382
54.2991 -0.213
54.3294 -0.442
54.3597 0.228
54.3900 0.586
54.4203 0.529
54.4505 -0.101
54.4808 0.363
54.5111 0.620
54.5414 0.514
54.5717 -0.061
54.6019 0.719
54.6322 -0.375
54.6625 -0.895
54.6928 0.981
54.7230 0.202
54.7533 0.257
54.7836 -0.104
54.8139 -0.724
54.8442 0.739
54.8744 0.172
54.9047 -0.030
54.9350 -0.126
54.9653 -0.066
54.9956 0.620
55.0258 -0.307
55.0561 -0.089
55.0864 -0.390
55.1167 0.072
55.1469 0.222
55.1772 0.008
55.2075 0.055
55.2378 -0.001
55.2681 -0.629
55.2983 0.462
55.3286 -0.269
55.3589 0.355
55.3892 -0.426
55.4195 -0.113
55.4497 0.513
55.4800 0.359
55.5103 0.362
55.5406 -0.676
55.5709 0.006
55.6011 -0.875
55.6314 0.173
55.6617 0.492
55.6920 -0.177
55.7222 -0.065
55.7525 -0.212
55.7828 -0.150
55.8131 -0.296
55.8434 0.549
55.8736 -0.168
55.9039 -0.051
55.9342 -0.454
55.9645 0.654
55.9948 -0.372
56.0250 0.112
56.0553 0.129
56.0856 -0.114
56.1159 0.061
56.1461 0.184
56.1764 0.048
56.2067 0.068
56.2370 0.194
56.2673 0.112
56.2975 0.031
56.3278 0.159
56.3581 0.079
56.3884 -0.156
56.4187 -0.078
56.4489 0.574
56.4792 0.184
56.5095 0.057
56.5398 -0.019
56.5700 -0.353
56.6003 -0.032
56.6306 0.238
56.6609 -0.169
56.6912 -0.210
56.7214 0.478
56.7517 0.178
56.7820 0.296
56.8123 0.310
56.8426 0.324
56.8728 0.444
56.9031 -0.061
56.9334 0.529
56.9637 0.183
56.9939 0.097
57.0242 0.012
57.0545 -0.124
57.0848 -0.364
57.1151 0.162
57.1453 0.428
57.1756 0.382
57.2059 0.076
57.2362 0.761
57.2665 -0.168
57.2967 -0.055
57.3270 0.059
57.3573 0.174
57.3876 0.290
57.4178 0.198
57.4481 0.367
57.4784 1.110
57.5087 0.656
57.5390 0.567
57.5692 0.166
57.5995 -0.442
57.6298 -0.138
57.6601 0.896
57.6904 0.107
57.7206 0.465
57.7509 0.095
57.7812 -0.119
57.8115 -0.019
57.8417 0.186
57.8720 -0.338
57.9023 -0.153
57.9326 0.501
57.9629 -0.355
57.9931 0.405
58.0234 0.645
58.0537 0.260
58.0840 -0.020
58.1143 0.535
58.1445 0.674
58.1748 0.865
58.2051 0.849
58.2354 0.260
58.2656 0.558
58.2959 0.336
58.3262 0.531
58.3565 0.832
58.3868 0.091
58.4170 0.601
58.4473 0.643
58.4776 0.530
58.5079 0.001
58.5382 0.514
58.5684 0.767
58.5987 1.699
58.6290 0.547
58.6593 0.803
58.6896 0.747
58.7198 0.067
58.7501 0.690
58.7804 0.688
58.8107 0.896
58.8409 0.323
58.8712 0.324
58.9015 0.794
58.9318 0.276
58.9621 0.904
58.9923 -0.551
59.0226 -0.390
59.0529 0.578
59.0832 0.453
59.1135 0.589
59.1437 0.517
59.1740 0.863
59.2043 -0.248
59.2346 0.724
59.2648 -0.126
59.2951 -0.141
59.3254 -0.365
59.3557 0.195
59.3860 0.495
59.4162 0.170
59.4465 0.420
59.4768 0.409
59.5071 0.348
59.5374 0.964
59.5676 0.591
59.5979 -0.093
59.6282 -0.256
59.6585 -0.053
59.6887 0.254
59.7190 0.354
59.7493 0.298
59.7796 -0.225
59.8099 0.034
59.8401 0.709
59.8704 0.292
59.9007 -0.124
59.9310 0.294
59.9613 0.036
59.9915 0.143
60.0218 0.042
60.0521 0.932
60.0824 0.468
60.1126 0.474
60.1429 -0.041
60.1732 0.227
60.2035 1.225
60.2338 -0.485
60.2640 0.046
60.2943 0.785
60.3246 -0.089
60.3549 0.600
60.3852 0.769
60.4154 0.366
60.4457 0.120
60.4760 0.499
60.5063 0.567
60.5365 -0.354
60.5668 -0.284
60.5971 -0.110
60.6274 0.482
60.6577 0.502
60.6879 0.053
60.7182 0.856
60.7485 -0.164
60.7788 -0.349
60.8091 -0.415
60.8393 0.510
60.8696 0.395
60.8999 0.228
60.9302 0.113
60.9604 -0.313
60.9907 0.252
61.0210 0.192
61.0513 -0.336
61.0816 -0.186
61.1118 0.433
61.1421 -0.144
61.1724 1.050
61.2027 0.265
61.2330 -0.050
61.2632 -0.520
61.2935 0.084
61.3238 0.219
61.3541 0.043
61.3844 0.024
61.4146 0.214
61.4449 -0.220
61.4752 -0.184
61.5055 -0.461
61.5357 0.774
61.5660 0.812
61.5963 0.538
61.6266 0.056
61.6569 0.044
61.6871 -0.124
61.7174 0.230
61.7477 0.325
61.7780 -0.518
61.8083 0.255
61.8385 0.873
61.8688 0.033
61.8991 -0.390
61.9294 0.002
61.9596 0.031
61.9899 0.060
62.0202 0.194
62.0505 0.485
62.0808 0.047
62.1110 0.340
62.1413 0.060
62.1716 0.563
62.2019 -0.236
62.2322 -0.253
62.2624 0.095
62.2927 0.132
62.3230 0.899
62.3533 -0.209
62.3835 -0.118
62.4138 0.182
62.4441 0.900
62.4744 0.473
62.5047 -0.266
62.5349 0.141
62.5652 -0.180
62.5955 -0.187
62.6258 -0.142
62.6561 0.112
62.6863 -0.466
62.7166 0.363
62.7469 -0.266
62.7772 0.043
62.8074 -0.324
62.8377 0.769
62.8680 -0.274
62.8983 -0.586
62.9286 0.561
62.9588 0.146
62.9891 -0.008
63.0194 0.255
63.0497 0.051
63.0800 0.212
63.1102 -0.043
63.1405 0.223
63.1708 -0.343
63.2011 0.186
63.2313 -0.222
63.2616 0.048
63.2919 0.318
63.3222 0.173
63.3525 0.653
63.3827 -0.012
63.4130 -0.155
63.4433 -0.089
63.4736 0.343
63.5039 -0.267
63.5341 0.114
63.5644 -0.390
63.5947 -0.277
63.6250 0.775
63.6552 -0.048
63.6855 0.536
63.7158 -0.389
63.7461 0.457
63.7764 -0.102
63.8066 -0.088
63.8369 0.135
63.8672 -0.317
63.8975 0.533
63.9278 -0.387
63.9580 0.620
63.9883 -0.350
64.0186 0.607
64.0489 0.211
64.0791 0.232
64.1094 0.463
64.1397 0.590
64.1700 0.561
64.2003 0.273
64.2305 0.350
64.2608 -0.144
64.2911 0.299
64.3214 0.014
64.3517 0.615
64.3819 0.279
64.4122 -0.055
64.4425 0.392
64.4728 -0.306
64.5031 -0.274
64.5333 0.228
64.5636 -0.676
64.5939 -0.205
64.6242 0.058
64.6544 0.427
64.6847 -0.350
64.7150 0.280
64.7453 0.651
64.7756 0.554
64.8058 -0.376
64.8361 0.049
64.8664 -0.306
64.8967 0.381
64.9270 -0.390
64.9572 -0.333
64.9875 0.401
65.0178 0.094
65.0481 -1.045
65.0783 0.421
65.1086 -0.352
65.1389 -0.239
65.1692 0.552
65.1995 -0.323
65.2297 0.105
65.2600 0.012
65.2903 0.390
65.3206 0.143
65.3509 -0.520
65.3811 -0.089
65.4114 0.187
65.4417 0.047
65.4720 0.272
65.5022 0.290
65.5325 -0.785
65.5628 0.276
65.5931 -0.590
65.6234 0.056
65.6536 0.390
65.6839 0.256
65.7142 -0.241
65.7445 -0.270
65.7748 -0.141
65.8050 0.041
65.8353 -0.506
65.8656 0.146
65.8959 0.226
65.9261 0.046
65.9564 -0.133
65.9867 -0.311
66.0170 0.155
66.0473 0.101
66.0775 0.204
66.1078 -0.526
66.1381 -0.057
66.1684 0.049
66.1987 -0.158
66.2289 -0.311
66.2592 0.202
66.2895 -0.065
66.3198 1.022
66.3500 -0.233
66.3803 0.387
66.4106 0.175
66.4409 0.641
66.4712 -0.038
66.5014 0.273
66.5317 0.064
66.5620 -0.092
66.5923 -0.404
66.6226 0.639
66.6528 0.069
66.6831 0.072
66.7134 0.128
66.7437 -0.023
66.7739 -0.070
66.8042 -0.324
66.8345 0.412
66.8648 -0.101
66.8951 0.376
66.9253 0.490
66.9556 -0.281
66.9859 -0.114
67.0162 0.522
67.0465 -0.038
67.0767 0.235
67.1070 0.093
67.1373 -0.048
67.1676 0.228
67.1978 -0.225
67.2281 0.365
67.2584 -0.034
67.2887 -0.276
67.3190 -0.113
67.3492 0.311
67.3795 0.476
67.4098 0.381
67.4401 0.078
67.4704 0.505
67.5006 0.204
67.5309 0.893
67.5612 0.333
67.5915 0.190
67.6218 0.205
67.6520 0.116
67.6823 -0.285
67.7126 -0.089
67.7429 0.107
67.7731 0.305
67.8034 0.503
67.8337 0.285
67.8640 0.277
67.8943 0.165
67.9245 -0.155
67.9548 0.151
67.9851 0.406
68.0154 0.662
68.0457 -0.332
68.0759 0.238
68.1062 -0.337
68.1365 -0.195
68.1668 0.312
68.1970 0.195
68.2273 0.495
68.2576 -0.037
68.2879 -0.099
68.3182 0.777
68.3484 0.143
68.3787 -0.126
68.4090 -0.029
68.4393 -0.036
68.4696 0.063
68.4998 0.005
68.5301 -0.415
68.5604 0.039
68.5907 0.078
68.6209 -0.039
68.6512 -0.363
68.6815 0.090
68.7118 -0.290
68.7421 -0.200
68.7723 0.204
68.8026 -0.173
68.8329 0.127
68.8632 0.950
68.8935 0.106
68.9237 0.201
68.9540 -0.328
68.9843 0.445
69.0146 -0.030
69.0448 -0.037
69.0751 0.218
69.1054 0.109
69.1357 -0.624
69.1660 -0.059
69.1962 -0.119
69.2265 0.030
69.2568 0.597
69.2871 -0.345
69.3174 -0.037
69.3476 0.011
69.3779 -0.252
69.4082 0.214
69.4385 0.265
69.4687 -0.465
69.4990 -0.100
69.5293 0.213
69.5596 -0.098
69.5899 -0.304
69.6201 0.056
69.6504 -0.417
69.6807 0.152
69.7110 0.723
69.7413 0.356
69.7715 -0.062
69.8018 0.146
69.8321 -0.218
69.8624 0.304
69.8926 -0.163
69.9229 -0.421
69.9532 0.416
69.9835 -0.100
70.0138 -0.304
70.0440 0.058
70.0743 0.213
70.1046 -0.152
70.1349 0.472
70.1652 -0.464
70.1954 -0.151
70.2257 0.112
70.2560 0.584
70.2863 -0.506
70.3166 0.227
70.3468 0.076
70.3771 -0.126
70.4074 -0.275
70.4377 -0.007
70.4679 0.261
70.4982 -0.146
70.5285 -0.293
70.5588 -0.178
70.5891 -0.166
70.6193 0.002
70.6496 -0.037
70.6799 -0.180
70.7102 0.304
70.7405 0.059
70.7707 -0.290
70.8010 -0.234
70.8313 -0.125
70.8616 -0.068
70.8918 0.407
70.9221 -0.628
70.9524 0.005
70.9827 0.326
71.0130 -0.186
71.0432 0.137
71.0735 0.200
71.1038 -0.049
71.1341 -0.245
71.1644 0.237
71.1946 -0.270
71.2249 -0.256
71.2552 0.385
71.2855 0.036
71.3157 -0.311
71.3460 0.005
71.3763 0.114
71.4066 -0.245
71.4369 0.074
71.4671 0.445
71.4974 -0.224
71.5277 0.201
71.5580 -0.050
71.5883 0.637
71.6185 0.388
71.6488 -0.122
71.6791 -0.266
71.7094 -0.122
71.7396 0.126
71.7699 0.271
71.8002 0.208
71.8305 0.771
71.8608 -0.019
71.8910 0.337
71.9213 -0.191
71.9516 0.063
71.9819 0.057
72.0122 -0.313
72.0424 0.203
72.0727 -0.269
72.1030 -0.220
72.1333 0.455
72.1635 -0.015
72.1938 0.401
72.2241 -0.276
72.2544 -0.598
72.2847 0.695
72.3149 -0.250
72.3452 0.055
72.3755 -0.056
72.4058 0.095
72.4361 -0.066
72.4663 -0.227
72.4966 0.030
72.5269 -0.077
72.5572 -0.235
72.5874 0.337
72.6177 0.649
72.6480 0.441
72.6783 0.130
72.7086 -0.233
72.7388 -0.126
72.7691 -0.071
72.7994 -0.431
72.8297 0.512
72.8600 0.049
72.8902 0.263
72.9205 0.479
72.9508 -0.034
72.9811 -0.285
73.0113 0.076
73.0416 0.229
73.0719 0.643
73.1022 0.382
73.1325 0.173
73.1627 0.277
73.1930 0.486
73.2233 0.436
73.2536 0.334
73.2839 0.598
73.3141 0.081
73.3444 -0.018
73.3747 0.248
73.4050 -0.007
73.4353 0.157
73.4655 0.061
73.4958 1.059
73.5261 0.026
73.5564 0.557
73.5866 -0.109
73.6169 0.580
73.6472 0.020
73.6775 -0.228
73.7078 -0.266
73.7380 -0.175
73.7683 -0.291
73.7986 0.427
73.8289 0.312
73.8592 0.197
73.8894 0.188
73.9197 -0.341
73.9500 0.432
73.9803 0.478
74.0105 -0.154
74.0408 0.310
74.0711 0.670
74.1014 -0.115
74.1317 0.298
74.1619 -0.121
74.1922 0.555
74.2225 0.242
74.2528 0.189
74.2831 0.763
74.3133 -0.017
74.3436 0.246
74.3739 -0.167
74.4042 0.514
74.4344 0.049
74.4647 0.003
74.4950 0.738
74.5253 0.380
74.5556 0.284
74.5858 0.657
74.6161 0.302
74.6464 0.832
74.6767 1.000
74.7070 0.334
74.7372 -0.435
74.7675 -0.266
74.7978 -0.013
74.8281 0.344
74.8583 0.806
74.8886 0.228
74.9189 0.066
74.9492 0.427
74.9795 0.319
75.0097 0.577
75.0400 -0.154
75.0703 0.574
75.1006 0.886
75.1309 -0.103
75.1611 0.627
75.1914 -0.465
75.2217 0.215
75.2520 -0.198
75.2822 1.108
75.3125 0.488
75.3428 0.285
75.3731 0.552
75.4034 -0.117
75.4336 -0.266
75.4639 -0.174
75.4942 0.700
75.5245 0.064
75.5548 0.002
75.5850 0.149
75.6153 -0.068
75.6456 -0.232
75.6759 0.282
75.7061 -0.037
75.7364 0.375
75.7667 -0.203
75.7970 -0.155
75.8273 0.311
75.8575 -0.160
75.8878 0.047
75.9181 0.462
75.9484 0.098
75.9787 -0.058
76.0089 0.204
76.0392 0.363
76.0695 0.262
76.0998 -0.099
76.1301 0.374
76.1603 0.484
76.1906 0.177
76.2209 0.080
76.2512 0.140
76.2814 0.044
76.3117 -0.520
76.3420 -0.001
76.3723 0.518
76.4026 0.361
76.4328 0.049
76.4631 0.414
76.4934 -0.001
76.5237 -0.312
76.5540 0.264
76.5842 0.112
76.6145 0.533
76.6448 0.539
76.6751 -0.132
76.7053 -0.125
76.7356 0.143
76.7659 -0.266
76.7962 -0.266
76.8265 -0.119
76.8567 0.081
76.8870 -0.083
76.9173 0.743
76.9476 0.373
76.9779 0.003
77.0081 0.258
77.0384 0.150
77.0687 0.043
77.0990 0.092
77.1292 0.143
77.1595 -0.483
77.1898 0.663
77.2201 -0.222
77.2504 -0.012
77.2806 0.251
77.3109 0.097
77.3412 -0.159
77.3715 -0.051
77.4018 -0.097
77.4320 0.377
77.4623 -0.189
77.4926 -0.441
77.5229 0.238
77.5531 0.189
77.5834 -0.224
77.6137 0.510
77.6440 -0.266
77.6743 -0.051
77.7045 0.008
77.7348 0.120
77.7651 0.076
77.7954 0.294
77.8257 -0.061
77.8559 0.107
77.8862 -0.246
77.9165 0.131
77.9468 -0.117
77.9770 -0.259
78.0073 0.148
78.0376 0.400
78.0679 0.080
78.0982 0.021
78.1284 0.432
78.1587 0.322
78.1890 0.109
78.2193 0.001
78.2496 0.363
78.2798 -0.525
78.3101 -0.058
78.3404 -0.163
78.3707 -0.215
78.4009 -0.058
78.4312 0.048
78.4615 -0.054
78.4918 -0.311
78.5221 0.098
78.5523 0.559
78.5826 -0.228
78.6129 0.131
78.6432 -0.239
78.6735 -0.243
78.7037 0.223
78.7340 -0.144
78.7643 0.531
78.7946 -0.199
78.8248 -0.095
78.8551 0.478
78.8854 0.271
78.9157 0.169
78.9460 -0.401
78.9762 0.280
79.0065 -0.080
79.0368 0.081
79.0671 -0.277
79.0974 0.198
79.1276 0.310
79.1579 0.162
79.1882 0.119
79.2185 0.597
79.2488 0.608
79.2790 0.255
79.3093 0.163
79.3396 -0.085
79.3699 -0.123
79.4001 -0.057
79.4304 -0.250
79.4607 -0.002
79.4910 -0.222
79.5213 0.339
79.5515 0.381
79.5818 0.163
79.6121 0.363
79.6424 0.146
79.6727 0.608
79.7029 -0.232
79.7332 0.543
79.7635 -0.087
79.7938 -0.143
79.8240 0.114
79.8543 0.111
79.8846 0.266
79.9149 -0.256
79.9452 0.629
79.9754 -0.100
80.0057 -0.411
80.0360 0.216
80.0663 0.218
80.0966 -0.091
80.1268 0.903
80.1571 -0.081
80.1874 -0.024
80.2177 -0.017
80.2479 0.303
80.2782 -0.210
80.3085 0.789
80.3388 -0.139
80.3691 -0.285
80.3993 0.170
80.4296 0.365
80.4599 0.404
80.4902 0.028
80.5205 0.746
80.5507 -0.097
80.5810 0.466
80.6113 0.458
80.6416 0.242
80.6718 0.651
80.7021 -0.189
80.7324 0.587
80.7627 0.009
80.7930 0.214
80.8232 0.159
80.8535 0.312
80.8838 0.050
80.9141 0.049
80.9444 0.987
80.9746 -0.211
81.0049 -0.053
81.0352 -0.624
81.0655 0.095
81.0957 -0.383
81.1260 0.285
81.1563 -0.191
81.1866 0.270
81.2169 -0.049
81.2471 0.050
81.2774 0.149
81.3077 -0.011
81.3380 -0.275
81.3683 0.191
81.3985 -0.019
81.4288 0.449
81.4591 0.084
81.4894 0.918
81.5196 -0.122
81.5499 0.453
81.5802 -0.326
81.6105 0.355
81.6408 -0.422
81.6710 -0.209
81.7013 0.214
81.7316 0.065
81.7619 0.072
81.7922 0.184
81.8224 -0.171
81.8527 -0.266
81.8830 0.050
81.9133 0.158
81.9436 0.632
81.9738 0.065
82.0041 0.488
82.0344 0.339
82.0647 0.242
82.0949 -0.062
82.1252 -0.260
82.1555 0.100
82.1858 -0.061
82.2161 0.093
82.2463 0.090
82.2766 -0.380
82.3069 0.296
82.3372 0.921
82.3675 0.610
82.3977 0.142
82.4280 0.301
82.4583 0.096
82.4886 -0.213
82.5188 -0.260
82.5491 -0.064
82.5794 0.237
82.6097 -0.295
82.6400 0.060
82.6702 0.520
82.7005 0.459
82.7308 0.087
82.7611 0.080
82.7914 -0.395
82.8216 0.017
82.8519 0.012
82.8822 0.581
82.9125 0.214
82.9427 0.107
82.9730 -0.311
83.0033 0.053
83.0336 -0.259
83.0639 -0.050
83.0941 0.420
83.1244 0.371
83.1547 0.218
83.1850 0.170
83.2153 -0.242
83.2455 0.076
83.2758 -0.491
83.3061 0.714
83.3364 -0.476
83.3666 -0.572
83.3969 0.516
83.4272 -0.009
83.4575 0.091
83.4878 0.139
83.5180 -0.020
83.5483 0.030
83.5786 -0.023
83.6089 0.602
83.6392 0.134
83.6694 -0.126
83.6997 0.033
83.7300 0.764
83.7603 0.039
83.7905 -0.322
83.8208 0.100
83.8511 0.158
83.8814 0.373
83.9117 -0.349
83.9419 0.545
83.9722 -0.436
84.0025 0.147
84.0328 -0.468
84.0631 0.116
84.0933 -0.132
84.1236 0.037
84.1539 0.519
84.1842 0.064
84.2144 -0.389
84.2447 -0.027
84.2750 0.231
84.3053 -0.187
84.3356 0.386
84.3658 0.438
84.3961 0.231
84.4264 0.129
84.4567 -0.337
84.4870 -0.092
84.5172 0.414
84.5475 0.192
84.5778 0.126
84.6081 0.322
84.6383 0.154
84.6686 0.091
84.6989 -0.179
84.7292 0.020
84.7595 0.428
84.7897 0.212
84.8200 0.048
84.8503 0.042
84.8806 -0.067
84.9109 0.084
84.9411 -0.284
84.9714 0.494
85.0017 0.075
85.0320 0.333
85.0623 -0.084
85.0925 0.541
85.1228 -0.188
85.1531 -0.134
85.1834 0.024
85.2136 -0.441
85.2439 0.024
85.2742 -0.135
85.3045 0.019
85.3348 0.174
85.3650 0.173
85.3953 -0.243
85.4256 -0.086
85.4559 0.332
85.4862 -0.082
85.5164 0.546
85.5467 0.394
85.5770 0.243
85.6073 0.092
85.6375 -0.214
85.6678 -0.311
85.6981 0.263
85.7284 -0.255
85.7587 -0.043
85.7889 0.377
85.8192 0.643
85.8495 0.179
85.8798 0.082
85.9101 -0.484
85.9403 0.097
85.9706 -0.155
86.0009 0.010
86.0312 -0.031
86.0614 0.344
86.0917 -0.061
86.1220 -0.100
86.1523 0.486
86.1826 0.187
86.2128 0.411
86.2431 0.114
86.2734 0.390
86.3037 0.043
86.3340 0.217
86.3642 -0.493
86.3945 -0.199
86.4248 0.512
86.4551 0.547
86.4853 -0.146
86.5156 0.203
86.5459 0.345
86.5762 -0.294
86.6065 -0.255
86.6367 0.091
86.6670 0.439
86.6973 -0.203
86.7276 0.250
86.7579 0.236
86.7881 0.430
86.8184 0.104
86.8487 0.300
86.8790 0.288
86.9092 0.173
86.9395 0.371
86.9698 -0.316
87.0001 0.613
87.0304 -0.020
87.0606 0.233
87.0909 -0.450
87.1212 -0.039
87.1515 -0.200
87.1818 0.264
87.2120 -0.468
87.2423 -0.054
87.2726 -0.212
87.3029 -0.057
87.3331 0.412
87.3634 -0.525
87.3937 -0.264
87.4240 -0.210
87.4543 0.262
87.4845 -0.099
87.5148 0.322
87.5451 -0.402
87.5754 -0.031
87.6057 -0.546
87.6359 0.088
87.6662 -0.267
87.6965 0.004
87.7268 0.016
87.7571 -0.077
87.7873 -0.793
87.8176 0.523
87.8479 -0.036
87.8782 -0.021
87.9084 -0.005
87.9387 0.168
87.9690 -0.231
87.9993 0.360
88.0296 0.014
88.0598 0.138
88.0901 0.210
88.1204 0.440
88.1507 -0.319
88.1810 -0.244
88.2112 -0.208
88.2415 -0.484
88.2718 0.647
88.3021 -0.253
88.3323 0.411
88.3626 0.607
88.3929 0.179
88.4232 0.741
88.4535 -0.623
88.4837 0.461
88.5140 -0.277
88.5443 -0.024
88.5746 0.073
88.6049 -0.141
88.6351 0.166
88.6654 -0.308
88.6957 0.157
88.7260 0.102
88.7562 0.047
88.7865 0.202
88.8168 0.409
88.8471 -0.216
88.8774 0.306
88.9076 0.203
88.9379 0.153
88.9682 -0.260
88.9985 -0.162
89.0288 -0.011
89.0590 0.036
89.0893 0.085
89.1196 0.082
89.1499 0.496
89.1801 0.443
89.2104 -0.235
89.2407 0.286
89.2710 0.391
89.3013 0.549
89.3315 0.083
89.3618 -0.122
89.3921 -0.326
89.4224 0.199
89.4527 0.361
89.4829 -0.205
89.5132 0.114
89.5435 0.122
89.5738 -0.078
89.6040 0.244
89.6343 -0.162
89.6646 0.317
89.6949 0.173
89.7252 0.185
89.7554 0.042
89.7857 0.213
89.8160 -0.085
89.8463 -0.122
89.8766 -0.209
89.9068 -0.244
89.9371 0.217
89.9674 0.053
89.9977 -0.057
90.0279 0.198
90.0582 -0.224
90.0885 0.085
90.1188 -0.179
90.1491 -0.181
90.1793 0.234
90.2096 -0.080
90.2399 0.441
90.2702 0.286
90.3005 0.391
90.3307 -0.232
90.3610 -0.020
90.3913 -0.225
90.4216 -0.116
90.4518 -0.215
90.4821 0.103
90.5124 -0.150
90.5427 0.378
90.5730 -0.030
90.6032 0.500
90.6335 0.353
90.6638 -0.001
90.6941 0.896
90.7244 0.023
90.7546 0.296
90.7849 -0.002
90.8152 -0.144
90.8455 -0.233
90.8758 -0.614
90.9060 0.412
90.9363 -0.019
90.9666 0.332
90.9969 0.527
91.0271 0.098
91.0574 0.242
91.0877 -0.185
91.1180 0.273
91.1483 -0.049
91.1785 -0.057
91.2088 0.247
91.2391 -0.020
91.2694 0.182
91.2997 0.229
91.3299 0.484
91.3602 0.168
91.3905 0.633
91.4208 0.735
91.4510 0.265
91.4813 0.472
91.5116 0.212
91.5419 0.056
91.5722 0.214
91.6024 -0.097
91.6327 -0.250
91.6630 -0.003
91.6933 0.036
91.7236 -0.028
91.7538 -0.247
91.7841 0.159
91.8144 -0.111
91.8447 0.245
91.8749 0.132
91.9052 0.021
91.9355 0.170
91.9658 0.269
91.9961 -0.257
92.0263 0.051
92.0566 0.047
92.0869 -0.164
92.1172 0.355
92.1475 0.094
92.1777 0.041
92.2080 0.302
92.2383 0.407
92.2686 0.096
92.2988 -0.109
92.3291 0.259
92.3594 -0.050
92.3897 -0.149
92.4200 -0.195
92.4502 0.749
92.4805 -0.025
92.5108 0.348
92.5411 0.044
92.5714 -0.363
92.6016 0.003
92.6319 0.162
92.6622 0.009
92.6925 0.169
92.7227 -0.139
92.7530 0.336
92.7833 0.290
92.8136 -0.588
92.8439 0.357
92.8741 -0.051
92.9044 -0.250
92.9347 -0.146
92.9650 -0.094
92.9953 -0.250
93.0255 0.005
93.0558 -0.156
93.0861 -0.107
93.1164 0.723
93.1466 0.043
93.1769 0.354
93.2072 -0.115
93.2375 0.406
93.2678 -0.219
93.2980 0.043
93.3283 -0.006
93.3586 0.518
93.3889 0.157
93.4192 -0.047
93.4494 -0.250
93.4797 0.003
93.5100 0.412
93.5403 -0.063
93.5706 0.192
93.6008 -0.126
93.6311 0.235
93.6614 -0.341
93.6917 0.490
93.7219 0.071
93.7522 -0.295
93.7825 0.018
93.8128 0.383
93.8431 -0.501
93.8733 0.126
93.9036 0.181
93.9339 -0.284
93.9642 0.241
93.9945 -0.535
94.0247 0.096
94.0550 0.363
94.0853 0.266
94.1156 0.222
94.1458 -0.394
94.1761 0.137
94.2064 -0.269
94.2367 0.159
94.2670 0.015
94.2972 -0.337
94.3275 0.020
94.3578 -0.039
94.3881 -0.045
94.4184 0.366
94.4486 0.205
94.4789 -0.007
94.5092 -0.010
94.5395 -0.221
94.5697 0.038
94.6000 -0.171
94.6303 0.298
94.6606 0.246
94.6909 -0.377
94.7211 0.875
94.7514 0.149
94.7817 -0.316
94.8120 -0.051
94.8423 0.059
94.8725 -0.091
94.9028 0.020
94.9331 -0.129
94.9634 -0.016
94.9936 0.358
95.0239 0.003
95.0542 0.795
95.0845 0.338
95.1148 0.142
95.1450 -0.366
95.1753 -0.039
95.2056 -0.233
95.2359 0.094
95.2662 0.004
95.2964 0.228
95.3267 -0.172
95.3570 -0.259
95.3873 0.208
95.4175 0.728
95.4478 -0.106
95.4781 -0.002
95.5084 0.104
95.5387 0.314
95.5689 0.421
95.5992 0.216
95.6295 0.429
95.6598 -0.296
95.6901 0.648
95.7203 0.342
95.7506 0.297
95.7809 -0.059
95.8112 -0.259
95.8414 0.091
95.8717 0.284
95.9020 0.063
95.9323 0.414
95.9626 0.142
95.9928 0.287
96.0231 -0.193
96.0534 0.527
96.0837 0.257
96.1140 0.353
96.1442 0.242
96.1745 0.027
96.2048 0.437
96.2351 0.120
96.2653 0.480
96.2956 0.581
96.3259 0.526
96.3562 0.107
96.3865 -0.363
96.4167 -0.065
96.4470 -0.078
96.4773 0.170
96.5076 0.262
96.5379 -0.061
96.5681 0.033
96.5984 -0.081
96.6287 1.004
96.6590 0.163
96.6893 -0.105
96.7195 0.149
96.7498 0.404
96.7801 -0.121
96.8104 0.031
96.8406 -0.285
96.8709 0.019
96.9012 0.324
96.9315 0.056
96.9618 -0.314
96.9920 0.045
97.0223 0.144
97.0526 -0.016
97.0829 -0.071
97.1132 0.343
97.1434 0.237
97.1737 0.549
97.2040 -0.180
97.2343 0.029
97.2645 -0.126
97.2948 0.189
97.3251 0.192
97.3554 0.196
97.3857 -0.320
97.4159 0.154
97.4462 0.056
97.4765 0.011
97.5068 0.695
97.5371 0.443
97.5673 -0.016
97.5976 0.515
97.6279 -0.308
97.6582 -0.244
97.6884 0.012
97.7187 0.268
97.7490 0.161
97.7793 -0.050
97.8096 -0.051
97.8398 0.052
97.8701 0.365
97.9004 -0.051
97.9307 0.523
97.9610 -0.048
97.9912 -0.201
98.0215 -0.405
98.0518 0.433
98.0821 -0.135
98.1123 0.184
98.1426 0.503
98.1729 0.407
98.2032 0.051
98.2335 0.320
98.2637 0.539
98.2940 -0.284
98.3243 0.457
98.3546 0.105
98.3849 0.014
98.4151 -0.389
98.4454 0.025
98.4757 -0.393
98.5060 0.178
98.5362 0.387
98.5665 0.179
98.5968 0.284
98.6271 0.495
98.6574 0.029
98.6876 0.033
98.7179 0.402
98.7482 0.146
98.7785 0.256
98.8088 0.367
98.8390 0.062
98.8693 -0.138
98.8996 -0.389
98.9299 0.165
98.9601 0.042
98.9904 0.441
99.0207 0.424
99.0510 0.564
99.0813 0.132
99.1115 0.170
99.1418 -0.105
99.1721 0.507
99.2024 0.182
99.2327 0.275
99.2629 -0.152
99.2932 -0.162
99.3235 0.245
99.3538 -0.232
99.3841 -0.031
99.4143 -0.143
99.4446 -0.149
99.4749 0.471
99.5052 -0.002
99.5354 -0.006
99.5657 0.095
99.5960 -0.012
99.6263 0.352
99.6566 0.195
99.6868 -0.118
99.7171 -0.169
99.7474 0.041
99.7777 -0.009
99.8080 -0.058
99.8382 0.206
99.8685 -0.154
99.8988 -0.148
99.9291 -0.142
99.9593 -0.135
99.9896 0.133
100.0199 0.037
100.0502 -0.005
100.0805 -0.047
100.1107 0.068
100.1410 -0.077
100.1713 0.300
100.2016 0.053
100.2319 0.379
100.2621 0.654
100.2924 0.461
100.3227 0.009
100.3530 -0.131
100.3832 0.877
100.4135 0.114
100.4438 -0.023
100.4741 0.362
100.5044 0.226
100.5346 -0.221
100.5649 -0.232
100.5952 0.330
100.6255 -0.097
100.6558 0.519
100.6860 -0.114
100.7163 0.138
100.7466 -0.181
100.7769 0.073
100.8071 -0.036
100.8374 -0.093
100.8677 0.477
100.8980 0.265
100.9283 -0.154
100.9585 -0.103
100.9888 0.469
101.0191 0.105
101.0494 -0.259
101.0797 -0.066
101.1099 -0.133
101.1402 0.583
101.1705 -0.524
101.2008 0.089
101.2310 0.546
101.2613 0.223
101.2916 -0.256
101.3219 0.151
101.3522 0.195
101.3824 -0.229
101.4127 -0.184
101.4430 -0.138
101.4733 0.013
101.5036 0.060
101.5338 -0.048
101.5641 0.262
101.5944 -0.105
101.6247 -0.107
101.6549 0.205
101.6852 0.778
101.7155 0.050
101.7458 -0.053
101.7761 -0.572
101.8063 0.101
101.8366 -0.059
101.8669 -0.062
101.8972 0.092
101.9275 -0.483
101.9577 0.402
101.9880 0.142
102.0183 0.246
102.0486 0.092
102.0788 0.354
102.1091 0.201
102.1394 0.361
102.1697 -0.311
102.2000 0.424
102.2302 0.117
102.2605 0.020
102.2908 -0.024
102.3211 0.453
102.3514 -0.007
102.3816 0.160
102.4119 0.014
102.4422 -0.078
102.4725 0.246
102.5028 0.051
102.5330 0.169
102.5633 0.132
102.5936 0.095
102.6239 0.528
102.6541 0.076
102.6844 0.302
102.7147 -0.200
102.7450 -0.233
102.7753 0.220
102.8055 0.101
102.8358 0.139
102.8661 0.490
102.8964 0.112
102.9267 0.048
102.9569 -0.119
102.9872 0.548
103.0175 0.278
103.0478 0.685
103.0780 -0.521
103.1083 0.097
103.1386 -0.066
103.1689 0.032
103.1992 -0.493
103.2294 0.018
103.2597 -0.096
103.2900 0.156
103.3203 0.149
103.3506 0.142
103.3808 -0.437
103.4111 -0.026
103.4414 -0.030
103.4717 0.435
103.5019 0.067
103.5322 -0.039
103.5625 -0.197
103.5928 -0.197
103.6231 0.272
103.6533 0.116
103.6836 -0.038
103.7139 -0.244
103.7442 -0.190
103.7745 0.178
103.8047 0.182
103.8350 0.030
103.8653 -0.017
103.8956 -0.115
103.9258 -0.004
103.9561 0.056
103.9864 -0.092
104.0167 -0.239
104.0470 -0.031
104.0772 -0.082
104.1075 0.023
104.1378 0.077
104.1681 0.132
104.1984 0.448
104.2286 -0.172
104.2589 -0.063
104.2892 0.203
104.3195 -0.259
104.3497 -0.161
104.3800 -0.010
104.4103 0.142
104.4406 0.347
104.4709 -0.125
104.5011 -0.127
104.5314 0.236
104.5617 0.756
104.5920 0.600
104.6223 0.445
104.6525 -0.179
104.6828 0.084
104.7131 -0.173
104.7434 0.039
104.7736 0.096
104.8039 -0.159
104.8342 0.316
104.8645 -0.197
104.8948 -0.189
104.9250 -0.233
104.9553 0.075
104.9856 0.749
105.0159 0.277
105.0462 0.014
105.0764 0.117
105.1067 0.013
105.1370 0.221
105.1673 0.378
105.1975 -0.089
105.2278 0.435
105.2581 -0.239
105.2884 0.077
105.3187 -0.022
105.3489 0.140
105.3792 0.042
105.4095 0.726
105.4398 0.265
105.4701 0.535
105.5003 -0.341
105.5306 -0.227
105.5609 -0.087
105.5912 -0.154
105.6215 0.144
105.6517 0.078
105.6820 0.066
105.7123 0.158
105.7426 0.303
105.7728 -0.124
105.8031 0.074
105.8334 -0.039
105.8637 -0.047
105.8940 -0.159
105.9242 0.095
105.9545 0.245
105.9848 0.240
106.0151 0.027
106.0454 0.076
106.0756 0.281
106.1059 0.123
106.1362 0.070
106.1665 -0.087
106.1967 0.069
106.2270 0.018
106.2573 0.020
106.2876 -0.186
106.3179 -0.182
106.3481 0.082
106.3784 0.191
106.4087 -0.168
106.4390 -0.213
106.4693 0.627
106.4995 0.010
106.5298 0.019
106.5601 -0.024
106.5904 0.091
106.6206 -0.107
106.6509 0.009
106.6812 -0.082
106.7115 0.192
106.7418 0.102
106.7720 0.221
106.8023 0.236
106.8326 0.149
106.8629 0.218
106.8932 -0.545
106.9234 -0.189
106.9537 0.792
106.9840 0.108
107.0143 0.518
107.0445 0.096
107.0748 0.404
107.1051 0.295
107.1354 0.553
107.1657 0.081
107.1959 -0.337
107.2262 -0.027
107.2565 -0.237
107.2868 0.283
107.3171 0.126
107.3473 0.283
107.3776 0.180
107.4079 0.234
107.4382 0.498
107.4684 -0.072
107.4987 0.610
107.5290 -0.218
107.5593 0.309
107.5896 0.055
107.6198 0.323
107.6501 0.019
107.6804 -0.233
107.7107 0.016
107.7410 0.318
107.7712 -0.161
107.8015 0.090
107.8318 -0.127
107.8621 0.126
107.8923 -0.141
107.9226 0.217
107.9529 0.524
107.9832 -0.106
108.0135 0.099
108.0437 -0.373
108.0740 0.302
108.1043 -0.012
108.1346 0.560
108.1649 -0.169
108.1951 -0.012
108.2254 -0.323
108.2557 0.200
108.2860 0.255
108.3163 -0.158
108.3465 0.107
108.3768 -0.096
108.4071 -0.090
108.4374 0.282
108.4676 0.081
108.4979 0.246
108.5282 -0.005
108.5585 0.682
108.5888 0.328
108.6190 0.027
108.6493 -0.221
108.6796 -0.133
108.7099 0.321
108.7402 -0.110
108.7704 -0.280
108.8007 0.280
108.8310 0.112
108.8613 0.049
108.8915 0.247
108.9218 -0.023
108.9521 -0.241
108.9824 0.168
109.0127 0.421
109.0429 -0.367
109.0732 0.252
109.1035 -0.222
109.1338 0.139
109.1641 0.135
109.1943 -0.232
109.2246 0.078
109.2549 0.077
109.2852 0.285
109.3154 -0.027
109.3457 0.182
109.3760 0.236
109.4063 0.135
109.4366 -0.122
109.4668 0.090
109.4971 -0.061
109.5274 -0.055
109.5577 -0.101
109.5880 0.427
109.6182 -0.085
109.6485 -0.285
109.6788 0.125
109.7091 0.537
109.7393 0.480
109.7696 0.268
109.7999 0.213
109.8302 -0.206
109.8605 0.261
109.8907 -0.052
109.9210 0.521
109.9513 0.053
109.9816 -0.050
110.0119 0.213
110.0421 0.580
110.0724 -0.041
110.1027 0.276
110.1330 0.073
110.1632 -0.389
110.1935 -0.042
110.2238 -0.266
110.2541 0.448
110.2844 0.485
110.3146 -0.102
110.3449 0.145
110.3752 0.289
110.4055 0.174
110.4358 0.215
110.4660 -0.160
110.4963 -0.013
110.5266 0.083
110.5569 -0.081
110.5871 0.120
110.6174 -0.042
110.6477 -0.048
110.6780 0.052
110.7083 -0.108
110.7385 0.357
110.7688 0.199
110.7991 0.197
110.8294 -0.116
110.8597 -0.064
110.8899 0.041
110.9202 -0.010
110.9505 -0.372
110.9808 0.412
111.0110 -0.209
111.0413 0.629
111.0716 -0.095
111.1019 -0.141
111.1322 -0.134
111.1624 0.082
111.1927 0.507
111.2230 -0.161
111.2533 -0.151
111.2836 -0.244
111.3138 0.020
111.3441 0.130
111.3744 0.240
111.4047 0.038
111.4350 0.201
111.4652 -0.103
111.4955 -0.198
111.5258 -0.084
111.5561 -0.126
111.5863 0.094
111.6166 -0.311
111.6469 -0.048
111.6772 0.111
111.7075 0.532
111.7377 -0.401
111.7680 -0.031
111.7983 0.079
111.8286 -0.122
111.8589 0.302
111.8891 0.050
111.9194 -0.044
111.9497 0.174
111.9800 -0.024
112.0102 -0.012
112.0405 0.261
112.0708 -0.038
112.1011 -0.493
112.1314 0.068
112.1616 0.006
112.1919 -0.004
112.2222 -0.169
112.2525 0.031
112.2828 0.440
112.3130 0.381
112.3433 0.323
112.3736 0.162
112.4039 0.105
112.4341 -0.055
112.4644 0.047
112.4947 -0.112
112.5250 0.199
112.5553 -0.166
112.5855 -0.218
112.6158 0.096
112.6461 -0.006
112.6764 0.048
112.7067 0.156
112.7369 0.056
112.7672 0.217
112.7975 0.274
112.8278 0.072
112.8580 -0.441
112.8883 -0.031
112.9186 0.067
112.9489 0.740
112.9792 -0.254
113.0094 0.211
113.0397 0.104
113.0700 -0.106
113.1003 0.362
113.1306 0.362
113.1608 0.206
113.1911 0.207
113.2214 0.678
113.2517 -0.101
113.2819 -0.045
113.3122 0.064
113.3425 1.214
113.3728 0.127
113.4031 -0.023
113.4333 0.297
113.4636 -0.060
113.4939 -0.363
113.5242 0.096
113.5545 0.607
113.5847 0.390
113.6150 0.122
113.6453 0.220
113.6756 -0.412
113.7058 0.260
113.7361 0.308
113.7664 0.147
113.7967 0.144
113.8270 0.194
113.8572 0.349
113.8875 -0.121
113.9178 0.088
113.9481 -0.172
113.9784 0.142
114.0086 -0.324
114.0389 0.512
114.0692 -0.161
114.0995 0.104
114.1298 0.161
114.1600 0.376
114.1903 0.018
114.2206 0.443
114.2509 -0.226
114.2811 -0.113
114.3114 -0.623
114.3417 0.143
114.3720 -0.079
114.4023 0.481
114.4325 0.365
114.4628 -0.115
114.4931 -0.074
114.5234 0.385
114.5537 0.116
114.5839 0.316
114.6142 -0.004
114.6445 -0.011
114.6748 -0.330
114.7050 0.082
114.7353 -0.027
114.7656 -0.239
114.7959 -0.086
114.8262 -0.037
114.8564 0.378
114.8867 0.221
114.9170 -0.144
114.9473 0.169
114.9776 0.482
115.0078 -0.193
115.0381 -0.190
115.0684 -0.239
115.0987 -0.093
115.1289 0.522
115.1592 0.305
115.1895 0.297
115.2198 -0.232
115.2501 -0.030
115.2803 -0.244
115.3106 -0.200
115.3409 -0.311
115.3712 0.256
115.4015 0.354
115.4317 0.349
115.4620 0.450
115.4923 -0.179
115.5226 -0.389
115.5528 0.231
115.5831 -0.190
115.6134 -0.245
115.6437 -0.248
115.6740 -0.093
115.7042 0.271
115.7345 -0.094
115.7648 -0.250
115.7951 -0.093
115.8254 -0.144
115.8556 -0.298
115.8859 0.330
115.9162 -0.291
115.9465 0.286
115.9767 0.604
116.0070 0.245
116.0373 -0.478
116.0676 -0.053
116.0979 0.007
116.1281 -0.088
116.1584 0.390
116.1887 -0.380
116.2190 0.204
116.2493 0.060
116.2795 -0.240
116.3098 0.242
116.3401 -0.472
116.3704 -0.145
116.4006 -0.233
116.4309 0.169
116.4612 -0.157
116.4915 0.404
116.5218 -0.077
116.5520 0.120
116.5823 0.005
116.6126 0.100
116.6429 -0.118
116.6732 0.656
116.7034 0.232
116.7337 -0.140
116.7640 0.323
116.7943 0.162
116.8245 -0.415
116.8548 -0.111
116.8851 0.141
116.9154 0.186
116.9457 0.544
116.9759 0.226
117.0062 0.534
117.0365 0.373
117.0668 0.058
117.0971 0.211
117.1273 0.262
117.1576 0.104
117.1879 0.052
117.2182 0.053
117.2485 -0.050
117.2787 -0.152
117.3090 -0.045
117.3393 -0.250
117.3696 -0.199
117.3998 0.374
117.4301 -0.094
117.4604 0.064
117.4907 0.014
117.5210 0.173
117.5512 -0.188
117.5815 0.754
117.6118 0.082
117.6421 -0.068
117.6724 0.356
117.7026 0.363
117.7329 -0.149
117.7632 -0.244
117.7935 -0.413
117.8237 0.305
117.8540 0.242
117.8843 -0.184
117.9146 -0.141
117.9449 0.840
117.9751 -0.157
118.0054 -0.059
118.0357 -0.013
118.0660 0.242
118.0963 -0.127
118.1265 0.026
118.1568 0.283
118.1871 -0.240
118.2174 -0.137
118.2476 0.227
118.2779 0.175
118.3082 -0.449
118.3385 0.230
118.3688 -0.080
118.3990 -0.389
118.4293 0.136
118.4596 0.192
118.4899 0.198
118.5202 0.465
118.5504 0.159
118.5807 -0.145
118.6110 -0.137
118.6413 0.133
118.6715 -0.430
118.7018 0.571
118.7321 -0.199
118.7624 0.126
118.7927 0.296
118.8229 0.362
118.8532 0.116
118.8835 -0.285
118.9138 -0.081
118.9441 0.019
118.9743 0.329
119.0046 -0.142
119.0349 0.065
119.0652 0.482
119.0954 -0.039
119.1257 0.014
119.1560 0.433
119.1863 -0.190
119.2166 -0.239
119.2468 0.220
119.2771 0.106
119.3074 0.513
119.3377 0.037
119.3680 -0.075
119.3982 0.179
119.4285 -0.140
119.4588 0.012
119.4891 0.112
119.5193 -0.048
119.5496 -0.051
119.5799 0.207
119.6102 -0.054
119.6405 0.258
119.6707 -0.054
119.7010 0.259
119.7313 0.365
119.7616 -0.413
119.7919 0.371
119.8221 -0.093
119.8524 0.172
119.8827 -0.031
119.9130 0.236
119.9433 -0.225
119.9735 0.772
120.0038 0.000
