'Id: "" Comment: "" Operator: "Lab Manager" Anode: "Cu" Scantype: "Locked Coupled" TimePerStep: "19.2" X: "9999" Y: "9999" Z: "9999" 
10.0015 0.000
10.0318 3.842
10.0620 4.767
10.0923 11.630
10.1226 21.618
10.1529 18.273
10.1832 19.563
10.2134 23.927
10.2437 28.603
10.2740 40.883
10.3043 41.757
10.3346 41.485
10.3648 42.255
10.3951 48.859
10.4254 45.410
10.4557 49.254
10.4859 43.930
10.5162 49.336
10.5465 48.232
10.5768 49.159
10.6071 44.044
10.6373 42.315
10.6676 36.003
10.6979 38.597
10.7282 36.555
10.7585 34.306
10.7887 29.765
10.8190 29.807
10.8493 26.151
10.8796 22.236
10.9098 17.278
10.9401 15.863
10.9704 12.572
11.0007 13.396
11.0310 12.189
11.0612 6.451
11.0915 7.796
11.1218 2.996
11.1521 1.216
11.1824 -1.241
11.2126 0.522
11.2429 0.669
11.2732 -0.537
11.3035 -1.743
11.3337 -1.275
11.3640 -2.474
11.3943 1.152
11.4246 0.195
11.4549 2.624
11.4851 -1.823
11.5154 -2.592
11.5457 2.317
11.5760 -1.733
11.6063 -1.512
11.6365 -0.267
11.6668 -0.272
11.6971 -0.381
11.7274 -1.063
11.7577 -1.901
11.7879 1.003
11.8182 -1.718
11.8485 -1.224
11.8788 0.677
11.9090 -3.099
11.9393 -0.744
11.9696 -0.368
11.9999 0.737
12.0302 -1.699
12.0604 2.010
12.0907 1.970
12.1210 -0.102
12.1513 -0.350
12.1816 -1.953
12.2118 -0.046
12.2421 -0.484
12.2724 -0.869
12.3027 -0.472
12.3329 -0.128
12.3632 -0.565
12.3935 0.561
12.4238 0.124
12.4541 -1.718
12.4843 -0.123
12.5146 0.171
12.5449 -1.566
12.5752 -0.022
12.6055 1.158
12.6357 -0.058
12.6660 -0.962
12.6963 -0.511
12.7266 0.044
12.7568 -1.380
12.7871 -0.095
12.8174 -0.633
12.8477 1.225
12.8780 0.948
12.9082 -0.111
12.9385 -0.908
12.9688 -0.977
12.9991 -0.427
13.0294 1.113
13.0596 -0.628
13.0899 -0.963
13.1202 -1.014
13.1505 1.280
13.1807 2.271
13.2110 0.814
13.2413 0.816
13.2716 -0.379
13.3019 -0.325
13.3321 -0.271
13.3624 0.721
13.3927 1.192
13.4230 -1.722
13.4533 1.614
13.4835 1.408
13.5138 0.213
13.5441 -0.878
13.5744 0.948
13.6046 0.430
13.6349 0.954
13.6652 0.593
13.6955 0.648
13.7258 -0.025
13.7560 0.447
13.7863 1.232
13.8166 -0.639
13.8469 1.344
13.8772 0.879
13.9074 1.560
13.9377 1.668
13.9680 0.527
13.9983 -0.719
14.0285 1.837
14.0588 0.123
14.0891 -0.914
14.1194 -0.446
14.1497 -0.811
14.1799 1.168
14.2102 -0.500
14.2405 -1.021
14.2708 1.219
14.3011 1.375
14.3313 0.385
14.3616 0.177
14.3919 1.635
14.4222 1.427
14.4524 2.417
14.4827 -0.082
14.5130 -0.446
14.5433 -0.185
14.5736 0.753
14.6038 -0.184
14.6341 1.796
14.6644 1.850
14.6947 2.163
14.7250 1.644
14.7552 2.009
14.7855 1.698
14.8158 2.898
14.8461 0.399
14.8764 2.120
14.9066 2.382
14.9369 1.915
14.9672 2.802
14.9975 2.909
15.0277 3.275
15.0580 2.861
15.0883 5.467
15.1186 2.657
15.1489 3.076
15.1791 2.819
15.2094 4.853
15.2397 6.053
15.2700 4.077
15.3003 1.788
15.3305 4.448
15.3608 5.076
15.3911 4.506
15.4214 4.145
15.4516 4.461
15.4819 4.204
15.5122 5.301
15.5425 2.805
15.5728 5.413
15.6030 4.740
15.6333 4.119
15.6636 3.759
15.6939 4.596
15.7242 4.861
15.7544 4.969
15.7847 4.245
15.8150 4.197
15.8453 7.327
15.8755 3.529
15.9058 4.628
15.9361 4.216
15.9664 4.482
15.9967 4.695
16.0269 4.440
16.0572 4.029
16.0875 3.461
16.1178 5.238
16.1481 2.743
16.1783 2.853
16.2086 4.161
16.2389 3.021
16.2692 2.350
16.2994 1.992
16.3297 2.727
16.3600 2.160
16.3903 2.323
16.4206 1.079
16.4508 2.127
16.4811 2.030
16.5114 3.130
16.5417 1.210
16.5720 0.696
16.6022 0.912
16.6325 -0.540
16.6628 2.436
16.6931 2.079
16.7233 1.045
16.7536 0.479
16.7839 1.164
16.8142 -0.078
16.8445 0.346
16.8747 0.094
16.9050 0.935
16.9353 1.151
16.9656 0.430
16.9959 0.282
17.0261 0.134
17.0564 1.028
17.0867 0.985
17.1170 1.097
17.1472 0.533
17.1775 0.646
17.2078 0.447
17.2381 0.404
17.2684 0.517
17.2986 1.047
17.3289 0.535
17.3592 0.597
17.3895 2.325
17.4198 0.199
17.4500 -0.729
17.4803 -0.175
17.5106 -0.454
17.5409 1.506
17.5712 0.966
17.6014 1.624
17.6317 0.877
17.6620 -0.132
17.6923 1.100
17.7225 0.040
17.7528 2.313
17.7831 0.993
17.8134 0.090
17.8437 -0.710
17.8739 1.043
17.9042 1.702
17.9345 1.945
17.9648 0.834
17.9951 1.129
18.0253 1.945
18.0556 1.979
18.0859 2.535
18.1162 3.143
18.1464 0.886
18.1767 2.536
18.2070 1.894
18.2373 2.138
18.2676 2.902
18.2978 2.729
18.3281 3.390
18.3584 3.738
18.3887 4.243
18.4190 2.195
18.4492 4.158
18.4795 4.298
18.5098 4.387
18.5401 4.319
18.5703 4.615
18.6006 3.037
18.6309 6.042
18.6612 3.267
18.6915 4.605
18.7217 4.330
18.7520 5.356
18.7823 6.018
18.8126 4.441
18.8429 3.905
18.8731 3.161
18.9034 2.729
18.9337 4.850
18.9640 4.575
18.9942 4.821
19.0245 3.036
19.0548 3.230
19.0851 3.112
19.1154 4.816
19.1456 3.813
19.1759 4.632
19.2062 2.587
19.2365 2.782
19.2668 2.456
19.2970 1.453
19.3273 3.575
19.3576 2.311
19.3879 2.246
19.4181 2.493
19.4484 1.543
19.4787 1.634
19.5090 1.778
19.5393 1.765
19.5695 2.585
19.5998 1.635
19.6301 1.779
19.6604 1.923
19.6907 0.088
19.7209 1.117
19.7512 0.689
19.7815 0.468
19.8118 0.508
19.8420 -0.180
19.8723 1.058
19.9026 1.619
19.9329 -0.007
19.9632 0.450
19.9934 -0.030
20.0237 2.303
20.0540 0.521
20.0843 0.405
20.1146 0.394
20.1448 0.123
20.1751 0.425
20.2054 0.102
20.2357 0.039
20.2659 0.914
20.2962 -0.294
20.3265 0.372
20.3568 0.102
20.3871 0.300
20.4173 0.134
20.4476 0.801
20.4779 0.218
20.5082 -0.573
20.5385 -0.324
20.5687 -0.387
20.5990 -0.555
20.6293 -0.566
20.6596 0.551
20.6899 -0.050
20.7201 0.234
20.7504 0.674
20.7807 1.323
20.8110 0.982
20.8412 -0.036
20.8715 -0.168
20.9018 -0.561
20.9321 0.453
20.9624 0.164
20.9926 -0.697
21.0229 0.890
21.0532 0.498
21.0835 0.106
21.1138 1.068
21.1440 1.093
21.1743 1.170
21.2046 0.362
21.2349 1.376
21.2651 0.724
21.2954 -0.396
21.3257 -0.006
21.3560 0.957
21.3863 0.149
21.4165 0.539
21.4468 0.669
21.4771 0.278
21.5074 0.304
21.5377 0.330
21.5679 0.773
21.5982 0.799
21.6285 0.409
21.6588 -0.033
21.6890 0.566
21.7193 0.488
21.7496 0.151
21.7799 0.542
21.8102 -0.317
21.8404 -0.133
21.8707 0.831
21.9010 0.285
21.9313 -0.104
21.9616 -0.389
21.9918 0.315
22.0221 -0.959
22.0524 0.110
22.0827 1.388
22.1129 0.426
22.1432 0.923
22.1735 0.013
22.2038 0.249
22.2341 0.955
22.2643 0.775
22.2946 -0.447
22.3249 -0.106
22.3552 -1.067
22.3855 0.158
22.4157 0.862
22.4460 0.263
22.4763 1.072
22.5066 -0.307
22.5368 -0.489
22.5671 -0.397
22.5974 1.102
22.6277 0.725
22.6580 0.401
22.6882 1.223
22.7185 1.680
22.7488 0.314
22.7791 0.355
22.8094 0.604
22.8396 2.415
22.8699 2.717
22.9002 2.653
22.9305 1.913
22.9607 0.600
22.9910 1.735
23.0213 0.683
23.0516 0.933
23.0819 1.547
23.1121 1.433
23.1424 2.099
23.1727 1.672
23.2030 0.933
23.2333 1.496
23.2635 2.476
23.2938 0.955
23.3241 0.477
23.3544 1.457
23.3846 2.905
23.4149 1.750
23.4452 2.366
23.4755 1.888
23.5058 2.347
23.5360 2.338
23.5663 2.641
23.5966 1.851
23.6269 2.051
23.6572 2.563
23.6874 2.606
23.7177 2.389
23.7480 3.423
23.7783 2.477
23.8086 2.469
23.8388 1.783
23.8691 1.931
23.8994 2.392
23.9297 2.541
23.9599 3.835
23.9902 3.931
24.0205 2.882
24.0508 2.614
24.0811 3.075
24.1113 3.120
24.1416 3.425
24.1719 4.043
24.2022 2.682
24.2325 3.665
24.2627 2.720
24.2930 4.016
24.3233 5.571
24.3536 3.586
24.3838 3.319
24.4141 2.635
24.4444 4.452
24.4747 3.821
24.5050 4.075
24.5352 2.402
24.5655 3.178
24.5958 3.953
24.6261 3.531
24.6564 3.629
24.6866 4.040
24.7169 4.139
24.7472 4.186
24.7775 3.607
24.8077 5.009
24.8380 4.483
24.8683 5.311
24.8986 3.900
24.9289 5.510
24.9591 5.661
24.9894 5.761
25.0197 6.537
25.0500 5.856
25.0803 6.164
25.1105 5.170
25.1408 4.802
25.1711 6.152
25.2014 5.314
25.2316 6.508
25.2619 5.098
25.2922 6.136
25.3225 6.654
25.3528 6.702
25.3830 5.657
25.4133 5.237
25.4436 6.172
25.4739 5.856
25.5042 6.322
25.5344 6.631
25.5647 7.253
25.5950 7.094
25.6253 6.727
25.6555 8.548
25.6858 7.295
25.7161 7.136
25.7464 6.665
25.7767 7.392
25.8069 7.755
25.8372 7.128
25.8675 8.012
25.8978 7.906
25.9281 7.435
25.9583 8.371
25.9886 8.786
26.0189 8.368
26.0492 8.992
26.0794 8.209
26.1097 7.427
26.1400 8.363
26.1703 7.685
26.2006 8.934
26.2308 9.194
26.2611 7.683
26.2914 9.557
26.3217 11.015
26.3520 9.765
26.3822 8.410
26.4125 10.077
26.4428 8.202
26.4731 10.441
26.5034 9.556
26.5336 8.098
26.5639 10.077
26.5942 9.401
26.6245 9.193
26.6547 10.495
26.6850 10.131
26.7153 9.924
26.7456 10.654
26.7759 9.717
26.8061 11.281
26.8364 9.876
26.8667 13.835
26.8970 10.607
26.9273 11.859
26.9575 10.402
26.9878 11.549
27.0181 11.863
27.0484 13.584
27.0786 10.513
27.1089 11.140
27.1392 11.402
27.1695 12.186
27.1998 11.823
27.2300 10.784
27.2603 11.411
27.2906 10.841
27.3209 11.885
27.3512 13.398
27.3814 12.776
27.4117 13.508
27.4420 12.105
27.4723 12.837
27.5025 11.070
27.5328 12.271
27.5631 12.691
27.5934 11.496
27.6237 13.687
27.6539 10.983
27.6842 10.830
27.7145 11.772
27.7448 13.494
27.7751 12.665
27.8053 11.888
27.8356 11.788
27.8659 13.094
27.8962 11.067
27.9264 11.020
27.9567 11.910
27.9870 10.769
28.0173 11.711
28.0476 10.882
28.0778 10.002
28.1081 11.778
28.1384 11.731
28.1687 10.486
28.1990 11.117
28.2292 9.559
28.2595 11.023
28.2898 9.206
28.3201 9.889
28.3503 10.728
28.3806 9.380
28.4109 7.302
28.4412 7.986
28.4715 10.388
28.5017 9.456
28.5320 8.838
28.5623 6.813
28.5926 9.163
28.6229 8.076
28.6531 6.625
28.6834 8.402
28.7137 7.680
28.7440 6.437
28.7742 8.059
28.8045 7.180
28.8348 6.615
28.8651 6.049
28.8954 5.484
28.9256 3.617
28.9559 6.541
28.9862 4.517
29.0165 4.473
29.0468 4.533
29.0770 3.135
29.1073 3.456
29.1376 4.870
29.1679 5.504
29.1981 3.637
29.2284 3.125
29.2587 4.956
29.2890 3.246
29.3193 4.817
29.3495 4.774
29.3798 2.283
29.4101 3.699
29.4404 2.822
29.4707 2.832
29.5009 4.143
29.5312 2.642
29.5615 2.808
29.5918 2.453
29.6221 2.567
29.6523 3.046
29.6826 1.701
29.7129 2.232
29.7432 1.774
29.7734 1.575
29.8037 2.211
29.8340 2.482
29.8643 1.242
29.8946 1.253
29.9248 3.138
29.9551 0.805
29.9854 0.764
30.0157 0.879
30.0460 1.932
30.0762 1.631
30.1065 1.382
30.1368 1.497
30.1671 1.196
30.1973 -0.042
30.2276 1.011
30.2579 1.752
30.2882 1.659
30.3185 1.515
30.3487 1.423
30.3790 0.758
30.4093 1.239
30.4396 0.418
30.4699 0.795
30.5001 0.286
30.5304 1.757
30.5607 0.207
30.5910 0.689
30.6212 0.129
30.6515 1.079
30.6818 1.353
30.7121 0.741
30.7424 0.181
30.7726 -0.066
30.8029 0.781
30.8332 0.586
30.8635 0.495
30.8938 0.613
30.9240 0.158
30.9543 0.381
30.9846 -0.335
31.0149 -0.425
31.0451 1.152
31.0754 0.749
31.1057 1.805
31.1360 0.518
31.1663 1.470
31.1965 1.276
31.2268 0.301
31.2571 -0.517
31.2874 1.112
31.3177 0.086
31.3479 0.517
31.3782 0.689
31.4085 0.392
31.4388 0.042
31.4690 -0.463
31.4993 -0.456
31.5296 0.696
31.5599 0.807
31.5902 0.710
31.6204 0.405
31.6507 -0.057
31.6810 0.836
31.7113 1.676
31.7416 1.059
31.7718 0.962
31.8021 0.917
31.8324 0.300
31.8627 1.141
31.8929 0.524
31.9232 -0.562
31.9535 0.227
31.9838 0.704
32.0141 0.608
32.0443 0.148
32.0746 -0.312
32.1049 1.623
32.1352 1.163
32.1655 0.391
32.1957 0.608
32.2260 0.929
32.2563 0.886
32.2866 0.374
32.3169 0.383
32.3471 -0.024
32.3774 0.663
32.4077 0.359
32.4380 0.786
32.4682 0.795
32.4985 1.326
32.5288 0.346
32.5591 -0.008
32.5894 1.356
32.6196 1.991
32.6499 2.574
32.6802 1.699
32.7105 1.865
32.7408 1.720
32.7710 1.001
32.8013 2.210
32.8316 1.023
32.8619 0.669
32.8921 1.357
32.9224 0.430
32.9527 0.702
32.9830 1.026
33.0133 0.152
33.0435 0.996
33.0738 0.695
33.1041 1.072
33.1344 0.302
33.1647 0.262
33.1949 0.170
33.2252 -0.496
33.2555 1.131
33.2858 1.352
33.3160 0.687
33.3463 0.855
33.3766 -0.174
33.4069 -0.161
33.4372 0.372
33.4674 0.750
33.4977 0.398
33.5280 0.255
33.5583 0.268
33.5886 0.177
33.6188 0.554
33.6491 -0.005
33.6794 -0.304
33.7097 0.647
33.7399 0.087
33.7702 -0.420
33.8005 -0.420
33.8308 -0.579
33.8611 1.292
33.8913 0.612
33.9216 -0.120
33.9519 0.450
33.9822 -0.178
34.0125 0.757
34.0427 0.129
34.0730 1.012
34.1033 -0.136
34.1336 0.539
34.1638 0.068
34.1941 0.274
34.2244 1.209
34.2547 -0.043
34.2850 0.007
34.3152 -0.411
34.3455 -0.309
34.3758 0.575
34.4061 0.313
34.4364 0.416
34.4666 -0.002
34.4969 -0.055
34.5272 0.621
34.5575 -0.057
34.5877 1.035
34.6180 0.930
34.6483 0.878
34.6786 0.825
34.7089 0.668
34.7391 0.355
34.7694 0.719
34.7997 0.198
34.8300 0.875
34.8603 0.666
34.8905 0.510
34.9208 -0.323
34.9511 -0.531
34.9814 0.459
35.0116 0.511
35.0419 0.303
35.0722 -0.477
35.1025 0.617
35.1328 -0.320
35.1630 -0.423
35.1933 0.046
35.2236 0.672
35.2539 0.361
35.2842 -0.055
35.3144 0.571
35.3447 0.677
35.3750 0.522
35.4053 0.003
35.4356 0.577
35.4658 0.631
35.4961 1.206
35.5264 0.635
35.5567 -0.041
35.5869 1.107
35.6172 1.318
35.6475 0.591
35.6778 1.478
35.7081 0.439
35.7383 1.223
35.7686 1.069
35.7989 2.374
35.8292 1.283
35.8595 0.869
35.8897 1.133
35.9200 1.500
35.9503 1.451
35.9806 0.934
36.0108 0.885
36.0411 0.941
36.0714 0.163
36.1017 0.479
36.1320 0.327
36.1622 0.122
36.1925 0.230
36.2228 1.380
36.2531 0.915
36.2834 0.347
36.3136 0.351
36.3439 -0.374
36.3742 0.672
36.4045 0.573
36.4347 0.994
36.4650 0.374
36.4953 1.004
36.5256 0.279
36.5559 1.378
36.5861 0.706
36.6164 0.503
36.6467 -0.325
36.6770 0.514
36.7073 0.571
36.7375 0.212
36.7678 0.895
36.7981 0.797
36.8284 0.230
36.8586 0.496
36.8889 0.659
36.9192 0.821
36.9495 0.515
36.9798 -0.260
37.0100 0.736
37.0403 0.742
37.0706 0.332
37.1009 0.287
37.1312 0.398
37.1614 0.040
37.1917 1.193
37.2220 0.054
37.2523 -0.511
37.2825 0.329
37.3128 0.597
37.3431 1.178
37.3734 0.508
37.4037 0.672
37.4339 0.732
37.4642 0.219
37.4945 0.227
37.5248 1.329
37.5551 0.503
37.5853 -0.270
37.6156 0.676
37.6459 0.633
37.6762 0.172
37.7064 0.441
37.7367 0.346
37.7670 1.084
37.7973 0.416
37.8276 0.529
37.8578 0.173
37.8881 0.807
37.9184 -0.017
37.9487 0.722
37.9790 -0.571
38.0092 0.949
38.0395 1.271
38.0698 0.500
38.1001 0.666
38.1304 0.676
38.1606 0.373
38.1909 0.904
38.2212 0.342
38.2515 -0.013
38.2817 -0.471
38.3120 0.998
38.3423 1.008
38.3726 0.602
38.4029 0.196
38.4331 -0.262
38.4634 0.114
38.4937 -0.135
38.5240 0.084
38.5543 0.825
38.5845 -0.310
38.6148 0.379
38.6451 0.025
38.6754 0.297
38.7056 -0.368
38.7359 0.008
38.7662 0.177
38.7965 -0.228
38.8268 0.722
38.8570 0.057
38.8873 -0.139
38.9176 -0.335
38.9479 0.562
38.9782 0.158
39.0084 1.004
39.0387 0.548
39.0690 0.249
39.0993 0.314
39.1295 0.483
39.1598 -0.129
39.1901 -0.168
39.2204 -0.259
39.2507 0.171
39.2809 -0.024
39.3112 0.094
39.3415 -0.361
39.3718 -0.559
39.4021 0.494
39.4323 -0.381
39.4626 1.348
39.4929 -0.099
39.5232 -0.036
39.5534 -0.390
39.5837 0.083
39.6140 -0.277
39.6443 0.196
39.6746 0.929
39.7048 -0.004
39.7351 0.365
39.7654 0.058
39.7957 0.062
39.8260 -0.193
39.8562 1.218
39.8865 0.910
39.9168 -0.126
39.9471 0.504
39.9773 -0.064
40.0076 -0.006
40.0379 0.104
40.0682 -0.047
40.0985 1.157
40.1287 0.329
40.1590 -0.134
40.1893 0.133
40.2196 0.972
40.2499 0.926
40.2801 0.359
40.3104 -0.364
40.3407 0.007
40.3710 -0.090
40.4012 -0.448
40.4315 0.496
40.4618 0.399
40.4921 -0.011
40.5224 0.308
40.5526 0.784
40.5829 0.479
40.6132 0.695
40.6435 -0.236
40.6738 -0.280
40.7040 -0.012
40.7343 -0.005
40.7646 -0.049
40.7949 0.271
40.8251 -0.085
40.8554 -0.338
40.8857 -0.026
40.9160 0.547
40.9463 0.599
40.9765 0.234
41.0068 -0.079
41.0371 0.702
41.0674 0.338
41.0977 0.390
41.1279 0.077
41.1582 0.651
41.1885 0.495
41.2188 0.339
41.2491 0.287
41.2793 -0.285
41.3096 0.757
41.3399 0.602
41.3702 0.030
41.4004 0.031
41.4307 0.553
41.4610 -0.279
41.4913 0.451
41.5216 0.297
41.5518 1.236
41.5821 0.091
41.6124 0.093
41.6427 1.032
41.6730 0.357
41.7032 0.567
41.7335 -0.108
41.7638 0.467
41.7941 0.522
41.8243 0.472
41.8546 0.474
41.8849 0.269
41.9152 0.271
41.9455 -0.195
41.9757 0.589
42.0060 -0.241
42.0363 0.491
42.0666 0.598
42.0969 -0.128
42.1271 0.709
42.1574 -0.329
42.1877 0.247
42.2180 0.303
42.2482 0.410
42.2785 0.102
42.3088 0.678
42.3391 0.214
42.3694 0.061
42.3996 0.013
42.4299 0.122
42.4602 0.387
42.4905 0.756
42.5208 0.708
42.5510 0.088
42.5813 0.509
42.6116 -0.059
42.6419 0.206
42.6721 0.055
42.7024 0.424
42.7327 0.013
42.7630 0.331
42.7933 1.013
42.8235 -0.127
42.8538 0.087
42.8841 -0.064
42.9144 0.358
42.9447 0.364
42.9749 0.370
43.0052 0.220
43.0355 0.174
43.0658 0.336
43.0960 0.707
43.1263 -0.068
43.1566 0.720
43.1869 0.414
43.2172 0.108
43.2474 0.011
43.2777 0.070
43.3080 -0.236
43.3383 -0.021
43.3686 0.403
43.3988 -0.058
43.4291 -0.520
43.4594 0.105
43.4897 0.625
43.5199 0.051
43.5502 0.051
43.5805 0.259
43.6108 0.155
43.6411 0.259
43.6713 -0.731
43.7016 0.519
43.7319 -0.002
43.7622 0.155
43.7925 0.572
43.8227 0.208
43.8530 -0.260
43.8833 0.157
43.9136 0.210
43.9439 -0.414
43.9741 0.524
44.0044 -0.256
44.0347 0.005
44.0650 0.059
44.0952 0.008
44.1255 0.113
44.1558 0.063
44.1861 0.533
44.2164 0.899
44.2466 0.901
44.2769 0.382
44.3072 0.176
44.3375 -0.031
44.3678 -0.029
44.3980 0.078
44.4283 0.184
44.4586 -0.282
44.4889 0.241
44.5191 0.140
44.5494 0.142
44.5797 0.093
44.6100 -0.321
44.6403 0.359
44.6705 -0.054
44.7008 -0.572
44.7311 0.105
44.7614 0.312
44.7917 0.520
44.8219 0.676
44.8522 0.676
44.8825 0.415
44.9128 0.103
44.9430 -0.054
44.9733 -0.106
45.0036 -0.106
45.0339 -0.053
45.0642 0.103
45.0944 -0.052
45.1247 0.625
45.1550 0.678
45.1853 -0.467
45.2156 -0.258
45.2458 0.056
45.2761 0.421
45.3064 0.214
45.3367 0.267
45.3669 0.581
45.3972 0.218
45.4275 0.584
45.4578 1.627
45.4881 0.275
45.5183 0.381
45.5486 -0.034
45.5789 0.541
45.6092 0.491
45.6395 0.389
45.6697 0.547
45.7000 0.445
45.7303 -0.125
45.7606 0.502
45.7908 0.297
45.8211 0.664
45.8514 0.146
45.8817 1.086
45.9120 0.048
45.9422 0.051
45.9725 0.210
46.0028 -0.307
46.0331 0.477
46.0634 -0.092
46.0936 0.484
46.1239 0.228
46.1542 0.179
46.1845 1.121
46.2147 0.812
46.2450 0.608
46.2753 1.185
46.3056 0.512
46.3359 0.464
46.3661 0.781
46.3964 0.108
46.4267 -0.304
46.4570 -0.216
46.4873 0.132
46.5175 0.532
46.5478 -0.162
46.5781 -0.074
46.6084 0.118
46.6386 0.050
46.6689 0.606
46.6992 0.330
46.7295 0.887
46.7598 0.402
46.7900 0.022
46.8203 0.215
46.8506 0.355
46.8809 0.965
46.9112 0.064
46.9414 -0.107
46.9717 0.190
47.0020 -0.502
47.0323 0.108
47.0626 -0.063
47.0928 0.339
47.1231 0.272
47.1534 0.570
47.1837 0.139
47.2139 0.645
47.2442 0.266
47.2745 0.460
47.3048 0.394
47.3351 -0.193
47.3653 0.158
47.3956 0.456
47.4259 0.234
47.4562 0.377
47.4865 -0.210
47.5167 0.402
47.5470 0.336
47.5773 -0.042
47.6076 -0.211
47.6378 0.505
47.6681 1.325
47.6984 0.479
47.7287 0.414
47.7590 -0.067
47.7892 0.285
47.8195 0.116
47.8498 0.207
47.8801 0.508
47.9104 -0.078
47.9406 0.639
47.9709 0.575
48.0012 0.147
48.0315 0.968
48.0617 1.269
48.0920 0.476
48.1223 0.620
48.1526 0.505
48.1829 -0.236
48.2131 0.065
48.2434 0.315
48.2737 0.824
48.3040 0.501
48.3343 1.167
48.3645 0.271
48.3948 0.781
48.4251 0.509
48.4554 -0.074
48.4856 0.020
48.5159 0.478
48.5462 0.884
48.5765 0.770
48.6068 1.125
48.6370 0.854
48.6673 0.115
48.6976 0.105
48.7279 1.866
48.7582 0.607
48.7884 1.014
48.8187 0.483
48.8490 0.682
48.8793 0.986
48.9095 1.081
48.9398 0.811
48.9701 0.386
49.0004 1.470
49.0307 0.837
49.0609 0.776
49.0912 1.392
49.1215 1.488
49.1518 0.177
49.1821 0.846
49.2123 0.786
49.2426 0.778
49.2729 0.145
49.3032 1.439
49.3334 0.754
49.3637 0.538
49.3940 1.259
49.4243 1.929
49.4546 0.984
49.4848 0.924
49.5151 0.813
49.5454 1.014
49.5757 1.059
49.6060 1.208
49.6362 0.420
49.6665 0.778
49.6968 1.292
49.7271 1.077
49.7574 0.550
49.7876 1.429
49.8179 0.328
49.8482 0.687
49.8785 1.774
49.9087 0.518
49.9390 1.450
49.9693 0.819
49.9996 1.646
50.0299 1.120
50.0601 1.219
50.0904 1.578
50.1207 1.676
50.1510 2.036
50.1813 0.989
50.2115 1.088
50.2418 1.551
50.2721 1.703
50.3024 0.969
50.3326 1.641
50.3629 1.116
50.3932 1.424
50.4235 1.992
50.4538 1.311
50.4840 1.983
50.5143 1.927
50.5446 1.454
50.5749 1.242
50.6052 1.186
50.6354 1.130
50.6657 2.116
50.6960 1.643
50.7263 1.327
50.7565 2.001
50.7868 1.373
50.8171 1.057
50.8474 2.304
50.8777 1.363
50.9079 2.141
50.9382 1.305
50.9685 1.250
50.9988 1.716
51.0291 1.453
51.0593 2.180
51.0896 1.761
51.1199 1.394
51.1502 1.600
51.1804 1.077
51.2107 1.648
51.2410 2.323
51.2713 1.280
51.3016 1.486
51.3318 1.224
51.3621 2.056
51.3924 1.846
51.4227 0.439
51.4530 2.052
51.4832 1.738
51.5135 0.591
51.5438 1.528
51.5741 1.423
51.6043 1.057
51.6346 1.525
51.6649 1.264
51.6952 1.733
51.7255 1.836
51.7557 1.680
51.7860 1.784
51.8163 1.106
51.8466 0.950
51.8769 1.523
51.9071 1.211
51.9374 1.159
51.9677 1.263
51.9980 0.743
52.0282 0.275
52.0585 1.056
52.0888 0.276
52.1191 0.850
52.1494 1.527
52.1796 0.435
52.2099 1.321
52.2402 0.437
52.2705 0.699
52.3008 1.794
52.3310 0.701
52.3613 0.547
52.3916 0.913
52.4219 0.394
52.4521 -0.125
52.4824 0.918
52.5127 0.608
52.5430 0.610
52.5733 -0.273
52.6035 0.875
52.6338 0.252
52.6641 0.307
52.6944 1.091
52.7247 -0.157
52.7549 0.002
52.7852 0.682
52.8155 0.789
52.8458 0.740
52.8761 0.222
52.9063 1.997
52.9366 0.385
52.9669 1.326
52.9972 0.809
53.0274 0.083
53.0577 0.712
53.0880 0.820
53.1183 -0.166
53.1486 -0.058
53.1788 0.051
53.2091 0.419
53.2394 1.049
53.2697 -0.093
53.3000 1.109
53.3302 -0.136
53.3605 0.129
53.3908 -0.231
53.4211 -0.122
53.4513 -0.169
53.4816 0.253
53.5119 -0.107
53.5422 0.263
53.5725 0.268
53.6027 -0.143
53.6330 -0.658
53.6633 0.858
53.6936 0.290
53.7239 0.452
53.7541 1.187
53.7844 0.204
53.8147 0.262
53.8450 1.049
53.8752 0.691
53.9055 0.645
53.9358 -0.078
53.9661 0.554
53.9964 0.925
54.0266 0.151
54.0569 0.314
54.0872 0.164
54.1175 0.275
54.1478 -0.447
54.1780 0.498
54.2083 0.922
54.2386 0.565
54.2689 0.260
54.2991 1.673
54.3294 0.743
54.3597 -0.082
54.3900 0.290
54.4203 0.194
54.4505 0.150
54.4808 0.314
54.5111 0.166
54.5414 0.383
54.5717 -0.130
54.6019 0.191
54.6322 0.669
54.6625 -0.052
54.6928 0.686
54.7230 0.487
54.7533 -0.025
54.7836 0.661
54.8139 0.358
54.8442 0.158
54.8744 0.584
54.9047 0.750
54.9350 0.395
54.9653 -0.012
54.9956 0.050
55.0258 -0.097
55.0561 1.059
55.0864 1.225
55.1167 0.923
55.1469 0.829
55.1772 1.047
55.2075 0.693
55.2378 0.652
55.2681 0.089
55.2983 0.100
55.3286 0.579
55.3589 1.580
55.3892 -0.284
55.4195 0.716
55.4497 0.519
55.4800 -0.043
55.5103 0.750
55.5406 0.292
55.5709 0.408
55.6011 0.576
55.6314 0.744
55.6617 -0.286
55.6920 1.340
55.7222 0.363
55.7525 -0.459
55.7828 0.335
55.8131 -0.174
55.8434 -0.266
55.8736 0.320
55.9039 -0.241
55.9342 0.970
55.9645 0.514
55.9948 0.475
56.0250 -0.242
56.0553 0.188
56.0856 0.461
56.1159 -0.775
56.1461 -0.345
56.1764 0.601
56.2067 -0.953
56.2370 0.619
56.2673 -0.101
56.2975 0.429
56.3278 0.126
56.3581 0.709
56.3884 0.093
56.4187 0.936
56.4489 0.321
56.4792 0.331
56.5095 -0.128
56.5398 0.403
56.5700 -0.004
56.6003 0.423
56.6306 0.277
56.6609 -0.285
56.6912 -0.066
56.7214 -0.212
56.7517 0.476
56.7820 0.226
56.8123 0.394
56.8426 0.040
56.8728 -0.001
56.9031 0.323
56.9334 -0.083
56.9637 0.554
56.9939 0.721
57.0242 0.421
57.0545 -0.037
57.0848 1.381
57.1151 0.352
57.1453 0.676
57.1756 0.636
57.2059 0.127
57.2362 0.817
57.2665 0.673
57.2967 0.529
57.3270 0.541
57.3573 0.710
57.3876 -0.006
57.4178 0.267
57.4481 0.748
57.4784 -0.697
57.5087 0.045
57.5390 -0.098
57.5692 0.020
57.5995 0.346
57.6298 0.776
57.6601 0.112
57.6904 0.230
57.7206 0.400
57.7509 0.726
57.7812 0.376
57.8115 0.806
57.8417 0.247
57.8720 -0.363
57.9023 -0.215
57.9326 0.610
57.9629 0.810
57.9931 0.802
58.0234 0.742
58.0537 0.839
58.0840 0.883
58.1143 0.719
58.1445 0.035
58.1748 0.861
58.2051 0.489
58.2354 0.950
58.2656 1.047
58.2959 1.197
58.3262 0.148
58.3565 0.870
58.3868 0.551
58.4170 0.961
58.4473 1.528
58.4776 1.209
58.5079 0.421
58.5382 0.467
58.5684 0.773
58.5987 1.913
58.6290 1.230
58.6593 1.068
58.6896 1.062
58.7198 0.431
58.7501 0.999
58.7804 0.368
58.8107 0.519
58.8409 0.514
58.8712 0.248
58.9015 0.399
58.9318 1.071
58.9621 0.285
58.9923 0.749
59.0226 0.692
59.0529 0.323
59.0832 0.110
59.1135 0.522
59.1437 0.674
59.1740 0.149
59.2043 0.092
59.2346 0.453
59.2648 0.866
59.2951 0.185
59.3254 1.118
59.3557 0.854
59.3860 -0.035
59.4162 0.951
59.4465 0.896
59.4768 -0.045
59.5071 0.264
59.5374 0.834
59.5676 0.727
59.5979 0.151
59.6282 0.044
59.6585 0.822
59.6887 0.403
59.7190 0.088
59.7493 0.710
59.7796 0.604
59.8099 1.070
59.8401 0.234
59.8704 0.805
59.9007 0.387
59.9310 1.062
59.9613 0.331
59.9915 0.850
60.0218 -0.194
60.0521 0.378
60.0824 0.116
60.1126 0.687
60.1429 0.270
60.1732 -0.044
60.2035 0.059
60.2338 0.318
60.2640 0.682
60.2943 0.473
60.3246 0.472
60.3549 1.357
60.3852 0.992
60.4154 0.835
60.4457 0.679
60.4760 -0.051
60.5063 -0.624
60.5365 0.100
60.5668 0.252
60.5971 0.195
60.6274 0.502
60.6577 0.758
60.6879 -0.236
60.7182 0.124
60.7485 -0.401
60.7788 1.209
60.8091 0.059
60.8393 -0.309
60.8696 0.833
60.8999 0.516
60.9302 0.252
60.9604 -0.012
60.9907 -0.588
61.0210 0.241
61.0513 0.707
61.0816 0.443
61.1118 0.075
61.1421 1.010
61.1724 1.215
61.2027 0.222
61.2330 0.011
61.2632 -0.252
61.2935 0.475
61.3238 0.003
61.3541 0.626
61.3844 0.155
61.4146 0.257
61.4449 0.411
61.4752 0.565
61.5055 0.146
61.5357 1.030
61.5660 0.194
61.5963 0.245
61.6266 0.087
61.6569 -0.331
61.6871 0.501
61.7174 0.395
61.7477 -0.075
61.7780 0.393
61.8083 0.183
61.8385 0.339
61.8688 0.702
61.8991 0.181
61.9294 0.128
61.9596 0.232
61.9899 0.075
62.0202 0.335
62.0505 0.699
62.0808 0.959
62.1110 0.803
62.1413 0.230
62.1716 0.699
62.2019 0.074
62.2322 0.283
62.2624 0.700
62.2927 1.169
62.3230 0.440
62.3533 0.701
62.3835 0.442
62.4138 0.703
62.4441 1.172
62.4744 0.965
62.5047 0.393
62.5349 1.384
62.5652 1.281
62.5955 0.553
62.6258 0.451
62.6561 0.817
62.6863 0.662
62.7166 0.612
62.7469 1.239
62.7772 0.460
62.8074 0.930
62.8377 1.401
62.8680 0.674
62.8983 1.302
62.9286 0.939
62.9588 0.942
62.9891 0.580
63.0194 0.531
63.0497 0.013
63.0800 0.745
63.1102 1.373
63.1405 0.751
63.1708 -0.079
63.2011 1.174
63.2313 0.917
63.2616 0.399
63.2919 1.497
63.3222 0.719
63.3525 0.202
63.3827 0.727
63.4130 0.158
63.4433 1.099
63.4736 1.051
63.5039 0.378
63.5341 0.955
63.5644 0.283
63.5947 0.756
63.6250 0.396
63.6552 1.286
63.6855 0.249
63.7158 0.514
63.7461 0.728
63.7764 0.733
63.8066 0.842
63.8369 0.379
63.8672 1.582
63.8975 1.379
63.9278 1.228
63.9580 1.130
63.9883 1.448
64.0186 1.037
64.0489 0.105
64.0791 0.580
64.1094 1.211
64.1397 0.540
64.1700 0.338
64.2003 0.917
64.2305 0.663
64.2608 0.670
64.2911 0.677
64.3214 0.788
64.3517 0.534
64.3819 0.645
64.4122 0.652
64.4425 1.128
64.4728 0.771
64.5031 0.830
64.5333 0.316
64.5636 0.011
64.5939 0.279
64.6242 0.027
64.6544 0.607
64.6847 0.147
64.7150 0.467
64.7453 0.788
64.7756 0.848
64.8058 0.231
64.8361 0.083
64.8664 0.248
64.8967 0.933
64.9270 -0.204
64.9572 0.847
64.9875 0.282
65.0178 0.291
65.0481 0.040
65.0783 -0.264
65.1086 0.162
65.1389 -0.089
65.1692 0.025
65.1995 0.503
65.2297 0.877
65.2600 0.730
65.2903 0.063
65.3206 0.542
65.3509 0.812
65.3811 -0.272
65.4114 0.259
65.4417 0.374
65.4720 0.280
65.5022 0.811
65.5325 0.405
65.5628 0.415
65.5931 0.374
65.6234 0.072
65.6536 0.968
65.6839 0.459
65.7142 0.053
65.7445 -0.040
65.7748 0.284
65.8050 0.243
65.8353 0.515
65.8656 0.266
65.8959 0.746
65.9261 0.185
65.9564 0.666
65.9867 0.730
66.0170 0.221
66.0473 0.129
66.0775 0.558
66.1078 0.153
66.1381 0.218
66.1684 0.230
66.1987 -0.018
66.2289 -0.266
66.2592 -0.111
66.2895 0.617
66.3198 0.512
66.3500 0.094
66.3803 0.302
66.4106 0.249
66.4409 -0.221
66.4712 0.299
66.5014 0.767
66.5317 0.767
66.5620 -0.431
66.5923 0.245
66.6226 -0.119
66.6528 0.401
66.6831 0.245
66.7134 0.505
66.7437 0.297
66.7739 0.245
66.8042 0.246
66.8345 0.298
66.8648 -0.014
66.8951 0.560
66.9253 0.300
66.9556 -0.064
66.9859 0.302
67.0162 -0.062
67.0465 0.096
67.0767 0.253
67.1070 0.254
67.1373 -0.578
67.1676 0.466
67.1978 -0.158
67.2281 0.260
67.2584 0.106
67.2887 -0.048
67.3190 0.370
67.3492 0.216
67.3795 0.479
67.4098 -0.144
67.4401 0.275
67.4704 -0.296
67.5006 0.332
67.5309 0.230
67.5612 0.077
67.5915 -0.441
67.6218 -0.029
67.6520 0.228
67.6823 0.276
67.7126 0.064
67.7429 0.217
67.7731 0.318
67.8034 0.002
67.8337 -0.262
67.8640 0.204
67.8943 0.200
67.9245 0.770
67.9548 -0.326
67.9851 0.244
68.0154 -0.280
68.0457 0.186
68.0759 0.236
68.1062 0.702
68.1365 0.596
68.1668 -0.500
68.1970 0.175
68.2273 0.277
68.2576 0.743
68.2879 0.221
68.3182 0.115
68.3484 -0.304
68.3787 -0.045
68.4090 0.214
68.4393 -0.152
68.4696 0.680
68.4998 0.158
68.5301 0.626
68.5604 0.833
68.5907 -0.053
68.6209 -0.002
68.6512 0.153
68.6815 -0.212
68.7118 0.308
68.7421 0.152
68.7723 0.099
68.8026 0.047
68.8329 -0.162
68.8632 0.151
68.8935 0.411
68.9237 0.672
68.9540 0.047
68.9843 0.568
69.0146 0.256
69.0448 0.360
69.0751 0.257
69.1054 0.414
69.1357 0.362
69.1660 0.519
69.1962 0.364
69.2265 -0.052
69.2568 0.262
69.2871 0.836
69.3174 0.160
69.3476 -0.151
69.3779 0.424
69.4082 -0.095
69.4385 0.427
69.4687 0.116
69.4990 0.118
69.5293 0.537
69.5596 0.383
69.5899 0.072
69.6201 0.127
69.6504 0.494
69.6807 0.756
69.7110 0.498
69.7413 0.605
69.7715 -0.017
69.8018 0.350
69.8321 -0.220
69.8624 0.669
69.8926 0.516
69.9229 0.050
69.9532 -0.363
69.9835 0.000
70.0138 0.260
70.0440 0.468
70.0743 -0.158
70.1046 0.206
70.1349 0.206
70.1652 -0.211
70.1954 0.413
70.2257 0.361
70.2560 0.049
70.2863 0.465
70.3166 0.413
70.3468 -0.107
70.3771 -0.055
70.4074 0.154
70.4377 0.311
70.4679 0.468
70.4982 0.000
70.5285 0.521
70.5588 0.418
70.5891 0.627
70.6193 -0.205
70.6496 0.265
70.6799 0.058
70.7102 0.216
70.7405 0.061
70.7707 -0.354
70.8010 0.376
70.8313 0.274
70.8616 -0.141
70.8918 0.069
70.9221 0.436
70.9524 -0.343
70.9827 0.180
71.0130 0.078
71.0432 0.445
71.0735 -0.177
71.1038 0.346
71.1341 0.140
71.1644 -0.117
71.1946 0.094
71.2249 -0.007
71.2552 -0.317
71.2855 0.311
71.3157 0.471
71.3460 -0.047
71.3763 0.686
71.4066 0.585
71.4369 -0.244
71.4671 0.384
71.4974 0.180
71.5277 0.027
71.5580 0.500
71.5883 0.140
71.6185 0.300
71.6488 0.773
71.6791 0.465
71.7094 -0.051
71.7396 -0.255
71.7699 -0.098
71.8002 0.528
71.8305 0.268
71.8608 0.634
71.8910 -0.406
71.9213 0.272
71.9516 0.013
71.9819 -0.038
72.0122 0.016
72.0424 0.226
72.0727 -0.085
72.1030 -0.239
72.1333 0.857
72.1635 0.286
72.1938 0.600
72.2241 0.238
72.2544 0.449
72.2847 -0.122
72.3149 0.349
72.3452 0.092
72.3755 -0.114
72.4058 -0.007
72.4361 0.152
72.4663 0.311
72.4966 0.158
72.5269 -0.151
72.5572 0.425
72.5874 0.897
72.6177 0.432
72.6480 -0.294
72.6783 0.803
72.7086 0.495
72.7388 -0.126
72.7691 0.138
72.7994 0.350
72.8297 0.615
72.8600 0.411
72.8902 0.415
72.9205 0.315
72.9508 0.580
72.9811 -0.197
73.0113 0.589
73.0416 0.542
73.0719 0.547
73.1022 -0.125
73.1325 0.400
73.1627 0.301
73.1930 0.671
73.2233 -0.105
73.2536 0.682
73.2839 0.635
73.3141 -0.140
73.3444 -0.239
73.3747 0.015
73.4050 -0.357
73.4353 0.417
73.4655 0.879
73.4958 0.352
73.5261 0.918
73.5564 -0.338
73.5866 0.332
73.6169 0.534
73.6472 0.945
73.6775 1.147
73.7078 0.620
73.7380 0.406
73.7683 0.556
73.7986 0.290
73.8289 0.024
73.8592 0.227
73.8894 -0.196
73.9197 0.528
73.9500 0.471
73.9803 0.205
74.0105 0.252
74.0408 0.560
74.0711 0.294
74.1014 0.862
74.1317 0.128
74.1619 0.697
74.1922 0.119
74.2225 0.063
74.2528 0.423
74.2831 0.679
74.3133 0.987
74.3436 0.202
74.3739 0.823
74.4042 0.246
74.4344 0.086
74.4647 0.291
74.4950 0.339
74.5253 -0.289
74.5556 0.645
74.5858 0.277
74.6161 -0.091
74.6464 0.062
74.6767 0.632
74.7070 0.160
74.7372 -0.259
74.7675 0.571
74.7978 0.100
74.8281 0.097
74.8583 0.303
74.8886 0.197
74.9189 0.142
74.9492 0.921
74.9795 1.180
75.0097 0.448
75.0400 0.342
75.0703 -0.337
75.1006 -0.026
75.1309 0.129
75.1611 0.700
75.1914 -0.082
75.2217 0.124
75.2520 1.061
75.2822 0.278
75.3125 -0.400
75.3428 0.485
75.3731 0.380
75.4034 -0.038
75.4336 -0.143
75.4639 0.846
75.4942 0.221
75.5245 -0.040
75.5548 0.376
75.5850 0.063
75.6153 0.011
75.6456 0.740
75.6759 0.428
75.7061 0.376
75.7364 0.272
75.7667 0.012
75.7970 -0.248
75.8273 0.273
75.8575 -0.455
75.8878 0.118
75.9181 -0.037
75.9484 -0.193
75.9787 0.381
76.0089 -0.190
76.0392 -0.189
76.0695 0.177
76.0998 0.074
76.1301 0.231
76.1603 -0.027
76.1906 0.339
76.2209 0.080
76.2512 0.394
76.2814 0.657
76.3117 0.242
76.3420 0.088
76.3723 0.507
76.4026 0.093
76.4328 0.095
76.4631 -0.163
76.4934 0.256
76.5237 -0.158
76.5540 -0.363
76.5842 0.213
76.6145 -0.409
76.6448 -0.042
76.6751 0.639
76.7053 -0.087
76.7356 0.073
76.7659 -0.080
76.7962 0.340
76.8265 0.084
76.8567 -0.277
76.8870 0.248
76.9173 0.095
76.9476 -0.526
76.9779 0.625
77.0081 -0.100
77.0384 -0.044
77.0687 0.221
77.0990 -0.399
77.1292 0.230
77.1595 -0.025
77.1898 -0.021
77.2201 -0.068
77.2504 0.042
77.2806 0.307
77.3109 0.260
77.3412 0.057
77.3715 -0.250
77.4018 -0.249
77.4320 -0.248
77.4623 0.118
77.4926 -0.246
77.5229 0.224
77.5531 0.226
77.5834 0.279
77.6137 0.020
77.6440 0.543
77.6743 -0.028
77.7045 -0.027
77.7348 -0.285
77.7651 0.081
77.7954 -0.177
77.8257 0.398
77.8559 0.400
77.8862 -0.119
77.9165 0.196
77.9468 0.302
77.9770 -0.164
78.0073 -0.005
78.0376 0.362
78.0679 -0.104
78.0982 0.315
78.1284 -0.151
78.1587 0.061
78.1890 -0.197
78.2193 0.432
78.2496 0.643
78.2798 -0.187
78.3101 0.025
78.3404 0.081
78.3707 0.241
78.4009 0.401
78.4312 -0.169
78.4615 -0.165
78.4918 -0.056
78.5221 0.416
78.5523 0.316
78.5826 0.008
78.6129 0.273
78.6432 -0.139
78.6735 -0.239
78.7037 -0.501
78.7340 0.643
78.7643 0.225
78.7946 0.015
78.8248 0.327
78.8551 0.221
78.8854 0.324
78.9157 0.636
78.9460 0.062
78.9762 0.321
79.0065 0.529
79.0368 0.580
79.0671 0.007
79.0974 0.788
79.1276 -0.150
79.1579 0.318
79.1882 0.110
79.2185 0.526
79.2488 0.474
79.2790 0.318
79.3093 0.370
79.3396 0.422
79.3699 -0.150
79.4001 0.423
79.4304 -0.305
79.4607 -0.096
79.4910 -0.096
79.5213 0.113
79.5515 -0.094
79.5818 -0.093
79.6121 0.064
79.6424 0.586
79.6727 0.588
79.7029 0.277
79.7332 0.226
79.7635 -0.189
79.7938 -0.083
79.8240 0.179
79.8543 0.962
79.8846 0.183
79.9149 -0.024
79.9452 0.812
79.9754 0.397
80.0057 0.243
80.0360 0.506
80.0663 0.040
80.0966 0.199
80.1268 0.254
80.1571 0.100
80.1874 0.259
80.2177 0.262
80.2479 0.109
80.2782 0.321
80.3085 0.272
80.3388 -0.454
80.3691 0.487
80.3993 0.334
80.4296 0.182
80.4599 0.498
80.4902 0.762
80.5205 0.349
80.5507 -0.063
80.5810 0.618
80.6113 -0.055
80.6416 -0.259
80.6718 0.099
80.7021 0.613
80.7324 0.451
80.7627 0.392
80.7930 0.230
80.8232 0.380
80.8535 0.374
80.8838 0.107
80.9141 0.466
80.9444 -0.165
80.9746 0.350
81.0049 0.345
81.0352 0.183
81.0655 0.334
81.0957 0.641
81.1260 -0.458
81.1563 -0.047
81.1866 0.104
81.2169 0.308
81.2471 -0.270
81.2774 0.454
81.3077 -0.175
81.3380 0.081
81.3683 0.284
81.3985 -0.032
81.4288 0.328
81.4591 -0.041
81.4894 0.111
81.5196 0.263
81.5499 -0.001
81.5802 -0.109
81.6105 0.564
81.6408 0.352
81.6710 -0.068
81.7013 -0.019
81.7316 -0.075
81.7619 -0.078
81.7922 0.179
81.8224 0.176
81.8527 0.694
81.8830 -0.246
81.9133 0.220
81.9436 0.165
81.9738 0.110
82.0041 0.212
82.0344 0.418
82.0647 0.832
82.0949 0.101
82.1252 0.203
82.1555 0.409
82.1858 0.199
82.2161 0.301
82.2463 0.195
82.2766 0.193
82.3069 0.296
82.3372 0.451
82.3675 -0.124
82.3977 -0.229
82.4280 -0.022
82.4583 0.081
82.4886 0.184
82.5188 0.027
82.5491 0.078
82.5794 0.130
82.6097 0.285
82.6400 0.181
82.6702 0.180
82.7005 0.180
82.7308 0.127
82.7611 -0.133
82.7914 -0.133
82.8216 0.231
82.8519 0.231
82.8822 0.127
82.9125 -0.028
82.9427 0.180
82.9730 0.285
83.0033 -0.235
83.0336 0.078
83.0639 0.079
83.0941 -0.285
83.1244 -0.027
83.1547 0.439
83.1850 -0.084
83.2153 0.070
83.2455 0.328
83.2758 -0.195
83.3061 0.012
83.3364 0.062
83.3666 0.112
83.3969 0.111
83.4272 0.161
83.4575 0.212
83.4878 0.471
83.5180 0.053
83.5483 -0.001
83.5786 0.311
83.6089 -0.315
83.6392 -0.004
83.6694 0.152
83.6997 0.047
83.7300 -0.058
83.7603 0.046
83.7905 0.149
83.8208 0.045
83.8511 0.201
83.8814 0.044
83.9117 0.253
83.9419 -0.633
83.9722 -0.008
84.0025 -0.112
84.0328 -0.215
84.0631 0.254
84.0933 0.202
84.1236 0.567
84.1539 0.151
84.1842 -0.004
84.2144 0.361
84.2447 -0.107
84.2750 0.728
84.3053 0.260
84.3356 -0.364
84.3658 0.002
84.3961 -0.153
84.4264 -0.255
84.4567 0.163
84.4870 0.216
84.5172 0.270
84.5475 -0.146
84.5778 0.325
84.6081 -0.299
84.6383 0.432
84.6686 -0.191
84.6989 -0.137
84.7292 -0.343
84.7595 0.232
84.7897 -0.026
84.8200 -0.076
84.8503 0.187
84.8806 -0.123
84.9109 -0.225
84.9411 0.142
84.9714 -0.115
85.0017 0.096
85.0320 -0.214
85.0623 0.258
85.0925 0.261
85.1228 0.108
85.1531 0.216
85.1834 0.948
85.2136 -0.090
85.2439 -0.034
85.2742 0.439
85.3045 0.234
85.3348 -0.023
85.3650 0.034
85.3953 -0.119
85.4256 0.250
85.4559 0.098
85.4862 -0.158
85.5164 0.263
85.5467 0.007
85.5770 0.585
85.6073 -0.191
85.6375 0.230
85.6678 0.183
85.6981 0.136
85.7284 0.297
85.7587 0.407
85.7889 0.464
85.8192 0.261
85.8495 0.058
85.8798 0.220
85.9101 0.122
85.9403 0.075
85.9706 -0.023
86.0009 0.191
86.0312 0.093
86.0614 0.412
86.0917 0.210
86.1220 0.060
86.1523 0.118
86.1826 0.125
86.2128 -0.337
86.2431 -0.082
86.2734 0.121
86.3037 0.376
86.3340 0.788
86.3642 0.419
86.3945 -0.055
86.4248 0.357
86.4551 0.509
86.4853 0.244
86.5156 0.552
86.5459 0.443
86.5762 0.074
86.6065 0.695
86.6367 0.066
86.6670 0.062
86.6973 0.839
86.7276 0.002
86.7579 0.728
86.7881 -0.109
86.8184 0.148
86.8487 0.457
86.8790 0.453
86.9092 0.294
86.9395 0.968
86.9698 -0.025
87.0001 0.441
87.0304 0.073
87.0606 0.331
87.0909 0.224
87.1212 0.430
87.1515 -0.041
87.1818 0.321
87.2120 -0.046
87.2423 -0.204
87.2726 0.366
87.3029 0.364
87.3331 0.050
87.3634 0.256
87.3937 -0.214
87.4240 0.670
87.4543 -0.269
87.4845 0.250
87.5148 -0.012
87.5451 0.352
87.5754 0.663
87.6057 0.662
87.6359 0.192
87.6662 0.087
87.6965 0.086
87.7268 0.033
87.7571 0.397
87.7873 0.241
87.8176 0.084
87.8479 0.709
87.8782 0.552
87.9084 0.187
87.9387 -0.073
87.9690 0.240
87.9993 0.083
88.0296 -0.229
88.0598 0.084
88.0901 0.136
88.1204 0.085
88.1507 0.242
88.1810 0.138
88.2112 0.035
88.2415 0.609
88.2718 0.558
88.3021 0.350
88.3323 0.143
88.3626 -0.012
88.3929 0.250
88.4232 -0.009
88.4535 0.513
88.4837 0.463
88.5140 -0.317
88.5443 0.102
88.5746 -0.209
88.6049 0.418
88.6351 0.108
88.6654 -0.046
88.6957 0.008
88.7260 -0.198
88.7562 0.117
88.7865 0.016
88.8168 0.279
88.8471 0.125
88.8774 0.389
88.9076 -0.442
88.9379 -0.022
88.9682 0.190
88.9985 -0.120
89.0288 0.821
89.0590 0.356
89.0893 -0.057
89.1196 0.050
89.1499 0.262
89.1801 -0.150
89.2104 -0.042
89.2407 0.222
89.2710 0.487
89.3013 0.334
89.3315 0.182
89.3618 0.083
89.3921 -0.225
89.4224 0.821
89.4527 -0.216
89.4829 0.205
89.5132 -0.311
89.5435 0.788
89.5738 -0.457
89.6040 0.017
89.6343 0.230
89.6646 0.392
89.6949 0.137
89.7252 -0.066
89.7554 0.617
89.7857 0.362
89.8160 -0.205
89.8463 0.269
89.8766 -0.037
89.9068 0.802
89.9371 -0.077
89.9674 -0.227
89.9977 -0.023
90.0279 -0.027
90.0582 0.438
90.0885 0.434
90.1188 0.274
90.1491 0.218
90.1793 0.058
90.2096 0.054
90.2399 0.051
90.2702 0.412
90.3005 -0.112
90.3307 0.093
90.3610 -0.066
90.3913 -0.017
90.4216 -0.176
90.4518 0.081
90.4821 0.235
90.5124 0.180
90.5427 0.282
90.5730 0.384
90.6032 -0.088
90.6335 0.275
90.6638 0.377
90.6941 0.583
90.7244 0.685
90.7546 0.527
90.7849 0.682
90.8152 -0.362
90.8455 0.366
90.8758 0.104
90.9060 0.259
90.9363 -0.211
90.9666 0.308
90.9969 -0.370
91.0271 -0.215
91.0574 -0.111
91.0877 0.096
91.1180 0.356
91.1483 0.095
91.1785 -0.114
91.2088 0.302
91.2391 0.302
91.2694 0.354
91.2997 -0.167
91.3299 -0.115
91.3602 0.405
91.3905 0.301
91.4208 0.666
91.4510 -0.219
91.4813 -0.010
91.5116 0.303
91.5419 -0.270
91.5722 0.408
91.6024 0.357
91.6327 0.566
91.6630 -0.266
91.6933 0.099
91.7236 0.257
91.7538 0.049
91.7841 0.259
91.8144 0.104
91.8447 0.366
91.8749 0.316
91.9052 0.526
91.9355 0.371
91.9658 0.113
91.9961 -0.042
92.0263 -0.039
92.0566 -0.089
92.0869 0.277
92.1172 -0.085
92.1475 -0.134
92.1777 0.597
92.2080 0.027
92.2383 -0.126
92.2686 0.137
92.2988 0.296
92.3291 0.611
92.3594 -0.063
92.3897 0.305
92.4200 0.569
92.4502 0.208
92.4805 0.003
92.5108 0.684
92.5411 0.114
92.5714 -0.090
92.6016 0.434
92.6319 0.178
92.6622 0.338
92.6925 0.186
92.7227 0.295
92.7530 -0.014
92.7833 0.512
92.8136 0.516
92.8439 0.156
92.8741 0.213
92.9044 0.114
92.9347 -0.090
92.9650 0.228
92.9953 0.441
93.0255 0.238
93.0558 0.712
93.0861 0.353
93.1164 0.202
93.1466 0.103
93.1769 0.161
93.2072 -0.146
93.2375 0.068
93.2678 0.595
93.2980 0.601
93.3283 0.607
93.3586 0.093
93.3889 0.099
93.4192 0.105
93.4494 0.268
93.4797 0.431
93.5100 -0.240
93.5403 -0.233
93.5706 0.283
93.6008 0.226
93.6311 -0.404
93.6614 0.789
93.6917 -0.101
93.7219 0.050
93.7522 -0.215
93.7825 0.302
93.8128 0.141
93.8431 0.085
93.8733 0.706
93.9036 0.545
93.9339 0.333
93.9642 0.173
93.9945 0.377
94.0247 0.061
94.0550 0.058
94.0853 -0.102
94.1156 0.207
94.1458 0.151
94.1761 0.409
94.2064 0.093
94.2367 0.142
94.2670 0.087
94.2972 -0.124
94.3275 0.446
94.3578 0.183
94.3881 0.128
94.4184 0.074
94.4486 -0.346
94.4789 0.069
94.5092 -0.142
94.5395 0.012
94.5697 0.271
94.6000 0.321
94.6303 0.371
94.6606 0.057
94.6909 0.003
94.7211 0.106
94.7514 0.781
94.7817 -0.209
94.8120 0.414
94.8423 0.361
94.8725 0.308
94.9028 0.046
94.9331 0.150
94.9634 -0.059
94.9936 0.096
95.0239 -0.061
95.0542 1.032
95.0845 -0.062
95.1148 -0.166
95.1450 0.146
95.1753 0.042
95.2056 0.354
95.2359 0.354
95.2662 0.511
95.2964 0.198
95.3267 -0.270
95.3570 -0.113
95.3873 0.095
95.4175 0.356
95.4478 0.201
95.4781 -0.111
95.5084 0.098
95.5387 0.412
95.5689 0.569
95.5992 -0.055
95.6295 0.155
95.6598 0.052
95.6901 -0.259
95.7203 -0.002
95.7506 0.151
95.7809 0.513
95.8112 -0.167
95.8414 0.663
95.8717 0.504
95.9020 0.085
95.9323 0.031
95.9626 0.236
95.9928 -0.339
96.0231 0.336
96.0534 -0.135
96.0837 0.488
96.1140 0.434
96.1442 0.067
96.1745 0.066
96.2048 0.012
96.2351 -0.146
96.2653 0.217
96.2956 0.320
96.3259 0.162
96.3562 0.005
96.3865 -0.101
96.4167 -0.102
96.4470 -0.311
96.4773 0.156
96.5076 -0.314
96.5379 0.518
96.5681 0.152
96.5984 0.255
96.6287 0.358
96.6590 -0.320
96.6893 -0.008
96.7195 0.200
96.7498 -0.218
96.7801 0.199
96.8104 0.406
96.8406 0.354
96.8709 0.510
96.9012 0.197
96.9315 0.197
96.9618 0.874
96.9920 0.145
97.0223 0.562
97.0526 -0.011
97.0829 -0.010
97.1132 0.094
97.1434 0.043
97.1737 -0.008
97.2040 0.201
97.2343 0.306
97.2645 0.254
97.2948 0.203
97.3251 0.100
97.3554 0.102
97.3857 0.520
97.4159 -0.156
97.4462 0.158
97.4765 0.107
97.5068 0.005
97.5371 0.163
97.5673 0.269
97.5976 0.323
97.6279 -0.144
97.6582 0.171
97.6884 0.225
97.7187 0.280
97.7490 0.074
97.7793 0.077
97.8096 0.183
97.8398 0.551
97.8701 0.189
97.9004 0.348
97.9307 0.039
97.9610 0.302
97.9912 -0.007
98.0215 0.465
98.0518 0.260
98.0821 -0.101
98.1123 -0.046
98.1426 0.114
98.1729 0.118
98.2032 -0.086
98.2335 0.647
98.2637 -0.078
98.2940 0.759
98.3243 0.451
98.3546 0.039
98.3849 0.303
98.4151 0.568
98.4454 0.260
98.4757 0.369
98.5060 0.218
98.5362 0.379
98.5665 0.384
98.5968 0.389
98.6271 0.134
98.6574 -0.121
98.6876 0.196
98.7179 -0.215
98.7482 -0.218
98.7785 0.456
98.8088 0.401
98.8390 0.398
98.8693 -0.074
98.8996 0.340
98.9299 0.389
98.9601 0.543
98.9904 -0.137
99.0207 0.173
99.0510 0.275
99.0813 0.377
99.1115 0.791
99.1418 -0.200
99.1721 0.006
99.2024 0.056
99.2327 0.471
99.2629 0.157
99.2932 0.155
99.3235 -0.263
99.3538 -0.004
99.3841 0.463
99.4143 0.149
99.4446 -0.112
99.4749 0.251
99.5052 -0.062
99.5354 0.614
99.5657 0.874
99.5960 -0.169
99.6263 0.560
99.6566 0.091
99.6868 0.195
99.7171 -0.014
99.7474 0.142
99.7777 0.298
99.8080 0.611
99.8382 0.663
99.8685 0.246
99.8988 -0.170
99.9291 0.351
99.9593 0.351
99.9896 -0.221
100.0199 -0.433
100.0502 0.501
100.0805 -0.023
100.1107 0.338
100.1410 -0.082
100.1713 0.071
100.2016 0.121
100.2319 0.222
100.2621 0.219
100.2924 0.008
100.3227 0.057
100.3530 0.367
100.3832 -0.312
100.4135 0.310
100.4438 -0.004
100.4741 -0.111
100.5044 0.825
100.5346 -0.011
100.5649 0.456
100.5952 0.194
100.6255 0.557
100.6558 0.087
100.6860 0.450
100.7163 0.552
100.7466 -0.386
100.7769 -0.023
100.8071 0.028
100.8374 -0.077
100.8677 0.286
100.8980 -0.027
100.9283 0.076
100.9585 0.232
100.9888 0.283
101.0191 0.491
101.0494 0.283
101.0797 0.022
101.1099 -0.291
101.1402 0.178
101.1705 -0.135
101.2008 0.074
101.2310 0.334
101.2613 0.543
101.2916 -0.082
101.3219 0.075
101.3522 0.023
101.3824 0.076
101.4127 0.493
101.4430 0.807
101.4733 -0.078
101.5036 -0.389
101.5338 0.130
101.5641 0.181
101.5944 0.023
101.6247 0.074
101.6549 0.177
101.6852 0.020
101.7155 -0.137
101.7458 -0.034
101.7761 0.538
101.8063 0.225
101.8366 0.121
101.8669 -0.036
101.8972 -0.089
101.9275 0.380
101.9577 -0.037
101.9880 0.536
102.0183 -0.037
102.0486 0.223
102.0788 0.484
102.1091 -0.193
102.1394 0.276
102.1697 0.173
102.2000 0.434
102.2302 0.122
102.2605 -0.138
102.2908 0.124
102.3211 0.072
102.3514 -0.031
102.3816 -0.394
102.4119 0.545
102.4422 0.442
102.4725 -0.390
102.5028 0.497
102.5330 -0.075
102.5633 -0.021
102.5936 -0.071
102.6239 0.295
102.6541 -0.119
102.6844 0.143
102.7147 0.198
102.7450 0.512
102.7753 0.150
102.8055 0.309
102.8358 0.155
102.8661 -0.363
102.8964 -0.105
102.9267 -0.055
102.9569 0.308
102.9872 -0.058
103.0175 0.253
103.0478 0.512
103.0780 0.198
103.1083 0.509
103.1386 -0.378
103.1689 0.038
103.1992 0.089
103.2294 -0.277
103.2597 0.139
103.2900 -0.070
103.3203 0.137
103.3506 0.345
103.3808 0.241
103.4111 -0.020
103.4414 -0.125
103.4717 -0.021
103.5019 0.083
103.5322 0.344
103.5625 0.292
103.5928 0.292
103.6231 0.136
103.6533 -0.229
103.6836 0.032
103.7139 -0.123
103.7442 -0.227
103.7745 -0.072
103.8047 0.083
103.8350 -0.075
103.8653 0.445
103.8956 -0.025
103.9258 -0.078
103.9561 0.129
103.9864 0.233
104.0167 -0.393
104.0470 0.388
104.0772 -0.238
104.1075 0.283
104.1378 0.491
104.1681 -0.239
104.1984 0.282
104.2286 0.022
104.2589 -0.030
104.2892 -0.186
104.3195 -0.134
104.3497 0.179
104.3800 -0.185
104.4103 -0.133
104.4406 -0.132
104.4709 -0.027
104.5011 0.130
104.5314 -0.390
104.5617 0.496
104.5920 0.081
104.6223 0.238
104.6525 -0.073
104.6828 0.189
104.7131 0.503
104.7434 0.088
104.7736 0.506
104.8039 0.664
104.8342 -0.116
104.8645 -0.062
104.8948 -0.007
104.9250 0.047
104.9553 0.257
104.9856 0.624
105.0159 0.262
105.0462 0.421
105.0764 0.059
105.1067 -0.095
105.1370 -0.092
105.1673 -0.089
105.1975 -0.190
105.2278 0.229
105.2581 0.233
105.2884 -0.233
105.3187 -0.184
105.3489 -0.135
105.3792 0.486
105.4095 0.119
105.4398 0.011
105.4701 0.477
105.5003 0.214
105.5306 0.419
105.5609 0.052
105.5912 0.154
105.6215 -0.057
105.6517 0.357
105.6820 0.095
105.7123 0.144
105.7426 -0.014
105.7728 0.192
105.8031 0.138
105.8334 0.085
105.8637 0.083
105.8940 0.029
105.9242 -0.285
105.9545 0.026
105.9848 -0.131
106.0151 0.232
106.0454 -0.082
106.0756 0.021
106.1059 -0.084
106.1362 0.124
106.1665 -0.450
106.1967 0.070
106.2270 0.486
106.2573 0.069
106.2876 0.173
106.3179 -0.088
106.3481 -0.088
106.3784 0.381
106.4087 0.120
106.4390 0.120
106.4693 0.381
106.4995 -0.088
106.5298 -0.139
106.5601 0.069
106.5904 -0.295
106.6206 0.175
106.6509 -0.033
106.6812 0.020
106.7115 -0.031
106.7418 0.230
106.7720 0.075
106.8023 0.128
106.8326 0.182
106.8629 -0.025
106.8932 0.028
106.9234 0.134
106.9537 -0.072
106.9840 0.086
107.0143 0.192
107.0445 0.454
107.0748 0.404
107.1051 -0.323
107.1354 -0.113
107.1657 -0.319
107.1959 0.257
107.2262 0.259
107.2565 -0.259
107.2868 -0.208
107.3171 -0.105
107.3473 0.050
107.3776 -0.212
107.4079 0.308
107.4382 0.411
107.4684 -0.110
107.4987 0.410
107.5290 0.514
107.5593 0.096
107.5896 -0.008
107.6198 0.044
107.6501 -0.113
107.6804 0.460
107.7107 0.252
107.7410 0.356
107.7712 -0.009
107.8015 -0.321
107.8318 0.148
107.8621 0.149
107.8923 0.305
107.9226 0.098
107.9529 0.202
107.9832 0.151
108.0135 -0.369
108.0437 0.309
108.0740 -0.054
108.1043 -0.157
108.1346 0.105
108.1649 0.054
108.1951 0.316
108.2254 -0.099
108.2557 -0.098
108.2860 -0.044
108.3163 -0.198
108.3465 0.220
108.3768 -0.038
108.4071 0.172
108.4374 0.018
108.4676 0.333
108.4979 0.336
108.5282 0.286
108.5585 0.341
108.5888 0.708
108.6190 0.086
108.6493 0.036
108.6796 -0.221
108.7099 -0.010
108.7402 0.356
108.7704 -0.058
108.8007 -0.055
108.8310 0.364
108.8613 0.367
108.8915 0.265
108.9218 0.476
108.9521 0.375
108.9824 -0.195
109.0127 0.590
109.0429 -0.084
109.0732 -0.081
109.1035 -0.025
109.1338 -0.126
109.1641 0.451
109.1943 0.402
109.2246 0.666
109.2549 0.149
109.2852 0.049
109.3154 0.418
109.3457 0.162
109.3760 0.322
109.4063 -0.194
109.4366 0.123
109.4668 -0.133
109.4971 -0.233
109.5274 0.181
109.5577 0.231
109.5880 0.125
109.6182 -0.398
109.6485 0.120
109.6788 0.587
109.7091 0.168
109.7393 0.635
109.7696 -0.200
109.7999 -0.097
109.8302 0.318
109.8605 0.004
109.8907 0.107
109.9210 0.939
109.9513 -0.156
109.9816 0.520
110.0119 0.050
110.0421 -0.107
110.0724 0.465
110.1027 0.204
110.1330 -0.005
110.1632 -0.162
110.1935 0.255
110.2238 0.098
110.2541 0.046
110.2844 -0.163
110.3146 -0.215
110.3449 0.041
110.3752 0.141
110.4055 0.085
110.4358 0.186
110.4660 0.078
110.4963 -0.082
110.5266 0.226
110.5569 0.275
110.5871 0.011
110.6174 0.216
110.6477 0.421
110.6780 0.157
110.7083 0.467
110.7385 0.516
110.7688 0.357
110.7991 0.198
110.8294 0.247
110.8597 0.453
110.8899 0.034
110.9202 -0.125
110.9505 0.445
110.9808 0.131
111.0110 -0.132
111.0413 0.231
111.0716 0.333
111.1019 0.123
111.1322 0.173
111.1624 0.588
111.1927 -0.091
111.2230 0.220
111.2533 0.063
111.2836 -0.095
111.3138 0.320
111.3441 0.163
111.3744 0.318
111.4047 0.421
111.4350 0.316
111.4652 0.212
111.4955 -0.258
111.5258 -0.154
111.5561 -0.363
111.5863 0.209
111.6166 -0.261
111.6469 0.051
111.6772 0.051
111.7075 0.206
111.7377 0.466
111.7680 -0.107
111.7983 0.726
111.8286 0.101
111.8589 -0.108
111.8891 -0.003
111.9194 -0.159
111.9497 0.049
111.9800 -0.107
112.0102 -0.211
112.0405 0.363
112.0708 0.051
112.1011 0.000
112.1314 0.209
112.1616 -0.207
112.1919 0.315
112.2222 0.680
112.2525 0.317
112.2828 0.006
112.3130 0.111
112.3433 -0.148
112.3736 0.062
112.4039 -0.093
112.4341 0.222
112.4644 0.328
112.4947 -0.139
112.5250 0.227
112.5553 0.594
112.5855 0.492
112.6158 0.390
112.6461 0.705
112.6764 0.395
112.7067 0.137
112.7369 -0.068
112.7672 0.611
112.7975 0.198
112.8278 0.200
112.8580 -0.109
112.8883 0.155
112.9186 -0.311
112.9489 -0.107
112.9792 0.358
113.0094 0.146
113.0397 0.038
113.0700 -0.017
113.1003 0.552
113.1306 0.444
113.1608 0.024
113.1911 0.698
113.2214 0.383
113.2517 -0.089
113.2819 0.481
113.3122 0.530
113.3425 0.163
113.3728 0.316
113.4031 0.157
113.4333 0.155
113.4636 0.205
113.4939 -0.162
113.5242 -0.008
113.5545 0.250
113.5847 -0.169
113.6150 0.246
113.6453 -0.068
113.6756 0.399
113.7058 -0.072
113.7361 -0.177
113.7664 -0.075
113.7967 -0.180
113.8270 -0.181
113.8572 0.338
113.8875 0.494
113.9178 0.545
113.9481 0.544
113.9784 -0.134
114.0086 -0.135
114.0389 0.385
114.0692 0.020
114.0995 0.072
114.1298 -0.137
114.1600 -0.085
114.1903 0.071
114.2206 -0.085
114.2509 -0.137
114.2811 -0.137
114.3114 -0.137
114.3417 -0.032
114.3720 -0.188
114.4023 0.073
114.4325 0.022
114.4628 0.022
114.4931 0.179
114.5234 -0.236
114.5537 0.233
114.5839 0.130
114.6142 0.183
114.6445 0.185
114.6748 0.134
114.7050 0.656
114.7353 0.189
114.7656 -0.330
114.7959 0.140
114.8262 -0.014
114.8564 0.561
114.8867 0.250
114.9170 -0.112
114.9473 0.046
114.9776 -0.160
115.0078 -0.053
115.0381 -0.363
115.0684 0.104
115.0987 0.154
115.1289 0.309
115.1592 -0.318
115.1895 0.045
115.2198 0.460
115.2501 0.146
115.2803 0.249
115.3106 0.144
115.3409 0.299
115.3712 -0.170
115.4015 -0.015
115.4317 -0.068
115.4620 -0.069
115.4923 -0.225
115.5226 0.087
115.5528 -0.070
115.5831 0.138
115.6134 0.450
115.6437 0.033
115.6740 -0.227
115.7042 -0.124
115.7345 0.083
115.7648 0.134
115.7951 0.237
115.8254 0.341
115.8556 0.027
115.8859 0.027
115.9162 0.183
115.9465 -0.078
115.9767 0.078
116.0070 0.286
116.0373 -0.340
116.0676 0.337
116.0979 -0.236
116.1281 -0.131
116.1584 0.129
116.1887 -0.235
116.2190 0.338
116.2493 -0.078
116.2795 -0.234
116.3098 0.392
116.3401 0.289
116.3704 -0.335
116.4006 0.186
116.4309 0.239
116.4612 -0.176
116.4915 0.346
116.5218 -0.122
116.5520 0.349
116.5823 0.663
116.6126 -0.325
116.6429 0.145
116.6732 -0.009
116.7034 0.357
116.7337 -0.162
116.7640 -0.160
116.7943 0.259
116.8245 0.209
116.8548 0.107
116.8851 0.579
116.9154 0.165
116.9457 0.584
116.9759 0.795
117.0062 0.016
117.0365 0.436
117.0668 0.283
117.0971 0.546
117.1273 0.133
117.1576 0.136
117.1879 0.035
117.2182 0.039
117.2485 0.042
117.2787 0.306
117.3090 -0.159
117.3393 -0.311
117.3696 0.208
117.3998 0.466
117.4301 -0.005
117.4604 0.723
117.4907 -0.008
117.5210 0.459
117.5512 0.145
117.5815 0.143
117.6118 0.194
117.6421 0.088
117.6724 0.243
117.7026 0.086
117.7329 0.397
117.7632 0.084
117.7935 0.239
117.8237 0.134
117.8540 0.238
117.8843 0.133
117.9146 0.914
117.9449 -0.284
117.9751 0.132
118.0054 0.080
118.0357 -0.233
118.0660 -0.027
118.0963 0.075
118.1265 0.124
118.1568 0.122
118.1871 0.120
118.2174 -0.299
118.2476 0.220
118.2779 0.583
118.3082 0.268
118.3385 0.267
118.3688 0.057
118.3990 0.003
118.4293 -0.311
118.4596 0.052
118.4899 0.207
118.5202 0.414
118.5504 -0.161
118.5807 0.150
118.6110 0.670
118.6413 0.096
118.6715 0.512
118.7018 -0.270
118.7321 -0.011
118.7624 0.145
118.7927 0.092
118.8229 0.404
118.8532 0.091
118.8835 -0.222
118.9138 0.768
118.9441 -0.014
118.9743 0.507
119.0046 -0.014
119.0349 -0.118
119.0652 0.976
119.0954 0.300
119.1257 0.404
119.1560 0.092
119.1863 -0.011
119.2166 -0.323
119.2468 0.094
119.2771 0.303
119.3074 -0.060
119.3377 0.306
119.3680 0.046
119.3982 0.152
119.4285 -0.107
119.4588 -0.106
119.4891 0.052
119.5193 -0.311
119.5496 0.007
119.5799 0.742
119.6102 0.331
119.6405 0.077
119.6707 -0.386
119.7010 0.193
119.7313 0.043
119.7616 0.102
119.7919 0.733
119.8221 -0.041
119.8524 0.070
119.8827 0.441
119.9130 -0.021
119.9433 0.246
119.9735 0.097
120.0038 0.000
