'Id: "" Comment: "" Operator: "Lab Manager" Anode: "Cu" Scantype: "Locked Coupled" TimePerStep: "19.2" X: "9999" Y: "9999" Z: "9999" 
10.0015 0.000
10.0318 0.134
10.0620 0.685
10.0923 0.560
10.1226 -0.867
10.1529 0.206
10.1832 -0.179
10.2134 0.217
10.2437 -0.011
10.2740 1.428
10.3043 -0.258
10.3346 -0.433
10.3648 0.301
10.3951 -0.319
10.4254 0.155
10.4557 0.160
10.4859 -0.355
10.5162 1.161
10.5465 0.230
10.5768 1.591
10.6071 -0.225
10.6373 -0.165
10.6676 1.041
10.6979 1.101
10.7282 -0.037
10.7585 0.805
10.7887 1.023
10.8190 0.563
10.8493 1.146
10.8796 2.146
10.9098 2.312
10.9401 2.688
10.9704 4.574
11.0007 4.794
11.0310 4.962
11.0612 6.693
11.0915 4.830
11.1218 4.582
11.1521 2.564
11.1824 2.421
11.2126 1.602
11.2429 0.418
11.2732 0.328
11.3035 0.499
11.3337 0.983
11.3640 1.207
11.3943 0.702
11.4246 0.718
11.4549 0.786
11.4851 1.428
11.5154 0.039
11.5457 0.525
11.5760 1.480
11.6063 0.144
11.6365 0.892
11.6668 1.067
11.6971 1.190
11.7274 1.158
11.7577 1.021
11.7879 0.364
11.8182 -0.397
11.8485 -0.334
11.8788 1.136
11.9090 0.939
11.9393 1.004
11.9696 0.912
11.9999 0.247
12.0302 0.260
12.0604 0.169
12.0907 -0.390
12.1210 -0.390
12.1513 -0.237
12.1816 0.072
12.2118 0.642
12.2421 1.316
12.2724 0.584
12.3027 -0.043
12.3329 0.216
12.3632 0.475
12.3935 -0.620
12.4238 0.109
12.4541 0.004
12.4843 -0.309
12.5146 0.525
12.5449 0.213
12.5752 -0.151
12.6055 -0.254
12.6357 1.311
12.6660 -0.198
12.6963 0.690
12.7266 0.171
12.7568 0.331
12.7871 0.073
12.8174 0.962
12.8477 0.237
12.8780 0.554
12.9082 0.402
12.9385 0.251
12.9688 -0.421
12.9991 -0.051
13.0294 0.528
13.0596 0.899
13.0899 0.072
13.1202 -0.025
13.1505 0.555
13.1807 0.563
13.2110 0.154
13.2413 0.058
13.2716 0.275
13.3019 0.388
13.3321 -0.332
13.3624 0.563
13.3927 0.573
13.4230 0.740
13.4533 -0.291
13.4835 -0.020
13.5138 0.148
13.5441 0.263
13.5744 1.004
13.6046 -0.390
13.6349 0.977
13.6652 0.209
13.6955 0.535
13.7258 1.850
13.7560 0.823
13.7863 0.420
13.8166 -1.128
13.8469 -0.227
13.8772 -0.368
13.9074 0.046
13.9377 0.253
13.9680 -0.321
13.9983 0.095
14.0285 0.250
14.0588 -0.062
14.0891 0.094
14.1194 0.355
14.1497 0.512
14.1799 1.502
14.2102 -0.528
14.2405 -0.161
14.2708 1.091
14.3011 0.781
14.3313 -0.102
14.3616 0.109
14.3919 0.217
14.4222 0.065
14.4524 0.225
14.4827 -0.031
14.5130 0.494
14.5433 0.604
14.5736 0.661
14.6038 0.667
14.6341 -0.160
14.6644 0.679
14.6947 0.634
14.7250 0.276
14.7552 -0.029
14.7855 0.135
14.8158 0.143
14.8461 -0.109
14.8764 0.733
14.9066 0.170
14.9369 0.648
14.9672 0.658
14.9975 -0.322
15.0277 -0.416
15.0580 0.368
15.0883 -0.567
15.1186 0.477
15.1489 -0.093
15.1791 0.379
15.2094 0.071
15.2397 0.179
15.2700 -0.494
15.3003 -0.137
15.3305 0.793
15.3608 0.422
15.3911 0.206
15.4214 -0.477
15.4516 0.507
15.4819 0.188
15.5122 0.339
15.5425 0.855
15.5728 0.017
15.6030 0.221
15.6333 0.425
15.6636 0.734
15.6939 0.210
15.7242 -0.210
15.7544 -0.213
15.7847 -0.163
15.8150 0.096
15.8453 0.406
15.8755 0.353
15.9058 -0.013
15.9361 0.299
15.9664 0.507
15.9967 0.559
16.0269 -0.066
16.0572 0.560
16.0875 0.561
16.1178 -0.167
16.1481 -0.009
16.1783 -0.059
16.2086 -0.473
16.2389 0.415
16.2692 -0.364
16.2994 -0.361
16.3297 0.262
16.3600 -0.052
16.3903 0.206
16.4206 -0.159
16.4508 0.256
16.4811 0.048
16.5114 -0.213
16.5417 -0.161
16.5720 0.673
16.6022 -0.003
16.6325 -0.315
16.6628 0.676
16.6931 -0.103
16.7233 -0.414
16.7536 0.683
16.7839 0.008
16.8142 -0.145
16.8445 0.744
16.8747 0.539
16.9050 0.387
16.9353 0.548
16.9656 0.084
16.9959 0.193
17.0261 0.511
17.0564 0.205
17.0867 0.367
17.1170 0.946
17.1472 -0.036
17.1775 0.439
17.2078 0.603
17.2381 0.090
17.2684 0.932
17.2986 -0.154
17.3289 -0.353
17.3592 -0.136
17.3895 0.290
17.4198 0.091
17.4500 0.674
17.4803 -0.149
17.5106 0.330
17.5409 0.653
17.5712 1.133
17.6014 0.103
17.6317 -0.198
17.6620 -0.237
17.6923 0.348
17.7225 0.778
17.7528 -0.303
17.7831 -0.342
17.8134 -0.081
17.8437 -0.342
17.8739 0.117
17.9042 0.055
17.9345 0.410
17.9648 0.192
17.9951 0.964
18.0253 1.372
18.0556 0.478
18.0859 0.053
18.1162 0.410
18.1464 0.195
18.1767 -0.385
18.2070 0.441
18.2373 0.070
18.2676 0.429
18.2978 -0.098
18.3281 -0.416
18.3584 0.361
18.3887 0.252
18.4190 0.299
18.4492 -0.642
18.4795 -0.125
18.5098 -0.181
18.5401 0.181
18.5703 -0.082
18.6006 0.436
18.6309 -0.087
18.6612 0.120
18.6915 -0.819
18.7217 0.170
18.7520 0.117
18.7823 0.273
18.8126 0.169
18.8429 0.377
18.8731 -0.195
18.9034 0.795
18.9337 0.016
18.9640 0.017
18.9942 0.332
19.0245 -0.760
19.0548 0.024
19.0851 -0.390
19.1154 0.025
19.1456 -0.185
19.1759 0.074
19.2062 0.178
19.2365 0.177
19.2668 0.020
19.2970 -0.709
19.3273 0.542
19.3576 0.074
19.3879 0.596
19.4181 -0.497
19.4484 0.234
19.4787 -0.389
19.5090 -0.126
19.5393 -0.071
19.5695 0.036
19.5998 0.040
19.6301 0.356
19.6604 -0.005
19.6907 0.521
19.7209 -0.204
19.7512 0.010
19.7815 0.380
19.8118 -0.135
19.8420 -0.546
19.8723 0.190
19.9026 -0.063
19.9329 0.465
19.9632 0.317
19.9934 0.377
20.0237 -0.709
20.0540 -0.023
20.0843 -0.222
20.1146 0.100
20.1448 0.318
20.1751 -0.036
20.2054 -0.026
20.2357 -0.223
20.2659 0.725
20.2962 -0.149
20.3265 0.280
20.3568 0.604
20.3871 -0.321
20.4173 -0.256
20.4476 -0.243
20.4779 -0.333
20.5082 -0.267
20.5385 0.268
20.5687 0.074
20.5990 0.089
20.6293 0.105
20.6596 0.121
20.6899 0.085
20.7201 -0.472
20.7504 0.222
20.7807 0.603
20.8110 -0.160
20.8412 0.014
20.8715 0.240
20.9018 0.675
20.9321 -0.348
20.9624 0.869
20.9926 -0.257
21.0229 0.492
21.0532 -0.217
21.0835 0.688
21.1138 0.240
21.1440 -0.311
21.1743 -0.221
21.2046 -0.130
21.2349 0.483
21.2651 0.418
21.2954 0.145
21.3257 0.655
21.3560 0.487
21.3863 0.892
21.4165 0.569
21.4468 0.454
21.4771 0.705
21.5074 0.226
21.5377 -0.044
21.5679 -0.261
21.5982 -0.426
21.6285 0.607
21.6588 -0.130
21.6890 0.331
21.7193 0.584
21.7496 0.368
21.7799 0.466
21.8102 -0.270
21.8404 -0.120
21.8707 0.812
21.9010 0.911
21.9313 -0.240
21.9616 1.005
21.9918 -0.145
22.0221 0.111
22.0524 0.732
22.0827 0.364
22.1129 -0.420
22.1432 0.150
22.1735 0.147
22.2038 0.041
22.2341 -0.325
22.2643 -0.066
22.2946 0.090
22.3249 -0.588
22.3552 0.766
22.3855 -0.171
22.4157 0.559
22.4460 0.195
22.4763 -0.429
22.5066 0.354
22.5368 -0.009
22.5671 0.254
22.5974 0.309
22.6277 -0.157
22.6580 0.627
22.6882 -0.463
22.7185 0.114
22.7488 0.014
22.7791 0.435
22.8094 0.492
22.8396 -0.232
22.8699 -0.070
22.9002 -0.272
22.9305 -0.006
22.9607 -0.572
22.9910 0.046
23.0213 0.091
23.0516 0.241
23.0819 0.547
23.1121 0.333
23.1424 0.328
23.1727 -0.251
23.2030 -0.203
23.2333 0.521
23.2635 -0.420
23.2938 0.149
23.3241 0.510
23.3544 0.246
23.3846 0.400
23.4149 0.189
23.4452 0.030
23.4755 0.237
23.5058 -0.129
23.5360 0.443
23.5663 -0.027
23.5966 0.441
23.6269 -0.080
23.6572 0.233
23.6874 0.442
23.7177 0.338
23.7480 -0.598
23.7783 -0.286
23.8086 0.495
23.8388 -0.286
23.8691 -0.285
23.8994 0.133
23.9297 -0.179
23.9599 0.604
23.9902 0.137
24.0205 -0.225
24.0508 -0.014
24.0811 -0.167
24.1113 0.253
24.1416 0.152
24.1719 0.364
24.2022 0.317
24.2325 -0.043
24.2627 -0.299
24.2930 0.592
24.3233 -0.392
24.3536 0.395
24.3838 0.037
24.4141 -0.321
24.4444 -0.007
24.4747 -0.005
24.5050 0.311
24.5352 0.105
24.5655 0.473
24.5958 -0.045
24.6261 -0.353
24.6564 0.328
24.6866 -0.240
24.7169 0.025
24.7472 0.499
24.7775 -0.329
24.8077 -0.271
24.8380 -0.317
24.8683 0.053
24.8986 0.215
24.9289 0.741
24.9591 -0.398
24.9894 0.494
25.0197 0.188
25.0500 0.456
25.0803 0.151
25.1105 0.002
25.1408 0.479
25.1711 0.800
25.2014 -0.024
25.2316 0.558
25.2619 -0.005
25.2922 -0.308
25.3225 -0.685
25.3528 0.710
25.3830 0.282
25.4133 -0.094
25.4436 0.364
25.4739 0.562
25.5042 0.553
25.5344 0.803
25.5647 0.169
25.5950 0.785
25.6253 0.620
25.6555 0.456
25.6858 -0.229
25.7161 0.023
25.7464 -0.036
25.7767 1.155
25.8069 0.107
25.8372 0.934
25.8675 0.146
25.8978 0.453
25.9281 0.031
25.9583 -0.026
25.9886 -0.239
26.0189 0.069
26.0492 -0.143
26.0794 0.114
26.1097 0.006
26.1400 -0.153
26.1703 0.626
26.2006 -0.054
26.2308 0.257
26.2611 1.089
26.2914 -0.006
26.3217 -0.007
26.3520 0.721
26.3822 -0.008
26.4125 -0.321
26.4428 0.096
26.4731 -0.476
26.5034 0.202
26.5336 0.047
26.5639 0.309
26.5942 -0.574
26.6245 0.053
26.6547 0.473
26.6850 0.215
26.7153 0.688
26.7456 0.431
26.7759 0.122
26.8061 0.387
26.8364 0.027
26.8667 1.387
26.8970 -0.118
26.9273 -0.321
26.9575 0.127
26.9878 -0.101
27.0181 0.713
27.0484 -0.035
27.0786 -0.158
27.1089 0.500
27.1392 0.690
27.1695 0.360
27.1998 0.342
27.2300 1.054
27.2603 -0.577
27.2906 0.448
27.3209 -0.037
27.3512 0.260
27.3814 0.244
27.4117 0.229
27.4420 0.214
27.4723 0.147
27.5025 0.446
27.5328 -0.141
27.5631 -0.103
27.5934 0.092
27.6237 -0.754
27.6539 0.015
27.6842 -0.101
27.7145 0.720
27.7448 0.292
27.7751 0.385
27.8053 0.061
27.8356 -0.053
27.8659 0.249
27.8962 -0.021
27.9264 0.021
27.9567 -0.196
27.9870 -0.309
28.0173 -0.682
28.0476 0.455
28.0778 -0.855
28.1081 0.648
28.1384 -0.192
28.1687 0.322
28.1990 -0.466
28.2292 -0.108
28.2595 0.251
28.2898 -0.275
28.3201 -0.176
28.3503 -0.390
28.3806 0.224
28.4109 -0.360
28.4412 -0.214
28.4715 0.453
28.5017 -0.234
28.5320 -0.192
28.5623 0.007
28.5926 0.207
28.6229 -0.114
28.6531 0.867
28.6834 0.495
28.7137 -0.503
28.7440 -0.301
28.7742 0.004
28.8045 0.414
28.8348 -0.061
28.8651 -0.640
28.8954 0.761
28.9256 -0.286
28.9559 -0.134
28.9862 -0.243
29.0165 0.013
29.0468 0.426
29.0770 0.578
29.1073 0.523
29.1376 -0.105
29.1679 -0.055
29.1981 -0.057
29.2284 -0.424
29.2587 0.199
29.2890 -0.375
29.3193 -0.376
29.3495 0.117
29.3798 -0.224
29.4101 0.686
29.4404 0.085
29.4707 0.527
29.5009 -0.906
29.5312 -0.256
29.5615 0.239
29.5918 -0.256
29.6221 0.187
29.6523 -0.202
29.6826 0.085
29.7129 0.738
29.7432 0.401
29.7734 0.065
29.8037 -0.427
29.8340 1.216
29.8643 -0.265
29.8946 0.181
29.9248 0.263
29.9551 1.231
29.9854 0.324
30.0157 0.355
30.0460 0.126
30.0762 -0.416
30.1065 -0.081
30.1368 -0.320
30.1671 1.161
30.1973 0.403
30.2276 0.999
30.2579 0.033
30.2882 -0.620
30.3185 0.862
30.3487 0.262
30.3790 -0.078
30.4093 0.416
30.4396 1.067
30.4699 0.416
30.5001 0.442
30.5304 1.302
30.5607 0.652
30.5910 0.731
30.6212 0.498
30.6515 0.682
30.6818 0.346
30.7121 1.624
30.7424 1.185
30.7726 1.839
30.8029 0.983
30.8332 1.221
30.8635 1.564
30.8938 2.063
30.9240 2.094
30.9543 2.542
30.9846 2.834
31.0149 3.751
31.0451 3.679
31.0754 6.316
31.1057 5.412
31.1360 6.018
31.1663 6.364
31.1965 6.866
31.2268 7.838
31.2571 9.227
31.2874 10.408
31.3177 13.568
31.3479 13.916
31.3782 16.712
31.4085 20.811
31.4388 20.848
31.4690 24.687
31.4993 30.036
31.5296 32.887
31.5599 36.727
31.5902 38.796
31.6204 37.272
31.6507 39.394
31.6810 38.965
31.7113 35.827
31.7416 34.253
31.7718 25.803
31.8021 25.740
31.8324 20.729
31.8627 17.697
31.8929 15.186
31.9232 12.676
31.9535 10.791
31.9838 10.157
32.0141 9.419
32.0443 7.222
32.0746 6.901
32.1049 6.424
32.1352 4.594
32.1655 4.274
32.1957 3.589
32.2260 2.437
32.2563 4.253
32.2866 2.580
32.3169 1.168
32.3471 1.996
32.3774 1.783
32.4077 1.674
32.4380 1.253
32.4682 1.665
32.4985 1.713
32.5288 0.929
32.5591 -1.158
32.5894 0.246
32.6196 1.389
32.6499 1.074
32.6802 -0.073
32.7105 0.342
32.7408 -0.232
32.7710 1.121
32.8013 0.652
32.8316 -0.546
32.8619 -0.598
32.8921 0.705
32.9224 -0.336
32.9527 -0.282
32.9830 -0.489
33.0133 -0.177
33.0435 -0.178
33.0738 0.186
33.1041 0.134
33.1344 -0.856
33.1647 0.603
33.1949 -0.698
33.2252 -0.489
33.2555 0.488
33.2858 -0.358
33.3160 0.462
33.3463 -0.592
33.3766 -0.291
33.4069 -0.042
33.4372 0.468
33.4674 -0.273
33.4977 -0.335
33.5280 1.217
33.5583 0.009
33.5886 1.041
33.6188 -0.478
33.6491 0.502
33.6794 1.796
33.7097 0.798
33.7399 1.884
33.7702 1.877
33.8005 1.088
33.8308 1.550
33.8611 2.064
33.8913 4.402
33.9216 3.302
33.9519 5.015
33.9822 6.677
34.0125 7.453
34.0427 9.167
34.0730 11.507
34.1033 15.097
34.1336 17.281
34.1638 21.080
34.1941 29.827
34.2244 40.605
34.2547 51.332
34.2850 52.997
34.3152 50.756
34.3455 46.224
34.3758 39.660
34.4061 32.576
34.4364 25.024
34.4666 18.410
34.4969 14.087
34.5272 11.588
34.5575 8.412
34.5877 7.163
34.6180 5.655
34.6483 6.282
34.6786 5.243
34.7089 3.319
34.7391 3.582
34.7694 2.440
34.7997 2.131
34.8300 1.875
34.8603 2.192
34.8905 1.676
34.9208 0.691
34.9511 1.478
34.9814 2.213
35.0116 1.021
35.0419 1.548
35.0722 0.982
35.1025 2.031
35.1328 1.414
35.1630 2.151
35.1933 2.211
35.2236 2.323
35.2539 1.655
35.2842 4.268
35.3144 2.195
35.3447 3.923
35.3750 4.090
35.4053 4.152
35.4356 4.215
35.4658 4.799
35.4961 4.446
35.5264 7.062
35.5567 6.345
35.5869 8.389
35.6172 8.245
35.6475 9.196
35.6778 9.626
35.7081 10.421
35.7383 12.414
35.7686 15.085
35.7989 17.860
35.8292 17.198
35.8595 23.151
35.8897 24.938
35.9200 31.569
35.9503 37.679
35.9806 38.946
36.0108 43.651
36.0411 49.710
36.0714 51.238
36.1017 56.725
36.1320 58.827
36.1622 57.335
36.1925 54.594
36.2228 49.770
36.2531 42.498
36.2834 38.820
36.3136 34.361
36.3439 27.872
36.3742 26.018
36.4045 23.123
36.4347 19.551
36.4650 16.292
36.4953 14.127
36.5256 10.400
36.5559 9.954
36.5861 8.467
36.6164 9.168
36.6467 7.265
36.6770 6.352
36.7073 6.950
36.7375 4.787
36.7678 4.344
36.7981 4.891
36.8284 3.355
36.8586 2.339
36.8889 2.679
36.9192 3.695
36.9495 2.421
36.9798 2.136
37.0100 2.477
37.0403 1.516
37.0706 1.597
37.1009 0.063
37.1312 1.187
37.1614 0.071
37.1917 1.195
37.2220 -0.077
37.2523 0.058
37.2825 0.506
37.3128 1.371
37.3431 0.673
37.3734 0.393
37.4037 0.321
37.4339 0.875
37.4642 1.065
37.4945 0.786
37.5248 0.507
37.5551 0.281
37.5853 0.211
37.6156 -0.067
37.6459 0.489
37.6762 1.150
37.7064 -0.116
37.7367 0.128
37.7670 0.477
37.7973 0.149
37.8276 -0.386
37.8578 -0.621
37.8881 0.915
37.9184 -0.048
37.9487 0.135
37.9790 0.006
38.0092 0.293
38.0395 0.113
38.0698 -0.120
38.1001 0.429
38.1304 0.146
38.1606 0.175
38.1909 -0.004
38.2212 -0.548
38.2515 0.524
38.2817 -0.019
38.3120 -0.092
38.3423 -0.426
38.3726 0.699
38.4029 0.366
38.4331 -0.331
38.4634 0.014
38.4937 0.568
38.5240 -0.181
38.5543 0.582
38.5845 0.459
38.6148 -0.184
38.6451 0.163
38.6754 0.823
38.7056 0.753
38.7359 0.476
38.7662 -0.113
38.7965 -0.337
38.8268 0.135
38.8570 1.076
38.8873 0.142
38.9176 -0.270
38.9479 0.047
38.9782 0.156
39.0084 0.786
39.0387 -0.250
39.0690 0.121
39.0993 0.648
39.1295 0.342
39.1598 -0.484
39.1901 0.617
39.2204 -0.001
39.2507 0.372
39.2809 -0.401
39.3112 0.389
39.3415 0.762
39.3718 0.095
39.4021 0.313
39.4323 0.635
39.4626 0.333
39.4929 -0.229
39.5232 0.094
39.5534 -0.520
39.5837 -0.048
39.6140 0.111
39.6443 0.739
39.6746 -0.456
39.7048 -0.087
39.7351 -0.083
39.7654 -0.026
39.7957 0.187
39.8260 0.400
39.8562 0.614
39.8865 0.151
39.9168 -0.520
39.9471 -0.102
39.9773 0.107
40.0076 0.786
40.0379 0.215
40.0682 0.373
40.0985 0.688
40.1287 0.066
40.1590 0.278
40.1893 0.594
40.2196 0.129
40.2499 0.758
40.2801 0.346
40.3104 -0.326
40.3407 -0.217
40.3710 -0.055
40.4012 0.419
40.4315 0.530
40.4618 0.068
40.4921 -0.186
40.5224 0.029
40.5526 0.193
40.5829 0.097
40.6132 0.001
40.6435 0.218
40.6738 0.227
40.7040 -0.025
40.7343 0.141
40.7646 0.255
40.7949 0.057
40.8251 0.120
40.8554 -0.026
40.8857 -0.066
40.9160 -0.367
40.9463 0.269
40.9765 -0.031
41.0068 0.346
41.0371 -0.630
41.0674 0.008
41.0977 -0.239
41.1279 0.087
41.1582 0.049
41.1885 0.481
41.2188 -0.130
41.2491 -0.271
41.2793 -0.174
41.3096 0.704
41.3399 0.332
41.3702 -0.039
41.4004 0.319
41.4307 0.053
41.4610 0.047
41.4913 -0.323
41.5216 0.193
41.5518 -0.176
41.5821 0.340
41.6124 0.493
41.6427 -0.032
41.6730 0.486
41.7032 0.014
41.7335 0.480
41.7638 -0.095
41.7941 0.371
41.8243 0.109
41.8546 0.264
41.8849 0.263
41.9152 -0.102
41.9455 0.054
41.9757 0.262
42.0060 0.158
42.0363 0.367
42.0666 -0.100
42.0969 0.057
42.1271 0.007
42.1574 -0.512
42.1877 0.272
42.2180 -0.299
42.2482 0.381
42.2785 0.124
42.3088 0.284
42.3391 0.236
42.3694 -0.020
42.3996 -0.276
42.4299 -0.018
42.4602 -0.332
42.4905 0.552
42.5208 0.082
42.5510 0.393
42.5813 0.184
42.6116 0.288
42.6419 -0.389
42.6721 0.340
42.7024 0.029
42.7327 0.290
42.7630 -0.125
42.7933 -0.124
42.8235 0.035
42.8538 -0.276
42.8841 -0.335
42.9144 0.387
42.9447 0.225
42.9749 -0.042
43.0052 -0.048
43.0355 -0.157
43.0658 0.515
43.0960 -0.063
43.1263 0.141
43.1566 -0.332
43.1869 0.133
43.2172 -0.236
43.2474 0.334
43.2777 0.123
43.3080 0.277
43.3383 0.223
43.3686 0.169
43.3988 -0.041
43.4291 0.322
43.4594 0.113
43.4897 0.373
43.5199 0.425
43.5502 -0.408
43.5805 0.269
43.6108 0.166
43.6411 0.532
43.6713 -0.248
43.7016 -0.090
43.7319 0.850
43.7622 0.071
43.7925 0.334
43.8227 0.233
43.8530 0.028
43.8833 0.397
43.9136 0.036
43.9439 -0.376
43.9741 0.046
44.0044 -0.157
44.0347 0.056
44.0650 0.062
44.0952 0.121
44.1255 0.440
44.1558 -0.335
44.1861 -0.276
44.2164 0.089
44.2466 -0.276
44.2769 -0.068
44.3072 0.348
44.3375 0.087
44.3678 0.504
44.3980 -0.485
44.4283 -0.276
44.4586 -0.074
44.4889 0.127
44.5191 0.798
44.5494 -0.145
44.5797 0.005
44.6100 0.052
44.6403 -0.109
44.6705 0.251
44.7008 -0.170
44.7311 -0.226
44.7614 -0.074
44.7917 -0.337
44.8219 0.121
44.8522 0.476
44.8825 -0.158
44.9128 0.042
44.9430 0.085
44.9733 0.337
45.0036 0.017
45.0339 -0.095
45.0642 0.262
45.0944 -0.318
45.1247 0.353
45.1550 0.607
45.1853 0.080
45.2156 -0.290
45.2458 -0.139
45.2761 0.116
45.3064 -0.045
45.3367 0.471
45.3669 0.519
45.3972 0.255
45.4275 0.512
45.4578 0.040
45.4881 -0.275
45.5183 -0.121
45.5486 -0.332
45.5789 0.187
45.6092 0.811
45.6395 0.185
45.6697 -0.233
45.7000 -0.025
45.7303 -0.025
45.7606 -0.389
45.7908 0.073
45.8211 -0.193
45.8514 0.427
45.8817 0.110
45.9120 -0.416
45.9422 -0.066
45.9725 -0.237
46.0028 -0.043
46.0331 0.308
46.0634 -0.123
46.0936 0.020
46.1239 0.528
46.1542 0.671
46.1845 -0.383
46.2147 0.282
46.2450 0.010
46.2753 1.093
46.3056 0.092
46.3359 0.342
46.3661 0.071
46.3964 0.790
46.4267 -0.522
46.4570 0.094
46.4873 0.345
46.5175 1.014
46.5478 -0.505
46.5781 0.372
46.6084 0.313
46.6386 1.191
46.6689 0.506
46.6992 1.385
46.7295 1.171
46.7598 1.321
46.7900 1.211
46.8203 0.633
46.8506 0.888
46.8809 1.300
46.9112 1.660
46.9414 2.125
46.9717 2.955
47.0020 1.597
47.0323 2.271
47.0626 3.831
47.0928 3.985
47.1231 3.722
47.1534 4.658
47.1837 6.167
47.2139 6.166
47.2442 6.634
47.2745 8.769
47.3048 8.144
47.3351 9.811
47.3653 10.437
47.3956 12.365
47.4259 11.012
47.4562 10.910
47.4865 10.912
47.5167 9.456
47.5470 9.250
47.5773 7.482
47.6076 7.121
47.6378 6.135
47.6681 4.316
47.6984 4.841
47.7287 4.950
47.7590 3.757
47.7892 3.762
47.8195 2.101
47.8498 2.264
47.8801 3.051
47.9104 1.235
47.9406 0.877
47.9709 0.207
48.0012 0.632
48.0315 1.161
48.0617 0.440
48.0920 1.594
48.1223 0.562
48.1526 0.206
48.1829 0.112
48.2131 0.695
48.2434 0.184
48.2737 0.560
48.3040 0.154
48.3343 1.103
48.3645 -0.136
48.3948 -0.592
48.4251 0.462
48.4554 0.214
48.4856 0.435
48.5159 -0.333
48.5462 0.410
48.5765 0.268
48.6068 0.438
48.6370 0.349
48.6673 0.260
48.6976 0.171
48.7279 0.499
48.7582 -0.006
48.7884 0.792
48.8187 0.444
48.8490 0.096
48.8793 0.010
48.9095 -0.285
48.9398 -0.234
48.9701 0.443
49.0004 -0.026
49.0307 0.339
49.0609 0.392
49.0912 0.601
49.1215 0.186
49.1518 0.291
49.1821 -0.227
49.2123 -0.225
49.2426 0.350
49.2729 0.041
49.3032 0.201
49.3334 -0.056
49.3637 0.104
49.3940 0.473
49.4243 0.113
49.4546 -0.247
49.4848 0.280
49.5151 0.546
49.5454 0.135
49.5757 -0.067
49.6060 0.096
49.6362 -0.053
49.6665 -0.150
49.6968 0.274
49.7271 -0.083
49.7574 0.238
49.7876 0.507
49.8179 0.725
49.8482 -0.047
49.8785 0.327
49.9087 0.129
49.9390 0.451
49.9693 -0.111
49.9996 0.213
50.0299 0.068
50.0601 -0.285
50.0904 -0.027
50.1207 -0.134
50.1510 -0.136
50.1813 0.487
50.2115 -0.243
50.2418 0.121
50.2721 -0.036
50.3024 0.328
50.3326 0.224
50.3629 0.120
50.3932 0.329
50.4235 -0.139
50.4538 0.748
50.4840 0.125
50.5143 -0.238
50.5446 0.754
50.5749 -0.129
50.6052 0.447
50.6354 0.399
50.6657 0.402
50.6960 -0.062
50.7263 1.348
50.7565 -0.105
50.7868 -0.152
50.8171 0.113
50.8474 0.275
50.8777 0.021
50.9079 -0.337
50.9382 0.017
50.9685 -0.044
50.9988 0.415
51.0291 0.406
51.0593 0.398
51.0896 -0.131
51.1199 -0.139
51.1502 0.478
51.1804 0.211
51.2107 0.048
51.2410 0.301
51.2713 0.191
51.3016 0.029
51.3318 0.388
51.3621 0.331
51.3924 0.326
51.4227 0.113
51.4530 0.004
51.4832 -0.104
51.5135 -0.263
51.5438 0.254
51.5741 0.251
51.6043 -0.168
51.6346 0.663
51.6649 -0.016
51.6952 -0.017
51.7255 0.502
51.7557 0.085
51.7860 -0.332
51.8163 0.240
51.8466 0.240
51.8769 -0.332
51.9071 0.033
51.9374 0.034
51.9677 0.088
51.9980 0.506
52.0282 0.404
52.0585 0.094
52.0888 0.201
52.1191 0.152
52.1494 0.156
52.1796 0.055
52.2099 -0.097
52.2402 -0.561
52.2705 0.173
52.3008 -0.239
52.3310 -0.337
52.3613 0.284
52.3916 -0.187
52.4219 0.383
52.4521 -0.400
52.4824 0.067
52.5127 0.430
52.5430 0.168
52.5733 0.271
52.6035 0.219
52.6338 -0.459
52.6641 0.739
52.6944 -0.302
52.7247 0.272
52.7549 0.065
52.7852 0.274
52.8155 0.172
52.8458 -0.191
52.8761 0.020
52.9063 0.335
52.9366 -0.026
52.9669 0.290
52.9972 0.190
53.0274 -0.171
53.0577 -0.271
53.0880 -0.225
53.1183 -0.074
53.1486 0.129
53.1788 0.124
53.2091 -0.193
53.2394 0.219
53.2697 -0.097
53.3000 0.576
53.3302 0.364
53.3605 0.153
53.3908 0.463
53.4211 0.617
53.4513 0.146
53.4816 -0.116
53.5119 0.091
53.5422 -0.014
53.5725 0.193
53.6027 -0.276
53.6330 -0.276
53.6633 0.079
53.6936 0.278
53.7239 0.061
53.7541 0.261
53.7844 -0.008
53.8147 -0.224
53.8450 -0.076
53.8752 0.125
53.9055 -0.090
53.9358 0.008
53.9661 -0.468
53.9964 0.045
54.0266 0.245
54.0569 -0.128
54.0872 -0.083
54.1175 0.118
54.1478 -0.098
54.1780 0.208
54.2083 -0.215
54.2386 -0.117
54.2689 0.086
54.2991 0.602
54.3294 0.232
54.3597 -0.085
54.3900 0.223
54.4203 -0.197
54.4505 -0.045
54.4808 0.160
54.5111 -0.311
54.5414 -0.113
54.5717 -0.019
54.6019 0.336
54.6322 0.275
54.6625 0.162
54.6928 -0.003
54.7230 0.718
54.7533 0.033
54.7836 -0.027
54.8139 0.070
54.8442 -0.041
54.8744 -0.204
54.9047 -0.054
54.9350 -0.268
54.9653 0.143
54.9956 -0.175
55.0258 0.080
55.0561 0.493
55.0864 0.488
55.1167 0.016
55.1469 -0.092
55.1772 -0.304
55.2075 0.048
55.2378 0.191
55.2681 0.387
55.2983 0.584
55.3286 0.103
55.3589 0.509
55.3892 -0.023
55.4195 0.226
55.4497 0.893
55.4800 0.571
55.5103 0.457
55.5406 0.500
55.5709 0.282
55.6011 0.690
55.6314 -0.047
55.6617 2.184
55.6920 0.822
55.7222 1.440
55.7525 0.496
55.7828 2.156
55.8131 1.472
55.8434 2.039
55.8736 1.825
55.9039 2.341
55.9342 1.867
55.9645 2.748
55.9948 3.108
56.0250 2.843
56.0553 2.840
56.0856 3.670
56.1159 4.240
56.1461 4.914
56.1764 5.485
56.2067 6.160
56.2370 8.606
56.2673 7.355
56.2975 8.864
56.3278 9.332
56.3581 10.373
56.3884 12.301
56.4187 11.520
56.4489 14.906
56.4792 12.563
56.5095 11.939
56.5398 12.983
56.5700 11.214
56.6003 10.904
56.6306 9.552
56.6609 9.243
56.6912 8.986
56.7214 8.937
56.7517 6.597
56.7820 5.456
56.8123 5.252
56.8426 3.643
56.8728 3.961
56.9031 2.977
56.9334 4.545
56.9637 2.312
56.9939 3.308
57.0242 2.169
57.0545 2.125
57.0848 1.716
57.1151 1.515
57.1453 1.524
57.1756 1.324
57.2059 1.073
57.2362 1.134
57.2665 1.196
57.2967 0.529
57.3270 0.435
57.3573 0.185
57.3876 0.352
57.4178 0.364
57.4481 0.636
57.4784 0.492
57.5087 0.400
57.5390 0.933
57.5692 -0.095
57.5995 0.283
57.6298 0.244
57.6601 0.206
57.6904 0.168
57.7206 -0.025
57.7509 0.354
57.7812 -0.307
57.8115 0.125
57.8417 -0.015
57.8720 -0.520
57.9023 0.060
57.9326 0.588
57.9629 0.127
57.9931 -0.125
58.0234 0.665
58.0537 -0.004
58.0840 0.578
58.1143 0.744
58.1445 0.285
58.1748 -0.278
58.2051 -0.060
58.2354 0.472
58.2656 0.848
58.2959 0.494
58.3262 0.298
58.3565 0.206
58.3868 0.426
58.4170 0.439
58.4473 -0.069
58.4776 0.413
58.5079 0.062
58.5382 0.233
58.5684 -0.013
58.5987 -0.415
58.6290 0.051
58.6593 0.361
58.6896 0.099
58.7198 0.514
58.7501 0.253
58.7804 0.096
58.8107 -0.113
58.8409 -0.113
58.8712 -0.061
58.9015 -0.165
58.9318 0.305
58.9621 0.514
58.9923 -0.474
59.0226 0.049
59.0529 0.572
59.0832 0.470
59.1135 0.786
59.1437 0.372
59.1740 -0.093
59.2043 0.640
59.2346 0.488
59.2648 0.232
59.2951 0.133
59.3254 0.086
59.3557 0.039
59.3860 0.618
59.4162 -0.209
59.4465 0.527
59.4768 0.534
59.5071 0.593
59.5374 0.080
59.5676 -0.173
59.5979 0.096
59.6282 -0.260
59.6585 -0.057
59.6887 0.250
59.7190 -0.067
59.7493 0.814
59.7796 0.237
59.8099 0.233
59.8401 0.594
59.8704 -0.086
59.9007 -0.089
59.9310 0.742
59.9613 0.428
59.9915 0.166
60.0218 0.216
60.0521 0.736
60.0824 0.527
60.1126 0.527
60.1429 0.110
60.1732 0.527
60.2035 0.423
60.2338 0.476
60.2640 -0.199
60.2943 0.219
60.3246 0.638
60.3549 -0.037
60.3852 0.278
60.4154 -0.136
60.4457 0.180
60.4760 -0.441
60.5063 -0.140
60.5365 -0.151
60.5668 0.203
60.5971 -0.120
60.6274 -0.338
60.6577 0.850
60.6879 0.007
60.7182 0.832
60.7485 0.302
60.7788 0.398
60.8091 -0.391
60.8393 0.278
60.8696 -0.302
60.8999 0.420
60.9302 0.310
60.9604 0.095
60.9907 0.297
61.0210 0.292
61.0513 -0.078
61.0816 0.021
61.1118 0.068
61.1421 0.377
61.1724 0.060
61.2027 0.161
61.2330 -0.520
61.2632 -0.120
61.2935 0.802
61.3238 -0.308
61.3541 0.249
61.3844 0.494
61.4146 0.635
61.4449 -0.108
61.4752 0.398
61.5055 0.019
61.5357 0.579
61.5660 0.617
61.5963 0.292
61.6266 -0.033
61.6569 0.423
61.6871 0.307
61.7174 0.347
61.7477 0.492
61.7780 0.169
61.8083 0.210
61.8385 0.825
61.8688 0.190
61.8991 0.337
61.9294 0.431
61.9596 0.474
61.9899 0.674
62.0202 1.603
62.0505 1.075
62.0808 1.379
62.1110 1.112
62.1413 1.730
62.1716 1.410
62.2019 1.352
62.2322 2.284
62.2624 1.913
62.2927 2.741
62.3230 3.309
62.3533 2.575
62.3835 4.238
62.4138 3.453
62.4441 4.595
62.4744 5.425
62.5047 6.463
62.5349 7.815
62.5652 8.073
62.5955 8.331
62.6258 9.736
62.6561 10.724
62.6863 10.515
62.7166 12.910
62.7469 12.129
62.7772 12.233
62.8074 11.087
62.8377 10.671
62.8680 10.204
62.8983 7.705
62.9286 8.332
62.9588 7.552
62.9891 6.097
63.0194 5.891
63.0497 4.592
63.0800 4.439
63.1102 3.818
63.1405 4.134
63.1708 3.461
63.2011 3.727
63.2313 2.377
63.2616 1.706
63.2919 1.711
63.3222 1.040
63.3525 0.526
63.3827 1.001
63.4130 0.956
63.4433 1.016
63.4736 0.450
63.5039 0.979
63.5341 0.727
63.5644 1.205
63.5947 -0.349
63.6250 0.025
63.6552 0.087
63.6855 0.878
63.7158 -0.205
63.7461 -0.090
63.7764 0.598
63.8066 0.036
63.8369 -0.264
63.8672 0.425
63.8975 0.697
63.9278 0.241
63.9580 -0.110
63.9883 -0.513
64.0186 0.594
64.0489 0.191
64.0791 0.206
64.1094 0.012
64.1397 -0.285
64.1700 -0.338
64.2003 0.495
64.2305 0.183
64.2608 -0.285
64.2911 -0.238
64.3214 0.487
64.3517 0.274
64.3819 0.270
64.4122 0.059
64.4425 0.055
64.4728 0.313
64.5031 -0.366
64.5333 0.100
64.5636 -0.110
64.5939 0.045
64.6242 0.044
64.6544 -0.061
64.6847 -0.426
64.7150 0.667
64.7453 -0.322
64.7756 0.043
64.8058 0.356
64.8361 -0.007
64.8664 -0.214
64.8967 0.101
64.9270 -0.001
64.9572 -0.311
64.9875 0.047
65.0178 -0.427
65.0481 0.141
65.0783 -0.489
65.1086 0.131
65.1389 0.023
65.1692 -0.189
65.1995 0.693
65.2297 -0.404
65.2600 0.530
65.2903 0.528
65.3206 0.161
65.3509 1.045
65.3811 -0.207
65.4114 0.469
65.4417 0.260
65.4720 -0.157
65.5022 0.259
65.5325 -0.366
65.5628 -0.053
65.5931 -0.156
65.6234 -0.311
65.6536 0.188
65.6839 0.166
65.7142 0.353
65.7445 0.384
65.7748 -0.053
65.8050 -0.177
65.8353 0.376
65.8656 0.565
65.8959 0.858
65.9261 0.058
65.9564 0.925
65.9867 0.073
66.0170 0.993
66.0473 0.559
66.0775 1.114
66.1078 1.410
66.1381 0.716
66.1684 0.700
66.1987 1.205
66.2289 1.450
66.2592 0.393
66.2895 1.212
66.3198 0.833
66.3500 0.610
66.3803 0.961
66.4106 0.999
66.4409 0.465
66.4712 1.234
66.5014 1.534
66.5317 -0.197
66.5620 -0.105
66.5923 -0.064
66.6226 0.549
66.6528 -0.191
66.6831 0.163
66.7134 0.622
66.7437 -0.325
66.7739 0.030
66.8042 0.020
66.8345 -0.093
66.8648 -0.101
66.8951 0.620
66.9253 0.091
66.9556 0.344
66.9859 0.597
67.0162 0.591
67.0465 -0.197
67.0767 0.370
67.1070 0.364
67.1373 0.619
67.1676 1.082
67.1978 0.504
67.2281 0.552
67.2584 0.860
67.2887 1.325
67.3190 1.738
67.3492 1.943
67.3795 1.680
67.4098 1.365
67.4401 2.613
67.4704 3.236
67.5006 3.026
67.5309 3.025
67.5612 3.806
67.5915 5.263
67.6218 4.951
67.6520 4.378
67.6823 6.774
67.7126 4.692
67.7429 7.089
67.7731 6.882
67.8034 7.561
67.8337 7.615
67.8640 7.097
67.8943 4.964
67.9245 7.103
67.9548 7.471
67.9851 5.496
68.0154 5.552
68.0457 5.504
68.0759 3.322
68.1062 3.900
68.1365 3.384
68.1668 4.276
68.1970 3.084
68.2273 2.413
68.2576 2.160
68.2879 3.261
68.3182 2.226
68.3484 2.547
68.3787 1.097
68.4090 1.261
68.4393 2.468
68.4696 1.071
68.4998 1.393
68.5301 1.195
68.5604 0.892
68.5907 1.371
68.6209 2.007
68.6512 1.654
68.6815 2.290
68.7118 2.875
68.7421 1.689
68.7723 2.431
68.8026 2.184
68.8329 2.665
68.8632 2.783
68.8935 3.474
68.9237 4.165
68.9540 3.034
68.9843 3.309
69.0146 2.856
69.0448 3.392
69.0751 3.616
69.1054 3.216
69.1357 2.347
69.1660 2.937
69.1962 1.652
69.2265 2.190
69.2568 1.166
69.2871 0.820
69.3174 0.734
69.3476 1.222
69.3779 0.772
69.4082 1.313
69.4385 0.082
69.4687 0.363
69.4990 0.436
69.5293 0.561
69.5596 0.634
69.5899 0.708
69.6201 -0.104
69.6504 -0.290
69.6807 -0.120
69.7110 0.154
69.7413 -0.561
69.7715 0.442
69.8018 0.301
69.8321 0.368
69.8624 -0.033
69.8926 0.607
69.9229 -0.002
69.9532 0.223
69.9835 -0.489
70.0138 0.465
70.0440 0.222
70.0743 0.344
70.1046 -0.419
70.1349 -0.245
70.1652 -0.122
70.1954 -0.363
70.2257 0.168
70.2560 0.022
70.2863 -0.176
70.3166 -0.112
70.3468 0.108
70.3771 -0.245
70.4074 -0.493
70.4377 0.290
70.4679 0.241
70.4982 0.349
70.5285 -0.012
70.5588 -0.060
70.5891 -0.003
70.6193 -0.259
70.6496 0.058
70.6799 0.271
70.7102 -0.296
70.7405 0.022
70.7707 0.236
70.8010 0.555
70.8313 0.301
70.8616 0.204
70.8918 1.044
70.9221 0.115
70.9524 0.175
70.9827 -0.234
71.0130 -0.173
71.0432 0.044
71.0735 -0.311
71.1038 0.005
71.1341 0.165
71.1644 0.117
71.1946 0.330
71.2249 0.335
71.2552 0.235
71.2855 0.449
71.3157 -0.170
71.3460 0.149
71.3763 0.051
71.4066 0.006
71.4369 0.430
71.4671 0.333
71.4974 -0.597
71.5277 0.453
71.5580 0.097
71.5883 -0.624
71.6185 -0.059
71.6488 0.194
71.6791 0.239
71.7094 -0.342
71.7396 -0.036
71.7699 0.270
71.8002 0.316
71.8305 -0.158
71.8608 -0.164
71.8910 0.456
71.9213 0.243
71.9516 0.187
71.9819 0.287
72.0122 0.283
72.0424 -0.137
72.0727 0.068
72.1030 0.274
72.1333 0.688
72.1635 1.154
72.1938 0.371
72.2241 -0.255
72.2544 0.733
72.2847 0.629
72.3149 0.472
72.3452 0.940
72.3755 0.680
72.4058 0.525
72.4361 0.369
72.4663 0.943
72.4966 0.737
72.5269 0.478
72.5572 0.585
72.5874 0.587
72.6177 0.278
72.6480 0.333
72.6783 0.024
72.7086 -0.128
72.7388 0.397
72.7691 0.766
72.7994 0.614
72.8297 0.359
72.8600 0.000
72.8902 0.058
72.9205 0.169
72.9508 0.332
72.9811 0.026
73.0113 -0.279
73.0416 0.353
73.0719 0.309
73.1022 -0.151
73.1325 0.013
73.1627 0.126
73.1930 -0.073
73.2233 -0.115
73.2536 -0.105
73.2839 -0.147
73.3141 0.489
73.3444 -0.021
73.3747 0.146
73.4050 -0.363
73.4353 -0.093
73.4655 0.125
73.4958 -0.177
73.5261 0.459
73.5564 -0.155
73.5866 -0.092
73.6169 -0.028
73.6472 0.140
73.6775 0.048
73.7078 -0.095
73.7380 0.334
73.7683 0.556
73.7986 0.361
73.8289 0.635
73.8592 0.233
73.8894 0.248
73.9197 0.263
73.9500 0.434
73.9803 0.294
74.0105 -0.107
74.0408 -0.195
74.0711 0.111
74.1014 0.313
74.1317 0.463
74.1619 0.614
74.1922 0.140
74.2225 0.395
74.2528 0.235
74.2831 -0.238
74.3133 0.226
74.3436 0.223
74.3739 -0.249
74.4042 0.217
74.4344 0.214
74.4647 0.212
74.4950 0.106
74.5253 0.208
74.5556 0.519
74.5858 0.675
74.6161 0.205
74.6464 0.205
74.6767 0.049
74.7070 0.049
74.7372 -0.106
74.7675 0.207
74.7978 0.313
74.8281 0.158
74.8583 -0.152
74.8886 -0.202
74.9189 -0.159
74.9492 0.249
74.9795 0.188
75.0097 -0.288
75.0400 0.120
75.0703 0.425
75.1006 0.158
75.1309 0.203
75.1611 -0.220
75.1914 0.294
75.2217 -0.076
75.2520 -0.186
75.2822 0.486
75.3125 -0.091
75.3428 0.008
75.3731 -0.048
75.4034 -0.052
75.4336 -0.212
75.4639 -0.215
75.4942 0.034
75.5245 0.127
75.5548 -0.352
75.5850 0.419
75.6153 0.044
75.6456 0.034
75.6759 0.077
75.7061 -0.141
75.7364 0.215
75.7667 0.467
75.7970 -0.114
75.8273 0.139
75.8575 0.079
75.8878 0.333
75.9181 0.222
75.9484 0.319
75.9787 -0.051
76.0089 -0.005
76.0392 -0.167
76.0695 0.401
76.0998 -0.176
76.1301 -0.233
76.1603 0.022
76.1906 0.330
76.2209 0.065
76.2512 0.425
76.2814 -0.047
76.3117 0.210
76.3420 -0.158
76.3723 0.360
76.4026 0.409
76.4328 0.095
76.4631 0.093
76.4934 0.352
76.5237 0.819
76.5540 0.818
76.5842 0.505
76.6145 0.818
76.6448 0.089
76.6751 0.714
76.7053 1.184
76.7356 0.456
76.7659 0.405
76.7962 1.084
76.8265 1.034
76.8567 0.359
76.8870 1.247
76.9173 0.678
76.9476 1.462
76.9779 0.789
77.0081 0.585
77.0384 1.319
77.0687 0.230
77.0990 0.235
77.1292 0.188
77.1595 0.194
77.1898 0.304
77.2201 0.363
77.2504 -0.047
77.2806 0.064
77.3109 0.020
77.3412 0.444
77.3715 0.504
77.4018 0.305
77.4320 0.886
77.4623 0.062
77.4926 0.280
77.5229 -0.283
77.5531 -0.221
77.5834 -0.120
77.6137 0.189
77.6440 0.030
77.6743 -0.128
77.7045 0.130
77.7348 0.024
77.7651 0.336
77.7954 0.595
77.8257 -0.135
77.8559 0.177
77.8862 0.021
77.9165 0.490
77.9468 0.491
77.9770 0.336
78.0073 -0.132
78.0376 0.235
78.0679 0.497
78.0982 0.551
78.1284 0.189
78.1587 -0.172
78.1890 0.040
78.2193 0.147
78.2496 -0.161
78.2798 0.052
78.3101 0.160
78.3404 -0.147
78.3707 -0.402
78.4009 0.281
78.4312 0.026
78.4615 -0.019
78.4918 0.091
78.5221 -0.006
78.5523 -0.519
78.5826 0.052
78.6129 0.676
78.6432 0.363
78.6735 0.258
78.7037 -0.263
78.7340 0.206
78.7643 0.259
78.7946 0.416
78.8248 0.209
78.8551 0.054
78.8854 -0.048
78.9157 0.110
78.9460 0.321
78.9762 0.063
79.0065 -0.090
79.0368 0.174
79.0671 0.074
79.0974 0.182
79.1276 -0.021
79.1579 -0.069
79.1882 0.301
79.2185 -0.006
79.2488 -0.208
79.2790 -0.208
79.3093 0.252
79.3396 0.504
79.3699 -0.285
79.4001 -0.033
79.4304 0.116
79.4607 0.057
79.4910 0.415
79.5213 -0.268
79.5515 0.091
79.5818 0.085
79.6121 -0.233
79.6424 -0.030
79.6727 -0.139
79.7029 -0.352
79.7332 0.477
79.7635 0.056
79.7938 -0.051
79.8240 0.049
79.8543 0.151
79.8846 0.044
79.9149 0.093
79.9452 0.300
79.9754 -0.223
80.0057 0.245
80.0360 -0.121
80.0663 -0.122
80.0966 0.139
80.1268 0.034
80.1571 0.035
80.1874 0.035
80.2177 0.036
80.2479 -0.014
80.2782 -0.221
80.3085 0.034
80.3388 -0.023
80.3691 0.025
80.3993 0.437
80.4296 -0.088
80.4599 0.065
80.4902 -0.147
80.5205 0.163
80.5507 -0.048
80.5810 -0.519
80.6113 0.100
80.6416 0.302
80.6718 0.089
80.7021 0.344
80.7324 -0.129
80.7627 0.440
80.7930 0.123
80.8232 0.120
80.8535 0.064
80.8838 0.270
80.9141 0.007
80.9444 0.057
80.9746 0.888
81.0049 0.209
81.0352 0.364
81.0655 -0.053
81.0957 0.155
81.1260 0.206
81.1563 0.311
81.1866 0.832
81.2169 1.145
81.2471 -0.052
81.2774 0.575
81.3077 0.837
81.3380 0.110
81.3683 -0.044
81.3985 0.375
81.4288 0.014
81.4591 0.903
81.4894 -0.396
81.5196 1.067
81.5499 0.655
81.5802 0.243
81.6105 0.039
81.6408 0.201
81.6710 -0.053
81.7013 0.421
81.7316 -0.458
81.7619 0.330
81.7922 -0.027
81.8224 -0.020
81.8527 0.196
81.8830 -0.056
81.9133 0.057
81.9436 0.065
81.9738 0.439
82.0041 0.084
82.0344 0.094
82.0647 0.208
82.0949 0.010
82.1252 0.281
82.1555 0.397
82.1858 0.096
82.2161 0.472
82.2463 -0.141
82.2766 -0.337
82.3069 0.183
82.3372 0.235
82.3675 0.183
82.3977 0.027
82.4280 0.393
82.4583 0.498
82.4886 0.239
82.5188 0.814
82.5491 0.764
82.5794 -0.171
82.6097 0.769
82.6400 0.512
82.6702 0.723
82.7005 0.415
82.7308 -0.258
82.7611 -0.202
82.7914 0.004
82.8216 -0.154
82.8519 0.156
82.8822 -0.262
82.9125 0.309
82.9427 -0.212
82.9730 0.100
83.0033 0.360
83.0336 0.099
83.0639 0.152
83.0941 -0.004
83.1244 0.518
83.1547 0.207
83.1850 0.365
83.2153 -0.101
83.2455 0.422
83.2758 0.112
83.3061 -0.145
83.3364 0.067
83.3666 0.383
83.3969 0.022
83.4272 -0.025
83.4575 0.604
83.4878 0.401
83.5180 0.354
83.5483 -0.056
83.5786 -0.207
83.6089 0.105
83.6392 0.782
83.6694 0.209
83.6997 0.001
83.7300 0.367
83.7603 0.264
83.7905 0.109
83.8208 -0.046
83.8511 0.477
83.8814 0.115
83.9117 -0.195
83.9419 -0.195
83.9722 0.058
84.0025 0.780
84.0328 0.252
84.0631 0.089
84.0933 0.447
84.1236 0.233
84.1539 0.019
84.1842 0.118
84.2144 0.634
84.2447 0.212
84.2750 -0.157
84.3053 -0.004
84.3356 -0.008
84.3658 0.301
84.3961 -0.014
84.4264 0.452
84.4567 0.189
84.4870 0.343
84.5172 0.029
84.5475 -0.285
84.5778 0.024
84.6081 0.072
84.6383 0.173
84.6686 0.222
84.6989 0.636
84.7292 0.008
84.7595 0.423
84.7897 0.005
84.8200 0.628
84.8503 -0.519
84.8806 -0.363
84.9109 0.572
84.9411 -0.055
84.9714 0.047
85.0017 -0.319
85.0320 0.045
85.0623 -0.112
85.0925 0.148
85.1228 0.096
85.1531 -0.113
85.1834 0.617
85.2136 0.306
85.2439 0.046
85.2742 0.308
85.3045 -0.158
85.3348 -0.208
85.3650 0.153
85.3953 0.150
85.4256 0.408
85.4559 0.353
85.4862 0.143
85.5164 -0.223
85.5467 0.036
85.5770 0.087
85.6073 -0.383
85.6375 0.919
85.6678 0.034
85.6981 0.138
85.7284 0.087
85.7587 0.036
85.7889 0.089
85.8192 0.247
85.8495 0.405
85.8798 -0.322
85.9101 0.514
85.9403 -0.160
85.9706 -0.208
86.0009 0.049
86.0312 -0.265
86.0614 0.149
86.0917 -0.009
86.1220 -0.218
86.1523 0.197
86.1826 0.040
86.2128 0.353
86.2431 -0.064
86.2734 0.249
86.3037 0.145
86.3340 -0.166
86.3642 0.148
86.3945 -0.007
86.4248 0.151
86.4551 -0.003
86.4853 -0.208
86.5156 0.044
86.5459 0.036
86.5762 -0.023
86.6065 0.438
86.6367 0.588
86.6670 -0.148
86.6973 -0.154
86.7276 0.309
86.7579 -0.009
86.7881 0.298
86.8184 0.189
86.8487 -0.180
86.8790 0.285
86.9092 0.021
86.9395 -0.087
86.9698 -0.351
87.0001 0.532
87.0304 0.061
87.0606 0.007
87.0909 -0.360
87.1212 0.056
87.1515 -0.102
87.1818 -0.415
87.2120 0.158
87.2423 0.366
87.2726 -0.154
87.3029 0.107
87.3331 -0.049
87.3634 0.213
87.3937 -0.202
87.4240 0.061
87.4543 0.115
87.4845 0.118
87.5148 0.017
87.5451 0.281
87.5754 -0.080
87.6057 0.132
87.6359 0.085
87.6662 -0.067
87.6965 -0.062
87.7268 -0.056
87.7571 -0.363
87.7873 0.094
87.8176 0.134
87.8479 -0.034
87.8782 0.059
87.9084 0.152
87.9387 0.142
87.9690 -0.233
87.9993 -0.091
88.0296 -0.105
88.0598 0.038
88.0901 -0.027
88.1204 0.064
88.1507 0.416
88.1810 -0.325
88.2112 -0.233
88.2415 -0.192
88.2718 -0.047
88.3021 -0.006
88.3323 -0.016
88.3626 0.026
88.3929 0.016
88.4232 0.267
88.4535 -0.158
88.4837 -0.115
88.5140 0.189
88.5443 -0.184
88.5746 -0.295
88.6049 0.531
88.6351 0.211
88.6654 0.048
88.6957 0.094
88.7260 -0.121
88.7562 0.030
88.7865 -0.184
88.8168 -0.085
88.8471 0.327
88.8774 0.740
88.9076 0.684
88.9379 0.263
88.9682 0.729
88.9985 0.673
89.0288 0.358
89.0590 -0.009
89.0893 0.614
89.1196 0.404
89.1499 0.663
89.1801 0.714
89.2104 1.599
89.2407 0.817
89.2710 0.661
89.3013 0.401
89.3315 1.808
89.3618 1.132
89.3921 1.446
89.4224 0.718
89.4527 1.449
89.4829 1.556
89.5132 1.767
89.5435 1.353
89.5738 1.304
89.6040 1.620
89.6343 1.260
89.6646 1.316
89.6949 1.633
89.7252 1.274
89.7554 0.810
89.7857 1.597
89.8160 1.134
89.8463 1.245
89.8766 0.991
89.9068 0.842
89.9371 0.537
89.9674 0.857
89.9977 0.761
90.0279 0.508
90.0582 0.778
90.0885 0.630
90.1188 0.744
90.1491 0.233
90.1793 0.503
90.2096 0.409
90.2399 0.368
90.2702 0.691
90.3005 0.702
90.3307 0.037
90.3610 -0.055
90.3913 0.582
90.4216 -0.030
90.4518 0.452
90.4821 0.152
90.5124 -0.199
90.5427 0.076
90.5730 0.038
90.6032 0.261
90.6335 0.693
90.6638 0.344
90.6941 0.359
90.7244 0.323
90.7546 0.183
90.7849 0.148
90.8152 0.633
90.8455 0.911
90.8758 0.616
90.9060 -0.199
90.9363 -0.233
90.9666 0.228
90.9969 0.063
91.0271 0.316
91.0574 0.673
91.0877 0.353
91.1180 -0.278
91.1483 -0.285
91.1785 0.327
91.2088 -0.363
91.2391 -0.114
91.2694 0.030
91.2997 0.070
91.3299 0.111
91.3602 -0.160
91.3905 -0.171
91.4208 0.756
91.4510 -0.035
91.4813 -0.149
91.5116 -0.054
91.5419 -0.063
91.5722 0.345
91.6024 0.180
91.6327 0.172
91.6630 0.061
91.6933 0.314
91.7236 -0.006
91.7538 -0.064
91.7841 -0.227
91.8144 0.025
91.8447 -0.035
91.8749 0.530
91.9052 0.211
91.9355 -0.057
91.9658 0.561
91.9961 0.086
92.0263 -0.024
92.0566 0.387
92.0869 0.278
92.1172 0.273
92.1475 -0.096
92.1777 -0.101
92.2080 0.104
92.2383 -0.317
92.2686 0.409
92.2988 0.042
92.3291 -0.013
92.3594 -0.171
92.3897 0.191
92.4200 0.346
92.4502 0.136
92.4805 0.135
92.5108 -0.126
92.5411 0.863
92.5714 0.082
92.6016 0.864
92.6319 0.396
92.6622 1.022
92.6925 0.450
92.7227 0.765
92.7530 0.714
92.7833 0.300
92.8136 0.720
92.8439 0.618
92.8741 0.830
92.9044 -0.312
92.9347 0.578
92.9650 0.530
92.9953 0.222
93.0255 0.279
93.0558 -0.132
93.0861 0.082
93.1164 -0.225
93.1466 0.459
93.1769 0.257
93.2072 0.160
93.2375 -0.197
93.2678 0.644
93.2980 0.131
93.3283 0.452
93.3586 0.669
93.3889 0.105
93.4192 -0.302
93.4494 0.593
93.4797 0.239
93.5100 0.562
93.5403 0.364
93.5706 -0.094
93.6008 0.699
93.6311 0.242
93.6614 -0.215
93.6917 -0.215
93.7219 0.131
93.7522 0.165
93.7825 0.251
93.8128 0.390
93.8431 -0.096
93.8733 0.408
93.9036 0.339
93.9339 0.531
93.9642 0.202
93.9945 -0.126
94.0247 0.276
94.0550 0.157
94.0853 0.298
94.1156 0.284
94.1458 -0.251
94.1761 -0.056
94.2064 0.087
94.2367 0.230
94.2670 -0.199
94.2972 0.205
94.3275 -0.119
94.3578 0.286
94.3881 -0.194
94.4184 0.263
94.4486 0.097
94.4789 0.190
94.5092 0.858
94.5395 -0.558
94.5697 -0.255
94.6000 -0.002
94.6303 0.355
94.6606 0.088
94.6909 -0.440
94.7211 0.335
94.7514 0.381
94.7817 0.480
94.8120 0.266
94.8423 0.157
94.8725 0.934
94.9028 0.461
94.9331 0.144
94.9634 0.818
94.9936 1.127
95.0239 0.655
95.0542 1.017
95.0845 0.754
95.1148 0.648
95.1450 1.584
95.1753 1.114
95.2056 1.478
95.2359 0.696
95.2662 1.373
95.2964 0.643
95.3267 0.696
95.3570 0.645
95.3873 0.541
95.4175 1.584
95.4478 0.597
95.4781 0.651
95.5084 0.289
95.5387 0.604
95.5689 0.659
95.5992 0.662
95.6295 -0.011
95.6598 0.358
95.6901 0.310
95.7203 0.627
95.7506 1.518
95.7809 0.690
95.8112 0.331
95.8414 -0.080
95.8717 -0.282
95.9020 0.194
95.9323 -0.008
95.9626 0.156
95.9928 0.164
96.0231 0.016
96.0534 0.284
96.0837 0.137
96.1140 -0.010
96.1442 0.103
96.1745 -0.200
96.2048 0.175
96.2351 -0.075
96.2653 -0.012
96.2956 -0.209
96.3259 0.271
96.3562 0.022
96.3865 -0.070
96.4167 0.307
96.4470 -0.305
96.4773 -0.084
96.5076 0.346
96.5379 0.047
96.5681 0.166
96.5984 0.024
96.6287 -0.014
96.6590 -0.259
96.6893 0.055
96.7195 0.317
96.7498 0.527
96.7801 0.269
96.8104 0.219
96.8406 -0.090
96.8709 -0.139
96.9012 0.542
96.9315 -0.392
96.9618 -0.180
96.9920 -0.227
97.0223 0.183
97.0526 -0.083
97.0829 0.328
97.1132 0.063
97.1434 0.110
97.1737 0.418
97.2040 -0.263
97.2343 0.098
97.2645 -0.270
97.2948 0.300
97.3251 0.297
97.3554 -0.070
97.3857 0.396
97.4159 -0.283
97.4462 0.133
97.4765 -0.181
97.5068 0.026
97.5371 0.286
97.5673 0.390
97.5976 -0.130
97.6279 -0.025
97.6582 -0.337
97.6884 0.071
97.7187 -0.146
97.7490 0.002
97.7793 0.463
97.8096 -0.066
97.8398 0.031
97.8701 0.337
97.9004 0.330
97.9307 -0.093
97.9610 -0.098
97.9912 -0.052
98.0215 -0.578
98.0518 0.146
98.0821 0.090
98.1123 0.398
98.1426 -0.231
98.1729 0.078
98.2032 0.023
98.2335 0.072
98.2637 0.174
98.2940 0.588
98.3243 0.534
98.3546 0.637
98.3849 0.427
98.4151 0.374
98.4454 0.895
98.4757 0.530
98.5060 0.738
98.5362 0.426
98.5665 0.219
98.5968 0.741
98.6271 1.471
98.6574 0.692
98.6876 0.902
98.7179 0.488
98.7482 0.543
98.7785 0.911
98.8088 0.341
98.8390 0.501
98.8693 0.297
98.8996 -0.115
98.9299 0.254
98.9601 0.572
98.9904 -0.256
99.0207 -0.042
99.0510 0.329
99.0813 0.388
99.1115 0.082
99.1418 -0.015
99.1721 0.201
99.2024 0.000
99.2327 0.008
99.2629 0.225
99.2932 0.130
99.3235 0.608
99.3538 0.305
99.3841 0.106
99.4143 0.220
99.4446 0.023
99.4749 -0.227
99.5052 -0.124
99.5354 -0.074
99.5657 0.394
99.5960 -0.179
99.6263 0.133
99.6566 0.238
99.6868 -0.179
99.7171 0.135
99.7474 0.084
99.7777 0.033
99.8080 0.087
99.8382 -0.380
99.8685 0.040
99.8988 0.147
99.9291 0.202
99.9593 0.049
99.9896 0.053
100.0199 0.161
100.0502 -0.199
100.0805 0.118
100.1107 0.019
100.1410 0.025
100.1713 0.551
100.2016 0.089
100.2319 0.147
100.2621 -0.106
100.2924 0.370
100.3227 0.065
100.3530 0.177
100.3832 -0.024
100.4135 0.089
100.4438 0.098
100.4741 0.472
100.5044 -0.040
100.5346 0.491
100.5649 0.449
100.5952 0.147
100.6255 -0.259
100.6558 -0.106
100.6860 0.256
100.7163 -0.111
100.7466 0.251
100.7769 -0.011
100.8071 0.456
100.8374 0.716
100.8677 0.194
100.8980 -0.119
100.9283 -0.275
100.9585 0.558
100.9888 0.246
101.0191 0.247
101.0494 0.300
101.0797 0.041
101.1099 -0.061
101.1402 0.306
101.1705 0.100
101.2008 0.259
101.2310 -0.311
101.2613 -0.218
101.2916 0.500
101.3219 0.228
101.3522 0.270
101.3824 0.520
101.4127 0.458
101.4430 -0.073
101.4733 0.543
101.5036 0.274
101.5338 0.213
101.5641 0.882
101.5944 0.353
101.6247 0.345
101.6549 -0.079
101.6852 0.748
101.7155 0.949
101.7458 0.162
101.7761 -0.157
101.8063 -0.006
101.8366 0.249
101.8669 0.557
101.8972 -0.073
101.9275 0.183
101.9577 0.127
101.9880 0.176
102.0183 0.172
102.0486 0.430
102.0788 0.271
102.1091 0.216
102.1394 -0.306
102.1697 -0.100
102.2000 0.316
102.2302 0.106
102.2605 0.158
102.2908 0.158
102.3211 -0.415
102.3514 -0.118
102.3816 0.595
102.4119 0.424
102.4422 0.670
102.4725 0.551
102.5028 0.433
102.5330 0.263
102.5633 0.302
102.5936 0.654
102.6239 0.537
102.6541 0.264
102.6844 0.304
102.7147 0.084
102.7450 0.542
102.7753 0.478
102.8055 -0.001
102.8358 0.405
102.8661 0.291
102.8964 0.490
102.9267 0.168
102.9569 0.628
102.9872 0.932
103.0175 0.402
103.0478 0.290
103.0780 0.543
103.1083 0.327
103.1386 0.320
103.1689 0.105
103.1992 0.880
103.2294 0.406
103.2597 0.348
103.2900 -0.126
103.3203 -0.235
103.3506 0.333
103.3808 0.016
103.4111 0.377
103.4414 0.738
103.4717 0.005
103.5019 0.262
103.5322 0.260
103.5625 0.049
103.5928 0.151
103.6231 0.098
103.6533 0.409
103.6836 0.616
103.7139 0.615
103.7442 0.563
103.7745 0.615
103.8047 0.459
103.8350 0.981
103.8653 0.982
103.8956 0.723
103.9258 0.881
103.9561 0.779
103.9864 0.833
104.0167 1.252
104.0470 1.255
104.0772 0.894
104.1075 1.471
104.1378 1.475
104.1681 1.271
104.1984 0.650
104.2286 -0.126
104.2589 1.338
104.2892 0.823
104.3195 0.725
104.3497 0.210
104.3800 0.842
104.4103 -0.089
104.4406 1.012
104.4709 0.968
104.5011 0.820
104.5314 0.099
104.5617 0.212
104.5920 0.846
104.6223 0.803
104.6525 0.136
104.6828 0.615
104.7131 -0.156
104.7434 -0.250
104.7736 0.070
104.8039 -0.130
104.8342 -0.017
104.8645 0.460
104.8948 0.001
104.9250 0.166
104.9553 -0.188
104.9856 -0.178
105.0159 0.040
105.0462 -0.053
105.0764 -0.146
105.1067 -0.239
105.1370 0.185
105.1673 -0.068
105.1975 -0.320
105.2278 0.313
105.2581 -0.147
105.2884 -0.086
105.3187 -0.233
105.3489 0.089
105.3792 0.516
105.4095 0.162
105.4398 0.173
105.4701 -0.180
105.5003 0.508
105.5306 0.207
105.5609 -0.301
105.5912 0.232
105.6215 -0.172
105.6517 0.154
105.6820 0.011
105.7123 0.754
105.7426 -0.013
105.7728 -0.259
105.8031 0.048
105.8334 0.199
105.8637 0.246
105.8940 0.345
105.9242 0.184
105.9545 0.493
105.9848 0.332
106.0151 -0.192
106.0454 -0.351
106.0756 0.323
106.1059 0.060
106.1362 -0.046
106.1665 0.108
106.1967 0.055
106.2270 0.314
106.2573 0.626
106.2876 0.052
106.3179 0.313
106.3481 0.313
106.3784 -0.051
106.4087 0.314
106.4390 0.003
106.4693 0.004
106.4995 -0.046
106.5298 0.373
106.5601 -0.249
106.5904 0.118
106.6206 0.330
106.6509 0.385
106.6812 0.597
106.7115 0.393
106.7418 0.554
106.7720 0.090
106.8023 0.304
106.8326 0.205
106.8629 -0.258
106.8932 -0.095
106.9234 0.276
106.9537 0.335
106.9840 0.134
107.0143 0.402
107.0445 0.410
107.0748 0.470
107.1051 0.843
107.1354 0.123
107.1657 -0.233
107.1959 -0.086
107.2262 0.582
107.2565 0.365
107.2868 0.201
107.3171 0.349
107.3473 -0.283
107.3776 0.074
107.4079 0.744
107.4382 0.477
107.4684 -0.102
107.4987 0.152
107.5290 -0.218
107.5593 0.142
107.5896 0.501
107.6198 0.236
107.6501 0.388
107.6804 0.384
107.7107 -0.192
107.7410 0.169
107.7712 0.010
107.8015 0.268
107.8318 0.057
107.8621 -0.205
107.8923 -0.259
107.9226 0.253
107.9529 0.609
107.9832 -0.494
108.0135 0.123
108.0437 0.324
108.0740 0.212
108.1043 -0.056
108.1346 0.302
108.1649 -0.277
108.1951 0.290
108.2254 -0.289
108.2557 -0.034
108.2860 0.273
108.3163 0.268
108.3465 0.108
108.3768 -0.157
108.4071 -0.057
108.4374 0.252
108.4676 0.249
108.4979 0.038
108.5282 0.192
108.5585 0.085
108.5888 0.136
108.6190 0.238
108.6493 -0.075
108.6796 0.236
108.7099 0.080
108.7402 -0.233
108.7704 -0.287
108.8007 0.337
108.8310 0.441
108.8613 0.128
108.8915 -0.081
108.9218 0.076
108.9521 -0.028
108.9824 -0.027
109.0127 -0.026
109.0429 -0.233
109.0732 -0.598
109.1035 0.278
109.1338 0.217
109.1641 0.208
109.1943 0.096
109.2246 -0.121
109.2549 -0.181
109.2852 -0.032
109.3154 0.430
109.3457 0.475
109.3760 0.104
109.4063 -0.527
109.4366 0.196
109.4668 -0.695
109.4971 0.238
109.5274 -0.392
109.5577 -0.136
109.5880 -0.244
109.6182 0.063
109.6485 0.162
109.6788 -0.156
109.7091 0.100
109.7393 -0.321
109.7696 0.196
109.7999 0.297
109.8302 -0.435
109.8605 -0.074
109.8907 0.028
109.9210 0.182
109.9513 0.180
109.9816 -0.498
110.0119 0.178
110.0421 0.073
110.0724 0.020
110.1027 0.645
110.1330 0.593
110.1632 0.437
110.1935 0.282
110.2238 0.127
110.2541 0.076
110.2844 0.703
110.3146 0.445
110.3449 0.707
110.3752 0.398
110.4055 0.870
110.4358 0.509
110.4660 0.252
110.4963 0.308
110.5266 0.729
110.5569 0.734
110.5871 0.583
110.6174 0.849
110.6477 0.334
110.6780 0.809
110.7083 -0.174
110.7385 0.249
110.7688 0.152
110.7991 0.004
110.8294 -0.145
110.8597 0.228
110.8899 -0.076
110.9202 0.454
110.9505 -0.058
110.9808 0.524
111.0110 0.586
111.0413 0.336
111.0716 0.086
111.1019 -0.268
111.1322 0.264
111.1624 0.224
111.1927 0.236
111.2230 0.612
111.2533 0.208
111.2836 0.482
111.3138 0.078
111.3441 -0.221
111.3744 -0.055
111.4047 0.006
111.4350 0.329
111.4652 0.548
111.4955 0.090
111.5258 0.101
111.5561 0.008
111.5863 -0.241
111.6166 0.136
111.6469 0.252
111.6772 0.057
111.7075 0.382
111.7377 0.083
111.7680 0.097
111.7983 -0.202
111.8286 -0.102
111.8589 0.206
111.8891 -0.266
111.9194 0.095
111.9497 -0.013
111.9800 -0.016
112.0102 -0.122
112.0405 0.136
112.0708 0.447
112.1011 -0.024
112.1314 0.392
112.1616 0.183
112.1919 0.599
112.2222 -0.078
112.2525 0.182
112.2828 -0.026
112.3130 0.288
112.3433 0.341
112.3736 0.238
112.4039 -0.020
112.4341 0.242
112.4644 0.505
112.4947 0.352
112.5250 0.042
112.5553 0.306
112.5855 -0.055
112.6158 -0.259
112.6461 0.100
112.6764 0.043
112.7067 0.038
112.7369 0.293
112.7672 0.185
112.7975 0.233
112.8278 0.229
112.8580 0.434
112.8883 0.222
112.9186 -0.093
112.9489 0.217
112.9792 0.111
113.0094 -0.255
113.0397 -0.048
113.0700 0.367
113.1003 0.106
113.1306 0.262
113.1608 0.053
113.1911 -0.259
113.2214 -0.003
113.2517 -0.060
113.2819 -0.220
113.3122 0.401
113.3425 -0.228
113.3728 0.186
113.4031 -0.026
113.4333 0.493
113.4636 -0.499
113.4939 0.124
113.5242 0.070
113.5545 0.017
113.5847 0.172
113.6150 0.172
113.6453 -0.037
113.6756 0.484
113.7058 0.224
113.7361 -0.087
113.7664 0.382
113.7967 0.332
113.8270 0.281
113.8572 0.336
113.8875 0.026
113.9178 -0.180
113.9481 0.136
113.9784 -0.017
114.0086 0.195
114.0389 0.407
114.0692 -0.057
114.0995 -0.208
114.1298 -0.059
114.1600 0.090
114.1903 0.240
114.2206 0.337
114.2509 0.071
114.2811 0.274
114.3114 0.477
114.3417 0.264
114.3720 0.311
114.4023 -0.370
114.4325 -0.114
114.4628 0.299
114.4931 0.035
114.5234 0.501
114.5537 -0.022
114.5839 -0.233
114.6142 0.060
114.6445 -0.063
114.6748 0.231
114.7050 -0.047
114.7353 0.664
114.7656 0.230
114.7959 0.213
114.8262 0.404
114.8564 0.492
114.8867 0.163
114.9170 -0.269
114.9473 0.132
114.9776 -0.300
115.0078 0.154
115.0381 0.087
115.0684 -0.292
115.0987 0.424
115.1289 -0.111
115.1592 0.084
115.1895 0.072
115.2198 -0.253
115.2501 0.411
115.2803 0.295
115.3106 -0.133
115.3409 -0.092
115.3712 0.210
115.4015 -0.165
115.4317 0.450
115.4620 0.075
115.4923 0.274
115.5226 0.108
115.5528 -0.057
115.5831 0.143
115.6134 -0.177
115.6437 0.492
115.6740 0.380
115.7042 0.373
115.7345 0.158
115.7648 1.089
115.7951 0.822
115.8254 0.608
115.8556 1.019
115.8859 1.014
115.9162 0.801
115.9465 0.171
115.9767 0.688
116.0070 1.361
116.0373 1.305
116.0676 0.156
116.0979 1.143
116.1281 0.307
116.1584 0.774
116.1887 1.345
116.2190 1.187
116.2493 0.665
116.2795 0.404
116.3098 1.289
116.3401 0.455
116.3704 0.924
116.4006 1.498
116.4309 0.769
116.4612 0.406
116.4915 1.293
116.5218 0.305
116.5520 0.568
116.5823 0.049
116.6126 0.938
116.6429 0.264
116.6732 0.788
116.7034 0.688
116.7337 0.484
116.7640 0.384
116.7943 0.545
116.8245 0.759
116.8548 0.139
116.8851 0.249
116.9154 0.307
116.9457 -0.676
116.9759 -0.251
117.0062 0.486
117.0365 -0.287
117.0668 0.035
117.0971 0.148
117.1273 0.418
117.1576 0.324
117.1879 0.803
117.2182 0.084
117.2485 0.303
117.2787 0.054
117.3090 0.378
117.3393 0.181
117.3696 0.246
117.3998 -0.002
117.4301 0.271
117.4604 -0.028
117.4907 0.402
117.5210 -0.261
117.5512 0.638
117.5815 -0.180
117.6118 0.355
117.6421 -0.567
117.6724 0.126
117.7026 0.037
117.7329 0.158
117.7632 0.070
117.7935 0.295
117.8237 -0.208
117.8540 0.070
117.8843 0.192
117.9146 -0.363
117.9449 -0.153
117.9751 0.474
118.0054 0.007
118.0357 0.531
118.0660 0.065
118.0963 0.120
118.1265 0.228
118.1568 -0.185
118.1871 -0.025
118.2174 0.501
118.2476 0.089
118.2779 -0.114
118.3082 0.152
118.3385 -0.363
118.3688 -0.106
118.3990 0.203
118.4293 0.095
118.4596 0.041
118.4899 0.663
118.5202 -0.016
118.5504 0.139
118.5807 0.398
118.6110 0.501
118.6413 -0.073
118.6715 0.395
118.7018 -0.230
118.7321 -0.073
118.7624 -0.333
118.7927 0.397
118.8229 0.034
118.8532 0.348
118.8835 0.141
118.9138 -0.221
118.9441 -0.219
118.9743 0.095
119.0046 0.722
119.0349 -0.161
119.0652 0.102
119.0954 -0.051
119.1257 -0.203
119.1560 0.113
119.1863 0.169
119.2166 0.174
119.2468 0.074
119.2771 -0.545
119.3074 -0.019
119.3377 -0.065
119.3680 -0.215
119.3982 -0.057
119.4285 0.414
119.4588 0.261
119.4891 0.212
119.5193 0.059
119.5496 -0.094
119.5799 0.066
119.6102 0.331
119.6405 0.335
119.6707 0.236
119.7010 0.294
119.7313 -0.118
119.7616 0.149
119.7919 0.311
119.8221 0.162
119.8524 0.325
119.8827 0.124
119.9130 0.340
119.9433 0.035
119.9735 0.408
120.0038 0.000
