'Id: "" Comment: "" Operator: "Lab Manager" Anode: "Cu" Scantype: "Locked Coupled" TimePerStep: "19.2" X: "9999" Y: "9999" Z: "9999" 
10.0015 0.000
10.0318 -0.426
10.0620 0.187
10.0923 -0.345
10.1226 0.582
10.1529 0.155
10.1832 -0.428
10.2134 0.656
10.2437 0.230
10.2740 0.222
10.3043 -0.464
10.3346 0.309
10.3648 0.354
10.3951 -0.487
10.4254 0.027
10.4557 -0.397
10.4859 0.222
10.5162 0.321
10.5465 0.784
10.5768 -0.002
10.6071 0.201
10.6373 -0.012
10.6676 0.766
10.6979 -0.436
10.7282 -0.755
10.7585 1.583
10.7887 0.118
10.8190 0.269
10.8493 -0.465
10.8796 0.676
10.9098 -0.318
10.9401 0.772
10.9704 -0.117
11.0007 0.608
11.0310 1.439
11.0612 0.134
11.0915 0.393
11.1218 0.651
11.1521 0.337
11.1824 0.284
11.2126 0.336
11.2429 1.586
11.2732 0.648
11.3035 0.909
11.3337 0.181
11.3640 0.390
11.3943 0.600
11.4246 -0.023
11.4549 0.292
11.4851 0.764
11.5154 -0.327
11.5457 0.197
11.5760 0.670
11.6063 0.153
11.6365 0.366
11.6668 0.163
11.6971 0.221
11.7274 0.747
11.7577 0.597
11.7879 0.447
11.8182 0.819
11.8485 0.409
11.8788 0.521
11.9090 -0.304
11.9393 -0.504
11.9696 0.442
11.9999 0.347
12.0302 0.617
12.0604 0.679
12.0907 0.221
12.1210 1.273
12.1513 0.294
12.1816 -0.840
12.2118 0.317
12.2421 -0.139
12.2724 0.707
12.3027 0.147
12.3329 0.785
12.3632 -0.035
12.3935 0.083
12.4238 0.202
12.4541 -0.408
12.4843 -0.028
12.5146 0.352
12.5449 0.472
12.5752 -0.762
12.6055 0.244
12.6357 -0.520
12.6660 -0.198
12.6963 0.281
12.7266 0.604
12.7568 -0.115
12.7871 0.209
12.8174 0.481
12.8477 0.597
12.8780 -0.328
12.9082 0.570
12.9385 -0.094
12.9688 -0.237
12.9991 0.141
13.0294 0.312
13.0596 0.014
13.0899 0.758
13.1202 -0.112
13.1505 1.362
13.1807 -0.237
13.2110 -0.741
13.2413 0.786
13.2716 -0.239
13.3019 -0.169
13.3321 -0.099
13.3624 0.544
13.3927 0.302
13.4230 -0.304
13.4533 0.080
13.4835 -0.264
13.5138 -0.348
13.5441 0.505
13.5744 0.474
13.6046 0.808
13.6349 0.309
13.6652 0.175
13.6955 -0.063
13.7258 0.272
13.7560 0.608
13.7863 0.058
13.8166 0.290
13.8469 0.002
13.8772 -0.546
13.9074 0.040
13.9377 0.366
13.9680 0.379
13.9983 0.029
14.0285 0.512
14.0588 0.215
14.0891 0.594
14.1194 0.297
14.1497 -0.676
14.1799 -0.264
14.2102 1.034
14.2405 0.405
14.2708 -0.067
14.3011 0.398
14.3313 0.187
14.3616 0.550
14.3919 -0.442
14.4222 -0.504
14.4524 0.736
14.4827 0.570
14.5130 1.082
14.5433 0.552
14.5736 -0.394
14.6038 0.431
14.6341 0.111
14.6644 0.312
14.6947 0.721
14.7250 0.454
14.7552 -0.125
14.7855 0.442
14.8158 -0.032
14.8461 0.328
14.8764 -0.823
14.9066 -0.046
14.9369 0.315
14.9672 -0.054
14.9975 0.724
15.0277 0.201
15.0580 0.355
15.0883 0.196
15.1186 -1.003
15.1489 0.037
15.1791 0.140
15.2094 0.660
15.2397 0.504
15.2700 0.087
15.3003 -0.329
15.3305 0.037
15.3608 -0.170
15.3911 0.404
15.4214 0.562
15.4516 0.929
15.4819 -0.214
15.5122 0.310
15.5425 0.054
15.5728 0.266
15.6030 -0.094
15.6333 0.066
15.6636 0.280
15.6939 0.129
15.7242 -0.074
15.7544 0.349
15.7847 0.356
15.8150 0.050
15.8453 -0.567
15.8755 0.169
15.9058 -0.187
15.9361 -0.283
15.9664 -0.274
15.9967 -0.109
16.0269 0.682
16.0572 0.015
16.0875 -0.808
16.1178 0.296
16.1481 0.203
16.1783 0.006
16.2086 0.018
16.2389 0.551
16.2692 0.199
16.2994 -0.361
16.3297 -0.361
16.3600 0.260
16.3903 0.308
16.4206 -0.320
16.4508 0.198
16.4811 0.976
16.5114 -0.328
16.5417 0.556
16.5720 -0.279
16.6022 1.022
16.6325 0.656
16.6628 0.448
16.6931 0.344
16.7233 -0.021
16.7536 0.084
16.7839 0.294
16.8142 0.764
16.8445 -0.120
16.8747 1.133
16.9050 0.510
16.9353 0.097
16.9656 0.048
16.9959 0.208
17.0261 -0.361
17.0564 -0.313
17.0867 0.412
17.1170 0.564
17.1472 -0.220
17.1775 -0.328
17.2078 0.086
17.2381 -0.541
17.2684 0.343
17.2986 0.550
17.3289 0.132
17.3592 0.287
17.3895 0.131
17.4198 -0.026
17.4500 0.027
17.4803 0.653
17.5106 0.029
17.5409 -0.022
17.5712 -0.280
17.6014 0.086
17.6317 0.870
17.6620 -0.845
17.6923 -0.113
17.7225 0.672
17.7528 -0.626
17.7831 -0.361
17.8134 0.214
17.8437 0.633
17.8739 0.323
17.9042 -0.403
17.9345 0.538
17.9648 -0.395
17.9951 0.442
18.0253 0.291
18.0556 0.088
18.0859 0.770
18.1162 1.088
18.1464 0.261
18.1767 0.111
18.2070 0.066
18.2373 -0.031
18.2676 0.238
18.2978 0.037
18.3281 0.254
18.3584 0.419
18.3887 -0.457
18.4190 -0.239
18.4492 0.500
18.4795 0.510
18.5098 0.521
18.5401 0.115
18.5703 0.699
18.6006 0.503
18.6309 0.046
18.6612 0.215
18.6915 0.801
18.7217 0.710
18.7520 0.672
18.7823 -0.304
18.8126 -0.342
18.8429 0.074
18.8731 0.177
18.9034 -0.917
18.9337 0.176
18.9640 0.124
18.9942 0.437
19.0245 0.074
19.0548 -0.342
19.0851 -0.448
19.1154 0.488
19.1456 -0.191
19.1759 0.381
19.2062 -0.245
19.2365 0.171
19.2668 0.223
19.2970 -0.193
19.3273 0.120
19.3576 -0.243
19.3879 0.175
19.4181 -0.135
19.4484 -0.342
19.4787 -0.132
19.5090 0.077
19.5393 0.131
19.5695 -0.388
19.5998 0.239
19.6301 0.346
19.6604 0.244
19.6907 0.248
19.7209 0.043
19.7512 -0.317
19.7815 0.208
19.8118 0.057
19.8420 0.739
19.8723 0.380
19.9026 -0.239
19.9329 0.184
19.9632 0.139
19.9934 0.406
20.0237 0.310
20.0540 0.161
20.0843 -0.143
20.1146 0.022
20.1448 -0.333
20.1751 -0.447
20.2054 0.951
20.2357 -0.099
20.2659 0.362
20.2962 -0.062
20.3265 0.712
20.3568 0.184
20.3871 0.907
20.4173 0.224
20.4476 0.114
20.4779 0.317
20.5082 -0.052
20.5385 -0.109
20.5687 0.252
20.5990 -0.377
20.6293 -0.068
20.6596 0.242
20.6899 -0.073
20.7201 -0.284
20.7504 0.235
20.7807 0.911
20.8110 -0.184
20.8412 0.440
20.8715 0.127
20.9018 -0.342
20.9321 -0.239
20.9624 -0.032
20.9926 0.227
21.0229 0.383
21.0532 0.018
21.0835 -0.086
21.1138 0.332
21.1440 -0.501
21.1743 0.386
21.2046 0.023
21.2349 0.338
21.2651 0.132
21.2954 -0.178
21.3257 -0.123
21.3560 0.662
21.3863 -0.115
21.4165 -0.267
21.4468 -0.262
21.4771 0.420
21.5074 0.425
21.5377 0.639
21.5679 0.177
21.5982 -0.338
21.6285 -0.445
21.6588 0.647
21.6890 -0.241
21.7193 0.383
21.7496 0.121
21.7799 0.016
21.8102 -0.193
21.8404 -0.089
21.8707 0.328
21.9010 -0.036
21.9313 1.423
21.9616 -0.190
21.9918 0.905
22.0221 0.595
22.0524 0.180
22.0827 -0.338
22.1129 -0.500
22.1432 1.212
22.1735 0.217
22.2038 0.576
22.2341 0.675
22.2643 0.045
22.2946 -0.011
22.3249 -0.796
22.3552 0.294
22.3855 0.655
22.4157 0.392
22.4460 0.025
22.4763 -0.186
22.5066 -0.135
22.5368 0.593
22.5671 -0.138
22.5974 0.174
22.6277 0.226
22.6580 -0.086
22.6882 -0.502
22.7185 0.540
22.7488 0.385
22.7791 0.908
22.8094 0.441
22.8396 -0.858
22.8699 -0.389
22.9002 1.278
22.9305 0.394
22.9607 -0.229
22.9910 0.345
23.0213 0.139
23.0516 0.715
23.0819 -0.115
23.1121 0.357
23.1424 -0.264
23.1727 0.157
23.2030 0.005
23.2333 -0.615
23.2635 0.224
23.2938 -0.292
23.3241 -0.338
23.3544 0.027
23.3846 -0.234
23.4149 0.235
23.4452 0.444
23.4755 -0.232
23.5058 -0.074
23.5360 -0.072
23.5663 0.399
23.5966 0.141
23.6269 -0.220
23.6572 -0.009
23.6874 0.360
23.7177 -0.157
23.7480 1.046
23.7783 0.165
23.8086 -0.142
23.8388 -0.189
23.8691 -0.079
23.8994 -0.280
23.9297 0.195
23.9599 0.567
23.9902 -0.572
24.0205 0.270
24.0508 0.695
24.0811 -0.547
24.1113 -0.329
24.1416 0.078
24.1719 -0.140
24.2022 0.373
24.2325 0.312
24.2627 0.252
24.2930 0.036
24.3233 0.185
24.3536 0.022
24.3838 0.120
24.4141 -0.511
24.4444 0.213
24.4747 0.103
24.5050 0.827
24.5352 -0.219
24.5655 -0.223
24.5958 0.242
24.6261 0.291
24.6564 0.392
24.6866 0.597
24.7169 0.335
24.7472 0.385
24.7775 -0.085
24.8077 0.590
24.8380 0.225
24.8683 0.798
24.8986 -0.036
24.9289 0.642
24.9591 0.486
24.9894 -0.086
25.0197 0.697
25.0500 -0.291
25.0803 0.128
25.1105 -0.078
25.1408 0.030
25.1711 0.293
25.2014 0.089
25.2316 -0.220
25.2619 0.149
25.2922 -0.210
25.3225 0.264
25.3528 -0.252
25.3830 0.952
25.4133 0.073
25.4436 0.184
25.4739 0.087
25.5042 0.095
25.5344 0.259
25.5647 0.736
25.5950 -0.245
25.6253 -0.132
25.6555 -0.071
25.6858 0.876
25.7161 0.262
25.7464 0.324
25.7767 0.908
25.8069 0.086
25.8372 0.150
25.8675 -0.047
25.8978 0.174
25.9281 0.135
25.9583 -0.321
25.9886 -0.283
26.0189 -0.141
26.0492 0.470
26.0794 0.457
26.1097 0.079
26.1400 0.744
26.1703 0.211
26.2006 0.199
26.2308 0.135
26.2611 0.020
26.2914 0.582
26.3217 0.416
26.3520 -0.271
26.3822 0.188
26.4125 -0.238
26.4428 0.274
26.4731 -0.203
26.5034 0.518
26.5336 -0.115
26.5639 -0.226
26.5942 -0.338
26.6245 0.270
26.6547 0.150
26.6850 -0.283
26.7153 0.222
26.7456 0.519
26.7759 0.191
26.8061 0.853
26.8364 0.630
26.8667 0.981
26.8970 -0.439
26.9273 -0.296
26.9575 0.316
26.9878 0.981
27.0181 -0.906
27.0484 0.748
27.0786 0.372
27.1089 -0.212
27.1392 -0.014
27.1695 0.393
27.1998 -0.086
27.2300 0.529
27.2603 0.260
27.2906 0.199
27.3209 -0.382
27.3512 0.287
27.3814 0.123
27.4117 0.636
27.4420 0.369
27.4723 0.415
27.5025 -0.112
27.5328 0.351
27.5631 0.762
27.5934 0.236
27.6237 0.179
27.6539 -0.189
27.6842 0.952
27.7145 0.116
27.7448 0.321
27.7751 0.943
27.8053 0.368
27.8356 -0.415
27.8659 -0.157
27.8962 0.102
27.9264 -0.055
27.9567 0.257
27.9870 -0.003
28.0173 1.299
28.0476 -0.263
28.0778 -0.106
28.1081 -0.365
28.1384 -0.374
28.1687 0.502
28.1990 0.388
28.2292 -0.245
28.2595 0.372
28.2898 0.520
28.3201 0.200
28.3503 0.193
28.3806 0.342
28.4109 0.336
28.4412 0.538
28.4715 -0.145
28.5017 0.371
28.5320 0.106
28.5623 0.049
28.5926 -0.111
28.6229 0.510
28.6531 0.402
28.6834 -0.278
28.7137 -0.124
28.7440 -0.074
28.7742 0.549
28.8045 -0.130
28.8348 0.390
28.8651 -0.132
28.8954 0.076
28.9256 0.545
28.9559 0.545
28.9862 -0.287
29.0165 0.131
29.0468 0.601
29.0770 0.134
29.1073 -0.072
29.1376 0.503
29.1679 0.611
29.1981 -0.167
29.2284 -0.372
29.2587 0.133
29.2890 0.846
29.3193 0.883
29.3495 -0.017
29.3798 0.333
29.4101 0.631
29.4404 -0.529
29.4707 0.291
29.5009 0.590
29.5312 0.630
29.5615 0.201
29.5918 -0.020
29.6221 0.750
29.6523 0.478
29.6826 -0.053
29.7129 -0.220
29.7432 -0.386
29.7734 -0.063
29.8037 -0.416
29.8340 0.898
29.8643 0.910
29.8946 0.506
29.9248 1.144
29.9551 -0.562
29.9854 0.598
30.0157 -0.170
30.0460 0.574
30.0762 0.901
30.1065 0.239
30.1368 1.088
30.1671 0.479
30.1973 0.495
30.2276 0.720
30.2579 1.362
30.2882 0.338
30.3185 0.252
30.3487 0.374
30.3790 1.226
30.4093 0.516
30.4396 0.899
30.4699 0.086
30.5001 0.783
30.5304 0.230
30.5607 1.084
30.5910 0.689
30.6212 1.648
30.6515 0.941
30.6818 1.640
30.7121 1.871
30.7424 3.196
30.7726 2.438
30.8029 1.733
30.8332 3.111
30.8635 2.094
30.8938 3.317
30.9240 3.342
30.9543 3.837
30.9846 4.331
31.0149 3.785
31.0451 3.864
31.0754 5.297
31.1057 5.064
31.1360 7.124
31.1663 8.246
31.1965 9.108
31.2268 9.605
31.2571 10.051
31.2874 12.165
31.3177 14.747
31.3479 18.579
31.3782 17.725
31.4085 21.454
31.4388 26.330
31.4690 29.330
31.4993 34.154
31.5296 40.125
31.5599 42.710
31.5902 41.962
31.6204 48.871
31.6507 49.843
31.6810 46.388
31.7113 44.392
31.7416 44.375
31.7718 38.630
31.8021 34.239
31.8324 27.765
31.8627 24.937
31.8929 17.996
31.9232 19.231
31.9535 15.884
31.9838 13.162
32.0141 11.274
32.0443 10.375
32.0746 8.123
32.1049 6.809
32.1352 6.901
32.1655 5.327
32.1957 4.952
32.2260 3.483
32.2563 3.993
32.2866 3.202
32.3169 3.557
32.3471 2.038
32.3774 1.925
32.4077 1.656
32.4380 1.336
32.4682 1.745
32.4985 0.748
32.5288 1.574
32.5591 0.786
32.5894 0.051
32.6196 1.868
32.6499 0.769
32.6802 1.337
32.7105 0.030
32.7408 0.391
32.7710 -0.134
32.8013 0.227
32.8316 0.172
32.8619 -0.143
32.8921 -0.510
32.9224 -0.062
32.9527 0.388
32.9830 0.004
33.0133 0.037
33.0435 0.852
33.0738 -0.208
33.1041 0.139
33.1344 -0.191
33.1647 0.417
33.1949 -0.224
33.2252 -0.032
33.2555 -0.517
33.2858 0.457
33.3160 -0.495
33.3463 1.104
33.3766 0.621
33.4069 1.753
33.4372 0.229
33.4674 0.060
33.4977 0.151
33.5280 -0.018
33.5583 1.376
33.5886 0.219
33.6188 0.885
33.6491 1.030
33.6794 1.280
33.7097 1.322
33.7399 0.322
33.7702 1.719
33.8005 3.012
33.8308 1.389
33.8611 1.797
33.8913 3.924
33.9216 4.490
33.9519 4.535
33.9822 6.403
34.0125 8.271
34.0427 8.838
34.0730 12.426
34.1033 14.869
34.1336 18.458
34.1638 20.797
34.1941 30.428
34.2244 40.528
34.2547 51.254
34.2850 60.105
34.3152 58.644
34.3455 55.152
34.3758 47.650
34.4061 40.670
34.4364 31.710
34.4666 22.647
34.4969 18.584
34.5272 14.417
34.5575 11.344
34.5877 11.241
34.6180 8.846
34.6483 8.275
34.6786 5.308
34.7089 6.195
34.7391 3.750
34.7694 3.284
34.7997 3.288
34.8300 2.354
34.8603 3.764
34.8905 3.300
34.9208 1.377
34.9511 2.164
34.9814 3.055
35.0116 3.165
35.0419 2.650
35.0722 3.386
35.1025 1.518
35.1328 2.151
35.1630 3.669
35.1933 1.854
35.2236 3.946
35.2539 4.007
35.2842 2.037
35.3144 2.464
35.3447 4.245
35.3750 4.516
35.4053 4.943
35.4356 4.954
35.4658 4.966
35.4961 5.863
35.5264 6.865
35.5567 6.670
35.5869 8.453
35.6172 8.832
35.6475 11.241
35.6778 10.943
35.7081 13.353
35.7383 14.254
35.7686 17.498
35.7989 18.139
35.8292 23.103
35.8595 28.484
35.8897 30.376
35.9200 36.226
35.9503 40.515
35.9806 47.199
36.0108 57.478
36.0411 60.153
36.0714 67.308
36.1017 73.681
36.1320 75.107
36.1622 74.451
36.1925 69.575
36.2228 68.502
36.2531 60.086
36.2834 55.108
36.3136 45.651
36.3439 42.340
36.3742 36.790
36.4045 30.199
36.4347 25.170
36.4650 22.538
36.4953 20.427
36.5256 17.639
36.5559 15.633
36.5861 12.586
36.6164 10.372
36.6467 10.398
36.6770 8.550
36.7073 5.400
36.7375 6.104
36.7678 5.611
36.7981 6.160
36.8284 4.313
36.8586 4.655
36.8889 4.059
36.9192 2.630
36.9495 2.139
36.9798 3.316
37.0100 1.992
37.0403 3.117
37.0706 2.419
37.1009 1.774
37.1312 1.129
37.1614 1.006
37.1917 1.143
37.2220 2.010
37.2523 1.679
37.2825 -0.110
37.3128 1.227
37.3431 1.418
37.3734 1.922
37.4037 -0.647
37.4339 0.066
37.4642 0.311
37.4945 0.660
37.5248 0.593
37.5551 0.318
37.5853 -0.009
37.6156 1.280
37.6459 0.120
37.6762 -0.153
37.7064 0.199
37.7367 0.395
37.7670 -0.138
37.7973 0.580
37.8276 1.454
37.8578 0.141
37.8881 0.964
37.9184 -0.505
37.9487 -0.410
37.9790 -0.026
38.0092 -0.005
38.0395 0.588
38.0698 -0.016
38.1001 1.047
38.1304 -0.181
38.1606 -0.263
38.1909 -0.085
38.2212 0.094
38.2515 0.170
38.2817 -0.380
38.3120 -0.304
38.3423 -0.279
38.3726 0.371
38.4029 -0.073
38.4331 0.161
38.4634 0.082
38.4937 -0.516
38.5240 0.135
38.5543 0.214
38.5845 -0.123
38.6148 -0.304
38.6451 0.350
38.6754 -0.403
38.7056 0.511
38.7359 0.436
38.7662 -0.159
38.7965 -0.390
38.8268 0.207
38.8570 0.230
38.8873 0.098
38.9176 0.279
38.9479 -0.217
38.9782 -0.088
39.0084 -0.322
39.0387 0.068
39.0690 -0.478
39.0993 0.434
39.1295 0.357
39.1598 -0.189
39.1901 -0.005
39.2204 -0.237
39.2507 0.104
39.2809 0.029
39.3112 0.683
39.3415 0.140
39.3718 -0.090
39.4021 0.357
39.4323 0.909
39.4626 0.107
39.4929 0.034
39.5232 0.327
39.5534 0.307
39.5837 -0.442
39.6140 -0.290
39.6443 0.383
39.6746 0.119
39.7048 0.376
39.7351 0.373
39.7654 0.527
39.7957 0.056
39.8260 -0.050
39.8562 0.157
39.8865 0.833
39.9168 0.468
39.9471 0.155
39.9773 0.312
40.0076 0.937
40.0379 0.209
40.0682 0.314
40.0985 0.524
40.1287 0.839
40.1590 0.581
40.1893 0.375
40.2196 0.118
40.2499 -0.712
40.2801 0.594
40.3104 0.234
40.3407 0.447
40.3710 0.295
40.4012 0.509
40.4315 -0.058
40.4618 -0.312
40.4921 -0.054
40.5224 0.100
40.5526 0.203
40.5829 0.410
40.6132 0.930
40.6435 0.044
40.6738 0.669
40.7040 -0.060
40.7343 0.358
40.7646 0.619
40.7949 -0.212
40.8251 0.414
40.8554 -0.052
40.8857 -0.154
40.9160 -0.411
40.9463 0.217
40.9765 0.534
41.0068 0.225
41.0371 0.178
41.0674 -0.182
41.0977 0.084
41.1279 -0.536
41.1582 -0.009
41.1885 -0.263
41.2188 -0.308
41.2491 -0.309
41.2793 0.524
41.3096 0.212
41.3399 0.004
41.3702 0.108
41.4004 0.266
41.4307 0.528
41.4610 0.165
41.4913 -0.041
41.5216 -0.299
41.5518 0.173
41.5821 0.801
41.6124 0.284
41.6427 -0.076
41.6730 -1.166
41.7032 0.350
41.7335 -0.322
41.7638 -0.108
41.7941 0.002
41.8243 0.789
41.8546 -0.193
41.8849 0.022
41.9152 0.134
41.9455 0.298
41.9757 0.046
42.0060 0.158
42.0363 -0.041
42.0666 0.229
42.0969 -0.126
42.1271 0.040
42.1574 0.155
42.1877 0.062
42.2180 0.333
42.2482 -0.384
42.2785 0.253
42.3088 0.213
42.3391 0.903
42.3694 0.187
42.3996 0.201
42.4299 -0.254
42.4602 0.229
42.4905 0.139
42.5208 0.206
42.5510 0.742
42.5813 0.133
42.6116 0.618
42.6419 0.999
42.6721 0.079
42.7024 0.304
42.7327 0.166
42.7630 -0.285
42.7933 -0.137
42.8235 0.688
42.8538 0.629
42.8841 0.257
42.9144 0.458
42.9447 0.712
42.9749 0.446
43.0052 0.076
43.0355 0.123
43.0658 0.691
43.0960 0.634
43.1263 -0.047
43.1566 0.001
43.1869 -0.158
43.2172 0.984
43.2474 0.096
43.2777 0.355
43.3080 0.405
43.3383 0.612
43.3686 0.402
43.3988 0.089
43.4291 -0.120
43.4594 0.870
43.4897 0.453
43.5199 0.090
43.5502 -0.013
43.5805 -0.168
43.6108 0.302
43.6411 0.148
43.6713 0.307
43.7016 -0.158
43.7319 -0.415
43.7622 0.197
43.7925 0.288
43.8227 0.224
43.8530 0.473
43.8833 0.565
43.9136 -0.279
43.9439 0.387
43.9741 0.585
44.0044 0.575
44.0347 -0.059
44.0650 -0.329
44.0952 0.392
44.1255 0.331
44.1558 -0.041
44.1861 0.315
44.2164 0.673
44.2466 0.041
44.2769 0.086
44.3072 0.236
44.3375 0.335
44.3678 -0.348
44.3980 -0.144
44.4283 0.320
44.4586 0.003
44.4889 -0.209
44.5191 0.048
44.5494 -0.320
44.5797 0.146
44.6100 -0.169
44.6403 -0.015
44.6705 0.504
44.7008 -0.226
44.7311 0.138
44.7614 0.033
44.7917 -0.228
44.8219 -0.071
44.8522 1.075
44.8825 0.451
44.9128 -0.120
44.9430 -0.119
44.9733 0.300
45.0036 0.250
45.0339 -0.059
45.0642 0.204
45.0944 0.364
45.1247 -0.257
45.1550 0.008
45.1853 -0.196
45.2156 -0.295
45.2458 0.053
45.2761 0.192
45.3064 -0.085
45.3367 0.680
45.3669 0.455
45.3972 -0.289
45.4275 -0.200
45.4578 -0.059
45.4881 0.239
45.5183 -0.348
45.5486 0.107
45.5789 0.042
45.6092 -0.440
45.6395 0.381
45.6697 -0.308
45.7000 -0.112
45.7303 0.554
45.7606 0.595
45.7908 -0.041
45.8211 -0.155
45.8514 0.772
45.8817 -0.227
45.9120 -0.184
45.9422 0.276
45.9725 0.372
46.0028 -0.313
46.0331 -0.321
46.0634 -0.182
46.0936 -0.408
46.1239 0.252
46.1542 0.236
46.1845 -0.145
46.2147 0.099
46.2450 0.657
46.2753 -0.348
46.3056 0.940
46.3359 0.196
46.3661 0.130
46.3964 0.481
46.4267 0.364
46.4570 0.612
46.4873 0.287
46.5175 0.119
46.5478 0.836
46.5781 0.044
46.6084 0.710
46.6386 0.804
46.6689 1.783
46.6992 0.940
46.7295 1.347
46.7598 0.869
46.7900 1.225
46.8203 1.582
46.8506 2.095
46.8809 2.139
46.9112 1.924
46.9414 1.865
46.9717 3.577
47.0020 3.623
47.0323 3.618
47.0626 2.206
47.0928 4.545
47.1231 5.166
47.1534 7.036
47.1837 6.147
47.2139 6.561
47.2442 8.641
47.2745 11.242
47.3048 11.240
47.3351 13.218
47.3653 13.008
47.3956 14.257
47.4259 14.985
47.4562 14.099
47.4865 14.464
47.5167 14.516
47.5470 12.590
47.5773 10.195
47.6076 8.478
47.6378 9.417
47.6681 6.138
47.6984 5.360
47.7287 5.311
47.7590 4.168
47.7892 4.016
47.8195 3.707
47.8498 2.410
47.8801 2.467
47.9104 1.951
47.9406 2.217
47.9709 1.703
48.0012 1.396
48.0315 2.341
48.0617 0.837
48.0920 1.157
48.1223 1.270
48.1526 0.809
48.1829 0.766
48.2131 0.410
48.2434 0.628
48.2737 0.585
48.3040 0.648
48.3343 1.231
48.3645 0.305
48.3948 -0.361
48.4251 0.171
48.4554 -0.338
48.4856 -0.228
48.5159 0.091
48.5462 -0.111
48.5765 -0.313
48.6068 0.319
48.6370 1.628
48.6673 0.074
48.6976 0.498
48.7279 -0.222
48.7582 -0.213
48.7884 0.161
48.8187 0.274
48.8490 -0.236
48.8793 0.712
48.9095 0.670
48.9398 0.056
48.9701 -0.557
49.0004 0.340
49.0307 -0.325
49.0609 -0.260
49.0912 0.170
49.1215 -0.337
49.1518 -0.118
49.1821 0.154
49.2123 -0.251
49.2426 0.334
49.2729 0.398
49.3032 -0.058
49.3334 0.268
49.3637 0.073
49.3940 0.868
49.4243 -0.003
49.4546 0.168
49.4848 -0.337
49.5151 -0.126
49.5454 -0.123
49.5757 0.037
49.6060 0.145
49.6362 -0.111
49.6665 -0.158
49.6968 0.420
49.7271 0.270
49.7574 0.015
49.7876 -0.135
49.8179 0.132
49.8482 -0.277
49.8785 0.199
49.9087 0.259
49.9390 0.059
49.9693 0.067
49.9996 0.076
50.0299 0.138
50.0601 -0.269
50.0904 -0.363
50.1207 0.309
50.1510 0.513
50.1813 0.249
50.2115 -0.588
50.2418 0.450
50.2721 0.604
50.3024 -0.180
50.3326 -0.286
50.3629 0.077
50.3932 -0.028
50.4235 0.387
50.4538 0.022
50.4840 0.230
50.5143 0.231
50.5446 0.075
50.5749 0.232
50.6052 -0.496
50.6354 0.235
50.6657 -0.023
50.6960 -0.073
50.7263 -0.070
50.7565 0.038
50.7868 -0.219
50.8171 0.149
50.8474 -0.159
50.8777 -0.154
50.9079 0.216
50.9382 -0.247
50.9685 0.383
50.9988 0.702
51.0291 -0.177
51.0593 -0.118
51.0896 0.723
51.1199 0.523
51.1502 -0.042
51.1804 0.331
51.2107 -0.546
51.2410 -0.292
51.2713 -0.142
51.3016 -0.044
51.3318 0.627
51.3621 -0.003
51.3924 -0.217
51.4227 0.143
51.4530 0.920
51.4832 -0.073
51.5135 0.131
51.5438 -0.236
51.5741 0.542
51.6043 -0.085
51.6346 0.173
51.6649 0.640
51.6952 -0.038
51.7255 -0.299
51.7557 -0.042
51.7860 0.008
51.8163 -0.047
51.8466 0.160
51.8769 0.158
51.9071 -0.311
51.9374 -0.103
51.9677 -0.103
51.9980 0.053
52.0282 -0.571
52.0585 0.211
52.0888 -0.204
52.1191 0.579
52.1494 0.269
52.1796 -0.406
52.2099 -0.090
52.2402 -0.087
52.2705 -0.187
52.3008 0.025
52.3310 -0.126
52.3613 0.035
52.3916 0.509
52.4219 -0.163
52.4521 0.833
52.4824 0.058
52.5127 -0.196
52.5430 -0.241
52.5733 -0.494
52.6035 0.283
52.6338 0.488
52.6641 -0.245
52.6944 0.482
52.7247 -0.198
52.7549 -0.305
52.7852 0.527
52.8155 -0.412
52.8458 0.160
52.8761 0.888
52.9063 0.002
52.9366 0.211
52.9669 -0.362
52.9972 0.055
53.0274 0.057
53.0577 -0.515
53.0880 0.477
53.1183 -0.198
53.1486 -0.300
53.1788 0.432
53.2091 0.175
53.2394 0.492
53.2697 0.600
53.3000 0.084
53.3302 0.193
53.3605 0.146
53.3908 0.516
53.4211 -0.311
53.4513 -0.484
53.4816 0.438
53.5119 0.006
53.5422 0.095
53.5725 0.550
53.6027 0.275
53.6330 0.209
53.6633 0.352
53.6936 -0.442
53.7239 0.222
53.7541 0.262
53.7844 0.510
53.8147 0.291
53.8450 0.279
53.8752 0.060
53.9055 -0.367
53.9358 0.248
53.9661 0.603
53.9964 0.229
54.0266 0.325
54.0569 -0.205
54.0872 -0.213
54.1175 0.456
54.1478 0.449
54.1780 -0.444
54.2083 0.019
54.2386 -0.300
54.2689 0.163
54.2991 0.261
54.3294 -0.317
54.3597 -0.231
54.3900 0.063
54.4203 0.202
54.4505 0.132
54.4808 0.427
54.5111 -0.110
54.5414 0.186
54.5717 -0.298
54.6019 0.051
54.6322 0.869
54.6625 -0.552
54.6928 0.267
54.7230 0.773
54.7533 -0.386
54.7836 -0.139
54.8139 0.369
54.8442 0.356
54.8744 -0.073
54.9047 -0.032
54.9350 0.321
54.9653 0.362
54.9956 -0.638
55.0258 0.341
55.0561 -0.398
55.0864 -0.251
55.1167 0.260
55.1469 0.147
55.1772 0.712
55.2075 -0.234
55.2378 -0.345
55.2681 -0.255
55.2983 0.722
55.3286 0.449
55.3589 -0.292
55.3892 0.634
55.4195 0.310
55.4497 0.403
55.4800 0.340
55.5103 0.382
55.5406 0.060
55.5709 -0.210
55.6011 0.458
55.6314 0.658
55.6617 1.535
55.6920 0.641
55.7222 1.207
55.7525 0.835
55.7828 0.620
55.8131 1.134
55.8434 1.545
55.8736 1.278
55.9039 2.315
55.9342 2.466
55.9645 2.201
55.9948 3.551
56.0250 3.547
56.0553 4.429
56.0856 5.259
56.1159 5.725
56.1461 5.463
56.1764 5.929
56.2067 8.272
56.2370 9.781
56.2673 10.093
56.2975 12.280
56.3278 13.686
56.3581 13.478
56.3884 17.593
56.4187 17.802
56.4489 18.845
56.4792 18.847
56.5095 19.006
56.5398 17.289
56.5700 17.761
56.6003 15.942
56.6306 15.268
56.6609 12.043
56.6912 11.579
56.7214 10.073
56.7517 9.453
56.7820 8.105
56.8123 7.538
56.8426 6.190
56.8728 5.051
56.9031 4.329
56.9334 3.503
56.9637 3.771
56.9939 2.321
57.0242 4.100
57.0545 1.817
57.0848 3.129
57.1151 1.524
57.1453 2.003
57.1756 1.388
57.2059 0.878
57.2362 0.889
57.2665 0.588
57.2967 0.548
57.3270 1.290
57.3573 0.157
57.3876 1.107
57.4178 0.652
57.4481 0.926
57.4784 0.367
57.5087 0.382
57.5390 0.397
57.5692 -0.161
57.5995 0.063
57.6298 0.340
57.6601 0.148
57.6904 0.217
57.7206 0.338
57.7509 -0.217
57.7812 0.374
57.8115 0.288
57.8417 -0.058
57.8720 0.169
57.9023 0.033
57.9326 -0.104
57.9629 0.333
57.9931 -0.011
58.0234 -0.042
58.0537 -0.125
58.0840 -0.624
58.1143 0.159
58.1445 0.264
58.1748 -0.150
58.2051 -0.304
58.2354 -0.145
58.2656 0.431
58.2959 0.590
58.3262 0.542
58.3565 -0.027
58.3868 -0.022
58.4170 0.191
58.4473 -0.324
58.4776 0.046
58.5079 0.052
58.5382 0.735
58.5684 0.378
58.5987 -0.136
58.6290 0.028
58.6593 0.036
58.6896 0.357
58.7198 0.417
58.7501 0.114
58.7804 -0.189
58.8107 0.237
58.8409 -0.221
58.8712 0.206
58.9015 -0.304
58.9318 -0.405
58.9621 0.380
58.9923 0.019
59.0226 -0.081
59.0529 0.392
59.0832 -0.489
59.1135 0.454
59.1437 0.147
59.1740 -0.003
59.2043 0.628
59.2346 -0.511
59.2648 -0.191
59.2951 0.129
59.3254 -0.072
59.3557 0.145
59.3860 0.674
59.4162 0.058
59.4465 0.432
59.4768 0.442
59.5071 0.088
59.5374 -0.110
59.5676 0.422
59.5979 0.381
59.6282 0.184
59.6585 0.040
59.6887 0.052
59.7190 0.690
59.7493 0.495
59.7796 0.352
59.8099 -0.311
59.8401 -0.331
59.8704 0.534
59.9007 0.515
59.9310 0.392
59.9613 0.113
59.9915 0.198
60.0218 0.129
60.0521 0.996
60.0824 0.042
60.1126 -0.079
60.1429 0.217
60.1732 0.097
60.2035 0.290
60.2338 0.378
60.2640 0.051
60.2943 0.609
60.3246 0.387
60.3549 -0.043
60.3852 0.047
60.4154 -0.278
60.4457 -0.187
60.4760 0.634
60.5063 0.154
60.5365 -0.066
60.5668 0.079
60.5971 -0.088
60.6274 0.058
60.6577 -0.056
60.6879 0.351
60.7182 0.185
60.7485 0.645
60.7788 -0.249
60.8091 0.368
60.8393 0.361
60.8696 0.093
60.8999 -0.123
60.9302 -0.442
60.9604 0.166
60.9907 -0.268
61.0210 0.185
61.0513 0.064
61.0816 -0.004
61.1118 0.762
61.1421 0.018
61.1724 0.368
61.2027 0.770
61.2330 -0.338
61.2632 -0.403
61.2935 0.469
61.3238 0.196
61.3541 0.131
61.3844 -0.141
61.4146 -0.465
61.4449 0.565
61.4752 0.085
61.5055 0.752
61.5357 0.064
61.5660 0.159
61.5963 -0.215
61.6266 -0.276
61.6569 -0.129
61.6871 -0.345
61.7174 -0.044
61.7477 0.519
61.7780 1.029
61.8083 0.030
61.8385 0.958
61.8688 0.480
61.8991 0.159
61.9294 0.464
61.9596 -0.065
61.9899 1.073
62.0202 1.066
62.0505 1.580
62.0808 1.053
62.1110 0.579
62.1413 1.510
62.1716 1.661
62.2019 1.292
62.2322 1.548
62.2624 2.898
62.2927 3.311
62.3230 3.412
62.3533 3.617
62.3835 3.823
62.4138 5.592
62.4441 4.965
62.4744 6.109
62.5047 7.514
62.5349 8.087
62.5652 8.242
62.5955 10.326
62.6258 12.045
62.6561 12.931
62.6863 15.537
62.7166 15.434
62.7469 13.873
62.7772 15.751
62.8074 15.233
62.8377 14.715
62.8680 14.249
62.8983 13.889
62.9286 11.132
62.9588 10.043
62.9891 7.600
63.0194 6.876
63.0497 7.038
63.0800 5.899
63.1102 5.697
63.1405 4.297
63.1708 3.679
63.2011 4.364
63.2313 3.226
63.2616 2.401
63.2919 1.837
63.3222 1.742
63.3525 1.543
63.3827 1.605
63.4130 0.625
63.4433 1.001
63.4736 0.595
63.5039 0.710
63.5341 0.930
63.5644 0.786
63.5947 0.747
63.6250 0.707
63.6552 0.668
63.6855 -0.099
63.7158 0.175
63.7461 0.085
63.7764 0.465
63.8066 -0.354
63.8369 0.495
63.8672 0.407
63.8975 1.256
63.9278 -0.081
63.9580 0.717
63.9883 0.057
64.0186 0.804
64.0489 0.301
64.0791 0.111
64.1094 0.391
64.1397 0.722
64.1700 0.221
64.2003 -0.280
64.2305 -0.468
64.2608 0.320
64.2911 -0.143
64.3214 0.177
64.3517 0.444
64.3819 -0.329
64.4122 0.304
64.4425 0.104
64.4728 0.113
64.5031 0.278
64.5333 -0.546
64.5636 -0.243
64.5939 0.112
64.6242 -0.834
64.6544 0.303
64.6847 -0.330
64.7150 0.287
64.7453 -0.137
64.7756 0.428
64.8058 0.213
64.8361 -0.314
64.8664 0.201
64.8967 0.612
64.9270 0.294
64.9572 -0.023
64.9875 -0.236
65.0178 0.333
65.0481 0.225
65.0783 0.222
65.1086 -0.198
65.1389 -0.305
65.1692 0.422
65.1995 -0.413
65.2297 0.158
65.2600 -0.416
65.2903 -0.131
65.3206 0.414
65.3509 -0.499
65.3811 0.204
65.4114 -0.344
65.4417 -0.005
65.4720 -0.083
65.5022 0.152
65.5325 -0.186
65.5628 -0.158
65.5931 0.026
65.6234 -0.259
65.6536 0.291
65.6839 -0.201
65.7142 -0.120
65.7445 0.222
65.7748 0.252
65.8050 0.387
65.8353 -0.311
65.8656 0.032
65.8959 0.064
65.9261 0.252
65.9564 -0.393
65.9867 0.786
66.0170 0.350
66.0473 1.477
66.0775 0.365
66.1078 0.660
66.1381 1.632
66.1684 0.781
66.1987 1.181
66.2289 1.582
66.2592 1.618
66.2895 1.550
66.3198 0.181
66.3500 1.259
66.3803 0.828
66.4106 1.387
66.4409 0.123
66.4712 0.839
66.5014 1.607
66.5317 0.240
66.5620 0.489
66.5923 -0.669
66.6226 0.413
66.6528 0.298
66.6831 0.600
66.7134 0.641
66.7437 -0.515
66.7739 0.309
66.8042 0.352
66.8345 -0.490
66.8648 0.126
66.8951 0.691
66.9253 -0.254
66.9556 0.207
66.9859 -0.269
67.0162 0.141
67.0465 0.031
67.0767 0.129
67.1070 -0.033
67.1373 0.692
67.1676 0.895
67.1978 1.255
67.2281 0.626
67.2584 1.560
67.2887 1.192
67.3190 2.127
67.3492 1.499
67.3795 1.914
67.4098 1.912
67.4401 1.859
67.4704 3.212
67.5006 3.107
67.5309 5.138
67.5612 4.930
67.5915 5.868
67.6218 5.556
67.6520 6.704
67.6823 7.122
67.7126 9.520
67.7429 8.793
67.7731 10.098
67.8034 11.820
67.8337 10.990
67.8640 10.056
67.8943 9.956
67.9245 10.794
67.9548 10.018
67.9851 8.044
68.0154 7.113
68.0457 8.160
68.0759 5.979
68.1062 5.674
68.1365 5.994
68.1668 4.074
68.1970 5.228
68.2273 4.091
68.2576 3.579
68.2879 3.015
68.3182 3.806
68.3484 3.451
68.3787 2.576
68.4090 2.274
68.4393 2.389
68.4696 1.150
68.4998 2.048
68.5301 1.435
68.5604 1.447
68.5907 2.502
68.6209 1.109
68.6512 1.539
68.6815 2.387
68.7118 1.620
68.7421 1.843
68.7723 2.952
68.8026 3.749
68.8329 2.983
68.8632 4.770
68.8935 4.162
68.9237 4.908
68.9540 3.884
68.9843 3.850
69.0146 5.535
69.0448 3.834
69.0751 3.801
69.1054 3.456
69.1357 3.059
69.1660 3.027
69.1962 2.891
69.2265 3.485
69.2568 1.944
69.2871 3.111
69.3174 1.831
69.3476 1.593
69.3779 1.928
69.4082 1.222
69.4385 0.933
69.4687 0.644
69.4990 0.772
69.5293 1.109
69.5596 1.238
69.5899 0.639
69.6201 0.873
69.6504 0.170
69.6807 0.144
69.7110 0.640
69.7413 0.406
69.7715 0.486
69.8018 0.045
69.8321 0.646
69.8624 -0.367
69.8926 -0.494
69.9229 0.408
69.9532 0.477
69.9835 0.025
70.0138 0.407
70.0440 0.164
70.0743 -0.183
70.1046 0.252
70.1349 0.584
70.1652 -0.335
70.1954 -0.263
70.2257 0.226
70.2560 -0.118
70.2863 -0.098
70.3166 0.392
70.3468 -0.212
70.3771 -0.138
70.4074 0.353
70.4377 0.168
70.4679 -0.591
70.4982 0.318
70.5285 0.081
70.5588 -0.728
70.5891 -0.041
70.6193 0.022
70.6496 0.554
70.6799 -0.268
70.7102 0.369
70.7405 0.277
70.7707 -0.231
70.8010 -0.271
70.8313 0.209
70.8616 0.116
70.8918 0.232
70.9221 0.036
70.9524 0.934
70.9827 0.165
71.0130 0.022
71.0432 0.192
71.0735 0.154
71.1038 0.220
71.1341 0.339
71.1644 0.042
71.1946 -0.255
71.2249 -0.052
71.2552 0.412
71.2855 -0.009
71.3157 0.248
71.3460 0.296
71.3763 0.033
71.4066 0.082
71.4369 -0.285
71.4671 -0.033
71.4974 0.064
71.5277 -0.308
71.5580 0.311
71.5883 0.357
71.6185 0.299
71.6488 0.085
71.6791 -0.337
71.7094 -0.035
71.7396 0.320
71.7699 0.258
71.8002 0.145
71.8305 0.136
71.8608 0.440
71.8910 0.119
71.9213 -0.097
71.9516 0.209
71.9819 -0.007
72.0122 0.299
72.0424 0.658
72.0727 -0.025
72.1030 -0.083
72.1333 0.068
72.1635 0.689
72.1938 0.528
72.2241 0.681
72.2544 0.260
72.2847 0.518
72.3149 0.411
72.3452 0.877
72.3755 1.500
72.4058 0.717
72.4361 0.976
72.4663 0.871
72.4966 1.131
72.5269 0.454
72.5572 1.131
72.5874 -0.014
72.6177 1.341
72.6480 0.978
72.6783 0.198
72.7086 0.356
72.7388 0.151
72.7691 0.466
72.7994 0.157
72.8297 0.004
72.8600 0.060
72.8902 0.377
72.9205 -0.295
72.9508 0.387
72.9811 0.288
73.0113 0.450
73.0416 0.300
73.0719 0.203
73.1022 -0.051
73.1325 0.373
73.1627 0.381
73.1930 -0.236
73.2233 0.241
73.2536 0.354
73.2839 -0.105
73.3141 -0.148
73.3444 0.331
73.3747 0.133
73.4050 0.456
73.4353 -0.262
73.4655 -0.146
73.4958 -0.134
73.5261 0.138
73.5564 -0.266
73.5866 0.268
73.6169 -0.135
73.6472 0.556
73.6775 0.049
73.7078 0.428
73.7380 0.183
73.7683 -0.740
73.7986 0.161
73.8289 -0.031
73.8592 0.037
73.8894 0.367
73.9197 0.592
73.9500 0.089
73.9803 -0.258
74.0105 0.073
74.0408 -0.013
74.0711 0.163
74.1014 0.078
74.1317 0.306
74.1619 0.326
74.1922 0.242
74.2225 0.315
74.2528 -0.132
74.2831 -0.215
74.3133 0.045
74.3436 0.097
74.3739 0.617
74.4042 0.097
74.4344 -0.215
74.4647 -0.073
74.4950 0.069
74.5253 0.107
74.5556 0.510
74.5858 0.133
74.6161 0.068
74.6464 0.316
74.6767 0.408
74.7070 0.345
74.7372 0.073
74.7675 -0.146
74.7978 0.260
74.8281 0.458
74.8583 -0.176
74.8886 0.335
74.9189 -0.142
74.9492 0.109
74.9795 0.674
75.0097 0.510
75.0400 0.451
75.0703 0.339
75.1006 0.072
75.1309 0.014
75.1611 0.477
75.1914 0.627
75.2217 0.101
75.2520 -0.060
75.2822 -0.012
75.3125 -0.276
75.3428 0.137
75.3731 -0.440
75.4034 0.339
75.4336 0.336
75.4639 0.594
75.4942 0.280
75.5245 0.279
75.5548 0.121
75.5850 0.329
75.6153 0.120
75.6456 0.798
75.6759 0.121
75.7061 0.278
75.7364 -0.033
75.7667 0.020
75.7970 -0.238
75.8273 0.077
75.8575 -0.337
75.8878 -0.038
75.9181 0.574
75.9484 0.249
75.9787 0.758
76.0089 0.069
76.0392 0.161
76.0695 -0.266
76.0998 -0.069
76.1301 0.233
76.1603 0.171
76.1906 0.370
76.2209 -0.368
76.2512 -0.169
76.2814 0.135
76.3117 0.179
76.3420 0.692
76.3723 0.581
76.4026 0.887
76.4328 0.515
76.4631 0.249
76.4934 0.451
76.5237 0.498
76.5540 0.441
76.5842 -0.189
76.6145 0.692
76.6448 0.272
76.6751 1.831
76.7053 0.786
76.7356 1.772
76.7659 1.093
76.7962 1.195
76.8265 1.037
76.8567 1.557
76.8870 1.243
76.9173 1.711
76.9476 0.878
76.9779 0.878
77.0081 0.931
77.0384 0.932
77.0687 0.360
77.0990 0.883
77.1292 0.260
77.1595 0.366
77.1898 0.317
77.2201 0.320
77.2504 0.845
77.2806 0.640
77.3109 0.280
77.3412 -0.080
77.3715 0.081
77.4018 0.503
77.4320 0.561
77.4623 0.307
77.4926 0.522
77.5229 -0.096
77.5531 0.016
77.5834 0.180
77.6137 -0.177
77.6440 0.352
77.6743 0.257
77.7045 -0.567
77.7348 0.224
77.7651 0.182
77.7954 0.348
77.8257 -0.110
77.8559 0.110
77.8862 -0.192
77.9165 0.497
77.9468 0.145
77.9770 -0.519
78.0073 -0.097
78.0376 0.066
78.0679 0.177
78.0982 0.289
78.1284 -0.328
78.1587 -0.164
78.1890 0.365
78.2193 0.478
78.2496 0.227
78.2798 -0.336
78.3101 -0.118
78.3404 -0.108
78.3707 0.580
78.4009 0.487
78.4312 0.082
78.4615 0.146
78.4918 -0.311
78.5221 -0.093
78.5523 0.439
78.5826 0.449
78.6129 -0.060
78.6432 0.472
78.6735 0.588
78.7037 0.444
78.7340 -0.012
78.7643 -0.259
78.7946 0.051
78.8248 0.048
78.8551 0.410
78.8854 0.877
78.9157 0.042
78.9460 0.406
78.9762 -0.116
79.0065 0.353
79.0368 0.457
79.0671 0.041
79.0974 0.041
79.1276 0.251
79.1579 0.148
79.1882 0.098
79.2185 0.204
79.2488 0.624
79.2790 0.366
79.3093 0.526
79.3396 0.113
79.3699 0.430
79.4001 0.330
79.4304 -0.030
79.4607 -0.233
79.4910 0.069
79.5213 0.527
79.5515 0.569
79.5818 0.508
79.6121 0.446
79.6424 0.281
79.6727 0.116
79.7029 0.369
79.7332 0.101
79.7635 0.301
79.7938 0.138
79.8240 0.392
79.8543 0.177
79.8846 0.432
79.9149 0.114
79.9452 -0.308
79.9754 0.156
80.0057 0.152
80.0360 0.200
80.0663 0.457
80.0966 0.193
80.1268 -0.227
80.1571 0.344
80.1874 0.133
80.2177 -0.233
80.2479 -0.089
80.2782 -0.100
80.3085 -0.215
80.3388 0.034
80.3691 -0.080
80.3993 0.222
80.4296 -0.152
80.4599 -0.005
80.4902 0.090
80.5205 0.134
80.5507 -0.030
80.5810 0.274
80.6113 -0.358
80.6416 -0.157
80.6718 -0.059
80.7021 0.247
80.7324 0.137
80.7627 -0.337
80.7930 -0.084
80.8232 0.221
80.8535 0.214
80.8838 0.832
80.9141 0.826
80.9444 0.664
80.9746 0.085
81.0049 -0.284
81.0352 0.440
81.0655 0.436
81.0957 0.223
81.1260 0.064
81.1563 0.529
81.1866 1.151
81.2169 0.680
81.2471 0.730
81.2774 0.832
81.3077 0.102
81.3380 0.361
81.3683 0.309
81.3985 0.309
81.4288 0.830
81.4591 0.518
81.4894 0.050
81.5196 0.311
81.5499 -0.156
81.5802 0.159
81.6105 0.161
81.6408 -0.096
81.6710 0.063
81.7013 0.275
81.7316 -0.138
81.7619 -0.081
81.7922 -0.337
81.8224 0.133
81.8527 0.135
81.8830 -0.019
81.9133 0.452
81.9436 -0.170
81.9738 0.250
82.0041 -0.319
82.0344 0.467
82.0647 0.211
82.0949 -0.097
82.1252 -0.092
82.1555 -0.034
82.1858 -0.080
82.2161 -0.438
82.2463 0.142
82.2766 0.097
82.3069 -0.156
82.3372 -0.096
82.3675 -0.244
82.3977 -0.244
82.4280 -0.142
82.4583 0.274
82.4886 -0.351
82.5188 -0.143
82.5491 -0.143
82.5794 0.222
82.6097 0.275
82.6400 -0.141
82.6702 0.069
82.7005 0.228
82.7308 0.230
82.7611 -0.080
82.7914 -0.337
82.8216 0.133
82.8519 -0.229
82.8822 0.346
82.9125 0.089
82.9427 0.404
82.9730 0.252
83.0033 0.152
83.0336 -0.156
83.0639 -0.152
83.0941 0.374
83.1244 0.171
83.1547 -0.083
83.1850 0.184
83.2153 0.034
83.2455 -0.167
83.2758 0.361
83.3061 0.942
83.3364 0.064
83.3666 -0.344
83.3969 0.394
83.4272 -0.065
83.4575 -0.004
83.4878 0.319
83.5180 -0.035
83.5483 -0.441
83.5786 0.075
83.6089 0.382
83.6392 -0.091
83.6694 0.791
83.6997 0.058
83.7300 0.367
83.7603 0.104
83.7905 0.206
83.8208 0.047
83.8511 0.046
83.8814 0.305
83.9117 0.200
83.9419 -0.217
83.9722 0.407
84.0025 -0.113
84.0328 0.096
84.0631 0.357
84.0933 0.358
84.1236 -0.057
84.1539 -0.107
84.1842 -0.313
84.2144 0.367
84.2447 0.162
84.2750 0.114
84.3053 0.170
84.3356 -0.243
84.3658 -0.030
84.3961 -0.389
84.4264 0.083
84.4567 0.347
84.4870 0.142
84.5172 -0.010
84.5475 -0.005
84.5778 0.208
84.6081 0.214
84.6383 -0.093
84.6686 0.330
84.6989 -0.185
84.7292 0.187
84.7595 -0.171
84.7897 0.722
84.8200 0.105
84.8503 0.999
84.8806 0.071
84.9109 -0.337
84.9411 -0.029
84.9714 0.540
85.0017 0.432
85.0320 0.273
85.0623 -0.146
85.0925 0.059
85.1228 0.057
85.1531 0.420
85.1834 -0.102
85.2136 0.053
85.2439 0.417
85.2742 0.157
85.3045 -0.416
85.3348 0.053
85.3650 0.263
85.3953 0.316
85.4256 0.682
85.4559 0.424
85.4862 0.999
85.5164 0.065
85.5467 0.537
85.5770 0.384
85.6073 0.075
85.6375 -0.337
85.6678 -0.035
85.6981 0.579
85.7284 -0.160
85.7587 0.038
85.7889 0.498
85.8192 0.072
85.8495 0.116
85.8798 0.003
85.9101 0.204
85.9403 0.352
85.9706 0.293
86.0009 0.443
86.0312 0.072
86.0614 0.222
86.0917 0.373
86.1220 0.419
86.1523 -0.002
86.1826 -0.059
86.2128 -0.167
86.2431 0.038
86.2734 0.086
86.3037 0.083
86.3340 0.185
86.3642 0.183
86.3945 0.025
86.4248 -0.550
86.4551 0.334
86.4853 -0.135
86.5156 0.385
86.5459 -0.135
86.5762 0.178
86.6065 -0.238
86.6367 0.127
86.6670 0.546
86.6973 -0.546
86.7276 0.498
86.7579 -0.073
86.7881 -0.070
86.8184 0.350
86.8487 0.094
86.8790 -0.683
86.9092 0.103
86.9395 -0.205
86.9698 -0.356
87.0001 0.691
87.0304 0.333
87.0606 -0.078
87.0909 -0.227
87.1212 0.023
87.1515 0.274
87.1818 -0.204
87.2120 0.204
87.2423 0.039
87.2726 -0.073
87.3029 0.545
87.3331 -0.140
87.3634 0.374
87.3937 0.315
87.4240 0.465
87.4543 -0.322
87.4845 0.037
87.5148 -0.020
87.5451 0.080
87.5754 0.232
87.6057 -0.397
87.6359 0.016
87.6662 0.794
87.6965 0.583
87.7268 0.424
87.7571 -0.620
87.7873 -0.205
87.8176 -0.050
87.8479 0.053
87.8782 -0.207
87.9084 0.105
87.9387 -0.155
87.9690 -0.259
87.9993 0.209
88.0296 0.105
88.0598 -0.103
88.0901 -0.259
88.1204 0.149
88.1507 0.506
88.1810 0.342
88.2112 -0.134
88.2415 0.067
88.2718 0.269
88.3021 0.263
88.3323 0.361
88.3626 0.147
88.3929 -0.118
88.4232 0.085
88.4535 0.133
88.4837 0.546
88.5140 0.386
88.5443 -0.086
88.5746 -0.141
88.6049 -0.248
88.6351 -0.250
88.6654 0.204
88.6957 0.398
88.7260 0.541
88.7562 0.058
88.7865 0.514
88.8168 0.553
88.8471 0.593
88.8774 -0.252
88.9076 1.142
88.9379 0.610
88.9682 0.235
88.9985 0.172
89.0288 1.308
89.0590 0.777
89.0893 0.612
89.1196 0.550
89.1499 1.740
89.1801 0.690
89.2104 1.515
89.2407 0.726
89.2710 1.917
89.3013 1.494
89.3315 1.956
89.3618 2.002
89.3921 1.476
89.4224 2.356
89.4527 1.934
89.4829 1.774
89.5132 2.863
89.5435 2.234
89.5738 2.023
89.6040 3.218
89.6343 1.965
89.6646 2.432
89.6949 2.638
89.7252 1.334
89.7554 1.229
89.7857 2.322
89.8160 2.322
89.8463 0.707
89.8766 1.541
89.9068 0.917
89.9371 1.439
89.9674 0.607
89.9977 0.817
90.0279 0.142
90.0582 0.874
90.0885 0.564
90.1188 0.776
90.1491 0.259
90.1793 -0.049
90.2096 -0.149
90.2399 0.064
90.2702 0.434
90.3005 -0.289
90.3307 0.029
90.3610 0.400
90.3913 -0.322
90.4216 0.258
90.4518 0.005
90.4821 -0.196
90.5124 0.021
90.5427 -0.179
90.5730 0.091
90.6032 0.621
90.6335 0.318
90.6638 0.120
90.6941 0.339
90.7244 -0.067
90.7546 0.049
90.7849 -0.148
90.8152 -0.240
90.8455 0.137
90.8758 0.097
90.9060 0.058
90.9363 0.072
90.9666 0.190
90.9969 0.048
91.0271 -0.250
91.0574 -0.093
91.0877 0.377
91.1180 0.326
91.1483 0.120
91.1785 0.122
91.2088 0.228
91.2391 0.179
91.2694 -0.234
91.2997 0.082
91.3299 0.086
91.3602 -0.430
91.3905 0.095
91.4208 -0.056
91.4510 0.106
91.4813 1.257
91.5116 -0.038
91.5419 0.125
91.5722 -0.337
91.6024 -0.087
91.6327 0.267
91.6630 -0.367
91.6933 -0.116
91.7236 0.031
91.7538 0.127
91.7841 0.379
91.8144 0.319
91.8447 0.312
91.8749 -0.164
91.9052 0.194
91.9355 -0.229
91.9658 0.234
91.9961 -0.189
92.0263 -0.038
92.0566 -0.251
92.0869 -0.255
92.1172 -0.419
92.1475 0.668
92.1777 -0.277
92.2080 0.654
92.2383 0.179
92.2686 0.538
92.2988 0.377
92.3291 0.580
92.3594 0.628
92.3897 0.155
92.4200 0.620
92.4502 0.200
92.4805 0.353
92.5108 0.819
92.5411 0.139
92.5714 0.398
92.6016 0.761
92.6319 1.333
92.6622 0.603
92.6925 0.863
92.7227 1.071
92.7530 0.863
92.7833 0.916
92.8136 0.500
92.8439 0.606
92.8741 0.399
92.9044 0.401
92.9347 0.821
92.9650 0.459
92.9953 0.827
93.0255 0.570
93.0558 0.678
93.0861 -0.359
93.1164 -0.198
93.1466 0.328
93.1769 0.178
93.2072 0.809
93.2375 0.138
93.2678 0.926
93.2980 0.308
93.3283 0.107
93.3586 0.063
93.3889 0.071
93.4192 -0.337
93.4494 -0.038
93.4797 0.209
93.5100 -0.221
93.5403 0.131
93.5706 0.119
93.6008 0.368
93.6311 0.200
93.6614 -0.176
93.6917 0.334
93.7219 0.012
93.7522 0.002
93.7825 -0.216
93.8128 0.348
93.8431 0.495
93.8733 0.226
93.9036 0.531
93.9339 0.054
93.9642 0.255
93.9945 -0.429
94.0247 -0.019
94.0550 -0.650
94.0853 0.065
94.1156 0.052
94.1458 0.247
94.1761 -0.287
94.2064 0.273
94.2367 -0.208
94.2670 -0.272
94.2972 0.394
94.3275 -0.555
94.3578 -0.149
94.3881 -0.159
94.4184 0.143
94.4486 0.238
94.4789 -0.240
94.5092 0.011
94.5395 0.211
94.5697 0.464
94.6000 -0.221
94.6303 0.657
94.6606 0.650
94.6909 0.695
94.7211 0.533
94.7514 0.006
94.7817 0.313
94.8120 0.412
94.8423 1.189
94.8725 1.237
94.9028 0.139
94.9331 0.760
94.9634 1.538
94.9936 0.650
95.0239 1.429
95.0542 1.635
95.0845 1.217
95.1148 1.788
95.1450 1.058
95.1753 1.110
95.2056 1.682
95.2359 1.943
95.2662 2.204
95.2964 1.684
95.3267 1.373
95.3570 2.104
95.3873 1.272
95.4175 1.119
95.4478 1.382
95.4781 1.177
95.5084 1.597
95.5387 1.236
95.5689 1.345
95.5992 0.516
95.6295 0.365
95.6598 0.787
95.6901 0.480
95.7203 0.382
95.7506 0.441
95.7809 0.864
95.8112 0.195
95.8414 0.098
95.8717 0.575
95.9020 0.427
95.9323 0.019
95.9626 0.341
95.9928 0.090
96.0231 0.204
96.0534 0.319
96.0837 0.538
96.1140 0.028
96.1442 -0.065
96.1745 -0.157
96.2048 0.168
96.2351 -0.132
96.2653 -0.276
96.2956 -0.263
96.3259 0.166
96.3562 -0.394
96.3865 0.453
96.4167 0.050
96.4470 -0.248
96.4773 0.496
96.5076 0.094
96.5379 -0.203
96.5681 -0.083
96.5984 0.037
96.6287 0.158
96.6590 -0.450
96.6893 -0.068
96.7195 -0.259
96.7498 0.118
96.7801 -0.389
96.8104 -0.082
96.8406 -0.034
96.8709 -0.038
96.9012 0.323
96.9315 0.476
96.9618 -0.048
96.9920 0.106
97.0223 0.156
97.0526 0.050
97.0829 0.048
97.1132 0.256
97.1434 0.203
97.1737 0.046
97.2040 0.359
97.2343 0.203
97.2645 -0.057
97.2948 -0.003
97.3251 0.259
97.3554 0.521
97.3857 -0.258
97.4159 -0.255
97.4462 -0.255
97.4765 -0.058
97.5068 0.451
97.5371 0.492
97.5673 -0.351
97.5976 0.211
97.6279 0.306
97.6582 0.244
97.6884 -0.025
97.7187 0.227
97.7490 0.479
97.7793 -0.154
97.8096 -0.266
97.8398 0.141
97.8701 -0.130
97.9004 -0.192
97.9307 0.059
97.9610 -0.054
97.9912 -0.219
98.0215 0.033
98.0518 0.077
98.0821 0.539
98.1123 0.063
98.1426 0.368
98.1729 0.362
98.2032 0.200
98.2335 0.507
98.2637 0.397
98.2940 1.069
98.3243 0.856
98.3546 0.175
98.3849 1.057
98.4151 0.533
98.4454 0.582
98.4757 1.829
98.5060 0.473
98.5362 1.044
98.5665 0.469
98.5968 0.572
98.6271 0.728
98.6574 0.831
98.6876 0.467
98.7179 0.623
98.7482 0.260
98.7785 0.521
98.8088 0.523
98.8390 0.524
98.8693 0.787
98.8996 0.477
98.9299 0.324
98.9601 0.692
98.9904 0.175
99.0207 0.127
99.0510 0.236
99.0813 -0.124
99.1115 0.141
99.1418 0.460
99.1721 0.361
99.2024 0.107
99.2327 0.375
99.2629 -0.556
99.2932 -0.080
99.3235 0.501
99.3538 0.041
99.3841 -0.211
99.4143 -0.150
99.4446 -0.245
99.4749 0.182
99.5052 -0.069
99.5354 -0.110
99.5657 -0.151
99.5960 0.016
99.6263 0.080
99.6566 -0.169
99.6868 -0.260
99.7171 -0.252
99.7474 0.016
99.7777 0.025
99.8080 0.294
99.8382 -0.165
99.8685 -0.103
99.8988 0.428
99.9291 -0.186
99.9593 0.137
99.9896 0.305
100.0199 -0.465
100.0502 0.329
100.0805 0.289
100.1107 0.302
100.1410 -0.050
100.1713 -0.244
100.2016 0.028
100.2319 -0.220
100.2621 -0.259
100.2924 0.256
100.3227 0.095
100.3530 0.350
100.3832 -0.279
100.4135 0.289
100.4438 0.338
100.4741 -0.291
100.5044 -0.242
100.5346 -0.244
100.5649 0.058
100.5952 0.673
100.6255 -0.118
100.6558 -0.075
100.6860 -0.240
100.7163 0.272
100.7466 -0.361
100.7769 0.100
100.8071 0.093
100.8374 0.294
100.8677 -0.077
100.8980 0.021
100.9283 0.068
100.9585 0.062
100.9888 -0.151
101.0191 -0.104
101.0494 0.308
101.0797 -0.216
101.1099 -0.116
101.1402 0.298
101.1705 0.503
101.2008 -0.176
101.2310 0.030
101.2613 -0.024
101.2916 0.027
101.3219 0.339
101.3522 0.026
101.3824 0.182
101.4127 0.026
101.4430 -0.234
101.4733 0.235
101.5036 -0.076
101.5338 0.239
101.5641 0.084
101.5944 0.399
101.6247 0.298
101.6549 -0.115
101.6852 0.149
101.7155 -0.004
101.7458 -0.208
101.7761 -0.255
101.8063 0.209
101.8366 -0.160
101.8669 0.096
101.8972 -0.220
101.9275 -0.119
101.9577 0.034
101.9880 0.031
102.0183 -0.231
102.0486 -0.441
102.0788 0.266
102.1091 -0.381
102.1394 0.223
102.1697 -0.162
102.2000 0.078
102.2302 -0.150
102.2605 -0.222
102.2908 -0.189
102.3211 -0.104
102.3514 0.295
102.3816 0.329
102.4119 -0.106
102.4422 -0.383
102.4725 0.537
102.5028 0.000
102.5330 0.452
102.5633 0.384
102.5936 -0.204
102.6239 -0.011
102.6541 0.547
102.6844 0.064
102.7147 0.728
102.7450 0.610
102.7753 0.753
102.8055 1.313
102.8358 0.103
102.8661 0.403
102.8964 0.287
102.9267 0.276
102.9569 0.577
102.9872 0.671
103.0175 0.140
103.0478 -0.234
103.0780 0.537
103.1083 -0.565
103.1386 0.311
103.1689 0.355
103.1992 0.139
103.2294 -0.442
103.2597 -0.084
103.2900 0.066
103.3203 -0.252
103.3506 0.159
103.3808 0.571
103.4111 0.306
103.4414 0.302
103.4717 0.089
103.5019 -0.487
103.5322 0.499
103.5625 -0.077
103.5928 0.286
103.6231 0.283
103.6533 -0.239
103.6836 0.333
103.7139 0.644
103.7442 0.591
103.7745 0.539
103.8047 0.331
103.8350 1.061
103.8653 1.010
103.8956 0.438
103.9258 0.856
103.9561 1.171
103.9864 1.226
104.0167 0.916
104.0470 0.294
104.0772 0.662
104.1075 0.666
104.1378 -0.215
104.1681 1.196
104.1984 1.305
104.2286 0.425
104.2589 0.483
104.2892 0.385
104.3195 1.017
104.3497 0.607
104.3800 0.198
104.4103 0.987
104.4406 0.422
104.4709 1.003
104.5011 0.022
104.5314 0.709
104.5617 0.250
104.5920 -0.157
104.6223 0.739
104.6525 -0.501
104.6828 0.500
104.7131 0.616
104.7434 0.055
104.7736 -0.298
104.8039 0.131
104.8342 -0.116
104.8645 0.418
104.8948 -0.818
104.9250 0.238
104.9553 -0.217
104.9856 0.215
105.0159 0.282
105.0462 0.194
105.0764 -0.415
105.1067 -0.144
105.1370 -0.913
105.1673 0.505
105.1975 -0.420
105.2278 -0.199
105.2581 -0.186
105.2884 -0.016
105.3187 0.832
105.3489 -0.404
105.3792 -0.285
105.4095 0.458
105.4398 -0.362
105.4701 0.173
105.5003 -0.228
105.5306 -0.161
105.5609 0.115
105.5912 -0.026
105.6215 0.303
105.6517 0.736
105.6820 0.545
105.7123 0.094
105.7426 0.163
105.7728 0.077
105.8031 -0.217
105.8334 -0.250
105.8637 0.180
105.8940 -0.483
105.9242 0.052
105.9545 0.588
105.9848 -0.387
106.0151 0.202
106.0454 0.269
106.0756 0.077
106.1059 0.406
106.1362 0.163
106.1665 0.284
106.1967 0.041
106.2270 0.268
106.2573 0.234
106.2876 0.305
106.3179 0.324
106.3481 0.083
106.3784 0.624
106.4087 0.696
106.4390 0.873
106.4693 0.530
106.4995 -0.074
106.5298 -0.208
106.5601 0.032
106.5904 0.272
106.6206 0.721
106.6509 0.233
106.6812 0.371
106.7115 0.404
106.7418 0.542
106.7720 0.681
106.8023 0.195
106.8326 0.386
106.8629 0.057
106.8932 0.093
106.9234 -0.027
106.9537 0.009
106.9840 0.671
107.0143 0.448
107.0445 0.434
107.0748 0.472
107.1051 0.250
107.1354 -0.024
107.1657 0.745
107.1959 0.263
107.2262 0.199
107.2565 0.031
107.2868 0.228
107.3171 -0.252
107.3473 0.207
107.3776 0.144
107.4079 0.239
107.4382 -0.240
107.4684 0.428
107.4987 0.055
107.5290 0.255
107.5593 0.351
107.5896 0.343
107.6198 -0.132
107.6501 0.381
107.6804 0.167
107.7107 0.317
107.7410 -0.470
107.7712 0.045
107.8015 0.926
107.8318 -0.485
107.8621 0.188
107.8923 -0.181
107.9226 0.337
107.9529 -0.500
107.9832 -0.034
108.0135 0.485
108.0437 -0.194
108.0740 -0.092
108.1043 0.220
108.1346 -0.094
108.1649 -0.251
108.1951 0.270
108.2254 0.062
108.2557 0.063
108.2860 -0.197
108.3163 0.534
108.3465 -0.714
108.3768 0.486
108.4071 -0.032
108.4374 -0.550
108.4676 0.390
108.4979 -0.595
108.5282 0.138
108.5585 -0.118
108.5888 -0.113
108.6190 0.308
108.6493 0.106
108.6796 0.789
108.7099 -0.247
108.7402 -0.084
108.7704 -0.285
108.8007 0.137
108.8310 -0.222
108.8613 0.357
108.8915 -0.054
108.9218 0.005
108.9521 -0.092
108.9824 0.020
109.0127 0.757
109.0429 -0.016
109.0732 -0.112
109.1035 -0.155
109.1338 -0.250
109.1641 -0.040
109.1943 0.014
109.2246 0.694
109.2549 0.124
109.2852 0.231
109.3154 0.130
109.3457 -0.178
109.3760 -0.018
109.4063 -0.169
109.4366 0.096
109.4668 0.154
109.4971 -0.049
109.5274 -0.199
109.5577 -0.244
109.5880 0.156
109.6182 0.245
109.6485 0.282
109.6788 0.163
109.7091 -0.216
109.7393 0.447
109.7696 0.069
109.7999 0.680
109.8302 0.459
109.8605 0.447
109.8907 0.487
109.9210 0.266
109.9513 1.140
109.9816 0.557
110.0119 0.025
110.0421 0.588
110.0724 0.474
110.1027 0.777
110.1330 0.351
110.1632 0.811
110.1935 0.750
110.2238 0.794
110.2541 0.734
110.2844 0.363
110.3146 -0.009
110.3449 0.818
110.3752 -0.178
110.4055 0.910
110.4358 0.540
110.4660 0.639
110.4963 0.374
110.5266 0.734
110.5569 0.106
110.5871 0.206
110.6174 0.828
110.6477 0.617
110.6780 1.135
110.7083 0.560
110.7385 0.663
110.7688 0.089
110.7991 0.088
110.8294 0.192
110.8597 0.139
110.8899 0.348
110.9202 0.296
110.9505 -0.276
110.9808 0.195
111.0110 0.248
111.0413 0.198
111.0716 -0.112
111.1019 0.360
111.1322 -0.366
111.1624 0.054
111.1927 -0.202
111.2230 0.375
111.2533 -0.245
111.2836 0.281
111.3138 0.286
111.3441 0.032
111.3744 0.142
111.4047 -0.216
111.4350 0.052
111.4652 0.215
111.4955 -0.454
111.5258 0.179
111.5561 0.031
111.5863 -0.012
111.6166 -0.055
111.6469 0.319
111.6772 0.069
111.7075 -0.285
111.7377 -0.015
111.7680 -0.162
111.7983 0.109
111.8286 0.328
111.8589 -0.026
111.8891 -0.014
111.9194 0.362
111.9497 0.374
111.9800 -0.030
112.0102 -0.122
112.0405 -0.369
112.0708 0.218
112.1011 0.284
112.1314 -0.223
112.1616 0.261
112.1919 0.380
112.2222 0.239
112.2525 -0.318
112.2828 0.063
112.3130 -0.025
112.3433 0.201
112.3736 0.114
112.4039 -0.233
112.4341 -0.186
112.4644 0.382
112.4947 -0.039
112.5250 0.270
112.5553 -0.046
112.5855 -0.101
112.6158 0.000
112.6461 0.414
112.6764 -0.161
112.7067 0.671
112.7369 -0.268
112.7672 0.669
112.7975 0.095
112.8278 -0.061
112.8580 0.199
112.8883 0.148
112.9186 0.357
112.9489 0.254
112.9792 0.152
113.0094 0.102
113.0397 -0.052
113.0700 -0.154
113.1003 0.162
113.1306 0.426
113.1608 -0.247
113.1911 0.070
113.2214 0.231
113.2517 -0.233
113.2819 -0.233
113.3122 -0.183
113.3425 -0.184
113.3728 0.023
113.4031 0.178
113.4333 -0.134
113.4636 -0.030
113.4939 -0.499
113.5242 0.544
113.5545 0.180
113.5847 -0.131
113.6150 -0.233
113.6453 0.177
113.6756 -0.037
113.7058 -0.095
113.7361 0.473
113.7664 -0.105
113.7967 0.203
113.8270 -0.062
113.8572 0.299
113.8875 0.191
113.9178 0.448
113.9481 0.446
113.9784 0.131
114.0086 0.233
114.0389 0.127
114.0692 -0.239
114.0995 -0.146
114.1298 0.155
114.1600 -0.116
114.1903 0.029
114.2206 -0.033
114.2509 0.009
114.2811 -0.052
114.3114 -0.165
114.3417 0.659
114.3720 0.182
114.4023 -0.190
114.4325 -0.250
114.4628 0.158
114.4931 0.411
114.5234 0.351
114.5537 0.187
114.5839 -0.289
114.6142 0.278
114.6445 -0.093
114.6748 -0.255
114.7050 -0.063
114.7353 0.285
114.7656 -0.460
114.7959 -0.058
114.8262 -0.334
114.8564 0.173
114.8867 -0.362
114.9170 -0.012
114.9473 0.131
114.9776 0.222
115.0078 -0.311
115.0381 -0.171
115.0684 0.126
115.0987 -0.202
115.1289 -0.165
115.1592 0.290
115.1895 0.119
115.2198 0.106
115.2501 0.092
115.2803 0.027
115.3106 0.014
115.3409 0.419
115.3712 -0.010
115.4015 0.031
115.4317 0.489
115.4620 0.009
115.4923 -0.001
115.5226 0.197
115.5528 0.031
115.5831 0.230
115.6134 0.586
115.6437 0.734
115.6740 0.465
115.7042 0.614
115.7345 0.711
115.7648 0.600
115.7951 1.635
115.8254 1.420
115.8556 1.831
115.8859 0.888
115.9162 1.456
115.9465 1.451
115.9767 1.082
116.0070 1.234
116.0373 2.533
116.0676 0.863
116.0979 1.485
116.1281 1.326
116.1584 1.689
116.1887 2.573
116.2190 1.113
116.2493 1.424
116.2795 0.851
116.3098 1.215
116.3401 1.215
116.3704 0.747
116.4006 0.956
116.4309 0.697
116.4612 1.324
116.4915 0.336
116.5218 1.224
116.5520 1.696
116.5823 1.491
116.6126 1.338
116.6429 0.821
116.6732 1.294
116.7034 0.257
116.7337 0.523
116.7640 0.945
116.7943 0.169
116.8245 1.009
116.8548 -0.131
116.8851 0.606
116.9154 0.040
116.9457 0.204
116.9759 0.785
117.0062 0.741
117.0365 0.542
117.0668 0.447
117.0971 0.144
117.1273 0.310
117.1576 0.268
117.1879 0.383
117.2182 0.186
117.2485 -0.011
117.2787 0.469
117.3090 0.013
117.3393 -0.391
117.3696 0.142
117.3998 0.260
117.4301 -0.143
117.4604 -0.285
117.4907 0.187
117.5210 -0.329
117.5512 -0.012
117.5815 0.149
117.6118 -0.107
117.6421 0.264
117.6724 0.686
117.7026 0.172
117.7329 -0.446
117.7632 0.446
117.7935 -0.015
117.8237 -0.216
117.8540 0.105
117.8843 0.010
117.9146 0.227
117.9449 -0.180
117.9751 -0.066
118.0054 0.204
118.0357 0.475
118.0660 0.121
118.0963 -0.076
118.1265 0.040
118.1568 -0.260
118.1871 -0.250
118.2174 0.595
118.2476 0.346
118.2779 -0.320
118.3082 0.578
118.3385 -0.139
118.3688 0.239
118.3990 -0.112
118.4293 0.318
118.4596 0.124
118.4899 0.399
118.5202 -0.212
118.5504 0.272
118.5807 -0.285
118.6110 -0.243
118.6413 -0.096
118.6715 0.208
118.7018 0.043
118.7321 0.139
118.7624 0.079
118.7927 0.176
118.8229 -0.352
118.8532 0.110
118.8835 0.000
118.9138 -0.214
118.9441 -0.012
118.9743 -0.121
119.0046 -0.178
119.0349 0.078
119.0652 -0.082
119.0954 -0.138
119.1257 0.328
119.1560 -0.040
119.1863 -0.199
119.2166 -0.149
119.2468 0.318
119.2771 -0.204
119.3074 0.160
119.3377 -0.101
119.3680 0.575
119.3982 0.471
119.4285 -0.257
119.4588 -0.152
119.4891 -0.255
119.5193 0.167
119.5496 0.174
119.5799 -0.184
119.6102 0.239
119.6405 0.038
119.6707 -0.006
119.7010 -0.102
119.7313 0.219
119.7616 -0.085
119.7919 0.133
119.8221 0.038
119.8524 0.101
119.8827 0.528
119.9130 -0.243
119.9433 0.289
119.9735 0.196
120.0038 0.000
