'Id: "" Comment: "" Operator: "Lab Manager" Anode: "Cu" Scantype: "Locked Coupled" TimePerStep: "19.2" X: "9999" Y: "9999" Z: "9999" 
10.0015 0.000
10.0318 1.846
10.0620 -0.423
10.0923 -0.452
10.1226 0.232
10.1529 1.332
10.1832 -0.379
10.2134 0.722
10.2437 0.730
10.2740 0.165
10.3043 -0.452
10.3346 0.234
10.3648 0.919
10.3951 -0.530
10.4254 0.677
10.4557 -0.199
10.4859 -0.085
10.5162 0.810
10.5465 -0.170
10.5768 -0.160
10.6071 0.840
10.6373 0.174
10.6676 -0.492
10.6979 0.352
10.7282 -0.470
10.7585 -0.420
10.7887 -0.578
10.8190 0.722
10.8493 0.565
10.8796 0.668
10.9098 0.562
10.9401 0.718
10.9704 -0.429
11.0007 -0.533
11.0310 0.560
11.0612 1.133
11.0915 0.457
11.1218 0.978
11.1521 -0.532
11.1824 0.199
11.2126 -0.269
11.2429 0.305
11.2732 0.776
11.3035 0.986
11.3337 0.624
11.3640 0.001
11.3943 0.316
11.4246 0.267
11.4549 -0.251
11.4851 0.638
11.5154 0.537
11.5457 0.697
11.5760 0.805
11.6063 0.080
11.6365 -0.436
11.6668 -0.224
11.6971 -0.115
11.7274 0.670
11.7577 -0.940
11.7879 -0.362
11.8182 0.217
11.8485 0.170
11.8788 0.176
11.9090 0.181
11.9393 0.344
11.9696 0.558
11.9999 0.148
12.0302 0.207
12.0604 -0.150
12.0907 0.274
12.1210 -0.083
12.1513 0.133
12.1816 0.609
12.2118 -0.216
12.2421 0.365
12.2724 0.426
12.3027 -0.086
12.3329 0.340
12.3632 0.089
12.3935 0.254
12.4238 0.889
12.4541 0.535
12.4843 0.545
12.5146 1.232
12.5449 -0.528
12.5752 -0.309
12.6055 -0.870
12.6357 1.120
12.6660 1.392
12.6963 0.050
12.7266 0.270
12.7568 0.855
12.7871 0.086
12.8174 -0.161
12.8477 0.216
12.8780 1.271
12.9082 0.295
12.9385 0.881
12.9688 -0.407
12.9991 0.493
13.0294 -0.170
13.0596 0.417
13.0899 0.484
13.1202 0.082
13.1505 0.514
13.1807 0.009
13.2110 0.962
13.2413 0.040
13.2716 -0.516
13.3019 -0.106
13.3321 0.617
13.3624 0.194
13.3927 0.449
13.4230 -0.181
13.4533 0.699
13.4835 0.382
13.5138 1.158
13.5441 0.476
13.5744 0.264
13.6046 0.676
13.6349 1.037
13.6652 0.252
13.6955 1.134
13.7258 0.037
13.7560 -0.070
13.7863 0.136
13.8166 0.654
13.8469 0.235
13.8772 -0.340
13.9074 0.596
13.9377 0.751
13.9680 0.125
13.9983 0.228
14.0285 1.216
14.0588 -0.764
14.0891 0.226
14.1194 -0.139
14.1497 -0.400
14.1799 -0.504
14.2102 0.747
14.2405 0.487
14.2708 0.280
14.3011 1.062
14.3313 0.439
14.3616 0.180
14.3919 0.077
14.4222 0.027
14.4524 -0.595
14.4827 -0.078
14.5130 0.752
14.5433 0.020
14.5736 0.798
14.6038 0.536
14.6341 0.117
14.6644 0.531
14.6947 0.269
14.7250 -0.045
14.7552 -0.620
14.7855 0.785
14.8158 0.264
14.8461 0.107
14.8764 0.210
14.9066 0.783
14.9369 -0.051
14.9672 0.575
14.9975 -0.310
15.0277 0.107
15.0580 -0.465
15.0883 -0.153
15.1186 -0.206
15.1489 0.367
15.1791 -0.153
15.2094 1.618
15.2397 -0.361
15.2700 0.161
15.3003 0.058
15.3305 0.059
15.3608 0.946
15.3911 -0.093
15.4214 0.065
15.4516 -0.350
15.4819 0.590
15.5122 0.854
15.5425 0.284
15.5728 0.443
15.6030 0.498
15.6333 -0.331
15.6636 -0.067
15.6939 0.354
15.7242 0.306
15.7544 0.883
15.7847 0.055
15.8150 0.737
15.8453 -0.612
15.8755 -0.398
15.9058 0.323
15.9361 0.315
15.9664 0.621
15.9967 -0.064
16.0269 0.190
16.0572 -0.129
16.0875 -0.240
16.1178 -0.142
16.1481 0.894
16.1783 0.107
16.2086 -0.889
16.2389 0.096
16.2692 -0.118
16.2994 -0.279
16.3297 0.185
16.3600 -0.027
16.3903 -0.344
16.4206 -0.296
16.4508 0.065
16.4811 -0.147
16.5114 0.058
16.5417 -0.570
16.5720 -0.106
16.6022 0.098
16.6325 0.094
16.6628 0.038
16.6931 0.556
16.7233 -0.021
16.7536 0.132
16.7839 1.119
16.8142 0.075
16.8445 0.437
16.8747 0.174
16.9050 0.016
16.9353 0.483
16.9656 0.169
16.9959 0.167
17.0261 -0.824
17.0564 0.426
17.0867 -0.617
17.1170 0.581
17.1472 0.685
17.1775 0.372
17.2078 -0.253
17.2381 0.060
17.2684 0.478
17.2986 1.104
17.3289 0.376
17.3592 -0.144
17.3895 0.118
17.4198 0.380
17.4500 0.018
17.4803 0.124
17.5106 -0.133
17.5409 0.182
17.5712 0.081
17.6014 0.240
17.6317 -0.277
17.6620 -0.170
17.6923 0.720
17.7225 -0.162
17.7528 0.207
17.7831 0.056
17.8134 0.321
17.8437 -0.716
17.8739 -0.294
17.9042 0.128
17.9345 0.134
17.9648 -0.069
17.9951 0.615
18.0253 0.673
18.0556 0.471
18.0859 0.114
18.1162 -0.400
18.1464 0.024
18.1767 0.135
18.2070 0.195
18.2373 0.307
18.2676 0.368
18.2978 -0.561
18.3281 0.281
18.3584 0.237
18.3887 0.403
18.4190 0.204
18.4492 0.370
18.4795 0.379
18.5098 0.233
18.5401 0.191
18.5703 -0.944
18.6006 -0.152
18.6309 -0.089
18.6612 0.391
18.6915 -0.223
18.7217 0.049
18.7520 0.425
18.7823 -0.396
18.8126 0.189
18.8429 0.566
18.8731 -0.046
18.9034 0.071
18.9337 -0.541
18.9640 -0.126
18.9942 -0.128
19.0245 -0.286
19.0548 -0.757
19.0851 0.648
19.1154 0.074
19.1456 -0.448
19.1759 0.489
19.2062 0.072
19.2365 0.697
19.2668 0.072
19.2970 -0.241
19.3273 0.072
19.3576 0.177
19.3879 0.126
19.4181 0.440
19.4484 -0.184
19.4787 0.234
19.5090 0.132
19.5393 0.134
19.5695 0.084
19.5998 -0.070
19.6301 -0.119
19.6604 -0.012
19.6907 -0.009
19.7209 -0.214
19.7512 -0.210
19.7815 0.054
19.8118 0.996
19.8420 -0.458
19.8723 0.015
19.9026 0.228
19.9329 0.493
19.9632 0.238
19.9934 -0.433
20.0237 0.249
20.0540 -0.005
20.0843 0.261
20.1146 -0.670
20.1448 -0.307
20.1751 0.577
20.2054 -0.309
20.2357 0.107
20.2659 0.575
20.2962 0.158
20.3265 0.053
20.3568 0.262
20.3871 0.574
20.4173 -0.363
20.4476 0.315
20.4779 0.160
20.5082 -0.360
20.5385 -0.254
20.5687 0.372
20.5990 0.270
20.6293 0.012
20.6596 0.379
20.6899 0.590
20.7201 0.072
20.7504 0.387
20.7807 -0.287
20.8110 0.081
20.8412 -0.332
20.8715 0.141
20.9018 0.145
20.9321 -0.267
20.9624 0.519
20.9926 0.315
21.0229 0.893
21.0532 0.169
21.0835 0.018
21.1138 -0.132
21.1440 -0.126
21.1743 0.349
21.2046 -0.166
21.2349 0.258
21.2651 -0.152
21.2954 0.271
21.3257 0.643
21.3560 0.130
21.3863 0.138
21.4165 -0.375
21.4468 0.779
21.4771 -0.306
21.5074 0.067
21.5377 0.232
21.5679 0.398
21.5982 0.719
21.6285 0.000
21.6588 0.426
21.6890 0.853
21.7193 0.447
21.7496 0.613
21.7799 -0.418
21.8102 -0.459
21.8404 0.365
21.8707 0.721
21.9010 0.556
21.9313 0.183
21.9616 0.226
21.9918 -0.250
22.0221 0.575
22.0524 0.880
22.0827 0.143
22.1129 0.032
22.1432 -0.027
22.1735 0.175
22.2038 0.220
22.2341 0.318
22.2643 -0.157
22.2946 0.671
22.3249 -0.064
22.3552 0.295
22.3855 0.030
22.4157 -0.132
22.4460 0.541
22.4763 -0.245
22.5066 -0.353
22.5368 0.841
22.5671 0.681
22.5974 0.000
22.6277 0.153
22.6580 0.566
22.6882 0.303
22.7185 1.290
22.7488 -0.119
22.7791 0.035
22.8094 0.190
22.8396 0.605
22.8699 -0.074
22.9002 1.123
22.9305 0.132
22.9607 -0.233
22.9910 0.651
23.0213 0.338
23.0516 0.234
23.0819 0.234
23.1121 0.078
23.1424 -0.650
23.1727 0.340
23.2030 0.758
23.2333 0.290
23.2635 0.552
23.2938 0.345
23.3241 0.191
23.3544 0.193
23.3846 0.300
23.4149 -0.635
23.4452 0.357
23.4755 -0.057
23.5058 0.311
23.5360 0.367
23.5663 0.683
23.5966 0.062
23.6269 -0.038
23.6572 0.018
23.6874 -0.342
23.7177 0.497
23.7480 0.033
23.7783 0.403
23.8086 0.252
23.8388 -0.003
23.8691 -0.361
23.8994 -0.048
23.9297 0.682
23.9599 -0.202
23.9902 1.101
24.0205 0.321
24.0508 -0.094
24.0811 0.377
24.1113 0.796
24.1416 -0.399
24.1719 0.541
24.2022 0.283
24.2325 -0.599
24.2627 0.290
24.2930 -0.279
24.3233 0.662
24.3536 0.093
24.3838 0.722
24.4141 0.310
24.4444 0.315
24.4747 0.736
24.5050 0.690
24.5352 -0.034
24.5655 0.440
24.5958 -0.335
24.6261 0.817
24.6564 0.667
24.6866 -0.212
24.7169 -0.101
24.7472 -0.355
24.7775 0.051
24.8077 0.300
24.8380 0.446
24.8683 0.800
24.8986 0.477
24.9289 -0.471
24.9591 0.717
24.9894 1.020
25.0197 1.115
25.0500 0.220
25.0803 -0.206
25.1105 0.098
25.1408 0.298
25.1711 -0.492
25.2014 -0.291
25.2316 0.378
25.2619 -0.672
25.2922 -0.002
25.3225 0.095
25.3528 0.192
25.3830 0.811
25.4133 0.231
25.4436 0.225
25.4739 0.167
25.5042 -0.047
25.5344 -0.365
25.5647 -0.371
25.5950 -0.223
25.6253 0.967
25.6555 0.542
25.6858 -0.195
25.7161 -0.203
25.7464 -0.158
25.7767 -0.061
25.8069 0.453
25.8372 -0.179
25.8675 0.284
25.8978 -0.139
25.9281 -0.354
25.9583 0.057
25.9886 -0.261
26.0189 -0.214
26.0492 -0.115
26.0794 -0.380
26.1097 -0.490
26.1400 0.391
26.1703 -0.343
26.2006 -0.295
26.2308 -0.143
26.2611 0.009
26.2914 -0.516
26.3217 0.054
26.3520 0.155
26.3822 -0.005
26.4125 0.513
26.4428 0.250
26.4731 -0.013
26.5034 0.193
26.5336 -0.017
26.5639 0.085
26.5942 -0.385
26.6245 -0.240
26.6547 0.166
26.6850 -0.470
26.7153 0.092
26.7456 0.082
26.7759 0.749
26.8061 -0.355
26.8364 0.573
26.8667 0.511
26.8970 0.138
26.9273 0.129
26.9575 -0.245
26.9878 -0.253
27.0181 0.259
27.0484 -0.114
27.0786 -0.226
27.1089 -0.025
27.1392 0.436
27.1695 0.273
27.1998 0.058
27.2300 0.832
27.2603 -0.633
27.2906 0.090
27.3209 0.084
27.3512 -0.130
27.3814 -0.292
27.4117 0.067
27.4420 -0.146
27.4723 -0.099
27.5025 -0.052
27.5328 -0.473
27.5631 0.773
27.5934 -0.220
27.6237 0.817
27.6539 0.137
27.6842 -1.012
27.7145 -0.187
27.7448 -0.350
27.7751 -0.149
27.8053 0.208
27.8356 0.618
27.8659 0.351
27.8962 -0.020
27.9264 0.079
27.9567 -0.136
27.9870 -0.350
28.0173 -0.199
28.0476 0.734
28.0778 0.312
28.1081 -0.161
28.1384 0.563
28.1687 -0.170
28.1990 0.086
28.2292 0.030
28.2595 0.652
28.2898 -0.133
28.3201 -0.240
28.3503 -0.035
28.3806 -0.506
28.4109 0.950
28.4412 -0.459
28.4715 -0.044
28.5017 0.423
28.5320 -0.047
28.5623 0.316
28.5926 -0.987
28.6229 0.158
28.6531 0.366
28.6834 0.522
28.7137 0.574
28.7440 -0.051
28.7742 -0.416
28.8045 -0.085
28.8348 0.090
28.8651 0.681
28.8954 0.075
28.9256 -0.167
28.9559 -0.408
28.9862 0.132
29.0165 0.100
29.0468 0.380
29.0770 0.661
29.1073 0.004
29.1376 0.493
29.1679 -0.527
29.1981 0.692
29.2284 -0.381
29.2587 0.057
29.2890 0.912
29.3193 0.257
29.3495 -0.033
29.3798 0.093
29.4101 -0.509
29.4404 0.399
29.4707 -0.046
29.5009 0.394
29.5312 0.053
29.5615 0.701
29.5918 -0.212
29.6221 -0.500
29.6523 0.149
29.6826 0.017
29.7129 0.250
29.7432 -0.142
29.7734 -0.325
29.8037 -0.717
29.8340 0.299
29.8643 0.689
29.8946 0.194
29.9248 0.064
29.9551 0.143
29.9854 -0.351
30.0157 -1.054
30.0460 0.588
30.0762 1.709
30.1065 0.435
30.1368 0.410
30.1671 0.282
30.1973 0.363
30.2276 -0.130
30.2579 0.316
30.2882 0.397
30.3185 0.634
30.3487 0.872
30.3790 0.693
30.4093 0.671
30.4396 1.482
30.4699 0.888
30.5001 0.762
30.5304 0.428
30.5607 0.615
30.5910 1.063
30.6212 1.199
30.6515 1.126
30.6818 2.356
30.7121 3.222
30.7424 3.306
30.7726 2.714
30.8029 3.215
30.8332 3.405
30.8635 2.709
30.8938 4.721
30.9240 4.339
30.9543 5.050
30.9846 4.355
31.0149 4.806
31.0451 5.413
31.0754 4.927
31.1057 7.046
31.1360 8.643
31.1663 7.794
31.1965 9.652
31.2268 10.938
31.2571 14.412
31.2874 15.282
31.3177 16.256
31.3479 17.178
31.3782 19.143
31.4085 21.159
31.4388 22.967
31.4690 27.016
31.4993 32.054
31.5296 31.050
31.5599 33.276
31.5902 35.086
31.6204 37.260
31.6507 40.737
31.6810 37.703
31.7113 37.378
31.7416 36.116
31.7718 29.021
31.8021 30.936
31.8324 25.768
31.8627 22.476
31.8929 18.142
31.9232 16.464
31.9535 14.579
31.9838 10.922
32.0141 12.839
32.0443 9.496
32.0746 8.080
32.1049 7.914
32.1352 7.176
32.1655 4.771
32.1957 5.075
32.2260 4.077
32.2563 4.224
32.2866 5.050
32.3169 3.063
32.3471 4.461
32.3774 2.631
32.4077 1.686
32.4380 0.846
32.4682 1.881
32.4985 1.978
32.5288 0.982
32.5591 0.872
32.5894 0.710
32.6196 1.069
32.6499 1.324
32.6802 0.329
32.7105 0.324
32.7408 0.267
32.7710 0.627
32.8013 0.207
32.8316 -0.579
32.8619 -0.325
32.8921 0.345
32.9224 1.016
32.9527 1.009
32.9830 -0.455
33.0133 0.112
33.0435 0.263
33.0738 0.101
33.1041 0.877
33.1344 0.351
33.1647 -0.643
33.1949 0.134
33.2252 0.807
33.2555 -0.187
33.2858 0.018
33.3160 -0.090
33.3463 0.011
33.3766 -0.565
33.4069 0.161
33.4372 0.315
33.4674 -0.261
33.4977 0.154
33.5280 1.193
33.5583 -0.110
33.5886 1.138
33.6188 1.501
33.6491 -0.010
33.6794 0.979
33.7097 1.551
33.7399 3.217
33.7702 1.759
33.8005 2.436
33.8308 3.270
33.8611 3.999
33.8913 3.583
33.9216 5.147
33.9519 6.554
33.9822 7.649
34.0125 7.964
34.0427 10.674
34.0730 11.770
34.1033 15.574
34.1336 18.962
34.1638 24.382
34.1941 30.322
34.2244 34.805
34.2547 42.881
34.2850 48.614
34.3152 49.451
34.3455 46.278
34.3758 42.220
34.4061 36.704
34.4364 28.219
34.4666 21.974
34.4969 18.646
34.5272 13.964
34.5575 12.564
34.5877 10.226
34.6180 8.617
34.6483 7.009
34.6786 7.745
34.7089 7.075
34.7391 5.207
34.7694 3.756
34.7997 4.857
34.8300 4.240
34.8603 4.665
34.8905 3.215
34.9208 3.744
34.9511 3.388
34.9814 3.918
35.0116 4.083
35.0419 2.322
35.0722 5.352
35.1025 5.102
35.1328 5.008
35.1630 3.299
35.1933 3.518
35.2236 6.341
35.2539 4.842
35.2842 6.624
35.3144 5.333
35.3447 5.032
35.3750 7.128
35.4053 7.036
35.4356 6.788
35.4658 7.686
35.4961 7.386
35.5264 9.378
35.5567 9.600
35.5869 10.759
35.6172 11.918
35.6475 15.578
35.6778 16.790
35.7081 16.544
35.7383 19.111
35.7686 21.261
35.7989 23.516
35.8292 28.010
35.8595 26.932
35.8897 31.948
35.9200 38.630
35.9503 38.022
35.9806 43.976
36.0108 48.784
36.0411 51.405
36.0714 57.724
36.1017 56.231
36.1320 58.436
36.1622 56.839
36.1925 55.243
36.2228 53.282
36.2531 51.581
36.2834 47.746
36.3136 40.213
36.3439 36.222
36.3742 34.314
36.4045 26.990
36.4347 24.093
36.4650 21.665
36.4953 20.696
36.5256 17.487
36.5559 13.497
36.5861 13.362
36.6164 12.029
36.6467 11.165
36.6770 9.520
36.7073 8.136
36.7375 6.752
36.7678 6.618
36.7981 5.599
36.8284 6.507
36.8586 4.967
36.8889 5.303
36.9192 4.077
36.9495 4.673
36.9798 3.916
37.0100 4.200
37.0403 2.975
37.0706 2.791
37.1009 3.441
37.1312 2.112
37.1614 1.929
37.1917 1.746
37.2220 2.657
37.2523 1.693
37.2825 1.824
37.3128 1.642
37.3431 0.939
37.3734 2.008
37.4037 1.462
37.4339 0.448
37.4642 1.621
37.4945 0.451
37.5248 1.156
37.5551 0.559
37.5853 0.171
37.6156 0.825
37.6459 0.645
37.6762 0.049
37.7064 0.912
37.7367 0.056
37.7670 0.763
37.7973 -0.144
37.8276 0.980
37.8578 0.333
37.8881 -0.053
37.9184 0.135
37.9487 0.478
37.9790 0.301
38.0092 -0.448
38.0395 -0.470
38.0698 0.498
38.1001 -0.512
38.1304 -0.012
38.1606 -0.241
38.1909 -0.730
38.2212 0.291
38.2515 0.323
38.2817 0.095
38.3120 0.024
38.3423 1.046
38.3726 0.246
38.4029 0.384
38.4331 0.261
38.4634 0.815
38.4937 0.537
38.5240 0.623
38.5543 0.293
38.5845 0.328
38.6148 -0.158
38.6451 0.293
38.6754 0.693
38.7056 0.364
38.7359 0.244
38.7662 0.384
38.7965 0.472
38.8268 0.092
38.8570 0.650
38.8873 -0.042
38.9176 -0.162
38.9479 0.865
38.9782 -0.399
39.0084 -0.361
39.0387 0.315
39.0690 0.679
39.0993 0.366
39.1295 0.209
39.1598 0.261
39.1901 -0.156
39.2204 0.886
39.2507 0.158
39.2809 0.054
39.3112 -0.205
39.3415 0.473
39.3718 0.266
39.4021 -0.305
39.4323 0.374
39.4626 0.116
39.4929 0.379
39.5232 0.225
39.5534 -0.189
39.5837 1.012
39.6140 -0.287
39.6443 0.186
39.6746 0.137
39.7048 -0.327
39.7351 0.458
39.7654 -0.371
39.7957 -0.054
39.8260 0.055
39.8562 -0.356
39.8865 -0.300
39.9168 0.226
39.9471 -0.186
39.9773 -0.129
40.0076 0.085
40.0379 -0.118
40.0682 0.253
40.0985 -0.262
40.1287 0.005
40.1590 -0.249
40.1893 -0.138
40.2196 -0.183
40.2499 -0.020
40.2801 0.196
40.3104 -0.473
40.3407 -0.153
40.3710 -0.041
40.4012 0.384
40.4315 0.341
40.4618 -0.067
40.4921 0.255
40.5224 0.003
40.5526 -0.716
40.5829 0.335
40.6132 0.397
40.6435 0.668
40.6738 0.105
40.7040 -0.145
40.7343 -0.186
40.7646 -0.175
40.7949 0.253
40.8251 0.213
40.8554 -0.296
40.8857 0.289
40.9160 0.040
40.9463 0.105
40.9765 0.378
41.0068 -0.755
41.0371 -0.325
41.0674 -0.071
41.0977 0.444
41.1279 0.438
41.1582 0.172
41.1885 0.167
41.2188 -0.254
41.2491 0.053
41.2793 0.153
41.3096 -0.008
41.3399 -0.116
41.3702 0.245
41.4004 0.710
41.4307 -0.595
41.4610 0.026
41.4913 -0.497
41.5216 0.489
41.5518 0.174
41.5821 0.328
41.6124 -0.090
41.6427 -0.040
41.6730 -0.250
41.7032 0.582
41.7335 -0.096
41.7638 0.736
41.7941 0.527
41.8243 0.110
41.8546 0.214
41.8849 0.058
41.9152 0.527
41.9455 -0.150
41.9757 -0.097
42.0060 -0.148
42.0363 0.113
42.0666 0.167
42.0969 0.325
42.1271 0.326
42.1574 0.068
42.1877 0.018
42.2180 0.229
42.2482 0.128
42.2785 -0.234
42.3088 -0.022
42.3391 -0.696
42.3694 0.141
42.3996 -0.168
42.4299 -0.112
42.4602 -0.211
42.4905 0.158
42.5208 -0.254
42.5510 0.063
42.5813 0.277
42.6116 -0.030
42.6419 -0.129
42.6721 0.138
42.7024 0.144
42.7327 -0.371
42.7630 0.157
42.7933 0.007
42.8235 0.952
42.8538 -0.030
42.8841 -0.023
42.9144 -0.015
42.9447 -0.320
42.9749 -0.055
43.0052 0.366
43.0355 0.266
43.0658 0.115
43.0960 0.953
43.1263 0.125
43.1566 -0.234
43.1869 -0.228
43.2172 0.194
43.2474 -0.216
43.2777 0.050
43.3080 -0.256
43.3383 0.220
43.3686 0.123
43.3988 0.182
43.4291 -0.071
43.4594 -0.375
43.4897 0.036
43.5199 0.031
43.5502 0.234
43.5805 0.907
43.6108 -0.035
43.6411 0.117
43.6713 0.165
43.7016 0.682
43.7319 -0.103
43.7622 -0.314
43.7925 -0.008
43.8227 -0.275
43.8530 -0.750
43.8833 0.286
43.9136 0.124
43.9439 -0.350
43.9741 -0.153
44.0044 -0.165
44.0347 0.189
44.0650 0.126
44.0952 -0.040
44.1255 0.001
44.1558 -0.009
44.1861 0.554
44.2164 -0.236
44.2466 0.848
44.2769 -0.255
44.3072 -0.160
44.3375 0.040
44.3678 -0.541
44.3980 0.076
44.4283 0.068
44.4586 0.320
44.4889 -0.260
44.5191 -0.059
44.5494 -0.483
44.5797 0.187
44.6100 0.076
44.6403 -0.295
44.6705 -0.561
44.7008 0.262
44.7311 0.409
44.7614 0.035
44.7917 0.495
44.8219 -0.191
44.8522 -0.043
44.8825 0.209
44.9128 0.305
44.9430 0.870
44.9733 0.185
45.0036 0.542
45.0339 -0.246
45.0642 0.216
45.0944 0.001
45.1247 0.359
45.1550 0.405
45.1853 -0.331
45.2156 -0.857
45.2458 0.335
45.2761 -0.295
45.3064 0.533
45.3367 -0.097
45.3669 0.419
45.3972 0.050
45.4275 -0.163
45.4578 0.302
45.4881 -0.327
45.5183 -0.330
45.5486 0.083
45.5789 0.236
45.6092 -0.184
45.6395 0.126
45.6697 0.332
45.7000 0.070
45.7303 -0.349
45.7606 0.326
45.7908 -0.404
45.8211 0.167
45.8514 0.583
45.8817 -0.460
45.9120 -0.356
45.9422 -0.262
45.9725 0.198
46.0028 0.345
46.0331 0.544
46.0634 0.171
46.0936 0.370
46.1239 -0.263
46.1542 -0.115
46.1845 -0.748
46.2147 0.234
46.2450 0.019
46.2753 0.584
46.3056 0.369
46.3359 0.206
46.3661 0.408
46.3964 0.297
46.4267 0.552
46.4570 0.494
46.4873 0.124
46.5175 0.379
46.5478 1.155
46.5781 0.108
46.6084 0.781
46.6386 1.401
46.6689 1.293
46.6992 0.664
46.7295 1.285
46.7598 1.125
46.7900 1.903
46.8203 1.796
46.8506 1.897
46.8809 2.780
46.9112 3.298
46.9414 2.307
46.9717 2.044
47.0020 3.866
47.0323 2.979
47.0626 4.279
47.0928 5.164
47.1231 5.684
47.1534 5.162
47.1837 7.297
47.2139 6.099
47.2442 7.766
47.2745 8.756
47.3048 9.017
47.3351 10.841
47.3653 9.956
47.3956 12.249
47.4259 11.365
47.4562 11.679
47.4865 11.108
47.5167 10.746
47.5470 7.780
47.5773 8.147
47.6076 8.149
47.6378 6.850
47.6681 6.177
47.6984 5.138
47.7287 4.465
47.7590 4.261
47.7892 3.379
47.8195 3.540
47.8498 3.493
47.8801 2.820
47.9104 1.888
47.9406 1.841
47.9709 1.795
48.0012 2.009
48.0315 1.546
48.0617 0.927
48.0920 1.611
48.1223 0.836
48.1526 0.166
48.1829 1.111
48.2131 0.753
48.2434 0.240
48.2737 0.873
48.3040 0.464
48.3343 0.577
48.3645 -0.196
48.3948 0.282
48.4251 0.655
48.4554 0.039
48.4856 0.674
48.5159 0.110
48.5462 0.276
48.5765 0.703
48.6068 0.453
48.6370 -0.161
48.6673 -0.411
48.6976 0.381
48.7279 -0.128
48.7582 0.091
48.7884 -0.157
48.8187 0.011
48.8490 -0.029
48.8793 0.244
48.9095 0.100
48.9398 0.061
48.9701 0.334
49.0004 0.243
49.0307 -0.212
49.0609 0.635
49.0912 -0.236
49.1215 -0.379
49.1518 0.193
49.1821 0.139
49.2123 0.450
49.2426 -0.489
49.2729 -0.229
49.3032 0.551
49.3334 -0.126
49.3637 0.186
49.3940 0.186
49.4243 -0.022
49.4546 -0.855
49.4848 0.812
49.5151 -0.541
49.5454 -0.019
49.5757 -0.539
49.6060 0.192
49.6362 0.350
49.6665 -0.325
49.6968 0.094
49.7271 -0.216
49.7574 -0.005
49.7876 0.414
49.8179 -0.156
49.8482 -0.256
49.8785 -0.044
49.9087 0.064
49.9390 0.172
49.9693 -0.345
49.9996 0.128
50.0299 -0.283
50.0601 -0.174
50.0904 0.820
50.1207 0.513
50.1510 0.050
50.1813 0.160
50.2115 0.479
50.2418 -0.400
50.2721 -0.185
50.3024 -0.179
50.3326 0.193
50.3629 0.356
50.3932 0.520
50.4235 0.528
50.4538 0.327
50.4840 0.492
50.5143 0.240
50.5446 -0.325
50.5749 -0.277
50.6052 0.395
50.6354 0.182
50.6657 0.282
50.6960 -0.295
50.7263 0.275
50.7565 -0.093
50.7868 0.268
50.8171 0.161
50.8474 0.158
50.8777 -0.001
50.9079 -0.003
50.9382 0.151
50.9685 0.305
50.9988 0.199
51.0291 -0.323
51.0593 -0.116
51.0896 -0.482
51.1199 0.143
51.1502 -0.014
51.1804 0.142
51.2107 -0.015
51.2410 0.298
51.2713 0.246
51.3016 0.247
51.3318 -0.690
51.3621 -0.275
51.3924 -0.173
51.4227 0.190
51.4530 0.136
51.4832 -0.021
51.5135 -0.439
51.5438 0.498
51.5741 -0.284
51.6043 -0.180
51.6346 -0.232
51.6649 0.080
51.6952 0.653
51.7255 -0.283
51.7557 -0.126
51.7860 -0.177
51.8163 -0.228
51.8466 -0.019
51.8769 0.035
51.9071 0.037
51.9374 -0.325
51.9677 -0.323
51.9980 0.149
52.0282 0.152
52.0585 0.051
52.0888 0.210
52.1191 0.006
52.1494 -0.303
52.1796 0.274
52.2099 0.539
52.2402 -0.082
52.2705 0.132
52.3008 -0.228
52.3310 0.767
52.3613 -0.009
52.3916 -0.524
52.4219 0.732
52.4521 0.582
52.4824 0.015
52.5127 -0.082
52.5430 0.393
52.5733 0.140
52.6035 -0.009
52.6338 -0.314
52.6641 -0.264
52.6944 0.463
52.7247 -0.008
52.7549 0.563
52.7852 0.822
52.8155 0.092
52.8458 -0.274
52.8761 0.819
52.9063 -0.380
52.9366 0.089
52.9669 0.089
52.9972 0.037
53.0274 0.141
53.0577 0.246
53.0880 0.195
53.1183 0.144
53.1486 0.301
53.1788 0.563
53.2091 0.721
53.2394 0.515
53.2697 -0.525
53.3000 -0.314
53.3302 0.353
53.3605 0.239
53.3908 0.334
53.4211 0.533
53.4513 0.629
53.4816 0.360
53.5119 0.351
53.5422 0.447
53.5725 0.179
53.6027 0.015
53.6330 0.476
53.6633 0.260
53.6936 -0.372
53.7239 0.142
53.7541 0.031
53.7844 0.129
53.8147 -0.346
53.8450 -0.091
53.8752 -0.201
53.9055 -0.311
53.9358 0.465
53.9661 0.252
53.9964 0.611
54.0266 -0.331
54.0569 -0.765
54.0872 0.624
54.1175 0.035
54.1478 0.226
54.1780 0.470
54.2083 -0.275
54.2386 -0.187
54.2689 0.214
54.2991 0.094
54.3294 -0.338
54.3597 0.428
54.3900 -0.055
54.4203 -0.174
54.4505 0.332
54.4808 -0.046
54.5111 -0.113
54.5414 -0.335
54.5717 0.016
54.6019 0.003
54.6322 0.146
54.6625 0.238
54.6928 -0.504
54.7230 0.473
54.7533 -0.008
54.7836 -0.176
54.8139 0.490
54.8442 0.426
54.8744 0.623
54.9047 -0.013
54.9350 -0.076
54.9653 0.382
54.9956 0.060
55.0258 0.414
55.0561 0.092
55.0864 0.603
55.1167 0.385
55.1469 0.115
55.1772 0.054
55.2075 1.139
55.2378 0.558
55.2681 -0.075
55.2983 0.385
55.3286 0.794
55.3589 0.578
55.3892 0.206
55.4195 0.980
55.4497 0.192
55.4800 1.019
55.5103 1.012
55.5406 0.381
55.5709 0.792
55.6011 0.734
55.6314 1.093
55.6617 1.348
55.6920 1.499
55.7222 1.338
55.7525 2.219
55.7828 1.694
55.8131 2.731
55.8434 2.415
55.8736 2.359
55.9039 3.032
55.9342 3.706
55.9645 3.755
55.9948 2.607
56.0250 4.531
56.0553 5.206
56.0856 5.516
56.1159 5.097
56.1461 5.304
56.1764 6.396
56.2067 8.010
56.2370 8.738
56.2673 10.664
56.2975 10.039
56.3278 11.809
56.3581 12.903
56.3884 12.747
56.4187 13.945
56.4489 14.310
56.4792 14.363
56.5095 15.301
56.5398 14.053
56.5700 13.533
56.6003 12.962
56.6306 12.495
56.6609 9.164
56.6912 9.114
56.7214 7.867
56.7517 8.234
56.7820 6.310
56.8123 6.939
56.8426 4.494
56.8728 5.644
56.9031 4.033
56.9334 3.517
56.9637 3.157
56.9939 4.255
57.0242 3.479
57.0545 2.338
57.0848 2.500
57.1151 2.141
57.1453 2.719
57.1756 2.673
57.2059 1.690
57.2362 1.696
57.2665 1.755
57.2967 0.408
57.3270 1.353
57.3573 0.735
57.3876 0.847
57.4178 1.115
57.4481 0.654
57.4784 0.715
57.5087 0.671
57.5390 0.419
57.5692 0.533
57.5995 0.490
57.6298 0.864
57.6601 0.144
57.6904 0.571
57.7206 0.216
57.7509 0.695
57.7812 -0.388
57.8115 0.196
57.8417 -0.366
57.8720 -0.354
57.9023 0.387
57.9326 -0.122
57.9629 0.620
57.9931 0.112
58.0234 0.541
58.0537 0.346
58.0840 -0.109
58.1143 -0.356
58.1445 0.010
58.1748 -0.197
58.2051 0.065
58.2354 0.119
58.2656 -0.087
58.2959 0.957
58.3262 -0.602
58.3565 -0.183
58.3868 -0.075
58.4170 -0.228
58.4473 -0.746
58.4776 0.195
58.5079 -0.531
58.5382 0.254
58.5684 0.102
58.5987 0.158
58.6290 0.683
58.6593 -0.302
58.6896 0.640
58.7198 0.020
58.7501 -0.131
58.7804 -0.073
58.8107 -0.432
58.8409 0.040
58.8712 0.148
58.9015 -0.682
58.9318 0.260
58.9621 0.264
58.9923 -0.148
59.0226 0.065
59.0529 -0.346
59.0832 -0.550
59.1135 0.445
59.1437 -0.279
59.1740 0.040
59.2043 0.254
59.2346 -0.261
59.2648 0.006
59.2951 0.221
59.3254 0.071
59.3557 -0.078
59.3860 0.346
59.4162 0.249
59.4465 -0.316
59.4768 0.317
59.5071 0.169
59.5374 -0.031
59.5676 0.186
59.5979 -0.222
59.6282 0.204
59.6585 -0.047
59.6887 -0.142
59.7190 -0.132
59.7493 -0.331
59.7796 -0.015
59.8099 -0.221
59.8401 0.147
59.8704 0.046
59.9007 0.154
59.9310 0.209
59.9613 0.161
59.9915 -0.095
60.0218 0.847
60.0521 0.279
60.0824 0.752
60.1126 0.237
60.1429 -0.175
60.1732 -0.377
60.2035 0.135
60.2338 0.283
60.2640 0.118
60.2943 0.423
60.3246 0.051
60.3549 0.096
60.3852 0.245
60.4154 -0.231
60.4457 0.127
60.4760 0.433
60.5063 -0.251
60.5365 0.420
60.5668 0.102
60.5971 0.305
60.6274 0.195
60.6577 -0.175
60.6879 -0.336
60.7182 0.065
60.7485 -0.002
60.7788 -0.017
60.8091 0.125
60.8393 0.163
60.8696 -0.268
60.8999 0.239
60.9302 0.069
60.9604 -0.049
60.9907 0.407
61.0210 -0.127
61.0513 0.173
61.0816 0.056
61.1118 0.148
61.1421 -0.021
61.1724 -0.553
61.2027 0.424
61.2330 0.257
61.2632 -0.171
61.2935 0.339
61.3238 0.380
61.3541 0.109
61.3844 0.359
61.4146 -0.015
61.4449 -0.025
61.4752 0.330
61.5055 0.268
61.5357 -0.366
61.5660 -0.323
61.5963 -0.228
61.6266 0.753
61.6569 0.484
61.6871 1.153
61.7174 0.519
61.7477 0.668
61.7780 0.348
61.8083 0.705
61.8385 1.114
61.8688 0.482
61.8991 1.882
61.9294 1.094
61.9596 1.244
61.9899 1.290
62.0202 1.232
62.0505 2.633
62.0808 2.471
62.1110 2.831
62.1413 1.524
62.1716 2.665
62.2019 2.921
62.2322 3.229
62.2624 3.850
62.2927 3.534
62.3230 3.739
62.3533 3.683
62.3835 4.253
62.4138 5.188
62.4441 6.175
62.4744 6.068
62.5047 6.743
62.5349 9.397
62.5652 7.572
62.5955 8.873
62.6258 9.653
62.6561 10.902
62.6863 10.641
62.7166 11.213
62.7469 12.463
62.7772 11.733
62.8074 11.004
62.8377 11.786
62.8680 11.109
62.8983 9.704
62.9286 9.861
62.9588 8.821
62.9891 8.562
63.0194 7.261
63.0497 6.794
63.0800 5.599
63.1102 5.236
63.1405 4.301
63.1708 4.408
63.2011 3.995
63.2313 3.425
63.2616 2.074
63.2919 2.182
63.3222 1.978
63.3525 2.034
63.3827 2.768
63.4130 0.949
63.4433 1.163
63.4736 1.428
63.5039 1.173
63.5341 0.918
63.5644 1.601
63.5947 0.305
63.6250 0.936
63.6552 0.265
63.6855 0.689
63.7158 0.071
63.7461 0.182
63.7764 0.085
63.8066 0.509
63.8369 0.100
63.8672 0.681
63.8975 0.117
63.9278 0.281
63.9580 0.655
63.9883 -0.118
64.0186 -0.317
64.0489 0.578
64.0791 0.379
64.1094 0.754
64.1397 0.295
64.1700 0.097
64.2003 -0.361
64.2305 -0.252
64.2608 0.014
64.2911 0.385
64.3214 0.756
64.3517 0.189
64.3819 0.612
64.4122 -0.318
64.4425 -0.311
64.4728 -0.356
64.5031 0.164
64.5333 0.007
64.5636 0.111
64.5939 -0.409
64.6242 0.164
64.6544 -0.356
64.6847 -0.260
64.7150 -0.320
64.7453 0.297
64.7756 0.134
64.8058 0.439
64.8361 -0.193
64.8664 -0.512
64.8967 0.155
64.9270 -0.271
64.9572 0.345
64.9875 -0.497
65.0178 0.119
65.0481 -0.149
65.0783 -0.366
65.1086 -0.173
65.1389 -0.605
65.1692 0.369
65.1995 -0.271
65.2297 -0.077
65.2600 -0.456
65.2903 0.103
65.3206 0.036
65.3509 -0.342
65.3811 0.113
65.4114 0.048
65.4417 0.295
65.4720 -0.291
65.5022 0.166
65.5325 -0.107
65.5628 -0.276
65.5931 -0.288
65.6234 -0.351
65.6536 -0.259
65.6839 0.095
65.7142 -0.385
65.7445 0.489
65.7748 0.322
65.8050 -0.209
65.8353 0.614
65.8656 0.344
65.8959 0.126
65.9261 0.638
65.9564 0.264
65.9867 0.619
66.0170 1.131
66.0473 1.019
66.0775 0.698
66.1078 0.898
66.1381 0.630
66.1684 0.830
66.1987 0.719
66.2289 1.024
66.2592 0.340
66.2895 1.219
66.3198 1.837
66.3500 1.154
66.3803 1.877
66.4106 0.882
66.4409 1.709
66.4712 0.767
66.5014 0.345
66.5317 1.902
66.5620 0.387
66.5923 1.112
66.6226 0.170
66.6528 1.052
66.6831 0.475
66.7134 0.888
66.7437 0.260
66.7739 0.517
66.8042 1.139
66.8345 0.459
66.8648 0.092
66.8951 0.299
66.9253 1.078
66.9556 -0.070
66.9859 0.658
67.0162 0.917
67.0465 1.281
67.0767 0.603
67.1070 0.290
67.1373 0.810
67.1676 1.747
67.1978 1.331
67.2281 1.331
67.2584 1.540
67.2887 2.114
67.3190 1.906
67.3492 3.835
67.3795 2.534
67.4098 3.317
67.4401 3.736
67.4704 3.061
67.5006 4.417
67.5309 4.888
67.5612 4.214
67.5915 4.061
67.6218 6.668
67.6520 5.682
67.6823 5.374
67.7126 7.461
67.7429 6.892
67.7731 8.615
67.8034 8.255
67.8337 8.885
67.8640 7.796
67.8943 8.323
67.9245 6.609
67.9548 6.771
67.9851 7.507
68.0154 5.846
68.0457 5.644
68.0759 5.911
68.1062 5.033
68.1365 4.623
68.1668 4.266
68.1970 4.846
68.2273 4.281
68.2576 4.133
68.2879 2.839
68.3182 2.223
68.3484 3.690
68.3787 1.824
68.4090 3.395
68.4393 2.624
68.4696 2.737
68.4998 3.424
68.5301 2.757
68.5604 2.299
68.5907 2.882
68.6209 2.997
68.6512 2.852
68.6815 2.863
68.7118 2.875
68.7421 2.730
68.7723 3.367
68.8026 3.431
68.8329 3.287
68.8632 4.237
68.8935 3.886
68.9237 3.117
68.9540 4.329
68.9843 3.977
69.0146 2.845
69.0448 3.172
69.0751 3.811
69.1054 3.252
69.1357 3.267
69.1660 3.282
69.1962 2.984
69.2265 2.479
69.2568 2.546
69.2871 2.562
69.3174 2.578
69.3476 1.969
69.3779 1.048
69.4082 1.898
69.4385 1.447
69.4687 1.568
69.4990 1.325
69.5293 1.707
69.5596 0.891
69.5899 1.170
69.6201 0.928
69.6504 0.582
69.6807 0.600
69.7110 0.150
69.7413 0.378
69.7715 0.241
69.8018 0.417
69.8321 0.228
69.8624 0.873
69.8926 0.373
69.9229 0.758
69.9532 0.310
69.9835 -0.138
70.0138 0.144
70.0440 0.270
70.0743 0.239
70.1046 0.886
70.1349 0.075
70.1652 0.618
70.1954 0.068
70.2257 -0.170
70.2560 0.530
70.2863 0.605
70.3166 0.577
70.3468 0.184
70.3771 0.208
70.4074 0.180
70.4377 0.204
70.4679 -0.188
70.4982 -0.163
70.5285 -0.346
70.5588 0.119
70.5891 0.376
70.6193 0.633
70.6496 0.057
70.6799 -0.102
70.7102 0.104
70.7405 0.414
70.7707 0.047
70.8010 -0.059
70.8313 0.043
70.8616 0.407
70.8918 0.145
70.9221 -0.064
70.9524 0.143
70.9827 -0.014
71.0130 -0.274
71.0432 0.142
71.0735 0.403
71.1038 0.560
71.1341 0.404
71.1644 0.353
71.1946 0.093
71.2249 -0.010
71.2552 0.252
71.2855 -0.006
71.3157 -0.004
71.3460 0.206
71.3763 0.313
71.4066 0.315
71.4369 0.110
71.4671 -0.200
71.4974 0.273
71.5277 0.120
71.5580 0.384
71.5883 -0.185
71.6185 -0.285
71.6488 -0.239
71.6791 0.536
71.7094 0.269
71.7396 0.212
71.7699 0.258
71.8002 0.253
71.8305 -0.013
71.8608 0.139
71.8910 0.447
71.9213 0.182
71.9516 0.698
71.9819 0.382
72.0122 -0.195
72.0424 0.166
72.0727 0.319
72.1030 0.264
72.1333 -0.051
72.1635 0.519
72.1938 0.256
72.2241 0.202
72.2544 0.148
72.2847 0.719
72.3149 0.249
72.3452 0.196
72.3755 0.663
72.4058 0.663
72.4361 0.506
72.4663 0.401
72.4966 0.141
72.5269 0.922
72.5572 0.454
72.5874 0.663
72.6177 0.351
72.6480 1.029
72.6783 0.145
72.7086 0.459
72.7388 0.200
72.7691 -0.110
72.7994 -0.264
72.8297 0.103
72.8600 0.678
72.8902 -0.256
72.9205 -0.149
72.9508 0.896
72.9811 -0.090
73.0113 0.226
73.0416 -0.291
73.0719 -0.287
73.1022 -0.284
73.1325 -0.228
73.1627 0.037
73.1930 -0.011
73.2233 -0.267
73.2536 -0.262
73.2839 -0.101
73.3141 -0.304
73.3444 0.430
73.3747 0.228
73.4050 -0.339
73.4353 0.240
73.4655 0.402
73.4958 0.253
73.5261 0.520
73.5564 -0.306
73.5866 0.326
73.6169 -0.188
73.6472 0.237
73.6775 -0.120
73.7078 0.097
73.7380 0.105
73.7683 0.322
73.7986 -0.138
73.8289 -0.233
73.8592 -0.015
73.8894 -0.370
73.9197 0.001
73.9500 0.372
73.9803 0.276
74.0105 0.439
74.0408 0.395
74.0711 -0.431
74.1014 0.255
74.1317 -0.206
74.1619 0.428
74.1922 -0.032
74.2225 -0.075
74.2528 -0.118
74.2831 -0.265
74.3133 0.097
74.3436 0.302
74.3739 0.039
74.4042 0.141
74.4344 0.191
74.4647 0.137
74.4950 -0.073
74.5253 0.602
74.5556 0.236
74.5858 0.444
74.6161 -0.286
74.6464 -0.079
74.6767 -0.079
74.7070 0.390
74.7372 -0.131
74.7675 0.130
74.7978 -0.026
74.8281 -0.077
74.8583 0.028
74.8886 -0.075
74.9189 0.135
74.9492 -0.124
74.9795 -0.070
75.0097 0.088
75.0400 0.091
75.0703 0.510
75.1006 0.200
75.1309 0.307
75.1611 0.102
75.1914 -0.259
75.2217 -0.166
75.2520 0.449
75.2822 0.438
75.3125 -0.093
75.3428 -0.103
75.3731 -0.113
75.4034 -0.123
75.4336 0.076
75.4639 0.067
75.4942 0.162
75.5245 -0.419
75.5548 -0.011
75.5850 0.293
75.6153 -0.340
75.6456 0.329
75.6759 -0.199
75.7061 0.418
75.7364 0.255
75.7667 0.248
75.7970 -0.175
75.8273 0.027
75.8575 0.125
75.8878 -0.350
75.9181 0.113
75.9484 0.368
75.9787 -0.159
76.0089 -0.372
76.0392 0.141
76.0695 -0.595
76.0998 -0.134
76.1301 0.172
76.1603 0.165
76.1906 -0.362
76.2209 0.309
76.2512 -0.323
76.2814 0.713
76.3117 0.187
76.3420 0.129
76.3723 -0.136
76.4026 -0.245
76.4328 0.271
76.4631 0.319
76.4934 0.366
76.5237 0.050
76.5540 0.463
76.5842 0.147
76.6145 0.612
76.6448 1.182
76.6751 0.398
76.7053 0.551
76.7356 0.862
76.7659 0.547
76.7962 1.378
76.8265 1.012
76.8567 0.854
76.8870 0.905
76.9173 0.956
76.9476 0.330
76.9779 0.225
77.0081 0.746
77.0384 0.746
77.0687 0.850
77.0990 1.059
77.1292 0.747
77.1595 0.227
77.1898 0.801
77.2201 0.125
77.2504 0.074
77.2806 -0.028
77.3109 -0.079
77.3412 0.236
77.3715 0.395
77.4018 0.085
77.4320 -0.173
77.4623 -0.170
77.4926 -0.219
77.5229 -0.111
77.5531 0.466
77.5834 -0.312
77.6137 0.057
77.6440 -0.251
77.6743 0.587
77.7045 -0.242
77.7348 -0.132
77.7651 0.133
77.7954 0.035
77.8257 -0.428
77.8559 0.359
77.8862 -0.051
77.9165 0.215
77.9468 0.274
77.9770 -0.292
78.0073 -0.285
78.0376 0.033
78.0679 -0.378
78.0982 0.201
78.1284 0.624
78.1587 0.162
78.1890 -0.248
78.2193 0.332
78.2496 0.235
78.2798 -0.226
78.3101 0.563
78.3404 -0.002
78.3707 -0.098
78.4009 0.274
78.4312 0.127
78.4615 0.136
78.4918 -0.272
78.5221 -0.168
78.5523 -0.219
78.5826 0.511
78.6129 0.876
78.6432 -0.060
78.6735 -0.111
78.7037 0.360
78.7340 -0.003
78.7643 -0.313
78.7946 0.522
78.8248 0.525
78.8551 0.007
78.8854 0.374
78.9157 0.169
78.9460 0.121
78.9762 0.176
79.0065 -0.236
79.0368 -0.441
79.0671 0.345
79.0974 -0.171
79.1276 0.094
79.1579 0.151
79.1882 -0.104
79.2185 0.058
79.2488 -0.093
79.2790 0.069
79.3093 0.336
79.3396 -0.230
79.3699 0.193
79.4001 -0.217
79.4304 -0.054
79.4607 0.214
79.4910 0.586
79.5213 0.230
79.5515 0.238
79.5818 0.090
79.6121 0.098
79.6424 0.107
79.6727 0.063
79.7029 0.333
79.7332 0.499
79.7635 0.092
79.7938 -0.315
79.8240 -0.116
79.8543 -0.176
79.8846 0.440
79.9149 0.172
79.9452 0.111
79.9754 0.625
80.0057 0.096
80.0360 0.089
80.0663 0.134
80.0966 0.179
80.1268 0.277
80.1571 0.062
80.1874 0.212
80.2177 0.363
80.2479 0.044
80.2782 0.820
80.3085 -0.070
80.3388 0.081
80.3691 0.649
80.3993 0.019
80.4296 -0.193
80.4599 0.167
80.4902 0.372
80.5205 -0.153
80.5507 0.052
80.5810 0.205
80.6113 -0.058
80.6416 0.200
80.6718 0.197
80.7021 -0.066
80.7324 0.245
80.7627 0.504
80.7930 -0.175
80.8232 -0.020
80.8535 -0.073
80.8838 0.030
80.9141 0.498
80.9444 0.133
80.9746 -0.024
81.0049 0.185
81.0352 0.497
81.0655 0.394
81.0957 0.290
81.1260 0.656
81.1563 0.657
81.1866 0.398
81.2169 -0.121
81.2471 0.453
81.2774 0.820
81.3077 0.822
81.3380 0.356
81.3683 1.452
81.3985 0.205
81.4288 0.209
81.4591 0.108
81.4894 0.163
81.5196 0.792
81.5499 0.432
81.5802 0.853
81.6105 0.753
81.6408 0.289
81.6710 0.138
81.7013 -0.013
81.7316 0.357
81.7619 0.206
81.7922 0.421
81.8224 0.375
81.8527 0.069
81.8830 -0.029
81.9133 0.030
81.9436 0.037
81.9738 0.200
82.0041 0.312
82.0344 -0.253
82.0647 0.015
82.0949 0.076
82.1252 -0.281
82.1555 0.301
82.1858 -0.055
82.2161 0.006
82.2463 0.172
82.2766 0.077
82.3069 0.556
82.3372 0.149
82.3675 0.211
82.3977 0.066
82.4280 -0.132
82.4583 0.608
82.4886 0.150
82.5188 0.005
82.5491 0.434
82.5794 -0.023
82.6097 0.249
82.6400 0.157
82.6702 0.118
82.7005 -0.338
82.7308 -0.143
82.7611 0.313
82.7914 0.821
82.8216 0.653
82.8519 0.276
82.8822 0.160
82.9125 -0.216
82.9427 0.449
82.9730 0.126
83.0033 -0.146
83.0336 0.052
83.0639 0.093
83.0941 0.031
83.1244 0.281
83.1547 0.272
83.1850 0.054
83.2153 -0.216
83.2455 0.191
83.2758 -0.234
83.3061 0.330
83.3364 -0.147
83.3666 0.261
83.3969 -0.007
83.4272 -0.327
83.4575 0.342
83.4878 0.074
83.5180 0.380
83.5483 -0.044
83.5786 -0.259
83.6089 -0.058
83.6392 -0.013
83.6694 -0.280
83.6997 0.286
83.7300 -0.242
83.7603 -0.404
83.7905 0.736
83.8208 0.053
83.8511 -0.266
83.8814 -0.167
83.9117 0.037
83.9419 0.188
83.9722 0.132
84.0025 0.336
84.0328 0.123
84.0631 -0.297
84.0933 0.116
84.1236 -0.044
84.1539 -0.256
84.1842 -0.154
84.2144 0.103
84.2447 -0.108
84.2750 -0.006
84.3053 0.044
84.3356 0.043
84.3658 -0.324
84.3961 -0.013
84.4264 0.091
84.4567 -0.119
84.4870 0.089
84.5172 0.141
84.5475 -0.328
84.5778 -0.068
84.6081 -0.068
84.6383 -0.067
84.6686 -0.067
84.6989 -0.066
84.7292 -0.117
84.7595 -0.168
84.7897 -0.166
84.8200 0.096
84.8503 -0.162
84.8806 -0.004
84.9109 -0.001
84.9411 -0.155
84.9714 -0.048
85.0017 0.268
85.0320 -0.041
85.0623 -0.142
85.0925 -0.190
85.1228 0.439
85.1531 -0.181
85.1834 -0.125
85.2136 0.036
85.2439 0.197
85.2742 -0.110
85.3045 0.260
85.3348 -0.047
85.3650 0.272
85.3953 -0.191
85.4256 -0.237
85.4559 0.395
85.4862 -0.067
85.5164 0.253
85.5467 -0.001
85.5770 -0.045
85.6073 0.171
85.6375 0.439
85.6678 0.656
85.6981 0.039
85.7284 0.360
85.7587 0.005
85.7889 0.118
85.8192 -0.446
85.8495 -0.132
85.8798 0.183
85.9101 0.289
85.9403 0.239
85.9706 -0.019
86.0009 0.453
86.0312 -0.117
86.0614 -0.166
86.0917 0.358
86.1220 0.310
86.1523 0.001
86.1826 0.057
86.2128 -0.095
86.2431 0.378
86.2734 -0.085
86.3037 -0.497
86.3340 0.072
86.3642 0.277
86.3945 -0.143
86.4248 0.062
86.4551 -0.045
86.4853 -0.204
86.5156 0.211
86.5459 0.052
86.5762 0.051
86.6065 0.049
86.6367 0.100
86.6670 -0.058
86.6973 -0.163
86.7276 0.513
86.7579 0.148
86.7881 0.044
86.8184 0.200
86.8487 -0.373
86.8790 0.200
86.9092 0.045
86.9395 0.306
86.9698 0.307
87.0001 0.048
87.0304 -0.315
87.0606 -0.065
87.0909 -0.127
87.1212 -0.033
87.1515 0.270
87.1818 0.000
87.2120 -0.322
87.2423 0.398
87.2726 -0.392
87.3029 -0.192
87.3331 0.060
87.3634 -0.261
87.3937 0.565
87.4240 0.297
87.4543 -0.128
87.4845 -0.031
87.5148 0.119
87.5451 0.060
87.5754 0.001
87.6057 -0.266
87.6359 -0.122
87.6662 0.595
87.6965 0.115
87.7268 -0.105
87.7571 -0.117
87.7873 -0.024
87.8176 0.018
87.8479 -0.202
87.8782 0.205
87.9084 -0.327
87.9387 0.184
87.9690 0.070
87.9993 -0.200
88.0296 0.051
88.0598 0.042
88.0901 0.189
88.1204 0.233
88.1507 -0.036
88.1810 0.164
88.2112 -0.313
88.2415 -0.008
88.2718 0.609
88.3021 0.602
88.3323 -0.082
88.3626 0.276
88.3929 0.061
88.4232 0.054
88.4535 0.152
88.4837 -0.375
88.5140 0.193
88.5443 0.083
88.5746 0.078
88.6049 0.073
88.6351 -0.297
88.6654 -0.147
88.6957 0.367
88.7260 0.204
88.7562 -0.063
88.7865 0.088
88.8168 0.759
88.8471 0.649
88.8774 0.175
88.9076 0.535
88.9379 -0.043
88.9682 0.474
88.9985 0.209
89.0288 0.100
89.0590 0.930
89.0893 0.874
89.1196 -0.119
89.1499 0.920
89.1801 0.917
89.2104 0.445
89.2407 0.547
89.2710 0.701
89.3013 0.542
89.3315 1.061
89.3618 1.164
89.3921 1.371
89.4224 0.797
89.4527 1.473
89.4829 1.941
89.5132 1.159
89.5435 1.836
89.5738 1.367
89.6040 1.888
89.6343 1.264
89.6646 1.473
89.6949 1.369
89.7252 1.474
89.7554 1.372
89.7857 1.217
89.8160 1.427
89.8463 0.908
89.8766 0.910
89.9068 0.809
89.9371 0.395
89.9674 0.866
89.9977 1.182
90.0279 0.092
90.0582 -0.009
90.0885 0.672
90.1188 -0.001
90.1491 0.524
90.1793 0.789
90.2096 0.273
90.2399 0.226
90.2702 0.023
90.3005 0.393
90.3307 -0.070
90.3610 0.144
90.3913 -0.006
90.4216 0.104
90.4518 -0.098
90.4821 0.065
90.5124 0.333
90.5427 0.757
90.5730 -0.642
90.6032 0.459
90.6335 0.155
90.6638 -0.358
90.6941 0.588
90.7244 0.128
90.7546 -0.124
90.7849 0.041
90.8152 -0.262
90.8455 -0.200
90.8758 -0.243
90.9060 -0.285
90.9363 -0.130
90.9666 -0.184
90.9969 0.596
91.0271 0.126
91.0574 -0.031
91.0877 -0.240
91.1180 0.072
91.1483 -0.033
91.1785 0.228
91.2088 -0.241
91.2391 0.176
91.2694 0.177
91.2997 -0.134
91.3299 0.231
91.3602 0.285
91.3905 -0.339
91.4208 -0.285
91.4510 -0.030
91.4813 0.016
91.5116 0.166
91.5419 0.369
91.5722 -0.365
91.6024 -0.110
91.6327 -0.219
91.6630 0.245
91.6933 0.137
91.7236 0.029
91.7538 0.077
91.7841 0.021
91.8144 -0.347
91.8447 -0.040
91.8749 -0.149
91.9052 0.106
91.9355 0.466
91.9658 0.045
91.9961 -0.480
92.0263 0.037
92.0566 0.137
92.0869 -0.387
92.1172 0.078
92.1475 0.284
92.1777 -0.605
92.2080 0.122
92.2383 -0.349
92.2686 -0.039
92.2988 -0.145
92.3291 0.166
92.3594 0.424
92.3897 0.267
92.4200 0.474
92.4502 0.369
92.4805 0.004
92.5108 0.316
92.5411 0.576
92.5714 0.108
92.6016 0.160
92.6319 0.473
92.6622 0.995
92.6925 -0.150
92.7227 0.216
92.7530 0.113
92.7833 0.167
92.8136 -0.092
92.8439 0.640
92.8741 0.538
92.9044 0.488
92.9347 1.116
92.9650 0.390
92.9953 0.289
93.0255 0.657
93.0558 0.817
93.0861 0.404
93.1164 0.617
93.1466 0.621
93.1769 0.105
93.2072 0.162
93.2375 0.271
93.2678 0.068
93.2980 -0.291
93.3283 -0.141
93.3586 -0.095
93.3889 0.471
93.4192 -0.211
93.4494 -0.373
93.4797 0.191
93.5100 0.078
93.5403 -0.139
93.5706 -0.042
93.6008 -0.207
93.6311 -0.266
93.6614 -0.013
93.6917 0.396
93.7219 -0.392
93.7522 -0.138
93.7825 0.064
93.8128 0.110
93.8431 -0.261
93.8733 -0.215
93.9036 -0.064
93.9339 0.035
93.9642 0.342
93.9945 -0.079
94.0247 -0.032
94.0550 -0.505
94.0853 0.008
94.1156 0.054
94.1458 -0.526
94.1761 0.301
94.2064 -0.539
94.2367 -0.024
94.2670 -0.186
94.2972 0.017
94.3275 -0.145
94.3578 0.110
94.3881 0.001
94.4184 0.049
94.4486 -0.216
94.4789 0.405
94.5092 0.192
94.5395 0.084
94.5697 0.289
94.6000 0.130
94.6303 0.751
94.6606 0.436
94.6909 0.798
94.7211 0.379
94.7514 0.325
94.7817 0.896
94.8120 0.217
94.8423 0.632
94.8725 1.308
94.9028 0.421
94.9331 1.046
94.9634 1.253
94.9936 -0.205
95.0239 1.722
95.0542 1.670
95.0845 0.993
95.1148 2.035
95.1450 0.525
95.1753 1.985
95.2056 1.048
95.2359 1.102
95.2662 1.416
95.2964 1.366
95.3267 1.056
95.3570 1.370
95.3873 1.529
95.4175 1.115
95.4478 0.858
95.4781 0.913
95.5084 1.021
95.5387 0.973
95.5689 0.143
95.5992 0.564
95.6295 0.412
95.6598 0.886
95.6901 0.630
95.7203 0.062
95.7506 1.057
95.7809 0.334
95.8112 0.548
95.8414 0.241
95.8717 0.404
95.9020 0.306
95.9323 0.521
95.9626 0.528
95.9928 0.379
96.0231 0.282
96.0534 0.550
96.0837 -0.432
96.1140 0.253
96.1442 0.053
96.1745 -0.303
96.2048 -0.140
96.2351 0.335
96.2653 0.498
96.2956 0.245
96.3259 -0.008
96.3562 0.052
96.3865 0.007
96.4167 -0.349
96.4470 0.440
96.4773 0.032
96.5076 -0.272
96.5379 0.102
96.5681 -0.254
96.5984 0.172
96.6287 -0.391
96.6590 -0.069
96.6893 -0.007
96.7195 0.733
96.7498 -0.246
96.7801 0.285
96.8104 -0.016
96.8406 0.151
96.8709 0.110
96.9012 0.122
96.9315 -0.439
96.9618 0.094
96.9920 0.263
97.0223 -0.142
97.0526 0.027
97.0829 -0.272
97.1132 -0.227
97.1434 0.131
97.1737 0.333
97.2040 -0.507
97.2343 0.633
97.2645 0.159
97.2948 0.674
97.3251 -0.321
97.3554 -0.013
97.3857 -0.279
97.4159 -0.233
97.4462 -0.083
97.4765 -0.193
97.5068 0.270
97.5371 -0.256
97.5673 0.051
97.5976 0.723
97.6279 -0.011
97.6582 0.088
97.6884 -0.072
97.7187 -0.285
97.7490 -0.189
97.7793 0.272
97.8096 0.524
97.8398 -0.525
97.8701 0.301
97.9004 -0.279
97.9307 0.391
97.9610 0.176
97.9912 -0.403
98.0215 1.153
98.0518 0.210
98.0821 0.204
98.1123 0.876
98.1426 0.297
98.1729 -0.385
98.2032 0.548
98.2335 0.179
98.2637 0.278
98.2940 0.430
98.3243 0.426
98.3546 0.787
98.3849 0.523
98.4151 0.676
98.4454 0.361
98.4757 0.358
98.5060 1.033
98.5362 0.666
98.5665 0.143
98.5968 0.453
98.6271 0.712
98.6574 0.502
98.6876 1.230
98.7179 0.604
98.7482 0.239
98.7785 0.342
98.8088 0.290
98.8390 0.030
98.8693 1.071
98.8996 0.499
98.9299 1.281
98.9601 0.656
98.9904 0.397
99.0207 -0.018
99.0510 0.139
99.0813 0.454
99.1115 0.456
99.1418 -0.636
99.1721 -0.217
99.2024 -0.058
99.2327 0.101
99.2629 0.521
99.2932 -0.361
99.3235 0.736
99.3538 0.427
99.3841 -0.350
99.4143 0.175
99.4446 0.075
99.4749 0.341
99.5052 -0.123
99.5354 0.351
99.5657 -0.321
99.5960 -0.263
99.6263 -0.153
99.6566 0.686
99.6868 0.067
99.7171 -0.291
99.7474 -0.231
99.7777 -0.015
99.8080 0.201
99.8382 -0.051
99.8685 -0.199
99.8988 0.019
99.9291 -0.181
99.9593 0.141
99.9896 -0.266
100.0199 0.160
100.0502 -0.039
100.0805 -0.028
100.1107 -0.279
100.1410 -0.165
100.1713 0.210
100.2016 0.376
100.2319 0.126
100.2621 0.136
100.2924 -0.322
100.3227 0.210
100.3530 -0.352
100.3832 -0.080
100.4135 -0.120
100.4438 0.048
100.4741 0.529
100.5044 0.801
100.5346 0.033
100.5649 -0.059
100.5952 0.423
100.6255 0.592
100.6558 0.189
100.6860 -0.110
100.7163 -0.252
100.7466 -0.145
100.7769 0.379
100.8071 -0.242
100.8374 -0.238
100.8677 0.182
100.8980 0.134
100.9283 0.035
100.9585 0.560
100.9888 -0.164
101.0191 0.101
101.0494 -0.206
101.0797 0.008
101.1099 0.170
101.1402 0.228
101.1705 0.338
101.2008 0.188
101.2310 0.143
101.2613 0.254
101.2916 0.730
101.3219 -0.200
101.3522 0.224
101.3824 0.076
101.4127 0.084
101.4430 0.717
101.4733 0.257
101.5036 0.057
101.5338 0.587
101.5641 0.283
101.5944 0.762
101.6247 0.042
101.6549 -0.313
101.6852 -0.070
101.7155 0.797
101.7458 0.207
101.7761 0.137
101.8063 0.693
101.8366 0.520
101.8669 0.399
101.8972 0.227
101.9275 -0.206
101.9577 -0.170
101.9880 0.491
102.0183 0.736
102.0486 0.356
102.0788 -0.024
102.1091 0.274
102.1394 0.728
102.1697 0.037
102.2000 0.179
102.2302 0.113
102.2605 0.464
102.2908 0.138
102.3211 0.697
102.3514 -0.097
102.3816 0.307
102.4119 0.451
102.4422 0.907
102.4725 0.478
102.5028 0.362
102.5330 0.038
102.5633 0.756
102.5936 0.432
102.6239 0.525
102.6541 0.514
102.6844 0.243
102.7147 0.754
102.7450 0.640
102.7753 0.630
102.8055 0.360
102.8358 1.027
102.8661 0.341
102.8964 0.593
102.9267 0.740
102.9569 0.419
102.9872 0.307
103.0175 0.559
103.0478 0.030
103.0780 1.221
103.1083 0.432
103.1386 0.477
103.1689 0.366
103.1992 0.307
103.2294 0.561
103.2597 0.815
103.2900 0.289
103.3203 0.647
103.3506 0.642
103.3808 0.897
103.4111 0.215
103.4414 0.522
103.4717 0.622
103.5019 0.045
103.5322 0.145
103.5625 0.453
103.5928 0.866
103.6231 0.342
103.6533 0.755
103.6836 0.544
103.7139 0.906
103.7442 0.591
103.7745 1.057
103.8047 0.482
103.8350 0.688
103.8653 1.312
103.8956 0.685
103.9258 1.257
103.9561 0.475
103.9864 0.422
104.0167 0.577
104.0470 0.681
104.0772 0.681
104.1075 1.254
104.1378 0.109
104.1681 0.318
104.1984 1.204
104.2286 1.257
104.2589 1.102
104.2892 0.114
104.3195 0.637
104.3497 0.378
104.3800 0.849
104.4103 1.164
104.4406 0.750
104.4709 0.232
104.5011 0.860
104.5314 0.811
104.5617 1.388
104.5920 0.298
104.6223 0.146
104.6525 0.254
104.6828 -0.054
104.7131 0.471
104.7434 0.268
104.7736 -0.144
104.8039 0.174
104.8342 0.492
104.8645 0.029
104.8948 0.244
104.9250 0.563
104.9553 -0.108
104.9856 0.107
105.0159 0.010
105.0462 -0.191
105.0764 0.493
105.1067 0.865
105.1370 -0.116
105.1673 -0.056
105.1975 0.473
105.2278 -0.091
105.2581 -0.291
105.2884 -0.231
105.3187 0.141
105.3489 0.097
105.3792 -0.416
105.4095 -0.095
105.4398 -0.503
105.4701 0.074
105.5003 -0.078
105.5306 0.187
105.5609 0.452
105.5912 0.197
105.6215 0.098
105.6517 -0.522
105.6820 0.109
105.7123 -0.042
105.7426 0.121
105.7728 0.283
105.8031 -0.231
105.8334 -0.068
105.8637 0.355
105.8940 -0.054
105.9242 -0.099
105.9545 0.117
105.9848 0.229
106.0151 0.289
106.0454 0.558
106.0756 -0.006
106.1059 0.315
106.1362 0.063
106.1665 -0.448
106.1967 -0.090
106.2270 0.165
106.2573 0.108
106.2876 0.988
106.3179 -0.371
106.3481 -0.220
106.3784 0.244
106.4087 0.292
106.4390 -0.025
106.4693 0.024
106.4995 0.228
106.5298 -0.035
106.5601 0.013
106.5904 -0.146
106.6206 0.372
106.6509 0.422
106.6812 -0.049
106.7115 -0.155
106.7418 0.520
106.7720 0.154
106.8023 0.100
106.8326 0.255
106.8629 -0.162
106.8932 0.098
106.9234 0.670
106.9537 0.566
106.9840 0.149
107.0143 -0.267
107.0445 -0.371
107.0748 0.252
107.1051 -0.166
107.1354 -0.063
107.1657 -0.377
107.1959 0.144
107.2262 0.039
107.2565 0.039
107.2868 -0.118
107.3171 0.299
107.3473 0.195
107.3776 0.352
107.4079 0.040
107.4382 -0.271
107.4684 0.355
107.4987 0.669
107.5290 0.202
107.5593 -0.108
107.5896 -0.158
107.6198 0.365
107.6501 0.368
107.6804 -0.098
107.7107 0.165
107.7410 0.273
107.7712 0.120
107.8015 -0.449
107.8318 -0.138
107.8621 0.537
107.8923 0.015
107.9226 0.222
107.9529 0.429
107.9832 0.741
108.0135 -0.146
108.0437 -0.302
108.0740 0.219
108.1043 0.531
108.1346 -0.094
108.1649 0.115
108.1951 0.116
108.2254 -0.456
108.2557 -0.038
108.2860 0.068
108.3163 0.017
108.3465 -0.085
108.3768 -0.083
108.4071 0.128
108.4374 -0.078
108.4676 0.185
108.4979 0.449
108.5282 0.296
108.5585 -0.170
108.5888 0.199
108.6190 -0.527
108.6493 -0.213
108.6796 0.414
108.7099 0.677
108.7402 -0.154
108.7704 0.473
108.8007 -0.305
108.8310 0.062
108.8613 0.118
108.8915 0.017
108.9218 -0.500
108.9521 -0.040
108.9824 0.317
109.0127 -0.108
109.0429 0.145
109.0732 -0.071
109.1035 0.339
109.1338 0.071
109.1641 -0.039
109.1943 0.162
109.2246 0.312
109.2549 -0.006
109.2852 0.144
109.3154 0.295
109.3457 0.342
109.3760 0.232
109.4063 0.696
109.4366 -0.558
109.4668 0.114
109.4971 0.058
109.5274 0.314
109.5577 0.154
109.5880 -0.162
109.6182 -0.061
109.6485 -0.116
109.6788 0.090
109.7091 0.556
109.7393 -0.228
109.7696 0.187
109.7999 0.133
109.8302 0.079
109.8605 0.702
109.8907 0.180
109.9210 0.023
109.9513 0.074
109.9816 0.178
110.0119 0.490
110.0421 0.490
110.0724 1.011
110.1027 -0.239
110.1330 0.855
110.1632 0.231
110.1935 0.701
110.2238 0.546
110.2541 0.547
110.2844 0.601
110.3146 0.447
110.3449 0.814
110.3752 0.764
110.4055 0.662
110.4358 0.405
110.4660 0.512
110.4963 0.880
110.5266 0.727
110.5569 0.158
110.5871 0.631
110.6174 0.166
110.6477 0.483
110.6780 0.488
110.7083 0.753
110.7385 0.654
110.7688 0.399
110.7991 0.769
110.8294 0.358
110.8597 -0.157
110.8899 0.266
110.9202 0.533
110.9505 0.540
110.9808 0.338
111.0110 -0.279
111.0413 -0.272
111.0716 0.046
111.1019 -0.105
111.1322 0.682
111.1624 0.480
111.1927 0.278
111.2230 0.076
111.2533 0.187
111.2836 0.089
111.3138 0.722
111.3441 -0.052
111.3744 0.476
111.4047 0.328
111.4350 0.440
111.4652 0.344
111.4955 0.144
111.5258 0.674
111.5561 -0.255
111.5863 0.640
111.6166 0.285
111.6469 -0.227
111.6772 0.148
111.7075 0.366
111.7377 0.429
111.7680 0.439
111.7983 0.190
111.8286 -0.164
111.8589 0.108
111.8891 0.119
111.9194 0.339
111.9497 0.403
111.9800 0.363
112.0102 0.219
112.0405 0.128
112.0708 0.089
112.1011 0.102
112.1314 0.271
112.1616 0.701
112.1919 -0.014
112.2222 -0.261
112.2525 -0.013
112.2828 0.340
112.3130 -0.037
112.3433 0.629
112.3736 0.305
112.4039 0.137
112.4341 -0.291
112.4644 0.011
112.4947 0.938
112.5250 -0.218
112.5553 0.345
112.5855 0.074
112.6158 0.481
112.6461 -0.049
112.6764 0.410
112.7067 0.297
112.7369 0.393
112.7672 0.592
112.7975 0.115
112.8278 0.889
112.8580 0.099
112.8883 0.040
112.9186 0.136
112.9489 0.286
112.9792 0.122
113.0094 -0.093
113.0397 0.265
113.0700 -0.053
113.1003 -0.007
113.1306 0.195
113.1608 0.137
113.1911 -0.076
113.2214 0.179
113.2517 0.434
113.2819 0.482
113.3122 -0.096
113.3425 0.265
113.3728 -0.312
113.4031 -0.055
113.4333 0.618
113.4636 0.042
113.4939 -0.222
113.5242 -0.172
113.5545 -0.019
113.5847 0.239
113.6150 0.341
113.6453 -0.390
113.6756 0.077
113.7058 -0.029
113.7361 -0.134
113.7664 -0.031
113.7967 -0.136
113.8270 0.020
113.8572 -0.033
113.8875 0.123
113.9178 0.123
113.9481 -0.241
113.9784 0.072
114.0086 -0.396
114.0389 0.022
114.0692 -0.342
114.0995 0.181
114.1298 0.443
114.1600 0.288
114.1903 0.343
114.2206 -0.228
114.2509 0.191
114.2811 0.246
114.3114 0.301
114.3417 0.148
114.3720 -0.161
114.4023 -0.313
114.4325 0.264
114.4628 0.112
114.4931 0.064
114.5234 0.016
114.5537 -0.291
114.5839 -0.045
114.6142 -0.006
114.6445 0.501
114.6748 0.019
114.7050 0.110
114.7353 -0.111
114.7656 0.450
114.7959 0.229
114.8262 0.425
114.8564 0.101
114.8867 -0.015
114.9170 0.599
114.9473 0.067
114.9776 0.368
115.0078 0.306
115.0381 0.087
115.0684 -0.184
115.0987 1.212
115.1289 0.265
115.1592 0.047
115.1895 0.506
115.2198 0.185
115.2501 0.593
115.2803 0.011
115.3106 -0.206
115.3409 0.203
115.3712 0.455
115.4015 0.291
115.4317 0.388
115.4620 0.120
115.4923 0.321
115.5226 1.096
115.5528 -0.161
115.5831 1.187
115.6134 0.399
115.6437 0.810
115.6740 0.752
115.7042 0.434
115.7345 0.637
115.7648 0.424
115.7951 0.784
115.8254 0.415
115.8556 0.462
115.8859 0.719
115.9162 0.871
115.9465 0.919
115.9767 0.551
116.0070 0.861
116.0373 1.379
116.0676 1.584
116.0979 0.748
116.1281 1.840
116.1584 1.369
116.1887 0.846
116.2190 1.209
116.2493 1.156
116.2795 0.582
116.3098 0.737
116.3401 1.101
116.3704 1.517
116.4006 0.631
116.4309 1.048
116.4612 0.944
116.4915 1.205
116.5218 1.101
116.5520 0.894
116.5823 0.739
116.6126 0.948
116.6429 1.054
116.6732 0.952
116.7034 0.954
116.7337 0.904
116.7640 0.490
116.7943 0.492
116.8245 0.391
116.8548 0.707
116.8851 0.554
116.9154 0.870
116.9457 0.301
116.9759 -0.008
117.0062 0.101
117.0365 0.834
117.0668 0.110
117.0971 0.532
117.1273 0.589
117.1576 0.282
117.1879 0.340
117.2182 0.137
117.2485 0.404
117.2787 -0.007
117.3090 0.312
117.3393 0.007
117.3696 0.482
117.3998 -0.031
117.4301 0.601
117.4604 0.244
117.4907 -0.008
117.5210 0.260
117.5512 -0.096
117.5815 0.225
117.6118 0.078
117.6421 -0.017
117.6724 -0.373
117.7026 -0.003
117.7329 0.419
117.7632 0.373
117.7935 0.587
117.8237 0.125
117.8540 0.704
117.8843 0.033
117.9146 -0.064
117.9449 0.516
117.9751 -0.206
118.0054 0.531
118.0357 0.018
118.0660 0.130
118.0963 -0.279
118.1265 -0.175
118.1568 0.242
118.1871 -0.279
118.2174 0.294
118.2476 -0.018
118.2779 -0.122
118.3082 -0.173
118.3385 0.401
118.3688 -0.119
118.3990 0.039
118.4293 -0.115
118.4596 0.407
118.4899 0.045
118.5202 -0.213
118.5504 -0.262
118.5807 0.053
118.6110 -0.152
118.6413 0.580
118.6715 0.219
118.7018 0.119
118.7321 -0.554
118.7624 -0.029
118.7927 0.444
118.8229 0.345
118.8532 0.350
118.8835 0.094
118.9138 -0.056
118.9441 -0.051
118.9743 -0.253
119.0046 0.065
119.0349 0.488
119.0652 0.130
119.0954 0.137
119.1257 -0.064
119.1560 -0.474
119.1863 0.048
119.2166 0.049
119.2468 -0.002
119.2771 -0.208
119.3074 0.158
119.3377 0.056
119.3680 -0.046
119.3982 0.686
119.4285 -0.145
119.4588 -0.402
119.4891 0.174
119.5193 0.282
119.5496 0.181
119.5799 0.342
119.6102 0.346
119.6405 -0.171
119.6707 0.303
119.7010 -0.109
119.7313 0.000
119.7616 0.109
119.7919 0.115
119.8221 0.381
119.8524 0.074
119.8827 0.133
119.9130 -0.069
119.9433 -0.115
119.9735 -0.316
120.0038 0.000
