'Id: "" Comment: "" Operator: "Lab Manager" Anode: "Cu" Scantype: "Locked Coupled" TimePerStep: "19.2" X: "9999" Y: "9999" Z: "9999" 
10.0015 0.000
10.0318 0.877
10.0620 0.869
10.0923 1.122
10.1226 0.906
10.1529 1.159
10.1832 1.309
10.2134 0.261
10.2437 0.776
10.2740 0.457
10.3043 0.764
10.3346 1.488
10.3648 0.650
10.3951 0.802
10.4254 0.641
10.4557 0.169
10.4859 0.373
10.5162 1.047
10.5465 0.003
10.5768 1.406
10.6071 0.779
10.6373 1.090
10.6676 0.671
10.6979 1.086
10.7282 0.565
10.7585 0.981
10.7887 1.084
10.8190 1.813
10.8493 2.074
10.8796 1.762
10.9098 2.127
10.9401 3.899
10.9704 4.370
11.0007 6.819
11.0310 6.613
11.0612 6.772
11.0915 6.775
11.1218 6.048
11.1521 4.333
11.1824 3.399
11.2126 2.674
11.2429 2.679
11.2732 1.329
11.3035 2.324
11.3337 1.287
11.3640 1.501
11.3943 1.611
11.4246 0.784
11.4549 0.999
11.4851 1.058
11.5154 0.544
11.5457 0.135
11.5760 0.768
11.6063 0.047
11.6365 0.628
11.6668 1.262
11.6971 0.281
11.7274 -0.074
11.7577 0.717
11.7879 0.571
11.8182 0.217
11.8485 0.227
11.8788 1.072
11.9090 -0.323
11.9393 -0.832
11.9696 0.370
11.9999 0.687
12.0302 0.380
12.0604 0.229
12.0907 0.183
12.1210 1.127
12.1513 0.300
12.1816 0.567
12.2118 0.418
12.2421 0.477
12.2724 0.850
12.3027 0.702
12.3329 -0.176
12.3632 -0.063
12.3935 -0.679
12.4238 0.529
12.4541 0.434
12.4843 0.652
12.5146 0.298
12.5449 1.194
12.5752 0.424
12.6055 0.383
12.6357 -0.439
12.6660 0.146
12.6963 -0.363
12.7266 0.222
12.7568 0.079
12.7871 0.300
12.8174 -0.415
12.8477 0.275
12.8780 0.810
12.9082 0.252
12.9385 0.579
12.9688 0.282
12.9991 -0.224
13.0294 -0.365
13.0596 -0.678
13.0899 0.676
13.1202 -0.366
13.1505 0.260
13.1807 0.000
13.2110 -0.051
13.2413 0.679
13.2716 0.056
13.3019 0.318
13.3321 0.425
13.3624 0.271
13.3927 0.170
13.4230 -0.036
13.4533 -0.084
13.4835 0.232
13.5138 -0.285
13.5441 0.084
13.5744 0.402
13.6046 0.250
13.6349 0.360
13.6652 0.157
13.6955 0.528
13.7258 -0.195
13.7560 -0.084
13.7863 -0.546
13.8166 0.133
13.8469 0.447
13.8772 -0.123
13.9074 0.609
13.9377 -0.013
13.9680 0.615
13.9983 0.827
14.0285 0.102
14.0588 -0.311
14.0891 0.267
14.1194 0.115
14.1497 0.069
14.1799 0.126
14.2102 0.497
14.2405 -0.487
14.2708 0.145
14.3011 0.516
14.3313 0.367
14.3616 0.791
14.3919 0.330
14.4222 -0.131
14.4524 0.190
14.4827 0.407
14.5130 0.208
14.5433 0.321
14.5736 -0.086
14.6038 -0.493
14.6341 0.663
14.6644 -0.784
14.6947 -0.096
14.7250 -0.345
14.7552 -0.040
14.7855 0.526
14.8158 -0.679
14.8461 -0.268
14.8764 0.403
14.9066 0.241
14.9369 0.392
14.9672 -0.915
14.9975 0.122
15.0277 0.013
15.0580 -0.147
15.0883 0.526
15.1186 0.731
15.1489 -0.053
15.1791 0.257
15.2094 -0.110
15.2397 -0.165
15.2700 0.615
15.3003 0.301
15.3305 -0.377
15.3608 0.247
15.3911 -0.431
15.4214 -0.015
15.4516 -0.275
15.4819 -0.222
15.5122 0.612
15.5425 0.040
15.5728 -0.115
15.6030 0.303
15.6333 -0.424
15.6636 0.307
15.6939 -0.107
15.7242 0.625
15.7544 -0.517
15.7847 0.320
15.8150 -0.093
15.8453 -0.349
15.8755 -0.085
15.9058 -0.133
15.9361 -0.024
15.9664 0.346
15.9967 1.132
16.0269 -0.112
16.0572 0.415
16.0875 -0.256
16.1178 -0.041
16.1481 0.174
16.1783 -0.183
16.2086 0.085
16.2389 0.301
16.2692 0.048
16.2994 0.786
16.3297 0.587
16.3600 -0.446
16.3903 0.293
16.4206 0.354
16.4508 0.052
16.4811 -0.146
16.5114 0.073
16.5417 -0.333
16.5720 0.095
16.6022 0.784
16.6325 0.275
16.6628 -0.650
16.6931 0.352
16.7233 0.157
16.7536 0.118
16.7839 -0.806
16.8142 -0.081
16.8445 -0.137
16.8747 0.016
16.9050 1.054
16.9353 0.426
16.9656 0.163
16.9959 0.161
17.0261 -0.310
17.0564 0.314
17.0867 -0.209
17.1170 0.780
17.1472 0.259
17.1775 1.039
17.2078 1.092
17.2381 0.311
17.2684 -0.262
17.2986 0.468
17.3289 0.157
17.3592 0.836
17.3895 0.265
17.4198 0.215
17.4500 0.113
17.4803 0.741
17.5106 -0.141
17.5409 0.070
17.5712 -0.082
17.6014 -0.130
17.6317 -0.230
17.6620 -0.329
17.6923 -0.177
17.7225 0.496
17.7528 0.805
17.7831 0.385
17.8134 -0.347
17.8437 -0.193
17.8739 -0.248
17.9042 0.323
17.9345 -0.356
17.9648 0.060
17.9951 -0.150
18.0253 -0.202
18.0556 -0.724
18.0859 0.370
18.1162 0.318
18.1464 0.527
18.1767 0.268
18.2070 -0.044
18.2373 0.010
18.2676 0.064
18.2978 0.587
18.3281 -0.140
18.3584 0.384
18.3887 0.126
18.4190 -0.287
18.4492 0.029
18.4795 -0.279
18.5098 0.246
18.5401 -0.218
18.5703 0.620
18.6006 0.417
18.6309 -0.098
18.6612 0.429
18.6915 0.175
18.7217 0.234
18.7520 -0.124
18.7823 -0.325
18.8126 0.043
18.8429 0.204
18.8731 -0.052
18.9034 -0.151
18.9337 -0.250
18.9640 0.380
18.9942 -0.135
19.0245 0.027
19.0548 0.346
19.0851 0.197
19.1154 0.256
19.1456 0.316
19.1759 0.323
19.2062 -0.137
19.2365 -0.390
19.2668 0.185
19.2970 -0.229
19.3273 0.346
19.3576 0.088
19.3879 -0.013
19.4181 0.616
19.4484 -0.058
19.4787 0.102
19.5090 0.471
19.5393 0.007
19.5695 0.221
19.5998 0.226
19.6301 0.804
19.6604 0.602
19.6907 -0.121
19.7209 -0.010
19.7512 -0.160
19.7815 0.316
19.8118 0.376
19.8420 -0.033
19.8723 -0.442
19.9026 0.073
19.9329 0.536
19.9632 0.635
19.9934 -0.152
20.0237 0.156
20.0540 0.308
20.0843 0.772
20.1146 -0.169
20.1448 0.140
20.1751 0.137
20.2054 0.238
20.2357 -0.337
20.2659 -0.185
20.2962 -0.658
20.3265 0.536
20.3568 1.314
20.3871 0.530
20.4173 0.475
20.4476 0.733
20.4779 0.262
20.5082 0.156
20.5385 -0.054
20.5687 0.414
20.5990 -0.264
20.6293 0.569
20.6596 -0.056
20.6899 -0.368
20.7201 0.153
20.7504 0.414
20.7807 0.623
20.8110 -0.365
20.8412 0.210
20.8715 -0.413
20.9018 -0.098
20.9321 0.373
20.9624 0.272
20.9926 1.005
21.0229 -0.086
21.0532 -0.082
21.0835 -0.181
21.1138 0.917
21.1440 -0.328
21.1743 0.094
21.2046 -0.057
21.2349 0.365
21.2651 0.059
21.2954 0.222
21.3257 0.229
21.3560 0.600
21.3863 -0.121
21.4165 -0.010
21.4468 -0.158
21.4771 -0.254
21.5074 0.589
21.5377 0.598
21.5679 0.138
21.5982 0.773
21.6285 -0.207
21.6588 -0.092
21.6890 -0.030
21.7193 0.085
21.7496 0.669
21.7799 -0.257
21.8102 0.224
21.8404 0.184
21.8707 -0.272
21.9010 -0.468
21.9313 0.304
21.9616 0.034
21.9918 0.389
22.0221 0.432
22.0524 0.111
22.0827 0.051
22.1129 -0.114
22.1432 -0.121
22.1735 -0.129
22.2038 0.333
22.2341 -0.038
22.2643 -0.514
22.2946 1.147
22.3249 0.152
22.3552 0.354
22.3855 0.558
22.4157 -0.020
22.4460 -0.077
22.4763 0.179
22.5066 0.436
22.5368 -0.036
22.5671 -0.040
22.5974 0.582
22.6277 -0.097
22.6580 0.056
22.6882 -0.102
22.7185 -0.051
22.7488 0.260
22.7791 -0.002
22.8094 0.050
22.8396 0.205
22.8699 0.205
22.9002 0.049
22.9305 -0.054
22.9607 0.259
22.9910 -0.157
23.0213 -0.311
23.0516 0.263
23.0819 0.318
23.1121 0.528
23.1424 0.219
23.1727 0.274
23.2030 0.485
23.2333 0.020
23.2635 0.024
23.2938 0.341
23.3241 0.606
23.3544 0.611
23.3846 0.096
23.4149 -0.472
23.4452 0.732
23.4755 -0.616
23.5058 0.016
23.5360 0.179
23.5663 -0.231
23.5966 0.246
23.6269 0.306
23.6572 -0.468
23.6874 -0.258
23.7177 0.160
23.7480 0.266
23.7783 -0.148
23.8086 0.375
23.8388 0.065
23.8691 -0.140
23.8994 0.280
23.9297 0.596
23.9599 0.080
23.9902 0.136
24.0205 -0.224
24.0508 0.354
24.0811 0.360
24.1113 0.574
24.1416 -0.045
24.1719 0.117
24.2022 -0.137
24.2325 0.026
24.2627 -0.018
24.2930 0.093
24.3233 0.049
24.3536 0.109
24.3838 0.847
24.4141 0.648
24.4444 0.709
24.4747 0.406
24.5050 -0.522
24.5352 0.634
24.5655 -0.085
24.5958 -0.022
24.6261 0.145
24.6564 -0.052
24.6866 0.741
24.7169 0.232
24.7472 -0.224
24.7775 0.101
24.8077 0.374
24.8380 1.429
24.8683 0.453
24.8986 0.363
24.9289 0.273
24.9591 -0.077
24.9894 -0.271
25.0197 -0.025
25.0500 0.064
25.0803 0.415
25.1105 0.088
25.1408 0.804
25.1711 0.113
25.2014 0.100
25.2316 0.452
25.2619 -0.186
25.2922 0.427
25.3225 0.155
25.3528 0.248
25.3830 -0.441
25.4133 -0.087
25.4436 0.059
25.4739 -0.316
25.5042 0.091
25.5344 0.185
25.5647 0.124
25.5950 0.167
25.6253 0.107
25.6555 0.307
25.6858 -0.274
25.7161 0.083
25.7464 -0.081
25.7767 0.485
25.8069 0.166
25.8372 0.211
25.8675 0.518
25.8978 0.147
25.9281 -0.379
25.9583 0.293
25.9886 -0.337
26.0189 0.388
26.0492 0.227
26.0794 -0.610
26.1097 -0.145
26.1400 0.321
26.1703 -0.307
26.2006 -0.102
26.2308 -0.156
26.2611 0.519
26.2914 -0.316
26.3217 -0.057
26.3520 -0.110
26.3822 0.618
26.4125 0.149
26.4428 -0.320
26.4731 0.410
26.5034 -0.163
26.5336 0.307
26.5639 0.673
26.5942 0.726
26.6245 0.312
26.6547 -0.311
26.6850 -0.267
26.7153 0.142
26.7456 0.240
26.7759 0.806
26.8061 0.331
26.8364 -0.144
26.8667 0.267
26.8970 -0.363
26.9273 -0.218
26.9575 0.344
26.9878 -0.291
27.0181 0.480
27.0484 0.314
27.0786 0.305
27.1089 0.556
27.1392 0.391
27.1695 0.070
27.1998 -0.251
27.2300 0.731
27.2603 -0.422
27.2906 0.404
27.3209 0.397
27.3512 -0.443
27.3814 0.332
27.4117 0.274
27.4420 0.113
27.4723 -0.101
27.5025 0.363
27.5328 0.306
27.5631 0.041
27.5934 0.298
27.6237 0.398
27.6539 -0.022
27.6842 -0.650
27.7145 0.075
27.7448 -0.138
27.7751 0.952
27.8053 0.168
27.8356 -0.200
27.8659 0.474
27.8962 -0.153
27.9264 0.105
27.9567 0.207
27.9870 0.466
28.0173 0.309
28.0476 0.516
28.0778 0.359
28.1081 0.880
28.1384 1.453
28.1687 0.411
28.1990 0.099
28.2292 0.100
28.2595 -0.107
28.2898 0.051
28.3201 -0.572
28.3503 -0.006
28.3806 -0.065
28.4109 0.345
28.4412 0.391
28.4715 -0.449
28.5017 0.171
28.5320 -0.512
28.5623 0.160
28.5926 -0.001
28.6229 -0.266
28.6531 0.512
28.6834 -0.273
28.7137 0.036
28.7440 0.189
28.7742 0.134
28.8045 0.131
28.8348 0.285
28.8651 -0.185
28.8954 -0.187
28.9256 -0.136
28.9559 1.061
28.9862 -0.450
29.0165 -0.138
29.0468 0.331
29.0770 0.488
29.1073 -0.033
29.1376 -0.396
29.1679 0.126
29.1981 0.128
29.2284 0.390
29.2587 -0.233
29.2890 -0.491
29.3193 0.346
29.3495 0.453
29.3798 -0.064
29.4101 1.085
29.4404 1.298
29.4707 0.260
29.5009 0.838
29.5312 1.312
29.5615 0.276
29.5918 0.229
29.6221 -0.806
29.6523 -0.212
29.6826 0.227
29.7129 0.561
29.7432 0.011
29.7734 0.138
29.8037 0.317
29.8340 0.028
29.8643 0.312
29.8946 0.232
29.9248 0.777
29.9551 0.437
29.9854 0.357
30.0157 0.070
30.0460 0.356
30.0762 0.695
30.1065 0.460
30.1368 0.435
30.1671 0.357
30.1973 0.385
30.2276 0.672
30.2579 0.596
30.2882 0.833
30.3185 0.340
30.3487 0.421
30.3790 -0.071
30.4093 0.844
30.4396 1.134
30.4699 0.695
30.5001 0.517
30.5304 -0.025
30.5607 0.943
30.5910 0.298
30.6212 1.787
30.6515 0.934
30.6818 0.549
30.7121 0.999
30.7424 1.709
30.7726 1.429
30.8029 1.567
30.8332 1.028
30.8635 1.322
30.8938 2.555
30.9240 2.433
30.9543 2.833
30.9846 2.347
31.0149 1.966
31.0451 4.138
31.0754 3.549
31.1057 4.054
31.1360 4.352
31.1663 4.597
31.1965 5.000
31.2268 7.173
31.2571 6.690
31.2874 8.760
31.3177 9.476
31.3479 12.276
31.3782 12.367
31.4085 14.490
31.4388 19.374
31.4690 22.019
31.4993 25.289
31.5296 29.913
31.5599 32.194
31.5902 33.486
31.6204 37.226
31.6507 39.039
31.6810 35.436
31.7113 34.802
31.7416 27.397
31.7718 24.107
31.8021 17.953
31.8324 17.477
31.8627 13.927
31.8929 12.618
31.9232 10.215
31.9535 8.751
31.9838 8.067
32.0141 5.405
32.0443 6.233
32.0746 3.675
32.1049 3.722
32.1352 4.030
32.1655 3.192
32.1957 1.834
32.2260 2.299
32.2563 4.119
32.2866 2.189
32.3169 2.446
32.3471 0.881
32.3774 0.827
32.4077 1.033
32.4380 0.928
32.4682 -0.323
32.4985 1.134
32.5288 0.300
32.5591 0.092
32.5894 -0.117
32.6196 0.300
32.6499 0.353
32.6802 0.562
32.7105 0.772
32.7408 0.722
32.7710 -0.162
32.8013 -0.420
32.8316 -0.174
32.8619 0.645
32.8921 -0.254
32.9224 0.150
32.9527 -0.124
32.9830 0.540
33.0133 -0.305
33.0435 -0.109
33.0738 -0.017
33.1041 0.180
33.1344 0.169
33.1647 -0.259
33.1949 0.356
33.2252 -0.436
33.2555 -0.081
33.2858 0.066
33.3160 -0.621
33.3463 0.464
33.3766 -0.274
33.4069 -0.022
33.4372 -0.030
33.4674 0.379
33.4977 -0.409
33.5280 0.781
33.5583 0.098
33.5886 -0.013
33.6188 -0.436
33.6491 0.023
33.6794 -0.091
33.7097 1.357
33.7399 0.619
33.7702 1.183
33.8005 2.529
33.8308 2.624
33.8611 2.929
33.8913 2.713
33.9216 3.226
33.9519 4.261
33.9822 4.567
34.0125 6.019
34.0427 7.888
34.0730 9.080
34.1033 13.033
34.1336 13.340
34.1638 19.169
34.1941 27.602
34.2244 35.827
34.2547 39.104
34.2850 42.121
34.3152 38.837
34.3455 36.855
34.3758 27.581
34.4061 22.110
34.4364 16.744
34.4666 13.096
34.4969 10.543
34.5272 7.208
34.5575 7.885
34.5877 5.853
34.6180 2.988
34.6483 3.874
34.6786 2.781
34.7089 3.407
34.7391 0.960
34.7694 3.149
34.7997 2.005
34.8300 1.486
34.8603 1.801
34.8905 1.596
34.9208 1.234
34.9511 0.925
34.9814 0.200
35.0116 2.079
35.0419 0.520
35.0722 0.681
35.1025 0.113
35.1328 0.692
35.1630 0.697
35.1933 1.589
35.2236 1.751
35.2539 2.226
35.2842 2.077
35.3144 2.293
35.3447 2.769
35.3750 2.048
35.4053 2.629
35.4356 3.262
35.4658 3.375
35.4961 2.863
35.5264 2.612
35.5567 3.247
35.5869 3.778
35.6172 6.601
35.6475 6.663
35.6778 6.362
35.7081 8.144
35.7383 9.510
35.7686 11.032
35.7989 10.836
35.8292 15.953
35.8595 16.747
35.8897 19.364
35.9200 24.274
35.9503 28.246
35.9806 33.364
36.0108 42.077
36.0411 44.487
36.0714 48.721
36.1017 48.580
36.1320 52.346
36.1622 53.352
36.1925 50.399
36.2228 42.760
36.2531 38.923
36.2834 30.398
36.3136 24.114
36.3439 24.653
36.3742 19.254
36.4045 14.065
36.4347 12.886
36.4650 11.446
36.4953 9.018
36.5256 7.111
36.5559 7.235
36.5861 5.381
36.6164 5.297
36.6467 4.693
36.6770 3.465
36.7073 3.018
36.7375 4.082
36.7678 1.864
36.7981 2.512
36.8284 2.796
36.8586 1.673
36.8889 1.645
36.9192 1.721
36.9495 1.120
36.9798 1.353
37.0100 -0.133
37.0403 0.518
37.0706 0.960
37.1009 0.830
37.1312 0.856
37.1614 1.091
37.1917 1.430
37.2220 0.311
37.2523 1.693
37.2825 0.679
37.3128 -0.283
37.3431 -0.046
37.3734 0.191
37.4037 0.585
37.4339 0.093
37.4642 -0.190
37.4945 -0.576
37.5248 0.600
37.5551 0.891
37.5853 0.245
37.6156 0.484
37.6459 -0.161
37.6762 -0.598
37.7064 0.198
37.7367 0.890
37.7670 0.697
37.7973 0.087
37.8276 0.624
37.8578 0.327
37.8881 -0.229
37.9184 0.569
37.9487 0.065
37.9790 -0.282
38.0092 0.152
38.0395 -0.143
38.0698 0.188
38.1001 0.207
38.1304 -0.035
38.1606 -0.015
38.1909 0.004
38.2212 0.024
38.2515 0.201
38.2817 -0.144
38.3120 -0.123
38.3423 -0.102
38.3726 0.441
38.4029 0.098
38.4331 0.537
38.4634 -0.118
38.4937 0.947
38.5240 0.657
38.5543 0.160
38.5845 0.079
38.6148 -0.053
38.6451 0.284
38.6754 0.204
38.7056 0.437
38.7359 -0.371
38.7662 0.228
38.7965 0.410
38.8268 0.853
38.8570 -0.058
38.8873 0.021
38.9176 -0.369
38.9479 0.388
38.9782 0.208
39.0084 -0.598
39.0387 -0.181
39.0690 0.131
39.0993 0.027
39.1295 0.288
39.1598 0.081
39.1901 0.447
39.2204 0.032
39.2507 0.190
39.2809 0.192
39.3112 0.507
39.3415 0.302
39.3718 1.034
39.4021 0.257
39.4323 0.469
39.4626 -0.465
39.4929 0.634
39.5232 0.013
39.5534 0.539
39.5837 0.024
39.6140 0.082
39.6443 0.036
39.6746 -0.062
39.7048 0.101
39.7351 -0.413
39.7654 0.688
39.7957 0.071
39.8260 -0.130
39.8562 0.191
39.8865 -0.009
39.9168 -0.260
39.9471 0.050
39.9773 0.101
40.0076 0.360
40.0379 0.099
40.0682 0.255
40.0985 0.359
40.1287 0.151
40.1590 -0.109
40.1893 0.882
40.2196 0.154
40.2499 -0.210
40.2801 0.782
40.3104 0.315
40.3407 -0.203
40.3710 0.320
40.4012 0.480
40.4315 -0.038
40.4618 0.226
40.4921 0.387
40.5224 -0.026
40.5526 0.500
40.5829 0.140
40.6132 -0.428
40.6435 0.307
40.6738 -0.051
40.7040 0.163
40.7343 0.118
40.7646 0.385
40.7949 -0.389
40.8251 -0.336
40.8554 0.759
40.8857 -0.021
40.9160 0.137
40.9463 0.452
40.9765 0.402
41.0068 -0.168
41.0371 -0.217
41.0674 -0.161
41.0977 0.155
41.1279 0.107
41.1582 0.111
41.1885 0.845
41.2188 0.173
41.2491 -0.082
41.2793 -0.076
41.3096 0.659
41.3399 -0.168
41.3702 0.463
41.4004 0.262
41.4307 0.269
41.4610 -0.088
41.4913 0.337
41.5216 0.501
41.5518 -0.063
41.5821 0.779
41.6124 0.111
41.6427 0.381
41.6730 -0.182
41.7032 0.296
41.7335 0.255
41.7638 0.630
41.7941 0.068
41.8243 -0.233
41.8546 -0.087
41.8849 0.164
41.9152 0.415
41.9455 0.615
41.9757 0.450
42.0060 -0.027
42.0363 0.225
42.0666 -0.043
42.0969 0.054
42.1271 -0.161
42.1574 -0.064
42.1877 -0.070
42.2180 0.236
42.2482 0.647
42.2785 -0.087
42.3088 0.012
42.3391 0.267
42.3694 0.471
42.3996 0.050
42.4299 -0.006
42.4602 0.043
42.4905 -0.377
42.5208 0.349
42.5510 0.034
42.5813 0.344
42.6116 0.498
42.6419 0.236
42.6721 -0.130
42.7024 -0.026
42.7327 0.442
42.7630 0.077
42.7933 -0.288
42.8235 0.129
42.8538 -0.183
42.8841 0.130
42.9144 -0.389
42.9447 -0.078
42.9749 -0.236
43.0052 0.284
43.0355 0.023
43.0658 0.179
43.0960 0.283
43.1263 -0.289
43.1566 -0.028
43.1869 -0.236
43.2172 -0.234
43.2474 0.080
43.2777 0.238
43.3080 0.344
43.3383 0.138
43.3686 0.037
43.3988 -0.064
43.4291 0.304
43.4594 -0.213
43.4897 0.104
43.5199 0.317
43.5502 0.165
43.5805 -0.142
43.6108 -0.033
43.6411 0.129
43.6713 -0.646
43.7016 0.610
43.7319 0.304
43.7622 0.051
43.7925 0.892
43.8227 0.170
43.8530 -0.239
43.8833 -0.239
43.9136 0.281
43.9439 0.801
43.9741 0.280
44.0044 0.384
44.0347 0.124
44.0650 0.645
44.0952 0.333
44.1255 0.335
44.1558 0.388
44.1861 0.077
44.2164 -0.337
44.2466 -0.031
44.2769 0.431
44.3072 -0.200
44.3375 -0.101
44.3678 0.414
44.3980 -0.060
44.4283 -0.064
44.4586 0.452
44.4889 -0.021
44.5191 -0.285
44.5494 0.075
44.5797 0.071
44.6100 -0.037
44.6403 0.533
44.6705 0.269
44.7008 0.318
44.7311 0.107
44.7614 -0.051
44.7917 0.312
44.8219 0.206
44.8522 -0.264
44.8825 0.777
44.9128 0.099
44.9430 0.047
44.9733 0.099
45.0036 -0.474
45.0339 0.673
45.0642 0.257
45.0944 0.102
45.1247 0.156
45.1550 -0.259
45.1853 -0.116
45.2156 0.131
45.2458 0.118
45.2761 -0.051
45.3064 -0.116
45.3367 0.028
45.3669 0.069
45.3972 0.109
45.4275 1.140
45.4578 0.191
45.4881 0.129
45.5183 0.066
45.5486 -0.412
45.5789 0.568
45.6092 0.194
45.6395 0.029
45.6697 0.229
45.7000 -0.353
45.7303 0.421
45.7606 -0.264
45.7908 0.041
45.8211 0.086
45.8514 -0.337
45.8817 -0.039
45.9120 -0.261
45.9422 0.558
45.9725 0.024
46.0028 -0.093
46.0331 0.363
46.0634 -0.639
46.0936 0.078
46.1239 0.118
46.1542 0.159
46.1845 0.200
46.2147 -0.280
46.2450 0.335
46.2753 0.533
46.3056 -0.363
46.3359 0.513
46.3661 -0.434
46.3964 -0.182
46.4267 0.070
46.4570 -0.147
46.4873 -0.207
46.5175 0.046
46.5478 0.351
46.5781 0.865
46.6084 0.545
46.6386 -0.086
46.6689 0.481
46.6992 0.371
46.7295 0.522
46.7598 0.985
46.7900 0.564
46.8203 0.507
46.8506 0.711
46.8809 0.968
46.9112 1.016
46.9414 1.742
46.9717 1.218
47.0020 1.528
47.0323 0.901
47.0626 2.253
47.0928 2.668
47.1231 3.448
47.1534 3.187
47.1837 4.280
47.2139 4.592
47.2442 5.321
47.2745 6.988
47.3048 7.301
47.3351 7.666
47.3653 8.709
47.3956 9.231
47.4259 9.806
47.4562 10.173
47.4865 9.915
47.5167 8.720
47.5470 6.900
47.5773 6.799
47.6076 5.397
47.6378 4.463
47.6681 4.311
47.6984 3.639
47.7287 2.550
47.7590 1.670
47.7892 1.467
47.8195 1.629
47.8498 0.854
47.8801 1.121
47.9104 1.076
47.9406 0.979
47.9709 0.466
48.0012 0.995
48.0315 0.378
48.0617 0.803
48.0920 0.551
48.1223 -0.221
48.1526 -0.264
48.1829 0.371
48.2131 0.069
48.2434 0.287
48.2737 0.298
48.3040 0.674
48.3343 0.268
48.3645 0.228
48.3948 0.344
48.4251 -0.008
48.4554 -0.360
48.4856 0.642
48.5159 0.551
48.5462 0.200
48.5765 0.110
48.6068 -0.032
48.6370 0.347
48.6673 0.101
48.6976 0.220
48.7279 -0.285
48.7582 -0.184
48.7884 -0.187
48.8187 0.227
48.8490 0.068
48.8793 -0.142
48.9095 0.273
48.9398 0.011
48.9701 -0.042
49.0004 -0.251
49.0307 -0.095
49.0609 -0.095
49.0912 -0.043
49.1215 -0.094
49.1518 -0.198
49.1821 0.116
49.2123 0.013
49.2426 0.223
49.2729 0.434
49.3032 -0.397
49.3334 -0.030
49.3637 -0.235
49.3940 0.289
49.4243 -0.332
49.4546 0.245
49.4848 -0.272
49.5151 -0.111
49.5454 -0.054
49.5757 0.472
49.6060 -0.251
49.6362 -0.141
49.6665 0.803
49.6968 -0.285
49.7271 -0.173
49.7574 0.094
49.7876 -0.211
49.8179 -0.255
49.8482 0.169
49.8785 0.333
49.9087 0.393
49.9390 -0.433
49.9693 -0.059
49.9996 -0.051
50.0299 -0.250
50.0601 0.057
50.0904 0.209
50.1207 0.256
50.1510 -0.061
50.1813 -0.533
50.2115 0.505
50.2418 -0.384
50.2721 0.342
50.3024 0.027
50.3326 0.233
50.3629 0.022
50.3932 0.906
50.4235 -0.710
50.4538 -0.086
50.4840 -0.400
50.5143 0.173
50.5446 0.016
50.5749 -0.192
50.6052 0.173
50.6354 0.070
50.6657 0.019
50.6960 0.489
50.7263 0.334
50.7565 0.284
50.7868 -0.078
50.8171 0.289
50.8474 -0.124
50.8777 -0.069
50.9079 0.560
50.9382 -0.322
50.9685 -0.005
50.9988 0.312
51.0291 0.525
51.0593 -0.407
51.0896 -0.193
51.1199 -0.031
51.1502 -0.077
51.1804 -0.227
51.2107 0.248
51.2410 -0.370
51.2713 0.002
51.3016 0.062
51.3318 -0.034
51.3621 0.287
51.3924 0.348
51.4227 0.253
51.4530 -0.311
51.4832 -0.206
51.5135 0.003
51.5438 -0.047
51.5741 0.163
51.6043 0.009
51.6346 -0.093
51.6649 0.274
51.6952 -0.036
51.7255 0.124
51.7557 -0.133
51.7860 -0.389
51.8163 0.186
51.8466 -0.280
51.8769 0.609
51.9071 -0.169
51.9374 0.252
51.9677 0.412
51.9980 0.261
52.0282 0.318
52.0585 -0.146
52.0888 -0.089
52.1191 -0.083
52.1494 -0.233
52.1796 0.020
52.2099 0.741
52.2402 0.265
52.2705 0.623
52.3008 0.043
52.3310 0.505
52.3613 0.343
52.3916 0.285
52.4219 -0.033
52.4521 0.275
52.4824 0.582
52.5127 -0.307
52.5430 0.105
52.5733 0.153
52.6035 0.202
52.6338 -0.114
52.6641 0.040
52.6944 0.193
52.7247 -0.121
52.7549 0.241
52.7852 0.083
52.8155 -0.543
52.8458 0.081
52.8761 0.185
52.9063 0.236
52.9366 0.705
52.9669 -0.284
52.9972 0.393
53.0274 -0.074
53.0577 -0.073
53.0880 -0.436
53.1183 0.191
53.1486 0.037
53.1788 0.716
53.2091 0.302
53.2394 -0.059
53.2697 0.100
53.3000 0.104
53.3302 0.473
53.3605 0.113
53.3908 -0.039
53.4211 0.331
53.4513 0.388
53.4816 -0.127
53.5119 -0.121
53.5422 0.354
53.5725 0.100
53.6027 0.159
53.6330 0.375
53.6633 -0.086
53.6936 0.182
53.7239 0.503
53.7541 0.407
53.7844 -0.157
53.8147 -0.148
53.8450 -0.086
53.8752 -0.233
53.9055 0.112
53.9358 -0.012
53.9661 -0.135
53.9964 0.055
54.0266 0.036
54.0569 0.070
54.0872 0.261
54.1175 0.400
54.1478 -0.399
54.1780 -0.155
54.2083 0.349
54.2386 0.385
54.2689 0.109
54.2991 -0.063
54.3294 0.390
54.3597 0.063
54.3900 -0.108
54.4203 0.190
54.4505 0.228
54.4808 -0.202
54.5111 0.097
54.5414 0.396
54.5717 -0.189
54.6019 0.163
54.6322 -0.162
54.6625 0.139
54.6928 -0.498
54.7230 0.064
54.7533 -0.311
54.7836 -0.014
54.8139 -0.030
54.8442 -0.357
54.8744 0.357
54.9047 0.343
54.9350 0.172
54.9653 0.158
54.9956 -0.063
55.0258 -0.024
55.0561 0.119
55.0864 -0.154
55.1167 0.198
55.1469 0.030
55.1772 -0.138
55.2075 -0.201
55.2378 0.049
55.2681 -0.118
55.2983 0.340
55.3286 0.018
55.3589 0.164
55.3892 -0.106
55.4195 -0.063
55.4497 0.293
55.4800 0.441
55.5103 -0.192
55.5406 0.165
55.5709 0.366
55.6011 -0.006
55.6314 0.404
55.6617 -0.124
55.6920 0.599
55.7222 0.437
55.7525 0.432
55.7828 0.322
55.8131 0.942
55.8434 0.833
55.8736 0.569
55.9039 1.398
55.9342 1.551
55.9645 1.704
55.9948 1.388
56.0250 1.906
56.0553 2.633
56.0856 2.683
56.1159 2.681
56.1461 3.148
56.1764 5.022
56.2067 4.813
56.2370 4.813
56.2673 6.010
56.2975 7.625
56.3278 6.584
56.3581 8.980
56.3884 9.711
56.4187 10.806
56.4489 11.589
56.4792 10.549
56.5095 10.552
56.5398 11.335
56.5700 10.036
56.6003 9.154
56.6306 7.595
56.6609 7.547
56.6912 5.833
56.7214 5.733
56.7517 4.123
56.7820 4.441
56.8123 3.040
56.8426 2.473
56.8728 3.261
56.9031 1.600
56.9334 2.128
56.9637 0.885
56.9939 1.622
57.0242 1.213
57.0545 1.794
57.0848 0.708
57.1151 0.717
57.1453 0.413
57.1756 0.683
57.2059 0.484
57.2362 0.442
57.2665 0.296
57.2967 0.359
57.3270 -0.255
57.3573 0.173
57.3876 0.757
57.4178 0.248
57.4481 0.260
57.4784 0.377
57.5087 -0.444
57.5390 -0.170
57.5692 -0.157
57.5995 -0.143
57.6298 0.444
57.6601 -0.323
57.6904 0.629
57.7206 0.071
57.7509 -0.486
57.7812 0.050
57.8115 -0.194
57.8417 0.135
57.8720 -0.266
57.9023 -0.152
57.9326 0.274
57.9629 -0.081
57.9931 0.033
58.0234 -0.218
58.0537 -0.415
58.0840 0.269
58.1143 0.172
58.1445 0.232
58.1748 0.500
58.2051 -0.325
58.2354 0.309
58.2656 -0.203
58.2959 0.327
58.3262 0.076
58.3565 0.242
58.3868 0.409
58.4170 -0.362
58.4473 -0.143
58.4776 -0.131
58.5079 -0.068
58.5382 0.257
58.5684 -0.200
58.5987 0.542
58.6290 -0.123
58.6593 0.047
58.6896 -0.409
58.7198 0.126
58.7501 0.192
58.7804 0.258
58.8107 0.117
58.8409 -0.233
58.8712 -0.080
58.9015 0.385
58.9318 0.903
58.9621 -0.037
58.9923 0.117
59.0226 0.062
59.0529 -0.043
59.0832 -0.305
59.1135 0.371
59.1437 -0.099
59.1740 0.317
59.2043 0.421
59.2346 0.578
59.2648 0.057
59.2951 0.267
59.3254 0.632
59.3557 0.738
59.3860 -0.042
59.4162 0.117
59.4465 -0.037
59.4768 0.070
59.5071 0.125
59.5374 -0.132
59.5676 -0.233
59.5979 0.069
59.6282 0.475
59.6585 0.465
59.6887 -0.274
59.7190 0.498
59.7493 0.020
59.7796 -0.197
59.8099 0.263
59.8401 -0.058
59.8704 0.039
59.9007 0.135
59.9310 -0.080
59.9613 0.069
59.9915 0.323
60.0218 0.317
60.0521 -0.054
60.0824 0.149
60.1126 -0.221
60.1429 -0.174
60.1732 0.082
60.2035 0.598
60.2338 -0.291
60.2640 0.069
60.2943 0.066
60.3246 0.167
60.3549 0.216
60.3852 -0.099
60.4154 0.107
60.4457 -0.363
60.4760 -0.055
60.5063 0.046
60.5365 0.199
60.5668 0.143
60.5971 -0.380
60.6274 -0.018
60.6577 -0.124
60.6879 0.030
60.7182 0.029
60.7485 -0.389
60.7788 0.017
60.8091 -0.148
60.8393 0.207
60.8696 -0.115
60.8999 0.345
60.9302 -0.340
60.9604 0.381
60.9907 -0.356
61.0210 -0.207
61.0513 0.099
61.0816 -0.221
61.1118 0.450
61.1421 -0.025
61.1724 -0.135
61.2027 0.016
61.2330 -0.198
61.2632 0.006
61.2935 -0.311
61.3238 0.039
61.3541 0.181
61.3844 -0.145
61.4146 -0.211
61.4449 0.193
61.4752 -0.237
61.5055 -0.249
61.5357 0.051
61.5660 0.299
61.5963 -0.285
61.6266 -0.246
61.6569 0.575
61.6871 0.043
61.7174 0.135
61.7477 0.384
61.7780 0.530
61.8083 0.727
61.8385 0.196
61.8688 -0.178
61.8991 -0.240
61.9294 0.219
61.9596 0.679
61.9899 0.410
62.0202 0.506
62.0505 -0.023
62.0808 0.750
62.1110 0.118
62.1413 0.319
62.1716 0.676
62.2019 0.878
62.2322 1.705
62.2624 0.918
62.2927 1.121
62.3230 1.793
62.3533 2.777
62.3835 2.617
62.4138 3.133
62.4441 2.400
62.4744 4.011
62.5047 3.487
62.5349 5.879
62.5652 5.304
62.5955 6.864
62.6258 9.310
62.6561 9.516
62.6863 8.994
62.7166 8.941
62.7469 8.888
62.7772 9.512
62.8074 8.158
62.8377 8.523
62.8680 7.534
62.8983 6.649
62.9286 7.379
62.9588 4.203
62.9891 5.403
63.0194 5.353
63.0497 3.845
63.0800 2.337
63.1102 2.913
63.1405 2.291
63.1708 0.993
63.2011 1.309
63.2313 1.105
63.2616 0.589
63.2919 0.802
63.3222 0.911
63.3525 0.448
63.3827 0.506
63.4130 0.408
63.4433 -0.002
63.4736 0.577
63.5039 0.376
63.5341 0.592
63.5644 0.131
63.5947 0.087
63.6250 0.043
63.6552 -0.157
63.6855 0.165
63.7158 0.226
63.7461 0.132
63.7764 -0.171
63.8066 -0.109
63.8369 0.058
63.8672 -0.295
63.8975 0.237
63.9278 0.092
63.9580 -0.157
63.9883 0.168
64.0186 0.076
64.0489 -0.276
64.0791 -0.106
64.1094 0.220
64.1397 0.078
64.1700 0.040
64.2003 -0.258
64.2305 -0.243
64.2608 -0.020
64.2911 0.204
64.3214 -0.092
64.3517 0.080
64.3819 0.305
64.4122 -0.303
64.4425 0.287
64.4728 0.200
64.5031 0.009
64.5333 -0.285
64.5636 0.025
64.5939 0.232
64.6242 0.334
64.6544 -0.240
64.6847 -0.345
64.7150 0.435
64.7453 -0.763
64.7756 -0.034
64.8058 0.019
64.8361 -0.085
64.8664 0.645
64.8967 -0.187
64.9270 -0.029
64.9572 -0.184
64.9875 0.287
65.0178 0.134
65.0481 0.084
65.0783 -0.121
65.1086 -0.013
65.1389 0.251
65.1692 0.620
65.1995 0.155
65.2297 0.212
65.2600 0.113
65.2903 -0.351
65.3206 0.697
65.3509 -0.078
65.3811 0.084
65.4114 0.455
65.4417 0.046
65.4720 0.001
65.5022 -0.200
65.5325 -0.244
65.5628 -0.212
65.5931 0.134
65.6234 -0.250
65.6536 0.409
65.6839 0.130
65.7142 -0.148
65.7445 0.095
65.7748 -0.443
65.8050 0.321
65.8353 0.513
65.8656 0.080
65.8959 0.741
65.9261 0.726
65.9564 0.294
65.9867 0.904
66.0170 0.212
66.0473 0.250
66.0775 1.069
66.1078 0.691
66.1381 0.677
66.1684 0.872
66.1987 0.860
66.2289 1.472
66.2592 0.939
66.2895 1.240
66.3198 0.343
66.3500 0.592
66.3803 0.529
66.4106 0.987
66.4409 0.404
66.4712 0.811
66.5014 0.801
66.5317 0.115
66.5620 0.314
66.5923 0.514
66.6226 0.245
66.6528 0.758
66.6831 -0.083
66.7134 0.274
66.7437 0.215
66.7739 0.625
66.8042 -0.580
66.8345 -0.013
66.8648 -0.383
66.8951 0.184
66.9253 -0.029
66.9556 -0.295
66.9859 -0.251
67.0162 0.313
67.0465 0.462
67.0767 0.037
67.1070 0.030
67.1373 0.075
67.1676 0.954
67.1978 0.166
67.2281 0.368
67.2584 0.727
67.2887 0.826
67.3190 0.873
67.3492 1.493
67.3795 1.228
67.4098 0.599
67.4401 1.376
67.4704 1.633
67.5006 2.255
67.5309 2.408
67.5612 2.822
67.5915 3.653
67.6218 3.443
67.6520 3.389
67.6823 5.054
67.7126 5.886
67.7429 6.042
67.7731 5.781
67.8034 6.406
67.8337 5.990
67.8640 5.521
67.8943 4.793
67.9245 5.159
67.9548 4.744
67.9851 4.485
68.0154 4.175
68.0457 4.437
68.0759 2.774
68.1062 3.089
68.1365 3.405
68.1668 2.940
68.1970 2.007
68.2273 1.907
68.2576 1.911
68.2879 0.927
68.3182 1.661
68.3484 1.667
68.3787 1.204
68.4090 0.950
68.4393 0.748
68.4696 0.338
68.4998 0.554
68.5301 0.978
68.5604 -0.056
68.5907 1.254
68.6209 0.950
68.6512 1.011
68.6815 1.176
68.7118 1.446
68.7421 1.143
68.7723 2.247
68.8026 2.101
68.8329 1.852
68.8632 2.540
68.8935 1.613
68.9237 2.510
68.9540 2.522
68.9843 2.066
69.0146 2.391
69.0448 2.404
69.0751 1.896
69.1054 2.378
69.1357 2.132
69.1660 1.156
69.1962 1.223
69.2265 1.238
69.2568 1.409
69.2871 1.320
69.3174 0.763
69.3476 0.623
69.3779 0.327
69.4082 0.760
69.4385 0.517
69.4687 0.690
69.4990 0.395
69.5293 0.517
69.5596 0.223
69.5899 0.242
69.6201 0.365
69.6504 0.540
69.6807 0.299
69.7110 -0.149
69.7413 0.183
69.7715 0.099
69.8018 -0.244
69.8321 -0.077
69.8624 0.300
69.8926 0.260
69.9229 0.012
69.9532 -0.079
69.9835 0.246
70.0138 -0.053
70.0440 0.117
70.0743 0.131
70.1046 0.041
70.1349 0.629
70.1652 0.279
70.1954 0.607
70.2257 -0.263
70.2560 0.066
70.2863 0.082
70.3166 -0.162
70.3468 0.741
70.3771 -0.023
70.4074 0.150
70.4377 0.533
70.4679 -0.282
70.4982 0.153
70.5285 0.119
70.5588 0.243
70.5891 -0.207
70.6193 -0.207
70.6496 0.258
70.6799 0.254
70.7102 0.198
70.7405 -0.170
70.7707 0.556
70.8010 -0.019
70.8313 0.030
70.8616 0.341
70.8918 0.235
70.9221 0.338
70.9524 -0.445
70.9827 0.128
71.0130 0.179
71.0432 0.179
71.0735 0.440
71.1038 -0.029
71.1341 0.076
71.1644 0.338
71.1946 0.131
71.2249 -0.076
71.2552 0.343
71.2855 0.345
71.3157 0.400
71.3460 0.143
71.3763 0.250
71.4066 -0.007
71.4369 0.310
71.4671 -0.363
71.4974 -0.259
71.5277 0.409
71.5580 0.244
71.5883 -0.233
71.6185 -0.189
71.6488 0.219
71.6791 0.159
71.7094 0.047
71.7396 0.040
71.7699 0.137
71.8002 0.234
71.8305 -0.137
71.8608 0.013
71.8910 0.060
71.9213 0.158
71.9516 0.205
71.9819 0.304
72.0122 0.248
72.0424 -0.069
72.0727 0.240
72.1030 0.132
72.1333 0.649
72.1635 -0.083
72.1938 0.592
72.2241 0.485
72.2544 0.379
72.2847 0.221
72.3149 0.116
72.3452 0.323
72.3755 0.426
72.4058 0.999
72.4361 0.530
72.4663 0.582
72.4966 0.583
72.5269 0.115
72.5572 0.116
72.5874 0.117
72.6177 0.171
72.6480 0.382
72.6783 0.697
72.7086 0.126
72.7388 0.077
72.7691 0.602
72.7994 -0.020
72.8297 0.088
72.8600 0.041
72.8902 0.097
72.9205 0.154
72.9508 0.160
72.9811 0.061
73.0113 0.223
73.0416 -0.031
73.0719 -0.285
73.1022 0.083
73.1325 0.035
73.1627 -0.117
73.1930 0.356
73.2233 -0.055
73.2536 0.002
73.2839 -0.149
73.3141 -0.143
73.3444 0.332
73.3747 -0.078
73.4050 0.449
73.4353 0.092
73.4655 0.151
73.4958 0.367
73.5261 0.167
73.5564 -0.189
73.5866 -0.129
73.6169 0.193
73.6472 0.046
73.6775 0.004
73.7078 -0.195
73.7380 -0.092
73.7683 0.167
73.7986 0.323
73.8289 -0.198
73.8592 0.167
73.8894 -0.094
73.9197 0.063
73.9500 0.221
73.9803 -0.195
74.0105 -0.195
74.0408 0.167
74.0711 -0.200
74.1014 0.215
74.1317 0.161
74.1619 0.420
74.1922 -0.154
74.2225 0.262
74.2528 -0.051
74.2831 0.105
74.3133 -0.207
74.3436 0.419
74.3739 0.211
74.4042 -0.204
74.4344 0.006
74.4647 0.424
74.4950 -0.043
74.5253 -0.092
74.5556 -0.037
74.5858 0.122
74.6161 0.073
74.6464 0.025
74.6767 -0.023
74.7070 0.085
74.7372 0.038
74.7675 0.043
74.7978 0.048
74.8281 0.054
74.8583 -0.044
74.8886 -0.142
74.9189 -0.188
74.9492 -0.143
74.9795 0.267
75.0097 0.105
75.0400 0.151
75.0703 0.301
75.1006 0.296
75.1309 -0.022
75.1611 0.078
75.1914 0.178
75.2217 -0.139
75.2520 0.118
75.2822 0.322
75.3125 0.111
75.3428 0.108
75.3731 -0.103
75.4034 0.051
75.4336 0.310
75.4639 -0.213
75.4942 0.099
75.5245 -0.059
75.5548 0.149
75.5850 0.565
75.6153 0.253
75.6456 0.253
75.6759 0.046
75.7061 -0.058
75.7364 -0.108
75.7667 -0.524
75.7970 0.364
75.8273 0.470
75.8575 0.212
75.8878 0.476
75.9181 -0.407
75.9484 -0.195
75.9787 -0.049
76.0089 -0.162
76.0392 0.453
76.0695 0.236
76.0998 0.644
76.1301 0.219
76.1603 0.211
76.1906 -0.214
76.2209 0.300
76.2512 0.136
76.2814 0.181
76.3117 -0.294
76.3420 0.377
76.3723 -0.254
76.4026 0.522
76.4328 0.204
76.4631 0.356
76.4934 0.091
76.5237 0.138
76.5540 0.499
76.5842 0.235
76.6145 0.544
76.6448 0.645
76.6751 0.538
76.7053 0.640
76.7356 0.482
76.7659 0.740
76.7962 0.739
76.8265 0.061
76.8567 0.425
76.8870 0.997
76.9173 0.684
76.9476 0.580
76.9779 0.164
77.0081 0.217
77.0384 0.218
77.0687 0.480
77.0990 1.055
77.1292 0.380
77.1595 0.382
77.1898 0.176
77.2201 0.127
77.2504 0.130
77.2806 0.238
77.3109 0.190
77.3412 -0.066
77.3715 0.251
77.4018 0.204
77.4320 -0.103
77.4623 0.319
77.4926 -0.248
77.5229 -0.190
77.5531 0.441
77.5834 0.396
77.6137 0.091
77.6440 0.098
77.6743 -0.259
77.7045 -0.054
77.7348 -0.006
77.7651 0.043
77.7954 0.144
77.8257 -0.275
77.8559 0.243
77.8862 0.189
77.9165 0.135
77.9468 -0.022
77.9770 0.498
78.0073 0.184
78.0376 0.548
78.0679 0.184
78.0982 -0.233
78.1284 -0.128
78.1587 0.030
78.1890 -0.334
78.2193 0.085
78.2496 0.087
78.2798 -0.119
78.3101 0.352
78.3404 0.199
78.3707 0.150
78.4009 -0.107
78.4312 0.262
78.4615 -0.098
78.4918 -0.146
78.5221 0.223
78.5523 0.020
78.5826 -0.235
78.6129 0.344
78.6432 0.298
78.6735 0.201
78.7037 0.624
78.7340 -0.098
78.7643 -0.195
78.7946 -0.042
78.8248 0.163
78.8551 -0.048
78.8854 -0.207
78.9157 0.102
78.9460 -0.006
78.9762 -0.009
79.0065 0.249
79.0368 0.090
79.0671 0.035
79.0974 -0.123
79.1276 0.032
79.1579 0.083
79.1882 0.082
79.2185 0.029
79.2488 -0.336
79.2790 0.393
79.3093 0.341
79.3396 0.029
79.3699 0.134
79.4001 -0.177
79.4304 -0.123
79.4607 0.347
79.4910 0.037
79.5213 -0.065
79.5515 -0.114
79.5818 -0.007
79.6121 -0.264
79.6424 0.261
79.6727 -0.152
79.7029 -0.043
79.7332 -0.195
79.7635 -0.195
79.7938 -0.145
79.8240 0.009
79.8543 -0.148
79.8846 0.423
79.9149 0.318
79.9452 -0.359
79.9754 0.266
80.0057 0.057
80.0360 0.058
80.0663 0.163
80.0966 0.268
80.1268 -0.200
80.1571 -0.146
80.1874 -0.092
80.2177 0.223
80.2479 0.069
80.2782 -0.188
80.3085 0.232
80.3388 -0.025
80.3691 -0.073
80.3993 -0.173
80.4296 -0.169
80.4599 0.149
80.4902 -0.003
80.5205 0.107
80.5507 0.061
80.5810 0.275
80.6113 0.125
80.6416 -0.233
80.6718 -0.085
80.7021 -0.042
80.7324 0.106
80.7627 0.358
80.7930 0.142
80.8232 -0.177
80.8535 -0.132
80.8838 -0.139
80.9141 0.375
80.9444 0.213
80.9746 0.259
81.0049 -0.215
81.0352 -0.012
81.0655 0.244
81.0957 0.500
81.1260 0.287
81.1563 0.179
81.1866 0.384
81.2169 0.589
81.2471 0.221
81.2774 0.271
81.3077 0.164
81.3380 0.214
81.3683 -0.256
81.3985 0.524
81.4288 0.419
81.4591 -0.259
81.4894 0.365
81.5196 0.678
81.5499 0.574
81.5802 0.210
81.6105 0.054
81.6408 0.055
81.6710 0.161
81.7013 -0.202
81.7316 -0.149
81.7619 -0.043
81.7922 -0.094
81.8224 -0.040
81.8527 -0.350
81.8830 0.225
81.9133 0.072
81.9436 -0.029
81.9738 0.183
82.0041 -0.022
82.0344 0.034
82.0647 -0.170
82.0949 0.252
82.1252 -0.212
82.1555 0.054
82.1858 0.112
82.2161 -0.195
82.2463 -0.195
82.2766 -0.195
82.3069 0.219
82.3372 0.061
82.3675 -0.045
82.3977 -0.047
82.4280 0.108
82.4583 0.055
82.4886 0.107
82.5188 0.159
82.5491 0.107
82.5794 0.419
82.6097 -0.153
82.6400 0.161
82.6702 -0.203
82.7005 -0.045
82.7308 -0.043
82.7611 0.011
82.7914 -0.194
82.8216 0.069
82.8519 0.124
82.8822 0.024
82.9125 -0.181
82.9427 -0.177
82.9730 0.088
83.0033 0.093
83.0336 -0.006
83.0639 -0.105
83.0941 0.161
83.1244 0.271
83.1547 -0.139
83.1850 0.024
83.2153 0.187
83.2455 0.143
83.2758 -0.006
83.3061 -0.259
83.3364 0.059
83.3666 0.325
83.3969 0.019
83.4272 -0.027
83.4575 0.188
83.4878 -0.013
83.5180 -0.006
83.5483 -0.415
83.5786 0.047
83.6089 -0.065
83.6392 0.397
83.6694 -0.130
83.6997 0.333
83.7300 -0.090
83.7603 0.217
83.7905 0.160
83.8208 -0.001
83.8511 -0.110
83.8814 -0.062
83.9117 0.351
83.9419 0.191
83.9722 -0.385
84.0025 0.028
84.0328 -0.339
84.0631 0.492
84.0933 -0.083
84.1236 -0.137
84.1539 0.018
84.1842 -0.139
84.2144 0.069
84.2447 -0.088
84.2750 0.120
84.3053 0.224
84.3356 0.121
84.3658 -0.139
84.3961 0.019
84.4264 0.020
84.4567 0.126
84.4870 -0.549
84.5172 0.391
84.5475 0.342
84.5778 0.188
84.6081 -0.329
84.6383 -0.065
84.6686 0.199
84.6989 -0.057
84.7292 -0.208
84.7595 0.370
84.7897 0.062
84.8200 0.016
84.8503 0.022
84.8806 -0.180
84.9109 -0.180
84.9411 -0.080
84.9714 -0.031
85.0017 0.174
85.0320 -0.246
85.0623 -0.040
85.0925 0.218
85.1228 -0.096
85.1531 0.371
85.1834 0.474
85.2136 -0.152
85.2439 0.108
85.2742 -0.101
85.3045 0.212
85.3348 -0.101
85.3650 0.160
85.3953 0.318
85.4256 0.006
85.4559 0.164
85.4862 0.270
85.5164 0.220
85.5467 0.171
85.5770 0.122
85.6073 0.125
85.6375 -0.028
85.6678 -0.233
85.6981 0.076
85.7284 0.385
85.7587 0.277
85.7889 -0.091
85.8192 -0.093
85.8495 0.060
85.8798 -0.046
85.9101 0.004
85.9403 0.055
85.9706 0.314
86.0009 0.261
86.0312 -0.313
86.0614 0.052
86.0917 -0.105
86.1220 0.156
86.1523 0.209
86.1826 -0.051
86.2128 0.420
86.2431 0.004
86.2734 0.059
86.3037 0.113
86.3340 0.063
86.3642 -0.142
86.3945 -0.087
86.4248 0.542
86.4551 0.493
86.4853 0.185
86.5156 0.137
86.5459 0.090
86.5762 -0.061
86.6065 -0.004
86.6367 -0.050
86.6670 -0.044
86.6973 0.067
86.7276 0.438
86.7579 -0.128
86.7881 -0.173
86.8184 -0.022
86.8487 0.130
86.8790 0.021
86.9092 0.121
86.9395 0.221
86.9698 0.634
87.0001 0.162
87.0304 -0.049
87.0606 0.209
87.0909 0.103
87.1212 -0.316
87.1515 0.203
87.1818 -0.007
87.2120 -0.060
87.2423 0.148
87.2726 0.304
87.3029 0.408
87.3331 0.304
87.3634 0.148
87.3937 0.149
87.4240 0.359
87.4543 0.308
87.4845 -0.055
87.5148 0.104
87.5451 0.210
87.5754 -0.204
87.6057 -0.044
87.6359 0.167
87.6662 0.484
87.6965 0.123
87.7268 0.180
87.7571 -0.180
87.7873 -0.141
87.8176 0.002
87.8479 0.667
87.8782 0.238
87.9084 -0.139
87.9387 0.058
87.9690 -0.005
87.9993 -0.068
88.0296 -0.026
88.0598 -0.245
88.0901 0.422
88.1204 0.256
88.1507 -0.326
88.1810 0.134
88.2112 0.386
88.2415 0.117
88.2718 -0.100
88.3021 0.361
88.3323 0.406
88.3626 0.243
88.3929 -0.285
88.4232 -0.193
88.4535 0.211
88.4837 0.564
88.5140 -0.229
88.5443 0.072
88.5746 -0.252
88.6049 0.154
88.6351 0.040
88.6654 -0.023
88.6957 0.384
88.7260 0.271
88.7562 -0.207
88.7865 0.096
88.8168 0.088
88.8471 0.028
88.8774 0.228
88.9076 -0.196
88.9379 -0.047
88.9682 0.363
88.9985 0.043
89.0288 0.246
89.0590 0.031
89.0893 0.026
89.1196 0.333
89.1499 0.484
89.1801 0.635
89.2104 0.579
89.2407 1.096
89.2710 0.779
89.3013 0.724
89.3315 0.981
89.3618 0.822
89.3921 1.340
89.4224 0.401
89.4527 1.128
89.4829 1.856
89.5132 1.490
89.5435 1.124
89.5738 1.019
89.6040 0.394
89.6343 0.915
89.6646 1.020
89.6949 0.499
89.7252 1.229
89.7554 0.814
89.7857 0.555
89.8160 0.609
89.8463 1.080
89.8766 0.614
89.9068 0.148
89.9371 0.412
89.9674 0.467
89.9977 0.888
90.0279 0.475
90.0582 0.480
90.0885 0.172
90.1188 0.438
90.1491 -0.182
90.1793 0.084
90.2096 -0.379
90.2399 0.201
90.2702 -0.209
90.3005 -0.202
90.3307 0.847
90.3610 -0.135
90.3913 0.237
90.4216 -0.119
90.4518 -0.215
90.4821 -0.003
90.5124 0.002
90.5427 -0.202
90.5730 0.167
90.6032 -0.140
90.6335 0.022
90.6638 -0.077
90.6941 0.138
90.7244 -0.064
90.7546 0.359
90.7849 -0.206
90.8152 -0.043
90.8455 0.225
90.8758 0.181
90.9060 0.190
90.9363 0.198
90.9666 0.155
90.9969 0.216
91.0271 -0.295
91.0574 0.080
91.0877 0.298
91.1180 -0.212
91.1483 -0.097
91.1785 -0.034
91.2088 -0.283
91.2391 0.146
91.2694 -0.467
91.2997 -0.108
91.3299 0.303
91.3602 0.089
91.3905 -0.124
91.4208 -0.024
91.4510 0.284
91.4813 0.280
91.5116 0.433
91.5419 0.169
91.5722 0.322
91.6024 0.163
91.6327 0.317
91.6630 0.367
91.6933 0.418
91.7236 0.052
91.7538 0.207
91.7841 0.362
91.8144 -0.003
91.8447 0.206
91.8749 0.154
91.9052 -0.367
91.9355 0.051
91.9658 -0.104
91.9961 0.001
92.0263 0.420
92.0566 0.318
92.0869 0.112
92.1172 0.167
92.1475 -0.195
92.1777 -0.149
92.2080 0.158
92.2383 0.204
92.2686 0.251
92.2988 0.142
92.3291 -0.019
92.3594 0.342
92.3897 0.963
92.4200 0.230
92.4502 0.071
92.4805 0.328
92.5108 0.482
92.5411 0.271
92.5714 0.425
92.6016 0.059
92.6319 0.474
92.6622 0.369
92.6925 0.316
92.7227 0.680
92.7530 0.264
92.7833 0.733
92.8136 0.212
92.8439 0.474
92.8741 0.058
92.9044 0.372
92.9347 0.322
92.9650 0.220
92.9953 0.274
93.0255 0.277
93.0558 0.332
93.0861 0.231
93.1164 0.079
93.1466 0.291
93.1769 -0.173
93.2072 0.248
93.2375 0.409
93.2678 0.154
93.2980 0.368
93.3283 0.530
93.3586 -0.037
93.3889 0.543
93.4192 0.394
93.4494 0.297
93.4797 0.044
93.5100 0.260
93.5403 0.372
93.5706 -0.140
93.6008 0.545
93.6311 0.086
93.6614 0.251
93.6917 0.209
93.7219 0.479
93.7522 0.229
93.7825 0.136
93.8128 0.251
93.8431 -0.259
93.8733 -0.222
93.9036 0.336
93.9339 0.270
93.9642 0.308
93.9945 0.346
94.0247 0.280
94.0550 -0.150
94.0853 0.098
94.1156 0.241
94.1458 0.125
94.1761 0.113
94.2064 -0.055
94.2367 0.246
94.2670 0.287
94.2972 0.120
94.3275 -0.047
94.3578 0.100
94.3881 0.350
94.4184 0.028
94.4486 0.540
94.4789 0.219
94.5092 0.210
94.5395 0.306
94.5697 0.194
94.6000 0.447
94.6303 0.075
94.6606 0.485
94.6909 0.270
94.7211 0.263
94.7514 0.414
94.7817 1.137
94.8120 0.142
94.8423 0.450
94.8725 0.393
94.9028 0.440
94.9331 0.905
94.9634 0.380
94.9936 0.533
95.0239 1.051
95.0542 0.267
95.0845 1.046
95.1148 0.887
95.1450 1.562
95.1753 1.561
95.2056 1.351
95.2359 0.986
95.2662 1.558
95.2964 1.245
95.3267 1.297
95.3570 1.402
95.3873 1.038
95.4175 1.091
95.4478 0.623
95.4781 0.677
95.5084 0.887
95.5387 1.150
95.5689 0.632
95.5992 1.208
95.6295 0.742
95.6598 0.798
95.6901 0.541
95.7203 0.337
95.7506 0.602
95.7809 0.138
95.8112 0.143
95.8414 0.409
95.8717 0.414
95.9020 0.316
95.9323 -0.355
95.9626 0.485
95.9928 0.388
96.0231 0.656
96.0534 -0.066
96.0837 0.203
96.1140 0.055
96.1442 -0.145
96.1745 -0.240
96.2048 0.602
96.2351 -0.118
96.2653 0.049
96.2956 -0.202
96.3259 -0.140
96.3562 0.130
96.3865 0.140
96.4167 0.099
96.4470 0.787
96.4773 0.121
96.5076 -0.233
96.5379 -0.083
96.5681 0.223
96.5984 0.112
96.6287 -0.050
96.6590 -0.056
96.6893 -0.165
96.7195 0.142
96.7498 -0.123
96.7801 -0.023
96.8104 0.129
96.8406 0.230
96.8709 0.226
96.9012 -0.089
96.9315 -0.248
96.9618 0.218
96.9920 0.424
97.0223 -0.046
97.0526 0.056
97.0829 0.003
97.1132 -0.258
97.1434 0.522
97.1737 0.262
97.2040 -0.051
97.2343 0.002
97.2645 0.263
97.2948 -0.153
97.3251 0.213
97.3554 0.371
97.3857 0.165
97.4159 -0.093
97.4462 -0.039
97.4765 -0.036
97.5068 0.176
97.5371 -0.185
97.5673 -0.181
97.5976 0.291
97.6279 -0.017
97.6582 0.092
97.6884 0.358
97.7187 -0.262
97.7490 0.317
97.7793 0.427
97.8096 0.538
97.8398 -0.445
97.8701 0.448
97.9004 0.142
97.9307 -0.110
97.9610 -0.207
97.9912 0.148
98.0215 0.347
98.0518 0.233
98.0821 0.588
98.1123 0.007
98.1426 0.571
98.1729 0.511
98.2032 0.868
98.2335 0.287
98.2637 0.749
98.2940 0.273
98.3243 0.267
98.3546 0.052
98.3849 1.036
98.4151 0.509
98.4454 -0.277
98.4757 0.707
98.5060 0.390
98.5362 0.698
98.5665 0.642
98.5968 0.690
98.6271 1.051
98.6574 0.371
98.6876 0.525
98.7179 0.835
98.7482 0.833
98.7785 0.414
98.8088 0.517
98.8390 0.359
98.8693 0.619
98.8996 0.775
98.9299 0.253
98.9601 0.358
98.9904 0.098
99.0207 0.359
99.0510 0.151
99.0813 0.205
99.1115 -0.002
99.1418 0.261
99.1721 0.211
99.2024 0.005
99.2327 0.060
99.2629 -0.093
99.2932 0.327
99.3235 0.123
99.3538 0.127
99.3841 0.288
99.4143 -0.280
99.4446 0.193
99.4749 0.043
99.5052 0.309
99.5354 -0.206
99.5657 -0.147
99.5960 0.016
99.6263 0.283
99.6566 -0.074
99.6868 0.194
99.7171 0.046
99.7474 -0.207
99.7777 0.009
99.8080 -0.087
99.8382 0.129
99.8685 0.086
99.8988 -0.166
99.9291 0.051
99.9593 0.217
99.9896 -0.086
100.0199 0.288
100.0502 -0.066
100.0805 0.049
100.1107 -0.044
100.1410 0.123
100.1713 -0.230
100.2016 0.511
100.2319 0.003
100.2621 0.015
100.2924 -0.180
100.3227 0.018
100.3530 0.060
100.3832 0.154
100.4135 -0.116
100.4438 0.135
100.4741 -0.030
100.5044 0.170
100.5346 0.527
100.5649 0.258
100.5952 0.303
100.6255 -0.121
100.6558 0.028
100.6860 0.074
100.7163 0.068
100.7466 -0.043
100.7769 0.056
100.8071 -0.001
100.8374 -0.111
100.8677 -0.324
100.8980 0.349
100.9283 -0.280
100.9585 0.081
100.9888 0.286
101.0191 0.178
101.0494 0.228
101.0797 -0.244
101.1099 0.327
101.1402 0.013
101.1705 0.116
101.2008 0.166
101.2310 -0.095
101.2613 0.269
101.2916 0.008
101.3219 -0.148
101.3522 0.373
101.3824 -0.199
101.4127 0.427
101.4430 -0.144
101.4733 -0.195
101.5036 0.007
101.5338 -0.051
101.5641 0.256
101.5944 0.043
101.6247 0.090
101.6549 -0.280
101.6852 0.393
101.7155 0.181
101.7458 0.073
101.7761 0.018
101.8063 0.171
101.8366 -0.040
101.8669 0.374
101.8972 0.320
101.9275 0.370
101.9577 0.056
101.9880 0.524
102.0183 -0.206
102.0486 0.210
102.0788 -0.103
102.1091 0.001
102.1394 -0.154
102.1697 -0.050
102.2000 0.004
102.2302 0.005
102.2605 -0.202
102.2908 -0.217
102.3211 0.341
102.3514 -0.246
102.3816 0.573
102.4119 0.299
102.4422 0.286
102.4725 0.273
102.5028 0.156
102.5330 0.247
102.5633 -0.130
102.5936 0.379
102.6239 0.264
102.6541 0.096
102.6844 0.450
102.7147 0.231
102.7450 1.106
102.7753 0.679
102.8055 0.566
102.8358 -0.433
102.8661 0.235
102.8964 0.070
102.9267 0.218
102.9569 0.470
102.9872 -0.111
103.0175 0.455
103.0478 0.552
103.0780 -0.288
103.1083 0.486
103.1386 -0.353
103.1689 0.578
103.1992 0.312
103.2294 -0.474
103.2597 -0.166
103.2900 -0.015
103.3203 0.137
103.3506 0.029
103.3808 0.130
103.4111 -0.030
103.4414 0.227
103.4717 0.173
103.5019 -0.090
103.5322 0.429
103.5625 0.479
103.5928 0.113
103.6231 0.580
103.6533 0.319
103.6836 0.423
103.7139 0.371
103.7442 0.215
103.7745 0.059
103.8047 0.424
103.8350 0.061
103.8653 0.270
103.8956 0.845
103.9258 0.743
103.9561 0.068
103.9864 0.071
104.0167 0.230
104.0470 0.181
104.0772 0.914
104.1075 0.345
104.1378 0.922
104.1681 0.666
104.1984 0.984
104.2286 0.572
104.2589 0.578
104.2892 0.688
104.3195 0.746
104.3497 1.013
104.3800 0.551
104.4103 0.402
104.4406 0.878
104.4709 0.730
104.5011 0.477
104.5314 0.329
104.5617 0.442
104.5920 0.191
104.6223 -0.164
104.6525 -0.415
104.6828 0.214
104.7131 0.219
104.7434 0.016
104.7736 0.490
104.8039 0.184
104.8342 -0.070
104.8645 0.353
104.8948 -0.318
104.9250 0.106
104.9553 -0.095
104.9856 0.434
105.0159 0.077
105.0462 0.086
105.0764 -0.374
105.1067 0.155
105.1370 -0.356
105.1673 0.331
105.1975 0.184
105.2278 -0.170
105.2581 -0.055
105.2884 0.268
105.3187 0.436
105.3489 0.083
105.3792 -0.010
105.4095 0.055
105.4398 -0.193
105.4701 -0.233
105.5003 0.234
105.5306 0.441
105.5609 0.023
105.5912 -0.082
105.6215 0.386
105.6517 0.386
105.6820 0.386
105.7123 0.021
105.7426 -0.134
105.7728 0.231
105.8031 -0.289
105.8334 0.182
105.8637 -0.025
105.8940 -0.022
105.9242 0.136
105.9545 -0.069
105.9848 0.038
106.0151 0.094
106.0454 -0.007
106.0756 -0.107
106.1059 -0.311
106.1362 0.149
106.1665 -0.068
106.1967 0.237
106.2270 -0.084
106.2573 -0.039
106.2876 0.162
106.3179 -0.105
106.3481 -0.007
106.3784 0.091
106.4087 0.033
106.4390 -0.338
106.4693 0.334
106.4995 0.277
106.5298 -0.300
106.5601 -0.149
106.5904 0.004
106.6206 -0.208
106.6509 -0.162
106.6812 -0.167
106.7115 -0.172
106.7418 -0.177
106.7720 0.079
106.8023 -0.290
106.8326 0.019
106.8629 -0.036
106.8932 0.117
106.9234 0.374
106.9537 -0.201
106.9840 0.109
107.0143 -0.153
107.0445 0.054
107.0748 0.469
107.1051 -0.105
107.1354 -0.105
107.1657 0.207
107.1959 0.207
107.2262 0.312
107.2565 0.000
107.2868 0.053
107.3171 0.054
107.3473 -0.048
107.3776 0.318
107.4079 0.320
107.4382 0.115
107.4684 0.013
107.4987 -0.192
107.5290 -0.032
107.5593 -0.132
107.5896 0.289
107.6198 -0.228
107.6501 0.142
107.6804 0.199
107.7107 0.048
107.7410 -0.259
107.7712 0.001
107.8015 0.417
107.8318 0.000
107.8621 -0.104
107.8923 -0.208
107.9226 -0.207
107.9529 -0.206
107.9832 0.160
108.0135 -0.307
108.0437 0.372
108.0740 -0.094
108.1043 -0.195
108.1346 -0.140
108.1649 0.540
108.1951 -0.237
108.2254 -0.025
108.2557 0.084
108.2860 0.505
108.3163 -0.115
108.3465 -0.318
108.3768 0.261
108.4071 -0.046
108.4374 0.273
108.4676 0.071
108.4979 -0.078
108.5282 0.033
108.5585 0.458
108.5888 -0.107
108.6190 0.161
108.6493 -0.195
108.6796 -0.143
108.7099 -0.092
108.7402 0.013
108.7704 0.117
108.8007 -0.195
108.8310 -0.195
108.8613 0.109
108.8915 0.048
108.9218 0.196
108.9521 -0.020
108.9824 0.441
109.0127 0.173
109.0429 0.375
109.0732 0.055
109.1035 0.101
109.1338 0.095
109.1641 0.454
109.1943 -0.072
109.2246 0.027
109.2549 0.178
109.2852 0.018
109.3154 -0.143
109.3457 0.426
109.3760 -0.098
109.4063 -0.101
109.4366 -0.208
109.4668 -0.106
109.4971 0.153
109.5274 0.516
109.5577 -0.214
109.5880 -0.006
109.6182 0.254
109.6485 -0.111
109.6788 0.462
109.7091 0.463
109.7393 0.047
109.7696 -0.212
109.7999 0.154
109.8302 -0.208
109.8605 -0.163
109.8907 -0.117
109.9210 0.241
109.9513 0.496
109.9816 0.438
110.0119 0.016
110.0421 0.063
110.0724 0.424
110.1027 0.419
110.1330 -0.210
110.1632 0.151
110.1935 0.304
110.2238 0.145
110.2541 0.038
110.2844 -0.068
110.3146 0.346
110.3449 0.449
110.3752 0.395
110.4055 0.499
110.4358 0.081
110.4660 0.133
110.4963 -0.180
110.5266 0.706
110.5569 0.186
110.5871 0.030
110.6174 0.240
110.6477 -0.176
110.6780 0.087
110.7083 0.037
110.7385 0.612
110.7688 0.458
110.7991 0.097
110.8294 0.204
110.8597 0.000
110.8899 -0.048
110.9202 -0.513
110.9505 0.169
110.9808 0.122
111.0110 -0.029
111.0413 0.393
111.0716 0.034
111.1019 -0.064
111.1322 0.568
111.1624 0.002
111.1927 -0.043
111.2230 -0.088
111.2533 -0.132
111.2836 0.605
111.3138 -0.011
111.3441 0.050
111.3744 -0.202
111.4047 -0.049
111.4350 -0.001
111.4652 0.308
111.4955 -0.111
111.5258 -0.010
111.5561 0.196
111.5863 -0.014
111.6166 -0.016
111.6469 0.347
111.6772 0.138
111.7075 -0.175
111.7377 0.241
111.7680 0.032
111.7983 0.241
111.8286 -0.019
111.8589 -0.018
111.8891 -0.121
111.9194 0.349
111.9497 0.142
111.9800 0.353
112.0102 0.043
112.0405 0.097
112.0708 0.257
112.1011 0.000
112.1314 -0.413
112.1616 0.112
112.1919 -0.197
112.2222 0.277
112.2525 -0.031
112.2828 -0.026
112.3130 0.084
112.3433 0.455
112.3736 0.096
112.4039 0.207
112.4341 -0.047
112.4644 0.325
112.4947 -0.032
112.5250 -0.285
112.5553 0.087
112.5855 0.147
112.6158 0.311
112.6461 0.059
112.6764 0.068
112.7067 0.233
112.7369 -0.070
112.7672 0.148
112.7975 -0.206
112.8278 -0.111
112.8580 0.297
112.8883 0.288
112.9186 0.280
112.9489 0.273
112.9792 0.161
113.0094 0.154
113.0397 -0.009
113.0700 0.297
113.1003 -0.022
113.1306 0.129
113.1608 -0.137
113.1911 0.066
113.2214 -0.251
113.2517 0.005
113.2819 -0.416
113.3122 0.101
113.3425 -0.163
113.3728 -0.010
113.4031 0.247
113.4333 0.036
113.4636 0.346
113.4939 0.084
113.5242 0.030
113.5545 -0.128
113.5847 0.340
113.6150 0.131
113.6453 0.287
113.6756 -0.390
113.7058 0.339
113.7361 -0.077
113.7664 -0.337
113.7967 0.128
113.8270 0.334
113.8572 0.227
113.8875 -0.036
113.9178 -0.039
113.9481 0.116
113.9784 -0.146
114.0086 -0.148
114.0389 0.112
114.0692 -0.149
114.0995 -0.202
114.1298 0.152
114.1600 -0.066
114.1903 -0.076
114.2206 0.123
114.2509 0.062
114.2811 0.001
114.3114 0.097
114.3417 0.141
114.3720 0.081
114.4023 0.385
114.4325 -0.143
114.4628 0.059
114.4931 0.417
114.5234 -0.006
114.5537 0.040
114.5839 -0.278
114.6142 0.289
114.6445 -0.132
114.6748 -0.189
114.7050 -0.037
114.7353 0.115
114.7656 0.007
114.7959 -0.049
114.8262 -0.104
114.8564 0.310
114.8867 -0.370
114.9170 0.045
114.9473 0.147
114.9776 -0.011
115.0078 -0.220
115.0381 0.143
115.0684 -0.013
115.0987 -0.014
115.1289 0.716
115.1592 -0.117
115.1895 -0.221
115.2198 -0.221
115.2501 0.238
115.2803 -0.032
115.3106 0.220
115.3409 0.055
115.3712 0.307
115.4015 -0.118
115.4317 0.760
115.4620 0.232
115.4923 0.329
115.5226 -0.511
115.5528 0.472
115.5831 0.101
115.6134 0.096
115.6437 0.038
115.6740 0.450
115.7042 0.549
115.7345 0.232
115.7648 0.332
115.7951 0.588
115.8254 0.168
115.8556 0.634
115.8859 0.891
115.9162 0.628
115.9465 0.469
115.9767 0.519
116.0070 1.611
116.0373 0.829
116.0676 0.151
116.0979 1.348
116.1281 0.879
116.1584 0.670
116.1887 0.566
116.2190 0.411
116.2493 1.193
116.2795 0.621
116.3098 0.622
116.3401 0.624
116.3704 0.522
116.4006 0.993
116.4309 0.632
116.4612 0.843
116.4915 0.221
116.5218 1.267
116.5520 1.271
116.5823 1.015
116.6126 0.550
116.6429 0.608
116.6732 0.561
116.7034 0.254
116.7337 0.468
116.7640 0.683
116.7943 0.689
116.8245 -0.033
116.8548 0.443
116.8851 0.242
116.9154 0.093
116.9457 0.154
116.9759 0.735
117.0062 0.327
117.0365 -0.028
117.0668 0.241
117.0971 0.459
117.1273 0.001
117.1576 0.532
117.1879 0.074
117.2182 0.658
117.2485 0.409
117.2787 0.108
117.3090 0.120
117.3393 0.132
117.3696 0.405
117.3998 0.209
117.4301 0.118
117.4604 -0.285
117.4907 -0.079
117.5210 0.178
117.5512 -0.032
117.5815 0.278
117.6118 0.693
117.6421 0.223
117.6724 0.014
117.7026 0.222
117.7329 0.013
117.7632 0.013
117.7935 -0.299
117.8237 0.222
117.8540 0.379
117.8843 0.537
117.9146 -0.139
117.9449 -0.137
117.9751 0.386
118.0054 -0.185
118.0357 -0.078
118.0660 0.082
118.0963 0.085
118.1265 0.193
118.1568 0.301
118.1871 -0.215
118.2174 0.154
118.2476 0.003
118.2779 0.060
118.3082 -0.195
118.3385 0.280
118.3688 0.234
118.3990 -0.072
118.4293 0.456
118.4596 -0.110
118.4899 -0.206
118.5202 0.218
118.5504 0.174
118.5807 0.287
118.6110 -0.173
118.6413 0.201
118.6715 -0.207
118.7018 -0.152
118.7321 0.371
118.7624 0.061
118.7927 0.169
118.8229 -0.141
118.8532 0.176
118.8835 0.180
118.9138 -0.285
118.9441 -0.141
118.9743 0.108
119.0046 -0.060
119.0349 -0.124
119.0652 0.282
119.0954 0.115
119.1257 0.104
119.1560 -0.270
119.1863 0.293
119.2166 0.127
119.2468 0.326
119.2771 0.005
119.3074 0.257
119.3377 0.040
119.3680 -0.124
119.3982 0.077
119.4285 0.330
119.4588 -0.406
119.4891 -0.048
119.5193 -0.367
119.5496 0.148
119.5799 0.038
119.6102 0.085
119.6405 -0.389
119.6707 -0.050
119.7010 -0.024
119.7313 -0.309
119.7616 0.135
119.7919 -0.098
119.8221 -0.174
119.8524 0.114
119.8827 -0.014
119.9130 0.328
119.9433 -0.008
119.9735 -0.239
120.0038 0.000
