'Id: "" Comment: "" Operator: "Lab Manager" Anode: "Cu" Scantype: "Locked Coupled" TimePerStep: "19.2" X: "9999" Y: "9999" Z: "9999" 
10.0015 0.000
10.0318 -1.276
10.0620 -0.013
10.0923 -0.729
10.1226 -0.017
10.1529 0.070
10.1832 -1.250
10.2134 -0.065
10.2437 -0.183
10.2740 0.376
10.3043 -0.106
10.3346 0.871
10.3648 -0.496
10.3951 -0.248
10.4254 -1.249
10.4557 0.214
10.4859 0.115
10.5162 -0.192
10.5465 1.012
10.5768 -0.075
10.6071 0.869
10.6373 -0.583
10.6676 0.830
10.6979 -1.090
10.7282 0.428
10.7585 1.061
10.7887 0.184
10.8190 1.025
10.8493 0.409
10.8796 -0.364
10.9098 -0.563
10.9401 0.250
10.9704 -0.656
11.0007 0.262
11.0310 0.763
11.0612 0.952
11.0915 1.349
11.1218 1.122
11.1521 0.843
11.1824 2.283
11.2126 1.588
11.2429 0.945
11.2732 1.448
11.3035 1.899
11.3337 1.830
11.3640 2.543
11.3943 2.786
11.4246 3.968
11.4549 6.348
11.4851 5.134
11.5154 4.545
11.5457 8.072
11.5760 7.640
11.6063 9.188
11.6365 12.090
11.6668 13.325
11.6971 18.416
11.7274 21.371
11.7577 21.201
11.7879 24.989
11.8182 30.549
11.8485 29.182
11.8788 31.201
11.9090 27.699
11.9393 24.406
11.9696 19.550
11.9999 15.476
12.0302 13.538
12.0604 12.642
12.0907 8.933
12.1210 6.891
12.1513 7.975
12.1816 7.235
12.2118 7.434
12.2421 5.497
12.2724 5.124
12.3027 4.802
12.3329 2.554
12.3632 2.389
12.3935 1.391
12.4238 0.914
12.4541 1.323
12.4843 0.118
12.5146 0.423
12.5449 0.677
12.5752 0.201
12.6055 1.289
12.6357 0.189
12.6660 0.495
12.6963 -0.500
12.7266 0.901
12.7568 0.375
12.7871 -0.412
12.8174 0.990
12.8477 -0.056
12.8780 0.096
12.9082 0.925
12.9385 -0.068
12.9688 0.241
12.9991 -0.283
13.0294 -0.442
13.0596 0.302
13.0899 0.629
13.1202 0.123
13.1505 0.710
13.1807 0.361
13.2110 0.533
13.2413 1.018
13.2716 0.148
13.3019 0.894
13.3321 0.598
13.3624 0.042
13.3927 -0.410
13.4230 -0.098
13.4533 0.423
13.4835 0.267
13.5138 -0.410
13.5441 -0.410
13.5744 0.214
13.6046 0.838
13.6349 -0.309
13.6652 -0.205
13.6955 -0.778
13.7258 0.784
13.7560 0.211
13.7863 0.108
13.8166 0.056
13.8469 0.109
13.8772 -0.410
13.9074 -0.259
13.9377 -0.576
13.9680 0.565
13.9983 0.301
14.0285 0.245
14.0588 0.657
14.0891 -0.804
14.1194 0.495
14.1497 -0.238
14.1799 0.749
14.2102 0.903
14.2405 0.172
14.2708 0.482
14.3011 0.637
14.3313 -0.354
14.3616 -0.668
14.3919 0.998
14.4222 0.424
14.4524 0.215
14.4827 0.267
14.5130 0.163
14.5433 0.216
14.5736 0.477
14.6038 0.634
14.6341 0.426
14.6644 0.115
14.6947 1.054
14.7250 0.483
14.7552 0.069
14.7855 -0.450
14.8158 0.595
14.8461 0.962
14.8764 0.757
14.9066 0.760
14.9369 0.503
14.9672 0.768
14.9975 0.095
15.0277 0.151
15.0580 0.260
15.0883 1.202
15.1186 0.426
15.1489 0.484
15.1791 -0.344
15.2094 0.652
15.2397 0.762
15.2700 1.133
15.3003 0.671
15.3305 0.313
15.3608 0.268
15.3911 0.640
15.4214 0.335
15.4516 0.031
15.4819 -0.065
15.5122 -0.005
15.5425 0.473
15.5728 0.378
15.6030 -0.238
15.6333 1.282
15.6636 0.562
15.6939 -0.417
15.7242 0.791
15.7544 0.541
15.7847 -0.334
15.8150 0.042
15.8453 -0.416
15.8755 -0.005
15.9058 0.197
15.9361 0.973
15.9664 1.592
15.9967 -0.392
16.0269 -0.189
16.0572 0.379
16.0875 0.583
16.1178 0.371
16.1481 0.523
16.1783 -0.158
16.2086 0.203
16.2389 0.096
16.2692 0.041
16.2994 0.351
16.3297 0.088
16.3600 0.502
16.3903 -0.750
16.4206 0.030
16.4508 0.081
16.4811 -0.181
16.5114 0.131
16.5417 -0.078
16.5720 0.807
16.6022 0.494
16.6325 -0.131
16.6628 0.442
16.6931 -0.755
16.7233 0.340
16.7536 0.601
16.7839 0.707
16.8142 0.136
16.8445 -0.019
16.8747 1.494
16.9050 0.559
16.9353 0.718
16.9656 0.252
16.9959 0.932
17.0261 1.248
17.0564 2.293
17.0867 1.880
17.1170 1.155
17.1472 2.097
17.1775 1.685
17.2078 1.899
17.2381 0.706
17.2684 0.868
17.2986 -0.012
17.3289 -0.163
17.3592 0.104
17.3895 0.996
17.4198 -0.664
17.4500 -0.397
17.4803 -0.241
17.5106 0.227
17.5409 -0.399
17.5712 0.851
17.6014 -0.816
17.6317 0.747
17.6620 -0.294
17.6923 -0.241
17.7225 0.333
17.7528 -0.656
17.7831 -0.029
17.8134 -0.496
17.8437 0.339
17.8739 -0.700
17.9042 0.344
17.9345 0.451
17.9648 -0.275
17.9951 -0.219
18.0253 0.982
18.0556 0.361
18.0859 0.052
18.1162 -0.152
18.1464 0.374
18.1767 0.483
18.2070 -0.606
18.2373 0.597
18.2676 -0.855
18.2978 0.609
18.3281 0.511
18.3584 -0.316
18.3887 -0.362
18.4190 0.010
18.4492 0.434
18.4795 0.441
18.5098 -0.228
18.5401 0.717
18.5703 -0.369
18.6006 0.786
18.6309 -0.039
18.6612 0.334
18.6915 0.239
18.7217 -0.689
18.7520 0.779
18.7823 -0.044
18.8126 0.591
18.8429 0.237
18.8731 0.560
18.9034 -0.315
18.9337 0.165
18.9640 0.958
18.9942 0.866
19.0245 -0.425
19.0548 0.786
19.0851 0.329
19.1154 -0.700
19.1456 -0.166
19.1759 0.941
19.2062 -0.243
19.2365 0.031
19.2668 -0.372
19.2970 -0.058
19.3273 0.257
19.3576 -0.834
19.3879 0.366
19.4181 0.057
19.4484 0.893
19.4787 0.272
19.5090 -0.454
19.5393 -0.085
19.5695 0.023
19.5998 0.028
19.6301 0.397
19.6604 0.506
19.6907 0.095
19.7209 -0.421
19.7512 0.418
19.7815 -0.513
19.8118 0.639
19.8420 -0.553
19.8723 -0.494
19.9026 0.600
19.9329 0.027
19.9632 -0.285
19.9934 0.028
20.0237 -0.387
20.0540 0.395
20.0843 -0.905
20.1146 -0.331
20.1448 -0.173
20.1751 0.090
20.2054 -0.585
20.2357 0.356
20.2659 0.098
20.2962 -0.003
20.3265 -0.416
20.3568 0.055
20.3871 0.370
20.4173 0.685
20.4476 -0.354
20.4779 0.430
20.5082 -0.035
20.5385 0.594
20.5687 -0.080
20.5990 -0.232
20.6293 0.137
20.6596 0.090
20.6899 -0.166
20.7201 0.048
20.7504 -0.780
20.7807 -0.002
20.8110 -0.057
20.8412 -0.424
20.8715 0.772
20.9018 0.040
20.9321 -0.118
20.9624 0.245
20.9926 -0.016
21.0229 0.868
21.0532 0.451
21.0835 0.190
21.1138 1.023
21.1440 1.127
21.1743 1.648
21.2046 4.045
21.2349 2.275
21.2651 5.348
21.2954 4.829
21.3257 4.101
21.3560 3.061
21.3863 2.907
21.4165 2.753
21.4468 2.131
21.4771 0.623
21.5074 0.939
21.5377 0.994
21.5679 0.529
21.5982 0.689
21.6285 0.537
21.6588 0.645
21.6890 0.025
21.7193 0.082
21.7496 1.076
21.7799 0.353
21.8102 -0.267
21.8404 1.041
21.8707 0.058
21.9010 0.533
21.9313 0.227
21.9616 1.171
21.9918 -0.020
22.0221 0.092
22.0524 0.360
22.0827 -0.257
22.1129 -0.353
22.1432 -0.253
22.1735 0.003
22.2038 0.312
22.2341 0.100
22.2643 0.044
22.2946 0.562
22.3249 0.507
22.3552 0.401
22.3855 0.190
22.4157 0.136
22.4460 0.551
22.4763 0.393
22.5066 -0.390
22.5368 -0.353
22.5671 0.935
22.5974 0.399
22.6277 0.125
22.6580 -0.670
22.6882 0.305
22.7185 0.396
22.7488 0.122
22.7791 -0.099
22.8094 0.045
22.8396 -0.384
22.8699 0.228
22.9002 0.060
22.9305 -0.368
22.9607 -0.237
22.9910 -0.209
23.0213 -0.546
23.0516 0.258
23.0819 0.229
23.1121 -0.060
23.1424 0.433
23.1727 0.613
23.2030 0.169
23.2333 -0.484
23.2635 0.583
23.2938 0.608
23.3241 0.633
23.3544 0.658
23.3846 -0.462
23.4149 -0.331
23.4452 1.518
23.4755 -0.539
23.5058 -0.095
23.5360 0.713
23.5663 0.636
23.5966 0.611
23.6269 1.160
23.6572 1.292
23.6874 0.331
23.7177 1.818
23.7480 1.899
23.7783 1.772
23.8086 3.312
23.8388 2.352
23.8691 2.590
23.8994 2.464
23.9297 3.848
23.9599 3.827
23.9902 3.285
24.0205 1.857
24.0508 2.253
24.0811 1.660
24.1113 1.588
24.1416 1.411
24.1719 1.131
24.2022 2.101
24.2325 2.291
24.2627 1.595
24.2930 1.940
24.3233 1.609
24.3536 2.945
24.3838 2.875
24.4141 5.045
24.4444 3.986
24.4747 4.490
24.5050 4.785
24.5352 4.456
24.5655 3.034
24.5958 2.653
24.6261 2.689
24.6564 2.101
24.6866 2.710
24.7169 1.497
24.7472 1.951
24.7775 1.936
24.8077 0.776
24.8380 -0.123
24.8683 0.488
24.8986 0.734
24.9289 1.450
24.9591 0.083
24.9894 -0.659
25.0197 0.995
25.0500 0.566
25.0803 0.606
25.1105 0.594
25.1408 0.270
25.1711 0.155
25.2014 -0.898
25.2316 0.289
25.2619 0.747
25.2922 1.831
25.3225 -0.055
25.3528 0.613
25.3830 0.707
25.4133 0.490
25.4436 0.585
25.4739 0.628
25.5042 -0.110
25.5344 -0.274
25.5647 -0.126
25.5950 -0.602
25.6253 0.223
25.6555 0.372
25.6858 -0.572
25.7161 -0.319
25.7464 0.038
25.7767 0.083
25.8069 -0.080
25.8372 0.174
25.8675 0.480
25.8978 0.474
25.9281 1.458
25.9583 -0.423
25.9886 0.509
26.0189 0.609
26.0492 -0.073
26.0794 0.391
26.1097 -0.290
26.1400 1.476
26.1703 1.681
26.2006 0.323
26.2308 0.424
26.2611 0.786
26.2914 1.200
26.3217 1.041
26.3520 0.674
26.3822 0.464
26.4125 1.087
26.4428 0.565
26.4731 1.136
26.5034 1.760
26.5336 -0.636
26.5639 1.134
26.5942 1.082
26.6245 1.707
26.6547 1.186
26.6850 1.968
26.7153 2.282
26.7456 3.324
26.7759 3.951
26.8061 4.421
26.8364 4.735
26.8667 5.414
26.8970 5.208
26.9273 7.919
26.9575 7.453
26.9878 8.498
27.0181 7.772
27.0484 5.640
27.0786 5.332
27.1089 6.273
27.1392 6.851
27.1695 3.105
27.1998 3.371
27.2300 2.282
27.2603 1.818
27.2906 2.189
27.3209 1.413
27.3512 1.055
27.3814 0.488
27.4117 2.526
27.4420 2.116
27.4723 1.707
27.5025 1.402
27.5328 1.618
27.5631 0.740
27.5934 0.332
27.6237 0.548
27.6539 1.547
27.6842 0.201
27.7145 1.044
27.7448 0.220
27.7751 0.021
27.8053 -0.177
27.8356 -0.688
27.8659 1.510
27.8962 -0.250
27.9264 0.751
27.9567 0.293
27.9870 0.513
28.0173 0.473
28.0476 0.953
28.0778 0.393
28.1081 -0.272
28.1384 0.939
28.1687 1.316
28.1990 0.236
28.2292 0.405
28.2595 -0.518
28.2898 0.121
28.3201 0.447
28.3503 0.618
28.3806 0.320
28.4109 0.335
28.4412 0.194
28.4715 -0.051
28.5017 0.486
28.5320 0.294
28.5623 0.154
28.5926 0.378
28.6229 0.343
28.6531 -0.838
28.6834 0.534
28.7137 -0.126
28.7440 -0.108
28.7742 0.535
28.8045 0.710
28.8348 0.780
28.8651 0.018
28.8954 -0.015
28.9256 0.473
28.9559 0.076
28.9862 1.293
29.0165 0.272
29.0468 -0.124
29.0770 -0.104
29.1073 0.490
29.1376 -0.531
29.1679 0.011
29.1981 0.189
29.2284 0.419
29.2587 -0.131
29.2890 0.047
29.3193 0.434
29.3495 0.197
29.3798 0.689
29.4101 -0.017
29.4404 -0.410
29.4707 -0.138
29.5009 0.031
29.5312 0.512
29.5615 0.004
29.5918 0.486
29.6221 0.291
29.6523 0.565
29.6826 0.423
29.7129 0.333
29.7432 -0.070
29.7734 0.309
29.8037 -0.249
29.8340 -0.598
29.8643 0.276
29.8946 0.577
29.9248 0.722
29.9551 -0.799
29.9854 0.805
30.0157 -0.195
30.0460 0.108
30.0762 0.202
30.1065 0.610
30.1368 0.392
30.1671 0.279
30.1973 -0.407
30.2276 -0.318
30.2579 0.345
30.2882 0.643
30.3185 0.264
30.3487 0.250
30.3790 -0.181
30.4093 0.066
30.4396 0.105
30.4699 -0.377
30.5001 0.652
30.5304 0.952
30.5607 0.575
30.5910 -0.322
30.6212 0.656
30.6515 0.332
30.6818 -0.409
30.7121 -0.420
30.7424 0.176
30.7726 1.189
30.8029 0.484
30.8332 0.092
30.8635 0.064
30.8938 0.974
30.9240 0.946
30.9543 0.607
30.9846 0.580
31.0149 1.595
31.0451 1.413
31.0754 0.866
31.1057 1.830
31.1360 0.711
31.1663 1.363
31.1965 1.702
31.2268 1.625
31.2571 3.268
31.2874 4.025
31.3177 2.803
31.3479 4.914
31.3782 4.162
31.4085 6.691
31.4388 7.814
31.4690 6.072
31.4993 11.466
31.5296 13.580
31.5599 13.870
31.5902 17.390
31.6204 18.254
31.6507 20.004
31.6810 18.785
31.7113 19.806
31.7416 17.494
31.7718 16.588
31.8021 13.548
31.8324 11.080
31.8627 10.644
31.8929 6.979
31.9232 5.762
31.9535 5.171
31.9838 5.256
32.0141 3.468
32.0443 2.981
32.0746 2.547
32.1049 4.092
32.1352 4.960
32.1655 3.433
32.1957 2.791
32.2260 3.556
32.2563 3.852
32.2866 3.993
32.3169 3.404
32.3471 2.920
32.3774 3.582
32.4077 1.588
32.4380 2.355
32.4682 3.851
32.4985 2.691
32.5288 2.573
32.5591 1.935
32.5894 3.171
32.6196 3.367
32.6499 5.020
32.6802 5.477
32.7105 7.391
32.7408 10.556
32.7710 15.388
32.8013 17.669
32.8316 18.699
32.8619 17.230
32.8921 14.979
32.9224 13.094
32.9527 9.750
32.9830 6.771
33.0133 5.980
33.0435 5.085
33.0738 4.555
33.1041 3.088
33.1344 1.777
33.1647 2.654
33.1949 2.542
33.2252 0.867
33.2555 1.068
33.2858 0.644
33.3160 0.532
33.3463 1.358
33.3766 1.352
33.4069 1.293
33.4372 0.766
33.4674 -0.177
33.4977 0.182
33.5280 -0.709
33.5583 1.056
33.5886 -0.407
33.6188 0.109
33.6491 -0.520
33.6794 -0.055
33.7097 1.712
33.7399 0.875
33.7702 1.236
33.8005 0.712
33.8308 0.553
33.8611 2.217
33.8913 0.861
33.9216 0.859
33.9519 1.587
33.9822 1.064
34.0125 1.948
34.0427 3.302
34.0730 1.999
34.1033 3.509
34.1336 3.769
34.1638 6.582
34.1941 7.832
34.2244 8.978
34.2547 14.552
34.2850 16.324
34.3152 19.763
34.3455 21.066
34.3758 17.631
34.4061 16.331
34.4364 13.260
34.4666 10.867
34.4969 8.005
34.5272 7.175
34.5575 6.293
34.5877 5.515
34.6180 7.081
34.6483 4.065
34.6786 5.996
34.7089 5.324
34.7391 7.047
34.7694 6.740
34.7997 6.589
34.8300 6.907
34.8603 6.809
34.8905 10.565
34.9208 10.311
34.9511 11.515
34.9814 16.210
35.0116 15.227
35.0419 16.641
35.0722 16.701
35.1025 16.396
35.1328 13.540
35.1630 12.975
35.1933 8.921
35.2236 8.722
35.2539 6.439
35.2842 5.980
35.3144 5.209
35.3447 4.958
35.3750 2.833
35.4053 3.000
35.4356 2.437
35.4658 3.282
35.4961 2.147
35.5264 2.627
35.5567 3.628
35.5869 3.015
35.6172 3.340
35.6475 5.123
35.6778 4.147
35.7081 3.326
35.7383 5.162
35.7686 5.228
35.7989 4.825
35.8292 5.151
35.8595 9.072
35.8897 8.566
35.9200 8.893
35.9503 12.085
35.9806 13.454
36.0108 17.116
36.0411 19.059
36.0714 22.408
36.1017 24.247
36.1320 25.097
36.1622 28.343
36.1925 26.485
36.2228 26.450
36.2531 23.603
36.2834 20.444
36.3136 20.670
36.3439 15.845
36.3742 12.582
36.4045 10.726
36.4347 8.245
36.4650 6.702
36.4953 6.200
36.5256 6.012
36.5559 3.480
36.5861 4.177
36.6164 1.854
36.6467 1.250
36.6770 2.209
36.7073 1.657
36.7375 0.429
36.7678 -0.122
36.7981 1.306
36.8284 0.860
36.8586 -0.264
36.8889 1.582
36.9192 0.720
36.9495 0.483
36.9798 0.871
37.0100 -0.147
37.0403 0.867
37.0706 0.683
37.1009 0.968
37.1312 -0.049
37.1614 0.341
37.1917 0.054
37.2220 0.027
37.2523 0.053
37.2825 0.548
37.3128 0.627
37.3431 1.435
37.3734 0.055
37.4037 0.968
37.4339 0.006
37.4642 0.294
37.4945 0.582
37.5248 0.454
37.5551 0.483
37.5853 0.303
37.6156 0.124
37.6459 0.257
37.6762 -0.287
37.7064 -0.205
37.7367 0.450
37.7670 0.272
37.7973 -0.427
37.8276 0.333
37.8578 0.573
37.8881 0.135
37.9184 -0.042
37.9487 -0.270
37.9790 -0.134
38.0092 -0.623
38.0395 0.764
38.0698 -0.401
38.1001 0.257
38.1304 0.498
38.1606 0.376
38.1909 0.513
38.2212 0.495
38.2515 -0.199
38.2817 -0.113
38.3120 0.234
38.3423 0.426
38.3726 -0.008
38.4029 -0.545
38.4331 0.376
38.4634 0.673
38.4937 0.084
38.5240 -0.140
38.5543 -0.416
38.5845 0.155
38.6148 0.153
38.6451 -0.213
38.6754 -0.006
38.7056 0.722
38.7359 0.252
38.7662 0.408
38.7965 -0.166
38.8268 0.251
38.8570 -0.582
38.8873 0.616
38.9176 0.408
38.9479 0.357
38.9782 0.775
39.0084 0.047
39.0387 0.986
39.0690 0.207
39.0993 0.157
39.1295 0.367
39.1598 0.214
39.1901 0.217
39.2204 -0.353
39.2507 -0.621
39.2809 0.517
39.3112 0.249
39.3415 0.190
39.3718 -0.233
39.4021 0.177
39.4323 0.119
39.4626 -0.617
39.4929 0.159
39.5232 0.153
39.5534 0.096
39.5837 -0.274
39.6140 -0.018
39.6443 -0.022
39.6746 0.182
39.7048 0.386
39.7351 -0.086
39.7654 0.275
39.7957 0.272
39.8260 0.217
39.8562 -0.307
39.8865 0.159
39.9168 -0.364
39.9471 -0.109
39.9773 -0.062
40.0076 0.246
40.0379 0.345
40.0682 -0.336
40.0985 0.389
40.1287 0.020
40.1590 -0.140
40.1893 0.690
40.2196 -0.355
40.2499 -0.462
40.2801 0.525
40.3104 0.471
40.3407 0.156
40.3710 -0.367
40.4012 -0.056
40.4315 0.516
40.4618 0.514
40.4921 0.253
40.5224 0.565
40.5526 0.044
40.5829 0.200
40.6132 0.617
40.6435 1.294
40.6738 0.670
40.7040 1.191
40.7343 1.661
40.7646 1.819
40.7949 1.925
40.8251 1.875
40.8554 2.502
40.8857 2.608
40.9160 3.132
40.9463 3.239
40.9765 3.659
41.0068 3.558
41.0371 4.760
41.0674 5.649
41.0977 4.091
41.1279 4.043
41.1582 4.829
41.1885 3.480
41.2188 3.902
41.2491 2.397
41.2793 2.142
41.3096 2.356
41.3399 1.998
41.3702 1.015
41.4004 0.605
41.4307 0.924
41.4610 0.411
41.4913 0.678
41.5216 0.999
41.5518 0.434
41.5821 0.234
41.6124 0.815
41.6427 0.563
41.6730 0.208
41.7032 0.738
41.7335 -0.711
41.7638 0.757
41.7941 -0.222
41.8243 0.205
41.8546 -0.150
41.8849 0.174
41.9152 0.081
41.9455 0.144
41.9757 1.197
42.0060 1.105
42.0363 0.075
42.0666 0.087
42.0969 -0.004
42.1271 0.634
42.1574 0.178
42.1877 0.660
42.2180 0.205
42.2482 0.167
42.2785 0.493
42.3088 0.507
42.3391 0.210
42.3694 0.172
42.3996 -0.333
42.4299 -0.591
42.4602 0.455
42.4905 1.240
42.5208 0.775
42.5510 -0.106
42.5813 -0.050
42.6116 0.268
42.6419 0.689
42.6721 -0.034
42.7024 0.544
42.7327 -0.231
42.7630 -0.329
42.7933 0.083
42.8235 -0.026
42.8538 -0.082
42.8841 0.851
42.9144 -0.038
42.9447 -0.041
42.9749 -0.044
43.0052 0.109
43.0355 0.627
43.0658 -0.209
43.0960 0.154
43.1263 -0.161
43.1566 0.046
43.1869 -0.685
43.2172 0.721
43.2474 -0.218
43.2777 0.771
43.3080 0.354
43.3383 -0.584
43.3686 0.250
43.3988 0.823
43.4291 0.459
43.4594 0.252
43.4897 0.513
43.5199 -0.006
43.5502 -0.056
43.5805 -0.055
43.6108 0.000
43.6411 0.471
43.6713 -0.099
43.7016 0.320
43.7319 0.375
43.7622 0.431
43.7925 0.018
43.8227 -0.030
43.8530 -0.234
43.8833 -0.282
43.9136 -0.329
43.9439 -0.181
43.9741 0.072
44.0044 0.377
44.0347 0.006
44.0650 0.416
44.0952 0.618
44.1255 -0.482
44.1558 0.241
44.1861 0.079
44.2164 0.074
44.2466 -0.192
44.2769 0.584
44.3072 0.319
44.3375 0.263
44.3678 0.259
44.3980 0.307
44.4283 0.303
44.4586 0.144
44.4889 -0.224
44.5191 0.137
44.5494 -0.074
44.5797 0.028
44.6100 -0.130
44.6403 -0.236
44.6705 0.335
44.7008 0.334
44.7311 0.958
44.7614 0.071
44.7917 0.748
44.8219 0.070
44.8522 0.070
44.8825 0.800
44.9128 0.383
44.9430 0.749
44.9733 0.802
45.0036 0.282
45.0339 0.492
45.0642 1.066
45.0944 0.964
45.1247 1.175
45.1550 0.448
45.1853 0.815
45.2156 0.610
45.2458 0.509
45.2761 0.408
45.3064 0.776
45.3367 0.780
45.3669 -0.518
45.3972 0.268
45.4275 0.741
45.4578 0.174
45.4881 0.491
45.5183 -0.128
45.5486 0.711
45.5789 -0.064
45.6092 0.358
45.6395 0.625
45.6697 0.059
45.7000 0.379
45.7303 0.230
45.7606 0.185
45.7908 -0.224
45.8211 0.097
45.8514 0.261
45.8817 -0.147
45.9120 0.070
45.9422 -0.754
45.9725 -0.037
46.0028 -0.153
46.0331 -0.008
46.0634 0.293
46.0936 -0.186
46.1239 0.011
46.1542 -0.572
46.1845 0.038
46.2147 0.024
46.2450 -0.043
46.2753 0.047
46.3056 0.294
46.3359 -0.397
46.3661 -0.202
46.3964 -0.268
46.4267 0.709
46.4570 -0.606
46.4873 0.267
46.5175 0.099
46.5478 0.348
46.5781 0.648
46.6084 -0.457
46.6386 -0.312
46.6689 -0.218
46.6992 -0.437
46.7295 0.334
46.7598 0.688
46.7900 0.626
46.8203 -0.165
46.8506 0.764
46.8809 0.129
46.9112 0.225
46.9414 1.622
46.9717 0.729
47.0020 1.450
47.0323 0.817
47.0626 0.393
47.0928 1.844
47.1231 1.316
47.1534 1.778
47.1837 1.823
47.2139 1.504
47.2442 2.436
47.2745 2.847
47.3048 2.008
47.3351 2.367
47.3653 2.727
47.3956 3.087
47.4259 3.290
47.4562 2.713
47.4865 1.928
47.5167 1.455
47.5470 3.379
47.5773 2.647
47.6076 2.748
47.6378 1.495
47.6681 0.763
47.6984 1.594
47.7287 1.384
47.7590 0.393
47.7892 1.381
47.8195 2.057
47.8498 1.170
47.8801 1.169
47.9104 0.544
47.9406 0.544
47.9709 0.231
48.0012 0.909
48.0315 -0.132
48.0617 0.233
48.0920 0.286
48.1223 -0.650
48.1526 -0.243
48.1829 0.894
48.2131 -0.730
48.2434 -0.270
48.2737 0.398
48.3040 0.703
48.3343 0.017
48.3645 0.322
48.3948 0.262
48.4251 0.099
48.4554 0.665
48.4856 0.033
48.5159 0.547
48.5462 0.541
48.5765 -0.350
48.6068 -0.044
48.6370 -0.049
48.6673 -0.211
48.6976 -0.372
48.7279 -0.536
48.7582 0.499
48.7884 0.128
48.8187 1.059
48.8490 1.417
48.8793 0.525
48.9095 1.041
48.9398 0.098
48.9701 1.759
49.0004 0.139
49.0307 -0.386
49.0609 0.599
49.0912 0.803
49.1215 0.538
49.1518 1.785
49.1821 0.792
49.2123 0.840
49.2426 1.202
49.2729 0.418
49.3032 2.238
49.3334 1.715
49.3637 0.776
49.3940 0.930
49.4243 1.033
49.4546 2.282
49.4848 0.979
49.5151 0.978
49.5454 1.967
49.5757 2.488
49.6060 2.852
49.6362 1.915
49.6665 3.739
49.6968 1.864
49.7271 3.168
49.7574 3.273
49.7876 2.441
49.8179 2.860
49.8482 2.549
49.8785 2.500
49.9087 3.179
49.9390 2.088
49.9693 3.550
49.9996 1.939
50.0299 2.359
50.0601 1.581
50.0904 1.065
50.1207 1.590
50.1510 0.969
50.1813 1.235
50.2115 0.979
50.2418 0.881
50.2721 1.147
50.3024 1.621
50.3326 0.794
50.3629 0.853
50.3932 1.120
50.4235 0.137
50.4538 0.457
50.4840 0.620
50.5143 0.628
50.5446 0.792
50.5749 0.019
50.6052 -0.077
50.6354 0.765
50.6657 0.149
50.6960 0.523
50.7263 0.324
50.7565 0.750
50.7868 0.239
50.8171 0.458
50.8474 0.052
50.8777 -0.198
50.9079 -0.291
50.9382 0.762
50.9685 -0.321
50.9988 -0.153
51.0291 0.015
51.0593 0.236
51.0896 0.144
51.1199 0.574
51.1502 0.014
51.1804 -0.442
51.2107 0.030
51.2410 0.033
51.2713 1.026
51.3016 0.041
51.3318 0.253
51.3621 0.414
51.3924 0.418
51.4227 -0.567
51.4530 -0.353
51.4832 -0.041
51.5135 -0.406
51.5438 0.428
51.5741 0.063
51.6043 -0.092
51.6346 0.325
51.6649 0.326
51.6952 0.692
51.7255 0.017
51.7557 0.383
51.7860 1.375
51.8163 1.638
51.8466 0.651
51.8769 1.591
51.9071 1.230
51.9374 2.067
51.9677 1.862
51.9980 1.189
52.0282 1.453
52.0585 1.926
52.0888 1.046
52.1191 0.738
52.1494 1.368
52.1796 0.645
52.2099 1.223
52.2402 1.125
52.2705 0.871
52.3008 -0.529
52.3310 0.936
52.3613 0.057
52.3916 -0.144
52.4219 0.541
52.4521 -0.337
52.4824 0.713
52.5127 -0.008
52.5430 0.469
52.5733 0.426
52.6035 -0.503
52.6338 0.444
52.6641 0.558
52.6944 -0.527
52.7247 0.161
52.7549 0.379
52.7852 0.442
52.8155 0.088
52.8458 -0.474
52.8761 0.839
52.9063 0.122
52.9366 0.290
52.9669 -0.115
52.9972 0.158
53.0274 0.222
53.0577 -0.338
53.0880 -0.012
53.1183 -0.364
53.1486 0.052
53.1788 0.625
53.2091 0.364
53.2394 0.677
53.2697 -0.521
53.3000 0.157
53.3302 0.001
53.3605 0.315
53.3908 -0.413
53.4211 0.214
53.4513 1.101
53.4816 0.165
53.5119 0.064
53.5422 1.004
53.5725 -0.556
53.6027 -0.032
53.6330 -0.081
53.6633 -0.129
53.6936 0.604
53.7239 -0.225
53.7541 -0.325
53.7844 0.196
53.8147 -0.011
53.8450 0.771
53.8752 0.096
53.9055 0.983
53.9358 -0.422
53.9661 0.518
53.9964 0.573
54.0266 0.055
54.0569 -0.047
54.0872 -0.148
54.1175 0.793
54.1478 -0.140
54.1780 -0.293
54.2083 0.284
54.2386 0.914
54.2689 0.658
54.2991 0.195
54.3294 -0.321
54.3597 -0.272
54.3900 -0.014
54.4203 0.140
54.4505 0.347
54.4808 0.554
54.5111 0.344
54.5414 0.082
54.5717 0.081
54.6019 0.133
54.6322 0.080
54.6625 0.653
54.6928 -0.180
54.7230 0.081
54.7533 -0.127
54.7836 0.395
54.8139 0.083
54.8442 -0.176
54.8744 -0.122
54.9047 0.193
54.9350 0.768
54.9653 -0.063
54.9956 -0.321
55.0258 0.027
55.0561 0.375
55.0864 0.098
55.1167 0.082
55.1469 0.275
55.1772 0.259
55.2075 0.036
55.2378 0.125
55.2681 -0.098
55.2983 -0.477
55.3286 0.394
55.3589 -0.089
55.3892 -0.051
55.4195 -0.012
55.4497 -0.546
55.4800 0.170
55.5103 0.782
55.5406 0.562
55.5709 0.601
55.6011 0.381
55.6314 0.005
55.6617 0.202
55.6920 0.399
55.7222 -0.289
55.7525 0.586
55.7828 0.054
55.8131 0.096
55.8434 0.347
55.8736 0.493
55.9039 1.005
55.9342 0.996
55.9645 -0.263
55.9948 1.186
56.0250 1.490
56.0553 0.388
56.0856 2.151
56.1159 2.300
56.1461 2.866
56.1764 2.546
56.2067 2.904
56.2370 4.199
56.2673 3.672
56.2975 5.332
56.3278 7.149
56.3581 5.894
56.3884 7.815
56.4187 8.071
56.4489 8.535
56.4792 7.176
56.5095 7.067
56.5398 8.053
56.5700 8.674
56.6003 7.525
56.6306 7.053
56.6609 5.956
56.6912 5.640
56.7214 4.700
56.7517 3.344
56.7820 3.758
56.8123 2.923
56.8426 1.672
56.8728 2.295
56.9031 1.826
56.9334 1.252
56.9637 2.033
56.9939 1.147
57.0242 0.991
57.0545 0.939
57.0848 1.043
57.1151 0.523
57.1453 0.785
57.1756 0.161
57.2059 0.319
57.2362 0.893
57.2665 0.687
57.2967 0.116
57.3270 0.431
57.3573 0.017
57.3876 -0.084
57.4178 0.076
57.4481 -0.546
57.4784 -0.022
57.5087 -0.123
57.5390 0.089
57.5692 -0.011
57.5995 0.618
57.6298 -0.210
57.6601 0.055
57.6904 -0.357
57.7206 -0.321
57.7509 0.132
57.7812 -0.717
57.8115 -0.003
57.8417 -0.331
57.8720 0.227
57.9023 0.005
57.9326 0.407
57.9629 0.080
57.9931 0.223
58.0234 -0.416
58.0537 -0.170
58.0840 0.232
58.1143 0.009
58.1445 0.776
58.1748 -0.072
58.2051 0.383
58.2354 1.932
58.2656 0.826
58.2959 0.031
58.3262 1.894
58.3565 1.152
58.3868 2.181
58.4170 2.222
58.4473 2.627
58.4776 2.980
58.5079 2.708
58.5382 3.270
58.5684 3.884
58.5987 5.228
58.6290 6.364
58.6593 6.354
58.6896 6.709
58.7198 4.512
58.7501 3.930
58.7804 4.546
58.8107 4.589
58.8409 2.654
58.8712 3.218
58.9015 1.752
58.9318 3.567
58.9621 0.175
58.9923 1.313
59.0226 0.473
59.0529 1.248
59.0832 1.137
59.1135 1.079
59.1437 0.552
59.1740 0.182
59.2043 0.177
59.2346 0.692
59.2648 0.636
59.2951 -0.515
59.3254 0.835
59.3557 0.154
59.3860 -0.006
59.4162 0.615
59.4465 0.872
59.4768 0.140
59.5071 -0.384
59.5374 0.499
59.5676 1.174
59.5979 0.078
59.6282 0.910
59.6585 0.179
59.6887 0.021
59.7190 1.739
59.7493 1.582
59.7796 0.279
59.8099 1.216
59.8401 0.227
59.8704 1.529
59.9007 0.905
59.9310 -0.032
59.9613 2.104
59.9915 2.105
60.0218 2.055
60.0521 3.411
60.0824 3.309
60.1126 3.467
60.1429 3.053
60.1732 4.097
60.2035 3.163
60.2338 2.749
60.2640 4.003
60.2943 3.486
60.3246 2.917
60.3549 2.505
60.3852 1.884
60.4154 1.628
60.4457 1.738
60.4760 1.951
60.5063 1.228
60.5365 1.494
60.5668 1.344
60.5971 2.131
60.6274 -0.206
60.6577 0.582
60.6879 0.485
60.7182 0.544
60.7485 -0.542
60.7788 -0.326
60.8091 -0.578
60.8393 0.784
60.8696 0.012
60.8999 -0.084
60.9302 0.238
60.9604 -0.117
60.9907 0.570
61.0210 -0.619
61.0513 -0.192
61.0816 -0.025
61.1118 -0.223
61.1421 -0.212
61.1724 0.737
61.2027 0.123
61.2330 -0.282
61.2632 -0.062
61.2935 0.679
61.3238 0.952
61.3541 0.496
61.3844 0.457
61.4146 1.199
61.4449 0.796
61.4752 0.185
61.5055 -0.218
61.5357 -0.100
61.5660 0.071
61.5963 0.033
61.6266 -0.368
61.6569 -0.421
61.6871 0.465
61.7174 -0.525
61.7477 -0.368
61.7780 -0.421
61.8083 0.516
61.8385 -0.266
61.8688 0.359
61.8991 0.307
61.9294 0.047
61.9596 0.516
61.9899 -0.472
62.0202 0.050
62.0505 0.103
62.0808 -0.312
62.1110 0.524
62.1413 0.526
62.1716 0.320
62.2019 0.948
62.2322 -0.247
62.2624 0.641
62.2927 0.593
62.3230 0.596
62.3533 1.486
62.3835 0.813
62.4138 0.922
62.4441 1.655
62.4744 1.712
62.5047 1.405
62.5349 2.557
62.5652 2.823
62.5955 2.516
62.6258 4.137
62.6561 3.987
62.6863 3.682
62.7166 3.897
62.7469 4.321
62.7772 3.130
62.8074 4.024
62.8377 3.771
62.8680 3.050
62.8983 4.153
62.9286 2.859
62.9588 2.347
62.9891 2.357
63.0194 2.887
63.0497 1.803
63.0800 2.074
63.1102 1.928
63.1405 1.365
63.1708 1.012
63.2011 1.179
63.2313 0.721
63.2616 0.993
63.2919 0.432
63.3222 0.705
63.3525 -0.064
63.3827 -0.104
63.4130 -0.299
63.4433 0.652
63.4736 -0.689
63.5039 0.470
63.5341 -0.141
63.5644 -0.127
63.5947 0.408
63.6250 -0.306
63.6552 0.594
63.6855 0.453
63.7158 0.312
63.7461 0.067
63.7764 -0.333
63.8066 -0.062
63.8369 0.521
63.8672 -0.301
63.8975 -0.029
63.9278 -0.278
63.9580 -0.161
63.9883 0.632
64.0186 0.697
64.0489 -0.437
64.0791 0.306
64.1094 -0.410
64.1397 0.905
64.1700 0.450
64.2003 0.412
64.2305 0.270
64.2608 0.024
64.2911 0.247
64.3214 0.054
64.3517 0.225
64.3819 0.241
64.4122 0.205
64.4425 0.481
64.4728 -0.232
64.5031 0.462
64.5333 0.374
64.5636 -0.077
64.5939 -0.633
64.6242 0.374
64.6544 0.027
64.6847 0.775
64.7150 -0.093
64.7453 0.134
64.7756 -0.107
64.8058 0.172
64.8361 -0.381
64.8664 0.055
64.8967 -0.290
64.9270 -0.552
64.9572 0.540
64.9875 0.539
65.0178 0.382
65.0481 -0.035
65.0783 0.121
65.1086 0.068
65.1389 0.069
65.1692 0.381
65.1995 -0.087
65.2297 -0.034
65.2600 0.228
65.2903 0.281
65.3206 -0.290
65.3509 -0.290
65.3811 0.012
65.4114 0.053
65.4417 -0.321
65.4720 0.346
65.5022 0.076
65.5325 0.066
65.5628 -0.099
65.5931 -0.108
65.6234 0.195
65.6536 0.395
65.6839 -0.030
65.7142 0.223
65.7445 0.736
65.7748 -0.157
65.8050 0.461
65.8353 -0.067
65.8656 0.343
65.8959 0.285
65.9261 0.122
65.9564 0.325
65.9867 0.371
66.0170 0.470
66.0473 1.558
66.0775 0.512
66.1078 0.976
66.1381 -0.018
66.1684 0.446
66.1987 0.495
66.2289 -0.238
66.2592 0.279
66.2895 0.693
66.3198 0.586
66.3500 0.791
66.3803 0.216
66.4106 0.631
66.4409 0.785
66.4712 0.784
66.5014 0.001
66.5317 0.208
66.5620 -0.001
66.5923 -0.679
66.6226 0.102
66.6528 0.050
66.6831 -0.314
66.7134 0.311
66.7437 0.155
66.7739 0.365
66.8042 -0.259
66.8345 0.003
66.8648 -0.308
66.8951 -0.167
66.9253 0.288
66.9556 -0.195
66.9859 0.208
67.0162 0.090
67.0465 0.076
67.0767 0.167
67.1070 0.206
67.1373 0.350
67.1676 0.129
67.1978 0.065
67.2281 0.105
67.2584 0.354
67.2887 0.239
67.3190 -0.033
67.3492 0.685
67.3795 1.195
67.4098 1.029
67.4401 1.071
67.4704 0.957
67.5006 1.103
67.5309 2.709
67.5612 1.606
67.5915 2.170
67.6218 2.838
67.6520 3.299
67.6823 3.239
67.7126 3.908
67.7429 3.848
67.7731 3.945
67.8034 3.521
67.8337 3.306
67.8640 3.299
67.8943 3.970
67.9245 3.547
67.9548 4.948
67.9851 3.849
68.0154 2.177
68.0457 2.432
68.0759 2.427
68.1062 2.475
68.1365 2.002
68.1668 1.373
68.1970 1.681
68.2273 1.313
68.2576 0.841
68.2879 1.255
68.3182 0.575
68.3484 0.781
68.3787 -0.367
68.4090 -0.213
68.4393 0.931
68.4696 0.200
68.4998 0.668
68.5301 0.719
68.5604 0.927
68.5907 0.822
68.6209 0.613
68.6512 1.499
68.6815 1.551
68.7118 1.395
68.7421 1.084
68.7723 1.606
68.8026 1.763
68.8329 2.129
68.8632 1.454
68.8935 1.873
68.9237 2.344
68.9540 1.617
68.9843 2.557
69.0146 2.092
69.0448 2.876
69.0751 1.838
69.1054 1.113
69.1357 1.482
69.1660 0.913
69.1962 1.751
69.2265 1.079
69.2568 1.344
69.2871 -0.057
69.3174 0.313
69.3476 -0.201
69.3779 0.273
69.4082 1.165
69.4385 -0.287
69.4687 0.345
69.4990 -0.273
69.5293 0.308
69.5596 0.367
69.5899 -0.406
69.6201 -0.189
69.6504 0.392
69.6807 0.348
69.7110 0.566
69.7413 -0.102
69.7715 0.428
69.8018 0.021
69.8321 0.395
69.8624 1.083
69.8926 -0.157
69.9229 0.218
69.9532 -0.083
69.9835 0.136
70.0138 -0.321
70.0440 -0.208
70.0743 0.948
70.1046 0.124
70.1349 0.707
70.1652 0.665
70.1954 1.457
70.2257 0.947
70.2560 0.333
70.2863 1.073
70.3166 0.304
70.3468 0.472
70.3771 1.213
70.4074 1.121
70.4377 0.873
70.4679 0.209
70.4982 0.222
70.5285 0.079
70.5588 0.197
70.5891 0.419
70.6193 -0.296
70.6496 0.291
70.6799 -0.111
70.7102 0.893
70.7405 -0.185
70.7707 0.611
70.8010 0.054
70.8313 -0.295
70.8616 -0.024
70.8918 0.142
70.9221 -0.264
70.9524 0.163
70.9827 0.122
71.0130 0.289
71.0432 0.144
71.0735 0.416
71.1038 0.428
71.1341 0.180
71.1644 0.244
71.1946 -0.212
71.2249 1.103
71.2552 -0.342
71.2855 0.192
71.3157 0.570
71.3460 0.480
71.3763 0.182
71.4066 0.248
71.4369 0.836
71.4671 0.850
71.4974 0.657
71.5277 0.308
71.5580 0.376
71.5883 0.027
71.6185 0.252
71.6488 -0.044
71.6791 -0.028
71.7094 0.198
71.7396 0.579
71.7699 -0.028
71.8002 0.146
71.8305 0.268
71.8608 0.286
71.8910 0.096
71.9213 -0.250
71.9516 -0.101
71.9819 -0.213
72.0122 0.509
72.0424 0.398
72.0727 0.547
72.1030 0.384
72.1333 0.899
72.1635 0.997
72.1938 0.314
72.2241 0.257
72.2544 0.356
72.2847 0.507
72.3149 1.127
72.3452 0.394
72.3755 0.962
72.4058 0.750
72.4361 0.590
72.4663 0.795
72.4966 0.687
72.5269 0.528
72.5572 0.057
72.5874 0.731
72.6177 0.625
72.6480 0.727
72.6783 0.569
72.7086 0.464
72.7388 0.254
72.7691 0.774
72.7994 0.669
72.8297 0.565
72.8600 0.929
72.8902 0.565
72.9205 0.513
72.9508 1.034
72.9811 0.462
73.0113 0.359
73.0416 0.152
73.0719 0.154
73.1022 0.520
73.1325 0.991
73.1627 0.525
73.1930 0.163
73.2233 0.165
73.2536 -0.144
73.2839 0.380
73.3141 0.019
73.3444 0.023
73.3747 -0.285
73.4050 0.024
73.4353 0.334
73.4655 0.175
73.4958 0.589
73.5261 0.118
73.5564 0.689
73.5866 -0.042
73.6169 0.269
73.6472 0.216
73.6775 0.371
73.7078 0.058
73.7380 0.318
73.7683 -0.672
73.7986 0.370
73.8289 0.995
73.8592 0.110
73.8894 0.163
73.9197 0.476
73.9500 0.634
73.9803 0.375
74.0105 0.169
74.0408 0.744
74.0711 0.225
74.1014 0.124
74.1317 0.804
74.1619 0.494
74.1922 -0.232
74.2225 0.084
74.2528 0.192
74.2831 -0.064
74.3133 0.774
74.3436 -0.159
74.3739 -0.102
74.4042 0.268
74.4344 -0.040
74.4647 0.435
74.4950 0.128
74.5253 0.447
74.5556 -0.015
74.5858 -0.321
74.6161 0.206
74.6464 0.630
74.6767 -0.300
74.7070 0.489
74.7372 0.289
74.7675 0.088
74.7978 0.253
74.8281 -0.311
74.8583 -0.204
74.8886 0.008
74.9189 -0.041
74.9492 0.067
74.9795 0.019
75.0097 0.440
75.0400 0.133
75.0703 0.502
75.1006 0.195
75.1309 0.460
75.1611 0.101
75.1914 0.576
75.2217 0.582
75.2520 0.276
75.2822 -0.186
75.3125 0.081
75.3428 0.349
75.3731 0.408
75.4034 -0.105
75.4336 0.424
75.4639 0.224
75.4942 -0.080
75.5245 0.710
75.5548 0.250
75.5850 0.623
75.6153 0.112
75.6456 0.070
75.6759 -0.233
75.7061 -0.037
75.7364 0.056
75.7667 0.200
75.7970 0.606
75.8273 0.439
75.8575 0.167
75.8878 0.730
75.9181 0.199
75.9484 0.137
75.9787 0.075
76.0089 0.586
76.0392 0.160
76.0695 0.412
76.0998 0.299
76.1301 0.186
76.1603 0.490
76.1906 0.274
76.2209 0.058
76.2512 0.050
76.2814 0.616
76.3117 0.192
76.3420 0.654
76.3723 0.544
76.4026 0.225
76.4328 0.167
76.4631 0.318
76.4934 -0.052
76.5237 0.463
76.5540 0.198
76.5842 0.349
76.6145 -0.488
76.6448 0.393
76.6751 0.753
76.7053 0.229
76.7356 0.798
76.7659 0.899
76.7962 0.011
76.8265 0.581
76.8567 0.423
76.8870 0.525
76.9173 0.471
76.9476 0.886
76.9779 0.155
77.0081 0.258
77.0384 0.466
77.0687 0.257
77.0990 0.621
77.1292 0.517
77.1595 0.412
77.1898 0.413
77.2201 0.570
77.2504 -0.159
77.2806 0.468
77.3109 0.000
77.3412 0.054
77.3715 0.577
77.4018 -0.046
77.4320 0.165
77.4623 -0.041
77.4926 0.222
77.5229 -0.035
77.5531 0.021
77.5834 0.649
77.6137 -0.024
77.6440 0.189
77.6743 0.193
77.7045 0.250
77.7348 0.359
77.7651 -0.053
77.7954 0.005
77.8257 -0.250
77.8559 -0.199
77.8862 0.217
77.9165 0.216
77.9468 0.164
77.9770 0.008
78.0073 -0.097
78.0376 0.425
78.0679 0.425
78.0982 0.166
78.1284 0.271
78.1587 -0.457
78.1890 0.378
78.2193 0.120
78.2496 0.226
78.2798 0.177
78.3101 0.283
78.3404 0.599
78.3707 0.185
78.4009 0.397
78.4312 0.036
78.4615 0.092
78.4918 0.513
78.5221 0.205
78.5523 -0.311
78.5826 -0.160
78.6129 0.095
78.6432 0.872
78.6735 -0.070
78.7037 0.186
78.7340 0.183
78.7643 -0.134
78.7946 -0.189
78.8248 0.068
78.8551 0.170
78.8854 -0.250
78.9157 -0.205
78.9460 0.206
78.9762 0.043
79.0065 -0.067
79.0368 0.552
79.0671 0.494
79.0974 -0.396
79.1276 -0.245
79.1579 0.323
79.1882 0.631
79.2185 -0.102
79.2488 -0.002
79.2790 -0.162
79.3093 0.459
79.3396 0.196
79.3699 0.245
79.4001 -0.227
79.4304 0.135
79.4607 -0.075
79.4910 0.391
79.5213 -0.183
79.5515 -0.081
79.5818 0.074
79.6121 -0.187
79.6424 0.125
79.6727 -0.136
79.7029 0.020
79.7332 0.176
79.7635 0.229
79.7938 -0.135
79.8240 0.022
79.8543 0.075
79.8846 0.076
79.9149 -0.235
79.9452 -0.337
79.9754 0.281
80.0057 0.275
80.0360 -0.095
80.0663 0.368
80.0966 0.363
80.1268 0.566
80.1571 0.041
80.1874 0.088
80.2177 0.865
80.2479 0.236
80.2782 0.181
80.3085 0.177
80.3388 0.695
80.3691 0.223
80.3993 1.106
80.4296 0.374
80.4599 0.684
80.4902 0.526
80.5205 0.108
80.5507 0.888
80.5810 0.313
80.6113 0.000
80.6416 0.156
80.6718 0.572
80.7021 0.676
80.7324 -0.001
80.7627 0.520
80.7930 0.521
80.8232 0.001
80.8535 0.522
80.8838 0.524
80.9141 0.525
80.9444 0.267
80.9746 0.529
81.0049 0.792
81.0352 0.482
81.0655 0.016
81.0957 0.540
81.1260 -0.029
81.1563 -0.234
81.1866 -0.074
81.2169 0.034
81.2471 0.299
81.2774 0.095
81.3077 0.257
81.3380 -0.415
81.3683 -0.206
81.3985 0.473
81.4288 -0.098
81.4591 0.321
81.4894 0.115
81.5196 0.327
81.5499 -0.139
81.5802 0.177
81.6105 0.284
81.6408 0.601
81.6710 0.136
81.7013 0.296
81.7316 0.041
81.7619 0.462
81.7922 0.207
81.8224 -0.101
81.8527 0.634
81.8830 0.327
81.9133 0.386
81.9436 -0.181
81.9738 0.346
82.0041 0.562
82.0344 0.412
82.0647 -0.049
82.0949 -0.250
82.1252 -0.148
82.1555 0.319
82.1858 0.266
82.2161 -0.204
82.2463 -0.101
82.2766 0.523
82.3069 0.470
82.3372 0.522
82.3675 -0.207
82.3977 -0.415
82.4280 0.679
82.4583 0.367
82.4886 0.576
82.5188 0.005
82.5491 0.214
82.5794 0.372
82.6097 -0.042
82.6400 -0.248
82.6702 0.223
82.7005 0.278
82.7308 0.437
82.7611 -0.133
82.7914 0.444
82.8216 -0.230
82.8519 0.139
82.8822 -0.013
82.9125 0.617
82.9427 0.048
82.9730 -0.415
83.0033 0.002
83.0336 0.367
83.0639 -0.205
83.0941 -0.100
83.1244 -0.203
83.1547 0.164
83.1850 -0.199
83.2153 0.011
83.2455 0.222
83.2758 0.016
83.3061 0.644
83.3364 0.022
83.3666 -0.182
83.3969 0.082
83.4272 0.294
83.4575 0.038
83.4878 0.250
83.5180 0.203
83.5483 0.312
83.5786 0.630
83.6089 0.375
83.6392 -0.088
83.6694 -0.239
83.6997 0.116
83.7300 0.472
83.7603 -0.058
83.7905 0.350
83.8208 0.029
83.8511 0.333
83.8814 0.637
83.9117 0.421
83.9419 -0.211
83.9722 0.094
84.0025 -0.069
84.0328 0.028
84.0631 0.334
84.0933 0.120
84.1236 0.218
84.1539 0.264
84.1842 0.051
84.2144 0.045
84.2447 -0.272
84.2750 0.192
84.3053 -0.177
84.3356 0.756
84.3658 0.283
84.3961 0.019
84.4264 -0.088
84.4567 0.169
84.4870 -0.199
84.5172 0.372
84.5475 0.526
84.5778 0.419
84.6081 -0.312
84.6383 0.103
84.6686 -0.315
84.6989 0.153
84.7292 0.516
84.7595 -0.214
84.7897 0.567
84.8200 -0.422
84.8503 0.255
84.8806 0.203
84.9109 0.099
84.9411 -0.056
84.9714 -0.003
85.0017 0.103
85.0320 -0.416
85.0623 0.054
85.0925 0.161
85.1228 -0.202
85.1531 0.114
85.1834 0.169
85.2136 -0.297
85.2439 0.227
85.2742 0.387
85.3045 0.183
85.3348 0.291
85.3650 0.035
85.3953 0.040
85.4256 -0.060
85.4559 0.310
85.4862 -0.205
85.5164 0.061
85.5467 0.692
85.5770 0.125
85.6073 -0.337
85.6375 -0.082
85.6678 -0.244
85.6981 -0.145
85.7284 0.058
85.7587 -0.103
85.7889 0.205
85.8192 0.410
85.8495 -0.115
85.8798 0.662
85.9101 0.034
85.9403 0.187
85.9706 0.445
86.0009 -0.027
86.0312 -0.289
86.0614 0.177
86.0917 -0.189
86.1220 0.122
86.1523 0.172
86.1826 0.223
86.2128 0.847
86.2431 1.003
86.2734 0.117
86.3037 0.169
86.3340 0.117
86.3642 -0.039
86.3945 0.066
86.4248 0.015
86.4551 0.329
86.4853 0.070
86.5156 0.019
86.5459 0.230
86.5762 0.544
86.6065 0.390
86.6367 0.081
86.6670 0.032
86.6973 -0.122
86.7276 -0.170
86.7579 -0.166
86.7881 -0.163
86.8184 -0.002
86.8487 -0.154
86.8790 0.007
86.9092 0.220
86.9395 0.069
86.9698 -0.029
87.0001 0.081
87.0304 0.034
87.0606 0.509
87.0909 -0.265
87.1212 0.471
87.1515 -0.095
87.1818 -0.244
87.2120 0.121
87.2423 0.643
87.2726 -0.136
87.3029 -0.239
87.3331 0.284
87.3634 0.495
87.3937 0.029
87.4240 -0.125
87.4543 0.191
87.4845 -0.066
87.5148 0.041
87.5451 0.097
87.5754 -0.107
87.6057 -0.311
87.6359 0.154
87.6662 0.359
87.6965 0.252
87.7268 -0.011
87.7571 0.559
87.7873 0.140
87.8176 0.086
87.8479 0.449
87.8782 0.031
87.9084 0.446
87.9387 0.289
87.9690 0.132
87.9993 -0.337
88.0296 -0.088
88.0598 -0.307
88.0901 0.203
88.1204 -0.068
88.1507 0.443
88.1810 0.381
88.2112 0.735
88.2415 0.101
88.2718 0.248
88.3021 0.135
88.3323 0.178
88.3626 0.170
88.3929 -0.359
88.4232 0.779
88.4535 0.094
88.4837 -0.330
88.5140 0.131
88.5443 0.125
88.5746 0.118
88.6049 0.372
88.6351 0.522
88.6654 0.412
88.6957 0.458
88.7260 0.505
88.7562 0.083
88.7865 0.130
88.8168 0.438
88.8471 0.955
88.8774 0.065
88.9076 0.478
88.9379 0.839
88.9682 0.836
88.9985 0.103
89.0288 0.986
89.0590 0.462
89.0893 0.877
89.1196 0.354
89.1499 0.560
89.1801 0.715
89.2104 0.662
89.2407 0.921
89.2710 1.076
89.3013 1.440
89.3315 1.492
89.3618 1.023
89.3921 0.971
89.4224 0.503
89.4527 1.181
89.4829 0.713
89.5132 0.506
89.5435 0.820
89.5738 0.926
89.6040 1.084
89.6343 1.294
89.6646 0.412
89.6949 0.414
89.7252 0.417
89.7554 0.577
89.7857 0.736
89.8160 0.584
89.8463 -0.298
89.8766 1.009
89.9068 0.805
89.9371 0.445
89.9674 -0.071
89.9977 0.091
90.0279 0.409
90.0582 0.206
90.0885 -0.048
90.1188 0.687
90.1491 0.277
90.1793 0.232
90.2096 0.187
90.2399 0.559
90.2702 0.202
90.3005 0.157
90.3307 0.165
90.3610 0.642
90.3913 0.078
90.4216 0.243
90.4518 0.304
90.4821 0.001
90.5124 -0.250
90.5427 -0.361
90.5730 0.465
90.6032 0.041
90.6335 0.347
90.6638 0.288
90.6941 0.022
90.7244 0.432
90.7546 0.270
90.7849 0.473
90.8152 0.260
90.8455 0.411
90.8758 0.146
90.9060 0.506
90.9363 0.137
90.9666 0.029
90.9969 0.129
91.0271 -0.187
91.0574 0.123
91.0877 -0.193
91.1180 0.534
91.1483 0.271
91.1785 0.217
91.2088 0.111
91.2391 -0.047
91.2694 -0.049
91.2997 0.002
91.3299 -0.363
91.3602 0.053
91.3905 0.313
91.4208 0.104
91.4510 0.052
91.4813 -0.208
91.5116 0.626
91.5419 0.366
91.5722 -0.205
91.6024 0.525
91.6327 0.058
91.6630 0.112
91.6933 0.270
91.7236 0.012
91.7538 -0.350
91.7841 0.851
91.8144 0.021
91.8447 -0.080
91.8749 -0.180
91.9052 -0.176
91.9355 0.453
91.9658 -0.116
91.9961 -0.111
92.0263 0.154
92.0566 -0.257
92.0869 -0.044
92.1172 0.275
92.1475 0.333
92.1777 0.547
92.2080 0.397
92.2383 0.196
92.2686 0.255
92.2988 -0.259
92.3291 -0.211
92.3594 0.932
92.3897 -0.217
92.4200 0.353
92.4502 0.090
92.4805 0.192
92.5108 0.606
92.5411 0.240
92.5714 -0.022
92.6016 0.028
92.6319 -0.233
92.6622 0.808
92.6925 0.390
92.7227 0.390
92.7530 0.546
92.7833 0.442
92.8136 0.286
92.8439 0.756
92.8741 0.392
92.9044 0.550
92.9347 1.124
92.9650 0.344
92.9953 0.555
93.0255 0.036
93.0558 0.455
93.0861 0.406
93.1164 0.721
93.1466 0.256
93.1769 0.624
93.2072 0.679
93.2375 0.215
93.2678 0.323
93.2980 0.432
93.3283 0.697
93.3586 0.494
93.3889 0.186
93.4192 -0.173
93.4494 0.614
93.4797 0.099
93.5100 -0.259
93.5403 -0.064
93.5706 0.652
93.6008 -0.038
93.6311 0.574
93.6614 -0.115
93.6917 0.185
93.7219 0.173
93.7522 0.057
93.7825 -0.683
93.8128 0.035
93.8431 0.128
93.8733 -0.143
93.9036 -0.206
93.9339 -0.007
93.9642 0.243
93.9945 0.286
94.0247 -0.140
94.0550 -0.045
94.0853 -0.054
94.1156 0.093
94.1458 0.085
94.1761 0.077
94.2064 0.329
94.2367 -0.043
94.2670 -0.415
94.2972 0.151
94.3275 0.196
94.3578 0.033
94.3881 0.235
94.4184 0.229
94.4486 -0.037
94.4789 0.114
94.5092 -0.152
94.5395 0.416
94.5697 0.255
94.6000 0.615
94.6303 -0.014
94.6606 0.398
94.6909 0.030
94.7211 -0.026
94.7514 0.388
94.7817 -0.032
94.8120 -0.035
94.8423 0.431
94.8725 0.481
94.9028 0.635
94.9331 0.529
94.9634 0.945
94.9936 0.318
95.0239 0.317
95.0542 0.264
95.0845 0.576
95.1148 0.420
95.1450 0.732
95.1753 0.681
95.2056 0.942
95.2359 0.942
95.2662 0.579
95.2964 0.580
95.3267 0.425
95.3570 1.000
95.3873 1.054
95.4175 0.171
95.4478 1.111
95.4781 0.593
95.5084 0.440
95.5387 0.026
95.5689 0.915
95.5992 -0.227
95.6295 0.507
95.6598 -0.218
95.6901 -0.058
95.7203 0.416
95.7506 0.317
95.7809 -0.146
95.8112 -0.193
95.8414 0.282
95.8717 -0.389
95.9020 -0.230
95.9323 -0.174
95.9626 -0.014
95.9928 0.564
96.0231 0.151
96.0534 0.573
96.0837 0.265
96.1140 0.010
96.1442 0.016
96.1745 -0.031
96.2048 -0.441
96.2351 0.083
96.2653 0.036
96.2956 0.353
96.3259 -0.059
96.3562 -0.106
96.3865 0.160
96.4167 0.113
96.4470 -0.141
96.4773 -0.135
96.5076 -0.285
96.5379 0.183
96.5681 0.027
96.5984 -0.182
96.6287 0.183
96.6590 -0.285
96.6893 -0.130
96.7195 0.129
96.7498 -0.132
96.7801 0.128
96.8104 0.075
96.8406 -0.342
96.8709 0.961
96.9012 0.336
96.9315 0.128
96.9618 0.181
96.9920 -0.182
97.0223 0.184
97.0526 0.654
97.0829 0.240
97.1132 0.711
97.1434 0.088
97.1737 0.612
97.2040 0.302
97.2343 0.253
97.2645 0.309
97.2948 0.208
97.3251 0.108
97.3554 0.216
97.3857 0.377
97.4159 0.382
97.4462 0.387
97.4765 -0.233
97.5068 -0.019
97.5371 -0.013
97.5673 -0.112
97.5976 -0.210
97.6279 -0.255
97.6582 -0.106
97.6884 0.356
97.7187 0.350
97.7490 -0.229
97.7793 0.286
97.8096 0.332
97.8398 0.535
97.8701 -0.304
97.9004 0.316
97.9307 0.103
97.9610 0.203
97.9912 0.512
98.0215 0.456
98.0518 0.869
98.0821 0.709
98.1123 0.497
98.1426 0.963
98.1729 0.596
98.2032 0.698
98.2335 0.800
98.2637 1.006
98.2940 0.484
98.3243 1.055
98.3546 0.533
98.3849 1.053
98.4151 1.313
98.4454 0.427
98.4757 1.209
98.5060 0.896
98.5362 0.845
98.5665 -0.457
98.5968 0.638
98.6271 0.639
98.6574 0.276
98.6876 0.173
98.7179 0.175
98.7482 0.750
98.7785 0.492
98.8088 0.183
98.8390 0.186
98.8693 0.449
98.8996 0.557
98.9299 0.665
98.9601 0.304
98.9904 0.100
99.0207 0.000
99.0510 0.265
99.0813 0.062
99.1115 0.275
99.1418 0.281
99.1721 0.130
99.2024 0.136
99.2327 -0.222
99.2629 0.149
99.2932 -0.261
99.3235 0.840
99.3538 -0.194
99.3841 -0.031
99.4143 0.342
99.4446 -0.067
99.4749 0.254
99.5052 -0.154
99.5354 -0.250
99.5657 -0.250
99.5960 -0.096
99.6263 0.162
99.6566 -0.153
99.6868 0.418
99.7171 -0.312
99.7474 0.155
99.7777 -0.158
99.8080 0.101
99.8382 0.361
99.8685 0.257
99.8988 0.361
99.9291 0.309
99.9593 -0.368
99.9896 0.206
100.0199 0.311
100.0502 0.000
100.0805 0.001
100.1107 -0.049
100.1410 -0.204
100.1713 -0.097
100.2016 0.218
100.2319 0.168
100.2621 -0.141
100.2924 0.435
100.3227 -0.186
100.3530 0.130
100.3832 0.134
100.4135 -0.018
100.4438 0.455
100.4741 -0.113
100.5044 -0.004
100.5346 -0.519
100.5649 0.043
100.5952 -0.176
100.6255 -0.135
100.6558 0.168
100.6860 0.158
100.7163 0.148
100.7466 0.087
100.7769 0.130
100.8071 0.016
100.8374 0.164
100.8677 -0.313
100.8980 0.095
100.9283 0.608
100.9585 0.288
100.9888 0.073
101.0191 0.430
101.0494 0.007
101.0797 -0.260
101.1099 -0.215
101.1402 -0.222
101.1705 0.136
101.2008 0.338
101.2310 0.384
101.2613 0.014
101.2916 -0.095
101.3219 0.264
101.3522 -0.053
101.3824 -0.058
101.4127 0.042
101.4430 0.142
101.4733 0.034
101.5036 0.342
101.5338 -0.442
101.5641 0.492
101.5944 0.021
101.6247 0.122
101.6549 -0.401
101.6852 -0.039
101.7155 0.064
101.7458 -0.146
101.7761 0.581
101.8063 -0.045
101.8366 0.319
101.8669 0.266
101.8972 -0.307
101.9275 0.474
101.9577 0.474
101.9880 0.006
102.0183 0.840
102.0486 -0.045
102.0788 0.321
102.1091 0.218
102.1394 0.376
102.1697 0.326
102.2000 0.120
102.2302 0.383
102.2605 0.334
102.2908 0.232
102.3211 0.444
102.3514 -0.126
102.3816 0.086
102.4119 0.351
102.4422 0.251
102.4725 -0.266
102.5028 -0.262
102.5330 0.576
102.5633 -0.201
102.5936 0.220
102.6239 -0.139
102.6541 0.022
102.6844 -0.285
102.7147 0.023
102.7450 0.072
102.7753 0.225
102.8055 0.221
102.8358 0.114
102.8661 -0.097
102.8964 0.318
102.9267 0.420
102.9569 0.001
102.9872 -0.105
103.0175 0.102
103.0478 0.518
103.0780 0.517
103.1083 0.464
103.1386 -0.265
103.1689 -0.266
103.1992 0.196
103.2294 0.502
103.2597 -0.182
103.2900 -0.084
103.3203 0.326
103.3506 0.164
103.3808 0.263
103.4111 0.309
103.4414 -0.060
103.4717 0.351
103.5019 -0.122
103.5322 0.134
103.5625 0.026
103.5928 -0.030
103.6231 0.591
103.6533 0.223
103.6836 0.220
103.7139 0.478
103.7442 0.163
103.7745 -0.256
103.8047 -0.050
103.8350 0.052
103.8653 0.363
103.8956 0.049
103.9258 0.257
103.9561 0.673
103.9864 0.151
104.0167 0.047
104.0470 0.515
104.0772 0.568
104.1075 0.360
104.1378 0.465
104.1681 0.362
104.1984 0.207
104.2286 -0.105
104.2589 0.262
104.2892 0.003
104.3195 0.422
104.3497 -0.409
104.3800 0.011
104.4103 0.430
104.4406 -0.087
104.4709 0.281
104.5011 -0.132
104.5314 0.289
104.5617 -0.280
104.5920 -0.223
104.6223 -0.271
104.6525 0.095
104.6828 -0.217
104.7131 0.253
104.7434 0.463
104.7736 0.100
104.8039 0.154
104.8342 -0.313
104.8645 0.315
104.8948 -0.360
104.9250 0.581
104.9553 0.011
104.9856 0.014
105.0159 0.174
105.0462 0.387
105.0764 0.026
105.1067 0.031
105.1370 -0.277
105.1673 0.040
105.1975 -0.319
105.2278 0.312
105.2581 -0.203
105.2884 -0.145
105.3187 0.017
105.3489 -0.133
105.3792 -0.491
105.4095 0.454
105.4398 -0.164
105.4701 -0.260
105.5003 0.050
105.5306 0.153
105.5609 -0.161
105.5912 0.254
105.6215 0.097
105.6517 -0.008
105.6820 0.409
105.7123 -0.164
105.7426 0.148
105.7728 -0.060
105.8031 0.306
105.8334 -0.475
105.8637 -0.213
105.8940 -0.004
105.9242 -0.002
105.9545 -0.260
105.9848 -0.052
106.0151 0.573
106.0454 0.053
106.0756 0.002
106.1059 -0.049
106.1362 -0.100
106.1665 -0.046
106.1967 0.164
106.2270 0.583
106.2573 0.064
106.2876 -0.141
106.3179 0.018
106.3481 -0.031
106.3784 0.024
106.4087 -0.076
106.4390 0.032
106.4693 -0.068
106.4995 0.040
106.5298 0.462
106.5601 0.362
106.5904 0.680
106.6206 0.113
106.6509 -0.298
106.6812 0.020
106.7115 -0.078
106.7418 0.189
106.7720 -0.273
106.8023 -0.006
106.8326 -0.259
106.8629 0.049
106.8932 0.044
106.9234 0.352
106.9537 0.244
106.9840 0.032
107.0143 -0.180
107.0445 -0.027
107.0748 -0.030
107.1051 -0.033
107.1354 -0.244
107.1657 0.014
107.1959 -0.248
107.2262 0.010
107.2565 -0.252
107.2868 0.528
107.3171 0.059
107.3473 0.162
107.3776 -0.411
107.4079 0.161
107.4382 -0.047
107.4684 -0.255
107.4987 -0.100
107.5290 0.316
107.5593 -0.258
107.5896 0.054
107.6198 -0.362
107.6501 0.158
107.6804 0.003
107.7107 0.055
107.7410 -0.152
107.7712 -0.255
107.8015 -0.048
107.8318 -0.310
107.8621 0.471
107.8923 -0.467
107.9226 -0.416
107.9529 0.573
107.9832 -0.312
108.0135 0.261
108.0437 -0.051
108.0740 -0.102
108.1043 0.159
108.1346 -0.048
108.1649 -0.255
108.1951 0.059
108.2254 0.112
108.2557 0.426
108.2860 0.012
108.3163 0.014
108.3465 -0.035
108.3768 0.019
108.4071 0.022
108.4374 -0.235
108.4676 0.394
108.4979 0.658
108.5282 0.297
108.5585 0.406
108.5888 0.046
108.6190 -0.053
108.6493 0.108
108.6796 -0.147
108.7099 -0.038
108.7402 -0.032
108.7704 0.756
108.8007 0.710
108.8310 0.091
108.8613 -0.058
108.8915 -0.259
108.9218 0.165
108.9521 -0.244
108.9824 -0.150
109.0127 0.049
109.0429 0.665
109.0732 -0.073
109.1035 0.126
109.1338 -0.195
109.1641 0.109
109.1943 0.101
109.2246 0.146
109.2549 -0.226
109.2852 0.339
109.3154 0.280
109.3457 0.274
109.3760 0.580
109.4063 0.053
109.4366 -0.005
109.4668 0.353
109.4971 0.035
109.5274 0.603
109.5577 -0.027
109.5880 0.281
109.6182 0.277
109.6485 0.168
109.6788 0.477
109.7091 0.056
109.7393 0.261
109.7696 -0.158
109.7999 0.568
109.8302 -0.008
109.8605 0.615
109.8907 0.300
109.9210 -0.014
109.9513 -0.016
109.9816 0.347
110.0119 0.190
110.0421 -0.019
110.0724 0.761
110.1027 0.292
110.1330 0.240
110.1632 0.709
110.1935 0.084
110.2238 0.241
110.2541 0.450
110.2844 0.451
110.3146 0.245
110.3449 0.350
110.3752 0.561
110.4055 0.667
110.4358 0.565
110.4660 0.047
110.4963 -0.211
110.5266 0.157
110.5569 0.161
110.5871 0.685
110.6174 0.064
110.6477 0.329
110.6780 0.177
110.7083 0.338
110.7385 0.030
110.7688 0.713
110.7991 0.614
110.8294 -0.058
110.8597 0.000
110.8899 0.163
110.9202 0.013
110.9505 0.124
110.9808 0.027
111.0110 0.138
111.0413 0.146
111.0716 -0.159
111.1019 0.214
111.1322 -0.247
111.1624 -0.134
111.1927 0.239
111.2230 0.508
111.2533 0.049
111.2836 -0.046
111.3138 -0.244
111.3441 -0.196
111.3744 0.374
111.4047 0.267
111.4350 0.056
111.4652 0.262
111.4955 0.468
111.5258 0.258
111.5561 -0.056
111.5863 0.255
111.6166 0.097
111.6469 0.253
111.6772 0.200
111.7075 -0.113
111.7377 0.199
111.7680 0.356
111.7983 0.200
111.8286 -0.372
111.8589 0.045
111.8891 0.150
111.9194 0.516
111.9497 0.258
111.9800 0.624
112.0102 0.522
112.0405 0.472
112.0708 0.267
112.1011 0.270
112.1314 0.169
112.1616 -0.349
112.1919 0.332
112.2222 -0.237
112.2525 -0.389
112.2828 0.283
112.3130 0.278
112.3433 0.117
112.3736 0.165
112.4039 -0.308
112.4341 0.365
112.4644 -0.263
112.4947 0.567
112.5250 -0.270
112.5553 -0.064
112.5855 0.298
112.6158 0.035
112.6461 0.137
112.6764 0.240
112.7067 -0.126
112.7369 0.081
112.7672 0.236
112.7975 0.287
112.8278 0.599
112.8580 0.286
112.8883 0.443
112.9186 -0.078
112.9489 0.027
112.9792 -0.598
113.0094 0.026
113.0397 0.649
113.0700 -0.237
113.1003 0.283
113.1306 0.490
113.1608 0.177
113.1911 0.333
113.2214 0.385
113.2517 -0.291
113.2819 0.022
113.3122 0.075
113.3425 0.128
113.3728 -0.183
113.4031 -0.130
113.4333 0.029
113.4636 -0.074
113.4939 -0.384
113.5242 0.608
113.5545 -0.222
113.5847 -0.063
113.6150 0.201
113.6453 0.413
113.6756 0.209
113.7058 -0.048
113.7361 0.165
113.7664 0.118
113.7967 0.175
113.8270 -0.029
113.8572 0.446
113.8875 0.243
113.9178 0.405
113.9481 0.776
113.9784 0.522
114.0086 0.372
114.0389 0.015
114.0692 -0.239
114.0995 -0.094
114.1298 0.363
114.1600 0.091
114.1903 -0.285
114.2206 0.225
114.2509 0.214
114.2811 0.152
114.3114 0.090
114.3417 0.340
114.3720 0.279
114.4023 -0.043
114.4325 0.312
114.4628 0.355
114.4931 0.242
114.5234 0.078
114.5537 0.330
114.5839 0.322
114.6142 0.263
114.6445 0.099
114.6748 0.196
114.7050 -0.332
114.7353 0.287
114.7656 -0.136
114.7959 -0.090
114.8262 -0.252
114.8564 -0.258
114.8867 0.466
114.9170 0.148
114.9473 -0.013
114.9776 -0.017
115.0078 0.239
115.0381 0.235
115.0684 0.075
115.0987 0.071
115.1289 0.068
115.1592 0.325
115.1895 0.479
115.2198 0.059
115.2501 0.578
115.2803 -0.205
115.3106 -0.676
115.3409 0.253
115.3712 0.245
115.4015 0.288
115.4317 0.437
115.4620 -0.300
115.4923 0.422
115.5226 0.206
115.5528 0.668
115.5831 0.609
115.6134 0.498
115.6437 0.961
115.6740 0.591
115.7042 0.845
115.7345 0.944
115.7648 0.314
115.7951 0.726
115.8254 0.773
115.8556 0.300
115.8859 0.764
115.9162 1.177
115.9465 0.444
115.9767 0.910
116.0070 1.427
116.0373 0.487
116.0676 1.109
116.0979 0.482
116.1281 0.584
116.1584 0.166
116.1887 0.529
116.2190 0.944
116.2493 0.682
116.2795 0.629
116.3098 0.525
116.3401 1.253
116.3704 1.045
116.4006 0.889
116.4309 0.629
116.4612 0.734
116.4915 0.526
116.5218 0.996
116.5520 1.779
116.5823 0.635
116.6126 0.741
116.6429 0.743
116.6732 1.266
116.7034 0.227
116.7337 1.272
116.7640 0.598
116.7943 0.289
116.8245 1.074
116.8548 0.453
116.8851 -0.011
116.9154 -0.007
116.9457 0.258
116.9759 -0.206
117.0062 -0.252
117.0365 0.430
117.0668 0.175
117.0971 0.754
117.1273 -0.229
117.1576 0.038
117.1879 0.201
117.2182 0.625
117.2485 -0.462
117.2787 0.535
117.3090 0.283
117.3393 0.030
117.3696 0.247
117.3998 -0.266
117.4301 -0.265
117.4604 0.048
117.4907 0.466
117.5210 0.571
117.5512 0.052
117.5815 -0.363
117.6118 0.002
117.6421 0.523
117.6724 0.576
117.7026 0.264
117.7329 0.891
117.7632 0.736
117.7935 0.165
117.8237 1.261
117.8540 0.273
117.8843 0.224
117.9146 0.695
117.9449 0.177
117.9751 0.337
118.0054 0.601
118.0357 0.396
118.0660 0.088
118.0963 0.405
118.1265 0.566
118.1568 0.206
118.1871 0.107
118.2174 0.164
118.2476 0.639
118.2779 0.540
118.3082 0.182
118.3385 0.344
118.3688 0.195
118.3990 0.097
118.4293 0.365
118.4596 0.060
118.4899 0.484
118.5202 -0.029
118.5504 0.240
118.5807 0.144
118.6110 0.465
118.6413 -0.099
118.6715 -0.090
118.7018 0.440
118.7321 1.075
118.7624 0.408
118.7927 0.053
118.8229 0.481
118.8532 0.439
118.8835 0.294
118.9138 0.722
118.9441 0.525
118.9743 0.068
119.0046 -0.285
119.0349 -0.036
119.0652 0.057
119.0954 0.723
119.1257 0.347
119.1560 0.129
119.1863 0.431
119.2166 0.629
119.2468 0.203
119.2771 -0.119
119.3074 0.340
119.3377 0.331
119.3680 0.739
119.3982 0.001
119.4285 0.254
119.4588 0.402
119.4891 -0.179
119.5193 -0.134
119.5496 0.484
119.5799 0.008
119.6102 -0.155
119.6405 0.151
119.6707 0.249
119.7010 0.399
119.7313 0.289
119.7616 -0.237
119.7919 0.643
119.8221 0.117
119.8524 0.113
119.8827 -0.256
119.9130 -0.260
119.9433 -0.157
119.9735 0.312
120.0038 0.000
