'Id: "" Comment: "" Operator: "Lab Manager" Anode: "Cu" Scantype: "Locked Coupled" TimePerStep: "19.2" X: "9999" Y: "9999" Z: "9999" 
10.0015 0.000
10.0318 -1.353
10.0620 -0.051
10.0923 0.209
10.1226 0.158
10.1529 -0.258
10.1832 0.629
10.2134 0.786
10.2437 0.111
10.2740 0.634
10.3043 0.272
10.3346 -0.768
10.3648 0.954
10.3951 -0.136
10.4254 0.596
10.4557 0.027
10.4859 -0.125
10.5162 -0.172
10.5465 -0.376
10.5768 -0.423
10.6071 -0.061
10.6373 0.198
10.6676 0.301
10.6979 0.821
10.7282 0.039
10.7585 0.820
10.7887 0.871
10.8190 0.715
10.8493 1.549
10.8796 1.914
10.9098 3.582
10.9401 3.844
10.9704 5.095
11.0007 5.722
11.0310 6.870
11.0612 8.071
11.0915 7.761
11.1218 7.556
11.1521 6.726
11.1824 5.948
11.2126 5.380
11.2429 2.571
11.2732 1.534
11.3035 2.060
11.3337 0.451
11.3640 0.404
11.3943 0.618
11.4246 0.051
11.4549 1.152
11.4851 -0.665
11.5154 0.280
11.5457 0.027
11.5760 -0.278
11.6063 1.188
11.6365 -0.366
11.6668 0.163
11.6971 0.797
11.7274 0.389
11.7577 1.284
11.7879 0.148
11.8182 -0.363
11.8485 0.220
11.8788 0.335
11.9090 -0.227
11.9393 0.774
11.9696 -0.881
11.9999 0.537
12.0302 -0.285
12.0604 -0.116
12.0907 -1.353
12.1210 0.163
12.1513 -0.144
12.1816 -0.034
12.2118 -0.392
12.2421 0.344
12.2724 -0.378
12.3027 -0.579
12.3329 0.782
12.3632 -0.095
12.3935 -0.243
12.4238 -0.183
12.4541 0.347
12.4843 0.304
12.5146 -0.676
12.5449 -0.251
12.5752 -0.294
12.6055 0.132
12.6357 -0.119
12.6660 -0.057
12.6963 0.578
12.7266 -0.609
12.7568 0.183
12.7871 0.194
12.8174 -0.003
12.8477 -0.408
12.8780 0.385
12.9082 0.346
12.9385 0.046
12.9688 0.736
12.9991 0.436
13.0294 -0.279
13.0596 0.516
13.0899 -0.408
13.1202 0.388
13.1505 0.142
13.1807 0.626
13.2110 0.068
13.2413 -0.072
13.2716 0.152
13.3019 -0.353
13.3321 0.809
13.3624 -0.476
13.3927 -0.146
13.4230 0.027
13.4533 0.097
13.4835 -0.302
13.5138 -0.283
13.5441 -0.004
13.5744 0.223
13.6046 -0.019
13.6349 -0.416
13.6652 0.066
13.6955 -0.337
13.7258 -0.062
13.7560 0.525
13.7863 0.487
13.8166 0.294
13.8469 -0.160
13.8772 0.585
13.9074 -0.546
13.9377 0.929
13.9680 0.685
13.9983 0.649
14.0285 -0.011
14.0588 0.527
14.0891 0.336
14.1194 0.198
14.1497 0.112
14.1799 0.338
14.2102 0.149
14.2405 0.636
14.2708 0.239
14.3011 -0.262
14.3313 0.695
14.3616 -0.066
14.3919 0.580
14.4222 0.444
14.4524 0.361
14.4827 0.122
14.5130 -0.117
14.5433 0.739
14.5736 1.073
14.6038 0.159
14.6341 0.234
14.6644 1.246
14.6947 0.020
14.7250 -0.321
14.7552 -0.023
14.7855 0.639
14.8158 0.677
14.8461 -0.014
14.8764 0.493
14.9066 0.376
14.9369 0.154
14.9672 0.141
14.9975 0.129
15.0277 0.742
15.0580 0.209
15.0883 0.041
15.1186 -0.022
15.1489 0.696
15.1791 -0.044
15.2094 1.196
15.2397 0.457
15.2700 0.082
15.3003 -0.292
15.3305 0.012
15.3608 -0.414
15.3911 1.088
15.4214 0.351
15.4516 -0.439
15.4819 0.179
15.5122 -0.037
15.5425 0.789
15.5728 1.147
15.6030 -0.109
15.6333 0.562
15.6636 0.399
15.6939 0.081
15.7242 0.545
15.7544 -0.502
15.7847 0.171
15.8150 0.322
15.8453 -0.098
15.8755 0.054
15.9058 0.311
15.9361 0.308
15.9664 0.097
15.9967 -0.218
16.0269 0.300
16.0572 0.090
16.0875 -0.120
16.1178 -0.122
16.1481 0.242
16.1783 -0.124
16.2086 0.553
16.2389 -0.020
16.2692 -0.801
16.2994 0.345
16.3297 -0.436
16.3600 0.451
16.3903 0.244
16.4206 0.089
16.4508 0.247
16.4811 0.093
16.5114 -0.165
16.5417 0.255
16.5720 0.049
16.6022 0.209
16.6325 0.786
16.6628 0.529
16.6931 0.117
16.7233 0.226
16.7536 0.178
16.7839 0.236
16.8142 -0.071
16.8445 -0.170
16.8747 0.826
16.9050 -0.053
16.9353 0.162
16.9656 0.273
16.9959 -0.345
17.0261 0.757
17.0564 -0.954
17.0867 0.200
17.1170 0.208
17.1472 0.425
17.1775 -0.503
17.2078 -0.338
17.2381 -0.489
17.2684 0.505
17.2986 -0.323
17.3289 0.464
17.3592 0.418
17.3895 -0.357
17.4198 0.066
17.4500 -0.188
17.4803 0.392
17.5106 0.139
17.5409 -0.114
17.5712 0.207
17.6014 0.475
17.6317 0.171
17.6620 -0.080
17.6923 0.293
17.7225 0.355
17.7528 0.521
17.7831 -0.094
17.8134 -0.032
17.8437 0.500
17.8739 -0.323
17.9042 -0.364
17.9345 0.365
17.9648 0.522
17.9951 -0.051
18.0253 0.002
18.0556 0.055
18.0859 -0.048
18.1162 0.787
18.1464 0.372
18.1767 -0.355
18.2070 -0.040
18.2373 0.275
18.2676 0.435
18.2978 0.230
18.3281 -0.548
18.3584 0.602
18.3887 0.606
18.4190 -0.118
18.4492 -0.530
18.4795 0.360
18.5098 -0.051
18.5401 0.267
18.5703 0.430
18.6006 -0.449
18.6309 0.755
18.6612 -0.644
18.6915 0.301
18.7217 -0.056
18.7520 0.577
18.7823 -0.613
18.8126 0.906
18.8429 -0.284
18.8731 0.819
18.9034 0.568
18.9337 0.369
18.9640 0.796
18.9942 0.390
19.0245 0.088
19.0548 -0.370
19.0851 0.214
19.1154 0.173
19.1456 0.862
19.1759 0.145
19.2062 0.209
19.2365 0.066
19.2668 0.287
19.2970 -0.169
19.3273 -0.363
19.3576 0.205
19.3879 -0.216
19.4181 0.197
19.4484 0.714
19.4787 0.138
19.5090 0.343
19.5393 0.497
19.5695 0.286
19.5998 -0.446
19.6301 0.803
19.6604 1.218
19.6907 -0.033
19.7209 0.122
19.7512 0.173
19.7815 0.225
19.8118 0.433
19.8420 -0.400
19.8723 0.851
19.9026 0.331
19.9329 0.592
19.9632 0.490
19.9934 -0.029
20.0237 0.233
20.0540 0.340
20.0843 0.498
20.1146 0.658
20.1448 0.453
20.1751 0.300
20.2054 0.304
20.2357 0.256
20.2659 0.104
20.2962 0.525
20.3265 0.530
20.3568 0.015
20.3871 0.021
20.4173 0.495
20.4476 -0.071
20.4779 0.091
20.5082 -0.162
20.5385 -0.416
20.5687 0.201
20.5990 -0.225
20.6293 0.288
20.6596 0.228
20.6899 0.011
20.7201 0.369
20.7504 0.778
20.7807 -0.166
20.8110 -0.173
20.8412 0.081
20.8715 0.440
20.9018 0.070
20.9321 -0.040
20.9624 -0.410
20.9926 0.367
21.0229 0.050
21.0532 0.202
21.0835 -0.219
21.1138 0.090
21.1440 0.035
21.1743 0.397
21.2046 -0.023
21.2349 0.444
21.2651 0.181
21.2954 -0.237
21.3257 -0.135
21.3560 0.125
21.3863 0.124
21.4165 0.123
21.4468 0.071
21.4771 -0.033
21.5074 0.384
21.5377 0.384
21.5679 -0.709
21.5982 0.647
21.6285 0.492
21.6588 0.233
21.6890 -0.598
21.7193 -0.189
21.7496 0.271
21.7799 -0.309
21.8102 0.204
21.8404 0.145
21.8707 0.347
21.9010 -0.076
21.9313 0.595
21.9616 -0.244
21.9918 0.375
22.0221 -0.411
22.0524 0.000
22.0827 -0.213
22.1129 -0.009
22.1432 -0.013
22.1735 0.140
22.2038 0.136
22.2341 0.342
22.2643 0.599
22.2946 1.013
22.3249 0.282
22.3552 -0.241
22.3855 0.070
22.4157 0.642
22.4460 -0.245
22.4763 0.015
22.5066 -0.038
22.5368 -0.194
22.5671 0.796
22.5974 0.119
22.6277 0.224
22.6580 -0.244
22.6882 0.070
22.7185 0.436
22.7488 -0.395
22.7791 0.232
22.8094 -0.390
22.8396 -0.127
22.8699 0.136
22.9002 -0.173
22.9305 0.248
22.9607 -0.009
22.9910 0.152
23.0213 0.261
23.0516 0.214
23.0819 0.740
23.1121 0.589
23.1424 0.178
23.1727 -0.024
23.2030 0.920
23.2333 -0.011
23.2635 0.256
23.2938 0.316
23.3241 0.324
23.3544 -0.033
23.3846 -0.390
23.4149 0.078
23.4452 0.493
23.4755 0.336
23.5058 -0.134
23.5360 -0.394
23.5663 0.491
23.5966 0.283
23.6269 -0.290
23.6572 0.180
23.6874 0.389
23.7177 0.078
23.7480 0.653
23.7783 -0.439
23.8086 -0.280
23.8388 0.087
23.8691 0.402
23.8994 -0.011
23.9297 0.305
23.9599 0.048
23.9902 0.417
24.0205 0.526
24.0508 0.010
24.0811 -0.142
24.1113 0.853
24.1416 0.650
24.1719 -0.437
24.2022 -0.067
24.2325 0.305
24.2627 -0.001
24.2930 -0.202
24.3233 -0.299
24.3536 -0.037
24.3838 0.329
24.4141 0.488
24.4444 0.074
24.4747 0.233
24.5050 0.705
24.5352 0.865
24.5655 -0.277
24.5958 -0.169
24.6261 -0.269
24.6564 0.725
24.6866 0.626
24.7169 0.059
24.7472 0.429
24.7775 0.122
24.8077 -0.028
24.8380 -0.282
24.8683 0.402
24.8986 0.044
24.9289 -0.417
24.9591 0.320
24.9894 0.015
25.0197 0.023
25.0500 0.240
25.0803 0.666
25.1105 0.675
25.1408 0.528
25.1711 0.069
25.2014 -0.285
25.2316 -0.285
25.2619 0.226
25.2922 0.217
25.3225 -0.157
25.3528 0.668
25.3830 0.347
25.4133 0.287
25.4436 1.008
25.4739 0.323
25.5042 0.577
25.5344 0.101
25.5647 0.198
25.5950 0.348
25.6253 0.082
25.6555 0.232
25.6858 0.071
25.7161 -0.143
25.7464 0.425
25.7767 0.786
25.8069 0.156
25.8372 0.257
25.8675 0.097
25.8978 -0.271
25.9281 0.090
25.9583 0.869
25.9886 -0.384
26.0189 -0.125
26.0492 -0.179
26.0794 0.132
26.1097 -0.182
26.1400 0.546
26.1703 0.077
26.2006 0.962
26.2308 0.129
26.2611 -0.236
26.2914 -0.027
26.3217 0.078
26.3520 -0.442
26.3822 -0.037
26.4125 0.316
26.4428 -0.320
26.4731 0.242
26.5034 -0.134
26.5336 0.325
26.5639 -0.519
26.5942 0.357
26.6245 0.191
26.6547 0.026
26.6850 -0.088
26.7153 0.321
26.7456 -0.521
26.7759 0.200
26.8061 0.244
26.8364 0.549
26.8667 -0.083
26.8970 0.119
26.9273 0.060
26.9575 0.471
26.9878 -0.265
27.0181 -0.270
27.0484 -0.015
27.0786 0.084
27.1089 -0.546
27.1392 -0.030
27.1695 -0.295
27.1998 0.221
27.2300 0.321
27.2603 0.734
27.2906 0.314
27.3209 0.102
27.3512 0.099
27.3814 0.149
27.4117 0.042
27.4420 0.561
27.4723 0.716
27.5025 0.141
27.5328 -0.068
27.5631 0.295
27.5934 0.191
27.6237 0.138
27.6539 0.034
27.6842 0.503
27.7145 -0.381
27.7448 0.036
27.7751 -0.015
27.8053 0.247
27.8356 -0.011
27.8659 0.407
27.8962 0.514
27.9264 0.204
27.9567 -0.626
27.9870 0.107
28.0173 -0.202
28.0476 0.479
28.0778 0.170
28.1081 0.175
28.1384 -0.081
28.1687 0.654
28.1990 0.034
28.2292 0.404
28.2595 0.202
28.2898 -0.312
28.3201 -0.325
28.3503 0.653
28.3806 0.485
28.4109 0.526
28.4412 0.358
28.4715 0.920
28.5017 0.337
28.5320 0.014
28.5623 0.317
28.5926 0.307
28.6229 -0.223
28.6531 -0.180
28.6834 -0.032
28.7137 0.376
28.7440 -0.153
28.7742 0.152
28.8045 0.248
28.8348 0.189
28.8651 0.442
28.8954 0.019
28.9256 -0.404
28.9559 0.371
28.9862 -0.416
29.0165 -0.325
29.0468 0.391
29.0770 -0.091
29.1073 0.105
29.1376 -0.064
29.1679 0.706
29.1981 -0.140
29.2284 -0.151
29.2587 0.098
29.2890 0.192
29.3193 0.389
29.3495 -0.558
29.3798 0.057
29.4101 -0.109
29.4404 0.142
29.4707 0.185
29.5009 -0.032
29.5312 0.949
29.5615 -0.257
29.5918 0.829
29.6221 0.561
29.6523 0.137
29.6826 0.182
29.7129 -0.345
29.7432 -0.269
29.7734 0.173
29.8037 0.043
29.8340 0.329
29.8643 -0.062
29.8946 -0.036
29.9248 0.668
29.9551 0.695
29.9854 -0.319
30.0157 0.125
30.0460 0.622
30.0762 -0.496
30.1065 0.730
30.1368 0.186
30.1671 0.111
30.1973 0.505
30.2276 0.170
30.2579 0.669
30.2882 -0.030
30.3185 0.209
30.3487 0.135
30.3790 0.427
30.4093 0.302
30.4396 0.699
30.4699 0.887
30.5001 0.138
30.5304 1.316
30.5607 0.985
30.5910 -0.024
30.6212 0.635
30.6515 1.085
30.6818 0.963
30.7121 1.571
30.7424 1.293
30.7726 0.755
30.8029 1.363
30.8332 0.878
30.8635 2.268
30.8938 1.627
30.9240 2.080
30.9543 1.805
30.9846 3.456
31.0149 3.442
31.0451 3.532
31.0754 4.090
31.1057 3.712
31.1360 5.157
31.1663 4.675
31.1965 5.287
31.2268 6.056
31.2571 7.294
31.2874 9.105
31.3177 9.874
31.3479 11.946
31.3782 14.956
31.4085 15.414
31.4388 18.997
31.4690 20.445
31.4993 24.342
31.5296 25.582
31.5599 28.489
31.5902 31.085
31.6204 32.899
31.6507 30.078
31.6810 26.112
31.7113 28.031
31.7416 25.992
31.7718 20.099
31.8021 19.363
31.8324 14.773
31.8627 14.455
31.8929 13.563
31.9232 11.422
31.9535 7.354
31.9838 8.808
32.0141 5.678
32.0443 5.829
32.0746 6.502
32.1049 4.155
32.1352 4.151
32.1655 4.044
32.1957 3.884
32.2260 2.475
32.2563 3.306
32.2866 2.367
32.3169 1.896
32.3471 1.009
32.3774 1.008
32.4077 2.518
32.4380 2.256
32.4682 -0.244
32.4985 0.173
32.5288 1.371
32.5591 0.955
32.5894 1.164
32.6196 0.384
32.6499 0.854
32.6802 0.596
32.7105 0.546
32.7408 0.652
32.7710 0.863
32.8013 1.543
32.8316 0.140
32.8619 0.665
32.8921 0.356
32.9224 -0.525
32.9527 -0.052
32.9830 0.213
33.0133 0.947
33.0435 0.224
33.0738 -0.344
33.1041 -0.442
33.1344 0.377
33.1647 0.051
33.1949 -0.380
33.2252 0.388
33.2555 0.167
33.2858 0.310
33.3160 0.194
33.3463 0.130
33.3766 0.170
33.4069 0.783
33.4372 0.459
33.4674 1.021
33.4977 0.594
33.5280 0.271
33.5583 0.313
33.5886 0.668
33.6188 -0.435
33.6491 0.910
33.6794 0.693
33.7097 0.736
33.7399 2.030
33.7702 2.439
33.8005 1.493
33.8308 1.642
33.8611 2.208
33.8913 2.253
33.9216 4.278
33.9519 3.751
33.9822 4.735
34.0125 5.719
34.0427 6.755
34.0730 8.469
34.1033 10.495
34.1336 14.085
34.1638 18.977
34.1941 23.035
34.2244 31.834
34.2547 38.914
34.2850 38.130
34.3152 36.513
34.3455 34.583
34.3758 28.123
34.4061 20.465
34.4364 14.578
34.4666 12.181
34.4969 9.680
34.5272 8.534
34.5575 6.971
34.5877 5.513
34.6180 3.534
34.6483 4.316
34.6786 2.130
34.7089 1.662
34.7391 3.539
34.7694 1.718
34.7997 1.616
34.8300 1.879
34.8603 1.829
34.8905 2.614
34.9208 1.784
34.9511 1.475
34.9814 2.885
35.0116 1.692
35.0419 2.321
35.0722 1.597
35.1025 0.977
35.1328 1.295
35.1630 2.394
35.1933 0.786
35.2236 2.251
35.2539 2.205
35.2842 2.420
35.3144 2.167
35.3447 2.227
35.3750 2.339
35.4053 2.503
35.4356 3.293
35.4658 2.677
35.4961 3.884
35.5264 4.206
35.5567 4.684
35.5869 6.100
35.6172 6.840
35.6475 8.465
35.6778 8.007
35.7081 7.810
35.7383 9.071
35.7686 11.114
35.7989 13.782
35.8292 16.711
35.8595 18.026
35.8897 19.966
35.9200 23.052
35.9503 27.649
35.9806 28.548
36.0108 35.490
36.0411 39.462
36.0714 41.248
36.1017 46.263
36.1320 47.216
36.1622 39.836
36.1925 39.435
36.2228 38.462
36.2531 34.884
36.2834 29.328
36.3136 25.960
36.3439 20.977
36.3742 17.349
36.4045 15.023
36.4347 13.688
36.4650 11.831
36.4953 10.236
36.5256 8.640
36.5559 8.399
36.5861 7.273
36.6164 6.564
36.6467 4.605
36.6770 5.772
36.7073 3.710
36.7375 4.096
36.7678 3.440
36.7981 3.045
36.8284 2.755
36.8586 2.413
36.8889 2.227
36.9192 2.771
36.9495 1.545
36.9798 0.839
37.0100 1.644
37.0403 1.200
37.0706 0.912
37.1009 0.312
37.1312 0.962
37.1614 1.040
37.1917 0.284
37.2220 0.258
37.2523 0.753
37.2825 1.301
37.3128 0.286
37.3431 0.522
37.3734 1.070
37.4037 0.629
37.4339 0.606
37.4642 -0.199
37.4945 0.038
37.5248 1.161
37.5551 0.200
37.5853 0.178
37.6156 -0.261
37.6459 -0.335
37.6762 0.425
37.7064 0.508
37.7367 0.175
37.7670 -0.211
37.7973 0.342
37.8276 0.686
37.8578 0.615
37.8881 0.960
37.9184 1.045
37.9487 -0.068
37.9790 -0.347
38.0092 0.468
38.0395 0.190
38.0698 1.422
38.1001 0.416
38.1304 0.138
38.1606 0.538
38.1909 1.303
38.2212 -0.224
38.2515 0.333
38.2817 0.474
38.3120 -0.218
38.3423 -0.598
38.3726 0.241
38.4029 0.090
38.4331 -0.113
38.4634 0.205
38.4937 0.420
38.5240 0.218
38.5543 0.902
38.5845 0.336
38.6148 0.500
38.6451 0.872
38.6754 0.516
38.7056 0.680
38.7359 0.220
38.7662 0.646
38.7965 0.238
38.8268 -0.325
38.8570 0.101
38.8873 -0.045
38.9176 0.591
38.9479 0.289
38.9782 -0.065
39.0084 0.415
39.0387 0.323
39.0690 0.491
39.0993 0.191
39.1295 0.151
39.1598 0.112
39.1901 0.437
39.2204 0.138
39.2507 0.360
39.2809 0.791
39.3112 0.232
39.3415 -0.066
39.3718 -0.467
39.4021 0.100
39.4323 0.408
39.4626 0.456
39.4929 -0.173
39.5232 0.552
39.5534 0.549
39.5837 0.441
39.6140 0.751
39.6443 0.175
39.6746 -0.348
39.7048 0.223
39.7351 0.221
39.7654 -0.197
39.7957 0.271
39.8260 -0.095
39.8562 0.009
39.8865 0.165
39.9168 0.113
39.9471 0.530
39.9773 -0.042
40.0076 0.792
40.0379 0.064
40.0682 -0.715
40.0985 0.276
40.1287 0.018
40.1590 0.385
40.1893 0.179
40.2196 0.287
40.2499 -0.075
40.2801 -0.175
40.3104 0.402
40.3407 0.354
40.3710 0.358
40.4012 0.415
40.4315 0.473
40.4618 -0.407
40.4921 0.015
40.5224 -0.031
40.5526 -0.285
40.5829 0.081
40.6132 0.447
40.6435 -0.176
40.6738 0.399
40.7040 0.245
40.7343 0.143
40.7646 0.146
40.7949 0.410
40.8251 0.414
40.8554 0.209
40.8857 0.578
40.9160 0.114
40.9463 0.223
40.9765 0.332
41.0068 -0.027
41.0371 0.343
41.0674 0.401
41.0977 -0.218
41.1279 -0.107
41.1582 0.316
41.1885 0.220
41.2188 -0.190
41.2491 0.287
41.2793 -0.018
41.3096 -0.009
41.3399 0.572
41.3702 -0.096
41.4004 0.174
41.4307 0.184
41.4610 0.298
41.4913 0.151
41.5216 0.162
41.5518 -0.192
41.5821 -0.233
41.6124 -0.343
41.6427 0.484
41.6730 0.009
41.7032 0.108
41.7335 0.884
41.7638 0.150
41.7941 -0.063
41.8243 0.350
41.8546 0.033
41.8849 -0.439
41.9152 0.755
41.9455 0.440
41.9757 0.176
42.0060 0.486
42.0363 0.068
42.0666 0.066
42.0969 0.273
42.1271 -0.093
42.1574 0.374
42.1877 0.113
42.2180 0.269
42.2482 -0.095
42.2785 0.269
42.3088 0.218
42.3391 -0.459
42.3694 0.168
42.3996 0.065
42.4299 0.223
42.4602 0.173
42.4905 -0.085
42.5208 0.698
42.5510 0.024
42.5813 -0.598
42.6116 0.021
42.6419 0.067
42.6721 0.010
42.7024 0.317
42.7327 0.260
42.7630 0.463
42.7933 0.667
42.8235 0.142
42.8538 0.243
42.8841 0.083
42.9144 -0.077
42.9447 0.389
42.9749 0.855
43.0052 0.124
43.0355 -0.191
43.0658 0.120
43.0960 0.118
43.1263 0.378
43.1566 0.116
43.1869 0.116
43.2172 -0.197
43.2474 0.220
43.2777 0.116
43.3080 -0.092
43.3383 0.274
43.3686 0.223
43.3988 -0.244
43.4291 -0.197
43.4594 -0.046
43.4897 0.158
43.5199 -0.003
43.5502 0.514
43.5805 0.354
43.6108 -0.170
43.6411 0.295
43.6713 -0.228
43.7016 0.030
43.7319 -0.441
43.7622 0.025
43.7925 0.023
43.8227 0.178
43.8530 0.385
43.8833 -0.033
43.9136 -0.086
43.9439 -0.034
43.9741 0.695
44.0044 0.383
44.0347 -0.398
44.0650 0.071
44.0952 0.176
44.1255 0.074
44.1558 0.336
44.1861 -0.079
44.2164 -0.337
44.2466 0.130
44.2769 0.337
44.3072 0.284
44.3375 0.023
44.3678 0.231
44.3980 0.335
44.4283 0.179
44.4586 0.076
44.4889 -0.496
44.5191 0.234
44.5494 -0.129
44.5797 -0.075
44.6100 -0.281
44.6403 0.190
44.6705 -0.068
44.7008 0.143
44.7311 -0.166
44.7614 -0.058
44.7917 -0.002
44.8219 0.106
44.8522 0.163
44.8825 -0.093
44.9128 -0.244
44.9430 -0.244
44.9733 -0.099
45.0036 0.046
45.0339 0.921
45.0642 0.546
45.0944 0.224
45.1247 0.214
45.1550 0.100
45.1853 -0.169
45.2156 0.030
45.2458 0.438
45.2761 0.170
45.3064 0.318
45.3367 0.571
45.3669 -0.061
45.3972 0.140
45.4275 0.342
45.4578 0.544
45.4881 0.121
45.5183 -0.510
45.5486 0.109
45.5789 -0.260
45.6092 -0.112
45.6395 -0.379
45.6697 0.552
45.7000 0.337
45.7303 -0.190
45.7606 -0.248
45.7908 0.006
45.8211 0.105
45.8514 -0.212
45.8817 0.095
45.9120 0.247
45.9422 -0.069
45.9725 -0.021
46.0028 -0.337
46.0331 0.067
46.0634 -0.205
46.0936 -0.112
46.1239 0.293
46.1542 0.178
46.1845 0.271
46.2147 0.469
46.2450 0.251
46.2753 -0.280
46.3056 0.075
46.3359 -0.038
46.3661 -0.203
46.3964 0.882
46.4267 -0.168
46.4570 0.085
46.4873 0.546
46.5175 0.174
46.5478 0.114
46.5781 0.264
46.6084 0.622
46.6386 0.564
46.6689 0.922
46.6992 0.552
46.7295 0.703
46.7598 0.854
46.7900 0.850
46.8203 0.481
46.8506 0.685
46.8809 0.629
46.9112 1.407
46.9414 0.883
46.9717 1.557
47.0020 2.544
47.0323 2.073
47.0626 2.592
47.0928 2.903
47.1231 3.630
47.1534 4.098
47.1837 4.514
47.2139 4.461
47.2442 5.398
47.2745 5.659
47.3048 7.014
47.3351 7.379
47.3653 7.796
47.3956 7.798
47.4259 9.258
47.4562 7.385
47.4865 7.335
47.5167 7.233
47.5470 7.236
47.5773 5.572
47.6076 5.003
47.6378 4.954
47.6681 3.656
47.6984 2.306
47.7287 3.300
47.7590 2.628
47.7892 2.373
47.8195 1.441
47.8498 1.915
47.8801 1.036
47.9104 1.303
47.9406 1.049
47.9709 1.108
48.0012 0.646
48.0315 0.810
48.0617 0.558
48.0920 0.253
48.1223 0.366
48.1526 0.791
48.1829 0.228
48.2131 0.601
48.2434 -0.222
48.2737 0.100
48.3040 0.110
48.3343 0.173
48.3645 0.184
48.3948 -0.274
48.4251 0.259
48.4554 0.375
48.4856 0.126
48.5159 -0.070
48.5462 -0.266
48.5765 0.001
48.6068 0.633
48.6370 0.432
48.6673 0.178
48.6976 -0.231
48.7279 0.350
48.7582 0.462
48.7884 -0.154
48.8187 -0.041
48.8490 0.072
48.8793 0.290
48.9095 -0.065
48.9398 0.257
48.9701 -0.358
49.0004 0.382
49.0307 0.237
49.0609 -0.117
49.0912 -0.157
49.1215 -0.250
49.1518 -0.096
49.1821 0.319
49.2123 -0.151
49.2426 -0.048
49.2729 0.159
49.3032 0.107
49.3334 0.002
49.3637 0.419
49.3940 0.002
49.4243 -0.518
49.4546 0.577
49.4848 0.734
49.5151 0.267
49.5454 0.060
49.5757 -0.094
49.6060 0.482
49.6362 0.172
49.6665 0.227
49.6968 0.126
49.7271 -0.027
49.7574 0.342
49.7876 0.502
49.8179 0.350
49.8482 0.511
49.8785 0.308
49.9087 -0.312
49.9390 -0.098
49.9693 0.950
49.9996 0.071
50.0299 0.442
50.0601 0.188
50.0904 0.664
50.1207 -0.318
50.1510 0.367
50.1813 0.063
50.2115 -0.033
50.2418 -0.441
50.2721 0.072
50.3024 -0.091
50.3326 0.424
50.3629 0.105
50.3932 -0.109
50.4235 0.406
50.4538 -0.381
50.4840 0.187
50.5143 0.287
50.5446 0.334
50.5749 0.278
50.6052 0.222
50.6354 -0.354
50.6657 0.528
50.6960 0.369
50.7263 -0.155
50.7565 0.259
50.7868 0.049
50.8171 0.672
50.8474 0.046
50.8777 0.149
50.9079 0.044
50.9382 -0.009
50.9685 -0.165
50.9988 0.512
51.0291 -0.425
51.0593 0.044
51.0896 0.149
51.1199 -0.006
51.1502 0.152
51.1804 0.622
51.2107 -0.313
51.2410 -0.050
51.2713 0.005
51.3016 0.112
51.3318 0.011
51.3621 -0.246
51.3924 0.383
51.4227 0.023
51.4530 -0.337
51.4832 0.027
51.5135 0.444
51.5438 0.496
51.5741 0.132
51.6043 -0.231
51.6346 -0.126
51.6649 0.344
51.6952 0.398
51.7255 0.244
51.7557 -0.170
51.7860 -0.011
51.8163 -0.164
51.8466 -0.213
51.8769 0.468
51.9071 0.263
51.9374 0.007
51.9677 0.532
51.9980 0.173
52.0282 0.490
52.0585 -0.181
52.0888 0.397
52.1191 0.403
52.1494 -0.059
52.1796 0.468
52.2099 0.371
52.2402 0.066
52.2705 0.021
52.3008 -0.023
52.3310 -0.119
52.3613 -0.059
52.3916 0.419
52.4219 0.115
52.4521 0.125
52.4824 0.447
52.5127 0.248
52.5430 0.363
52.5733 0.842
52.6035 0.384
52.6338 0.291
52.6641 0.354
52.6944 -0.259
52.7247 -0.319
52.7549 0.663
52.7852 0.552
52.8155 -0.028
52.8458 0.018
52.8761 0.376
52.9063 -0.046
52.9366 0.052
52.9669 -0.057
52.9972 0.563
53.0274 0.506
53.0577 0.189
53.0880 0.185
53.1183 0.337
53.1486 -0.083
53.1788 -0.243
53.2091 0.327
53.2394 0.012
53.2697 0.426
53.3000 0.320
53.3302 0.162
53.3605 0.056
53.3908 0.524
53.4211 0.575
53.4513 0.210
53.4816 -0.259
53.5119 -0.172
53.5422 0.331
53.5725 -0.102
53.6027 -0.275
53.6330 0.229
53.6633 -0.256
53.6936 0.301
53.7239 0.911
53.7541 0.219
53.7844 -0.057
53.8147 0.189
53.8450 0.123
53.8752 -0.099
53.9055 0.356
53.9358 -0.231
53.9661 0.017
53.9964 0.004
54.0266 -0.061
54.0569 0.240
54.0872 -0.449
54.1175 -0.148
54.1478 -0.108
54.1780 -0.483
54.2083 0.183
54.2386 -0.296
54.2689 0.319
54.2991 -0.107
54.3294 -0.117
54.3597 0.082
54.3900 -0.239
54.4203 -0.196
54.4505 -0.100
54.4808 0.153
54.5111 -0.116
54.5414 -0.175
54.5717 0.443
54.6019 0.280
54.6322 -0.091
54.6625 -0.045
54.6928 0.157
54.7230 -0.057
54.7533 -0.062
54.7836 -0.276
54.8139 -0.284
54.8442 0.749
54.8744 0.012
54.9047 0.160
54.9350 0.049
54.9653 -0.063
54.9956 -0.486
55.0258 0.288
55.0561 -0.343
55.0864 0.016
55.1167 -0.146
55.1469 0.005
55.1772 -0.053
55.2075 -0.005
55.2378 0.094
55.2681 -0.118
55.2983 0.607
55.3286 -0.230
55.3589 -0.285
55.3892 -0.088
55.4195 -0.360
55.4497 0.203
55.4800 0.088
55.5103 -0.130
55.5406 0.328
55.5709 0.267
55.6011 0.310
55.6314 0.457
55.6617 0.709
55.6920 0.440
55.7222 0.276
55.7525 0.372
55.7828 0.677
55.8131 0.566
55.8434 0.455
55.8736 0.501
55.9039 1.328
55.9342 1.009
55.9645 1.316
55.9948 1.207
56.0250 2.139
56.0553 2.343
56.0856 2.651
56.1159 3.584
56.1461 3.060
56.1764 4.306
56.2067 3.834
56.2370 3.935
56.2673 5.704
56.2975 7.003
56.3278 7.053
56.3581 8.562
56.3884 8.977
56.4187 8.976
56.4489 9.652
56.4792 9.808
56.5095 8.766
56.5398 8.766
56.5700 8.871
56.6003 7.986
56.6306 7.049
56.6609 5.957
56.6912 4.761
56.7214 4.554
56.7517 4.712
56.7820 3.725
56.8123 3.259
56.8426 2.794
56.8728 2.224
56.9031 2.748
56.9334 1.555
56.9637 1.871
56.9939 1.407
57.0242 0.943
57.0545 0.896
57.0848 0.589
57.1151 0.334
57.1453 0.653
57.1756 0.607
57.2059 0.978
57.2362 0.673
57.2665 0.524
57.2967 0.219
57.3270 0.331
57.3573 0.443
57.3876 0.087
57.4178 -0.061
57.4481 0.678
57.4784 -0.303
57.5087 -0.189
57.5390 0.134
57.5692 -0.169
57.5995 -0.262
57.6298 0.478
57.6601 -0.345
57.6904 -0.125
57.7206 -0.165
57.7509 0.107
57.7812 -0.037
57.8115 -0.076
57.8417 0.093
57.8720 -0.050
57.9023 -0.037
57.9326 -0.075
57.9629 -0.061
57.9931 -0.203
58.0234 0.229
58.0537 -0.069
58.0840 -0.106
58.1143 -0.142
58.1445 0.030
58.1748 0.046
58.2051 -0.042
58.2354 -0.494
58.2656 0.085
58.2959 0.247
58.3262 -0.007
58.3565 -0.001
58.3868 -0.411
58.4170 0.482
58.4473 0.020
58.4776 0.028
58.5079 0.453
58.5382 -0.581
58.5684 0.261
58.5987 -0.355
58.6290 -0.033
58.6593 -0.076
58.6896 0.038
58.7198 0.100
58.7501 0.006
58.7804 -0.035
58.8107 0.080
58.8409 0.508
58.8712 -0.002
58.9015 0.010
58.9318 0.022
58.9621 -0.121
58.9923 -0.213
59.0226 0.008
59.0529 -0.239
59.0832 -0.190
59.1135 0.223
59.1437 -0.040
59.1740 -0.147
59.2043 -0.201
59.2346 0.787
59.2648 -0.465
59.2951 0.575
59.3254 0.679
59.3557 -0.312
59.3860 -0.052
59.4162 0.156
59.4465 -0.260
59.4768 0.157
59.5071 -0.363
59.5374 -0.105
59.5676 -0.160
59.5979 -0.214
59.6282 0.358
59.6585 0.148
59.6887 -0.009
59.7190 -0.479
59.7493 0.094
59.7796 0.198
59.8099 0.146
59.8401 0.354
59.8704 -0.009
59.9007 -0.112
59.9310 -0.007
59.9613 -0.057
59.9915 -0.108
60.0218 -0.105
60.0521 -0.259
60.0824 0.156
60.1126 -0.158
60.1429 -0.107
60.1732 -0.212
60.2035 0.048
60.2338 0.152
60.2640 -0.004
60.2943 -0.055
60.3246 0.258
60.3549 -0.470
60.3852 -0.052
60.4154 -0.363
60.4457 0.101
60.4760 0.097
60.5063 0.302
60.5365 0.194
60.5668 -0.069
60.5971 0.397
60.6274 0.394
60.6577 0.340
60.6879 0.650
60.7182 0.284
60.7485 0.335
60.7788 0.230
60.8091 -0.240
60.8393 0.697
60.8696 0.124
60.8999 -0.188
60.9302 0.125
60.9604 -0.135
60.9907 0.075
61.0210 0.388
61.0513 -0.079
61.0816 -0.285
61.1118 0.115
61.1421 0.462
61.1724 -0.127
61.2027 0.169
61.2330 -0.263
61.2632 0.451
61.2935 0.592
61.3238 0.264
61.3541 -0.219
61.3844 0.183
61.4146 0.742
61.4449 0.207
61.4752 -0.379
61.5055 0.077
61.5357 -0.040
61.5660 0.207
61.5963 0.403
61.6266 0.392
61.6569 0.380
61.6871 -0.048
61.7174 0.149
61.7477 -0.226
61.7780 0.388
61.8083 0.326
61.8385 0.056
61.8688 0.307
61.8991 0.974
61.9294 0.288
61.9596 0.488
61.9899 0.584
62.0202 -0.205
62.0505 0.256
62.0808 0.821
62.1110 1.283
62.1413 0.442
62.1716 0.905
62.2019 1.002
62.2322 1.361
62.2624 1.407
62.2927 2.340
62.3230 2.334
62.3533 1.809
62.3835 2.481
62.4138 2.738
62.4441 3.828
62.4744 4.345
62.5047 2.987
62.5349 5.432
62.5652 5.430
62.5955 6.365
62.6258 7.144
62.6561 7.611
62.6863 8.755
62.7166 8.858
62.7469 9.274
62.7772 7.555
62.8074 8.127
62.8377 6.773
62.8680 7.242
62.8983 5.888
62.9286 6.306
62.9588 4.849
62.9891 4.642
63.0194 3.654
63.0497 3.136
63.0800 2.200
63.1102 1.682
63.1405 1.998
63.1708 2.366
63.2011 2.682
63.2313 1.540
63.2616 0.919
63.2919 1.288
63.3222 0.772
63.3525 0.881
63.3827 0.314
63.4130 0.736
63.4433 0.950
63.4736 0.904
63.5039 0.234
63.5341 0.137
63.5644 0.300
63.5947 -0.213
63.6250 0.055
63.6552 0.844
63.6855 -0.033
63.7158 -0.180
63.7461 -0.276
63.7764 -0.005
63.8066 0.110
63.8369 0.381
63.8672 -0.129
63.8975 0.299
63.9278 -0.262
63.9580 0.271
63.9883 0.022
64.0186 -0.017
64.0489 0.256
64.0791 -0.251
64.1094 -0.186
64.1397 -0.172
64.1700 -0.158
64.2003 -0.196
64.2305 0.131
64.2608 -0.062
64.2911 0.214
64.3214 0.021
64.3517 0.922
64.3819 0.417
64.4122 0.590
64.4425 0.034
64.4728 -0.157
64.5031 -0.244
64.5333 0.081
64.5636 0.563
64.5939 0.003
64.6242 0.538
64.6544 -0.073
64.6847 -0.163
64.7150 0.685
64.7453 0.023
64.7756 0.559
64.8058 0.054
64.8361 -0.035
64.8664 -0.227
64.8967 -0.087
64.9270 0.000
64.9572 0.297
64.9875 0.646
65.0178 0.057
65.0481 -0.010
65.0783 0.652
65.1086 0.012
65.1389 -0.054
65.1692 0.192
65.1995 0.387
65.2297 -0.043
65.2600 0.517
65.2903 -0.121
65.3206 0.283
65.3509 0.219
65.3811 -0.158
65.4114 -0.013
65.4417 0.028
65.4720 0.173
65.5022 0.214
65.5325 -0.056
65.5628 0.454
65.5931 0.028
65.6234 0.539
65.6536 0.426
65.6839 0.781
65.7142 -0.113
65.7445 0.296
65.7748 -0.546
65.8050 -0.250
65.8353 0.775
65.8656 0.655
65.8959 0.118
65.9261 0.051
65.9564 0.348
65.9867 0.073
66.0170 0.110
66.0473 0.564
66.0775 0.342
66.1078 0.641
66.1381 0.575
66.1684 0.979
66.1987 0.080
66.2289 0.693
66.2592 0.941
66.2895 0.460
66.3198 0.813
66.3500 1.010
66.3803 0.374
66.4106 0.936
66.4409 -0.012
66.4712 1.020
66.5014 0.228
66.5317 0.740
66.5620 0.366
66.5923 -0.164
66.6226 -0.016
66.6528 -0.337
66.6831 0.070
66.7134 -0.096
66.7437 -0.210
66.7739 0.407
66.8042 0.658
66.8345 -0.027
66.8648 0.069
66.8951 -0.147
66.9253 0.263
66.9556 -0.265
66.9859 0.926
67.0162 -0.174
67.0465 0.236
67.0767 0.074
67.1070 0.277
67.1373 -0.197
67.1676 0.423
67.1978 0.835
67.2281 0.414
67.2584 0.461
67.2887 0.510
67.3190 0.871
67.3492 0.711
67.3795 0.917
67.4098 0.966
67.4401 1.537
67.4704 1.222
67.5006 1.377
67.5309 2.261
67.5612 2.572
67.5915 2.363
67.6218 2.832
67.6520 2.831
67.6823 4.446
67.7126 5.384
67.7429 4.343
67.7731 6.063
67.8034 5.179
67.8337 4.763
67.8640 4.401
67.8943 5.653
67.9245 5.291
67.9548 5.085
67.9851 4.880
68.0154 3.685
68.0457 3.845
68.0759 3.329
68.1062 3.541
68.1365 1.567
68.1668 1.936
68.1970 1.629
68.2273 2.884
68.2576 1.380
68.2879 1.281
68.3182 1.704
68.3484 0.669
68.3787 1.249
68.4090 0.007
68.4393 1.316
68.4696 0.960
68.4998 0.551
68.5301 1.080
68.5604 1.193
68.5907 1.098
68.6209 0.951
68.6512 0.440
68.6815 1.283
68.7118 1.450
68.7421 2.398
68.7723 0.950
68.8026 1.482
68.8329 2.015
68.8632 1.558
68.8935 3.184
68.9237 2.207
68.9540 1.959
68.9843 3.118
69.0146 1.673
69.0448 1.947
69.0751 2.273
69.1054 1.975
69.1357 1.521
69.1660 1.379
69.1962 1.134
69.2265 0.889
69.2568 1.008
69.2871 0.712
69.3174 0.988
69.3476 1.474
69.3779 0.501
69.4082 0.518
69.4385 0.483
69.4687 0.345
69.4990 0.207
69.5293 0.381
69.5596 -0.277
69.5899 0.262
69.6201 -0.083
69.6504 0.457
69.6807 0.165
69.7110 -0.440
69.7413 -0.003
69.7715 -0.086
69.8018 0.247
69.8321 0.372
69.8624 0.655
69.8926 0.416
69.9229 0.022
69.9532 0.357
69.9835 0.379
70.0138 0.559
70.0440 -0.043
70.0743 0.085
70.1046 -0.047
70.1349 -0.023
70.1652 -0.311
70.1954 0.053
70.2257 0.000
70.2560 0.416
70.2863 -0.157
70.3166 0.364
70.3468 0.834
70.3771 0.262
70.4074 0.315
70.4377 0.316
70.4679 -0.151
70.4982 -0.045
70.5285 -0.094
70.5588 0.325
70.5891 -0.037
70.6193 0.435
70.6496 0.178
70.6799 0.547
70.7102 0.186
70.7405 -0.122
70.7707 0.091
70.8010 -0.008
70.8313 0.310
70.8616 -0.309
70.8918 0.374
70.9221 -0.089
70.9524 0.074
70.9827 0.237
71.0130 0.661
71.0432 0.720
71.0735 0.103
71.1038 -0.202
71.1341 -0.104
71.1644 -0.057
71.1946 0.302
71.2249 0.244
71.2552 0.344
71.2855 0.391
71.3157 -0.186
71.3460 0.226
71.3763 0.014
71.4066 0.115
71.4369 0.216
71.4671 0.213
71.4974 0.159
71.5277 -0.208
71.5580 -0.162
71.5883 0.197
71.6185 -0.225
71.6488 -0.126
71.6791 0.182
71.7094 0.177
71.7396 -0.087
71.7699 0.065
71.8002 -0.043
71.8305 -0.046
71.8608 -0.205
71.8910 0.157
71.9213 -0.262
71.9516 0.309
71.9819 0.255
72.0122 0.149
72.0424 -0.008
72.0727 0.147
72.1030 -0.114
72.1333 0.094
72.1635 -0.322
72.1938 0.772
72.2241 0.460
72.2544 0.149
72.2847 0.566
72.3149 0.151
72.3452 0.622
72.3755 0.520
72.4058 0.835
72.4361 0.421
72.4663 0.684
72.4966 0.011
72.5269 0.691
72.5572 0.695
72.5874 0.387
72.6177 0.079
72.6480 0.136
72.6783 0.662
72.7086 0.459
72.7388 0.204
72.7691 0.679
72.7994 0.112
72.8297 0.015
72.8600 -0.030
72.8902 -0.179
72.9205 0.245
72.9508 -0.008
72.9811 -0.312
73.0113 0.582
73.0416 -0.243
73.0719 0.027
73.1022 0.140
73.1325 -0.215
73.1627 0.107
73.1930 -0.195
73.2233 -0.192
73.2536 0.019
73.2839 0.179
73.3141 0.235
73.3444 -0.022
73.3747 -0.017
73.4050 0.091
73.4353 -0.112
73.4655 -0.003
73.4958 0.055
73.5261 0.061
73.5564 0.223
73.5866 -0.135
73.6169 -0.285
73.6472 0.180
73.6775 0.228
73.7078 0.172
73.7380 0.272
73.7683 0.061
73.7986 -0.099
73.8289 0.055
73.8592 0.209
73.8894 -0.158
73.9197 0.205
73.9500 0.203
73.9803 -0.006
74.0105 -0.163
74.0408 -0.060
74.0711 -0.112
74.1014 0.304
74.1317 0.201
74.1619 0.045
74.1922 0.098
74.2225 0.255
74.2528 -0.160
74.2831 0.102
74.3133 0.261
74.3436 -0.414
74.3739 0.005
74.4042 0.008
74.4344 -0.040
74.4647 -0.037
74.4950 -0.137
74.5253 -0.133
74.5556 -0.233
74.5858 0.185
74.6161 -0.023
74.6464 0.343
74.6767 0.032
74.7070 0.033
74.7372 0.608
74.7675 0.090
74.7978 0.040
74.8281 0.200
74.8583 -0.110
74.8886 0.154
74.9189 -0.415
74.9492 -0.103
74.9795 0.261
75.0097 -0.104
75.0400 -0.104
75.0703 0.261
75.1006 0.209
75.1309 -0.363
75.1611 -0.162
75.1914 0.299
75.2217 -0.125
75.2520 0.076
75.2822 0.121
75.3125 -0.093
75.3428 -0.152
75.3731 -0.053
75.4034 -0.215
75.4336 0.248
75.4639 -0.121
75.4942 -0.126
75.5245 0.286
75.5548 0.126
75.5850 -0.138
75.6153 0.171
75.6456 0.584
75.6759 -0.200
75.7061 -0.150
75.7364 0.108
75.7667 -0.363
75.7970 -0.052
75.8273 -0.209
75.8575 0.363
75.8878 0.259
75.9181 0.154
75.9484 0.207
75.9787 0.311
76.0089 -0.052
76.0392 0.261
76.0695 0.002
76.0998 0.264
76.1301 -0.203
76.1603 0.373
76.1906 -0.198
76.2209 -0.195
76.2512 0.165
76.2814 0.422
76.3117 -0.103
76.3420 -0.002
76.3723 0.203
76.4026 0.148
76.4328 -0.063
76.4631 0.039
76.4934 0.141
76.5237 0.244
76.5540 0.190
76.5842 0.189
76.6145 0.084
76.6448 -0.124
76.6751 0.344
76.7053 1.074
76.7356 0.605
76.7659 0.085
76.7962 0.659
76.8265 0.712
76.8567 0.870
76.8870 0.716
76.9173 0.145
76.9476 0.773
76.9779 0.776
77.0081 0.779
77.0384 0.366
77.0687 0.421
77.0990 0.738
77.1292 0.482
77.1595 0.538
77.1898 0.387
77.2201 0.184
77.2504 0.867
77.2806 0.560
77.3109 0.306
77.3412 0.312
77.3715 -0.150
77.4018 -0.039
77.4320 -0.188
77.4623 0.018
77.4926 -0.036
77.5229 0.170
77.5531 0.065
77.5834 -0.249
77.6137 0.271
77.6440 0.218
77.6743 0.322
77.7045 0.426
77.7348 -0.043
77.7651 0.218
77.7954 0.427
77.8257 -0.040
77.8559 0.013
77.8862 -0.037
77.9165 0.069
77.9468 -0.137
77.9770 0.074
78.0073 -0.027
78.0376 -0.285
78.0679 0.079
78.0982 0.027
78.1284 0.756
78.1587 0.131
78.1890 0.028
78.2193 0.393
78.2496 0.238
78.2798 0.083
78.3101 0.294
78.3404 0.348
78.3707 0.142
78.4009 0.301
78.4312 -0.321
78.4615 -0.214
78.4918 0.675
78.5221 0.158
78.5523 0.006
78.5826 0.323
78.6129 0.015
78.6432 0.125
78.6735 -0.130
78.7037 0.084
78.7340 -0.015
78.7643 0.200
78.7946 0.363
78.8248 -0.047
78.8551 0.064
78.8854 0.280
78.9157 0.028
78.9460 -0.173
78.9762 -0.026
79.0065 0.278
79.0368 -0.095
79.0671 0.365
79.0974 0.305
79.1276 -0.015
79.1579 0.290
79.1882 -0.081
79.2185 0.068
79.2488 0.218
79.2790 0.368
79.3093 -0.002
79.3396 0.096
79.3699 0.351
79.4001 0.190
79.4304 0.081
79.4607 0.181
79.4910 0.125
79.5213 0.173
79.5515 0.222
79.5818 -0.146
79.6121 0.059
79.6424 0.213
79.6727 0.055
79.7029 0.001
79.7332 0.207
79.7635 -0.159
79.7938 -0.160
79.8240 -0.056
79.8543 0.308
79.8846 0.047
79.9149 -0.161
79.9452 0.308
79.9754 0.048
80.0057 0.258
80.0360 -0.262
80.0663 0.000
80.0966 -0.154
80.1268 0.265
80.1571 0.215
80.1874 0.218
80.2177 0.065
80.2479 -0.557
80.2782 0.332
80.3085 0.336
80.3388 0.132
80.3691 0.085
80.3993 -0.171
80.4296 0.095
80.4599 -0.317
80.4902 0.054
80.5205 0.372
80.5507 0.170
80.5810 -0.083
80.6113 -0.180
80.6416 0.074
80.6718 0.224
80.7021 0.271
80.7324 0.422
80.7627 -0.052
80.7930 0.152
80.8232 -0.060
80.8535 -0.012
80.8838 0.349
80.9141 0.189
80.9444 -0.075
80.9746 1.016
81.0049 0.128
81.0352 0.282
81.0655 0.697
81.0957 0.539
81.1260 0.121
81.1563 0.016
81.1866 0.328
81.2169 0.328
81.2471 0.484
81.2774 0.536
81.3077 0.589
81.3380 0.277
81.3683 0.434
81.3985 0.332
81.4288 0.489
81.4591 0.596
81.4894 0.338
81.5196 0.653
81.5499 0.603
81.5802 0.294
81.6105 0.506
81.6408 -0.063
81.6710 0.410
81.7013 0.362
81.7316 0.314
81.7619 0.476
81.7922 0.637
81.8224 0.070
81.8527 0.388
81.8830 -0.022
81.9133 0.401
81.9436 0.199
81.9738 0.519
82.0041 0.266
82.0344 0.326
82.0647 0.542
82.0949 0.446
82.1252 0.142
82.1555 -0.005
82.1858 0.160
82.2161 0.430
82.2463 0.492
82.2766 -0.227
82.3069 0.148
82.3372 -0.206
82.3675 -0.109
82.3977 0.510
82.4280 0.192
82.4583 0.342
82.4886 0.233
82.5188 0.280
82.5491 0.327
82.5794 0.635
82.6097 0.266
82.6400 0.002
82.6702 -0.001
82.7005 -0.057
82.7308 0.461
82.7611 0.302
82.7914 0.039
82.8216 -0.015
82.8519 -0.173
82.8822 -0.022
82.9125 0.441
82.9427 0.175
82.9730 0.014
83.0033 0.322
83.0336 0.317
83.0639 0.261
83.0941 0.257
83.1244 -0.007
83.1547 -0.062
83.1850 0.300
83.2153 -0.016
83.2455 0.243
83.2758 0.084
83.3061 -0.022
83.3364 0.081
83.3666 -0.180
83.3969 -0.081
83.4272 0.228
83.4575 0.068
83.4878 0.116
83.5180 0.321
83.5483 0.058
83.5786 0.159
83.6089 0.157
83.6392 -0.470
83.6694 0.153
83.6997 0.256
83.7300 -0.057
83.7603 0.202
83.7905 0.097
83.8208 0.253
83.8511 0.462
83.8814 0.462
83.9117 -0.266
83.9419 0.464
83.9722 -0.004
84.0025 0.362
84.0328 0.156
84.0631 -0.206
84.0933 -0.100
84.1236 0.008
84.1539 -0.249
84.1842 0.380
84.2144 0.227
84.2447 -0.081
84.2750 -0.233
84.3053 0.130
84.3356 0.285
84.3658 0.231
84.3961 0.334
84.4264 0.125
84.4567 0.021
84.4870 0.437
84.5172 -0.031
84.5475 0.177
84.5778 0.022
84.6081 0.179
84.6383 -0.288
84.6686 -0.078
84.6989 -0.180
84.7292 0.126
84.7595 0.381
84.7897 -0.145
84.8200 0.058
84.8503 0.158
84.8806 -0.159
84.9109 0.254
84.9411 0.094
84.9714 -0.118
85.0017 -0.069
85.0320 0.449
85.0623 0.134
85.0925 0.340
85.1228 0.130
85.1531 -0.185
85.1834 0.074
85.2136 -0.083
85.2439 -0.188
85.2742 -0.084
85.3045 -0.136
85.3348 -0.188
85.3650 -0.086
85.3953 0.173
85.4256 0.276
85.4559 -0.298
85.4862 0.170
85.5164 0.117
85.5467 0.221
85.5770 0.273
85.6073 0.221
85.6375 0.274
85.6678 -0.142
85.6981 0.380
85.7284 -0.087
85.7587 0.019
85.7889 0.177
85.8192 -0.080
85.8495 0.339
85.8798 0.238
85.9101 0.137
85.9403 -0.120
85.9706 0.197
86.0009 0.045
86.0312 -0.159
86.0614 -0.311
86.0917 0.208
86.1220 0.050
86.1523 -0.055
86.1826 -0.108
86.2128 0.360
86.2431 0.151
86.2734 -0.110
86.3037 0.151
86.3340 -0.109
86.3642 -0.108
86.3945 -0.159
86.4248 -0.158
86.4551 0.000
86.4853 -0.206
86.5156 0.047
86.5459 0.354
86.5762 -0.225
86.6065 -0.075
86.6367 0.441
86.6670 -0.137
86.6973 0.118
86.7276 0.218
86.7579 0.058
86.7881 0.054
86.8184 -0.054
86.8487 0.099
86.8790 -0.164
86.9092 0.197
86.9395 0.508
86.9698 0.037
87.0001 0.191
87.0304 -0.175
87.0606 -0.176
87.0909 0.031
87.1212 0.135
87.1515 -0.022
87.1818 -0.178
87.2120 0.291
87.2423 0.344
87.2726 -0.176
87.3029 -0.071
87.3331 0.295
87.3634 0.245
87.3937 0.195
87.4240 -0.167
87.4543 0.252
87.4845 -0.370
87.5148 0.050
87.5451 0.314
87.5754 -0.047
87.6057 0.010
87.6359 0.170
87.6662 0.019
87.6965 0.493
87.7268 -0.335
87.7571 0.348
87.7873 -0.271
87.8176 0.047
87.8479 -0.259
87.8782 -0.006
87.9084 0.351
87.9387 0.031
87.9690 -0.080
87.9993 -0.138
88.0296 0.011
88.0598 -0.047
88.0901 0.156
88.1204 0.151
88.1507 -0.115
88.1810 -0.016
88.2112 -0.020
88.2415 0.080
88.2718 0.336
88.3021 0.280
88.3323 0.381
88.3626 0.118
88.3929 0.011
88.4232 0.269
88.4535 0.215
88.4837 -0.152
88.5140 -0.101
88.5443 -0.207
88.5746 0.147
88.6049 -0.072
88.6351 -0.083
88.6654 0.011
88.6957 0.054
88.7260 -0.112
88.7562 -0.069
88.7865 -0.078
88.8168 -0.035
88.8471 0.269
88.8774 0.522
88.9076 -0.163
88.9379 -0.014
88.9682 -0.126
88.9985 0.805
89.0288 0.642
89.0590 0.375
89.0893 0.890
89.1196 0.155
89.1499 0.671
89.1801 -0.011
89.2104 0.713
89.2407 0.969
89.2710 0.652
89.3013 0.701
89.3315 0.905
89.3618 0.485
89.3921 1.264
89.4224 1.000
89.4527 0.998
89.4829 1.517
89.5132 0.421
89.5435 1.670
89.5738 1.148
89.6040 1.355
89.6343 0.990
89.6646 0.781
89.6949 0.677
89.7252 1.042
89.7554 0.991
89.7857 0.731
89.8160 0.628
89.8463 0.682
89.8766 0.788
89.9068 0.425
89.9371 0.532
89.9674 0.639
89.9977 0.121
90.0279 0.072
90.0582 0.180
90.0885 0.132
90.1188 0.084
90.1491 0.036
90.1793 0.145
90.2096 0.098
90.2399 -0.365
90.2702 0.161
90.3005 0.115
90.3307 0.173
90.3610 0.128
90.3913 0.031
90.4216 0.402
90.4518 0.410
90.4821 0.053
90.5124 -0.199
90.5427 0.486
90.5730 0.026
90.6032 0.087
90.6335 0.044
90.6638 -0.102
90.6941 0.116
90.7244 -0.082
90.7546 0.032
90.7849 0.043
90.8152 -0.102
90.8455 -0.195
90.8758 0.115
90.9060 0.530
90.9363 0.476
90.9666 0.110
90.9969 0.005
91.0271 0.161
91.0574 0.264
91.0877 0.108
91.1180 0.108
91.1483 -0.256
91.1785 0.109
91.2088 0.058
91.2391 -0.565
91.2694 0.374
91.2997 -0.249
91.3299 -0.195
91.3602 0.060
91.3905 -0.206
91.4208 0.414
91.4510 -0.164
91.4813 -0.117
91.5116 0.139
91.5419 0.031
91.5722 -0.129
91.6024 -0.184
91.6327 -0.031
91.6630 -0.190
91.6933 0.328
91.7236 -0.091
91.7538 0.168
91.7841 -0.042
91.8144 -0.095
91.8447 0.216
91.8749 -0.045
91.9052 -0.202
91.9355 0.000
91.9658 -0.580
91.9961 0.195
92.0263 0.137
92.0566 -0.025
92.0869 -0.186
92.1172 0.381
92.1475 0.012
92.1777 0.164
92.2080 -0.257
92.2383 0.000
92.2686 0.256
92.2988 0.305
92.3291 0.198
92.3594 -0.221
92.3897 -0.015
92.4200 0.347
92.4502 0.293
92.4805 0.344
92.5108 0.134
92.5411 -0.023
92.5714 0.914
92.6016 0.237
92.6319 -0.128
92.6622 0.445
92.6925 0.238
92.7227 0.186
92.7530 0.135
92.7833 -0.019
92.8136 0.139
92.8439 0.089
92.8741 0.039
92.9044 0.146
92.9347 0.253
92.9650 -0.264
92.9953 0.208
93.0255 -0.309
93.0558 0.112
93.0861 0.273
93.1164 0.173
93.1466 0.126
93.1769 -0.077
93.2072 -0.019
93.2375 -0.221
93.2678 0.254
93.2980 -0.157
93.3283 -0.202
93.3586 0.111
93.3889 0.475
93.4192 0.267
93.4494 0.268
93.4797 0.061
93.5100 0.427
93.5403 0.168
93.5706 0.274
93.6008 -0.036
93.6311 0.331
93.6614 0.073
93.6917 0.024
93.7219 0.080
93.7522 0.240
93.7825 0.244
93.8128 0.456
93.8431 -0.164
93.8733 -0.159
93.9036 0.210
93.9339 -0.097
93.9642 -0.195
93.9945 -0.156
94.0247 -0.012
94.0550 -0.025
94.0853 0.119
94.1156 0.055
94.1458 0.512
94.1761 0.084
94.2064 0.073
94.2367 -0.093
94.2670 0.313
94.2972 -0.010
94.3275 0.085
94.3578 0.231
94.3881 0.118
94.4184 0.005
94.4486 0.048
94.4789 0.040
94.5092 0.032
94.5395 -0.184
94.5697 -0.087
94.6000 0.114
94.6303 0.211
94.6606 -0.160
94.6909 -0.010
94.7211 0.089
94.7514 -0.229
94.7817 0.182
94.8120 0.542
94.8423 0.589
94.8725 0.168
94.9028 0.632
94.9331 0.212
94.9634 1.354
94.9936 0.518
95.0239 0.827
95.0542 1.398
95.0845 0.458
95.1148 0.560
95.1450 0.350
95.1753 0.401
95.2056 0.816
95.2359 1.076
95.2662 1.492
95.2964 1.075
95.3267 0.763
95.3570 0.711
95.3873 0.034
95.4175 0.608
95.4478 0.818
95.4781 0.194
95.5084 0.509
95.5387 0.303
95.5689 0.566
95.5992 0.256
95.6295 0.780
95.6598 0.158
95.6901 -0.047
95.7203 0.270
95.7506 0.066
95.7809 0.018
95.8112 0.075
95.8414 0.080
95.8717 0.034
95.9020 -0.221
95.9323 -0.060
95.9626 -0.056
95.9928 0.105
96.0231 0.059
96.0534 0.377
96.0837 0.018
96.1140 0.597
96.1442 0.083
96.1745 0.350
96.2048 0.409
96.2351 0.260
96.2653 -0.305
96.2956 -0.193
96.3259 -0.029
96.3562 0.084
96.3865 0.197
96.4167 0.102
96.4470 0.163
96.4773 0.017
96.5076 0.235
96.5379 -0.380
96.5681 -0.004
96.5984 -0.202
96.6287 -0.146
96.6590 -0.193
96.6893 -0.085
96.7195 -0.028
96.7498 0.238
96.7801 0.191
96.8104 -0.167
96.8406 0.151
96.8709 0.835
96.9012 0.529
96.9315 0.328
96.9618 0.491
96.9920 0.343
97.0223 -0.014
97.0526 -0.058
97.0829 0.211
97.1132 -0.145
97.1434 -0.188
97.1737 0.113
97.2040 -0.002
97.2343 0.195
97.2645 0.601
97.2948 0.122
97.3251 -0.097
97.3554 0.050
97.3857 -0.220
97.4159 0.083
97.4462 -0.134
97.4765 -0.195
97.5068 0.369
97.5371 0.257
97.5673 0.250
97.5976 0.398
97.6279 -0.026
97.6582 -0.189
97.6884 -0.039
97.7187 0.111
97.7490 -0.207
97.7793 0.204
97.8096 0.198
97.8398 -0.223
97.8701 0.032
97.9004 0.028
97.9307 0.284
97.9610 0.280
97.9912 0.016
98.0215 0.430
98.0518 0.531
98.0821 0.268
98.1123 0.161
98.1426 0.159
98.1729 0.157
98.2032 0.156
98.2335 -0.158
98.2637 0.310
98.2940 0.153
98.3243 0.465
98.3546 0.361
98.3849 0.674
98.4151 0.727
98.4454 0.311
98.4757 -0.052
98.5060 0.470
98.5362 0.420
98.5665 -0.047
98.5968 0.633
98.6271 0.844
98.6574 0.066
98.6876 0.225
98.7179 0.229
98.7482 0.493
98.7785 0.289
98.8088 0.502
98.8390 0.246
98.8693 -0.165
98.8996 0.100
98.9299 0.002
98.9601 0.477
98.9904 0.014
99.0207 0.385
99.0510 -0.233
99.0813 -0.331
99.1115 0.301
99.1418 0.151
99.1721 0.106
99.2024 -0.147
99.2327 -0.035
99.2629 0.025
99.2932 -0.227
99.3235 0.563
99.3538 0.260
99.3841 0.686
99.4143 -0.190
99.4446 -0.233
99.4749 0.232
99.5052 0.385
99.5354 0.225
99.5657 0.170
99.5960 0.324
99.6263 0.113
99.6566 0.215
99.6868 0.161
99.7171 0.004
99.7474 -0.102
99.7777 -0.155
99.8080 0.001
99.8382 0.157
99.8685 0.053
99.8988 -0.155
99.9291 -0.259
99.9593 0.211
99.9896 -0.151
100.0199 0.215
100.0502 -0.460
100.0805 -0.145
100.1107 -0.142
100.1410 0.018
100.1713 0.282
100.2016 0.077
100.2319 0.185
100.2621 0.033
100.2924 0.351
100.3227 0.408
100.3530 -0.212
100.3832 -0.207
100.4135 0.257
100.4438 -0.060
100.4741 0.092
100.5044 0.244
100.5346 0.240
100.5649 -0.076
100.5952 0.181
100.6255 -0.186
100.6558 0.436
100.6860 0.381
100.7163 0.327
100.7466 -0.091
100.7769 0.376
100.8071 0.115
100.8374 0.010
100.8677 0.113
100.8980 -0.043
100.9283 0.165
100.9585 0.113
100.9888 -0.199
101.0191 0.063
101.0494 -0.092
101.0797 -0.195
101.1099 -0.045
101.1402 0.157
101.1705 -0.161
101.2008 0.094
101.2310 -0.120
101.2613 -0.020
101.2916 0.913
101.3219 0.023
101.3522 -0.137
101.3824 0.171
101.4127 -0.040
101.4430 0.165
101.4733 -0.046
101.5036 0.003
101.5338 0.001
101.5641 -0.001
101.5944 0.258
101.6247 -0.160
101.6549 -0.005
101.6852 -0.110
101.7155 -0.006
101.7458 0.307
101.7761 -0.162
101.8063 -0.266
101.8366 0.412
101.8669 0.413
101.8972 0.363
101.9275 -0.052
101.9577 -0.415
101.9880 0.105
102.0183 0.260
102.0486 0.104
102.0788 0.103
102.1091 -0.209
102.1394 0.208
102.1697 0.053
102.2000 -0.102
102.2302 -0.049
102.2605 0.005
102.2908 -0.202
102.3211 -0.104
102.3514 -0.057
102.3816 0.094
102.4119 0.453
102.4422 0.553
102.4725 0.183
102.5028 0.492
102.5330 -0.137
102.5633 0.224
102.5936 0.429
102.6239 0.478
102.6541 0.059
102.6844 0.160
102.7147 0.054
102.7450 0.052
102.7753 0.311
102.8055 0.570
102.8358 0.361
102.8661 0.100
102.8964 0.256
102.9267 0.516
102.9569 0.673
102.9872 0.361
103.0175 0.674
103.0478 0.884
103.0780 0.156
103.1083 -0.311
103.1386 -0.113
103.1689 0.241
103.1992 0.856
103.2294 0.273
103.2597 0.524
103.2900 0.202
103.3203 0.401
103.3506 0.132
103.3808 0.488
103.4111 0.585
103.4414 0.004
103.4717 -0.056
103.5019 0.458
103.5322 0.816
103.5625 0.340
103.5928 0.282
103.6231 0.120
103.6533 0.479
103.6836 0.213
103.7139 0.781
103.7442 0.828
103.7745 0.355
103.8047 -0.014
103.8350 0.399
103.8653 0.708
103.8956 0.548
103.9258 0.493
103.9561 1.428
103.9864 0.696
104.0167 0.954
104.0470 0.536
104.0772 0.535
104.1075 0.065
104.1378 0.897
104.1681 0.844
104.1984 1.104
104.2286 0.479
104.2589 0.271
104.2892 0.324
104.3195 0.846
104.3497 0.170
104.3800 0.171
104.4103 0.434
104.4406 -0.085
104.4709 0.386
104.5011 0.337
104.5314 0.079
104.5617 0.239
104.5920 0.034
104.6223 -0.014
104.6525 0.042
104.6828 0.098
104.7131 0.207
104.7434 -0.412
104.7736 0.530
104.8039 0.432
104.8342 0.073
104.8645 -0.181
104.8948 -0.174
104.9250 0.041
104.9553 -0.056
104.9856 0.212
105.0159 0.324
105.0462 0.228
105.0764 -0.493
105.1067 -0.173
105.1370 0.043
105.1673 0.259
105.1975 -0.098
105.2278 -0.193
105.2581 0.076
105.2884 0.241
105.3187 0.042
105.3489 -0.208
105.3792 -0.208
105.4095 0.158
105.4398 0.055
105.4701 0.005
105.5003 0.371
105.5306 -0.095
105.5609 -0.041
105.5912 -0.038
105.6215 -0.087
105.6517 -0.031
105.6820 0.233
105.7123 0.185
105.7426 -0.228
105.7728 0.246
105.8031 -0.062
105.8334 -0.005
105.8637 0.261
105.8940 -0.202
105.9242 -0.259
105.9545 0.257
105.9848 0.460
106.0151 0.090
106.0454 -0.383
106.0756 0.185
106.1059 -0.235
106.1362 -0.031
106.1665 -0.346
106.1967 0.223
106.2270 0.012
106.2573 -0.147
106.2876 -0.045
106.3179 0.006
106.3481 -0.152
106.3784 0.159
106.4087 -0.259
106.4390 -0.106
106.4693 -0.005
106.4995 -0.008
106.5298 -0.166
106.5601 -0.116
106.5904 -0.014
106.6206 0.141
106.6509 -0.538
106.6812 0.034
106.7115 -0.071
106.7418 -0.019
106.7720 -0.071
106.8023 -0.019
106.8326 0.138
106.8629 -0.069
106.8932 -0.693
106.9234 0.194
106.9537 0.195
106.9840 -0.115
107.0143 -0.061
107.0445 -0.267
107.0748 0.205
107.1051 -0.208
107.1354 -0.206
107.1657 0.162
107.1959 -0.147
107.2262 0.169
107.2565 0.069
107.2868 -0.031
107.3171 0.025
107.3473 -0.126
107.3776 0.452
107.4079 0.353
107.4382 -0.214
107.4684 -0.104
107.4987 0.476
107.5290 -0.299
107.5593 0.072
107.5896 -0.129
107.6198 0.452
107.6501 0.147
107.6804 0.259
107.7107 0.007
107.7410 -0.036
107.7712 0.285
107.8015 0.191
107.8318 -0.008
107.8621 -0.207
107.8923 0.049
107.9226 0.410
107.9529 0.198
107.9832 0.142
108.0135 0.243
108.0437 0.032
108.0740 -0.179
108.1043 0.027
108.1346 -0.183
108.1649 -0.029
108.1951 0.283
108.2254 0.177
108.2557 0.229
108.2860 0.228
108.3163 -0.033
108.3465 0.332
108.3768 -0.084
108.4071 -0.031
108.4374 0.178
108.4676 -0.081
108.4979 0.181
108.5282 -0.078
108.5585 -0.023
108.5888 0.292
108.6190 0.451
108.6493 0.089
108.6796 0.301
108.7099 0.148
108.7402 -0.056
108.7704 0.105
108.8007 0.057
108.8310 0.322
108.8613 -0.402
108.8915 -0.188
108.9218 -0.080
108.9521 0.183
108.9824 0.395
109.0127 0.452
109.0429 0.039
109.0732 0.200
109.1035 0.153
109.1338 -0.206
109.1641 -0.113
109.1943 0.084
109.2246 0.022
109.2549 -0.093
109.2852 0.418
109.3154 0.252
109.3457 0.608
109.3760 0.390
109.4063 0.069
109.4366 0.165
109.4668 0.001
109.4971 -0.007
109.5274 0.142
109.5577 0.030
109.5880 0.648
109.6182 0.069
109.6485 -0.042
109.6788 0.213
109.7091 -0.001
109.7393 -0.007
109.7696 -0.116
109.7999 0.244
109.8302 0.291
109.8605 -0.025
109.8907 0.023
109.9210 -0.189
109.9513 0.172
109.9816 0.117
110.0119 0.218
110.0421 -0.305
110.0724 0.370
110.1027 0.420
110.1330 0.315
110.1632 0.261
110.1935 0.000
110.2238 0.416
110.2541 0.208
110.2844 0.572
110.3146 -0.157
110.3449 -0.208
110.3752 0.048
110.4055 0.045
110.4358 0.042
110.4660 0.612
110.4963 0.402
110.5266 0.556
110.5569 0.242
110.5871 0.292
110.6174 0.083
110.6477 0.186
110.6780 0.185
110.7083 0.185
110.7385 -0.023
110.7688 0.498
110.7991 0.290
110.8294 -0.074
110.8597 0.084
110.8899 0.450
110.9202 0.452
110.9505 0.037
110.9808 0.144
111.0110 0.042
111.0413 0.306
111.0716 0.465
111.1019 0.469
111.1322 -0.048
111.1624 0.112
111.1927 0.117
111.2230 0.121
111.2533 -0.082
111.2836 -0.233
111.3138 0.132
111.3441 -0.441
111.3744 -0.078
111.4047 -0.444
111.4350 0.493
111.4652 0.284
111.4955 0.232
111.5258 -0.341
111.5561 0.023
111.5863 0.128
111.6166 -0.027
111.6469 0.547
111.6772 -0.285
111.7075 0.290
111.7377 -0.125
111.7680 0.086
111.7983 -0.068
111.8286 -0.377
111.8589 0.303
111.8891 0.307
111.9194 -0.054
111.9497 -0.102
111.9800 0.111
112.0102 -0.249
112.0405 0.381
112.0708 0.022
112.1011 -0.285
112.1314 0.031
112.1616 -0.174
112.1919 0.298
112.2222 -0.010
112.2525 -0.058
112.2828 0.259
112.3130 0.368
112.3433 0.061
112.3736 0.222
112.4039 0.072
112.4341 -0.078
112.4644 0.084
112.4947 0.039
112.5250 0.515
112.5553 0.157
112.5855 -0.095
112.6158 0.173
112.6461 -0.027
112.6764 0.346
112.7067 0.146
112.7369 0.832
112.7672 0.269
112.7975 -0.086
112.8278 -0.180
112.8580 -0.086
112.8883 -0.147
112.9186 0.157
112.9489 0.097
112.9792 0.245
113.0094 -0.076
113.0397 0.282
113.0700 0.326
113.1003 0.163
113.1306 0.209
113.1608 0.098
113.1911 0.092
113.2214 0.347
113.2517 0.289
113.2819 0.024
113.3122 -0.033
113.3425 -0.194
113.3728 0.375
113.4031 0.058
113.4333 -0.310
113.4636 0.208
113.4939 0.205
113.5242 -0.058
113.5545 0.095
113.5847 -0.011
113.6150 0.248
113.6453 -0.118
113.6756 0.193
113.7058 -0.016
113.7361 0.347
113.7664 0.347
113.7967 -0.018
113.8270 -0.017
113.8572 -0.225
113.8875 0.192
113.9178 -0.015
113.9481 0.195
113.9784 0.145
114.0086 -0.270
114.0389 0.149
114.0692 0.152
114.0995 0.103
114.1298 -0.363
114.1600 -0.056
114.1903 0.200
114.2206 -0.221
114.2509 0.087
114.2811 0.187
114.3114 0.131
114.3417 0.232
114.3720 -0.448
114.4023 -0.087
114.4325 -0.193
114.4628 0.117
114.4931 0.479
114.5234 0.113
114.5537 0.060
114.5839 0.111
114.6142 0.110
114.6445 -0.255
114.6748 0.734
114.7050 0.162
114.7353 0.006
114.7656 -0.202
114.7959 0.000
114.8262 0.358
114.8564 0.405
114.8867 0.086
114.9170 -0.023
114.9473 0.389
114.9776 0.748
115.0078 0.171
115.0381 0.063
115.0684 -0.097
115.0987 0.212
115.1289 -0.208
115.1592 -0.220
115.1895 0.393
115.2198 0.642
115.2501 0.371
115.2803 0.204
115.3106 0.298
115.3409 0.496
115.3712 0.174
115.4015 0.425
115.4317 -0.262
115.4620 0.407
115.4923 0.138
115.5226 0.025
115.5528 0.330
115.5831 0.166
115.6134 0.471
115.6437 0.151
115.6740 0.301
115.7042 0.503
115.7345 0.653
115.7648 0.074
115.7951 0.641
115.8254 0.115
115.8556 0.162
115.8859 0.678
115.9162 1.143
115.9465 0.566
115.9767 0.770
116.0070 0.871
116.0373 0.659
116.0676 0.761
116.0979 0.550
116.1281 0.860
116.1584 0.389
116.1887 0.596
116.2190 0.698
116.2493 0.281
116.2795 0.644
116.3098 0.436
116.3401 0.748
116.3704 0.488
116.4006 0.644
116.4309 0.332
116.4612 0.594
116.4915 0.751
116.5218 0.545
116.5520 0.338
116.5823 0.080
116.6126 0.239
116.6429 0.137
116.6732 0.713
116.7034 -0.325
116.7337 0.199
116.7640 -0.109
116.7943 0.520
116.8245 0.316
116.8548 0.425
116.8851 0.014
116.9154 0.280
116.9457 -0.027
116.9759 0.760
117.0062 0.298
117.0365 0.461
117.0668 0.364
117.0971 0.475
117.1273 -0.038
117.1576 0.022
117.1879 0.238
117.2182 0.038
117.2485 0.203
117.2787 -0.048
117.3090 0.170
117.3393 0.075
117.3696 0.085
117.3998 -0.061
117.4301 -0.311
117.4604 0.108
117.4907 0.320
117.5210 0.479
117.5512 0.274
117.5815 0.330
117.6118 -0.031
117.6421 0.286
117.6724 0.187
117.7026 0.035
117.7329 0.457
117.7632 -0.266
117.7935 -0.208
117.8237 0.109
117.8540 0.010
117.8843 0.172
117.9146 0.022
117.9449 0.184
117.9751 0.243
118.0054 0.145
118.0357 -0.212
118.0660 0.212
118.0963 0.272
118.1265 -0.189
118.1568 -0.233
118.1871 0.237
118.2174 -0.179
118.2476 0.031
118.2779 0.085
118.3082 -0.070
118.3385 0.505
118.3688 0.508
118.3990 0.198
118.4293 0.201
118.4596 0.205
118.4899 0.052
118.5202 -0.152
118.5504 0.269
118.5807 -0.039
118.6110 0.018
118.6413 0.388
118.6715 0.237
118.7018 0.295
118.7321 0.041
118.7624 -0.057
118.7927 -0.259
118.8229 0.098
118.8532 0.404
118.8835 -0.228
118.9138 0.338
118.9441 0.279
118.9743 0.430
119.0046 0.163
119.0349 -0.050
119.0652 0.049
119.0954 0.044
119.1257 -0.117
119.1560 0.035
119.1863 -0.125
119.2166 0.027
119.2468 0.128
119.2771 -0.135
119.3074 -0.034
119.3377 0.016
119.3680 0.326
119.3982 -0.249
119.4285 0.375
119.4588 0.061
119.4891 -0.357
119.5193 0.580
119.5496 -0.514
119.5799 -0.202
119.6102 -0.202
119.6405 -0.460
119.6707 0.375
119.7010 0.325
119.7313 0.067
119.7616 0.174
119.7919 0.178
119.8221 0.077
119.8524 -0.023
119.8827 0.137
119.9130 -0.015
119.9433 0.094
119.9735 0.307
120.0038 0.000
