'Id: "" Comment: "" Operator: "Lab Manager" Anode: "Cu" Scantype: "Locked Coupled" TimePerStep: "19.2" X: "9999" Y: "9999" Z: "9999" 
10.0015 0.000
10.0318 0.086
10.0620 4.755
10.0923 7.185
10.1226 12.792
10.1529 9.650
10.1832 22.602
10.2134 20.138
10.2437 22.674
10.2740 30.575
10.3043 40.820
10.3346 42.003
10.3648 42.979
10.3951 37.027
10.4254 50.711
10.4557 46.635
10.4859 54.227
10.5162 56.297
10.5465 59.410
10.5768 67.627
10.6071 66.679
10.6373 65.365
10.6676 69.417
10.6979 71.334
10.7282 68.199
10.7585 71.158
10.7887 75.368
10.8190 75.984
10.8493 74.048
10.8796 68.936
10.9098 66.116
10.9401 61.005
10.9704 64.123
11.0007 66.095
11.0310 66.610
11.0612 57.385
11.0915 57.901
11.1218 56.333
11.1521 50.704
11.1824 56.116
11.2126 43.091
11.2429 40.588
11.2732 42.459
11.3035 36.155
11.3337 37.819
11.3640 36.359
11.3943 36.513
11.4246 32.189
11.4549 27.657
11.4851 29.792
11.5154 29.375
11.5457 22.917
11.5760 22.553
11.6063 19.741
11.6365 22.034
11.6668 18.911
11.6971 18.861
11.7274 21.624
11.7577 20.898
11.7879 18.245
11.8182 17.884
11.8485 16.169
11.8788 16.173
11.9090 17.637
11.9393 17.225
11.9696 18.897
11.9999 22.809
12.0302 17.347
12.0604 21.416
12.0907 18.923
12.1210 24.660
12.1513 20.917
12.1816 20.561
12.2118 24.267
12.2421 21.308
12.2724 15.744
12.3027 15.389
12.3329 14.826
12.3632 7.805
12.3935 7.504
12.4238 3.817
12.4541 6.433
12.4843 0.976
12.5146 -0.418
12.5449 2.303
12.5752 -1.017
12.6055 1.913
12.6357 -2.084
12.6660 -1.393
12.6963 -0.128
12.7266 -1.051
12.7568 -1.504
12.7871 -1.427
12.8174 1.618
12.8477 -0.179
12.8780 0.576
12.9082 -1.429
12.9385 -1.415
12.9688 -1.404
12.9991 1.218
13.0294 -2.252
13.0596 0.632
13.0899 -2.890
13.1202 -0.677
13.1505 -2.161
13.1807 0.718
13.2110 -0.726
13.2413 -0.607
13.2716 1.596
13.3019 0.727
13.3321 1.681
13.3624 -1.897
13.3927 1.662
13.4230 -0.248
13.4533 0.031
13.4835 -0.785
13.5138 1.473
13.5441 -1.216
13.5744 -1.249
13.6046 -2.005
13.6349 1.214
13.6652 -0.722
13.6955 0.050
13.7258 0.406
13.7560 0.815
13.7863 -1.329
13.8166 -0.503
13.8469 2.042
13.8772 0.994
13.9074 1.613
13.9377 4.159
13.9680 0.768
13.9983 0.554
14.0285 0.654
14.0588 -0.184
14.0891 1.791
14.1194 0.954
14.1497 2.044
14.1799 0.739
14.2102 0.997
14.2405 -2.286
14.2708 2.556
14.3011 1.877
14.3313 -1.041
14.3616 -2.396
14.3919 0.942
14.4222 2.353
14.4524 0.431
14.4827 1.843
14.5130 0.391
14.5433 0.032
14.5736 0.716
14.6038 -0.058
14.6341 1.200
14.6644 1.780
14.6947 0.122
14.7250 -0.599
14.7552 0.139
14.7855 -0.112
14.8158 0.262
14.8461 -0.196
14.8764 0.387
14.9066 1.283
14.9369 -1.257
14.9672 0.265
14.9975 -0.036
15.0277 2.268
15.0580 0.249
15.0883 0.627
15.1186 2.620
15.1489 -0.023
15.1791 1.815
15.2094 0.267
15.2397 0.438
15.2700 -0.380
15.3003 0.625
15.3305 0.225
15.3608 1.752
15.3911 1.352
15.4214 0.484
15.4516 2.324
15.4819 3.800
15.5122 0.642
15.5425 -0.746
15.5728 1.461
15.6030 3.512
15.6333 3.636
15.6636 1.520
15.6939 1.593
15.7242 -0.052
15.7544 1.323
15.7847 0.720
15.8150 2.877
15.8453 1.546
15.8755 1.152
15.9058 0.082
15.9361 0.782
15.9664 1.848
15.9967 1.091
16.0269 1.741
16.0572 0.985
16.0875 0.333
16.1178 -1.412
16.1481 1.063
16.1783 0.568
16.2086 0.335
16.2389 0.362
16.2692 0.442
16.2994 1.616
16.3297 1.489
16.3600 1.934
16.3903 -0.537
16.4206 0.274
16.4508 0.044
16.4811 0.856
16.5114 0.001
16.5417 0.397
16.5720 -0.249
16.6022 0.148
16.6325 -1.122
16.6628 0.369
16.6931 -1.994
16.7233 0.227
16.7536 0.678
16.7839 -0.955
16.8142 0.851
16.8445 -1.093
16.8747 -0.799
16.9050 1.891
16.9353 -2.189
16.9656 0.606
16.9959 1.787
17.0261 -0.521
17.0564 0.608
17.0867 -0.710
17.1170 0.108
17.1472 -0.688
17.1775 -1.119
17.2078 0.632
17.2381 0.509
17.2684 1.011
17.2986 0.524
17.3289 -0.328
17.3592 0.228
17.3895 -0.831
17.4198 1.079
17.4500 0.594
17.4803 2.348
17.5106 -0.271
17.5409 -0.131
17.5712 0.636
17.6014 0.673
17.6317 -0.643
17.6620 0.489
17.6923 0.840
17.7225 -0.163
17.7528 0.814
17.7831 1.219
17.8134 -0.929
17.8437 0.570
17.8739 -0.118
17.9042 1.225
17.9345 2.569
17.9648 1.100
17.9951 1.924
18.0253 1.498
18.0556 1.020
18.0859 0.856
18.1162 2.566
18.1464 1.777
18.1767 0.468
18.2070 2.075
18.2373 1.860
18.2676 0.552
18.2978 2.265
18.3281 4.342
18.3584 1.681
18.3887 3.968
18.4190 3.807
18.4492 2.553
18.4795 4.216
18.5098 3.692
18.5401 4.991
18.5703 3.478
18.6006 3.841
18.6309 3.631
18.6612 4.046
18.6915 5.034
18.7217 4.930
18.7520 5.294
18.7823 5.711
18.8126 6.336
18.8429 6.545
18.8731 6.338
18.9034 3.892
18.9337 3.894
18.9640 5.563
18.9942 4.264
19.0245 5.100
19.0548 3.177
19.0851 2.555
19.1154 3.497
19.1456 4.544
19.1759 3.611
19.2062 3.564
19.2365 1.747
19.2668 1.805
19.2970 1.135
19.3273 1.871
19.3576 1.670
19.3879 0.740
19.4181 1.894
19.4484 0.861
19.4787 2.380
19.5090 0.410
19.5393 0.576
19.5695 1.106
19.5998 0.231
19.6301 0.086
19.6604 0.670
19.6907 -0.256
19.7209 2.047
19.7512 2.007
19.7815 0.509
19.8118 0.783
19.8420 1.004
19.8723 0.289
19.9026 1.188
19.9329 0.630
19.9632 -0.293
19.9934 -0.226
20.0237 0.675
20.0540 0.587
20.0843 -0.282
20.1146 1.818
20.1448 -0.092
20.1751 -0.075
20.2054 -0.213
20.2357 -0.038
20.2659 0.449
20.2962 0.728
20.3265 0.227
20.3568 0.299
20.3871 0.058
20.4173 -0.911
20.4476 -0.036
20.4779 -0.150
20.5082 0.310
20.5385 0.665
20.5687 -0.281
20.5990 -0.602
20.6293 0.380
20.6596 -0.148
20.6899 -0.572
20.7201 0.144
20.7504 1.172
20.7807 0.222
20.8110 -0.102
20.8412 1.084
20.8715 -0.854
20.9018 -0.188
20.9321 0.843
20.9624 0.885
20.9926 0.250
21.0229 0.188
21.0532 0.335
21.0835 -0.090
21.1138 0.162
21.1440 0.258
21.1743 0.199
21.2046 0.400
21.2349 1.383
21.2651 -0.343
21.2954 0.432
21.3257 1.625
21.3560 0.578
21.3863 0.364
21.4165 -0.578
21.4468 -0.384
21.4771 0.123
21.5074 -0.307
21.5377 0.617
21.5679 0.292
21.5982 0.644
21.6285 1.049
21.6588 -0.057
21.6890 0.296
21.7193 1.536
21.7496 -0.350
21.7799 0.629
21.8102 0.411
21.8404 0.402
21.8707 0.653
21.9010 -1.126
21.9313 -0.093
21.9616 0.316
21.9918 0.569
22.0221 0.666
22.0524 0.138
22.0827 1.486
22.1129 -0.187
22.1432 -0.036
22.1735 -0.406
22.2038 0.110
22.2341 -0.520
22.2643 -0.420
22.2946 0.722
22.3249 0.094
22.3552 0.924
22.3855 0.140
22.4157 1.336
22.4460 0.500
22.4763 0.499
22.5066 -0.231
22.5368 -0.180
22.5671 0.288
22.5974 0.861
22.6277 -0.440
22.6580 -0.127
22.6882 0.030
22.7185 -0.177
22.7488 -0.539
22.7791 -0.589
22.8094 -0.378
22.8396 -0.167
22.8699 0.670
22.9002 -0.732
22.9305 1.095
22.9607 0.683
22.9910 -0.406
23.0213 1.162
23.0516 0.335
23.0819 1.591
23.1121 -0.330
23.1424 0.407
23.1727 0.570
23.2030 0.265
23.2333 1.263
23.2635 0.490
23.2938 0.499
23.3241 -0.377
23.3544 1.664
23.3846 0.059
23.4149 -0.295
23.4452 0.445
23.4755 1.445
23.5058 -0.418
23.5360 1.364
23.5663 1.793
23.5966 0.660
23.6269 0.621
23.6572 2.509
23.6874 0.492
23.7177 2.225
23.7480 0.260
23.7783 1.993
23.8086 2.165
23.8388 1.764
23.8691 1.624
23.8994 1.432
23.9297 2.542
23.9599 1.674
23.9902 2.681
24.0205 2.282
24.0508 2.040
24.0811 1.642
24.1113 2.807
24.1416 3.243
24.1719 3.731
24.2022 2.814
24.2325 3.459
24.2627 4.678
24.2930 4.543
24.3233 5.034
24.3536 5.524
24.3838 5.286
24.4141 7.705
24.4444 8.926
24.4747 7.127
24.5050 8.192
24.5352 7.696
24.5655 10.793
24.5958 9.672
24.6261 12.094
24.6564 12.172
24.6866 15.114
24.7169 15.610
24.7472 17.355
24.7775 17.383
24.8077 19.181
24.8380 18.532
24.8683 16.998
24.8986 16.506
24.9289 17.108
24.9591 16.773
24.9894 14.407
25.0197 14.281
25.0500 12.645
25.0803 13.197
25.1105 10.937
25.1408 11.385
25.1711 9.595
25.2014 9.419
25.2316 9.087
25.2619 8.600
25.2922 9.154
25.3225 10.803
25.3528 9.015
25.3830 9.154
25.4133 9.605
25.4436 10.370
25.4739 9.365
25.5042 8.672
25.5344 7.302
25.5647 8.016
25.5950 8.939
25.6253 10.019
25.6555 9.224
25.6858 9.262
25.7161 10.030
25.7464 8.039
25.7767 8.339
25.8069 8.639
25.8372 9.826
25.8675 10.700
25.8978 6.835
25.9281 8.491
25.9583 7.491
25.9886 8.732
26.0189 8.097
26.0492 9.338
26.0794 9.226
26.1097 9.165
26.1400 7.855
26.1703 8.421
26.2006 8.466
26.2308 9.553
26.2611 5.849
26.2914 9.801
26.3217 7.712
26.3520 6.197
26.3822 8.483
26.4125 9.781
26.4428 7.017
26.4731 6.023
26.5034 6.593
26.5336 8.830
26.5639 6.692
26.5942 6.012
26.6245 8.563
26.6547 8.353
26.6850 8.404
26.7153 6.633
26.7456 7.570
26.7759 6.893
26.8061 7.466
26.8364 7.571
26.8667 8.822
26.8970 7.730
26.9273 8.722
26.9575 8.203
26.9878 8.258
27.0181 8.574
27.0484 7.432
27.0786 9.675
27.1089 6.815
27.1392 9.215
27.1695 9.272
27.1998 10.632
27.2300 9.283
27.2603 9.081
27.2906 9.400
27.3209 10.813
27.3512 12.175
27.3814 12.911
27.4117 12.972
27.4420 13.188
27.4723 12.155
27.5025 13.310
27.5328 13.893
27.5631 14.059
27.5934 13.028
27.6237 14.497
27.6539 14.872
27.6842 15.873
27.7145 13.281
27.7448 15.793
27.7751 15.701
27.8053 15.141
27.8356 15.207
27.8659 14.804
27.8962 16.276
27.9264 14.311
27.9567 15.524
27.9870 11.841
28.0173 14.930
28.0476 13.592
28.0778 14.337
28.1081 12.635
28.1384 13.017
28.1687 13.763
28.1990 11.021
28.2292 12.237
28.2595 10.849
28.2898 12.066
28.3201 13.231
28.3503 11.220
28.3806 10.823
28.4109 10.375
28.4412 10.916
28.4715 9.740
28.5017 10.699
28.5320 11.085
28.5623 8.764
28.5926 8.526
28.6229 10.216
28.6531 9.094
28.6834 9.378
28.7137 7.892
28.7440 7.083
28.7742 7.889
28.8045 5.415
28.8348 8.982
28.8651 6.508
28.8954 4.868
28.9256 6.978
28.9559 5.182
28.9862 4.689
29.0165 4.717
29.0468 4.589
29.0770 3.472
29.1073 4.126
29.1376 5.198
29.1679 4.863
29.1981 3.799
29.2284 4.142
29.2587 4.173
29.2890 2.069
29.3193 3.039
29.3495 2.758
29.3798 1.801
29.4101 3.397
29.4404 2.076
29.4707 2.422
29.5009 1.518
29.5312 2.178
29.5615 2.421
29.5918 3.185
29.6221 2.075
29.6523 2.840
29.6826 1.887
29.7129 1.611
29.7432 2.846
29.7734 1.790
29.8037 1.880
29.8340 1.241
29.8643 2.008
29.8946 1.162
29.9248 0.680
29.9551 0.095
29.9854 1.437
30.0157 -0.554
30.0460 0.789
30.0762 0.622
30.1065 0.664
30.1368 0.445
30.1671 0.644
30.1973 -0.147
30.2276 0.521
30.2579 -0.008
30.2882 -0.485
30.3185 1.069
30.3487 -0.136
30.3790 -0.612
30.4093 -0.480
30.4396 1.528
30.4699 0.098
30.5001 0.544
30.5304 0.261
30.5607 -0.022
30.5910 -0.981
30.6212 0.299
30.6515 1.476
30.6818 0.049
30.7121 -0.492
30.7424 0.061
30.7726 -0.219
30.8029 0.907
30.8332 -0.726
30.8635 -0.328
30.8938 -0.346
30.9240 -1.093
30.9543 0.384
30.9846 -0.274
31.0149 -0.463
31.0451 -0.026
31.0754 0.306
31.1057 0.379
31.1360 0.140
31.1663 -0.360
31.1965 0.495
31.2268 -0.316
31.2571 0.228
31.2874 -0.583
31.3177 1.211
31.3479 0.558
31.3782 -0.408
31.4085 0.867
31.4388 -0.306
31.4690 0.500
31.4993 0.057
31.5296 0.187
31.5599 -0.047
31.5902 0.344
31.6204 0.579
31.6507 -0.175
31.6810 -0.563
31.7113 -0.178
31.7416 0.104
31.7718 0.646
31.8021 0.252
31.8324 -1.080
31.8627 -0.172
31.8929 1.466
31.9232 -0.646
31.9535 -0.414
31.9838 0.027
32.0141 -0.417
32.0443 0.285
32.0746 -0.470
32.1049 -0.549
32.1352 -0.011
32.1655 -0.514
32.1957 -0.704
32.2260 0.877
32.2563 0.270
32.2866 -0.544
32.3169 -0.860
32.3471 0.803
32.3774 1.164
32.4077 -0.193
32.4380 0.377
32.4682 0.896
32.4985 0.217
32.5288 2.351
32.5591 0.787
32.5894 2.557
32.6196 2.661
32.6499 3.391
32.6802 4.485
32.7105 3.340
32.7408 3.810
32.7710 4.436
32.8013 2.719
32.8316 3.607
32.8619 2.360
32.8921 2.936
32.9224 2.835
32.9527 1.849
32.9830 1.437
33.0133 1.910
33.0435 1.759
33.0738 2.233
33.1041 0.676
33.1344 1.412
33.1647 -0.144
33.1949 1.008
33.2252 1.484
33.2555 0.867
33.2858 1.552
33.3160 -0.054
33.3463 0.267
33.3766 0.328
33.4069 0.650
33.4372 -0.330
33.4674 0.827
33.4977 -0.465
33.5280 0.900
33.5583 -0.078
33.5886 -0.275
33.6188 0.779
33.6491 -0.146
33.6794 -0.445
33.7097 -0.745
33.7399 0.884
33.7702 -0.092
33.8005 -1.171
33.8308 0.118
33.8611 -0.467
33.8913 -0.218
33.9216 0.447
33.9519 1.061
33.9822 -0.252
34.0125 -0.262
34.0427 -0.168
34.0730 -0.490
34.1033 0.594
34.1336 0.637
34.1638 -1.142
34.1941 -0.161
34.2244 0.873
34.2547 -0.228
34.2850 0.599
34.3152 0.957
34.3455 0.482
34.3758 -0.618
34.4061 0.574
34.4364 1.038
34.4666 0.252
34.4969 0.664
34.5272 -0.017
34.5575 0.292
34.5877 -0.388
34.6180 0.963
34.6483 0.596
34.6786 0.906
34.7089 0.488
34.7391 0.539
34.7694 0.850
34.7997 0.433
34.8300 0.954
34.8603 0.954
34.8905 0.069
34.9208 0.591
34.9511 0.644
34.9814 -0.083
35.0116 -0.029
35.0419 0.859
35.0722 0.653
35.1025 -0.438
35.1328 1.441
35.1630 1.289
35.1933 0.251
35.2236 -0.109
35.2539 -0.885
35.2842 0.155
35.3144 0.413
35.3447 0.412
35.3750 0.462
35.4053 -0.163
35.4356 0.045
35.4658 1.295
35.4961 1.295
35.5264 2.025
35.5567 1.349
35.5869 1.350
35.6172 0.883
35.6475 1.198
35.6778 0.940
35.7081 1.099
35.7383 1.780
35.7686 0.794
35.7989 0.954
35.8292 0.438
35.8595 0.078
35.8897 0.500
35.9200 1.443
35.9503 0.564
35.9806 1.820
36.0108 1.879
36.0411 1.053
36.0714 0.331
36.1017 0.912
36.1320 1.025
36.1622 0.096
36.1925 0.313
36.2228 1.104
36.2531 0.541
36.2834 1.228
36.3136 0.301
36.3439 0.364
36.3742 0.010
36.4045 0.126
36.4347 2.274
36.4650 -0.631
36.4953 0.372
36.5256 0.177
36.5559 -0.018
36.5861 0.621
36.6164 0.843
36.6467 0.441
36.6770 0.196
36.7073 -0.049
36.7375 0.383
36.7678 -0.434
36.7981 0.468
36.8284 0.121
36.8586 1.492
36.8889 -0.521
36.9192 0.590
36.9495 -0.485
36.9798 -0.518
37.0100 -0.514
37.0403 -0.040
37.0706 -0.452
37.1009 0.283
37.1312 -0.076
37.1614 0.086
37.1917 0.197
37.2220 0.725
37.2523 0.264
37.2825 1.573
37.3128 -0.137
37.3431 0.548
37.3734 -0.432
37.4037 0.619
37.4339 -0.309
37.4642 0.846
37.4945 1.065
37.5248 0.295
37.5551 0.462
37.5853 -0.204
37.6156 0.017
37.6459 0.914
37.6762 0.771
37.7064 0.680
37.7367 1.787
37.7670 0.498
37.7973 0.721
37.8276 -0.358
37.8578 -0.187
37.8881 -0.432
37.9184 0.000
37.9487 0.693
37.9790 0.449
38.0092 -0.107
38.0395 0.379
38.0698 -0.020
38.1001 -0.211
38.1304 0.693
38.1606 0.660
38.1909 1.877
38.2212 0.073
38.2515 1.551
38.2817 -0.720
38.3120 -0.491
38.3423 -0.270
38.3726 0.680
38.4029 0.017
38.4331 -0.386
38.4634 0.722
38.4937 1.310
38.5240 -0.655
38.5543 0.507
38.5845 -0.102
38.6148 -0.138
38.6451 0.034
38.6754 1.041
38.7056 0.277
38.7359 0.763
38.7662 0.469
38.7965 0.748
38.8268 0.402
38.8570 0.577
38.8873 -0.341
38.9176 0.252
38.9479 0.481
38.9782 -0.280
39.0084 -0.102
39.0387 -0.862
39.0690 0.566
39.0993 0.536
39.1295 -0.066
39.1598 -0.148
39.1901 0.188
39.2204 0.628
39.2507 0.392
39.2809 -0.365
39.3112 0.181
39.3415 0.727
39.3718 0.180
39.4021 -0.003
39.4323 1.117
39.4626 0.155
39.4929 -0.079
39.5232 -0.520
39.5534 0.124
39.5837 0.457
39.6140 0.529
39.6443 0.758
39.6746 -0.263
39.7048 -0.294
39.7351 0.144
39.7654 -0.042
39.7957 0.762
39.8260 0.107
39.8562 -0.130
39.8865 0.310
39.9168 -0.135
39.9471 0.671
39.9773 0.383
40.0076 0.512
40.0379 -0.973
40.0682 -0.426
40.0985 -0.853
40.1287 1.065
40.1590 -0.038
40.1893 0.683
40.2196 0.519
40.2499 -0.375
40.2801 0.399
40.3104 0.392
40.3407 -0.344
40.3710 -0.506
40.4012 0.738
40.4315 -0.570
40.4618 0.258
40.4921 0.358
40.5224 -0.116
40.5526 0.401
40.5829 0.814
40.6132 0.342
40.6435 -0.650
40.6738 -0.297
40.7040 -0.203
40.7343 0.307
40.7646 0.714
40.7949 -0.650
40.8251 0.174
40.8554 -0.147
40.8857 0.574
40.9160 -0.111
40.9463 -0.223
40.9765 -0.647
41.0068 0.492
41.0371 0.225
41.0674 0.010
41.0977 0.056
41.1279 -0.678
41.1582 0.983
41.1885 0.145
41.2188 0.662
41.2491 0.710
41.2793 1.227
41.3096 -0.130
41.3399 0.440
41.3702 -0.396
41.4004 0.488
41.4307 0.226
41.4610 0.537
41.4913 1.474
41.5216 1.056
41.5518 1.056
41.5821 1.265
41.6124 0.172
41.6427 -0.557
41.6730 0.591
41.7032 0.592
41.7335 0.022
41.7638 1.222
41.7941 0.548
41.8243 0.707
41.8546 0.138
41.8849 0.350
41.9152 1.344
41.9455 -0.161
41.9757 -0.208
42.0060 0.787
42.0363 0.688
42.0666 0.591
42.0969 0.858
42.1271 -0.281
42.1574 0.143
42.1877 0.255
42.2180 0.784
42.2482 0.219
42.2785 0.228
42.3088 -0.596
42.3391 0.664
42.3694 -0.159
42.3996 -0.045
42.4299 -0.555
42.4602 0.758
42.4905 0.145
42.5208 0.782
42.5510 0.377
42.5813 0.546
42.6116 0.611
42.6419 0.260
42.6721 -0.195
42.7024 -0.233
42.7327 -0.426
42.7630 -0.414
42.7933 -0.297
42.8235 0.029
42.8538 0.147
42.8841 -0.047
42.9144 -0.502
42.9447 0.503
42.9749 -0.315
43.0052 0.013
43.0355 0.185
43.0658 0.462
43.0960 1.051
43.1263 0.183
43.1566 0.201
43.1869 -0.042
43.2172 -0.180
43.2474 0.828
43.2777 1.003
43.3080 0.450
43.3383 0.365
43.3686 -0.604
43.3988 0.145
43.4291 0.479
43.4594 0.083
43.4897 -0.520
43.5199 -0.062
43.5502 0.031
43.5805 1.480
43.6108 0.220
43.6411 0.315
43.6713 1.035
43.7016 0.297
43.7319 0.757
43.7622 0.333
43.7925 0.429
43.8227 -0.411
43.8530 -0.053
43.8833 -0.060
43.9136 -0.378
43.9439 0.189
43.9741 -0.233
44.0044 0.179
44.0347 -0.659
44.0650 0.587
44.0952 -0.198
44.1255 0.163
44.1558 0.316
44.1861 -0.572
44.2164 0.415
44.2466 -0.316
44.2769 0.360
44.3072 0.984
44.3375 -0.059
44.3678 -0.215
44.3980 1.087
44.4283 0.254
44.4586 0.255
44.4889 0.568
44.5191 0.622
44.5494 0.780
44.5797 -0.207
44.6100 -0.309
44.6403 -0.410
44.6705 0.205
44.7008 1.498
44.7311 -0.542
44.7614 0.595
44.7917 0.326
44.8219 0.110
44.8522 0.467
44.8825 -0.113
44.9128 0.037
44.9430 0.239
44.9733 -0.444
45.0036 -0.033
45.0339 -0.247
45.0642 0.165
45.0944 0.838
45.1247 0.000
45.1550 -0.108
45.1853 0.045
45.2156 -0.010
45.2458 0.405
45.2761 -0.066
45.3064 -0.172
45.3367 0.503
45.3669 0.606
45.3972 0.918
45.4275 0.553
45.4578 0.710
45.4881 -0.436
45.5183 -0.018
45.5486 0.035
45.5789 0.193
45.6092 0.299
45.6395 0.197
45.6697 0.304
45.7000 0.463
45.7303 0.363
45.7606 0.575
45.7908 0.058
45.8211 0.740
45.8514 -0.245
45.8817 -0.031
45.9120 -0.598
45.9422 0.058
45.9725 0.350
46.0028 0.278
46.0331 0.988
46.0634 0.396
46.0936 -0.873
46.1239 0.671
46.1542 -0.597
46.1845 0.062
46.2147 -0.163
46.2450 -1.222
46.2753 0.376
46.3056 -0.161
46.3359 0.136
46.3661 0.068
46.3964 -0.415
46.4267 0.143
46.4570 0.285
46.4873 -0.615
46.5175 0.205
46.5478 -0.798
46.5781 0.179
46.6084 0.323
46.6386 -0.731
46.6689 0.247
46.6992 -0.337
46.7295 -0.348
46.7598 -0.306
46.7900 0.048
46.8203 0.247
46.8506 -0.336
46.8809 0.228
46.9112 0.584
46.9414 -1.247
46.9717 0.047
47.0020 -0.325
47.0323 -0.019
47.0626 -0.183
47.0928 -0.137
47.1231 -0.559
47.1534 0.320
47.1837 0.315
47.2139 0.362
47.2442 -0.736
47.2745 0.458
47.3048 0.350
47.3351 0.138
47.3653 0.708
47.3956 -0.701
47.4259 0.860
47.4562 1.014
47.4865 0.075
47.5167 -0.603
47.5470 0.177
47.5773 -0.448
47.6076 -0.383
47.6378 -0.110
47.6681 0.737
47.6984 -0.135
47.7287 0.296
47.7590 -0.888
47.7892 -0.092
47.8195 0.184
47.8498 0.356
47.8801 0.372
47.9104 0.440
47.9406 0.197
47.9709 -0.047
48.0012 -0.133
48.0315 -0.584
48.0617 0.371
48.0920 -0.079
48.1223 -0.268
48.1526 0.376
48.1829 0.084
48.2131 0.312
48.2434 0.593
48.2737 0.666
48.3040 0.375
48.3343 0.396
48.3645 -0.103
48.3948 -0.497
48.4251 0.044
48.4554 0.064
48.4856 -0.332
48.5159 -0.102
48.5462 0.024
48.5765 0.202
48.6068 0.536
48.6370 0.090
48.6673 -0.147
48.6976 0.397
48.7279 0.056
48.7582 0.237
48.7884 -1.041
48.8187 -0.185
48.8490 0.150
48.8793 -0.139
48.9095 0.822
48.9398 0.898
48.9701 -0.328
49.0004 -0.303
49.0307 -0.486
49.0609 0.008
49.0912 -0.122
49.1215 -0.356
49.1518 0.764
49.1821 0.270
49.2123 0.089
49.2426 0.481
49.2729 0.041
49.3032 -0.816
49.3334 0.046
49.3637 0.440
49.3940 -0.364
49.4243 -0.490
49.4546 0.374
49.4848 -0.116
49.5151 -0.033
49.5454 0.623
49.5757 -0.282
49.6060 0.584
49.6362 0.408
49.6665 -0.549
49.6968 -0.413
49.7271 0.401
49.7574 0.694
49.7876 -0.002
49.8179 0.553
49.8482 1.108
49.8785 0.204
49.9087 0.604
49.9390 0.222
49.9693 1.768
49.9996 -0.071
50.0299 1.319
50.0601 1.877
50.0904 -0.013
50.1207 0.180
50.1510 -0.511
50.1813 1.298
50.2115 1.180
50.2418 0.489
50.2721 1.258
50.3024 1.766
50.3326 0.140
50.3629 2.940
50.3932 1.887
50.4235 2.345
50.4538 1.970
50.4840 2.220
50.5143 2.106
50.5446 2.149
50.5749 2.660
50.6052 2.652
50.6354 0.977
50.6657 3.833
50.6960 4.347
50.7263 2.412
50.7565 2.874
50.7868 3.805
50.8171 2.758
50.8474 3.169
50.8777 1.601
50.9079 2.377
50.9382 4.039
50.9685 4.139
50.9988 3.302
51.0291 4.132
51.0593 2.670
51.0896 4.074
51.1199 3.811
51.1502 2.872
51.1804 3.183
51.2107 3.546
51.2410 2.816
51.2713 2.712
51.3016 2.920
51.3318 2.972
51.3621 3.182
51.3924 3.026
51.4227 3.080
51.4530 2.301
51.4832 2.511
51.5135 2.930
51.5438 2.621
51.5741 2.468
51.6043 2.784
51.6346 2.111
51.6649 1.491
51.6952 2.641
51.7255 1.397
51.7557 2.027
51.7860 1.512
51.8163 2.769
51.8466 1.421
51.8769 1.168
51.9071 1.644
51.9374 2.225
51.9677 0.515
51.9980 1.409
52.0282 0.845
52.0585 1.427
52.0888 1.020
52.1191 1.551
52.1494 0.416
52.1796 1.208
52.2099 0.907
52.2402 0.606
52.2705 0.462
52.3008 1.828
52.3310 1.789
52.3613 1.229
52.3916 0.097
52.4219 0.475
52.4521 0.125
52.4824 1.233
52.5127 0.207
52.5430 0.379
52.5733 0.863
52.6035 0.879
52.6338 1.521
52.6641 0.444
52.6944 0.826
52.7247 0.219
52.7549 1.487
52.7852 -0.318
52.8155 -0.299
52.8458 0.033
52.8761 -0.573
52.9063 1.010
52.9366 0.613
52.9669 1.415
52.9972 -0.543
53.0274 1.145
53.0577 1.375
53.0880 1.137
53.1183 0.847
53.1486 -0.380
53.1788 0.685
53.2091 0.917
53.2394 0.889
53.2697 1.435
53.3000 0.730
53.3302 -0.390
53.3605 -0.261
53.3908 1.640
53.4211 -0.208
53.4513 0.131
53.4816 0.106
53.5119 0.811
53.5422 0.578
53.5725 0.815
53.6027 0.739
53.6330 0.456
53.6633 0.589
53.6936 0.306
53.7239 0.649
53.7541 0.627
53.7844 -0.019
53.8147 -0.300
53.8450 0.877
53.8752 0.180
53.9055 0.265
53.9358 -0.275
53.9661 0.331
53.9964 0.885
54.0266 0.086
54.0569 0.276
54.0872 0.050
54.1175 0.762
54.1478 1.110
54.1780 0.573
54.2083 1.234
54.2386 0.594
54.2689 -0.411
54.2991 0.355
54.3294 1.383
54.3597 0.535
54.3900 0.418
54.4203 0.092
54.4505 -0.546
54.4808 -0.083
54.5111 0.537
54.5414 0.063
54.5717 0.840
54.6019 0.471
54.6322 0.051
54.6625 -0.265
54.6928 -0.372
54.7230 -0.062
54.7533 0.925
54.7836 0.559
54.8139 0.505
54.8442 -0.069
54.8744 0.034
54.9047 0.763
54.9350 -0.278
54.9653 -0.434
54.9956 -0.329
55.0258 0.870
55.0561 0.403
55.0864 0.613
55.1167 0.303
55.1469 1.035
55.1772 1.246
55.2075 -0.157
55.2378 0.941
55.2681 1.257
55.2983 0.429
55.3286 0.329
55.3589 0.335
55.3892 1.278
55.4195 1.284
55.4497 -0.012
55.4800 0.568
55.5103 0.471
55.5406 0.531
55.5709 1.476
55.6011 0.443
55.6314 1.025
55.6617 0.773
55.6920 1.772
55.7222 0.167
55.7525 -0.499
55.7828 0.709
55.8131 0.408
55.8434 0.367
55.8736 1.524
55.9039 -0.026
55.9342 1.393
55.9645 -0.053
55.9948 1.106
56.0250 0.339
56.0553 0.613
56.0856 0.523
56.1159 0.173
56.1461 -0.957
56.1764 0.152
56.2067 0.168
56.2370 -0.180
56.2673 0.097
56.2975 -0.095
56.3278 -0.702
56.3581 0.143
56.3884 -0.001
56.4187 0.689
56.4489 0.390
56.4792 0.352
56.5095 0.157
56.5398 0.588
56.5700 -0.595
56.6003 0.410
56.6306 0.321
56.6609 -0.236
56.6912 -0.636
56.7214 1.099
56.7517 0.700
56.7820 0.509
56.8123 0.058
56.8426 0.128
56.8728 0.094
56.9031 1.207
56.9334 0.080
56.9637 -0.421
56.9939 0.224
57.0242 0.036
57.0545 -0.307
57.0848 0.078
57.1151 -0.681
57.1453 0.278
57.1756 -0.221
57.2059 -0.042
57.2362 -0.227
57.2665 0.317
57.2967 0.393
57.3270 -0.728
57.3573 -0.351
57.3876 0.235
57.4178 1.186
57.4481 -0.258
57.4784 0.538
57.5087 0.604
57.5390 1.192
57.5692 0.374
57.5995 0.494
57.6298 0.250
57.6601 0.163
57.6904 0.492
57.7206 0.770
57.7509 0.371
57.7812 0.493
57.8115 0.199
57.8417 -0.407
57.8720 -0.468
57.9023 0.446
57.9326 0.528
57.9629 0.401
57.9931 0.900
58.0234 0.305
58.0537 0.648
58.0840 0.940
58.1143 1.440
58.1445 0.587
58.1748 0.411
58.2051 -0.182
58.2354 1.310
58.2656 1.343
58.2959 1.064
58.3262 0.734
58.3565 0.456
58.3868 1.220
58.4170 0.735
58.4473 2.385
58.4776 1.692
58.5079 1.989
58.5382 1.869
58.5684 1.229
58.5987 0.902
58.6290 0.315
58.6593 1.239
58.6896 0.600
58.7198 1.525
58.7501 0.418
58.7804 0.979
58.8107 0.967
58.8409 0.383
58.8712 0.788
58.9015 -0.056
58.9318 1.340
58.9621 0.549
58.9923 0.487
59.0226 0.686
59.0529 0.156
59.0832 0.513
59.1135 0.869
59.1437 1.070
59.1740 0.541
59.2043 0.430
59.2346 0.215
59.2648 1.303
59.2951 1.141
59.3254 0.614
59.3557 0.713
59.3860 0.136
59.4162 0.965
59.4465 0.752
59.4768 0.280
59.5071 0.225
59.5374 0.586
59.5676 0.740
59.5979 0.946
59.6282 0.684
59.6585 0.058
59.6887 0.526
59.7190 0.890
59.7493 0.369
59.7796 0.838
59.8099 0.265
59.8401 0.162
59.8704 1.309
59.9007 0.113
59.9310 1.209
59.9613 0.586
59.9915 0.224
60.0218 -0.189
60.0521 0.335
60.0824 -0.494
60.1126 -0.296
60.1429 -0.411
60.1732 -0.056
60.2035 -0.118
60.2338 -0.023
60.2640 -0.136
60.2943 -0.092
60.3246 0.733
60.3549 0.934
60.3852 0.614
60.4154 0.086
60.4457 -0.545
60.4760 0.803
60.5063 0.172
60.5365 0.375
60.5668 0.162
60.5971 -0.676
60.6274 -0.123
60.6577 -0.142
60.6879 0.152
60.7182 0.446
60.7485 -0.353
60.7788 0.255
60.8091 -0.283
60.8393 -0.352
60.8696 -0.316
60.8999 0.188
60.9302 0.017
60.9604 -0.572
60.9907 0.507
61.0210 -0.080
61.0513 -0.198
61.0816 0.309
61.1118 0.087
61.1421 0.959
61.1724 -0.564
61.2027 -0.472
61.2330 0.239
61.2632 0.064
61.2935 0.358
61.3238 0.132
61.3541 0.167
61.3844 0.149
61.4146 -0.180
61.4449 0.689
61.4752 -0.785
61.5055 0.814
61.5357 -0.347
61.5660 0.159
61.5963 -0.324
61.6266 0.339
61.6569 -0.768
61.6871 0.104
61.7174 1.393
61.7477 0.287
61.7780 0.222
61.8083 0.836
61.8385 0.980
61.8688 -0.333
61.8991 0.386
61.9294 1.000
61.9596 0.522
61.9899 0.252
62.0202 0.139
62.0505 0.859
62.0808 1.007
62.1110 0.009
62.1413 -0.363
62.1716 1.557
62.2019 -0.013
62.2322 0.814
62.2624 0.391
62.2927 0.646
62.3230 0.276
62.3533 1.052
62.3835 0.631
62.4138 1.460
62.4441 1.196
62.4744 1.192
62.5047 0.252
62.5349 0.822
62.5652 0.924
62.5955 0.036
62.6258 0.764
62.6561 0.398
62.6863 0.918
62.7166 0.709
62.7469 0.501
62.7772 0.032
62.8074 1.596
62.8377 1.597
62.8680 -0.590
62.8983 1.548
62.9286 0.560
62.9588 1.344
62.9891 0.305
63.0194 0.517
63.0497 0.833
63.0800 1.670
63.1102 2.560
63.1405 1.315
63.1708 1.320
63.2011 1.170
63.2313 0.707
63.2616 0.244
63.2919 -0.374
63.3222 -0.054
63.3525 0.005
63.3827 1.732
63.4130 1.740
63.4433 1.540
63.4736 0.559
63.5039 0.777
63.5341 1.360
63.5644 0.797
63.5947 0.339
63.6250 0.141
63.6552 1.506
63.6855 0.685
63.7158 0.384
63.7461 0.553
63.7764 0.566
63.8066 1.412
63.8369 0.123
63.8672 0.241
63.8975 0.724
63.9278 0.895
63.9580 0.441
63.9883 0.717
64.0186 0.160
64.0489 1.062
64.0791 0.818
64.1094 1.459
64.1397 1.008
64.1700 0.557
64.2003 0.939
64.2305 1.114
64.2608 1.445
64.2911 1.100
64.3214 0.703
64.3517 0.410
64.3819 0.899
64.4122 0.868
64.4425 0.628
64.4728 1.118
64.5031 0.203
64.5333 -0.296
64.5636 0.351
64.5939 1.051
64.6242 0.346
64.6544 0.994
64.6847 -0.180
64.7150 0.105
64.7453 0.234
64.7756 0.780
64.8058 0.285
64.8361 0.154
64.8664 0.337
64.8967 -0.313
64.9270 -0.182
64.9572 1.043
64.9875 0.498
65.0178 0.474
65.0481 -0.070
65.0783 0.167
65.1086 0.040
65.1389 -0.139
65.1692 0.412
65.1995 0.443
65.2297 0.994
65.2600 -0.329
65.2903 0.016
65.3206 0.204
65.3509 -0.076
65.3811 0.165
65.4114 0.562
65.4417 0.075
65.4720 -0.308
65.5022 0.299
65.5325 0.125
65.5628 0.629
65.5931 -0.117
65.6234 0.388
65.6536 1.101
65.6839 0.304
65.7142 0.133
65.7445 -0.039
65.7748 -0.366
65.8050 0.193
65.8353 1.169
65.8656 0.218
65.8959 0.049
65.9261 -0.693
65.9564 0.649
65.9867 0.012
66.0170 -0.416
66.0473 -0.003
66.0775 0.461
66.1078 0.874
66.1381 -0.014
66.1684 -0.226
66.1987 0.553
66.2289 1.072
66.2592 0.289
66.2895 -0.025
66.3198 0.859
66.3500 -0.079
66.3803 0.650
66.4106 0.233
66.4409 -0.443
66.4712 -0.130
66.5014 -0.545
66.5317 0.967
66.5620 0.813
66.5923 -0.904
66.6226 0.297
66.6528 0.560
66.6831 0.564
66.7134 0.151
66.7437 -0.313
66.7739 0.368
66.8042 -0.252
66.8345 0.118
66.8648 0.228
66.8951 -0.182
66.9253 0.606
66.9556 0.977
66.9859 -0.213
67.0162 0.107
67.0465 0.323
67.0767 0.488
67.1070 0.340
67.1373 0.401
67.1676 -0.110
67.1978 0.317
67.2281 0.171
67.2584 0.025
67.2887 -0.120
67.3190 0.517
67.3492 0.060
67.3795 0.332
67.4098 0.397
67.4401 0.618
67.4704 0.267
67.5006 0.853
67.5309 0.399
67.5612 0.153
67.5915 -0.353
67.6218 -0.309
67.6520 0.204
67.6823 0.092
67.7126 -0.071
67.7429 0.391
67.7731 0.020
67.8034 -0.246
67.8337 -0.408
67.8640 1.098
67.8943 0.989
67.9245 0.620
67.9548 -0.165
67.9851 0.039
68.0154 0.245
68.0457 0.190
68.0759 0.031
68.1062 0.029
68.1365 0.183
68.1668 0.963
68.1970 0.077
68.2273 0.337
68.2576 0.337
68.2879 0.545
68.3182 0.650
68.3484 -0.391
68.3787 -0.494
68.4090 0.432
68.4393 -0.361
68.4696 -0.478
68.4998 0.446
68.5301 1.007
68.5604 0.318
68.5907 0.827
68.6209 0.555
68.6512 1.221
68.6815 0.169
68.7118 0.576
68.7421 -0.163
68.7723 0.400
68.8026 0.287
68.8329 -0.347
68.8632 0.322
68.8935 0.366
68.9237 0.150
68.9540 -0.274
68.9843 0.136
69.0146 -0.704
69.0448 0.957
69.0751 -0.663
69.1054 -0.148
69.1357 -0.465
69.1660 0.260
69.1962 0.099
69.2265 1.241
69.2568 -0.064
69.2871 0.766
69.3174 -0.070
69.3476 -0.281
69.3779 0.655
69.4082 -0.076
69.4385 0.236
69.4687 0.183
69.4990 -0.442
69.5293 0.026
69.5596 -0.078
69.5899 0.600
69.6201 0.445
69.6504 -0.126
69.6807 0.240
69.7110 -0.539
69.7413 0.401
69.7715 0.144
69.8018 1.502
69.8321 -0.422
69.8624 0.780
69.8926 0.681
69.9229 0.373
69.9532 0.378
69.9835 1.009
70.0138 -0.183
70.0440 0.084
70.0743 0.403
70.1046 -0.059
70.1349 1.043
70.1652 0.322
70.1954 -0.504
70.2257 1.016
70.2560 0.504
70.2863 0.357
70.3166 -0.102
70.3468 0.012
70.3771 -0.185
70.4074 0.555
70.4377 0.097
70.4679 0.213
70.4982 0.225
70.5285 0.654
70.5588 -0.166
70.5891 -0.101
70.6193 -0.035
70.6496 0.395
70.6799 -0.163
70.7102 -0.357
70.7405 0.103
70.7707 0.198
70.8010 0.607
70.8313 0.911
70.8616 -0.033
70.8918 -0.093
70.9221 0.161
70.9524 0.415
70.9827 -0.007
71.0130 0.872
71.0432 0.138
71.0735 -0.127
71.1038 -0.652
71.1341 0.854
71.1644 0.225
71.1946 0.534
71.2249 0.063
71.2552 0.789
71.2855 -0.202
71.3157 0.525
71.3460 0.732
71.3763 0.262
71.4066 -0.468
71.4369 0.209
71.4671 -0.468
71.4974 -0.156
71.5277 -0.365
71.5580 -0.158
71.5883 0.779
71.6185 0.205
71.6488 0.309
71.6791 0.622
71.7094 -0.159
71.7396 0.467
71.7699 -0.730
71.8002 -0.156
71.8305 -0.049
71.8608 0.005
71.8910 -0.305
71.9213 0.480
71.9516 0.275
71.9819 0.331
72.0122 -0.134
72.0424 -0.650
72.0727 0.183
72.1030 -0.651
72.1333 0.130
72.1635 0.443
72.1938 -0.025
72.2241 -0.492
72.2544 0.342
72.2847 0.449
72.3149 -0.226
72.3452 0.349
72.3755 -0.429
72.4058 0.043
72.4361 0.047
72.4663 -0.157
72.4966 0.368
72.5269 -0.304
72.5572 -0.142
72.5874 -0.293
72.6177 -0.130
72.6480 -0.124
72.6783 0.820
72.7086 0.619
72.7388 0.054
72.7691 -0.303
72.7994 -0.138
72.8297 -0.598
72.8600 0.174
72.8902 -0.356
72.9205 0.261
72.9508 -0.164
72.9811 1.130
73.0113 0.237
73.0416 0.387
73.0719 0.797
73.1022 0.634
73.1325 0.264
73.1627 0.414
73.1930 0.201
73.2233 1.082
73.2536 0.192
73.2839 -0.541
73.3141 0.497
73.3444 -0.080
73.3747 -0.082
73.4050 0.436
73.4353 0.434
73.4655 0.224
73.4958 0.639
73.5261 0.794
73.5564 0.273
73.5866 0.637
73.6169 0.064
73.6472 0.325
73.6775 0.951
73.7078 0.275
73.7380 0.225
73.7683 0.644
73.7986 0.021
73.8289 -0.080
73.8592 -0.494
73.8894 0.121
73.9197 0.425
73.9500 0.051
73.9803 0.303
74.0105 0.451
74.0408 0.130
74.0711 0.540
74.1014 0.064
74.1317 0.213
74.1619 -0.262
74.1922 0.253
74.2225 0.143
74.2528 0.190
74.2831 1.748
74.3133 1.275
74.3436 -0.292
74.3739 0.590
74.4042 0.430
74.4344 0.167
74.4647 0.268
74.4950 -0.307
74.5253 0.577
74.5556 0.159
74.5858 1.147
74.6161 0.157
74.6464 0.521
74.6767 -0.051
74.7070 1.355
74.7372 0.523
74.7675 0.368
74.7978 0.630
74.8281 -0.358
74.8583 0.582
74.8886 0.585
74.9189 0.171
74.9492 0.174
74.9795 0.387
75.0097 -0.130
75.0400 -0.125
75.0703 0.088
75.1006 0.666
75.1309 -0.057
75.1611 -0.676
75.1914 0.112
75.2217 -0.453
75.2520 0.440
75.2822 -0.281
75.3125 1.082
75.3428 0.675
75.3731 -0.253
75.4034 0.746
75.4336 0.079
75.4639 0.298
75.4942 0.674
75.5245 0.008
75.5548 0.697
75.5850 0.188
75.6153 0.773
75.6456 0.005
75.6759 -0.086
75.7061 0.188
75.7364 -0.371
75.7667 0.164
75.7970 0.648
75.8273 0.038
75.8575 0.105
75.8878 -0.191
75.9181 0.398
75.9484 0.675
75.9787 0.171
76.0089 0.501
76.0392 -0.107
76.0695 0.276
76.0998 0.243
76.1301 -0.364
76.1603 -0.212
76.1906 0.929
76.2209 0.508
76.2512 0.608
76.2814 0.500
76.3117 0.445
76.3420 0.547
76.3723 0.753
76.4026 0.230
76.4328 0.228
76.4631 0.643
76.4934 0.695
76.5237 -0.035
76.5540 0.382
76.5842 -0.087
76.6145 0.382
76.6448 0.383
76.6751 0.385
76.7053 0.543
76.7356 0.545
76.7659 0.287
76.7962 0.394
76.8265 0.554
76.8567 0.661
76.8870 0.718
76.9173 0.201
76.9476 0.362
76.9779 0.888
77.0081 0.112
77.0384 0.639
77.0687 -0.553
77.0990 -0.338
77.1292 0.490
77.1595 -0.139
77.1898 0.116
77.2201 0.633
77.2504 0.160
77.2806 -0.156
77.3109 0.102
77.3412 0.203
77.3715 0.618
77.4018 -0.426
77.4320 0.250
77.4623 0.561
77.4926 -0.586
77.5229 0.247
77.5531 0.195
77.5834 0.300
77.6137 0.456
77.6440 -0.115
77.6743 0.667
77.7045 0.357
77.7348 0.099
77.7651 0.049
77.7954 -0.886
77.8257 0.107
77.8559 0.267
77.8862 -0.406
77.9165 0.276
77.9468 -0.553
77.9770 0.286
78.0073 0.760
78.0376 0.298
78.0679 -0.113
78.0982 0.154
78.1284 -0.047
78.1587 0.586
78.1890 0.177
78.2193 0.185
78.2496 0.506
78.2798 -0.162
78.3101 0.056
78.3404 -0.143
78.3707 0.232
78.4009 -0.278
78.4312 0.722
78.4615 0.473
78.4918 0.016
78.5221 -0.285
78.5523 -0.012
78.5826 -0.572
78.6129 0.041
78.6432 0.238
78.6735 0.071
78.7037 0.269
78.7340 -0.002
78.7643 -0.168
78.7946 0.187
78.8248 0.386
78.8551 -0.143
78.8854 0.265
78.9157 0.622
78.9460 0.354
78.9762 1.284
79.0065 0.808
79.0368 0.229
79.0671 0.744
79.0974 -0.721
79.1276 0.576
79.1579 0.623
79.1882 -0.267
79.2185 0.250
79.2488 -0.691
79.2790 0.138
79.3093 0.552
79.3396 -0.180
79.3699 0.495
79.4001 0.180
79.4304 0.075
79.4607 0.646
79.4910 0.489
79.5213 0.124
79.5515 0.280
79.5818 0.385
79.6121 0.386
79.6424 0.022
79.6727 0.388
79.7029 0.859
79.7332 -0.233
79.7635 0.343
79.7938 0.137
79.8240 0.609
79.8543 -0.220
79.8846 0.825
79.9149 0.101
79.9452 0.210
79.9754 0.631
80.0057 -0.353
80.0360 -0.086
80.0663 -0.028
80.0966 -0.333
80.1268 -0.280
80.1571 0.816
80.1874 0.141
80.2177 0.300
80.2479 0.511
80.2782 -0.058
80.3085 0.415
80.3388 0.262
80.3691 0.423
80.3993 -0.249
80.4296 0.225
80.4599 -0.029
80.4902 -0.075
80.5205 -0.329
80.5507 0.075
80.5810 0.115
80.6113 0.363
80.6416 0.769
80.6718 0.133
80.7021 0.174
80.7324 -0.617
80.7627 0.831
80.7930 0.561
80.8232 0.031
80.8535 1.325
80.8838 0.379
80.9141 -0.098
80.9444 0.051
80.9746 0.044
81.0049 -0.015
81.0352 0.968
81.0655 0.233
81.0957 0.123
81.1260 0.378
81.1563 0.008
81.1866 0.525
81.2169 0.573
81.2471 0.881
81.2774 0.149
81.3077 0.146
81.3380 0.872
81.3683 0.922
81.3985 0.295
81.4288 0.033
81.4591 0.709
81.4894 0.448
81.5196 0.239
81.5499 0.447
81.5802 -0.021
81.6105 0.657
81.6408 -0.072
81.6710 0.555
81.7013 0.557
81.7316 -0.014
81.7619 -0.063
81.7922 0.044
81.8224 0.308
81.8527 -0.105
81.8830 0.524
81.9133 0.789
81.9436 0.064
81.9738 0.278
82.0041 -0.342
82.0344 -0.244
82.0647 0.428
82.0949 1.047
82.1252 0.209
82.1555 -0.056
82.1858 -0.009
82.2161 0.665
82.2463 -0.120
82.2766 0.606
82.3069 0.447
82.3372 -0.493
82.3675 1.067
82.3977 -0.028
82.4280 -0.029
82.4583 0.595
82.4886 0.907
82.5188 0.542
82.5491 0.230
82.5794 -0.187
82.6097 0.752
82.6400 0.389
82.6702 0.807
82.7005 0.445
82.7308 0.551
82.7611 -0.019
82.7914 -0.016
82.8216 0.353
82.8519 0.513
82.8822 -0.264
82.9125 -0.520
82.9427 0.298
82.9730 0.856
83.0033 0.269
83.0336 0.567
83.0639 1.022
83.0941 -0.346
83.1244 0.631
83.1547 0.202
83.1850 0.346
83.2153 0.438
83.2455 -0.251
83.2758 0.051
83.3061 -0.273
83.3364 0.446
83.3666 0.749
83.3969 0.374
83.4272 -0.624
83.4575 0.721
83.4878 -0.329
83.5180 -0.077
83.5483 0.488
83.5786 -0.457
83.6089 -0.255
83.6392 -0.262
83.6694 -0.008
83.6997 0.195
83.7300 -0.332
83.7603 0.809
83.7905 0.179
83.8208 0.071
83.8511 -0.767
83.8814 0.376
83.9117 0.008
83.9419 -0.203
83.9722 0.159
84.0025 0.000
84.0328 0.103
84.0631 0.466
84.0933 0.100
84.1236 0.829
84.1539 -0.317
84.1842 0.569
84.2144 -0.108
84.2447 0.310
84.2750 -0.314
84.3053 -0.365
84.3356 -0.154
84.3658 -0.359
84.3961 -0.200
84.4264 0.220
84.4567 -0.297
84.4870 -0.344
84.5172 0.077
84.5475 0.030
84.5778 -0.121
84.6081 -0.584
84.6383 0.360
84.6686 0.002
84.6989 0.426
84.7292 -0.140
84.7595 -0.288
84.7897 -0.228
84.8200 0.301
84.8503 -0.263
84.8806 0.111
84.9109 -0.661
84.9411 0.026
84.9714 -0.068
85.0017 0.047
85.0320 -0.306
85.0623 -0.138
85.0925 0.394
85.1228 0.563
85.1531 0.055
85.1834 0.224
85.2136 -0.075
85.2439 0.199
85.2742 -0.047
85.3045 -0.345
85.3348 -0.288
85.3650 0.238
85.3953 -0.121
85.4256 -0.323
85.4559 -0.160
85.4862 0.003
85.5164 0.479
85.5467 -0.450
85.5770 0.027
85.6073 0.504
85.6375 0.513
85.6678 0.262
85.6981 0.740
85.7284 -0.604
85.7587 -0.021
85.7889 0.198
85.8192 -0.520
85.8495 -0.167
85.8798 0.134
85.9101 0.122
85.9403 -0.045
85.9706 0.205
86.0009 0.403
86.0312 0.446
86.0614 0.332
86.0917 0.636
86.1220 0.002
86.1523 0.931
86.1826 -0.014
86.2128 -0.178
86.2431 0.440
86.2734 0.225
86.3037 0.271
86.3340 0.212
86.3642 -0.366
86.3945 0.358
86.4248 0.041
86.4551 -0.537
86.4853 1.334
86.5156 0.809
86.5459 -0.236
86.5762 0.022
86.6065 -0.085
86.6367 -0.243
86.6670 -0.349
86.6973 -0.250
86.7276 0.163
86.7579 0.107
86.7881 -0.105
86.8184 0.048
86.8487 0.515
86.8790 0.356
86.9092 0.458
86.9395 0.613
86.9698 -0.430
87.0001 0.403
87.0304 -0.275
87.0606 0.819
87.0909 0.715
87.1212 -0.221
87.1515 -0.012
87.1818 0.458
87.2120 -0.269
87.2423 0.202
87.2726 -0.004
87.3029 0.260
87.3331 0.784
87.3634 0.423
87.3937 -0.041
87.4240 -0.349
87.4543 -0.562
87.4845 0.579
87.5148 0.158
87.5451 -0.002
87.5754 0.047
87.6057 0.721
87.6359 -0.271
87.6662 -0.064
87.6965 -0.535
87.7268 0.557
87.7571 0.556
87.7873 -0.017
87.8176 -0.174
87.8479 -0.278
87.8782 0.504
87.9084 0.245
87.9387 -0.483
87.9690 0.143
87.9993 0.979
88.0296 0.356
88.0598 -0.110
88.0901 0.362
88.1204 -0.520
88.1507 -0.310
88.1810 0.161
88.2112 -0.045
88.2415 -0.095
88.2718 -0.144
88.3021 0.016
88.3323 0.228
88.3626 0.649
88.3929 0.445
88.4232 0.763
88.4535 -0.482
88.4837 0.253
88.5140 -0.314
88.5443 0.422
88.5746 -0.196
88.6049 -0.085
88.6351 -0.025
88.6654 -0.017
88.6957 0.460
88.7260 0.000
88.7562 -0.043
88.7865 0.227
88.8168 -0.232
88.8471 -0.430
88.8774 0.466
88.9076 0.060
88.9379 0.540
88.9682 0.083
88.9985 0.043
89.0288 0.472
89.0590 1.058
89.0893 0.134
89.1196 0.668
89.1499 0.057
89.1801 0.020
89.2104 0.763
89.2407 -0.107
89.2710 -0.091
89.3013 0.758
89.3315 0.305
89.3618 0.270
89.3921 0.547
89.4224 0.669
89.4527 0.114
89.4829 0.653
89.5132 -0.318
89.5435 0.690
89.5738 -0.176
89.6040 -0.312
89.6343 -0.268
89.6646 0.506
89.6949 0.291
89.7252 0.076
89.7554 0.226
89.7857 0.220
89.8160 0.267
89.8463 0.210
89.8766 0.049
89.9068 -0.164
89.9371 0.353
89.9674 -0.015
89.9977 0.555
90.0279 0.292
90.0582 -0.127
90.0885 -0.337
90.1188 0.171
90.1491 0.262
90.1793 0.250
90.2096 0.811
90.2399 0.748
90.2702 0.685
90.3005 -0.211
90.3307 0.560
90.3610 0.550
90.3913 0.541
90.4216 0.375
90.4518 -0.102
90.4821 0.775
90.5124 -0.275
90.5427 0.551
90.5730 0.648
90.6032 -0.765
90.6335 0.114
90.6638 0.160
90.6941 0.571
90.7244 0.045
90.7546 0.561
90.7849 -0.329
90.8152 -0.333
90.8455 0.181
90.8758 0.071
90.9060 0.221
90.9363 0.580
90.9666 1.044
90.9969 0.467
91.0271 -0.319
91.0574 0.563
91.0877 0.091
91.1180 -0.537
91.1483 0.606
91.1785 0.239
91.2088 0.133
91.2391 0.548
91.2694 0.599
91.2997 0.129
91.3299 -0.027
91.3602 -0.131
91.3905 0.129
91.4208 -0.078
91.4510 -0.338
91.4813 -0.027
91.5116 -0.496
91.5419 0.597
91.5722 0.961
91.6024 -0.185
91.6327 -0.133
91.6630 0.389
91.6933 0.130
91.7236 -0.338
91.7538 -0.287
91.7841 0.701
91.8144 0.648
91.8447 0.126
91.8749 0.386
91.9052 -0.239
91.9355 0.491
91.9658 0.648
91.9961 0.128
92.0263 -0.235
92.0566 -0.546
92.0869 0.287
92.1172 0.235
92.1475 -0.234
92.1777 -0.233
92.2080 0.080
92.2383 0.550
92.2686 -0.855
92.2988 0.137
92.3291 0.400
92.3594 -0.014
92.3897 0.041
92.4200 -0.059
92.4502 0.153
92.4805 -0.468
92.5108 -0.106
92.5411 0.620
92.5714 -0.007
92.6016 0.147
92.6319 0.302
92.6622 -0.428
92.6925 0.873
92.7227 0.196
92.7530 -0.533
92.7833 0.248
92.8136 0.457
92.8439 0.146
92.8741 0.668
92.9044 0.254
92.9347 -0.265
92.9650 0.050
92.9953 0.001
93.0255 0.682
93.0558 -0.304
93.0861 0.325
93.1164 -0.191
93.1466 -0.187
93.1769 -0.598
93.2072 0.234
93.2375 -0.027
93.2678 0.025
93.2980 0.025
93.3283 -0.079
93.3586 0.026
93.3889 -0.546
93.4192 0.024
93.4494 -0.136
93.4797 -0.190
93.5100 0.380
93.5403 -0.038
93.5706 -0.665
93.6008 0.115
93.6311 0.375
93.6614 0.166
93.6917 -0.459
93.7219 0.375
93.7522 -0.146
93.7825 0.064
93.8128 0.013
93.8431 0.328
93.8733 0.069
93.9036 0.385
93.9339 0.388
93.9642 -0.130
93.9945 0.238
94.0247 -0.591
94.0550 0.039
94.0853 0.304
94.1156 -0.108
94.1458 0.002
94.1761 -0.252
94.2064 0.067
94.2367 -0.343
94.2670 0.185
94.2972 -0.224
94.3275 -0.269
94.3578 0.000
94.3881 0.165
94.4184 0.330
94.4486 -0.181
94.4789 0.401
94.5092 -0.474
94.5395 0.057
94.5697 -0.036
94.6000 0.236
94.6303 0.664
94.6606 -0.157
94.6909 0.428
94.7211 0.441
94.7514 0.298
94.7817 -0.105
94.8120 0.013
94.8423 -0.442
94.8725 0.028
94.9028 0.237
94.9331 -0.074
94.9634 -0.021
94.9936 0.137
95.0239 0.348
95.0542 0.351
95.0845 0.042
95.1148 0.930
95.1450 0.361
95.1753 -0.363
95.2056 -0.312
95.2359 0.097
95.2662 -0.067
95.2964 0.239
95.3267 0.077
95.3570 0.019
95.3873 -0.143
95.4175 0.581
95.4478 0.628
95.4781 0.103
95.5084 0.620
95.5387 -0.113
95.5689 0.613
95.5992 0.349
95.6295 0.503
95.6598 0.345
95.6901 1.124
95.7203 0.289
95.7506 0.445
95.7809 0.027
95.8112 -0.181
95.8414 -0.442
95.8717 0.223
95.9020 0.315
95.9323 -0.061
95.9626 0.031
95.9928 0.124
96.0231 -0.095
96.0534 0.364
96.0837 -0.011
96.1140 -0.228
96.1442 0.492
96.1745 0.222
96.2048 0.370
96.2351 -0.106
96.2653 -0.479
96.2956 0.191
96.3259 0.288
96.3562 0.438
96.3865 0.068
96.4167 0.374
96.4470 0.056
96.4773 0.208
96.5076 -0.214
96.5379 0.407
96.5681 -0.065
96.5984 -0.225
96.6287 0.084
96.6590 0.290
96.6893 -0.598
96.7195 -0.243
96.7498 -0.200
96.7801 0.260
96.8104 -0.321
96.8406 0.192
96.8709 -0.076
96.9012 0.178
96.9315 0.379
96.9618 -0.252
96.9920 -0.050
97.0223 0.049
97.0526 -0.165
97.0829 0.195
97.1132 0.555
97.1434 0.343
97.1737 0.026
97.2040 -0.342
97.2343 -0.087
97.2645 0.375
97.2948 -0.047
97.3251 0.157
97.3554 -0.369
97.3857 -0.009
97.4159 -0.273
97.4462 0.609
97.4765 0.449
97.5068 0.186
97.5371 -0.546
97.5673 -0.131
97.5976 0.127
97.6279 -0.291
97.6582 0.385
97.6884 -0.345
97.7187 0.436
97.7490 -0.606
97.7793 0.644
97.8096 -0.553
97.8398 -0.187
97.8701 0.127
97.9004 -0.340
97.9307 -0.181
97.9610 -0.022
97.9912 -0.228
98.0215 0.036
98.0518 -0.116
98.0821 0.044
98.1123 0.153
98.1426 0.366
98.1729 -0.098
98.2032 -0.196
98.2335 0.539
98.2637 0.025
98.2940 0.240
98.3243 0.351
98.3546 0.255
98.3849 0.158
98.4151 0.167
98.4454 -0.137
98.4757 0.341
98.5060 0.350
98.5362 -0.265
98.5665 0.787
98.5968 -0.036
98.6271 0.600
98.6574 -0.847
98.6876 0.675
98.7179 -0.042
98.7482 -0.186
98.7785 -0.329
98.8088 0.043
98.8390 0.729
98.8693 -0.252
98.8996 -0.034
98.9299 0.705
98.9601 -0.275
98.9904 0.465
99.0207 -0.045
99.0510 -0.034
99.0813 0.654
99.1115 -0.219
99.1418 -0.051
99.1721 -0.142
99.2024 -0.494
99.2327 0.180
99.2629 -0.240
99.2932 0.539
99.3235 -0.037
99.3538 0.274
99.3841 0.220
99.4143 0.063
99.4446 0.374
99.4749 0.218
99.5052 -0.095
99.5354 -0.043
99.5657 0.583
99.5960 -0.041
99.6263 0.012
99.6566 0.066
99.6868 -0.192
99.7171 0.279
99.7474 0.334
99.7777 0.598
99.8080 0.237
99.8382 0.085
99.8685 -0.432
99.8988 0.615
99.9291 0.099
99.9593 0.261
99.9896 -0.045
100.0199 0.013
100.0502 0.332
100.0805 -0.025
100.1107 0.242
100.1410 0.459
100.1713 -0.471
100.2016 0.527
100.2319 -0.037
100.2621 0.181
100.2924 -0.070
100.3227 0.201
100.3530 0.784
100.3832 0.378
100.4135 -0.183
100.4438 -0.276
100.4741 -0.264
100.5044 -0.304
100.5346 0.054
100.5649 0.777
100.5952 -0.010
100.6255 0.610
100.6558 0.292
100.6860 0.235
100.7163 0.075
100.7466 0.227
100.7769 0.223
100.8071 1.314
100.8374 0.321
100.8677 0.006
100.8980 -0.308
100.9283 -0.266
100.9585 0.663
100.9888 0.446
101.0191 0.020
101.0494 0.117
101.0797 -0.204
101.1099 0.518
101.1402 0.095
101.1705 0.661
101.2008 0.186
101.2310 -0.184
101.2613 0.696
101.2916 0.274
101.3219 -0.043
101.3522 0.630
101.3824 -0.156
101.4127 0.049
101.4430 -0.423
101.4733 0.668
101.5036 0.041
101.5338 1.029
101.5641 0.610
101.5944 -0.068
101.6247 -0.173
101.6549 -0.174
101.6852 0.034
101.7155 0.139
101.7458 0.244
101.7761 0.088
101.8063 0.142
101.8366 0.144
101.8669 -0.531
101.8972 0.565
101.9275 0.099
101.9577 0.363
101.9880 -0.259
102.0183 0.474
102.0486 0.218
102.0788 0.536
102.1091 0.176
102.1394 0.338
102.1697 0.500
102.2000 0.038
102.2302 -0.008
102.2605 0.208
102.2908 -0.306
102.3211 0.327
102.3514 -0.394
102.3816 0.448
102.4119 0.196
102.4422 0.310
102.4725 0.111
102.5028 0.382
102.5330 -0.025
102.5633 0.559
102.5936 0.101
102.6239 -0.304
102.6541 -0.205
102.6844 0.102
102.7147 0.826
102.7450 0.405
102.7753 0.400
102.8055 0.292
102.8358 0.080
102.8661 0.285
102.8964 0.595
102.9267 0.072
102.9569 0.382
102.9872 -0.140
103.0175 0.119
103.0478 -0.247
103.0780 0.222
103.1083 0.430
103.1386 0.013
103.1689 0.691
103.1992 0.015
103.2294 0.537
103.2597 -0.086
103.2900 0.176
103.3203 0.544
103.3506 -0.026
103.3808 -0.127
103.4111 0.137
103.4414 0.036
103.4717 -0.063
103.5019 0.358
103.5322 0.832
103.5625 0.004
103.5928 -0.146
103.6231 0.537
103.6533 0.440
103.6836 0.030
103.7139 0.141
103.7442 -0.111
103.7745 -0.572
103.8047 0.148
103.8350 -0.122
103.8653 -0.287
103.8956 -0.139
103.9258 -0.304
103.9561 -0.103
103.9864 0.099
104.0167 -0.168
104.0470 -0.487
104.0772 0.706
104.1075 -0.081
104.1378 -0.190
104.1681 0.274
104.1984 0.426
104.2286 -0.099
104.2589 0.419
104.2892 -0.782
104.3195 -0.212
104.3497 -0.058
104.3800 0.305
104.4103 0.095
104.4406 -0.167
104.4709 -0.637
104.5011 0.301
104.5314 -0.168
104.5617 0.353
104.5920 0.301
104.6223 -0.375
104.6525 -0.009
104.6828 0.045
104.7131 0.933
104.7434 0.311
104.7736 -0.207
104.8039 -0.308
104.8342 -0.103
104.8645 -0.158
104.8948 -0.420
104.9250 0.620
104.9553 0.045
104.9856 0.513
105.0159 0.616
105.0462 0.355
105.0764 -0.218
105.1067 0.095
105.1370 -0.060
105.1673 -0.320
105.1975 0.411
105.2278 -0.525
105.2581 0.207
105.2884 -0.468
105.3187 -0.160
105.3489 0.201
105.3792 0.093
105.4095 0.142
105.4398 -0.173
105.4701 -0.072
105.5003 -0.282
105.5306 0.081
105.5609 -0.494
105.5912 -0.027
105.6215 -0.446
105.6517 0.386
105.6820 -0.084
105.7123 0.280
105.7426 0.540
105.7728 0.019
105.8031 -0.033
105.8334 0.124
105.8637 0.489
105.8940 -0.447
105.9242 -0.184
105.9545 -0.026
105.9848 0.706
106.0151 0.552
106.0454 0.452
106.0756 -0.118
106.1059 0.043
106.1362 0.203
106.1665 0.364
106.1967 0.474
106.2270 0.167
106.2573 0.173
106.2876 0.492
106.3179 -0.127
106.3481 0.401
106.3784 -0.008
106.4087 0.156
106.4390 -0.200
106.4693 1.006
106.4995 -0.026
106.5298 -0.069
106.5601 -0.007
106.5904 -0.206
106.6206 -0.299
106.6509 -0.091
106.6812 -0.299
106.7115 0.111
106.7418 0.000
106.7720 -0.058
106.8023 0.353
106.8326 -0.173
106.8629 0.030
106.8932 0.286
106.9234 -0.187
106.9537 0.487
106.9840 -0.038
107.0143 0.168
107.0445 0.321
107.0748 0.527
107.1051 -0.360
107.1354 0.107
107.1657 0.210
107.1959 -0.051
107.2262 0.209
107.2565 -0.103
107.2868 0.053
107.3171 0.210
107.3473 0.524
107.3776 0.421
107.4079 0.059
107.4382 -0.304
107.4684 -0.046
107.4987 0.109
107.5290 0.003
107.5593 0.471
107.5896 0.470
107.6198 -0.520
107.6501 0.209
107.6804 0.053
107.7107 -0.050
107.7410 0.107
107.7712 0.734
107.8015 0.371
107.8318 -0.408
107.8621 0.011
107.8923 0.379
107.9226 0.278
107.9529 -0.343
107.9832 -0.130
108.0135 -0.126
108.0437 -0.069
108.0740 0.509
108.1043 -0.110
108.1346 0.469
108.1649 -0.306
108.1951 -0.299
108.2254 -0.100
108.2557 -0.056
108.2860 -0.116
108.3163 0.449
108.3465 -0.027
108.3768 0.279
108.4071 0.532
108.4374 -0.099
108.4676 0.677
108.4979 0.150
108.5282 -0.011
108.5585 -0.328
108.5888 0.189
108.6190 -0.440
108.6493 -0.027
108.6796 0.074
108.7099 0.540
108.7402 -0.348
108.7704 -0.246
108.8007 0.013
108.8310 0.012
108.8613 0.375
108.8915 -0.146
108.9218 0.635
108.9521 0.271
108.9824 -0.406
109.0127 0.324
109.0429 0.222
109.0732 0.484
109.1035 0.642
109.1338 0.280
109.1641 0.595
109.1943 0.442
109.2246 0.498
109.2549 -0.383
109.2852 0.090
109.3154 0.303
109.3457 -0.056
109.3760 -0.624
109.4063 0.099
109.4366 -0.010
109.4668 0.089
109.4971 0.136
109.5274 0.705
109.5577 -0.236
109.5880 -0.240
109.6182 0.278
109.6485 0.067
109.6788 0.273
109.7091 0.687
109.7393 -0.252
109.7696 0.580
109.7999 1.256
109.8302 -0.203
109.8605 0.058
109.8907 0.162
109.9210 -0.254
109.9513 0.164
109.9816 0.165
110.0119 0.063
110.0421 0.742
110.0724 -0.245
110.1027 0.018
110.1330 -0.291
110.1632 0.129
110.1935 0.654
110.2238 0.033
110.2541 0.090
110.2844 -0.321
110.3146 0.413
110.3449 -0.310
110.3752 -0.304
110.4055 -0.052
110.4358 -0.113
110.4660 0.191
110.4963 0.027
110.5266 -0.189
110.5569 -0.040
110.5871 0.057
110.6174 0.311
110.6477 0.149
110.6780 0.091
110.7083 -0.643
110.7385 -0.023
110.7688 0.076
110.7991 0.072
110.8294 0.016
110.8597 -0.248
110.8899 -0.251
110.9202 0.059
110.9505 0.525
110.9808 -0.049
111.0110 -0.416
111.0413 0.104
111.0716 0.156
111.1019 0.104
111.1322 -0.312
111.1624 -0.060
111.1927 -0.068
111.2230 0.290
111.2533 -0.134
111.2836 0.068
111.3138 0.062
111.3441 -0.100
111.3744 -0.001
111.4047 -0.266
111.4350 0.250
111.4652 -0.639
111.4955 0.451
111.5258 -0.021
111.5561 -0.024
111.5863 0.390
111.6166 0.596
111.6469 0.490
111.6772 0.280
111.7075 -0.294
111.7377 -0.139
111.7680 -0.295
111.7983 -0.243
111.8286 -0.191
111.8589 0.487
111.8891 0.019
111.9194 0.333
111.9497 0.075
111.9800 0.337
112.0102 0.080
112.0405 0.395
112.0708 0.086
112.1011 -0.223
112.1314 0.354
112.1616 -0.318
112.1919 0.312
112.2222 0.213
112.2525 -0.042
112.2828 -0.505
112.3130 0.335
112.3433 0.134
112.3736 0.037
112.4039 0.044
112.4341 -0.312
112.4644 -0.103
112.4947 0.315
112.5250 0.005
112.5553 -0.149
112.5855 0.114
112.6158 1.106
112.6461 -0.296
112.6764 0.228
112.7067 0.180
112.7369 0.497
112.7672 0.607
112.7975 -0.378
112.8278 0.253
112.8580 0.259
112.8883 0.213
112.9186 0.220
112.9489 0.280
112.9792 0.079
113.0094 -0.069
113.0397 0.303
113.0700 0.156
113.1003 -0.304
113.1306 -0.150
113.1608 0.005
113.1911 0.628
113.2214 0.262
113.2517 0.887
113.2819 -0.207
113.3122 0.522
113.3425 0.470
113.3728 0.627
113.4031 -0.049
113.4333 0.213
113.4636 0.163
113.4939 -0.304
113.5242 -0.200
113.5545 0.216
113.5847 0.372
113.6150 0.007
113.6453 -0.200
113.6756 -0.304
113.7058 -0.101
113.7361 0.780
113.7664 -0.006
113.7967 0.042
113.8270 0.038
113.8572 0.400
113.8875 -0.541
113.9178 -0.023
113.9481 -0.390
113.9784 0.067
114.0086 0.315
114.0389 0.408
114.0692 0.709
114.0995 -0.395
114.1298 0.011
114.1600 0.469
114.1903 0.251
114.2206 -0.800
114.2509 0.337
114.2811 0.172
114.3114 -0.096
114.3417 0.261
114.3720 -0.372
114.4023 0.194
114.4325 -0.438
114.4628 0.389
114.4931 0.279
114.5234 0.378
114.5537 -0.461
114.5839 0.055
114.6142 -0.105
114.6445 0.099
114.6748 0.147
114.7050 0.561
114.7353 -0.015
114.7656 -0.486
114.7959 0.657
114.8262 0.082
114.8564 0.185
114.8867 0.288
114.9170 -0.077
114.9473 0.079
114.9776 -0.442
115.0078 -0.025
115.0381 -0.649
115.0684 0.185
115.0987 -0.126
115.1289 0.293
115.1592 0.295
115.1895 0.401
115.2198 -0.325
115.2501 0.408
115.2803 -0.162
115.3106 0.884
115.3409 -0.049
115.3712 -0.201
115.4015 -0.039
115.4317 -0.034
115.4620 0.233
115.4923 -0.126
115.5226 0.141
115.5528 -0.216
115.5831 0.416
115.6134 -0.409
115.6437 0.432
115.6740 -0.080
115.7042 -0.123
115.7345 0.615
115.7648 -0.313
115.7951 -0.198
115.8254 0.281
115.8556 1.229
115.8859 0.147
115.9162 0.523
115.9465 0.326
115.9767 -0.338
116.0070 0.560
116.0373 0.625
116.0676 -0.039
116.0979 -0.494
116.1281 0.068
116.1584 0.369
116.1887 0.098
116.2190 0.401
116.2493 -0.182
116.2795 0.069
116.3098 0.216
116.3401 -0.365
116.3704 0.564
116.4006 -0.225
116.4309 0.653
116.4612 0.333
116.4915 -0.143
116.5218 0.215
116.5520 -0.259
116.5823 0.256
116.6126 0.407
116.6429 0.558
116.6732 0.397
116.7034 0.549
116.7337 -0.131
116.7640 -0.031
116.7943 0.123
116.8245 -0.088
116.8548 0.534
116.8851 0.168
116.9154 0.166
116.9457 0.321
116.9759 -0.148
117.0062 -0.044
117.0365 -0.044
117.0668 -0.148
117.0971 0.113
117.1273 1.156
117.1576 -0.041
117.1879 0.586
117.2182 0.172
117.2485 0.227
117.2787 -0.187
117.3090 0.545
117.3393 0.133
117.3696 0.085
117.3998 0.350
117.4301 0.615
117.4604 0.151
117.4907 0.105
117.5210 -0.149
117.5512 0.326
117.5815 -0.293
117.6118 -0.442
117.6421 0.333
117.6724 0.119
117.7026 0.270
117.7329 0.004
117.7632 1.093
117.7935 0.047
117.8237 -0.010
117.8540 -0.013
117.8843 -0.277
117.9146 0.032
117.9449 0.134
117.9751 0.184
118.0054 -0.235
118.0357 -0.028
118.0660 0.752
118.0963 0.335
118.1265 0.074
118.1568 0.543
118.1871 -0.811
118.2174 0.752
118.2476 0.076
118.2779 -0.235
118.3082 -0.337
118.3385 0.342
118.3688 0.085
118.3990 0.088
118.4293 -0.065
118.4596 0.147
118.4899 0.203
118.5202 0.312
118.5504 0.213
118.5807 0.426
118.6110 0.276
118.6413 0.594
118.6715 -0.181
118.7018 -0.070
118.7321 0.198
118.7624 -0.159
118.7927 -0.047
118.8229 0.274
118.8532 -0.290
118.8835 0.083
118.9138 0.509
118.9441 0.467
118.9743 0.582
119.0046 -0.293
119.0349 -0.126
119.0652 0.510
119.0954 0.001
119.1257 0.065
119.1560 0.546
119.1863 0.091
119.2166 0.260
119.2468 0.013
119.2771 -0.337
119.3074 0.024
119.3377 0.646
119.3680 0.279
119.3982 0.329
119.4285 -0.090
119.4588 0.117
119.4891 0.533
119.5193 0.584
119.5496 0.480
119.5799 0.532
119.6102 0.220
119.6405 0.377
119.6707 1.055
119.7010 0.276
119.7313 0.017
119.7616 0.384
119.7919 0.804
119.8221 0.390
119.8524 0.862
119.8827 0.866
119.9130 0.975
119.9433 0.771
119.9735 0.932
120.0038 0.000
