'Id: "" Comment: "" Operator: "Lab Manager" Anode: "Cu" Scantype: "Locked Coupled" TimePerStep: "19.2" X: "9999" Y: "9999" Z: "9999" 
10.0015 0.000
10.0318 -2.342
10.0620 -3.646
10.0923 -1.931
10.1226 -2.812
10.1529 -1.250
10.1832 -2.135
10.2134 -1.421
10.2437 -1.332
10.2740 -1.265
10.3043 -0.788
10.3346 -1.143
10.3648 -1.085
10.3951 -1.044
10.4254 -1.013
10.4557 -0.806
10.4859 0.548
10.5162 0.808
10.5465 -1.276
10.5768 -0.868
10.6071 -0.856
10.6373 -0.368
10.6676 -0.244
10.6979 0.610
10.7282 0.422
10.7585 -1.119
10.7887 -0.602
10.8190 0.175
10.8493 -0.452
10.8796 0.118
10.9098 1.158
10.9401 1.417
10.9704 0.426
11.0007 2.874
11.0310 2.718
11.0612 3.395
11.0915 4.959
11.1218 4.648
11.1521 5.015
11.1824 6.320
11.2126 6.896
11.2429 9.347
11.2732 11.643
11.3035 20.762
11.3337 30.246
11.3640 42.491
11.3943 65.258
11.4246 92.765
11.4549 129.126
11.4851 131.321
11.5154 103.517
11.5457 53.733
11.5760 30.253
11.6063 21.408
11.6365 23.502
11.6668 22.002
11.6971 23.107
11.7274 25.670
11.7577 29.276
11.7879 31.060
11.8182 25.864
11.8485 22.805
11.8788 18.184
11.9090 14.552
11.9393 10.297
11.9696 8.854
11.9999 8.505
12.0302 6.595
12.0604 7.237
12.0907 9.546
12.1210 11.283
12.1513 11.249
12.1816 9.758
12.2118 5.976
12.2421 4.016
12.2724 1.589
12.3027 0.360
12.3329 1.475
12.3632 1.445
12.3935 0.583
12.4238 -0.384
12.4541 -0.621
12.4843 0.601
12.5146 -0.416
12.5449 0.390
12.5752 -0.574
12.6055 0.181
12.6357 -0.469
12.6660 -1.536
12.6963 0.459
12.7266 -0.618
12.7568 0.441
12.7871 -1.364
12.8174 -0.148
12.8477 -1.275
12.8780 0.145
12.9082 0.472
12.9385 0.226
12.9688 -0.852
12.9991 0.101
13.0294 -0.508
13.0596 -0.141
13.0899 -0.242
13.1202 -0.811
13.1505 0.547
13.1807 -0.334
13.2110 -0.642
13.2413 0.457
13.2716 0.047
13.3019 0.574
13.3321 0.789
13.3624 1.890
13.3927 2.471
13.4230 5.292
13.4533 8.270
13.4835 5.884
13.5138 5.008
13.5441 1.425
13.5744 -0.231
13.6046 -0.376
13.6349 -1.041
13.6652 0.415
13.6955 -1.202
13.7258 0.723
13.7560 -0.319
13.7863 0.305
13.8166 0.409
13.8469 0.774
13.8772 -0.215
13.9074 -1.411
13.9377 0.413
13.9680 0.416
13.9983 -0.258
14.0285 0.162
14.0588 0.790
14.0891 0.639
14.1194 1.373
14.1497 0.961
14.1799 1.696
14.2102 1.911
14.2405 2.595
14.2708 3.800
14.3011 1.464
14.3313 3.660
14.3616 2.836
14.3919 3.939
14.4222 5.303
14.4524 6.563
14.4827 7.824
14.5130 7.054
14.5433 10.660
14.5736 13.224
14.6038 14.435
14.6341 18.771
14.6644 19.097
14.6947 26.247
14.7250 31.574
14.7552 35.340
14.7855 39.210
14.8158 39.643
14.8461 39.347
14.8764 38.791
14.9066 34.643
14.9369 30.546
14.9672 27.284
14.9975 22.303
15.0277 19.667
15.0580 14.062
15.0883 12.208
15.1186 9.052
15.1489 7.459
15.1791 7.013
15.2094 5.317
15.2397 4.507
15.2700 2.499
15.3003 2.680
15.3305 2.809
15.3608 1.897
15.3911 2.652
15.4214 0.490
15.4516 0.882
15.4819 1.638
15.5122 0.833
15.5425 0.809
15.5728 2.348
15.6030 3.002
15.6333 1.730
15.6636 2.750
15.6939 2.520
15.7242 1.354
15.7544 1.906
15.7847 1.626
15.8150 1.815
15.8453 0.651
15.8755 1.049
15.9058 0.979
15.9361 0.233
15.9664 -0.409
15.9967 0.408
16.0269 -0.233
16.0572 -0.405
16.0875 0.778
16.1178 0.504
16.1481 0.490
16.1783 -0.305
16.2086 -0.109
16.2389 0.139
16.2692 -0.133
16.2994 0.064
16.3297 -0.520
16.3600 -0.041
16.3903 -0.187
16.4206 0.293
16.4508 0.201
16.4811 0.317
16.5114 0.121
16.5417 -0.022
16.5720 -0.321
16.6022 -0.098
16.6325 -0.552
16.6628 0.765
16.6931 -0.053
16.7233 1.317
16.7536 1.751
16.7839 2.861
16.8142 1.629
16.8445 1.647
16.8747 0.780
16.9050 0.747
16.9353 1.132
16.9656 1.360
16.9959 1.120
17.0261 1.610
17.0564 0.902
17.0867 0.820
17.1170 0.374
17.1472 0.293
17.1775 0.317
17.2078 -0.024
17.2381 -0.520
17.2684 0.074
17.2986 0.459
17.3289 -0.248
17.3592 0.191
17.3895 -0.047
17.4198 0.705
17.4500 -0.365
17.4803 -0.132
17.5106 0.257
17.5409 0.647
17.5712 -0.421
17.6014 -0.135
17.6317 0.986
17.6620 0.700
17.6923 -0.053
17.7225 -0.390
17.7528 0.081
17.7831 -0.332
17.8134 0.192
17.8437 0.091
17.8739 -0.112
17.9042 0.049
17.9345 1.044
17.9648 -0.461
17.9951 0.327
18.0253 0.021
18.0556 0.184
18.0859 -0.381
18.1162 0.201
18.1464 0.157
18.1767 0.271
18.2070 0.124
18.2373 0.551
18.2676 0.250
18.2978 -0.103
18.3281 0.221
18.3584 -0.079
18.3887 0.038
18.4190 0.676
18.4492 -0.248
18.4795 -0.754
18.5098 0.261
18.5401 0.547
18.5703 -0.208
18.6006 0.027
18.6309 0.679
18.6612 -0.075
18.6915 -0.255
18.7217 0.399
18.7520 0.480
18.7823 0.354
18.8126 0.019
18.8429 0.987
18.8731 0.290
18.9034 -0.043
18.9337 0.041
18.9640 0.490
18.9942 -0.622
19.0245 0.193
19.0548 0.018
19.0851 0.470
19.1154 -0.224
19.1456 0.541
19.1759 0.421
19.2062 0.509
19.2365 0.234
19.2668 0.845
19.2970 0.258
19.3273 1.338
19.3576 1.429
19.3879 1.417
19.4181 0.468
19.4484 0.873
19.4787 0.654
19.5090 0.487
19.5393 0.633
19.5695 1.249
19.5998 0.823
19.6301 0.086
19.6604 0.182
19.6907 1.060
19.7209 0.740
19.7512 1.619
19.7815 2.030
19.8118 4.316
19.8420 3.791
19.8723 5.192
19.9026 4.303
19.9329 5.289
19.9632 4.713
19.9934 4.659
20.0237 4.397
20.0540 3.770
20.0843 2.467
20.1146 2.519
20.1448 2.310
20.1751 1.321
20.2054 1.635
20.2357 0.803
20.2659 1.586
20.2962 0.339
20.3265 0.394
20.3568 0.866
20.3871 0.350
20.4173 1.135
20.4476 0.099
20.4779 0.209
20.5082 -0.931
20.5385 0.169
20.5687 0.489
20.5990 -0.129
20.6293 -0.069
20.6596 -0.164
20.6899 -0.520
20.7201 0.206
20.7504 0.204
20.7807 -0.163
20.8110 -0.372
20.8412 -0.061
20.8715 0.408
20.9018 -0.530
20.9321 0.356
20.9624 0.305
20.9926 0.775
21.0229 0.934
21.0532 0.207
21.0835 0.887
21.1138 1.932
21.1440 4.020
21.1743 6.316
21.2046 12.415
21.2349 16.066
21.2651 13.729
21.2954 9.048
21.3257 4.523
21.3560 1.614
21.3863 -0.200
21.4165 0.954
21.4468 -0.027
21.4771 0.347
21.5074 -0.788
21.5377 0.160
21.5679 0.327
21.5982 -0.391
21.6285 -0.222
21.6588 0.259
21.6890 0.272
21.7193 -0.496
21.7496 0.091
21.7799 -0.050
21.8102 0.329
21.8404 -0.176
21.8707 0.361
21.9010 0.481
21.9313 -0.491
21.9616 0.047
21.9918 0.117
22.0221 0.136
22.0524 0.363
22.0827 -0.138
22.1129 -0.118
22.1432 -0.045
22.1735 0.601
22.2038 -0.315
22.2341 -0.345
22.2643 -0.203
22.2946 0.149
22.3249 0.136
22.3552 0.332
22.3855 0.581
22.4157 0.726
22.4460 0.195
22.4763 0.185
22.5066 0.436
22.5368 -0.094
22.5671 0.470
22.5974 -0.111
22.6277 0.350
22.6580 0.187
22.6882 0.545
22.7185 0.904
22.7488 -0.092
22.7791 -0.357
22.8094 -0.084
22.8396 0.658
22.8699 0.255
22.9002 -0.148
22.9305 1.741
22.9607 0.871
22.9910 0.157
23.0213 1.371
23.0516 1.596
23.0819 2.134
23.1121 5.224
23.1424 7.325
23.1727 13.646
23.2030 16.477
23.2333 15.559
23.2635 12.819
23.2938 6.693
23.3241 5.568
23.3544 1.944
23.3846 2.383
23.4149 2.874
23.4452 2.428
23.4755 1.566
23.5058 3.204
23.5360 2.916
23.5663 2.472
23.5966 3.123
23.6269 1.638
23.6572 2.238
23.6874 2.629
23.7177 2.917
23.7480 2.424
23.7783 2.036
23.8086 3.784
23.8388 3.188
23.8691 3.374
23.8994 2.884
23.9297 2.967
23.9599 1.748
23.9902 1.415
24.0205 0.979
24.0508 2.158
24.0811 1.566
24.1113 2.225
24.1416 3.093
24.1719 4.846
24.2022 8.684
24.2325 15.230
24.2627 12.923
24.2930 11.397
24.3233 9.768
24.3536 5.483
24.3838 2.605
24.4141 2.539
24.4444 2.370
24.4747 1.994
24.5050 2.086
24.5352 3.273
24.5655 3.991
24.5958 3.877
24.6261 3.971
24.6564 2.920
24.6866 3.745
24.7169 2.487
24.7472 4.771
24.7775 5.128
24.8077 6.424
24.8380 7.928
24.8683 10.682
24.8986 11.406
24.9289 15.256
24.9591 16.450
24.9894 16.706
25.0197 15.661
25.0500 14.200
25.0803 11.646
25.1105 10.186
25.1408 7.893
25.1711 8.205
25.2014 5.652
25.2316 4.871
25.2619 5.081
25.2922 3.832
25.3225 3.834
25.3528 2.273
25.3830 1.339
25.4133 0.509
25.4436 0.200
25.4739 0.204
25.5042 0.625
25.5344 -0.046
25.5647 -0.093
25.5950 -0.451
25.6253 0.002
25.6555 0.195
25.6858 -0.236
25.7161 -0.042
25.7464 0.726
25.7767 0.296
25.8069 0.648
25.8372 0.480
25.8675 0.937
25.8978 1.186
25.9281 1.332
25.9583 2.259
25.9886 0.999
26.0189 0.521
26.0492 1.867
26.0794 1.807
26.1097 1.330
26.1400 1.688
26.1703 2.671
26.2006 2.404
26.2308 5.002
26.2611 10.414
26.2914 16.868
26.3217 19.832
26.3520 21.183
26.3822 15.867
26.4125 10.135
26.4428 7.216
26.4731 2.111
26.5034 2.734
26.5336 1.119
26.5639 0.807
26.5942 0.911
26.6245 1.381
26.6547 0.444
26.6850 0.655
26.7153 0.709
26.7456 1.024
26.7759 2.017
26.8061 1.656
26.8364 3.015
26.8667 1.666
26.8970 4.067
26.9273 2.927
26.9575 3.246
26.9878 2.679
27.0181 2.062
27.0484 3.215
27.0786 1.922
27.1089 1.357
27.1392 0.325
27.1695 1.012
27.1998 0.970
27.2300 1.554
27.2603 1.513
27.2906 3.244
27.3209 2.318
27.3512 1.810
27.3814 2.501
27.4117 1.890
27.4420 0.914
27.4723 1.710
27.5025 1.882
27.5328 3.825
27.5631 2.851
27.5934 3.493
27.6237 4.813
27.6539 6.028
27.6842 5.890
27.7145 7.211
27.7448 8.689
27.7751 10.948
27.8053 11.646
27.8356 14.583
27.8659 16.063
27.8962 16.241
27.9264 14.180
27.9567 17.327
27.9870 16.674
28.0173 15.968
28.0476 13.961
28.0778 12.528
28.1081 10.834
28.1384 8.933
28.1687 8.542
28.1990 7.580
28.2292 4.221
28.2595 4.926
28.2898 3.027
28.3201 2.431
28.3503 2.252
28.3806 1.657
28.4109 1.010
28.4412 1.509
28.4715 0.551
28.5017 1.260
28.5320 -0.322
28.5623 0.283
28.5926 0.525
28.6229 -0.014
28.6531 0.697
28.6834 0.680
28.7137 0.975
28.7440 -0.083
28.7742 0.110
28.8045 0.771
28.8348 0.027
28.8651 0.586
28.8954 0.416
28.9256 0.090
28.9559 -0.339
28.9862 0.117
29.0165 -0.520
29.0468 -0.104
29.0770 0.624
29.1073 1.041
29.1376 1.510
29.1679 0.053
29.1981 1.721
29.2284 1.359
29.2587 0.945
29.2890 0.791
29.3193 1.368
29.3495 0.903
29.3798 1.637
29.4101 1.329
29.4404 0.605
29.4707 1.184
29.5009 0.201
29.5312 -0.365
29.5615 -0.363
29.5918 -0.100
29.6221 0.528
29.6523 0.427
29.6826 -0.246
29.7129 0.123
29.7432 0.180
29.7734 0.238
29.8037 0.243
29.8340 0.354
29.8643 -0.160
29.8946 -0.361
29.9248 0.159
29.9551 0.262
29.9854 -0.155
30.0157 -0.364
30.0460 0.202
30.0762 0.142
30.1065 0.188
30.1368 0.129
30.1671 -0.502
30.1973 0.066
30.2276 0.790
30.2579 0.995
30.2882 0.939
30.3185 1.144
30.3487 0.933
30.3790 0.149
30.4093 0.460
30.4396 0.354
30.4699 0.250
30.5001 0.406
30.5304 1.187
30.5607 0.615
30.5910 -0.842
30.6212 0.514
30.6515 0.828
30.6818 -0.106
30.7121 -0.520
30.7424 0.127
30.7726 0.826
30.8029 0.744
30.8332 -0.327
30.8635 0.166
30.8938 0.867
30.9240 0.058
30.9543 0.656
30.9846 0.421
31.0149 0.082
31.0451 0.734
31.0754 0.761
31.1057 0.580
31.1360 1.806
31.1663 1.834
31.1965 2.124
31.2268 2.466
31.2571 1.871
31.2874 2.735
31.3177 3.495
31.3479 3.214
31.3782 5.694
31.4085 6.924
31.4388 8.467
31.4690 9.543
31.4993 10.879
31.5296 13.205
31.5599 15.011
31.5902 16.296
31.6204 16.853
31.6507 21.264
31.6810 18.176
31.7113 20.245
31.7416 19.554
31.7718 14.280
31.8021 13.329
31.8324 10.504
31.8627 7.159
31.8929 5.168
31.9232 3.594
31.9535 3.740
31.9838 3.365
32.0141 2.939
32.0443 1.367
32.0746 1.984
32.1049 1.923
32.1352 1.499
32.1655 1.961
32.1957 0.913
32.2260 1.531
32.2563 1.161
32.2866 1.729
32.3169 1.776
32.3471 0.262
32.3774 2.550
32.4077 1.505
32.4380 1.086
32.4682 2.125
32.4985 0.769
32.5288 1.966
32.5591 2.643
32.5894 4.153
32.6196 5.403
32.6499 7.644
32.6802 10.666
32.7105 18.272
32.7408 43.535
32.7710 60.621
32.8013 44.166
32.8316 34.951
32.8619 30.789
32.8921 15.585
32.9224 8.091
32.9527 5.596
32.9830 4.821
33.0133 2.589
33.0435 4.836
33.0738 1.927
33.1041 3.706
33.1344 3.715
33.1647 2.370
33.1949 2.901
33.2252 3.328
33.2555 4.797
33.2858 8.558
33.3160 10.445
33.3463 6.291
33.3766 6.147
33.4069 5.692
33.4372 1.643
33.4674 0.824
33.4977 0.162
33.5280 0.750
33.5583 -0.015
33.5886 -0.624
33.6188 0.030
33.6491 -0.253
33.6794 -0.066
33.7097 0.433
33.7399 -0.212
33.7702 0.132
33.8005 -0.357
33.8308 -0.220
33.8611 -0.395
33.8913 0.420
33.9216 1.027
33.9519 0.958
33.9822 0.472
34.0125 1.862
34.0427 2.523
34.0730 3.393
34.1033 7.024
34.1336 8.416
34.1638 8.559
34.1941 9.275
34.2244 11.345
34.2547 9.510
34.2850 8.352
34.3152 8.080
34.3455 7.861
34.3758 5.090
34.4061 3.883
34.4364 2.988
34.4666 2.406
34.4969 1.929
34.5272 1.869
34.5575 2.174
34.5877 1.282
34.6180 3.046
34.6483 1.738
34.6786 2.254
34.7089 3.343
34.7391 4.224
34.7694 5.626
34.7997 13.800
34.8300 28.745
34.8603 48.638
34.8905 45.355
34.9208 31.396
34.9511 29.103
34.9814 20.665
35.0116 11.915
35.0419 6.499
35.0722 4.365
35.1025 2.335
35.1328 2.598
35.1630 3.225
35.1933 2.551
35.2236 1.409
35.2539 1.882
35.2842 1.157
35.3144 1.683
35.3447 1.429
35.3750 1.018
35.4053 1.754
35.4356 1.865
35.4658 0.727
35.4961 1.620
35.5264 2.306
35.5567 0.857
35.5869 1.908
35.6172 2.126
35.6475 1.564
35.6778 1.627
35.7081 2.576
35.7383 1.755
35.7686 2.080
35.7989 3.239
35.8292 3.669
35.8595 3.631
35.8897 5.000
35.9200 6.994
35.9503 8.625
35.9806 11.453
36.0108 11.991
36.0411 14.716
36.0714 14.629
36.1017 16.262
36.1320 13.937
36.1622 14.685
36.1925 10.590
36.2228 12.225
36.2531 8.443
36.2834 7.683
36.3136 6.871
36.3439 6.685
36.3742 5.093
36.4045 3.553
36.4347 2.900
36.4650 3.184
36.4953 1.646
36.5256 1.567
36.5559 0.864
36.5861 0.577
36.6164 0.083
36.6467 0.579
36.6770 -0.175
36.7073 -0.147
36.7375 0.559
36.7678 0.588
36.7981 0.617
36.8284 -0.394
36.8586 -0.416
36.8889 0.420
36.9192 0.319
36.9495 -0.979
36.9798 0.379
37.0100 0.904
37.0403 0.337
37.0706 -0.075
37.1009 0.036
37.1312 0.459
37.1614 0.987
37.1917 0.109
37.2220 1.263
37.2523 2.209
37.2825 4.562
37.3128 9.572
37.3431 11.978
37.3734 8.238
37.4037 7.260
37.4339 9.042
37.4642 6.606
37.4945 3.077
37.5248 2.361
37.5551 2.166
37.5853 1.503
37.6156 0.997
37.6459 1.481
37.6762 1.080
37.7064 1.200
37.7367 0.904
37.7670 0.869
37.7973 1.043
37.8276 0.384
37.8578 0.715
37.8881 0.734
37.9184 -0.028
37.9487 -0.008
37.9790 0.013
38.0092 0.555
38.0395 -0.257
38.0698 -0.183
38.1001 -0.264
38.1304 -0.345
38.1606 -0.133
38.1909 0.079
38.2212 0.657
38.2515 -0.692
38.2817 0.095
38.3120 -0.420
38.3423 0.108
38.3726 0.011
38.4029 -0.034
38.4331 0.495
38.4634 0.191
38.4937 0.201
38.5240 0.158
38.5543 -0.144
38.5845 0.231
38.6148 0.659
38.6451 -0.371
38.6754 0.735
38.7056 -0.086
38.7359 -0.125
38.7662 0.045
38.7965 0.164
38.8268 0.282
38.8570 0.714
38.8873 -0.728
38.9176 -0.087
38.9479 -0.071
38.9782 -0.106
39.0084 0.329
39.0387 -0.174
39.0690 -0.728
39.0993 0.209
39.1295 -0.364
39.1598 -0.051
39.1901 0.575
39.2204 0.576
39.2507 0.734
39.2809 0.060
39.3112 0.219
39.3415 -0.247
39.3718 0.591
39.4021 -0.499
39.4323 0.183
39.4626 0.241
39.4929 -0.118
39.5232 -0.372
39.5534 0.208
39.5837 -0.097
39.6140 -0.089
39.6443 0.544
39.6746 -0.176
39.7048 -0.219
39.7351 -0.105
39.7654 -0.146
39.7957 -0.239
39.8260 0.032
39.8562 -0.164
39.8865 0.005
39.9168 -0.035
39.9471 -0.490
39.9773 0.149
40.0076 0.059
40.0379 0.334
40.0682 0.298
40.0985 -0.676
40.1287 -0.278
40.1590 -0.141
40.1893 0.726
40.2196 0.188
40.2499 0.379
40.2801 0.675
40.3104 -0.539
40.3407 0.539
40.3710 0.420
40.4012 1.030
40.4315 1.432
40.4618 1.158
40.4921 2.812
40.5224 3.216
40.5526 7.006
40.5829 10.171
40.6132 9.535
40.6435 7.649
40.6738 7.587
40.7040 6.015
40.7343 4.704
40.7646 2.455
40.7949 2.083
40.8251 1.033
40.8554 0.922
40.8857 1.228
40.9160 0.961
40.9463 0.851
40.9765 1.054
41.0068 1.414
41.0371 0.629
41.0674 0.469
41.0977 1.039
41.1279 0.828
41.1582 0.930
41.1885 0.824
41.2188 1.083
41.2491 0.770
41.2793 0.040
41.3096 0.301
41.3399 1.031
41.3702 0.876
41.4004 0.930
41.4307 1.349
41.4610 1.768
41.4913 2.032
41.5216 2.609
41.5518 2.561
41.5821 2.566
41.6124 1.894
41.6427 3.150
41.6730 2.271
41.7032 2.902
41.7335 3.326
41.7638 2.657
41.7941 0.999
41.8243 1.216
41.8546 1.121
41.8849 0.818
41.9152 0.568
41.9455 0.579
41.9757 0.382
42.0060 0.498
42.0363 0.666
42.0666 0.314
42.0969 0.432
42.1271 0.133
42.1574 0.877
42.1877 0.058
42.2180 0.125
42.2482 -0.067
42.2785 -0.468
42.3088 0.111
42.3391 0.221
42.3694 -0.189
42.3996 0.026
42.4299 0.242
42.4602 -0.062
42.4905 -0.158
42.5208 0.164
42.5510 0.173
42.5813 -0.337
42.6116 -0.125
42.6419 0.244
42.6721 -0.116
42.7024 0.306
42.7327 0.000
42.7630 -0.046
42.7933 -0.299
42.8235 -0.256
42.8538 0.568
42.8841 0.144
42.9144 -0.072
42.9447 -0.079
42.9749 0.956
43.0052 -0.353
43.0355 -0.046
43.0658 -0.051
43.0960 0.465
43.1263 -0.164
43.1566 0.249
43.1869 0.559
43.2172 0.191
43.2474 0.033
43.2777 0.500
43.3080 -0.543
43.3383 0.446
43.3686 0.550
43.3988 1.124
43.4291 1.072
43.4594 0.865
43.4897 0.086
43.5199 1.234
43.5502 0.612
43.5805 -0.218
43.6108 -0.058
43.6411 0.051
43.6713 0.003
43.7016 -0.304
43.7319 0.007
43.7622 0.942
43.7925 0.524
43.8227 -0.101
43.8530 0.627
43.8833 0.419
43.9136 0.055
43.9439 -0.256
43.9741 -0.306
44.0044 0.581
44.0347 -0.457
44.0650 0.535
44.0952 -0.242
44.1255 0.022
44.1558 -0.442
44.1861 0.012
44.2164 0.049
44.2466 0.347
44.2769 0.281
44.3072 0.423
44.3375 -0.006
44.3678 0.971
44.3980 1.167
44.4283 2.405
44.4586 4.582
44.4889 3.321
44.5191 1.853
44.5494 1.895
44.5797 1.522
44.6100 1.305
44.6403 0.880
44.6705 0.612
44.7008 0.345
44.7311 -0.495
44.7614 -0.032
44.7917 0.014
44.8219 -0.251
44.8522 0.057
44.8825 -0.937
44.9128 0.622
44.9430 -0.319
44.9733 0.512
45.0036 -0.063
45.0339 0.092
45.0642 0.195
45.0944 0.298
45.1247 -0.014
45.1550 0.142
45.1853 0.664
45.2156 -0.063
45.2458 0.772
45.2761 1.295
45.3064 0.465
45.3367 -0.313
45.3669 1.097
45.3972 0.424
45.4275 0.429
45.4578 -0.607
45.4881 0.336
45.5183 -0.126
45.5486 0.089
45.5789 -0.216
45.6092 0.105
45.6395 0.165
45.6697 -0.139
45.7000 -0.494
45.7303 0.191
45.7606 0.147
45.7908 -0.312
45.8211 -0.100
45.8514 -0.096
45.8817 0.066
45.9120 0.123
45.9422 0.234
45.9725 0.344
46.0028 0.247
46.0331 0.567
46.0634 0.159
46.0936 -0.197
46.1239 -0.188
46.1542 -0.283
46.1845 0.300
46.2147 -0.523
46.2450 -0.043
46.2753 0.021
46.3056 0.918
46.3359 0.827
46.3661 0.423
46.3964 0.280
46.4267 0.451
46.4570 -0.368
46.4873 -0.145
46.5175 -0.337
46.5478 0.165
46.5781 -0.114
46.6084 0.024
46.6386 0.163
46.6689 0.042
46.6992 0.443
46.7295 0.010
46.7598 0.151
46.7900 -0.436
46.8203 0.122
46.8506 -0.308
46.8809 -0.279
46.9112 0.323
46.9414 0.196
46.9717 0.278
47.0020 0.882
47.0323 0.080
47.0626 -0.097
47.0928 0.300
47.1231 -0.032
47.1534 0.157
47.1837 0.659
47.2139 0.069
47.2442 0.520
47.2745 0.034
47.3048 0.955
47.3351 0.939
47.3653 0.351
47.3956 0.753
47.4259 0.269
47.4562 1.766
47.4865 0.867
47.5167 1.740
47.5470 1.675
47.5773 1.819
47.6076 1.599
47.6378 1.901
47.6681 1.995
47.6984 1.412
47.7287 0.361
47.7590 1.550
47.7892 0.760
47.8195 0.231
47.8498 0.328
47.8801 0.060
47.9104 0.158
47.9406 -0.525
47.9709 0.043
48.0012 -0.119
48.0315 -0.332
48.0617 -0.023
48.0920 0.026
48.1223 -0.550
48.1526 0.176
48.1829 0.070
48.2131 0.225
48.2434 -0.141
48.2737 -0.349
48.3040 -0.195
48.3343 0.168
48.3645 -0.405
48.3948 0.376
48.4251 0.480
48.4554 0.377
48.4856 0.013
48.5159 -0.349
48.5462 0.005
48.5765 0.985
48.6068 1.237
48.6370 0.759
48.6673 0.439
48.6976 1.577
48.7279 2.195
48.7582 1.928
48.7884 2.704
48.8187 4.104
48.8490 6.599
48.8793 10.605
48.9095 10.549
48.9398 8.306
48.9701 6.793
49.0004 6.842
49.0307 6.892
49.0609 6.891
49.0912 5.015
49.1215 3.764
49.1518 2.983
49.1821 2.359
49.2123 2.203
49.2426 2.882
49.2729 2.675
49.3032 2.053
49.3334 1.223
49.3637 0.653
49.3940 0.449
49.4243 1.026
49.4546 0.614
49.4848 1.349
49.5151 1.147
49.5454 0.112
49.5757 0.327
49.6060 1.272
49.6362 0.290
49.6665 0.820
49.6968 1.037
49.7271 0.838
49.7574 1.525
49.7876 2.004
49.8179 2.796
49.8482 2.443
49.8785 1.466
49.9087 1.791
49.9390 1.595
49.9693 1.296
49.9996 1.258
50.0299 0.231
50.0601 0.454
50.0904 0.730
50.1207 0.746
50.1510 -0.019
50.1813 -0.054
50.2115 0.276
50.2418 0.450
50.2721 -0.052
50.3024 -0.033
50.3326 0.507
50.3629 -0.150
50.3932 0.026
50.4235 0.151
50.4538 0.537
50.4840 0.559
50.5143 0.686
50.5446 0.032
50.5749 0.055
50.6052 -0.442
50.6354 -0.047
50.6657 -0.224
50.6960 0.589
50.7263 0.985
50.7565 0.653
50.7868 -0.095
50.8171 -0.270
50.8474 -0.236
50.8777 0.371
50.9079 0.458
50.9382 -0.184
50.9685 -0.096
50.9988 -0.059
51.0291 -0.127
51.0593 -0.298
51.0896 0.261
51.1199 -0.742
51.1502 0.234
51.1804 1.055
51.2107 0.261
51.2410 0.093
51.2713 0.551
51.3016 0.124
51.3318 0.374
51.3621 1.354
51.3924 1.032
51.4227 1.232
51.4530 1.536
51.4832 2.934
51.5135 5.531
51.5438 4.431
51.5741 4.008
51.6043 1.971
51.6346 2.070
51.6649 3.211
51.6952 1.644
51.7255 1.172
51.7557 1.585
51.7860 1.479
51.8163 0.435
51.8466 0.225
51.8769 0.848
51.9071 0.379
51.9374 0.535
51.9677 0.431
51.9980 -0.401
52.0282 0.902
52.0585 1.216
52.0888 0.020
52.1191 0.752
52.1494 -0.182
52.1796 0.291
52.2099 0.503
52.2402 0.091
52.2705 0.201
52.3008 0.259
52.3310 0.057
52.3613 0.428
52.3916 -0.242
52.4219 0.026
52.4521 0.243
52.4824 -0.217
52.5127 -0.208
52.5430 0.948
52.5733 0.072
52.6035 -0.021
52.6338 0.407
52.6641 0.158
52.6944 -0.038
52.7247 -0.338
52.7549 -0.434
52.7852 0.669
52.8155 -0.208
52.8458 0.167
52.8761 0.281
52.9063 -0.073
52.9366 0.146
52.9669 0.366
52.9972 0.274
53.0274 0.183
53.0577 1.081
53.0880 0.522
53.1183 1.317
53.1486 0.655
53.1788 0.618
53.2091 0.581
53.2394 1.275
53.2697 1.135
53.3000 1.204
53.3302 0.909
53.3605 1.083
53.3908 0.998
53.4211 0.809
53.4513 1.037
53.4816 0.380
53.5119 0.504
53.5422 1.515
53.5725 0.078
53.6027 -0.004
53.6330 -0.085
53.6633 0.094
53.6936 -0.299
53.7239 -0.134
53.7541 0.605
53.7844 0.251
53.8147 -0.363
53.8450 -0.207
53.8752 0.315
53.9055 0.056
53.9358 0.214
53.9661 -0.357
53.9964 0.531
54.0266 -0.143
54.0569 -0.452
54.0872 0.386
54.1175 0.235
54.1478 0.292
54.1780 0.037
54.2083 0.512
54.2386 -0.054
54.2689 0.214
54.2991 0.065
54.3294 -0.083
54.3597 0.134
54.3900 -0.013
54.4203 -0.159
54.4505 -0.566
54.4808 0.226
54.5111 -0.127
54.5414 0.093
54.5717 -0.311
54.6019 -0.062
54.6322 -0.229
54.6625 0.125
54.6928 0.584
54.7230 -0.467
54.7533 -0.059
54.7836 0.297
54.8139 0.186
54.8442 0.074
54.8744 -0.297
54.9047 0.061
54.9350 -0.205
54.9653 -0.210
54.9956 -0.163
55.0258 -0.011
55.0561 -0.275
55.0864 0.086
55.1167 -0.229
55.1469 0.029
55.1772 -0.494
55.2075 0.013
55.2378 0.832
55.2681 0.350
55.2983 -0.600
55.3286 -0.039
55.3589 -0.311
55.3892 0.083
55.4195 -0.200
55.4497 0.508
55.4800 0.904
55.5103 0.831
55.5406 0.238
55.5709 0.687
55.6011 0.720
55.6314 0.806
55.6617 0.163
55.6920 -0.428
55.7222 0.493
55.7525 -0.461
55.7828 -0.321
55.8131 0.077
55.8434 0.685
55.8736 -0.166
55.9039 0.338
55.9342 -0.147
55.9645 -0.006
55.9948 0.343
56.0250 0.589
56.0553 0.939
56.0856 0.822
56.1159 0.912
56.1461 1.421
56.1764 2.138
56.2067 2.074
56.2370 2.219
56.2673 3.146
56.2975 4.333
56.3278 4.428
56.3581 4.887
56.3884 6.181
56.4187 6.433
56.4489 5.748
56.4792 4.699
56.5095 4.276
56.5398 3.540
56.5700 4.368
56.6003 4.363
56.6306 2.535
56.6609 2.635
56.6912 2.319
56.7214 1.899
56.7517 1.271
56.7820 0.488
56.8123 1.007
56.8426 0.953
56.8728 0.119
56.9031 0.796
56.9334 0.380
56.9637 0.068
56.9939 0.382
57.0242 0.227
57.0545 0.907
57.0848 -0.080
57.1151 -0.337
57.1453 0.291
57.1756 0.139
57.2059 -0.533
57.2362 0.097
57.2665 0.363
57.2967 -0.099
57.3270 -0.613
57.3573 0.436
57.3876 -0.338
57.4178 -0.121
57.4481 0.044
57.4784 -0.624
57.5087 -0.008
57.5390 0.139
57.5692 0.392
57.5995 0.072
57.6298 -0.196
57.6601 0.422
57.6904 0.468
57.7206 0.306
57.7509 0.145
57.7812 0.244
57.8115 -0.020
57.8417 1.174
57.8720 0.233
57.9023 0.283
57.9326 -0.605
57.9629 0.227
57.9931 0.486
58.0234 -0.556
58.0537 0.225
58.0840 0.382
58.1143 0.278
58.1445 -0.345
58.1748 -0.307
58.2051 0.513
58.2354 0.657
58.2656 0.332
58.2959 0.164
58.3262 0.309
58.3565 0.663
58.3868 0.809
58.4170 1.008
58.4473 0.634
58.4776 1.719
58.5079 2.231
58.5382 3.786
58.5684 9.508
58.5987 19.762
58.6290 18.349
58.6593 8.656
58.6896 4.432
58.7198 5.105
58.7501 7.340
58.7804 9.628
58.8107 5.979
58.8409 2.799
58.8712 2.172
58.9015 1.806
58.9318 3.315
58.9621 3.054
58.9923 3.053
59.0226 3.991
59.0529 4.305
59.0832 2.379
59.1135 2.953
59.1437 2.799
59.1740 2.438
59.2043 2.128
59.2346 0.830
59.2648 1.199
59.2951 0.579
59.3254 0.584
59.3557 0.121
59.3860 0.179
59.4162 1.124
59.4465 0.402
59.4768 -0.007
59.5071 -0.416
59.5374 0.049
59.5676 0.253
59.5979 0.301
59.6282 -0.066
59.6585 0.192
59.6887 0.190
59.7190 0.188
59.7493 0.083
59.7796 0.291
59.8099 0.291
59.8401 0.343
59.8704 1.698
59.9007 2.325
59.9310 4.619
59.9613 10.246
59.9915 9.051
60.0218 5.305
60.0521 2.861
60.0824 3.073
60.1126 4.693
60.1429 6.053
60.1732 3.611
60.2035 1.586
60.2338 0.551
60.2640 1.184
60.2943 0.098
60.3246 0.210
60.3549 0.376
60.3852 0.541
60.4154 0.291
60.4457 -0.063
60.4760 -0.417
60.5063 0.167
60.5365 0.752
60.5668 -0.173
60.5971 -0.160
60.6274 0.374
60.6577 -0.080
60.6879 0.299
60.7182 -1.145
60.7485 -0.246
60.7788 0.238
60.8091 -0.164
60.8393 -0.722
60.8696 0.700
60.8999 0.300
60.9302 0.786
60.9604 1.063
60.9907 2.279
61.0210 1.256
61.0513 0.598
61.0816 0.461
61.1118 0.220
61.1421 0.865
61.1724 1.042
61.2027 1.168
61.2330 0.044
61.2632 0.066
61.2935 -0.328
61.3238 0.112
61.3541 -0.124
61.3844 -0.308
61.4146 -0.246
61.4449 -0.079
61.4752 -0.067
61.5055 0.049
61.5357 -0.304
61.5660 -0.057
61.5963 0.294
61.6266 0.333
61.6569 0.842
61.6871 -0.056
61.7174 -0.275
61.7477 0.078
61.7780 0.641
61.8083 -0.046
61.8385 0.049
61.8688 0.196
61.8991 0.396
61.9294 0.388
61.9596 0.433
61.9899 -0.095
62.0202 0.003
62.0505 -0.055
62.0808 0.095
62.1110 0.351
62.1413 0.972
62.1716 1.176
62.2019 0.391
62.2322 1.065
62.2624 1.323
62.2927 0.905
62.3230 2.622
62.3533 1.059
62.3835 1.683
62.4138 2.048
62.4441 1.476
62.4744 1.893
62.5047 1.999
62.5349 1.480
62.5652 1.900
62.5955 1.538
62.6258 2.687
62.6561 2.587
62.6863 2.488
62.7166 2.076
62.7469 2.186
62.7772 1.306
62.8074 0.948
62.8377 1.841
62.8680 0.442
62.8983 1.231
62.9286 1.396
62.9588 0.572
62.9891 0.686
63.0194 1.529
63.0497 0.498
63.0800 0.717
63.1102 0.416
63.1405 1.001
63.1708 0.649
63.2011 0.454
63.2313 1.249
63.2616 0.273
63.2919 -0.285
63.3222 0.459
63.3525 0.214
63.3827 0.543
63.4130 0.299
63.4433 0.420
63.4736 0.073
63.5039 0.143
63.5341 0.578
63.5644 0.389
63.5947 0.096
63.6250 -0.197
63.6552 0.293
63.6855 -0.311
63.7158 -0.257
63.7461 -0.462
63.7764 0.375
63.8066 -0.559
63.8369 0.279
63.8672 0.284
63.8975 0.863
63.9278 1.285
63.9580 1.292
63.9883 0.518
64.0186 0.577
64.0489 0.273
64.0791 0.333
64.1094 0.655
64.1397 1.029
64.1700 0.154
64.2003 1.049
64.2305 0.071
64.2608 -0.178
64.2911 -0.166
64.3214 0.159
64.3517 0.432
64.3819 0.238
64.4122 -0.373
64.4425 0.214
64.4728 0.073
64.5031 0.036
64.5333 -0.260
64.5636 -0.211
64.5939 -0.056
64.6242 0.099
64.6544 0.462
64.6847 -0.319
64.7150 0.410
64.7453 -0.214
64.7756 0.360
64.8058 -0.003
64.8361 -0.157
64.8664 0.366
64.8967 0.317
64.9270 -0.252
64.9572 0.273
64.9875 0.069
65.0178 -0.238
65.0481 0.288
65.0783 0.399
65.1086 -0.011
65.1389 0.048
65.1692 -0.049
65.1995 0.168
65.2297 0.176
65.2600 0.446
65.2903 0.456
65.3206 -0.055
65.3509 0.476
65.3811 0.279
65.4114 0.447
65.4417 0.459
65.4720 -0.101
65.5022 -0.244
65.5325 0.105
65.5628 -0.118
65.5931 -0.184
65.6234 0.376
65.6536 0.623
65.6839 -0.327
65.7142 -0.026
65.7445 -0.038
65.7748 -0.257
65.8050 0.461
65.8353 0.347
65.8656 0.650
65.8959 -0.348
65.9261 0.424
65.9564 0.416
65.9867 -0.060
66.0170 0.089
66.0473 0.135
66.0775 -0.184
66.1078 0.592
66.1381 0.170
66.1684 0.478
66.1987 0.683
66.2289 0.314
66.2592 0.311
66.2895 0.465
66.3198 0.307
66.3500 0.201
66.3803 0.252
66.4106 -0.165
66.4409 -0.009
66.4712 0.252
66.5014 0.149
66.5317 0.307
66.5620 0.361
66.5923 0.207
66.6226 0.262
66.6528 0.265
66.6831 -0.408
66.7134 -0.143
66.7437 0.279
66.7739 0.284
66.8042 0.394
66.8345 -0.224
66.8648 -0.217
66.8951 0.207
66.9253 0.319
66.9556 -0.194
66.9859 0.128
67.0162 -0.019
67.0465 0.303
67.0767 -0.311
67.1070 -0.255
67.1373 0.294
67.1676 0.010
67.1978 0.300
67.2281 -0.035
67.2584 0.256
67.2887 0.130
67.3190 -0.047
67.3492 0.818
67.3795 0.174
67.4098 1.144
67.4401 1.021
67.4704 1.419
67.5006 0.568
67.5309 0.603
67.5612 1.003
67.5915 1.143
67.6218 0.762
67.6520 1.997
67.6823 1.513
67.7126 1.291
67.7429 1.069
67.7731 2.462
67.8034 1.303
67.8337 1.134
67.8640 1.695
67.8943 1.111
67.9245 1.569
67.9548 0.725
67.9851 0.039
68.0154 1.175
68.0457 0.958
68.0759 0.585
68.1062 0.733
68.1365 0.257
68.1668 0.198
68.1970 0.765
68.2273 -0.178
68.2576 0.129
68.2879 0.749
68.3182 -0.453
68.3484 0.480
68.3787 0.373
68.4090 -0.151
68.4393 -0.153
68.4696 -0.780
68.4998 0.209
68.5301 0.000
68.5604 0.209
68.5907 -0.102
68.6209 0.680
68.6512 0.161
68.6815 0.685
68.7118 0.948
68.7421 1.264
68.7723 1.112
68.8026 2.314
68.8329 3.413
68.8632 3.470
68.8935 2.434
68.9237 2.337
68.9540 0.833
68.9843 0.841
69.0146 0.848
69.0448 1.586
69.0751 1.751
69.1054 1.084
69.1357 0.364
69.1660 0.635
69.1962 0.490
69.2265 0.293
69.2568 0.617
69.2871 0.369
69.3174 0.382
69.3476 -0.282
69.3779 -0.111
69.4082 0.372
69.4385 0.126
69.4687 0.246
69.4990 -0.520
69.5293 -0.212
69.5596 -0.372
69.5899 0.353
69.6201 0.975
69.6504 0.451
69.6807 0.449
69.7110 0.447
69.7413 -0.023
69.7715 0.393
69.8018 1.018
69.8321 -0.076
69.8624 0.759
69.8926 0.864
69.9229 0.345
69.9532 -0.122
69.9835 -0.431
70.0138 0.405
70.0440 0.669
70.0743 1.403
70.1046 2.449
70.1349 2.350
70.1652 1.002
70.1954 0.539
70.2257 0.806
70.2560 0.709
70.2863 1.551
70.3166 1.507
70.3468 0.734
70.3771 1.108
70.4074 0.857
70.4377 0.138
70.4679 0.201
70.4982 0.316
70.5285 0.589
70.5588 0.132
70.5891 0.614
70.6193 1.043
70.6496 0.432
70.6799 0.863
70.7102 0.409
70.7405 0.528
70.7707 0.180
70.8010 0.196
70.8313 0.473
70.8616 0.178
70.8918 0.924
70.9221 0.474
70.9524 0.232
70.9827 0.147
71.0130 -0.250
71.0432 -0.148
71.0735 0.006
71.1038 0.108
71.1341 0.211
71.1644 0.262
71.1946 -0.311
71.2249 -0.213
71.2552 -0.063
71.2855 -0.277
71.3157 0.500
71.3460 0.078
71.3763 -0.394
71.4066 0.175
71.4369 -0.140
71.4671 0.066
71.4974 -0.092
71.5277 0.688
71.5580 -0.303
71.5883 0.270
71.6185 0.009
71.6488 0.166
71.6791 0.271
71.7094 -0.040
71.7396 0.171
71.7699 0.017
71.8002 0.489
71.8305 0.232
71.8608 -0.233
71.8910 0.241
71.9213 0.454
71.9516 0.356
71.9819 0.205
72.0122 0.004
72.0424 -0.250
72.0727 -0.155
72.1030 0.096
72.1333 0.452
72.1635 0.235
72.1938 -0.137
72.2241 -0.040
72.2544 -0.255
72.2847 -0.315
72.3149 0.406
72.3452 0.035
72.3755 0.184
72.4058 1.220
72.4361 0.485
72.4663 0.740
72.4966 0.267
72.5269 0.367
72.5572 0.259
72.5874 0.412
72.6177 0.462
72.6480 0.460
72.6783 0.354
72.7086 0.509
72.7388 0.144
72.7691 0.352
72.7994 0.404
72.8297 0.666
72.8600 -0.062
72.8902 0.669
72.9205 0.775
72.9508 0.518
72.9811 0.313
73.0113 0.681
73.0416 0.165
73.0719 0.326
73.1022 0.383
73.1325 -0.184
73.1627 0.239
73.1930 0.194
73.2233 0.097
73.2536 -0.103
73.2839 -0.147
73.3141 0.279
73.3444 -0.181
73.3747 0.037
73.4050 -0.004
73.4353 0.215
73.4655 0.278
73.4958 0.030
73.5261 -0.270
73.5564 0.159
73.5866 -0.244
73.6169 -0.192
73.6472 -0.088
73.6775 0.070
73.7078 0.019
73.7380 0.386
73.7683 0.284
73.7986 1.277
73.8289 1.228
73.8592 1.232
73.8894 0.716
73.9197 0.356
73.9500 0.153
73.9803 0.784
74.0105 0.322
74.0408 0.850
74.0711 0.857
74.1014 0.345
74.1317 0.197
74.1619 0.154
74.1922 -0.045
74.2225 -0.035
74.2528 -0.233
74.2831 -0.021
74.3133 0.452
74.3436 -0.012
74.3739 0.201
74.4042 0.103
74.4344 0.109
74.4647 0.116
74.4950 0.071
74.5253 0.079
74.5556 0.191
74.5858 0.252
74.6161 -0.052
74.6464 0.427
74.6767 0.958
74.7070 0.604
74.7372 -0.114
74.7675 -0.363
74.7978 0.149
74.8281 -0.015
74.8583 0.030
74.8886 0.023
74.9189 0.537
74.9492 0.167
74.9795 0.266
75.0097 0.521
75.0400 -0.004
75.0703 1.034
75.1006 0.353
75.1309 0.350
75.1611 -0.225
75.1914 -0.227
75.2217 0.081
75.2520 0.234
75.2822 0.334
75.3125 0.488
75.3428 0.069
75.3731 0.119
75.4034 0.222
75.4336 0.117
75.4639 0.012
75.4942 -0.092
75.5245 0.013
75.5548 0.379
75.5850 0.277
75.6153 -0.034
75.6456 0.229
75.6759 0.180
75.7061 -0.024
75.7364 0.240
75.7667 -0.120
75.7970 -0.010
75.8273 0.047
75.8575 -0.415
75.8878 -0.011
75.9181 0.028
75.9484 -0.244
75.9787 0.317
76.0089 -0.006
76.0392 0.192
76.0695 -0.078
76.0998 0.016
76.1301 0.268
76.1603 0.363
76.1906 0.460
76.2209 0.036
76.2512 0.341
76.2814 -0.082
76.3117 -0.609
76.3420 0.271
76.3723 -0.254
76.4026 0.054
76.4328 0.102
76.4631 0.515
76.4934 -0.009
76.5237 0.301
76.5540 0.143
76.5842 -0.119
76.6145 0.245
76.6448 -0.224
76.6751 0.036
76.7053 -0.016
76.7356 0.246
76.7659 0.404
76.7962 0.041
76.8265 0.617
76.8567 -0.162
76.8870 0.363
76.9173 0.315
76.9476 0.423
76.9779 -0.249
77.0081 0.278
77.0384 0.388
77.0687 -0.230
77.0990 0.089
77.1292 0.253
77.1595 -0.104
77.1898 0.269
77.2201 0.070
77.2504 -0.233
77.2806 -0.085
77.3109 0.219
77.3412 -0.101
77.3715 0.257
77.4018 0.146
77.4320 -0.068
77.4623 -0.282
77.4926 0.338
77.5229 -0.291
77.5531 0.121
77.5834 0.066
77.6137 -0.145
77.6440 -0.148
77.6743 0.058
77.7045 -0.360
77.7348 0.108
77.7651 -0.413
77.7954 0.212
77.8257 0.108
77.8559 0.734
77.8862 0.475
77.9165 0.165
77.9468 0.271
77.9770 0.014
78.0073 0.642
78.0376 0.073
78.0679 0.234
78.0982 -0.021
78.1284 0.192
78.1587 -0.166
78.1890 0.153
78.2193 -0.049
78.2496 0.011
78.2798 -0.085
78.3101 -0.233
78.3404 -0.188
78.3707 0.327
78.4009 0.269
78.4312 -0.413
78.4615 0.363
78.4918 0.359
78.5221 0.094
78.5523 0.716
78.5826 0.244
78.6129 -0.018
78.6432 0.292
78.6735 0.499
78.7037 0.290
78.7340 0.290
78.7643 0.238
78.7946 0.707
78.8248 0.396
78.8551 0.554
78.8854 0.400
78.9157 0.350
78.9460 0.093
78.9762 0.201
79.0065 0.205
79.0368 0.679
79.0671 0.371
79.0974 0.325
79.1276 -0.086
79.1579 0.233
79.1882 -0.072
79.2185 0.456
79.2488 0.569
79.2790 0.213
79.3093 0.118
79.3396 -0.133
79.3699 -0.227
79.4001 0.125
79.4304 0.426
79.4607 0.414
79.4910 0.351
79.5213 0.445
79.5515 0.018
79.5818 -0.512
79.6121 0.208
79.6424 0.200
79.6727 0.400
79.7029 0.549
79.7332 0.750
79.7635 0.431
79.7938 0.998
79.8240 0.472
79.8543 1.248
79.8846 1.140
79.9149 0.719
79.9452 0.403
79.9754 0.921
80.0057 0.606
80.0360 0.187
80.0663 0.967
80.0966 0.549
80.1268 0.549
80.1571 0.601
80.1874 0.445
80.2177 0.863
80.2479 -0.021
80.2782 0.242
80.3085 0.140
80.3388 -0.222
80.3691 0.355
80.3993 0.567
80.4296 0.311
80.4599 -0.309
80.4902 -0.147
80.5205 -0.037
80.5507 -0.239
80.5810 -0.031
80.6113 0.490
80.6416 -0.239
80.6718 -0.506
80.7021 0.320
80.7324 0.835
80.7627 -0.160
80.7930 0.043
80.8232 0.090
80.8535 0.034
80.8838 -0.178
80.9141 -0.181
80.9444 -0.131
80.9746 0.179
81.0049 0.333
81.0352 -0.189
81.0655 0.436
81.0957 0.384
81.1260 0.332
81.1563 0.072
81.1866 0.074
81.2169 0.336
81.2471 0.338
81.2774 0.289
81.3077 -0.333
81.3380 -0.121
81.3683 -0.116
81.3985 0.409
81.4288 0.779
81.4591 0.004
81.4894 -0.302
81.5196 0.277
81.5499 -0.236
81.5802 -0.020
81.6105 -0.168
81.6408 -0.159
81.6710 0.319
81.7013 0.068
81.7316 -0.234
81.7619 0.454
81.7922 -0.056
81.8224 0.685
81.8527 -0.292
81.8830 -0.227
81.9133 0.083
81.9436 -0.492
81.9738 0.236
82.0041 0.496
82.0344 -0.494
82.0647 0.131
82.0949 -0.285
82.1252 -0.079
82.1555 -0.134
82.1858 0.177
82.2161 0.280
82.2463 0.383
82.2766 0.383
82.3069 0.018
82.3372 0.279
82.3675 0.385
82.3977 0.022
82.4280 0.024
82.4583 -0.026
82.4886 0.082
82.5188 -0.227
82.5491 -0.125
82.5794 0.081
82.6097 -0.284
82.6400 0.079
82.6702 0.183
82.7005 0.132
82.7308 -0.128
82.7611 -0.075
82.7914 -0.125
82.8216 -0.227
82.8519 0.082
82.8822 -0.024
82.9125 -0.131
82.9427 -0.184
82.9730 0.231
83.0033 -0.186
83.0336 0.022
83.0639 0.022
83.0941 -0.029
83.1244 0.441
83.1547 0.235
83.1850 -0.023
83.2153 -0.177
83.2455 -0.017
83.2758 -0.013
83.3061 -0.009
83.3364 0.152
83.3666 -0.363
83.3969 -0.113
83.4272 0.034
83.4575 0.338
83.4878 0.329
83.5180 -0.095
83.5483 0.105
83.5786 0.046
83.6089 -0.012
83.6392 0.034
83.6694 0.341
83.6997 -0.081
83.7300 0.644
83.7603 0.275
83.7905 0.220
83.8208 -0.096
83.8511 -0.098
83.8814 0.004
83.9117 0.315
83.9419 -0.311
83.9722 -0.259
84.0025 0.359
84.0328 -0.325
84.0631 0.658
84.0933 0.392
84.1236 0.386
84.1539 0.225
84.1842 0.065
84.2144 0.113
84.2447 -0.463
84.2750 0.055
84.3053 -0.208
84.3356 0.311
84.3658 -0.107
84.3961 0.257
84.4264 0.413
84.4567 0.100
84.4870 -0.159
84.5172 0.519
84.5475 0.000
84.5778 0.002
84.6081 -0.048
84.6383 -0.096
84.6686 0.011
84.6989 -0.037
84.7292 0.281
84.7595 0.286
84.7897 -0.334
84.8200 0.245
84.8503 0.512
84.8806 0.103
84.9109 -0.046
84.9411 0.483
84.9714 0.023
85.0017 -0.072
85.0320 0.302
85.0623 -0.208
85.0925 -0.094
85.1228 -0.030
85.1531 -0.227
85.1834 0.020
85.2136 0.528
85.2439 -0.317
85.2742 0.036
85.3045 0.546
85.3348 -0.090
85.3650 0.160
85.3953 -0.006
85.4256 -0.223
85.4559 -0.127
85.4862 0.177
85.5164 -0.091
85.5467 -0.150
85.5770 -0.105
85.6073 0.514
85.6375 -0.221
85.6678 -0.174
85.6981 0.082
85.7284 0.130
85.7587 0.334
85.7889 -0.033
85.8192 -0.244
85.8495 0.013
85.8798 0.271
85.9101 0.477
85.9403 0.059
85.9706 0.267
86.0009 -0.203
86.0312 -0.151
86.0614 0.162
86.0917 -0.410
86.1220 0.269
86.1523 0.271
86.1826 0.117
86.2128 0.068
86.2431 -0.085
86.2734 0.024
86.3037 -0.024
86.3340 0.137
86.3642 0.091
86.3945 -0.216
86.4248 0.051
86.4551 0.631
86.4853 -0.091
86.5156 -0.135
86.5459 0.290
86.5762 -0.118
86.6065 0.204
86.6367 0.319
86.6670 -0.504
86.6973 -0.233
86.7276 0.130
86.7579 0.181
86.7881 -0.132
86.8184 0.128
86.8487 -0.393
86.8790 -0.028
86.9092 0.078
86.9395 -0.233
86.9698 -0.025
87.0001 -0.078
87.0304 -0.130
87.0606 -0.233
87.0909 -0.024
87.1212 -0.336
87.1515 0.238
87.1818 -0.124
87.2120 0.086
87.2423 0.246
87.2726 0.197
87.3029 -0.164
87.3331 0.205
87.3634 -0.259
87.3937 0.059
87.4240 -0.039
87.4543 0.123
87.4845 -0.026
87.5148 -0.227
87.5451 0.020
87.5754 0.215
87.6057 -0.058
87.6359 0.295
87.6662 -0.029
87.6965 -0.040
87.7268 0.054
87.7571 0.044
87.7873 0.191
87.8176 0.025
87.8479 -0.035
87.8782 0.269
87.9084 -0.467
87.9387 -0.219
87.9690 0.082
87.9993 -0.138
88.0296 0.425
88.0598 0.675
88.0901 0.874
88.1204 0.396
88.1507 0.231
88.1810 0.640
88.2112 0.007
88.2415 0.469
88.2718 -0.059
88.3021 0.143
88.3323 0.659
88.3626 0.393
88.3929 0.180
88.4232 0.280
88.4535 0.485
88.4837 0.274
88.5140 0.479
88.5443 0.113
88.5746 -0.358
88.6049 -0.046
88.6351 0.005
88.6654 0.161
88.6957 -0.255
88.7260 -0.255
88.7562 0.105
88.7865 -0.003
88.8168 -0.318
88.8471 0.095
88.8774 -0.323
88.9076 0.612
88.9379 0.246
88.9682 0.246
88.9985 -0.327
89.0288 0.037
89.0590 0.090
89.0893 0.300
89.1196 -0.167
89.1499 0.095
89.1801 0.046
89.2104 0.258
89.2407 -0.155
89.2710 -0.255
89.3013 0.008
89.3315 0.063
89.3618 0.223
89.3921 0.124
89.4224 0.024
89.4527 -0.283
89.4829 0.296
89.5132 0.979
89.5435 0.361
89.5738 0.160
89.6040 0.584
89.6343 0.019
89.6646 0.080
89.6949 -0.223
89.7252 0.568
89.7554 -0.203
89.7857 -0.244
89.8160 0.124
89.8463 0.232
89.8766 -0.076
89.9068 0.138
89.9371 0.352
89.9674 -0.423
89.9977 0.208
90.0279 0.007
90.0582 0.223
90.0885 0.231
90.1188 0.344
90.1491 0.040
90.1793 0.415
90.2096 -0.096
90.2399 0.071
90.2702 0.082
90.3005 0.041
90.3307 -0.259
90.3610 -0.010
90.3913 0.188
90.4216 0.282
90.4518 -0.145
90.4821 0.262
90.5124 0.462
90.5427 -0.015
90.5730 -0.075
90.6032 0.387
90.6335 -0.089
90.6638 0.217
90.6941 0.263
90.7244 0.310
90.7546 0.253
90.7849 -0.168
90.8152 0.141
90.8455 0.190
90.8758 0.187
90.9060 -0.024
90.9363 -0.130
90.9666 0.182
90.9969 0.285
91.0271 -0.184
91.0574 -0.236
91.0877 -0.131
91.1180 0.026
91.1483 0.705
91.1785 -0.230
91.2088 0.553
91.2391 -0.225
91.2694 -0.169
91.2997 -0.165
91.3299 -0.004
91.3602 -0.363
91.3905 0.051
91.4208 -0.107
91.4510 -0.005
91.4813 0.151
91.5116 0.202
91.5419 -0.214
91.5722 -0.214
91.6024 -0.213
91.6327 0.309
91.6630 0.259
91.6933 0.001
91.7236 -0.256
91.7538 0.737
91.7841 0.168
91.8144 0.172
91.8447 0.229
91.8749 0.391
91.9052 0.345
91.9355 -0.013
91.9658 0.150
91.9961 -0.259
92.0263 -0.111
92.0566 0.349
92.0869 -0.544
92.1172 0.230
92.1475 0.068
92.1777 0.166
92.2080 -0.309
92.2383 0.520
92.2686 -0.318
92.2988 -0.062
92.3291 0.507
92.3594 0.087
92.3897 -0.228
92.4200 -0.073
92.4502 -0.179
92.4805 0.080
92.5108 0.027
92.5411 0.079
92.5714 0.184
92.6016 -0.024
92.6319 -0.178
92.6622 0.032
92.6925 0.034
92.7227 -0.276
92.7530 0.301
92.7833 -0.320
92.8136 0.049
92.8439 -0.259
92.8741 0.000
92.9044 -0.157
92.9347 0.207
92.9650 -0.157
92.9953 -0.834
93.0255 0.469
93.0558 0.315
93.0861 0.108
93.1164 0.632
93.1466 -0.198
93.1769 0.274
93.2072 0.382
93.2375 0.179
93.2678 -0.493
93.2980 -0.131
93.3283 0.337
93.3586 -0.133
93.3889 -0.133
93.4192 0.128
93.4494 -0.236
93.4797 -0.131
93.5100 -0.598
93.5403 0.182
93.5706 -0.393
93.6008 0.283
93.6311 0.231
93.6614 0.283
93.6917 0.439
93.7219 0.076
93.7522 0.182
93.7825 0.392
93.8128 0.082
93.8431 0.293
93.8733 -0.016
93.9036 -0.012
93.9339 0.253
93.9642 -0.003
93.9945 0.055
94.0247 0.373
94.0550 0.067
94.0853 0.179
94.1156 0.134
94.1458 -0.014
94.1761 -0.162
94.2064 0.003
94.2367 0.065
94.2670 -0.342
94.2972 0.137
94.3275 0.044
94.3578 0.784
94.3881 0.067
94.4184 -0.233
94.4486 -0.034
94.4789 0.425
94.5092 0.312
94.5395 0.356
94.5697 -0.068
94.6000 0.029
94.6303 0.699
94.6606 0.016
94.6909 0.479
94.7211 0.578
94.7514 0.417
94.7817 0.464
94.8120 0.044
94.8423 0.093
94.8725 0.142
94.9028 0.661
94.9331 -0.070
94.9634 1.022
94.9936 0.344
95.0239 -0.177
95.0542 0.917
95.0845 0.449
95.1148 0.503
95.1450 0.765
95.1753 0.246
95.2056 1.030
95.2359 0.408
95.2662 0.204
95.2964 0.572
95.3267 0.369
95.3570 0.009
95.3873 0.536
95.4175 0.178
95.4478 0.341
95.4781 0.608
95.5084 -0.009
95.5387 0.520
95.5689 0.112
95.5992 0.225
95.6295 -0.025
95.6598 0.245
95.6901 0.360
95.7203 0.580
95.7506 0.175
95.7809 -0.021
95.8112 -0.269
95.8414 0.317
95.8717 0.018
95.9020 0.189
95.9323 0.203
95.9626 0.114
95.9928 0.495
96.0231 -0.010
96.0534 -0.202
96.0837 -0.056
96.1140 0.559
96.1442 0.601
96.1745 0.071
96.2048 0.114
96.2351 0.210
96.2653 -0.058
96.2956 0.403
96.3259 0.397
96.3562 1.067
96.3865 0.645
96.4167 0.327
96.4470 0.010
96.4773 -0.255
96.5076 0.054
96.5379 0.363
96.5681 -0.317
96.5984 -0.215
96.6287 0.137
96.6590 0.176
96.6893 0.216
96.7195 0.048
96.7498 -0.224
96.7801 0.859
96.8104 0.224
96.8406 0.526
96.8709 0.830
96.9012 1.758
96.9315 1.125
96.9618 0.961
96.9920 0.641
97.0223 0.739
97.0526 0.576
97.0829 0.154
97.1132 0.096
97.1434 0.300
97.1737 0.035
97.2040 -0.021
97.2343 0.289
97.2645 0.494
97.2948 0.752
97.3251 0.282
97.3554 -0.032
97.3857 -0.241
97.4159 0.488
97.4462 0.279
97.4765 -0.345
97.5068 0.333
97.5371 -0.290
97.5673 0.077
97.5976 -0.285
97.6279 -0.033
97.6582 -0.197
97.6884 0.056
97.7187 -0.055
97.7490 -0.062
97.7793 -0.224
97.8096 -0.073
97.8398 -0.078
97.8701 -0.239
97.9004 -0.194
97.9307 0.164
97.9610 0.419
97.9912 0.309
98.0215 -0.113
98.0518 -0.066
98.0821 0.920
98.1123 1.541
98.1426 1.069
98.1729 1.015
98.2032 0.648
98.2335 0.386
98.2637 0.176
98.2940 -0.033
98.3243 0.332
98.3546 -0.137
98.3849 0.385
98.4151 -0.082
98.4454 0.649
98.4757 0.339
98.5060 0.342
98.5362 0.345
98.5665 -0.068
98.5968 0.666
98.6271 0.462
98.6574 -0.001
98.6876 0.057
98.7179 0.063
98.7482 0.174
98.7785 0.442
98.8088 0.189
98.8390 -0.011
98.8693 0.310
98.8996 0.528
98.9299 0.017
98.9601 -0.337
98.9904 0.036
99.0207 0.044
99.0510 0.053
99.0813 -0.302
99.1115 0.073
99.1418 0.448
99.1721 0.511
99.2024 0.210
99.2327 -0.090
99.2629 -0.078
99.2932 -0.221
99.3235 -0.016
99.3538 0.294
99.3841 -0.125
99.4143 0.029
99.4446 -0.233
99.4749 0.026
99.5052 0.285
99.5354 0.285
99.5657 0.284
99.5960 0.441
99.6263 -0.131
99.6566 0.235
99.6868 0.133
99.7171 -0.073
99.7474 0.190
99.7777 0.245
99.8080 -0.220
99.8382 0.045
99.8685 -0.054
99.8988 0.055
99.9291 0.217
99.9593 0.276
99.9896 0.178
100.0199 0.290
100.0502 0.037
100.0805 -0.215
100.1107 -0.016
100.1410 0.652
100.1713 0.486
100.2016 0.113
100.2319 0.001
100.2621 0.150
100.2924 -0.221
100.3227 0.137
100.3530 0.079
100.3832 0.386
100.4135 0.225
100.4438 0.117
100.4741 0.165
100.5044 -0.047
100.5346 0.159
100.5649 0.209
100.5952 -0.106
100.6255 0.049
100.6558 0.100
100.6860 0.100
100.7163 0.256
100.7466 -0.212
100.7769 -0.159
100.8071 0.104
100.8374 -0.311
100.8677 -0.051
100.8980 -0.103
100.9283 0.053
100.9585 0.054
100.9888 0.004
101.0191 0.162
101.0494 -0.200
101.0797 0.532
101.1099 0.119
101.1402 -0.033
101.1705 0.492
101.2008 0.132
101.2310 -0.123
101.2613 -0.221
101.2916 -0.184
101.3219 0.114
101.3522 0.048
101.3824 0.243
101.4127 -0.030
101.4430 0.062
101.4733 -0.054
101.5036 0.091
101.5338 0.080
101.5641 0.226
101.5944 0.059
101.6247 -0.002
101.6549 0.406
101.6852 0.502
101.7155 0.337
101.7458 0.070
101.7761 0.375
101.8063 0.265
101.8366 0.311
101.8669 0.410
101.8972 0.300
101.9275 -0.277
101.9577 0.032
101.9880 0.393
102.0183 0.442
102.0486 0.231
102.0788 -0.031
102.1091 0.488
102.1394 0.175
102.1697 0.383
102.2000 0.591
102.2302 -0.033
102.2605 -0.553
102.2908 0.334
102.3211 0.284
102.3514 0.026
102.3816 0.082
102.4119 0.137
102.4422 0.297
102.4725 0.458
102.5028 0.359
102.5330 -0.052
102.5633 -0.046
102.5936 -0.039
102.6239 0.020
102.6541 -0.285
102.6844 0.035
102.7147 0.355
102.7450 0.051
102.7753 0.269
102.8055 -0.139
102.8358 -0.233
102.8661 0.074
102.8964 -0.348
102.9267 0.273
102.9569 0.112
102.9872 0.057
103.0175 -0.363
103.0478 -0.004
103.0780 -0.321
103.1083 0.612
103.1386 0.036
103.1689 -0.228
103.1992 -0.179
103.2294 0.288
103.2597 -0.131
103.2900 -0.288
103.3203 0.232
103.3506 0.023
103.3808 0.284
103.4111 -0.236
103.4414 0.182
103.4717 0.236
103.5019 0.134
103.5322 0.084
103.5625 0.192
103.5928 0.456
103.6231 -0.113
103.6533 0.205
103.6836 -0.051
103.7139 0.164
103.7442 0.066
103.7745 -0.136
103.8047 -0.389
103.8350 0.184
103.8653 0.133
103.8956 0.395
103.9258 0.241
103.9561 -0.329
103.9864 0.039
104.0167 0.303
104.0470 0.150
104.0772 0.155
104.1075 0.160
104.1378 0.166
104.1681 0.016
104.1984 -0.030
104.2286 -0.075
104.2589 0.454
104.2892 -0.007
104.3195 -0.363
104.3497 0.052
104.3800 0.155
104.4103 -0.001
104.4406 -0.366
104.4709 0.259
104.5011 0.104
104.5314 -0.363
104.5617 -0.049
104.5920 0.422
104.6223 -0.044
104.6525 0.688
104.6828 0.067
104.7131 0.227
104.7434 0.075
104.7736 0.341
104.8039 0.190
104.8342 0.352
104.8645 -0.162
104.8948 -0.259
104.9250 0.199
104.9553 0.137
104.9856 -0.133
105.0159 -0.038
105.0462 -0.307
105.0764 0.206
105.1067 -0.114
105.1370 0.035
105.1673 0.132
105.1975 -0.134
105.2278 -0.088
105.2581 0.011
105.2884 -0.097
105.3187 0.263
105.3489 -0.105
105.3792 0.048
105.4095 0.254
105.4398 -0.009
105.4701 -0.115
105.5003 0.093
105.5306 -0.012
105.5609 -0.377
105.5912 0.196
105.6215 -0.323
105.6517 0.042
105.6820 -0.372
105.7123 0.359
105.7426 -0.003
105.7728 0.365
105.8031 0.161
105.8334 0.061
105.8637 0.691
105.8940 0.123
105.9242 -0.235
105.9545 0.396
105.9848 0.143
106.0151 -0.006
106.0454 -0.311
106.0756 0.053
106.1059 0.313
106.1362 0.106
106.1665 0.263
106.1967 0.264
106.2270 -0.098
106.2573 0.060
106.2876 0.376
106.3179 0.431
106.3481 0.019
106.3784 -0.029
106.4087 0.288
106.4390 -0.279
106.4693 -0.221
106.4995 0.244
106.5298 -0.175
106.5601 0.187
106.5904 -0.284
106.6206 0.079
106.6509 0.391
106.6812 -0.026
106.7115 0.286
106.7418 -0.078
106.7720 -0.285
106.8023 0.131
106.8326 0.756
106.8629 -0.389
106.8932 -0.024
106.9234 -0.283
106.9537 0.136
106.9840 0.815
107.0143 -0.276
107.0445 -0.012
107.0748 0.253
107.1051 -0.212
107.1354 -0.363
107.1657 0.262
107.1959 -0.259
107.2262 -0.217
107.2565 0.658
107.2868 0.232
107.3171 0.275
107.3473 -0.202
107.3776 -0.158
107.4079 0.199
107.4382 -0.225
107.4684 0.029
107.4987 -0.081
107.5290 0.121
107.5593 -0.144
107.5896 -0.201
107.6198 0.264
107.6501 -0.364
107.6804 0.257
107.7107 0.359
107.7410 0.930
107.7712 0.824
107.8015 0.563
107.8318 0.198
107.8621 0.145
107.8923 0.406
107.9226 0.147
107.9529 0.409
107.9832 -0.058
108.0135 -0.004
108.0437 0.937
108.0740 0.211
108.1043 0.111
108.1346 0.636
108.1649 0.433
108.1951 0.907
108.2254 0.236
108.2557 0.242
108.2860 0.353
108.3163 0.152
108.3465 0.264
108.3768 0.481
108.4071 -0.187
108.4374 0.031
108.4676 -0.011
108.4979 -0.209
108.5282 0.166
108.5585 0.178
108.5888 0.137
108.6190 -0.215
108.6493 -0.174
108.6796 0.441
108.7099 0.639
108.7402 -0.100
108.7704 -0.161
108.8007 0.039
108.8310 0.239
108.8613 -0.237
108.8915 -0.036
108.9218 0.218
108.9521 0.056
108.9824 0.207
109.0127 0.358
109.0429 0.093
109.0732 0.089
109.1035 -0.227
109.1338 -0.179
109.1641 -0.027
109.1943 -0.082
109.2246 -0.085
109.2549 -0.140
109.2852 -0.089
109.3154 0.066
109.3457 -0.196
109.3760 0.012
109.4063 -0.144
109.4366 -0.143
109.4668 0.431
109.4971 -0.036
109.5274 0.226
109.5577 -0.188
109.5880 0.128
109.6182 -0.129
109.6485 0.240
109.6788 -0.016
109.7091 0.406
109.7393 -0.057
109.7696 0.105
109.7999 0.112
109.8302 0.275
109.8605 -0.029
109.8907 -0.021
109.9210 -0.221
109.9513 0.033
109.9816 0.392
110.0119 0.699
110.0421 0.225
110.0724 -0.091
110.1027 0.269
110.1330 0.162
110.1632 0.419
110.1935 -0.260
110.2238 0.207
110.2541 0.362
110.2844 0.413
110.3146 0.360
110.3449 0.465
110.3752 0.361
110.4055 0.102
110.4358 0.364
110.4660 0.627
110.4963 0.317
110.5266 0.268
110.5569 0.011
110.5871 0.275
110.6174 0.384
110.6477 0.494
110.6780 -0.022
110.7083 -0.016
110.7385 -0.009
110.7688 0.154
110.7991 -0.098
110.8294 -0.090
110.8597 0.491
110.8899 0.500
110.9202 0.875
110.9505 -0.053
110.9808 0.374
111.0110 0.333
111.0413 0.553
111.0716 0.357
111.1019 0.526
111.1322 0.435
111.1624 -0.020
111.1927 0.723
111.2230 -0.044
111.2533 -0.028
111.2836 0.664
111.3138 0.160
111.3441 0.228
111.3744 0.349
111.4047 -0.102
111.4350 -0.188
111.4652 0.110
111.4955 0.461
111.5258 0.030
111.5561 0.902
111.5863 0.786
111.6166 0.409
111.6469 0.293
111.6772 0.074
111.7075 0.115
111.7377 0.313
111.7680 -0.009
111.7983 0.086
111.8286 0.546
111.8589 -0.035
111.8891 0.374
111.9194 0.419
111.9497 0.621
111.9800 0.302
112.0102 -0.276
112.0405 0.291
112.0708 -0.234
112.1011 0.074
112.1314 0.071
112.1616 0.328
112.1919 0.013
112.2222 0.063
112.2525 0.321
112.2828 0.581
112.3130 0.528
112.3433 0.111
112.3736 0.320
112.4039 0.581
112.4341 0.009
112.4644 0.324
112.4947 0.222
112.5250 0.381
112.5553 0.488
112.5855 -0.133
112.6158 -0.337
112.6461 0.170
112.6764 0.053
112.7067 0.717
112.7369 -0.076
112.7672 0.433
112.7975 0.526
112.8278 0.360
112.8580 0.349
112.8883 0.027
112.9186 -0.190
112.9489 0.270
112.9792 -0.363
113.0094 -0.215
113.0397 0.089
113.0700 -0.179
113.1003 -0.030
113.1306 0.068
113.1608 0.062
113.1911 -0.309
113.2214 0.051
113.2517 0.098
113.2819 -0.062
113.3122 0.247
113.3425 0.088
113.3728 -0.071
113.4031 0.239
113.4333 0.133
113.4636 -0.128
113.4939 -0.598
113.5242 0.183
113.5545 -0.703
113.5847 0.026
113.6150 -0.130
113.6453 -0.233
113.6756 -0.239
113.7058 0.380
113.7361 -0.094
113.7664 -0.099
113.7967 -0.311
113.8270 0.152
113.8572 -0.009
113.8875 -0.274
113.9178 0.295
113.9481 0.396
113.9784 -0.180
114.0086 0.235
114.0389 -0.392
114.0692 0.388
114.0995 -0.342
114.1298 -0.239
114.1600 -0.031
114.1903 -0.239
114.2206 -0.031
114.2509 -0.188
114.2811 0.385
114.3114 -0.448
114.3417 -0.239
114.3720 -0.032
114.4023 0.175
114.4325 -0.347
114.4628 0.330
114.4931 -0.399
114.5234 -0.085
114.5537 0.020
114.5839 -0.239
114.6142 0.024
114.6445 0.391
114.6748 -0.023
114.7050 0.502
114.7353 0.766
114.7656 -0.167
114.7959 -0.162
114.8262 0.156
114.8564 0.058
114.8867 0.117
114.9170 0.124
114.9473 -0.337
114.9776 -0.084
115.0078 -0.247
115.0381 0.423
115.0684 -0.104
115.0987 0.151
115.1289 -0.219
115.1592 -0.119
115.1895 0.190
115.2198 0.498
115.2501 0.287
115.2803 0.128
115.3106 -0.134
115.3409 0.489
115.3712 -0.241
115.4015 0.592
115.4317 -0.189
115.4620 0.176
115.4923 0.177
115.5226 -0.239
115.5528 -0.308
115.5831 0.561
115.6134 -0.080
115.6437 0.373
115.6740 0.098
115.7042 0.188
115.7345 0.174
115.7648 0.837
115.7951 0.303
115.8254 -0.490
115.8556 0.435
115.8859 0.007
115.9162 0.465
115.9465 0.246
115.9767 0.132
116.0070 0.382
116.0373 -0.356
116.0676 -0.052
116.0979 0.201
116.1281 -0.015
116.1584 0.030
116.1887 0.805
116.2190 0.382
116.2493 0.324
116.2795 -0.097
116.3098 0.315
116.3401 0.831
116.3704 -0.266
116.4006 -0.061
116.4309 0.041
116.4612 -0.065
116.4915 -0.015
116.5218 0.349
116.5520 0.973
116.5823 0.453
116.6126 1.182
116.6429 0.871
116.6732 0.351
116.7034 0.718
116.7337 0.356
116.7640 0.671
116.7943 0.310
116.8245 0.158
116.8548 0.110
116.8851 0.011
116.9154 0.797
116.9457 0.283
116.9759 0.029
117.0062 0.400
117.0365 0.095
117.0668 -0.105
117.0971 0.268
117.1273 0.068
117.1576 -0.339
117.1879 0.140
117.2182 -0.319
117.2485 0.526
117.2787 -0.088
117.3090 0.028
117.3393 0.041
117.3696 -0.415
117.3998 0.004
117.4301 0.216
117.4604 0.272
117.4907 0.328
117.5210 0.333
117.5512 0.130
117.5815 0.604
117.6118 0.923
117.6421 0.565
117.6724 -0.157
117.7026 0.112
117.7329 -0.141
117.7632 -0.028
117.7935 -0.175
117.8237 0.043
117.8540 -0.103
117.8843 0.377
117.9146 0.076
117.9449 0.140
117.9751 0.256
118.0054 0.477
118.0357 0.386
118.0660 0.140
118.0963 -0.002
118.1265 0.116
118.1568 -0.233
118.1871 -0.089
118.2174 0.576
118.2476 0.616
118.2779 0.344
118.3082 -0.500
118.3385 0.219
118.3688 0.157
118.3990 -0.216
118.4293 0.139
118.4596 -0.442
118.4899 0.176
118.5202 0.481
118.5504 0.058
118.5807 0.520
118.6110 -0.163
118.6413 0.092
118.6715 0.192
118.7018 0.448
118.7321 0.184
118.7624 0.233
118.7927 0.022
118.8229 -0.033
118.8532 -0.191
118.8835 0.069
118.9138 0.432
118.9441 -0.089
118.9743 0.172
119.0046 -0.140
119.0349 0.226
119.0652 0.072
119.0954 -0.030
119.1257 0.181
119.1560 -0.285
119.1863 0.657
119.2166 -0.225
119.2468 -0.116
119.2771 0.150
119.3074 0.052
119.3377 0.110
119.3680 -0.352
119.3982 0.020
119.4285 -0.337
119.4588 0.027
119.4891 -0.702
119.5193 0.040
119.5496 -0.259
119.5799 0.276
119.6102 -0.075
119.6405 -0.008
119.6707 0.164
119.7010 0.388
119.7313 0.092
119.7616 0.056
119.7919 0.334
119.8221 0.404
119.8524 0.214
119.8827 -0.393
119.9130 0.460
119.9433 0.324
119.9735 0.865
120.0038 0.000
