'Id: "" Comment: "" Operator: "Lab Manager" Anode: "Cu" Scantype: "Locked Coupled" TimePerStep: "19.2" X: "9999" Y: "9999" Z: "9999" 
10.0015 0.000
10.0318 0.514
10.0620 0.038
10.0923 0.135
10.1226 -0.236
10.1529 0.019
10.1832 -0.403
10.2134 -0.650
10.2437 0.404
10.2740 0.104
10.3043 0.170
10.3346 0.340
10.3648 0.458
10.3951 0.316
10.4254 0.278
10.4557 0.501
10.4859 -0.056
10.5162 0.219
10.5465 -0.963
10.5768 -0.185
10.6071 0.749
10.6373 0.173
10.6676 1.577
10.6979 0.064
10.7282 -0.095
10.7585 0.112
10.7887 0.840
10.8190 0.995
10.8493 -0.152
10.8796 -0.100
10.9098 0.160
10.9401 0.941
10.9704 -0.725
11.0007 0.214
11.0310 -0.254
11.0612 0.424
11.0915 -0.042
11.1218 0.220
11.1521 -0.142
11.1824 -0.348
11.2126 0.228
11.2429 0.284
11.2732 -0.077
11.3035 0.135
11.3337 0.556
11.3640 0.769
11.3943 0.566
11.4246 -0.158
11.4549 -0.308
11.4851 0.844
11.5154 -0.244
11.5457 -0.289
11.5760 0.499
11.6063 0.090
11.6365 0.149
11.6668 -1.041
11.6971 -0.102
11.7274 0.108
11.7577 0.005
11.7879 -0.149
11.8182 0.270
11.8485 0.481
11.8788 -0.193
11.9090 0.384
11.9393 0.127
11.9696 -0.806
11.9999 -0.076
12.0302 0.499
12.0604 0.553
12.0907 -1.163
12.1210 0.090
12.1513 -0.167
12.1816 0.461
12.2118 0.205
12.2421 0.261
12.2724 0.734
12.3027 -0.511
12.3329 0.484
12.3632 -0.709
12.3935 0.078
12.4238 0.189
12.4541 0.560
12.4843 -0.319
12.5146 -0.208
12.5449 0.216
12.5752 0.224
12.6055 0.128
12.6357 0.449
12.6660 0.197
12.6963 0.414
12.7266 0.476
12.7568 -0.036
12.7871 -0.078
12.8174 0.297
12.8477 0.256
12.8780 0.319
12.9082 0.278
12.9385 0.602
12.9688 -0.636
12.9991 -0.051
13.0294 0.066
13.0596 -0.234
13.0899 -0.012
13.1202 0.730
13.1505 0.224
13.1807 0.342
13.2110 0.304
13.2413 -0.202
13.2716 0.074
13.3019 -0.015
13.3321 -0.520
13.3624 0.047
13.3927 -0.062
13.4230 -0.015
13.4533 0.241
13.4835 0.028
13.5138 0.545
13.5441 0.437
13.5744 0.121
13.6046 -0.039
13.6349 1.156
13.6652 0.008
13.6955 0.527
13.7258 -0.517
13.7560 -0.102
13.7863 0.991
13.8166 0.417
13.8469 0.052
13.8772 0.000
13.9074 0.156
13.9377 -0.468
13.9680 0.626
13.9983 -0.154
14.0285 -0.361
14.0588 -0.412
14.0891 0.580
14.1194 -0.408
14.1497 0.219
14.1799 0.951
14.2102 0.381
14.2405 0.020
14.2708 -0.029
14.3011 0.496
14.3313 -0.021
14.3616 0.661
14.3919 -0.064
14.4222 0.515
14.4524 0.051
14.4827 0.318
14.5130 -0.562
14.5433 0.122
14.5736 -0.757
14.6038 0.084
14.6341 0.143
14.6644 -0.318
14.6947 0.003
14.7250 -0.093
14.7552 0.228
14.7855 -0.231
14.8158 0.403
14.8461 -0.733
14.8764 -0.098
14.9066 0.329
14.9369 -0.806
14.9672 -0.284
14.9975 0.552
15.0277 -0.748
15.0580 0.244
15.0883 0.195
15.1186 -0.635
15.1489 0.775
15.1791 -0.575
15.2094 -0.050
15.2397 -0.045
15.2700 -0.092
15.3003 -0.087
15.3305 0.648
15.3608 0.133
15.3911 -0.486
15.4214 0.041
15.4516 0.673
15.4819 0.941
15.5122 -0.145
15.5425 -0.137
15.5728 -0.754
15.6030 0.183
15.6333 -0.234
15.6636 0.443
15.6939 -0.494
15.7242 -0.390
15.7544 0.600
15.7847 -0.025
15.8150 0.705
15.8453 -0.283
15.8755 0.552
15.9058 0.866
15.9361 -0.278
15.9664 0.245
15.9967 0.196
16.0269 0.303
16.0572 0.411
16.0875 0.154
16.1178 0.315
16.1481 0.006
16.1783 -0.145
16.2086 0.641
16.2389 -0.083
16.2692 -0.338
16.2994 -0.551
16.3297 0.746
16.3600 0.690
16.3903 0.530
16.4206 -0.047
16.4508 -0.259
16.4811 -0.314
16.5114 -0.004
16.5417 0.098
16.5720 0.200
16.6022 -0.531
16.6325 0.092
16.6628 -0.951
16.6931 0.559
16.7233 -0.014
16.7536 -0.223
16.7839 -0.483
16.8142 0.611
16.8445 -0.273
16.8747 0.613
16.9050 0.146
16.9353 0.512
16.9656 0.358
16.9959 -0.369
17.0261 0.207
17.0564 -0.155
17.0867 -0.151
17.1170 -0.304
17.1472 1.263
17.1775 -0.139
17.2078 -0.239
17.2381 -0.234
17.2684 0.293
17.2986 -0.275
17.3289 0.408
17.3592 0.050
17.3895 0.525
17.4198 0.064
17.4500 0.592
17.4803 0.183
17.5106 0.191
17.5409 -0.218
17.5712 0.207
17.6014 0.320
17.6317 -0.295
17.6620 0.235
17.6923 -0.120
17.7225 -0.057
17.7528 0.005
17.7831 -0.244
17.8134 -0.338
17.8437 0.286
17.8739 -0.391
17.9042 0.806
17.9345 -0.027
17.9648 0.494
17.9951 0.130
18.0253 0.651
18.0556 0.027
18.0859 0.654
18.1162 0.499
18.1464 0.189
18.1767 -0.173
18.2070 0.246
18.2373 0.406
18.2676 -0.268
18.2978 0.413
18.3281 0.625
18.3584 -0.308
18.3887 0.791
18.4190 0.848
18.4492 0.593
18.4795 0.599
18.5098 0.553
18.5401 0.559
18.5703 0.409
18.6006 -0.157
18.6309 -0.045
18.6612 0.536
18.6915 0.335
18.7217 0.812
18.7520 0.040
18.7823 1.090
18.8126 0.110
18.8429 1.005
18.8731 0.077
18.9034 0.400
18.9337 -0.267
18.9640 0.578
18.9942 0.589
19.0245 -0.077
19.0548 0.873
19.0851 -0.157
19.1154 1.054
19.1456 0.493
19.1759 -0.431
19.2062 -0.105
19.2365 0.117
19.2668 -0.390
19.2970 -0.088
19.3273 0.474
19.3576 0.777
19.3879 0.089
19.4181 0.288
19.4484 0.487
19.4787 0.634
19.5090 0.053
19.5393 1.086
19.5695 0.193
19.5998 -0.388
19.6301 0.334
19.6604 -0.142
19.6907 0.633
19.7209 0.209
19.7512 0.568
19.7815 0.302
19.8118 0.192
19.8420 0.447
19.8723 -0.078
19.9026 0.699
19.9329 0.590
19.9632 0.222
19.9934 0.166
20.0237 0.788
20.0540 -0.725
20.0843 0.678
20.1146 0.312
20.1448 0.101
20.1751 -0.317
20.2054 -0.062
20.2357 -0.171
20.2659 -0.072
20.2962 0.028
20.3265 -0.133
20.3568 -0.241
20.3871 -0.453
20.4173 0.325
20.4476 -0.147
20.4779 0.736
20.5082 -0.256
20.5385 0.471
20.5687 0.678
20.5990 0.260
20.6293 -0.418
20.6596 0.258
20.6899 0.102
20.7201 0.154
20.7504 0.362
20.7807 -0.210
20.8110 0.624
20.8412 -0.260
20.8715 -0.102
20.9018 -0.152
20.9321 -0.306
20.9624 0.582
20.9926 0.324
21.0229 0.483
21.0532 -0.659
21.0835 0.230
21.1138 -0.495
21.1440 0.656
21.1743 -0.017
21.2046 -0.168
21.2349 -0.214
21.2651 0.416
21.2954 0.318
21.3257 0.168
21.3560 0.019
21.3863 0.182
21.4165 -0.279
21.4468 -0.011
21.4771 0.414
21.5074 0.318
21.5377 -0.246
21.5679 -0.237
21.5982 0.032
21.6285 0.198
21.6588 0.521
21.6890 -0.250
21.7193 0.229
21.7496 0.292
21.7799 0.199
21.8102 -0.102
21.8404 0.327
21.8707 0.339
21.9010 -0.221
21.9313 -0.208
21.9616 -0.299
21.9918 0.127
22.0221 -0.019
22.0524 0.460
22.0827 0.107
22.1129 0.170
22.1432 0.338
22.1735 0.610
22.2038 0.361
22.2341 0.166
22.2643 0.074
22.2946 0.139
22.3249 0.257
22.3552 0.739
22.3855 0.441
22.4157 -0.222
22.4460 -0.468
22.4763 0.254
22.5066 0.351
22.5368 0.188
22.5671 -0.027
22.5974 0.019
22.6277 0.638
22.6580 0.684
22.6882 0.158
22.7185 0.153
22.7488 0.617
22.7791 0.926
22.8094 0.661
22.8396 0.449
22.8699 -0.075
22.9002 0.547
22.9305 0.076
22.9607 0.906
22.9910 0.696
23.0213 0.330
23.0516 0.120
23.0819 -0.298
23.1121 0.639
23.1424 -0.820
23.1727 -0.143
23.2030 0.274
23.2333 0.431
23.2635 0.484
23.2938 0.121
23.3241 0.174
23.3544 0.541
23.3846 0.491
23.4149 0.285
23.4452 0.235
23.4755 0.395
23.5058 -0.123
23.5360 0.558
23.5663 0.667
23.5966 0.411
23.6269 0.519
23.6572 0.212
23.6874 0.478
23.7177 0.223
23.7480 -0.135
23.7783 -0.285
23.8086 0.018
23.8388 -0.043
23.8691 -0.051
23.8994 0.462
23.9297 0.819
23.9599 0.447
23.9902 0.231
24.0205 0.016
24.0508 -0.146
24.0811 0.004
24.1113 0.727
24.1416 0.253
24.1719 0.925
24.2022 0.243
24.2325 0.290
24.2627 0.443
24.2930 0.751
24.3233 0.227
24.3536 0.015
24.3838 0.429
24.4141 0.166
24.4444 0.112
24.4747 0.110
24.5050 0.317
24.5352 0.315
24.5655 0.627
24.5958 1.095
24.6261 0.314
24.6564 -0.520
24.6866 -0.266
24.7169 -0.011
24.7472 0.504
24.7775 -0.543
24.8077 0.285
24.8380 -0.085
24.8683 0.640
24.8986 -0.041
24.9289 -0.462
24.9591 0.681
24.9894 0.209
25.0197 0.102
25.0500 -0.005
25.0803 0.097
25.1105 -0.009
25.1408 1.031
25.1711 0.457
25.2014 0.091
25.2316 0.039
25.2619 0.455
25.2922 -0.326
25.3225 0.664
25.3528 0.039
25.3830 0.249
25.4133 -0.115
25.4436 -0.165
25.4739 -0.215
25.5042 0.464
25.5344 -0.210
25.5647 -0.363
25.5950 0.251
25.6253 -0.437
25.6555 -0.083
25.6858 0.011
25.7161 0.366
25.7464 0.201
25.7767 0.192
25.8069 0.495
25.8372 -0.086
25.8675 -0.094
25.8978 0.003
25.9281 0.203
25.9583 0.248
25.9886 0.346
26.0189 0.079
26.0492 -0.083
26.0794 -0.193
26.1097 -0.407
26.1400 0.369
26.1703 0.312
26.2006 0.776
26.2308 0.772
26.2611 -0.013
26.2914 0.036
26.3217 0.710
26.3520 0.238
26.3822 -0.754
26.4125 -0.188
26.4428 -0.143
26.4731 0.267
26.5034 0.938
26.5336 0.099
26.5639 0.094
26.5942 -0.068
26.6245 -0.177
26.6547 -0.077
26.6850 0.752
26.7153 0.436
26.7456 0.067
26.7759 -0.092
26.8061 -0.668
26.8364 0.163
26.8667 0.577
26.8970 -0.154
26.9273 0.626
26.9575 -0.261
26.9878 -0.314
27.0181 0.363
27.0484 0.362
27.0786 -0.263
27.1089 -0.106
27.1392 0.311
27.1695 0.000
27.1998 0.730
27.2300 0.055
27.2603 -0.412
27.2906 0.684
27.3209 -0.043
27.3512 -0.248
27.3814 1.213
27.4117 0.436
27.4420 0.023
27.4723 0.288
27.5025 -0.020
27.5328 0.037
27.5631 -0.375
27.5934 0.047
27.6237 -0.468
27.6539 -0.001
27.6842 -0.106
27.7145 -0.264
27.7448 -0.317
27.7751 -0.114
27.8053 0.506
27.8356 -0.072
27.8659 0.340
27.8962 -0.446
27.9264 0.592
27.9567 0.276
27.9870 0.325
28.0173 0.270
28.0476 0.163
28.0778 0.212
28.1081 -0.310
28.1384 1.042
28.1687 -0.209
28.1990 0.258
28.2292 0.310
28.2595 -0.472
28.2898 0.257
28.3201 0.205
28.3503 0.154
28.3806 -0.054
28.4109 -0.157
28.4412 -0.572
28.4715 0.197
28.5017 -0.075
28.5320 0.434
28.5623 -0.150
28.5926 0.464
28.6229 -0.172
28.6531 0.026
28.6834 0.225
28.7137 0.580
28.7440 0.466
28.7742 0.509
28.8045 0.084
28.8348 -0.029
28.8651 0.015
28.8954 0.008
28.9256 -0.104
28.9559 0.358
28.9862 0.039
29.0165 -0.384
29.0468 0.078
29.0770 0.541
29.1073 0.223
29.1376 0.062
29.1679 0.578
29.1981 0.834
29.2284 0.934
29.2587 0.149
29.2890 -0.011
29.3193 0.298
29.3495 -0.017
29.3798 0.606
29.4101 0.812
29.4404 -0.596
29.4707 -0.338
29.5009 0.413
29.5312 0.070
29.5615 -0.116
29.5918 -0.146
29.6221 0.346
29.6523 -0.256
29.6826 0.184
29.7129 0.103
29.7432 0.700
29.7734 -0.213
29.8037 0.176
29.8340 0.774
29.8643 -0.034
29.8946 -0.894
29.9248 0.434
29.9551 0.200
29.9854 0.643
30.0157 -0.475
30.0460 0.489
30.0762 0.673
30.1065 0.180
30.1368 0.469
30.1671 1.331
30.1973 0.057
30.2276 0.139
30.2579 -0.248
30.2882 1.083
30.3185 0.384
30.3487 0.154
30.3790 0.081
30.4093 0.998
30.4396 0.404
30.4699 0.540
30.5001 0.208
30.5304 0.761
30.5607 0.585
30.5910 1.087
30.6212 0.495
30.6515 0.685
30.6818 1.188
30.7121 0.493
30.7424 0.893
30.7726 1.761
30.8029 2.942
30.8332 0.582
30.8635 1.451
30.8938 1.383
30.9240 0.378
30.9543 2.551
30.9846 2.171
31.0149 2.990
31.0451 3.497
31.0754 3.900
31.1057 2.688
31.1360 3.508
31.1663 5.214
31.1965 4.368
31.2268 5.554
31.2571 7.000
31.2874 10.114
31.3177 10.727
31.3479 12.956
31.3782 14.977
31.4085 16.581
31.4388 18.707
31.4690 20.728
31.4993 25.146
31.5296 28.991
31.5599 33.149
31.5902 37.203
31.6204 39.799
31.6507 39.219
31.6810 38.274
31.7113 34.933
31.7416 32.270
31.7718 27.993
31.8021 23.873
31.8324 19.075
31.8627 17.663
31.8929 12.137
31.9232 10.518
31.9535 9.680
31.9838 10.041
32.0141 7.537
32.0443 6.648
32.0746 4.614
32.1049 5.288
32.1352 4.139
32.1655 3.616
32.1957 3.771
32.2260 1.946
32.2563 2.570
32.2866 2.361
32.3169 1.892
32.3471 1.423
32.3774 1.475
32.4077 1.110
32.4380 0.903
32.4682 0.279
32.4985 1.218
32.5288 -0.395
32.5591 1.273
32.5894 1.328
32.6196 0.341
32.6499 0.761
32.6802 0.712
32.7105 -0.066
32.7408 -0.426
32.7710 0.515
32.8013 0.155
32.8316 0.837
32.8619 0.061
32.8921 0.275
32.9224 0.594
32.9527 -0.442
32.9830 -0.564
33.0133 0.669
33.0435 0.652
33.0738 1.052
33.1041 -0.111
33.1344 -0.596
33.1647 0.534
33.1949 0.727
33.2252 -0.538
33.2555 -0.292
33.2858 0.474
33.3160 0.512
33.3463 0.082
33.3766 -0.140
33.4069 -0.257
33.4372 0.303
33.4674 -0.075
33.4977 0.642
33.5280 -0.567
33.5583 0.567
33.5886 0.920
33.6188 0.440
33.6491 0.534
33.6794 0.836
33.7097 1.139
33.7399 0.869
33.7702 2.422
33.8005 2.413
33.8308 1.310
33.8611 1.510
33.8913 1.971
33.9216 4.151
33.9519 3.987
33.9822 4.449
34.0125 6.057
34.0427 7.561
34.0730 8.492
34.1033 10.986
34.1336 14.106
34.1638 18.580
34.1941 24.200
34.2244 32.164
34.2547 42.368
34.2850 46.115
34.3152 46.736
34.3455 40.379
34.3758 33.813
34.4061 25.113
34.4364 18.079
34.4666 15.525
34.4969 10.628
34.5272 6.408
34.5575 6.147
34.5877 5.365
34.6180 4.479
34.6483 2.448
34.6786 2.761
34.7089 2.293
34.7391 3.335
34.7694 0.785
34.7997 1.828
34.8300 1.049
34.8603 1.520
34.8905 1.731
34.9208 1.734
34.9511 1.477
34.9814 0.699
35.0116 1.484
35.0419 1.332
35.0722 1.024
35.1025 0.873
35.1328 0.722
35.1630 1.665
35.1933 1.827
35.2236 2.458
35.2539 2.048
35.2842 1.690
35.3144 1.177
35.3447 2.747
35.3750 3.692
35.4053 3.335
35.4356 2.667
35.4658 3.040
35.4961 3.049
35.5264 3.996
35.5567 3.537
35.5869 5.943
35.6172 5.068
35.6475 6.641
35.6778 7.954
35.7081 8.851
35.7383 11.415
35.7686 11.739
35.7989 13.679
35.8292 16.139
35.8595 18.809
35.8897 21.010
35.9200 25.971
35.9503 31.402
35.9806 32.666
36.0108 39.035
36.0411 44.258
36.0714 50.315
36.1017 54.653
36.1320 55.711
36.1622 53.904
36.1925 50.275
36.2228 44.719
36.2531 40.934
36.2834 33.868
36.3136 30.605
36.3439 25.675
36.3742 20.850
36.4045 20.087
36.4347 15.523
36.4650 12.418
36.4953 9.989
36.5256 9.593
36.5559 6.384
36.5861 6.092
36.6164 5.124
36.6467 4.833
36.6770 4.021
36.7073 3.887
36.7375 5.940
36.7678 3.099
36.7981 2.809
36.8284 1.739
36.8586 1.919
36.8889 1.682
36.9192 0.561
36.9495 0.846
36.9798 0.975
37.0100 0.844
37.0403 0.349
37.0706 1.104
37.1009 1.130
37.1312 1.052
37.1614 0.663
37.1917 0.846
37.2220 1.394
37.2523 0.849
37.2825 0.513
37.3128 0.333
37.3431 0.049
37.3734 0.808
37.4037 0.212
37.4339 0.242
37.4642 -0.405
37.4945 0.511
37.5248 0.594
37.5551 0.156
37.5853 0.083
37.6156 0.219
37.6459 0.043
37.6762 -0.654
37.7064 0.160
37.7367 0.089
37.7670 0.279
37.7973 0.052
37.8276 0.815
37.8578 0.172
37.8881 0.155
37.9184 0.815
37.9487 -0.035
37.9790 0.000
38.0092 0.766
38.0395 0.177
38.0698 0.474
38.1001 0.198
38.1304 -0.390
38.1606 -0.174
38.1909 1.291
38.2212 -0.055
38.2515 0.213
38.2817 -0.039
38.3120 0.595
38.3423 -0.594
38.3726 0.717
38.4029 0.779
38.4331 -0.826
38.4634 0.383
38.4937 0.133
38.5240 0.612
38.5543 0.103
38.5845 0.479
38.6148 0.126
38.6451 0.034
38.6754 -0.214
38.7056 0.164
38.7359 1.062
38.7662 0.868
38.7965 0.309
38.8268 0.323
38.8570 0.285
38.8873 0.925
38.9176 -0.466
38.9479 -0.295
38.9782 -0.233
39.0084 0.455
39.0387 -0.108
39.0690 0.320
39.0993 0.331
39.1295 -0.282
39.1598 -0.479
39.1901 0.471
39.2204 -0.402
39.2507 -0.285
39.2809 0.447
39.3112 -0.071
39.3415 0.714
39.3718 0.040
39.4021 0.305
39.4323 0.101
39.4626 -0.520
39.4929 -0.046
39.5232 -0.406
39.5534 0.225
39.5837 -0.290
39.6140 0.653
39.6443 0.139
39.6746 0.354
39.7048 0.048
39.7351 0.160
39.7654 0.584
39.7957 -0.189
39.8260 -0.285
39.8562 0.242
39.8865 -0.011
39.9168 -0.317
39.9471 0.108
39.9773 0.168
40.0076 -0.189
40.0379 0.757
40.0682 0.714
40.0985 0.255
40.1287 0.212
40.1590 -0.039
40.1893 0.128
40.2196 -0.278
40.2499 0.045
40.2801 0.160
40.3104 0.224
40.3407 -0.337
40.3710 -0.186
40.4012 -0.191
40.4315 0.482
40.4618 -0.199
40.4921 0.058
40.5224 0.263
40.5526 -0.625
40.5829 0.309
40.6132 -0.005
40.6435 0.201
40.6738 0.043
40.7040 -0.219
40.7343 0.040
40.7646 -0.169
40.7949 0.300
40.8251 0.612
40.8554 -0.065
40.8857 -0.012
40.9160 -0.376
40.9463 0.250
40.9765 -0.425
41.0068 -0.007
41.0371 0.256
41.0674 -0.262
41.0977 0.261
41.1279 -0.256
41.1582 -0.201
41.1885 -0.145
41.2188 0.484
41.2491 -0.032
41.2793 -0.027
41.3096 0.551
41.3399 0.452
41.3702 0.353
41.4004 0.203
41.4307 -0.415
41.4610 -0.156
41.4913 -0.052
41.5216 -0.053
41.5518 0.260
41.5821 -0.260
41.6124 -0.260
41.6427 -0.003
41.6730 0.255
41.7032 0.513
41.7335 0.719
41.7638 -0.325
41.7941 0.038
41.8243 0.142
41.8546 0.297
41.8849 -0.120
41.9152 0.348
41.9455 0.088
41.9757 0.245
42.0060 0.194
42.0363 0.455
42.0666 0.561
42.0969 -0.062
42.1271 0.096
42.1574 0.359
42.1877 -0.316
42.2180 -0.260
42.2482 -0.624
42.2785 0.314
42.3088 0.107
42.3391 0.056
42.3694 0.266
42.3996 0.007
42.4299 0.269
42.4602 0.272
42.4905 -0.090
42.5208 0.226
42.5510 -0.188
42.5813 -0.028
42.6116 0.289
42.6419 0.241
42.6721 0.142
42.7024 0.043
42.7327 0.048
42.7630 0.314
42.7933 0.007
42.8235 0.378
42.8538 0.489
42.8841 -0.285
42.9144 -0.449
42.9447 0.430
42.9749 0.527
43.0052 0.260
43.0355 0.046
43.0658 0.040
43.0960 0.087
43.1263 0.030
43.1566 -0.079
43.1869 0.125
43.2172 0.277
43.2474 0.013
43.2777 0.322
43.3080 0.110
43.3383 -0.049
43.3686 0.365
43.3988 -0.001
43.4291 0.570
43.4594 -0.369
43.4897 0.671
43.5199 0.150
43.5502 0.149
43.5805 -0.372
43.6108 0.253
43.6411 -0.007
43.6713 0.046
43.7016 0.203
43.7319 0.100
43.7622 0.050
43.7925 -0.260
43.8227 -0.159
43.8530 -0.108
43.8833 -0.214
43.9136 0.201
43.9439 -0.008
43.9741 -0.217
44.0044 -0.009
44.0347 0.303
44.0650 0.303
44.0952 0.252
44.1255 0.357
44.1558 -0.736
44.1861 0.360
44.2164 -0.159
44.2466 0.208
44.2769 0.470
44.3072 0.265
44.3375 0.216
44.3678 0.324
44.3980 0.223
44.4283 -0.033
44.4586 0.336
44.4889 0.029
44.5191 0.190
44.5494 0.143
44.5797 0.045
44.6100 -0.001
44.6403 -0.255
44.6705 -0.360
44.7008 0.942
44.7311 0.161
44.7614 -0.255
44.7917 -0.210
44.8219 0.096
44.8522 -0.067
44.8825 -0.230
44.9128 0.702
44.9430 0.176
44.9733 -0.038
45.0036 0.322
45.0339 0.682
45.0642 0.105
45.0944 0.101
45.1247 -0.163
45.1550 -0.010
45.1853 0.092
45.2156 0.089
45.2458 0.087
45.2761 0.085
45.3064 0.552
45.3367 0.603
45.3669 0.185
45.3972 0.028
45.4275 0.028
45.4578 1.070
45.4881 0.653
45.5183 -0.336
45.5486 0.238
45.5789 -0.125
45.6092 0.397
45.6395 0.243
45.6697 0.298
45.7000 0.040
45.7303 0.720
45.7606 0.098
45.7908 -0.107
45.8211 -0.311
45.8514 0.143
45.8817 0.650
45.9120 -0.041
45.9422 0.154
45.9725 0.036
46.0028 0.701
46.0331 -0.249
46.0634 -0.053
46.0936 0.195
46.1239 0.444
46.1542 0.381
46.1845 0.370
46.2147 -0.161
46.2450 -0.276
46.2753 -0.235
46.3056 0.275
46.3359 0.421
46.3661 0.046
46.3964 0.504
46.4267 0.078
46.4570 0.954
46.4873 -0.305
46.5175 -0.157
46.5478 -0.114
46.5781 0.347
46.6084 0.912
46.6386 0.280
46.6689 -0.300
46.6992 0.214
46.7295 0.103
46.7598 0.774
46.7900 0.664
46.8203 0.815
46.8506 0.341
46.8809 1.586
46.9112 1.113
46.9414 1.421
46.9717 1.521
47.0020 2.664
47.0323 2.817
47.0626 2.501
47.0928 1.926
47.1231 2.965
47.1534 4.213
47.1837 4.003
47.2139 4.419
47.2442 6.241
47.2745 7.334
47.3048 7.802
47.3351 10.198
47.3653 10.198
47.3956 10.251
47.4259 9.679
47.4562 9.784
47.4865 9.630
47.5167 9.059
47.5470 6.665
47.5773 7.189
47.6076 6.150
47.6378 5.007
47.6681 5.011
47.6984 4.077
47.7287 2.988
47.7590 2.367
47.7892 2.581
47.8195 2.065
47.8498 1.393
47.8801 0.566
47.9104 1.249
47.9406 1.308
47.9709 0.481
48.0012 0.592
48.0315 0.287
48.0617 0.660
48.0920 0.772
48.1223 1.093
48.1526 0.372
48.1829 0.486
48.2131 0.391
48.2434 0.244
48.2737 0.463
48.3040 0.890
48.3343 0.379
48.3645 0.547
48.3948 0.193
48.4251 0.622
48.4554 0.790
48.4856 -0.031
48.5159 0.450
48.5462 -0.318
48.5765 0.737
48.6068 0.490
48.6370 0.556
48.6673 0.518
48.6976 0.533
48.7279 -0.286
48.7582 -0.218
48.7884 0.474
48.8187 -0.187
48.8490 0.090
48.8793 -0.102
48.9095 -0.190
48.9398 0.088
48.9701 -0.363
49.0004 -0.054
49.0307 0.776
49.0609 0.670
49.0912 -0.010
49.1215 -0.064
49.1518 -0.065
49.1821 0.558
49.2123 0.557
49.2426 0.140
49.2729 0.452
49.3032 0.036
49.3334 -0.277
49.3637 0.297
49.3940 0.038
49.4243 0.039
49.4546 -0.376
49.4848 0.147
49.5151 0.097
49.5454 0.308
49.5757 0.258
49.6060 0.001
49.6362 0.474
49.6665 0.529
49.6968 0.534
49.7271 -0.087
49.7574 -0.030
49.7876 -0.441
49.8179 0.079
49.8482 0.600
49.8785 0.132
49.9087 0.133
49.9390 -0.075
49.9693 -0.021
49.9996 0.397
50.0299 -0.070
50.0601 -0.015
50.0904 -0.169
50.1207 -0.166
50.1510 -0.162
50.1813 -0.107
50.2115 -0.519
50.2418 0.162
50.2721 0.532
50.3024 0.172
50.3326 0.230
50.3629 -0.129
50.3932 0.346
50.4235 0.093
50.4538 -0.005
50.4840 -0.206
50.5143 0.427
50.5446 -0.086
50.5749 0.026
50.6052 -0.122
50.6354 0.200
50.6657 -0.156
50.6960 0.062
50.7263 0.020
50.7565 -0.283
50.7868 0.509
50.8171 -0.053
50.8474 0.375
50.8777 -0.187
50.9079 -0.227
50.9382 0.128
50.9685 0.588
50.9988 0.007
51.0291 0.103
51.0593 -0.114
51.0896 0.139
51.1199 -0.076
51.1502 0.333
51.1804 -0.038
51.2107 0.372
51.2410 0.262
51.2713 0.257
51.3016 0.043
51.3318 0.246
51.3621 0.242
51.3924 0.706
51.4227 -0.131
51.4530 0.542
51.4832 -0.191
51.5135 0.431
51.5438 0.481
51.5741 -0.407
51.6043 -0.045
51.6346 0.474
51.6649 0.369
51.6952 0.107
51.7255 0.158
51.7557 0.002
51.7860 -0.259
51.8163 0.052
51.8466 -0.157
51.8769 0.103
51.9071 0.155
51.9374 0.260
51.9677 -0.312
51.9980 0.574
52.0282 0.002
52.0585 -0.205
52.0888 0.474
52.1191 0.060
52.1494 0.271
52.1796 0.065
52.2099 0.329
52.2402 -0.188
52.2705 -0.132
52.3008 0.445
52.3310 0.397
52.3613 -0.171
52.3916 -0.166
52.4219 0.048
52.4521 -0.259
52.4824 0.000
52.5127 0.207
52.5430 -0.158
52.5733 0.362
52.6035 0.309
52.6338 0.518
52.6641 0.154
52.6944 -0.106
52.7247 -0.001
52.7549 0.157
52.7852 0.054
52.8155 0.629
52.8458 0.007
52.8761 0.530
52.9063 0.221
52.9366 0.224
52.9669 -0.085
52.9972 -0.081
53.0274 -0.493
53.0577 0.128
53.0880 0.333
53.1183 -0.034
53.1486 0.432
53.1788 0.065
53.2091 0.011
53.2394 0.166
53.2697 0.529
53.3000 0.424
53.3302 0.319
53.3605 -0.046
53.3908 0.423
53.4211 0.215
53.4513 0.372
53.4816 -0.044
53.5119 0.478
53.5422 0.323
53.5725 0.117
53.6027 0.067
53.6330 0.330
53.6633 -0.136
53.6936 -0.184
53.7239 -0.233
53.7541 -0.031
53.7844 0.432
53.8147 0.218
53.8450 0.265
53.8752 -0.364
53.9055 0.152
53.9358 0.252
53.9661 -0.221
53.9964 0.088
54.0266 0.033
54.0569 0.030
54.0872 0.236
54.1175 0.181
54.1478 0.232
54.1780 -0.239
54.2083 -0.194
54.2386 0.217
54.2689 -0.050
54.2991 0.152
54.3294 0.563
54.3597 0.298
54.3900 -0.072
54.4203 -0.389
54.4505 0.113
54.4808 0.148
54.5111 0.078
54.5414 0.061
54.5717 0.304
54.6019 -0.441
54.6322 -0.253
54.6625 0.145
54.6928 0.178
54.7230 0.263
54.7533 0.141
54.7836 -0.138
54.8139 -0.156
54.8442 -0.642
54.8744 0.383
54.9047 0.262
54.9350 -0.223
54.9653 0.594
54.9956 -0.099
55.0258 0.302
55.0561 -0.077
55.0864 -0.248
55.1167 0.206
55.1469 0.244
55.1772 -0.187
55.2075 0.425
55.2378 -0.265
55.2681 0.347
55.2983 0.230
55.3286 0.166
55.3589 -0.627
55.3892 0.403
55.4195 -0.286
55.4497 0.224
55.4800 -0.151
55.5103 0.308
55.5406 0.402
55.5709 0.288
55.6011 0.695
55.6314 0.165
55.6617 0.678
55.6920 0.878
55.7222 1.547
55.7525 0.497
55.7828 0.594
55.8131 0.223
55.8434 0.476
55.8736 0.834
55.9039 1.089
55.9342 1.083
55.9645 1.286
55.9948 1.906
56.0250 1.641
56.0553 2.313
56.0856 2.101
56.1159 2.826
56.1461 3.760
56.1764 3.392
56.2067 5.004
56.2370 5.054
56.2673 6.562
56.2975 6.977
56.3278 8.954
56.3581 8.016
56.3884 10.567
56.4187 12.441
56.4489 11.347
56.4792 11.556
56.5095 11.296
56.5398 11.140
56.5700 10.777
56.6003 10.257
56.6306 8.748
56.6609 6.980
56.6912 6.617
56.7214 5.943
56.7517 5.581
56.7820 4.699
56.8123 3.297
56.8426 2.884
56.8728 2.940
56.9031 1.591
56.9334 2.585
56.9637 1.913
56.9939 1.815
57.0242 0.987
57.0545 1.931
57.0848 1.365
57.1151 1.267
57.1453 1.014
57.1756 0.188
57.2059 0.300
57.2362 0.413
57.2665 1.150
57.2967 0.690
57.3270 0.074
57.3573 0.240
57.3876 0.406
57.4178 0.364
57.4481 0.218
57.4784 0.333
57.5087 0.136
57.5390 -0.165
57.5692 -0.258
57.5995 0.119
57.6298 -0.337
57.6601 -0.066
57.6904 0.779
57.7206 0.114
57.7509 0.126
57.7812 -0.226
57.8115 0.151
57.8417 0.477
57.8720 0.334
57.9023 0.140
57.9326 0.050
57.9629 0.012
57.9931 -0.129
58.0234 -0.271
58.0537 -0.151
58.0840 -0.031
58.1143 0.453
58.1445 0.053
58.1748 -0.191
58.2051 -0.018
58.2354 0.104
58.2656 -0.243
58.2959 -0.121
58.3262 -0.415
58.3565 0.154
58.3868 0.307
58.4170 0.095
58.4473 0.561
58.4776 0.246
58.5079 0.035
58.5382 0.294
58.5684 0.136
58.5987 -0.126
58.6290 -0.127
58.6593 0.654
58.6896 -0.023
58.7198 0.029
58.7501 -0.075
58.7804 0.447
58.8107 0.083
58.8409 0.241
58.8712 -0.174
58.9015 0.140
58.9318 0.351
58.9621 -0.219
58.9923 -0.060
59.0226 0.620
59.0529 0.676
59.0832 0.263
59.1135 0.215
59.1437 -0.197
59.1740 0.277
59.2043 -0.030
59.2346 -0.337
59.2648 0.080
59.2951 0.394
59.3254 0.135
59.3557 0.346
59.3860 -0.225
59.4162 0.142
59.4465 0.406
59.4768 -0.164
59.5071 -0.213
59.5374 -0.052
59.5676 0.681
59.5979 0.373
59.6282 -0.299
59.6585 0.070
59.6887 0.336
59.7190 0.082
59.7493 -0.173
59.7796 -0.114
59.8099 0.049
59.8401 0.004
59.8704 -0.197
59.9007 0.176
59.9310 -0.598
59.9613 -0.128
59.9915 0.290
60.0218 0.344
60.0521 -0.175
60.0824 0.661
60.1126 -0.013
60.1429 -0.219
60.1732 -0.007
60.2035 0.413
60.2338 0.157
60.2640 0.786
60.2943 0.426
60.3246 0.119
60.3549 -0.032
60.3852 0.077
60.4154 0.760
60.4457 0.194
60.4760 0.200
60.5063 0.415
60.5365 0.006
60.5668 0.066
60.5971 0.282
60.6274 0.134
60.6577 -0.222
60.6879 0.307
60.7182 0.160
60.7485 0.534
60.7788 -0.185
60.8091 -0.227
60.8393 0.063
60.8696 0.561
60.8999 0.070
60.9302 0.569
60.9604 0.183
60.9907 0.370
61.0210 0.453
61.0513 0.380
61.0816 0.516
61.1118 0.131
61.1421 0.737
61.1724 -0.272
61.2027 -0.239
61.2330 -0.206
61.2632 -0.276
61.2935 0.435
61.3238 0.365
61.3541 0.191
61.3844 0.070
61.4146 -0.311
61.4449 -0.014
61.4752 0.283
61.5055 -0.252
61.5357 0.098
61.5660 -0.333
61.5963 0.955
61.6266 0.161
61.6569 0.877
61.6871 -0.074
61.7174 0.331
61.7477 0.266
61.7780 0.202
61.8083 0.139
61.8385 -0.133
61.8688 0.325
61.8991 0.210
61.9294 0.721
61.9596 0.607
61.9899 0.076
62.0202 -0.037
62.0505 0.735
62.0808 0.518
62.1110 0.979
62.1413 0.919
62.1716 0.703
62.2019 0.956
62.2322 1.626
62.2624 1.880
62.2927 2.342
62.3230 1.971
62.3533 2.122
62.3835 1.804
62.4138 3.778
62.4441 2.367
62.4744 3.821
62.5047 5.328
62.5349 5.220
62.5652 6.466
62.5955 6.880
62.6258 8.387
62.6561 9.687
62.6863 9.685
62.7166 9.631
62.7469 10.984
62.7772 9.160
62.8074 10.200
62.8377 11.398
62.8680 8.898
62.8983 7.491
62.9286 6.815
62.9588 5.618
62.9891 5.202
63.0194 4.943
63.0497 3.799
63.0800 3.384
63.1102 2.866
63.1405 2.139
63.1708 2.351
63.2011 1.365
63.2313 2.202
63.2616 1.633
63.2919 0.647
63.3222 0.808
63.3525 1.022
63.3827 0.766
63.4130 0.668
63.4433 0.049
63.4736 0.524
63.5039 0.218
63.5341 0.121
63.5644 0.232
63.5947 0.292
63.6250 0.143
63.6552 -0.005
63.6855 -0.257
63.7158 0.065
63.7461 0.126
63.7764 0.656
63.8066 0.041
63.8369 -0.365
63.8672 0.166
63.8975 -0.032
63.9278 -0.177
63.9580 0.251
63.9883 0.055
64.0186 0.015
64.0489 -0.389
64.0791 0.040
64.1094 0.209
64.1397 0.170
64.1700 -0.077
64.2003 0.093
64.2305 0.055
64.2608 0.018
64.2911 -0.228
64.3214 -0.577
64.3517 0.532
64.3819 0.444
64.4122 -0.426
64.4425 -0.149
64.4728 0.389
64.5031 -0.063
64.5333 0.423
64.5636 0.389
64.5939 0.303
64.6242 0.061
64.6544 -0.337
64.6847 -0.027
64.7150 0.492
64.7453 0.178
64.7756 -0.083
64.8058 0.593
64.8361 0.072
64.8664 0.072
64.8967 -0.241
64.9270 -0.032
64.9572 0.229
64.9875 0.230
65.0178 -0.185
65.0481 0.025
65.0783 -0.598
65.1086 0.023
65.1389 0.228
65.1692 0.277
65.1995 0.013
65.2297 -0.250
65.2600 -0.004
65.2903 -0.070
65.3206 0.540
65.3509 0.110
65.3811 0.045
65.4114 0.761
65.4417 -0.137
65.4720 0.111
65.5022 0.098
65.5325 0.295
65.5628 0.023
65.5931 0.168
65.6234 -0.415
65.6536 -0.115
65.6839 0.238
65.7142 0.643
65.7445 -0.150
65.7748 -0.213
65.8050 0.141
65.8353 -0.286
65.8656 -0.035
65.8959 0.841
65.9261 0.467
65.9564 0.197
65.9867 0.189
66.0170 1.222
66.0473 0.277
66.0775 0.686
66.1078 0.522
66.1381 1.400
66.1684 0.977
66.1987 1.596
66.2289 1.173
66.2592 1.792
66.2895 0.016
66.3198 1.469
66.3500 1.829
66.3803 1.356
66.4106 0.518
66.4409 0.775
66.4712 0.980
66.5014 0.664
66.5317 0.401
66.5620 0.971
66.5923 1.230
66.6226 0.499
66.6528 -0.180
66.6831 -0.285
66.7134 0.016
66.7437 0.005
66.7739 0.723
66.8042 0.660
66.8345 0.286
66.8648 0.067
66.8951 -0.151
66.9253 0.621
66.9556 -0.012
66.9859 -0.177
67.0162 -0.290
67.0465 0.848
67.0767 0.528
67.1070 0.729
67.1373 0.149
67.1676 0.247
67.1978 0.657
67.2281 0.807
67.2584 0.385
67.2887 0.588
67.3190 0.739
67.3492 0.891
67.3795 1.928
67.4098 1.612
67.4401 1.452
67.4704 1.761
67.5006 2.487
67.5309 2.276
67.5612 3.263
67.5915 4.302
67.6218 3.467
67.6520 4.560
67.6823 5.027
67.7126 6.172
67.7429 5.547
67.7731 5.442
67.8034 5.599
67.8337 7.787
67.8640 7.319
67.8943 6.018
67.9245 5.551
67.9548 5.396
67.9851 5.659
68.0154 5.505
68.0457 5.560
68.0759 5.094
68.1062 4.681
68.1365 3.330
68.1668 2.761
68.1970 2.089
68.2273 1.729
68.2576 1.734
68.2879 1.843
68.3182 1.588
68.3484 1.542
68.3787 1.757
68.4090 1.503
68.4393 0.885
68.4696 1.413
68.4998 1.212
68.5301 0.960
68.5604 0.447
68.5907 0.925
68.6209 1.715
68.6512 1.255
68.6815 2.046
68.7118 1.952
68.7421 1.962
68.7723 2.233
68.8026 2.504
68.8329 3.036
68.8632 2.631
68.8935 2.538
68.9237 2.238
68.9540 3.396
68.9843 3.253
69.0146 2.641
69.0448 2.498
69.0751 2.616
69.1054 2.630
69.1357 2.644
69.1660 1.618
69.1962 1.580
69.2265 1.544
69.2568 1.299
69.2871 0.846
69.3174 1.331
69.3476 1.244
69.3779 0.688
69.4082 0.705
69.4385 0.567
69.4687 0.845
69.4990 0.342
69.5293 0.101
69.5596 0.067
69.5899 0.243
69.6201 0.158
69.6504 -0.134
69.6807 -0.114
69.7110 0.479
69.7413 -0.073
69.7715 -0.052
69.8018 0.334
69.8321 0.148
69.8624 0.535
69.8926 -0.224
69.9229 0.215
69.9532 -0.022
69.9835 -0.415
70.0138 0.066
70.0440 -0.285
70.0743 -0.024
70.1046 0.289
70.1349 -0.022
70.1652 0.031
70.1954 0.294
70.2257 0.400
70.2560 0.194
70.2863 0.093
70.3166 0.096
70.3468 0.360
70.3771 0.728
70.4074 0.367
70.4377 0.163
70.4679 0.012
70.4982 0.434
70.5285 -0.082
70.5588 0.132
70.5891 0.138
70.6193 0.144
70.6496 -0.005
70.6799 0.158
70.7102 0.009
70.7405 0.121
70.7707 0.493
70.8010 0.033
70.8313 0.250
70.8616 -0.210
70.8918 -0.097
70.9221 0.225
70.9524 0.131
70.9827 0.089
71.0130 0.777
71.0432 0.319
71.0735 0.591
71.1038 0.810
71.1341 0.041
71.1644 -0.051
71.1946 -0.195
71.2249 0.055
71.2552 0.305
71.2855 0.243
71.3157 0.077
71.3460 0.223
71.3763 0.527
71.4066 0.258
71.4369 -0.167
71.4671 0.137
71.4974 -0.131
71.5277 0.070
71.5580 -0.094
71.5883 -0.153
71.6185 -0.264
71.6488 0.407
71.6791 0.349
71.7094 -0.125
71.7396 0.234
71.7699 0.073
71.8002 0.173
71.8305 -0.144
71.8608 -0.148
71.8910 0.005
71.9213 -0.415
71.9516 0.051
71.9819 -0.003
72.0122 -0.005
72.0424 -0.007
72.0727 -0.373
72.1030 0.616
72.1333 0.146
72.1635 0.354
72.1938 0.562
72.2241 0.146
72.2544 0.772
72.2847 0.200
72.3149 0.201
72.3452 0.307
72.3755 0.100
72.4058 0.936
72.4361 0.626
72.4663 0.993
72.4966 0.215
72.5269 0.792
72.5572 0.639
72.5874 0.800
72.6177 0.335
72.6480 0.705
72.6783 0.137
72.7086 -0.118
72.7388 0.252
72.7691 0.363
72.7994 0.161
72.8297 -0.145
72.8600 0.227
72.8902 0.234
72.9205 -0.071
72.9508 -0.010
72.9811 -0.106
73.0113 0.788
73.0416 0.068
73.0719 0.285
73.1022 0.243
73.1325 0.305
73.1627 -0.310
73.1930 -0.195
73.2233 0.119
73.2536 0.642
73.2839 -0.189
73.3141 0.386
73.3444 0.285
73.3747 -0.233
73.4050 -0.073
73.4353 0.243
73.4655 0.195
73.4958 -0.061
73.5261 -0.004
73.5564 0.678
73.5866 -0.046
73.6169 0.116
73.6472 0.018
73.6775 0.441
73.7078 -0.125
73.7380 0.403
73.7683 0.514
73.7986 0.418
73.8289 0.426
73.8592 -0.087
73.8894 0.495
73.9197 0.087
73.9500 0.096
73.9803 -0.206
74.0105 -0.060
74.0408 0.346
74.0711 0.233
74.1014 0.432
74.1317 0.788
74.1619 -0.002
74.1922 0.250
74.2225 0.034
74.2528 0.339
74.2831 0.123
74.3133 0.325
74.3436 0.058
74.3739 0.416
74.4042 0.150
74.4344 0.092
74.4647 0.191
74.4950 -0.127
74.5253 -0.131
74.5556 -0.032
74.5858 -0.036
74.6161 0.169
74.6464 -0.043
74.6767 -0.046
74.7070 0.108
74.7372 0.783
74.7675 0.676
74.7978 0.154
74.8281 -0.160
74.8583 -0.005
74.8886 -0.058
74.9189 -0.110
74.9492 0.046
74.9795 0.358
75.0097 -0.058
75.0400 0.256
75.0703 -0.108
75.1006 0.154
75.1309 0.208
75.1611 -0.311
75.1914 -0.156
75.2217 0.052
75.2520 -0.001
75.2822 -0.158
75.3125 0.311
75.3428 -0.157
75.3731 0.260
75.4034 0.209
75.4336 0.262
75.4639 0.108
75.4942 0.214
75.5245 0.372
75.5548 0.167
75.5850 -0.195
75.6153 -0.195
75.6456 -0.046
75.6759 0.260
75.7061 0.150
75.7364 0.248
75.7667 -0.174
75.7970 -0.128
75.8273 0.336
75.8575 -0.137
75.8878 0.067
75.9181 0.062
75.9484 -0.202
75.9787 -0.053
76.0089 -0.060
76.0392 -0.172
76.0695 0.447
76.0998 0.440
76.1301 0.330
76.1603 0.168
76.1906 0.267
76.2209 0.158
76.2512 0.049
76.2814 -0.268
76.3117 0.457
76.3420 -0.015
76.3723 0.085
76.4026 0.290
76.4328 0.340
76.4631 0.337
76.4934 -0.342
76.5237 0.073
76.5540 0.488
76.5842 0.591
76.6145 0.538
76.6448 0.381
76.6751 0.589
76.7053 0.485
76.7356 1.267
76.7659 1.112
76.7962 0.436
76.8265 1.270
76.8567 0.751
76.8870 0.701
76.9173 0.912
76.9476 0.758
76.9779 0.866
77.0081 0.088
77.0384 1.081
77.0687 0.408
77.0990 0.620
77.1292 0.781
77.1595 0.213
77.1898 0.219
77.2201 -0.036
77.2504 0.595
77.2806 0.549
77.3109 0.087
77.3412 0.667
77.3715 -0.264
77.4018 0.213
77.4320 -0.040
77.4623 0.489
77.4926 0.133
77.5229 0.090
77.5531 0.203
77.5834 0.265
77.6137 0.066
77.6440 0.285
77.6743 0.139
77.7045 0.306
77.7348 0.265
77.7651 0.016
77.7954 -0.441
77.8257 0.023
77.8559 0.278
77.8862 0.066
77.9165 -0.147
77.9468 0.631
77.9770 -0.206
78.0073 0.051
78.0376 0.309
78.0679 -0.162
78.0982 0.148
78.1284 0.407
78.1587 0.301
78.1890 0.352
78.2193 0.195
78.2496 0.038
78.2798 0.090
78.3101 0.299
78.3404 -0.118
78.3707 -0.013
78.4009 -0.272
78.4312 0.250
78.4615 0.252
78.4918 0.306
78.5221 -0.160
78.5523 0.155
78.5826 -0.259
78.6129 -0.102
78.6432 0.420
78.6735 -0.151
78.7037 0.059
78.7340 0.113
78.7643 0.012
78.7946 0.119
78.8248 0.122
78.8551 -0.083
78.8854 -0.079
78.9157 -0.075
78.9460 -0.019
78.9762 0.142
79.0065 0.043
79.0368 0.361
79.0671 0.106
79.0974 0.216
79.1276 0.118
79.1579 -0.031
79.1882 -0.180
79.2185 -0.187
79.2488 0.483
79.2790 0.217
79.3093 -0.258
79.3396 0.206
79.3699 0.096
79.4001 -0.065
79.4304 0.035
79.4607 -0.022
79.4910 0.391
79.5213 -0.081
79.5515 0.124
79.5818 0.329
79.6121 0.223
79.6424 -0.196
79.6727 0.323
79.7029 -0.356
79.7332 0.424
79.7635 0.319
79.7938 0.214
79.8240 -0.151
79.8543 0.057
79.8846 -0.046
79.9149 0.319
79.9452 0.424
79.9754 0.061
80.0057 0.427
80.0360 0.116
80.0663 0.327
80.0966 0.225
80.1268 0.280
80.1571 0.179
80.1874 0.235
80.2177 0.343
80.2479 -0.226
80.2782 0.560
80.3085 0.305
80.3388 0.153
80.3691 0.055
80.3993 0.113
80.4296 0.015
80.4599 0.125
80.4902 -0.285
80.5205 -0.087
80.5507 0.683
80.5810 -0.004
80.6113 0.142
80.6416 -0.128
80.6718 0.227
80.7021 0.322
80.7324 0.314
80.7627 -0.216
80.7930 0.297
80.8232 0.758
80.8535 0.230
80.8838 0.014
80.9141 -0.044
80.9444 -0.103
80.9746 0.151
81.0049 0.093
81.0352 0.244
81.0655 0.187
81.0957 0.286
81.1260 0.021
81.1563 0.225
81.1866 0.534
81.2169 0.687
81.2471 0.163
81.2774 0.472
81.3077 0.730
81.3380 0.520
81.3683 0.518
81.3985 0.204
81.4288 0.202
81.4591 0.305
81.4894 0.096
81.5196 0.200
81.5499 0.200
81.5802 0.409
81.6105 0.253
81.6408 0.150
81.6710 -0.057
81.7013 -0.003
81.7316 -0.262
81.7619 0.262
81.7922 -0.048
81.8224 -0.202
81.8527 -0.096
81.8830 -0.095
81.9133 -0.041
81.9436 -0.143
81.9738 0.224
82.0041 -0.137
82.0344 0.283
82.0647 -0.287
82.0949 0.134
82.1252 0.242
82.1555 0.142
82.1858 0.251
82.2161 -0.264
82.2463 -0.051
82.2766 -0.149
82.3069 -0.195
82.3372 0.123
82.3675 -0.235
82.3977 0.083
82.4280 -0.170
82.4583 0.045
82.4886 -0.052
82.5188 0.268
82.5491 -0.141
82.5794 0.024
82.6097 -0.124
82.6400 0.250
82.6702 0.363
82.7005 0.372
82.7308 0.018
82.7611 -0.180
82.7914 -0.080
82.8216 -0.031
82.8519 0.175
82.8822 0.225
82.9125 0.222
82.9427 -0.092
82.9730 0.011
83.0033 0.166
83.0336 0.738
83.0639 -0.200
83.0941 0.060
83.1244 0.113
83.1547 -0.043
83.1850 -0.094
83.2153 0.115
83.2455 0.064
83.2758 -0.090
83.3061 0.068
83.3364 0.279
83.3666 0.178
83.3969 0.077
83.4272 -0.180
83.4575 -0.028
83.4878 -0.084
83.5180 0.017
83.5483 0.118
83.5786 -0.093
83.6089 0.113
83.6392 0.320
83.6694 0.162
83.6997 0.160
83.7300 -0.153
83.7603 0.002
83.7905 -0.259
83.8208 0.050
83.8511 0.203
83.8814 0.616
83.9117 -0.116
83.9419 0.038
83.9722 0.140
84.0025 -0.122
84.0328 -0.072
84.0631 -0.073
84.0933 -0.230
84.1236 0.290
84.1539 -0.127
84.1842 0.238
84.2144 0.082
84.2447 0.031
84.2750 -0.125
84.3053 -0.175
84.3356 -0.070
84.3658 0.297
84.3961 0.039
84.4264 -0.167
84.4567 0.253
84.4870 0.204
84.5172 -0.105
84.5475 0.368
84.5778 -0.044
84.6081 0.116
84.6383 -0.087
84.6686 0.074
84.6989 -0.233
84.7292 -0.018
84.7595 -0.168
84.7897 0.047
84.8200 0.002
84.8503 0.426
84.8806 0.486
84.9109 -0.027
84.9411 0.138
84.9714 -0.062
85.0017 -0.001
85.0320 0.165
85.0623 0.070
85.0925 -0.284
85.1228 -0.033
85.1531 -0.146
85.1834 0.522
85.2136 0.097
85.2439 0.506
85.2742 -0.126
85.3045 0.075
85.3348 0.016
85.3650 -0.095
85.3953 0.055
85.4256 0.101
85.4559 -0.061
85.4862 0.090
85.5164 0.033
85.5467 -0.076
85.5770 0.181
85.6073 0.281
85.6375 -0.192
85.6678 0.013
85.6981 0.114
85.7284 0.216
85.7587 0.370
85.7889 0.368
85.8192 0.366
85.8495 0.052
85.8798 -0.209
85.9101 0.363
85.9403 0.310
85.9706 0.258
86.0009 -0.158
86.0312 0.155
86.0614 -0.209
86.0917 0.157
86.1220 -0.206
86.1523 -0.103
86.1826 0.418
86.2128 -0.206
86.2431 -0.258
86.2734 0.368
86.3037 0.057
86.3340 -0.045
86.3642 0.009
86.3945 -0.093
86.4248 0.274
86.4551 0.069
86.4853 0.281
86.5156 -0.080
86.5459 -0.180
86.5762 0.128
86.6065 0.333
86.6367 -0.295
86.6670 0.223
86.6973 0.428
86.7276 0.374
86.7579 0.060
86.7881 0.162
86.8184 -0.047
86.8487 -0.309
86.8790 0.680
86.9092 0.055
86.9395 0.055
86.9698 0.159
87.0001 0.212
87.0304 0.005
87.0606 0.214
87.0909 0.216
87.1212 -0.303
87.1515 0.376
87.1818 0.118
87.2120 -0.087
87.2423 0.229
87.2726 -0.028
87.3029 -0.180
87.3331 -0.085
87.3634 0.428
87.3937 -0.048
87.4240 -0.160
87.4543 0.250
87.4845 0.087
87.5148 0.028
87.5451 0.126
87.5754 -0.140
87.6057 0.011
87.6359 -0.255
87.6662 0.625
87.6965 0.100
87.7268 -0.321
87.7571 0.300
87.7873 0.245
87.8176 0.033
87.8479 0.082
87.8782 0.549
87.9084 0.234
87.9387 -0.081
87.9690 0.074
87.9993 0.489
88.0296 -0.241
88.0598 -0.189
88.0901 0.071
88.1204 -0.085
88.1507 0.279
88.1810 0.384
88.2112 0.333
88.2415 0.230
88.2718 0.284
88.3021 -0.027
88.3323 -0.233
88.3626 0.070
88.3929 0.009
88.4232 -0.260
88.4535 0.096
88.4837 -0.016
88.5140 0.236
88.5443 0.125
88.5746 -0.351
88.6049 0.527
88.6351 0.208
88.6654 0.046
88.6957 0.040
88.7260 0.087
88.7562 0.185
88.7865 0.076
88.8168 0.541
88.8471 -0.089
88.8774 0.584
88.9076 0.008
88.9379 0.161
88.9682 -0.311
88.9985 -0.109
89.0288 0.145
89.0590 0.191
89.0893 0.394
89.1196 0.701
89.1499 0.332
89.1801 0.796
89.2104 1.104
89.2407 1.205
89.2710 0.472
89.3013 0.729
89.3315 1.247
89.3618 0.984
89.3921 1.034
89.4224 1.917
89.4527 1.499
89.4829 1.497
89.5132 1.600
89.5435 1.496
89.5738 1.078
89.6040 1.547
89.6343 1.391
89.6646 0.767
89.6949 1.184
89.7252 1.081
89.7554 0.875
89.7857 1.189
89.8160 0.618
89.8463 0.413
89.8766 0.520
89.9068 0.262
89.9371 0.735
89.9674 0.374
89.9977 0.326
90.0279 0.226
90.0582 0.231
90.0885 -0.024
90.1188 0.242
90.1491 0.143
90.1793 0.045
90.2096 0.833
90.2399 0.215
90.2702 0.170
90.3005 0.489
90.3307 0.549
90.3610 0.036
90.3913 -0.111
90.4216 0.106
90.4518 -0.042
90.4821 0.332
90.5124 0.342
90.5427 0.300
90.5730 0.102
90.6032 0.581
90.6335 0.019
90.6638 -0.022
90.6941 -0.010
90.7244 -0.207
90.7546 0.052
90.7849 0.154
90.8152 0.101
90.8455 0.100
90.8758 0.047
90.9060 0.151
90.9363 0.203
90.9666 0.360
90.9969 0.204
91.0271 0.309
91.0574 0.519
91.0877 -0.104
91.1180 -0.207
91.1483 0.150
91.1785 0.038
91.2088 0.603
91.2391 -0.290
91.2694 -0.089
91.2997 0.217
91.3299 0.159
91.3602 0.100
91.3905 0.251
91.4208 0.662
91.4510 0.084
91.4813 -0.077
91.5116 -0.081
91.5419 0.227
91.5722 0.067
91.6024 0.220
91.6327 0.269
91.6630 0.057
91.6933 -0.153
91.7236 0.209
91.7538 0.207
91.7841 0.101
91.8144 -0.212
91.8447 0.099
91.8749 -0.110
91.9052 -0.006
91.9355 -0.162
91.9658 0.203
91.9961 0.464
92.0263 -0.264
92.0566 0.362
92.0869 -0.157
92.1172 -0.050
92.1475 0.056
92.1777 -0.202
92.2080 -0.364
92.2383 0.411
92.2686 0.249
92.2988 -0.172
92.3291 0.552
92.3594 0.287
92.3897 0.751
92.4200 0.435
92.4502 0.223
92.4805 0.168
92.5108 0.581
92.5411 0.527
92.5714 0.629
92.6016 0.158
92.6319 0.260
92.6622 0.051
92.6925 0.258
92.7227 0.726
92.7530 0.413
92.7833 0.934
92.8136 0.153
92.8439 0.362
92.8741 0.155
92.9044 0.364
92.9347 0.314
92.9650 0.576
92.9953 0.630
93.0255 -0.305
93.0558 0.323
93.0861 0.326
93.1164 -0.087
93.1466 -0.187
93.1769 0.546
93.2072 0.342
93.2375 0.295
93.2678 0.040
93.2980 -0.059
93.3283 -0.053
93.3586 -0.047
93.3889 0.168
93.4192 0.227
93.4494 0.129
93.4797 0.085
93.5100 -0.012
93.5403 0.153
93.5706 0.057
93.6008 -0.195
93.6311 -0.195
93.6614 0.167
93.6917 0.217
93.7219 0.372
93.7522 0.370
93.7825 0.057
93.8128 0.056
93.8431 -0.153
93.8733 0.107
93.9036 0.264
93.9339 0.004
93.9642 0.265
93.9945 -0.046
94.0247 0.372
94.0550 0.634
94.0853 0.011
94.1156 -0.195
94.1458 -0.050
94.1761 0.251
94.2064 0.135
94.2367 0.177
94.2670 -0.042
94.2972 -0.053
94.3275 0.250
94.3578 0.293
94.3881 0.596
94.4184 0.222
94.4486 0.058
94.4789 0.206
94.5092 0.354
94.5395 0.190
94.5697 0.235
94.6000 0.593
94.6303 0.378
94.6606 0.684
94.6909 0.261
94.7211 0.568
94.7514 0.146
94.7817 0.610
94.8120 0.293
94.8423 0.132
94.8725 0.284
94.9028 0.697
94.9331 0.746
94.9634 0.534
94.9936 1.157
95.0239 0.685
95.0542 0.683
95.0845 1.307
95.1148 1.253
95.1450 0.991
95.1753 1.459
95.2056 1.094
95.2359 1.094
95.2662 1.094
95.2964 1.355
95.3267 1.304
95.3570 1.305
95.3873 1.150
95.4175 1.256
95.4478 1.102
95.4781 0.844
95.5084 0.847
95.5387 0.694
95.5689 1.218
95.5992 0.388
95.6295 0.340
95.6598 0.657
95.6901 0.141
95.7203 0.458
95.7506 1.037
95.7809 0.626
95.8112 0.475
95.8414 0.586
95.8717 0.124
95.9020 0.235
95.9323 0.242
95.9626 0.250
95.9928 0.101
96.0231 0.162
96.0534 0.431
96.0837 -0.029
96.1140 0.084
96.1442 0.042
96.1745 -0.105
96.2048 0.270
96.2351 0.333
96.2653 0.083
96.2956 0.303
96.3259 -0.259
96.3562 -0.195
96.3865 -0.088
96.4167 0.124
96.4470 -0.028
96.4773 -0.076
96.5076 -0.072
96.5379 0.350
96.5681 0.146
96.5984 0.621
96.6287 0.053
96.6590 0.164
96.6893 0.066
96.7195 -0.188
96.7498 -0.141
96.7801 0.062
96.8104 0.317
96.8406 0.312
96.8709 0.360
96.9012 -0.165
96.9315 0.144
96.9618 -0.016
96.9920 0.606
97.0223 0.083
97.0526 0.028
97.0829 -0.130
97.1132 -0.184
97.1434 -0.029
97.1737 0.022
97.2040 0.333
97.2343 -0.032
97.2645 0.229
97.2948 0.177
97.3251 0.229
97.3554 0.334
97.3857 0.179
97.4159 -0.132
97.4462 0.339
97.4765 -0.441
97.5068 -0.126
97.5371 0.346
97.5673 -0.068
97.5976 0.509
97.6279 0.148
97.6582 0.308
97.6884 0.156
97.7187 0.109
97.7490 0.114
97.7793 0.067
97.8096 -0.188
97.8398 -0.042
97.8701 -0.417
97.9004 0.614
97.9307 0.188
97.9610 0.387
97.9912 0.326
98.0215 0.161
98.0518 0.621
98.0821 0.457
98.1123 0.449
98.1426 0.806
98.1729 0.695
98.2032 0.740
98.2335 0.786
98.2637 0.207
98.2940 0.514
98.3243 0.508
98.3546 0.763
98.3849 0.915
98.4151 0.650
98.4454 1.323
98.4757 0.798
98.5060 0.326
98.5362 0.583
98.5665 0.892
98.5968 1.098
98.6271 0.575
98.6574 0.365
98.6876 0.884
98.7179 0.726
98.7482 0.778
98.7785 0.308
98.8088 0.308
98.8390 0.256
98.8693 0.256
98.8996 0.257
98.9299 0.779
98.9601 -0.001
98.9904 0.677
99.0207 0.158
99.0510 0.056
99.0813 0.372
99.1115 0.322
99.1418 0.534
99.1721 0.121
99.2024 -0.084
99.2327 0.233
99.2629 0.498
99.2932 -0.018
99.3235 0.300
99.3538 -0.111
99.3841 0.051
99.4143 0.161
99.4446 0.376
99.4749 0.018
99.5052 0.442
99.5354 0.085
99.5657 0.457
99.5960 0.100
99.6263 -0.360
99.6566 0.170
99.6868 0.127
99.7171 0.344
99.7474 0.042
99.7777 -0.105
99.8080 0.166
99.8382 -0.188
99.8685 -0.135
99.8988 0.283
99.9291 0.128
99.9593 0.286
99.9896 0.236
100.0199 0.290
100.0502 0.397
100.0805 0.244
100.1107 0.247
100.1410 -0.009
100.1713 0.203
100.2016 -0.313
100.2319 0.472
100.2621 0.165
100.2924 -0.038
100.3227 0.072
100.3530 0.598
100.3832 0.188
100.4135 0.247
100.4438 0.149
100.4741 0.053
100.5044 0.164
100.5346 0.537
100.5649 0.545
100.5952 0.449
100.6255 0.041
100.6558 0.311
100.6860 0.112
100.7163 -0.034
100.7466 -0.232
100.7769 0.068
100.8071 0.161
100.8374 0.149
100.8677 0.086
100.8980 0.388
100.9283 0.170
100.9585 0.003
100.9888 0.410
101.0191 0.349
101.0494 0.080
101.0797 -0.033
101.1099 0.479
101.1402 0.159
101.1705 0.203
101.2008 0.039
101.2310 0.241
101.2613 -0.183
101.2916 0.540
101.3219 -0.195
101.3522 0.059
101.3824 -0.155
101.4127 -0.108
101.4430 0.513
101.4733 0.404
101.5036 -0.121
101.5338 0.083
101.5641 -0.128
101.5944 -0.027
101.6247 0.178
101.6549 0.071
101.6852 0.173
101.7155 -0.037
101.7458 -0.195
101.7761 0.059
101.8063 0.418
101.8366 0.413
101.8669 0.199
101.8972 -0.014
101.9275 0.294
101.9577 -0.179
101.9880 0.026
102.0183 0.075
102.0486 0.280
102.0788 0.173
102.1091 0.431
102.1394 0.168
102.1697 0.791
102.2000 0.217
102.2302 -0.149
102.2605 -0.150
102.2908 0.058
102.3211 -0.047
102.3514 0.422
102.3816 -0.046
102.4119 -0.202
102.4422 -0.113
102.4725 0.185
102.5028 0.327
102.5330 -0.208
102.5633 0.352
102.5936 0.078
102.6239 0.273
102.6541 0.521
102.6844 0.561
102.7147 0.340
102.7450 1.162
102.7753 0.890
102.8055 0.827
102.8358 0.295
102.8661 0.754
102.8964 -0.038
102.9267 0.473
102.9569 0.151
102.9872 0.090
103.0175 0.133
103.0478 0.229
103.0780 0.117
103.1083 0.473
103.1386 -0.107
103.1689 0.198
103.1992 0.139
103.2294 0.602
103.2597 0.335
103.2900 -0.088
103.3203 0.115
103.3506 0.058
103.3808 -0.156
103.4111 -0.056
103.4414 -0.060
103.4717 0.300
103.5019 0.453
103.5322 0.345
103.5625 0.603
103.5928 -0.077
103.6231 -0.027
103.6533 0.544
103.6836 -0.187
103.7139 1.062
103.7442 0.488
103.7745 0.591
103.8047 0.226
103.8350 0.226
103.8653 0.539
103.8956 0.070
103.9258 1.998
103.9561 0.958
103.9864 1.168
104.0167 1.378
104.0470 1.016
104.0772 0.810
104.1075 0.813
104.1378 0.972
104.1681 1.028
104.1984 0.354
104.2286 0.723
104.2589 0.675
104.2892 0.784
104.3195 0.633
104.3497 0.795
104.3800 0.384
104.4103 0.077
104.4406 0.136
104.4709 0.351
104.5011 0.723
104.5314 0.209
104.5617 0.217
104.5920 -0.036
104.6223 0.025
104.6525 0.398
104.6828 0.199
104.7131 0.052
104.7434 0.113
104.7736 0.175
104.8039 0.134
104.8342 -0.168
104.8645 0.311
104.8948 0.114
104.9250 0.282
104.9553 -0.175
104.9856 -0.215
105.0159 -0.150
105.0462 -0.032
105.0764 0.190
105.1067 -0.005
105.1370 0.113
105.1673 -0.445
105.1975 -0.013
105.2278 -0.207
105.2581 0.045
105.2884 -0.067
105.3187 -0.127
105.3489 0.021
105.3792 -0.038
105.4095 0.111
105.4398 0.469
105.4701 0.307
105.5003 0.144
105.5306 0.087
105.5609 -0.231
105.5912 0.180
105.6215 -0.137
105.6517 0.015
105.6820 0.063
105.7123 0.268
105.7426 -0.256
105.7728 0.157
105.8031 0.102
105.8334 -0.108
105.8637 -0.215
105.8940 -0.216
105.9242 0.356
105.9545 0.095
105.9848 -0.218
106.0151 -0.010
106.0454 0.147
106.0756 -0.009
106.1059 0.149
106.1362 -0.215
106.1665 -0.321
106.1967 0.564
106.2270 -0.114
106.2573 0.093
106.2876 -0.063
106.3179 0.093
106.3481 -0.063
106.3784 0.094
106.4087 0.095
106.4390 -0.060
106.4693 -0.215
106.4995 0.097
106.5298 -0.163
106.5601 -0.059
106.5904 -0.215
106.6206 -0.062
106.6509 -0.274
106.6812 0.140
106.7115 0.033
106.7418 -0.177
106.7720 0.342
106.8023 0.132
106.8326 -0.130
106.8629 0.234
106.8932 0.077
106.9234 0.233
106.9537 -0.236
106.9840 0.129
107.0143 -0.027
107.0445 -0.026
107.0748 -0.233
107.1051 0.078
107.1354 -0.184
107.1657 0.335
107.1959 0.126
107.2262 -0.031
107.2565 -0.083
107.2868 -0.031
107.3171 -0.031
107.3473 0.542
107.3776 0.179
107.4079 0.232
107.4382 0.025
107.4684 -0.181
107.4987 -0.231
107.5290 0.553
107.5593 0.139
107.5896 -0.066
107.6198 0.042
107.6501 -0.215
107.6804 -0.114
107.7107 -0.065
107.7410 0.141
107.7712 -0.174
107.8015 -0.072
107.8318 0.291
107.8621 0.185
107.8923 -0.128
107.9226 -0.181
107.9529 0.287
107.9832 0.131
108.0135 0.131
108.0437 -0.337
108.0740 0.445
108.1043 -0.127
108.1346 -0.125
108.1649 -0.176
108.1951 -0.174
108.2254 0.194
108.2557 -0.064
108.2860 0.356
108.3163 -0.110
108.3465 -0.106
108.3768 0.315
108.4071 -0.097
108.4374 0.116
108.4676 0.121
108.4979 0.074
108.5282 -0.389
108.5585 -0.031
108.5888 -0.194
108.6190 -0.149
108.6493 0.314
108.6796 0.361
108.7099 0.199
108.7402 -0.119
108.7704 0.085
108.8007 -0.128
108.8310 0.337
108.8613 -0.188
108.8915 -0.191
108.9218 -0.090
108.9521 -0.197
108.9824 0.061
109.0127 -0.097
109.0429 0.057
109.0732 0.264
109.1035 -0.206
109.1338 0.158
109.1641 -0.155
109.1943 0.418
109.2246 0.001
109.2549 -0.311
109.2852 0.047
109.3154 -0.012
109.3457 0.294
109.3760 0.392
109.4063 0.387
109.4366 -0.192
109.4668 -0.145
109.4971 0.424
109.5274 0.159
109.5577 -0.106
109.5880 -0.057
109.6182 -0.113
109.6485 0.301
109.6788 -0.275
109.7091 0.556
109.7393 0.502
109.7696 -0.177
109.7999 -0.126
109.8302 0.237
109.8605 -0.024
109.8907 0.288
109.9210 0.027
109.9513 -0.337
109.9816 0.022
110.0119 0.485
110.0421 0.219
110.0724 0.735
110.1027 0.522
110.1330 0.205
110.1632 0.358
110.1935 0.458
110.2238 0.559
110.2541 0.660
110.2844 0.345
110.3146 0.447
110.3449 0.185
110.3752 0.339
110.4055 0.390
110.4358 0.649
110.4660 0.076
110.4963 -0.289
110.5266 0.544
110.5569 0.232
110.5871 0.389
110.6174 0.285
110.6477 0.234
110.6780 0.392
110.7083 0.186
110.7385 0.292
110.7688 0.347
110.7991 0.662
110.8294 0.196
110.8597 -0.008
110.8899 0.256
110.9202 -0.209
110.9505 -0.048
110.9808 0.321
111.0110 0.431
111.0413 -0.189
111.0716 -0.079
111.1019 -0.021
111.1322 0.194
111.1624 -0.216
111.1927 0.104
111.2230 0.267
111.2533 0.119
111.2836 0.127
111.3138 -0.178
111.3441 -0.221
111.3744 -0.118
111.4047 -0.068
111.4350 -0.173
111.4652 0.399
111.4955 0.087
111.5258 0.243
111.5561 -0.069
111.5863 0.192
111.6166 -0.016
111.6469 -0.119
111.6772 0.300
111.7075 0.041
111.7377 -0.165
111.7680 0.306
111.7983 -0.107
111.8286 0.260
111.8589 0.212
111.8891 0.164
111.9194 -0.197
111.9497 -0.140
111.9800 0.125
112.0102 -0.234
112.0405 0.084
112.0708 0.037
112.1011 0.460
112.1314 0.258
112.1616 0.005
112.1919 0.272
112.2222 0.227
112.2525 0.287
112.2828 0.035
112.3130 -0.009
112.3433 -0.208
112.3736 -0.056
112.4039 -0.060
112.4341 0.145
112.4644 0.090
112.4947 0.087
112.5250 0.085
112.5553 0.552
112.5855 0.394
112.6158 0.184
112.6461 0.131
112.6764 -0.130
112.7067 -0.183
112.7369 0.130
112.7672 0.026
112.7975 0.078
112.8278 0.756
112.8580 -0.024
112.8883 0.551
112.9186 0.448
112.9489 0.555
112.9792 -0.016
113.0094 0.195
113.0397 0.147
113.0700 0.098
113.1003 0.154
113.1306 -0.259
113.1608 -0.098
113.1911 0.167
113.2214 -0.036
113.2517 0.230
113.2819 -0.285
113.3122 -0.191
113.3425 0.267
113.3728 0.153
113.4031 -0.013
113.4333 0.029
113.4636 0.333
113.4939 0.012
113.5242 0.576
113.5545 0.151
113.5847 0.144
113.6150 0.032
113.6453 0.129
113.6756 0.278
113.7058 -0.197
113.7361 0.214
113.7664 0.364
113.7967 -0.058
113.8270 -0.168
113.8572 -0.068
113.8875 0.240
113.9178 -0.025
113.9481 0.075
113.9784 -0.189
114.0086 0.121
114.0389 0.222
114.0692 -0.198
114.0995 0.008
114.1298 0.215
114.1600 0.005
114.1903 0.160
114.2206 0.211
114.2509 -0.050
114.2811 -0.103
114.3114 -0.259
114.3417 0.154
114.3720 0.619
114.4023 -0.217
114.4325 -0.116
114.4628 -0.119
114.4931 -0.121
114.5234 -0.227
114.5537 0.128
114.5839 0.172
114.6142 0.215
114.6445 -0.001
114.6748 0.303
114.7050 -0.173
114.7353 -0.441
114.7656 0.281
114.7959 -0.090
114.8262 0.060
114.8564 -0.310
114.8867 0.517
114.9170 -0.217
114.9473 0.091
114.9776 0.607
115.0078 0.290
115.0381 -0.183
115.0684 -0.239
115.0987 0.061
115.1289 0.100
115.1592 -0.121
115.1895 0.231
115.2198 -0.353
115.2501 0.052
115.2803 0.405
115.3106 0.134
115.3409 0.383
115.3712 -0.408
115.4015 0.051
115.4317 -0.271
115.4620 0.136
115.4923 0.127
115.5226 0.274
115.5528 0.006
115.5831 -0.211
115.6134 0.928
115.6437 0.087
115.6740 0.184
115.7042 0.386
115.7345 1.056
115.7648 0.477
115.7951 0.471
115.8254 0.674
115.8556 0.565
115.8859 0.196
115.9162 0.139
115.9465 0.864
115.9767 0.496
116.0070 1.378
116.0373 1.010
116.0676 0.747
116.0979 0.796
116.1281 0.846
116.1584 0.896
116.1887 0.270
116.2190 0.633
116.2493 1.257
116.2795 0.423
116.3098 0.892
116.3401 1.048
116.3704 1.049
116.4006 1.414
116.4309 0.269
116.4612 0.948
116.4915 0.585
116.5218 0.274
116.5520 0.329
116.5823 0.956
116.6126 0.647
116.6429 0.598
116.6732 0.497
116.7034 1.022
116.7337 0.401
116.7640 0.094
116.7943 -0.006
116.8245 0.677
116.8548 0.318
116.8851 -0.249
116.9154 0.538
116.9457 -0.132
116.9759 -0.230
117.0062 0.038
117.0365 -0.423
117.0668 0.470
117.0971 -0.355
117.1273 -0.139
117.1576 0.079
117.1879 0.140
117.2182 -0.111
117.2485 0.107
117.2787 -0.768
117.3090 0.023
117.3393 -0.122
117.3696 -0.163
117.3998 -0.152
117.4301 -0.244
117.4604 0.127
117.4907 0.706
117.5210 0.401
117.5512 -0.321
117.5815 -0.001
117.6118 0.112
117.6421 0.068
117.6724 -0.184
117.7026 0.138
117.7329 -0.166
117.7632 0.365
117.7935 -0.354
117.8237 0.021
117.8540 -0.333
117.8843 0.042
117.9146 -0.051
117.9449 0.013
117.9751 0.025
118.0054 0.297
118.0357 0.310
118.0660 0.375
118.0963 -0.601
118.1265 0.245
118.1568 0.207
118.1871 -0.091
118.2174 -0.233
118.2476 0.127
118.2779 0.123
118.3082 0.275
118.3385 -0.145
118.3688 0.008
118.3990 -0.203
118.4293 0.367
118.4596 0.052
118.4899 0.311
118.5202 -0.108
118.5504 -0.109
118.5807 0.098
118.6110 0.202
118.6413 0.253
118.6715 -0.111
118.7018 -0.111
118.7321 0.150
118.7624 -0.161
118.7927 0.048
118.8229 0.518
118.8532 0.104
118.8835 0.158
118.9138 0.629
118.9441 0.007
118.9743 0.219
119.0046 -0.038
119.0349 0.070
119.0652 -0.030
119.0954 0.026
119.1257 0.187
119.1560 -0.068
119.1863 -0.010
119.2166 -0.005
119.2468 -0.415
119.2771 0.058
119.3074 0.428
119.3377 0.329
119.3680 0.439
119.3982 0.081
119.4285 0.452
119.4588 -0.115
119.4891 -0.056
119.5193 -0.048
119.5496 0.376
119.5799 -0.033
119.6102 -0.285
119.6405 0.064
119.6707 0.569
119.7010 0.501
119.7313 0.017
119.7616 0.367
119.7919 0.196
119.8221 0.026
119.8524 0.064
119.8827 0.103
119.9130 0.558
119.9433 0.025
119.9735 0.116
120.0038 0.000
