'Id: "" Comment: "" Operator: "Lab Manager" Anode: "Cu" Scantype: "Locked Coupled" TimePerStep: "19.2" X: "9999" Y: "9999" Z: "9999" 
10.0015 0.000
10.0318 -0.807
10.0620 -0.044
10.0923 0.459
10.1226 -0.445
10.1529 -0.442
10.1832 0.368
10.2134 -0.020
10.2437 0.165
10.2740 0.299
10.3043 0.433
10.3346 0.567
10.3648 -0.028
10.3951 -0.258
10.4254 -0.123
10.4557 0.897
10.4859 -0.582
10.5162 -0.030
10.5465 0.575
10.5768 0.190
10.6071 -0.767
10.6373 0.202
10.6676 -0.442
10.6979 -0.161
10.7282 0.537
10.7585 0.194
10.7887 0.788
10.8190 -0.024
10.8493 -0.158
10.8796 0.073
10.9098 0.147
10.9401 0.170
10.9704 0.349
11.0007 0.633
11.0310 0.448
11.0612 -0.049
11.0915 -0.390
11.1218 0.075
11.1521 0.956
11.1824 0.431
11.2126 0.167
11.2429 0.320
11.2732 -0.516
11.3035 0.210
11.3337 -0.209
11.3640 1.195
11.3943 -0.526
11.4246 0.045
11.4549 0.200
11.4851 0.042
11.5154 0.458
11.5457 0.145
11.5760 0.613
11.6063 0.144
11.6365 0.300
11.6668 0.196
11.6971 0.197
11.7274 0.198
11.7577 0.355
11.7879 0.252
11.8182 0.045
11.8485 0.099
11.8788 1.091
11.9090 0.260
11.9393 0.054
11.9696 0.317
11.9999 0.425
12.0302 0.793
12.0604 1.005
12.0907 0.123
12.1210 -0.394
12.1513 0.288
12.1816 0.918
12.2118 0.662
12.2421 0.355
12.2724 0.204
12.3027 0.731
12.3329 0.424
12.3632 -0.143
12.3935 0.229
12.4238 -0.494
12.4541 -0.180
12.4843 -0.021
12.5146 1.023
12.5449 0.296
12.5752 0.038
12.6055 0.614
12.6357 0.566
12.6660 1.351
12.6963 0.052
12.7266 1.046
12.7568 0.113
12.7871 -0.195
12.8174 0.539
12.8477 0.023
12.8780 -0.440
12.9082 0.555
12.9385 0.040
12.9688 -0.526
12.9991 0.470
13.0294 -0.097
13.0596 0.744
13.0899 0.230
13.1202 0.654
13.1505 0.141
13.1807 -0.320
13.2110 0.105
13.2413 0.635
13.2716 -0.294
13.3019 0.080
13.3321 0.401
13.3624 0.307
13.3927 1.150
13.4230 -0.923
13.4533 0.285
13.4835 0.400
13.5138 0.359
13.5441 0.682
13.5744 0.954
13.6046 0.757
13.6349 -0.845
13.6652 -0.365
13.6955 0.356
13.7258 0.087
13.7560 0.547
13.7863 -0.503
13.8166 0.219
13.8469 1.409
13.8772 1.193
13.9074 -0.220
13.9377 -0.018
13.9680 -0.181
13.9983 0.854
14.0285 0.015
14.0588 0.322
14.0891 0.472
14.1194 -0.262
14.1497 0.410
14.1799 -0.532
14.2102 0.036
14.2405 0.813
14.2708 -0.232
14.3011 0.181
14.3313 -0.187
14.3616 0.591
14.3919 -0.037
14.4222 0.064
14.4524 0.114
14.4827 0.685
14.5130 -1.140
14.5433 0.473
14.5736 0.576
14.6038 0.002
14.6341 0.001
14.6644 -0.521
14.6947 0.104
14.7250 -0.417
14.7552 0.365
14.7855 -0.260
14.8158 -0.155
14.8461 0.523
14.8764 0.472
14.9066 -0.256
14.9369 -0.045
14.9672 -0.252
14.9975 0.792
15.0277 -0.143
15.0580 -0.400
15.0883 0.384
15.1186 0.231
15.1489 0.078
15.1791 0.759
15.2094 0.294
15.2397 0.403
15.2700 0.251
15.3003 0.048
15.3305 -0.937
15.3608 0.003
15.3911 -0.359
15.4214 0.528
15.4516 -0.302
15.4819 0.326
15.5122 -0.088
15.5425 -0.032
15.5728 0.336
15.6030 0.653
15.6333 0.397
15.6636 0.297
15.6939 0.146
15.7242 -0.214
15.7544 -0.312
15.7847 0.526
15.8150 -0.353
15.8453 -0.139
15.8755 0.076
15.9058 -0.386
15.9361 0.454
15.9664 0.149
15.9967 -0.365
16.0269 -0.161
16.0572 -0.062
16.0875 0.507
16.1178 0.867
16.1481 0.499
16.1783 -0.182
16.2086 -0.185
16.2389 0.176
16.2692 -0.035
16.2994 -0.506
16.3297 0.221
16.3600 -0.250
16.3903 0.529
16.4206 0.163
16.4508 0.005
16.4811 0.213
16.5114 -0.673
16.5417 0.941
16.5720 0.367
16.6022 0.003
16.6325 -0.153
16.6628 -0.725
16.6931 0.942
16.7233 0.162
16.7536 -0.306
16.7839 1.102
16.8142 0.166
16.8445 -0.144
16.8747 0.067
16.9050 0.694
16.9353 0.124
16.9656 0.023
16.9959 -0.078
17.0261 0.447
17.0564 -0.278
17.0867 0.299
17.1170 -0.062
17.1472 0.204
17.1775 -0.104
17.2078 0.318
17.2381 -0.146
17.2684 0.433
17.2986 0.127
17.3289 0.237
17.3592 0.400
17.3895 0.719
17.4198 0.309
17.4500 1.514
17.4803 0.272
17.5106 0.176
17.5409 0.548
17.5712 -0.016
17.6014 0.409
17.6317 -0.676
17.6620 -0.357
17.6923 -0.150
17.7225 0.578
17.7528 0.161
17.7831 0.316
17.8134 0.056
17.8437 -0.413
17.8739 0.837
17.9042 -0.308
17.9345 0.318
17.9648 0.735
17.9951 0.945
18.0253 -0.095
18.0556 0.636
18.0859 -0.039
18.1162 0.119
18.1464 -0.190
18.1767 -0.188
18.2070 0.180
18.2373 -0.233
18.2676 -0.178
18.2978 0.191
18.3281 0.195
18.3584 0.564
18.3887 0.048
18.4190 0.678
18.4492 -0.359
18.4795 -0.353
18.5098 0.324
18.5401 -0.144
18.5703 -0.612
18.6006 0.951
18.6309 0.380
18.6612 -0.452
18.6915 -0.190
18.7217 0.437
18.7520 -0.186
18.7823 0.338
18.8126 0.289
18.8429 -0.125
18.8731 0.295
18.9034 0.142
18.9337 0.407
18.9640 0.359
18.9942 0.415
19.0245 0.003
19.0548 0.477
19.0851 0.013
19.1154 -0.867
19.1456 0.233
19.1759 0.082
19.2062 -0.016
19.2365 -0.217
19.2668 0.518
19.2970 0.734
19.3273 1.158
19.3576 0.436
19.3879 0.444
19.4181 0.191
19.4484 0.668
19.4787 0.000
19.5090 0.946
19.5393 -0.659
19.5695 -0.806
19.5998 0.700
19.6301 0.019
19.6604 0.016
19.6907 -0.196
19.7209 1.468
19.7512 -0.254
19.7815 0.629
19.8118 0.002
19.8420 0.000
19.8723 0.155
19.9026 1.039
19.9329 0.673
19.9632 -0.734
19.9934 -0.162
20.0237 0.202
20.0540 0.827
20.0843 -0.423
20.1146 -0.110
20.1448 -0.265
20.1751 -0.004
20.2054 -0.211
20.2357 0.207
20.2659 -0.104
20.2962 0.106
20.3265 -0.048
20.3568 0.059
20.3871 0.426
20.4173 0.117
20.4476 -0.193
20.4779 -0.085
20.5082 0.283
20.5385 -0.546
20.5687 -0.239
20.5990 0.277
20.6293 0.116
20.6596 0.372
20.6899 -0.206
20.7201 0.467
20.7504 -0.005
20.7807 -0.061
20.8110 0.196
20.8412 0.766
20.8715 -0.799
20.9018 0.032
20.9321 -0.179
20.9624 0.496
20.9926 -0.078
21.0229 -0.080
21.0532 0.127
21.0835 -0.759
21.1138 0.646
21.1440 0.177
21.1743 1.219
21.2046 -0.448
21.2349 0.334
21.2651 -0.082
21.2954 0.127
21.3257 0.805
21.3560 0.129
21.3863 0.131
21.4165 -0.492
21.4468 0.239
21.4771 0.242
21.5074 0.453
21.5377 -0.326
21.5679 0.042
21.5982 0.045
21.6285 0.205
21.6588 -0.572
21.6890 -0.152
21.7193 -0.826
21.7496 0.480
21.7799 0.900
21.8102 0.435
21.8404 -0.394
21.8707 0.184
21.9010 -0.072
21.9313 -0.171
21.9616 0.251
21.9918 -0.004
22.0221 0.263
22.0524 0.425
22.0827 -0.194
22.1129 0.438
22.1432 0.132
22.1735 -0.121
22.2038 0.512
22.2341 0.103
22.2643 0.058
22.2946 -0.090
22.3249 0.544
22.3552 1.125
22.3855 -0.272
22.4157 -0.106
22.4460 0.580
22.4763 -0.295
22.5066 -0.650
22.5368 0.341
22.5671 0.604
22.5974 -0.280
22.6277 -0.329
22.6580 0.132
22.6882 0.176
22.7185 0.325
22.7488 -0.203
22.7791 0.363
22.8094 0.305
22.8396 1.444
22.8699 0.501
22.9002 0.078
22.9305 0.229
22.9607 -0.297
22.9910 -0.198
23.0213 0.006
23.0516 0.054
23.0819 0.362
23.1121 0.046
23.1424 0.459
23.1727 0.872
23.2030 0.140
23.2333 -0.020
23.2635 -0.126
23.2938 0.236
23.3241 0.025
23.3544 0.180
23.3846 -0.395
23.4149 0.281
23.4452 0.801
23.4755 0.175
23.5058 0.695
23.5360 0.539
23.5663 -0.295
23.5966 0.331
23.6269 -0.190
23.6572 0.176
23.6874 0.489
23.7177 -1.124
23.7480 0.752
23.7783 -0.079
23.8086 -0.338
23.8388 0.078
23.8691 0.651
23.8994 -0.652
23.9297 0.442
23.9599 0.442
23.9902 0.078
24.0205 0.027
24.0508 0.184
24.0811 -0.231
24.1113 -0.750
24.1416 0.398
24.1719 -0.173
24.2022 -0.171
24.2325 0.405
24.2627 0.407
24.2930 0.254
24.3233 0.258
24.3536 0.522
24.3838 0.213
24.4141 0.009
24.4444 -0.247
24.4747 0.435
24.5050 0.179
24.5352 0.341
24.5655 0.711
24.5958 0.977
24.6261 0.358
24.6564 0.052
24.6866 -0.306
24.7169 0.221
24.7472 -0.084
24.7775 -0.390
24.8077 0.123
24.8380 0.480
24.8683 -0.517
24.8986 -0.003
24.9289 0.302
24.9591 0.348
24.9894 0.446
25.0197 -0.081
25.0500 -0.139
25.0803 0.168
25.1105 -0.306
25.1408 -0.468
25.1711 0.359
25.2014 0.561
25.2316 1.128
25.2619 0.497
25.2922 -0.602
25.3225 0.434
25.3528 -0.248
25.3830 -0.669
25.4133 0.472
25.4436 -0.626
25.4739 0.777
25.5042 0.356
25.5344 1.082
25.5647 -0.223
25.5950 0.295
25.6253 -0.229
25.6555 -0.023
25.6858 -0.390
25.7161 0.286
25.7464 0.753
25.7767 0.179
25.8069 -0.291
25.8372 -0.084
25.8675 0.905
25.8978 -0.658
25.9281 0.280
25.9583 -0.241
25.9886 0.124
26.0189 -0.135
26.0492 -0.134
26.0794 -0.342
26.1097 -0.134
26.1400 0.177
26.1703 -0.240
26.2006 -0.397
26.2308 0.593
26.2611 -0.188
26.2914 0.281
26.3217 0.125
26.3520 0.387
26.3822 -0.185
26.4125 0.754
26.4428 -0.338
26.4731 -0.024
26.5034 -0.178
26.5336 0.554
26.5639 0.088
26.5942 0.507
26.6245 0.094
26.6547 0.254
26.6850 -0.211
26.7153 -0.416
26.7456 0.245
26.7759 -0.709
26.8061 0.577
26.8364 -0.012
26.8667 0.076
26.8970 0.374
26.9273 0.619
26.9575 0.500
26.9878 -0.140
27.0181 -0.154
27.0484 0.249
27.0786 0.651
27.1089 0.013
27.1392 -0.261
27.1695 0.247
27.1998 0.338
27.2300 -0.351
27.2603 -0.884
27.2906 0.399
27.3209 0.642
27.3512 0.155
27.3814 0.554
27.4117 0.225
27.4420 -0.157
27.4723 0.972
27.5025 -0.294
27.5328 0.575
27.5631 0.455
27.5934 0.283
27.6237 0.215
27.6539 0.148
27.6842 -0.023
27.7145 0.327
27.7448 0.260
27.7751 0.038
27.8053 0.024
27.8356 0.271
27.8659 0.414
27.8962 0.192
27.9264 0.179
27.9567 0.167
27.9870 0.155
28.0173 0.924
28.0476 -0.026
28.0778 0.327
28.1081 -0.205
28.1384 0.409
28.1687 0.034
28.1990 0.023
28.2292 -0.247
28.2595 0.159
28.2898 0.098
28.3201 -0.224
28.3503 -0.390
28.3806 -0.049
28.4109 -0.332
28.4412 1.468
28.4715 0.247
28.5017 0.173
28.5320 0.516
28.5623 -0.756
28.5926 0.420
28.6229 0.086
28.6531 -0.403
28.6834 -0.223
28.7137 0.062
28.7440 -0.018
28.7742 -0.670
28.8045 0.085
28.8348 -0.827
28.8651 0.449
28.8954 -1.505
28.9256 -0.332
28.9559 -0.775
28.9862 0.450
29.0165 0.165
29.0468 -0.329
29.0770 0.324
29.1073 -0.586
29.1376 0.015
29.1679 -0.009
29.1981 0.124
29.2284 -0.211
29.2587 -0.339
29.2890 -0.309
29.3193 -0.436
29.3495 -0.354
29.3798 -0.375
29.4101 -0.345
29.4404 0.363
29.4707 -0.439
29.5009 -0.356
29.5312 -0.116
29.5615 -0.084
29.5918 0.000
29.6221 0.137
29.6523 -0.143
29.6826 -0.214
29.7129 0.184
29.7432 0.113
29.7734 0.667
29.8037 -0.392
29.8340 -0.098
29.8643 -0.532
29.8946 0.180
29.9248 0.371
29.9551 0.667
29.9854 -0.600
30.0157 -0.460
30.0460 0.239
30.0762 0.417
30.1065 -0.343
30.1368 0.305
30.1671 -0.506
30.1973 0.246
30.2276 -0.096
30.2579 0.240
30.2882 0.368
30.3185 0.079
30.3487 -0.001
30.3790 1.065
30.4093 1.038
30.4396 1.219
30.4699 0.098
30.5001 1.790
30.5304 1.347
30.5607 1.165
30.5910 -0.059
30.6212 1.738
30.6515 0.984
30.6818 0.750
30.7121 1.506
30.7424 2.159
30.7726 1.666
30.8029 3.413
30.8332 2.399
30.8635 2.271
30.8938 3.394
30.9240 3.579
30.9543 4.390
30.9846 3.534
31.0149 5.647
31.0451 4.375
31.0754 3.936
31.1057 6.415
31.1360 6.550
31.1663 9.446
31.1965 8.487
31.2268 11.436
31.2571 13.447
31.2874 14.521
31.3177 17.157
31.3479 17.346
31.3782 21.754
31.4085 22.829
31.4388 24.841
31.4690 30.083
31.4993 32.721
31.5296 39.787
31.5599 44.092
31.5902 46.887
31.6204 47.860
31.6507 44.770
31.6810 49.024
31.7113 41.873
31.7416 43.159
31.7718 38.559
31.8021 34.429
31.8324 30.716
31.8627 26.222
31.8929 22.770
31.9232 18.120
31.9535 14.408
31.9838 13.404
32.0141 11.984
32.0443 10.668
32.0746 9.145
32.1049 8.455
32.1352 7.505
32.1655 6.711
32.1957 6.282
32.2260 4.760
32.2563 5.686
32.2866 3.070
32.3169 2.434
32.3471 3.100
32.3774 2.464
32.4077 2.142
32.4380 2.288
32.4682 3.163
32.4985 1.435
32.5288 0.905
32.5591 2.667
32.5894 1.252
32.6196 0.201
32.6499 0.714
32.6802 0.289
32.7105 1.323
32.7408 -0.872
32.7710 0.527
32.8013 0.208
32.8316 1.086
32.8619 -0.431
32.8921 -0.385
32.9224 0.234
32.9527 -0.240
32.9830 -0.037
33.0133 -1.240
33.0435 0.369
33.0738 -0.312
33.1041 0.360
33.1344 0.669
33.1647 0.248
33.1949 0.297
33.2252 0.345
33.2555 0.082
33.2858 -0.494
33.3160 -0.549
33.3463 0.334
33.3766 0.123
33.4069 0.902
33.4372 0.795
33.4674 0.429
33.4977 0.584
33.5280 0.739
33.5583 1.519
33.5886 0.685
33.6188 0.736
33.6491 1.569
33.6794 1.882
33.7097 1.413
33.7399 2.716
33.7702 2.352
33.8005 2.613
33.8308 4.281
33.8611 3.814
33.8913 5.743
33.9216 6.474
33.9519 7.205
33.9822 7.989
34.0125 10.752
34.0427 12.006
34.0730 13.780
34.1033 15.710
34.1336 21.287
34.1638 25.875
34.1941 31.556
34.2244 36.300
34.2547 43.701
34.2850 54.748
34.3152 56.993
34.3455 53.925
34.3758 47.421
34.4061 44.667
34.4364 38.527
34.4666 30.513
34.4969 25.989
34.5272 20.996
34.5575 14.649
34.5877 11.220
34.6180 11.124
34.6483 8.371
34.6786 8.015
34.7089 6.982
34.7391 5.533
34.7694 6.167
34.7997 4.562
34.8300 3.635
34.8603 4.426
34.8905 4.072
34.9208 6.061
34.9511 3.989
34.9814 2.958
35.0116 2.761
35.0419 4.127
35.0722 2.525
35.1025 4.516
35.1328 3.382
35.1630 4.593
35.1933 4.710
35.2236 5.036
35.2539 4.685
35.2842 4.542
35.3144 5.494
35.3447 6.029
35.3750 5.522
35.4053 5.433
35.4356 8.364
35.4658 7.026
35.4961 8.656
35.5264 9.453
35.5567 10.302
35.5869 11.464
35.6172 11.012
35.6475 11.550
35.6778 15.733
35.7081 17.417
35.7383 19.049
35.7686 20.682
35.7989 26.013
35.8292 25.823
35.8595 32.195
35.8897 33.048
35.9200 38.588
35.9503 42.357
35.9806 50.241
36.0108 56.042
36.0411 62.052
36.0714 69.937
36.1017 75.583
36.1320 74.093
36.1622 77.083
36.1925 74.344
36.2228 65.043
36.2531 63.034
36.2834 54.931
36.3136 50.995
36.3439 46.435
36.3742 37.291
36.4045 32.783
36.4347 30.307
36.4650 26.737
36.4953 20.719
36.5256 20.223
36.5559 18.008
36.5861 13.710
36.6164 12.641
36.6467 11.729
36.6770 10.661
36.7073 10.270
36.7375 7.431
36.7678 7.718
36.7981 6.912
36.8284 6.261
36.8586 5.664
36.8889 5.639
36.9192 4.781
36.9495 4.080
36.9798 3.067
37.0100 2.730
37.0403 3.020
37.0706 3.413
37.1009 2.505
37.1312 1.597
37.1614 1.991
37.1917 2.594
37.2220 1.479
37.2523 2.499
37.2825 1.957
37.3128 2.613
37.3431 2.071
37.3734 1.894
37.4037 0.624
37.4339 0.656
37.4642 2.147
37.4945 1.190
37.5248 1.483
37.5551 0.944
37.5853 0.977
37.6156 0.438
37.6459 0.836
37.6762 0.818
37.7064 0.384
37.7367 1.252
37.7670 0.454
37.7973 0.124
37.8276 1.045
37.8578 0.768
37.8881 0.804
37.9184 -0.045
37.9487 0.408
37.9790 -0.128
38.0092 0.170
38.0395 0.467
38.0698 0.140
38.1001 0.282
38.1304 0.424
38.1606 0.202
38.1909 0.449
38.2212 0.749
38.2515 0.631
38.2817 0.150
38.3120 -0.123
38.3423 0.334
38.3726 0.634
38.4029 0.831
38.4331 -0.431
38.4634 -0.390
38.4937 0.458
38.5240 0.369
38.5543 -0.084
38.5845 -0.225
38.6148 -0.209
38.6451 -0.089
38.6754 -0.177
38.7056 0.308
38.7359 0.065
38.7662 0.811
38.7965 0.151
38.8268 0.065
38.8570 0.187
38.8873 0.205
38.9176 1.005
38.9479 0.346
38.9782 -0.104
39.0084 0.020
39.0387 0.612
39.0690 0.632
39.0993 0.443
39.1295 -0.162
39.1598 -0.349
39.1901 0.077
39.2204 -0.018
39.2507 0.044
39.2809 0.158
39.3112 -0.405
39.3415 1.533
39.3718 0.606
39.4021 0.305
39.4323 0.472
39.4626 0.484
39.4929 0.496
39.5232 0.039
39.5534 0.312
39.5837 -0.301
39.6140 0.650
39.6443 0.767
39.6746 -0.313
39.7048 0.117
39.7351 0.287
39.7654 -0.220
39.7957 -0.049
39.8260 0.122
39.8562 0.137
39.8865 -0.160
39.9168 0.272
39.9471 -0.390
39.9773 -0.231
40.0076 0.345
40.0379 -0.746
40.0682 0.403
40.0985 0.146
40.1287 -0.371
40.1590 0.206
40.1893 -0.467
40.2196 0.266
40.2499 0.531
40.2801 0.589
40.3104 0.490
40.3407 0.183
40.3710 0.240
40.4012 -0.066
40.4315 0.722
40.4618 -0.418
40.4921 0.006
40.5224 0.273
40.5526 0.281
40.5829 0.080
40.6132 -0.173
40.6435 0.721
40.6738 0.000
40.7040 0.477
40.7343 -0.191
40.7646 -0.078
40.7949 -0.329
40.8251 0.514
40.8554 -0.049
40.8857 0.639
40.9160 -0.341
40.9463 -0.226
40.9765 0.254
41.0068 0.265
41.0371 0.329
41.0674 0.132
41.0977 -0.012
41.1279 0.261
41.1582 0.794
41.1885 0.130
41.2188 0.247
41.2491 0.156
41.2793 0.326
41.3096 0.079
41.3399 0.926
41.3702 -0.049
41.4004 -0.295
41.4307 -0.389
41.4610 0.332
41.4913 0.167
41.5216 0.681
41.5518 0.257
41.5821 0.093
41.6124 0.659
41.6427 0.601
41.6730 0.542
41.7032 0.067
41.7335 0.166
41.7638 0.629
41.7941 0.259
41.8243 0.150
41.8546 0.562
41.8849 0.297
41.9152 0.449
41.9455 0.601
41.9757 -0.340
42.0060 0.125
42.0363 -0.451
42.0666 -0.037
42.0969 0.168
42.1271 0.114
42.1574 0.632
42.1877 0.578
42.2180 0.056
42.2482 0.315
42.2785 -0.416
42.3088 -0.261
42.3391 0.101
42.3694 0.360
42.3996 0.671
42.4299 0.202
42.4602 -0.580
42.4905 0.825
42.5208 -0.112
42.5510 -0.060
42.5813 -0.581
42.6116 0.253
42.6419 -0.580
42.6721 0.880
42.7024 -0.369
42.7327 -0.003
42.7630 -0.157
42.7933 -0.416
42.8235 0.204
42.8538 0.147
42.8841 -0.692
42.9144 0.137
42.9447 -0.024
42.9749 1.066
43.0052 0.020
43.0355 0.121
43.0658 0.743
43.0960 -0.146
43.1263 0.372
43.1566 0.005
43.1869 0.367
43.2172 0.209
43.2474 0.519
43.2777 0.257
43.3080 -0.161
43.3383 0.255
43.3686 -0.215
43.3988 -0.111
43.4291 0.201
43.4594 0.097
43.4897 0.410
43.5199 -0.058
43.5502 0.307
43.5805 0.516
43.6108 0.101
43.6411 -0.106
43.6713 0.625
43.7016 -0.154
43.7319 -0.308
43.7622 -0.049
43.7925 0.106
43.8227 0.157
43.8530 0.364
43.8833 0.208
43.9136 0.207
43.9439 -0.209
43.9741 0.364
44.0044 0.312
44.0347 0.105
44.0650 0.002
44.0952 -0.049
44.1255 -0.308
44.1558 0.047
44.1861 0.090
44.2164 0.393
44.2466 -0.240
44.2769 0.272
44.3072 0.160
44.3375 0.204
44.3678 -0.168
44.3980 0.137
44.4283 -0.079
44.4586 -0.242
44.4889 -0.248
44.5191 0.474
44.5494 -0.573
44.5797 0.410
44.6100 0.457
44.6403 0.035
44.6705 0.134
44.7008 -0.183
44.7311 0.073
44.7614 0.485
44.7917 -0.404
44.8219 0.061
44.8522 0.526
44.8825 -0.623
44.9128 0.259
44.9430 0.152
44.9733 0.567
45.0036 0.512
45.0339 0.042
45.0642 0.040
45.0944 0.299
45.1247 0.194
45.1550 0.036
45.1853 0.296
45.2156 0.608
45.2458 -0.069
45.2761 0.035
45.3064 0.140
45.3367 0.297
45.3669 0.454
45.3972 0.299
45.4275 0.144
45.4578 0.198
45.4881 -0.321
45.5183 -0.232
45.5486 0.482
45.5789 0.624
45.6092 -0.015
45.6395 0.336
45.6697 -0.303
45.7000 0.256
45.7303 0.035
45.7606 0.230
45.7908 0.061
45.8211 0.778
45.8514 0.714
45.8817 -0.080
45.9120 0.534
45.9422 0.470
45.9725 0.147
46.0028 0.917
46.0331 -0.187
46.0634 0.688
46.0936 0.626
46.1239 0.303
46.1542 0.450
46.1845 0.545
46.2147 0.327
46.2450 0.162
46.2753 0.414
46.3056 0.666
46.3359 0.606
46.3661 0.182
46.3964 0.955
46.4267 0.375
46.4570 0.472
46.4873 0.934
46.5175 0.355
46.5478 0.870
46.5781 0.447
46.6084 0.025
46.6386 0.905
46.6689 0.587
46.6992 1.676
46.7295 2.244
46.7598 1.406
46.7900 1.923
46.8203 2.180
46.8506 2.124
46.8809 2.277
46.9112 3.159
46.9414 2.427
46.9717 2.737
47.0020 3.776
47.0323 3.878
47.0626 3.824
47.0928 4.656
47.1231 6.426
47.1534 5.800
47.1837 6.268
47.2139 8.611
47.2442 8.819
47.2745 10.329
47.3048 12.309
47.3351 13.507
47.3653 13.404
47.3956 14.134
47.4259 15.542
47.4562 14.293
47.4865 13.618
47.5167 14.349
47.5470 11.956
47.5773 12.063
47.6076 10.399
47.6378 10.037
47.6681 10.145
47.6984 6.867
47.7287 6.611
47.7590 5.417
47.7892 4.744
47.8195 4.228
47.8498 4.389
47.8801 3.509
47.9104 2.889
47.9406 2.999
47.9709 2.484
48.0012 1.709
48.0315 2.185
48.0617 2.348
48.0920 1.678
48.1223 1.685
48.1526 1.640
48.1829 1.596
48.2131 1.604
48.2434 0.779
48.2737 0.267
48.3040 0.588
48.3343 0.285
48.3645 0.867
48.3948 1.345
48.4251 -0.155
48.4554 0.323
48.4856 -0.135
48.5159 0.709
48.5462 0.147
48.5765 0.939
48.6068 0.378
48.6370 -0.392
48.6673 0.766
48.6976 0.414
48.7279 0.270
48.7582 0.178
48.7884 -0.329
48.8187 -0.269
48.8490 0.416
48.8793 -0.148
48.9095 0.173
48.9398 0.703
48.9701 0.088
49.0004 0.097
49.0307 0.316
49.0609 -0.091
49.0912 0.545
49.1215 0.191
49.1518 -0.632
49.1821 0.161
49.2123 -0.088
49.2426 -0.180
49.2729 0.405
49.3032 0.261
49.3334 -0.300
49.3637 0.703
49.3940 0.403
49.4243 0.000
49.4546 0.013
49.4848 -0.650
49.5151 0.038
49.5454 0.048
49.5757 0.528
49.6060 -0.086
49.6362 0.030
49.6665 -0.271
49.6968 -0.468
49.7271 0.315
49.7574 -0.361
49.7876 0.526
49.8179 0.215
49.8482 -0.199
49.8785 0.272
49.9087 0.326
49.9390 0.069
49.9693 0.280
49.9996 -0.185
50.0299 0.183
50.0601 0.135
50.0904 -0.225
50.1207 -0.325
50.1510 0.565
50.1813 -0.159
50.2115 0.679
50.2418 -0.565
50.2721 -0.299
50.3024 0.117
50.3326 0.064
50.3629 -0.093
50.3932 0.428
50.4235 -0.093
50.4538 0.064
50.4840 0.637
50.5143 -0.143
50.5446 -0.142
50.5749 0.068
50.6052 -0.243
50.6354 -0.033
50.6657 0.334
50.6960 -0.237
50.7263 -0.078
50.7565 0.863
50.7868 0.189
50.8171 -0.172
50.8474 0.977
50.8777 0.721
50.9079 0.621
50.9382 0.157
50.9685 0.838
50.9988 0.323
51.0291 0.120
51.0593 0.646
51.0896 0.391
51.1199 0.189
51.1502 -0.065
51.1804 0.098
51.2107 -0.156
51.2410 -0.149
51.2713 0.171
51.3016 -0.290
51.3318 -0.245
51.3621 0.477
51.3924 0.367
51.4227 0.204
51.4530 0.354
51.4832 0.036
51.5135 -0.022
51.5438 -0.600
51.5741 0.124
51.6043 -0.141
51.6346 0.219
51.6649 0.059
51.6952 0.003
51.7255 0.312
51.7557 0.464
51.7860 0.565
51.8163 0.302
51.8466 0.456
51.8769 0.557
51.9071 0.139
51.9374 0.293
51.9677 -0.282
51.9980 -0.179
52.0282 -0.024
52.0585 0.184
52.0888 0.079
52.1191 0.287
52.1494 0.599
52.1796 -0.963
52.2099 -0.129
52.2402 -0.024
52.2705 0.029
52.3008 -0.074
52.3310 -0.281
52.3613 0.033
52.3916 0.087
52.4219 0.350
52.4521 -0.221
52.4824 0.668
52.5127 0.202
52.5430 -0.159
52.5733 -0.156
52.6035 0.421
52.6338 -0.460
52.6641 -0.092
52.6944 0.642
52.7247 0.126
52.7549 -0.494
52.7852 -0.076
52.8155 0.185
52.8458 0.395
52.8761 -0.489
52.9063 -0.071
52.9366 -0.121
52.9669 0.350
52.9972 0.301
53.0274 -0.113
53.0577 -0.110
53.0880 0.050
53.1183 -0.468
53.1486 -0.016
53.1788 0.488
53.2091 0.680
53.2394 -0.482
53.2697 1.013
53.3000 0.112
53.3302 0.409
53.3605 0.446
53.3908 -0.194
53.4211 0.468
53.4513 -0.067
53.4816 0.179
53.5119 0.166
53.5422 -0.056
53.5725 0.295
53.6027 -0.447
53.6330 0.061
53.6633 -0.316
53.6936 0.557
53.7239 0.076
53.7541 0.898
53.7844 -0.208
53.8147 0.042
53.8450 0.187
53.8752 0.645
53.9055 -0.616
53.9358 0.416
53.9661 -0.271
53.9964 0.032
54.0266 0.908
54.0569 0.273
54.0872 -0.881
54.1175 0.777
54.1478 -0.586
54.1780 0.656
54.2083 0.179
54.2386 0.276
54.2689 -0.096
54.2991 -0.520
54.3294 0.139
54.3597 0.590
54.3900 -0.313
54.4203 -0.018
54.4505 0.433
54.4808 -0.105
54.5111 0.556
54.5414 0.279
54.5717 0.054
54.6019 0.559
54.6322 0.283
54.6625 -0.826
54.6928 -0.216
54.7230 0.238
54.7533 0.119
54.7836 0.000
54.8139 0.507
54.8442 1.274
54.8744 0.375
54.9047 -0.419
54.9350 0.349
54.9653 0.649
54.9956 0.324
55.0258 0.103
55.0561 0.403
55.0864 -0.911
55.1167 -0.350
55.1469 1.201
55.1772 -0.633
55.2075 -0.071
55.2378 0.126
55.2681 1.366
55.2983 0.626
55.3286 0.564
55.3589 1.491
55.3892 1.013
55.4195 0.952
55.4497 0.890
55.4800 0.257
55.5103 0.717
55.5406 0.709
55.5709 1.534
55.6011 1.578
55.6314 1.519
55.6617 0.990
55.6920 1.400
55.7222 1.081
55.7525 2.376
55.7828 2.943
55.8131 2.260
55.8434 1.890
55.8736 2.613
55.9039 2.348
55.9342 3.853
55.9645 3.432
55.9948 2.959
56.0250 4.726
56.0553 5.190
56.0856 5.812
56.1159 6.954
56.1461 7.003
56.1764 8.407
56.2067 7.831
56.2370 10.850
56.2673 10.587
56.2975 12.148
56.3278 12.511
56.3581 15.478
56.3884 15.685
56.4187 18.185
56.4489 17.403
56.4792 17.611
56.5095 19.226
56.5398 17.872
56.5700 16.726
56.6003 14.487
56.6306 15.322
56.6609 13.917
56.6912 13.762
56.7214 10.326
56.7517 9.912
56.7820 10.383
56.8123 9.240
56.8426 6.586
56.8728 5.808
56.9031 4.926
56.9334 5.190
56.9637 4.152
56.9939 3.688
57.0242 4.161
57.0545 4.530
57.0848 3.233
57.1151 1.832
57.1453 1.681
57.1756 1.583
57.2059 2.057
57.2362 1.230
57.2665 1.914
57.2967 2.077
57.3270 1.146
57.3573 1.258
57.3876 1.265
57.4178 0.544
57.4481 0.760
57.4784 1.185
57.5087 0.985
57.5390 0.265
57.5692 0.586
57.5995 -0.394
57.6298 0.345
57.6601 0.198
57.6904 0.157
57.7206 0.531
57.7509 0.021
57.7812 0.188
57.8115 0.043
57.8417 1.357
57.8720 0.066
57.9023 0.078
57.9326 0.038
57.9629 -0.053
57.9931 -0.353
58.0234 -0.088
58.0537 0.698
58.0840 0.130
58.1143 -0.073
58.1445 -0.224
58.1748 0.250
58.2051 -0.056
58.2354 -0.518
58.2656 0.165
58.2959 -0.140
58.3262 -0.081
58.3565 0.186
58.3868 0.090
58.4170 -0.215
58.4473 -0.259
58.4776 -0.302
58.5079 0.175
58.5382 0.080
58.5684 -0.172
58.5987 -0.110
58.6290 -0.100
58.6593 -0.247
58.6896 -0.080
58.7198 -0.226
58.7501 -0.163
58.7804 -0.204
58.8107 0.223
58.8409 -0.234
58.8712 -0.170
58.9015 0.259
58.9318 0.063
58.9621 -0.550
58.9923 0.244
59.0226 -0.264
59.0529 0.218
59.0832 -0.237
59.1135 -0.015
59.1437 0.416
59.1740 0.378
59.2043 -0.232
59.2346 -0.113
59.2648 -0.202
59.2951 -0.135
59.3254 -0.171
59.3557 -0.676
59.3860 0.207
59.4162 0.466
59.4465 0.048
59.4768 -0.110
59.5071 -0.423
59.5374 0.409
59.5676 0.200
59.5979 0.148
59.6282 -0.217
59.6585 1.086
59.6887 -0.007
59.7190 0.358
59.7493 0.098
59.7796 0.464
59.8099 0.049
59.8401 -0.314
59.8704 -0.572
59.9007 0.362
59.9310 -0.163
59.9613 0.615
59.9915 0.195
60.0218 -0.068
60.0521 -0.175
60.0824 0.187
60.1126 0.133
60.1429 -0.494
60.1732 -0.084
60.2035 0.222
60.2338 0.476
60.2640 -0.364
60.2943 0.255
60.3246 0.301
60.3549 0.348
60.3852 0.655
60.4154 0.546
60.4457 -0.188
60.4760 0.172
60.5063 0.741
60.5365 0.685
60.5668 0.161
60.5971 -0.520
60.6274 -0.121
60.6577 0.227
60.6879 0.418
60.7182 -0.379
60.7485 0.073
60.7788 0.005
60.8091 0.562
60.8393 -0.131
60.8696 0.114
60.8999 0.412
60.9302 0.085
60.9604 0.070
60.9907 -0.048
61.0210 -0.010
61.0513 0.236
61.0816 0.587
61.1118 -0.624
61.1421 0.092
61.1724 -0.024
61.2027 -0.349
61.2330 -0.153
61.2632 0.147
61.2935 0.188
61.3238 1.062
61.3541 0.009
61.3844 -0.002
61.4146 0.665
61.4449 0.290
61.4752 -0.189
61.5055 0.062
61.5357 0.156
61.5660 1.345
61.5963 0.086
61.6266 -0.131
61.6569 0.329
61.6871 0.894
61.7174 -0.260
61.7477 0.357
61.7780 0.350
61.8083 1.020
61.8385 0.857
61.8688 0.277
61.8991 1.104
61.9294 1.202
61.9596 1.456
61.9899 1.242
62.0202 2.018
62.0505 2.013
62.0808 2.581
62.1110 2.420
62.1413 1.478
62.1716 2.360
62.2019 2.981
62.2322 2.561
62.2624 1.932
62.2927 2.815
62.3230 4.843
62.3533 4.789
62.3835 4.682
62.4138 6.190
62.4441 5.876
62.4744 7.802
62.5047 7.957
62.5349 8.060
62.5652 10.507
62.5955 10.715
62.6258 11.496
62.6561 13.163
62.6863 14.101
62.7166 14.570
62.7469 15.560
62.7772 15.770
62.8074 14.417
62.8377 14.991
62.8680 15.097
62.8983 13.485
62.9286 12.446
62.9588 11.719
62.9891 11.670
63.0194 9.798
63.0497 7.197
63.0800 6.576
63.1102 6.840
63.1405 5.699
63.1708 5.287
63.2011 5.812
63.2313 3.682
63.2616 3.583
63.2919 3.588
63.3222 2.865
63.3525 2.610
63.3827 2.460
63.4130 2.467
63.4433 1.588
63.4736 2.012
63.5039 1.342
63.5341 0.621
63.5644 1.201
63.5947 1.262
63.6250 1.114
63.6552 0.810
63.6855 0.610
63.7158 0.828
63.7461 0.681
63.7764 0.847
63.8066 0.284
63.8369 0.450
63.8672 0.877
63.8975 0.003
63.9278 0.014
63.9580 0.181
63.9883 -0.537
64.0186 0.308
64.0489 0.060
64.0791 0.124
64.1094 0.918
64.1397 -0.319
64.1700 0.110
64.2003 0.019
64.2305 0.918
64.2608 0.463
64.2911 -0.043
64.3214 -0.342
64.3517 -0.028
64.3819 0.338
64.4122 0.549
64.4425 0.655
64.4728 -0.124
64.5031 0.452
64.5333 0.350
64.5636 -0.220
64.5939 0.253
64.6242 -0.265
64.6544 0.000
64.6847 0.473
64.7150 0.008
64.7453 0.169
64.7756 0.383
64.8058 -0.550
64.8361 0.133
64.8664 0.139
64.8967 0.509
64.9270 -0.318
64.9572 -0.468
64.9875 0.348
65.0178 0.019
65.0481 0.263
65.0783 -0.639
65.1086 0.126
65.1389 -0.098
65.1692 0.251
65.1995 -0.650
65.2297 0.377
65.2600 0.049
65.2903 -0.069
65.3206 0.229
65.3509 0.163
65.3811 0.514
65.4114 0.240
65.4417 0.695
65.4720 0.109
65.5022 0.096
65.5325 0.188
65.5628 0.124
65.5931 0.164
65.6234 -0.108
65.6536 -0.224
65.6839 0.442
65.7142 0.014
65.7445 -0.361
65.7748 -0.271
65.8050 -0.285
65.8353 -0.403
65.8656 0.729
65.8959 0.351
65.9261 0.182
65.9564 0.012
65.9867 0.521
66.0170 0.821
66.0473 1.798
66.0775 2.047
66.1078 0.629
66.1381 1.139
66.1684 0.867
66.1987 1.534
66.2289 1.315
66.2592 1.148
66.2895 1.867
66.3198 2.326
66.3500 0.963
66.3803 1.162
66.4106 1.726
66.4409 1.040
66.4712 1.500
66.5014 1.180
66.5317 1.172
66.5620 0.487
66.5923 1.521
66.6226 0.837
66.6528 0.882
66.6831 0.771
66.7134 1.234
66.7437 0.498
66.7739 0.597
66.8042 0.643
66.8345 0.794
66.8648 0.476
66.8951 0.784
66.9253 0.728
66.9556 1.296
66.9859 1.552
67.0162 1.445
67.0465 0.556
67.0767 0.656
67.1070 0.445
67.1373 0.494
67.1676 0.961
67.1978 0.959
67.2281 1.529
67.2584 1.424
67.2887 2.308
67.3190 2.411
67.3492 2.097
67.3795 2.565
67.4098 2.409
67.4401 4.075
67.4704 4.127
67.5006 4.284
67.5309 4.962
67.5612 6.108
67.5915 5.641
67.6218 6.527
67.6520 7.519
67.6823 8.771
67.7126 7.627
67.7429 10.181
67.7731 9.455
67.8034 10.291
67.8337 12.065
67.8640 10.767
67.8943 11.239
67.9245 10.931
67.9548 10.570
67.9851 9.481
68.0154 9.798
68.0457 8.866
68.0759 7.361
68.1062 7.887
68.1365 6.018
68.1668 6.962
68.1970 5.770
68.2273 6.662
68.2576 3.908
68.2879 3.915
68.3182 3.454
68.3484 3.566
68.3787 3.105
68.4090 3.946
68.4393 3.590
68.4696 3.807
68.4998 2.879
68.5301 3.357
68.5604 2.168
68.5907 3.792
68.6209 3.021
68.6512 4.542
68.6815 3.927
68.7118 2.428
68.7421 5.251
68.7723 3.700
68.8026 4.753
68.8329 4.244
68.8632 4.568
68.8935 4.841
68.9237 6.104
68.9540 6.169
68.9843 5.140
69.0146 4.997
69.0448 5.167
69.0751 5.233
69.1054 4.466
69.1357 4.636
69.1660 3.505
69.1962 4.405
69.2265 4.420
69.2568 3.446
69.2871 3.306
69.3174 3.165
69.3476 1.984
69.3779 2.937
69.4082 1.704
69.4385 2.138
69.4687 1.426
69.4990 2.172
69.5293 1.930
69.5596 1.167
69.5899 1.341
69.6201 0.891
69.6504 0.389
69.6807 0.251
69.7110 0.219
69.7413 1.384
69.7715 0.102
69.8018 0.330
69.8321 0.246
69.8624 0.423
69.8926 -0.077
69.9229 1.351
69.9532 -0.086
69.9835 -0.325
70.0138 -0.060
70.0440 0.257
70.0743 0.106
70.1046 0.528
70.1349 -0.403
70.1652 -0.137
70.1954 0.026
70.2257 0.136
70.2560 -0.430
70.2863 0.202
70.3166 -0.728
70.3468 -0.150
70.3771 0.533
70.4074 -0.034
70.4377 0.649
70.4679 -0.386
70.4982 -0.171
70.5285 -0.059
70.5588 -0.365
70.5891 0.164
70.6193 -0.349
70.6496 0.440
70.6799 0.032
70.7102 -0.272
70.7405 0.049
70.7707 -0.619
70.8010 0.172
70.8313 0.442
70.8616 -0.434
70.8918 0.097
70.9221 0.472
70.9524 -0.351
70.9827 -0.236
71.0130 0.192
71.0432 0.152
71.0735 -0.410
71.1038 0.175
71.1341 -0.177
71.1644 0.304
71.1946 -0.048
71.2249 0.017
71.2552 -0.230
71.2855 -0.216
71.3157 0.266
71.3460 -0.085
71.3763 -0.226
71.4066 0.309
71.4369 0.115
71.4671 -0.547
71.4974 0.094
71.5277 0.370
71.5580 -0.083
71.5883 0.297
71.6185 -0.311
71.6488 -0.244
71.6791 -0.280
71.7094 0.183
71.7396 0.647
71.7699 -0.140
71.8002 0.064
71.8305 0.268
71.8608 0.629
71.8910 -0.156
71.9213 0.309
71.9516 0.306
71.9819 0.615
72.0122 -0.065
72.0424 -0.119
72.0727 -0.069
72.1030 0.085
72.1333 0.135
72.1635 0.394
72.1938 0.757
72.2241 1.017
72.2544 0.339
72.2847 0.391
72.3149 0.443
72.3452 0.860
72.3755 0.912
72.4058 0.183
72.4361 1.382
72.4663 1.071
72.4966 0.551
72.5269 1.022
72.5572 1.128
72.5874 1.234
72.6177 1.184
72.6480 0.562
72.6783 1.138
72.7086 1.089
72.7388 0.780
72.7691 0.523
72.7994 0.996
72.8297 0.688
72.8600 0.432
72.8902 -0.397
72.9205 0.285
72.9508 0.343
72.9811 0.192
73.0113 0.094
73.0416 0.256
73.0719 -0.102
73.1022 0.113
73.1325 -0.297
73.1627 0.179
73.1930 0.238
73.2233 0.506
73.2536 0.149
73.2839 -0.415
73.3141 -0.101
73.3444 0.215
73.3747 -0.720
73.4050 0.065
73.4353 0.068
73.4655 -0.032
73.4958 -0.237
73.5261 0.028
73.5564 -0.436
73.5866 0.037
73.6169 -0.166
73.6472 0.308
73.6775 -0.051
73.7078 -0.202
73.7380 -0.352
73.7683 0.852
73.7986 -0.079
73.8289 0.293
73.8592 0.092
73.8894 -0.266
73.9197 -0.056
73.9500 -0.108
73.9803 0.206
74.0105 -0.209
74.0408 -0.415
74.0711 0.260
74.1014 -0.158
74.1317 -0.106
74.1619 0.049
74.1922 0.465
74.2225 0.413
74.2528 0.413
74.2831 0.049
74.3133 0.050
74.3436 -0.210
74.3739 -0.156
74.4042 0.991
74.4344 0.107
74.4647 0.265
74.4950 0.215
74.5253 0.322
74.5556 0.533
74.5858 0.276
74.6161 0.175
74.6464 0.230
74.6767 0.234
74.7070 -0.074
74.7372 0.659
74.7675 0.143
74.7978 -0.009
74.8281 0.100
74.8583 0.158
74.8886 0.007
74.9189 -0.352
74.9492 0.332
74.9795 0.442
75.0097 0.397
75.0400 0.351
75.0703 -0.006
75.1006 -0.311
75.1309 0.053
75.1611 0.262
75.1914 0.731
75.2217 -0.049
75.2520 0.369
75.2822 0.735
75.3125 0.216
75.3428 -0.251
75.3731 0.168
75.4034 -0.195
75.4336 -0.609
75.4639 0.280
75.4942 0.179
75.5245 0.286
75.5548 0.186
75.5850 0.138
75.6153 0.559
75.6456 -0.218
75.6759 -0.109
75.7061 0.885
75.7364 -0.203
75.7667 -0.250
75.7970 0.054
75.8273 0.046
75.8575 0.350
75.8878 -0.022
75.9181 0.491
75.9484 -0.037
75.9787 -0.200
76.0089 -0.259
76.0392 0.252
76.0695 0.086
76.0998 0.077
76.1301 0.276
76.1603 0.424
76.1906 0.520
76.2209 -0.218
76.2512 -0.330
76.2814 0.652
76.3117 0.280
76.3420 0.273
76.3723 0.058
76.4026 0.624
76.4328 0.514
76.4631 0.247
76.4934 -0.175
76.5237 0.548
76.5540 0.647
76.5842 0.851
76.6145 0.637
76.6448 0.633
76.6751 0.889
76.7053 1.198
76.7356 1.037
76.7659 1.034
76.7962 1.708
76.8265 0.611
76.8567 1.129
76.8870 1.075
76.9173 0.968
76.9476 1.071
76.9779 2.423
77.0081 1.015
77.0384 1.066
77.0687 0.909
77.0990 0.648
77.1292 0.856
77.1595 1.012
77.1898 0.960
77.2201 0.544
77.2504 0.649
77.2806 0.598
77.3109 0.182
77.3412 0.444
77.3715 0.029
77.4018 0.812
77.4320 0.502
77.4623 0.452
77.4926 0.351
77.5229 0.041
77.5531 -0.008
77.5834 0.465
77.6137 0.052
77.6440 -0.048
77.6743 0.060
77.7045 -0.196
77.7348 -0.243
77.7651 0.022
77.7954 0.080
77.8257 0.033
77.8559 0.195
77.8862 -0.267
77.9165 0.104
77.9468 0.214
77.9770 -0.248
78.0073 0.020
78.0376 -0.285
78.0679 0.029
78.0982 0.084
78.1284 0.191
78.1587 0.089
78.1890 0.092
78.2193 -0.269
78.2496 0.255
78.2798 0.155
78.3101 0.055
78.3404 -0.357
78.3707 0.429
78.4009 0.017
78.4312 0.178
78.4615 0.496
78.4918 -0.019
78.5221 0.039
78.5523 -0.111
78.5826 -0.209
78.6129 0.631
78.6432 -0.351
78.6735 0.437
78.7037 -0.180
78.7340 0.192
78.7643 -0.216
78.7946 0.156
78.8248 -0.304
78.8551 0.017
78.8854 0.391
78.9157 0.505
78.9460 0.358
78.9762 0.368
79.0065 0.742
79.0368 0.128
79.0671 0.347
79.0974 0.722
79.1276 -0.048
79.1579 0.328
79.1882 0.131
79.2185 0.612
79.2488 0.364
79.2790 0.168
79.3093 -0.028
79.3396 0.141
79.3699 -0.262
79.4001 0.532
79.4304 0.286
79.4607 -0.169
79.4910 -0.311
79.5213 0.198
79.5515 -0.438
79.5818 0.229
79.6121 0.322
79.6424 0.416
79.6727 0.718
79.7029 -0.125
79.7332 0.126
79.7635 0.481
79.7938 0.108
79.8240 0.203
79.8543 0.403
79.8846 -0.126
79.9149 0.126
79.9452 0.796
79.9754 0.372
80.0057 -0.157
80.0360 0.670
80.0663 -0.118
80.0966 0.553
80.1268 0.598
80.1571 0.384
80.1874 -0.351
80.2177 0.113
80.2479 0.160
80.2782 0.311
80.3085 -0.214
80.3388 -0.167
80.3691 0.246
80.3993 0.138
80.4296 0.238
80.4599 -0.182
80.4902 0.492
80.5205 -0.031
80.5507 0.227
80.5810 0.016
80.6113 0.535
80.6416 0.064
80.6718 -0.250
80.7021 -0.204
80.7324 0.623
80.7627 -0.372
80.7930 0.195
80.8232 0.971
80.8535 0.445
80.8838 0.596
80.9141 0.644
80.9444 0.639
80.9746 0.323
81.0049 0.475
81.0352 0.472
81.0655 0.468
81.0957 0.465
81.1260 0.671
81.1563 0.512
81.1866 0.614
81.2169 0.299
81.2471 0.141
81.2774 0.036
81.3077 0.712
81.3380 0.554
81.3683 0.241
81.3985 0.970
81.4288 0.657
81.4591 0.293
81.4894 0.970
81.5196 1.075
81.5499 0.451
81.5802 0.556
81.6105 0.349
81.6408 0.351
81.6710 0.457
81.7013 0.146
81.7316 0.565
81.7619 0.151
81.7922 0.154
81.8224 0.106
81.8527 0.265
81.8830 0.008
81.9133 0.117
81.9436 -0.088
81.9738 0.021
82.0041 0.859
82.0344 -0.021
82.0647 0.140
82.0949 0.250
82.1252 0.256
82.1555 -0.311
82.1858 -0.202
82.2161 0.584
82.2463 0.329
82.2766 0.282
82.3069 0.496
82.3372 -0.019
82.3675 0.248
82.3977 -0.058
82.4280 -0.051
82.4583 -0.148
82.4886 0.067
82.5188 -0.133
82.5491 0.708
82.5794 0.091
82.6097 -0.005
82.6400 0.212
82.6702 -0.039
82.7005 -0.239
82.7308 0.016
82.7611 0.583
82.7914 -0.048
82.8216 0.208
82.8519 0.098
82.8822 0.146
82.9125 0.194
82.9427 0.293
82.9730 0.550
83.0033 0.442
83.0336 0.178
83.0639 0.279
83.0941 0.329
83.1244 0.222
83.1547 0.115
83.1850 -0.147
83.2153 -0.045
83.2455 0.005
83.2758 0.265
83.3061 0.107
83.3364 0.263
83.3666 -0.207
83.3969 -0.311
83.4272 0.259
83.4575 -0.108
83.4878 -0.111
83.5180 -0.113
83.5483 0.250
83.5786 0.092
83.6089 0.351
83.6392 0.194
83.6694 0.818
83.6997 -0.224
83.7300 0.192
83.7603 -0.225
83.7905 0.349
83.8208 -0.328
83.8511 0.610
83.8814 -0.222
83.9117 0.404
83.9419 0.249
83.9722 0.355
84.0025 0.357
84.0328 -0.474
84.0631 0.206
84.0933 0.573
84.1236 -0.153
84.1539 -0.201
84.1842 0.115
84.2144 0.431
84.2447 0.123
84.2750 -0.133
84.3053 -0.025
84.3356 -0.124
84.3658 0.298
84.3961 0.303
84.4264 -0.160
84.4567 0.523
84.4870 0.061
84.5172 0.119
84.5475 -0.239
84.5778 -0.081
84.6081 0.494
84.6383 -0.025
84.6686 0.238
84.6989 0.136
84.7292 -0.173
84.7595 0.611
84.7897 0.563
84.8200 0.254
84.8503 -0.107
84.8806 -0.415
84.9109 0.151
84.9411 0.248
84.9714 0.086
85.0017 0.340
85.0320 0.074
85.0623 0.120
85.0925 -0.041
85.1228 0.162
85.1531 0.053
85.1834 0.048
85.2136 0.096
85.2439 0.456
85.2742 0.661
85.3045 0.085
85.3348 0.185
85.3650 -0.078
85.3953 0.388
85.4256 0.229
85.4559 0.279
85.4862 -0.087
85.5164 0.015
85.5467 0.378
85.5770 -0.196
85.6073 -0.093
85.6375 -0.041
85.6678 0.323
85.6981 0.583
85.7284 -0.407
85.7587 0.219
85.7889 0.272
85.8192 0.637
85.8495 0.169
85.8798 -0.194
85.9101 -0.244
85.9403 -0.093
85.9706 0.214
86.0009 0.365
86.0312 0.101
86.0614 0.565
86.0917 -0.012
86.1220 -0.224
86.1523 0.502
86.1826 0.082
86.2128 -0.234
86.2431 0.336
86.2734 0.021
86.3037 0.280
86.3340 0.017
86.3642 -0.245
86.3945 -0.038
86.4248 0.169
86.4551 0.064
86.4853 -0.197
86.5156 -0.041
86.5459 -0.250
86.5762 -0.098
86.6065 0.471
86.6367 -0.105
86.6670 -0.213
86.6973 0.461
86.7276 0.146
86.7579 -0.273
86.7881 0.453
86.8184 0.139
86.8487 0.345
86.8790 0.135
86.9092 0.707
86.9395 0.133
86.9698 0.653
87.0001 0.028
87.0304 0.132
87.0606 -0.285
87.0909 -0.084
87.1212 0.117
87.1515 0.110
87.1818 0.000
87.2120 0.202
87.2423 0.144
87.2726 -0.018
87.3029 -0.544
87.3331 0.127
87.3634 0.070
87.3937 0.066
87.4240 0.113
87.4543 -0.360
87.4845 0.678
87.5148 0.154
87.5451 0.359
87.5754 0.251
87.6057 0.301
87.6359 0.090
87.6662 0.191
87.6965 0.085
87.7268 0.344
87.7571 0.082
87.7873 0.289
87.8176 -0.389
87.8479 -0.237
87.8782 -0.189
87.9084 0.173
87.9387 0.013
87.9690 0.271
87.9993 0.320
88.0296 -0.151
88.0598 -0.153
88.0901 0.106
88.1204 -0.417
88.1507 -0.001
88.1810 0.102
88.2112 -0.264
88.2415 0.517
88.2718 -0.056
88.3021 0.413
88.3323 0.309
88.3626 0.465
88.3929 0.050
88.4232 0.519
88.4535 0.052
88.4837 -0.311
88.5140 -0.011
88.5443 0.497
88.5746 0.329
88.6049 -0.048
88.6351 0.253
88.6654 0.659
88.6957 0.439
88.7260 0.897
88.7562 0.262
88.7865 0.616
88.8168 0.137
88.8471 0.492
88.8774 0.639
88.9076 0.786
88.9379 1.141
88.9682 0.612
88.9985 0.447
89.0288 0.752
89.0590 0.587
89.0893 1.100
89.1196 0.937
89.1499 1.503
89.1801 1.079
89.2104 1.802
89.2407 1.483
89.2710 1.685
89.3013 1.002
89.3315 2.611
89.3618 1.199
89.3921 2.080
89.4224 1.606
89.4527 3.164
89.4829 2.430
89.5132 1.906
89.5435 1.954
89.5738 1.794
89.6040 1.478
89.6343 2.829
89.6646 2.306
89.6949 1.522
89.7252 1.312
89.7554 1.987
89.7857 1.881
89.8160 1.515
89.8463 1.722
89.8766 1.304
89.9068 1.251
89.9371 1.303
89.9674 0.938
89.9977 1.199
90.0279 0.939
90.0582 1.148
90.0885 0.680
90.1188 0.681
90.1491 0.422
90.1793 0.840
90.2096 0.790
90.2399 0.532
90.2702 0.222
90.3005 0.277
90.3307 0.852
90.3610 0.751
90.3913 0.234
90.4216 0.342
90.4518 0.398
90.4821 -0.066
90.5124 0.198
90.5427 0.151
90.5730 0.052
90.6032 0.526
90.6335 -0.146
90.6638 -0.088
90.6941 -0.134
90.7244 -0.284
90.7546 0.348
90.7849 0.199
90.8152 -0.055
90.8455 -0.152
90.8758 -0.196
90.9060 -0.032
90.9363 0.289
90.9666 -0.432
90.9969 0.514
91.0271 0.367
91.0574 -0.093
91.0877 -0.031
91.1180 -0.074
91.1483 0.353
91.1785 0.051
91.2088 0.478
91.2391 0.384
91.2694 -0.126
91.2997 -0.271
91.3299 0.037
91.3602 -0.958
91.3905 0.027
91.4208 0.335
91.4510 0.018
91.4813 0.066
91.5116 -0.042
91.5419 -0.098
91.5722 0.107
91.6024 0.365
91.6327 -0.159
91.6630 0.099
91.6933 0.149
91.7236 -0.061
91.7538 -0.063
91.7841 -0.273
91.8144 0.247
91.8447 -0.014
91.8749 0.349
91.9052 0.037
91.9355 0.505
91.9658 -0.068
91.9961 -0.276
92.0263 -0.234
92.0566 -0.089
92.0869 0.057
92.1172 0.359
92.1475 0.714
92.1777 -0.025
92.2080 0.278
92.2383 0.582
92.2686 0.156
92.2988 -0.321
92.3291 0.452
92.3594 0.600
92.3897 0.332
92.4200 -0.144
92.4502 0.786
92.4805 0.050
92.5108 -0.113
92.5411 0.766
92.5714 0.759
92.6016 0.024
92.6319 0.123
92.6622 1.367
92.6925 0.529
92.7227 0.211
92.7530 0.467
92.7833 0.254
92.8136 0.979
92.8439 0.923
92.8741 0.451
92.9044 0.708
92.9347 0.340
92.9650 0.337
92.9953 0.178
93.0255 0.489
93.0558 0.070
93.0861 -0.036
93.1164 0.379
93.1466 -0.091
93.1769 0.793
93.2072 0.272
93.2375 0.584
93.2678 0.219
93.2980 0.219
93.3283 0.219
93.3586 0.376
93.3889 0.168
93.4192 0.534
93.4494 0.431
93.4797 -0.297
93.5100 0.122
93.5403 0.072
93.5706 -0.187
93.6008 -0.028
93.6311 -0.389
93.6614 0.074
93.6917 -0.400
93.7219 0.481
93.7522 -0.253
93.7825 0.315
93.8128 0.311
93.8431 0.203
93.8733 -0.009
93.9036 0.405
93.9339 -0.276
93.9642 0.190
93.9945 0.500
94.0247 -0.179
94.0550 -0.910
94.0853 0.232
94.1156 -0.032
94.1458 -0.192
94.1761 -0.299
94.2064 -0.045
94.2367 0.002
94.2670 0.309
94.2972 0.512
94.3275 -0.691
94.3578 0.294
94.3881 0.029
94.4184 -0.236
94.4486 0.541
94.4789 -0.139
94.5092 -0.091
94.5395 0.010
94.5697 0.268
94.6000 0.317
94.6303 0.523
94.6606 0.209
94.6909 0.207
94.7211 1.143
94.7514 0.360
94.7817 0.255
94.8120 1.556
94.8423 0.410
94.8725 1.138
94.9028 0.722
94.9331 1.868
94.9634 1.660
94.9936 0.984
95.0239 1.297
95.0542 0.882
95.0845 1.560
95.1148 1.718
95.1450 2.189
95.1753 2.035
95.2056 1.361
95.2359 2.405
95.2662 1.991
95.2964 1.057
95.3267 1.530
95.3570 1.169
95.3873 1.642
95.4175 1.750
95.4478 1.130
95.4781 1.499
95.5084 1.661
95.5387 1.510
95.5689 1.047
95.5992 1.105
95.6295 1.632
95.6598 1.169
95.6901 1.697
95.7203 1.443
95.7506 1.086
95.7809 0.729
95.8112 0.893
95.8414 0.536
95.8717 0.232
95.9020 -0.124
95.9323 0.926
95.9626 0.362
95.9928 0.215
96.0231 0.225
96.0534 0.547
96.0837 -0.120
96.1140 -0.109
96.1442 0.057
96.1745 0.016
96.2048 -0.546
96.2351 0.030
96.2653 -0.123
96.2956 0.348
96.3259 0.196
96.3562 0.095
96.3865 -0.057
96.4167 0.416
96.4470 0.264
96.4773 0.060
96.5076 0.795
96.5379 -0.138
96.5681 -0.028
96.5984 0.030
96.6287 -0.172
96.6590 0.251
96.6893 -0.212
96.7195 0.264
96.7498 -0.198
96.7801 0.018
96.8104 0.234
96.8406 0.346
96.8709 -0.167
96.9012 -0.054
96.9315 0.579
96.9618 0.640
96.9920 0.337
97.0223 0.346
97.0526 -0.061
97.0829 -0.363
97.1132 0.096
97.1434 0.556
97.1737 0.131
97.2040 -0.086
97.2343 0.063
97.2645 -0.258
97.2948 -0.161
97.3251 0.196
97.3554 -0.019
97.3857 0.234
97.4159 -0.553
97.4462 0.170
97.4765 0.112
97.5068 0.522
97.5371 -0.108
97.5673 0.147
97.5976 -0.170
97.6279 0.554
97.6582 0.081
97.6884 -0.027
97.7187 -0.031
97.7490 0.069
97.7793 -0.351
97.8096 0.532
97.8398 -0.148
97.8701 0.422
97.9004 0.472
97.9307 0.626
97.9610 0.051
97.9912 0.414
98.0215 0.673
98.0518 0.672
98.0821 0.307
98.1123 0.410
98.1426 0.202
98.1729 0.306
98.2032 1.191
98.2335 0.671
98.2637 -0.005
98.2940 1.090
98.3243 1.039
98.3546 1.301
98.3849 0.886
98.4151 0.680
98.4454 1.307
98.4757 1.101
98.5060 1.260
98.5362 1.263
98.5665 1.214
98.5968 0.749
98.6271 1.534
98.6574 1.955
98.6876 1.178
98.7179 1.027
98.7482 1.605
98.7785 0.308
98.8088 1.042
98.8390 1.100
98.8693 1.210
98.8996 0.539
98.9299 0.546
98.9601 0.761
98.9904 0.976
99.0207 0.723
99.0510 0.574
99.0813 0.373
99.1115 0.329
99.1418 0.859
99.1721 0.607
99.2024 0.147
99.2327 0.208
99.2629 0.582
99.2932 0.175
99.3235 0.705
99.3538 0.507
99.3841 0.205
99.4143 0.632
99.4446 0.226
99.4749 0.550
99.5052 -0.116
99.5354 -0.260
99.5657 -0.047
99.5960 0.219
99.6263 0.433
99.6566 0.335
99.6868 0.446
99.7171 -0.017
99.7474 0.094
99.7777 -0.003
99.8080 0.474
99.8382 0.742
99.8685 0.749
99.8988 0.341
99.9291 -0.015
99.9593 -0.059
99.9896 0.158
100.0199 0.116
100.0502 -0.083
100.0805 0.812
100.1107 0.093
100.1410 -0.054
100.1713 -0.095
100.2016 -0.084
100.2319 -0.021
100.2621 0.250
100.2924 -0.311
100.3227 -0.218
100.3530 0.396
100.3832 0.177
100.4135 0.427
100.4438 0.105
100.4741 0.512
100.5044 0.398
100.5346 -0.132
100.5649 0.224
100.5952 -0.098
100.6255 0.363
100.6558 0.406
100.6860 -0.174
100.7163 0.234
100.7466 0.852
100.7769 0.220
100.8071 0.265
100.8374 0.310
100.8677 -0.061
100.8980 0.558
100.9283 -0.593
100.9585 -0.078
100.9888 0.125
101.0191 0.380
101.0494 0.427
101.0797 0.214
101.1099 0.054
101.1402 0.466
101.1705 -0.058
101.2008 0.615
101.2310 -0.013
101.2613 0.609
101.2916 0.033
101.3219 0.031
101.3522 0.028
101.3824 0.078
101.4127 0.077
101.4430 -0.081
101.4733 0.126
101.5036 0.177
101.5338 0.385
101.5641 0.541
101.5944 0.801
101.6247 -0.657
101.6549 0.020
101.6852 0.021
101.7155 0.126
101.7458 -0.655
101.7761 -0.028
101.8063 0.182
101.8366 -0.337
101.8669 -0.143
101.8972 0.311
101.9275 -0.016
101.9577 0.492
101.9880 -0.512
102.0183 0.413
102.0486 0.504
102.0788 0.491
102.1091 0.166
102.1394 -0.315
102.1697 0.142
102.2000 0.078
102.2302 0.067
102.2605 0.316
102.2908 0.097
102.3211 -0.018
102.3514 0.388
102.3816 0.638
102.4119 0.733
102.4422 0.463
102.4725 0.401
102.5028 1.121
102.5330 -0.085
102.5633 0.271
102.5936 1.408
102.6239 1.088
102.6541 0.142
102.6844 0.551
102.7147 0.857
102.7450 0.537
102.7753 0.739
102.8055 0.680
102.8358 0.570
102.8661 0.303
102.8964 0.922
102.9267 0.865
102.9569 0.391
102.9872 0.594
103.0175 1.162
103.0478 0.585
103.0780 0.216
103.1083 0.994
103.1386 0.313
103.1689 0.830
103.1992 -0.058
103.2294 0.981
103.2597 0.457
103.2900 0.403
103.3203 0.401
103.3506 0.763
103.3808 0.345
103.4111 0.083
103.4414 0.655
103.4717 0.915
103.5019 0.289
103.5322 1.018
103.5625 0.445
103.5928 0.706
103.6231 0.394
103.6533 1.020
103.6836 0.500
103.7139 1.803
103.7442 1.336
103.7745 0.504
103.8047 1.340
103.8350 0.925
103.8653 1.240
103.8956 0.826
103.9258 0.777
103.9561 0.989
103.9864 0.784
104.0167 1.413
104.0470 1.001
104.0772 1.318
104.1075 1.635
104.1378 1.275
104.1681 1.697
104.1984 1.546
104.2286 1.291
104.2589 1.766
104.2892 1.460
104.3195 1.258
104.3497 0.796
104.3800 0.907
104.4103 0.810
104.4406 0.713
104.4709 1.346
104.5011 1.146
104.5314 0.425
104.5617 0.121
104.5920 0.963
104.6223 1.441
104.6525 0.252
104.6828 0.626
104.7131 0.688
104.7434 -0.187
104.7736 0.500
104.8039 0.615
104.8342 0.209
104.8645 0.585
104.8948 0.023
104.9250 0.087
104.9553 -0.214
104.9856 0.632
105.0159 0.384
105.0462 0.136
105.0764 0.305
105.1067 -0.411
105.1370 0.540
105.1673 0.137
105.1975 0.412
105.2278 0.790
105.2581 0.649
105.2884 0.090
105.3187 -0.467
105.3489 -0.053
105.3792 -0.160
105.4095 0.411
105.4398 0.410
105.4701 0.148
105.5003 0.355
105.5306 0.146
105.5609 0.406
105.5912 0.405
105.6215 0.145
105.6517 0.405
105.6820 -0.219
105.7123 0.302
105.7426 -0.322
105.7728 -0.217
105.8031 0.149
105.8334 0.463
105.8637 0.257
105.8940 0.311
105.9242 -0.311
105.9545 -0.260
105.9848 0.148
106.0151 0.349
106.0454 0.758
106.0756 0.074
106.1059 0.119
106.1362 -0.617
106.1665 0.678
106.1967 -0.265
106.2270 0.197
106.2573 -0.329
106.2876 0.395
106.3179 0.285
106.3481 0.489
106.3784 0.276
106.4087 0.323
106.4390 0.111
106.4693 0.159
106.4995 0.208
106.5298 -0.213
106.5601 -0.528
106.5904 0.302
106.6206 -0.429
106.6509 0.089
106.6812 -0.173
106.7115 0.346
106.7418 0.292
106.7720 0.551
106.8023 0.290
106.8326 0.028
106.8629 0.340
106.8932 -0.441
106.9234 0.184
106.9537 -0.076
106.9840 0.289
107.0143 -0.023
107.0445 0.082
107.0748 -0.177
107.1051 -0.123
107.1354 -0.121
107.1657 -0.223
107.1959 0.664
107.2262 0.407
107.2565 -0.320
107.2868 0.204
107.3171 0.520
107.3473 -0.362
107.3776 0.423
107.4079 0.219
107.4382 0.015
107.4684 0.228
107.4987 0.233
107.5290 0.395
107.5593 0.140
107.5896 -0.167
107.6198 0.151
107.6501 -0.467
107.6804 -0.103
107.7107 0.366
107.7410 0.366
107.7712 0.366
107.8015 -0.206
107.8318 -0.101
107.8621 0.109
107.8923 -0.306
107.9226 0.165
107.9529 0.271
107.9832 -0.248
108.0135 0.276
108.0437 -0.346
108.0740 -0.083
108.1043 0.285
108.1346 -0.232
108.1649 -0.072
108.1951 -0.016
108.2254 0.197
108.2557 0.306
108.2860 -0.314
108.3163 0.004
108.3465 0.113
108.3768 0.379
108.4071 -0.031
108.4374 0.391
108.4676 -0.123
108.4979 0.301
108.5282 0.203
108.5585 0.315
108.5888 0.114
108.6190 0.382
108.6493 0.442
108.6796 0.659
108.7099 -0.374
108.7402 -0.209
108.7704 0.321
108.8007 0.278
108.8310 0.340
108.8613 0.870
108.8915 0.464
108.9218 -0.255
108.9521 -0.244
108.9824 -0.049
109.0127 -0.009
109.0429 0.917
109.0732 0.332
109.1035 0.112
109.1338 0.778
109.1641 0.194
109.1943 0.183
109.2246 0.068
109.2549 0.266
109.2852 0.413
109.3154 0.038
109.3457 0.498
109.3760 0.228
109.4063 0.531
109.4366 0.523
109.4668 0.306
109.4971 0.610
109.5274 0.342
109.5577 0.074
109.5880 0.587
109.6182 0.840
109.6485 0.677
109.6788 -0.163
109.7091 0.456
109.7393 0.398
109.7696 0.444
109.7999 0.855
109.8302 0.173
109.8605 0.532
109.8907 -0.046
109.9210 0.731
109.9513 0.779
109.9816 0.879
110.0119 0.771
110.0421 0.507
110.0724 0.452
110.1027 0.865
110.1330 0.029
110.1632 0.235
110.1935 0.441
110.2238 0.595
110.2541 0.802
110.2844 0.540
110.3146 0.591
110.3449 1.528
110.3752 1.162
110.4055 0.329
110.4358 0.589
110.4660 0.589
110.4963 0.693
110.5266 0.694
110.5569 0.643
110.5871 0.696
110.6174 0.020
110.6477 0.178
110.6780 0.649
110.7083 0.443
110.7385 0.549
110.7688 0.656
110.7991 0.399
110.8294 0.298
110.8597 0.457
110.8899 -0.060
110.9202 0.205
110.9505 0.053
110.9808 0.526
111.0110 -0.459
111.0413 0.744
111.0716 -0.292
111.1019 0.495
111.1322 -0.229
111.1624 0.611
111.1927 0.773
111.2230 -0.054
111.2533 0.005
111.2836 0.533
111.3138 0.384
111.3441 0.757
111.3744 0.244
111.4047 0.564
111.4350 0.000
111.4652 0.373
111.4955 -0.139
111.5258 0.026
111.5561 0.453
111.5863 0.618
111.6166 0.108
111.6469 1.003
111.6772 0.128
111.7075 0.243
111.7377 0.254
111.7680 0.265
111.7983 0.121
111.8286 -0.024
111.8589 0.405
111.8891 0.261
111.9194 -0.195
111.9497 -0.130
111.9800 0.299
112.0102 0.052
112.0405 0.014
112.0708 -0.285
112.1011 0.017
112.1314 0.423
112.1616 0.360
112.1919 0.558
112.2222 0.392
112.2525 0.174
112.2828 0.269
112.3130 -0.001
112.3433 0.043
112.3736 -0.070
112.4039 0.130
112.4341 0.434
112.4644 0.010
112.4947 0.263
112.5250 -0.422
112.5553 0.353
112.5855 0.294
112.6158 -0.286
112.6461 0.125
112.6764 -0.089
112.7067 -0.408
112.7369 0.212
112.7672 0.415
112.7975 0.514
112.8278 -0.376
112.8580 0.245
112.8883 0.032
112.9186 -0.232
112.9489 0.181
112.9792 0.021
113.0094 0.278
113.0397 0.328
113.0700 0.637
113.1003 0.427
113.1306 0.008
113.1608 -0.098
113.1911 -0.047
113.2214 -0.153
113.2517 -0.310
113.2819 0.470
113.3122 0.209
113.3425 0.157
113.3728 -0.104
113.4031 0.522
113.4333 0.210
113.4636 -0.050
113.4939 -0.101
113.5242 0.421
113.5545 0.422
113.5847 0.164
113.6150 0.270
113.6453 -0.248
113.6756 0.275
113.7058 0.694
113.7361 0.229
113.7664 0.076
113.7967 -0.285
113.8270 -0.029
113.8572 0.124
113.8875 0.173
113.9178 0.691
113.9481 0.636
113.9784 -0.148
114.0086 -0.046
114.0389 0.213
114.0692 0.107
114.0995 0.001
114.1298 -0.260
114.1600 -0.210
114.1903 0.153
114.2206 0.568
114.2509 -0.058
114.2811 0.358
114.3114 0.253
114.3417 -0.007
114.3720 0.305
114.4023 -0.007
114.4325 0.098
114.4628 0.255
114.4931 -0.265
114.5234 -0.108
114.5537 -0.210
114.5839 -0.260
114.6142 0.141
114.6445 0.386
114.6748 0.475
114.7050 -0.112
114.7353 0.186
114.7656 0.640
114.7959 0.105
114.8262 0.352
114.8564 0.391
114.8867 0.534
114.9170 0.000
114.9473 0.144
114.9776 0.392
115.0078 0.119
115.0381 -0.101
115.0684 0.044
115.0987 -0.072
115.1289 0.438
115.1592 0.375
115.1895 0.104
115.2198 0.250
115.2501 -0.437
115.2803 0.178
115.3106 0.273
115.3409 0.889
115.3712 0.255
115.4015 0.194
115.4317 0.081
115.4620 0.594
115.4923 0.638
115.5226 0.891
115.5528 0.102
115.5831 1.136
115.6134 0.765
115.6437 0.967
115.6740 0.439
115.7042 0.590
115.7345 0.688
115.7648 1.620
115.7951 1.146
115.8254 1.557
115.8556 0.927
115.8859 1.287
115.9162 1.491
115.9465 1.435
115.9767 1.223
116.0070 1.428
116.0373 2.674
116.0676 2.463
116.0979 2.044
116.1281 1.781
116.1584 1.258
116.1887 1.881
116.2190 1.514
116.2493 1.461
116.2795 1.512
116.3098 1.511
116.3401 1.927
116.3704 1.509
116.4006 1.718
116.4309 0.676
116.4612 2.031
116.4915 1.406
116.5218 1.459
116.5520 0.835
116.5823 1.149
116.6126 1.411
116.6429 0.892
116.6732 1.988
116.7034 0.740
116.7337 1.576
116.7640 0.642
116.7943 1.270
116.8245 1.065
116.8548 1.225
116.8851 1.229
116.9154 0.973
116.9457 0.873
116.9759 1.503
117.0062 0.987
117.0365 0.263
117.0668 0.217
117.0971 1.004
117.1273 0.385
117.1576 0.443
117.1879 0.502
117.2182 0.352
117.2485 0.359
117.2787 0.106
117.3090 0.218
117.3393 0.174
117.3696 0.807
117.3998 0.555
117.4301 0.147
117.4604 0.051
117.4907 0.686
117.5210 0.435
117.5512 0.132
117.5815 -0.015
117.6118 0.152
117.6421 -0.098
117.6724 0.173
117.7026 0.132
117.7329 -0.013
117.7632 0.467
117.7935 0.114
117.8237 -0.082
117.8540 0.503
117.8843 0.255
117.9146 0.008
117.9449 0.073
117.9751 -0.174
118.0054 0.464
118.0357 0.270
118.0660 0.284
118.0963 -0.379
118.1265 0.677
118.1568 -0.037
118.1871 0.134
118.2174 -0.215
118.2476 0.217
118.2779 0.233
118.3082 -0.167
118.3385 -0.255
118.3688 -0.104
118.3990 0.307
118.4293 0.458
118.4596 0.558
118.4899 0.189
118.5202 0.705
118.5504 -0.028
118.5807 -0.084
118.6110 0.590
118.6413 0.587
118.6715 0.584
118.7018 0.633
118.7321 0.527
118.7624 -0.309
118.7927 0.106
118.8229 -0.260
118.8532 -0.162
118.8835 0.354
118.9138 0.609
118.9441 -0.177
118.9743 0.600
119.0046 0.127
119.0349 -0.293
119.0652 0.328
119.0954 -0.040
119.1257 0.009
119.1560 0.110
119.1863 -0.309
119.2166 0.105
119.2468 0.415
119.2771 -0.003
119.3074 0.412
119.3377 0.254
119.3680 -0.007
119.3982 0.253
119.4285 0.252
119.4588 0.043
119.4891 -0.113
119.5193 -0.217
119.5496 0.148
119.5799 0.305
119.6102 0.150
119.6405 -0.266
119.6707 -0.181
119.7010 0.424
119.7313 -0.065
119.7616 0.020
119.7919 -0.207
119.8221 0.087
119.8524 0.693
119.8827 -0.367
119.9130 -0.280
119.9433 -0.166
119.9735 -0.676
120.0038 0.000
