'Id: "" Comment: "" Operator: "Lab Manager" Anode: "Cu" Scantype: "Locked Coupled" TimePerStep: "19.2" X: "9999" Y: "9999" Z: "9999" 
10.0015 0.000
10.0318 -0.598
10.0620 -0.058
10.0923 -0.559
10.1226 0.294
10.1529 -0.624
10.1832 -0.307
10.2134 0.114
10.2437 -0.090
10.2740 0.280
10.3043 0.754
10.3346 0.290
10.3648 0.140
10.3951 -0.115
10.4254 -0.109
10.4557 0.678
10.4859 0.685
10.5162 0.222
10.5465 -0.031
10.5768 0.340
10.6071 -0.382
10.6373 0.250
10.6676 0.310
10.6979 0.734
10.7282 0.378
10.7585 0.177
10.7887 -0.075
10.8190 -0.275
10.8493 0.880
10.8796 0.628
10.9098 -0.196
10.9401 0.386
10.9704 -0.230
11.0007 1.551
11.0310 0.831
11.0612 0.737
11.0915 1.164
11.1218 0.757
11.1521 -0.274
11.1824 0.050
11.2126 0.269
11.2429 0.905
11.2732 1.072
11.3035 0.146
11.3337 0.158
11.3640 -0.142
11.3943 0.234
11.4246 0.038
11.4549 -0.054
11.4851 0.532
11.5154 -0.132
11.5457 0.037
11.5760 0.050
11.6063 0.272
11.6365 0.598
11.6668 0.352
11.6971 -0.624
11.7274 -0.312
11.7577 0.261
11.7879 -0.364
11.8182 -0.364
11.8485 1.043
11.8788 0.158
11.9090 0.263
11.9393 1.045
11.9696 -0.412
11.9999 0.371
12.0302 0.372
12.0604 0.062
12.0907 0.480
12.1210 -0.403
12.1513 0.172
12.1816 0.748
12.2118 -0.083
12.2421 1.118
12.2724 -0.233
12.3027 1.072
12.3329 0.555
12.3632 0.923
12.3935 0.510
12.4238 -0.111
12.4541 -0.002
12.4843 0.419
12.5146 0.059
12.5449 0.533
12.5752 -0.504
12.6055 1.012
12.6357 -0.233
12.6660 -0.592
12.6963 0.508
12.7266 0.201
12.7568 0.468
12.7871 -0.359
12.8174 0.845
12.8477 -0.033
12.8780 -0.547
12.9082 0.397
12.9385 -0.012
12.9688 0.464
12.9991 -0.049
13.0294 -0.041
13.0596 -0.293
13.0899 0.444
13.1202 0.609
13.1505 0.305
13.1807 0.366
13.2110 0.115
13.2413 -0.188
13.2716 -0.335
13.3019 0.612
13.3321 -0.107
13.3624 0.580
13.3927 0.434
13.4230 1.538
13.4533 0.872
13.4835 0.622
13.5138 -0.565
13.5441 -0.345
13.5744 0.227
13.6046 0.331
13.6349 0.226
13.6652 1.112
13.6955 0.747
13.7258 -0.554
13.7560 -0.345
13.7863 0.018
13.8166 -0.139
13.8469 0.328
13.8772 0.796
13.9074 0.067
13.9377 0.119
13.9680 -0.038
13.9983 0.743
14.0285 0.171
14.0588 0.119
14.0891 -0.401
14.1194 0.121
14.1497 -0.191
14.1799 0.331
14.2102 -0.084
14.2405 -0.186
14.2708 -0.445
14.3011 0.286
14.3313 0.445
14.3616 0.291
14.3919 0.449
14.4222 -0.381
14.4524 0.091
14.4827 0.406
14.5130 0.201
14.5433 -0.108
14.5736 -0.052
14.6038 -0.256
14.6341 -0.096
14.6644 -0.040
14.6947 0.121
14.7250 -0.343
14.7552 0.391
14.7855 0.396
14.8158 0.349
14.8461 0.459
14.8764 0.308
14.9066 -0.363
14.9369 0.477
14.9672 -0.194
14.9975 -0.032
15.0277 -0.338
15.0580 -0.338
15.0883 -0.289
15.1186 -0.136
15.1489 -0.086
15.1791 0.432
15.2094 0.742
15.2397 -0.562
15.2700 -0.200
15.3003 0.319
15.3305 0.421
15.3608 0.576
15.3911 0.002
15.4214 -0.312
15.4516 -0.156
15.4819 0.832
15.5122 0.363
15.5425 0.154
15.5728 0.571
15.6030 0.258
15.6333 -0.366
15.6636 -0.001
15.6939 -0.365
15.7242 0.104
15.7544 -0.520
15.7847 -0.052
15.8150 0.417
15.8453 -0.365
15.8755 0.261
15.9058 -0.156
15.9361 0.678
15.9664 0.001
15.9967 0.002
16.0269 -0.101
16.0572 -0.048
16.0875 0.110
16.1178 0.112
16.1481 -0.303
16.1783 0.845
16.2086 0.014
16.2389 0.224
16.2692 -0.034
16.2994 -0.291
16.3297 0.285
16.3600 0.288
16.3903 0.604
16.4206 -0.487
16.4508 0.559
16.4811 0.250
16.5114 -0.110
16.5417 -0.210
16.5720 -0.050
16.6022 0.059
16.6325 -0.509
16.6628 0.694
16.6931 0.335
16.7233 0.080
16.7536 -0.227
16.7839 0.508
16.8142 0.879
16.8445 0.000
16.8747 0.214
16.9050 -0.196
16.9353 0.228
16.9656 -0.026
16.9959 0.554
17.0261 -0.063
17.0564 -0.316
17.0867 0.942
17.1170 0.325
17.1472 0.489
17.1775 -0.024
17.2078 -0.119
17.2381 0.358
17.2684 0.055
17.2986 0.376
17.3289 0.229
17.3592 0.603
17.3895 0.457
17.4198 -0.575
17.4500 0.581
17.4803 0.383
17.5106 0.706
17.5409 -0.898
17.5712 0.571
17.6014 0.165
17.6317 0.489
17.6620 -0.020
17.6923 1.189
17.7225 0.420
17.7528 -0.246
17.7831 -0.285
17.8134 0.821
17.8437 0.417
17.8739 1.367
17.9042 -0.131
17.9345 0.560
17.9648 0.417
17.9951 -0.091
18.0253 -0.337
18.0556 0.127
18.0859 0.383
18.1162 0.432
18.1464 0.376
18.1767 -0.097
18.2070 -0.360
18.2373 0.470
18.2676 0.675
18.2978 -0.317
18.3281 0.878
18.3584 0.407
18.3887 0.665
18.4190 0.716
18.4492 0.193
18.4795 0.191
18.5098 0.502
18.5401 0.762
18.5703 -0.333
18.6006 0.499
18.6309 0.342
18.6612 0.498
18.6915 -0.023
18.7217 0.967
18.7520 -0.387
18.7823 0.186
18.8126 0.655
18.8429 0.291
18.8731 0.344
18.9034 0.293
18.9337 0.347
18.9640 -0.173
18.9942 0.037
19.0245 -0.273
19.0548 -0.011
19.0851 0.252
19.1154 -0.162
19.1456 0.153
19.1759 0.520
19.2062 0.627
19.2365 -0.776
19.2668 -0.304
19.2970 -0.202
19.3273 0.368
19.3576 -0.259
19.3879 -0.105
19.4181 0.049
19.4484 0.464
19.4787 0.411
19.5090 -0.164
19.5393 0.356
19.5695 -0.166
19.5998 0.302
19.6301 0.250
19.6604 -0.011
19.6907 0.874
19.7209 -0.116
19.7512 0.353
19.7815 0.198
19.8118 0.146
19.8420 0.251
19.8723 -0.373
19.9026 0.670
19.9329 -0.214
19.9632 0.048
19.9934 -0.159
20.0237 0.155
20.0540 0.001
20.0843 0.524
20.1146 -0.254
20.1448 -0.304
20.1751 -0.405
20.2054 0.431
20.2357 -0.034
20.2659 0.230
20.2962 -0.183
20.3265 0.133
20.3568 0.033
20.3871 0.298
20.4173 0.094
20.4476 -0.423
20.4779 0.051
20.5082 -0.152
20.5385 0.426
20.5687 -0.090
20.5990 -0.136
20.6293 -0.182
20.6596 -0.281
20.6899 0.246
20.7201 0.096
20.7504 0.520
20.7807 0.110
20.8110 -0.040
20.8412 0.228
20.8715 0.287
20.9018 0.138
20.9321 0.146
20.9624 -0.106
20.9926 0.891
21.0229 0.014
21.0532 -0.290
21.0835 -0.082
21.1138 0.386
21.1440 0.281
21.1743 -0.188
21.2046 0.229
21.2349 -0.292
21.2651 0.334
21.2954 0.126
21.3257 0.179
21.3560 0.284
21.3863 -0.340
21.4165 -0.026
21.4468 -0.494
21.4771 0.075
21.5074 -0.034
21.5377 0.587
21.5679 0.322
21.5982 0.318
21.6285 0.158
21.6588 -0.002
21.6890 0.047
21.7193 0.304
21.7496 0.458
21.7799 0.194
21.8102 0.608
21.8404 -0.019
21.8707 0.500
21.9010 -0.857
21.9313 0.235
21.9616 0.546
21.9918 -0.497
22.0221 0.335
22.0524 0.126
22.0827 0.125
22.1129 0.072
22.1432 0.384
22.1735 0.696
22.2038 -0.189
22.2341 0.124
22.2643 0.384
22.2946 0.020
22.3249 0.750
22.3552 -0.239
22.3855 0.387
22.4157 0.128
22.4460 0.077
22.4763 -0.077
22.5066 -0.179
22.5368 0.291
22.5671 -0.071
22.5974 0.140
22.6277 -0.431
22.6580 0.822
22.6882 0.252
22.7185 -0.057
22.7488 -0.002
22.7791 0.314
22.8094 -0.359
22.8396 0.010
22.8699 0.535
22.9002 -0.086
22.9305 -0.290
22.9607 -0.029
22.9910 -0.081
23.0213 -0.081
23.0516 0.233
23.0819 0.234
23.1121 0.078
23.1424 -0.129
23.1727 0.133
23.2030 -0.334
23.2333 0.033
23.2635 0.243
23.2938 0.922
23.3241 1.290
23.3544 -0.010
23.3846 0.358
23.4149 -0.681
23.4452 0.624
23.4755 0.159
23.5058 -0.150
23.5360 0.114
23.5663 0.379
23.5966 -0.086
23.6269 -0.134
23.6572 -0.285
23.6874 -0.181
23.7177 0.288
23.7480 -0.024
23.7783 0.394
23.8086 -0.387
23.8388 -0.125
23.8691 0.293
23.8994 0.034
23.9297 -0.016
23.9599 0.611
23.9902 0.404
24.0205 -0.114
24.0508 0.149
24.0811 0.151
24.1113 -0.054
24.1416 0.157
24.1719 0.056
24.2022 0.164
24.2325 0.845
24.2627 -0.193
24.2930 0.175
24.3233 -0.081
24.3536 -0.076
24.3838 -0.020
24.4141 0.141
24.4444 0.563
24.4747 0.308
24.5050 0.053
24.5352 -0.567
24.5655 0.533
24.5958 -0.086
24.6261 0.909
24.6564 -0.178
24.6866 -0.276
24.7169 -0.018
24.7472 -0.281
24.7775 0.394
24.8077 -0.233
24.8380 0.182
24.8683 0.076
24.8986 0.178
24.9289 -0.031
24.9591 0.020
24.9894 0.696
25.0197 0.382
25.0500 0.903
25.0803 0.017
25.1105 0.017
25.1408 0.225
25.1711 0.798
25.2014 0.017
25.2316 -0.451
25.2619 0.331
25.2922 0.436
25.3225 0.229
25.3528 -0.290
25.3830 0.076
25.4133 0.702
25.4436 -0.337
25.4739 0.446
25.5042 0.917
25.5344 -0.226
25.5647 -0.276
25.5950 0.089
25.6253 0.454
25.6555 0.402
25.6858 0.143
25.7161 0.300
25.7464 0.457
25.7767 0.094
25.8069 0.512
25.8372 0.045
25.8675 0.203
25.8978 -0.056
25.9281 0.051
25.9583 0.418
25.9886 0.420
26.0189 0.007
26.0492 -0.095
26.0794 0.169
26.1097 0.693
26.1400 0.280
26.1703 0.388
26.2006 -0.285
26.2308 -0.346
26.2611 0.427
26.2914 0.524
26.3217 0.047
26.3520 0.404
26.3822 0.293
26.4125 0.442
26.4428 -0.086
26.4731 -0.249
26.5034 0.109
26.5336 0.311
26.5639 -0.373
26.5942 0.142
26.6245 -0.280
26.6547 -0.183
26.6850 0.436
26.7153 -0.091
26.7456 0.320
26.7759 -0.102
26.8061 0.153
26.8364 1.137
26.8667 -0.066
26.8970 -0.227
26.9273 0.081
26.9575 -0.132
26.9878 0.072
27.0181 0.068
27.0484 0.377
27.0786 0.321
27.1089 0.057
27.1392 0.054
27.1695 0.103
27.1998 -0.369
27.2300 0.253
27.2603 -0.218
27.2906 0.249
27.3209 0.351
27.3512 0.036
27.3814 0.347
27.4117 0.241
27.4420 0.292
27.4723 -0.126
27.5025 0.498
27.5328 0.497
27.5631 0.080
27.5934 0.496
27.6237 -0.285
27.6539 0.183
27.6842 -0.389
27.7145 -0.143
27.7448 0.052
27.7751 -0.014
27.8053 0.650
27.8356 0.533
27.8659 0.259
27.8962 -0.118
27.9264 -0.079
27.9567 -0.299
27.9870 -0.053
28.0173 0.142
28.0476 0.545
28.0778 0.272
28.1081 -0.210
28.1384 0.194
28.1687 0.233
28.1990 0.221
28.2292 0.104
28.2595 -0.012
28.2898 1.018
28.3201 -0.192
28.3503 0.317
28.3806 -0.371
28.4109 0.139
28.4412 -0.028
28.4715 0.013
28.5017 -0.102
28.5320 0.096
28.5623 0.711
28.5926 -0.966
28.6229 -0.194
28.6531 0.213
28.6834 -0.474
28.7137 0.351
28.7440 -0.544
28.7742 0.281
28.8045 -0.145
28.8348 -0.205
28.8651 0.360
28.8954 -0.221
28.9256 0.396
28.9559 -0.706
28.9862 0.068
29.0165 -0.095
29.0468 0.366
29.0770 0.568
29.1073 0.092
29.1376 0.606
29.1679 0.027
29.1981 -0.239
29.2284 0.119
29.2587 0.166
29.2890 0.421
29.3193 -0.054
29.3495 -0.007
29.3798 0.197
29.4101 -0.068
29.4404 -0.333
29.4707 -0.041
29.5009 -0.060
29.5312 -0.444
29.5615 0.214
29.5918 0.456
29.6221 0.020
29.6523 -0.155
29.6826 0.192
29.7129 0.174
29.7432 0.416
29.7734 0.398
29.8037 -0.401
29.8340 0.051
29.8643 -0.123
29.8946 0.485
29.9248 0.260
29.9551 0.035
29.9854 0.227
30.0157 0.732
30.0460 -0.065
30.0762 0.440
30.1065 0.528
30.1368 0.200
30.1671 0.081
30.1973 0.535
30.2276 -0.001
30.2579 1.182
30.2882 0.282
30.3185 0.268
30.3487 0.202
30.3790 0.396
30.4093 1.112
30.4396 0.734
30.4699 -0.113
30.5001 1.072
30.5304 1.267
30.5607 -0.204
30.5910 1.034
30.6212 0.761
30.6515 1.530
30.6818 1.466
30.7121 1.089
30.7424 1.130
30.7726 2.004
30.8029 2.357
30.8332 1.930
30.8635 1.398
30.8938 2.533
30.9240 2.835
30.9543 3.763
30.9846 2.919
31.0149 2.701
31.0451 3.108
31.0754 4.713
31.1057 5.225
31.1360 4.851
31.1663 6.248
31.1965 7.281
31.2268 7.846
31.2571 8.150
31.2874 10.017
31.3177 11.050
31.3479 11.720
31.3782 15.254
31.4085 15.403
31.4388 17.062
31.4690 19.816
31.4993 22.830
31.5296 23.240
31.5599 28.233
31.5902 30.675
31.6204 26.242
31.6507 29.465
31.6810 27.064
31.7113 25.079
31.7416 25.178
31.7718 21.111
31.8021 20.585
31.8324 15.893
31.8627 12.867
31.8929 12.082
31.9232 10.515
31.9535 11.345
31.9838 7.903
32.0141 5.973
32.0443 5.917
32.0746 5.498
32.1049 5.026
32.1352 4.763
32.1655 4.969
32.1957 3.195
32.2260 3.766
32.2563 2.149
32.2866 3.502
32.3169 2.667
32.3471 1.780
32.3774 0.893
32.4077 1.622
32.4380 2.454
32.4682 1.203
32.4985 0.943
32.5288 0.578
32.5591 1.203
32.5894 0.682
32.6196 0.526
32.6499 0.839
32.6802 0.215
32.7105 0.476
32.7408 0.529
32.7710 0.478
32.8013 -0.353
32.8316 -0.039
32.8619 -0.246
32.8921 1.058
32.9224 0.019
32.9527 0.959
32.9830 -0.288
33.0133 -0.494
33.0435 0.331
33.0738 1.469
33.1041 0.315
33.1344 0.672
33.1647 1.133
33.1949 0.449
33.2252 0.442
33.2555 0.539
33.2858 0.115
33.3160 0.317
33.3463 0.571
33.3766 1.763
33.4069 1.444
33.4372 1.126
33.4674 0.495
33.4977 0.750
33.5280 0.849
33.5583 0.792
33.5886 1.464
33.6188 0.783
33.6491 0.934
33.6794 2.284
33.7097 0.874
33.7399 0.818
33.7702 0.971
33.8005 1.852
33.8308 2.578
33.8611 2.263
33.8913 2.468
33.9216 2.465
33.9519 5.379
33.9822 5.846
34.0125 6.260
34.0427 7.144
34.0730 9.277
34.1033 10.682
34.1336 14.535
34.1638 15.627
34.1941 21.043
34.2244 27.240
34.2547 34.479
34.2850 33.593
34.3152 29.791
34.3455 30.416
34.3758 24.166
34.4061 20.052
34.4364 16.198
34.4666 10.626
34.4969 10.887
34.5272 8.180
34.5575 6.879
34.5877 4.693
34.6180 5.632
34.6483 4.228
34.6786 4.126
34.7089 3.295
34.7391 2.985
34.7694 3.613
34.7997 4.292
34.8300 2.525
34.8603 3.205
34.8905 2.896
34.9208 1.754
34.9511 2.487
34.9814 2.126
35.0116 1.974
35.0419 1.457
35.0722 2.347
35.1025 2.456
35.1328 2.149
35.1630 3.039
35.1933 2.263
35.2236 2.686
35.2539 3.629
35.2842 3.947
35.3144 2.130
35.3447 4.220
35.3750 3.862
35.4053 3.504
35.4356 3.563
35.4658 4.247
35.4961 6.286
35.5264 6.137
35.5567 5.572
35.5869 7.194
35.6172 7.046
35.6475 8.460
35.6778 9.614
35.7081 10.561
35.7383 12.132
35.7686 14.016
35.7989 14.129
35.8292 16.482
35.8595 18.367
35.8897 21.866
35.9200 24.741
35.9503 27.199
35.9806 28.876
36.0108 33.886
36.0411 37.022
36.0714 38.856
36.1017 41.419
36.1320 39.868
36.1622 42.067
36.1925 37.235
36.2228 33.965
36.2531 31.425
36.2834 28.885
36.3136 26.346
36.3439 22.660
36.3742 18.871
36.4045 16.645
36.4347 14.054
36.4650 13.390
36.4953 10.122
36.5256 9.719
36.5559 8.171
36.5861 8.966
36.6164 6.116
36.6467 5.037
36.6770 7.291
36.7073 4.806
36.7375 5.030
36.7678 3.899
36.7981 3.133
36.8284 3.774
36.8586 3.321
36.8889 2.556
36.9192 2.416
36.9495 2.485
36.9798 1.408
37.0100 1.685
37.0403 1.233
37.0706 1.719
37.1009 2.153
37.1312 1.129
37.1614 1.147
37.1917 1.165
37.2220 0.558
37.2523 1.098
37.2825 1.220
37.3128 0.145
37.3431 0.737
37.3734 0.600
37.4037 1.349
37.4339 0.535
37.4642 -0.070
37.4945 0.314
37.5248 -0.395
37.5551 0.198
37.5853 0.375
37.6156 0.135
37.6459 0.156
37.6762 1.011
37.7064 0.251
37.7367 -0.040
37.7670 0.398
37.7973 0.628
37.8276 0.442
37.8578 0.100
37.8881 0.799
37.9184 0.093
37.9487 0.011
37.9790 0.138
38.0092 0.162
38.0395 -0.544
38.0698 0.417
38.1001 0.649
38.1304 0.100
38.1606 0.020
38.1909 0.357
38.2212 -0.400
38.2515 -0.167
38.2817 -0.194
38.3120 -0.117
38.3423 0.325
38.3726 0.507
38.4029 0.429
38.4331 0.142
38.4634 0.429
38.4937 0.351
38.5240 0.429
38.5543 -0.013
38.5845 0.222
38.6148 0.666
38.6451 0.381
38.6754 -0.269
38.7056 -0.189
38.7359 -0.266
38.7662 0.154
38.7965 0.104
38.8268 -0.206
38.8570 0.631
38.8873 0.686
38.9176 0.065
38.9479 0.172
38.9782 0.176
39.0084 -0.184
39.0387 0.549
39.0690 0.085
39.0993 0.298
39.1295 0.563
39.1598 -0.578
39.1901 -0.260
39.2204 0.418
39.2507 0.211
39.2809 -0.256
39.3112 0.371
39.3415 -0.356
39.3718 0.323
39.4021 -0.143
39.4323 0.016
39.4626 0.227
39.4929 0.334
39.5232 -0.028
39.5534 -0.389
39.5837 0.344
39.6140 0.191
39.6443 0.664
39.6746 0.356
39.7048 0.100
39.7351 -0.104
39.7654 -0.151
39.7957 0.010
39.8260 0.432
39.8562 0.437
39.8865 -0.131
39.9168 0.031
39.9471 -0.275
39.9773 0.095
40.0076 0.206
40.0379 0.056
40.0682 -0.250
40.0985 -0.042
40.1287 0.010
40.1590 -0.042
40.1893 0.270
40.2196 0.427
40.2499 0.271
40.2801 0.167
40.3104 0.116
40.3407 0.430
40.3710 0.170
40.4012 0.015
40.4315 -0.243
40.4618 -0.085
40.4921 0.021
40.5224 0.231
40.5526 -0.079
40.5829 0.340
40.6132 -0.021
40.6435 0.034
40.6738 0.245
40.7040 0.248
40.7343 0.460
40.7646 -0.005
40.7949 -0.157
40.8251 -0.309
40.8554 0.580
40.8857 0.116
40.9160 0.329
40.9463 -0.083
40.9765 0.391
41.0068 -0.020
41.0371 0.246
41.0674 0.355
41.0977 0.257
41.1279 -0.206
41.1582 0.842
41.1885 -0.089
41.2188 -0.239
41.2491 -0.081
41.2793 0.077
41.3096 0.235
41.3399 -0.284
41.3702 -0.022
41.4004 0.032
41.4307 0.556
41.4610 -0.640
41.4913 -0.168
41.5216 0.096
41.5518 0.411
41.5821 0.050
41.6124 0.210
41.6427 0.735
41.6730 -0.147
41.7032 -0.039
41.7335 0.278
41.7638 0.075
41.7941 0.131
41.8243 0.032
41.8546 0.194
41.8849 0.720
41.9152 0.257
41.9455 0.002
41.9757 0.424
42.0060 0.587
42.0363 0.020
42.0666 0.235
42.0969 -0.227
42.1271 -0.230
42.1574 0.392
42.1877 -0.236
42.2180 0.282
42.2482 0.072
42.2785 0.226
42.3088 0.849
42.3391 0.378
42.3694 0.168
42.3996 0.167
42.4299 -0.303
42.4602 0.268
42.4905 0.007
42.5208 0.579
42.5510 0.266
42.5813 0.422
42.6116 -0.203
42.6419 -0.046
42.6721 0.527
42.7024 0.006
42.7327 0.215
42.7630 0.268
42.7933 -0.043
42.8235 -0.094
42.8538 0.064
42.8841 0.274
42.9144 0.380
42.9447 -0.087
42.9749 0.905
43.0052 0.439
43.0355 0.337
43.0658 0.444
43.0960 0.030
43.1263 -0.227
43.1566 -0.182
43.1869 0.071
43.2172 0.221
43.2474 -0.098
43.2777 -0.001
43.3080 -0.215
43.3383 0.248
43.3686 -0.279
43.3988 0.705
43.4291 0.387
43.4594 0.173
43.4897 -0.404
43.5199 0.580
43.5502 0.315
43.5805 -0.523
43.6108 -0.110
43.6411 -0.062
43.6713 0.559
43.7016 -0.122
43.7319 0.343
43.7622 0.236
43.7925 -0.184
43.8227 -0.031
43.8530 -0.086
43.8833 0.277
43.9136 -0.143
43.9439 -0.041
43.9741 0.010
44.0044 0.164
44.0347 0.110
44.0650 -0.151
44.0952 0.316
44.1255 0.055
44.1558 0.054
44.1861 0.157
44.2164 -0.103
44.2466 0.209
44.2769 0.000
44.3072 0.209
44.3375 0.365
44.3678 -0.311
44.3980 -0.315
44.4283 0.567
44.4586 0.199
44.4889 0.404
44.5191 0.297
44.5494 0.034
44.5797 -0.021
44.6100 0.029
44.6403 0.235
44.6705 0.077
44.7008 -0.081
44.7311 0.022
44.7614 0.020
44.7917 0.540
44.8219 -0.399
44.8522 0.173
44.8825 0.121
44.9128 -0.244
44.9430 -0.093
44.9733 0.059
45.0036 0.159
45.0339 0.051
45.0642 -0.057
45.0944 0.512
45.1247 0.404
45.1550 0.401
45.1853 -0.540
45.2156 0.656
45.2458 -0.233
45.2761 -0.131
45.3064 0.127
45.3367 -0.188
45.3669 0.123
45.3972 0.017
45.4275 0.380
45.4578 0.170
45.4881 -0.352
45.5183 0.168
45.5486 -0.145
45.5789 -0.250
45.6092 0.000
45.6395 -0.011
45.6697 0.291
45.7000 0.021
45.7303 -0.406
45.7606 0.261
45.7908 -0.322
45.8211 0.346
45.8514 0.076
45.8817 -0.037
45.9120 -0.046
45.9422 0.310
45.9725 0.197
46.0028 -0.176
46.0331 -0.184
46.0634 -0.035
46.0936 0.374
46.1239 0.418
46.1542 0.098
46.1845 0.403
46.2147 -0.229
46.2450 -0.079
46.2753 0.071
46.3056 -0.248
46.3359 -0.202
46.3661 0.208
46.3964 0.567
46.4267 -0.064
46.4570 0.348
46.4873 0.863
46.5175 0.285
46.5478 0.384
46.5781 -0.193
46.6084 0.532
46.6386 0.267
46.6689 0.627
46.6992 0.363
46.7295 0.724
46.7598 1.502
46.7900 0.821
46.8203 1.443
46.8506 0.555
46.8809 0.812
46.9112 1.278
46.9414 1.536
46.9717 1.586
47.0020 2.157
47.0323 2.676
47.0626 2.206
47.0928 2.725
47.1231 2.203
47.1534 2.775
47.1837 4.545
47.2139 4.024
47.2442 4.752
47.2745 5.690
47.3048 6.992
47.3351 5.325
47.3653 7.513
47.3956 7.305
47.4259 7.566
47.4562 7.098
47.4865 6.891
47.5167 7.778
47.5470 5.696
47.5773 5.385
47.6076 4.866
47.6378 3.670
47.6681 3.620
47.6984 3.727
47.7287 3.001
47.7590 2.795
47.7892 2.538
47.8195 2.385
47.8498 1.450
47.8801 0.256
47.9104 0.989
47.9406 0.681
47.9709 1.466
48.0012 0.741
48.0315 0.902
48.0617 0.646
48.0920 1.068
48.1223 0.344
48.1526 0.609
48.1829 -0.114
48.2131 0.100
48.2434 0.106
48.2737 0.060
48.3040 0.326
48.3343 -0.032
48.3645 0.131
48.3948 -0.174
48.4251 0.093
48.4554 0.100
48.4856 -0.413
48.5159 0.219
48.5462 0.748
48.5765 0.444
48.6068 -0.434
48.6370 -0.217
48.6673 -0.260
48.6976 0.158
48.7279 0.316
48.7582 -0.099
48.7884 0.111
48.8187 0.165
48.8490 0.116
48.8793 0.066
48.9095 0.069
48.9398 -0.032
48.9701 0.127
49.0004 0.339
49.0307 0.030
49.0609 0.242
49.0912 0.246
49.1215 0.198
49.1518 -0.423
49.1821 0.258
49.2123 -0.310
49.2426 0.476
49.2729 -0.300
49.3032 0.330
49.3334 -0.185
49.3637 0.550
49.3940 0.764
49.4243 0.145
49.4546 -0.109
49.4848 -0.259
49.5151 0.165
49.5454 -0.037
49.5757 0.179
49.6060 -0.178
49.6362 -0.170
49.6665 0.254
49.6968 0.367
49.7271 0.375
49.7574 -0.085
49.7876 -0.285
49.8179 0.130
49.8482 0.180
49.8785 0.231
49.9087 0.438
49.9390 -0.083
49.9693 0.124
49.9996 -0.501
50.0299 0.175
50.0601 0.227
50.0904 -0.502
50.1207 0.019
50.1510 0.228
50.1813 -0.136
50.2115 0.281
50.2418 -0.082
50.2721 0.283
50.3024 -0.340
50.3326 -0.131
50.3629 -0.337
50.3932 0.185
50.4235 -0.022
50.4538 -0.228
50.4840 0.503
50.5143 0.245
50.5446 -0.325
50.5749 0.458
50.6052 0.149
50.6354 -0.473
50.6657 0.207
50.6960 0.210
50.7263 -0.307
50.7565 0.166
50.7868 -0.403
50.8171 -0.087
50.8474 0.022
50.8777 0.235
50.9079 -0.125
50.9382 0.088
50.9685 -0.063
50.9988 -0.110
51.0291 -0.104
51.0593 -0.098
51.0896 0.012
51.1199 0.122
51.1502 -0.028
51.1804 -0.126
51.2107 0.037
51.2410 0.565
51.2713 -0.001
51.3016 -0.098
51.3318 0.274
51.3621 0.021
51.3924 -0.075
51.4227 0.402
51.4530 -0.059
51.4832 -0.311
51.5135 0.107
51.5438 0.786
51.5741 0.267
51.6043 0.373
51.6346 0.271
51.6649 0.377
51.6952 0.276
51.7255 0.018
51.7557 0.282
51.7860 -0.080
51.8163 -0.337
51.8466 0.129
51.8769 -0.291
51.9071 -0.033
51.9374 0.485
51.9677 -0.142
51.9980 -0.040
52.0282 0.583
52.0585 0.372
52.0888 0.267
52.1191 0.265
52.1494 -0.048
52.1796 0.471
52.2099 0.054
52.2402 0.158
52.2705 -0.103
52.3008 0.261
52.3310 0.157
52.3613 -0.156
52.3916 -0.051
52.4219 -0.259
52.4521 0.099
52.4824 0.092
52.5127 -0.227
52.5430 -0.234
52.5733 0.384
52.6035 0.012
52.6338 -0.047
52.6641 0.259
52.6944 -0.007
52.7247 0.664
52.7549 0.345
52.7852 0.600
52.8155 -0.343
52.8458 0.485
52.8761 0.219
52.9063 0.006
52.9366 0.314
52.9669 0.257
52.9972 -0.008
53.0274 0.352
53.0577 -0.277
53.0880 -0.228
53.1183 0.497
53.1486 0.129
53.1788 -0.239
53.2091 -0.189
53.2394 0.329
53.2697 -0.038
53.3000 0.064
53.3302 0.166
53.3605 0.164
53.3908 -0.202
53.4211 0.265
53.4513 0.628
53.4816 0.054
53.5119 -0.259
53.5422 -0.007
53.5725 0.193
53.6027 -0.075
53.6330 -0.031
53.6633 -0.038
53.6936 -0.202
53.7239 0.364
53.7541 -0.112
53.7844 0.090
53.8147 -0.073
53.8450 0.129
53.8752 -0.189
53.9055 0.065
53.9358 -0.201
53.9661 0.679
53.9964 0.361
54.0266 0.147
54.0569 -0.014
54.0872 0.190
54.1175 0.029
54.1478 -0.184
54.1780 -0.240
54.2083 -0.036
54.2386 0.220
54.2689 -0.408
54.2991 -0.047
54.3294 -0.050
54.3597 -0.106
54.3900 0.204
54.4203 -0.059
54.4505 -0.218
54.4808 0.040
54.5111 0.194
54.5414 -0.120
54.5717 0.191
54.6019 0.033
54.6322 0.188
54.6625 -0.282
54.6928 0.029
54.7230 0.445
54.7533 0.028
54.7836 0.028
54.8139 -0.441
54.8442 0.018
54.8744 0.061
54.9047 0.052
54.9350 0.356
54.9653 0.192
54.9956 0.131
55.0258 -0.085
55.0561 0.011
55.0864 0.525
55.1167 0.257
55.1469 -0.011
55.1772 0.034
55.2075 0.183
55.2378 0.541
55.2681 0.222
55.2983 0.164
55.3286 -0.155
55.3589 0.412
55.3892 0.198
55.4195 0.193
55.4497 0.448
55.4800 0.495
55.5103 0.802
55.5406 0.485
55.5709 0.533
55.6011 0.528
55.6314 0.889
55.6617 0.676
55.6920 0.412
55.7222 0.877
55.7525 0.822
55.7828 0.350
55.8131 1.336
55.8434 1.125
55.8736 1.904
55.9039 1.328
55.9342 1.170
55.9645 2.314
55.9948 2.051
56.0250 2.102
56.0553 2.413
56.0856 2.932
56.1159 3.817
56.1461 3.816
56.1764 4.440
56.2067 5.273
56.2370 4.856
56.2673 5.272
56.2975 6.210
56.3278 7.252
56.3581 8.190
56.3884 9.336
56.4187 8.764
56.4489 7.984
56.4792 10.277
56.5095 10.174
56.5398 7.936
56.5700 8.302
56.6003 7.783
56.6306 7.212
56.6609 5.548
56.6912 5.551
56.7214 4.043
56.7517 4.567
56.7820 3.632
56.8123 3.063
56.8426 3.535
56.8728 2.497
56.9031 2.449
56.9334 2.245
56.9637 2.249
56.9939 2.149
57.0242 1.164
57.0545 1.169
57.0848 1.174
57.1151 0.971
57.1453 1.185
57.1756 1.555
57.2059 0.936
57.2362 0.525
57.2665 0.896
57.2967 0.850
57.3270 0.232
57.3573 0.395
57.3876 0.766
57.4178 0.461
57.4481 0.052
57.4784 0.215
57.5087 0.119
57.5390 -0.238
57.5692 0.395
57.5995 0.039
57.6298 0.152
57.6601 0.004
57.6904 -0.143
57.7206 -0.394
57.7509 0.604
57.7812 0.458
57.8115 0.103
57.8417 0.112
57.8720 -0.294
57.9023 0.706
57.9326 0.195
57.9629 0.310
57.9931 0.060
58.0234 0.540
58.0537 0.343
58.0840 -0.114
58.1143 -0.311
58.1445 0.161
58.1748 0.164
58.2051 0.012
58.2354 0.328
58.2656 0.072
58.2959 -0.289
58.3262 0.080
58.3565 0.241
58.3868 -0.170
58.4170 -0.061
58.4473 -0.212
58.4776 -0.311
58.5079 0.265
58.5382 -0.408
58.5684 0.116
58.5987 -0.036
58.6290 -0.136
58.6593 0.233
58.6896 0.030
58.7198 0.139
58.7501 0.039
58.7804 0.201
58.8107 -0.575
58.8409 0.316
58.8712 -0.147
58.9015 0.275
58.9318 -0.083
58.9621 -0.389
58.9923 0.132
59.0226 0.028
59.0529 -0.179
59.0832 -0.334
59.1135 0.240
59.1437 -0.280
59.1740 0.243
59.2043 -0.068
59.2346 0.038
59.2648 0.301
59.2951 -0.322
59.3254 0.826
59.3557 0.256
59.3860 -0.106
59.4162 0.106
59.4465 -0.204
59.4768 -0.096
59.5071 0.064
59.5374 0.068
59.5676 0.124
59.5979 0.232
59.6282 0.133
59.6585 0.033
59.6887 0.403
59.7190 0.251
59.7493 -0.160
59.7796 -0.311
59.8099 0.202
59.8401 -0.013
59.8704 0.188
59.9007 0.442
59.9310 -0.190
59.9613 -0.040
59.9915 0.266
60.0218 -0.001
60.0521 0.150
60.0824 -0.325
60.1126 -0.070
60.1429 -0.179
60.1732 0.597
60.2035 0.175
60.2338 0.222
60.2640 0.530
60.2943 0.161
60.3246 0.157
60.3549 -0.055
60.3852 0.097
60.4154 0.094
60.4457 -0.222
60.4760 0.608
60.5063 -0.385
60.5365 0.342
60.5668 0.026
60.5971 -0.080
60.6274 -0.239
60.6577 0.017
60.6879 0.168
60.7182 -0.150
60.7485 0.315
60.7788 -0.419
60.8091 0.150
60.8393 0.250
60.8696 -0.744
60.8999 0.451
60.9302 0.291
60.9604 0.131
60.9907 -0.028
61.0210 -0.135
61.0513 -0.086
61.0816 0.016
61.1118 0.066
61.1421 0.428
61.1724 0.374
61.2027 -0.148
61.2330 0.110
61.2632 -0.047
61.2935 0.108
61.3238 0.680
61.3541 0.523
61.3844 -0.415
61.4146 -0.103
61.4449 0.157
61.4752 0.313
61.5055 0.053
61.5357 -0.415
61.5660 -0.007
61.5963 1.027
61.6266 -0.074
61.6569 0.440
61.6871 -0.088
61.7174 0.426
61.7477 0.419
61.7780 0.412
61.8083 0.302
61.8385 0.608
61.8688 0.186
61.8991 0.284
61.9294 0.591
61.9596 0.065
61.9899 0.216
62.0202 0.992
62.0505 0.518
62.0808 1.087
62.1110 1.968
62.1413 0.922
62.1716 0.761
62.2019 1.955
62.2322 2.108
62.2624 2.157
62.2927 1.580
62.3230 1.681
62.3533 2.512
62.3835 2.509
62.4138 3.184
62.4441 3.858
62.4744 3.283
62.5047 4.531
62.5349 4.582
62.5652 5.518
62.5955 5.725
62.6258 7.338
62.6561 7.389
62.6863 6.607
62.7166 7.440
62.7469 6.502
62.7772 7.648
62.8074 7.752
62.8377 6.867
62.8680 6.138
62.8983 6.659
62.9286 4.629
62.9588 4.578
62.9891 4.943
63.0194 4.320
63.0497 3.332
63.0800 2.604
63.1102 2.971
63.1405 1.723
63.1708 1.517
63.2011 2.561
63.2313 1.990
63.2616 1.004
63.2919 1.007
63.3222 1.323
63.3525 1.066
63.3827 0.444
63.4130 0.240
63.4433 1.546
63.4736 0.196
63.5039 0.929
63.5341 0.049
63.5644 1.355
63.5947 0.215
63.6250 0.584
63.6552 0.746
63.6855 -0.082
63.7158 -0.024
63.7461 0.190
63.7764 0.509
63.8066 0.463
63.8369 0.418
63.8672 -0.305
63.8975 0.171
63.9278 0.074
63.9580 0.446
63.9883 -0.484
64.0186 0.096
64.0489 0.312
64.0791 -0.148
64.1094 -0.244
64.1397 -0.190
64.1700 0.489
64.2003 0.022
64.2305 -0.079
64.2608 -0.129
64.2911 -0.178
64.3214 -0.123
64.3517 0.036
64.3819 -0.221
64.4122 -0.217
64.4425 0.047
64.4728 -0.313
64.5031 0.576
64.5333 0.164
64.5636 0.377
64.5939 -0.452
64.6242 -0.239
64.6544 0.287
64.6847 -0.124
64.7150 0.038
64.7453 0.305
64.7756 -0.210
64.8058 0.004
64.8361 0.271
64.8664 0.538
64.8967 0.181
64.9270 0.188
64.9572 0.039
64.9875 -0.110
65.0178 -0.311
65.0481 0.150
65.0783 0.143
65.1086 -0.124
65.1389 0.181
65.1692 0.227
65.1995 0.064
65.2297 0.318
65.2600 0.000
65.2903 -0.111
65.3206 -0.220
65.3509 0.451
65.3811 0.446
65.4114 0.232
65.4417 0.175
65.4720 0.171
65.5022 0.062
65.5325 0.006
65.5628 -0.363
65.5931 0.043
65.6234 0.450
65.6536 0.388
65.6839 0.326
65.7142 0.629
65.7445 0.411
65.7748 -0.327
65.8050 0.706
65.8353 0.384
65.8656 0.428
65.8959 0.992
65.9261 0.516
65.9564 0.820
65.9867 0.500
66.0170 0.857
66.0473 0.849
66.0775 0.634
66.1078 1.148
66.1381 0.359
66.1684 0.561
66.1987 0.451
66.2289 0.653
66.2592 1.011
66.2895 0.901
66.3198 0.791
66.3500 0.838
66.3803 0.833
66.4106 0.619
66.4409 0.770
66.4712 0.297
66.5014 0.240
66.5317 0.340
66.5620 0.805
66.5923 0.592
66.6226 -0.193
66.6528 0.585
66.6831 0.321
66.7134 -0.203
66.7437 0.367
66.7739 0.417
66.8042 0.101
66.8345 -0.266
66.8648 -0.116
66.8951 0.554
66.9253 0.234
66.9556 0.332
66.9859 0.325
67.0162 0.007
67.0465 0.261
67.0767 0.464
67.1070 0.771
67.1373 0.557
67.1676 -0.021
67.1978 0.807
67.2281 1.219
67.2584 0.589
67.2887 1.366
67.3190 1.466
67.3492 0.889
67.3795 1.822
67.4098 1.298
67.4401 1.450
67.4704 2.228
67.5006 2.798
67.5309 2.951
67.5612 2.740
67.5915 3.363
67.6218 3.673
67.6520 3.358
67.6823 5.596
67.7126 3.771
67.7429 4.394
67.7731 4.862
67.8034 5.954
67.8337 5.328
67.8640 4.650
67.8943 4.337
67.9245 5.587
67.9548 4.805
67.9851 4.389
68.0154 3.607
68.0457 4.024
68.0759 3.556
68.1062 2.515
68.1365 3.506
68.1668 2.153
68.1970 2.675
68.2273 2.832
68.2576 1.324
68.2879 1.690
68.3182 1.119
68.3484 0.965
68.3787 2.270
68.4090 0.710
68.4393 1.338
68.4696 1.445
68.4998 1.084
68.5301 1.399
68.5604 1.143
68.5907 1.511
68.6209 1.098
68.6512 1.519
68.6815 1.471
68.7118 2.049
68.7421 1.168
68.7723 1.225
68.8026 2.220
68.8329 1.913
68.8632 2.179
68.8935 1.351
68.9237 1.565
68.9540 1.936
68.9843 0.900
69.0146 1.949
69.0448 1.851
69.0751 1.650
69.1054 2.230
69.1357 1.664
69.1660 1.880
69.1962 1.314
69.2265 1.999
69.2568 0.757
69.2871 0.922
69.3174 0.722
69.3476 0.782
69.3779 1.104
69.4082 0.592
69.4385 0.757
69.4687 0.454
69.4990 0.672
69.5293 0.630
69.5596 0.587
69.5899 0.129
69.6201 -0.330
69.6504 0.254
69.6807 -0.100
69.7110 0.432
69.7413 0.234
69.7715 0.141
69.8018 0.049
69.8321 0.113
69.8624 -0.136
69.8926 -0.072
69.9229 -0.320
69.9532 0.369
69.9835 -0.660
70.0138 -0.022
70.0440 0.199
70.0743 -0.152
70.1046 0.695
70.1349 0.188
70.1652 -0.163
70.1954 0.007
70.2257 0.229
70.2560 0.088
70.2863 0.050
70.3166 -0.039
70.3468 -0.337
70.3771 0.087
70.4074 0.251
70.4377 0.154
70.4679 -0.046
70.4982 -0.299
70.5285 0.178
70.5588 0.604
70.5891 -0.117
70.6193 0.256
70.6496 -0.307
70.6799 0.066
70.7102 0.180
70.7405 -0.227
70.7707 0.043
70.8010 0.366
70.8313 0.063
70.8616 -0.135
70.8918 -0.020
70.9221 0.147
70.9524 -0.207
70.9827 -0.106
71.0130 0.047
71.0432 0.097
71.0735 0.459
71.1038 0.300
71.1341 0.350
71.1644 0.139
71.1946 0.190
71.2249 -0.333
71.2552 -0.074
71.2855 0.081
71.3157 -0.493
71.3460 -0.026
71.3763 0.233
71.4066 -0.237
71.4369 0.231
71.4671 0.282
71.4974 0.073
71.5277 0.020
71.5580 0.020
71.5883 -0.084
71.6185 0.228
71.6488 -0.240
71.6791 -0.031
71.7094 0.126
71.7396 -0.186
71.7699 0.128
71.8002 -0.236
71.8305 0.182
71.8608 -0.285
71.8910 -0.130
71.9213 0.077
71.9516 0.023
71.9819 -0.082
72.0122 0.386
72.0424 -0.084
72.0727 0.176
72.1030 0.228
72.1333 0.123
72.1635 0.175
72.1938 0.384
72.2241 0.541
72.2544 0.177
72.2847 0.281
72.3149 0.022
72.3452 0.492
72.3755 0.285
72.4058 0.599
72.4361 0.288
72.4663 0.655
72.4966 0.240
72.5269 0.763
72.5572 0.558
72.5874 0.456
72.6177 0.459
72.6480 0.202
72.6783 -0.264
72.7086 0.156
72.7388 0.629
72.7691 0.268
72.7994 0.168
72.8297 -0.088
72.8600 0.229
72.8902 0.129
72.9205 -0.127
72.9508 -0.017
72.9811 -0.012
73.0113 -0.215
73.0416 0.311
73.0719 -0.048
73.1022 0.167
73.1325 0.069
73.1627 -0.289
73.1930 0.030
73.2233 0.036
73.2536 0.043
73.2839 -0.314
73.3141 0.162
73.3444 -0.039
73.3747 0.125
73.4050 0.393
73.4353 0.401
73.4655 -0.007
73.4958 0.418
73.5261 -0.094
73.5564 0.175
73.5866 -0.337
73.6169 -0.134
73.6472 0.068
73.6775 0.063
73.7078 0.161
73.7380 -0.209
73.7683 0.099
73.7986 0.250
73.8289 0.194
73.8592 -0.123
73.8894 0.029
73.9197 -0.028
73.9500 -0.188
73.9803 -0.245
74.0105 0.374
74.0408 0.577
74.0711 0.052
74.1014 0.099
74.1317 -0.010
74.1619 -0.118
74.1922 -0.123
74.2225 -0.075
74.2528 -0.026
74.2831 -0.134
74.3133 0.071
74.3436 -0.141
74.3739 0.013
74.4042 0.010
74.4344 -0.462
74.4647 0.265
74.4950 0.367
74.5253 -0.260
74.5556 -0.054
74.5858 -0.055
74.6161 -0.109
74.6464 0.358
74.6767 -0.372
74.7070 0.044
74.7372 0.303
74.7675 -0.010
74.7978 0.146
74.8281 -0.062
74.8583 0.146
74.8886 -0.166
74.9189 -0.061
74.9492 0.200
74.9795 0.148
75.0097 0.201
75.0400 -0.162
75.0703 0.256
75.1006 0.101
75.1309 0.051
75.1611 0.001
75.1914 -0.153
75.2217 0.474
75.2520 -0.096
75.2822 -0.146
75.3125 -0.195
75.3428 0.173
75.3731 0.072
75.4034 -0.029
75.4336 0.027
75.4639 0.291
75.4942 -0.226
75.5245 -0.065
75.5548 -0.009
75.5850 0.100
75.6153 -0.156
75.6456 0.110
75.6759 0.219
75.7061 0.016
75.7364 0.230
75.7667 -0.129
75.7970 -0.175
75.8273 0.039
75.8575 0.254
75.8878 0.104
75.9181 -0.097
75.9484 0.066
75.9787 0.021
76.0089 -0.180
76.0392 -0.080
76.0695 0.280
76.0998 -0.036
76.1301 0.012
76.1603 0.217
76.1906 -0.203
76.2209 -0.049
76.2512 0.104
76.2814 0.153
76.3117 0.203
76.3420 -0.112
76.3723 -0.114
76.4026 0.197
76.4328 0.195
76.4631 0.246
76.4934 0.453
76.5237 0.348
76.5540 0.815
76.5842 0.242
76.6145 0.449
76.6448 0.710
76.6751 0.657
76.7053 0.345
76.7356 0.553
76.7659 0.033
76.7962 0.815
76.8265 0.503
76.8567 0.817
76.8870 0.558
76.9173 0.767
76.9476 0.404
76.9779 0.302
77.0081 1.189
77.0384 0.462
77.0687 0.673
77.0990 0.832
77.1292 0.574
77.1595 0.369
77.1898 0.997
77.2201 0.063
77.2504 0.222
77.2806 0.226
77.3109 -0.031
77.3412 0.390
77.3715 0.186
77.4018 0.034
77.4320 0.299
77.4623 -0.217
77.4926 0.205
77.5229 0.158
77.5531 0.216
77.5834 0.482
77.6137 0.436
77.6440 0.494
77.6743 0.291
77.7045 -0.067
77.7348 -0.008
77.7651 0.207
77.7954 0.370
77.8257 0.117
77.8559 -0.084
77.8862 0.184
77.9165 0.817
77.9468 0.252
77.9770 0.051
78.0073 -0.357
78.0376 0.277
78.0679 0.442
78.0982 0.555
78.1284 -0.061
78.1587 -0.156
78.1890 0.098
78.2193 0.041
78.2496 0.296
78.2798 0.082
78.3101 0.129
78.3404 0.073
78.3707 0.068
78.4009 0.116
78.4312 0.059
78.4615 0.628
78.4918 0.572
78.5221 0.361
78.5523 0.305
78.5826 0.041
78.6129 -0.066
78.6432 0.088
78.6735 0.502
78.7037 0.030
78.7340 -0.232
78.7643 0.021
78.7946 0.274
78.8248 -0.150
78.8551 0.052
78.8854 -0.007
78.9157 0.455
78.9460 0.397
78.9762 -0.078
79.0065 0.072
79.0368 0.015
79.0671 0.426
79.0974 -0.153
79.1276 0.207
79.1579 -0.058
79.1882 -0.063
79.2185 0.089
79.2488 -0.072
79.2790 -0.180
79.3093 -0.029
79.3396 0.383
79.3699 -0.038
79.4001 0.374
79.4304 -0.046
79.4607 0.262
79.4910 0.050
79.5213 0.203
79.5515 0.304
79.5818 0.301
79.6121 -0.014
79.6424 -0.017
79.6727 0.085
79.7029 -0.022
79.7332 0.132
79.7635 0.026
79.7938 0.233
79.8240 0.075
79.8543 -0.135
79.8846 -0.188
79.9149 -0.090
79.9452 -0.043
79.9754 0.003
80.0057 0.467
80.0360 -0.111
80.0663 0.040
80.0966 0.087
80.1268 -0.178
80.1571 -0.182
80.1874 0.282
80.2177 -0.086
80.2479 -0.351
80.2782 0.531
80.3085 -0.097
80.3388 -0.205
80.3691 0.261
80.3993 0.050
80.4296 -0.005
80.4599 -0.007
80.4902 -0.166
80.5205 0.196
80.5507 0.195
80.5810 -0.276
80.6113 -0.069
80.6416 0.086
80.6718 -0.124
80.7021 -0.177
80.7324 0.291
80.7627 0.187
80.7930 -0.178
80.8232 0.082
80.8535 -0.387
80.8838 0.134
80.9141 -0.230
80.9444 0.135
80.9746 0.188
81.0049 -0.071
81.0352 0.138
81.0655 0.296
81.0957 0.870
81.1260 0.091
81.1563 0.978
81.1866 0.095
81.2169 0.305
81.2471 0.256
81.2774 0.310
81.3077 0.730
81.3380 0.316
81.3683 0.163
81.3985 0.740
81.4288 -0.090
81.4591 0.435
81.4894 0.074
81.5196 -0.182
81.5499 0.083
81.5802 0.348
81.6105 0.353
81.6408 -0.059
81.6710 0.051
81.7013 0.108
81.7316 0.530
81.7619 0.067
81.7922 0.177
81.8224 0.340
81.8527 -0.123
81.8830 -0.168
81.9133 -0.005
81.9436 -0.311
81.9738 0.052
82.0041 -0.209
82.0344 0.362
82.0647 -0.107
82.0949 0.309
82.1252 0.725
82.1555 0.099
82.1858 -0.057
82.2161 0.047
82.2463 0.360
82.2766 -0.005
82.3069 -0.160
82.3372 0.205
82.3675 0.154
82.3977 -0.209
82.4280 0.104
82.4583 -0.259
82.4886 -0.049
82.5188 0.109
82.5491 -0.410
82.5794 0.060
82.6097 0.010
82.6400 -0.144
82.6702 0.015
82.7005 0.070
82.7308 -0.083
82.7611 0.388
82.7914 0.392
82.8216 -0.022
82.8519 0.138
82.8822 0.246
82.9125 -0.166
82.9427 0.306
82.9730 -0.054
83.0033 0.055
83.0336 -0.148
83.0639 0.169
83.0941 0.174
83.1244 0.127
83.1547 0.237
83.1850 0.399
83.2153 -0.064
83.2455 0.151
83.2758 0.261
83.3061 -0.045
83.3364 0.483
83.3666 -0.031
83.3969 -0.284
83.4272 0.087
83.4575 0.303
83.4878 -0.106
83.5180 0.318
83.5483 0.170
83.5786 0.074
83.6089 0.082
83.6392 0.090
83.6694 0.360
83.6997 0.108
83.7300 0.117
83.7603 0.126
83.7905 0.136
83.8208 0.406
83.8511 -0.261
83.8814 -0.147
83.9117 0.053
83.9419 0.409
83.9722 -0.172
84.0025 0.341
84.0328 0.229
84.0631 0.117
84.0933 0.318
84.1236 0.155
84.1539 0.044
84.1842 0.141
84.2144 0.343
84.2447 0.076
84.2750 0.018
84.3053 0.012
84.3356 0.371
84.3658 0.209
84.3961 0.048
84.4264 0.563
84.4567 0.298
84.4870 0.293
84.5172 0.340
84.5475 0.023
84.5778 0.071
84.6081 0.119
84.6383 0.116
84.6686 0.268
84.6989 0.317
84.7292 0.001
84.7595 -0.210
84.7897 0.360
84.8200 -0.060
84.8503 0.198
84.8806 0.456
84.9109 -0.119
84.9411 -0.017
84.9714 -0.331
85.0017 0.345
85.0320 -0.125
85.0623 0.238
85.0925 0.029
85.1228 0.184
85.1531 0.184
85.1834 -0.025
85.2136 0.339
85.2439 0.339
85.2742 -0.338
85.3045 0.079
85.3348 -0.180
85.3650 -0.026
85.3953 0.233
85.4256 0.335
85.4559 0.073
85.4862 0.541
85.5164 0.071
85.5467 0.279
85.5770 0.018
85.6073 0.330
85.6375 0.174
85.6678 0.278
85.6981 0.122
85.7284 -0.034
85.7587 0.175
85.7889 0.123
85.8192 0.176
85.8495 -0.135
85.8798 0.075
85.9101 -0.028
85.9403 -0.026
85.9706 0.080
86.0009 -0.179
86.0312 0.084
86.0614 -0.017
86.0917 0.350
86.1220 0.092
86.1523 0.095
86.1826 0.099
86.2128 -0.002
86.2431 -0.259
86.2734 0.214
86.3037 0.061
86.3340 0.170
86.3642 0.695
86.3945 -0.030
86.4248 -0.025
86.4551 0.241
86.4853 0.298
86.5156 -0.061
86.5459 -0.004
86.5762 -0.206
86.6065 0.047
86.6367 0.248
86.6670 0.346
86.6973 0.183
86.7276 0.385
86.7579 0.118
86.7881 -0.096
86.8184 0.263
86.8487 0.153
86.8790 0.304
86.9092 0.298
86.9395 0.033
86.9698 -0.285
87.0001 0.024
87.0304 0.436
87.0606 -0.193
87.0909 0.272
87.1212 0.373
87.1515 0.005
87.1818 0.001
87.2120 -0.523
87.2423 0.360
87.2726 -0.007
87.3029 -0.166
87.3331 -0.220
87.3634 0.455
87.3937 0.088
87.4240 0.399
87.4543 0.189
87.4845 0.136
87.5148 -0.334
87.5451 0.186
87.5754 0.237
87.6057 0.028
87.6359 -0.128
87.6662 -0.180
87.6965 0.127
87.7268 0.175
87.7571 0.119
87.7873 -0.094
87.8176 0.371
87.8479 -0.154
87.8782 0.103
87.9084 -0.108
87.9387 -0.112
87.9690 0.354
87.9993 0.143
88.0296 0.140
88.0598 -0.435
88.0901 0.136
88.1204 0.082
88.1507 -0.337
88.1810 0.235
88.2112 0.285
88.2415 0.076
88.2718 0.335
88.3021 -0.135
88.3323 0.125
88.3626 0.073
88.3929 0.072
88.4232 0.281
88.4535 0.124
88.4837 -0.188
88.5140 -0.300
88.5443 0.318
88.5746 0.103
88.6049 0.304
88.6351 -0.015
88.6654 0.291
88.6957 0.024
88.7260 -0.347
88.7562 0.272
88.7865 0.110
88.8168 0.313
88.8471 0.099
88.8774 0.250
88.9076 0.766
88.9379 -0.177
88.9682 0.131
88.9985 0.491
89.0288 0.278
89.0590 0.326
89.0893 0.479
89.1196 0.215
89.1499 0.472
89.1801 0.312
89.2104 0.882
89.2407 0.306
89.2710 1.084
89.3013 0.665
89.3315 0.819
89.3618 0.661
89.3921 1.127
89.4224 0.813
89.4527 0.603
89.4829 0.445
89.5132 1.173
89.5435 1.068
89.5738 0.911
89.6040 1.431
89.6343 1.118
89.6646 0.597
89.6949 0.337
89.7252 0.806
89.7554 1.066
89.7857 0.494
89.8160 0.703
89.8463 0.287
89.8766 0.705
89.9068 0.446
89.9371 0.760
89.9674 0.866
89.9977 0.451
90.0279 -0.068
90.0582 0.351
90.0885 0.197
90.1188 0.200
90.1491 -0.266
90.1793 0.727
90.2096 0.521
90.2399 0.212
90.2702 0.372
90.3005 0.220
90.3307 0.484
90.3610 0.228
90.3913 0.232
90.4216 0.289
90.4518 -0.123
90.4821 0.298
90.5124 -0.009
90.5427 0.257
90.5730 -0.050
90.6032 -0.149
90.6335 -0.195
90.6638 0.065
90.6941 0.065
90.7244 0.274
90.7546 -0.143
90.7849 0.170
90.8152 -0.038
90.8455 -0.193
90.8758 0.173
90.9060 0.382
90.9363 0.071
90.9666 0.333
90.9969 0.283
91.0271 0.024
91.0574 -0.078
91.0877 0.029
91.1180 0.136
91.1483 0.191
91.1785 -0.171
91.2088 0.092
91.2391 0.044
91.2694 -0.057
91.2997 0.311
91.3299 0.107
91.3602 -0.149
91.3905 -0.093
91.4208 0.172
91.4510 0.437
91.4813 0.181
91.5116 0.030
91.5419 0.036
91.5722 0.614
91.6024 0.359
91.6327 0.365
91.6630 -0.046
91.6933 0.429
91.7236 0.071
91.7538 0.338
91.7841 0.345
91.8144 -0.117
91.8447 -0.058
91.8749 -0.206
91.9052 0.098
91.9355 0.143
91.9658 0.083
91.9961 0.128
92.0263 0.277
92.0566 0.114
92.0869 0.264
92.1172 0.309
92.1475 -0.374
92.1777 0.453
92.2080 -0.126
92.2383 -0.132
92.2686 0.019
92.2988 0.118
92.3291 0.217
92.3594 0.212
92.3897 -0.001
92.4200 0.151
92.4502 0.407
92.4805 0.298
92.5108 0.190
92.5411 0.030
92.5714 0.183
92.6016 0.596
92.6319 0.072
92.6622 -0.192
92.6925 0.587
92.7227 0.115
92.7530 0.530
92.7833 0.163
92.8136 0.161
92.8439 0.732
92.8741 0.105
92.9044 0.572
92.9347 0.311
92.9650 0.205
92.9953 -0.108
93.0255 0.152
93.0558 -0.057
93.0861 0.619
93.1164 -0.006
93.1466 0.151
93.1769 -0.058
93.2072 0.255
93.2375 0.048
93.2678 -0.056
93.2980 0.206
93.3283 -0.001
93.3586 0.156
93.3889 0.366
93.4192 0.212
93.4494 0.057
93.4797 0.007
93.5100 0.114
93.5403 0.116
93.5706 -0.141
93.6008 -0.086
93.6311 0.438
93.6614 -0.132
93.6917 -0.337
93.7219 0.175
93.7522 0.063
93.7825 0.419
93.8128 -0.058
93.8431 0.039
93.8733 0.240
93.9036 0.024
93.9339 0.381
93.9642 -0.043
93.9945 0.211
94.0247 0.152
94.0550 -0.063
94.0853 0.035
94.1156 0.029
94.1458 -0.029
94.1761 -0.243
94.2064 0.116
94.2367 0.059
94.2670 0.210
94.2972 -0.003
94.3275 0.252
94.3578 0.248
94.3881 0.139
94.4184 0.187
94.4486 0.392
94.4789 0.075
94.5092 0.072
94.5395 0.329
94.5697 -0.247
94.6000 0.062
94.6303 0.320
94.6606 0.473
94.6909 0.210
94.7211 0.156
94.7514 0.154
94.7817 0.308
94.8120 0.619
94.8423 0.461
94.8725 1.085
94.9028 1.084
94.9331 0.562
94.9634 0.562
94.9936 1.134
95.0239 0.873
95.0542 1.134
95.0845 0.821
95.1148 0.821
95.1450 0.509
95.1753 1.031
95.2056 0.459
95.2359 0.616
95.2662 0.773
95.2964 0.619
95.3267 0.360
95.3570 1.039
95.3873 0.988
95.4175 0.782
95.4478 0.733
95.4781 0.839
95.5084 0.321
95.5387 0.480
95.5689 0.431
95.5992 0.487
95.6295 0.699
95.6598 0.338
95.6901 0.654
95.7203 0.762
95.7506 0.194
95.7809 0.198
95.8112 0.255
95.8414 0.677
95.8717 0.213
95.9020 -0.042
95.9323 -0.089
95.9626 0.698
95.9928 0.183
96.0231 -0.124
96.0534 0.039
96.0837 0.358
96.1140 -0.261
96.1442 -0.202
96.1745 -0.201
96.2048 0.112
96.2351 0.425
96.2653 0.426
96.2956 0.011
96.3259 -0.092
96.3562 -0.090
96.3865 -0.036
96.4167 0.278
96.4470 0.124
96.4773 0.074
96.5076 -0.079
96.5379 -0.233
96.5681 0.134
96.5984 0.188
96.6287 0.294
96.6590 0.193
96.6893 -0.117
96.7195 0.042
96.7498 -0.164
96.7801 0.308
96.8104 0.051
96.8406 -0.049
96.8709 0.215
96.9012 0.323
96.9315 -0.246
96.9618 -0.189
96.9920 0.180
97.0223 -0.232
97.0526 0.502
97.0829 0.039
97.1132 0.304
97.1434 -0.159
97.1737 0.211
97.2040 -0.147
97.2343 0.015
97.2645 0.021
97.2948 -0.233
97.3251 0.021
97.3554 0.326
97.3857 0.059
97.4159 0.156
97.4462 -0.319
97.4765 0.665
97.5068 0.294
97.5371 0.705
97.5673 0.126
97.5976 0.225
97.6279 0.324
97.6582 -0.046
97.6884 0.105
97.7187 0.257
97.7490 0.148
97.7793 -0.012
97.8096 -0.069
97.8398 0.084
97.8701 0.236
97.9004 0.129
97.9307 0.177
97.9610 0.174
97.9912 0.119
98.0215 0.377
98.0518 0.634
98.0821 0.007
98.1123 -0.047
98.1426 0.367
98.1729 0.261
98.2032 0.468
98.2335 -0.054
98.2637 0.153
98.2940 0.464
98.3243 0.828
98.3546 -0.006
98.3849 0.202
98.4151 0.775
98.4454 0.618
98.4757 0.879
98.5060 0.306
98.5362 0.723
98.5665 0.516
98.5968 0.360
98.6271 0.882
98.6574 0.415
98.6876 1.301
98.7179 0.157
98.7482 0.628
98.7785 0.526
98.8088 0.320
98.8390 0.582
98.8693 0.533
98.8996 0.171
98.9299 0.278
98.9601 -0.187
98.9904 0.545
99.0207 0.392
99.0510 0.136
99.0813 0.504
99.1115 0.144
99.1418 0.148
99.1721 0.049
99.2024 0.678
99.2327 0.006
99.2629 0.219
99.2932 0.277
99.3235 0.439
99.3538 0.392
99.3841 0.450
99.4143 -0.117
99.4446 0.254
99.4749 0.052
99.5052 -0.097
99.5354 0.378
99.5657 -0.188
99.5960 -0.350
99.6263 0.687
99.6566 0.057
99.6868 0.260
99.7171 0.203
99.7474 0.199
99.7777 0.143
99.8080 0.503
99.8382 0.187
99.8685 -0.078
99.8988 -0.185
99.9291 -0.084
99.9593 0.069
99.9896 0.170
100.0199 0.375
100.0502 -0.148
100.0805 0.214
100.1107 -0.153
100.1410 0.522
100.1713 -0.261
100.2016 -0.106
100.2319 0.205
100.2621 -0.265
100.2924 0.463
100.3227 0.150
100.3530 -0.111
100.3832 -0.164
100.4135 0.096
100.4438 -0.373
100.4741 -0.008
100.5044 0.045
100.5346 -0.528
100.5649 0.098
100.5952 0.151
100.6255 0.516
100.6558 -0.107
100.6860 -0.002
100.7163 0.156
100.7466 -0.259
100.7769 -0.100
100.8071 -0.149
100.8374 0.115
100.8677 0.326
100.8980 -0.139
100.9283 0.125
100.9585 -0.132
100.9888 0.185
101.0191 0.085
101.0494 0.037
101.0797 0.146
101.1099 0.359
101.1402 0.052
101.1705 -0.359
101.2008 0.010
101.2310 0.276
101.2613 0.126
101.2916 -0.285
101.3219 -0.088
101.3522 0.110
101.3824 -0.109
101.4127 0.453
101.4430 0.026
101.4733 -0.401
101.5036 0.214
101.5338 0.204
101.5641 0.090
101.5944 0.393
101.6247 -0.450
101.6549 0.062
101.6852 -0.103
101.7155 0.253
101.7458 -0.120
101.7761 -0.285
101.8063 0.174
101.8366 0.321
101.8669 0.415
101.8972 -0.219
101.9275 -0.124
101.9577 0.179
101.9880 0.066
102.0183 0.110
102.0486 0.206
102.0788 0.250
102.1091 0.137
102.1394 0.182
102.1697 -0.295
102.2000 -0.042
102.2302 0.055
102.2605 -0.160
102.2908 0.146
102.3211 0.347
102.3514 0.185
102.3816 0.074
102.4119 -0.036
102.4422 0.114
102.4725 -0.048
102.5028 -0.157
102.5330 0.046
102.5633 -0.376
102.5936 0.140
102.6239 0.135
102.6541 -0.026
102.6844 0.282
102.7147 0.278
102.7450 0.535
102.7753 0.062
102.8055 -0.358
102.8358 0.107
102.8661 0.312
102.8964 0.049
102.9267 -0.006
102.9569 0.044
102.9872 0.093
103.0175 0.143
103.0478 0.245
103.0780 -0.069
103.1083 0.085
103.1386 0.292
103.1689 -0.282
103.1992 0.446
103.2294 0.393
103.2597 -0.024
103.2900 -0.233
103.3203 0.079
103.3506 0.339
103.3808 0.235
103.4111 -0.026
103.4414 -0.338
103.4717 0.288
103.5019 0.080
103.5322 -0.284
103.5625 0.030
103.5928 0.447
103.6231 0.605
103.6533 0.294
103.6836 -0.277
103.7139 0.194
103.7442 0.613
103.7745 0.927
103.8047 0.513
103.8350 0.151
103.8653 0.467
103.8956 0.834
103.9258 0.629
103.9561 0.373
103.9864 0.064
104.0167 0.172
104.0470 0.645
104.0772 0.336
104.1075 0.653
104.1378 0.658
104.1681 0.038
104.1984 0.303
104.2286 0.829
104.2589 0.054
104.2892 0.320
104.3195 0.690
104.3497 0.488
104.3800 -0.027
104.4103 0.708
104.4406 0.403
104.4709 0.618
104.5011 0.468
104.5314 0.319
104.5617 0.743
104.5920 -0.030
104.6223 0.186
104.6525 0.194
104.6828 -0.007
104.7131 0.314
104.7434 0.375
104.7736 -0.033
104.8039 -0.389
104.8342 0.082
104.8645 0.136
104.8948 -0.538
104.9250 0.142
104.9553 0.353
104.9856 0.304
105.0159 -0.057
105.0462 -0.054
105.0764 -0.415
105.1067 0.423
105.1370 0.010
105.1673 -0.194
105.1975 0.175
105.2278 -0.185
105.2581 0.289
105.2884 0.086
105.3187 0.195
105.3489 -0.008
105.3792 0.258
105.4095 0.264
105.4398 -0.199
105.4701 -0.036
105.5003 -0.447
105.5306 0.133
105.5609 0.348
105.5912 -0.114
105.6215 0.050
105.6517 0.422
105.6820 0.273
105.7123 -0.032
105.7426 0.445
105.7728 0.245
105.8031 -0.112
105.8334 0.314
105.8637 0.322
105.8940 0.019
105.9242 -0.233
105.9545 0.031
105.9848 -0.121
106.0151 0.143
106.0454 0.043
106.0756 0.359
106.1059 -0.001
106.1362 0.316
106.1665 -0.356
106.1967 0.274
106.2270 0.123
106.2573 0.076
106.2876 -0.283
106.3179 0.191
106.3481 0.197
106.3784 -0.318
106.4087 0.210
106.4390 0.268
106.4693 0.223
106.4995 0.021
106.5298 -0.128
106.5601 -0.173
106.5904 0.131
106.6206 0.435
106.6509 -0.093
106.6812 0.784
106.7115 0.568
106.7418 0.352
106.7720 0.032
106.8023 0.286
106.8326 0.175
106.8629 0.220
106.8932 0.422
106.9234 0.155
106.9537 0.201
106.9840 0.455
107.0143 0.189
107.0445 0.079
107.0748 0.230
107.1051 -0.036
107.1354 0.064
107.1657 0.111
107.1959 0.002
107.2262 0.258
107.2565 -0.059
107.2868 0.510
107.3171 0.298
107.3473 0.555
107.3776 0.134
107.4079 -0.025
107.4382 0.128
107.4684 0.125
107.4987 0.227
107.5290 0.328
107.5593 0.013
107.5896 -0.041
107.6198 -0.095
107.6501 0.424
107.6804 -0.046
107.7107 0.213
107.7410 -0.101
107.7712 0.055
107.8015 -0.363
107.8318 0.000
107.8621 -0.053
107.8923 -0.054
107.9226 -0.158
107.9529 0.050
107.9832 -0.159
108.0135 0.310
108.0437 0.049
108.0740 0.154
108.1043 0.415
108.1346 -0.053
108.1649 -0.053
108.1951 -0.051
108.2254 0.471
108.2557 -0.049
108.2860 0.526
108.3163 -0.097
108.3465 -0.043
108.3768 0.063
108.4071 -0.195
108.4374 -0.092
108.4676 -0.041
108.4979 -0.199
108.5282 0.269
108.5585 -0.148
108.5888 0.008
108.6190 0.059
108.6493 0.059
108.6796 0.164
108.7099 -0.565
108.7402 0.008
108.7704 -0.147
108.8007 0.010
108.8310 -0.093
108.8613 0.064
108.8915 -0.195
108.9218 -0.195
108.9521 0.161
108.9824 -0.003
109.0127 0.509
109.0429 -0.072
109.0732 -0.027
109.1035 0.017
109.1338 0.375
109.1641 -0.101
109.1943 -0.004
109.2246 0.249
109.2549 0.295
109.2852 -0.336
109.3154 0.022
109.3457 0.224
109.3760 0.114
109.4063 -0.152
109.4366 0.155
109.4668 -0.162
109.4971 -0.115
109.5274 0.088
109.5577 -0.125
109.5880 0.235
109.6182 -0.394
109.6485 0.071
109.6788 0.379
109.7091 0.323
109.7393 0.580
109.7696 0.056
109.7999 0.105
109.8302 0.415
109.8605 -0.161
109.8907 0.357
109.9210 0.251
109.9513 0.301
109.9816 -0.066
110.0119 -0.068
110.0421 0.087
110.0724 0.554
110.1027 0.345
110.1330 -0.490
110.1632 0.187
110.1935 -0.231
110.2238 0.342
110.2541 0.185
110.2844 0.133
110.3146 -0.179
110.3449 -0.179
110.3752 -0.230
110.4055 0.395
110.4358 0.240
110.4660 -0.124
110.4963 0.294
110.5266 0.348
110.5569 -0.171
110.5871 0.508
110.6174 0.510
110.6477 -0.009
110.6780 -0.215
110.7083 -0.110
110.7385 0.569
110.7688 0.310
110.7991 -0.054
110.8294 -0.104
110.8597 0.211
110.8899 0.161
110.9202 -0.098
110.9505 0.165
110.9808 -0.197
111.0110 -0.089
111.0413 -0.243
111.0716 0.333
111.1019 0.077
111.1322 -0.076
111.1624 -0.124
111.1927 -0.068
111.2230 0.144
111.2533 -0.060
111.2836 -0.055
111.3138 -0.154
111.3441 -0.149
111.3744 -0.144
111.4047 0.070
111.4350 -0.029
111.4652 -0.023
111.4955 0.139
111.5258 -0.376
111.5561 -0.005
111.5863 -0.311
111.6166 0.055
111.6469 0.109
111.6772 -0.202
111.7075 -0.099
111.7377 0.213
111.7680 -0.309
111.7983 0.159
111.8286 0.367
111.8589 0.210
111.8891 -0.050
111.9194 -0.207
111.9497 0.105
111.9800 0.260
112.0102 -0.157
112.0405 -0.313
112.0708 0.260
112.1011 0.051
112.1314 -0.105
112.1616 -0.104
112.1919 -0.260
112.2222 0.210
112.2525 0.107
112.2828 -0.048
112.3130 0.005
112.3433 -0.202
112.3736 -0.148
112.4039 0.011
112.4341 0.482
112.4644 -0.089
112.4947 -0.242
112.5250 0.281
112.5553 -0.132
112.5855 -0.129
112.6158 -0.177
112.6461 0.191
112.6764 0.090
112.7067 0.095
112.7369 -0.057
112.7672 0.207
112.7975 0.264
112.8278 -0.096
112.8580 -0.195
112.8883 -0.091
112.9186 0.117
112.9489 0.013
112.9792 0.065
113.0094 -0.195
113.0397 -0.093
113.0700 -0.148
113.1003 0.058
113.1306 -0.100
113.1608 -0.259
113.1911 0.154
113.2214 -0.423
113.2517 0.042
113.2819 0.038
113.3122 0.139
113.3425 0.032
113.3728 0.185
113.4031 0.130
113.4333 -0.446
113.4636 0.073
113.4939 0.018
113.5242 -0.192
113.5545 -0.194
113.5847 0.117
113.6150 -0.197
113.6453 0.062
113.6756 0.113
113.7058 0.164
113.7361 -0.201
113.7664 -0.045
113.7967 0.163
113.8270 0.006
113.8572 -0.098
113.8875 -0.202
113.9178 0.056
113.9481 0.002
113.9784 -0.313
114.0086 0.154
114.0389 -0.212
114.0692 0.099
114.0995 -0.162
114.1298 0.097
114.1600 -0.216
114.1903 0.043
114.2206 0.303
114.2509 -0.218
114.2811 0.042
114.3114 -0.270
114.3417 0.043
114.3720 0.616
114.4023 -0.216
114.4325 -0.007
114.4628 0.098
114.4931 -0.265
114.5234 0.101
114.5537 -0.106
114.5839 0.573
114.6142 0.054
114.6445 0.108
114.6748 -0.202
114.7050 -0.105
114.7353 0.044
114.7656 -0.119
114.7959 -0.126
114.8262 0.127
114.8564 -0.244
114.8867 0.219
114.9170 -0.204
114.9473 0.259
114.9776 0.096
115.0078 -0.117
115.0381 -0.019
115.0684 0.028
115.0987 -0.133
115.1289 -0.138
115.1592 -0.142
115.1895 -0.095
115.2198 0.370
115.2501 0.366
115.2803 -0.055
115.3106 -0.215
115.3409 0.092
115.3712 0.087
115.4015 0.030
115.4317 0.338
115.4620 0.490
115.4923 0.069
115.5226 0.169
115.5528 0.009
115.5831 0.213
115.6134 0.314
115.6437 -0.106
115.6740 0.307
115.7042 0.148
115.7345 -0.428
115.7648 0.820
115.7951 -0.068
115.8254 0.034
115.8556 0.761
115.8859 0.342
115.9162 0.809
115.9465 -0.026
115.9767 0.650
116.0070 0.597
116.0373 0.544
116.0676 0.543
116.0979 0.595
116.1281 0.699
116.1584 0.595
116.1887 0.490
116.2190 0.751
116.2493 1.220
116.2795 0.388
116.3098 0.649
116.3401 0.702
116.3704 0.547
116.4006 0.757
116.4309 0.550
116.4612 0.500
116.4915 0.189
116.5218 0.556
116.5520 0.715
116.5823 0.144
116.6126 0.616
116.6429 0.150
116.6732 0.361
116.7034 0.521
116.7337 1.150
116.7640 0.007
116.7943 0.376
116.8245 0.380
116.8548 0.384
116.8851 -0.080
116.9154 0.341
116.9457 0.294
116.9759 0.091
117.0062 0.409
117.0365 0.362
117.0668 0.628
117.0971 0.478
117.1273 0.327
117.1576 0.125
117.1879 0.496
117.2182 0.086
117.2485 -0.428
117.2787 0.465
117.3090 0.055
117.3393 0.219
117.3696 -0.242
117.3998 0.130
117.4301 0.190
117.4604 0.354
117.4907 0.363
117.5210 -0.202
117.5512 -0.515
117.5815 0.370
117.6118 0.162
117.6421 -0.099
117.6724 0.162
117.7026 -0.359
117.7329 0.267
117.7632 0.111
117.7935 0.112
117.8237 0.530
117.8540 -0.146
117.8843 -0.196
117.9146 0.170
117.9449 0.224
117.9751 -0.139
118.0054 -0.084
118.0357 0.179
118.0660 0.338
118.0963 0.028
118.1265 -0.229
118.1568 0.399
118.1871 -0.275
118.2174 0.198
118.2476 0.149
118.2779 0.414
118.3082 0.105
118.3385 -0.046
118.3688 0.062
118.3990 -0.089
118.4293 -0.188
118.4596 0.025
118.4899 0.239
118.5202 -0.224
118.5504 -0.114
118.5807 0.152
118.6110 -0.259
118.6413 -0.108
118.6715 0.146
118.7018 -0.172
118.7321 0.239
118.7624 -0.235
118.7927 0.385
118.8229 0.432
118.8532 0.063
118.8835 0.266
118.9138 0.314
118.9441 -0.107
118.9743 -0.059
119.0046 -0.114
119.0349 0.351
119.0652 0.191
119.0954 0.084
119.1257 0.289
119.1560 0.338
119.1863 -0.029
119.2166 0.177
119.2468 0.123
119.2771 0.381
119.3074 0.327
119.3377 0.221
119.3680 -0.093
119.3982 -0.198
119.4285 0.165
119.4588 0.008
119.4891 0.007
119.5193 -0.149
119.5496 -0.202
119.5799 -0.202
119.6102 -0.008
119.6405 0.341
119.6707 -0.350
119.7010 -0.208
119.7313 -0.125
119.7616 -0.146
119.7919 -0.114
119.8221 -0.030
119.8524 -0.363
119.8827 0.126
119.9130 -0.114
119.9433 -0.042
119.9735 0.292
120.0038 0.000
