'Id: "" Comment: "" Operator: "Lab Manager" Anode: "Cu" Scantype: "Locked Coupled" TimePerStep: "19.2" X: "9999" Y: "9999" Z: "9999" 
10.0015 0.000
10.0318 0.375
10.0620 -0.709
10.0923 -0.401
10.1226 0.479
10.1529 0.318
10.1832 0.262
10.2134 0.778
10.2437 0.097
10.2740 -0.376
10.3043 0.923
10.3346 0.503
10.3648 0.031
10.3951 0.757
10.4254 -0.340
10.4557 0.804
10.4859 0.905
10.5162 0.955
10.5465 -0.349
10.5768 -0.350
10.6071 0.065
10.6373 -0.145
10.6676 0.479
10.6979 0.739
10.7282 1.050
10.7585 1.102
10.7887 1.310
10.8190 0.216
10.8493 0.894
10.8796 1.415
10.9098 1.416
10.9401 3.083
10.9704 3.032
11.0007 6.002
11.0310 4.806
11.0612 6.474
11.0915 5.539
11.1218 4.030
11.1521 4.449
11.1824 3.827
11.2126 2.371
11.2429 2.635
11.2732 1.544
11.3035 1.027
11.3337 0.979
11.3640 1.503
11.3943 0.309
11.4246 1.303
11.4549 -0.307
11.4851 0.427
11.5154 -0.297
11.5457 0.437
11.5760 -0.287
11.6063 0.240
11.6365 0.194
11.6668 -0.269
11.6971 -0.002
11.7274 0.941
11.7577 -0.458
11.7879 0.122
11.8182 0.285
11.8485 0.292
11.8788 0.039
11.9090 -0.474
11.9393 -0.103
11.9696 -0.253
11.9999 -0.142
12.0302 -0.291
12.0604 0.497
12.0907 -0.172
12.1210 -0.373
12.1513 0.416
12.1816 0.216
12.2118 0.484
12.2421 -0.132
12.2724 0.449
12.3027 0.562
12.3329 0.623
12.3632 0.164
12.3935 -0.400
12.4238 0.235
12.4541 0.297
12.4843 0.047
12.5146 -0.307
12.5449 0.016
12.5752 0.131
12.6055 -0.119
12.6357 0.049
12.6660 -0.357
12.6963 -0.449
12.7266 0.133
12.7568 -0.118
12.7871 0.465
12.8174 -0.411
12.8477 0.016
12.8780 0.234
12.9082 -0.536
12.9385 0.047
12.9688 -0.202
12.9991 0.017
13.0294 0.497
13.0596 0.040
13.0899 0.469
13.1202 0.377
13.1505 -0.184
13.1807 0.037
13.2110 -0.888
13.2413 0.427
13.2716 0.127
13.3019 0.037
13.3321 -0.054
13.3624 0.533
13.3927 0.026
13.4230 -0.429
13.4533 -0.327
13.4835 0.870
13.5138 -0.330
13.5441 0.190
13.5744 0.137
13.6046 -0.124
13.6349 -0.229
13.6652 0.031
13.6955 0.083
13.7258 -0.959
13.7560 0.292
13.7863 1.230
13.8166 -0.541
13.8469 -0.331
13.8772 -0.278
13.9074 0.036
13.9377 -0.067
13.9680 -0.534
13.9983 0.249
14.0285 -0.425
14.0588 -0.163
14.0891 -0.264
14.1194 -0.053
14.1497 -0.258
14.1799 0.162
14.2102 0.165
14.2405 -0.560
14.2708 0.537
14.3011 -0.031
14.3313 -0.392
14.3616 0.498
14.3919 0.451
14.4222 1.342
14.4524 0.097
14.4827 0.259
14.5130 0.993
14.5433 0.322
14.5736 -0.297
14.6038 -0.030
14.6341 -0.857
14.6644 0.191
14.6947 -0.114
14.7250 -0.003
14.7552 0.213
14.7855 0.012
14.8158 -0.136
14.8461 0.809
14.8764 -0.537
14.9066 -0.372
14.9369 -0.468
14.9672 0.320
14.9975 0.065
15.0277 0.332
15.0580 0.182
15.0883 0.085
15.1186 -0.481
15.1489 -0.058
15.1791 -1.248
15.2094 0.004
15.2397 -0.567
15.2700 0.581
15.3003 -0.146
15.3305 0.846
15.3608 -0.141
15.3911 -0.033
15.4214 -0.238
15.4516 0.494
15.4819 -0.023
15.5122 0.294
15.5425 0.194
15.5728 0.198
15.6030 0.463
15.6333 -0.053
15.6636 0.056
15.6939 0.738
15.7242 0.223
15.7544 0.229
15.7847 0.495
15.8150 -0.020
15.8453 0.455
15.8755 0.201
15.9058 -0.469
15.9361 0.007
15.9664 0.482
15.9967 -0.135
16.0269 -1.117
16.0572 1.026
16.0875 0.409
16.1178 0.105
16.1481 0.165
16.1783 0.695
16.2086 0.287
16.2389 -0.121
16.2692 -0.215
16.2994 0.680
16.3297 0.168
16.3600 -0.395
16.3903 -0.236
16.4206 -0.026
16.4508 -0.023
16.4811 1.073
16.5114 -0.122
16.5417 0.454
16.5720 0.041
16.6022 0.461
16.6325 0.934
16.6628 0.365
16.6931 -0.100
16.7233 0.842
16.7536 0.482
16.7839 -0.034
16.8142 -0.185
16.8445 0.706
16.8747 0.451
16.9050 0.821
16.9353 0.410
16.9656 0.572
16.9959 0.162
17.0261 0.585
17.0564 0.488
17.0867 0.807
17.1170 0.294
17.1472 0.405
17.1775 0.725
17.2078 0.317
17.2381 0.325
17.2684 0.437
17.2986 -0.075
17.3289 0.767
17.3592 0.203
17.3895 -0.569
17.4198 0.065
17.4500 -0.030
17.4803 -0.384
17.5106 -0.025
17.5409 1.012
17.5712 -0.190
17.6014 1.160
17.6317 0.531
17.6620 0.475
17.6923 0.316
17.7225 -0.417
17.7528 0.934
17.7831 0.150
17.8134 0.408
17.8437 -0.063
17.8739 0.247
17.9042 0.245
17.9345 0.451
17.9648 -0.019
17.9951 -0.385
18.0253 -0.023
18.0556 -0.025
18.0859 -0.080
18.1162 0.231
18.1464 0.281
18.1767 0.175
18.2070 -0.139
18.2373 -0.035
18.2676 0.589
18.2978 -0.089
18.3281 1.056
18.3584 0.795
18.3887 0.379
18.4190 0.379
18.4492 -0.298
18.4795 0.484
18.5098 -0.296
18.5401 0.434
18.5703 0.331
18.6006 -0.084
18.6309 -0.239
18.6612 0.440
18.6915 -0.443
18.7217 0.444
18.7520 0.186
18.7823 -0.228
18.8126 -0.381
18.8429 0.139
18.8731 -0.435
18.9034 0.345
18.9337 0.084
18.9640 0.240
18.9942 0.760
19.0245 0.448
19.0548 -0.802
19.0851 0.500
19.1154 0.501
19.1456 -0.644
19.1759 -0.070
19.2062 0.764
19.2365 0.245
19.2668 -0.014
19.2970 1.082
19.3273 0.355
19.3576 -0.060
19.3879 0.203
19.4181 0.102
19.4484 0.261
19.4787 0.525
19.5090 0.163
19.5393 0.636
19.5695 1.004
19.5998 0.331
19.6301 -0.550
19.6604 -0.285
19.6907 0.345
19.7209 -0.171
19.7512 -0.375
19.7815 -0.213
19.8118 -0.364
19.8420 -0.410
19.8723 0.319
19.9026 0.216
19.9329 0.373
19.9632 -0.616
19.9934 -0.198
20.0237 0.324
20.0540 -0.352
20.0843 -0.246
20.1146 0.069
20.1448 0.123
20.1751 -0.395
20.2054 -0.028
20.2357 0.340
20.2659 0.186
20.2962 0.138
20.3265 0.089
20.3568 0.614
20.3871 0.305
20.4173 -0.055
20.4476 0.105
20.4779 0.579
20.5082 1.000
20.5385 0.692
20.5687 0.177
20.5990 0.234
20.6293 -0.125
20.6596 0.663
20.6899 -0.165
20.7201 -0.367
20.7504 -0.266
20.7807 1.033
20.8110 -0.064
20.8412 0.089
20.8715 -0.018
20.9018 0.344
20.9321 -0.022
20.9624 0.236
20.9926 1.432
21.0229 0.233
21.0532 0.439
21.0835 0.230
21.1138 -0.292
21.1440 -0.240
21.1743 -0.085
21.2046 -0.033
21.2349 0.123
21.2651 0.332
21.2954 0.436
21.3257 0.020
21.3560 -0.552
21.3863 0.230
21.4165 -0.133
21.4468 0.389
21.4771 -0.547
21.5074 0.132
21.5377 -0.335
21.5679 0.553
21.5982 -0.643
21.6285 -0.015
21.6588 0.300
21.6890 -0.321
21.7193 0.046
21.7496 -0.367
21.7799 -0.106
21.8102 0.208
21.8404 0.625
21.8707 0.783
21.9010 -0.049
21.9313 -0.204
21.9616 -0.150
21.9918 0.217
22.0221 0.740
22.0524 -0.039
22.0827 0.120
22.1129 0.123
22.1432 0.595
22.1735 0.026
22.2038 0.237
22.2341 0.085
22.2643 -0.380
22.2946 -0.063
22.3249 -0.423
22.3552 0.988
22.3855 -0.309
22.4157 -0.721
22.4460 0.266
22.4763 0.055
22.5066 0.209
22.5368 0.467
22.5671 -0.264
22.5974 0.411
22.6277 -0.528
22.6580 -0.112
22.6882 0.147
22.7185 -0.270
22.7488 -0.115
22.7791 0.718
22.8094 -0.220
22.8396 -0.792
22.8699 0.406
22.9002 -0.427
22.9305 -0.010
22.9607 -0.217
22.9910 -0.477
23.0213 0.358
23.0516 0.151
23.0819 -0.212
23.1121 0.832
23.1424 -0.312
23.1727 0.263
23.2030 -0.307
23.2333 0.529
23.2635 -0.353
23.2938 0.275
23.3241 0.591
23.3544 0.438
23.3846 0.130
23.4149 0.134
23.4452 -0.226
23.4755 0.247
23.5058 0.564
23.5360 0.309
23.5663 -0.572
23.5966 0.267
23.6269 -0.040
23.6572 -0.763
23.6874 0.389
23.7177 0.187
23.7480 0.245
23.7783 0.512
23.8086 0.155
23.8388 0.005
23.8691 -0.352
23.8994 -0.146
23.9297 0.165
23.9599 0.632
23.9902 -0.099
24.0205 0.369
24.0508 0.524
24.0811 0.107
24.1113 0.471
24.1416 0.002
24.1719 -0.259
24.2022 -0.207
24.2325 0.002
24.2627 -0.414
24.2930 0.211
24.3233 0.056
24.3536 0.161
24.3838 0.319
24.4141 0.060
24.4444 0.322
24.4747 0.220
24.5050 -0.507
24.5352 0.173
24.5655 -0.346
24.5958 0.126
24.6261 0.129
24.6564 0.132
24.6866 0.240
24.7169 0.348
24.7472 0.352
24.7775 0.616
24.8077 0.152
24.8380 -0.052
24.8683 0.161
24.8986 -0.355
24.9289 -0.207
24.9591 0.096
24.9894 0.348
25.0197 0.757
25.0500 0.228
25.0803 0.272
25.1105 -0.153
25.1408 -0.160
25.1711 -0.063
25.2014 0.242
25.2316 0.392
25.2619 0.749
25.2922 0.222
25.3225 -0.565
25.3528 0.210
25.3830 0.465
25.4133 -0.010
25.4436 0.402
25.4739 0.292
25.5042 0.548
25.5344 -0.030
25.5647 -0.243
25.5950 0.014
25.6253 0.478
25.6555 0.110
25.6858 0.262
25.7161 0.467
25.7464 0.047
25.7767 0.409
25.8069 -0.271
25.8372 0.716
25.8675 -0.536
25.8978 0.139
25.9281 -0.123
25.9583 0.135
25.9886 0.186
26.0189 -0.076
26.0492 0.704
26.0794 -0.390
26.1097 -0.339
26.1400 -0.027
26.1703 -0.183
26.2006 0.859
26.2308 -0.287
26.2611 -0.235
26.2914 0.547
26.3217 0.027
26.3520 -0.440
26.3822 -0.022
26.4125 0.604
26.4428 0.710
26.4731 -0.069
26.5034 0.089
26.5336 0.352
26.5639 0.563
26.5942 -0.320
26.6245 0.517
26.6547 0.155
26.6850 -0.258
26.7153 0.215
26.7456 -0.094
26.7759 0.483
26.8061 0.071
26.8364 0.648
26.8667 0.340
26.8970 0.554
26.9273 0.767
26.9575 0.460
26.9878 0.622
27.0181 0.263
27.0484 -0.408
27.0786 -0.316
27.1089 -0.223
27.1392 -0.235
27.1695 0.639
27.1998 0.159
27.2300 -0.425
27.2603 0.190
27.2906 0.075
27.3209 0.377
27.3512 0.315
27.3814 0.357
27.4117 0.348
27.4420 0.130
27.4723 0.173
27.5025 0.476
27.5328 1.145
27.5631 -0.270
27.5934 1.076
27.6237 0.651
27.6539 0.382
27.6842 -0.146
27.7145 0.576
27.7448 -0.213
27.7751 -0.376
27.8053 -0.124
27.8356 -0.080
27.8659 0.224
27.8962 -0.148
27.9264 0.886
27.9567 -0.059
27.9870 0.507
28.0173 0.656
28.0476 -0.497
28.0778 -0.295
28.1081 0.897
28.1384 0.214
28.1687 -0.053
28.1990 0.098
28.2292 0.040
28.2595 -0.225
28.2898 -0.334
28.3201 0.442
28.3503 -0.240
28.3806 -0.140
28.4109 0.585
28.4412 0.008
28.4715 0.525
28.5017 0.053
28.5320 0.154
28.5623 -0.630
28.5926 0.617
28.6229 -0.167
28.6531 0.456
28.6834 0.401
28.7137 0.347
28.7440 0.866
28.7742 0.031
28.8045 0.082
28.8348 0.602
28.8651 0.340
28.8954 -0.181
28.9256 -0.390
28.9559 -0.051
28.9862 0.652
29.0165 0.106
29.0468 0.549
29.0770 0.107
29.1073 0.551
29.1376 -0.203
29.1679 0.137
29.1981 0.165
29.2284 0.245
29.2587 0.013
29.2890 0.458
29.3193 0.279
29.3495 0.203
29.3798 0.441
29.4101 -0.155
29.4404 0.135
29.4707 -0.096
29.5009 -0.222
29.5312 0.642
29.5615 0.047
29.5918 -0.547
29.6221 -0.105
29.6523 -0.132
29.6826 0.728
29.7129 -0.392
29.7432 -0.106
29.7734 -0.183
29.8037 0.364
29.8340 0.235
29.8643 -0.259
29.8946 0.446
29.9248 0.838
29.9551 0.085
29.9854 0.321
30.0157 -0.380
30.0460 -0.091
30.0762 -0.479
30.1065 0.383
30.1368 0.152
30.1671 0.910
30.1973 -0.050
30.2276 0.188
30.2579 0.374
30.2882 0.769
30.3185 0.123
30.3487 0.101
30.3790 0.705
30.4093 0.684
30.4396 0.871
30.4699 0.955
30.5001 0.674
30.5304 0.341
30.5607 0.998
30.5910 0.718
30.6212 1.376
30.6515 1.981
30.6818 2.275
30.7121 1.579
30.7424 2.081
30.7726 2.479
30.8029 0.846
30.8332 2.130
30.8635 2.581
30.8938 1.939
30.9240 3.171
30.9543 3.466
30.9846 3.554
31.0149 2.756
31.0451 4.614
31.0754 4.702
31.1057 5.311
31.1360 5.920
31.1663 8.092
31.1965 7.191
31.2268 7.853
31.2571 9.869
31.2874 11.573
31.3177 12.496
31.3479 14.304
31.3782 18.300
31.4085 15.526
31.4388 20.460
31.4690 22.270
31.4993 26.683
31.5296 29.118
31.5599 31.605
31.5902 35.655
31.6204 36.424
31.6507 34.484
31.6810 31.868
31.7113 29.825
31.7416 28.824
31.7718 25.896
31.8021 25.051
31.8324 22.332
31.8627 18.363
31.8929 14.186
31.9232 12.978
31.9535 9.217
31.9838 9.833
32.0141 9.198
32.0443 8.303
32.0746 5.898
32.1049 6.618
32.1352 4.161
32.1655 3.840
32.1957 4.249
32.2260 2.990
32.2563 2.357
32.2866 2.975
32.3169 2.238
32.3471 1.866
32.3774 1.651
32.4077 2.633
32.4380 1.481
32.4682 1.474
32.4985 0.947
32.5288 1.618
32.5591 0.363
32.5894 -0.476
32.6196 -0.117
32.6499 -0.227
32.6802 0.810
32.7105 -0.601
32.7408 0.384
32.7710 0.172
32.8013 0.011
32.8316 -0.670
32.8619 0.056
32.8921 -0.156
32.9224 0.049
32.9527 -0.006
32.9830 -0.738
33.0133 0.405
33.0435 0.611
33.0738 -0.485
33.1041 -0.539
33.1344 0.343
33.1647 -0.390
33.1949 -0.134
33.2252 0.644
33.2555 -0.505
33.2858 -0.456
33.3160 -0.302
33.3463 0.424
33.3766 -0.359
33.4069 0.107
33.4372 0.210
33.4674 0.781
33.4977 -0.314
33.5280 1.559
33.5583 0.256
33.5886 1.505
33.6188 0.463
33.6491 0.775
33.6794 1.296
33.7097 0.931
33.7399 1.452
33.7702 0.984
33.8005 1.922
33.8308 2.704
33.8611 2.445
33.8913 3.384
33.9216 3.281
33.9519 5.731
33.9822 6.566
34.0125 6.152
34.0427 8.862
34.0730 9.230
34.1033 12.670
34.1336 15.850
34.1638 17.312
34.1941 25.336
34.2244 30.183
34.2547 38.000
34.2850 39.462
34.3152 40.196
34.3455 36.294
34.3758 33.590
34.4061 27.397
34.4364 20.007
34.4666 13.710
34.4969 12.205
34.5272 11.430
34.5575 9.248
34.5877 8.213
34.6180 5.094
34.6483 5.466
34.6786 3.858
34.7089 5.167
34.7391 3.091
34.7694 2.994
34.7997 3.731
34.8300 2.021
34.8603 1.404
34.8905 1.100
34.9208 2.723
34.9511 2.732
34.9814 2.168
35.0116 1.500
35.0419 2.395
35.0722 2.352
35.1025 2.727
35.1328 2.477
35.1630 3.685
35.1933 3.227
35.2236 3.394
35.2539 2.780
35.2842 2.478
35.3144 2.490
35.3447 2.605
35.3750 3.034
35.4053 5.494
35.4356 4.881
35.4658 5.258
35.4961 6.469
35.5264 6.794
35.5567 6.443
35.5869 8.956
35.6172 7.824
35.6475 8.827
35.6778 10.977
35.7081 12.501
35.7383 12.932
35.7686 15.082
35.7989 18.274
35.8292 19.279
35.8595 22.523
35.8897 25.247
35.9200 27.554
35.9503 33.664
35.9806 37.534
36.0108 38.697
36.0411 45.224
36.0714 48.678
36.1017 51.299
36.1320 48.920
36.1622 52.531
36.1925 51.091
36.2228 43.609
36.2531 40.189
36.2834 35.780
36.3136 36.268
36.3439 25.349
36.3742 25.107
36.4045 21.324
36.4347 17.750
36.4650 14.749
36.4953 13.206
36.5256 10.830
36.5559 10.329
36.5861 9.933
36.6164 8.496
36.6467 7.058
36.6770 6.090
36.7073 5.382
36.7375 5.664
36.7678 4.331
36.7981 5.395
36.8284 3.854
36.8586 3.356
36.8889 2.493
36.9192 2.828
36.9495 3.789
36.9798 2.666
37.0100 2.585
37.0403 2.974
37.0706 0.445
37.1009 1.615
37.1312 1.952
37.1614 1.612
37.1917 0.543
37.2220 1.766
37.2523 0.072
37.2825 1.348
37.3128 0.800
37.3431 0.566
37.3734 0.852
37.4037 0.201
37.4339 1.686
37.4642 0.775
37.4945 -0.136
37.5248 0.673
37.5551 0.700
37.5853 0.311
37.6156 0.391
37.6459 0.471
37.6762 0.291
37.7064 1.100
37.7367 -0.330
37.7670 0.324
37.7973 0.353
37.8276 0.330
37.8578 0.516
37.8881 -0.392
37.9184 0.159
37.9487 0.293
37.9790 0.323
38.0092 0.666
38.0395 0.645
38.0698 0.676
38.1001 0.707
38.1304 0.270
38.1606 0.353
38.1909 0.958
38.2212 -0.208
38.2515 -0.592
38.2817 0.141
38.3120 0.562
38.3423 -0.476
38.3726 0.779
38.4029 0.315
38.4331 0.372
38.4634 -0.196
38.4937 0.695
38.5240 -0.394
38.5543 0.706
38.5845 0.556
38.6148 -0.219
38.6451 -0.057
38.6754 0.315
38.7056 -0.252
38.7359 0.224
38.7662 -0.393
38.7965 -0.021
38.8268 0.038
38.8570 0.098
38.8873 -0.050
38.9176 0.688
38.9479 0.384
38.9782 -0.284
39.0084 -0.067
39.0387 -0.006
39.0690 -0.205
39.0993 0.013
39.1295 -0.758
39.1598 0.658
39.1901 -0.529
39.2204 -0.102
39.2507 -0.352
39.2809 -0.240
39.3112 -0.075
39.3415 -1.004
39.3718 0.515
39.4021 0.368
39.4323 0.741
39.4626 -0.499
39.4929 -0.333
39.5232 -0.011
39.5534 -0.366
39.5837 0.321
39.6140 -0.033
39.6443 0.082
39.6746 -0.688
39.7048 0.260
39.7351 -0.666
39.7654 -0.293
39.7957 0.288
39.8260 -0.172
39.8562 -0.111
39.8865 0.002
39.9168 -0.405
39.9471 -0.032
39.9773 0.080
40.0076 0.141
40.0379 -0.007
40.0682 -0.155
40.0985 0.219
40.1287 -0.032
40.1590 -0.127
40.1893 0.248
40.2196 -0.159
40.2499 0.320
40.2801 0.434
40.3104 -0.337
40.3407 0.195
40.3710 -0.002
40.4012 0.425
40.4315 0.020
40.4618 -0.176
40.4921 -0.060
40.5224 0.629
40.5526 -0.453
40.5829 0.028
40.6132 0.093
40.6435 0.158
40.6738 -0.402
40.7040 -0.195
40.7343 0.585
40.7646 0.636
40.7949 -0.875
40.8251 0.114
40.8554 0.009
40.8857 0.269
40.9160 -0.096
40.9463 -0.200
40.9765 0.113
41.0068 0.843
41.0371 0.219
41.0674 -0.145
41.0977 -0.248
41.1279 -0.194
41.1582 0.068
41.1885 -0.191
41.2188 0.124
41.2491 -0.291
41.2793 0.129
41.3096 0.183
41.3399 -0.334
41.3702 0.033
41.4004 0.662
41.4307 0.301
41.4610 -0.008
41.4913 -0.264
41.5216 0.729
41.5518 0.630
41.5821 -0.303
41.6124 0.379
41.6427 0.280
41.6730 0.025
41.7032 -0.022
41.7335 0.244
41.7638 0.302
41.7941 0.100
41.8243 -0.102
41.8546 0.165
41.8849 -0.245
41.9152 0.127
41.9455 -0.335
41.9757 0.350
42.0060 0.566
42.0363 0.678
42.0666 0.374
42.0969 -0.243
42.1271 -0.078
42.1574 0.087
42.1877 -0.321
42.2180 -0.120
42.2482 0.082
42.2785 0.388
42.3088 0.537
42.3391 0.271
42.3694 -0.256
42.3996 0.155
42.4299 0.045
42.4602 0.092
42.4905 0.087
42.5208 0.290
42.5510 0.233
42.5813 0.594
42.6116 -0.504
42.6419 0.064
42.6721 0.373
42.7024 -0.308
42.7327 0.210
42.7630 0.415
42.7933 -0.161
42.8235 0.097
42.8538 -0.375
42.8841 -0.116
42.9144 0.559
42.9447 0.453
42.9749 0.035
43.0052 0.034
43.0355 -0.123
43.0658 0.085
43.0960 -0.280
43.1263 -0.072
43.1566 0.240
43.1869 0.084
43.2172 0.189
43.2474 -0.488
43.2777 0.294
43.3080 0.191
43.3383 -0.329
43.3686 -0.119
43.3988 0.039
43.4291 -0.063
43.4594 -0.061
43.4897 0.514
43.5199 0.256
43.5502 -0.470
43.5805 0.574
43.6108 0.682
43.6411 -0.304
43.6713 0.012
43.7016 0.067
43.7319 0.332
43.7622 -0.445
43.7925 -0.024
43.8227 -0.123
43.8530 -0.014
43.8833 0.147
43.9136 0.204
43.9439 0.262
43.9741 0.216
44.0044 0.222
44.0347 0.071
44.0650 -0.026
44.0952 0.449
44.1255 0.143
44.1558 0.723
44.1861 0.678
44.2164 0.009
44.2466 0.433
44.2769 0.181
44.3072 0.553
44.3375 0.301
44.3678 0.258
44.3980 -0.359
44.4283 0.119
44.4586 -0.132
44.4889 -0.279
44.5191 0.021
44.5494 -0.095
44.5797 0.466
44.6100 0.194
44.6403 0.234
44.6705 0.223
44.7008 0.055
44.7311 0.357
44.7614 0.190
44.7917 0.492
44.8219 0.326
44.8522 0.368
44.8825 -0.163
44.9128 -0.068
44.9430 0.078
44.9733 -0.191
45.0036 0.529
45.0339 0.416
45.0642 0.460
45.0944 0.087
45.1247 -0.182
45.1550 -0.294
45.1853 0.011
45.2156 0.212
45.2458 -0.160
45.2761 -0.532
45.3064 0.132
45.3367 -0.299
45.3669 0.625
45.3972 -0.377
45.4275 0.443
45.4578 -0.143
45.4881 0.157
45.5183 0.561
45.5486 -0.597
45.5789 -0.036
45.6092 0.109
45.6395 -0.059
45.6697 -0.227
45.7000 -0.082
45.7303 0.741
45.7606 0.678
45.7908 -0.009
45.8211 0.032
45.8514 -0.290
45.8817 -0.092
45.9120 -0.674
45.9422 0.775
45.9725 -0.224
46.0028 -0.025
46.0331 0.227
46.0634 -0.771
46.0936 0.366
46.1239 -0.215
46.1542 0.559
46.1845 0.603
46.2147 0.075
46.2450 -0.037
46.2753 -0.096
46.3056 0.002
46.3359 0.308
46.3661 0.093
46.3964 -0.434
46.4267 1.122
46.4570 0.023
46.4873 -0.347
46.5175 0.429
46.5478 0.632
46.5781 0.315
46.6084 1.091
46.6386 -0.372
46.6689 0.301
46.6992 -0.015
46.7295 0.398
46.7598 0.967
46.7900 1.380
46.8203 1.221
46.8506 0.645
46.8809 1.371
46.9112 1.942
46.9414 1.158
46.9717 0.791
47.0020 2.352
47.0323 2.507
47.0626 2.349
47.0928 3.702
47.1231 3.753
47.1534 3.335
47.1837 4.272
47.2139 6.980
47.2442 5.834
47.2745 5.939
47.3048 8.022
47.3351 8.283
47.3653 8.805
47.3956 8.858
47.4259 8.650
47.4562 8.652
47.4865 8.028
47.5167 8.395
47.5470 6.782
47.5773 8.243
47.6076 6.110
47.6378 4.706
47.6681 3.563
47.6984 3.931
47.7287 3.361
47.7590 3.781
47.7892 2.118
47.8195 2.278
47.8498 2.543
47.8801 1.922
47.9104 1.302
47.9406 1.463
47.9709 1.312
48.0012 1.004
48.0315 0.853
48.0617 1.067
48.0920 0.865
48.1223 1.079
48.1526 0.304
48.1829 0.259
48.2131 -0.359
48.2434 0.325
48.2737 0.123
48.3040 -0.078
48.3343 0.295
48.3645 0.406
48.3948 0.310
48.4251 -0.098
48.4554 -0.246
48.4856 0.075
48.5159 -0.385
48.5462 0.406
48.5765 0.207
48.6068 -0.201
48.6370 -0.191
48.6673 0.652
48.6976 0.298
48.7279 -0.317
48.7582 0.006
48.7884 -0.347
48.8187 -0.024
48.8490 -0.481
48.8793 -0.007
48.9095 0.468
48.9398 -0.463
48.9701 0.065
49.0004 0.176
49.0307 -0.025
49.0609 0.087
49.0912 -0.166
49.1215 -0.315
49.1518 -0.001
49.1821 -0.259
49.2123 -0.153
49.2426 -0.254
49.2729 0.009
49.3032 0.011
49.3334 -0.506
49.3637 -0.037
49.3940 0.588
49.4243 0.120
49.4546 0.017
49.4848 0.487
49.5151 -0.032
49.5454 -0.343
49.5757 0.388
49.6060 -0.235
49.6362 -0.232
49.6665 -0.386
49.6968 0.398
49.7271 0.089
49.7574 0.508
49.7876 -0.842
49.8179 -0.110
49.8482 0.571
49.8785 0.159
49.9087 -0.774
49.9390 -0.145
49.9693 0.224
49.9996 -0.500
50.0299 -0.130
50.0601 -0.229
50.0904 0.350
50.1207 0.407
50.1510 -0.264
50.1813 0.211
50.2115 -0.095
50.2418 0.172
50.2721 0.387
50.3024 -0.230
50.3326 -0.067
50.3629 -0.059
50.3932 0.104
50.4235 0.217
50.4538 -0.348
50.4840 -0.239
50.5143 0.495
50.5446 0.031
50.5749 -0.068
50.6052 0.042
50.6354 0.047
50.6657 0.470
50.6960 -0.201
50.7263 0.014
50.7565 0.853
50.7868 -0.025
50.8171 0.086
50.8474 0.354
50.8777 0.517
50.9079 -0.100
50.9382 0.845
50.9685 0.072
50.9988 0.549
51.0291 0.141
51.0593 0.514
51.0896 0.679
51.1199 0.115
51.1502 0.385
51.1804 -0.022
51.2107 0.457
51.2410 0.154
51.2713 0.581
51.3016 0.071
51.3318 0.133
51.3621 -0.273
51.3924 -0.178
51.4227 0.437
51.4530 0.115
51.4832 0.314
51.5135 -0.216
51.5438 0.556
51.5741 0.183
51.6043 0.226
51.6346 0.426
51.6649 0.054
51.6952 0.462
51.7255 0.507
51.7557 0.395
51.7860 -0.029
51.8163 0.069
51.8466 -0.147
51.8769 -0.205
51.9071 0.309
51.9374 0.147
51.9677 0.037
51.9980 0.239
52.0282 -0.131
52.0585 0.697
52.0888 0.015
52.1191 -0.354
52.1494 0.266
52.1796 0.001
52.2099 0.101
52.2402 0.358
52.2705 0.198
52.3008 -0.223
52.3310 -0.070
52.3613 -0.281
52.3916 0.133
52.4219 0.338
52.4521 -0.185
52.4824 0.281
52.5127 0.331
52.5430 -0.400
52.5733 0.015
52.6035 -0.299
52.6338 0.169
52.6641 0.481
52.6944 0.271
52.7247 -0.094
52.7549 0.062
52.7852 0.114
52.8155 0.270
52.8458 0.271
52.8761 0.219
52.9063 0.168
52.9366 -0.092
52.9669 -0.247
52.9972 -0.297
53.0274 -0.087
53.0577 -0.554
53.0880 0.334
53.1183 0.024
53.1486 -0.129
53.1788 -0.230
53.2091 0.294
53.2394 -0.171
53.2697 -0.272
53.3000 -0.060
53.3302 0.517
53.3605 0.105
53.3908 0.110
53.4211 -0.198
53.4513 -0.141
53.4816 0.125
53.5119 0.130
53.5422 0.292
53.5725 -0.171
53.6027 -0.529
53.6330 0.134
53.6633 0.225
53.6936 0.524
53.7239 -0.374
53.7541 -0.178
53.7844 -0.295
53.8147 0.891
53.8450 -0.267
53.8752 0.138
53.9055 0.335
53.9358 -0.458
53.9661 0.000
53.9964 0.458
54.0266 0.134
54.0569 0.124
54.0872 0.062
54.1175 0.260
54.1478 0.354
54.1780 0.188
54.2083 -0.290
54.2386 0.274
54.2689 -0.360
54.2991 0.100
54.3294 -0.013
54.3597 -0.021
54.3900 0.075
54.4203 -0.090
54.4505 0.007
54.4808 -0.157
54.5111 -0.320
54.5414 -0.071
54.5717 -0.134
54.6019 -0.093
54.6322 0.105
54.6625 -0.218
54.6928 -0.124
54.7230 0.023
54.7533 -0.091
54.7836 0.368
54.8139 0.098
54.8442 0.089
54.8744 -0.128
54.9047 0.489
54.9350 0.064
54.9653 -0.257
54.9956 -0.005
55.0258 -0.065
55.0561 -0.176
55.0864 -0.340
55.1167 0.226
55.1469 -0.406
55.1772 -0.152
55.2075 0.102
55.2378 -0.217
55.2681 0.142
55.2983 0.500
55.3286 0.130
55.3589 0.125
55.3892 0.224
55.4195 0.688
55.4497 1.048
55.4800 1.095
55.5103 -0.003
55.5406 0.462
55.5709 0.510
55.6011 0.558
55.6314 0.607
55.6617 0.604
55.6920 0.601
55.7222 0.546
55.7525 0.595
55.7828 0.853
55.8131 1.007
55.8434 1.631
55.8736 1.160
55.9039 1.367
55.9342 2.251
55.9645 3.083
55.9948 2.718
56.0250 3.394
56.0553 3.342
56.0856 4.123
56.1159 3.654
56.1461 4.748
56.1764 5.425
56.2067 6.572
56.2370 7.198
56.2673 6.157
56.2975 8.710
56.3278 10.066
56.3581 9.755
56.3884 10.330
56.4187 12.207
56.4489 12.574
56.4792 11.639
56.5095 11.486
56.5398 9.301
56.5700 10.242
56.6003 9.516
56.6306 8.582
56.6609 7.961
56.6912 7.653
56.7214 5.209
56.7517 5.318
56.7820 5.375
56.8123 4.234
56.8426 4.499
56.8728 4.088
56.9031 2.844
56.9334 3.058
56.9637 2.387
56.9939 1.924
57.0242 2.451
57.0545 2.250
57.0848 1.944
57.1151 1.014
57.1453 2.063
57.1756 0.716
57.2059 0.932
57.2362 0.679
57.2665 1.000
57.2967 0.800
57.3270 0.809
57.3573 0.349
57.3876 0.462
57.4178 -0.050
57.4481 0.116
57.4784 0.386
57.5087 0.292
57.5390 0.093
57.5692 0.156
57.5995 -0.615
57.6298 0.073
57.6601 0.448
57.6904 0.512
57.7206 -0.310
57.7509 -0.142
57.7812 0.130
57.8115 -0.014
57.8417 -0.315
57.8720 -0.108
57.9023 -0.058
57.9326 0.044
57.9629 -0.217
57.9931 -0.010
58.0234 0.301
58.0537 0.197
58.0840 -0.064
58.1143 0.144
58.1445 -0.221
58.1748 0.144
58.2051 0.613
58.2354 0.093
58.2656 0.146
58.2959 0.407
58.3262 0.877
58.3565 0.410
58.3868 -0.214
58.4170 0.049
58.4473 -0.470
58.4776 0.574
58.5079 -0.205
58.5382 -0.098
58.5684 0.322
58.5987 0.220
58.6290 0.120
58.6593 -0.189
58.6896 -0.498
58.7198 0.183
58.7501 -0.802
58.7804 -0.069
58.8107 0.353
58.8409 0.097
58.8712 -0.002
58.9015 -0.309
58.9318 -0.148
58.9621 -0.142
58.9923 -0.032
59.0226 0.495
59.0529 0.553
59.0832 0.038
59.1135 0.149
59.1437 0.416
59.1740 -0.098
59.2043 0.118
59.2346 0.230
59.2648 -0.075
59.2951 -0.432
59.3254 0.253
59.3557 0.418
59.3860 -0.043
59.4162 0.331
59.4465 0.079
59.4768 -0.172
59.5071 0.098
59.5374 0.368
59.5676 0.013
59.5979 -0.185
59.6282 0.137
59.6585 -0.061
59.6887 -0.102
59.7190 0.326
59.7493 -0.080
59.7796 0.400
59.8099 -0.057
59.8401 0.007
59.8704 -0.502
59.9007 -0.040
59.9310 -0.203
59.9613 0.102
59.9915 -0.164
60.0218 -0.066
60.0521 0.188
60.0824 0.183
60.1126 -0.083
60.1429 0.328
60.1732 0.011
60.2035 0.266
60.2338 0.835
60.2640 0.570
60.2943 -0.059
60.3246 0.614
60.3549 0.297
60.3852 0.034
60.4154 0.186
60.4457 -0.025
60.4760 -0.028
60.5063 0.490
60.5365 0.384
60.5668 0.069
60.5971 0.275
60.6274 0.378
60.6577 0.220
60.6879 0.114
60.7182 0.478
60.7485 -0.044
60.7788 0.893
60.8091 -0.045
60.8393 0.319
60.8696 0.267
60.8999 0.423
60.9302 -0.097
60.9604 0.424
60.9907 0.008
61.0210 0.478
61.0513 0.219
61.0816 0.480
61.1118 0.586
61.1421 -0.089
61.1724 -0.295
61.2027 0.057
61.2330 -0.112
61.2632 0.710
61.2935 0.125
61.3238 0.166
61.3541 0.467
61.3844 0.195
61.4146 0.237
61.4449 0.017
61.4752 0.007
61.5055 0.153
61.5357 0.612
61.5660 0.133
61.5963 0.176
61.6266 0.218
61.6569 0.470
61.6871 0.409
61.7174 0.504
61.7477 0.287
61.7780 0.591
61.8083 0.531
61.8385 0.315
61.8688 0.568
61.8991 0.508
61.9294 0.449
61.9596 0.546
61.9899 1.164
62.0202 0.481
62.0505 1.047
62.0808 1.770
62.1110 1.504
62.1413 1.133
62.1716 1.701
62.2019 2.320
62.2322 1.899
62.2624 2.206
62.2927 3.243
62.3230 3.031
62.3533 3.391
62.3835 3.387
62.4138 3.591
62.4441 4.734
62.4744 4.991
62.5047 5.925
62.5349 6.339
62.5652 7.013
62.5955 6.907
62.6258 7.738
62.6561 9.402
62.6863 7.838
62.7166 9.242
62.7469 10.231
62.7772 8.146
62.8074 9.447
62.8377 8.092
62.8680 8.352
62.8983 7.258
62.9286 7.831
62.9588 5.747
62.9891 6.320
63.0194 6.008
63.0497 4.863
63.0800 3.562
63.1102 3.563
63.1405 4.033
63.1708 2.525
63.2011 1.745
63.2313 1.226
63.2616 2.010
63.2919 1.335
63.3222 1.911
63.3525 1.236
63.3827 1.031
63.4130 0.722
63.4433 0.725
63.4736 0.521
63.5039 0.941
63.5341 -0.096
63.5644 0.690
63.5947 0.694
63.6250 0.647
63.6552 0.443
63.6855 0.240
63.7158 0.402
63.7461 0.460
63.7764 -0.003
63.8066 0.159
63.8369 0.061
63.8672 -0.245
63.8975 0.075
63.9278 -0.127
63.9580 0.141
63.9883 0.148
64.0186 -0.365
64.0489 0.111
64.0791 -0.141
64.1094 -0.133
64.1397 0.449
64.1700 0.197
64.2003 0.779
64.2305 -0.306
64.2608 -0.140
64.2911 -0.131
64.3214 0.608
64.3517 0.201
64.3819 0.368
64.4122 0.274
64.4425 0.753
64.4728 0.295
64.5031 -0.110
64.5333 0.213
64.5636 -0.400
64.5939 -0.250
64.6242 0.057
64.6544 0.000
64.6847 -0.058
64.7150 0.458
64.7453 0.714
64.7756 0.345
64.8058 -0.233
64.8361 -0.081
64.8664 -0.293
64.8967 -0.036
64.9270 -0.248
64.9572 -0.303
64.9875 -0.003
65.0178 -0.275
65.0481 0.912
65.0783 0.119
65.1086 -0.048
65.1389 0.254
65.1692 -0.174
65.1995 -0.028
65.2297 0.066
65.2600 0.369
65.2903 -0.006
65.3206 -0.223
65.3509 0.132
65.3811 -0.294
65.4114 -0.094
65.4417 0.105
65.4720 0.045
65.5022 0.089
65.5325 0.133
65.5628 0.281
65.5931 -0.560
65.6234 -0.313
65.6536 0.403
65.6839 0.598
65.7142 0.481
65.7445 0.208
65.7748 -0.638
65.8050 0.443
65.8353 0.483
65.8656 0.263
65.8959 0.199
65.9261 0.396
65.9564 -0.396
65.9867 0.426
66.0170 1.457
66.0473 0.717
66.0775 0.395
66.1078 1.009
66.1381 0.791
66.1684 0.781
66.1987 0.355
66.2289 1.284
66.2592 1.483
66.2895 0.849
66.3198 0.267
66.3500 1.144
66.3803 0.667
66.4106 0.503
66.4409 0.756
66.4712 0.592
66.5014 0.689
66.5317 0.265
66.5620 -0.002
66.5923 0.824
66.6226 0.662
66.6528 0.187
66.6831 0.024
66.7134 0.279
66.7437 0.742
66.7739 0.685
66.8042 0.002
66.8345 0.310
66.8648 -0.060
66.8951 0.144
66.9253 -0.225
66.9556 0.136
66.9859 -0.181
67.0162 0.649
67.0465 0.229
67.0767 0.121
67.1070 -0.038
67.1373 0.272
67.1676 0.113
67.1978 0.631
67.2281 1.619
67.2584 1.148
67.2887 1.042
67.3190 2.030
67.3492 2.185
67.3795 1.038
67.4098 1.766
67.4401 1.609
67.4704 2.286
67.5006 1.869
67.5309 3.484
67.5612 1.452
67.5915 4.265
67.6218 4.943
67.6520 4.319
67.6823 6.039
67.7126 5.571
67.7429 6.250
67.7731 5.783
67.8034 3.962
67.8337 6.880
67.8640 6.414
67.8943 6.208
67.9245 6.055
67.9548 5.068
67.9851 5.957
68.0154 5.700
68.0457 4.557
68.0759 4.145
68.1062 4.513
68.1365 4.205
68.1668 2.907
68.1970 3.329
68.2273 3.542
68.2576 2.714
68.2879 2.302
68.3182 2.308
68.3484 2.001
68.3787 2.059
68.4090 1.180
68.4393 2.540
68.4696 2.547
68.4998 1.721
68.5301 1.676
68.5604 1.266
68.5907 1.430
68.6209 1.646
68.6512 1.862
68.6815 1.141
68.7118 2.712
68.7421 2.512
68.7723 2.417
68.8026 2.634
68.8329 1.810
68.8632 1.767
68.8935 2.871
68.9237 2.203
68.9540 3.359
68.9843 2.380
69.0146 3.067
69.0448 2.453
69.0751 2.568
69.1054 3.100
69.1357 2.955
69.1660 1.248
69.1962 1.156
69.2265 2.366
69.2568 1.492
69.2871 1.296
69.3174 0.840
69.3476 1.166
69.3779 1.022
69.4082 0.879
69.4385 1.414
69.4687 0.125
69.4990 -0.069
69.5293 0.622
69.5596 0.220
69.5899 0.755
69.6201 0.145
69.6504 0.264
69.6807 0.123
69.7110 0.503
69.7413 -0.158
69.7715 -0.038
69.8018 0.082
69.8321 -0.006
69.8624 0.375
69.8926 -0.025
69.9229 -0.008
69.9532 -0.095
69.9835 0.183
70.0138 0.148
70.0440 -0.042
70.0743 0.288
70.1046 -0.371
70.1349 -0.196
70.1652 -0.177
70.1954 -0.002
70.2257 -0.192
70.2560 -0.068
70.2863 -0.101
70.3166 0.440
70.3468 0.147
70.3771 0.428
70.4074 -0.125
70.4377 -0.104
70.4679 -0.500
70.4982 0.076
70.5285 -0.024
70.5588 0.345
70.5891 -0.120
70.6193 0.145
70.6496 -0.059
70.6799 0.206
70.7102 0.107
70.7405 0.113
70.7707 0.222
70.8010 0.176
70.8313 0.182
70.8616 0.188
70.8918 0.194
70.9221 0.305
70.9524 -0.209
70.9827 -0.046
71.0130 -0.403
71.0432 0.125
71.0735 0.081
71.1038 -0.172
71.1341 0.097
71.1644 0.417
71.1946 -0.095
71.2249 -0.034
71.2552 0.287
71.2855 0.661
71.3157 0.201
71.3460 0.159
71.3763 0.221
71.4066 -0.238
71.4369 -0.238
71.4671 0.225
71.4974 0.167
71.5277 0.161
71.5580 0.416
71.5883 0.410
71.6185 0.353
71.6488 0.192
71.6791 0.291
71.7094 0.443
71.7396 0.126
71.7699 0.435
71.8002 0.118
71.8305 -0.198
71.8608 -0.201
71.8910 0.264
71.9213 -0.103
71.9516 0.050
71.9819 0.204
72.0122 0.201
72.0424 0.408
72.0727 -0.011
72.1030 0.091
72.1333 0.350
72.1635 0.557
72.1938 0.296
72.2241 0.451
72.2544 0.242
72.2847 0.763
72.3149 0.658
72.3452 0.815
72.3755 0.398
72.4058 0.815
72.4361 0.920
72.4663 0.088
72.4966 0.870
72.5269 0.663
72.5572 0.925
72.5874 -0.167
72.6177 0.512
72.6480 0.254
72.6783 0.152
72.7086 0.206
72.7388 0.418
72.7691 0.368
72.7994 0.476
72.8297 0.115
72.8600 0.118
72.8902 0.122
72.9205 -0.342
72.9508 0.079
72.9811 0.031
73.0113 0.036
73.0416 0.197
73.0719 -0.110
73.1022 0.051
73.1325 0.786
73.1627 0.167
73.1930 0.225
73.2233 0.179
73.2536 0.185
73.2839 0.192
73.3141 -0.270
73.3444 -0.002
73.3747 0.422
73.4050 -0.300
73.4353 0.020
73.4655 0.132
73.4958 0.193
73.5261 0.097
73.5564 0.314
73.5866 0.114
73.6169 0.280
73.6472 -0.180
73.6775 -0.223
73.7078 0.040
73.7380 0.355
73.7683 0.358
73.7986 -0.160
73.8289 0.364
73.8592 0.419
73.8894 -0.202
73.9197 0.010
73.9500 0.691
73.9803 0.226
74.0105 -0.030
74.0408 -0.234
74.0711 0.017
74.1014 0.060
74.1317 0.050
74.1619 0.197
74.1922 0.084
74.2225 0.232
74.2528 0.483
74.2831 0.319
74.3133 -0.158
74.3436 0.199
74.3739 0.087
74.4042 -0.129
74.4344 -0.292
74.4647 0.221
74.4950 0.006
74.5253 0.208
74.5556 0.098
74.5858 0.039
74.6161 0.137
74.6464 0.132
74.6767 -0.030
74.7070 0.329
74.7372 0.064
74.7675 0.007
74.7978 -0.102
74.8281 -0.315
74.8583 0.098
74.8886 -0.374
74.9189 -0.013
74.9492 0.088
74.9795 -0.019
75.0097 -0.074
75.0400 0.079
75.0703 0.285
75.1006 -0.133
75.1309 0.177
75.1611 -0.085
75.1914 -0.138
75.2217 0.277
75.2520 0.120
75.2822 -0.142
75.3125 -0.142
75.3428 0.066
75.3731 -0.091
75.4034 0.170
75.4336 -0.195
75.4639 0.170
75.4942 -0.141
75.5245 -0.036
75.5548 -0.035
75.5850 -0.242
75.6153 -0.189
75.6456 0.021
75.6759 -0.341
75.7061 -0.034
75.7364 0.065
75.7667 0.060
75.7970 -0.257
75.8273 -0.053
75.8575 -0.422
75.8878 0.408
75.9181 0.039
75.9484 -0.329
75.9787 -0.020
76.0089 -0.075
76.0392 0.130
76.0695 0.284
76.0998 0.646
76.1301 0.227
76.1603 0.017
76.1906 0.379
76.2209 0.222
76.2512 0.012
76.2814 0.375
76.3117 0.374
76.3420 0.009
76.3723 0.425
76.4026 -0.044
76.4328 0.164
76.4631 -0.252
76.4934 0.425
76.5237 0.425
76.5540 0.166
76.5842 0.948
76.6145 0.428
76.6448 0.586
76.6751 0.119
76.7053 0.693
76.7356 0.331
76.7659 0.333
76.7962 0.492
76.8265 0.495
76.8567 1.018
76.8870 0.344
76.9173 0.868
76.9476 0.820
76.9779 0.459
77.0081 0.307
77.0384 0.519
77.0687 0.419
77.0990 0.320
77.1292 0.845
77.1595 0.694
77.1898 0.647
77.2201 1.017
77.2504 0.086
77.2806 -0.013
77.3109 0.566
77.3412 0.469
77.3715 0.006
77.4018 0.846
77.4320 0.385
77.4623 0.079
77.4926 0.243
77.5229 -0.062
77.5531 0.102
77.5834 0.006
77.6137 0.327
77.6440 0.127
77.6743 0.031
77.7045 0.353
77.7348 -0.263
77.7651 0.580
77.7954 -0.036
77.8257 -0.234
77.8559 0.030
77.8862 0.139
77.9165 0.560
77.9468 0.461
77.9770 -0.159
78.0073 0.316
78.0376 0.217
78.0679 0.327
78.0982 0.073
78.1284 -0.234
78.1587 -0.086
78.1890 0.217
78.2193 0.312
78.2496 0.356
78.2798 -0.121
78.3101 0.392
78.3404 0.175
78.3707 0.168
78.4009 0.004
78.4312 0.518
78.4615 0.615
78.4918 0.347
78.5221 0.133
78.5523 0.178
78.5826 -0.245
78.6129 0.270
78.6432 0.212
78.6735 -0.262
78.7037 -0.217
78.7340 0.141
78.7643 0.030
78.7946 0.179
78.8248 0.329
78.8551 -0.250
78.8854 -0.151
78.9157 0.051
78.9460 0.150
78.9762 0.040
79.0065 -0.329
79.0368 0.239
79.0671 -0.234
79.0974 0.126
79.1276 -0.035
79.1579 0.013
79.1882 0.166
79.2185 0.058
79.2488 0.003
79.2790 -0.052
79.3093 -0.420
79.3396 0.046
79.3699 -0.060
79.4001 0.041
79.4304 0.039
79.4607 -0.275
79.4910 0.036
79.5213 -0.122
79.5515 -0.175
79.5818 0.032
79.6121 -0.281
79.6424 0.552
79.6727 0.187
79.7029 0.239
79.7332 -0.073
79.7635 -0.125
79.7938 -0.177
79.8240 -0.176
79.8543 0.086
79.8846 -0.330
79.9149 -0.068
79.9452 -0.067
79.9754 -0.169
80.0057 0.198
80.0360 -0.165
80.0663 -0.058
80.0966 -0.420
80.1268 0.051
80.1571 0.210
80.1874 -0.203
80.2177 -0.200
80.2479 0.116
80.2782 -0.297
80.3085 -0.085
80.3388 -0.550
80.3691 0.070
80.3993 0.170
80.4296 0.426
80.4599 0.474
80.4902 -0.363
80.5205 -0.055
80.5507 0.358
80.5810 -0.166
80.6113 0.352
80.6416 0.088
80.6718 -0.071
80.7021 -0.125
80.7324 -0.023
80.7627 0.027
80.7930 0.285
80.8232 -0.133
80.8535 0.439
80.8838 -0.448
80.9141 0.124
80.9444 -0.033
80.9746 0.175
81.0049 0.174
81.0352 0.799
81.0655 0.330
81.0957 0.539
81.1260 0.123
81.1563 0.176
81.1866 0.593
81.2169 0.803
81.2471 0.231
81.2774 0.493
81.3077 0.391
81.3380 0.028
81.3683 0.603
81.3985 0.085
81.4288 0.192
81.4591 0.507
81.4894 0.094
81.5196 -0.007
81.5499 -0.056
81.5802 -0.104
81.6105 0.577
81.6408 0.477
81.6710 0.325
81.7013 0.434
81.7316 0.126
81.7619 0.183
81.7922 0.136
81.8224 0.142
81.8527 0.251
81.8830 0.361
81.9133 0.055
81.9436 -0.095
81.9738 0.016
82.0041 -0.238
82.0344 -0.137
82.0647 0.120
82.0949 0.221
82.1252 -0.302
82.1555 0.008
82.1858 0.058
82.2161 0.056
82.2463 0.106
82.2766 -0.208
82.3069 0.155
82.3372 -0.419
82.3675 0.049
82.3977 0.100
82.4280 -0.630
82.4583 0.099
82.4886 -0.370
82.5188 -0.057
82.5491 0.152
82.5794 -0.056
82.6097 0.205
82.6400 -0.367
82.6702 -0.209
82.7005 -0.208
82.7308 0.419
82.7611 0.004
82.7914 0.214
82.8216 -0.357
82.8519 0.115
82.8822 -0.508
82.9125 0.016
82.9427 0.071
82.9730 -0.238
83.0033 -0.184
83.0336 0.183
83.0639 0.133
83.0941 0.136
83.1244 0.139
83.1547 0.402
83.1850 0.145
83.2153 -0.216
83.2455 0.360
83.2758 -0.209
83.3061 -0.205
83.3364 0.425
83.3666 0.012
83.3969 0.121
83.4272 0.231
83.4575 0.027
83.4878 -0.124
83.5180 0.038
83.5483 0.148
83.5786 0.363
83.6089 0.213
83.6392 0.063
83.6694 0.174
83.6997 0.337
83.7300 -0.229
83.7603 0.455
83.7905 0.098
83.8208 0.158
83.8511 0.270
83.8814 0.435
83.9117 0.183
83.9419 0.087
83.9722 0.148
84.0025 0.209
84.0328 0.114
84.0631 0.020
84.0933 -0.179
84.1236 0.143
84.1539 0.206
84.1842 0.112
84.2144 -0.086
84.2447 -0.336
84.2750 0.074
84.3053 0.276
84.3356 0.374
84.3658 -0.101
84.3961 0.102
84.4264 -0.060
84.4567 0.403
84.4870 0.034
84.5172 -0.180
84.5475 0.284
84.5778 -0.189
84.6081 0.328
84.6383 0.115
84.6686 0.268
84.6989 -0.309
84.7292 0.157
84.7595 0.518
84.7897 0.046
84.8200 -0.009
84.8503 -0.115
84.8806 0.403
84.9109 0.297
84.9411 -0.226
84.9714 0.033
85.0017 0.239
85.0320 0.186
85.0623 -0.180
85.0925 -0.180
85.1228 -0.129
85.1531 -0.234
85.1834 0.127
85.2136 -0.450
85.2439 0.171
85.2742 -0.144
85.3045 0.061
85.3348 -0.151
85.3650 0.055
85.3953 0.261
85.4256 0.258
85.4559 -0.004
85.4862 -0.215
85.5164 0.513
85.5467 0.251
85.5770 0.145
85.6073 0.040
85.6375 0.091
85.6678 0.039
85.6981 0.142
85.7284 -0.223
85.7587 -0.231
85.7889 0.385
85.8192 0.325
85.8495 -0.152
85.8798 0.257
85.9101 -0.011
85.9403 -0.018
85.9706 0.027
86.0009 -0.032
86.0312 0.065
86.0614 0.527
86.0917 0.209
86.1220 -0.318
86.1523 -0.064
86.1826 0.191
86.2128 -0.127
86.2431 0.024
86.2734 0.175
86.3037 0.327
86.3340 0.114
86.3642 -0.359
86.3945 0.001
86.4248 0.049
86.4551 0.202
86.4853 -0.323
86.5156 -0.065
86.5459 0.088
86.5762 -0.176
86.6065 0.239
86.6367 0.288
86.6670 -0.027
86.6973 -0.029
86.7276 -0.030
86.7579 -0.032
86.7881 -0.033
86.8184 -0.191
86.8487 -0.087
86.8790 0.068
86.9092 -0.193
86.9395 -0.193
86.9698 -0.245
87.0001 -0.089
87.0304 -0.245
87.0606 -0.245
87.0909 0.016
87.1212 0.173
87.1515 0.018
87.1818 0.020
87.2120 -0.135
87.2423 0.283
87.2726 0.233
87.3029 -0.546
87.3331 0.290
87.3634 -0.124
87.3937 -0.174
87.4240 0.246
87.4543 -0.167
87.4845 -0.008
87.5148 0.048
87.5451 0.052
87.5754 0.108
87.6057 -0.148
87.6359 0.065
87.6662 0.122
87.6965 0.335
87.7268 0.132
87.7571 -0.175
87.7873 0.508
87.8176 0.045
87.8479 -0.314
87.8782 -0.051
87.9084 0.108
87.9387 0.319
87.9690 0.062
87.9993 0.170
88.0296 0.278
88.0598 -0.135
88.0901 -0.340
88.1204 0.124
88.1507 -0.089
88.1810 0.219
88.2112 0.632
88.2415 0.211
88.2718 -0.314
88.3021 -0.219
88.3323 0.136
88.3626 0.231
88.3929 0.326
88.4232 0.109
88.4535 0.308
88.4837 0.092
88.5140 0.032
88.5443 0.076
88.5746 0.589
88.6049 0.060
88.6351 0.418
88.6654 0.254
88.6957 0.195
88.7260 0.866
88.7562 0.495
88.7865 0.020
88.8168 0.639
88.8471 0.216
88.8774 0.003
88.9076 0.206
88.9379 0.096
88.9682 0.560
88.9985 -0.122
89.0288 0.134
89.0590 0.442
89.0893 0.334
89.1196 0.122
89.1499 0.743
89.1801 0.427
89.2104 0.737
89.2407 0.265
89.2710 0.991
89.3013 1.562
89.3315 1.091
89.3618 0.828
89.3921 1.034
89.4224 1.345
89.4527 0.927
89.4829 0.718
89.5132 1.237
89.5435 2.226
89.5738 1.444
89.6040 1.444
89.6343 0.871
89.6646 1.079
89.6949 0.715
89.7252 1.288
89.7554 0.924
89.7857 0.977
89.8160 0.509
89.8463 0.250
89.8766 0.564
89.9068 1.191
89.9371 0.516
89.9674 0.414
89.9977 0.468
90.0279 0.158
90.0582 0.734
90.0885 0.216
90.1188 0.428
90.1491 0.327
90.1793 0.227
90.2096 -0.186
90.2399 -0.078
90.2702 -0.022
90.3005 0.764
90.3307 -0.273
90.3610 0.045
90.3913 0.467
90.4216 0.472
90.4518 0.113
90.4821 0.171
90.5124 0.281
90.5427 -0.025
90.5730 -0.071
90.6032 -0.220
90.6335 -0.057
90.6638 0.106
90.6941 0.791
90.7244 0.069
90.7546 0.181
90.7849 -0.072
90.8152 0.353
90.8455 -0.107
90.8758 -0.203
90.9060 0.119
90.9363 -0.081
90.9666 0.293
90.9969 0.355
91.0271 -0.157
91.0574 0.062
91.0877 -0.189
91.1180 -0.230
91.1483 -0.032
91.1785 0.219
91.2088 -0.155
91.2391 0.097
91.2694 0.088
91.2997 0.183
91.3299 -0.190
91.3602 0.063
91.3905 -0.102
91.4208 0.203
91.4510 -0.169
91.4813 -0.072
91.5116 0.025
91.5419 -0.243
91.5722 0.376
91.6024 -0.256
91.6327 0.051
91.6630 0.253
91.6933 -0.378
91.7236 -0.123
91.7538 0.080
91.7841 -0.290
91.8144 -0.089
91.8447 0.322
91.8749 0.107
91.9052 0.465
91.9355 0.772
91.9658 0.089
91.9961 0.292
92.0263 0.026
92.0566 0.021
92.0869 0.121
92.1172 0.012
92.1475 0.111
92.1777 0.420
92.2080 0.155
92.2383 0.308
92.2686 -0.008
92.2988 0.249
92.3291 0.089
92.3594 -0.278
92.3897 0.032
92.4200 0.238
92.4502 0.183
92.4805 0.181
92.5108 0.284
92.5411 0.126
92.5714 0.124
92.6016 -0.085
92.6319 0.278
92.6622 0.798
92.6925 0.381
92.7227 0.120
92.7530 0.485
92.7833 0.641
92.8136 0.225
92.8439 0.121
92.8741 0.174
92.9044 0.175
92.9347 0.437
92.9650 0.646
92.9953 0.179
93.0255 0.441
93.0558 0.391
93.0861 0.185
93.1164 0.188
93.1466 0.451
93.1769 -0.380
93.2072 0.144
93.2375 -0.217
93.2678 0.203
93.2980 -0.158
93.3283 0.315
93.3586 -0.098
93.3889 0.219
93.4192 0.068
93.4494 -0.188
93.4797 -0.287
93.5100 0.447
93.5403 -0.016
93.5706 -0.062
93.6008 -0.213
93.6311 -0.102
93.6614 -0.252
93.6917 0.007
93.7219 -0.254
93.7522 0.162
93.7825 -0.047
93.8128 0.422
93.8431 0.057
93.8733 0.005
93.9036 -0.098
93.9339 -0.150
93.9642 0.007
93.9945 -0.460
94.0247 0.531
94.0550 0.480
94.0853 0.378
94.1156 0.067
94.1458 0.017
94.1761 -0.084
94.2064 -0.394
94.2367 0.070
94.2670 0.377
94.2972 -0.044
94.3275 0.264
94.3578 0.312
94.3881 0.517
94.4184 0.461
94.4486 0.457
94.4789 0.089
94.5092 0.503
94.5395 0.396
94.5697 0.237
94.6000 0.651
94.6303 0.493
94.6606 0.491
94.6909 0.072
94.7211 0.748
94.7514 -0.035
94.7817 0.329
94.8120 0.797
94.8423 0.588
94.8725 1.004
94.9028 0.587
94.9331 0.899
94.9634 0.587
94.9936 0.535
95.0239 1.004
95.0542 0.797
95.0845 1.006
95.1148 1.112
95.1450 1.009
95.1753 1.531
95.2056 1.846
95.2359 1.015
95.2662 1.329
95.2964 1.124
95.3267 0.762
95.3570 0.921
95.3873 0.716
95.4175 1.136
95.4478 1.087
95.4781 1.039
95.5084 1.043
95.5387 1.151
95.5689 0.791
95.5992 1.108
95.6295 0.749
95.6598 0.546
95.6901 0.707
95.7203 0.296
95.7506 -0.011
95.7809 0.568
95.8112 0.262
95.8414 0.476
95.8717 0.639
95.9020 0.386
95.9323 0.289
95.9626 0.452
95.9928 0.355
96.0231 0.207
96.0534 0.267
96.0837 0.171
96.1140 0.700
96.1442 0.187
96.1745 0.457
96.2048 0.466
96.2351 0.423
96.2653 -0.193
96.2956 -0.235
96.3259 0.178
96.3562 0.071
96.3865 0.277
96.4167 0.066
96.4470 0.220
96.4773 0.322
96.5076 0.112
96.5379 -0.462
96.5681 -0.047
96.5984 -0.256
96.6287 0.055
96.6590 0.575
96.6893 0.523
96.7195 0.106
96.7498 0.210
96.7801 0.314
96.8104 -0.102
96.8406 0.055
96.8709 0.004
96.9012 0.109
96.9315 -0.307
96.9618 0.736
96.9920 0.217
97.0223 0.063
97.0526 0.221
97.0829 0.692
97.1132 -0.086
97.1434 -0.032
97.1737 0.648
97.2040 -0.130
97.2343 -0.230
97.2645 -0.031
97.2948 0.169
97.3251 0.004
97.3554 0.101
97.3857 0.093
97.4159 0.554
97.4462 0.182
97.4765 0.383
97.5068 0.220
97.5371 -0.100
97.5673 0.206
97.5976 0.564
97.6279 0.454
97.6582 -0.177
97.6884 -0.079
97.7187 0.333
97.7490 -0.037
97.7793 -0.094
97.8096 0.265
97.8398 0.313
97.8701 -0.108
97.9004 0.148
97.9307 -0.065
97.9610 0.192
97.9912 -0.228
98.0215 0.498
98.0518 0.390
98.0821 -0.081
98.1123 0.332
98.1426 -0.243
98.1729 0.380
98.2032 0.273
98.2335 0.428
98.2637 0.739
98.2940 0.164
98.3243 1.101
98.3546 0.943
98.3849 0.630
98.4151 0.421
98.4454 0.265
98.4757 0.681
98.5060 0.004
98.5362 0.838
98.5665 0.578
98.5968 0.683
98.6271 1.308
98.6574 0.112
98.6876 1.103
98.7179 0.635
98.7482 0.325
98.7785 0.431
98.8088 0.537
98.8390 0.279
98.8693 0.907
98.8996 0.597
98.9299 0.861
98.9601 0.447
98.9904 -0.174
99.0207 -0.066
99.0510 0.406
99.0813 0.515
99.1115 0.155
99.1418 0.784
99.1721 -0.305
99.2024 0.377
99.2327 -0.347
99.2629 -0.289
99.2932 0.341
99.3235 0.189
99.3538 0.143
99.3841 0.304
99.4143 0.206
99.4446 0.264
99.4749 0.010
99.5052 -0.088
99.5354 -0.238
99.5657 0.024
99.5960 0.391
99.6263 0.497
99.6566 0.083
99.6868 -0.279
99.7171 0.557
99.7474 -0.117
99.7777 0.094
99.8080 -0.163
99.8382 0.258
99.8685 0.314
99.8988 -0.047
99.9291 -0.199
99.9593 -0.038
99.9896 0.175
100.0199 0.388
100.0502 0.029
100.0805 -0.122
100.1107 0.405
100.1410 -0.006
100.1713 0.052
100.2016 0.162
100.2319 0.325
100.2621 0.175
100.2924 -0.391
100.3227 -0.192
100.3530 0.423
100.3832 -0.003
100.4135 0.821
100.4438 0.083
100.4741 -0.134
100.5044 0.170
100.5346 0.006
100.5649 0.206
100.5952 -0.114
100.6255 0.139
100.6558 0.235
100.6860 0.072
100.7163 -0.091
100.7466 -0.046
100.7769 0.000
100.8071 0.045
100.8374 0.091
100.8677 -0.227
100.8980 -0.129
100.9283 -0.082
100.9585 0.121
100.9888 0.272
101.0191 0.163
101.0494 0.002
101.0797 -0.106
101.1099 -0.215
101.1402 -0.219
101.1705 -0.118
101.2008 -0.018
101.2310 -0.229
101.2613 0.028
101.2916 -0.391
101.3219 0.127
101.3522 0.124
101.3824 -0.034
101.4127 -0.453
101.4430 0.170
101.4733 0.169
101.5036 -0.249
101.5338 0.322
101.5641 -0.095
101.5944 -0.357
101.6247 0.112
101.6549 0.320
101.6852 -0.045
101.7155 0.163
101.7458 0.060
101.7761 -0.252
101.8063 -0.252
101.8366 0.004
101.8669 0.261
101.8972 0.257
101.9275 0.150
101.9577 0.146
101.9880 -0.221
102.0183 0.505
102.0486 0.242
102.0788 0.240
102.1091 0.030
102.1394 -0.128
102.1697 0.130
102.2000 0.129
102.2302 -0.237
102.2605 -0.082
102.2908 -0.291
102.3211 0.067
102.3514 0.372
102.3816 0.522
102.4119 0.203
102.4422 0.092
102.4725 0.711
102.5028 0.028
102.5330 0.074
102.5633 0.121
102.5936 0.532
102.6239 0.163
102.6541 0.887
102.6844 0.778
102.7147 0.149
102.7450 0.561
102.7753 0.037
102.8055 0.554
102.8358 0.186
102.8661 -0.026
102.8964 0.127
102.9267 -0.345
102.9569 -0.144
102.9872 0.526
103.0175 0.206
103.0478 -0.061
103.0780 0.609
103.1083 1.019
103.1386 0.336
103.1689 -0.035
103.1992 0.168
103.2294 0.318
103.2597 0.365
103.2900 0.516
103.3203 0.459
103.3506 -0.015
103.3808 0.293
103.4111 0.132
103.4414 0.493
103.4717 0.489
103.5019 0.798
103.5322 0.169
103.5625 0.374
103.5928 1.152
103.6231 0.160
103.6533 0.209
103.6836 0.363
103.7139 0.517
103.7442 0.515
103.7745 0.774
103.8047 0.251
103.8350 0.093
103.8653 0.769
103.8956 0.508
103.9258 0.507
103.9561 0.715
103.9864 1.444
104.0167 1.027
104.0470 0.975
104.0772 0.142
104.1075 0.924
104.1378 1.029
104.1681 0.613
104.1984 0.354
104.2286 0.199
104.2589 0.253
104.2892 0.411
104.3195 1.194
104.3497 1.092
104.3800 0.834
104.4103 0.004
104.4406 0.528
104.4709 0.583
104.5011 0.430
104.5314 0.433
104.5617 0.646
104.5920 0.806
104.6223 -0.128
104.6525 0.085
104.6828 0.194
104.7131 -0.114
104.7434 -0.004
104.7736 -0.520
104.8039 0.111
104.8342 -0.353
104.8645 0.278
104.8948 0.180
104.9250 0.395
104.9553 -0.223
104.9856 -0.217
105.0159 -0.001
105.0462 -0.463
105.0764 0.170
105.1067 -0.135
105.1370 -0.180
105.1673 -0.015
105.1975 0.306
105.2278 -0.363
105.2581 0.167
105.2884 0.280
105.3187 0.133
105.3489 0.038
105.3792 -0.265
105.4095 -0.048
105.4398 -0.143
105.4701 0.180
105.5003 -0.123
105.5306 -0.217
105.5609 0.105
105.5912 0.168
105.6215 -0.394
105.6517 -0.186
105.6820 -0.030
105.7123 -0.083
105.7426 -0.135
105.7728 0.074
105.8031 -0.290
105.8334 -0.082
105.8637 0.647
105.8940 -0.186
105.9242 0.283
105.9545 -0.081
105.9848 -0.444
106.0151 0.130
106.0454 0.027
106.0756 0.236
106.1059 0.030
106.1362 -0.125
106.1665 0.190
106.1967 0.088
106.2270 0.195
106.2573 -0.115
106.2876 0.253
106.3179 -0.108
106.3481 -0.365
106.3784 0.159
106.4087 -0.045
106.4390 -0.093
106.4693 0.119
106.4995 0.488
106.5298 -0.184
106.5601 -0.127
106.5904 0.034
106.6206 -0.065
106.6509 -0.007
106.6812 -0.105
106.7115 0.213
106.7418 -0.145
106.7720 0.070
106.8023 -0.288
106.8326 -0.084
106.8629 0.381
106.8932 0.326
106.9234 -0.198
106.9537 0.164
106.9840 0.005
107.0143 0.054
107.0445 0.208
107.0748 -0.002
107.1051 -0.056
107.1354 -0.214
107.1657 -0.372
107.1959 0.304
107.2262 0.147
107.2565 0.198
107.2868 -0.010
107.3171 0.354
107.3473 -0.115
107.3776 -0.115
107.4079 0.302
107.4382 0.355
107.4684 -0.165
107.4987 0.096
107.5290 0.149
107.5593 0.098
107.5896 -0.056
107.6198 -0.367
107.6501 0.046
107.6804 0.198
107.7107 0.090
107.7410 0.243
107.7712 0.344
107.8015 -0.232
107.8318 0.078
107.8621 0.180
107.8923 0.177
107.9226 -0.346
107.9529 0.121
107.9832 -0.245
108.0135 -0.142
108.0437 -0.092
108.0740 0.116
108.1043 -0.302
108.1346 0.114
108.1649 0.114
108.1951 -0.198
108.2254 0.062
108.2557 -0.198
108.2860 -0.041
108.3163 0.220
108.3465 0.117
108.3768 0.066
108.4071 -0.245
108.4374 -0.089
108.4676 -0.037
108.4979 0.016
108.5282 0.069
108.5585 0.382
108.5888 0.643
108.6190 0.020
108.6493 0.282
108.6796 0.596
108.7099 0.181
108.7402 0.131
108.7704 0.550
108.8007 -0.176
108.8310 0.139
108.8613 0.038
108.8915 -0.011
108.9218 0.097
108.9521 -0.160
108.9824 -0.104
109.0127 0.108
109.0429 0.373
109.0732 0.794
109.1035 0.070
109.1338 -0.238
109.1641 -0.091
109.1943 0.316
109.2246 0.098
109.2549 0.194
109.2852 0.081
109.3154 0.176
109.3457 0.012
109.3760 0.472
109.4063 0.152
109.4366 0.040
109.4668 0.241
109.4971 0.286
109.5274 0.383
109.5577 0.116
109.5880 0.161
109.6182 -0.314
109.6485 0.253
109.6788 0.195
109.7091 0.449
109.7393 -0.025
109.7696 0.178
109.7999 0.173
109.8302 0.116
109.8605 0.267
109.8907 0.523
109.9210 0.207
109.9513 -0.058
109.9816 0.355
110.0119 0.143
110.0421 0.400
110.0724 0.137
110.1027 0.186
110.1330 0.339
110.1632 0.024
110.1935 0.074
110.2238 0.280
110.2541 0.539
110.2844 0.329
110.3146 0.171
110.3449 0.951
110.3752 0.533
110.4055 0.272
110.4358 -0.093
110.4660 0.115
110.4963 0.167
110.5266 0.219
110.5569 0.792
110.5871 0.324
110.6174 0.116
110.6477 0.325
110.6780 0.430
110.7083 0.015
110.7385 0.173
110.7688 -0.034
110.7991 0.073
110.8294 -0.186
110.8597 0.233
110.8899 -0.077
110.9202 -0.126
110.9505 0.398
110.9808 -0.536
111.0110 0.301
111.0413 -0.112
111.0716 -0.108
111.1019 0.156
111.1322 0.629
111.1624 0.269
111.1927 0.274
111.2230 0.331
111.2533 0.024
111.2836 0.342
111.3138 -0.174
111.3441 -0.064
111.3744 0.411
111.4047 -0.208
111.4350 -0.097
111.4652 0.170
111.4955 0.073
111.5258 0.080
111.5561 0.035
111.5863 0.251
111.6166 0.676
111.6469 -0.306
111.6772 0.275
111.7075 0.336
111.7377 0.240
111.7680 -0.063
111.7983 -0.263
111.8286 0.046
111.8589 0.146
111.8891 0.039
111.9194 0.088
111.9497 0.033
111.9800 0.238
112.0102 -0.129
112.0405 -0.027
112.0708 0.179
112.1011 -0.135
112.1314 -0.033
112.1616 -0.087
112.1919 -0.036
112.2222 0.015
112.2525 0.066
112.2828 -0.038
112.3130 -0.143
112.3433 0.013
112.3736 -0.143
112.4039 0.222
112.4341 0.378
112.4644 0.118
112.4947 -0.245
112.5250 -0.348
112.5553 0.382
112.5855 -0.033
112.6158 -0.239
112.6461 -0.081
112.6764 0.338
112.7067 0.445
112.7369 -0.230
112.7672 0.190
112.7975 -0.015
112.8278 -0.012
112.8580 -0.061
112.8883 -0.005
112.9186 -0.157
112.9489 -0.101
112.9792 -0.200
113.0094 -0.040
113.0397 0.017
113.0700 -0.238
113.1003 -0.139
113.1306 0.220
113.1608 0.267
113.1911 -0.051
113.2214 -0.160
113.2517 -0.112
113.2819 0.352
113.3122 0.035
113.3425 -0.229
113.3728 -0.024
113.4031 0.024
113.4333 -0.083
113.4636 0.018
113.4939 0.327
113.5242 -0.404
113.5545 -0.146
113.5847 0.164
113.6150 -0.099
113.6453 0.160
113.6756 0.315
113.7058 -0.208
113.7361 -0.052
113.7664 0.051
113.7967 -0.106
113.8270 0.102
113.8572 -0.159
113.8875 -0.107
113.9178 -0.055
113.9481 0.362
113.9784 0.154
114.0086 -0.053
114.0389 0.104
114.0692 -0.259
114.0995 0.107
114.1298 0.160
114.1600 0.319
114.1903 0.216
114.2206 -0.042
114.2509 0.013
114.2811 0.120
114.3114 0.019
114.3417 -0.030
114.3720 0.025
114.4023 0.029
114.4325 -0.020
114.4628 0.141
114.4931 0.145
114.5234 0.045
114.5537 -0.471
114.5839 -0.067
114.6142 0.128
114.6445 -0.040
114.6748 0.520
114.7050 -0.117
114.7353 0.653
114.7656 -0.192
114.7959 0.369
114.8262 0.254
114.8564 -0.174
114.8867 0.336
114.9170 0.690
114.9473 0.055
114.9776 0.305
115.0078 -0.173
115.0381 0.077
115.0684 -0.036
115.0987 0.423
115.1289 -0.107
115.1592 -0.063
115.1895 0.032
115.2198 0.336
115.2501 0.016
115.2803 -0.253
115.3106 0.156
115.3409 0.044
115.3712 0.298
115.4015 -0.126
115.4317 -0.133
115.4620 0.069
115.4923 0.062
115.5226 0.420
115.5528 0.466
115.5831 0.357
115.6134 0.507
115.6437 -0.488
115.6740 0.340
115.7042 0.440
115.7345 0.018
115.7648 0.326
115.7951 0.426
115.8254 0.578
115.8556 0.262
115.8859 -0.159
115.9162 0.619
115.9465 0.668
115.9767 0.561
116.0070 0.558
116.0373 0.503
116.0676 0.605
116.0979 0.447
116.1281 1.018
116.1584 1.276
116.1887 1.431
116.2190 1.221
116.2493 1.429
116.2795 0.438
116.3098 1.010
116.3401 0.437
116.3704 0.958
116.4006 0.541
116.4309 0.177
116.4612 0.698
116.4915 0.230
116.5218 0.439
116.5520 0.127
116.5823 0.806
116.6126 -0.026
116.6429 0.549
116.6732 0.446
116.7034 0.188
116.7337 0.815
116.7640 0.558
116.7943 0.144
116.8245 0.667
116.8548 0.827
116.8851 0.310
116.9154 0.209
116.9457 0.838
116.9759 -0.200
117.0062 -0.195
117.0365 0.174
117.0668 0.907
117.0971 -0.077
117.1273 0.345
117.1576 0.194
117.1879 0.095
117.2182 0.309
117.2485 -0.049
117.2787 0.165
117.3090 0.224
117.3393 0.699
117.3696 -0.232
117.3998 -0.068
117.4301 -0.165
117.4604 0.103
117.4907 0.267
117.5210 0.170
117.5512 0.231
117.5815 0.187
117.6118 0.196
117.6421 0.100
117.6724 0.317
117.7026 -0.038
117.7329 0.076
117.7632 -0.019
117.7935 0.043
117.8237 0.157
117.8540 0.324
117.8843 -0.134
117.9146 0.189
117.9449 0.044
117.9751 0.055
118.0054 0.483
118.0357 0.234
118.0660 0.089
118.0963 0.101
118.1265 0.218
118.1568 -0.238
118.1871 -0.070
118.2174 0.100
118.2476 0.165
118.2779 0.022
118.3082 -0.225
118.3385 -0.003
118.3688 0.167
118.3990 -0.235
118.4293 -0.190
118.4596 0.167
118.4899 0.057
118.5202 -0.054
118.5504 -0.060
118.5807 0.507
118.6110 0.293
118.6413 0.443
118.6715 -0.291
118.7018 -0.140
118.7321 0.168
118.7624 -0.202
118.7927 0.263
118.8229 -0.366
118.8532 -0.006
118.8835 -0.218
118.9138 0.195
118.9441 0.765
118.9743 0.188
119.0046 -0.075
119.0349 -0.026
119.0652 0.024
119.0954 0.178
119.1257 0.020
119.1560 0.278
119.1863 0.224
119.2166 -0.038
119.2468 -0.039
119.2771 0.116
119.3074 -0.301
119.3377 0.167
119.3680 -0.042
119.3982 0.427
119.4285 0.687
119.4588 0.115
119.4891 0.115
119.5193 0.168
119.5496 0.221
119.5799 -0.195
119.6102 -0.245
119.6405 -0.027
119.6707 0.295
119.7010 0.097
119.7313 0.055
119.7616 0.273
119.7919 0.024
119.8221 0.399
119.8524 -0.006
119.8827 0.005
119.9130 0.225
119.9433 0.341
119.9735 0.300
120.0038 0.000
