'Id: "" Comment: "" Operator: "Lab Manager" Anode: "Cu" Scantype: "Locked Coupled" TimePerStep: "19.2" X: "9999" Y: "9999" Z: "9999" 
10.0015 0.000
10.0318 -0.454
10.0620 -0.445
10.0923 -0.151
10.1226 -0.429
10.1529 -0.426
10.1832 -0.404
10.2134 0.244
10.2437 -0.306
10.2740 -0.386
10.3043 -0.362
10.3346 -0.025
10.3648 -0.417
10.3951 -0.158
10.4254 0.257
10.4557 -0.109
10.4859 0.099
10.5162 0.046
10.5465 0.046
10.5768 1.036
10.6071 0.412
10.6373 -0.472
10.6676 0.467
10.6979 -0.572
10.7282 0.316
10.7585 0.631
10.7887 -0.042
10.8190 0.274
10.8493 -0.243
10.8796 0.283
10.9098 -0.025
10.9401 0.398
10.9704 0.195
11.0007 -0.163
11.0310 -0.521
11.0612 0.788
11.0915 1.160
11.1218 -0.863
11.1521 0.500
11.1824 0.248
11.2126 1.091
11.2429 -0.150
11.2732 0.277
11.3035 -0.754
11.3337 -0.235
11.3640 0.180
11.3943 0.596
11.4246 0.023
11.4549 0.596
11.4851 0.545
11.5154 -0.236
11.5457 -0.130
11.5760 0.861
11.6063 -0.178
11.6365 0.397
11.6668 -0.173
11.6971 0.351
11.7274 0.095
11.7577 0.724
11.7879 0.312
11.8182 0.213
11.8485 1.260
11.8788 0.381
11.9090 -0.915
11.9393 0.133
11.9696 0.036
11.9999 0.877
12.0302 0.989
12.0604 -0.044
12.0907 0.850
12.1210 -0.026
12.1513 0.557
12.1816 -0.110
12.2118 -0.100
12.2421 0.536
12.2724 0.860
12.3027 -0.170
12.3329 -0.262
12.3632 -0.250
12.3935 0.597
12.4238 0.818
12.4541 -0.366
12.4843 0.586
12.5146 0.184
12.5449 0.668
12.5752 -0.359
12.6055 0.543
12.6357 -0.066
12.6660 0.263
12.6963 -0.136
12.7266 0.454
12.7568 0.472
12.7871 1.115
12.8174 0.197
12.8477 -0.097
12.8780 -0.546
12.9082 0.131
12.9385 -0.286
12.9688 -0.025
12.9991 0.496
13.0294 0.081
13.0596 0.395
13.0899 -0.020
13.1202 0.660
13.1505 -0.275
13.1807 -0.011
13.2110 0.097
13.2413 0.049
13.2716 0.001
13.3019 -0.463
13.3321 0.689
13.3624 -0.399
13.3927 0.023
13.4230 0.134
13.4533 -0.223
13.4835 -0.476
13.5138 0.990
13.5441 0.738
13.5744 -0.139
13.6046 0.182
13.6349 1.338
13.6652 -0.007
13.6955 -0.048
13.7258 0.015
13.7560 0.547
13.7863 0.298
13.8166 0.830
13.8469 -0.199
13.8772 0.543
13.9074 0.817
13.9377 0.674
13.9680 0.584
13.9983 0.026
14.0285 0.145
14.0588 -0.361
14.0891 -0.362
14.1194 0.471
14.1497 -0.103
14.1799 0.262
14.2102 1.096
14.2405 0.055
14.2708 0.109
14.3011 -0.358
14.3313 0.008
14.3616 -0.406
14.3919 0.118
14.4222 -0.347
14.4524 0.125
14.4827 0.703
14.5130 0.186
14.5433 0.452
14.5736 0.249
14.6038 0.724
14.6341 -0.364
14.6644 -0.357
14.6947 0.310
14.7250 0.145
14.7552 1.230
14.7855 0.701
14.8158 0.172
14.8461 0.009
14.8764 0.314
14.9066 0.516
14.9369 0.510
14.9672 0.920
14.9975 -0.127
15.0277 0.025
15.0580 0.176
15.0883 0.172
15.1186 0.377
15.1489 0.634
15.1791 0.006
15.2094 0.056
15.2397 0.574
15.2700 0.729
15.3003 -0.054
15.3305 0.362
15.3608 -0.159
15.3911 -0.159
15.4214 0.571
15.4516 -0.366
15.4819 -0.261
15.5122 0.262
15.5425 1.045
15.5728 -0.463
15.6030 0.373
15.6333 -0.300
15.6636 0.849
15.6939 0.176
15.7242 0.806
15.7544 1.175
15.7847 0.816
15.8150 0.145
15.8453 0.307
15.8755 0.991
15.9058 -0.460
15.9361 -0.036
15.9664 0.493
15.9967 -0.228
16.0269 -0.219
16.0572 0.050
16.0875 -0.357
16.1178 -0.104
16.1481 0.097
16.1783 0.090
16.2086 -0.020
16.2389 -0.079
16.2692 -0.032
16.2994 -0.298
16.3297 1.000
16.3600 -0.463
16.3903 0.523
16.4206 0.207
16.4508 -0.473
16.4811 0.774
16.5114 -0.322
16.5417 0.666
16.5720 -0.013
16.6022 -0.170
16.6325 -0.691
16.6628 0.715
16.6931 -0.639
16.7233 0.455
16.7536 -0.116
16.7839 0.770
16.8142 0.408
16.8445 0.618
16.8747 0.205
16.9050 0.364
16.9353 0.420
16.9656 0.476
16.9959 0.428
17.0261 0.068
17.0564 -0.083
17.0867 -0.546
17.1170 0.128
17.1472 0.751
17.1775 0.384
17.2078 0.122
17.2381 0.225
17.2684 0.381
17.2986 0.276
17.3289 0.901
17.3592 0.016
17.3895 0.590
17.4198 0.070
17.4500 0.801
17.4803 0.230
17.5106 0.233
17.5409 0.236
17.5712 0.031
17.6014 -0.591
17.6317 0.247
17.6620 -0.165
17.6923 -0.473
17.7225 0.731
17.7528 0.320
17.7831 -0.091
17.8134 1.322
17.8437 0.600
17.8739 0.399
17.9042 1.084
17.9345 -0.053
17.9648 -0.044
17.9951 0.069
18.0253 0.443
18.0556 0.401
18.0859 0.099
18.1162 0.943
18.1464 0.538
18.1767 0.133
18.2070 0.509
18.2373 0.522
18.2676 0.326
18.2978 -0.546
18.3281 -0.287
18.3584 0.285
18.3887 -0.497
18.4190 0.023
18.4492 0.440
18.4795 0.493
18.5098 0.337
18.5401 -0.599
18.5703 -0.024
18.6006 0.290
18.6309 0.033
18.6612 0.400
18.6915 0.716
18.7217 -0.218
18.7520 0.516
18.7823 0.885
18.8126 -0.152
18.8429 0.375
18.8731 0.849
18.9034 0.335
18.9337 -0.284
18.9640 0.609
18.9942 0.200
19.0245 -0.209
19.0548 0.789
19.0851 0.694
19.1154 0.807
19.1456 0.713
19.1759 -0.007
19.2062 0.629
19.2365 0.536
19.2668 0.391
19.2970 0.194
19.3273 0.154
19.3576 0.062
19.3879 0.127
19.4181 0.297
19.4484 0.155
19.4787 0.117
19.5090 -0.442
19.5393 -0.090
19.5695 0.106
19.5998 -0.114
19.6301 0.291
19.6604 0.228
19.6907 0.687
19.7209 0.416
19.7512 0.250
19.7815 1.543
19.8118 0.857
19.8420 0.119
19.8723 0.319
19.9026 -0.365
19.9329 0.409
19.9632 0.766
19.9934 0.187
20.0237 -0.079
20.0540 0.123
20.0843 0.014
20.1146 0.061
20.1448 0.421
20.1751 0.522
20.2054 0.310
20.2357 0.151
20.2659 0.044
20.2962 0.354
20.3265 -0.013
20.3568 -0.066
20.3871 0.245
20.4173 -0.016
20.4476 0.036
20.4779 0.036
20.5082 0.245
20.5385 -0.014
20.5687 -0.117
20.5990 0.146
20.6293 0.356
20.6596 0.567
20.6899 -0.263
20.7201 0.886
20.7504 -0.047
20.7807 -0.095
20.8110 -0.090
20.8412 0.332
20.8715 0.285
20.9018 0.031
20.9321 0.246
20.9624 0.513
20.9926 0.208
21.0229 0.684
21.0532 0.692
21.0835 0.128
21.1138 0.605
21.1440 0.719
21.1743 0.676
21.2046 0.582
21.2349 -0.084
21.2651 0.396
21.2954 0.563
21.3257 -0.050
21.3560 0.014
21.3863 -0.338
21.4165 0.017
21.4468 0.476
21.4771 0.518
21.5074 1.290
21.5377 0.032
21.5679 1.013
21.5982 -0.505
21.6285 0.165
21.6588 0.679
21.6890 0.203
21.7193 0.301
21.7496 0.764
21.7799 0.707
21.8102 1.275
21.8404 0.229
21.8707 0.381
21.9010 -0.664
21.9313 0.322
21.9616 0.423
21.9918 -0.569
22.0221 0.002
22.0524 -0.104
22.0827 0.520
22.1129 0.363
22.1432 -0.054
22.1735 0.780
22.2038 0.415
22.2341 0.104
22.2643 -0.520
22.2946 -0.056
22.3249 0.408
22.3552 0.144
22.3855 -0.016
22.4157 -0.332
22.4460 -0.283
22.4763 -0.338
22.5066 -0.187
22.5368 1.319
22.5671 -0.040
22.5974 -0.096
22.6277 0.265
22.6580 -0.676
22.6882 -0.213
22.7185 -0.165
22.7488 -0.065
22.7791 0.920
22.8094 -0.542
22.8396 0.132
22.8699 0.182
22.9002 0.023
22.9305 -0.031
22.9607 0.645
22.9910 -0.398
23.0213 -0.138
23.0516 0.539
23.0819 0.331
23.1121 0.123
23.1424 0.749
23.1727 0.230
23.2030 -0.342
23.2333 -0.342
23.2635 -0.499
23.2938 0.437
23.3241 -0.136
23.3544 -0.188
23.3846 0.385
23.4149 0.646
23.4452 0.751
23.4755 -0.445
23.5058 -0.131
23.5360 -0.545
23.5663 0.343
23.5966 0.242
23.6269 0.246
23.6572 0.562
23.6874 -0.110
23.7177 0.884
23.7480 -1.090
23.7783 0.791
23.8086 0.536
23.8388 0.126
23.8691 0.081
23.8994 0.609
23.9297 -0.216
23.9599 0.365
23.9902 0.373
24.0205 -0.034
24.0508 -0.338
24.0811 0.070
24.1113 -0.199
24.1416 -0.208
24.1719 -0.164
24.2022 -0.432
24.2325 0.551
24.2627 0.544
24.2930 -0.139
24.3233 -0.510
24.3536 0.683
24.3838 0.313
24.4141 0.361
24.4444 0.096
24.4747 1.082
24.5050 0.037
24.5352 0.034
24.5655 0.187
24.5958 -0.805
24.6261 0.235
24.6564 0.182
24.6866 -0.600
24.7169 0.649
24.7472 -0.184
24.7775 -0.132
24.8077 1.015
24.8380 0.026
24.8683 -0.285
24.8986 0.499
24.9289 -0.124
24.9591 0.035
24.9894 0.872
25.0197 0.511
25.0500 0.671
25.0803 0.363
25.1105 0.576
25.1408 -0.512
25.1711 0.587
25.2014 0.437
25.2316 -0.338
25.2619 -0.452
25.2922 0.581
25.3225 0.728
25.3528 0.303
25.3830 -0.278
25.4133 0.443
25.4436 0.436
25.4739 1.002
25.5042 0.683
25.5344 -0.001
25.5647 0.202
25.5950 -0.064
25.6253 0.140
25.6555 0.239
25.6858 -0.598
25.7161 -0.185
25.7464 -0.345
25.7767 -0.253
25.8069 -0.317
25.8372 -0.536
25.8675 0.703
25.8978 -0.348
25.9281 -0.046
25.9583 0.309
25.9886 0.509
26.0189 -0.541
26.0492 0.128
26.0794 -0.036
26.1097 -0.148
26.1400 0.054
26.1703 0.047
26.2006 0.145
26.2308 -0.173
26.2611 0.134
26.2914 -0.131
26.3217 0.073
26.3520 -0.139
26.3822 0.170
26.4125 0.115
26.4428 -0.201
26.4731 -0.099
26.5034 -0.361
26.5336 0.210
26.5639 -0.468
26.5942 -0.161
26.6245 0.354
26.6547 -0.432
26.6850 0.605
26.7153 -0.076
26.7456 -0.236
26.7759 1.063
26.8061 -0.555
26.8364 0.849
26.8667 -0.091
26.8970 0.429
26.9273 0.636
26.9575 0.999
26.9878 0.582
27.0181 -0.251
27.0484 0.843
27.0786 0.219
27.1089 -0.196
27.1392 0.170
27.1695 -0.349
27.1998 -0.294
27.2300 -0.812
27.2603 1.170
27.2906 0.861
27.3209 0.293
27.3512 -0.119
27.3814 -0.010
27.4117 0.360
27.4420 0.313
27.4723 0.007
27.5025 0.066
27.5328 -0.136
27.5631 0.393
27.5934 0.036
27.6237 0.096
27.6539 -0.416
27.6842 -0.071
27.7145 0.951
27.7448 0.411
27.7751 0.392
27.8053 0.113
27.8356 0.355
27.8659 0.025
27.8962 0.373
27.9264 0.096
27.9567 0.600
27.9870 0.428
28.0173 1.037
28.0476 0.189
28.0778 1.112
28.1081 0.264
28.1384 0.198
28.1687 0.914
28.1990 0.588
28.2292 1.044
28.2595 1.188
28.2898 -0.646
28.3201 0.071
28.3503 -0.564
28.3806 0.883
28.4109 0.196
28.4412 0.603
28.4715 0.594
28.5017 0.220
28.5320 0.003
28.5623 -0.473
28.5926 0.509
28.6229 -0.020
28.6531 0.442
28.6834 0.540
28.7137 -0.143
28.7440 1.310
28.7742 0.315
28.8045 0.987
28.8348 0.098
28.8651 0.927
28.8954 0.455
28.9256 -0.434
28.9559 0.241
28.9862 0.134
29.0165 0.810
29.0468 0.235
29.0770 0.599
29.1073 -0.235
29.1376 0.233
29.1679 -0.183
29.1981 0.286
29.2284 0.444
29.2587 -0.388
29.2890 -0.386
29.3193 0.146
29.3495 0.626
29.3798 0.169
29.4101 0.078
29.4404 1.340
29.4707 0.000
29.5009 -0.403
29.5312 -0.292
29.5615 0.550
29.5918 -0.275
29.6221 -0.006
29.6523 0.316
29.6826 0.221
29.7129 0.075
29.7432 0.815
29.7734 0.565
29.8037 0.264
29.8340 0.067
29.8643 -0.389
29.8946 0.405
29.9248 -0.051
29.9551 0.795
29.9854 -0.701
30.0157 0.094
30.0460 0.369
30.0762 0.541
30.1065 -0.381
30.1368 0.676
30.1671 1.213
30.1973 0.397
30.2276 0.362
30.2579 -0.506
30.2882 0.241
30.3185 -0.209
30.3487 0.903
30.3790 1.443
30.4093 0.317
30.4396 1.170
30.4699 0.774
30.5001 0.170
30.5304 -0.017
30.5607 -0.048
30.5910 0.860
30.6212 1.247
30.6515 0.801
30.6818 1.189
30.7121 1.317
30.7424 1.497
30.7726 1.887
30.8029 1.287
30.8332 3.031
30.8635 3.213
30.8938 2.874
30.9240 1.912
30.9543 3.397
30.9846 4.310
31.0149 5.692
31.0451 4.158
31.0754 3.978
31.1057 5.413
31.1360 6.849
31.1663 7.817
31.1965 8.212
31.2268 10.638
31.2571 11.138
31.2874 13.357
31.3177 14.952
31.3479 16.859
31.3782 21.111
31.4085 24.426
31.4388 26.074
31.4690 33.035
31.4993 34.059
31.5296 42.688
31.5599 46.213
31.5902 51.457
31.6204 54.826
31.6507 56.790
31.6810 56.775
31.7113 58.635
31.7416 56.486
31.7718 46.837
31.8021 45.677
31.8324 40.716
31.8627 34.089
31.8929 29.910
31.9232 29.274
31.9535 23.742
31.9838 17.949
32.0141 18.251
32.0443 14.075
32.0746 12.190
32.1049 9.629
32.1352 9.516
32.1655 7.424
32.1957 6.687
32.2260 5.585
32.2563 4.589
32.2866 2.707
32.3169 4.211
32.3471 3.788
32.3774 2.689
32.4077 2.319
32.4380 2.210
32.4682 2.050
32.4985 1.421
32.5288 1.626
32.5591 2.092
32.5894 2.870
32.6196 0.993
32.6499 1.356
32.6802 2.761
32.7105 0.520
32.7408 0.936
32.7710 0.259
32.8013 0.259
32.8316 -0.573
32.8619 0.626
32.8921 -0.154
32.9224 0.473
32.9527 0.111
32.9830 0.009
33.0133 0.950
33.0435 -0.140
33.0738 -0.501
33.1041 -0.496
33.1344 0.446
33.1647 -0.643
33.1949 0.665
33.2252 0.463
33.2555 -0.729
33.2858 -0.436
33.3160 -0.404
33.3463 0.306
33.3766 -0.078
33.4069 -0.200
33.4372 0.875
33.4674 -0.080
33.4977 0.059
33.5280 -0.478
33.5583 0.495
33.5886 0.010
33.6188 0.307
33.6491 0.135
33.6794 0.589
33.7097 0.002
33.7399 1.551
33.7702 2.266
33.8005 0.899
33.8308 1.928
33.8611 3.478
33.8913 2.945
33.9216 4.809
33.9519 5.423
33.9822 6.714
34.0125 8.163
34.0427 9.767
34.0730 10.435
34.1033 14.697
34.1336 17.709
34.1638 21.920
34.1941 26.808
34.2244 38.623
34.2547 47.314
34.2850 62.048
34.3152 69.281
34.3455 73.807
34.3758 70.989
34.4061 62.286
34.4364 51.605
34.4666 43.476
34.4969 31.441
34.5272 21.750
34.5575 19.768
34.5877 14.818
34.6180 11.952
34.6483 9.085
34.6786 8.980
34.7089 7.157
34.7391 7.260
34.7694 5.281
34.7997 3.407
34.8300 3.460
34.8603 3.461
34.8905 4.453
34.9208 2.111
34.9511 4.458
34.9814 2.534
35.0116 2.745
35.0419 3.895
35.0722 2.545
35.1025 3.383
35.1328 2.451
35.1630 2.404
35.1933 3.400
35.2236 2.208
35.2539 3.257
35.2842 4.827
35.3144 4.938
35.3447 4.790
35.3750 4.903
35.4053 5.016
35.4356 4.713
35.4658 5.712
35.4961 6.659
35.5264 9.326
35.5567 9.702
35.5869 10.026
35.6172 10.141
35.6475 11.768
35.6778 13.812
35.7081 16.794
35.7383 16.338
35.7686 20.519
35.7989 23.033
35.8292 25.965
35.8595 26.709
35.8897 33.964
35.9200 39.709
35.9503 45.975
35.9806 55.107
36.0108 63.197
36.0411 69.516
36.0714 78.336
36.1017 88.980
36.1320 90.613
36.1622 90.059
36.1925 92.267
36.2228 82.912
36.2531 85.380
36.2834 73.630
36.3136 70.422
36.3439 61.277
36.3742 51.404
36.4045 44.186
36.4347 38.637
36.4650 31.212
36.4953 30.038
36.5256 23.708
36.5559 20.139
36.5861 18.810
36.6164 15.762
36.6467 13.861
36.6770 12.793
36.7073 10.841
36.7375 8.524
36.7678 9.073
36.7981 7.538
36.8284 6.264
36.8586 6.241
36.8889 4.343
36.9192 4.529
36.9495 4.663
36.9798 4.381
37.0100 3.266
37.0403 3.714
37.0706 3.850
37.1009 1.746
37.1312 2.508
37.1614 0.822
37.1917 1.585
37.2220 1.410
37.2523 1.288
37.2825 0.177
37.3128 2.608
37.3431 1.133
37.3734 0.700
37.4037 0.007
37.4339 0.460
37.4642 0.757
37.4945 0.066
37.5248 0.520
37.5551 0.819
37.5853 1.899
37.6156 0.220
37.6459 0.884
37.6762 0.716
37.7064 0.860
37.7367 -0.036
37.7670 0.682
37.7973 0.203
37.8276 0.089
37.8578 -0.442
37.8881 -0.413
37.9184 0.970
37.9487 -0.667
37.9790 0.093
38.0092 0.175
38.0395 -0.106
38.0698 0.498
38.1001 -0.199
38.1304 0.249
38.1606 -0.343
38.1909 0.055
38.2212 0.453
38.2515 -1.232
38.2817 0.260
38.3120 0.347
38.3423 -0.295
38.3726 -0.520
38.4029 0.332
38.4331 -0.169
38.4634 0.528
38.4937 -0.546
38.5240 -0.213
38.5543 -0.348
38.5845 -0.222
38.6148 0.685
38.6451 -0.334
38.6754 -0.520
38.7056 0.388
38.7359 0.567
38.7662 -0.296
38.7965 0.041
38.8268 -0.196
38.8570 -0.119
38.8873 0.270
38.9176 0.295
38.9479 0.112
38.9782 -0.070
39.0084 0.217
39.0387 0.036
39.0690 0.636
39.0993 -0.378
39.1295 0.119
39.1598 0.043
39.1901 0.020
39.2204 0.101
39.2507 -0.494
39.2809 -0.068
39.3112 0.046
39.3415 0.005
39.3718 0.328
39.4021 -0.390
39.4323 0.819
39.4626 0.363
39.4929 -0.250
39.5232 0.023
39.5534 -0.224
39.5837 0.363
39.6140 -0.613
39.6443 0.183
39.6746 0.406
39.7048 -0.152
39.7351 -0.032
39.7654 0.088
39.7957 0.261
39.8260 -0.347
39.8562 0.296
39.8865 0.053
39.9168 -0.345
39.9471 -0.014
39.9773 0.577
40.0076 0.128
40.0379 -0.009
40.0682 0.012
40.0985 -0.072
40.1287 -0.520
40.1590 0.387
40.1893 0.148
40.2196 0.067
40.2499 -0.484
40.2801 0.477
40.3104 -0.333
40.3407 0.212
40.3710 0.236
40.4012 0.209
40.4315 -0.183
40.4618 0.416
40.4921 0.181
40.5224 0.468
40.5526 0.599
40.5829 -0.363
40.6132 -0.579
40.6435 0.768
40.6738 -0.071
40.7040 -0.337
40.7343 0.126
40.7646 0.226
40.7949 0.482
40.8251 0.218
40.8554 0.215
40.8857 0.056
40.9160 0.678
40.9463 0.832
40.9765 0.154
41.0068 0.204
41.0371 0.933
41.0674 0.203
41.0977 0.151
41.1279 0.151
41.1582 0.100
41.1885 -0.367
41.2188 0.103
41.2491 0.001
41.2793 0.576
41.3096 0.579
41.3399 0.010
41.3702 0.378
41.4004 -0.243
41.4307 -0.290
41.4610 -0.337
41.4913 0.335
41.5216 0.903
41.5518 0.222
41.5821 -0.458
41.6124 0.164
41.6427 -0.100
41.6730 0.054
41.7032 0.209
41.7335 -0.001
41.7638 0.727
41.7941 0.049
41.8243 0.153
41.8546 0.153
41.8849 0.258
41.9152 -0.053
41.9455 0.156
41.9757 0.210
42.0060 0.577
42.0363 0.371
42.0666 0.010
42.0969 0.847
42.1271 0.069
42.1574 0.386
42.1877 -0.130
42.2180 0.292
42.2482 0.349
42.2785 0.095
42.3088 -0.211
42.3391 0.473
42.3694 -0.041
42.3996 0.175
42.4299 -0.025
42.4602 -0.069
42.4905 0.044
42.5208 0.158
42.5510 0.011
42.5813 0.021
42.6116 0.136
42.6419 0.512
42.6721 0.210
42.7024 0.587
42.7327 0.495
42.7630 1.341
42.7933 0.573
42.8235 0.326
42.8538 0.235
42.8841 0.614
42.9144 1.462
42.9447 0.227
42.9749 0.243
43.0052 0.050
43.0355 0.275
43.0658 0.344
43.0960 0.778
43.1263 0.066
43.1566 -0.280
43.1869 -0.090
43.2172 0.309
43.2474 -0.072
43.2777 1.318
43.3080 0.677
43.3383 0.973
43.3686 0.594
43.3988 0.110
43.4291 0.616
43.4594 0.550
43.4897 0.276
43.5199 0.784
43.5502 0.563
43.5805 0.603
43.6108 0.330
43.6411 0.475
43.6713 0.151
43.7016 0.661
43.7319 0.964
43.7622 0.381
43.7925 0.371
43.8227 0.310
43.8530 0.562
43.8833 -0.332
43.9136 0.390
43.9439 -0.138
43.9741 -0.249
44.0044 -0.308
44.0347 -0.057
44.0650 0.767
44.0952 0.758
44.1255 0.750
44.1558 0.065
44.1861 0.266
44.2164 0.363
44.2466 0.305
44.2769 0.403
44.3072 0.345
44.3375 -0.233
44.3678 0.022
44.3980 -0.138
44.4283 0.170
44.4586 -0.407
44.4889 0.684
44.5191 0.941
44.5494 0.262
44.5797 -0.157
44.6100 0.727
44.6403 0.518
44.6705 0.777
44.7008 0.204
44.7311 -0.317
44.7614 -0.535
44.7917 0.757
44.8219 0.071
44.8522 -0.250
44.8825 0.054
44.9128 -0.370
44.9430 0.872
44.9733 1.073
45.0036 0.442
45.0339 0.331
45.0642 0.065
45.0944 0.633
45.1247 0.003
45.1550 0.102
45.1853 -0.215
45.2156 0.355
45.2458 -0.013
45.2761 -0.172
45.3064 0.450
45.3367 0.396
45.3669 -0.075
45.3972 -0.440
45.4275 0.236
45.4578 -0.598
45.4881 -0.208
45.5183 0.027
45.5486 -0.415
45.5789 0.237
45.6092 0.317
45.6395 0.345
45.6697 0.998
45.7000 0.193
45.7303 0.691
45.7606 0.565
45.7908 -0.187
45.8211 0.417
45.8514 -0.230
45.8817 -0.146
45.9120 0.354
45.9422 0.334
45.9725 -0.206
46.0028 0.399
46.0331 0.172
46.0634 0.414
46.0936 -0.645
46.1239 -0.246
46.1542 -0.159
46.1845 0.449
46.2147 0.329
46.2450 0.104
46.2753 1.235
46.3056 0.491
46.3359 0.007
46.3661 0.514
46.3964 0.396
46.4267 0.226
46.4570 -0.360
46.4873 0.669
46.5175 0.136
46.5478 -0.292
46.5781 0.947
46.6084 0.675
46.6386 1.082
46.6689 0.655
46.6992 0.437
46.7295 1.573
46.7598 1.304
46.7900 1.452
46.8203 0.975
46.8506 1.020
46.8809 1.742
46.9112 1.370
46.9414 3.864
46.9717 3.285
47.0020 3.332
47.0323 3.118
47.0626 4.155
47.0928 5.818
47.1231 5.814
47.1534 7.165
47.1837 7.734
47.2139 9.086
47.2442 10.386
47.2745 11.009
47.3048 12.883
47.3351 14.705
47.3653 18.090
47.3956 17.360
47.4259 19.027
47.4562 20.434
47.4865 19.967
47.5167 21.010
47.5470 16.897
47.5773 17.889
47.6076 14.819
47.6378 13.155
47.6681 10.294
47.6984 10.090
47.7287 7.334
47.7590 5.360
47.7892 6.198
47.8195 5.058
47.8498 4.544
47.8801 4.446
47.9104 2.942
47.9406 3.002
47.9709 2.124
48.0012 1.924
48.0315 2.714
48.0617 1.108
48.0920 1.795
48.1223 0.971
48.1526 1.086
48.1829 0.367
48.2131 0.691
48.2434 0.494
48.2737 0.922
48.3040 -0.472
48.3343 0.374
48.3645 0.231
48.3948 -0.015
48.4251 -0.158
48.4554 0.690
48.4856 0.184
48.5159 0.147
48.5462 0.111
48.5765 0.647
48.6068 -0.690
48.6370 -0.361
48.6673 0.267
48.6976 -0.459
48.7279 -0.039
48.7582 0.955
48.7884 -0.656
48.8187 -0.286
48.8490 0.136
48.8793 0.037
48.9095 -0.530
48.9398 0.206
48.9701 0.161
49.0004 0.116
49.0307 -0.345
49.0609 0.184
49.0912 -0.433
49.1215 0.149
49.1518 -0.518
49.1821 0.273
49.2123 -0.186
49.2426 -0.123
49.2729 -0.060
49.3032 -0.257
49.3334 -0.349
49.3637 -0.286
49.3940 0.194
49.4243 0.050
49.4546 0.114
49.4848 0.284
49.5151 -0.328
49.5454 -0.054
49.5757 0.272
49.6060 -0.599
49.6362 0.406
49.6665 -0.152
49.6968 -0.188
49.7271 0.349
49.7574 -0.103
49.7876 0.487
49.8179 -0.121
49.8482 -0.624
49.8785 0.169
49.9087 -0.495
49.9390 0.247
49.9693 0.000
49.9996 0.483
50.0299 -0.232
50.0601 0.251
50.0904 -0.151
50.1207 -0.239
50.1510 0.349
50.1813 -0.364
50.2115 -0.299
50.2418 -0.026
50.2721 0.508
50.3024 -0.155
50.3326 0.119
50.3629 0.030
50.3932 -0.059
50.4235 -0.721
50.4538 0.492
50.4840 0.196
50.5143 -0.308
50.5446 -0.199
50.5749 0.274
50.6052 0.436
50.6354 0.390
50.6657 0.188
50.6960 0.403
50.7263 0.202
50.7565 -0.051
50.7868 -0.304
50.8171 -0.047
50.8474 0.626
50.8777 0.102
50.9079 0.048
50.9382 -0.059
50.9685 -0.113
50.9988 0.094
51.0291 0.145
51.0593 0.874
51.0896 -0.637
51.1199 0.092
51.1502 -0.272
51.1804 -0.010
51.2107 0.721
51.2410 0.306
51.2713 -0.161
51.3016 -0.002
51.3318 0.106
51.3621 -0.099
51.3924 -0.304
51.4227 0.103
51.4530 0.355
51.4832 -0.123
51.5135 -0.079
51.5438 0.225
51.5741 0.582
51.6043 -0.154
51.6346 0.048
51.6649 0.198
51.6952 0.609
51.7255 0.551
51.7557 -0.027
51.7860 0.489
51.8163 -0.244
51.8466 -0.092
51.8769 0.426
51.9071 -0.098
51.9374 0.056
51.9677 0.054
51.9980 0.469
52.0282 -0.054
52.0585 -0.627
52.0888 0.726
52.1191 0.570
52.1494 -0.315
52.1796 0.207
52.2099 -0.105
52.2402 -0.468
52.2705 0.159
52.3008 0.057
52.3310 0.424
52.3613 -0.199
52.3916 0.065
52.4219 0.225
52.4521 0.229
52.4824 -0.131
52.5127 0.498
52.5430 -0.173
52.5733 -0.220
52.6035 -0.266
52.6338 -0.311
52.6641 0.298
52.6944 0.022
52.7247 0.007
52.7549 0.253
52.7852 0.238
52.8155 0.224
52.8458 -0.310
52.8761 0.250
52.9063 0.133
52.9366 -0.035
52.9669 -0.203
52.9972 -0.214
53.0274 0.660
53.0577 -0.288
53.0880 0.535
53.1183 0.265
53.1486 -0.213
53.1788 0.091
53.2091 0.499
53.2394 0.335
53.2697 0.275
53.3000 0.008
53.3302 -0.520
53.3605 0.776
53.3908 0.145
53.4211 0.295
53.4513 0.186
53.4816 0.025
53.5119 0.281
53.5422 -0.035
53.5725 -0.038
53.6027 -0.198
53.6330 -0.044
53.6633 0.110
53.6936 0.473
53.7239 -0.050
53.7541 0.002
53.7844 -0.468
53.8147 0.042
53.8450 0.136
53.8752 0.074
53.9055 0.325
53.9358 0.837
53.9661 0.568
53.9964 0.611
54.0266 0.708
54.0569 -0.029
54.0872 -0.036
54.1175 -0.095
54.1478 -0.153
54.1780 0.414
54.2083 -0.164
54.2386 -0.065
54.2689 -0.069
54.2991 0.291
54.3294 -0.650
54.3597 -0.259
54.3900 -0.127
54.4203 -0.047
54.4505 0.502
54.4808 0.270
54.5111 -0.639
54.5414 0.224
54.5717 -0.059
54.6019 -0.654
54.6322 0.314
54.6625 0.345
54.6928 0.012
54.7230 -0.373
54.7533 0.389
54.7836 -0.464
54.8139 -0.066
54.8442 0.853
54.8744 0.209
54.9047 -0.329
54.9350 -0.503
54.9653 0.522
54.9956 -0.640
55.0258 -0.240
55.0561 -0.099
55.0864 -0.219
55.1167 -0.390
55.1469 0.270
55.1772 0.461
55.2075 -0.128
55.2378 0.220
55.2681 0.152
55.2983 0.658
55.3286 0.903
55.3589 0.107
55.3892 0.145
55.4195 0.965
55.4497 0.691
55.4800 1.199
55.5103 -0.115
55.5406 0.654
55.5709 1.215
55.6011 0.579
55.6314 1.245
55.6617 0.974
55.6920 1.693
55.7222 1.007
55.7525 1.310
55.7828 2.083
55.8131 2.283
55.8434 3.264
55.8736 2.424
55.9039 2.364
55.9342 3.972
55.9645 3.445
55.9948 3.387
56.0250 6.246
56.0553 5.200
56.0856 4.987
56.1159 6.493
56.1461 6.958
56.1764 10.601
56.2067 8.931
56.2370 9.866
56.2673 13.197
56.2975 15.331
56.3278 16.267
56.3581 18.870
56.3884 21.735
56.4187 24.651
56.4489 26.214
56.4792 24.913
56.5095 26.477
56.5398 25.489
56.5700 24.293
56.6003 25.597
56.6306 20.861
56.6609 18.260
56.6912 18.993
56.7214 14.257
56.7517 12.595
56.7820 11.610
56.8123 9.637
56.8426 10.007
56.8728 8.242
56.9031 8.093
56.9334 6.954
56.9637 5.555
56.9939 4.000
57.0242 5.884
57.0545 4.121
57.0848 3.714
57.1151 2.838
57.1453 2.848
57.1756 3.119
57.2059 2.869
57.2362 2.203
57.2665 0.965
57.2967 1.341
57.3270 1.510
57.3573 1.679
57.3876 1.640
57.4178 1.237
57.4481 1.095
57.4784 0.641
57.5087 0.760
57.5390 -0.527
57.5692 1.103
57.5995 -0.287
57.6298 0.407
57.6601 0.267
57.6904 0.701
57.7206 0.198
57.7509 0.321
57.7812 -0.754
57.8115 -0.275
57.8417 0.204
57.8720 0.163
57.9023 0.383
57.9326 0.394
57.9629 0.250
57.9931 -0.831
58.0234 0.068
58.0537 -0.023
58.0840 -0.686
58.1143 0.422
58.1445 0.124
58.1748 -0.069
58.2051 0.155
58.2354 0.171
58.2656 0.760
58.2959 -0.056
58.3262 0.482
58.3565 -0.126
58.3868 0.517
58.4170 0.275
58.4473 0.138
58.4776 -0.780
58.5079 -0.103
58.5382 0.002
58.5684 0.160
58.5987 0.839
58.6290 0.112
58.6593 -0.198
58.6896 0.430
58.7198 0.173
58.7501 0.749
58.7804 -1.017
58.8107 0.133
58.8409 -0.695
58.8712 -0.012
58.9015 -0.163
58.9318 0.364
58.9621 -0.098
58.9923 0.587
59.0226 -0.448
59.0529 0.602
59.0832 -0.483
59.1135 -0.475
59.1437 0.941
59.1740 -0.352
59.2043 -0.342
59.2346 -0.030
59.2648 0.594
59.2951 0.281
59.3254 0.021
59.3557 0.438
59.3860 0.230
59.4162 0.179
59.4465 -0.444
59.4768 0.027
59.5071 0.185
59.5374 -0.385
59.5676 0.035
59.5979 -0.273
59.6282 0.825
59.6585 0.100
59.6887 -0.416
59.7190 0.371
59.7493 0.064
59.7796 -0.034
59.8099 0.598
59.8401 -0.385
59.8704 0.248
59.9007 -0.161
59.9310 -0.257
59.9613 0.377
59.9915 0.542
60.0218 -0.074
60.0521 -0.324
60.0824 0.363
60.1126 0.218
60.1429 0.177
60.1732 0.397
60.2035 0.149
60.2338 -0.047
60.2640 -0.243
60.2943 0.656
60.3246 0.305
60.3549 0.371
60.3852 -0.083
60.4154 0.036
60.4457 0.937
60.4760 0.900
60.5063 -0.021
60.5365 -0.317
60.5668 -0.026
60.5971 0.994
60.6274 0.400
60.6577 0.639
60.6879 0.463
60.7182 0.182
60.7485 0.527
60.7788 0.300
60.8091 0.698
60.8393 0.315
60.8696 0.141
60.8999 0.124
60.9302 0.732
60.9604 -0.275
60.9907 0.178
61.0210 0.318
61.0513 -0.062
61.0816 0.028
61.1118 0.430
61.1421 0.520
61.1724 1.027
61.2027 0.649
61.2330 0.011
61.2632 0.519
61.2935 -0.222
61.3238 -0.390
61.3541 0.264
61.3844 0.242
61.4146 0.116
61.4449 1.084
61.4752 0.177
61.5055 0.260
61.5357 0.240
61.5660 0.584
61.5963 -0.113
61.6266 0.806
61.6569 0.891
61.6871 0.925
61.7174 0.698
61.7477 0.681
61.7780 0.039
61.8083 1.689
61.8385 0.631
61.8688 0.667
61.8991 0.912
61.9294 1.522
61.9596 0.934
61.9899 0.972
62.0202 0.958
62.0505 1.674
62.0808 1.192
62.1110 1.753
62.1413 1.532
62.1716 2.302
62.2019 2.863
62.2322 2.852
62.2624 2.529
62.2927 3.040
62.3230 4.905
62.3533 4.271
62.3835 5.095
62.4138 7.795
62.4441 7.579
62.4744 8.561
62.5047 10.897
62.5349 10.474
62.5652 13.436
62.5955 13.483
62.6258 17.019
62.6561 19.618
62.6863 20.603
62.7166 21.536
62.7469 20.803
62.7772 21.789
62.8074 21.682
62.8377 19.960
62.8680 21.468
62.8983 19.852
62.9286 17.455
62.9588 15.423
62.9891 15.474
63.0194 12.193
63.0497 10.214
63.0800 9.954
63.1102 8.861
63.1405 7.821
63.1708 6.157
63.2011 5.742
63.2313 4.339
63.2616 4.342
63.2919 4.293
63.3222 3.985
63.3525 3.052
63.3827 2.015
63.4130 2.437
63.4433 2.078
63.4736 0.938
63.5039 2.872
63.5341 2.045
63.5644 1.428
63.5947 0.915
63.6250 0.766
63.6552 0.931
63.6855 0.419
63.7158 -0.144
63.7461 1.064
63.7764 0.345
63.8066 0.876
63.8369 -0.207
63.8672 -0.247
63.8975 0.754
63.9278 -0.536
63.9580 0.571
63.9883 -0.197
64.0186 0.337
64.0489 0.143
64.0791 -0.572
64.1094 -0.091
64.1397 0.026
64.1700 -0.221
64.2003 0.209
64.2305 0.588
64.2608 0.134
64.2911 0.721
64.3214 -0.097
64.3517 -0.081
64.3819 0.352
64.4122 0.212
64.4425 0.698
64.4728 -0.431
64.5031 -0.361
64.5333 0.114
64.5636 0.276
64.5939 0.491
64.6242 -0.179
64.6544 0.714
64.6847 0.097
64.7150 -0.364
64.7453 -0.053
64.7756 0.518
64.8058 0.465
64.8361 -0.421
64.8664 0.464
64.8967 0.152
64.9270 0.204
64.9572 -0.420
64.9875 0.571
65.0178 -0.365
65.0481 0.210
65.0783 0.213
65.1086 -0.357
65.1389 -0.211
65.1692 0.352
65.1995 0.343
65.2297 0.230
65.2600 0.013
65.2903 0.214
65.3206 0.675
65.3509 0.615
65.3811 -0.433
65.4114 0.290
65.4417 0.648
65.4720 -0.190
65.5022 -0.195
65.5325 0.685
65.5628 -0.204
65.5931 -0.365
65.6234 0.231
65.6536 -0.059
65.6839 0.068
65.7142 0.248
65.7445 0.220
65.7748 0.973
65.8050 0.009
65.8353 0.763
65.8656 0.216
65.8959 0.867
65.9261 0.789
65.9564 -0.017
65.9867 1.625
66.0170 1.496
66.0473 1.316
66.0775 1.657
66.1078 1.373
66.1381 1.403
66.1684 1.537
66.1987 2.244
66.2289 2.847
66.2592 1.941
66.2895 3.222
66.3198 1.588
66.3500 3.078
66.3803 2.278
66.4106 3.248
66.4409 1.980
66.4712 2.534
66.5014 1.475
66.5317 1.822
66.5620 1.649
66.5923 1.112
66.6226 1.148
66.6528 1.184
66.6831 0.804
66.7134 0.373
66.7437 0.619
66.7739 0.501
66.8042 0.852
66.8345 -0.412
66.8648 0.721
66.8951 0.553
66.9253 -0.397
66.9556 0.477
66.9859 0.987
67.0162 0.195
67.0465 0.237
67.0767 0.904
67.1070 1.155
67.1373 0.834
67.1676 0.512
67.1978 0.817
67.2281 1.851
67.2584 1.843
67.2887 2.774
67.3190 2.871
67.3492 3.334
67.3795 3.172
67.4098 3.063
67.4401 4.568
67.4704 3.834
67.5006 5.341
67.5309 6.223
67.5612 5.907
67.5915 8.612
67.6218 7.829
67.6520 9.702
67.6823 10.481
67.7126 12.043
67.7429 12.719
67.7731 13.604
67.8034 12.458
67.8337 15.792
67.8640 15.637
67.8943 15.430
67.9245 14.078
67.9548 14.548
67.9851 13.561
68.0154 12.939
68.0457 12.214
68.0759 10.186
68.1062 9.930
68.1365 10.299
68.1668 7.179
68.1970 7.445
68.2273 6.930
68.2576 4.176
68.2879 4.964
68.3182 5.023
68.3484 4.354
68.3787 3.529
68.4090 4.214
68.4393 2.817
68.4696 1.576
68.4998 2.679
68.5301 2.272
68.5604 3.689
68.5907 2.710
68.6209 3.711
68.6512 2.994
68.6815 3.371
68.7118 4.269
68.7421 4.542
68.7723 3.878
68.8026 5.402
68.8329 5.729
68.8632 5.848
68.8935 6.852
68.9237 7.284
68.9540 6.623
68.9843 6.952
69.0146 6.708
69.0448 7.090
69.0751 7.107
69.1054 5.667
69.1357 6.415
69.1660 5.756
69.1962 5.619
69.2265 4.962
69.2568 4.513
69.2871 3.596
69.3174 3.460
69.3476 2.492
69.3779 1.993
69.4082 2.536
69.4385 2.037
69.4687 2.112
69.4990 1.563
69.5293 0.388
69.5596 0.308
69.5899 0.177
69.6201 0.514
69.6504 1.060
69.6807 -0.060
69.7110 -0.138
69.7413 0.722
69.7715 1.322
69.8018 0.516
69.8321 -0.237
69.8624 0.312
69.8926 0.445
69.9229 0.058
69.9532 -0.121
69.9835 0.534
70.0138 0.772
70.0440 -0.551
70.0743 -0.468
70.1046 0.590
70.1349 0.398
70.1652 -0.366
70.1954 0.328
70.2257 0.033
70.2560 -0.522
70.2863 0.590
70.3166 0.453
70.3468 0.004
70.3771 0.284
70.4074 0.512
70.4377 0.481
70.4679 0.241
70.4982 -0.466
70.5285 0.285
70.5588 -0.110
70.5891 0.017
70.6193 0.300
70.6496 -0.145
70.6799 -0.329
70.7102 -0.777
70.7405 0.390
70.7707 -0.161
70.8010 0.694
70.8313 0.196
70.8616 0.636
70.8918 -0.174
70.9221 0.318
70.9524 -0.178
70.9827 -0.414
71.0130 0.705
71.0432 0.209
71.0735 -0.129
71.1038 -0.363
71.1341 0.152
71.1644 0.408
71.1946 0.404
71.2249 0.140
71.2552 0.189
71.2855 -0.595
71.3157 0.288
71.3460 -0.339
71.3763 -0.184
71.4066 0.127
71.4369 -0.134
71.4671 0.595
71.4974 0.074
71.5277 0.127
71.5580 0.128
71.5883 -0.079
71.6185 -0.078
71.6488 0.497
71.6791 -0.073
71.7094 0.138
71.7396 0.142
71.7699 0.458
71.8002 0.150
71.8305 0.571
71.8608 0.212
71.8910 -0.304
71.9213 -0.304
71.9516 0.159
71.9819 -0.159
72.0122 -0.164
72.0424 0.144
72.0727 0.505
72.1030 -0.228
72.1333 0.445
72.1635 0.182
72.1938 0.231
72.2241 0.698
72.2544 0.176
72.2847 0.747
72.3149 0.850
72.3452 0.590
72.3755 0.381
72.4058 0.954
72.4361 1.580
72.4663 0.852
72.4966 0.750
72.5269 1.689
72.5572 1.119
72.5874 1.278
72.6177 0.708
72.6480 0.556
72.6783 1.237
72.7086 0.825
72.7388 0.725
72.7691 0.418
72.7994 0.476
72.8297 0.482
72.8600 0.124
72.8902 0.183
72.9205 0.347
72.9508 0.355
72.9811 0.363
73.0113 0.059
73.0416 0.537
73.0719 -0.235
73.1022 0.348
73.1325 0.202
73.1627 -0.048
73.1930 -0.036
73.2233 -0.441
73.2536 0.560
73.2839 -0.313
73.3141 0.012
73.3444 0.338
73.3747 0.143
73.4050 -0.311
73.4353 -0.098
73.4655 0.168
73.4958 -0.347
73.5261 0.075
73.5564 -0.126
73.5866 0.193
73.6169 -0.060
73.6472 0.521
73.6775 -0.148
73.7078 0.277
73.7380 -0.182
73.7683 -0.069
73.7986 -0.059
73.8289 0.472
73.8592 -0.038
73.8894 -0.235
73.9197 -0.276
73.9500 -0.067
73.9803 0.299
74.0105 -0.220
74.0408 0.511
74.0711 0.409
74.1014 0.047
74.1317 0.363
74.1619 0.158
74.1922 0.162
74.2225 -0.041
74.2528 -0.297
74.2831 0.177
74.3133 0.131
74.3436 0.033
74.3739 0.456
74.4042 0.567
74.4344 0.366
74.4647 0.165
74.4950 0.226
74.5253 -0.234
74.5556 0.660
74.5858 -0.268
74.6161 0.315
74.6464 -0.248
74.6767 -0.133
74.7070 -0.226
74.7372 0.827
74.7675 0.266
74.7978 0.278
74.8281 0.187
74.8583 -0.112
74.8886 -0.255
74.9189 0.095
74.9492 0.393
74.9795 -0.038
75.0097 0.053
75.0400 0.040
75.0703 0.756
75.1006 0.484
75.1309 0.055
75.1611 0.096
75.1914 0.189
75.2217 0.543
75.2520 0.533
75.2822 -0.154
75.3125 0.409
75.3428 0.036
75.3731 0.496
75.4034 0.228
75.4336 1.001
75.4639 0.265
75.4942 0.206
75.5245 -0.165
75.5548 0.349
75.5850 0.708
75.6153 0.391
75.6456 0.282
75.6759 0.017
75.7061 -0.039
75.7364 0.374
75.7667 1.360
75.7970 0.108
75.8273 -0.415
75.8575 -0.066
75.8878 0.232
75.9181 -0.042
75.9484 -0.056
75.9787 -0.173
76.0089 0.596
76.0392 0.271
76.0695 0.415
76.0998 -0.221
76.1301 0.392
76.1603 -0.243
76.1906 -0.045
76.2209 0.674
76.2512 0.456
76.2814 0.499
76.3117 -0.499
76.3420 -0.194
76.3723 0.110
76.4026 -0.053
76.4328 0.044
76.4631 0.558
76.4934 0.604
76.5237 0.755
76.5540 0.593
76.5842 1.526
76.6145 1.313
76.6448 1.205
76.6751 2.139
76.7053 2.188
76.7356 1.716
76.7659 2.287
76.7962 1.087
76.8265 1.606
76.8567 1.136
76.8870 1.083
76.9173 2.072
76.9476 1.187
76.9779 1.813
77.0081 1.189
77.0384 1.867
77.0687 1.608
77.0990 0.881
77.1292 1.561
77.1595 0.783
77.1898 0.630
77.2201 1.519
77.2504 0.742
77.2806 0.382
77.3109 0.752
77.3412 0.080
77.3715 1.024
77.4018 0.666
77.4320 0.881
77.4623 0.784
77.4926 0.062
77.5229 -0.295
77.5531 -0.703
77.5834 0.659
77.6137 0.199
77.6440 0.052
77.6743 0.738
77.7045 0.019
77.7348 -0.335
77.7651 0.352
77.7954 -0.209
77.8257 0.271
77.8559 -0.082
77.8862 -0.174
77.9165 -0.005
77.9468 0.113
77.9770 -0.134
78.0073 0.661
78.0376 -0.158
78.0679 0.170
78.0982 -0.180
78.1284 -0.060
78.1587 0.425
78.1890 -0.235
78.2193 -0.271
78.2496 0.006
78.2798 0.127
78.3101 -0.012
78.3404 -0.359
78.3707 0.075
78.4009 0.094
78.4312 0.060
78.4615 -0.285
78.4918 -0.033
78.5221 0.219
78.5523 0.368
78.5826 0.048
78.6129 0.093
78.6432 -0.591
78.6735 -0.024
78.7037 -0.081
78.7340 0.278
78.7643 0.533
78.7946 0.112
78.8248 -0.048
78.8551 1.042
78.8854 0.310
78.9157 -0.318
78.9460 0.097
78.9762 0.563
79.0065 0.249
79.0368 0.196
79.0671 -0.638
79.0974 0.039
79.1276 0.352
79.1579 0.404
79.1882 0.197
79.2185 -0.010
79.2488 0.461
79.2790 0.411
79.3093 0.153
79.3396 -0.260
79.3699 0.212
79.4001 0.216
79.4304 0.324
79.4607 0.173
79.4910 0.021
79.5213 0.079
79.5515 0.293
79.5818 0.248
79.6121 0.098
79.6424 -0.311
79.6727 -0.060
79.7029 0.139
79.7332 0.078
79.7635 -0.191
79.7938 0.062
79.8240 0.471
79.8543 -0.266
79.8846 -0.116
79.9149 0.451
79.9452 0.549
79.9754 0.075
80.0057 0.486
80.0360 0.065
80.0663 -0.148
80.0966 0.213
80.1268 -0.051
80.1571 -0.210
80.1874 0.465
80.2177 0.515
80.2479 -0.373
80.2782 -0.009
80.3085 -0.271
80.3388 -0.229
80.3691 -0.290
80.3993 0.325
80.4296 0.785
80.4599 0.100
80.4902 0.196
80.5205 0.345
80.5507 0.077
80.5810 0.018
80.6113 -0.144
80.6416 0.058
80.6718 0.157
80.7021 0.256
80.7324 0.303
80.7627 -0.117
80.7930 0.191
80.8232 0.344
80.8535 0.133
80.8838 0.651
80.9141 0.128
80.9444 0.699
80.9746 0.542
81.0049 0.124
81.0352 0.644
81.0655 0.748
81.0957 0.697
81.1260 0.854
81.1563 0.855
81.1866 0.700
81.2169 1.171
81.2471 0.861
81.2774 1.384
81.3077 1.544
81.3380 1.027
81.3683 1.291
81.3985 0.879
81.4288 0.519
81.4591 0.941
81.4894 1.468
81.5196 0.692
81.5499 0.386
81.5802 0.133
81.6105 0.557
81.6408 0.252
81.6710 0.365
81.7013 0.477
81.7316 0.434
81.7619 0.392
81.7922 0.402
81.8224 0.464
81.8527 0.058
81.8830 0.225
81.9133 -0.284
81.9436 0.509
81.9738 -0.468
82.0041 0.066
82.0344 1.225
82.0647 0.249
82.0949 0.523
82.1252 0.433
82.1555 0.136
82.1858 0.359
82.2161 0.010
82.2463 0.495
82.2766 0.668
82.3069 -0.045
82.3372 0.858
82.3675 0.616
82.3977 0.321
82.4280 1.069
82.4583 0.827
82.4886 0.326
82.5188 0.242
82.5491 -0.415
82.5794 -0.224
82.6097 0.280
82.6400 0.784
82.6702 0.248
82.7005 0.701
82.7308 0.165
82.7611 0.150
82.7914 0.240
82.8216 0.122
82.8519 -0.048
82.8822 0.252
82.9125 0.656
82.9427 0.643
82.9730 0.163
83.0033 -0.161
83.0336 0.297
83.0639 0.078
83.0941 0.068
83.1244 0.579
83.1547 -0.108
83.1850 0.144
83.2153 0.083
83.2455 -0.237
83.2758 0.067
83.3061 -0.252
83.3364 -0.207
83.3666 -0.266
83.3969 -0.169
83.4272 0.344
83.4575 -0.444
83.4878 0.123
83.5180 0.013
83.5483 0.788
83.5786 -0.206
83.6089 -0.107
83.6392 0.149
83.6694 -0.168
83.6997 0.141
83.7300 0.347
83.7603 0.188
83.7905 -0.127
83.8208 -0.285
83.8511 0.180
83.8814 -0.031
83.9117 0.071
83.9419 0.330
83.9722 -0.141
84.0025 -0.246
84.0328 0.222
84.0631 0.014
84.0933 0.378
84.1236 0.066
84.1539 -0.037
84.1842 -0.244
84.2144 0.018
84.2447 0.489
84.2750 0.284
84.3053 -0.286
84.3356 0.030
84.3658 -0.175
84.3961 0.142
84.4264 -0.322
84.4567 0.100
84.4870 0.470
84.5172 0.059
84.5475 -0.091
84.5778 -0.084
84.6081 0.184
84.6383 0.243
84.6686 -0.269
84.6989 0.156
84.7292 0.529
84.7595 -0.034
84.7897 -0.494
84.8200 0.072
84.8503 0.066
84.8806 0.737
84.9109 -0.675
84.9411 0.257
84.9714 0.148
85.0017 -0.430
85.0320 0.035
85.0623 -0.177
85.0925 -0.180
85.1228 0.077
85.1531 0.127
85.1834 0.021
85.2136 0.331
85.2439 0.278
85.2742 0.329
85.3045 -0.452
85.3348 0.121
85.3650 -0.348
85.3953 0.226
85.4256 -0.241
85.4559 0.281
85.4862 0.075
85.5164 -0.079
85.5467 -0.076
85.5770 -0.072
85.6073 0.088
85.6375 0.092
85.6678 0.200
85.6981 -0.263
85.7284 0.315
85.7587 0.060
85.7889 0.327
85.8192 0.334
85.8495 0.028
85.8798 0.296
85.9101 -0.008
85.9403 -0.260
85.9706 -0.103
86.0009 -0.310
86.0312 1.046
86.0614 0.423
86.0917 0.113
86.1220 0.741
86.1523 0.067
86.1826 0.071
86.2128 0.075
86.2431 -0.389
86.2734 -0.034
86.3037 0.114
86.3340 0.106
86.3642 0.098
86.3945 0.612
86.4248 0.032
86.4551 0.546
86.4853 -0.293
86.5156 0.066
86.5459 0.790
86.5762 0.108
86.6065 0.312
86.6367 0.100
86.6670 0.409
86.6973 -0.376
86.7276 -0.014
86.7579 -0.173
86.7881 0.503
86.8184 0.032
86.8487 0.708
86.8790 0.187
86.9092 -0.334
86.9395 -0.074
86.9698 -0.177
87.0001 0.553
87.0304 0.034
87.0606 0.556
87.0909 0.350
87.1212 -0.272
87.1515 -0.165
87.1818 -0.266
87.2120 0.200
87.2423 0.510
87.2726 0.716
87.3029 0.142
87.3331 0.192
87.3634 0.244
87.3937 0.504
87.4240 0.868
87.4543 -0.121
87.4845 0.192
87.5148 0.454
87.5451 0.195
87.5754 0.249
87.6057 0.043
87.6359 0.046
87.6662 0.466
87.6965 0.365
87.7268 0.838
87.7571 0.530
87.7873 0.066
87.8176 0.436
87.8479 -0.183
87.8782 0.083
87.9084 0.142
87.9387 -0.164
87.9690 -0.260
87.9993 0.029
88.0296 0.579
88.0598 0.036
88.0901 -0.351
88.1204 0.097
88.1507 0.232
88.1810 -0.466
88.2112 0.035
88.2415 0.067
88.2718 0.204
88.3021 0.445
88.3323 0.114
88.3626 -0.060
88.3929 0.286
88.4232 0.425
88.4535 0.044
88.4837 0.027
88.5140 0.115
88.5443 0.568
88.5746 -0.020
88.6049 0.434
88.6351 0.315
88.6654 0.197
88.6957 -0.337
88.7260 -0.144
88.7562 0.310
88.7865 0.557
88.8168 0.387
88.8471 -0.043
88.8774 0.933
88.9076 0.921
88.9379 1.378
88.9682 0.481
88.9985 1.094
89.0288 0.927
89.0590 0.917
89.0893 0.751
89.1196 1.262
89.1499 1.461
89.1801 1.974
89.2104 1.080
89.2407 1.853
89.2710 2.106
89.3013 1.682
89.3315 2.405
89.3618 2.867
89.3921 2.914
89.4224 3.221
89.4527 3.112
89.4829 2.586
89.5132 3.207
89.5435 2.891
89.5738 3.981
89.6040 3.249
89.6343 4.341
89.6646 3.557
89.6949 2.983
89.7252 2.773
89.7554 3.189
89.7857 1.886
89.8160 3.189
89.8463 2.408
89.8766 2.929
89.9068 1.941
89.9371 1.786
89.9674 1.736
89.9977 1.895
90.0279 0.752
90.0582 1.537
90.0885 1.645
90.1188 0.295
90.1491 1.445
90.1793 0.981
90.2096 0.830
90.2399 0.368
90.2702 0.895
90.3005 0.120
90.3307 -0.081
90.3610 0.343
90.3913 -0.066
90.4216 0.359
90.4518 -0.466
90.4821 0.481
90.5124 0.230
90.5427 0.344
90.5730 0.302
90.6032 0.105
90.6335 0.741
90.6638 -0.133
90.6941 0.609
90.7244 -0.369
90.7546 -0.304
90.7849 0.064
90.8152 -0.297
90.8455 -0.240
90.8758 0.493
90.9060 -0.387
90.9363 0.139
90.9666 0.197
90.9969 0.724
91.0271 -0.363
91.0574 0.321
91.0877 -0.088
91.1180 0.649
91.1483 -0.020
91.1785 -0.792
91.2088 0.259
91.2391 -0.200
91.2694 -0.295
91.2997 -0.196
91.3299 -0.098
91.3602 -0.051
91.3905 -0.003
91.4208 0.305
91.4510 -0.168
91.4813 0.506
91.5116 -0.331
91.5419 -0.125
91.5722 -0.127
91.6024 -0.598
91.6327 0.167
91.6630 -0.213
91.6933 -0.072
91.7236 0.121
91.7538 0.003
91.7841 0.093
91.8144 -0.390
91.8447 -0.040
91.8749 -0.002
91.9052 -0.277
91.9355 0.022
91.9658 -0.095
91.9961 -0.056
92.0263 0.036
92.0566 -0.236
92.0869 0.273
92.1172 -0.623
92.1475 -0.061
92.1777 0.137
92.2080 0.075
92.2383 0.222
92.2686 -0.100
92.2988 0.360
92.3291 -0.481
92.3594 0.032
92.3897 0.597
92.4200 0.434
92.4502 -0.041
92.4805 1.567
92.5108 -0.105
92.5411 0.827
92.5714 0.926
92.6016 0.661
92.6319 -0.020
92.6622 1.122
92.6925 0.546
92.7227 1.064
92.7530 0.072
92.7833 0.747
92.8136 1.162
92.8439 -0.193
92.8741 0.900
92.9044 0.587
92.9347 0.587
92.9650 0.900
92.9953 0.953
93.0255 0.850
93.0558 0.123
93.0861 0.281
93.1164 -0.185
93.1466 -0.078
93.1769 0.655
93.2072 0.450
93.2375 0.038
93.2678 0.199
93.2980 -0.056
93.3283 0.366
93.3586 0.111
93.3889 -0.403
93.4192 0.124
93.4494 -0.598
93.4797 -0.069
93.5100 0.201
93.5403 0.158
93.5706 -0.197
93.6008 0.282
93.6311 0.033
93.6614 -0.373
93.6917 0.159
93.7219 -0.402
93.7522 0.340
93.7825 0.248
93.8128 -0.363
93.8431 -0.223
93.8733 0.179
93.9036 -0.668
93.9339 0.047
93.9642 0.294
93.9945 0.176
94.0247 -0.201
94.0550 -0.109
94.0853 -0.225
94.1156 -0.133
94.1458 -0.248
94.1761 -0.207
94.2064 0.043
94.2367 -0.435
94.2670 0.024
94.2972 0.536
94.3275 0.371
94.3578 0.050
94.3881 -0.010
94.4184 -0.329
94.4486 -0.234
94.4789 -0.139
94.5092 0.582
94.5395 0.991
94.5697 0.671
94.6000 0.925
94.6303 0.814
94.6606 0.600
94.6909 0.750
94.7211 0.849
94.7514 1.105
94.7817 1.204
94.8120 1.252
94.8423 1.093
94.8725 1.506
94.9028 1.503
94.9331 1.813
94.9634 2.280
94.9936 3.112
95.0239 2.850
95.0542 2.641
95.0845 2.068
95.1148 2.172
95.1450 2.173
95.1753 2.695
95.2056 3.061
95.2359 2.073
95.2662 2.075
95.2964 2.650
95.3267 2.706
95.3570 2.709
95.3873 2.036
95.4175 2.457
95.4478 2.357
95.4781 2.102
95.5084 1.482
95.5387 1.540
95.5689 1.442
95.5992 1.397
95.6295 2.550
95.6598 1.985
95.6901 2.097
95.7203 1.376
95.7506 1.072
95.7809 0.092
95.8112 1.248
95.8414 1.154
95.8717 0.643
95.9020 1.175
95.9323 0.301
95.9626 0.365
95.9928 0.429
96.0231 0.181
96.0534 0.142
96.0837 0.676
96.1140 0.481
96.1442 0.027
96.1745 0.614
96.2048 0.265
96.2351 0.801
96.2653 -0.016
96.2956 -0.312
96.3259 -0.050
96.3562 0.057
96.3865 -0.408
96.4167 0.064
96.4470 -0.297
96.4773 0.125
96.5076 0.077
96.5379 0.083
96.5681 0.036
96.5984 0.094
96.6287 0.049
96.6590 0.577
96.6893 0.063
96.7195 -0.242
96.7498 -0.077
96.7801 0.400
96.8104 0.149
96.8406 0.054
96.8709 0.272
96.9012 -0.655
96.9315 0.085
96.9618 0.096
96.9920 0.159
97.0223 -0.089
97.0526 -0.337
97.0829 0.144
97.1132 0.262
97.1434 0.276
97.1737 0.082
97.2040 -0.112
97.2343 0.059
97.2645 -0.290
97.2948 -0.202
97.3251 -0.113
97.3554 -0.025
97.3857 0.481
97.4159 -0.106
97.4462 0.297
97.4765 -0.082
97.5068 0.322
97.5371 -0.212
97.5673 0.141
97.5976 -0.288
97.6279 0.430
97.6582 0.210
97.6884 0.199
97.7187 -0.019
97.7490 0.179
97.7793 -0.091
97.8096 -0.308
97.8398 -0.006
97.8701 0.401
97.9004 0.027
97.9307 0.226
97.9610 0.582
97.9912 -0.051
98.0215 0.723
98.0518 0.403
98.0821 0.239
98.1123 0.702
98.1426 0.487
98.1729 0.742
98.2032 1.414
98.2335 0.732
98.2637 1.248
98.2940 0.880
98.3243 0.772
98.3546 1.758
98.3849 1.339
98.4151 1.284
98.4454 2.168
98.4757 1.541
98.5060 1.332
98.5362 1.487
98.5665 1.695
98.5968 1.227
98.6271 0.810
98.6574 1.593
98.6876 1.802
98.7179 1.075
98.7482 2.483
98.7785 0.559
98.8088 0.510
98.8390 0.774
98.8693 0.517
98.8996 0.625
98.9299 0.995
98.9601 1.260
98.9904 -0.297
99.0207 0.855
99.0510 0.965
99.0813 0.608
99.1115 1.448
99.1418 -0.159
99.1721 0.057
99.2024 0.430
99.2327 0.648
99.2629 -0.020
99.2932 0.302
99.3235 -0.105
99.3538 -0.042
99.3841 0.594
99.4143 -0.020
99.4446 -0.165
99.4749 -0.152
99.5052 0.121
99.5354 -0.075
99.5657 0.199
99.5960 -0.048
99.6263 0.331
99.6566 -0.279
99.6868 -0.160
99.7171 -0.301
99.7474 0.965
99.7777 -0.008
99.8080 0.060
99.8382 -0.079
99.8685 0.512
99.8988 -0.043
99.9291 -0.285
99.9593 -0.030
99.9896 -0.035
100.0199 0.012
100.0502 0.164
100.0805 -0.412
100.1107 0.418
100.1410 -0.523
100.1713 0.100
100.2016 -0.058
100.2319 -0.060
100.2621 0.876
100.2924 0.407
100.3227 0.146
100.3530 0.198
100.3832 0.094
100.4135 -0.478
100.4438 0.201
100.4741 0.254
100.5044 0.100
100.5346 0.363
100.5649 -0.103
100.5952 0.421
100.6255 0.008
100.6558 -0.040
100.6860 -0.087
100.7163 -0.030
100.7466 -0.389
100.7769 0.190
100.8071 -0.117
100.8374 -0.006
100.8677 -0.572
100.8980 0.040
100.9283 -0.026
100.9585 0.430
100.9888 -0.051
101.0191 0.302
101.0494 0.290
101.0797 0.123
101.1099 -0.252
101.1402 0.466
101.1705 -0.116
101.2008 0.551
101.2310 -0.187
101.2613 -0.039
101.2916 0.109
101.3219 0.361
101.3522 -0.011
101.3824 -0.486
101.4127 0.288
101.4430 -0.239
101.4733 0.224
101.5036 0.063
101.5338 0.214
101.5641 -0.572
101.5944 -0.162
101.6247 -0.116
101.6549 -0.174
101.6852 0.498
101.7155 0.233
101.7458 -0.293
101.7761 0.224
101.8063 -0.196
101.8366 -0.304
101.8669 0.215
101.8972 0.160
101.9275 0.158
101.9577 -0.051
101.9880 -0.156
102.0183 0.103
102.0486 0.572
102.0788 -0.105
102.1091 -0.260
102.1394 -0.363
102.1697 0.292
102.2000 0.531
102.2302 0.823
102.2605 0.282
102.2908 -0.102
102.3211 -0.070
102.3514 0.693
102.3816 0.362
102.4119 0.291
102.4422 0.169
102.4725 -0.004
102.5028 0.239
102.5330 0.483
102.5633 -0.002
102.5936 1.076
102.6239 0.332
102.6541 0.890
102.6844 0.094
102.7147 0.393
102.7450 0.483
102.7753 0.314
102.8055 1.030
102.8358 1.434
102.8661 0.954
102.8964 0.786
102.9267 0.723
102.9569 0.451
102.9872 1.170
103.0175 1.004
103.0478 0.370
103.0780 0.413
103.1083 0.248
103.1386 0.969
103.1689 0.700
103.1992 0.433
103.2294 0.165
103.2597 -0.050
103.2900 0.152
103.3203 0.720
103.3506 0.662
103.3808 -0.332
103.4111 0.392
103.4414 0.909
103.4717 0.489
103.5019 0.121
103.5322 0.431
103.5625 0.897
103.5928 0.687
103.6231 0.112
103.6533 0.996
103.6836 0.943
103.7139 1.203
103.7442 0.735
103.7745 0.892
103.8047 1.465
103.8350 1.050
103.8653 2.354
103.8956 1.523
103.9258 1.213
103.9561 1.945
103.9864 2.052
104.0167 2.056
104.0470 1.383
104.0772 1.648
104.1075 2.539
104.1378 2.023
104.1681 1.404
104.1984 2.140
104.2286 1.938
104.2589 2.101
104.2892 1.900
104.3195 1.492
104.3497 1.552
104.3800 1.821
104.4103 0.633
104.4406 1.632
104.4709 1.590
104.5011 0.558
104.5314 0.569
104.5617 0.424
104.5920 0.801
104.6223 0.552
104.6525 1.190
104.6828 0.786
104.7131 0.591
104.7434 0.813
104.7736 0.567
104.8039 -0.408
104.8342 0.180
104.8645 0.247
104.8948 -0.623
104.9250 0.383
104.9553 0.608
104.9856 0.000
105.0159 0.122
105.0462 0.400
105.0764 -0.154
105.1067 -0.031
105.1370 0.352
105.1673 0.007
105.1975 -0.390
105.2278 0.042
105.2581 -0.151
105.2884 0.750
105.3187 0.297
105.3489 -0.572
105.3792 0.226
105.4095 -0.538
105.4398 -0.052
105.4701 0.070
105.5003 0.349
105.5306 -0.361
105.5609 -0.030
105.5912 0.094
105.6215 0.114
105.6517 0.655
105.6820 0.103
105.7123 0.437
105.7426 0.094
105.7728 0.117
105.8031 0.243
105.8334 0.527
105.8637 -0.023
105.8940 0.522
105.9242 0.233
105.9545 -0.054
105.9848 0.596
106.0151 0.621
106.0454 0.022
106.0756 0.152
106.1059 0.700
106.1362 0.467
106.1665 0.182
106.1967 -0.415
106.2270 -0.177
106.2573 -0.095
106.2876 0.092
106.3179 -0.137
106.3481 0.728
106.3784 0.186
106.4087 0.688
106.4390 0.199
106.4693 -0.340
106.4995 0.110
106.5298 -0.064
106.5601 0.230
106.5904 0.213
106.6206 0.144
106.6509 0.076
106.6812 -0.409
106.7115 0.408
106.7418 0.237
106.7720 0.222
106.8023 0.312
106.8326 -0.223
106.8629 0.024
106.8932 -0.041
106.9234 -0.158
106.9537 -0.014
106.9840 0.182
107.0143 -0.350
107.0445 -0.049
107.0748 0.045
107.1051 -0.069
107.1354 -0.183
107.1657 0.484
107.1959 0.006
107.2262 -0.627
107.2565 0.198
107.2868 0.034
107.3171 -0.234
107.3473 -0.501
107.3776 0.638
107.4079 0.059
107.4382 -0.155
107.4684 0.205
107.4987 0.304
107.5290 0.664
107.5593 0.400
107.5896 -0.177
107.6198 0.393
107.6501 0.546
107.6804 0.284
107.7107 -0.656
107.7410 0.384
107.7712 0.123
107.8015 -0.086
107.8318 0.226
107.8621 -0.347
107.8923 -0.034
107.9226 -0.241
107.9529 0.021
107.9832 -0.290
108.0135 0.233
108.0437 -0.546
108.0740 -0.179
108.1043 0.553
108.1346 -0.120
108.1649 0.092
108.1951 0.044
108.2254 -0.108
108.2557 0.210
108.2860 -0.253
108.3163 -0.091
108.3465 0.332
108.3768 -0.235
108.4071 -0.280
108.4374 0.092
108.4676 -0.004
108.4979 0.525
108.5282 0.430
108.5585 -0.134
108.5888 -0.020
108.6190 0.250
108.6493 0.157
108.6796 -0.145
108.7099 -0.290
108.7402 0.176
108.7704 0.226
108.8007 -0.193
108.8310 0.483
108.8613 -0.299
108.8915 -0.144
108.9218 0.429
108.9521 -0.144
108.9824 0.065
109.0127 -0.298
109.0429 0.068
109.0732 0.122
109.1035 0.332
109.1338 -0.290
109.1641 -0.290
109.1943 0.324
109.2246 -0.416
109.2549 -0.274
109.2852 0.025
109.3154 0.063
109.3457 0.362
109.3760 -0.380
109.4063 0.389
109.4366 -0.717
109.4668 -0.260
109.4971 0.354
109.5274 0.135
109.5577 0.228
109.5880 0.531
109.6182 -0.052
109.6485 0.095
109.6788 -0.122
109.7091 0.026
109.7393 0.070
109.7696 1.157
109.7999 0.681
109.8302 0.049
109.8605 -0.009
109.8907 0.245
109.9210 0.500
109.9513 0.443
109.9816 0.438
110.0119 0.695
110.0421 0.899
110.0724 1.260
110.1027 1.153
110.1330 0.057
110.1632 0.472
110.1935 0.939
110.2238 1.875
110.2541 0.103
110.2844 0.884
110.3146 0.936
110.3449 1.405
110.3752 0.156
110.4055 0.574
110.4358 0.888
110.4660 1.202
110.4963 0.684
110.5266 1.103
110.5569 0.690
110.5871 0.641
110.6174 0.646
110.6477 0.442
110.6780 0.759
110.7083 0.192
110.7385 0.770
110.7688 1.610
110.7991 0.887
110.8294 0.790
110.8597 -0.036
110.8899 0.753
110.9202 0.136
110.9505 0.145
110.9808 0.571
111.0110 0.997
111.0413 0.538
111.0716 0.027
111.1019 0.611
111.1322 0.674
111.1624 0.269
111.1927 0.177
111.2230 0.658
111.2533 0.567
111.2836 0.320
111.3138 0.177
111.3441 -0.121
111.3744 -0.003
111.4047 0.116
111.4350 0.444
111.4652 -0.217
111.4955 0.163
111.5258 0.076
111.5561 -0.116
111.5863 0.266
111.6166 -0.133
111.6469 0.146
111.6772 0.008
111.7075 -0.389
111.7377 0.023
111.7680 -0.086
111.7983 -0.038
111.8286 0.167
111.8589 -0.044
111.8891 0.005
111.9194 -0.205
111.9497 0.835
111.9800 0.417
112.0102 -0.366
112.0405 -0.054
112.0708 0.207
112.1011 0.311
112.1314 0.364
112.1616 0.313
112.1919 0.262
112.2222 0.212
112.2525 -0.202
112.2828 -0.408
112.3130 0.533
112.3433 0.588
112.3736 0.488
112.4039 0.128
112.4341 0.237
112.4644 0.190
112.4947 -0.012
112.5250 0.046
112.5553 -0.260
112.5855 0.007
112.6158 0.275
112.6461 0.126
112.6764 0.030
112.7067 -0.222
112.7369 0.100
112.7672 0.161
112.7975 0.015
112.8278 0.442
112.8580 -0.225
112.8883 -0.266
112.9186 -0.072
112.9489 0.644
112.9792 0.109
113.0094 0.565
113.0397 0.084
113.0700 0.332
113.1003 0.528
113.1306 -0.629
113.1608 -0.015
113.1911 0.443
113.2214 0.121
113.2517 0.007
113.2819 0.258
113.3122 0.145
113.3425 0.188
113.3728 -0.393
113.4031 0.641
113.4333 0.269
113.4636 -0.362
113.4939 -0.160
113.5242 -0.010
113.5545 -0.068
113.5847 0.031
113.6150 0.183
113.6453 0.647
113.6756 0.487
113.7058 0.014
113.7361 -0.562
113.7664 0.061
113.7967 0.319
113.8270 -0.204
113.8572 0.368
113.8875 -0.571
113.9178 0.314
113.9481 -0.363
113.9784 -0.260
114.0086 0.105
114.0389 -0.311
114.0692 -0.056
114.0995 0.096
114.1298 0.456
114.1600 -0.121
114.1903 -0.020
114.2206 -0.283
114.2509 0.599
114.2811 -0.288
114.3114 -0.290
114.3417 -0.036
114.3720 -0.095
114.4023 0.576
114.4325 0.414
114.4628 0.097
114.4931 -0.533
114.5234 0.244
114.5537 0.292
114.5839 -0.233
114.6142 -0.027
114.6445 -0.030
114.6748 -0.241
114.7050 -0.295
114.7353 0.049
114.7656 0.185
114.7959 0.009
114.8262 -0.010
114.8564 0.128
114.8867 -0.672
114.9170 0.091
114.9473 0.177
114.9776 -0.048
115.0078 0.873
115.0381 0.335
115.0684 0.371
115.0987 0.200
115.1289 -0.284
115.1592 -0.039
115.1895 -0.470
115.2198 0.350
115.2501 0.284
115.2803 -0.094
115.3106 0.206
115.3409 0.506
115.3712 0.234
115.4015 0.431
115.4317 0.524
115.4620 1.034
115.4923 0.451
115.5226 1.431
115.5528 0.901
115.5831 1.309
115.6134 0.310
115.6437 0.406
115.6740 0.867
115.7042 1.069
115.7345 1.895
115.7648 0.899
115.7951 1.674
115.8254 1.721
115.8556 1.767
115.8859 2.075
115.9162 2.123
115.9465 2.431
115.9767 2.480
116.0070 2.060
116.0373 2.057
116.0676 1.742
116.0979 2.001
116.1281 2.468
116.1584 2.728
116.1887 1.789
116.2190 2.675
116.2493 3.248
116.2795 2.571
116.3098 2.260
116.3401 1.949
116.3704 2.732
116.4006 2.473
116.4309 2.059
116.4612 1.646
116.4915 2.274
116.5218 1.809
116.5520 1.605
116.5823 2.027
116.6126 2.605
116.6429 1.360
116.6732 1.262
116.7034 1.529
116.7337 2.317
116.7640 1.543
116.7943 1.707
116.8245 1.038
116.8548 0.682
116.8851 1.524
116.9154 0.856
116.9457 0.501
116.9759 0.824
117.0062 0.834
117.0365 0.272
117.0668 1.065
117.0971 0.764
117.1273 -0.161
117.1576 0.425
117.1879 -0.240
117.2182 0.659
117.2485 -0.421
117.2787 0.427
117.3090 0.390
117.3393 0.405
117.3696 0.264
117.3998 0.228
117.4301 0.348
117.4604 0.313
117.4907 -0.451
117.5210 -0.121
117.5512 -0.468
117.5815 0.175
117.6118 -0.276
117.6421 0.315
117.6724 0.646
117.7026 0.509
117.7329 0.164
117.7632 -0.650
117.7935 -0.138
117.8237 0.270
117.8540 -0.102
117.8843 0.098
117.9146 0.404
117.9449 0.345
117.9751 0.443
118.0054 0.176
118.0357 -0.298
118.0660 -0.043
118.0963 0.109
118.1265 -0.156
118.1568 -0.004
118.1871 0.305
118.2174 0.042
118.2476 0.195
118.2779 -0.484
118.3082 0.556
118.3385 0.086
118.3688 0.762
118.3990 0.241
118.4293 0.136
118.4596 0.241
118.4899 -0.540
118.5202 0.086
118.5504 0.140
118.5807 -0.640
118.6110 -0.064
118.6413 -0.166
118.6715 0.410
118.7018 -0.003
118.7321 -0.311
118.7624 0.055
118.7927 0.527
118.8229 -0.095
118.8532 -0.300
118.8835 0.173
118.9138 -0.188
118.9441 0.234
118.9743 0.343
119.0046 0.192
119.0349 -0.114
119.0652 0.048
119.0954 0.576
119.1257 -0.615
119.1560 -0.295
119.1863 0.074
119.2166 -0.130
119.2468 0.239
119.2771 -0.120
119.3074 0.146
119.3377 -0.108
119.3680 0.211
119.3982 -0.407
119.4285 0.381
119.4588 0.024
119.4891 -0.020
119.5193 -0.011
119.5496 -0.106
119.5799 0.528
119.6102 0.330
119.6405 -0.442
119.6707 -0.285
119.7010 -0.152
119.7313 -0.070
119.7616 -0.560
119.7919 0.199
119.8221 0.126
119.8524 -0.155
119.8827 0.189
119.9130 0.274
119.9433 0.046
119.9735 -0.962
120.0038 0.000
