'Id: "" Comment: "" Operator: "Lab Manager" Anode: "Cu" Scantype: "Locked Coupled" TimePerStep: "19.2" X: "9999" Y: "9999" Z: "9999" 
10.0015 0.000
10.0318 0.331
10.0620 0.662
10.0923 -1.612
10.1226 -0.030
10.1529 0.301
10.1832 -0.045
10.2134 0.079
10.2437 0.202
10.2740 -0.247
10.3043 -0.853
10.3346 0.004
10.3648 -0.336
10.3951 0.573
10.4254 -0.184
10.4557 -0.732
10.4859 0.751
10.5162 -0.787
10.5465 -0.554
10.5768 0.089
10.6071 0.159
10.6373 -0.864
10.6676 0.352
10.6979 -0.098
10.7282 -0.287
10.7585 0.096
10.7887 1.001
10.8190 0.031
10.8493 0.258
10.8796 0.590
10.9098 0.246
10.9401 -0.255
10.9704 0.650
11.0007 0.254
11.0310 0.014
11.0612 0.347
11.0915 -0.674
11.1218 0.024
11.1521 0.253
11.1824 -0.246
11.2126 -0.590
11.2429 0.317
11.2732 0.651
11.3035 0.361
11.3337 -0.190
11.3640 -0.012
11.3943 0.323
11.4246 0.450
11.4549 0.837
11.4851 0.912
11.5154 0.778
11.5457 0.958
11.5760 0.408
11.6063 -0.506
11.6365 -0.483
11.6668 -0.068
11.6971 0.451
11.7274 1.074
11.7577 0.448
11.7879 0.550
11.8182 0.184
11.8485 0.235
11.8788 0.182
11.9090 0.494
11.9393 0.025
11.9696 0.337
11.9999 0.336
12.0302 0.596
12.0604 0.128
12.0907 0.284
12.1210 -0.132
12.1513 0.441
12.1816 0.077
12.2118 -0.026
12.2421 0.027
12.2724 1.122
12.3027 0.810
12.3329 -0.126
12.3632 0.188
12.3935 -0.383
12.4238 0.036
12.4541 0.090
12.4843 -0.012
12.5146 0.094
12.5449 -0.112
12.5752 0.360
12.6055 0.675
12.6357 0.939
12.6660 -0.256
12.6963 0.476
12.7266 0.428
12.7568 0.275
12.7871 0.539
12.8174 0.439
12.8477 0.599
12.8780 -0.594
12.9082 -0.434
12.9385 -0.429
12.9688 0.513
12.9991 0.779
13.0294 0.211
13.0596 -0.305
13.0899 0.273
13.1202 -0.242
13.1505 -0.601
13.1807 0.030
13.2110 0.036
13.2413 0.251
13.2716 0.101
13.3019 0.107
13.3321 0.218
13.3624 0.329
13.3927 -0.706
13.4230 0.447
13.4533 -0.483
13.4835 -0.111
13.5138 -0.676
13.5441 0.477
13.5744 0.537
13.6046 0.441
13.6349 0.033
13.6652 0.302
13.6955 0.310
13.7258 0.267
13.7560 -0.141
13.7863 0.076
13.8166 -0.175
13.8469 -0.582
13.8772 -0.055
13.9074 -0.101
13.9377 0.166
13.9680 0.172
13.9983 -0.706
14.0285 -0.283
14.0588 0.662
14.0891 -0.164
14.1194 0.000
14.1497 0.111
14.1799 0.171
14.2102 0.544
14.2405 0.447
14.2708 -0.534
14.3011 0.308
14.3313 0.420
14.3616 -0.300
14.3919 -0.656
14.4222 0.076
14.4524 0.026
14.4827 0.185
14.5130 -0.177
14.5433 -0.590
14.5736 0.038
14.6038 0.822
14.6341 0.097
14.6644 0.413
14.6947 0.573
14.7250 -0.152
14.7552 -0.200
14.7855 -0.405
14.8158 0.121
14.8461 0.282
14.8764 0.234
14.9066 -0.230
14.9369 -0.433
14.9672 -0.171
14.9975 -0.118
15.0277 0.300
15.0580 0.249
15.0883 0.043
15.1186 -0.112
15.1489 -0.474
15.1791 0.049
15.2094 0.259
15.2397 0.574
15.2700 -0.152
15.3003 0.476
15.3305 0.114
15.3608 -0.039
15.3911 0.173
15.4214 0.853
15.4516 -0.393
15.4819 0.131
15.5122 0.500
15.5425 -0.121
15.5728 -0.742
15.6030 0.252
15.6333 -0.160
15.6636 0.418
15.6939 0.058
15.7242 0.011
15.7544 0.693
15.7847 -0.031
15.8150 0.444
15.8453 0.241
15.8755 -0.066
15.9058 0.409
15.9361 0.624
15.9664 0.370
15.9967 0.532
16.0269 0.226
16.0572 -0.340
16.0875 0.188
16.1178 0.091
16.1481 0.411
16.1783 0.366
16.2086 0.217
16.2389 0.902
16.2692 0.233
16.2994 -0.592
16.3297 0.770
16.3600 0.518
16.3903 0.214
16.4206 -0.454
16.4508 0.596
16.4811 0.189
16.5114 0.510
16.5417 0.728
16.5720 0.112
16.6022 -0.399
16.6325 -0.405
16.6628 0.318
16.6931 0.364
16.7233 0.723
16.7536 0.561
16.7839 0.035
16.8142 -0.075
16.8445 0.389
16.8747 -0.137
16.9050 0.796
16.9353 0.843
16.9656 0.370
16.9959 0.261
17.0261 -0.368
17.0564 -0.320
17.0867 -0.063
17.1170 0.766
17.1472 0.450
17.1775 1.280
17.2078 0.548
17.2381 0.024
17.2684 0.229
17.2986 0.174
17.3289 0.171
17.3592 0.377
17.3895 0.167
17.4198 0.737
17.4500 -0.306
17.4803 0.057
17.5106 -0.258
17.5409 -0.363
17.5712 0.365
17.6014 -0.053
17.6317 0.206
17.6620 0.101
17.6923 0.257
17.7225 -0.265
17.7528 -0.057
17.7831 0.047
17.8134 0.255
17.8437 -0.318
17.8739 -0.369
17.9042 0.308
17.9345 0.204
17.9648 -0.628
17.9951 -0.315
18.0253 -0.366
18.0556 0.104
18.0859 0.574
18.1162 0.315
18.1464 0.057
18.1767 0.110
18.2070 0.477
18.2373 0.010
18.2676 0.898
18.2978 0.015
18.3281 -0.295
18.3584 -0.240
18.3887 -0.341
18.4190 0.027
18.4492 -0.283
18.4795 -0.852
18.5098 0.141
18.5401 0.197
18.5703 0.097
18.6006 -0.004
18.6309 -0.156
18.6612 -0.099
18.6915 -0.095
18.7217 0.431
18.7520 -0.294
18.7823 -0.445
18.8126 0.237
18.8429 -0.226
18.8731 -0.064
18.9034 -0.319
18.9337 0.728
18.9640 -0.047
18.9942 -0.197
19.0245 -0.087
19.0548 -0.497
19.0851 0.239
19.1154 -0.171
19.1456 0.669
19.1759 0.676
19.2062 0.006
19.2365 0.483
19.2668 0.334
19.2970 0.081
19.3273 -0.484
19.3576 -0.272
19.3879 -0.373
19.4181 -0.005
19.4484 0.155
19.4787 0.054
19.5090 -0.098
19.5393 0.479
19.5695 0.743
19.5998 0.487
19.6301 0.179
19.6604 0.028
19.6907 -0.071
19.7209 -0.118
19.7512 -0.061
19.7815 0.257
19.8118 0.262
19.8420 0.112
19.8723 0.065
19.9026 0.019
19.9329 0.234
19.9632 -0.177
19.9934 0.246
20.0237 0.045
20.0540 -0.521
20.0843 -0.202
20.1146 0.222
20.1448 -0.344
20.1751 0.288
20.2054 -0.121
20.2357 -0.477
20.2659 -0.067
20.2962 0.031
20.3265 0.129
20.3568 0.019
20.3871 0.274
20.4173 0.217
20.4476 0.524
20.4779 0.050
20.5082 -0.216
20.5385 0.353
20.5687 0.400
20.5990 0.239
20.6293 0.912
20.6596 0.126
20.6899 0.435
20.7201 0.014
20.7504 0.532
20.7807 0.528
20.8110 0.108
20.8412 0.417
20.8715 0.102
20.9018 0.203
20.9321 0.096
20.9624 -0.115
20.9926 0.039
21.0229 0.141
21.0532 -0.226
21.0835 -0.384
21.1138 -0.177
21.1440 -0.022
21.1743 -0.179
21.2046 -0.180
21.2349 0.288
21.2651 0.496
21.2954 -0.337
21.3257 0.079
21.3560 0.132
21.3863 0.080
21.4165 0.289
21.4468 0.237
21.4771 0.082
21.5074 -0.126
21.5377 -0.177
21.5679 -0.332
21.5982 -0.122
21.6285 -0.121
21.6588 -0.327
21.6890 -0.013
21.7193 0.301
21.7496 -0.113
21.7799 0.098
21.8102 0.100
21.8404 0.155
21.8707 0.053
21.9010 0.161
21.9313 0.112
21.9616 -0.302
21.9918 -0.559
22.0221 0.122
22.0524 0.335
22.0827 -0.234
22.1129 0.083
22.1432 0.035
22.1735 0.040
22.2038 0.097
22.2341 0.363
22.2643 0.472
22.2946 0.165
22.3249 0.170
22.3552 -0.553
22.3855 0.078
22.4157 0.553
22.4460 -0.327
22.4763 -0.060
22.5066 -0.105
22.5368 0.526
22.5671 -0.196
22.5974 0.748
22.6277 0.547
22.6580 0.502
22.6882 0.458
22.7185 0.413
22.7488 0.473
22.7791 0.689
22.8094 0.072
22.8396 -0.388
22.8699 0.662
22.9002 -0.007
22.9305 0.158
22.9607 -0.353
22.9910 -0.356
23.0213 0.215
23.0516 0.370
23.0819 0.681
23.1121 0.523
23.1424 -0.156
23.1727 -0.105
23.2030 -0.523
23.2333 0.154
23.2635 -0.316
23.2938 0.048
23.3241 -0.369
23.3544 -0.216
23.3846 -0.063
23.4149 0.038
23.4452 0.087
23.4755 0.241
23.5058 -0.231
23.5360 0.288
23.5663 -0.340
23.5966 0.231
23.6269 0.021
23.6572 0.175
23.6874 -0.139
23.7177 -0.089
23.7480 -0.246
23.7783 0.430
23.8086 0.272
23.8388 0.219
23.8691 0.167
23.8994 -0.198
23.9297 0.009
23.9599 0.322
23.9902 -0.043
24.0205 0.165
24.0508 0.270
24.0811 -0.042
24.1113 0.010
24.1416 0.115
24.1719 0.220
24.2022 0.325
24.2325 -0.246
24.2627 0.068
24.2930 -0.400
24.3233 -0.086
24.3536 0.020
24.3838 -0.394
24.4141 -0.080
24.4444 -0.234
24.4747 -0.023
24.5050 -0.124
24.5352 -0.278
24.5655 0.142
24.5958 0.093
24.6261 -0.008
24.6564 -0.161
24.6866 0.572
24.7169 -0.102
24.7472 0.058
24.7775 -0.146
24.8077 -0.090
24.8380 0.175
24.8683 0.076
24.8986 0.080
24.9289 0.033
24.9591 -0.118
24.9894 0.564
25.0197 -0.004
25.0500 -0.050
25.0803 0.216
25.1105 -0.091
25.1408 -0.345
25.1711 -0.090
25.2014 -0.094
25.2316 0.213
25.2619 0.209
25.2922 0.413
25.3225 -0.007
25.3528 -0.063
25.3830 -0.380
25.4133 0.606
25.4436 0.030
25.4739 -0.129
25.5042 0.180
25.5344 -0.083
25.5647 0.226
25.5950 0.432
25.6253 0.169
25.6555 0.011
25.6858 -0.044
25.7161 0.111
25.7464 0.317
25.7767 -0.362
25.8069 0.210
25.8372 -0.208
25.8675 0.207
25.8978 -0.002
25.9281 0.414
25.9583 0.100
25.9886 -0.421
26.0189 -0.269
26.0492 0.248
26.0794 0.245
26.1097 0.137
26.1400 -0.023
26.1703 -0.130
26.2006 -0.081
26.2308 0.020
26.2611 -0.243
26.2914 -0.245
26.3217 0.117
26.3520 -0.458
26.3822 0.217
26.4125 0.319
26.4428 -0.099
26.4731 -0.361
26.5034 -0.210
26.5336 -0.058
26.5639 0.615
26.5942 0.090
26.6245 0.295
26.6547 -0.073
26.6850 0.131
26.7153 -0.184
26.7456 0.125
26.7759 -0.191
26.8061 -0.089
26.8364 -0.196
26.8667 -0.355
26.8970 0.111
26.9273 0.213
26.9575 0.107
26.9878 -0.155
27.0181 0.051
27.0484 -0.263
27.0786 -0.212
27.1089 0.255
27.1392 0.567
27.1695 0.149
27.1998 -0.268
27.2300 -0.425
27.2603 0.089
27.2906 0.082
27.3209 0.076
27.3512 -0.191
27.3814 0.220
27.4117 0.214
27.4420 0.208
27.4723 -0.058
27.5025 -0.323
27.5328 0.244
27.5631 0.239
27.5934 -0.026
27.6237 0.230
27.6539 0.381
27.6842 0.273
27.7145 -0.096
27.7448 -0.309
27.7751 -0.104
27.8053 0.152
27.8356 -0.112
27.8659 0.510
27.8962 -0.014
27.9264 0.295
27.9567 -0.437
27.9870 0.185
28.0173 0.286
28.0476 0.076
28.0778 -0.291
28.1081 -0.033
28.1384 0.017
28.1687 -0.350
28.1990 0.013
28.2292 0.012
28.2595 -0.042
28.2898 -0.199
28.3201 -0.305
28.3503 0.007
28.3806 0.267
28.4109 0.110
28.4412 0.213
28.4715 -0.203
28.5017 0.421
28.5320 -0.099
28.5623 0.578
28.5926 0.057
28.6229 -0.463
28.6531 -0.150
28.6834 0.059
28.7137 -0.148
28.7440 0.426
28.7742 -0.406
28.8045 -0.457
28.8348 0.203
28.8651 -0.335
28.8954 0.013
28.9256 -0.160
28.9559 -0.177
28.9862 0.119
29.0165 0.467
29.0468 -0.122
29.0770 -0.034
29.1073 -0.831
29.1376 0.143
29.1679 -0.654
29.1981 0.008
29.2284 -0.163
29.2587 -0.126
29.2890 -0.089
29.3193 0.157
29.3495 -0.171
29.3798 0.700
29.4101 -0.564
29.4404 -0.317
29.4707 0.085
29.5009 -0.085
29.5312 -0.619
29.5615 0.096
29.5918 0.083
29.6221 0.330
29.6523 0.109
29.6826 -0.060
29.7129 0.240
29.7432 -0.606
29.7734 0.163
29.8037 -0.787
29.8340 0.139
29.8643 -0.550
29.8946 -0.093
29.9248 0.156
29.9551 -0.220
29.9854 -0.440
30.0157 -1.024
30.0460 0.212
30.0762 -0.583
30.1065 -0.231
30.1368 0.172
30.1671 -0.206
30.1973 -0.219
30.2276 -0.023
30.2579 -0.609
30.2882 -0.153
30.3185 -0.269
30.3487 0.552
30.3790 -0.033
30.4093 -0.201
30.4396 -0.265
30.4699 -0.068
30.5001 -0.131
30.5304 -0.455
30.5607 0.732
30.5910 0.408
30.6212 -0.384
30.6515 0.074
30.6818 0.012
30.7121 1.043
30.7424 0.304
30.7726 0.607
30.8029 0.857
30.8332 1.993
30.8635 0.682
30.8938 0.516
30.9240 1.497
30.9543 0.602
30.9846 1.739
31.0149 1.314
31.0451 2.035
31.0754 3.068
31.1057 1.393
31.1360 2.218
31.1663 3.044
31.1965 3.505
31.2268 4.226
31.2571 5.156
31.2874 4.576
31.3177 5.455
31.3479 8.000
31.3782 8.722
31.4085 8.507
31.4388 12.095
31.4690 13.286
31.4993 15.728
31.5296 13.899
31.5599 18.008
31.5902 20.242
31.6204 19.559
31.6507 19.658
31.6810 19.809
31.7113 16.002
31.7416 15.216
31.7718 14.221
31.8021 11.456
31.8324 10.515
31.8627 8.062
31.8929 7.225
31.9232 6.075
31.9535 5.915
31.9838 4.974
32.0141 2.783
32.0443 3.561
32.0746 3.246
32.1049 2.878
32.1352 1.104
32.1655 2.039
32.1957 1.360
32.2260 1.253
32.2563 1.095
32.2866 0.676
32.3169 0.518
32.3471 1.141
32.3774 1.556
32.4077 0.565
32.4380 0.720
32.4682 0.771
32.4985 0.458
32.5288 0.197
32.5591 0.405
32.5894 0.665
32.6196 -0.117
32.6499 0.196
32.6802 -0.013
32.7105 0.144
32.7408 0.404
32.7710 -0.116
32.8013 -0.480
32.8316 -0.531
32.8619 0.408
32.8921 -0.216
32.9224 -0.423
32.9527 0.099
32.9830 -0.628
33.0133 0.050
33.0435 -0.521
33.0738 -0.102
33.1041 0.109
33.1344 -0.045
33.1647 -0.511
33.1949 -0.251
33.2252 -0.511
33.2555 -0.411
33.2858 -0.207
33.3160 -0.419
33.3463 -0.267
33.3766 -0.479
33.4069 -0.222
33.4372 0.088
33.4674 -0.280
33.4977 -0.543
33.5280 0.183
33.5583 0.545
33.5886 -0.187
33.6188 -0.241
33.6491 0.486
33.6794 -0.297
33.7097 0.170
33.7399 0.116
33.7702 1.052
33.8005 1.832
33.8308 0.737
33.8611 1.465
33.8913 1.308
33.9216 2.766
33.9519 2.557
33.9822 3.390
34.0125 2.608
34.0427 4.691
34.0730 5.629
34.1033 7.400
34.1336 8.807
34.1638 10.943
34.1941 16.672
34.2244 18.757
34.2547 20.268
34.2850 22.092
34.3152 21.156
34.3455 18.762
34.3758 16.680
34.4061 13.609
34.4364 9.028
34.4666 6.009
34.4969 5.438
34.5272 4.712
34.5575 3.673
34.5877 2.686
34.6180 1.439
34.6483 1.338
34.6786 1.080
34.7089 1.292
34.7391 1.140
34.7694 0.414
34.7997 0.262
34.8300 1.203
34.8603 1.312
34.8905 1.056
34.9208 0.852
34.9511 1.481
34.9814 1.486
35.0116 1.127
35.0419 0.090
35.0722 0.825
35.1025 0.466
35.1328 0.367
35.1630 0.477
35.1933 0.691
35.2236 0.437
35.2539 0.808
35.2842 1.700
35.3144 2.227
35.3447 1.921
35.3750 1.355
35.4053 1.883
35.4356 2.411
35.4658 1.742
35.4961 1.489
35.5264 2.538
35.5567 2.754
35.5869 3.491
35.6172 2.666
35.6475 4.237
35.6778 5.652
35.7081 4.983
35.7383 7.076
35.7686 6.512
35.7989 8.969
35.8292 7.988
35.8595 10.654
35.8897 11.966
35.9200 13.538
35.9503 16.985
35.9806 20.746
36.0108 19.922
36.0411 23.006
36.0714 24.475
36.1017 28.392
36.1320 24.340
36.1622 27.007
36.1925 24.987
36.2228 20.884
36.2531 20.271
36.2834 16.636
36.3136 15.502
36.3439 13.327
36.3742 8.443
36.4045 8.768
36.4347 8.676
36.4650 5.564
36.4953 4.848
36.5256 3.975
36.5559 4.874
36.5861 4.470
36.6164 2.452
36.6467 3.455
36.6770 2.323
36.7073 1.504
36.7375 1.310
36.7678 1.636
36.7981 1.442
36.8284 1.665
36.8586 1.211
36.8889 1.122
36.9192 1.658
36.9495 0.371
36.9798 0.803
37.0100 1.183
37.0403 1.459
37.0706 0.121
37.1009 0.970
37.1312 -0.212
37.1614 0.169
37.1917 0.446
37.2220 0.931
37.2523 0.010
37.2825 0.548
37.3128 0.096
37.3431 -0.355
37.3734 -0.286
37.4037 -0.372
37.4339 -0.511
37.4642 0.549
37.4945 0.202
37.5248 -0.040
37.5551 -0.126
37.5853 0.361
37.6156 -0.297
37.6459 0.034
37.6762 0.157
37.7064 -0.292
37.7367 0.196
37.7670 -0.201
37.7973 -0.182
37.8276 0.255
37.8578 -0.038
37.8881 -0.070
37.9184 0.419
37.9487 0.075
37.9790 -0.425
38.0092 -0.253
38.0395 0.180
38.0698 0.196
38.1001 -0.048
38.1304 -0.032
38.1606 0.037
38.1909 0.054
38.2212 -0.085
38.2515 0.193
38.2817 -0.311
38.3120 -0.345
38.3423 -0.030
38.3726 -0.131
38.4029 0.028
38.4331 0.500
38.4634 -0.278
38.4937 0.142
38.5240 -0.271
38.5543 0.045
38.5845 -0.159
38.6148 0.106
38.6451 -0.098
38.6754 0.115
38.7056 0.327
38.7359 0.072
38.7662 0.181
38.7965 0.030
38.8268 -0.277
38.8570 -0.116
38.8873 -0.006
38.9176 -0.313
38.9479 -0.619
38.9782 0.220
39.0084 0.330
39.0387 -0.653
39.0690 -0.282
39.0993 0.038
39.1295 0.096
39.1598 0.260
39.1901 -0.254
39.2204 -0.038
39.2507 -0.083
39.2809 0.654
39.3112 -0.119
39.3415 -0.216
39.3718 -0.051
39.4021 0.530
39.4323 -0.087
39.4626 -0.286
39.4929 -0.382
39.5232 0.143
39.5534 -0.373
39.5837 0.049
39.6140 -0.207
39.6443 -0.098
39.6746 -0.197
39.7048 0.225
39.7351 -0.134
39.7654 0.289
39.7957 0.034
39.8260 -0.324
39.8562 0.151
39.8865 -0.312
39.9168 0.163
39.9471 0.222
39.9773 -0.240
40.0076 0.028
40.0379 0.035
40.0682 0.094
40.0985 -0.003
40.1287 -0.099
40.1590 -0.144
40.1893 -0.292
40.2196 -0.083
40.2499 -0.187
40.2801 0.387
40.3104 -0.342
40.3407 -0.132
40.3710 -0.287
40.4012 -0.182
40.4315 -0.180
40.4618 0.394
40.4921 -0.073
40.5224 -0.123
40.5526 0.192
40.5829 -0.066
40.6132 -0.272
40.6435 0.043
40.6738 -0.215
40.7040 -0.264
40.7343 -0.053
40.7646 -0.206
40.7949 0.475
40.8251 0.322
40.8554 -0.091
40.8857 -0.191
40.9160 -0.239
40.9463 -0.027
40.9765 0.134
41.0068 0.763
41.0371 -0.169
41.0674 -0.217
41.0977 0.205
41.1279 0.002
41.1582 -0.201
41.1885 -0.092
41.2188 0.383
41.2491 0.128
41.2793 0.446
41.3096 0.244
41.3399 0.042
41.3702 -0.316
41.4004 -0.159
41.4307 -0.106
41.4610 0.156
41.4913 -0.571
41.5216 0.472
41.5518 0.109
41.5821 0.111
41.6124 -0.251
41.6427 0.064
41.6730 0.066
41.7032 -0.192
41.7335 -0.189
41.7638 0.491
41.7941 0.182
41.8243 0.341
41.8546 0.449
41.8849 0.192
41.9152 -0.169
41.9455 0.252
41.9757 0.047
42.0060 0.312
42.0363 0.004
42.0666 0.165
42.0969 0.169
42.1271 0.174
42.1574 0.179
42.1877 0.289
42.2180 0.815
42.2482 -0.117
42.2785 0.305
42.3088 0.519
42.3391 0.004
42.3694 -0.250
42.3996 -0.203
42.4299 0.573
42.4602 0.151
42.4905 0.563
42.5208 0.350
42.5510 0.137
42.5813 -0.284
42.6116 0.024
42.6419 -0.136
42.6721 0.016
42.7024 0.273
42.7327 0.217
42.7630 -0.099
42.7933 0.106
42.8235 0.259
42.8538 -0.161
42.8841 -0.268
42.9144 0.303
42.9447 0.092
42.9749 -0.067
43.0052 0.452
43.0355 -0.123
43.0658 0.135
43.0960 0.029
43.1263 0.184
43.1566 -0.026
43.1869 0.390
43.2172 -0.080
43.2474 0.336
43.2777 0.022
43.3080 0.074
43.3383 -0.135
43.3686 0.021
43.3988 0.281
43.4291 -0.135
43.4594 -0.031
43.4897 0.073
43.5199 0.022
43.5502 -0.134
43.5805 0.440
43.6108 0.337
43.6411 0.494
43.6713 0.287
43.7016 0.028
43.7319 -0.022
43.7622 0.292
43.7925 0.033
43.8227 0.400
43.8530 0.090
43.8833 0.561
43.9136 0.303
43.9439 0.202
43.9741 -0.004
44.0044 -0.261
44.0347 -0.163
44.0650 0.143
44.0952 0.085
44.1255 -0.181
44.1558 -0.187
44.1861 0.381
44.2164 0.115
44.2466 0.735
44.2769 0.313
44.3072 0.100
44.3375 -0.061
44.3678 0.039
44.3980 0.451
44.4283 0.187
44.4586 -0.078
44.4889 0.543
44.5191 0.123
44.5494 -0.193
44.5797 0.429
44.6100 0.373
44.6403 0.370
44.6705 -0.310
44.7008 -0.156
44.7311 0.466
44.7614 0.411
44.7917 0.409
44.8219 0.355
44.8522 -0.376
44.8825 0.195
44.9128 -0.119
44.9430 0.608
44.9733 0.347
45.0036 0.293
45.0339 -0.280
45.0642 -0.177
45.0944 -0.282
45.1247 -0.282
45.1550 -0.292
45.1853 0.168
45.2156 -0.310
45.2458 0.306
45.2761 0.505
45.3064 -0.337
45.3367 -0.085
45.3669 0.376
45.3972 0.003
45.4275 0.099
45.4578 0.455
45.4881 0.031
45.5183 -0.602
45.5486 0.224
45.5789 0.061
45.6092 0.054
45.6395 0.307
45.6697 -0.064
45.7000 0.085
45.7303 0.079
45.7606 0.072
45.7908 0.014
45.8211 -0.096
45.8514 0.315
45.8817 -0.212
45.9120 -0.217
45.9422 -0.066
45.9725 0.449
46.0028 -0.025
46.0331 0.335
46.0634 0.435
46.0936 0.274
46.1239 0.269
46.1542 -0.256
46.1845 -0.208
46.2147 -0.212
46.2450 -0.320
46.2753 -0.013
46.3056 -0.123
46.3359 0.028
46.3661 -0.446
46.3964 0.226
46.4267 0.012
46.4570 -0.097
46.4873 0.211
46.5175 -0.262
46.5478 -0.006
46.5781 0.198
46.6084 -0.066
46.6386 0.659
46.6689 0.186
46.6992 0.443
46.7295 0.492
46.7598 1.270
46.7900 0.225
46.8203 0.483
46.8506 0.949
46.8809 0.373
46.9112 0.683
46.9414 0.681
46.9717 0.679
47.0020 0.989
47.0323 0.831
47.0626 1.090
47.0928 1.818
47.1231 1.400
47.1534 2.648
47.1837 2.335
47.2139 3.115
47.2442 3.479
47.2745 3.895
47.3048 4.051
47.3351 3.582
47.3653 5.301
47.3956 4.988
47.4259 3.634
47.4562 4.572
47.4865 3.219
47.5167 4.782
47.5470 4.314
47.5773 2.700
47.6076 2.754
47.6378 1.870
47.6681 1.559
47.6984 1.560
47.7287 1.458
47.7590 0.731
47.7892 0.420
47.8195 0.787
47.8498 0.686
47.8801 1.001
47.9104 0.326
47.9406 0.225
47.9709 0.437
48.0012 1.013
48.0315 -0.078
48.0617 0.447
48.0920 0.399
48.1223 -0.327
48.1526 0.146
48.1829 -0.110
48.2131 -0.262
48.2434 0.107
48.2737 0.581
48.3040 0.325
48.3343 -0.035
48.3645 -0.186
48.3948 -0.024
48.4251 0.763
48.4554 -0.482
48.4856 -0.320
48.5159 -0.213
48.5462 0.259
48.5765 0.001
48.6068 -0.569
48.6370 0.112
48.6673 0.115
48.6976 0.119
48.7279 0.018
48.7582 -0.134
48.7884 -0.078
48.8187 -0.178
48.8490 0.191
48.8793 -0.221
48.9095 -0.164
48.9398 -0.003
48.9701 -0.311
49.0004 -0.202
49.0307 0.167
49.0609 0.120
49.0912 -0.135
49.1215 -0.182
49.1518 0.292
49.1821 -0.014
49.2123 -0.009
49.2426 -0.159
49.2729 0.316
49.3032 -0.199
49.3334 -0.244
49.3637 0.127
49.3940 0.081
49.4243 -0.016
49.4546 0.408
49.4848 -0.210
49.5151 -0.203
49.5454 0.222
49.5757 0.177
49.6060 0.237
49.6362 -0.276
49.6665 -0.164
49.6968 -0.103
49.7271 0.010
49.7574 -0.190
49.7876 0.287
49.8179 0.036
49.8482 0.149
49.8785 0.315
49.9087 0.220
49.9390 0.334
49.9693 -0.073
49.9996 -0.272
50.0299 -0.070
50.0601 0.288
50.0904 -0.240
50.1207 -0.246
50.1510 0.164
50.1813 0.262
50.2115 -0.265
50.2418 0.094
50.2721 0.193
50.3024 0.083
50.3326 0.182
50.3629 -0.032
50.3932 0.068
50.4235 0.219
50.4538 -0.359
50.4840 -0.103
50.5143 -0.159
50.5446 0.566
50.5749 -0.376
50.6052 0.246
50.6354 -0.279
50.6657 0.082
50.6960 0.131
50.7263 -0.237
50.7565 -0.032
50.7868 0.017
50.8171 0.014
50.8474 0.168
50.8777 -0.199
50.9079 -0.097
50.9382 -0.047
50.9685 0.003
50.9988 0.105
51.0291 -0.261
51.0593 0.102
51.0896 0.153
51.1199 -0.057
51.1502 0.099
51.1804 -0.058
51.2107 0.305
51.2410 0.409
51.2713 0.044
51.3016 -0.112
51.3318 0.200
51.3621 0.096
51.3924 -0.425
51.4227 -0.060
51.4530 0.097
51.4832 0.098
51.5135 0.099
51.5438 0.256
51.5741 -0.316
51.6043 0.102
51.6346 0.521
51.6649 0.054
51.6952 -0.257
51.7255 -0.203
51.7557 0.424
51.7860 0.114
51.8163 -0.561
51.8466 0.379
51.8769 -0.347
51.9071 -0.292
51.9374 0.071
51.9677 0.175
51.9980 0.122
52.0282 -0.035
52.0585 -0.296
52.0888 0.120
52.1191 -0.193
52.1494 -0.401
52.1796 0.065
52.2099 0.062
52.2402 0.059
52.2705 0.421
52.3008 -0.519
52.3310 -0.208
52.3613 -0.158
52.3916 -0.212
52.4219 -0.266
52.4521 0.045
52.4824 0.200
52.5127 0.198
52.5430 -0.167
52.5733 -0.168
52.6035 -0.117
52.6338 -0.065
52.6641 0.038
52.6944 0.194
52.7247 0.142
52.7549 -0.014
52.7852 0.038
52.8155 -0.065
52.8458 0.195
52.8761 0.040
52.9063 0.041
52.9366 -0.010
52.9669 0.043
52.9972 0.148
53.0274 0.046
53.0577 0.047
53.0880 0.205
53.1183 -0.418
53.1486 0.314
53.1788 0.576
53.2091 -0.046
53.2394 0.112
53.2697 0.063
53.3000 -0.351
53.3302 0.173
53.3605 0.072
53.3908 -0.185
53.4211 0.235
53.4513 0.135
53.4816 0.399
53.5119 0.039
53.5422 -0.322
53.5725 -0.171
53.6027 -0.332
53.6330 0.080
53.6633 -0.029
53.6936 0.488
53.7239 -0.194
53.7541 0.375
53.7844 0.475
53.8147 -0.050
53.8450 -0.157
53.8752 -0.057
53.9055 -0.216
53.9358 0.197
53.9661 -0.014
53.9964 -0.069
54.0266 0.397
54.0569 -0.231
54.0872 0.340
54.1175 -0.235
54.1478 -0.290
54.1780 -0.135
54.2083 -0.241
54.2386 -0.243
54.2689 -0.244
54.2991 0.067
54.3294 -0.143
54.3597 -0.456
54.3900 0.012
54.4203 0.324
54.4505 0.167
54.4808 -0.198
54.5111 0.531
54.5414 -0.094
54.5717 0.011
54.6019 -0.301
54.6322 -0.146
54.6625 -0.094
54.6928 -0.094
54.7230 0.063
54.7533 -0.301
54.7836 -0.205
54.8139 -0.264
54.8442 0.145
54.8744 -0.070
54.9047 -0.182
54.9350 -0.084
54.9653 -0.195
54.9956 -0.097
55.0258 -0.312
55.0561 0.047
55.0864 0.145
55.1167 -0.278
55.1469 0.029
55.1772 0.232
55.2075 0.331
55.2378 0.065
55.2681 -0.200
55.2983 -0.257
55.3286 -0.054
55.3589 -0.475
55.3892 0.354
55.4195 0.089
55.4497 -0.175
55.4800 -0.023
55.5103 0.286
55.5406 0.334
55.5709 0.383
55.6011 -0.193
55.6314 0.116
55.6617 0.009
55.6920 0.319
55.7222 0.212
55.7525 0.313
55.7828 0.259
55.8131 0.413
55.8434 0.359
55.8736 1.347
55.9039 0.616
55.9342 0.875
55.9645 0.769
55.9948 0.872
56.0250 0.819
56.0553 1.495
56.0856 1.703
56.1159 1.233
56.1461 2.431
56.1764 2.483
56.2067 1.858
56.2370 3.576
56.2673 3.681
56.2975 3.681
56.3278 4.515
56.3581 3.891
56.3884 5.037
56.4187 5.403
56.4489 6.446
56.4792 4.832
56.5095 5.667
56.5398 4.158
56.5700 4.837
56.6003 3.329
56.6306 4.008
56.6609 4.010
56.6912 3.179
56.7214 3.338
56.7517 2.924
56.7820 1.938
56.8123 2.514
56.8426 1.996
56.8728 1.478
56.9031 1.378
56.9334 0.913
56.9637 1.333
56.9939 0.973
57.0242 0.664
57.0545 0.877
57.0848 0.257
57.1151 0.626
57.1453 0.370
57.1756 0.740
57.2059 0.328
57.2362 0.125
57.2665 0.183
57.2967 0.657
57.3270 0.298
57.3573 0.356
57.3876 0.310
57.4178 0.368
57.4481 0.010
57.4784 -0.035
57.5087 0.596
57.5390 -0.178
57.5692 -0.327
57.5995 0.041
57.6298 -0.111
57.6601 -0.054
57.6904 0.263
57.7206 0.424
57.7509 -0.249
57.7812 0.121
57.8115 -0.082
57.8417 0.079
57.8720 0.137
57.9023 0.299
57.9326 -0.164
57.9629 0.467
57.9931 0.160
58.0234 0.010
58.0537 -0.140
58.0840 -0.133
58.1143 0.134
58.1445 -0.119
58.1748 0.513
58.2051 -0.105
58.2354 -0.202
58.2656 0.066
58.2959 -0.291
58.3262 -0.075
58.3565 0.037
58.3868 -0.475
58.4170 -0.050
58.4473 0.166
58.4776 -0.033
58.5079 0.028
58.5382 0.141
58.5684 -0.007
58.5987 0.055
58.6290 0.168
58.6593 0.282
58.6896 0.188
58.7198 -0.167
58.7501 -0.261
58.7804 -0.050
58.8107 0.005
58.8409 0.216
58.8712 -0.198
58.9015 -0.091
58.9318 0.017
58.9621 -0.292
58.9923 0.024
59.0226 0.184
59.0529 0.188
59.0832 0.504
59.1135 0.196
59.1437 -0.060
59.1740 0.049
59.2043 0.314
59.2346 -0.202
59.2648 -0.041
59.2951 0.017
59.3254 -0.030
59.3557 0.028
59.3860 0.137
59.4162 0.195
59.4465 0.201
59.4768 -0.209
59.5071 -0.255
59.5374 0.105
59.5676 0.152
59.5979 -0.425
59.6282 -0.117
59.6585 -0.174
59.6887 -0.074
59.7190 0.026
59.7493 0.179
59.7796 0.227
59.8099 0.171
59.8401 0.116
59.8704 0.009
59.9007 0.266
59.9310 -0.206
59.9613 0.156
59.9915 0.362
60.0218 0.203
60.0521 0.566
60.0824 -0.009
60.1126 0.041
60.1429 -0.169
60.1732 -0.067
60.2035 0.036
60.2338 0.087
60.2640 -0.123
60.2943 0.032
60.3246 -0.177
60.3549 0.864
60.3852 -0.178
60.4154 -0.074
60.4457 -0.335
60.4760 0.030
60.5063 -0.178
60.5365 0.082
60.5668 -0.021
60.5971 0.344
60.6274 0.397
60.6577 0.033
60.6879 -0.070
60.7182 -0.225
60.7485 0.037
60.7788 -0.014
60.8091 0.040
60.8393 0.250
60.8696 -0.164
60.8999 0.202
60.9302 -0.056
60.9604 0.311
60.9907 0.002
61.0210 0.108
61.0513 -0.045
61.0816 -0.250
61.1118 -0.260
61.1421 0.200
61.1724 0.295
61.2027 0.025
61.2330 0.485
61.2632 0.112
61.2935 0.207
61.3238 -0.166
61.3541 0.295
61.3844 0.287
61.4146 0.123
61.4449 -0.146
61.4752 0.055
61.5055 -0.057
61.5357 0.144
61.5660 0.033
61.5963 0.182
61.6266 0.332
61.6569 0.065
61.6871 0.266
61.7174 0.156
61.7477 0.045
61.7780 -0.221
61.8083 0.398
61.8385 -0.233
61.8688 0.439
61.8991 0.017
61.9294 0.324
61.9596 -0.046
61.9899 -0.051
62.0202 0.205
62.0505 0.825
62.0808 0.613
62.1110 0.400
62.1413 0.135
62.1716 0.496
62.2019 0.284
62.2322 0.957
62.2624 0.693
62.2927 0.482
62.3230 1.364
62.3533 1.309
62.3835 1.566
62.4138 1.616
62.4441 1.144
62.4744 2.288
62.5047 2.754
62.5349 3.377
62.5652 2.906
62.5955 3.686
62.6258 4.101
62.6561 4.204
62.6863 4.880
62.7166 4.358
62.7469 4.044
62.7772 4.616
62.8074 2.793
62.8377 3.678
62.8680 3.000
62.8983 3.312
62.9286 2.583
62.9588 2.896
62.9891 2.063
63.0194 2.740
63.0497 2.012
63.0800 1.908
63.1102 1.857
63.1405 1.442
63.1708 0.974
63.2011 1.444
63.2313 0.769
63.2616 1.083
63.2919 0.877
63.3222 0.254
63.3525 0.308
63.3827 -0.106
63.4130 0.730
63.4433 0.784
63.4736 0.058
63.5039 -0.043
63.5341 0.116
63.5644 -0.401
63.5947 -0.241
63.6250 0.232
63.6552 0.444
63.6855 0.293
63.7158 -0.015
63.7461 0.354
63.7764 0.567
63.8066 0.312
63.8369 -0.256
63.8672 0.322
63.8975 0.068
63.9278 0.282
63.9580 -0.077
63.9883 0.189
64.0186 0.039
64.0489 -0.059
64.0791 -0.156
64.1094 -0.306
64.1397 0.222
64.1700 -0.136
64.2003 0.080
64.2305 -0.069
64.2608 0.199
64.2911 0.102
64.3214 -0.099
64.3517 0.118
64.3819 0.230
64.4122 -0.439
64.4425 -0.118
64.4728 -0.057
64.5031 -0.153
64.5333 0.169
64.5636 -0.083
64.5939 -0.074
64.6242 0.457
64.6544 0.362
64.6847 0.007
64.7150 0.173
64.7453 0.079
64.7756 -0.067
64.8058 -0.213
64.8361 -0.307
64.8664 0.100
64.8967 -0.171
64.9270 -0.181
64.9572 0.226
64.9875 0.008
65.0178 -0.053
65.0481 0.094
65.0783 -0.175
65.1086 -0.080
65.1389 0.224
65.1692 -0.306
65.1995 -0.054
65.2297 -0.010
65.2600 -0.278
65.2903 0.235
65.3206 0.123
65.3509 0.063
65.3811 0.055
65.4114 0.257
65.4417 -0.167
65.4720 0.034
65.5022 -0.129
65.5325 -0.292
65.5628 0.379
65.5931 0.164
65.6234 0.054
65.6536 -0.265
65.6839 0.354
65.7142 -0.016
65.7445 -0.282
65.7748 -0.184
65.8050 0.174
65.8353 0.012
65.8656 -0.098
65.8959 0.157
65.9261 0.255
65.9564 0.146
65.9867 -0.224
66.0170 0.500
66.0473 0.495
66.0775 -0.082
66.1078 0.278
66.1381 0.638
66.1684 0.217
66.1987 0.786
66.2289 0.678
66.2592 0.466
66.2895 0.254
66.3198 0.875
66.3500 0.768
66.3803 0.712
66.4106 0.241
66.4409 0.446
66.4712 0.600
66.5014 0.754
66.5317 0.283
66.5620 0.228
66.5923 0.330
66.6226 0.172
66.6528 -0.090
66.6831 -0.352
66.7134 -0.046
66.7437 0.729
66.7739 0.150
66.8042 -0.117
66.8345 0.190
66.8648 -0.337
66.8951 0.127
66.9253 -0.400
66.9556 0.116
66.9859 0.111
67.0162 0.522
67.0465 0.622
67.0767 -0.216
67.1070 0.717
67.1373 -0.121
67.1676 0.240
67.1978 0.392
67.2281 0.336
67.2584 0.072
67.2887 0.745
67.3190 0.169
67.3492 1.312
67.3795 0.996
67.4098 0.889
67.4401 0.261
67.4704 0.675
67.5006 1.454
67.5309 1.400
67.5612 1.606
67.5915 1.708
67.6218 2.071
67.6520 2.330
67.6823 2.849
67.7126 2.431
67.7429 1.753
67.7731 3.211
67.8034 2.689
67.8337 2.636
67.8640 2.531
67.8943 2.375
67.9245 2.166
67.9548 2.010
67.9851 2.531
68.0154 3.156
68.0457 1.490
68.0759 1.907
68.1062 1.648
68.1365 1.753
68.1668 0.868
68.1970 1.078
68.2273 0.819
68.2576 0.560
68.2879 1.083
68.3182 0.772
68.3484 1.087
68.3787 0.776
68.4090 0.466
68.4393 0.677
68.4696 0.419
68.4998 0.787
68.5301 0.321
68.5604 0.741
68.5907 0.484
68.6209 0.227
68.6512 0.439
68.6815 0.651
68.7118 0.342
68.7421 0.555
68.7723 0.976
68.8026 1.136
68.8329 1.037
68.8632 1.093
68.8935 0.838
68.9237 1.468
68.9540 0.848
68.9843 1.114
69.0146 1.067
69.0448 0.813
69.0751 1.183
69.1054 0.824
69.1357 0.987
69.1660 0.577
69.1962 1.364
69.2265 0.590
69.2568 0.961
69.2871 0.239
69.3174 0.611
69.3476 0.201
69.3779 0.313
69.4082 0.372
69.4385 -0.297
69.4687 -0.029
69.4990 0.292
69.5293 0.040
69.5596 -0.212
69.5899 -0.100
69.6201 0.065
69.6504 0.283
69.6807 -0.177
69.7110 0.092
69.7413 -0.263
69.7715 0.215
69.8018 -0.035
69.8321 -0.234
69.8624 -0.276
69.8926 0.359
69.9229 0.057
69.9532 -0.089
69.9835 0.234
70.0138 0.141
70.0440 0.100
70.0743 -0.254
70.1046 -0.138
70.1349 0.081
70.1652 -0.063
70.1954 0.001
70.2257 0.012
70.2560 -0.184
70.2863 0.193
70.3166 -0.003
70.3468 -0.043
70.3771 -0.238
70.4074 -0.188
70.4377 0.227
70.4679 0.017
70.4982 0.224
70.5285 0.327
70.5588 -0.090
70.5891 0.013
70.6193 0.065
70.6496 0.064
70.6799 0.012
70.7102 -0.093
70.7405 -0.301
70.7707 0.012
70.8010 -0.196
70.8313 -0.040
70.8616 -0.143
70.8918 0.014
70.9221 -0.141
70.9524 0.172
70.9827 0.486
71.0130 0.019
71.0432 -0.136
71.0735 -0.238
71.1038 -0.186
71.1341 -0.082
71.1644 0.075
71.1946 -0.029
71.2249 0.024
71.2552 -0.131
71.2855 -0.182
71.3157 0.236
71.3460 -0.232
71.3763 -0.074
71.4066 -0.020
71.4369 -0.018
71.4671 0.192
71.4974 0.038
71.5277 0.092
71.5580 0.043
71.5883 0.202
71.6185 -0.004
71.6488 -0.105
71.6791 -0.050
71.7094 0.005
71.7396 -0.356
71.7699 -0.100
71.8002 -0.104
71.8305 0.047
71.8608 -0.113
71.8910 -0.065
71.9213 -0.277
71.9516 0.084
71.9819 -0.128
72.0122 0.025
72.0424 0.074
72.0727 0.123
72.1030 0.276
72.1333 -0.039
72.1635 0.219
72.1938 -0.461
72.2241 0.266
72.2544 0.003
72.2847 0.054
72.3149 0.468
72.3452 0.311
72.3755 -0.055
72.4058 0.256
72.4361 -0.006
72.4663 0.462
72.4966 0.096
72.5269 0.200
72.5572 -0.165
72.5874 0.407
72.6177 0.095
72.6480 0.043
72.6783 0.095
72.7086 0.512
72.7388 -0.373
72.7691 -0.008
72.7994 -0.059
72.8297 0.098
72.8600 -0.110
72.8902 -0.108
72.9205 0.101
72.9508 -0.105
72.9811 -0.052
73.0113 -0.154
73.0416 0.265
73.0719 -0.046
73.1022 0.009
73.1325 0.220
73.1627 0.066
73.1930 -0.035
73.2233 0.020
73.2536 0.075
73.2839 -0.078
73.3141 -0.075
73.3444 -0.383
73.3747 -0.015
73.4050 -0.218
73.4353 -0.110
73.4655 -0.001
73.4958 0.004
73.5261 0.009
73.5564 -0.090
73.5866 0.176
73.6169 0.234
73.6472 -0.021
73.6775 -0.015
73.7078 -0.009
73.7380 0.049
73.7683 0.160
73.7986 0.010
73.8289 -0.035
73.8592 -0.028
73.8894 0.239
73.9197 0.090
73.9500 0.097
73.9803 -0.156
74.0105 -0.044
74.0408 -0.244
74.0711 -0.032
74.1014 -0.028
74.1317 0.184
74.1619 -0.072
74.1922 -0.068
74.2225 -0.011
74.2528 -0.058
74.2831 -0.158
74.3133 0.004
74.3436 -0.199
74.3739 -0.310
74.4042 0.153
74.4344 -0.269
74.4647 0.246
74.4950 -0.176
74.5253 0.079
74.5556 0.126
74.5858 0.329
74.6161 -0.040
74.6464 0.059
74.6767 0.159
74.7070 -0.053
74.7372 0.047
74.7675 0.043
74.7978 0.143
74.8281 0.295
74.8583 0.136
74.8886 -0.128
74.9189 0.285
74.9492 -0.030
74.9795 -0.085
75.0097 -0.088
75.0400 0.066
75.0703 0.115
75.1006 -0.252
75.1309 0.319
75.1611 -0.204
75.1914 -0.049
75.2217 0.053
75.2520 0.052
75.2822 0.103
75.3125 -0.107
75.3428 -0.108
75.3731 0.152
75.4034 -0.057
75.4336 -0.214
75.4639 0.098
75.4942 0.046
75.5245 0.202
75.5548 -0.214
75.5850 0.046
75.6153 -0.005
75.6456 -0.057
75.6759 -0.421
75.7061 0.049
75.7364 -0.106
75.7667 0.260
75.7970 0.105
75.8273 -0.310
75.8575 0.212
75.8878 0.266
75.9181 0.268
75.9484 -0.042
75.9787 -0.300
76.0089 -0.045
76.0392 0.055
76.0695 0.102
76.0998 0.202
76.1301 0.198
76.1603 0.142
76.1906 -0.019
76.2209 0.238
76.2512 0.234
76.2814 0.231
76.3117 0.228
76.3420 0.016
76.3723 -0.299
76.4026 0.062
76.4328 0.528
76.4631 0.057
76.4934 0.003
76.5237 0.157
76.5540 0.155
76.5842 0.465
76.6145 0.099
76.6448 -0.007
76.6751 0.252
76.7053 0.095
76.7356 0.354
76.7659 0.613
76.7962 0.248
76.8265 0.404
76.8567 -0.013
76.8870 0.299
76.9173 0.142
76.9476 -0.014
76.9779 0.143
77.0081 0.143
77.0384 0.091
77.0687 -0.064
77.0990 0.093
77.1292 0.042
77.1595 0.407
77.1898 0.096
77.2201 0.150
77.2504 0.099
77.2806 0.049
77.3109 -0.105
77.3412 0.053
77.3715 -0.309
77.4018 0.006
77.4320 0.164
77.4623 0.167
77.4926 0.170
77.5229 0.121
77.5531 -0.084
77.5834 0.284
77.6137 -0.286
77.6440 -0.178
77.6743 -0.226
77.7045 -0.068
77.7348 0.194
77.7651 0.039
77.7954 -0.168
77.8257 0.095
77.8559 -0.267
77.8862 -0.005
77.9165 0.050
77.9468 -0.104
77.9770 0.055
78.0073 -0.202
78.0376 -0.043
78.0679 0.065
78.0982 0.120
78.1284 0.072
78.1587 0.023
78.1890 -0.025
78.2193 0.188
78.2496 -0.016
78.2798 -0.377
78.3101 -0.066
78.3404 0.194
78.3707 -0.016
78.4009 0.035
78.4312 -0.070
78.4615 0.033
78.4918 0.241
78.5221 -0.124
78.5523 0.136
78.5826 0.032
78.6129 -0.020
78.6432 -0.020
78.6735 0.137
78.7037 0.086
78.7340 0.243
78.7643 0.087
78.7946 0.088
78.8248 -0.015
78.8551 0.091
78.8854 -0.220
78.9157 -0.167
78.9460 0.147
78.9762 0.097
79.0065 0.099
79.0368 -0.159
79.0671 -0.001
79.0974 -0.103
79.1276 0.160
79.1579 0.007
79.1882 0.062
79.2185 -0.144
79.2488 -0.036
79.2790 0.227
79.3093 0.231
79.3396 0.287
79.3699 0.447
79.4001 0.086
79.4304 -0.118
79.4607 0.094
79.4910 -0.005
79.5213 0.156
79.5515 -0.204
79.5818 -0.199
79.6121 0.059
79.6424 -0.098
79.6727 0.005
79.7029 0.160
79.7332 0.159
79.7635 0.367
79.7938 0.001
79.8240 0.157
79.8543 0.105
79.8846 -0.051
79.9149 0.261
79.9452 0.209
79.9754 0.157
80.0057 0.210
80.0360 -0.050
80.0663 0.160
80.0966 0.317
80.1268 0.266
80.1571 0.007
80.1874 0.269
80.2177 0.062
80.2479 0.376
80.2782 0.326
80.3085 0.380
80.3388 0.070
80.3691 0.229
80.3993 0.075
80.4296 0.130
80.4599 0.289
80.4902 0.136
80.5205 0.035
80.5507 0.090
80.5810 0.406
80.6113 0.202
80.6416 0.101
80.6718 0.001
80.7021 0.214
80.7324 0.062
80.7627 0.223
80.7930 -0.085
80.8232 -0.185
80.8535 -0.087
80.8838 0.272
80.9141 0.110
80.9444 0.104
80.9746 0.046
81.0049 0.145
81.0352 0.192
81.0655 0.291
81.0957 0.130
81.1260 0.177
81.1563 0.433
81.1866 0.220
81.2169 0.684
81.2471 0.368
81.2774 0.155
81.3077 0.360
81.3380 0.148
81.3683 0.144
81.3985 0.505
81.4288 0.346
81.4591 0.186
81.4894 -0.233
81.5196 0.077
81.5499 0.595
81.5802 0.176
81.6105 -0.139
81.6408 0.067
81.6710 0.117
81.7013 0.011
81.7316 0.062
81.7619 0.165
81.7922 0.215
81.8224 0.318
81.8527 0.630
81.8830 0.681
81.9133 0.055
81.9436 0.524
81.9738 -0.362
82.0041 -0.050
82.0344 0.054
82.0647 0.211
82.0949 0.055
82.1252 0.003
82.1555 0.160
82.1858 -0.256
82.2161 0.057
82.2463 0.111
82.2766 -0.097
82.3069 0.374
82.3372 -0.198
82.3675 0.116
82.3977 0.118
82.4280 -0.036
82.4583 -0.086
82.4886 -0.240
82.5188 0.127
82.5491 -0.078
82.5794 -0.128
82.6097 -0.073
82.6400 0.191
82.6702 0.142
82.7005 -0.011
82.7308 0.201
82.7611 -0.264
82.7914 0.105
82.8216 0.109
82.8519 -0.199
82.8822 -0.198
82.9125 -0.196
82.9427 -0.039
82.9730 0.015
83.0033 -0.191
83.0336 0.124
83.0639 0.126
83.0941 0.077
83.1244 0.131
83.1547 0.186
83.1850 -0.019
83.2153 0.036
83.2455 0.300
83.2758 -0.165
83.3061 -0.006
83.3364 -0.106
83.3666 0.106
83.3969 0.214
83.4272 -0.094
83.4575 0.275
83.4878 -0.189
83.5180 0.024
83.5483 0.341
83.5786 -0.174
83.6089 0.039
83.6392 0.253
83.6694 0.050
83.6997 -0.048
83.7300 0.426
83.7603 0.120
83.7905 -0.082
83.8208 -0.232
83.8511 0.021
83.8814 0.222
83.9117 0.423
83.9419 -0.052
83.9722 0.046
84.0025 0.195
84.0328 -0.019
84.0631 0.235
84.0933 -0.031
84.1236 0.015
84.1539 -0.043
84.1842 -0.100
84.2144 0.103
84.2447 -0.007
84.2750 -0.064
84.3053 0.192
84.3356 -0.073
84.3658 -0.234
84.3961 0.178
84.4264 0.174
84.4567 0.066
84.4870 0.166
84.5172 0.058
84.5475 -0.102
84.5778 0.103
84.6081 -0.004
84.6383 0.097
84.6686 -0.115
84.6989 0.351
84.7292 -0.068
84.7595 0.086
84.7897 -0.177
84.8200 0.029
84.8503 -0.077
84.8806 -0.079
84.9109 -0.184
84.9411 0.127
84.9714 0.125
85.0017 -0.136
85.0320 0.383
85.0623 0.278
85.0925 -0.139
85.1228 -0.140
85.1531 -0.140
85.1834 -0.192
85.2136 -0.088
85.2439 -0.297
85.2742 0.013
85.3045 0.427
85.3348 -0.044
85.3650 0.058
85.3953 -0.256
85.4256 0.106
85.4559 -0.156
85.4862 -0.001
85.5164 -0.003
85.5467 0.048
85.5770 0.047
85.6073 -0.058
85.6375 -0.007
85.6678 -0.059
85.6981 0.253
85.7284 -0.008
85.7587 0.096
85.7889 -0.112
85.8192 0.200
85.8495 -0.008
85.8798 -0.163
85.9101 -0.163
85.9403 0.046
85.9706 -0.213
86.0009 -0.160
86.0312 -0.003
86.0614 0.050
86.0917 -0.001
86.1220 0.156
86.1523 -0.155
86.1826 -0.049
86.2128 -0.152
86.2431 0.215
86.2734 0.113
86.3037 0.063
86.3340 -0.143
86.3642 -0.141
86.3945 -0.138
86.4248 -0.135
86.4551 -0.080
86.4853 0.027
86.5156 -0.021
86.5459 -0.122
86.5762 -0.014
86.6065 -0.167
86.6367 -0.163
86.6670 -0.002
86.6973 0.106
86.7276 -0.202
86.7579 0.011
86.7881 0.016
86.8184 0.281
86.8487 0.026
86.8790 -0.073
86.9092 0.036
86.9395 -0.010
86.9698 -0.265
87.0001 -0.056
87.0304 0.257
87.0606 0.205
87.0909 -0.003
87.1212 0.467
87.1515 -0.209
87.1818 0.105
87.2120 0.054
87.2423 0.107
87.2726 0.161
87.3029 -0.150
87.3331 -0.043
87.3634 -0.041
87.3937 0.221
87.4240 0.432
87.4543 0.122
87.4845 -0.031
87.5148 -0.237
87.5451 -0.035
87.5754 0.428
87.6057 0.214
87.6359 0.156
87.6662 0.358
87.6965 0.040
87.7268 -0.069
87.7571 0.499
87.7873 0.285
87.8176 0.020
87.8479 0.432
87.8782 -0.093
87.9084 0.111
87.9387 -0.310
87.9690 0.363
87.9993 0.046
88.0296 -0.166
88.0598 0.091
88.0901 0.244
88.1204 -0.124
88.1507 -0.179
88.1810 -0.391
88.2112 0.180
88.2415 0.021
88.2718 0.070
88.3021 -0.244
88.3323 -0.149
88.3626 0.312
88.3929 0.043
88.4232 0.088
88.4535 -0.024
88.4837 -0.032
88.5140 0.221
88.5443 -0.307
88.5746 0.051
88.6049 0.356
88.6351 0.037
88.6654 0.239
88.6957 0.180
88.7260 0.226
88.7562 -0.197
88.7865 0.110
88.8168 0.104
88.8471 0.567
88.8774 0.041
88.9076 -0.069
88.9379 0.187
88.9682 0.182
88.9985 -0.136
89.0288 -0.036
89.0590 0.220
89.0893 0.319
89.1196 0.367
89.1499 0.415
89.1801 0.359
89.2104 0.303
89.2407 0.664
89.2710 -0.068
89.3013 0.606
89.3315 0.498
89.3618 0.548
89.3921 0.180
89.4224 0.490
89.4527 0.383
89.4829 0.381
89.5132 0.483
89.5435 0.689
89.5738 0.011
89.6040 0.426
89.6343 0.737
89.6646 0.371
89.6949 0.786
89.7252 0.368
89.7554 0.472
89.7857 -0.102
89.8160 0.366
89.8463 0.366
89.8766 0.730
89.9068 -0.103
89.9371 0.105
89.9674 0.210
89.9977 0.002
90.0279 0.106
90.0582 -0.414
90.0885 0.160
90.1188 -0.099
90.1491 0.006
90.1793 0.059
90.2096 0.061
90.2399 -0.250
90.2702 -0.248
90.3005 -0.142
90.3307 -0.035
90.3610 -0.397
90.3913 0.439
90.4216 -0.496
90.4518 -0.128
90.4821 -0.073
90.5124 -0.174
90.5427 0.038
90.5730 0.146
90.6032 0.097
90.6335 -0.159
90.6638 -0.155
90.6941 -0.255
90.7244 0.063
90.7546 -0.036
90.7849 -0.030
90.8152 0.028
90.8455 -0.123
90.8758 -0.169
90.9060 0.254
90.9363 0.000
90.9666 0.111
90.9969 -0.195
91.0271 -0.032
91.0574 0.079
91.0877 0.034
91.1180 0.146
91.1483 -0.055
91.1785 0.005
91.2088 -0.352
91.2391 0.072
91.2694 -0.024
91.2997 -0.172
91.3299 -0.059
91.3602 -0.207
91.3905 0.115
91.4208 -0.137
91.4510 0.185
91.4813 0.298
91.5116 0.360
91.5419 -0.048
91.5722 0.118
91.6024 -0.028
91.6327 0.190
91.6630 -0.060
91.6933 0.263
91.7236 0.065
91.7538 -0.185
91.7841 -0.139
91.8144 0.323
91.8447 0.213
91.8749 0.311
91.9052 0.201
91.9355 -0.065
91.9658 0.190
91.9961 0.237
92.0263 0.284
92.0566 0.174
92.0869 -0.195
92.1172 0.269
92.1475 0.056
92.1777 0.260
92.2080 0.047
92.2383 0.147
92.2686 0.039
92.2988 -0.121
92.3291 0.084
92.3594 0.237
92.3897 -0.131
92.4200 0.126
92.4502 0.123
92.4805 0.589
92.5108 0.170
92.5411 0.115
92.5714 0.113
92.6016 0.371
92.6319 0.005
92.6622 0.003
92.6925 0.157
92.7227 -0.053
92.7530 -0.054
92.7833 -0.055
92.8136 -0.004
92.8439 0.099
92.8741 0.098
92.9044 0.046
92.9347 0.305
92.9650 0.097
92.9953 0.201
93.0255 -0.007
93.0558 0.149
93.0861 0.306
93.1164 -0.006
93.1466 -0.162
93.1769 -0.213
93.2072 -0.012
93.2375 -0.018
93.2678 0.392
93.2980 0.021
93.3283 0.014
93.3586 0.164
93.3889 0.158
93.4192 0.049
93.4494 -0.009
93.4797 -0.119
93.5100 0.136
93.5403 0.183
93.5706 0.126
93.6008 -0.139
93.6311 -0.092
93.6614 0.008
93.6917 0.003
93.7219 -0.001
93.7522 0.047
93.7825 0.304
93.8128 0.144
93.8431 -0.016
93.8733 -0.176
93.9036 -0.023
93.9339 -0.286
93.9642 0.128
93.9945 0.021
94.0247 -0.295
94.0550 0.016
94.0853 0.274
94.1156 -0.145
94.1458 0.061
94.1761 -0.045
94.2064 -0.255
94.2367 -0.050
94.2670 -0.053
94.2972 0.465
94.3275 -0.006
94.3578 0.148
94.3881 -0.063
94.4184 -0.013
94.4486 -0.119
94.4789 0.035
94.5092 0.085
94.5395 -0.073
94.5697 -0.074
94.6000 0.029
94.6303 0.132
94.6606 -0.129
94.6909 -0.339
94.7211 0.286
94.7514 -0.131
94.7817 0.337
94.8120 0.077
94.8423 -0.236
94.8725 0.337
94.9028 0.129
94.9331 0.390
94.9634 0.599
94.9936 0.444
95.0239 0.445
95.0542 0.446
95.0845 -0.074
95.1148 0.240
95.1450 0.450
95.1753 0.295
95.2056 0.506
95.2359 0.299
95.2662 0.354
95.2964 0.617
95.3267 0.098
95.3570 0.257
95.3873 0.312
95.4175 0.367
95.4478 0.423
95.4781 0.166
95.5084 0.586
95.5387 0.433
95.5689 0.593
95.5992 0.337
95.6295 0.237
95.6598 0.501
95.6901 0.298
95.7203 0.667
95.7506 -0.006
95.7809 0.156
95.8112 0.317
95.8414 0.270
95.8717 0.223
95.9020 0.385
95.9323 0.235
95.9626 -0.124
95.9928 0.038
96.0231 0.149
96.0534 -0.157
96.0837 0.370
96.1140 0.064
96.1442 -0.137
96.1745 -0.026
96.2048 0.293
96.2351 0.092
96.2653 0.256
96.2956 0.055
96.3259 0.584
96.3562 0.019
96.3865 -0.129
96.4167 -0.069
96.4470 -0.217
96.4773 -0.016
96.5076 0.028
96.5379 -0.189
96.5681 -0.144
96.5984 0.108
96.6287 0.309
96.6590 -0.011
96.6893 -0.070
96.7195 -0.181
96.7498 0.594
96.7801 -0.246
96.8104 0.060
96.8406 0.105
96.8709 -0.161
96.9012 0.249
96.9315 -0.329
96.9618 -0.231
96.9920 0.388
97.0223 0.071
97.0526 0.013
97.0829 0.164
97.1132 -0.153
97.1434 0.051
97.1737 -0.006
97.2040 -0.063
97.2343 -0.067
97.2645 -0.383
97.2948 -0.026
97.3251 -0.032
97.3554 0.222
97.3857 -0.254
97.4159 0.313
97.4462 0.203
97.4765 -0.167
97.5068 0.087
97.5371 -0.075
97.5673 0.024
97.5976 -0.189
97.6279 -0.038
97.6582 0.113
97.6884 0.056
97.7187 0.000
97.7490 -0.213
97.7793 0.043
97.8096 -0.222
97.8398 0.399
97.8701 -0.177
97.9004 -0.181
97.9307 -0.237
97.9610 0.125
97.9912 -0.139
98.0215 0.118
98.0518 -0.093
98.0821 -0.095
98.1123 0.058
98.1426 0.264
98.1729 0.002
98.2032 0.208
98.2335 0.206
98.2637 0.100
98.2940 0.255
98.3243 -0.111
98.3546 0.252
98.3849 -0.062
98.4151 -0.167
98.4454 0.197
98.4757 -0.116
98.5060 -0.169
98.5362 0.404
98.5665 0.247
98.5968 0.195
98.6271 0.091
98.6574 0.040
98.6876 0.040
98.7179 -0.011
98.7482 0.146
98.7785 -0.114
98.8088 0.044
98.8390 -0.164
98.8693 0.098
98.8996 0.256
98.9299 -0.055
98.9601 -0.261
98.9904 -0.206
99.0207 0.213
99.0510 0.060
99.0813 -0.145
99.1115 0.015
99.1418 0.018
99.1721 -0.186
99.2024 -0.130
99.2327 -0.439
99.2629 0.190
99.2932 -0.066
99.3235 -0.217
99.3538 -0.057
99.3841 -0.104
99.4143 0.005
99.4446 0.115
99.4749 -0.036
99.5052 -0.239
99.5354 0.079
99.5657 -0.228
99.5960 -0.118
99.6263 -0.164
99.6566 -0.105
99.6868 0.005
99.7171 0.064
99.7474 -0.033
99.7777 -0.027
99.8080 -0.124
99.8382 -0.064
99.8685 0.047
99.8988 -0.206
99.9291 0.114
99.9593 0.174
99.9896 -0.391
100.0199 -0.226
100.0502 0.196
100.0805 -0.006
100.1107 0.261
100.1410 0.007
100.1713 0.118
100.2016 -0.136
100.2319 -0.025
100.2621 0.138
100.2924 -0.063
100.3227 0.361
100.3530 -0.048
100.3832 0.116
100.4135 -0.033
100.4438 0.079
100.4741 0.036
100.5044 -0.269
100.5346 -0.118
100.5649 -0.018
100.5952 0.289
100.6255 0.076
100.6558 0.176
100.6860 0.016
100.7163 0.220
100.7466 0.164
100.7769 -0.153
100.8071 0.469
100.8374 -0.004
100.8677 0.149
100.8980 -0.114
100.9283 -0.065
100.9585 0.140
100.9888 0.137
101.0191 0.187
101.0494 0.132
101.0797 0.182
101.1099 -0.184
101.1402 -0.030
101.1705 0.333
101.2008 0.123
101.2310 0.538
101.2613 0.120
101.2916 -0.141
101.3219 0.014
101.3522 -0.091
101.3824 -0.248
101.4127 0.006
101.4430 0.000
101.4733 -0.005
101.5036 -0.375
101.5338 0.088
101.5641 0.083
101.5944 -0.026
101.6247 -0.344
101.6549 0.016
101.6852 0.220
101.7155 0.111
101.7458 0.055
101.7761 -0.314
101.8063 -0.005
101.8366 0.147
101.8669 0.040
101.8972 -0.068
101.9275 0.241
101.9577 -0.075
101.9880 0.339
102.0183 -0.080
102.0486 -0.187
102.0788 0.123
102.1091 0.016
102.1394 0.014
102.1697 -0.196
102.2000 -0.198
102.2302 0.009
102.2605 -0.201
102.2908 -0.255
102.3211 0.103
102.3514 0.356
102.3816 0.349
102.4119 -0.283
102.4422 0.075
102.4725 0.329
102.5028 0.011
102.5330 -0.048
102.5633 -0.210
102.5936 -0.059
102.6239 0.039
102.6541 0.034
102.6844 -0.180
102.7147 0.232
102.7450 0.279
102.7753 0.118
102.8055 -0.252
102.8358 0.161
102.8661 -0.052
102.8964 0.048
102.9267 0.200
102.9569 0.353
102.9872 0.453
103.0175 -0.124
103.0478 0.029
103.0780 0.026
103.1083 -0.185
103.1386 0.124
103.1689 -0.347
103.1992 -0.141
103.2294 0.221
103.2597 0.062
103.2900 0.112
103.3203 0.318
103.3506 0.317
103.3808 0.159
103.4111 -0.103
103.4414 -0.052
103.4717 -0.054
103.5019 -0.211
103.5322 -0.108
103.5625 -0.004
103.5928 0.152
103.6231 0.464
103.6533 0.151
103.6836 0.359
103.7139 -0.057
103.7442 -0.317
103.7745 0.308
103.8047 0.465
103.8350 0.101
103.8653 0.310
103.8956 0.311
103.9258 0.260
103.9561 0.158
103.9864 0.524
104.0167 0.421
104.0470 0.319
104.0772 0.373
104.1075 -0.094
104.1378 -0.091
104.1681 0.588
104.1984 0.643
104.2286 -0.031
104.2589 0.388
104.2892 0.496
104.3195 -0.126
104.3497 -0.018
104.3800 -0.067
104.4103 -0.063
104.4406 -0.111
104.4709 0.309
104.5011 -0.259
104.5314 0.110
104.5617 0.114
104.5920 0.067
104.6223 -0.189
104.6525 -0.027
104.6828 -0.126
104.7131 -0.017
104.7434 -0.063
104.7736 0.203
104.8039 0.104
104.8342 0.006
104.8645 0.325
104.8948 -0.034
104.9250 -0.392
104.9553 0.240
104.9856 0.090
105.0159 0.358
105.0462 0.209
105.0764 -0.045
105.1067 -0.141
105.1370 0.127
105.1673 -0.022
105.1975 0.246
105.2278 -0.006
105.2581 0.054
105.2884 0.167
105.3187 -0.189
105.3489 0.132
105.3792 -0.432
105.4095 -0.223
105.4398 0.143
105.4701 0.145
105.5003 -0.010
105.5306 -0.060
105.5609 0.046
105.5912 -0.056
105.6215 0.051
105.6517 0.366
105.6820 -0.204
105.7123 0.007
105.7426 0.166
105.7728 0.273
105.8031 0.381
105.8334 -0.032
105.8637 -0.081
105.8940 -0.025
105.9242 0.031
105.9545 0.243
105.9848 -0.065
106.0151 0.252
106.0454 0.361
106.0756 0.105
106.1059 0.110
106.1362 -0.041
106.1665 -0.297
106.1967 -0.039
106.2270 0.219
106.2573 -0.043
106.2876 0.267
106.3179 -0.256
106.3481 0.212
106.3784 -0.259
106.4087 -0.052
106.4390 0.103
106.4693 0.258
106.4995 -0.055
106.5298 0.257
106.5601 -0.004
106.5904 -0.005
106.6206 0.307
106.6509 0.411
106.6812 0.151
106.7115 -0.109
106.7418 -0.213
106.7720 -0.062
106.8023 -0.224
106.8326 0.031
106.8629 -0.078
106.8932 0.178
106.9234 0.225
106.9537 -0.092
106.9840 0.216
107.0143 0.056
107.0445 0.156
107.0748 -0.369
107.1051 0.252
107.1354 -0.168
107.1657 0.454
107.1959 -0.175
107.2262 0.187
107.2565 -0.024
107.2868 -0.027
107.3171 0.022
107.3473 -0.032
107.3776 -0.139
107.4079 0.172
107.4382 0.170
107.4684 0.064
107.4987 0.114
107.5290 0.165
107.5593 -0.045
107.5896 0.162
107.6198 0.005
107.6501 0.160
107.6804 0.212
107.7107 0.159
107.7410 -0.050
107.7712 -0.102
107.8015 0.054
107.8318 -0.102
107.8621 0.054
107.8923 0.159
107.9226 -0.517
107.9529 -0.048
107.9832 -0.099
108.0135 0.006
108.0437 -0.045
108.0740 -0.148
108.1043 0.010
108.1346 0.064
108.1649 0.378
108.1951 0.172
108.2254 0.070
108.2557 0.176
108.2860 0.022
108.3163 0.077
108.3465 0.184
108.3768 0.187
108.4071 -0.122
108.4374 -0.119
108.4676 -0.012
108.4979 0.044
108.5282 0.256
108.5585 -0.052
108.5888 -0.205
108.6190 0.008
108.6493 0.012
108.6796 -0.348
108.7099 0.021
108.7402 0.339
108.7704 0.240
108.8007 0.245
108.8310 -0.323
108.8613 -0.213
108.8915 -0.011
108.9218 -0.277
108.9521 -0.022
108.9824 0.285
109.0127 0.019
109.0429 0.066
109.0732 0.426
109.1035 0.369
109.1338 0.104
109.1641 0.047
109.1943 0.251
109.2246 -0.066
109.2549 -0.226
109.2852 -0.285
109.3154 0.178
109.3457 -0.193
109.3760 0.478
109.4063 0.107
109.4366 -0.315
109.4668 0.408
109.4971 -0.118
109.5274 0.137
109.5577 -0.233
109.5880 0.335
109.6182 0.591
109.6485 0.013
109.6788 0.321
109.7091 0.317
109.7393 -0.208
109.7696 0.309
109.7999 -0.112
109.8302 -0.220
109.8605 0.193
109.8907 -0.070
109.9210 -0.230
109.9513 0.079
109.9816 -0.184
110.0119 0.282
110.0421 0.279
110.0724 -0.088
110.1027 0.014
110.1330 0.116
110.1632 0.166
110.1935 0.321
110.2238 0.267
110.2541 0.526
110.2844 0.160
110.3146 0.003
110.3449 0.106
110.3752 -0.103
110.4055 0.208
110.4358 0.104
110.4660 0.051
110.4963 0.311
110.5266 0.103
110.5569 0.259
110.5871 -0.157
110.6174 0.208
110.6477 0.052
110.6780 -0.520
110.7083 -0.050
110.7385 0.107
110.7688 0.160
110.7991 0.162
110.8294 0.163
110.8597 -0.148
110.8899 -0.250
110.9202 -0.247
110.9505 0.277
110.9808 0.020
111.0110 -0.132
111.0413 -0.337
111.0716 0.136
111.1019 -0.277
111.1322 0.092
111.1624 0.201
111.1927 0.101
111.2230 -0.155
111.2533 -0.046
111.2836 -0.249
111.3138 0.017
111.3441 0.074
111.3744 -0.129
111.4047 0.242
111.4350 0.560
111.4652 0.045
111.4955 -0.209
111.5258 0.006
111.5561 -0.092
111.5863 -0.242
111.6166 0.130
111.6469 0.032
111.6772 -0.013
111.7075 -0.057
111.7377 0.054
111.7680 -0.355
111.7983 0.278
111.8286 0.025
111.8589 -0.019
111.8891 0.042
111.9194 0.258
111.9497 0.267
111.9800 0.119
112.0102 0.441
112.0405 0.346
112.0708 0.303
112.1011 -0.209
112.1314 -0.199
112.1616 -0.102
112.1919 0.153
112.2222 0.303
112.2525 0.245
112.2828 0.187
112.3130 0.389
112.3433 0.072
112.3736 0.327
112.4039 0.061
112.4341 0.160
112.4644 -0.053
112.4947 0.151
112.5250 -0.218
112.5553 -0.014
112.5855 -0.071
112.6158 -0.231
112.6461 0.338
112.6764 0.439
112.7067 0.175
112.7369 0.171
112.7672 0.168
112.7975 -0.200
112.8278 0.058
112.8580 0.055
112.8883 0.104
112.9186 0.050
112.9489 -0.161
112.9792 -0.163
113.0094 -0.061
113.0397 -0.062
113.0700 0.040
113.1003 -0.170
113.1306 0.141
113.1608 -0.016
113.1911 0.035
113.2214 0.138
113.2517 -0.175
113.2819 0.085
113.3122 0.189
113.3425 -0.124
113.3728 -0.124
113.4031 0.241
113.4333 0.085
113.4636 -0.071
113.4939 0.034
113.5242 -0.226
113.5545 -0.280
113.5847 0.344
113.6150 0.187
113.6453 -0.231
113.6756 -0.076
113.7058 -0.077
113.7361 -0.129
113.7664 -0.130
113.7967 -0.130
113.8270 0.078
113.8572 0.026
113.8875 0.079
113.9178 0.131
113.9481 0.184
113.9784 0.028
114.0086 -0.075
114.0389 0.291
114.0692 -0.333
114.0995 -0.071
114.1298 -0.226
114.1600 -0.078
114.1903 -0.085
114.2206 -0.249
114.2509 0.369
114.2811 0.154
114.3114 0.094
114.3417 -0.381
114.3720 0.081
114.4023 0.075
114.4325 -0.088
114.4628 -0.042
114.4931 0.317
114.5234 -0.054
114.5537 0.045
114.5839 0.195
114.6142 -0.227
114.6445 -0.075
114.6748 -0.081
114.7050 0.227
114.7353 0.014
114.7656 -0.043
114.7959 -0.099
114.8262 -0.207
114.8564 0.205
114.8867 0.410
114.9170 -0.167
114.9473 0.194
114.9776 0.399
115.0078 -0.177
115.0381 -0.076
115.0684 -0.184
115.0987 0.126
115.1289 -0.241
115.1592 -0.087
115.1895 -0.194
115.2198 -0.040
115.2501 0.219
115.2803 -0.200
115.3106 -0.202
115.3409 0.161
115.3712 0.212
115.4015 -0.049
115.4317 0.158
115.4620 0.157
115.4923 -0.104
115.5226 -0.261
115.5528 -0.058
115.5831 -0.271
115.6134 0.193
115.6437 0.136
115.6740 0.288
115.7042 0.232
115.7345 0.644
115.7648 0.484
115.7951 0.220
115.8254 0.476
115.8556 0.212
115.8859 0.157
115.9162 0.362
115.9465 0.307
115.9767 0.356
116.0070 0.770
116.0373 0.664
116.0676 0.817
116.0979 0.503
116.1281 0.292
116.1584 0.447
116.1887 0.497
116.2190 0.756
116.2493 0.338
116.2795 0.284
116.3098 -0.186
116.3401 -0.291
116.3704 0.333
116.4006 -0.032
116.4309 0.905
116.4612 0.488
116.4915 -0.137
116.5218 0.071
116.5520 0.332
116.5823 0.280
116.6126 0.541
116.6429 -0.083
116.6732 0.126
116.7034 0.127
116.7337 -0.028
116.7640 0.702
116.7943 0.339
116.8245 0.028
116.8548 0.134
116.8851 -0.073
116.9154 -0.175
116.9457 0.244
116.9759 -0.326
117.0062 -0.272
117.0365 0.199
117.0668 0.045
117.0971 0.204
117.1273 0.154
117.1576 -0.312
117.1879 0.056
117.2182 -0.045
117.2485 0.219
117.2787 0.222
117.3090 -0.399
117.3393 -0.187
117.3696 0.337
117.3998 0.133
117.4301 -0.279
117.4604 0.142
117.4907 0.146
117.5210 -0.214
117.5512 -0.261
117.5815 0.001
117.6118 -0.415
117.6421 0.107
117.6724 0.370
117.7026 -0.254
117.7329 -0.095
117.7632 0.167
117.7935 0.065
117.8237 -0.037
117.8540 0.279
117.8843 -0.187
117.9146 -0.132
117.9449 -0.286
117.9751 0.030
118.0054 -0.382
118.0357 -0.014
118.0660 0.146
118.0963 0.046
118.1265 -0.210
118.1568 -0.153
118.1871 0.216
118.2174 0.013
118.2476 -0.138
118.2779 -0.133
118.3082 -0.128
118.3385 0.190
118.3688 -0.117
118.3990 -0.111
118.4293 0.051
118.4596 -0.307
118.4899 0.116
118.5202 0.070
118.5504 0.025
118.5807 0.136
118.6110 0.247
118.6413 0.098
118.6715 -0.260
118.7018 -0.148
118.7321 0.172
118.7624 0.336
118.7927 0.031
118.8229 0.404
118.8532 -0.005
118.8835 0.056
118.9138 -0.352
118.9441 -0.147
118.9743 0.214
119.0046 -0.258
119.0349 0.208
119.0652 0.101
119.0954 0.411
119.1257 0.409
119.1560 -0.010
119.1863 -0.065
119.2166 0.194
119.2468 -0.068
119.2771 0.086
119.3074 0.137
119.3377 0.083
119.3680 0.186
119.3982 -0.075
119.4285 0.132
119.4588 0.392
119.4891 0.027
119.5193 0.027
119.5496 0.443
119.5799 -0.026
119.6102 -0.026
119.6405 0.079
119.6707 0.392
119.7010 -0.181
119.7313 0.132
119.7616 -0.179
119.7919 0.134
119.8221 0.344
119.8524 0.033
119.8827 -0.226
119.9130 -0.238
119.9433 -0.083
119.9735 -0.292
120.0038 0.000
