'Id: "" Comment: "" Operator: "Lab Manager" Anode: "Cu" Scantype: "Locked Coupled" TimePerStep: "19.2" X: "9999" Y: "9999" Z: "9999" 
10.0015 0.000
10.0318 -0.702
10.0620 0.080
10.0923 0.654
10.1226 -0.387
10.1529 -0.437
10.1832 0.503
10.2134 -0.433
10.2437 -0.743
10.2740 0.718
10.3043 -0.321
10.3346 0.932
10.3648 -0.627
10.3951 0.158
10.4254 0.526
10.4557 0.322
10.4859 -0.299
10.5162 0.800
10.5465 0.545
10.5768 0.394
10.6071 -0.017
10.6373 0.093
10.6676 1.609
10.6979 1.251
10.7282 0.998
10.7585 0.328
10.7887 1.221
10.8190 1.385
10.8493 0.768
10.8796 1.297
10.9098 3.180
10.9401 3.710
10.9704 4.188
11.0007 5.812
11.0310 6.395
11.0612 6.926
11.0915 8.707
11.1218 8.301
11.1521 6.437
11.1824 5.615
11.2126 5.261
11.2429 2.930
11.2732 3.254
11.3035 1.339
11.3337 1.560
11.3640 0.948
11.3943 0.493
11.4246 0.715
11.4549 0.416
11.4851 -0.611
11.5154 0.653
11.5457 0.355
11.5760 0.370
11.6063 0.490
11.6365 0.454
11.6668 0.365
11.6971 0.590
11.7274 -0.540
11.7577 0.259
11.7879 0.067
11.8182 0.605
11.8485 0.727
11.8788 0.224
11.9090 -0.278
11.9393 -0.624
11.9696 0.315
11.9999 1.254
12.0302 0.058
12.0604 -0.461
12.0907 0.167
12.1210 0.586
12.1513 1.006
12.1816 0.281
12.2118 0.232
12.2421 -0.233
12.2724 -0.384
12.3027 0.922
12.3329 -0.167
12.3632 1.193
12.3935 0.469
12.4238 1.100
12.4541 0.793
12.4843 0.227
12.5146 -0.287
12.5449 0.657
12.5752 0.144
12.6055 0.672
12.6357 0.680
12.6660 0.167
12.6963 0.384
12.7266 -0.024
12.7568 0.818
12.7871 0.567
12.8174 -0.100
12.8477 0.639
12.8780 -0.185
12.9082 -0.122
12.9385 0.097
12.9688 0.369
12.9991 0.380
13.0294 -0.338
13.0596 0.247
13.0899 0.728
13.1202 0.220
13.1505 -0.236
13.1807 -0.379
13.2110 -0.370
13.2413 -0.881
13.2716 0.795
13.3019 -0.184
13.3321 -0.174
13.3624 0.045
13.3927 0.577
13.4230 0.276
13.4533 -0.493
13.4835 -0.065
13.5138 0.104
13.5441 0.845
13.5744 -0.548
13.6046 0.142
13.6349 -1.199
13.6652 0.481
13.6955 -0.025
13.7258 0.093
13.7560 -1.038
13.7863 0.383
13.8166 0.085
13.8469 0.465
13.8772 0.169
13.9074 0.341
13.9377 0.045
13.9680 1.103
13.9983 0.182
14.0285 -0.113
14.0588 0.582
14.0891 0.183
14.1194 -0.476
14.1497 0.167
14.1799 -0.023
14.2102 0.778
14.2405 -0.141
14.2708 0.400
14.3011 -0.466
14.3313 -0.342
14.3616 0.230
14.3919 0.177
14.4222 0.436
14.4524 0.123
14.4827 0.018
14.5130 1.008
14.5433 0.383
14.5736 0.488
14.6038 1.062
14.6341 0.230
14.6644 -0.082
14.6947 0.597
14.7250 0.808
14.7552 -0.023
14.7855 0.969
14.8158 0.242
14.8461 -0.015
14.8764 0.041
14.9066 0.253
14.9369 0.882
14.9672 0.261
14.9975 -0.203
15.0277 0.323
15.0580 0.432
15.0883 -0.187
15.1186 -0.338
15.1489 -0.231
15.1791 0.136
15.2094 0.504
15.2397 0.507
15.2700 -0.166
15.3003 0.671
15.3305 0.571
15.3608 0.159
15.3911 0.059
15.4214 0.481
15.4516 0.591
15.4819 0.284
15.5122 0.394
15.5425 -0.173
15.5728 0.094
15.6030 0.465
15.6333 0.889
15.6636 -0.041
15.6939 0.123
15.7242 0.183
15.7544 -0.329
15.7847 -0.275
15.8150 -0.584
15.8453 0.773
15.8755 -0.005
15.9058 -0.678
15.9361 0.263
15.9664 0.007
15.9967 0.168
16.0269 -0.192
16.0572 0.178
16.0875 0.236
16.1178 -0.175
16.1481 -0.325
16.1783 0.084
16.2086 -0.809
16.2389 0.798
16.2692 0.531
16.2994 0.211
16.3297 0.101
16.3600 0.147
16.3903 0.037
16.4206 0.188
16.4508 0.131
16.4811 0.438
16.5114 -0.191
16.5417 0.742
16.5720 0.321
16.6022 0.734
16.6325 0.522
16.6628 -0.002
16.6931 -0.317
16.7233 0.670
16.7536 0.459
16.7839 0.353
16.8142 0.039
16.8445 -0.014
16.8747 -0.224
16.9050 0.401
16.9353 0.296
16.9656 0.869
16.9959 -0.121
17.0261 0.192
17.0564 0.036
17.0867 -0.119
17.1170 0.143
17.1472 0.561
17.1775 0.146
17.2078 0.617
17.2381 -0.110
17.2684 -0.211
17.2986 0.157
17.3289 -0.517
17.3592 0.268
17.3895 0.115
17.4198 0.640
17.4500 0.489
17.4803 0.702
17.5106 0.290
17.5409 -0.746
17.5712 0.353
17.6014 0.307
17.6317 -0.624
17.6620 -0.097
17.6923 0.223
17.7225 0.542
17.7528 0.289
17.7831 -0.068
17.8134 0.461
17.8437 1.042
17.8739 -0.043
17.9042 1.216
17.9345 -0.025
17.9648 0.141
17.9951 -0.162
18.0253 -0.308
18.0556 -0.454
18.0859 0.494
18.1162 0.297
18.1464 -0.317
18.1767 -0.318
18.2070 0.515
18.2373 0.358
18.2676 0.462
18.2978 -0.058
18.3281 -0.058
18.3584 0.360
18.3887 0.205
18.4190 0.206
18.4492 0.780
18.4795 0.001
18.5098 0.785
18.5401 0.266
18.5703 0.426
18.6006 0.272
18.6309 -0.297
18.6612 0.748
18.6915 0.284
18.7217 0.184
18.7520 0.449
18.7823 -0.640
18.8126 0.042
18.8429 0.516
18.8731 0.678
18.9034 0.007
18.9337 0.274
18.9640 -0.292
18.9942 0.027
19.0245 -0.330
19.0548 0.667
19.0851 0.362
19.1154 -0.463
19.1456 0.587
19.1759 0.075
19.2062 0.084
19.2365 0.666
19.2668 -0.053
19.2970 -0.304
19.3273 -0.155
19.3576 -0.162
19.3879 -0.274
19.4181 0.865
19.4484 0.598
19.4787 0.332
19.5090 -0.351
19.5393 0.060
19.5695 -0.206
19.5998 0.049
19.6301 0.409
19.6604 0.144
19.6907 0.974
19.7209 -0.124
19.7512 0.185
19.7815 -0.131
19.8118 -0.238
19.8420 0.384
19.8723 0.330
19.9026 -0.558
19.9329 -0.143
19.9632 0.585
19.9934 0.636
20.0237 0.270
20.0540 -0.147
20.0843 0.530
20.1146 0.373
20.1448 0.217
20.1751 0.270
20.2054 0.219
20.2357 -0.353
20.2659 0.638
20.2962 0.431
20.3265 0.381
20.3568 0.019
20.3871 0.803
20.4173 -0.236
20.4476 -0.077
20.4779 0.083
20.5082 -0.278
20.5385 -0.222
20.5687 0.408
20.5990 -0.004
20.6293 0.417
20.6596 -0.254
20.6899 -0.197
20.7201 0.278
20.7504 0.336
20.7807 0.551
20.8110 -0.328
20.8412 0.200
20.8715 -0.158
20.9018 -0.202
20.9321 0.431
20.9624 -0.186
20.9926 0.083
21.0229 -0.065
21.0532 0.517
21.0835 0.318
21.1138 -0.297
21.1440 0.129
21.1743 0.296
21.2046 0.150
21.2349 -0.464
21.2651 0.172
21.2954 -0.598
21.3257 -0.134
21.3560 0.748
21.3863 -0.350
21.4165 0.167
21.4468 0.164
21.4771 0.213
21.5074 0.106
21.5377 0.311
21.5679 -0.055
21.5982 0.724
21.6285 0.045
21.6588 -0.477
21.6890 0.199
21.7193 -0.114
21.7496 0.250
21.7799 0.302
21.8102 0.354
21.8404 -0.114
21.8707 0.407
21.9010 -0.269
21.9313 0.514
21.9616 0.307
21.9918 0.205
22.0221 -0.210
22.0524 -0.624
22.0827 0.261
22.1129 -0.104
22.1432 0.364
22.1735 0.104
22.2038 -0.260
22.2341 0.366
22.2643 0.002
22.2946 0.368
22.3249 0.578
22.3552 0.371
22.3855 0.478
22.4157 0.064
22.4460 1.421
22.4763 0.903
22.5066 0.281
22.5368 0.233
22.5671 0.914
22.5974 0.501
22.6277 -0.067
22.6580 0.042
22.6882 -0.526
22.7185 0.209
22.7488 0.527
22.7791 0.689
22.8094 0.539
22.8396 0.285
22.8699 0.396
22.9002 0.404
22.9305 -0.266
22.9607 -0.258
22.9910 0.323
23.0213 -0.033
23.0516 -0.285
23.0819 0.020
23.1121 -0.091
23.1424 0.216
23.1727 -0.468
23.2030 0.256
23.2333 0.302
23.2635 0.297
23.2938 -0.125
23.3241 0.183
23.3544 0.127
23.3846 0.800
23.4149 -0.558
23.4452 0.272
23.4755 0.738
23.5058 0.005
23.5360 0.003
23.5663 0.001
23.5966 1.301
23.6269 -0.524
23.6572 0.100
23.6874 -0.370
23.7177 0.202
23.7480 0.201
23.7783 -0.476
23.8086 0.097
23.8388 0.358
23.8691 0.098
23.8994 0.255
23.9297 0.881
23.9599 0.258
23.9902 -0.157
24.0205 0.470
24.0508 0.421
24.0811 0.059
24.1113 0.322
24.1416 0.377
24.1719 0.329
24.2022 0.020
24.2325 0.337
24.2627 0.394
24.2930 -0.070
24.3233 -0.065
24.3536 0.357
24.3838 0.102
24.4141 0.004
24.4444 -0.407
24.4747 0.329
24.5050 -0.289
24.5352 0.603
24.5655 -0.119
24.5958 0.358
24.6261 0.314
24.6564 0.166
24.6866 0.435
24.7169 0.131
24.7472 0.296
24.7775 0.983
24.8077 -0.205
24.8380 -0.195
24.8683 0.440
24.8986 0.294
24.9289 -0.216
24.9591 -0.152
24.9894 -0.089
25.0197 -0.389
25.0500 0.121
25.0803 0.059
25.1105 0.623
25.1408 -0.220
25.1711 0.188
25.2014 0.283
25.2316 0.118
25.2619 0.683
25.2922 0.206
25.3225 1.084
25.3528 0.452
25.3830 0.185
25.4133 0.542
25.4436 0.172
25.4739 0.061
25.5042 -0.413
25.5344 0.310
25.5647 0.045
25.5950 0.404
25.6253 -0.382
25.6555 0.187
25.6858 0.027
25.7161 0.856
25.7464 0.332
25.7767 0.121
25.8069 0.534
25.8372 0.115
25.8675 0.061
25.8978 0.371
25.9281 -0.308
25.9583 -0.049
25.9886 -0.206
26.0189 0.210
26.0492 0.001
26.0794 0.626
26.1097 -0.208
26.1400 -0.311
26.1703 0.256
26.2006 -0.010
26.2308 0.714
26.2611 0.240
26.2914 -0.077
26.3217 -0.290
26.3520 -0.243
26.3822 0.377
26.4125 0.060
26.4428 0.056
26.4731 0.156
26.5034 -0.213
26.5336 0.461
26.5639 0.562
26.5942 0.351
26.6245 0.140
26.6547 0.085
26.6850 -0.385
26.7153 0.134
26.7456 0.028
26.7759 -0.494
26.8061 0.025
26.8364 1.012
26.8667 0.281
26.8970 -0.189
26.9273 0.331
26.9575 0.121
26.9878 0.537
27.0181 0.277
27.0484 0.797
27.0786 0.277
27.1089 -0.035
27.1392 -0.295
27.1695 0.012
27.1998 -0.097
27.2300 0.366
27.2603 0.622
27.2906 0.253
27.3209 0.093
27.3512 0.453
27.3814 -0.227
27.4117 0.082
27.4420 0.391
27.4723 0.284
27.5025 0.594
27.5328 0.019
27.5631 0.486
27.5934 0.589
27.6237 0.952
27.6539 0.118
27.6842 -0.143
27.7145 0.221
27.7448 0.013
27.7751 -0.091
27.8053 -0.299
27.8356 -0.255
27.8659 -0.107
27.8962 -0.271
27.9264 0.451
27.9567 -0.181
27.9870 0.073
28.0173 0.483
28.0476 0.008
28.0778 0.471
28.1081 0.622
28.1384 -0.529
28.1687 0.716
28.1990 -0.227
28.2292 -0.127
28.2595 0.077
28.2898 -0.239
28.3201 0.435
28.3503 0.327
28.3806 0.064
28.4109 -0.303
28.4412 0.163
28.4715 0.318
28.5017 0.003
28.5320 -0.154
28.5623 0.053
28.5926 -0.156
28.6229 0.416
28.6531 -0.261
28.6834 -0.157
28.7137 0.156
28.7440 0.469
28.7742 0.626
28.8045 -0.311
28.8348 0.160
28.8651 0.109
28.8954 0.320
28.9256 -0.147
28.9559 0.221
28.9862 1.161
29.0165 0.435
29.0468 -0.186
29.0770 0.130
29.1073 0.811
29.1376 0.295
29.1679 0.612
29.1981 0.200
29.2284 0.831
29.2587 0.003
29.2890 -0.304
29.3193 -0.008
29.3495 -0.129
29.3798 -0.094
29.4101 -0.162
29.4404 0.031
29.4707 0.953
29.5009 -0.365
29.5312 0.401
29.5615 1.012
29.5918 0.841
29.6221 0.306
29.6523 0.605
29.6826 0.487
29.7129 0.214
29.7432 0.461
29.7734 0.657
29.8037 0.123
29.8340 -0.201
29.8643 0.516
29.8946 0.244
29.9248 -0.183
29.9551 0.014
29.9854 0.420
30.0157 -0.215
30.0460 -0.329
30.0762 0.221
30.1065 0.147
30.1368 0.490
30.1671 0.260
30.1973 0.604
30.2276 0.323
30.2579 0.250
30.2882 0.699
30.3185 0.106
30.3487 0.763
30.3790 0.796
30.4093 0.985
30.4396 0.081
30.4699 0.636
30.5001 0.514
30.5304 0.912
30.5607 0.582
30.5910 0.461
30.6212 1.590
30.6515 0.948
30.6818 1.140
30.7121 2.113
30.7424 2.358
30.7726 0.468
30.8029 1.859
30.8332 2.260
30.8635 2.142
30.8938 2.023
30.9240 2.426
30.9543 1.474
30.9846 3.128
31.0149 4.521
31.0451 3.102
31.0754 4.443
31.1057 4.796
31.1360 5.461
31.1663 6.751
31.1965 5.281
31.2268 7.926
31.2571 6.509
31.2874 8.634
31.3177 10.759
31.3479 12.468
31.3782 13.344
31.4085 16.616
31.4388 18.013
31.4690 22.015
31.4993 22.319
31.5296 25.748
31.5599 27.303
31.5902 31.514
31.6204 30.569
31.6507 29.677
31.6810 26.024
31.7113 24.403
31.7416 21.845
31.7718 18.975
31.8021 16.104
31.8324 12.766
31.8627 11.094
31.8929 11.350
31.9232 8.741
31.9535 8.217
31.9838 5.973
32.0141 6.282
32.0443 5.654
32.0746 4.662
32.1049 4.867
32.1352 4.292
32.1655 3.561
32.1957 2.986
32.2260 2.360
32.2563 3.088
32.2866 3.191
32.3169 2.513
32.3471 1.576
32.3774 1.940
32.4077 1.732
32.4380 1.264
32.4682 1.109
32.4985 0.329
32.5288 1.164
32.5591 0.957
32.5894 1.272
32.6196 0.284
32.6499 1.277
32.6802 1.384
32.7105 0.293
32.7408 0.453
32.7710 1.551
32.8013 -0.112
32.8316 0.361
32.8619 0.418
32.8921 0.319
32.9224 0.220
32.9527 1.476
32.9830 0.596
33.0133 -0.439
33.0435 0.557
33.0738 0.928
33.1041 0.050
33.1344 0.213
33.1647 0.273
33.1949 0.489
33.2252 -0.388
33.2555 -0.379
33.2858 0.177
33.3160 0.109
33.3463 0.770
33.3766 0.390
33.4069 0.219
33.4372 0.204
33.4674 0.397
33.4977 0.435
33.5280 0.525
33.5583 0.564
33.5886 0.654
33.6188 0.641
33.6491 -0.101
33.6794 0.928
33.7097 1.176
33.7399 1.320
33.7702 0.996
33.8005 1.349
33.8308 2.328
33.8611 2.629
33.8913 3.035
33.9216 2.608
33.9519 4.161
33.9822 6.026
34.0125 6.329
34.0427 8.508
34.0730 8.343
34.1033 10.365
34.1336 15.149
34.1638 21.235
34.1941 28.883
34.2244 35.595
34.2547 41.681
34.2850 41.935
34.3152 38.856
34.3455 29.423
34.3758 26.760
34.4061 17.119
34.4364 13.937
34.4666 8.567
34.4969 8.615
34.5272 6.840
34.5575 6.054
34.5877 4.019
34.6180 3.703
34.6483 3.283
34.6786 2.551
34.7089 2.132
34.7391 2.182
34.7694 1.242
34.7997 0.980
34.8300 2.124
34.8603 0.977
34.8905 2.070
34.9208 2.017
34.9511 1.027
34.9814 0.715
35.0116 0.976
35.0419 2.226
35.0722 0.769
35.1025 1.134
35.1328 2.073
35.1630 0.825
35.1933 2.025
35.2236 1.246
35.2539 2.134
35.2842 1.825
35.3144 1.463
35.3447 2.613
35.3750 3.294
35.4053 2.152
35.4356 3.302
35.4658 3.567
35.4961 3.103
35.5264 5.036
35.5567 4.573
35.5869 4.110
35.6172 5.626
35.6475 6.883
35.6778 7.358
35.7081 8.980
35.7383 9.404
35.7686 11.234
35.7989 15.253
35.8292 14.479
35.8595 15.425
35.8897 21.788
35.9200 21.641
35.9503 26.755
35.9806 28.692
36.0108 33.545
36.0411 37.305
36.0714 40.389
36.1017 45.608
36.1320 45.671
36.1622 39.641
36.1925 36.944
36.2228 31.800
36.2531 29.521
36.2834 25.471
36.3136 22.046
36.3439 18.049
36.3742 15.406
36.4045 13.233
36.4347 11.007
36.4650 9.198
36.4953 8.432
36.5256 6.832
36.5559 7.160
36.5861 6.603
36.6164 5.160
36.6467 4.707
36.6770 2.849
36.7073 4.428
36.7375 3.455
36.7678 2.691
36.7981 2.240
36.8284 2.519
36.8586 2.380
36.8889 1.514
36.9192 1.220
36.9495 1.864
36.9798 0.425
37.0100 0.705
37.0403 1.454
37.0706 0.953
37.1009 1.130
37.1312 0.422
37.1614 0.755
37.1917 0.516
37.2220 0.382
37.2523 0.716
37.2825 1.051
37.3128 0.188
37.3431 0.576
37.3734 -0.130
37.4037 -0.159
37.4339 -0.031
37.4642 -0.268
37.4945 0.173
37.5248 0.042
37.5551 0.327
37.5853 -0.533
37.6156 -0.195
37.6459 -0.065
37.6762 -0.091
37.7064 0.716
37.7367 0.118
37.7670 -0.115
37.7973 -0.297
37.8276 -0.321
37.8578 -0.038
37.8881 -0.068
37.9184 0.476
37.9487 -0.438
37.9790 0.210
38.0092 -0.027
38.0395 -0.680
38.0698 0.543
38.1001 0.359
38.1304 0.905
38.1606 0.045
38.1909 -0.086
38.2212 0.096
38.2515 -0.295
38.2817 -0.069
38.3120 0.261
38.3423 0.174
38.3726 0.713
38.4029 0.262
38.4331 0.281
38.4634 -0.169
38.4937 0.579
38.5240 0.286
38.5543 -0.319
38.5845 0.326
38.6148 0.033
38.6451 -0.154
38.6754 0.439
38.7056 0.044
38.7359 0.326
38.7662 -0.173
38.7965 0.109
38.8268 -0.285
38.8570 -0.057
38.8873 0.328
38.9176 -0.432
38.9479 -0.255
38.9782 0.164
39.0084 0.063
39.0387 0.483
39.0690 0.278
39.0993 0.334
39.1295 0.442
39.1598 0.394
39.1901 0.034
39.2204 0.300
39.2507 -0.008
39.2809 -0.106
39.3112 0.108
39.3415 0.218
39.3718 0.224
39.4021 0.648
39.4323 0.551
39.4626 0.506
39.4929 0.513
39.5232 0.417
39.5534 -0.408
39.5837 0.486
39.6140 0.338
39.6443 0.035
39.6746 -0.008
39.7048 0.627
39.7351 -0.197
39.7654 -0.239
39.7957 0.226
39.8260 -0.090
39.8562 -0.094
39.8865 0.163
39.9168 0.577
39.9471 -0.050
39.9773 0.156
40.0076 0.570
40.0379 0.569
40.0682 -0.006
40.0985 -0.111
40.1287 0.044
40.1590 0.096
40.1893 0.095
40.2196 0.252
40.2499 0.565
40.2801 0.044
40.3104 0.774
40.3407 0.203
40.3710 0.204
40.4012 0.310
40.4315 0.625
40.4618 0.210
40.4921 0.526
40.5224 0.268
40.5526 0.376
40.5829 0.119
40.6132 0.331
40.6435 0.491
40.6738 -0.286
40.7040 0.240
40.7343 0.193
40.7646 -0.375
40.7949 0.048
40.8251 -0.155
40.8554 0.112
40.8857 0.274
40.9160 0.177
40.9463 0.705
40.9765 -0.069
41.0068 -0.061
41.0371 0.572
41.0674 0.736
41.0977 0.172
41.1279 0.076
41.1582 -0.227
41.1885 -0.282
41.2188 0.601
41.2491 0.235
41.2793 0.337
41.3096 -0.133
41.3399 0.334
41.3702 0.021
41.4004 0.125
41.4307 0.072
41.4610 0.020
41.4913 -0.032
41.5216 0.334
41.5518 0.595
41.5821 0.075
41.6124 -0.184
41.6427 0.235
41.6730 0.133
41.7032 -0.125
41.7335 -0.227
41.7638 -0.027
41.7941 0.017
41.8243 -0.096
41.8546 0.001
41.8849 0.150
41.9152 -0.222
41.9455 0.136
41.9757 -0.027
42.0060 -0.033
42.0363 -0.143
42.0666 0.060
42.0969 0.263
42.1271 0.153
42.1574 0.045
42.1877 0.092
42.2180 0.192
42.2482 0.605
42.2785 0.549
42.3088 -0.027
42.3391 0.074
42.3694 0.176
42.3996 0.590
42.4299 0.484
42.4602 0.638
42.4905 -0.197
42.5208 -0.094
42.5510 0.322
42.5813 0.269
42.6116 0.686
42.6419 0.529
42.6721 0.217
42.7024 0.218
42.7327 -0.198
42.7630 -0.093
42.7933 0.377
42.8235 -0.090
42.8538 0.485
42.8841 0.435
42.9144 0.073
42.9447 -0.132
42.9749 -0.598
43.0052 0.185
43.0355 -0.074
43.0658 -0.125
43.0960 0.033
43.1263 -0.277
43.1566 0.351
43.1869 -0.844
43.2172 0.148
43.2474 0.412
43.2777 -0.001
43.3080 0.264
43.3383 0.060
43.3686 0.585
43.3988 -0.244
43.4291 0.074
43.4594 -0.233
43.4897 -0.130
43.5199 -0.131
43.5502 0.025
43.5805 -0.287
43.6108 0.234
43.6411 0.494
43.6713 -0.182
43.7016 -0.233
43.7319 0.078
43.7622 0.077
43.7925 0.025
43.8227 0.024
43.8530 -0.028
43.8833 0.233
43.9136 0.077
43.9439 0.130
43.9741 0.027
44.0044 0.288
44.0347 0.134
44.0650 0.396
44.0952 -0.122
44.1255 -0.016
44.1558 0.091
44.1861 -0.218
44.2164 0.619
44.2466 0.102
44.2769 -0.311
44.3072 -0.058
44.3375 0.404
44.3678 0.241
44.3980 0.391
44.4283 -0.397
44.4586 -0.194
44.4889 -0.043
44.5191 0.420
44.5494 0.259
44.5797 -0.006
44.6100 -0.479
44.6403 0.142
44.6705 0.086
44.7008 -0.334
44.7311 0.183
44.7614 -0.028
44.7917 -0.239
44.8219 0.068
44.8522 0.322
44.8825 -0.048
44.9128 -0.157
44.9430 -0.110
44.9733 -0.115
45.0036 -0.484
45.0339 0.294
45.0642 -0.231
45.0944 0.286
45.1247 0.283
45.1550 0.228
45.1853 0.434
45.2156 0.432
45.2458 -0.195
45.2761 0.272
45.3064 -0.146
45.3367 0.478
45.3669 0.008
45.3972 0.060
45.4275 0.007
45.4578 0.372
45.4881 0.216
45.5183 0.477
45.5486 0.062
45.5789 0.427
45.6092 -0.092
45.6395 0.118
45.6697 -0.244
45.7000 -0.103
45.7303 -0.013
45.7606 -0.027
45.7908 -0.093
45.8211 -0.211
45.8514 0.193
45.8817 -0.289
45.9120 0.063
45.9422 0.103
45.9725 0.090
46.0028 0.339
46.0331 0.015
46.0634 0.004
46.0936 0.305
46.1239 0.503
46.1542 -0.080
46.1845 0.014
46.2147 -0.048
46.2450 -0.005
46.2753 -0.170
46.3056 -0.075
46.3359 0.125
46.3661 0.064
46.3964 -0.100
46.4267 0.517
46.4570 -0.167
46.4873 -0.070
46.5175 -0.389
46.5478 0.124
46.5781 0.897
46.6084 0.890
46.6386 0.154
46.6689 0.408
46.6992 0.245
46.7295 0.187
46.7598 0.338
46.7900 0.540
46.8203 -0.246
46.8506 0.947
46.8809 0.890
46.9112 0.469
46.9414 1.507
46.9717 1.555
47.0020 1.187
47.0323 1.601
47.0626 2.067
47.0928 2.741
47.1231 3.104
47.1534 3.623
47.1837 4.246
47.2139 3.880
47.2442 6.171
47.2745 5.753
47.3048 6.117
47.3351 7.419
47.3653 7.211
47.3956 8.409
47.4259 6.795
47.4562 8.307
47.4865 6.016
47.5167 5.862
47.5470 5.916
47.5773 4.876
47.6076 4.410
47.6378 4.100
47.6681 3.270
47.6984 3.065
47.7287 2.548
47.7590 1.302
47.7892 1.150
47.8195 1.310
47.8498 2.148
47.8801 1.528
47.9104 1.273
47.9406 0.290
47.9709 -0.121
48.0012 0.666
48.0315 0.465
48.0617 0.628
48.0920 0.426
48.1223 0.538
48.1526 0.754
48.1829 0.398
48.2131 0.875
48.2434 0.050
48.2737 0.632
48.3040 0.328
48.3343 0.650
48.3645 0.660
48.3948 0.514
48.4251 0.003
48.4554 -0.090
48.4856 -0.235
48.5159 0.557
48.5462 0.308
48.5765 0.216
48.6068 0.645
48.6370 0.240
48.6673 -0.059
48.6976 0.058
48.7279 0.279
48.7582 0.085
48.7884 0.046
48.8187 -0.043
48.8490 0.179
48.8793 -0.171
48.9095 0.053
48.9398 -0.244
48.9701 -0.032
49.0004 0.025
49.0307 -0.127
49.0609 0.243
49.0912 0.196
49.1215 0.514
49.1518 -0.105
49.1821 0.422
49.2123 -0.093
49.2426 0.331
49.2729 -0.131
49.3032 0.501
49.3334 -0.012
49.3637 0.308
49.3940 0.108
49.4243 0.117
49.4546 -0.187
49.4848 0.239
49.5151 -0.168
49.5454 0.154
49.5757 0.372
49.6060 0.226
49.6362 0.080
49.6665 -0.221
49.6968 -0.210
49.7271 0.114
49.7574 -0.083
49.7876 0.085
49.8179 0.514
49.8482 -0.150
49.8785 -0.137
49.9087 0.188
49.9390 -0.215
49.9693 -0.163
49.9996 -0.215
50.0299 0.088
50.0601 0.652
50.0904 0.434
50.1207 0.373
50.1510 0.261
50.1813 0.200
50.2115 0.609
50.2418 0.706
50.2721 0.073
50.3024 0.275
50.3326 0.580
50.3629 0.366
50.3932 0.672
50.4235 0.041
50.4538 0.296
50.4840 -0.022
50.5143 0.234
50.5446 0.229
50.5749 -0.036
50.6052 0.481
50.6354 -0.044
50.6657 0.265
50.6960 -0.311
50.7263 -0.209
50.7565 0.154
50.7868 -0.003
50.8171 -0.421
50.8474 0.151
50.8777 0.255
50.9079 -0.005
50.9382 0.412
50.9685 0.204
50.9988 -0.056
51.0291 0.049
51.0593 0.051
51.0896 0.052
51.1199 -0.102
51.1502 -0.048
51.1804 0.320
51.2107 0.270
51.2410 0.117
51.2713 0.329
51.3016 0.072
51.3318 0.337
51.3621 0.028
51.3924 0.293
51.4227 0.298
51.4530 -0.009
51.4832 -0.003
51.5135 0.211
51.5438 0.477
51.5741 -0.037
51.6043 0.230
51.6346 0.237
51.6649 0.452
51.6952 0.408
51.7255 0.520
51.7557 0.267
51.7860 0.380
51.8163 0.180
51.8466 0.241
51.8769 0.199
51.9071 0.104
51.9374 -0.095
51.9677 0.072
51.9980 0.134
52.0282 -0.063
52.0585 -0.208
52.0888 0.092
52.1191 0.602
52.1494 -0.087
52.1796 0.111
52.2099 -0.004
52.2402 0.090
52.2705 -0.181
52.3008 0.174
52.3310 0.321
52.3613 0.416
52.3916 -0.010
52.4219 0.398
52.4521 0.130
52.4824 -0.139
52.5127 -0.094
52.5430 0.367
52.5733 0.308
52.6035 0.301
52.6338 -0.174
52.6641 0.028
52.6944 -0.083
52.7247 0.016
52.7549 0.323
52.7852 0.631
52.8155 -0.103
52.8458 -0.108
52.8761 0.096
52.9063 0.196
52.9366 0.089
52.9669 0.085
52.9972 -0.022
53.0274 -0.233
53.0577 -0.187
53.0880 -0.141
53.1183 0.061
53.1486 0.108
53.1788 -0.002
53.2091 0.097
53.2394 -0.063
53.2697 0.036
53.3000 0.449
53.3302 0.393
53.3605 -0.340
53.3908 -0.239
53.4211 0.173
53.4513 0.168
53.4816 -0.461
53.5119 0.524
53.5422 -0.053
53.5725 -0.213
53.6027 0.409
53.6330 -0.167
53.6633 0.247
53.6936 -0.328
53.7239 -0.018
53.7541 0.188
53.7844 0.604
53.8147 0.446
53.8450 0.080
53.8752 0.340
53.9055 -0.129
53.9358 0.079
53.9661 -0.285
53.9964 -0.027
54.0266 0.491
54.0569 -0.135
54.0872 -0.189
54.1175 0.851
54.1478 -0.139
54.1780 -0.244
54.2083 -0.042
54.2386 -0.256
54.2689 0.676
54.2991 0.462
54.3294 -0.220
54.3597 -0.016
54.3900 -0.073
54.4203 0.340
54.4505 -0.237
54.4808 0.072
54.5111 -0.140
54.5414 -0.195
54.5717 0.011
54.6019 -0.200
54.6322 0.371
54.6625 0.578
54.6928 0.576
54.7230 -0.154
54.7533 -0.311
54.7836 0.202
54.8139 -0.274
54.8442 -0.020
54.8744 0.286
54.9047 0.540
54.9350 0.117
54.9653 -0.253
54.9956 0.002
55.0258 -0.316
55.0561 0.148
55.0864 0.039
55.1167 0.400
55.1469 0.187
55.1772 -0.285
55.2075 -0.141
55.2378 0.160
55.2681 0.149
55.2983 0.138
55.3286 0.387
55.3589 0.221
55.3892 -0.414
55.4195 0.513
55.4497 0.608
55.4800 -0.339
55.5103 0.381
55.5406 0.008
55.5709 0.208
55.6011 0.721
55.6314 -0.016
55.6617 0.341
55.6920 0.386
55.7222 0.431
55.7525 0.268
55.7828 0.314
55.8131 0.724
55.8434 0.823
55.8736 1.390
55.9039 0.552
55.9342 1.068
55.9645 0.751
55.9948 1.476
56.0250 1.784
56.0553 1.416
56.0856 2.142
56.1159 2.763
56.1461 3.438
56.1764 4.581
56.2067 4.995
56.2370 4.212
56.2673 5.148
56.2975 6.449
56.3278 8.479
56.3581 7.020
56.3884 8.686
56.4187 9.051
56.4489 9.259
56.4792 6.968
56.5095 9.104
56.5398 8.115
56.5700 7.752
56.6003 7.076
56.6306 6.089
56.6609 4.580
56.6912 4.114
56.7214 4.273
56.7517 3.495
56.7820 3.446
56.8123 3.189
56.8426 2.152
56.8728 2.468
56.9031 1.796
56.9334 2.165
56.9637 1.337
56.9939 1.447
57.0242 0.671
57.0545 1.823
57.0848 0.892
57.1151 0.638
57.1453 1.009
57.1756 0.704
57.2059 0.607
57.2362 0.823
57.2665 0.727
57.2967 0.475
57.3270 0.379
57.3573 0.388
57.3876 0.450
57.4178 0.407
57.4481 0.104
57.4784 0.323
57.5087 -0.136
57.5390 0.031
57.5692 0.042
57.5995 -0.259
57.6298 0.117
57.6601 0.181
57.6904 0.141
57.7206 0.518
57.7509 0.010
57.7812 0.023
57.8115 0.088
57.8417 0.206
57.8720 0.168
57.9023 0.338
57.9326 -0.116
57.9629 0.003
57.9931 -0.399
58.0234 0.190
58.0537 0.257
58.0840 0.273
58.1143 0.915
58.1445 -0.059
58.1748 -0.146
58.2051 -0.233
58.2354 0.027
58.2656 0.184
58.2959 0.288
58.3262 0.914
58.3565 0.134
58.3868 -0.073
58.4170 0.293
58.4473 -0.121
58.4776 0.089
58.5079 0.456
58.5382 -0.218
58.5684 0.098
58.5987 0.518
58.6290 0.313
58.6593 0.421
58.6896 0.009
58.7198 0.274
58.7501 0.227
58.7804 0.336
58.8107 0.342
58.8409 0.347
58.8712 -0.272
58.9015 0.204
58.9318 0.366
58.9621 -0.095
58.9923 -0.140
59.0226 -0.081
59.0529 -0.073
59.0832 -0.221
59.1135 0.097
59.1437 0.207
59.1740 0.160
59.2043 0.115
59.2346 0.381
59.2648 0.076
59.2951 0.395
59.3254 0.038
59.3557 -0.006
59.3860 -0.259
59.4162 0.046
59.4465 0.091
59.4768 0.189
59.5071 0.182
59.5374 0.176
59.5676 0.014
59.5979 -0.096
59.6282 0.732
59.6585 -0.054
59.6887 0.254
59.7190 0.093
59.7493 -0.015
59.7796 0.241
59.8099 -0.231
59.8401 0.078
59.8704 0.440
59.9007 0.281
59.9310 0.122
59.9613 -0.349
59.9915 0.170
60.0218 -0.092
60.0521 0.220
60.0824 -0.146
60.1126 0.270
60.1429 -0.303
60.1732 0.009
60.2035 -0.199
60.2338 -0.094
60.2640 0.219
60.2943 0.377
60.3246 0.066
60.3549 0.224
60.3852 0.017
60.4154 0.384
60.4457 0.230
60.4760 0.181
60.5063 0.080
60.5365 0.084
60.5668 -0.017
60.5971 -0.221
60.6274 -0.134
60.6577 0.473
60.6879 -0.064
60.7182 0.127
60.7485 0.371
60.7788 -0.062
60.8091 0.027
60.8393 0.272
60.8696 0.100
60.8999 -0.436
60.9302 0.279
60.9604 0.160
60.9907 0.459
61.0210 -0.232
61.0513 0.067
61.0816 0.835
61.1118 -0.376
61.1421 0.080
61.1724 -0.348
61.2027 0.212
61.2330 -0.528
61.2632 -0.071
61.2935 0.126
61.3238 0.011
61.3541 -0.052
61.3844 0.094
61.4146 0.449
61.4449 -0.133
61.4752 0.013
61.5055 0.161
61.5357 -0.004
61.5660 0.247
61.5963 -0.177
61.6266 0.440
61.6569 0.068
61.6871 0.060
61.7174 -0.207
61.7477 0.515
61.7780 0.248
61.8083 0.138
61.8385 -0.128
61.8688 0.075
61.8991 0.486
61.9294 -0.144
61.9596 0.268
61.9899 -0.101
62.0202 0.468
62.0505 0.152
62.0808 0.304
62.1110 0.405
62.1413 0.975
62.1716 0.556
62.2019 0.606
62.2322 0.916
62.2624 1.175
62.2927 1.017
62.3230 2.162
62.3533 1.848
62.3835 2.525
62.4138 3.150
62.4441 3.046
62.4744 3.306
62.5047 3.203
62.5349 5.495
62.5652 5.444
62.5955 5.967
62.6258 6.437
62.6561 7.429
62.6863 8.733
62.7166 8.944
62.7469 8.114
62.7772 8.377
62.8074 7.079
62.8377 6.041
62.8680 6.254
62.8983 6.414
62.9286 5.325
62.9588 3.768
62.9891 3.721
63.0194 3.779
63.0497 4.097
63.0800 3.009
63.1102 1.714
63.1405 1.564
63.1708 1.155
63.2011 1.943
63.2313 0.857
63.2616 1.021
63.2919 1.134
63.3222 0.621
63.3525 0.578
63.3827 0.848
63.4130 0.701
63.4433 0.242
63.4736 0.512
63.5039 0.106
63.5341 0.533
63.5644 0.544
63.5947 0.242
63.6250 0.410
63.6552 0.578
63.6855 -0.087
63.7158 0.498
63.7461 0.459
63.7764 0.055
63.8066 -0.244
63.8369 -0.025
63.8672 0.195
63.8975 0.623
63.9278 0.323
63.9580 -0.290
63.9883 0.192
64.0186 -0.316
64.0489 0.113
64.0791 0.283
64.1094 0.505
64.1397 -0.210
64.1700 0.013
64.2003 -0.233
64.2305 0.025
64.2608 0.284
64.2911 0.595
64.3214 0.177
64.3517 0.488
64.3819 0.019
64.4122 0.070
64.4425 0.174
64.4728 0.175
64.5031 -0.242
64.5333 0.072
64.5636 0.125
64.5939 0.022
64.6242 -0.029
64.6544 0.025
64.6847 -0.233
64.7150 0.022
64.7453 0.277
64.7756 -0.144
64.8058 0.268
64.8361 0.316
64.8664 -0.105
64.8967 -0.005
64.9270 0.357
64.9572 -0.063
64.9875 0.299
65.0178 0.088
65.0481 0.138
65.0783 -0.073
65.1086 0.342
65.1389 0.081
65.1692 -0.233
65.1995 -0.193
65.2297 0.108
65.2600 0.045
65.2903 0.034
65.3206 0.180
65.3509 0.170
65.3811 0.212
65.4114 0.046
65.4417 0.245
65.4720 0.132
65.5022 -0.190
65.5325 0.270
65.5628 0.106
65.5931 -0.058
65.6234 0.090
65.6536 -0.229
65.6839 0.545
65.7142 -0.035
65.7445 -0.250
65.7748 -0.110
65.8050 -0.230
65.8353 0.171
65.8656 0.311
65.8959 -0.173
65.9261 -0.031
65.9564 0.319
65.9867 0.096
66.0170 0.030
66.0473 -0.244
66.0775 0.784
66.1078 0.302
66.1381 0.393
66.1684 0.328
66.1987 0.889
66.2289 1.294
66.2592 0.501
66.2895 -0.240
66.3198 0.634
66.3500 0.467
66.3803 0.561
66.4106 0.082
66.4409 0.541
66.4712 0.166
66.5014 0.730
66.5317 0.304
66.5620 -0.017
66.5923 0.183
66.6226 -0.034
66.6528 -0.146
66.6831 -0.987
66.7134 0.516
66.7437 -0.272
66.7739 -0.018
66.8042 -0.285
66.8345 0.072
66.8648 -0.509
66.8951 0.213
66.9253 -0.523
66.9556 0.252
66.9859 0.506
67.0162 0.240
67.0465 -0.286
67.0767 -0.135
67.1070 0.328
67.1373 0.532
67.1676 -0.098
67.1978 0.315
67.2281 -0.054
67.2584 0.360
67.2887 0.096
67.3190 0.457
67.3492 1.340
67.3795 1.494
67.4098 0.502
67.4401 0.657
67.4704 2.374
67.5006 1.123
67.5309 2.528
67.5612 2.475
67.5915 2.215
67.6218 3.308
67.6520 3.934
67.6823 4.090
67.7126 3.987
67.7429 3.728
67.7731 4.562
67.8034 5.658
67.8337 4.097
67.8640 5.662
67.8943 4.988
67.9245 5.095
67.9548 3.900
67.9851 3.956
68.0154 3.699
68.0457 2.713
68.0759 2.561
68.1062 2.722
68.1365 1.946
68.1668 1.795
68.1970 2.113
68.2273 1.910
68.2576 1.135
68.2879 1.402
68.3182 0.992
68.3484 1.103
68.3787 1.111
68.4090 0.858
68.4393 1.022
68.4696 0.249
68.4998 0.205
68.5301 1.047
68.5604 0.744
68.5907 0.493
68.6209 1.388
68.6512 1.450
68.6815 0.991
68.7118 0.741
68.7421 1.065
68.7723 1.649
68.8026 1.712
68.8329 1.619
68.8632 1.944
68.8935 2.373
68.9237 1.760
68.9540 2.294
68.9843 1.578
69.0146 1.852
69.0448 2.126
69.0751 1.150
69.1054 1.686
69.1357 1.388
69.1660 1.611
69.1962 1.314
69.2265 0.912
69.2568 0.616
69.2871 0.580
69.3174 1.169
69.3476 1.081
69.3779 0.161
69.4082 0.387
69.4385 0.248
69.4687 0.057
69.4990 0.909
69.5293 0.042
69.5596 0.425
69.5899 0.496
69.6201 -0.110
69.6504 -0.090
69.6807 0.138
69.7110 0.054
69.7413 0.023
69.7715 -0.217
69.8018 0.325
69.8321 0.138
69.8624 0.993
69.8926 0.129
69.9229 -0.005
69.9532 0.226
69.9835 0.457
70.0138 0.220
70.0440 -0.173
70.0743 -0.202
70.1046 -0.152
70.1349 0.418
70.1652 0.259
70.1954 -0.055
70.2257 -0.161
70.2560 0.411
70.2863 0.253
70.3166 -0.060
70.3468 -0.061
70.3771 0.252
70.4074 0.460
70.4377 0.252
70.4679 -0.060
70.4982 0.097
70.5285 -0.214
70.5588 0.621
70.5891 0.050
70.6193 0.260
70.6496 0.054
70.6799 -0.047
70.7102 0.112
70.7405 0.220
70.7707 -0.141
70.8010 0.123
70.8313 0.283
70.8616 0.184
70.8918 0.189
70.9221 0.298
70.9524 -0.114
70.9827 -0.056
71.0130 0.315
71.0432 0.477
71.0735 -0.037
71.1038 -0.082
71.1341 0.133
71.1644 -0.120
71.1946 0.148
71.2249 -0.104
71.2552 0.060
71.2855 0.277
71.3157 -0.027
71.3460 0.347
71.3763 0.044
71.4066 -0.259
71.4369 -0.002
71.4671 0.151
71.4974 0.304
71.5277 0.040
71.5580 -0.223
71.5883 0.035
71.6185 0.033
71.6488 -0.073
71.6791 0.186
71.7094 0.393
71.7396 -0.129
71.7699 0.183
71.8002 0.339
71.8305 0.130
71.8608 0.287
71.8910 -0.025
71.9213 -0.337
71.9516 0.073
71.9819 0.119
72.0122 0.113
72.0424 0.368
72.0727 0.051
72.1030 0.254
72.1333 0.353
72.1635 0.036
72.1938 0.084
72.2241 0.393
72.2544 0.337
72.2847 0.386
72.3149 0.279
72.3452 0.589
72.3755 0.587
72.4058 0.741
72.4361 0.791
72.4663 0.321
72.4966 0.528
72.5269 0.579
72.5572 0.214
72.5874 0.995
72.6177 0.474
72.6480 0.266
72.6783 0.735
72.7086 0.007
72.7388 0.164
72.7691 0.322
72.7994 0.220
72.8297 0.013
72.8600 0.432
72.8902 0.175
72.9205 0.021
72.9508 -0.028
72.9811 -0.076
73.0113 -0.177
73.0416 -0.068
73.0719 0.144
73.1022 -0.320
73.1325 0.362
73.1627 -0.101
73.1930 0.009
73.2233 0.119
73.2536 -0.188
73.2839 -0.132
73.3141 0.029
73.3444 0.085
73.3747 0.090
73.4050 0.095
73.4353 -0.108
73.4655 -0.102
73.4958 0.425
73.5261 0.119
73.5564 -0.031
73.5866 -0.180
73.6169 0.082
73.6472 0.084
73.6775 -0.382
73.7078 0.402
73.7380 0.301
73.7683 -0.061
73.7986 0.620
73.8289 0.155
73.8592 0.576
73.8894 0.268
73.9197 -0.040
73.9500 -0.087
73.9803 0.127
74.0105 0.289
74.0408 -0.018
74.0711 0.249
74.1014 -0.005
74.1317 -0.258
74.1619 0.050
74.1922 0.358
74.2225 -0.114
74.2528 -0.014
74.2831 0.556
74.3133 0.501
74.3436 0.029
74.3739 -0.077
74.4042 0.285
74.4344 0.440
74.4647 0.230
74.4950 -0.292
74.5253 -0.032
74.5556 0.436
74.5858 -0.137
74.6161 0.175
74.6464 0.436
74.6767 0.176
74.7070 0.229
74.7372 0.230
74.7675 -0.029
74.7978 0.077
74.8281 -0.077
74.8583 0.498
74.8886 0.397
74.9189 0.295
74.9492 0.090
74.9795 0.198
75.0097 0.306
75.0400 -0.159
75.0703 -0.258
75.1006 0.201
75.1309 0.349
75.1611 0.236
75.1914 0.020
75.2217 0.064
75.2520 -0.047
75.2822 0.362
75.3125 0.095
75.3428 -0.068
75.3731 0.498
75.4034 -0.080
75.4336 -0.086
75.4639 -0.196
75.4942 0.216
75.5245 0.263
75.5548 -0.002
75.5850 -0.058
75.6153 0.146
75.6456 -0.066
75.6759 0.295
75.7061 -0.073
75.7364 0.029
75.7667 0.235
75.7970 0.076
75.8273 -0.186
75.8575 -0.188
75.8878 0.119
75.9181 0.114
75.9484 -0.099
75.9787 0.000
76.0089 0.464
76.0392 0.356
76.0695 0.196
76.0998 -0.068
76.1301 -0.175
76.1603 -0.074
76.1906 0.184
76.2209 0.338
76.2512 -0.185
76.2814 0.334
76.3117 -0.084
76.3420 -0.033
76.3723 0.591
76.4026 0.538
76.4328 0.121
76.4631 0.225
76.4934 0.122
76.5237 0.487
76.5540 0.227
76.5842 0.385
76.6145 0.178
76.6448 0.440
76.6751 0.234
76.7053 0.288
76.7356 0.343
76.7659 0.346
76.7962 0.193
76.8265 0.665
76.8567 0.721
76.8870 0.308
76.9173 0.313
76.9476 0.682
76.9779 0.218
77.0081 0.536
77.0384 0.333
77.0687 0.964
77.0990 0.814
77.1292 0.248
77.1595 -0.110
77.1898 0.314
77.2201 0.165
77.2504 0.589
77.2806 0.649
77.3109 0.553
77.3412 0.301
77.3715 -0.003
77.4018 0.007
77.4320 0.172
77.4623 0.026
77.4926 -0.173
77.5229 -0.071
77.5531 0.240
77.5834 0.186
77.6137 0.289
77.6440 0.392
77.6743 0.131
77.7045 0.131
77.7348 0.287
77.7651 0.600
77.7954 0.392
77.8257 0.288
77.8559 0.185
77.8862 0.343
77.9165 -0.176
77.9468 -0.070
77.9770 0.349
78.0073 -0.065
78.0376 -0.011
78.0679 0.201
78.0982 0.256
78.1284 0.104
78.1587 0.160
78.1890 -0.096
78.2193 0.533
78.2496 0.017
78.2798 0.023
78.3101 -0.180
78.3404 0.020
78.3707 0.064
78.4009 0.317
78.4312 0.310
78.4615 0.043
78.4918 -0.068
78.5221 -0.126
78.5523 0.024
78.5826 0.071
78.6129 0.430
78.6432 0.217
78.6735 0.160
78.7037 -0.001
78.7340 -0.161
78.7643 -0.009
78.7946 0.091
78.8248 -0.016
78.8551 0.293
78.8854 -0.022
78.9157 -0.180
78.9460 0.026
78.9762 0.337
79.0065 0.023
79.0368 -0.083
79.0671 -0.031
79.0974 -0.032
79.1276 0.072
79.1579 -0.032
79.1882 0.020
79.2185 -0.083
79.2488 0.074
79.2790 0.127
79.3093 -0.184
79.3396 0.078
79.3699 0.341
79.4001 0.187
79.4304 0.033
79.4607 0.244
79.4910 0.039
79.5213 -0.061
79.5515 -0.266
79.5818 0.155
79.6121 0.211
79.6424 -0.044
79.6727 -0.039
79.7029 -0.034
79.7332 -0.029
79.7635 0.082
79.7938 -0.173
79.8240 -0.121
79.8543 0.400
79.8846 -0.017
79.9149 -0.173
79.9452 0.028
79.9754 -0.291
80.0057 0.067
80.0360 -0.043
80.0663 0.107
80.0966 0.101
80.1268 0.252
80.1571 0.299
80.1874 0.034
80.2177 -0.075
80.2479 -0.079
80.2782 0.021
80.3085 -0.035
80.3388 0.327
80.3691 0.167
80.3993 0.477
80.4296 0.683
80.4599 0.368
80.4902 0.106
80.5205 0.208
80.5507 -0.053
80.5810 -0.106
80.6113 -0.211
80.6416 0.465
80.6718 -0.108
80.7021 0.049
80.7324 -0.003
80.7627 0.050
80.7930 0.051
80.8232 0.209
80.8535 -0.259
80.8838 -0.162
80.9141 0.352
80.9444 -0.072
80.9746 0.130
81.0049 -0.033
81.0352 0.326
81.0655 0.320
81.0957 0.263
81.1260 0.310
81.1563 0.305
81.1866 0.144
81.2169 0.400
81.2471 0.136
81.2774 0.080
81.3077 0.076
81.3380 0.386
81.3683 0.539
81.3985 -0.192
81.4288 -0.038
81.4591 0.168
81.4894 0.271
81.5196 0.321
81.5499 0.477
81.5802 0.007
81.6105 0.423
81.6408 -0.150
81.6710 0.163
81.7013 0.059
81.7316 0.112
81.7619 -0.356
81.7922 0.270
81.8224 -0.041
81.8527 -0.195
81.8830 0.066
81.9133 0.172
81.9436 -0.191
81.9738 0.123
82.0041 0.125
82.0344 0.075
82.0647 0.182
82.0949 0.133
82.1252 0.188
82.1555 -0.173
82.1858 0.404
82.2161 0.044
82.2463 -0.317
82.2766 0.261
82.3069 -0.307
82.3372 0.271
82.3675 -0.088
82.3977 -0.134
82.4280 0.081
82.4583 0.556
82.4886 0.354
82.5188 -0.055
82.5491 -0.256
82.5794 0.168
82.6097 0.072
82.6400 -0.180
82.6702 -0.025
82.7005 0.287
82.7308 -0.025
82.7611 0.079
82.7914 -0.077
82.8216 -0.337
82.8519 0.128
82.8822 -0.292
82.9125 0.226
82.9427 0.014
82.9730 -0.092
83.0033 -0.095
83.0336 -0.149
83.0639 0.006
83.0941 0.004
83.1244 0.055
83.1547 -0.310
83.1850 0.210
83.2153 0.053
83.2455 0.157
83.2758 0.366
83.3061 -0.102
83.3364 -0.049
83.3666 -0.256
83.3969 0.266
83.4272 0.372
83.4575 0.374
83.4878 -0.040
83.5180 0.327
83.5483 0.278
83.5786 -0.240
83.6089 -0.028
83.6392 -0.180
83.6694 0.028
83.6997 0.132
83.7300 0.029
83.7603 0.134
83.7905 0.031
83.8208 0.240
83.8511 0.086
83.8814 -0.120
83.9117 0.142
83.9419 0.145
83.9722 -0.009
84.0025 0.307
84.0328 -0.054
84.0631 -0.259
84.0933 0.100
84.1236 0.199
84.1539 0.142
84.1842 -0.176
84.2144 -0.180
84.2447 -0.080
84.2750 0.177
84.3053 0.278
84.3356 -0.194
84.3658 -0.092
84.3961 -0.095
84.4264 -0.305
84.4567 0.370
84.4870 -0.204
84.5172 -0.101
84.5475 -0.050
84.5778 0.106
84.6081 0.001
84.6383 -0.051
84.6686 0.262
84.6989 -0.258
84.7292 -0.101
84.7595 0.004
84.7897 -0.099
84.8200 -0.201
84.8503 0.166
84.8806 -0.092
84.9109 0.223
84.9411 0.017
84.9714 -0.031
85.0017 -0.080
85.0320 -0.180
85.0623 0.033
85.0925 -0.119
85.1228 0.095
85.1531 -0.108
85.1834 -0.259
85.2136 0.155
85.2439 -0.004
85.2742 -0.007
85.3045 -0.009
85.3348 -0.115
85.3650 -0.117
85.3953 -0.170
85.4256 -0.067
85.4559 0.193
85.4862 -0.120
85.5164 -0.173
85.5467 0.348
85.5770 0.245
85.6073 -0.015
85.6375 -0.118
85.6678 -0.013
85.6981 -0.063
85.7284 0.043
85.7587 0.097
85.7889 0.099
85.8192 0.206
85.8495 0.001
85.8798 0.160
85.9101 0.112
85.9403 -0.457
85.9706 0.433
86.0009 0.281
86.0312 -0.287
86.0614 -0.126
86.0917 -0.173
86.1220 0.030
86.1523 -0.027
86.1826 0.229
86.2128 0.225
86.2431 0.377
86.2734 0.008
86.3037 0.317
86.3340 -0.571
86.3642 -0.053
86.3945 0.100
86.4248 0.098
86.4551 -0.113
86.4853 -0.062
86.5156 0.301
86.5459 0.039
86.5762 0.038
86.6065 -0.170
86.6367 0.298
86.6670 0.038
86.6973 0.246
86.7276 0.351
86.7579 -0.273
86.7881 -0.116
86.8184 0.094
86.8487 0.512
86.8790 -0.163
86.9092 -0.369
86.9395 0.363
86.9698 -0.050
87.0001 -0.047
87.0304 0.685
87.0606 0.116
87.0909 0.589
87.1212 -0.292
87.1515 0.442
87.1818 -0.074
87.2120 -0.173
87.2423 -0.022
87.2726 0.129
87.3029 0.176
87.3331 -0.037
87.3634 0.063
87.3937 -0.097
87.4240 0.055
87.4543 -0.313
87.4845 0.153
87.5148 0.306
87.5451 0.616
87.5754 -0.323
87.6057 -0.117
87.6359 -0.014
87.6662 -0.120
87.6965 0.035
87.7268 -0.070
87.7571 -0.070
87.7873 -0.071
87.8176 0.398
87.8479 -0.070
87.8782 -0.017
87.9084 0.505
87.9387 -0.015
87.9690 -0.170
87.9993 -0.064
88.0296 -0.062
88.0598 0.045
88.0901 -0.056
88.1204 0.363
88.1507 0.367
88.1810 0.058
88.2112 -0.147
88.2415 0.274
88.2718 0.435
88.3021 -0.342
88.3323 -0.232
88.3626 0.392
88.3929 -0.024
88.4232 -0.232
88.4535 0.067
88.4837 0.002
88.5140 -0.218
88.5443 0.134
88.5746 0.383
88.6049 0.372
88.6351 0.100
88.6654 0.037
88.6957 -0.078
88.7260 0.068
88.7562 -0.150
88.7865 0.309
88.8168 0.039
88.8471 0.395
88.8774 0.334
88.9076 0.273
88.9379 0.005
88.9682 0.205
88.9985 0.041
89.0288 0.347
89.0590 0.444
89.0893 0.333
89.1196 0.691
89.1499 0.476
89.1801 0.471
89.2104 0.569
89.2407 0.720
89.2710 0.194
89.3013 0.710
89.3315 0.654
89.3618 1.275
89.3921 1.115
89.4224 0.851
89.4527 0.743
89.4829 0.845
89.5132 1.102
89.5435 0.788
89.5738 1.098
89.6040 0.628
89.6343 0.470
89.6646 0.937
89.6949 0.624
89.7252 0.832
89.7554 1.040
89.7857 0.311
89.8160 1.144
89.8463 0.364
89.8766 0.104
89.9068 0.730
89.9371 0.419
89.9674 0.213
89.9977 -0.046
90.0279 -0.043
90.0582 0.428
90.0885 -0.142
90.1188 0.278
90.1491 0.229
90.1793 0.077
90.2096 0.289
90.2399 0.085
90.2702 0.194
90.3005 -0.061
90.3307 -0.160
90.3610 -0.363
90.3913 0.214
90.4216 0.063
90.4518 0.432
90.4821 0.073
90.5124 -0.026
90.5427 -0.228
90.5730 0.194
90.6032 -0.164
90.6335 -0.001
90.6638 0.006
90.6941 -0.195
90.7244 -0.035
90.7546 -0.136
90.7849 -0.185
90.8152 -0.285
90.8455 0.241
90.8758 -0.067
90.9060 0.198
90.9363 0.255
90.9666 0.001
90.9969 -0.046
91.0271 -0.040
91.0574 0.331
91.0877 -0.078
91.1180 0.085
91.1483 -0.064
91.1785 0.048
91.2088 -0.153
91.2391 0.220
91.2694 0.020
91.2997 0.289
91.3299 0.298
91.3602 0.204
91.3905 -0.151
91.4208 -0.089
91.4510 0.129
91.4813 -0.173
91.5116 -0.232
91.5419 0.225
91.5722 0.423
91.6024 0.204
91.6327 -0.119
91.6630 0.288
91.6933 0.278
91.7236 0.269
91.7538 -0.574
91.7841 -0.114
91.8144 0.086
91.8447 -0.079
91.8749 -0.139
91.9052 0.218
91.9355 0.159
91.9658 -0.056
91.9961 0.197
92.0263 -0.070
92.0566 -0.076
92.0869 0.074
92.1172 0.017
92.1475 -0.093
92.1777 -0.254
92.2080 0.262
92.2383 -0.367
92.2686 0.202
92.2988 0.250
92.3291 0.298
92.3594 0.035
92.3897 0.448
92.4200 -0.231
92.4502 0.443
92.4805 0.389
92.5108 0.023
92.5411 0.230
92.5714 0.281
92.6016 -0.033
92.6319 0.175
92.6622 0.331
92.6925 0.227
92.7227 0.644
92.7530 0.384
92.7833 0.333
92.8136 0.386
92.8439 0.596
92.8741 0.389
92.9044 -0.026
92.9347 -0.075
92.9650 -0.125
92.9953 0.243
93.0255 0.090
93.0558 0.145
93.0861 0.045
93.1164 0.414
93.1466 -0.207
93.1769 0.475
93.2072 0.323
93.2375 0.016
93.2678 -0.082
93.2980 0.184
93.3283 -0.070
93.3586 -0.012
93.3889 -0.005
93.4192 -0.259
93.4494 0.052
93.4797 0.519
93.5100 0.466
93.5403 0.100
93.5706 0.308
93.6008 0.203
93.6311 -0.057
93.6614 -0.161
93.6917 0.100
93.7219 -0.056
93.7522 0.414
93.7825 0.259
93.8128 0.313
93.8431 0.055
93.8733 -0.256
93.9036 0.059
93.9339 0.114
93.9642 0.170
93.9945 -0.035
94.0247 -0.188
94.0550 -0.044
94.0853 -0.005
94.1156 0.035
94.1458 0.023
94.1761 0.168
94.2064 0.157
94.2367 0.042
94.2670 0.187
94.2972 0.125
94.3275 -0.198
94.3578 0.209
94.3881 0.043
94.4184 -0.018
94.4486 -0.183
94.4789 -0.192
94.5092 0.165
94.5395 0.052
94.5697 -0.060
94.6000 0.350
94.6303 0.551
94.6606 0.127
94.6909 0.121
94.7211 0.010
94.7514 0.056
94.7817 -0.001
94.8120 0.358
94.8423 0.457
94.8725 0.244
94.9028 0.083
94.9331 0.548
94.9634 0.700
94.9936 0.019
95.0239 1.370
95.0542 0.586
95.0845 0.687
95.1148 0.580
95.1450 1.099
95.1753 0.889
95.2056 0.679
95.2359 0.990
95.2662 0.729
95.2964 0.363
95.3267 0.780
95.3570 0.727
95.3873 0.571
95.4175 0.416
95.4478 0.521
95.4781 0.782
95.5084 1.096
95.5387 0.264
95.5689 -0.099
95.5992 0.372
95.6295 0.115
95.6598 0.326
95.6901 -0.192
95.7203 0.228
95.7506 0.596
95.7809 -0.546
95.8112 -0.125
95.8414 0.140
95.8717 -0.115
95.9020 0.150
95.9323 0.156
95.9626 0.422
95.9928 -0.405
96.0231 -0.086
96.0534 0.441
96.0837 0.187
96.1140 0.143
96.1442 -0.110
96.1745 -0.311
96.2048 0.161
96.2351 0.112
96.2653 -0.406
96.2956 0.223
96.3259 -0.294
96.3562 -0.133
96.3865 0.132
96.4167 -0.072
96.4470 -0.066
96.4773 0.147
96.5076 0.153
96.5379 0.055
96.5681 -0.199
96.5984 0.016
96.6287 0.127
96.6590 0.239
96.6893 -0.066
96.7195 0.046
96.7498 -0.311
96.7801 0.001
96.8104 0.209
96.8406 -0.312
96.8709 0.209
96.9012 0.106
96.9315 0.315
96.9618 0.160
96.9920 -0.256
97.0223 0.319
97.0526 0.061
97.0829 0.219
97.1132 -0.195
97.1434 -0.195
97.1737 0.062
97.2040 -0.149
97.2343 0.526
97.2645 0.367
97.2948 -0.155
97.3251 0.364
97.3554 -0.158
97.3857 -0.055
97.4159 -0.160
97.4462 0.308
97.4765 0.517
97.5068 -0.004
97.5371 0.048
97.5673 0.414
97.5976 -0.262
97.6279 0.312
97.6582 -0.103
97.6884 -0.153
97.7187 0.109
97.7490 0.528
97.7793 0.167
97.8096 -0.195
97.8398 -0.201
97.8701 0.262
97.9004 0.829
97.9307 -0.114
97.9610 0.350
97.9912 0.501
98.0215 0.341
98.0518 0.284
98.0821 -0.032
98.1123 -0.140
98.1426 0.274
98.1729 0.010
98.2032 0.528
98.2335 0.265
98.2637 0.003
98.2940 0.261
98.3243 0.260
98.3546 0.467
98.3849 0.310
98.4151 0.309
98.4454 0.517
98.4757 0.309
98.5060 0.205
98.5362 0.309
98.5665 0.414
98.5968 0.311
98.6271 0.573
98.6574 0.419
98.6876 0.056
98.7179 0.319
98.7482 0.061
98.7785 0.428
98.8088 0.640
98.8390 0.331
98.8693 0.543
98.8996 0.599
98.9299 0.655
98.9601 0.191
98.9904 0.300
99.0207 0.409
99.0510 -0.158
99.0813 0.577
99.1115 0.114
99.1418 0.277
99.1721 0.023
99.2024 0.395
99.2327 0.090
99.2629 -0.007
99.2932 0.105
99.3235 0.061
99.3538 0.226
99.3841 0.339
99.4143 0.139
99.4446 -0.060
99.4749 -0.415
99.5052 0.114
99.5354 0.279
99.5657 -0.024
99.5960 0.402
99.6263 0.359
99.6566 0.057
99.6868 -0.089
99.7171 0.129
99.7474 0.557
99.7777 0.099
99.8080 0.058
99.8382 0.174
99.8685 0.082
99.8988 0.198
99.9291 0.263
99.9593 0.276
99.9896 0.393
100.0199 0.094
100.0502 0.524
100.0805 0.330
100.1107 0.761
100.1410 -0.214
100.1713 -0.147
100.2016 -0.002
100.2319 0.717
100.2621 0.135
100.2924 0.698
100.3227 0.272
100.3530 0.159
100.3832 0.150
100.4135 0.402
100.4438 0.290
100.4741 0.074
100.5044 0.379
100.5346 0.163
100.5649 0.417
100.5952 0.098
100.6255 0.456
100.6558 0.085
100.6860 0.236
100.7163 -0.134
100.7466 0.590
100.7769 0.220
100.8071 0.164
100.8374 0.107
100.8677 0.155
100.8980 0.099
100.9283 -0.008
100.9585 0.041
100.9888 0.194
101.0191 0.140
101.0494 0.189
101.0797 0.188
101.1099 0.238
101.1402 0.445
101.1705 0.340
101.2008 -0.130
101.2310 0.391
101.2613 -0.339
101.2916 0.286
101.3219 0.235
101.3522 0.079
101.3824 0.445
101.4127 0.133
101.4430 0.083
101.4733 0.553
101.5036 0.191
101.5338 0.558
101.5641 0.248
101.5944 0.251
101.6247 0.359
101.6549 0.519
101.6852 0.262
101.7155 0.110
101.7458 0.583
101.7761 0.119
101.8063 0.437
101.8366 0.442
101.8669 0.031
101.8972 -0.015
101.9275 -0.165
101.9577 -0.076
101.9880 0.377
102.0183 0.257
102.0486 0.190
102.0788 0.175
102.1091 0.473
102.1394 0.615
102.1697 0.185
102.2000 -0.037
102.2302 0.574
102.2605 0.665
102.2908 0.184
102.3211 0.276
102.3514 0.212
102.3816 0.408
102.4119 0.084
102.4422 0.125
102.4725 0.426
102.5028 0.311
102.5330 0.041
102.5633 0.603
102.5936 0.437
102.6239 0.428
102.6541 0.315
102.6844 0.358
102.7147 0.141
102.7450 0.132
102.7753 0.333
102.8055 -0.092
102.8358 0.213
102.8661 -0.002
102.8964 0.981
102.9267 0.036
102.9569 0.551
102.9872 0.285
103.0175 -0.242
103.0478 0.117
103.0780 0.581
103.1083 0.003
103.1386 -0.418
103.1689 0.255
103.1992 0.199
103.2294 0.247
103.2597 -0.069
103.2900 0.189
103.3203 0.082
103.3506 0.236
103.3808 0.025
103.4111 0.127
103.4414 0.126
103.4717 0.124
103.5019 0.228
103.5322 0.331
103.5625 0.226
103.5928 0.018
103.6231 0.174
103.6533 0.383
103.6836 0.280
103.7139 0.229
103.7442 0.803
103.7745 0.700
103.8047 -0.027
103.8350 1.121
103.8653 0.395
103.8956 0.241
103.9258 0.505
103.9561 0.821
103.9864 0.824
104.0167 0.516
104.0470 0.208
104.0772 0.837
104.1075 0.634
104.1378 0.847
104.1681 0.644
104.1984 0.390
104.2286 0.239
104.2589 0.819
104.2892 0.721
104.3195 0.936
104.3497 0.423
104.3800 0.795
104.4103 0.334
104.4406 0.446
104.4709 0.715
104.5011 0.255
104.5314 0.420
104.5617 0.429
104.5920 0.126
104.6223 0.657
104.6525 0.146
104.6828 -0.052
104.7131 0.792
104.7434 0.230
104.7736 0.294
104.8039 0.097
104.8342 0.265
104.8645 0.017
104.8948 0.186
104.9250 -0.166
104.9553 0.264
104.9856 0.485
105.0159 -0.178
105.0462 0.148
105.0764 0.110
105.1067 0.073
105.1370 -0.173
105.1673 -0.078
105.1975 0.694
105.2278 0.164
105.2581 -0.001
105.2884 0.303
105.3187 0.555
105.3489 0.235
105.3792 0.227
105.4095 0.011
105.4398 0.265
105.4701 0.206
105.5003 0.147
105.5306 -0.432
105.5609 0.239
105.5912 0.130
105.6215 0.124
105.6517 0.119
105.6820 0.375
105.7123 -0.098
105.7426 -0.050
105.7728 0.415
105.8031 -0.005
105.8334 0.200
105.8637 0.249
105.8940 0.194
105.9242 -0.068
105.9545 0.034
105.9848 -0.072
106.0151 -0.074
106.0454 0.186
106.0756 -0.024
106.1059 -0.389
106.1362 0.132
106.1665 -0.024
106.1967 0.393
106.2270 0.133
106.2573 -0.023
106.2876 0.447
106.3179 0.449
106.3481 0.451
106.3784 -0.381
106.4087 0.299
106.4390 -0.011
106.4693 0.044
106.4995 0.151
106.5298 0.415
106.5601 0.002
106.5904 -0.150
106.6206 0.271
106.6509 0.016
106.6812 -0.188
106.7115 0.018
106.7418 -0.297
106.7720 0.274
106.8023 0.012
106.8326 0.427
106.8629 0.321
106.8932 -0.044
106.9234 0.268
106.9537 0.736
106.9840 -0.097
107.0143 0.424
107.0445 0.216
107.0748 0.217
107.1051 0.322
107.1354 0.115
107.1657 0.013
107.1959 -0.037
107.2262 0.434
107.2565 0.593
107.2868 -0.082
107.3171 0.442
107.3473 -0.179
107.3776 0.345
107.4079 0.037
107.4382 -0.115
107.4684 0.046
107.4987 0.311
107.5290 0.004
107.5593 0.114
107.5896 0.588
107.6198 0.022
107.6501 -0.180
107.6804 -0.077
107.7107 0.183
107.7410 -0.130
107.7712 0.339
107.8015 0.131
107.8318 0.340
107.8621 0.081
107.8923 0.498
107.9226 0.135
107.9529 0.554
107.9832 0.035
108.0135 0.611
108.0437 0.040
108.0740 0.304
108.1043 0.151
108.1346 0.102
108.1649 0.106
108.1951 0.319
108.2254 0.427
108.2557 -0.193
108.2860 0.125
108.3163 0.339
108.3465 0.136
108.3768 0.454
108.4071 0.148
108.4374 0.155
108.4676 0.422
108.4979 0.116
108.5282 0.488
108.5585 0.288
108.5888 -0.017
108.6190 -0.165
108.6493 -0.229
108.6796 0.228
108.7099 0.373
108.7402 0.153
108.7704 0.247
108.8007 0.080
108.8310 0.382
108.8613 0.007
108.8915 0.258
108.9218 0.249
108.9521 0.031
108.9824 -0.030
109.0127 0.222
109.0429 0.006
109.0732 -0.263
109.1035 0.250
109.1338 0.295
109.1641 0.132
109.1943 -0.344
109.2246 0.223
109.2549 0.269
109.2852 0.523
109.3154 -0.056
109.3457 0.512
109.3760 -0.170
109.4063 -0.019
109.4366 0.550
109.4668 -0.079
109.4971 0.125
109.5274 0.226
109.5577 0.535
109.5880 0.168
109.6182 0.373
109.6485 0.371
109.6788 0.421
109.7091 -0.154
109.7393 0.001
109.7696 0.260
109.7999 -0.158
109.8302 0.050
109.8605 0.154
109.8907 -0.211
109.9210 0.154
109.9513 0.103
109.9816 0.416
110.0119 -0.104
110.0421 0.627
110.0724 0.316
110.1027 0.422
110.1330 0.112
110.1632 0.010
110.1935 -0.195
110.2238 0.225
110.2541 0.541
110.2844 -0.028
110.3146 -0.233
110.3449 0.076
110.3752 0.436
110.4055 -0.297
110.4358 0.481
110.4660 0.270
110.4963 0.111
110.5266 0.265
110.5569 0.783
110.5871 0.000
110.6174 0.259
110.6477 0.518
110.6780 0.517
110.7083 0.204
110.7385 0.620
110.7688 0.308
110.7991 0.412
110.8294 0.308
110.8597 0.361
110.8899 0.050
110.9202 0.207
110.9505 0.000
110.9808 0.419
111.0110 0.213
111.0413 0.059
111.0716 0.062
111.1019 0.065
111.1322 0.433
111.1624 0.072
111.1927 0.232
111.2230 -0.024
111.2533 -0.123
111.2836 0.194
111.3138 0.095
111.3441 0.465
111.3744 0.314
111.4047 0.216
111.4350 -0.090
111.4652 0.073
111.4955 -0.337
111.5258 -0.027
111.5561 0.126
111.5863 -0.241
111.6166 0.069
111.6469 0.432
111.6772 0.274
111.7075 0.324
111.7377 -0.197
111.7680 0.010
111.7983 0.062
111.8286 -0.095
111.8589 0.114
111.8891 0.374
111.9194 0.010
111.9497 0.168
111.9800 0.273
112.0102 -0.194
112.0405 0.120
112.0708 0.018
112.1011 -0.188
112.1314 -0.136
112.1616 0.280
112.1919 0.020
112.2222 -0.188
112.2525 -0.037
112.2828 0.218
112.3130 0.004
112.3433 0.000
112.3736 0.360
112.4039 0.199
112.4341 -0.117
112.4644 -0.016
112.4947 0.397
112.5250 0.133
112.5553 0.131
112.5855 0.232
112.6158 -0.030
112.6461 -0.032
112.6764 0.123
112.7067 -0.399
112.7369 0.069
112.7672 0.328
112.7975 0.015
112.8278 0.276
112.8580 -0.089
112.8883 0.120
112.9186 -0.348
112.9489 0.226
112.9792 -0.293
113.0094 0.021
113.0397 0.127
113.0700 0.754
113.1003 0.028
113.1306 0.499
113.1608 0.242
113.1911 -0.015
113.2214 -0.220
113.2517 0.253
113.2819 0.206
113.3122 0.366
113.3425 -0.045
113.3728 -0.092
113.4031 0.382
113.4333 0.075
113.4636 0.446
113.4939 0.296
113.5242 0.303
113.5545 0.101
113.5847 0.265
113.6150 0.324
113.6453 0.384
113.6756 0.028
113.7058 0.245
113.7361 -0.111
113.7664 -0.259
113.7967 0.154
113.8270 0.411
113.8572 0.095
113.8875 -0.012
113.9178 0.142
113.9481 0.244
113.9784 0.033
114.0086 -0.177
114.0389 0.186
114.0692 -0.127
114.0995 -0.285
114.1298 0.173
114.1600 0.632
114.1903 -0.003
114.2206 0.455
114.2509 0.133
114.2811 -0.032
114.3114 0.480
114.3417 -0.102
114.3720 0.150
114.4023 0.038
114.4325 0.395
114.4628 0.023
114.4931 0.276
114.5234 -0.044
114.5537 -0.363
114.5839 0.095
114.6142 0.137
114.6445 0.544
114.6748 -0.143
114.7050 0.108
114.7353 0.203
114.7656 0.090
114.7959 0.030
114.8262 0.126
114.8564 0.066
114.8867 0.006
114.9170 0.051
114.9473 -0.008
114.9776 -0.432
115.0078 0.239
115.0381 0.076
115.0684 0.175
115.0987 0.378
115.1289 0.008
115.1592 0.003
115.1895 0.050
115.2198 -0.215
115.2501 -0.013
115.2803 0.449
115.3106 0.651
115.3409 0.124
115.3712 0.171
115.4015 0.009
115.4317 0.265
115.4620 0.000
115.4923 -0.057
115.5226 -0.061
115.5528 0.248
115.5831 0.348
115.6134 0.085
115.6437 -0.075
115.6740 0.183
115.7042 0.285
115.7345 0.700
115.7648 0.177
115.7951 0.227
115.8254 -0.138
115.8556 0.746
115.8859 0.589
115.9162 0.954
115.9465 -0.088
115.9767 0.068
116.0070 0.642
116.0373 0.122
116.0676 0.748
116.0979 0.437
116.1281 0.387
116.1584 0.909
116.1887 0.547
116.2190 0.602
116.2493 0.240
116.2795 0.556
116.3098 1.080
116.3401 0.667
116.3704 0.671
116.4006 0.936
116.4309 0.576
116.4612 0.425
116.4915 1.003
116.5218 0.175
116.5520 1.014
116.5823 0.135
116.6126 0.662
116.6429 0.721
116.6732 0.364
116.7034 0.735
116.7337 0.326
116.7640 0.334
116.7943 0.030
116.8245 0.143
116.8548 0.151
116.8851 0.317
116.9154 0.534
116.9457 0.492
116.9759 0.866
117.0062 -0.269
117.0365 -0.207
117.0668 0.326
117.0971 0.338
117.1273 0.351
117.1576 -0.313
117.1879 0.377
117.2182 0.078
117.2485 0.196
117.2787 -0.311
117.3090 -0.163
117.3393 0.297
117.3696 -0.024
117.3998 -0.032
117.4301 0.585
117.4604 0.161
117.4907 0.206
117.5210 0.042
117.5512 -0.381
117.5815 0.030
117.6118 0.024
117.6421 0.278
117.6724 -0.040
117.7026 0.372
117.7329 0.263
117.7632 0.310
117.7935 0.098
117.8237 0.250
117.8540 0.090
117.8843 -0.070
117.9146 -0.281
117.9449 0.237
117.9751 0.287
118.0054 0.024
118.0357 -0.030
118.0660 -0.084
118.0963 0.384
118.1265 -0.555
118.1568 -0.191
118.1871 0.069
118.2174 0.069
118.2476 0.017
118.2779 0.434
118.3082 -0.191
118.3385 0.227
118.3688 0.020
118.3990 0.074
118.4293 -0.289
118.4596 0.390
118.4899 -0.076
118.5202 -0.281
118.5504 0.294
118.5807 -0.171
118.6110 0.249
118.6413 -0.007
118.6715 -0.003
118.7018 -0.259
118.7321 0.058
118.7624 -0.041
118.7927 0.121
118.8229 0.334
118.8532 -0.024
118.8835 -0.070
118.9138 0.040
118.9441 -0.057
118.9743 -0.259
119.0046 0.107
119.0349 -0.047
119.0652 0.059
119.0954 0.009
119.1257 0.219
119.1560 -0.038
119.1863 -0.035
119.2166 -0.136
119.2468 0.284
119.2771 0.132
119.3074 0.188
119.3377 0.089
119.3680 0.198
119.3982 0.151
119.4285 0.104
119.4588 0.370
119.4891 -0.093
119.5193 -0.034
119.5496 -0.028
119.5799 0.552
119.6102 0.507
119.6405 0.254
119.6707 -0.155
119.7010 0.062
119.7313 -0.347
119.7616 0.235
119.7919 0.035
119.8221 -0.060
119.8524 -0.259
119.8827 0.095
119.9130 0.188
119.9433 0.489
119.9735 0.114
120.0038 0.000
