'Id: "" Comment: "" Operator: "Lab Manager" Anode: "Cu" Scantype: "Locked Coupled" TimePerStep: "19.2" X: "9999" Y: "9999" Z: "9999" 
10.0015 0.000
10.0318 0.983
10.0620 -2.825
10.0923 -2.806
10.1226 4.505
10.1529 0.983
10.1832 -1.810
10.2134 -2.468
10.2437 -2.917
10.2740 2.245
10.3043 5.532
10.3346 1.787
10.3648 2.939
10.3951 3.778
10.4254 9.148
10.4557 11.237
10.4859 7.441
10.5162 7.655
10.5465 6.307
10.5768 6.626
10.6071 7.986
10.6373 2.732
10.6676 7.791
10.6979 2.641
10.7282 1.033
10.7585 -1.668
10.7887 1.828
10.8190 -4.207
10.8493 0.696
10.8796 -3.932
10.9098 -1.042
10.9401 -1.849
10.9704 0.010
11.0007 -1.777
11.0310 -1.745
11.0612 1.740
11.0915 -1.339
11.1218 0.687
11.1521 -1.349
11.1824 -2.083
11.2126 -0.159
11.2429 1.348
11.2732 0.616
11.3035 1.134
11.3337 2.120
11.3640 2.638
11.3943 2.479
11.4246 6.383
11.4549 7.526
11.4851 12.524
11.5154 6.324
11.5457 6.373
11.5760 3.663
11.6063 1.682
11.6365 3.034
11.6668 2.876
11.6971 3.759
11.7274 6.310
11.7577 7.402
11.7879 4.744
11.8182 6.982
11.8485 8.647
11.8788 8.073
11.9090 8.228
11.9393 7.290
11.9696 8.434
11.9999 9.007
12.0302 6.818
12.0604 7.286
12.0907 7.234
12.1210 4.837
12.1513 5.983
12.1816 6.868
12.2118 6.138
12.2421 3.169
12.2724 4.732
12.3027 4.992
12.3329 2.857
12.3632 1.711
12.3935 2.024
12.4238 0.462
12.4541 0.723
12.4843 1.088
12.5146 1.036
12.5449 -1.098
12.5752 -0.004
12.6055 -0.263
12.6357 0.050
12.6660 0.728
12.6963 -1.875
12.7266 -0.712
12.7568 -0.486
12.7871 -2.031
12.8174 0.356
12.8477 -2.049
12.8780 0.025
12.9082 -0.453
12.9385 -0.930
12.9688 -0.921
12.9991 -0.269
13.0294 0.801
13.0596 -0.629
13.0899 0.337
13.1202 -1.510
13.1505 -0.407
13.1807 -1.647
13.2110 1.071
13.2413 -0.846
13.2716 1.351
13.3019 -0.357
13.3321 1.892
13.3624 -0.285
13.3927 1.340
13.4230 -0.733
13.4533 -0.827
13.4835 -0.336
13.5138 0.988
13.5441 -0.084
13.5744 1.136
13.6046 -0.144
13.6349 -0.903
13.6652 0.786
13.6955 0.183
13.7258 0.675
13.7560 1.895
13.7863 0.616
13.8166 0.222
13.8469 0.714
13.8772 2.455
13.9074 1.957
13.9377 1.147
13.9680 -0.132
13.9983 1.350
14.0285 1.478
14.0588 -0.218
14.0891 0.744
14.1194 0.507
14.1497 2.822
14.1799 2.273
14.2102 1.464
14.2405 4.769
14.2708 0.679
14.3011 2.734
14.3313 1.717
14.3616 3.564
14.3919 2.339
14.4222 4.863
14.4524 2.128
14.4827 1.579
14.5130 2.594
14.5433 2.931
14.5736 2.800
14.6038 2.200
14.6341 4.205
14.6644 5.376
14.6947 4.828
14.7250 4.125
14.7552 4.411
14.7855 5.114
14.8158 3.837
14.8461 5.634
14.8764 6.910
14.9066 4.696
14.9369 6.441
14.9672 4.280
14.9975 6.025
15.0277 7.614
15.0580 6.182
15.0883 5.532
15.1186 7.485
15.1489 6.262
15.1791 7.799
15.2094 7.566
15.2397 8.531
15.2700 5.329
15.3003 6.189
15.3305 5.331
15.3608 6.452
15.3911 7.157
15.4214 6.872
15.4516 6.535
15.4819 5.365
15.5122 5.809
15.5425 5.993
15.5728 8.522
15.6030 7.404
15.6333 6.703
15.6636 7.252
15.6939 8.322
15.7242 7.205
15.7544 5.775
15.7847 7.627
15.8150 9.114
15.8453 6.174
15.8755 7.349
15.9058 7.169
15.9361 5.167
15.9664 4.467
15.9967 6.736
16.0269 7.443
16.0572 7.003
16.0875 6.304
16.1178 4.719
16.1481 3.030
16.1783 3.476
16.2086 6.423
16.2389 5.828
16.2692 3.827
16.2994 5.055
16.3297 4.617
16.3600 4.543
16.3903 3.740
16.4206 4.656
16.4508 3.541
16.4811 5.342
16.5114 2.769
16.5417 4.102
16.5720 4.081
16.6022 4.164
16.6325 3.102
16.6628 2.664
16.6931 4.987
16.7233 3.821
16.7536 3.801
16.7839 2.218
16.8142 4.229
16.8445 5.615
16.8747 2.678
16.9050 5.106
16.9353 4.773
16.9656 4.910
16.9959 6.192
17.0261 8.151
17.0564 6.517
17.0867 5.664
17.1170 7.312
17.1472 4.896
17.1775 4.877
17.2078 5.118
17.2381 4.266
17.2684 4.403
17.2986 5.426
17.3289 4.001
17.3592 5.128
17.3895 3.443
17.4198 4.570
17.4500 2.416
17.4803 4.169
17.5106 3.057
17.5409 3.143
17.5712 2.187
17.6014 2.794
17.6317 2.724
17.6620 3.332
17.6923 1.751
17.7225 3.296
17.7528 1.404
17.7831 3.261
17.8134 3.557
17.8437 3.904
17.8739 3.210
17.9042 2.828
17.9345 3.019
17.9648 2.690
17.9951 3.819
18.0253 3.854
18.0556 1.911
18.0859 3.821
18.1162 4.795
18.1464 3.789
18.1767 5.439
18.2070 4.017
18.2373 4.313
18.2676 4.870
18.2978 7.510
18.3281 8.380
18.3584 8.312
18.3887 5.953
18.4190 9.271
18.4492 8.891
18.4795 11.375
18.5098 11.256
18.5401 13.532
18.5703 12.267
18.6006 12.409
18.6309 13.227
18.6612 15.816
18.6915 17.833
18.7217 18.860
18.7520 18.741
18.7823 22.216
18.8126 21.838
18.8429 21.198
18.8731 24.153
18.9034 21.639
18.9337 22.562
18.9640 22.444
18.9942 22.274
19.0245 19.656
19.0548 20.789
19.0851 20.150
19.1154 18.574
19.1456 18.405
19.1759 16.673
19.2062 13.951
19.2365 13.261
19.2668 10.956
19.2970 9.641
19.3273 8.483
19.3576 8.574
19.3879 7.728
19.4181 7.872
19.4484 5.620
19.4787 7.014
19.5090 4.345
19.5393 4.021
19.5695 4.321
19.5998 3.372
19.6301 2.630
19.6604 4.077
19.6907 2.503
19.7209 2.699
19.7512 1.386
19.7815 1.791
19.8118 1.259
19.8420 1.821
19.8723 0.611
19.9026 2.580
19.9329 0.902
19.9632 0.058
19.9934 1.714
20.0237 0.505
20.0540 1.380
20.0843 0.119
20.1146 0.734
20.1448 1.661
20.1751 -0.016
20.2054 -0.026
20.2357 1.318
20.2659 -0.046
20.2962 0.204
20.3265 0.351
20.3568 -0.284
20.3871 0.435
20.4173 0.686
20.4476 -0.990
20.4779 0.251
20.5082 -0.175
20.5385 0.753
20.5687 -0.245
20.5990 0.423
20.6293 0.049
20.6596 -0.428
20.6899 -0.541
20.7201 0.046
20.7504 0.061
20.7807 -0.445
20.8110 0.455
20.8412 0.262
20.8715 0.485
20.9018 0.396
20.9321 0.255
20.9624 0.375
20.9926 0.547
21.0229 0.927
21.0532 0.786
21.0835 1.010
21.1138 1.391
21.1440 -0.208
21.1743 -0.348
21.2046 1.959
21.2349 1.194
21.2651 0.690
21.2954 0.654
21.3257 0.202
21.3560 -0.042
21.3863 1.902
21.4165 1.033
21.4468 -0.461
21.4771 0.389
21.5074 0.146
21.5377 -0.410
21.5679 0.337
21.5982 0.979
21.6285 -0.358
21.6588 0.441
21.6890 -0.167
21.7193 0.684
21.7496 0.285
21.7799 0.407
21.8102 0.269
21.8404 1.016
21.8707 -0.737
21.9010 -0.510
21.9313 0.571
21.9616 1.392
21.9918 -0.600
22.0221 -0.456
22.0524 0.469
22.0827 0.405
22.1129 0.185
22.1432 -0.036
22.1735 0.630
22.2038 -0.372
22.2341 1.387
22.2643 0.022
22.2946 0.948
22.3249 -0.210
22.3552 -0.169
22.3855 0.601
22.4157 0.590
22.4460 -0.098
22.4763 0.464
22.5066 0.714
22.5368 1.796
22.5671 -0.506
22.5974 0.890
22.6277 0.879
22.6580 1.077
22.6882 -0.079
22.7185 0.848
22.7488 -0.256
22.7791 -0.526
22.8094 0.192
22.8396 0.858
22.8699 -0.142
22.9002 -0.518
22.9305 0.201
22.9607 -0.278
22.9910 0.284
23.0213 -0.924
23.0516 -0.101
23.0819 0.566
23.1121 0.451
23.1424 0.389
23.1727 1.265
23.2030 1.255
23.2333 1.870
23.2635 0.923
23.2938 0.601
23.3241 0.331
23.3544 1.415
23.3846 -0.053
23.4149 0.876
23.4452 1.752
23.4755 1.222
23.5058 1.890
23.5360 0.111
23.5663 1.508
23.5966 2.072
23.6269 1.647
23.6572 -0.080
23.6874 1.265
23.7177 2.091
23.7480 1.666
23.7783 2.387
23.8086 1.285
23.8388 1.225
23.8691 0.175
23.8994 2.511
23.9297 1.826
23.9599 1.298
23.9902 2.280
24.0205 2.064
24.0508 3.880
24.0811 2.571
24.1113 3.188
24.1416 3.494
24.1719 3.643
24.2022 2.491
24.2325 3.161
24.2627 5.915
24.2930 5.960
24.3233 5.172
24.3536 5.062
24.3838 6.670
24.4141 6.351
24.4444 5.460
24.4747 6.131
24.5050 6.906
24.5352 7.317
24.5655 5.644
24.5958 7.201
24.6261 8.758
24.6564 7.971
24.6866 8.539
24.7169 8.221
24.7472 7.486
24.7775 8.106
24.8077 8.830
24.8380 8.096
24.8683 8.508
24.8986 9.857
24.9289 8.915
24.9591 9.067
24.9894 9.271
25.0197 10.881
25.0500 9.470
25.0803 9.101
25.1105 9.097
25.1408 11.124
25.1711 10.027
25.2014 10.492
25.2316 8.769
25.2619 11.057
25.2922 11.366
25.3225 11.206
25.3528 11.151
25.3830 11.252
25.4133 11.144
25.4436 10.776
25.4739 13.534
25.5042 13.322
25.5344 10.872
25.5647 14.358
25.5950 10.814
25.6253 15.186
25.6555 12.892
25.6858 10.181
25.7161 11.273
25.7464 13.041
25.7767 12.414
25.8069 11.162
25.8372 9.494
25.8675 9.804
25.8978 11.313
25.9281 8.551
25.9583 10.320
25.9886 8.860
26.0189 8.234
26.0492 8.961
26.0794 9.064
26.1097 8.230
26.1400 9.062
26.1703 8.072
26.2006 8.227
26.2308 8.799
26.2611 7.652
26.2914 9.631
26.3217 8.485
26.3520 9.578
26.3822 8.640
26.4125 7.911
26.4428 8.900
26.4731 8.275
26.5034 11.244
26.5336 9.161
26.5639 10.515
26.5942 9.890
26.6245 10.464
26.6547 12.443
26.6850 12.444
26.7153 14.163
26.7456 15.258
26.7759 16.977
26.8061 17.447
26.8364 20.000
26.8667 20.105
26.8970 20.471
26.9273 21.358
26.9575 22.349
26.9878 23.496
27.0181 22.768
27.0484 21.989
27.0786 21.261
27.1089 21.992
27.1392 19.651
27.1695 20.173
27.1998 16.530
27.2300 17.105
27.2603 16.117
27.2906 16.901
27.3209 16.539
27.3512 14.771
27.3814 15.607
27.4117 14.776
27.4420 13.893
27.4723 15.823
27.5025 14.785
27.5328 14.840
27.5631 14.687
27.5934 14.378
27.6237 13.287
27.6539 13.551
27.6842 13.086
27.7145 14.965
27.7448 15.854
27.7751 14.503
27.8053 11.955
27.8356 14.980
27.8659 15.453
27.8962 16.343
27.9264 15.461
27.9567 13.643
27.9870 16.876
28.0173 14.329
28.0476 14.854
28.0778 17.099
28.1081 18.197
28.1384 16.119
28.1687 18.311
28.1990 15.087
28.2292 16.551
28.2595 17.702
28.2898 18.124
28.3201 17.921
28.3503 19.489
28.3806 18.297
28.4109 18.511
28.4412 17.267
28.4715 19.877
28.5017 17.487
28.5320 18.378
28.5623 20.416
28.5926 18.755
28.6229 17.876
28.6531 17.675
28.6834 17.837
28.7137 15.656
28.7440 16.392
28.7742 15.618
28.8045 14.166
28.8348 12.403
28.8651 12.670
28.8954 10.698
28.9256 9.455
28.9559 9.150
28.9862 9.835
29.0165 7.759
29.0468 7.298
29.0770 6.108
29.1073 6.845
29.1376 5.186
29.1679 4.361
29.1981 5.567
29.2284 1.564
29.2587 5.323
29.2890 5.175
29.3193 3.256
29.3495 3.629
29.3798 2.127
29.4101 3.386
29.4404 3.134
29.4707 2.675
29.5009 3.361
29.5312 1.026
29.5615 1.712
29.5918 1.201
29.6221 2.043
29.6523 1.636
29.6826 1.333
29.7129 2.228
29.7432 3.071
29.7734 2.248
29.8037 1.737
29.8340 1.122
29.8643 0.507
29.8946 1.194
29.9248 1.413
29.9551 -0.244
29.9854 -0.077
30.0157 0.715
30.0460 -0.264
30.0762 1.413
30.1065 0.435
30.1368 1.122
30.1671 0.873
30.1973 0.780
30.2276 0.218
30.2579 0.698
30.2882 0.866
30.3185 0.825
30.3487 0.264
30.3790 0.171
30.4093 -0.546
30.4396 -0.121
30.4699 0.928
30.5001 0.676
30.5304 0.008
30.5607 1.526
30.5910 0.285
30.6212 0.242
30.6515 0.094
30.6818 0.936
30.7121 0.164
30.7424 1.683
30.7726 1.953
30.8029 1.910
30.8332 1.346
30.8635 3.179
30.8938 1.365
30.9240 2.156
30.9543 3.259
30.9846 2.904
31.0149 2.758
31.0451 3.810
31.0754 2.934
31.1057 3.986
31.1360 4.205
31.1663 3.277
31.1965 3.861
31.2268 4.079
31.2571 3.152
31.2874 3.528
31.3177 2.445
31.3479 2.403
31.3782 1.633
31.4085 2.217
31.4388 0.770
31.4690 1.718
31.4993 1.365
31.5296 1.533
31.5599 0.867
31.5902 0.670
31.6204 0.369
31.6507 2.152
31.6810 0.758
31.7113 0.509
31.7416 -0.208
31.7718 0.377
31.8021 0.389
31.8324 0.037
31.8627 0.414
31.8929 0.010
31.9232 0.491
31.9535 0.816
31.9838 0.516
32.0141 1.571
32.0443 0.281
32.0746 1.024
32.1049 0.203
32.1352 0.581
32.1655 0.282
32.1957 0.920
32.2260 0.986
32.2563 -0.407
32.2866 0.180
32.3169 0.662
32.3471 0.259
32.3774 0.898
32.4077 0.339
32.4380 0.458
32.4682 1.097
32.4985 1.267
32.5288 1.750
32.5591 1.869
32.5894 1.779
32.6196 2.002
32.6499 2.434
32.6802 3.542
32.7105 2.568
32.7408 2.947
32.7710 2.962
32.8013 1.936
32.8316 2.159
32.8619 3.425
32.8921 0.576
32.9224 0.904
32.9527 0.242
32.9830 1.872
33.0133 1.159
33.0435 0.290
33.0738 1.139
33.1041 1.728
33.1344 1.379
33.1647 1.239
33.1949 1.360
33.2252 0.856
33.2555 0.455
33.2858 0.993
33.3160 0.020
33.3463 0.922
33.3766 0.887
33.4069 -0.033
33.4372 0.452
33.4674 -0.208
33.4977 0.070
33.5280 0.296
33.5583 -1.197
33.5886 -0.243
33.6188 0.658
33.6491 0.206
33.6794 0.952
33.7097 0.917
33.7399 0.621
33.7702 1.731
33.8005 0.759
33.8308 0.255
33.8611 0.741
33.8913 1.591
33.9216 -0.214
33.9519 0.116
33.9822 1.279
34.0125 1.349
34.0427 1.835
34.0730 0.968
34.1033 0.829
34.1336 2.045
34.1638 2.063
34.1941 0.727
34.2244 1.318
34.2547 1.336
34.2850 1.459
34.3152 -0.033
34.3455 0.923
34.3758 -0.725
34.4061 0.596
34.4364 0.302
34.4666 1.884
34.4969 0.913
34.5272 0.360
34.5575 0.431
34.5877 -0.227
34.6180 -0.572
34.6483 0.259
34.6786 0.881
34.7089 0.410
34.7391 0.512
34.7694 0.562
34.7997 2.331
34.8300 1.079
34.8603 1.858
34.8905 1.909
34.9208 1.230
34.9511 1.645
34.9814 1.331
35.0116 0.808
35.0419 1.536
35.0722 0.858
35.1025 1.378
35.1328 0.543
35.1630 0.646
35.1933 1.375
35.2236 1.270
35.2539 0.696
35.2842 1.685
35.3144 1.685
35.3447 1.111
35.3750 0.851
35.4053 2.100
35.4356 1.996
35.4658 2.048
35.4961 2.204
35.5264 2.152
35.5567 2.830
35.5869 3.455
35.6172 3.507
35.6475 3.091
35.6778 3.717
35.7081 3.405
35.7383 2.937
35.7686 4.552
35.7989 5.386
35.8292 5.075
35.8595 6.274
35.8897 6.379
35.9200 6.277
35.9503 5.184
35.9806 4.352
36.0108 5.760
36.0411 4.460
36.0714 5.347
36.1017 4.620
36.1320 4.726
36.1622 4.103
36.1925 3.428
36.2228 4.940
36.2531 4.682
36.2834 4.424
36.3136 3.124
36.3439 2.710
36.3742 2.348
36.4045 2.403
36.4347 1.781
36.4650 1.471
36.4953 2.412
36.5256 2.207
36.5559 1.533
36.5861 1.901
36.6164 2.373
36.6467 1.908
36.6770 1.026
36.7073 1.863
36.7375 2.387
36.7678 2.756
36.7981 1.093
36.8284 1.878
36.8586 0.841
36.8889 1.105
36.9192 1.578
36.9495 1.218
36.9798 1.327
37.0100 2.581
37.0403 1.805
37.0706 1.914
37.1009 2.179
37.1312 2.392
37.1614 1.147
37.1917 1.985
37.2220 2.303
37.2523 2.517
37.2825 1.116
37.3128 2.215
37.3431 1.544
37.3734 1.549
37.4037 1.086
37.4339 1.457
37.4642 0.890
37.4945 2.354
37.5248 1.370
37.5551 1.429
37.5853 1.383
37.6156 2.535
37.6459 1.864
37.6762 1.923
37.7064 1.305
37.7367 3.186
37.7670 2.204
37.7973 1.638
37.8276 0.186
37.8578 1.548
37.8881 1.034
37.9184 1.927
37.9487 2.715
37.9790 2.358
38.0092 2.470
38.0395 1.748
38.0698 1.339
38.1001 1.920
38.1304 2.188
38.1606 2.092
38.1909 1.788
38.2212 2.317
38.2515 2.377
38.2817 2.698
38.3120 2.134
38.3423 1.309
38.3726 1.057
38.4029 1.430
38.4331 1.543
38.4634 1.656
38.4937 1.717
38.5240 0.633
38.5543 0.382
38.5845 1.068
38.6148 0.556
38.6451 -0.059
38.6754 0.992
38.7056 0.481
38.7359 1.845
38.7662 0.657
38.7965 0.354
38.8268 0.937
38.8570 0.478
38.8873 0.593
38.9176 0.186
38.9479 -0.064
38.9782 -0.105
39.0084 0.374
39.0387 0.645
39.0690 0.395
39.0993 0.771
39.1295 0.000
39.1598 -0.041
39.1901 -0.238
39.2204 0.398
39.2507 0.826
39.2809 0.056
39.3112 -0.141
39.3415 -0.494
39.3718 0.179
39.4021 0.488
39.4323 -0.089
39.4626 0.324
39.4929 0.425
39.5232 0.474
39.5534 0.783
39.5837 -0.002
39.6140 -0.161
39.6443 -0.216
39.6746 0.406
39.7048 -0.222
39.7351 0.556
39.7654 0.449
39.7957 -0.074
39.8260 -0.285
39.8562 0.494
39.8865 -0.134
39.9168 0.749
39.9471 0.278
39.9773 -0.453
40.0076 0.639
40.0379 1.314
40.0682 0.896
40.0985 0.790
40.1287 1.257
40.1590 0.682
40.1893 1.202
40.2196 0.940
40.2499 1.147
40.2801 1.458
40.3104 0.572
40.3407 1.300
40.3710 0.987
40.4012 1.507
40.4315 1.454
40.4618 1.557
40.4921 1.609
40.5224 0.306
40.5526 1.087
40.5829 2.076
40.6132 1.764
40.6435 1.868
40.6738 1.555
40.7040 2.076
40.7343 0.462
40.7646 1.504
40.7949 1.139
40.8251 0.932
40.8554 0.932
40.8857 0.620
40.9160 1.402
40.9463 1.716
40.9765 1.300
41.0068 0.467
41.0371 0.625
41.0674 1.147
41.0977 0.158
41.1279 0.576
41.1582 1.203
41.1885 0.736
41.2188 0.529
41.2491 1.156
41.2793 0.637
41.3096 0.586
41.3399 1.005
41.3702 0.486
41.4004 0.853
41.4307 0.491
41.4610 0.493
41.4913 -0.286
41.5216 1.383
41.5518 0.240
41.5821 0.764
41.6124 -0.171
41.6427 0.405
41.6730 0.929
41.7032 0.567
41.7335 0.362
41.7638 0.521
41.7941 1.098
41.8243 1.414
41.8546 -0.145
41.8849 0.848
41.9152 0.852
41.9455 0.647
41.9757 -0.339
42.0060 1.020
42.0363 0.919
42.0666 1.236
42.0969 0.459
42.1271 1.036
42.1574 0.728
42.1877 0.472
42.2180 0.842
42.2482 -0.404
42.2785 0.903
42.3088 0.127
42.3391 -0.181
42.3694 0.137
42.3996 0.663
42.4299 -0.061
42.4602 0.205
42.4905 0.783
42.5208 -0.253
42.5510 -0.039
42.5813 -0.190
42.6116 0.024
42.6419 -0.230
42.6721 0.140
42.7024 0.251
42.7327 -0.368
42.7630 -0.213
42.7933 -0.162
42.8235 -0.476
42.8538 0.409
42.8841 -0.217
42.9144 0.355
42.9447 0.302
42.9749 0.302
43.0052 -0.271
43.0355 0.145
43.0658 0.509
43.0960 -0.064
43.1263 -0.012
43.1566 -0.012
43.1869 0.196
43.2172 -0.585
43.2474 -0.116
43.2777 0.197
43.3080 -0.011
43.3383 0.459
43.3686 -0.634
43.3988 0.616
43.4291 -0.581
43.4594 -0.007
43.4897 0.463
43.5199 -0.109
43.5502 -0.368
43.5805 -0.160
43.6108 -0.056
43.6411 -0.368
43.6713 0.046
43.7016 -0.061
43.7319 0.614
43.7622 0.091
43.7925 -0.327
43.8227 -0.017
43.8530 0.606
43.8833 -0.177
43.9136 0.030
43.9439 -0.857
43.9741 0.548
44.0044 0.234
44.0347 0.180
44.0650 -0.134
44.0952 0.022
44.1255 0.698
44.1558 0.592
44.1861 -0.398
44.2164 0.747
44.2466 0.121
44.2769 0.954
44.3072 0.276
44.3375 0.484
44.3678 -0.037
44.3980 0.848
44.4283 0.327
44.4586 -0.246
44.4889 0.379
44.5191 0.484
44.5494 0.744
44.5797 0.380
44.6100 0.016
44.6403 0.068
44.6705 0.017
44.7008 0.382
44.7311 0.279
44.7614 0.175
44.7917 1.062
44.8219 0.229
44.8522 1.012
44.8825 0.388
44.9128 -0.027
44.9430 0.391
44.9733 -0.389
45.0036 0.185
45.0339 -0.178
45.0642 0.762
45.0944 0.451
45.1247 1.026
45.1550 0.299
45.1853 0.249
45.2156 1.240
45.2458 0.357
45.2761 0.828
45.3064 0.623
45.3367 -0.208
45.3669 1.357
45.3972 0.318
45.4275 0.165
45.4578 1.001
45.4881 0.639
45.5183 1.320
45.5486 0.437
45.5789 0.753
45.6092 0.079
45.6395 0.916
45.6697 0.764
45.7000 0.246
45.7303 1.031
45.7606 0.827
45.7908 0.622
45.8211 0.574
45.8514 -0.047
45.8817 0.322
45.9120 0.326
45.9422 0.227
45.9725 0.283
46.0028 0.652
46.0331 1.074
46.0634 0.453
46.0936 0.042
46.1239 0.359
46.1542 0.104
46.1845 0.577
46.2147 0.531
46.2450 0.171
46.2753 -0.136
46.3056 0.859
46.3359 0.708
46.3661 -0.171
46.3964 0.459
46.4267 0.726
46.4570 0.680
46.4873 0.529
46.5175 0.952
46.5478 -0.031
46.5781 -0.390
46.6084 0.063
46.6386 -0.839
46.6689 0.812
46.6992 -0.090
46.7295 0.051
46.7598 0.608
46.7900 0.540
46.8203 0.212
46.8506 0.405
46.8809 -0.392
46.9112 0.270
46.9414 0.567
46.9717 -0.125
47.0020 -0.349
47.0323 0.730
47.0626 -0.066
47.0928 0.753
47.1231 0.321
47.1534 0.254
47.1837 0.032
47.2139 0.330
47.2442 0.211
47.2745 -0.064
47.3048 0.391
47.3351 0.950
47.3653 0.675
47.3956 0.662
47.4259 0.752
47.4562 0.322
47.4865 0.672
47.5167 1.284
47.5470 0.854
47.5773 0.945
47.6076 1.036
47.6378 1.387
47.6681 0.749
47.6984 0.944
47.7287 0.463
47.7590 0.814
47.7892 1.635
47.8195 1.414
47.8498 1.558
47.8801 1.181
47.9104 1.220
47.9406 0.739
47.9709 0.310
48.0012 0.819
48.0315 0.911
48.0617 1.629
48.0920 1.252
48.1223 0.303
48.1526 0.396
48.1829 0.644
48.2131 0.945
48.2434 0.622
48.2737 0.558
48.3040 1.328
48.3343 0.953
48.3645 1.098
48.3948 1.295
48.4251 1.337
48.4554 0.493
48.4856 0.794
48.5159 1.201
48.5462 0.721
48.5765 0.659
48.6068 2.419
48.6370 1.576
48.6673 1.878
48.6976 1.139
48.7279 2.015
48.7582 2.317
48.7884 2.256
48.8187 3.548
48.8490 2.236
48.8793 2.696
48.9095 2.790
48.9398 3.719
48.9701 3.241
49.0004 3.544
49.0307 2.858
49.0609 2.276
49.0912 3.413
49.1215 3.248
49.1518 3.448
49.1821 2.346
49.2123 1.660
49.2426 2.173
49.2729 2.373
49.3032 2.469
49.3334 3.658
49.3637 1.411
49.3940 1.507
49.4243 1.864
49.4546 2.377
49.4848 1.848
49.5151 1.528
49.5454 1.677
49.5757 1.357
49.6060 1.506
49.6362 1.499
49.6665 2.482
49.6968 0.443
49.7271 0.905
49.7574 1.315
49.7876 0.475
49.8179 1.770
49.8482 1.347
49.8785 0.924
49.9087 1.543
49.9390 0.807
49.9693 1.478
49.9996 1.993
50.0299 1.101
50.0601 0.991
50.0904 1.610
50.1207 1.500
50.1510 0.818
50.1813 2.427
50.2115 1.952
50.2418 2.051
50.2721 3.556
50.3024 2.093
50.3326 1.827
50.3629 2.135
50.3932 0.880
50.4235 2.125
50.4538 1.287
50.4840 1.282
50.5143 1.903
50.5446 3.044
50.5749 2.988
50.6052 2.619
50.6354 1.469
50.6657 3.548
50.6960 3.648
50.7263 2.707
50.7565 2.495
50.7868 2.335
50.8171 2.539
50.8474 1.598
50.8777 2.376
50.9079 1.643
50.9382 1.692
50.9685 1.637
50.9988 2.155
51.0291 2.568
51.0593 1.836
51.0896 1.677
51.1199 1.258
51.1502 1.984
51.1804 2.450
51.2107 1.719
51.2410 1.352
51.2713 1.662
51.3016 1.972
51.3318 1.762
51.3621 2.541
51.3924 2.539
51.4227 1.443
51.4530 1.546
51.4832 3.315
51.5135 2.480
51.5438 1.906
51.5741 2.529
51.6043 2.111
51.6346 1.016
51.6649 1.432
51.6952 1.743
51.7255 2.628
51.7557 1.533
51.7860 1.480
51.8163 0.438
51.8466 1.531
51.8769 1.010
51.9071 1.947
51.9374 1.322
51.9677 1.426
51.9980 1.373
52.0282 1.842
52.0585 0.748
52.0888 1.790
52.1191 0.853
52.1494 0.489
52.1796 0.750
52.2099 1.583
52.2402 0.594
52.2705 1.116
52.3008 0.075
52.3310 1.638
52.3613 1.067
52.3916 0.495
52.4219 0.860
52.4521 1.070
52.4824 0.915
52.5127 0.656
52.5430 1.126
52.5733 0.607
52.6035 1.182
52.6338 1.340
52.6641 0.821
52.6944 0.979
52.7247 1.189
52.7549 0.931
52.7852 0.204
52.8155 0.467
52.8458 0.573
52.8761 0.055
52.9063 -0.151
52.9366 0.529
52.9669 -0.145
52.9972 0.431
53.0274 1.319
53.0577 0.593
53.0880 0.804
53.1183 0.391
53.1486 0.134
53.1788 0.033
53.2091 0.870
53.2394 1.238
53.2697 0.721
53.3000 0.412
53.3302 0.729
53.3605 0.628
53.3908 0.945
53.4211 0.637
53.4513 -0.140
53.4816 0.228
53.5119 0.233
53.5422 1.019
53.5725 0.138
53.6027 0.195
53.6330 0.043
53.6633 -0.056
53.6936 -0.728
53.7239 0.108
53.7541 0.424
53.7844 -0.198
53.8147 0.691
53.8450 0.642
53.8752 0.177
53.9055 0.701
53.9358 0.653
53.9661 0.500
53.9964 1.181
54.0266 -0.377
54.0569 -0.373
54.0872 -0.004
54.1175 0.677
54.1478 0.473
54.1780 0.269
54.2083 0.638
54.2386 0.747
54.2689 1.533
54.2991 0.184
54.3294 0.188
54.3597 1.079
54.3900 -0.062
54.4203 0.777
54.4505 0.469
54.4808 0.006
54.5111 0.532
54.5414 0.225
54.5717 -0.082
54.6019 0.341
54.6322 0.399
54.6625 0.404
54.6928 0.358
54.7230 0.729
54.7533 0.891
54.7836 -0.092
54.8139 -0.086
54.8442 1.275
54.8744 0.448
54.9047 1.184
54.9350 1.034
54.9653 0.989
54.9956 0.475
55.0258 0.847
55.0561 1.791
55.0864 1.277
55.1167 1.493
55.1469 1.188
55.1772 1.456
55.2075 0.369
55.2378 1.783
55.2681 1.270
55.2983 2.215
55.3286 2.484
55.3589 2.440
55.3892 2.708
55.4195 2.300
55.4497 2.724
55.4800 4.816
55.5103 3.991
55.5406 3.791
55.5709 3.071
55.6011 3.600
55.6314 5.067
55.6617 2.733
55.6920 3.523
55.7222 3.428
55.7525 3.281
55.7828 4.592
55.8131 4.028
55.8434 3.204
55.8736 1.860
55.9039 2.286
55.9342 2.452
55.9645 1.628
55.9948 2.159
56.0250 1.752
56.0553 1.450
56.0856 0.835
56.1159 1.314
56.1461 0.960
56.1764 0.554
56.2067 0.720
56.2370 -0.259
56.2673 1.367
56.2975 0.336
56.3278 0.399
56.3581 0.618
56.3884 0.577
56.4187 -0.297
56.4489 -0.234
56.4792 0.402
56.5095 -0.159
56.5398 -0.252
56.5700 -0.397
56.6003 -0.336
56.6306 0.089
56.6609 -0.111
56.6912 0.418
56.7214 -0.146
56.7517 0.436
56.7820 0.132
56.8123 1.078
56.8426 0.046
56.8728 0.107
56.9031 -0.144
56.9334 -0.239
56.9637 -0.334
56.9939 -0.220
57.0242 0.050
57.0545 -0.149
57.0848 0.278
57.1151 -0.442
57.1453 -0.224
57.1756 -0.059
57.2059 -0.101
57.2362 0.169
57.2665 0.335
57.2967 1.022
57.3270 0.459
57.3573 -0.208
57.3876 0.322
57.4178 -0.501
57.4481 0.030
57.4784 0.145
57.5087 0.728
57.5390 0.270
57.5692 1.010
57.5995 -0.073
57.6298 0.302
57.6601 0.313
57.6904 -0.145
57.7206 0.491
57.7509 -0.644
57.7812 -0.372
57.8115 -0.430
57.8417 0.554
57.8720 0.340
57.9023 0.439
57.9326 0.121
57.9629 -0.770
57.9931 0.683
58.0234 0.209
58.0537 0.412
58.0840 0.668
58.1143 1.236
58.1445 0.866
58.1748 0.601
58.2051 1.013
58.2354 1.321
58.2656 0.588
58.2959 1.625
58.3262 0.996
58.3565 0.731
58.3868 0.935
58.4170 0.723
58.4473 0.771
58.4776 1.757
58.5079 0.972
58.5382 1.229
58.5684 0.809
58.5987 1.743
58.6290 1.479
58.6593 1.059
58.6896 0.900
58.7198 0.636
58.7501 1.518
58.7804 1.776
58.8107 0.627
58.8409 0.729
58.8712 0.987
58.9015 -0.631
58.9318 0.461
58.9621 0.042
58.9923 0.873
59.0226 0.766
59.0529 1.181
59.0832 1.283
59.1135 0.500
59.1437 0.602
59.1740 1.434
59.2043 1.276
59.2346 1.170
59.2648 0.283
59.2951 0.959
59.3254 0.802
59.3557 1.998
59.3860 1.581
59.4162 0.278
59.4465 1.058
59.4768 0.328
59.5071 2.046
59.5374 2.202
59.5676 1.993
59.5979 1.732
59.6282 1.367
59.6585 0.794
59.6887 1.366
59.7190 2.095
59.7493 0.637
59.7796 1.575
59.8099 1.054
59.8401 2.356
59.8704 1.003
59.9007 0.482
59.9310 1.681
59.9613 1.160
59.9915 1.942
60.0218 0.849
60.0521 1.892
60.0824 1.476
60.1126 1.582
60.1429 1.322
60.1732 1.324
60.2035 1.325
60.2338 1.222
60.2640 0.547
60.2943 1.434
60.3246 1.019
60.3549 0.760
60.3852 0.918
60.4154 0.712
60.4457 -0.223
60.4760 0.768
60.5063 0.406
60.5365 0.617
60.5668 0.880
60.5971 0.257
60.6274 0.624
60.6577 0.419
60.6879 0.213
60.7182 0.372
60.7485 -0.510
60.7788 0.014
60.8091 0.434
60.8393 1.270
60.8696 0.284
60.8999 -0.390
60.9302 -0.233
60.9604 0.705
60.9907 -0.024
61.0210 0.029
61.0513 -0.023
61.0816 0.186
61.1118 -0.229
61.1421 -0.020
61.1724 -0.019
61.2027 0.920
61.2330 -0.329
61.2632 0.349
61.2935 -0.014
61.3238 0.248
61.3541 -0.532
61.3844 0.668
61.4146 0.722
61.4449 0.099
61.4752 0.674
61.5055 -0.158
61.5357 -0.416
61.5660 0.315
61.5963 0.057
61.6266 0.060
61.6569 0.114
61.6871 -0.039
61.7174 0.484
61.7477 0.695
61.7780 -0.031
61.8083 -0.184
61.8385 -0.494
61.8688 0.236
61.8991 0.601
61.9294 1.175
61.9596 0.083
61.9899 0.709
62.0202 0.554
62.0505 0.399
62.0808 0.348
62.1110 -0.640
62.1413 0.664
62.1716 0.249
62.2019 -0.218
62.2322 1.190
62.2624 0.984
62.2927 0.933
62.3230 0.311
62.3533 0.990
62.3835 0.263
62.4138 0.890
62.4441 0.789
62.4744 1.364
62.5047 0.846
62.5349 1.161
62.5652 0.383
62.5955 1.323
62.6258 1.326
62.6561 0.861
62.6863 1.541
62.7166 0.711
62.7469 1.079
62.7772 1.760
62.8074 1.242
62.8377 0.882
62.8680 1.302
62.8983 0.525
62.9286 0.841
62.9588 1.626
62.9891 2.099
63.0194 1.062
63.0497 0.701
63.0800 1.070
63.1102 1.492
63.1405 1.236
63.1708 1.865
63.2011 1.245
63.2313 0.573
63.2616 1.880
63.2919 1.000
63.3222 1.421
63.3525 1.479
63.3827 0.546
63.4130 0.708
63.4433 0.714
63.4736 0.615
63.5039 1.662
63.5341 0.783
63.5644 1.570
63.5947 1.836
63.6250 1.009
63.6552 1.171
63.6855 1.438
63.7158 2.330
63.7461 2.076
63.7764 0.467
63.8066 1.724
63.8369 1.991
63.8672 1.425
63.8975 1.380
63.9278 0.918
63.9580 2.019
63.9883 1.922
64.0186 1.460
64.0489 1.467
64.0791 1.058
64.1094 1.743
64.1397 1.438
64.1700 1.966
64.2003 2.443
64.2305 2.346
64.2608 1.052
64.2911 1.581
64.3214 2.891
64.3517 1.649
64.3819 1.502
64.4122 0.989
64.4425 2.664
64.4728 1.319
64.5031 1.588
64.5333 1.649
64.5636 1.866
64.5939 2.083
64.6242 1.884
64.6544 1.893
64.6847 2.423
64.7150 2.068
64.7453 1.660
64.7756 1.513
64.8058 1.523
64.8361 2.106
64.8664 1.803
64.8967 1.240
64.9270 0.468
64.9572 1.468
64.9875 1.009
65.0178 0.707
65.0481 0.874
65.0783 0.884
65.1086 1.363
65.1389 1.009
65.1692 1.176
65.1995 0.406
65.2297 0.260
65.2600 0.740
65.2903 0.282
65.3206 0.606
65.3509 -0.216
65.3811 0.732
65.4114 -0.194
65.4417 0.130
65.4720 0.558
65.5022 0.206
65.5325 1.207
65.5628 0.281
65.5931 0.658
65.6234 -0.424
65.6536 -0.047
65.6839 -0.087
65.7142 0.185
65.7445 0.771
65.7748 0.158
65.8050 -0.246
65.8353 -0.337
65.8656 0.290
65.8959 -0.125
65.9261 0.399
65.9564 0.193
65.9867 0.091
66.0170 0.250
66.0473 0.253
66.0775 -0.317
66.1078 0.363
66.1381 0.053
66.1684 -0.360
66.1987 1.049
66.2289 0.271
66.2592 0.066
66.2895 0.226
66.3198 0.802
66.3500 0.181
66.3803 0.810
66.4106 0.189
66.4409 0.140
66.4712 0.353
66.5014 0.201
66.5317 0.257
66.5620 0.313
66.5923 0.266
66.6226 0.062
66.6528 -0.194
66.6831 0.383
66.7134 -0.028
66.7437 -0.076
66.7739 0.606
66.8042 0.247
66.8345 0.356
66.8648 0.257
66.8951 -0.102
66.9253 -0.149
66.9556 0.325
66.9859 0.279
67.0162 -0.080
67.0465 -0.074
67.0767 0.036
67.1070 0.614
67.1373 0.568
67.1676 -0.415
67.1978 0.112
67.2281 -0.142
67.2584 0.385
67.2887 0.391
67.3190 0.190
67.3492 0.300
67.3795 -0.162
67.4098 0.366
67.4401 1.206
67.4704 0.276
67.5006 0.179
67.5309 -0.022
67.5612 0.454
67.5915 0.201
67.6218 0.208
67.6520 0.789
67.6823 0.432
67.7126 0.335
67.7429 0.603
67.7731 1.028
67.8034 0.567
67.8337 0.679
67.8640 0.792
67.8943 0.592
67.9245 0.131
67.9548 0.504
67.9851 0.513
68.0154 0.157
68.0457 0.530
68.0759 0.018
68.1062 -0.442
68.1365 0.018
68.1668 0.217
68.1970 0.364
68.2273 0.564
68.2576 0.659
68.2879 0.338
68.3182 0.485
68.3484 -0.044
68.3787 0.989
68.4090 0.616
68.4393 0.243
68.4696 0.756
68.4998 0.123
68.5301 0.219
68.5604 -0.050
68.5907 0.307
68.6209 0.716
68.6512 -0.281
68.6815 0.492
68.7118 0.953
68.7421 0.529
68.7723 0.366
68.8026 1.296
68.8329 0.508
68.8632 0.344
68.8935 0.389
68.9237 0.591
68.9540 0.584
68.9843 0.734
69.0146 0.310
69.0448 0.356
69.0751 0.402
69.1054 0.447
69.1357 0.441
69.1660 0.799
69.1962 1.106
69.2265 0.371
69.2568 0.104
69.2871 0.776
69.3174 1.030
69.3476 0.921
69.3779 0.863
69.4082 0.441
69.4385 0.592
69.4687 0.118
69.4990 1.363
69.5293 0.837
69.5596 0.988
69.5899 0.358
69.6201 0.666
69.6504 0.661
69.6807 0.500
69.7110 0.965
69.7413 0.179
69.7715 0.018
69.8018 0.743
69.8321 -0.094
69.8624 0.162
69.8926 0.731
69.9229 0.727
69.9532 0.307
69.9835 0.824
70.0138 0.039
70.0440 0.035
70.0743 0.136
70.1046 0.706
70.1349 0.494
70.1652 0.230
70.1954 0.279
70.2257 0.693
70.2560 0.534
70.2863 0.687
70.3166 0.060
70.3468 0.838
70.3771 0.159
70.4074 -0.052
70.4377 0.466
70.4679 0.308
70.4982 0.462
70.5285 0.460
70.5588 0.041
70.5891 0.352
70.6193 0.610
70.6496 0.453
70.6799 0.399
70.7102 0.137
70.7405 0.656
70.7707 0.863
70.8010 0.029
70.8313 0.288
70.8616 -0.078
70.8918 -0.027
70.9221 0.024
70.9524 -0.028
70.9827 0.127
71.0130 -0.238
71.0432 0.022
71.0735 -0.031
71.1038 0.229
71.1341 0.229
71.1644 0.802
71.1946 -0.136
71.2249 0.437
71.2552 -0.344
71.2855 0.646
71.3157 -0.083
71.3460 0.386
71.3763 -0.030
71.4066 -0.030
71.4369 0.283
71.4671 0.128
71.4974 -0.236
71.5277 0.390
71.5580 -0.599
71.5883 -0.024
71.6185 -0.388
71.6488 0.186
71.6791 0.188
71.7094 -0.853
71.7396 0.086
71.7699 0.505
71.8002 0.454
71.8305 -0.325
71.8608 0.042
71.8910 0.044
71.9213 0.150
71.9516 -0.317
71.9819 -0.162
72.0122 -0.008
72.0424 0.251
72.0727 0.301
72.1030 0.769
72.1333 0.298
72.1635 -0.015
72.1938 0.088
72.2241 0.034
72.2544 0.085
72.2847 -0.384
72.3149 -0.021
72.3452 -0.230
72.3755 -0.543
72.4058 0.290
72.4361 0.341
72.4663 -0.024
72.4966 0.393
72.5269 0.132
72.5572 0.132
72.5874 0.028
72.6177 0.653
72.6480 -0.128
72.6783 0.028
72.7086 -0.180
72.7388 0.081
72.7691 -0.179
72.7994 1.124
72.8297 0.604
72.8600 0.344
72.8902 -0.384
72.9205 0.033
72.9508 0.138
72.9811 0.296
73.0113 -0.015
73.0416 0.715
73.0719 -0.586
73.1022 0.510
73.1325 0.095
73.1627 0.877
73.1930 -0.110
73.2233 -0.317
73.2536 0.046
73.2839 0.356
73.3141 0.198
73.3444 -0.376
73.3747 0.560
73.4050 -0.223
73.4353 -0.172
73.4655 -0.226
73.4958 0.086
73.5261 -0.176
73.5564 0.500
73.5866 0.082
73.6169 0.342
73.6472 0.498
73.6775 0.445
73.7078 0.028
73.7380 -0.129
73.7683 0.912
73.7986 1.120
73.8289 0.391
73.8592 -0.078
73.8894 0.703
73.9197 -0.547
73.9500 0.547
73.9803 -0.026
74.0105 0.443
74.0408 -0.025
74.0711 -0.025
74.1014 -0.024
74.1317 0.341
74.1619 0.238
74.1922 0.030
74.2225 0.969
74.2528 -0.540
74.2831 0.398
74.3133 0.399
74.3436 0.192
74.3739 0.402
74.4042 -0.013
74.4344 0.197
74.4647 0.251
74.4950 0.305
74.5253 0.671
74.5556 1.350
74.5858 0.310
74.6161 0.417
74.6464 0.471
74.6767 0.473
74.7070 0.997
74.7372 0.426
74.7675 0.220
74.7978 0.640
74.8281 0.382
74.8583 1.635
74.8886 0.752
74.9189 1.485
74.9492 0.602
74.9795 0.137
75.0097 -0.433
75.0400 0.144
75.0703 0.668
75.1006 1.088
75.1309 0.727
75.1611 1.148
75.1914 0.527
75.2217 1.155
75.2520 0.587
75.2822 1.059
75.3125 1.012
75.3428 0.235
75.3731 0.604
75.4034 -0.121
75.4336 0.456
75.4639 -0.372
75.4942 0.362
75.5245 0.992
75.5548 0.111
75.5850 -0.248
75.6153 -0.191
75.6456 0.074
75.6759 -0.337
75.7061 0.137
75.7364 0.299
75.7667 0.565
75.7970 0.518
75.8273 0.576
75.8575 0.530
75.8878 0.171
75.9181 0.386
75.9484 -0.077
75.9787 0.086
76.0089 0.144
76.0392 0.046
76.0695 0.001
76.0998 0.268
76.1301 0.639
76.1603 0.281
76.1906 0.236
76.2209 0.816
76.2512 -0.011
76.2814 0.153
76.3117 0.160
76.3420 0.376
76.3723 0.539
76.4026 0.182
76.4328 0.450
76.4631 0.302
76.4934 0.361
76.5237 0.005
76.5540 0.690
76.5842 0.906
76.6145 0.185
76.6448 -0.171
76.6751 0.306
76.7053 0.262
76.7356 0.791
76.7659 -0.346
76.7962 -0.285
76.8265 -0.029
76.8567 0.280
76.8870 -0.036
76.9173 0.272
76.9476 0.738
76.9779 0.109
77.0081 -0.259
77.0384 -0.054
77.0687 -0.213
77.0990 0.044
77.1292 0.614
77.1595 -0.066
77.1898 0.452
77.2201 0.710
77.2504 0.394
77.2806 0.444
77.3109 -0.392
77.3412 -0.238
77.3715 0.489
77.4018 0.799
77.4320 -0.245
77.4623 -0.143
77.4926 0.376
77.5229 0.270
77.5531 -0.304
77.5834 -0.098
77.6137 0.734
77.6440 0.472
77.6743 -0.206
77.7045 0.053
77.7348 0.260
77.7651 0.207
77.7954 0.101
77.8257 0.100
77.8559 0.881
77.8862 -0.214
77.9165 -0.058
77.9468 -0.059
77.9770 0.410
78.0073 0.253
78.0376 -0.216
78.0679 0.669
78.0982 -0.373
78.1284 0.200
78.1587 0.096
78.1890 -0.008
78.2193 -0.008
78.2496 0.201
78.2798 -0.059
78.3101 -0.475
78.3404 0.307
78.3707 -0.057
78.4009 -0.473
78.4312 0.153
78.4615 0.310
78.4918 0.207
78.5221 0.052
78.5523 -0.260
78.5826 -0.415
78.6129 0.628
78.6432 0.317
78.6735 -0.098
78.7037 -0.200
78.7340 0.010
78.7643 -0.144
78.7946 0.430
78.8248 0.016
78.8551 0.591
78.8854 0.020
78.9157 -0.290
78.9460 -0.135
78.9762 0.228
79.0065 0.487
79.0368 0.225
79.0671 0.485
79.0974 -0.350
79.1276 0.170
79.1579 0.117
79.1882 0.221
79.2185 -0.249
79.2488 0.323
79.2790 0.063
79.3093 0.323
79.3396 -0.407
79.3699 -0.251
79.4001 0.478
79.4304 0.374
79.4607 -0.303
79.4910 0.218
79.5213 0.583
79.5515 0.270
79.5818 0.115
79.6121 0.636
79.6424 0.584
79.6727 -0.092
79.7029 -0.300
79.7332 0.274
79.7635 0.327
79.7938 0.797
79.8240 -0.087
79.8543 0.747
79.8846 0.332
79.9149 0.437
79.9452 0.751
79.9754 -0.080
80.0057 -0.235
80.0360 -0.337
80.0663 0.285
80.0966 -0.239
80.1268 0.435
80.1571 0.172
80.1874 0.013
80.2177 1.157
80.2479 0.060
80.2782 0.058
80.3085 0.577
80.3388 0.106
80.3691 0.260
80.3993 0.362
80.4296 0.621
80.4599 0.619
80.4902 -0.164
80.5205 0.616
80.5507 0.197
80.5810 1.029
80.6113 0.611
80.6416 0.141
80.6718 0.557
80.7021 0.764
80.7324 0.138
80.7627 0.502
80.7930 0.501
80.8232 0.448
80.8535 -0.230
80.8838 0.030
80.9141 0.186
80.9444 0.290
80.9746 0.133
81.0049 0.654
81.0352 -0.075
81.0655 -0.283
81.0957 -0.231
81.1260 0.081
81.1563 -0.074
81.1866 0.551
81.2169 0.499
81.2471 0.135
81.2774 0.240
81.3077 0.189
81.3380 0.242
81.3683 0.347
81.3985 -0.277
81.4288 -0.380
81.4591 0.558
81.4894 0.508
81.5196 0.249
81.5499 0.198
81.5802 0.304
81.6105 -0.268
81.6408 0.620
81.6710 0.257
81.7013 0.259
81.7316 0.157
81.7619 0.263
81.7922 -0.256
81.8224 0.319
81.8527 -0.199
81.8830 0.533
81.9133 0.848
81.9436 -0.139
81.9738 -0.032
82.0041 -0.290
82.0344 -0.030
82.0647 0.178
82.0949 0.230
82.1252 0.438
82.1555 -0.188
82.1858 0.385
82.2161 0.281
82.2463 0.125
82.2766 0.073
82.3069 0.386
82.3372 0.074
82.3675 0.335
82.3977 0.127
82.4280 0.805
82.4583 0.701
82.4886 0.025
82.5188 -0.078
82.5491 0.027
82.5794 0.809
82.6097 0.133
82.6400 0.447
82.6702 0.344
82.7005 0.242
82.7308 -0.226
82.7611 0.193
82.7914 0.976
82.8216 0.613
82.8519 0.771
82.8822 0.773
82.9125 0.723
82.9427 0.673
82.9730 0.467
83.0033 0.782
83.0336 0.055
83.0639 -0.098
83.0941 0.113
83.1244 0.272
83.1547 1.108
83.1850 0.486
83.2153 0.437
83.2455 0.596
83.2758 0.391
83.3061 -0.231
83.3364 0.502
83.3666 0.297
83.3969 -0.325
83.4272 0.304
83.4575 0.152
83.4878 0.468
83.5180 0.055
83.5483 0.840
83.5786 0.584
83.6089 0.432
83.6392 -0.137
83.6694 0.441
83.6997 0.601
83.7300 0.345
83.7603 0.194
83.7905 -0.114
83.8208 0.516
83.8511 0.469
83.8814 -0.151
83.9117 0.895
83.9419 0.380
83.9722 0.229
84.0025 0.703
84.0328 -0.021
84.0631 -0.276
84.0933 -0.124
84.1236 0.705
84.1539 0.545
84.1842 0.332
84.2144 0.588
84.2447 0.636
84.2750 0.476
84.3053 0.316
84.3356 0.729
84.3658 0.204
84.3961 0.513
84.4264 0.353
84.4567 0.246
84.4870 0.607
84.5172 0.604
84.5475 0.028
84.5778 0.494
84.6081 0.022
84.6383 -0.137
84.6686 0.433
84.6989 0.170
84.7292 -0.041
84.7595 -0.512
84.7897 0.371
84.8200 0.056
84.8503 -0.415
84.8806 0.260
84.9109 0.570
84.9411 0.360
84.9714 -0.007
85.0017 0.356
85.0320 0.303
85.0623 -0.168
85.0925 0.508
85.1228 0.454
85.1531 -0.172
85.1834 0.348
85.2136 -0.227
85.2439 0.554
85.2742 -0.072
85.3045 0.187
85.3348 -0.074
85.3650 -0.179
85.3953 0.394
85.4256 -0.128
85.4559 0.601
85.4862 0.028
85.5164 0.652
85.5467 -0.181
85.5770 -0.285
85.6073 0.075
85.6375 0.331
85.6678 0.534
85.6981 0.582
85.7284 0.109
85.7587 0.365
85.7889 0.257
85.8192 -0.111
85.8495 0.249
85.8798 -0.067
85.9101 0.190
85.9403 0.238
85.9706 0.391
86.0009 0.648
86.0312 -0.085
86.0614 0.693
86.0917 0.065
86.1220 0.270
86.1523 -0.410
86.1826 0.733
86.2128 0.210
86.2431 0.415
86.2734 0.517
86.3037 0.410
86.3340 0.303
86.3642 0.822
86.3945 0.403
86.4248 0.557
86.4551 0.190
86.4853 0.188
86.5156 -0.178
86.5459 0.185
86.5762 0.443
86.6065 -0.235
86.6367 0.336
86.6670 0.595
86.6973 -0.344
86.7276 0.644
86.7579 -0.138
86.7881 0.278
86.8184 0.381
86.8487 0.588
86.8790 0.171
86.9092 0.170
86.9395 0.221
86.9698 -0.352
87.0001 -0.092
87.0304 0.741
87.0606 -0.041
87.0909 0.532
87.1212 0.740
87.1515 0.740
87.1818 0.168
87.2120 -0.041
87.2423 -0.144
87.2726 0.168
87.3029 0.429
87.3331 -0.247
87.3634 0.326
87.3937 0.431
87.4240 0.797
87.4543 -0.140
87.4845 0.121
87.5148 0.227
87.5451 0.124
87.5754 0.542
87.6057 0.022
87.6359 0.284
87.6662 0.650
87.6965 0.808
87.7268 -0.284
87.7571 -0.230
87.7873 0.032
87.8176 0.399
87.8479 0.505
87.8782 0.559
87.9084 -0.011
87.9387 0.460
87.9690 0.254
87.9993 0.152
88.0296 0.259
88.0598 0.730
88.0901 0.473
88.1204 0.788
88.1507 0.739
88.1810 0.378
88.2112 0.173
88.2415 0.280
88.2718 0.544
88.3021 0.860
88.3323 0.394
88.3626 0.554
88.3929 0.298
88.4232 0.510
88.4535 0.253
88.4837 0.413
88.5140 0.418
88.5443 0.057
88.5746 0.530
88.6049 0.326
88.6351 0.279
88.6654 -0.186
88.6957 0.079
88.7260 0.761
88.7562 0.662
88.7865 0.615
88.8168 0.151
88.8471 0.208
88.8774 0.630
88.9076 0.114
88.9379 -0.245
88.9682 0.385
88.9985 0.078
89.0288 -0.280
89.0590 -0.124
89.0893 0.137
89.1196 -0.071
89.1499 0.190
89.1801 0.139
89.2104 0.660
89.2407 -0.016
89.2710 -0.119
89.3013 -0.066
89.3315 -0.117
89.3618 0.093
89.3921 -0.271
89.4224 0.251
89.4527 0.722
89.4829 0.515
89.5132 0.048
89.5435 -0.367
89.5738 0.364
89.6040 -0.207
89.6343 0.420
89.6646 0.370
89.6949 0.164
89.7252 -0.042
89.7554 0.377
89.7857 0.588
89.8160 0.330
89.8463 0.124
89.8766 0.387
89.9068 -0.287
89.9371 0.289
89.9674 -0.125
89.9977 0.764
90.0279 0.246
90.0582 -0.219
90.0885 0.566
90.1188 0.100
90.1491 0.000
90.1793 0.628
90.2096 0.320
90.2399 0.376
90.2702 -0.141
90.3005 0.227
90.3307 0.075
90.3610 -0.494
90.3913 -0.028
90.4216 0.073
90.4518 0.278
90.4821 0.275
90.5124 -0.093
90.5427 0.113
90.5730 0.423
90.6032 0.368
90.6335 0.157
90.6638 0.727
90.6941 -0.160
90.7244 0.514
90.7546 -0.217
90.7849 0.302
90.8152 0.560
90.8455 0.662
90.8758 -0.017
90.9060 0.190
90.9363 0.292
90.9666 -0.074
90.9969 0.550
91.0271 0.184
91.0574 -0.078
91.0877 0.233
91.1180 0.284
91.1483 1.064
91.1785 -0.239
91.2088 0.281
91.2391 -0.240
91.2694 -0.085
91.2997 0.227
91.3299 0.227
91.3602 0.434
91.3905 -0.087
91.4208 0.590
91.4510 0.590
91.4813 0.382
91.5116 0.538
91.5419 0.382
91.5722 0.434
91.6024 0.070
91.6327 -0.346
91.6630 0.383
91.6933 0.696
91.7236 0.332
91.7538 0.750
91.7841 0.074
91.8144 0.439
91.8447 0.024
91.8749 -0.080
91.9052 0.182
91.9355 0.079
91.9658 0.081
91.9961 0.134
92.0263 0.292
92.0566 -0.175
92.0869 -0.225
92.1172 -0.276
92.1475 -0.120
92.1777 -0.016
92.2080 0.244
92.2383 0.608
92.2686 -0.069
92.2988 0.452
92.3291 0.243
92.3594 0.452
92.3897 0.191
92.4200 0.139
92.4502 0.244
92.4805 -0.068
92.5108 -0.172
92.5411 0.350
92.5714 -0.014
92.6016 0.403
92.6319 0.196
92.6622 0.145
92.6925 0.927
92.7227 -0.166
92.7530 0.304
92.7833 0.045
92.8136 0.411
92.8439 0.204
92.8741 -0.211
92.9044 0.156
92.9347 -0.415
92.9650 -0.104
92.9953 0.000
93.0255 0.572
93.0558 0.311
93.0861 -0.002
93.1164 0.466
93.1466 0.258
93.1769 0.049
93.2072 -0.316
93.2375 0.101
93.2678 0.414
93.2980 0.049
93.3283 0.414
93.3586 0.102
93.3889 0.102
93.4192 0.207
93.4494 -0.053
93.4797 0.521
93.5100 0.157
93.5403 -0.311
93.5706 0.315
93.6008 0.473
93.6311 0.213
93.6614 0.319
93.6917 0.945
93.7219 0.478
93.7522 0.479
93.7825 1.002
93.8128 -0.142
93.8431 -0.141
93.8733 0.538
93.9036 0.436
93.9339 0.386
93.9642 0.284
93.9945 0.338
94.0247 0.497
94.0550 0.447
94.0853 -0.019
94.1156 0.713
94.1458 0.507
94.1761 0.093
94.2064 0.200
94.2367 -0.005
94.2670 0.415
94.2972 0.053
94.3275 -0.048
94.3578 -0.409
94.3881 0.272
94.4184 0.692
94.4486 0.123
94.4789 0.595
94.5092 0.182
94.5395 0.342
94.5697 0.138
94.6000 0.559
94.6303 0.563
94.6606 -0.006
94.6909 0.155
94.7211 0.524
94.7514 -0.097
94.7817 0.220
94.8120 0.329
94.8423 -0.135
94.8725 0.287
94.9028 0.604
94.9331 0.609
94.9634 0.198
94.9936 0.151
95.0239 -0.260
95.0542 -0.158
95.0845 0.465
95.1148 -0.109
95.1450 0.098
95.1753 0.096
95.2056 0.512
95.2359 0.198
95.2662 0.040
95.2964 0.196
95.3267 -0.066
95.3570 0.402
95.3873 0.454
95.4175 0.453
95.4478 1.338
95.4781 0.191
95.5084 0.035
95.5387 -0.070
95.5689 0.295
95.5992 -0.174
95.6295 0.294
95.6598 0.399
95.6901 0.138
95.7203 0.139
95.7506 0.191
95.7809 0.087
95.8112 0.400
95.8414 0.297
95.8717 1.079
95.9020 -0.014
95.9323 0.663
95.9626 0.456
95.9928 0.613
96.0231 0.615
96.0534 0.407
96.0837 0.669
96.1140 0.514
96.1442 0.255
96.1745 -0.108
96.2048 -0.002
96.2351 -0.260
96.2653 -0.267
96.2956 0.872
96.3259 0.137
96.3562 -0.078
96.3865 0.229
96.4167 0.587
96.4470 0.529
96.4773 0.159
96.5076 0.153
96.5379 0.876
96.5681 0.246
96.5984 0.240
96.6287 0.130
96.6590 0.177
96.6893 0.588
96.7195 0.531
96.7498 0.995
96.7801 0.104
96.8104 0.464
96.8406 -0.166
96.8709 0.090
96.9012 0.919
96.9315 0.081
96.9618 0.545
96.9920 0.749
97.0223 0.432
97.0526 0.532
97.0829 0.059
97.1132 0.108
97.1434 0.156
97.1737 0.256
97.2040 0.096
97.2343 0.457
97.2645 0.141
97.2948 0.294
97.3251 0.030
97.3554 0.443
97.3857 -0.133
97.4159 0.020
97.4462 -0.399
97.4765 0.483
97.5068 -0.040
97.5371 -0.043
97.5673 0.371
97.5976 0.004
97.6279 0.678
97.6582 0.207
97.6884 0.361
97.7187 -0.214
97.7490 0.565
97.7793 0.199
97.8096 0.405
97.8398 0.299
97.8701 -0.067
97.9004 0.504
97.9307 0.659
97.9610 0.084
97.9912 0.448
98.0215 -0.335
98.0518 0.653
98.0821 -0.077
98.1123 0.287
98.1426 0.234
98.1729 -0.340
98.2032 0.857
98.2335 0.336
98.2637 0.491
98.2940 0.022
98.3243 0.126
98.3546 -0.031
98.3849 -0.031
98.4151 0.177
98.4454 0.229
98.4757 -0.031
98.5060 -0.239
98.5362 0.699
98.5665 0.595
98.5968 -0.030
98.6271 -0.029
98.6574 -0.029
98.6876 -0.288
98.7179 0.494
98.7482 -0.182
98.7785 0.183
98.8088 0.445
98.8390 0.238
98.8693 0.603
98.8996 -0.124
98.9299 0.502
98.9601 -0.226
98.9904 -0.016
99.0207 0.403
99.0510 -0.012
99.0813 -0.583
99.1115 1.033
99.1418 0.098
99.1721 0.152
99.2024 -0.106
99.2327 0.000
99.2629 0.055
99.2932 0.162
99.3235 0.477
99.3538 -0.041
99.3841 0.639
99.4143 0.225
99.4446 0.176
99.4749 0.335
99.5052 0.338
99.5354 -0.336
99.5657 -0.072
99.5960 0.036
99.6263 0.143
99.6566 -0.218
99.6868 0.255
99.7171 -0.002
99.7474 0.158
99.7777 0.266
99.8080 0.948
99.8382 -0.090
99.8685 0.487
99.8988 0.023
99.9291 -0.285
99.9593 0.028
99.9896 -0.126
100.0199 0.344
100.0502 0.137
100.0805 0.347
100.1107 -0.016
100.1410 0.142
100.1713 -0.273
100.2016 -0.011
100.2319 -0.373
100.2621 0.150
100.2924 -0.056
100.3227 0.935
100.3530 0.469
100.3832 0.107
100.4135 -0.099
100.4438 0.321
100.4741 0.323
100.5044 0.326
100.5346 0.381
100.5649 0.228
100.5952 0.335
100.6255 1.067
100.6558 0.185
100.6860 -0.176
100.7163 0.296
100.7466 0.404
100.7769 -0.009
100.8071 -0.266
100.8374 -0.266
100.8677 0.255
100.8980 0.203
100.9283 0.099
100.9585 0.412
100.9888 0.360
101.0191 0.621
101.0494 0.882
101.0797 0.361
101.1099 0.414
101.1402 0.571
101.1705 0.259
101.2008 0.989
101.2310 0.522
101.2613 0.002
101.2916 0.368
101.3219 0.473
101.3522 -0.203
101.3824 -0.357
101.4127 0.269
101.4430 0.271
101.4733 0.221
101.5036 -0.246
101.5338 0.433
101.5641 0.278
101.5944 0.437
101.6247 -0.186
101.6549 0.545
101.6852 0.287
101.7155 0.446
101.7458 0.761
101.7761 0.191
101.8063 0.454
101.8366 -0.064
101.8669 0.668
101.8972 0.306
101.9275 -0.159
101.9577 0.209
101.9880 -0.569
102.0183 -0.045
102.0486 -0.406
102.0788 0.378
102.1091 0.695
102.1394 0.334
102.1697 0.390
102.2000 0.394
102.2302 0.085
102.2605 -0.275
102.2908 0.041
102.3211 0.202
102.3514 0.414
102.3816 0.471
102.4119 -0.097
102.4422 -0.041
102.4725 0.172
102.5028 0.281
102.5330 0.130
102.5633 0.500
102.5936 -0.068
102.6239 -0.011
102.6541 0.203
102.6844 0.416
102.7147 -0.099
102.7450 -0.250
102.7753 0.007
102.8055 0.577
102.8358 -0.103
102.8661 0.363
102.8964 0.360
102.9267 0.045
102.9569 0.823
102.9872 0.092
103.0175 -0.067
103.0478 0.035
103.0780 0.293
103.1083 -0.230
103.1386 0.445
103.1689 0.078
103.1992 0.285
103.2294 0.179
103.2597 -0.031
103.2900 -0.450
103.3203 0.434
103.3506 0.016
103.3808 -0.038
103.4111 0.169
103.4414 0.325
103.4717 -0.041
103.5019 0.062
103.5322 0.426
103.5625 -0.044
103.5928 -0.253
103.6231 0.319
103.6533 -0.150
103.6836 -0.151
103.7139 -0.255
103.7442 0.057
103.7745 0.056
103.8047 -0.049
103.8350 0.003
103.8653 0.211
103.8956 0.055
103.9258 0.784
103.9561 0.263
103.9864 0.002
104.0167 0.888
104.0470 0.784
104.0772 0.836
104.1075 -0.101
104.1378 -0.048
104.1681 0.057
104.1984 -0.255
104.2286 -0.098
104.2589 -0.046
104.2892 0.632
104.3195 0.268
104.3497 0.009
104.3800 0.531
104.4103 0.115
104.4406 0.064
104.4709 0.065
104.5011 -0.298
104.5314 0.328
104.5617 0.226
104.5920 0.332
104.6223 0.594
104.6525 0.491
104.6828 0.389
104.7131 0.026
104.7434 -0.232
104.7736 0.135
104.8039 0.450
104.8342 0.660
104.8645 -0.275
104.8948 0.040
104.9250 -0.218
104.9553 0.254
104.9856 -0.056
105.0159 0.520
105.0462 0.002
105.0764 0.370
105.1067 0.217
105.1370 0.480
105.1673 0.067
105.1975 0.018
105.2278 0.438
105.2581 -0.287
105.2884 0.133
105.3187 0.137
105.3489 -0.015
105.3792 0.666
105.4095 0.253
105.4398 0.361
105.4701 0.522
105.5003 0.005
105.5306 0.374
105.5609 0.587
105.5912 0.227
105.6215 -0.289
105.6517 0.237
105.6820 0.554
105.7123 0.559
105.7426 0.460
105.7728 -0.212
105.8031 -0.363
105.8334 0.255
105.8637 0.613
105.8940 0.606
105.9242 0.651
105.9545 0.072
105.9848 0.169
106.0151 0.580
106.0454 0.052
106.0756 0.411
106.1059 -0.064
106.1362 0.607
106.1665 0.236
106.1967 0.595
106.2270 0.277
106.2573 0.323
106.2876 0.161
106.3179 -0.157
106.3481 -0.006
106.3784 1.083
106.4087 0.244
106.4390 -0.126
106.4693 -0.235
106.4995 0.125
106.5298 -0.453
106.5601 0.480
106.5904 0.319
106.6206 -0.103
106.6509 0.466
106.6812 0.097
106.7115 0.144
106.7418 0.505
106.7720 0.553
106.8023 0.601
106.8326 0.597
106.8629 0.332
106.8932 0.381
106.9234 0.481
106.9537 0.061
106.9840 0.214
107.0143 -0.102
107.0445 -0.106
107.0748 -0.213
107.1051 -0.112
107.1354 -0.011
107.1657 -0.222
107.1959 0.140
107.2262 0.345
107.2565 0.186
107.2868 -0.129
107.3171 0.389
107.3473 0.856
107.3776 -0.397
107.4079 -0.034
107.4382 -0.193
107.4684 0.222
107.4987 0.324
107.5290 -0.303
107.5593 0.216
107.5896 -0.515
107.6198 0.473
107.6501 0.055
107.6804 0.106
107.7107 0.313
107.7410 0.051
107.7712 -0.106
107.8015 0.049
107.8318 -0.108
107.8621 -0.266
107.8923 -0.163
107.9226 0.305
107.9529 0.095
107.9832 -0.218
108.0135 0.145
108.0437 0.301
108.0740 -0.117
108.1043 0.455
108.1346 0.194
108.1649 -0.119
108.1951 -0.067
108.2254 0.401
108.2557 0.557
108.2860 -0.016
108.3163 0.141
108.3465 0.505
108.3768 0.297
108.4071 -0.067
108.4374 -0.119
108.4676 -0.015
108.4979 0.038
108.5282 0.039
108.5585 0.352
108.5888 -0.429
108.6190 0.197
108.6493 0.302
108.6796 -0.114
108.7099 -0.060
108.7402 0.097
108.7704 -0.162
108.8007 0.204
108.8310 -0.107
108.8613 0.259
108.8915 0.261
108.9218 0.002
108.9521 -0.100
108.9824 -0.046
109.0127 0.216
109.0429 -0.042
109.0732 -0.092
109.1035 0.275
109.1338 -0.035
109.1641 -0.449
109.1943 0.439
109.2246 0.181
109.2549 -0.285
109.2852 -0.127
109.3154 -0.022
109.3457 -0.124
109.3760 -0.070
109.4063 -0.328
109.4366 0.351
109.4668 -0.012
109.4971 -0.010
109.5274 0.461
109.5577 0.360
109.5880 -0.471
109.6182 0.208
109.6485 -0.206
109.6788 0.370
109.7091 0.425
109.7393 -0.197
109.7696 0.275
109.7999 0.330
109.8302 0.125
109.8605 -0.080
109.8907 -0.077
109.9210 -0.073
109.9513 0.138
109.9816 -0.066
110.0119 -0.010
110.0421 -0.059
110.0724 0.674
110.1027 0.001
110.1330 -0.047
110.1632 0.322
110.1935 -0.142
110.2238 -0.034
110.2541 0.127
110.2844 -0.389
110.3146 -0.079
110.3449 0.284
110.3752 0.543
110.4055 0.281
110.4358 0.279
110.4660 -0.452
110.4963 0.172
110.5266 0.275
110.5569 -0.091
110.5871 -0.092
110.6174 0.792
110.6477 0.479
110.6780 -0.095
110.7083 0.113
110.7385 -0.044
110.7688 0.268
110.7991 0.007
110.8294 -0.462
110.8597 0.215
110.8899 0.214
110.9202 0.110
110.9505 0.423
110.9808 0.006
111.0110 0.162
111.0413 0.579
111.0716 -0.306
111.1019 0.372
111.1322 0.320
111.1624 0.321
111.1927 0.270
111.2230 0.270
111.2533 -0.093
111.2836 0.480
111.3138 -0.091
111.3441 0.118
111.3744 0.328
111.4047 -0.088
111.4350 0.174
111.4652 0.332
111.4955 -0.135
111.5258 0.439
111.5561 -0.132
111.5863 0.131
111.6166 0.133
111.6469 0.187
111.6772 0.189
111.7075 0.191
111.7377 0.350
111.7680 0.196
111.7983 0.459
111.8286 0.253
111.8589 0.256
111.8891 0.050
111.9194 0.626
111.9497 0.264
111.9800 0.007
112.0102 0.219
112.0405 0.170
112.0708 0.954
112.1011 0.072
112.1314 -0.185
112.1616 -0.285
112.1919 0.231
112.2222 -0.087
112.2525 0.012
112.2828 0.215
112.3130 0.002
112.3433 0.362
112.3736 0.149
112.4039 -0.220
112.4341 0.296
112.4644 0.500
112.4947 0.183
112.5250 0.804
112.5553 0.071
112.5855 -0.194
112.6158 -0.041
112.6461 0.059
112.6764 -0.101
112.7067 0.312
112.7369 0.100
112.7672 0.096
112.7975 1.135
112.8278 0.090
112.8580 0.295
112.8883 0.083
112.9186 0.289
112.9489 0.806
112.9792 0.231
113.0094 -0.293
113.0397 0.538
113.0700 0.118
113.1003 0.272
113.1306 -0.147
113.1608 0.372
113.1911 -0.308
113.2214 0.419
113.2517 0.001
113.2819 0.832
113.3122 -0.316
113.3425 0.151
113.3728 0.722
113.4031 0.356
113.4333 0.146
113.4636 0.041
113.4939 0.092
113.5242 0.142
113.5545 0.141
113.5847 0.088
113.6150 0.087
113.6453 -0.018
113.6756 -0.227
113.7058 0.085
113.7361 0.397
113.7664 0.240
113.7967 0.292
113.8270 0.187
113.8572 0.395
113.8875 0.708
113.9178 0.447
113.9481 -0.022
113.9784 0.187
114.0086 0.239
114.0389 0.239
114.0692 0.292
114.0995 0.188
114.1298 0.137
114.1600 1.127
114.1903 0.503
114.2206 0.399
114.2509 -0.641
114.2811 -0.119
114.3114 0.611
114.3417 0.195
114.3720 -0.168
114.4023 -0.114
114.4325 0.043
114.4628 0.305
114.4931 0.099
114.5234 0.205
114.5537 -0.158
114.5839 -0.260
114.6142 0.101
114.6445 -0.058
114.6748 -0.426
114.7050 0.249
114.7353 0.246
114.7656 -0.121
114.7959 0.085
114.8262 0.186
114.8564 0.392
114.8867 0.442
114.9170 -0.081
114.9473 0.542
114.9776 0.228
115.0078 0.278
115.0381 -0.401
115.0684 0.170
115.0987 0.221
115.1289 0.115
115.1592 -0.147
115.1895 0.321
115.2198 -0.306
115.2501 0.266
115.2803 0.109
115.3106 -0.413
115.3409 0.576
115.3712 0.106
115.4015 0.418
115.4317 0.157
115.4620 -0.104
115.4923 0.208
115.5226 0.260
115.5528 0.207
115.5831 -0.157
115.6134 0.155
115.6437 -0.157
115.6740 -0.001
115.7042 0.103
115.7345 -0.053
115.7648 -0.104
115.7951 0.729
115.8254 0.001
115.8556 0.522
115.8859 -0.571
115.9162 0.420
115.9465 0.525
115.9767 0.318
116.0070 0.423
116.0373 -0.253
116.0676 -0.200
116.0979 0.635
116.1281 0.168
116.1584 0.169
116.1887 0.171
116.2190 -0.036
116.2493 0.487
116.2795 0.333
116.3098 0.387
116.3401 0.024
116.3704 0.391
116.4006 0.237
116.4309 0.083
116.4612 0.763
116.4915 0.140
116.5218 0.508
116.5520 0.354
116.5823 0.409
116.6126 0.047
116.6429 -0.002
116.6732 -0.572
116.7034 0.051
116.7337 0.258
116.7640 -0.161
116.7943 0.566
116.8245 0.460
116.8548 0.302
116.8851 0.301
116.9154 0.143
116.9457 0.402
116.9759 -0.068
117.0062 0.400
117.0365 0.399
117.0668 0.293
117.0971 0.240
117.1273 0.031
117.1576 0.343
117.1879 0.238
117.2182 -0.075
117.2485 -0.023
117.2787 0.237
117.3090 0.028
117.3393 0.132
117.3696 0.236
117.3998 0.236
117.4301 0.392
117.4604 0.236
117.4907 -0.128
117.5210 -0.076
117.5512 -0.075
117.5815 0.550
117.6118 0.238
117.6421 0.083
117.6724 0.292
117.7026 0.293
117.7329 0.398
117.7632 0.191
117.7935 0.036
117.8237 0.297
117.8540 0.351
117.8843 0.300
117.9146 -0.115
117.9449 0.511
117.9751 0.149
118.0054 -0.318
118.0357 0.569
118.0660 -0.419
118.0963 -0.260
118.1265 0.260
118.1568 0.416
118.1871 0.624
118.2174 -0.002
118.2476 -0.158
118.2779 0.258
118.3082 -0.002
118.3385 -0.263
118.3688 0.258
118.3990 -0.054
118.4293 0.780
118.4596 0.572
118.4899 0.052
118.5202 0.156
118.5504 0.417
118.5807 -0.207
118.6110 0.159
118.6413 0.420
118.6715 0.265
118.7018 0.578
118.7321 0.580
118.7624 -0.044
118.7927 0.426
118.8229 -0.145
118.8532 0.377
118.8835 0.483
118.9138 0.068
118.9441 0.382
118.9743 1.270
119.0046 0.022
119.0349 -0.132
119.0652 0.599
119.0954 0.029
119.1257 0.291
119.1560 -0.435
119.1863 -0.016
119.2166 0.403
119.2468 0.562
119.2771 0.409
119.3074 0.151
119.3377 -0.002
119.3680 -0.259
119.3982 0.045
119.4285 -0.015
119.4588 0.237
119.4891 0.385
119.5193 -0.092
119.5496 0.161
119.5799 0.309
119.6102 0.353
119.6405 -0.175
119.6707 0.390
119.7010 -0.138
119.7313 0.115
119.7616 0.368
119.7919 0.152
119.8221 0.406
119.8524 0.086
119.8827 0.392
119.9130 -0.188
119.9433 0.326
119.9735 0.475
120.0038 0.000
