'Id: "" Comment: "" Operator: "Lab Manager" Anode: "Cu" Scantype: "Locked Coupled" TimePerStep: "19.2" X: "9999" Y: "9999" Z: "9999" 
10.0015 0.000
10.0318 -0.460
10.0620 0.008
10.0923 0.319
10.1226 0.162
10.1529 0.162
10.1832 1.100
10.2134 1.152
10.2437 0.320
10.2740 0.217
10.3043 0.114
10.3346 -0.405
10.3648 -0.038
10.3951 0.069
10.4254 -0.188
10.4557 -0.081
10.4859 -0.390
10.5162 -0.073
10.5465 0.973
10.5768 -0.429
10.6071 0.514
10.6373 0.780
10.6676 -1.193
10.6979 -0.250
10.7282 0.330
10.7585 -0.132
10.7887 -0.281
10.8190 0.143
10.8493 0.932
10.8796 0.107
10.9098 0.272
10.9401 0.698
10.9704 0.655
11.0007 0.457
11.0310 -0.106
11.0612 0.373
11.0915 0.488
11.1218 -0.647
11.1521 -0.219
11.1824 0.106
11.2126 0.847
11.2429 0.547
11.2732 0.404
11.3035 0.001
11.3337 -0.038
11.3640 -0.753
11.3943 -0.030
11.4246 0.017
11.4549 0.272
11.4851 0.423
11.5154 0.679
11.5457 0.101
11.5760 0.098
11.6063 0.250
11.6365 -0.118
11.6668 0.400
11.6971 -0.071
11.7274 0.239
11.7577 0.238
11.7879 0.393
11.8182 0.704
11.8485 -0.286
11.8788 -0.235
11.9090 0.234
11.9393 -0.338
11.9696 -0.077
11.9999 -0.753
12.0302 0.029
12.0604 0.239
12.0907 0.554
12.1210 -0.485
12.1513 -0.326
12.1816 -0.166
12.2118 0.775
12.2421 -0.367
12.2724 -0.415
12.3027 1.048
12.3329 0.636
12.3632 -0.139
12.3935 0.075
12.4238 -0.180
12.4541 -0.277
12.4843 0.771
12.5146 0.153
12.5449 -0.256
12.5752 -0.508
12.6055 0.541
12.6357 0.290
12.6660 -0.639
12.6963 0.412
12.7266 -0.151
12.7568 -0.298
12.7871 -0.183
12.8174 -0.172
12.8477 0.568
12.8780 -0.202
12.9082 -0.190
12.9385 -0.126
12.9688 0.668
12.9991 -0.101
13.0294 0.173
13.0596 -0.282
13.0899 -0.424
13.1202 0.196
13.1505 0.139
13.1807 0.604
13.2110 0.340
13.2413 1.639
13.2716 0.073
13.3019 0.331
13.3321 0.329
13.3624 -0.194
13.3927 0.482
13.4230 0.376
13.4533 -0.301
13.4835 0.219
13.5138 0.271
13.5441 0.011
13.5744 -0.405
13.6046 0.169
13.6349 -0.351
13.6652 0.224
13.6955 0.122
13.7258 0.124
13.7560 0.231
13.7863 0.182
13.8166 -0.283
13.8469 0.658
13.8772 0.141
13.9074 0.667
13.9377 -0.318
13.9680 0.937
13.9983 0.630
14.0285 0.324
14.0588 0.070
14.0891 -0.028
14.1194 0.187
14.1497 -0.066
14.1799 0.567
14.2102 -0.206
14.2405 0.844
14.2708 -0.293
14.3011 0.237
14.3313 0.403
14.3616 0.517
14.3919 0.319
14.4222 -0.660
14.4524 0.601
14.4827 0.351
14.5130 0.571
14.5433 0.167
14.5736 0.179
14.6038 -0.694
14.6341 0.153
14.6644 0.010
14.6947 -0.341
14.7250 0.194
14.7552 0.209
14.7855 0.119
14.8158 -0.178
14.8461 0.619
14.8764 0.114
14.9066 -0.130
14.9369 0.043
14.9672 -0.878
14.9975 -0.109
15.0277 0.816
15.0580 0.439
15.0883 0.323
15.1186 0.416
15.1489 0.353
15.1791 0.186
15.2094 0.228
15.2397 0.218
15.2700 0.468
15.3003 -0.010
15.3305 -0.018
15.3608 -0.287
15.3911 0.590
15.4214 -0.147
15.4516 0.002
15.4819 -0.058
15.5122 0.457
15.5425 -0.227
15.5728 0.444
15.6030 0.751
15.6333 -0.192
15.6636 0.324
15.6939 -0.358
15.7242 0.055
15.7544 0.207
15.7847 1.037
15.8150 0.148
15.8453 -0.427
15.8755 0.091
15.9058 -0.588
15.9361 -0.017
15.9664 0.086
15.9967 0.397
16.0269 0.136
16.0572 0.136
16.0875 -0.594
16.1178 -0.181
16.1481 -0.288
16.1783 0.386
16.2086 -0.190
16.2389 0.277
16.2692 0.171
16.2994 -0.195
16.3297 -1.030
16.3600 0.792
16.3903 -0.198
16.4206 0.219
16.4508 0.323
16.4811 0.167
16.5114 0.533
16.5417 -0.716
16.5720 0.588
16.6022 -0.035
16.6325 -0.345
16.6628 -0.030
16.6931 0.025
16.7233 -0.076
16.7536 -0.072
16.7839 0.349
16.8142 -0.011
16.8445 0.619
16.8747 -0.001
16.9050 0.369
16.9353 1.260
16.9656 0.277
16.9959 0.648
17.0261 0.082
17.0564 -0.223
17.0867 0.722
17.1170 0.053
17.1472 -0.147
17.1775 0.331
17.2078 -0.181
17.2381 -0.484
17.2684 0.411
17.2986 0.421
17.3289 0.276
17.3592 1.484
17.3895 -0.692
17.4198 -0.368
17.4500 0.478
17.4803 0.907
17.5106 0.190
17.5409 1.036
17.5712 -0.044
17.6014 -0.395
17.6317 -0.244
17.6620 0.897
17.6923 -0.306
17.7225 0.419
17.7528 1.196
17.7831 0.151
17.8134 0.356
17.8437 -0.220
17.8739 -0.327
17.9042 -0.017
17.9345 0.242
17.9648 0.865
17.9951 0.291
18.0253 1.436
18.0556 -0.179
18.0859 0.185
18.1162 -0.856
18.1464 -0.022
18.1767 0.708
18.2070 0.032
18.2373 0.242
18.2676 0.244
18.2978 -0.170
18.3281 -0.116
18.3584 0.044
18.3887 -0.370
18.4190 -0.262
18.4492 -0.101
18.4795 -0.930
18.5098 0.055
18.5401 0.207
18.5703 0.047
18.6006 0.356
18.6309 0.197
18.6612 0.454
18.6915 0.348
18.7217 0.033
18.7520 -0.229
18.7823 0.083
18.8126 0.238
18.8429 -1.117
18.8731 -0.180
18.9034 0.289
18.9337 -0.439
18.9640 0.343
18.9942 -0.542
19.0245 0.345
19.0548 0.712
19.0851 -0.223
19.1154 -0.169
19.1456 0.147
19.1759 -0.267
19.2062 -0.003
19.2365 0.626
19.2668 0.266
19.2970 -0.510
19.3273 0.276
19.3576 0.698
19.3879 -0.077
19.4181 -0.227
19.4484 0.144
19.4787 0.776
19.5090 0.002
19.5393 0.218
19.5695 0.121
19.5998 0.234
19.6301 0.867
19.6604 -0.061
19.6907 0.417
19.7209 0.062
19.7512 -0.084
19.7815 -0.386
19.8118 -0.226
19.8420 0.716
19.8723 0.669
19.9026 -0.159
19.9329 1.044
19.9632 -0.200
19.9934 0.171
20.0237 0.281
20.0540 0.028
20.0843 -0.694
20.1146 -0.066
20.1448 -0.114
20.1751 -0.111
20.2054 0.727
20.2357 0.471
20.2659 0.476
20.2962 0.012
20.3265 0.539
20.3568 0.284
20.3871 -0.126
20.4173 0.505
20.4476 0.460
20.4779 1.041
20.5082 0.319
20.5385 0.067
20.5687 0.700
20.5990 0.917
20.6293 -0.167
20.6596 0.155
20.6899 0.529
20.7201 0.227
20.7504 0.342
20.7807 0.248
20.8110 0.103
20.8412 -0.770
20.8715 -0.156
20.9018 1.136
20.9321 0.033
20.9624 0.232
20.9926 -0.141
21.0229 0.579
21.0532 -0.262
21.0835 0.459
21.1138 0.868
21.1440 -0.233
21.1743 -0.135
21.2046 0.275
21.2349 0.321
21.2651 -0.518
21.2954 0.258
21.3257 0.045
21.3560 -0.116
21.3863 0.036
21.4165 -0.072
21.4468 0.028
21.4771 0.181
21.5074 0.074
21.5377 -0.136
21.5679 0.070
21.5982 0.380
21.6285 -0.871
21.6588 0.274
21.6890 -0.039
21.7193 0.377
21.7496 -0.040
21.7799 0.013
21.8102 0.274
21.8404 -0.142
21.8707 0.693
21.9010 -0.087
21.9313 -0.084
21.9616 0.178
21.9918 0.285
22.0221 -0.649
22.0524 -0.281
22.0827 -0.381
22.1129 0.241
22.1432 0.498
22.1735 -0.337
22.2038 -0.131
22.2341 0.284
22.2643 -0.239
22.2946 -0.031
22.3249 0.489
22.3552 0.124
22.3855 0.280
22.4157 -0.084
22.4460 0.021
22.4763 -0.447
22.5066 0.180
22.5368 -0.079
22.5671 0.965
22.5974 0.134
22.6277 -0.176
22.6580 -0.589
22.6882 0.143
22.7185 -0.010
22.7488 -0.214
22.7791 0.571
22.8094 0.263
22.8396 0.164
22.8699 -0.560
22.9002 -0.034
22.9305 0.545
22.9607 0.812
22.9910 0.089
23.0213 -0.321
23.0516 0.728
23.0819 0.424
23.1121 0.015
23.1424 0.388
23.1727 -0.697
23.2030 -0.271
23.2333 0.676
23.2635 0.321
23.2938 0.487
23.3241 -0.075
23.3544 0.821
23.3846 0.885
23.4149 0.063
23.4452 -0.290
23.4755 0.087
23.5058 -0.473
23.5360 1.155
23.5663 0.179
23.5966 0.505
23.6269 0.206
23.6572 -0.665
23.6874 -0.257
23.7177 0.412
23.7480 -0.169
23.7783 0.500
23.8086 0.701
23.8388 0.590
23.8691 0.114
23.8994 0.108
23.9297 0.727
23.9599 1.190
23.9902 0.455
24.0205 0.190
24.0508 0.342
24.0811 0.129
24.1113 -0.604
24.1416 0.695
24.1719 -0.194
24.2022 -0.561
24.2325 0.157
24.2627 0.303
24.2930 0.502
24.3233 0.232
24.3536 0.848
24.3838 -0.671
24.4141 0.519
24.4444 0.094
24.4747 0.087
24.5050 0.131
24.5352 0.489
24.5655 0.222
24.5958 0.112
24.6261 -0.102
24.6564 0.153
24.6866 0.252
24.7169 0.195
24.7472 -0.591
24.7775 -0.178
24.8077 -0.390
24.8380 0.284
24.8683 0.020
24.8986 0.695
24.9289 0.120
24.9591 0.222
24.9894 -0.561
25.0197 -0.093
25.0500 -0.511
25.0803 0.060
25.1105 0.370
25.1408 0.160
25.1711 0.524
25.2014 -0.623
25.2316 0.418
25.2619 -0.520
25.2922 0.574
25.3225 0.367
25.3528 -0.622
25.3830 0.212
25.4133 0.110
25.4436 0.268
25.4739 0.375
25.5042 -0.144
25.5344 0.537
25.5647 -0.450
25.5950 0.127
25.6253 -0.181
25.6555 -0.177
25.6858 -0.380
25.7161 0.127
25.7464 -0.198
25.7767 0.727
25.8069 0.715
25.8372 -0.234
25.8675 -0.141
25.8978 0.734
25.9281 0.098
25.9583 0.192
25.9886 0.391
26.0189 1.059
26.0492 -0.044
26.0794 0.103
26.1097 0.147
26.1400 -0.538
26.1703 -0.186
26.2006 0.322
26.2308 -0.367
26.2611 0.559
26.2914 -0.598
26.3217 0.172
26.3520 0.005
26.3822 0.464
26.4125 -1.109
26.4428 0.080
26.4731 -0.502
26.5034 -0.042
26.5336 0.678
26.5639 -0.007
26.5942 -0.015
26.6245 -0.230
26.6547 -0.342
26.6850 0.329
26.7153 0.114
26.7456 -0.725
26.7759 0.051
26.8061 -0.267
26.8364 -0.324
26.8667 -0.016
26.8970 0.292
26.9273 -0.389
26.9575 -0.444
26.9878 0.750
27.0181 0.591
27.0484 -0.192
27.0786 0.535
27.1089 0.117
27.1392 -0.041
27.1695 0.270
27.1998 -0.147
27.2300 -0.408
27.2603 0.270
27.2906 0.166
27.3209 0.063
27.3512 -0.301
27.3814 -0.404
27.4117 0.157
27.4420 -0.481
27.4723 0.757
27.5025 0.329
27.5328 -0.047
27.5631 -0.162
27.5934 0.869
27.6237 -0.079
27.6539 -0.088
27.6842 -0.254
27.7145 -0.055
27.7448 -0.220
27.7751 0.136
27.8053 -0.653
27.8356 0.433
27.8659 0.582
27.8962 -0.467
27.9264 0.256
27.9567 -0.272
27.9870 -0.330
28.0173 0.394
28.0476 -0.705
28.0778 0.957
28.1081 0.223
28.1384 -0.198
28.1687 -0.202
28.1990 0.264
28.2292 -0.312
28.2595 0.570
28.2898 -0.682
28.3201 -0.267
28.3503 -0.061
28.3806 -0.062
28.4109 0.197
28.4412 1.082
28.4715 0.353
28.5017 -0.064
28.5320 0.301
28.5623 0.354
28.5926 0.616
28.6229 0.253
28.6531 -0.058
28.6834 -0.420
28.7137 -0.228
28.7440 -0.765
28.7742 0.677
28.8045 0.349
28.8348 0.386
28.8651 0.267
28.8954 0.201
28.9256 -0.594
28.9559 1.163
28.9862 -0.153
29.0165 -0.322
29.0468 -0.282
29.0770 0.695
29.1073 0.267
29.1376 0.203
29.1679 0.296
29.1981 0.077
29.2284 -0.246
29.2587 0.421
29.2890 -0.214
29.3193 -0.327
29.3495 -0.440
29.3798 -0.010
29.4101 -0.047
29.4404 0.124
29.4707 0.660
29.5009 0.572
29.5312 0.015
29.5615 0.760
29.5918 -0.473
29.6221 0.169
29.6523 0.551
29.6826 1.090
29.7129 -1.028
29.7432 0.032
29.7734 -0.365
29.8037 -0.346
29.8340 0.559
29.8643 -0.046
29.8946 -0.234
29.9248 -0.162
29.9551 0.484
29.9854 0.297
30.0157 -0.202
30.0460 -0.492
30.0762 -0.264
30.1065 0.330
30.1368 -0.431
30.1671 0.216
30.1973 -0.283
30.2276 0.311
30.2579 0.646
30.2882 -1.518
30.3185 0.171
30.3487 0.820
30.3790 0.531
30.4093 0.243
30.4396 0.163
30.4699 0.553
30.5001 0.578
30.5304 1.228
30.5607 1.098
30.5910 0.447
30.6212 0.318
30.6515 0.553
30.6818 -0.097
30.7121 0.816
30.7424 1.365
30.7726 0.925
30.8029 1.943
30.8332 1.608
30.8635 2.471
30.8938 2.449
30.9240 1.541
30.9543 3.082
30.9846 3.113
31.0149 3.561
31.0451 3.697
31.0754 5.135
31.1057 6.991
31.1360 5.513
31.1663 7.629
31.1965 7.506
31.2268 9.519
31.2571 10.647
31.2874 10.577
31.3177 12.644
31.3479 13.408
31.3782 18.183
31.4085 19.261
31.4388 23.151
31.4690 26.886
31.4993 32.183
31.5296 33.366
31.5599 40.383
31.5902 44.588
31.6204 45.251
31.6507 42.686
31.6810 45.902
31.7113 43.285
31.7416 39.523
31.7718 34.511
31.8021 30.593
31.8324 25.478
31.8627 22.029
31.8929 18.269
31.9232 16.123
31.9535 13.718
31.9838 12.458
32.0141 9.637
32.0443 9.316
32.0746 6.963
32.1049 6.383
32.1352 5.385
32.1655 5.482
32.1957 3.496
32.2260 3.125
32.2563 3.588
32.2866 3.425
32.3169 2.534
32.3471 2.269
32.3774 2.368
32.4077 2.260
32.4380 2.204
32.4682 0.429
32.4985 1.415
32.5288 1.464
32.5591 1.097
32.5894 1.772
32.6196 0.364
32.6499 0.727
32.6802 -0.212
32.7105 0.047
32.7408 -1.047
32.7710 0.047
32.8013 1.297
32.8316 -0.213
32.8619 0.152
32.8921 -0.732
32.9224 0.155
32.9527 1.043
32.9830 -0.205
33.0133 -0.098
33.0435 0.061
33.0738 -1.290
33.1041 -0.156
33.1344 -0.428
33.1647 -0.126
33.1949 1.165
33.2252 0.009
33.2555 -0.835
33.2858 0.979
33.3160 0.188
33.3463 0.335
33.3766 -0.090
33.4069 0.631
33.4372 -0.106
33.4674 -0.583
33.4977 -0.021
33.5280 -0.292
33.5583 0.323
33.5886 0.834
33.6188 0.564
33.6491 0.034
33.6794 0.181
33.7097 1.579
33.7399 1.154
33.7702 2.240
33.8005 1.191
33.8308 3.111
33.8611 3.886
33.8913 4.296
33.9216 4.967
33.9519 4.805
33.9822 4.592
34.0125 8.024
34.0427 9.426
34.0730 10.880
34.1033 14.314
34.1336 16.966
34.1638 22.224
34.1941 30.502
34.2244 40.083
34.2547 50.081
34.2850 61.538
34.3152 60.026
34.3455 53.931
34.3758 50.024
34.4061 37.732
34.4364 29.920
34.4666 20.233
34.4969 17.160
34.5272 12.630
34.5575 11.382
34.5877 9.821
34.6180 8.469
34.6483 6.076
34.6786 4.568
34.7089 3.634
34.7391 4.523
34.7694 3.381
34.7997 2.761
34.8300 2.922
34.8603 1.781
34.8905 2.047
34.9208 2.417
34.9511 2.110
34.9814 1.804
35.0116 2.072
35.0419 1.454
35.0722 2.086
35.1025 1.417
35.1328 1.634
35.1630 1.851
35.1933 1.860
35.2236 2.754
35.2539 3.754
35.2842 2.618
35.3144 3.982
35.3447 3.264
35.3750 3.067
35.4053 5.526
35.4356 3.819
35.4658 5.237
35.4961 5.667
35.5264 5.940
35.5567 6.995
35.5869 8.467
35.6172 7.335
35.6475 11.203
35.6778 11.062
35.7081 12.535
35.7383 14.894
35.7686 15.066
35.7989 18.676
35.8292 20.619
35.8595 22.355
35.8897 27.684
35.9200 31.973
35.9503 38.709
35.9806 43.571
36.0108 46.194
36.0411 55.223
36.0714 60.503
36.1017 64.221
36.1320 67.001
36.1622 63.063
36.1925 66.573
36.2228 59.667
36.2531 54.168
36.2834 49.033
36.3136 41.816
36.3439 34.442
36.3742 31.965
36.4045 25.426
36.4347 23.366
36.4650 18.546
36.4953 15.654
36.5256 12.293
36.5559 13.881
36.5861 9.739
36.6164 9.192
36.6467 9.062
36.6770 7.057
36.7073 6.146
36.7375 5.913
36.7678 4.899
36.7981 4.041
36.8284 4.173
36.8586 3.889
36.8889 2.877
36.9192 2.906
36.9495 2.414
36.9798 1.715
37.0100 2.214
37.0403 2.453
37.0706 1.703
37.1009 1.839
37.1312 0.672
37.1614 0.913
37.1917 0.424
37.2220 1.186
37.2523 1.480
37.2825 0.315
37.3128 0.766
37.3431 -0.085
37.3734 0.731
37.4037 0.974
37.4339 1.426
37.4642 -0.049
37.4945 0.247
37.5248 0.232
37.5551 0.945
37.5853 0.253
37.6156 0.343
37.6459 -0.505
37.6762 0.315
37.7064 0.301
37.7367 0.652
37.7670 0.014
37.7973 -0.363
37.8276 0.042
37.8578 -0.595
37.8881 0.383
37.9184 -0.201
37.9487 -0.108
37.9790 -0.066
38.0092 -0.649
38.0395 0.013
38.0698 -0.262
38.1001 1.182
38.1304 -0.655
38.1606 0.320
38.1909 0.203
38.2212 0.190
38.2515 0.229
38.2817 0.738
38.3120 0.153
38.3423 0.037
38.3726 0.234
38.4029 0.327
38.4331 0.316
38.4634 0.462
38.4937 0.921
38.5240 0.599
38.5543 0.486
38.5845 0.373
38.6148 0.469
38.6451 0.148
38.6754 -0.589
38.7056 -0.229
38.7359 0.496
38.7662 -0.029
38.7965 0.331
38.8268 0.692
38.8570 -0.040
38.8873 0.270
38.9176 -0.045
38.9479 0.422
38.9782 -0.205
39.0084 0.367
39.0387 0.678
39.0690 -0.156
39.0993 -0.208
39.1295 -0.104
39.1598 0.261
39.1901 -0.259
39.2204 0.107
39.2507 0.525
39.2809 0.163
39.3112 -0.356
39.3415 0.011
39.3718 0.691
39.4021 0.486
39.4323 0.021
39.4626 -0.808
39.4929 0.655
39.5232 -0.018
39.5534 0.248
39.5837 -0.268
39.6140 0.207
39.6443 0.109
39.6746 0.063
39.7048 0.643
39.7351 -0.131
39.7654 -0.071
39.7957 -0.324
39.8260 -0.368
39.8562 0.215
39.8865 0.016
39.9168 -0.547
39.9471 0.349
39.9773 0.256
40.0076 0.371
40.0379 0.018
40.0682 0.290
40.0985 -0.687
40.1287 0.159
40.1590 -0.088
40.1893 0.081
40.2196 -0.062
40.2499 -0.152
40.2801 0.488
40.3104 -0.018
40.3407 0.622
40.3710 -0.040
40.4012 0.236
40.4315 -0.373
40.4618 -0.148
40.4921 -0.131
40.5224 0.511
40.5526 0.112
40.5829 0.286
40.6132 -0.008
40.6435 -0.093
40.6738 0.238
40.7040 -0.003
40.7343 0.121
40.7646 -0.328
40.7949 -0.805
40.8251 0.854
40.8554 0.482
40.8857 0.318
40.9160 0.051
40.9463 0.877
40.9765 0.142
41.0068 0.084
41.0371 -0.494
41.0674 0.334
41.0977 0.329
41.1279 0.585
41.1582 0.321
41.1885 0.473
41.2188 -0.468
41.2491 0.102
41.2793 -0.109
41.3096 0.201
41.3399 0.147
41.3702 0.250
41.4004 -0.012
41.4307 0.196
41.4610 -0.222
41.4913 0.143
41.5216 0.560
41.5518 -0.377
41.5821 0.353
41.6124 -0.011
41.6427 0.303
41.6730 0.305
41.7032 0.151
41.7335 0.206
41.7638 -0.207
41.7941 0.317
41.8243 0.060
41.8546 0.012
41.8849 -0.088
41.9152 0.646
41.9455 -0.130
41.9757 0.397
42.0060 -0.118
42.0363 -0.008
42.0666 0.311
42.0969 0.526
42.1271 0.169
42.1574 0.073
42.1877 -0.232
42.2180 -0.328
42.2482 0.134
42.2785 -0.028
42.3088 -0.919
42.3391 0.221
42.3694 -0.044
42.3996 0.055
42.4299 0.624
42.4602 -0.266
42.4905 0.355
42.5208 0.352
42.5510 -0.016
42.5813 -0.227
42.6116 -0.333
42.6419 -0.078
42.6721 -0.031
42.7024 0.381
42.7327 -0.301
42.7630 0.008
42.7933 0.369
42.8235 0.157
42.8538 -0.315
42.8841 -0.109
42.9144 0.357
42.9447 0.303
42.9749 0.354
43.0052 0.196
43.0355 0.195
43.0658 -0.274
43.0960 -0.066
43.1263 -0.326
43.1566 -0.065
43.1869 0.040
43.2172 -0.271
43.2474 -0.270
43.2777 -0.111
43.3080 -0.317
43.3383 0.102
43.3686 -0.156
43.3988 1.046
43.4291 -0.148
43.4594 -0.301
43.4897 -0.296
43.5199 -0.187
43.5502 -0.078
43.5805 0.240
43.6108 0.246
43.6411 0.148
43.6713 0.155
43.7016 0.110
43.7319 -0.404
43.7622 0.489
43.7925 -0.232
43.8227 -0.328
43.8530 -0.117
43.8833 -0.322
43.9136 -0.110
43.9439 -0.054
43.9741 -0.102
44.0044 -0.149
44.0347 -0.040
44.0650 0.226
44.0952 -0.342
44.1255 -0.023
44.1558 0.088
44.1861 -0.322
44.2164 -0.120
44.2466 -0.074
44.2769 -0.548
44.3072 0.540
44.3375 0.275
44.3678 0.010
44.3980 0.006
44.4283 -0.102
44.4586 0.103
44.4889 -0.161
44.5191 0.097
44.5494 0.668
44.5797 0.301
44.6100 -0.221
44.6403 -0.118
44.6705 -0.328
44.7008 0.032
44.7311 0.028
44.7614 -0.080
44.7917 -0.031
44.8219 -0.399
44.8522 0.015
44.8825 0.846
44.9128 0.063
44.9430 0.270
44.9733 -0.304
45.0036 0.580
45.0339 0.059
45.0642 0.007
45.0944 -0.149
45.1247 0.476
45.1550 0.321
45.1853 0.426
45.2156 0.219
45.2458 0.117
45.2761 -0.453
45.3064 -0.163
45.3367 -0.445
45.3669 0.158
45.3972 0.606
45.4275 0.585
45.4578 0.096
45.4881 -0.497
45.5183 0.369
45.5486 -0.223
45.5789 -0.086
45.6092 0.208
45.6395 -0.019
45.6697 0.172
45.7000 0.154
45.7303 0.085
45.7606 0.068
45.7908 0.364
45.8211 0.296
45.8514 -0.032
45.8817 0.213
45.9120 -0.063
45.9422 -0.234
45.9725 0.064
46.0028 0.050
46.0331 -0.849
46.0634 -0.082
46.0936 0.061
46.1239 0.464
46.1542 -0.434
46.1845 0.126
46.2147 0.635
46.2450 -0.367
46.2753 -0.066
46.3056 0.704
46.3359 0.068
46.3661 0.005
46.3964 0.829
46.4267 1.027
46.4570 -0.545
46.4873 1.008
46.5175 0.479
46.5478 0.731
46.5781 0.202
46.6084 0.611
46.6386 0.708
46.6689 0.649
46.6992 0.278
46.7295 1.000
46.7598 0.265
46.7900 0.624
46.8203 1.192
46.8506 1.031
46.8809 1.131
46.9112 1.960
46.9414 2.060
46.9717 1.901
47.0020 2.887
47.0323 2.364
47.0626 2.309
47.0928 3.297
47.1231 4.128
47.1534 4.440
47.1837 6.105
47.2139 7.147
47.2442 6.938
47.2745 8.136
47.3048 10.012
47.3351 12.044
47.3653 10.899
47.3956 15.067
47.4259 13.559
47.4562 14.134
47.4865 11.741
47.5167 11.119
47.5470 9.976
47.5773 9.042
47.6076 9.359
47.6378 8.530
47.6681 5.201
47.6984 5.467
47.7287 3.858
47.7590 3.135
47.7892 3.297
47.8195 3.043
47.8498 2.685
47.8801 2.588
47.9104 1.138
47.9406 1.614
47.9709 1.467
48.0012 0.434
48.0315 1.432
48.0617 1.702
48.0920 1.191
48.1223 0.836
48.1526 0.743
48.1829 0.701
48.2131 1.285
48.2434 0.307
48.2737 -0.514
48.3040 0.071
48.3343 -0.177
48.3645 -0.320
48.3948 0.787
48.4251 0.488
48.4554 -0.227
48.4856 -0.004
48.5159 -0.094
48.5462 0.130
48.5765 0.614
48.6068 0.473
48.6370 0.073
48.6673 0.142
48.6976 -0.050
48.7279 0.071
48.7582 -0.067
48.7884 -0.258
48.8187 0.542
48.8490 0.040
48.8793 -0.306
48.9095 0.338
48.9398 -0.215
48.9701 -0.403
49.0004 0.177
49.0307 -0.233
49.0609 -0.329
49.0912 0.929
49.1215 -0.105
49.1518 0.216
49.1821 0.069
49.2123 1.120
49.2426 0.088
49.2729 0.255
49.3032 -0.308
49.3334 1.057
49.3637 -0.130
49.3940 -0.222
49.4243 0.571
49.4546 0.218
49.4848 -0.707
49.5151 0.036
49.5454 0.257
49.5757 0.479
49.6060 0.233
49.6362 0.299
49.6665 0.418
49.6968 -0.296
49.7271 0.292
49.7574 -0.317
49.7876 -0.687
49.8179 0.349
49.8482 -0.281
49.8785 0.287
49.9087 0.074
49.9390 -0.034
49.9693 0.431
49.9996 0.688
50.0299 0.268
50.0601 0.266
50.0904 0.212
50.1207 -0.103
50.1510 -0.157
50.1813 0.624
50.2115 0.206
50.2418 -0.211
50.2721 0.153
50.3024 -0.107
50.3326 0.050
50.3629 0.103
50.3932 0.365
50.4235 -0.102
50.4538 0.525
50.4840 0.423
50.5143 -0.095
50.5446 -0.196
50.5749 -0.037
50.6052 0.696
50.6354 0.648
50.6657 0.497
50.6960 -0.124
50.7263 0.507
50.7565 -0.269
50.7868 0.154
50.8171 0.837
50.8474 -0.250
50.8777 0.121
50.9079 0.285
50.9382 0.188
50.9685 0.457
50.9988 0.049
51.0291 -0.099
51.0593 0.848
51.0896 0.128
51.1199 0.034
51.1502 -0.529
51.1804 -0.069
51.2107 -0.286
51.2410 -0.451
51.2713 0.267
51.3016 0.153
51.3318 0.352
51.3621 0.446
51.3924 0.281
51.4227 0.012
51.4530 -0.205
51.4832 0.047
51.5135 0.248
51.5438 0.188
51.5741 -0.079
51.6043 0.070
51.6346 -0.092
51.6649 0.266
51.6952 0.104
51.7255 -0.161
51.7557 -0.322
51.7860 0.090
51.8163 -0.487
51.8466 0.031
51.8769 0.288
51.9071 -0.340
51.9374 0.283
51.9677 0.124
51.9980 -0.138
52.0282 0.017
52.0585 -0.453
52.0888 -0.041
52.1191 -0.201
52.1494 -0.309
52.1796 0.677
52.2099 0.778
52.2402 0.150
52.2705 0.304
52.3008 -0.479
52.3310 -0.116
52.3613 -0.065
52.3916 -0.275
52.4219 -0.067
52.4521 -0.328
52.4824 -0.225
52.5127 -0.018
52.5430 0.346
52.5733 -0.331
52.6035 -0.175
52.6338 -0.018
52.6641 -0.070
52.6944 -0.277
52.7247 -0.328
52.7549 -0.074
52.7852 -0.288
52.8155 -0.085
52.8458 -0.090
52.8761 -0.095
52.9063 0.213
52.9366 -0.312
52.9669 0.205
52.9972 -0.110
53.0274 0.147
53.0577 -0.168
53.0880 0.246
53.1183 -0.120
53.1486 -0.226
53.1788 -0.123
53.2091 -0.124
53.2394 -0.333
53.2697 -0.180
53.3000 0.130
53.3302 -0.863
53.3605 0.489
53.3908 -0.242
53.4211 0.121
53.4513 -0.192
53.4816 -0.193
53.5119 -0.558
53.5422 0.165
53.5725 0.421
53.6027 -0.470
53.6330 -0.318
53.6633 0.095
53.6936 -0.274
53.7239 0.296
53.7541 0.605
53.7844 0.290
53.8147 0.235
53.8450 0.546
53.8752 0.023
53.9055 -0.551
53.9358 0.750
53.9661 0.021
53.9964 -0.136
54.0266 -0.240
54.0569 -0.239
54.0872 -0.030
54.1175 0.023
54.1478 -0.028
54.1780 -0.338
54.2083 -0.029
54.2386 0.124
54.2689 -0.295
54.2991 0.224
54.3294 0.430
54.3597 -0.092
54.3900 -0.250
54.4203 -0.042
54.4505 0.322
54.4808 -0.147
54.5111 1.051
54.5414 0.114
54.5717 0.167
54.6019 -0.092
54.6322 -0.350
54.6625 0.057
54.6928 0.204
54.7230 -0.117
54.7533 -0.333
54.7836 0.440
54.8139 0.329
54.8442 -0.095
54.8744 0.263
54.9047 -0.160
54.9350 0.250
54.9653 0.036
54.9956 -0.021
55.0258 0.026
55.0561 0.073
55.0864 0.121
55.1167 -0.560
55.1469 -0.160
55.1772 -0.021
55.2075 0.014
55.2378 0.102
55.2681 0.087
55.2983 0.279
55.3286 0.160
55.3589 0.510
55.3892 0.756
55.4195 0.430
55.4497 0.155
55.4800 0.038
55.5103 0.285
55.5406 0.689
55.5709 0.625
55.6011 0.769
55.6314 0.081
55.6617 0.642
55.6920 0.840
55.7222 1.246
55.7525 0.246
55.7828 1.487
55.8131 1.529
55.8434 1.520
55.8736 2.501
55.9039 2.961
55.9342 2.328
55.9645 3.779
55.9948 3.668
56.0250 3.296
56.0553 4.331
56.0856 4.169
56.1159 4.736
56.1461 5.772
56.1764 6.340
56.2067 7.637
56.2370 7.581
56.2673 9.035
56.2975 8.302
56.3278 12.309
56.3581 12.618
56.3884 15.428
56.4187 14.384
56.4489 18.341
56.4792 15.579
56.5095 16.567
56.5398 15.941
56.5700 14.118
56.6003 14.118
56.6306 14.847
56.6609 12.087
56.6912 9.588
56.7214 8.287
56.7517 7.612
56.7820 6.259
56.8123 7.564
56.8426 5.014
56.8728 4.340
56.9031 5.229
56.9334 4.452
56.9637 3.050
56.9939 3.002
57.0242 2.330
57.0545 2.126
57.0848 1.819
57.1151 1.200
57.1453 1.363
57.1756 2.203
57.2059 1.689
57.2362 0.759
57.2665 1.079
57.2967 1.087
57.3270 0.158
57.3573 0.323
57.3876 0.905
57.4178 1.331
57.4481 0.455
57.4784 -0.056
57.5087 0.215
57.5390 0.174
57.5692 1.123
57.5995 -0.636
57.6298 -0.156
57.6601 0.221
57.6904 0.442
57.7206 0.038
57.7509 -0.104
57.7812 0.013
57.8115 0.288
57.8417 -0.375
57.8720 0.109
57.9023 -0.084
57.9326 -0.173
57.9629 0.728
57.9931 -0.141
58.0234 0.292
58.0537 -0.316
58.0840 0.170
58.1143 0.448
58.1445 0.154
58.1748 0.380
58.2051 -0.070
58.2354 0.210
58.2656 0.021
58.2959 -0.480
58.3262 -0.068
58.3565 0.136
58.3868 -0.128
58.4170 -0.131
58.4473 -0.134
58.4776 -0.240
58.5079 -0.034
58.5382 -0.140
58.5684 0.379
58.5987 0.118
58.6290 0.221
58.6593 0.116
58.6896 -0.040
58.7198 -0.248
58.7501 0.013
58.7804 -0.559
58.8107 -0.039
58.8409 0.378
58.8712 -0.560
58.9015 0.378
58.9318 0.014
58.9621 0.588
58.9923 0.121
59.0226 -0.346
59.0529 0.073
59.0832 -0.185
59.1135 -0.338
59.1437 0.130
59.1740 0.391
59.2043 -0.494
59.2346 -0.129
59.2648 0.446
59.2951 0.030
59.3254 -0.488
59.3557 0.660
59.3860 -0.119
59.4162 0.509
59.4465 -0.529
59.4768 -0.317
59.5071 -0.001
59.5374 0.004
59.5676 -0.044
59.5979 0.170
59.6282 0.019
59.6585 0.025
59.6887 0.135
59.7190 0.194
59.7493 0.253
59.7796 0.000
59.8099 -0.149
59.8401 -0.401
59.8704 0.115
59.9007 -0.045
59.9310 -0.204
59.9613 0.209
59.9915 0.259
60.0218 0.517
60.0521 0.619
60.0824 0.149
60.1126 0.148
60.1429 0.772
60.1732 0.511
60.2035 -0.114
60.2338 -0.583
60.2640 0.407
60.2943 0.669
60.3246 -0.320
60.3549 0.359
60.3852 -0.472
60.4154 -0.001
60.4457 0.158
60.4760 0.317
60.5063 0.112
60.5365 0.480
60.5668 0.172
60.5971 0.281
60.6274 -0.131
60.6577 0.291
60.6879 -0.173
60.7182 -0.427
60.7485 0.132
60.7788 0.327
60.8091 -0.050
60.8393 0.094
60.8696 0.081
60.8999 0.070
60.9302 0.006
60.9604 0.568
60.9907 0.140
61.0210 0.547
61.0513 0.380
61.0816 0.006
61.1118 -0.003
61.1421 0.509
61.1724 0.292
61.2027 -0.185
61.2330 -0.245
61.2632 0.320
61.2935 -0.104
61.3238 0.098
61.3541 -0.534
61.3844 -0.134
61.4146 -0.047
61.4449 -0.168
61.4752 0.858
61.5055 0.477
61.5357 0.149
61.5660 0.394
61.5963 0.327
61.6266 0.261
61.6569 0.663
61.6871 0.285
61.7174 -0.301
61.7477 0.467
61.7780 0.246
61.8083 0.077
61.8385 0.117
61.8688 0.835
61.8991 0.511
61.9294 -0.073
61.9596 0.281
61.9899 0.844
62.0202 1.094
62.0505 0.199
62.0808 1.753
62.1110 0.702
62.1413 1.371
62.1716 1.728
62.2019 2.189
62.2322 1.921
62.2624 1.497
62.2927 2.428
62.3230 3.620
62.3533 3.926
62.3835 3.868
62.4138 4.801
62.4441 4.744
62.4744 5.677
62.5047 6.350
62.5349 8.481
62.5652 7.697
62.5955 10.506
62.6258 11.232
62.6561 12.792
62.6863 13.363
62.7166 14.039
62.7469 12.996
62.7772 13.672
62.8074 12.369
62.8377 13.515
62.8680 11.796
62.8983 10.807
62.9286 11.485
62.9588 10.601
62.9891 7.842
63.0194 7.323
63.0497 5.658
63.0800 6.546
63.1102 4.466
63.1405 4.938
63.1708 3.796
63.2011 4.269
63.2313 2.242
63.2616 2.142
63.2919 1.835
63.3222 1.424
63.3525 1.586
63.3827 1.123
63.4130 0.817
63.4433 1.605
63.4736 1.092
63.5039 0.891
63.5341 0.586
63.5644 0.855
63.5947 0.655
63.6250 0.508
63.6552 0.726
63.6855 0.631
63.7158 0.277
63.7461 0.495
63.7764 0.350
63.8066 0.413
63.8369 0.060
63.8672 0.124
63.8975 -0.645
63.9278 0.201
63.9580 0.318
63.9883 0.279
64.0186 0.189
64.0489 -0.266
64.0791 0.269
64.1094 -0.289
64.1397 -0.691
64.1700 0.260
64.2003 -0.143
64.2305 0.131
64.2608 -0.271
64.2911 0.160
64.3214 0.175
64.3517 0.138
64.3819 -0.159
64.4122 -0.768
64.4425 0.130
64.4728 0.143
64.5031 0.677
64.5333 0.326
64.5636 0.757
64.5939 0.042
64.6242 0.474
64.6544 0.489
64.6847 0.244
64.7150 -0.001
64.7453 -0.506
64.7756 -0.040
64.8058 0.218
64.8361 -0.149
64.8664 0.318
64.8967 0.420
64.9270 0.523
64.9572 0.575
64.9875 0.470
65.0178 0.209
65.0481 0.053
65.0783 0.835
65.1086 0.627
65.1389 0.212
65.1692 0.057
65.1995 -0.045
65.2297 0.114
65.2600 -0.248
65.2903 -0.506
65.3206 0.198
65.3509 0.328
65.3811 0.251
65.4114 0.434
65.4417 0.097
65.4720 0.333
65.5022 0.414
65.5325 0.234
65.5628 0.263
65.5931 -0.072
65.6234 0.113
65.6536 0.716
65.6839 -0.139
65.7142 0.100
65.7445 0.392
65.7748 -0.358
65.8050 0.195
65.8353 0.331
65.8656 0.936
65.8959 0.240
65.9261 0.013
65.9564 -0.318
65.9867 1.487
66.0170 0.635
66.0473 1.087
66.0775 0.705
66.1078 1.261
66.1381 1.453
66.1684 1.750
66.1987 0.901
66.2289 1.406
66.2592 1.339
66.2895 1.741
66.3198 0.998
66.3500 1.192
66.3803 0.710
66.4106 1.113
66.4409 0.840
66.4712 0.880
66.5014 0.711
66.5317 1.220
66.5620 0.376
66.5923 0.937
66.6226 0.718
66.6528 -0.177
66.6831 0.906
66.7134 -0.249
66.7437 -0.258
66.7739 0.045
66.8042 -0.067
66.8345 0.497
66.8648 -0.448
66.8951 -0.404
66.9253 -0.049
66.9556 0.411
66.9859 0.245
67.0162 0.861
67.0465 0.176
67.0767 1.053
67.1070 1.046
67.1373 0.361
67.1676 0.302
67.1978 0.712
67.2281 1.018
67.2584 0.648
67.2887 1.111
67.3190 1.210
67.3492 2.143
67.3795 1.774
67.4098 1.926
67.4401 2.026
67.4704 2.752
67.5006 2.593
67.5309 2.902
67.5612 3.890
67.5915 4.304
67.6218 4.511
67.6520 7.218
67.6823 5.915
67.7126 7.112
67.7429 7.008
67.7731 8.258
67.8034 9.977
67.8337 9.301
67.8640 8.677
67.8943 8.991
67.9245 8.420
67.9548 9.516
67.9851 8.061
68.0154 6.814
68.0457 5.879
68.0759 5.102
68.1062 5.366
68.1365 4.589
68.1668 4.178
68.1970 3.297
68.2273 3.199
68.2576 3.100
68.2879 2.169
68.3182 2.019
68.3484 3.016
68.3787 1.773
68.4090 1.260
68.4393 1.111
68.4696 2.578
68.4998 1.597
68.5301 1.815
68.5604 1.147
68.5907 0.844
68.6209 1.583
68.6512 1.125
68.6815 1.865
68.7118 2.605
68.7421 2.565
68.7723 2.889
68.8026 3.631
68.8329 2.914
68.8632 2.614
68.8935 2.784
68.9237 3.579
68.9540 4.843
68.9843 3.972
69.0146 3.674
69.0448 4.939
69.0751 3.132
69.1054 3.460
69.1357 4.205
69.1660 3.180
69.1962 2.155
69.2265 1.912
69.2568 2.086
69.2871 1.843
69.3174 1.966
69.3476 1.412
69.3779 0.858
69.4082 0.460
69.4385 1.418
69.4687 1.281
69.4990 0.573
69.5293 0.333
69.5596 0.667
69.5899 0.844
69.6201 0.449
69.6504 0.159
69.6807 0.442
69.7110 0.257
69.7413 0.228
69.7715 0.095
69.8018 -0.141
69.8321 -0.377
69.8624 0.113
69.8926 -0.125
69.9229 -0.519
69.9532 0.650
69.9835 -0.264
70.0138 0.124
70.0440 0.252
70.0743 0.016
70.1046 0.145
70.1349 -0.611
70.1652 0.144
70.1954 -0.195
70.2257 -0.013
70.2560 -0.299
70.2863 0.041
70.3166 -0.557
70.3468 0.200
70.3771 -0.085
70.4074 0.412
70.4377 0.441
70.4679 -0.364
70.4982 -0.178
70.5285 -0.200
70.5588 0.767
70.5891 0.277
70.6193 -0.422
70.6496 -0.317
70.6799 0.400
70.7102 -0.028
70.7405 0.117
70.7707 0.158
70.8010 0.304
70.8313 -0.279
70.8616 0.284
70.8918 -0.403
70.9221 0.265
70.9524 0.152
70.9827 -0.429
71.0130 0.084
71.0432 -0.340
71.0735 0.225
71.1038 0.479
71.1341 -0.309
71.1644 -0.315
71.1946 0.356
71.2249 -0.066
71.2552 0.137
71.2855 -0.076
71.3157 0.076
71.3460 0.019
71.3763 -0.245
71.4066 -0.300
71.4369 -0.147
71.4671 -0.202
71.4974 0.264
71.5277 0.053
71.5580 0.103
71.5883 -0.315
71.6185 0.048
71.6488 0.047
71.6791 0.411
71.7094 -0.474
71.7396 0.151
71.7699 -0.005
71.8002 0.152
71.8305 -0.419
71.8608 -0.053
71.8910 0.001
71.9213 0.524
71.9516 0.839
71.9819 -0.304
72.0122 -0.300
72.0424 0.273
72.0727 0.794
72.1030 0.118
72.1333 0.015
72.1635 0.121
72.1938 0.227
72.2241 0.229
72.2544 0.805
72.2847 0.391
72.3149 0.707
72.3452 0.034
72.3755 0.819
72.4058 0.459
72.4361 0.724
72.4663 0.677
72.4966 0.995
72.5269 0.689
72.5572 0.591
72.5874 0.701
72.6177 0.656
72.6480 0.716
72.6783 0.463
72.7086 1.096
72.7388 0.635
72.7691 0.175
72.7994 0.393
72.8297 0.506
72.8600 0.047
72.8902 0.474
72.9205 -0.193
72.9508 0.027
72.9811 0.142
73.0113 0.362
73.0416 -0.303
73.0719 -0.343
73.1022 0.282
73.1325 -0.030
73.1627 0.283
73.1930 -0.289
73.2233 -0.132
73.2536 -0.182
73.2839 0.289
73.3141 -0.021
73.3444 -0.071
73.3747 0.193
73.4050 0.196
73.4353 -0.373
73.4655 0.465
73.4958 -0.104
73.5261 0.110
73.5564 0.011
73.5866 -0.244
73.6169 0.231
73.6472 0.341
73.6775 -0.173
73.7078 -0.114
73.7380 -0.107
73.7683 0.057
73.7986 -0.091
73.8289 0.126
73.8592 -0.334
73.8894 -0.064
73.9197 -0.263
73.9500 -0.114
73.9803 0.244
74.0105 -0.022
74.0408 -0.132
74.0711 0.175
74.1014 -0.247
74.1317 0.061
74.1619 0.264
74.1922 0.417
74.2225 -0.004
74.2528 -0.163
74.2831 -0.062
74.3133 0.039
74.3436 0.037
74.3739 0.035
74.4042 -0.123
74.4344 0.658
74.4647 0.032
74.4950 -0.333
74.5253 0.187
74.5556 0.083
74.5858 -0.333
74.6161 0.554
74.6464 0.190
74.6767 -0.016
74.7070 -0.223
74.7372 -0.220
74.7675 -0.270
74.7978 -0.427
74.8281 0.718
74.8583 -0.064
74.8886 -0.012
74.9189 -0.116
74.9492 0.353
74.9795 0.302
75.0097 0.095
75.0400 -0.060
75.0703 -0.162
75.1006 0.361
75.1309 0.260
75.1611 -0.154
75.1914 -0.151
75.2217 0.009
75.2520 -0.143
75.2822 -0.034
75.3125 0.387
75.3428 0.913
75.3731 0.085
75.4034 0.195
75.4336 -0.215
75.4639 -0.052
75.4942 -0.097
75.5245 0.327
75.5548 0.334
75.5850 0.030
75.6153 0.142
75.6456 -0.057
75.6759 -0.257
75.7061 -0.112
75.7364 0.034
75.7667 0.180
75.7970 0.013
75.8273 0.368
75.8575 -0.006
75.8878 0.037
75.9181 0.028
75.9484 0.176
75.9787 0.168
76.0089 0.264
76.0392 0.153
76.0695 0.250
76.0998 0.192
76.1301 0.081
76.1603 0.127
76.1906 0.018
76.2209 -0.248
76.2512 0.112
76.2814 0.472
76.3117 0.259
76.3420 0.047
76.3723 -0.112
76.4026 0.770
76.4328 0.403
76.4631 -0.277
76.4934 0.294
76.5237 0.293
76.5540 0.291
76.5842 0.603
76.6145 1.123
76.6448 0.654
76.6751 1.019
76.7053 0.707
76.7356 0.812
76.7659 1.022
76.7962 1.127
76.8265 1.025
76.8567 0.923
76.8870 1.447
76.9173 0.773
76.9476 1.036
76.9779 0.988
77.0081 0.523
77.0384 0.736
77.0687 0.949
77.0990 1.111
77.1292 0.595
77.1595 0.966
77.1898 1.076
77.2201 0.510
77.2504 0.621
77.2806 1.097
77.3109 0.427
77.3412 1.060
77.3715 0.496
77.4018 0.557
77.4320 0.357
77.4623 0.419
77.4926 0.012
77.5229 0.282
77.5531 0.033
77.5834 0.512
77.6137 0.211
77.6440 0.170
77.6743 0.130
77.7045 -0.014
77.7348 -0.418
77.7651 -0.010
77.7954 -0.017
77.8257 -0.233
77.8559 0.176
77.8862 -0.091
77.9165 0.059
77.9468 0.209
77.9770 0.151
78.0073 -0.114
78.0376 0.089
78.0679 0.241
78.0982 0.184
78.1284 0.024
78.1587 0.072
78.1890 0.017
78.2193 -0.142
78.2496 -0.040
78.2798 -0.042
78.3101 0.425
78.3404 0.111
78.3707 0.005
78.4009 0.161
78.4312 0.213
78.4615 0.004
78.4918 0.005
78.5221 -0.099
78.5523 -0.098
78.5826 0.112
78.6129 -0.095
78.6432 0.116
78.6735 0.014
78.7037 0.225
78.7340 0.020
78.7643 -0.601
78.7946 -0.032
78.8248 0.120
78.8551 -0.195
78.8854 -0.198
78.9157 0.268
78.9460 -0.046
78.9762 -0.100
79.0065 -0.049
79.0368 0.106
79.0671 0.105
79.0974 -0.208
79.1276 -0.051
79.1579 0.105
79.1882 0.314
79.2185 0.055
79.2488 0.057
79.2790 -0.254
79.3093 0.061
79.3396 -0.249
79.3699 0.222
79.4001 -0.243
79.4304 0.385
79.4607 -0.236
79.4910 -0.023
79.5213 0.138
79.5515 0.195
79.5818 0.044
79.6121 0.050
79.6424 -0.257
79.6727 -0.203
79.7029 -0.097
79.7332 0.426
79.7635 -0.405
79.7938 -0.037
79.8240 0.539
79.8543 0.386
79.8846 -0.391
79.9149 0.342
79.9452 0.243
79.9754 -0.482
80.0057 0.045
80.0360 -0.106
80.0663 -0.152
80.0966 -0.250
80.1268 0.004
80.1571 0.467
80.1874 -0.060
80.2177 -0.117
80.2479 0.138
80.2782 -0.231
80.3085 -0.027
80.3388 -0.031
80.3691 -0.243
80.3993 0.015
80.4296 -0.197
80.4599 0.061
80.4902 -0.045
80.5205 -0.099
80.5507 0.316
80.5810 0.003
80.6113 0.054
80.6416 -0.363
80.6718 0.262
80.7021 0.367
80.7324 0.003
80.7627 -0.257
80.7930 -0.155
80.8232 -0.210
80.8535 -0.056
80.8838 0.047
80.9141 -0.059
80.9444 0.982
80.9746 0.356
81.0049 0.876
81.0352 0.460
81.0655 0.304
81.0957 0.252
81.1260 0.201
81.1563 0.880
81.1866 0.413
81.2169 0.467
81.2471 0.626
81.2774 0.525
81.3077 0.788
81.3380 0.531
81.3683 0.431
81.3985 1.269
81.4288 0.075
81.4591 0.862
81.4894 0.815
81.5196 0.404
81.5499 0.254
81.5802 0.833
81.6105 0.215
81.6408 0.430
81.6710 0.333
81.7013 0.341
81.7316 0.401
81.7619 0.202
81.7922 0.158
81.8224 -0.093
81.8527 -0.187
81.8830 0.500
81.9133 0.041
81.9436 0.052
81.9738 0.844
82.0041 0.231
82.0344 0.399
82.0647 0.254
82.0949 0.475
82.1252 -0.241
82.1555 -0.228
82.1858 0.024
82.2161 0.225
82.2463 0.218
82.2766 -0.102
82.3069 0.256
82.3372 0.250
82.3675 0.609
82.3977 0.134
82.4280 0.546
82.4583 -0.240
82.4886 0.432
82.5188 0.324
82.5491 0.164
82.5794 0.265
82.6097 0.314
82.6400 0.311
82.6702 -0.212
82.7005 -0.162
82.7308 -0.216
82.7611 0.095
82.7914 0.355
82.8216 0.094
82.8519 -0.375
82.8822 0.198
82.9125 0.199
82.9427 0.408
82.9730 -0.008
83.0033 0.098
83.0336 0.569
83.0639 0.050
83.0941 -0.051
83.1244 -0.101
83.1547 0.424
83.1850 0.011
83.2153 0.379
83.2455 0.123
83.2758 -0.080
83.3061 0.550
83.3364 0.555
83.3666 -0.012
83.3969 0.151
83.4272 -0.259
83.4575 -0.165
83.4878 0.607
83.5180 -0.184
83.5483 -0.140
83.5786 0.112
83.6089 -0.053
83.6392 0.200
83.6694 0.088
83.6997 -0.283
83.7300 0.439
83.7603 0.068
83.7905 0.219
83.8208 0.265
83.8511 0.625
83.8814 0.724
83.9117 0.042
83.9419 0.142
83.9722 0.086
84.0025 -0.021
84.0328 0.080
84.0631 -0.444
84.0933 -0.085
84.1236 -0.091
84.1539 -0.461
84.1842 0.158
84.2144 -0.055
84.2447 -0.007
84.2750 -0.012
84.3053 -0.172
84.3356 -0.227
84.3658 -0.126
84.3961 0.080
84.4264 -0.131
84.4567 -0.185
84.4870 0.282
84.5172 0.072
84.5475 0.175
84.5778 0.123
84.6081 0.070
84.6383 -0.346
84.6686 0.123
84.6989 0.488
84.7292 0.438
84.7595 -0.134
84.7897 0.493
84.8200 -0.026
84.8503 0.185
84.8806 0.240
84.9109 -0.069
84.9411 0.143
84.9714 -0.009
85.0017 0.048
85.0320 0.261
85.0623 -0.203
85.0925 -0.250
85.1228 -0.460
85.1531 0.372
85.1834 0.267
85.2136 0.006
85.2439 0.110
85.2742 0.163
85.3045 -0.149
85.3348 -0.044
85.3650 0.113
85.3953 -0.458
85.4256 0.325
85.4559 -0.246
85.4862 -0.139
85.5164 0.229
85.5467 -0.081
85.5770 0.079
85.6073 0.136
85.6375 0.452
85.6678 0.405
85.6981 -0.111
85.7284 -0.209
85.7587 0.057
85.7889 -0.145
85.8192 -0.243
85.8495 -0.036
85.8798 0.223
85.9101 -0.091
85.9403 0.169
85.9706 -0.144
86.0009 -0.092
86.0312 0.065
86.0614 -0.195
86.0917 -0.038
86.1220 0.016
86.1523 -0.243
86.1826 -0.139
86.2128 0.069
86.2431 0.173
86.2734 0.226
86.3037 -0.190
86.3340 -0.240
86.3642 0.178
86.3945 -0.029
86.4248 -0.339
86.4551 0.022
86.4853 0.280
86.5156 0.069
86.5459 -0.611
86.5762 0.168
86.6065 -0.562
86.6367 0.374
86.6670 0.477
86.6973 -0.357
86.7276 0.060
86.7579 -0.044
86.7881 -0.096
86.8184 0.478
86.8487 0.166
86.8790 0.324
86.9092 -0.091
86.9395 0.380
86.9698 0.331
87.0001 -0.291
87.0304 -0.236
87.0606 0.914
87.0909 0.033
87.1212 0.193
87.1515 0.042
87.1818 -0.005
87.2120 -0.364
87.2423 -0.008
87.2726 -0.068
87.3029 -0.128
87.3331 0.699
87.3634 0.536
87.3937 -0.096
87.4240 0.054
87.4543 0.048
87.4845 0.251
87.5148 0.246
87.5451 0.450
87.5754 -0.283
87.6057 -0.183
87.6359 0.334
87.6662 0.018
87.6965 0.328
87.7268 0.065
87.7571 -0.250
87.7873 -0.158
87.8176 -0.013
87.8479 0.236
87.8782 0.589
87.9084 0.110
87.9387 0.047
87.9690 0.194
87.9993 -0.024
88.0296 0.435
88.0598 -0.043
88.0901 -0.103
88.1204 0.201
88.1507 -0.015
88.1810 0.498
88.2112 0.230
88.2415 -0.141
88.2718 0.165
88.3021 0.003
88.3323 -0.055
88.3626 -0.008
88.3929 0.299
88.4232 -0.018
88.4535 -0.283
88.4837 0.182
88.5140 -0.290
88.5443 -0.199
88.5746 -0.159
88.6049 -0.067
88.6351 -0.235
88.6654 0.534
88.6957 -0.050
88.7260 -0.477
88.7562 0.606
88.7865 0.023
88.8168 -0.038
88.8471 0.577
88.8774 0.152
88.9076 -0.013
88.9379 0.656
88.9682 0.231
88.9985 0.588
89.0288 0.164
89.0590 0.522
89.0893 0.620
89.1196 1.030
89.1499 0.816
89.1801 0.759
89.2104 1.066
89.2407 0.801
89.2710 1.370
89.3013 1.574
89.3315 1.779
89.3618 1.046
89.3921 1.929
89.4224 0.729
89.4527 1.768
89.4829 1.349
89.5132 2.390
89.5435 1.868
89.5738 1.711
89.6040 1.606
89.6343 2.075
89.6646 0.981
89.6949 1.503
89.7252 1.452
89.7554 1.818
89.7857 1.559
89.8160 1.144
89.8463 0.834
89.8766 0.941
89.9068 0.997
89.9371 0.636
89.9674 1.264
89.9977 1.425
90.0279 0.179
90.0582 0.653
90.0885 0.502
90.1188 0.091
90.1491 -0.163
90.1793 0.155
90.2096 0.891
90.2399 0.482
90.2702 0.698
90.3005 0.914
90.3307 -0.172
90.3610 -0.111
90.3913 0.106
90.4216 -0.145
90.4518 0.124
90.4821 -0.282
90.5124 -0.281
90.5427 0.034
90.5730 0.193
90.6032 -0.065
90.6335 0.407
90.6638 -0.267
90.6941 -0.055
90.7244 0.262
90.7546 0.214
90.7849 -0.249
90.8152 0.120
90.8455 0.178
90.8758 0.080
90.9060 0.242
90.9363 0.301
90.9666 0.100
90.9969 -0.361
91.0271 0.167
91.0574 0.331
91.0877 0.236
91.1180 -0.433
91.1483 0.358
91.1785 0.263
91.2088 0.065
91.2391 -0.394
91.2694 -0.094
91.2997 0.259
91.3299 0.143
91.3602 0.080
91.3905 0.121
91.4208 0.266
91.4510 0.412
91.4813 -0.119
91.5116 0.184
91.5419 -0.033
91.5722 0.166
91.6024 -0.259
91.6327 0.098
91.6630 -0.639
91.6933 -0.022
91.7236 0.179
91.7538 -0.504
91.7841 0.010
91.8144 0.160
91.8447 0.155
91.8749 0.202
91.9052 -0.324
91.9355 0.036
91.9658 0.396
91.9961 -0.337
92.0263 -0.288
92.0566 0.122
92.0869 -0.300
92.1172 0.371
92.1475 -0.363
92.1777 0.205
92.2080 -0.007
92.2383 -0.324
92.2686 0.141
92.2988 -0.279
92.3291 0.291
92.3594 0.236
92.3897 0.182
92.4200 0.232
92.4502 0.074
92.4805 -0.031
92.5108 0.385
92.5411 -0.136
92.5714 0.072
92.6016 0.645
92.6319 0.594
92.6622 0.490
92.6925 0.335
92.7227 0.233
92.7530 0.495
92.7833 0.133
92.8136 0.136
92.8439 0.191
92.8741 0.247
92.9044 0.875
92.9347 0.046
92.9650 0.051
92.9953 0.004
93.0255 0.269
93.0558 0.171
93.0861 0.333
93.1164 0.183
93.1466 0.398
93.1769 0.613
93.2072 0.100
93.2375 0.212
93.2678 -0.197
93.2980 -0.241
93.3283 -0.024
93.3586 0.038
93.3889 -0.317
93.4192 -0.053
93.4494 0.212
93.4797 -0.200
93.5100 -0.091
93.5403 0.123
93.5706 -0.236
93.6008 -0.126
93.6311 0.245
93.6614 0.304
93.6917 0.207
93.7219 0.006
93.7522 0.379
93.7825 -0.342
93.8128 0.448
93.8431 0.196
93.8733 -0.367
93.9036 0.267
93.9339 0.382
93.9642 0.132
93.9945 -0.118
94.0247 -0.315
94.0550 0.088
94.0853 0.595
94.1156 0.582
94.1458 -0.211
94.1761 -0.120
94.2064 0.337
94.2367 0.378
94.2670 0.263
94.2972 -0.009
94.3275 0.189
94.3578 0.283
94.3881 0.742
94.4184 0.212
94.4486 0.151
94.4789 0.507
94.5092 0.551
94.5395 0.178
94.5697 0.015
94.6000 0.528
94.6303 0.209
94.6606 0.098
94.6909 0.457
94.7211 0.659
94.7514 0.497
94.7817 0.701
94.8120 0.488
94.8423 0.639
94.8725 0.896
94.9028 0.684
94.9331 0.785
94.9634 1.615
94.9936 0.831
95.0239 0.985
95.0542 1.556
95.0845 0.878
95.1148 1.137
95.1450 1.969
95.1753 2.229
95.2056 2.125
95.2359 2.125
95.2662 1.345
95.2964 1.814
95.3267 1.347
95.3570 1.401
95.3873 1.090
95.4175 1.092
95.4478 1.981
95.4781 0.786
95.5084 1.258
95.5387 1.262
95.5689 0.693
95.5992 0.333
95.6295 1.484
95.6598 0.968
95.6901 0.557
95.7203 0.980
95.7506 0.830
95.7809 1.097
95.8112 0.739
95.8414 0.903
95.8717 0.390
95.9020 0.189
95.9323 0.146
95.9626 0.154
95.9928 0.737
96.0231 0.746
96.0534 0.391
96.0837 0.401
96.1140 -0.109
96.1442 0.319
96.1745 0.122
96.2048 0.654
96.2351 0.093
96.2653 0.418
96.2956 0.431
96.3259 0.027
96.3562 0.353
96.3865 0.471
96.4167 -0.088
96.4470 0.135
96.4773 -0.319
96.5076 0.009
96.5379 -0.288
96.5681 -0.045
96.5984 -0.219
96.6287 -0.027
96.6590 0.529
96.6893 0.097
96.7195 -0.075
96.7498 0.066
96.7801 -0.001
96.8104 -0.172
96.8406 0.074
96.8709 0.060
96.9012 0.046
96.9315 0.033
96.9618 -0.032
96.9920 -0.253
97.0223 -0.213
97.0526 0.296
97.0829 0.493
97.1132 -0.664
97.1434 0.211
97.1737 -0.425
97.2040 0.190
97.2343 -0.080
97.2645 0.119
97.2948 0.215
97.3251 -0.159
97.3554 -0.115
97.3857 -0.071
97.4159 0.495
97.4462 -0.294
97.4765 0.064
97.5068 -0.567
97.5371 -0.053
97.5673 -0.006
97.5976 -0.376
97.6279 0.140
97.6582 -0.178
97.6884 0.860
97.7187 -0.134
97.7490 -0.398
97.7793 0.115
97.8096 -0.048
97.8398 0.049
97.8701 -0.010
97.9004 -0.016
97.9307 0.135
97.9610 -0.131
97.9912 0.072
98.0215 0.275
98.0518 0.115
98.0821 0.111
98.1123 0.315
98.1426 0.260
98.1729 0.569
98.2032 -0.319
98.2335 0.929
98.2637 0.354
98.2940 -0.116
98.3243 0.612
98.3546 0.767
98.3849 0.819
98.4151 0.871
98.4454 0.662
98.4757 -0.066
98.5060 0.664
98.5362 0.301
98.5665 0.823
98.5968 0.408
98.6271 0.827
98.6574 0.934
98.6876 0.677
98.7179 1.045
98.7482 0.423
98.7785 0.480
98.8088 0.067
98.8390 0.176
98.8693 0.598
98.8996 0.291
98.9299 0.193
98.9601 0.147
98.9904 -0.002
99.0207 0.213
99.0510 0.012
99.0813 0.072
99.1115 0.080
99.1418 -0.068
99.1721 -0.060
99.2024 -0.051
99.2327 -0.145
99.2629 0.229
99.2932 0.239
99.3235 -0.271
99.3538 0.104
99.3841 0.168
99.4143 -0.133
99.4446 -0.225
99.4749 0.360
99.5052 -0.148
99.5354 -0.656
99.5657 0.131
99.5960 -0.176
99.6263 -0.170
99.6566 0.879
99.6868 0.313
99.7171 0.060
99.7474 -0.245
99.7777 -0.081
99.8080 -0.020
99.8382 0.041
99.8685 0.258
99.8988 -0.097
99.9291 -0.035
99.9593 0.496
99.9896 -0.067
100.0199 -0.576
100.0502 0.045
100.0805 0.095
100.1107 0.144
100.1410 0.455
100.1713 -0.329
100.2016 -0.382
100.2319 0.398
100.2621 -0.071
100.2924 -0.020
100.3227 -0.072
100.3530 -0.436
100.3832 0.086
100.4135 -0.174
100.4438 -0.068
100.4741 0.402
100.5044 -0.064
100.5346 0.146
100.5649 -0.111
100.5952 0.257
100.6255 -0.104
100.6558 0.368
100.6860 0.164
100.7163 -0.040
100.7466 0.018
100.7769 -0.394
100.8071 -0.031
100.8374 0.020
100.8677 0.384
100.8980 -0.345
100.9283 0.123
100.9585 0.072
100.9888 -0.240
101.0191 -0.031
101.0494 -0.498
101.0797 0.023
101.1099 -0.446
101.1402 0.284
101.1705 0.129
101.2008 0.286
101.2310 0.028
101.2613 0.759
101.2916 0.188
101.3219 0.139
101.3522 -0.118
101.3824 0.562
101.4127 -0.528
101.4430 -0.263
101.4733 0.304
101.5036 -0.431
101.5338 0.084
101.5641 0.132
101.5944 0.075
101.6247 0.123
101.6549 0.067
101.6852 0.793
101.7155 0.060
101.7458 -0.099
101.7761 0.524
101.8063 -0.207
101.8366 0.051
101.8669 0.258
101.8972 -0.055
101.9275 0.100
101.9577 0.152
101.9880 -0.108
102.0183 -0.316
102.0486 0.081
102.0788 0.323
102.1091 0.200
102.1394 -0.079
102.1697 -0.201
102.2000 -0.010
102.2302 0.025
102.2605 0.425
102.2908 -0.009
102.3211 0.079
102.3514 -0.509
102.3816 0.257
102.4119 0.242
102.4422 0.748
102.4725 -0.152
102.5028 0.511
102.5330 0.445
102.5633 0.484
102.5936 0.315
102.6239 0.354
102.6541 0.134
102.6844 0.486
102.7147 0.579
102.7450 0.151
102.7753 0.349
102.8055 0.807
102.8358 0.068
102.8661 0.527
102.8964 0.049
102.9267 -0.012
102.9569 0.239
102.9872 0.283
103.0175 0.327
103.0478 0.268
103.0780 0.052
103.1083 -0.163
103.1386 0.039
103.1689 0.553
103.1992 -0.494
103.2294 0.438
103.2597 0.224
103.2900 0.532
103.3203 0.267
103.3506 0.420
103.3808 0.364
103.4111 0.048
103.4414 0.410
103.4717 0.303
103.5019 -0.064
103.5322 -0.170
103.5625 0.453
103.5928 0.244
103.6231 0.607
103.6533 0.399
103.6836 0.346
103.7139 0.868
103.7442 0.504
103.7745 0.817
103.8047 0.610
103.8350 0.716
103.8653 0.457
103.8956 1.345
103.9258 1.296
103.9561 0.778
103.9864 0.625
104.0167 0.837
104.0470 1.206
104.0772 1.210
104.1075 0.434
104.1378 1.012
104.1681 0.497
104.1984 0.659
104.2286 0.509
104.2589 1.141
104.2892 0.575
104.3195 1.259
104.3497 1.007
104.3800 1.067
104.4103 0.711
104.4406 0.719
104.4709 0.468
104.5011 0.217
104.5314 0.123
104.5617 0.393
104.5920 0.091
104.6223 0.519
104.6525 0.270
104.6828 1.115
104.7131 0.137
104.7434 0.254
104.7736 -0.046
104.8039 -0.398
104.8342 0.030
104.8645 -0.219
104.8948 0.054
104.9250 -0.038
104.9553 0.079
104.9856 -0.481
105.0159 0.261
105.0462 -0.246
105.0764 -0.076
105.1067 -0.165
105.1370 -0.046
105.1673 -0.396
105.1975 0.023
105.2278 -0.338
105.2581 0.134
105.2884 -0.436
105.3187 0.089
105.3489 -0.167
105.3792 -0.006
105.4095 -0.157
105.4398 -0.099
105.4701 0.010
105.5003 0.277
105.5306 0.075
105.5609 -0.543
105.5912 -0.015
105.6215 -0.007
105.6517 0.105
105.6820 0.165
105.7123 0.017
105.7426 0.495
105.7728 0.036
105.8031 -0.163
105.8334 0.472
105.8637 0.118
105.8940 -0.028
105.9242 -0.225
105.9545 0.151
105.9848 0.163
106.0151 0.279
106.0454 -0.125
106.0756 0.097
106.1059 -0.046
106.1362 0.123
106.1665 -0.019
106.1967 0.464
106.2270 -0.198
106.2573 -0.287
106.2876 0.169
106.3179 0.105
106.3481 0.094
106.3784 -0.074
106.4087 0.332
106.4390 -0.355
106.4693 0.312
106.4995 -0.010
106.5298 0.189
106.5601 -0.393
106.5904 -0.193
106.6206 0.163
106.6509 0.884
106.6812 0.356
106.7115 0.193
106.7418 0.186
106.7720 0.283
106.8023 -0.243
106.8326 0.115
106.8629 0.266
106.8932 -0.468
106.9234 -0.108
106.9537 0.044
106.9840 -0.168
107.0143 0.557
107.0445 0.137
107.0748 0.030
107.1051 0.080
107.1354 0.338
107.1657 0.388
107.1959 0.022
107.2262 0.334
107.2565 0.177
107.2868 -0.136
107.3171 0.124
107.3473 -0.084
107.3776 0.021
107.4079 0.282
107.4382 -0.081
107.4684 0.025
107.4987 0.183
107.5290 0.342
107.5593 -0.020
107.5896 0.400
107.6198 -0.117
107.6501 -0.270
107.6804 0.089
107.7107 0.500
107.7410 -0.182
107.7712 0.022
107.8015 0.070
107.8318 -0.403
107.8621 0.115
107.8923 -0.149
107.9226 0.161
107.9529 -0.259
107.9832 0.156
108.0135 0.050
108.0437 -0.056
108.0740 0.464
108.1043 0.203
108.1346 0.203
108.1649 0.046
108.1951 -0.005
108.2254 -0.161
108.2557 -0.004
108.2860 0.414
108.3163 -0.157
108.3465 -0.050
108.3768 0.004
108.4071 0.111
108.4374 -0.042
108.4676 0.118
108.4979 0.070
108.5282 0.074
108.5585 -0.234
108.5888 0.448
108.6190 -0.276
108.6493 0.147
108.6796 -0.420
108.7099 -0.166
108.7402 0.297
108.7704 0.083
108.8007 0.025
108.8310 0.020
108.8613 -0.140
108.8915 -0.145
108.9218 0.320
108.9521 -0.204
108.9824 -0.207
109.0127 -0.210
109.0429 -0.681
109.0732 0.193
109.1035 -0.078
109.1338 0.016
109.1641 0.110
109.1943 -0.212
109.2246 -0.377
109.2549 0.239
109.2852 -0.187
109.3154 -0.038
109.3457 -0.359
109.3760 0.207
109.4063 0.147
109.4366 -0.172
109.4668 -0.282
109.4971 -0.288
109.5274 -0.141
109.5577 -0.045
109.5880 0.259
109.6182 -0.739
109.6485 -0.069
109.6788 0.393
109.7091 -0.031
109.7393 0.223
109.7696 -0.096
109.7999 0.524
109.8302 -0.107
109.8605 -0.164
109.8907 0.300
109.9210 0.088
109.9513 0.084
109.9816 0.445
110.0119 0.025
110.0421 0.074
110.0724 0.071
110.1027 0.486
110.1330 0.536
110.1632 0.326
110.1935 0.586
110.2238 0.481
110.2541 0.480
110.2844 0.532
110.3146 0.116
110.3449 0.325
110.3752 0.743
110.4055 0.848
110.4358 0.277
110.4660 0.279
110.4963 -0.135
110.5266 0.649
110.5569 -0.025
110.5871 0.551
110.6174 0.191
110.6477 0.247
110.6780 0.200
110.7083 0.413
110.7385 -0.051
110.7688 0.215
110.7991 0.117
110.8294 1.217
110.8597 -0.026
110.8899 0.502
110.9202 0.301
110.9505 -0.004
110.9808 0.109
111.0110 0.690
111.0413 0.647
111.0716 0.135
111.1019 0.145
111.1322 0.623
111.1624 0.373
111.1927 -0.397
111.2230 -0.126
111.2533 -0.062
111.2836 -0.311
111.3138 0.534
111.3441 0.078
111.3744 0.351
111.4047 0.781
111.4350 -0.195
111.4652 -0.234
111.4955 0.249
111.5258 -0.205
111.5561 0.695
111.5863 0.034
111.6166 -0.263
111.6469 -0.099
111.6772 0.482
111.7075 -0.238
111.7377 0.396
111.7680 -0.012
111.7983 -0.315
111.8286 -0.013
111.8589 -0.075
111.8891 0.071
111.9194 0.321
111.9497 -0.261
111.9800 0.095
112.0102 0.086
112.0405 -0.183
112.0708 0.799
112.1011 0.114
112.1314 -0.102
112.1616 0.464
112.1919 0.250
112.2222 0.243
112.2525 0.133
112.2828 -0.028
112.3130 0.071
112.3433 0.326
112.3736 0.009
112.4039 0.370
112.4341 0.314
112.4644 -0.210
112.4947 0.204
112.5250 -0.007
112.5553 -0.062
112.5855 0.249
112.6158 0.039
112.6461 -0.014
112.6764 0.297
112.7067 0.297
112.7369 -0.120
112.7672 -0.276
112.7975 -0.023
112.8278 0.490
112.8580 0.014
112.8883 -0.200
112.9186 0.106
112.9489 -0.213
112.9792 -0.270
113.0094 -0.171
113.0397 0.241
113.0700 0.444
113.1003 0.076
113.1306 -0.032
113.1608 -0.296
113.1911 0.222
113.2214 0.011
113.2517 -0.200
113.2819 0.736
113.3122 -0.047
113.3425 -0.257
113.3728 -0.049
113.4031 -0.310
113.4333 0.210
113.4636 0.054
113.4939 -0.362
113.5242 0.212
113.5545 -0.256
113.5847 0.163
113.6150 0.529
113.6453 -0.510
113.6756 0.065
113.7058 0.225
113.7361 -0.137
113.7664 0.284
113.7967 0.184
113.8270 0.188
113.8572 -0.068
113.8875 -0.010
113.9178 -0.422
113.9481 -0.001
113.9784 0.263
114.0086 0.268
114.0389 0.220
114.0692 -0.243
114.0995 0.179
114.1298 0.341
114.1600 -0.538
114.1903 0.406
114.2206 -0.317
114.2509 -0.429
114.2811 0.345
114.3114 0.442
114.3417 -0.033
114.3720 -0.196
114.4023 0.371
114.4325 -0.052
114.4628 -0.422
114.4931 0.027
114.5234 0.112
114.5537 0.301
114.5839 -0.134
114.6142 0.212
114.6445 0.142
114.6748 0.228
114.7050 -0.154
114.7353 0.194
114.7656 0.177
114.7959 0.265
114.8262 -0.220
114.8564 0.077
114.8867 0.322
114.9170 -0.057
114.9473 0.241
114.9776 0.070
115.0078 -0.256
115.0381 0.043
115.0684 0.238
115.0987 -0.191
115.1289 -0.308
115.1592 0.045
115.1895 0.190
115.2198 -0.082
115.2501 -0.406
115.2803 0.209
115.3106 -0.374
115.3409 -0.227
115.3712 0.234
115.4015 0.434
115.4317 0.739
115.4620 0.316
115.4923 -0.160
115.5226 0.511
115.5528 -0.068
115.5831 0.082
115.6134 0.077
115.6437 0.280
115.6740 0.588
115.7042 0.323
115.7345 0.059
115.7648 0.733
115.7951 0.469
115.8254 1.456
115.8556 0.776
115.8859 0.982
115.9162 0.928
115.9465 0.094
115.9767 1.030
116.0070 0.873
116.0373 0.664
116.0676 1.081
116.0979 0.404
116.1281 1.655
116.1584 0.979
116.1887 1.085
116.2190 1.399
116.2493 1.401
116.2795 0.726
116.3098 1.094
116.3401 0.732
116.3704 1.517
116.4006 0.479
116.4309 1.213
116.4612 0.749
116.4915 1.327
116.5218 0.759
116.5520 0.400
116.5823 0.875
116.6126 0.673
116.6429 0.992
116.6732 0.843
116.7034 1.007
116.7337 0.806
116.7640 0.450
116.7943 1.083
116.8245 0.467
116.8548 0.060
116.8851 0.122
116.9154 0.392
116.9457 0.194
116.9759 1.038
117.0062 -0.201
117.0365 0.279
117.0668 0.082
117.0971 0.459
117.1273 0.159
117.1576 -0.245
117.1879 0.810
117.2182 0.511
117.2485 -0.361
117.2787 -0.398
117.3090 0.331
117.3393 0.697
117.3696 0.177
117.3998 0.283
117.4301 0.754
117.4604 -0.025
117.4907 -0.126
117.5210 0.294
117.5512 -0.432
117.5815 0.040
117.6118 -0.632
117.6421 -0.060
117.6724 -0.424
117.7026 0.149
117.7329 0.098
117.7632 -0.005
117.7935 -0.212
117.8237 0.155
117.8540 0.417
117.8843 -0.674
117.9146 0.006
117.9449 -0.407
117.9751 0.222
118.0054 0.121
118.0357 -0.135
118.0660 0.131
118.0963 -0.177
118.1265 -0.119
118.1568 -0.218
118.1871 0.309
118.2174 -0.205
118.2476 -0.459
118.2779 0.382
118.3082 0.077
118.3385 -0.071
118.3688 -0.219
118.3990 -0.210
118.4293 -0.149
118.4596 0.589
118.4899 -0.339
118.5202 -0.120
118.5504 -0.370
118.5807 0.096
118.6110 0.355
118.6413 0.249
118.6715 0.040
118.7018 -0.274
118.7321 0.038
118.7624 -0.170
118.7927 0.351
118.8229 0.091
118.8532 0.248
118.8835 -0.428
118.9138 0.095
118.9441 0.461
118.9743 0.203
119.0046 0.258
119.0349 0.313
119.0652 0.056
119.0954 -0.565
119.1257 0.012
119.1560 0.173
119.1863 -0.135
119.2166 0.287
119.2468 -0.437
119.2771 0.663
119.3074 -0.112
119.3377 -0.470
119.3680 0.318
119.3982 0.013
119.4285 -0.031
119.4588 0.029
119.4891 0.037
119.5193 -0.006
119.5496 0.055
119.5799 0.169
119.6102 -0.290
119.6405 -0.178
119.6707 0.143
119.7010 0.308
119.7313 0.005
119.7616 -0.090
119.7919 0.181
119.8221 -0.069
119.8524 0.254
119.8827 0.004
119.9130 0.172
119.9433 -0.285
119.9735 0.352
120.0038 0.000
