'Id: "" Comment: "" Operator: "Lab Manager" Anode: "Cu" Scantype: "Locked Coupled" TimePerStep: "19.2" X: "9999" Y: "9999" Z: "9999" 
10.0015 0.000
10.0318 1.028
10.0620 13.255
10.0923 5.013
10.1226 4.687
10.1529 -2.357
10.1832 -2.786
10.2134 0.161
10.2437 -2.569
10.2740 -1.664
10.3043 -1.071
10.3346 0.564
10.3648 -5.666
10.3951 -0.177
10.4254 -5.312
10.4557 -0.699
10.4859 0.113
10.5162 -1.940
10.5465 -1.870
10.5768 -1.663
10.6071 2.138
10.6373 -2.654
10.6676 1.095
10.6979 -0.989
10.7282 -3.021
10.7585 0.006
10.7887 -1.551
10.8190 -1.390
10.8493 1.115
10.8796 -4.140
10.9098 -1.362
10.9401 -0.042
10.9704 -3.149
11.0007 0.775
11.0310 3.293
11.0612 -0.699
11.0915 -0.264
11.1218 -1.339
11.1521 -0.633
11.1824 -0.292
11.2126 -1.253
11.2429 -1.276
11.2732 -2.343
11.3035 1.062
11.3337 -0.220
11.3640 0.841
11.3943 3.987
11.4246 6.090
11.4549 9.184
11.4851 8.579
11.5154 8.548
11.5457 4.037
11.5760 0.881
11.6063 -1.494
11.6365 1.756
11.6668 -0.827
11.6971 1.329
11.7274 -0.420
11.7577 -0.399
11.7879 -1.367
11.8182 1.936
11.8485 -1.115
11.8788 -1.250
11.9090 0.877
11.9393 0.973
11.9696 -1.015
11.9999 2.414
12.0302 2.406
12.0604 -1.561
12.0907 0.618
12.1210 0.923
12.1513 1.540
12.1816 1.845
12.2118 -0.090
12.2421 -0.202
12.2724 -1.095
12.3027 0.408
12.3329 1.234
12.3632 0.185
12.3935 -0.551
12.4238 0.483
12.4541 1.414
12.4843 -0.312
12.5146 -0.579
12.5449 -0.742
12.5752 0.814
12.6055 -1.171
12.6357 -0.799
12.6660 -0.999
12.6963 0.937
12.7266 0.373
12.7568 0.381
12.7871 -0.547
12.8174 0.451
12.8477 0.408
12.8780 -1.510
12.9082 -0.486
12.9385 -0.035
12.9688 0.052
12.9991 0.399
13.0294 0.486
13.0596 -0.781
13.0899 1.650
13.1202 0.175
13.1505 0.522
13.1807 -0.484
13.2110 -0.344
13.2413 -0.413
13.2716 0.456
13.3019 1.273
13.3321 1.413
13.3624 -0.374
13.3927 -1.067
13.4230 0.349
13.4533 -1.099
13.4835 0.318
13.5138 0.380
13.5441 -0.859
13.5744 -0.331
13.6046 0.354
13.6349 -0.628
13.6652 -0.099
13.6955 0.221
13.7258 -0.031
13.7560 0.498
13.7863 1.287
13.8166 -0.111
13.8469 1.043
13.8772 0.583
13.9074 -0.398
13.9377 0.705
13.9680 -0.484
13.9983 1.504
14.0285 0.471
14.0588 0.168
14.0891 -0.344
14.1194 0.811
14.1497 0.456
14.1799 1.507
14.2102 2.246
14.2405 2.412
14.2708 2.474
14.3011 1.286
14.3313 2.337
14.3616 3.076
14.3919 2.722
14.4222 2.368
14.4524 1.441
14.4827 2.076
14.5130 2.087
14.5433 3.608
14.5736 3.202
14.6038 4.202
14.6341 2.182
14.6644 5.162
14.6947 3.923
14.7250 6.278
14.7552 4.987
14.7855 6.093
14.8158 6.000
14.8461 7.158
14.8764 6.388
14.9066 6.817
14.9369 7.193
14.9672 8.351
14.9975 8.520
15.0277 8.376
15.0580 9.482
15.0883 10.588
15.1186 10.184
15.1489 9.415
15.1791 8.282
15.2094 10.066
15.2397 9.037
15.2700 9.936
15.3003 10.834
15.3305 10.483
15.3608 9.767
15.3911 6.656
15.4214 8.857
15.4516 8.454
15.4819 8.415
15.5122 7.700
15.5425 9.277
15.5728 8.145
15.6030 8.003
15.6333 7.080
15.6636 10.219
15.6939 8.723
15.7242 9.362
15.7544 6.773
15.7847 8.611
15.8150 8.469
15.8453 7.547
15.8755 8.083
15.9058 7.889
15.9361 8.113
15.9664 7.920
15.9967 9.498
16.0269 7.066
16.0572 7.394
16.0875 9.128
16.1178 7.165
16.1481 6.504
16.1783 7.978
16.2086 6.797
16.2389 8.063
16.2692 7.402
16.2994 6.794
16.3297 6.498
16.3600 7.452
16.3903 7.260
16.4206 7.381
16.4508 6.773
16.4811 6.894
16.5114 7.068
16.5417 6.877
16.5720 6.894
16.6022 7.276
16.6325 5.627
16.6628 5.645
16.6931 5.246
16.7233 6.670
16.7536 5.073
16.7839 7.800
16.8142 6.359
16.8445 7.576
16.8747 8.323
16.9050 6.519
16.9353 6.954
16.9656 7.337
16.9959 7.252
17.0261 9.197
17.0564 7.550
17.0867 8.142
17.1170 8.421
17.1472 8.701
17.1775 7.210
17.2078 9.938
17.2381 6.051
17.2684 7.268
17.2986 5.778
17.3289 8.350
17.3592 6.234
17.3895 6.671
17.4198 5.597
17.4500 5.722
17.4803 5.430
17.5106 5.450
17.5409 4.429
17.5712 5.647
17.6014 4.679
17.6317 6.470
17.6620 3.627
17.6923 4.533
17.7225 6.690
17.7528 4.419
17.7831 3.868
17.8134 4.618
17.8437 3.598
17.8739 4.141
17.9042 4.631
17.9345 5.382
17.9648 4.310
17.9951 5.113
18.0253 4.979
18.0556 5.679
18.0859 3.513
18.1162 4.734
18.1464 4.600
18.1767 6.341
18.2070 5.948
18.2373 5.918
18.2676 5.316
18.2978 5.860
18.3281 4.998
18.3584 4.969
18.3887 5.773
18.4190 6.839
18.4492 6.550
18.4795 6.469
18.5098 6.597
18.5401 9.329
18.5703 7.061
18.6006 9.012
18.6309 10.287
18.6612 9.373
18.6915 7.210
18.7217 8.068
18.7520 7.467
18.7823 9.732
18.8126 10.277
18.8429 9.521
18.8731 9.025
18.9034 9.831
18.9337 9.908
18.9640 9.360
18.9942 8.969
19.0245 8.317
19.0548 8.708
19.0851 7.066
19.1154 8.082
19.1456 7.587
19.1759 7.352
19.2062 6.285
19.2365 6.675
19.2668 6.753
19.2970 7.092
19.3273 6.025
19.3576 4.749
19.3879 4.359
19.4181 3.553
19.4484 3.579
19.4787 4.440
19.5090 1.758
19.5393 2.931
19.5695 2.177
19.5998 4.184
19.6301 3.534
19.6604 1.791
19.6907 2.027
19.7209 2.315
19.7512 3.853
19.7815 2.370
19.8118 3.076
19.8420 0.968
19.8723 2.611
19.9026 2.014
19.9329 2.199
19.9632 2.227
19.9934 1.996
20.0237 2.962
20.0540 1.532
20.0843 1.822
20.1146 2.163
20.1448 1.046
20.1751 0.971
20.2054 2.251
20.2357 1.655
20.2659 1.528
20.2962 1.975
20.3265 1.223
20.3568 1.305
20.3871 2.116
20.4173 -0.041
20.4476 0.197
20.4779 0.904
20.5082 0.570
20.5385 1.329
20.5687 0.683
20.5990 -0.380
20.6293 -0.037
20.6596 0.879
20.6899 0.806
20.7201 -0.882
20.7504 0.191
20.7807 0.534
20.8110 -0.424
20.8412 -0.080
20.8715 0.212
20.9018 1.806
20.9321 1.786
20.9624 1.245
20.9926 1.328
21.0229 0.006
21.0532 1.445
21.0835 0.331
21.1138 1.717
21.1440 1.489
21.1743 1.574
21.2046 1.659
21.2349 1.275
21.2651 1.724
21.2954 0.663
21.3257 0.436
21.3560 0.729
21.3863 1.127
21.4165 0.535
21.4468 0.777
21.4771 -0.127
21.5074 -0.250
21.5377 -0.529
21.5679 -0.917
21.5982 1.195
21.6285 1.328
21.6588 0.471
21.6890 1.385
21.7193 0.476
21.7496 -0.068
21.7799 0.014
21.8102 -0.426
21.8404 0.801
21.8707 -0.055
21.9010 -0.598
21.9313 0.071
21.9616 0.376
21.9918 -0.205
22.0221 -0.056
22.0524 -0.272
22.0827 -0.019
22.1129 -0.182
22.1432 0.175
22.1735 -0.248
22.2038 -0.516
22.2341 0.201
22.2643 1.700
22.2946 -1.072
22.3249 -0.042
22.3552 -0.054
22.3855 0.507
22.4157 -0.494
22.4460 0.172
22.4763 0.317
22.5066 0.097
22.5368 -0.226
22.5671 -0.029
22.5974 0.273
22.6277 0.783
22.6580 -0.426
22.6882 0.189
22.7185 0.178
22.7488 0.168
22.7791 -0.103
22.8094 -0.738
22.8396 0.241
22.8699 -0.394
22.9002 -0.195
22.9305 0.889
22.9607 -0.319
22.9910 0.869
23.0213 1.537
23.0516 0.486
23.0819 0.112
23.1121 2.342
23.1424 2.958
23.1727 2.793
23.2030 4.503
23.2333 2.203
23.2635 0.788
23.2938 2.029
23.3241 0.093
23.3544 1.439
23.3846 -0.184
23.4149 0.225
23.4452 0.790
23.4755 1.667
23.5058 2.076
23.5360 1.287
23.5663 2.217
23.5966 0.334
23.6269 0.326
23.6572 1.048
23.6874 1.874
23.7177 0.044
23.7480 1.600
23.7783 0.707
23.8086 1.117
23.8388 2.100
23.8691 2.510
23.8994 1.513
23.9297 1.194
23.9599 1.969
23.9902 1.130
24.0205 2.113
24.0508 1.690
24.0811 3.403
24.1113 2.772
24.1416 2.766
24.1719 3.854
24.2022 2.338
24.2325 1.864
24.2627 3.161
24.2930 3.312
24.3233 2.004
24.3536 2.520
24.3838 4.650
24.4141 4.489
24.4444 3.755
24.4747 5.313
24.5050 4.163
24.5352 6.242
24.5655 4.414
24.5958 4.670
24.6261 4.197
24.6564 5.495
24.6866 6.064
24.7169 5.904
24.7472 6.265
24.7775 8.709
24.8077 6.778
24.8380 8.181
24.8683 8.490
24.8986 9.476
24.9289 7.546
24.9591 7.595
24.9894 7.592
25.0197 8.370
25.0500 9.513
25.0803 10.917
25.1105 11.227
25.1408 10.808
25.1711 12.993
25.2014 12.834
25.2316 13.353
25.2619 14.080
25.2922 14.130
25.3225 14.440
25.3528 15.168
25.3830 14.124
25.4133 14.487
25.4436 15.215
25.4739 16.516
25.5042 15.316
25.5344 15.888
25.5647 17.189
25.5950 16.927
25.6253 14.531
25.6555 15.728
25.6858 16.092
25.7161 16.456
25.7464 16.924
25.7767 15.205
25.8069 12.965
25.8372 18.121
25.8675 12.131
25.8978 12.027
25.9281 13.016
25.9583 10.985
25.9886 11.246
26.0189 13.903
26.0492 14.580
26.0794 11.195
26.1097 12.811
26.1400 11.041
26.1703 10.677
26.2006 10.521
26.2308 11.304
26.2611 11.722
26.2914 10.629
26.3217 12.401
26.3520 12.090
26.3822 11.988
26.4125 10.114
26.4428 8.814
26.4731 10.326
26.5034 12.203
26.5336 11.007
26.5639 11.322
26.5942 13.303
26.6245 11.222
26.6547 12.110
26.6850 12.217
26.7153 14.511
26.7456 15.139
26.7759 14.934
26.8061 15.718
26.8364 15.148
26.8667 19.109
26.8970 16.456
26.9273 18.908
26.9575 17.349
26.9878 18.446
27.0181 18.450
27.0484 16.943
27.0786 20.332
27.1089 20.180
27.1392 20.965
27.1695 17.636
27.1998 18.942
27.2300 19.259
27.2603 16.712
27.2906 17.393
27.3209 16.617
27.3512 17.455
27.3814 17.407
27.4117 18.246
27.4420 16.324
27.4723 16.120
27.5025 18.678
27.5328 19.100
27.5631 18.532
27.5934 16.559
27.6237 16.668
27.6539 14.539
27.6842 17.513
27.7145 16.165
27.7448 16.640
27.7751 16.334
27.8053 18.163
27.8356 16.502
27.8659 18.280
27.8962 16.724
27.9264 16.470
27.9567 18.247
27.9870 18.775
28.0173 15.969
28.0476 15.299
28.0778 17.650
28.1081 17.397
28.1384 17.717
28.1687 17.516
28.1990 17.211
28.2292 15.969
28.2595 17.487
28.2898 19.526
28.3201 19.273
28.3503 16.261
28.3806 18.248
28.4109 16.642
28.4412 18.994
28.4715 19.002
28.5017 16.302
28.5320 17.248
28.5623 17.257
28.5926 13.360
28.6229 15.973
28.6531 15.565
28.6834 17.189
28.7137 13.031
28.7440 11.009
28.7742 12.790
28.8045 10.976
28.8348 13.278
28.8651 13.235
28.8954 11.214
28.9256 8.567
28.9559 7.796
28.9862 9.681
29.0165 8.806
29.0468 8.087
29.0770 7.212
29.1073 6.077
29.1376 6.973
29.1679 5.473
29.1981 5.901
29.2284 4.974
29.2587 5.298
29.2890 4.267
29.3193 4.435
29.3495 3.040
29.3798 5.239
29.4101 3.635
29.4404 3.335
29.4707 2.200
29.5009 2.160
29.5312 3.735
29.5615 2.809
29.5918 2.925
29.6221 2.833
29.6523 1.439
29.6826 2.077
29.7129 3.027
29.7432 2.779
29.7734 1.594
29.8037 1.190
29.8340 2.192
29.8643 0.799
29.8946 2.010
29.9248 1.138
29.9551 1.307
29.9854 2.258
30.0157 1.907
30.0460 2.181
30.0762 0.580
30.1065 0.803
30.1368 1.337
30.1671 -0.159
30.1973 1.886
30.2276 0.494
30.2579 1.811
30.2882 0.627
30.3185 1.892
30.3487 0.604
30.3790 0.827
30.4093 2.144
30.4396 1.534
30.4699 1.497
30.5001 0.366
30.5304 0.173
30.5607 0.396
30.5910 0.985
30.6212 1.365
30.6515 0.287
30.6818 0.459
30.7121 1.204
30.7424 1.115
30.7726 0.663
30.8029 1.356
30.8332 1.476
30.8635 1.544
30.8938 1.144
30.9240 0.900
30.9543 1.386
30.9846 1.350
31.0149 1.054
31.0451 2.634
31.0754 1.661
31.1057 2.564
31.1360 0.185
31.1663 0.984
31.1965 0.845
31.2268 1.643
31.2571 0.984
31.2874 0.429
31.3177 1.853
31.3479 0.621
31.3782 0.639
31.4085 1.438
31.4388 0.102
31.4690 0.120
31.4993 0.243
31.5296 -0.468
31.5599 -0.206
31.5902 0.161
31.6204 0.892
31.6507 1.363
31.6810 -0.197
31.7113 0.691
31.7416 -0.400
31.7718 0.383
31.8021 0.594
31.8324 -0.028
31.8627 0.600
31.8929 0.291
31.9232 -0.227
31.9535 -0.120
31.9838 -0.533
32.0141 0.564
32.0443 0.411
32.0746 0.884
32.1049 -0.154
32.1352 -0.463
32.1655 -0.410
32.1957 0.580
32.2260 0.216
32.2563 -0.408
32.2866 0.114
32.3169 1.105
32.3471 -0.039
32.3774 0.170
32.4077 0.849
32.4380 0.434
32.4682 -0.190
32.4985 0.333
32.5288 0.387
32.5591 1.743
32.5894 2.005
32.6196 2.476
32.6499 2.531
32.6802 3.106
32.7105 2.536
32.7408 2.382
32.7710 3.374
32.8013 2.596
32.8316 1.713
32.8619 0.935
32.8921 1.355
32.9224 2.087
32.9527 1.621
32.9830 0.479
33.0133 1.472
33.0435 1.423
33.0738 1.375
33.1041 1.431
33.1344 0.705
33.1647 0.397
33.1949 1.443
33.2252 1.603
33.2555 0.878
33.2858 0.101
33.3160 0.366
33.3463 1.464
33.3766 1.625
33.4069 0.849
33.4372 1.322
33.4674 1.379
33.4977 1.749
33.5280 0.608
33.5583 0.770
33.5886 -0.162
33.6188 0.989
33.6491 0.370
33.6794 0.584
33.7097 0.381
33.7399 0.856
33.7702 1.278
33.8005 0.086
33.8308 2.176
33.8611 1.974
33.8913 1.199
33.9216 0.059
33.9519 1.628
33.9822 1.687
34.0125 1.590
34.0427 1.597
34.0730 1.239
34.1033 1.819
34.1336 1.045
34.1638 1.677
34.1941 1.163
34.2244 1.848
34.2547 0.606
34.2850 0.509
34.3152 0.933
34.3455 0.525
34.3758 -0.405
34.4061 0.384
34.4364 0.080
34.4666 -0.849
34.4969 0.253
34.5272 -0.780
34.5575 -0.208
34.5877 -0.365
34.6180 -0.261
34.6483 0.208
34.6786 -0.001
34.7089 0.260
34.7391 0.573
34.7694 -0.781
34.7997 0.781
34.8300 0.626
34.8603 0.782
34.8905 0.731
34.9208 -0.154
34.9511 0.316
34.9814 -0.465
35.0116 0.526
35.0419 -0.254
35.0722 0.060
35.1025 -0.252
35.1328 0.844
35.1630 0.168
35.1933 0.691
35.2236 -0.506
35.2539 -0.087
35.2842 0.540
35.3144 0.073
35.3447 1.013
35.3750 0.546
35.4053 0.444
35.4356 0.811
35.4658 0.918
35.4961 1.546
35.5264 1.027
35.5567 0.718
35.5869 1.919
35.6172 1.609
35.6475 2.289
35.6778 1.147
35.7081 3.025
35.7383 2.039
35.7686 2.563
35.7989 2.983
35.8292 1.893
35.8595 3.512
35.8897 3.151
35.9200 2.530
35.9503 2.482
35.9806 3.841
36.0108 3.324
36.0411 2.495
36.0714 3.906
36.1017 3.233
36.1320 2.561
36.1622 2.305
36.1925 2.571
36.2228 2.420
36.2531 2.789
36.2834 2.222
36.3136 3.425
36.3439 3.118
36.3742 3.800
36.4045 2.035
36.4347 3.291
36.4650 3.765
36.4953 2.782
36.5256 2.371
36.5559 2.429
36.5861 3.008
36.6164 1.139
36.6467 1.667
36.6770 2.663
36.7073 1.992
36.7375 1.791
36.7678 1.954
36.7981 3.263
36.8284 2.957
36.8586 1.923
36.8889 2.034
36.9192 2.770
36.9495 2.726
36.9798 3.306
37.0100 2.949
37.0403 2.801
37.0706 2.756
37.1009 3.129
37.1312 2.668
37.1614 2.989
37.1917 3.153
37.2220 2.641
37.2523 2.909
37.2825 2.085
37.3128 1.416
37.3431 3.873
37.3734 2.006
37.4037 1.599
37.4339 2.389
37.4642 1.252
37.4945 2.199
37.5248 2.052
37.5551 2.686
37.5853 2.696
37.6156 2.914
37.6459 2.715
37.6762 1.266
37.7064 2.214
37.7367 2.588
37.7670 2.807
37.7973 2.452
37.8276 2.098
37.8578 2.629
37.8881 1.598
37.9184 1.921
37.9487 2.036
37.9790 1.786
38.0092 1.329
38.0395 1.444
38.0698 1.298
38.1001 1.987
38.1304 1.373
38.1606 1.593
38.1909 2.385
38.2212 1.720
38.2515 1.575
38.2817 1.691
38.3120 1.287
38.3423 0.673
38.3726 0.581
38.4029 1.114
38.4331 0.710
38.4634 0.566
38.4937 0.683
38.5240 0.591
38.5543 0.708
38.5845 0.252
38.6148 0.421
38.6451 0.590
38.6754 0.030
38.7056 0.096
38.7359 1.099
38.7662 1.060
38.7965 0.657
38.8268 -0.111
38.8570 0.476
38.8873 0.333
38.9176 0.087
38.9479 -0.212
38.9782 -0.302
39.0084 -0.184
39.0387 -0.222
39.0690 -0.936
39.0993 0.328
39.1295 -0.074
39.1598 0.253
39.1901 -0.045
39.2204 -0.186
39.2507 -0.119
39.2809 1.615
39.3112 0.640
39.3415 0.551
39.3718 0.358
39.4021 -0.407
39.4323 0.494
39.4626 0.249
39.4929 0.942
39.5232 1.010
39.5534 -0.120
39.5837 -0.365
39.6140 0.048
39.6443 0.512
39.6746 -0.065
39.7048 -0.121
39.7351 0.031
39.7654 -0.233
39.7957 -0.289
39.8260 -0.032
39.8562 0.746
39.8865 -0.039
39.9168 -0.303
39.9471 -0.046
39.9773 0.420
40.0076 -0.156
40.0379 0.153
40.0682 0.567
40.0985 0.616
40.1287 1.707
40.1590 0.090
40.1893 1.025
40.2196 0.919
40.2499 0.916
40.2801 1.123
40.3104 0.287
40.3407 0.650
40.3710 0.596
40.4012 0.386
40.4315 1.009
40.4618 0.539
40.4921 1.058
40.5224 0.692
40.5526 1.524
40.5829 1.263
40.6132 0.480
40.6435 0.063
40.6738 0.530
40.7040 0.321
40.7343 1.102
40.7646 1.049
40.7949 1.361
40.8251 1.153
40.8554 1.517
40.8857 1.152
40.9160 1.256
40.9463 0.996
40.9765 0.944
41.0068 1.465
41.0371 1.101
41.0674 0.476
41.0977 1.622
41.1279 0.842
41.1582 1.676
41.1885 1.104
41.2188 0.219
41.2491 0.272
41.2793 2.252
41.3096 1.056
41.3399 0.745
41.3702 0.433
41.4004 1.893
41.4307 0.905
41.4610 1.949
41.4913 0.961
41.5216 1.119
41.5518 0.809
41.5821 0.759
41.6124 0.709
41.6427 1.857
41.6730 0.765
41.7032 0.820
41.7335 0.875
41.7638 0.721
41.7941 0.880
41.8243 0.935
41.8546 1.042
41.8849 0.889
41.9152 1.830
41.9455 0.739
41.9757 1.472
42.0060 0.798
42.0363 0.698
42.0666 1.639
42.0969 1.070
42.1271 1.647
42.1574 0.869
42.1877 1.342
42.2180 0.357
42.2482 0.882
42.2785 0.157
42.3088 0.318
42.3391 1.312
42.3694 0.900
42.3996 -0.085
42.4299 0.389
42.4602 0.134
42.4905 0.191
42.5208 0.561
42.5510 1.243
42.5813 0.259
42.6116 -0.361
42.6419 -0.305
42.6721 -0.510
42.7024 0.640
42.7327 0.383
42.7630 0.283
42.7933 -0.390
42.8235 0.708
42.8538 0.400
42.8841 0.821
42.9144 -0.476
42.9447 0.362
42.9749 -0.206
43.0052 0.111
43.0355 0.168
43.0658 0.069
43.0960 0.022
43.1263 0.496
43.1566 -0.332
43.1869 0.871
43.2172 0.460
43.2474 -0.316
43.2777 0.732
43.3080 0.425
43.3383 0.431
43.3686 0.333
43.3988 0.495
43.4291 0.658
43.4594 0.299
43.4897 0.514
43.5199 0.417
43.5502 0.059
43.5805 0.482
43.6108 0.020
43.6411 -0.702
43.6713 0.022
43.7016 0.278
43.7319 -0.144
43.7622 -0.096
43.7925 0.211
43.8227 -0.314
43.8530 0.619
43.8833 -0.218
43.9136 0.402
43.9439 0.346
43.9741 -0.126
44.0044 0.599
44.0347 -0.030
44.0650 0.800
44.0952 -0.037
44.1255 -0.353
44.1558 0.055
44.1861 0.307
44.2164 -0.638
44.2466 0.031
44.2769 0.179
44.3072 1.577
44.3375 1.049
44.3678 0.468
44.3980 0.200
44.4283 0.610
44.4586 0.394
44.4889 0.543
44.5191 0.328
44.5494 0.477
44.5797 0.470
44.6100 0.880
44.6403 1.133
44.6705 0.658
44.7008 0.443
44.7311 -0.032
44.7614 0.639
44.7917 -0.305
44.8219 0.262
44.8522 0.568
44.8825 0.302
44.9128 0.400
44.9430 0.551
44.9733 0.649
45.0036 -0.346
45.0339 -0.091
45.0642 0.216
45.0944 -0.101
45.1247 0.102
45.1550 1.295
45.1853 0.248
45.2156 0.347
45.2458 0.134
45.2761 -0.027
45.3064 -0.239
45.3367 0.069
45.3669 0.064
45.3972 0.164
45.4275 0.056
45.4578 -0.156
45.4881 0.412
45.5183 -0.060
45.5486 0.144
45.5789 0.453
45.6092 -0.019
45.6395 0.290
45.6697 0.183
45.7000 0.284
45.7303 0.176
45.7606 1.215
45.7908 0.222
45.8211 -0.510
45.8514 0.008
45.8817 0.058
45.9120 0.732
45.9422 0.730
45.9725 0.259
46.0028 -0.108
46.0331 -0.214
46.0634 0.096
46.0936 0.355
46.1239 0.561
46.1542 0.403
46.1845 0.193
46.2147 0.191
46.2450 0.346
46.2753 0.553
46.3056 -0.073
46.3359 0.030
46.3661 0.498
46.3964 0.445
46.4267 -0.285
46.4570 -0.547
46.4873 0.755
46.5175 0.181
46.5478 -0.704
46.5781 0.076
46.6084 0.389
46.6386 -0.132
46.6689 0.128
46.6992 1.066
46.7295 0.441
46.7598 -0.184
46.7900 1.066
46.8203 0.494
46.8506 0.390
46.8809 0.182
46.9112 -0.494
46.9414 -0.146
46.9717 -0.215
47.0020 0.028
47.0323 0.168
47.0626 0.932
47.0928 -0.178
47.1231 0.170
47.1534 -0.211
47.1837 0.085
47.2139 -0.400
47.2442 0.157
47.2745 0.297
47.3048 0.073
47.3351 0.838
47.3653 0.510
47.3956 0.026
47.4259 0.948
47.4562 0.880
47.4865 1.073
47.5167 0.121
47.5470 0.783
47.5773 1.601
47.6076 0.909
47.6378 1.103
47.6681 1.452
47.6984 0.344
47.7287 1.423
47.7590 0.524
47.7892 2.020
47.8195 0.860
47.8498 1.366
47.8801 1.509
47.9104 0.713
47.9406 0.752
47.9709 0.738
48.0012 1.401
48.0315 0.242
48.0617 -0.136
48.0920 1.049
48.1223 0.723
48.1526 1.491
48.1829 1.478
48.2131 1.153
48.2434 1.296
48.2737 1.596
48.3040 1.583
48.3343 0.685
48.3645 1.871
48.3948 1.286
48.4251 0.805
48.4554 1.626
48.4856 1.614
48.5159 0.977
48.5462 1.538
48.5765 1.995
48.6068 1.046
48.6370 1.451
48.6673 2.742
48.6976 2.106
48.7279 1.626
48.7582 2.396
48.7884 2.541
48.8187 1.593
48.8490 2.311
48.8793 1.363
48.9095 1.769
48.9398 2.592
48.9701 1.227
49.0004 2.519
49.0307 1.467
49.0609 2.446
49.0912 1.759
49.1215 1.489
49.1518 1.219
49.1821 1.626
49.2123 1.564
49.2426 1.398
49.2729 1.337
49.3032 1.640
49.3334 1.474
49.3637 1.517
49.3940 1.248
49.4243 1.499
49.4546 1.022
49.4848 1.169
49.5151 0.796
49.5454 0.527
49.5757 1.039
49.6060 -0.063
49.6362 1.075
49.6665 1.015
49.6968 0.746
49.7271 1.103
49.7574 1.043
49.7876 0.931
49.8179 0.403
49.8482 0.343
49.8785 1.221
49.9087 1.162
49.9390 -0.304
49.9693 0.835
49.9996 0.255
50.0299 0.300
50.0601 0.085
50.0904 1.015
50.1207 0.853
50.1510 -0.196
50.1813 1.100
50.2115 -0.156
50.2418 0.775
50.2721 0.300
50.3024 -0.331
50.3326 -0.077
50.3629 0.803
50.3932 0.172
50.4235 0.635
50.4538 0.786
50.4840 0.572
50.5143 -0.318
50.5446 -0.324
50.5749 -0.173
50.6052 0.656
50.6354 0.338
50.6657 0.646
50.6960 0.849
50.7263 0.532
50.7565 -0.358
50.7868 1.096
50.8171 0.675
50.8474 0.931
50.8777 0.979
50.9079 0.038
50.9382 -0.279
50.9685 0.342
50.9988 0.599
51.0291 1.168
51.0593 0.644
51.0896 0.901
51.1199 1.731
51.1502 0.217
51.1804 1.152
51.2107 0.107
51.2410 0.625
51.2713 0.309
51.3016 0.411
51.3318 1.189
51.3621 0.666
51.3924 1.028
51.4227 0.244
51.4530 0.919
51.4832 0.917
51.5135 1.175
51.5438 0.549
51.5741 0.547
51.6043 1.014
51.6346 0.908
51.6649 0.542
51.6952 -0.137
51.7255 1.424
51.7557 1.163
51.7860 0.901
51.8163 0.431
51.8466 1.316
51.8769 0.429
51.9071 1.001
51.9374 1.261
51.9677 1.052
51.9980 0.583
52.0282 1.208
52.0585 -0.407
52.0888 -0.303
52.1191 0.218
52.1494 0.322
52.1796 0.426
52.2099 1.416
52.2402 -0.355
52.2705 0.375
52.3008 0.428
52.3310 0.689
52.3613 0.429
52.3916 0.951
52.4219 -0.403
52.4521 0.796
52.4824 0.016
52.5127 0.174
52.5430 -0.867
52.5733 0.281
52.6035 -0.083
52.6338 -0.133
52.6641 0.233
52.6944 -0.598
52.7247 -0.180
52.7549 0.863
52.7852 -0.125
52.8155 0.919
52.8458 0.244
52.8761 0.558
52.9063 1.029
52.9366 0.562
52.9669 -0.477
52.9972 0.515
53.0274 -0.003
53.0577 0.624
53.0880 -0.779
53.1183 0.317
53.1486 0.581
53.1788 0.480
53.2091 0.483
53.2394 1.007
53.2697 0.281
53.3000 0.388
53.3302 -0.285
53.3605 -0.021
53.3908 0.451
53.4211 -0.274
53.4513 0.042
53.4816 -0.058
53.5119 1.040
53.5422 -0.154
53.5725 0.059
53.6027 0.532
53.6330 0.641
53.6633 1.010
53.6936 0.285
53.7239 -0.074
53.7541 0.139
53.7844 1.133
53.8147 0.826
53.8450 1.039
53.8752 -0.361
53.9055 0.008
53.9358 1.524
53.9661 0.957
53.9964 0.129
54.0266 -0.073
54.0569 0.766
54.0872 0.668
54.1175 -0.264
54.1478 1.045
54.1780 0.947
54.2083 0.485
54.2386 1.637
54.2689 0.185
54.2991 2.640
54.3294 0.459
54.3597 0.310
54.3900 0.942
54.4203 1.105
54.4505 1.112
54.4808 1.015
54.5111 0.710
54.5414 0.926
54.5717 0.881
54.6019 0.472
54.6322 -0.249
54.6625 0.592
54.6928 0.184
54.7230 0.296
54.7533 0.252
54.7836 1.198
54.8139 -0.409
54.8442 1.110
54.8744 0.390
54.9047 1.909
54.9350 -0.218
54.9653 1.249
54.9956 0.477
55.0258 0.955
55.0561 1.485
55.0864 1.494
55.1167 0.462
55.1469 1.513
55.1772 0.741
55.2075 1.116
55.2378 1.855
55.2681 -0.271
55.2983 1.458
55.3286 1.520
55.3589 2.051
55.3892 1.801
55.4195 1.082
55.4497 1.717
55.4800 1.988
55.5103 1.530
55.5406 2.218
55.5709 1.812
55.6011 1.771
55.6314 1.522
55.6617 2.002
55.6920 1.180
55.7222 3.066
55.7525 1.880
55.7828 1.058
55.8131 1.486
55.8434 1.654
55.8736 1.666
55.9039 1.574
55.9342 2.055
55.9645 0.765
55.9948 0.204
56.0250 0.737
56.0553 1.010
56.0856 0.918
56.1159 0.723
56.1461 0.163
56.1764 1.269
56.2067 -0.697
56.2370 0.774
56.2673 0.110
56.2975 0.384
56.3278 -0.071
56.3581 -0.422
56.3884 0.529
56.4187 0.126
56.4489 0.712
56.4792 1.143
56.5095 -0.093
56.5398 0.546
56.5700 -0.586
56.6003 0.782
56.6306 0.276
56.6609 -0.230
56.6912 0.461
56.7214 -0.149
56.7517 -0.499
56.7820 0.505
56.8123 -0.209
56.8426 -0.194
56.8728 -0.179
56.9031 -0.215
56.9334 -0.148
56.9637 -0.133
56.9939 0.300
57.0242 -0.362
57.0545 0.019
57.0848 -0.330
57.1151 0.311
57.1453 0.066
57.1756 -0.386
57.2059 -0.129
57.2362 0.024
57.2665 0.177
57.2967 -0.399
57.3270 0.223
57.3573 0.272
57.3876 0.113
57.4178 0.788
57.4481 -0.308
57.4784 0.470
57.5087 1.041
57.5390 -0.055
57.5692 0.203
57.5995 0.358
57.6298 -0.165
57.6601 0.718
57.6904 0.248
57.7206 0.350
57.7509 -0.328
57.7812 0.035
57.8115 -0.018
57.8417 0.605
57.8720 -0.542
57.9023 0.187
57.9326 0.029
57.9629 0.185
57.9931 0.184
58.0234 -0.337
58.0537 0.235
58.0840 -0.286
58.1143 0.390
58.1445 -0.079
58.1748 0.755
58.2051 -0.391
58.2354 1.015
58.2656 1.172
58.2959 0.547
58.3262 0.808
58.3565 0.496
58.3868 0.704
58.4170 0.601
58.4473 0.654
58.4776 0.394
58.5079 0.760
58.5382 0.500
58.5684 0.033
58.5987 -0.330
58.6290 -0.017
58.6593 0.401
58.6896 1.184
58.7198 0.769
58.7501 0.927
58.7804 0.408
58.8107 0.306
58.8409 -0.161
58.8712 0.050
58.9015 1.146
58.9318 0.471
58.9621 0.213
58.9923 0.112
59.0226 0.323
59.0529 -0.143
59.0832 -0.036
59.1135 -0.033
59.1437 0.647
59.1740 0.546
59.2043 1.122
59.2346 0.969
59.2648 0.087
59.2951 0.351
59.3254 0.355
59.3557 0.358
59.3860 0.466
59.4162 0.366
59.4465 0.006
59.4768 -0.147
59.5071 0.222
59.5374 0.279
59.5676 0.023
59.5979 0.496
59.6282 -0.333
59.6585 -0.120
59.6887 0.094
59.7190 0.307
59.7493 0.260
59.7796 1.255
59.8099 -0.199
59.8401 -0.037
59.8704 0.281
59.9007 0.130
59.9310 -0.385
59.9613 0.506
59.9915 0.356
60.0218 0.883
60.0521 0.420
60.0824 0.739
60.1126 0.068
60.1429 0.751
60.1732 0.966
60.2035 0.243
60.2338 0.302
60.2640 0.725
60.2943 0.159
60.3246 0.843
60.3549 0.382
60.3852 0.962
60.4154 -0.333
60.4457 0.455
60.4760 -0.006
60.5063 0.262
60.5365 0.895
60.5668 0.329
60.5971 0.129
60.6274 1.022
60.6577 0.353
60.6879 -0.316
60.7182 0.474
60.7485 0.482
60.7788 0.230
60.8091 0.186
60.8393 0.664
60.8696 0.308
60.8999 -0.152
60.9302 0.065
60.9604 0.595
60.9907 0.240
61.0210 0.405
61.0513 0.258
61.0816 0.372
61.1118 0.173
61.1421 0.339
61.1724 0.088
61.2027 0.410
61.2330 0.108
61.2632 1.003
61.2935 0.753
61.3238 0.086
61.3541 0.513
61.3844 0.940
61.4146 0.690
61.4449 0.284
61.4752 0.764
61.5055 1.191
61.5357 -0.412
61.5660 -0.349
61.5963 0.220
61.6266 -0.148
61.6569 0.733
61.6871 -0.051
61.7174 0.727
61.7477 0.515
61.7780 -0.113
61.8083 0.509
61.8385 0.193
61.8688 0.347
61.8991 0.761
61.9294 1.122
61.9596 0.755
61.9899 0.701
62.0202 0.282
62.0505 0.540
62.0808 1.006
62.1110 0.536
62.1413 0.742
62.1716 1.105
62.2019 0.009
62.2322 0.372
62.2624 1.933
62.2927 0.369
62.3230 1.357
62.3533 0.887
62.3835 0.417
62.4138 0.781
62.4441 0.051
62.4744 0.883
62.5047 0.622
62.5349 0.830
62.5652 0.412
62.5955 1.506
62.6258 0.360
62.6561 0.411
62.6863 1.192
62.7166 1.765
62.7469 1.869
62.7772 0.984
62.8074 0.984
62.8377 0.933
62.8680 1.454
62.8983 2.027
62.9286 0.986
62.9588 1.404
62.9891 1.040
63.0194 1.197
63.0497 1.198
63.0800 1.303
63.1102 1.513
63.1405 0.993
63.1708 0.943
63.2011 1.778
63.2313 0.946
63.2616 2.041
63.2919 1.470
63.3222 0.691
63.3525 0.641
63.3827 2.049
63.4130 1.062
63.4433 1.429
63.4736 1.848
63.5039 2.267
63.5341 2.061
63.5644 1.126
63.5947 2.483
63.6250 2.070
63.6552 2.802
63.6855 1.867
63.7158 1.558
63.7461 1.978
63.7764 1.096
63.8066 2.610
63.8369 2.145
63.8672 2.357
63.8975 1.788
63.9278 2.625
63.9580 2.160
63.9883 3.102
64.0186 2.637
64.0489 1.912
64.0791 1.448
64.1094 1.609
64.1397 1.613
64.1700 2.139
64.2003 1.415
64.2305 1.784
64.2608 0.643
64.2911 2.263
64.3214 2.112
64.3517 1.180
64.3819 1.185
64.4122 1.711
64.4425 1.457
64.4728 2.348
64.5031 1.312
64.5333 1.943
64.5636 2.105
64.5939 0.757
64.6242 1.596
64.6544 1.186
64.6847 1.401
64.7150 0.834
64.7453 2.508
64.7756 0.743
64.8058 1.011
64.8361 1.330
64.8664 1.702
64.8967 1.292
64.9270 1.560
64.9572 0.838
64.9875 0.324
65.0178 0.280
65.0481 0.391
65.0783 0.607
65.1086 0.303
65.1389 -0.054
65.1692 0.267
65.1995 1.056
65.2297 0.595
65.2600 0.499
65.2903 0.091
65.3206 0.516
65.3509 0.108
65.3811 0.794
65.4114 0.907
65.4417 -0.282
65.4720 -0.325
65.5022 0.306
65.5325 -0.156
65.5628 -0.046
65.5931 -0.195
65.6234 0.749
65.6536 -0.442
65.6839 0.137
65.7142 0.561
65.7445 0.047
65.7748 0.523
65.8050 0.166
65.8353 -0.035
65.8656 0.285
65.8959 -0.229
65.9261 -0.169
65.9564 -0.109
65.9867 0.263
66.0170 -0.197
66.0473 -0.033
66.0775 0.392
66.1078 -0.433
66.1381 -0.113
66.1684 -0.312
66.1987 0.051
66.2289 0.206
66.2592 -0.420
66.2895 0.256
66.3198 0.568
66.3500 0.359
66.3803 0.359
66.4106 0.046
66.4409 0.618
66.4712 0.462
66.5014 0.201
66.5317 -0.320
66.5620 0.357
66.5923 0.306
66.6226 -0.163
66.6528 0.202
66.6831 0.098
66.7134 -0.005
66.7437 0.204
66.7739 -0.056
66.8042 -0.055
66.8345 -0.002
66.8648 -0.209
66.8951 -0.312
66.9253 -0.210
66.9556 0.102
66.9859 0.309
67.0162 -0.473
67.0465 0.464
67.0767 0.359
67.1070 -0.006
67.1373 0.253
67.1676 0.618
67.1978 -0.320
67.2281 -0.477
67.2584 0.930
67.2887 0.200
67.3190 -0.633
67.3492 0.044
67.3795 0.045
67.4098 0.097
67.4401 -0.059
67.4704 0.931
67.5006 -0.474
67.5309 0.048
67.5612 -0.160
67.5915 0.258
67.6218 -0.366
67.6520 0.625
67.6823 0.313
67.7126 -0.206
67.7429 -0.101
67.7731 0.161
67.8034 0.528
67.8337 -0.356
67.8640 -0.302
67.8943 -0.300
67.9245 -0.298
67.9548 0.173
67.9851 0.279
68.0154 -0.395
68.0457 0.232
68.0759 0.026
68.1062 -0.388
68.1365 0.188
68.1668 -0.486
68.1970 0.090
68.2273 -0.168
68.2576 0.148
68.2879 0.724
68.3182 -0.314
68.3484 -0.154
68.3787 -0.255
68.4090 0.270
68.4393 -0.456
68.4696 -0.087
68.4998 0.490
68.5301 0.910
68.5604 -0.127
68.5907 -0.019
68.6209 0.246
68.6512 0.667
68.6815 -0.005
68.7118 -0.157
68.7421 -0.048
68.7723 -0.304
68.8026 -0.151
68.8329 0.158
68.8632 0.571
68.8935 0.152
68.9237 0.461
68.9540 0.562
68.9843 0.611
69.0146 -0.225
69.0448 0.137
69.0751 0.551
69.1054 0.184
69.1357 0.650
69.1660 0.283
69.1962 0.229
69.2265 0.175
69.2568 -0.296
69.2871 0.588
69.3174 0.273
69.3476 0.167
69.3779 -0.043
69.4082 0.373
69.4385 0.215
69.4687 0.057
69.4990 0.369
69.5293 0.159
69.5596 0.366
69.5899 0.365
69.6201 -0.208
69.6504 0.624
69.6807 0.103
69.7110 0.311
69.7413 0.258
69.7715 0.154
69.8018 0.101
69.8321 0.153
69.8624 -0.107
69.8926 0.622
69.9229 -0.472
69.9532 0.206
69.9835 0.519
70.0138 -0.106
70.0440 -0.157
70.0743 -0.053
70.1046 0.677
70.1349 0.157
70.1652 0.888
70.1954 -0.049
70.2257 -0.308
70.2560 -0.152
70.2863 0.213
70.3166 0.006
70.3468 -0.358
70.3771 0.476
70.4074 0.425
70.4377 0.269
70.4679 0.270
70.4982 -0.249
70.5285 0.429
70.5588 -0.195
70.5891 0.379
70.6193 0.485
70.6496 0.070
70.6799 0.436
70.7102 0.022
70.7405 0.336
70.7707 0.234
70.8010 0.653
70.8313 0.394
70.8616 -0.072
70.8918 0.295
70.9221 -0.015
70.9524 0.196
70.9827 -0.166
71.0130 -0.007
71.0432 0.673
71.0735 0.520
71.1038 0.523
71.1341 -0.307
71.1644 -0.304
71.1946 -0.099
71.2249 0.313
71.2552 0.101
71.2855 0.097
71.3157 -0.531
71.3460 0.090
71.3763 0.191
71.4066 -0.333
71.4369 -0.024
71.4671 0.181
71.4974 -0.239
71.5277 -0.398
71.5580 0.485
71.5883 -0.195
71.6185 -0.093
71.6488 0.477
71.6791 0.787
71.7094 -0.049
71.7396 -0.363
71.7699 0.103
71.8002 0.204
71.8305 0.514
71.8608 0.095
71.8910 0.249
71.9213 0.404
71.9516 0.297
71.9819 -0.382
72.0122 0.137
72.0424 -0.021
72.0727 0.342
72.1030 0.549
72.1333 -0.025
72.1635 -0.183
72.1938 0.076
72.2241 0.075
72.2544 -0.082
72.2847 -0.135
72.3149 0.125
72.3452 0.124
72.3755 0.071
72.4058 0.331
72.4361 0.435
72.4663 0.122
72.4966 0.434
72.5269 -0.243
72.5572 0.330
72.5874 0.330
72.6177 1.164
72.6480 0.695
72.6783 0.695
72.7086 -0.242
72.7388 -0.033
72.7691 -0.032
72.7994 0.854
72.8297 0.178
72.8600 0.596
72.8902 0.545
72.9205 0.494
72.9508 0.807
72.9811 0.236
73.0113 0.446
73.0416 0.343
73.0719 0.084
73.1022 -0.174
73.1325 0.400
73.1627 0.663
73.1930 1.082
73.2233 0.250
73.2536 -0.112
73.2839 0.515
73.3141 0.622
73.3444 0.000
73.3747 0.888
73.4050 0.109
73.4353 0.633
73.4655 0.219
73.4958 0.170
73.5261 0.694
73.5564 1.010
73.5866 -0.549
73.6169 -0.390
73.6472 0.598
73.6775 0.336
73.7078 0.073
73.7380 0.124
73.7683 -0.138
73.7986 0.485
73.8289 0.380
73.8592 0.691
73.8894 0.377
73.9197 0.845
73.9500 0.062
73.9803 0.270
74.0105 0.477
74.0408 0.008
74.0711 0.840
74.1014 0.215
74.1317 0.319
74.1619 0.631
74.1922 0.578
74.2225 1.203
74.2528 0.474
74.2831 0.578
74.3133 0.578
74.3436 0.214
74.3739 1.048
74.4042 0.215
74.4344 0.268
74.4647 0.372
74.4950 -0.200
74.5253 -0.303
74.5556 0.739
74.5858 0.220
74.6161 0.065
74.6464 0.743
74.6767 0.848
74.7070 -0.348
74.7372 0.018
74.7675 -0.084
74.7978 1.167
74.8281 0.544
74.8583 0.077
74.8886 0.392
74.9189 -0.231
74.9492 -0.125
74.9795 1.232
75.0097 0.453
75.0400 0.664
75.0703 0.562
75.1006 0.513
75.1309 0.672
75.1611 -0.158
75.1914 -0.311
75.2217 0.213
75.2520 0.737
75.2822 0.116
75.3125 -0.037
75.3428 0.071
75.3731 0.596
75.4034 -0.025
75.4336 1.021
75.4639 0.140
75.4942 0.508
75.5245 -0.060
75.5548 0.413
75.5850 0.262
75.6153 0.162
75.6456 -0.354
75.6759 0.172
75.7061 0.385
75.7364 -0.235
75.7667 0.343
75.7970 0.296
75.8273 -0.063
75.8575 0.151
75.8878 0.053
75.9181 0.267
75.9484 -0.092
75.9787 -0.295
76.0089 -0.291
76.0392 0.233
76.0695 0.653
76.0998 -0.177
76.1301 0.139
76.1603 -0.014
76.1906 0.250
76.2209 0.879
76.2512 0.154
76.2814 0.367
76.3117 0.058
76.3420 0.167
76.3723 0.171
76.4026 -0.189
76.4328 0.388
76.4631 -0.076
76.4934 0.242
76.5237 1.080
76.5540 0.251
76.5842 0.256
76.6145 -0.624
76.6448 -0.206
76.6751 -0.360
76.7053 0.318
76.7356 0.320
76.7659 -0.199
76.7962 -0.249
76.8265 -0.247
76.8567 0.276
76.8870 -0.399
76.9173 0.021
76.9476 0.804
76.9779 1.015
77.0081 0.237
77.0384 0.291
77.0687 -0.279
77.0990 0.245
77.1292 0.092
77.1595 -0.165
77.1898 0.515
77.2201 -0.106
77.2504 -0.468
77.2806 0.154
77.3109 0.046
77.3412 0.302
77.3715 -0.222
77.4018 0.399
77.4320 -0.281
77.4623 -0.076
77.4926 0.129
77.5229 0.282
77.5531 0.227
77.5834 0.485
77.6137 0.118
77.6440 -0.198
77.6743 -0.148
77.7045 0.058
77.7348 0.055
77.7651 0.209
77.7954 0.363
77.8257 -0.003
77.8559 0.255
77.8862 -0.476
77.9165 0.251
77.9468 0.146
77.9770 -0.116
78.0073 0.143
78.0376 0.193
78.0679 0.244
78.0982 -0.330
78.1284 0.033
78.1587 -0.072
78.1890 0.136
78.2193 0.031
78.2496 -0.230
78.2798 0.759
78.3101 0.706
78.3404 0.133
78.3707 0.653
78.4009 0.289
78.4312 0.028
78.4615 -0.128
78.4918 -0.232
78.5221 0.237
78.5523 -0.336
78.5826 0.133
78.6129 0.134
78.6432 0.707
78.6735 0.343
78.7037 0.084
78.7340 0.033
78.7643 0.190
78.7946 0.764
78.8248 0.244
78.8551 0.402
78.8854 -0.013
78.9157 -0.064
78.9460 0.667
78.9762 -0.113
79.0065 0.514
79.0368 -0.109
79.0671 0.205
79.0974 -0.313
79.1276 0.262
79.1579 -0.101
79.1882 0.891
79.2185 -0.044
79.2488 0.063
79.2790 0.118
79.3093 0.225
79.3396 -0.033
79.3699 -0.186
79.4001 0.286
79.4304 0.029
79.4607 0.240
79.4910 0.660
79.5213 0.091
79.5515 -0.062
79.5818 0.046
79.6121 0.102
79.6424 0.731
79.6727 0.631
79.7029 0.114
79.7332 0.118
79.7635 0.018
79.7938 -0.081
79.8240 -0.389
79.8543 0.130
79.8846 0.128
79.9149 0.439
79.9452 0.230
79.9754 0.072
80.0057 -0.606
80.0360 0.330
80.0663 0.538
80.0966 -0.088
80.1268 0.484
80.1571 0.379
80.1874 0.483
80.2177 0.691
80.2479 0.326
80.2782 0.117
80.3085 0.742
80.3388 0.378
80.3691 0.586
80.3993 0.586
80.4296 0.274
80.4599 0.170
80.4902 0.327
80.5205 0.015
80.5507 0.536
80.5810 0.277
80.6113 -0.243
80.6416 0.539
80.6718 0.332
80.7021 0.124
80.7324 0.022
80.7627 -0.133
80.7930 -0.132
80.8232 -0.078
80.8535 -0.077
80.8838 0.342
80.9141 -0.281
80.9444 -0.019
80.9746 0.452
81.0049 0.662
81.0352 0.144
81.0655 -0.010
81.0957 0.201
81.1260 0.047
81.1563 0.466
81.1866 0.313
81.2169 0.524
81.2471 0.266
81.2774 0.269
81.3077 0.377
81.3380 0.432
81.3683 0.748
81.3985 -0.082
81.4288 0.390
81.4591 0.602
81.4894 0.189
81.5196 0.297
81.5499 0.093
81.5802 0.514
81.6105 0.153
81.6408 -0.415
81.6710 -0.109
81.7013 -0.272
81.7316 0.086
81.7619 0.549
81.7922 0.386
81.8224 0.172
81.8527 0.687
81.8830 0.525
81.9133 0.363
81.9436 0.097
81.9738 0.664
82.0041 0.190
82.0344 0.237
82.0647 0.231
82.0949 0.747
82.1252 0.013
82.1555 0.372
82.1858 0.316
82.2161 -0.314
82.2463 -0.111
82.2766 -0.063
82.3069 0.974
82.3372 0.345
82.3675 -0.232
82.3977 -0.184
82.4280 0.228
82.4583 0.016
82.4886 0.116
82.5188 0.633
82.5491 -0.204
82.5794 -0.103
82.6097 0.467
82.6400 0.255
82.6702 -0.217
82.7005 0.301
82.7308 0.089
82.7611 0.711
82.7914 0.448
82.8216 -0.232
82.8519 0.182
82.8822 0.544
82.9125 -0.187
82.9427 0.123
82.9730 0.693
83.0033 -0.090
83.0336 -0.196
83.0639 -0.302
83.0941 0.581
83.1244 0.163
83.1547 1.151
83.1850 -0.153
83.2153 0.054
83.2455 0.469
83.2758 0.676
83.3061 0.831
83.3364 0.309
83.3666 -0.264
83.3969 -0.057
83.4272 0.567
83.4575 0.098
83.4878 0.201
83.5180 0.201
83.5483 0.201
83.5786 -0.008
83.6089 0.148
83.6392 -0.008
83.6694 0.200
83.6997 -0.060
83.7300 0.565
83.7603 0.305
83.7905 -0.372
83.8208 0.671
83.8511 0.307
83.8814 -0.005
83.9117 -0.108
83.9419 -0.212
83.9722 0.310
84.0025 -0.418
84.0328 0.208
84.0631 -0.311
84.0933 0.211
84.1236 0.161
84.1539 0.214
84.1842 -0.044
84.2144 -0.303
84.2447 0.220
84.2750 0.066
84.3053 0.380
84.3356 0.226
84.3658 0.176
84.3961 -0.290
84.4264 -0.138
84.4567 0.274
84.4870 0.218
84.5172 0.422
84.5475 0.105
84.5778 -0.003
84.6081 0.202
84.6383 -0.740
84.6686 0.090
84.6989 0.138
84.7292 0.708
84.7595 0.392
84.7897 -0.445
84.8200 0.229
84.8503 0.382
84.8806 0.327
84.9109 0.116
84.9411 -0.095
84.9714 0.006
85.0017 -0.257
85.0320 0.835
85.0623 -0.209
85.0925 -0.003
85.1228 -0.110
85.1531 -0.268
85.1834 -0.114
85.2136 -0.272
85.2439 -0.222
85.2742 -0.275
85.3045 0.192
85.3348 0.190
85.3650 -0.019
85.3953 0.083
85.4256 -0.282
85.4559 0.133
85.4862 -0.024
85.5164 0.600
85.5467 0.547
85.5770 0.026
85.6073 0.546
85.6375 -0.027
85.6678 0.128
85.6981 0.128
85.7284 0.180
85.7587 0.336
85.7889 0.128
85.8192 0.180
85.8495 0.232
85.8798 0.337
85.9101 0.337
85.9403 0.286
85.9706 0.026
86.0009 0.183
86.0312 -0.337
86.0614 -0.129
86.0917 0.756
86.1220 -0.181
86.1523 0.079
86.1826 0.288
86.2128 0.184
86.2431 0.288
86.2734 0.705
86.3037 0.029
86.3340 0.863
86.3642 0.447
86.3945 0.240
86.4248 0.397
86.4551 0.033
86.4853 0.087
86.5156 0.296
86.5459 0.298
86.5762 0.195
86.6065 0.301
86.6367 -0.375
86.6670 0.148
86.6973 -0.267
86.7276 -0.265
86.7579 0.362
86.7881 0.260
86.8184 0.158
86.8487 0.369
86.8790 0.059
86.9092 0.270
86.9395 -0.040
86.9698 0.275
87.0001 -0.295
87.0304 -0.244
87.0606 0.327
87.0909 0.326
87.1212 0.324
87.1515 0.167
87.1818 -0.147
87.2120 0.425
87.2423 0.372
87.2726 0.163
87.3029 0.162
87.3331 -0.151
87.3634 0.004
87.3937 0.889
87.4240 -0.205
87.4543 -0.049
87.4845 -0.101
87.5148 -0.153
87.5451 -0.414
87.5754 0.316
87.6057 0.368
87.6359 -0.048
87.6662 0.629
87.6965 0.213
87.7268 -0.463
87.7571 0.058
87.7873 -0.253
87.8176 0.477
87.8479 -0.043
87.8782 0.010
87.9084 0.220
87.9387 0.169
87.9690 0.587
87.9993 0.172
88.0296 0.486
88.0598 0.175
88.0901 -0.136
88.1204 -0.030
88.1507 0.441
88.1810 0.495
88.2112 -0.179
88.2415 0.448
88.2718 0.190
88.3021 0.140
88.3323 0.299
88.3626 0.198
88.3929 0.305
88.4232 -0.317
88.4535 0.206
88.4837 0.366
88.5140 0.004
88.5443 0.581
88.5746 -0.301
88.6049 0.223
88.6351 0.435
88.6654 -0.030
88.6957 0.130
88.7260 0.655
88.7562 0.398
88.7865 0.246
88.8168 0.094
88.8471 0.255
88.8774 0.728
88.9076 0.055
88.9379 0.320
88.9682 0.533
88.9985 0.121
89.0288 -0.186
89.0590 -0.285
89.0893 -0.078
89.1196 0.599
89.1499 0.337
89.1801 0.962
89.2104 -0.080
89.2407 0.284
89.2710 -0.185
89.3013 -0.081
89.3315 -0.602
89.3618 0.544
89.3921 0.075
89.4224 0.753
89.4527 -0.757
89.4829 0.233
89.5132 0.129
89.5435 0.078
89.5738 0.339
89.6040 0.340
89.6343 0.393
89.6646 -0.023
89.6949 0.030
89.7252 0.292
89.7554 -0.019
89.7857 -0.070
89.8160 0.244
89.8463 0.038
89.8766 0.196
89.9068 0.041
89.9371 -0.113
89.9674 0.201
89.9977 0.151
90.0279 -0.315
90.0582 0.208
90.0885 0.523
90.1188 -0.464
90.1491 -0.149
90.1793 0.323
90.2096 -0.195
90.2399 0.016
90.2702 0.488
90.3005 -0.343
90.3307 0.129
90.3610 -0.076
90.3913 -0.280
90.4216 -0.068
90.4518 -0.065
90.4821 0.096
90.5124 0.256
90.5427 0.364
90.5730 -0.048
90.6032 -0.044
90.6335 -0.092
90.6638 0.382
90.6941 -0.082
90.7244 0.547
90.7546 0.292
90.7849 0.401
90.8152 0.771
90.8455 0.203
90.8758 0.468
90.9060 0.057
90.9363 -0.042
90.9666 0.016
90.9969 -0.187
91.0271 -0.441
91.0574 0.235
91.0877 -0.025
91.1180 -0.025
91.1483 0.131
91.1785 0.236
91.2088 -0.233
91.2391 -0.337
91.2694 0.393
91.2997 0.498
91.3299 0.342
91.3602 0.187
91.3905 0.188
91.4208 -0.020
91.4510 0.398
91.4813 -0.070
91.5116 0.400
91.5419 0.141
91.5722 0.559
91.6024 -0.324
91.6327 -0.271
91.6630 0.354
91.6933 0.197
91.7236 0.041
91.7538 -0.168
91.7841 -0.012
91.8144 0.405
91.8447 -0.012
91.8749 -0.012
91.9052 0.041
91.9355 -0.063
91.9658 -0.323
91.9961 0.199
92.0263 0.355
92.0566 0.408
92.0869 0.513
92.1172 0.202
92.1475 0.880
92.1777 0.048
92.2080 0.101
92.2383 -0.262
92.2686 0.156
92.2988 0.783
92.3291 0.159
92.3594 0.057
92.3897 0.163
92.4200 0.009
92.4502 0.480
92.4805 -0.195
92.5108 0.224
92.5411 -0.139
92.5714 0.176
92.6016 0.075
92.6319 1.067
92.6622 0.653
92.6925 0.291
92.7227 0.555
92.7530 0.297
92.7833 -0.012
92.8136 -0.061
92.8439 0.568
92.8741 0.623
92.9044 0.210
92.9347 0.370
92.9650 0.009
92.9953 -0.404
93.0255 0.330
93.0558 0.177
93.0861 0.129
93.1164 0.134
93.1466 0.294
93.1769 0.038
93.2072 0.512
93.2375 0.152
93.2678 0.052
93.2980 -0.203
93.3283 -0.094
93.3586 0.224
93.3889 0.645
93.4192 0.182
93.4494 0.031
93.4797 0.297
93.5100 0.407
93.5403 0.204
93.5706 -0.311
93.6008 -0.157
93.6311 0.153
93.6614 0.463
93.6917 0.356
93.7219 0.198
93.7522 0.196
93.7825 0.194
93.8128 0.348
93.8431 0.242
93.8733 -0.228
93.9036 0.447
93.9339 0.602
93.9642 0.236
93.9945 -0.130
94.0247 -0.027
94.0550 0.233
94.0853 0.440
94.1156 0.179
94.1458 0.178
94.1761 -0.135
94.2064 0.020
94.2367 0.541
94.2670 0.488
94.2972 -0.293
94.3275 0.384
94.3578 0.123
94.3881 -0.189
94.4184 0.280
94.4486 0.644
94.4789 -0.084
94.5092 0.541
94.5395 0.281
94.5697 0.386
94.6000 0.230
94.6303 -0.133
94.6606 -0.080
94.6909 0.598
94.7211 -0.234
94.7514 0.027
94.7817 0.185
94.8120 0.967
94.8423 -0.177
94.8725 0.241
94.9028 -0.069
94.9331 0.193
94.9634 0.507
94.9936 0.197
95.0239 -0.114
95.0542 0.305
95.0845 0.620
95.1148 0.310
95.1450 0.208
95.1753 0.003
95.2056 -0.255
95.2359 -0.255
95.2662 0.054
95.2964 0.103
95.3267 -0.005
95.3570 0.513
95.3873 0.093
95.4175 0.299
95.4478 -0.225
95.4781 -0.020
95.5084 0.238
95.5387 0.184
95.5689 -0.288
95.5992 -0.082
95.6295 -0.761
95.6598 0.174
95.6901 0.433
95.7203 0.275
95.7506 0.168
95.7809 -0.458
95.8112 0.217
95.8414 -0.253
95.8717 -0.203
95.9020 0.057
95.9323 0.420
95.9626 0.210
95.9928 0.157
96.0231 -0.260
96.0534 -0.161
96.0837 0.460
96.1140 0.247
96.1442 0.295
96.1745 0.238
96.2048 -0.651
96.2351 0.334
96.2653 0.226
96.2956 0.848
96.3259 0.271
96.3562 -0.097
96.3865 0.003
96.4167 0.156
96.4470 -0.264
96.4773 0.775
96.5076 0.199
96.5379 0.039
96.5681 0.401
96.5984 0.242
96.6287 0.135
96.6590 0.237
96.6893 -0.078
96.7195 0.440
96.7498 0.542
96.7801 0.019
96.8104 0.069
96.8406 0.223
96.8709 0.325
96.9012 0.115
96.9315 -0.043
96.9618 0.164
96.9920 0.163
97.0223 -0.151
97.0526 0.264
97.0829 -0.050
97.1132 -0.207
97.1434 0.990
97.1737 0.156
97.2040 -0.054
97.2343 0.727
97.2645 0.101
97.2948 0.049
97.3251 0.048
97.3554 0.569
97.3857 -0.317
97.4159 0.464
97.4462 0.516
97.4765 0.048
97.5068 -0.004
97.5371 -0.108
97.5673 0.101
97.5976 0.361
97.6279 0.414
97.6582 0.206
97.6884 0.103
97.7187 -0.104
97.7490 0.105
97.7793 0.679
97.8096 0.576
97.8398 -0.412
97.8701 0.162
97.9004 0.476
97.9307 0.217
97.9610 0.635
97.9912 0.064
98.0215 0.587
98.0518 -0.140
98.0821 -0.034
98.1123 0.229
98.1426 0.022
98.1729 0.129
98.2032 -0.389
98.2335 -0.079
98.2637 0.387
98.2940 0.229
98.3243 1.060
98.3546 0.277
98.3849 -0.454
98.4151 0.065
98.4454 0.376
98.4757 0.427
98.5060 -0.200
98.5362 0.215
98.5665 0.162
98.5968 0.057
98.6271 -0.152
98.6574 -0.153
98.6876 0.158
98.7179 0.105
98.7482 0.001
98.7785 0.313
98.8088 0.260
98.8390 0.103
98.8693 0.155
98.8996 -0.053
98.9299 0.259
98.9601 0.364
98.9904 0.416
99.0207 0.260
99.0510 0.156
99.0813 0.417
99.1115 0.157
99.1418 0.106
99.1721 -0.102
99.2024 0.159
99.2327 0.056
99.2629 0.682
99.2932 -0.046
99.3235 0.216
99.3538 0.165
99.3841 -0.302
99.4143 0.064
99.4446 0.118
99.4749 -0.037
99.5052 -0.348
99.5354 0.696
99.5657 0.229
99.5960 0.492
99.6263 0.390
99.6566 0.184
99.6868 0.134
99.7171 -0.071
99.7474 0.296
99.7777 0.559
99.8080 -0.011
99.8382 -0.321
99.8685 0.099
99.8988 -0.158
99.9291 0.158
99.9593 -0.568
99.9896 0.060
100.0199 0.689
100.0502 0.484
100.0805 0.175
100.1107 0.075
100.1410 0.183
100.1713 0.291
100.2016 0.035
100.2319 0.508
100.2621 0.981
100.2924 0.413
100.3227 0.730
100.3530 -0.203
100.3832 0.895
100.4135 0.119
100.4438 0.280
100.4741 0.754
100.5044 0.186
100.5346 0.191
100.5649 -0.064
100.5952 0.671
100.6255 0.468
100.6558 -0.047
100.6860 0.636
100.7163 0.277
100.7466 -0.030
100.7769 0.757
100.8071 0.087
100.8374 -0.116
100.8677 -0.161
100.8980 -0.572
100.9283 0.206
100.9585 -0.266
100.9888 0.356
101.0191 0.353
101.0494 0.558
101.0797 -0.018
101.1099 -0.229
101.1402 0.237
101.1705 0.598
101.2008 0.388
101.2310 0.541
101.2613 0.226
101.2916 0.797
101.3219 0.274
101.3522 0.272
101.3824 0.218
101.4127 0.685
101.4430 0.006
101.4733 0.889
101.5036 -0.102
101.5338 0.053
101.5641 0.520
101.5944 0.415
101.6247 0.309
101.6549 0.152
101.6852 0.359
101.7155 0.359
101.7458 0.358
101.7761 0.461
101.8063 -0.008
101.8366 -0.165
101.8669 0.095
101.8972 0.147
101.9275 0.251
101.9577 0.459
101.9880 0.459
102.0183 -0.374
102.0486 0.928
102.0788 0.199
102.1091 0.668
102.1394 0.669
102.1697 -0.320
102.2000 0.149
102.2302 -0.163
102.2605 -0.162
102.2908 -0.213
102.3211 -0.003
102.3514 0.102
102.3816 0.260
102.4119 -0.104
102.4422 0.002
102.4725 0.108
102.5028 -0.255
102.5330 -0.149
102.5633 0.425
102.5936 0.375
102.6239 0.325
102.6541 0.327
102.6844 0.225
102.7147 0.331
102.7450 0.542
102.7753 0.128
102.8055 -0.443
102.8358 0.445
102.8661 0.135
102.8964 0.294
102.9267 0.141
102.9569 0.248
102.9872 0.147
103.0175 0.307
103.0478 0.414
103.0780 0.001
103.1083 0.265
103.1386 -0.305
103.1689 -0.145
103.1992 -0.141
103.2294 -0.085
103.2597 0.023
103.2900 -0.546
103.3203 0.024
103.3506 -0.345
103.3808 0.485
103.4111 0.117
103.4414 0.061
103.4717 -0.515
103.5019 0.159
103.5322 -0.105
103.5625 -0.056
103.5928 0.202
103.6231 0.095
103.6533 -0.169
103.6836 0.037
103.7139 0.295
103.7442 -0.072
103.7745 0.082
103.8047 -0.025
103.8350 -0.131
103.8653 0.440
103.8956 0.021
103.9258 0.280
103.9561 0.070
103.9864 -0.297
104.0167 0.275
104.0470 0.429
104.0772 -0.093
104.1075 0.635
104.1378 -0.199
104.1681 -0.096
104.1984 -0.097
104.2286 -0.150
104.2589 -0.255
104.2892 0.004
104.3195 0.004
104.3497 0.368
104.3800 -0.518
104.4103 0.367
104.4406 0.262
104.4709 0.470
104.5011 0.158
104.5314 -0.103
104.5617 -0.103
104.5920 -0.207
104.6223 0.158
104.6525 -0.102
104.6828 0.211
104.7131 -0.153
104.7434 0.316
104.7736 -0.516
104.8039 0.526
104.8342 -0.306
104.8645 0.060
104.8948 0.061
104.9250 0.270
104.9553 -0.666
104.9856 0.169
105.0159 0.327
105.0462 -0.088
105.0764 -0.191
105.1067 -0.033
105.1370 0.282
105.1673 -0.185
105.1975 -0.026
105.2278 -0.128
105.2581 0.291
105.2884 0.449
105.3187 0.035
105.3489 0.194
105.3792 0.509
105.4095 -0.009
105.4398 0.724
105.4701 -0.055
105.5003 0.469
105.5306 -0.048
105.5609 -0.045
105.5912 -0.250
105.6215 -0.092
105.6517 0.275
105.6820 0.954
105.7123 -0.033
105.7426 0.594
105.7728 0.232
105.8031 0.234
105.8334 0.028
105.8637 -0.125
105.8940 0.503
105.9242 0.453
105.9545 0.665
105.9848 -0.009
106.0151 0.098
106.0454 1.039
106.0756 0.105
106.1059 0.421
106.1362 0.112
106.1665 0.636
106.1967 0.223
106.2270 0.644
106.2573 0.335
106.2876 0.600
106.3179 0.135
106.3481 0.088
106.3784 0.092
106.4087 0.044
106.4390 0.257
106.4693 -0.259
106.4995 -0.208
106.5298 0.156
106.5601 0.208
106.5904 0.468
106.6206 -0.365
106.6509 -0.001
106.6812 0.051
106.7115 -0.261
106.7418 0.103
106.7720 0.364
106.8023 0.625
106.8326 0.000
106.8629 0.105
106.8932 -0.415
106.9234 -0.055
106.9537 0.149
106.9840 0.822
107.0143 0.766
107.0445 0.450
107.0748 0.446
107.1051 0.077
107.1354 -0.135
107.1657 0.435
107.1959 0.171
107.2262 -0.093
107.2565 -0.200
107.2868 0.057
107.3171 -0.310
107.3473 0.260
107.3776 0.309
107.4079 0.410
107.4382 0.616
107.4684 0.509
107.4987 0.090
107.5290 0.348
107.5593 -0.071
107.5896 0.136
107.6198 0.654
107.6501 0.028
107.6804 0.026
107.7107 0.076
107.7410 0.335
107.7712 0.229
107.8015 0.644
107.8318 0.070
107.8621 -0.035
107.8923 0.224
107.9226 -0.037
107.9529 0.587
107.9832 0.534
108.0135 0.950
108.0437 0.116
108.0740 0.323
108.1043 0.271
108.1346 -0.094
108.1649 -0.094
108.1951 0.374
108.2254 0.062
108.2557 0.531
108.2860 0.062
108.3163 0.010
108.3465 -0.250
108.3768 -0.148
108.4071 -0.150
108.4374 -0.204
108.4676 -0.102
108.4979 0.313
108.5282 0.259
108.5585 0.205
108.5888 0.568
108.6190 -0.058
108.6493 -0.059
108.6796 0.044
108.7099 0.042
108.7402 0.562
108.7704 0.457
108.8007 -0.012
108.8310 0.351
108.8613 0.507
108.8915 0.298
108.9218 0.194
108.9521 0.037
108.9824 0.037
109.0127 -0.172
109.0429 -0.068
109.0732 -0.016
109.1035 0.141
109.1338 0.037
109.1641 -0.015
109.1943 0.402
109.2246 0.247
109.2549 0.404
109.2852 0.717
109.3154 -0.012
109.3457 0.250
109.3760 0.355
109.4063 0.044
109.4366 0.410
109.4668 0.150
109.4971 -0.265
109.5274 0.049
109.5577 0.416
109.5880 0.261
109.6182 0.263
109.6485 0.421
109.6788 0.006
109.7091 0.165
109.7393 -0.145
109.7696 -0.091
109.7999 0.016
109.8302 -0.034
109.8605 -0.031
109.8907 0.805
109.9210 -0.130
109.9513 0.238
109.9816 0.084
110.0119 0.244
110.0421 0.872
110.0724 0.198
110.1027 -0.475
110.1330 0.153
110.1632 0.209
110.1935 0.317
110.2238 -0.148
110.2541 0.481
110.2844 -0.244
110.3146 -0.451
110.3449 0.489
110.3752 0.022
110.4055 0.753
110.4358 0.287
110.4660 -0.128
110.4963 0.448
110.5266 0.398
110.5569 0.140
110.5871 -0.169
110.6174 0.094
110.6477 0.253
110.6780 0.256
110.7083 0.520
110.7385 0.054
110.7688 0.266
110.7991 0.217
110.8294 0.273
110.8597 0.016
110.8899 0.280
110.9202 0.232
110.9505 -0.285
110.9808 -0.180
111.0110 0.603
111.0413 0.136
111.0716 0.606
111.1019 0.295
111.1322 0.401
111.1624 0.091
111.1927 -0.063
111.2230 0.355
111.2533 0.306
111.2836 -0.109
111.3138 0.467
111.3441 0.000
111.3744 0.732
111.4047 0.839
111.4350 0.477
111.4652 0.636
111.4955 -0.350
111.5258 0.278
111.5561 0.333
111.5863 -0.080
111.6166 -0.233
111.6469 -0.032
111.6772 0.482
111.7075 0.110
111.7377 0.312
111.7680 0.253
111.7983 0.715
111.8286 0.343
111.8589 0.337
111.8891 0.330
111.9194 0.532
111.9497 0.318
111.9800 1.093
112.0102 -0.267
112.0405 0.404
112.0708 -0.175
112.1011 0.392
112.1314 0.126
112.1616 0.485
112.1919 0.375
112.2222 0.370
112.2525 0.261
112.2828 0.932
112.3130 -0.166
112.3433 0.454
112.3736 0.345
112.4039 0.913
112.4341 -0.238
112.4644 0.226
112.4947 0.899
112.5250 -0.095
112.5553 0.370
112.5855 0.470
112.6158 0.465
112.6461 0.201
112.6764 0.406
112.7067 0.298
112.7369 -0.227
112.7672 0.082
112.7975 0.183
112.8278 0.284
112.8580 -0.032
112.8883 0.225
112.9186 0.222
112.9489 0.271
112.9792 0.268
113.0094 0.317
113.0397 0.211
113.0700 0.104
113.1003 0.205
113.1306 0.359
113.1608 0.617
113.1911 0.199
113.2214 0.040
113.2517 -0.274
113.2819 0.036
113.3122 0.191
113.3425 0.189
113.3728 0.344
113.4031 0.030
113.4333 0.654
113.4636 0.131
113.4939 0.234
113.5242 0.598
113.5545 0.389
113.5847 -0.185
113.6150 -0.082
113.6453 0.542
113.6756 0.438
113.7058 -0.448
113.7361 0.124
113.7664 -0.032
113.7967 0.280
113.8270 0.436
113.8572 -0.085
113.8875 0.280
113.9178 0.176
113.9481 0.072
113.9784 0.541
114.0086 -0.239
114.0389 0.490
114.0692 -0.290
114.0995 0.075
114.1298 0.284
114.1600 -0.027
114.1903 0.026
114.2206 -0.285
114.2509 0.028
114.2811 0.081
114.3114 -0.126
114.3417 0.031
114.3720 0.293
114.4023 0.294
114.4325 0.035
114.4628 0.088
114.4931 0.194
114.5234 0.352
114.5537 0.146
114.5839 0.147
114.6142 0.149
114.6445 0.516
114.6748 0.674
114.7050 0.260
114.7353 0.262
114.7656 0.577
114.7959 0.684
114.8262 0.635
114.8564 0.012
114.8867 0.224
114.9170 0.695
114.9473 0.178
114.9776 -0.600
115.0078 0.340
115.0381 0.604
115.0684 0.087
115.0987 -0.066
115.1289 0.198
115.1592 0.566
115.1895 -0.263
115.2198 -0.259
115.2501 0.317
115.2803 0.112
115.3106 0.636
115.3409 0.535
115.3712 0.434
115.4015 -0.291
115.4317 0.181
115.4620 0.289
115.4923 0.606
115.5226 0.349
115.5528 -0.168
115.5831 0.201
115.6134 -0.003
115.6437 -0.311
115.6740 0.049
115.7042 -0.164
115.7345 0.769
115.7648 0.192
115.7951 0.240
115.8254 -0.024
115.8556 -0.028
115.8859 -0.241
115.9162 0.693
115.9465 0.012
115.9767 -0.251
116.0070 0.578
116.0373 -0.310
116.0676 0.103
116.0979 0.412
116.1281 0.305
116.1584 0.146
116.1887 0.456
116.2190 0.088
116.2493 0.450
116.2795 0.291
116.3098 0.185
116.3401 0.287
116.3704 0.336
116.4006 0.074
116.4309 0.072
116.4612 0.434
116.4915 -0.036
116.5218 0.014
116.5520 0.481
116.5823 0.480
116.6126 -0.407
116.6429 -0.096
116.6732 0.423
116.7034 -0.151
116.7337 0.005
116.7640 -0.413
116.7943 0.315
116.8245 0.262
116.8548 0.210
116.8851 0.678
116.9154 0.469
116.9457 0.208
116.9759 0.468
117.0062 0.052
117.0365 0.156
117.0668 0.520
117.0971 -0.261
117.1273 0.104
117.1576 0.417
117.1879 0.365
117.2182 0.314
117.2485 0.002
117.2787 0.107
117.3090 0.055
117.3393 0.056
117.3696 -0.255
117.3998 -0.412
117.4301 0.525
117.4604 0.316
117.4907 0.055
117.5210 -0.102
117.5512 0.575
117.5815 -0.155
117.6118 0.001
117.6421 0.053
117.6724 0.522
117.7026 0.210
117.7329 0.002
117.7632 -0.415
117.7935 0.680
117.8237 0.472
117.8540 0.056
117.8843 -0.100
117.9146 -0.255
117.9449 0.055
117.9751 -0.312
118.0054 0.258
118.0357 0.204
118.0660 0.150
118.0963 0.148
118.1265 0.406
118.1568 0.405
118.1871 0.559
118.2174 -0.120
118.2476 0.087
118.2779 0.398
118.3082 -0.176
118.3385 -0.125
118.3688 0.030
118.3990 0.446
118.4293 0.340
118.4596 0.235
118.4899 0.235
118.5202 0.026
118.5504 0.650
118.5807 -0.288
118.6110 0.129
118.6413 0.128
118.6715 -0.028
118.7018 0.024
118.7321 0.337
118.7624 -0.028
118.7927 0.025
118.8229 -0.027
118.8532 0.077
118.8835 0.026
118.9138 0.235
118.9441 -0.441
118.9743 -0.179
119.0046 -0.177
119.0349 0.086
119.0652 0.192
119.0954 -0.066
119.1257 0.405
119.1560 -0.269
119.1863 0.254
119.2166 0.257
119.2468 0.000
119.2771 0.159
119.3074 0.839
119.3377 -0.043
119.3680 0.012
119.3982 0.172
119.4285 0.175
119.4588 0.023
119.4891 0.235
119.5193 0.395
119.5496 0.294
119.5799 -0.014
119.6102 0.250
119.6405 0.411
119.6707 -0.262
119.7010 0.159
119.7313 0.424
119.7616 0.637
119.7919 0.121
119.8221 0.125
119.8524 0.391
119.8827 0.292
119.9130 -0.016
119.9433 0.250
119.9735 0.307
120.0038 0.000
