'Id: "" Comment: "" Operator: "Lab Manager" Anode: "Cu" Scantype: "Locked Coupled" TimePerStep: "19.2" X: "9999" Y: "9999" Z: "9999" 
10.0015 0.000
10.0318 -2.076
10.0620 -1.257
10.0923 -0.333
10.1226 0.590
10.1529 2.503
10.1832 10.198
10.2134 7.320
10.2437 8.661
10.2740 16.772
10.3043 16.342
10.3346 17.996
10.3648 16.159
10.3951 20.469
10.4254 26.342
10.4557 25.183
10.4859 31.004
10.5162 32.085
10.5465 40.145
10.5768 35.601
10.6071 44.756
10.6373 47.660
10.6676 49.627
10.6979 52.635
10.7282 52.259
10.7585 56.934
10.7887 59.891
10.8190 67.848
10.8493 65.597
10.8796 76.940
10.9098 76.668
10.9401 79.729
10.9704 86.905
11.0007 87.155
11.0310 94.071
11.0612 89.528
11.0915 100.038
11.1218 92.684
11.1521 96.527
11.1824 99.694
11.2126 98.225
11.2429 98.527
11.2732 96.850
11.3035 99.808
11.3337 104.069
11.3640 94.788
11.3943 98.372
11.4246 97.424
11.4549 88.769
11.4851 94.123
11.5154 87.395
11.5457 91.865
11.5760 82.480
11.6063 80.700
11.6365 81.420
11.6668 80.994
11.6971 81.506
11.7274 78.476
11.7577 75.811
11.7879 64.500
11.8182 64.127
11.8485 66.045
11.8788 62.391
11.9090 56.549
11.9393 49.770
11.9696 51.272
11.9999 47.670
12.0302 45.006
12.0604 40.727
12.0907 42.074
12.1210 32.587
12.1513 34.558
12.1816 35.228
12.2118 32.460
12.2421 26.515
12.2724 27.080
12.3027 24.365
12.3329 22.379
12.3632 21.642
12.3935 18.250
12.4238 14.233
12.4541 13.914
12.4843 10.782
12.5146 11.140
12.5449 10.196
12.5752 5.242
12.6055 5.652
12.6357 5.281
12.6660 7.619
12.6963 3.238
12.7266 3.492
12.7568 2.601
12.7871 2.491
12.8174 1.652
12.8477 0.553
12.8780 2.943
12.9082 3.355
12.9385 -1.703
12.9688 1.990
12.9991 -1.296
13.0294 2.970
13.0596 2.756
13.0899 2.960
13.1202 3.268
13.1505 -0.539
13.1807 0.550
13.2110 -0.236
13.2413 -0.604
13.2716 1.006
13.3019 -0.092
13.3321 1.571
13.3624 -0.413
13.3927 -1.666
13.4230 0.270
13.4533 1.269
13.4835 -1.326
13.5138 3.475
13.5441 2.495
13.5744 -0.933
13.6046 1.004
13.6349 -0.341
13.6652 -0.695
13.6955 -1.310
13.7258 2.085
13.7560 0.585
13.7863 -0.290
13.8166 2.741
13.8469 -0.270
13.8772 1.304
13.9074 -0.821
13.9377 0.231
13.9680 0.554
13.9983 0.878
14.0285 -1.142
14.0588 3.296
14.0891 1.849
14.1194 0.714
14.1497 1.663
14.1799 2.664
14.2102 1.009
14.2405 0.343
14.2708 2.491
14.3011 0.002
14.3313 -0.298
14.3616 -1.380
14.3919 0.309
14.4222 0.905
14.4524 -1.520
14.4827 0.742
14.5130 -0.329
14.5433 0.007
14.5736 -0.699
14.6038 -0.416
14.6341 -0.705
14.6644 -0.004
14.6947 0.175
14.7250 -0.270
14.7552 0.952
14.7855 0.351
14.8158 1.677
14.8461 -1.008
14.8764 1.672
14.9066 -0.022
14.9369 1.252
14.9672 0.599
14.9975 3.488
15.0277 -0.029
15.0580 1.298
15.0883 0.385
15.1186 0.670
15.1489 -0.972
15.1791 -0.967
15.2094 0.474
15.2397 0.926
15.2700 2.367
15.3003 0.007
15.3305 1.188
15.3608 0.598
15.3911 -0.043
15.4214 -0.164
15.4516 2.476
15.4819 1.262
15.5122 -0.629
15.5425 4.303
15.5728 -0.244
15.6030 0.417
15.6333 0.505
15.6636 0.490
15.6939 -0.099
15.7242 1.917
15.7544 1.954
15.7847 -1.187
15.8150 0.257
15.8453 0.918
15.8755 1.060
15.9058 2.139
15.9361 -0.168
15.9664 1.067
15.9967 1.417
16.0269 -1.410
16.0572 1.440
16.0875 -0.241
16.1178 0.370
16.1481 0.148
16.1783 2.113
16.2086 -0.974
16.2389 0.626
16.2692 0.196
16.2994 1.536
16.3297 2.512
16.3600 -0.105
16.3903 1.027
16.4206 1.951
16.4508 0.480
16.4811 0.050
16.5114 0.714
16.5417 1.118
16.5720 0.792
16.6022 0.102
16.6325 -0.848
16.6628 -0.092
16.6931 0.247
16.7233 -0.821
16.7536 1.446
16.7839 0.066
16.8142 -0.272
16.8445 -0.974
16.8747 0.511
16.9050 -0.191
16.9353 1.555
16.9656 0.541
16.9959 0.776
17.0261 -0.498
17.0564 0.571
17.0867 -0.651
17.1170 0.105
17.1472 -0.179
17.1775 0.265
17.2078 -0.852
17.2381 0.790
17.2684 0.245
17.2986 0.638
17.3289 -0.792
17.3592 -0.624
17.3895 -0.039
17.4198 0.702
17.4500 0.662
17.4803 -0.107
17.5106 0.947
17.5409 -0.134
17.5712 0.243
17.6014 0.360
17.6317 2.247
17.6620 -0.500
17.6923 0.346
17.7225 1.192
17.7528 0.007
17.7831 -0.136
17.8134 -1.165
17.8437 1.609
17.8739 2.143
17.9042 2.469
17.9345 -0.382
17.9648 1.767
17.9951 2.094
18.0253 0.545
18.0556 -0.170
18.0859 0.885
18.1162 0.795
18.1464 2.268
18.1767 2.543
18.2070 0.161
18.2373 2.103
18.2676 2.326
18.2978 2.028
18.3281 1.626
18.3584 1.485
18.3887 3.427
18.4190 4.015
18.4492 0.801
18.4795 2.326
18.5098 4.112
18.5401 3.034
18.5703 1.800
18.6006 3.273
18.6309 3.810
18.6612 3.253
18.6915 1.498
18.7217 2.035
18.7520 3.353
18.7823 3.890
18.8126 1.875
18.8429 2.568
18.8731 2.428
18.9034 1.976
18.9337 2.253
18.9640 1.749
18.9942 2.964
19.0245 2.095
19.0548 2.581
19.0851 1.192
19.1154 1.990
19.1456 0.497
19.1759 1.296
19.2062 1.261
19.2365 1.956
19.2668 1.453
19.2970 1.418
19.3273 0.186
19.3576 0.777
19.3879 0.899
19.4181 1.178
19.4484 -1.408
19.4787 0.381
19.5090 1.076
19.5393 -0.624
19.5695 -0.501
19.5998 0.611
19.6301 0.213
19.6604 -0.549
19.6907 0.199
19.7209 0.322
19.7512 -0.596
19.7815 -0.561
19.8118 -1.099
19.8420 1.020
19.8723 -0.195
19.9026 -0.420
19.9329 -0.228
19.9632 -0.192
19.9934 0.729
20.0237 0.244
20.0540 -0.397
20.0843 0.420
20.1146 0.664
20.1448 -0.758
20.1751 0.164
20.2054 -0.008
20.2357 -0.284
20.2659 1.055
20.2962 0.258
20.3265 -0.070
20.3568 0.800
20.3871 0.473
20.4173 -0.532
20.4476 1.172
20.4779 0.688
20.5082 -0.941
20.5385 -0.331
20.5687 -0.554
20.5990 -0.448
20.6293 0.230
20.6596 -0.758
20.6899 -0.131
20.7201 -0.598
20.7504 0.184
20.7807 0.238
20.8110 0.188
20.8412 0.033
20.8715 -0.694
20.9018 0.194
20.9321 -0.013
20.9624 -1.052
20.9926 0.200
21.0229 0.046
21.0532 0.726
21.0835 -0.157
21.1138 0.262
21.1440 -0.464
21.1743 1.518
21.2046 0.323
21.2349 -0.247
21.2651 0.850
21.2954 0.437
21.3257 -0.341
21.3560 -0.703
21.3863 0.378
21.4165 0.260
21.4468 0.664
21.4771 -0.130
21.5074 0.273
21.5377 -0.104
21.5679 -0.013
21.5982 0.027
21.6285 0.535
21.6588 1.564
21.6890 -0.011
21.7193 -0.388
21.7496 1.163
21.7799 -0.464
21.8102 1.295
21.8404 0.554
21.8707 0.646
21.9010 0.478
21.9313 -0.992
21.9616 0.403
21.9918 -0.026
22.0221 0.067
22.0524 1.202
22.0827 0.982
22.1129 0.659
22.1432 -0.550
22.1735 0.480
22.2038 1.615
22.2341 0.407
22.2643 -0.125
22.2946 0.906
22.3249 -0.198
22.3552 0.365
22.3855 0.823
22.4157 0.188
22.4460 1.688
22.4763 1.782
22.5066 1.200
22.5368 -0.008
22.5671 0.607
22.5974 -0.080
22.6277 0.796
22.6580 2.089
22.6882 1.194
22.7185 1.497
22.7488 1.592
22.7791 0.385
22.8094 0.064
22.8396 0.993
22.8699 1.453
22.9002 0.402
22.9305 0.237
22.9607 1.375
22.9910 2.200
23.0213 1.775
23.0516 2.287
23.0819 0.196
23.1121 1.073
23.1424 2.419
23.1727 0.432
23.2030 0.997
23.2333 2.969
23.2635 1.607
23.2938 3.110
23.3241 2.686
23.3544 0.387
23.3846 2.359
23.4149 0.529
23.4452 1.303
23.4755 1.609
23.5058 1.341
23.5360 2.168
23.5663 2.682
23.5966 1.738
23.6269 2.357
23.6572 2.559
23.6874 2.552
23.7177 3.067
23.7480 3.530
23.7783 3.992
23.8086 2.320
23.8388 3.251
23.8691 3.194
23.8994 3.344
23.9297 4.120
23.9599 4.375
23.9902 3.276
24.0205 2.854
24.0508 3.838
24.0811 2.531
24.1113 4.297
24.1416 4.240
24.1719 4.391
24.2022 4.439
24.2325 3.705
24.2627 2.346
24.2930 5.571
24.3233 4.473
24.3536 4.052
24.3838 5.194
24.4141 5.502
24.4444 5.290
24.4747 3.307
24.5050 6.532
24.5352 5.904
24.5655 5.535
24.5958 6.105
24.6261 8.653
24.6564 6.775
24.6866 6.824
24.7169 7.029
24.7472 6.609
24.7775 6.919
24.8077 6.656
24.8380 7.643
24.8683 7.432
24.8986 6.439
24.9289 9.718
24.9591 8.987
24.9894 9.661
25.0197 9.451
25.0500 10.542
25.0803 9.551
25.1105 11.268
25.1408 10.641
25.1711 12.879
25.2014 10.690
25.2316 11.678
25.2619 12.249
25.2922 11.519
25.3225 12.663
25.3528 11.256
25.3830 13.546
25.4133 13.337
25.4436 12.346
25.4739 11.252
25.5042 12.657
25.5344 12.813
25.5647 12.240
25.5950 14.791
25.6253 11.614
25.6555 11.926
25.6858 12.863
25.7161 12.290
25.7464 12.811
25.7767 13.853
25.8069 12.655
25.8372 11.926
25.8675 11.198
25.8978 12.188
25.9281 9.532
25.9583 10.522
25.9886 10.211
26.0189 10.941
26.0492 9.952
26.0794 9.901
26.1097 9.902
26.1400 8.393
26.1703 8.707
26.2006 9.646
26.2308 7.928
26.2611 8.763
26.2914 8.921
26.3217 5.538
26.3520 9.394
26.3822 7.104
26.4125 7.783
26.4428 7.160
26.4731 7.423
26.5034 8.154
26.5336 7.271
26.5639 6.909
26.5942 7.902
26.6245 7.279
26.6547 6.657
26.6850 6.400
26.7153 8.121
26.7456 6.354
26.7759 5.315
26.8061 8.548
26.8364 7.613
26.8667 8.138
26.8970 8.506
26.9273 7.780
26.9575 7.732
26.9878 6.434
27.0181 6.958
27.0484 6.337
27.0786 7.592
27.1089 8.846
27.1392 7.496
27.1695 7.656
27.1998 8.755
27.2300 7.666
27.2603 7.774
27.2906 8.665
27.3209 6.742
27.3512 7.945
27.3814 10.867
27.4117 9.466
27.4420 9.471
27.4723 9.060
27.5025 8.544
27.5328 8.810
27.5631 7.409
27.5934 9.811
27.6237 10.494
27.6539 9.458
27.6842 9.308
27.7145 8.845
27.7448 11.143
27.7751 10.732
27.8053 8.499
27.8356 9.599
27.8659 8.720
27.8962 8.050
27.9264 11.442
27.9567 10.147
27.9870 10.414
28.0173 9.327
28.0476 11.001
28.0778 11.217
28.1081 11.015
28.1384 10.658
28.1687 8.999
28.1990 8.798
28.2292 9.952
28.2595 10.116
28.2898 9.446
28.3201 9.767
28.3503 8.160
28.3806 9.627
28.4109 7.291
28.4412 8.133
28.4715 8.558
28.5017 7.212
28.5320 8.575
28.5623 6.396
28.5926 8.280
28.6229 7.924
28.6531 8.297
28.6834 6.692
28.7137 6.076
28.7440 6.606
28.7742 7.657
28.8045 6.521
28.8348 6.218
28.8651 5.498
28.8954 6.081
28.9256 5.309
28.9559 6.934
28.9862 6.162
29.0165 4.401
29.0468 5.766
29.0770 4.318
29.1073 5.422
29.1376 4.234
29.1679 4.297
29.1981 3.318
29.2284 3.537
29.2587 5.318
29.2890 4.340
29.3193 4.559
29.3495 2.903
29.3798 5.310
29.4101 4.176
29.4404 3.718
29.4707 2.688
29.5009 4.002
29.5312 3.545
29.5615 3.765
29.5918 3.308
29.6221 2.591
29.6523 2.967
29.6826 1.104
29.7129 3.096
29.7432 1.858
29.7734 2.808
29.8037 2.508
29.8340 2.937
29.8643 2.272
29.8946 1.556
29.9248 2.923
29.9551 0.332
29.9854 1.907
30.0157 1.504
30.0460 1.309
30.0762 2.311
30.1065 0.241
30.1368 2.911
30.1671 2.144
30.1973 0.907
30.2276 0.817
30.2579 0.987
30.2882 0.636
30.3185 1.536
30.3487 0.769
30.3790 1.512
30.4093 1.214
30.4396 -1.376
30.4699 0.982
30.5001 0.059
30.5304 1.011
30.5607 0.766
30.5910 0.989
30.6212 -0.090
30.6515 0.811
30.6818 0.461
30.7121 0.841
30.7424 1.325
30.7726 0.976
30.8029 0.262
30.8332 0.174
30.8635 1.335
30.8938 -0.628
30.9240 0.169
30.9543 0.393
30.9846 1.607
31.0149 -0.356
31.0451 0.754
31.0754 1.292
31.1057 0.423
31.1360 0.595
31.1663 -0.638
31.1965 -0.465
31.2268 0.958
31.2571 2.017
31.2874 0.940
31.3177 0.853
31.3479 0.349
31.3782 -0.571
31.4085 1.113
31.4388 0.558
31.4690 0.940
31.4993 0.437
31.5296 -0.848
31.5599 0.316
31.5902 -0.083
31.6204 0.248
31.6507 0.578
31.6810 0.492
31.7113 0.042
31.7416 -0.461
31.7718 -0.546
31.8021 0.504
31.8324 -0.061
31.8627 0.781
31.8929 0.633
31.9232 -0.765
31.9535 0.911
31.9838 -0.331
32.0141 0.824
32.0443 -0.209
32.0746 0.790
32.1049 0.122
32.1352 -0.234
32.1655 -0.172
32.1957 -0.788
32.2260 1.357
32.2563 -1.029
32.2866 0.595
32.3169 0.761
32.3471 1.136
32.3774 -0.365
32.4077 0.062
32.4380 0.957
32.4682 0.916
32.4985 0.822
32.5288 1.197
32.5591 0.947
32.5894 1.791
32.6196 2.062
32.6499 2.593
32.6802 2.344
32.7105 2.772
32.7408 2.678
32.7710 1.856
32.8013 2.024
32.8316 1.202
32.8619 1.890
32.8921 0.912
32.9224 0.872
32.9527 0.623
32.9830 0.895
33.0133 0.907
33.0435 0.971
33.0738 -0.840
33.1041 1.152
33.1344 -0.138
33.1647 0.031
33.1949 -0.790
33.2252 0.681
33.2555 -0.036
33.2858 0.289
33.3160 0.250
33.3463 -0.258
33.3766 -0.141
33.4069 -0.388
33.4372 -0.062
33.4674 0.524
33.4977 -0.817
33.5280 -0.231
33.5583 -0.477
33.5886 0.155
33.6188 -0.774
33.6491 0.015
33.6794 0.492
33.7097 -0.073
33.7399 -0.689
33.7702 0.621
33.8005 0.369
33.8308 -0.456
33.8611 -0.499
33.8913 0.604
33.9216 -0.065
33.9519 -0.056
33.9822 0.266
34.0125 0.119
34.0427 -0.393
34.0730 0.502
34.1033 0.511
34.1336 -0.469
34.1638 -1.036
34.1941 0.792
34.2244 1.266
34.2547 0.334
34.2850 1.017
34.3152 0.034
34.3455 0.456
34.3758 0.150
34.4061 0.052
34.4364 0.631
34.4666 1.106
34.4969 0.435
34.5272 -0.184
34.5575 0.344
34.5877 1.496
34.6180 0.097
34.6483 1.302
34.6786 0.631
34.7089 0.795
34.7391 1.479
34.7694 1.070
34.7997 0.556
34.8300 1.293
34.8603 0.154
34.8905 0.735
34.9208 2.097
34.9511 1.323
34.9814 0.758
35.0116 1.391
35.0419 1.139
35.0722 0.782
35.1025 1.363
35.1328 1.111
35.1630 0.234
35.1933 2.014
35.2236 -0.322
35.2539 2.031
35.2842 0.217
35.3144 0.694
35.3447 1.380
35.3750 0.400
35.4053 1.138
35.4356 1.252
35.4658 0.636
35.4961 0.541
35.5264 0.707
35.5567 1.081
35.5869 0.883
35.6172 1.413
35.6475 0.850
35.6778 0.652
35.7081 1.183
35.7383 1.297
35.7686 0.526
35.7989 0.693
35.8292 0.964
35.8595 0.193
35.8897 0.777
35.9200 0.579
35.9503 0.486
35.9806 1.017
36.0108 1.289
36.0411 0.935
36.0714 0.947
36.1017 0.437
36.1320 0.032
36.1622 1.658
36.1925 1.409
36.2228 0.171
36.2531 1.068
36.2834 -0.014
36.3136 0.571
36.3439 0.531
36.3742 0.647
36.4045 -0.330
36.4347 0.932
36.4650 -0.253
36.4953 0.801
36.5256 0.709
36.5559 0.566
36.5861 0.110
36.6164 -0.138
36.6467 0.344
36.6770 -0.581
36.7073 0.110
36.7375 1.165
36.7678 -0.020
36.7981 0.202
36.8284 1.257
36.8586 1.062
36.8889 -0.643
36.9192 0.361
36.9495 0.895
36.9798 0.545
37.0100 0.194
37.0403 -0.417
37.0706 -0.309
37.1009 -0.306
37.1312 2.093
37.1614 0.326
37.1917 0.434
37.2220 1.062
37.2523 0.962
37.2825 0.393
37.3128 1.126
37.3431 0.401
37.3734 1.707
37.4037 0.410
37.4339 -0.159
37.4642 0.314
37.4945 1.308
37.5248 1.469
37.5551 0.276
37.5853 0.750
37.6156 0.963
37.6459 0.551
37.6762 0.192
37.7064 0.301
37.7367 1.140
37.7670 1.093
37.7973 0.630
37.8276 1.000
37.8578 0.849
37.8881 1.376
37.9184 0.496
37.9487 1.023
37.9790 0.925
38.0092 0.723
38.0395 1.302
38.0698 0.058
38.1001 0.898
38.1304 0.123
38.1606 0.754
38.1909 0.397
38.2212 1.705
38.2515 0.202
38.2817 0.521
38.3120 0.476
38.3423 0.692
38.3726 0.803
38.4029 0.238
38.4331 0.245
38.4634 0.877
38.4937 0.000
38.5240 0.111
38.5543 1.213
38.5845 -0.185
38.6148 0.343
38.6451 0.560
38.6754 -0.057
38.7056 0.160
38.7359 0.585
38.7662 0.124
38.7965 -0.492
38.8268 0.454
38.8570 -0.058
38.8873 0.419
38.9176 0.532
38.9479 -0.032
38.9782 0.394
39.0084 -0.326
39.0387 0.413
39.0690 -0.307
39.0993 -0.141
39.1295 0.493
39.1598 0.138
39.1901 -0.269
39.2204 0.210
39.2507 0.272
39.2809 0.490
39.3112 -0.593
39.3415 -0.062
39.3718 -0.052
39.4021 0.792
39.4323 0.333
39.4626 -0.177
39.4929 0.198
39.5232 0.261
39.5534 0.220
39.5837 0.439
39.6140 0.086
39.6443 -0.372
39.6746 0.264
39.7048 -0.193
39.7351 0.287
39.7654 -0.327
39.7957 0.622
39.8260 0.009
39.8562 0.281
39.8865 -0.019
39.9168 -0.372
39.9471 -0.164
39.9773 0.460
40.0076 -0.009
40.0379 -0.166
40.0682 -0.270
40.0985 -0.062
40.1287 0.146
40.1590 0.406
40.1893 0.354
40.2196 -0.635
40.2499 0.146
40.2801 -0.062
40.3104 0.512
40.3407 -0.425
40.3710 -0.216
40.4012 0.566
40.4315 0.879
40.4618 -0.526
40.4921 0.516
40.5224 0.726
40.5526 -0.367
40.5829 0.416
40.6132 0.469
40.6435 0.106
40.6738 -0.413
40.7040 0.005
40.7343 0.632
40.7646 0.060
40.7949 -0.042
40.8251 0.429
40.8554 0.431
40.8857 0.121
40.9160 0.175
40.9463 0.177
40.9765 -0.497
41.0068 0.339
41.0371 0.081
41.0674 0.084
41.0977 0.451
41.1279 0.037
41.1582 0.613
41.1885 0.304
41.2188 0.203
41.2491 -0.002
41.2793 0.262
41.3096 -0.047
41.3399 0.894
41.3702 0.272
41.4004 0.432
41.4307 0.905
41.4610 -0.081
41.4913 0.861
41.5216 -0.333
41.5518 -0.120
41.5821 0.665
41.6124 -0.320
41.6427 0.570
41.6730 -0.207
41.7032 0.006
41.7335 0.428
41.7638 0.276
41.7941 0.698
41.8243 -0.338
41.8546 0.031
41.8849 0.714
41.9152 0.511
41.9455 1.037
41.9757 1.355
42.0060 -0.150
42.0363 0.637
42.0666 -0.086
42.0969 0.128
42.1271 0.342
42.1574 0.609
42.1877 0.250
42.2180 0.257
42.2482 -0.154
42.2785 0.686
42.3088 0.745
42.3391 0.387
42.3694 0.341
42.3996 0.088
42.4299 0.043
42.4602 0.362
42.4905 0.213
42.5208 0.689
42.5510 0.384
42.5813 -0.026
42.6116 0.659
42.6419 -0.167
42.6721 0.153
42.7024 0.786
42.7327 0.638
42.7630 0.177
42.7933 0.602
42.8235 0.349
42.8538 -0.320
42.8841 0.678
42.9144 0.270
42.9447 1.112
42.9749 0.600
43.0052 -0.017
43.0355 0.200
43.0658 -0.364
43.0960 -0.155
43.1263 0.783
43.1566 0.106
43.1869 0.835
43.2172 0.367
43.2474 0.576
43.2777 -0.569
43.3080 0.213
43.3383 0.058
43.3686 0.215
43.3988 -0.253
43.4291 -0.252
43.4594 0.218
43.4897 0.636
43.5199 0.065
43.5502 0.483
43.5805 0.745
43.6108 0.330
43.6411 0.332
43.6713 -0.135
43.7016 -0.342
43.7319 -0.708
43.7622 0.435
43.7925 -0.139
43.8227 0.380
43.8530 0.221
43.8833 0.116
43.9136 0.218
43.9439 -0.148
43.9741 -0.254
44.0044 -0.099
44.0347 0.265
44.0650 0.576
44.0952 0.002
44.1255 0.470
44.1558 -0.156
44.1861 0.468
44.2164 -0.730
44.2466 0.311
44.2769 0.258
44.3072 -0.315
44.3375 -0.159
44.3678 0.049
44.3980 0.153
44.4283 -0.680
44.4586 0.986
44.4889 -0.107
44.5191 0.205
44.5494 0.466
44.5797 -0.106
44.6100 -0.314
44.6403 0.259
44.6705 0.104
44.7008 0.209
44.7311 0.522
44.7614 -0.102
44.7917 0.212
44.8219 -0.099
44.8522 0.475
44.8825 -0.045
44.9128 -0.043
44.9430 0.271
44.9733 0.272
45.0036 0.743
45.0339 -0.297
45.0642 -0.347
45.0944 0.436
45.1247 0.699
45.1550 -0.185
45.1853 0.443
45.2156 0.810
45.2458 -0.230
45.2761 0.398
45.3064 0.349
45.3367 0.768
45.3669 0.198
45.3972 1.190
45.4275 0.412
45.4578 0.832
45.4881 -0.050
45.5183 0.630
45.5486 0.009
45.5789 0.377
45.6092 0.172
45.6395 -0.241
45.6697 -0.133
45.7000 -0.338
45.7303 -0.237
45.7606 -0.240
45.7908 0.799
45.8211 0.119
45.8514 0.116
45.8817 0.009
45.9120 0.215
45.9422 0.889
45.9725 0.678
46.0028 0.311
46.0331 0.361
46.0634 0.984
46.0936 0.044
46.1239 1.032
46.1542 0.040
46.1845 0.194
46.2147 0.609
46.2450 0.035
46.2753 0.710
46.3056 0.292
46.3359 0.343
46.3661 0.133
46.3964 0.184
46.4267 -0.078
46.4570 -0.079
46.4873 0.598
46.5175 -0.393
46.5478 -0.342
46.5781 -0.095
46.6084 0.360
46.6386 0.659
46.6689 0.489
46.6992 -0.306
46.7295 -0.059
46.7598 0.657
46.7900 -0.137
46.8203 -0.098
46.8506 0.566
46.8809 0.084
46.9112 0.176
46.9414 -0.150
46.9717 0.723
47.0020 0.398
47.0323 0.594
47.0626 0.686
47.0928 -0.160
47.1231 -0.380
47.1534 0.337
47.1837 0.533
47.2139 -0.520
47.2442 -0.324
47.2745 0.394
47.3048 -0.607
47.3351 -0.046
47.3653 -0.266
47.3956 -0.017
47.4259 0.389
47.4562 -0.612
47.4865 -0.310
47.5167 0.199
47.5470 0.293
47.5773 -0.395
47.6076 0.636
47.6378 0.365
47.6681 0.094
47.6984 0.448
47.7287 0.490
47.7590 -0.302
47.7892 0.730
47.8195 0.147
47.8498 -0.123
47.8801 -0.133
47.9104 1.211
47.9406 -0.100
47.9709 -0.058
48.0012 -0.276
48.0315 -0.025
48.0617 -0.086
48.0920 -0.252
48.1223 0.677
48.1526 -0.113
48.1829 -0.383
48.2131 0.127
48.2434 -0.249
48.2737 0.209
48.3040 0.250
48.3343 -0.073
48.3645 -0.188
48.3948 0.270
48.4251 0.051
48.4554 0.978
48.4856 -0.022
48.5159 0.541
48.5462 0.166
48.5765 -0.365
48.6068 0.302
48.6370 0.188
48.6673 0.439
48.6976 1.210
48.7279 -0.206
48.7582 -0.215
48.7884 0.556
48.8187 0.443
48.8490 0.590
48.8793 0.425
48.9095 1.093
48.9398 0.302
48.9701 -0.071
49.0004 -0.497
49.0307 1.109
49.0609 0.267
49.0912 2.030
49.1215 0.511
49.1518 0.190
49.1821 1.328
49.2123 0.694
49.2426 0.530
49.2729 0.522
49.3032 0.670
49.3334 0.350
49.3637 0.342
49.3940 0.856
49.4243 0.275
49.4546 0.789
49.4848 0.938
49.5151 1.451
49.5454 0.298
49.5757 0.343
49.6060 0.389
49.6362 1.527
49.6665 0.323
49.6968 0.941
49.7271 0.987
49.7574 0.720
49.7876 2.328
49.8179 1.280
49.8482 1.326
49.8785 1.841
49.9087 2.095
49.9390 0.839
49.9693 1.146
49.9996 1.296
50.0299 1.186
50.0601 1.129
50.0904 1.540
50.1207 2.212
50.1510 1.581
50.1813 1.524
50.2115 1.207
50.2418 2.087
50.2721 2.551
50.3024 1.765
50.3326 3.375
50.3629 2.589
50.3932 2.063
50.4235 1.903
50.4538 2.315
50.4840 4.030
50.5143 3.140
50.5446 2.407
50.5749 4.017
50.6052 2.920
50.6354 2.603
50.6657 3.225
50.6960 3.065
50.7263 2.957
50.7565 3.943
50.7868 3.263
50.8171 3.781
50.8474 1.486
50.8777 3.306
50.9079 3.459
50.9382 3.612
50.9685 3.714
50.9988 3.034
51.0291 4.594
51.0593 2.821
51.0896 3.860
51.1199 3.597
51.1502 4.376
51.1804 2.864
51.2107 3.747
51.2410 3.120
51.2713 3.379
51.3016 2.960
51.3318 3.063
51.3621 2.124
51.3924 3.112
51.4227 3.058
51.4530 2.849
51.4832 2.535
51.5135 3.471
51.5438 3.366
51.5741 2.532
51.6043 3.365
51.6346 3.624
51.6649 2.165
51.6952 2.425
51.7255 2.893
51.7557 2.060
51.7860 3.518
51.8163 2.268
51.8466 2.268
51.8769 1.434
51.9071 1.851
51.9374 2.476
51.9677 2.112
51.9980 2.529
52.0282 2.113
52.0585 1.957
52.0888 2.062
52.1191 2.063
52.1494 1.699
52.1796 1.960
52.2099 0.763
52.2402 1.754
52.2705 1.912
52.3008 1.236
52.3310 1.758
52.3613 1.187
52.3916 1.397
52.4219 1.815
52.4521 0.827
52.4824 1.194
52.5127 1.039
52.5430 0.416
52.5733 0.835
52.6035 0.994
52.6338 1.413
52.6641 1.780
52.6944 0.584
52.7247 1.160
52.7549 0.850
52.7852 1.582
52.8155 0.908
52.8458 0.025
52.8761 1.018
52.9063 0.344
52.9366 0.452
52.9669 1.288
52.9972 0.510
53.0274 1.660
53.0577 1.091
53.0880 0.313
53.1183 0.577
53.1486 0.842
53.1788 0.898
53.2091 1.214
53.2394 1.375
53.2697 0.962
53.3000 1.488
53.3302 1.023
53.3605 1.340
53.3908 0.355
53.4211 0.048
53.4513 0.313
53.4816 0.787
53.5119 1.364
53.5422 0.901
53.5725 0.594
53.6027 0.286
53.6330 0.813
53.6633 0.558
53.6936 0.303
53.7239 0.569
53.7541 0.471
53.7844 0.893
53.8147 1.055
53.8450 1.113
53.8752 0.651
53.9055 0.136
53.9358 0.351
53.9661 0.826
53.9964 0.989
54.0266 -0.046
54.0569 0.690
54.0872 0.592
54.1175 0.130
54.1478 0.606
54.1780 0.092
54.2083 0.204
54.2386 -0.154
54.2689 0.322
54.2991 0.330
54.3294 0.494
54.3597 0.605
54.3900 0.874
54.4203 0.621
54.4505 -0.048
54.4808 -0.144
54.5111 0.280
54.5414 -0.232
54.5717 0.245
54.6019 -0.007
54.6322 0.782
54.6625 0.010
54.6928 0.070
54.7230 0.444
54.7533 0.609
54.7836 0.461
54.8139 -0.102
54.8442 0.115
54.8744 -0.397
54.9047 -0.596
54.9350 0.612
54.9653 0.204
54.9956 -0.203
55.0258 -0.297
55.0561 0.337
55.0864 -0.069
55.1167 0.774
55.1469 0.523
55.1772 0.117
55.2075 -0.185
55.2378 -0.175
55.2681 0.252
55.2983 0.471
55.3286 0.638
55.3589 0.232
55.3892 0.555
55.4195 0.878
55.4497 -0.153
55.4800 0.327
55.5103 0.755
55.5406 1.495
55.5709 -0.368
55.6011 -0.096
55.6314 0.175
55.6617 0.083
55.6920 -0.114
55.7222 -0.154
55.7525 -0.298
55.7828 -0.130
55.8131 1.392
55.8434 -0.002
55.8736 0.375
55.9039 0.491
55.9342 -0.069
55.9645 0.152
55.9948 -0.409
56.0250 0.490
56.0553 -0.331
56.0856 0.047
56.1159 0.372
56.1461 -0.032
56.1764 -0.279
56.2067 0.151
56.2370 0.269
56.2673 0.334
56.2975 -0.225
56.3278 -0.264
56.3581 0.271
56.3884 -0.080
56.4187 0.194
56.4489 -0.312
56.4792 0.223
56.5095 0.080
56.5398 0.043
56.5700 0.317
56.6003 -0.137
56.6306 0.086
56.6609 -0.160
56.6912 0.636
56.7214 0.026
56.7517 0.301
56.7820 -0.152
56.8123 -0.345
56.8426 -0.542
56.8728 0.668
56.9031 0.160
56.9334 0.328
56.9637 -0.232
56.9939 0.197
57.0242 0.574
57.0545 -0.246
57.0848 -0.338
57.1151 0.282
57.1453 0.381
57.1756 0.272
57.2059 0.997
57.2362 0.210
57.2665 -0.263
57.2967 0.357
57.3270 -0.376
57.3573 -0.120
57.3876 0.188
57.4178 -0.441
57.4481 0.075
57.4784 0.592
57.5087 0.276
57.5390 -0.249
57.5692 0.060
57.5995 -0.100
57.6298 0.313
57.6601 0.830
57.6904 -0.475
57.7206 0.198
57.7509 0.091
57.7812 0.192
57.8115 0.241
57.8417 0.082
57.8720 -0.390
57.9023 0.233
57.9326 0.230
57.9629 -0.345
57.9931 -0.299
58.0234 -0.409
58.0537 0.680
58.0840 -0.367
58.1143 0.826
58.1445 0.248
58.1748 0.815
58.2051 0.290
58.2354 0.285
58.2656 0.176
58.2959 1.369
58.3262 1.104
58.3565 0.527
58.3868 0.679
58.4170 0.987
58.4473 0.774
58.4776 0.875
58.5079 0.141
58.5382 0.763
58.5684 0.811
58.5987 0.443
58.6290 0.283
58.6593 0.696
58.6896 0.067
58.7198 0.116
58.7501 -0.043
58.7804 0.058
58.8107 0.523
58.8409 0.156
58.8712 -0.212
58.9015 0.358
58.9318 -0.165
58.9621 -0.168
58.9923 0.871
59.0226 0.296
59.0529 -0.123
59.0832 0.344
59.1135 -0.596
59.1437 0.392
59.1740 0.025
59.2043 -0.081
59.2346 0.594
59.2648 -0.345
59.2951 0.747
59.3254 -0.192
59.3557 0.380
59.3860 1.316
59.4162 0.429
59.4465 0.064
59.4768 0.479
59.5071 0.374
59.5374 0.426
59.5676 -0.044
59.5979 -0.357
59.6282 -0.208
59.6585 0.567
59.6887 0.300
59.7190 -0.696
59.7493 0.287
59.7796 0.593
59.8099 -0.403
59.8401 -0.201
59.8704 0.731
59.9007 0.569
59.9310 0.615
59.9613 0.088
59.9915 0.447
60.0218 0.025
60.0521 -0.189
60.0824 0.014
60.1126 0.269
60.1429 0.003
60.1732 0.207
60.2035 -0.215
60.2338 -0.220
60.2640 -0.433
60.2943 0.864
60.3246 -0.234
60.3549 0.178
60.3852 -0.139
60.4154 -0.456
60.4457 0.529
60.4760 -0.256
60.5063 -0.104
60.5365 0.308
60.5668 -0.112
60.5971 0.197
60.6274 -0.120
60.6577 0.033
60.6879 -0.075
60.7182 -0.287
60.7485 0.127
60.7788 0.332
60.8091 -0.349
60.8393 0.378
60.8696 0.375
60.8999 0.267
60.9302 0.473
60.9604 0.210
60.9907 -0.262
61.0210 0.205
61.0513 0.150
61.0816 0.721
61.1118 0.510
61.1421 0.404
61.1724 -0.119
61.2027 0.348
61.2330 0.710
61.2632 0.188
61.2935 -0.074
61.3238 0.757
61.3541 -0.182
61.3844 0.754
61.4146 0.180
61.4449 0.335
61.4752 0.594
61.5055 0.854
61.5357 0.697
61.5660 1.112
61.5963 1.320
61.6266 0.746
61.6569 0.381
61.6871 1.318
61.7174 1.162
61.7477 1.109
61.7780 0.432
61.8083 0.015
61.8385 1.213
61.8688 0.536
61.8991 0.536
61.9294 1.109
61.9596 1.162
61.9899 0.381
62.0202 0.225
62.0505 1.215
62.0808 0.956
62.1110 0.852
62.1413 1.270
62.1716 0.490
62.2019 1.272
62.2322 1.377
62.2624 1.066
62.2927 0.182
62.3230 1.225
62.3533 1.643
62.3835 0.707
62.4138 0.657
62.4441 0.607
62.4744 0.973
62.5047 0.715
62.5349 0.665
62.5652 0.407
62.5955 1.347
62.6258 0.516
62.6561 1.508
62.6863 1.198
62.7166 1.044
62.7469 1.151
62.7772 0.946
62.8074 1.573
62.8377 0.691
62.8680 0.850
62.8983 0.645
62.9286 1.117
62.9588 0.808
62.9891 0.499
63.0194 1.076
63.0497 1.809
63.0800 0.771
63.1102 1.816
63.1405 0.362
63.1708 0.887
63.2011 0.943
63.2313 1.260
63.2616 1.056
63.2919 0.591
63.3222 0.388
63.3525 0.340
63.3827 0.501
63.4130 0.766
63.4433 0.146
63.4736 0.932
63.5039 0.417
63.5341 -0.359
63.5644 1.000
63.5947 0.068
63.6250 0.386
63.6552 0.600
63.6855 0.970
63.7158 0.194
63.7461 0.408
63.7764 0.206
63.8066 1.358
63.8369 0.999
63.8672 0.276
63.8975 1.012
63.9278 0.862
63.9580 1.077
63.9883 0.771
64.0186 0.413
64.0489 -0.257
64.0791 0.010
64.1094 0.277
64.1397 0.336
64.1700 0.968
64.2003 -0.118
64.2305 0.045
64.2608 0.886
64.2911 0.477
64.3214 -0.036
64.3517 0.128
64.3819 0.552
64.4122 0.352
64.4425 0.307
64.4728 -0.257
64.5031 -0.093
64.5333 0.488
64.5636 0.236
64.5939 0.609
64.6242 0.201
64.6544 0.939
64.6847 0.322
64.7150 0.956
64.7453 0.236
64.7756 0.766
64.8058 0.462
64.8361 -0.154
64.8664 0.272
64.8967 0.490
64.9270 0.239
64.9572 0.405
64.9875 0.883
65.0178 0.841
65.0481 -0.295
65.0783 -0.338
65.1086 0.028
65.1389 -0.335
65.1692 0.396
65.1995 -0.071
65.2297 0.243
65.2600 0.088
65.2903 0.402
65.3206 0.248
65.3509 1.188
65.3811 -0.008
65.4114 -0.006
65.4417 -0.108
65.4720 0.780
65.5022 0.001
65.5325 0.837
65.5628 0.006
65.5931 0.113
65.6234 0.272
65.6536 0.900
65.6839 0.018
65.7142 0.334
65.7445 -0.601
65.7748 0.184
65.8050 -0.073
65.8353 -0.174
65.8656 -0.274
65.8959 0.250
65.9261 0.358
65.9564 0.518
65.9867 -0.051
66.0170 0.422
66.0473 0.426
66.0775 -0.038
66.1078 -0.190
66.1381 -0.238
66.1684 -0.390
66.1987 0.291
66.2289 0.035
66.2592 0.351
66.2895 0.303
66.3198 -0.005
66.3500 0.000
66.3803 0.108
66.4106 0.217
66.4409 0.794
66.4712 0.226
66.5014 -0.550
66.5317 0.392
66.5620 -0.332
66.5923 0.558
66.6226 0.147
66.6528 0.048
66.6831 0.105
66.7134 0.371
66.7437 -0.196
66.7739 0.122
66.8042 -0.341
66.8345 0.081
66.8648 0.139
66.8951 0.250
66.9253 0.099
66.9556 -0.051
66.9859 -0.044
67.0162 0.379
67.0465 -0.657
67.0767 0.496
67.1070 0.607
67.1373 0.301
67.1676 0.412
67.1978 -0.154
67.2281 0.009
67.2584 0.016
67.2887 0.492
67.3190 -0.073
67.3492 0.090
67.3795 0.254
67.4098 -0.832
67.4401 -0.199
67.4704 0.225
67.5006 0.598
67.5309 0.033
67.5612 -0.063
67.5915 -0.263
67.6218 -0.099
67.6520 0.222
67.6823 0.543
67.7126 0.708
67.7429 0.508
67.7731 0.204
67.8034 0.161
67.8337 -0.246
67.8640 0.335
67.8943 0.501
67.9245 -0.427
67.9548 -0.053
67.9851 -0.044
68.0154 -0.191
68.0457 -0.389
68.0759 0.242
68.1062 -0.220
68.1365 0.307
68.1668 -0.154
68.1970 0.217
68.2273 0.224
68.2576 0.231
68.2879 0.551
68.3182 -0.119
68.3484 -0.060
68.3787 0.833
68.4090 0.320
68.4393 -0.245
68.4696 0.283
68.4998 0.239
68.5301 0.351
68.5604 0.359
68.5907 0.003
68.6209 0.011
68.6512 0.175
68.6815 0.288
68.7118 0.192
68.7421 0.201
68.7723 0.053
68.8026 0.427
68.8329 0.852
68.8632 0.653
68.8935 0.506
68.9237 0.046
68.9540 0.159
68.9843 0.481
69.0146 0.907
69.0448 0.136
69.0751 0.197
69.1054 1.040
69.1357 0.060
69.1660 0.695
69.1962 -0.232
69.2265 -0.014
69.2568 0.257
69.2871 0.059
69.3174 0.121
69.3476 -0.441
69.3779 -0.081
69.4082 0.280
69.4385 -0.036
69.4687 -0.143
69.4990 -0.095
69.5293 0.215
69.5596 0.628
69.5899 0.156
69.6201 0.049
69.6504 0.202
69.6807 0.095
69.7110 0.562
69.7413 -0.170
69.7715 0.504
69.8018 -0.019
69.8321 0.447
69.8624 0.601
69.8926 -0.026
69.9229 0.806
69.9532 -0.082
69.9835 0.385
70.0138 0.487
70.0440 0.069
70.0743 0.432
70.1046 -0.299
70.1349 0.898
70.1652 0.115
70.1954 0.166
70.2257 0.165
70.2560 0.424
70.2863 0.319
70.3166 0.579
70.3468 0.161
70.3771 0.213
70.4074 0.525
70.4377 0.264
70.4679 -0.101
70.4982 0.211
70.5285 0.419
70.5588 0.263
70.5891 0.054
70.6193 -0.050
70.6496 0.159
70.6799 0.107
70.7102 0.368
70.7405 0.004
70.7707 0.577
70.8010 0.109
70.8313 0.057
70.8616 0.058
70.8918 0.528
70.9221 0.269
70.9524 0.061
70.9827 -0.146
71.0130 0.168
71.0432 0.221
71.0735 -0.038
71.1038 -0.036
71.1341 0.382
71.1644 0.176
71.1946 0.021
71.2249 0.440
71.2552 -0.079
71.2855 -0.389
71.3157 0.127
71.3460 -0.033
71.3763 0.327
71.4066 -0.093
71.4369 0.267
71.4671 0.368
71.4974 -0.157
71.5277 0.100
71.5580 0.201
71.5883 0.562
71.6185 0.402
71.6488 0.764
71.6791 0.500
71.7094 0.185
71.7396 0.234
71.7699 -0.238
71.8002 -0.084
71.8305 0.434
71.8608 -0.038
71.8910 0.481
71.9213 0.270
71.9516 -0.305
71.9819 0.005
72.0122 0.680
72.0424 0.574
72.0727 -0.053
72.1030 -0.367
72.1333 0.256
72.1635 -0.267
72.1938 -0.112
72.2241 0.095
72.2544 0.458
72.2847 0.405
72.3149 0.247
72.3452 0.298
72.3755 0.245
72.4058 -0.068
72.4361 0.452
72.4663 -0.122
72.4966 0.555
72.5269 -0.071
72.5572 0.137
72.5874 0.033
72.6177 0.084
72.6480 -0.020
72.6783 -0.020
72.7086 -0.280
72.7388 -0.234
72.7691 0.020
72.7994 0.639
72.8297 0.060
72.8600 -0.258
72.8902 0.570
72.9205 -0.165
72.9508 0.090
72.9811 0.032
73.0113 -0.285
73.0416 -0.082
73.0719 0.382
73.1022 0.586
73.1325 -0.304
73.1627 -0.100
73.1930 0.208
73.2233 0.048
73.2536 0.356
73.2839 -0.325
73.3141 0.140
73.3444 -0.072
73.3747 -0.128
73.4050 -0.184
73.4353 -0.188
73.4655 0.226
73.4958 -0.194
73.5261 -0.146
73.5564 0.059
73.5866 0.421
73.6169 0.001
73.6472 -0.262
73.6775 0.204
73.7078 0.097
73.7380 0.615
73.7683 0.508
73.7986 1.183
73.8289 0.295
73.8592 0.137
73.8894 0.134
73.9197 -0.128
73.9500 0.234
73.9803 0.180
74.0105 0.231
74.0408 0.437
74.0711 0.071
74.1014 0.486
74.1317 0.276
74.1619 0.275
74.1922 -0.039
74.2225 -0.248
74.2528 -0.249
74.2831 0.114
74.3133 0.374
74.3436 -0.096
74.3739 0.216
74.4042 0.476
74.4344 0.007
74.4647 0.319
74.4950 -0.671
74.5253 -0.151
74.5556 -0.047
74.5858 -0.255
74.6161 0.005
74.6464 -0.151
74.6767 -0.255
74.7070 0.527
74.7372 0.215
74.7675 -0.149
74.7978 -0.044
74.8281 -0.512
74.8583 0.217
74.8886 0.218
74.9189 -0.562
74.9492 0.220
74.9795 0.326
75.0097 0.327
75.0400 0.016
75.0703 -0.243
75.1006 0.227
75.1309 0.281
75.1611 -0.238
75.1914 0.076
75.2217 0.182
75.2520 0.184
75.2822 0.707
75.3125 0.136
75.3428 0.347
75.3731 0.453
75.4034 -0.482
75.4336 0.719
75.4639 0.305
75.4942 0.099
75.5245 0.571
75.5548 0.053
75.5850 -0.049
75.6153 0.475
75.6456 0.270
75.6759 0.274
75.7061 0.069
75.7364 0.280
75.7667 -0.237
75.7970 -0.598
75.8273 0.291
75.8575 0.502
75.8878 0.141
75.9181 0.405
75.9484 0.669
75.9787 -0.213
76.0089 0.104
76.0392 0.003
76.0695 0.372
76.0998 1.105
76.1301 0.640
76.1603 -0.137
76.1906 0.232
76.2209 -0.493
76.2512 -0.071
76.2814 -0.171
76.3117 0.146
76.3420 -0.474
76.3723 0.416
76.4026 0.682
76.4328 0.114
76.4631 0.171
76.4934 0.124
76.5237 0.390
76.5540 -0.021
76.5842 0.349
76.6145 -0.375
76.6448 0.204
76.6751 -0.311
76.7053 -0.153
76.7356 0.110
76.7659 1.102
76.7962 0.532
76.8265 0.065
76.8567 -0.557
76.8870 0.592
76.9173 -0.135
76.9476 0.285
76.9779 -0.441
77.0081 0.448
77.0384 -0.018
77.0687 0.037
77.0990 -0.219
77.1292 0.044
77.1595 0.673
77.1898 -0.104
77.2201 0.108
77.2504 0.268
77.2806 0.220
77.3109 -0.089
77.3412 -0.032
77.3715 0.232
77.4018 -0.076
77.4320 0.606
77.4623 0.142
77.4926 -0.270
77.5229 0.151
77.5531 0.156
77.5834 -0.464
77.6137 0.374
77.6440 0.483
77.6743 -0.032
77.7045 0.338
77.7348 0.343
77.7651 0.348
77.7954 0.041
77.8257 0.516
77.8559 -0.103
77.8862 -0.410
77.9165 0.325
77.9468 0.071
77.9770 0.598
78.0073 -0.229
78.0376 0.089
78.0679 0.252
78.0982 -0.054
78.1284 0.213
78.1587 -0.041
78.1890 0.070
78.2193 0.129
78.2496 0.188
78.2798 0.143
78.3101 0.359
78.3404 0.418
78.3707 0.269
78.4009 -0.348
78.4312 0.128
78.4615 0.188
78.4918 0.247
78.5221 0.307
78.5523 -0.258
78.5826 -0.250
78.6129 -0.205
78.6432 0.152
78.6735 0.405
78.7037 0.138
78.7340 -0.025
78.7643 0.124
78.7946 0.638
78.8248 0.423
78.8551 -0.104
78.8854 0.514
78.9157 0.351
78.9460 0.605
78.9762 0.026
79.0065 -0.032
79.0368 0.118
79.0671 0.529
79.0974 0.315
79.1276 0.569
79.1579 -0.166
79.1882 0.141
79.2185 0.604
79.2488 0.234
79.2790 0.385
79.3093 0.016
79.3396 0.271
79.3699 0.162
79.4001 0.677
79.4304 0.152
79.4607 0.772
79.4910 0.299
79.5213 -0.019
79.5515 0.029
79.5818 -0.288
79.6121 0.489
79.6424 0.016
79.6727 -0.144
79.7029 0.008
79.7332 0.004
79.7635 0.261
79.7938 -0.004
79.8240 -0.528
79.8543 0.250
79.8846 0.559
79.9149 -0.122
79.9452 0.135
79.9754 0.445
80.0057 0.181
80.0360 -0.030
80.0663 0.279
80.0966 0.433
80.1268 -0.612
80.1571 -0.093
80.1874 0.581
80.2177 0.110
80.2479 -0.101
80.2782 0.001
80.3085 0.155
80.3388 -0.055
80.3691 0.984
80.3993 0.305
80.4296 -0.061
80.4599 -0.323
80.4902 0.196
80.5205 -0.118
80.5507 -0.119
80.5810 -0.017
80.6113 0.295
80.6416 0.294
80.6718 -0.072
80.7021 0.083
80.7324 0.603
80.7627 0.238
80.7930 0.237
80.8232 0.236
80.8535 0.392
80.8838 -0.389
80.9141 0.391
80.9444 0.235
80.9746 -0.078
81.0049 0.183
81.0352 0.079
81.0655 0.183
81.0957 -0.025
81.1260 0.027
81.1563 0.288
81.1866 0.549
81.2169 0.081
81.2471 0.030
81.2774 0.707
81.3077 -0.125
81.3380 0.345
81.3683 0.189
81.3985 0.295
81.4288 -0.277
81.4591 -0.067
81.4894 0.299
81.5196 0.040
81.5499 0.667
81.5802 0.356
81.6105 -0.007
81.6408 -0.161
81.6710 -0.055
81.7013 0.051
81.7316 -0.520
81.7619 -0.001
81.7922 0.310
81.8224 0.152
81.8527 -0.058
81.8830 0.878
81.9133 0.252
81.9436 -0.114
81.9738 0.301
82.0041 0.561
82.0344 -0.274
82.0647 1.132
82.0949 0.454
82.1252 0.193
82.1555 0.348
82.1858 0.504
82.2161 0.399
82.2463 0.711
82.2766 0.659
82.3069 0.034
82.3372 -0.227
82.3675 0.450
82.3977 -0.018
82.4280 0.086
82.4583 -0.070
82.4886 -0.226
82.5188 0.504
82.5491 0.348
82.5794 -0.016
82.6097 0.245
82.6400 -0.066
82.6702 0.143
82.7005 0.508
82.7308 0.041
82.7611 0.302
82.7914 -0.321
82.8216 0.409
82.8519 0.359
82.8822 -0.317
82.9125 0.154
82.9427 0.103
82.9730 0.001
83.0033 0.419
83.0336 0.161
83.0639 0.163
83.0941 0.270
83.1244 0.168
83.1547 0.274
83.1850 -0.192
83.2153 -0.033
83.2455 0.074
83.2758 -0.028
83.3061 -0.285
83.3364 0.079
83.3666 -0.078
83.3969 0.234
83.4272 -0.027
83.4575 0.025
83.4878 0.389
83.5180 0.232
83.5483 0.441
83.5786 -0.184
83.6089 0.180
83.6392 -0.184
83.6694 -0.028
83.6997 0.285
83.7300 0.286
83.7603 -0.026
83.7905 0.027
83.8208 -0.494
83.8511 0.024
83.8814 -0.292
83.9117 0.330
83.9419 0.379
83.9722 -0.093
84.0025 -0.044
84.0328 0.786
84.0631 -0.050
84.0933 0.052
84.1236 0.882
84.1539 0.203
84.1842 0.200
84.2144 0.094
84.2447 0.352
84.2750 -0.119
84.3053 -0.121
84.3356 -0.279
84.3658 0.552
84.3961 -0.022
84.4264 0.601
84.4567 0.131
84.4870 0.494
84.5172 0.388
84.5475 -0.394
84.5778 0.594
84.6081 0.385
84.6383 0.071
84.6686 0.018
84.6989 0.382
84.7292 0.121
84.7595 0.016
84.7897 -0.037
84.8200 0.119
84.8503 0.014
84.8806 0.431
84.9109 0.430
84.9411 -0.038
84.9714 -0.247
85.0017 0.014
85.0320 -0.038
85.0623 0.014
85.0925 -0.038
85.1228 -0.089
85.1531 0.328
85.1834 -0.400
85.2136 0.225
85.2439 0.330
85.2742 0.019
85.3045 0.124
85.3348 -0.135
85.3650 -0.030
85.3953 -0.185
85.4256 0.337
85.4559 -0.078
85.4862 0.236
85.5164 0.394
85.5467 -0.229
85.5770 0.398
85.6073 -0.121
85.6375 -0.276
85.6678 -0.276
85.6981 0.245
85.7284 0.402
85.7587 0.194
85.7889 -0.379
85.8192 -0.066
85.8495 0.403
85.8798 0.196
85.9101 0.249
85.9403 0.406
85.9706 0.355
86.0009 -0.061
86.0312 0.305
86.0614 -0.163
86.0917 0.151
86.1220 -0.004
86.1523 -0.002
86.1826 0.312
86.2128 0.418
86.2431 0.836
86.2734 -0.256
86.3037 -0.046
86.3340 0.061
86.3642 0.636
86.3945 0.690
86.4248 -0.401
86.4551 0.278
86.4853 -0.449
86.5156 0.127
86.5459 0.598
86.5762 0.757
86.6065 0.083
86.6367 0.034
86.6670 -0.119
86.6973 0.145
86.7276 0.408
86.7579 0.255
86.7881 -0.210
86.8184 0.002
86.8487 0.839
86.8790 -0.303
86.9092 0.013
86.9395 0.329
86.9698 0.438
87.0001 0.233
87.0304 -0.023
87.0606 0.138
87.0909 0.246
87.1212 -0.114
87.1515 -0.005
87.1818 0.104
87.2120 -0.100
87.2423 0.947
87.2726 -0.142
87.3029 0.227
87.3331 -0.132
87.3634 -0.023
87.3937 0.139
87.4240 0.457
87.4543 0.306
87.4845 0.364
87.5148 0.369
87.5451 0.323
87.5754 0.329
87.6057 -0.030
87.6359 0.132
87.6662 0.451
87.6965 0.249
87.7268 -0.109
87.7571 -0.520
87.7873 0.154
87.8176 0.463
87.8479 -0.061
87.8782 -0.116
87.9084 0.349
87.9387 0.034
87.9690 0.187
87.9993 0.028
88.0296 0.129
88.0598 -0.082
88.0901 0.488
88.1204 0.225
88.1507 0.119
88.1810 0.585
88.2112 0.010
88.2415 0.216
88.2718 -0.098
88.3021 0.212
88.3323 0.887
88.3626 0.104
88.3929 0.363
88.4232 0.309
88.4535 -0.317
88.4837 -0.058
88.5140 -0.059
88.5443 0.616
88.5746 0.147
88.6049 -0.271
88.6351 0.405
88.6654 0.248
88.6957 0.091
88.7260 -0.118
88.7562 -0.171
88.7865 0.245
88.8168 0.297
88.8471 0.036
88.8774 0.297
88.9076 0.140
88.9379 0.192
88.9682 0.192
88.9985 0.088
89.0288 0.089
89.0590 -0.067
89.0893 -0.015
89.1196 0.246
89.1499 0.143
89.1801 0.352
89.2104 0.509
89.2407 -0.271
89.2710 0.407
89.3013 -0.374
89.3315 0.305
89.3618 -0.215
89.3921 -0.161
89.4224 0.778
89.4527 -0.367
89.4829 0.000
89.5132 -0.363
89.5435 0.053
89.5738 -0.208
89.6040 -0.260
89.6343 -0.053
89.6646 0.207
89.6949 0.051
89.7252 -0.366
89.7554 0.363
89.7857 0.624
89.8160 -0.053
89.8463 0.311
89.8766 -0.001
89.9068 0.000
89.9371 -0.260
89.9674 -0.002
89.9977 -0.473
90.0279 0.410
90.0582 -0.217
90.0885 0.302
90.1188 -0.428
90.1491 0.351
90.1793 0.870
90.2096 0.713
90.2399 -0.382
90.2702 -0.123
90.3005 0.292
90.3307 0.291
90.3610 0.238
90.3913 0.185
90.4216 0.184
90.4518 0.496
90.4821 0.339
90.5124 0.599
90.5427 0.130
90.5730 0.755
90.6032 -0.027
90.6335 0.442
90.6638 0.389
90.6941 0.077
90.7244 0.077
90.7546 -0.131
90.7849 0.078
90.8152 -0.130
90.8455 0.495
90.8758 0.079
90.9060 -0.233
90.9363 -0.076
90.9666 0.029
90.9969 0.447
91.0271 -0.177
91.0574 -0.072
91.0877 0.086
91.1180 0.556
91.1483 -0.172
91.1785 -0.066
91.2088 -0.325
91.2391 0.510
91.2694 0.095
91.2997 -0.007
91.3299 0.203
91.3602 0.778
91.3905 -0.209
91.4208 -0.311
91.4510 0.261
91.4813 0.261
91.5116 0.313
91.5419 0.625
91.5722 0.521
91.6024 0.364
91.6327 0.104
91.6630 0.104
91.6933 0.313
91.7236 0.105
91.7538 0.261
91.7841 0.106
91.8144 0.158
91.8447 0.628
91.8749 0.108
91.9052 0.109
91.9355 -0.255
91.9658 -0.097
91.9961 -0.305
92.0263 0.426
92.0566 0.531
92.0869 0.168
92.1172 0.639
92.1475 0.224
92.1777 -0.087
92.2080 0.019
92.2383 0.125
92.2686 -0.290
92.2988 0.650
92.3291 -0.546
92.3594 0.602
92.3897 0.032
92.4200 0.347
92.4502 0.453
92.4805 -0.013
92.5108 0.459
92.5411 0.618
92.5714 0.360
92.6016 -0.001
92.6319 -0.050
92.6622 -0.255
92.6925 0.060
92.7227 0.115
92.7530 -0.194
92.7833 0.330
92.8136 -0.032
92.8439 -0.133
92.8741 0.183
92.9044 -0.386
92.9347 -0.122
92.9650 0.246
92.9953 0.458
93.0255 0.410
93.0558 -0.107
93.0861 0.261
93.1164 -0.307
93.1466 0.322
93.1769 0.170
93.2072 -0.086
93.2375 0.075
93.2678 0.183
93.2980 0.084
93.3283 0.297
93.3586 -0.323
93.3889 0.307
93.4192 0.468
93.4494 0.213
93.4797 0.114
93.5100 0.380
93.5403 -0.292
93.5706 0.390
93.6008 -0.177
93.6311 0.454
93.6614 0.407
93.6917 0.205
93.7219 0.003
93.7522 -0.095
93.7825 0.171
93.8128 0.229
93.8431 -0.337
93.8733 -0.181
93.9036 0.393
93.9339 -0.388
93.9642 0.342
93.9945 0.707
94.0247 0.291
94.0550 0.396
94.0853 -0.072
94.1156 0.190
94.1458 -0.122
94.1761 -0.016
94.2064 0.766
94.2367 0.247
94.2670 0.457
94.2972 0.198
94.3275 0.356
94.3578 0.305
94.3881 0.620
94.4184 0.205
94.4486 -0.105
94.4789 -0.051
94.5092 0.316
94.5395 -0.047
94.5697 0.425
94.6000 0.635
94.6303 0.430
94.6606 0.016
94.6909 0.539
94.7211 -0.031
94.7514 -0.132
94.7817 -0.233
94.8120 0.077
94.8423 0.857
94.8725 0.282
94.9028 0.124
94.9331 0.330
94.9634 0.589
94.9936 0.535
95.0239 0.169
95.0542 0.064
95.0845 0.010
95.1148 0.530
95.1450 0.216
95.1753 -0.254
95.2056 0.631
95.2359 0.109
95.2662 -0.100
95.2964 0.420
95.3267 0.784
95.3570 -0.050
95.3873 -0.154
95.4175 0.679
95.4478 0.054
95.4781 -0.259
95.5084 -0.004
95.5387 0.147
95.5689 0.142
95.5992 0.137
95.6295 -0.129
95.6598 0.023
95.6901 0.226
95.7203 0.378
95.7506 0.529
95.7809 0.212
95.8112 0.208
95.8414 0.256
95.8717 0.043
95.9020 -0.065
95.9323 -0.069
95.9626 -0.125
95.9928 0.027
96.0231 -0.029
96.0534 0.644
96.0837 -0.193
96.1140 0.533
96.1442 0.426
96.1745 0.578
96.2048 0.159
96.2351 0.312
96.2653 -0.004
96.2956 -0.319
96.3259 0.511
96.3562 -0.377
96.3865 -0.067
96.4167 0.295
96.4470 0.188
96.4773 0.238
96.5076 -0.181
96.5379 0.389
96.5681 0.127
96.5984 -0.240
96.6287 0.123
96.6590 0.017
96.6893 0.119
96.7195 0.013
96.7498 0.324
96.7801 0.531
96.8104 0.842
96.8406 -0.305
96.8709 0.632
96.9012 -0.359
96.9315 -0.152
96.9618 0.316
96.9920 0.367
97.0223 0.002
97.0526 -0.311
97.0829 0.050
97.1132 0.412
97.1434 -0.007
97.1737 0.146
97.2040 0.196
97.2343 0.297
97.2645 0.816
97.2948 0.241
97.3251 0.343
97.3554 -0.232
97.3857 -0.026
97.4159 -0.028
97.4462 0.074
97.4765 0.020
97.5068 0.019
97.5371 0.121
97.5673 0.380
97.5976 0.483
97.6279 -0.299
97.6582 -0.092
97.6884 -0.041
97.7187 0.062
97.7490 0.582
97.7793 1.050
97.8096 -0.097
97.8398 0.059
97.8701 -0.359
97.9004 0.058
97.9307 -0.255
97.9610 -0.102
97.9912 0.000
98.0215 0.205
98.0518 -0.370
98.0821 0.044
98.1123 0.198
98.1426 0.195
98.1729 0.245
98.2032 0.452
98.2335 0.241
98.2637 0.448
98.2940 -0.283
98.3243 -0.337
98.3546 0.338
98.3849 0.233
98.4151 -0.186
98.4454 0.751
98.4757 -0.084
98.5060 -0.346
98.5362 0.278
98.5665 -0.035
98.5968 0.172
98.6271 0.067
98.6574 0.275
98.6876 -0.038
98.7179 0.482
98.7482 0.273
98.7785 0.377
98.8088 -0.144
98.8390 -0.092
98.8693 -0.144
98.8996 0.116
98.9299 0.637
98.9601 0.012
98.9904 -0.091
99.0207 0.013
99.0510 0.274
99.0813 -0.402
99.1115 0.275
99.1418 0.276
99.1721 -0.192
99.2024 -0.243
99.2327 0.279
99.2629 0.072
99.2932 0.073
99.3235 0.126
99.3538 -0.705
99.3841 0.025
99.4143 0.496
99.4446 -0.180
99.4749 0.082
99.5052 0.293
99.5354 0.190
99.5657 -0.224
99.5960 0.507
99.6263 -0.116
99.6566 -0.217
99.6868 -0.059
99.7171 0.100
99.7474 -0.001
99.7777 -0.520
99.8080 0.054
99.8382 -0.153
99.8685 -0.100
99.8988 0.839
99.9291 -0.202
99.9593 -0.044
99.9896 0.270
100.0199 -0.198
100.0502 0.117
100.0805 -0.455
100.1107 0.432
100.1410 0.018
100.1713 -0.085
100.2016 0.490
100.2319 -0.080
100.2621 -0.286
100.2924 0.601
100.3227 0.656
100.3530 -0.331
100.3832 -0.068
100.4135 -0.222
100.4438 -0.115
100.4741 0.253
100.5044 0.204
100.5346 0.259
100.5649 0.366
100.5952 -0.099
100.6255 -0.252
100.6558 0.272
100.6860 0.119
100.7163 -0.294
100.7466 0.543
100.7769 -0.234
100.8071 0.395
100.8374 -0.278
100.8677 0.663
100.8980 -0.009
100.9283 0.151
100.9585 0.260
100.9888 -0.101
101.0191 0.217
101.0494 0.013
101.0797 0.070
101.1099 0.283
101.1402 0.079
101.1705 0.032
101.2008 0.350
101.2310 -0.322
101.2613 -0.056
101.2916 -0.259
101.3219 0.105
101.3522 -0.104
101.3824 0.676
101.4127 0.623
101.4430 0.310
101.4733 -0.107
101.5036 -0.159
101.5338 0.310
101.5641 0.414
101.5944 0.309
101.6247 -0.055
101.6549 0.205
101.6852 0.206
101.7155 0.414
101.7458 -0.106
101.7761 0.103
101.8063 0.260
101.8366 0.625
101.8669 0.209
101.8972 0.002
101.9275 0.003
101.9577 0.264
101.9880 -0.568
102.0183 0.006
102.0486 0.528
102.0788 0.165
102.1091 -0.146
102.1394 0.481
102.1697 0.222
102.2000 0.120
102.2302 0.017
102.2605 -0.137
102.2908 0.751
102.3211 0.388
102.3514 0.651
102.3816 0.133
102.4119 0.083
102.4422 0.502
102.4725 0.401
102.5028 0.039
102.5330 0.094
102.5633 0.565
102.5936 0.048
102.6239 0.155
102.6541 0.418
102.6844 -0.203
102.7147 0.581
102.7450 0.377
102.7753 0.484
102.8055 0.123
102.8358 0.283
102.8661 0.548
102.8964 0.343
102.9267 0.087
102.9569 0.456
102.9872 0.095
103.0175 -0.005
103.0478 -0.469
103.0780 0.317
103.1083 0.269
103.1386 0.430
103.1689 0.123
103.1992 0.128
103.2294 0.132
103.2597 -0.227
103.2900 -0.178
103.3203 -0.077
103.3506 -0.133
103.3808 0.125
103.4111 0.538
103.4414 0.015
103.4717 0.116
103.5019 -0.303
103.5322 0.007
103.5625 0.317
103.5928 0.627
103.6231 0.051
103.6533 0.153
103.6836 -0.161
103.7139 0.670
103.7442 0.147
103.7745 0.301
103.8047 0.352
103.8350 0.142
103.8653 0.296
103.8956 0.451
103.9258 -0.436
103.9561 0.136
103.9864 0.551
104.0167 0.498
104.0470 -0.180
104.0772 -0.233
104.1075 0.128
104.1378 -0.135
104.1681 0.278
104.1984 0.067
104.2286 0.585
104.2589 0.009
104.2892 0.475
104.3195 0.368
104.3497 0.522
104.3800 0.363
104.4103 0.152
104.4406 0.202
104.4709 -0.269
104.5011 0.458
104.5314 0.092
104.5617 0.194
104.5920 0.088
104.6223 0.086
104.6525 0.136
104.6828 0.760
104.7131 0.133
104.7434 -0.441
104.7736 0.547
104.8039 0.077
104.8342 0.076
104.8645 0.179
104.8948 0.439
104.9250 0.126
104.9553 -0.135
104.9856 0.072
105.0159 0.384
105.0462 0.227
105.0764 0.071
105.1067 -0.086
105.1370 0.070
105.1673 0.175
105.1975 0.227
105.2278 -0.034
105.2581 0.123
105.2884 -0.137
105.3187 -0.033
105.3489 0.124
105.3792 0.072
105.4095 0.073
105.4398 -0.239
105.4701 -0.293
105.5003 0.381
105.5306 0.118
105.5609 0.011
105.5912 0.582
105.6215 -0.149
105.6517 -0.204
105.6820 0.367
105.7123 -0.208
105.7426 -0.105
105.7728 -0.003
105.8031 -0.317
105.8334 0.410
105.8637 0.096
105.8940 0.199
105.9242 0.302
105.9545 0.249
105.9848 0.664
106.0151 -0.170
106.0454 -0.067
106.0756 0.245
106.1059 -0.225
106.1362 -0.486
106.1665 0.295
106.1967 -0.175
106.2270 0.346
106.2573 0.293
106.2876 -0.332
106.3179 0.189
106.3481 0.085
106.3784 0.085
106.4087 -0.123
106.4390 -0.019
106.4693 -0.227
106.4995 0.346
106.5298 -0.070
106.5601 -0.173
106.5904 0.296
106.6206 0.089
106.6509 0.454
106.6812 0.091
106.7115 -0.117
106.7418 0.041
106.7720 -0.010
106.8023 -0.217
106.8326 0.097
106.8629 -0.474
106.8932 0.152
106.9234 0.206
106.9537 0.104
106.9840 -0.259
107.0143 -0.052
107.0445 0.415
107.0748 0.257
107.1051 0.256
107.1354 0.098
107.1657 0.305
107.1959 0.148
107.2262 -0.478
107.2565 0.303
107.2868 0.406
107.3171 -0.064
107.3473 0.144
107.3776 0.144
107.4079 0.352
107.4382 -0.274
107.4684 0.507
107.4987 -0.326
107.5290 -0.118
107.5593 -0.066
107.5896 0.143
107.6198 0.351
107.6501 -0.430
107.6804 -0.117
107.7107 -0.168
107.7410 0.145
107.7712 -0.063
107.8015 0.719
107.8318 0.147
107.8621 -0.425
107.8923 -0.007
107.9226 -0.006
107.9529 0.151
107.9832 0.309
108.0135 0.154
108.0437 0.156
108.0740 0.157
108.1043 0.211
108.1346 0.161
108.1649 0.423
108.1951 0.217
108.2254 -0.094
108.2557 0.481
108.2860 0.171
108.3163 0.434
108.3465 0.072
108.3768 0.074
108.4071 0.129
108.4374 0.861
108.4676 0.343
108.4979 0.294
108.5282 0.193
108.5585 0.196
108.5888 0.251
108.6190 0.150
108.6493 0.205
108.6796 -0.104
108.7099 0.317
108.7402 0.216
108.7704 0.584
108.8007 -0.089
108.8310 0.280
108.8613 0.075
108.8915 -0.233
108.9218 -0.025
108.9521 0.183
108.9824 0.443
109.0127 1.016
109.0429 0.339
109.0732 0.183
109.1035 -0.181
109.1338 -0.233
109.1641 -0.233
109.1943 0.284
109.2246 -0.188
109.2549 0.589
109.2852 0.430
109.3154 0.530
109.3457 0.058
109.3760 0.264
109.4063 -0.156
109.4366 0.257
109.4668 -0.318
109.4971 0.043
109.5274 0.145
109.5577 0.038
109.5880 0.244
109.6182 -0.175
109.6485 0.291
109.6788 -0.128
109.7091 0.234
109.7393 0.232
109.7696 0.022
109.7999 0.228
109.8302 0.018
109.8605 0.121
109.8907 -0.193
109.9210 -0.143
109.9513 0.012
109.9816 -0.042
110.0119 0.218
110.0421 -0.096
110.0724 0.320
110.1027 0.214
110.1330 0.370
110.1632 0.213
110.1935 -0.413
110.2238 -0.153
110.2541 0.055
110.2844 -0.362
110.3146 0.210
110.3449 -0.155
110.3752 -0.415
110.4055 0.208
110.4358 0.623
110.4660 0.153
110.4963 0.203
110.5266 0.202
110.5569 0.253
110.5871 0.147
110.6174 0.250
110.6477 -0.428
110.6780 0.248
110.7083 -0.013
110.7385 0.091
110.7688 0.090
110.7991 -0.171
110.8294 0.245
110.8597 0.037
110.8899 0.192
110.9202 0.609
110.9505 -0.329
110.9808 -0.277
111.0110 0.401
111.0413 0.088
111.0716 -0.120
111.1019 0.037
111.1322 -0.171
111.1624 -0.170
111.1927 0.455
111.2230 0.144
111.2533 -0.272
111.2836 0.249
111.3138 0.042
111.3441 0.200
111.3744 0.305
111.4047 0.462
111.4350 -0.005
111.4652 -0.108
111.4955 -0.002
111.5258 0.052
111.5561 0.314
111.5863 0.108
111.6166 0.370
111.6469 0.008
111.6772 0.218
111.7075 0.012
111.7377 0.431
111.7680 -0.348
111.7983 0.019
111.8286 -0.239
111.8589 -0.033
111.8891 0.330
111.9194 0.068
111.9497 0.430
111.9800 0.012
112.0102 -0.302
112.0405 0.321
112.0708 -0.097
112.1011 0.422
112.1314 0.212
112.1616 0.107
112.1919 0.366
112.2222 0.105
112.2525 0.260
112.2828 0.103
112.3130 -0.367
112.3433 0.205
112.3736 -0.003
112.4039 0.517
112.4341 0.569
112.4644 -0.161
112.4947 -0.109
112.5250 -0.057
112.5553 -0.370
112.5855 0.151
112.6158 -0.474
112.6461 0.360
112.6764 0.152
112.7067 0.048
112.7369 -0.004
112.7672 -0.107
112.7975 -0.054
112.8278 -0.262
112.8580 0.833
112.8883 -0.312
112.9186 -0.311
112.9489 0.364
112.9792 0.258
113.0094 -0.109
113.0397 -0.267
113.0700 0.513
113.1003 0.147
113.1306 0.093
113.1608 0.092
113.1911 0.038
113.2214 0.401
113.2517 0.348
113.2819 -0.070
113.3122 -0.123
113.3425 0.658
113.3728 -0.228
113.4031 0.031
113.4333 0.239
113.4636 -0.386
113.4939 0.394
113.5242 0.342
113.5545 0.342
113.5847 0.237
113.6150 -0.179
113.6453 -0.127
113.6756 0.394
113.7058 -0.023
113.7361 0.030
113.7664 -0.282
113.7967 0.187
113.8270 0.188
113.8572 -0.072
113.8875 -0.071
113.9178 0.190
113.9481 0.399
113.9784 0.036
114.0086 -0.119
114.0389 -0.066
114.0692 0.196
114.0995 0.145
114.1298 0.251
114.1600 0.669
114.1903 0.515
114.2206 0.100
114.2509 0.050
114.2811 -0.209
114.3114 0.054
114.3417 0.629
114.3720 0.006
114.4023 -0.096
114.4325 0.480
114.4628 -0.091
114.4931 0.329
114.5234 -0.137
114.5537 -0.239
114.5839 0.024
114.6142 0.183
114.6445 0.341
114.6748 0.083
114.7050 0.086
114.7353 -0.380
114.7656 0.404
114.7959 -0.062
114.8262 0.253
114.8564 0.100
114.8867 -0.209
114.9170 0.106
114.9473 0.318
114.9776 0.374
115.0078 0.117
115.0381 0.016
115.0684 -0.189
115.0987 -0.081
115.1289 -0.233
115.1592 -0.082
115.1895 0.172
115.2198 0.427
115.2501 -0.099
115.2803 -0.104
115.3106 0.359
115.3409 -0.219
115.3712 0.557
115.4015 -0.281
115.4317 0.287
115.4620 0.542
115.4923 -0.087
115.5226 0.169
115.5528 0.060
115.5831 -0.205
115.6134 -0.001
115.6437 0.151
115.6740 -0.114
115.7042 0.091
115.7345 0.660
115.7648 0.708
115.7951 0.339
115.8254 -0.237
115.8556 -0.137
115.8859 -0.244
115.9162 0.169
115.9465 0.270
115.9767 -0.202
116.0070 0.159
116.0373 0.364
116.0676 0.518
116.0979 -0.423
116.1281 0.043
116.1584 0.197
116.1887 -0.118
116.2190 0.296
116.2493 0.189
116.2795 -0.178
116.3098 -0.076
116.3401 -0.234
116.3704 0.076
116.4006 -0.342
116.4309 0.125
116.4612 -0.294
116.4915 0.330
116.5218 0.068
116.5520 0.170
116.5823 0.169
116.6126 -0.770
116.6429 0.635
116.6732 -0.095
116.7034 0.216
116.7337 0.424
116.7640 0.110
116.7943 0.214
116.8245 -0.047
116.8548 0.161
116.8851 -0.152
116.9154 0.108
116.9457 -0.153
116.9759 -0.570
117.0062 0.576
117.0365 0.211
117.0668 -0.257
117.0971 0.264
117.1273 0.160
117.1576 -0.100
117.1879 0.213
117.2182 0.422
117.2485 -0.515
117.2787 0.371
117.3090 0.268
117.3393 0.373
117.3696 0.217
117.3998 0.219
117.4301 -0.041
117.4604 0.117
117.4907 -0.246
117.5210 0.120
117.5512 -0.087
117.5815 0.592
117.6118 0.177
117.6421 -0.134
117.6724 0.076
117.7026 -0.130
117.7329 0.445
117.7632 0.343
117.7935 -0.436
117.8237 0.036
117.8540 0.403
117.8843 0.197
117.9146 0.356
117.9449 0.254
117.9751 -0.211
118.0054 0.104
118.0357 0.472
118.0660 -0.046
118.0963 0.843
118.1265 0.169
118.1568 -0.244
118.1871 -0.190
118.2174 -0.240
118.2476 -0.134
118.2779 0.077
118.3082 0.235
118.3385 0.238
118.3688 -0.072
118.3990 0.295
118.4293 -0.067
118.4596 0.092
118.4899 0.564
118.5202 -0.058
118.5504 0.101
118.5807 0.573
118.6110 0.264
118.6413 0.424
118.6715 0.375
118.7018 0.275
118.7321 -0.034
118.7624 -0.239
118.7927 -0.035
118.8229 0.429
118.8532 0.008
118.8835 0.107
118.9138 0.468
118.9441 -0.162
118.9743 0.147
119.0046 0.299
119.0349 0.086
119.0652 0.082
119.0954 0.183
119.1257 -0.238
119.1560 0.540
119.1863 -0.141
119.2166 0.220
119.2468 -0.096
119.2771 -0.047
119.3074 0.158
119.3377 -0.261
119.3680 0.204
119.3982 -0.163
119.4285 0.199
119.4588 0.196
119.4891 0.454
119.5193 -0.070
119.5496 0.032
119.5799 -0.074
119.6102 -0.285
119.6405 0.141
119.6707 0.098
119.7010 0.056
119.7313 -0.403
119.7616 0.492
119.7919 -0.175
119.8221 0.407
119.8524 0.105
119.8827 0.219
119.9130 0.021
119.9433 0.083
119.9735 -0.010
120.0038 0.000
