'Id: "" Comment: "" Operator: "Lab Manager" Anode: "Cu" Scantype: "Locked Coupled" TimePerStep: "19.2" X: "9999" Y: "9999" Z: "9999" 
10.0015 0.000
10.0318 1.045
10.0620 1.310
10.0923 1.262
10.1226 0.849
10.1529 1.270
10.1832 -0.236
10.2134 1.540
10.2437 2.066
10.2740 2.279
10.3043 2.701
10.3346 1.664
10.3648 4.118
10.3951 3.082
10.4254 3.504
10.4557 2.937
10.4859 3.777
10.5162 4.200
10.5465 4.831
10.5768 5.202
10.6071 5.938
10.6373 6.309
10.6676 5.535
10.6979 5.595
10.7282 8.154
10.7585 8.578
10.7887 8.065
10.8190 9.062
10.8493 10.425
10.8796 11.631
10.9098 12.524
10.9401 11.804
10.9704 14.312
11.0007 14.269
11.0310 15.788
11.0612 14.652
11.0915 16.067
11.1218 14.931
11.1521 15.721
11.1824 17.502
11.2126 18.658
11.2429 19.136
11.2732 19.407
11.3035 19.574
11.3337 21.199
11.3640 20.793
11.3943 21.012
11.4246 20.867
11.4549 22.492
11.4851 21.306
11.5154 24.494
11.5457 23.933
11.5760 23.320
11.6063 22.863
11.6365 25.062
11.6668 25.335
11.6971 26.285
11.7274 23.902
11.7577 23.758
11.7879 23.979
11.8182 23.576
11.8485 23.172
11.8788 24.019
11.9090 21.064
11.9393 19.931
11.9696 18.904
11.9999 17.980
12.0302 17.057
12.0604 16.290
12.0907 15.262
12.1210 14.652
12.1513 13.521
12.1816 13.432
12.2118 12.978
12.2421 12.472
12.2724 10.925
12.3027 10.837
12.3329 10.019
12.3632 10.660
12.3935 7.811
12.4238 8.088
12.4541 8.781
12.4843 8.902
12.5146 7.669
12.5449 7.425
12.5752 6.765
12.6055 7.199
12.6357 6.174
12.6660 6.348
12.6963 5.011
12.7266 5.289
12.7568 5.255
12.7871 4.700
12.8174 5.031
12.8477 3.695
12.8780 3.922
12.9082 5.035
12.9385 4.897
12.9688 3.718
12.9991 3.581
13.0294 4.694
13.0596 4.349
13.0899 4.837
13.1202 4.597
13.1505 5.502
13.1807 3.543
13.2110 4.188
13.2413 3.480
13.2716 4.281
13.3019 3.625
13.3321 3.229
13.3624 2.417
13.3927 2.542
13.4230 3.032
13.4533 1.648
13.4835 1.930
13.5138 1.900
13.5441 2.026
13.5744 1.944
13.6046 2.695
13.6349 2.145
13.6652 2.376
13.6955 3.076
13.7258 2.265
13.7560 1.611
13.7863 0.541
13.8166 1.033
13.8469 1.733
13.8772 1.497
13.9074 0.375
13.9377 -0.487
13.9680 0.736
13.9983 0.812
14.0285 1.045
14.0588 0.549
14.0891 0.626
14.1194 0.703
14.1497 0.207
14.1799 -0.028
14.2102 0.726
14.2405 -0.186
14.2708 0.205
14.3011 0.179
14.3313 0.048
14.3616 -0.029
14.3919 -0.159
14.4222 -0.081
14.4524 0.050
14.4827 0.390
14.5130 -0.313
14.5433 -0.390
14.5736 0.370
14.6038 -0.433
14.6341 -0.038
14.6644 0.253
14.6947 0.076
14.7250 0.367
14.7552 -0.643
14.7855 -0.299
14.8158 -0.179
14.8461 0.462
14.8764 0.582
14.9066 0.390
14.9369 -0.063
14.9672 -0.202
14.9975 -0.290
15.0277 0.508
15.0580 -0.152
15.0883 0.126
15.1186 -0.273
15.1489 0.109
15.1791 0.231
15.2094 0.040
15.2397 0.318
15.2700 0.337
15.3003 0.615
15.3305 -0.200
15.3608 -0.546
15.3911 0.245
15.4214 -0.057
15.4516 -0.360
15.4819 0.119
15.5122 0.390
15.5425 -0.589
15.5728 -0.266
15.6030 0.265
15.6333 -0.247
15.6636 0.284
15.6939 0.502
15.7242 -0.009
15.7544 0.210
15.7847 -0.249
15.8150 0.439
15.8453 -0.071
15.8755 0.252
15.9058 0.575
15.9361 -0.195
15.9664 -0.184
15.9967 0.661
16.0269 0.621
16.0572 0.007
16.0875 0.332
16.1178 -0.021
16.1481 -0.165
16.1783 0.108
16.2086 -0.244
16.2389 -0.078
16.2692 -0.121
16.2994 0.358
16.3297 0.629
16.3600 0.066
16.3903 0.181
16.4206 0.400
16.4508 0.567
16.4811 0.578
16.5114 0.797
16.5417 0.548
16.5720 0.664
16.6022 -0.106
16.6325 0.531
16.6628 0.230
16.6931 0.295
16.7233 -0.058
16.7536 0.215
16.7839 0.332
16.8142 0.813
16.8445 0.305
16.8747 0.631
16.9050 0.383
16.9353 0.188
16.9656 -0.215
16.9959 -0.214
17.0261 0.203
17.0564 0.568
17.0867 0.204
17.1170 0.101
17.1472 -0.106
17.1775 0.104
17.2078 -0.155
17.2381 -0.102
17.2684 0.213
17.2986 -0.098
17.3289 -0.512
17.3592 0.532
17.3895 -0.195
17.4198 -0.036
17.4500 -0.450
17.4803 0.230
17.5106 0.129
17.5409 -0.233
17.5712 -0.073
17.6014 -0.173
17.6317 0.144
17.6620 -0.008
17.6923 0.205
17.7225 -0.155
17.7528 0.006
17.7831 -0.145
17.8134 0.172
17.8437 -0.031
17.8739 0.287
17.9042 0.397
17.9345 0.246
17.9648 -0.269
17.9951 0.258
18.0253 0.316
18.0556 0.375
18.0859 -0.348
18.1162 0.076
18.1464 0.239
18.1767 0.142
18.2070 0.565
18.2373 0.052
18.2676 0.007
18.2978 -0.089
18.3281 0.127
18.3584 -0.126
18.3887 0.351
18.4190 0.203
18.4492 -0.205
18.4795 -0.144
18.5098 -0.188
18.5401 -0.233
18.5703 0.235
18.6006 0.182
18.6309 0.129
18.6612 0.129
18.6915 -0.028
18.7217 0.180
18.7520 -0.185
18.7823 -0.029
18.8126 0.284
18.8429 0.024
18.8731 0.285
18.9034 0.442
18.9337 0.078
18.9640 0.183
18.9942 0.080
19.0245 0.394
19.0548 0.030
19.0851 0.292
19.1154 -0.123
19.1456 0.192
19.1759 0.506
19.2062 0.457
19.2365 0.198
19.2668 0.461
19.2970 0.568
19.3273 0.311
19.3576 0.001
19.3879 0.265
19.4181 0.268
19.4484 0.167
19.4787 0.327
19.5090 0.539
19.5393 0.491
19.5695 0.026
19.5998 0.291
19.6301 0.400
19.6604 0.092
19.6907 0.253
19.7209 0.414
19.7512 -0.467
19.7815 0.216
19.8118 0.273
19.8420 0.122
19.8723 0.284
19.9026 0.134
19.9329 -0.173
19.9632 -0.123
19.9934 0.292
20.0237 0.081
20.0540 -0.025
20.0843 0.078
20.1146 0.180
20.1448 0.179
20.1751 0.334
20.2054 0.072
20.2357 -0.085
20.2659 0.175
20.2962 0.330
20.3265 0.122
20.3568 -0.035
20.3871 0.225
20.4173 0.225
20.4476 0.174
20.4779 0.278
20.5082 -0.138
20.5385 0.227
20.5687 0.124
20.5990 0.281
20.6293 -0.239
20.6596 -0.081
20.6899 0.077
20.7201 0.391
20.7504 -0.181
20.7807 0.551
20.8110 0.084
20.8412 0.399
20.8715 0.245
20.9018 0.247
20.9321 0.198
20.9624 0.149
20.9926 -0.109
21.0229 0.207
21.0532 -0.311
21.0835 -0.154
21.1138 0.264
21.1440 0.212
21.1743 0.161
21.2046 0.266
21.2349 0.268
21.2651 0.113
21.2954 0.115
21.3257 -0.144
21.3560 0.483
21.3863 0.485
21.4165 -0.086
21.4468 -0.136
21.4771 0.127
21.5074 0.234
21.5377 0.185
21.5679 0.136
21.5982 -0.069
21.6285 0.195
21.6588 0.198
21.6890 0.045
21.7193 0.205
21.7496 0.053
21.7799 0.161
21.8102 0.322
21.8404 0.118
21.8707 0.019
21.9010 0.075
21.9313 -0.180
21.9616 -0.032
21.9918 0.221
22.0221 0.057
22.0524 0.101
22.0827 -0.011
22.1129 0.555
22.1432 0.287
22.1735 0.333
22.2038 0.222
22.2341 0.319
22.2643 0.365
22.2946 -0.058
22.3249 0.040
22.3552 0.242
22.3855 -0.076
22.4157 0.022
22.4460 0.329
22.4763 0.220
22.5066 0.058
22.5368 0.365
22.5671 0.413
22.5974 0.200
22.6277 -0.013
22.6580 0.191
22.6882 -0.178
22.7185 0.130
22.7488 -0.082
22.7791 -0.034
22.8094 0.066
22.8396 0.063
22.8699 0.112
22.9002 0.056
22.9305 0.053
22.9607 0.363
22.9910 -0.056
23.0213 0.045
23.0516 -0.113
23.0819 0.145
23.1121 -0.274
23.1424 0.193
23.1727 -0.017
23.2030 0.242
23.2333 -0.020
23.2635 -0.074
23.2938 0.133
23.3241 -0.180
23.3544 0.288
23.3846 0.131
23.4149 0.235
23.4452 -0.391
23.4755 0.026
23.5058 -0.183
23.5360 0.442
23.5663 0.026
23.5966 0.027
23.6269 -0.025
23.6572 -0.285
23.6874 0.077
23.7177 -0.187
23.7480 0.071
23.7783 -0.036
23.8086 0.222
23.8388 -0.249
23.8691 -0.095
23.8994 0.320
23.9297 -0.047
23.9599 0.055
23.9902 0.002
24.0205 0.000
24.0508 0.051
24.0811 -0.054
24.1113 0.049
24.1416 0.257
24.1719 0.412
24.2022 0.203
24.2325 0.203
24.2627 0.568
24.2930 0.203
24.3233 0.464
24.3536 0.672
24.3838 0.881
24.4141 0.986
24.4444 0.778
24.4747 0.675
24.5050 0.937
24.5352 1.302
24.5655 1.512
24.5958 0.993
24.6261 1.932
24.6564 1.674
24.6866 2.040
24.7169 2.667
24.7472 2.670
24.7775 3.245
24.8077 3.144
24.8380 3.094
24.8683 2.629
24.8986 2.475
24.9289 2.687
24.9591 2.795
24.9894 2.017
25.0197 2.125
25.0500 1.244
25.0803 1.091
25.1105 1.200
25.1408 0.787
25.1711 1.000
25.2014 0.797
25.2316 0.645
25.2619 0.442
25.2922 0.291
25.3225 0.609
25.3528 0.406
25.3830 -0.265
25.4133 0.470
25.4436 -0.045
25.4739 0.169
25.5042 0.228
25.5344 0.494
25.5647 -0.280
25.5950 -0.065
25.6253 0.202
25.6555 0.313
25.6858 -0.304
25.7161 -0.141
25.7464 -0.029
25.7767 -0.178
25.8069 0.195
25.8372 0.047
25.8675 -0.101
25.8978 0.115
25.9281 0.072
25.9583 0.341
25.9886 0.037
26.0189 -0.267
26.0492 0.107
26.0794 -0.092
26.1097 -0.030
26.1400 -0.073
26.1703 0.197
26.2006 -0.105
26.2308 -0.147
26.2611 -0.036
26.2914 0.024
26.3217 0.135
26.3520 -0.013
26.3822 0.255
26.4125 0.315
26.4428 0.115
26.4731 0.124
26.5034 -0.024
26.5336 0.089
26.5639 -0.111
26.5942 -0.154
26.6245 0.167
26.6547 0.020
26.6850 -0.284
26.7153 0.024
26.7456 0.331
26.7759 0.066
26.8061 0.062
26.8364 0.318
26.8667 0.209
26.8970 0.153
26.9273 0.201
26.9575 0.406
26.9878 0.350
27.0181 0.034
27.0484 0.344
27.0786 0.288
27.1089 0.754
27.1392 0.283
27.1695 0.020
27.1998 0.225
27.2300 0.171
27.2603 0.169
27.2906 -0.042
27.3209 -0.148
27.3512 0.319
27.3814 0.162
27.4117 0.160
27.4420 -0.258
27.4723 -0.050
27.5025 -0.103
27.5328 0.104
27.5631 0.260
27.5934 -0.001
27.6237 0.103
27.6539 -0.001
27.6842 0.155
27.7145 0.311
27.7448 -0.053
27.7751 0.208
27.8053 -0.260
27.8356 0.314
27.8659 0.106
27.8962 0.316
27.9264 0.109
27.9567 -0.046
27.9870 0.112
28.0173 0.114
28.0476 -0.093
28.0778 0.013
28.1081 0.224
28.1384 0.122
28.1687 0.073
28.1990 0.023
28.2292 0.130
28.2595 0.133
28.2898 0.032
28.3201 0.088
28.3503 0.039
28.3806 0.095
28.4109 0.099
28.4412 -0.054
28.4715 -0.154
28.5017 0.105
28.5320 0.103
28.5623 0.258
28.5926 -0.004
28.6229 0.255
28.6531 0.254
28.6834 -0.059
28.7137 0.044
28.7440 0.200
28.7742 0.408
28.8045 -0.009
28.8348 -0.217
28.8651 0.199
28.8954 -0.009
28.9256 -0.008
28.9559 -0.060
28.9862 0.357
29.0165 -0.006
29.0468 -0.057
29.0770 0.152
29.1073 0.310
29.1376 -0.210
29.1679 0.157
29.1981 0.210
29.2284 0.212
29.2587 -0.202
29.2890 0.321
29.3193 -0.041
29.3495 -0.039
29.3798 -0.036
29.4101 0.071
29.4404 0.126
29.4707 0.129
29.5009 -0.128
29.5312 -0.124
29.5615 0.088
29.5918 0.300
29.6221 0.095
29.6523 -0.057
29.6826 -0.053
29.7129 0.108
29.7432 0.164
29.7734 0.325
29.8037 0.121
29.8340 0.022
29.8643 0.340
29.8946 0.241
29.9248 0.038
29.9551 0.200
29.9854 -0.003
30.0157 -0.153
30.0460 0.046
30.0762 -0.067
30.1065 0.288
30.1368 0.071
30.1671 0.115
30.1973 0.210
30.2276 0.410
30.2579 0.090
30.2882 0.186
30.3185 0.230
30.3487 0.327
30.3790 0.319
30.4093 0.103
30.4396 0.096
30.4699 0.141
30.5001 0.239
30.5304 0.024
30.5607 0.017
30.5910 0.427
30.6212 -0.048
30.6515 0.050
30.6818 0.565
30.7121 0.195
30.7424 -0.123
30.7726 0.184
30.8029 0.074
30.8332 0.277
30.8635 0.168
30.8938 0.216
30.9240 0.315
30.9543 0.311
30.9846 0.150
31.0149 0.250
31.0451 0.298
31.0754 0.659
31.1057 0.238
31.1360 0.391
31.1663 0.596
31.1965 1.061
31.2268 0.694
31.2571 0.899
31.2874 0.636
31.3177 0.112
31.3479 1.256
31.3782 1.097
31.4085 0.939
31.4388 1.458
31.4690 1.508
31.4993 1.142
31.5296 2.286
31.5599 1.816
31.5902 1.919
31.6204 2.543
31.6507 1.865
31.6810 1.551
31.7113 1.447
31.7416 0.873
31.7718 2.019
31.8021 0.769
31.8324 1.185
31.8627 0.665
31.8929 1.082
31.9232 0.978
31.9535 0.770
31.9838 0.823
32.0141 0.668
32.0443 0.253
32.0746 0.202
32.1049 0.412
32.1352 0.413
32.1655 -0.002
32.1957 0.573
32.2260 0.211
32.2563 0.473
32.2866 0.059
32.3169 0.270
32.3471 -0.040
32.3774 0.224
32.4077 0.174
32.4380 0.230
32.4682 0.025
32.4985 -0.180
32.5288 0.030
32.5591 0.187
32.5894 0.397
32.6196 0.243
32.6499 -0.068
32.6802 -0.118
32.7105 -0.063
32.7408 -0.061
32.7710 0.358
32.8013 -0.004
32.8316 -0.001
32.8619 0.107
32.8921 -0.047
32.9224 -0.147
32.9527 -0.146
32.9830 0.064
33.0133 0.118
33.0435 -0.453
33.0738 -0.034
33.1041 -0.031
33.1344 0.180
33.1647 0.026
33.1949 0.081
33.2252 -0.176
33.2555 0.243
33.2858 0.403
33.3160 0.198
33.3463 0.254
33.3766 0.310
33.4069 0.314
33.4372 0.057
33.4674 0.062
33.4977 -0.038
33.5280 -0.138
33.5583 0.012
33.5886 0.110
33.6188 0.364
33.6491 -0.006
33.6794 -0.273
33.7097 0.086
33.7399 0.081
33.7702 0.076
33.8005 0.018
33.8308 0.013
33.8611 0.321
33.8913 0.056
33.9216 0.051
33.9519 0.359
33.9822 0.251
34.0125 0.559
34.0427 0.660
34.0730 1.125
34.1033 0.913
34.1336 1.326
34.1638 1.531
34.1941 1.424
34.2244 2.983
34.2547 2.980
34.2850 2.769
34.3152 2.142
34.3455 1.827
34.3758 1.668
34.4061 0.885
34.4364 0.831
34.4666 0.517
34.4969 -0.005
34.5272 0.514
34.5575 0.304
34.5877 0.460
34.6180 0.198
34.6483 0.041
34.6786 0.353
34.7089 0.248
34.7391 0.092
34.7694 -0.012
34.7997 0.248
34.8300 -0.116
34.8603 -0.116
34.8905 -0.011
34.9208 0.354
34.9511 0.042
34.9814 -0.009
35.0116 -0.060
35.0419 0.410
35.0722 0.203
35.1025 0.205
35.1328 0.050
35.1630 -0.156
35.1933 -0.002
35.2236 0.256
35.2539 0.201
35.2842 0.147
35.3144 -0.011
35.3447 -0.117
35.3750 0.038
35.4053 -0.120
35.4356 0.192
35.4658 0.399
35.4961 0.138
35.5264 0.033
35.5567 0.397
35.5869 0.344
35.6172 0.188
35.6475 0.552
35.6778 0.240
35.7081 0.292
35.7383 0.761
35.7686 1.282
35.7989 0.346
35.8292 0.555
35.8595 0.712
35.8897 0.817
35.9200 1.704
35.9503 1.758
35.9806 1.863
36.0108 1.917
36.0411 2.284
36.0714 2.025
36.1017 2.392
36.1320 1.926
36.1622 1.981
36.1925 2.087
36.2228 2.038
36.2531 1.781
36.2834 1.315
36.3136 1.423
36.3439 1.530
36.3742 0.857
36.4045 0.236
36.4347 0.552
36.4650 0.661
36.4953 0.717
36.5256 0.096
36.5559 0.361
36.5861 -0.102
36.6164 -0.098
36.6467 0.064
36.6770 0.069
36.7073 -0.082
36.7375 0.080
36.7678 0.138
36.7981 0.300
36.8284 0.254
36.8586 0.312
36.8889 0.214
36.9192 0.169
36.9495 0.279
36.9798 0.338
37.0100 -0.123
37.0403 0.248
37.0706 0.099
37.1009 -0.206
37.1312 -0.045
37.1614 0.221
37.1917 0.226
37.2220 0.231
37.2523 0.393
37.2825 0.086
37.3128 0.248
37.3431 0.254
37.3734 0.469
37.4037 0.267
37.4339 0.169
37.4642 0.280
37.4945 -0.026
37.5248 0.346
37.5551 0.144
37.5853 0.100
37.6156 0.211
37.6459 0.010
37.6762 0.122
37.7064 0.130
37.7367 0.242
37.7670 0.303
37.7973 0.155
37.8276 0.163
37.8578 0.380
37.8881 0.181
37.9184 0.294
37.9487 0.095
37.9790 -0.104
38.0092 -0.111
38.0395 0.144
38.0698 0.138
38.1001 0.080
38.1304 0.335
38.1606 0.225
38.1909 0.116
38.2212 0.371
38.2515 0.053
38.2817 -0.056
38.3120 0.304
38.3423 0.091
38.3726 0.087
38.4029 0.083
38.4331 0.183
38.4634 0.387
38.4937 0.175
38.5240 0.015
38.5543 -0.092
38.5845 -0.096
38.6148 0.006
38.6451 -0.050
38.6754 0.000
38.7056 0.101
38.7359 0.047
38.7662 0.096
38.7965 0.094
38.8268 0.092
38.8570 0.090
38.8873 -0.224
38.9176 -0.017
38.9479 0.190
38.9782 0.085
39.0084 -0.021
39.0387 -0.022
39.0690 0.082
39.0993 -0.075
39.1295 0.133
39.1598 0.028
39.1901 0.080
39.2204 -0.076
39.2507 0.133
39.2809 -0.127
39.3112 -0.074
39.3415 0.083
39.3718 0.136
39.4021 0.137
39.4323 0.087
39.4626 0.088
39.4929 0.038
39.5232 -0.116
39.5534 -0.010
39.5837 0.409
39.6140 -0.109
39.6443 -0.159
39.6746 0.261
39.7048 0.055
39.7351 -0.046
39.7654 0.270
39.7957 0.326
39.8260 -0.243
39.8562 -0.083
39.8865 0.441
39.9168 0.081
39.9471 0.189
39.9773 0.246
40.0076 0.094
40.0379 -0.161
40.0682 0.208
40.0985 0.161
40.1287 0.375
40.1590 0.276
40.1893 0.073
40.2196 0.287
40.2499 -0.020
40.2801 0.247
40.3104 0.097
40.3407 -0.105
40.3710 -0.158
40.4012 0.206
40.4315 -0.054
40.4618 0.258
40.4921 0.258
40.5224 0.102
40.5526 0.467
40.5829 0.155
40.6132 -0.104
40.6435 -0.156
40.6738 0.100
40.7040 0.148
40.7343 0.196
40.7646 -0.016
40.7949 0.241
40.8251 -0.127
40.8554 0.234
40.8857 0.179
40.9160 0.333
40.9463 0.017
40.9765 0.119
41.0068 0.064
41.0371 0.114
41.0674 0.216
41.0977 0.110
41.1279 0.317
41.1582 -0.102
41.1885 0.157
41.2188 0.104
41.2491 -0.001
41.2793 0.258
41.3096 0.205
41.3399 0.309
41.3702 0.048
41.4004 0.099
41.4307 0.047
41.4610 0.099
41.4913 0.151
41.5216 0.151
41.5518 -0.004
41.5821 -0.004
41.6124 0.205
41.6427 0.050
41.6730 0.051
41.7032 -0.104
41.7335 -0.001
41.7638 -0.053
41.7941 0.051
41.8243 0.207
41.8546 0.363
41.8849 0.312
41.9152 -0.053
41.9455 -0.104
41.9757 0.101
42.0060 0.255
42.0363 0.096
42.0666 0.406
42.0969 -0.013
42.1271 0.193
42.1574 0.243
42.1877 -0.019
42.2180 0.084
42.2482 0.238
42.2785 0.289
42.3088 0.080
42.3391 0.079
42.3694 0.182
42.3996 0.233
42.4299 -0.132
42.4602 0.024
42.4905 0.076
42.5208 0.076
42.5510 -0.185
42.5813 0.024
42.6116 0.129
42.6419 0.337
42.6721 0.026
42.7024 -0.078
42.7327 -0.025
42.7630 0.081
42.7933 -0.074
42.8235 -0.021
42.8538 0.242
42.8841 -0.069
42.9144 0.193
42.9447 0.143
42.9749 -0.063
43.0052 0.044
43.0355 -0.006
43.0658 -0.055
43.0960 -0.104
43.1263 0.102
43.1566 0.152
43.1869 0.202
43.2172 0.096
43.2474 0.095
43.2777 0.041
43.3080 -0.116
43.3383 0.091
43.3686 0.090
43.3988 0.141
43.4291 0.037
43.4594 0.192
43.4897 -0.068
43.5199 0.192
43.5502 0.088
43.5805 0.088
43.6108 0.244
43.6411 -0.016
43.6713 0.037
43.7016 0.090
43.7319 0.143
43.7622 0.040
43.7925 -0.167
43.8227 0.043
43.8530 0.200
43.8833 -0.110
43.9136 0.100
43.9439 -0.002
43.9741 -0.104
44.0044 0.000
44.0347 0.000
44.0650 -0.104
44.0952 -0.105
44.1255 0.310
44.1558 0.257
44.1861 0.100
44.2164 0.256
44.2466 0.099
44.2769 0.203
44.3072 -0.006
44.3375 0.047
44.3678 0.047
44.3980 -0.109
44.4283 0.152
44.4586 -0.004
44.4889 0.257
44.5191 0.362
44.5494 0.051
44.5797 0.104
44.6100 -0.050
44.6403 0.264
44.6705 0.265
44.7008 0.007
44.7311 -0.095
44.7614 0.220
44.7917 -0.195
44.8219 -0.036
44.8522 0.123
44.8825 0.074
44.9128 -0.132
44.9430 -0.086
44.9733 0.168
45.0036 -0.046
45.0339 0.261
45.0642 0.255
45.0944 0.093
45.1247 0.452
45.1550 0.030
45.1853 0.077
45.2156 -0.032
45.2458 0.120
45.2761 -0.041
45.3064 -0.045
45.3367 0.002
45.3669 0.102
45.3972 0.150
45.4275 0.147
45.4578 -0.013
45.4881 -0.017
45.5183 0.188
45.5486 -0.023
45.5789 0.130
45.6092 -0.186
45.6395 0.072
45.6697 0.070
45.7000 0.015
45.7303 0.117
45.7606 0.011
45.7908 0.113
45.8211 0.215
45.8514 0.110
45.8817 0.108
45.9120 -0.154
45.9422 -0.054
45.9725 -0.059
46.0028 -0.115
46.0331 -0.067
46.0634 0.085
46.0936 -0.076
46.1239 -0.079
46.1542 0.073
46.1845 0.070
46.2147 0.171
46.2450 -0.041
46.2753 -0.096
46.3056 0.005
46.3359 -0.154
46.3661 0.050
46.3964 -0.006
46.4267 -0.062
46.4570 -0.118
46.4873 -0.017
46.5175 0.084
46.5478 -0.128
46.5781 -0.131
46.6084 -0.030
46.6386 -0.085
46.6689 0.225
46.6992 -0.090
46.7295 -0.092
46.7598 -0.094
46.7900 0.164
46.8203 -0.202
46.8506 0.161
46.8809 0.159
46.9112 0.054
46.9414 -0.104
46.9717 -0.105
47.0020 0.051
47.0323 0.310
47.0626 -0.003
47.0928 -0.055
47.1231 -0.056
47.1534 0.100
47.1837 0.101
47.2139 -0.003
47.2442 0.257
47.2745 0.206
47.3048 0.363
47.3351 -0.157
47.3653 0.208
47.3956 0.157
47.4259 0.159
47.4562 0.264
47.4865 -0.099
47.5167 0.268
47.5470 0.165
47.5773 0.480
47.6076 0.274
47.6378 0.068
47.6681 0.487
47.6984 0.073
47.7287 0.024
47.7590 0.287
47.7892 0.082
47.8195 0.138
47.8498 0.245
47.8801 -0.011
47.9104 -0.268
47.9406 0.517
47.9709 0.157
48.0012 0.057
48.0315 0.009
48.0617 0.118
48.0920 0.123
48.1223 0.076
48.1526 -0.128
48.1829 -0.078
48.2131 0.023
48.2434 0.177
48.2737 -0.034
48.3040 0.016
48.3343 0.431
48.3645 0.064
48.3948 0.062
48.4251 0.009
48.4554 0.216
48.4856 -0.098
48.5159 0.213
48.5462 -0.204
48.5765 0.107
48.6068 -0.154
48.6370 -0.055
48.6673 0.148
48.6976 -0.014
48.7279 -0.071
48.7582 0.080
48.7884 -0.029
48.8187 -0.034
48.8490 0.118
48.8793 0.269
48.9095 0.421
48.9398 0.313
48.9701 -0.055
49.0004 -0.059
49.0307 -0.323
49.0609 0.350
49.0912 -0.122
49.1215 0.083
49.1518 0.080
49.1821 -0.027
49.2123 -0.134
49.2426 0.124
49.2729 0.070
49.3032 -0.141
49.3334 0.066
49.3637 0.376
49.3940 -0.146
49.4243 0.164
49.4546 0.371
49.4848 -0.047
49.5151 0.213
49.5454 0.003
49.5757 -0.154
49.6060 0.106
49.6362 0.106
49.6665 0.053
49.6968 0.105
49.7271 0.053
49.7574 -0.103
49.7876 -0.051
49.8179 0.106
49.8482 -0.206
49.8785 -0.051
49.9087 0.314
49.9390 0.053
49.9693 -0.052
49.9996 -0.052
50.0299 0.105
50.0601 0.001
50.0904 -0.051
50.1207 0.158
50.1510 -0.154
50.1813 -0.106
50.2115 -0.109
50.2418 0.304
50.2721 0.197
50.3024 -0.171
50.3326 0.139
50.3629 -0.020
50.3932 0.289
50.4235 0.131
50.4538 -0.028
50.4840 0.074
50.5143 0.280
50.5446 -0.086
50.5749 0.381
50.6052 -0.037
50.6354 0.222
50.6657 0.117
50.6960 0.324
50.7263 0.271
50.7565 0.114
50.7868 0.530
50.8171 0.009
50.8474 -0.044
50.8777 0.165
50.9079 0.165
50.9382 0.373
50.9685 0.217
50.9988 0.218
51.0291 0.114
51.0593 0.219
51.0896 -0.040
51.1199 0.274
51.1502 0.640
51.1804 0.537
51.2107 0.018
51.2410 0.072
51.2713 0.334
51.3016 0.492
51.3318 0.234
51.3621 0.184
51.3924 0.239
51.4227 -0.123
51.4530 0.297
51.4832 0.404
51.5135 -0.166
51.5438 0.150
51.5741 0.102
51.6043 0.105
51.6346 -0.099
51.6649 -0.147
51.6952 -0.144
51.7255 -0.037
51.7557 0.123
51.7860 -0.030
51.8163 0.026
51.8466 0.342
51.8769 0.086
51.9071 0.298
51.9374 0.094
51.9677 -0.005
51.9980 0.156
52.0282 0.160
52.0585 0.269
52.0888 0.170
52.1191 0.280
52.1494 0.025
52.1796 -0.022
52.2099 0.297
52.2402 -0.010
52.2705 0.152
52.3008 0.158
52.3310 0.061
52.3613 0.119
52.3916 0.126
52.4219 -0.128
52.4521 -0.128
52.4824 0.024
52.5127 0.176
52.5430 0.068
52.5733 0.273
52.6035 0.061
52.6338 0.005
52.6641 -0.103
52.6944 -0.054
52.7247 0.099
52.7549 0.201
52.7852 -0.167
52.8155 -0.013
52.8458 0.141
52.8761 -0.070
52.9063 -0.124
52.9366 0.082
52.9669 -0.076
52.9972 -0.130
53.0274 0.025
53.0577 0.128
53.0880 -0.030
53.1183 -0.031
53.1486 0.541
53.1788 -0.084
53.2091 0.540
53.2394 0.019
53.2697 -0.138
53.3000 -0.138
53.3302 -0.138
53.3605 0.071
53.3908 0.175
53.4211 -0.241
53.4513 0.332
53.4816 0.229
53.5119 -0.031
53.5422 -0.082
53.5725 -0.237
53.6027 0.338
53.6330 0.235
53.6633 0.289
53.6936 -0.230
53.7239 -0.124
53.7541 -0.122
53.7844 -0.120
53.8147 -0.117
53.8450 -0.115
53.8752 -0.008
53.9055 -0.109
53.9358 0.050
53.9661 0.106
53.9964 0.213
54.0266 0.373
54.0569 0.168
54.0872 0.277
54.1175 0.333
54.1478 0.024
54.1780 -0.128
54.2083 -0.074
54.2386 -0.073
54.2689 0.137
54.2991 0.138
54.3294 0.088
54.3597 0.402
54.3900 0.092
54.4203 0.250
54.4505 -0.112
54.4808 0.046
54.5111 -0.107
54.5414 0.104
54.5717 -0.258
54.6019 -0.047
54.6322 0.269
54.6625 0.220
54.6928 -0.038
54.7230 0.382
54.7533 0.229
54.7836 0.077
54.8139 0.289
54.8442 0.293
54.8744 0.349
54.9047 -0.011
54.9350 0.097
54.9653 0.154
54.9956 0.002
55.0258 0.059
55.0561 0.117
55.0864 -0.087
55.1167 0.023
55.1469 0.289
55.1772 -0.122
55.2075 0.040
55.2378 -0.006
55.2681 -0.104
55.2983 0.049
55.3286 0.151
55.3589 0.045
55.3892 0.095
55.4195 0.353
55.4497 0.039
55.4800 0.037
55.5103 0.035
55.5406 0.034
55.5709 0.189
55.6011 0.032
55.6314 0.239
55.6617 0.030
55.6920 0.029
55.7222 -0.023
55.7525 -0.023
55.7828 -0.024
55.8131 -0.076
55.8434 0.133
55.8736 -0.127
55.9039 -0.080
55.9342 -0.084
55.9645 0.381
55.9948 0.168
56.0250 -0.044
56.0553 0.317
56.0856 -0.051
56.1159 0.050
56.1461 0.255
56.1764 0.304
56.2067 0.353
56.2370 0.090
56.2673 0.348
56.2975 0.293
56.3278 0.083
56.3581 0.758
56.3884 0.235
56.4187 0.337
56.4489 0.336
56.4792 0.647
56.5095 0.593
56.5398 0.123
56.5700 0.539
56.6003 0.590
56.6306 0.069
56.6609 0.276
56.6912 0.276
56.7214 0.224
56.7517 0.328
56.7820 0.172
56.8123 0.224
56.8426 0.433
56.8728 0.121
56.9031 0.174
56.9334 0.227
56.9637 0.280
56.9939 -0.084
57.0242 -0.030
57.0545 0.023
57.0848 0.129
57.1151 0.131
57.1453 -0.127
57.1756 -0.075
57.2059 -0.075
57.2362 0.395
57.2665 -0.021
57.2967 -0.072
57.3270 -0.071
57.3573 0.347
57.3876 0.140
57.4178 0.037
57.4481 0.143
57.4784 0.145
57.5087 -0.061
57.5390 0.045
57.5692 0.256
57.5995 -0.106
57.6298 -0.103
57.6601 0.108
57.6904 -0.046
57.7206 0.010
57.7509 0.065
57.7812 -0.088
57.8115 0.072
57.8417 -0.028
57.8720 -0.076
57.9023 0.136
57.9326 0.297
57.9629 -0.011
57.9931 -0.059
58.0234 0.310
58.0537 -0.049
58.0840 0.060
58.1143 0.065
58.1445 0.018
58.1748 0.128
58.2051 -0.231
58.2354 -0.079
58.2656 0.126
58.2959 0.279
58.3262 0.067
58.3565 0.064
58.3868 -0.096
58.4170 -0.047
58.4473 -0.049
58.4776 -0.104
58.5079 -0.003
58.5382 -0.057
58.5684 0.045
58.5987 0.251
58.6290 -0.116
58.6593 0.038
58.6896 -0.015
58.7198 0.035
58.7501 -0.018
58.7804 0.033
58.8107 0.136
58.8409 -0.074
58.8712 -0.022
58.9015 -0.179
58.9318 0.080
58.9621 0.184
58.9923 -0.181
59.0226 0.027
59.0529 0.027
59.0832 -0.025
59.1135 0.027
59.1437 0.132
59.1740 -0.024
59.2043 -0.075
59.2346 -0.022
59.2648 -0.021
59.2951 -0.124
59.3254 0.294
59.3557 0.087
59.3860 0.037
59.4162 -0.014
59.4465 0.144
59.4768 -0.010
59.5071 -0.060
59.5374 -0.005
59.5676 -0.002
59.5979 0.052
59.6282 -0.153
59.6585 0.002
59.6887 0.002
59.7190 -0.051
59.7493 0.053
59.7796 0.261
59.8099 0.000
59.8401 0.053
59.8704 0.001
59.9007 0.001
59.9310 0.002
59.9613 0.054
59.9915 -0.205
60.0218 0.003
60.0521 0.004
60.0824 0.056
60.1126 0.004
60.1429 0.318
60.1732 -0.046
60.2035 0.059
60.2338 0.216
60.2640 -0.043
60.2943 0.271
60.3246 0.013
60.3549 0.171
60.3852 0.120
60.4154 0.175
60.4457 -0.031
60.4760 0.023
60.5063 0.182
60.5365 -0.076
60.5668 -0.073
60.5971 0.086
60.6274 0.038
60.6577 -0.063
60.6879 0.044
60.7182 0.048
60.7485 -0.156
60.7788 -0.052
60.8091 -0.104
60.8393 0.157
60.8696 0.210
60.8999 -0.050
60.9302 0.055
60.9604 0.056
60.9907 -0.099
61.0210 0.059
61.0513 0.060
61.0816 0.218
61.1118 0.012
61.1421 -0.090
61.1724 -0.092
61.2027 0.062
61.2330 0.216
61.2632 0.006
61.2935 0.109
61.3238 0.056
61.3541 0.107
61.3844 0.053
61.4146 0.157
61.4449 0.052
61.4752 -0.053
61.5055 -0.105
61.5357 -0.007
61.5660 -0.064
61.5963 -0.017
61.6266 -0.022
61.6569 -0.027
61.6871 -0.084
61.7174 0.016
61.7477 -0.040
61.7780 0.112
61.8083 0.108
61.8385 0.000
61.8688 -0.004
61.8991 0.045
61.9294 0.249
61.9596 -0.066
61.9899 0.139
62.0202 0.084
62.0505 -0.127
62.0808 -0.025
62.1110 -0.028
62.1413 0.231
62.1716 -0.032
62.2019 -0.033
62.2322 0.069
62.2624 0.380
62.2927 -0.090
62.3230 0.065
62.3533 0.221
62.3835 0.116
62.4138 0.532
62.4441 0.010
62.4744 0.062
62.5047 0.010
62.5349 0.218
62.5652 0.426
62.5955 0.375
62.6258 0.167
62.6561 0.063
62.6863 0.533
62.7166 0.481
62.7469 0.222
62.7772 0.692
62.8074 0.537
62.8377 0.070
62.8680 0.436
62.8983 0.230
62.9286 0.284
62.9588 0.338
62.9891 0.028
63.0194 0.082
63.0497 0.085
63.0800 -0.068
63.1102 0.091
63.1405 -0.062
63.1708 -0.007
63.2011 0.101
63.2313 0.000
63.2616 0.004
63.2919 0.372
63.3222 0.064
63.3525 -0.036
63.3827 -0.032
63.4130 0.025
63.4433 -0.231
63.4736 0.028
63.5039 0.183
63.5341 0.025
63.5644 -0.080
63.5947 -0.081
63.6250 -0.030
63.6552 0.126
63.6855 0.178
63.7158 0.021
63.7461 -0.031
63.7764 0.073
63.8066 -0.031
63.8369 -0.030
63.8672 -0.030
63.8975 -0.081
63.9278 0.024
63.9580 -0.132
63.9883 -0.028
64.0186 -0.027
64.0489 0.129
64.0791 -0.027
64.1094 -0.026
64.1397 0.183
64.1700 -0.129
64.2003 0.028
64.2305 -0.023
64.2608 0.031
64.2911 0.189
64.3214 -0.122
64.3517 0.036
64.3819 -0.066
64.4122 0.092
64.4425 0.250
64.4728 0.305
64.5031 0.099
64.5333 -0.002
64.5636 0.157
64.5939 0.004
64.6242 0.111
64.6544 0.010
64.6847 -0.090
64.7150 -0.090
64.7453 -0.040
64.7756 0.062
64.8058 0.060
64.8361 0.059
64.8664 -0.151
64.8967 0.056
64.9270 0.003
64.9572 0.002
64.9875 -0.051
65.0178 0.000
65.0481 0.000
65.0783 -0.001
65.1086 -0.001
65.1389 0.051
65.1692 -0.053
65.1995 -0.001
65.2297 -0.156
65.2600 -0.004
65.2903 0.148
65.3206 -0.012
65.3509 -0.067
65.3811 0.086
65.4114 -0.074
65.4417 0.340
65.4720 0.024
65.5022 0.126
65.5325 0.019
65.5628 -0.140
65.5931 0.066
65.6234 0.169
65.6536 -0.146
65.6839 -0.044
65.7142 0.111
65.7445 0.214
65.7748 0.473
65.8050 0.003
65.8353 -0.050
65.8656 -0.051
65.8959 0.053
65.9261 0.052
65.9564 0.052
65.9867 -0.001
66.0170 -0.001
66.0473 0.260
66.0775 -0.052
66.1078 -0.104
66.1381 0.051
66.1684 0.258
66.1987 0.204
66.2289 0.099
66.2592 0.150
66.2895 0.097
66.3198 0.149
66.3500 0.097
66.3803 -0.060
66.4106 0.096
66.4409 0.096
66.4712 0.253
66.5014 0.097
66.5317 0.045
66.5620 0.463
66.5923 -0.214
66.6226 -0.056
66.6528 -0.055
66.6831 -0.002
66.7134 0.000
66.7437 0.001
66.7739 -0.205
66.8042 0.057
66.8345 -0.097
66.8648 0.114
66.8951 0.220
66.9253 0.014
66.9556 -0.035
66.9859 -0.136
67.0162 0.231
67.0465 0.130
67.0767 -0.075
67.1070 -0.019
67.1373 0.140
67.1676 0.040
67.1978 -0.060
67.2281 0.465
67.2584 -0.052
67.2887 -0.047
67.3190 0.061
67.3492 -0.090
67.3795 -0.252
67.4098 0.263
67.4401 0.205
67.4704 -0.009
67.5006 -0.119
67.5309 0.084
67.5612 0.288
67.5915 -0.030
67.6218 -0.034
67.6520 0.169
67.6823 0.321
67.7126 0.265
67.7429 0.156
67.7731 0.569
67.8034 0.409
67.8337 0.197
67.8640 0.454
67.8943 -0.018
67.9245 0.395
67.9548 0.132
67.9851 0.598
68.0154 0.231
68.0457 0.072
68.0759 0.226
68.1062 0.067
68.1365 0.117
68.1668 -0.093
68.1970 0.009
68.2273 0.112
68.2576 -0.098
68.2879 0.422
68.3182 -0.100
68.3484 -0.153
68.3787 0.157
68.4090 0.155
68.4393 0.153
68.4696 -0.109
68.4998 -0.006
68.5301 -0.060
68.5604 0.043
68.5907 -0.010
68.6209 -0.063
68.6512 0.041
68.6815 0.613
68.7118 -0.116
68.7421 0.144
68.7723 0.196
68.8026 -0.065
68.8329 -0.116
68.8632 -0.064
68.8935 0.093
68.9237 0.094
68.9540 -0.166
68.9843 0.096
69.0146 -0.007
69.0448 -0.005
69.0751 0.100
69.1054 -0.106
69.1357 -0.104
69.1660 -0.102
69.1962 -0.100
69.2265 -0.045
69.2568 0.217
69.2871 0.272
69.3174 -0.142
69.3476 -0.086
69.3779 0.073
69.4082 -0.132
69.4385 0.132
69.4687 -0.021
69.4990 -0.017
69.5293 -0.065
69.5596 -0.061
69.5899 0.152
69.6201 -0.104
69.6504 -0.100
69.6807 -0.043
69.7110 0.170
69.7413 -0.190
69.7715 -0.029
69.8018 -0.023
69.8321 -0.018
69.8624 -0.013
69.8926 -0.059
69.9229 -0.105
69.9532 0.004
69.9835 0.165
70.0138 0.014
70.0440 -0.085
70.0743 0.025
70.1046 0.135
70.1349 0.140
70.1652 0.042
70.1954 0.100
70.2257 -0.102
70.2560 -0.095
70.2863 0.008
70.3166 0.060
70.3468 0.007
70.3771 -0.045
70.4074 0.111
70.4377 -0.149
70.4679 0.216
70.4982 0.060
70.5285 0.008
70.5588 -0.095
70.5891 -0.097
70.6193 0.110
70.6496 0.057
70.6799 -0.204
70.7102 0.055
70.7405 -0.049
70.7707 0.158
70.8010 0.106
70.8313 0.158
70.8616 0.106
70.8918 0.106
70.9221 -0.050
70.9524 0.055
70.9827 0.211
71.0130 -0.048
71.0432 -0.152
71.0735 0.058
71.1038 -0.097
71.1341 -0.096
71.1644 0.166
71.1946 0.012
71.2249 0.066
71.2552 -0.037
71.2855 -0.087
71.3157 -0.091
71.3460 0.061
71.3763 0.056
71.4066 0.104
71.4369 0.048
71.4671 -0.008
71.4974 -0.064
71.5277 0.089
71.5580 -0.019
71.5883 0.030
71.6185 0.131
71.6488 0.233
71.6791 0.021
71.7094 -0.033
71.7396 0.069
71.7699 0.014
71.8002 -0.092
71.8305 0.010
71.8608 -0.148
71.8910 0.007
71.9213 -0.099
71.9516 -0.048
71.9819 0.419
72.0122 0.054
72.0424 0.001
72.0727 -0.208
72.1030 -0.001
72.1333 -0.002
72.1635 -0.055
72.1938 -0.056
72.2241 0.100
72.2544 -0.056
72.2847 -0.005
72.3149 0.100
72.3452 -0.004
72.3755 -0.004
72.4058 0.101
72.4361 -0.003
72.4663 -0.002
72.4966 -0.001
72.5269 -0.104
72.5572 -0.002
72.5874 -0.056
72.6177 -0.058
72.6480 -0.112
72.6783 0.147
72.7086 0.042
72.7388 -0.012
72.7691 -0.013
72.7994 0.038
72.8297 -0.014
72.8600 0.037
72.8902 0.089
72.9205 -0.068
72.9508 0.089
72.9811 -0.120
73.0113 0.037
73.0416 0.246
73.0719 -0.118
73.1022 -0.014
73.1325 0.039
73.1627 -0.012
73.1930 0.094
73.2233 0.043
73.2536 0.044
73.2839 -0.110
73.3141 -0.004
73.3444 -0.002
73.3747 -0.208
73.4050 0.001
73.4353 0.054
73.4655 -0.101
73.4958 0.005
73.5261 0.110
73.5564 -0.096
73.5866 0.010
73.6169 0.064
73.6472 0.014
73.6775 0.016
73.7078 -0.085
73.7380 -0.135
73.7683 0.076
73.7986 0.027
73.8289 0.030
73.8592 -0.070
73.8894 0.350
73.9197 0.041
73.9500 0.305
73.9803 -0.108
74.0105 0.209
74.0408 -0.047
74.0711 -0.095
74.1014 -0.047
74.1317 -0.052
74.1619 0.048
74.1922 0.201
74.2225 -0.116
74.2528 0.089
74.2831 -0.018
74.3133 0.030
74.3436 0.027
74.3739 -0.080
74.4042 0.125
74.4344 0.019
74.4647 0.120
74.4950 -0.090
74.5253 -0.093
74.5556 0.114
74.5858 0.112
74.6161 -0.150
74.6464 -0.048
74.6767 -0.049
74.7070 0.054
74.7372 0.001
74.7675 -0.053
74.7978 -0.105
74.8281 -0.001
74.8583 0.051
74.8886 0.051
74.9189 0.260
74.9492 0.052
74.9795 0.105
75.0097 0.210
75.0400 -0.206
75.0703 0.004
75.1006 0.005
75.1309 -0.046
75.1611 -0.044
75.1914 0.062
75.2217 -0.092
75.2520 -0.090
75.2822 -0.040
75.3125 0.010
75.3428 0.113
75.3731 0.007
75.4034 -0.099
75.4336 -0.048
75.4639 0.003
75.4942 0.002
75.5245 0.210
75.5548 -0.103
75.5850 0.261
75.6153 0.104
75.6456 0.000
75.6759 -0.104
75.7061 -0.003
75.7364 0.150
75.7667 0.096
75.7970 -0.115
75.8273 0.143
75.8575 -0.119
75.8878 0.139
75.9181 0.033
75.9484 0.136
75.9787 -0.022
76.0089 -0.023
76.0392 -0.077
76.0695 -0.026
76.0998 -0.026
76.1301 0.025
76.1603 -0.080
76.1906 -0.080
76.2209 -0.028
76.2512 -0.028
76.2814 -0.080
76.3117 0.024
76.3420 -0.184
76.3723 -0.028
76.4026 -0.132
76.4328 0.129
76.4631 0.233
76.4934 0.077
76.5237 0.026
76.5540 0.131
76.5842 -0.129
76.6145 -0.024
76.6448 -0.283
76.6751 0.079
76.7053 -0.028
76.7356 0.022
76.7659 0.228
76.7962 0.017
76.8265 -0.037
76.8567 0.117
76.8870 -0.197
76.9173 0.166
76.9476 -0.044
76.9779 -0.045
77.0081 0.006
77.0384 0.110
77.0687 0.161
77.0990 0.264
77.1292 0.056
77.1595 0.055
77.1898 -0.049
77.2201 -0.153
77.2504 0.107
77.2806 0.002
77.3109 0.002
77.3412 0.002
77.3715 0.002
77.4018 0.106
77.4320 0.002
77.4623 0.002
77.4926 0.055
77.5229 -0.048
77.5531 -0.100
77.5834 -0.098
77.6137 -0.097
77.6440 -0.096
77.6743 -0.094
77.7045 0.012
77.7348 0.066
77.7651 0.172
77.7954 -0.191
77.8257 -0.032
77.8559 0.075
77.8862 -0.079
77.9165 0.080
77.9468 0.135
77.9770 -0.122
78.0073 -0.067
78.0376 0.093
78.0679 0.044
78.0982 -0.004
78.1284 -0.104
78.1587 0.001
78.1890 0.002
78.2193 0.003
78.2496 0.005
78.2798 -0.202
78.3101 0.008
78.3404 0.062
78.3707 0.168
78.4009 -0.194
78.4312 0.068
78.4615 -0.189
78.4918 0.230
78.5221 -0.080
78.5523 -0.129
78.5826 0.024
78.6129 -0.031
78.6432 0.071
78.6735 0.016
78.7037 0.326
78.7340 0.011
78.7643 0.425
78.7946 0.059
78.8248 -0.047
78.8551 0.107
78.8854 0.314
78.9157 0.156
78.9460 -0.001
78.9762 0.050
79.0065 -0.055
79.0368 -0.004
79.0671 -0.005
79.0974 -0.161
79.1276 0.151
79.1579 0.046
79.1882 -0.058
79.2185 0.151
79.2488 0.099
79.2790 -0.005
79.3093 0.100
79.3396 0.205
79.3699 -0.054
79.4001 -0.105
79.4304 -0.002
79.4607 -0.003
79.4910 -0.004
79.5213 0.204
79.5515 0.099
79.5818 0.099
79.6121 0.047
79.6424 -0.005
79.6727 0.099
79.7029 -0.005
79.7332 -0.004
79.7635 0.153
79.7938 0.101
79.8240 0.102
79.8543 -0.001
79.8846 0.105
79.9149 -0.154
79.9452 0.108
79.9754 0.214
80.0057 0.216
80.0360 0.061
80.0663 -0.145
80.0966 -0.090
80.1268 0.067
80.1571 0.068
80.1874 0.018
80.2177 0.176
80.2479 0.334
80.2782 0.127
80.3085 -0.027
80.3388 -0.129
80.3691 -0.030
80.3993 -0.036
80.4296 0.219
80.4599 0.110
80.4902 0.000
80.5205 0.152
80.5507 0.043
80.5810 0.350
80.6113 0.138
80.6416 -0.023
80.6718 0.389
80.7021 -0.031
80.7324 -0.035
80.7627 0.065
80.7930 0.166
80.8232 -0.046
80.8535 -0.049
80.8838 -0.104
80.9141 -0.057
80.9444 0.147
80.9746 0.195
81.0049 0.035
81.0352 0.136
81.0655 -0.129
81.0957 0.076
81.1260 0.073
81.1563 0.226
81.1866 0.119
81.2169 -0.145
81.2471 0.217
81.2774 -0.150
81.3077 0.160
81.3380 -0.155
81.3683 0.260
81.3985 0.466
81.4288 -0.004
81.4591 0.098
81.4894 -0.059
81.5196 0.043
81.5499 -0.062
81.5802 -0.063
81.6105 -0.012
81.6408 -0.116
81.6710 -0.064
81.7013 -0.116
81.7316 -0.012
81.7619 -0.116
81.7922 -0.013
81.8224 -0.221
81.8527 0.143
81.8830 -0.117
81.9133 -0.065
81.9436 -0.116
81.9738 0.040
82.0041 -0.063
82.0344 -0.010
82.0647 0.096
82.0949 -0.111
82.1252 0.098
82.1555 0.204
82.1858 -0.159
82.2161 -0.053
82.2463 -0.050
82.2766 0.108
82.3069 -0.046
82.3372 0.061
82.3675 -0.093
82.3977 0.067
82.4280 -0.087
82.4583 0.125
82.4886 -0.080
82.5188 0.080
82.5491 0.031
82.5794 -0.121
82.6097 0.039
82.6400 0.043
82.6702 0.100
82.7005 -0.104
82.7308 -0.051
82.7611 -0.103
82.7914 -0.049
82.8216 0.004
82.8519 0.266
82.8822 -0.045
82.9125 0.269
82.9427 -0.042
82.9730 0.168
83.0033 -0.090
83.0336 0.016
83.0639 -0.033
83.0941 0.021
83.1244 -0.028
83.1547 -0.025
83.1850 -0.022
83.2153 -0.019
83.2455 -0.067
83.2758 0.040
83.3061 0.096
83.3364 -0.004
83.3666 -0.156
83.3969 -0.001
83.4272 -0.001
83.4575 -0.106
83.4878 0.258
83.5180 0.102
83.5483 -0.106
83.5786 0.207
83.6089 0.155
83.6392 -0.053
83.6694 -0.156
83.6997 0.049
83.7300 -0.110
83.7603 0.096
83.7905 0.302
83.8208 -0.013
83.8511 0.089
83.8814 -0.069
83.9117 -0.019
83.9419 -0.020
83.9722 -0.022
84.0025 -0.023
84.0328 0.184
84.0631 0.183
84.0933 0.130
84.1236 -0.027
84.1539 -0.079
84.1842 0.077
84.2144 0.076
84.2447 0.076
84.2750 0.076
84.3053 -0.184
84.3356 -0.081
84.3658 0.439
84.3961 0.230
84.4264 -0.031
84.4567 0.072
84.4870 -0.032
84.5172 -0.033
84.5475 -0.085
84.5778 0.072
84.6081 -0.032
84.6383 0.228
84.6686 -0.084
84.6989 -0.031
84.7292 -0.030
84.7595 -0.029
84.7897 0.024
84.8200 -0.027
84.8503 0.027
84.8806 0.029
84.9109 -0.022
84.9411 0.189
84.9714 -0.018
85.0017 0.141
85.0320 -0.117
85.0623 0.302
85.0925 0.305
85.1228 -0.005
85.1531 0.207
85.1834 -0.207
85.2136 0.317
85.2439 0.008
85.2742 0.116
85.3045 0.016
85.3348 0.124
85.3650 0.024
85.3953 0.028
85.4256 0.085
85.4559 0.037
85.4862 0.042
85.5164 -0.005
85.5467 0.208
85.5770 0.109
85.6073 0.063
85.6375 0.120
85.6678 0.074
85.6981 0.028
85.7284 0.190
85.7587 0.092
85.7889 0.046
85.8192 0.209
85.8495 0.008
85.8798 -0.090
85.9101 -0.148
85.9403 0.107
85.9706 0.050
86.0009 0.096
86.0312 0.039
86.0614 0.242
86.0917 0.081
86.1220 0.129
86.1523 0.072
86.1826 -0.036
86.2128 0.011
86.2431 0.059
86.2734 0.108
86.3037 0.052
86.3340 0.152
86.3642 -0.059
86.3945 0.042
86.4248 -0.118
86.4551 0.244
86.4853 0.137
86.5156 0.030
86.5459 0.028
86.5762 -0.027
86.6065 -0.029
86.6367 -0.083
86.6670 0.019
86.6973 0.070
86.7276 0.016
86.7579 -0.037
86.7881 0.065
86.8184 0.117
86.8487 -0.041
86.8790 0.011
86.9092 0.010
86.9395 0.166
86.9698 -0.095
87.0001 -0.043
87.0304 0.009
87.0606 0.009
87.0909 0.010
87.1212 0.115
87.1515 0.271
87.1818 0.168
87.2120 0.013
87.2423 -0.090
87.2726 -0.093
87.3029 0.164
87.3331 0.317
87.3634 -0.050
87.3937 0.051
87.4240 -0.055
87.4543 0.046
87.4845 -0.008
87.5148 0.146
87.5451 0.092
87.5754 -0.013
87.6057 0.037
87.6359 0.036
87.6662 0.034
87.6965 0.085
87.7268 -0.020
87.7571 0.084
87.7873 -0.073
87.8176 0.239
87.8479 -0.074
87.8782 -0.022
87.9084 0.134
87.9387 0.030
87.9690 -0.021
87.9993 -0.073
88.0296 -0.072
88.0598 0.189
88.0901 0.138
88.1204 0.347
88.1507 -0.120
88.1810 0.090
88.2112 -0.117
88.2415 -0.011
88.2718 0.043
88.3021 -0.111
88.3323 -0.005
88.3626 -0.003
88.3929 -0.208
88.4232 -0.003
88.4535 -0.058
88.4837 -0.009
88.5140 -0.012
88.5443 0.038
88.5746 0.140
88.6049 -0.071
88.6351 -0.073
88.6654 -0.231
88.6957 0.130
88.7260 0.179
88.7562 -0.033
88.7865 -0.088
88.8168 -0.039
88.8471 0.063
88.8774 0.060
88.9076 -0.202
88.9379 0.212
88.9682 -0.050
88.9985 -0.104
89.0288 0.206
89.0590 -0.004
89.0893 -0.057
89.1196 0.150
89.1499 0.045
89.1801 -0.165
89.2104 0.043
89.2407 -0.062
89.2710 -0.063
89.3013 -0.063
89.3315 0.093
89.3618 -0.063
89.3921 0.249
89.4224 0.041
89.4527 0.042
89.4829 0.251
89.5132 -0.113
89.5435 0.044
89.5738 -0.059
89.6040 0.046
89.6343 -0.004
89.6646 0.049
89.6949 -0.053
89.7252 0.001
89.7554 -0.049
89.7857 0.318
89.8160 0.216
89.8463 -0.146
89.8766 0.012
89.9068 0.015
89.9371 -0.034
89.9674 0.021
89.9977 -0.184
90.0279 -0.026
90.0582 -0.025
90.0885 -0.024
90.1188 -0.022
90.1491 -0.020
90.1793 0.086
90.2096 -0.120
90.2399 -0.066
90.2702 0.093
90.3005 -0.009
90.3307 0.098
90.3610 -0.003
90.3913 -0.104
90.4216 0.003
90.4518 0.163
90.4821 -0.146
90.5124 0.015
90.5427 0.019
90.5730 0.023
90.6032 -0.129
90.6335 -0.081
90.6638 0.071
90.6941 0.015
90.7244 0.011
90.7546 -0.045
90.7849 0.056
90.8152 0.001
90.8455 0.102
90.8758 0.046
90.9060 -0.113
90.9363 -0.011
90.9666 -0.014
90.9969 0.036
91.0271 -0.019
91.0574 0.240
91.0877 -0.127
91.1180 -0.024
91.1483 0.026
91.1785 -0.184
91.2088 -0.028
91.2391 -0.028
91.2694 -0.029
91.2997 0.180
91.3299 0.023
91.3602 0.024
91.3905 0.076
91.4208 -0.079
91.4510 -0.027
91.4813 -0.026
91.5116 0.236
91.5419 -0.076
91.5722 0.134
91.6024 0.031
91.6327 -0.123
91.6630 0.087
91.6933 0.037
91.7236 0.039
91.7538 -0.011
91.7841 0.148
91.8144 -0.110
91.8447 -0.003
91.8749 -0.156
91.9052 -0.003
91.9355 -0.109
91.9658 0.097
91.9961 0.043
92.0263 -0.010
92.0566 -0.012
92.0869 0.039
92.1172 0.090
92.1475 -0.016
92.1777 0.035
92.2080 -0.017
92.2383 0.086
92.2686 0.033
92.2988 0.033
92.3291 -0.071
92.3594 0.085
92.3897 0.085
92.4200 -0.071
92.4502 0.086
92.4805 0.035
92.5108 -0.017
92.5411 0.088
92.5714 -0.015
92.6016 -0.118
92.6319 0.092
92.6622 -0.115
92.6925 0.095
92.7227 -0.007
92.7530 0.047
92.7833 0.206
92.8136 -0.052
92.8439 0.106
92.8741 -0.047
92.9044 0.164
92.9347 0.011
92.9650 -0.090
92.9953 -0.094
93.0255 0.060
93.0558 0.109
93.0861 0.262
93.1164 -0.001
93.1466 0.205
93.1769 -0.006
93.2072 -0.008
93.2375 -0.063
93.2678 0.092
93.2980 -0.066
93.3283 -0.016
93.3586 -0.121
93.3889 0.138
93.4192 0.137
93.4494 -0.125
93.4797 -0.074
93.5100 0.082
93.5403 -0.179
93.5706 -0.027
93.6008 0.230
93.6311 -0.034
93.6614 -0.090
93.6917 0.011
93.7219 -0.044
93.7522 -0.047
93.7825 -0.154
93.8128 0.259
93.8431 0.049
93.8733 -0.058
93.9036 -0.008
93.9339 -0.167
93.9642 0.248
93.9945 -0.118
94.0247 -0.016
94.0550 0.139
94.0853 0.033
94.1156 0.136
94.1458 0.187
94.1761 -0.074
94.2064 0.082
94.2367 -0.283
94.2670 -0.023
94.2972 0.030
94.3275 -0.074
94.3578 -0.021
94.3881 -0.072
94.4184 -0.071
94.4486 -0.122
94.4789 0.191
94.5092 -0.015
94.5395 0.038
94.5697 0.196
94.6000 0.094
94.6303 0.200
94.6606 -0.110
94.6909 0.205
94.7211 0.260
94.7514 -0.206
94.7817 0.109
94.8120 -0.044
94.8423 0.115
94.8725 0.014
94.9028 -0.190
94.9331 0.334
94.9634 -0.027
94.9936 -0.127
95.0239 0.081
95.0542 -0.127
95.0845 -0.025
95.1148 0.076
95.1450 0.334
95.1753 0.019
95.2056 0.017
95.2359 -0.037
95.2662 -0.143
95.2964 0.115
95.3267 0.009
95.3570 0.008
95.3873 0.059
95.4175 0.266
95.4478 0.005
95.4781 0.004
95.5084 -0.257
95.5387 0.053
95.5689 0.311
95.5992 0.100
95.6295 -0.006
95.6598 0.044
95.6901 0.042
95.7203 -0.064
95.7506 0.143
95.7809 -0.119
95.8112 0.140
95.8414 0.035
95.8717 -0.070
95.9020 0.138
95.9323 -0.071
95.9626 -0.019
95.9928 0.032
96.0231 0.136
96.0534 -0.072
96.0837 0.033
96.1140 0.085
96.1442 0.138
96.1745 -0.018
96.2048 -0.069
96.2351 -0.068
96.2653 0.037
96.2956 -0.066
96.3259 0.196
96.3562 0.146
96.3865 0.043
96.4167 -0.007
96.4470 0.099
96.4773 -0.002
96.5076 -0.104
96.5379 -0.051
96.5681 -0.050
96.5984 -0.205
96.6287 0.106
96.6590 0.366
96.6893 0.053
96.7195 -0.052
96.7498 0.051
96.7801 -0.105
96.8104 0.051
96.8406 0.207
96.8709 -0.001
96.9012 0.052
96.9315 -0.104
96.9618 -0.054
96.9920 0.048
97.0223 -0.007
97.0526 -0.008
97.0829 0.094
97.1132 -0.064
97.1434 -0.065
97.1737 -0.067
97.2040 0.089
97.2343 -0.017
97.2645 -0.069
97.2948 -0.018
97.3251 -0.070
97.3554 0.450
97.3857 -0.019
97.4159 -0.123
97.4462 0.450
97.4765 0.138
97.5068 0.086
97.5371 0.399
97.5673 0.036
97.5976 0.245
97.6279 0.038
97.6582 0.351
97.6884 0.197
97.7187 -0.166
97.7490 0.252
97.7793 -0.111
97.8096 0.256
97.8398 0.154
97.8701 -0.104
97.9004 -0.104
97.9307 0.156
97.9610 -0.001
97.9912 0.103
98.0215 -0.054
98.0518 0.050
98.0821 -0.054
98.1123 -0.054
98.1426 -0.053
98.1729 0.051
98.2032 -0.104
98.2335 0.000
98.2637 0.104
98.2940 0.051
98.3243 0.104
98.3546 0.000
98.3849 -0.104
98.4151 -0.002
98.4454 -0.108
98.4757 0.255
98.5060 0.149
98.5362 -0.113
98.5665 -0.010
98.5968 -0.064
98.6271 -0.065
98.6574 0.143
98.6876 0.298
98.7179 -0.067
98.7482 -0.015
98.7785 0.037
98.8088 0.349
98.8390 0.245
98.8693 0.141
98.8996 -0.015
98.9299 0.038
98.9601 0.039
98.9904 -0.065
99.0207 0.197
99.0510 0.146
99.0813 -0.061
99.1115 0.149
99.1418 -0.006
99.1721 0.204
99.2024 0.154
99.2327 -0.104
99.2629 -0.104
99.2932 0.103
99.3235 0.050
99.3538 0.101
99.3841 -0.056
99.4143 -0.005
99.4446 0.047
99.4749 -0.058
99.5052 0.046
99.5354 0.151
99.5657 -0.006
99.5960 -0.057
99.6263 0.308
99.6566 0.100
99.6868 -0.003
99.7171 0.050
99.7474 -0.053
99.7777 -0.104
99.8080 -0.051
99.8382 -0.153
99.8685 0.109
99.8988 -0.045
99.9291 -0.043
99.9593 -0.041
99.9896 -0.039
100.0199 0.224
100.0502 -0.033
100.0805 0.074
100.1107 -0.132
100.1410 -0.084
100.1713 0.119
100.2016 0.271
100.2319 0.163
100.2621 0.211
100.2924 -0.106
100.3227 0.151
100.3530 -0.166
100.3832 0.196
100.4135 -0.068
100.4438 0.293
100.4741 0.186
100.5044 0.235
100.5346 0.128
100.5649 0.178
100.5952 -0.033
100.6255 -0.035
100.6558 0.119
100.6860 -0.091
100.7163 0.115
100.7466 0.166
100.7769 0.008
100.8071 0.006
100.8374 -0.047
100.8677 -0.100
100.8980 0.160
100.9283 -0.101
100.9585 0.106
100.9888 -0.102
101.0191 0.210
101.0494 0.106
101.0797 -0.050
101.1099 0.158
101.1402 0.211
101.1705 0.003
101.2008 0.212
101.2310 -0.100
101.2613 0.005
101.2916 0.007
101.3219 0.008
101.3522 0.218
101.3824 -0.093
101.4127 -0.039
101.4430 -0.089
101.4733 -0.035
101.5036 0.072
101.5338 -0.030
101.5641 0.077
101.5944 0.236
101.6247 0.030
101.6549 0.085
101.6852 -0.120
101.7155 0.248
101.7458 0.200
101.7761 0.360
101.8063 0.051
101.8366 0.003
101.8669 0.216
101.8972 0.064
101.9275 0.120
101.9577 0.177
101.9880 -0.027
102.0183 0.499
102.0486 0.140
102.0788 0.145
102.1091 -0.006
102.1394 -0.104
102.1697 -0.006
102.2000 0.248
102.2302 0.295
102.2605 0.081
102.2908 0.336
102.3211 0.279
102.3514 0.482
102.3816 0.217
102.4119 -0.048
102.4422 -0.001
102.4725 0.203
102.5028 -0.114
102.5330 -0.066
102.5633 0.087
102.5936 -0.125
102.6239 0.132
102.6541 -0.028
102.6844 0.333
102.7147 -0.035
102.7450 0.223
102.7753 -0.093
102.8055 0.113
102.8358 0.006
102.8661 -0.100
102.8964 0.002
102.9267 0.312
102.9569 -0.106
102.9872 0.100
103.0175 0.099
103.0478 0.097
103.0780 -0.112
103.1083 0.199
103.1386 0.146
103.1689 0.354
103.1992 0.093
103.2294 0.040
103.2597 0.092
103.2900 -0.116
103.3203 -0.066
103.3506 0.089
103.3808 -0.121
103.4111 0.034
103.4414 -0.071
103.4717 0.136
103.5019 -0.021
103.5322 -0.125
103.5625 0.187
103.5928 0.187
103.6231 0.082
103.6533 -0.022
103.6836 0.291
103.7139 0.031
103.7442 0.084
103.7745 -0.072
103.8047 -0.123
103.8350 0.295
103.8653 -0.121
103.8956 0.297
103.9258 -0.014
103.9561 -0.116
103.9864 -0.066
104.0167 0.036
104.0470 -0.018
104.0772 -0.019
104.1075 0.031
104.1378 -0.074
104.1681 0.133
104.1984 0.080
104.2286 0.132
104.2589 0.079
104.2892 -0.026
104.3195 0.078
104.3497 0.078
104.3800 0.182
104.4103 -0.078
104.4406 0.027
104.4709 0.132
104.5011 0.028
104.5314 -0.127
104.5617 0.026
104.5920 -0.185
104.6223 0.125
104.6525 -0.086
104.6828 -0.036
104.7131 0.170
104.7434 -0.040
104.7736 0.219
104.8039 -0.043
104.8342 -0.149
104.8645 0.318
104.8948 0.109
104.9250 -0.048
104.9553 -0.101
104.9856 0.002
105.0159 0.314
105.0462 -0.051
105.0764 0.053
105.1067 0.001
105.1370 -0.103
105.1673 -0.051
105.1975 0.262
105.2278 -0.050
105.2581 0.159
105.2884 0.004
105.3187 0.213
105.3489 -0.098
105.3792 0.112
105.4095 0.113
105.4398 -0.145
105.4701 0.013
105.5003 -0.142
105.5306 0.121
105.5609 0.175
105.5912 -0.082
105.6215 -0.184
105.6517 0.183
105.6820 0.030
105.7123 0.137
105.7426 -0.016
105.7728 0.040
105.8031 0.148
105.8334 0.203
105.8637 -0.053
105.8940 -0.205
105.9242 0.105
105.9545 0.050
105.9848 -0.056
106.0151 -0.006
106.0454 0.096
106.0756 -0.166
106.1059 0.145
106.1362 -0.065
106.1665 -0.066
106.1967 -0.068
106.2270 -0.069
106.2573 -0.069
106.2876 0.295
106.3179 0.398
106.3481 -0.071
106.3784 -0.019
106.4087 0.189
106.4390 -0.123
106.4693 0.138
106.4995 -0.018
106.5298 0.347
106.5601 0.244
106.5904 -0.068
106.6206 0.298
106.6509 -0.014
106.6812 -0.116
106.7115 0.040
106.7418 -0.116
106.7720 0.093
106.8023 0.146
106.8326 0.407
106.8629 0.199
106.8932 0.148
106.9234 0.098
106.9537 -0.005
106.9840 0.257
107.0143 0.050
107.0445 0.469
107.0748 0.158
107.1051 0.161
107.1354 -0.045
107.1657 0.113
107.1959 0.168
107.2262 0.171
107.2565 -0.086
107.2868 0.021
107.3171 0.337
107.3473 -0.077
107.3776 -0.021
107.4079 0.035
107.4382 0.091
107.4684 -0.061
107.4987 0.204
107.5290 0.104
107.5593 0.525
107.5896 0.113
107.6198 0.014
107.6501 0.123
107.6804 0.024
107.7107 -0.127
107.7410 0.023
107.7712 0.173
107.8015 0.167
107.8318 0.057
107.8621 0.051
107.8923 -0.059
107.9226 0.352
107.9529 0.191
107.9832 0.133
108.0135 -0.028
108.0437 0.228
108.0740 0.119
108.1043 -0.042
108.1346 0.058
108.1649 0.054
108.1951 0.258
108.2254 0.514
108.2557 0.354
108.2860 -0.118
108.3163 -0.017
108.3465 0.136
108.3768 0.080
108.4071 -0.079
108.4374 -0.082
108.4676 0.020
108.4979 0.017
108.5282 0.275
108.5585 0.065
108.5888 0.115
108.6190 0.009
108.6493 0.059
108.6796 0.006
108.7099 0.108
108.7402 0.159
108.7704 0.054
108.8007 -0.051
108.8310 -0.052
108.8613 -0.105
108.8915 0.207
108.9218 0.103
108.9521 -0.105
108.9824 -0.001
109.0127 -0.053
109.0429 0.051
109.0732 0.052
109.1035 0.261
109.1338 -0.103
109.1641 0.210
109.1943 -0.153
109.2246 -0.100
109.2549 0.214
109.2852 0.216
109.3154 -0.043
109.3457 -0.145
109.3760 0.169
109.4063 0.120
109.4366 0.122
109.4668 0.229
109.4971 0.023
109.5274 0.078
109.5577 -0.179
109.5880 -0.024
109.6182 -0.129
109.6485 0.235
109.6788 0.130
109.7091 0.129
109.7393 0.129
109.7696 -0.079
109.7999 -0.079
109.8302 -0.079
109.8605 -0.079
109.8907 0.286
109.9210 -0.130
109.9513 0.080
109.9816 0.081
110.0119 0.082
110.0421 -0.073
110.0724 0.032
110.1027 0.294
110.1330 -0.068
110.1632 0.038
110.1935 -0.116
110.2238 -0.015
110.2541 0.139
110.2844 0.293
110.3146 0.291
110.3449 0.029
110.3752 0.080
110.4055 0.234
110.4358 0.129
110.4660 0.128
110.4963 0.283
110.5266 -0.031
110.5569 -0.083
110.5871 -0.032
110.6174 0.124
110.6477 0.176
110.6780 0.436
110.7083 -0.033
110.7385 -0.032
110.7688 -0.084
110.7991 0.125
110.8294 0.230
110.8597 -0.030
110.8899 0.075
110.9202 -0.080
110.9505 0.234
110.9808 -0.025
111.0110 -0.179
111.0413 0.083
111.0716 -0.070
111.1019 0.037
111.1322 0.040
111.1624 0.459
111.1927 0.462
111.2230 -0.055
111.2533 0.053
111.2836 0.213
111.3138 -0.044
111.3441 0.064
111.3744 0.016
111.4047 -0.031
111.4350 0.077
111.4652 0.030
111.4955 0.243
111.5258 0.196
111.5561 -0.007
111.5863 0.050
111.6166 -0.153
111.6469 -0.003
111.6772 0.408
111.7075 0.090
111.7377 0.241
111.7680 -0.025
111.7983 0.231
111.8286 0.174
111.8589 0.273
111.8891 0.060
111.9194 0.212
111.9497 0.260
111.9800 0.152
112.0102 0.096
112.0405 -0.169
112.0708 0.088
112.1011 0.085
112.1314 -0.075
112.1616 0.234
112.1919 0.127
112.2222 0.020
112.2525 0.330
112.2828 -0.089
112.3130 -0.092
112.3433 0.114
112.3736 -0.252
112.4039 0.006
112.4341 -0.048
112.4644 -0.154
112.4947 0.103
112.5250 -0.057
112.5553 -0.060
112.5855 -0.116
112.6158 0.089
112.6461 0.034
112.6764 -0.073
112.7067 -0.128
112.7369 0.025
112.7672 0.178
112.7975 0.174
112.8278 0.015
112.8580 -0.041
112.8883 -0.044
112.9186 -0.047
112.9489 0.003
112.9792 -0.104
113.0094 0.206
113.0397 0.048
113.0700 -0.110
113.1003 -0.008
113.1306 -0.114
113.1608 0.145
113.1911 0.248
113.2214 -0.222
113.2517 0.141
113.2819 -0.120
113.3122 0.139
113.3425 -0.174
113.3728 0.190
113.4031 0.138
113.4333 -0.071
113.4636 -0.071
113.4939 0.086
113.5242 0.138
113.5545 -0.174
113.5847 0.191
113.6150 0.088
113.6453 -0.224
113.6756 0.142
113.7058 -0.065
113.7361 0.145
113.7664 -0.062
113.7967 -0.008
113.8270 -0.006
113.8572 0.048
113.8875 -0.106
113.9178 -0.104
113.9481 0.159
113.9784 -0.047
114.0086 -0.200
114.0389 0.220
114.0692 0.015
114.0995 0.122
114.1298 0.073
114.1600 0.077
114.1903 -0.128
114.2206 -0.127
114.2509 0.031
114.2811 -0.125
114.3114 0.398
114.3417 0.035
114.3720 0.245
114.4023 0.246
114.4325 -0.220
114.4628 0.146
114.4931 -0.216
114.5234 0.151
114.5537 -0.159
114.5839 -0.052
114.6142 0.055
114.6445 0.006
114.6748 0.113
114.7050 0.013
114.7353 0.068
114.7656 0.020
114.7959 0.076
114.8262 0.340
114.8564 -0.124
114.8867 0.088
114.9170 0.405
114.9473 0.254
114.9776 -0.002
115.0078 -0.153
115.0381 0.055
115.0684 0.160
115.0987 0.317
115.1289 0.109
115.1592 0.162
115.1895 -0.097
115.2198 0.112
115.2501 0.061
115.2803 0.011
115.3106 0.012
115.3409 0.014
115.3712 0.381
115.4015 0.018
115.4317 0.229
115.4620 0.283
115.4923 -0.026
115.5226 0.237
115.5528 -0.073
115.5831 0.347
115.6134 -0.014
115.6437 0.041
115.6740 0.253
115.7042 -0.004
115.7345 -0.104
115.7648 0.044
115.7951 0.349
115.8254 0.030
115.8556 0.179
115.8859 -0.141
115.9162 0.373
115.9465 0.054
115.9767 0.152
116.0070 0.041
116.0373 0.035
116.0676 0.237
116.0979 0.023
116.1281 0.225
116.1584 0.168
116.1887 0.318
116.2190 -0.051
116.2493 0.100
116.2795 0.355
116.3098 0.090
116.3401 0.033
116.3704 -0.180
116.4006 0.025
116.4309 -0.083
116.4612 0.070
116.4915 0.171
116.5218 -0.092
116.5520 -0.043
116.5823 0.162
116.6126 -0.048
116.6429 -0.051
116.6732 0.364
116.7034 -0.107
116.7337 0.047
116.7640 -0.007
116.7943 0.044
116.8245 -0.062
116.8548 -0.063
116.8851 -0.012
116.9154 0.039
116.9457 0.090
116.9759 0.089
117.0062 0.089
117.0365 0.088
117.0668 0.036
117.0971 -0.068
117.1273 0.088
117.1576 0.036
117.1879 -0.015
117.2182 -0.015
117.2485 0.455
117.2787 0.091
117.3090 -0.116
117.3393 -0.063
117.3696 -0.062
117.3998 -0.164
117.4301 0.358
117.4604 0.048
117.4907 0.206
117.5210 -0.053
117.5512 0.106
117.5815 -0.048
117.6118 0.059
117.6421 0.010
117.6724 0.221
117.7026 -0.036
117.7329 0.123
117.7632 0.022
117.7935 -0.026
117.8237 -0.022
117.8540 -0.019
117.8843 0.402
117.9146 0.146
117.9449 -0.006
117.9751 0.311
118.0054 0.003
118.0357 0.060
118.0660 -0.091
118.0963 0.122
118.1265 0.076
118.1568 -0.179
118.1871 -0.020
118.2174 0.036
118.2476 -0.064
118.2779 0.044
118.3082 0.100
118.3385 0.052
118.3688 0.057
118.3990 0.166
118.4293 0.066
118.4596 0.019
118.4899 0.180
118.5202 0.290
118.5504 0.087
118.5807 0.040
118.6110 0.098
118.6413 -0.104
118.6715 -0.057
118.7018 0.250
118.7321 0.246
118.7624 0.085
118.7927 0.237
118.8229 0.441
118.8532 0.020
118.8835 0.068
118.9138 0.064
118.9441 0.008
118.9743 0.057
119.0046 0.053
119.0349 0.050
119.0652 0.099
119.0954 0.096
119.1257 0.042
119.1560 0.143
119.1863 0.141
119.2166 0.243
119.2468 0.032
119.2771 0.082
119.3074 0.445
119.3377 0.131
119.3680 0.338
119.3982 0.076
119.4285 0.127
119.4588 -0.030
119.4891 0.281
119.5193 0.333
119.5496 0.124
119.5799 -0.085
119.6102 0.071
119.6405 0.019
119.6707 0.123
119.7010 0.124
119.7313 0.124
119.7616 0.333
119.7919 0.282
119.8221 0.178
119.8524 -0.133
119.8827 -0.080
119.9130 0.182
119.9433 0.027
119.9735 -0.232
120.0038 0.000
