'Id: "" Comment: "" Operator: "Lab Manager" Anode: "Cu" Scantype: "Locked Coupled" TimePerStep: "19.2" X: "9999" Y: "9999" Z: "9999" 
10.0015 0.000
10.0318 0.473
10.0620 0.060
10.0923 -0.561
10.1226 1.579
10.1529 0.178
10.1832 -0.754
10.2134 -0.094
10.2437 0.879
10.2740 0.134
10.3043 0.430
10.3346 0.362
10.3648 0.399
10.3951 -0.346
10.4254 0.577
10.4557 0.146
10.4859 -0.442
10.5162 -0.137
10.5465 0.117
10.5768 0.110
10.6071 1.926
10.6373 1.295
10.6676 0.976
10.6979 0.970
10.7282 2.214
10.7585 0.855
10.7887 1.058
10.8190 1.730
10.8493 1.778
10.8796 1.253
10.9098 0.051
10.9401 3.015
10.9704 3.585
11.0007 4.258
11.0310 6.026
11.0612 6.492
11.0915 5.448
11.1218 4.664
11.1521 4.714
11.1824 2.837
11.2126 2.523
11.2429 2.314
11.2732 0.594
11.3035 0.489
11.3337 0.801
11.3640 0.905
11.3943 0.853
11.4246 1.217
11.4549 0.957
11.4851 -0.136
11.5154 0.386
11.5457 0.804
11.5760 0.806
11.6063 0.495
11.6365 0.965
11.6668 0.447
11.6971 0.918
11.7274 0.088
11.7577 0.507
11.7879 0.823
11.8182 0.931
11.8485 0.570
11.8788 0.313
11.9090 0.890
11.9393 0.322
11.9696 -0.142
11.9999 0.124
12.0302 0.493
12.0604 0.082
12.0907 0.453
12.1210 0.407
12.1513 0.986
12.1816 -0.049
12.2118 -0.095
12.2421 0.069
12.2724 0.024
12.3027 -0.750
12.3329 0.404
12.3632 0.620
12.3935 1.149
12.4238 0.064
12.4541 -0.396
12.4843 -0.231
12.5146 0.195
12.5449 -0.108
12.5752 1.204
12.6055 -0.036
12.6357 -0.546
12.6660 0.078
12.6963 0.182
12.7266 0.755
12.7568 0.859
12.7871 -0.130
12.8174 -0.182
12.8477 0.288
12.8780 0.706
12.9082 -0.126
12.9385 -0.281
12.9688 -0.123
12.9991 -0.017
13.0294 -0.170
13.0596 -0.272
13.0899 0.148
13.1202 -0.578
13.1505 1.092
13.1807 -0.884
13.2110 0.422
13.2413 0.270
13.2716 -0.403
13.3019 0.331
13.3321 -0.133
13.3624 -0.232
13.3927 0.919
13.4230 -0.169
13.4533 -0.163
13.4835 -0.729
13.5138 0.371
13.5441 -0.196
13.5744 0.228
13.6046 -0.702
13.6349 -0.175
13.6652 0.664
13.6955 -0.059
13.7258 0.104
13.7560 -0.774
13.7863 0.587
13.8166 0.230
13.8469 -0.283
13.8772 -0.223
13.9074 -0.371
13.9377 -0.362
13.9680 -0.249
13.9983 -0.188
14.0285 -0.960
14.0588 0.820
14.0891 0.986
14.1194 0.371
14.1497 -0.296
14.1799 -0.077
14.2102 0.351
14.2405 0.205
14.2708 0.738
14.3011 0.228
14.3313 1.021
14.3616 0.252
14.3919 0.264
14.4222 -0.036
14.4524 -0.023
14.4827 0.147
14.5130 -0.048
14.5433 0.694
14.5736 -0.021
14.6038 0.358
14.6341 0.789
14.6644 0.699
14.6947 1.391
14.7250 0.208
14.7552 0.848
14.7855 0.447
14.8158 0.776
14.8461 0.375
14.8764 -0.494
14.9066 -0.342
14.9369 0.799
14.9672 0.326
14.9975 0.686
15.0277 -0.203
15.0580 0.367
15.0883 0.155
15.1186 0.204
15.1489 -0.267
15.1791 -0.166
15.2094 0.561
15.2397 1.340
15.2700 -0.276
15.3003 0.400
15.3305 0.607
15.3608 0.450
15.3911 0.241
15.4214 1.021
15.4516 0.292
15.4819 0.136
15.5122 0.136
15.5425 0.709
15.5728 -0.488
15.6030 1.440
15.6333 0.869
15.6636 0.245
15.6939 -0.690
15.7242 -0.063
15.7544 0.304
15.7847 0.306
15.8150 0.413
15.8453 0.364
15.8755 -0.362
15.9058 -0.150
15.9361 0.479
15.9664 0.744
15.9967 0.800
16.0269 0.909
16.0572 0.132
16.0875 -0.019
16.1178 -0.326
16.1481 -0.372
16.1783 0.467
16.2086 0.317
16.2389 0.792
16.2692 0.017
16.2994 0.545
16.3297 0.448
16.3600 0.143
16.3903 0.827
16.4206 1.096
16.4508 -0.250
16.4811 0.383
16.5114 -0.494
16.5417 -0.349
16.5720 0.733
16.6022 0.670
16.6325 0.035
16.6628 0.389
16.6931 0.170
16.7233 0.160
16.7536 0.619
16.7839 -0.171
16.8142 0.080
16.8445 0.800
16.8747 -0.042
16.9050 1.096
16.9353 1.348
16.9656 0.454
16.9959 0.863
17.0261 0.387
17.0564 0.797
17.0867 0.842
17.1170 0.523
17.1472 -0.004
17.1775 0.667
17.2078 0.713
17.2381 -0.387
17.2684 0.910
17.2986 0.749
17.3289 0.223
17.3592 -0.042
17.3895 0.110
17.4198 0.418
17.4500 -0.263
17.4803 0.463
17.5106 -0.061
17.5409 0.040
17.5712 0.453
17.6014 0.034
17.6317 0.344
17.6620 0.655
17.6923 0.757
17.7225 0.703
17.7528 0.910
17.7831 -0.549
17.8134 -0.289
17.8437 0.439
17.8739 0.178
17.9042 -0.499
17.9345 0.387
17.9648 -0.915
17.9951 0.440
18.0253 0.493
18.0556 -0.235
18.0859 -0.494
18.1162 0.288
18.1464 -0.806
18.1767 1.226
18.2070 0.342
18.2373 -0.125
18.2676 0.032
18.2978 -0.122
18.3281 0.401
18.3584 0.247
18.3887 0.666
18.4190 -0.060
18.4492 -0.734
18.4795 0.154
18.5098 -0.155
18.5401 -0.151
18.5703 -0.251
18.6006 -0.142
18.6309 1.008
18.6612 -0.289
18.6915 0.185
18.7217 0.346
18.7520 0.612
18.7823 -0.215
18.8126 -1.042
18.8429 0.370
18.8731 0.481
18.9034 0.436
18.9337 0.339
18.9640 -0.227
18.9942 -0.324
19.0245 0.466
19.0548 0.265
19.0851 0.534
19.1154 0.387
19.1456 -0.125
19.1759 -0.064
19.2062 0.414
19.2365 -0.149
19.2668 0.277
19.2970 -0.390
19.3273 -0.229
19.3576 0.505
19.3879 -0.011
19.4181 -0.266
19.4484 -0.312
19.4787 -0.150
19.5090 0.012
19.5393 -0.138
19.5695 -0.288
19.5998 -0.073
19.6301 0.455
19.6604 -0.371
19.6907 0.001
19.7209 0.530
19.7512 -0.087
19.7815 0.442
19.8118 0.399
19.8420 -0.686
19.8723 0.677
19.9026 0.374
19.9329 -0.345
19.9632 -0.345
19.9934 -0.291
20.0237 -0.082
20.0540 0.284
20.0843 0.130
20.1146 0.341
20.1448 -0.074
20.1751 -0.019
20.2054 0.661
20.2357 -0.117
20.2659 -0.218
20.2962 0.411
20.3265 0.258
20.3568 0.002
20.3871 -0.098
20.4173 0.480
20.4476 0.224
20.4779 0.073
20.5082 0.443
20.5385 -0.072
20.5687 -0.066
20.5990 -0.268
20.6293 0.520
20.6596 0.266
20.6899 -0.456
20.7201 -0.085
20.7504 -0.390
20.7807 0.130
20.8110 -0.080
20.8412 0.648
20.8715 0.127
20.9018 0.022
20.9321 0.699
20.9624 0.387
20.9926 -0.082
21.0229 0.544
21.0532 -0.028
21.0835 0.337
21.1138 0.651
21.1440 0.080
21.1743 -0.231
21.2046 0.084
21.2349 0.659
21.2651 0.661
21.2954 -0.117
21.3257 0.511
21.3560 0.358
21.3863 0.310
21.4165 0.105
21.4468 0.630
21.4771 -0.043
21.5074 -0.715
21.5377 0.592
21.5679 0.337
21.5982 0.186
21.6285 0.295
21.6588 0.718
21.6890 -0.057
21.7193 0.314
21.7496 0.529
21.7799 0.588
21.8102 0.126
21.8404 0.029
21.8707 -0.223
21.9010 0.201
21.9313 -0.416
21.9616 -0.162
21.9918 0.768
22.0221 -0.019
22.0524 0.704
22.0827 -0.084
22.1129 0.067
22.1432 0.009
22.1735 0.733
22.2038 1.093
22.2341 0.567
22.2643 -0.063
22.2946 0.506
22.3249 0.242
22.3552 0.759
22.3855 0.599
22.4157 -0.133
22.4460 0.332
22.4763 -0.295
22.5066 0.119
22.5368 0.585
22.5671 -0.406
22.5974 0.373
22.6277 0.476
22.6580 1.048
22.6882 0.526
22.7185 0.734
22.7488 -0.361
22.7791 0.108
22.8094 -0.048
22.8396 0.525
22.8699 0.161
22.9002 0.162
22.9305 0.059
22.9607 -0.096
22.9910 0.166
23.0213 0.532
23.0516 0.274
23.0819 0.068
23.1121 -0.815
23.1424 0.334
23.1727 -0.080
23.2030 0.080
23.2333 -0.333
23.2635 -0.130
23.2938 0.073
23.3241 0.485
23.3544 -0.457
23.3846 0.424
23.4149 -0.205
23.4452 0.729
23.4755 0.413
23.5058 -0.007
23.5360 -0.219
23.5663 -0.586
23.5966 0.609
23.6269 0.555
23.6572 1.230
23.6874 0.083
23.7177 0.654
23.7480 0.757
23.7783 0.548
23.8086 0.807
23.8388 -0.026
23.8691 0.234
23.8994 -0.235
23.9297 0.026
23.9599 0.026
23.9902 -0.702
24.0205 0.027
24.0508 -0.286
24.0811 -0.390
24.1113 0.333
24.1416 -0.350
24.1719 1.050
24.2022 -0.206
24.2325 -0.055
24.2627 -0.112
24.2930 0.247
24.3233 0.607
24.3536 0.603
24.3838 0.338
24.4141 -0.135
24.4444 0.695
24.4747 -0.402
24.5050 0.063
24.5352 0.737
24.5655 0.162
24.5958 0.003
24.6261 1.042
24.6564 -0.001
24.6866 -0.159
24.7169 -0.317
24.7472 -0.006
24.7775 1.139
24.8077 0.149
24.8380 -0.580
24.8683 0.721
24.8986 0.201
24.9289 -0.216
24.9591 0.045
24.9894 -0.058
25.0197 -0.005
25.0500 0.413
25.0803 0.259
25.1105 0.104
25.1408 0.315
25.1711 0.109
25.2014 0.007
25.2316 0.218
25.2619 0.638
25.2922 0.329
25.3225 0.489
25.3528 -0.236
25.3830 0.132
25.4133 0.397
25.4436 0.662
25.4739 0.615
25.5042 0.776
25.5344 0.105
25.5647 0.162
25.5950 -0.613
25.6253 0.539
25.6555 -0.496
25.6858 0.188
25.7161 0.194
25.7464 -0.267
25.7767 -0.156
25.8069 0.529
25.8372 0.954
25.8675 0.077
25.8978 0.345
25.9281 -0.688
25.9583 0.103
25.9886 1.101
26.0189 0.121
26.0492 0.704
26.0794 -0.276
26.1097 0.880
26.1400 0.787
26.1703 0.120
26.2006 -0.442
26.2308 -0.092
26.2611 -0.054
26.2914 0.609
26.3217 0.960
26.3520 0.218
26.3822 0.465
26.4125 0.243
26.4428 0.700
26.4731 0.427
26.5034 0.050
26.5336 0.298
26.5639 0.495
26.5942 0.536
26.6245 -0.049
26.6547 -0.007
26.6850 0.034
26.7153 0.128
26.7456 0.013
26.7759 0.993
26.8061 0.306
26.8364 0.245
26.8667 0.288
26.8970 0.591
26.9273 0.687
26.9575 0.731
26.9878 0.410
27.0181 0.558
27.0484 -0.022
27.0786 -0.342
27.1089 -0.349
27.1392 0.156
27.1695 0.089
27.1998 0.648
27.2300 0.373
27.2603 -0.214
27.2906 0.813
27.3209 -0.138
27.3512 -0.776
27.3814 0.513
27.4117 0.448
27.4420 0.748
27.4723 -0.254
27.5025 -0.006
27.5328 0.659
27.5631 0.075
27.5934 0.011
27.6237 -0.365
27.6539 -0.014
27.6842 0.440
27.7145 0.478
27.7448 -0.108
27.7751 0.868
27.8053 0.282
27.8356 0.321
27.8659 0.308
27.8962 0.868
27.9264 0.179
27.9567 0.323
27.9870 0.416
28.0173 0.092
28.0476 -0.075
28.0778 0.278
28.1081 -0.305
28.1384 0.413
28.1687 0.247
28.1990 0.393
28.2292 0.384
28.2595 -0.199
28.2898 0.000
28.3201 0.200
28.3503 0.139
28.3806 -0.286
28.4109 0.331
28.4412 0.115
28.4715 0.628
28.5017 -0.005
28.5320 0.770
28.5623 -0.175
28.5926 -0.442
28.6229 0.214
28.6531 0.402
28.6834 0.381
28.7137 0.570
28.7440 -0.127
28.7742 -0.095
28.8045 0.146
28.8348 -0.082
28.8651 -0.205
28.8954 1.287
28.9256 0.696
28.9559 0.209
28.9862 0.660
29.0165 1.006
29.0468 0.208
29.0770 -0.174
29.1073 0.174
29.1376 -0.416
29.1679 -0.133
29.1981 -0.319
29.2284 0.694
29.2587 0.300
29.2890 -0.406
29.3193 0.399
29.3495 0.736
29.3798 0.031
29.4101 -0.101
29.4404 -0.649
29.4707 0.209
29.5009 0.026
29.5312 -0.470
29.5615 1.223
29.5918 -0.210
29.6221 0.233
29.6523 0.364
29.6826 -0.130
29.7129 -0.520
29.7432 0.175
29.7734 0.245
29.8037 0.732
29.8340 -0.083
29.8643 -0.220
29.8946 0.424
29.9248 0.078
29.9551 -0.319
29.9854 1.055
30.0157 1.336
30.0460 0.679
30.0762 0.231
30.1065 -0.686
30.1368 1.887
30.1671 1.023
30.1973 1.097
30.2276 0.546
30.2579 1.245
30.2882 1.007
30.3185 0.977
30.3487 0.635
30.3790 0.554
30.4093 1.671
30.4396 0.393
30.4699 1.615
30.5001 2.941
30.5304 2.132
30.5607 0.542
30.5910 1.765
30.6212 1.842
30.6515 2.961
30.6818 2.362
30.7121 2.335
30.7424 1.372
30.7726 2.232
30.8029 3.665
30.8332 2.962
30.8635 3.458
30.8938 4.579
30.9240 3.878
30.9543 4.322
30.9846 5.184
31.0149 6.046
31.0451 6.543
31.0754 6.832
31.1057 8.424
31.1360 9.183
31.1663 9.421
31.1965 9.294
31.2268 11.981
31.2571 14.928
31.2874 14.906
31.3177 17.385
31.3479 16.583
31.3782 20.313
31.4085 22.584
31.4388 27.512
31.4690 29.158
31.4993 32.316
31.5296 39.276
31.5599 39.569
31.5902 41.633
31.6204 42.396
31.6507 42.742
31.6810 48.610
31.7113 44.894
31.7416 42.272
31.7718 39.546
31.8021 36.300
31.8324 32.481
31.8627 30.121
31.8929 24.896
31.9232 21.443
31.9535 18.614
31.9838 16.932
32.0141 12.854
32.0443 11.902
32.0746 11.470
32.1049 8.591
32.1352 8.316
32.1655 7.000
32.1957 5.893
32.2260 4.733
32.2563 4.408
32.2866 4.238
32.3169 3.653
32.3471 4.630
32.3774 2.794
32.4077 3.460
32.4380 2.614
32.4682 1.770
32.4985 2.592
32.5288 1.226
32.5591 1.164
32.5894 2.039
32.6196 2.080
32.6499 1.029
32.6802 1.436
32.7105 1.009
32.7408 0.896
32.7710 0.210
32.8013 0.253
32.8316 0.401
32.8619 0.445
32.8921 0.541
32.9224 0.325
32.9527 0.161
32.9830 -0.158
33.0133 0.251
33.0435 -0.016
33.0738 0.342
33.1041 0.545
33.1344 -0.191
33.1647 -0.665
33.1949 0.736
33.2252 1.668
33.2555 -0.368
33.2858 0.304
33.3160 1.394
33.3463 1.285
33.3766 0.396
33.4069 -0.076
33.4372 0.597
33.4674 0.490
33.4977 1.268
33.5280 -0.349
33.5583 1.680
33.5886 0.792
33.6188 0.999
33.6491 2.456
33.6794 1.777
33.7097 1.255
33.7399 2.348
33.7702 3.597
33.8005 4.222
33.8308 3.284
33.8611 3.909
33.8913 5.889
33.9216 3.858
33.9519 8.599
33.9822 8.965
34.0125 8.758
34.0427 11.936
34.0730 13.918
34.1033 17.201
34.1336 18.922
34.1638 24.498
34.1941 30.542
34.2244 36.327
34.2547 43.049
34.2850 51.959
34.3152 55.088
34.3455 57.436
34.3758 52.492
34.4061 44.268
34.4364 37.450
34.4666 29.642
34.4969 23.867
34.5272 18.612
34.5575 15.493
34.5877 14.978
34.6180 11.287
34.6483 8.533
34.6786 7.863
34.7089 8.235
34.7391 6.784
34.7694 6.531
34.7997 5.862
34.8300 6.391
34.8603 4.941
34.8905 4.325
34.9208 4.490
34.9511 5.593
34.9814 3.363
35.0116 5.457
35.0419 3.487
35.0722 5.112
35.1025 4.550
35.1328 4.456
35.1630 4.988
35.1933 5.572
35.2236 5.844
35.2539 4.137
35.2842 6.597
35.3144 5.985
35.3447 5.112
35.3750 7.833
35.4053 6.648
35.4356 8.432
35.4658 9.123
35.4961 9.189
35.5264 8.942
35.5567 11.248
35.5869 12.096
35.6172 12.945
35.6475 13.897
35.6778 16.829
35.7081 17.418
35.7383 19.256
35.7686 22.397
35.7989 24.705
35.8292 28.368
35.8595 32.656
35.8897 34.339
35.9200 40.815
35.9503 41.145
35.9806 47.882
36.0108 53.629
36.0411 61.512
36.0714 65.749
36.1017 67.852
36.1320 66.829
36.1622 73.151
36.1925 72.129
36.2228 66.992
36.2531 63.367
36.2834 59.064
36.3136 48.251
36.3439 43.064
36.3742 40.637
36.4045 36.492
36.4347 30.107
36.4650 26.067
36.4953 24.995
36.5256 20.851
36.5559 18.894
36.5861 16.261
36.6164 14.722
36.6467 13.235
36.6770 12.790
36.7073 11.095
36.7375 10.390
36.7678 9.269
36.7981 7.887
36.8284 6.089
36.8586 6.479
36.8889 5.359
36.9192 6.166
36.9495 4.212
36.9798 2.937
37.0100 3.953
37.0403 3.719
37.0706 3.329
37.1009 2.836
37.1312 2.707
37.1614 3.776
37.1917 2.554
37.2220 3.103
37.2523 2.194
37.2825 1.911
37.3128 1.523
37.3431 2.334
37.3734 1.165
37.4037 0.830
37.4339 1.381
37.4642 1.516
37.4945 0.609
37.5248 2.306
37.5551 1.712
37.5853 0.389
37.6156 0.681
37.6459 1.494
37.6762 1.006
37.7064 0.673
37.7367 1.331
37.7670 1.364
37.7973 -0.114
37.8276 -0.445
37.8578 0.160
37.8881 1.599
37.9184 -0.503
37.9487 1.092
37.9790 0.813
38.0092 0.274
38.0395 -0.578
38.0698 -0.127
38.1001 -0.249
38.1304 0.411
38.1606 0.237
38.1909 0.168
38.2212 0.048
38.2515 -0.281
38.2817 -0.141
38.3120 0.468
38.3423 0.244
38.3726 -0.501
38.4029 -0.047
38.4331 0.355
38.4634 -0.025
38.4937 -0.299
38.5240 0.155
38.5543 0.089
38.5845 -0.393
38.6148 -0.056
38.6451 0.124
38.6754 0.201
38.7056 0.122
38.7359 -0.270
38.7662 0.068
38.7965 -0.010
38.8268 -0.192
38.8570 0.511
38.8873 -0.921
38.9176 0.043
38.9479 0.748
38.9782 -0.163
39.0084 -0.239
39.0387 0.153
39.0690 0.129
39.0993 -0.624
39.1295 -0.097
39.1598 -0.194
39.1901 -0.395
39.2204 0.445
39.2507 0.661
39.2809 0.252
39.3112 -0.156
39.3415 -0.200
39.3718 -0.348
39.4021 0.599
39.4323 0.660
39.4626 -0.321
39.4929 0.262
39.5232 -0.301
39.5534 -0.031
39.5837 0.240
39.6140 -0.166
39.6443 0.210
39.6746 -0.352
39.7048 0.388
39.7351 0.660
39.7654 0.255
39.7957 0.424
39.8260 0.644
39.8562 -0.280
39.8865 0.410
39.9168 0.006
39.9471 -0.449
39.9773 0.346
40.0076 -0.109
40.0379 0.426
40.0682 0.180
40.0985 -0.327
40.1287 0.782
40.1590 0.172
40.1893 0.240
40.2196 -0.005
40.2499 0.271
40.2801 -0.390
40.3104 -0.229
40.3407 0.245
40.3710 0.406
40.4012 -0.318
40.4315 -0.208
40.4618 0.058
40.4921 0.377
40.5224 0.383
40.5526 -0.391
40.5829 -0.020
40.6132 -0.065
40.6435 0.984
40.6738 0.107
40.7040 0.479
40.7343 0.331
40.7646 0.339
40.7949 -0.277
40.8251 0.409
40.8554 -0.051
40.8857 0.167
40.9160 0.281
40.9463 -0.022
40.9765 0.041
41.0068 0.416
41.0371 -0.147
41.0674 0.229
41.0977 0.292
41.1279 0.304
41.1582 0.888
41.1885 0.067
41.2188 0.444
41.2491 -0.325
41.2793 -0.312
41.3096 0.309
41.3399 0.201
41.3702 -0.167
41.4004 0.195
41.4307 0.088
41.4610 -0.175
41.4913 -0.073
41.5216 -0.180
41.5518 0.027
41.5821 0.078
41.6124 -0.080
41.6427 0.075
41.6730 0.231
41.7032 -0.134
41.7335 -0.135
41.7638 -0.135
41.7941 -0.030
41.8243 0.231
41.8546 0.596
41.8849 0.753
41.9152 0.078
41.9455 0.496
41.9757 -0.180
42.0060 -0.334
42.0363 0.398
42.0666 0.556
42.0969 -0.222
42.1271 0.041
42.1574 -0.059
42.1877 -0.108
42.2180 -0.312
42.2482 0.150
42.2785 -0.325
42.3088 0.086
42.3391 0.185
42.3694 -0.237
42.3996 -0.294
42.4299 0.118
42.4602 0.270
42.4905 -0.463
42.5208 -0.155
42.5510 0.466
42.5813 0.359
42.6116 0.408
42.6419 -0.168
42.6721 0.090
42.7024 -0.121
42.7327 -0.019
42.7630 0.292
42.7933 0.238
42.8235 0.445
42.8538 0.079
42.8841 0.234
42.9144 0.286
42.9447 0.233
42.9749 0.129
43.0052 0.286
43.0355 -0.079
43.0658 0.130
43.0960 0.600
43.1263 0.809
43.1566 -0.283
43.1869 0.396
43.2172 0.346
43.2474 0.556
43.2777 0.090
43.3080 0.249
43.3383 0.981
43.3686 -0.318
43.3988 -0.106
43.4291 0.262
43.4594 0.474
43.4897 0.270
43.5199 -0.246
43.5502 0.019
43.5805 -0.237
43.6108 0.133
43.6411 -0.174
43.6713 0.821
43.7016 0.046
43.7319 -0.312
43.7622 -0.110
43.7925 0.248
43.8227 0.347
43.8530 0.029
43.8833 0.180
43.9136 -0.137
43.9439 0.170
43.9741 -0.042
44.0044 0.735
44.0347 -0.311
44.0650 -0.419
44.0952 0.724
44.1255 0.669
44.1558 0.145
44.1861 -0.066
44.2164 0.088
44.2466 0.502
44.2769 -0.645
44.3072 0.030
44.3375 -0.023
44.3678 0.392
44.3980 -0.025
44.4283 0.339
44.4586 0.391
44.4889 0.130
44.5191 0.443
44.5494 0.339
44.5797 0.496
44.6100 0.288
44.6403 0.238
44.6705 -0.126
44.7008 0.032
44.7311 -0.122
44.7614 0.818
44.7917 -0.378
44.8219 0.771
44.8522 -0.320
44.8825 -0.317
44.9128 -0.007
44.9430 -0.062
44.9733 -0.169
45.0036 -0.120
45.0339 -0.538
45.0642 0.345
45.0944 0.135
45.1247 0.134
45.1550 0.081
45.1853 0.236
45.2156 -0.337
45.2458 -0.200
45.2761 0.042
45.3064 0.180
45.3367 0.631
45.3669 0.041
45.3972 0.753
45.4275 0.632
45.4578 -0.219
45.4881 0.702
45.5183 0.374
45.5486 0.305
45.5789 -0.283
45.6092 -0.403
45.6395 0.675
45.6697 0.452
45.7000 -0.083
45.7303 0.319
45.7606 0.096
45.7908 0.082
45.8211 -0.036
45.8514 0.107
45.8817 1.031
45.9120 0.706
45.9422 0.484
45.9725 0.003
46.0028 -0.061
46.0331 -0.073
46.0634 -0.241
46.0936 0.320
46.1239 0.101
46.1542 -0.119
46.1845 -0.650
46.2147 0.174
46.2450 0.217
46.2753 -0.312
46.3056 -0.060
46.3359 0.609
46.3661 0.341
46.3964 0.490
46.4267 0.482
46.4570 1.361
46.4873 1.354
46.5175 0.723
46.5478 0.925
46.5781 0.658
46.6084 0.496
46.6386 1.480
46.6689 1.267
46.6992 1.626
46.7295 1.205
46.7598 1.877
46.7900 1.977
46.8203 1.765
46.8506 1.449
46.8809 3.372
46.9112 2.171
46.9414 2.897
46.9717 2.009
47.0020 3.153
47.0323 3.515
47.0626 4.398
47.0928 4.970
47.1231 5.802
47.1534 6.738
47.1837 6.529
47.2139 8.924
47.2442 10.017
47.2745 10.121
47.3048 10.381
47.3351 13.298
47.3653 12.622
47.3956 12.727
47.4259 15.488
47.4562 14.136
47.4865 15.595
47.5167 15.285
47.5470 12.110
47.5773 11.383
47.6076 9.354
47.6378 9.774
47.6681 8.006
47.6984 9.155
47.7287 7.492
47.7590 6.090
47.7892 4.740
47.8195 3.598
47.8498 3.759
47.8801 3.347
47.9104 3.248
47.9406 3.254
47.9709 2.166
48.0012 2.797
48.0315 1.605
48.0617 1.299
48.0920 2.243
48.1223 0.635
48.1526 1.788
48.1829 0.285
48.2131 1.126
48.2434 1.603
48.2737 0.569
48.3040 0.630
48.3343 0.482
48.3645 0.804
48.3948 0.344
48.4251 -0.219
48.4554 0.467
48.4856 0.113
48.5159 0.383
48.5462 0.133
48.5765 0.300
48.6068 -0.158
48.6370 0.114
48.6673 0.126
48.6976 0.502
48.7279 0.097
48.7582 0.005
48.7884 0.486
48.8187 0.239
48.8490 -0.165
48.8793 -0.308
48.9095 -0.242
48.9398 0.084
48.9701 -0.215
49.0004 0.216
49.0307 0.075
49.0609 0.610
49.0912 0.469
49.1215 0.745
49.1518 0.187
49.1821 -0.422
49.2123 0.115
49.2426 0.183
49.2729 -0.113
49.3032 0.060
49.3334 0.338
49.3637 0.303
49.3940 -0.200
49.4243 0.130
49.4546 0.044
49.4848 0.531
49.5151 0.393
49.5454 0.099
49.5757 0.587
49.6060 -0.018
49.6362 -0.311
49.6665 0.055
49.6968 -0.308
49.7271 0.267
49.7574 0.061
49.7876 0.532
49.8179 0.378
49.8482 0.694
49.8785 0.020
49.9087 0.753
49.9390 0.132
49.9693 0.292
49.9996 -0.068
50.0299 0.197
50.0601 -0.267
50.0904 -0.002
50.1207 -0.674
50.1510 0.113
50.1813 0.275
50.2115 0.385
50.2418 -0.337
50.2721 -0.336
50.3024 0.447
50.3326 0.606
50.3629 0.296
50.3932 0.246
50.4235 0.458
50.4538 0.200
50.4840 -0.161
50.5143 0.312
50.5446 0.107
50.5749 0.268
50.6052 0.064
50.6354 0.589
50.6657 0.177
50.6960 0.235
50.7263 0.449
50.7565 0.246
50.7868 0.721
50.8171 0.258
50.8474 -0.100
50.8777 0.063
50.9079 0.539
50.9382 0.910
50.9685 0.137
50.9988 0.301
51.0291 0.829
51.0593 0.786
51.0896 0.117
51.1199 0.490
51.1502 0.603
51.1804 0.144
51.2107 0.101
51.2410 0.372
51.2713 -0.243
51.3016 -0.285
51.3318 0.170
51.3621 0.887
51.3924 1.082
51.4227 0.185
51.4530 -0.244
51.4832 0.004
51.5135 -0.059
51.5438 0.034
51.5741 0.335
51.6043 -0.249
51.6346 -0.259
51.6649 0.147
51.6952 -0.488
51.7255 0.440
51.7557 -0.143
51.7860 -0.048
51.8163 0.516
51.8466 0.351
51.8769 -0.595
51.9071 0.178
51.9374 0.118
51.9677 -0.150
51.9980 0.727
52.0282 -0.217
52.0585 0.140
52.0888 0.446
52.1191 -0.967
52.1494 0.746
52.1796 0.427
52.2099 0.265
52.2402 0.416
52.2705 -0.266
52.3008 -0.167
52.3310 0.036
52.3613 0.136
52.3916 0.184
52.4219 -0.393
52.4521 0.072
52.4824 0.225
52.5127 0.274
52.5430 0.010
52.5733 -0.097
52.6035 0.578
52.6338 0.003
52.6641 0.209
52.6944 -0.053
52.7247 0.154
52.7549 -0.681
52.7852 0.152
52.8155 0.047
52.8458 0.411
52.8761 0.046
52.9063 0.411
52.9366 0.203
52.9669 -0.213
52.9972 0.048
53.0274 -0.368
53.0577 0.103
53.0880 -0.312
53.1183 -0.312
53.1486 -0.365
53.1788 0.521
53.2091 0.001
53.2394 0.002
53.2697 0.471
53.3000 -0.256
53.3302 0.214
53.3605 0.164
53.3908 -0.303
53.4211 -0.197
53.4513 0.587
53.4816 0.798
53.5119 0.749
53.5422 0.597
53.5725 0.392
53.6027 0.187
53.6330 0.244
53.6633 0.300
53.6936 0.565
53.7239 -0.368
53.7541 0.002
53.7844 0.684
53.8147 0.846
53.8450 -0.033
53.8752 0.337
53.9055 0.083
53.9358 0.819
53.9661 -0.007
53.9964 0.417
54.0266 0.580
54.0569 0.536
54.0872 0.648
54.1175 0.552
54.1478 0.091
54.1780 1.194
54.2083 0.734
54.2386 0.431
54.2689 0.805
54.2991 0.762
54.3294 -0.269
54.3597 -0.311
54.3900 0.292
54.4203 -0.094
54.4505 0.458
54.4808 0.489
54.5111 0.416
54.5414 0.239
54.5717 1.209
54.6019 1.033
54.6322 1.274
54.6625 0.160
54.6928 0.245
54.7230 0.435
54.7533 0.520
54.7836 0.762
54.8139 0.796
54.8442 -0.003
54.8744 0.865
54.9047 0.535
54.9350 0.779
54.9653 0.085
54.9956 0.641
55.0258 0.520
55.0561 0.973
55.0864 0.905
55.1167 0.108
55.1469 0.457
55.1772 0.911
55.2075 0.219
55.2378 0.934
55.2681 1.909
55.2983 1.687
55.3286 0.631
55.3589 1.607
55.3892 1.229
55.4195 0.487
55.4497 0.891
55.4800 1.191
55.5103 0.501
55.5406 1.687
55.5709 1.415
55.6011 1.091
55.6314 2.278
55.6617 2.163
55.6920 1.839
55.7222 2.714
55.7525 3.173
55.7828 2.798
55.8131 3.413
55.8434 3.091
55.8736 3.447
55.9039 3.698
55.9342 3.793
55.9645 4.097
55.9948 5.027
56.0250 5.487
56.0553 5.896
56.0856 5.993
56.1159 6.038
56.1461 7.437
56.1764 7.274
56.2067 8.882
56.2370 9.970
56.2673 11.578
56.2975 10.583
56.3278 14.276
56.3581 14.375
56.3884 16.505
56.4187 17.073
56.4489 19.413
56.4792 18.731
56.5095 18.259
56.5398 17.057
56.5700 17.418
56.6003 17.311
56.6306 16.579
56.6609 14.024
56.6912 13.292
56.7214 11.988
56.7517 10.424
56.7820 9.693
56.8123 9.275
56.8426 7.607
56.8728 7.606
56.9031 6.355
56.9334 5.730
56.9637 4.949
56.9939 4.792
57.0242 4.689
57.0545 3.491
57.0848 4.013
57.1151 3.337
57.1453 2.193
57.1756 2.611
57.2059 1.519
57.2362 2.980
57.2665 1.419
57.2967 1.266
57.3270 1.998
57.3573 0.751
57.3876 0.911
57.4178 1.696
57.4481 1.804
57.4784 0.610
57.5087 0.302
57.5390 0.619
57.5692 0.624
57.5995 0.785
57.6298 0.322
57.6601 0.588
57.6904 0.802
57.7206 0.392
57.7509 0.138
57.7812 0.822
57.8115 0.568
57.8417 0.367
57.8720 0.271
57.9023 1.320
57.9326 -0.183
57.9629 -0.070
57.9931 0.615
58.0234 -0.313
58.0537 0.737
58.0840 0.121
58.1143 0.652
58.1445 -0.484
58.1748 0.411
58.2051 -0.568
58.2354 -0.349
58.2656 0.391
58.2959 0.299
58.3262 0.051
58.3565 -0.197
58.3868 -0.288
58.4170 0.245
58.4473 -0.002
58.4776 -0.301
58.5079 -0.027
58.5382 0.873
58.5684 0.418
58.5987 0.589
58.6290 -0.178
58.6593 0.358
58.6896 0.009
58.7198 -0.288
58.7501 0.144
58.7804 0.056
58.8107 0.072
58.8409 -0.120
58.8712 0.262
58.9015 -0.190
58.9318 -0.277
58.9621 -0.364
58.9923 0.327
59.0226 0.497
59.0529 -0.271
59.0832 0.056
59.1135 0.018
59.1437 0.189
59.1740 -0.317
59.2043 -0.266
59.2346 0.515
59.2648 0.410
59.2951 0.045
59.3254 0.514
59.3557 0.775
59.3860 0.515
59.4162 0.463
59.4465 0.360
59.4768 -0.316
59.5071 -0.002
59.5374 0.156
59.5676 0.627
59.5979 -0.100
59.6282 -0.097
59.6585 0.114
59.6887 0.117
59.7190 -0.036
59.7493 -0.085
59.7796 0.440
59.8099 -0.337
59.8401 -0.404
59.8704 0.467
59.9007 0.192
59.9310 0.439
59.9613 0.217
59.9915 0.516
60.0218 0.346
60.0521 0.229
60.0824 0.217
60.1126 0.517
60.1429 0.244
60.1732 0.389
60.2035 -0.248
60.2338 -0.728
60.2640 0.302
60.2943 0.135
60.3246 0.281
60.3549 -0.146
60.3852 0.677
60.4154 -0.583
60.4457 -0.019
60.4760 -0.081
60.5063 0.535
60.5365 0.006
60.5668 0.362
60.5971 -0.636
60.6274 0.293
60.6577 0.337
60.6879 0.017
60.7182 0.739
60.7485 -0.466
60.7788 0.465
60.8091 0.354
60.8393 0.035
60.8696 0.290
60.8999 0.128
60.9302 0.226
60.9604 0.065
60.9907 0.164
61.0210 -0.049
61.0513 0.259
61.0816 0.046
61.1118 0.355
61.1421 0.403
61.1724 0.295
61.2027 0.240
61.2330 0.445
61.2632 -0.287
61.2935 0.284
61.3238 0.229
61.3541 -0.345
61.3844 -0.256
61.4146 0.198
61.4449 -0.181
61.4752 1.055
61.5055 -0.261
61.5357 0.715
61.5660 0.442
61.5963 0.116
61.6266 0.728
61.6569 0.612
61.6871 0.443
61.7174 0.327
61.7477 0.523
61.7780 1.293
61.8083 0.292
61.8385 1.219
61.8688 0.948
61.8991 1.250
61.9294 1.031
61.9596 0.813
61.9899 1.428
62.0202 1.679
62.0505 1.253
62.0808 2.286
62.1110 3.110
62.1413 2.373
62.1716 1.844
62.2019 1.731
62.2322 3.026
62.2624 4.008
62.2927 4.001
62.3230 4.983
62.3533 4.768
62.3835 6.481
62.4138 5.797
62.4441 6.000
62.4744 6.932
62.5047 8.228
62.5349 7.754
62.5652 9.885
62.5955 13.266
62.6258 12.376
62.6561 13.153
62.6863 13.253
62.7166 15.593
62.7469 13.975
62.7772 15.587
62.8074 16.000
62.8377 13.810
62.8680 14.329
62.8983 15.212
62.9286 11.460
62.9588 13.073
62.9891 9.322
63.0194 9.425
63.0497 9.268
63.0800 7.548
63.1102 7.652
63.1405 5.621
63.1708 5.985
63.2011 5.152
63.2313 4.684
63.2616 4.112
63.2919 3.957
63.3222 2.500
63.3525 2.554
63.3827 1.983
63.4130 2.298
63.4433 2.613
63.4736 1.105
63.5039 1.524
63.5341 1.423
63.5644 1.739
63.5947 0.597
63.6250 0.393
63.6552 1.178
63.6855 0.922
63.7158 1.187
63.7461 1.296
63.7764 -0.052
63.8066 0.422
63.8369 0.636
63.8672 -0.348
63.8975 -0.290
63.9278 0.186
63.9580 -0.381
63.9883 1.189
64.0186 0.363
64.0489 -0.359
64.0791 -0.143
64.1094 0.438
64.1397 0.915
64.1700 -0.014
64.2003 1.089
64.2305 -0.621
64.2608 -0.039
64.2911 -0.134
64.3214 -0.124
64.3517 -0.530
64.3819 0.469
64.4122 0.167
64.4425 0.178
64.4728 -0.123
64.5031 -0.268
64.5333 -0.309
64.5636 0.432
64.5939 -0.441
64.6242 -0.273
64.6544 0.261
64.6847 -0.299
64.7150 0.130
64.7453 -0.221
64.7756 -0.520
64.8058 0.248
64.8361 0.599
64.8664 0.117
64.8967 -0.156
64.9270 -0.273
64.9572 -0.181
64.9875 0.692
65.0178 0.107
65.0481 0.304
65.0783 -0.384
65.1086 -0.083
65.1389 0.427
65.1692 0.156
65.1995 -0.948
65.2297 0.292
65.2600 -0.499
65.2903 0.585
65.3206 0.055
65.3509 0.098
65.3811 0.662
65.4114 0.549
65.4417 0.228
65.4720 0.064
65.5022 -0.152
65.5325 -0.368
65.5628 -0.487
65.5931 0.749
65.6234 -0.046
65.6536 -0.060
65.6839 1.072
65.7142 0.486
65.7445 -0.673
65.7748 0.617
65.8050 0.813
65.8353 0.436
65.8656 1.101
65.8959 0.464
65.9261 0.557
65.9564 1.171
65.9867 0.066
66.0170 2.191
66.0473 0.774
66.0775 1.598
66.1078 1.379
66.1381 1.370
66.1684 0.996
66.1987 1.664
66.2289 1.082
66.2592 1.646
66.2895 0.492
66.3198 0.952
66.3500 1.413
66.3803 1.406
66.4106 0.721
66.4409 1.495
66.4712 1.541
66.5014 0.284
66.5317 0.851
66.5620 0.324
66.5923 1.568
66.6226 0.885
66.6528 1.036
66.6831 0.614
66.7134 0.661
66.7437 0.917
66.7739 1.121
66.8042 0.857
66.8345 0.645
66.8648 1.110
66.8951 1.211
66.9253 0.739
66.9556 0.528
66.9859 0.681
67.0162 0.991
67.0465 2.031
67.0767 0.154
67.1070 1.663
67.1373 1.610
67.1676 1.661
67.1978 1.712
67.2281 2.649
67.2584 2.493
67.2887 2.909
67.3190 2.337
67.3492 3.118
67.3795 2.546
67.4098 3.432
67.4401 4.423
67.4704 3.748
67.5006 4.635
67.5309 5.210
67.5612 5.472
67.5915 5.840
67.6218 8.238
67.6520 7.095
67.6823 8.401
67.7126 10.279
67.7429 10.283
67.7731 8.724
67.8034 12.322
67.8337 10.244
67.8640 11.134
67.8943 11.556
67.9245 10.832
67.9548 11.254
67.9851 9.541
68.0154 9.234
68.0457 8.564
68.0759 7.945
68.1062 6.494
68.1365 8.845
68.1668 5.831
68.1970 7.922
68.2273 5.586
68.2576 4.552
68.2879 4.405
68.3182 3.267
68.3484 3.641
68.3787 3.806
68.4090 3.295
68.4393 3.252
68.4696 3.418
68.4998 3.949
68.5301 3.959
68.5604 3.970
68.5907 3.720
68.6209 3.784
68.6512 3.587
68.6815 3.703
68.7118 3.350
68.7421 3.414
68.7723 4.781
68.8026 5.158
68.8329 5.067
68.8632 5.236
68.8935 3.895
68.9237 5.836
68.9540 3.975
68.9843 3.885
69.0146 5.566
69.0448 4.070
69.0751 3.825
69.1054 5.767
69.1357 4.116
69.1660 4.913
69.1962 4.408
69.2265 3.382
69.2568 3.555
69.2871 2.634
69.3174 2.703
69.3476 1.783
69.3779 2.061
69.4082 2.339
69.4385 2.357
69.4687 1.542
69.4990 1.768
69.5293 1.891
69.5596 0.869
69.5899 0.627
69.6201 1.116
69.6504 -0.063
69.6807 0.218
69.7110 0.967
69.7413 1.092
69.7715 0.748
69.8018 0.300
69.8321 0.686
69.8624 -0.490
69.8926 0.573
69.9229 0.387
69.9532 0.669
69.9835 0.484
70.0138 0.090
70.0440 0.634
70.0743 0.813
70.1046 0.264
70.1349 -0.442
70.1652 -0.227
70.1954 0.352
70.2257 0.202
70.2560 0.000
70.2863 0.372
70.3166 0.639
70.3468 0.594
70.3771 0.237
70.4074 -0.015
70.4377 0.618
70.4679 1.147
70.4982 0.114
70.5285 0.488
70.5588 0.184
70.5891 0.506
70.6193 0.204
70.6496 0.682
70.6799 0.276
70.7102 -0.287
70.7405 -0.172
70.7707 -0.057
70.8010 0.059
70.8313 0.018
70.8616 0.290
70.8918 0.406
70.9221 0.210
70.9524 0.066
70.9827 -0.129
71.0130 -0.064
71.0432 0.470
71.0735 -0.194
71.1038 0.132
71.1341 -0.062
71.1644 0.109
71.1946 0.175
71.2249 0.242
71.2552 0.153
71.2855 0.116
71.3157 -0.285
71.3460 -0.130
71.3763 -0.078
71.4066 -0.079
71.4369 0.338
71.4671 0.390
71.4974 -0.131
71.5277 -0.026
71.5580 -0.285
71.5883 0.027
71.6185 -0.389
71.6488 0.021
71.6791 0.588
71.7094 0.114
71.7396 0.109
71.7699 -0.052
71.8002 0.203
71.8305 -0.010
71.8608 0.090
71.8910 -0.018
71.9213 -0.074
71.9516 0.079
71.9819 0.857
72.0122 0.125
72.0424 0.122
72.0727 0.276
72.1030 0.170
72.1333 0.324
72.1635 0.583
72.1938 0.894
72.2241 0.215
72.2544 0.371
72.2847 0.734
72.3149 0.526
72.3452 0.317
72.3755 0.890
72.4058 1.047
72.4361 0.891
72.4663 1.360
72.4966 1.153
72.5269 0.842
72.5572 0.792
72.5874 0.950
72.6177 0.743
72.6480 0.746
72.6783 0.644
72.7086 0.595
72.7388 0.806
72.7691 1.122
72.7994 0.292
72.8297 -0.225
72.8600 0.352
72.8902 -0.008
72.9205 0.205
72.9508 -0.155
72.9811 0.163
73.0113 -0.248
73.0416 0.070
73.0719 0.440
73.1022 0.499
73.1325 0.297
73.1627 0.355
73.1930 0.414
73.2233 0.526
73.2536 0.116
73.2839 0.020
73.3141 0.340
73.3444 0.036
73.3747 0.461
73.4050 -0.155
73.4353 -0.094
73.4655 -0.398
73.4958 0.601
73.5261 -0.222
73.5564 0.308
73.5866 -0.202
73.6169 0.017
73.6472 -0.494
73.6775 0.029
73.7078 0.449
73.7380 -0.330
73.7683 -0.171
73.7986 0.145
73.8289 -0.425
73.8592 0.621
73.8894 0.000
73.9197 -0.100
73.9500 0.477
73.9803 -0.612
74.0105 -0.190
74.0408 0.544
74.0711 -0.127
74.1014 -0.017
74.1317 0.093
74.1619 -0.266
74.1922 -0.262
74.2225 -0.259
74.2528 -0.099
74.2831 -0.251
74.3133 0.118
74.3436 0.226
74.3739 0.023
74.4042 0.445
74.4344 0.137
74.4647 0.091
74.4950 -0.320
74.5253 0.780
74.5556 0.213
74.5858 0.168
74.6161 -0.086
74.6464 0.286
74.6767 0.657
74.7070 -0.064
74.7372 0.412
74.7675 0.160
74.7978 -0.144
74.8281 0.073
74.8583 0.082
74.8886 0.195
74.9189 0.360
74.9492 0.005
74.9795 0.276
75.0097 -0.235
75.0400 -0.016
75.0703 0.255
75.1006 0.474
75.1309 -0.192
75.1611 -0.337
75.1914 0.231
75.2217 0.747
75.2520 0.326
75.2822 0.425
75.3125 0.057
75.3428 0.313
75.3731 0.414
75.4034 0.150
75.4336 0.720
75.4639 0.145
75.4942 0.298
75.5245 0.088
75.5548 0.138
75.5850 0.188
75.6153 0.447
75.6456 0.133
75.6759 0.289
75.7061 -0.337
75.7364 -0.242
75.7667 0.374
75.7970 0.678
75.8273 0.983
75.8575 -0.223
75.8878 -0.075
75.9181 -0.082
75.9484 -0.089
75.9787 0.529
76.0089 0.262
76.0392 0.255
76.0695 0.562
76.0998 0.139
76.1301 0.029
76.1603 -0.393
76.1906 0.487
76.2209 0.378
76.2512 0.686
76.2814 0.109
76.3117 0.053
76.3420 0.465
76.3723 0.878
76.4026 1.135
76.4328 0.976
76.4631 1.234
76.4934 1.231
76.5237 1.697
76.5540 1.226
76.5842 1.068
76.6145 1.275
76.6448 1.222
76.6751 0.908
76.7053 0.751
76.7356 0.802
76.7659 1.062
76.7962 1.791
76.8265 0.802
76.8567 0.907
76.8870 1.063
76.9173 1.533
76.9476 1.274
76.9779 1.275
77.0081 1.537
77.0384 1.487
77.0687 1.281
77.0990 0.971
77.1292 1.078
77.1595 1.602
77.1898 0.772
77.2201 0.879
77.2504 1.091
77.2806 0.366
77.3109 0.579
77.3412 0.531
77.3715 1.004
77.4018 0.801
77.4320 0.181
77.4623 0.239
77.4926 0.140
77.5229 0.407
77.5531 0.778
77.5834 0.315
77.6137 0.635
77.6440 0.902
77.6743 -0.289
77.7045 0.448
77.7348 0.508
77.7651 0.308
77.7954 0.420
77.8257 0.533
77.8559 0.333
77.8862 0.290
77.9165 -0.274
77.9468 0.048
77.9770 -0.098
78.0073 -0.244
78.0376 -0.346
78.0679 0.387
78.0982 0.182
78.1284 0.185
78.1587 0.918
78.1890 0.297
78.2193 0.250
78.2496 -0.163
78.2798 -0.054
78.3101 0.889
78.3404 0.217
78.3707 0.744
78.4009 0.750
78.4312 0.131
78.4615 0.450
78.4918 0.352
78.5221 -0.058
78.5523 -0.363
78.5826 0.098
78.6129 0.819
78.6432 0.395
78.6735 0.805
78.7037 0.590
78.7340 -0.459
78.7643 -0.153
78.7946 0.310
78.8248 0.252
78.8551 0.507
78.8854 0.137
78.9157 -0.077
78.9460 0.283
78.9762 -0.190
79.0065 -0.194
79.0368 -0.042
79.0671 0.214
79.0974 0.107
79.1276 0.676
79.1579 0.100
79.1882 0.254
79.2185 -0.009
79.2488 0.197
79.2790 -0.222
79.3093 0.245
79.3396 0.243
79.3699 -0.227
79.4001 0.241
79.4304 0.292
79.4607 1.073
79.4910 0.083
79.5213 0.395
79.5515 0.135
79.5818 0.188
79.6121 0.136
79.6424 0.294
79.6727 -0.174
79.7029 0.505
79.7332 0.038
79.7635 0.092
79.7938 0.354
79.8240 0.253
79.8543 0.516
79.8846 0.259
79.9149 -0.259
79.9452 -0.215
79.9754 0.193
80.0057 0.237
80.0360 -0.031
80.0663 0.535
80.0966 0.215
80.1268 -0.209
80.1571 0.774
80.1874 0.299
80.2177 -0.072
80.2479 0.287
80.2782 0.542
80.3085 0.328
80.3388 0.062
80.3691 0.370
80.3993 -0.156
80.4296 0.153
80.4599 -0.164
80.4902 0.249
80.5205 -0.067
80.5507 -0.279
80.5810 0.134
80.6113 -0.389
80.6416 -0.082
80.6718 0.486
80.7021 0.326
80.7324 -0.199
80.7627 -0.151
80.7930 0.210
80.8232 0.571
80.8535 0.359
80.8838 0.148
80.9141 0.614
80.9444 0.559
80.9746 0.557
81.0049 0.503
81.0352 0.501
81.0655 0.396
81.0957 0.447
81.1260 0.915
81.1563 0.549
81.1866 0.393
81.2169 0.913
81.2471 1.070
81.2774 0.445
81.3077 0.602
81.3380 1.019
81.3683 1.229
81.3985 0.240
81.4288 0.763
81.4591 0.661
81.4894 0.194
81.5196 1.342
81.5499 0.147
81.5802 0.306
81.6105 0.622
81.6408 0.364
81.6710 0.681
81.7013 0.476
81.7316 0.897
81.7619 0.433
81.7922 0.177
81.8224 0.234
81.8527 -0.334
81.8830 0.140
81.9133 -0.010
81.9436 0.256
81.9738 0.627
82.0041 0.477
82.0344 0.171
82.0647 -0.030
82.0949 0.289
82.1252 0.505
82.1555 0.148
82.1858 -0.052
82.2161 0.112
82.2463 0.225
82.2766 0.233
82.3069 0.190
82.3372 0.512
82.3675 -0.156
82.3977 0.271
82.4280 -0.240
82.4583 -0.022
82.4886 0.093
82.5188 0.520
82.5491 0.115
82.5794 -0.239
82.6097 -0.233
82.6400 1.127
82.6702 0.143
82.7005 0.202
82.7308 0.000
82.7611 0.371
82.7914 -0.090
82.8216 0.490
82.8519 0.289
82.8822 0.141
82.9125 0.253
82.9427 0.157
82.9730 0.478
83.0033 -0.034
83.0336 -0.233
83.0639 0.068
83.0941 0.473
83.1244 0.045
83.1547 0.034
83.1850 0.857
83.2153 0.638
83.2455 0.993
83.2758 -0.059
83.3061 0.505
83.3364 -0.026
83.3666 0.226
83.3969 0.321
83.4272 0.156
83.4575 -0.477
83.4878 0.400
83.5180 0.705
83.5483 -0.188
83.5786 0.117
83.6089 -0.047
83.6392 0.415
83.6694 -0.320
83.6997 -0.171
83.7300 0.396
83.7603 0.495
83.7905 -0.188
83.8208 0.223
83.8511 -0.094
83.8814 0.213
83.9117 0.261
83.9419 -0.108
83.9722 0.305
84.0025 0.144
84.0328 0.193
84.0631 -0.123
84.0933 0.187
84.1236 0.653
84.1539 0.442
84.1842 0.283
84.2144 0.333
84.2447 0.071
84.2750 0.174
84.3053 0.329
84.3356 0.328
84.3658 0.327
84.3961 0.170
84.4264 -0.299
84.4567 0.118
84.4870 -0.142
84.5172 0.118
84.5475 -0.089
84.5778 0.849
84.6081 -0.035
84.6383 -0.294
84.6686 0.125
84.6989 0.491
84.7292 0.077
84.7595 -0.441
84.7897 -0.022
84.8200 -0.019
84.8503 -0.120
84.8806 0.144
84.9109 -0.269
84.9411 0.047
84.9714 -0.001
85.0017 -0.257
85.0320 0.477
85.0623 -0.143
85.0925 0.070
85.1228 -0.133
85.1531 0.133
85.1834 -0.642
85.2136 0.354
85.2439 -0.056
85.2742 0.263
85.3045 -0.043
85.3348 0.225
85.3650 -0.132
85.3953 0.344
85.4256 0.665
85.4559 0.152
85.4862 -0.048
85.5164 0.117
85.5467 -0.239
85.5770 -0.091
85.6073 0.786
85.6375 0.361
85.6678 0.769
85.6981 0.189
85.7284 -0.183
85.7587 -0.191
85.7889 0.271
85.8192 0.265
85.8495 -0.002
85.8798 -0.113
85.9101 0.454
85.9403 -0.020
85.9706 0.235
86.0009 -0.239
86.0312 0.120
86.0614 0.063
86.0917 -0.201
86.1220 -0.101
86.1523 0.103
86.1826 0.464
86.2128 0.200
86.2431 0.093
86.2734 0.298
86.3037 0.191
86.3340 -0.072
86.3642 -0.178
86.3945 -0.232
86.4248 -0.025
86.4551 0.182
86.4853 -0.288
86.5156 0.648
86.5459 -0.134
86.5762 -0.186
86.6065 0.439
86.6367 -0.030
86.6670 -0.030
86.6973 0.179
86.7276 0.024
86.7579 0.233
86.7881 0.391
86.8184 0.289
86.8487 0.186
86.8790 -0.280
86.9092 -0.018
86.9395 0.245
86.9698 0.144
87.0001 0.199
87.0304 0.515
87.0606 -0.262
87.0909 0.315
87.1212 0.162
87.1515 -0.250
87.1818 -0.255
87.2120 0.833
87.2423 0.203
87.2726 0.042
87.3029 0.298
87.3331 -0.019
87.3634 -0.023
87.3937 0.547
87.4240 0.178
87.4543 0.748
87.4845 -0.296
87.5148 0.170
87.5451 0.584
87.5754 0.269
87.6057 0.423
87.6359 0.161
87.6662 0.681
87.6965 0.054
87.7268 -0.467
87.7571 -0.016
87.7873 0.331
87.8176 0.523
87.8479 -0.067
87.8782 0.542
87.9084 0.213
87.9387 -0.168
87.9690 -0.183
87.9993 0.374
88.0296 0.724
88.0598 0.136
88.0901 0.277
88.1204 -0.050
88.1507 0.197
88.1810 0.131
88.2112 -0.039
88.2415 -0.105
88.2718 -0.118
88.3021 0.442
88.3323 0.169
88.3626 0.469
88.3929 0.092
88.4232 0.289
88.4535 -0.139
88.4837 0.266
88.5140 -0.318
88.5443 0.244
88.5746 0.025
88.6049 0.014
88.6351 -0.100
88.6654 -0.162
88.6957 0.297
88.7260 0.444
88.7562 0.383
88.7865 0.010
88.8168 0.522
88.8471 0.826
88.8774 -0.067
88.9076 0.758
88.9379 0.178
88.9682 0.587
88.9985 0.788
89.0288 0.781
89.0590 0.514
89.0893 0.196
89.1196 1.440
89.1499 0.496
89.1801 1.011
89.2104 1.631
89.2407 1.314
89.2710 2.507
89.3013 1.304
89.3315 1.560
89.3618 1.348
89.3921 2.594
89.4224 1.080
89.4527 2.223
89.4829 2.324
89.5132 2.165
89.5435 2.319
89.5738 2.316
89.6040 1.377
89.6343 1.948
89.6646 1.582
89.6949 2.518
89.7252 1.788
89.7554 1.683
89.7857 2.204
89.8160 1.214
89.8463 2.203
89.8766 1.370
89.9068 0.850
89.9371 1.476
89.9674 1.373
89.9977 2.259
90.0279 0.438
90.0582 1.013
90.0885 1.015
90.1188 0.340
90.1491 0.290
90.1793 0.814
90.2096 0.296
90.2399 0.560
90.2702 0.511
90.3005 0.099
90.3307 0.363
90.3610 0.367
90.3913 0.164
90.4216 0.116
90.4518 0.694
90.4821 0.075
90.5124 0.445
90.5427 0.607
90.5730 0.405
90.6032 0.047
90.6335 -0.363
90.6638 0.008
90.6941 0.120
90.7244 0.232
90.7546 -0.437
90.7849 0.092
90.8152 -0.160
90.8455 0.161
90.8758 -0.091
90.9060 -0.238
90.9363 -0.228
90.9666 0.406
90.9969 -0.573
91.0271 -0.042
91.0574 -0.240
91.0877 -0.229
91.1180 0.198
91.1483 0.105
91.1785 -0.248
91.2088 0.285
91.2391 0.036
91.2694 0.309
91.2997 0.009
91.3299 -0.239
91.3602 0.243
91.3905 0.621
91.4208 0.478
91.4510 -0.081
91.4813 -0.276
91.5116 -0.184
91.5419 -0.091
91.5722 0.314
91.6024 -0.166
91.6327 0.239
91.6630 0.384
91.6933 0.165
91.7236 0.155
91.7538 -0.168
91.7841 -0.125
91.8144 0.334
91.8447 0.324
91.8749 0.107
91.9052 0.202
91.9355 -0.171
91.9658 -0.596
91.9961 0.281
92.0263 0.013
92.0566 0.370
92.0869 -0.002
92.1172 0.200
92.1475 0.870
92.1777 -0.595
92.2080 0.076
92.2383 -0.035
92.2686 0.064
92.2988 0.319
92.3291 0.053
92.3594 -0.317
92.3897 0.147
92.4200 0.455
92.4502 0.242
92.4805 0.707
92.5108 0.183
92.5411 0.023
92.5714 0.592
92.6016 0.694
92.6319 0.587
92.6622 0.480
92.6925 0.790
92.7227 0.163
92.7530 0.786
92.7833 0.264
92.8136 0.784
92.8439 0.210
92.8741 0.573
92.9044 0.313
92.9347 0.677
92.9650 0.573
92.9953 0.156
93.0255 0.261
93.0558 0.001
93.0861 0.367
93.1164 0.160
93.1466 0.318
93.1769 -0.410
93.2072 -0.199
93.2375 0.532
93.2678 0.170
93.2980 0.173
93.3283 0.801
93.3586 -0.602
93.3889 0.183
93.4192 -0.438
93.4494 0.347
93.4797 -0.065
93.5100 -0.269
93.5403 0.361
93.5706 -0.103
93.6008 -0.254
93.6311 -0.248
93.6614 -0.295
93.6917 0.065
93.7219 -0.045
93.7522 -0.206
93.7825 -0.158
93.8128 0.202
93.8431 0.146
93.8733 -0.170
93.9036 -0.590
93.9339 0.604
93.9642 0.028
93.9945 -0.287
94.0247 0.023
94.0550 0.021
94.0853 -0.554
94.1156 0.434
94.1458 -0.401
94.1761 -0.090
94.2064 -0.299
94.2367 0.009
94.2670 0.213
94.2972 0.209
94.3275 0.205
94.3578 0.150
94.3881 -0.270
94.4184 0.248
94.4486 0.401
94.4789 0.191
94.5092 0.657
94.5395 0.239
94.5697 0.341
94.6000 0.652
94.6303 0.443
94.6606 0.806
94.6909 0.285
94.7211 0.337
94.7514 0.701
94.7817 1.535
94.8120 0.441
94.8423 0.963
94.8725 1.016
94.9028 1.121
94.9331 1.903
94.9634 0.655
94.9936 2.063
95.0239 1.492
95.0542 1.182
95.0845 1.966
95.1148 1.657
95.1450 1.972
95.1753 1.976
95.2056 2.240
95.2359 1.931
95.2662 2.196
95.2964 2.929
95.3267 2.569
95.3570 1.949
95.3873 2.944
95.4175 1.283
95.4478 1.497
95.4781 1.867
95.5084 1.613
95.5387 1.776
95.5689 1.626
95.5992 1.581
95.6295 1.432
95.6598 1.387
95.6901 0.718
95.7203 0.882
95.7506 0.891
95.7809 1.003
95.8112 0.179
95.8414 1.438
95.8717 0.718
95.9020 1.300
95.9323 -0.044
95.9626 0.382
95.9928 0.445
96.0231 0.663
96.0534 0.570
96.0837 0.321
96.1140 0.748
96.1442 -0.073
96.1745 0.511
96.2048 0.680
96.2351 0.067
96.2653 -0.441
96.2956 -0.026
96.3259 0.337
96.3562 -0.185
96.3865 -0.133
96.4167 0.856
96.4470 -0.134
96.4773 0.126
96.5076 0.335
96.5379 0.492
96.5681 -0.028
96.5984 0.494
96.6287 0.182
96.6590 -0.389
96.6893 0.238
96.7195 0.188
96.7498 0.346
96.7801 0.557
96.8104 0.196
96.8406 0.199
96.8709 0.358
96.9012 0.101
96.9315 0.053
96.9618 0.161
96.9920 0.322
97.0223 0.066
97.0526 -0.033
97.0829 0.180
97.1132 0.029
97.1434 0.087
97.1737 0.614
97.2040 -0.109
97.2343 -0.624
97.2645 0.145
97.2948 0.445
97.3251 0.173
97.3554 0.578
97.3857 0.254
97.4159 0.399
97.4462 0.388
97.4765 0.013
97.5068 -0.362
97.5371 0.305
97.5673 0.347
97.5976 0.493
97.6279 -0.037
97.6582 -0.202
97.6884 0.153
97.7187 0.092
97.7490 -0.072
97.7793 0.076
97.8096 -0.088
97.8398 0.425
97.8701 0.001
97.9004 0.202
97.9307 -0.170
97.9610 0.397
97.9912 0.599
98.0215 0.436
98.0518 0.118
98.0821 0.216
98.1123 0.523
98.1426 0.258
98.1729 0.722
98.2032 0.248
98.2335 0.348
98.2637 1.490
98.2940 0.861
98.3243 0.805
98.3546 0.854
98.3849 0.903
98.4151 1.109
98.4454 0.950
98.4757 1.468
98.5060 0.997
98.5362 1.568
98.5665 1.202
98.5968 0.420
98.6271 0.627
98.6574 0.730
98.6876 0.730
98.7179 0.469
98.7482 0.156
98.7785 0.313
98.8088 1.251
98.8390 0.939
98.8693 0.315
98.8996 0.785
98.9299 0.838
98.9601 1.048
98.9904 0.425
99.0207 0.271
99.0510 -0.143
99.0813 1.006
99.1115 -0.085
99.1418 0.231
99.1721 0.755
99.2024 0.655
99.2327 -0.019
99.2629 -0.223
99.2932 0.667
99.3235 -0.057
99.3538 0.156
99.3841 -0.568
99.4143 0.271
99.4446 -0.088
99.4749 -0.290
99.5052 -0.233
99.5354 0.033
99.5657 0.196
99.5960 0.045
99.6263 0.416
99.6566 0.058
99.6868 0.065
99.7171 0.072
99.7474 -0.233
99.7777 -0.277
99.8080 -0.269
99.8382 -0.157
99.8685 0.320
99.8988 -0.557
99.9291 0.286
99.9593 -0.018
99.9896 -0.113
100.0199 0.001
100.0502 0.011
100.0805 0.490
100.1107 0.188
100.1410 -0.062
100.1713 -0.363
100.2016 0.105
100.2319 0.104
100.2621 0.313
100.2924 0.157
100.3227 0.313
100.3530 -0.363
100.3832 0.054
100.4135 -0.153
100.4438 -0.099
100.4741 -0.045
100.5044 0.009
100.5346 0.427
100.5649 0.013
100.5952 -0.401
100.6255 0.227
100.6558 0.178
100.6860 0.026
100.7163 0.446
100.7466 0.554
100.7769 0.089
100.8071 -0.271
100.8374 -0.113
100.8677 -0.059
100.8980 0.047
100.9283 0.622
100.9585 -0.157
100.9888 0.158
101.0191 0.213
101.0494 -0.513
101.0797 -0.041
101.1099 0.483
101.1402 0.070
101.1705 0.231
101.2008 -0.390
101.2310 0.396
101.2613 0.036
101.2916 -0.167
101.3219 -0.266
101.3522 -0.113
101.3824 0.716
101.4127 -0.016
101.4430 0.033
101.4733 0.134
101.5036 -0.546
101.5338 -0.093
101.5641 -0.109
101.5944 0.396
101.6247 0.015
101.6549 0.052
101.6852 0.089
101.7155 0.074
101.7458 0.789
101.7761 -0.215
101.8063 0.135
101.8366 -0.295
101.8669 0.056
101.8972 0.095
101.9275 0.394
101.9577 0.017
101.9880 0.629
102.0183 0.252
102.0486 0.032
102.0788 0.489
102.1091 0.373
102.1394 0.310
102.1697 -0.066
102.2000 0.288
102.2302 0.225
102.2605 -0.150
102.2908 -0.108
102.3211 0.247
102.3514 0.081
102.3816 0.176
102.4119 0.584
102.4422 0.054
102.4725 0.046
102.5028 0.246
102.5330 0.134
102.5633 0.491
102.5936 0.431
102.6239 0.528
102.6541 -0.104
102.6844 0.462
102.7147 1.028
102.7450 0.606
102.7753 0.287
102.8055 0.594
102.8358 0.588
102.8661 0.531
102.8964 0.839
102.9267 0.886
102.9569 0.569
102.9872 0.513
103.0175 1.394
103.0478 -0.016
103.0780 0.345
103.1083 0.967
103.1386 -0.077
103.1689 0.180
103.1992 0.074
103.2294 0.644
103.2597 0.017
103.2900 0.849
103.3203 0.066
103.3506 0.847
103.3808 0.585
103.4111 0.741
103.4414 1.157
103.4717 0.584
103.5019 0.219
103.5322 0.741
103.5625 0.741
103.5928 0.325
103.6231 0.431
103.6533 0.849
103.6836 -0.139
103.7139 1.373
103.7442 1.688
103.7745 1.169
103.8047 1.432
103.8350 1.018
103.8653 1.647
103.8956 0.817
103.9258 0.977
103.9561 0.720
103.9864 2.026
104.0167 1.614
104.0470 1.462
104.0772 1.467
104.1075 1.160
104.1378 1.738
104.1681 1.744
104.1984 0.969
104.2286 1.496
104.2589 1.867
104.2892 1.769
104.3195 1.464
104.3497 1.575
104.3800 1.478
104.4103 1.069
104.4406 0.556
104.4709 0.929
104.5011 1.198
104.5314 1.676
104.5617 0.643
104.5920 0.444
104.6223 0.557
104.6525 0.515
104.6828 0.525
104.7131 1.212
104.7434 0.285
104.7736 0.609
104.8039 0.880
104.8342 0.214
104.8645 0.069
104.8948 0.810
104.9250 0.197
104.9553 -0.155
104.9856 0.691
105.0159 0.183
105.0462 -0.065
105.0764 0.417
105.1067 0.535
105.1370 0.497
105.1673 0.146
105.1975 0.212
105.2278 -0.138
105.2581 0.242
105.2884 -0.108
105.3187 -0.145
105.3489 -0.546
105.3792 0.182
105.4095 -0.235
105.4398 -0.028
105.4701 0.597
105.5003 0.700
105.5306 0.440
105.5609 0.596
105.5912 0.284
105.6215 0.233
105.6517 0.182
105.6820 0.652
105.7123 0.237
105.7426 -0.595
105.7728 0.241
105.8031 0.347
105.8334 -0.380
105.8637 0.456
105.8940 0.147
105.9242 0.567
105.9545 0.050
105.9848 -0.207
106.0151 0.370
106.0454 0.010
106.0756 0.014
106.1059 0.644
106.1362 0.180
106.1665 -0.075
106.1967 0.712
106.2270 -0.116
106.2573 -0.005
106.2876 -0.624
106.3179 0.164
106.3481 0.431
106.3784 0.386
106.4087 -0.128
106.4390 0.661
106.4693 -0.112
106.4995 -0.260
106.5298 -0.113
106.5601 0.504
106.5904 0.444
106.6206 0.176
106.6509 0.168
106.6812 -0.047
106.7115 0.831
106.7418 -0.009
106.7720 0.349
106.8023 0.083
106.8326 0.597
106.8629 0.071
106.8932 0.117
106.9234 -0.044
106.9537 0.055
106.9840 0.207
107.0143 -0.058
107.0445 -0.271
107.0748 -0.174
107.1051 0.027
107.1354 0.020
107.1657 0.066
107.1959 -0.253
107.2262 0.366
107.2565 0.099
107.2868 -0.271
107.3171 -0.120
107.3473 0.500
107.3776 -0.078
107.4079 0.386
107.4382 -0.035
107.4684 0.377
107.4987 -0.095
107.5290 -0.255
107.5593 -0.207
107.5896 0.051
107.6198 -0.161
107.6501 0.306
107.6804 0.147
107.7107 0.145
107.7410 0.299
107.7712 0.298
107.8015 0.296
107.8318 -0.122
107.8621 -0.175
107.8923 -0.019
107.9226 0.710
107.9529 -0.176
107.9832 0.241
108.0135 0.033
108.0437 0.086
108.0740 -0.121
108.1043 -0.172
108.1346 -0.119
108.1649 0.039
108.1951 -0.011
108.2254 0.043
108.2557 -0.475
108.2860 0.413
108.3163 -0.365
108.3465 -0.258
108.3768 0.162
108.4071 0.270
108.4374 -0.247
108.4676 0.122
108.4979 0.074
108.5282 0.391
108.5585 -0.385
108.5888 -0.276
108.6190 0.398
108.6493 0.448
108.6796 0.081
108.7099 -0.026
108.7402 -0.132
108.7704 0.752
108.8007 0.125
108.8310 0.020
108.8613 0.019
108.8915 0.383
108.9218 -0.399
108.9521 0.330
108.9824 -0.034
109.0127 -0.034
109.0429 -0.242
109.0732 0.228
109.1035 -0.084
109.1338 0.178
109.1641 0.336
109.1943 -0.131
109.2246 -0.598
109.2549 0.177
109.2852 0.431
109.3154 0.425
109.3457 0.159
109.3760 0.622
109.4063 -0.060
109.4366 -0.638
109.4668 0.398
109.4971 -0.179
109.5274 0.285
109.5577 0.125
109.5880 0.382
109.6182 1.055
109.6485 0.167
109.6788 -0.305
109.7091 0.161
109.7393 0.106
109.7696 0.260
109.7999 0.414
109.8302 0.517
109.8605 0.255
109.8907 0.202
109.9210 0.149
109.9513 -0.113
109.9816 1.085
110.0119 0.616
110.0421 0.824
110.0724 -0.009
110.1027 0.252
110.1330 0.253
110.1632 0.618
110.1935 0.724
110.2238 1.038
110.2541 0.467
110.2844 0.365
110.3146 0.159
110.3449 0.422
110.3752 0.008
110.4055 0.584
110.4358 0.170
110.4660 0.747
110.4963 1.167
110.5266 0.598
110.5569 0.447
110.5871 0.816
110.6174 0.925
110.6477 0.930
110.6780 -0.107
110.7083 0.316
110.7385 0.634
110.7688 1.526
110.7991 0.803
110.8294 0.184
110.8597 0.972
110.8899 0.615
110.9202 0.362
110.9505 0.578
110.9808 0.013
111.0110 0.594
111.0413 0.706
111.0716 -0.014
111.1019 0.203
111.1322 0.421
111.1624 0.638
111.1927 0.387
111.2230 0.449
111.2533 0.251
111.2836 -0.311
111.3138 -0.208
111.3441 0.155
111.3744 -0.002
111.4047 0.102
111.4350 -0.263
111.4652 0.518
111.4955 -0.315
111.5258 0.050
111.5561 0.051
111.5863 0.312
111.6166 0.782
111.6469 0.055
111.6772 -0.100
111.7075 0.527
111.7377 0.061
111.7680 -0.249
111.7983 -0.090
111.8286 -0.087
111.8589 0.176
111.8891 -0.029
111.9194 -0.285
111.9497 0.077
111.9800 -0.239
112.0102 0.228
112.0405 -0.035
112.0708 0.276
112.1011 0.222
112.1314 -0.144
112.1616 -0.301
112.1919 0.271
112.2222 -0.042
112.2525 0.062
112.2828 0.739
112.3130 -0.095
112.3433 0.479
112.3736 0.011
112.4039 0.584
112.4341 0.065
112.4644 0.170
112.4947 -0.505
112.5250 0.591
112.5553 0.176
112.5855 -0.082
112.6158 0.494
112.6461 -0.024
112.6764 -0.177
112.7067 -0.122
112.7369 -0.326
112.7672 0.198
112.7975 0.046
112.8278 0.520
112.8580 0.160
112.8883 0.165
112.9186 0.482
112.9489 -0.241
112.9792 -0.079
113.0094 0.083
113.0397 -0.015
113.0700 -0.008
113.1003 0.102
113.1306 -0.255
113.1608 -0.263
113.1911 0.354
113.2214 0.190
113.2517 -0.182
113.2819 0.488
113.3122 -0.404
113.3425 0.266
113.3728 0.468
113.4031 0.045
113.4333 0.144
113.4636 -0.539
113.4939 0.185
113.5242 -0.237
113.5545 0.019
113.5847 0.379
113.6150 0.166
113.6453 0.006
113.6756 0.366
113.7058 -0.419
113.7361 -0.266
113.7664 -0.115
113.7967 0.141
113.8270 -0.437
113.8572 0.339
113.8875 -0.290
113.9178 0.383
113.9481 0.119
113.9784 0.167
114.0086 0.633
114.0389 0.213
114.0692 -0.050
114.0995 0.103
114.1298 -0.263
114.1600 0.099
114.1903 0.097
114.2206 0.460
114.2509 0.563
114.2811 0.666
114.3114 0.197
114.3417 0.196
114.3720 0.144
114.4023 0.092
114.4325 -0.273
114.4628 0.144
114.4931 0.093
114.5234 -0.271
114.5537 -0.337
114.5839 0.743
114.6142 0.104
114.6445 0.143
114.6748 0.181
114.7050 0.116
114.7353 0.104
114.7656 0.508
114.7959 0.443
114.8262 0.119
114.8564 0.472
114.8867 -0.060
114.9170 0.345
114.9473 -0.135
114.9776 0.480
115.0078 0.313
115.0381 -0.374
115.0684 -0.124
115.0987 -0.134
115.1289 0.638
115.1592 0.369
115.1895 0.360
115.2198 0.195
115.2501 0.082
115.2803 0.178
115.3106 -0.142
115.3409 0.319
115.3712 0.572
115.4015 0.617
115.4317 0.506
115.4620 0.499
115.4923 0.440
115.5226 0.382
115.5528 0.637
115.5831 -0.046
115.6134 0.990
115.6437 0.673
115.6740 0.355
115.7042 0.976
115.7345 0.607
115.7648 1.227
115.7951 1.328
115.8254 0.543
115.8556 0.956
115.8859 1.370
115.9162 1.054
115.9465 1.208
115.9767 1.622
116.0070 1.360
116.0373 1.566
116.0676 1.669
116.0979 1.824
116.1281 1.354
116.1584 1.249
116.1887 1.561
116.2190 1.300
116.2493 1.769
116.2795 1.873
116.3098 1.978
116.3401 2.187
116.3704 1.094
116.4006 0.731
116.4309 1.930
116.4612 1.411
116.4915 0.840
116.5218 1.988
116.5520 0.688
116.5823 1.524
116.6126 1.423
116.6429 1.739
116.6732 1.482
116.7034 0.913
116.7337 1.385
116.7640 0.973
116.7943 0.717
116.8245 0.774
116.8548 0.727
116.8851 0.680
116.9154 0.998
116.9457 0.379
116.9759 0.854
117.0062 0.391
117.0365 0.293
117.0668 0.665
117.0971 1.036
117.1273 0.992
117.1576 0.634
117.1879 0.903
117.2182 0.129
117.2485 0.867
117.2787 0.094
117.3090 0.259
117.3393 0.425
117.3696 0.590
117.3998 0.027
117.4301 0.141
117.4604 0.463
117.4907 0.005
117.5210 -0.037
117.5512 0.182
117.5815 -0.119
117.6118 0.049
117.6421 0.112
117.6724 -0.032
117.7026 -0.280
117.7329 -0.177
117.7632 0.083
117.7935 0.031
117.8237 -0.073
117.8540 -0.489
117.8843 0.345
117.9146 0.190
117.9449 -0.070
117.9751 0.244
118.0054 -0.171
118.0357 0.300
118.0660 -0.323
118.0963 0.201
118.1265 -0.109
118.1568 0.206
118.1871 -0.363
118.2174 -0.153
118.2476 -0.151
118.2779 0.477
118.3082 0.010
118.3385 -0.195
118.3688 0.277
118.3990 0.124
118.4293 -0.080
118.4596 0.757
118.4899 0.240
118.5202 0.088
118.5504 0.197
118.5807 0.723
118.6110 0.312
118.6413 -0.412
118.6715 0.792
118.7018 0.329
118.7321 0.127
118.7624 -0.231
118.7927 0.453
118.8229 -0.426
118.8532 0.363
118.8835 -0.046
118.9138 0.065
118.9441 0.490
118.9743 0.238
119.0046 -0.170
119.0349 -0.266
119.0652 0.148
119.0954 0.458
119.1257 -0.170
119.1560 0.453
119.1863 -0.382
119.2166 -0.072
119.2468 0.135
119.2771 0.342
119.3074 -0.075
119.3377 0.236
119.3680 -0.233
119.3982 -0.389
119.4285 0.275
119.4588 -0.205
119.4891 0.408
119.5193 -0.020
119.5496 -0.136
119.5799 0.009
119.6102 0.728
119.6405 0.092
119.6707 -0.335
119.7010 0.228
119.7313 0.219
119.7616 -0.103
119.7919 -0.113
119.8221 0.451
119.8524 0.286
119.8827 0.122
119.9130 -0.199
119.9433 -0.311
119.9735 0.261
120.0038 0.000
