'Id: "" Comment: "" Operator: "Lab Manager" Anode: "Cu" Scantype: "Locked Coupled" TimePerStep: "19.2" X: "9999" Y: "9999" Z: "9999" 
10.0015 0.000
10.0318 0.522
10.0620 -0.154
10.0923 -1.246
10.1226 -0.094
10.1529 0.798
10.1832 -0.810
10.2134 -0.022
10.2437 -0.067
10.2740 0.149
10.3043 -0.730
10.3346 0.267
10.3648 0.066
10.3951 -0.239
10.4254 0.342
10.4557 -0.431
10.4859 -0.215
10.5162 0.209
10.5465 0.322
10.5768 0.643
10.6071 0.703
10.6373 -0.018
10.6676 0.876
10.6979 0.833
10.7282 0.373
10.7585 1.788
10.7887 0.964
10.8190 2.067
10.8493 2.441
10.8796 3.075
10.9098 4.126
10.9401 3.771
10.9704 5.760
11.0007 8.322
11.0310 9.530
11.0612 10.999
11.0915 10.436
11.1218 11.071
11.1521 11.082
11.1824 10.363
11.2126 7.874
11.2429 6.375
11.2732 5.292
11.3035 1.709
11.3337 3.231
11.3640 1.627
11.3943 2.420
11.4246 1.234
11.4549 0.360
11.4851 0.892
11.5154 0.644
11.5457 0.708
11.5760 0.356
11.6063 0.941
11.6365 0.693
11.6668 0.132
11.6971 0.457
11.7274 -0.311
11.7577 0.379
11.7879 -0.129
11.8182 0.353
11.8485 0.626
11.8788 0.848
11.9090 0.653
11.9393 -0.063
11.9696 0.784
11.9999 0.694
12.0302 0.447
12.0604 0.045
12.0907 0.788
12.1210 0.542
12.1513 -0.121
12.1816 0.467
12.2118 -0.248
12.2421 0.131
12.2724 0.719
12.3027 0.994
12.3329 -0.188
12.3632 -0.642
12.3935 -0.126
12.4238 0.702
12.4541 0.332
12.4843 0.171
12.5146 0.375
12.5449 0.683
12.5752 0.522
12.6055 0.153
12.6357 0.409
12.6660 0.665
12.6963 0.193
12.7266 -0.228
12.7568 -0.284
12.7871 0.963
12.8174 0.282
12.8477 0.122
12.8780 0.327
12.9082 0.584
12.9385 -0.096
12.9688 0.631
12.9991 0.315
13.0294 -0.469
13.0596 -0.471
13.0899 0.568
13.1202 0.774
13.1505 0.928
13.1807 0.196
13.2110 0.090
13.2413 -0.328
13.2716 0.451
13.3019 0.241
13.3321 -0.229
13.3624 0.499
13.3927 -0.232
13.4230 0.288
13.4533 -0.338
13.4835 -0.131
13.5138 -0.132
13.5441 -0.185
13.5744 -0.237
13.6046 -0.134
13.6349 -0.655
13.6652 0.178
13.6955 -0.082
13.7258 -0.395
13.7560 0.751
13.7863 -0.290
13.8166 -0.186
13.8469 0.023
13.8772 -0.550
13.9074 -0.184
13.9377 -0.392
13.9680 0.182
13.9983 0.443
14.0285 -0.337
14.0588 -0.804
14.0891 0.812
14.1194 -0.332
14.1497 0.086
14.1799 0.765
14.2102 -0.379
14.2405 -0.013
14.2708 -0.740
14.3011 0.096
14.3313 0.046
14.3616 -0.472
14.3919 -0.262
14.4222 -0.311
14.4524 0.161
14.4827 -0.149
14.5130 -0.563
14.5433 -0.039
14.5736 -0.087
14.6038 0.489
14.6341 -0.549
14.6644 -0.494
14.6947 0.133
14.7250 -0.125
14.7552 -0.122
14.7855 -0.432
14.8158 -0.169
14.8461 -0.479
14.8764 -0.424
14.9066 -0.109
14.9369 0.050
14.9672 1.043
14.9975 0.578
15.0277 0.477
15.0580 1.678
15.0883 1.682
15.1186 1.790
15.1489 1.325
15.1791 0.860
15.2094 1.072
15.2397 0.035
15.2700 1.341
15.3003 0.252
15.3305 0.725
15.3608 -0.103
15.3911 0.683
15.4214 0.271
15.4516 0.641
15.4819 0.281
15.5122 0.130
15.5425 0.969
15.5728 0.454
15.6030 0.147
15.6333 0.309
15.6636 -0.154
15.6939 0.633
15.7242 0.379
15.7544 -0.292
15.7847 0.235
15.8150 -0.227
15.8453 -0.116
15.8755 0.255
15.9058 0.366
15.9361 -0.044
15.9664 0.223
15.9967 -0.499
16.0269 -0.179
16.0572 -0.432
16.0875 0.201
16.1178 -0.365
16.1481 -0.201
16.1783 -0.245
16.2086 0.284
16.2389 -0.750
16.2692 0.561
16.2994 0.204
16.3297 -0.048
16.3600 -0.299
16.3903 -0.030
16.4206 -0.074
16.4508 0.300
16.4811 0.049
16.5114 0.370
16.5417 -0.506
16.5720 -0.340
16.6022 0.242
16.6325 0.043
16.6628 -0.520
16.6931 0.115
16.7233 -0.083
16.7536 0.448
16.7839 -0.323
16.8142 -0.521
16.8445 0.058
16.8747 -0.092
16.9050 0.488
16.9353 0.130
16.9656 0.189
16.9959 -0.117
17.0261 0.046
17.0564 -0.207
17.0867 -0.252
17.1170 0.173
17.1472 -0.184
17.1775 -0.073
17.2078 -0.429
17.2381 -0.270
17.2684 0.828
17.2986 -0.731
17.3289 0.106
17.3592 -0.254
17.3895 -0.146
17.4198 0.171
17.4500 -0.293
17.4803 -0.341
17.5106 -0.180
17.5409 0.085
17.5712 -0.275
17.6014 -0.218
17.6317 -0.108
17.6620 0.105
17.6923 -0.358
17.7225 0.116
17.7528 0.122
17.7831 0.336
17.8134 0.081
17.8437 0.451
17.8739 0.145
17.9042 -0.474
17.9345 -0.259
17.9648 0.372
17.9951 -0.351
18.0253 0.021
18.0556 0.079
18.0859 -0.330
18.1162 0.354
18.1464 -0.264
18.1767 0.212
18.2070 -0.145
18.2373 -0.138
18.2676 -0.443
18.2978 0.502
18.3281 0.302
18.3584 -0.315
18.3887 -0.047
18.4190 -0.091
18.4492 0.438
18.4795 -0.074
18.5098 -0.639
18.5401 -0.109
18.5703 -0.153
18.6006 0.481
18.6309 -0.499
18.6612 0.187
18.6915 0.457
18.7217 -0.211
18.7520 -0.098
18.7823 -0.088
18.8126 0.234
18.8429 0.244
18.8731 -0.475
18.9034 -0.049
18.9337 -0.143
18.9640 0.597
18.9942 -0.382
19.0245 -0.372
19.0548 -0.214
19.0851 0.047
19.1154 -0.316
19.1456 0.102
19.1759 0.365
19.2062 0.366
19.2365 -0.100
19.2668 0.162
19.2970 -0.617
19.3273 0.271
19.3576 0.169
19.3879 0.275
19.4181 0.278
19.4484 0.073
19.4787 0.440
19.5090 0.026
19.5393 -0.075
19.5695 0.033
19.5998 -0.224
19.6301 -0.013
19.6604 0.147
19.6907 0.567
19.7209 0.415
19.7512 0.106
19.7815 0.423
19.8118 0.115
19.8420 -0.610
19.8723 0.019
19.9026 0.076
19.9329 0.601
19.9632 0.033
19.9934 0.611
20.0237 0.199
20.0540 0.100
20.0843 0.105
20.1146 0.684
20.1448 0.377
20.1751 -0.347
20.2054 0.075
20.2357 0.706
20.2659 0.347
20.2962 -0.219
20.3265 0.255
20.3568 -0.051
20.3871 -0.461
20.4173 -0.151
20.4476 0.471
20.4779 -0.105
20.5082 0.882
20.5385 -0.058
20.5687 -0.112
20.5990 0.563
20.6293 -0.429
20.6596 -0.170
20.6899 -0.172
20.7201 0.191
20.7504 0.606
20.7807 0.500
20.8110 0.134
20.8412 0.394
20.8715 0.497
20.9018 -0.494
20.9321 0.443
20.9624 0.025
20.9926 0.077
21.0229 -0.080
21.0532 0.440
21.0835 0.023
21.1138 0.023
21.1440 -0.081
21.1743 0.284
21.2046 -0.133
21.2349 0.597
21.2651 -0.080
21.2954 0.077
21.3257 -0.391
21.3560 0.495
21.3863 0.287
21.4165 0.028
21.4468 0.342
21.4771 0.030
21.5074 -0.229
21.5377 0.242
21.5679 0.243
21.5982 0.297
21.6285 -0.170
21.6588 -0.116
21.6890 0.563
21.7193 0.722
21.7496 -0.057
21.7799 0.101
21.8102 -0.157
21.8404 0.627
21.8707 0.057
21.9010 -0.252
21.9313 0.636
21.9616 0.379
21.9918 0.278
22.0221 -0.396
22.0524 0.128
22.0827 0.028
22.1129 0.084
22.1432 -0.538
22.1735 -0.280
22.2038 0.081
22.2341 -0.025
22.2643 0.701
22.2946 0.021
22.3249 -0.189
22.3552 0.694
22.3855 -0.246
22.4157 -0.040
22.4460 -0.146
22.4763 0.113
22.5066 -0.045
22.5368 0.058
22.5671 -0.361
22.5974 0.576
22.6277 0.835
22.6580 0.209
22.6882 0.156
22.7185 -0.106
22.7488 0.310
22.7791 -0.055
22.8094 0.257
22.8396 0.204
22.8699 0.308
22.9002 -0.056
22.9305 0.100
22.9607 0.308
22.9910 -0.213
23.0213 -0.056
23.0516 0.257
23.0819 -0.420
23.1121 -0.054
23.1424 0.207
23.1727 -0.105
23.2030 0.104
23.2333 -0.467
23.2635 0.211
23.2938 -0.152
23.3241 0.422
23.3544 0.476
23.3846 0.165
23.4149 0.167
23.4452 0.794
23.4755 -0.090
23.5058 0.277
23.5360 -0.398
23.5663 -0.031
23.5966 -0.132
23.6269 0.235
23.6572 0.134
23.6874 0.136
23.7177 -0.381
23.7480 -0.334
23.7783 -0.025
23.8086 0.231
23.8388 0.071
23.8691 0.483
23.8994 0.011
23.9297 -0.357
23.9599 0.056
23.9902 -0.573
24.0205 0.153
24.0508 -0.058
24.0811 0.147
24.1113 0.144
24.1416 0.037
24.1719 -0.174
24.2022 -0.333
24.2325 -0.387
24.2627 0.183
24.2930 -0.080
24.3233 -0.082
24.3536 -0.292
24.3838 -0.190
24.4141 -0.087
24.4444 -0.193
24.4747 0.430
24.5050 -0.561
24.5352 -0.354
24.5655 0.007
24.5958 -0.310
24.6261 -0.209
24.6564 0.204
24.6866 0.096
24.7169 -0.168
24.7472 0.193
24.7775 -0.018
24.8077 0.083
24.8380 -0.077
24.8683 -0.392
24.8986 -0.030
24.9289 0.123
24.9591 -0.348
24.9894 -0.194
25.0197 -0.092
25.0500 -0.251
25.0803 -0.513
25.1105 0.110
25.1408 -0.100
25.1711 0.835
25.2014 0.157
25.2316 0.103
25.2619 -0.002
25.2922 -0.056
25.3225 -0.161
25.3528 0.098
25.3830 0.202
25.4133 0.149
25.4436 0.617
25.4739 0.825
25.5042 0.824
25.5344 1.188
25.5647 0.772
25.5950 0.771
25.6253 2.126
25.6555 2.803
25.6858 3.480
25.7161 3.116
25.7464 3.742
25.7767 3.794
25.8069 3.066
25.8372 3.119
25.8675 2.078
25.8978 2.131
25.9281 2.080
25.9583 1.457
25.9886 1.667
26.0189 1.356
26.0492 0.316
26.0794 -0.047
26.1097 0.632
26.1400 0.374
26.1703 0.636
26.2006 0.430
26.2308 -0.088
26.2611 0.018
26.2914 0.125
26.3217 0.544
26.3520 -0.026
26.3822 -0.179
26.4125 0.241
26.4428 0.036
26.4731 -0.378
26.5034 0.303
26.5336 -0.214
26.5639 0.466
26.5942 0.210
26.6245 0.787
26.6547 -0.251
26.6850 0.274
26.7153 0.643
26.7456 0.543
26.7759 0.860
26.8061 0.500
26.8364 -0.433
26.8667 -0.167
26.8970 -0.110
26.9273 0.259
26.9575 -0.048
26.9878 0.426
27.0181 0.015
27.0484 0.125
27.0786 0.026
27.1089 0.136
27.1392 -0.014
27.1695 -0.425
27.1998 -0.002
27.2300 0.213
27.2603 0.375
27.2906 -0.295
27.3209 0.336
27.3512 -0.126
27.3814 -0.275
27.4117 0.774
27.4420 0.364
27.4723 0.580
27.5025 0.951
27.5328 0.594
27.5631 0.966
27.5934 -0.067
27.6237 0.409
27.6539 0.261
27.6842 0.581
27.7145 0.173
27.7448 -0.027
27.7751 -0.123
27.8053 -0.063
27.8356 -0.314
27.8659 -0.168
27.8962 0.291
27.9264 -0.239
27.9567 0.220
27.9870 0.888
28.0173 0.514
28.0476 0.037
28.0778 0.028
28.1081 -0.137
28.1384 0.375
28.1687 0.210
28.1990 0.618
28.2292 0.297
28.2595 -0.180
28.2898 0.229
28.3201 0.325
28.3503 0.109
28.3806 -0.472
28.4109 -0.219
28.4412 0.242
28.4715 0.391
28.5017 0.279
28.5320 0.533
28.5623 0.213
28.5926 -0.419
28.6229 0.304
28.6531 0.453
28.6834 0.238
28.7137 0.128
28.7440 -0.295
28.7742 -0.354
28.8045 -0.051
28.8348 -0.322
28.8651 0.450
28.8954 -0.133
28.9256 -0.247
28.9559 0.056
28.9862 0.464
29.0165 0.350
29.0468 -0.284
29.0770 0.072
29.1073 0.115
29.1376 0.523
29.1679 0.879
29.1981 0.818
29.2284 0.445
29.2587 0.541
29.2890 0.273
29.3193 -0.308
29.3495 1.298
29.3798 1.707
29.4101 1.283
29.4404 0.546
29.4707 0.851
29.5009 0.583
29.5312 0.889
29.5615 0.934
29.5918 0.614
29.6221 0.659
29.6523 0.548
29.6826 0.542
29.7129 0.587
29.7432 0.268
29.7734 0.366
29.8037 0.464
29.8340 0.094
29.8643 0.192
29.8946 0.186
29.9248 -0.080
29.9551 -0.346
29.9854 0.117
30.0157 0.477
30.0460 -0.102
30.0762 -0.055
30.1065 -0.008
30.1368 -0.690
30.1671 -0.230
30.1973 -0.238
30.2276 0.013
30.2579 -0.151
30.2882 -0.212
30.3185 -0.012
30.3487 0.136
30.3790 0.597
30.4093 0.381
30.4396 0.269
30.4699 0.105
30.5001 0.826
30.5304 0.402
30.5607 0.082
30.5910 0.075
30.6212 0.693
30.6515 0.529
30.6818 0.366
30.7121 0.464
30.7424 1.082
30.7726 1.596
30.8029 1.017
30.8332 -0.291
30.8635 0.848
30.8938 0.582
30.9240 1.565
30.9543 2.185
30.9846 1.346
31.0149 2.069
31.0451 2.845
31.0754 1.902
31.1057 2.001
31.1360 2.621
31.1663 3.137
31.1965 2.923
31.2268 3.283
31.2571 4.008
31.2874 5.357
31.3177 4.676
31.3479 6.182
31.3782 7.844
31.4085 7.007
31.4388 8.357
31.4690 8.822
31.4993 9.756
31.5296 12.513
31.5599 11.832
31.5902 11.152
31.6204 11.513
31.6507 11.093
31.6810 10.726
31.7113 11.087
31.7416 9.470
31.7718 7.488
31.8021 6.600
31.8324 5.556
31.8627 4.981
31.8929 6.854
31.9232 4.352
31.9535 3.516
31.9838 2.681
32.0141 2.679
32.0443 3.199
32.0746 2.364
32.1049 3.144
32.1352 2.570
32.1655 1.943
32.1957 1.578
32.2260 1.681
32.2563 1.264
32.2866 1.680
32.3169 1.783
32.3471 0.897
32.3774 1.262
32.4077 0.584
32.4380 0.584
32.4682 1.157
32.4985 0.272
32.5288 0.585
32.5591 0.377
32.5894 0.429
32.6196 0.170
32.6499 0.535
32.6802 0.744
32.7105 0.224
32.7408 0.330
32.7710 0.227
32.8013 0.072
32.8316 -0.187
32.8619 0.075
32.8921 0.597
32.9224 -0.182
32.9527 0.445
32.9830 -0.282
33.0133 0.032
33.0435 0.243
33.0738 0.141
33.1041 -0.065
33.1344 0.459
33.1647 -0.736
33.1949 -0.004
33.2252 0.259
33.2555 0.939
33.2858 -0.203
33.3160 0.321
33.3463 0.220
33.3766 0.328
33.4069 -0.189
33.4372 -0.342
33.4674 -0.442
33.4977 0.074
33.5280 0.851
33.5583 0.534
33.5886 0.269
33.6188 0.108
33.6491 1.562
33.6794 0.048
33.7097 0.252
33.7399 0.613
33.7702 0.662
33.8005 0.658
33.8308 1.279
33.8611 1.172
33.8913 1.846
33.9216 2.468
33.9519 1.163
33.9822 2.149
34.0125 1.938
34.0427 4.800
34.0730 5.162
34.1033 5.472
34.1336 6.408
34.1638 9.218
34.1941 11.820
34.2244 13.120
34.2547 14.316
34.2850 14.158
34.3152 12.594
34.3455 12.957
34.3758 9.675
34.4061 7.955
34.4364 6.600
34.4666 3.526
34.4969 2.275
34.5272 2.951
34.5575 1.753
34.5877 2.169
34.6180 1.022
34.6483 1.022
34.6786 1.022
34.7089 1.178
34.7391 0.241
34.7694 0.866
34.7997 0.866
34.8300 0.606
34.8603 0.451
34.8905 1.128
34.9208 0.869
34.9511 0.609
34.9814 0.141
35.0116 0.872
35.0419 0.196
35.0722 -0.011
35.1025 0.147
35.1328 0.461
35.1630 0.410
35.1933 0.672
35.2236 0.154
35.2539 0.729
35.2842 0.835
35.3144 1.098
35.3447 1.673
35.3750 1.363
35.4053 1.834
35.4356 1.264
35.4658 0.955
35.4961 1.895
35.5264 1.950
35.5567 2.006
35.5869 2.269
35.6172 2.429
35.6475 4.256
35.6778 3.582
35.7081 4.159
35.7383 4.371
35.7686 4.792
35.7989 7.817
35.8292 6.207
35.8595 7.513
35.8897 8.507
35.9200 8.981
35.9503 9.246
35.9806 11.751
36.0108 12.485
36.0411 14.157
36.0714 13.537
36.1017 14.688
36.1320 13.912
36.1622 14.647
36.1925 14.965
36.2228 15.075
36.2531 12.321
36.2834 10.504
36.3136 10.458
36.3439 7.808
36.3742 6.981
36.4045 5.165
36.4347 4.703
36.4650 4.241
36.4953 3.258
36.5256 3.369
36.5559 3.272
36.5861 2.498
36.6164 2.610
36.6467 2.096
36.6770 1.271
36.7073 1.278
36.7375 0.349
36.7678 1.502
36.7981 0.313
36.8284 0.425
36.8586 0.017
36.8889 0.181
36.9192 1.544
36.9495 0.719
36.9798 0.572
37.0100 0.633
37.0403 0.538
37.0706 0.234
37.1009 0.504
37.1312 -0.060
37.1614 0.262
37.1917 0.011
37.2220 -0.135
37.2523 -0.334
37.2825 -0.220
37.3128 -0.053
37.3431 0.217
37.3734 -0.033
37.4037 0.238
37.4339 -0.064
37.4642 0.415
37.4945 -0.251
37.5248 -0.396
37.5551 0.032
37.5853 -0.165
37.6156 0.054
37.6459 -0.403
37.6762 0.182
37.7064 -0.015
37.7367 0.778
37.7670 -0.095
37.7973 -0.135
37.8276 -0.435
37.8578 0.619
37.8881 0.163
37.9184 -0.085
37.9487 0.032
37.9790 -0.216
38.0092 0.578
38.0395 0.435
38.0698 0.448
38.1001 0.357
38.1304 0.058
38.1606 0.593
38.1909 -0.279
38.2212 0.151
38.2515 -0.095
38.2817 -0.133
38.3120 0.193
38.3423 -0.365
38.3726 0.326
38.4029 0.080
38.4331 0.095
38.4634 0.422
38.4937 0.124
38.5240 -0.121
38.5543 -0.314
38.5845 -0.160
38.6148 0.202
38.6451 0.200
38.6754 -0.114
38.7056 -0.116
38.7359 0.404
38.7662 -0.223
38.7965 0.244
38.8268 0.035
38.8570 -0.070
38.8873 -0.071
38.9176 0.136
38.9479 -0.333
38.9782 0.291
39.0084 -0.283
39.0387 0.186
39.0690 -0.127
39.0993 -0.283
39.1295 -0.023
39.1598 -0.127
39.1901 0.029
39.2204 -0.179
39.2507 -0.126
39.2809 -0.074
39.3112 -0.333
39.3415 -0.020
39.3718 -0.280
39.4021 -0.122
39.4323 0.035
39.4626 -0.224
39.4929 -0.015
39.5232 -0.169
39.5534 0.197
39.5837 -0.218
39.6140 -0.112
39.6443 -0.266
39.6746 0.152
39.7048 -0.314
39.7351 -0.468
39.7654 0.159
39.7957 -0.203
39.8260 0.060
39.8562 -0.302
39.8865 -0.247
39.9168 -0.296
39.9471 0.227
39.9773 -0.134
40.0076 0.130
40.0379 -0.127
40.0682 -0.072
40.0985 -0.537
40.1287 0.196
40.1590 -0.321
40.1893 -0.213
40.2196 -0.105
40.2499 -0.049
40.2801 -0.200
40.3104 0.012
40.3407 -0.035
40.3710 -0.187
40.4012 -0.182
40.4315 0.031
40.4618 -0.120
40.4921 -0.011
40.5224 -0.006
40.5526 -0.365
40.5829 -0.157
40.6132 0.051
40.6435 -0.210
40.6738 -0.054
40.7040 0.050
40.7343 0.206
40.7646 -0.523
40.7949 -0.106
40.8251 0.155
40.8554 0.207
40.8857 -0.157
40.9160 -0.156
40.9463 -0.259
40.9765 0.367
41.0068 -0.309
41.0371 -0.308
41.0674 0.318
41.0977 0.163
41.1279 0.217
41.1582 -0.250
41.1885 -0.092
41.2188 -0.143
41.2491 0.224
41.2793 -0.295
41.3096 -0.293
41.3399 -0.081
41.3702 -0.183
41.4004 -0.128
41.4307 -0.177
41.4610 -0.173
41.4913 -0.170
41.5216 -0.010
41.5518 0.202
41.5821 -0.055
41.6124 0.314
41.6427 -0.360
41.6730 -0.199
41.7032 -0.247
41.7335 0.330
41.7638 0.335
41.7941 0.027
41.8243 -0.281
41.8546 -0.177
41.8849 -0.073
41.9152 0.291
41.9455 0.083
41.9757 0.187
42.0060 -0.073
42.0363 0.292
42.0666 -0.176
42.0969 0.085
42.1271 -0.227
42.1574 -0.226
42.1877 -0.277
42.2180 0.089
42.2482 0.298
42.2785 0.091
42.3088 0.041
42.3391 -0.270
42.3694 0.044
42.3996 -0.110
42.4299 -0.004
42.4602 -0.106
42.4905 -0.208
42.5208 0.054
42.5510 -0.047
42.5813 -0.305
42.6116 0.062
42.6419 -0.092
42.6721 -0.037
42.7024 -0.034
42.7327 0.178
42.7630 0.025
42.7933 0.497
42.8235 0.032
42.8538 -0.329
42.8841 -0.173
42.9144 0.140
42.9447 -0.015
42.9749 0.038
43.0052 0.455
43.0355 -0.169
43.0658 -0.168
43.0960 -0.167
43.1263 0.095
43.1566 -0.007
43.1869 -0.058
43.2172 -0.056
43.2474 -0.002
43.2777 -0.209
43.3080 -0.155
43.3383 0.108
43.3686 -0.150
43.3988 -0.252
43.4291 -0.354
43.4594 0.115
43.4897 0.062
43.5199 -0.303
43.5502 0.062
43.5805 -0.511
43.6108 0.218
43.6411 -0.198
43.6713 -0.198
43.7016 -0.042
43.7319 -0.406
43.7622 -0.095
43.7925 -0.149
43.8227 0.265
43.8530 0.212
43.8833 0.210
43.9136 -0.104
43.9439 -0.053
43.9741 -0.003
44.0044 -0.004
44.0347 0.047
44.0650 0.098
44.0952 0.202
44.1255 0.097
44.1558 -0.008
44.1861 0.252
44.2164 -0.165
44.2466 0.095
44.2769 -0.113
44.3072 -0.165
44.3375 -0.165
44.3678 -0.269
44.3980 -0.014
44.4283 -0.019
44.4586 -0.180
44.4889 -0.290
44.5191 0.227
44.5494 -0.039
44.5797 0.426
44.6100 -0.100
44.6403 0.000
44.6705 0.048
44.7008 0.044
44.7311 -0.377
44.7614 -0.120
44.7917 -0.124
44.8219 0.289
44.8522 -0.287
44.8825 -0.030
44.9128 0.539
44.9430 0.015
44.9733 0.690
45.0036 -0.095
45.0339 0.580
45.0642 0.421
45.0944 0.106
45.1247 -0.105
45.1550 -0.368
45.1853 -0.006
45.2156 -0.008
45.2458 -0.062
45.2761 -0.220
45.3064 -0.013
45.3367 0.298
45.3669 0.192
45.3972 -0.018
45.4275 0.033
45.4578 -0.020
45.4881 -0.073
45.5183 -0.022
45.5486 -0.440
45.5789 0.029
45.6092 -0.285
45.6395 0.132
45.6697 -0.442
45.7000 -0.025
45.7303 -0.077
45.7606 -0.077
45.7908 -0.077
45.8211 0.131
45.8514 -0.441
45.8817 -0.287
45.9120 -0.081
45.9422 -0.135
45.9725 -0.293
46.0028 -0.092
46.0331 -0.099
46.0634 -0.314
46.0936 0.043
46.1239 -0.224
46.1542 0.082
46.1845 0.023
46.2147 0.433
46.2450 0.271
46.2753 -0.048
46.3056 0.050
46.3359 0.357
46.3661 0.090
46.3964 -0.228
46.4267 0.287
46.4570 -0.135
46.4873 -0.297
46.5175 0.219
46.5478 0.162
46.5781 0.261
46.6084 0.308
46.6386 0.355
46.6689 -0.066
46.6992 -0.019
46.7295 0.654
46.7598 0.493
46.7900 0.385
46.8203 -0.088
46.8506 0.377
46.8809 0.685
46.9112 0.577
46.9414 0.626
46.9717 0.726
47.0020 0.410
47.0323 0.199
47.0626 1.029
47.0928 1.234
47.1231 1.283
47.1534 0.812
47.1837 1.226
47.2139 1.379
47.2442 1.585
47.2745 1.583
47.3048 1.424
47.3351 1.943
47.3653 1.472
47.3956 1.262
47.4259 1.573
47.4562 1.727
47.4865 1.778
47.5167 1.516
47.5470 1.202
47.5773 1.513
47.6076 1.564
47.6378 1.199
47.6681 0.260
47.6984 1.197
47.7287 0.051
47.7590 1.040
47.7892 1.092
47.8195 -0.055
47.8498 0.883
47.8801 0.935
47.9104 0.206
47.9406 0.883
47.9709 0.258
48.0012 -0.106
48.0315 0.051
48.0617 0.469
48.0920 0.782
48.1223 0.679
48.1526 -0.050
48.1829 -0.153
48.2131 0.213
48.2434 0.006
48.2737 -0.096
48.3040 -0.095
48.3343 -0.145
48.3645 0.013
48.3948 0.015
48.4251 0.017
48.4554 0.176
48.4856 0.230
48.5159 0.076
48.5462 -0.390
48.5765 -0.127
48.6068 0.084
48.6370 0.191
48.6673 0.038
48.6976 -0.271
48.7279 -0.007
48.7582 -0.212
48.7884 -0.365
48.8187 0.211
48.8490 0.215
48.8793 -0.041
48.9095 -0.037
48.9398 0.227
48.9701 -0.029
49.0004 0.183
49.0307 0.136
49.0609 -0.485
49.0912 0.197
49.1215 -0.058
49.1518 -0.001
49.1821 -0.205
49.2123 0.165
49.2426 0.118
49.2729 -0.397
49.3032 0.129
49.3334 -0.074
49.3637 0.036
49.3940 0.042
49.4243 0.309
49.4546 0.054
49.4848 0.269
49.5151 -0.142
49.5454 0.021
49.5757 0.236
49.6060 -0.070
49.6362 0.041
49.6665 -0.004
49.6968 0.107
49.7271 -0.146
49.7574 -0.139
49.7876 0.337
49.8179 -0.124
49.8482 0.352
49.8785 -0.056
49.9087 -0.309
49.9390 -0.101
49.9693 0.055
49.9996 -0.206
50.0299 -0.258
50.0601 -0.102
50.0904 0.107
50.1207 -0.049
50.1510 -0.309
50.1813 -0.102
50.2115 -0.104
50.2418 0.155
50.2721 0.414
50.3024 0.257
50.3326 0.100
50.3629 -0.005
50.3932 0.307
50.4235 0.202
50.4538 0.566
50.4840 0.149
50.5143 -0.060
50.5446 -0.269
50.5749 0.200
50.6052 0.044
50.6354 -0.373
50.6657 0.097
50.6960 -0.164
50.7263 0.045
50.7565 -0.006
50.7868 -0.214
50.8171 0.464
50.8474 -0.212
50.8777 0.310
50.9079 -0.366
50.9382 0.000
50.9685 0.054
50.9988 0.264
51.0291 0.005
51.0593 -0.097
51.0896 -0.043
51.1199 0.063
51.1502 0.273
51.1804 -0.245
51.2107 0.122
51.2410 0.020
51.2713 0.283
51.3016 -0.339
51.3318 -0.024
51.3621 -0.333
51.3924 -0.124
51.4227 0.242
51.4530 -0.329
51.4832 0.037
51.5135 0.142
51.5438 0.196
51.5741 0.198
51.6043 0.044
51.6346 -0.006
51.6649 0.152
51.6952 -0.002
51.7255 0.053
51.7557 0.107
51.7860 0.006
51.8163 -0.043
51.8466 0.168
51.8769 -0.246
51.9071 0.070
51.9374 -0.135
51.9677 0.181
51.9980 -0.024
52.0282 -0.229
52.0585 -0.381
52.0888 0.089
52.1191 0.039
52.1494 -0.168
52.1796 0.043
52.2099 -0.320
52.2402 0.203
52.2705 0.206
52.3008 0.052
52.3310 -0.206
52.3613 0.057
52.3916 0.112
52.4219 0.532
52.4521 0.222
52.4824 -0.035
52.5127 0.125
52.5430 0.337
52.5733 0.340
52.6035 0.240
52.6338 -0.069
52.6641 -0.013
52.6944 0.147
52.7247 0.412
52.7549 0.104
52.7852 0.160
52.8155 0.321
52.8458 0.065
52.8761 0.382
52.9063 0.231
52.9366 0.392
52.9669 0.137
52.9972 -0.170
53.0274 -0.321
53.0577 0.037
53.0880 0.291
53.1183 0.285
53.1486 0.071
53.1788 0.273
53.2091 0.111
53.2394 0.001
53.2697 0.361
53.3000 0.564
53.3302 -0.067
53.3605 0.293
53.3908 0.079
53.4211 -0.186
53.4513 -0.034
53.4816 0.065
53.5119 0.217
53.5422 0.160
53.5725 0.156
53.6027 -0.057
53.6330 -0.061
53.6633 0.404
53.6936 0.504
53.7239 0.084
53.7541 0.132
53.7844 0.077
53.8147 0.230
53.8450 -0.138
53.8752 0.171
53.9055 0.272
53.9358 -0.095
53.9661 0.006
53.9964 0.160
54.0266 -0.103
54.0569 0.103
54.0872 0.101
54.1175 0.203
54.1478 0.200
54.1780 0.094
54.2083 0.353
54.2386 -0.013
54.2689 0.193
54.2991 0.817
54.3294 -0.226
54.3597 -0.123
54.3900 0.084
54.4203 -0.178
54.4505 0.186
54.4808 0.237
54.5111 0.080
54.5414 -0.024
54.5717 -0.077
54.6019 0.131
54.6322 0.287
54.6625 0.027
54.6928 0.131
54.7230 0.444
54.7533 0.131
54.7836 0.080
54.8139 0.132
54.8442 0.237
54.8744 0.186
54.9047 -0.230
54.9350 -0.281
54.9653 0.083
54.9956 -0.281
55.0258 -0.281
55.0561 0.130
55.0864 0.073
55.1167 -0.036
55.1469 0.011
55.1772 -0.046
55.2075 -0.102
55.2378 0.205
55.2681 0.253
55.2983 -0.324
55.3286 0.401
55.3589 0.553
55.3892 -0.024
55.4195 0.337
55.4497 -0.188
55.4800 0.642
55.5103 0.170
55.5406 0.323
55.5709 -0.097
55.6011 0.264
55.6314 0.470
55.6617 -0.054
55.6920 0.204
55.7222 -0.059
55.7525 0.511
55.7828 0.352
55.8131 0.819
55.8434 0.869
55.8736 0.710
55.9039 0.760
55.9342 0.498
55.9645 0.965
55.9948 0.495
56.0250 1.066
56.0553 0.961
56.0856 0.803
56.1159 0.906
56.1461 0.957
56.1764 1.946
56.2067 1.320
56.2370 1.632
56.2673 2.205
56.2975 1.475
56.3278 2.464
56.3581 2.047
56.3884 2.776
56.4187 2.099
56.4489 3.766
56.4792 2.985
56.5095 2.934
56.5398 3.559
56.5700 2.622
56.6003 2.206
56.6306 2.155
56.6609 1.687
56.6912 2.626
56.7214 2.627
56.7517 1.431
56.7820 1.640
56.8123 1.225
56.8426 1.175
56.8728 0.968
56.9031 1.127
56.9334 0.660
56.9637 0.818
56.9939 0.404
57.0242 0.615
57.0545 0.148
57.0848 0.516
57.1151 0.623
57.1453 0.782
57.1756 0.160
57.2059 0.215
57.2362 -0.042
57.2665 0.169
57.2967 -0.035
57.3270 0.385
57.3573 0.024
57.3876 -0.337
57.4178 -0.178
57.4481 0.034
57.4784 0.037
57.5087 0.092
57.5390 -0.165
57.5692 0.256
57.5995 0.259
57.6298 -0.258
57.6601 -0.149
57.6904 0.011
57.7206 0.171
57.7509 0.123
57.7812 0.024
57.8115 -0.128
57.8417 0.085
57.8720 0.038
57.9023 0.042
57.9326 -0.369
57.9629 -0.156
57.9931 0.058
58.0234 -0.093
58.0537 0.069
58.0840 0.335
58.1143 -0.128
58.1445 0.086
58.1748 -0.013
58.2051 -0.007
58.2354 0.156
58.2656 0.371
58.2959 0.221
58.3262 -0.242
58.3565 -0.183
58.3868 -0.072
58.4170 -0.378
58.4473 -0.065
58.4776 -0.065
58.5079 0.144
58.5382 -0.064
58.5684 -0.011
58.5987 0.302
58.6290 0.095
58.6593 0.252
58.6896 -0.164
58.7198 0.150
58.7501 0.204
58.7804 -0.160
58.8107 0.259
58.8409 -0.052
58.8712 -0.207
58.9015 0.108
58.9318 0.162
58.9621 -0.148
58.9923 0.219
59.0226 -0.092
59.0529 -0.454
59.0832 -0.039
59.1135 0.116
59.1437 0.167
59.1740 0.061
59.2043 -0.149
59.2346 0.111
59.2648 -0.203
59.2951 0.369
59.3254 0.368
59.3557 0.368
59.3860 -0.258
59.4162 0.106
59.4465 0.002
59.4768 0.158
59.5071 0.158
59.5374 0.210
59.5676 -0.154
59.5979 0.002
59.6282 0.003
59.6585 0.159
59.6887 0.056
59.7190 0.004
59.7493 -0.151
59.7796 0.058
59.8099 0.112
59.8401 0.009
59.8704 -0.042
59.9007 0.011
59.9310 -0.195
59.9613 -0.037
59.9915 0.173
60.0218 -0.138
60.0521 -0.032
60.0824 0.127
60.1126 0.077
60.1429 -0.025
60.1732 -0.022
60.2035 0.032
60.2338 0.139
60.2640 -0.118
60.2943 -0.167
60.3246 -0.060
60.3549 -0.109
60.3852 -0.001
60.4154 -0.154
60.4457 -0.151
60.4760 -0.043
60.5063 -0.091
60.5365 -0.243
60.5668 -0.349
60.5971 0.379
60.6274 0.014
60.6577 0.169
60.6879 -0.144
60.7182 0.064
60.7485 0.272
60.7788 0.324
60.8091 0.532
60.8393 -0.041
60.8696 0.167
60.8999 0.272
60.9302 -0.145
60.9604 0.168
60.9907 0.117
61.0210 -0.143
61.0513 0.431
61.0816 0.744
61.1118 -0.193
61.1421 -0.243
61.1724 0.062
61.2027 -0.049
61.2330 0.049
61.2632 -0.218
61.2935 0.088
61.3238 0.186
61.3541 -0.237
61.3844 0.121
61.4146 0.272
61.4449 -0.047
61.4752 -0.052
61.5055 0.671
61.5357 0.353
61.5660 0.244
61.5963 0.343
61.6266 -0.079
61.6569 0.124
61.6871 0.275
61.7174 0.062
61.7477 0.058
61.7780 0.105
61.8083 -0.160
61.8385 0.201
61.8688 0.249
61.8991 0.244
61.9294 0.345
61.9596 -0.180
61.9899 0.493
62.0202 0.177
62.0505 0.538
62.0808 0.743
62.1110 0.376
62.1413 0.112
62.1716 0.474
62.2019 0.471
62.2322 0.312
62.2624 0.830
62.2927 0.879
62.3230 1.294
62.3533 0.927
62.3835 1.602
62.4138 1.652
62.4441 1.129
62.4744 1.127
62.5047 1.021
62.5349 2.009
62.5652 2.164
62.5955 1.485
62.6258 2.317
62.6561 1.848
62.6863 2.003
62.7166 3.304
62.7469 1.949
62.7772 1.948
62.8074 2.208
62.8377 2.468
62.8680 1.739
62.8983 1.999
62.9286 1.999
62.9588 2.311
62.9891 1.635
63.0194 1.791
63.0497 1.896
63.0800 1.323
63.1102 1.272
63.1405 0.439
63.1708 0.544
63.2011 0.337
63.2313 0.650
63.2616 0.495
63.2919 0.653
63.3222 0.602
63.3525 0.448
63.3827 0.345
63.4130 0.087
63.4433 0.505
63.4736 -0.274
63.5039 0.145
63.5341 0.147
63.5644 0.514
63.5947 -0.056
63.6250 -0.002
63.6552 -0.103
63.6855 0.212
63.7158 0.163
63.7461 0.010
63.7764 0.170
63.8066 -0.192
63.8369 0.385
63.8672 0.336
63.8975 0.236
63.9278 0.187
63.9580 0.139
63.9883 -0.013
64.0186 0.043
64.0489 -0.005
64.0791 -0.209
64.1094 0.161
64.1397 -0.095
64.1700 -0.038
64.2003 0.123
64.2305 0.024
64.2608 -0.232
64.2911 0.034
64.3214 -0.169
64.3517 0.045
64.3819 -0.002
64.4122 -0.257
64.4425 -0.154
64.4728 0.104
64.5031 -0.262
64.5333 -0.055
64.5636 0.256
64.5939 -0.162
64.6242 0.045
64.6544 0.044
64.6847 0.043
64.7150 -0.323
64.7453 -0.063
64.7756 0.040
64.8058 -0.064
64.8361 -0.013
64.8664 0.143
64.8967 0.039
64.9270 -0.117
64.9572 -0.326
64.9875 0.143
65.0178 -0.117
65.0481 -0.064
65.0783 0.092
65.1086 -0.115
65.1389 -0.114
65.1692 0.095
65.1995 -0.165
65.2297 -0.111
65.2600 0.150
65.2903 0.047
65.3206 -0.160
65.3509 0.259
65.3811 0.104
65.4114 -0.206
65.4417 -0.257
65.4720 0.055
65.5022 -0.049
65.5325 0.159
65.5628 0.002
65.5931 0.106
65.6234 -0.415
65.6536 0.158
65.6839 -0.362
65.7142 0.159
65.7445 -0.205
65.7748 -0.257
65.8050 0.000
65.8353 -0.056
65.8656 -0.112
65.8959 0.248
65.9261 0.037
65.9564 0.189
65.9867 0.290
66.0170 0.131
66.0473 -0.289
66.0775 0.176
66.1078 0.278
66.1381 -0.038
66.1684 0.168
66.1987 0.322
66.2289 0.632
66.2592 0.317
66.2895 0.263
66.3198 0.417
66.3500 -0.002
66.3803 -0.056
66.4106 0.724
66.4409 -0.163
66.4712 -0.269
66.5014 -0.014
66.5317 0.084
66.5620 -0.182
66.5923 0.022
66.6226 -0.088
66.6528 0.011
66.6831 -0.098
66.7134 0.054
66.7437 -0.003
66.7739 -0.112
66.8042 0.509
66.8345 0.036
66.8648 0.396
66.8951 0.027
66.9253 0.179
66.9556 0.071
66.9859 0.172
67.0162 0.324
67.0465 -0.044
67.0767 0.318
67.1070 -0.050
67.1373 -0.001
67.1676 -0.161
67.1978 0.149
67.2281 0.354
67.2584 0.352
67.2887 0.193
67.3190 0.399
67.3492 0.344
67.3795 0.550
67.4098 0.444
67.4401 0.650
67.4704 0.544
67.5006 1.168
67.5309 0.281
67.5612 0.540
67.5915 1.007
67.6218 1.370
67.6520 1.161
67.6823 1.472
67.7126 1.940
67.7429 1.470
67.7731 1.626
67.8034 1.469
67.8337 1.417
67.8640 1.885
67.8943 0.739
67.9245 1.728
67.9548 1.364
67.9851 1.364
68.0154 1.364
68.0457 1.104
68.0759 0.688
68.1062 1.105
68.1365 0.325
68.1668 1.263
68.1970 0.847
68.2273 1.005
68.2576 1.058
68.2879 0.747
68.3182 0.644
68.3484 0.541
68.3787 0.699
68.4090 0.336
68.4393 0.703
68.4696 0.549
68.4998 0.863
68.5301 0.501
68.5604 0.139
68.5907 0.766
68.6209 0.821
68.6512 0.459
68.6815 0.618
68.7118 0.204
68.7421 0.624
68.7723 0.158
68.8026 0.683
68.8329 0.738
68.8632 0.846
68.8935 0.641
68.9237 0.905
68.9540 0.909
68.9843 0.392
69.0146 0.709
69.0448 0.453
69.0751 0.561
69.1054 0.566
69.1357 0.414
69.1660 0.263
69.1962 0.528
69.2265 0.168
69.2568 0.277
69.2871 0.595
69.3174 -0.077
69.3476 0.293
69.3779 -0.170
69.4082 -0.060
69.4385 0.258
69.4687 0.264
69.4990 0.218
69.5293 0.016
69.5596 -0.030
69.5899 -0.024
69.6201 -0.017
69.6504 0.041
69.6807 -0.004
69.7110 -0.153
69.7413 0.010
69.7715 0.538
69.8018 -0.132
69.8321 -0.177
69.8624 -0.170
69.8926 -0.162
69.9229 -0.259
69.9532 0.114
69.9835 0.018
70.0138 0.026
70.0440 0.034
70.0743 0.042
70.1046 0.050
70.1349 0.007
70.1652 0.067
70.1954 0.076
70.2257 0.189
70.2560 0.146
70.2863 0.155
70.3166 0.164
70.3468 0.017
70.3771 -0.286
70.4074 -0.068
70.4377 -0.215
70.4679 -0.112
70.4982 0.408
70.5285 -0.218
70.5588 -0.010
70.5891 0.250
70.6193 0.145
70.6496 0.353
70.6799 0.145
70.7102 0.040
70.7405 -0.324
70.7707 0.041
70.8010 -0.063
70.8313 0.197
70.8616 -0.219
70.8918 -0.010
70.9221 -0.270
70.9524 0.044
70.9827 -0.164
71.0130 -0.215
71.0432 0.042
71.0735 0.039
71.1038 -0.172
71.1341 -0.123
71.1644 -0.178
71.1946 -0.129
71.2249 -0.131
71.2552 0.283
71.2855 0.228
71.3157 0.018
71.3460 -0.088
71.3763 -0.195
71.4066 -0.144
71.4369 0.114
71.4671 0.113
71.4974 0.267
71.5277 0.005
71.5580 0.056
71.5883 -0.257
71.6185 -0.102
71.6488 0.053
71.6791 0.052
71.7094 -0.053
71.7396 -0.053
71.7699 -0.210
71.8002 -0.158
71.8305 0.102
71.8608 -0.211
71.8910 -0.159
71.9213 -0.002
71.9516 -0.158
71.9819 -0.106
72.0122 -0.053
72.0424 0.051
72.0727 -0.365
72.1030 -0.155
72.1333 0.108
72.1635 -0.255
72.1938 -0.201
72.2241 0.010
72.2544 0.064
72.2847 -0.090
72.3149 0.121
72.3452 0.020
72.3755 0.283
72.4058 -0.131
72.4361 -0.024
72.4663 0.188
72.4966 0.139
72.5269 0.038
72.5572 0.198
72.5874 0.097
72.6177 0.049
72.6480 0.001
72.6783 0.161
72.7086 0.061
72.7388 0.221
72.7691 -0.087
72.7994 0.126
72.8297 0.026
72.8600 -0.177
72.8902 0.036
72.9205 0.041
72.9508 0.098
72.9811 0.207
73.0113 -0.100
73.0416 -0.251
73.0719 0.007
73.1022 0.056
73.1325 0.210
73.1627 -0.157
73.1930 0.101
73.2233 0.099
73.2536 -0.008
73.2839 0.199
73.3141 0.197
73.3444 0.195
73.3747 0.089
73.4050 -0.068
73.4353 -0.018
73.4655 -0.279
73.4958 -0.072
73.5261 -0.124
73.5564 0.136
73.5866 0.188
73.6169 -0.020
73.6472 -0.020
73.6775 -0.124
73.7078 0.189
73.7380 0.189
73.7683 0.034
73.7986 0.243
73.8289 -0.225
73.8592 -0.172
73.8894 -0.067
73.9197 0.090
73.9500 0.092
73.9803 0.145
74.0105 -0.010
74.0408 0.096
74.0711 -0.267
74.1014 0.100
74.1317 0.102
74.1619 0.052
74.1922 -0.102
74.2225 -0.100
74.2528 -0.149
74.2831 -0.199
74.3133 -0.096
74.3436 0.111
74.3739 0.058
74.4042 -0.047
74.4344 -0.048
74.4647 0.212
74.4950 0.055
74.5253 0.158
74.5556 0.054
74.5858 0.262
74.6161 0.262
74.6464 0.001
74.6767 -0.103
74.7070 -0.207
74.7372 0.418
74.7675 0.158
74.7978 0.107
74.8281 0.055
74.8583 0.108
74.8886 0.109
74.9189 0.370
74.9492 -0.045
74.9795 -0.148
75.0097 -0.199
75.0400 -0.044
75.0703 0.006
75.1006 -0.048
75.1309 0.003
75.1611 0.210
75.1914 -0.208
75.2217 -0.209
75.2520 0.206
75.2822 -0.003
75.3125 -0.056
75.3428 0.152
75.3731 -0.214
75.4034 -0.006
75.4336 -0.006
75.4639 0.098
75.4942 0.098
75.5245 -0.111
75.5548 -0.163
75.5850 -0.058
75.6153 0.307
75.6456 -0.109
75.6759 -0.161
75.7061 -0.160
75.7364 0.205
75.7667 -0.158
75.7970 0.207
75.8273 0.052
75.8575 0.158
75.8878 0.055
75.9181 -0.048
75.9484 -0.098
75.9787 0.060
76.0089 -0.355
76.0392 -0.151
76.0695 0.053
76.0998 0.362
76.1301 0.045
76.1603 0.198
76.1906 0.090
76.2209 0.242
76.2512 -0.022
76.2814 0.131
76.3117 0.024
76.3420 0.229
76.3723 -0.034
76.4026 0.119
76.4328 0.064
76.4631 0.062
76.4934 0.111
76.5237 -0.256
76.5540 -0.102
76.5842 0.365
76.6145 0.102
76.6448 0.048
76.6751 0.099
76.7053 0.149
76.7356 0.095
76.7659 0.250
76.7962 0.249
76.8265 0.195
76.8567 0.090
76.8870 -0.067
76.9173 -0.224
76.9476 0.244
76.9779 0.035
77.0081 0.295
77.0384 0.294
77.0687 0.138
77.0990 -0.279
77.1292 0.137
77.1595 -0.227
77.1898 -0.175
77.2201 -0.018
77.2504 0.242
77.2806 0.087
77.3109 -0.277
77.3412 0.140
77.3715 -0.015
77.4018 -0.014
77.4320 0.039
77.4623 -0.168
77.4926 -0.063
77.5229 0.304
77.5531 0.045
77.5834 0.046
77.6137 0.204
77.6440 -0.002
77.6743 0.417
77.7045 0.106
77.7348 -0.256
77.7651 -0.203
77.7954 -0.201
77.8257 0.008
77.8559 0.114
77.8862 0.480
77.9165 -0.091
77.9468 -0.089
77.9770 -0.087
78.0073 0.124
78.0376 -0.030
78.0679 0.024
78.0982 0.079
78.1284 -0.179
78.1587 0.136
78.1890 -0.278
78.2193 0.090
78.2496 0.093
78.2798 -0.112
78.3101 -0.109
78.3404 0.415
78.3707 0.210
78.4009 -0.203
78.4312 -0.199
78.4615 0.059
78.4918 0.525
78.5221 0.106
78.5523 0.104
78.5826 0.258
78.6129 -0.109
78.6432 0.046
78.6735 -0.164
78.7037 0.042
78.7340 -0.272
78.7643 0.039
78.7946 -0.066
78.8248 0.141
78.8551 -0.069
78.8854 -0.070
78.9157 0.398
78.9460 0.137
78.9762 -0.124
79.0065 -0.125
79.0368 0.136
79.0671 -0.125
79.0974 0.187
79.1276 0.083
79.1579 0.083
79.1882 0.031
79.2185 0.084
79.2488 0.188
79.2790 -0.020
79.3093 -0.279
79.3396 -0.076
79.3699 0.180
79.4001 0.020
79.4304 0.120
79.4607 -0.092
79.4910 0.164
79.5213 0.213
79.5515 0.209
79.5818 -0.003
79.6121 -0.215
79.6424 -0.166
79.6727 0.195
79.7029 0.036
79.7332 0.137
79.7635 -0.230
79.7938 -0.076
79.8240 0.077
79.8543 0.127
79.8846 -0.136
79.9149 0.018
79.9452 0.016
79.9754 -0.194
80.0057 -0.300
80.0360 0.167
80.0663 -0.043
80.0966 0.059
80.1268 -0.046
80.1571 0.004
80.1874 -0.153
80.2177 -0.050
80.2479 -0.207
80.2782 0.105
80.3085 -0.209
80.3388 -0.209
80.3691 -0.210
80.3993 -0.054
80.4296 -0.210
80.4599 -0.210
80.4902 0.050
80.5205 -0.366
80.5507 -0.054
80.5810 0.311
80.6113 -0.313
80.6416 -0.104
80.6718 0.000
80.7021 -0.155
80.7324 0.106
80.7627 -0.101
80.7930 0.161
80.8232 -0.150
80.8535 0.007
80.8838 -0.200
80.9141 -0.146
80.9444 0.116
80.9746 -0.142
81.0049 -0.036
81.0352 0.070
81.0655 0.020
81.0957 0.127
81.1260 0.286
81.1563 0.288
81.1866 -0.074
81.2169 -0.123
81.2471 -0.016
81.2774 0.560
81.3077 0.042
81.3380 -0.006
81.3683 0.153
81.3985 -0.208
81.4288 0.161
81.4591 0.321
81.4894 -0.196
81.5196 0.224
81.5499 -0.084
81.5802 0.285
81.6105 0.081
81.6408 -0.332
81.6710 -0.175
81.7013 0.033
81.7316 -0.175
81.7619 0.294
81.7922 0.087
81.8224 0.035
81.8527 0.192
81.8830 0.037
81.9133 -0.223
81.9436 0.039
81.9738 0.196
82.0041 0.042
82.0344 -0.061
82.0647 0.305
82.0949 0.255
82.1252 0.204
82.1555 0.050
82.1858 -0.104
82.2161 -0.102
82.2463 0.057
82.2766 -0.045
82.3069 -0.199
82.3372 -0.146
82.3675 0.011
82.3977 0.220
82.4280 0.013
82.4583 0.223
82.4886 -0.245
82.5188 0.069
82.5491 0.331
82.5794 0.177
82.6097 0.126
82.6400 -0.028
82.6702 0.026
82.7005 0.133
82.7308 0.291
82.7611 0.294
82.7914 -0.069
82.8216 0.559
82.8519 0.301
82.8822 0.096
82.9125 -0.005
82.9427 0.050
82.9730 0.053
83.0033 0.004
83.0336 0.008
83.0639 0.168
83.0941 -0.141
83.1244 0.279
83.1547 -0.081
83.1850 -0.181
83.2153 -0.133
83.2455 -0.033
83.2758 0.119
83.3061 0.220
83.3364 0.268
83.3666 -0.100
83.3969 -0.051
83.4272 -0.106
83.4575 0.151
83.4878 -0.060
83.5180 -0.115
83.5483 -0.118
83.5786 -0.016
83.6089 -0.123
83.6392 0.135
83.6694 0.029
83.6997 0.131
83.7300 0.233
83.7603 -0.030
83.7905 0.021
83.8208 0.175
83.8511 0.174
83.8814 0.068
83.9117 -0.037
83.9419 0.118
83.9722 0.117
84.0025 -0.093
84.0328 0.219
84.0631 0.166
84.0933 -0.147
84.1236 -0.095
84.1539 0.217
84.1842 -0.148
84.2144 0.216
84.2447 -0.096
84.2750 -0.148
84.3053 0.217
84.3356 0.113
84.3658 -0.043
84.3961 -0.199
84.4264 -0.252
84.4567 0.268
84.4870 0.215
84.5172 0.214
84.5475 0.214
84.5778 0.057
84.6081 -0.099
84.6383 0.161
84.6686 0.056
84.6989 0.317
84.7292 0.213
84.7595 -0.204
84.7897 0.109
84.8200 -0.203
84.8503 0.110
84.8806 -0.045
84.9109 -0.044
84.9411 0.009
84.9714 0.218
85.0017 -0.249
85.0320 0.169
85.0623 0.066
85.0925 -0.193
85.1228 0.121
85.1531 -0.138
85.1834 0.021
85.2136 0.075
85.2439 -0.288
85.2742 -0.077
85.3045 -0.179
85.3348 -0.176
85.3650 -0.018
85.3953 -0.119
85.4256 -0.116
85.4559 -0.113
85.4862 0.202
85.5164 0.049
85.5467 0.157
85.5770 -0.257
85.6073 0.059
85.6375 0.011
85.6678 -0.193
85.6981 -0.089
85.7284 0.276
85.7587 -0.036
85.7889 0.173
85.8192 0.225
85.8495 0.122
85.8798 -0.085
85.9101 0.228
85.9403 -0.031
85.9706 0.231
86.0009 0.180
86.0312 -0.131
86.0614 -0.181
86.0917 -0.027
86.1220 -0.028
86.1523 0.074
86.1826 -0.187
86.2128 0.436
86.2431 -0.138
86.2734 -0.086
86.3037 0.069
86.3340 0.173
86.3642 0.120
86.3945 -0.141
86.4248 -0.193
86.4551 0.066
86.4853 -0.144
86.5156 -0.249
86.5459 0.166
86.5762 0.061
86.6065 0.060
86.6367 0.007
86.6670 -0.149
86.6973 0.163
86.7276 0.006
86.7579 -0.046
86.7881 -0.151
86.8184 0.162
86.8487 -0.098
86.8790 0.266
86.9092 -0.098
86.9395 0.059
86.9698 0.164
87.0001 0.008
87.0304 -0.043
87.0606 0.270
87.0909 0.063
87.1212 -0.196
87.1515 0.117
87.1818 0.119
87.2120 -0.036
87.2423 0.070
87.2726 0.124
87.3029 0.074
87.3331 0.284
87.3634 0.234
87.3937 -0.076
87.4240 0.134
87.4543 0.085
87.4845 0.244
87.5148 0.142
87.5451 -0.168
87.5754 -0.269
87.6057 0.090
87.6359 -0.175
87.6662 -0.077
87.6965 0.075
87.7268 -0.087
87.7571 0.013
87.7873 0.060
87.8176 0.159
87.8479 -0.366
87.8782 0.255
87.9084 0.250
87.9387 -0.014
87.9690 0.034
87.9993 -0.126
88.0296 0.026
88.0598 -0.238
88.0901 0.123
88.1204 0.276
88.1507 0.220
88.1810 -0.095
88.2112 -0.203
88.2415 0.159
88.2718 -0.104
88.3021 -0.055
88.3323 0.411
88.3626 0.200
88.3929 0.094
88.4232 0.091
88.4535 0.193
88.4837 -0.278
88.5140 -0.279
88.5443 0.185
88.5746 0.076
88.6049 -0.033
88.6351 0.067
88.6654 0.167
88.6957 -0.046
88.7260 0.211
88.7562 -0.314
88.7865 0.151
88.8168 -0.009
88.8471 -0.065
88.8774 -0.016
88.9076 -0.123
88.9379 0.082
88.9682 0.079
88.9985 0.180
89.0288 0.281
89.0590 0.278
89.0893 0.120
89.1196 0.325
89.1499 0.271
89.1801 -0.096
89.2104 -0.046
89.2407 -0.152
89.2710 -0.154
89.3013 0.105
89.3315 0.207
89.3618 0.049
89.3921 0.569
89.4224 0.255
89.4527 -0.111
89.4829 0.461
89.5132 0.512
89.5435 0.303
89.5738 0.042
89.6040 0.249
89.6343 0.405
89.6646 0.457
89.6949 0.352
89.7252 -0.012
89.7554 0.092
89.7857 0.509
89.8160 0.248
89.8463 0.353
89.8766 0.145
89.9068 0.354
89.9371 0.302
89.9674 -0.009
89.9977 -0.060
90.0279 0.201
90.0582 0.098
90.0885 0.099
90.1188 -0.056
90.1491 0.050
90.1793 0.156
90.2096 0.418
90.2399 0.055
90.2702 0.109
90.3005 -0.045
90.3307 -0.147
90.3610 -0.197
90.3913 0.066
90.4216 -0.244
90.4518 -0.137
90.4821 0.074
90.5124 -0.183
90.5427 -0.284
90.5730 0.084
90.6032 0.139
90.6335 0.142
90.6638 -0.323
90.6941 -0.007
90.7244 0.154
90.7546 0.157
90.7849 0.109
90.8152 0.166
90.8455 0.014
90.8758 0.227
90.9060 -0.029
90.9363 0.184
90.9666 0.240
90.9969 0.193
91.0271 -0.166
91.0574 -0.161
91.0877 -0.104
91.1180 0.006
91.1483 0.115
91.1785 -0.192
91.2088 0.179
91.2391 0.236
91.2694 0.138
91.2997 -0.168
91.3299 0.098
91.3602 0.053
91.3905 0.372
91.4208 0.222
91.4510 -0.136
91.4813 -0.181
91.5116 -0.086
91.5419 -0.042
91.5722 0.263
91.6024 0.255
91.6327 0.195
91.6630 0.187
91.6933 -0.133
91.7236 -0.088
91.7538 0.425
91.7841 0.210
91.8144 0.151
91.8447 0.091
91.8749 0.032
91.9052 0.182
91.9355 0.123
91.9658 -0.092
91.9961 -0.098
92.0263 0.104
92.0566 0.879
92.0869 0.040
92.1172 -0.279
92.1475 0.080
92.1777 0.178
92.2080 -0.035
92.2383 0.428
92.2686 0.058
92.2988 0.001
92.3291 -0.213
92.3594 0.095
92.3897 -0.119
92.4200 0.033
92.4502 0.080
92.4805 -0.080
92.5108 0.019
92.5411 0.432
92.5714 -0.145
92.6016 0.059
92.6319 0.003
92.6622 -0.001
92.6925 -0.265
92.7227 -0.111
92.7530 -0.218
92.7833 0.040
92.8136 0.038
92.8439 0.192
92.8741 -0.330
92.9044 0.032
92.9347 0.343
92.9650 -0.127
92.9953 0.080
93.0255 -0.026
93.0558 -0.183
93.0861 -0.132
93.1164 -0.185
93.1466 -0.186
93.1769 0.125
93.2072 -0.188
93.2375 -0.240
93.2678 0.124
93.2980 -0.137
93.3283 -0.033
93.3586 -0.137
93.3889 -0.449
93.4192 0.019
93.4494 -0.293
93.4797 0.019
93.5100 -0.189
93.5403 -0.136
93.5706 -0.136
93.6008 -0.031
93.6311 -0.395
93.6614 0.023
93.6917 -0.132
93.7219 -0.392
93.7522 0.026
93.7825 -0.285
93.8128 -0.023
93.8431 -0.021
93.8733 -0.020
93.9036 0.034
93.9339 -0.120
93.9642 -0.066
93.9945 0.040
94.0247 -0.218
94.0550 0.045
94.0853 -0.109
94.1156 -0.262
94.1458 0.053
94.1761 0.056
94.2064 -0.150
94.2367 0.010
94.2670 -0.143
94.2972 0.277
94.3275 -0.032
94.3578 -0.289
94.3881 -0.025
94.4184 -0.230
94.4486 -0.230
94.4789 0.029
94.5092 -0.128
94.5395 -0.078
94.5697 -0.079
94.6000 0.441
94.6303 0.180
94.6606 0.075
94.6909 -0.343
94.7211 -0.083
94.7514 -0.031
94.7817 0.281
94.8120 -0.084
94.8423 -0.032
94.8725 0.280
94.9028 0.020
94.9331 0.020
94.9634 0.125
94.9936 0.282
95.0239 0.178
95.0542 0.231
95.0845 -0.029
95.1148 0.180
95.1450 0.286
95.1753 0.339
95.2056 0.288
95.2359 0.133
95.2662 0.551
95.2964 0.345
95.3267 0.555
95.3570 -0.016
95.3873 0.506
95.4175 0.092
95.4478 -0.010
95.4781 0.096
95.5084 0.151
95.5387 -0.003
95.5689 0.104
95.5992 0.003
95.6295 0.110
95.6598 0.165
95.6901 0.168
95.7203 -0.037
95.7506 0.123
95.7809 0.491
95.8112 0.495
95.8414 0.238
95.8717 -0.175
95.9020 0.246
95.9323 -0.167
95.9626 -0.215
95.9928 -0.062
96.0231 -0.065
96.0534 0.035
96.0837 -0.072
96.1140 -0.127
96.1442 0.130
96.1745 0.128
96.2048 0.021
96.2351 -0.034
96.2653 -0.141
96.2956 0.065
96.3259 -0.041
96.3562 -0.095
96.3865 0.111
96.4167 -0.151
96.4470 -0.049
96.4773 -0.311
96.5076 0.104
96.5379 -0.314
96.5681 -0.055
96.5984 -0.212
96.6287 -0.109
96.6590 0.359
96.6893 0.150
96.7195 -0.372
96.7498 -0.164
96.7801 -0.061
96.8104 -0.009
96.8406 -0.113
96.8709 0.095
96.9012 0.095
96.9315 0.043
96.9618 0.095
96.9920 -0.009
97.0223 0.304
97.0526 -0.060
97.0829 0.254
97.1132 -0.266
97.1434 0.099
97.1737 0.048
97.2040 -0.211
97.2343 -0.054
97.2645 -0.261
97.2948 -0.052
97.3251 -0.365
97.3554 -0.054
97.3857 0.100
97.4159 0.254
97.4462 -0.269
97.4765 0.094
97.5068 -0.116
97.5371 -0.273
97.5673 0.038
97.5976 -0.120
97.6279 0.139
97.6582 -0.122
97.6884 -0.227
97.7187 0.033
97.7490 -0.176
97.7793 -0.021
97.8096 -0.073
97.8398 0.083
97.8701 0.135
97.9004 -0.074
97.9307 -0.074
97.9610 0.135
97.9912 0.135
98.0215 0.292
98.0518 0.344
98.0821 -0.072
98.1123 0.137
98.1426 0.086
98.1729 -0.173
98.2032 0.088
98.2335 -0.223
98.2637 0.091
98.2940 -0.012
98.3243 0.146
98.3546 0.148
98.3849 0.306
98.4151 -0.213
98.4454 0.257
98.4757 0.520
98.5060 0.106
98.5362 0.889
98.5665 0.058
98.5968 0.113
98.6271 0.012
98.6574 -0.142
98.6876 -0.034
98.7179 0.125
98.7482 -0.028
98.7785 0.392
98.8088 0.031
98.8390 0.191
98.8693 0.350
98.8996 -0.323
98.9299 -0.215
98.9601 0.198
98.9904 0.143
99.0207 0.088
99.0510 -0.072
99.0813 0.029
99.1115 0.339
99.1418 -0.081
99.1721 -0.136
99.2024 0.018
99.2327 0.328
99.2629 0.170
99.2932 0.219
99.3235 0.165
99.3538 0.163
99.3841 -0.151
99.4143 -0.361
99.4446 0.158
99.4749 0.261
99.5052 -0.105
99.5354 0.206
99.5657 -0.212
99.5960 -0.213
99.6263 -0.058
99.6566 0.098
99.6868 -0.007
99.7171 -0.008
99.7474 0.096
99.7777 0.043
99.8080 -0.113
99.8382 -0.374
99.8685 0.199
99.8988 -0.113
99.9291 -0.113
99.9593 0.148
99.9896 0.096
100.0199 -0.164
100.0502 -0.007
100.0805 -0.318
100.1107 0.464
100.1410 -0.056
100.1713 -0.211
100.2016 -0.106
100.2319 0.260
100.2621 -0.259
100.2924 0.003
100.3227 0.265
100.3530 0.007
100.3832 -0.043
100.4135 0.115
100.4438 0.326
100.4741 0.328
100.5044 0.122
100.5346 -0.032
100.5649 0.075
100.5952 -0.130
100.6255 -0.127
100.6558 0.240
100.6860 0.087
100.7163 0.143
100.7466 0.146
100.7769 -0.111
100.8071 0.049
100.8374 -0.156
100.8677 -0.308
100.8980 0.052
100.9283 -0.057
100.9585 0.095
100.9888 0.298
101.0191 0.398
101.0494 0.134
101.0797 0.129
101.1099 0.021
101.1402 -0.035
101.1705 -0.247
101.2008 0.218
101.2310 -0.306
101.2613 0.003
101.2916 0.208
101.3219 -0.056
101.3522 0.097
101.3824 -0.062
101.4127 0.040
101.4430 -0.432
101.4733 0.243
101.5036 0.136
101.5338 -0.023
101.5641 -0.129
101.5944 -0.183
101.6247 0.179
101.6549 -0.083
101.6852 -0.241
101.7155 0.070
101.7458 -0.140
101.7761 -0.194
101.8063 -0.195
101.8366 0.064
101.8669 0.115
101.8972 0.062
101.9275 0.165
101.9577 0.217
101.9880 0.164
102.0183 -0.201
102.0486 -0.149
102.0788 0.059
102.1091 0.111
102.1394 0.111
102.1697 0.111
102.2000 -0.045
102.2302 0.476
102.2605 0.008
102.2908 0.165
102.3211 -0.095
102.3514 0.062
102.3816 0.063
102.4119 -0.040
102.4422 -0.091
102.4725 0.118
102.5028 0.016
102.5330 -0.191
102.5633 0.279
102.5936 -0.240
102.6239 0.699
102.6541 -0.288
102.6844 -0.078
102.7147 -0.180
102.7450 -0.230
102.7753 -0.021
102.8055 -0.282
102.8358 0.187
102.8661 -0.334
102.8964 -0.230
102.9267 0.184
102.9569 0.286
102.9872 0.439
103.0175 0.072
103.0478 0.018
103.0780 0.068
103.1083 0.326
103.1386 0.272
103.1689 0.062
103.1992 -0.253
103.2294 -0.098
103.2597 0.005
103.2900 0.160
103.3203 0.314
103.3506 -0.103
103.3808 0.625
103.4111 -0.001
103.4414 -0.262
103.4717 0.101
103.5019 0.257
103.5322 0.257
103.5625 -0.108
103.5928 0.048
103.6231 -0.317
103.6533 -0.160
103.6836 0.049
103.7139 0.102
103.7442 0.103
103.7745 0.104
103.8047 0.053
103.8350 0.315
103.8653 0.316
103.8956 -0.047
103.9258 0.111
103.9561 0.478
103.9864 0.011
104.0167 0.221
104.0470 0.067
104.0772 0.122
104.1075 0.437
104.1378 0.127
104.1681 0.181
104.1984 0.132
104.2286 0.031
104.2589 0.346
104.2892 0.402
104.3195 0.405
104.3497 0.200
104.3800 0.255
104.4103 -0.054
104.4406 0.471
104.4709 0.214
104.5011 0.427
104.5314 0.327
104.5617 0.175
104.5920 0.335
104.6223 0.496
104.6525 0.240
104.6828 0.349
104.7131 0.093
104.7434 0.515
104.7736 -0.157
104.8039 -0.204
104.8342 0.061
104.8645 -0.142
104.8948 0.280
104.9250 0.078
104.9553 -0.177
104.9856 -0.119
105.0159 -0.113
105.0462 0.205
105.0764 -0.257
105.1067 -0.199
105.1370 0.160
105.1673 0.311
105.1975 0.045
105.2278 0.404
105.2581 0.451
105.2884 -0.023
105.3187 0.233
105.3489 0.384
105.3792 0.275
105.4095 -0.094
105.4398 0.214
105.4701 0.209
105.5003 0.049
105.5306 -0.320
105.5609 0.509
105.5912 -0.120
105.6215 0.189
105.6517 0.029
105.6820 -0.183
105.7123 0.231
105.7426 0.227
105.7728 0.276
105.8031 0.013
105.8334 -0.043
105.8637 -0.202
105.8940 0.473
105.9242 0.105
105.9545 -0.053
105.9848 0.101
106.0151 -0.110
106.0454 0.096
106.0756 0.094
106.1059 -0.012
106.1362 -0.118
106.1665 -0.016
106.1967 -0.069
106.2270 -0.019
106.2573 -0.124
106.2876 -0.230
106.3179 -0.077
106.3481 0.023
106.3784 0.020
106.4087 0.016
106.4390 -0.247
106.4693 0.322
106.4995 -0.045
106.5298 0.004
106.5601 0.261
106.5904 0.258
106.6206 0.360
106.6509 0.149
106.6812 -0.062
106.7115 0.092
106.7418 0.038
106.7720 -0.120
106.8023 0.242
106.8326 -0.072
106.8629 0.083
106.8932 -0.075
106.9234 0.184
106.9537 0.130
106.9840 -0.131
107.0143 0.180
107.0445 -0.237
107.0748 0.126
107.1051 0.021
107.1354 -0.292
107.1657 0.072
107.1959 0.124
107.2262 -0.189
107.2565 -0.293
107.2868 0.072
107.3171 0.177
107.3473 -0.083
107.3776 0.179
107.4079 -0.081
107.4382 0.181
107.4684 -0.026
107.4987 -0.233
107.5290 0.185
107.5593 -0.386
107.5896 0.136
107.6198 -0.227
107.6501 -0.277
107.6804 0.142
107.7107 -0.272
107.7410 -0.114
107.7712 -0.007
107.8015 -0.109
107.8318 -0.054
107.8621 0.105
107.8923 0.160
107.9226 0.111
107.9529 -0.094
107.9832 0.117
108.0135 0.225
108.0437 -0.240
108.0740 0.128
108.1043 -0.389
108.1346 0.188
108.1649 -0.173
108.1951 -0.117
108.2254 0.096
108.2557 0.100
108.2860 0.417
108.3163 -0.047
108.3465 0.010
108.3768 0.171
108.4071 -0.085
108.4374 -0.080
108.4676 0.030
108.4979 0.139
108.5282 -0.168
108.5585 -0.215
108.5888 0.042
108.6190 -0.118
108.6493 -0.018
108.6796 -0.126
108.7099 -0.077
108.7402 0.232
108.7704 0.281
108.8007 0.226
108.8310 -0.038
108.8613 -0.353
108.8915 0.113
108.9218 0.162
108.9521 -0.049
108.9824 -0.103
109.0127 -0.106
109.0429 0.309
109.0732 -0.058
109.1035 0.096
109.1338 0.042
109.1641 -0.116
109.1943 -0.221
109.2246 0.090
109.2549 -0.016
109.2852 -0.278
109.3154 -0.018
109.3457 0.033
109.3760 -0.072
109.4063 -0.230
109.4366 -0.129
109.4668 -0.132
109.4971 0.177
109.5274 0.070
109.5577 -0.037
109.5880 -0.144
109.6182 0.270
109.6485 0.007
109.6788 -0.048
109.7091 -0.154
109.7393 -0.209
109.7696 -0.003
109.7999 0.100
109.8302 -0.007
109.8605 0.044
109.8907 0.198
109.9210 -0.168
109.9513 0.143
109.9816 0.038
110.0119 -0.068
110.0421 -0.017
110.0724 0.191
110.1027 0.398
110.1330 -0.071
110.1632 0.241
110.1935 -0.124
110.2238 -0.125
110.2541 0.239
110.2844 0.031
110.3146 0.396
110.3449 -0.386
110.3752 0.240
110.4055 0.188
110.4358 -0.124
110.4660 0.241
110.4963 0.033
110.5266 0.086
110.5569 0.139
110.5871 0.505
110.6174 0.037
110.6477 0.195
110.6780 -0.064
110.7083 0.354
110.7385 -0.061
110.7688 0.097
110.7991 0.099
110.8294 0.048
110.8597 0.207
110.8899 -0.208
110.9202 0.680
110.9505 0.058
110.9808 0.216
111.0110 0.115
111.0413 0.378
111.0716 -0.140
111.1019 0.019
111.1322 0.023
111.1624 0.078
111.1927 -0.075
111.2230 0.085
111.2533 0.088
111.2836 0.040
111.3138 0.096
111.3441 0.048
111.3744 -0.313
111.4047 -0.154
111.4350 0.160
111.4652 -0.098
111.4955 0.061
111.5258 -0.302
111.5561 0.222
111.5863 -0.088
111.6166 -0.085
111.6469 -0.134
111.6772 0.181
111.7075 -0.232
111.7377 0.136
111.7680 -0.174
111.7983 0.195
111.8286 0.042
111.8589 -0.215
111.8891 -0.165
111.9194 0.145
111.9497 -0.065
111.9800 -0.119
112.0102 0.347
112.0405 0.241
112.0708 -0.229
112.1011 -0.179
112.1314 -0.232
112.1616 0.079
112.1919 0.183
112.2222 0.182
112.2525 -0.287
112.2828 0.129
112.3130 -0.079
112.3433 0.025
112.3736 0.285
112.4039 0.077
112.4341 0.493
112.4644 0.285
112.4947 -0.235
112.5250 -0.078
112.5553 0.131
112.5855 -0.025
112.6158 0.080
112.6461 -0.231
112.6764 0.082
112.7067 -0.229
112.7369 0.085
112.7672 -0.226
112.7975 0.192
112.8278 -0.066
112.8580 0.196
112.8883 -0.115
112.9186 0.044
112.9489 -0.215
112.9792 -0.218
113.0094 0.143
113.0397 0.192
113.0700 0.345
113.1003 0.238
113.1306 0.027
113.1608 -0.184
113.1911 -0.186
113.2214 -0.084
113.2517 0.226
113.2819 -0.245
113.3122 -0.195
113.3425 0.324
113.3728 0.166
113.4031 0.164
113.4333 -0.046
113.4636 0.161
113.4939 -0.153
113.5242 0.315
113.5545 -0.051
113.5847 0.052
113.6150 -0.053
113.6453 0.155
113.6756 -0.211
113.7058 -0.055
113.7361 0.205
113.7664 0.205
113.7967 0.048
113.8270 0.048
113.8572 -0.108
113.8875 0.153
113.9178 0.101
113.9481 0.310
113.9784 -0.054
114.0086 0.102
114.0389 -0.105
114.0692 -0.313
114.0995 -0.002
114.1298 0.100
114.1600 -0.058
114.1903 -0.164
114.2206 0.146
114.2509 0.041
114.2811 0.143
114.3114 0.090
114.3417 -0.016
114.3720 0.035
114.4023 -0.070
114.4325 -0.071
114.4628 0.449
114.4931 -0.020
114.5234 0.084
114.5537 -0.229
114.5839 -0.230
114.6142 -0.026
114.6445 -0.084
114.6748 -0.193
114.7050 -0.198
114.7353 -0.046
114.7656 -0.207
114.7959 -0.003
114.8262 0.149
114.8564 -0.168
114.8867 -0.120
114.9170 -0.020
114.9473 0.184
114.9776 0.180
115.0078 -0.136
115.0381 -0.243
115.0684 -0.093
115.0987 -0.098
115.1289 0.001
115.1592 0.048
115.1895 -0.426
115.2198 -0.169
115.2501 -0.277
115.2803 0.188
115.3106 -0.076
115.3409 -0.079
115.3712 0.022
115.4015 0.019
115.4317 0.016
115.4620 -0.091
115.4923 0.166
115.5226 0.216
115.5528 0.057
115.5831 -0.050
115.6134 0.052
115.6437 0.102
115.6740 -0.056
115.7042 -0.319
115.7345 0.200
115.7648 -0.062
115.7951 -0.116
115.8254 0.091
115.8556 0.246
115.8859 0.141
115.9162 0.192
115.9465 -0.070
115.9767 0.294
116.0070 0.241
116.0373 -0.124
116.0676 0.656
116.0979 0.344
116.1281 -0.021
116.1584 -0.074
116.1887 0.135
116.2190 0.395
116.2493 0.239
116.2795 0.239
116.3098 0.031
116.3401 0.084
116.3704 0.345
116.4006 0.606
116.4309 0.294
116.4612 -0.173
116.4915 0.453
116.5218 0.350
116.5520 -0.013
116.5823 0.040
116.6126 0.302
116.6429 -0.009
116.6732 0.358
116.7034 -0.109
116.7337 0.153
116.7640 0.051
116.7943 0.106
116.8245 -0.309
116.8548 0.162
116.8851 -0.408
116.9154 -0.197
116.9457 -0.090
116.9759 0.174
117.0062 0.229
117.0365 0.128
117.0668 -0.077
117.0971 0.030
117.1273 -0.122
117.1576 -0.223
117.1879 -0.063
117.2182 -0.007
117.2485 0.102
117.2787 0.054
117.3090 -0.307
117.3393 0.271
117.3696 -0.037
117.3998 -0.345
117.4301 -0.088
117.4604 0.170
117.4907 0.168
117.5210 -0.303
117.5512 -0.097
117.5815 0.214
117.6118 0.055
117.6421 -0.207
117.6724 0.104
117.7026 -0.210
117.7329 -0.055
117.7632 -0.057
117.7935 0.359
117.8237 0.201
117.8540 -0.373
117.8843 -0.113
117.9146 -0.166
117.9449 -0.010
117.9751 0.145
118.0054 -0.115
118.0357 0.041
118.0660 -0.012
118.0963 0.092
118.1265 0.092
118.1568 0.249
118.1871 0.301
118.2174 -0.167
118.2476 -0.114
118.2779 -0.114
118.3082 -0.269
118.3385 -0.011
118.3688 0.091
118.3990 0.089
118.4293 0.139
118.4596 -0.123
118.4899 0.084
118.5202 -0.074
118.5504 -0.023
118.5807 0.184
118.6110 -0.025
118.6413 -0.130
118.6715 -0.027
118.7018 -0.080
118.7321 0.388
118.7624 0.023
118.7927 -0.238
118.8229 -0.186
118.8532 -0.082
118.8835 -0.290
118.9138 0.022
118.9441 -0.186
118.9743 -0.081
119.0046 0.023
119.0349 -0.080
119.0652 -0.236
119.0954 -0.079
119.1257 0.078
119.1560 0.184
119.1863 -0.024
119.2166 0.030
119.2468 -0.073
119.2771 -0.124
119.3074 0.086
119.3377 0.244
119.3680 -0.118
119.3982 0.040
119.4285 -0.219
119.4588 -0.164
119.4891 -0.214
119.5193 0.049
119.5496 -0.053
119.5799 -0.206
119.6102 0.265
119.6405 -0.253
119.6707 0.115
119.7010 -0.090
119.7313 -0.243
119.7616 -0.228
119.7919 0.307
119.8221 -0.094
119.8524 0.130
119.8827 0.145
119.9130 0.369
119.9433 -0.032
119.9735 0.088
120.0038 0.000
