'Id: "" Comment: "" Operator: "Lab Manager" Anode: "Cu" Scantype: "Locked Coupled" TimePerStep: "19.2" X: "9999" Y: "9999" Z: "9999" 
10.0015 0.000
10.0318 1.079
10.0620 0.595
10.0923 0.841
10.1226 0.306
10.1529 -0.645
10.1832 1.321
10.2134 0.891
10.2437 0.982
10.2740 0.189
10.3043 0.645
10.3346 -0.096
10.3648 0.726
10.3951 0.142
10.4254 1.641
10.4557 1.006
10.4859 1.620
10.5162 1.090
10.5465 1.288
10.5768 1.123
10.6071 1.270
10.6373 0.740
10.6676 1.096
10.6979 0.984
10.7282 0.664
10.7585 0.500
10.7887 -0.184
10.8190 0.955
10.8493 1.469
10.8796 2.557
10.9098 3.176
10.9401 4.004
10.9704 4.884
11.0007 5.764
11.0310 6.854
11.0612 7.474
11.0915 5.856
11.1218 6.165
11.1521 4.078
11.1824 3.658
11.2126 2.822
11.2429 1.570
11.2732 1.515
11.3035 0.628
11.3337 1.564
11.3640 0.990
11.3943 0.416
11.4246 0.364
11.4549 1.614
11.4851 0.155
11.5154 0.416
11.5457 0.105
11.5760 1.251
11.6063 0.420
11.6365 0.682
11.6668 -0.202
11.6971 0.478
11.7274 0.949
11.7577 0.483
11.7879 0.747
11.8182 0.178
11.8485 0.494
11.8788 0.342
11.9090 -0.226
11.9393 0.351
11.9696 0.044
11.9999 0.727
12.0302 -0.153
12.0604 -0.043
12.0907 0.901
12.1210 0.439
12.1513 0.342
12.1816 0.245
12.2118 -0.008
12.2421 0.313
12.2724 0.269
12.3027 0.278
12.3329 -0.026
12.3632 -0.121
12.3935 -0.059
12.4238 -0.414
12.4541 -0.306
12.4843 0.634
12.5146 0.169
12.5449 0.225
12.5752 0.126
12.6055 0.026
12.6357 -0.177
12.6660 -0.172
12.6963 -0.791
12.7266 0.360
12.7568 0.523
12.7871 0.113
12.8174 0.640
12.8477 0.023
12.8780 -0.178
12.9082 0.767
12.9385 -0.162
12.9688 0.784
12.9991 0.636
13.0294 0.749
13.0596 -0.231
13.0899 0.404
13.1202 0.205
13.1505 0.216
13.1807 -0.086
13.2110 0.706
13.2413 0.196
13.2716 0.208
13.3019 0.116
13.3321 1.326
13.3624 0.453
13.3927 0.466
13.4230 -0.771
13.4533 -0.393
13.4835 0.126
13.5138 0.019
13.5441 0.018
13.5744 0.693
13.6046 0.172
13.6349 1.108
13.6652 0.379
13.6955 -0.090
13.7258 0.066
13.7560 -0.037
13.7863 0.120
13.8166 -0.192
13.8469 -0.086
13.8772 0.697
13.9074 0.074
13.9377 0.649
13.9680 0.392
13.9983 0.291
14.0285 0.242
14.0588 -0.379
14.0891 0.354
14.1194 0.045
14.1497 0.519
14.1799 0.055
14.2102 -0.096
14.2405 -0.611
14.2708 0.065
14.3011 0.482
14.3313 0.482
14.3616 0.794
14.3919 -0.247
14.4222 0.796
14.4524 0.276
14.4827 0.226
14.5130 -0.501
14.5433 0.282
14.5736 0.232
14.6038 0.392
14.6341 -0.282
14.6644 0.294
14.6947 0.350
14.7250 -0.063
14.7552 0.410
14.7855 0.884
14.8158 -0.153
14.8461 -0.304
14.8764 -0.142
14.9066 -0.240
14.9369 -0.234
14.9672 -0.019
14.9975 -0.585
15.0277 -0.009
15.0580 -0.267
15.0883 -0.316
15.1186 -0.626
15.1489 0.420
15.1791 0.007
15.2094 0.219
15.2397 0.380
15.2700 0.177
15.3003 0.546
15.3305 -0.229
15.3608 -0.380
15.3911 -0.380
15.4214 0.344
15.4516 0.495
15.4819 -0.031
15.5122 -0.192
15.5425 0.012
15.5728 -0.044
15.6030 0.161
15.6333 0.679
15.6636 0.988
15.6939 -0.212
15.7242 -0.111
15.7544 0.512
15.7847 -0.062
15.8150 0.717
15.8453 -0.221
15.8755 0.299
15.9058 0.819
15.9361 -0.170
15.9664 0.142
15.9967 0.299
16.0269 -0.065
16.0572 -0.793
16.0875 0.039
16.1178 0.141
16.1481 1.129
16.1783 0.504
16.2086 0.399
16.2389 0.346
16.2692 -0.227
16.2994 -0.330
16.3297 -0.226
16.3600 -0.120
16.3903 0.558
16.4206 0.247
16.4508 -0.064
16.4811 0.407
16.5114 -0.163
16.5417 -0.056
16.5720 0.260
16.6022 -0.101
16.6325 -0.150
16.6628 0.584
16.6931 0.588
16.7233 -0.032
16.7536 0.077
16.7839 0.030
16.8142 0.349
16.8445 0.563
16.8747 -0.160
16.9050 0.368
16.9353 0.583
16.9656 -0.035
16.9959 0.129
17.0261 -0.592
17.0564 -0.063
17.0867 -0.055
17.1170 -0.150
17.1472 0.224
17.1775 0.077
17.2078 0.764
17.2381 0.253
17.2684 0.628
17.2986 0.743
17.3289 0.494
17.3592 0.088
17.3895 0.308
17.4198 0.216
17.4500 0.333
17.4803 0.449
17.5106 0.514
17.5409 0.684
17.5712 0.020
17.6014 0.503
17.6317 0.517
17.6620 0.324
17.6923 0.807
17.7225 0.458
17.7528 0.317
17.7831 0.229
17.8134 0.036
17.8437 0.626
17.8739 0.486
17.9042 0.347
17.9345 0.937
17.9648 0.330
17.9951 -0.017
18.0253 0.887
18.0556 -0.449
18.0859 0.925
18.1162 0.215
18.1464 -0.234
18.1767 -0.527
18.2070 0.188
18.2373 0.383
18.2676 0.839
18.2978 0.618
18.3281 0.657
18.3584 -0.136
18.3887 0.373
18.4190 0.674
18.4492 0.714
18.4795 1.224
18.5098 0.068
18.5401 0.110
18.5703 1.089
18.6006 0.350
18.6309 0.393
18.6612 0.124
18.6915 0.740
18.7217 0.211
18.7520 0.567
18.7823 -0.013
18.8126 0.083
18.8429 0.232
18.8731 -0.035
18.9034 0.688
18.9337 0.629
18.9640 0.051
18.9942 -0.007
19.0245 0.248
19.0548 0.191
19.0851 0.655
19.1154 0.234
19.1456 -0.238
19.1759 0.279
19.2062 0.223
19.2365 -0.301
19.2668 -0.043
19.2970 0.319
19.3273 0.525
19.3576 0.003
19.3879 -0.051
19.4181 -0.416
19.4484 0.208
19.4787 -0.522
19.5090 0.311
19.5393 -0.314
19.5695 0.468
19.5998 0.364
19.6301 -0.103
19.6604 0.002
19.6907 0.525
19.7209 0.371
19.7512 -0.148
19.7815 0.011
19.8118 -0.194
19.8420 0.590
19.8723 -0.083
19.9026 0.025
19.9329 0.237
19.9632 0.867
19.9934 0.090
20.0237 0.825
20.0540 -0.160
20.0843 0.107
20.1146 0.009
20.1448 -0.141
20.1751 -0.291
20.2054 -0.232
20.2357 -0.068
20.2659 0.200
20.2962 -0.313
20.3265 0.633
20.3568 0.121
20.3871 -0.131
20.4173 0.035
20.4476 -0.372
20.4779 -0.061
20.5082 0.145
20.5385 0.561
20.5687 0.196
20.5990 0.195
20.6293 0.508
20.6596 -0.169
20.6899 0.040
20.7201 0.770
20.7504 0.042
20.7807 -0.061
20.8110 -0.163
20.8412 0.412
20.8715 0.727
20.9018 0.417
20.9321 0.055
20.9624 -0.358
20.9926 0.739
21.0229 0.118
21.0532 0.019
21.0835 -0.081
21.1138 0.393
21.1440 -0.123
21.1743 -0.117
21.2046 -0.528
21.2349 0.090
21.2651 0.239
21.2954 -0.028
21.3257 0.382
21.3560 0.532
21.3863 0.266
21.4165 0.208
21.4468 0.724
21.4771 0.146
21.5074 0.089
21.5377 0.398
21.5679 -0.023
21.5982 0.494
21.6285 0.231
21.6588 0.071
21.6890 0.954
21.7193 -0.298
21.7496 0.325
21.7799 0.063
21.8102 0.217
21.8404 0.008
21.8707 -0.201
21.9010 -0.149
21.9313 -0.254
21.9616 -0.306
21.9918 0.112
22.0221 -0.252
22.0524 0.739
22.0827 -0.302
22.1129 -0.248
22.1432 -0.037
22.1735 -0.348
22.2038 -0.035
22.2341 0.226
22.2643 -0.242
22.2946 0.332
22.3249 0.229
22.3552 0.179
22.3855 0.389
22.4157 0.652
22.4460 0.186
22.4763 0.033
22.5066 -0.068
22.5368 -0.377
22.5671 0.721
22.5974 0.256
22.6277 0.469
22.6580 -0.359
22.6882 0.011
22.7185 -0.296
22.7488 -0.343
22.7791 0.017
22.8094 0.376
22.8396 0.267
22.8699 -0.154
22.9002 0.207
22.9305 -0.266
22.9607 -0.113
22.9910 0.249
23.0213 -0.066
23.0516 0.244
23.0819 -0.123
23.1121 -0.125
23.1424 0.030
23.1727 -0.180
23.2030 0.340
23.2333 0.183
23.2635 0.287
23.2938 0.235
23.3241 0.027
23.3544 0.080
23.3846 -0.075
23.4149 0.030
23.4452 0.397
23.4755 0.138
23.5058 0.870
23.5360 0.403
23.5663 -0.115
23.5966 0.618
23.6269 -0.733
23.6572 0.209
23.6874 0.109
23.7177 0.426
23.7480 0.691
23.7783 0.071
23.8086 -0.028
23.8388 -0.022
23.8691 0.453
23.8994 0.407
23.9297 0.153
23.9599 0.317
23.9902 -0.249
24.0205 -0.502
24.0508 0.231
24.0811 0.547
24.1113 0.394
24.1416 -0.383
24.1719 -0.274
24.2022 0.356
24.2325 -0.160
24.2627 0.262
24.2930 -0.409
24.3233 -0.090
24.3536 0.281
24.3838 0.443
24.4141 -0.018
24.4444 0.354
24.4747 0.257
24.5050 0.213
24.5352 0.430
24.5655 0.490
24.5958 -0.074
24.6261 0.040
24.6564 0.049
24.6866 0.528
24.7169 0.799
24.7472 0.028
24.7775 -0.170
24.8077 0.258
24.8380 -0.095
24.8683 -0.552
24.8986 0.060
24.9289 -0.160
24.9591 0.557
24.9894 0.232
25.0197 0.013
25.0500 0.366
25.0803 0.459
25.1105 -0.228
25.1408 0.647
25.1711 0.585
25.2014 0.263
25.2316 0.202
25.2619 -0.068
25.2922 0.028
25.3225 0.280
25.3528 -0.405
25.3830 0.264
25.4133 0.205
25.4436 0.771
25.4739 -0.382
25.5042 0.497
25.5344 0.179
25.5647 0.121
25.5950 -0.249
25.6253 -0.046
25.6555 0.314
25.6858 -0.003
25.7161 -0.424
25.7464 0.197
25.7767 0.089
25.8069 -0.174
25.8372 -0.333
25.8675 0.289
25.8978 0.599
25.9281 0.649
25.9583 0.700
25.9886 0.282
26.0189 0.437
26.0492 0.384
26.0794 0.748
26.1097 0.279
26.1400 0.123
26.1703 0.124
26.2006 0.125
26.2308 -0.291
26.2611 0.179
26.2914 -0.392
26.3217 -0.025
26.3520 -0.127
26.3822 0.188
26.4125 -0.017
26.4428 0.091
26.4731 0.251
26.5034 0.359
26.5336 0.467
26.5639 -0.518
26.5942 0.894
26.6245 -0.299
26.6547 -0.398
26.6850 0.274
26.7153 0.060
26.7456 0.941
26.7759 0.259
26.8061 0.203
26.8364 0.095
26.8667 0.403
26.8970 0.348
26.9273 0.189
26.9575 0.603
26.9878 0.131
27.0181 0.650
27.0484 -0.029
27.0786 -0.343
27.1089 -0.410
27.1392 0.409
27.1695 0.551
27.1998 -0.088
27.2300 0.003
27.2603 -0.271
27.2906 -0.127
27.3209 0.797
27.3512 0.056
27.3814 -0.477
27.4117 0.605
27.4420 0.281
27.4723 0.531
27.5025 -0.105
27.5328 0.770
27.5631 -0.073
27.5934 0.177
27.6237 0.064
27.6539 0.679
27.6842 -0.007
27.7145 0.037
27.7448 0.914
27.7751 -0.239
27.8053 0.430
27.8356 0.423
27.8659 0.416
27.8962 0.565
27.9264 0.299
27.9567 -0.228
27.9870 0.079
28.0173 0.125
28.0476 0.641
28.0778 -0.301
28.1081 0.215
28.1384 0.055
28.1687 -0.105
28.1990 0.256
28.2292 0.201
28.2595 -0.479
28.2898 -0.223
28.3201 -0.228
28.3503 0.081
28.3806 0.181
28.4109 -0.343
28.4412 0.122
28.4715 -0.557
28.5017 -0.151
28.5320 0.725
28.5623 -0.118
28.5926 0.185
28.6229 0.176
28.6531 0.792
28.6834 0.472
28.7137 0.307
28.7440 -0.117
28.7742 0.553
28.8045 -0.079
28.8348 0.331
28.8651 0.116
28.8954 0.162
28.9256 0.625
28.9559 0.307
28.9862 0.875
29.0165 -0.484
29.0468 -0.124
29.0770 -0.181
29.1073 -0.393
29.1376 0.281
29.1679 -0.087
29.1981 -0.403
29.2284 0.032
29.2587 -0.055
29.2890 -0.037
29.3193 -0.018
29.3495 -0.052
29.3798 0.176
29.4101 -0.221
29.4404 0.059
29.4707 0.287
29.5009 0.203
29.5312 0.380
29.5615 -0.172
29.5918 0.266
29.6221 0.496
29.6523 0.310
29.6826 0.280
29.7129 -0.010
29.7432 0.950
29.7734 -0.173
29.8037 -0.305
29.8340 0.812
29.8643 0.211
29.8946 0.757
29.9248 -0.260
29.9551 0.390
29.9854 0.207
30.0157 0.597
30.0460 0.415
30.0762 -0.288
30.1065 0.155
30.1368 0.963
30.1671 1.407
30.1973 0.497
30.2276 0.369
30.2579 0.762
30.2882 0.842
30.3185 -0.014
30.3487 -0.141
30.3790 0.722
30.4093 1.376
30.4396 0.469
30.4699 1.333
30.5001 1.363
30.5304 0.769
30.5607 1.165
30.5910 1.249
30.6212 0.604
30.6515 0.793
30.6818 0.773
30.7121 0.806
30.7424 1.360
30.7726 1.133
30.8029 2.417
30.8332 2.504
30.8635 2.799
30.8938 2.625
30.9240 2.035
30.9543 3.321
30.9846 3.617
31.0149 4.538
31.0451 4.366
31.0754 5.132
31.1057 5.846
31.1360 5.936
31.1663 6.703
31.1965 6.949
31.2268 7.925
31.2571 11.245
31.2874 11.752
31.3177 12.052
31.3479 14.956
31.3782 16.454
31.4085 19.463
31.4388 21.848
31.4690 24.388
31.4993 26.148
31.5296 31.346
31.5599 34.044
31.5902 31.899
31.6204 34.858
31.6507 34.744
31.6810 36.037
31.7113 31.914
31.7416 27.426
31.7718 24.345
31.8021 23.869
31.8324 20.320
31.8627 16.979
31.8929 14.264
31.9232 13.112
31.9535 10.762
31.9838 9.037
32.0141 8.042
32.0443 6.370
32.0746 6.261
32.1049 6.048
32.1352 5.627
32.1655 4.217
32.1957 2.911
32.2260 3.480
32.2563 1.655
32.2866 3.527
32.3169 3.316
32.3471 3.366
32.3774 1.125
32.4077 2.061
32.4380 1.382
32.4682 2.163
32.4985 -0.025
32.5288 2.162
32.5591 1.902
32.5894 1.277
32.6196 1.070
32.6499 -0.179
32.6802 0.864
32.7105 0.970
32.7408 0.138
32.7710 -0.224
32.8013 -0.169
32.8316 0.302
32.8619 -0.007
32.8921 0.153
32.9224 -0.156
32.9527 -0.412
32.9830 -0.512
33.0133 0.051
33.0435 0.094
33.0738 0.917
33.1041 -0.446
33.1344 -0.194
33.1647 -0.359
33.1949 0.362
33.2252 0.614
33.2555 0.451
33.2858 -0.546
33.3160 -0.507
33.3463 0.209
33.3766 -0.220
33.4069 0.549
33.4372 0.746
33.4674 0.057
33.4977 0.984
33.5280 0.452
33.5583 0.702
33.5886 0.431
33.6188 0.630
33.6491 0.308
33.6794 1.444
33.7097 2.164
33.7399 0.645
33.7702 1.783
33.8005 1.515
33.8308 2.549
33.8611 3.270
33.8913 3.420
33.9216 3.413
33.9519 4.500
33.9822 7.359
34.0125 7.092
34.0427 9.587
34.0730 9.998
34.1033 13.171
34.1336 18.062
34.1638 18.214
34.1941 25.450
34.2244 31.957
34.2547 35.703
34.2850 42.732
34.3152 42.781
34.3455 39.029
34.3758 32.308
34.4061 28.088
34.4364 20.326
34.4666 18.502
34.4969 13.657
34.5272 9.438
34.5575 9.438
34.5877 7.667
34.6180 6.210
34.6483 5.273
34.6786 4.337
34.7089 4.078
34.7391 3.819
34.7694 1.842
34.7997 3.199
34.8300 4.087
34.8603 2.111
34.8905 2.478
34.9208 1.805
34.9511 2.122
34.9814 1.657
35.0116 1.505
35.0419 2.083
35.0722 2.609
35.1025 2.198
35.1328 3.819
35.1630 1.742
35.1933 1.904
35.2236 3.057
35.2539 3.429
35.2842 2.968
35.3144 4.017
35.3447 3.296
35.3750 5.231
35.4053 4.823
35.4356 4.155
35.4658 6.040
35.4961 5.633
35.5264 6.164
35.5567 6.851
35.5869 8.528
35.6172 9.581
35.6475 10.425
35.6778 11.114
35.7081 13.626
35.7383 14.055
35.7686 16.984
35.7989 17.361
35.8292 20.552
35.8595 25.878
35.8897 23.235
35.9200 31.010
35.9503 32.378
35.9806 37.393
36.0108 43.658
36.0411 47.580
36.0714 48.949
36.1017 52.299
36.1320 49.034
36.1622 51.759
36.1925 50.786
36.2228 46.741
36.2531 42.956
36.2834 38.495
36.3136 32.940
36.3439 30.407
36.3742 24.957
36.4045 22.476
36.4347 19.214
36.4650 17.932
36.4953 12.743
36.5256 13.701
36.5559 10.597
36.5861 10.358
36.6164 8.348
36.6467 7.328
36.6770 8.183
36.7073 5.705
36.7375 4.270
36.7678 4.136
36.7981 3.534
36.8284 2.568
36.8586 3.113
36.8889 2.721
36.9192 3.318
36.9495 2.301
36.9798 1.493
37.0100 2.248
37.0403 1.075
37.0706 1.622
37.1009 0.972
37.1312 0.738
37.1614 2.223
37.1917 0.480
37.2220 0.664
37.2523 1.004
37.2825 0.251
37.3128 1.634
37.3431 1.923
37.3734 0.546
37.4037 0.628
37.4339 1.283
37.4642 -0.093
37.4945 1.343
37.5248 0.541
37.5551 0.259
37.5853 0.343
37.6156 -0.250
37.6459 0.563
37.6762 0.075
37.7064 0.628
37.7367 0.713
37.7670 -0.295
37.7973 -0.418
37.8276 -0.084
37.8578 -0.428
37.8881 0.063
37.9184 -0.332
37.9487 0.107
37.9790 -0.079
38.0092 -0.160
38.0395 0.331
38.0698 -0.374
38.1001 0.535
38.1304 0.559
38.1606 0.427
38.1909 -0.694
38.2212 -0.044
38.2515 -0.279
38.2817 0.163
38.3120 0.398
38.3423 -0.514
38.3726 -0.018
38.4029 0.477
38.4331 0.088
38.4634 0.064
38.4937 0.300
38.5240 -0.766
38.5543 -0.323
38.5845 -0.193
38.6148 0.094
38.6451 0.798
38.6754 -0.164
38.7056 0.176
38.7359 -0.160
38.7662 -0.393
38.7965 0.625
38.8268 0.498
38.8570 0.006
38.8873 -0.329
38.9176 0.378
38.9479 -0.165
38.9782 0.491
39.0084 -0.155
39.0387 -0.333
39.0690 -0.221
39.0993 -0.265
39.1295 0.003
39.1598 0.429
39.1901 0.229
39.2204 0.030
39.2507 0.091
39.2809 0.518
39.3112 0.684
39.3415 0.018
39.3718 -0.232
39.4021 0.300
39.4323 0.051
39.4626 -0.146
39.4929 0.283
39.5232 -0.017
39.5534 -0.317
39.5837 -0.008
39.6140 -0.114
39.6443 -0.012
39.6746 0.246
39.7048 0.349
39.7351 0.296
39.7654 -0.330
39.7957 0.398
39.8260 -0.540
39.8562 0.190
39.8865 -0.018
39.9168 -0.018
39.9471 0.087
39.9773 0.245
40.0076 0.715
40.0379 0.405
40.0682 0.198
40.0985 0.201
40.1287 -0.109
40.1590 -0.105
40.1893 0.419
40.2196 -0.463
40.2499 -0.198
40.2801 -0.194
40.3104 -0.241
40.3407 0.024
40.3710 0.499
40.4012 0.088
40.4315 0.146
40.4618 -0.629
40.4921 -0.155
40.5224 0.163
40.5526 0.169
40.5829 0.487
40.6132 0.025
40.6435 -0.020
40.6738 0.039
40.7040 0.046
40.7343 0.314
40.7646 0.062
40.7949 0.018
40.8251 -0.129
40.8554 0.088
40.8857 0.358
40.9160 0.211
40.9463 0.169
40.9765 -0.394
41.0068 -0.179
41.0371 -0.069
41.0674 0.199
41.0977 0.049
41.1279 0.265
41.1582 -0.144
41.1885 0.593
41.2188 0.341
41.2491 0.402
41.2793 -0.162
41.3096 -0.049
41.3399 -0.404
41.3702 0.335
41.4004 0.397
41.4307 -0.217
41.4610 0.263
41.4913 -0.195
41.5216 -0.548
41.5518 0.174
41.5821 0.793
41.6124 -0.255
41.6427 0.208
41.6730 0.515
41.7032 -0.220
41.7335 0.557
41.7638 0.083
41.7941 0.027
41.8243 -0.081
41.8546 0.019
41.8849 0.172
41.9152 -0.299
41.9455 -0.042
41.9757 0.321
42.0060 0.058
42.0363 0.421
42.0666 0.211
42.0969 0.054
42.1271 -0.051
42.1574 0.261
42.1877 -0.104
42.2180 -0.104
42.2482 -0.103
42.2785 0.470
42.3088 0.367
42.3391 -0.256
42.3694 -0.046
42.3996 -0.200
42.4299 0.167
42.4602 0.117
42.4905 -0.140
42.5208 0.175
42.5510 -0.290
42.5813 -0.290
42.6116 0.075
42.6419 -0.133
42.6721 0.181
42.7024 0.025
42.7327 0.183
42.7630 0.393
42.7933 0.135
42.8235 0.398
42.8538 0.088
42.8841 0.299
42.9144 -0.166
42.9447 -0.215
42.9749 0.414
43.0052 0.054
43.0355 0.267
43.0658 0.219
43.0960 0.537
43.1263 0.282
43.1566 -0.076
43.1869 -0.018
43.2172 0.249
43.2474 0.099
43.2777 0.106
43.3080 0.426
43.3383 0.226
43.3686 -0.443
43.3988 -0.243
43.4291 0.061
43.4594 0.523
43.4897 -0.057
43.5199 0.092
43.5502 -0.019
43.5805 -0.285
43.6108 0.230
43.6411 0.432
43.6713 0.062
43.7016 0.057
43.7319 0.001
43.7622 0.153
43.7925 0.565
43.8227 -0.063
43.8530 0.037
43.8833 -0.643
43.9136 0.344
43.9439 -0.231
43.9741 0.444
44.0044 0.285
44.0347 0.492
44.0650 0.387
44.0952 0.386
44.1255 0.177
44.1558 0.229
44.1861 -0.083
44.2164 -0.135
44.2466 0.022
44.2769 -0.081
44.3072 -0.497
44.3375 0.067
44.3678 0.162
44.3980 -0.107
44.4283 0.353
44.4586 -0.280
44.4889 0.129
44.5191 0.017
44.5494 0.270
44.5797 -0.102
44.6100 -0.264
44.6403 0.146
44.6705 0.036
44.7008 0.186
44.7311 0.442
44.7614 -0.032
44.7917 0.536
44.8219 0.219
44.8522 0.736
44.8825 0.732
44.9128 0.208
44.9430 -0.368
44.9733 0.098
45.0036 0.408
45.0339 0.041
45.0642 -0.273
45.0944 0.090
45.1247 0.140
45.1550 -0.486
45.1853 0.139
45.2156 0.607
45.2458 0.347
45.2761 0.347
45.3064 0.035
45.3367 0.036
45.3669 0.454
45.3972 0.560
45.4275 0.302
45.4578 0.304
45.4881 -0.110
45.5183 -0.316
45.5486 0.090
45.5789 -0.025
45.6092 0.381
45.6395 0.319
45.6697 0.153
45.7000 0.455
45.7303 0.082
45.7606 -0.031
45.7908 -0.353
45.8211 0.056
45.8514 0.412
45.8817 0.613
45.9120 0.554
45.9422 0.182
45.9725 -0.137
46.0028 0.221
46.0331 0.111
46.0634 0.053
46.0936 -0.317
46.1239 -0.225
46.1542 0.336
46.1845 0.689
46.2147 0.261
46.2450 0.146
46.2753 0.344
46.3056 -0.031
46.3359 0.428
46.3661 -0.728
46.3964 0.513
46.4267 0.348
46.4570 0.651
46.4873 1.268
46.5175 0.062
46.5478 0.575
46.5781 -0.005
46.6084 0.613
46.6386 0.658
46.6689 1.225
46.6992 0.906
46.7295 0.431
46.7598 0.686
46.7900 0.525
46.8203 1.249
46.8506 1.297
46.8809 1.292
46.9112 1.653
46.9414 1.806
46.9717 2.271
47.0020 2.945
47.0323 2.317
47.0626 2.732
47.0928 2.469
47.1231 4.186
47.1534 4.654
47.1837 6.059
47.2139 5.068
47.2442 5.901
47.2745 6.838
47.3048 6.787
47.3351 8.037
47.3653 8.454
47.3956 9.028
47.4259 8.978
47.4562 9.605
47.4865 8.513
47.5167 8.099
47.5470 7.476
47.5773 7.583
47.6076 6.180
47.6378 4.465
47.6681 5.146
47.6984 3.901
47.7287 3.332
47.7590 3.754
47.7892 3.603
47.8195 2.983
47.8498 1.531
47.8801 2.474
47.9104 0.710
47.9406 1.186
47.9709 1.297
48.0012 0.731
48.0315 1.885
48.0617 0.435
48.0920 0.703
48.1223 0.608
48.1526 0.877
48.1829 1.147
48.2131 1.313
48.2434 0.594
48.2737 0.448
48.3040 0.354
48.3343 0.365
48.3645 0.428
48.3948 0.231
48.4251 0.712
48.4554 0.464
48.4856 0.216
48.5159 0.749
48.5462 0.294
48.5765 0.984
48.6068 0.425
48.6370 -0.082
48.6673 0.141
48.6976 0.468
48.7279 0.639
48.7582 -0.179
48.7884 -0.007
48.8187 0.061
48.8490 -0.079
48.8793 -0.167
48.9095 0.267
48.9398 -0.497
48.9701 -0.295
49.0004 0.428
49.0307 0.578
49.0609 0.261
49.0912 0.203
49.1215 0.095
49.1518 0.142
49.1821 0.138
49.2123 0.447
49.2426 0.027
49.2729 -0.289
49.3032 0.177
49.3334 0.435
49.3637 0.068
49.3940 0.275
49.4243 0.065
49.4546 -0.145
49.4848 0.219
49.5151 0.166
49.5454 0.322
49.5757 -0.095
49.6060 0.270
49.6362 0.063
49.6665 -0.301
49.6968 -0.252
49.7271 0.005
49.7574 -0.101
49.7876 -0.156
49.8179 -0.210
49.8482 0.414
49.8785 0.569
49.9087 -0.266
49.9390 0.255
49.9693 0.410
49.9996 -0.110
50.0299 0.098
50.0601 -0.162
50.0904 -0.004
50.1207 -0.368
50.1510 -0.002
50.1813 -0.418
50.2115 0.157
50.2418 -0.050
50.2721 -0.100
50.3024 -0.045
50.3326 0.218
50.3629 0.117
50.3932 0.329
50.4235 0.229
50.4538 -0.028
50.4840 0.133
50.5143 -0.071
50.5446 0.351
50.5749 0.200
50.6052 -0.680
50.6354 -0.212
50.6657 -0.108
50.6960 -0.161
50.7263 -0.004
50.7565 -0.473
50.7868 0.361
50.8171 0.102
50.8474 0.572
50.8777 0.001
50.9079 0.211
50.9382 0.057
50.9685 0.007
50.9988 0.166
51.0291 0.013
51.0593 0.486
51.0896 0.125
51.1199 0.546
51.1502 0.290
51.1804 -0.122
51.2107 -0.273
51.2410 0.149
51.2713 -0.054
51.3016 0.160
51.3318 -0.302
51.3621 -0.087
51.3924 -0.392
51.4227 0.083
51.4530 0.403
51.4832 -0.005
51.5135 -0.206
51.5438 0.063
51.5741 -0.136
51.6043 -0.023
51.6346 0.038
51.6649 0.048
51.6952 -0.046
51.7255 -0.036
51.7557 -0.181
51.7860 0.038
51.8163 0.362
51.8466 -0.199
51.8769 0.177
51.9071 0.658
51.9374 0.098
51.9677 0.475
51.9980 0.384
52.0282 -0.123
52.0585 -0.265
52.0888 0.095
52.1191 0.457
52.1494 0.245
52.1796 0.191
52.2099 -0.020
52.2402 -0.230
52.2705 0.601
52.3008 0.496
52.3310 0.182
52.3613 0.442
52.3916 0.233
52.4219 -0.132
52.4521 -0.236
52.4824 0.233
52.5127 -0.026
52.5430 0.548
52.5733 -0.076
52.6035 0.395
52.6338 0.188
52.6641 0.451
52.6944 -0.119
52.7247 0.405
52.7549 -0.009
52.7852 -0.265
52.8155 -0.070
52.8458 0.386
52.8761 -0.043
52.9063 -0.002
52.9366 0.298
52.9669 0.079
52.9972 -0.140
53.0274 0.161
53.0577 0.151
53.0880 -0.380
53.1183 0.548
53.1486 0.122
53.1788 0.478
53.2091 0.208
53.2394 0.617
53.2697 -0.173
53.3000 0.132
53.3302 0.020
53.3605 0.273
53.3908 0.267
53.4211 0.260
53.4513 -0.111
53.4816 0.196
53.5119 -0.487
53.5422 0.289
53.5725 -0.132
53.6027 -0.033
53.6330 0.223
53.6633 0.219
53.6936 0.215
53.7239 0.108
53.7541 0.053
53.7844 -0.471
53.8147 -0.065
53.8450 0.029
53.8752 0.123
53.9055 0.217
53.9358 -0.001
53.9661 0.510
53.9964 -0.592
54.0266 0.128
54.0569 0.016
54.0872 0.164
54.1175 -0.104
54.1478 0.045
54.1780 -0.118
54.2083 0.448
54.2386 -0.132
54.2689 0.487
54.2991 -0.352
54.3294 0.164
54.3597 0.367
54.3900 0.206
54.4203 0.149
54.4505 0.770
54.4808 -0.015
54.5111 0.085
54.5414 -0.387
54.5717 0.131
54.6019 0.076
54.6322 -0.447
54.6625 -0.086
54.6928 -0.089
54.7230 0.221
54.7533 0.114
54.7836 0.007
54.8139 0.110
54.8442 -0.048
54.8744 0.263
54.9047 -0.051
54.9350 -0.312
54.9653 -0.172
54.9956 0.073
55.0258 0.370
55.0561 0.928
55.0864 0.340
55.1167 -0.039
55.1469 0.520
55.1772 0.141
55.2075 0.075
55.2378 0.687
55.2681 1.091
55.2983 -0.015
55.3286 -0.288
55.3589 0.064
55.3892 0.365
55.4195 0.146
55.4497 1.072
55.4800 0.280
55.5103 0.634
55.5406 0.312
55.5709 0.302
55.6011 1.282
55.6314 0.804
55.6617 1.108
55.6920 0.630
55.7222 1.612
55.7525 1.291
55.7828 2.638
55.8131 1.485
55.8434 1.530
55.8736 1.471
55.9039 2.871
55.9342 2.397
55.9645 1.714
55.9948 3.740
56.0250 3.110
56.0553 4.095
56.0856 3.726
56.1159 5.284
56.1461 4.134
56.1764 5.537
56.2067 6.576
56.2370 6.833
56.2673 8.497
56.2975 8.964
56.3278 8.337
56.3581 10.627
56.3884 10.574
56.4187 11.667
56.4489 12.760
56.4792 12.707
56.5095 11.353
56.5398 9.999
56.5700 10.052
56.6003 10.574
56.6306 9.221
56.6609 7.868
56.6912 7.922
56.7214 8.341
56.7517 6.521
56.7820 5.899
56.8123 4.704
56.8426 5.332
56.8728 2.992
56.9031 3.361
56.9334 2.792
56.9637 2.537
56.9939 2.125
57.0242 1.974
57.0545 2.032
57.0848 2.559
57.1151 0.951
57.1453 1.947
57.1756 0.808
57.2059 0.867
57.2362 1.135
57.2665 0.570
57.2967 0.735
57.3270 0.691
57.3573 0.492
57.3876 0.344
57.4178 1.135
57.4481 0.364
57.4784 -0.043
57.5087 0.228
57.5390 0.864
57.5692 -0.115
57.5995 0.261
57.6298 0.898
57.6601 0.389
57.6904 0.037
57.7206 0.206
57.7509 0.323
57.7812 0.128
57.8115 0.193
57.8417 0.572
57.8720 -0.508
57.9023 0.027
57.9326 -0.426
57.9629 0.214
57.9931 0.385
58.0234 -0.068
58.0537 -0.312
58.0840 -0.357
58.1143 0.432
58.1445 -0.185
58.1748 0.344
58.2051 -0.325
58.2354 -0.316
58.2656 0.309
58.2959 0.466
58.3262 -0.054
58.3565 -0.053
58.3868 -0.208
58.4170 -0.206
58.4473 0.317
58.4776 0.059
58.5079 0.062
58.5382 -0.404
58.5684 0.120
58.5987 -0.501
58.6290 0.336
58.6593 -0.285
58.6896 -0.280
58.7198 0.090
58.7501 -0.322
58.7804 0.204
58.8107 -0.102
58.8409 -0.096
58.8712 -0.298
58.9015 -0.187
58.9318 0.341
58.9621 -0.172
58.9923 0.409
59.0226 0.052
59.0529 -0.096
59.0832 -0.295
59.1135 -0.137
59.1437 0.230
59.1740 0.129
59.2043 -0.284
59.2346 -0.072
59.2648 -0.224
59.2951 -0.064
59.3254 0.253
59.3557 0.258
59.3860 0.524
59.4162 -0.252
59.4465 -0.142
59.4768 0.020
59.5071 -0.182
59.5374 0.138
59.5676 0.405
59.5979 0.100
59.6282 -0.048
59.6585 -0.249
59.6887 0.020
59.7190 -0.284
59.7493 -0.188
59.7796 0.116
59.8099 -0.256
59.8401 0.153
59.8704 -0.271
59.9007 0.451
59.9310 -0.180
59.9613 0.178
59.9915 -0.193
60.0218 -0.094
60.0521 0.109
60.0824 0.104
60.1126 -0.318
60.1429 0.407
60.1732 -0.587
60.2035 -0.226
60.2338 0.396
60.2640 0.132
60.2943 0.077
60.3246 0.023
60.3549 -0.032
60.3852 -0.138
60.4154 -0.295
60.4457 -0.301
60.4760 0.318
60.5063 -0.208
60.5365 0.413
60.5668 0.148
60.5971 0.039
60.6274 0.400
60.6577 -0.176
60.6879 0.393
60.7182 -0.131
60.7485 -0.446
60.7788 0.118
60.8091 -0.099
60.8393 -0.211
60.8696 -0.167
60.8999 -0.227
60.9302 0.339
60.9604 0.592
60.9907 -0.144
61.0210 -0.307
61.0513 0.045
61.0816 -0.332
61.1118 0.436
61.1421 0.164
61.1724 -0.369
61.2027 -0.175
61.2330 0.437
61.2632 0.058
61.2935 0.201
61.3238 0.397
61.3541 0.124
61.3844 0.164
61.4146 -0.056
61.4449 -0.068
61.4752 0.025
61.5055 0.118
61.5357 0.055
61.5660 0.253
61.5963 0.295
61.6266 0.233
61.6569 0.224
61.6871 -0.462
61.7174 0.414
61.7477 0.041
61.7780 0.814
61.8083 0.442
61.8385 -0.034
61.8688 -0.302
61.8991 0.681
61.9294 0.310
61.9596 0.408
61.9899 1.339
62.0202 0.500
62.0505 0.495
62.0808 0.802
62.1110 2.204
62.1413 0.845
62.1716 0.841
62.2019 1.984
62.2322 1.980
62.2624 2.185
62.2927 1.818
62.3230 2.649
62.3533 3.063
62.3835 3.530
62.4138 3.425
62.4441 4.725
62.4744 5.610
62.5047 5.036
62.5349 5.870
62.5652 5.818
62.5955 7.276
62.6258 8.266
62.6561 8.007
62.6863 8.477
62.7166 8.062
62.7469 9.210
62.7772 9.160
62.8074 7.340
62.8377 8.801
62.8680 7.242
62.8983 7.193
62.9286 7.405
62.9588 6.993
62.9891 6.112
63.0194 5.492
63.0497 4.403
63.0800 4.460
63.1102 3.789
63.1405 3.639
63.1708 2.604
63.2011 2.089
63.2313 1.940
63.2616 2.156
63.2919 1.591
63.3222 1.390
63.3525 1.294
63.3827 1.199
63.4130 1.103
63.4433 0.748
63.4736 0.914
63.5039 0.507
63.5341 1.090
63.5644 0.944
63.5947 0.538
63.6250 0.549
63.6552 0.561
63.6855 0.052
63.7158 0.168
63.7461 -0.080
63.7764 0.401
63.8066 0.050
63.8369 -0.250
63.8672 0.389
63.8975 -0.170
63.9278 -0.312
63.9580 0.060
63.9883 0.277
64.0186 0.233
64.0489 -0.435
64.0791 0.980
64.1094 0.677
64.1397 -0.042
64.1700 -0.084
64.2003 0.708
64.2305 -0.323
64.2608 0.156
64.2911 -0.249
64.3214 -0.446
64.3517 0.232
64.3819 -0.392
64.4122 0.026
64.4425 0.392
64.4728 0.550
64.5031 0.395
64.5333 0.502
64.5636 0.609
64.5939 -0.065
64.6242 0.095
64.6544 0.150
64.6847 0.311
64.7150 0.419
64.7453 -0.201
64.7756 -0.040
64.8058 -0.295
64.8361 -0.295
64.8664 0.053
64.8967 -0.119
64.9270 0.335
64.9572 -0.566
64.9875 -0.216
65.0178 -0.074
65.0481 -0.088
65.0783 0.315
65.1086 -0.324
65.1389 0.080
65.1692 0.171
65.1995 0.055
65.2297 -0.270
65.2600 0.083
65.2903 0.175
65.3206 -0.253
65.3509 0.934
65.3811 0.247
65.4114 -0.076
65.4417 -0.242
65.4720 0.321
65.5022 -0.470
65.5325 -0.323
65.5628 0.179
65.5931 -0.256
65.6234 -0.118
65.6536 -0.605
65.6839 0.103
65.7142 -0.229
65.7445 0.271
65.7748 0.304
65.8050 -0.237
65.8353 0.213
65.8656 -0.170
65.8959 0.488
65.9261 0.783
65.9564 -0.017
65.9867 0.226
66.0170 0.261
66.0473 0.661
66.0775 0.696
66.1078 0.524
66.1381 1.081
66.1684 0.076
66.1987 0.373
66.2289 0.879
66.2592 0.708
66.2895 0.433
66.3198 0.419
66.3500 0.405
66.3803 1.277
66.4106 -0.559
66.4409 0.261
66.4712 0.197
66.5014 0.810
66.5317 -0.348
66.5620 0.161
66.5923 0.723
66.6226 -0.121
66.6528 -0.288
66.6831 0.066
66.7134 0.785
66.7437 -0.318
66.7739 0.610
66.8042 0.445
66.8345 0.280
66.8648 0.271
66.8951 0.107
66.9253 -0.057
66.9556 0.144
66.9859 0.553
67.0162 0.599
67.0465 0.280
67.0767 0.430
67.1070 0.320
67.1373 0.887
67.1676 0.257
67.1978 -0.009
67.2281 0.768
67.2584 0.555
67.2887 0.864
67.3190 1.798
67.3492 1.013
67.3795 0.958
67.4098 1.164
67.4401 1.422
67.4704 2.513
67.5006 2.459
67.5309 1.572
67.5612 2.978
67.5915 4.383
67.6218 3.237
67.6520 3.549
67.6823 3.914
67.7126 3.914
67.7429 6.363
67.7731 5.530
67.8034 6.886
67.8337 5.742
67.8640 6.890
67.8943 6.267
67.9245 5.541
67.9548 6.689
67.9851 5.651
68.0154 5.967
68.0457 4.617
68.0759 3.840
68.1062 4.261
68.1365 3.068
68.1668 3.438
68.1970 2.453
68.2273 2.147
68.2576 1.528
68.2879 2.159
68.3182 1.229
68.3484 1.340
68.3787 1.608
68.4090 0.886
68.4393 1.675
68.4696 0.590
68.4998 1.119
68.5301 1.857
68.5604 1.398
68.5907 1.043
68.6209 1.365
68.6512 1.636
68.6815 1.386
68.7118 1.397
68.7421 2.189
68.7723 2.357
68.8026 1.848
68.8329 1.808
68.8632 2.341
68.8935 2.927
68.9237 3.252
68.9540 2.380
68.9843 2.446
69.0146 2.616
69.0448 2.735
69.0751 1.864
69.1054 2.035
69.1357 3.144
69.1660 1.597
69.1962 2.134
69.2265 1.994
69.2568 1.073
69.2871 1.559
69.3174 2.149
69.3476 1.333
69.3779 0.778
69.4082 1.160
69.4385 0.658
69.4687 -0.261
69.4990 0.487
69.5293 0.611
69.5596 -0.203
69.5899 0.286
69.6201 0.358
69.6504 0.067
69.6807 0.452
69.7110 0.213
69.7413 0.078
69.7715 -0.473
69.8018 0.122
69.8321 -0.220
69.8624 -0.041
69.8926 0.243
69.9229 -0.150
69.9532 0.186
69.9835 0.366
70.0138 0.495
70.0440 -0.053
70.0743 -0.080
70.1046 -0.107
70.1349 -0.186
70.1652 0.049
70.1954 -0.290
70.2257 -0.232
70.2560 0.139
70.2863 -0.114
70.3166 0.101
70.3468 -0.308
70.3771 -0.040
70.4074 0.593
70.4377 0.028
70.4679 -0.068
70.4982 0.254
70.5285 -0.050
70.5588 -0.196
70.5891 0.126
70.6193 -0.176
70.6496 -0.166
70.6799 -0.103
70.7102 0.012
70.7405 0.024
70.7707 0.035
70.8010 0.360
70.8313 -0.045
70.8616 -0.396
70.8918 0.346
70.9221 -0.058
70.9524 0.008
70.9827 -0.134
71.0130 0.244
71.0432 0.259
71.0735 -0.143
71.1038 0.081
71.1341 -0.216
71.1644 -0.253
71.1946 -0.102
71.2249 0.779
71.2552 -0.528
71.2855 0.249
71.3157 -0.276
71.3460 -0.072
71.3763 0.498
71.4066 -0.026
71.4369 -0.081
71.4671 -0.032
71.4974 -0.034
71.5277 -0.348
71.5580 0.379
71.5883 0.274
71.6185 0.429
71.6488 -0.196
71.6791 0.533
71.7094 -0.092
71.7396 -0.092
71.7699 0.169
71.8002 0.014
71.8305 0.171
71.8608 0.121
71.8910 -0.034
71.9213 -0.084
71.9516 0.336
71.9819 -0.287
72.0122 0.394
72.0424 0.085
72.0727 0.557
72.1030 0.249
72.1333 -0.007
72.1635 0.466
72.1938 -0.258
72.2241 -0.253
72.2544 0.212
72.2847 0.000
72.3149 0.621
72.3452 0.461
72.3755 -0.323
72.4058 0.455
72.4361 0.192
72.4663 0.711
72.4966 0.293
72.5269 0.187
72.5572 0.655
72.5874 0.706
72.6177 0.809
72.6480 -0.128
72.6783 0.340
72.7086 0.445
72.7388 0.185
72.7691 0.030
72.7994 -0.333
72.8297 0.241
72.8600 -0.017
72.8902 0.298
72.9205 0.352
72.9508 0.043
72.9811 -0.006
73.0113 0.623
73.0416 -0.051
73.0719 0.006
73.1022 -0.042
73.1325 0.432
73.1627 0.176
73.1930 0.130
73.2233 -0.021
73.2536 0.558
73.2839 0.096
73.3141 0.519
73.3444 -0.464
73.3747 -0.092
73.4050 -0.136
73.4353 0.080
73.4655 -0.016
73.4958 0.149
73.5261 -0.571
73.5564 0.011
73.5866 -0.188
73.6169 0.291
73.6472 0.145
73.6775 0.155
73.7078 -0.094
73.7380 -0.344
73.7683 0.189
73.7986 -0.112
73.8289 0.056
73.8592 -0.296
73.8894 0.290
73.9197 -0.114
73.9500 0.003
73.9803 0.225
74.0105 0.031
74.0408 0.201
74.0711 0.581
74.1014 0.231
74.1317 0.350
74.1619 0.418
74.1922 -0.035
74.2225 -0.383
74.2528 0.025
74.2831 0.850
74.3133 0.114
74.3436 0.314
74.3739 -0.005
74.4042 0.040
74.4344 0.607
74.4647 0.080
74.4950 0.387
74.5253 -0.192
74.5556 0.011
74.5858 0.163
74.6161 0.262
74.6464 0.310
74.6767 0.411
74.7070 0.303
74.7372 0.300
74.7675 -0.224
74.7978 -0.175
74.8281 0.396
74.8583 0.342
74.8886 0.132
74.9189 0.391
74.9492 -0.235
74.9795 0.129
75.0097 0.337
75.0400 -0.080
75.0703 0.233
75.1006 0.337
75.1309 0.130
75.1611 0.079
75.1914 0.028
75.2217 0.238
75.2520 -0.332
75.2822 0.399
75.3125 -0.379
75.3428 -0.168
75.3731 -0.217
75.4034 -0.113
75.4336 -0.217
75.4639 0.034
75.4942 0.025
75.5245 0.276
75.5548 0.216
75.5850 0.312
75.6153 -0.269
75.6456 0.140
75.6759 -0.076
75.7061 0.334
75.7364 -0.194
75.7667 0.165
75.7970 -0.050
75.8273 0.257
75.8575 -0.374
75.8878 0.142
75.9181 0.085
75.9484 -0.232
75.9787 -0.138
76.0089 0.530
76.0392 0.052
76.0695 0.407
76.0998 -0.018
76.1301 0.390
76.1603 0.121
76.1906 0.113
76.2209 0.366
76.2512 0.411
76.2814 0.352
76.3117 0.294
76.3420 0.652
76.3723 0.177
76.4026 0.120
76.4328 0.479
76.4631 0.318
76.4934 0.417
76.5237 0.361
76.5540 0.252
76.5842 0.092
76.6145 0.662
76.6448 0.190
76.6751 0.344
76.7053 1.122
76.7356 0.443
76.7659 0.806
76.7962 0.961
76.8265 0.022
76.8567 0.750
76.8870 0.593
76.9173 0.489
76.9476 0.958
76.9779 0.437
77.0081 0.073
77.0384 0.543
77.0687 0.388
77.0990 0.442
77.1292 0.183
77.1595 0.238
77.1898 0.449
77.2201 0.347
77.2504 0.507
77.2806 0.250
77.3109 0.358
77.3412 0.206
77.3715 0.002
77.4018 -0.097
77.4320 0.272
77.4623 -0.139
77.4926 0.127
77.5229 -0.284
77.5531 -0.127
77.5834 -0.074
77.6137 0.031
77.6440 0.345
77.6743 -0.226
77.7045 -0.172
77.7348 0.351
77.7651 -0.427
77.7954 -0.112
77.8257 0.516
77.8559 -0.157
77.8862 0.055
77.9165 0.059
77.9468 0.376
77.9770 0.069
78.0073 0.126
78.0376 0.548
78.0679 0.085
78.0982 0.404
78.1284 -0.007
78.1587 0.000
78.1890 -0.253
78.2193 0.119
78.2496 -0.082
78.2798 -0.334
78.3101 0.086
78.3404 0.298
78.3707 -0.323
78.4009 0.306
78.4312 0.259
78.4615 -0.049
78.4918 0.217
78.5221 -0.090
78.5523 -0.189
78.5826 0.182
78.6129 0.084
78.6432 -0.065
78.6735 -0.110
78.7037 0.210
78.7340 0.374
78.7643 0.174
78.7946 0.286
78.8248 0.191
78.8551 -0.217
78.8854 -0.217
78.9157 -0.018
78.9460 0.233
78.9762 0.016
79.0065 0.164
79.0368 -0.001
79.0671 0.304
79.0974 0.453
79.1276 0.289
79.1579 0.074
79.1882 0.224
79.2185 0.373
79.2488 0.159
79.2790 -0.107
79.3093 0.148
79.3396 0.195
79.3699 -0.018
79.4001 0.290
79.4304 0.598
79.4607 -0.082
79.4910 0.695
79.5213 -0.297
79.5515 0.221
79.5818 0.114
79.6121 -0.253
79.6424 0.006
79.6727 -0.361
79.7029 -0.001
79.7332 -0.005
79.7635 -0.321
79.7938 0.613
79.8240 -0.015
79.8543 0.138
79.8846 0.187
79.9149 0.550
79.9452 -0.286
79.9754 -0.235
80.0057 -0.237
80.0360 -0.082
80.0663 0.178
80.0966 -0.135
80.1268 -0.083
80.1571 -0.239
80.1874 -0.092
80.2177 0.055
80.2479 0.047
80.2782 -0.066
80.3085 -0.074
80.3388 0.074
80.3691 0.067
80.3993 0.008
80.4296 -0.103
80.4599 0.671
80.4902 -0.012
80.5205 -0.070
80.5507 0.185
80.5810 -0.029
80.6113 -0.034
80.6416 0.066
80.6718 -0.407
80.7021 0.058
80.7324 -0.467
80.7627 -0.053
80.7930 -0.161
80.8232 0.462
80.8535 -0.166
80.8838 0.197
80.9141 0.091
80.9444 -0.275
80.9746 -0.068
81.0049 0.661
81.0352 0.087
81.0655 0.087
81.0957 0.244
81.1260 0.192
81.1563 0.453
81.1866 0.194
81.2169 0.143
81.2471 0.406
81.2774 0.356
81.3077 0.358
81.3380 0.309
81.3683 0.312
81.3985 -0.154
81.4288 0.110
81.4591 0.531
81.4894 -0.038
81.5196 0.123
81.5499 0.180
81.5802 0.550
81.6105 0.087
81.6408 0.353
81.6710 0.047
81.7013 0.157
81.7316 0.320
81.7619 0.067
81.7922 0.335
81.8224 -0.491
81.8527 0.247
81.8830 -0.162
81.9133 0.055
81.9436 0.012
81.9738 -0.239
82.0041 -0.387
82.0344 0.241
82.0647 -0.016
82.0949 0.040
82.1252 0.564
82.1555 0.569
82.1858 -0.260
82.2161 -0.099
82.2463 0.010
82.2766 0.172
82.3069 0.178
82.3372 -0.129
82.3675 -0.122
82.3977 -0.167
82.4280 0.152
82.4583 0.316
82.4886 -0.197
82.5188 -0.085
82.5491 -0.181
82.5794 -0.224
82.6097 -0.125
82.6400 0.131
82.6702 -0.290
82.7005 0.279
82.7308 0.119
82.7611 0.167
82.7914 0.060
82.8216 0.266
82.8519 -0.362
82.8822 -0.103
82.9125 0.364
82.9427 -0.263
82.9730 -0.160
83.0033 0.152
83.0336 -0.213
83.0639 0.360
83.0941 0.255
83.1244 0.360
83.1547 -0.108
83.1850 -0.003
83.2153 0.415
83.2455 -0.312
83.2758 0.211
83.3061 -0.256
83.3364 -0.202
83.3666 -0.148
83.3969 0.271
83.4272 0.066
83.4575 0.016
83.4878 0.436
83.5180 0.440
83.5483 0.079
83.5786 -0.281
83.6089 -0.016
83.6392 -0.011
83.6694 0.150
83.6997 0.052
83.7300 0.214
83.7603 -0.093
83.7905 0.018
83.8208 0.025
83.8511 -0.229
83.8814 -0.020
83.9117 0.033
83.9419 0.242
83.9722 0.244
84.0025 -0.067
84.0328 0.508
84.0631 -0.167
84.0933 -0.217
84.1236 -0.012
84.1539 -0.171
84.1842 0.191
84.2144 0.085
84.2447 -0.073
84.2750 -0.179
84.3053 0.080
84.3356 0.288
84.3658 0.027
84.3961 0.131
84.4264 0.235
84.4567 0.496
84.4870 0.080
84.5172 0.497
84.5475 0.134
84.5778 -0.177
84.6081 -0.227
84.6383 0.244
84.6686 0.142
84.6989 0.197
84.7292 0.565
84.7595 0.516
84.7897 0.051
84.8200 0.055
84.8503 0.164
84.8806 0.064
84.9109 0.122
84.9411 0.075
84.9714 0.185
85.0017 0.764
85.0320 0.301
85.0623 -0.057
85.0925 0.263
85.1228 0.322
85.1531 -0.035
85.1834 -0.027
85.2136 -0.331
85.2439 0.032
85.2742 -0.073
85.3045 -0.074
85.3348 0.081
85.3650 0.081
85.3953 0.342
85.4256 -0.074
85.4559 0.395
85.4862 0.032
85.5164 0.241
85.5467 0.243
85.5770 0.089
85.6073 0.560
85.6375 0.406
85.6678 -0.268
85.6981 0.048
85.7284 -0.105
85.7587 -0.153
85.7889 -0.201
85.8192 -0.105
85.8495 0.355
85.8798 0.295
85.9101 0.184
85.9403 0.124
85.9706 -0.195
86.0009 0.059
86.0312 0.052
86.0614 0.254
86.0917 0.353
86.1220 0.191
86.1523 -0.178
86.1826 0.181
86.2128 -0.188
86.2431 0.433
86.2734 0.013
86.3037 -0.043
86.3340 0.058
86.3642 0.316
86.3945 -0.364
86.4248 0.102
86.4551 0.413
86.4853 -0.109
86.5156 0.202
86.5459 0.201
86.5762 0.096
86.6065 0.252
86.6367 -0.165
86.6670 -0.217
86.6973 0.086
86.7276 0.024
86.7579 0.588
86.7881 0.318
86.8184 -0.055
86.8487 0.145
86.8790 0.189
86.9092 0.285
86.9395 0.173
86.9698 -0.094
87.0001 -0.049
87.0304 0.361
87.0606 0.459
87.0909 -0.068
87.1212 -0.177
87.1515 0.234
87.1818 0.125
87.2120 0.120
87.2423 -0.249
87.2726 0.424
87.3029 -0.048
87.3331 0.157
87.3634 0.571
87.3937 -0.318
87.4240 0.097
87.4543 0.459
87.4845 0.561
87.5148 0.247
87.5451 -0.118
87.5754 0.089
87.6057 0.089
87.6359 -0.485
87.6662 0.193
87.6965 -0.224
87.7268 -0.223
87.7571 0.091
87.7873 0.040
87.8176 -0.063
87.8479 0.096
87.8782 0.463
87.9084 0.413
87.9387 0.624
87.9690 0.107
87.9993 0.110
88.0296 -0.198
88.0598 0.014
88.0901 0.227
88.1204 0.180
88.1507 -0.232
88.1810 -0.232
88.2112 0.012
88.2415 -0.420
88.2718 0.397
88.3021 0.069
88.3323 -0.050
88.3626 -0.169
88.3929 0.337
88.4232 0.271
88.4535 0.205
88.4837 0.348
88.5140 -0.134
88.5443 0.217
88.5746 -0.056
88.6049 -0.485
88.6351 0.232
88.6654 0.169
88.6957 0.314
88.7260 -0.010
88.7562 0.448
88.7865 0.281
88.8168 -0.198
88.8471 -0.155
88.8774 -0.008
88.9076 0.347
88.9379 0.182
88.9682 0.486
88.9985 0.269
89.0288 0.730
89.0590 0.098
89.0893 0.455
89.1196 0.240
89.1499 1.327
89.1801 0.539
89.2104 1.054
89.2407 0.528
89.2710 0.574
89.3013 0.621
89.3315 1.502
89.3618 1.029
89.3921 0.764
89.4224 1.177
89.4527 0.601
89.4829 0.650
89.5132 0.855
89.5435 1.061
89.5738 0.850
89.6040 1.838
89.6343 1.628
89.6646 1.106
89.6949 0.897
89.7252 0.427
89.7554 0.531
89.7857 1.573
89.8160 0.427
89.8463 0.376
89.8766 0.325
89.9068 0.847
89.9371 0.744
89.9674 0.330
89.9977 0.176
90.0279 1.011
90.0582 0.129
90.0885 0.028
90.1188 0.292
90.1491 0.191
90.1793 0.195
90.2096 0.148
90.2399 0.152
90.2702 0.001
90.3005 0.007
90.3307 0.377
90.3610 -0.242
90.3913 -0.236
90.4216 0.031
90.4518 -0.170
90.4821 0.254
90.5124 -0.155
90.5427 0.061
90.5730 0.121
90.6032 -0.287
90.6335 0.034
90.6638 -0.061
90.6941 -0.416
90.7244 0.064
90.7546 -0.081
90.7849 0.348
90.8152 -0.005
90.8455 0.320
90.8758 0.333
90.9060 0.450
90.9363 -0.110
90.9666 -0.253
90.9969 -0.196
91.0271 -0.191
91.0574 0.023
91.0877 -0.492
91.1180 -0.023
91.1483 0.030
91.1785 0.239
91.2088 0.501
91.2391 0.347
91.2694 -0.224
91.2997 -0.117
91.3299 -0.270
91.3602 0.149
91.3905 0.049
91.4208 0.313
91.4510 0.161
91.4813 0.582
91.5116 0.014
91.5419 0.123
91.5722 0.180
91.6024 0.394
91.6327 0.036
91.6630 0.198
91.6933 0.048
91.7236 -0.413
91.7538 -0.058
91.7841 0.037
91.8144 -0.180
91.8447 -0.032
91.8749 0.376
91.9052 0.265
91.9355 -0.107
91.9658 -0.115
91.9961 0.139
92.0263 -0.336
92.0566 -0.134
92.0869 -0.036
92.1172 -0.303
92.1475 0.421
92.1777 -0.365
92.2080 0.255
92.2383 0.563
92.2686 0.402
92.2988 -0.070
92.3291 0.186
92.3594 -0.129
92.3897 0.753
92.4200 0.230
92.4502 0.071
92.4805 0.225
92.5108 0.015
92.5411 0.326
92.5714 0.169
92.6016 0.064
92.6319 0.324
92.6622 0.324
92.6925 0.064
92.7227 0.116
92.7530 0.065
92.7833 -0.090
92.8136 0.693
92.8439 0.590
92.8741 0.384
92.9044 0.022
92.9347 0.181
92.9650 0.392
92.9953 0.395
93.0255 0.503
93.0558 -0.170
93.0861 -0.218
93.1164 0.464
93.1466 -0.156
93.1769 0.630
93.2072 0.011
93.2375 0.069
93.2678 0.283
93.2980 0.655
93.3283 0.349
93.3586 -0.477
93.3889 0.155
93.4192 -0.150
93.4494 -0.246
93.4797 -0.359
93.5100 0.673
93.5403 -0.429
93.5706 0.083
93.6008 0.648
93.6311 -0.037
93.6614 -0.253
93.6917 -0.106
93.7219 0.353
93.7522 0.239
93.7825 0.074
93.8128 -0.195
93.8431 0.213
93.8733 0.101
93.9036 -0.272
93.9339 0.398
93.9642 0.235
93.9945 0.019
94.0247 -0.195
94.0550 0.163
94.0853 -0.364
94.1156 -0.165
94.1458 0.034
94.1761 -0.339
94.2064 0.382
94.2367 -0.147
94.2670 -0.155
94.2972 0.359
94.3275 0.664
94.3578 -0.176
94.3881 -0.182
94.4184 -0.241
94.4486 0.483
94.4789 -0.356
94.5092 0.264
94.5395 0.207
94.5697 -0.215
94.6000 -0.271
94.6303 0.402
94.6606 0.034
94.6909 0.083
94.7211 0.600
94.7514 0.702
94.7817 0.335
94.8120 0.385
94.8423 -0.086
94.8725 0.642
94.9028 0.641
94.9331 0.744
94.9634 1.109
94.9936 1.317
95.0239 0.640
95.0542 0.796
95.0845 1.318
95.1148 1.267
95.1450 1.060
95.1753 0.749
95.2056 0.647
95.2359 1.431
95.2662 1.590
95.2964 0.551
95.3267 1.336
95.3570 1.027
95.3873 0.979
95.4175 0.670
95.4478 1.248
95.4781 0.367
95.5084 0.425
95.5387 1.003
95.5689 0.592
95.5992 0.702
95.6295 1.230
95.6598 0.924
95.6901 0.254
95.7203 -0.207
95.7506 0.582
95.7809 0.485
95.8112 0.338
95.8414 0.555
95.8717 0.147
95.9020 0.260
95.9323 0.374
95.9626 0.436
95.9928 -0.075
96.0231 0.144
96.0534 0.207
96.0837 0.166
96.1140 0.126
96.1442 0.086
96.1745 -0.111
96.2048 0.266
96.2351 -0.502
96.2653 0.188
96.2956 0.045
96.3259 0.007
96.3562 -0.083
96.3865 0.712
96.4167 0.102
96.4470 0.221
96.4773 -0.024
96.5076 -0.061
96.5379 0.164
96.5681 0.336
96.5984 0.144
96.6287 0.265
96.6590 0.595
96.6893 0.196
96.7195 -0.411
96.7498 -0.215
96.7801 0.190
96.8104 0.230
96.8406 0.584
96.8709 0.209
96.9012 0.094
96.9315 0.292
96.9618 -0.291
96.9920 0.377
97.0223 0.003
97.0526 -0.006
97.0829 0.246
97.1132 0.029
97.1434 -0.343
97.1737 0.170
97.2040 0.058
97.2343 0.103
97.2645 -0.112
97.2948 -0.222
97.3251 -0.124
97.3554 0.182
97.3857 0.333
97.4159 0.328
97.4462 0.011
97.4765 0.162
97.5068 -0.102
97.5371 0.363
97.5673 0.047
97.5976 -0.217
97.6279 -0.168
97.6582 0.038
97.6884 0.192
97.7187 0.138
97.7490 0.032
97.7793 -0.386
97.8096 0.290
97.8398 0.133
97.8701 -0.336
97.9004 -0.136
97.9307 0.064
97.9610 0.421
97.9912 -0.055
98.0215 -0.010
98.0518 0.296
98.0821 0.498
98.1123 -0.029
98.1426 0.226
98.1729 -0.092
98.2032 0.215
98.2335 0.315
98.2637 0.466
98.2940 0.879
98.3243 0.458
98.3546 0.247
98.3849 0.556
98.4151 0.397
98.4454 0.498
98.4757 -0.077
98.5060 0.807
98.5362 0.388
98.5665 0.700
98.5968 0.959
98.6271 0.437
98.6574 0.333
98.6876 1.270
98.7179 0.437
98.7482 0.750
98.7785 0.751
98.8088 0.336
98.8390 0.389
98.8693 -0.130
98.8996 0.602
98.9299 0.500
98.9601 0.607
98.9904 0.506
99.0207 -0.220
99.0510 0.357
99.0813 0.205
99.1115 -0.104
99.1418 -0.203
99.1721 0.219
99.2024 0.016
99.2327 0.021
99.2629 -0.129
99.2932 -0.227
99.3235 0.040
99.3538 -0.057
99.3841 -0.467
99.4143 0.055
99.4446 0.056
99.4749 -0.255
99.5052 0.060
99.5354 0.270
99.5657 0.064
99.5960 -0.141
99.6263 0.070
99.6566 -0.187
99.6868 0.182
99.7171 -0.075
99.7474 -0.435
99.7777 0.455
99.8080 -0.060
99.8382 0.101
99.8685 -0.310
99.8988 -0.097
99.9291 -0.039
99.9593 0.331
99.9896 -0.393
100.0199 -0.126
100.0502 -0.224
100.0805 0.147
100.1107 0.102
100.1410 0.110
100.1713 -0.299
100.2016 0.126
100.2319 -0.283
100.2621 -0.122
100.2924 0.300
100.3227 0.305
100.3530 -0.002
100.3832 -0.256
100.4135 0.009
100.4438 -0.091
100.4741 0.383
100.5044 0.233
100.5346 0.030
100.5649 0.140
100.5952 0.303
100.6255 0.310
100.6558 -0.204
100.6860 0.168
100.7163 -0.241
100.7466 0.028
100.7769 -0.224
100.8071 -0.131
100.8374 0.797
100.8677 -0.307
100.8980 0.257
100.9283 0.143
100.9585 0.239
100.9888 -0.135
101.0191 0.430
101.0494 0.006
101.0797 0.154
101.1099 -0.009
101.1402 0.505
101.1705 -0.283
101.2008 0.179
101.2310 -0.192
101.2613 0.011
101.2916 -0.255
101.3219 0.053
101.3522 0.152
101.3824 0.096
101.4127 -0.065
101.4430 -0.329
101.4733 0.292
101.5036 0.446
101.5338 0.078
101.5641 -0.081
101.5944 -0.031
101.6247 0.540
101.6549 0.382
101.6852 0.016
101.7155 0.015
101.7458 -0.037
101.7761 0.379
101.8063 -0.298
101.8366 -0.246
101.8669 0.266
101.8972 0.466
101.9275 0.094
101.9577 -0.071
101.9880 0.339
102.0183 0.123
102.0486 0.220
102.0788 0.318
102.1091 -0.053
102.1394 0.462
102.1697 -0.064
102.2000 -0.017
102.2302 -0.231
102.2605 0.077
102.2908 0.021
102.3211 0.329
102.3514 0.013
102.3816 0.270
102.4119 0.007
102.4422 -0.100
102.4725 -0.311
102.5028 0.092
102.5330 0.548
102.5633 0.171
102.5936 -0.102
102.6239 0.615
102.6541 0.760
102.6844 -0.033
102.7147 0.217
102.7450 0.258
102.7753 -0.065
102.8055 0.446
102.8358 0.072
102.8661 -0.042
102.8964 0.313
102.9267 0.617
102.9569 -0.225
102.9872 0.496
103.0175 0.176
103.0478 -0.144
103.0780 -0.412
103.1083 0.414
103.1386 0.147
103.1689 0.193
103.1992 -0.177
103.2294 0.181
103.2597 0.280
103.2900 0.484
103.3203 0.218
103.3506 0.579
103.3808 -0.207
103.4111 0.310
103.4414 -0.058
103.4717 0.408
103.5019 0.405
103.5322 0.142
103.5625 -0.329
103.5928 0.034
103.6231 -0.020
103.6533 -0.073
103.6836 -0.074
103.7139 0.811
103.7442 0.602
103.7745 -0.127
103.8047 0.029
103.8350 -0.074
103.8653 -0.021
103.8956 0.449
103.9258 0.555
103.9561 0.556
103.9864 0.715
104.0167 0.874
104.0470 0.460
104.0772 0.828
104.1075 0.414
104.1378 0.991
104.1681 0.526
104.1984 0.479
104.2286 0.379
104.2589 0.489
104.2892 0.494
104.3195 -0.125
104.3497 -0.328
104.3800 0.564
104.4103 -0.054
104.4406 1.359
104.4709 0.168
104.5011 0.384
104.5314 0.184
104.5617 0.244
104.5920 0.252
104.6223 -0.416
104.6525 0.687
104.6828 -0.033
104.7131 -0.023
104.7434 -0.013
104.7736 0.466
104.8039 0.008
104.8342 -0.033
104.8645 0.604
104.8948 0.095
104.9250 0.784
104.9553 -0.090
104.9856 -0.494
105.0159 0.144
105.0462 -0.259
105.0764 -0.301
105.1067 0.856
105.1370 0.606
105.1673 0.149
105.1975 -0.205
105.2278 -0.193
105.2581 -0.181
105.2884 0.197
105.3187 -0.103
105.3489 0.066
105.3792 -0.129
105.4095 0.041
105.4398 -0.257
105.4701 -0.054
105.5003 0.201
105.5306 0.248
105.5609 0.139
105.5912 0.447
105.6215 -0.078
105.6517 0.387
105.6820 -0.293
105.7123 0.120
105.7426 0.013
105.7728 0.063
105.8031 0.009
105.8334 0.111
105.8637 0.318
105.8940 1.098
105.9242 -0.049
105.9545 -0.101
105.9848 -0.310
106.0151 0.102
106.0454 -0.163
106.0756 -0.376
106.1059 0.297
106.1362 0.085
106.1665 0.134
106.1967 0.131
106.2270 0.388
106.2573 -0.135
106.2876 -0.085
106.3179 -0.347
106.3481 0.172
106.3784 -0.037
106.4087 0.066
106.4390 0.222
106.4693 0.117
106.4995 -0.039
106.5298 0.170
106.5601 -0.402
106.5904 0.276
106.6206 -0.452
106.6509 -0.034
106.6812 0.072
106.7115 0.075
106.7418 0.025
106.7720 -0.285
106.8023 0.240
106.8326 0.139
106.8629 0.195
106.8932 0.407
106.9234 -0.057
106.9537 0.104
106.9840 0.266
107.0143 -0.042
107.0445 0.589
107.0748 -0.082
107.1051 -0.075
107.1354 -0.069
107.1657 0.199
107.1959 0.623
107.2262 0.110
107.2565 -0.091
107.2868 -0.239
107.3171 0.021
107.3473 0.124
107.3776 0.124
107.4079 0.175
107.4382 0.176
107.4684 0.385
107.4987 -0.135
107.5290 0.387
107.5593 0.440
107.5896 0.494
107.6198 0.027
107.6501 -0.283
107.6804 -0.025
107.7107 0.390
107.7410 0.233
107.7712 0.283
107.8015 -0.238
107.8318 -0.239
107.8621 0.170
107.8923 0.370
107.9226 -0.263
107.9529 0.303
107.9832 -0.173
108.0135 -0.544
108.0437 0.179
108.0740 -0.087
108.1043 -0.301
108.1346 0.318
108.1649 -0.312
108.1951 -0.004
108.2254 0.148
108.2557 0.509
108.2860 0.192
108.3163 -0.228
108.3465 -0.127
108.3768 -0.025
108.4071 0.076
108.4374 -0.030
108.4676 -0.188
108.4979 0.019
108.5282 0.278
108.5585 0.225
108.5888 -0.088
108.6190 -0.192
108.6493 -0.192
108.6796 -0.296
108.7099 0.486
108.7402 -0.555
108.7704 0.071
108.8007 0.177
108.8310 0.127
108.8613 -0.079
108.8915 0.288
108.9218 -0.230
108.9521 0.034
108.9824 0.090
109.0127 -0.271
109.0429 -0.059
109.0732 -0.210
109.1035 -0.310
109.1338 0.207
109.1641 -0.004
109.1943 -0.111
109.2246 0.198
109.2549 -0.012
109.2852 0.350
109.3154 0.348
109.3457 -0.070
109.3760 0.190
109.4063 0.137
109.4366 0.084
109.4668 0.240
109.4971 0.397
109.5274 -0.228
109.5577 -0.019
109.5880 -0.226
109.6182 0.713
109.6485 0.350
109.6788 0.144
109.7091 0.198
109.7393 0.461
109.7696 0.308
109.7999 -0.105
109.8302 -0.414
109.8605 0.099
109.8907 0.195
109.9210 0.084
109.9513 0.285
109.9816 0.747
110.0119 0.220
110.0421 0.318
110.0724 0.469
110.1027 0.932
110.1330 0.719
110.1632 -0.275
110.1935 0.762
110.2238 0.445
110.2541 0.285
110.2844 0.386
110.3146 0.435
110.3449 0.015
110.3752 0.117
110.4055 -0.042
110.4358 0.217
110.4660 -0.045
110.4963 -0.359
110.5266 0.161
110.5569 0.577
110.5871 0.316
110.6174 0.420
110.6477 0.108
110.6780 0.317
110.7083 0.318
110.7385 0.215
110.7688 -0.409
110.7991 0.322
110.8294 0.325
110.8597 0.848
110.8899 0.174
110.9202 0.281
110.9505 0.024
110.9808 0.444
111.0110 -0.072
111.0413 0.349
111.0716 -0.011
111.1019 -0.215
111.1322 -0.105
111.1624 0.005
111.1927 0.115
111.2230 0.277
111.2533 -0.133
111.2836 -0.230
111.3138 -0.379
111.3441 0.410
111.3744 -0.051
111.4047 0.217
111.4350 -0.191
111.4652 0.183
111.4955 -0.121
111.5258 0.566
111.5561 0.003
111.5863 0.273
111.6166 0.075
111.6469 0.190
111.6772 -0.007
111.7075 -0.621
111.7377 0.016
111.7680 -0.076
111.7983 -0.116
111.8286 0.209
111.8589 1.004
111.8891 -0.025
111.9194 0.406
111.9497 0.055
111.9800 -0.035
112.0102 -0.281
112.0405 0.023
112.0708 0.691
112.1011 0.057
112.1314 -0.003
112.1616 0.457
112.1919 0.398
112.2222 0.130
112.2525 0.071
112.2828 0.012
112.3130 0.735
112.3433 0.052
112.3736 0.358
112.4039 0.040
112.4341 -0.173
112.4644 -0.282
112.4947 0.178
112.5250 -0.196
112.5553 -0.204
112.5855 0.569
112.6158 0.144
112.6461 0.033
112.6764 -0.235
112.7067 0.175
112.7369 -0.092
112.7672 0.475
112.7975 -0.156
112.8278 -0.058
112.8580 -0.115
112.8883 0.453
112.9186 0.032
112.9489 -0.181
112.9792 -0.185
113.0094 0.280
113.0397 0.173
113.0700 -0.560
113.1003 0.167
113.1306 -0.096
113.1608 0.058
113.1911 0.004
113.2214 0.159
113.2517 -0.051
113.2819 0.157
113.3122 0.313
113.3425 -0.104
113.3728 0.104
113.4031 0.209
113.4333 0.105
113.4636 -0.050
113.4939 0.160
113.5242 0.422
113.5545 -0.045
113.5847 0.061
113.6150 -0.353
113.6453 0.015
113.6756 -0.138
113.7058 0.178
113.7361 -0.027
113.7664 0.030
113.7967 0.034
113.8270 0.039
113.8572 0.096
113.8875 0.050
113.9178 -0.465
113.9481 -0.048
113.9784 0.110
114.0086 0.112
114.0389 0.062
114.0692 0.064
114.0995 -0.193
114.1298 -0.190
114.1600 -0.239
114.1903 -0.151
114.2206 0.146
114.2509 0.078
114.2811 -0.250
114.3114 0.465
114.3417 -0.488
114.3720 -0.137
114.4023 0.422
114.4325 -0.634
114.4628 0.030
114.4931 -0.087
114.5234 0.213
114.5537 -0.217
114.5839 0.032
114.6142 -0.136
114.6445 0.113
114.6748 -0.107
114.7050 0.455
114.7353 -0.441
114.7656 -0.191
114.7959 0.372
114.8262 0.102
114.8564 -0.115
114.8867 0.136
114.9170 -0.029
114.9473 -0.141
114.9776 -0.149
115.0078 -0.313
115.0381 0.147
115.0684 -0.590
115.0987 0.184
115.1289 0.072
115.1592 0.013
115.1895 0.006
115.2198 -0.001
115.2501 0.358
115.2803 -0.169
115.3106 0.346
115.3409 0.029
115.3712 0.128
115.4015 0.123
115.4317 0.015
115.4620 -0.250
115.4923 0.059
115.5226 0.212
115.5528 0.730
115.5831 -0.106
115.6134 0.360
115.6437 0.462
115.6740 -0.165
115.7042 -0.218
115.7345 0.718
115.7648 0.613
115.7951 0.613
115.8254 0.300
115.8556 0.404
115.8859 0.509
115.9162 0.718
115.9465 0.406
115.9767 0.460
116.0070 0.878
116.0373 1.401
116.0676 0.518
116.0979 0.989
116.1281 0.628
116.1584 0.370
116.1887 0.634
116.2190 0.534
116.2493 0.851
116.2795 0.699
116.3098 1.121
116.3401 0.501
116.3704 0.819
116.4006 0.824
116.4309 0.258
116.4612 1.045
116.4915 0.323
116.5218 1.267
116.5520 0.754
116.5823 0.762
116.6126 0.509
116.6429 0.622
116.6732 0.787
116.7034 1.056
116.7337 -0.133
116.7640 0.085
116.7943 0.408
116.8245 0.730
116.8548 0.168
116.8851 0.543
116.9154 0.554
116.9457 0.045
116.9759 0.317
117.0062 0.433
117.0365 0.342
117.0668 0.198
117.0971 0.107
117.1273 0.589
117.1576 0.499
117.1879 0.200
117.2182 0.423
117.2485 0.333
117.2787 0.296
117.3090 0.155
117.3393 0.327
117.3696 -0.126
117.3998 0.203
117.4301 0.167
117.4604 -0.285
117.4907 0.097
117.5210 0.583
117.5512 0.393
117.5815 0.150
117.6118 -0.040
117.6421 -0.334
117.6724 0.023
117.7026 0.692
117.7329 0.007
117.7632 0.416
117.7935 0.253
117.8237 -0.014
117.8540 0.188
117.8843 0.494
117.9146 0.176
117.9449 0.066
117.9751 0.113
118.0054 0.265
118.0357 -0.261
118.0660 0.204
118.0963 0.252
118.1265 0.144
118.1568 0.245
118.1871 0.346
118.2174 0.031
118.2476 -0.388
118.2779 0.183
118.3082 -0.027
118.3385 -0.132
118.3688 0.335
118.3990 -0.082
118.4293 0.386
118.4596 0.282
118.4899 0.126
118.5202 0.439
118.5504 0.127
118.5807 0.076
118.6110 0.078
118.6413 -0.233
118.6715 -0.335
118.7018 0.236
118.7321 0.338
118.7624 0.232
118.7927 0.230
118.8229 -0.187
118.8532 0.645
118.8835 -0.137
118.9138 -0.449
118.9441 0.176
118.9743 -0.136
119.0046 0.177
119.0349 0.022
119.0652 0.180
119.0954 -0.183
119.1257 0.027
119.1560 0.550
119.1863 0.293
119.2166 -0.069
119.2468 -0.170
119.2771 0.511
119.3074 -0.006
119.3377 0.259
119.3680 0.211
119.3982 -0.201
119.4285 -0.143
119.4588 0.331
119.4891 0.024
119.5193 -0.334
119.5496 -0.023
119.5799 -0.232
119.6102 0.184
119.6405 0.080
119.6707 0.080
119.7010 -0.180
119.7313 -0.232
119.7616 -0.002
119.7919 0.489
119.8221 0.460
119.8524 0.170
119.8827 -0.172
119.9130 -0.253
119.9433 -0.265
119.9735 -0.107
120.0038 0.000
