'Id: "" Comment: "" Operator: "Lab Manager" Anode: "Cu" Scantype: "Locked Coupled" TimePerStep: "19.2" X: "9999" Y: "9999" Z: "9999" 
10.0015 0.000
10.0318 0.703
10.0620 -0.469
10.0923 0.026
10.1226 0.052
10.1529 -0.442
10.1832 0.042
10.2134 0.161
10.2437 0.280
10.2740 0.348
10.3043 0.155
10.3346 0.587
10.3648 0.395
10.3951 0.411
10.4254 0.167
10.4557 -0.545
10.4859 0.096
10.5162 0.113
10.5465 0.495
10.5768 0.617
10.6071 0.113
10.6373 -0.702
10.6676 -0.065
10.6979 -0.001
10.7282 0.271
10.7585 1.117
10.7887 0.296
10.8190 0.153
10.8493 0.634
10.8796 0.439
10.9098 0.244
10.9401 -0.211
10.9704 1.000
11.0007 -0.340
11.0310 0.612
11.0612 -0.311
11.0915 -0.571
11.1218 0.419
11.1521 0.420
11.1824 0.108
11.2126 0.943
11.2429 0.163
11.2732 0.530
11.3035 0.323
11.3337 0.794
11.3640 0.640
11.3943 1.111
11.4246 0.437
11.4549 0.700
11.4851 0.495
11.5154 0.394
11.5457 0.502
11.5760 0.557
11.6063 0.457
11.6365 0.722
11.6668 -0.264
11.6971 0.210
11.7274 0.371
11.7577 0.532
11.7879 0.224
11.8182 -0.031
11.8485 0.339
11.8788 0.970
11.9090 0.507
11.9393 -0.008
11.9696 -0.001
11.9999 1.099
12.0302 1.054
12.0604 0.540
12.0907 0.859
12.1210 0.085
12.1513 0.666
12.1816 0.934
12.2118 0.369
12.2421 0.012
12.2724 -0.292
12.3027 0.290
12.3329 0.038
12.3632 0.828
12.3935 0.733
12.4238 0.013
12.4541 -0.290
12.4843 -0.031
12.5146 0.489
12.5449 0.540
12.5752 0.070
12.6055 -0.035
12.6357 0.902
12.6660 -0.244
12.6963 0.329
12.7266 -0.244
12.7568 0.069
12.7871 -0.087
12.8174 0.122
12.8477 0.384
12.8780 -0.136
12.9082 -0.135
12.9385 0.127
12.9688 0.389
12.9991 -0.494
13.0294 0.185
13.0596 0.135
13.0899 0.763
13.1202 0.037
13.1505 0.196
13.1807 0.199
13.2110 0.515
13.2413 0.154
13.2716 -0.676
13.3019 -0.103
13.3321 0.002
13.3624 1.097
13.3927 -0.152
13.4230 -0.151
13.4533 0.788
13.4835 -0.096
13.5138 0.218
13.5441 0.220
13.5744 -0.038
13.6046 -0.348
13.6349 0.852
13.6652 0.178
13.6955 -0.183
13.7258 0.757
13.7560 0.344
13.7863 -0.069
13.8166 0.456
13.8469 -0.061
13.8772 0.828
13.9074 -0.261
13.9377 -0.152
13.9680 -0.199
13.9983 0.326
14.0285 -0.189
14.0588 0.806
14.0891 -0.491
14.1194 -0.172
14.1497 0.354
14.1799 -0.212
14.2102 -0.154
14.2405 -0.147
14.2708 -0.401
14.3011 0.231
14.3313 0.343
14.3616 0.558
14.3919 0.097
14.4222 -0.312
14.4524 0.113
14.4827 0.017
14.5130 -0.079
14.5433 -0.070
14.5736 0.043
14.6038 0.260
14.6341 0.269
14.6644 0.331
14.6947 1.278
14.7250 0.038
14.7552 -0.265
14.7855 0.110
14.8158 0.121
14.8461 0.548
14.8764 0.246
14.9066 0.049
14.9369 -0.305
14.9672 0.488
14.9975 0.760
15.0277 0.147
15.0580 0.524
15.0883 -0.245
15.1186 -0.285
15.1489 0.292
15.1791 0.453
15.2094 0.874
15.2397 1.244
15.2700 -0.105
15.3003 0.056
15.3305 0.531
15.3608 -0.036
15.3911 -0.083
15.4214 0.705
15.4516 -0.018
15.4819 -0.064
15.5122 0.099
15.5425 0.679
15.5728 0.114
15.6030 -0.087
15.6333 0.076
15.6636 0.501
15.6939 0.353
15.7242 0.152
15.7544 0.317
15.7847 -0.300
15.8150 -0.239
15.8453 0.171
15.8755 0.477
15.9058 0.522
15.9361 0.203
15.9664 0.614
15.9967 0.503
16.0269 0.133
16.0572 -0.133
16.0875 0.070
16.1178 0.013
16.1481 0.737
16.1783 0.524
16.2086 0.102
16.2389 0.462
16.2692 0.510
16.2994 0.506
16.3297 0.398
16.3600 0.134
16.3903 0.339
16.4206 0.076
16.4508 0.073
16.4811 -0.034
16.5114 0.119
16.5417 0.273
16.5720 0.427
16.6022 0.373
16.6325 0.215
16.6628 0.057
16.6931 -0.049
16.7233 0.107
16.7536 -0.259
16.7839 -0.052
16.8142 -0.105
16.8445 0.311
16.8747 0.362
16.9050 -0.055
16.9353 -0.368
16.9656 0.361
16.9959 0.518
17.0261 0.570
17.0564 -0.158
17.0867 0.155
17.1170 0.156
17.1472 0.053
17.1775 -0.311
17.2078 0.160
17.2381 0.266
17.2684 -0.045
17.2986 -0.043
17.3289 0.064
17.3592 -0.090
17.3895 0.069
17.4198 0.384
17.4500 -0.133
17.4803 0.495
17.5106 -0.230
17.5409 -0.070
17.5712 0.558
17.6014 -0.062
17.6317 0.567
17.6620 -0.053
17.6923 0.576
17.7225 0.737
17.7528 0.274
17.7831 -0.190
17.8134 -0.184
17.8437 -0.230
17.8739 -0.016
17.9042 -0.166
17.9345 0.726
17.9648 -0.570
17.9951 0.687
18.0253 0.277
18.0556 0.076
18.0859 0.500
18.1162 -0.326
18.1464 0.099
18.1767 0.367
18.2070 0.740
18.2373 -0.033
18.2676 -0.285
18.2978 0.079
18.3281 -0.181
18.3584 0.079
18.3887 0.079
18.4190 0.392
18.4492 0.393
18.4795 0.185
18.5098 0.030
18.5401 0.136
18.5703 -0.332
18.6006 0.608
18.6309 0.036
18.6612 0.143
18.6915 0.510
18.7217 0.356
18.7520 -0.006
18.7823 0.465
18.8126 0.052
18.8429 -0.205
18.8731 0.527
18.9034 0.166
18.9337 -0.090
18.9640 0.226
18.9942 0.283
19.0245 0.027
19.0548 0.292
19.0851 0.245
19.1154 0.197
19.1456 -0.006
19.1759 0.260
19.2062 0.162
19.2365 0.376
19.2668 0.174
19.2970 0.649
19.3273 -0.126
19.3576 0.193
19.3879 0.252
19.4181 0.415
19.4484 0.006
19.4787 0.013
19.5090 0.490
19.5393 0.029
19.5695 0.402
19.5998 -0.059
19.6301 -0.311
19.6604 0.104
19.6907 0.467
19.7209 -0.003
19.7512 0.465
19.7815 -0.057
19.8118 -0.214
19.8420 -0.215
19.8723 0.094
19.9026 0.768
19.9329 0.452
19.9632 0.293
19.9934 -0.126
20.0237 0.340
20.0540 0.285
20.0843 0.543
20.1146 -0.031
20.1448 -0.085
20.1751 -0.243
20.2054 0.381
20.2357 0.431
20.2659 -0.142
20.2962 -0.091
20.3265 0.117
20.3568 0.064
20.3871 0.012
20.4173 0.116
20.4476 0.273
20.4779 -0.092
20.5082 0.065
20.5385 -0.246
20.5687 0.171
20.5990 0.485
20.6293 0.226
20.6596 0.071
20.6899 -0.448
20.7201 0.023
20.7504 -0.027
20.7807 0.184
20.8110 0.343
20.8412 0.502
20.8715 -0.016
20.9018 0.144
20.9321 0.147
20.9624 0.776
20.9926 -0.158
21.0229 0.159
21.0532 0.215
21.0835 0.480
21.1138 0.016
21.1440 0.177
21.1743 -0.183
21.2046 0.135
21.2349 -0.120
21.2651 0.511
21.2954 -0.161
21.3257 -0.259
21.3560 0.206
21.3863 -0.058
21.4165 0.408
21.4468 0.561
21.4771 0.610
21.5074 -0.278
21.5377 0.189
21.5679 0.291
21.5982 0.236
21.6285 0.182
21.6588 0.441
21.6890 0.127
21.7193 0.282
21.7496 0.177
21.7799 0.176
21.8102 0.592
21.8404 0.331
21.8707 0.019
21.9010 0.800
21.9313 0.071
21.9616 0.488
21.9918 0.488
22.0221 -0.240
22.0524 -0.135
22.0827 0.075
22.1129 0.441
22.1432 0.494
22.1735 0.079
22.2038 -0.075
22.2341 -0.021
22.2643 -0.227
22.2946 0.401
22.3249 0.195
22.3552 -0.271
22.3855 0.201
22.4157 -0.160
22.4460 -0.208
22.4763 -0.212
22.5066 0.357
22.5368 0.666
22.5671 0.194
22.5974 0.086
22.6277 0.396
22.6580 -0.232
22.6882 0.130
22.7185 -0.132
22.7488 0.126
22.7791 0.332
22.8094 0.226
22.8396 0.016
22.8699 0.432
22.9002 0.014
22.9305 -0.091
22.9607 -0.092
22.9910 -0.249
23.0213 0.376
23.0516 -0.041
23.0819 -0.197
23.1121 0.064
23.1424 0.116
23.1727 -0.144
23.2030 0.326
23.2333 0.327
23.2635 0.485
23.2938 0.017
23.3241 -0.137
23.3544 0.333
23.3846 -0.133
23.4149 -0.027
23.4452 -0.337
23.4755 0.078
23.5058 0.077
23.5360 -0.185
23.5663 -0.185
23.5966 -0.082
23.6269 0.490
23.6572 0.178
23.6874 0.230
23.7177 -0.031
23.7480 0.178
23.7783 0.335
23.8086 0.283
23.8388 -0.080
23.8691 -0.027
23.8994 -0.078
23.9297 0.132
23.9599 -0.075
23.9902 -0.437
24.0205 0.763
24.0508 -0.068
24.0811 0.038
24.1113 -0.220
24.1416 0.044
24.1719 -0.057
24.2022 0.206
24.2325 -0.415
24.2627 -0.153
24.2930 -0.047
24.3233 -0.150
24.3536 0.113
24.3838 0.219
24.4141 0.326
24.4444 0.016
24.4747 0.123
24.5050 0.178
24.5352 -0.027
24.5655 -0.544
24.5958 0.137
24.6261 -0.120
24.6564 0.040
24.6866 -0.216
24.7169 0.466
24.7472 -0.155
24.7775 -0.202
24.8077 0.005
24.8380 -0.100
24.8683 -0.153
24.8986 0.211
24.9289 0.367
24.9591 -0.050
24.9894 0.054
25.0197 -0.363
25.0500 0.001
25.0803 0.156
25.1105 -0.157
25.1408 0.103
25.1711 -0.261
25.2014 0.103
25.2316 0.520
25.2619 0.312
25.2922 -0.156
25.3225 0.470
25.3528 -0.102
25.3830 0.160
25.4133 0.005
25.4436 -0.045
25.4739 0.009
25.5042 0.323
25.5344 0.117
25.5647 0.015
25.5950 0.070
25.6253 0.229
25.6555 -0.028
25.6858 0.496
25.7161 0.239
25.7464 -0.226
25.7767 -0.014
25.8069 0.094
25.8372 0.463
25.8675 0.103
25.8978 0.108
25.9281 0.008
25.9583 -0.195
25.9886 -0.094
26.0189 -0.305
26.0492 0.265
26.0794 -0.154
26.1097 -0.001
26.1400 0.518
26.1703 -0.265
26.2006 -0.007
26.2308 0.304
26.2611 0.147
26.2914 -0.271
26.3217 -0.064
26.3520 -0.325
26.3822 0.143
26.4125 -0.118
26.4428 0.038
26.4731 0.142
26.5034 0.143
26.5336 0.612
26.5639 0.144
26.5942 0.092
26.6245 0.093
26.6547 0.563
26.6850 -0.217
26.7153 0.098
26.7456 0.360
26.7759 -0.107
26.8061 0.156
26.8364 0.158
26.8667 0.734
26.8970 0.163
26.9273 -0.042
26.9575 -0.195
26.9878 0.009
27.0181 -0.048
27.0484 0.573
27.0786 -0.056
27.1089 0.356
27.1392 0.665
27.1695 0.089
27.1998 0.658
27.2300 0.238
27.2603 0.183
27.2906 0.024
27.3209 0.230
27.3512 -0.085
27.3814 0.330
27.4117 0.276
27.4420 -0.247
27.4723 0.272
27.5025 -0.042
27.5328 -0.043
27.5631 0.373
27.5934 -0.097
27.6237 0.007
27.6539 0.580
27.6842 0.059
27.7145 -0.202
27.7448 -0.311
27.7751 0.361
27.8053 0.408
27.8356 -0.169
27.8659 0.295
27.8962 -0.074
27.9264 -0.130
27.9567 0.022
27.9870 -0.086
28.0173 0.015
28.0476 0.377
28.0778 0.426
28.1081 0.006
28.1384 0.628
28.1687 -0.051
28.1990 0.363
28.2292 0.205
28.2595 0.151
28.2898 -0.163
28.3201 0.096
28.3503 -0.062
28.3806 0.406
28.4109 0.093
28.4412 0.144
28.4715 -0.169
28.5017 0.300
28.5320 0.612
28.5623 0.039
28.5926 -0.116
28.6229 0.197
28.6531 -0.219
28.6834 -0.010
28.7137 -0.269
28.7440 0.305
28.7742 -0.110
28.8045 -0.004
28.8348 -0.054
28.8651 -0.208
28.8954 -0.161
28.9256 0.043
28.9559 0.404
28.9862 0.243
29.0165 0.083
29.0468 -0.233
29.0770 -0.030
29.1073 0.069
29.1376 0.272
29.1679 -0.358
29.1981 0.158
29.2284 0.257
29.2587 -0.320
29.2890 0.145
29.3193 0.245
29.3495 0.345
29.3798 0.290
29.4101 0.286
29.4404 0.595
29.4707 0.436
29.5009 0.121
29.5312 0.587
29.5615 0.480
29.5918 -0.303
29.6221 0.216
29.6523 0.422
29.6826 -0.152
29.7129 0.263
29.7432 -0.363
29.7734 -0.215
29.8037 0.299
29.8340 0.291
29.8643 0.076
29.8946 -0.504
29.9248 0.010
29.9551 0.212
29.9854 -0.107
30.0157 0.200
30.0460 0.037
30.0762 -0.020
30.1065 -0.026
30.1368 0.073
30.1671 0.224
30.1973 0.219
30.2276 0.006
30.2579 -0.259
30.2882 0.041
30.3185 0.184
30.3487 -0.088
30.3790 0.629
30.4093 0.460
30.4396 0.396
30.4699 0.177
30.5001 -0.199
30.5304 0.466
30.5607 -0.117
30.5910 0.497
30.6212 0.226
30.6515 -0.253
30.6818 -0.055
30.7121 -0.274
30.7424 0.654
30.7726 0.697
30.8029 0.687
30.8332 0.522
30.8635 1.294
30.8938 0.348
30.9240 0.131
30.9543 1.372
30.9846 1.000
31.0149 0.679
31.0451 0.463
31.0754 1.445
31.1057 1.750
31.1360 1.274
31.1663 1.528
31.1965 1.937
31.2268 2.973
31.2571 3.591
31.2874 3.429
31.3177 3.006
31.3479 4.354
31.3782 5.443
31.4085 5.750
31.4388 8.088
31.4690 8.448
31.4993 13.026
31.5296 14.324
31.5599 15.153
31.5902 18.638
31.6204 19.520
31.6507 18.787
31.6810 15.867
31.7113 13.624
31.7416 11.693
31.7718 9.347
31.8021 7.938
31.8324 5.383
31.8627 4.495
31.8929 3.503
31.9232 3.449
31.9535 2.250
31.9838 2.613
32.0141 2.403
32.0443 1.725
32.0746 1.255
32.1049 1.671
32.1352 1.097
32.1655 1.982
32.1957 0.003
32.2260 0.524
32.2563 0.159
32.2866 0.681
32.3169 0.265
32.3471 0.005
32.3774 0.735
32.4077 0.424
32.4380 0.009
32.4682 0.271
32.4985 0.012
32.5288 -0.038
32.5591 0.329
32.5894 0.904
32.6196 -0.291
32.6499 0.233
32.6802 -0.337
32.7105 -0.178
32.7408 -0.123
32.7710 0.244
32.8013 0.195
32.8316 0.095
32.8619 -0.006
32.8921 -0.210
32.9224 0.158
32.9527 0.423
32.9830 -0.250
33.0133 -0.141
33.0435 0.020
33.0738 0.181
33.1041 -0.543
33.1344 0.036
33.1647 0.041
33.1949 -0.109
33.2252 -0.415
33.2555 0.149
33.2858 0.192
33.3160 -0.025
33.3463 -0.190
33.3766 0.011
33.4069 -0.310
33.4372 0.360
33.4674 -0.533
33.4977 0.605
33.5280 -0.288
33.5583 -0.242
33.5886 0.584
33.6188 -0.464
33.6491 -0.262
33.6794 0.201
33.7097 -0.326
33.7399 -0.124
33.7702 -0.129
33.8005 0.334
33.8308 0.329
33.8611 0.793
33.8913 0.476
33.9216 -0.102
33.9519 0.258
33.9822 0.306
34.0125 0.979
34.0427 0.819
34.0730 1.285
34.1033 2.531
34.1336 2.632
34.1638 6.067
34.1941 8.408
34.2244 10.124
34.2547 9.445
34.2850 9.026
34.3152 7.253
34.3455 6.731
34.3758 4.906
34.4061 2.821
34.4364 1.727
34.4666 1.049
34.4969 1.204
34.5272 0.683
34.5575 -0.047
34.5877 0.682
34.6180 0.526
34.6483 0.110
34.6786 0.266
34.7089 -0.514
34.7391 0.476
34.7694 0.061
34.7997 0.270
34.8300 0.220
34.8603 0.117
34.8905 -0.350
34.9208 0.173
34.9511 -0.398
34.9814 -0.031
35.0116 0.389
35.0419 0.288
35.0722 0.030
35.1025 -0.227
35.1328 -0.276
35.1630 0.244
35.1933 0.139
35.2236 0.399
35.2539 -0.070
35.2842 0.346
35.3144 0.555
35.3447 0.190
35.3750 0.712
35.4053 0.869
35.4356 0.453
35.4658 0.714
35.4961 0.976
35.5264 1.498
35.5567 1.864
35.5869 1.293
35.6172 1.816
35.6475 2.860
35.6778 2.081
35.7081 3.125
35.7383 3.441
35.7686 3.548
35.7989 3.343
35.8292 5.638
35.8595 6.527
35.8897 7.572
35.9200 8.462
35.9503 9.872
35.9806 11.387
36.0108 13.892
36.0411 14.990
36.0714 16.089
36.1017 19.896
36.1320 21.256
36.1622 18.501
36.1925 18.976
36.2228 12.263
36.2531 12.842
36.2834 9.620
36.3136 7.595
36.3439 7.133
36.3742 6.203
36.4045 4.960
36.4347 3.353
36.4650 2.475
36.4953 2.431
36.5256 1.814
36.5559 2.238
36.5861 1.466
36.6164 1.058
36.6467 1.327
36.6770 1.700
36.7073 0.720
36.7375 0.886
36.7678 0.583
36.7981 0.749
36.8284 0.082
36.8586 0.926
36.8889 -0.158
36.9192 0.061
36.9495 0.124
36.9798 0.083
37.0100 0.823
37.0403 0.002
37.0706 -0.039
37.1009 0.077
37.1312 -0.171
37.1614 0.206
37.1917 -0.147
37.2220 0.126
37.2523 -0.017
37.2825 0.465
37.3128 -0.199
37.3431 -0.029
37.3734 -0.224
37.4037 0.259
37.4339 0.325
37.4642 -0.130
37.4945 0.197
37.5248 0.264
37.5551 0.018
37.5853 -0.071
37.6156 0.257
37.6459 -0.092
37.6762 -0.285
37.7064 0.149
37.7367 -0.095
37.7670 0.339
37.7973 0.148
37.8276 0.010
37.8578 0.340
37.8881 0.306
37.9184 0.637
37.9487 0.238
37.9790 0.049
38.0092 0.016
38.0395 0.035
38.0698 -0.571
38.1001 0.005
38.1304 -0.201
38.1606 0.323
38.1909 0.431
38.2212 0.174
38.2515 0.282
38.2817 -0.026
38.3120 -0.022
38.3423 0.347
38.3726 0.091
38.4029 -0.269
38.4331 0.205
38.4634 -0.102
38.4937 0.216
38.5240 -0.039
38.5543 0.071
38.5845 0.077
38.6148 0.083
38.6451 0.298
38.6754 0.148
38.7056 0.624
38.7359 0.006
38.7662 0.117
38.7965 0.698
38.8268 0.028
38.8570 0.036
38.8873 0.253
38.9176 0.417
38.9479 0.321
38.9782 -0.243
39.0084 0.339
39.0387 -0.069
39.0690 0.513
39.0993 -0.102
39.1295 0.220
39.1598 -0.083
39.1901 0.188
39.2204 0.198
39.2507 -0.156
39.2809 -0.213
39.3112 0.250
39.3415 0.402
39.3718 0.293
39.4021 -0.076
39.4323 0.389
39.4626 -0.032
39.4929 0.016
39.5232 0.169
39.5534 0.009
39.5837 0.423
39.6140 0.264
39.6443 0.261
39.6746 0.050
39.7048 0.256
39.7351 -0.215
39.7654 -0.165
39.7957 -0.011
39.8260 0.142
39.8562 0.140
39.8865 -0.071
39.9168 0.292
39.9471 0.238
39.9773 0.340
40.0076 0.131
40.0379 -0.183
40.0682 0.076
40.0985 0.179
40.1287 0.127
40.1590 0.178
40.1893 0.439
40.2196 -0.030
40.2499 0.282
40.2801 0.022
40.3104 0.231
40.3407 -0.237
40.3710 -0.132
40.4012 0.390
40.4315 0.079
40.4618 0.133
40.4921 0.343
40.5224 0.084
40.5526 0.139
40.5829 -0.067
40.6132 0.091
40.6435 0.146
40.6738 0.097
40.7040 0.413
40.7343 0.156
40.7646 0.003
40.7949 0.059
40.8251 0.011
40.8554 0.432
40.8857 0.071
40.9160 0.545
40.9463 -0.024
40.9765 0.138
41.0068 0.143
41.0371 0.357
41.0674 0.310
41.0977 0.160
41.1279 0.374
41.1582 0.432
41.1885 0.543
41.2188 0.185
41.2491 0.087
41.2793 -0.062
41.3096 0.414
41.3399 0.213
41.3702 0.429
41.4004 0.072
41.4307 0.392
41.4610 0.244
41.4913 0.357
41.5216 0.417
41.5518 0.166
41.5821 -0.138
41.6124 -0.147
41.6427 0.677
41.6730 0.199
41.7032 0.347
41.7335 0.286
41.7638 0.173
41.7941 0.165
41.8243 0.105
41.8546 0.149
41.8849 0.194
41.9152 0.082
41.9455 0.075
41.9757 0.328
42.0060 0.426
42.0363 -0.154
42.0666 -0.108
42.0969 -0.062
42.1271 0.088
42.1574 0.030
42.1877 -0.027
42.2180 0.071
42.2482 0.222
42.2785 -0.095
42.3088 0.108
42.3391 0.052
42.3694 0.360
42.3996 0.095
42.4299 0.300
42.4602 -0.017
42.4905 0.032
42.5208 0.237
42.5510 0.181
42.5813 0.543
42.6116 0.176
42.6419 -0.035
42.6721 -0.038
42.7024 -0.040
42.7327 -0.042
42.7630 -0.044
42.7933 0.267
42.8235 -0.151
42.8538 -0.048
42.8841 -0.101
42.9144 -0.050
42.9447 0.262
42.9749 -0.051
43.0052 0.366
43.0355 0.001
43.0658 0.002
43.0960 -0.050
43.1263 0.315
43.1566 -0.101
43.1869 -0.100
43.2172 0.162
43.2474 -0.045
43.2777 -0.096
43.3080 0.063
43.3383 0.169
43.3686 -0.037
43.3988 -0.087
43.4291 0.280
43.4594 0.075
43.4897 -0.079
43.5199 0.393
43.5502 0.345
43.5805 0.088
43.6108 -0.117
43.6411 -0.165
43.6713 -0.058
43.7016 0.205
43.7319 -0.001
43.7622 -0.206
43.7925 0.052
43.8227 0.259
43.8530 0.153
43.8833 -0.057
43.9136 -0.006
43.9439 -0.215
43.9741 0.253
44.0044 0.044
44.0347 0.147
44.0650 0.251
44.0952 -0.061
44.1255 -0.113
44.1558 -0.165
44.1861 0.092
44.2164 -0.327
44.2466 -0.018
44.2769 0.084
44.3072 0.081
44.3375 -0.130
44.3678 0.181
44.3980 0.283
44.4283 0.281
44.4586 0.280
44.4889 0.278
44.5191 0.017
44.5494 -0.140
44.5797 0.119
44.6100 0.223
44.6403 -0.298
44.6705 0.222
44.7008 0.170
44.7311 0.066
44.7614 -0.193
44.7917 0.016
44.8219 -0.140
44.8522 0.122
44.8825 0.279
44.9128 0.124
44.9430 0.074
44.9733 0.492
45.0036 -0.183
45.0339 -0.337
45.0642 0.229
45.0944 0.014
45.1247 0.007
45.1550 0.001
45.1853 0.046
45.2156 -0.168
45.2458 0.034
45.2761 0.132
45.3064 0.231
45.3367 0.122
45.3669 0.377
45.3972 0.424
45.4275 0.107
45.4578 -0.158
45.4881 0.306
45.5183 -0.271
45.5486 0.350
45.5789 0.294
45.6092 -0.022
45.6395 -0.077
45.6697 0.284
45.7000 -0.032
45.7303 0.018
45.7606 0.224
45.7908 -0.039
45.8211 -0.198
45.8514 0.269
45.8817 0.059
45.9120 0.057
45.9422 -0.100
45.9725 -0.153
46.0028 -0.311
46.0331 0.202
46.0634 0.037
46.0936 -0.127
46.1239 0.177
46.1542 -0.039
46.1845 -0.151
46.2147 0.207
46.2450 0.304
46.2753 -0.016
46.3056 0.238
46.3359 0.075
46.3661 0.016
46.3964 0.114
46.4267 0.317
46.4570 0.259
46.4873 -0.007
46.5175 0.144
46.5478 0.035
46.5781 -0.022
46.6084 0.025
46.6386 0.333
46.6689 -0.088
46.6992 0.533
46.7295 -0.148
46.7598 0.056
46.7900 -0.052
46.8203 0.049
46.8506 0.046
46.8809 0.512
46.9112 0.457
46.9414 0.350
46.9717 0.296
47.0020 0.138
47.0323 0.656
47.0626 0.655
47.0928 0.601
47.1231 1.225
47.1534 0.911
47.1837 1.223
47.2139 1.014
47.2442 0.857
47.2745 1.742
47.3048 1.585
47.3351 1.377
47.3653 2.002
47.3956 1.482
47.4259 1.795
47.4562 2.056
47.4865 1.276
47.5167 1.850
47.5470 1.383
47.5773 0.864
47.6076 1.074
47.6378 1.128
47.6681 1.130
47.6984 0.143
47.7287 0.823
47.7590 0.461
47.7892 0.569
47.8195 0.311
47.8498 0.211
47.8801 0.319
47.9104 0.427
47.9406 0.170
47.9709 0.122
48.0012 0.439
48.0315 -0.077
48.0617 0.293
48.0920 0.298
48.1223 0.147
48.1526 0.100
48.1829 0.210
48.2131 -0.097
48.2434 -0.195
48.2737 -0.035
48.3040 0.125
48.3343 0.078
48.3645 0.238
48.3948 0.243
48.4251 -0.065
48.4554 0.097
48.4856 0.102
48.5159 -0.049
48.5462 0.113
48.5765 0.015
48.6068 -0.188
48.6370 -0.080
48.6673 0.185
48.6976 -0.019
48.7279 0.350
48.7582 -0.219
48.7884 -0.005
48.8187 -0.052
48.8490 0.109
48.8793 0.271
48.9095 0.276
48.9398 -0.134
48.9701 -0.233
49.0004 0.186
49.0307 -0.124
49.0609 -0.121
49.0912 0.246
49.1215 -0.116
49.1518 -0.165
49.1821 0.047
49.2123 -0.158
49.2426 0.315
49.2729 0.318
49.3032 0.010
49.3334 0.379
49.3637 0.019
49.3940 0.440
49.4243 0.393
49.4546 -0.071
49.4848 0.351
49.5151 -0.008
49.5454 -0.106
49.5757 0.160
49.6060 0.375
49.6362 0.121
49.6665 -0.029
49.6968 0.134
49.7271 0.141
49.7574 -0.165
49.7876 -0.164
49.8179 0.150
49.8482 0.412
49.8785 0.309
49.9087 0.467
49.9390 0.417
49.9693 0.003
49.9996 0.110
50.0299 0.112
50.0601 -0.249
50.0904 0.431
50.1207 0.173
50.1510 0.125
50.1813 0.076
50.2115 -0.180
50.2418 -0.027
50.2721 0.282
50.3024 0.019
50.3326 0.329
50.3629 0.274
50.3932 0.116
50.4235 0.374
50.4538 -0.253
50.4840 0.006
50.5143 0.265
50.5446 0.212
50.5749 0.055
50.6052 0.054
50.6354 0.053
50.6657 0.365
50.6960 0.365
50.7263 0.000
50.7565 0.105
50.7868 0.209
50.8171 -0.051
50.8474 -0.363
50.8777 0.102
50.9079 -0.110
50.9382 0.511
50.9685 0.091
50.9988 -0.121
51.0291 0.188
51.0593 0.081
51.0896 -0.026
51.1199 0.336
51.1502 0.282
51.1804 -0.189
51.2107 0.486
51.2410 0.120
51.2713 0.118
51.3016 -0.196
51.3318 0.220
51.3621 -0.094
51.3924 0.218
51.4227 -0.095
51.4530 0.113
51.4832 -0.043
51.5135 0.425
51.5438 0.061
51.5741 0.009
51.6043 -0.042
51.6346 0.115
51.6649 -0.092
51.6952 -0.091
51.7255 0.067
51.7557 0.329
51.7860 -0.242
51.8163 0.176
51.8466 0.335
51.8769 0.077
51.9071 -0.077
51.9374 0.187
51.9677 0.137
51.9980 -0.172
52.0282 -0.064
52.0585 -0.165
52.0888 -0.063
52.1191 -0.066
52.1494 0.504
52.1796 -0.071
52.2099 -0.021
52.2402 -0.075
52.2705 -0.129
52.3008 0.182
52.3310 -0.131
52.3613 -0.132
52.3916 0.440
52.4219 -0.342
52.4521 -0.030
52.4824 -0.083
52.5127 0.126
52.5430 -0.083
52.5733 -0.082
52.6035 0.022
52.6338 0.127
52.6641 -0.236
52.6944 0.077
52.7247 -0.130
52.7549 -0.337
52.7852 0.186
52.8155 0.449
52.8458 0.139
52.8761 -0.015
52.9063 0.405
52.9366 0.148
52.9669 -0.214
52.9972 -0.002
53.0274 -0.103
53.0577 -0.047
53.0880 0.218
53.1183 0.170
53.1486 -0.138
53.1788 0.335
53.2091 0.028
53.2394 0.189
53.2697 0.038
53.3000 -0.061
53.3302 0.049
53.3605 0.055
53.3908 0.165
53.4211 -0.141
53.4513 0.126
53.4816 -0.232
53.5119 -0.073
53.5422 -0.122
53.5725 0.194
53.6027 0.198
53.6330 -0.007
53.6633 0.414
53.6936 0.053
53.7239 0.422
53.7541 0.115
53.7844 0.015
53.8147 0.176
53.8450 0.338
53.8752 0.343
53.9055 0.141
53.9358 0.042
53.9661 -0.108
53.9964 -0.154
54.0266 0.148
54.0569 0.658
54.0872 -0.030
54.1175 0.428
54.1478 0.002
54.1780 0.252
54.2083 0.086
54.2386 0.076
54.2689 0.171
54.2991 0.266
54.3294 -0.003
54.3597 0.144
54.3900 -0.177
54.4203 0.023
54.4505 0.067
54.4808 0.007
54.5111 0.207
54.5414 -0.165
54.5717 -0.174
54.6019 0.285
54.6322 0.172
54.6625 -0.045
54.6928 0.311
54.7230 -0.322
54.7533 0.242
54.7836 -0.130
54.8139 0.175
54.8442 -0.198
54.8744 0.003
54.9047 0.205
54.9350 0.302
54.9653 -0.278
54.9956 -0.180
55.0258 0.020
55.0561 0.065
55.0864 0.005
55.1167 -0.002
55.1469 0.252
55.1772 0.089
55.2075 -0.074
55.2378 0.232
55.2681 0.070
55.2983 0.012
55.3286 0.110
55.3589 0.000
55.3892 -0.005
55.4195 -0.062
55.4497 -0.067
55.4800 -0.176
55.5103 0.028
55.5406 0.128
55.5709 0.124
55.6011 -0.037
55.6314 0.064
55.6617 -0.044
55.6920 0.213
55.7222 -0.467
55.7525 -0.156
55.7828 0.363
55.8131 0.257
55.8434 0.412
55.8736 -0.006
55.9039 0.514
55.9342 0.149
55.9645 0.929
55.9948 0.825
56.0250 0.825
56.0553 0.668
56.0856 0.825
56.1159 1.138
56.1461 1.086
56.1764 1.400
56.2067 1.817
56.2370 2.079
56.2673 2.549
56.2975 3.853
56.3278 3.803
56.3581 4.482
56.3884 4.901
56.4187 4.799
56.4489 5.896
56.4792 4.753
56.5095 5.068
56.5398 4.655
56.5700 2.783
56.6003 3.672
56.6306 2.791
56.6609 3.159
56.6912 2.903
56.7214 2.439
56.7517 1.506
56.7820 1.355
56.8123 1.776
56.8426 0.844
56.8728 0.902
56.9031 0.907
56.9334 0.497
56.9637 0.242
56.9939 0.248
57.0242 0.411
57.0545 0.470
57.0848 0.060
57.1151 0.171
57.1453 0.022
57.1756 0.290
57.2059 0.298
57.2362 0.097
57.2665 0.105
57.2967 0.270
57.3270 0.226
57.3573 0.027
57.3876 -0.173
57.4178 -0.007
57.4481 -0.102
57.4784 0.169
57.5087 0.283
57.5390 -0.123
57.5692 -0.113
57.5995 -0.102
57.6298 -0.091
57.6601 0.232
57.6904 0.035
57.7206 0.047
57.7509 0.110
57.7812 -0.034
57.8115 0.395
57.8417 0.667
57.8720 0.211
57.9023 -0.089
57.9326 -0.180
57.9629 0.132
57.9931 0.236
58.0234 0.183
58.0537 0.131
58.0840 0.079
58.1143 0.183
58.1445 0.028
58.1748 -0.180
58.2051 0.028
58.2354 -0.025
58.2656 -0.234
58.2959 0.131
58.3262 0.339
58.3565 0.027
58.3868 0.340
58.4170 0.028
58.4473 0.445
58.4776 0.186
58.5079 0.187
58.5382 -0.020
58.5684 0.399
58.5987 0.088
58.6290 0.194
58.6593 0.457
58.6896 -0.009
58.7198 0.097
58.7501 0.048
58.7804 0.051
58.8107 -0.154
58.8409 0.000
58.8712 0.155
58.9015 -0.159
58.9318 0.100
58.9621 -0.006
58.9923 0.098
59.0226 0.045
59.0529 -0.008
59.0832 -0.061
59.1135 -0.165
59.1437 0.148
59.1740 0.252
59.2043 0.252
59.2346 0.253
59.2648 -0.215
59.2951 0.046
59.3254 0.152
59.3557 0.205
59.3860 0.415
59.4162 0.209
59.4465 0.367
59.4768 0.265
59.5071 -0.097
59.5374 0.374
59.5676 0.377
59.5979 0.015
59.6282 -0.138
59.6585 -0.036
59.6887 0.275
59.7190 -0.195
59.7493 0.168
59.7796 -0.042
59.8099 -0.042
59.8401 0.321
59.8704 0.112
59.9007 0.477
59.9310 0.216
59.9613 0.112
59.9915 0.164
60.0218 0.060
60.0521 0.061
60.0824 -0.094
60.1126 0.063
60.1429 0.064
60.1732 0.222
60.2035 -0.089
60.2338 0.017
60.2640 0.019
60.2943 0.021
60.3246 -0.080
60.3549 0.131
60.3852 0.133
60.4154 0.136
60.4457 0.296
60.4760 0.091
60.5063 0.355
60.5365 0.203
60.5668 0.155
60.5971 -0.154
60.6274 -0.108
60.6577 0.407
60.6879 0.089
60.7182 0.084
60.7485 0.339
60.7788 0.126
60.8091 0.069
60.8393 0.325
60.8696 0.060
60.8999 -0.048
60.9302 0.000
60.9604 -0.108
60.9907 0.305
61.0210 0.302
61.0513 0.194
61.0816 0.139
61.1118 0.293
61.1421 -0.231
61.1724 0.184
61.2027 -0.183
61.2330 0.075
61.2632 -0.187
61.2935 0.124
61.3238 0.019
61.3541 -0.243
61.3844 0.173
61.4146 -0.088
61.4449 0.067
61.4752 0.171
61.5055 0.015
61.5357 -0.037
61.5660 0.119
61.5963 0.536
61.6266 0.329
61.6569 -0.035
61.6871 0.070
61.7174 0.071
61.7477 0.073
61.7780 0.178
61.8083 0.024
61.8385 0.026
61.8688 -0.232
61.8991 0.022
61.9294 0.119
61.9596 -0.096
61.9899 0.315
62.0202 0.153
62.0505 0.199
62.0808 0.558
62.1110 0.501
62.1413 0.391
62.1716 0.334
62.2019 0.277
62.2322 0.585
62.2624 0.893
62.2927 0.264
62.3230 0.364
62.3533 0.725
62.3835 0.670
62.4138 0.666
62.4441 0.715
62.4744 1.233
62.5047 1.699
62.5349 1.436
62.5652 2.111
62.5955 2.056
62.6258 1.794
62.6561 1.636
62.6863 1.687
62.7166 2.154
62.7469 1.372
62.7772 1.735
62.8074 1.630
62.8377 1.578
62.8680 1.369
62.8983 1.317
62.9286 0.744
62.9588 0.327
62.9891 0.901
63.0194 0.901
63.0497 0.590
63.0800 0.903
63.1102 0.331
63.1405 0.125
63.1708 0.022
63.2011 0.284
63.2313 0.182
63.2616 -0.232
63.2919 -0.128
63.3222 -0.023
63.3525 -0.126
63.3827 0.552
63.4130 0.398
63.4433 -0.018
63.4736 -0.172
63.5039 0.247
63.5341 -0.220
63.5644 0.199
63.5947 0.462
63.6250 -0.369
63.6552 0.051
63.6855 0.106
63.7158 -0.151
63.7461 0.113
63.7764 0.273
63.8066 0.173
63.8369 -0.083
63.8672 -0.131
63.8975 0.499
63.9278 0.243
63.9580 -0.064
63.9883 0.097
64.0186 0.259
64.0489 0.264
64.0791 -0.043
64.1094 0.276
64.1397 0.022
64.1700 -0.076
64.2003 0.035
64.2305 0.146
64.2608 0.361
64.2911 0.368
64.3214 0.115
64.3517 -0.138
64.3819 -0.138
64.4122 0.170
64.4425 0.061
64.4728 -0.048
64.5031 -0.052
64.5333 0.100
64.5636 -0.060
64.5939 0.197
64.6242 -0.119
64.6544 -0.018
64.6847 0.031
64.7150 0.236
64.7453 -0.079
64.7756 -0.134
64.8058 0.072
64.8361 -0.034
64.8664 -0.140
64.8967 -0.142
64.9270 -0.091
64.9572 0.168
64.9875 -0.094
65.0178 -0.042
65.0481 -0.147
65.0783 -0.043
65.1086 -0.147
65.1389 0.004
65.1692 -0.052
65.1995 -0.265
65.2297 0.147
65.2600 -0.169
65.2903 -0.017
65.3206 -0.020
65.3509 0.185
65.3811 0.077
65.4114 0.127
65.4417 -0.293
65.4720 0.225
65.5022 -0.037
65.5325 0.221
65.5628 -0.042
65.5931 -0.147
65.6234 0.007
65.6536 -0.046
65.6839 -0.047
65.7142 -0.100
65.7445 0.211
65.7748 -0.050
65.8050 0.315
65.8353 0.210
65.8656 0.158
65.8959 -0.206
65.9261 -0.106
65.9564 0.359
65.9867 -0.009
66.0170 0.092
66.0473 0.194
66.0775 0.451
66.1078 0.709
66.1381 0.290
66.1684 -0.025
66.1987 0.234
66.2289 0.440
66.2592 0.543
66.2895 0.698
66.3198 0.228
66.3500 0.487
66.3803 0.070
66.4106 0.017
66.4409 0.329
66.4712 0.173
66.5014 0.069
66.5317 0.121
66.5620 -0.087
66.5923 0.070
66.6226 0.123
66.6528 -0.032
66.6831 0.177
66.7134 0.179
66.7437 0.076
66.7739 -0.026
66.8042 -0.180
66.8345 0.072
66.8648 0.117
66.8951 -0.099
66.9253 0.102
66.9556 0.042
66.9859 -0.329
67.0162 0.133
67.0465 0.491
67.0767 -0.036
67.1070 0.062
67.1373 0.316
67.1676 -0.106
67.1978 0.565
67.2281 0.560
67.2584 0.138
67.2887 0.238
67.3190 0.649
67.3492 0.176
67.3795 1.005
67.4098 0.584
67.4401 0.841
67.4704 0.525
67.5006 0.417
67.5309 0.986
67.5612 1.244
67.5915 1.137
67.6218 1.446
67.6520 1.652
67.6823 1.546
67.7126 1.023
67.7429 1.906
67.7731 2.061
67.8034 2.059
67.8337 2.006
67.8640 2.057
67.8943 1.170
67.9245 1.065
67.9548 1.325
67.9851 0.544
68.0154 1.481
68.0457 0.960
68.0759 1.169
68.1062 1.013
68.1365 0.493
68.1668 0.494
68.1970 0.443
68.2273 0.027
68.2576 0.550
68.2879 0.135
68.3182 0.397
68.3484 0.295
68.3787 -0.224
68.4090 0.664
68.4393 0.459
68.4696 0.045
68.4998 0.048
68.5301 0.155
68.5604 0.367
68.5907 0.267
68.6209 0.010
68.6512 0.483
68.6815 0.435
68.7118 0.804
68.7421 0.705
68.7723 1.074
68.8026 0.923
68.8329 1.084
68.8632 0.829
68.8935 0.991
68.9237 0.997
68.9540 1.107
68.9843 1.270
69.0146 0.599
69.0448 1.439
69.0751 1.238
69.1054 0.724
69.1357 0.627
69.1660 0.895
69.1962 -0.191
69.2265 0.754
69.2568 0.346
69.2871 0.354
69.3174 0.206
69.3476 0.423
69.3779 0.432
69.4082 0.233
69.4385 0.190
69.4687 0.096
69.4990 0.105
69.5293 0.063
69.5596 0.177
69.5899 0.083
69.6201 0.042
69.6504 -0.052
69.6807 0.011
69.7110 -0.030
69.7413 0.086
69.7715 0.253
69.8018 0.213
69.8321 -0.088
69.8624 -0.232
69.8926 0.132
69.9229 0.235
69.9532 0.287
69.9835 0.287
70.0138 -0.182
70.0440 -0.078
70.0743 -0.078
70.1046 0.027
70.1349 -0.024
70.1652 0.133
70.1954 0.082
70.2257 0.135
70.2560 0.241
70.2863 -0.018
70.3166 -0.016
70.3468 -0.066
70.3771 0.249
70.4074 0.251
70.4377 -0.007
70.4679 0.101
70.4982 0.104
70.5285 -0.154
70.5588 -0.049
70.5891 0.107
70.6193 0.160
70.6496 0.161
70.6799 0.110
70.7102 0.007
70.7405 -0.148
70.7707 0.218
70.8010 0.063
70.8313 0.013
70.8616 0.120
70.8918 -0.086
70.9221 0.333
70.9524 0.023
70.9827 0.234
71.0130 0.394
71.0432 0.085
71.0735 -0.068
71.1038 -0.116
71.1341 -0.116
71.1644 -0.118
71.1946 0.192
71.2249 -0.070
71.2552 -0.123
71.2855 0.188
71.3157 -0.126
71.3460 0.238
71.3763 -0.075
71.4066 0.029
71.4369 -0.128
71.4671 0.185
71.4974 -0.127
71.5277 -0.132
71.5580 0.228
71.5883 0.328
71.6185 -0.040
71.6488 0.008
71.6791 -0.151
71.7094 0.210
71.7396 -0.106
71.7699 0.048
71.8002 0.253
71.8305 0.042
71.8608 -0.116
71.8910 0.038
71.9213 0.088
71.9516 0.138
71.9819 0.293
72.0122 -0.177
72.0424 0.134
72.0727 -0.075
72.1030 -0.128
72.1333 -0.024
72.1635 0.340
72.1938 -0.025
72.2241 -0.025
72.2544 0.028
72.2847 0.288
72.3149 0.081
72.3452 -0.023
72.3755 0.291
72.4058 0.188
72.4361 0.085
72.4663 0.086
72.4966 0.140
72.5269 0.299
72.5572 0.092
72.5874 0.095
72.6177 -0.007
72.6480 0.308
72.6783 0.155
72.7086 -0.050
72.7388 -0.099
72.7691 0.009
72.7994 -0.143
72.8297 0.329
72.8600 0.229
72.8902 0.130
72.9205 0.238
72.9508 -0.069
72.9811 -0.116
73.0113 -0.014
73.0416 0.349
73.0719 -0.016
73.1022 0.139
73.1325 0.034
73.1627 0.294
73.1930 -0.019
73.2233 0.242
73.2536 -0.071
73.2839 0.294
73.3141 -0.226
73.3444 0.035
73.3747 0.244
73.4050 0.245
73.4353 -0.118
73.4655 -0.116
73.4958 0.091
73.5261 0.038
73.5564 0.037
73.5866 0.193
73.6169 -0.224
73.6472 0.036
73.6775 -0.172
73.7078 0.193
73.7380 -0.015
73.7683 0.298
73.7986 0.091
73.8289 -0.116
73.8592 -0.116
73.8894 0.142
73.9197 0.035
73.9500 0.034
73.9803 0.136
74.0105 -0.074
74.0408 -0.179
74.0711 0.184
74.1014 0.444
74.1317 0.183
74.1619 0.286
74.1922 0.130
74.2225 -0.026
74.2528 0.130
74.2831 -0.130
74.3133 0.183
74.3436 0.132
74.3739 -0.024
74.4042 -0.127
74.4344 0.187
74.4647 -0.124
74.4950 0.086
74.5253 -0.120
74.5556 0.038
74.5858 -0.012
74.6161 0.147
74.6464 0.202
74.6767 0.101
74.7070 0.156
74.7372 -0.153
74.7675 -0.107
74.7978 0.097
74.8281 0.456
74.8583 0.035
74.8886 0.082
74.9189 0.078
74.9492 -0.083
74.9795 -0.087
75.0097 0.222
75.0400 0.323
75.0703 0.423
75.1006 0.212
75.1309 0.157
75.1611 -0.054
75.1914 0.255
75.2217 0.097
75.2520 -0.166
75.2822 0.197
75.3125 -0.118
75.3428 0.089
75.3731 0.088
75.4034 0.087
75.4336 0.086
75.4639 -0.019
75.4942 0.032
75.5245 0.032
75.5548 -0.177
75.5850 0.344
75.6153 -0.124
75.6456 0.136
75.6759 0.085
75.7061 0.190
75.7364 -0.122
75.7667 -0.016
75.7970 0.194
75.8273 -0.117
75.8575 0.041
75.8878 0.095
75.9181 -0.007
75.9484 0.256
75.9787 -0.002
76.0089 0.053
76.0392 0.004
76.0695 -0.149
76.0998 0.323
76.1301 -0.038
76.1603 0.018
76.1906 -0.135
76.2209 0.182
76.2512 0.030
76.2814 -0.069
76.3117 -0.116
76.3420 0.090
76.3723 0.193
76.4026 0.140
76.4328 0.140
76.4631 0.035
76.4934 -0.070
76.5237 0.191
76.5540 0.347
76.5842 0.295
76.6145 0.400
76.6448 0.244
76.6751 0.609
76.7053 0.298
76.7356 0.455
76.7659 0.301
76.7962 0.250
76.8265 0.356
76.8567 0.150
76.8870 0.048
76.9173 0.363
76.9476 0.730
76.9779 0.160
77.0081 0.215
77.0384 0.687
77.0687 0.013
77.0990 0.277
77.1292 0.333
77.1595 0.077
77.1898 -0.179
77.2201 -0.027
77.2504 -0.031
77.2806 -0.086
77.3109 0.483
77.3412 -0.041
77.3715 0.216
77.4018 0.057
77.4320 0.159
77.4623 0.000
77.4926 0.206
77.5229 0.309
77.5531 0.255
77.5834 0.357
77.6137 0.043
77.6440 -0.010
77.6743 -0.115
77.7045 0.040
77.7348 -0.116
77.7651 -0.064
77.7954 -0.116
77.8257 -0.116
77.8559 0.090
77.8862 0.036
77.9165 0.086
77.9468 -0.123
77.9770 0.084
78.0073 -0.126
78.0376 0.134
78.0679 -0.023
78.0982 0.029
78.1284 0.081
78.1587 0.133
78.1890 -0.127
78.2193 -0.077
78.2496 0.181
78.2798 -0.029
78.3101 0.022
78.3404 0.125
78.3707 0.332
78.4009 -0.085
78.4312 -0.086
78.4615 0.226
78.4918 0.122
78.5221 -0.191
78.5523 -0.034
78.5826 0.018
78.6129 0.383
78.6432 0.019
78.6735 0.281
78.7037 -0.031
78.7340 0.075
78.7643 0.233
78.7946 0.183
78.8248 -0.024
78.8551 -0.074
78.8854 -0.123
78.9157 0.192
78.9460 0.038
78.9762 0.093
79.0065 0.357
79.0368 0.152
79.0671 -0.001
79.0974 -0.153
79.1276 0.056
79.1579 -0.048
79.1882 0.109
79.2185 -0.046
79.2488 -0.044
79.2790 -0.043
79.3093 -0.041
79.3396 -0.091
79.3699 0.380
79.4001 0.017
79.4304 0.176
79.4607 -0.081
79.4910 0.182
79.5213 0.341
79.5515 0.084
79.5818 -0.016
79.6121 -0.169
79.6424 0.200
79.6727 -0.109
79.7029 -0.104
79.7332 -0.057
79.7635 0.146
79.7938 0.194
79.8240 0.138
79.8543 0.185
79.8846 0.077
79.9149 0.334
79.9452 0.174
79.9754 0.171
80.0057 0.011
80.0360 0.217
80.0663 0.214
80.0966 0.107
80.1268 0.157
80.1571 -0.106
80.1874 0.361
80.2177 -0.110
80.2479 -0.111
80.2782 0.148
80.3085 -0.010
80.3388 0.042
80.3691 -0.116
80.3993 0.040
80.4296 -0.116
80.4599 -0.116
80.4902 0.142
80.5205 0.192
80.5507 -0.018
80.5810 0.189
80.6113 0.032
80.6416 -0.074
80.6718 0.342
80.7021 -0.127
80.7324 -0.076
80.7627 -0.076
80.7930 0.341
80.8232 -0.076
80.8535 0.029
80.8838 -0.075
80.9141 0.291
80.9444 0.031
80.9746 0.084
81.0049 -0.070
81.0352 0.192
81.0655 -0.119
81.0957 0.612
81.1260 0.093
81.1563 -0.113
81.1866 0.411
81.2169 -0.003
81.2471 -0.052
81.2774 -0.310
81.3077 0.105
81.3380 0.311
81.3683 0.257
81.3985 -0.110
81.4288 -0.111
81.4591 0.200
81.4894 0.043
81.5196 0.146
81.5499 0.145
81.5802 -0.116
81.6105 -0.116
81.6408 0.091
81.6710 0.246
81.7013 0.037
81.7316 0.245
81.7619 -0.015
81.7922 -0.015
81.8224 -0.119
81.8527 0.142
81.8830 0.090
81.9133 -0.013
81.9436 -0.116
81.9738 0.039
82.0041 -0.170
82.0344 0.038
82.0647 0.038
82.0949 0.038
82.1252 0.038
82.1555 0.038
82.1858 -0.013
82.2161 -0.116
82.2463 -0.116
82.2766 0.143
82.3069 -0.013
82.3372 -0.065
82.3675 0.351
82.3977 -0.221
82.4280 -0.116
82.4583 -0.116
82.4886 0.038
82.5188 0.141
82.5491 -0.017
82.5794 -0.018
82.6097 0.086
82.6400 -0.123
82.6702 0.085
82.7005 -0.020
82.7308 0.345
82.7611 -0.123
82.7914 0.189
82.8216 0.034
82.8519 -0.174
82.8822 0.140
82.9125 -0.015
82.9427 -0.014
82.9730 -0.116
83.0033 0.038
83.0336 0.245
83.0639 -0.017
83.0941 -0.018
83.1244 -0.070
83.1547 0.137
83.1850 0.137
83.2153 0.033
83.2455 0.137
83.2758 -0.123
83.3061 0.137
83.3364 0.190
83.3666 0.087
83.3969 -0.121
83.4272 0.297
83.4575 -0.066
83.4878 -0.116
83.5180 -0.116
83.5483 -0.013
83.5786 0.298
83.6089 -0.067
83.6392 -0.016
83.6694 0.088
83.6997 -0.017
83.7300 -0.069
83.7603 -0.173
83.7905 0.192
83.8208 0.141
83.8511 -0.223
83.8814 -0.066
83.9117 -0.116
83.9419 -0.065
83.9722 -0.117
84.0025 0.195
84.0328 -0.117
84.0631 -0.116
84.0933 0.091
84.1236 -0.065
84.1539 -0.066
84.1842 0.039
84.2144 0.091
84.2447 0.039
84.2750 -0.116
84.3053 -0.013
84.3356 0.248
84.3658 0.092
84.3961 -0.064
84.4264 -0.011
84.4567 -0.063
84.4870 0.042
84.5172 -0.113
84.5475 0.305
84.5778 -0.058
84.6081 -0.108
84.6383 0.050
84.6686 0.209
84.6989 -0.101
84.7292 -0.099
84.7595 0.008
84.7897 0.220
84.8200 0.431
84.8503 0.122
84.8806 -0.031
84.9109 -0.079
84.9411 0.237
84.9714 -0.123
85.0017 0.038
85.0320 0.094
85.0623 -0.057
85.0925 -0.104
85.1228 -0.053
85.1531 0.206
85.1834 -0.055
85.2136 0.256
85.2439 0.204
85.2742 -0.109
85.3045 0.099
85.3348 -0.109
85.3650 0.360
85.3953 0.204
85.4256 -0.055
85.4559 0.206
85.4862 -0.001
85.5164 -0.104
85.5467 -0.004
85.5770 -0.008
85.6073 0.092
85.6375 -0.120
85.6678 0.085
85.6981 0.082
85.7284 0.131
85.7587 0.181
85.7889 0.022
85.8192 0.020
85.8495 -0.087
85.8798 -0.089
85.9101 0.274
85.9403 -0.040
85.9706 0.063
86.0009 -0.146
86.0312 0.165
86.0614 0.060
86.0917 -0.044
86.1220 0.007
86.1523 -0.097
86.1826 0.320
86.2128 0.320
86.2431 0.060
86.2734 -0.096
86.3037 0.062
86.3340 0.219
86.3642 -0.144
86.3945 -0.039
86.4248 0.119
86.4551 -0.087
86.4853 -0.085
86.5156 0.125
86.5459 0.336
86.5762 0.130
86.6065 -0.127
86.6367 -0.080
86.6670 0.072
86.6973 -0.088
86.7276 0.064
86.7579 -0.044
86.7881 0.109
86.8184 0.209
86.8487 -0.210
86.8790 0.203
86.9092 -0.060
86.9395 -0.115
86.9698 0.143
87.0001 0.141
87.0304 -0.017
87.0606 -0.071
87.0909 0.188
87.1212 0.030
87.1515 -0.127
87.1818 0.028
87.2120 0.183
87.2423 -0.026
87.2726 -0.026
87.3029 0.025
87.3331 -0.131
87.3634 0.130
87.3937 -0.078
87.4240 -0.130
87.4543 0.287
87.4845 -0.128
87.5148 -0.075
87.5451 -0.022
87.5754 0.084
87.6057 0.033
87.6359 0.035
87.6662 0.090
87.6965 -0.116
87.7268 -0.116
87.7571 0.039
87.7873 0.143
87.8176 -0.118
87.8479 -0.013
87.8782 0.143
87.9084 -0.065
87.9387 -0.116
87.9690 -0.014
87.9993 0.036
88.0296 0.034
88.0598 -0.072
88.0901 0.188
88.1204 -0.126
88.1507 -0.023
88.1810 0.029
88.2112 -0.076
88.2415 0.028
88.2718 -0.024
88.3021 -0.128
88.3323 0.184
88.3626 -0.128
88.3929 -0.075
88.4232 0.186
88.4535 0.083
88.4837 0.137
88.5140 -0.122
88.5443 0.296
88.5746 -0.119
88.6049 -0.116
88.6351 0.144
88.6654 0.195
88.6957 0.195
88.7260 -0.273
88.7562 -0.116
88.7865 0.191
88.8168 0.186
88.8471 0.233
88.8774 0.072
88.9076 0.276
88.9379 0.011
88.9682 0.112
88.9985 0.108
89.0288 0.312
89.0590 -0.056
89.0893 0.045
89.1196 0.042
89.1499 -0.065
89.1801 0.141
89.2104 -0.174
89.2407 0.293
89.2710 0.447
89.3013 0.497
89.3315 0.339
89.3618 0.286
89.3921 0.337
89.4224 0.388
89.4527 0.126
89.4829 0.282
89.5132 0.490
89.5435 0.229
89.5738 0.438
89.6040 0.282
89.6343 0.334
89.6646 0.178
89.6949 0.596
89.7252 0.336
89.7554 0.598
89.7857 0.078
89.8160 0.132
89.8463 0.030
89.8766 -0.020
89.9068 0.294
89.9371 0.036
89.9674 0.195
89.9977 0.354
90.0279 0.149
90.0582 -0.056
90.0885 -0.053
90.1188 -0.154
90.1491 0.107
90.1793 0.055
90.2096 0.420
90.2399 0.004
90.2702 0.317
90.3005 0.058
90.3307 0.111
90.3610 -0.148
90.3913 0.009
90.4216 0.011
90.4518 -0.039
90.4821 -0.141
90.5124 0.434
90.5427 0.281
90.5730 -0.133
90.6032 0.234
90.6335 0.185
90.6638 -0.020
90.6941 -0.016
90.7244 -0.116
90.7546 0.037
90.7849 -0.070
90.8152 0.292
90.8455 0.290
90.8758 -0.129
90.9060 -0.079
90.9363 0.284
90.9666 -0.030
90.9969 0.021
91.0271 0.072
91.0574 0.227
91.0877 -0.086
91.1180 -0.034
91.1483 -0.035
91.1785 -0.191
91.2088 0.122
91.2391 -0.191
91.2694 0.070
91.2997 0.071
91.3299 -0.241
91.3602 0.177
91.3905 0.074
91.4208 0.232
91.4510 -0.027
91.4813 0.131
91.5116 -0.023
91.5419 -0.020
91.5722 0.086
91.6024 -0.015
91.6327 -0.116
91.6630 0.040
91.6933 -0.116
91.7236 -0.069
91.7538 0.031
91.7841 0.131
91.8144 -0.133
91.8447 0.228
91.8749 0.172
91.9052 -0.196
91.9355 -0.095
91.9658 0.111
91.9961 0.056
92.0263 0.054
92.0566 0.208
92.0869 0.101
92.1172 0.152
92.1475 -0.006
92.1777 0.044
92.2080 0.304
92.2383 -0.062
92.2686 0.302
92.2988 -0.012
92.3291 -0.064
92.3594 -0.064
92.3897 0.196
92.4200 0.248
92.4502 -0.116
92.4805 0.249
92.5108 0.354
92.5411 0.199
92.5714 0.044
92.6016 -0.059
92.6319 0.151
92.6622 0.517
92.6925 0.102
92.7227 0.052
92.7530 -0.050
92.7833 0.161
92.8136 0.320
92.8439 -0.093
92.8741 0.430
92.9044 0.173
92.9347 0.125
92.9650 0.285
92.9953 0.185
93.0255 -0.072
93.0558 0.349
93.0861 0.354
93.1164 0.202
93.1466 -0.001
93.1769 0.108
93.2072 0.218
93.2375 0.223
93.2678 0.333
93.2980 0.183
93.3283 0.033
93.3586 -0.065
93.3889 0.410
93.4192 0.417
93.4494 0.216
93.4797 0.379
93.5100 -0.082
93.5403 -0.179
93.5706 0.125
93.6008 0.272
93.6311 0.108
93.6614 0.256
93.6917 -0.013
93.7219 0.240
93.7522 -0.080
93.7825 0.121
93.8128 0.113
93.8431 0.367
93.8733 0.100
93.9036 0.093
93.9339 -0.070
93.9642 0.080
93.9945 -0.030
94.0247 0.121
94.0550 0.219
94.0853 -0.047
94.1156 0.260
94.1458 -0.057
94.1761 0.303
94.2064 -0.119
94.2367 0.190
94.2670 0.081
94.2972 -0.027
94.3275 -0.239
94.3578 0.226
94.3881 0.014
94.4184 0.063
94.4486 0.164
94.4789 0.266
94.5092 0.211
94.5395 0.104
94.5697 0.258
94.6000 0.048
94.6303 0.202
94.6606 0.305
94.6909 0.095
94.7211 -0.062
94.7514 0.145
94.7817 0.092
94.8120 0.091
94.8423 0.404
94.8725 -0.118
94.9028 0.091
94.9331 0.351
94.9634 0.248
94.9936 0.196
95.0239 0.457
95.0542 0.823
95.0845 0.355
95.1148 0.773
95.1450 0.410
95.1753 0.464
95.2056 0.622
95.2359 0.364
95.2662 0.731
95.2964 0.265
95.3267 0.424
95.3570 0.375
95.3873 0.691
95.4175 0.277
95.4478 0.541
95.4781 0.129
95.5084 0.601
95.5387 0.137
95.5689 0.245
95.5992 0.302
95.6295 0.203
95.6598 0.520
95.6901 0.317
95.7203 0.322
95.7506 0.120
95.7809 0.282
95.8112 0.340
95.8414 -0.071
95.8717 -0.116
95.9020 -0.062
95.9323 0.201
95.9626 -0.108
95.9928 0.207
96.0231 -0.050
96.0534 0.110
96.0837 0.218
96.1140 0.482
96.1442 0.434
96.1745 0.230
96.2048 0.287
96.2351 -0.073
96.2653 0.401
96.2956 -0.063
96.3259 0.047
96.3562 -0.104
96.3865 -0.004
96.4167 0.044
96.4470 0.041
96.4773 0.142
96.5076 0.086
96.5379 0.031
96.5681 -0.024
96.5984 0.130
96.6287 0.232
96.6590 0.178
96.6893 0.384
96.7195 0.590
96.7498 0.016
96.7801 0.067
96.8104 0.013
96.8406 0.117
96.8709 0.220
96.9012 0.011
96.9315 0.011
96.9618 -0.042
96.9920 0.063
97.0223 0.167
97.0526 0.011
97.0829 0.220
97.1132 -0.039
97.1434 0.014
97.1737 0.119
97.2040 0.068
97.2343 0.174
97.2645 -0.136
97.2948 0.126
97.3251 0.128
97.3554 0.235
97.3857 -0.023
97.4159 0.084
97.4462 0.035
97.4765 -0.066
97.5068 0.042
97.5371 -0.059
97.5673 0.153
97.5976 -0.051
97.6279 0.214
97.6582 -0.042
97.6884 0.275
97.7187 0.228
97.7490 -0.028
97.7793 -0.179
97.8096 0.073
97.8398 0.273
97.8701 0.369
97.9004 0.153
97.9307 0.302
97.9610 0.294
97.9912 0.183
98.0215 0.228
98.0518 0.065
98.0821 0.111
98.1123 0.104
98.1426 0.306
98.1729 0.769
98.2032 0.399
98.2335 0.133
98.2637 0.127
98.2940 0.122
98.3243 0.013
98.3546 0.268
98.3849 0.055
98.4151 0.259
98.4454 0.255
98.4757 -0.009
98.5060 0.143
98.5362 0.244
98.5665 -0.020
98.5968 -0.128
98.6271 0.077
98.6574 0.074
98.6876 0.227
98.7179 0.380
98.7482 0.013
98.7785 0.063
98.8088 0.060
98.8390 -0.046
98.8693 -0.100
98.8996 0.003
98.9299 -0.103
98.9601 0.000
98.9904 0.103
99.0207 0.310
99.0510 -0.003
99.0813 0.101
99.1115 -0.004
99.1418 -0.004
99.1721 -0.108
99.2024 -0.055
99.2327 0.205
99.2629 0.050
99.2932 0.051
99.3235 -0.104
99.3538 0.001
99.3841 -0.102
99.4143 -0.048
99.4446 0.006
99.4749 0.008
99.5052 0.011
99.5354 -0.143
99.5657 0.120
99.5960 -0.190
99.6263 0.074
99.6566 -0.027
99.6868 -0.128
99.7171 -0.177
99.7474 0.190
99.7777 0.141
99.8080 0.144
99.8382 0.147
99.8685 -0.214
99.8988 0.206
99.9291 0.314
99.9593 0.006
99.9896 -0.094
100.0199 -0.090
100.0502 0.175
100.0805 -0.028
100.1107 -0.127
100.1410 0.084
100.1713 -0.016
100.2016 -0.116
100.2319 -0.116
100.2621 -0.173
100.2924 0.187
100.3227 -0.181
100.3530 0.023
100.3832 0.072
100.4135 0.016
100.4438 0.638
100.4741 -0.094
100.5044 -0.201
100.5346 0.213
100.5649 0.106
100.5952 0.104
100.6255 0.362
100.6558 0.152
100.6860 -0.162
100.7163 0.045
100.7466 -0.165
100.7769 0.355
100.8071 -0.115
100.8374 0.249
100.8677 0.144
100.8980 0.248
100.9283 -0.116
100.9585 0.092
100.9888 -0.220
101.0191 0.145
101.0494 0.302
101.0797 0.043
101.1099 -0.060
101.1402 -0.111
101.1705 0.151
101.2008 0.101
101.2310 0.259
101.2613 0.157
101.2916 0.107
101.3219 0.005
101.3522 0.112
101.3824 0.011
101.4127 -0.038
101.4430 0.070
101.4733 -0.135
101.5036 0.129
101.5338 -0.127
101.5641 -0.079
101.5944 0.282
101.6247 0.018
101.6549 0.118
101.6852 -0.093
101.7155 -0.096
101.7458 0.162
101.7761 -0.154
101.8063 -0.105
101.8366 -0.003
101.8669 0.098
101.8972 0.044
101.9275 0.145
101.9577 -0.065
101.9880 0.037
102.0183 -0.069
102.0486 0.242
102.0788 0.241
102.1091 0.448
102.1394 -0.021
102.1697 0.238
102.2000 0.134
102.2302 -0.075
102.2605 0.342
102.2908 -0.023
102.3211 0.030
102.3514 -0.074
102.3816 0.291
102.4119 0.292
102.4422 -0.123
102.4725 -0.018
102.5028 -0.121
102.5330 0.298
102.5633 0.352
102.5936 0.041
102.6239 0.252
102.6541 0.254
102.6844 0.153
102.7147 0.104
102.7450 -0.206
102.7753 -0.052
102.8055 0.205
102.8358 0.202
102.8661 0.564
102.8964 0.197
102.9267 0.404
102.9569 0.089
102.9872 0.348
103.0175 0.086
103.0478 0.189
103.0780 -0.021
103.1083 0.343
103.1386 -0.127
103.1689 0.133
103.1992 -0.023
103.2294 -0.128
103.2597 -0.079
103.2900 0.387
103.3203 0.280
103.3506 -0.139
103.3808 0.171
103.4111 0.065
103.4414 0.480
103.4717 0.270
103.5019 0.320
103.5322 0.371
103.5625 0.161
103.5928 0.265
103.6231 0.056
103.6533 0.263
103.6836 -0.154
103.7139 -0.206
103.7442 0.207
103.7745 0.307
103.8047 0.355
103.8350 -0.013
103.8653 0.192
103.8956 -0.020
103.9258 -0.075
103.9561 0.026
103.9864 0.180
104.0167 0.230
104.0470 0.227
104.0772 0.017
104.1075 -0.089
104.1378 0.066
104.1681 0.116
104.1984 0.115
104.2286 0.166
104.2589 0.217
104.2892 -0.096
104.3195 -0.200
104.3497 0.164
104.3800 0.320
104.4103 0.164
104.4406 0.112
104.4709 0.269
104.5011 0.010
104.5314 0.063
104.5617 0.012
104.5920 0.117
104.6223 0.119
104.6525 -0.036
104.6828 -0.138
104.7131 0.019
104.7434 -0.033
104.7736 0.072
104.8039 -0.031
104.8342 0.127
104.8645 -0.028
104.8948 0.025
104.9250 0.131
104.9553 0.342
104.9856 0.083
105.0159 0.086
105.0462 0.297
105.0764 0.195
105.1067 0.250
105.1370 0.045
105.1673 -0.003
105.1975 0.365
105.2278 -0.100
105.2581 0.060
105.2884 -0.092
105.3187 0.277
105.3489 -0.135
105.3792 -0.026
105.4095 -0.125
105.4398 0.401
105.4701 0.302
105.5003 0.099
105.5306 0.365
105.5609 0.163
105.5912 0.273
105.6215 -0.085
105.6517 0.026
105.6820 0.085
105.7123 -0.116
105.7426 -0.068
105.7728 0.189
105.8031 0.081
105.8334 0.338
105.8637 -0.029
105.8940 0.124
105.9242 0.018
105.9545 0.224
105.9848 -0.091
106.0151 0.220
106.0454 0.009
106.0756 -0.200
106.1059 0.163
106.1362 -0.151
106.1665 0.109
106.1967 0.212
106.2270 0.003
106.2573 -0.101
106.2876 0.159
106.3179 -0.154
106.3481 -0.102
106.3784 0.055
106.4087 0.211
106.4390 0.368
106.4693 0.056
106.4995 -0.047
106.5298 -0.150
106.5601 0.268
106.5904 0.269
106.6206 0.271
106.6509 0.273
106.6812 -0.038
106.7115 0.225
106.7418 0.436
106.7720 0.282
106.8023 -0.079
106.8326 0.236
106.8629 0.500
106.8932 0.451
106.9234 0.195
106.9537 0.094
106.9840 0.046
107.0143 0.103
107.0445 -0.153
107.0748 -0.058
107.1051 -0.066
107.1354 0.134
107.1657 0.022
107.1959 0.379
107.2262 0.319
107.2565 0.207
107.2868 -0.060
107.3171 -0.119
107.3473 0.239
107.3776 -0.081
107.4079 -0.087
107.4382 -0.041
107.4684 0.109
107.4987 -0.209
107.5290 -0.006
107.5593 0.249
107.5896 0.087
107.6198 -0.074
107.6501 0.130
107.6804 0.021
107.7107 0.225
107.7410 0.325
107.7712 0.217
107.8015 -0.152
107.8318 0.053
107.8621 0.206
107.8923 0.046
107.9226 -0.009
107.9529 0.145
107.9832 -0.014
108.0135 -0.016
108.0437 0.086
108.0740 0.761
108.1043 0.082
108.1346 0.236
108.1649 -0.077
108.1951 -0.027
108.2254 0.181
108.2557 0.493
108.2860 -0.029
108.3163 0.127
108.3465 0.075
108.3768 0.127
108.4071 0.283
108.4374 0.023
108.4676 0.128
108.4979 -0.079
108.5282 0.286
108.5585 0.183
108.5888 -0.232
108.6190 -0.131
108.6493 0.179
108.6796 -0.084
108.7099 -0.034
108.7402 0.172
108.7704 0.379
108.8007 -0.092
108.8310 0.063
108.8613 0.218
108.8915 0.061
108.9218 -0.201
108.9521 0.163
108.9824 0.007
109.0127 -0.046
109.0429 0.215
109.0732 -0.150
109.1035 -0.097
109.1338 -0.045
109.1641 0.216
109.1943 -0.147
109.2246 -0.255
109.2549 0.262
109.2852 -0.054
109.3154 -0.005
109.3457 0.097
109.3760 0.094
109.4063 0.196
109.4366 0.037
109.4668 0.348
109.4971 0.346
109.5274 0.136
109.5577 0.082
109.5880 -0.023
109.6182 0.184
109.6485 0.131
109.6788 -0.026
109.7091 0.078
109.7393 0.234
109.7696 0.130
109.7999 0.130
109.8302 0.391
109.8605 0.287
109.8907 0.027
109.9210 -0.232
109.9513 0.023
109.9816 0.331
110.0119 0.065
110.0421 -0.148
110.0724 0.317
110.1027 0.208
110.1330 0.256
110.1632 -0.060
110.1935 0.301
110.2238 -0.119
110.2541 0.034
110.2844 0.135
110.3146 0.185
110.3449 0.338
110.3752 0.544
110.4055 -0.031
110.4358 0.436
110.4660 0.173
110.4963 0.224
110.5266 -0.038
110.5569 0.013
110.5871 0.116
110.6174 0.115
110.6477 0.323
110.6780 -0.198
110.7083 -0.146
110.7385 0.010
110.7688 0.323
110.7991 0.063
110.8294 -0.093
110.8597 0.168
110.8899 0.326
110.9202 -0.090
110.9505 0.484
110.9808 0.330
111.0110 -0.085
111.0413 0.073
111.0716 -0.029
111.1019 0.026
111.1322 0.080
111.1624 0.239
111.1927 -0.174
111.2230 -0.119
111.2533 0.145
111.2836 0.096
111.3138 -0.056
111.3441 -0.156
111.3744 -0.109
111.4047 0.147
111.4350 -0.065
111.4652 -0.017
111.4955 0.552
111.5258 -0.024
111.5561 0.233
111.5863 0.074
111.6166 0.071
111.6469 -0.140
111.6772 0.066
111.7075 0.011
111.7377 0.166
111.7680 0.007
111.7983 0.058
111.8286 -0.204
111.8589 0.159
111.8891 0.314
111.9194 -0.364
111.9497 0.052
111.9800 0.417
112.0102 0.000
112.0405 -0.105
112.0708 0.260
112.1011 0.364
112.1314 -0.104
112.1616 0.001
112.1919 -0.258
112.2222 0.047
112.2525 -0.064
112.2828 0.085
112.3130 -0.025
112.3433 -0.136
112.3736 0.275
112.4039 -0.148
112.4341 0.263
112.4644 0.258
112.4947 -0.164
112.5250 -0.065
112.5553 0.086
112.5855 -0.336
112.6158 0.285
112.6461 0.124
112.6764 -0.296
112.7067 0.012
112.7369 0.113
112.7672 -0.151
112.7975 0.002
112.8278 0.103
112.8580 -0.161
112.8883 0.201
112.9186 0.094
112.9489 0.040
112.9792 -0.066
113.0094 0.036
113.0397 0.659
113.0700 -0.072
113.1003 0.031
113.1306 0.343
113.1608 -0.127
113.1911 0.289
113.2214 -0.076
113.2517 0.184
113.2819 0.080
113.3122 -0.024
113.3425 -0.180
113.3728 -0.027
113.4031 -0.082
113.4333 0.019
113.4636 -0.244
113.4939 0.327
113.5242 -0.040
113.5545 0.323
113.5847 -0.356
113.6150 -0.149
113.6453 0.110
113.6756 -0.152
113.7058 0.108
113.7361 0.003
113.7664 -0.154
113.7967 -0.259
113.8270 0.210
113.8572 -0.102
113.8875 0.055
113.9178 -0.153
113.9481 0.161
113.9784 0.110
114.0086 0.580
114.0389 0.269
114.0692 0.167
114.0995 0.168
114.1298 -0.142
114.1600 -0.035
114.1903 0.123
114.2206 -0.082
114.2509 0.337
114.2811 -0.128
114.3114 0.083
114.3417 0.191
114.3720 -0.378
114.4023 -0.114
114.4325 0.151
114.4628 0.103
114.4931 0.264
114.5234 -0.096
114.5537 0.013
114.5839 0.070
114.6142 0.388
114.6445 0.081
114.6748 0.139
114.7050 0.041
114.7353 0.047
114.7656 0.210
114.7959 0.581
114.8262 0.015
114.8564 0.438
114.8867 0.393
114.9170 -0.068
114.9473 -0.165
114.9776 -0.018
115.0078 0.024
115.0381 -0.038
115.0684 0.369
115.0987 -0.056
115.1289 0.195
115.1592 0.082
115.1895 -0.031
115.2198 0.273
115.2501 0.161
115.2803 0.153
115.3106 0.197
115.3409 0.034
115.3712 0.130
115.4015 0.123
115.4317 -0.092
115.4620 0.266
115.4923 0.311
115.5226 0.044
115.5528 0.403
115.5831 0.501
115.6134 0.026
115.6437 0.177
115.6740 0.172
115.7042 -0.094
115.7345 0.266
115.7648 0.365
115.7951 0.100
115.8254 0.252
115.8556 -0.273
115.8859 0.087
115.9162 0.136
115.9465 0.341
115.9767 0.285
116.0070 0.021
116.0373 0.071
116.0676 0.224
116.0979 0.221
116.1281 0.532
116.1584 0.477
116.1887 -0.202
116.2190 0.057
116.2493 0.055
116.2795 0.054
116.3098 0.209
116.3401 0.312
116.3704 0.207
116.4006 0.207
116.4309 -0.054
116.4612 0.102
116.4915 0.102
116.5218 0.154
116.5520 0.467
116.5823 0.155
116.6126 0.208
116.6429 -0.103
116.6732 -0.050
116.7034 0.212
116.7337 -0.099
116.7640 -0.045
116.7943 0.061
116.8245 0.272
116.8548 0.066
116.8851 0.225
116.9154 -0.033
116.9457 0.126
116.9759 -0.131
117.0062 0.081
117.0365 -0.176
117.0668 0.245
117.0971 -0.116
117.1273 -0.060
117.1576 0.153
117.1879 0.054
117.2182 0.058
117.2485 -0.093
117.2787 -0.088
117.3090 -0.134
117.3393 0.288
117.3696 0.138
117.3998 -0.012
117.4301 -0.006
117.4604 -0.156
117.4907 -0.149
117.5210 0.118
117.5512 -0.031
117.5815 -0.180
117.6118 0.033
117.6421 -0.169
117.6724 0.201
117.7026 0.260
117.7329 0.058
117.7632 0.116
117.7935 0.279
117.8237 -0.079
117.8540 0.085
117.8843 0.717
117.9146 -0.213
117.9449 0.264
117.9751 -0.197
118.0054 0.176
118.0357 0.080
118.0660 -0.068
118.0963 0.566
118.1265 0.002
118.1568 0.115
118.1871 0.176
118.2174 0.186
118.2476 -0.221
118.2779 0.258
118.3082 0.424
118.3385 0.278
118.3688 0.341
118.3990 -0.013
118.4293 -0.054
118.4596 -0.147
118.4899 -0.147
118.5202 0.059
118.5504 0.265
118.5807 0.211
118.6110 0.574
118.6413 0.416
118.6715 0.311
118.7018 0.101
118.7321 0.309
118.7624 0.047
118.7927 0.307
118.8229 -0.162
118.8532 0.099
118.8835 0.255
118.9138 0.412
118.9441 -0.005
118.9743 0.048
119.0046 0.153
119.0349 0.259
119.0652 0.364
119.0954 -0.155
119.1257 0.159
119.1560 0.161
119.1863 0.163
119.2166 -0.147
119.2468 -0.159
119.2771 0.558
119.3074 -0.079
119.3377 0.274
119.3680 0.419
119.3982 -0.008
119.4285 0.033
119.4588 0.179
119.4891 0.064
119.5193 -0.103
119.5496 -0.165
119.5799 0.033
119.6102 -0.134
119.6405 -0.092
119.6707 -0.258
119.7010 0.143
119.7313 0.284
119.7616 -0.356
119.7919 -0.110
119.8221 -0.125
119.8524 0.017
119.8827 -0.205
119.9130 0.146
119.9433 -0.337
119.9735 -0.012
120.0038 0.000
