'Id: "" Comment: "" Operator: "Lab Manager" Anode: "Cu" Scantype: "Locked Coupled" TimePerStep: "19.2" X: "9999" Y: "9999" Z: "9999" 
10.0015 0.000
10.0318 -0.837
10.0620 -0.809
10.0923 0.153
10.1226 0.594
10.1529 1.140
10.1832 0.852
10.2134 -0.164
10.2437 -0.764
10.2740 -0.658
10.3043 1.687
10.3346 1.011
10.3648 0.857
10.3951 0.078
10.4254 1.591
10.4557 0.604
10.4859 -2.049
10.5162 0.714
10.5465 -0.688
10.5768 -0.788
10.6071 1.039
10.6373 0.731
10.6676 0.735
10.6979 -0.145
10.7282 -0.348
10.7585 0.803
10.7887 0.757
10.8190 -0.487
10.8493 -0.689
10.8796 0.149
10.9098 0.780
10.9401 0.890
10.9704 0.895
11.0007 0.068
11.0310 1.585
11.0612 1.332
11.0915 0.401
11.1218 1.294
11.1521 2.343
11.1824 1.518
11.2126 2.359
11.2429 2.472
11.2732 3.105
11.3035 4.104
11.3337 6.665
11.3640 4.644
11.3943 6.320
11.4246 5.653
11.4549 6.184
11.4851 9.007
11.5154 10.841
11.5457 11.321
11.5760 14.145
11.6063 17.386
11.6365 18.179
11.6668 22.358
11.6971 23.256
11.7274 28.998
11.7577 31.043
11.7879 33.192
11.8182 27.893
11.8485 25.094
11.8788 23.390
11.9090 19.498
11.9393 14.305
11.9696 11.664
11.9999 8.398
12.0302 8.778
12.0604 8.117
12.0907 5.164
12.1210 5.545
12.1513 4.521
12.1816 4.069
12.2118 3.930
12.2421 2.958
12.2724 2.351
12.3027 1.015
12.3329 1.242
12.3632 1.000
12.3935 1.800
12.4238 0.778
12.4541 0.902
12.4843 -0.016
12.5146 0.890
12.5449 -0.392
12.5752 -0.267
12.6055 0.118
12.6357 -0.225
12.6660 0.317
12.6963 -1.067
12.7266 -0.264
12.7568 1.424
12.7871 -0.325
12.8174 0.478
12.8477 0.084
12.8780 0.836
12.9082 -0.495
12.9385 -0.003
12.9688 -0.292
12.9991 -0.008
13.0294 -0.244
13.0596 -0.480
13.0899 -0.460
13.1202 0.341
13.1505 -0.628
13.1807 0.122
13.2110 -0.378
13.2413 0.320
13.2716 0.706
13.3019 -0.730
13.3321 -0.292
13.3624 0.408
13.3927 -0.090
13.4230 0.141
13.4533 -0.253
13.4835 0.448
13.5138 0.211
13.5441 -1.379
13.5744 -0.161
13.6046 -0.035
13.6349 -0.066
13.6652 0.321
13.6955 -0.022
13.7258 -1.041
13.7560 0.064
13.7863 -0.029
13.8166 -1.163
13.8469 0.776
13.8772 0.163
13.9074 0.852
13.9377 -0.541
13.9680 0.409
13.9983 -0.828
14.0285 -0.346
14.0588 -0.228
14.0891 0.516
14.1194 -0.147
14.1497 -0.445
14.1799 -0.026
14.2102 -0.076
14.2405 -0.542
14.2708 0.502
14.3011 -0.016
14.3313 -0.168
14.3616 0.304
14.3919 0.464
14.4222 0.520
14.4524 0.056
14.4827 0.009
14.5130 -0.142
14.5433 -0.137
14.5736 -0.131
14.6038 0.604
14.6341 0.506
14.6644 0.512
14.6947 0.519
14.7250 0.474
14.7552 0.481
14.7855 0.228
14.8158 1.330
14.8461 1.286
14.8764 0.774
14.9066 0.782
14.9369 0.791
14.9672 0.644
14.9975 1.018
15.0277 -0.066
15.0580 0.778
15.0883 1.361
15.1186 1.216
15.1489 1.018
15.1791 1.654
15.2094 0.155
15.2397 0.688
15.2700 0.127
15.3003 0.504
15.3305 -0.369
15.3608 -0.043
15.3911 -0.030
15.4214 0.973
15.4516 0.101
15.4819 0.323
15.5122 0.338
15.5425 0.352
15.5728 0.992
15.6030 1.163
15.6333 0.762
15.6636 0.830
15.6939 0.481
15.7242 0.393
15.7544 0.253
15.7847 0.062
15.8150 -0.494
15.8453 -0.021
15.8755 0.868
15.9058 0.716
15.9361 -0.008
15.9664 0.414
15.9967 0.888
16.0269 0.216
16.0572 1.368
16.0875 0.228
16.1178 0.391
16.1481 0.502
16.1783 0.717
16.2086 0.672
16.2389 0.367
16.2692 1.156
16.2994 0.487
16.3297 -0.494
16.3600 -0.450
16.3903 0.792
16.4206 0.940
16.4508 0.724
16.4811 0.665
16.5114 0.762
16.5417 0.547
16.5720 1.113
16.6022 1.315
16.6325 0.320
16.6628 0.262
16.6931 1.038
16.7233 0.981
16.7536 0.612
16.7839 1.805
16.8142 0.342
16.8445 1.172
16.8747 0.179
16.9050 1.946
16.9353 1.422
16.9656 0.898
16.9959 1.625
17.0261 2.144
17.0564 2.246
17.0867 0.838
17.1170 1.045
17.1472 0.731
17.1775 1.095
17.2078 1.042
17.2381 1.042
17.2684 1.406
17.2986 -0.052
17.3289 -0.624
17.3592 0.105
17.3895 0.521
17.4198 0.365
17.4500 0.262
17.4803 -0.050
17.5106 -0.101
17.5409 -0.100
17.5712 0.371
17.6014 0.060
17.6317 0.531
17.6620 1.315
17.6923 -0.766
17.7225 0.383
17.7528 0.647
17.7831 -0.340
17.8134 0.498
17.8437 0.971
17.8739 -0.327
17.9042 0.511
17.9345 0.464
17.9648 0.834
17.9951 1.047
18.0253 -0.718
18.0556 0.226
18.0859 0.076
18.1162 0.447
18.1464 1.027
18.1767 -0.164
18.2070 0.729
18.2373 0.425
18.2676 -0.036
18.2978 0.441
18.3281 0.293
18.3584 -0.115
18.3887 0.207
18.4190 0.373
18.4492 0.435
18.4795 0.757
18.5098 0.819
18.5401 -0.108
18.5703 -0.722
18.6006 0.279
18.6309 -0.022
18.6612 0.198
18.6915 1.095
18.7217 0.222
18.7520 0.391
18.7823 0.716
18.8126 0.990
18.8429 -0.143
18.8731 0.756
18.9034 0.353
18.9337 0.315
18.9640 0.330
18.9942 -0.124
19.0245 1.245
19.0548 1.208
19.0851 -0.287
19.1154 0.927
19.1456 0.214
19.1759 0.282
19.2062 1.185
19.2365 1.097
19.2668 0.333
19.2970 0.455
19.3273 -0.100
19.3576 0.074
19.3879 0.457
19.4181 0.215
19.4484 0.755
19.4787 -0.736
19.5090 0.221
19.5393 0.970
19.5695 0.000
19.5998 0.281
19.6301 -0.896
19.6604 0.791
19.6907 0.812
19.7209 0.677
19.7512 0.595
19.7815 0.252
19.8118 0.535
19.8420 0.089
19.8723 -0.357
19.9026 -0.086
19.9329 -0.075
19.9632 0.613
19.9934 -0.052
20.0237 -0.353
20.0540 0.002
20.0843 0.514
20.1146 0.193
20.1448 0.080
20.1751 0.280
20.2054 0.428
20.2357 0.577
20.2659 -0.003
20.2962 0.927
20.3265 0.399
20.3568 0.185
20.3871 0.178
20.4173 0.120
20.4476 0.896
20.4779 -0.047
20.5082 0.625
20.5385 0.255
20.5687 1.657
20.5990 0.559
20.6293 0.295
20.6596 0.447
20.6899 -0.129
20.7201 -0.080
20.7504 -0.083
20.7807 0.747
20.8110 0.276
20.8412 0.326
20.8715 0.324
20.9018 -0.354
20.9321 0.113
20.9624 0.633
20.9926 0.216
21.0229 0.684
21.0532 -0.357
21.0835 1.674
21.1138 2.195
21.1440 1.623
21.1743 2.301
21.2046 3.865
21.2349 4.179
21.2651 2.566
21.2954 3.454
21.3257 2.206
21.3560 1.219
21.3863 0.805
21.4165 1.225
21.4468 0.604
21.4771 1.024
21.5074 0.351
21.5377 0.616
21.5679 0.464
21.5982 0.626
21.6285 1.100
21.6588 0.115
21.6890 0.277
21.7193 1.273
21.7496 -0.387
21.7799 0.192
21.8102 0.720
21.8404 0.154
21.8707 -0.255
21.9010 0.846
21.9313 1.063
21.9616 0.133
21.9918 -0.223
22.0221 0.515
22.0524 0.576
22.0827 0.013
22.1129 -0.082
22.1432 0.709
22.1735 0.251
22.2038 -0.572
22.2341 -0.239
22.2643 0.095
22.2946 0.272
22.3249 0.398
22.3552 0.107
22.3855 0.441
22.4157 -0.005
22.4460 0.122
22.4763 -0.637
22.5066 0.845
22.5368 -0.278
22.5671 -0.098
22.5974 0.291
22.6277 0.159
22.6580 -0.546
22.6882 -0.106
22.7185 -0.135
22.7488 -0.164
22.7791 0.120
22.8094 -0.273
22.8396 -0.301
22.8699 0.245
22.9002 0.165
22.9305 -0.799
22.9607 0.008
22.9910 0.710
23.0213 0.007
23.0516 -0.019
23.0819 0.060
23.1121 0.399
23.1424 0.322
23.1727 -0.015
23.2030 0.481
23.2333 0.040
23.2635 -0.401
23.2938 0.305
23.3241 1.063
23.3544 -0.210
23.3846 -0.233
23.4149 1.046
23.4452 0.399
23.4755 0.898
23.5058 1.553
23.5360 0.074
23.5663 0.677
23.5966 0.604
23.6269 1.157
23.6572 1.345
23.6874 2.523
23.7177 1.513
23.7480 2.431
23.7783 2.673
23.8086 2.497
23.8388 3.468
23.8691 2.825
23.8994 4.474
23.9297 2.841
23.9599 2.824
23.9902 2.181
24.0205 1.592
24.0508 2.252
24.0811 2.183
24.1113 2.376
24.1416 2.047
24.1719 1.146
24.2022 1.235
24.2325 1.845
24.2627 1.466
24.2930 1.972
24.3233 2.531
24.3536 2.830
24.3838 4.431
24.4141 3.532
24.4444 4.404
24.4747 1.162
24.5050 3.441
24.5352 1.815
24.5655 1.751
24.5958 3.041
24.6261 0.373
24.6564 1.196
24.6866 1.133
24.7169 0.810
24.7472 0.122
24.7775 0.894
24.8077 -0.366
24.8380 0.406
24.8683 -0.072
24.8986 -0.550
24.9289 0.327
24.9591 -0.567
24.9894 0.050
25.0197 0.355
25.0500 0.452
25.0803 -0.024
25.1105 -0.083
25.1408 0.066
25.1711 0.529
25.2014 -0.675
25.2316 0.465
25.2619 -0.791
25.2922 0.350
25.3225 -0.176
25.3528 -0.337
25.3830 -0.446
25.4133 0.175
25.4436 0.171
25.4739 -0.093
25.5042 0.425
25.5344 -0.672
25.5647 0.159
25.5950 -0.469
25.6253 -0.582
25.6555 0.868
25.6858 0.756
25.7161 -0.815
25.7464 0.896
25.7767 0.004
25.8069 0.153
25.8372 0.458
25.8675 0.348
25.8978 -1.377
25.9281 0.908
25.9583 0.486
25.9886 0.272
26.0189 0.475
26.0492 0.627
26.0794 1.664
26.1097 0.982
26.1400 0.666
26.1703 0.662
26.2006 1.023
26.2308 0.447
26.2611 0.392
26.2914 1.118
26.3217 1.845
26.3520 2.676
26.3822 0.539
26.4125 1.579
26.4428 0.901
26.4731 1.421
26.5034 1.472
26.5336 2.566
26.5639 1.576
26.5942 2.253
26.6245 3.399
26.6547 2.879
26.6850 3.609
26.7153 4.340
26.7456 3.768
26.7759 3.458
26.8061 4.970
26.8364 4.764
26.8667 6.642
26.8970 7.634
26.9273 6.856
26.9575 6.912
26.9878 4.311
27.0181 6.295
27.0484 4.945
27.0786 3.856
27.1089 4.069
27.1392 2.876
27.1695 2.048
27.1998 1.273
27.2300 1.539
27.2603 1.858
27.2906 1.552
27.3209 1.194
27.3512 1.618
27.3814 1.469
27.4117 1.893
27.4420 1.901
27.4723 0.712
27.5025 1.606
27.5328 0.364
27.5631 1.363
27.5934 0.591
27.6237 1.747
27.6539 0.506
27.6842 0.308
27.7145 0.215
27.7448 0.694
27.7751 0.132
27.8053 -0.013
27.8356 0.988
27.8659 0.636
27.8962 -0.134
27.9264 0.348
27.9567 1.714
27.9870 0.634
28.0173 -0.082
28.0476 1.285
28.0778 0.622
28.1081 -0.405
28.1384 0.859
28.1687 -0.689
28.1990 0.628
28.2292 -0.086
28.2595 -0.227
28.2898 0.310
28.3201 -0.143
28.3503 0.551
28.3806 0.046
28.4109 0.532
28.4412 0.132
28.4715 -0.267
28.5017 1.418
28.5320 0.029
28.5623 0.516
28.5926 0.535
28.6229 0.710
28.6531 -0.625
28.6834 0.019
28.7137 0.404
28.7440 -0.097
28.7742 0.704
28.8045 1.454
28.8348 -0.088
28.8651 0.402
28.8954 -0.150
28.9256 0.705
28.9559 -0.002
28.9862 0.541
29.0165 0.251
29.0468 0.378
29.0770 0.453
29.1073 0.528
29.1376 0.031
29.1679 -0.101
29.1981 -0.546
29.2284 0.119
29.2587 0.159
29.2890 0.303
29.3193 0.500
29.3495 0.176
29.3798 0.061
29.4101 0.362
29.4404 -0.065
29.4707 0.133
29.5009 0.332
29.5312 -0.667
29.5615 -0.104
29.5918 0.252
29.6221 -0.122
29.6523 0.078
29.6826 0.174
29.7129 0.739
29.7432 -0.466
29.7734 0.412
29.8037 -0.429
29.8340 0.814
29.8643 -0.703
29.8946 0.801
29.9248 -0.038
29.9551 0.321
29.9854 1.045
30.0157 0.623
30.0460 0.930
30.0762 -0.272
30.1065 -0.433
30.1368 -0.028
30.1671 0.586
30.1973 0.575
30.2276 -0.165
30.2579 -0.436
30.2882 0.162
30.3185 0.083
30.3487 -0.308
30.3790 0.238
30.4093 -0.101
30.4396 0.967
30.4699 0.108
30.5001 0.187
30.5304 -0.879
30.5607 0.138
30.5910 -0.929
30.6212 0.766
30.6515 -0.195
30.6818 -0.375
30.7121 -0.138
30.7424 0.724
30.7726 0.128
30.8029 0.575
30.8332 0.604
30.8635 0.166
30.8938 0.873
30.9240 0.644
30.9543 1.195
30.9846 1.747
31.0149 1.102
31.0451 1.707
31.0754 1.687
31.1057 3.073
31.1360 2.741
31.1663 4.232
31.1965 3.901
31.2268 5.445
31.2571 4.020
31.2874 6.138
31.3177 8.151
31.3479 10.061
31.3782 11.033
31.4085 12.735
31.4388 16.781
31.4690 19.733
31.4993 25.655
31.5296 25.222
31.5599 28.592
31.5902 31.650
31.6204 30.957
31.6507 29.120
31.6810 26.085
31.7113 22.320
31.7416 19.807
31.7718 17.137
31.8021 12.748
31.8324 11.433
31.8627 10.535
31.8929 8.543
31.9232 8.792
31.9535 7.113
31.9838 4.654
32.0141 5.267
32.0443 3.850
32.0746 3.162
32.1049 5.756
32.1352 3.870
32.1655 5.892
32.1957 4.997
32.2260 3.164
32.2563 3.624
32.2866 3.355
32.3169 3.919
32.3471 2.244
32.3774 1.715
32.4077 2.489
32.4380 1.440
32.4682 2.943
32.4985 1.946
32.5288 1.523
32.5591 2.090
32.5894 4.740
32.6196 4.838
32.6499 5.041
32.6802 8.369
32.7105 10.916
32.7408 12.891
32.7710 13.355
32.8013 11.424
32.8316 10.222
32.8619 7.875
32.8921 5.163
32.9224 3.389
32.9527 2.241
32.9830 3.436
33.0133 2.445
33.0435 2.339
33.0738 0.306
33.1041 1.607
33.1344 0.512
33.1647 0.667
33.1949 0.042
33.2252 0.719
33.2555 0.510
33.2858 -0.114
33.3160 0.615
33.3463 1.398
33.3766 -0.164
33.4069 0.515
33.4372 0.100
33.4674 0.258
33.4977 0.313
33.5280 -0.049
33.5583 -0.724
33.5886 1.259
33.6188 -0.509
33.6491 -0.505
33.6794 -0.355
33.7097 1.723
33.7399 0.415
33.7702 0.150
33.8005 0.562
33.8308 1.651
33.8611 0.448
33.8913 2.059
33.9216 2.368
33.9519 1.531
33.9822 2.153
34.0125 2.879
34.0427 4.178
34.0730 3.863
34.1033 6.413
34.1336 8.026
34.1638 11.097
34.1941 15.367
34.2244 21.356
34.2547 25.678
34.2850 19.167
34.3152 22.552
34.3455 19.271
34.3758 14.480
34.4061 11.147
34.4364 8.544
34.4666 5.837
34.4969 3.859
34.5272 4.121
34.5575 4.071
34.5877 5.011
34.6180 5.118
34.6483 6.215
34.6786 6.218
34.7089 3.044
34.7391 5.340
34.7694 4.354
34.7997 6.806
34.8300 5.613
34.8603 7.441
34.8905 9.009
34.9208 11.045
34.9511 12.978
34.9814 12.099
35.0116 13.251
35.0419 11.486
35.0722 10.868
35.1025 7.438
35.1328 6.039
35.1630 5.213
35.1933 4.127
35.2236 5.177
35.2539 3.467
35.2842 4.674
35.3144 2.547
35.3447 3.494
35.3750 3.139
35.4053 3.149
35.4356 1.857
35.4658 3.378
35.4961 4.066
35.5264 2.514
35.5567 3.932
35.5869 5.558
35.6172 4.632
35.6475 4.749
35.6778 6.532
35.7081 6.909
35.7383 8.068
35.7686 7.873
35.7989 10.178
35.8292 13.056
35.8595 15.206
35.8897 18.814
35.9200 18.516
35.9503 20.979
35.9806 25.994
36.0108 34.030
36.0411 36.182
36.0714 39.218
36.1017 37.308
36.1320 39.460
36.1622 36.768
36.1925 32.410
36.2228 29.615
36.2531 23.435
36.2834 19.443
36.3136 17.846
36.3439 13.542
36.3742 11.790
36.4045 10.871
36.4347 6.985
36.4650 6.952
36.4953 6.139
36.5256 4.440
36.5559 3.471
36.5861 3.648
36.6164 3.409
36.6467 2.597
36.6770 3.816
36.7073 1.807
36.7375 0.787
36.7678 2.268
36.7981 1.926
36.8284 0.960
36.8586 0.775
36.8889 0.486
36.9192 0.614
36.9495 -0.404
36.9798 0.506
37.0100 -0.667
37.0403 0.399
37.0706 0.216
37.1009 0.398
37.1312 -0.410
37.1614 1.179
37.1917 1.518
37.2220 -0.591
37.2523 0.686
37.2825 0.349
37.3128 0.689
37.3431 0.768
37.3734 0.744
37.4037 0.408
37.4339 0.020
37.4642 -0.003
37.4945 -0.183
37.5248 0.211
37.5551 0.033
37.5853 0.584
37.6156 -0.532
37.6459 0.280
37.6762 0.206
37.7064 -0.387
37.7367 0.321
37.7670 -0.012
37.7973 0.124
37.8276 -0.417
37.8578 0.033
37.8881 -0.403
37.9184 -0.386
37.9487 0.049
37.9790 0.172
38.0092 -0.383
38.0395 -0.103
38.0698 -0.397
38.1001 -0.543
38.1304 0.561
38.1606 0.259
38.1909 -0.303
38.2212 0.229
38.2515 0.136
38.2817 -0.634
38.3120 0.003
38.3423 -0.193
38.3726 -0.181
38.4029 0.040
38.4331 -0.363
38.4634 -0.454
38.4937 0.445
38.5240 0.250
38.5543 0.160
38.5845 0.070
38.6148 0.189
38.6451 0.100
38.6754 0.011
38.7056 -0.234
38.7359 0.147
38.7662 0.006
38.7965 -0.029
38.8268 -0.325
38.8570 0.056
38.8873 0.334
38.9176 -0.065
38.9479 0.890
38.9782 -0.394
39.0084 -0.220
39.0387 -0.045
39.0690 0.130
39.0993 0.201
39.1295 -0.248
39.1598 -0.072
39.1901 0.260
39.2204 -0.084
39.2507 0.405
39.2809 -0.095
39.3112 0.187
39.3415 0.469
39.3718 -0.291
39.4021 -0.009
39.4323 0.222
39.4626 0.557
39.4929 0.111
39.5232 -0.179
39.5534 -0.416
39.5837 0.201
39.6140 0.870
39.6443 -0.596
39.6746 0.490
39.7048 -0.142
39.7351 -0.045
39.7654 0.469
39.7957 -0.162
39.8260 -0.168
39.8562 0.347
39.8865 0.081
39.9168 0.336
39.9471 -0.034
39.9773 0.118
40.0076 -0.303
40.0379 -0.047
40.0682 0.470
40.0985 -0.002
40.1287 0.359
40.1590 0.825
40.1893 0.145
40.2196 -0.066
40.2499 0.400
40.2801 0.346
40.3104 -0.228
40.3407 0.812
40.3710 1.176
40.4012 0.081
40.4315 0.393
40.4618 0.653
40.4921 0.497
40.5224 0.497
40.5526 0.967
40.5829 0.603
40.6132 0.708
40.6435 0.553
40.6738 0.868
40.7040 1.026
40.7343 1.809
40.7646 1.395
40.7949 2.908
40.8251 2.234
40.8554 2.550
40.8857 3.960
40.9160 3.964
40.9463 3.812
40.9765 3.712
41.0068 4.498
41.0371 3.253
41.0674 2.998
41.0977 2.744
41.1279 2.385
41.1582 2.860
41.1885 2.137
41.2188 0.738
41.2491 0.536
41.2793 0.960
41.3096 0.655
41.3399 1.028
41.3702 0.307
41.4004 0.315
41.4307 0.376
41.4610 1.062
41.4913 0.238
41.5216 0.768
41.5518 -0.420
41.5821 0.527
41.6124 0.121
41.6427 0.757
41.6730 -0.222
41.7032 -0.263
41.7335 0.894
41.7638 0.385
41.7941 -0.019
41.8243 -0.267
41.8546 0.318
41.8849 0.643
41.9152 0.188
41.9455 0.566
41.9757 0.579
42.0060 0.177
42.0363 0.608
42.0666 -0.263
42.0969 0.220
42.1271 -0.442
42.1574 -0.181
42.1877 0.289
42.2180 0.134
42.2482 -0.333
42.2785 0.189
42.3088 -0.121
42.3391 -0.067
42.3694 0.352
42.3996 0.095
42.4299 0.098
42.4602 0.206
42.4905 -0.364
42.5208 -0.151
42.5510 0.062
42.5813 0.848
42.6116 0.384
42.6419 -0.288
42.6721 0.290
42.7024 0.036
42.7327 0.615
42.7630 0.308
42.7933 0.055
42.8235 0.947
42.8538 -0.140
42.8841 0.701
42.9144 0.188
42.9447 0.144
42.9749 -0.265
43.0052 0.109
43.0355 0.117
43.0658 0.179
43.0960 1.021
43.1263 0.093
43.1566 0.260
43.1869 0.530
43.2172 -0.032
43.2474 0.812
43.2777 -0.062
43.3080 -0.363
43.3383 0.107
43.3686 0.681
43.3988 0.527
43.4291 0.373
43.4594 0.636
43.4897 0.327
43.5199 0.642
43.5502 0.698
43.5805 0.285
43.6108 0.029
43.6411 0.814
43.6713 0.298
43.7016 0.355
43.7319 -0.161
43.7622 0.365
43.7925 -0.098
43.8227 0.846
43.8530 0.696
43.8833 0.233
43.9136 0.136
43.9439 0.456
43.9741 0.515
44.0044 0.106
44.0347 -0.251
44.0650 -0.295
44.0952 -0.052
44.1255 0.555
44.1558 1.371
44.1861 0.885
44.2164 0.139
44.2466 0.539
44.2769 0.470
44.3072 1.444
44.3375 -0.395
44.3678 0.006
44.3980 0.511
44.4283 0.601
44.4586 0.430
44.4889 0.832
44.5191 0.557
44.5494 0.387
44.5797 -0.564
44.6100 -0.005
44.6403 0.243
44.6705 0.490
44.7008 0.322
44.7311 1.039
44.7614 0.662
44.7917 -0.027
44.8219 -0.298
44.8522 0.524
44.8825 -0.008
44.9128 0.294
44.9430 -0.185
44.9733 0.534
45.0036 0.472
45.0339 0.307
45.0642 0.089
45.0944 0.028
45.1247 0.540
45.1550 -0.093
45.1853 0.212
45.2156 0.048
45.2458 0.248
45.2761 -0.019
45.3064 0.078
45.3367 -0.762
45.3669 0.482
45.3972 -0.045
45.4275 -0.728
45.4578 0.100
45.4881 0.147
45.5183 0.194
45.5486 0.241
45.5789 -0.492
45.6092 -0.184
45.6395 0.073
45.6697 -0.087
45.7000 -0.090
45.7303 0.011
45.7606 -0.200
45.7908 -0.671
45.8211 0.265
45.8514 0.107
45.8817 -0.364
45.9120 -0.055
45.9422 -0.006
45.9725 -0.218
46.0028 0.039
46.0331 0.505
46.0634 -0.226
46.0936 0.240
46.1239 -0.126
46.1542 0.080
46.1845 -0.442
46.2147 -0.040
46.2450 -0.003
46.2753 -0.018
46.3056 0.072
46.3359 0.318
46.3661 -0.061
46.3964 0.134
46.4267 0.173
46.4570 -0.049
46.4873 0.511
46.5175 -0.335
46.5478 0.330
46.5781 -0.098
46.6084 0.359
46.6386 -0.278
46.6689 -0.289
46.6992 0.586
46.7295 0.262
46.7598 -0.008
46.7900 0.034
46.8203 0.180
46.8506 1.004
46.8809 1.099
46.9112 0.048
46.9414 1.029
46.9717 1.750
47.0020 1.794
47.0323 2.203
47.0626 0.373
47.0928 2.397
47.1231 1.765
47.1534 3.008
47.1837 1.439
47.2139 2.214
47.2442 2.208
47.2745 3.661
47.3048 3.083
47.3351 2.870
47.3653 2.240
47.3956 2.912
47.4259 3.012
47.4562 3.686
47.4865 3.213
47.5167 2.272
47.5470 2.842
47.5773 2.371
47.6076 1.743
47.6378 1.481
47.6681 1.635
47.6984 0.435
47.7287 0.746
47.7590 1.527
47.7892 1.317
47.8195 0.744
47.8498 0.848
47.8801 1.056
47.9104 1.369
47.9406 1.317
47.9709 -0.192
48.0012 0.121
48.0315 0.592
48.0617 -0.032
48.0920 1.168
48.1223 0.181
48.1526 0.808
48.1829 -0.074
48.2131 -0.019
48.2434 -0.016
48.2737 0.196
48.3040 0.461
48.3343 0.777
48.3645 -0.156
48.3948 0.057
48.4251 -0.094
48.4554 0.016
48.4856 0.282
48.5159 -0.494
48.5462 -0.239
48.5765 0.224
48.6068 0.480
48.6370 0.214
48.6673 0.158
48.6976 0.101
48.7279 -0.372
48.7582 0.198
48.7884 0.403
48.8187 0.920
48.8490 -0.176
48.8793 0.498
48.9095 0.704
48.9398 0.129
48.9701 0.961
49.0004 0.386
49.0307 0.906
49.0609 0.592
49.0912 1.269
49.1215 1.477
49.1518 0.800
49.1821 0.175
49.2123 0.852
49.2426 0.384
49.2729 0.958
49.3032 0.959
49.3334 0.076
49.3637 1.275
49.3940 1.642
49.4243 0.759
49.4546 0.866
49.4848 0.765
49.5151 1.653
49.5454 1.865
49.5757 1.504
49.6060 1.925
49.6362 2.294
49.6665 2.403
49.6968 1.731
49.7271 2.778
49.7574 1.585
49.7876 1.955
49.8179 2.118
49.8482 1.447
49.8785 1.454
49.9087 1.460
49.9390 1.103
49.9693 1.892
49.9996 1.118
50.0299 0.918
50.0601 1.030
50.0904 0.830
50.1207 1.048
50.1510 1.265
50.1813 1.066
50.2115 0.919
50.2418 0.929
50.2721 0.263
50.3024 1.471
50.3326 0.596
50.3629 -0.122
50.3932 -0.215
50.4235 0.682
50.4538 0.173
50.4840 0.550
50.5143 0.250
50.5446 0.159
50.5749 0.640
50.6052 0.810
50.6354 0.719
50.6657 0.525
50.6960 0.122
50.7263 -0.228
50.7565 0.724
50.7868 0.218
50.8171 0.338
50.8474 0.458
50.8777 0.057
50.9079 0.125
50.9382 0.506
50.9685 0.106
50.9988 0.331
51.0291 -0.121
51.0593 -0.416
51.0896 0.150
51.1199 0.508
51.1502 -0.124
51.1804 0.703
51.2107 0.124
51.2410 -0.403
51.2713 0.477
51.3016 -0.102
51.3318 -0.211
51.3621 0.774
51.3924 -0.168
51.4227 -0.277
51.4530 0.032
51.4832 0.549
51.5135 0.806
51.5438 -0.082
51.5741 0.227
51.6043 -0.244
51.6346 0.743
51.6649 0.481
51.6952 0.740
51.7255 0.686
51.7557 0.893
51.7860 0.528
51.8163 1.517
51.8466 0.787
51.8769 1.673
51.9071 0.892
51.9374 0.788
51.9677 0.528
51.9980 0.529
52.0282 0.010
52.0585 0.272
52.0888 0.013
52.1191 0.849
52.1494 -0.347
52.1796 0.333
52.2099 -0.133
52.2402 -0.442
52.2705 0.184
52.3008 0.655
52.3310 0.500
52.3613 -0.175
52.3916 0.088
52.4219 0.767
52.4521 -0.324
52.4824 0.200
52.5127 0.360
52.5430 0.207
52.5733 0.316
52.6035 0.164
52.6338 -0.405
52.6641 0.329
52.6944 -0.082
52.7247 -0.338
52.7549 0.134
52.7852 -0.436
52.8155 0.400
52.8458 0.039
52.8761 -0.218
52.9063 0.307
52.9366 -0.366
52.9669 0.159
52.9972 -0.566
53.0274 1.054
53.0577 -0.243
53.0880 0.231
53.1183 -0.284
53.1486 0.243
53.1788 -0.323
53.2091 0.673
53.2394 0.315
53.2697 0.271
53.3000 0.174
53.3302 0.338
53.3605 0.242
53.3908 -0.062
53.4211 -0.002
53.4513 -0.409
53.4816 0.433
53.5119 1.224
53.5422 0.869
53.5725 0.046
53.6027 -0.100
53.6330 0.275
53.6633 0.181
53.6936 -0.224
53.7239 -0.317
53.7541 -0.159
53.7844 0.572
53.8147 0.314
53.8450 -0.309
53.8752 0.110
53.9055 0.113
53.9358 -0.040
53.9661 0.068
53.9964 0.175
54.0266 -0.133
54.0569 -0.233
54.0872 0.188
54.1175 0.558
54.1478 0.563
54.1780 -0.161
54.2083 -0.416
54.2386 0.212
54.2689 0.527
54.2991 -0.043
54.3294 -0.352
54.3597 0.381
54.3900 -0.136
54.4203 0.962
54.4505 -0.023
54.4808 0.294
54.5111 0.404
54.5414 0.513
54.5717 -0.367
54.6019 0.316
54.6322 0.479
54.6625 0.693
54.6928 0.700
54.7230 0.238
54.7533 0.819
54.7836 0.357
54.8139 0.001
54.8442 -0.304
54.8744 -0.011
54.9047 0.803
54.9350 0.680
54.9653 1.026
54.9956 0.174
55.0258 0.260
55.0561 0.554
55.0864 0.693
55.1167 0.155
55.1469 -0.175
55.1772 -0.035
55.2075 0.365
55.2378 0.453
55.2681 0.385
55.2983 0.577
55.3286 0.249
55.3589 -0.443
55.3892 0.115
55.4195 0.048
55.4497 0.607
55.4800 0.697
55.5103 0.215
55.5406 0.305
55.5709 0.657
55.6011 0.071
55.6314 0.579
55.6617 0.202
55.6920 0.503
55.7222 -0.290
55.7525 0.583
55.7828 0.572
55.8131 0.509
55.8434 1.280
55.8736 1.113
55.9039 0.999
55.9342 1.562
55.9645 1.552
55.9948 2.585
56.0250 2.055
56.0553 2.671
56.0856 3.288
56.1159 3.748
56.1461 4.365
56.1764 5.087
56.2067 6.069
56.2370 7.052
56.2673 7.618
56.2975 7.299
56.3278 9.740
56.3581 10.255
56.3884 11.083
56.4187 10.349
56.4489 10.968
56.4792 10.495
56.5095 9.397
56.5398 9.392
56.5700 8.190
56.6003 9.072
56.6306 7.037
56.6609 6.722
56.6912 4.948
56.7214 4.633
56.7517 4.474
56.7820 3.170
56.8123 3.064
56.8426 1.709
56.8728 1.499
56.9031 1.707
56.9334 2.175
56.9637 1.237
56.9939 1.497
57.0242 1.133
57.0545 0.769
57.0848 0.509
57.1151 0.770
57.1453 0.720
57.1756 0.200
57.2059 0.515
57.2362 0.673
57.2665 0.155
57.2967 0.001
57.3270 0.212
57.3573 0.216
57.3876 0.063
57.4178 0.484
57.4481 0.279
57.4784 -0.029
57.5087 0.184
57.5390 -0.019
57.5692 0.090
57.5995 0.044
57.6298 -0.003
57.6601 0.264
57.6904 0.114
57.7206 -0.296
57.7509 0.127
57.7812 -0.282
57.8115 -0.171
57.8417 -0.215
57.8720 -0.155
57.9023 -0.303
57.9326 -0.294
57.9629 -0.390
57.9931 0.326
58.0234 -0.312
58.0537 -0.064
58.0840 0.184
58.1143 0.171
58.1445 0.732
58.1748 0.721
58.2051 0.449
58.2354 0.125
58.2656 0.740
58.2959 0.833
58.3262 1.604
58.3565 1.021
58.3868 0.855
58.4170 0.950
58.4473 1.826
58.4776 2.547
58.5079 1.757
58.5382 2.321
58.5684 3.772
58.5987 3.712
58.6290 3.236
58.6593 2.291
58.6896 2.024
58.7198 2.382
58.7501 2.427
58.7804 2.265
58.8107 2.155
58.8409 0.639
58.8712 0.946
58.9015 0.941
58.9318 1.249
58.9621 0.255
58.9923 -0.114
59.0226 -0.169
59.0529 0.764
59.0832 -0.072
59.1135 0.289
59.1437 1.224
59.1740 0.284
59.2043 -0.343
59.2346 0.697
59.2648 0.747
59.2951 -0.035
59.3254 -0.193
59.3557 0.484
59.3860 0.014
59.4162 0.431
59.4465 0.014
59.4768 -0.194
59.5071 0.172
59.5374 0.589
59.5676 -0.087
59.5979 0.279
59.6282 0.281
59.6585 0.543
59.6887 0.441
59.7190 0.652
59.7493 0.551
59.7796 0.242
59.8099 0.245
59.8401 0.145
59.8704 0.721
59.9007 0.778
59.9310 2.241
59.9613 0.943
59.9915 1.938
60.0218 2.152
60.0521 2.418
60.0824 2.840
60.1126 2.274
60.1429 2.124
60.1732 2.964
60.2035 2.033
60.2338 2.093
60.2640 1.059
60.2943 1.431
60.3246 1.387
60.3549 0.406
60.3852 0.415
60.4154 1.778
60.4457 1.943
60.4760 1.380
60.5063 0.609
60.5365 0.410
60.5668 0.890
60.5971 0.744
60.6274 0.807
60.6577 1.131
60.6879 0.621
60.7182 0.060
60.7485 0.489
60.7788 0.293
60.8091 0.149
60.8393 -0.254
60.8696 -0.345
60.8999 0.282
60.9302 0.442
60.9604 -0.232
60.9907 0.293
61.0210 -0.485
61.0513 0.457
61.0816 0.409
61.1118 -0.107
61.1421 0.107
61.1724 0.112
61.2027 0.222
61.2330 -0.241
61.2632 0.286
61.2935 0.553
61.3238 1.080
61.3541 0.202
61.3844 -0.416
61.4146 -0.159
61.4449 0.254
61.4752 -0.218
61.5055 -0.168
61.5357 0.819
61.5660 0.035
61.5963 -0.279
61.6266 0.656
61.6569 0.030
61.6871 -0.076
61.7174 -0.337
61.7477 -0.546
61.7780 0.391
61.8083 -0.078
61.8385 0.027
61.8688 0.704
61.8991 0.601
61.9294 0.341
61.9596 0.186
61.9899 0.605
62.0202 0.138
62.0505 0.556
62.0808 -0.275
62.1110 0.353
62.1413 1.554
62.1716 0.828
62.2019 0.363
62.2322 1.148
62.2624 1.100
62.2927 1.104
62.3230 1.161
62.3533 1.999
62.3835 1.848
62.4138 2.270
62.4441 2.588
62.4744 3.063
62.5047 3.174
62.5349 4.639
62.5652 3.708
62.5955 5.798
62.6258 5.858
62.6561 3.730
62.6863 4.467
62.7166 4.475
62.7469 4.276
62.7772 4.493
62.8074 4.450
62.8377 4.355
62.8680 3.635
62.8983 2.968
62.9286 4.124
62.9588 3.145
62.9891 2.010
63.0194 2.438
63.0497 1.720
63.0800 1.732
63.1102 1.223
63.1405 0.245
63.1708 0.622
63.2011 1.468
63.2313 0.908
63.2616 1.651
63.2919 -0.054
63.3222 1.418
63.3525 0.390
63.3827 0.613
63.4130 1.096
63.4433 0.486
63.4736 -0.071
63.5039 0.517
63.5341 0.689
63.5644 0.965
63.5947 -0.320
63.6250 -0.304
63.6552 0.111
63.6855 0.475
63.7158 0.369
63.7461 0.212
63.7764 -0.153
63.8066 0.368
63.8369 0.420
63.8672 0.629
63.8975 -0.516
63.9278 -0.047
63.9580 0.163
63.9883 0.008
64.0186 0.062
64.0489 0.585
64.0791 0.118
64.1094 -0.139
64.1397 0.280
64.1700 0.387
64.2003 0.130
64.2305 0.499
64.2608 0.659
64.2911 -0.274
64.3214 0.303
64.3517 0.360
64.3819 0.730
64.4122 0.423
64.4425 -0.301
64.4728 0.278
64.5031 -0.184
64.5333 0.082
64.5636 0.298
64.5939 0.096
64.6242 -0.053
64.6544 0.007
64.6847 0.328
64.7150 -0.029
64.7453 0.084
64.7756 -0.428
64.8058 0.258
64.8361 -0.879
64.8664 0.016
64.8967 0.234
64.9270 0.297
64.9572 -0.006
64.9875 0.057
65.0178 -0.348
65.0481 0.652
65.0783 0.247
65.1086 0.103
65.1389 -0.094
65.1692 -0.185
65.1995 0.244
65.2297 0.569
65.2600 0.062
65.2903 0.179
65.3206 -0.276
65.3509 -0.346
65.3811 0.677
65.4114 0.138
65.4417 0.120
65.4720 0.102
65.5022 -0.488
65.5325 0.224
65.5628 -0.262
65.5931 0.398
65.6234 0.538
65.6536 0.002
65.6839 -0.014
65.7142 0.022
65.7445 0.059
65.7748 0.253
65.8050 0.759
65.8353 0.015
65.8656 1.668
65.8959 0.352
65.9261 0.234
65.9564 0.273
65.9867 0.208
66.0170 0.196
66.0473 0.860
66.0775 1.213
66.1078 0.784
66.1381 0.408
66.1684 0.813
66.1987 0.594
66.2289 0.271
66.2592 0.885
66.2895 1.084
66.3198 1.074
66.3500 0.543
66.3803 1.107
66.4106 0.264
66.4409 0.047
66.4712 0.456
66.5014 0.552
66.5317 -0.394
66.5620 0.119
66.5923 -0.409
66.6226 0.365
66.6528 0.046
66.6831 0.039
66.7134 -0.019
66.7437 -0.390
66.7739 0.067
66.8042 0.263
66.8345 -0.009
66.8648 -0.073
66.8951 0.020
66.9253 -0.303
66.9556 0.051
66.9859 0.301
67.0162 -0.543
67.0465 0.385
67.0767 0.375
67.1070 -0.155
67.1373 0.045
67.1676 -0.693
67.1978 0.080
67.2281 1.061
67.2584 0.428
67.2887 -0.257
67.3190 1.194
67.3492 0.719
67.3795 0.712
67.4098 2.060
67.4401 1.480
67.4704 1.839
67.5006 2.354
67.5309 2.609
67.5612 2.969
67.5915 3.276
67.6218 4.730
67.6520 3.841
67.6823 5.087
67.7126 4.875
67.7429 4.923
67.7731 5.910
67.8034 4.553
67.8337 4.811
67.8640 4.652
67.8943 4.702
67.9245 4.544
67.9548 4.230
67.9851 3.864
68.0154 3.238
68.0457 2.821
68.0759 2.977
68.1062 1.571
68.1365 0.685
68.1668 1.415
68.1970 1.103
68.2273 1.000
68.2576 0.897
68.2879 1.159
68.3182 1.109
68.3484 0.851
68.3787 1.322
68.4090 0.856
68.4393 0.547
68.4696 0.862
68.4998 1.543
68.5301 0.661
68.5604 0.718
68.5907 1.191
68.6209 0.154
68.6512 1.773
68.6815 2.299
68.7118 2.305
68.7421 1.998
68.7723 2.369
68.8026 1.021
68.8329 2.278
68.8632 2.180
68.8935 2.031
68.9237 2.976
68.9540 2.359
68.9843 2.002
69.0146 2.115
69.0448 2.592
69.0751 2.028
69.1054 2.089
69.1357 1.005
69.1660 1.640
69.1962 1.598
69.2265 1.504
69.2568 0.368
69.2871 0.119
69.3174 0.182
69.3476 0.245
69.3779 0.257
69.4082 0.269
69.4385 0.281
69.4687 0.085
69.4990 0.202
69.5293 -0.462
69.5596 0.541
69.5899 0.190
69.6201 -0.317
69.6504 -0.309
69.6807 0.063
69.7110 0.071
69.7413 -0.233
69.7715 -0.068
69.8018 -0.059
69.8321 -0.049
69.8624 -0.457
69.8926 0.491
69.9229 -0.385
69.9532 -0.166
69.9835 -0.468
70.0138 0.219
70.0440 0.177
70.0743 0.448
70.1046 1.084
70.1349 0.210
70.1652 0.794
70.1954 0.597
70.2257 0.765
70.2560 0.257
70.2863 0.373
70.3166 0.334
70.3468 0.816
70.3771 -0.629
70.4074 0.061
70.4377 -0.185
70.4679 0.297
70.4982 0.312
70.5285 0.327
70.5588 0.185
70.5891 -0.112
70.6193 -0.201
70.6496 0.180
70.6799 0.404
70.7102 -0.048
70.7405 0.437
70.7707 -0.015
70.8010 0.575
70.8313 -0.084
70.8616 0.037
70.8918 0.212
70.9221 0.230
70.9524 0.978
70.9827 0.528
71.0130 0.287
71.0432 0.566
71.0735 0.117
71.1038 -0.019
71.1341 -0.363
71.1644 0.044
71.1946 -0.069
71.2249 0.182
71.2552 -0.034
71.2855 0.114
71.3157 0.314
71.3460 -0.058
71.3763 0.195
71.4066 0.031
71.4369 -0.288
71.4671 0.330
71.4974 -0.301
71.5277 0.318
71.5580 0.885
71.5883 -0.266
71.6185 -0.219
71.6488 -0.120
71.6791 0.084
71.7094 -0.441
71.7396 -0.029
71.7699 0.384
71.8002 -0.140
71.8305 -0.247
71.8608 0.062
71.8910 0.060
71.9213 0.058
71.9516 -0.205
71.9819 0.106
72.0122 0.313
72.0424 -0.001
72.0727 0.415
72.1030 -0.315
72.1333 0.518
72.1635 -0.055
72.1938 0.414
72.2241 0.154
72.2544 0.155
72.2847 0.000
72.3149 0.314
72.3452 1.045
72.3755 1.047
72.4058 0.841
72.4361 0.531
72.4663 0.533
72.4966 0.172
72.5269 0.696
72.5572 0.335
72.5874 0.026
72.6177 0.447
72.6480 0.243
72.6783 -0.377
72.7086 0.669
72.7388 -0.054
72.7691 0.420
72.7994 0.165
72.8297 -0.193
72.8600 0.438
72.8902 -0.336
72.9205 0.087
72.9508 -0.166
72.9811 -0.054
73.0113 -0.255
73.0416 0.691
73.0719 0.126
73.1022 0.135
73.1325 -0.221
73.1627 0.621
73.1930 0.162
73.2233 0.172
73.2536 0.546
73.2839 -0.224
73.3141 -0.006
73.3444 -0.255
73.3747 -0.148
73.4050 0.116
73.4353 0.120
73.4655 -0.032
73.4958 0.285
73.5261 0.237
73.5564 0.138
73.5866 0.143
73.6169 0.461
73.6472 0.102
73.6775 -0.100
73.7078 0.687
73.7380 0.121
73.7683 -0.185
73.7986 0.135
73.8289 0.090
73.8592 -0.058
73.8894 0.627
73.9197 0.271
73.9500 0.123
73.9803 -0.285
74.0105 -0.071
74.0408 0.143
74.0711 0.202
74.1014 0.677
74.1317 -0.202
74.1619 0.118
74.1922 -0.083
74.2225 0.185
74.2528 0.870
74.2831 1.035
74.3133 0.574
74.3436 0.323
74.3739 0.488
74.4042 0.081
74.4344 0.351
74.4647 0.934
74.4950 0.371
74.5253 -0.087
74.5556 -0.285
74.5858 0.127
74.6161 -0.033
74.6464 -0.089
74.6767 0.064
74.7070 0.478
74.7372 -0.150
74.7675 0.264
74.7978 0.105
74.8281 0.259
74.8583 0.310
74.8886 -0.213
74.9189 0.359
74.9492 0.462
74.9795 -0.164
75.0097 0.096
75.0400 -0.060
75.0703 0.409
75.1006 0.461
75.1309 0.931
75.1611 0.359
75.1914 0.308
75.2217 0.726
75.2520 0.468
75.2822 0.782
75.3125 0.576
75.3428 0.006
75.3731 0.061
75.4034 0.325
75.4336 0.068
75.4639 0.280
75.4942 0.232
75.5245 0.080
75.5548 0.137
75.5850 0.402
75.6153 -0.166
75.6456 0.152
75.6759 0.523
75.7061 0.008
75.7364 0.275
75.7667 -0.136
75.7970 -0.233
75.8273 0.170
75.8575 0.469
75.8878 -0.169
75.9181 0.183
75.9484 -0.142
75.9787 0.419
76.0089 0.147
76.0392 0.396
76.0695 0.593
76.0998 0.165
76.1301 0.050
76.1603 0.092
76.1906 -0.075
76.2209 -0.033
76.2512 0.322
76.2814 -0.208
76.3117 0.408
76.3420 0.503
76.3723 0.026
76.4026 0.278
76.4328 0.062
76.4631 0.263
76.4934 0.464
76.5237 0.352
76.5540 0.866
76.5842 0.130
76.6145 0.541
76.6448 0.222
76.6751 0.737
76.7053 0.732
76.7356 0.466
76.7659 -0.111
76.7962 0.717
76.8265 0.452
76.8567 0.188
76.8870 0.184
76.9173 0.077
76.9476 0.594
76.9779 0.070
77.0081 0.172
77.0384 0.222
77.0687 0.428
77.0990 -0.459
77.1292 0.320
77.1595 0.631
77.1898 0.214
77.2201 0.526
77.2504 -0.204
77.2806 0.473
77.3109 0.369
77.3412 -0.047
77.3715 0.162
77.4018 0.058
77.4320 0.007
77.4623 -0.095
77.4926 -0.302
77.5229 0.534
77.5531 -0.193
77.5834 -0.034
77.6137 0.594
77.6440 -0.080
77.6743 -0.441
77.7045 0.134
77.7348 -0.279
77.7651 0.141
77.7954 0.144
77.8257 0.148
77.8559 0.204
77.8862 -0.468
77.9165 -0.099
77.9468 0.218
77.9770 0.484
78.0073 0.229
78.0376 0.287
78.0679 -0.228
78.0982 0.247
78.1284 0.150
78.1587 0.105
78.1890 -0.305
78.2193 0.745
78.2496 -0.029
78.2798 0.083
78.3101 0.248
78.3404 0.361
78.3707 0.369
78.4009 0.274
78.4312 0.336
78.4615 -0.071
78.4918 -0.165
78.5221 -0.311
78.5523 0.210
78.5826 0.263
78.6129 -0.101
78.6432 0.369
78.6735 0.110
78.7037 -0.044
78.7340 0.114
78.7643 0.012
78.7946 -0.142
78.8248 0.174
78.8551 0.281
78.8854 -0.080
78.9157 -0.233
78.9460 0.027
78.9762 0.130
79.0065 0.338
79.0368 0.390
79.0671 0.391
79.0974 -0.286
79.1276 -0.233
79.1579 -0.034
79.1882 0.164
79.2185 0.051
79.2488 -0.010
79.2790 -0.123
79.3093 0.337
79.3396 -0.140
79.3699 0.581
79.4001 0.365
79.4304 0.358
79.4607 0.143
79.4910 -0.177
79.5213 0.129
79.5515 0.540
79.5818 0.169
79.6121 0.320
79.6424 0.106
79.6727 -0.524
79.7029 0.356
79.7332 0.716
79.7635 -0.225
79.7938 -0.177
79.8240 -0.233
79.8543 -0.080
79.8846 0.177
79.9149 -0.087
79.9452 -0.089
79.9754 0.117
80.0057 -0.250
80.0360 -0.202
80.0663 0.107
80.0966 0.104
80.1268 0.204
80.1571 0.097
80.1874 -0.009
80.2177 0.822
80.2479 0.299
80.2782 1.078
80.3085 0.191
80.3388 0.502
80.3691 0.501
80.3993 0.501
80.4296 0.084
80.4599 0.083
80.4902 0.761
80.5205 0.292
80.5507 -0.124
80.5810 0.346
80.6113 0.243
80.6416 0.766
80.6718 0.455
80.7021 0.092
80.7324 0.147
80.7627 -0.163
80.7930 0.465
80.8232 0.364
80.8535 0.055
80.8838 -0.098
80.9141 -0.250
80.9444 0.008
80.9746 0.526
81.0049 0.106
81.0352 0.156
81.0655 0.206
81.0957 -0.108
81.1260 0.308
81.1563 0.358
81.1866 0.201
81.2169 0.409
81.2471 0.409
81.2774 -0.164
81.3077 -0.060
81.3380 0.045
81.3683 -0.110
81.3985 0.203
81.4288 0.205
81.4591 0.258
81.4894 0.104
81.5196 0.002
81.5499 0.109
81.5802 -0.045
81.6105 -0.250
81.6408 -0.094
81.6710 -0.145
81.7013 0.272
81.7316 0.221
81.7619 -0.195
81.7922 0.223
81.8224 0.069
81.8527 -0.398
81.8830 0.281
81.9133 0.544
81.9436 0.130
81.9738 -0.075
82.0041 0.241
82.0344 -0.276
82.0647 0.405
82.0949 -0.060
82.1252 0.622
82.1555 -0.155
82.1858 -0.045
82.2161 0.377
82.2463 0.278
82.2766 0.284
82.3069 0.238
82.3372 -0.068
82.3675 0.460
82.3977 -0.054
82.4280 0.109
82.4583 -0.092
82.4886 0.020
82.5188 0.029
82.5491 0.037
82.5794 0.462
82.6097 -0.154
82.6400 -0.249
82.6702 0.334
82.7005 -0.021
82.7308 -0.011
82.7611 -0.053
82.7914 0.010
82.8216 0.177
82.8519 -0.280
82.8822 0.096
82.9125 0.368
82.9427 -0.037
82.9730 -0.441
83.0033 0.072
83.0336 0.221
83.0639 0.995
83.0941 -0.002
83.1244 -0.113
83.1547 0.506
83.1850 0.291
83.2153 0.442
83.2455 0.072
83.2758 0.119
83.3061 0.166
83.3364 0.265
83.3666 0.261
83.3969 0.048
83.4272 0.565
83.4575 -0.063
83.4878 0.037
83.5180 0.087
83.5483 0.032
83.5786 -0.075
83.6089 0.079
83.6392 0.650
83.6694 -0.289
83.6997 -0.186
83.7300 -0.031
83.7603 0.229
83.7905 0.072
83.8208 -0.085
83.8511 0.644
83.8814 -0.084
83.9117 0.333
83.9419 -0.552
83.9722 0.074
84.0025 0.336
84.0328 0.078
84.0631 -0.337
84.0933 -0.028
84.1236 -0.031
84.1539 -0.137
84.1842 -0.036
84.2144 -0.142
84.2447 -0.039
84.2750 -0.197
84.3053 0.270
84.3356 -0.095
84.3658 0.373
84.3961 0.320
84.4264 -0.044
84.4567 0.060
84.4870 0.165
84.5172 0.270
84.5475 -0.198
84.5778 0.168
84.6081 0.273
84.6383 -0.037
84.6686 -0.035
84.6989 0.124
84.7292 0.282
84.7595 -0.027
84.7897 0.237
84.8200 0.605
84.8503 0.192
84.8806 0.300
84.9109 0.252
84.9411 0.257
84.9714 -0.415
85.0017 -0.206
85.0320 0.628
85.0623 -0.203
85.0925 0.579
85.1228 0.425
85.1531 0.375
85.1834 0.274
85.2136 0.120
85.2439 0.071
85.2742 0.127
85.3045 0.130
85.3348 0.343
85.3650 -0.122
85.3953 0.143
85.4256 0.043
85.4559 -0.004
85.4862 -0.155
85.5164 0.164
85.5467 0.222
85.5770 0.436
85.6073 -0.183
85.6375 -0.072
85.6678 -0.221
85.6981 -0.066
85.7284 -0.067
85.7587 0.870
85.7889 0.297
85.8192 0.140
85.8495 0.453
85.8798 0.245
85.9101 -0.014
85.9403 -0.066
85.9706 -0.168
86.0009 0.510
86.0312 0.043
86.0614 0.358
86.0917 0.048
86.1220 0.051
86.1523 -0.519
86.1826 0.109
86.2128 0.060
86.2431 0.273
86.2734 0.016
86.3037 0.281
86.3340 -0.443
86.3642 0.082
86.3945 1.025
86.4248 0.406
86.4551 0.255
86.4853 0.157
86.5156 0.372
86.5459 0.378
86.5762 -0.188
86.6065 -0.233
86.6367 0.224
86.6670 0.369
86.6973 0.565
86.7276 0.450
86.7579 0.335
86.7881 0.220
86.8184 0.522
86.8487 0.304
86.8790 0.607
86.9092 -0.028
86.9395 0.067
86.9698 0.058
87.0001 -0.002
87.0304 0.093
87.0606 0.815
87.0909 0.078
87.1212 0.330
87.1515 0.167
87.1818 0.264
87.2120 0.310
87.2423 -0.270
87.2726 -0.068
87.3029 0.187
87.3331 -0.131
87.3634 -0.032
87.3937 -0.037
87.4240 0.323
87.4543 -0.307
87.4845 -0.259
87.5148 0.359
87.5451 -0.221
87.5754 0.032
87.6057 -0.183
87.6359 -0.137
87.6662 0.170
87.6965 0.789
87.7268 0.419
87.7571 -0.159
87.7873 -0.112
87.8176 -0.116
87.8479 0.192
87.8782 -0.176
87.9084 -0.388
87.9387 0.754
87.9690 0.490
87.9993 -0.502
88.0296 -0.244
88.0598 0.162
88.0901 -0.109
88.1204 0.349
88.1507 0.339
88.1810 0.017
88.2112 0.112
88.2415 0.363
88.2718 -0.271
88.3021 -0.019
88.3323 0.181
88.3626 -0.139
88.3929 0.166
88.4232 0.263
88.4535 0.412
88.4837 0.561
88.5140 -0.071
88.5443 -0.337
88.5746 0.178
88.6049 0.588
88.6351 -0.459
88.6654 0.109
88.6957 -0.260
88.7260 -0.161
88.7562 0.198
88.7865 -0.014
88.8168 0.554
88.8471 0.029
88.8774 0.286
88.9076 0.074
88.9379 1.009
88.9682 0.121
88.9985 0.118
89.0288 1.053
89.0590 0.791
89.0893 1.049
89.1196 0.423
89.1499 0.838
89.1801 0.733
89.2104 0.733
89.2407 0.420
89.2710 0.941
89.3013 0.003
89.3315 1.358
89.3618 0.473
89.3921 0.943
89.4224 1.309
89.4527 0.842
89.4829 1.000
89.5132 1.002
89.5435 0.484
89.5738 0.747
89.6040 1.063
89.6343 0.389
89.6646 0.809
89.6949 0.344
89.7252 0.817
89.7554 -0.272
89.7857 0.982
89.8160 0.414
89.8463 0.367
89.8766 0.425
89.9068 0.639
89.9371 0.385
89.9674 0.027
89.9977 0.033
90.0279 0.144
90.0582 0.204
90.0885 0.263
90.1188 0.011
90.1491 -0.346
90.1793 0.183
90.2096 0.140
90.2399 -0.112
90.2702 -0.259
90.3005 0.160
90.3307 -0.149
90.3610 -0.250
90.3913 0.275
90.4216 0.174
90.4518 0.074
90.4821 -0.025
90.5124 0.344
90.5427 0.245
90.5730 -0.271
90.6032 -0.005
90.6335 -0.259
90.6638 0.055
90.6941 0.056
90.7244 -0.306
90.7546 0.165
90.7849 -0.250
90.8152 0.170
90.8455 0.277
90.8758 0.384
90.9060 0.231
90.9363 0.131
90.9666 0.135
90.9969 -0.173
91.0271 -0.168
91.0574 0.462
91.0877 -0.002
91.1180 -0.101
91.1483 0.009
91.1785 -0.141
91.2088 -0.239
91.2391 -0.034
91.2694 0.380
91.2997 -0.196
91.3299 -0.355
91.3602 0.320
91.3905 0.214
91.4208 0.160
91.4510 0.576
91.4813 0.210
91.5116 0.157
91.5419 0.313
91.5722 0.416
91.6024 0.208
91.6327 0.156
91.6630 -0.156
91.6933 -0.259
91.7236 0.200
91.7538 -0.225
91.7841 -0.182
91.8144 -0.191
91.8447 -0.095
91.8749 0.314
91.9052 0.046
91.9355 0.038
91.9658 -0.177
91.9961 0.493
92.0263 0.018
92.0566 0.064
92.0869 -0.567
92.1172 0.104
92.1475 0.203
92.1777 -0.167
92.2080 -0.172
92.2383 0.240
92.2686 -0.337
92.2988 -0.186
92.3291 0.695
92.3594 0.326
92.3897 0.270
92.4200 0.422
92.4502 0.210
92.4805 0.155
92.5108 0.673
92.5411 0.514
92.5714 0.616
92.6016 -0.168
92.6319 0.612
92.6622 0.350
92.6925 0.765
92.7227 0.087
92.7530 0.607
92.7833 0.034
92.8136 -0.227
92.8439 0.294
92.8741 -0.174
92.9044 -0.122
92.9347 0.348
92.9650 0.037
92.9953 -0.066
93.0255 0.248
93.0558 -0.166
93.0861 -0.060
93.1164 -0.057
93.1466 0.102
93.1769 -0.208
93.2072 0.733
93.2375 0.477
93.2678 0.324
93.2980 -0.505
93.3283 -0.188
93.3586 -0.026
93.3889 0.031
93.4192 -0.276
93.4494 0.458
93.4797 -0.473
93.5100 0.106
93.5403 -0.044
93.5706 0.224
93.6008 -0.186
93.6311 -0.179
93.6614 -0.171
93.6917 0.149
93.7219 0.418
93.7522 -0.303
93.7825 -0.138
93.8128 -0.389
93.8431 0.175
93.8733 0.322
93.9036 -0.051
93.9339 0.254
93.9642 -0.066
93.9945 -0.178
94.0247 0.492
94.0550 0.224
94.0853 -0.199
94.1156 -0.153
94.1458 -0.264
94.1761 0.408
94.2064 0.506
94.2367 0.293
94.2670 0.027
94.2972 0.023
94.3275 0.591
94.3578 0.014
94.3881 -0.250
94.4184 0.215
94.4486 0.055
94.4789 0.781
94.5092 -0.003
94.5395 0.411
94.5697 -0.164
94.6000 0.407
94.6303 0.197
94.6606 0.352
94.6909 0.091
94.7211 0.767
94.7514 0.506
94.7817 0.662
94.8120 0.975
94.8423 1.027
94.8725 1.236
94.9028 0.716
94.9331 1.134
94.9634 0.823
94.9936 1.189
95.0239 0.774
95.0542 1.193
95.0845 0.675
95.1148 0.938
95.1450 0.629
95.1753 0.997
95.2056 0.740
95.2359 0.692
95.2662 1.165
95.2964 0.804
95.3267 0.757
95.3570 0.762
95.3873 0.038
95.4175 0.773
95.4478 1.039
95.4781 0.785
95.5084 0.219
95.5387 0.434
95.5689 0.753
95.5992 0.031
95.6295 0.247
95.6598 0.411
95.6901 0.628
95.7203 0.115
95.7506 0.541
95.7809 0.185
95.8112 0.402
95.8414 0.204
95.8717 0.370
95.9020 0.328
95.9323 0.390
95.9626 -0.068
95.9928 -0.005
96.0231 0.110
96.0534 0.122
96.0837 -0.075
96.1140 0.145
96.1442 -0.311
96.1745 -0.112
96.2048 -0.224
96.2351 0.236
96.2653 0.385
96.2956 -0.248
96.3259 0.265
96.3562 0.466
96.3865 -0.113
96.4167 0.557
96.4470 -0.022
96.4773 -0.288
96.5076 0.175
96.5379 0.273
96.5681 0.164
96.5984 0.367
96.6287 0.415
96.6590 0.306
96.6893 0.406
96.7195 -0.118
96.7498 -0.330
96.7801 0.396
96.8104 0.341
96.8406 0.338
96.8709 -0.237
96.9012 0.386
96.9315 0.644
96.9618 0.278
96.9920 0.068
97.0223 0.015
97.0526 0.327
97.0829 0.535
97.1132 -0.142
97.1434 0.327
97.1737 0.067
97.2040 0.067
97.2343 -0.244
97.2645 -0.141
97.2948 0.328
97.3251 -0.088
97.3554 -0.244
97.3857 -0.045
97.4159 -0.054
97.4462 -0.011
97.4765 0.762
97.5068 -0.027
97.5371 -0.192
97.5673 -0.095
97.5976 -0.102
97.6279 -0.214
97.6582 0.561
97.6884 0.034
97.7187 -0.077
97.7490 -0.031
97.7793 0.484
97.8096 -0.198
97.8398 -0.255
97.8701 0.156
97.9004 -0.161
97.9307 0.667
97.9610 0.246
97.9912 -0.279
98.0215 0.759
98.0518 -0.339
98.0821 0.022
98.1123 0.800
98.1426 0.277
98.1729 0.483
98.2032 -0.145
98.2335 0.218
98.2637 0.320
98.2940 0.683
98.3243 -0.047
98.3546 0.317
98.3849 0.004
98.4151 0.055
98.4454 0.055
98.4757 0.472
98.5060 0.056
98.5362 0.213
98.5665 0.162
98.5968 -0.045
98.6271 -0.043
98.6574 0.219
98.6876 0.482
98.7179 0.224
98.7482 0.279
98.7785 -0.135
98.8088 0.285
98.8390 0.028
98.8693 -0.020
98.8996 -0.120
98.9299 -0.220
98.9601 -0.059
98.9904 0.258
99.0207 0.003
99.0510 0.373
99.0813 0.223
99.1115 -0.292
99.1418 0.235
99.1721 -0.383
99.2024 -0.063
99.2327 -0.004
99.2629 0.264
99.2932 0.271
99.3235 -0.033
99.3538 0.236
99.3841 0.348
99.4143 -0.268
99.4446 0.054
99.4749 0.272
99.5052 0.125
99.5354 -0.229
99.5657 0.093
99.5960 -0.156
99.6263 -0.198
99.6566 -0.239
99.6868 0.077
99.7171 -0.285
99.7474 -0.023
99.7777 0.084
99.8080 0.086
99.8382 0.193
99.8685 -0.012
99.8988 -0.217
99.9291 0.047
99.9593 -0.366
99.9896 0.367
100.0199 0.424
100.0502 0.064
100.0805 -0.035
100.1107 -0.030
100.1410 -0.233
100.1713 0.020
100.2016 0.014
100.2319 0.215
100.2621 -0.208
100.2924 0.255
100.3227 -0.063
100.3530 -0.120
100.3832 0.083
100.4135 0.338
100.4438 0.073
100.4741 -0.139
100.5044 0.638
100.5346 -0.043
100.5649 -0.099
100.5952 -0.050
100.6255 0.052
100.6558 0.205
100.6860 -0.005
100.7163 0.305
100.7466 0.564
100.7769 -0.167
100.8071 0.353
100.8374 -0.273
100.8677 0.455
100.8980 0.142
100.9283 -0.066
100.9585 0.298
100.9888 0.091
101.0191 0.300
101.0494 -0.272
101.0797 -0.011
101.1099 -0.061
101.1402 0.045
101.1705 -0.057
101.2008 -0.055
101.2310 0.260
101.2613 0.211
101.2916 -0.150
101.3219 0.114
101.3522 -0.039
101.3824 0.122
101.4127 -0.239
101.4430 -0.195
101.4733 0.161
101.5036 0.206
101.5338 -0.583
101.5641 -0.122
101.5944 0.340
101.6247 -0.135
101.6549 -0.090
101.6852 0.216
101.7155 0.263
101.7458 -0.212
101.7761 0.148
101.8063 -0.066
101.8366 0.346
101.8669 -0.231
101.8972 -0.236
101.9275 -0.188
101.9577 0.746
101.9880 0.014
102.0183 -0.250
102.0486 -0.101
102.0788 0.412
102.1091 0.248
102.1394 -0.332
102.1697 -0.130
102.2000 0.176
102.2302 0.013
102.2605 0.060
102.2908 0.158
102.3211 -0.108
102.3514 0.408
102.3816 0.247
102.4119 0.034
102.4422 -0.178
102.4725 0.130
102.5028 0.439
102.5330 0.175
102.5633 0.172
102.5936 0.898
102.6239 -0.198
102.6541 0.373
102.6844 0.318
102.7147 0.421
102.7450 0.524
102.7753 0.314
102.8055 -0.260
102.8358 -0.260
102.8661 0.307
102.8964 -0.114
102.9267 -0.014
102.9569 0.137
102.9872 0.498
103.0175 -0.235
103.0478 0.387
103.0780 -0.189
103.1083 -0.036
103.1386 -0.195
103.1689 0.063
103.1992 0.426
103.2294 0.528
103.2597 0.318
103.2900 0.578
103.3203 0.056
103.3506 0.836
103.3808 0.003
103.4111 0.784
103.4414 0.472
103.4717 0.472
103.5019 -0.100
103.5322 0.161
103.5625 -0.150
103.5928 0.268
103.6231 0.062
103.6533 0.168
103.6836 -0.350
103.7139 0.330
103.7442 0.281
103.7745 0.388
103.8047 0.548
103.8350 -0.178
103.8653 0.191
103.8956 0.456
103.9258 0.200
103.9561 0.049
103.9864 0.002
104.0167 0.112
104.0470 0.221
104.0772 0.228
104.1075 0.338
104.1378 -0.072
104.1681 0.039
104.1984 -0.110
104.2286 -0.051
104.2589 0.426
104.2892 -0.347
104.3195 0.234
104.3497 0.034
104.3800 -0.061
104.4103 0.052
104.4406 0.218
104.4709 -0.033
104.5011 0.394
104.5314 -0.169
104.5617 0.102
104.5920 0.008
104.6223 0.020
104.6525 0.083
104.6828 0.042
104.7131 -0.206
104.7434 0.171
104.7736 0.548
104.8039 -0.064
104.8342 0.001
104.8645 -0.038
104.8948 -0.233
104.9250 0.085
104.9553 0.299
104.9856 0.148
105.0159 0.363
105.0462 -0.099
105.0764 0.220
105.1067 0.019
105.1370 0.078
105.1673 -0.227
105.1975 -0.227
105.2278 0.027
105.2581 0.177
105.2884 0.275
105.3187 0.113
105.3489 0.576
105.3792 -0.263
105.4095 0.201
105.4398 0.144
105.4701 0.140
105.5003 -0.177
105.5306 -0.233
105.5609 0.178
105.5912 -0.035
105.6215 0.428
105.6517 0.111
105.6820 0.263
105.7123 0.103
105.7426 0.099
105.7728 0.043
105.8031 -0.169
105.8334 0.141
105.8637 0.190
105.8940 0.240
105.9242 0.081
105.9545 -0.077
105.9848 -0.131
106.0151 -0.028
106.0454 0.180
106.0756 0.283
106.1059 -0.030
106.1362 -0.135
106.1665 -0.239
106.1967 -0.136
106.2270 0.071
106.2573 0.069
106.2876 0.277
106.3179 0.380
106.3481 0.224
106.3784 0.015
106.4087 0.120
106.4390 -0.192
106.4693 -0.035
106.4995 -0.138
106.5298 0.071
106.5601 0.177
106.5904 0.335
106.6206 0.129
106.6509 -0.389
106.6812 -0.075
106.7115 0.136
106.7418 -0.070
106.7720 0.350
106.8023 -0.168
106.8326 -0.060
106.8629 -0.056
106.8932 -0.105
106.9234 0.108
106.9537 0.217
106.9840 0.534
107.0143 -0.294
107.0445 0.180
107.0748 -0.335
107.1051 0.035
107.1354 0.094
107.1657 -0.056
107.1959 -0.101
107.2262 0.218
107.2565 0.590
107.2868 -0.079
107.3171 0.345
107.3473 0.249
107.3776 0.258
107.4079 0.319
107.4382 0.484
107.4684 0.024
107.4987 -0.018
107.5290 0.565
107.5593 -0.102
107.5896 0.377
107.6198 0.440
107.6501 0.399
107.6804 0.358
107.7107 0.265
107.7410 0.121
107.7712 0.602
107.8015 0.197
107.8318 -0.259
107.8621 -0.165
107.8923 0.034
107.9226 -0.080
107.9529 0.432
107.9832 -0.045
108.0135 0.467
108.0437 -0.062
108.0740 -0.018
108.1043 0.651
108.1346 0.383
108.1649 0.376
108.1951 0.057
108.2254 0.363
108.2557 -0.269
108.2860 0.298
108.3163 0.136
108.3465 0.443
108.3768 0.073
108.4071 0.329
108.4374 0.064
108.4676 0.580
108.4979 0.055
108.5282 -0.261
108.5585 0.204
108.5888 -0.060
108.6190 0.615
108.6493 0.195
108.6796 -0.224
108.7099 0.399
108.7402 0.137
108.7704 0.239
108.8007 0.030
108.8310 -0.076
108.8613 -0.076
108.8915 0.288
108.9218 0.392
108.9521 -0.077
108.9824 -0.285
109.0127 0.121
109.0429 0.683
109.0732 0.517
109.1035 0.194
109.1338 -0.128
109.1641 0.332
109.1943 0.531
109.2246 0.314
109.2549 0.045
109.2852 0.349
109.3154 -0.076
109.3457 0.125
109.3760 -0.091
109.4063 0.423
109.4366 -0.417
109.4668 -0.007
109.4971 -0.274
109.5274 0.189
109.5577 0.079
109.5880 0.125
109.6182 0.485
109.6485 0.115
109.6788 0.163
109.7091 0.158
109.7393 0.519
109.7696 0.515
109.7999 1.032
109.8302 0.456
109.8605 0.609
109.8907 0.398
109.9210 1.021
109.9513 0.029
109.9816 -0.337
110.0119 0.023
110.0421 0.018
110.0724 0.327
110.1027 0.375
110.1330 0.215
110.1632 1.097
110.1935 0.209
110.2238 0.414
110.2541 0.099
110.2844 0.201
110.3146 0.095
110.3449 -0.167
110.3752 0.248
110.4055 0.143
110.4358 0.090
110.4660 -0.483
110.4963 0.141
110.5266 0.141
110.5569 -0.327
110.5871 0.767
110.6174 0.820
110.6477 0.248
110.6780 -0.219
110.7083 -0.374
110.7385 0.618
110.7688 0.047
110.7991 -0.211
110.8294 0.209
110.8597 -0.257
110.8899 0.007
110.9202 -0.250
110.9505 -0.195
110.9808 -0.035
111.0110 0.020
111.0413 0.284
111.0716 -0.493
111.1019 0.189
111.1322 0.037
111.1624 0.094
111.1927 -0.109
111.2230 0.000
111.2533 0.319
111.2836 -0.248
111.3138 0.487
111.3441 -0.184
111.3744 -0.125
111.4047 0.299
111.4350 0.515
111.4652 0.158
111.4955 0.270
111.5258 0.174
111.5561 -0.026
111.5863 0.504
111.6166 0.044
111.6469 -0.311
111.6772 -0.003
111.7075 0.253
111.7377 -0.063
111.7680 0.037
111.7983 0.763
111.8286 0.448
111.8589 0.236
111.8891 -0.183
111.9194 0.023
111.9497 0.125
111.9800 -0.345
112.0102 0.018
112.0405 -0.400
112.0708 0.225
112.1011 -0.453
112.1314 0.067
112.1616 0.380
112.1919 -0.193
112.2222 0.225
112.2525 0.225
112.2828 -0.294
112.3130 0.592
112.3433 -0.083
112.3736 -0.498
112.4039 0.390
112.4341 -0.024
112.4644 0.239
112.4947 -0.070
112.5250 0.037
112.5553 0.301
112.5855 0.201
112.6158 -0.264
112.6461 -0.051
112.6764 0.006
112.7067 -0.093
112.7369 0.381
112.7672 0.022
112.7975 -0.233
112.8278 -0.184
112.8580 0.438
112.8883 -0.085
112.9186 0.277
112.9489 -0.037
112.9792 0.326
113.0094 0.116
113.0397 -0.146
113.0700 0.426
113.1003 0.270
113.1306 0.321
113.1608 0.373
113.1911 0.217
113.2214 0.166
113.2517 0.063
113.2819 0.376
113.3122 -0.195
113.3425 -0.090
113.3728 -0.192
113.4031 -0.085
113.4333 -0.187
113.4636 0.284
113.4939 0.183
113.5242 0.083
113.5545 -0.018
113.5847 0.246
113.6150 -0.010
113.6453 0.307
113.6756 0.208
113.7058 -0.204
113.7361 0.270
113.7664 0.223
113.7967 0.542
113.8270 -0.129
113.8572 -0.227
113.8875 -0.072
113.9178 0.500
113.9481 0.238
113.9784 0.394
114.0086 0.394
114.0389 0.185
114.0692 -0.231
114.0995 0.186
114.1298 0.604
114.1600 -0.124
114.1903 -0.227
114.2206 -0.022
114.2509 -0.233
114.2811 0.071
114.3114 -0.145
114.3417 0.003
114.3720 -0.421
114.4023 0.561
114.4325 -0.279
114.4628 0.443
114.4931 0.593
114.5234 -0.090
114.5537 0.008
114.5839 0.263
114.6142 0.153
114.6445 0.356
114.6748 0.247
114.7050 0.139
114.7353 0.030
114.7656 0.755
114.7959 0.283
114.8262 -0.033
114.8564 0.172
114.8867 0.221
114.9170 0.115
114.9473 0.269
114.9776 0.110
115.0078 0.109
115.0381 0.316
115.0684 0.002
115.0987 0.053
115.1289 -0.468
115.1592 0.677
115.1895 0.104
115.2198 0.156
115.2501 0.001
115.2803 -0.259
115.3106 0.042
115.3409 0.187
115.3712 0.280
115.4015 1.051
115.4317 0.051
115.4620 0.510
115.4923 -0.021
115.5226 -0.083
115.5528 0.377
115.5831 0.368
115.6134 0.515
115.6437 0.559
115.6740 0.603
115.7042 0.178
115.7345 0.327
115.7648 -0.149
115.7951 0.573
115.8254 0.983
115.8556 0.143
115.8859 1.023
115.9162 0.756
115.9465 0.542
115.9767 0.745
116.0070 1.053
116.0373 1.308
116.0676 0.523
116.0979 0.310
116.1281 0.619
116.1584 0.302
116.1887 0.039
116.2190 -0.069
116.2493 0.137
116.2795 0.811
116.3098 0.392
116.3401 0.026
116.3704 0.909
116.4006 0.752
116.4309 0.490
116.4612 1.166
116.4915 0.332
116.5218 0.853
116.5520 0.853
116.5823 0.176
116.6126 0.385
116.6429 0.021
116.6732 0.126
116.7034 -0.237
116.7337 0.338
116.7640 0.235
116.7943 0.290
116.8245 0.032
116.8548 -0.070
116.8851 0.402
116.9154 -0.064
116.9457 0.096
116.9759 0.152
117.0062 0.156
117.0365 0.734
117.0668 0.530
117.0971 -0.246
117.1273 0.280
117.1576 0.129
117.1879 0.239
117.2182 -0.224
117.2485 0.147
117.2787 -0.106
117.3090 0.369
117.3393 0.376
117.3696 -0.085
117.3998 -0.129
117.4301 -0.173
117.4604 0.096
117.4907 -0.104
117.5210 -0.043
117.5512 -0.138
117.5815 -0.389
117.6118 0.183
117.6421 0.390
117.6724 0.129
117.7026 0.129
117.7329 -0.496
117.7632 0.807
117.7935 0.078
117.8237 0.183
117.8540 0.080
117.8843 0.499
117.9146 0.032
117.9449 0.086
117.9751 0.140
118.0054 -0.065
118.0357 -0.010
118.0660 0.461
118.0963 0.152
118.1265 -0.052
118.1568 -0.100
118.1871 0.269
118.2174 0.221
118.2476 0.226
118.2779 -0.394
118.3082 0.445
118.3385 0.190
118.3688 0.144
118.3990 -0.110
118.4293 0.365
118.4596 0.424
118.4899 -0.194
118.5202 -0.239
118.5504 -0.086
118.5807 0.744
118.6110 0.220
118.6413 0.009
118.6715 0.058
118.7018 0.056
118.7321 -0.050
118.7624 0.052
118.7927 0.155
118.8229 0.675
118.8532 -0.055
118.8835 -0.160
118.9138 0.256
118.9441 -0.056
118.9743 0.204
119.0046 0.049
119.0349 0.466
119.0652 0.103
119.0954 0.208
119.1257 -0.311
119.1560 -0.160
119.1863 -0.165
119.2166 -0.066
119.2468 0.294
119.2771 -0.335
119.3074 0.026
119.3377 -0.134
119.3680 0.383
119.3982 -0.453
119.4285 -0.040
119.4588 -0.198
119.4891 0.164
119.5193 0.110
119.5496 0.212
119.5799 -0.050
119.6102 -0.259
119.6405 0.120
119.6707 -0.178
119.7010 0.097
119.7313 -0.148
119.7616 0.023
119.7919 -0.013
119.8221 0.055
119.8524 0.644
119.8827 0.244
119.9130 0.469
119.9433 0.590
119.9735 -0.122
120.0038 0.000
