'Id: "" Comment: "" Operator: "Lab Manager" Anode: "Cu" Scantype: "Locked Coupled" TimePerStep: "19.2" X: "9999" Y: "9999" Z: "9999" 
10.0015 0.000
10.0318 0.304
10.0620 -0.018
10.0923 -0.755
10.1226 0.127
10.1529 0.696
10.1832 -0.453
10.2134 0.065
10.2437 -0.458
10.2740 -0.461
10.3043 0.240
10.3346 0.005
10.3648 -0.856
10.3951 0.211
10.4254 0.288
10.4557 -0.676
10.4859 0.339
10.5162 0.157
10.5465 -0.963
10.5768 -0.103
10.6071 0.965
10.6373 -0.414
10.6676 -0.075
10.6979 -0.620
10.7282 0.009
10.7585 -0.091
10.7887 0.642
10.8190 -0.291
10.8493 0.808
10.8796 0.136
10.9098 -0.015
10.9401 0.719
10.9704 0.048
11.0007 0.262
11.0310 -0.096
11.0612 -0.506
11.0915 0.646
11.1218 0.080
11.1521 0.556
11.1824 0.563
11.2126 0.623
11.2429 0.683
11.2732 0.847
11.3035 0.700
11.3337 -0.073
11.3640 0.457
11.3943 -0.368
11.4246 -0.671
11.4549 0.325
11.4851 0.384
11.5154 -0.182
11.5457 0.034
11.5760 0.145
11.6063 -0.368
11.6365 -0.256
11.6668 0.378
11.6971 0.386
11.7274 0.499
11.7577 -0.117
11.7879 0.152
11.8182 0.005
11.8485 -0.245
11.8788 -0.131
11.9090 -0.382
11.9393 -0.371
11.9696 -0.152
11.9999 -0.142
12.0302 -0.078
12.0604 0.037
12.0907 -0.003
12.1210 0.165
12.1513 0.749
12.1816 -0.228
12.2118 -0.215
12.2421 0.579
12.2724 -0.242
12.3027 0.657
12.3329 -0.423
12.3632 0.372
12.3935 -0.135
12.4238 0.296
12.4541 0.206
12.4843 -0.300
12.5146 0.444
12.5449 -0.375
12.5752 0.683
12.6055 -0.083
12.6357 0.037
12.6660 0.574
12.6963 -0.191
12.7266 1.336
12.7568 0.311
12.7871 0.120
12.8174 -0.384
12.8477 -0.901
12.8780 0.349
12.9082 -0.067
12.9385 0.246
12.9688 0.143
12.9991 -0.273
13.0294 0.509
13.0596 -0.270
13.0899 -0.060
13.1202 1.348
13.1505 -0.889
13.1807 0.467
13.2110 -0.259
13.2413 0.160
13.2716 0.320
13.3019 0.063
13.3321 0.223
13.3624 -0.086
13.3927 -0.134
13.4230 0.079
13.4533 0.708
13.4835 0.713
13.5138 0.197
13.5441 1.192
13.5744 -0.313
13.6046 -0.307
13.6349 -0.353
13.6652 1.164
13.6955 0.337
13.7258 0.448
13.7560 -0.431
13.7863 -0.163
13.8166 0.157
13.8469 -0.096
13.8772 0.329
13.9074 0.181
13.9377 0.137
13.9680 0.146
13.9983 -0.262
14.0285 0.320
14.0588 -0.035
14.0891 -0.338
14.1194 0.349
14.1497 0.411
14.1799 0.005
14.2102 -0.193
14.2405 0.130
14.2708 0.193
14.3011 0.465
14.3313 0.685
14.3616 0.853
14.3919 0.240
14.4222 -0.112
14.4524 0.109
14.4827 0.225
14.5130 0.603
14.5433 -0.061
14.5736 0.057
14.6038 0.383
14.6341 1.282
14.6644 1.036
14.6947 0.894
14.7250 0.648
14.7552 0.090
14.7855 0.991
14.8158 0.381
14.8461 0.449
14.8764 0.413
14.9066 -0.353
14.9369 -0.336
14.9672 0.229
14.9975 -0.403
15.0277 0.475
15.0580 0.728
15.0883 -0.268
15.1186 0.507
15.1489 0.084
15.1791 -0.183
15.2094 0.176
15.2397 0.327
15.2700 0.113
15.3003 0.004
15.3305 0.468
15.3608 0.307
15.3911 -0.270
15.4214 0.819
15.4516 0.086
15.4819 0.552
15.5122 -0.129
15.5425 0.076
15.5728 0.594
15.6030 0.175
15.6333 -0.244
15.6636 -0.298
15.6939 0.793
15.7242 0.479
15.7544 0.374
15.7847 0.216
15.8150 0.423
15.8453 0.475
15.8755 0.110
15.9058 0.370
15.9361 1.047
15.9664 0.422
15.9967 0.162
16.0269 -0.098
16.0572 0.893
16.0875 0.477
16.1178 0.427
16.1481 0.376
16.1783 0.222
16.2086 -0.141
16.2389 -0.190
16.2692 -0.136
16.2994 0.284
16.3297 -0.286
16.3600 0.290
16.3903 0.450
16.4206 0.089
16.4508 -0.375
16.4811 -0.118
16.5114 0.296
16.5417 -0.071
16.5720 0.031
16.6022 -0.128
16.6325 0.391
16.6628 0.650
16.6931 -0.133
16.7233 0.075
16.7536 0.543
16.7839 -0.031
16.8142 0.437
16.8445 1.062
16.8747 0.281
16.9050 0.802
16.9353 -0.395
16.9656 0.126
16.9959 0.128
17.0261 0.129
17.0564 0.130
17.0867 0.549
17.1170 -0.335
17.1472 0.397
17.1775 -0.226
17.2078 0.975
17.2381 -0.272
17.2684 0.148
17.2986 0.203
17.3289 0.155
17.3592 0.211
17.3895 0.527
17.4198 -0.302
17.4500 -0.505
17.4803 0.279
17.5106 -0.186
17.5409 0.182
17.5712 1.436
17.6014 0.346
17.6317 0.195
17.6620 0.356
17.6923 0.256
17.7225 -0.155
17.7528 0.736
17.7831 -0.144
17.8134 0.122
17.8437 0.701
17.8739 -0.230
17.9042 -0.224
17.9345 0.200
17.9648 0.780
17.9951 0.006
18.0253 -0.091
18.0556 -0.239
18.0859 0.133
18.1162 -0.223
18.1464 0.098
18.1767 -0.050
18.2070 0.272
18.2373 0.073
18.2676 -0.230
18.2978 0.352
18.3281 0.102
18.3584 0.529
18.3887 -0.242
18.4190 0.914
18.4492 0.196
18.4795 -0.001
18.5098 -0.094
18.5401 -0.187
18.5703 -0.019
18.6006 1.087
18.6309 0.318
18.6612 0.695
18.6915 0.083
18.7217 1.242
18.7520 0.578
18.7823 0.435
18.8126 -0.072
18.8429 0.359
18.8731 -0.148
18.9034 0.179
18.9337 0.142
18.9640 0.626
18.9942 0.797
19.0245 0.135
19.0548 -0.370
19.0851 -0.169
19.1154 0.657
19.1456 1.171
19.1759 0.174
19.2062 1.157
19.2365 0.161
19.2668 -0.105
19.2970 0.461
19.3273 0.456
19.3576 0.190
19.3879 0.237
19.4181 0.805
19.4484 0.696
19.4787 -0.038
19.5090 0.218
19.5393 0.058
19.5695 0.836
19.5998 0.363
19.6301 0.256
19.6604 -0.164
19.6907 0.510
19.7209 -0.221
19.7512 0.193
19.7815 0.451
19.8118 0.137
19.8420 0.291
19.8723 0.915
19.9026 0.341
19.9329 -0.024
19.9632 0.183
19.9934 1.120
20.0237 0.547
20.0540 0.599
20.0843 0.235
20.1146 0.548
20.1448 -0.128
20.1751 -0.075
20.2054 0.187
20.2357 0.292
20.2659 0.346
20.2962 0.556
20.3265 -0.014
20.3568 0.092
20.3871 -0.166
20.4173 -0.527
20.4476 0.145
20.4779 0.452
20.5082 0.135
20.5385 -0.130
20.5687 0.387
20.5990 -0.451
20.6293 -0.038
20.6596 0.167
20.6899 0.528
20.7201 0.057
20.7504 0.366
20.7807 0.520
20.8110 0.049
20.8412 -0.057
20.8715 -0.163
20.9018 0.356
20.9321 0.250
20.9624 0.353
20.9926 0.092
21.0229 -0.117
21.0532 0.352
21.0835 0.716
21.1138 -0.065
21.1440 0.404
21.1743 -0.012
21.2046 0.353
21.2349 0.354
21.2651 0.251
21.2954 -0.372
21.3257 0.098
21.3560 1.038
21.3863 -0.002
21.4165 0.574
21.4468 0.628
21.4771 -0.098
21.5074 -0.042
21.5377 0.221
21.5679 0.485
21.5982 0.594
21.6285 0.129
21.6588 -0.283
21.6890 -0.123
21.7193 -0.326
21.7496 0.252
21.7799 0.622
21.8102 -0.258
21.8404 -0.304
21.8707 -0.042
21.9010 0.065
21.9313 -0.089
21.9616 -0.138
21.9918 0.282
22.0221 -0.236
22.0524 -0.180
22.0827 0.136
22.1129 -0.433
22.1432 0.144
22.1735 0.513
22.2038 0.153
22.2341 0.106
22.2643 0.476
22.2946 -0.092
22.3249 0.174
22.3552 -0.080
22.3855 0.447
22.4157 -0.016
22.4460 0.408
22.4763 -0.054
22.5066 0.370
22.5368 -0.352
22.5671 -0.293
22.5974 0.063
22.6277 0.263
22.6580 -0.057
22.6882 0.247
22.7185 0.812
22.7488 -0.133
22.7791 0.798
22.8094 0.426
22.8396 0.784
22.8699 0.048
22.9002 0.563
22.9305 -0.172
22.9607 0.030
22.9910 -0.392
23.0213 0.488
23.0516 -0.507
23.0819 0.374
23.1121 -0.203
23.1424 0.313
23.1727 0.413
23.2030 -0.164
23.2333 0.249
23.2635 0.558
23.2938 -0.122
23.3241 -0.281
23.3544 0.446
23.3846 0.079
23.4149 -0.236
23.4452 0.335
23.4755 -0.136
23.5058 -0.241
23.5360 -0.086
23.5663 0.069
23.5966 0.485
23.6269 -0.922
23.6572 0.328
23.6874 0.224
23.7177 -0.349
23.7480 0.433
23.7783 -0.035
23.8086 -0.034
23.8388 0.019
23.8691 0.281
23.8994 -0.030
23.9297 -0.341
23.9599 0.651
23.9902 -0.441
24.0205 -0.126
24.0508 0.034
24.0811 -0.120
24.1113 0.040
24.1416 -0.165
24.1719 0.204
24.2022 0.155
24.2325 -0.153
24.2627 0.112
24.2930 0.221
24.3233 -0.399
24.3536 0.596
24.3838 -0.024
24.4141 0.607
24.4444 -0.168
24.4747 -0.318
24.5050 0.150
24.5352 0.409
24.5655 -0.216
24.5958 0.148
24.6261 0.461
24.6564 0.201
24.6866 -0.164
24.7169 0.202
24.7472 -0.058
24.7775 0.204
24.8077 -0.107
24.8380 -0.210
24.8683 -0.155
24.8986 0.472
24.9289 -0.099
24.9591 0.112
24.9894 -0.197
25.0197 -0.298
25.0500 -0.036
25.0803 0.226
25.1105 0.436
25.1408 0.386
25.1711 0.441
25.2014 0.183
25.2316 -0.074
25.2619 0.502
25.2922 0.193
25.3225 -0.116
25.3528 -0.164
25.3830 0.257
25.4133 0.522
25.4436 0.422
25.4739 0.219
25.5042 0.224
25.5344 -0.396
25.5647 -0.246
25.5950 0.060
25.6253 0.418
25.6555 0.411
25.6858 0.197
25.7161 0.556
25.7464 -0.075
25.7767 0.493
25.8069 -0.189
25.8372 -0.090
25.8675 0.478
25.8978 0.057
25.9281 0.001
25.9583 0.310
25.9886 0.098
26.0189 0.511
26.0492 0.247
26.0794 -0.016
26.1097 -0.279
26.1400 -0.229
26.1703 0.081
26.2006 0.079
26.2308 -0.391
26.2611 0.753
26.2914 -0.186
26.3217 0.022
26.3520 0.229
26.3822 0.072
26.4125 -0.553
26.4428 -0.094
26.4731 -0.051
26.5034 0.616
26.5336 0.035
26.5639 -0.287
26.5942 0.486
26.6245 0.374
26.6547 0.105
26.6850 -0.319
26.7153 -0.120
26.7456 0.080
26.7759 -0.085
26.8061 -0.249
26.8364 0.316
26.8667 0.100
26.8970 0.352
26.9273 -0.488
26.9575 0.026
26.9878 -0.346
27.0181 0.481
27.0484 -0.410
27.0786 -0.208
27.1089 0.047
27.1392 -0.011
27.1695 0.036
27.1998 0.135
27.2300 0.130
27.2603 -0.239
27.2906 -0.035
27.3209 0.065
27.3512 0.061
27.3814 -0.203
27.4117 -0.258
27.4420 -0.210
27.4723 0.308
27.5025 -0.423
27.5328 -0.218
27.5631 -0.324
27.5934 -0.326
27.6237 0.137
27.6539 -0.442
27.6842 0.543
27.7145 0.746
27.7448 -0.144
27.7751 0.268
27.8053 -0.101
27.8356 0.624
27.8659 -0.057
27.8962 -0.061
27.9264 -0.273
27.9567 -0.120
27.9870 -0.071
28.0173 -0.073
28.0476 0.393
28.0778 0.495
28.1081 -0.080
28.1384 -0.082
28.1687 -0.083
28.1990 0.019
28.2292 0.591
28.2595 0.330
28.2898 -0.087
28.3201 -0.452
28.3503 0.066
28.3806 -0.145
28.4109 -0.096
28.4412 -0.254
28.4715 0.005
28.5017 0.003
28.5320 -0.415
28.5623 0.104
28.5926 0.208
28.6229 0.103
28.6531 -0.471
28.6834 0.310
28.7137 0.414
28.7440 -0.054
28.7742 -0.106
28.8045 -0.105
28.8348 -0.365
28.8651 0.470
28.8954 -0.049
28.9256 -0.152
28.9559 -0.254
28.9862 0.373
29.0165 0.375
29.0468 -0.195
29.0770 -0.036
29.1073 0.540
29.1376 0.544
29.1679 0.078
29.1981 0.030
29.2284 0.555
29.2587 -0.014
29.2890 0.043
29.3193 0.777
29.3495 -0.208
29.3798 -0.202
29.4101 0.116
29.4404 -0.556
29.4707 -0.148
29.5009 0.364
29.5312 0.251
29.5615 0.295
29.5918 0.547
29.6221 0.435
29.6523 0.375
29.6826 -0.413
29.7129 -0.160
29.7432 0.146
29.7734 -0.330
29.8037 -0.336
29.8340 0.059
29.8643 0.298
29.8946 0.277
29.9248 -0.421
29.9551 -0.129
29.9854 0.580
30.0157 0.299
30.0460 -0.138
30.0762 0.676
30.1065 -0.020
30.1368 0.013
30.1671 0.567
30.1973 0.704
30.2276 0.529
30.2579 0.720
30.2882 0.962
30.3185 0.423
30.3487 1.187
30.3790 1.326
30.4093 0.007
30.4396 1.136
30.4699 0.703
30.5001 -0.043
30.5304 0.254
30.5607 0.915
30.5910 0.379
30.6212 0.676
30.6515 0.609
30.6818 1.115
30.7121 1.829
30.7424 1.138
30.7726 1.176
30.8029 0.589
30.8332 1.981
30.8635 1.551
30.8938 1.226
30.9240 1.838
30.9543 2.814
30.9846 2.281
31.0149 2.686
31.0451 3.090
31.0754 3.235
31.1057 2.963
31.1360 4.879
31.1663 2.524
31.1965 3.971
31.2268 4.013
31.2571 6.086
31.2874 6.284
31.3177 7.785
31.3479 9.390
31.3782 10.005
31.4085 12.392
31.4388 12.852
31.4690 14.770
31.4993 16.429
31.5296 18.816
31.5599 18.444
31.5902 21.196
31.6204 23.845
31.6507 22.119
31.6810 22.633
31.7113 19.033
31.7416 15.328
31.7718 16.832
31.8021 13.701
31.8324 10.831
31.8627 8.794
31.8929 9.101
31.9232 6.284
31.9535 4.769
31.9838 6.327
32.0141 4.760
32.0443 4.912
32.0746 4.596
32.1049 3.498
32.1352 2.922
32.1655 1.929
32.1957 2.968
32.2260 2.913
32.2563 1.765
32.2866 0.669
32.3169 0.823
32.3471 1.290
32.3774 1.133
32.4077 0.767
32.4380 0.453
32.4682 1.234
32.4985 0.244
32.5288 1.389
32.5591 0.920
32.5894 0.139
32.6196 -0.641
32.6499 0.505
32.6802 0.298
32.7105 -0.222
32.7408 0.404
32.7710 0.875
32.8013 -0.529
32.8316 0.671
32.8619 0.204
32.8921 0.571
32.9224 -0.520
32.9527 0.213
32.9830 0.945
33.0133 -0.301
33.0435 0.067
33.0738 0.123
33.1041 -0.029
33.1344 -0.024
33.1647 -0.228
33.1949 1.027
33.2252 0.147
33.2555 0.257
33.2858 0.054
33.3160 -0.513
33.3463 -0.106
33.3766 -0.324
33.4069 0.864
33.4372 0.334
33.4674 0.898
33.4977 0.108
33.5280 0.099
33.5583 0.403
33.5886 -0.126
33.6188 0.491
33.6491 0.796
33.6794 -0.305
33.7097 0.209
33.7399 0.566
33.7702 1.497
33.8005 0.345
33.8308 1.953
33.8611 1.999
33.8913 1.577
33.9216 2.353
33.9519 3.962
33.9822 4.478
34.0125 4.317
34.0427 6.135
34.0730 7.589
34.1033 10.242
34.1336 11.905
34.1638 12.838
34.1941 15.908
34.2244 22.572
34.2547 22.413
34.2850 23.347
34.3152 24.022
34.3455 24.020
34.3758 16.518
34.4061 15.735
34.4364 13.338
34.4666 8.649
34.4969 6.825
34.5272 4.741
34.5575 3.804
34.5877 3.387
34.6180 3.960
34.6483 3.179
34.6786 2.971
34.7089 2.763
34.7391 1.514
34.7694 1.620
34.7997 1.361
34.8300 1.675
34.8603 1.989
34.8905 1.471
34.9208 0.588
34.9511 1.424
34.9814 1.687
35.0116 0.492
35.0419 0.808
35.0722 1.385
35.1025 2.274
35.1328 0.872
35.1630 2.386
35.1933 0.776
35.2236 2.344
35.2539 1.203
35.2842 1.052
35.3144 1.735
35.3447 1.584
35.3750 1.955
35.4053 1.805
35.4356 2.540
35.4658 2.443
35.4961 3.231
35.5264 3.863
35.5567 4.548
35.5869 4.347
35.6172 4.095
35.6475 5.353
35.6778 5.726
35.7081 8.234
35.7383 7.254
35.7686 7.732
35.7989 10.137
35.8292 11.032
35.8595 12.448
35.8897 12.875
35.9200 16.062
35.9503 18.677
35.9806 21.448
36.0108 24.428
36.0411 25.377
36.0714 27.003
36.1017 29.046
36.1320 29.839
36.1622 27.039
36.1925 26.374
36.2228 24.668
36.2531 20.254
36.2834 19.434
36.3136 16.687
36.3439 14.669
36.3742 12.183
36.4045 11.468
36.4347 8.201
36.4650 8.112
36.4953 6.876
36.5256 7.152
36.5559 6.022
36.5861 4.058
36.6164 3.761
36.6467 3.725
36.6770 3.377
36.7073 2.925
36.7375 3.567
36.7678 2.906
36.7981 2.090
36.8284 1.795
36.8586 2.230
36.8889 1.831
36.9192 1.641
36.9495 0.514
36.9798 0.949
37.0100 1.437
37.0403 1.300
37.0706 1.996
37.1009 0.609
37.1312 -0.048
37.1614 0.441
37.1917 0.305
37.2220 1.107
37.2523 0.138
37.2825 0.784
37.3128 -0.340
37.3431 0.307
37.3734 0.485
37.4037 -0.066
37.4339 -0.252
37.4642 -0.074
37.4945 0.366
37.5248 0.076
37.5551 0.568
37.5853 0.279
37.6156 0.407
37.6459 -0.350
37.6762 -0.326
37.7064 0.259
37.7367 0.116
37.7670 0.077
37.7973 -0.223
37.8276 -0.314
37.8578 0.221
37.8881 0.287
37.9184 0.353
37.9487 -0.102
37.9790 0.590
38.0092 0.188
38.0395 -0.526
38.0698 0.427
38.1001 0.026
38.1304 -0.115
38.1606 0.266
38.1909 -0.447
38.2212 0.090
38.2515 -0.310
38.2817 0.280
38.3120 0.454
38.3423 -0.206
38.3726 -0.293
38.4029 -0.286
38.4331 0.347
38.4634 -0.166
38.4937 0.310
38.5240 0.006
38.5543 0.170
38.5845 -0.029
38.6148 0.188
38.6451 0.197
38.6754 0.362
38.7056 0.632
38.7359 0.069
38.7662 0.235
38.7965 -0.015
38.8268 0.360
38.8570 -0.150
38.8873 -0.347
38.9176 0.341
38.9479 -0.012
38.9782 -0.157
39.0084 0.116
39.0387 -0.393
39.0690 -0.133
39.0993 0.336
39.1295 0.232
39.1598 0.232
39.1901 0.076
39.2204 0.598
39.2507 -0.078
39.2809 -0.129
39.3112 -0.231
39.3415 0.135
39.3718 0.450
39.4021 -0.069
39.4323 0.194
39.4626 0.613
39.4929 0.148
39.5232 0.203
39.5534 0.311
39.5837 -0.050
39.6140 0.110
39.6443 0.531
39.6746 -0.090
39.7048 -0.189
39.7351 -0.237
39.7654 0.081
39.7957 0.451
39.8260 0.144
39.8562 0.202
39.8865 0.052
39.9168 0.215
39.9471 -0.300
39.9773 -0.032
40.0076 -0.182
40.0379 0.086
40.0682 0.302
40.0985 -0.107
40.1287 -0.255
40.1590 -0.253
40.1893 0.373
40.2196 0.115
40.2499 0.326
40.2801 0.068
40.3104 0.175
40.3407 0.491
40.3710 0.130
40.4012 0.289
40.4315 -0.019
40.4618 0.714
40.4921 -0.219
40.5224 -0.111
40.5526 0.050
40.5829 -0.361
40.6132 0.113
40.6435 -0.403
40.6738 0.124
40.7040 0.078
40.7343 -0.228
40.7646 -0.118
40.7949 0.514
40.8251 0.313
40.8554 0.111
40.8857 -0.194
40.9160 0.127
40.9463 0.030
40.9765 -0.222
41.0068 0.724
41.0371 0.160
41.0674 -0.040
41.0977 0.542
41.1279 0.499
41.1582 0.040
41.1885 0.571
41.2188 -0.148
41.2491 -0.086
41.2793 -0.232
41.3096 0.076
41.3399 0.071
41.3702 0.431
41.4004 -0.250
41.4307 0.163
41.4610 0.471
41.4913 0.364
41.5216 0.412
41.5518 -0.112
41.5821 0.250
41.6124 -0.065
41.6427 0.141
41.6730 0.035
41.7032 -0.019
41.7335 0.552
41.7638 -0.022
41.7941 0.081
41.8243 -0.285
41.8546 -0.080
41.8849 -0.031
41.9152 -0.242
41.9455 0.224
41.9757 0.325
42.0060 0.114
42.0363 0.425
42.0666 0.163
42.0969 0.525
42.1271 0.368
42.1574 0.263
42.1877 0.522
42.2180 0.469
42.2482 0.156
42.2785 0.052
42.3088 0.052
42.3391 0.209
42.3694 -0.103
42.3996 -0.259
42.4299 0.105
42.4602 0.262
42.4905 -0.155
42.5208 -0.050
42.5510 0.107
42.5813 0.524
42.6116 0.161
42.6419 0.110
42.6721 -0.148
42.7024 0.218
42.7327 0.220
42.7630 0.275
42.7933 -0.243
42.8235 -0.188
42.8538 0.231
42.8841 -0.234
42.9144 -0.292
42.9447 0.537
42.9749 0.011
43.0052 -0.046
43.0355 -0.050
43.0658 0.050
43.0960 -0.058
43.1263 0.147
43.1566 0.300
43.1869 -0.068
43.2172 0.085
43.2474 -0.438
43.2777 0.653
43.3080 -0.026
43.3383 -0.237
43.3686 0.074
43.3988 0.125
43.4291 -0.501
43.4594 0.227
43.4897 0.018
43.5199 -0.087
43.5502 0.173
43.5805 0.173
43.6108 0.017
43.6411 0.070
43.6713 0.226
43.7016 -0.033
43.7319 -0.136
43.7622 0.074
43.7925 -0.029
43.8227 0.077
43.8530 -0.389
43.8833 -0.079
43.9136 0.388
43.9439 0.230
43.9741 0.125
44.0044 0.020
44.0347 0.019
44.0650 -0.085
44.0952 0.279
44.1255 0.123
44.1558 -0.033
44.1861 -0.241
44.2164 0.020
44.2466 -0.083
44.2769 0.334
44.3072 0.127
44.3375 -0.079
44.3678 0.287
44.3980 -0.179
44.4283 0.031
44.4586 -0.018
44.4889 -0.067
44.5191 0.040
44.5494 -0.217
44.5797 0.568
44.6100 -0.210
44.6403 0.002
44.6705 0.319
44.7008 0.324
44.7311 -0.296
44.7614 -0.031
44.7917 -0.234
44.8219 -0.133
44.8522 -0.033
44.8825 0.069
44.9128 0.378
44.9430 0.272
44.9733 -0.408
45.0036 -0.045
45.0339 0.474
45.0642 0.316
45.0944 -0.050
45.1247 0.209
45.1550 -0.052
45.1853 -0.001
45.2156 0.051
45.2458 -0.053
45.2761 0.051
45.3064 0.155
45.3367 0.104
45.3669 0.157
45.3972 -0.363
45.4275 -0.169
45.4578 0.077
45.4881 -0.145
45.5183 -0.003
45.5486 0.556
45.5789 0.595
45.6092 0.009
45.6395 -0.264
45.6697 0.348
45.7000 0.596
45.7303 0.376
45.7606 0.364
45.7908 -0.012
45.8211 -0.128
45.8514 -0.243
45.8817 0.215
45.9120 0.308
45.9422 0.194
45.9725 0.340
46.0028 0.642
46.0331 0.268
46.0634 0.102
46.0936 -0.011
46.1239 -0.020
46.1542 0.179
46.1845 0.223
46.2147 0.475
46.2450 0.415
46.2753 -0.062
46.3056 0.139
46.3359 0.340
46.3661 -0.552
46.3964 0.222
46.4267 -0.097
46.4570 0.261
46.4873 -0.266
46.5175 0.041
46.5478 -0.173
46.5781 0.030
46.6084 0.076
46.6386 0.019
46.6689 0.431
46.6992 0.323
46.7295 -0.046
46.7598 0.575
46.7900 0.467
46.8203 0.672
46.8506 -0.008
46.8809 0.614
46.9112 0.559
46.9414 1.077
46.9717 1.179
47.0020 1.646
47.0323 1.748
47.0626 1.903
47.0928 2.422
47.1231 2.421
47.1534 2.576
47.1837 1.899
47.2139 2.784
47.2442 4.138
47.2745 3.461
47.3048 3.878
47.3351 4.920
47.3653 4.244
47.3956 5.755
47.4259 4.454
47.4562 5.185
47.4865 4.197
47.5167 4.772
47.5470 4.201
47.5773 2.537
47.6076 3.529
47.6378 2.855
47.6681 1.817
47.6984 2.341
47.7287 1.928
47.7590 1.359
47.7892 1.936
47.8195 0.899
47.8498 1.060
47.8801 0.388
47.9104 0.757
47.9406 0.398
47.9709 0.768
48.0012 0.618
48.0315 0.520
48.0617 -0.047
48.0920 0.012
48.1223 0.331
48.1526 -0.027
48.1829 0.502
48.2131 0.197
48.2434 0.413
48.2737 0.681
48.3040 0.012
48.3343 -0.031
48.3645 -0.439
48.3948 0.247
48.4251 0.204
48.4554 0.265
48.4856 -0.038
48.5159 -0.496
48.5462 0.025
48.5765 0.183
48.6068 0.080
48.6370 0.290
48.6673 0.084
48.6976 0.659
48.7279 0.349
48.7582 0.143
48.7884 0.250
48.8187 -0.059
48.8490 -0.004
48.8793 0.260
48.9095 0.420
48.9398 0.320
48.9701 0.012
49.0004 0.225
49.0307 0.073
49.0609 0.026
49.0912 0.240
49.1215 -0.067
49.1518 0.616
49.1821 0.778
49.2123 -0.362
49.2426 -0.147
49.2729 -0.192
49.3032 0.388
49.3334 -0.022
49.3637 -0.223
49.3940 -0.059
49.4243 -0.103
49.4546 0.114
49.4848 -0.138
49.5151 -0.286
49.5454 0.137
49.5757 0.091
49.6060 -0.162
49.6362 -0.312
49.6665 0.161
49.6968 0.478
49.7271 0.327
49.7574 0.279
49.7876 -0.028
49.8179 0.134
49.8482 -0.329
49.8785 -0.115
49.9087 0.099
49.9390 -0.259
49.9693 -0.105
49.9996 -0.002
50.0299 0.048
50.0601 -0.057
50.0904 0.567
50.1207 -0.163
50.1510 0.096
50.1813 -0.060
50.2115 0.408
50.2418 0.200
50.2721 0.252
50.3024 0.149
50.3326 0.202
50.3629 0.255
50.3932 0.256
50.4235 0.206
50.4538 -0.261
50.4840 0.157
50.5143 0.420
50.5446 -0.255
50.5749 0.217
50.6052 0.168
50.6354 0.015
50.6657 0.487
50.6960 0.543
50.7263 -0.130
50.7565 0.186
50.7868 0.086
50.8171 0.143
50.8474 0.148
50.8777 0.101
50.9079 -0.310
50.9382 -0.101
50.9685 -0.361
50.9988 0.421
51.0291 -0.359
51.0593 0.163
51.0896 0.269
51.1199 -0.094
51.1502 0.169
51.1804 -0.037
51.2107 0.121
51.2410 -0.136
51.2713 0.179
51.3016 0.704
51.3318 0.030
51.3621 -0.227
51.3924 -0.440
51.4227 0.337
51.4530 0.177
51.4832 0.329
51.5135 -0.248
51.5438 0.113
51.5741 0.162
51.6043 0.003
51.6346 -0.156
51.6649 0.675
51.6952 0.152
51.7255 0.098
51.7557 0.044
51.7860 -0.166
51.8163 0.145
51.8466 0.561
51.8769 0.091
51.9071 0.559
51.9374 0.038
51.9677 -0.014
51.9980 -0.274
52.0282 0.403
52.0585 -0.169
52.0888 -0.064
52.1191 0.093
52.1494 0.303
52.1796 0.200
52.2099 0.306
52.2402 0.360
52.2705 0.154
52.3008 0.052
52.3310 0.211
52.3613 0.319
52.3916 -0.043
52.4219 0.377
52.4521 0.121
52.4824 -0.552
52.5127 -0.027
52.5430 -0.127
52.5733 -0.227
52.6035 -0.128
52.6338 -0.081
52.6641 0.123
52.6944 -0.090
52.7247 -0.042
52.7549 -0.307
52.7852 0.106
52.8155 0.519
52.8458 0.308
52.8761 0.201
52.9063 0.198
52.9366 -0.013
52.9669 0.453
52.9972 0.034
53.0274 0.605
53.0577 0.343
53.0880 -0.127
53.1183 0.028
53.1486 0.027
53.1788 -0.077
53.2091 -0.234
53.2394 0.017
53.2697 0.008
53.3000 0.207
53.3302 0.146
53.3605 0.294
53.3908 -0.026
53.4211 0.434
53.4513 -0.094
53.4816 -0.206
53.5119 0.047
53.5422 -0.064
53.5725 -0.071
53.6027 0.548
53.6330 0.281
53.6633 0.223
53.6936 -0.043
53.7239 0.628
53.7541 -0.106
53.7844 -0.111
53.8147 0.301
53.8450 0.036
53.8752 -0.333
53.9055 0.131
53.9358 -0.029
53.9661 0.176
53.9964 -0.140
54.0266 0.221
54.0569 -0.198
54.0872 -0.045
54.1175 -0.151
54.1478 0.211
54.1780 -0.208
54.2083 -0.157
54.2386 -0.107
54.2689 -0.212
54.2991 0.360
54.3294 0.359
54.3597 -0.058
54.3900 -0.006
54.4203 0.306
54.4505 -0.110
54.4808 -0.058
54.5111 -0.005
54.5414 -0.004
54.5717 -0.107
54.6019 0.155
54.6322 -0.260
54.6625 0.054
54.6928 -0.048
54.7230 -0.202
54.7533 -0.043
54.7836 0.220
54.8139 -0.506
54.8442 0.174
54.8744 0.438
54.9047 0.077
54.9350 -0.075
54.9653 0.034
54.9956 0.299
55.0258 0.199
55.0561 0.256
55.0864 0.053
55.1167 -0.202
55.1469 -0.248
55.1772 -0.248
55.2075 0.107
55.2378 0.411
55.2681 0.610
55.2983 0.289
55.3286 0.073
55.3589 0.169
55.3892 0.474
55.4195 0.779
55.4497 0.511
55.4800 0.817
55.5103 0.654
55.5406 0.439
55.5709 0.276
55.6011 -0.355
55.6314 0.733
55.6617 0.676
55.6920 0.983
55.7222 0.717
55.7525 1.025
55.7828 1.072
55.8131 1.172
55.8434 1.637
55.8736 1.268
55.9039 1.213
55.9342 1.782
55.9645 1.675
55.9948 1.880
56.0250 1.669
56.0553 1.875
56.0856 1.821
56.1159 2.652
56.1461 2.338
56.1764 3.274
56.2067 3.585
56.2370 4.261
56.2673 3.896
56.2975 4.520
56.3278 5.093
56.3581 4.989
56.3884 5.822
56.4187 6.760
56.4489 5.303
56.4792 6.137
56.5095 6.971
56.5398 7.598
56.5700 6.349
56.6003 5.726
56.6306 5.051
56.6609 3.960
56.6912 4.119
56.7214 3.132
56.7517 3.187
56.7820 3.138
56.8123 2.308
56.8426 2.312
56.8728 1.847
56.9031 1.122
56.9334 1.283
56.9637 1.028
56.9939 1.241
57.0242 0.673
57.0545 0.783
57.0848 1.309
57.1151 0.638
57.1453 0.540
57.1756 0.547
57.2059 0.814
57.2362 0.768
57.2665 0.359
57.2967 0.158
57.3270 0.426
57.3573 0.330
57.3876 0.077
57.4178 0.190
57.4481 0.459
57.4784 0.155
57.5087 0.581
57.5390 -0.191
57.5692 0.079
57.5995 0.141
57.6298 0.463
57.6601 -0.100
57.6904 0.067
57.7206 0.390
57.7509 0.089
57.7812 0.308
57.8115 -0.097
57.8417 0.331
57.8720 0.604
57.9023 0.199
57.9326 0.628
57.9629 -0.088
57.9931 -0.388
58.0234 0.076
58.0537 0.436
58.0840 0.066
58.1143 0.166
58.1445 0.058
58.1748 0.054
58.2051 0.103
58.2354 0.151
58.2656 0.148
58.2959 -0.063
58.3262 -0.118
58.3565 0.036
58.3868 0.607
58.4170 0.449
58.4473 0.499
58.4776 -0.179
58.5079 0.549
58.5382 -0.077
58.5684 -0.234
58.5987 -0.083
58.6290 0.224
58.6593 0.011
58.6896 -0.149
58.7198 0.159
58.7501 0.051
58.7804 -0.005
58.8107 0.095
58.8409 -0.168
58.8712 -0.171
58.9015 0.190
58.9318 -0.229
58.9621 0.186
58.9923 -0.442
59.0226 -0.184
59.0529 0.022
59.0832 0.176
59.1135 0.278
59.1437 -0.192
59.1740 -0.246
59.2043 0.326
59.2346 0.012
59.2648 0.272
59.2951 0.375
59.3254 0.375
59.3557 0.167
59.3860 0.063
59.4162 -0.041
59.4465 -0.197
59.4768 0.117
59.5071 0.066
59.5374 -0.089
59.5676 -0.348
59.5979 0.174
59.6282 -0.344
59.6585 0.127
59.6887 -0.287
59.7190 -0.024
59.7493 -0.073
59.7796 0.034
59.8099 0.090
59.8401 -0.011
59.8704 0.098
59.9007 -0.054
59.9310 0.054
59.9613 0.163
59.9915 -0.301
60.0218 0.121
60.0521 0.074
60.0824 -0.337
60.1126 -0.070
60.1429 -0.167
60.1732 -0.108
60.2035 0.263
60.2338 -0.250
60.2640 0.070
60.2943 -0.131
60.3246 -0.227
60.3549 0.033
60.3852 0.084
60.4154 0.500
60.4457 -0.177
60.4760 -0.126
60.5063 0.343
60.5365 0.344
60.5668 0.448
60.5971 -0.332
60.6274 -0.227
60.6577 0.137
60.6879 -0.279
60.7182 -0.123
60.7485 -0.123
60.7788 -0.227
60.8091 -0.232
60.8393 0.223
60.8696 0.210
60.8999 -0.116
60.9302 0.132
60.9604 0.067
60.9907 0.211
61.0210 -0.010
61.0513 0.239
61.0816 -0.242
61.1118 -0.149
61.1421 -0.004
61.1724 0.037
61.2027 -0.286
61.2330 0.172
61.2632 0.109
61.2935 0.256
61.3238 -0.015
61.3541 -0.024
61.3844 0.071
61.4146 0.218
61.4449 -0.051
61.4752 0.200
61.5055 -0.068
61.5357 -0.233
61.5660 0.176
61.5963 0.168
61.6266 0.265
61.6569 -0.367
61.6871 -0.062
61.7174 -0.016
61.7477 0.133
61.7780 0.127
61.8083 0.642
61.8385 -0.093
61.8688 0.110
61.8991 0.261
61.9294 0.308
61.9596 0.199
61.9899 0.247
62.0202 0.242
62.0505 0.499
62.0808 0.703
62.1110 0.491
62.1413 0.279
62.1716 0.641
62.2019 0.638
62.2322 0.167
62.2624 1.414
62.2927 1.412
62.3230 0.577
62.3533 1.200
62.3835 1.719
62.4138 1.770
62.4441 1.821
62.4744 1.925
62.5047 3.487
62.5349 2.914
62.5652 3.122
62.5955 4.112
62.6258 5.050
62.6561 5.415
62.6863 4.739
62.7166 5.469
62.7469 4.221
62.7772 5.733
62.8074 3.964
62.8377 5.060
62.8680 4.021
62.8983 4.075
62.9286 2.828
62.9588 2.883
62.9891 3.460
63.0194 1.849
63.0497 2.738
63.0800 2.065
63.1102 1.392
63.1405 1.136
63.1708 0.620
63.2011 1.510
63.2313 1.047
63.2616 0.896
63.2919 0.381
63.3222 0.700
63.3525 0.185
63.3827 0.087
63.4130 0.771
63.4433 0.830
63.4736 0.473
63.5039 0.324
63.5341 0.384
63.5644 0.444
63.5947 -0.017
63.6250 0.043
63.6552 0.156
63.6855 -0.148
63.7158 0.174
63.7461 -0.233
63.7764 0.193
63.8066 0.463
63.8369 -0.204
63.8672 -0.037
63.8975 0.546
63.9278 -0.329
63.9580 0.099
63.9883 0.267
64.0186 0.070
64.0489 0.186
64.0791 0.250
64.1094 0.158
64.1397 0.170
64.1700 0.339
64.2003 -0.117
64.2305 0.157
64.2608 0.118
64.2911 -0.077
64.3214 -0.063
64.3517 -0.153
64.3819 0.487
64.4122 -0.124
64.4425 0.308
64.4728 0.010
64.5031 0.025
64.5333 -0.011
64.5636 -0.412
64.5939 -0.006
64.6242 -0.173
64.6544 0.442
64.6847 0.380
64.7150 -0.151
64.7453 0.204
64.7756 0.299
64.8058 0.446
64.8361 0.125
64.8664 0.064
64.8967 0.108
64.9270 -0.109
64.9572 -0.221
64.9875 -0.124
65.0178 -0.236
65.0481 0.486
65.0783 0.011
65.1086 0.160
65.1389 -0.159
65.1692 -0.165
65.1995 0.038
65.2297 -0.177
65.2600 -0.234
65.2903 -0.092
65.3206 0.206
65.3509 -0.277
65.3811 0.074
65.4114 0.217
65.4417 -0.005
65.4720 0.191
65.5022 0.074
65.5325 -0.043
65.5628 0.101
65.5931 -0.067
65.6234 -0.340
65.6536 0.222
65.6839 0.054
65.7142 -0.165
65.7445 0.293
65.7748 -0.343
65.8050 -0.041
65.8353 0.105
65.8656 0.147
65.8959 -0.383
65.9261 0.024
65.9564 0.379
65.9867 0.006
66.0170 -0.055
66.0473 0.718
66.0775 0.137
66.1078 0.181
66.1381 0.538
66.1684 0.947
66.1987 0.419
66.2289 0.672
66.2592 0.197
66.2895 0.190
66.3198 0.496
66.3500 0.334
66.3803 0.484
66.4106 0.531
66.4409 -0.464
66.4712 0.208
66.5014 0.255
66.5317 0.302
66.5620 -0.327
66.5923 0.033
66.6226 0.342
66.6528 0.130
66.6831 -0.498
66.7134 -0.141
66.7437 0.268
66.7739 0.157
66.8042 -0.266
66.8345 0.873
66.8648 -0.227
66.8951 0.236
66.9253 -0.291
66.9556 -0.246
66.9859 0.321
67.0162 -0.207
67.0465 0.308
67.0767 -0.323
67.1070 -0.120
67.1373 0.083
67.1676 0.129
67.1978 0.124
67.2281 -0.037
67.2584 0.532
67.2887 0.111
67.3190 0.575
67.3492 0.780
67.3795 0.985
67.4098 0.513
67.4401 1.083
67.4704 1.080
67.5006 1.962
67.5309 1.491
67.5612 1.698
67.5915 1.800
67.6218 2.423
67.6520 2.318
67.6823 2.577
67.7126 2.784
67.7429 3.304
67.7731 3.043
67.8034 3.356
67.8337 2.470
67.8640 3.096
67.8943 2.836
67.9245 3.045
67.9548 3.098
67.9851 3.307
68.0154 2.892
68.0457 1.436
68.0759 2.115
68.1062 1.440
68.1365 1.911
68.1668 0.976
68.1970 1.552
68.2273 0.617
68.2576 1.350
68.2879 0.677
68.3182 0.993
68.3484 0.424
68.3787 0.376
68.4090 0.798
68.4393 0.594
68.4696 0.339
68.4998 0.136
68.5301 0.297
68.5604 0.355
68.5907 0.101
68.6209 0.211
68.6512 0.166
68.6815 1.422
68.7118 0.388
68.7421 0.811
68.7723 0.194
68.8026 1.347
68.8329 0.887
68.8632 1.311
68.8935 0.955
68.9237 0.808
68.9540 0.556
68.9843 1.086
69.0146 2.189
69.0448 1.313
69.0751 1.271
69.1054 1.177
69.1357 0.510
69.1660 1.198
69.1962 0.896
69.2265 0.907
69.2568 0.554
69.2871 0.357
69.3174 0.733
69.3476 0.068
69.3779 0.080
69.4082 0.197
69.4385 0.522
69.4687 0.223
69.4990 0.184
69.5293 -0.376
69.5596 -0.154
69.5899 0.329
69.6201 0.083
69.6504 0.149
69.6807 0.216
69.7110 0.283
69.7413 0.038
69.7715 -0.468
69.8018 -0.037
69.8321 0.342
69.8624 0.097
69.8926 -0.149
69.9229 -0.081
69.9532 -0.118
69.9835 -0.310
70.0138 0.114
70.0440 -0.243
70.0743 -0.027
70.1046 -0.227
70.1349 -0.118
70.1652 -0.164
70.1954 0.258
70.2257 -0.414
70.2560 -0.200
70.2863 0.171
70.3166 0.178
70.3468 0.028
70.3771 -0.278
70.4074 0.042
70.4377 -0.159
70.4679 -0.151
70.4982 -0.144
70.5285 0.073
70.5588 0.237
70.5891 -0.119
70.6193 -0.110
70.6496 0.003
70.6799 -0.144
70.7102 0.022
70.7405 -0.072
70.7707 -0.062
70.8010 0.104
70.8313 0.271
70.8616 0.125
70.8918 0.136
70.9221 0.460
70.9524 -0.102
70.9827 -0.194
71.0130 0.012
71.0432 -0.095
71.0735 0.008
71.1038 -0.202
71.1341 0.265
71.1644 -0.361
71.1946 -0.102
71.2249 0.106
71.2552 -0.155
71.2855 -0.103
71.3157 -0.051
71.3460 0.314
71.3763 0.106
71.4066 0.002
71.4369 -0.205
71.4671 0.057
71.4974 0.371
71.5277 0.008
71.5580 0.270
71.5883 -0.301
71.6185 -0.194
71.6488 -0.038
71.6791 0.222
71.7094 -0.039
71.7396 -0.039
71.7699 0.014
71.8002 -0.194
71.8305 -0.042
71.8608 -0.150
71.8910 -0.153
71.9213 -0.053
71.9516 0.153
71.9819 -0.111
72.0122 0.355
72.0424 0.301
72.0727 0.559
72.1030 0.193
72.1333 0.087
72.1635 0.138
72.1938 -0.072
72.2241 -0.073
72.2544 0.031
72.2847 0.343
72.3149 0.447
72.3452 -0.074
72.3755 0.395
72.4058 0.239
72.4361 0.188
72.4663 -0.072
72.4966 0.346
72.5269 0.035
72.5572 0.141
72.5874 0.299
72.6177 -0.272
72.6480 0.460
72.6783 -0.058
72.7086 0.101
72.7388 0.052
72.7691 0.211
72.7994 0.059
72.8297 0.375
72.8600 -0.194
72.8902 -0.033
72.9205 0.284
72.9508 0.497
72.9811 -0.435
73.0113 0.195
73.0416 0.252
73.0719 -0.054
73.1022 0.056
73.1325 0.010
73.1627 0.121
73.1930 -0.185
73.2233 -0.131
73.2536 0.027
73.2839 0.394
73.3141 -0.021
73.3444 -0.435
73.3747 0.033
73.4050 -0.020
73.4353 -0.125
73.4655 0.031
73.4958 0.343
73.5261 0.083
73.5564 0.396
73.5866 0.552
73.6169 -0.124
73.6472 0.138
73.6775 0.035
73.7078 0.036
73.7380 -0.327
73.7683 0.040
73.7986 0.355
73.8289 0.201
73.8592 -0.109
73.8894 0.519
73.9197 -0.103
73.9500 -0.047
73.9803 -0.304
74.0105 0.056
74.0408 0.468
74.0711 -0.265
74.1014 0.043
74.1317 -0.117
74.1619 -0.068
74.1922 0.189
74.2225 0.134
74.2528 -0.025
74.2831 -0.236
74.3133 0.282
74.3436 0.124
74.3739 0.330
74.4042 -0.140
74.4344 0.015
74.4647 -0.038
74.4950 0.169
74.5253 0.116
74.5556 -0.196
74.5858 0.012
74.6161 0.481
74.6464 -0.040
74.6767 -0.039
74.7070 0.222
74.7372 0.014
74.7675 -0.088
74.7978 -0.243
74.8281 0.332
74.8583 -0.083
74.8886 -0.185
74.9189 -0.138
74.9492 -0.090
74.9795 0.010
75.0097 0.163
75.0400 0.316
75.0703 -0.208
75.1006 0.257
75.1309 0.254
75.1611 0.252
75.1914 -0.063
75.2217 0.143
75.2520 0.298
75.2822 -0.069
75.3125 -0.018
75.3428 -0.332
75.3731 0.031
75.4034 0.186
75.4336 -0.023
75.4639 -0.181
75.4942 -0.025
75.5245 0.339
75.5548 -0.234
75.5850 -0.026
75.6153 0.235
75.6456 0.288
75.6759 -0.024
75.7061 0.029
75.7364 -0.022
75.7667 -0.020
75.7970 0.502
75.8273 0.035
75.8575 -0.275
75.8878 0.300
75.9181 0.043
75.9484 0.098
75.9787 0.101
76.0089 0.312
76.0392 0.004
76.0695 -0.201
76.0998 0.001
76.1301 -0.058
76.1603 0.093
76.1906 0.035
76.2209 -0.127
76.2512 0.232
76.2814 0.279
76.3117 0.430
76.3420 0.218
76.3723 0.526
76.4026 0.001
76.4328 -0.160
76.4631 -0.007
76.4934 0.146
76.5237 -0.014
76.5540 0.296
76.5842 0.397
76.6145 0.187
76.6448 0.341
76.6751 -0.026
76.7053 0.233
76.7356 0.648
76.7659 0.438
76.7962 0.333
76.8265 -0.032
76.8567 0.280
76.8870 0.488
76.9173 0.175
76.9476 0.696
76.9779 0.540
77.0081 0.593
77.0384 0.281
77.0687 0.543
77.0990 0.075
77.1292 0.233
77.1595 0.131
77.1898 0.185
77.2201 0.291
77.2504 0.294
77.2806 0.245
77.3109 -0.065
77.3412 -0.166
77.3715 0.150
77.4018 -0.158
77.4320 -0.207
77.4623 0.318
77.4926 0.010
77.5229 0.223
77.5531 -0.032
77.5834 -0.235
77.6137 0.083
77.6440 -0.224
77.6743 -0.010
77.7045 0.205
77.7348 -0.206
77.7651 0.009
77.7954 -0.140
77.8257 -0.185
77.8559 -0.073
77.8862 0.508
77.9165 -0.161
77.9468 0.473
77.9770 -0.039
78.0073 0.074
78.0376 0.136
78.0679 0.197
78.0982 0.259
78.1284 0.269
78.1587 0.019
78.1890 0.030
78.2193 0.197
78.2496 -0.001
78.2798 -0.250
78.3101 0.006
78.3404 0.158
78.3707 -0.054
78.4009 0.151
78.4312 0.147
78.4615 0.300
78.4918 -0.067
78.5221 -0.122
78.5523 0.240
78.5826 0.082
78.6129 0.392
78.6432 0.339
78.6735 0.285
78.7037 -0.029
78.7340 0.179
78.7643 0.074
78.7946 0.281
78.8248 0.229
78.8551 0.125
78.8854 0.177
78.9157 -0.135
78.9460 0.022
78.9762 -0.185
79.0065 0.128
79.0368 0.078
79.0671 -0.077
79.0974 0.289
79.1276 0.344
79.1579 0.190
79.1882 -0.172
79.2185 -0.172
79.2488 0.185
79.2790 -0.083
79.3093 0.119
79.3396 0.112
79.3699 0.105
79.4001 0.151
79.4304 0.249
79.4607 0.139
79.4910 -0.022
79.5213 0.181
79.5515 0.124
79.5818 -0.142
79.6121 0.062
79.6424 0.162
79.6727 0.106
79.7029 -0.158
79.7332 0.359
79.7635 0.303
79.7938 -0.064
79.8240 0.089
79.8543 0.034
79.8846 0.240
79.9149 0.030
79.9452 0.288
79.9754 0.182
80.0057 -0.288
80.0360 -0.081
80.0663 -0.082
80.0966 0.126
80.1268 0.021
80.1571 0.177
80.1874 0.021
80.2177 -0.031
80.2479 -0.083
80.2782 0.074
80.3085 -0.081
80.3388 0.024
80.3691 0.338
80.3993 -0.285
80.4296 -0.023
80.4599 0.032
80.4902 -0.226
80.5205 -0.024
80.5507 -0.134
80.5810 -0.035
80.6113 -0.092
80.6416 0.163
80.6718 -0.050
80.7021 0.206
80.7324 -0.006
80.7627 -0.010
80.7930 0.299
80.8232 -0.017
80.8535 -0.073
80.8838 -0.024
80.9141 0.390
80.9444 0.023
80.9746 0.073
81.0049 0.071
81.0352 0.017
81.0655 0.276
81.0957 -0.090
81.1260 -0.195
81.1563 0.221
81.1866 0.272
81.2169 -0.041
81.2471 0.428
81.2774 0.063
81.3077 -0.197
81.3380 0.481
81.3683 -0.039
81.3985 -0.194
81.4288 -0.140
81.4591 0.071
81.4894 0.334
81.5196 -0.131
81.5499 0.288
81.5802 0.084
81.6105 -0.017
81.6408 0.300
81.6710 0.096
81.7013 -0.004
81.7316 -0.104
81.7619 0.005
81.7922 0.011
81.8224 0.016
81.8527 0.022
81.8830 0.496
81.9133 0.190
81.9436 -0.012
81.9738 0.151
82.0041 0.053
82.0344 -0.304
82.0647 -0.036
82.0949 -0.080
82.1252 -0.124
82.1555 0.717
82.1858 -0.108
82.2161 -0.203
82.2463 0.431
82.2766 0.284
82.3069 -0.071
82.3372 -0.166
82.3675 -0.119
82.3977 0.085
82.4280 0.341
82.4583 0.024
82.4886 0.228
82.5188 0.224
82.5491 0.220
82.5794 0.269
82.6097 0.214
82.6400 0.107
82.6702 0.000
82.7005 -0.159
82.7308 0.307
82.7611 -0.007
82.7914 0.408
82.8216 0.146
82.8519 0.301
82.8822 -0.065
82.9125 0.247
82.9427 -0.014
82.9730 0.246
83.0033 -0.014
83.0336 0.142
83.0639 0.090
83.0941 0.195
83.1244 -0.117
83.1547 0.041
83.1850 0.094
83.2153 -0.008
83.2455 -0.007
83.2758 0.204
83.3061 0.102
83.3364 0.000
83.3666 0.107
83.3969 0.058
83.4272 -0.251
83.4575 -0.043
83.4878 0.114
83.5180 0.271
83.5483 0.063
83.5786 -0.248
83.6089 0.326
83.6392 -0.193
83.6694 0.069
83.6997 -0.085
83.7300 -0.031
83.7603 0.440
83.7905 0.130
83.8208 0.133
83.8511 0.136
83.8814 0.348
83.9117 0.248
83.9419 0.147
83.9722 0.308
84.0025 0.208
84.0328 0.004
84.0631 0.218
84.0933 0.171
84.1236 0.280
84.1539 0.181
84.1842 -0.021
84.2144 -0.223
84.2447 0.030
84.2750 0.231
84.3053 0.017
84.3356 -0.042
84.3658 0.212
84.3961 0.154
84.4264 -0.164
84.4567 0.195
84.4870 0.138
84.5172 -0.075
84.5475 0.024
84.5778 0.332
84.6081 0.068
84.6383 0.116
84.6686 -0.148
84.6989 0.109
84.7292 0.157
84.7595 -0.158
84.7897 0.204
84.8200 -0.216
84.8503 -0.166
84.8806 -0.064
84.9109 0.091
84.9411 0.141
84.9714 0.244
85.0017 0.139
85.0320 0.034
85.0623 -0.019
85.0925 -0.176
85.1228 -0.025
85.1531 0.281
85.1834 0.224
85.2136 0.271
85.2439 -0.255
85.2742 -0.104
85.3045 -0.108
85.3348 -0.112
85.3650 -0.012
85.3953 -0.068
85.4256 -0.020
85.4559 -0.023
85.4862 0.026
85.5164 -0.185
85.5467 -0.083
85.5770 0.227
85.6073 0.070
85.6375 -0.088
85.6678 0.327
85.6981 0.378
85.7284 -0.195
85.7587 -0.144
85.7889 0.012
85.8192 0.012
85.8495 -0.040
85.8798 0.273
85.9101 0.066
85.9403 0.015
85.9706 0.120
86.0009 -0.139
86.0312 -0.137
86.0614 0.021
86.0917 -0.029
86.1220 0.338
86.1523 0.028
86.1826 0.083
86.2128 -0.279
86.2431 -0.067
86.2734 0.509
86.3037 -0.217
86.3340 -0.004
86.3642 -0.052
86.3945 0.004
86.4248 -0.304
86.4551 0.005
86.4853 0.055
86.5156 0.052
86.5459 -0.106
86.5762 0.412
86.6065 0.046
86.6367 -0.008
86.6670 0.043
86.6973 0.250
86.7276 0.197
86.7579 -0.012
86.7881 0.196
86.8184 0.144
86.8487 0.040
86.8790 -0.116
86.9092 0.041
86.9395 0.094
86.9698 -0.062
87.0001 -0.112
87.0304 0.358
87.0606 0.360
87.0909 0.205
87.1212 0.051
87.1515 -0.154
87.1818 0.161
87.2120 -0.097
87.2423 0.427
87.2726 -0.090
87.3029 0.018
87.3331 0.074
87.3634 0.338
87.3937 0.030
87.4240 -0.382
87.4543 -0.016
87.4845 0.090
87.5148 -0.221
87.5451 0.093
87.5754 0.095
87.6057 -0.110
87.6359 0.413
87.6662 0.155
87.6965 0.107
87.7268 -0.098
87.7571 0.322
87.7873 0.117
87.8176 -0.243
87.8479 -0.083
87.8782 0.130
87.9084 0.135
87.9387 -0.172
87.9690 -0.133
87.9993 0.218
88.0296 -0.003
88.0598 0.089
88.0901 0.441
88.1204 -0.144
88.1507 0.001
88.1810 -0.167
88.2112 0.134
88.2415 0.019
88.2718 0.113
88.3021 -0.002
88.3323 -0.169
88.3626 0.134
88.3929 0.280
88.4232 0.062
88.4535 0.105
88.4837 -0.060
88.5140 0.087
88.5443 0.287
88.5746 -0.295
88.6049 -0.146
88.6351 0.054
88.6654 -0.214
88.6957 0.091
88.7260 0.084
88.7562 0.337
88.7865 -0.138
88.8168 0.012
88.8471 -0.255
88.8774 0.156
88.9076 -0.059
88.9379 0.040
88.9682 -0.121
88.9985 0.134
89.0288 0.077
89.0590 0.125
89.0893 0.172
89.1196 0.272
89.1499 0.217
89.1801 0.317
89.2104 0.314
89.2407 -0.158
89.2710 -0.109
89.3013 0.201
89.3315 0.094
89.3618 0.717
89.3921 0.090
89.4224 0.297
89.4527 0.087
89.4829 0.242
89.5132 0.241
89.5435 0.761
89.5738 0.292
89.6040 0.708
89.6343 0.344
89.6646 0.709
89.6949 0.345
89.7252 0.345
89.7554 0.294
89.7857 -0.121
89.8160 0.141
89.8463 0.559
89.8766 -0.221
89.9068 0.198
89.9371 0.305
89.9674 -0.109
89.9977 0.310
90.0279 -0.051
90.0582 0.056
90.0885 0.268
90.1188 0.220
90.1491 -0.193
90.1793 0.124
90.2096 -0.288
90.2399 0.238
90.2702 -0.226
90.3005 -0.065
90.3307 -0.163
90.3610 -0.053
90.3913 -0.256
90.4216 0.058
90.4518 0.060
90.4821 -0.146
90.5124 -0.144
90.5427 0.223
90.5730 -0.139
90.6032 -0.084
90.6335 -0.133
90.6638 0.392
90.6941 -0.021
90.7244 -0.121
90.7546 0.143
90.7849 0.148
90.8152 0.100
90.8455 -0.103
90.8758 0.266
90.9060 0.168
90.9363 -0.400
90.9666 0.335
90.9969 -0.284
91.0271 -0.121
91.0574 0.146
91.0877 -0.004
91.1180 -0.049
91.1483 0.115
91.1785 0.070
91.2088 0.182
91.2391 0.086
91.2694 0.251
91.2997 -0.158
91.3299 -0.201
91.3602 0.158
91.3905 0.153
91.4208 -0.269
91.4510 -0.118
91.4813 0.086
91.5116 -0.023
91.5419 0.025
91.5722 -0.135
91.6024 -0.034
91.6327 -0.194
91.6630 -0.041
91.6933 0.217
91.7236 0.319
91.7538 -0.100
91.7841 -0.049
91.8144 0.105
91.8447 -0.260
91.8749 -0.053
91.9052 0.050
91.9355 -0.003
91.9658 -0.055
91.9961 0.049
92.0263 0.101
92.0566 -0.055
92.0869 0.050
92.1172 0.051
92.1475 -0.104
92.1777 0.210
92.2080 0.420
92.2383 0.369
92.2686 0.163
92.2988 0.478
92.3291 0.116
92.3594 -0.194
92.3897 -0.147
92.4200 0.526
92.4502 0.105
92.4805 -0.055
92.5108 0.150
92.5411 0.251
92.5714 0.248
92.6016 0.245
92.6319 0.450
92.6622 0.396
92.6925 0.133
92.7227 -0.129
92.7530 0.286
92.7833 0.388
92.8136 0.075
92.8439 -0.083
92.8741 0.177
92.9044 0.281
92.9347 -0.032
92.9650 0.385
92.9953 -0.084
93.0255 0.021
93.0558 0.282
93.0861 -0.082
93.1164 0.180
93.1466 -0.027
93.1769 -0.182
93.2072 -0.128
93.2375 0.343
93.2678 0.189
93.2980 0.139
93.3283 -0.066
93.3586 0.197
93.3889 -0.008
93.4192 0.048
93.4494 0.416
93.4797 -0.048
93.5100 0.112
93.5403 -0.196
93.5706 0.330
93.6008 -0.238
93.6311 -0.129
93.6614 -0.332
93.6917 0.141
93.7219 -0.011
93.7522 -0.111
93.7825 0.310
93.8128 0.419
93.8431 0.007
93.8733 0.116
93.9036 -0.087
93.9339 -0.185
93.9642 0.014
93.9945 0.110
94.0247 -0.368
94.0550 -0.064
94.0853 0.345
94.1156 -0.184
94.1458 0.225
94.1761 0.218
94.2064 0.211
94.2367 -0.213
94.2670 0.145
94.2972 -0.122
94.3275 0.080
94.3578 -0.082
94.3881 0.433
94.4184 0.324
94.4486 0.475
94.4789 -0.103
94.5092 0.256
94.5395 0.044
94.5697 -0.013
94.6000 0.400
94.6303 -0.229
94.6606 0.132
94.6909 0.337
94.7211 0.282
94.7514 0.383
94.7817 0.068
94.8120 0.378
94.8423 0.428
94.8725 0.426
94.9028 0.268
94.9331 0.475
94.9634 0.110
94.9936 0.421
95.0239 0.368
95.0542 0.316
95.0845 0.836
95.1148 0.784
95.1450 0.472
95.1753 0.577
95.2056 0.473
95.2359 0.787
95.2662 0.840
95.2964 0.842
95.3267 0.166
95.3570 0.533
95.3873 0.795
95.4175 0.537
95.4478 0.852
95.4781 0.282
95.5084 0.442
95.5387 0.341
95.5689 0.709
95.5992 -0.016
95.6295 0.353
95.6598 0.149
95.6901 0.414
95.7203 0.106
95.7506 0.371
95.7809 0.637
95.8112 -0.087
95.8414 0.284
95.8717 -0.179
95.9020 0.192
95.9323 -0.062
95.9626 0.466
95.9928 -0.048
96.0231 0.167
96.0534 0.175
96.0837 -0.026
96.1140 0.138
96.1442 0.459
96.1745 -0.054
96.2048 0.215
96.2351 0.172
96.2653 0.286
96.2956 0.399
96.3259 0.148
96.3562 0.002
96.3865 0.116
96.4167 -0.082
96.4470 -0.176
96.4773 -0.182
96.5076 0.385
96.5379 0.067
96.5681 -0.042
96.5984 0.057
96.6287 0.156
96.6590 0.255
96.6893 0.043
96.7195 0.038
96.7498 0.347
96.7801 0.187
96.8104 0.131
96.8406 -0.080
96.8709 -0.031
96.9012 0.174
96.9315 -0.141
96.9618 -0.143
96.9920 0.115
97.0223 0.010
97.0526 -0.148
97.0829 -0.202
97.1132 0.318
97.1434 -0.256
97.1737 0.369
97.2040 0.472
97.2343 0.160
97.2645 0.056
97.2948 -0.152
97.3251 0.213
97.3554 -0.047
97.3857 0.059
97.4159 0.164
97.4462 0.166
97.4765 -0.041
97.5068 0.065
97.5371 0.120
97.5673 0.382
97.5976 0.281
97.6279 -0.029
97.6582 0.548
97.6884 0.134
97.7187 -0.226
97.7490 -0.130
97.7793 0.070
97.8096 0.063
97.8398 0.316
97.8701 -0.108
97.9004 0.041
97.9307 0.035
97.9610 0.237
97.9912 0.803
98.0215 0.016
98.0518 0.323
98.0821 0.005
98.1123 0.104
98.1426 0.203
98.1729 0.094
98.2032 0.194
98.2335 0.502
98.2637 0.394
98.2940 0.234
98.3243 0.647
98.3546 0.332
98.3849 0.224
98.4151 0.274
98.4454 0.219
98.4757 0.060
98.5060 0.319
98.5362 0.161
98.5665 0.107
98.5968 0.366
98.6271 0.105
98.6574 0.208
98.6876 -0.105
98.7179 -0.054
98.7482 0.311
98.7785 0.155
98.8088 0.415
98.8390 0.260
98.8693 0.260
98.8996 0.366
98.9299 -0.154
98.9601 0.108
98.9904 0.162
99.0207 0.112
99.0510 0.635
99.0813 0.325
99.1115 0.171
99.1418 0.018
99.1721 -0.031
99.2024 0.233
99.2327 -0.128
99.2629 -0.228
99.2932 0.133
99.3235 -0.027
99.3538 -0.030
99.3841 -0.085
99.4143 0.225
99.4446 -0.090
99.4749 0.273
99.5052 -0.042
99.5354 0.061
99.5657 -0.149
99.5960 0.006
99.6263 -0.047
99.6566 0.161
99.6868 -0.100
99.7171 0.369
99.7474 0.212
99.7777 0.265
99.8080 0.109
99.8382 -0.203
99.8685 -0.098
99.8988 -0.097
99.9291 -0.148
99.9593 0.062
99.9896 -0.145
100.0199 0.273
100.0502 -0.089
100.0805 -0.139
100.1107 -0.293
100.1410 0.231
100.1713 -0.183
100.2016 -0.075
100.2319 0.032
100.2621 -0.120
100.2924 -0.116
100.3227 0.149
100.3530 -0.159
100.3832 -0.103
100.4135 -0.254
100.4438 0.110
100.4741 0.005
100.5044 -0.204
100.5346 0.160
100.5649 -0.048
100.5952 0.109
100.6255 0.161
100.6558 0.006
100.6860 0.111
100.7163 0.008
100.7466 -0.095
100.7769 -0.093
100.8071 0.169
100.8374 -0.089
100.8677 0.382
100.8980 0.280
100.9283 0.075
100.9585 -0.026
100.9888 0.290
101.0191 0.033
101.0494 -0.067
101.0797 0.457
101.1099 -0.059
101.1402 0.102
101.1705 0.159
101.2008 -0.461
101.2310 -0.150
101.2613 0.995
101.2916 0.370
101.3219 0.161
101.3522 0.005
101.3824 0.266
101.4127 0.266
101.4430 0.059
101.4733 -0.201
101.5036 0.113
101.5338 -0.146
101.5641 0.012
101.5944 0.274
101.6247 0.068
101.6549 0.018
101.6852 0.073
101.7155 -0.028
101.7458 0.183
101.7761 0.030
101.8063 -0.279
101.8366 -0.026
101.8669 0.279
101.8972 0.167
101.9275 -0.049
101.9577 -0.056
101.9880 -0.063
102.0183 0.139
102.0486 -0.024
102.0788 0.127
102.1091 0.017
102.1394 -0.041
102.1697 0.058
102.2000 0.000
102.2302 0.308
102.2605 0.043
102.2908 0.559
102.3211 0.086
102.3514 -0.022
102.3816 0.391
102.4119 0.232
102.4422 0.176
102.4725 0.017
102.5028 0.066
102.5330 -0.092
102.5633 0.218
102.5936 0.164
102.6239 0.318
102.6541 0.056
102.6844 0.524
102.7147 0.210
102.7450 0.626
102.7753 0.313
102.8055 0.000
102.8358 0.156
102.8661 0.364
102.8964 0.313
102.9267 0.313
102.9569 0.002
102.9872 0.159
103.0175 0.108
103.0478 -0.203
103.0780 -0.105
103.1083 0.045
103.1386 0.248
103.1689 0.346
103.1992 0.289
103.2294 0.492
103.2597 -0.086
103.2900 -0.039
103.3203 -0.095
103.3506 -0.360
103.3808 0.101
103.4111 0.458
103.4414 0.867
103.4717 0.338
103.5019 0.019
103.5322 0.585
103.5625 0.318
103.5928 0.311
103.6231 0.462
103.6533 -0.065
103.6836 0.762
103.7139 0.184
103.7442 0.283
103.7745 -0.034
103.8047 0.378
103.8350 0.425
103.8653 0.733
103.8956 0.417
103.9258 -0.160
103.9561 0.201
103.9864 0.354
104.0167 0.664
104.0470 0.921
104.0772 0.398
104.1075 0.187
104.1378 0.654
104.1681 0.392
104.1984 0.130
104.2286 0.858
104.2589 0.596
104.2892 -0.030
104.3195 0.282
104.3497 -0.135
104.3800 0.021
104.4103 0.646
104.4406 0.021
104.4709 -0.134
104.5011 0.387
104.5314 0.388
104.5617 -0.027
104.5920 0.287
104.6223 -0.284
104.6525 -0.178
104.6828 -0.176
104.7131 -0.173
104.7434 0.350
104.7736 0.093
104.8039 0.252
104.8342 -0.161
104.8645 -0.210
104.8948 0.315
104.9250 0.111
104.9553 -0.353
104.9856 0.276
105.0159 0.021
105.0462 0.130
105.0764 -0.177
105.1067 -0.015
105.1370 0.459
105.1673 -0.160
105.1975 -0.049
105.2278 0.061
105.2581 -0.140
105.2884 -0.029
105.3187 -0.230
105.3489 0.035
105.3792 0.404
105.4095 -0.268
105.4398 -0.054
105.4701 0.524
105.5003 -0.199
105.5306 -0.193
105.5609 -0.135
105.5912 -0.180
105.6215 -0.122
105.6517 0.042
105.6820 -0.055
105.7123 0.369
105.7426 0.168
105.7728 0.332
105.8031 -0.024
105.8334 -0.016
105.8637 -0.215
105.8940 0.210
105.9242 -0.249
105.9545 0.072
105.9848 0.134
106.0151 0.300
106.0454 0.310
106.0756 -0.096
106.1059 -0.138
106.1362 0.029
106.1665 0.093
106.1967 -0.052
106.2270 0.324
106.2573 0.127
106.2876 -0.225
106.3179 -0.129
106.3481 0.124
106.3784 0.220
106.4087 -0.047
106.4390 -0.158
106.4693 0.252
106.4995 -0.119
106.5298 -0.230
106.5601 0.233
106.5904 -0.085
106.6206 0.274
106.6509 0.060
106.6812 0.160
106.7115 0.103
106.7418 0.098
106.7720 0.094
106.8023 0.090
106.8326 0.138
106.8629 0.030
106.8932 0.079
106.9234 0.232
106.9537 0.021
106.9840 0.175
107.0143 -0.192
107.0445 0.014
107.0748 0.116
107.1051 0.011
107.1354 -0.147
107.1657 -0.096
107.1959 0.007
107.2262 0.058
107.2565 0.423
107.2868 0.058
107.3171 0.266
107.3473 -0.046
107.3776 -0.202
107.4079 0.057
107.4382 0.003
107.4684 -0.154
107.4987 -0.051
107.5290 0.261
107.5593 0.104
107.5896 -0.260
107.6198 0.156
107.6501 0.157
107.6804 0.105
107.7107 0.106
107.7410 0.159
107.7712 -0.153
107.8015 0.005
107.8318 -0.097
107.8621 0.217
107.8923 0.376
107.9226 -0.247
107.9529 0.016
107.9832 0.019
108.0135 0.491
108.0437 0.130
108.0740 0.029
108.1043 -0.280
108.1346 -0.024
108.1649 0.232
108.1951 0.124
108.2254 0.068
108.2557 0.221
108.2860 0.009
108.3163 0.058
108.3465 -0.049
108.3768 0.417
108.4071 0.102
108.4374 0.308
108.4676 -0.163
108.4979 0.356
108.5282 0.407
108.5585 0.145
108.5888 -0.221
108.6190 -0.065
108.6493 0.142
108.6796 0.142
108.7099 0.038
108.7402 0.142
108.7704 -0.118
108.8007 0.143
108.8310 0.092
108.8613 0.145
108.8915 -0.062
108.9218 0.304
108.9521 0.150
108.9824 0.360
109.0127 -0.054
109.0429 0.001
109.0732 0.056
109.1035 -0.202
109.1338 -0.053
109.1641 0.148
109.1943 0.246
109.2246 0.291
109.2549 0.337
109.2852 -0.086
109.3154 0.220
109.3457 0.423
109.3760 0.157
109.4063 -0.265
109.4366 -0.009
109.4668 -0.378
109.4971 0.138
109.5274 -0.023
109.5577 -0.027
109.5880 -0.030
109.6182 -0.034
109.6485 -0.089
109.6788 -0.196
109.7091 -0.043
109.7393 0.059
109.7696 0.160
109.7999 0.315
109.8302 0.209
109.8605 -0.001
109.8907 -0.211
109.9210 -0.057
109.9513 0.097
109.9816 0.251
110.0119 -0.115
110.0421 0.144
110.0724 0.195
110.1027 -0.014
110.1330 0.141
110.1632 0.089
110.1935 0.662
110.2238 0.453
110.2541 0.141
110.2844 0.090
110.3146 0.090
110.3449 -0.169
110.3752 0.041
110.4055 -0.010
110.4358 -0.373
110.4660 0.671
110.4963 0.204
110.5266 0.050
110.5569 -0.155
110.5871 0.160
110.6174 0.372
110.6477 0.010
110.6780 0.222
110.7083 0.695
110.7385 0.126
110.7688 0.443
110.7991 -0.229
110.8294 -0.068
110.8597 0.510
110.8899 0.203
110.9202 0.104
110.9505 -0.255
110.9808 -0.100
111.0110 -0.102
111.0413 0.210
111.0716 0.157
111.1019 -0.052
111.1322 -0.209
111.1624 0.156
111.1927 -0.105
111.2230 0.000
111.2533 0.157
111.2836 0.001
111.3138 0.002
111.3441 -0.048
111.3744 0.578
111.4047 0.163
111.4350 0.113
111.4652 0.115
111.4955 0.014
111.5258 0.069
111.5561 -0.033
111.5863 0.179
111.6166 -0.026
111.6469 -0.022
111.6772 0.034
111.7075 -0.014
111.7377 0.303
111.7680 -0.109
111.7983 0.000
111.8286 0.005
111.8589 0.219
111.8891 0.224
111.9194 0.022
111.9497 0.444
111.9800 0.242
112.0102 -0.011
112.0405 0.047
112.0708 -0.102
112.1011 0.114
112.1314 0.017
112.1616 0.025
112.1919 -0.071
112.2222 0.562
112.2525 -0.055
112.2828 0.319
112.3130 0.067
112.3433 0.285
112.3736 0.034
112.4039 0.096
112.4341 0.105
112.4644 0.584
112.4947 0.282
112.5250 0.241
112.5553 0.252
112.5855 0.471
112.6158 0.118
112.6461 -0.131
112.6764 -0.275
112.7067 0.132
112.7369 0.226
112.7672 0.061
112.7975 0.156
112.8278 0.251
112.8580 0.295
112.8883 0.547
112.9186 0.174
112.9489 0.271
112.9792 0.576
113.0094 0.048
113.0397 0.093
113.0700 0.294
113.1003 0.027
113.1306 0.281
113.1608 0.223
113.1911 0.009
113.2214 0.003
113.2517 0.206
113.2819 0.253
113.3122 -0.065
113.3425 0.347
113.3728 0.447
113.4031 0.339
113.4333 0.022
113.4636 0.071
113.4939 0.119
113.5242 0.064
113.5545 -0.304
113.5847 0.527
113.6150 0.316
113.6453 0.053
113.6756 -0.001
113.7058 0.310
113.7361 0.152
113.7664 0.463
113.7967 0.149
113.8270 -0.060
113.8572 -0.321
113.8875 0.252
113.9178 -0.217
113.9481 0.148
113.9784 -0.217
114.0086 0.148
114.0389 0.253
114.0692 -0.214
114.0995 0.568
114.1298 0.361
114.1600 0.519
114.1903 0.001
114.2206 0.368
114.2509 0.057
114.2811 -0.148
114.3114 0.324
114.3417 -0.038
114.3720 -0.034
114.4023 0.178
114.4325 0.234
114.4628 0.186
114.4931 -0.226
114.5234 -0.185
114.5537 0.221
114.5839 -0.154
114.6142 0.148
114.6445 0.086
114.6748 0.025
114.7050 -0.141
114.7353 0.214
114.7656 0.309
114.7959 0.092
114.8262 -0.177
114.8564 0.024
114.8867 0.484
114.9170 0.216
114.9473 0.104
114.9776 -0.059
115.0078 -0.118
115.0381 -0.333
115.0684 0.127
115.0987 0.118
115.1289 0.215
115.1592 -0.210
115.1895 0.199
115.2198 0.296
115.2501 0.237
115.2803 0.126
115.3106 0.119
115.3409 -0.356
115.3712 0.002
115.4015 -0.212
115.4317 0.043
115.4620 0.245
115.4923 0.136
115.5226 0.391
115.5528 0.230
115.5831 -0.087
115.6134 0.586
115.6437 -0.095
115.6740 0.058
115.7042 0.314
115.7345 -0.210
115.7648 0.308
115.7951 0.409
115.8254 -0.062
115.8556 0.144
115.8859 0.454
115.9162 0.036
115.9465 0.399
115.9767 -0.019
116.0070 0.500
116.0373 0.135
116.0676 0.082
116.0979 0.030
116.1281 0.029
116.1584 0.550
116.1887 0.186
116.2190 -0.126
116.2493 0.239
116.2795 -0.020
116.3098 0.658
116.3401 0.347
116.3704 0.714
116.4006 0.299
116.4309 0.561
116.4612 0.303
116.4915 0.098
116.5218 0.517
116.5520 -0.209
116.5823 -0.257
116.6126 0.207
116.6429 0.307
116.6732 -0.113
116.7034 0.404
116.7337 0.245
116.7640 0.450
116.7943 0.499
116.8245 0.028
116.8548 0.338
116.8851 0.492
116.9154 0.074
116.9457 0.749
116.9759 -0.346
117.0062 0.330
117.0365 0.069
117.0668 0.641
117.0971 -0.401
117.1273 0.068
117.1576 -0.036
117.1879 -0.140
117.2182 -0.140
117.2485 0.174
117.2787 -0.190
117.3090 -0.137
117.3393 0.073
117.3696 0.387
117.3998 -0.079
117.4301 0.183
117.4604 -0.283
117.4907 -0.020
117.5210 -0.121
117.5512 -0.170
117.5815 -0.167
117.6118 -0.007
117.6421 0.310
117.6724 0.158
117.7026 0.006
117.7329 -0.354
117.7632 0.067
117.7935 -0.240
117.8237 0.442
117.8540 0.188
117.8843 -0.432
117.9146 0.043
117.9449 -0.107
117.9751 -0.361
118.0054 0.112
118.0357 -0.092
118.0660 -0.140
118.0963 0.333
118.1265 0.286
118.1568 0.031
118.1871 -0.172
118.2174 -0.062
118.2476 0.152
118.2779 0.054
118.3082 -0.461
118.3385 0.275
118.3688 0.386
118.3990 -0.076
118.4293 0.192
118.4596 -0.009
118.4899 0.259
118.5202 -0.358
118.5504 0.171
118.5807 -0.133
118.6110 0.188
118.6413 0.093
118.6715 0.362
118.7018 0.632
118.7321 -0.087
118.7624 -0.130
118.7927 0.193
118.8229 0.047
118.8532 0.058
118.8835 0.017
118.9138 0.080
118.9441 -0.117
118.9743 0.103
119.0046 0.323
119.0349 0.543
119.0652 0.243
119.0954 0.151
119.1257 0.060
119.1560 0.229
119.1863 0.346
119.2166 0.047
119.2468 0.113
119.2771 0.075
119.3074 -0.171
119.3377 -0.081
119.3680 0.426
119.3982 0.361
119.4285 0.296
119.4588 0.179
119.4891 0.010
119.5193 0.362
119.5496 -0.014
119.5799 0.078
119.6102 0.066
119.6405 -0.205
119.6707 0.148
119.7010 -0.227
119.7313 0.335
119.7616 0.064
119.7919 -0.102
119.8221 0.252
119.8524 0.607
119.8827 -0.132
119.9130 -0.193
119.9433 -0.254
119.9735 0.211
120.0038 0.000
