'Id: "" Comment: "" Operator: "Lab Manager" Anode: "Cu" Scantype: "Locked Coupled" TimePerStep: "19.2" X: "9999" Y: "9999" Z: "9999" 
10.0015 0.000
10.0318 -1.723
10.0620 0.448
10.0923 2.307
10.1226 -5.105
10.1529 3.317
10.1832 2.884
10.2134 6.514
10.2437 8.217
10.2740 9.972
10.3043 11.675
10.3346 12.076
10.3648 18.102
10.3951 15.587
10.4254 24.895
10.4557 25.401
10.4859 26.531
10.5162 30.787
10.5465 29.418
10.5768 32.633
10.6071 35.847
10.6373 39.635
10.6676 40.870
10.6979 46.012
10.7282 44.539
10.7585 55.046
10.7887 59.511
10.8190 63.924
10.8493 68.650
10.8796 71.396
10.9098 73.310
10.9401 76.630
10.9704 75.939
11.0007 84.728
11.0310 93.464
11.0612 91.524
11.0915 97.344
11.1218 96.654
11.1521 102.058
11.1824 103.503
11.2126 110.782
11.2429 113.998
11.2732 110.861
11.3035 112.515
11.3337 120.680
11.3640 124.834
11.3943 127.634
11.4246 118.612
11.4549 120.319
11.4851 122.911
11.5154 121.961
11.5457 119.450
11.5760 122.355
11.6063 120.208
11.6365 121.186
11.6668 118.518
11.6971 114.861
11.7274 116.465
11.7577 112.651
11.7879 109.099
11.8182 105.494
11.8485 107.150
11.8788 102.296
11.9090 100.514
11.9393 100.243
11.9696 99.608
11.9999 84.962
12.0302 82.764
12.0604 78.275
12.0907 75.505
12.1210 79.036
12.1513 68.870
12.1816 63.600
12.2118 55.726
12.2421 56.810
12.2724 54.457
12.3027 51.166
12.3329 43.865
12.3632 41.825
12.3935 35.670
12.4238 33.994
12.4541 34.871
12.4843 31.060
12.5146 23.759
12.5449 26.147
12.5752 21.867
12.6055 23.786
12.6357 19.246
12.6660 16.738
12.6963 16.886
12.7266 15.472
12.7568 11.349
12.7871 14.831
12.8174 12.219
12.8477 11.639
12.8780 9.079
12.9082 12.561
12.9385 7.918
12.9688 5.723
12.9991 8.424
13.0294 8.990
13.0596 7.733
13.0899 6.164
13.1202 3.449
13.1505 6.879
13.1807 2.914
13.2110 4.002
13.2413 5.245
13.2716 2.531
13.3019 2.785
13.3321 3.716
13.3624 2.043
13.3927 3.548
13.4230 3.177
13.4533 2.599
13.4835 2.489
13.5138 1.962
13.5441 -0.439
13.5744 4.035
13.6046 1.009
13.6349 2.930
13.6652 3.446
13.6955 1.097
13.7258 3.853
13.7560 0.358
13.7863 1.343
13.8166 1.807
13.8469 1.230
13.8772 1.382
13.9074 1.742
13.9377 0.331
13.9680 0.327
13.9983 0.531
14.0285 1.986
14.0588 -0.102
14.0891 0.728
14.1194 -0.005
14.1497 -0.061
14.1799 -0.325
14.2102 1.130
14.2405 -0.644
14.2708 1.072
14.3011 0.704
14.3313 0.076
14.3616 -1.750
14.3919 0.539
14.4222 0.484
14.4524 -0.508
14.4827 -0.563
14.5130 -0.826
14.5433 -0.828
14.5736 -0.935
14.6038 1.198
14.6341 1.092
14.6644 -2.451
14.6947 -0.995
14.7250 0.367
14.7552 -1.708
14.7855 -0.137
14.8158 1.017
14.8461 0.452
14.8764 -0.841
14.9066 -0.208
14.9369 0.061
14.9672 0.903
14.9975 -0.859
15.0277 0.036
15.0580 0.670
15.0883 -0.206
15.1186 1.469
15.1489 -1.021
15.1791 -0.595
15.2094 -0.533
15.2397 -1.826
15.2700 1.100
15.3003 -0.400
15.3305 0.235
15.3608 0.453
15.3911 -0.370
15.4214 -0.308
15.4516 -0.298
15.4819 1.379
15.5122 0.557
15.5425 0.255
15.5728 0.057
15.6030 0.380
15.6333 -1.328
15.6636 -0.344
15.6939 -0.037
15.7242 1.520
15.7544 0.212
15.7847 1.769
15.8150 0.618
15.8453 -0.481
15.8755 1.597
15.9058 -0.908
15.9361 -0.809
15.9664 -0.231
15.9967 0.242
16.0269 0.507
16.0572 0.981
16.0875 0.361
16.1178 0.470
16.1481 3.131
16.1783 1.678
16.2086 -0.921
16.2389 1.324
16.2692 2.006
16.2994 0.606
16.3297 -0.274
16.3600 0.565
16.3903 0.675
16.4206 0.889
16.4508 -0.199
16.4811 0.016
16.5114 0.751
16.5417 1.122
16.5720 1.649
16.6022 0.354
16.6325 0.152
16.6628 -0.310
16.6931 0.894
16.7233 -0.193
16.7536 -0.186
16.7839 -0.179
16.8142 0.193
16.8445 0.305
16.8747 -0.261
16.9050 0.996
16.9353 0.170
16.9656 1.532
16.9959 0.550
17.0261 0.454
17.0564 -0.111
17.0867 1.564
17.1170 0.634
17.1472 1.580
17.1775 -0.079
17.2078 1.024
17.2381 -0.010
17.2684 -0.574
17.2986 -0.722
17.3289 -0.519
17.3592 0.152
17.3895 1.969
17.4198 0.297
17.4500 1.750
17.4803 1.068
17.5106 -0.604
17.5409 -0.453
17.5712 0.375
17.6014 0.162
17.6317 -0.312
17.6620 0.934
17.6923 1.085
17.7225 0.091
17.7528 -0.643
17.7831 1.176
17.8134 0.651
17.8437 2.469
17.8739 1.163
17.9042 0.482
17.9345 0.791
17.9648 0.995
17.9951 1.721
18.0253 0.675
18.0556 0.776
18.0859 2.387
18.1162 1.238
18.1464 1.495
18.1767 1.231
18.2070 0.760
18.2373 2.892
18.2676 2.212
18.2978 3.928
18.3281 2.936
18.3584 1.423
18.3887 3.087
18.4190 2.928
18.4492 3.707
18.4795 3.392
18.5098 2.765
18.5401 3.284
18.5703 3.803
18.6006 4.270
18.6309 3.695
18.6612 4.214
18.6915 3.119
18.7217 3.534
18.7520 1.502
18.7823 1.865
18.8126 2.853
18.8429 2.592
18.8731 3.112
18.9034 3.684
18.9337 2.850
18.9640 4.047
18.9942 3.004
19.0245 2.796
19.0548 1.389
19.0851 1.649
19.1154 3.055
19.1456 1.440
19.1759 1.336
19.2062 1.805
19.2365 1.336
19.2668 1.493
19.2970 1.753
19.3273 1.858
19.3576 1.286
19.3879 0.609
19.4181 0.349
19.4484 1.340
19.4787 0.664
19.5090 0.456
19.5393 0.197
19.5695 0.354
19.5998 1.189
19.6301 0.617
19.6604 0.619
19.6907 0.568
19.7209 -0.315
19.7512 -0.262
19.7815 -0.624
19.8118 0.295
19.8420 0.954
19.8723 0.467
19.9026 0.241
19.9329 1.160
19.9632 0.101
19.9934 -0.125
20.0237 -0.403
20.0540 0.569
20.0843 0.187
20.1146 -0.195
20.1448 0.049
20.1751 -0.541
20.2054 -0.416
20.2357 -0.134
20.2659 -0.789
20.2962 0.326
20.3265 -0.589
20.3568 0.162
20.3871 0.704
20.4173 0.049
20.4476 -0.293
20.4779 -0.531
20.5082 -0.385
20.5385 0.075
20.5687 0.169
20.5990 1.462
20.6293 -0.422
20.6596 0.194
20.6899 1.070
20.7201 0.384
20.7504 -0.614
20.7807 1.096
20.8110 0.149
20.8412 -0.536
20.8715 -0.502
20.9018 0.053
20.9321 -1.423
20.9624 0.330
20.9926 0.365
21.0229 -0.017
21.0532 1.633
21.0835 -0.103
21.1138 0.661
21.1440 0.331
21.1743 0.419
21.2046 0.662
21.2349 0.177
21.2651 0.056
21.2954 -0.117
21.3257 -0.237
21.3560 1.048
21.3863 0.303
21.4165 0.860
21.4468 0.375
21.4771 0.359
21.5074 -0.438
21.5377 0.692
21.5679 1.041
21.5982 1.234
21.6285 -0.448
21.6588 0.422
21.6890 -0.427
21.7193 0.079
21.7496 -0.301
21.7799 0.517
21.8102 1.075
21.8404 1.008
21.8707 1.410
21.9010 0.979
21.9313 0.652
21.9616 0.117
21.9918 0.467
22.0221 0.453
22.0524 0.595
22.0827 0.529
22.1129 0.827
22.1432 0.449
22.1735 -0.034
22.2038 0.525
22.2341 1.189
22.2643 -0.647
22.2946 0.850
22.3249 0.524
22.3552 0.198
22.3855 0.549
22.4157 1.005
22.4460 -0.154
22.4763 0.927
22.5066 0.967
22.5368 -0.661
22.5671 0.837
22.5974 1.606
22.6277 1.490
22.6580 1.217
22.6882 0.944
22.7185 -0.005
22.7488 1.024
22.7791 0.231
22.8094 0.584
22.8396 1.562
22.8699 0.300
22.9002 1.383
22.9305 1.371
22.9607 2.349
22.9910 2.026
23.0213 1.442
23.0516 0.858
23.0819 1.784
23.1121 -0.206
23.1424 1.606
23.1727 0.450
23.2030 1.794
23.2333 1.210
23.2635 0.991
23.2938 2.075
23.3241 0.658
23.3544 1.638
23.3846 1.159
23.4149 1.201
23.4452 1.348
23.4755 0.192
23.5058 1.172
23.5360 1.788
23.5663 0.372
23.5966 3.331
23.6269 2.749
23.6572 1.021
23.6874 2.523
23.7177 1.837
23.7480 2.609
23.7783 2.965
23.8086 3.373
23.8388 3.052
23.8691 3.200
23.8994 3.035
23.9297 3.443
23.9599 1.977
23.9902 2.333
24.0205 4.773
24.0508 2.942
24.0811 3.299
24.1113 3.395
24.1416 3.700
24.1719 4.682
24.2022 3.998
24.2325 5.032
24.2627 4.712
24.2930 5.591
24.3233 4.073
24.3536 5.524
24.3838 5.986
24.4141 6.500
24.4444 7.483
24.4747 6.279
24.5050 7.574
24.5352 8.610
24.5655 7.718
24.5958 6.410
24.6261 8.226
24.6564 10.824
24.6866 8.579
24.7169 9.302
24.7472 8.672
24.7775 9.603
24.8077 9.806
24.8380 11.259
24.8683 9.170
24.8986 10.884
24.9289 10.306
24.9591 13.217
24.9894 13.837
25.0197 12.009
25.0500 11.015
25.0803 13.458
25.1105 12.724
25.1408 10.480
25.1711 11.778
25.2014 14.378
25.2316 13.436
25.2619 13.849
25.2922 14.782
25.3225 14.205
25.3528 14.149
25.3830 16.489
25.4133 14.819
25.4436 14.711
25.4739 16.374
25.5042 15.486
25.5344 13.711
25.5647 16.417
25.5950 15.684
25.6253 14.587
25.6555 13.595
25.6858 13.853
25.7161 14.631
25.7464 15.253
25.7767 11.918
25.8069 13.217
25.8372 11.027
25.8675 11.546
25.8978 11.388
25.9281 11.750
25.9583 10.967
25.9886 9.559
26.0189 10.755
26.0492 9.607
26.0794 9.554
26.1097 10.385
26.1400 10.280
26.1703 10.904
26.2006 9.704
26.2308 8.089
26.2611 8.608
26.2914 7.670
26.3217 9.180
26.3520 7.043
26.3822 7.772
26.4125 9.907
26.4428 7.823
26.4731 6.625
26.5034 8.187
26.5336 6.312
26.5639 7.197
26.5942 6.989
26.6245 7.458
26.6547 7.822
26.6850 7.875
26.7153 8.656
26.7456 6.990
26.7759 8.605
26.8061 7.356
26.8364 9.649
26.8667 7.879
26.8970 8.817
26.9273 7.151
26.9575 8.663
26.9878 8.664
27.0181 8.197
27.0484 7.782
27.0786 11.273
27.1089 10.389
27.1392 8.516
27.1695 10.392
27.1998 11.384
27.2300 11.230
27.2603 11.492
27.2906 10.609
27.3209 12.017
27.3512 13.843
27.3814 11.762
27.4117 14.056
27.4420 11.871
27.4723 9.270
27.5025 12.345
27.5328 9.171
27.5631 11.518
27.5934 11.521
27.6237 11.524
27.6539 12.361
27.6842 12.937
27.7145 11.951
27.7448 12.267
27.7751 13.000
27.8053 12.692
27.8356 13.581
27.8659 14.001
27.8962 12.808
27.9264 12.395
27.9567 10.785
27.9870 15.529
28.0173 13.554
28.0476 11.579
28.0778 12.522
28.1081 12.526
28.1384 14.302
28.1687 12.640
28.1990 11.395
28.2292 12.598
28.2595 11.874
28.2898 11.671
28.3201 11.260
28.3503 11.942
28.3806 11.323
28.4109 11.485
28.4412 10.605
28.4715 10.924
28.5017 11.711
28.5320 9.998
28.5623 9.223
28.5926 9.125
28.6229 9.496
28.6531 9.815
28.6834 8.155
28.7137 10.141
28.7440 8.637
28.7742 8.592
28.8045 7.609
28.8348 7.981
28.8651 6.790
28.8954 7.109
28.9256 7.377
28.9559 7.020
28.9862 6.871
29.0165 6.514
29.0468 7.407
29.0770 6.946
29.1073 5.704
29.1376 4.462
29.1679 5.199
29.1981 6.614
29.2284 4.538
29.2587 6.109
29.2890 3.045
29.3193 3.782
29.3495 4.937
29.3798 3.956
29.4101 4.121
29.4404 3.869
29.4707 3.358
29.5009 4.617
29.5312 3.011
29.5615 3.125
29.5918 4.436
29.6221 2.987
29.6523 3.153
29.6826 2.954
29.7129 2.495
29.7432 2.661
29.7734 1.734
29.8037 2.473
29.8340 3.473
29.8643 3.222
29.8946 1.306
29.9248 1.629
29.9551 1.743
29.9854 0.712
30.0157 1.817
30.0460 2.713
30.0762 1.474
30.1065 1.589
30.1368 1.860
30.1671 1.351
30.1973 1.987
30.2276 1.113
30.2579 0.760
30.2882 2.021
30.3185 1.147
30.3487 1.576
30.3790 0.650
30.4093 1.026
30.4396 1.611
30.4699 0.321
30.5001 0.646
30.5304 0.658
30.5607 0.723
30.5910 -0.775
30.6212 0.071
30.6515 0.448
30.6818 0.565
30.7121 2.557
30.7424 -0.138
30.7726 0.239
30.8029 1.398
30.8332 1.568
30.8635 0.435
30.8938 -0.020
30.9240 0.722
30.9543 -0.306
30.9846 0.646
31.0149 -0.122
31.0451 -0.525
31.0754 0.219
31.1057 -0.913
31.1360 -0.014
31.1663 -0.833
31.1965 0.063
31.2268 0.177
31.2571 -0.073
31.2874 0.718
31.3177 0.625
31.3479 -0.927
31.3782 -0.135
31.4085 0.605
31.4388 0.563
31.4690 0.626
31.4993 0.585
31.5296 0.596
31.5599 -0.278
31.5902 0.410
31.6204 0.526
31.6507 0.173
31.6810 -0.180
31.7113 -0.221
31.7416 0.989
31.7718 1.053
31.8021 -0.654
31.8324 0.088
31.8627 0.100
31.8929 -0.149
31.9232 0.385
31.9535 -0.540
31.9838 0.305
32.0141 -0.932
32.0443 0.643
32.0746 0.344
32.1049 -0.112
32.1352 -0.151
32.1655 0.747
32.1957 -0.646
32.2260 -0.424
32.2563 0.683
32.2866 -0.658
32.3169 -0.071
32.3471 -0.475
32.3774 0.789
32.4077 -0.082
32.4380 1.442
32.4682 0.362
32.4985 1.106
32.5288 -0.026
32.5591 1.134
32.5894 0.784
32.6196 2.517
32.6499 1.959
32.6802 2.442
32.7105 4.801
32.7408 2.212
32.7710 2.070
32.8013 1.408
32.8316 1.632
32.8619 1.751
32.8921 0.464
32.9224 2.199
32.9527 1.016
32.9830 -0.479
33.0133 0.527
33.0435 0.699
33.0738 0.454
33.1041 0.679
33.1344 0.226
33.1647 -0.279
33.1949 0.102
33.2252 -0.298
33.2555 0.656
33.2858 -1.307
33.3160 0.273
33.3463 0.550
33.3766 0.619
33.4069 0.636
33.4372 0.653
33.4674 -0.111
33.4977 1.260
33.5280 0.548
33.5583 -0.372
33.5886 -0.198
33.6188 0.653
33.6491 -0.059
33.6794 0.324
33.7097 0.081
33.7399 0.724
33.7702 -0.664
33.8005 1.229
33.8308 -0.419
33.8611 -0.505
33.8913 0.078
33.9216 1.652
33.9519 0.881
33.9822 -0.619
34.0125 -0.191
34.0427 -0.024
34.0730 0.977
34.1033 0.311
34.1336 -0.042
34.1638 -0.500
34.1941 -0.030
34.2244 0.232
34.2547 0.806
34.2850 0.078
34.3152 0.183
34.3455 0.445
34.3758 0.968
34.4061 0.865
34.4364 0.763
34.4666 0.140
34.4969 -0.744
34.5272 0.925
34.5575 1.708
34.5877 1.138
34.6180 -0.006
34.6483 -0.420
34.6786 1.041
34.7089 1.564
34.7391 1.150
34.7694 -0.045
34.7997 0.791
34.8300 -0.039
34.8603 0.641
34.8905 0.853
34.9208 0.335
34.9511 -0.026
34.9814 0.602
35.0116 0.137
35.0419 1.391
35.0722 1.395
35.1025 0.409
35.1328 0.621
35.1630 1.354
35.1933 0.525
35.2236 0.790
35.2539 0.742
35.2842 1.319
35.3144 -0.082
35.3447 0.808
35.3750 1.750
35.4053 -0.068
35.4356 0.249
35.4658 0.723
35.4961 0.259
35.5264 0.889
35.5567 0.478
35.5869 1.525
35.6172 1.687
35.6475 1.119
35.6778 0.812
35.7081 1.183
35.7383 0.459
35.7686 1.507
35.7989 0.315
35.8292 0.634
35.8595 0.275
35.8897 0.906
35.9200 0.548
35.9503 0.867
35.9806 1.134
36.0108 0.880
36.0411 0.887
36.0714 0.113
36.1017 1.057
36.1320 0.075
36.1622 0.186
36.1925 -0.015
36.2228 -1.258
36.2531 0.156
36.2834 0.111
36.3136 0.171
36.3439 0.595
36.3742 0.187
36.4045 -0.066
36.4347 0.203
36.4650 -0.102
36.4953 0.010
36.5256 0.383
36.5559 0.548
36.5861 0.608
36.6164 -0.425
36.6467 -1.145
36.6770 0.476
36.7073 0.379
36.7375 -0.030
36.7678 0.342
36.7981 0.037
36.8284 0.461
36.8586 -0.313
36.8889 0.320
36.9192 0.328
36.9495 -0.498
36.9798 0.187
37.0100 -0.690
37.0403 0.307
37.0706 -0.726
37.1009 0.480
37.1312 -0.657
37.1614 0.289
37.1917 0.714
37.2220 0.619
37.2523 0.471
37.2825 0.793
37.3128 0.281
37.3431 0.290
37.3734 -0.066
37.4037 -0.212
37.4339 0.786
37.4642 0.431
37.4945 -0.445
37.5248 0.190
37.5551 -0.113
37.5853 -0.519
37.6156 0.897
37.6459 0.542
37.6762 0.969
37.7064 -0.323
37.7367 0.260
37.7670 -0.302
37.7973 -0.135
37.8276 0.396
37.8578 0.719
37.8881 0.678
37.9184 1.626
37.9487 0.387
37.9790 0.398
38.0092 0.566
38.0395 0.629
38.0698 0.015
38.1001 0.027
38.1304 1.028
38.1606 -0.002
38.1909 1.155
38.2212 -0.031
38.2515 0.190
38.2817 0.566
38.3120 0.162
38.3423 0.747
38.3726 0.186
38.4029 -0.270
38.4331 -0.049
38.4634 0.797
38.4937 0.080
38.5240 0.041
38.5543 0.626
38.5845 0.431
38.6148 -0.077
38.6451 0.353
38.6754 0.783
38.7056 0.328
38.7359 0.601
38.7662 -0.427
38.7965 0.837
38.8268 0.017
38.8570 -0.021
38.8873 0.983
38.9176 0.372
38.9479 1.011
38.9782 0.921
39.0084 1.143
39.0387 0.168
39.0690 0.495
39.0993 -0.115
39.1295 0.733
39.1598 0.487
39.1901 -0.123
39.2204 -0.108
39.2507 0.115
39.2809 0.182
39.3112 0.041
39.3415 0.161
39.3718 0.384
39.4021 -0.069
39.4323 -0.470
39.4626 0.171
39.4929 0.082
39.5232 0.932
39.5534 0.635
39.5837 0.443
39.6140 -0.531
39.6443 0.579
39.6746 0.856
39.7048 1.029
39.7351 0.056
39.7654 0.177
39.7957 -0.327
39.8260 0.314
39.8562 0.956
39.8865 0.088
39.9168 -0.520
39.9471 -0.054
39.9773 0.204
40.0076 -0.006
40.0379 0.877
40.0682 0.302
40.0985 0.561
40.1287 0.246
40.1590 0.766
40.1893 0.295
40.2196 0.033
40.2499 -0.125
40.2801 0.499
40.3104 -0.804
40.3407 1.382
40.3710 0.444
40.4012 0.703
40.4315 0.754
40.4618 0.076
40.4921 -0.133
40.5224 0.335
40.5526 0.283
40.5829 0.334
40.6132 -0.030
40.6435 -0.135
40.6738 0.230
40.7040 0.490
40.7343 0.125
40.7646 1.115
40.7949 0.595
40.8251 -0.395
40.8554 0.804
40.8857 0.231
40.9160 0.753
40.9463 0.389
40.9765 1.119
41.0068 -0.130
41.0371 -0.129
41.0674 -0.076
41.0977 0.342
41.1279 0.656
41.1582 0.865
41.1885 0.294
41.2188 0.504
41.2491 0.766
41.2793 0.455
41.3096 0.926
41.3399 0.459
41.3702 0.513
41.4004 0.151
41.4307 1.351
41.4610 0.520
41.4913 1.095
41.5216 0.525
41.5518 0.631
41.5821 0.686
41.6124 0.429
41.6427 0.848
41.6730 0.851
41.7032 0.542
41.7335 0.232
41.7638 0.444
41.7941 0.083
41.8243 0.399
41.8546 0.506
41.8849 0.614
41.9152 0.253
41.9455 0.674
41.9757 -0.051
42.0060 1.099
42.0363 0.582
42.0666 0.846
42.0969 0.955
42.1271 0.699
42.1574 -0.130
42.1877 0.448
42.2180 0.452
42.2482 0.301
42.2785 -0.059
42.3088 0.311
42.3391 0.316
42.3694 0.008
42.3996 1.055
42.4299 0.904
42.4602 0.649
42.4905 0.915
42.5208 0.556
42.5510 -0.063
42.5813 0.203
42.6116 0.157
42.6419 0.476
42.6721 0.638
42.7024 -0.189
42.7327 0.911
42.7630 -0.072
42.7933 0.611
42.8235 -0.580
42.8538 -0.053
42.8841 0.162
42.9144 0.586
42.9447 -0.084
42.9749 0.496
43.0052 0.555
43.0355 0.198
43.0658 0.101
43.0960 0.056
43.1263 -0.405
43.1566 0.175
43.1869 -0.390
43.2172 -0.284
43.2474 -0.073
43.2777 0.241
43.3080 -0.590
43.3383 0.037
43.3686 1.081
43.3988 -0.010
43.4291 -0.112
43.4594 -0.161
43.4897 1.248
43.5199 0.261
43.5502 -0.100
43.5805 0.371
43.6108 0.218
43.6411 0.169
43.6713 -0.713
43.7016 0.437
43.7319 -0.029
43.7622 0.600
43.7925 -0.178
43.8227 -0.174
43.8530 -0.170
43.8833 -0.062
43.9136 1.036
43.9439 0.051
43.9741 -0.258
44.0044 0.684
44.0347 0.064
44.0650 -0.088
44.0952 -0.656
44.1255 0.546
44.1558 -0.126
44.1861 -0.173
44.2164 0.144
44.2466 -0.319
44.2769 -0.262
44.3072 -0.309
44.3375 0.426
44.3678 -0.610
44.3980 0.176
44.4283 0.443
44.4586 -0.333
44.4889 -0.379
44.5191 0.252
44.5494 0.153
44.5797 -0.361
44.6100 0.738
44.6403 -0.193
44.6705 0.647
44.7008 -0.232
44.7311 0.659
44.7614 0.926
44.7917 -0.421
44.8219 0.731
44.8522 -0.043
44.8825 0.276
44.9128 -0.029
44.9430 0.864
44.9733 -0.692
45.0036 -0.372
45.0339 -0.061
45.0642 0.355
45.0944 0.198
45.1247 0.405
45.1550 -0.273
45.1853 0.560
45.2156 0.507
45.2458 0.767
45.2761 0.350
45.3064 -0.327
45.3367 0.714
45.3669 0.193
45.3972 -0.119
45.4275 0.766
45.4578 0.402
45.4881 0.975
45.5183 0.663
45.5486 -0.066
45.5789 -0.066
45.6092 0.508
45.6395 0.196
45.6697 0.770
45.7000 1.031
45.7303 1.032
45.7606 0.721
45.7908 -0.007
45.8211 0.254
45.8514 0.152
45.8817 0.674
45.9120 0.988
45.9422 0.156
45.9725 0.627
46.0028 0.577
46.0331 -0.567
46.0634 -0.097
46.0936 -0.146
46.1239 0.793
46.1542 0.639
46.1845 0.225
46.2147 0.384
46.2450 0.595
46.2753 0.493
46.3056 -0.129
46.3359 0.030
46.3661 -0.227
46.3964 0.661
46.4267 0.873
46.4570 0.355
46.4873 0.411
46.5175 -0.367
46.5478 -0.416
46.5781 0.409
46.6084 0.557
46.6386 0.810
46.6689 0.281
46.6992 0.117
46.7295 0.994
46.7598 0.049
46.7900 0.250
46.8203 0.607
46.8506 0.026
46.8809 0.279
46.9112 0.064
46.9414 0.473
46.9717 0.622
47.0020 0.251
47.0323 -0.173
47.0626 0.185
47.0928 0.595
47.1231 0.120
47.1534 0.530
47.1837 0.992
47.2139 -0.108
47.2442 0.303
47.2745 0.505
47.3048 0.238
47.3351 -0.028
47.3653 0.695
47.3956 0.533
47.4259 0.111
47.4562 1.043
47.4865 -0.733
47.5167 0.147
47.5470 0.558
47.5773 0.657
47.6076 0.235
47.6378 0.647
47.6681 0.850
47.6984 1.158
47.7287 0.737
47.7590 0.732
47.7892 0.936
47.8195 0.775
47.8498 -0.219
47.8801 -0.067
47.9104 -0.071
47.9406 0.029
47.9709 0.025
48.0012 0.386
48.0315 0.278
48.0617 0.691
48.0920 0.010
48.1223 0.424
48.1526 0.160
48.1829 -0.052
48.2131 0.414
48.2434 0.202
48.2737 0.095
48.3040 0.665
48.3343 0.246
48.3645 0.660
48.3948 0.969
48.4251 -0.491
48.4554 -0.390
48.4856 0.536
48.5159 0.680
48.5462 0.720
48.5765 0.760
48.6068 1.061
48.6370 1.571
48.6673 0.153
48.6976 1.079
48.7279 0.443
48.7582 0.952
48.7884 0.785
48.8187 1.190
48.8490 1.440
48.8793 1.429
48.9095 0.845
48.9398 0.158
48.9701 1.605
49.0004 0.814
49.0307 0.491
49.0609 0.845
49.0912 1.408
49.1215 0.617
49.1518 1.075
49.1821 1.326
49.2123 1.577
49.2426 0.369
49.2729 1.036
49.3032 1.131
49.3334 1.174
49.3637 0.852
49.3940 0.895
49.4243 1.094
49.4546 0.772
49.4848 1.180
49.5151 0.963
49.5454 0.954
49.5757 1.935
49.6060 2.968
49.6362 1.449
49.6665 0.451
49.6968 1.068
49.7271 1.268
49.7574 1.468
49.7876 1.356
49.8179 1.192
49.8482 1.913
49.8785 2.010
49.9087 2.888
49.9390 1.057
49.9693 2.716
49.9996 1.928
50.0299 2.806
50.0601 1.653
50.0904 2.323
50.1207 1.379
50.1510 2.361
50.1813 3.292
50.2115 3.129
50.2418 2.914
50.2721 4.731
50.3024 2.120
50.3326 3.937
50.3629 4.607
50.3932 4.966
50.4235 3.970
50.4538 4.641
50.4840 4.115
50.5143 5.151
50.5446 4.780
50.5749 3.681
50.6052 4.144
50.6354 6.795
50.6657 4.863
50.6960 5.639
50.7263 5.374
50.7565 6.098
50.7868 5.364
50.8171 5.046
50.8474 5.042
50.8777 6.027
50.9079 6.126
50.9382 6.070
50.9685 6.326
50.9988 5.384
51.0291 5.849
51.0593 6.782
51.0896 5.528
51.1199 5.264
51.1502 5.625
51.1804 5.725
51.2107 5.878
51.2410 4.677
51.2713 5.038
51.3016 5.868
51.3318 4.511
51.3621 5.966
51.3924 4.296
51.4227 3.981
51.4530 4.968
51.4832 5.381
51.5135 4.650
51.5438 4.439
51.5741 3.759
51.6043 5.163
51.6346 5.734
51.6649 4.378
51.6952 3.803
51.7255 4.634
51.7557 3.486
51.7860 4.266
51.8163 3.639
51.8466 3.325
51.8769 4.105
51.9071 3.010
51.9374 3.842
51.9677 3.788
51.9980 3.318
52.0282 2.536
52.0585 4.358
52.0888 3.628
52.1191 3.471
52.1494 2.273
52.1796 2.324
52.2099 2.740
52.2402 2.948
52.2705 2.688
52.3008 2.583
52.3310 2.896
52.3613 2.635
52.3916 2.896
52.4219 2.427
52.4521 2.688
52.4824 3.939
52.5127 2.220
52.5430 2.638
52.5733 2.690
52.6035 2.535
52.6338 2.536
52.6641 1.599
52.6944 1.809
52.7247 2.226
52.7549 1.967
52.7852 1.969
52.8155 2.699
52.8458 1.242
52.8761 2.286
52.9063 1.819
52.9366 1.560
52.9669 1.614
52.9972 2.189
53.0274 2.295
53.0577 1.620
53.0880 1.102
53.1183 2.094
53.1486 1.888
53.1788 1.526
53.2091 1.008
53.2394 1.687
53.2697 2.315
53.3000 0.183
53.3302 1.332
53.3605 1.439
53.3908 0.869
53.4211 1.289
53.4513 1.397
53.4816 1.921
53.5119 1.352
53.5422 1.043
53.5725 0.839
53.6027 0.895
53.6330 1.211
53.6633 1.476
53.6936 1.219
53.7239 0.703
53.7541 1.749
53.7844 1.180
53.8147 0.612
53.8450 0.981
53.8752 0.257
53.9055 0.678
53.9358 0.892
53.9661 0.324
53.9964 0.745
54.0266 0.386
54.0569 1.485
54.0872 0.084
54.1175 0.246
54.1478 0.616
54.1780 1.039
54.2083 1.773
54.2386 -0.148
54.2689 -0.090
54.2991 0.802
54.3294 0.391
54.3597 0.658
54.3900 1.341
54.4203 0.671
54.4505 0.521
54.4808 0.944
54.5111 0.118
54.5414 0.020
54.5717 0.861
54.6019 -0.330
54.6322 1.135
54.6625 1.090
54.6928 0.056
54.7230 0.063
54.7533 0.227
54.7836 0.807
54.8139 -0.070
54.8442 -0.115
54.8744 -0.003
54.9047 -0.359
54.9350 0.430
54.9653 0.542
54.9956 0.811
55.0258 0.403
55.0561 0.672
55.0864 0.107
55.1167 -0.353
55.1469 0.385
55.1772 0.029
55.2075 0.298
55.2378 -0.526
55.2681 0.056
55.2983 0.742
55.3286 0.179
55.3589 0.605
55.3892 0.718
55.4195 0.103
55.4497 -0.044
55.4800 0.435
55.5103 -0.076
55.5406 0.611
55.5709 0.152
55.6011 0.058
55.6314 -0.348
55.6617 1.224
55.6920 0.558
55.7222 -0.421
55.7525 -0.098
55.7828 -0.400
55.8131 -0.181
55.8434 0.560
55.8736 0.780
55.9039 0.687
55.9342 0.646
55.9645 -0.384
55.9948 0.618
56.0250 0.994
56.0553 0.277
56.0856 0.289
56.1159 -0.168
56.1461 -0.416
56.1764 0.211
56.2067 -0.829
56.2370 0.058
56.2673 0.217
56.2975 0.427
56.3278 -0.144
56.3581 -0.506
56.3884 0.486
56.4187 0.020
56.4489 0.231
56.4792 0.338
56.5095 0.236
56.5398 0.447
56.5700 -0.175
56.6003 -0.172
56.6306 0.509
56.6609 0.356
56.6912 0.255
56.7214 0.102
56.7517 -0.155
56.7820 1.203
56.8123 0.061
56.8426 0.898
56.8728 0.693
56.9031 0.385
56.9334 0.389
56.9637 0.133
56.9939 -0.019
57.0242 0.245
57.0545 0.146
57.0848 -0.110
57.1151 0.363
57.1453 0.524
57.1756 0.685
57.2059 0.482
57.2362 -0.346
57.2665 0.128
57.2967 -0.284
57.3270 0.190
57.3573 0.196
57.3876 -0.476
57.4178 0.415
57.4481 0.421
57.4784 0.374
57.5087 -0.193
57.5390 0.803
57.5692 -0.337
57.5995 0.034
57.6298 1.290
57.6601 -0.214
57.6904 -0.780
57.7206 0.256
57.7509 -0.269
57.7812 0.403
57.8115 -0.278
57.8417 -0.543
57.8720 0.338
57.9023 -0.813
57.9326 0.329
57.9629 0.273
57.9931 0.373
58.0234 -0.204
58.0537 0.053
58.0840 0.466
58.1143 -0.267
58.1445 0.302
58.1748 0.299
58.2051 0.556
58.2354 -0.333
58.2656 0.445
58.2959 -0.808
58.3262 0.335
58.3565 0.592
58.3868 0.590
58.4170 0.847
58.4473 0.272
58.4776 0.582
58.5079 1.048
58.5382 0.108
58.5684 0.002
58.5987 0.521
58.6290 0.102
58.6593 0.308
58.6896 -0.058
58.7198 0.200
58.7501 0.407
58.7804 -0.011
58.8107 0.196
58.8409 0.246
58.8712 0.297
58.9015 -0.069
58.9318 0.295
58.9621 0.450
58.9923 -0.176
59.0226 0.344
59.0529 -0.021
59.0832 -0.386
59.1135 -0.029
59.1437 0.588
59.1740 1.153
59.2043 0.521
59.2346 -0.008
59.2648 -0.015
59.2951 -0.543
59.3254 0.387
59.3557 0.432
59.3860 0.061
59.4162 -0.363
59.4465 0.724
59.4768 0.457
59.5071 -0.175
59.5374 0.704
59.5676 0.750
59.5979 0.744
59.6282 0.269
59.6585 0.315
59.6887 -0.212
59.7190 0.355
59.7493 0.557
59.7796 0.916
59.8099 -0.131
59.8401 0.540
59.8704 0.379
59.9007 -0.043
59.9310 0.107
59.9613 0.259
59.9915 -0.319
60.0218 0.457
60.0521 0.556
60.0824 0.291
60.1126 0.755
60.1429 0.073
60.1732 -0.400
60.2035 -0.042
60.2338 0.628
60.2640 0.517
60.2943 -0.844
60.3246 -0.069
60.3549 -0.232
60.3852 0.335
60.4154 -0.036
60.4457 -0.094
60.4760 0.473
60.5063 -0.263
60.5365 -0.216
60.5668 -0.378
60.5971 0.085
60.6274 0.183
60.6577 -0.291
60.6879 0.172
60.7182 -0.302
60.7485 0.266
60.7788 0.730
60.8091 1.089
60.8393 0.251
60.8696 -0.066
60.8999 0.606
60.9302 0.289
60.9604 0.284
60.9907 0.749
61.0210 0.380
61.0513 -0.354
61.0816 0.840
61.1118 0.888
61.1421 1.665
61.1724 0.359
61.2027 0.720
61.2330 1.237
61.2632 0.661
61.2935 0.084
61.3238 0.446
61.3541 0.755
61.3844 1.376
61.4146 1.582
61.4449 1.318
61.4752 1.367
61.5055 0.635
61.5357 1.466
61.5660 1.151
61.5963 1.409
61.6266 0.885
61.6569 1.195
61.6871 1.818
61.7174 0.670
61.7477 0.981
61.7780 1.239
61.8083 1.081
61.8385 1.600
61.8688 2.952
61.8991 2.430
61.9294 1.647
61.9596 1.333
61.9899 1.957
62.0202 0.810
62.0505 2.892
62.0808 1.433
62.1110 2.525
62.1413 2.108
62.1716 1.170
62.2019 2.054
62.2322 1.533
62.2624 1.220
62.2927 2.522
62.3230 1.375
62.3533 0.959
62.3835 2.469
62.4138 2.052
62.4441 2.677
62.4744 1.844
62.5047 3.251
62.5349 2.313
62.5652 1.845
62.5955 1.950
62.6258 1.898
62.6561 2.003
62.6863 1.744
62.7166 2.057
62.7469 0.912
62.7772 2.268
62.8074 1.540
62.8377 1.124
62.8680 0.813
62.8983 1.231
62.9286 1.546
62.9588 1.756
62.9891 1.861
63.0194 0.509
63.0497 2.230
63.0800 1.138
63.1102 1.140
63.1405 1.038
63.1708 1.457
63.2011 0.991
63.2313 1.098
63.2616 1.153
63.2919 1.468
63.3222 0.377
63.3525 0.953
63.3827 0.643
63.4130 0.386
63.4433 0.962
63.4736 0.549
63.5039 1.021
63.5341 0.868
63.5644 0.976
63.5947 0.198
63.6250 1.244
63.6552 0.206
63.6855 0.366
63.7158 -0.047
63.7461 1.468
63.7764 0.691
63.8066 0.956
63.8369 0.804
63.8672 0.340
63.8975 1.386
63.9278 1.026
63.9580 -0.323
63.9883 0.150
64.0186 0.572
64.0489 0.525
64.0791 0.634
64.1094 0.796
64.1397 0.593
64.1700 0.025
64.2003 0.343
64.2305 0.766
64.2608 0.251
64.2911 0.361
64.3214 1.460
64.3517 0.477
64.3819 0.170
64.4122 0.333
64.4425 0.600
64.4728 0.398
64.5031 0.769
64.5333 0.827
64.5636 0.574
64.5939 0.893
64.6242 0.119
64.6544 0.334
64.6847 0.497
64.7150 0.661
64.7453 0.512
64.7756 0.154
64.8058 0.162
64.8361 0.274
64.8664 0.125
64.8967 0.081
64.9270 -0.380
64.9572 0.669
64.9875 0.156
65.0178 -0.356
65.0481 0.329
65.0783 0.129
65.1086 0.085
65.1389 0.250
65.1692 0.727
65.1995 0.007
65.2297 0.693
65.2600 0.076
65.2903 0.815
65.3206 0.303
65.3509 -0.261
65.3811 0.738
65.4114 0.122
65.4417 0.184
65.4720 -0.276
65.5022 -0.162
65.5325 0.473
65.5628 0.483
65.5931 -0.393
65.6234 -0.383
65.6536 -0.062
65.6839 0.156
65.7142 1.206
65.7445 0.694
65.7748 -0.443
65.8050 0.400
65.8353 -0.372
65.8656 0.783
65.8959 0.376
65.9261 -0.292
65.9564 -0.074
65.9867 0.301
66.0170 0.571
66.0473 0.060
66.0775 -0.347
66.1078 -0.076
66.1381 1.080
66.1684 -0.160
66.1987 0.007
66.2289 0.173
66.2592 0.132
66.2895 0.403
66.3198 0.466
66.3500 0.581
66.3803 0.748
66.4106 0.603
66.4409 -0.063
66.4712 -0.365
66.5014 -0.097
66.5317 0.587
66.5620 1.428
66.5923 0.237
66.6226 -0.276
66.6528 -0.060
66.6831 0.364
66.7134 0.684
66.7437 -0.037
66.7739 -0.342
66.8042 -0.178
66.8345 0.195
66.8648 -0.318
66.8951 0.159
66.9253 0.116
66.9556 0.385
66.9859 -0.128
67.0162 1.027
67.0465 0.411
67.0767 0.159
67.1070 0.116
67.1373 0.490
67.1676 -0.751
67.1978 0.195
67.2281 0.621
67.2584 -0.150
67.2887 0.484
67.3190 0.285
67.3492 -0.017
67.3795 0.721
67.4098 -0.258
67.4401 0.221
67.4704 0.491
67.5006 -0.384
67.5309 -0.009
67.5612 -0.624
67.5915 0.059
67.6218 -0.039
67.6520 0.644
67.6823 -0.236
67.7126 0.760
67.7429 0.558
67.7731 -0.060
67.8034 0.050
67.8337 -0.099
67.8640 0.064
67.8943 0.643
67.9245 0.234
67.9548 0.657
67.9851 0.039
68.0154 0.515
68.0457 0.106
68.0759 0.373
68.1062 -0.140
68.1365 0.076
68.1668 -0.125
68.1970 -0.534
68.2273 0.307
68.2576 -0.101
68.2879 0.271
68.3182 -0.137
68.3484 0.496
68.3787 0.556
68.4090 0.773
68.4393 0.313
68.4696 0.321
68.4998 -0.035
68.5301 0.130
68.5604 -0.069
68.5907 -0.060
68.6209 -0.416
68.6512 0.112
68.6815 0.484
68.7118 0.022
68.7421 0.029
68.7723 -0.224
68.8026 1.137
68.8329 0.259
68.8632 0.423
68.8935 0.066
68.9237 -0.239
68.9540 0.603
68.9843 0.610
69.0146 0.462
69.0448 0.939
69.0751 0.322
69.1054 0.018
69.1357 0.287
69.1660 0.452
69.1962 -0.165
69.2265 -0.312
69.2568 -0.368
69.2871 0.567
69.3174 0.408
69.3476 0.353
69.3779 0.611
69.4082 0.712
69.4385 0.137
69.4687 -0.178
69.4990 0.393
69.5293 0.859
69.5596 0.545
69.5899 -0.030
69.6201 0.124
69.6504 0.539
69.6807 0.173
69.7110 0.744
69.7413 0.742
69.7715 0.637
69.8018 0.427
69.8321 0.061
69.8624 0.373
69.8926 0.424
69.9229 -0.723
69.9532 0.578
69.9835 0.056
70.0138 0.212
70.0440 0.368
70.0743 0.263
70.1046 0.419
70.1349 0.106
70.1652 1.095
70.1954 0.210
70.2257 0.627
70.2560 0.366
70.2863 0.523
70.3166 0.367
70.3468 -0.466
70.3771 0.055
70.4074 -0.257
70.4377 0.108
70.4679 0.994
70.4982 -0.151
70.5285 -0.462
70.5588 0.424
70.5891 0.165
70.6193 0.947
70.6496 0.532
70.6799 -0.196
70.7102 0.379
70.7405 0.536
70.7707 0.017
70.8010 1.061
70.8313 0.125
70.8616 0.179
70.8918 -0.131
70.9221 -0.337
70.9524 0.181
70.9827 0.074
71.0130 0.124
71.0432 0.486
71.0735 -0.089
71.1038 0.118
71.1341 0.011
71.1644 0.010
71.1946 0.164
71.2249 0.110
71.2552 0.004
71.2855 0.368
71.3157 0.418
71.3460 0.052
71.3763 0.468
71.4066 0.363
71.4369 0.101
71.4671 0.048
71.4974 0.151
71.5277 -0.110
71.5580 -0.162
71.5883 0.358
71.6185 -0.268
71.6488 0.201
71.6791 0.305
71.7094 0.565
71.7396 -0.216
71.7699 0.565
71.8002 0.252
71.8305 0.201
71.8608 -0.007
71.8910 0.358
71.9213 0.358
71.9516 -0.110
71.9819 -0.005
72.0122 -0.161
72.0424 -0.004
72.0727 -0.003
72.1030 -0.002
72.1333 -0.157
72.1635 0.209
72.1938 0.002
72.2241 0.056
72.2544 0.005
72.2847 -0.097
72.3149 0.061
72.3452 -0.094
72.3755 0.220
72.4058 0.014
72.4361 0.277
72.4663 -0.450
72.4966 0.073
72.5269 1.013
72.5572 0.390
72.5874 -0.076
72.6177 0.968
72.6480 0.034
72.6783 -0.224
72.7086 0.144
72.7388 0.719
72.7691 0.150
72.7994 0.049
72.8297 -0.312
72.8600 -0.211
72.8902 -0.162
72.9205 0.148
72.9508 -0.011
72.9811 0.507
73.0113 0.244
73.0416 0.503
73.0719 0.188
73.1022 0.081
73.1325 0.132
73.1627 0.598
73.1930 0.284
73.2233 0.386
73.2536 0.228
73.2839 0.487
73.3141 -0.348
73.3444 0.484
73.3747 0.119
73.4050 -0.195
73.4353 0.950
73.4655 -0.458
73.4958 0.479
73.5261 0.270
73.5564 -0.043
73.5866 0.216
73.6169 0.060
73.6472 -0.097
73.6775 0.475
73.7078 0.788
73.7380 0.215
73.7683 0.423
73.7986 0.110
73.8289 0.006
73.8592 0.423
73.8894 0.892
73.9197 0.476
73.9500 0.789
73.9803 0.633
74.0105 0.374
74.0408 0.427
74.0711 -0.041
74.1014 0.116
74.1317 0.377
74.1619 0.483
74.1922 0.588
74.2225 0.329
74.2528 0.174
74.2831 0.332
74.3133 0.490
74.3436 0.492
74.3739 0.233
74.4042 0.495
74.4344 0.914
74.4647 -0.334
74.4950 -0.071
74.5253 0.348
74.5556 0.871
74.5858 0.613
74.6161 1.084
74.6464 1.035
74.6767 0.152
74.7070 0.416
74.7372 0.419
74.7675 0.265
74.7978 0.529
74.8281 0.740
74.8583 0.535
74.8886 1.476
74.9189 0.282
74.9492 0.234
74.9795 0.498
75.0097 0.189
75.0400 -0.276
75.0703 0.405
75.1006 0.513
75.1309 0.205
75.1611 0.366
75.1914 0.683
75.2217 0.635
75.2520 -0.350
75.2822 0.905
75.3125 0.649
75.3428 0.393
75.3731 0.971
75.4034 0.560
75.4336 0.356
75.4639 0.518
75.4942 0.784
75.5245 -0.044
75.5548 0.586
75.5850 1.165
75.6153 0.389
75.6456 -0.074
75.6759 0.817
75.7061 0.146
75.7364 0.465
75.7667 0.627
75.7970 0.269
75.8273 0.640
75.8575 0.594
75.8878 0.601
75.9181 0.660
75.9484 0.666
75.9787 0.465
76.0089 0.159
76.0392 0.635
76.0695 1.267
76.0998 0.441
76.1301 0.188
76.1603 0.508
76.1906 0.463
76.2209 0.627
76.2512 0.739
76.2814 0.434
76.3117 -0.027
76.3420 -0.019
76.3723 0.771
76.4026 0.414
76.4328 0.318
76.4631 0.118
76.4934 1.116
76.5237 0.343
76.5540 0.717
76.5842 -0.056
76.6145 0.370
76.6448 0.535
76.6751 0.231
76.7053 -0.280
76.7356 -0.235
76.7659 1.165
76.7962 0.429
76.8265 0.006
76.8567 1.146
76.8870 0.463
76.9173 0.509
76.9476 0.868
76.9779 0.602
77.0081 0.283
77.0384 0.226
77.0687 0.585
77.0990 0.423
77.1292 0.105
77.1595 0.256
77.1898 0.355
77.2201 0.038
77.2504 0.866
77.2806 0.289
77.3109 0.128
77.3412 0.592
77.3715 0.379
77.4018 0.166
77.4320 0.110
77.4623 0.626
77.4926 0.362
77.5229 0.670
77.5531 -0.011
77.5834 0.714
77.6137 0.815
77.6440 0.186
77.6743 0.599
77.7045 0.179
77.7348 -0.137
77.7651 0.016
77.7954 0.169
77.8257 0.062
77.8559 0.267
77.8862 0.472
77.9165 0.105
77.9468 0.519
77.9770 0.047
78.0073 -0.112
78.0376 -0.010
78.0679 0.873
78.0982 0.038
78.1284 0.452
78.1587 0.294
78.1890 -0.125
78.2193 -0.179
78.2496 0.444
78.2798 -0.130
78.3101 0.128
78.3404 0.491
78.3707 0.178
78.4009 0.489
78.4312 -0.450
78.4615 -0.243
78.4918 -0.296
78.5221 0.536
78.5523 -0.142
78.5826 0.066
78.6129 0.899
78.6432 0.429
78.6735 0.168
78.7037 0.168
78.7340 0.584
78.7643 -0.197
78.7946 0.272
78.8248 0.115
78.8551 0.480
78.8854 0.063
78.9157 -0.040
78.9460 0.533
78.9762 0.117
79.0065 0.117
79.0368 0.118
79.0671 -0.559
79.0974 0.015
79.1276 -0.244
79.1579 -0.191
79.1882 0.122
79.2185 -0.085
79.2488 0.177
79.2790 0.855
79.3093 0.597
79.3396 0.338
79.3699 -0.025
79.4001 -0.075
79.4304 -0.126
79.4607 0.918
79.4910 -0.278
79.5213 0.141
79.5515 0.143
79.5818 0.823
79.6121 0.148
79.6424 -0.162
79.6727 0.570
79.7029 -0.261
79.7332 0.263
79.7635 0.474
79.7938 0.373
79.8240 0.168
79.8543 0.119
79.8846 -0.295
79.9149 -0.353
79.9452 0.734
79.9754 0.154
80.0057 0.877
80.0360 0.090
80.0663 0.031
80.0966 0.286
80.1268 -0.033
80.1571 0.430
80.1874 -0.357
80.2177 0.783
80.2479 -0.108
80.2782 -0.166
80.3085 -0.171
80.3388 0.396
80.3691 0.287
80.3993 0.178
80.4296 0.225
80.4599 -0.093
80.4902 0.007
80.5205 0.262
80.5507 -0.003
80.5810 1.242
80.6113 0.717
80.6416 0.192
80.6718 0.083
80.7021 -0.598
80.7324 -0.029
80.7627 0.020
80.7930 -0.036
80.8232 -0.196
80.8535 0.009
80.8838 0.422
80.9141 -0.102
80.9444 -0.053
80.9746 -0.108
81.0049 0.097
81.0352 0.771
81.0655 0.092
81.0957 0.297
81.1260 0.659
81.1563 0.448
81.1866 0.446
81.2169 0.183
81.2471 0.806
81.2774 -0.342
81.3077 0.177
81.3380 0.644
81.3683 -0.504
81.3985 0.067
81.4288 0.222
81.4591 0.116
81.4894 0.010
81.5196 0.269
81.5499 0.528
81.5802 0.111
81.6105 0.630
81.6408 -0.100
81.6710 0.420
81.7013 0.159
81.7316 0.367
81.7619 0.470
81.7922 0.209
81.8224 0.209
81.8527 0.000
81.8830 0.260
81.9133 0.208
81.9436 0.312
81.9738 0.729
82.0041 -0.052
82.0344 -0.312
82.0647 0.102
82.0949 0.517
82.1252 0.464
82.1555 0.671
82.1858 0.669
82.2161 -0.061
82.2463 0.407
82.2766 -0.011
82.3069 -0.168
82.3372 0.143
82.3675 0.403
82.3977 0.871
82.4280 -0.067
82.4583 0.193
82.4886 -0.068
82.5188 0.401
82.5491 0.192
82.5794 -0.016
82.6097 -0.069
82.6400 0.244
82.6702 0.869
82.7005 -0.120
82.7308 0.401
82.7611 -0.015
82.7914 -0.015
82.8216 0.142
82.8519 -0.430
82.8822 -0.064
82.9125 -0.220
82.9427 -0.063
82.9730 0.355
83.0033 0.721
83.0336 0.410
83.0639 0.776
83.0941 -0.160
83.1244 0.310
83.1547 0.051
83.1850 -0.051
83.2153 0.211
83.2455 -0.151
83.2758 0.163
83.3061 0.895
83.3364 -0.197
83.3666 0.066
83.3969 0.433
83.4272 0.279
83.4575 0.178
83.4878 -0.288
83.5180 0.444
83.5483 0.446
83.5786 0.085
83.6089 0.817
83.6392 0.924
83.6694 0.355
83.6997 0.046
83.7300 0.622
83.7603 -0.051
83.7905 -0.308
83.8208 0.054
83.8511 -0.053
83.8814 -0.004
83.9117 0.879
83.9419 -0.425
83.9722 0.145
84.0025 -0.430
84.0328 0.297
84.0631 0.295
84.0933 0.762
84.1236 -0.177
84.1539 0.602
84.1842 0.757
84.2144 0.547
84.2447 0.337
84.2750 0.648
84.3053 -0.082
84.3356 -0.031
84.3658 0.593
84.3961 0.071
84.4264 0.382
84.4567 0.121
84.4870 -0.140
84.5172 -0.036
84.5475 0.692
84.5778 0.327
84.6081 -0.038
84.6383 0.014
84.6686 0.014
84.6989 -0.194
84.7292 0.743
84.7595 -0.038
84.7897 0.431
84.8200 -0.402
84.8503 0.380
84.8806 0.693
84.9109 -0.609
84.9411 0.173
84.9714 -0.191
85.0017 0.019
85.0320 -0.032
85.0623 0.333
85.0925 0.230
85.1228 0.127
85.1531 0.650
85.1834 0.130
85.2136 0.184
85.2439 0.290
85.2742 0.396
85.3045 -0.019
85.3348 0.139
85.3650 0.453
85.3953 0.456
85.4256 -0.167
85.4559 0.929
85.4862 0.254
85.5164 -0.004
85.5467 -0.053
85.5770 0.002
85.6073 -0.308
85.6375 0.004
85.6678 0.680
85.6981 0.471
85.7284 0.366
85.7587 0.053
85.7889 0.105
85.8192 -0.208
85.8495 0.834
85.8798 0.156
85.9101 0.156
85.9403 0.052
85.9706 0.000
86.0009 0.417
86.0312 0.053
86.0614 0.470
86.0917 0.210
86.1220 0.367
86.1523 -0.049
86.1826 -0.308
86.2128 0.055
86.2431 -0.258
86.2734 -0.051
86.3037 0.001
86.3340 0.260
86.3642 0.468
86.3945 -0.001
86.4248 0.415
86.4551 0.050
86.4853 0.623
86.5156 -0.002
86.5459 -0.055
86.5762 -0.211
86.6065 0.154
86.6367 -0.210
86.6670 -0.262
86.6973 0.468
86.7276 0.364
86.7579 0.052
86.7881 0.157
86.8184 0.314
86.8487 -0.310
86.8790 0.472
86.9092 -0.308
86.9395 -0.568
86.9698 0.474
87.0001 0.423
87.0304 0.007
87.0606 0.632
87.0909 -0.044
87.1212 0.061
87.1515 0.167
87.1818 -0.249
87.2120 0.013
87.2423 0.223
87.2726 -0.141
87.3029 0.382
87.3331 0.175
87.3634 0.385
87.3937 0.023
87.4240 0.441
87.4543 0.183
87.4845 0.862
87.5148 0.343
87.5451 0.085
87.5754 0.921
87.6057 -0.483
87.6359 0.301
87.6662 -0.061
87.6965 -0.110
87.7268 0.049
87.7571 0.625
87.7873 -0.309
87.8176 -0.046
87.8479 0.062
87.8782 0.742
87.9084 0.537
87.9387 0.072
87.9690 -0.393
87.9993 0.392
88.0296 -0.334
88.0598 0.764
88.0901 -0.117
88.1204 0.408
88.1507 -0.005
88.1810 0.156
88.2112 -0.257
88.2415 0.529
88.2718 0.586
88.3021 0.122
88.3323 -0.030
88.3626 0.704
88.3929 0.345
88.4232 0.766
88.4535 0.355
88.4837 -0.369
88.5140 0.470
88.5443 0.475
88.5746 -0.092
88.6049 0.070
88.6351 0.179
88.6654 0.237
88.6957 0.712
88.7260 0.093
88.7562 0.151
88.7865 -0.520
88.8168 -0.105
88.8471 0.258
88.8774 0.153
88.9076 0.724
88.9379 -0.006
88.9682 0.461
88.9985 0.200
89.0288 0.667
89.0590 0.406
89.0893 0.301
89.1196 0.092
89.1499 0.039
89.1801 0.612
89.2104 0.507
89.2407 0.351
89.2710 0.090
89.3013 0.038
89.3315 -0.119
89.3618 -0.015
89.3921 0.038
89.4224 -0.014
89.4527 -0.274
89.4829 0.924
89.5132 0.300
89.5435 -0.273
89.5738 0.613
89.6040 -0.011
89.6343 -0.218
89.6646 0.408
89.6949 -0.268
89.7252 0.202
89.7554 0.203
89.7857 0.881
89.8160 0.206
89.8463 0.207
89.8766 0.209
89.9068 0.210
89.9371 0.473
89.9674 0.162
89.9977 0.164
90.0279 0.218
90.0582 0.220
90.0885 0.119
90.1188 0.694
90.1491 0.071
90.1793 0.230
90.2096 -0.132
90.2399 0.131
90.2702 0.343
90.3005 0.554
90.3307 -0.485
90.3610 0.143
90.3913 0.355
90.4216 0.202
90.4518 -0.159
90.4821 0.417
90.5124 0.473
90.5427 0.268
90.5730 0.272
90.6032 0.172
90.6335 0.280
90.6638 0.857
90.6941 -0.180
90.7244 -0.280
90.7546 0.505
90.7849 0.510
90.8152 -0.111
90.8455 0.259
90.8758 0.159
90.9060 0.529
90.9363 0.013
90.9666 -0.086
90.9969 0.960
91.0271 0.393
91.0574 -0.071
91.0877 0.351
91.1180 -0.581
91.1483 -0.106
91.1785 0.681
91.2088 0.218
91.2391 0.432
91.2694 -0.031
91.2997 -0.285
91.3299 0.075
91.3602 0.071
91.3905 0.224
91.4208 0.168
91.4510 -0.096
91.4813 0.213
91.5116 -0.103
91.5419 0.362
91.5722 0.151
91.6024 0.148
91.6327 0.301
91.6630 0.298
91.6933 0.451
91.7236 0.396
91.7538 -0.023
91.7841 0.704
91.8144 0.753
91.8447 0.438
91.8749 0.332
91.9052 0.538
91.9355 0.692
91.9658 0.117
91.9961 0.428
92.0263 0.061
92.0566 0.216
92.0869 0.579
92.1172 -0.152
92.1475 0.263
92.1777 0.418
92.2080 0.365
92.2383 -0.522
92.2686 -0.054
92.2988 0.466
92.3291 0.777
92.3594 -0.161
92.3897 -0.110
92.4200 0.306
92.4502 0.202
92.4805 -0.059
92.5108 0.201
92.5411 0.253
92.5714 0.253
92.6016 1.138
92.6319 0.201
92.6622 0.513
92.6925 -0.528
92.7227 0.514
92.7530 0.514
92.7833 0.411
92.8136 -0.214
92.8439 0.829
92.8741 0.309
92.9044 0.570
92.9347 0.206
92.9650 0.259
92.9953 0.469
93.0255 0.262
93.0558 0.263
93.0861 -0.048
93.1164 0.110
93.1466 -0.149
93.1769 0.166
93.2072 -0.093
93.2375 0.326
93.2678 0.744
93.2980 -0.191
93.3283 0.176
93.3586 -0.082
93.3889 0.337
93.4192 -0.077
93.4494 0.081
93.4797 -0.280
93.5100 -0.229
93.5403 0.239
93.5706 0.394
93.6008 0.394
93.6311 0.862
93.6614 0.288
93.6917 0.028
93.7219 -0.025
93.7522 -0.285
93.7825 0.077
93.8128 0.335
93.8431 -0.083
93.8733 -0.085
93.9036 -0.087
93.9339 0.380
93.9642 -0.194
93.9945 0.325
94.0247 0.636
94.0550 0.530
94.0853 0.112
94.1156 0.059
94.1458 0.267
94.1761 0.318
94.2064 0.369
94.2367 0.003
94.2670 0.107
94.2972 0.367
94.3275 0.158
94.3578 0.158
94.3881 0.053
94.4184 0.417
94.4486 0.678
94.4789 -0.260
94.5092 0.365
94.5395 -0.051
94.5697 0.053
94.6000 0.626
94.6303 0.210
94.6606 0.523
94.6909 0.732
94.7211 0.421
94.7514 0.942
94.7817 0.422
94.8120 0.423
94.8423 0.424
94.8725 0.165
94.9028 0.844
94.9331 -0.093
94.9634 0.430
94.9936 0.223
95.0239 -0.244
95.0542 -0.138
95.0845 0.853
95.1148 -0.134
95.1450 0.076
95.1753 0.287
95.2056 0.185
95.2359 0.343
95.2662 -0.488
95.2964 0.348
95.3267 0.351
95.3570 0.249
95.3873 0.408
95.4175 0.099
95.4478 0.102
95.4781 0.261
95.5084 0.369
95.5387 -0.253
95.5689 0.740
95.5992 0.118
95.6295 -0.034
95.6598 -0.343
95.6901 0.338
95.7203 0.550
95.7506 -0.592
95.7809 -0.276
95.8112 0.400
95.8414 0.346
95.8717 0.553
95.9020 -0.021
95.9323 0.498
95.9626 -0.024
95.9928 0.391
96.0231 0.130
96.0534 0.025
96.0837 -0.028
96.1140 0.232
96.1442 -0.134
96.1745 0.334
96.2048 -0.499
96.2351 0.594
96.2653 -0.031
96.2956 0.229
96.3259 0.020
96.3562 0.229
96.3865 -0.448
96.4167 0.489
96.4470 -0.135
96.4773 0.490
96.5076 0.074
96.5379 -0.498
96.5681 0.388
96.5984 0.336
96.6287 0.129
96.6590 0.182
96.6893 0.131
96.7195 -0.024
96.7498 -0.440
96.7801 0.759
96.8104 0.136
96.8406 0.137
96.8709 0.399
96.9012 0.401
96.9315 0.351
96.9618 -0.481
96.9920 0.042
97.0223 0.356
97.0526 0.775
97.0829 0.517
97.1132 0.624
97.1434 0.522
97.1737 0.264
97.2040 0.423
97.2343 0.009
97.2645 0.585
97.2948 0.119
97.3251 1.059
97.3554 -0.031
97.3857 0.128
97.4159 -0.389
97.4462 -0.082
97.4765 0.173
97.5068 0.324
97.5371 0.787
97.5673 0.418
97.5976 0.100
97.6279 0.200
97.6582 0.038
97.6884 0.555
97.7187 0.238
97.7490 0.598
97.7793 0.124
97.8096 0.276
97.8398 0.376
97.8701 0.789
97.9004 -0.101
97.9307 0.104
97.9610 0.413
97.9912 0.357
98.0215 0.353
98.0518 0.662
98.0821 0.502
98.1123 0.395
98.1426 0.964
98.1729 0.857
98.2032 0.073
98.2335 1.007
98.2637 0.119
98.2940 0.325
98.3243 0.009
98.3546 0.475
98.3849 -0.048
98.4151 -0.050
98.4454 0.208
98.4757 0.206
98.5060 0.151
98.5362 -0.059
98.5665 -0.113
98.5968 -0.271
98.6271 0.248
98.6574 -0.066
98.6876 -0.068
98.7179 0.087
98.7482 0.242
98.7785 -0.176
98.8088 0.083
98.8390 0.394
98.8693 0.237
98.8996 0.236
98.9299 0.236
98.9601 -0.286
98.9904 0.026
99.0207 0.754
99.0510 0.650
99.0813 0.441
99.1115 -0.028
99.1418 -0.236
99.1721 0.076
99.2024 0.337
99.2327 0.389
99.2629 0.077
99.2932 0.546
99.3235 0.025
99.3538 -0.026
99.3841 0.755
99.4143 -0.025
99.4446 -0.285
99.4749 0.445
99.5052 0.238
99.5354 0.760
99.5657 -0.541
99.5960 0.189
99.6263 0.035
99.6566 -0.172
99.6868 0.038
99.7171 0.039
99.7474 -0.167
99.7777 -0.009
99.8080 0.253
99.8382 -0.110
99.8685 0.205
99.8988 -0.262
99.9291 -0.520
99.9593 0.315
99.9896 0.265
100.0199 0.214
100.0502 0.216
100.0805 0.218
100.1107 -0.301
100.1410 0.170
100.1713 0.016
100.2016 -0.242
100.2319 0.438
100.2621 0.128
100.2924 0.443
100.3227 0.185
100.3530 0.604
100.3832 0.138
100.4135 0.454
100.4438 0.197
100.4741 0.043
100.5044 -0.057
100.5346 0.154
100.5649 0.106
100.5952 0.422
100.6255 -0.044
100.6558 0.064
100.6860 0.902
100.7163 0.280
100.7466 0.336
100.7769 -0.545
100.8071 0.136
100.8374 0.037
100.8677 0.666
100.8980 0.618
100.9283 0.519
100.9585 -0.102
100.9888 0.164
101.0191 0.168
101.0494 -0.243
101.0797 -0.082
101.1099 -0.285
101.1402 0.133
101.1705 -0.230
101.2008 0.292
101.2310 -0.123
101.2613 -0.121
101.2916 0.506
101.3219 0.716
101.3522 0.198
101.3824 0.721
101.4127 0.202
101.4430 0.725
101.4733 0.571
101.5036 0.522
101.5338 0.212
101.5641 0.527
101.5944 0.634
101.6247 0.585
101.6549 -0.297
101.6852 -0.398
101.7155 0.907
101.7458 0.233
101.7761 0.132
101.8063 0.188
101.8366 0.244
101.8669 -0.274
101.8972 -0.114
101.9275 -0.162
101.9577 -0.210
101.9880 0.159
102.0183 0.527
102.0486 0.115
102.0788 0.067
102.1091 0.905
102.1394 0.389
102.1697 0.498
102.2000 -0.123
102.2302 0.299
102.2605 0.200
102.2908 -0.160
102.3211 -0.467
102.3514 0.207
102.3816 -0.211
102.4119 -0.057
102.4422 0.410
102.4725 0.252
102.5028 0.146
102.5330 0.457
102.5633 0.508
102.5936 0.350
102.6239 0.192
102.6541 0.139
102.6844 0.086
102.7147 0.866
102.7450 0.136
102.7753 -0.177
102.8055 0.187
102.8358 0.238
102.8661 -0.127
102.8964 0.341
102.9267 0.445
102.9569 0.132
102.9872 0.392
103.0175 0.236
103.0478 0.392
103.0780 0.132
103.1083 0.132
103.1386 0.028
103.1689 0.185
103.1992 0.706
103.2294 -0.126
103.2597 0.343
103.2900 0.031
103.3203 0.345
103.3506 -0.071
103.3808 0.451
103.4111 -0.173
103.4414 0.297
103.4717 0.194
103.5019 0.300
103.5322 -0.167
103.5625 -0.218
103.5928 0.878
103.6231 -0.475
103.6533 0.152
103.6836 -0.210
103.7139 -0.260
103.7442 -0.107
103.7745 0.098
103.8047 0.147
103.8350 -0.012
103.8653 0.767
103.8956 -0.434
103.9258 0.137
103.9561 0.343
103.9864 -0.180
104.0167 -0.131
104.0470 0.336
104.0772 0.178
104.1075 0.332
104.1378 0.382
104.1681 0.328
104.1984 0.118
104.2286 -0.143
104.2589 -0.145
104.2892 -0.303
104.3195 0.321
104.3497 -0.305
104.3800 0.267
104.4103 0.214
104.4406 0.004
104.4709 0.420
104.5011 0.159
104.5314 0.263
104.5617 0.366
104.5920 -0.207
104.6223 0.157
104.6525 0.313
104.6828 0.105
104.7131 -0.260
104.7434 -0.103
104.7736 -0.155
104.8039 0.157
104.8342 0.054
104.8645 0.054
104.8948 -0.258
104.9250 -0.101
104.9553 0.368
104.9856 -0.412
105.0159 0.474
105.0462 0.683
105.0764 0.216
105.1067 0.321
105.1370 0.375
105.1673 0.480
105.1975 -0.143
105.2278 -0.194
105.2581 -0.297
105.2884 0.486
105.3187 0.072
105.3489 0.282
105.3792 -0.081
105.4095 0.182
105.4398 -0.024
105.4701 0.030
105.5003 0.085
105.5306 -0.017
105.5609 0.038
105.5912 0.717
105.6215 0.356
105.6517 -0.371
105.6820 -0.159
105.7123 -0.260
105.7426 -0.055
105.7728 0.151
105.8031 -0.165
105.8334 -0.011
105.8637 0.299
105.8940 0.036
105.9242 -0.018
105.9545 0.084
105.9848 -0.075
106.0151 0.340
106.0454 0.598
106.0756 0.024
106.1059 -0.187
106.1362 0.072
106.1665 -0.190
106.1967 0.017
106.2270 0.120
106.2573 0.171
106.2876 0.221
106.3179 0.429
106.3481 -0.041
106.3784 0.583
106.4087 0.426
106.4390 -0.148
106.4693 0.008
106.4995 0.372
106.5298 -0.149
106.5601 0.267
106.5904 0.579
106.6206 -0.358
106.6509 0.214
106.6812 0.006
106.7115 0.475
106.7418 -0.358
106.7720 -0.254
106.8023 0.372
106.8326 0.424
106.8629 0.477
106.8932 0.217
106.9234 0.218
106.9537 0.271
106.9840 -0.145
107.0143 0.169
107.0445 -0.038
107.0748 0.380
107.1051 0.485
107.1354 0.174
107.1657 -0.345
107.1959 0.802
107.2262 -0.290
107.2565 0.181
107.2868 0.599
107.3171 0.081
107.3473 -0.126
107.3776 0.502
107.4079 0.712
107.4382 0.350
107.4684 -0.220
107.4987 0.355
107.5290 0.149
107.5593 -0.056
107.5896 0.051
107.6198 0.262
107.6501 0.109
107.6804 0.320
107.7107 0.532
107.7410 0.171
107.7712 -0.034
107.8015 0.542
107.8318 0.546
107.8621 -0.128
107.8923 0.553
107.9226 0.349
107.9529 0.353
107.9832 0.149
108.0135 0.622
108.0437 0.105
108.0740 -0.255
108.1043 -0.309
108.1346 0.314
108.1649 0.833
108.1951 0.467
108.2254 -0.056
108.2557 -0.005
108.2860 0.515
108.3163 0.305
108.3465 -0.009
108.3768 -0.010
108.4071 0.510
108.4374 0.822
108.4676 0.196
108.4979 0.143
108.5282 0.299
108.5585 0.611
108.5888 0.298
108.6190 -0.276
108.6493 0.401
108.6796 0.453
108.7099 0.401
108.7402 0.089
108.7704 0.297
108.8007 0.089
108.8310 0.923
108.8613 0.767
108.8915 0.247
108.9218 -0.117
108.9521 -0.273
108.9824 0.353
109.0127 0.145
109.0429 0.042
109.0732 0.356
109.1035 0.878
109.1338 0.723
109.1641 -0.057
109.1943 0.413
109.2246 0.102
109.2549 0.833
109.2852 0.158
109.3154 0.107
109.3457 -0.255
109.3760 -0.255
109.4063 0.050
109.4366 -0.218
109.4668 0.348
109.4971 0.653
109.5274 0.646
109.5577 0.171
109.5880 0.372
109.6182 0.470
109.6485 0.463
109.6788 0.561
109.7091 -0.487
109.7393 0.444
109.7696 0.177
109.7999 -0.037
109.8302 0.529
109.8605 -0.154
109.8907 -0.160
109.9210 -0.426
109.9513 0.506
109.9816 0.292
110.0119 0.391
110.0421 0.385
110.0724 -0.089
110.1027 0.010
110.1330 -0.099
110.1632 0.313
110.1935 0.308
110.2238 -0.530
110.2541 0.350
110.2844 0.033
110.3146 0.758
110.3449 0.232
110.3752 -0.189
110.4055 -0.089
110.4358 0.324
110.4660 0.320
110.4963 0.524
110.5266 -0.053
110.5569 0.152
110.5871 -0.165
110.6174 0.301
110.6477 0.870
110.6780 -0.071
110.7083 0.186
110.7385 -0.286
110.7688 -0.029
110.7991 -0.344
110.8294 0.591
110.8597 0.119
110.8899 -0.144
110.9202 0.634
110.9505 -0.462
110.9808 0.108
111.0110 0.419
111.0413 -0.157
111.0716 0.102
111.1019 -0.005
111.1322 -0.111
111.1624 0.304
111.1927 0.458
111.2230 0.040
111.2533 -0.274
111.2836 0.141
111.3138 -0.017
111.3441 0.399
111.3744 -0.176
111.4047 0.032
111.4350 0.135
111.4652 -0.231
111.4955 -0.023
111.5258 -0.076
111.5561 -0.077
111.5863 0.079
111.6166 0.078
111.6469 -0.287
111.6772 0.286
111.7075 -0.027
111.7377 0.494
111.7680 0.025
111.7983 0.390
111.8286 -0.339
111.8589 -0.183
111.8891 0.182
111.9194 0.183
111.9497 0.391
111.9800 -0.129
112.0102 0.289
112.0405 0.081
112.0708 0.551
112.1011 -0.073
112.1314 0.240
112.1616 -0.019
112.1919 -0.122
112.2222 0.088
112.2525 -0.275
112.2828 0.195
112.3130 0.145
112.3433 0.043
112.3736 0.565
112.4039 -0.058
112.4341 -0.004
112.4644 -0.054
112.4947 -0.260
112.5250 0.055
112.5553 0.370
112.5855 0.060
112.6158 0.688
112.6461 0.274
112.6764 0.485
112.7067 0.384
112.7369 0.283
112.7672 -0.131
112.7975 -0.180
112.8278 -0.020
112.8580 -0.069
112.8883 -0.066
112.9186 -0.114
112.9489 -0.006
112.9792 0.049
113.0094 -0.520
113.0397 -0.001
113.0700 -0.056
113.1003 -0.006
113.1306 0.044
113.1608 0.042
113.1911 0.301
113.2214 -0.014
113.2517 -0.015
113.2819 0.556
113.3122 -0.019
113.3425 0.553
113.3728 0.656
113.4031 -0.075
113.4333 -0.024
113.4636 0.079
113.4939 0.078
113.5242 0.025
113.5545 0.233
113.5847 0.024
113.6150 -0.289
113.6453 0.752
113.6756 0.022
113.7058 0.282
113.7361 0.490
113.7664 0.022
113.7967 0.438
113.8270 0.230
113.8572 0.126
113.8875 0.022
113.9178 -0.290
113.9481 0.596
113.9784 0.180
114.0086 0.701
114.0389 0.337
114.0692 0.025
114.0995 0.495
114.1298 -0.337
114.1600 0.601
114.1903 0.550
114.2206 0.239
114.2509 0.605
114.2811 0.398
114.3114 -0.173
114.3417 -0.276
114.3720 -0.018
114.4023 -0.073
114.4325 -0.232
114.4628 0.442
114.4931 0.127
114.5234 -0.292
114.5537 0.226
114.5839 -0.193
114.6142 0.586
114.6445 -0.093
114.6748 0.322
114.7050 0.059
114.7353 0.110
114.7656 -0.049
114.7959 0.158
114.8262 0.313
114.8564 -0.053
114.8867 0.154
114.9170 -0.108
114.9473 0.099
114.9776 0.046
115.0078 0.045
115.0381 0.200
115.0684 -0.009
115.0987 -0.374
115.1289 0.927
115.1592 0.770
115.1895 -0.272
115.2198 0.093
115.2501 0.561
115.2803 0.092
115.3106 0.353
115.3409 -0.220
115.3712 -0.168
115.4015 -0.116
115.4317 0.093
115.4620 -0.011
115.4923 0.927
115.5226 -0.010
115.5528 -0.270
115.5831 0.096
115.6134 0.201
115.6437 0.358
115.6740 0.255
115.7042 -0.109
115.7345 0.934
115.7648 0.415
115.7951 0.677
115.8254 -0.103
115.8556 0.159
115.8859 0.161
115.9162 0.215
115.9465 0.008
115.9767 0.427
116.0070 0.221
116.0373 -0.090
116.0676 0.173
116.0979 0.436
116.1281 0.230
116.1584 0.129
116.1887 -0.025
116.2190 0.186
116.2493 -0.019
116.2795 -0.173
116.3098 -0.170
116.3401 0.511
116.3704 0.670
116.4006 -0.108
116.4309 0.052
116.4612 0.524
116.4915 0.319
116.5218 -0.250
116.5520 0.275
116.5823 0.435
116.6126 0.283
116.6429 -0.286
116.6732 0.499
116.7034 0.451
116.7337 0.404
116.7640 -0.165
116.7943 0.309
116.8245 0.834
116.8548 0.422
116.8851 0.948
116.9154 0.224
116.9457 0.541
116.9759 0.078
117.0062 0.552
117.0365 0.765
117.0668 -0.063
117.0971 -0.266
117.1273 -0.170
117.1576 0.708
117.1879 0.127
117.2182 0.640
117.2485 0.372
117.2787 -0.209
117.3090 -0.008
117.3393 -0.120
117.3696 -0.491
117.3998 0.647
117.4301 0.119
117.4604 0.112
117.4907 0.574
117.5210 0.775
117.5512 0.300
117.5815 -0.072
117.6118 0.286
117.6421 0.644
117.6724 0.586
117.7026 -0.202
117.7329 -0.104
117.7632 -0.266
117.7935 -0.272
117.8237 0.034
117.8540 0.029
117.8843 -0.133
117.9146 0.226
117.9449 -0.040
117.9751 0.423
118.0054 0.157
118.0357 0.412
118.0660 -0.166
118.0963 0.246
118.1265 -0.228
118.1568 0.496
118.1871 0.700
118.2174 0.330
118.2476 -0.247
118.2779 0.738
118.3082 -0.256
118.3385 0.156
118.3688 0.256
118.3990 -0.269
118.4293 0.092
118.4596 -0.381
118.4899 0.136
118.5202 -0.076
118.5504 0.597
118.5807 -0.500
118.6110 -0.139
118.6413 -0.038
118.6715 0.219
118.7018 0.268
118.7321 0.056
118.7624 -0.103
118.7927 -0.002
118.8229 0.308
118.8532 0.253
118.8835 0.355
118.9138 0.665
118.9441 0.714
118.9743 -0.486
119.0046 0.137
119.0349 -0.126
119.0652 0.080
119.0954 0.287
119.1257 0.285
119.1560 0.335
119.1863 0.021
119.2166 -0.137
119.2468 -0.295
119.2771 -0.195
119.3074 0.687
119.3377 0.266
119.3680 -0.103
119.3982 0.102
119.4285 0.306
119.4588 -0.010
119.4891 -0.170
119.5193 0.087
119.5496 -0.177
119.5799 -0.024
119.6102 0.234
119.6405 0.074
119.6707 0.175
119.7010 0.120
119.7313 -0.299
119.7616 -0.127
119.7919 0.461
119.8221 0.373
119.8524 -0.132
119.8827 0.092
119.9130 0.004
119.9433 0.540
119.9735 0.140
120.0038 0.000
