'Id: "" Comment: "" Operator: "Lab Manager" Anode: "Cu" Scantype: "Locked Coupled" TimePerStep: "19.2" X: "9999" Y: "9999" Z: "9999" 
10.0015 0.000
10.0318 12.688
10.0620 12.981
10.0923 13.431
10.1226 10.131
10.1529 5.687
10.1832 12.910
10.2134 7.010
10.2437 9.964
10.2740 5.054
10.3043 3.583
10.3346 11.019
10.3648 13.872
10.3951 4.122
10.4254 6.039
10.4557 8.426
10.4859 -2.259
10.5162 4.818
10.5465 4.916
10.5768 1.525
10.6071 -0.511
10.6373 -0.306
10.6676 -1.038
10.6979 1.199
10.7282 0.938
10.7585 0.000
10.7887 -3.333
10.8190 -1.237
10.8493 -2.056
10.8796 -6.695
10.9098 2.937
10.9401 -2.013
10.9704 -1.910
11.0007 -0.109
11.0310 -2.526
11.0612 -0.381
11.0915 -1.256
11.1218 -1.141
11.1521 -1.754
11.1824 -0.681
11.2126 0.184
11.2429 3.185
11.2732 5.301
11.3035 12.211
11.3337 19.589
11.3640 34.938
11.3943 49.558
11.4246 79.387
11.4549 95.623
11.4851 75.194
11.5154 33.359
11.5457 15.379
11.5760 4.118
11.6063 3.432
11.6365 3.058
11.6668 1.019
11.6971 2.783
11.7274 -0.869
11.7577 -0.874
11.7879 1.621
11.8182 0.003
11.8485 -1.458
11.8788 -0.279
11.9090 0.746
11.9393 -0.052
11.9696 -0.224
11.9999 1.115
12.0302 0.059
12.0604 -1.152
12.0907 -0.175
12.1210 0.646
12.1513 0.427
12.1816 0.574
12.2118 -1.883
12.2421 -0.329
12.2724 0.080
12.3027 -0.135
12.3329 -1.130
12.3632 -0.839
12.3935 -2.265
12.4238 0.836
12.4541 0.084
12.4843 -0.303
12.5146 -0.064
12.5449 0.020
12.5752 -1.510
12.6055 -0.163
12.6357 -0.273
12.6660 0.087
12.6963 -0.386
12.7266 0.653
12.7568 0.129
12.7871 -2.008
12.8174 1.116
12.8477 0.492
12.8780 0.388
12.9082 -1.381
12.9385 0.184
12.9688 0.761
12.9991 -1.214
13.0294 1.239
13.0596 -1.099
13.0899 0.835
13.1202 2.040
13.1505 1.736
13.1807 -0.442
13.2110 -0.901
13.2413 -1.927
13.2716 0.766
13.3019 0.491
13.3321 0.113
13.3624 0.621
13.3927 0.505
13.4230 0.859
13.4533 -0.193
13.4835 -0.880
13.5138 -0.003
13.5441 0.406
13.5744 0.139
13.6046 0.862
13.6349 -0.081
13.6652 0.748
13.6955 1.109
13.7258 -0.716
13.7560 0.376
13.7863 0.270
13.8166 1.208
13.8469 0.688
13.8772 0.012
13.9074 0.379
13.9377 0.851
13.9680 -0.343
13.9983 -1.640
14.0285 0.363
14.0588 1.325
14.0891 2.860
14.1194 1.480
14.1497 -0.107
14.1799 1.796
14.2102 2.345
14.2405 1.697
14.2708 0.113
14.3011 0.822
14.3313 0.906
14.3616 1.824
14.3919 1.597
14.4222 3.142
14.4524 3.074
14.4827 2.016
14.5130 1.324
14.5433 2.299
14.5736 2.651
14.6038 3.472
14.6341 3.408
14.6644 3.814
14.6947 1.720
14.7250 6.920
14.7552 3.943
14.7855 4.873
14.8158 4.918
14.8461 6.319
14.8764 4.387
14.9066 1.778
14.9369 7.713
14.9672 5.418
14.9975 4.219
15.0277 8.229
15.0580 6.666
15.0883 6.459
15.1186 7.138
15.1489 7.401
15.1791 7.404
15.2094 6.575
15.2397 5.695
15.2700 7.680
15.3003 6.802
15.3305 8.788
15.3608 7.755
15.3911 7.556
15.4214 7.566
15.4516 7.734
15.4819 8.006
15.5122 9.112
15.5425 7.772
15.5728 8.880
15.6030 5.614
15.6333 6.620
15.6636 7.366
15.6939 7.071
15.7242 5.839
15.7544 4.921
15.7847 5.306
15.8150 6.473
15.8453 4.360
15.8755 4.487
15.9058 4.927
15.9361 5.628
15.9664 4.924
15.9967 6.044
16.0269 5.603
16.0572 4.641
16.0875 3.992
16.1178 2.824
16.1481 1.031
16.1783 3.094
16.2086 3.022
16.2389 1.804
16.2692 2.255
16.2994 1.143
16.3297 1.283
16.3600 0.746
16.3903 2.085
16.4206 1.238
16.4508 1.120
16.4811 1.577
16.5114 3.336
16.5417 2.283
16.5720 1.700
16.6022 -0.236
16.6325 0.068
16.6628 0.790
16.6931 1.721
16.7233 0.257
16.7536 0.877
16.7839 0.977
16.8142 -0.381
16.8445 -0.331
16.8747 0.709
16.9050 -0.906
16.9353 0.239
16.9656 0.032
16.9959 0.971
17.0261 0.713
17.0564 -1.054
17.0867 1.190
17.1170 0.205
17.1472 0.576
17.1775 1.989
17.2078 0.434
17.2381 -1.120
17.2684 1.806
17.2986 -0.632
17.3289 0.577
17.3592 -0.713
17.3895 -0.596
17.4198 -0.166
17.4500 -0.100
17.4803 -0.553
17.5106 0.348
17.5409 -1.354
17.5712 -0.301
17.6014 0.284
17.6317 0.974
17.6620 -0.731
17.6923 -0.820
17.7225 -0.819
17.7528 -0.197
17.7831 1.780
17.8134 -0.930
17.8437 1.204
17.8739 0.007
17.9042 2.091
17.9345 0.374
17.9648 2.616
17.9951 2.723
18.0253 0.280
18.0556 1.535
18.0859 2.843
18.1162 0.922
18.1464 1.867
18.1767 2.084
18.2070 3.187
18.2373 1.062
18.2676 2.375
18.2978 4.105
18.3281 4.431
18.3584 3.871
18.3887 3.938
18.4190 5.255
18.4492 5.271
18.4795 5.392
18.5098 4.472
18.5401 6.417
18.5703 7.374
18.6006 6.092
18.6309 9.134
18.6612 7.594
18.6915 8.918
18.7217 7.223
18.7520 11.831
18.7823 7.377
18.8126 6.101
18.8429 8.419
18.8731 8.708
18.9034 8.892
18.9337 6.318
18.9640 5.775
18.9942 7.421
19.0245 6.775
19.0548 6.912
19.0851 6.998
19.1154 4.793
19.1456 4.359
19.1759 6.114
19.2062 7.141
19.2365 4.991
19.2668 4.613
19.2970 4.236
19.3273 2.870
19.3576 3.015
19.3879 0.974
19.4181 2.788
19.4484 1.008
19.4787 3.188
19.5090 2.452
19.5393 2.499
19.5695 0.150
19.5998 2.385
19.6301 1.861
19.6604 2.275
19.6907 1.596
19.7209 0.918
19.7512 0.033
19.7815 0.346
19.8118 1.390
19.8420 -0.170
19.8723 0.302
19.9026 1.191
19.9329 1.092
19.9632 0.265
19.9934 0.063
20.0237 -0.034
20.0540 1.381
20.0843 0.661
20.1146 1.296
20.1448 -0.568
20.1751 0.954
20.2054 0.550
20.2357 1.449
20.2659 -0.099
20.2962 0.385
20.3265 0.661
20.3568 1.615
20.3871 -0.607
20.4173 -0.536
20.4476 -0.009
20.4779 1.666
20.5082 0.997
20.5385 0.485
20.5687 0.600
20.5990 -0.327
20.6293 0.154
20.6596 0.687
20.6899 0.023
20.7201 0.871
20.7504 -0.312
20.7807 0.277
20.8110 0.502
20.8412 -0.470
20.8715 0.122
20.9018 0.141
20.9321 0.161
20.9624 -0.078
20.9926 -0.056
21.0229 -0.555
21.0532 0.198
21.0835 1.264
21.1138 0.039
21.1440 1.420
21.1743 2.384
21.2046 0.953
21.2349 0.878
21.2651 1.949
21.2954 1.198
21.3257 1.073
21.3560 1.000
21.3863 0.773
21.4165 0.806
21.4468 0.528
21.4771 0.199
21.5074 -1.432
21.5377 -0.199
21.5679 0.356
21.5982 1.226
21.6285 -0.196
21.6588 0.883
21.6890 0.557
21.7193 0.544
21.7496 -0.405
21.7799 -0.312
21.8102 0.824
21.8404 -0.853
21.8707 -0.288
21.9010 0.381
21.9313 0.687
21.9616 0.524
21.9918 0.519
22.0221 0.619
22.0524 -0.583
22.0827 0.144
22.1129 -0.535
22.1432 0.974
22.1735 0.089
22.2038 0.558
22.2341 -0.951
22.2643 0.666
22.2946 0.252
22.3249 -0.004
22.3552 -0.676
22.3855 0.006
22.4157 -0.509
22.4460 0.280
22.4763 1.173
22.5066 -0.016
22.5368 -0.944
22.5671 0.160
22.5974 -0.090
22.6277 -1.484
22.6580 0.137
22.6882 -0.428
22.7185 0.049
22.7488 -0.150
22.7791 0.693
22.8094 -0.077
22.8396 -0.274
22.8699 -0.001
22.9002 -0.404
22.9305 -1.067
22.9607 0.431
22.9910 -0.257
23.0213 0.462
23.0516 -0.224
23.0819 2.580
23.1121 5.697
23.1424 13.294
23.1727 12.768
23.2030 11.512
23.2333 8.487
23.2635 4.734
23.2938 1.294
23.3241 -0.166
23.3544 0.666
23.3846 -1.105
23.4149 0.562
23.4452 0.408
23.4755 0.254
23.5058 0.517
23.5360 0.990
23.5663 1.099
23.5966 -0.301
23.6269 -0.347
23.6572 -1.121
23.6874 0.502
23.7177 0.095
23.7480 -1.145
23.7783 -0.041
23.8086 0.908
23.8388 0.815
23.8691 -0.578
23.8994 -0.616
23.9297 -0.377
23.9599 0.489
23.9902 0.574
24.0205 -0.226
24.0508 -0.660
24.0811 2.032
24.1113 0.193
24.1416 0.751
24.1719 -0.149
24.2022 2.234
24.2325 0.919
24.2627 2.157
24.2930 2.043
24.3233 1.720
24.3536 1.138
24.3838 2.223
24.4141 3.414
24.4444 1.428
24.4747 1.631
24.5050 2.563
24.5352 1.778
24.5655 2.244
24.5958 1.512
24.6261 1.979
24.6564 2.499
24.6866 2.031
24.7169 3.282
24.7472 2.763
24.7775 3.755
24.8077 1.414
24.8380 2.148
24.8683 3.768
24.8986 3.826
24.9289 3.781
24.9591 3.476
24.9894 4.265
25.0197 4.744
25.0500 5.275
25.0803 5.494
25.1105 3.891
25.1408 5.154
25.1711 4.230
25.2014 6.015
25.2316 6.030
25.2619 5.682
25.2922 6.376
25.3225 5.300
25.3528 5.579
25.3830 4.869
25.4133 5.046
25.4436 7.567
25.4739 9.516
25.5042 9.278
25.5344 4.770
25.5647 7.816
25.5950 6.643
25.6253 7.659
25.6555 8.675
25.6858 5.526
25.7161 6.596
25.7464 5.116
25.7767 6.188
25.8069 6.375
25.8372 5.782
25.8675 5.711
25.8978 4.182
25.9281 5.987
25.9583 6.179
25.9886 4.861
26.0189 3.700
26.0492 4.259
26.0794 3.881
26.1097 3.139
26.1400 3.440
26.1703 4.627
26.2006 4.877
26.2308 5.233
26.2611 11.006
26.2914 10.946
26.3217 9.221
26.3520 10.257
26.3822 5.148
26.4125 5.039
26.4428 4.671
26.4731 4.096
26.5034 4.563
26.5336 4.458
26.5639 1.125
26.5942 3.990
26.6245 3.940
26.6547 4.516
26.6850 4.207
26.7153 5.930
26.7456 5.153
26.7759 3.337
26.8061 6.468
26.8364 4.913
26.8667 7.786
26.8970 7.744
26.9273 6.712
26.9575 6.827
26.9878 7.047
27.0181 6.696
27.0484 6.813
27.0786 5.525
27.1089 8.509
27.1392 6.025
27.1695 7.865
27.1998 6.841
27.2300 5.922
27.2603 6.879
27.2906 7.368
27.3209 6.920
27.3512 8.401
27.3814 7.121
27.4117 6.989
27.4420 6.492
27.4723 6.309
27.5025 6.856
27.5328 8.914
27.5631 6.598
27.5934 8.450
27.6237 9.625
27.6539 8.666
27.6842 9.166
27.7145 7.427
27.7448 9.074
27.7751 5.879
27.8053 11.694
27.8356 8.188
27.8659 7.755
27.8962 10.397
27.9264 8.872
27.9567 8.807
27.9870 12.700
28.0173 12.011
28.0476 10.803
28.0778 11.365
28.1081 10.679
28.1384 8.535
28.1687 8.684
28.1990 10.813
28.2292 10.755
28.2595 10.854
28.2898 10.590
28.3201 8.867
28.3503 8.761
28.3806 10.322
28.4109 8.394
28.4412 9.644
28.4715 8.238
28.5017 8.657
28.5320 7.461
28.5623 7.621
28.5926 9.657
28.6229 8.255
28.6531 7.272
28.6834 6.549
28.7137 7.026
28.7440 5.732
28.7742 5.377
28.8045 3.512
28.8348 4.981
28.8651 4.316
28.8954 4.849
28.9256 3.404
28.9559 4.929
28.9862 4.475
29.0165 3.137
29.0468 1.852
29.0770 2.234
29.1073 1.107
29.1376 1.595
29.1679 2.344
29.1981 1.584
29.2284 1.710
29.2587 1.160
29.2890 0.767
29.3193 2.301
29.3495 2.066
29.3798 0.426
29.4101 0.400
29.4404 1.522
29.4707 0.873
29.5009 -0.347
29.5312 0.985
29.5615 0.600
29.5918 0.423
29.6221 0.456
29.6523 1.219
29.6826 0.211
29.7129 0.247
29.7432 -0.603
29.7734 0.111
29.8037 0.306
29.8340 -0.541
29.8643 -0.496
29.8946 -0.502
29.9248 0.066
29.9551 0.114
29.9854 -0.045
30.0157 -0.256
30.0460 0.836
30.0762 -0.779
30.1065 -0.206
30.1368 -0.257
30.1671 -0.516
30.1973 0.226
30.2276 0.604
30.2579 0.046
30.2882 0.425
30.3185 0.493
30.3487 0.093
30.3790 -0.201
30.4093 0.025
30.4396 0.201
30.4699 0.117
30.5001 -0.122
30.5304 -0.205
30.5607 0.547
30.5910 -0.211
30.6212 -0.499
30.6515 -0.161
30.6818 -0.500
30.7121 0.085
30.7424 0.254
30.7726 0.164
30.8029 0.595
30.8332 0.350
30.8635 1.147
30.8938 0.019
30.9240 -0.068
30.9543 -0.101
30.9846 0.544
31.0149 1.189
31.0451 1.158
31.0754 -0.122
31.1057 0.370
31.1360 -0.336
31.1663 0.001
31.1965 -0.546
31.2268 0.039
31.2571 0.365
31.2874 0.900
31.3177 0.291
31.3479 -0.423
31.3782 -0.145
31.4085 -0.076
31.4388 0.516
31.4690 -0.194
31.4993 -0.018
31.5296 0.107
31.5599 -0.131
31.5902 0.673
31.6204 0.853
31.6507 1.502
31.6810 0.798
31.7113 1.189
31.7416 1.163
31.7718 1.243
31.8021 0.126
31.8324 0.572
31.8627 -0.179
31.8929 0.529
31.9232 -0.220
31.9535 -0.292
31.9838 0.107
32.0141 0.193
32.0443 0.697
32.0746 0.369
32.1049 -0.428
32.1352 -0.442
32.1655 -0.379
32.1957 0.831
32.2260 -0.355
32.2563 0.700
32.2866 -0.067
32.3169 0.417
32.3471 -0.400
32.3774 -0.436
32.4077 0.285
32.4380 0.121
32.4682 0.844
32.4985 0.526
32.5288 1.094
32.5591 0.881
32.5894 1.191
32.6196 1.084
32.6499 2.489
32.6802 2.228
32.7105 2.488
32.7408 2.698
32.7710 3.793
32.8013 2.233
32.8316 2.601
32.8619 1.616
32.8921 1.361
32.9224 1.784
32.9527 0.332
32.9830 0.444
33.0133 0.609
33.0435 0.149
33.0738 0.837
33.1041 0.483
33.1344 -0.286
33.1647 0.299
33.1949 0.990
33.2252 -1.079
33.2555 1.332
33.2858 0.619
33.3160 0.063
33.3463 0.341
33.3766 -0.682
33.4069 0.640
33.4372 -0.121
33.4674 0.004
33.4977 -0.130
33.5280 -0.420
33.5583 -0.150
33.5886 -0.139
33.6188 -0.336
33.6491 -0.011
33.6794 0.627
33.7097 0.693
33.7399 -0.074
33.7702 0.463
33.8005 -0.615
33.8308 0.080
33.8611 0.566
33.8913 -0.144
33.9216 -0.176
33.9519 -0.624
33.9822 0.188
34.0125 1.002
34.0427 0.462
34.0730 1.068
34.1033 1.259
34.1336 1.451
34.1638 0.497
34.1941 0.691
34.2244 -0.053
34.2547 0.247
34.2850 0.547
34.3152 -0.455
34.3455 0.576
34.3758 0.358
34.4061 1.078
34.4364 -0.076
34.4666 0.073
34.4969 0.014
34.5272 -0.200
34.5575 -0.101
34.5877 -0.365
34.6180 -0.421
34.6483 -0.423
34.6786 -0.078
34.7089 -0.097
34.7391 0.197
34.7694 -0.133
34.7997 0.528
34.8300 2.648
34.8603 1.800
34.8905 0.953
34.9208 1.877
34.9511 0.875
34.9814 -0.334
35.0116 1.010
35.0419 -0.562
35.0722 0.210
35.1025 0.358
35.1328 -0.170
35.1630 -0.228
35.1933 -0.598
35.2236 0.274
35.2539 -0.780
35.2842 -0.229
35.3144 0.428
35.3447 0.044
35.3750 0.337
35.4053 -0.097
35.4356 -0.531
35.4658 0.546
35.4961 0.375
35.5264 0.777
35.5567 0.034
35.5869 0.281
35.6172 0.374
35.6475 0.831
35.6778 0.456
35.7081 0.551
35.7383 1.219
35.7686 1.003
35.7989 1.152
35.8292 1.094
35.8595 1.505
35.8897 0.876
35.9200 0.403
35.9503 1.494
35.9806 1.388
36.0108 1.387
36.0411 0.501
36.0714 0.606
36.1017 1.076
36.1320 0.453
36.1622 0.977
36.1925 0.616
36.2228 0.725
36.2531 1.304
36.2834 0.217
36.3136 0.797
36.3439 0.857
36.3742 -0.020
36.4045 0.303
36.4347 -0.520
36.4650 -0.259
36.4953 0.108
36.5256 0.475
36.5559 -0.250
36.5861 0.796
36.6164 0.801
36.6467 0.078
36.6770 0.033
36.7073 0.822
36.7375 0.101
36.7678 0.423
36.7981 0.121
36.8284 0.497
36.8586 0.300
36.8889 -0.780
36.9192 -0.260
36.9495 -0.313
36.9798 0.001
37.0100 -0.362
37.0403 0.317
37.0706 -0.773
37.1009 -0.144
37.1312 0.070
37.1614 0.336
37.1917 0.759
37.2220 0.038
37.2523 -0.110
37.2825 0.837
37.3128 1.107
37.3431 1.639
37.3734 0.713
37.4037 1.246
37.4339 1.364
37.4642 1.274
37.4945 0.560
37.5248 0.368
37.5551 -0.032
37.5853 0.142
37.6156 -0.569
37.6459 1.169
37.6762 1.241
37.7064 0.116
37.7367 0.086
37.7670 0.421
37.7973 0.809
37.8276 1.146
37.8578 -0.495
37.8881 0.260
37.9184 0.808
37.9487 0.158
37.9790 0.187
38.0092 0.216
38.0395 0.298
38.0698 0.330
38.1001 -0.055
38.1304 -0.127
38.1606 0.532
38.1909 -0.007
38.2212 0.862
38.2515 0.533
38.2817 0.622
38.3120 0.296
38.3423 0.803
38.3726 0.061
38.4029 0.154
38.4331 1.393
38.4634 -0.336
38.4937 0.332
38.5240 0.688
38.5543 -0.101
38.5845 -0.368
38.6148 -0.096
38.6451 0.541
38.6754 0.398
38.7056 -0.109
38.7359 0.219
38.7662 0.183
38.7965 -0.113
38.8268 -0.096
38.8570 1.120
38.8873 0.306
38.9176 0.274
38.9479 -0.903
38.9782 -0.048
39.0084 0.131
39.0387 0.102
39.0690 -0.186
39.0993 0.047
39.1295 0.177
39.1598 -0.317
39.1901 -0.342
39.2204 0.279
39.2507 0.380
39.2809 0.169
39.3112 0.115
39.3415 -0.198
39.3718 -0.094
39.4021 0.792
39.4323 -0.404
39.4626 0.327
39.4929 0.851
39.5232 -0.186
39.5534 -0.598
39.5837 0.216
39.6140 0.354
39.6443 0.180
39.6746 -0.305
39.7048 -0.165
39.7351 -0.232
39.7654 -0.194
39.7957 0.417
39.8260 -0.324
39.8562 -0.076
39.8865 -0.034
39.9168 0.320
39.9471 0.676
39.9773 -0.218
40.0076 -0.174
40.0379 0.028
40.0682 0.022
40.0985 -0.087
40.1287 -0.091
40.1590 0.010
40.1893 0.476
40.2196 0.162
40.2499 -0.412
40.2801 0.109
40.3104 -0.150
40.3407 -0.357
40.3710 -0.095
40.4012 0.377
40.4315 0.537
40.4618 0.073
40.4921 0.756
40.5224 0.085
40.5526 1.550
40.5829 1.819
40.6132 0.942
40.6435 0.639
40.6738 0.285
40.7040 1.390
40.7343 0.413
40.7646 0.426
40.7949 0.127
40.8251 0.246
40.8554 -0.364
40.8857 -0.220
40.9160 0.185
40.9463 -0.138
40.9765 0.113
41.0068 -0.365
41.0371 0.877
41.0674 -0.641
41.0977 0.811
41.1279 0.233
41.1582 0.593
41.1885 0.849
41.2188 0.221
41.2491 1.052
41.2793 -0.095
41.3096 0.842
41.3399 0.217
41.3702 -0.303
41.4004 -0.249
41.4307 0.535
41.4610 0.487
41.4913 0.127
41.5216 0.236
41.5518 0.399
41.5821 -0.272
41.6124 0.570
41.6427 0.578
41.6730 0.588
41.7032 0.181
41.7335 0.245
41.7638 0.100
41.7941 0.582
41.8243 -0.186
41.8546 -0.015
41.8849 0.990
41.9152 0.746
41.9455 -0.070
41.9757 -0.573
42.0060 0.695
42.0363 0.663
42.0666 0.267
42.0969 0.444
42.1271 0.623
42.1574 0.698
42.1877 0.878
42.2180 0.329
42.2482 0.823
42.2785 0.173
42.3088 -0.321
42.3391 -0.589
42.3694 0.655
42.3996 0.441
42.4299 0.749
42.4602 0.121
42.4905 0.482
42.5208 -0.041
42.5510 -0.042
42.5813 0.687
42.6116 -0.094
42.6419 0.168
42.6721 0.274
42.7024 0.225
42.7327 0.125
42.7630 -0.339
42.7933 0.291
42.8235 0.193
42.8538 0.044
42.8841 -0.052
42.9144 -0.147
42.9447 0.019
42.9749 0.081
43.0052 0.197
43.0355 -0.468
43.0658 -0.091
43.0960 -0.285
43.1263 0.875
43.1566 0.891
43.1869 -0.395
43.2172 0.039
43.2474 0.734
43.2777 0.233
43.3080 0.200
43.3383 -0.144
43.3686 0.659
43.3988 0.264
43.4291 -0.077
43.4594 0.468
43.4897 0.284
43.5199 0.935
43.5502 0.545
43.5805 -0.209
43.6108 -0.285
43.6411 0.001
43.6713 0.860
43.7016 0.263
43.7319 0.134
43.7622 0.840
43.7925 -0.276
43.8227 1.057
43.8530 0.359
43.8833 -0.234
43.9136 0.112
43.9439 0.198
43.9741 0.337
44.0044 -0.201
44.0347 -0.164
44.0650 -0.075
44.0952 0.224
44.1255 0.211
44.1558 0.771
44.1861 0.187
44.2164 0.332
44.2466 -0.042
44.2769 0.678
44.3072 0.097
44.3375 -0.223
44.3678 0.709
44.3980 0.443
44.4283 0.125
44.4586 1.007
44.4889 0.639
44.5191 0.845
44.5494 0.219
44.5797 -0.042
44.6100 0.844
44.6403 0.793
44.6705 0.326
44.7008 0.537
44.7311 -0.189
44.7614 0.545
44.7917 0.811
44.8219 -0.433
44.8522 0.512
44.8825 0.571
44.9128 -0.409
44.9430 0.329
44.9733 -0.337
45.0036 -0.308
45.0339 0.711
45.0642 0.638
45.0944 0.461
45.1247 0.493
45.1550 0.422
45.1853 0.456
45.2156 0.179
45.2458 -0.098
45.2761 0.043
45.3064 0.393
45.3367 0.379
45.3669 0.314
45.3972 -0.375
45.4275 -0.126
45.4578 -0.032
45.4881 -0.094
45.5183 -0.468
45.5486 0.202
45.5789 -0.066
45.6092 0.136
45.6395 0.547
45.6697 0.699
45.7000 -0.398
45.7303 0.120
45.7606 0.534
45.7908 -0.248
45.8211 -0.249
45.8514 0.168
45.8817 -0.091
45.9120 0.120
45.9422 0.435
45.9725 0.231
46.0028 -0.025
46.0331 -0.280
46.0634 0.091
46.0936 0.098
46.1239 -0.675
46.1542 0.636
46.1845 0.125
46.2147 -0.333
46.2450 -0.193
46.2753 0.260
46.3056 -0.067
46.3359 0.024
46.3661 -0.093
46.3964 0.000
46.4267 -0.220
46.4570 0.030
46.4873 -0.187
46.5175 -0.144
46.5478 0.265
46.5781 -0.314
46.6084 0.096
46.6386 0.195
46.6689 -0.330
46.6992 -0.073
46.7295 0.029
46.7598 -0.598
46.7900 0.027
46.8203 0.444
46.8506 -0.544
46.8809 0.396
46.9112 -0.331
46.9414 0.038
46.9717 0.095
47.0020 0.100
47.0323 -0.362
47.0626 0.322
47.0928 0.174
47.1231 -0.390
47.1534 -0.159
47.1837 0.855
47.2139 0.410
47.2442 0.227
47.2745 -0.059
47.3048 -0.137
47.3351 0.672
47.3653 0.024
47.3956 0.261
47.4259 0.708
47.4562 0.792
47.4865 1.553
47.5167 2.367
47.5470 1.411
47.5773 1.601
47.6076 1.376
47.6378 1.360
47.6681 1.085
47.6984 0.341
47.7287 -0.297
47.7590 -0.049
47.7892 0.460
47.8195 0.292
47.8498 -0.134
47.8801 0.534
47.9104 0.786
47.9406 0.205
47.9709 0.303
48.0012 0.505
48.0315 0.187
48.0617 -0.650
48.0920 -0.157
48.1223 -0.132
48.1526 0.467
48.1829 -0.079
48.2131 -0.468
48.2434 0.118
48.2737 -0.232
48.3040 0.200
48.3343 0.216
48.3645 0.597
48.3948 -0.062
48.4251 -0.304
48.4554 0.601
48.4856 -0.212
48.5159 -1.077
48.5462 0.403
48.5765 -0.251
48.6068 0.397
48.6370 0.266
48.6673 -0.022
48.6976 0.942
48.7279 0.396
48.7582 0.736
48.7884 0.921
48.8187 1.367
48.8490 2.387
48.8793 1.584
48.9095 1.356
48.9398 1.545
48.9701 1.110
49.0004 1.300
49.0307 0.502
49.0609 0.434
49.0912 -0.050
49.1215 1.186
49.1518 -0.129
49.1821 0.900
49.2123 -0.154
49.2426 0.096
49.2729 0.502
49.3032 0.024
49.3334 0.693
49.3637 0.789
49.3940 0.626
49.4243 0.152
49.4546 0.772
49.4848 -0.274
49.5151 1.129
49.5454 -0.540
49.5757 -0.230
49.6060 -0.439
49.6362 0.227
49.6665 -0.409
49.6968 -0.107
49.7271 0.561
49.7574 0.241
49.7876 0.389
49.8179 -0.555
49.8482 0.377
49.8785 0.633
49.9087 -0.153
49.9390 0.469
49.9693 -0.679
49.9996 0.413
50.0299 -0.161
50.0601 -0.161
50.0904 -0.003
50.1207 -0.366
50.1510 0.418
50.1813 -0.100
50.2115 0.009
50.2418 -0.142
50.2721 -0.084
50.3024 -0.442
50.3326 -0.613
50.3629 0.676
50.3932 0.455
50.4235 0.339
50.4538 0.484
50.4840 -0.255
50.5143 0.256
50.5446 -0.221
50.5749 0.553
50.6052 0.650
50.6354 0.800
50.6657 0.535
50.6960 -0.251
50.7263 0.110
50.7565 0.524
50.7868 0.418
50.8171 -0.572
50.8474 -0.374
50.8777 0.763
50.9079 0.026
50.9382 0.435
50.9685 0.221
50.9988 1.361
51.0291 -0.206
51.0593 -0.158
51.0896 0.620
51.1199 0.201
51.1502 1.190
51.1804 0.460
51.2107 0.356
51.2410 0.045
51.2713 -0.006
51.3016 -0.055
51.3318 0.366
51.3621 0.787
51.3924 0.219
51.4227 0.121
51.4530 0.701
51.4832 0.240
51.5135 0.718
51.5438 -0.002
51.5741 -0.304
51.6043 -0.189
51.6346 0.657
51.6649 0.826
51.6952 -0.462
51.7255 1.167
51.7557 -0.068
51.7860 0.105
51.8163 0.747
51.8466 0.140
51.8769 0.940
51.9071 -0.395
51.9374 -0.374
51.9677 0.689
51.9980 0.086
52.0282 0.213
52.0585 0.966
52.0888 -0.051
52.1191 0.547
52.1494 1.042
52.1796 -0.024
52.2099 -0.413
52.2402 -0.124
52.2705 0.218
52.3008 0.405
52.3310 0.020
52.3613 -0.417
52.3916 -0.110
52.4219 -0.064
52.4521 0.244
52.4824 0.032
52.5127 0.811
52.5430 -0.337
52.5733 0.391
52.6035 0.235
52.6338 -0.442
52.6641 -0.186
52.6944 0.591
52.7247 0.119
52.7549 0.325
52.7852 -0.093
52.8155 0.323
52.8458 -0.041
52.8761 0.793
52.9063 -0.299
52.9366 0.121
52.9669 0.645
52.9972 0.545
53.0274 -0.439
53.0577 0.296
53.0880 -0.426
53.1183 0.415
53.1486 -0.514
53.1788 -0.244
53.2091 -0.598
53.2394 0.289
53.2697 -0.334
53.3000 -0.383
53.3302 0.715
53.3605 -0.322
53.3908 -0.264
53.4211 0.263
53.4513 -0.407
53.4816 0.018
53.5119 -0.494
53.5422 0.025
53.5725 0.233
53.6027 -0.131
53.6330 0.026
53.6633 0.757
53.6936 -0.125
53.7239 0.191
53.7541 -0.117
53.7844 0.513
53.8147 -0.522
53.8450 0.370
53.8752 -0.299
53.9055 -0.291
53.9358 0.136
53.9661 -0.323
53.9964 -0.624
54.0266 0.368
54.0569 -0.410
54.0872 -0.249
54.1175 0.433
54.1478 0.387
54.1780 0.290
54.2083 0.454
54.2386 0.410
54.2689 -0.153
54.2991 -0.403
54.3294 -0.044
54.3597 -0.361
54.3900 0.469
54.4203 0.362
54.4505 0.464
54.4808 -0.579
54.5111 0.567
54.5414 0.620
54.5717 -0.004
54.6019 0.103
54.6322 0.106
54.6625 -0.047
54.6928 -0.198
54.7230 0.172
54.7533 -0.603
54.7836 0.446
54.8139 -0.431
54.8442 0.672
54.8744 0.630
54.9047 -0.245
54.9350 -0.494
54.9653 0.281
54.9956 0.172
55.0258 -0.301
55.0561 0.633
55.0864 0.839
55.1167 0.472
55.1469 0.263
55.1772 0.523
55.2075 0.992
55.2378 -0.360
55.2681 0.528
55.2983 1.573
55.3286 0.431
55.3589 0.331
55.3892 0.650
55.4195 0.604
55.4497 0.872
55.4800 0.307
55.5103 0.108
55.5406 0.639
55.5709 0.493
55.6011 0.661
55.6314 0.361
55.6617 0.687
55.6920 0.389
55.7222 -0.065
55.7525 0.576
55.7828 0.853
55.8131 -0.015
55.8434 0.368
55.8736 0.491
55.9039 1.344
55.9342 -0.197
55.9645 0.345
55.9948 0.055
56.0250 0.443
56.0553 -0.106
56.0856 1.274
56.1159 -0.159
56.1461 -0.445
56.1764 0.468
56.2067 0.184
56.2370 -0.307
56.2673 -0.017
56.2975 -0.038
56.3278 -0.058
56.3581 -0.286
56.3884 -0.357
56.4187 -0.292
56.4489 -0.175
56.4792 -0.838
56.5095 0.427
56.5398 0.287
56.5700 0.355
56.6003 0.008
56.6306 0.287
56.6609 0.306
56.6912 0.274
56.7214 -0.538
56.7517 0.213
56.7820 -0.494
56.8123 -0.173
56.8426 -0.267
56.8728 -0.257
56.9031 -0.141
56.9334 -0.338
56.9637 -0.222
56.9939 0.416
57.0242 0.533
57.0545 -0.390
57.0848 -0.063
57.1151 0.370
57.1453 0.386
57.1756 0.091
57.2059 -0.047
57.2362 0.337
57.2665 0.253
57.2967 0.274
57.3270 -0.017
57.3573 0.162
57.3876 -0.179
57.4178 0.366
57.4481 -0.026
57.4784 -0.312
57.5087 -0.014
57.5390 0.494
57.5692 0.117
57.5995 -0.416
57.6298 -0.079
57.6601 -0.054
57.6904 0.909
57.7206 -0.002
57.7509 0.285
57.7812 -0.103
57.8115 0.134
57.8417 -0.201
57.8720 -0.066
57.9023 -0.243
57.9326 -0.211
57.9629 -0.073
57.9931 0.534
58.0234 -0.369
58.0537 0.552
58.0840 -0.557
58.1143 -0.364
58.1445 0.605
58.1748 0.169
58.2051 0.723
58.2354 0.653
58.2656 0.167
58.2959 0.151
58.3262 0.552
58.3565 0.225
58.3868 0.680
58.4170 0.563
58.4473 -0.230
58.4776 0.019
58.5079 0.633
58.5382 0.207
58.5684 0.667
58.5987 0.451
58.6290 0.756
58.6593 0.021
58.6896 0.016
58.7198 -0.093
58.7501 0.737
58.7804 0.994
58.8107 0.002
58.8409 -0.311
58.8712 -0.468
58.9015 0.356
58.9318 1.129
58.9621 0.861
58.9923 2.364
59.0226 1.577
59.0529 0.270
59.0832 1.255
59.1135 0.314
59.1437 1.353
59.1740 0.934
59.2043 0.464
59.2346 0.048
59.2648 0.100
59.2951 0.050
59.3254 -0.365
59.3557 -0.213
59.3860 0.512
59.4162 0.093
59.4465 -0.482
59.4768 0.193
59.5071 0.714
59.5374 0.402
59.5676 0.090
59.5979 0.040
59.6282 0.199
59.6585 -0.213
59.6887 0.364
59.7190 0.057
59.7493 0.376
59.7796 0.331
59.8099 -0.338
59.8401 0.139
59.8704 -0.112
59.9007 -0.153
59.9310 0.431
59.9613 0.547
59.9915 0.352
60.0218 -0.676
60.0521 -0.312
60.0824 -0.260
60.1126 0.417
60.1429 -0.258
60.1732 0.161
60.2035 0.217
60.2338 0.325
60.2640 -0.556
60.2943 -0.081
60.3246 -0.126
60.3549 0.194
60.3852 0.046
60.4154 -0.258
60.4457 -0.091
60.4760 0.388
60.5063 0.400
60.5365 -0.004
60.5668 0.166
60.5971 0.805
60.6274 0.716
60.6577 -0.102
60.6879 -0.345
60.7182 -0.026
60.7485 0.034
60.7788 -0.166
60.8091 0.416
60.8393 -1.084
60.8696 -0.188
60.8999 -0.176
60.9302 -0.163
60.9604 0.423
60.9907 0.125
61.0210 -0.277
61.0513 0.000
61.0816 0.017
61.1118 -0.174
61.1421 -0.364
61.1724 0.210
61.2027 0.315
61.2330 0.889
61.2632 -0.202
61.2935 0.427
61.3238 -0.350
61.3541 -0.189
61.3844 -0.078
61.4146 -0.488
61.4449 0.561
61.4752 0.413
61.5055 0.319
61.5357 0.016
61.5660 0.027
61.5963 -0.325
61.6266 -0.178
61.6569 0.855
61.6871 -0.142
61.7174 0.007
61.7477 -0.363
61.7780 0.152
61.8083 1.086
61.8385 -0.064
61.8688 0.663
61.8991 -0.068
61.9294 -0.329
61.9596 -0.304
61.9899 0.034
62.0202 0.113
62.0505 0.140
62.0808 0.012
62.1110 -0.063
62.1413 0.540
62.1716 -0.471
62.2019 -0.179
62.2322 0.218
62.2624 -0.217
62.2927 -0.287
62.3230 0.477
62.3533 -0.008
62.3835 0.237
62.4138 -0.090
62.4441 0.053
62.4744 0.248
62.5047 -0.076
62.5349 -0.192
62.5652 -0.098
62.5955 -0.264
62.6258 0.092
62.6561 0.501
62.6863 0.286
62.7166 -0.085
62.7469 0.326
62.7772 -0.303
62.8074 0.579
62.8377 0.107
62.8680 -0.364
62.8983 -0.076
62.9286 0.421
62.9588 -0.124
62.9891 0.218
63.0194 0.301
63.0497 0.697
63.0800 0.208
63.1102 -0.384
63.1405 0.275
63.1708 0.049
63.2011 0.657
63.2313 0.017
63.2616 0.418
63.2919 -0.898
63.3222 0.756
63.3525 0.639
63.3827 0.575
63.4130 -0.529
63.4433 -0.383
63.4736 0.443
63.5039 0.488
63.5341 0.430
63.5644 -0.409
63.5947 0.212
63.6250 -0.156
63.6552 0.101
63.6855 0.152
63.7158 0.411
63.7461 0.150
63.7764 -0.370
63.8066 -0.316
63.8369 -0.001
63.8672 0.523
63.8975 0.214
63.9278 0.219
63.9580 -0.192
63.9883 0.491
64.0186 0.134
64.0489 0.455
64.0791 -0.005
64.1094 0.422
64.1397 -0.401
64.1700 -0.025
64.2003 0.092
64.2305 -0.624
64.2608 -0.038
64.2911 0.445
64.3214 -0.061
64.3517 -0.045
64.3819 0.233
64.4122 0.198
64.4425 0.685
64.4728 -0.129
64.5031 0.464
64.5333 -0.140
64.5636 -0.222
64.5939 0.009
64.6242 -0.020
64.6544 0.526
64.6847 -0.335
64.7150 -0.257
64.7453 0.604
64.7756 0.475
64.8058 0.191
64.8361 0.064
64.8664 0.094
64.8967 -0.031
64.9270 0.157
64.9572 -0.331
64.9875 -0.297
65.0178 -0.263
65.0481 0.345
65.0783 0.121
65.1086 0.054
65.1389 -0.325
65.1692 -0.251
65.1995 0.240
65.2297 0.159
65.2600 -0.442
65.2903 -0.108
65.3206 0.226
65.3509 -0.272
65.3811 0.324
65.4114 0.140
65.4417 0.113
65.4720 -0.017
65.5022 0.791
65.5325 -0.276
65.5628 -0.299
65.5931 0.013
65.6234 -0.090
65.6536 0.537
65.6839 -0.346
65.7142 -0.082
65.7445 -0.026
65.7748 -0.229
65.8050 0.246
65.8353 -0.841
65.8656 -0.104
65.8959 0.477
65.9261 0.330
65.9564 0.028
65.9867 0.091
66.0170 -0.053
66.0473 0.168
66.0775 0.129
66.1078 -0.117
66.1381 0.211
66.1684 0.071
66.1987 -0.121
66.2289 -0.780
66.2592 0.167
66.2895 0.073
66.3198 -0.280
66.3500 -0.072
66.3803 0.710
66.4106 -0.018
66.4409 -0.015
66.4712 -0.168
66.5014 0.565
66.5317 -0.055
66.5620 -0.101
66.5923 -0.042
66.6226 -0.399
66.6528 0.130
66.6831 0.556
66.7134 -0.423
66.7437 0.108
66.7739 -0.036
66.8042 -0.232
66.8345 -0.271
66.8648 -0.049
66.8951 0.070
66.9253 0.241
66.9556 0.101
66.9859 0.118
67.0162 -0.021
67.0465 0.415
67.0767 0.278
67.1070 0.194
67.1373 0.267
67.1676 0.289
67.1978 -0.209
67.2281 0.075
67.2584 0.256
67.2887 0.489
67.3190 -0.214
67.3492 -0.239
67.3795 0.210
67.4098 0.399
67.4401 0.276
67.4704 0.102
67.5006 0.189
67.5309 0.381
67.5612 -0.207
67.5915 0.404
67.6218 0.859
67.6520 0.221
67.6823 0.105
67.7126 0.771
67.7429 0.188
67.7731 0.283
67.8034 0.118
67.8337 -0.046
67.8640 0.051
67.8943 0.202
67.9245 0.301
67.9548 0.296
67.9851 0.761
68.0154 -0.179
68.0457 0.028
68.0759 0.496
68.1062 -0.390
68.1365 -0.285
68.1668 0.432
68.1970 0.369
68.2273 0.931
68.2576 -0.172
68.2879 -0.389
68.3182 0.225
68.3484 -0.046
68.3787 0.414
68.4090 0.354
68.4393 -0.174
68.4696 -0.337
68.4998 0.224
68.5301 0.058
68.5604 0.360
68.5907 0.091
68.6209 0.083
68.6512 0.024
68.6815 -0.243
68.7118 0.064
68.7421 0.581
68.7723 0.264
68.8026 -0.311
68.8329 -0.001
68.8632 -0.211
68.8935 0.206
68.9237 0.467
68.9540 -0.157
68.9843 -0.468
69.0146 0.196
69.0448 0.027
69.0751 0.223
69.1054 0.108
69.1357 -0.006
69.1660 0.349
69.1962 -0.180
69.2265 0.229
69.2568 0.274
69.2871 -0.044
69.3174 -0.102
69.3476 -0.054
69.3779 -0.318
69.4082 0.565
69.4385 -0.270
69.4687 0.406
69.4990 -0.167
69.5293 0.198
69.5596 -0.009
69.5899 0.723
69.6201 -0.107
69.6504 -0.363
69.6807 0.150
69.7110 -0.169
69.7413 0.451
69.7715 0.446
69.8018 -0.183
69.8321 -0.081
69.8624 -0.344
69.8926 0.176
69.9229 -0.033
69.9532 -0.137
69.9835 -0.188
70.0138 -0.290
70.0440 -0.035
70.0743 0.064
70.1046 -0.148
70.1349 0.578
70.1652 0.523
70.1954 -0.260
70.2257 -0.208
70.2560 0.157
70.2863 0.366
70.3166 -0.153
70.3468 0.422
70.3771 -0.147
70.4074 -0.038
70.4377 -0.085
70.4679 0.494
70.4982 -0.124
70.5285 0.248
70.5588 0.204
70.5891 0.370
70.6193 -0.036
70.6496 0.287
70.6799 0.195
70.7102 0.624
70.7405 0.898
70.7707 0.756
70.8010 0.095
70.8313 -0.306
70.8616 0.180
70.8918 0.562
70.9221 0.216
70.9524 -0.441
70.9827 -0.175
71.0130 0.249
71.0432 -0.056
71.0735 0.057
71.1038 -0.402
71.1341 0.077
71.1644 -0.381
71.1946 0.412
71.2249 -0.044
71.2552 0.595
71.2855 -0.224
71.3157 -0.260
71.3460 -0.165
71.3763 0.192
71.4066 -0.024
71.4369 -0.030
71.4671 -0.087
71.4974 -0.196
71.5277 -0.148
71.5580 0.318
71.5883 0.004
71.6185 0.159
71.6488 -0.102
71.6791 0.315
71.7094 -0.465
71.7396 -0.150
71.7699 0.217
71.8002 0.377
71.8305 0.278
71.8608 0.075
71.8910 0.238
71.9213 0.245
71.9516 0.045
71.9819 -0.415
72.0122 -0.009
72.0424 0.139
72.0727 0.287
72.1030 0.019
72.1333 0.065
72.1635 0.163
72.1938 0.314
72.2241 -0.054
72.2544 -0.266
72.2847 -0.065
72.3149 0.188
72.3452 0.026
72.3755 -0.240
72.4058 -0.088
72.4361 0.065
72.4663 -0.459
72.4966 0.321
72.5269 0.372
72.5572 0.111
72.5874 0.320
72.6177 0.217
72.6480 -0.145
72.6783 -0.402
72.7086 0.539
72.7388 -0.185
72.7691 0.185
72.7994 0.140
72.8297 0.303
72.8600 0.520
72.8902 0.112
72.9205 -0.087
72.9508 0.080
72.9811 0.665
73.0113 -0.260
73.0416 -0.195
73.0719 -0.285
73.1022 0.228
73.1325 0.482
73.1627 0.267
73.1930 0.054
73.2233 -0.002
73.2536 0.046
73.2839 -0.008
73.3141 -0.062
73.3444 -0.271
73.3747 0.197
73.4050 -0.114
73.4353 0.148
73.4655 0.671
73.4958 0.466
73.5261 0.158
73.5564 0.319
73.5866 0.168
73.6169 0.696
73.6472 0.183
73.6775 0.451
73.7078 0.356
73.7380 -0.050
73.7683 0.533
73.7986 0.806
73.8289 1.131
73.8592 0.467
73.8894 -0.092
73.9197 -0.389
73.9500 0.105
73.9803 0.339
74.0105 0.470
74.0408 0.238
74.0711 0.058
74.1014 0.400
74.1317 0.482
74.1619 0.201
74.1922 0.181
74.2225 0.161
74.2528 -0.013
74.2831 -0.187
74.3133 -0.152
74.3436 -0.116
74.3739 -0.027
74.4042 0.636
74.4344 0.206
74.4647 0.350
74.4950 0.130
74.5253 -0.038
74.5556 0.265
74.5858 0.360
74.6161 -0.169
74.6464 -0.385
74.6767 0.337
74.7070 -0.138
74.7372 0.170
74.7675 0.114
74.7978 -0.254
74.8281 0.108
74.8583 0.002
74.8886 0.314
74.9189 -0.572
74.9492 -0.256
74.9795 0.060
75.0097 0.064
75.0400 0.226
75.0703 -0.133
75.1006 -0.126
75.1309 -0.014
75.1611 0.151
75.1914 -0.100
75.2217 -0.142
75.2520 -0.027
75.2822 0.142
75.3125 0.259
75.3428 -0.405
75.3731 0.026
75.4034 0.458
75.4336 -0.046
75.4639 0.335
75.4942 0.353
75.5245 0.320
75.5548 -0.025
75.5850 -0.318
75.6153 0.693
75.6456 -0.014
75.6759 0.426
75.7061 -0.280
75.7364 -0.255
75.7667 0.152
75.7970 0.143
75.8273 0.292
75.8575 0.129
75.8878 0.279
75.9181 0.013
75.9484 -0.200
75.9787 0.109
76.0089 0.106
76.0392 -0.156
76.0695 -0.105
76.0998 0.624
76.1301 0.677
76.1603 -0.051
76.1906 0.108
76.2209 0.527
76.2512 -0.198
76.2814 0.328
76.3117 -0.083
76.3420 -0.337
76.3723 0.124
76.4026 0.117
76.4328 0.162
76.4631 0.157
76.4934 0.465
76.5237 0.513
76.5540 0.094
76.5842 -0.013
76.6145 0.143
76.6448 0.090
76.6751 0.247
76.7053 0.404
76.7356 -0.635
76.7659 0.097
76.7962 0.153
76.8265 -0.572
76.8567 -0.100
76.8870 0.267
76.9173 0.063
76.9476 -0.192
76.9779 0.074
77.0081 0.706
77.0384 0.244
77.0687 0.096
77.0990 -0.311
77.1292 -0.057
77.1595 0.249
77.1898 -0.224
77.2201 -0.228
77.2504 -0.127
77.2806 0.235
77.3109 -0.131
77.3412 0.024
77.3715 0.285
77.4018 -0.131
77.4320 -0.129
77.4623 -0.178
77.4926 0.138
77.5229 0.455
77.5531 0.251
77.5834 -0.420
77.6137 0.004
77.6440 -0.040
77.6743 0.020
77.7045 -0.023
77.7348 0.456
77.7651 0.207
77.7954 -0.250
77.8257 -0.242
77.8559 0.391
77.8862 0.088
77.9165 0.254
77.9468 0.057
77.9770 -0.244
78.0073 -0.098
78.0376 0.467
78.0679 0.199
78.0982 -0.069
78.1284 0.706
78.1587 0.232
78.1890 0.488
78.2193 0.485
78.2496 -0.299
78.2798 0.168
78.3101 0.635
78.3404 -0.146
78.3707 -0.250
78.4009 0.009
78.4312 0.061
78.4615 0.530
78.4918 0.218
78.5221 0.584
78.5523 0.275
78.5826 0.174
78.6129 0.126
78.6432 -0.285
78.6735 -0.084
78.7037 -0.247
78.7340 -0.305
78.7643 0.836
78.7946 0.259
78.8248 0.152
78.8551 0.202
78.8854 -0.320
78.9157 -0.008
78.9460 0.044
78.9762 -0.111
79.0065 0.359
79.0368 0.310
79.0671 0.209
79.0974 0.005
79.1276 -0.250
79.1579 -0.086
79.1882 0.235
79.2185 0.244
79.2488 0.097
79.2790 0.264
79.3093 0.224
79.3396 0.236
79.3699 0.406
79.4001 0.212
79.4304 0.331
79.4607 -0.174
79.4910 0.259
79.5213 0.120
79.5515 0.243
79.5818 -0.363
79.6121 -0.223
79.6424 0.387
79.6727 -0.305
79.7029 0.359
79.7332 0.450
79.7635 -0.082
79.7938 0.375
79.8240 0.417
79.8543 0.564
79.8846 0.295
79.9149 0.392
79.9452 0.020
79.9754 0.535
80.0057 -0.043
80.0360 -0.203
80.0663 -0.415
80.0966 0.247
80.1268 -0.339
80.1571 0.221
80.1874 -0.051
80.2177 -0.062
80.2479 0.084
80.2782 0.126
80.3085 0.430
80.3388 0.162
80.3691 0.155
80.3993 0.202
80.4296 -0.012
80.4599 -0.068
80.4902 0.084
80.5205 -0.335
80.5507 0.705
80.5810 0.287
80.6113 -0.025
80.6416 -0.493
80.6718 0.072
80.7021 -0.195
80.7324 0.008
80.7627 0.003
80.7930 -0.157
80.8232 0.205
80.8535 -0.006
80.8838 0.722
80.9141 -0.060
80.9444 -0.008
80.9746 0.254
81.0049 -0.161
81.0352 0.102
81.0655 0.106
81.0957 -0.150
81.1260 0.168
81.1563 0.174
81.1866 0.129
81.2169 -0.020
81.2471 -0.219
81.2774 0.155
81.3077 0.426
81.3380 -0.136
81.3683 -0.280
81.3985 0.253
81.4288 -0.202
81.4591 0.542
81.4894 0.245
81.5196 0.469
81.5499 0.018
81.5802 0.661
81.6105 -0.102
81.6408 -0.239
81.6710 0.063
81.7013 0.157
81.7316 -0.269
81.7619 0.295
81.7922 0.079
81.8224 0.541
81.8527 -0.246
81.8830 -0.095
81.9133 0.057
81.9436 -0.415
81.9738 -0.012
82.0041 -0.337
82.0344 0.120
82.0647 -0.047
82.0949 -0.161
82.1252 0.194
82.1555 -0.283
82.1858 0.230
82.2161 0.015
82.2463 0.374
82.2766 0.160
82.3069 -0.052
82.3372 0.153
82.3675 0.046
82.3977 0.253
82.4280 0.408
82.4583 0.617
82.4886 0.097
82.5188 0.098
82.5491 0.361
82.5794 0.104
82.6097 0.317
82.6400 0.166
82.6702 0.171
82.7005 0.491
82.7308 -0.387
82.7611 0.663
82.7914 0.568
82.8216 0.422
82.8519 -0.401
82.8822 0.392
82.9125 0.040
82.9427 -0.206
82.9730 -0.244
83.0033 -0.307
83.0336 0.308
83.0639 -0.117
83.0941 0.240
83.1244 -0.132
83.1547 0.695
83.1850 0.012
83.2153 0.216
83.2455 0.056
83.2758 -0.207
83.3061 0.103
83.3364 0.102
83.3666 -0.107
83.3969 -0.002
83.4272 0.051
83.4575 -0.207
83.4878 0.212
83.5180 0.320
83.5483 -0.248
83.5786 0.487
83.6089 -0.028
83.6392 0.448
83.6694 0.143
83.6997 0.256
83.7300 -0.203
83.7603 -0.244
83.7905 0.205
83.8208 0.707
83.8511 0.065
83.8814 -0.004
83.9117 0.397
83.9419 -0.035
83.9722 0.159
84.0025 0.041
84.0328 -0.180
84.0631 0.329
84.0933 -0.359
84.1236 0.100
84.1539 -0.378
84.1842 0.082
84.2144 -0.238
84.2447 0.537
84.2750 -0.563
84.3053 0.057
84.3356 0.053
84.3658 0.049
84.3961 -0.266
84.4264 -0.116
84.4567 -0.018
84.4870 -0.179
84.5172 0.337
84.5475 -0.291
84.5778 -0.242
84.6081 -0.035
84.6383 0.016
84.6686 -0.088
84.6989 0.017
84.7292 -0.242
84.7595 0.437
84.7897 0.336
84.8200 -0.441
84.8503 0.189
84.8806 -0.326
84.9109 0.358
84.9411 -0.104
84.9714 -0.252
85.0017 0.591
85.0320 -0.545
85.0623 0.247
85.0925 -0.262
85.1228 0.115
85.1531 0.233
85.1834 -0.014
85.2136 -0.259
85.2439 0.050
85.2742 -0.265
85.3045 0.046
85.3348 -0.111
85.3650 0.149
85.3953 -0.006
85.4256 -0.890
85.4559 0.258
85.4862 -0.467
85.5164 -0.207
85.5467 0.159
85.5770 -0.307
85.6073 0.165
85.6375 0.637
85.6678 0.017
85.6981 0.075
85.7284 0.081
85.7587 0.244
85.7889 -0.268
85.8192 -0.155
85.8495 -0.250
85.8798 0.099
85.9101 -0.176
85.9403 0.071
85.9706 0.162
86.0009 -0.006
86.0312 0.191
86.0614 0.077
86.0917 0.067
86.1220 0.371
86.1523 -0.054
86.1826 0.148
86.2128 -0.015
86.2431 0.084
86.2734 0.079
86.3037 0.128
86.3340 0.021
86.3642 -0.242
86.3945 0.018
86.4248 0.174
86.4551 0.174
86.4853 0.123
86.5156 -0.135
86.5459 -0.080
86.5762 0.237
86.6065 0.554
86.6367 0.195
86.6670 -0.007
86.6973 0.052
86.7276 0.060
86.7579 0.173
86.7881 0.287
86.8184 0.558
86.8487 0.518
86.8790 0.217
86.9092 -0.082
86.9395 0.036
86.9698 0.416
87.0001 0.119
87.0304 -0.125
87.0606 0.569
87.0909 0.171
87.1212 0.294
87.1515 -0.155
87.1818 -0.239
87.2120 0.125
87.2423 -0.083
87.2726 -0.239
87.3029 -0.106
87.3331 0.288
87.3634 0.005
87.3937 -0.016
87.4240 0.068
87.4543 0.101
87.4845 0.082
87.5148 0.012
87.5451 0.673
87.5754 -0.073
87.6057 0.485
87.6359 -0.415
87.6662 -0.012
87.6965 0.184
87.7268 -0.192
87.7571 -0.256
87.7873 0.203
87.8176 -0.431
87.8479 0.393
87.8782 0.334
87.9084 -0.246
87.9387 0.217
87.9690 -0.153
87.9993 -0.210
88.0296 -0.005
88.0598 0.097
88.0901 0.147
88.1204 0.094
88.1507 -0.271
88.1810 -0.060
88.2112 0.048
88.2415 0.000
88.2718 -0.203
88.3021 0.063
88.3323 -0.138
88.3626 0.546
88.3929 -0.122
88.4232 0.303
88.4535 -0.416
88.4837 -0.040
88.5140 0.180
88.5443 -0.016
88.5746 -0.158
88.6049 0.168
88.6351 -0.337
88.6654 -0.137
88.6957 -0.040
88.7260 -0.151
88.7562 -0.260
88.7865 0.203
88.8168 0.406
88.8471 -0.275
88.8774 -0.017
88.9076 0.084
88.9379 -0.282
88.9682 0.082
88.9985 0.187
89.0288 -0.645
89.0590 -0.123
89.0893 -0.172
89.1196 0.144
89.1499 -0.216
89.1801 -0.002
89.2104 -0.204
89.2407 0.115
89.2710 0.019
89.3013 -0.702
89.3315 0.029
89.3618 -0.021
89.3921 0.503
89.4224 -0.170
89.4527 -0.113
89.4829 0.153
89.5132 0.212
89.5435 -0.510
89.5738 0.176
89.6040 0.133
89.6343 0.611
89.6646 -0.107
89.6949 -0.095
89.7252 -0.343
89.7554 0.295
89.7857 0.049
89.8160 0.116
89.8463 -0.441
89.8766 -0.073
89.9068 0.245
89.9371 0.302
89.9674 -0.212
89.9977 0.108
90.0279 -0.352
90.0582 0.073
90.0885 0.083
90.1188 -0.062
90.1491 -0.311
90.1793 0.222
90.2096 0.183
90.2399 -0.427
90.2702 0.004
90.3005 0.437
90.3307 0.453
90.3610 0.419
90.3913 0.072
90.4216 -0.221
90.4518 -0.069
90.4821 0.292
90.5124 -0.284
90.5427 0.339
90.5730 0.651
90.6032 -0.027
90.6335 0.026
90.6638 -0.285
90.6941 0.008
90.7244 0.250
90.7546 -0.236
90.7849 0.111
90.8152 0.043
90.8455 0.601
90.8758 0.482
90.9060 0.208
90.9363 -0.169
90.9666 -0.337
90.9969 0.226
91.0271 0.478
91.0574 0.627
91.0877 -0.058
91.1180 0.874
91.1483 -0.277
91.1785 -0.230
91.2088 0.236
91.2391 0.077
91.2694 0.387
91.2997 -0.604
91.3299 -0.083
91.3602 -0.082
91.3905 0.492
91.4208 0.755
91.4510 -0.128
91.4813 0.345
91.5116 0.089
91.5419 -0.113
91.5722 0.101
91.6024 -0.100
91.6327 -0.039
91.6630 -0.239
91.6933 -0.021
91.7236 -0.167
91.7538 0.157
91.7841 -0.039
91.8144 -0.131
91.8447 0.352
91.8749 -0.102
91.9052 0.173
91.9355 -0.227
91.9658 -0.298
91.9961 0.310
92.0263 -0.019
92.0566 0.329
92.0869 -0.467
92.1172 0.456
92.1475 0.130
92.1777 -0.091
92.2080 0.367
92.2383 -0.165
92.2686 0.346
92.2988 -0.080
92.3291 0.120
92.3594 0.164
92.3897 -0.259
92.4200 -0.110
92.4502 0.717
92.4805 -0.486
92.5108 0.083
92.5411 -0.077
92.5714 -0.132
92.6016 -0.238
92.6319 0.021
92.6622 -0.187
92.6925 0.126
92.7227 -0.341
92.7530 0.078
92.7833 0.081
92.8136 -0.019
92.8439 -0.067
92.8741 -0.061
92.9044 -0.211
92.9347 -0.204
92.9650 0.013
92.9953 0.387
93.0255 0.240
93.0558 -0.166
93.0861 -0.050
93.1164 -0.038
93.1466 -0.285
93.1769 0.077
93.2072 0.597
93.2375 0.076
93.2678 0.128
93.2980 0.182
93.3283 -0.441
93.3586 -0.135
93.3889 0.694
93.4192 0.169
93.4494 -0.147
93.4797 0.579
93.5100 0.317
93.5403 -0.152
93.5706 0.264
93.6008 0.057
93.6311 -0.150
93.6614 0.061
93.6917 0.169
93.7219 -0.140
93.7522 0.126
93.7825 -0.441
93.8128 0.243
93.8431 -0.010
93.8733 0.207
93.9036 -0.045
93.9339 0.070
93.9642 -0.544
93.9945 0.457
94.0247 0.209
94.0550 0.066
94.0853 0.237
94.1156 0.617
94.1458 -0.045
94.1761 0.285
94.2064 0.563
94.2367 -0.148
94.2670 -0.285
94.2972 0.168
94.3275 -0.264
94.3578 0.451
94.3881 0.020
94.4184 0.320
94.4486 0.204
94.4789 0.454
94.5092 0.287
94.5395 0.538
94.5697 0.321
94.6000 -0.259
94.6303 -0.058
94.6606 0.093
94.6909 0.348
94.7211 -0.490
94.7514 -0.233
94.7817 0.381
94.8120 -0.255
94.8423 -0.004
94.8725 0.091
94.9028 0.031
94.9331 0.076
94.9634 0.226
94.9936 -0.404
95.0239 0.008
95.0542 -0.465
95.0845 0.626
95.1148 -0.105
95.1450 -0.002
95.1753 0.362
95.2056 0.467
95.2359 -0.105
95.2662 -0.467
95.2964 0.157
95.3267 -0.415
95.3570 -0.106
95.3873 -0.109
95.4175 -0.059
95.4478 -0.112
95.4781 0.148
95.5084 0.149
95.5387 -0.110
95.5689 -0.525
95.5992 0.260
95.6295 -0.622
95.6598 0.216
95.6901 -0.038
95.7203 -0.136
95.7506 -0.285
95.7809 0.181
95.8112 0.075
95.8414 0.230
95.8717 0.125
95.9020 -0.239
95.9323 -0.144
95.9626 -0.101
95.9928 0.568
96.0231 -0.325
96.0534 0.085
96.0837 -0.545
96.1140 0.336
96.1442 -0.137
96.1745 -0.244
96.2048 -0.152
96.2351 0.254
96.2653 -0.173
96.2956 0.130
96.3259 0.278
96.3562 -0.094
96.3865 -0.205
96.4167 -0.159
96.4470 0.200
96.4773 -0.013
96.5076 0.036
96.5379 -0.123
96.5681 0.084
96.5984 0.135
96.6287 -0.438
96.6590 -0.021
96.6893 0.189
96.7195 0.087
96.7498 0.091
96.7801 0.303
96.8104 -0.161
96.8406 -0.311
96.8709 0.209
96.9012 -0.415
96.9315 -0.155
96.9618 0.367
96.9920 -0.047
97.0223 0.320
97.0526 0.115
97.0829 -0.193
97.1132 0.229
97.1434 -0.129
97.1737 0.295
97.2040 -0.062
97.2343 0.311
97.2645 -0.044
97.2948 -0.034
97.3251 0.134
97.3554 -0.375
97.3857 0.003
97.4159 0.068
97.4462 0.187
97.4765 0.255
97.5068 0.167
97.5371 -0.233
97.5673 -0.191
97.5976 0.112
97.6279 0.208
97.6582 -0.008
97.6884 0.038
97.7187 0.032
97.7490 -0.077
97.7793 -0.030
97.8096 0.488
97.8398 0.329
97.8701 0.067
97.9004 -0.350
97.9307 0.222
97.9610 0.119
97.9912 0.069
98.0215 -0.137
98.0518 0.387
98.0821 0.600
98.1123 0.448
98.1426 0.142
98.1729 0.044
98.2032 -0.052
98.2335 -0.044
98.2637 -0.087
98.2940 -0.285
98.3243 0.121
98.3546 0.112
98.3849 0.260
98.4151 0.096
98.4454 -0.068
98.4757 0.655
98.5060 0.077
98.5362 0.229
98.5665 0.225
98.5968 0.119
98.6271 -0.404
98.6574 0.168
98.6876 -0.145
98.7179 -0.040
98.7482 0.430
98.7785 -0.193
98.8088 0.331
98.8390 0.179
98.8693 -0.285
98.8996 -0.123
98.9299 -0.115
98.9601 0.413
98.9904 0.006
99.0207 0.067
99.0510 0.026
99.0813 0.037
99.1115 -0.003
99.1418 0.427
99.1721 0.076
99.2024 0.143
99.2327 0.315
99.2629 0.279
99.2932 -0.016
99.3235 -0.571
99.3538 0.039
99.3841 0.078
99.4143 0.013
99.4446 0.053
99.4749 0.302
99.5052 0.136
99.5354 0.283
99.5657 0.170
99.5960 0.162
99.6263 -0.001
99.6566 0.202
99.6868 -0.168
99.7171 0.453
99.7474 0.137
99.7777 -0.127
99.8080 0.080
99.8382 0.235
99.8685 0.027
99.8988 -0.233
99.9291 0.019
99.9593 0.064
99.9896 -0.464
100.0199 0.052
100.0502 0.515
100.0805 -0.218
100.1107 -0.013
100.1410 -0.067
100.1713 -0.017
100.2016 0.399
100.2319 0.399
100.2621 -0.016
100.2924 -0.014
100.3227 -0.012
100.3530 -0.529
100.3832 0.413
100.4135 0.314
100.4438 0.059
100.4741 -0.142
100.5044 -0.187
100.5346 0.395
100.5649 -0.012
100.5952 0.050
100.6255 0.582
100.6558 -0.031
100.6860 -0.227
100.7163 -0.088
100.7466 0.468
100.7769 -0.225
100.8071 0.281
100.8374 -0.202
100.8677 0.097
100.8980 0.137
100.9283 -0.344
100.9585 0.270
100.9888 0.104
101.0191 -0.165
101.0494 0.087
101.0797 -0.077
101.1099 -0.136
101.1402 -0.037
101.1705 -0.511
101.2008 0.162
101.2310 -0.362
101.2613 -0.052
101.2916 -0.054
101.3219 -0.106
101.3522 -0.210
101.3824 -0.105
101.4127 0.053
101.4430 0.159
101.4733 0.684
101.5036 0.063
101.5338 -0.244
101.5641 -0.030
101.5944 0.030
101.6247 0.298
101.6549 -0.266
101.6852 0.264
101.7155 0.692
101.7458 0.234
101.7761 -0.014
101.8063 -0.053
101.8366 -0.143
101.8669 -0.233
101.8972 0.131
101.9275 -0.233
101.9577 -0.086
101.9880 0.009
102.0183 0.053
102.0486 0.515
102.0788 -0.012
102.1091 0.087
102.1394 -0.230
102.1697 -0.026
102.2000 0.076
102.2302 0.646
102.2605 0.177
102.2908 -0.240
102.3211 0.177
102.3514 -0.239
102.3816 -0.190
102.4119 -0.088
102.4422 0.015
102.4725 0.015
102.5028 0.640
102.5330 0.277
102.5633 0.174
102.5936 -0.031
102.6239 -0.132
102.6541 0.133
102.6844 0.139
102.7147 -0.116
102.7450 -0.056
102.7753 0.056
102.8055 0.012
102.8358 0.022
102.8661 0.188
102.8964 0.148
102.9267 0.212
102.9569 -0.088
102.9872 0.134
103.0175 0.253
103.0478 -0.044
103.0780 0.181
103.1083 0.302
103.1386 -0.149
103.1689 -0.130
103.1992 -0.215
103.2294 0.130
103.2597 -0.149
103.2900 -0.010
103.3203 -0.236
103.3506 0.269
103.3808 0.358
103.4111 -0.126
103.4414 0.069
103.4717 0.108
103.5019 0.096
103.5322 -0.331
103.5625 0.335
103.5928 -0.039
103.6231 -0.047
103.6533 -0.211
103.6836 0.459
103.7139 0.036
103.7442 -0.178
103.7745 -0.286
103.8047 0.335
103.8350 0.020
103.8653 -0.138
103.8956 0.121
103.9258 -0.556
103.9561 -0.035
103.9864 0.019
104.0167 0.073
104.0470 -0.340
104.0772 0.601
104.1075 0.085
104.1378 0.455
104.1681 -0.267
104.1984 0.157
104.2286 -0.356
104.2589 0.226
104.2892 -0.441
104.3195 -0.181
104.3497 0.081
104.3800 -0.178
104.4103 0.294
104.4406 0.141
104.4709 0.302
104.5011 -0.214
104.5314 0.157
104.5617 -0.149
104.5920 0.380
104.6223 0.180
104.6525 -0.227
104.6828 -0.185
104.7131 0.171
104.7434 0.163
104.7736 -0.469
104.8039 0.254
104.8342 -0.012
104.8645 0.348
104.8948 0.135
104.9250 -0.076
104.9553 -0.026
104.9856 0.129
105.0159 -0.236
105.0462 0.129
105.0764 -0.443
105.1067 0.236
105.1370 -0.125
105.1673 -0.122
105.1975 -0.169
105.2278 -0.164
105.2581 0.051
105.2884 -0.099
105.3187 -0.039
105.3489 0.231
105.3792 0.188
105.4095 -0.010
105.4398 -0.311
105.4701 0.053
105.5003 0.523
105.5306 0.212
105.5609 -0.255
105.5912 0.009
105.6215 -0.092
105.6517 0.538
105.6820 0.127
105.7123 -0.075
105.7426 0.505
105.7728 0.149
105.8031 -0.311
105.8334 -0.108
105.8637 0.304
105.8940 -0.116
105.9242 0.298
105.9545 0.192
105.9848 0.035
106.0151 0.295
106.0454 0.452
106.0756 0.141
106.1059 0.195
106.1362 0.042
106.1665 0.619
106.1967 0.259
106.2270 0.161
106.2573 0.324
106.2876 0.227
106.3179 0.183
106.3481 -0.120
106.3784 -0.215
106.4087 -0.172
106.4390 0.392
106.4693 -0.137
106.4995 0.480
106.5298 -0.047
106.5601 -0.104
106.5904 -0.057
106.6206 0.251
106.6509 -0.116
106.6812 0.142
106.7115 0.037
106.7418 0.296
106.7720 0.297
106.8023 -0.067
106.8326 -0.221
106.8629 -0.183
106.8932 0.011
106.9234 0.155
106.9537 -0.170
106.9840 -0.233
107.0143 0.227
107.0445 -0.042
107.0748 0.732
107.1051 -0.161
107.1354 -0.166
107.1657 0.141
107.1959 0.137
107.2262 -0.283
107.2565 -0.025
107.2868 0.129
107.3171 0.024
107.3473 -0.028
107.3776 0.598
107.4079 0.443
107.4382 0.029
107.4684 0.085
107.4987 -0.067
107.5290 -0.114
107.5593 -0.108
107.5896 -0.154
107.6198 0.010
107.6501 0.591
107.6804 0.236
107.7107 -0.119
107.7410 0.205
107.7712 -0.460
107.8015 0.333
107.8318 -0.174
107.8621 -0.212
107.8923 0.012
107.9226 -0.337
107.9529 0.015
107.9832 0.055
108.0135 -0.216
108.0437 0.035
108.0740 0.442
108.1043 -0.035
108.1346 -0.147
108.1649 0.055
108.1951 0.310
108.2254 -0.008
108.2557 0.040
108.2860 -0.328
108.3163 0.295
108.3465 -0.123
108.3768 0.293
108.4071 -0.176
108.4374 0.762
108.4676 0.295
108.4979 0.558
108.5282 0.197
108.5585 0.045
108.5888 0.467
108.6190 0.525
108.6493 -0.249
108.6796 -0.086
108.7099 0.704
108.7402 -0.016
108.7704 0.099
108.8007 0.214
108.8310 0.069
108.8613 0.030
108.8915 0.043
108.9218 0.006
108.9521 0.229
108.9824 0.089
109.0127 -0.311
109.0429 -0.063
109.0732 0.446
109.1035 0.070
109.1338 0.268
109.1641 0.050
109.1943 0.354
109.2246 0.138
109.2549 0.391
109.2852 -0.032
109.3154 0.536
109.3457 0.428
109.3760 0.268
109.4063 -0.048
109.4366 0.055
109.4668 -0.259
109.4971 -0.002
109.5274 -0.057
109.5577 0.723
109.5880 0.045
109.6182 -0.164
109.6485 0.253
109.6788 0.046
109.7091 0.049
109.7393 0.156
109.7696 0.108
109.7999 0.165
109.8302 -0.038
109.8605 0.490
109.8907 0.289
109.9210 -0.276
109.9513 -0.215
109.9816 0.104
110.0119 0.006
110.0421 0.118
110.0724 0.439
110.1027 -0.177
110.1330 -0.011
110.1632 -0.208
110.1935 0.043
110.2238 0.607
110.2541 0.130
110.2844 0.644
110.3146 0.482
110.3449 -0.357
110.3752 0.264
110.4055 0.260
110.4358 0.205
110.4660 0.516
110.4963 -0.214
110.5266 -0.215
110.5569 0.083
110.5871 0.121
110.6174 0.107
110.6477 0.460
110.6780 -0.229
110.7083 0.437
110.7385 0.271
110.7688 0.002
110.7991 -0.215
110.8294 0.455
110.8597 0.188
110.8899 0.234
110.9202 0.073
110.9505 -0.087
110.9808 -0.091
111.0110 0.011
111.0413 -0.147
111.0716 0.269
111.1019 -0.043
111.1322 0.323
111.1624 -0.092
111.1927 0.796
111.2230 -0.242
111.2533 -0.030
111.2836 -0.285
111.3138 0.078
111.3441 0.130
111.3744 0.235
111.4047 0.549
111.4350 -0.282
111.4652 -0.227
111.4955 -0.072
111.5258 -0.072
111.5561 -0.227
111.5863 -0.286
111.6166 0.333
111.6469 -0.037
111.6772 -0.198
111.7075 0.215
111.7377 0.108
111.7680 -0.259
111.7983 -0.054
111.8286 0.100
111.8589 -0.370
111.8891 0.306
111.9194 0.306
111.9497 0.308
111.9800 0.309
112.0102 -0.261
112.0405 0.211
112.0708 0.112
112.1011 0.117
112.1314 0.071
112.1616 -0.131
112.1919 -0.227
112.2222 0.126
112.2525 -0.197
112.2828 -0.103
112.3130 0.149
112.3433 -0.068
112.3736 0.134
112.4039 -0.029
112.4341 0.382
112.4644 0.377
112.4947 -0.095
112.5250 0.006
112.5553 0.212
112.5855 0.158
112.6158 -0.051
112.6461 -0.206
112.6764 -0.257
112.7067 0.317
112.7369 0.477
112.7672 -0.145
112.7975 0.433
112.8278 -0.239
112.8580 -0.233
112.8883 -0.182
112.9186 0.130
112.9489 0.130
112.9792 -0.130
113.0094 -0.128
113.0397 0.344
113.0700 -0.226
113.1003 0.091
113.1306 -0.008
113.1608 0.207
113.1911 0.162
113.2214 0.117
113.2517 0.491
113.2819 0.344
113.3122 0.562
113.3425 -0.312
113.3728 -0.039
113.4031 -0.131
113.4333 -0.117
113.4636 -0.311
113.4939 0.141
113.5242 0.281
113.5545 0.162
113.5847 0.148
113.6150 -0.178
113.6453 0.226
113.6756 0.423
113.7058 0.308
113.7361 0.090
113.7664 0.497
113.7967 -0.188
113.8270 0.065
113.8572 0.267
113.8875 0.313
113.9178 0.256
113.9481 -0.269
113.9784 -0.168
114.0086 0.246
114.0389 -0.172
114.0692 0.296
114.0995 -0.642
114.1298 -0.172
114.1600 -0.066
114.1903 0.249
114.2206 -0.268
114.2509 -0.108
114.2811 -0.519
114.3114 0.216
114.3417 0.066
114.3720 0.126
114.4023 -0.074
114.4325 -0.221
114.4628 0.154
114.4931 0.061
114.5234 -0.083
114.5537 -0.227
114.5839 -0.227
114.6142 -0.186
114.6445 -0.144
114.6748 0.003
114.7050 0.516
114.7353 -0.013
114.7656 0.085
114.7959 -0.338
114.8262 0.543
114.8564 -0.087
114.8867 -0.090
114.9170 0.168
114.9473 -0.250
114.9776 0.009
115.0078 0.270
115.0381 0.218
115.0684 -0.197
115.0987 0.170
115.1289 -0.087
115.1592 0.074
115.1895 0.443
115.2198 0.293
115.2501 0.300
115.2803 0.047
115.3106 0.159
115.3409 0.169
115.3712 -0.134
115.4015 -0.227
115.4317 -0.227
115.4620 -0.088
115.4923 -0.208
115.5226 -0.014
115.5528 -0.081
115.5831 -0.250
115.6134 0.414
115.6437 0.402
115.6740 0.183
115.7042 0.017
115.7345 0.372
115.7648 0.520
115.7951 -0.321
115.8254 -0.223
115.8556 0.083
115.8859 -0.234
115.9162 -0.238
115.9465 -0.138
115.9767 -0.088
116.0070 0.119
116.0373 -0.247
116.0676 0.066
116.0979 -0.194
116.1281 -0.244
116.1584 0.116
116.1887 0.008
116.2190 0.317
116.2493 0.524
116.2795 -0.259
116.3098 -0.363
116.3401 0.313
116.3704 0.156
116.4006 -0.520
116.4309 -0.050
116.4612 0.265
116.4915 0.372
116.5218 -0.457
116.5520 -0.296
116.5823 0.543
116.6126 0.029
116.6429 0.193
116.6732 -0.528
116.7034 -0.051
116.7337 0.064
116.7640 -0.030
116.7943 0.190
116.8245 0.463
116.8548 -0.097
116.8851 0.126
116.9154 -0.120
116.9457 0.313
116.9759 -0.035
117.0062 0.295
117.0365 0.730
117.0668 0.228
117.0971 -0.221
117.1273 -0.221
117.1576 -0.121
117.1879 0.345
117.2182 0.551
117.2485 0.238
117.2787 0.758
117.3090 0.290
117.3393 -0.021
117.3696 0.033
117.3998 0.036
117.4301 -0.221
117.4604 -0.084
117.4907 -0.102
117.5210 -0.119
117.5512 0.073
117.5815 0.005
117.6118 -0.166
117.6421 -0.076
117.6724 -0.037
117.7026 0.055
117.7329 0.148
117.7632 -0.019
117.7935 0.024
117.8237 0.327
117.8540 -0.045
117.8843 0.000
117.9146 0.149
117.9449 0.144
117.9751 0.035
118.0054 0.448
118.0357 0.028
118.0660 -0.130
118.0963 -0.132
118.1265 0.181
118.1568 0.025
118.1871 -0.391
118.2174 0.653
118.2476 -0.073
118.2779 0.034
118.3082 0.039
118.3385 -0.008
118.3688 -0.106
118.3990 -0.099
118.4293 0.222
118.4596 -0.342
118.4899 -0.020
118.5202 0.094
118.5504 -0.467
118.5807 -0.057
118.6110 0.249
118.6413 -0.069
118.6715 -0.021
118.7018 0.132
118.7321 0.077
118.7624 0.023
118.7927 0.231
118.8229 -0.030
118.8532 -0.029
118.8835 0.076
118.9138 -0.025
118.9441 0.030
118.9743 -0.070
119.0046 0.143
119.0349 0.305
119.0652 0.155
119.0954 0.111
119.1257 0.119
119.1560 0.180
119.1863 -0.435
119.2166 0.513
119.2468 0.056
119.2771 0.225
119.3074 0.707
119.3377 -0.425
119.3680 0.007
119.3982 0.075
119.4285 -0.221
119.4588 -0.221
119.4891 -0.032
119.5193 0.627
119.5496 -0.329
119.5799 0.488
119.6102 0.055
119.6405 -0.116
119.6707 0.078
119.7010 0.065
119.7313 -0.209
119.7616 0.353
119.7919 -0.335
119.8221 -0.085
119.8524 0.114
119.8827 -0.467
119.9130 -0.102
119.9433 0.159
119.9735 -0.255
120.0038 0.000
