'Id: "" Comment: "" Operator: "Lab Manager" Anode: "Cu" Scantype: "Locked Coupled" TimePerStep: "19.2" X: "9999" Y: "9999" Z: "9999" 
10.0015 0.000
10.0318 -0.417
10.0620 0.043
10.0923 -0.173
10.1226 -0.702
10.1529 0.204
10.1832 -0.765
10.2134 0.922
10.2437 -0.151
10.2740 -0.806
10.3043 0.182
10.3346 0.493
10.3648 -0.237
10.3951 -0.706
10.4254 0.595
10.4557 0.387
10.4859 0.751
10.5162 -0.134
10.5465 -0.134
10.5768 0.231
10.6071 0.701
10.6373 1.640
10.6676 0.339
10.6979 0.080
10.7282 0.655
10.7585 1.334
10.7887 0.502
10.8190 0.609
10.8493 1.810
10.8796 1.448
10.9098 1.763
10.9401 3.537
10.9704 3.906
11.0007 3.545
11.0310 5.632
11.0612 5.792
11.0915 6.161
11.1218 7.208
11.1521 7.890
11.1824 5.967
11.2126 4.306
11.2429 2.280
11.2732 2.078
11.3035 1.250
11.3337 1.048
11.3640 0.169
11.3943 0.592
11.4246 0.547
11.4549 0.815
11.4851 0.509
11.5154 1.038
11.5457 -0.100
11.5760 0.220
11.6063 0.436
11.6365 0.497
11.6668 0.297
11.6971 0.671
11.7274 0.732
11.7577 0.793
11.7879 0.594
11.8182 0.135
11.8485 0.874
11.8788 -0.105
11.9090 0.166
11.9393 -0.241
11.9696 -0.021
11.9999 0.094
12.0302 0.313
12.0604 -0.456
12.0907 -0.236
12.1210 0.192
12.1513 0.048
12.1816 0.113
12.2118 0.281
12.2421 0.294
12.2724 0.255
12.3027 0.373
12.3329 -0.291
12.3632 0.191
12.3935 0.518
12.4238 0.428
12.4541 -0.235
12.4843 0.977
12.5146 1.357
12.5449 0.226
12.5752 0.658
12.6055 -0.368
12.6357 -0.946
12.6660 0.821
12.6963 0.869
12.7266 0.501
12.7568 1.018
12.7871 -0.392
12.8174 0.595
12.8477 1.113
12.8780 -0.140
12.9082 0.535
12.9385 0.012
12.9688 0.843
12.9991 1.206
13.0294 0.215
13.0596 -0.099
13.0899 0.577
13.1202 -0.153
13.1505 -0.206
13.1807 0.002
13.2110 -0.207
13.2413 -0.259
13.2716 0.835
13.3019 0.575
13.3321 -0.414
13.3624 0.368
13.3927 0.109
13.4230 0.318
13.4533 -0.357
13.4835 0.634
13.5138 0.272
13.5441 0.170
13.5744 0.276
13.6046 0.279
13.6349 0.386
13.6652 0.337
13.6955 -0.129
13.7258 -0.229
13.7560 -0.694
13.7863 0.768
13.8166 0.356
13.8469 1.037
13.8772 0.052
13.9074 0.370
13.9377 0.635
13.9680 0.119
13.9983 0.490
14.0285 0.808
14.0588 -0.228
14.0891 -0.170
14.1194 0.045
14.1497 0.416
14.1799 -0.618
14.2102 -0.039
14.2405 0.646
14.2708 0.080
14.3011 -0.068
14.3313 0.148
14.3616 0.886
14.3919 0.425
14.4222 0.590
14.4524 -0.234
14.4827 -0.121
14.5130 0.305
14.5433 -0.311
14.5736 0.584
14.6038 0.907
14.6341 -0.073
14.6644 0.459
14.6947 -0.208
14.7250 -0.353
14.7552 0.006
14.7855 0.314
14.8158 -0.523
14.8461 0.514
14.8764 0.718
14.9066 0.662
14.9369 0.607
14.9672 -0.490
14.9975 0.861
15.0277 -0.132
15.0580 -0.343
15.0883 0.280
15.1186 -0.087
15.1489 0.172
15.1791 -0.716
15.2094 -0.092
15.2397 0.167
15.2700 -0.720
15.3003 0.217
15.3305 -0.200
15.3608 -0.357
15.3911 0.162
15.4214 -0.465
15.4516 0.576
15.4819 0.210
15.5122 0.053
15.5425 0.260
15.5728 -0.209
15.6030 0.572
15.6333 0.259
15.6636 0.312
15.6939 0.416
15.7242 -0.104
15.7544 0.105
15.7847 0.158
15.8150 0.472
15.8453 -0.099
15.8755 0.579
15.9058 0.790
15.9361 -0.198
15.9664 -1.081
15.9967 0.432
16.0269 -0.398
16.0572 -0.239
16.0875 0.025
16.1178 0.080
16.1481 0.657
16.1783 0.609
16.2086 0.092
16.2389 0.253
16.2692 -0.264
16.2994 -0.207
16.3297 0.423
16.3600 0.481
16.3903 0.330
16.4206 -0.185
16.4508 -0.127
16.4811 0.400
16.5114 0.354
16.5417 -0.004
16.5720 0.784
16.6022 0.583
16.6325 -0.035
16.6628 0.597
16.6931 0.136
16.7233 0.300
16.7536 0.569
16.7839 0.056
16.8142 0.273
16.8445 0.699
16.8747 -0.021
16.9050 -0.012
16.9353 -0.524
16.9656 0.424
16.9959 0.069
17.0261 -0.910
17.0564 -0.027
17.0867 0.597
17.1170 0.648
17.1472 -0.238
17.1775 0.334
17.2078 -0.291
17.2381 0.751
17.2684 0.542
17.2986 0.282
17.3289 0.803
17.3592 -0.133
17.3895 1.014
17.4198 -0.027
17.4500 0.131
17.4803 0.705
17.5106 0.342
17.5409 0.345
17.5712 0.295
17.6014 0.245
17.6317 -0.273
17.6620 0.407
17.6923 -0.215
17.7225 0.414
17.7528 -0.156
17.7831 0.421
17.8134 0.113
17.8437 -0.143
17.8739 0.434
17.9042 0.126
17.9345 0.444
17.9648 0.605
17.9951 0.194
18.0253 -0.113
18.0556 0.049
18.0859 0.680
18.1162 -0.303
18.1464 0.849
18.1767 0.075
18.2070 -0.283
18.2373 0.349
18.2676 -0.060
18.2978 0.260
18.3281 0.372
18.3584 0.536
18.3887 0.024
18.4190 0.136
18.4492 0.353
18.4795 -0.159
18.5098 0.059
18.5401 -0.036
18.5703 0.651
18.6006 1.286
18.6309 0.514
18.6612 0.837
18.6915 0.535
18.7217 0.546
18.7520 0.973
18.7823 -0.265
18.8126 0.215
18.8429 0.278
18.8731 0.186
18.9034 0.198
18.9337 0.210
18.9640 0.848
18.9942 0.808
19.0245 -0.429
19.0548 -0.416
19.0851 0.462
19.1154 0.871
19.1456 0.239
19.1759 0.076
19.2062 -0.192
19.2365 0.531
19.2668 -0.257
19.2970 0.206
19.3273 -0.061
19.3576 0.715
19.3879 0.345
19.4181 0.131
19.4484 1.011
19.4787 0.485
19.5090 0.585
19.5393 0.737
19.5695 0.368
19.5998 0.312
19.6301 0.933
19.6604 0.409
19.6907 0.405
19.7209 0.038
19.7512 0.295
19.7815 0.188
19.8118 -0.439
19.8420 0.444
19.8723 -0.235
19.9026 0.492
19.9329 -0.290
19.9632 1.062
19.9934 0.801
20.0237 0.123
20.0540 0.591
20.0843 0.278
20.1146 0.694
20.1448 -0.451
20.1751 0.903
20.2054 0.122
20.2357 0.019
20.2659 0.905
20.2962 0.229
20.3265 -0.187
20.3568 -0.133
20.3871 0.546
20.4173 -0.390
20.4476 -0.496
20.4779 0.596
20.5082 0.074
20.5385 0.802
20.5687 -0.345
20.5990 0.540
20.6293 -0.086
20.6596 0.643
20.6899 0.747
20.7201 0.279
20.7504 0.227
20.7807 0.488
20.8110 0.541
20.8412 0.438
20.8715 -0.030
20.9018 0.128
20.9321 -0.235
20.9624 -0.337
20.9926 0.286
21.0229 0.336
21.0532 -0.134
21.0835 0.178
21.1138 0.593
21.1440 0.541
21.1743 0.592
21.2046 -0.293
21.2349 0.853
21.2651 -0.137
21.2954 0.020
21.3257 0.125
21.3560 0.126
21.3863 0.387
21.4165 0.336
21.4468 0.234
21.4771 0.288
21.5074 -0.127
21.5377 -0.125
21.5679 -0.227
21.5982 -0.224
21.6285 0.039
21.6588 0.355
21.6890 1.035
21.7193 -0.107
21.7496 -0.624
21.7799 0.152
21.8102 0.511
21.8404 -0.068
21.8707 0.240
21.9010 -0.286
21.9313 0.647
21.9616 0.538
21.9918 -0.039
22.0221 -0.251
22.0524 0.474
22.0827 -0.311
22.1129 -0.054
22.1432 -0.057
22.1735 0.201
22.2038 0.407
22.2341 0.248
22.2643 0.298
22.2946 0.244
22.3249 -0.331
22.3552 0.188
22.3855 0.031
22.4157 0.655
22.4460 0.445
22.4763 -0.389
22.5066 0.288
22.5368 1.069
22.5671 0.183
22.5974 -0.077
22.6277 0.184
22.6580 0.758
22.6882 0.394
22.7185 -0.438
22.7488 0.813
22.7791 0.242
22.8094 0.139
22.8396 -0.223
22.8699 -0.325
22.9002 -0.273
22.9305 0.197
22.9607 -0.167
22.9910 -0.426
23.0213 0.304
23.0516 0.097
23.0819 0.412
23.1121 -0.576
23.1424 -0.001
23.1727 0.106
23.2030 -0.048
23.2333 -0.097
23.2635 0.218
23.2938 0.222
23.3241 -0.400
23.3544 0.542
23.3846 0.025
23.4149 -0.023
23.4452 0.137
23.4755 -0.118
23.5058 -0.009
23.5360 -0.056
23.5663 -0.624
23.5966 0.108
23.6269 0.162
23.6572 0.061
23.6874 0.533
23.7177 -0.089
23.7480 -0.450
23.7783 0.179
23.8086 0.704
23.8388 0.552
23.8691 0.296
23.8994 0.769
23.9297 -0.163
23.9599 0.623
23.9902 -0.674
24.0205 -0.147
24.0508 0.015
24.0811 -0.031
24.1113 0.756
24.1416 0.085
24.1719 0.352
24.2022 -0.057
24.2325 -0.467
24.2627 0.218
24.2930 -0.035
24.3233 0.597
24.3536 -0.645
24.3838 0.562
24.4141 0.570
24.4444 0.110
24.4747 0.535
24.5050 -0.185
24.5352 -0.488
24.5655 0.511
24.5958 0.365
24.6261 0.479
24.6564 0.177
24.6866 -0.126
24.7169 -0.063
24.7472 0.052
24.7775 0.740
24.8077 -0.030
24.8380 0.555
24.8683 0.046
24.8986 -0.255
24.9289 -0.295
24.9591 0.163
24.9894 0.881
25.0197 0.923
25.0500 1.329
25.0803 0.069
25.1105 0.111
25.1408 -0.055
25.1711 -0.169
25.2014 -0.022
25.2316 -0.083
25.2619 0.168
25.2922 0.212
25.3225 0.099
25.3528 0.872
25.3830 0.448
25.4133 0.232
25.4436 -0.453
25.4739 0.685
25.5042 0.470
25.5344 0.567
25.5647 0.404
25.5950 0.033
25.6253 -0.754
25.6555 0.802
25.6858 0.432
25.7161 0.062
25.7464 0.265
25.7767 -0.574
25.8069 0.151
25.8372 0.563
25.8675 -0.067
25.8978 0.450
25.9281 -0.127
25.9583 0.442
25.9886 -0.499
26.0189 -0.294
26.0492 0.328
26.0794 0.221
26.1097 0.166
26.1400 -0.253
26.1703 0.422
26.2006 0.316
26.2308 0.366
26.2611 0.364
26.2914 -0.314
26.3217 0.362
26.3520 -0.160
26.3822 0.881
26.4125 -0.578
26.4428 0.151
26.4731 0.255
26.5034 -0.109
26.5336 -0.317
26.5639 -0.108
26.5942 0.257
26.6245 -0.315
26.6547 1.144
26.6850 0.364
26.7153 -0.416
26.7456 -0.313
26.7759 0.363
26.8061 -0.002
26.8364 0.414
26.8667 1.507
26.8970 0.309
26.9273 -0.681
26.9575 0.674
26.9878 0.518
27.0181 0.466
27.0484 0.259
27.0786 0.052
27.1089 -0.364
27.1392 -0.015
27.1695 0.126
27.1998 0.631
27.2300 0.407
27.2603 0.340
27.2906 0.429
27.3209 -0.263
27.3512 0.192
27.3814 -0.448
27.4117 0.007
27.4420 0.566
27.4723 0.032
27.5025 -0.294
27.5328 -0.255
27.5631 0.722
27.5934 0.553
27.6237 0.228
27.6539 0.424
27.6842 0.672
27.7145 0.973
27.7448 -0.289
27.7751 0.117
27.8053 0.001
27.8356 0.043
27.8659 -0.281
27.8962 0.803
27.9264 0.532
27.9567 -0.311
27.9870 -0.061
28.0173 0.294
28.0476 -0.601
28.0778 0.172
28.1081 0.006
28.1384 0.414
28.1687 0.041
28.1990 -0.175
28.2292 0.181
28.2595 -0.087
28.2898 0.322
28.3201 1.356
28.3503 -0.422
28.3806 0.405
28.4109 0.190
28.4412 -0.546
28.4715 -0.144
28.5017 0.101
28.5320 -0.070
28.5623 -0.397
28.5926 0.370
28.6229 -0.477
28.6531 -0.127
28.6834 0.797
28.7137 -0.154
28.7440 -0.011
28.7742 0.497
28.8045 -0.766
28.8348 0.628
28.8651 0.199
28.8954 -0.438
28.9256 0.436
28.9559 -0.149
28.9862 0.152
29.0165 0.037
29.0468 0.234
29.0770 0.848
29.1073 -0.308
29.1376 1.088
29.1679 -0.068
29.1981 1.068
29.2284 0.746
29.2587 0.372
29.2890 -0.158
29.3193 -0.376
29.3495 -0.399
29.3798 0.723
29.4101 0.544
29.4404 0.261
29.4707 0.082
29.5009 0.424
29.5312 -0.119
29.5615 0.588
29.5918 -0.527
29.6221 1.014
29.6523 0.993
29.6826 0.295
29.7129 -0.091
29.7432 -0.164
29.7734 0.181
29.8037 0.577
29.8340 -0.224
29.8643 -0.400
29.8946 0.253
29.9248 0.542
29.9551 0.206
29.9854 -0.025
30.0157 0.681
30.0460 0.606
30.0762 0.063
30.1065 1.447
30.1368 -0.190
30.1671 -0.264
30.1973 0.392
30.2276 0.579
30.2579 1.235
30.2882 0.589
30.3185 0.933
30.3487 0.079
30.3790 0.684
30.4093 1.601
30.4396 0.644
30.4699 1.457
30.5001 0.657
30.5304 1.315
30.5607 1.452
30.5910 0.860
30.6212 1.727
30.6515 1.657
30.6818 1.743
30.7121 3.236
30.7424 3.531
30.7726 2.628
30.8029 2.402
30.8332 2.490
30.8635 2.837
30.8938 4.488
30.9240 5.825
30.9543 6.018
30.9846 4.544
31.0149 5.830
31.0451 4.617
31.0754 6.789
31.1057 6.826
31.1360 8.270
31.1663 8.932
31.1965 10.168
31.2268 10.779
31.2571 12.640
31.2874 13.668
31.3177 16.259
31.3479 16.246
31.3782 17.483
31.4085 21.480
31.4388 22.041
31.4690 28.279
31.4993 32.277
31.5296 30.494
31.5599 35.795
31.5902 37.294
31.6204 37.700
31.6507 39.512
31.6810 34.865
31.7113 33.605
31.7416 31.199
31.7718 27.022
31.8021 26.491
31.8324 19.242
31.8627 15.587
31.8929 14.119
31.9232 15.464
31.9535 12.695
31.9838 9.770
32.0141 10.126
32.0443 9.389
32.0746 6.933
32.1049 5.728
32.1352 5.981
32.1655 6.859
32.1957 4.404
32.2260 4.970
32.2563 3.557
32.2866 3.499
32.3169 3.806
32.3471 2.185
32.3774 2.231
32.4077 2.174
32.4380 3.002
32.4682 1.695
32.4985 0.753
32.5288 2.311
32.5591 1.369
32.5894 2.354
32.6196 0.371
32.6499 0.784
32.6802 1.198
32.7105 0.101
32.7408 0.983
32.7710 0.407
32.8013 -0.533
32.8316 -0.014
32.8619 0.036
32.8921 0.294
32.9224 -0.072
32.9527 0.812
32.9830 0.759
33.0133 0.758
33.0435 -0.701
33.0738 0.340
33.1041 -0.129
33.1344 -0.859
33.1647 0.176
33.1949 0.274
33.2252 1.258
33.2555 0.731
33.2858 0.933
33.3160 0.824
33.3463 1.652
33.3766 0.553
33.4069 1.017
33.4372 1.117
33.4674 0.800
33.4977 1.160
33.5280 0.844
33.5583 0.996
33.5886 1.566
33.6188 0.937
33.6491 1.351
33.6794 2.181
33.7097 2.543
33.7399 1.030
33.7702 2.226
33.8005 2.953
33.8308 5.348
33.8611 4.565
33.8913 4.355
33.9216 6.698
33.9519 6.749
33.9822 7.998
34.0125 7.998
34.0427 9.352
34.0730 12.685
34.1033 16.123
34.1336 20.082
34.1638 24.354
34.1941 27.323
34.2244 35.866
34.2547 40.138
34.2850 44.619
34.3152 41.027
34.3455 36.914
34.3758 34.469
34.4061 29.055
34.4364 22.443
34.4666 16.664
34.4969 14.532
34.5272 10.890
34.5575 11.362
34.5877 6.991
34.6180 8.609
34.6483 6.426
34.6786 4.920
34.7089 3.727
34.7391 4.513
34.7694 4.831
34.7997 4.003
34.8300 4.477
34.8603 3.233
34.8905 1.989
34.9208 2.881
34.9511 3.043
34.9814 2.633
35.0116 2.849
35.0419 2.647
35.0722 2.967
35.1025 3.756
35.1328 3.295
35.1630 3.095
35.1933 4.770
35.2236 3.320
35.2539 3.901
35.2842 3.962
35.3144 3.711
35.3447 4.085
35.3750 4.980
35.4053 6.135
35.4356 8.073
35.4658 7.770
35.4961 8.041
35.5264 8.937
35.5567 9.990
35.5869 9.011
35.6172 10.273
35.6475 12.159
35.6778 14.931
35.7081 15.308
35.7383 18.914
35.7686 16.583
35.7989 22.064
35.8292 23.119
35.8595 26.778
35.8897 32.208
35.9200 35.607
35.9503 39.006
35.9806 43.811
36.0108 46.586
36.0411 48.580
36.0714 55.521
36.1017 54.182
36.1320 55.916
36.1622 55.775
36.1925 50.009
36.2228 47.056
36.2531 43.374
36.2834 42.141
36.3136 34.032
36.3439 28.319
36.3742 24.951
36.4045 22.416
36.4347 19.100
36.4650 16.930
36.4953 16.739
36.5256 13.997
36.5559 12.505
36.5861 12.315
36.6164 7.281
36.6467 8.550
36.6770 7.475
36.7073 7.495
36.7375 6.421
36.7678 5.138
36.7981 4.689
36.8284 3.980
36.8586 4.001
36.8889 3.553
36.9192 3.261
36.9495 4.741
36.9798 1.376
37.0100 3.169
37.0403 2.149
37.0706 1.702
37.1009 2.922
37.1312 1.642
37.1614 2.030
37.1917 1.480
37.2220 1.867
37.2523 1.526
37.2825 1.914
37.3128 0.948
37.3431 1.597
37.3734 0.371
37.4037 0.969
37.4339 1.879
37.4642 1.591
37.4945 0.470
37.5248 1.641
37.5551 1.042
37.5853 -0.182
37.6156 0.156
37.6459 1.016
37.6762 0.104
37.7064 0.652
37.7367 0.939
37.7670 0.185
37.7973 0.577
37.8276 1.125
37.8578 1.778
37.8881 0.139
37.9184 0.011
37.9487 0.248
37.9790 0.433
38.0092 0.201
38.0395 1.168
38.0698 0.311
38.1001 0.497
38.1304 0.944
38.1606 0.401
38.1909 0.691
38.2212 0.305
38.2515 0.492
38.2817 -0.259
38.3120 0.189
38.3423 0.012
38.3726 0.096
38.4029 -0.342
38.4331 -0.053
38.4634 -0.338
38.4937 -0.168
38.5240 0.315
38.5543 -0.191
38.5845 0.500
38.6148 0.723
38.6451 0.373
38.6754 0.440
38.7056 0.247
38.7359 -0.466
38.7662 0.227
38.7965 -0.174
38.8268 0.311
38.8570 0.379
38.8873 0.292
38.9176 0.048
38.9479 0.430
38.9782 0.447
39.0084 0.256
39.0387 0.066
39.0690 0.500
39.0993 1.300
39.1295 0.693
39.1598 -0.017
39.1901 -0.207
39.2204 0.125
39.2507 0.196
39.2809 0.320
39.3112 -0.442
39.3415 -0.277
39.3718 0.200
39.4021 -0.520
39.4323 0.218
39.4626 0.488
39.4929 0.185
39.5232 0.351
39.5534 -0.056
39.5837 0.319
39.6140 -0.244
39.6443 -0.337
39.6746 0.293
39.7048 0.506
39.7351 0.199
39.7654 -0.160
39.7957 0.627
39.8260 0.529
39.8562 0.431
39.8865 -0.031
39.9168 0.132
39.9471 0.556
39.9773 -0.010
40.0076 0.310
40.0379 -0.151
40.0682 0.117
40.0985 0.802
40.1287 0.498
40.1590 0.715
40.1893 0.359
40.2196 0.941
40.2499 0.325
40.2801 -0.134
40.3104 0.292
40.3407 0.094
40.3710 0.364
40.4012 0.427
40.4315 0.020
40.4618 0.344
40.4921 -0.270
40.5224 -0.311
40.5526 0.313
40.5829 0.625
40.6132 -0.001
40.6435 0.416
40.6738 0.780
40.7040 0.572
40.7343 0.312
40.7646 0.417
40.7949 0.106
40.8251 0.003
40.8554 0.785
40.8857 0.110
40.9160 0.528
40.9463 0.009
40.9765 0.689
41.0068 0.222
41.0371 -0.244
41.0674 -0.084
41.0977 -0.238
41.1279 -0.390
41.1582 0.759
41.1885 1.023
41.2188 0.090
41.2491 -0.271
41.2793 -0.277
41.3096 0.654
41.3399 0.544
41.3702 -0.242
41.4004 0.013
41.4307 0.112
41.4610 -0.310
41.4913 0.206
41.5216 -0.267
41.5518 0.458
41.5821 0.193
41.6124 0.762
41.6427 0.238
41.6730 0.547
41.7032 0.127
41.7335 0.228
41.7638 0.694
41.7941 -0.142
41.8243 -0.405
41.8546 0.479
41.8849 0.216
41.9152 0.058
41.9455 -0.256
41.9757 0.525
42.0060 -0.101
42.0363 0.367
42.0666 0.053
42.0969 -0.416
42.1271 0.418
42.1574 0.522
42.1877 0.262
42.2180 -0.467
42.2482 0.159
42.2785 0.108
42.3088 -0.099
42.3391 -0.046
42.3694 0.112
42.3996 0.687
42.4299 0.220
42.4602 0.275
42.4905 -0.191
42.5208 -0.189
42.5510 -0.238
42.5813 0.130
42.6116 0.342
42.6419 -0.071
42.6721 -0.276
42.7024 -0.481
42.7327 0.512
42.7630 -0.005
42.7933 -0.366
42.8235 0.263
42.8538 0.371
42.8841 0.479
42.9144 -0.141
42.9447 0.228
42.9749 0.129
43.0052 0.343
43.0355 0.140
43.0658 -0.427
43.0960 0.047
43.1263 -0.520
43.1566 -0.003
43.1869 0.253
43.2172 -0.220
43.2474 0.245
43.2777 -0.123
43.3080 0.446
43.3383 0.287
43.3686 0.128
43.3988 -0.292
43.4291 0.383
43.4594 -0.557
43.4897 0.587
43.5199 0.481
43.5502 0.271
43.5805 0.165
43.6108 0.477
43.6411 0.111
43.6713 -0.254
43.7016 0.214
43.7319 -0.359
43.7622 0.370
43.7925 -0.047
43.8227 0.110
43.8530 -0.046
43.8833 0.111
43.9136 0.112
43.9439 0.374
43.9741 -0.302
44.0044 -0.196
44.0347 -0.037
44.0650 0.798
44.0952 0.540
44.1255 0.386
44.1558 0.285
44.1861 0.080
44.2164 -0.178
44.2466 0.086
44.2769 -0.118
44.3072 -0.271
44.3375 0.041
44.3678 -0.064
44.3980 0.977
44.4283 -0.013
44.4586 0.195
44.4889 -0.221
44.5191 0.196
44.5494 -0.012
44.5797 0.301
44.6100 -0.427
44.6403 0.147
44.6705 0.669
44.7008 -0.215
44.7311 -0.004
44.7614 0.258
44.7917 0.677
44.8219 0.159
44.8522 0.057
44.8825 0.112
44.9128 0.168
44.9430 0.223
44.9733 0.591
45.0036 0.231
45.0339 -0.234
45.0642 0.656
45.0944 0.139
45.1247 -0.064
45.1550 -0.111
45.1853 0.727
45.2156 0.524
45.2458 0.061
45.2761 0.015
45.3064 0.229
45.3367 -0.441
45.3669 -0.196
45.3972 0.674
45.4275 0.660
45.4578 1.062
45.4881 0.683
45.5183 0.617
45.5486 0.551
45.5789 0.277
45.6092 0.524
45.6395 0.823
45.6697 0.081
45.7000 0.016
45.7303 0.628
45.7606 0.408
45.7908 0.031
45.8211 0.644
45.8514 -0.409
45.8817 0.361
45.9120 -0.067
45.9422 0.599
45.9725 0.119
46.0028 0.786
46.0331 0.463
46.0634 0.193
46.0936 0.287
46.1239 0.538
46.1542 0.893
46.1845 0.207
46.2147 -0.115
46.2450 0.710
46.2753 0.337
46.3056 1.005
46.3359 0.581
46.3661 0.469
46.3964 0.617
46.4267 0.766
46.4570 0.394
46.4873 0.700
46.5175 0.485
46.5478 0.999
46.5781 1.045
46.6084 0.778
46.6386 0.616
46.6689 1.496
46.6992 1.074
46.7295 2.006
46.7598 1.168
46.7900 2.256
46.8203 1.627
46.8506 1.623
46.8809 1.514
46.9112 1.823
46.9414 2.184
46.9717 2.701
47.0020 2.438
47.0323 2.799
47.0626 4.098
47.0928 4.669
47.1231 3.677
47.1534 5.394
47.1837 6.590
47.2139 6.223
47.2442 7.628
47.2745 7.991
47.3048 10.074
47.3351 10.542
47.3653 9.447
47.3956 9.187
47.4259 10.541
47.4562 8.249
47.4865 9.395
47.5167 9.292
47.5470 9.865
47.5773 6.637
47.6076 7.732
47.6378 5.442
47.6681 5.443
47.6984 3.727
47.7287 4.562
47.7590 4.877
47.7892 3.317
47.8195 3.111
47.8498 2.802
47.8801 1.815
47.9104 1.298
47.9406 1.770
47.9709 0.837
48.0012 1.309
48.0315 1.262
48.0617 1.839
48.0920 1.167
48.1223 1.068
48.1526 0.916
48.1829 0.557
48.2131 0.407
48.2434 0.673
48.2737 -0.102
48.3040 0.633
48.3343 0.379
48.3645 0.751
48.3948 0.706
48.4251 0.504
48.4554 0.199
48.4856 0.519
48.5159 0.475
48.5462 0.014
48.5765 0.752
48.6068 -0.177
48.6370 0.092
48.6673 -0.055
48.6976 0.266
48.7279 0.172
48.7582 0.233
48.7884 -0.069
48.8187 0.774
48.8490 0.003
48.8793 0.014
48.9095 -0.132
48.9398 0.400
48.9701 0.463
49.0004 0.162
49.0307 0.122
49.0609 -0.023
49.0912 -0.167
49.1215 0.001
49.1518 0.431
49.1821 0.443
49.2123 0.196
49.2426 0.626
49.2729 0.066
49.3032 -0.129
49.3334 0.823
49.3637 0.420
49.3940 0.070
49.4243 -0.176
49.4546 -0.266
49.4848 0.200
49.5151 -0.325
49.5454 0.557
49.5757 0.242
49.6060 -0.125
49.6362 0.341
49.6665 -0.182
49.6968 0.909
49.7271 0.178
49.7574 -0.292
49.7876 0.071
49.8179 -0.035
49.8482 0.069
49.8785 0.589
49.9087 0.015
49.9390 0.223
49.9693 0.483
49.9996 0.275
50.0299 0.171
50.0601 -0.036
50.0904 0.121
50.1207 -0.295
50.1510 0.383
50.1813 0.541
50.2115 0.022
50.2418 -0.185
50.2721 0.286
50.3024 -0.232
50.3326 -0.022
50.3629 0.294
50.3932 0.453
50.4235 -0.013
50.4538 0.460
50.4840 0.307
50.5143 0.415
50.5446 0.054
50.5749 0.319
50.6052 0.063
50.6354 -0.244
50.6657 -0.083
50.6960 -0.078
50.7263 0.657
50.7565 0.402
50.7868 -0.269
50.8171 0.674
50.8474 0.160
50.8777 -0.042
50.9079 0.017
50.9382 0.284
50.9685 0.083
50.9988 -0.118
51.0291 0.306
51.0593 0.418
51.0896 0.530
51.1199 0.122
51.1502 0.443
51.1804 0.087
51.2107 0.148
51.2410 -0.103
51.2713 -0.250
51.3016 -0.205
51.3318 0.361
51.3621 0.146
51.3924 0.973
51.4227 -0.283
51.4530 0.649
51.4832 0.330
51.5135 0.273
51.5438 0.215
51.5741 0.262
51.6043 0.674
51.6346 0.044
51.6649 0.196
51.6952 0.036
51.7255 -0.072
51.7557 0.445
51.7860 0.181
51.8163 -0.031
51.8466 0.539
51.8769 0.171
51.9071 0.690
51.9374 0.270
51.9677 0.737
51.9980 0.162
52.0282 -0.204
52.0585 0.940
52.0888 -0.155
52.1191 -0.312
52.1494 0.416
52.1796 -0.054
52.2099 0.154
52.2402 -0.158
52.2705 0.467
52.3008 -0.054
52.3310 0.363
52.3613 -0.522
52.3916 0.417
52.4219 -0.051
52.4521 0.107
52.4824 0.160
52.5127 0.214
52.5430 0.320
52.5733 0.323
52.6035 0.012
52.6338 0.276
52.6641 0.331
52.6944 0.021
52.7247 0.077
52.7549 -0.389
52.7852 0.813
52.8155 0.088
52.8458 0.092
52.8761 0.409
52.9063 0.466
52.9366 0.262
52.9669 -0.306
52.9972 -0.144
53.0274 0.226
53.0577 0.284
53.0880 0.186
53.1183 0.140
53.1486 -0.114
53.1788 0.726
53.2091 -0.413
53.2394 -0.250
53.2697 0.258
53.3000 0.505
53.3302 0.232
53.3605 0.219
53.3908 0.155
53.4211 0.143
53.4513 0.600
53.4816 0.536
53.5119 0.524
53.5422 0.409
53.5725 -0.175
53.6027 0.283
53.6330 0.220
53.6633 0.054
53.6936 0.512
53.7239 0.242
53.7541 -0.028
53.7844 0.171
53.8147 0.474
53.8450 0.152
53.8752 -0.065
53.9055 -0.334
53.9358 0.439
53.9661 -0.246
53.9964 0.683
54.0266 0.363
54.0569 0.512
54.0872 0.140
54.1175 0.341
54.1478 -0.134
54.1780 0.328
54.2083 -0.199
54.2386 0.055
54.2689 0.413
54.2991 -0.269
54.3294 0.142
54.3597 0.136
54.3900 -0.442
54.4203 -0.094
54.4505 0.461
54.4808 0.236
54.5111 0.583
54.5414 0.202
54.5717 0.446
54.6019 0.065
54.6322 0.726
54.6625 -0.227
54.6928 -0.295
54.7230 -0.205
54.7533 -0.010
54.7836 -0.701
54.8139 0.431
54.8442 0.366
54.8744 0.144
54.9047 0.860
54.9350 0.275
54.9653 0.575
54.9956 0.459
55.0258 0.342
55.0561 -0.242
55.0864 0.059
55.1167 0.360
55.1469 0.192
55.1772 -0.079
55.2075 0.588
55.2378 0.577
55.2681 0.931
55.2983 0.349
55.3286 0.807
55.3589 0.433
55.3892 0.268
55.4195 0.779
55.4497 0.302
55.4800 0.814
55.5103 0.545
55.5406 0.641
55.5709 0.320
55.6011 0.886
55.6314 1.451
55.6617 1.600
55.6920 0.707
55.7222 0.909
55.7525 1.840
55.7828 1.989
55.8131 2.296
55.8434 1.404
55.8736 2.127
55.9039 1.914
55.9342 2.689
55.9645 3.049
55.9948 3.565
56.0250 3.352
56.0553 3.608
56.0856 4.437
56.1159 4.745
56.1461 5.679
56.1764 6.405
56.2067 6.557
56.2370 7.283
56.2673 8.947
56.2975 8.788
56.3278 10.817
56.3581 10.606
56.3884 11.594
56.4187 13.207
56.4489 14.299
56.4792 13.308
56.5095 12.473
56.5398 13.202
56.5700 12.941
56.6003 11.430
56.6306 8.929
56.6609 7.888
56.6912 7.784
56.7214 6.951
56.7517 5.128
56.7820 6.536
56.8123 5.807
56.8426 4.871
56.8728 3.987
56.9031 3.885
56.9334 2.012
56.9637 4.358
56.9939 2.641
57.0242 1.863
57.0545 3.480
57.0848 1.764
57.1151 1.403
57.1453 1.407
57.1756 1.567
57.2059 1.102
57.2362 0.689
57.2665 1.371
57.2967 0.959
57.3270 0.755
57.3573 0.552
57.3876 0.557
57.4178 0.094
57.4481 0.152
57.4784 0.106
57.5087 0.580
57.5390 0.170
57.5692 0.229
57.5995 -0.129
57.6298 0.191
57.6601 0.042
57.6904 0.257
57.7206 0.265
57.7509 -0.039
57.7812 0.073
57.8115 -0.127
57.8417 -0.118
57.8720 0.307
57.9023 0.420
57.9326 -0.248
57.9629 -0.186
57.9931 -0.124
58.0234 0.094
58.0537 -0.312
58.0840 -0.149
58.1143 -0.245
58.1445 -0.081
58.1748 -0.125
58.2051 -0.273
58.2354 -0.265
58.2656 -0.308
58.2959 -0.040
58.3262 0.071
58.3565 0.079
58.3868 -0.017
58.4170 -0.009
58.4473 -0.261
58.4776 0.217
58.5079 -0.295
58.5382 0.079
58.5684 0.557
58.5987 -0.215
58.6290 0.264
58.6593 -0.299
58.6896 -0.290
58.7198 0.031
58.7501 0.562
58.7804 0.259
58.8107 -0.356
58.8409 0.227
58.8712 -0.388
58.9015 0.300
58.9318 0.415
58.9621 -0.304
58.9923 0.280
59.0226 -0.125
59.0529 0.408
59.0832 -0.049
59.1135 -0.245
59.1437 -0.285
59.1740 0.185
59.2043 -0.229
59.2346 -0.174
59.2648 0.037
59.2951 -0.169
59.3254 -0.270
59.3557 0.202
59.3860 0.310
59.4162 0.105
59.4465 0.422
59.4768 0.166
59.5071 -0.038
59.5374 0.279
59.5676 0.127
59.5979 0.289
59.6282 -0.331
59.6585 -0.169
59.6887 0.358
59.7190 0.103
59.7493 0.422
59.7796 0.584
59.8099 -0.190
59.8401 -0.235
59.8704 0.293
59.9007 -0.377
59.9310 0.568
59.9613 -0.101
59.9915 0.636
60.0218 -0.189
60.0521 -0.285
60.0824 0.234
60.1126 0.337
60.1429 0.231
60.1732 -0.134
60.2035 0.386
60.2338 0.437
60.2640 0.072
60.2943 -0.188
60.3246 0.177
60.3549 0.229
60.3852 0.490
60.4154 -0.134
60.4457 -0.237
60.4760 0.232
60.5063 0.390
60.5365 0.340
60.5668 0.342
60.5971 -0.073
60.6274 0.034
60.6577 -0.381
60.6879 0.247
60.7182 -0.271
60.7485 -0.271
60.7788 -0.182
60.8091 0.375
60.8393 1.193
60.8696 -0.229
60.8999 0.434
60.9302 0.419
60.9604 -0.012
60.9907 0.234
61.0210 0.428
61.0513 0.154
61.0816 -0.016
61.1118 -0.029
61.1421 0.686
61.1724 -0.316
61.2027 0.817
61.2330 -0.081
61.2632 0.271
61.2935 0.363
61.3238 -0.169
61.3541 -0.077
61.3844 0.120
61.4146 0.265
61.4449 -0.110
61.4752 -0.017
61.5055 0.650
61.5357 0.327
61.5660 0.056
61.5963 -0.214
61.6266 0.349
61.6569 0.496
61.6871 0.227
61.7174 0.582
61.7477 0.834
61.7780 0.461
61.8083 0.452
61.8385 0.184
61.8688 0.593
61.8991 0.793
61.9294 0.473
61.9596 0.570
61.9899 0.251
62.0202 1.650
62.0505 1.019
62.0808 1.221
62.1110 0.746
62.1413 0.948
62.1716 2.505
62.2019 1.979
62.2322 2.703
62.2624 2.698
62.2927 2.849
62.3230 3.574
62.3533 3.466
62.3835 3.253
62.4138 4.135
62.4441 5.746
62.4744 4.961
62.5047 6.364
62.5349 7.871
62.5652 8.337
62.5955 8.751
62.6258 9.478
62.6561 8.070
62.6863 11.037
62.7166 8.848
62.7469 9.836
62.7772 9.782
62.8074 9.573
62.8377 10.353
62.8680 9.415
62.8983 7.384
62.9286 7.800
62.9588 7.228
62.9891 6.134
63.0194 5.353
63.0497 4.938
63.0800 4.678
63.1102 4.679
63.1405 3.222
63.1708 2.964
63.2011 2.549
63.2313 2.186
63.2616 2.501
63.2919 2.035
63.3222 2.819
63.3525 1.989
63.3827 0.794
63.4130 1.214
63.4433 1.061
63.4736 0.701
63.5039 1.017
63.5341 1.230
63.5644 0.818
63.5947 0.458
63.6250 0.723
63.6552 0.156
63.6855 -0.308
63.7158 0.323
63.7461 0.537
63.7764 0.022
63.8066 0.341
63.8369 -0.173
63.8672 0.250
63.8975 -0.160
63.9278 -0.152
63.9580 0.011
63.9883 0.227
64.0186 -0.129
64.0489 0.243
64.0791 0.095
64.1094 0.052
64.1397 -0.252
64.1700 -0.087
64.2003 0.183
64.2305 -0.068
64.2608 0.670
64.2911 -0.309
64.3214 -0.299
64.3517 0.285
64.3819 0.088
64.4122 -0.890
64.4425 0.111
64.4728 -0.815
64.5031 0.448
64.5333 -0.009
64.5636 0.577
64.5939 0.225
64.6242 -0.126
64.6544 -0.217
64.6847 0.421
64.7150 -0.190
64.7453 -0.020
64.7756 -0.474
64.8058 0.321
64.8361 0.023
64.8664 0.351
64.8967 -0.363
64.9270 -0.319
64.9572 0.454
64.9875 0.498
65.0178 0.282
65.0481 -0.142
65.0783 -0.513
65.1086 0.261
65.1389 0.098
65.1692 -0.117
65.1995 -0.019
65.2297 -0.285
65.2600 0.062
65.2903 -0.111
65.3206 0.184
65.3509 0.168
65.3811 0.360
65.4114 -0.125
65.4417 -0.401
65.4720 0.573
65.5022 0.140
65.5325 0.125
65.5628 -0.046
65.5931 0.199
65.6234 0.185
65.6536 -0.142
65.6839 0.365
65.7142 0.247
65.7445 0.129
65.7748 -0.093
65.8050 -0.419
65.8353 0.297
65.8656 0.701
65.8959 0.584
65.9261 0.572
65.9564 0.872
65.9867 0.808
66.0170 0.744
66.0473 1.306
66.0775 0.253
66.1078 0.815
66.1381 0.179
66.1684 1.054
66.1987 0.887
66.2289 1.398
66.2592 1.180
66.2895 0.336
66.3198 1.629
66.3500 1.151
66.3803 0.882
66.4106 0.716
66.4409 0.708
66.4712 0.491
66.5014 0.952
66.5317 0.267
66.5620 -0.001
66.5923 0.043
66.6226 0.869
66.6528 1.279
66.6831 0.907
66.7134 0.744
66.7437 0.321
66.7739 0.524
66.8042 0.361
66.8345 -0.061
66.8648 0.142
66.8951 0.970
66.9253 0.288
66.9556 -0.342
66.9859 1.059
67.0162 0.222
67.0465 1.103
67.0767 0.474
67.1070 1.095
67.1373 1.248
67.1676 0.776
67.1978 0.773
67.2281 0.822
67.2584 0.976
67.2887 1.182
67.3190 2.325
67.3492 2.480
67.3795 2.113
67.4098 2.580
67.4401 2.944
67.4704 2.370
67.5006 3.358
67.5309 4.399
67.5612 4.555
67.5915 5.441
67.6218 5.232
67.6520 5.597
67.6823 5.181
67.7126 5.859
67.7429 6.120
67.7731 6.694
67.8034 7.424
67.8337 7.582
67.8640 7.428
67.8943 6.388
67.9245 6.963
67.9548 6.080
67.9851 6.708
68.0154 5.565
68.0457 6.610
68.0759 4.374
68.1062 4.221
68.1365 4.641
68.1668 4.020
68.1970 3.504
68.2273 2.310
68.2576 3.044
68.2879 2.164
68.3182 2.481
68.3484 2.695
68.3787 2.180
68.4090 1.613
68.4393 2.504
68.4696 2.562
68.4998 1.423
68.5301 2.680
68.5604 2.426
68.5907 1.444
68.6209 1.399
68.6512 3.021
68.6815 2.143
68.7118 2.099
68.7421 2.420
68.7723 2.689
68.8026 3.323
68.8329 2.394
68.8632 3.809
68.8935 3.298
68.9237 3.984
68.9540 2.796
68.9843 2.546
69.0146 2.973
69.0448 2.358
69.0751 3.567
69.1054 2.432
69.1357 2.547
69.1660 1.725
69.1962 2.049
69.2265 1.644
69.2568 1.344
69.2871 0.783
69.3174 1.681
69.3476 1.902
69.3779 1.290
69.4082 0.938
69.4385 1.316
69.4687 0.809
69.4990 0.822
69.5293 0.628
69.5596 0.382
69.5899 0.813
69.6201 0.515
69.6504 0.374
69.6807 0.597
69.7110 0.300
69.7413 0.836
69.7715 0.227
69.8018 0.087
69.8321 -0.053
69.8624 0.119
69.8926 0.448
69.9229 -0.108
69.9532 -0.091
69.9835 0.239
70.0138 -0.056
70.0440 -0.038
70.0743 -0.280
70.1046 -0.168
70.1349 -0.367
70.1652 0.528
70.1954 -0.244
70.2257 0.339
70.2560 0.088
70.2863 0.098
70.3166 -0.048
70.3468 -0.037
70.3771 0.078
70.4074 0.089
70.4377 0.100
70.4679 -0.045
70.4982 0.019
70.5285 0.343
70.5588 -0.166
70.5891 -0.049
70.6193 -0.141
70.6496 0.184
70.6799 0.197
70.7102 -0.310
70.7405 -0.088
70.7707 0.290
70.8010 0.200
70.8313 -0.255
70.8616 -0.248
70.8918 -0.084
70.9221 -0.492
70.9524 0.506
70.9827 0.306
71.0130 0.106
71.0432 0.323
71.0735 -0.292
71.1038 0.342
71.1341 -0.117
71.1644 -0.107
71.1946 0.215
71.2249 -0.139
71.2552 -0.337
71.2855 0.179
71.3157 0.382
71.3460 -0.612
71.3763 0.218
71.4066 0.213
71.4369 -0.259
71.4671 -0.159
71.4974 0.358
71.5277 0.302
71.5580 0.091
71.5883 0.452
71.6185 0.553
71.6488 -0.022
71.6791 0.184
71.7094 -0.392
71.7396 0.283
71.7699 -0.135
71.8002 0.332
71.8305 -0.086
71.8608 -0.035
71.8910 -0.192
71.9213 0.380
71.9516 0.484
71.9819 0.119
72.0122 0.379
72.0424 0.067
72.0727 -0.089
72.1030 0.224
72.1333 0.225
72.1635 0.538
72.1938 0.331
72.2241 0.073
72.2544 0.803
72.2847 0.649
72.3149 0.287
72.3452 0.549
72.3755 0.292
72.4058 0.190
72.4361 0.558
72.4663 0.457
72.4966 0.929
72.5269 0.152
72.5572 0.729
72.5874 0.472
72.6177 0.477
72.6480 0.690
72.6783 0.590
72.7086 0.439
72.7388 -0.181
72.7691 0.189
72.7994 0.403
72.8297 0.149
72.8600 -0.314
72.8902 0.318
72.9205 -0.092
72.9508 0.539
72.9811 0.494
73.0113 -0.071
73.0416 0.249
73.0719 -0.108
73.1022 0.108
73.1325 -0.040
73.1627 0.281
73.1930 -0.023
73.2233 0.194
73.2536 -0.526
73.2839 -0.100
73.3141 -0.039
73.3444 0.179
73.3747 0.033
73.4050 -0.217
73.4353 0.106
73.4655 0.220
73.4958 0.387
73.5261 -0.122
73.5564 0.097
73.5866 0.265
73.6169 0.068
73.6472 -0.128
73.6775 0.405
73.7078 0.105
73.7380 0.013
73.7683 0.390
73.7986 -0.378
73.8289 -0.208
73.8592 0.200
73.8894 0.191
73.9197 -0.026
73.9500 0.643
73.9803 -0.042
74.0105 0.263
74.0408 -0.005
74.0711 0.144
74.1014 -0.123
74.1317 0.287
74.1619 0.541
74.1922 0.014
74.2225 0.424
74.2528 0.106
74.2831 -0.316
74.3133 0.199
74.3436 0.142
74.3739 0.032
74.4042 -0.129
74.4344 -0.185
74.4647 0.279
74.4950 0.067
74.5253 0.011
74.5556 -0.149
74.5858 -0.100
74.6161 0.000
74.6464 -0.055
74.6767 0.359
74.7070 -0.581
74.7372 0.094
74.7675 -0.221
74.7978 0.507
74.8281 0.297
74.8583 0.139
74.8886 0.554
74.9189 0.449
74.9492 -0.072
74.9795 0.552
75.0097 -0.073
75.0400 0.395
75.0703 0.604
75.1006 0.239
75.1309 -0.073
75.1611 -0.072
75.1914 -0.227
75.2217 0.080
75.2520 0.336
75.2822 -0.190
75.3125 0.327
75.3428 0.010
75.3731 0.110
75.4034 0.002
75.4336 -0.106
75.4639 0.151
75.4942 -0.008
75.5245 0.145
75.5548 -0.066
75.5850 -0.120
75.6153 -0.175
75.6456 0.500
75.6759 -0.074
75.7061 0.236
75.7364 0.235
75.7667 -0.495
75.7970 0.285
75.8273 -0.080
75.8575 -0.081
75.8878 -0.133
75.9181 0.284
75.9484 -0.550
75.9787 0.649
76.0089 -0.132
76.0392 -0.183
76.0695 -0.182
76.0998 -0.233
76.1301 -0.081
76.1603 0.228
76.1906 0.068
76.2209 0.169
76.2512 0.426
76.2814 -0.150
76.3117 -0.101
76.3420 -0.103
76.3723 0.572
76.4026 0.049
76.4328 -0.578
76.4631 0.722
76.4934 -0.269
76.5237 0.459
76.5540 0.354
76.5842 0.145
76.6145 0.717
76.6448 0.092
76.6751 0.873
76.7053 0.665
76.7356 0.561
76.7659 0.353
76.7962 0.823
76.8265 0.667
76.8567 0.721
76.8870 0.618
76.9173 0.828
76.9476 0.205
76.9779 0.624
77.0081 0.626
77.0384 0.628
77.0687 0.788
77.0990 0.374
77.1292 0.429
77.1595 0.380
77.1898 0.749
77.2201 0.284
77.2504 0.132
77.2806 -0.072
77.3109 0.453
77.3412 -0.011
77.3715 0.254
77.4018 0.155
77.4320 -0.047
77.4623 0.427
77.4926 -0.036
77.5229 0.126
77.5531 0.341
77.5834 -0.069
77.6137 -0.062
77.6440 0.622
77.6743 0.108
77.7045 -0.093
77.7348 0.436
77.7651 0.235
77.7954 -0.121
77.8257 0.095
77.8559 0.156
77.8862 0.113
77.9165 -0.035
77.9468 0.443
77.9770 -0.276
78.0073 -0.215
78.0376 0.199
78.0679 0.457
78.0982 0.142
78.1284 0.453
78.1587 0.034
78.1890 -0.176
78.2193 0.031
78.2496 -0.022
78.2798 0.237
78.3101 0.133
78.3404 0.080
78.3707 0.132
78.4009 0.184
78.4312 -0.337
78.4615 -0.132
78.4918 -0.082
78.5221 0.488
78.5523 0.226
78.5826 -0.089
78.6129 -0.038
78.6432 -0.144
78.6735 0.063
78.7037 0.062
78.7340 -0.043
78.7643 -0.200
78.7946 -0.044
78.8248 0.216
78.8551 0.164
78.8854 0.060
78.9157 0.217
78.9460 0.269
78.9762 0.166
79.0065 0.063
79.0368 -0.248
79.0671 0.222
79.0974 0.224
79.1276 0.382
79.1579 0.020
79.1882 0.074
79.2185 0.337
79.2488 0.236
79.2790 0.135
79.3093 0.191
79.3396 0.402
79.3699 0.094
79.4001 -0.007
79.4304 0.519
79.4607 0.002
79.4910 -0.045
79.5213 -0.197
79.5515 -0.035
79.5818 -0.082
79.6121 -0.285
79.6424 0.128
79.6727 0.334
79.7029 -0.086
79.7332 0.484
79.7635 0.222
79.7938 -0.093
79.8240 0.009
79.8543 0.111
79.8846 0.110
79.9149 0.109
79.9452 0.107
79.9754 0.419
80.0057 0.939
80.0360 0.105
80.0663 0.366
80.0966 0.105
80.1268 0.262
80.1571 0.054
80.1874 -0.050
80.2177 0.316
80.2479 0.161
80.2782 0.162
80.3085 0.111
80.3388 0.530
80.3691 0.063
80.3993 -0.039
80.4296 0.120
80.4599 -0.086
80.4902 0.125
80.5205 -0.080
80.5507 -0.233
80.5810 0.125
80.6113 0.118
80.6416 0.007
80.6718 -0.052
80.7021 0.099
80.7324 -0.376
80.7627 0.295
80.7930 0.342
80.8232 0.284
80.8535 0.383
80.8838 0.430
80.9141 0.061
80.9444 0.525
80.9746 -0.052
81.0049 0.569
81.0352 0.618
81.0655 0.614
81.0957 0.194
81.1260 0.764
81.1563 -0.281
81.1866 0.185
81.2169 0.287
81.2471 0.597
81.2774 0.804
81.3077 0.854
81.3380 0.592
81.3683 0.434
81.3985 0.746
81.4288 0.380
81.4591 0.536
81.4894 0.223
81.5196 0.327
81.5499 1.004
81.5802 -0.142
81.6105 0.067
81.6408 0.588
81.6710 0.433
81.7013 -0.035
81.7316 0.175
81.7619 0.281
81.7922 0.491
81.8224 0.337
81.8527 0.443
81.8830 0.133
81.9133 -0.073
81.9436 0.086
81.9738 0.610
82.0041 0.041
82.0344 0.096
82.0647 -0.004
82.0949 0.729
82.1252 0.004
82.1555 0.373
82.1858 0.325
82.2161 -0.034
82.2463 -0.081
82.2766 0.132
82.3069 -0.175
82.3372 0.196
82.3675 0.670
82.3977 0.156
82.4280 -0.150
82.4583 -0.196
82.4886 -0.085
82.5188 0.131
82.5491 0.294
82.5794 0.093
82.6097 0.153
82.6400 -0.151
82.6702 0.482
82.7005 -0.135
82.7308 -0.074
82.7611 -0.065
82.7914 0.100
82.8216 0.682
82.8519 -0.142
82.8822 0.285
82.9125 -0.018
82.9427 -0.112
82.9730 0.055
83.0033 -0.195
83.0336 -0.046
83.0639 -0.001
83.0941 -0.164
83.1244 0.141
83.1547 0.083
83.1850 0.128
83.2153 0.435
83.2455 0.116
83.2758 0.371
83.3061 0.001
83.3364 -0.004
83.3666 0.251
83.3969 0.142
83.4272 0.033
83.4575 0.133
83.4878 0.181
83.5180 -0.135
83.5483 0.278
83.5786 -0.403
83.6089 0.063
83.6392 0.216
83.6694 0.578
83.6997 0.523
83.7300 0.625
83.7603 0.154
83.7905 -0.213
83.8208 0.202
83.8511 0.201
83.8814 0.512
83.9117 -0.114
83.9419 -0.219
83.9722 0.249
84.0025 0.353
84.0328 0.040
84.0631 -0.272
84.0933 0.041
84.1236 -0.063
84.1539 -0.062
84.1842 -0.426
84.2144 0.513
84.2447 0.514
84.2750 0.151
84.3053 -0.315
84.3356 0.051
84.3658 0.574
84.3961 -0.204
84.4264 -0.098
84.4567 0.010
84.4870 0.169
84.5172 0.329
84.5475 0.228
84.5778 -0.028
84.6081 -0.337
84.6383 0.077
84.6686 -0.446
84.6989 0.593
84.7292 -0.086
84.7595 0.017
84.7897 0.119
84.8200 0.118
84.8503 0.378
84.8806 -0.092
84.9109 -0.197
84.9411 -0.041
84.9714 0.063
85.0017 0.167
85.0320 0.272
85.0623 -0.040
85.0925 0.117
85.1228 0.013
85.1531 0.535
85.1834 -0.140
85.2136 0.122
85.2439 -0.293
85.2742 0.177
85.3045 0.024
85.3348 0.547
85.3650 0.133
85.3953 0.136
85.4256 0.139
85.4559 -0.118
85.4862 -0.271
85.5164 0.462
85.5467 -0.107
85.5770 -0.259
85.6073 0.151
85.6375 0.196
85.6678 -0.071
85.6981 -0.129
85.7284 0.073
85.7587 0.380
85.7889 0.062
85.8192 -0.048
85.8495 0.103
85.8798 0.307
85.9101 -0.167
85.9403 -0.067
85.9706 0.345
86.0009 0.081
86.0312 0.441
86.0614 0.021
86.0917 -0.347
86.1220 0.587
86.1523 -0.040
86.1826 0.165
86.2128 0.423
86.2431 -0.204
86.2734 -0.102
86.3037 -0.052
86.3340 0.103
86.3642 0.466
86.3945 -0.369
86.4248 -0.109
86.4551 -0.214
86.4853 -0.215
86.5156 -0.215
86.5459 0.197
86.5762 0.452
86.6065 -0.178
86.6367 -0.182
86.6670 0.126
86.6973 0.695
86.7276 0.170
86.7579 0.166
86.7881 0.058
86.8184 -0.049
86.8487 0.104
86.8790 0.101
86.9092 0.463
86.9395 -0.268
86.9698 0.355
87.0001 0.040
87.0304 -0.066
87.0606 0.193
87.0909 0.036
87.1212 -0.017
87.1515 -0.174
87.1818 -0.175
87.2120 -0.071
87.2423 0.241
87.2726 -0.332
87.3029 0.033
87.3331 0.138
87.3634 0.295
87.3937 0.244
87.4240 0.505
87.4543 -0.223
87.4845 -0.221
87.5148 0.193
87.5451 0.087
87.5754 -0.019
87.6057 0.136
87.6359 0.291
87.6662 0.602
87.6965 0.393
87.7268 -0.441
87.7571 0.288
87.7873 -0.181
87.8176 0.027
87.8479 -0.285
87.8782 0.016
87.9084 0.056
87.9387 -0.060
87.9690 -0.227
87.9993 -0.030
88.0296 0.167
88.0598 0.364
88.0901 0.458
88.1204 -0.282
88.1507 0.281
88.1810 -0.042
88.2112 -0.104
88.2415 0.355
88.2718 0.398
88.3021 0.285
88.3323 0.380
88.3626 0.371
88.3929 -0.106
88.4232 -0.375
88.4535 0.242
88.4837 0.182
88.5140 0.175
88.5443 0.428
88.5746 0.212
88.6049 0.049
88.6351 0.198
88.6654 -0.068
88.6957 0.238
88.7260 -0.289
88.7562 0.070
88.7865 0.064
88.8168 0.527
88.8471 0.418
88.8774 0.361
88.9076 0.096
88.9379 0.247
88.9682 0.087
88.9985 0.343
89.0288 0.183
89.0590 0.179
89.0893 0.488
89.1196 0.798
89.1499 0.586
89.1801 1.052
89.2104 0.685
89.2407 0.995
89.2710 0.629
89.3013 0.314
89.3315 1.302
89.3618 1.093
89.3921 1.456
89.4224 2.028
89.4527 1.767
89.4829 0.464
89.5132 0.672
89.5435 1.662
89.5738 0.776
89.6040 1.610
89.6343 1.506
89.6646 1.663
89.6949 0.362
89.7252 0.468
89.7554 1.198
89.7857 0.992
89.8160 1.671
89.8463 0.787
89.8766 0.425
89.9068 0.532
89.9371 0.899
89.9674 0.798
89.9977 0.385
90.0279 1.013
90.0582 0.444
90.0885 0.396
90.1188 0.087
90.1491 0.196
90.1793 0.200
90.2096 0.257
90.2399 0.418
90.2702 0.163
90.3005 0.585
90.3307 0.330
90.3610 0.649
90.3913 -0.126
90.4216 -0.016
90.4518 0.251
90.4821 0.258
90.5124 0.109
90.5427 0.272
90.5730 -0.033
90.6032 0.287
90.6335 -0.122
90.6638 -0.270
90.6941 0.311
90.7244 0.112
90.7546 0.016
90.7849 -0.391
90.8152 0.347
90.8455 0.200
90.8758 -0.259
90.9060 -0.145
90.9363 0.022
90.9666 -0.072
90.9969 0.043
91.0271 -0.259
91.0574 0.000
91.0877 0.051
91.1180 -0.314
91.1483 0.102
91.1785 0.049
91.2088 -0.055
91.2391 0.101
91.2694 -0.628
91.2997 0.154
91.3299 -0.262
91.3602 0.103
91.3905 0.261
91.4208 0.106
91.4510 -0.309
91.4813 0.005
91.5116 0.268
91.5419 -0.251
91.5722 -0.144
91.6024 0.015
91.6327 0.122
91.6630 0.073
91.6933 -0.080
91.7236 -0.233
91.7538 0.121
91.7841 -0.098
91.8144 0.204
91.8447 0.402
91.8749 -0.076
91.9052 0.070
91.9355 0.373
91.9658 0.208
91.9961 -0.062
92.0263 -0.122
92.0566 -0.131
92.0869 -0.035
92.1172 0.061
92.1475 0.209
92.1777 0.879
92.2080 -0.014
92.2383 0.447
92.2686 -0.185
92.2988 0.225
92.3291 0.791
92.3594 -0.361
92.3897 -0.159
92.4200 0.461
92.4502 0.767
92.4805 0.501
92.5108 0.132
92.5411 0.283
92.5714 0.278
92.6016 0.273
92.6319 -0.043
92.6622 0.682
92.6925 -0.051
92.7227 -0.159
92.7530 0.671
92.7833 0.928
92.8136 0.091
92.8439 0.245
92.8741 -0.122
92.9044 0.188
92.9347 0.654
92.9650 -0.077
92.9953 0.078
93.0255 0.545
93.0558 -0.029
93.0861 -0.134
93.1164 0.125
93.1466 0.229
93.1769 -0.344
93.2072 -0.136
93.2375 0.124
93.2678 0.072
93.2980 0.229
93.3283 -0.343
93.3586 0.231
93.3889 -0.185
93.4192 0.025
93.4494 -0.025
93.4797 -0.232
93.5100 -0.230
93.5403 0.085
93.5706 -0.121
93.6008 -0.014
93.6311 0.093
93.6614 0.096
93.6917 -0.161
93.7219 0.312
93.7522 -0.257
93.7825 -0.045
93.8128 0.376
93.8431 -0.713
93.8733 0.021
93.9036 0.546
93.9339 0.291
93.9642 -0.172
93.9945 0.250
94.0247 0.047
94.0550 -0.467
94.0853 -0.005
94.1156 -0.115
94.1458 0.296
94.1761 -0.074
94.2064 0.285
94.2367 0.228
94.2670 0.015
94.2972 -0.250
94.3275 -0.204
94.3578 0.623
94.3881 -0.112
94.4184 0.247
94.4486 0.033
94.4789 0.080
94.5092 0.648
94.5395 0.226
94.5697 -0.039
94.6000 0.686
94.6303 0.422
94.6606 0.418
94.6909 0.414
94.7211 0.358
94.7514 0.511
94.7817 0.300
94.8120 0.662
94.8423 1.336
94.8725 0.188
94.9028 0.915
94.9331 1.069
94.9634 0.911
94.9936 1.014
95.0239 1.638
95.0542 0.491
95.0845 0.698
95.1148 1.167
95.1450 1.166
95.1753 0.958
95.2056 1.531
95.2359 1.687
95.2662 1.323
95.2964 1.063
95.3267 1.116
95.3570 1.170
95.3873 1.067
95.4175 1.641
95.4478 0.862
95.4781 1.281
95.5084 1.075
95.5387 0.921
95.5689 0.611
95.5992 0.718
95.6295 0.826
95.6598 0.569
95.6901 0.989
95.7203 0.993
95.7506 0.528
95.7809 0.324
95.8112 0.901
95.8414 0.541
95.8717 0.442
95.9020 0.291
95.9323 0.973
95.9626 0.094
95.9928 -0.213
96.0231 -0.259
96.0534 0.266
96.0837 0.114
96.1140 -0.037
96.1442 -0.188
96.1745 0.077
96.2048 0.031
96.2351 -0.068
96.2653 0.199
96.2956 0.101
96.3259 -0.153
96.3562 -0.147
96.3865 -0.140
96.4167 0.388
96.4470 0.447
96.4773 0.038
96.5076 0.046
96.5379 -0.259
96.5681 0.582
96.5984 -0.190
96.6287 0.443
96.6590 -0.017
96.6893 0.201
96.7195 -0.311
96.7498 -0.161
96.7801 0.198
96.8104 0.036
96.8406 -0.074
96.8709 -0.079
96.9012 -0.137
96.9315 0.067
96.9618 0.427
96.9920 0.214
97.0223 0.210
97.0526 -0.107
97.0829 -0.006
97.1132 -0.218
97.1434 -0.117
97.1737 -0.537
97.2040 0.189
97.2343 0.291
97.2645 -0.389
97.2948 0.026
97.3251 -0.237
97.3554 0.022
97.3857 0.176
97.4159 0.071
97.4462 0.122
97.4765 -0.244
97.5068 0.120
97.5371 0.745
97.5673 -0.037
97.5976 0.120
97.6279 -0.193
97.6582 -0.244
97.6884 0.118
97.7187 0.115
97.7490 0.009
97.7793 -0.149
97.8096 -0.203
97.8398 -0.308
97.8701 0.316
97.9004 -0.154
97.9307 -0.311
97.9610 0.207
97.9912 -0.160
98.0215 0.359
98.0518 0.305
98.0821 0.199
98.1123 0.250
98.1426 0.405
98.1729 0.248
98.2032 0.768
98.2335 -0.170
98.2637 0.247
98.2940 0.351
98.3243 0.351
98.3546 0.560
98.3849 0.716
98.4151 0.561
98.4454 0.145
98.4757 0.303
98.5060 0.409
98.5362 0.619
98.5665 1.089
98.5968 0.779
98.6271 0.417
98.6574 1.096
98.6876 0.787
98.7179 0.894
98.7482 0.897
98.7785 0.432
98.8088 0.957
98.8390 0.440
98.8693 0.548
98.8996 0.761
98.9299 0.297
98.9601 0.458
98.9904 0.150
99.0207 0.155
99.0510 0.369
99.0813 0.167
99.1115 0.641
99.1418 0.804
99.1721 0.498
99.2024 -0.381
99.2327 0.251
99.2629 -0.159
99.2932 -0.048
99.3235 0.376
99.3538 -0.189
99.3841 -0.233
99.4143 0.130
99.4446 0.546
99.4749 0.181
99.5052 -0.080
99.5354 -0.133
99.5657 0.336
99.5960 0.492
99.6263 -0.341
99.6566 -0.080
99.6868 -0.079
99.7171 0.183
99.7474 -0.233
99.7777 -0.232
99.8080 -0.335
99.8382 0.551
99.8685 -0.333
99.8988 0.398
99.9291 0.243
99.9593 0.350
99.9896 0.039
100.0199 0.146
100.0502 -0.164
100.0805 -0.161
100.1107 -0.001
100.1410 -0.102
100.1713 0.110
100.2016 0.113
100.2319 0.274
100.2621 0.070
100.2924 0.022
100.3227 0.183
100.3530 0.084
100.3832 0.089
100.4135 0.407
100.4438 -0.213
100.4741 -0.259
100.5044 0.265
100.5346 0.060
100.5649 0.428
100.5952 0.588
100.6255 -0.137
100.6558 0.128
100.6860 0.132
100.7163 0.189
100.7466 0.142
100.7769 0.147
100.8071 -0.056
100.8374 -0.311
100.8677 0.105
100.8980 0.261
100.9283 -0.051
100.9585 -0.103
100.9888 0.158
101.0191 0.106
101.0494 0.055
101.0797 -0.256
101.1099 0.214
101.1402 -0.097
101.1705 0.009
101.2008 0.376
101.2310 -0.091
101.2613 0.068
101.2916 0.122
101.3219 0.542
101.3522 0.649
101.3824 0.184
101.4127 0.187
101.4430 0.243
101.4733 0.560
101.5036 -0.061
101.5338 -0.004
101.5641 -0.208
101.5944 -0.047
101.6247 0.479
101.6549 -0.193
101.6852 0.698
101.7155 0.443
101.7458 0.241
101.7761 0.664
101.8063 0.045
101.8366 -0.208
101.8669 -0.120
101.8972 0.333
101.9275 0.005
101.9577 0.354
101.9880 0.079
102.0183 0.012
102.0486 -0.107
102.0788 0.035
102.1091 0.438
102.1394 0.840
102.1697 0.306
102.2000 0.813
102.2302 0.591
102.2605 0.005
102.2908 0.305
102.3211 0.136
102.3514 0.436
102.3816 0.060
102.4119 0.204
102.4422 0.505
102.4725 0.754
102.5028 0.378
102.5330 0.419
102.5633 0.408
102.5936 0.606
102.6239 0.283
102.6541 -0.509
102.6844 0.575
102.7147 1.034
102.7450 0.452
102.7753 0.911
102.8055 0.277
102.8358 0.477
102.8661 0.416
102.8964 0.355
102.9267 0.764
102.9569 0.496
102.9872 0.592
103.0175 0.637
103.0478 0.421
103.0780 1.039
103.1083 0.563
103.1386 1.130
103.1689 0.654
103.1992 0.075
103.2294 0.382
103.2597 0.428
103.2900 0.475
103.3203 0.105
103.3506 0.621
103.3808 0.668
103.4111 0.351
103.4414 -0.018
103.4717 0.342
103.5019 0.286
103.5322 0.491
103.5625 0.331
103.5928 -0.193
103.6231 0.272
103.6533 0.322
103.6836 0.006
103.7139 0.785
103.7442 -0.206
103.7745 0.469
103.8047 -0.054
103.8350 0.361
103.8653 0.308
103.8956 0.567
103.9258 0.775
103.9561 0.357
103.9864 0.982
104.0167 0.669
104.0470 0.773
104.0772 0.461
104.1075 0.305
104.1378 0.723
104.1681 0.984
104.1984 0.777
104.2286 0.049
104.2589 0.675
104.2892 0.417
104.3195 0.888
104.3497 0.786
104.3800 0.632
104.4103 0.739
104.4406 0.533
104.4709 0.276
104.5011 0.904
104.5314 0.491
104.5617 0.391
104.5920 -0.126
104.6223 0.139
104.6525 0.403
104.6828 1.085
104.7131 -0.056
104.7434 0.158
104.7736 0.163
104.8039 0.585
104.8342 0.018
104.8645 0.024
104.8948 0.395
104.9250 -0.067
104.9553 -0.061
104.9856 -0.054
105.0159 -0.255
105.0462 -0.039
105.0764 -0.084
105.1067 -0.076
105.1370 -0.015
105.1673 -0.007
105.1975 -0.102
105.2278 -0.250
105.2581 0.011
105.2884 -0.144
105.3187 -0.039
105.3489 -0.038
105.3792 0.016
105.4095 0.070
105.4398 -0.189
105.4701 -0.134
105.5003 -0.236
105.5306 -0.129
105.5609 -0.074
105.5912 -0.175
105.6215 -0.016
105.6517 0.352
105.6820 -0.269
105.7123 -0.005
105.7426 0.000
105.7728 0.369
105.8031 0.061
105.8334 0.378
105.8637 0.019
105.8940 0.232
105.9242 -0.387
105.9545 0.087
105.9848 0.197
106.0151 -0.057
106.0454 0.106
106.0756 -0.200
106.1059 0.119
106.1362 -0.030
106.1665 -0.075
106.1967 -0.328
106.2270 0.201
106.2573 0.105
106.2876 0.373
106.3179 -0.400
106.3481 0.026
106.3784 -0.434
106.4087 0.616
106.4390 0.053
106.4693 0.271
106.4995 -0.084
106.5298 0.394
106.5601 0.353
106.5904 0.155
106.6206 -0.043
106.6509 0.645
106.6812 0.291
106.7115 0.042
106.7418 -0.363
106.7720 -0.004
106.8023 0.615
106.8326 -0.380
106.8629 -0.021
106.8932 0.287
106.9234 0.282
106.9537 0.329
106.9840 0.846
107.0143 0.477
107.0445 0.109
107.0748 0.105
107.1051 -0.107
107.1354 0.202
107.1657 -0.009
107.1959 0.613
107.2262 0.038
107.2565 0.035
107.2868 0.242
107.3171 0.240
107.3473 -0.075
107.3776 -0.128
107.4079 -0.129
107.4382 0.182
107.4684 0.129
107.4987 0.285
107.5290 0.284
107.5593 -0.028
107.5896 0.076
107.6198 0.337
107.6501 -0.027
107.6804 0.286
107.7107 0.131
107.7410 -0.285
107.7712 -0.081
107.8015 0.331
107.8318 -0.350
107.8621 -0.042
107.8923 0.371
107.9226 0.419
107.9529 0.208
107.9832 0.152
108.0135 0.566
108.0437 0.511
108.0740 0.196
108.1043 -0.066
108.1346 0.348
108.1649 -0.226
108.1951 0.084
108.2254 0.031
108.2557 0.238
108.2860 0.133
108.3163 0.236
108.3465 0.548
108.3768 -0.337
108.4071 -0.129
108.4374 -0.233
108.4676 0.184
108.4979 0.132
108.5282 0.237
108.5585 -0.075
108.5888 0.186
108.6190 -0.021
108.6493 0.032
108.6796 0.034
108.7099 -0.120
108.7402 -0.014
108.7704 -0.481
108.8007 0.407
108.8310 -0.059
108.8613 0.204
108.8915 0.416
108.9218 0.315
108.9521 0.058
108.9824 0.166
109.0127 0.743
109.0429 -0.138
109.0732 0.179
109.1035 0.444
109.1338 0.084
109.1641 0.246
109.1943 -0.165
109.2246 0.101
109.2549 0.054
109.2852 0.112
109.3154 -0.350
109.3457 0.021
109.3760 -0.441
109.4063 0.022
109.4366 0.068
109.4668 0.584
109.4971 0.370
109.5274 -0.156
109.5577 0.308
109.5880 -0.009
109.6182 -0.117
109.6485 0.191
109.6788 0.448
109.7091 0.236
109.7393 0.858
109.7696 0.438
109.7999 0.070
109.8302 0.588
109.8605 0.534
109.8907 0.323
109.9210 0.425
109.9513 0.423
109.9816 0.318
110.0119 1.045
110.0421 0.992
110.0724 0.314
110.1027 0.418
110.1330 0.521
110.1632 0.208
110.1935 0.677
110.2238 0.521
110.2541 0.730
110.2844 0.834
110.3146 0.366
110.3449 0.732
110.3752 0.733
110.4055 0.683
110.4358 0.059
110.4660 0.270
110.4963 0.011
110.5266 0.274
110.5569 1.006
110.5871 0.853
110.6174 1.012
110.6477 0.650
110.6780 -0.231
110.7083 0.397
110.7385 0.193
110.7688 0.926
110.7991 0.253
110.8294 0.362
110.8597 0.575
110.8899 0.476
110.9202 0.117
110.9505 0.435
110.9808 0.597
111.0110 0.186
111.0413 0.609
111.0716 -0.010
111.1019 0.726
111.1322 0.003
111.1624 -0.198
111.1927 0.226
111.2230 0.233
111.2533 0.866
111.2836 0.666
111.3138 0.570
111.3441 0.109
111.3744 0.587
111.4047 0.387
111.4350 0.292
111.4652 0.301
111.4955 0.154
111.5258 0.476
111.5561 -0.087
111.5863 -0.233
111.6166 0.128
111.6469 0.490
111.6772 -0.086
111.7075 0.640
111.7377 0.377
111.7680 -0.042
111.7983 0.269
111.8286 0.215
111.8589 0.213
111.8891 0.003
111.9194 -0.102
111.9497 0.158
111.9800 0.001
112.0102 -0.208
112.0405 -0.008
112.0708 0.192
112.1011 0.237
112.1314 0.073
112.1616 0.483
112.1919 0.215
112.2222 0.104
112.2525 0.098
112.2828 0.456
112.3130 0.294
112.3433 0.340
112.3736 0.178
112.4039 -0.036
112.4341 0.272
112.4644 0.267
112.4947 -0.311
112.5250 -0.214
112.5553 0.248
112.5855 0.138
112.6158 0.131
112.6461 -0.083
112.6764 -0.245
112.7067 0.270
112.7369 -0.204
112.7672 -0.105
112.7975 -0.214
112.8278 0.302
112.8580 0.037
112.8883 -0.020
112.9186 0.393
112.9489 0.129
112.9792 -0.448
113.0094 -0.034
113.0397 0.327
113.0700 0.116
113.1003 0.269
113.1306 -0.306
113.1608 0.212
113.1911 0.471
113.2214 0.417
113.2517 0.050
113.2819 -0.211
113.3122 -0.108
113.3425 -0.057
113.3728 -0.058
113.4031 0.150
113.4333 -0.007
113.4636 0.045
113.4939 0.410
113.5242 -0.007
113.5545 -0.162
113.5847 -0.057
113.6150 -0.004
113.6453 -0.159
113.6756 -0.262
113.7058 0.261
113.7361 0.211
113.7664 -0.360
113.7967 0.007
113.8270 0.165
113.8572 -0.248
113.8875 0.119
113.9178 -0.086
113.9481 -0.187
113.9784 0.234
114.0086 -0.179
114.0389 -0.227
114.0692 -0.024
114.0995 0.492
114.1298 0.696
114.1600 0.067
114.1903 0.480
114.2206 0.372
114.2509 0.316
114.2811 0.260
114.3114 -0.055
114.3417 -0.162
114.3720 -0.113
114.4023 -0.168
114.4325 0.455
114.4628 0.349
114.4931 0.451
114.5234 -0.332
114.5537 0.240
114.5839 -0.022
114.6142 0.394
114.6445 0.289
114.6748 -0.128
114.7050 0.028
114.7353 -0.337
114.7656 0.025
114.7959 0.128
114.8262 0.386
114.8564 0.385
114.8867 0.280
114.9170 0.331
114.9473 0.122
114.9776 0.954
115.0078 -0.036
115.0381 0.746
115.0684 0.433
115.0987 0.277
115.1289 0.122
115.1592 0.018
115.1895 -0.397
115.2198 0.229
115.2501 0.386
115.2803 0.336
115.3106 0.130
115.3409 -0.233
115.3712 -0.292
115.4015 0.482
115.4317 0.319
115.4620 0.104
115.4923 0.670
115.5226 0.716
115.5528 0.867
115.5831 0.965
115.6134 0.439
115.6437 0.642
115.6740 0.845
115.7042 0.996
115.7345 0.836
115.7648 0.935
115.7951 0.358
115.8254 1.188
115.8556 0.871
115.8859 1.024
115.9162 0.865
115.9465 1.851
115.9767 0.911
116.0070 0.804
116.0373 0.541
116.0676 0.695
116.0979 1.318
116.1281 1.004
116.1584 1.680
116.1887 0.741
116.2190 1.104
116.2493 1.885
116.2795 1.051
116.3098 1.207
116.3401 1.154
116.3704 1.050
116.4006 0.998
116.4309 1.676
116.4612 0.687
116.4915 0.740
116.5218 0.897
116.5520 1.003
116.5823 0.744
116.6126 0.277
116.6429 0.696
116.6732 1.011
116.7034 0.596
116.7337 0.651
116.7640 0.342
116.7943 0.501
116.8245 0.869
116.8548 0.716
116.8851 0.616
116.9154 0.880
116.9457 0.312
116.9759 0.368
117.0062 0.633
117.0365 0.378
117.0668 0.175
117.0971 0.753
117.1273 0.550
117.1576 0.504
117.1879 0.562
117.2182 -0.005
117.2485 0.262
117.2787 1.154
117.3090 0.276
117.3393 0.960
117.3696 0.446
117.3998 0.298
117.4301 0.618
117.4604 0.053
117.4907 0.113
117.5210 0.122
117.5512 0.235
117.5815 0.243
117.6118 0.253
117.6421 -0.259
117.6724 -0.210
117.7026 0.413
117.7329 0.150
117.7632 0.096
117.7935 0.355
117.8237 0.145
117.8540 0.404
117.8843 0.090
117.9146 0.037
117.9449 0.193
117.9751 0.452
118.0054 -0.277
118.0357 -0.017
118.0660 0.088
118.0963 0.348
118.1265 -0.016
118.1568 0.089
118.1871 0.090
118.2174 0.196
118.2476 0.354
118.2779 0.043
118.3082 0.149
118.3385 0.516
118.3688 -0.107
118.3990 0.260
118.4293 0.263
118.4596 0.474
118.4899 -0.147
118.5202 -0.144
118.5504 -0.088
118.5807 0.385
118.6110 0.076
118.6413 0.185
118.6715 -0.071
118.7018 0.194
118.7321 -0.009
118.7624 0.152
118.7927 -0.259
118.8229 -0.114
118.8532 0.134
118.8835 0.279
118.9138 -0.305
118.9441 -0.107
118.9743 0.038
119.0046 -0.285
119.0349 0.017
119.0652 0.685
119.0954 -0.054
119.1257 0.405
119.1560 0.031
119.1863 0.022
119.2166 0.013
119.2468 -0.152
119.2771 -0.004
119.3074 0.144
119.3377 -0.280
119.3680 0.076
119.3982 -0.087
119.4285 0.010
119.4588 0.315
119.4891 -0.629
119.5193 -0.011
119.5496 -0.121
119.5799 0.133
119.6102 -0.238
119.6405 0.121
119.6707 -0.041
119.7010 -0.515
119.7313 0.105
119.7616 0.621
119.7919 -0.373
119.8221 0.143
119.8524 -0.434
119.8827 0.135
119.9130 -0.285
119.9433 -0.034
119.9735 0.061
120.0038 0.000
