'Id: "" Comment: "" Operator: "Lab Manager" Anode: "Cu" Scantype: "Locked Coupled" TimePerStep: "19.2" X: "9999" Y: "9999" Z: "9999" 
10.0015 0.000
10.0318 -0.468
10.0620 0.287
10.0923 -0.520
10.1226 -0.354
10.1529 0.126
10.1832 -0.384
10.2134 1.085
10.2437 -0.309
10.2740 -0.193
10.3043 1.069
10.3346 0.404
10.3648 -0.260
10.3951 -0.090
10.4254 -0.806
10.4557 0.302
10.4859 0.108
10.5162 -0.294
10.5465 0.242
10.5768 0.049
10.6071 0.273
10.6373 -0.441
10.6676 0.461
10.6979 -0.043
10.7282 0.599
10.7585 -0.582
10.7887 -0.199
10.8190 -0.442
10.8493 0.240
10.8796 0.090
10.9098 0.252
10.9401 0.414
10.9704 0.421
11.0007 0.011
11.0310 0.122
11.0612 -0.339
11.0915 0.711
11.1218 0.927
11.1521 0.102
11.1824 -0.618
11.2126 0.745
11.2429 0.078
11.2732 -0.068
11.3035 0.046
11.3337 -0.100
11.3640 -0.037
11.3943 -0.338
11.4246 -0.170
11.4549 0.259
11.4851 0.219
11.5154 0.752
11.5457 -0.172
11.5760 0.101
11.6063 0.219
11.6365 1.119
11.6668 -0.117
11.6971 0.262
11.7274 1.371
11.7577 0.865
11.7879 0.412
11.8182 0.324
11.8485 0.288
11.8788 0.201
11.9090 0.426
11.9393 -0.546
11.9696 -0.379
11.9999 -0.020
12.0302 0.080
12.0604 0.544
12.0907 0.072
12.1210 -0.505
12.1513 0.117
12.1816 -0.094
12.2118 0.216
12.2421 -0.099
12.2724 -0.101
12.3027 0.522
12.3329 0.625
12.3632 -0.157
12.3935 0.103
12.4238 0.572
12.4541 1.301
12.4843 1.093
12.5146 0.469
12.5449 -0.415
12.5752 -0.049
12.6055 -0.047
12.6357 0.736
12.6660 -0.303
12.6963 1.106
12.7266 0.328
12.7568 -0.450
12.7871 -0.134
12.8174 -0.546
12.8477 0.180
12.8780 -0.292
12.9082 0.435
12.9385 0.432
12.9688 -0.143
12.9991 -0.457
13.0294 0.636
13.0596 0.114
13.0899 0.634
13.1202 0.582
13.1505 1.155
13.1807 0.165
13.2110 -0.094
13.2413 0.167
13.2716 0.012
13.3019 0.639
13.3321 0.172
13.3624 0.123
13.3927 -1.073
13.4230 0.389
13.4533 -0.076
13.4835 0.396
13.5138 -0.277
13.5441 0.196
13.5744 0.253
13.6046 0.362
13.6349 -0.205
13.6652 0.426
13.6955 -0.193
13.7258 0.022
13.7560 -0.336
13.7863 -0.433
13.8166 0.981
13.8469 0.259
13.8772 -0.097
13.9074 0.224
13.9377 0.441
13.9680 0.346
13.9983 0.199
14.0285 0.001
14.0588 -0.041
14.0891 1.063
14.1194 0.605
14.1497 0.252
14.1799 0.159
14.2102 0.536
14.2405 0.444
14.2708 0.144
14.3011 0.001
14.3313 0.795
14.3616 1.017
14.3919 0.146
14.4222 -0.361
14.4524 -0.158
14.4827 0.253
14.5130 1.134
14.5433 -0.017
14.5736 0.812
14.6038 0.131
14.6341 0.127
14.6644 -0.032
14.6947 -0.087
14.7250 -0.090
14.7552 0.689
14.7855 1.156
14.8158 -0.356
14.8461 0.007
14.8764 0.266
14.9066 0.891
14.9369 0.214
14.9672 0.057
14.9975 0.318
15.0277 0.111
15.0580 -0.357
15.0883 1.207
15.1186 -0.041
15.1489 -0.039
15.1791 0.067
15.2094 0.383
15.2397 0.125
15.2700 0.858
15.3003 0.080
15.3305 0.293
15.3608 0.402
15.3911 0.927
15.4214 0.412
15.4516 0.105
15.4819 0.267
15.5122 0.169
15.5425 0.383
15.5728 -0.287
15.6030 0.241
15.6333 0.457
15.6636 0.153
15.6939 0.161
15.7242 0.273
15.7544 0.230
15.7847 -0.333
15.8150 1.447
15.8453 -0.262
15.8755 -0.095
15.9058 0.592
15.9361 -0.230
15.9664 0.250
15.9967 -0.364
16.0269 -0.220
16.0572 -0.648
16.0875 0.330
16.1178 0.683
16.1481 -0.421
16.1783 -0.223
16.2086 0.912
16.2389 0.382
16.2692 0.216
16.2994 0.936
16.3297 -0.010
16.3600 0.502
16.3903 -0.235
16.4206 1.424
16.4508 0.687
16.4811 0.107
16.5114 -0.264
16.5417 0.459
16.5720 -0.068
16.6022 -0.126
16.6325 -0.079
16.6628 0.020
16.6931 -0.037
16.7233 -0.042
16.7536 -0.254
16.7839 0.524
16.8142 0.676
16.8445 -0.108
16.8747 -0.006
16.9050 0.043
16.9353 0.354
16.9656 0.613
16.9959 -0.378
17.0261 0.662
17.0564 0.037
17.0867 -0.224
17.1170 0.036
17.1472 0.349
17.1775 0.037
17.2078 0.143
17.2381 0.509
17.2684 0.927
17.2986 -0.113
17.3289 0.827
17.3592 -0.628
17.3895 0.156
17.4198 0.576
17.4500 0.059
17.4803 0.584
17.5106 0.484
17.5409 -0.032
17.5712 0.077
17.6014 0.343
17.6317 1.234
17.6620 0.459
17.6923 -0.263
17.7225 -0.361
17.7528 -0.101
17.7831 0.628
17.8134 0.785
17.8437 0.213
17.8739 0.734
17.9042 0.319
17.9345 -0.617
17.9648 0.114
17.9951 0.377
18.0253 -0.141
18.0556 0.174
18.0859 -0.135
18.1162 0.338
18.1464 0.342
18.1767 -0.331
18.2070 0.299
18.2373 -0.738
18.2676 0.830
18.2978 -0.102
18.3281 -0.512
18.3584 0.744
18.3887 -0.239
18.4190 0.133
18.4492 0.140
18.4795 -0.425
18.5098 0.416
18.5401 0.685
18.5703 -0.348
18.6006 0.339
18.6309 0.556
18.6612 0.149
18.6915 0.316
18.7217 0.430
18.7520 0.025
18.7823 0.765
18.8126 0.256
18.8429 -0.253
18.8731 -0.345
18.9034 -0.025
18.9337 -0.174
18.9640 0.564
18.9942 0.468
19.0245 0.425
19.0548 0.122
19.0851 -0.285
19.1154 0.246
19.1456 -0.108
19.1759 -0.045
19.2062 0.278
19.2365 0.394
19.2668 0.197
19.2970 -0.624
19.3273 -0.148
19.3576 0.537
19.3879 0.232
19.4181 0.188
19.4484 0.353
19.4787 0.206
19.5090 0.163
19.5393 0.277
19.5695 0.026
19.5998 0.037
19.6301 0.724
19.6604 1.048
19.6907 0.590
19.7209 0.290
19.7512 0.354
19.7815 0.158
19.8118 -0.038
19.8420 -0.442
19.8723 0.067
19.9026 1.097
19.9329 0.877
19.9632 0.501
19.9934 0.282
20.0237 0.896
20.0540 0.052
20.0843 0.928
20.1146 0.189
20.1448 0.180
20.1751 0.796
20.2054 0.319
20.2357 0.727
20.2659 0.303
20.2962 0.399
20.3265 0.340
20.3568 0.021
20.3871 -0.142
20.4173 -0.096
20.4476 0.783
20.4779 0.049
20.5082 0.564
20.5385 -0.118
20.5687 0.138
20.5990 0.030
20.6293 -0.547
20.6596 0.387
20.6899 -0.085
20.7201 0.017
20.7504 0.587
20.7807 0.116
20.8110 0.010
20.8412 -0.251
20.8715 0.008
20.9018 0.163
20.9321 -0.045
20.9624 0.684
20.9926 0.528
21.0229 -0.409
21.0532 0.477
21.0835 -0.199
21.1138 0.063
21.1440 -0.039
21.1743 -0.193
21.2046 0.174
21.2349 0.177
21.2651 0.441
21.2954 0.341
21.3257 0.917
21.3560 0.141
21.3863 0.145
21.4165 0.359
21.4468 -0.365
21.4771 0.161
21.5074 0.115
21.5377 0.017
21.5679 0.180
21.5982 -0.333
21.6285 -0.333
21.6588 0.287
21.6890 -0.135
21.7193 0.434
21.7496 -0.038
21.7799 0.583
21.8102 0.215
21.8404 -0.100
21.8707 0.158
21.9010 0.885
21.9313 0.258
21.9616 0.934
21.9918 -0.266
22.0221 -0.006
22.0524 -0.163
22.0827 -0.215
22.1129 -0.267
22.1432 -0.318
22.1735 0.360
22.2038 0.257
22.2341 -0.367
22.2643 -0.104
22.2946 -0.258
22.3249 -0.152
22.3552 -0.253
22.3855 0.584
22.4157 0.118
22.4460 0.539
22.4763 0.075
22.5066 -0.546
22.5368 -0.028
22.5671 0.437
22.5974 0.799
22.6277 0.692
22.6580 0.222
22.6882 0.324
22.7185 0.635
22.7488 0.269
22.7791 -0.200
22.8094 0.008
22.8396 0.841
22.8699 -0.096
22.9002 0.009
22.9305 0.478
22.9607 -0.302
22.9910 -0.040
23.0213 -0.506
23.0516 0.850
23.0819 0.124
23.1121 0.491
23.1424 -0.703
23.1727 0.186
23.2030 -0.800
23.2333 0.506
23.2635 0.667
23.2938 0.516
23.3241 0.105
23.3544 0.058
23.3846 -0.508
23.4149 0.019
23.4452 0.026
23.4755 0.085
23.5058 0.144
23.5360 0.673
23.5663 0.160
23.5966 0.481
23.6269 0.177
23.6572 -0.074
23.6874 -0.325
23.7177 0.093
23.7480 -0.322
23.7783 -0.059
23.8086 0.620
23.8388 -0.106
23.8691 -0.416
23.8994 0.151
23.9297 1.030
23.9599 0.503
23.9902 0.549
24.0205 0.180
24.0508 0.383
24.0811 -0.090
24.1113 -0.251
24.1416 0.214
24.1719 1.044
24.2022 0.051
24.2325 -0.160
24.2627 0.306
24.2930 -0.009
24.3233 0.302
24.3536 0.509
24.3838 0.664
24.4141 -0.171
24.4444 0.037
24.4747 0.454
24.5050 0.245
24.5352 -0.223
24.5655 0.507
24.5958 0.092
24.6261 -0.167
24.6564 -0.165
24.6866 -0.163
24.7169 -0.057
24.7472 0.571
24.7775 -0.103
24.8077 0.213
24.8380 -0.043
24.8683 0.847
24.8986 -0.034
24.9289 -0.186
24.9591 0.549
24.9894 0.190
25.0197 -0.325
25.0500 -0.229
25.0803 0.075
25.1105 0.016
25.1408 0.425
25.1711 0.210
25.2014 0.933
25.2316 -0.167
25.2619 -0.329
25.2922 0.074
25.3225 0.737
25.3528 0.360
25.3830 0.086
25.4133 0.699
25.4436 -0.094
25.4739 -0.314
25.5042 0.560
25.5344 0.184
25.5647 -0.035
25.5950 -0.410
25.6253 0.101
25.6555 0.560
25.6858 -0.439
25.7161 0.229
25.7464 0.272
25.7767 0.472
25.8069 0.100
25.8372 -0.325
25.8675 -0.384
25.8978 1.015
25.9281 -0.346
25.9583 0.482
25.9886 0.319
26.0189 -0.363
26.0492 0.360
26.0794 0.303
26.1097 -0.222
26.1400 -0.018
26.1703 0.291
26.2006 -0.025
26.2308 0.336
26.2611 -0.605
26.2914 -0.138
26.3217 -0.141
26.3520 -0.090
26.3822 0.012
26.4125 0.376
26.4428 0.114
26.4731 -0.668
26.5034 0.061
26.5336 0.634
26.5639 -0.198
26.5942 0.063
26.6245 -0.092
26.6547 -0.195
26.6850 -0.349
26.7153 -0.147
26.7456 0.836
26.7759 0.206
26.8061 0.409
26.8364 -0.169
26.8667 0.816
26.8970 -0.803
26.9273 0.182
26.9575 0.335
26.9878 -0.137
27.0181 0.068
27.0484 -0.247
27.0786 -0.353
27.1089 -0.211
27.1392 0.193
27.1695 -0.393
27.1998 0.167
27.2300 -0.262
27.2603 1.080
27.2906 0.079
27.3209 0.328
27.3512 0.577
27.3814 -0.163
27.4117 0.973
27.4420 0.338
27.4723 0.068
27.5025 0.267
27.5328 0.049
27.5631 0.197
27.5934 -0.280
27.6237 0.337
27.6539 -0.035
27.6842 0.166
27.7145 -0.102
27.7448 -0.525
27.7751 0.458
27.8053 0.296
27.8356 1.072
27.8659 -0.392
27.8962 0.385
27.9264 0.172
27.9567 0.011
27.9870 0.945
28.0173 0.316
28.0476 -0.052
28.0778 0.414
28.1081 0.047
28.1384 0.201
28.1687 0.043
28.1990 0.041
28.2292 0.301
28.2595 -0.013
28.2898 0.247
28.3201 0.143
28.3503 -0.222
28.3806 0.300
28.4109 0.196
28.4412 -0.219
28.4715 -0.218
28.5017 -0.372
28.5320 0.177
28.5623 0.362
28.5926 -0.182
28.6229 0.264
28.6531 0.607
28.6834 0.220
28.7137 0.302
28.7440 0.385
28.7742 0.364
28.8045 0.552
28.8348 -0.718
28.8651 0.407
28.8954 -0.029
28.9256 -0.205
28.9559 -0.380
28.9862 -0.294
29.0165 0.156
29.0468 -0.331
29.0770 -0.036
29.1073 0.624
29.1376 -0.070
29.1679 -0.503
29.1981 0.418
29.2284 -0.015
29.2587 -0.030
29.2890 0.007
29.3193 0.148
29.3495 0.238
29.3798 0.171
29.4101 0.262
29.4404 0.092
29.4707 -0.546
29.5009 0.326
29.5312 -0.676
29.5615 -0.011
29.5918 0.602
29.6221 -0.191
29.6523 0.475
29.6826 0.204
29.7129 0.245
29.7432 -0.702
29.7734 -0.217
29.8037 0.529
29.8340 0.807
29.8643 0.408
29.8946 1.103
29.9248 0.131
29.9551 0.671
29.9854 0.273
30.0157 0.813
30.0460 -0.053
30.0762 0.436
30.1065 0.352
30.1368 0.320
30.1671 0.029
30.1973 -0.367
30.2276 0.645
30.2579 0.667
30.2882 0.480
30.3185 0.295
30.3487 0.370
30.3790 0.289
30.4093 0.781
30.4396 0.493
30.4699 1.090
30.5001 0.854
30.5304 0.515
30.5607 1.165
30.5910 1.399
30.6212 2.050
30.6515 1.816
30.6818 1.843
30.7121 1.037
30.7424 1.585
30.7726 1.769
30.8029 3.047
30.8332 2.711
30.8635 3.833
30.8938 3.810
30.9240 3.631
30.9543 3.713
30.9846 3.743
31.0149 4.086
31.0451 4.950
31.0754 6.023
31.1057 6.575
31.1360 6.399
31.1663 7.108
31.1965 9.796
31.2268 10.715
31.2571 10.904
31.2874 15.104
31.3177 16.076
31.3479 16.162
31.3782 16.613
31.4085 18.783
31.4388 22.777
31.4690 27.656
31.4993 29.254
31.5296 31.634
31.5599 37.869
31.5902 38.739
31.6204 41.953
31.6507 38.553
31.6810 42.549
31.7113 36.338
31.7416 36.585
31.7718 30.582
31.8021 28.850
31.8324 25.713
31.8627 21.169
31.8929 18.918
31.9232 18.386
31.9535 14.676
31.9838 14.770
32.0141 10.124
32.0443 10.687
32.0746 7.448
32.1049 6.813
32.1352 7.898
32.1655 3.670
32.1957 4.183
32.2260 4.175
32.2563 5.052
32.2866 2.441
32.3169 2.225
32.3471 2.114
32.3774 1.535
32.4077 2.154
32.4380 1.732
32.4682 0.216
32.4985 1.513
32.5288 2.029
32.5591 0.983
32.5894 0.979
32.6196 -0.275
32.6499 1.336
32.6802 0.552
32.7105 -0.336
32.7408 -0.286
32.7710 1.170
32.8013 -0.290
32.8316 0.178
32.8619 0.906
32.8921 1.218
32.9224 0.696
32.9527 0.592
32.9830 0.489
33.0133 -0.032
33.0435 0.594
33.0738 -0.706
33.1041 0.129
33.1344 -1.171
33.1647 -0.092
33.1949 -0.730
33.2252 0.819
33.2555 -0.548
33.2858 0.637
33.3160 0.468
33.3463 -0.429
33.3766 0.392
33.4069 0.798
33.4372 0.162
33.4674 -0.318
33.4977 -0.276
33.5280 1.485
33.5583 0.017
33.5886 0.112
33.6188 1.092
33.6491 0.615
33.6794 1.127
33.7097 1.848
33.7399 2.153
33.7702 2.302
33.8005 1.983
33.8308 2.497
33.8611 2.595
33.8913 2.953
33.9216 4.354
33.9519 5.547
33.9822 4.813
34.0125 5.954
34.0427 9.439
34.0730 10.373
34.1033 12.921
34.1336 14.845
34.1638 22.082
34.1941 24.944
34.2244 31.712
34.2547 45.669
34.2850 50.980
34.3152 49.468
34.3455 46.395
34.3758 44.363
34.4061 36.342
34.4364 27.436
34.4666 19.103
34.4969 16.656
34.5272 13.792
34.5575 10.408
34.5877 9.108
34.6180 6.975
34.6483 5.467
34.6786 5.262
34.7089 3.858
34.7391 3.810
34.7694 3.293
34.7997 2.620
34.8300 3.510
34.8603 3.359
34.8905 2.635
34.9208 2.172
34.9511 2.490
34.9814 1.767
35.0116 2.086
35.0419 2.822
35.0722 1.996
35.1025 2.993
35.1328 3.418
35.1630 3.062
35.1933 1.716
35.2236 4.225
35.2539 2.984
35.2842 5.130
35.3144 4.723
35.3447 3.796
35.3750 3.650
35.4053 5.015
35.4356 4.922
35.4658 5.351
35.4961 4.946
35.5264 6.677
35.5567 7.002
35.5869 8.526
35.6172 9.737
35.6475 10.584
35.6778 11.536
35.7081 12.748
35.7383 14.950
35.7686 18.611
35.7989 19.043
35.8292 22.184
35.8595 24.335
35.8897 29.664
35.9200 31.348
35.9503 36.209
35.9806 41.747
36.0108 42.442
36.0411 51.418
36.0714 52.947
36.1017 57.445
36.1320 58.402
36.1622 56.129
36.1925 60.264
36.2228 53.930
36.2531 50.304
36.2834 44.648
36.3136 38.367
36.3439 36.670
36.3742 31.171
36.4045 28.224
36.4347 24.445
36.4650 20.822
36.4953 19.126
36.5256 15.712
36.5559 12.038
36.5861 11.177
36.6164 11.045
36.6467 9.091
36.6770 7.762
36.7073 6.590
36.7375 6.355
36.7678 4.871
36.7981 6.669
36.8284 4.039
36.8586 4.379
36.8889 3.834
36.9192 3.133
36.9495 2.692
36.9798 3.398
37.0100 3.218
37.0403 3.352
37.0706 2.756
37.1009 1.536
37.1312 1.983
37.1614 1.441
37.1917 0.847
37.2220 1.868
37.2523 1.014
37.2825 1.150
37.3128 1.860
37.3431 1.268
37.3734 1.613
37.4037 -0.229
37.4339 0.691
37.4642 -0.005
37.4945 1.384
37.5248 0.012
37.5551 0.256
37.5853 0.760
37.6156 0.744
37.6459 0.259
37.6762 0.556
37.7064 -0.762
37.7367 0.577
37.7670 -0.218
37.7973 0.080
37.8276 0.587
37.8578 -0.104
37.8881 -0.065
37.9184 -0.235
37.9487 -0.039
37.9790 0.105
38.0092 -0.167
38.0395 -0.231
38.0698 -0.138
38.1001 -0.305
38.1304 -0.003
38.1606 -0.118
38.1909 -0.076
38.2212 0.071
38.2515 0.322
38.2817 -0.468
38.3120 -0.303
38.3423 0.123
38.3726 -0.024
38.4029 -0.119
38.4331 -0.265
38.4634 -0.463
38.4937 0.486
38.5240 0.132
38.5543 -0.482
38.5845 0.624
38.6148 -0.301
38.6451 -0.133
38.6754 0.245
38.7056 0.310
38.7359 0.271
38.7662 -0.236
38.7965 -0.066
38.8268 0.105
38.8570 -0.297
38.8873 0.083
38.9176 -0.422
38.9479 0.271
38.9782 -0.130
39.0084 0.043
39.0387 -0.357
39.0690 -0.236
39.0993 0.041
39.1295 -0.670
39.1598 0.181
39.1901 0.199
39.2204 -0.668
39.2507 0.705
39.2809 -0.057
39.3112 0.483
39.3415 0.295
39.3718 0.107
39.4021 -0.342
39.4323 -0.119
39.4626 0.207
39.4929 0.326
39.5232 0.029
39.5534 0.356
39.5837 0.580
39.6140 0.023
39.6443 0.144
39.6746 -0.256
39.7048 0.334
39.7351 -0.118
39.7654 -0.048
39.7957 0.178
39.8260 -0.481
39.8562 -0.097
39.8865 -0.182
39.9168 0.254
39.9471 0.742
39.9773 0.033
40.0076 -0.416
40.0379 0.010
40.0682 0.435
40.0985 0.445
40.1287 0.298
40.1590 0.100
40.1893 0.058
40.2196 0.486
40.2499 0.393
40.2801 0.612
40.3104 0.260
40.3407 0.532
40.3710 0.284
40.4012 0.245
40.4315 0.518
40.4618 0.323
40.4921 0.337
40.5224 -0.274
40.5526 -0.416
40.5829 0.307
40.6132 0.874
40.6435 -0.070
40.6738 0.497
40.7040 0.336
40.7343 0.487
40.7646 0.222
40.7949 -0.459
40.8251 -0.151
40.8554 0.471
40.8857 -0.106
40.9160 0.100
40.9463 -0.007
40.9765 -0.061
41.0068 -0.167
41.0371 -0.013
41.0674 0.299
41.0977 -0.119
41.1279 0.245
41.1582 0.089
41.1885 0.193
41.2188 0.454
41.2491 0.090
41.2793 -0.534
41.3096 0.041
41.3399 0.355
41.3702 0.461
41.4004 0.932
41.4307 -0.106
41.4610 -0.051
41.4913 -0.152
41.5216 -0.148
41.5518 0.012
41.5821 0.173
41.6124 0.282
41.6427 -0.233
41.6730 0.189
41.7032 0.924
41.7335 0.201
41.7638 0.468
41.7941 -0.202
41.8243 -0.299
41.8546 0.118
41.8849 0.327
41.9152 0.068
41.9455 0.121
41.9757 0.800
42.0060 -0.500
42.0363 0.336
42.0666 0.235
42.0969 0.655
42.1271 0.346
42.1574 -0.223
42.1877 0.041
42.2180 -0.110
42.2482 0.415
42.2785 0.056
42.3088 -0.199
42.3391 0.536
42.3694 -0.083
42.3996 0.080
42.4299 0.191
42.4602 0.042
42.4905 -0.211
42.5208 0.162
42.5510 -0.247
42.5813 -0.290
42.6116 0.221
42.6419 0.106
42.6721 -0.164
42.7024 -0.069
42.7327 0.443
42.7630 -0.138
42.7933 0.218
42.8235 -0.259
42.8538 0.202
42.8841 0.143
42.9144 -0.072
42.9447 0.130
42.9749 -0.033
43.0052 -0.299
43.0355 -0.044
43.0658 0.732
43.0960 -0.001
43.1263 -0.370
43.1566 0.147
43.1869 0.404
43.2172 -0.172
43.2474 -0.071
43.2777 -0.177
43.3080 -0.231
43.3383 -0.025
43.3686 0.234
43.3988 0.441
43.4291 -0.341
43.4594 -0.081
43.4897 0.075
43.5199 0.180
43.5502 -0.132
43.5805 0.858
43.6108 -0.390
43.6411 0.341
43.6713 0.082
43.7016 -0.124
43.7319 -0.069
43.7622 0.090
43.7925 -0.480
43.8227 0.722
43.8530 0.205
43.8833 0.366
43.9136 0.683
43.9439 -0.406
43.9741 -0.036
44.0044 -0.030
44.0347 0.184
44.0650 -0.070
44.0952 0.041
44.1255 0.204
44.1558 0.576
44.1861 0.063
44.2164 -0.190
44.2466 -0.337
44.2769 0.232
44.3072 -0.189
44.3375 0.329
44.3678 0.690
44.3980 0.063
44.4283 0.529
44.4586 -0.202
44.4889 0.474
44.5191 0.056
44.5494 0.576
44.5797 -0.258
44.6100 0.679
44.6403 0.314
44.6705 -0.050
44.7008 -0.153
44.7311 0.056
44.7614 0.058
44.7917 0.216
44.8219 -0.355
44.8522 0.429
44.8825 -0.350
44.9128 -0.295
44.9430 -0.201
44.9733 0.414
45.0036 -0.169
45.0339 0.654
45.0642 -0.032
45.0944 0.011
45.1247 -0.154
45.1550 -0.110
45.1853 0.403
45.2156 -0.126
45.2458 -0.029
45.2761 0.069
45.3064 -0.094
45.3367 -0.101
45.3669 0.258
45.3972 0.305
45.4275 0.091
45.4578 0.555
45.4881 0.029
45.5183 -0.235
45.5486 0.021
45.5789 -0.243
45.6092 0.744
45.6395 1.053
45.6697 0.061
45.7000 -0.149
45.7303 0.682
45.7606 0.056
45.7908 0.627
45.8211 -0.050
45.8514 -0.311
45.8817 0.089
45.9120 0.491
45.9422 0.163
45.9725 0.356
46.0028 0.290
46.0331 -0.141
46.0634 0.731
46.0936 0.352
46.1239 0.235
46.1542 0.222
46.1845 0.158
46.2147 0.041
46.2450 0.394
46.2753 0.227
46.3056 0.476
46.3359 -0.212
46.3661 0.038
46.3964 0.497
46.4267 0.226
46.4570 0.529
46.4873 0.364
46.5175 1.605
46.5478 0.139
46.5781 0.599
46.6084 1.008
46.6386 1.782
46.6689 1.150
46.6992 0.883
46.7295 1.449
46.7598 1.548
46.7900 1.386
46.8203 0.443
46.8506 1.948
46.8809 1.371
46.9112 1.470
46.9414 2.352
46.9717 2.921
47.0020 2.501
47.0323 3.019
47.0626 3.641
47.0928 3.118
47.1231 5.043
47.1534 5.667
47.1837 7.436
47.2139 7.071
47.2442 7.643
47.2745 7.955
47.3048 8.580
47.3351 8.216
47.3653 10.821
47.3956 10.249
47.4259 10.251
47.4562 11.763
47.4865 11.504
47.5167 11.455
47.5470 10.208
47.5773 7.606
47.6076 8.600
47.6378 6.520
47.6681 5.639
47.6984 5.279
47.7287 4.763
47.7590 3.466
47.7892 3.836
47.8195 3.581
47.8498 3.691
47.8801 2.396
47.9104 2.715
47.9406 2.410
47.9709 1.636
48.0012 1.227
48.0315 0.611
48.0617 1.244
48.0920 1.253
48.1223 1.158
48.1526 0.803
48.1829 -0.073
48.2131 0.406
48.2434 0.677
48.2737 0.428
48.3040 0.595
48.3343 -0.383
48.3645 0.098
48.3948 0.735
48.4251 0.696
48.4554 0.240
48.4856 -0.163
48.5159 0.423
48.5462 0.541
48.5765 0.243
48.6068 -0.003
48.6370 -0.144
48.6673 0.132
48.6976 0.460
48.7279 0.424
48.7582 0.232
48.7884 0.405
48.8187 0.318
48.8490 -0.134
48.8793 0.144
48.9095 0.214
48.9398 -0.080
48.9701 0.095
49.0004 0.218
49.0307 0.290
49.0609 0.414
49.0912 0.382
49.1215 0.767
49.1518 0.110
49.1821 -0.337
49.2123 -0.082
49.2426 0.278
49.2729 0.846
49.3032 0.269
49.3334 -0.100
49.3637 0.157
49.3940 -0.106
49.4243 -0.005
49.4546 0.305
49.4848 0.303
49.5151 0.197
49.5454 0.456
49.5757 0.194
49.6060 0.714
49.6362 0.245
49.6665 -0.120
49.6968 0.141
49.7271 -0.119
49.7574 0.351
49.7876 0.352
49.8179 0.197
49.8482 0.303
49.8785 0.045
49.9087 -0.004
49.9390 0.103
49.9693 0.210
49.9996 0.006
50.0299 -0.147
50.0601 0.483
50.0904 0.487
50.1207 0.128
50.1510 0.237
50.1813 -0.539
50.2115 0.509
50.2418 0.203
50.2721 -0.572
50.3024 -0.158
50.3326 1.090
50.3629 -0.266
50.3932 -0.007
50.4235 0.148
50.4538 0.252
50.4840 0.303
50.5143 0.511
50.5446 0.095
50.5749 0.252
50.6052 -0.268
50.6354 0.722
50.6657 0.880
50.6960 0.361
50.7263 0.259
50.7565 0.522
50.7868 0.421
50.8171 -0.097
50.8474 0.063
50.8777 0.015
50.9079 0.592
50.9382 1.430
50.9685 0.341
50.9988 0.138
51.0291 0.248
51.0593 -0.059
51.0896 0.000
51.1199 -0.046
51.1502 -0.247
51.1804 -0.344
51.2107 0.393
51.2410 0.401
51.2713 -0.216
51.3016 -0.520
51.3318 0.257
51.3621 0.253
51.3924 -0.272
51.4227 -0.276
51.4530 -0.182
51.4832 0.017
51.5135 0.320
51.5438 0.258
51.5741 0.197
51.6043 0.449
51.6346 0.389
51.6649 -0.140
51.6952 -0.095
51.7255 0.054
51.7557 0.047
51.7860 -0.116
51.8163 -0.122
51.8466 0.288
51.8769 0.022
51.9071 0.174
51.9374 -0.404
51.9677 -0.044
51.9980 0.160
52.0282 0.052
52.0585 0.309
52.0888 0.358
52.1191 -0.582
52.1494 0.040
52.1796 0.038
52.2099 0.505
52.2402 0.087
52.2705 0.294
52.3008 0.137
52.3310 0.761
52.3613 0.084
52.3916 0.449
52.4219 -0.071
52.4521 0.034
52.4824 -0.277
52.5127 0.193
52.5430 0.611
52.5733 -0.168
52.6035 0.252
52.6338 -0.110
52.6641 -0.055
52.6944 -0.311
52.7247 0.107
52.7549 0.057
52.7852 0.215
52.8155 0.582
52.8458 0.481
52.8761 0.015
52.9063 -0.241
52.9366 0.388
52.9669 -0.285
52.9972 -0.499
53.0274 0.486
53.0577 -0.091
53.0880 -0.095
53.1183 -0.150
53.1486 -0.049
53.1788 0.104
53.2091 0.049
53.2394 -0.005
53.2697 0.358
53.3000 -0.425
53.3302 0.043
53.3605 0.198
53.3908 0.250
53.4211 -0.011
53.4513 0.198
53.4816 -0.375
53.5119 0.668
53.5422 -0.060
53.5725 -0.215
53.6027 -0.213
53.6330 0.154
53.6633 0.104
53.6936 0.107
53.7239 0.058
53.7541 -0.095
53.7844 0.066
53.8147 0.382
53.8450 -0.655
53.8752 -0.285
53.9055 0.483
53.9358 0.054
53.9661 0.198
53.9964 -0.334
54.0266 0.279
54.0569 -0.305
54.0872 -0.212
54.1175 -0.014
54.1478 0.601
54.1780 0.539
54.2083 0.374
54.2386 0.417
54.2689 0.200
54.2991 0.712
54.3294 -0.025
54.3597 1.009
54.3900 -0.196
54.4203 0.369
54.4505 0.415
54.4808 0.513
54.5111 0.923
54.5414 0.240
54.5717 0.391
54.6019 -0.291
54.6322 0.434
54.6625 -0.039
54.6928 -0.304
54.7230 0.041
54.7533 -0.030
54.7836 0.316
54.8139 -0.067
54.8442 0.279
54.8744 -0.624
54.9047 -0.223
54.9350 -0.083
54.9653 0.787
54.9956 0.199
55.0258 0.444
55.0561 0.169
55.0864 -0.157
55.1167 0.141
55.1469 -0.237
55.1772 -0.198
55.2075 0.310
55.2378 -0.171
55.2681 0.546
55.2983 0.118
55.3286 0.210
55.3589 0.355
55.3892 0.657
55.4195 -0.083
55.4497 0.845
55.4800 0.471
55.5103 0.774
55.5406 1.494
55.5709 0.704
55.6011 1.581
55.6314 1.260
55.6617 1.721
55.6920 1.141
55.7222 1.498
55.7525 1.804
55.7828 0.964
55.8131 1.740
55.8434 2.151
55.8736 2.614
55.9039 2.661
55.9342 2.500
55.9645 2.652
55.9948 3.117
56.0250 3.165
56.0553 3.683
56.0856 4.044
56.1159 6.281
56.1461 6.227
56.1764 6.329
56.2067 7.004
56.2370 8.566
56.2673 8.877
56.2975 8.095
56.3278 10.074
56.3581 12.731
56.3884 12.366
56.4187 13.096
56.4489 13.879
56.4792 15.859
56.5095 13.309
56.5398 13.675
56.5700 13.522
56.6003 12.222
56.6306 11.653
56.6609 10.354
56.6912 8.795
56.7214 8.331
56.7517 7.189
56.7820 6.361
56.8123 5.845
56.8426 5.225
56.8728 4.815
56.9031 4.196
56.9334 4.202
56.9637 3.897
56.9939 3.643
57.0242 3.182
57.0545 2.148
57.0848 2.782
57.1151 2.998
57.1453 2.278
57.1756 2.391
57.2059 2.036
57.2362 1.630
57.2665 1.275
57.2967 1.494
57.3270 0.932
57.3573 0.839
57.3876 1.163
57.4178 0.602
57.4481 0.979
57.4784 0.888
57.5087 0.848
57.5390 1.226
57.5692 0.667
57.5995 0.577
57.6298 -0.138
57.6601 0.137
57.6904 -0.317
57.7206 -0.211
57.7509 -0.053
57.7812 0.209
57.8115 0.837
57.8417 0.527
57.8720 -0.147
57.9023 0.742
57.9326 0.329
57.9629 0.333
57.9931 0.494
58.0234 -0.439
58.0537 -0.121
58.0840 -0.063
58.1143 0.203
58.1445 0.574
58.1748 0.372
58.2051 0.066
58.2354 0.073
58.2656 0.237
58.2959 -0.588
58.3262 0.566
58.3565 0.418
58.3868 0.010
58.4170 0.280
58.4473 0.029
58.4776 0.299
58.5079 -0.316
58.5382 0.216
58.5684 0.279
58.5987 0.030
58.6290 -0.115
58.6593 -0.311
58.6896 0.160
58.7198 0.216
58.7501 -0.457
58.7804 0.068
58.8107 0.801
58.8409 0.181
58.8712 -0.595
58.9015 0.400
58.9318 -0.063
58.9621 0.932
58.9923 -0.780
59.0226 -0.200
59.0529 0.067
59.0832 0.075
59.1135 -0.230
59.1437 0.716
59.1740 -0.213
59.2043 0.473
59.2346 0.742
59.2648 -0.394
59.2951 0.345
59.3254 -0.270
59.3557 -0.311
59.3860 0.306
59.4162 0.351
59.4465 0.709
59.4768 0.442
59.5071 -0.398
59.5374 0.325
59.5676 0.476
59.5979 0.263
59.6282 0.466
59.6585 -0.163
59.6887 -0.011
59.7190 -0.119
59.7493 0.242
59.7796 0.395
59.8099 -0.181
59.8401 0.494
59.8704 -0.238
59.9007 -0.239
59.9310 -0.085
59.9613 -0.034
59.9915 0.174
60.0218 0.278
60.0521 0.173
60.0824 -0.243
60.1126 -0.295
60.1429 -0.049
60.1732 0.198
60.2035 0.393
60.2338 -0.089
60.2640 0.418
60.2943 -0.219
60.3246 -0.127
60.3549 0.173
60.3852 0.266
60.4154 -0.371
60.4457 0.139
60.4760 -0.392
60.5063 -0.038
60.5365 -0.308
60.5668 -0.058
60.5971 -0.120
60.6274 -0.078
60.6577 0.329
60.6879 -0.357
60.7182 0.468
60.7485 0.355
60.7788 0.191
60.8091 -0.390
60.8393 -0.139
60.8696 0.425
60.8999 -0.366
60.9302 0.355
60.9604 -0.018
60.9907 -0.183
61.0210 0.278
61.0513 0.010
61.0816 -0.205
61.1118 -0.107
61.1421 -0.218
61.1724 -0.224
61.2027 -0.126
61.2330 -0.131
61.2632 0.072
61.2935 -0.245
61.3238 0.272
61.3541 -0.201
61.3844 -0.101
61.4146 -0.781
61.4449 0.518
61.4752 -0.162
61.5055 0.305
61.5357 0.303
61.5660 -0.324
61.5963 -0.325
61.6266 0.337
61.6569 -0.042
61.6871 -0.004
61.7174 0.503
61.7477 -0.031
61.7780 -0.305
61.8083 1.037
61.8385 0.347
61.8688 0.179
61.8991 0.792
61.9294 0.677
61.9596 0.770
61.9899 0.342
62.0202 1.165
62.0505 0.843
62.0808 1.666
62.1110 1.397
62.1413 1.023
62.1716 1.431
62.2019 2.204
62.2322 1.519
62.2624 2.709
62.2927 2.650
62.3230 2.643
62.3533 3.469
62.3835 3.984
62.4138 4.134
62.4441 4.806
62.4744 5.634
62.5047 6.879
62.5349 7.864
62.5652 7.963
62.5955 8.741
62.6258 10.404
62.6561 10.505
62.6863 9.773
62.7166 13.885
62.7469 11.487
62.7772 12.422
62.8074 10.389
62.8377 12.211
62.8680 10.700
62.8983 10.282
62.9286 10.126
62.9588 8.616
62.9891 7.054
63.0194 5.700
63.0497 5.233
63.0800 4.818
63.1102 4.715
63.1405 4.040
63.1708 3.939
63.2011 3.525
63.2313 1.913
63.2616 2.646
63.2919 2.442
63.3222 1.560
63.3525 1.096
63.3827 1.049
63.4130 1.315
63.4433 1.580
63.4736 0.961
63.5039 0.030
63.5341 -0.015
63.5644 0.408
63.5947 0.884
63.6250 0.475
63.6552 0.483
63.6855 -0.290
63.7158 0.969
63.7461 0.040
63.7764 0.101
63.8066 -0.254
63.8369 -0.035
63.8672 -0.338
63.8975 -0.016
63.9278 0.357
63.9580 0.106
63.9883 -0.040
64.0186 -0.238
64.0489 -0.280
64.0791 0.200
64.1094 0.211
64.1397 0.118
64.1700 -0.547
64.2003 0.454
64.2305 -0.314
64.2608 -0.354
64.2911 0.389
64.3214 0.142
64.3517 0.312
64.3819 0.326
64.4122 0.080
64.4425 0.460
64.4728 -0.046
64.5031 0.230
64.5333 -0.119
64.5636 0.158
64.5939 0.539
64.6242 -0.434
64.6544 -0.312
64.6847 -0.048
64.7150 0.060
64.7453 -0.144
64.7756 0.694
64.8058 -0.238
64.8361 -0.024
64.8664 0.138
64.8967 0.248
64.9270 0.046
64.9572 -0.363
64.9875 0.006
65.0178 0.323
65.0481 0.224
65.0783 0.490
65.1086 -0.442
65.1389 0.397
65.1692 -0.065
65.1995 -0.006
65.2297 0.001
65.2600 -0.304
65.2903 -0.280
65.3206 0.213
65.3509 0.811
65.3811 0.106
65.4114 0.496
65.4417 -0.155
65.4720 -0.077
65.5022 -0.416
65.5325 0.133
65.5628 0.109
65.5931 0.138
65.6234 -0.875
65.6536 -0.065
65.6839 0.173
65.7142 -0.630
65.7445 0.754
65.7748 -0.048
65.8050 0.555
65.8353 0.222
65.8656 0.514
65.8959 0.182
65.9261 0.266
65.9564 0.351
65.9867 0.644
66.0170 0.521
66.0473 0.555
66.0775 1.474
66.1078 1.040
66.1381 1.283
66.1684 0.901
66.1987 0.415
66.2289 0.659
66.2592 0.539
66.2895 0.419
66.3198 0.664
66.3500 1.483
66.3803 0.530
66.4106 0.933
66.4409 0.762
66.4712 0.905
66.5014 0.475
66.5317 0.566
66.5620 -0.280
66.5923 0.228
66.6226 -0.304
66.6528 -0.004
66.6831 0.506
66.7134 -0.130
66.7437 0.276
66.7739 -0.099
66.8042 -0.161
66.8345 0.038
66.8648 0.080
66.8951 -0.293
66.9253 -0.093
66.9556 -0.675
66.9859 0.932
67.0162 -0.482
67.0465 0.240
67.0767 -0.496
67.1070 0.435
67.1373 0.949
67.1676 0.996
67.1978 0.365
67.2281 1.349
67.2584 0.042
67.2887 0.923
67.3190 0.867
67.3492 0.915
67.3795 2.110
67.4098 1.429
67.4401 3.406
67.4704 2.257
67.5006 2.880
67.5309 3.607
67.5612 5.012
67.5915 3.761
67.6218 4.906
67.6520 6.156
67.6823 5.374
67.7126 5.218
67.7429 6.729
67.7731 8.917
67.8034 8.398
67.8337 7.358
67.8640 6.787
67.8943 8.195
67.9245 7.468
67.9548 6.690
67.9851 6.225
68.0154 6.228
68.0457 4.201
68.0759 6.549
68.1062 4.835
68.1365 4.944
68.1668 4.324
68.1970 5.319
68.2273 3.138
68.2576 2.259
68.2879 3.359
68.3182 1.803
68.3484 3.529
68.3787 2.235
68.4090 1.358
68.4393 1.105
68.4696 1.583
68.4998 1.904
68.5301 1.914
68.5604 2.444
68.5907 1.621
68.6209 1.006
68.6512 1.746
68.6815 2.434
68.7118 3.175
68.7421 1.832
68.7723 2.469
68.8026 2.221
68.8329 3.015
68.8632 3.028
68.8935 4.031
68.9237 2.274
68.9540 3.538
68.9843 2.511
69.0146 3.411
69.0448 2.489
69.0751 2.817
69.1054 2.520
69.1357 2.640
69.1660 1.980
69.1962 1.788
69.2265 2.587
69.2568 1.250
69.2871 1.372
69.3174 1.234
69.3476 1.981
69.3779 1.740
69.4082 0.665
69.4385 0.945
69.4687 0.757
69.4990 0.516
69.5293 0.797
69.5596 0.297
69.5899 0.319
69.6201 0.861
69.6504 0.727
69.6807 0.645
69.7110 -0.010
69.7413 0.378
69.7715 0.192
69.8018 -0.044
69.8321 -0.177
69.8624 0.264
69.8926 -0.128
69.9229 0.053
69.9532 -0.130
69.9835 -0.312
70.0138 -0.389
70.0440 0.369
70.0743 0.085
70.1046 -0.251
70.1349 0.247
70.1652 0.172
70.1954 0.358
70.2257 -0.132
70.2560 0.159
70.2863 0.086
70.3166 0.325
70.3468 0.148
70.3771 0.024
70.4074 -0.152
70.4377 -0.276
70.4679 0.109
70.4982 0.129
70.5285 -0.059
70.5588 -0.038
70.5891 0.452
70.6193 0.005
70.6496 -0.285
70.6799 0.035
70.7102 0.200
70.7405 0.105
70.7707 0.218
70.8010 -0.137
70.8313 0.602
70.8616 0.247
70.8918 0.466
70.9221 0.372
70.9524 0.279
70.9827 0.030
71.0130 -0.062
71.0432 0.419
71.0735 -0.194
71.1038 -0.285
71.1341 0.232
71.1644 0.073
71.1946 0.018
71.2249 0.485
71.2552 0.326
71.2855 0.429
71.3157 0.375
71.3460 -0.303
71.3763 0.217
71.4066 0.373
71.4369 -0.304
71.4671 0.113
71.4974 0.426
71.5277 0.167
71.5580 0.273
71.5883 0.170
71.6185 0.172
71.6488 0.435
71.6791 -0.239
71.7094 0.024
71.7396 -0.285
71.7699 0.018
71.8002 0.322
71.8305 0.626
71.8608 0.566
71.8910 0.141
71.9213 0.342
71.9516 0.126
71.9819 -0.141
72.0122 0.478
72.0424 0.107
72.0727 0.101
72.1030 0.200
72.1333 0.663
72.1635 0.190
72.1938 0.810
72.2241 0.233
72.2544 0.542
72.2847 0.330
72.3149 0.119
72.3452 0.585
72.3755 0.738
72.4058 0.632
72.4361 0.370
72.4663 0.004
72.4966 0.680
72.5269 0.158
72.5572 0.471
72.5874 0.418
72.6177 0.106
72.6480 0.628
72.6783 -0.205
72.7086 0.682
72.7388 0.319
72.7691 0.217
72.7994 -0.041
72.8297 0.482
72.8600 -0.192
72.8902 0.176
72.9205 -0.237
72.9508 -0.389
72.9811 0.287
73.0113 -0.182
73.0416 -0.234
73.0719 0.183
73.1022 0.079
73.1325 -0.232
73.1627 -0.022
73.1930 0.344
73.2233 0.190
73.2536 -0.120
73.2839 -0.118
73.3141 0.198
73.3444 0.097
73.3747 -0.055
73.4050 0.001
73.4353 -0.255
73.4655 -0.252
73.4958 0.325
73.5261 -0.087
73.5564 -0.135
73.5866 0.234
73.6169 0.031
73.6472 -0.172
73.6775 0.147
73.7078 0.101
73.7380 -0.205
73.7683 -0.198
73.7986 0.017
73.8289 -0.079
73.8592 0.085
73.8894 -0.219
73.9197 -0.159
73.9500 0.059
73.9803 0.120
74.0105 -0.027
74.0408 -0.069
74.0711 -0.215
74.1014 0.369
74.1317 -0.402
74.1619 -0.182
74.1922 0.038
74.2225 -0.054
74.2528 -0.094
74.2831 0.231
74.3133 -0.121
74.3436 0.049
74.3739 0.427
74.4042 0.025
74.4344 -0.117
74.4647 -0.259
74.4950 0.149
74.5253 0.610
74.5556 -0.022
74.5858 -0.030
74.6161 0.067
74.6464 -0.043
74.6767 0.107
74.7070 -0.264
74.7372 0.095
74.7675 -0.067
74.7978 -0.071
74.8281 0.184
74.8583 0.284
74.8886 0.020
74.9189 0.173
74.9492 0.221
74.9795 0.427
75.0097 0.164
75.0400 -0.047
75.0703 0.264
75.1006 -0.311
75.1309 0.313
75.1611 -0.208
75.1914 -0.157
75.2217 -0.053
75.2520 0.156
75.2822 0.000
75.3125 0.261
75.3428 -0.102
75.3731 0.160
75.4034 0.266
75.4336 -0.253
75.4639 -0.146
75.4942 0.065
75.5245 0.224
75.5548 0.228
75.5850 -0.081
75.6153 -0.233
75.6456 -0.193
75.6759 0.160
75.7061 -0.216
75.7364 0.241
75.7667 -0.186
75.7970 0.168
75.8273 0.106
75.8575 -0.164
75.8878 -0.174
75.9181 0.338
75.9484 -0.035
75.9787 -0.096
76.0089 0.000
76.0392 0.409
76.0695 -0.171
76.0998 0.343
76.1301 -0.029
76.1603 0.225
76.1906 -0.093
76.2209 -0.567
76.2512 0.208
76.2814 0.151
76.3117 0.251
76.3420 0.403
76.3723 0.034
76.4026 -0.178
76.4328 -0.129
76.4631 0.128
76.4934 0.751
76.5237 0.436
76.5540 0.330
76.5842 -0.036
76.6145 0.483
76.6448 0.638
76.6751 1.159
76.7053 0.533
76.7356 0.481
76.7659 0.638
76.7962 1.055
76.8265 1.161
76.8567 0.902
76.8870 0.695
76.9173 0.593
76.9476 0.387
76.9779 0.806
77.0081 1.070
77.0384 0.761
77.0687 0.973
77.0990 0.821
77.1292 0.409
77.1595 1.195
77.1898 0.471
77.2201 -0.201
77.2504 0.378
77.2806 0.697
77.3109 0.286
77.3412 0.033
77.3715 0.509
77.4018 -0.369
77.4320 0.055
77.4623 0.116
77.4926 0.645
77.5229 0.289
77.5531 0.299
77.5834 0.048
77.6137 0.214
77.6440 -0.193
77.6743 0.183
77.7045 0.037
77.7348 -0.264
77.7651 0.425
77.7954 0.228
77.8257 -0.072
77.8559 0.045
77.8862 0.266
77.9165 -0.033
77.9468 -0.124
77.9770 0.255
78.0073 0.373
78.0376 0.128
78.0679 0.038
78.0982 -0.363
78.1284 0.000
78.1587 0.052
78.1890 0.051
78.2193 -0.210
78.2496 -0.105
78.2798 -0.105
78.3101 -0.156
78.3404 0.158
78.3707 -0.101
78.4009 0.057
78.4312 0.267
78.4615 0.426
78.4918 0.637
78.5221 -0.089
78.5523 0.123
78.5826 0.492
78.6129 0.340
78.6432 0.032
78.6735 -0.172
78.7037 0.979
78.7340 0.099
78.7643 -0.311
78.7946 0.112
78.8248 0.222
78.8551 0.125
78.8854 0.132
78.9157 0.400
78.9460 -0.008
78.9762 -0.208
79.0065 -0.208
79.0368 -0.009
79.0671 0.607
79.0974 0.442
79.1276 0.278
79.1579 0.062
79.1882 0.575
79.2185 0.672
79.2488 0.092
79.2790 0.138
79.3093 -0.181
79.3396 0.647
79.3699 0.016
79.4001 0.688
79.4304 -0.254
79.4607 -0.154
79.4910 -0.054
79.5213 0.203
79.5515 -0.322
79.5818 0.144
79.6121 0.089
79.6424 0.087
79.6727 0.449
79.7029 0.239
79.7332 0.082
79.7635 0.602
79.7938 0.445
79.8240 -0.181
79.8543 -0.337
79.8846 0.227
79.9149 0.167
79.9452 0.211
79.9754 0.412
80.0057 0.509
80.0360 0.294
80.0663 0.391
80.0966 -0.084
80.1268 -0.037
80.1571 0.165
80.1874 -0.465
80.2177 0.103
80.2479 -0.214
80.2782 0.199
80.3085 0.143
80.3388 -0.017
80.3691 -0.176
80.3993 0.185
80.4296 -0.078
80.4599 -0.028
80.4902 -0.081
80.5205 0.073
80.5507 -0.032
80.5810 0.176
80.6113 -0.398
80.6416 -0.085
80.6718 -0.085
80.7021 0.384
80.7324 0.177
80.7627 0.490
80.7930 -0.081
80.8232 -0.079
80.8535 -0.233
80.8838 0.126
80.9141 0.224
80.9444 0.531
80.9746 -0.308
81.0049 0.417
81.0352 0.412
81.0655 0.148
81.0957 -0.273
81.1260 0.349
81.1563 0.450
81.1866 0.343
81.2169 0.341
81.2471 -0.078
81.2774 0.806
81.3077 0.231
81.3380 0.699
81.3683 0.542
81.3985 0.385
81.4288 0.594
81.4591 0.386
81.4894 0.334
81.5196 0.335
81.5499 0.493
81.5802 0.130
81.6105 -0.285
81.6408 -0.074
81.6710 -0.123
81.7013 -0.275
81.7316 0.302
81.7619 0.827
81.7922 -0.106
81.8224 -0.101
81.8527 0.008
81.8830 0.274
81.9133 -0.189
81.9436 0.182
81.9738 -0.332
82.0041 -0.117
82.0344 0.099
82.0647 -0.258
82.0949 0.479
82.1252 -0.033
82.1555 -0.285
82.1858 0.085
82.2161 -0.118
82.2463 0.149
82.2766 -0.158
82.3069 0.005
82.3372 0.117
82.3675 -0.084
82.3977 0.080
82.4280 0.140
82.4583 0.200
82.4886 0.521
82.5188 0.062
82.5491 0.279
82.5794 0.185
82.6097 0.039
82.6400 0.362
82.6702 0.737
82.7005 0.331
82.7308 -0.178
82.7611 0.667
82.7914 0.158
82.8216 0.067
82.8519 0.183
82.8822 -0.116
82.9125 -0.259
82.9427 0.150
82.9730 0.664
83.0033 0.188
83.0336 0.494
83.0639 0.176
83.0941 0.222
83.1244 0.217
83.1547 0.107
83.1850 0.155
83.2153 0.098
83.2455 0.302
83.2758 0.194
83.3061 0.503
83.3364 0.136
83.3666 0.029
83.3969 0.026
83.4272 0.232
83.4575 0.231
83.4878 -0.031
83.5180 0.072
83.5483 -0.033
83.5786 0.383
83.6089 0.123
83.6392 0.071
83.6694 -0.137
83.6997 0.333
83.7300 0.022
83.7603 0.075
83.7905 -0.131
83.8208 -0.233
83.8511 0.185
83.8814 0.030
83.9117 0.084
83.9419 0.190
83.9722 0.401
84.0025 0.091
84.0328 0.251
84.0631 0.150
84.0933 0.258
84.1236 -0.311
84.1539 -0.208
84.1842 0.043
84.2144 0.191
84.2447 0.183
84.2750 0.644
84.3053 0.533
84.3356 -0.151
84.3658 0.206
84.3961 -0.112
84.4264 -0.171
84.4567 0.345
84.4870 -0.182
84.5172 0.074
84.5475 -0.139
84.5778 0.065
84.6081 0.009
84.6383 0.318
84.6686 -0.259
84.6989 0.155
84.7292 0.205
84.7595 -0.371
84.7897 0.200
84.8200 0.095
84.8503 -0.115
84.8806 -0.064
84.9109 0.144
84.9411 -0.117
84.9714 -0.221
85.0017 -0.017
85.0320 0.500
85.0623 0.132
85.0925 -0.184
85.1228 0.282
85.1531 0.228
85.1834 0.486
85.2136 0.276
85.2439 -0.142
85.2742 -0.248
85.3045 0.272
85.3348 0.011
85.3650 0.063
85.3953 0.011
85.4256 -0.144
85.4559 0.169
85.4862 0.014
85.5164 0.016
85.5467 0.070
85.5770 0.280
85.6073 0.074
85.6375 0.182
85.6678 -0.388
85.6981 0.293
85.7284 -0.120
85.7587 -0.012
85.7889 0.253
85.8192 -0.158
85.8495 0.107
85.8798 -0.512
85.9101 -0.037
85.9403 0.021
85.9706 -0.285
86.0009 0.023
86.0312 0.019
86.0614 0.276
86.0917 0.065
86.1220 0.270
86.1523 -0.097
86.1826 0.265
86.2128 0.055
86.2431 -0.415
86.2734 -0.001
86.3037 -0.003
86.3340 0.047
86.3642 0.306
86.3945 0.044
86.4248 -0.113
86.4551 0.512
86.4853 0.043
86.5156 0.199
86.5459 0.148
86.5762 -0.164
86.6065 0.046
86.6367 -0.005
86.6670 -0.524
86.6973 0.468
86.7276 0.262
86.7579 0.161
86.7881 0.216
86.8184 -0.249
86.8487 0.015
86.8790 0.071
86.9092 0.024
86.9395 -0.388
86.9698 0.347
87.0001 -0.377
87.0304 -0.215
87.0606 0.088
87.0909 0.028
87.1212 0.331
87.1515 0.115
87.1818 0.159
87.2120 -0.109
87.2423 -0.168
87.2726 0.033
87.3029 0.079
87.3331 0.281
87.3634 0.223
87.3937 0.009
87.4240 -0.048
87.4543 0.312
87.4845 0.359
87.5148 0.095
87.5451 0.195
87.5754 -0.069
87.6057 0.032
87.6359 -0.023
87.6662 0.131
87.6965 0.077
87.7268 -0.342
87.7571 0.334
87.7873 -0.136
87.8176 -0.137
87.8479 0.331
87.8782 0.019
87.9084 -0.137
87.9387 0.228
87.9690 0.073
87.9993 -0.135
88.0296 -0.029
88.0598 -0.027
88.0901 -0.233
88.1204 0.066
88.1507 0.469
88.1810 0.404
88.2112 -0.338
88.2415 0.066
88.2718 0.106
88.3021 0.459
88.3323 -0.073
88.3626 -0.032
88.3929 0.009
88.4232 0.051
88.4535 0.041
88.4837 0.448
88.5140 -0.291
88.5443 -0.196
88.5746 0.212
88.6049 0.152
88.6351 -0.013
88.6654 0.240
88.6957 -0.028
88.7260 -0.087
88.7562 -0.250
88.7865 0.054
88.8168 0.254
88.8471 0.506
88.8774 0.550
88.9076 0.230
88.9379 0.536
88.9682 0.529
88.9985 0.158
89.0288 0.464
89.0590 -0.011
89.0893 0.453
89.1196 0.760
89.1499 0.860
89.1801 0.803
89.2104 0.955
89.2407 0.795
89.2710 1.052
89.3013 0.684
89.3315 1.098
89.3618 1.669
89.3921 1.823
89.4224 1.300
89.4527 0.882
89.4829 2.027
89.5132 1.558
89.5435 1.818
89.5738 1.974
89.6040 1.610
89.6343 1.506
89.6646 1.038
89.6949 1.144
89.7252 1.145
89.7554 0.887
89.7857 0.629
89.8160 1.100
89.8463 0.843
89.8766 0.586
89.9068 0.694
89.9371 0.802
89.9674 0.390
89.9977 0.655
90.0279 0.191
90.0582 0.457
90.0885 0.827
90.1188 0.729
90.1491 0.579
90.1793 0.690
90.2096 0.176
90.2399 0.392
90.2702 0.192
90.3005 0.408
90.3307 0.833
90.3610 0.269
90.3913 -0.139
90.4216 0.235
90.4518 0.141
90.4821 0.307
90.5124 -0.047
90.5427 -0.244
90.5730 -0.137
90.6032 0.284
90.6335 0.497
90.6638 -0.488
90.6941 0.194
90.7244 -0.009
90.7546 0.465
90.7849 0.002
90.8152 0.321
90.8455 0.328
90.8758 -0.134
90.9060 0.082
90.9363 0.141
90.9666 -0.111
90.9969 -0.259
91.0271 0.153
91.0574 0.149
91.0877 -0.219
91.1180 -0.171
91.1483 -0.070
91.1785 0.344
91.2088 -0.231
91.2391 -0.077
91.2694 0.286
91.2997 0.544
91.3299 -0.290
91.3602 -0.239
91.3905 -0.198
91.4208 0.312
91.4510 -0.116
91.4813 0.134
91.5116 -0.188
91.5419 0.271
91.5722 -0.156
91.6024 -0.113
91.6327 0.347
91.6630 -0.338
91.6933 -0.242
91.7236 -0.250
91.7538 -0.207
91.7841 0.149
91.8144 0.245
91.8447 -0.232
91.8749 0.021
91.9052 0.170
91.9355 -0.202
91.9658 0.208
91.9961 0.150
92.0263 -0.221
92.0566 0.138
92.0869 -0.700
92.1172 -0.028
92.1475 0.175
92.1777 -0.194
92.2080 0.219
92.2383 0.164
92.2686 -0.256
92.2988 0.626
92.3291 -0.418
92.3594 0.100
92.3897 -0.006
92.4200 0.097
92.4502 0.148
92.4805 0.199
92.5108 0.198
92.5411 -0.010
92.5714 0.146
92.6016 0.563
92.6319 0.147
92.6622 0.669
92.6925 0.046
92.7227 -0.161
92.7530 0.310
92.7833 0.261
92.8136 0.315
92.8439 0.162
92.8741 0.270
92.9044 0.743
92.9347 0.278
92.9650 0.178
92.9953 0.287
93.0255 0.188
93.0558 -0.171
93.0861 0.408
93.1164 0.206
93.1466 -0.464
93.1769 0.272
93.2072 -0.086
93.2375 0.182
93.2678 -0.122
93.2980 0.146
93.3283 0.155
93.3586 0.268
93.3889 0.277
93.4192 0.079
93.4494 -0.172
93.4797 0.411
93.5100 -0.099
93.5403 -0.244
93.5706 0.002
93.6008 -0.220
93.6311 0.288
93.6614 0.066
93.6917 0.210
93.7219 -0.010
93.7522 -0.127
93.7825 0.383
93.8128 -0.202
93.8431 -0.108
93.8733 -0.015
93.9036 0.496
93.9339 0.121
93.9642 -0.044
93.9945 -0.158
94.0247 0.094
94.0550 -0.019
94.0853 0.077
94.1156 0.225
94.1458 -0.095
94.1761 0.159
94.2064 -0.577
94.2367 0.458
94.2670 0.191
94.2972 -0.075
94.3275 0.232
94.3578 0.123
94.3881 0.066
94.4184 -0.512
94.4486 0.109
94.4789 -0.467
94.5092 -0.061
94.5395 -0.018
94.5697 0.858
94.6000 0.953
94.6303 0.268
94.6606 -0.001
94.6909 0.460
94.7211 0.973
94.7514 -0.179
94.7817 0.543
94.8120 0.120
94.8423 0.374
94.8725 0.577
94.9028 0.571
94.9331 0.931
94.9634 0.822
94.9936 0.973
95.0239 0.605
95.0542 0.705
95.0845 1.223
95.1148 0.907
95.1450 0.644
95.1753 0.850
95.2056 1.681
95.2359 1.523
95.2662 0.897
95.2964 0.531
95.3267 0.634
95.3570 1.728
95.3873 1.363
95.4175 1.051
95.4478 0.427
95.4781 1.417
95.5084 0.533
95.5387 0.483
95.5689 0.693
95.5992 1.581
95.6295 0.958
95.6598 0.493
95.6901 1.017
95.7203 0.864
95.7506 -0.069
95.7809 0.612
95.8112 0.565
95.8414 0.674
95.8717 0.419
95.9020 0.373
95.9323 0.587
95.9626 0.073
95.9928 -0.337
96.0231 -0.018
96.0534 -0.168
96.0837 0.256
96.1140 0.003
96.1442 -0.041
96.1745 -0.190
96.2048 -0.389
96.2351 0.243
96.2653 -0.010
96.2956 -0.211
96.3259 0.370
96.3562 0.222
96.3865 -0.342
96.4167 -0.021
96.4470 -0.115
96.4773 -0.054
96.5076 -0.096
96.5379 0.175
96.5681 -0.022
96.5984 0.041
96.6287 -0.260
96.6590 -0.249
96.6893 0.544
96.7195 -0.017
96.7498 0.256
96.7801 0.165
96.8104 -0.239
96.8406 -0.173
96.8709 -0.056
96.9012 -0.250
96.9315 -0.090
96.9618 0.018
96.9920 -0.134
97.0223 -0.494
97.0526 0.501
97.0829 -0.015
97.1132 -0.217
97.1434 -0.159
97.1737 0.003
97.2040 -0.094
97.2343 -0.191
97.2645 0.806
97.2948 0.292
97.3251 0.352
97.3554 -0.212
97.3857 0.578
97.4159 0.066
97.4462 -0.029
97.4765 0.189
97.5068 -0.113
97.5371 -0.259
97.5673 0.146
97.5976 0.394
97.6279 -0.034
97.6582 0.319
97.6884 0.465
97.7187 0.246
97.7490 0.340
97.7793 0.070
97.8096 0.165
97.8398 0.416
97.8701 0.043
97.9004 -0.018
97.9307 -0.078
97.9610 0.227
97.9912 0.272
98.0215 0.577
98.0518 -0.263
98.0821 0.095
98.1123 0.454
98.1426 0.656
98.1729 0.807
98.2032 -0.396
98.2335 0.797
98.2637 0.428
98.2940 0.164
98.3243 -0.100
98.3546 0.782
98.3849 0.258
98.4151 0.464
98.4454 0.826
98.4757 0.251
98.5060 0.302
98.5362 1.082
98.5665 0.716
98.5968 0.611
98.6271 0.194
98.6574 0.767
98.6876 0.872
98.7179 0.612
98.7482 -0.220
98.7785 0.302
98.8088 0.616
98.8390 0.514
98.8693 -0.004
98.8996 0.780
98.9299 0.314
98.9601 0.839
98.9904 -0.043
99.0207 0.742
99.0510 0.434
99.0813 0.283
99.1115 -0.389
99.1418 0.293
99.1721 0.456
99.2024 0.618
99.2327 0.624
99.2629 0.215
99.2932 0.013
99.3235 0.333
99.3538 0.185
99.3841 -0.171
99.4143 -0.059
99.4446 0.002
99.4749 -0.249
99.5052 0.073
99.5354 0.083
99.5657 0.093
99.5960 -0.157
99.6263 0.063
99.6566 -0.239
99.6868 -0.242
99.7171 0.433
99.7474 0.587
99.7777 0.116
99.8080 -0.666
99.8382 0.114
99.8685 0.165
99.8988 0.477
99.9291 0.216
99.9593 0.477
99.9896 0.790
100.0199 -0.147
100.0502 -0.041
100.0805 0.325
100.1107 0.118
100.1410 0.277
100.1713 -0.294
100.2016 -0.030
100.2319 0.181
100.2621 -0.023
100.2924 -0.228
100.3227 -0.119
100.3530 -0.219
100.3832 -0.058
100.4135 -0.105
100.4438 0.265
100.4741 0.167
100.5044 0.121
100.5346 -0.028
100.5649 -0.021
100.5952 -0.222
100.6255 0.150
100.6558 -0.103
100.6860 -0.198
100.7163 -0.086
100.7466 -0.441
100.7769 0.122
100.8071 0.322
100.8374 0.261
100.8677 -0.008
100.8980 0.505
100.9283 0.393
100.9585 0.074
100.9888 0.431
101.0191 0.164
101.0494 -0.050
101.0797 0.152
101.1099 0.094
101.1402 -0.015
101.1705 0.084
101.2008 -0.545
101.2310 -0.036
101.2613 0.214
101.2916 -0.318
101.3219 0.193
101.3522 -0.129
101.3824 -0.556
101.4127 0.321
101.4430 0.104
101.4733 0.095
101.5036 -0.330
101.5338 0.131
101.5641 0.384
101.5944 -0.352
101.6247 0.214
101.6549 -0.470
101.6852 -0.059
101.7155 0.300
101.7458 -0.174
101.7761 -0.388
101.8063 0.701
101.8366 0.072
101.8669 0.276
101.8972 -0.040
101.9275 -0.252
101.9577 -0.255
101.9880 0.159
102.0183 -0.208
102.0486 -0.211
102.0788 0.048
102.1091 -0.110
102.1394 -0.163
102.1697 0.201
102.2000 0.356
102.2302 -0.060
102.2605 0.513
102.2908 0.357
102.3211 -0.007
102.3514 0.307
102.3816 0.100
102.4119 -0.002
102.4422 0.052
102.4725 1.044
102.5028 -0.098
102.5330 0.269
102.5633 0.273
102.5936 0.016
102.6239 0.437
102.6541 0.546
102.6844 -0.022
102.7147 0.817
102.7450 0.666
102.7753 -0.161
102.8055 -0.259
102.8358 0.197
102.8661 0.237
102.8964 0.954
102.9267 0.683
102.9569 0.828
102.9872 0.661
103.0175 0.650
103.0478 0.275
103.0780 0.839
103.1083 0.308
103.1386 0.664
103.1689 0.342
103.1992 0.438
103.2294 -0.299
103.2597 0.683
103.2900 0.259
103.3203 0.720
103.3506 0.766
103.3808 0.811
103.4111 0.076
103.4414 0.279
103.4717 -0.143
103.5019 0.372
103.5322 -0.153
103.5625 0.103
103.5928 0.359
103.6231 1.085
103.6533 0.769
103.6836 0.245
103.7139 0.763
103.7442 0.396
103.7745 0.394
103.8047 0.809
103.8350 0.912
103.8653 0.651
103.8956 0.494
103.9258 0.494
103.9561 0.962
103.9864 0.494
104.0167 0.807
104.0470 0.860
104.0772 1.174
104.1075 0.707
104.1378 0.501
104.1681 0.868
104.1984 0.402
104.2286 0.822
104.2589 1.815
104.2892 0.412
104.3195 0.573
104.3497 0.369
104.3800 0.530
104.4103 0.847
104.4406 0.853
104.4709 0.234
104.5011 0.344
104.5314 -0.222
104.5617 0.670
104.5920 0.208
104.6223 -0.149
104.6525 0.640
104.6828 -0.133
104.7131 0.292
104.7434 0.301
104.7736 0.467
104.8039 0.164
104.8342 0.434
104.8645 -0.337
104.8948 -0.382
104.9250 0.511
104.9553 0.102
104.9856 -0.463
105.0159 0.170
105.0462 0.335
105.0764 0.293
105.1067 0.302
105.1370 -0.053
105.1673 0.322
105.1975 0.489
105.2278 0.552
105.2581 0.198
105.2884 -0.363
105.3187 -0.148
105.3489 -0.244
105.3792 0.018
105.4095 -0.293
105.4398 0.387
105.4701 -0.444
105.5003 0.496
105.5306 -0.073
105.5609 0.139
105.5912 0.455
105.6215 -0.270
105.6517 0.256
105.6820 -0.416
105.7123 0.214
105.7426 -0.197
105.7728 -0.034
105.8031 -0.028
105.8334 -0.230
105.8637 0.142
105.8940 -0.424
105.9242 0.001
105.9545 0.009
105.9848 0.382
106.0151 -0.078
106.0454 -0.121
106.0756 0.253
106.1059 0.210
106.1362 0.012
106.1665 -0.082
106.1967 -0.227
106.2270 -0.123
106.2573 0.295
106.2876 0.244
106.3179 0.089
106.3481 -0.222
106.3784 0.197
106.4087 0.251
106.4390 0.567
106.4693 -0.108
106.4995 -0.417
106.5298 0.316
106.5601 -0.200
106.5904 0.533
106.6206 0.330
106.6509 -0.186
106.6812 -0.285
106.7115 0.226
106.7418 -0.149
106.7720 0.154
106.8023 0.249
106.8326 -0.073
106.8629 0.179
106.8932 -0.037
106.9234 -0.202
106.9537 -0.157
106.9840 -0.008
107.0143 0.193
107.0445 0.082
107.0748 -0.184
107.1051 0.018
107.1354 0.481
107.1657 -0.357
107.1959 0.784
107.2262 0.310
107.2565 0.098
107.2868 0.094
107.3171 0.663
107.3473 -0.329
107.3776 0.449
107.4079 0.186
107.4382 0.132
107.4684 0.338
107.4987 0.181
107.5290 -0.133
107.5593 0.231
107.5896 -0.030
107.6198 -0.239
107.6501 -0.190
107.6804 0.171
107.7107 -0.041
107.7410 -0.252
107.7712 0.318
107.8015 0.004
107.8318 -0.206
107.8621 -0.104
107.8923 -0.001
107.9226 -0.314
107.9529 0.154
107.9832 0.050
108.0135 -0.002
108.0437 0.103
108.0740 0.052
108.1043 0.105
108.1346 0.263
108.1649 0.160
108.1951 0.163
108.2254 0.322
108.2557 -0.353
108.2860 -0.037
108.3163 -0.085
108.3465 0.075
108.3768 -0.233
108.4071 0.344
108.4374 0.401
108.4676 -0.010
108.4979 -0.109
108.5282 -0.259
108.5585 0.153
108.5888 -0.007
108.6190 -0.167
108.6493 0.195
108.6796 0.140
108.7099 0.241
108.7402 0.187
108.7704 0.185
108.8007 -0.181
108.8310 0.078
108.8613 0.130
108.8915 -0.548
108.9218 -0.027
108.9521 0.181
108.9824 -0.079
109.0127 0.183
109.0429 -0.389
109.0732 -0.141
109.1035 0.107
109.1338 0.200
109.1641 -0.228
109.1943 0.178
109.2246 -0.093
109.2549 -0.156
109.2852 -0.009
109.3154 -0.019
109.3457 0.024
109.3760 0.431
109.4063 0.058
109.4366 -0.158
109.4668 -0.062
109.4971 -0.017
109.5274 -0.441
109.5577 0.071
109.5880 0.479
109.6182 0.055
109.6485 0.359
109.6788 -0.273
109.7091 -0.019
109.7393 0.130
109.7696 0.124
109.7999 -0.038
109.8302 0.008
109.8605 0.159
109.8907 0.207
109.9210 0.567
109.9513 0.667
109.9816 0.611
110.0119 0.607
110.0421 0.604
110.0724 0.341
110.1027 0.182
110.1330 0.232
110.1632 0.438
110.1935 0.645
110.2238 0.592
110.2541 1.060
110.2844 0.382
110.3146 0.121
110.3449 0.278
110.3752 0.122
110.4055 -0.085
110.4358 0.905
110.4660 0.647
110.4963 0.232
110.5266 0.182
110.5569 0.341
110.5871 0.187
110.6174 0.972
110.6477 0.455
110.6780 0.459
110.7083 0.619
110.7385 0.728
110.7688 0.576
110.7991 0.165
110.8294 0.535
110.8597 0.593
110.8899 0.443
110.9202 0.398
110.9505 0.092
110.9808 0.047
111.0110 0.680
111.0413 0.115
111.0716 -0.085
111.1019 -0.180
111.1322 -0.067
111.1624 0.307
111.1927 0.056
111.2230 0.587
111.2533 -0.340
111.2836 0.191
111.3138 -0.110
111.3441 0.214
111.3744 0.277
111.4047 0.185
111.4350 0.458
111.4652 -0.050
111.4955 -0.037
111.5258 0.341
111.5561 0.146
111.5863 0.265
111.6166 0.539
111.6469 0.502
111.6772 0.309
111.7075 0.272
111.7377 -0.233
111.7680 -0.233
111.7983 0.281
111.8286 -0.038
111.8589 0.163
111.8891 0.053
111.9194 0.464
111.9497 0.042
111.9800 0.297
112.0102 0.084
112.0405 0.028
112.0708 -0.185
112.1011 1.270
112.1314 0.485
112.1616 0.378
112.1919 0.167
112.2222 -0.096
112.2525 0.163
112.2828 -0.100
112.3130 0.368
112.3433 0.002
112.3736 0.314
112.4039 0.105
112.4341 0.262
112.4644 0.262
112.4947 0.419
112.5250 0.055
112.5553 0.421
112.5855 0.058
112.6158 0.217
112.6461 0.219
112.6764 0.117
112.7067 0.433
112.7369 0.228
112.7672 -0.133
112.7975 -0.233
112.8278 0.122
112.8580 0.113
112.8883 0.937
112.9186 0.147
112.9489 -0.173
112.9792 0.496
113.0094 0.228
113.0397 0.325
113.0700 0.630
113.1003 0.103
113.1306 0.409
113.1608 -0.326
113.1911 0.085
113.2214 -0.128
113.2517 0.128
113.2819 0.227
113.3122 0.171
113.3425 0.011
113.3728 0.007
113.4031 0.160
113.4333 -0.259
113.4636 -0.111
113.4939 0.714
113.5242 -0.075
113.5545 0.126
113.5847 0.118
113.6150 0.164
113.6453 -0.103
113.6756 -0.109
113.7058 -0.011
113.7361 -0.121
113.7664 0.291
113.7967 -0.235
113.8270 -0.083
113.8572 0.381
113.8875 0.221
113.9178 0.374
113.9481 -0.202
113.9784 -0.205
114.0086 -0.311
114.0389 0.249
114.0692 -0.024
114.0995 -0.453
114.1298 0.160
114.1600 -0.425
114.1903 0.189
114.2206 -0.134
114.2509 0.064
114.2811 -0.520
114.3114 -0.009
114.3417 0.241
114.3720 -0.081
114.4023 0.482
114.4325 -0.308
114.4628 -0.004
114.4931 0.248
114.5234 0.084
114.5537 -0.132
114.5839 0.121
114.6142 0.114
114.6445 -0.310
114.6748 -0.056
114.7050 0.095
114.7353 -0.276
114.7656 -0.076
114.7959 -0.397
114.8262 0.480
114.8564 0.316
114.8867 -0.265
114.9170 0.041
114.9473 -0.227
114.9776 -0.129
115.0078 -0.292
115.0381 0.223
115.0684 0.322
115.0987 -0.204
115.1289 0.052
115.1592 -0.838
115.1895 0.043
115.2198 0.300
115.2501 0.140
115.2803 0.189
115.3106 -0.127
115.3409 -0.285
115.3712 0.019
115.4015 0.011
115.4317 0.733
115.4620 -0.004
115.4923 -0.167
115.5226 0.295
115.5528 -0.232
115.5831 0.543
115.6134 0.590
115.6437 -0.145
115.6740 0.840
115.7042 1.200
115.7345 0.154
115.7648 0.827
115.7951 0.147
115.8254 0.716
115.8556 0.870
115.8859 0.815
115.9162 0.813
115.9465 0.551
115.9767 0.706
116.0070 0.809
116.0373 0.443
116.0676 1.380
116.0979 1.172
116.1281 0.911
116.1584 0.756
116.1887 0.496
116.2190 0.862
116.2493 1.332
116.2795 0.969
116.3098 1.128
116.3401 0.401
116.3704 1.185
116.4006 0.824
116.4309 1.036
116.4612 0.259
116.4915 0.784
116.5218 0.528
116.5520 0.741
116.5823 1.996
116.6126 0.648
116.6429 0.914
116.6732 0.452
116.7034 0.198
116.7337 0.465
116.7640 0.889
116.7943 0.689
116.8245 0.436
116.8548 1.017
116.8851 1.026
116.9154 0.670
116.9457 0.159
116.9759 0.169
117.0062 0.908
117.0365 0.397
117.0668 0.460
117.0971 0.367
117.1273 0.014
117.1576 0.234
117.1879 0.194
117.2182 0.154
117.2485 0.323
117.2787 0.336
117.3090 0.506
117.3393 0.051
117.3696 0.794
117.3998 -0.025
117.4301 0.354
117.4604 -0.412
117.4907 0.489
117.5210 -0.016
117.5512 -0.260
117.5815 0.054
117.6118 0.265
117.6421 0.528
117.6724 -0.146
117.7026 -0.090
117.7329 -0.451
117.7632 0.178
117.7935 0.130
117.8237 0.552
117.8540 -0.277
117.8843 0.562
117.9146 -0.213
117.9449 0.678
117.9751 0.268
118.0054 0.587
118.0357 0.074
118.0660 0.341
118.0963 -0.328
118.1265 0.045
118.1568 -0.259
118.1871 -0.002
118.2174 -0.110
118.2476 -0.009
118.2779 0.197
118.3082 0.403
118.3385 0.244
118.3688 0.034
118.3990 0.502
118.4293 0.396
118.4596 -0.333
118.4899 -0.230
118.5202 -0.126
118.5504 -0.021
118.5807 0.448
118.6110 -0.228
118.6413 0.399
118.6715 0.504
118.7018 -0.119
118.7321 -0.064
118.7624 -0.218
118.7927 -0.423
118.8229 0.466
118.8532 0.469
118.8835 -0.360
118.9138 0.269
118.9441 -0.247
118.9743 -0.190
119.0046 0.024
119.0349 -0.178
119.0652 -0.120
119.0954 -0.114
119.1257 0.101
119.1560 -0.048
119.1863 0.012
119.2166 0.332
119.2468 -0.285
119.2771 -0.286
119.3074 0.650
119.3377 0.025
119.3680 0.025
119.3982 0.389
119.4285 0.338
119.4588 0.287
119.4891 -0.337
119.5193 -0.237
119.5496 -0.085
119.5799 0.536
119.6102 0.533
119.6405 0.321
119.6707 -0.255
119.7010 -0.049
119.7313 -0.311
119.7616 0.110
119.7919 0.010
119.8221 -0.037
119.8524 0.698
119.8827 -0.286
119.9130 0.397
119.9433 0.091
119.9735 0.201
120.0038 0.000
