'Id: "" Comment: "" Operator: "Lab Manager" Anode: "Cu" Scantype: "Locked Coupled" TimePerStep: "19.2" X: "9999" Y: "9999" Z: "9999" 
10.0015 0.000
10.0318 0.169
10.0620 -0.027
10.0923 -0.379
10.1226 0.241
10.1529 -0.598
10.1832 0.022
10.2134 -0.555
10.2437 0.273
10.2740 0.321
10.3043 -0.152
10.3346 -0.051
10.3648 0.362
10.3951 -0.110
10.4254 0.459
10.4557 0.717
10.4859 0.558
10.5162 0.451
10.5465 0.397
10.5768 0.863
10.6071 1.539
10.6373 1.225
10.6676 1.952
10.6979 1.899
10.7282 2.471
10.7585 1.741
10.7887 2.678
10.8190 5.074
10.8493 6.792
10.8796 6.740
10.9098 10.074
10.9401 10.491
10.9704 15.284
11.0007 16.795
11.0310 23.203
11.0612 26.850
11.0915 27.216
11.1218 29.354
11.1521 25.866
11.1824 21.390
11.2126 18.892
11.2429 11.655
11.2732 9.002
11.3035 5.985
11.3337 4.478
11.3640 4.429
11.3943 3.287
11.4246 3.135
11.4549 2.723
11.4851 2.050
11.5154 1.534
11.5457 1.956
11.5760 1.180
11.6063 0.613
11.6365 1.243
11.6668 0.729
11.6971 0.578
11.7274 1.626
11.7577 1.998
11.7879 1.275
11.8182 0.553
11.8485 0.613
11.8788 0.776
11.9090 -0.310
11.9393 0.427
11.9696 -0.190
11.9999 -0.233
12.0302 0.088
12.0604 0.461
12.0907 0.158
12.1210 -0.666
12.1513 -0.031
12.1816 -0.073
12.2118 0.198
12.2421 0.261
12.2724 0.793
12.3027 0.284
12.3329 -0.434
12.3632 -0.005
12.3935 0.423
12.4238 0.436
12.4541 0.188
12.4843 0.200
12.5146 0.734
12.5449 0.435
12.5752 0.604
12.6055 0.149
12.6357 0.111
12.6660 0.125
12.6963 0.868
12.7266 0.674
12.7568 0.637
12.7871 0.600
12.8174 0.094
12.8477 0.422
12.8780 -0.188
12.9082 0.245
12.9385 0.938
12.9688 0.485
12.9991 0.137
13.0294 0.310
13.0596 0.379
13.0899 0.500
13.1202 0.518
13.1505 0.743
13.1807 0.397
13.2110 0.363
13.2413 0.537
13.2716 0.712
13.3019 0.001
13.3321 -0.240
13.3624 -0.022
13.3927 0.665
13.4230 0.623
13.4533 0.373
13.4835 0.175
13.5138 0.134
13.5441 -0.376
13.5744 0.417
13.6046 0.428
13.6349 0.284
13.6652 -0.069
13.6955 0.672
13.7258 -0.149
13.7560 0.124
13.7863 -0.019
13.8166 0.046
13.8469 -0.201
13.8772 -0.135
13.9074 -0.538
13.9377 0.361
13.9680 0.740
13.9983 -0.235
14.0285 -0.169
14.0588 -0.206
14.0891 -0.087
14.1194 -0.123
14.1497 -0.108
14.1799 -0.196
14.2102 -0.337
14.2405 0.302
14.2708 -0.257
14.3011 -0.034
14.3313 -0.176
14.3616 -0.161
14.3919 -0.042
14.4222 -0.079
14.4524 0.040
14.4827 0.108
14.5130 0.072
14.5433 -0.068
14.5736 -0.261
14.6038 0.157
14.6341 0.418
14.6644 0.523
14.6947 0.473
14.7250 0.526
14.7552 0.320
14.7855 0.478
14.8158 -0.093
14.8461 0.378
14.8764 -0.244
14.9066 0.749
14.9369 0.387
14.9672 -0.078
14.9975 0.081
15.0277 0.398
15.0580 0.193
15.0883 0.770
15.1186 0.306
15.1489 0.050
15.1791 0.264
15.2094 -0.148
15.2397 0.066
15.2700 -0.137
15.3003 -0.444
15.3305 0.236
15.3608 -0.021
15.3911 -0.330
15.4214 0.403
15.4516 0.251
15.4819 0.515
15.5122 0.311
15.5425 0.107
15.5728 0.008
15.6030 0.221
15.6333 -0.399
15.6636 -0.081
15.6939 -0.179
15.7242 0.133
15.7544 0.133
15.7847 0.446
15.8150 -0.074
15.8453 0.447
15.8755 0.396
15.9058 0.137
15.9361 0.242
15.9664 0.192
15.9967 -0.327
16.0269 0.195
16.0572 -0.063
16.0875 0.252
16.1178 0.359
16.1481 -0.159
16.1783 -0.104
16.2086 0.368
16.2389 0.476
16.2692 0.220
16.2994 0.119
16.3297 -0.137
16.3600 -0.028
16.3903 0.445
16.4206 -0.279
16.4508 0.403
16.4811 -0.112
16.5114 -0.523
16.5417 0.205
16.5720 -0.108
16.6022 0.152
16.6325 0.204
16.6628 -0.109
16.6931 -0.161
16.7233 -0.265
16.7536 0.517
16.7839 -0.419
16.8142 0.051
16.8445 0.208
16.8747 0.054
16.9050 0.316
16.9353 0.266
16.9656 0.268
16.9959 0.427
17.0261 0.638
17.0564 -0.141
17.0867 0.123
17.1170 0.334
17.1472 0.078
17.1775 0.133
17.2078 -0.175
17.2381 0.038
17.2684 0.407
17.2986 0.099
17.3289 0.364
17.3592 0.057
17.3895 0.114
17.4198 0.172
17.4500 -0.239
17.4803 0.392
17.5106 0.450
17.5409 -0.064
17.5712 -0.005
17.6014 0.574
17.6317 0.061
17.6620 -0.036
17.6923 0.232
17.7225 0.188
17.7528 0.091
17.7831 -0.317
17.8134 -0.005
17.8437 0.047
17.8739 -0.057
17.9042 0.151
17.9345 0.256
17.9648 -0.108
17.9951 0.362
18.0253 0.206
18.0556 0.208
18.0859 0.209
18.1162 0.367
18.1464 0.161
18.1767 0.163
18.2070 0.687
18.2373 0.689
18.2676 -0.193
18.2978 0.070
18.3281 0.230
18.3584 0.285
18.3887 0.237
18.4190 0.085
18.4492 0.193
18.4795 -0.063
18.5098 0.046
18.5401 0.207
18.5703 0.317
18.6006 -0.095
18.6309 0.223
18.6612 0.333
18.6915 0.079
18.7217 -0.071
18.7520 0.196
18.7823 -0.162
18.8126 -0.113
18.8429 0.248
18.8731 0.454
18.9034 0.086
18.9337 0.136
18.9640 -0.074
18.9942 0.132
19.0245 0.443
19.0548 0.025
19.0851 0.232
19.1154 0.074
19.1456 0.126
19.1759 0.698
19.2062 0.125
19.2365 0.177
19.2668 -0.344
19.2970 -0.083
19.3273 0.021
19.3576 0.178
19.3879 0.023
19.4181 0.337
19.4484 -0.078
19.4787 0.340
19.5090 0.082
19.5393 0.188
19.5695 0.242
19.5998 0.037
19.6301 0.039
19.6604 -0.010
19.6907 0.150
19.7209 -0.055
19.7512 0.105
19.7815 -0.047
19.8118 0.217
19.8420 0.065
19.8723 0.174
19.9026 0.179
19.9329 0.444
19.9632 -0.124
19.9934 0.090
20.0237 0.096
20.0540 0.102
20.0843 0.160
20.1146 0.010
20.1448 0.381
20.1751 0.492
20.2054 0.447
20.2357 0.038
20.2659 0.097
20.2962 0.366
20.3265 0.373
20.3568 0.382
20.3871 -0.079
20.4173 -0.122
20.4476 -0.077
20.4779 0.020
20.5082 0.221
20.5385 0.423
20.5687 0.208
20.5990 0.150
20.6293 -0.012
20.6596 0.139
20.6899 0.081
20.7201 0.076
20.7504 0.071
20.7807 0.327
20.8110 0.218
20.8412 0.109
20.8715 0.105
20.9018 0.310
20.9321 0.150
20.9624 0.459
20.9926 0.299
21.0229 0.348
21.0532 0.241
21.0835 0.031
21.1138 0.289
21.1440 0.026
21.1743 0.285
21.2046 -0.290
21.2349 0.177
21.2651 0.280
21.2954 0.331
21.3257 0.018
21.3560 -0.139
21.3863 -0.140
21.4165 0.381
21.4468 0.224
21.4771 0.328
21.5074 0.380
21.5377 -0.141
21.5679 0.328
21.5982 0.069
21.6285 -0.139
21.6588 0.015
21.6890 0.064
21.7193 0.270
21.7496 -0.045
21.7799 0.109
21.8102 0.055
21.8404 0.106
21.8707 0.156
21.9010 0.311
21.9313 0.310
21.9616 -0.003
21.9918 -0.056
22.0221 0.413
22.0524 -0.004
22.0827 0.048
22.1129 0.101
22.1432 0.101
22.1735 0.154
22.2038 -0.157
22.2341 0.208
22.2643 0.418
22.2946 0.316
22.3249 0.109
22.3552 0.059
22.3855 0.218
22.4157 0.116
22.4460 0.536
22.4763 0.226
22.5066 0.334
22.5368 0.702
22.5671 0.758
22.5974 0.449
22.6277 0.349
22.6580 0.666
22.6882 0.306
22.7185 0.311
22.7488 0.055
22.7791 -0.044
22.8094 0.222
22.8396 0.124
22.8699 -0.131
22.9002 -0.334
22.9305 0.348
22.9607 0.145
22.9910 0.099
23.0213 -0.207
23.0516 0.163
23.0819 0.326
23.1121 0.072
23.1424 -0.025
23.1727 -0.122
23.2030 0.085
23.2333 0.084
23.2635 0.240
23.2938 -0.021
23.3241 0.239
23.3544 -0.073
23.3846 0.083
23.4149 0.032
23.4452 0.032
23.4755 0.085
23.5058 0.399
23.5360 0.400
23.5663 0.037
23.5966 0.195
23.6269 0.302
23.6572 0.200
23.6874 0.046
23.7177 0.049
23.7480 -0.053
23.7783 0.107
23.8086 -0.150
23.8388 0.322
23.8691 -0.091
23.8994 -0.139
23.9297 0.174
23.9599 -0.033
23.9902 0.124
24.0205 -0.031
24.0508 0.283
24.0811 -0.132
24.1113 0.183
24.1416 0.185
24.1719 0.344
24.2022 0.346
24.2325 0.505
24.2627 0.144
24.2930 -0.217
24.3233 -0.066
24.3536 0.190
24.3838 -0.127
24.4141 -0.027
24.4444 0.073
24.4747 -0.034
24.5050 0.066
24.5352 0.376
24.5655 0.112
24.5958 0.161
24.6261 0.159
24.6564 0.625
24.6866 0.050
24.7169 0.153
24.7472 0.151
24.7775 0.358
24.8077 0.044
24.8380 -0.009
24.8683 0.094
24.8986 0.094
24.9289 -0.167
24.9591 0.198
24.9894 0.250
25.0197 0.354
25.0500 0.042
25.0803 0.043
25.1105 0.357
25.1408 0.097
25.1711 0.203
25.2014 0.413
25.2316 -0.106
25.2619 0.209
25.2922 0.055
25.3225 0.214
25.3528 0.112
25.3830 0.063
25.4133 0.118
25.4436 0.434
25.4739 0.230
25.5042 -0.079
25.5344 0.029
25.5647 0.138
25.5950 0.142
25.6253 -0.113
25.6555 -0.061
25.6858 -0.009
25.7161 -0.061
25.7464 0.199
25.7767 0.513
25.8069 0.201
25.8372 0.306
25.8675 -0.109
25.8978 0.049
25.9281 0.050
25.9583 0.000
25.9886 -0.050
26.0189 0.213
26.0492 -0.149
26.0794 0.114
26.1097 0.117
26.1400 -0.140
26.1703 -0.041
26.2006 -0.047
26.2308 -0.001
26.2611 0.307
26.2914 0.145
26.3217 -0.120
26.3520 0.032
26.3822 0.027
26.4125 0.023
26.4428 0.175
26.4731 0.224
26.5034 -0.040
26.5336 0.321
26.5639 0.162
26.5942 0.107
26.6245 0.104
26.6547 -0.055
26.6850 0.412
26.7153 0.202
26.7456 0.408
26.7759 -0.114
26.8061 0.041
26.8364 0.040
26.8667 -0.065
26.8970 0.143
26.9273 0.090
26.9575 -0.014
26.9878 0.194
27.0181 -0.118
27.0484 0.143
27.0786 -0.273
27.1089 0.353
27.1392 0.198
27.1695 -0.165
27.1998 0.044
27.2300 0.046
27.2603 0.048
27.2906 -0.106
27.3209 0.001
27.3512 0.264
27.3814 -0.045
27.4117 -0.146
27.4420 0.221
27.4723 -0.192
27.5025 0.073
27.5328 -0.027
27.5631 -0.179
27.5934 0.294
27.6237 -0.222
27.6539 -0.113
27.6842 -0.113
27.7145 0.041
27.7448 0.196
27.7751 0.246
27.8053 -0.016
27.8356 0.192
27.8659 0.139
27.8962 -0.070
27.9264 0.086
27.9567 0.242
27.9870 0.034
28.0173 0.555
28.0476 0.139
28.0778 -0.069
28.1081 -0.016
28.1384 0.037
28.1687 0.299
28.1990 -0.064
28.2292 0.094
28.2595 0.252
28.2898 -0.162
28.3201 -0.055
28.3503 0.052
28.3806 0.159
28.4109 -0.151
28.4412 0.061
28.4715 0.169
28.5017 -0.244
28.5320 -0.085
28.5623 0.023
28.5926 0.078
28.6229 0.499
28.6531 0.034
28.6834 -0.066
28.7137 0.251
28.7440 -0.109
28.7742 0.000
28.8045 0.109
28.8348 0.062
28.8651 -0.141
28.8954 0.008
28.9256 0.105
28.9559 0.045
28.9862 0.090
29.0165 0.396
29.0468 0.076
29.0770 -0.034
29.1073 -0.145
29.1376 0.214
29.1679 0.000
29.1981 -0.006
29.2284 0.302
29.2587 0.296
29.2890 0.292
29.3193 -0.078
29.3495 -0.082
29.3798 0.174
29.4101 -0.038
29.4404 0.166
29.4707 -0.098
29.5009 -0.049
29.5312 -0.104
29.5615 0.205
29.5918 0.359
29.6221 -0.008
29.6523 0.198
29.6826 0.144
29.7129 -0.066
29.7432 0.036
29.7734 -0.017
29.8037 -0.122
29.8340 0.024
29.8643 0.171
29.8946 -0.150
29.9248 0.101
29.9551 -0.012
29.9854 0.084
30.0157 0.128
30.0460 -0.349
30.0762 0.164
30.1065 -0.052
30.1368 0.201
30.1671 0.090
30.1973 0.083
30.2276 -0.028
30.2579 -0.139
30.2882 -0.148
30.3185 0.468
30.3487 0.199
30.3790 0.450
30.4093 -0.131
30.4396 0.121
30.4699 -0.043
30.5001 0.106
30.5304 0.098
30.5607 -0.066
30.5910 0.292
30.6212 0.389
30.6515 -0.034
30.6818 0.584
30.7121 0.057
30.7424 0.156
30.7726 0.098
30.8029 0.144
30.8332 0.347
30.8635 0.759
30.8938 0.337
30.9240 0.802
30.9543 0.485
30.9846 0.585
31.0149 0.633
31.0451 0.421
31.0754 1.407
31.1057 0.622
31.1360 1.088
31.1663 1.137
31.1965 1.238
31.2268 1.549
31.2571 1.494
31.2874 1.180
31.3177 1.178
31.3479 0.864
31.3782 1.175
31.4085 0.966
31.4388 1.069
31.4690 1.277
31.4993 1.901
31.5296 1.120
31.5599 2.162
31.5902 2.006
31.6204 2.006
31.6507 1.434
31.6810 2.008
31.7113 1.436
31.7416 1.437
31.7718 1.126
31.8021 1.388
31.8324 1.443
31.8627 0.820
31.8929 0.666
31.9232 1.450
31.9535 1.140
31.9838 1.143
32.0141 0.522
32.0443 0.421
32.0746 0.998
32.1049 1.367
32.1352 0.642
32.1655 0.490
32.1957 0.703
32.2260 0.812
32.2563 0.557
32.2866 0.302
32.3169 0.620
32.3471 0.626
32.3774 0.579
32.4077 0.534
32.4380 0.280
32.4682 0.338
32.4985 0.606
32.5288 0.196
32.5591 0.256
32.5894 0.367
32.6196 0.115
32.6499 0.123
32.6802 -0.025
32.7105 0.035
32.7408 0.148
32.7710 -0.051
32.8013 0.114
32.8316 0.124
32.8619 0.394
32.8921 -0.065
32.9224 0.257
32.9527 0.215
32.9830 0.382
33.0133 0.393
33.0435 0.091
33.0738 -0.106
33.1041 0.114
33.1344 0.229
33.1647 -0.124
33.1949 -0.111
33.2252 0.265
33.2555 -0.087
33.2858 0.134
33.3160 -0.113
33.3463 -0.167
33.3766 0.457
33.4069 -0.170
33.4372 -0.014
33.4674 0.193
33.4977 0.193
33.5280 0.088
33.5583 -0.120
33.5886 0.036
33.6188 0.036
33.6491 0.245
33.6794 -0.067
33.7097 0.039
33.7399 -0.064
33.7702 -0.063
33.8005 -0.217
33.8308 0.146
33.8611 -0.168
33.8913 0.039
33.9216 0.090
33.9519 0.090
33.9822 0.037
34.0125 0.350
34.0427 -0.067
34.0730 0.142
34.1033 0.038
34.1336 -0.013
34.1638 0.144
34.1941 0.353
34.2244 0.250
34.2547 0.252
34.2850 0.462
34.3152 0.048
34.3455 0.675
34.3758 0.052
34.4061 0.159
34.4364 -0.150
34.4666 0.061
34.4969 0.273
34.5272 0.172
34.5575 -0.136
34.5877 0.232
34.6180 -0.180
34.6483 0.345
34.6786 -0.223
34.7089 0.146
34.7391 0.047
34.7694 -0.103
34.7997 -0.101
34.8300 -0.098
34.8603 0.217
34.8905 0.012
34.9208 -0.141
34.9511 0.066
34.9814 0.065
35.0116 0.168
35.0419 -0.093
35.0722 0.011
35.1025 0.010
35.1328 -0.042
35.1630 0.167
35.1933 0.011
35.2236 0.063
35.2539 0.116
35.2842 0.378
35.3144 0.066
35.3447 0.276
35.3750 0.278
35.4053 -0.189
35.4356 0.177
35.4658 0.128
35.4961 0.495
35.5264 -0.127
35.5567 0.501
35.5869 0.191
35.6172 0.351
35.6475 0.042
35.6778 0.254
35.7081 0.571
35.7383 0.107
35.7686 0.059
35.7989 -0.092
35.8292 0.009
35.8595 0.164
35.8897 0.266
35.9200 0.108
35.9503 0.159
35.9806 0.054
36.0108 0.105
36.0411 0.365
36.0714 0.260
36.1017 0.572
36.1320 0.156
36.1622 0.260
36.1925 0.208
36.2228 0.053
36.2531 0.106
36.2834 0.159
36.3136 -0.048
36.3439 0.214
36.3742 0.112
36.4045 -0.043
36.4347 -0.092
36.4650 0.065
36.4953 0.171
36.5256 0.381
36.5559 0.123
36.5861 0.229
36.6164 0.232
36.6467 0.079
36.6770 0.081
36.7073 0.137
36.7375 0.192
36.7678 0.144
36.7981 0.096
36.8284 0.048
36.8586 0.156
36.8889 -0.048
36.9192 -0.095
36.9495 0.009
36.9798 0.061
37.0100 0.061
37.0403 0.426
37.0706 0.011
37.1009 0.116
37.1312 0.221
37.1614 0.118
37.1917 -0.037
37.2220 0.278
37.2523 0.228
37.2825 -0.083
37.3128 -0.080
37.3431 -0.031
37.3734 0.175
37.4037 0.224
37.4339 -0.142
37.4642 0.012
37.4945 0.114
37.5248 0.269
37.5551 0.111
37.5853 0.058
37.6156 0.057
37.6459 0.005
37.6762 0.421
37.7064 0.004
37.7367 -0.048
37.7670 0.004
37.7973 0.317
37.8276 0.266
37.8578 0.162
37.8881 0.059
37.9184 -0.044
37.9487 0.010
37.9790 0.116
38.0092 -0.038
38.0395 0.277
38.0698 0.331
38.1001 -0.031
38.1304 -0.080
38.1606 -0.033
38.1909 -0.039
38.2212 0.113
38.2515 -0.100
38.2817 0.312
38.3120 0.047
38.3423 -0.009
38.3726 0.039
38.4029 0.192
38.4331 -0.072
38.4634 0.081
38.4937 0.026
38.5240 0.336
38.5543 0.177
38.5845 0.071
38.6148 0.121
38.6451 0.015
38.6754 0.118
38.7056 0.012
38.7359 0.115
38.7662 0.114
38.7965 0.061
38.8268 0.113
38.8570 0.009
38.8873 0.113
38.9176 0.061
38.9479 0.061
38.9782 0.010
39.0084 0.115
39.0387 -0.092
39.0690 -0.146
39.0993 0.217
39.1295 0.164
39.1598 -0.097
39.1901 0.059
39.2204 -0.098
39.2507 0.319
39.2809 0.319
39.3112 0.006
39.3415 0.111
39.3718 0.060
39.4021 -0.043
39.4323 0.166
39.4626 -0.041
39.4929 0.013
39.5232 -0.141
39.5534 0.069
39.5837 -0.086
39.6140 -0.032
39.6443 0.023
39.6746 0.077
39.7048 0.080
39.7351 -0.021
39.7654 0.294
39.7957 -0.015
39.8260 0.093
39.8562 0.357
39.8865 -0.107
39.9168 0.105
39.9471 0.006
39.9773 -0.146
40.0076 0.007
40.0379 0.213
40.0682 0.262
40.0985 0.208
40.1287 0.049
40.1590 0.464
40.1893 0.514
40.2196 -0.164
40.2499 -0.009
40.2801 0.146
40.3104 -0.115
40.3407 -0.116
40.3710 0.193
40.4012 0.086
40.4315 -0.074
40.4618 -0.076
40.4921 0.077
40.5224 0.075
40.5526 0.021
40.5829 0.123
40.6132 0.225
40.6435 0.328
40.6738 -0.194
40.7040 0.065
40.7343 -0.092
40.7646 -0.092
40.7949 0.008
40.8251 0.161
40.8554 0.210
40.8857 0.259
40.9160 0.100
40.9463 0.098
40.9765 -0.009
41.0068 -0.167
41.0371 0.091
41.0674 -0.120
41.0977 0.086
41.1279 -0.020
41.1582 -0.074
41.1885 -0.075
41.2188 0.184
41.2491 0.079
41.2793 0.130
41.3096 0.025
41.3399 -0.183
41.3702 0.077
41.4004 0.129
41.4307 0.025
41.4610 0.026
41.4913 0.026
41.5216 -0.077
41.5518 -0.076
41.5821 -0.022
41.6124 0.136
41.6427 0.085
41.6730 0.087
41.7032 0.090
41.7335 0.040
41.7638 0.407
41.7941 0.098
41.8243 -0.159
41.8546 0.052
41.8849 -0.100
41.9152 0.112
41.9455 -0.092
41.9757 -0.041
42.0060 0.374
42.0363 0.009
42.0666 0.061
42.0969 -0.096
42.1271 0.321
42.1574 0.113
42.1877 0.009
42.2180 0.218
42.2482 -0.041
42.2785 -0.040
42.3088 0.118
42.3391 0.171
42.3694 0.121
42.3996 0.227
42.4299 -0.031
42.4602 0.076
42.4905 0.235
42.5208 0.186
42.5510 0.085
42.5813 -0.016
42.6116 0.144
42.6419 0.252
42.6721 0.204
42.7024 -0.105
42.7327 0.160
42.7630 0.113
42.7933 -0.039
42.8235 -0.033
42.8538 -0.080
42.8841 -0.088
42.9144 0.374
42.9447 0.106
42.9749 -0.005
43.0052 -0.220
43.0355 0.138
43.0658 -0.025
43.0960 0.178
43.1263 0.068
43.1566 0.062
43.1869 0.057
43.2172 0.051
43.2474 0.098
43.2777 -0.010
43.3080 0.089
43.3383 0.293
43.3686 0.133
43.3988 0.025
43.4291 -0.187
43.4594 0.122
43.4897 0.223
43.5199 -0.197
43.5502 -0.043
43.5805 -0.046
43.6108 0.056
43.6411 0.054
43.6713 0.000
43.7016 0.103
43.7319 -0.159
43.7622 0.048
43.7925 0.047
43.8227 -0.058
43.8530 0.202
43.8833 0.098
43.9136 -0.059
43.9439 -0.267
43.9741 0.202
44.0044 -0.214
44.0347 0.204
44.0650 -0.212
44.0952 -0.002
44.1255 -0.001
44.1558 -0.103
44.1861 -0.101
44.2164 -0.047
44.2466 -0.044
44.2769 0.167
44.3072 0.066
44.3375 0.122
44.3678 0.230
44.3980 0.077
44.4283 0.185
44.4586 -0.123
44.4889 0.038
44.5191 0.043
44.5494 -0.057
44.5797 0.313
44.6100 -0.150
44.6403 -0.092
44.6705 0.114
44.7008 0.113
44.7311 0.060
44.7614 0.007
44.7917 0.007
44.8219 0.007
44.8522 0.007
44.8825 0.059
44.9128 0.059
44.9430 -0.044
44.9733 -0.044
45.0036 0.010
45.0339 0.271
45.0642 -0.040
45.0944 0.066
45.1247 0.224
45.1550 0.174
45.1853 0.125
45.2156 0.127
45.2458 0.078
45.2761 -0.023
45.3064 0.032
45.3367 -0.121
45.3669 -0.020
45.3972 0.237
45.4275 0.338
45.4578 0.075
45.4881 0.281
45.5183 -0.086
45.5486 0.015
45.5789 -0.091
45.6092 -0.092
45.6395 0.059
45.6697 0.003
45.7000 0.156
45.7303 -0.108
45.7606 0.149
45.7908 -0.167
45.8211 -0.070
45.8514 0.236
45.8817 0.073
45.9120 0.067
45.9422 0.165
45.9725 0.159
46.0028 -0.107
46.0331 0.304
46.0634 -0.014
46.0936 0.086
46.1239 0.133
46.1542 0.337
46.1845 0.228
46.2147 -0.036
46.2450 0.168
46.2753 -0.044
46.3056 -0.099
46.3359 0.366
46.3661 -0.106
46.3964 0.152
46.4267 -0.007
46.4570 -0.113
46.4873 -0.010
46.5175 0.093
46.5478 -0.064
46.5781 0.248
46.6084 0.039
46.6386 -0.065
46.6689 0.352
46.6992 0.040
46.7295 -0.168
46.7598 0.093
46.7900 0.042
46.8203 0.096
46.8506 0.097
46.8809 0.047
46.9112 -0.055
46.9414 0.103
46.9717 -0.051
47.0020 0.056
47.0323 0.007
47.0626 0.010
47.0928 0.065
47.1231 -0.140
47.1534 0.020
47.1837 -0.133
47.2139 0.078
47.2442 0.030
47.2745 0.190
47.3048 -0.014
47.3351 -0.218
47.3653 0.096
47.3956 0.203
47.4259 0.102
47.4562 -0.104
47.4865 0.212
47.5167 0.111
47.5470 -0.094
47.5773 0.326
47.6076 -0.086
47.6378 0.126
47.6681 0.131
47.6984 0.292
47.7287 -0.172
47.7590 -0.011
47.7892 0.255
47.8195 0.365
47.8498 -0.046
47.8801 -0.092
47.9104 0.107
47.9406 0.411
47.9709 -0.066
48.0012 0.134
48.0315 -0.082
48.0617 0.170
48.0920 -0.045
48.1223 0.156
48.1526 0.096
48.1829 0.038
48.2131 0.291
48.2434 -0.080
48.2737 0.018
48.3040 0.065
48.3343 0.111
48.3645 -0.103
48.3948 -0.056
48.4251 -0.113
48.4554 0.194
48.4856 0.034
48.5159 -0.023
48.5462 0.233
48.5765 0.073
48.6068 -0.139
48.6370 0.013
48.6673 -0.095
48.6976 0.006
48.7279 -0.050
48.7582 -0.001
48.7884 0.361
48.8187 0.098
48.8490 -0.061
48.8793 -0.063
48.9095 0.039
48.9398 -0.015
48.9701 0.087
49.0004 0.190
49.0307 0.033
49.0609 -0.020
49.0912 0.239
49.1215 0.395
49.1518 -0.074
49.1821 0.134
49.2123 -0.074
49.2426 0.083
49.2729 0.031
49.3032 -0.124
49.3334 0.293
49.3637 -0.122
49.3940 0.140
49.4243 0.402
49.4546 -0.117
49.4848 -0.011
49.5151 -0.165
49.5454 0.095
49.5757 -0.061
49.6060 0.356
49.6362 0.095
49.6665 -0.008
49.6968 0.097
49.7271 -0.059
49.7574 -0.006
49.7876 -0.004
49.8179 -0.107
49.8482 0.259
49.8785 0.053
49.9087 -0.049
49.9390 0.162
49.9693 -0.044
49.9996 0.272
50.0299 -0.090
50.0601 0.018
50.0904 0.230
50.1207 -0.079
50.1510 -0.023
50.1813 0.085
50.2115 -0.014
50.2418 0.146
50.2721 0.203
50.3024 0.417
50.3326 0.214
50.3629 0.115
50.3932 0.329
50.4235 0.179
50.4538 0.029
50.4840 0.036
50.5143 -0.114
50.5446 0.035
50.5749 0.028
50.6052 0.230
50.6354 -0.037
50.6657 0.009
50.6960 0.159
50.7263 0.102
50.7565 0.044
50.7868 -0.117
50.8171 0.190
50.8474 0.185
50.8777 -0.080
50.9079 0.176
50.9382 -0.036
50.9685 0.116
50.9988 0.008
51.0291 0.109
51.0593 0.210
51.0896 -0.054
51.1199 -0.109
51.1502 0.409
51.1804 0.095
51.2107 0.145
51.2410 0.038
51.2713 0.089
51.3016 -0.069
51.3318 -0.122
51.3621 0.135
51.3924 0.029
51.4227 0.079
51.4530 0.285
51.4832 0.283
51.5135 0.334
51.5438 0.072
51.5741 0.227
51.6043 -0.242
51.6346 0.174
51.6649 0.329
51.6952 -0.035
51.7255 0.121
51.7557 0.069
51.7860 0.017
51.8163 0.070
51.8466 0.123
51.8769 0.020
51.9071 0.125
51.9374 0.023
51.9677 -0.027
51.9980 0.079
52.0282 -0.127
52.0585 0.031
52.0888 -0.122
52.1191 -0.015
52.1494 0.093
52.1796 -0.007
52.2099 -0.055
52.2402 0.002
52.2705 0.007
52.3008 0.116
52.3310 -0.088
52.3613 0.282
52.3916 -0.077
52.4219 -0.071
52.4521 0.195
52.4824 0.358
52.5127 -0.052
52.5430 -0.046
52.5733 -0.039
52.6035 0.020
52.6338 -0.024
52.6641 0.348
52.6944 0.251
52.7247 0.364
52.7549 -0.045
52.7852 -0.141
52.8155 0.116
52.8458 0.269
52.8761 0.317
52.9063 0.106
52.9366 0.207
52.9669 0.257
52.9972 -0.006
53.0274 0.200
53.0577 0.198
53.0880 0.352
53.1183 0.246
53.1486 0.089
53.1788 -0.069
53.2091 0.035
53.2394 -0.174
53.2697 0.138
53.3000 -0.019
53.3302 -0.019
53.3605 -0.071
53.3908 0.138
53.4211 0.139
53.4513 0.244
53.4816 -0.016
53.5119 0.090
53.5422 0.143
53.5725 -0.063
53.6027 0.095
53.6330 -0.007
53.6633 0.620
53.6936 -0.002
53.7239 -0.103
53.7541 0.052
53.7844 -0.002
53.8147 0.310
53.8450 0.257
53.8752 0.153
53.9055 0.100
53.9358 -0.056
53.9661 -0.056
53.9964 0.101
54.0266 -0.107
54.0569 0.415
54.0872 -0.157
54.1175 -0.103
54.1478 -0.002
54.1780 -0.056
54.2083 0.046
54.2386 -0.008
54.2689 0.042
54.2991 0.353
54.3294 0.456
54.3597 0.143
54.3900 -0.170
54.4203 -0.015
54.4505 0.037
54.4808 0.037
54.5111 0.245
54.5414 -0.015
54.5717 0.038
54.6019 0.039
54.6322 0.040
54.6625 -0.011
54.6928 -0.010
54.7230 0.096
54.7533 0.046
54.7836 -0.004
54.8139 -0.054
54.8442 -0.103
54.8744 -0.103
54.9047 -0.103
54.9350 -0.052
54.9653 0.156
54.9956 0.000
55.0258 0.052
55.0561 0.000
55.0864 -0.103
55.1167 -0.001
55.1469 0.362
55.1772 0.049
55.2075 -0.056
55.2378 -0.005
55.2681 -0.005
55.2983 -0.005
55.3286 0.099
55.3589 0.047
55.3892 -0.057
55.4195 -0.004
55.4497 0.153
55.4800 -0.263
55.5103 -0.053
55.5406 -0.103
55.5709 -0.051
55.6011 0.001
55.6314 0.158
55.6617 0.002
55.6920 -0.101
55.7222 0.056
55.7525 -0.099
55.7828 0.059
55.8131 0.061
55.8434 0.376
55.8736 0.065
55.9039 -0.193
55.9342 0.016
55.9645 -0.087
55.9948 -0.087
56.0250 -0.086
56.0553 -0.032
56.0856 0.021
56.1159 -0.029
56.1461 0.233
56.1764 -0.025
56.2067 -0.023
56.2370 0.240
56.2673 -0.017
56.2975 0.142
56.3278 -0.219
56.3581 -0.062
56.3884 0.043
56.4187 0.044
56.4489 0.306
56.4792 0.255
56.5095 0.153
56.5398 0.103
56.5700 -0.051
56.6003 0.159
56.6306 0.058
56.6609 0.009
56.6912 -0.092
56.7214 0.011
56.7517 -0.250
56.7820 0.115
56.8123 0.167
56.8426 0.011
56.8728 -0.092
56.9031 0.013
56.9334 0.119
56.9637 0.121
56.9939 0.071
57.0242 0.021
57.0545 -0.081
57.0848 0.130
57.1151 0.185
57.1453 0.032
57.1756 0.348
57.2059 0.091
57.2362 -0.061
57.2665 0.099
57.2967 -0.105
57.3270 0.160
57.3573 0.061
57.3876 0.118
57.4178 -0.033
57.4481 -0.080
57.4784 -0.084
57.5087 0.068
57.5390 0.065
57.5692 0.009
57.5995 -0.046
57.6298 0.003
57.6601 0.052
57.6904 0.050
57.7206 0.047
57.7509 0.045
57.7812 0.043
57.8115 -0.010
57.8417 0.040
57.8720 -0.169
57.9023 0.090
57.9326 0.037
57.9629 0.089
57.9931 -0.172
58.0234 0.036
58.0537 -0.016
58.0840 0.037
58.1143 0.142
58.1445 0.038
58.1748 0.143
58.2051 -0.116
58.2354 -0.063
58.2656 0.041
58.2959 -0.010
58.3262 -0.009
58.3565 0.305
58.3868 0.254
58.4170 -0.057
58.4473 -0.003
58.4776 0.052
58.5079 0.106
58.5382 0.161
58.5684 0.059
58.5987 -0.094
58.6290 -0.040
58.6593 -0.091
58.6896 0.119
58.7198 0.069
58.7501 0.175
58.7804 -0.083
58.8107 -0.080
58.8409 0.021
58.8712 0.175
58.9015 0.069
58.9318 -0.037
58.9621 0.065
58.9923 0.064
59.0226 -0.094
59.0529 -0.095
59.0832 0.060
59.1135 0.059
59.1437 0.006
59.1740 0.058
59.2043 -0.099
59.2346 0.109
59.2648 0.109
59.2951 -0.099
59.3254 0.058
59.3557 0.007
59.3860 0.112
59.4162 0.061
59.4465 -0.094
59.4768 -0.046
59.5071 -0.049
59.5374 0.051
59.5676 -0.160
59.5979 0.149
59.6282 -0.010
59.6585 0.040
59.6887 0.246
59.7190 0.036
59.7493 0.034
59.7796 0.136
59.8099 0.083
59.8401 0.134
59.8704 -0.128
59.9007 0.080
59.9310 0.027
59.9613 0.027
59.9915 0.079
60.0218 0.079
60.0521 -0.077
60.0824 0.028
60.1126 0.081
60.1429 -0.075
60.1732 -0.021
60.2035 0.032
60.2338 -0.018
60.2640 -0.173
60.2943 0.038
60.3246 -0.168
60.3549 0.037
60.3852 0.035
60.4154 -0.072
60.4457 0.030
60.4760 0.028
60.5063 0.026
60.5365 -0.080
60.5668 0.023
60.5971 -0.082
60.6274 0.021
60.6577 0.020
60.6879 -0.032
60.7182 0.019
60.7485 -0.033
60.7788 0.280
60.8091 -0.032
60.8393 -0.032
60.8696 0.021
60.8999 0.074
60.9302 -0.185
60.9604 0.025
60.9907 0.027
61.0210 -0.023
61.0513 0.135
61.0816 0.033
61.1118 -0.121
61.1421 -0.016
61.1724 -0.067
61.2027 -0.066
61.2330 -0.012
61.2632 -0.167
61.2935 0.043
61.3238 -0.059
61.3541 0.048
61.3844 0.311
61.4146 0.053
61.4449 -0.152
61.4752 0.111
61.5055 -0.094
61.5357 0.014
61.5660 0.018
61.5963 0.178
61.6266 -0.130
61.6569 0.031
61.6871 -0.017
61.7174 -0.116
61.7477 -0.066
61.7780 0.036
61.8083 -0.018
61.8385 0.084
61.8688 0.395
61.8991 0.029
61.9294 -0.024
61.9596 0.079
61.9899 0.079
62.0202 0.078
62.0505 -0.026
62.0808 0.078
62.1110 0.026
62.1413 -0.077
62.1716 0.080
62.2019 0.029
62.2322 0.082
62.2624 0.083
62.2927 0.085
62.3230 0.087
62.3533 0.193
62.3835 0.143
62.4138 0.041
62.4441 0.304
62.4744 0.099
62.5047 -0.054
62.5349 0.158
62.5652 0.161
62.5955 0.061
62.6258 0.013
62.6561 0.017
62.6863 -0.031
62.7166 -0.078
62.7469 -0.083
62.7772 0.121
62.8074 0.221
62.8377 0.060
62.8680 0.056
62.8983 0.053
62.9286 0.153
62.9588 0.046
62.9891 0.043
63.0194 0.040
63.0497 0.038
63.0800 0.087
63.1102 -0.019
63.1405 0.291
63.1708 -0.127
63.2011 0.080
63.2313 -0.026
63.2616 0.078
63.2919 0.025
63.3222 -0.080
63.3525 -0.080
63.3827 0.022
63.4130 -0.033
63.4433 0.018
63.4736 0.016
63.5039 0.014
63.5341 0.013
63.5644 0.012
63.5947 0.011
63.6250 0.011
63.6552 -0.146
63.6855 0.010
63.7158 0.011
63.7461 0.168
63.7764 0.064
63.8066 0.117
63.8369 -0.142
63.8672 0.120
63.8975 -0.034
63.9278 0.072
63.9580 -0.135
63.9883 -0.080
64.0186 -0.025
64.0489 0.134
64.0791 -0.124
64.1094 -0.068
64.1397 -0.169
64.1700 0.043
64.2003 0.203
64.2305 0.103
64.2608 0.056
64.2911 0.060
64.3214 -0.143
64.3517 -0.086
64.3819 0.064
64.4122 0.110
64.4425 0.052
64.4728 0.099
64.5031 -0.010
64.5333 0.141
64.5636 0.032
64.5939 0.080
64.6242 0.023
64.6544 0.019
64.6847 -0.089
64.7150 0.064
64.7453 -0.044
64.7756 0.005
64.8058 0.106
64.8361 0.051
64.8664 0.049
64.8967 0.047
64.9270 -0.008
64.9572 -0.114
64.9875 0.249
65.0178 -0.065
65.0481 -0.014
65.0783 -0.015
65.1086 0.089
65.1389 0.036
65.1692 -0.225
65.1995 -0.018
65.2297 -0.018
65.2600 0.137
65.2903 0.449
65.3206 -0.020
65.3509 -0.020
65.3811 -0.020
65.4114 -0.019
65.4417 0.346
65.4720 -0.070
65.5022 -0.017
65.5325 -0.016
65.5628 0.090
65.5931 -0.117
65.6234 0.146
65.6536 0.200
65.6839 0.150
65.7142 -0.055
65.7445 -0.105
65.7748 0.107
65.8050 -0.046
65.8353 -0.095
65.8656 0.006
65.8959 -0.049
65.9261 -0.052
65.9564 -0.003
65.9867 0.046
66.0170 0.096
66.0473 0.094
66.0775 -0.064
66.1078 -0.014
66.1381 0.193
66.1684 0.036
66.1987 -0.069
66.2289 0.190
66.2592 -0.018
66.2895 -0.071
66.3198 -0.019
66.3500 0.085
66.3803 0.034
66.4106 -0.018
66.4409 0.035
66.4712 0.244
66.5014 -0.015
66.5317 -0.065
66.5620 -0.116
66.5923 0.145
66.6226 -0.011
66.6528 -0.011
66.6831 0.094
66.7134 0.147
66.7437 0.045
66.7739 0.358
66.8042 -0.004
66.8345 0.050
66.8648 0.052
66.8951 0.158
66.9253 0.057
66.9556 0.059
66.9859 -0.146
67.0162 -0.039
67.0465 0.120
67.0767 0.123
67.1070 -0.134
67.1373 -0.079
67.1676 0.081
67.1978 -0.019
67.2281 -0.119
67.2584 -0.014
67.2887 0.040
67.3190 -0.167
67.3492 0.043
67.3795 -0.059
67.4098 0.152
67.4401 -0.002
67.4704 -0.155
67.5006 0.264
67.5309 0.059
67.5612 0.063
67.5915 0.014
67.6218 -0.086
67.6520 -0.086
67.6823 0.013
67.7126 0.009
67.7429 0.005
67.7731 0.054
67.8034 -0.002
67.8337 0.047
67.8640 0.148
67.8943 0.093
67.9245 0.090
67.9548 0.036
67.9851 0.033
68.0154 -0.073
68.0457 0.134
68.0759 -0.024
68.1062 -0.025
68.1365 0.182
68.1668 0.025
68.1970 0.076
68.2273 0.024
68.2576 -0.029
68.2879 0.023
68.3182 0.024
68.3484 -0.080
68.3787 -0.080
68.4090 0.023
68.4393 -0.083
68.4696 0.021
68.4998 -0.032
68.5301 -0.085
68.5604 0.019
68.5907 0.228
68.6209 0.072
68.6512 -0.032
68.6815 0.021
68.7118 0.178
68.7421 -0.081
68.7723 -0.080
68.8026 0.023
68.8329 0.022
68.8632 0.021
68.8935 -0.032
68.9237 -0.136
68.9540 0.072
68.9843 -0.136
69.0146 0.020
69.0448 -0.031
69.0751 0.022
69.1054 0.283
69.1357 0.128
69.1660 -0.079
69.1962 0.079
69.2265 -0.023
69.2568 0.031
69.2871 0.085
69.3174 0.140
69.3476 0.299
69.3779 -0.115
69.4082 -0.059
69.4385 0.048
69.4687 0.000
69.4990 -0.049
69.5293 0.268
69.5596 0.168
69.5899 -0.088
69.6201 -0.031
69.6504 -0.078
69.6807 -0.083
69.7110 0.017
69.7413 -0.092
69.7715 0.113
69.8018 -0.100
69.8321 0.105
69.8624 -0.003
69.8926 0.046
69.9229 -0.009
69.9532 0.301
69.9835 -0.014
70.0138 0.452
70.0440 0.033
70.0743 0.031
70.1046 -0.022
70.1349 0.184
70.1652 -0.181
70.1954 0.078
70.2257 -0.027
70.2560 0.025
70.2863 -0.028
70.3166 -0.080
70.3468 -0.028
70.3771 -0.080
70.4074 -0.080
70.4377 -0.080
70.4679 -0.029
70.4982 -0.081
70.5285 0.023
70.5588 0.023
70.5891 -0.081
70.6193 -0.029
70.6496 -0.184
70.6799 0.233
70.7102 -0.078
70.7405 0.288
70.7707 0.029
70.8010 0.083
70.8313 -0.071
70.8616 0.139
70.8918 -0.119
70.9221 -0.116
70.9524 0.037
70.9827 0.035
71.0130 -0.072
71.0432 -0.022
71.0735 0.132
71.1038 0.130
71.1341 0.025
71.1644 -0.029
71.1946 0.126
71.2249 0.125
71.2552 0.020
71.2855 0.176
71.3157 0.020
71.3460 -0.032
71.3763 0.072
71.4066 0.020
71.4369 0.021
71.4671 -0.135
71.4974 -0.029
71.5277 -0.080
71.5580 -0.028
71.5883 -0.080
71.6185 -0.029
71.6488 -0.030
71.6791 0.021
71.7094 0.021
71.7396 -0.031
71.7699 0.073
71.8002 -0.031
71.8305 -0.031
71.8608 -0.030
71.8910 0.023
71.9213 -0.080
71.9516 -0.187
71.9819 0.072
72.0122 0.018
72.0424 0.120
72.0727 0.014
72.1030 0.013
72.1333 -0.040
72.1635 0.011
72.1938 0.011
72.2241 0.062
72.2544 -0.094
72.2847 -0.094
72.3149 0.111
72.3452 0.108
72.3755 0.002
72.4058 -0.001
72.4361 -0.003
72.4663 0.047
72.4966 -0.111
72.5269 0.044
72.5572 -0.010
72.5874 0.041
72.6177 -0.168
72.6480 0.040
72.6783 0.145
72.7086 0.145
72.7388 -0.010
72.7691 -0.009
72.7994 -0.060
72.8297 -0.059
72.8600 -0.058
72.8902 -0.056
72.9205 0.155
72.9508 -0.052
72.9811 0.055
73.0113 -0.046
73.0416 0.008
73.0719 0.064
73.1022 0.119
73.1325 0.018
73.1627 -0.134
73.1930 0.130
73.2233 0.030
73.2536 -0.017
73.2839 -0.065
73.3141 0.044
73.3444 0.154
73.3747 0.211
73.4050 0.165
73.4353 -0.090
73.4655 -0.032
73.4958 -0.078
73.5261 -0.082
73.5564 0.070
73.5866 0.067
73.6169 0.167
73.6472 0.060
73.6775 -0.099
73.7078 0.054
73.7380 0.000
73.7683 -0.159
73.7986 -0.005
73.8289 0.045
73.8592 0.044
73.8894 -0.010
73.9197 -0.063
73.9500 -0.012
73.9803 0.091
74.0105 -0.065
74.0408 -0.014
74.0711 0.090
74.1014 -0.066
74.1317 -0.065
74.1619 0.091
74.1922 0.144
74.2225 0.041
74.2528 0.042
74.2831 0.044
74.3133 0.045
74.3436 0.151
74.3739 -0.055
74.4042 0.156
74.4344 0.263
74.4647 0.005
74.4950 -0.148
74.5253 -0.041
74.5556 0.015
74.5858 0.018
74.6161 0.022
74.6464 -0.078
74.6767 -0.136
74.7070 0.118
74.7372 0.060
74.7675 0.054
74.7978 -0.056
74.8281 0.147
74.8583 -0.067
74.8886 0.033
74.9189 -0.076
74.9492 0.128
74.9795 0.019
75.0097 0.275
75.0400 0.063
75.0703 -0.045
75.1006 -0.048
75.1309 -0.155
75.1611 0.102
75.1914 -0.005
75.2217 0.097
75.2520 0.095
75.2822 0.145
75.3125 -0.013
75.3428 0.037
75.3731 -0.121
75.4034 -0.017
75.4336 -0.018
75.4639 -0.070
75.4942 -0.071
75.5245 -0.019
75.5548 -0.018
75.5850 0.034
75.6153 -0.017
75.6456 -0.121
75.6759 0.037
75.7061 -0.118
75.7364 0.092
75.7667 0.094
75.7970 0.045
75.8273 0.203
75.8575 0.102
75.8878 -0.104
75.9181 0.003
75.9484 0.059
75.9787 -0.094
76.0089 -0.045
76.0392 -0.048
76.0695 0.001
76.0998 0.102
76.1301 -0.160
76.1603 0.098
76.1906 -0.113
76.2209 -0.062
76.2512 -0.012
76.2814 0.091
76.3117 -0.223
76.3420 0.037
76.3723 0.192
76.4026 0.036
76.4328 -0.069
76.4631 0.088
76.4934 -0.173
76.5237 -0.068
76.5540 -0.067
76.5842 0.038
76.6145 -0.013
76.6448 -0.063
76.6751 0.199
76.7053 -0.007
76.7356 0.047
76.7659 0.101
76.7962 -0.052
76.8265 0.159
76.8567 0.110
76.8870 0.009
76.9173 0.169
76.9476 0.068
76.9779 -0.084
77.0081 -0.080
77.0384 -0.187
77.0687 0.279
77.0990 0.225
77.1292 0.015
77.1595 0.013
77.1898 0.012
77.2201 -0.042
77.2504 -0.147
77.2806 0.008
77.3109 0.059
77.3412 0.006
77.3715 0.110
77.4018 -0.047
77.4320 0.005
77.4623 -0.151
77.4926 0.162
77.5229 0.058
77.5531 -0.149
77.5834 0.008
77.6137 -0.095
77.6440 -0.044
77.6743 0.058
77.7045 0.005
77.7348 0.108
77.7651 0.003
77.7954 0.107
77.8257 0.002
77.8559 -0.050
77.8862 0.106
77.9165 0.003
77.9468 0.107
77.9770 -0.152
78.0073 0.161
78.0376 0.006
78.0679 0.112
78.0982 -0.043
78.1284 0.011
78.1587 0.065
78.1890 -0.088
78.2193 0.122
78.2496 0.021
78.2798 -0.080
78.3101 -0.080
78.3404 -0.033
78.3707 0.066
78.4009 0.217
78.4312 0.161
78.4615 0.000
78.4918 -0.004
78.5221 -0.112
78.5523 0.093
78.5826 -0.015
78.6129 0.086
78.6432 0.135
78.6735 0.080
78.7037 0.077
78.7340 -0.081
78.7643 -0.083
78.7946 0.123
78.8248 -0.191
78.8551 0.016
78.8854 0.119
78.9157 0.274
78.9460 -0.039
78.9762 0.012
79.0065 -0.040
79.0368 -0.092
79.0671 0.011
79.0974 -0.197
79.1276 0.116
79.1579 -0.092
79.1882 0.013
79.2185 0.118
79.2488 -0.141
79.2790 -0.036
79.3093 0.122
79.3396 -0.136
79.3699 0.231
79.4001 0.077
79.4304 0.132
79.4607 0.030
79.4910 -0.019
79.5213 0.037
79.5515 -0.116
79.5818 0.039
79.6121 0.297
79.6424 0.192
79.6727 -0.018
79.7029 -0.071
79.7332 0.188
79.7635 0.032
79.7938 -0.021
79.8240 -0.073
79.8543 0.135
79.8846 0.240
79.9149 -0.020
79.9452 0.241
79.9754 -0.071
80.0057 0.139
80.0360 0.140
80.0663 -0.118
80.0966 -0.012
80.1268 0.094
80.1571 -0.216
80.1874 -0.006
80.2177 0.049
80.2479 0.000
80.2782 0.055
80.3085 0.007
80.3388 -0.250
80.3691 0.007
80.3993 0.003
80.4296 0.208
80.4599 -0.003
80.4902 -0.006
80.5205 -0.061
80.5507 0.041
80.5810 -0.066
80.6113 -0.068
80.6416 0.191
80.6718 0.033
80.7021 0.084
80.7324 0.135
80.7627 -0.179
80.7930 -0.023
80.8232 0.029
80.8535 0.133
80.8838 0.393
80.9141 0.081
80.9444 0.029
80.9746 -0.074
81.0049 0.239
81.0352 -0.072
81.0655 0.033
81.0957 -0.070
81.1260 -0.068
81.1563 0.090
81.1866 0.041
81.2169 -0.009
81.2471 0.046
81.2774 0.101
81.3077 0.000
81.3380 -0.049
81.3683 0.059
81.3985 -0.094
81.4288 -0.044
81.4591 0.006
81.4894 0.056
81.5196 0.002
81.5499 0.052
81.5802 -0.001
81.6105 -0.158
81.6408 0.101
81.6710 -0.056
81.7013 -0.004
81.7316 0.048
81.7619 0.100
81.7922 -0.004
81.8224 0.153
81.8527 0.257
81.8830 -0.002
81.9133 -0.001
81.9436 -0.052
81.9738 0.002
82.0041 0.108
82.0344 0.162
82.0647 0.008
82.0949 -0.146
82.1252 0.009
82.1555 0.009
82.1858 0.008
82.2161 0.008
82.2463 -0.045
82.2766 0.008
82.3069 0.008
82.3372 0.009
82.3675 -0.095
82.3977 -0.044
82.4280 -0.045
82.4583 0.215
82.4886 0.215
82.5188 0.111
82.5491 -0.098
82.5794 0.059
82.6097 0.007
82.6400 0.164
82.6702 0.009
82.7005 -0.094
82.7308 0.009
82.7611 -0.043
82.7914 0.164
82.8216 0.008
82.8519 -0.096
82.8822 0.060
82.9125 0.008
82.9427 0.061
82.9730 -0.147
83.0033 0.167
83.0336 -0.092
83.0639 0.222
83.0941 0.171
83.1244 0.173
83.1547 0.227
83.1850 0.021
83.2153 -0.080
83.2455 -0.080
83.2758 0.022
83.3061 0.072
83.3364 0.174
83.3666 0.068
83.3969 0.067
83.4272 -0.039
83.4575 0.012
83.4878 -0.093
83.5180 0.271
83.5483 0.010
83.5786 -0.094
83.6089 0.010
83.6392 0.009
83.6694 0.009
83.6997 0.061
83.7300 0.009
83.7603 0.010
83.7905 0.011
83.8208 0.011
83.8511 0.065
83.8814 0.014
83.9117 0.172
83.9419 0.278
83.9722 0.124
84.0025 -0.083
84.0328 -0.080
84.0631 -0.030
84.0933 0.280
84.1236 -0.035
84.1539 0.068
84.1842 0.014
84.2144 0.065
84.2447 0.168
84.2750 0.011
84.3053 0.114
84.3356 0.114
84.3658 -0.095
84.3961 -0.043
84.4264 -0.095
84.4567 0.009
84.4870 0.061
84.5172 0.009
84.5475 0.062
84.5778 0.115
84.6081 0.011
84.6383 0.221
84.6686 0.014
84.6989 0.016
84.7292 0.122
84.7595 -0.033
84.7897 0.022
84.8200 -0.080
84.8503 -0.080
84.8806 0.021
84.9109 -0.034
84.9411 0.224
84.9714 0.117
85.0017 0.272
85.0320 0.374
85.0623 0.008
85.0925 0.058
85.1228 0.005
85.1531 0.264
85.1834 -0.049
85.2136 -0.050
85.2439 -0.050
85.2742 0.054
85.3045 0.210
85.3348 -0.102
85.3650 0.055
85.3953 0.003
85.4256 -0.048
85.4559 0.162
85.4862 -0.149
85.5164 0.113
85.5467 0.011
85.5770 -0.039
85.6073 0.015
85.6375 0.122
85.6678 -0.188
85.6981 -0.029
85.7284 0.026
85.7587 -0.022
85.7889 -0.019
85.8192 -0.119
85.8495 -0.017
85.8798 0.189
85.9101 0.031
85.9403 0.186
85.9706 0.184
86.0009 -0.077
86.0312 0.078
86.0614 0.077
86.0917 -0.080
86.1220 -0.080
86.1523 0.022
86.1826 0.125
86.2128 0.020
86.2431 0.384
86.2734 0.175
86.3037 0.018
86.3340 0.018
86.3642 0.070
86.3945 0.174
86.4248 -0.034
86.4551 0.123
86.4853 -0.032
86.5156 0.177
86.5459 0.126
86.5762 -0.029
86.6065 0.077
86.6367 0.288
86.6670 -0.023
86.6973 0.084
86.7276 -0.018
86.7579 0.037
86.7881 -0.168
86.8184 -0.116
86.8487 0.089
86.8790 0.033
86.9092 0.082
86.9395 0.184
86.9698 0.285
87.0001 0.074
87.0304 -0.084
87.0606 -0.034
87.0909 0.172
87.1212 -0.090
87.1515 0.013
87.1818 0.220
87.2120 0.271
87.2423 0.010
87.2726 0.218
87.3029 0.009
87.3331 -0.043
87.3634 -0.147
87.3937 0.008
87.4240 0.164
87.4543 0.216
87.4845 0.111
87.5148 -0.045
87.5451 0.007
87.5754 -0.097
87.6057 0.217
87.6359 -0.043
87.6662 0.114
87.6965 0.116
87.7268 0.065
87.7571 0.015
87.7873 0.017
87.8176 0.279
87.8479 -0.135
87.8782 -0.080
87.9084 -0.028
87.9387 0.024
87.9690 -0.080
87.9993 -0.082
88.0296 0.073
88.0598 0.072
88.0901 0.018
88.1204 -0.034
88.1507 -0.035
88.1810 0.121
88.2112 0.068
88.2415 -0.036
88.2718 0.121
88.3021 0.069
88.3323 0.018
88.3626 0.175
88.3929 0.124
88.4232 0.021
88.4535 0.023
88.4837 -0.027
88.5140 0.131
88.5443 0.185
88.5746 -0.073
88.6049 -0.018
88.6351 -0.119
88.6654 -0.017
88.6957 0.033
88.7260 0.083
88.7562 0.029
88.7865 0.027
88.8168 0.026
88.8471 -0.079
88.8774 -0.080
88.9076 0.022
88.9379 0.020
88.9682 0.226
88.9985 0.016
89.0288 0.014
89.0590 0.013
89.0893 0.064
89.1196 0.011
89.1499 -0.042
89.1801 0.166
89.2104 -0.042
89.2407 0.010
89.2710 0.010
89.3013 0.011
89.3315 0.168
89.3618 0.012
89.3921 0.118
89.4224 0.015
89.4527 0.016
89.4829 0.279
89.5132 0.177
89.5435 0.023
89.5738 0.181
89.6040 0.028
89.6343 0.083
89.6646 -0.070
89.6949 -0.119
89.7252 0.035
89.7554 0.085
89.7857 0.031
89.8160 0.029
89.8463 -0.024
89.8766 -0.078
89.9068 0.025
89.9371 -0.027
89.9674 -0.080
89.9977 -0.031
90.0279 0.019
90.0582 -0.191
90.0885 0.067
90.1188 0.014
90.1491 -0.092
90.1793 0.219
90.2096 -0.146
90.2399 -0.147
90.2702 0.110
90.3005 -0.049
90.3307 0.001
90.3610 -0.158
90.3913 0.153
90.4216 0.047
90.4518 -0.007
90.4821 -0.009
90.5124 0.094
90.5427 -0.011
90.5730 -0.116
90.6032 0.091
90.6335 0.142
90.6638 -0.015
90.6941 -0.016
90.7244 0.088
90.7546 -0.173
90.7849 -0.070
90.8152 -0.071
90.8455 -0.072
90.8758 0.188
90.9060 -0.021
90.9363 0.030
90.9666 0.030
90.9969 0.135
91.0271 -0.021
91.0574 -0.073
91.0877 -0.020
91.1180 0.241
91.1483 0.191
91.1785 -0.068
91.2088 -0.015
91.2391 0.039
91.2694 0.406
91.2997 0.148
91.3299 -0.058
91.3602 -0.003
91.3905 0.052
91.4208 -0.049
91.4510 0.007
91.4813 -0.146
91.5116 0.009
91.5419 0.164
91.5722 0.007
91.6024 0.267
91.6327 0.006
91.6630 -0.046
91.6933 -0.046
91.7236 0.006
91.7538 0.215
91.7841 0.216
91.8144 -0.044
91.8447 0.114
91.8749 -0.041
91.9052 0.013
91.9355 0.015
91.9658 0.017
91.9961 0.071
92.0263 -0.031
92.0566 0.024
92.0869 0.131
92.1172 0.134
92.1475 0.034
92.1777 -0.171
92.2080 -0.065
92.2383 -0.168
92.2686 -0.014
92.2988 0.244
92.3291 0.085
92.3594 0.031
92.3897 0.186
92.4200 0.288
92.4502 0.495
92.4805 0.078
92.5108 -0.079
92.5411 -0.080
92.5714 0.021
92.6016 0.018
92.6319 -0.089
92.6622 0.012
92.6925 0.010
92.7227 0.007
92.7530 -0.047
92.7833 0.004
92.8136 0.002
92.8439 0.001
92.8741 -0.001
92.9044 -0.001
92.9347 -0.054
92.9650 -0.003
92.9953 -0.055
93.0255 -0.003
93.0558 -0.055
93.0861 0.102
93.1164 0.103
93.1466 0.208
93.1769 0.105
93.2072 0.002
93.2375 0.003
93.2678 0.005
93.2980 -0.045
93.3283 -0.147
93.3586 0.010
93.3889 -0.146
93.4192 0.007
93.4494 -0.048
93.4797 0.106
93.5100 -0.001
93.5403 -0.159
93.5706 0.151
93.6008 -0.007
93.6311 -0.060
93.6614 -0.010
93.6917 -0.011
93.7219 0.249
93.7522 -0.012
93.7825 -0.013
93.8128 0.143
93.8431 0.039
93.8733 -0.013
93.9036 0.144
93.9339 0.092
93.9642 0.093
93.9945 -0.010
94.0247 -0.008
94.0550 -0.007
94.0853 -0.005
94.1156 0.257
94.1458 0.051
94.1761 0.366
94.2064 0.004
94.2367 0.163
94.2670 -0.094
94.2972 -0.147
94.3275 0.425
94.3578 -0.148
94.3881 -0.096
94.4184 0.216
94.4486 0.008
94.4789 -0.043
94.5092 -0.043
94.5395 -0.198
94.5697 0.060
94.6000 0.006
94.6303 0.057
94.6606 0.055
94.6909 0.002
94.7211 0.001
94.7514 0.000
94.7817 0.208
94.8120 -0.001
94.8423 0.155
94.8725 -0.001
94.9028 0.000
94.9331 -0.052
94.9634 0.001
94.9936 0.158
95.0239 -0.101
95.0542 0.005
95.0845 0.006
95.1148 0.008
95.1450 -0.094
95.1753 0.009
95.2056 0.164
95.2359 0.006
95.2662 0.109
95.2964 0.004
95.3267 0.004
95.3570 0.004
95.3873 0.160
95.4175 0.160
95.4478 0.264
95.4781 -0.204
95.5084 0.058
95.5387 0.007
95.5689 0.008
95.5992 -0.147
95.6295 -0.043
95.6598 0.009
95.6901 0.009
95.7203 0.009
95.7506 -0.095
95.7809 -0.043
95.8112 -0.147
95.8414 0.007
95.8717 0.214
95.9020 0.004
95.9323 0.002
95.9626 0.001
95.9928 0.052
96.0231 -0.053
96.0534 0.103
96.0837 0.311
96.1140 -0.054
96.1442 0.207
96.1745 -0.105
96.2048 0.000
96.2351 0.209
96.2653 -0.051
96.2956 0.055
96.3259 0.056
96.3562 0.006
96.3865 0.164
96.4167 0.114
96.4470 0.012
96.4773 0.015
96.5076 0.070
96.5379 -0.188
96.5681 -0.080
96.5984 -0.033
96.6287 0.014
96.6590 0.009
96.6893 0.004
96.7195 0.208
96.7498 -0.005
96.7801 0.043
96.8104 0.040
96.8406 0.036
96.8709 0.345
96.9012 -0.022
96.9315 0.079
96.9618 -0.028
96.9920 -0.030
97.0223 -0.085
97.0526 -0.035
97.0829 -0.036
97.1132 -0.090
97.1434 -0.091
97.1737 -0.092
97.2040 -0.040
97.2343 -0.040
97.2645 0.429
97.2948 0.118
97.3251 -0.194
97.3554 0.068
97.3857 0.017
97.4159 0.019
97.4462 0.229
97.4765 0.179
97.5068 -0.027
97.5371 0.028
97.5673 0.083
97.5976 0.138
97.6279 -0.015
97.6582 -0.011
97.6884 -0.008
97.7187 -0.108
97.7490 0.052
97.7793 -0.047
97.8096 -0.095
97.8398 0.005
97.8701 0.104
97.9004 -0.056
97.9307 -0.008
97.9610 0.353
97.9912 -0.067
98.0215 -0.018
98.0518 0.135
98.0821 0.080
98.1123 0.338
98.1426 -0.029
98.1729 0.021
98.2032 0.123
98.2335 -0.087
98.2637 -0.037
98.2940 0.223
98.3243 -0.039
98.3546 0.064
98.3849 -0.092
98.4151 -0.092
98.4454 0.114
98.4757 0.009
98.5060 -0.044
98.5362 0.059
98.5665 0.007
98.5968 -0.046
98.6271 0.110
98.6574 0.110
98.6876 0.059
98.7179 0.267
98.7482 -0.096
98.7785 0.217
98.8088 -0.042
98.8390 0.220
98.8693 -0.039
98.8996 -0.141
98.9299 0.117
98.9601 0.168
98.9904 -0.093
99.0207 0.166
99.0510 -0.043
99.0813 0.269
99.1115 0.008
99.1418 0.373
99.1721 -0.043
99.2024 -0.043
99.2327 0.374
99.2629 -0.041
99.2932 -0.092
99.3235 0.061
99.3538 -0.045
99.3841 0.057
99.4143 0.107
99.4446 -0.051
99.4749 0.052
99.5052 0.051
99.5354 -0.003
99.5657 0.153
99.5960 0.100
99.6263 0.100
99.6566 0.100
99.6868 0.152
99.7171 -0.004
99.7474 0.465
99.7777 -0.055
99.8080 0.207
99.8382 -0.052
99.8685 0.053
99.8988 0.107
99.9291 0.005
99.9593 0.215
99.9896 0.009
100.0199 -0.092
100.0502 0.062
100.0805 0.321
100.1107 0.319
100.1410 0.110
100.1713 0.109
100.2016 0.056
100.2319 0.107
100.2621 -0.049
100.2924 0.055
100.3227 0.159
100.3530 -0.049
100.3832 -0.048
100.4135 0.213
100.4438 0.110
100.4741 0.007
100.5044 0.008
100.5346 0.114
100.5649 -0.092
100.5952 -0.092
100.6255 -0.042
100.6558 -0.043
100.6860 0.165
100.7163 0.112
100.7466 -0.044
100.7769 0.060
100.8071 0.060
100.8374 -0.044
100.8677 -0.043
100.8980 -0.043
100.9283 -0.042
100.9585 -0.092
100.9888 0.113
101.0191 0.007
101.0494 -0.047
101.0797 -0.153
101.1099 0.158
101.1402 0.313
101.1705 0.156
101.2008 0.051
101.2310 -0.002
101.2613 -0.055
101.2916 0.049
101.3219 0.154
101.3522 0.050
101.3824 -0.054
101.4127 -0.106
101.4430 0.312
101.4733 0.053
101.5036 -0.050
101.5338 0.004
101.5641 0.110
101.5944 -0.201
101.6247 0.218
101.6549 -0.040
101.6852 -0.141
101.7155 0.118
101.7458 0.169
101.7761 0.064
101.8063 0.011
101.8366 0.063
101.8669 0.010
101.8972 0.115
101.9275 0.323
101.9577 0.115
101.9880 0.481
102.0183 0.065
102.0486 -0.038
102.0788 0.067
102.1091 0.069
102.1394 0.019
102.1697 0.281
102.2000 0.075
102.2302 -0.027
102.2605 -0.024
102.2908 0.291
102.3211 0.086
102.3514 -0.015
102.3816 0.249
102.4119 0.097
102.4422 0.049
102.4725 0.105
102.5028 0.006
102.5330 -0.146
102.5633 0.003
102.5936 -0.056
102.6239 0.302
102.6541 -0.016
102.6844 0.134
102.7147 0.128
102.7450 0.435
102.7753 -0.039
102.8055 0.007
102.8358 0.159
102.8661 -0.002
102.8964 0.306
102.9267 0.041
102.9569 0.349
102.9872 -0.071
103.0175 -0.075
103.0478 -0.078
103.0780 0.231
103.1083 0.072
103.1386 0.173
103.1689 0.170
103.1992 -0.092
103.2294 0.010
103.2597 0.320
103.2900 0.162
103.3203 -0.099
103.3506 0.056
103.3808 0.315
103.4111 0.106
103.4414 -0.051
103.4717 -0.103
103.5019 0.001
103.5322 0.105
103.5625 -0.103
103.5928 -0.103
103.6231 0.000
103.6533 -0.052
103.6836 0.000
103.7139 -0.103
103.7442 -0.052
103.7745 0.209
103.8047 -0.104
103.8350 -0.103
103.8653 0.157
103.8956 -0.103
103.9258 -0.103
103.9561 -0.052
103.9864 -0.001
104.0167 0.051
104.0470 0.207
104.0772 0.103
104.1075 -0.001
104.1378 -0.105
104.1681 0.312
104.1984 -0.104
104.2286 0.106
104.2589 0.159
104.2892 0.317
104.3195 0.006
104.3497 -0.044
104.3800 -0.094
104.4103 0.013
104.4406 0.067
104.4709 0.175
104.5011 -0.031
104.5314 -0.080
104.5617 0.184
104.5920 0.501
104.6223 0.036
104.6525 0.144
104.6828 0.045
104.7131 -0.055
104.7434 0.366
104.7736 -0.097
104.8039 0.169
104.8342 0.122
104.8645 0.128
104.8948 0.030
104.9250 -0.121
104.9553 -0.020
104.9856 0.185
105.0159 -0.234
105.0462 0.179
105.0764 -0.032
105.1067 0.331
105.1370 0.120
105.1673 0.014
105.1975 -0.040
105.2278 -0.041
105.2581 0.062
105.2884 -0.044
105.3187 0.112
105.3489 0.320
105.3792 -0.045
105.4095 -0.046
105.4398 0.163
105.4701 0.215
105.5003 0.112
105.5306 0.269
105.5609 0.061
105.5912 -0.042
105.6215 -0.092
105.6517 0.060
105.6820 0.160
105.7123 0.053
105.7426 0.154
105.7728 0.203
105.8031 0.096
105.8334 0.093
105.8637 0.299
105.8940 -0.015
105.9242 -0.017
105.9545 -0.071
105.9848 0.240
106.0151 0.291
106.0454 -0.075
106.0756 0.081
106.1059 -0.076
106.1362 0.132
106.1665 0.132
106.1967 -0.024
106.2270 0.132
106.2573 0.237
106.2876 -0.023
106.3179 -0.022
106.3481 -0.020
106.3784 0.033
106.4087 -0.121
106.4390 0.297
106.4693 0.039
106.4995 -0.063
106.5298 -0.008
106.5601 -0.006
106.5904 0.154
106.6206 0.157
106.6509 0.004
106.6812 0.008
106.7115 -0.092
106.7418 -0.039
106.7720 0.015
106.8023 0.121
106.8326 0.279
106.8629 0.126
106.8932 0.180
106.9234 0.079
106.9537 0.186
106.9840 0.033
107.0143 0.037
107.0445 -0.168
107.0748 0.037
107.1051 0.033
107.1354 0.186
107.1657 0.183
107.1959 0.180
107.2262 0.074
107.2565 0.175
107.2868 0.069
107.3171 0.119
107.3473 0.013
107.3776 -0.092
107.4079 0.004
107.4382 -0.003
107.4684 0.094
107.4987 0.244
107.5290 0.185
107.5593 0.023
107.5896 0.173
107.6198 0.532
107.6501 0.006
107.6804 0.052
107.7107 -0.057
107.7410 0.303
107.7712 -0.067
107.8015 -0.019
107.8318 -0.023
107.8621 0.129
107.8923 -0.031
107.9226 0.122
107.9529 -0.194
107.9832 0.063
108.0135 -0.096
108.0437 0.057
108.0740 0.107
108.1043 -0.260
108.1346 0.051
108.1649 -0.003
108.1951 0.047
108.2254 -0.058
108.2557 0.097
108.2860 0.200
108.3163 -0.113
108.3465 0.043
108.3768 0.303
108.4071 0.147
108.4374 0.043
108.4676 -0.113
108.4979 -0.061
108.5282 -0.113
108.5585 -0.113
108.5888 -0.009
108.6190 0.043
108.6493 -0.009
108.6796 -0.113
108.7099 -0.062
108.7402 0.146
108.7704 -0.114
108.8007 -0.010
108.8310 -0.062
108.8613 -0.113
108.8915 0.043
108.9218 0.147
108.9521 -0.113
108.9824 -0.217
109.0127 0.200
109.0429 -0.008
109.0732 -0.111
109.1035 -0.058
109.1338 0.099
109.1641 -0.107
109.1943 0.051
109.2246 -0.104
109.2549 0.159
109.2852 0.109
109.3154 0.008
109.3457 -0.094
109.3760 -0.038
109.4063 -0.087
109.4366 -0.084
109.4668 -0.028
109.4971 0.185
109.5274 0.241
109.5577 -0.223
109.5880 0.146
109.6182 0.046
109.6485 0.104
109.6788 0.213
109.7091 -0.146
109.7393 -0.036
109.7696 0.178
109.7999 0.080
109.8302 -0.017
109.8605 -0.115
109.8907 0.089
109.9210 0.241
109.9513 -0.024
109.9816 -0.028
110.0119 0.177
110.0421 -0.087
110.0724 0.066
110.1027 0.063
110.1330 0.060
110.1632 -0.047
110.1935 -0.049
110.2238 -0.103
110.2541 0.050
110.2844 -0.057
110.3146 0.097
110.3449 -0.061
110.3752 -0.115
110.4055 0.456
110.4358 -0.066
110.4660 -0.067
110.4963 0.192
110.5266 0.608
110.5569 -0.070
110.5871 0.451
110.6174 -0.330
110.6477 0.034
110.6780 -0.018
110.7083 0.296
110.7385 0.244
110.7688 -0.015
110.7991 -0.118
110.8294 0.196
110.8597 0.145
110.8899 -0.061
110.9202 0.097
110.9505 0.204
110.9808 -0.002
111.0110 -0.103
111.0413 -0.050
111.0716 0.108
111.1019 -0.047
111.1322 0.164
111.1624 0.426
111.1927 0.168
111.2230 0.067
111.2533 -0.035
111.2836 -0.084
111.3138 0.076
111.3441 0.080
111.3744 0.083
111.4047 0.035
111.4350 0.144
111.4652 -0.060
111.4955 -0.004
111.5258 0.001
111.5561 0.058
111.5863 -0.092
111.6166 0.010
111.6469 0.008
111.6772 0.059
111.7075 0.318
111.7377 0.005
111.7680 0.056
111.7983 0.056
111.8286 0.004
111.8589 0.056
111.8891 0.160
111.9194 0.213
111.9497 0.057
111.9800 0.058
112.0102 0.059
112.0405 0.008
112.0708 0.062
112.1011 -0.092
112.1314 -0.046
112.1616 0.001
112.1919 0.153
112.2222 -0.008
112.2525 0.248
112.2828 -0.069
112.3130 -0.073
112.3433 0.288
112.3736 -0.028
112.4039 0.385
112.4341 -0.086
112.4644 0.171
112.4947 0.168
112.5250 0.010
112.5553 0.008
112.5855 0.110
112.6158 0.212
112.6461 0.054
112.6764 0.001
112.7067 0.156
112.7369 -0.209
112.7672 0.051
112.7975 0.467
112.8278 -0.054
112.8580 0.154
112.8883 0.259
112.9186 -0.001
112.9489 0.260
112.9792 0.104
113.0094 0.054
113.0397 -0.049
113.0700 0.004
113.1003 0.267
113.1306 0.112
113.1608 0.583
113.1911 0.013
113.2214 -0.193
113.2517 0.065
113.2819 0.115
113.3122 0.165
113.3425 0.006
113.3728 -0.047
113.4031 0.107
113.4333 0.002
113.4636 -0.103
113.4939 -0.004
113.5242 0.043
113.5545 0.038
113.5847 0.085
113.6150 0.237
113.6453 -0.079
113.6756 -0.031
113.7058 0.122
113.7361 -0.038
113.7664 -0.093
113.7967 0.008
113.8270 0.109
113.8572 -0.154
113.8875 0.000
113.9178 0.050
113.9481 -0.056
113.9784 -0.110
114.0086 -0.007
114.0389 -0.060
114.0692 -0.165
114.0995 0.147
114.1298 0.146
114.1600 -0.062
114.1903 -0.062
114.2206 0.043
114.2509 0.043
114.2811 -0.060
114.3114 -0.059
114.3417 -0.058
114.3720 -0.057
114.4023 -0.055
114.4325 -0.001
114.4628 0.210
114.4931 -0.048
114.5234 0.058
114.5537 0.165
114.5839 0.377
114.6142 0.224
114.6445 0.071
114.6748 0.022
114.7050 -0.078
114.7353 0.135
114.7656 0.139
114.7959 0.039
114.8262 -0.060
114.8564 0.153
114.8867 0.002
114.9170 -0.044
114.9473 0.274
114.9776 0.176
115.0078 0.025
115.0381 0.032
115.0684 0.247
115.0987 0.097
115.1289 0.313
115.1592 0.164
115.1895 -0.141
115.2198 -0.092
115.2501 0.162
115.2803 0.104
115.3106 0.098
115.3409 0.197
115.3712 0.452
115.4015 -0.074
115.4317 0.130
115.4620 0.073
115.4923 0.069
115.5226 0.012
115.5528 -0.044
115.5831 0.161
115.6134 0.001
115.6437 0.206
115.6740 0.047
115.7042 0.044
115.7345 0.198
115.7648 -0.013
115.7951 0.089
115.8254 -0.121
115.8556 0.242
115.8859 -0.020
115.9162 -0.021
115.9465 0.290
115.9767 0.133
116.0070 0.497
116.0373 0.080
116.0676 -0.024
116.0979 -0.076
116.1281 0.133
116.1584 0.081
116.1887 0.030
116.2190 0.187
116.2493 -0.072
116.2795 0.346
116.3098 -0.017
116.3401 0.349
116.3704 0.456
116.4006 0.198
116.4309 -0.008
116.4612 -0.005
116.4915 0.102
116.5218 0.001
116.5520 0.160
116.5823 -0.096
116.6126 0.012
116.6429 -0.141
116.6732 0.071
116.7034 0.074
116.7337 0.182
116.7640 -0.023
116.7943 -0.071
116.8245 -0.015
116.8548 -0.271
116.8851 0.088
116.9154 -0.126
116.9457 0.077
116.9759 0.019
117.0062 0.171
117.0365 -0.199
117.0668 0.109
117.0971 0.105
117.1273 0.101
117.1576 0.253
117.1879 0.406
117.2182 -0.170
117.2485 0.035
117.2787 0.084
117.3090 0.342
117.3393 0.027
117.3696 0.077
117.3998 -0.030
117.4301 0.073
117.4604 0.175
117.4907 0.018
117.5210 -0.192
117.5512 0.066
117.5815 0.012
117.6118 -0.041
117.6421 0.061
117.6724 0.320
117.7026 0.007
117.7329 0.162
117.7632 -0.047
117.7935 0.370
117.8237 -0.099
117.8540 0.057
117.8843 0.057
117.9146 0.162
117.9449 -0.202
117.9751 -0.045
118.0054 0.269
118.0357 -0.198
118.0660 -0.040
118.0963 0.274
118.1265 0.068
118.1568 0.122
118.1871 -0.084
118.2174 0.179
118.2476 0.026
118.2779 0.029
118.3082 0.085
118.3385 0.245
118.3688 -0.012
118.3990 0.044
118.4293 0.048
118.4596 -0.103
118.4899 -0.056
118.5202 0.199
118.5504 0.142
118.5807 0.086
118.6110 0.186
118.6413 0.077
118.6715 0.022
118.7018 0.122
118.7321 0.015
118.7624 0.168
118.7927 0.165
118.8229 0.058
118.8532 -0.153
118.8835 0.366
118.9138 -0.053
118.9441 0.101
118.9743 0.100
119.0046 0.099
119.0349 -0.163
119.0652 -0.008
119.0954 -0.060
119.1257 0.043
119.1560 -0.113
119.1863 0.041
119.2166 0.040
119.2468 -0.118
119.2771 0.246
119.3074 -0.016
119.3377 -0.069
119.3680 0.400
119.3982 -0.017
119.4285 -0.121
119.4588 0.296
119.4891 0.036
119.5193 -0.068
119.5496 0.037
119.5799 0.090
119.6102 0.196
119.6405 -0.011
119.6707 -0.113
119.7010 0.094
119.7313 -0.063
119.7616 -0.011
119.7919 0.041
119.8221 0.041
119.8524 0.197
119.8827 0.041
119.9130 -0.062
119.9433 -0.113
119.9735 0.047
120.0038 0.000
