'Id: "" Comment: "" Operator: "Lab Manager" Anode: "Cu" Scantype: "Locked Coupled" TimePerStep: "19.2" X: "9999" Y: "9999" Z: "9999" 
10.0015 0.000
10.0318 -0.085
10.0620 -0.065
10.0923 0.163
10.1226 -0.598
10.1529 -0.111
10.1832 0.429
10.2134 0.656
10.2437 0.519
10.2740 0.278
10.3043 0.558
10.3346 0.005
10.3648 0.962
10.3951 0.670
10.4254 0.430
10.4557 0.242
10.4859 0.054
10.5162 1.169
10.5465 1.034
10.5768 0.118
10.6071 0.973
10.6373 0.109
10.6676 -0.390
10.6979 -0.082
10.7282 1.579
10.7585 1.002
10.7887 0.372
10.8190 1.410
10.8493 0.416
10.8796 0.673
10.9098 0.929
10.9401 1.551
10.9704 1.444
11.0007 0.607
11.0310 0.917
11.0612 0.862
11.0915 0.808
11.1218 0.337
11.1521 0.855
11.1824 0.333
11.2126 0.331
11.2429 -0.243
11.2732 0.381
11.3035 1.005
11.3337 0.483
11.3640 0.639
11.3943 0.326
11.4246 -0.143
11.4549 0.430
11.4851 0.951
11.5154 0.222
11.5457 0.640
11.5760 0.380
11.6063 0.537
11.6365 1.008
11.6668 0.072
11.6971 0.073
11.7274 -0.133
11.7577 -0.131
11.7879 0.600
11.8182 0.551
11.8485 0.918
11.8788 0.921
11.9090 0.508
11.9393 0.667
11.9696 -0.111
11.9999 -0.471
12.0302 0.262
12.0604 0.214
12.0907 0.322
12.1210 -0.506
12.1513 0.019
12.1816 0.128
12.2118 0.394
12.2421 -0.382
12.2724 0.405
12.3027 -0.735
12.3329 0.521
12.3632 0.215
12.3935 0.013
12.4238 0.332
12.4541 0.235
12.4843 1.544
12.5146 -0.324
12.5449 0.204
12.5752 0.681
12.6055 -0.457
12.6357 -0.241
12.6660 -0.337
12.6963 0.818
12.7266 0.410
12.7568 0.210
12.7871 0.063
12.8174 0.073
12.8477 0.499
12.8780 0.456
12.9082 0.518
12.9385 -0.669
12.9688 -0.138
12.9991 0.341
13.0294 0.352
13.0596 -0.262
13.0899 0.374
13.1202 0.229
13.1505 0.553
13.1807 -0.060
13.2110 0.473
13.2413 0.381
13.2716 0.550
13.3019 1.135
13.3321 -0.102
13.3624 -0.349
13.3927 -0.037
13.4230 -0.090
13.4533 0.744
13.4835 -0.402
13.5138 -0.349
13.5441 0.165
13.5744 0.471
13.6046 -0.421
13.6349 0.823
13.6652 0.401
13.6955 0.968
13.7258 0.546
13.7560 1.061
13.7863 0.692
13.8166 -0.147
13.8469 0.526
13.8772 1.251
13.9074 0.257
13.9377 0.565
13.9680 0.770
13.9983 0.037
14.0285 -0.070
14.0588 0.447
14.0891 0.236
14.1194 -0.027
14.1497 0.074
14.1799 0.280
14.2102 0.122
14.2405 -0.088
14.2708 -0.090
14.3011 -0.300
14.3313 0.688
14.3616 0.375
14.3919 0.530
14.4222 -0.044
14.4524 0.268
14.4827 -0.201
14.5130 0.008
14.5433 -0.305
14.5736 0.789
14.6038 -0.044
14.6341 0.270
14.6644 0.062
14.6947 0.116
14.7250 -0.196
14.7552 -0.038
14.7855 0.016
14.8158 -0.294
14.8461 -0.032
14.8764 0.439
14.9066 0.494
14.9369 -0.128
14.9672 -0.282
14.9975 0.242
15.0277 -0.692
15.0580 0.510
15.0883 0.045
15.1186 -0.420
15.1489 0.157
15.1791 0.058
15.2094 -0.198
15.2397 -0.089
15.2700 -0.292
15.3003 -0.079
15.3305 -0.229
15.3608 -0.276
15.3911 0.043
15.4214 0.465
15.4516 0.628
15.4819 -0.199
15.5122 0.224
15.5425 0.023
15.5728 0.447
15.6030 0.037
15.6333 -0.007
15.6636 -0.051
15.6939 0.009
15.7242 -0.035
15.7544 -0.079
15.7847 -0.227
15.8150 0.407
15.8453 -0.157
15.8755 0.113
15.9058 0.278
15.9361 -0.389
15.9664 1.183
15.9967 0.151
16.0269 0.110
16.0572 0.432
16.0875 -0.078
16.1178 0.037
16.1481 0.205
16.1783 0.737
16.2086 0.436
16.2389 0.187
16.2692 0.928
16.2994 0.263
16.3297 -0.142
16.3600 0.392
16.3903 0.925
16.4206 0.522
16.4508 -0.142
16.4811 -0.494
16.5114 0.177
16.5417 0.066
16.5720 0.581
16.6022 0.002
16.6325 0.152
16.6628 0.251
16.6931 0.454
16.7233 0.761
16.7536 0.444
16.7839 -0.394
16.8142 1.059
16.8445 0.430
16.8747 0.218
16.9050 0.162
16.9353 0.210
16.9656 0.571
16.9959 0.568
17.0261 0.565
17.0564 0.874
17.0867 0.142
17.1170 -0.068
17.1472 -0.175
17.1775 0.656
17.2078 0.863
17.2381 0.340
17.2684 0.391
17.2986 0.233
17.3289 -0.132
17.3592 -0.081
17.3895 -0.186
17.4198 0.335
17.4500 0.907
17.4803 0.595
17.5106 -0.290
17.5409 0.804
17.5712 0.231
17.6014 0.441
17.6317 -0.079
17.6620 -0.078
17.6923 0.496
17.7225 -0.804
17.7528 -0.333
17.7831 0.133
17.8134 0.392
17.8437 -0.027
17.8739 0.440
17.9042 0.231
17.9345 0.073
17.9648 -0.032
17.9951 -0.345
18.0253 0.592
18.0556 1.008
18.0859 -0.867
18.1162 0.383
18.1464 -0.189
18.1767 0.228
18.2070 -0.449
18.2373 0.073
18.2676 0.022
18.2978 0.232
18.3281 0.702
18.3584 0.027
18.3887 0.341
18.4190 0.656
18.4492 0.450
18.4795 0.296
18.5098 -0.743
18.5401 0.094
18.5703 -0.163
18.6006 0.569
18.6309 0.677
18.6612 0.160
18.6915 0.216
18.7217 -0.301
18.7520 -0.244
18.7823 0.386
18.8126 0.286
18.8429 -0.282
18.8731 0.192
18.9034 0.302
18.9337 -0.005
18.9640 0.313
18.9942 0.476
19.0245 0.222
19.0548 -0.293
19.0851 0.079
19.1154 0.346
19.1456 -0.012
19.1759 0.152
19.2062 0.264
19.2365 -0.145
19.2668 0.019
19.2970 -0.390
19.3273 0.029
19.3576 0.187
19.3879 0.189
19.4181 0.348
19.4484 0.976
19.4787 0.406
19.5090 0.357
19.5393 0.568
19.5695 0.207
19.5998 -0.102
19.6301 0.162
19.6604 0.166
19.6907 -0.454
19.7209 -0.085
19.7512 0.492
19.7815 0.185
19.8118 0.138
19.8420 0.456
19.8723 -0.008
19.9026 0.519
19.9329 0.108
19.9632 0.427
19.9934 0.537
20.0237 0.544
20.0540 -0.179
20.0843 0.193
20.1146 0.356
20.1448 0.260
20.1751 0.684
20.2054 0.848
20.2357 0.387
20.2659 -0.230
20.2962 -0.221
20.3265 -0.057
20.3568 -0.308
20.3871 0.002
20.4173 -0.209
20.4476 0.465
20.4779 -0.006
20.5082 0.201
20.5385 0.251
20.5687 0.406
20.5990 -0.064
20.6293 0.143
20.6596 0.454
20.6899 -0.067
20.7201 -0.068
20.7504 -0.224
20.7807 0.140
20.8110 -0.068
20.8412 0.713
20.8715 0.297
20.9018 0.715
20.9321 0.768
20.9624 -0.117
20.9926 0.197
21.0229 -0.062
21.0532 0.200
21.0835 -0.214
21.1138 0.100
21.1440 0.259
21.1743 -0.363
21.2046 -0.208
21.2349 0.209
21.2651 0.417
21.2954 0.053
21.3257 -0.363
21.3560 0.000
21.3863 0.468
21.4165 0.050
21.4468 0.727
21.4771 -0.003
21.5074 0.049
21.5377 -0.159
21.5679 0.258
21.5982 0.258
21.6285 0.467
21.6588 0.051
21.6890 0.834
21.7193 0.106
21.7496 0.159
21.7799 0.682
21.8102 0.163
21.8404 0.009
21.8707 0.271
21.9010 0.274
21.9313 -0.505
21.9616 0.071
21.9918 0.022
22.0221 0.338
22.0524 0.133
22.0827 0.137
22.1129 0.193
22.1432 0.249
22.1735 0.358
22.2038 0.415
22.2341 0.576
22.2643 -0.201
22.2946 0.377
22.3249 0.591
22.3552 0.440
22.3855 -0.231
22.4157 0.192
22.4460 0.823
22.4763 0.361
22.5066 0.367
22.5368 0.010
22.5671 0.329
22.5974 0.597
22.6277 0.083
22.6580 0.143
22.6882 0.307
22.7185 0.315
22.7488 -0.041
22.7791 -0.293
22.8094 0.185
22.8396 0.714
22.8699 0.307
22.9002 0.316
22.9305 0.065
22.9607 0.804
22.9910 0.502
23.0213 0.095
23.0516 -0.311
23.0819 -0.057
23.1121 -0.011
23.1424 -0.225
23.1727 0.030
23.2030 1.067
23.2333 0.124
23.2635 0.120
23.2938 0.480
23.3241 0.423
23.3544 0.523
23.3846 0.207
23.4149 0.568
23.4452 0.199
23.4755 -0.169
23.5058 0.245
23.5360 0.346
23.5663 0.448
23.5966 0.028
23.6269 -0.078
23.6572 0.441
23.6874 0.335
23.7177 0.177
23.7480 0.904
23.7783 -0.295
23.8086 0.173
23.8388 0.172
23.8691 -0.245
23.8994 0.640
23.9297 -0.194
23.9599 0.691
23.9902 0.431
24.0205 0.067
24.0508 0.484
24.0811 0.433
24.1113 -0.295
24.1416 0.487
24.1719 0.124
24.2022 0.334
24.2325 0.336
24.2627 0.494
24.2930 0.288
24.3233 0.030
24.3536 0.032
24.3838 0.244
24.4141 -0.118
24.4444 0.146
24.4747 -0.059
24.5050 0.101
24.5352 0.469
24.5655 0.265
24.5958 0.061
24.6261 0.013
24.6564 -0.086
24.6866 0.700
24.7169 0.236
24.7472 0.138
24.7775 0.247
24.8077 0.513
24.8380 0.415
24.8683 0.265
24.8986 0.011
24.9289 0.538
24.9591 0.024
24.9894 0.760
25.0197 0.663
25.0500 -0.111
25.0803 -0.468
25.1105 0.152
25.1408 -0.010
25.1711 0.297
25.2014 0.552
25.2316 1.329
25.2619 0.022
25.2922 0.173
25.3225 0.690
25.3528 0.894
25.3830 1.411
25.4133 0.053
25.4436 -0.159
25.4739 0.098
25.5042 0.824
25.5344 0.144
25.5647 0.246
25.5950 0.348
25.6253 0.033
25.6555 0.395
25.6858 0.185
25.7161 0.288
25.7464 0.078
25.7767 0.806
25.8069 0.388
25.8372 0.543
25.8675 0.543
25.8978 0.647
25.9281 -0.239
25.9583 0.750
25.9886 0.334
26.0189 0.022
26.0492 -0.290
26.0794 0.010
26.1097 0.049
26.1400 0.193
26.1703 0.389
26.2006 0.273
26.2308 0.417
26.2611 0.666
26.2914 0.498
26.3217 -0.086
26.3520 -0.253
26.3822 0.361
26.4125 0.298
26.4428 -0.077
26.4731 -0.191
26.5034 0.007
26.5336 0.101
26.5639 0.092
26.5942 0.655
26.6245 0.542
26.6547 0.221
26.6850 0.368
26.7153 0.776
26.7456 0.247
26.7759 0.499
26.8061 0.648
26.8364 0.484
26.8667 0.268
26.8970 -0.312
26.9273 -0.220
26.9575 -0.075
26.9878 -0.555
27.0181 0.371
27.0484 0.308
27.0786 0.297
27.1089 1.068
27.1392 0.485
27.1695 0.006
27.1998 1.142
27.2300 0.143
27.2603 0.446
27.2906 -0.241
27.3209 0.479
27.3512 -0.363
27.3814 0.514
27.4117 -0.224
27.4420 0.028
27.4723 0.020
27.5025 -0.300
27.5328 0.213
27.5631 0.310
27.5934 -0.270
27.6237 0.296
27.6539 0.341
27.6842 -0.238
27.7145 -0.036
27.7448 0.478
27.7751 -0.153
27.8053 0.154
27.8356 0.878
27.8659 0.403
27.8962 0.711
27.9264 0.081
27.9567 0.128
27.9870 -0.397
28.0173 0.744
28.0476 0.011
28.0778 -0.305
28.1081 0.055
28.1384 -0.156
28.1687 0.153
28.1990 0.410
28.2292 0.043
28.2595 0.561
28.2898 0.038
28.3201 0.087
28.3503 0.450
28.3806 0.083
28.4109 1.019
28.4412 0.132
28.4715 -0.338
28.5017 -0.187
28.5320 0.069
28.5623 0.376
28.5926 0.528
28.6229 0.211
28.6531 0.311
28.6834 -0.110
28.7137 1.657
28.7440 0.872
28.7742 0.295
28.8045 -0.020
28.8348 0.341
28.8651 -0.131
28.8954 -0.342
28.9256 -0.040
28.9559 -0.050
28.9862 0.357
29.0165 -0.226
29.0468 0.181
29.0770 -0.245
29.1073 -0.098
29.1376 0.726
29.1679 -0.116
29.1981 0.032
29.2284 -0.185
29.2587 -0.349
29.2890 -0.211
29.3193 0.344
29.3495 -0.768
29.3798 0.412
29.4101 0.916
29.4404 0.638
29.4707 0.621
29.5009 0.240
29.5312 0.015
29.5615 1.197
29.5918 0.503
29.6221 0.487
29.6523 -1.039
29.6826 0.248
29.7129 0.545
29.7432 0.165
29.7734 0.775
29.8037 -0.125
29.8340 0.278
29.8643 0.263
29.8946 0.510
29.9248 -0.390
29.9551 -0.465
29.9854 0.449
30.0157 0.425
30.0460 1.132
30.0762 -0.454
30.1065 0.201
30.1368 0.751
30.1671 0.573
30.1973 1.020
30.2276 0.529
30.2579 0.299
30.2882 1.319
30.3185 0.986
30.3487 0.392
30.3790 1.621
30.4093 0.455
30.4396 0.434
30.4699 0.466
30.5001 0.290
30.5304 0.895
30.5607 0.563
30.5910 1.117
30.6212 1.775
30.6515 2.277
30.6818 2.102
30.7121 1.667
30.7424 1.805
30.7726 0.849
30.8029 2.290
30.8332 2.689
30.8635 1.525
30.8938 2.289
30.9240 2.533
30.9543 4.339
30.9846 2.812
31.0149 3.368
31.0451 3.300
31.0754 5.211
31.1057 5.195
31.1360 5.180
31.1663 5.841
31.1965 7.753
31.2268 7.478
31.2571 11.421
31.2874 11.824
31.3177 10.820
31.3479 14.035
31.3782 16.104
31.4085 17.861
31.4388 20.816
31.4690 23.199
31.4993 22.717
31.5296 28.225
31.5599 31.337
31.5902 33.200
31.6204 34.594
31.6507 32.238
31.6810 32.851
31.7113 32.787
31.7416 28.192
31.7718 25.368
31.8021 23.170
31.8324 19.201
31.8627 17.471
31.8929 14.023
31.9232 13.648
31.9535 9.576
31.9838 9.045
32.0141 8.931
32.0443 5.953
32.0746 5.267
32.1049 5.466
32.1352 4.364
32.1655 3.834
32.1957 4.086
32.2260 2.984
32.2563 2.820
32.2866 3.021
32.3169 3.326
32.3471 2.225
32.3774 2.061
32.4077 2.106
32.4380 0.589
32.4682 1.520
32.4985 0.785
32.5288 1.560
32.5591 0.044
32.5894 0.507
32.6196 -0.124
32.6499 -0.077
32.6802 0.178
32.7105 0.121
32.7408 1.419
32.7710 0.060
32.8013 0.264
32.8316 0.156
32.8619 0.100
32.8921 0.565
32.9224 0.926
32.9527 -0.796
32.9830 -0.330
33.0133 0.032
33.0435 0.341
33.0738 0.860
33.1041 -0.705
33.1344 0.179
33.1647 0.385
33.1949 -0.971
33.2252 0.278
33.2555 -0.504
33.2858 0.224
33.3160 -0.454
33.3463 -0.511
33.3766 0.629
33.4069 1.250
33.4372 0.412
33.4674 0.615
33.4977 0.142
33.5280 0.711
33.5583 0.291
33.5886 0.912
33.6188 1.534
33.6491 1.531
33.6794 1.840
33.7097 1.212
33.7399 1.106
33.7702 1.572
33.8005 1.257
33.8308 1.828
33.8611 2.399
33.8913 3.492
33.9216 2.397
33.9519 5.625
33.9822 5.728
34.0125 6.404
34.0427 8.331
34.0730 8.955
34.1033 11.507
34.1336 13.851
34.1638 17.081
34.1941 23.123
34.2244 29.790
34.2547 36.875
34.2850 37.553
34.3152 36.148
34.3455 34.066
34.3758 29.641
34.4061 24.226
34.4364 19.489
34.4666 16.262
34.4969 12.827
34.5272 8.975
34.5575 8.405
34.5877 6.325
34.6180 6.641
34.6483 6.020
34.6786 4.044
34.7089 3.944
34.7391 3.219
34.7694 2.963
34.7997 2.395
34.8300 2.921
34.8603 3.551
34.8905 1.056
34.9208 1.895
34.9511 1.796
34.9814 1.854
35.0116 2.798
35.0419 1.815
35.0722 2.915
35.1025 1.671
35.1328 1.730
35.1630 1.998
35.1933 1.797
35.2236 1.336
35.2539 2.437
35.2842 3.695
35.3144 2.193
35.3447 3.503
35.3750 2.939
35.4053 3.677
35.4356 5.144
35.4658 3.851
35.4961 5.111
35.5264 6.578
35.5567 5.390
35.5869 7.015
35.6172 7.025
35.6475 7.713
35.6778 10.744
35.7081 10.026
35.7383 12.641
35.7686 13.121
35.7989 15.736
35.8292 16.165
35.8595 21.020
35.8897 21.553
35.9200 25.472
35.9503 29.234
35.9806 36.591
36.0108 36.603
36.0411 39.221
36.0714 43.140
36.1017 44.925
36.1320 47.230
36.1622 48.181
36.1925 42.883
36.2228 44.199
36.2531 38.016
36.2834 32.666
36.3136 30.129
36.3439 26.394
36.3742 24.274
36.4045 19.915
36.4347 19.045
36.4650 14.373
36.4953 14.233
36.5256 10.708
36.5559 9.475
36.5861 8.971
36.6164 6.644
36.6467 6.765
36.6770 7.303
36.7073 5.238
36.7375 3.745
36.7678 4.544
36.7981 3.833
36.8284 3.539
36.8586 2.985
36.8889 3.316
36.9192 3.596
36.9495 2.157
36.9798 1.916
37.0100 2.613
37.0403 2.320
37.0706 2.392
37.1009 0.954
37.1312 1.079
37.1614 0.475
37.1917 1.120
37.2220 0.621
37.2523 1.371
37.2825 0.612
37.3128 0.685
37.3431 0.759
37.3734 1.354
37.4037 0.387
37.4339 0.826
37.4642 0.901
37.4945 0.560
37.5248 -0.042
37.5551 1.335
37.5853 -0.099
37.6156 0.654
37.6459 0.261
37.6762 0.493
37.7064 0.310
37.7367 -0.343
37.7670 0.151
37.7973 0.019
37.8276 -0.216
37.8578 -0.190
37.8881 0.565
37.9184 0.642
37.9487 -0.529
37.9790 -0.139
38.0092 0.148
38.0395 0.696
38.0698 0.567
38.1001 0.177
38.1304 0.100
38.1606 0.336
38.1909 0.520
38.2212 0.392
38.2515 0.003
38.2817 0.083
38.3120 0.112
38.3423 0.141
38.3726 -0.091
38.4029 -0.062
38.4331 0.124
38.4634 0.362
38.4937 -0.337
38.5240 -0.327
38.5543 0.569
38.5845 0.476
38.6148 0.331
38.6451 -0.126
38.6754 -0.271
38.7056 -0.051
38.7359 -0.143
38.7662 0.442
38.7965 0.247
38.8268 -0.157
38.8570 0.012
38.8873 0.285
38.9176 0.038
38.9479 -0.157
38.9782 0.065
39.0084 -0.442
39.0387 -0.014
39.0690 -0.106
39.0993 -0.199
39.1295 0.334
39.1598 -0.175
39.1901 -0.110
39.2204 0.215
39.2507 -0.502
39.2809 0.292
39.3112 0.305
39.3415 -0.358
39.3718 -0.136
39.4021 0.346
39.4323 0.204
39.4626 0.374
39.4929 -0.237
39.5232 0.143
39.5534 -0.415
39.5837 -0.090
39.6140 0.392
39.6443 -0.063
39.6746 0.159
39.7048 0.538
39.7351 -0.333
39.7654 -0.006
39.7957 0.217
39.8260 0.284
39.8562 0.195
39.8865 0.210
39.9168 0.330
39.9471 0.345
39.9773 0.466
40.0076 0.846
40.0379 0.394
40.0682 0.098
40.0985 0.271
40.1287 -0.389
40.1590 -0.235
40.1893 -0.027
40.2196 0.232
40.2499 0.492
40.2801 0.960
40.3104 0.491
40.3407 0.126
40.3710 -0.187
40.4012 0.282
40.4315 -0.030
40.4618 -0.029
40.4921 0.024
40.5224 0.390
40.5526 0.287
40.5829 0.288
40.6132 0.238
40.6435 0.031
40.6738 -0.227
40.7040 0.400
40.7343 0.403
40.7646 0.353
40.7949 0.408
40.8251 -0.161
40.8554 -0.106
40.8857 0.523
40.9160 -0.151
40.9463 0.374
40.9765 0.222
41.0068 -0.295
41.0371 -0.082
41.0674 0.027
41.0977 0.345
41.1279 0.090
41.1582 0.303
41.1885 -0.264
41.2188 -0.102
41.2491 0.581
41.2793 0.535
41.3096 0.281
41.3399 -0.337
41.3702 -0.235
41.4004 0.232
41.4307 0.334
41.4610 0.489
41.4913 0.019
41.5216 0.122
41.5518 0.434
41.5821 -0.088
41.6124 -0.036
41.6427 0.380
41.6730 -0.661
41.7032 0.172
41.7335 0.277
41.7638 0.121
41.7941 0.018
41.8243 -0.033
41.8546 0.384
41.8849 0.542
41.9152 0.596
41.9455 0.025
41.9757 -0.129
42.0060 0.446
42.0363 0.292
42.0666 -0.018
42.0969 0.193
42.1271 0.353
42.1574 -0.373
42.1877 0.151
42.2180 0.467
42.2482 -0.050
42.2785 -0.046
42.3088 -0.250
42.3391 0.062
42.3694 0.374
42.3996 0.113
42.4299 0.009
42.4602 0.009
42.4905 0.373
42.5208 0.113
42.5510 0.062
42.5813 -0.250
42.6116 -0.356
42.6419 0.631
42.6721 -0.048
42.7024 0.211
42.7327 -0.259
42.7630 -0.157
42.7933 0.153
42.8235 0.359
42.8538 0.149
42.8841 -0.009
42.9144 0.302
42.9447 0.249
42.9749 0.144
43.0052 0.039
43.0355 0.351
43.0658 0.350
43.0960 -0.067
43.1263 0.819
43.1566 -0.327
43.1869 -0.066
43.2172 0.404
43.2474 0.352
43.2777 -0.115
43.3080 -0.010
43.3383 0.096
43.3686 0.097
43.3988 -0.213
43.4291 -0.159
43.4594 0.156
43.4897 -0.050
43.5199 0.473
43.5502 0.112
43.5805 -0.250
43.6108 -0.250
43.6411 -0.045
43.6713 0.160
43.7016 0.313
43.7319 0.153
43.7622 0.046
43.7925 0.044
43.8227 0.458
43.8530 -0.222
43.8833 -0.067
43.9136 -0.017
43.9439 0.137
43.9741 -0.281
44.0044 0.083
44.0347 0.655
44.0650 -0.128
44.0952 -0.024
44.1255 -0.285
44.1558 0.340
44.1861 -0.077
44.2164 -0.233
44.2466 -0.024
44.2769 0.289
44.3072 0.342
44.3375 0.864
44.3678 -0.020
44.3980 0.346
44.4283 0.035
44.4586 0.245
44.4889 0.143
44.5191 0.145
44.5494 -0.373
44.5797 0.307
44.6100 0.257
44.6403 0.261
44.6705 0.264
44.7008 -0.097
44.7311 -0.250
44.7614 -0.052
44.7917 0.407
44.8219 0.241
44.8522 0.023
44.8825 0.117
44.9128 0.212
44.9430 0.359
44.9733 0.142
45.0036 -0.023
45.0339 -0.032
45.0642 0.064
45.0944 0.265
45.1247 0.152
45.1550 0.301
45.1853 0.346
45.2156 -0.287
45.2458 0.383
45.2761 -0.144
45.3064 0.266
45.3367 0.207
45.3669 -0.111
45.3972 0.403
45.4275 0.710
45.4578 0.184
45.4881 0.022
45.5183 0.485
45.5486 -0.249
45.5789 0.632
45.6092 0.002
45.6395 -0.054
45.6697 0.306
45.7000 -0.271
45.7303 -0.541
45.7606 0.594
45.7908 0.793
45.8211 0.210
45.8514 0.148
45.8817 -0.330
45.9120 0.182
45.9422 0.485
45.9725 0.164
46.0028 -0.157
46.0331 0.147
46.0634 0.451
46.0936 0.079
46.1239 -0.085
46.1542 0.168
46.1845 0.317
46.2147 0.778
46.2450 -0.010
46.2753 0.296
46.3056 -0.283
46.3359 0.648
46.3661 -0.192
46.3964 0.636
46.4267 -0.255
46.4570 0.364
46.4873 -0.110
46.5175 0.510
46.5478 0.193
46.5781 1.022
46.6084 0.444
46.6386 1.013
46.6689 0.644
46.6992 0.588
46.7295 0.897
46.7598 0.894
46.7900 0.474
46.8203 1.617
46.8506 1.770
46.8809 0.726
46.9112 1.453
46.9414 2.180
46.9717 2.178
47.0020 2.437
47.0323 1.289
47.0626 3.111
47.0928 2.745
47.1231 3.890
47.1534 3.941
47.1837 4.514
47.2139 4.253
47.2442 5.607
47.2745 6.649
47.3048 6.649
47.3351 7.066
47.3653 7.900
47.3956 8.787
47.4259 8.892
47.4562 7.852
47.4865 8.634
47.5167 8.480
47.5470 7.909
47.5773 7.547
47.6076 5.414
47.6378 4.374
47.6681 4.429
47.6984 4.276
47.7287 3.550
47.7590 2.043
47.7892 2.620
47.8195 2.623
47.8498 2.732
47.8801 1.746
47.9104 1.907
47.9406 0.818
47.9709 0.979
48.0012 1.296
48.0315 0.625
48.0617 1.203
48.0920 0.323
48.1223 0.954
48.1526 0.491
48.1829 0.602
48.2131 1.025
48.2434 0.459
48.2737 -0.003
48.3040 0.369
48.3343 0.480
48.3645 0.123
48.3948 -0.234
48.4251 0.607
48.4554 -0.374
48.4856 0.155
48.5159 0.216
48.5462 0.381
48.5765 0.598
48.6068 0.295
48.6370 0.304
48.6673 -0.363
48.6976 -0.258
48.7279 0.524
48.7582 -0.412
48.7884 0.944
48.8187 -0.200
48.8490 -0.198
48.8793 0.012
48.9095 0.535
48.9398 -0.035
48.9701 0.541
49.0004 -0.342
49.0307 -0.130
49.0609 0.707
49.0912 -0.383
49.1215 0.350
49.1518 -0.584
49.1821 0.254
49.2123 -0.575
49.2426 0.263
49.2729 -0.097
49.3032 0.481
49.3334 0.278
49.3637 0.388
49.3940 0.133
49.4243 -0.122
49.4546 -0.220
49.4848 -0.266
49.5151 0.001
49.5454 0.006
49.5757 -0.040
49.6060 -0.242
49.6362 -0.131
49.6665 0.553
49.6968 -0.274
49.7271 0.046
49.7574 -0.363
49.7876 0.008
49.8179 0.015
49.8482 0.335
49.8785 0.186
49.9087 0.923
49.9390 -0.267
49.9693 -0.363
49.9996 0.311
50.0299 0.308
50.0601 -0.476
50.0904 -0.218
50.1207 0.040
50.1510 -0.171
50.1813 0.660
50.2115 0.502
50.2418 0.241
50.2721 0.187
50.3024 0.082
50.3326 -0.075
50.3629 0.132
50.3932 0.080
50.4235 -0.389
50.4538 -0.028
50.4840 0.385
50.5143 0.017
50.5446 0.066
50.5749 0.323
50.6052 -0.148
50.6354 -0.047
50.6657 0.159
50.6960 0.053
50.7263 0.312
50.7565 0.154
50.7868 -0.004
50.8171 0.411
50.8474 0.254
50.8777 -0.059
50.9079 0.304
50.9382 -0.373
50.9685 0.460
50.9988 0.408
51.0291 -0.530
51.0593 -0.217
51.0896 -0.008
51.1199 -0.111
51.1502 0.567
51.1804 -0.369
51.2107 -0.003
51.2410 -0.002
51.2713 -0.260
51.3016 -0.209
51.3318 -0.157
51.3621 0.363
51.3924 -0.366
51.4227 0.468
51.4530 -0.053
51.4832 -0.260
51.5135 -0.155
51.5438 -0.050
51.5741 0.212
51.6043 0.266
51.6346 0.112
51.6649 0.530
51.6952 0.324
51.7255 0.066
51.7557 -0.191
51.7860 -0.292
51.8163 0.440
51.8466 0.183
51.8769 -0.178
51.9071 0.346
51.9374 0.350
51.9677 0.198
51.9980 -0.058
52.0282 0.051
52.0585 0.056
52.0888 -0.356
52.1191 0.326
52.1494 -0.137
52.1796 0.441
52.2099 0.031
52.2402 -0.120
52.2705 0.355
52.3008 0.049
52.3310 0.004
52.3613 -0.250
52.3916 0.004
52.4219 0.101
52.4521 0.408
52.4824 0.558
52.5127 -0.334
52.5430 -0.235
52.5733 0.228
52.6035 0.066
52.6338 0.165
52.6641 0.369
52.6944 -0.157
52.7247 -0.057
52.7549 -0.166
52.7852 -0.118
52.8155 0.347
52.8458 0.031
52.8761 -0.233
52.9063 -0.184
52.9366 0.073
52.9669 -0.086
52.9972 0.224
53.0274 -0.351
53.0577 0.063
53.0880 0.374
53.1183 0.007
53.1486 -0.047
53.1788 0.733
53.2091 0.263
53.2394 -0.154
53.2697 -0.155
53.3000 0.105
53.3302 0.625
53.3605 -0.625
53.3908 -0.260
53.4211 -0.106
53.4513 0.674
53.4816 0.205
53.5119 0.152
53.5422 0.203
53.5725 0.255
53.6027 -0.214
53.6330 -0.110
53.6633 0.672
53.6936 0.256
53.7239 0.517
53.7541 -0.264
53.7844 0.258
53.8147 0.364
53.8450 0.105
53.8752 0.367
53.9055 0.369
53.9358 0.110
53.9661 0.113
53.9964 0.115
54.0266 0.639
54.0569 0.329
54.0872 0.020
54.1175 0.284
54.1478 0.235
54.1780 0.603
54.2083 0.139
54.2386 0.299
54.2689 0.251
54.2991 0.100
54.3294 -0.156
54.3597 -0.255
54.3900 -0.111
54.4203 0.189
54.4505 0.333
54.4808 0.165
54.5111 0.570
54.5414 0.715
54.5717 0.183
54.6019 0.120
54.6322 0.421
54.6625 0.150
54.6928 -0.121
54.7230 0.338
54.7533 0.016
54.7836 0.110
54.8139 -0.160
54.8442 0.247
54.8744 0.603
54.9047 -0.448
54.9350 0.012
54.9653 -0.622
54.9956 0.151
55.0258 0.351
55.0561 0.552
55.0864 0.127
55.1167 0.016
55.1469 0.581
55.1772 0.210
55.2075 0.411
55.2378 0.561
55.2681 0.502
55.2983 0.548
55.3286 0.021
55.3589 0.015
55.3892 0.270
55.4195 0.264
55.4497 0.936
55.4800 0.202
55.5103 0.406
55.5406 0.453
55.5709 0.501
55.6011 0.965
55.6314 0.440
55.6617 1.218
55.6920 2.308
55.7222 1.159
55.7525 1.208
55.7828 2.090
55.8131 1.462
55.8434 1.408
55.8736 2.030
55.9039 1.195
55.9342 2.182
55.9645 2.858
55.9948 1.866
56.0250 3.167
56.0553 3.218
56.0856 2.696
56.1159 4.050
56.1461 4.258
56.1764 5.924
56.2067 5.351
56.2370 5.924
56.2673 7.226
56.2975 7.487
56.3278 7.280
56.3581 9.833
56.3884 10.980
56.4187 10.929
56.4489 10.931
56.4792 11.505
56.5095 11.351
56.5398 9.843
56.5700 9.116
56.6003 9.691
56.6306 8.600
56.6609 6.989
56.6912 8.554
56.7214 5.016
56.7517 3.822
56.7820 4.242
56.8123 4.663
56.8426 3.365
56.8728 3.734
56.9031 2.906
56.9334 3.015
56.9637 2.603
56.9939 2.764
57.0242 2.249
57.0545 1.786
57.0848 1.323
57.1151 1.537
57.1453 1.596
57.1756 1.342
57.2059 1.817
57.2362 0.678
57.2665 1.206
57.2967 1.162
57.3270 0.232
57.3573 0.656
57.3876 0.560
57.4178 1.193
57.4481 0.420
57.4784 0.585
57.5087 0.333
57.5390 0.082
57.5692 0.664
57.5995 0.465
57.6298 0.214
57.6601 0.276
57.6904 1.015
57.7206 -0.121
57.7509 0.150
57.7812 0.317
57.8115 1.005
57.8417 0.495
57.8720 0.454
57.9023 0.726
57.9326 0.113
57.9629 0.333
57.9931 0.189
58.0234 0.045
58.0537 -0.255
58.0840 -0.155
58.1143 0.102
58.1445 0.308
58.1748 0.044
58.2051 0.562
58.2354 -0.117
58.2656 -0.016
58.2959 0.399
58.3262 0.241
58.3565 0.655
58.3868 -0.179
58.4170 -0.129
58.4473 0.235
58.4776 0.182
58.5079 0.129
58.5382 -0.080
58.5684 0.389
58.5987 0.336
58.6290 0.076
58.6593 -0.080
58.6896 0.129
58.7198 0.338
58.7501 -0.234
58.7804 0.080
58.8107 0.602
58.8409 0.030
58.8712 -0.332
58.9015 0.138
58.9318 0.140
58.9621 0.195
58.9923 0.458
59.0226 0.148
59.0529 0.047
59.0832 0.519
59.1135 0.574
59.1437 0.109
59.1740 -0.147
59.2043 0.534
59.2346 -0.139
59.2648 0.074
59.2951 -0.130
59.3254 0.083
59.3557 -0.329
59.3860 0.093
59.4162 0.151
59.4465 0.157
59.4768 -0.202
59.5071 -0.092
59.5374 0.331
59.5676 0.285
59.5979 0.240
59.6282 0.403
59.6585 0.150
59.6887 0.313
59.7190 -0.148
59.7493 -0.244
59.7796 0.167
59.8099 0.162
59.8401 0.626
59.8704 0.205
59.9007 0.044
59.9310 0.717
59.9613 0.713
59.9915 0.240
60.0218 0.184
60.0521 0.337
60.0824 -0.135
60.1126 -0.034
60.1429 -0.141
60.1732 -0.247
60.2035 -0.250
60.2338 0.058
60.2640 0.521
60.2943 -0.056
60.3246 0.043
60.3549 0.039
60.3852 0.035
60.4154 0.031
60.4457 -0.337
60.4760 0.015
60.5063 0.211
60.5365 0.147
60.5668 0.968
60.5971 0.019
60.6274 -0.045
60.6577 0.152
60.6879 0.089
60.7182 0.339
60.7485 0.901
60.7788 -0.151
60.8091 0.724
60.8393 -0.276
60.8696 0.756
60.8999 0.278
60.9302 0.737
60.9604 0.467
60.9907 -0.219
61.0210 -0.071
61.0513 0.128
61.0816 -0.245
61.1118 0.268
61.1421 0.156
61.1724 0.304
61.2027 -0.276
61.2330 -0.023
61.2632 0.334
61.2935 -0.142
61.3238 0.216
61.3541 -0.624
61.3844 -0.163
61.4146 0.246
61.4449 0.447
61.4752 0.283
61.5055 -0.245
61.5357 -0.043
61.5660 -0.206
61.5963 -0.160
61.6266 0.094
61.6569 -0.069
61.6871 0.238
61.7174 0.128
61.7477 0.592
61.7780 -0.091
61.8083 0.685
61.8385 0.316
61.8688 -0.105
61.8991 -0.005
61.9294 0.355
61.9596 0.715
61.9899 0.660
62.0202 0.396
62.0505 1.017
62.0808 0.754
62.1110 1.219
62.1413 0.592
62.1716 0.902
62.2019 1.733
62.2322 1.991
62.2624 2.406
62.2927 2.560
62.3230 2.038
62.3533 3.182
62.3835 3.754
62.4138 2.659
62.4441 3.544
62.4744 4.273
62.5047 4.845
62.5349 5.054
62.5652 6.200
62.5955 7.033
62.6258 7.398
62.6561 8.024
62.6863 8.338
62.7166 8.026
62.7469 10.788
62.7772 8.238
62.8074 7.719
62.8377 8.346
62.8680 8.035
62.8983 7.413
62.9286 7.467
62.9588 7.106
62.9891 5.754
63.0194 5.028
63.0497 4.459
63.0800 4.046
63.1102 3.164
63.1405 3.168
63.1708 2.912
63.2011 2.344
63.2313 1.775
63.2616 1.832
63.2919 2.150
63.3222 1.166
63.3525 1.327
63.3827 1.125
63.4130 1.287
63.4433 0.824
63.4736 0.570
63.5039 0.577
63.5341 0.010
63.5644 0.851
63.5947 0.389
63.6250 0.969
63.6552 0.716
63.6855 0.360
63.7158 0.211
63.7461 -0.301
63.7764 0.332
63.8066 -0.024
63.8369 0.193
63.8672 -0.162
63.8975 0.003
63.9278 0.221
63.9580 0.647
63.9883 -0.281
64.0186 -0.271
64.0489 0.142
64.0791 0.450
64.1094 -0.179
64.1397 0.182
64.1700 0.387
64.2003 0.071
64.2305 0.172
64.2608 0.377
64.2911 0.687
64.3214 -0.044
64.3517 0.110
64.3819 -0.205
64.4122 0.574
64.4425 -0.365
64.4728 0.207
64.5031 0.153
64.5333 -0.108
64.5636 -0.109
64.5939 -0.110
64.6242 -0.058
64.6544 0.046
64.6847 -0.266
64.7150 0.046
64.7453 0.151
64.7756 0.203
64.8058 0.100
64.8361 -0.003
64.8664 0.050
64.8967 0.104
64.9270 -0.415
64.9572 -0.053
64.9875 0.100
65.0178 -0.110
65.0481 -0.216
65.0783 -0.218
65.1086 0.041
65.1389 0.196
65.1692 0.039
65.1995 -0.223
65.2297 -0.276
65.2600 0.081
65.2903 -0.083
65.3206 -0.194
65.3509 -0.202
65.3811 0.104
65.4114 -0.267
65.4417 0.195
65.4720 -0.280
65.5022 -0.241
65.5325 0.475
65.5628 -0.163
65.5931 -0.175
65.6234 0.282
65.6536 0.166
65.6839 0.206
65.7142 -0.222
65.7445 0.079
65.7748 0.224
65.8050 0.578
65.8353 0.150
65.8656 0.504
65.8959 0.442
65.9261 0.172
65.9564 0.266
65.9867 0.100
66.0170 0.872
66.0473 0.654
66.0775 0.957
66.1078 1.678
66.1381 0.680
66.1684 1.244
66.1987 0.715
66.2289 0.707
66.2592 0.751
66.2895 0.275
66.3198 0.788
66.3500 0.469
66.3803 1.243
66.4106 0.871
66.4409 0.188
66.4712 1.327
66.5014 0.227
66.5317 0.378
66.5620 0.476
66.5923 0.627
66.6226 0.257
66.6528 -0.269
66.6831 0.507
66.7134 -0.383
66.7437 0.914
66.7739 0.233
66.8042 0.229
66.8345 0.329
66.8648 0.065
66.8951 0.530
66.9253 -0.150
66.9556 0.316
66.9859 0.521
67.0162 0.362
67.0465 0.516
67.0767 0.618
67.1070 0.460
67.1373 0.822
67.1676 0.925
67.1978 0.090
67.2281 0.714
67.2584 1.234
67.2887 0.816
67.3190 1.024
67.3492 1.961
67.3795 1.857
67.4098 1.127
67.4401 2.273
67.4704 2.274
67.5006 1.441
67.5309 2.640
67.5612 3.006
67.5915 3.840
67.6218 4.571
67.6520 4.052
67.6823 5.095
67.7126 6.712
67.7429 4.891
67.7731 4.998
67.8034 5.365
67.8337 5.420
67.8640 6.465
67.8943 5.843
67.9245 5.534
67.9548 6.371
67.9851 4.552
68.0154 5.233
68.0457 4.352
68.0759 4.253
68.1062 2.903
68.1365 3.898
68.1668 3.538
68.1970 2.606
68.2273 2.612
68.2576 2.826
68.2879 1.530
68.3182 1.640
68.3484 2.324
68.3787 1.862
68.4090 1.816
68.4393 2.865
68.4696 1.518
68.4998 0.640
68.5301 1.377
68.5604 1.333
68.5907 1.549
68.6209 2.130
68.6512 1.357
68.6815 1.366
68.7118 1.010
68.7421 2.582
68.7723 2.070
68.8026 2.861
68.8329 2.298
68.8632 2.464
68.8935 2.891
68.9237 2.328
68.9540 2.391
68.9843 3.026
69.0146 2.985
69.0448 1.903
69.0751 2.487
69.1054 1.561
69.1357 3.344
69.1660 0.751
69.1962 1.701
69.2265 1.349
69.2568 2.038
69.2871 1.426
69.3174 1.439
69.3476 0.619
69.3779 1.049
69.4082 1.479
69.4385 0.608
69.4687 0.830
69.4990 0.532
69.5293 0.494
69.5596 0.613
69.5899 0.524
69.6201 0.122
69.6504 0.137
69.6807 -0.160
69.7110 0.116
69.7413 0.289
69.7715 -0.164
69.8018 0.061
69.8321 0.337
69.8624 0.458
69.8926 0.215
69.9229 0.024
69.9532 0.197
69.9835 0.163
70.0138 0.076
70.0440 0.302
70.0743 0.373
70.1046 -0.130
70.1349 0.149
70.1652 0.064
70.1954 0.083
70.2257 -0.263
70.2560 0.173
70.2863 -0.015
70.3166 0.004
70.3468 0.441
70.3771 -0.112
70.4074 -0.091
70.4377 0.086
70.4679 0.158
70.4982 0.596
70.5285 0.149
70.5588 0.170
70.5891 0.400
70.6193 0.474
70.6496 0.236
70.6799 -0.315
70.7102 0.176
70.7405 0.095
70.7707 -0.195
70.8010 -0.100
70.8313 -0.109
70.8616 -0.118
70.8918 0.186
70.9221 0.282
70.9524 -0.247
70.9827 0.474
71.0130 0.258
71.0432 0.511
71.0735 -0.017
71.1038 0.132
71.1341 0.542
71.1644 0.535
71.1946 0.633
71.2249 0.053
71.2552 -0.317
71.2855 0.198
71.3157 0.556
71.3460 0.343
71.3763 0.025
71.4066 0.332
71.4369 0.171
71.4671 0.635
71.4974 -0.151
71.5277 0.522
71.5580 0.362
71.5883 -0.215
71.6185 -0.376
71.6488 0.556
71.6791 0.291
71.7094 0.026
71.7396 -0.031
71.7699 -0.192
71.8002 0.221
71.8305 0.113
71.8608 0.005
71.8910 0.158
71.9213 0.154
71.9516 0.360
71.9819 -0.164
72.0122 0.146
72.0424 0.039
72.0727 0.297
72.1030 0.295
72.1333 -0.175
72.1635 0.344
72.1938 0.447
72.2241 0.289
72.2544 0.132
72.2847 0.287
72.3149 0.287
72.3452 0.495
72.3755 0.859
72.4058 0.078
72.4361 0.078
72.4663 0.704
72.4966 0.808
72.5269 0.080
72.5572 0.237
72.5874 0.655
72.6177 0.032
72.6480 0.294
72.6783 0.192
72.7086 0.558
72.7388 0.092
72.7691 0.407
72.7994 0.253
72.8297 -0.213
72.8600 0.051
72.8902 0.106
72.9205 0.110
72.9508 0.061
72.9811 0.430
73.0113 0.226
73.0416 0.178
73.0719 0.130
73.1022 -0.073
73.1325 -0.172
73.1627 0.562
73.1930 -0.058
73.2233 0.260
73.2536 0.214
73.2839 -0.405
73.3141 0.174
73.3444 0.129
73.3747 0.187
73.4050 0.090
73.4353 0.045
73.4655 -0.208
73.4958 -0.100
73.5261 0.008
73.5564 -0.092
73.5866 0.016
73.6169 0.073
73.6472 0.234
73.6775 0.239
73.7078 0.036
73.7380 0.405
73.7683 -0.006
73.7986 0.261
73.8289 -0.150
73.8592 0.377
73.8894 0.227
73.9197 0.234
73.9500 -0.072
73.9803 0.404
74.0105 0.151
74.0408 -0.207
74.0711 -0.108
74.1014 0.095
74.1317 0.455
74.1619 0.346
74.1922 0.080
74.2225 0.024
74.2528 0.124
74.2831 -0.245
74.3133 0.324
74.3436 0.268
74.3739 0.682
74.4042 -0.207
74.4344 0.467
74.4647 0.048
74.4950 -0.163
74.5253 0.043
74.5556 0.249
74.5858 0.299
74.6161 0.089
74.6464 -0.121
74.6767 0.242
74.7070 -0.280
74.7372 0.240
74.7675 0.187
74.7978 0.395
74.8281 -0.022
74.8583 -0.075
74.8886 0.498
74.9189 -0.178
74.9492 0.239
74.9795 0.187
75.0097 -0.072
75.0400 0.137
75.0703 -0.122
75.1006 0.036
75.1309 0.298
75.1611 0.196
75.1914 0.302
75.2217 0.513
75.2520 0.099
75.2822 0.258
75.3125 0.156
75.3428 -0.049
75.3731 -0.202
75.4034 -0.104
75.4336 0.151
75.4639 0.510
75.4942 0.556
75.5245 -0.439
75.5548 0.286
75.5850 -0.136
75.6153 -0.037
75.6456 0.167
75.6759 0.007
75.7061 -0.258
75.7364 0.311
75.7667 0.152
75.7970 0.148
75.8273 0.249
75.8575 0.350
75.8878 -0.226
75.9181 -0.020
75.9484 -0.074
75.9787 -0.233
76.0089 0.126
76.0392 0.120
76.0695 0.374
76.0998 0.056
76.1301 0.051
76.1603 0.202
76.1906 0.301
76.2209 0.088
76.2512 -0.177
76.2814 -0.026
76.3117 -0.030
76.3420 0.539
76.3723 0.223
76.4026 -0.041
76.4328 0.060
76.4631 0.057
76.4934 0.418
76.5237 0.259
76.5540 0.048
76.5842 0.411
76.6145 0.356
76.6448 0.354
76.6751 0.249
76.7053 0.612
76.7356 0.142
76.7659 0.088
76.7962 0.452
76.8265 0.816
76.8567 0.503
76.8870 0.503
76.9173 1.128
76.9476 0.711
76.9779 0.503
77.0081 0.243
77.0384 0.556
77.0687 0.193
77.0990 0.038
77.1292 0.508
77.1595 0.614
77.1898 0.824
77.2201 0.513
77.2504 0.099
77.2806 0.570
77.3109 0.260
77.3412 0.055
77.3715 -0.099
77.4018 0.530
77.4320 -0.040
77.4623 0.432
77.4926 0.072
77.5229 -0.081
77.5531 0.393
77.5834 -0.176
77.6137 0.089
77.6440 0.042
77.6743 -0.213
77.7045 0.261
77.7348 0.370
77.7651 -0.041
77.7954 0.121
77.8257 -0.289
77.8559 -0.022
77.8862 -0.016
77.9165 -0.061
77.9468 0.362
77.9770 0.109
78.0073 0.221
78.0376 -0.032
78.0679 -0.389
78.0982 0.078
78.1284 0.181
78.1587 0.076
78.1890 0.544
78.2193 -0.134
78.2496 0.179
78.2798 0.283
78.3101 -0.342
78.3404 0.335
78.3707 0.023
78.4009 0.024
78.4312 -0.080
78.4615 -0.131
78.4918 -0.077
78.5221 0.080
78.5523 -0.178
78.5826 0.084
78.6129 -0.487
78.6432 0.088
78.6735 -0.170
78.7037 0.354
78.7340 -0.112
78.7643 0.464
78.7946 0.363
78.8248 -0.258
78.8551 0.162
78.8854 0.218
78.9157 -0.090
78.9460 -0.138
78.9762 -0.029
79.0065 -0.337
79.0368 0.079
79.0671 0.287
79.0974 -0.077
79.1276 0.548
79.1579 -0.233
79.1882 0.236
79.2185 0.029
79.2488 0.238
79.2790 -0.073
79.3093 -0.072
79.3396 -0.175
79.3699 0.192
79.4001 0.142
79.4304 -0.012
79.4607 -0.166
79.4910 0.305
79.5213 0.360
79.5515 0.155
79.5818 -0.259
79.6121 -0.103
79.6424 -0.311
79.6727 0.314
79.7029 -0.468
79.7332 -0.051
79.7635 -0.258
79.7938 0.315
79.8240 0.264
79.8543 0.057
79.8846 -0.098
79.9149 -0.148
79.9452 0.218
79.9754 -0.196
80.0057 0.431
80.0360 0.225
80.0663 0.228
80.0966 0.126
80.1268 0.650
80.1571 -0.336
80.1874 0.292
80.2177 0.348
80.2479 0.404
80.2782 -0.217
80.3085 0.152
80.3388 -0.052
80.3691 0.370
80.3993 0.323
80.4296 0.119
80.4599 -0.188
80.4902 -0.196
80.5205 0.525
80.5507 -0.108
80.5810 0.301
80.6113 0.294
80.6416 0.339
80.6718 -0.241
80.7021 0.064
80.7324 0.318
80.7627 0.051
80.7930 0.149
80.8232 -0.065
80.8535 0.294
80.8838 0.705
80.9141 0.074
80.9444 -0.035
80.9746 -0.092
81.0049 0.424
81.0352 0.055
81.0655 0.572
81.0957 0.255
81.1260 0.147
81.1563 0.143
81.1866 0.712
81.2169 0.397
81.2471 0.654
81.2774 0.599
81.3077 0.180
81.3380 0.229
81.3683 0.019
81.3985 0.746
81.4288 0.483
81.4591 0.117
81.4894 0.376
81.5196 0.479
81.5499 0.165
81.5802 0.165
81.6105 -0.357
81.6408 0.320
81.6710 0.788
81.7013 -0.149
81.7316 0.268
81.7619 -0.097
81.7922 0.164
81.8224 -0.147
81.8527 -0.042
81.8830 0.167
81.9133 -0.039
81.9436 0.483
81.9738 0.120
82.0041 0.174
82.0344 0.229
82.0647 0.023
82.0949 0.130
82.1252 -0.128
82.1555 0.344
82.1858 -0.069
82.2161 0.247
82.2463 0.198
82.2766 -0.058
82.3069 0.206
82.3372 0.054
82.3675 -0.202
82.3977 -0.098
82.4280 -0.046
82.4583 0.215
82.4886 0.111
82.5188 0.215
82.5491 -0.409
82.5794 -0.147
82.6097 0.062
82.6400 0.063
82.6702 0.221
82.7005 0.275
82.7308 0.329
82.7611 0.019
82.7914 -0.344
82.8216 0.180
82.8519 0.026
82.8822 0.134
82.9125 -0.228
82.9427 0.088
82.9730 0.352
83.0033 -0.217
83.0336 0.152
83.0639 0.156
83.0941 0.108
83.1244 -0.148
83.1547 -0.195
83.1850 -0.195
83.2153 0.062
83.2455 0.320
83.2758 0.108
83.3061 -0.207
83.3364 0.416
83.3666 0.726
83.3969 -0.214
83.4272 0.305
83.4575 0.147
83.4878 -0.010
83.5180 -0.064
83.5483 0.040
83.5786 -0.118
83.6089 0.246
83.6392 0.090
83.6694 -0.067
83.6997 0.038
83.7300 0.246
83.7603 -0.222
83.7905 -0.065
83.8208 0.248
83.8511 -0.220
83.8814 0.250
83.9117 0.356
83.9419 -0.215
83.9722 0.203
84.0025 0.257
84.0328 -0.105
84.0631 0.002
84.0933 0.265
84.1236 -0.045
84.1539 -0.042
84.1842 -0.195
84.2144 0.061
84.2447 0.264
84.2750 0.259
84.3053 -0.110
84.3356 0.042
84.3658 0.091
84.3961 0.295
84.4264 -0.229
84.4567 -0.024
84.4870 0.129
84.5172 0.490
84.5475 0.435
84.5778 -0.036
84.6081 0.222
84.6383 -0.249
84.6686 0.114
84.6989 -0.148
84.7292 -0.150
84.7595 0.214
84.7897 -0.152
84.8200 0.212
84.8503 0.055
84.8806 0.315
84.9109 -0.102
84.9411 -0.207
84.9714 0.157
85.0017 0.053
85.0320 0.313
85.0623 -0.259
85.0925 -0.155
85.1228 0.106
85.1531 0.055
85.1834 -0.152
85.2136 0.370
85.2439 -0.202
85.2742 -0.465
85.3045 0.313
85.3348 -0.002
85.3650 -0.109
85.3953 -0.111
85.4256 -0.061
85.4559 0.093
85.4862 0.196
85.5164 -0.014
85.5467 -0.015
85.5770 -0.277
85.6073 0.139
85.6375 -0.070
85.6678 0.190
85.6981 -0.019
85.7284 0.189
85.7587 0.242
85.7889 -0.175
85.8192 0.295
85.8495 -0.017
85.8798 -0.172
85.9101 0.089
85.9403 -0.066
85.9706 0.196
86.0009 0.250
86.0312 -0.112
86.0614 -0.006
86.0917 0.309
86.1220 -0.001
86.1523 0.002
86.1826 0.213
86.2128 0.060
86.2431 0.220
86.2734 0.120
86.3037 0.228
86.3340 -0.029
86.3642 -0.233
86.3945 0.079
86.4248 0.131
86.4551 -0.129
86.4853 -0.077
86.5156 -0.129
86.5459 0.549
86.5762 0.237
86.6065 0.238
86.6367 0.500
86.6670 0.241
86.6973 0.243
86.7276 0.348
86.7579 -0.118
86.7881 0.040
86.8184 0.251
86.8487 -0.215
86.8790 0.309
86.9092 0.260
86.9395 0.002
86.9698 0.370
87.0001 -0.095
87.0304 -0.195
87.0606 -0.096
87.0909 0.055
87.1212 -0.106
87.1515 0.046
87.1818 0.093
87.2120 0.453
87.2423 -0.071
87.2726 0.237
87.3029 -0.079
87.3331 0.178
87.3634 0.123
87.3937 -0.089
87.4240 -0.196
87.4543 -0.042
87.4845 0.008
87.5148 0.266
87.5451 -0.257
87.5754 0.002
87.6057 0.260
87.6359 -0.001
87.6662 0.050
87.6965 -0.108
87.7268 0.256
87.7571 0.204
87.7873 0.099
87.8176 0.099
87.8479 -0.057
87.8782 0.047
87.9084 0.100
87.9387 0.152
87.9690 0.310
87.9993 0.311
88.0296 0.364
88.0598 0.105
88.0901 0.159
88.1204 0.213
88.1507 -0.202
88.1810 -0.203
88.2112 0.422
88.2415 0.317
88.2718 -0.152
88.3021 0.004
88.3323 0.577
88.3626 0.265
88.3929 -0.099
88.4232 -0.046
88.4535 -0.202
88.4837 -0.262
88.5140 0.511
88.5443 0.034
88.5746 -0.025
88.6049 0.644
88.6351 -0.196
88.6654 -0.203
88.6957 0.571
88.7260 0.044
88.7562 0.141
88.7865 -0.021
88.8168 0.337
88.8471 0.384
88.8774 -0.039
88.9076 0.112
88.9379 0.211
88.9682 0.935
88.9985 0.410
89.0288 0.145
89.0590 0.244
89.0893 0.084
89.1196 0.445
89.1499 0.701
89.1801 0.802
89.2104 1.528
89.2407 0.691
89.2710 1.157
89.3013 0.529
89.3315 0.839
89.3618 0.993
89.3921 0.679
89.4224 0.625
89.4527 1.196
89.4829 0.361
89.5132 1.089
89.5435 1.713
89.5738 0.722
89.6040 1.451
89.6343 1.398
89.6646 1.242
89.6949 1.033
89.7252 1.398
89.7554 1.659
89.7857 1.503
89.8160 0.879
89.8463 0.984
89.8766 0.777
89.9068 0.726
89.9371 0.832
89.9674 0.261
89.9977 0.575
90.0279 0.213
90.0582 0.476
90.0885 0.166
90.1188 0.481
90.1491 0.328
90.1793 0.383
90.2096 0.491
90.2399 0.963
90.2702 0.186
90.3005 0.346
90.3307 0.299
90.3610 0.095
90.3913 0.204
90.4216 0.417
90.4518 -0.099
90.4821 0.011
90.5124 0.120
90.5427 0.126
90.5730 0.132
90.6032 -0.122
90.6335 0.092
90.6638 0.255
90.6941 -0.051
90.7244 0.321
90.7546 -0.193
90.7849 0.439
90.8152 -0.074
90.8455 0.507
90.8758 0.307
90.9060 0.419
90.9363 0.115
90.9666 0.436
90.9969 -0.128
91.0271 0.193
91.0574 0.619
91.0877 0.160
91.1180 0.274
91.1483 -0.185
91.1785 -0.071
91.2088 0.148
91.2391 -0.259
91.2694 -0.111
91.2997 0.297
91.3299 0.080
91.3602 -0.136
91.3905 0.169
91.4208 0.421
91.4510 0.101
91.4813 -0.062
91.5116 0.400
91.5419 0.132
91.5722 0.074
91.6024 0.536
91.6327 0.321
91.6630 -0.049
91.6933 -0.003
91.7236 0.564
91.7538 0.299
91.7841 0.085
91.8144 0.132
91.8447 0.336
91.8749 0.071
91.9052 0.118
91.9355 -0.042
91.9658 0.058
91.9961 -0.206
92.0263 0.155
92.0566 0.360
92.0869 0.201
92.1172 0.094
92.1475 -0.222
92.1777 0.297
92.2080 -0.070
92.2383 0.501
92.2686 0.395
92.2988 0.289
92.3291 0.756
92.3594 0.078
92.3897 0.129
92.4200 0.388
92.4502 0.440
92.4805 0.700
92.5108 0.127
92.5411 0.439
92.5714 0.127
92.6016 0.335
92.6319 0.596
92.6622 0.493
92.6925 0.546
92.7227 0.599
92.7530 0.549
92.7833 0.706
92.8136 0.344
92.8439 0.867
92.8741 0.296
92.9044 0.350
92.9347 0.093
92.9650 0.512
92.9953 0.463
93.0255 0.518
93.0558 0.053
93.0861 0.213
93.1164 0.269
93.1466 0.481
93.1769 0.538
93.2072 -0.031
93.2375 0.703
93.2678 0.344
93.2980 0.453
93.3283 0.094
93.3586 0.203
93.3889 0.001
93.4192 -0.202
93.4494 -0.056
93.4797 0.299
93.5100 0.185
93.5403 0.124
93.5706 0.531
93.6008 -0.155
93.6311 0.357
93.6614 0.244
93.6917 0.288
93.7219 -0.085
93.7522 -0.197
93.7825 -0.153
93.8128 -0.109
93.8431 0.301
93.8733 -0.019
93.9036 0.286
93.9339 -0.241
93.9642 0.065
93.9945 -0.046
94.0247 0.365
94.0550 -0.318
94.0853 0.092
94.1156 0.087
94.1458 0.134
94.1761 0.024
94.2064 0.280
94.2367 -0.037
94.2670 0.062
94.2972 -0.150
94.3275 0.054
94.3578 0.623
94.3881 0.254
94.4184 0.147
94.4486 -0.013
94.4789 -0.485
94.5092 0.815
94.5395 0.291
94.5697 0.028
94.6000 0.182
94.6303 -0.028
94.6606 0.230
94.6909 0.385
94.7211 -0.346
94.7514 0.591
94.7817 0.850
94.8120 0.537
94.8423 0.015
94.8725 0.536
94.9028 1.212
94.9331 0.275
94.9634 0.379
94.9936 1.005
95.0239 0.068
95.0542 0.902
95.0845 1.007
95.1148 1.113
95.1450 0.958
95.1753 0.803
95.2056 1.274
95.2359 0.859
95.2662 1.487
95.2964 0.499
95.3267 0.710
95.3570 0.922
95.3873 0.352
95.4175 0.563
95.4478 0.619
95.4781 0.779
95.5084 1.043
95.5387 1.100
95.5689 0.635
95.5992 0.900
95.6295 0.644
95.6598 0.493
95.6901 0.602
95.7203 0.399
95.7506 0.509
95.7809 -0.214
95.8112 0.729
95.8414 0.423
95.8717 -0.039
95.9020 0.436
95.9323 0.859
95.9626 0.554
95.9928 0.509
96.0231 0.100
96.0534 0.368
96.0837 0.636
96.1140 0.019
96.1442 0.444
96.1745 0.192
96.2048 0.201
96.2351 0.157
96.2653 0.219
96.2956 0.020
96.3259 0.706
96.3562 -0.274
96.3865 -0.108
96.4167 -0.202
96.4470 0.109
96.4773 0.263
96.5076 0.105
96.5379 0.104
96.5681 -0.106
96.5984 0.049
96.6287 0.413
96.6590 0.256
96.6893 0.307
96.7195 0.568
96.7498 0.151
96.7801 0.099
96.8104 0.464
96.8406 -0.056
96.8709 0.361
96.9012 -0.003
96.9315 0.624
96.9618 0.104
96.9920 0.002
97.0223 -0.049
97.0526 0.214
97.0829 0.424
97.1132 -0.042
97.1434 0.325
97.1737 0.224
97.2040 -0.554
97.2343 -0.030
97.2645 -0.027
97.2948 0.498
97.3251 0.189
97.3554 -0.172
97.3857 0.197
97.4159 -0.059
97.4462 0.832
97.4765 0.472
97.5068 -0.252
97.5371 -0.195
97.5673 0.264
97.5976 0.410
97.6279 -0.172
97.6582 -0.026
97.6884 0.278
97.7187 0.269
97.7490 0.312
97.7793 0.928
97.8096 0.607
97.8398 -0.078
97.8701 0.331
97.9004 0.010
97.9307 0.211
97.9610 -0.213
97.9912 0.509
98.0215 0.294
98.0518 0.443
98.0821 0.280
98.1123 0.378
98.1426 0.424
98.1729 0.470
98.2032 0.152
98.2335 0.459
98.2637 0.401
98.2940 0.344
98.3243 0.391
98.3546 0.647
98.3849 0.538
98.4151 0.638
98.4454 0.374
98.4757 0.682
98.5060 0.418
98.5362 0.883
98.5665 0.724
98.5968 0.617
98.6271 0.562
98.6574 1.132
98.6876 0.296
98.7179 0.658
98.7482 0.709
98.7785 0.394
98.8088 0.132
98.8390 0.652
98.8693 0.546
98.8996 0.129
98.9299 0.649
98.9601 0.023
98.9904 0.752
99.0207 -0.082
99.0510 0.231
99.0813 0.648
99.1115 0.336
99.1418 0.180
99.1721 -0.132
99.2024 0.338
99.2327 -0.129
99.2629 0.028
99.2932 0.655
99.3235 0.032
99.3538 0.138
99.3841 0.036
99.4143 0.455
99.4446 0.146
99.4749 -0.372
99.5052 0.152
99.5354 -0.210
99.5657 0.054
99.5960 0.110
99.6263 0.531
99.6566 -0.142
99.6868 -0.086
99.7171 -0.133
99.7474 -0.337
99.7777 0.186
99.8080 0.085
99.8382 0.139
99.8685 0.246
99.8988 0.198
99.9291 0.201
99.9593 -0.004
99.9896 -0.104
100.0199 -0.048
100.0502 0.216
100.0805 -0.404
100.1107 0.069
100.1410 0.178
100.1713 0.287
100.2016 0.240
100.2319 0.038
100.2621 0.043
100.2924 0.414
100.3227 0.315
100.3530 0.061
100.3832 -0.141
100.4135 -0.082
100.4438 0.394
100.4741 -0.224
100.5044 0.200
100.5346 -0.001
100.5649 -0.202
100.5952 -0.202
100.6255 -0.054
100.6558 0.197
100.6860 0.293
100.7163 0.076
100.7466 0.329
100.7769 -0.200
100.8071 0.261
100.8374 0.253
100.8677 -0.275
100.8980 0.031
100.9283 -0.028
100.9585 0.226
100.9888 0.271
101.0191 -0.100
101.0494 -0.158
101.0797 -0.059
101.1099 -0.065
101.1402 0.138
101.1705 -0.024
101.2008 0.596
101.2310 -0.138
101.2613 -0.194
101.2916 0.270
101.3219 -0.047
101.3522 -0.519
101.3824 0.099
101.4127 -0.064
101.4430 0.086
101.4733 -0.337
101.5036 -0.030
101.5338 0.276
101.5641 0.323
101.5944 -0.099
101.6247 0.052
101.6549 0.307
101.6852 -0.218
101.7155 0.038
101.7458 -0.227
101.7761 -0.075
101.8063 0.078
101.8366 0.022
101.8669 0.071
101.8972 -0.192
101.9275 -0.039
101.9577 0.011
101.9880 -0.096
102.0183 -0.150
102.0486 0.317
102.0788 0.054
102.1091 -0.104
102.1394 0.208
102.1697 -0.106
102.2000 0.101
102.2302 -0.056
102.2605 -0.369
102.2908 0.360
102.3211 -0.057
102.3514 -0.005
102.3816 -0.109
102.4119 -0.160
102.4422 -0.107
102.4725 0.102
102.5028 0.415
102.5330 0.312
102.5633 -0.363
102.5936 -0.265
102.6239 0.823
102.6541 0.089
102.6844 -0.125
102.7147 1.068
102.7450 -0.447
102.7753 0.069
102.8055 0.064
102.8358 0.060
102.8661 0.317
102.8964 0.521
102.9267 0.622
102.9569 0.150
102.9872 0.407
103.0175 0.196
103.0478 0.245
103.0780 0.034
103.1083 0.136
103.1386 0.186
103.1689 -0.441
103.1992 -0.133
103.2294 0.227
103.2597 -0.194
103.2900 0.219
103.3203 0.059
103.3506 0.003
103.3808 -0.105
103.4111 -0.056
103.4414 -0.007
103.4717 -0.009
103.5019 0.249
103.5322 -0.170
103.5625 -0.016
103.5928 0.451
103.6231 -0.020
103.6533 0.083
103.6836 0.394
103.7139 0.237
103.7442 0.913
103.7745 0.183
103.8047 -0.078
103.8350 0.338
103.8653 0.390
103.8956 0.859
103.9258 0.547
103.9561 0.443
103.9864 0.340
104.0167 0.549
104.0470 0.030
104.0772 1.073
104.1075 0.918
104.1378 0.451
104.1681 0.557
104.1984 0.820
104.2286 0.301
104.2589 0.721
104.2892 0.671
104.3195 -0.107
104.3497 0.678
104.3800 0.004
104.4103 0.320
104.4406 0.480
104.4709 0.276
104.5011 0.645
104.5314 0.493
104.5617 0.446
104.5920 0.138
104.6223 0.351
104.6525 0.253
104.6828 0.050
104.7131 0.316
104.7434 -0.147
104.7736 0.224
104.8039 -0.239
104.8342 0.289
104.8645 0.295
104.8948 0.250
104.9250 0.153
104.9553 0.473
104.9856 -0.092
105.0159 0.020
105.0462 0.132
105.0764 0.036
105.1067 -0.060
105.1370 0.469
105.1673 -0.199
105.1975 -0.190
105.2278 -0.597
105.2581 0.245
105.2884 0.202
105.3187 0.264
105.3489 -0.404
105.3792 -0.081
105.4095 0.085
105.4398 0.095
105.4701 0.210
105.5003 0.065
105.5306 0.336
105.5609 -0.278
105.5912 0.254
105.6215 0.162
105.6517 0.382
105.6820 0.133
105.7123 -0.167
105.7426 -0.207
105.7728 0.203
105.8031 -0.169
105.8334 0.293
105.8637 -0.131
105.8940 -0.033
105.9242 0.325
105.9545 -0.254
105.9848 0.105
106.0151 0.204
106.0454 -0.114
106.0756 0.297
106.1059 0.500
106.1362 0.235
106.1665 0.178
106.1967 0.174
106.2270 0.065
106.2573 0.218
106.2876 0.162
106.3179 0.418
106.3481 -0.210
106.3784 -0.005
106.4087 -0.008
106.4390 0.198
106.4693 -0.117
106.4995 0.193
106.5298 -0.018
106.5601 -0.072
106.5904 0.135
106.6206 0.081
106.6509 -0.545
106.6812 -0.026
106.7115 -0.027
106.7418 0.076
106.7720 -0.029
106.8023 0.126
106.8326 0.074
106.8629 0.126
106.8932 0.230
106.9234 -0.239
106.9537 0.282
106.9840 0.023
107.0143 -0.185
107.0445 0.129
107.0748 0.182
107.1051 -0.025
107.1354 0.237
107.1657 -0.074
107.1959 0.137
107.2262 0.191
107.2565 -0.171
107.2868 0.404
107.3171 -0.114
107.3473 0.098
107.3776 0.153
107.4079 0.157
107.4382 0.369
107.4684 -0.305
107.4987 0.064
107.5290 0.120
107.5593 -0.344
107.5896 0.234
107.6198 -0.230
107.6501 0.244
107.6804 0.405
107.7107 -0.162
107.7410 -0.208
107.7712 -0.105
107.8015 -0.158
107.8318 0.362
107.8621 0.414
107.8923 -0.003
107.9226 -0.055
107.9529 0.153
107.9832 0.362
108.0135 -0.210
108.0437 0.311
108.0740 0.052
108.1043 0.261
108.1346 -0.102
108.1649 0.160
108.1951 0.162
108.2254 0.164
108.2557 -0.042
108.2860 -0.040
108.3163 0.067
108.3465 -0.138
108.3768 -0.135
108.4071 -0.132
108.4374 -0.076
108.4676 0.240
108.4979 -0.381
108.5282 0.352
108.5585 -0.008
108.5888 0.205
108.6190 0.053
108.6493 0.110
108.6796 0.063
108.7099 -0.036
108.7402 -0.030
108.7704 -0.233
108.8007 0.080
108.8310 0.080
108.8613 -0.233
108.8915 -0.028
108.9218 0.542
108.9521 -0.137
108.9824 1.110
109.0127 0.118
109.0429 0.116
109.0732 0.114
109.1035 -0.148
109.1338 -0.202
109.1641 -0.261
109.1943 0.305
109.2246 0.298
109.2549 -0.021
109.2852 -0.028
109.3154 0.018
109.3457 0.428
109.3760 0.423
109.4063 0.052
109.4366 -0.109
109.4668 -0.010
109.4971 -0.068
109.5274 0.032
109.5577 0.392
109.5880 0.127
109.6182 0.383
109.6485 0.327
109.6788 0.115
109.7091 0.163
109.7393 0.316
109.7696 0.782
109.7999 0.206
109.8302 0.255
109.8605 0.513
109.8907 -0.219
109.9210 0.196
109.9513 0.142
109.9816 0.401
110.0119 0.191
110.0421 0.450
110.0724 0.657
110.1027 0.396
110.1330 0.082
110.1632 0.134
110.1935 -0.179
110.2238 0.446
110.2541 0.082
110.2844 0.238
110.3146 0.655
110.3449 0.500
110.3752 0.396
110.4055 0.450
110.4358 0.191
110.4660 0.401
110.4963 0.142
110.5266 0.144
110.5569 0.771
110.5871 0.409
110.6174 0.724
110.6477 0.414
110.6780 0.157
110.7083 0.316
110.7385 0.163
110.7688 0.531
110.7991 0.119
110.8294 0.331
110.8597 0.179
110.8899 0.704
110.9202 0.448
110.9505 0.401
110.9808 0.823
111.0110 -0.057
111.0413 0.573
111.0716 -0.046
111.1019 0.012
111.1322 -0.190
111.1624 0.128
111.1927 -0.126
111.2230 0.142
111.2533 0.669
111.2836 -0.001
111.3138 -0.202
111.3441 0.008
111.3744 -0.042
111.4047 -0.093
111.4350 0.274
111.4652 0.016
111.4955 0.539
111.5258 0.437
111.5561 0.284
111.5863 0.287
111.6166 0.342
111.6469 -0.175
111.6772 0.037
111.7075 -0.272
111.7377 0.201
111.7680 -0.055
111.7983 -0.311
111.8286 0.103
111.8589 0.204
111.8891 0.045
111.9194 -0.166
111.9497 0.144
111.9800 0.455
112.0102 0.505
112.0405 0.503
112.0708 0.241
112.1011 0.084
112.1314 0.239
112.1616 0.134
112.1919 0.133
112.2222 -0.180
112.2525 -0.128
112.2828 0.081
112.3130 0.393
112.3433 0.029
112.3736 0.290
112.4039 -0.074
112.4341 0.604
112.4644 -0.124
112.4947 0.086
112.5250 0.400
112.5553 0.037
112.5855 0.092
112.6158 0.094
112.6461 0.305
112.6764 -0.057
112.7067 0.154
112.7369 -0.051
112.7672 0.421
112.7975 0.112
112.8278 0.636
112.8580 0.119
112.8883 0.331
112.9186 0.127
112.9489 -0.233
112.9792 -0.076
113.0094 0.133
113.0397 0.237
113.0700 0.030
113.1003 0.396
113.1306 0.032
113.1608 -0.123
113.1911 -0.017
113.2214 0.506
113.2517 -0.117
113.2819 0.198
113.3122 0.669
113.3425 0.463
113.3728 0.362
113.4031 0.001
113.4333 0.264
113.4636 0.164
113.4939 0.636
113.5242 0.640
113.5545 0.436
113.5847 -0.081
113.6150 0.080
113.6453 -0.071
113.6756 -0.066
113.7058 0.303
113.7361 0.205
113.7664 -0.259
113.7967 -0.168
113.8270 0.392
113.8572 0.275
113.8875 0.315
113.9178 0.198
113.9481 -0.022
113.9784 0.122
114.0086 0.631
114.0389 0.151
114.0692 0.400
114.0995 0.129
114.1298 0.118
114.1600 0.055
114.1903 -0.008
114.2206 0.242
114.2509 -0.028
114.2811 -0.038
114.3114 -0.204
114.3417 0.307
114.3720 0.038
114.4023 -0.180
114.4325 0.384
114.4628 0.011
114.4931 0.524
114.5234 0.047
114.5537 -0.170
114.5839 -0.073
114.6142 -0.029
114.6445 0.484
114.6748 0.165
114.7050 0.001
114.7353 -0.057
114.7656 -0.064
114.7959 0.086
114.8262 -0.233
114.8564 -0.034
114.8867 0.270
114.9170 0.001
114.9473 -0.007
114.9776 0.141
115.0078 0.133
115.0381 0.229
115.0684 0.430
115.0987 -0.411
115.1289 0.207
115.1592 0.096
115.1895 0.245
115.2198 0.291
115.2501 -0.132
115.2803 0.226
115.3106 0.324
115.3409 -0.046
115.3712 0.157
115.4015 0.047
115.4317 0.094
115.4620 0.193
115.4923 -0.072
115.5226 0.497
115.5528 0.128
115.5831 0.020
115.6134 0.536
115.6437 0.324
115.6740 -0.356
115.7042 0.057
115.7345 0.263
115.7648 0.103
115.7951 0.517
115.8254 0.307
115.8556 0.461
115.8859 -0.010
115.9162 0.717
115.9465 0.403
115.9767 0.558
116.0070 0.400
116.0373 1.181
116.0676 0.399
116.0979 1.179
116.1281 0.658
116.1584 0.814
116.1887 0.762
116.2190 0.919
116.2493 0.554
116.2795 1.493
116.3098 0.295
116.3401 0.974
116.3704 0.714
116.4006 0.664
116.4309 0.197
116.4612 0.876
116.4915 0.513
116.5218 1.036
116.5520 0.414
116.5823 0.625
116.6126 0.576
116.6429 0.579
116.6732 0.478
116.7034 0.429
116.7337 0.641
116.7640 0.229
116.7943 0.181
116.8245 0.237
116.8548 0.450
116.8851 0.090
116.9154 0.772
116.9457 0.621
116.9759 0.002
117.0062 0.372
117.0365 0.117
117.0668 0.488
117.0971 0.598
117.1273 0.240
117.1576 0.195
117.1879 0.410
117.2182 0.313
117.2485 0.372
117.2787 -0.142
117.3090 0.335
117.3393 -0.334
117.3696 0.195
117.3998 0.463
117.4301 -0.101
117.4604 0.324
117.4907 0.020
117.5210 0.082
117.5512 0.039
117.5815 0.257
117.6118 0.110
117.6421 0.120
117.6724 0.026
117.7026 0.349
117.7329 0.151
117.7632 -0.047
117.7935 -0.036
117.8237 -0.233
117.8540 0.075
117.8843 -0.137
117.9146 0.327
117.9449 0.167
117.9751 0.372
118.0054 -0.361
118.0357 0.469
118.0660 -0.107
118.0963 0.776
118.1265 0.148
118.1568 -0.063
118.1871 -0.117
118.2174 -0.380
118.2476 0.295
118.2779 0.033
118.3082 0.501
118.3385 0.395
118.3688 -0.387
118.3990 0.029
118.4293 0.237
118.4596 0.184
118.4899 -0.337
118.5202 -0.129
118.5504 0.080
118.5807 0.028
118.6110 -0.076
118.6413 0.342
118.6715 -0.386
118.7018 0.188
118.7321 0.450
118.7624 0.295
118.7927 -0.484
118.8229 0.247
118.8532 -0.116
118.8835 -0.009
118.9138 -0.215
118.9441 -0.159
118.9743 -0.052
119.0046 0.004
119.0349 0.007
119.0652 -0.301
119.0954 0.328
119.1257 -0.084
119.1560 -0.027
119.1863 0.186
119.2166 0.139
119.2468 0.404
119.2771 0.462
119.3074 0.259
119.3377 -0.308
119.3680 0.479
119.3982 0.538
119.4285 0.284
119.4588 0.030
119.4891 -0.119
119.5193 0.356
119.5496 0.051
119.5799 -0.202
119.6102 -0.078
119.6405 0.150
119.6707 0.014
119.7010 -0.122
119.7313 0.002
119.7616 -0.134
119.7919 0.304
119.8221 0.169
119.8524 0.086
119.8827 0.055
119.9130 -0.080
119.9433 -0.214
119.9735 -0.244
120.0038 0.000
