'Id: "" Comment: "" Operator: "Lab Manager" Anode: "Cu" Scantype: "Locked Coupled" TimePerStep: "19.2" X: "9999" Y: "9999" Z: "9999" 
10.0015 0.000
10.0318 -0.572
10.0620 0.179
10.0923 0.358
10.1226 -0.140
10.1529 0.247
10.1832 -0.147
10.2134 0.449
10.2437 0.160
10.2740 -0.024
10.3043 0.937
10.3346 -0.236
10.3648 0.621
10.3951 1.636
10.4254 0.046
10.4557 -0.345
10.4859 -0.183
10.5162 0.032
10.5465 0.195
10.5768 0.411
10.6071 0.314
10.6373 -0.355
10.6676 0.642
10.6979 0.807
10.7282 0.659
10.7585 1.240
10.7887 1.041
10.8190 0.581
10.8493 0.226
10.8796 -0.702
10.9098 -0.185
10.9401 -0.189
10.9704 0.745
11.0007 0.169
11.0310 0.270
11.0612 -0.305
11.0915 0.057
11.1218 0.419
11.1521 0.261
11.1824 0.416
11.2126 -0.055
11.2429 0.725
11.2732 -0.109
11.3035 -0.266
11.3337 0.046
11.3640 -0.006
11.3943 -0.267
11.4246 0.567
11.4549 0.411
11.4851 0.360
11.5154 0.256
11.5457 -0.211
11.5760 0.363
11.6063 0.781
11.6365 0.054
11.6668 0.421
11.6971 1.048
11.7274 0.842
11.7577 0.116
11.7879 0.275
11.8182 1.008
11.8485 -0.551
11.8788 0.286
11.9090 0.342
11.9393 -0.018
11.9696 0.663
11.9999 0.512
12.0302 0.048
12.0604 -0.364
12.0907 0.003
12.1210 0.213
12.1513 -0.254
12.1816 0.373
12.2118 0.116
12.2421 0.275
12.2724 -0.035
12.3027 0.073
12.3329 0.076
12.3632 0.444
12.3935 -0.437
12.4238 0.505
12.4541 -0.012
12.4843 -0.163
12.5146 -0.263
12.5449 0.576
12.5752 0.165
12.6055 -0.038
12.6357 0.593
12.6660 0.130
12.6963 -0.176
12.7266 0.873
12.7568 -0.162
12.7871 -0.416
12.8174 0.215
12.8477 -0.143
12.8780 0.280
12.9082 0.443
12.9385 -0.384
12.9688 0.352
12.9991 -0.005
13.0294 -0.206
13.0596 0.167
13.0899 -0.138
13.1202 0.079
13.1505 -0.485
13.1807 0.200
13.2110 0.001
13.2413 -0.146
13.2716 0.384
13.3019 -0.127
13.3321 -0.273
13.3624 0.623
13.3927 -0.200
13.4230 0.227
13.4533 0.707
13.4835 -0.324
13.5138 -0.312
13.5441 0.105
13.5744 0.262
13.6046 -0.050
13.6349 0.160
13.6652 -0.047
13.6955 0.007
13.7258 0.113
13.7560 0.219
13.7863 -0.455
13.8166 -0.088
13.8469 0.175
13.8772 0.283
13.9074 0.182
13.9377 0.654
13.9680 0.502
13.9983 -0.067
14.0285 0.250
14.0588 0.047
14.0891 -0.209
14.1194 -0.204
14.1497 -0.355
14.1799 0.276
14.2102 -0.187
14.2405 -0.546
14.2708 0.236
14.3011 0.029
14.3313 0.915
14.3616 0.031
14.3919 -0.020
14.4222 0.972
14.4524 0.036
14.4827 0.039
14.5130 0.718
14.5433 0.252
14.5736 0.463
14.6038 0.623
14.6341 1.095
14.6644 0.734
14.6947 0.269
14.7250 -0.351
14.7552 -0.139
14.7855 0.491
14.8158 -0.077
14.8461 0.501
14.8764 0.611
14.9066 -0.634
14.9369 -0.107
14.9672 0.263
14.9975 -0.043
15.0277 0.068
15.0580 1.116
15.0883 0.915
15.1186 0.037
15.1489 0.357
15.1791 0.104
15.2094 0.946
15.2397 0.277
15.2700 -0.027
15.3003 0.398
15.3305 0.043
15.3608 0.208
15.3911 0.478
15.4214 0.175
15.4516 -0.180
15.4819 -0.430
15.5122 0.726
15.5425 0.477
15.5728 0.175
15.6030 -0.387
15.6333 0.093
15.6636 0.105
15.6939 0.273
15.7242 -0.340
15.7544 0.297
15.7847 0.154
15.8150 -0.042
15.8453 0.388
15.8755 0.036
15.9058 0.467
15.9361 -0.353
15.9664 0.078
15.9967 0.300
16.0269 0.679
16.0572 0.590
16.0875 0.084
16.1178 -0.266
16.1481 -0.272
16.1783 0.346
16.2086 0.131
16.2389 -0.292
16.2692 0.744
16.2994 0.686
16.3297 0.369
16.3600 0.259
16.3903 0.254
16.4206 0.354
16.4508 -0.224
16.4811 -0.072
16.5114 -0.076
16.5417 0.494
16.5720 -0.291
16.6022 0.226
16.6325 0.744
16.6628 0.221
16.6931 -0.303
16.7233 -0.149
16.7536 -0.568
16.7839 0.576
16.8142 -0.363
16.8445 0.261
16.8747 0.051
16.9050 0.311
16.9353 0.206
16.9656 0.310
16.9959 -0.211
17.0261 0.779
17.0564 0.466
17.0867 -0.054
17.1170 0.468
17.1472 -0.364
17.1775 -0.051
17.2078 0.159
17.2381 0.005
17.2684 0.527
17.2986 -0.147
17.3289 0.220
17.3592 -0.090
17.3895 -0.035
17.4198 0.541
17.4500 0.128
17.4803 -0.494
17.5106 -0.079
17.5409 0.647
17.5712 0.437
17.6014 -0.138
17.6317 0.434
17.6620 0.432
17.6923 0.275
17.7225 -0.039
17.7528 -0.196
17.7831 0.064
17.8134 0.012
17.8437 0.637
17.8739 -0.248
17.9042 0.742
17.9345 -0.247
17.9648 0.119
17.9951 -0.140
18.0253 0.226
18.0556 -0.241
18.0859 0.282
18.1162 0.076
18.1464 -0.078
18.1767 0.081
18.2070 0.292
18.2373 0.191
18.2676 -0.222
18.2978 -0.271
18.3281 -0.066
18.3584 -0.279
18.3887 0.603
18.4190 -0.077
18.4492 0.388
18.4795 -0.344
18.5098 -0.034
18.5401 -0.037
18.5703 -0.143
18.6006 0.115
18.6309 0.218
18.6612 0.737
18.6915 0.163
18.7217 -0.098
18.7520 0.005
18.7823 0.004
18.8126 -0.256
18.8429 -0.100
18.8731 -0.204
18.9034 -0.048
18.9337 0.526
18.9640 -0.098
18.9942 -0.097
19.0245 0.217
19.0548 0.375
19.0851 0.220
19.1154 -0.246
19.1456 -0.036
19.1759 0.488
19.2062 -0.030
19.2365 0.337
19.2668 0.341
19.2970 -0.073
19.3273 0.556
19.3576 -0.221
19.3879 0.512
19.4181 0.204
19.4484 0.105
19.4787 0.006
19.5090 -0.093
19.5393 0.381
19.5695 -0.134
19.5998 0.288
19.6301 -0.747
19.6604 -0.064
19.6907 -0.266
19.7209 0.047
19.7512 0.151
19.7815 -0.057
19.8118 -0.057
19.8420 -0.264
19.8723 0.153
19.9026 0.311
19.9329 0.156
19.9632 -0.103
19.9934 0.160
20.0237 0.162
20.0540 0.685
20.0843 0.480
20.1146 0.014
20.1448 -0.087
20.1751 0.385
20.2054 0.180
20.2357 0.288
20.2659 0.240
20.2962 -0.120
20.3265 -0.168
20.3568 0.150
20.3871 -0.418
20.4173 0.473
20.4476 -0.095
20.4779 0.328
20.5082 -0.083
20.5385 -0.493
20.5687 0.138
20.5990 0.404
20.6293 0.463
20.6596 0.001
20.6899 0.008
20.7201 1.526
20.7504 0.231
20.7807 0.187
20.8110 0.091
20.8412 -0.370
20.8715 0.316
20.9018 -0.040
20.9321 0.073
20.9624 0.499
20.9926 -0.065
21.0229 -0.211
21.0532 0.580
21.0835 0.486
21.1138 0.913
21.1440 0.142
21.1743 0.570
21.2046 0.008
21.2349 0.176
21.2651 0.343
21.2954 0.147
21.3257 0.315
21.3560 -0.037
21.3863 -0.233
21.4165 0.072
21.4468 0.637
21.4771 0.317
21.5074 0.362
21.5377 0.823
21.5679 0.348
21.5982 0.289
21.6285 0.543
21.6588 0.277
21.6890 0.323
21.7193 0.473
21.7496 -0.157
21.7799 0.255
21.8102 0.250
21.8404 0.558
21.8707 0.501
21.9010 0.497
21.9313 0.076
21.9616 0.125
21.9918 0.694
22.0221 -0.038
22.0524 0.063
22.0827 0.008
22.1129 -0.151
22.1432 0.003
22.1735 -0.311
22.2038 0.051
22.2341 0.049
22.2643 0.255
22.2946 -0.319
22.3249 0.148
22.3552 -0.062
22.3855 -0.011
22.4157 -0.115
22.4460 -0.220
22.4763 0.040
22.5066 -0.168
22.5368 0.196
22.5671 -0.116
22.5974 0.145
22.6277 0.094
22.6580 -0.582
22.6882 -0.007
22.7185 -0.110
22.7488 -0.108
22.7791 0.363
22.8094 -0.051
22.8396 0.108
22.8699 -0.358
22.9002 0.166
22.9305 -0.196
22.9607 0.329
22.9910 -0.136
23.0213 0.076
23.0516 0.185
23.0819 0.085
23.1121 0.090
23.1424 -0.166
23.1727 -0.004
23.2030 0.262
23.2333 -0.045
23.2635 -0.143
23.2938 0.071
23.3241 -0.079
23.3544 0.032
23.3846 0.039
23.4149 0.254
23.4452 -0.467
23.4755 -0.215
23.5058 0.142
23.5360 -0.073
23.5663 0.180
23.5966 -0.191
23.6269 0.063
23.6572 0.317
23.6874 0.103
23.7177 -0.164
23.7480 0.195
23.7783 0.190
23.8086 -0.180
23.8388 0.024
23.8691 0.644
23.8994 0.744
23.9297 0.115
23.9599 0.215
23.9902 0.003
24.0205 0.156
24.0508 -0.472
24.0811 0.254
24.1113 -0.165
24.1416 0.562
24.1719 0.091
24.2022 0.349
24.2325 -0.122
24.2627 0.398
24.2930 0.188
24.3233 0.083
24.3536 -0.178
24.3838 0.082
24.4141 -0.075
24.4444 0.394
24.4747 -0.075
24.5050 -0.074
24.5352 -0.126
24.5655 0.917
24.5958 0.449
24.6261 -0.174
24.6564 -0.017
24.6866 0.089
24.7169 -0.117
24.7472 0.146
24.7775 -0.112
24.8077 0.203
24.8380 -0.002
24.8683 -0.259
24.8986 0.049
24.9289 0.200
24.9591 -0.221
24.9894 0.296
25.0197 -0.177
25.0500 -0.233
25.0803 0.181
25.1105 0.073
25.1408 0.070
25.1711 0.328
25.2014 0.065
25.2316 -0.250
25.2619 -0.201
25.2922 -0.048
25.3225 0.678
25.3528 0.363
25.3830 -0.004
25.4133 0.723
25.4436 -0.529
25.4739 0.458
25.5042 0.509
25.5344 0.508
25.5647 0.871
25.5950 0.610
25.6253 0.401
25.6555 1.078
25.6858 1.078
25.7161 1.495
25.7464 0.662
25.7767 1.495
25.8069 2.069
25.8372 0.872
25.8675 0.978
25.8978 0.823
25.9281 0.304
25.9583 0.879
25.9886 0.777
26.0189 0.676
26.0492 0.835
26.0794 0.004
26.1097 0.112
26.1400 0.376
26.1703 0.744
26.2006 -0.137
26.2308 0.127
26.2611 -0.389
26.2914 -0.074
26.3217 0.241
26.3520 0.348
26.3822 -0.014
26.4125 -0.167
26.4428 0.618
26.4731 -0.160
26.5034 -0.156
26.5336 0.161
26.5639 0.113
26.5942 -0.715
26.6245 0.331
26.6547 0.128
26.6850 -0.596
26.7153 0.400
26.7456 -0.636
26.7759 0.099
26.8061 -0.311
26.8364 -0.050
26.8667 0.421
26.8970 0.162
26.9273 -0.409
26.9575 0.218
26.9878 0.376
27.0181 0.379
27.0484 0.590
27.0786 0.437
27.1089 0.284
27.1392 -0.077
27.1695 0.396
27.1998 0.400
27.2300 0.560
27.2603 -0.060
27.2906 0.153
27.3209 0.262
27.3512 0.371
27.3814 0.116
27.4117 -0.086
27.4420 0.649
27.4723 -0.179
27.5025 0.297
27.5328 0.460
27.5631 0.883
27.5934 0.526
27.6237 0.168
27.6539 0.905
27.6842 0.288
27.7145 0.088
27.7448 0.773
27.7751 0.573
27.8053 0.218
27.8356 -0.190
27.8659 -0.389
27.8962 0.219
27.9264 0.410
27.9567 0.445
27.9870 0.585
28.0173 0.100
28.0476 0.240
28.0778 0.277
28.1081 0.209
28.1384 0.350
28.1687 0.387
28.1990 -0.253
28.2292 0.566
28.2595 0.135
28.2898 0.329
28.3201 0.107
28.3503 0.198
28.3806 -0.284
28.4109 0.119
28.4412 -0.102
28.4715 0.354
28.5017 -0.231
28.5320 -0.087
28.5623 0.317
28.5926 0.150
28.6229 0.138
28.6531 0.491
28.6834 0.220
28.7137 0.001
28.7440 0.199
28.7742 0.241
28.8045 0.022
28.8348 0.325
28.8651 -0.153
28.8954 -0.215
28.9256 -0.120
28.9559 0.184
28.9862 -0.137
29.0165 -0.406
29.0468 0.524
29.0770 -0.266
29.1073 -0.221
29.1376 0.240
29.1679 0.233
29.1981 -0.034
29.2284 -0.093
29.2587 0.421
29.2890 0.780
29.3193 0.930
29.3495 0.404
29.3798 0.711
29.4101 0.497
29.4404 1.273
29.4707 0.591
29.5009 1.004
29.5312 0.530
29.5615 0.943
29.5918 0.887
29.6221 0.779
29.6523 0.724
29.6826 0.461
29.7129 0.354
29.7432 0.559
29.7734 0.505
29.8037 -0.279
29.8340 -0.280
29.8643 -0.126
29.8946 0.081
29.9248 -0.076
29.9551 -0.025
29.9854 0.755
30.0157 -0.130
30.0460 -0.287
30.0762 0.807
30.1065 0.234
30.1368 0.079
30.1671 -0.285
30.1973 -0.039
30.2276 0.364
30.2579 -0.118
30.2882 0.233
30.3185 0.376
30.3487 -0.157
30.3790 -0.118
30.4093 0.287
30.4396 -0.090
30.4699 0.002
30.5001 0.095
30.5304 0.188
30.5607 0.229
30.5910 0.009
30.6212 -0.210
30.6515 -0.012
30.6818 -0.282
30.7121 0.437
30.7424 0.271
30.7726 0.887
30.8029 0.773
30.8332 0.816
30.8635 0.495
30.8938 0.955
30.9240 0.478
30.9543 1.304
30.9846 1.192
31.0149 1.549
31.0451 0.916
31.0754 2.003
31.1057 1.892
31.1360 2.719
31.1663 2.713
31.1965 3.436
31.2268 3.013
31.2571 3.893
31.2874 5.346
31.3177 5.705
31.3479 6.117
31.3782 6.998
31.4085 8.139
31.4388 10.947
31.4690 12.141
31.4993 16.252
31.5296 19.790
31.5599 20.673
31.5902 22.076
31.6204 23.427
31.6507 22.383
31.6810 20.975
31.7113 18.473
31.7416 12.950
31.7718 11.855
31.8021 10.030
31.8324 9.248
31.8627 5.497
31.8929 6.122
31.9232 3.830
31.9535 4.819
31.9838 4.767
32.0141 3.986
32.0443 2.320
32.0746 2.165
32.1049 2.218
32.1352 1.177
32.1655 2.012
32.1957 1.285
32.2260 1.652
32.2563 0.716
32.2866 1.188
32.3169 0.513
32.3471 1.297
32.3774 0.936
32.4077 0.731
32.4380 0.058
32.4682 0.062
32.4985 0.326
32.5288 0.018
32.5591 0.075
32.5894 -0.233
32.6196 0.814
32.6499 0.924
32.6802 0.669
32.7105 -0.002
32.7408 0.004
32.7710 0.062
32.8013 0.121
32.8316 0.284
32.8619 0.343
32.8921 -0.431
32.9224 -0.215
32.9527 -0.676
32.9830 0.270
33.0133 0.122
33.0435 -0.337
33.0738 -0.070
33.1041 0.093
33.1344 -0.212
33.1647 0.264
33.1949 0.428
33.2252 0.332
33.2555 -0.389
33.2858 -0.299
33.3160 -0.105
33.3463 0.559
33.3766 0.597
33.4069 -0.249
33.4372 -0.002
33.4674 -0.535
33.4977 0.390
33.5280 -0.247
33.5583 -0.155
33.5886 -0.063
33.6188 0.447
33.6491 0.852
33.6794 0.425
33.7097 0.622
33.7399 0.299
33.7702 0.497
33.8005 0.800
33.8308 0.425
33.8611 0.988
33.8913 1.292
33.9216 1.855
33.9519 1.951
33.9822 1.578
34.0125 2.455
34.0427 3.592
34.0730 4.574
34.1033 6.806
34.1336 9.299
34.1638 14.083
34.1941 19.597
34.2244 24.851
34.2547 23.334
34.2850 21.348
34.3152 17.436
34.3455 14.930
34.3758 9.977
34.4061 7.888
34.4364 5.696
34.4666 2.983
34.4969 2.457
34.5272 2.557
34.5575 1.876
34.5877 1.039
34.6180 1.400
34.6483 0.719
34.6786 1.393
34.7089 0.505
34.7391 0.919
34.7694 -0.229
34.7997 1.123
34.8300 0.444
34.8603 0.703
34.8905 0.493
34.9208 0.231
34.9511 0.022
34.9814 0.230
35.0116 0.073
35.0419 0.750
35.0722 0.385
35.1025 0.437
35.1328 0.282
35.1630 0.907
35.1933 1.012
35.2236 0.649
35.2539 1.276
35.2842 0.704
35.3144 1.071
35.3447 1.333
35.3750 0.659
35.4053 1.234
35.4356 1.758
35.4658 1.501
35.4961 2.129
35.5264 1.664
35.5567 2.084
35.5869 2.453
35.6172 3.343
35.6475 3.972
35.6778 3.456
35.7081 4.607
35.7383 5.602
35.7686 4.618
35.7989 7.123
35.8292 7.859
35.8595 8.073
35.8897 9.069
35.9200 12.045
35.9503 15.749
35.9806 17.684
36.0108 20.399
36.0411 22.855
36.0714 27.654
36.1017 26.621
36.1320 30.379
36.1622 26.638
36.1925 21.543
36.2228 20.562
36.2531 18.280
36.2834 15.321
36.3136 12.518
36.3439 10.757
36.3742 8.528
36.4045 7.653
36.4347 6.518
36.4650 5.748
36.4953 5.342
36.5256 4.937
36.5559 4.480
36.5861 1.471
36.6164 2.629
36.6467 2.798
36.6770 1.560
36.7073 1.625
36.7375 2.003
36.7678 2.016
36.7981 1.353
36.8284 0.794
36.8586 0.756
36.8889 1.239
36.9192 1.202
36.9495 0.539
36.9798 0.815
37.0100 0.934
37.0403 0.689
37.0706 0.028
37.1009 0.409
37.1312 0.477
37.1614 0.285
37.1917 0.562
37.2220 0.058
37.2523 -0.289
37.2825 0.614
37.3128 0.319
37.3431 -0.028
37.3734 0.459
37.4037 0.217
37.4339 -0.076
37.4642 0.672
37.4945 0.066
37.5248 0.241
37.5551 0.157
37.5853 0.489
37.6156 -0.376
37.6459 -0.148
37.6762 0.238
37.7064 0.154
37.7367 0.175
37.7670 0.249
37.7973 -0.199
37.8276 0.292
37.8578 -0.519
37.8881 -0.244
37.9184 0.176
37.9487 -0.081
37.9790 0.288
38.0092 -0.125
38.0395 0.036
38.0698 0.457
38.1001 -0.006
38.1304 0.103
38.1606 0.004
38.1909 0.062
38.2212 -0.297
38.2515 0.022
38.2817 -0.128
38.3120 0.035
38.3423 0.458
38.3726 0.101
38.4029 0.108
38.4331 0.585
38.4634 -0.397
38.4937 -0.233
38.5240 0.241
38.5543 -0.118
38.5845 0.460
38.6148 0.153
38.6451 0.055
38.6754 -0.460
38.7056 0.693
38.7359 0.022
38.7662 0.238
38.7965 -0.172
38.8268 0.356
38.8570 -0.053
38.8873 0.580
38.9176 -0.297
38.9479 0.232
38.9782 -0.176
39.0084 0.354
39.0387 0.050
39.0690 -0.096
39.0993 -0.399
39.1295 0.183
39.1598 0.193
39.1901 -0.005
39.2204 0.162
39.2507 -0.088
39.2809 -0.337
39.3112 0.128
39.3415 0.020
39.3718 0.069
39.4021 -0.091
39.4323 -0.198
39.4626 0.112
39.4929 -0.047
39.5232 0.107
39.5534 -0.155
39.5837 0.208
39.6140 0.154
39.6443 0.465
39.6746 0.516
39.7048 -0.005
39.7351 -0.006
39.7654 0.098
39.7957 -0.215
39.8260 -0.162
39.8562 0.152
39.8865 -0.107
39.9168 -0.002
39.9471 -0.208
39.9773 0.263
40.0076 0.213
40.0379 -0.305
40.0682 0.062
40.0985 0.065
40.1287 0.172
40.1590 0.228
40.1893 -0.081
40.2196 -0.129
40.2499 -0.125
40.2801 -0.016
40.3104 0.093
40.3407 -0.111
40.3710 0.050
40.4012 0.420
40.4315 -0.043
40.4618 -0.141
40.4921 -0.187
40.5224 0.653
40.5526 -0.122
40.5829 -0.167
40.6132 -0.004
40.6435 -0.049
40.6738 -0.041
40.7040 0.383
40.7343 0.235
40.7646 0.087
40.7949 0.252
40.8251 0.313
40.8554 0.165
40.8857 -0.086
40.9160 -0.285
40.9463 0.130
40.9765 -0.133
41.0068 0.230
41.0371 -0.136
41.0674 0.070
41.0977 -0.035
41.1279 -0.140
41.1582 -0.036
41.1885 0.328
41.2188 0.015
41.2491 0.432
41.2793 0.692
41.3096 -0.088
41.3399 0.329
41.3702 -0.139
41.4004 0.019
41.4307 0.176
41.4610 0.022
41.4913 0.076
41.5216 -0.130
41.5518 0.185
41.5821 0.083
41.6124 0.138
41.6427 0.089
41.6730 0.145
41.7032 0.409
41.7335 0.100
41.7638 0.052
41.7941 0.317
41.8243 -0.199
41.8546 0.014
41.8849 0.175
41.9152 -0.028
41.9455 0.134
41.9757 -0.017
42.0060 -0.063
42.0363 -0.109
42.0666 0.054
42.0969 -0.043
42.1271 -0.245
42.1574 0.231
42.1877 -0.022
42.2180 0.142
42.2482 0.202
42.2785 -0.050
42.3088 0.375
42.3391 -0.085
42.3694 -0.232
42.3996 0.126
42.4299 -0.036
42.4602 0.219
42.4905 0.421
42.5208 0.000
42.5510 0.307
42.5813 -0.114
42.6116 0.350
42.6419 0.137
42.6721 -0.127
42.7024 -0.131
42.7327 -0.030
42.7630 0.227
42.7933 0.120
42.8235 0.221
42.8538 0.062
42.8841 -0.096
42.9144 0.371
42.9447 0.265
42.9749 -0.362
43.0052 0.522
43.0355 0.000
43.0658 0.312
43.0960 -0.418
43.1263 0.467
43.1566 -0.210
43.1869 0.363
43.2172 -0.210
43.2474 0.155
43.2777 -0.157
43.3080 -0.156
43.3383 -0.206
43.3686 0.206
43.3988 -0.109
43.4291 0.460
43.4594 0.145
43.4897 0.142
43.5199 0.087
43.5502 0.085
43.5805 0.344
43.6108 0.081
43.6411 -0.233
43.6713 -0.028
43.7016 0.021
43.7319 0.330
43.7622 -0.142
43.7925 0.272
43.8227 0.218
43.8530 0.320
43.8833 0.161
43.9136 -0.153
43.9439 -0.207
43.9741 0.203
44.0044 -0.064
44.0347 0.086
44.0650 -0.233
44.0952 0.074
44.1255 0.172
44.1558 -0.302
44.1861 0.109
44.2164 -0.208
44.2466 -0.005
44.2769 -0.062
44.3072 0.143
44.3375 0.191
44.3678 0.291
44.3980 -0.338
44.4283 -0.185
44.4586 0.177
44.4889 0.330
44.5191 -0.037
44.5494 0.481
44.5797 -0.198
44.6100 -0.148
44.6403 -0.202
44.6705 0.057
44.7008 0.056
44.7311 0.159
44.7614 -0.154
44.7917 -0.102
44.8219 0.001
44.8522 -0.051
44.8825 -0.207
44.9128 0.105
44.9430 0.053
44.9733 -0.051
45.0036 0.053
45.0339 -0.155
45.0642 0.262
45.0944 -0.205
45.1247 0.265
45.1550 0.266
45.1853 -0.097
45.2156 -0.095
45.2458 0.011
45.2761 0.065
45.3064 0.381
45.3367 -0.137
45.3669 0.230
45.3972 0.233
45.4275 0.029
45.4578 -0.384
45.4881 0.141
45.5183 -0.011
45.5486 0.149
45.5789 0.050
45.6092 0.003
45.6395 -0.148
45.6697 -0.195
45.7000 -0.103
45.7303 0.511
45.7606 0.031
45.7908 0.332
45.8211 -0.304
45.8514 0.207
45.8817 0.040
45.9120 0.447
45.9422 0.333
45.9725 0.167
46.0028 0.001
46.0331 -0.060
46.0634 0.035
46.0936 0.339
46.1239 -0.034
46.1542 0.218
46.1845 0.106
46.2147 -0.006
46.2450 0.299
46.2753 0.031
46.3056 0.389
46.3359 0.434
46.3661 0.480
46.3964 0.421
46.4267 -0.054
46.4570 0.097
46.4873 0.195
46.5175 0.086
46.5478 0.393
46.5781 -0.132
46.6084 0.123
46.6386 -0.037
46.6689 0.323
46.6992 0.475
46.7295 0.159
46.7598 0.364
46.7900 0.517
46.8203 0.462
46.8506 0.772
46.8809 0.405
46.9112 0.611
46.9414 0.765
46.9717 0.659
47.0020 1.231
47.0323 1.021
47.0626 1.437
47.0928 0.967
47.1231 1.956
47.1534 1.748
47.1837 2.008
47.2139 2.164
47.2442 2.998
47.2745 3.051
47.3048 2.895
47.3351 2.688
47.3653 2.585
47.3956 3.629
47.4259 2.797
47.4562 2.382
47.4865 2.072
47.5167 2.283
47.5470 2.442
47.5773 1.664
47.6076 2.084
47.6378 2.087
47.6681 1.466
47.6984 1.470
47.7287 1.526
47.7590 0.854
47.7892 1.119
47.8195 1.645
47.8498 1.181
47.8801 0.666
47.9104 0.932
47.9406 0.417
47.9709 0.215
48.0012 0.898
48.0315 0.332
48.0617 0.443
48.0920 0.294
48.1223 0.405
48.1526 0.465
48.1829 0.212
48.2131 0.741
48.2434 0.645
48.2737 0.341
48.3040 0.350
48.3343 0.463
48.3645 0.316
48.3948 -0.143
48.4251 0.439
48.4554 0.345
48.4856 0.772
48.5159 0.314
48.5462 0.377
48.5765 -0.081
48.6068 0.086
48.6370 0.410
48.6673 0.005
48.6976 -0.087
48.7279 0.341
48.7582 0.198
48.7884 -0.311
48.8187 -0.161
48.8490 0.041
48.8793 -0.018
48.9095 0.184
48.9398 0.283
48.9701 0.121
49.0004 0.220
49.0307 0.111
49.0609 0.366
49.0912 0.361
49.1215 0.253
49.1518 0.093
49.1821 0.505
49.2123 0.137
49.2426 0.029
49.2729 0.495
49.3032 0.023
49.3334 0.125
49.3637 0.122
49.3940 -0.088
49.4243 0.170
49.4546 -0.144
49.4848 0.167
49.5151 0.166
49.5454 -0.408
49.5757 0.112
49.6060 -0.045
49.6362 -0.045
49.6665 -0.202
49.6968 -0.046
49.7271 0.319
49.7574 0.267
49.7876 -0.149
49.8179 0.060
49.8482 0.321
49.8785 -0.199
49.9087 0.271
49.9390 0.117
49.9693 0.119
49.9996 0.069
50.0299 0.175
50.0601 -0.031
50.0904 0.128
50.1207 0.079
50.1510 -0.178
50.1813 0.190
50.2115 0.090
50.2418 -0.166
50.2721 0.202
50.3024 0.051
50.3326 -0.257
50.3629 0.060
50.3932 -0.195
50.4235 -0.409
50.4538 0.315
50.4840 0.310
50.5143 0.045
50.5446 0.353
50.5749 0.192
50.6052 0.605
50.6354 0.184
50.6657 0.024
50.6960 0.177
50.7263 -0.243
50.7565 0.171
50.7868 0.168
50.8171 0.218
50.8474 0.320
50.8777 -0.151
50.9079 -0.100
50.9382 -0.154
50.9685 0.209
50.9988 0.000
51.0291 0.260
51.0593 -0.053
51.0896 0.103
51.1199 -0.054
51.1502 0.259
51.1804 -0.261
51.2107 0.104
51.2410 -0.104
51.2713 -0.259
51.3016 0.153
51.3318 -0.424
51.3621 -0.063
51.3924 -0.171
51.4227 0.242
51.4530 -0.178
51.4832 0.132
51.5135 0.233
51.5438 -0.134
51.5741 -0.188
51.6043 0.383
51.6346 0.225
51.6649 0.015
51.6952 0.066
51.7255 -0.092
51.7557 -0.040
51.7860 -0.093
51.8163 -0.041
51.8466 0.219
51.8769 0.011
51.9071 0.011
51.9374 0.012
51.9677 0.117
51.9980 -0.299
52.0282 0.171
52.0585 0.537
52.0888 0.383
52.1191 -0.032
52.1494 0.283
52.1796 -0.027
52.2099 0.080
52.2402 0.135
52.2705 0.294
52.3008 0.090
52.3310 0.041
52.3613 0.045
52.3916 0.049
52.4219 -0.363
52.4521 0.001
52.4824 0.312
52.5127 0.052
52.5430 0.416
52.5733 0.520
52.6035 0.312
52.6338 0.469
52.6641 -0.208
52.6944 0.054
52.7247 0.107
52.7549 0.108
52.7852 0.058
52.8155 0.320
52.8458 -0.042
52.8761 0.221
52.9063 0.275
52.9366 -0.243
52.9669 0.229
52.9972 0.232
53.0274 -0.441
53.0577 -0.178
53.0880 -0.332
53.1183 0.401
53.1486 0.039
53.1788 0.199
53.2091 0.046
53.2394 0.050
53.2697 -0.050
53.3000 -0.150
53.3302 0.063
53.3605 -0.088
53.3908 0.073
53.4211 0.235
53.4513 -0.124
53.4816 0.090
53.5119 0.617
53.5422 -0.210
53.5725 0.057
53.6027 0.585
53.6330 0.071
53.6633 0.339
53.6936 0.190
53.7239 0.510
53.7541 -0.107
53.7844 0.110
53.8147 0.691
53.8450 0.231
53.8752 0.344
53.9055 0.145
53.9358 0.155
53.9661 0.060
53.9964 0.122
54.0266 -0.180
54.0569 -0.091
54.0872 0.154
54.1175 0.087
54.1478 -0.083
54.1780 0.059
54.2083 0.253
54.2386 0.448
54.2689 0.122
54.2991 0.317
54.3294 0.512
54.3597 -0.125
54.3900 0.383
54.4203 0.006
54.4505 0.723
54.4808 0.191
54.5111 -0.133
54.5414 -0.041
54.5717 0.313
54.6019 -0.271
54.6322 -0.073
54.6625 0.229
54.6928 0.115
54.7230 0.209
54.7533 -0.113
54.7836 0.034
54.8139 0.285
54.8442 -0.193
54.8744 0.111
54.9047 -0.314
54.9350 0.563
54.9653 -0.226
54.9956 -0.077
55.0258 0.019
55.0561 -0.092
55.0864 -0.099
55.1167 0.207
55.1469 -0.008
55.1772 0.142
55.2075 -0.020
55.2378 0.182
55.2681 0.333
55.2983 0.119
55.3286 0.270
55.3589 0.109
55.3892 -0.260
55.4195 0.308
55.4497 -0.164
55.4800 0.196
55.5103 -0.172
55.5406 0.345
55.5709 0.342
55.6011 0.287
55.6314 0.493
55.6617 0.490
55.6920 -0.033
55.7222 -0.035
55.7525 0.016
55.7828 0.535
55.8131 0.065
55.8434 0.845
55.8736 0.532
55.9039 0.375
55.9342 0.375
55.9645 0.896
55.9948 0.896
56.0250 1.052
56.0553 1.991
56.0856 1.575
56.1159 1.784
56.1461 1.057
56.1764 2.152
56.2067 1.997
56.2370 3.145
56.2673 3.252
56.2975 3.775
56.3278 4.195
56.3581 5.604
56.3884 4.722
56.4187 6.600
56.4489 7.385
56.4792 6.921
56.5095 7.029
56.5398 5.054
56.5700 5.788
56.6003 5.533
56.6306 4.861
56.6609 3.877
56.6912 3.518
56.7214 2.690
56.7517 2.176
56.7820 1.922
56.8123 2.032
56.8426 1.466
56.8728 1.890
56.9031 0.908
56.9334 0.655
56.9637 0.403
56.9939 0.671
57.0242 0.367
57.0545 0.427
57.0848 0.540
57.1151 0.862
57.1453 -0.014
57.1756 0.256
57.2059 0.578
57.2362 0.327
57.2665 0.338
57.2967 0.140
57.3270 -0.058
57.3573 0.474
57.3876 -0.244
57.4178 -0.233
57.4481 0.290
57.4784 0.136
57.5087 0.034
57.5390 0.089
57.5692 0.092
57.5995 0.668
57.6298 -0.162
57.6601 0.050
57.6904 -0.311
57.7206 -0.001
57.7509 -0.108
57.7812 -0.058
57.8115 0.097
57.8417 0.199
57.8720 -0.063
57.9023 -0.116
57.9326 0.247
57.9629 0.143
57.9931 -0.379
58.0234 0.090
58.0537 -0.171
58.0840 0.142
58.1143 -0.118
58.1445 0.039
58.1748 -0.117
58.2051 -0.063
58.2354 -0.010
58.2656 0.096
58.2959 -0.110
58.3262 -0.004
58.3565 -0.106
58.3868 0.105
58.4170 0.004
58.4473 0.007
58.4776 -0.146
58.5079 -0.195
58.5382 -0.143
58.5684 -0.039
58.5987 -0.143
58.6290 0.014
58.6593 0.067
58.6896 0.067
58.7198 -0.244
58.7501 0.122
58.7804 -0.137
58.8107 -0.031
58.8409 0.232
58.8712 0.078
58.9015 0.341
58.9318 0.083
58.9621 -0.018
58.9923 0.402
59.0226 0.197
59.0529 0.045
59.0832 -0.003
59.1135 -0.103
59.1437 0.006
59.1740 0.479
59.2043 0.172
59.2346 -0.188
59.2648 -0.188
59.2951 -0.032
59.3254 0.123
59.3557 -0.137
59.3860 -0.033
59.4162 -0.033
59.4465 0.123
59.4768 -0.032
59.5071 -0.188
59.5374 -0.188
59.5676 0.015
59.5979 0.062
59.6282 0.369
59.6585 0.625
59.6887 0.100
59.7190 0.095
59.7493 -0.013
59.7796 0.192
59.8099 0.084
59.8401 -0.076
59.8704 0.077
59.9007 -0.082
59.9310 -0.136
59.9613 -0.139
59.9915 -0.037
60.0218 -0.143
60.0521 -0.092
60.0824 0.010
60.1126 -0.355
60.1429 0.112
60.1732 -0.045
60.2035 0.007
60.2338 0.371
60.2640 0.059
60.2943 0.476
60.3246 -0.201
60.3549 -0.044
60.3852 -0.199
60.4154 0.115
60.4457 0.012
60.4760 -0.195
60.5063 -0.195
60.5365 0.113
60.5668 0.057
60.5971 -0.051
60.6274 -0.211
60.6577 0.254
60.6879 -0.061
60.7182 0.352
60.7485 0.193
60.7788 -0.069
60.8091 -0.020
60.8393 -0.074
60.8696 0.029
60.8999 -0.442
60.9302 0.391
60.9604 0.025
60.9907 0.180
61.0210 0.336
61.0513 -0.133
61.0816 -0.081
61.1118 0.180
61.1421 -0.237
61.1724 -0.028
61.2027 -0.079
61.2330 -0.078
61.2632 -0.337
61.2935 0.128
61.3238 0.021
61.3541 0.330
61.3844 -0.090
61.4146 -0.405
61.4449 0.270
61.4752 0.164
61.5055 0.266
61.5357 0.108
61.5660 0.211
61.5963 0.105
61.6266 -0.104
61.6569 0.312
61.6871 0.155
61.7174 0.103
61.7477 -0.054
61.7780 0.051
61.8083 0.780
61.8385 0.416
61.8688 0.209
61.8991 -0.207
61.9294 -0.161
61.9596 0.719
61.9899 0.244
62.0202 0.343
62.0505 1.015
62.0808 0.333
62.1110 0.797
62.1413 0.011
62.1716 0.684
62.2019 0.940
62.2322 0.884
62.2624 0.256
62.2927 0.982
62.3230 1.447
62.3533 1.653
62.3835 1.181
62.4138 1.231
62.4441 2.583
62.4744 1.696
62.5047 2.111
62.5349 3.047
62.5652 3.567
62.5955 2.680
62.6258 2.888
62.6561 2.471
62.6863 4.085
62.7166 3.617
62.7469 3.721
62.7772 2.524
62.8074 3.618
62.8377 3.723
62.8680 3.047
62.8983 2.945
62.9286 2.373
62.9588 2.063
62.9891 1.596
63.0194 1.859
63.0497 1.237
63.0800 0.927
63.1102 1.399
63.1405 1.350
63.1708 0.677
63.2011 1.462
63.2313 0.945
63.2616 0.064
63.2919 0.381
63.3222 0.542
63.3525 0.443
63.3827 -0.020
63.4130 0.767
63.4433 0.304
63.4736 0.101
63.5039 0.420
63.5341 0.166
63.5644 -0.036
63.5947 0.805
63.6250 0.343
63.6552 -0.431
63.6855 -0.110
63.7158 -0.311
63.7461 0.157
63.7764 0.052
63.8066 0.364
63.8369 0.468
63.8672 0.000
63.8975 -0.104
63.9278 0.000
63.9580 0.470
63.9883 -0.154
64.0186 0.264
64.0489 -0.047
64.0791 0.319
64.1094 0.113
64.1397 -0.145
64.1700 0.013
64.2003 0.328
64.2305 -0.189
64.2608 0.022
64.2911 0.182
64.3214 0.185
64.3517 0.033
64.3819 -0.067
64.4122 -0.115
64.4425 0.254
64.4728 0.207
64.5031 0.108
64.5333 -0.043
64.5636 -0.089
64.5939 -0.188
64.6242 -0.029
64.6544 -0.026
64.6847 0.029
64.7150 -0.019
64.7453 0.349
64.7756 0.249
64.8058 0.253
64.8361 0.205
64.8664 0.001
64.8967 0.371
64.9270 0.272
64.9572 -0.244
64.9875 -0.082
65.0178 -0.337
65.0481 0.137
65.0783 -0.067
65.1086 0.303
65.1389 -0.056
65.1692 0.053
65.1995 -0.045
65.2297 0.065
65.2600 0.228
65.2903 0.286
65.3206 0.345
65.3509 0.352
65.3811 -0.058
65.4114 -0.206
65.4417 0.102
65.4720 0.098
65.5022 0.303
65.5325 -0.274
65.5628 -0.173
65.5931 -0.024
65.6234 0.177
65.6536 0.066
65.6839 0.059
65.7142 0.156
65.7445 0.150
65.7748 0.404
65.8050 0.190
65.8353 0.288
65.8656 -0.134
65.8959 0.538
65.9261 0.169
65.9564 0.424
65.9867 0.472
66.0170 0.051
66.0473 0.568
66.0775 0.460
66.1078 0.456
66.1381 0.817
66.1684 0.762
66.1987 0.395
66.2289 0.965
66.2592 0.755
66.2895 0.753
66.3198 0.490
66.3500 0.541
66.3803 0.696
66.4106 0.486
66.4409 0.329
66.4712 0.641
66.5014 -0.089
66.5317 0.380
66.5620 0.484
66.5923 0.484
66.6226 0.745
66.6528 0.277
66.6831 0.018
66.7134 0.019
66.7437 -0.188
66.7739 0.009
66.8042 -0.054
66.8345 0.300
66.8648 0.341
66.8951 -0.138
66.9253 0.321
66.9556 0.103
66.9859 0.145
67.0162 0.240
67.0465 0.127
67.0767 -0.091
67.1070 0.161
67.1373 0.309
67.1676 -0.168
67.1978 0.449
67.2281 0.598
67.2584 0.121
67.2887 0.218
67.3190 0.576
67.3492 0.100
67.3795 0.875
67.4098 1.077
67.4401 1.071
67.4704 0.753
67.5006 1.164
67.5309 1.315
67.5612 1.987
67.5915 1.253
67.6218 2.602
67.6520 2.181
67.6823 2.594
67.7126 1.600
67.7429 2.430
67.7731 2.843
67.8034 3.309
67.8337 2.837
67.8640 3.147
67.8943 2.624
67.9245 3.090
67.9548 2.620
67.9851 1.941
68.0154 1.627
68.0457 1.730
68.0759 1.833
68.1062 1.988
68.1365 1.780
68.1668 1.206
68.1970 1.050
68.2273 1.415
68.2576 0.999
68.2879 0.687
68.3182 0.635
68.3484 0.376
68.3787 0.846
68.4090 1.108
68.4393 0.381
68.4696 0.696
68.4998 0.490
68.5301 0.701
68.5604 0.183
68.5907 1.227
68.6209 0.658
68.6512 0.974
68.6815 0.457
68.7118 0.825
68.7421 0.673
68.7723 0.209
68.8026 1.412
68.8329 1.312
68.8632 1.057
68.8935 1.323
68.9237 1.120
68.9540 1.074
68.9843 1.028
69.0146 1.035
69.0448 1.770
69.0751 1.934
69.1054 1.211
69.1357 0.958
69.1660 0.862
69.1962 0.505
69.2265 0.826
69.2568 0.469
69.2871 0.061
69.3174 0.435
69.3476 0.339
69.3779 -0.016
69.4082 0.150
69.4385 0.680
69.4687 0.013
69.4990 0.597
69.5293 0.451
69.5596 -0.007
69.5899 0.212
69.6201 0.223
69.6504 -0.078
69.6807 -0.014
69.7110 -0.002
69.7413 0.114
69.7715 0.022
69.8018 0.035
69.8321 -0.056
69.8624 0.425
69.8926 -0.134
69.9229 -0.173
69.9532 -0.012
69.9835 0.045
70.0138 0.363
70.0440 0.472
70.0743 0.061
70.1046 0.015
70.1349 0.230
70.1652 -0.129
70.1954 0.242
70.2257 0.249
70.2560 0.308
70.2863 0.107
70.3166 -0.093
70.3468 0.071
70.3771 0.027
70.4074 -0.017
70.4377 0.043
70.4679 -0.156
70.4982 -0.156
70.5285 -0.054
70.5588 0.100
70.5891 -0.007
70.6193 -0.008
70.6496 0.199
70.6799 0.041
70.7102 0.144
70.7405 -0.065
70.7707 0.143
70.8010 0.143
70.8313 0.195
70.8616 -0.222
70.8918 0.196
70.9221 0.248
70.9524 -0.219
70.9827 0.146
71.0130 -0.113
71.0432 -0.111
71.0735 -0.109
71.1038 0.101
71.1341 0.104
71.1644 -0.206
71.1946 -0.054
71.2249 -0.005
71.2552 0.148
71.2855 -0.116
71.3157 0.037
71.3460 -0.069
71.3763 0.345
71.4066 -0.022
71.4369 -0.336
71.4671 0.077
71.4974 0.178
71.5277 0.070
71.5580 -0.037
71.5883 0.065
71.6185 -0.094
71.6488 0.008
71.6791 0.215
71.7094 0.005
71.7396 0.003
71.7699 -0.258
71.8002 0.050
71.8305 0.464
71.8608 -0.165
71.8910 0.041
71.9213 -0.170
71.9516 0.036
71.9819 0.346
72.0122 0.031
72.0424 0.082
72.0727 -0.284
72.1030 -0.025
72.1333 0.234
72.1635 0.025
72.1938 0.129
72.2241 0.337
72.2544 -0.131
72.2847 0.129
72.3149 -0.026
72.3452 -0.078
72.3755 0.184
72.4058 0.393
72.4361 0.239
72.4663 0.344
72.4966 0.451
72.5269 0.297
72.5572 0.559
72.5874 -0.063
72.6177 -0.112
72.6480 -0.109
72.6783 0.311
72.7086 -0.050
72.7388 0.058
72.7691 0.010
72.7994 0.015
72.8297 -0.137
72.8600 -0.392
72.8902 0.238
72.9205 -0.069
72.9508 0.040
72.9811 -0.006
73.0113 -0.156
73.0416 -0.052
73.0719 -0.001
73.1022 -0.313
73.1325 0.260
73.1627 0.105
73.1930 -0.051
73.2233 -0.206
73.2536 0.108
73.2839 -0.359
73.3141 -0.045
73.3444 0.010
73.3747 0.221
73.4050 0.015
73.4353 -0.086
73.4655 -0.187
73.4958 0.233
73.5261 0.080
73.5564 -0.020
73.5866 0.141
73.6169 0.093
73.6472 -0.006
73.6775 0.103
73.7078 0.004
73.7380 -0.147
73.7683 0.009
73.7986 0.582
73.8289 0.009
73.8592 -0.042
73.8894 0.062
73.9197 0.168
73.9500 -0.039
73.9803 0.222
74.0105 0.172
74.0408 -0.138
74.0711 -0.032
74.1014 0.179
74.1317 0.025
74.1619 0.184
74.1922 0.656
74.2225 0.503
74.2528 0.663
74.2831 -0.010
74.3133 -0.058
74.3436 -0.158
74.3739 0.159
74.4042 0.164
74.4344 -0.039
74.4647 -0.138
74.4950 -0.138
74.5253 -0.093
74.5556 0.056
74.5858 -0.003
74.6161 0.198
74.6464 0.348
74.6767 0.029
74.7070 0.127
74.7372 0.122
74.7675 -0.249
74.7978 0.111
74.8281 0.053
74.8583 0.153
74.8886 0.096
74.9189 0.144
74.9492 -0.017
74.9795 0.292
75.0097 0.028
75.0400 -0.080
75.0703 0.021
75.1006 0.175
75.1309 0.068
75.1611 0.378
75.1914 0.115
75.2217 0.113
75.2520 0.111
75.2822 0.058
75.3125 0.109
75.3428 0.212
75.3731 0.003
75.4034 -0.206
75.4336 0.049
75.4639 -0.113
75.4942 0.039
75.5245 0.086
75.5548 -0.127
75.5850 0.077
75.6153 0.282
75.6456 0.069
75.6759 0.118
75.7061 -0.198
75.7364 0.060
75.7667 0.161
75.7970 -0.415
75.8273 -0.106
75.8575 -0.109
75.8878 -0.165
75.9181 -0.066
75.9484 -0.124
75.9787 0.079
76.0089 0.022
76.0392 0.017
76.0695 0.013
76.0998 0.008
76.1301 -0.048
76.1603 0.001
76.1906 -0.055
76.2209 0.150
76.2512 0.095
76.2814 0.092
76.3117 0.089
76.3420 0.087
76.3723 -0.124
76.4026 0.239
76.4328 -0.023
76.4631 -0.025
76.4934 0.026
76.5237 0.234
76.5540 0.337
76.5842 0.285
76.6145 0.180
76.6448 0.284
76.6751 0.285
76.7053 0.129
76.7356 -0.183
76.7659 0.131
76.7962 0.028
76.8265 0.341
76.8567 0.447
76.8870 0.137
76.9173 0.035
76.9476 -0.067
76.9779 0.040
77.0081 0.199
77.0384 0.202
77.0687 0.101
77.0990 -0.156
77.1292 0.213
77.1595 0.113
77.1898 0.273
77.2201 0.174
77.2504 -0.134
77.2806 0.235
77.3109 0.032
77.3412 -0.066
77.3715 -0.165
77.4018 -0.112
77.4320 0.306
77.4623 0.203
77.4926 -0.108
77.5229 0.155
77.5531 -0.364
77.5834 0.055
77.6137 0.057
77.6440 0.008
77.6743 0.063
77.7045 -0.090
77.7348 0.174
77.7651 -0.239
77.7954 0.078
77.8257 -0.283
77.8559 0.086
77.8862 -0.065
77.9165 0.096
77.9468 0.049
77.9770 0.263
78.0073 -0.304
78.0376 -0.142
78.0679 0.072
78.0982 -0.234
78.1284 0.085
78.1587 -0.064
78.1890 -0.109
78.2193 -0.154
78.2496 0.158
78.2798 -0.206
78.3101 0.159
78.3404 -0.049
78.3707 0.108
78.4009 0.161
78.4312 0.318
78.4615 -0.045
78.4918 -0.147
78.5221 0.057
78.5523 -0.103
78.5826 -0.002
78.6129 0.151
78.6432 0.148
78.6735 -0.010
78.7037 0.039
78.7340 -0.327
78.7643 0.139
78.7946 0.034
78.8248 -0.176
78.8551 0.187
78.8854 0.290
78.9157 0.029
78.9460 0.029
78.9762 0.549
79.0065 -0.023
79.0368 -0.232
79.0671 0.134
79.0974 0.291
79.1276 0.187
79.1579 0.136
79.1882 0.138
79.2185 -0.121
79.2488 0.037
79.2790 0.039
79.3093 -0.219
79.3396 0.045
79.3699 0.152
79.4001 0.051
79.4304 0.106
79.4607 0.162
79.4910 -0.095
79.5213 -0.039
79.5515 0.070
79.5818 -0.238
79.6121 0.496
79.6424 0.397
79.6727 -0.015
79.7029 0.095
79.7332 -0.056
79.7635 -0.154
79.7938 0.102
79.8240 0.357
79.8543 0.093
79.8846 0.193
79.9149 0.032
79.9452 0.289
79.9754 0.129
80.0057 -0.186
80.0360 0.175
80.0663 0.121
80.0966 0.066
80.1268 -0.145
80.1571 0.062
80.1874 0.216
80.2177 0.163
80.2479 0.213
80.2782 0.369
80.3085 -0.153
80.3388 0.159
80.3691 0.002
80.3993 0.106
80.4296 -0.154
80.4599 -0.055
80.4902 -0.060
80.5205 -0.168
80.5507 0.192
80.5810 -0.229
80.6113 -0.076
80.6416 0.128
80.6718 -0.083
80.7021 0.330
80.7324 0.015
80.7627 0.064
80.7930 0.114
80.8232 0.008
80.8535 0.006
80.8838 -0.152
80.9141 0.107
80.9444 0.002
80.9746 0.105
81.0049 0.000
81.0352 0.364
81.0655 -0.053
81.0957 0.156
81.1260 0.052
81.1563 -0.156
81.1866 -0.001
81.2169 0.259
81.2471 0.258
81.2774 -0.055
81.3077 0.310
81.3380 -0.107
81.3683 0.258
81.3985 0.051
81.4288 0.052
81.4591 -0.051
81.4894 -0.206
81.5196 0.106
81.5499 -0.051
81.5802 0.418
81.6105 -0.051
81.6408 -0.207
81.6710 0.159
81.7013 0.055
81.7316 0.161
81.7619 0.370
81.7922 0.111
81.8224 0.113
81.8527 -0.197
81.8830 0.274
81.9133 -0.088
81.9436 0.175
81.9738 0.282
82.0041 -0.079
82.0344 -0.076
82.0647 0.136
82.0949 0.244
82.1252 0.144
82.1555 0.149
82.1858 -0.003
82.2161 -0.258
82.2463 0.048
82.2766 -0.218
82.3069 0.453
82.3372 0.136
82.3675 -0.078
82.3977 0.386
82.4280 0.277
82.4583 0.012
82.4886 0.477
82.5188 0.056
82.5491 0.261
82.5794 0.101
82.6097 -0.006
82.6400 0.251
82.6702 0.144
82.7005 0.037
82.7308 -0.017
82.7611 0.189
82.7914 0.240
82.8216 -0.022
82.8519 -0.024
82.8822 0.079
82.9125 0.078
82.9427 0.026
82.9730 0.130
83.0033 0.077
83.0336 -0.131
83.0639 0.130
83.0941 0.130
83.1244 -0.025
83.1547 -0.180
83.1850 0.082
83.2153 -0.073
83.2455 0.085
83.2758 0.244
83.3061 -0.223
83.3364 0.093
83.3666 -0.217
83.3969 0.099
83.4272 -0.054
83.4575 -0.103
83.4878 -0.099
83.5180 0.114
83.5483 -0.351
83.5786 -0.034
83.6089 -0.081
83.6392 -0.180
83.6694 0.137
83.6997 0.038
83.7300 0.147
83.7603 -0.160
83.7905 0.263
83.8208 0.112
83.8511 0.223
83.8814 -0.136
83.9117 -0.025
83.9419 -0.122
83.9722 0.197
84.0025 0.309
84.0328 0.681
84.0631 0.012
84.0933 -0.084
84.1236 -0.128
84.1539 0.089
84.1842 0.046
84.2144 -0.154
84.2447 -0.002
84.2750 0.671
84.3053 0.094
84.3356 0.351
84.3658 0.243
84.3961 0.136
84.4264 0.029
84.4567 0.390
84.4870 0.492
84.5172 0.229
84.5475 0.227
84.5778 0.069
84.6081 0.120
84.6383 -0.298
84.6686 0.065
84.6989 0.168
84.7292 0.220
84.7595 0.011
84.7897 0.219
84.8200 0.219
84.8503 -0.093
84.8806 0.220
84.9109 0.169
84.9411 0.274
84.9714 0.380
85.0017 -0.087
85.0320 -0.138
85.0623 0.071
85.0925 0.123
85.1228 0.019
85.1531 0.229
85.1834 0.230
85.2136 -0.238
85.2439 -0.132
85.2742 -0.026
85.3045 -0.076
85.3348 0.082
85.3650 0.241
85.3953 0.087
85.4256 0.351
85.4559 0.250
85.4862 -0.007
85.5164 0.048
85.5467 0.052
85.5770 0.004
85.6073 0.009
85.6375 0.065
85.6678 0.279
85.6981 -0.185
85.7284 -0.128
85.7587 0.181
85.7889 0.022
85.8192 0.123
85.8495 0.276
85.8798 -0.039
85.9101 0.271
85.9403 0.686
85.9706 0.163
86.0009 0.265
86.0312 0.160
86.0614 0.263
86.0917 -0.103
86.1220 0.157
86.1523 0.156
86.1826 0.208
86.2128 -0.052
86.2431 0.209
86.2734 -0.156
86.3037 0.470
86.3340 -0.102
86.3642 0.212
86.3945 0.161
86.4248 0.007
86.4551 0.061
86.4853 -0.041
86.5156 0.065
86.5459 -0.036
86.5762 0.071
86.6065 0.074
86.6367 0.077
86.6670 -0.128
86.6973 -0.083
86.7276 0.378
86.7579 0.267
86.7881 0.208
86.8184 -0.216
86.8487 0.247
86.8790 0.188
86.9092 0.235
86.9395 0.229
86.9698 0.067
87.0001 -0.042
87.0304 0.005
87.0606 0.156
87.0909 0.100
87.1212 0.147
87.1515 0.039
87.1818 -0.017
87.2120 0.292
87.2423 0.080
87.2726 0.181
87.3029 0.022
87.3331 -0.137
87.3634 0.121
87.3937 0.328
87.4240 0.222
87.4543 -0.197
87.4845 0.010
87.5148 -0.147
87.5451 -0.044
87.5754 -0.045
87.6057 0.111
87.6359 -0.202
87.6662 0.058
87.6965 -0.046
87.7268 0.267
87.7571 0.267
87.7873 0.008
87.8176 -0.147
87.8479 -0.147
87.8782 0.106
87.9084 0.151
87.9387 0.353
87.9690 -0.018
87.9993 -0.284
88.0296 0.072
88.0598 0.376
88.0901 -0.256
88.1204 0.049
88.1507 0.458
88.1810 -0.018
88.2112 0.288
88.2415 0.125
88.2718 -0.194
88.3021 0.060
88.3323 0.054
88.3626 -0.004
88.3929 0.408
88.4232 0.038
88.4535 0.033
88.4837 -0.180
88.5140 0.023
88.5443 0.121
88.5746 -0.196
88.6049 0.476
88.6351 -0.206
88.6654 -0.002
88.6957 -0.058
88.7260 0.251
88.7562 -0.169
88.7865 -0.173
88.8168 -0.022
88.8471 0.129
88.8774 0.228
88.9076 0.067
88.9379 -0.041
88.9682 0.059
88.9985 0.002
89.0288 0.103
89.0590 -0.057
89.0893 0.252
89.1196 0.301
89.1499 0.611
89.1801 0.608
89.2104 0.085
89.2407 -0.125
89.2710 0.029
89.3013 0.236
89.3315 0.026
89.3618 0.389
89.3921 0.597
89.4224 0.075
89.4527 0.492
89.4829 0.596
89.5132 0.127
89.5435 0.596
89.5738 0.284
89.6040 0.441
89.6343 0.338
89.6646 0.547
89.6949 0.184
89.7252 0.186
89.7554 0.396
89.7857 0.451
89.8160 0.713
89.8463 0.299
89.8766 0.146
89.9068 0.201
89.9371 0.257
89.9674 0.365
89.9977 0.004
90.0279 0.477
90.0582 0.012
90.0885 -0.035
90.1188 -0.082
90.1491 0.027
90.1793 0.084
90.2096 -0.327
90.2399 0.200
90.2702 -0.315
90.3005 -0.101
90.3307 0.010
90.3610 -0.035
90.3913 -0.132
90.4216 0.031
90.4518 -0.118
90.4821 0.202
90.5124 -0.206
90.5427 -0.145
90.5730 0.229
90.6032 0.342
90.6335 0.248
90.6638 -0.003
90.6941 0.059
90.7244 0.122
90.7546 -0.180
90.7849 -0.078
90.8152 0.129
90.8455 0.076
90.8758 -0.030
90.9060 0.230
90.9363 -0.344
90.9666 0.229
90.9969 0.125
91.0271 -0.188
91.0574 0.125
91.0877 -0.030
91.1180 0.023
91.1483 0.024
91.1785 0.077
91.2088 0.026
91.2391 -0.232
91.2694 0.025
91.2997 -0.187
91.3299 0.279
91.3602 -0.349
91.3905 -0.091
91.4208 0.062
91.4510 -0.044
91.4813 0.371
91.5116 0.213
91.5419 -0.049
91.5722 0.054
91.6024 0.366
91.6327 0.105
91.6630 -0.156
91.6933 -0.054
91.7236 0.204
91.7538 -0.110
91.7841 0.097
91.8144 0.096
91.8447 0.147
91.8749 -0.010
91.9052 0.198
91.9355 0.041
91.9658 0.250
91.9961 -0.063
92.0263 0.042
92.0566 0.043
92.0869 -0.008
92.1172 0.201
92.1475 0.359
92.1777 -0.108
92.2080 0.102
92.2383 -0.156
92.2686 -0.162
92.2988 0.250
92.3291 0.089
92.3594 0.188
92.3897 0.548
92.4200 0.127
92.4502 0.071
92.4805 0.119
92.5108 0.116
92.5411 0.061
92.5714 -0.411
92.6016 0.576
92.6319 0.417
92.6622 0.206
92.6925 0.100
92.7227 0.046
92.7530 0.044
92.7833 0.095
92.8136 0.511
92.8439 0.197
92.8741 -0.012
92.9044 0.144
92.9347 0.248
92.9650 0.144
92.9953 -0.064
93.0255 0.249
93.0558 0.458
93.0861 -0.166
93.1164 -0.165
93.1466 0.043
93.1769 0.303
93.2072 0.250
93.2375 -0.114
93.2678 0.094
93.2980 0.147
93.3283 0.460
93.3586 -0.112
93.3889 0.462
93.4192 -0.214
93.4494 0.205
93.4797 0.259
93.5100 -0.208
93.5403 -0.102
93.5706 0.318
93.6008 0.112
93.6311 -0.093
93.6614 -0.194
93.6917 0.174
93.7219 0.178
93.7522 0.078
93.7825 -0.022
93.8128 0.087
93.8431 0.039
93.8733 0.044
93.9036 0.154
93.9339 0.315
93.9642 0.113
93.9945 0.119
94.0247 0.125
94.0550 0.183
94.0853 0.138
94.1156 0.249
94.1458 -0.056
94.1761 0.107
94.2064 0.531
94.2367 0.279
94.2670 0.287
94.2972 0.452
94.3275 -0.061
94.3578 0.104
94.3881 0.061
94.4184 -0.138
94.4486 -0.095
94.4789 0.208
94.5092 0.198
94.5395 0.658
94.5697 0.233
94.6000 0.328
94.6303 0.372
94.6606 0.312
94.6909 0.044
94.7211 0.088
94.7514 0.133
94.7817 0.334
94.8120 0.484
94.8423 0.737
94.8725 0.314
94.9028 0.308
94.9331 0.250
94.9634 0.245
94.9936 0.291
95.0239 0.234
95.0542 0.541
95.0845 0.433
95.1148 0.220
95.1450 0.893
95.1753 0.576
95.2056 0.260
95.2359 0.933
95.2662 0.357
95.2964 0.302
95.3267 1.029
95.3570 0.661
95.3873 0.555
95.4175 1.022
95.4478 0.343
95.4781 0.289
95.5084 0.496
95.5387 0.391
95.5689 0.025
95.5992 0.129
95.6295 0.545
95.6598 0.180
95.6901 0.076
95.7203 0.024
95.7506 0.129
95.7809 0.286
95.8112 0.131
95.8414 -0.232
95.8717 -0.075
95.9020 0.238
95.9323 -0.177
95.9626 -0.123
95.9928 0.087
96.0231 0.193
96.0534 0.195
96.0837 -0.167
96.1140 0.044
96.1442 -0.109
96.1745 -0.158
96.2048 0.002
96.2351 0.318
96.2653 0.009
96.2956 0.274
96.3259 0.070
96.3562 -0.029
96.3865 0.132
96.4167 0.085
96.4470 0.090
96.4773 0.200
96.5076 -0.002
96.5379 0.212
96.5681 -0.042
96.5984 -0.140
96.6287 0.180
96.6590 0.395
96.6893 0.090
96.7195 0.097
96.7498 -0.051
96.7801 -0.147
96.8104 -0.048
96.8406 0.103
96.8709 0.046
96.9012 -0.271
96.9315 0.245
96.9618 -0.332
96.9920 -0.023
97.0223 0.129
97.0526 0.178
97.0829 -0.034
97.1132 0.172
97.1434 0.065
97.1737 0.375
97.2040 0.164
97.2343 0.110
97.2645 0.056
97.2948 0.159
97.3251 -0.051
97.3554 -0.052
97.3857 -0.052
97.4159 0.051
97.4462 0.207
97.4765 -0.262
97.5068 0.155
97.5371 -0.001
97.5673 -0.156
97.5976 0.044
97.6279 0.192
97.6582 0.081
97.6884 -0.083
97.7187 0.170
97.7490 -0.097
97.7793 0.104
97.8096 0.046
97.8398 0.092
97.8701 0.034
97.9004 -0.024
97.9307 0.075
97.9610 -0.191
97.9912 0.064
98.0215 -0.097
98.0518 0.159
98.0821 0.051
98.1123 0.307
98.1426 0.251
98.1729 0.144
98.2032 0.036
98.2335 -0.384
98.2637 0.082
98.2940 -0.077
98.3243 0.181
98.3546 0.752
98.3849 0.021
98.4151 -0.085
98.4454 0.539
98.4757 0.642
98.5060 0.328
98.5362 0.224
98.5665 0.536
98.5968 0.015
98.6271 0.119
98.6574 0.119
98.6876 0.224
98.7179 0.172
98.7482 0.121
98.7785 0.435
98.8088 0.384
98.8390 -0.135
98.8693 0.284
98.8996 0.026
98.9299 -0.232
98.9601 0.029
98.9904 0.239
99.0207 0.189
99.0510 0.087
99.0813 0.350
99.1115 0.196
99.1418 0.043
99.1721 -0.110
99.2024 -0.107
99.2327 0.001
99.2629 0.005
99.2932 0.373
99.3235 -0.091
99.3538 -0.139
99.3841 0.022
99.4143 -0.077
99.4446 0.032
99.4749 -0.066
99.5052 -0.165
99.5354 0.100
99.5657 0.105
99.5960 0.214
99.6263 -0.041
99.6566 -0.140
99.6868 0.022
99.7171 -0.284
99.7474 0.032
99.7777 0.139
99.8080 0.195
99.8382 0.147
99.8685 -0.109
99.8988 -0.156
99.9291 0.099
99.9593 0.042
99.9896 0.089
100.0199 -0.072
100.0502 -0.128
100.0805 -0.028
100.1107 0.020
100.1410 -0.140
100.1713 -0.039
100.2016 0.166
100.2319 -0.150
100.2621 -0.100
100.2924 0.106
100.3227 0.155
100.3530 0.205
100.3832 0.412
100.4135 0.150
100.4438 0.045
100.4741 -0.165
100.5044 -0.061
100.5346 0.199
100.5649 0.095
100.5952 0.095
100.6255 0.148
100.6558 0.097
100.6860 -0.059
100.7163 0.099
100.7466 0.204
100.7769 0.362
100.8071 0.104
100.8374 -0.154
100.8677 0.213
100.8980 0.215
100.9283 0.218
100.9585 0.273
100.9888 0.173
101.0191 -0.032
101.0494 0.180
101.0797 0.080
101.1099 0.241
101.1402 0.089
101.1705 0.094
101.2008 -0.109
101.2310 -0.156
101.2613 0.000
101.2916 0.000
101.3219 0.312
101.3522 -0.104
101.3824 0.105
101.4127 0.106
101.4430 -0.049
101.4733 -0.204
101.5036 0.163
101.5338 -0.200
101.5641 -0.042
101.5944 0.117
101.6247 0.067
101.6549 0.174
101.6852 -0.135
101.7155 0.233
101.7458 -0.180
101.7761 -0.188
101.8063 0.429
101.8366 0.266
101.8669 -0.054
101.8972 -0.009
101.9275 0.245
101.9577 -0.282
101.9880 -0.132
102.0183 -0.190
102.0486 0.638
102.0788 -0.097
102.1091 -0.102
102.1394 0.466
102.1697 -0.060
102.2000 0.196
102.2302 0.140
102.2605 -0.072
102.2908 -0.180
102.3211 0.124
102.3514 0.063
102.3816 0.055
102.4119 0.099
102.4422 -0.117
102.4725 -0.124
102.5028 0.077
102.5330 0.122
102.5633 0.740
102.5936 -0.100
102.6239 -0.158
102.6541 0.148
102.6844 0.195
102.7147 -0.124
102.7450 0.132
102.7753 0.179
102.8055 -0.295
102.8358 0.221
102.8661 0.061
102.8964 0.213
102.9267 0.626
102.9569 0.205
102.9872 -0.111
103.0175 0.147
103.0478 -0.221
103.0780 0.245
103.1083 -0.018
103.1386 0.241
103.1689 -0.022
103.1992 0.341
103.2294 0.131
103.2597 0.026
103.2900 -0.444
103.3203 0.389
103.3506 -0.029
103.3808 0.284
103.4111 0.231
103.4414 -0.133
103.4717 -0.028
103.5019 -0.028
103.5322 0.234
103.5625 0.026
103.5928 -0.233
103.6231 0.027
103.6533 0.390
103.6836 0.181
103.7139 0.129
103.7442 0.129
103.7745 -0.028
103.8047 0.181
103.8350 0.181
103.8653 0.390
103.8956 -0.025
103.9258 0.341
103.9561 0.446
103.9864 0.031
104.0167 0.241
104.0470 0.244
104.0772 -0.119
104.1075 -0.012
104.1378 -0.009
104.1681 -0.006
104.1984 0.050
104.2286 0.210
104.2589 0.578
104.2892 0.374
104.3195 0.014
104.3497 0.018
104.3800 0.023
104.4103 -0.233
104.4406 0.027
104.4709 0.338
104.5011 -0.027
104.5314 0.180
104.5617 0.076
104.5920 -0.081
104.6223 0.024
104.6525 0.389
104.6828 0.077
104.7131 0.026
104.7434 -0.078
104.7736 -0.180
104.8039 0.081
104.8342 0.239
104.8645 0.292
104.8948 0.138
104.9250 0.036
104.9553 0.038
104.9856 0.041
105.0159 0.043
105.0462 -0.006
105.0764 -0.055
105.1067 0.157
105.1370 0.109
105.1673 -0.252
105.1975 0.065
105.2278 0.174
105.2581 0.178
105.2884 0.079
105.3187 -0.020
105.3489 -0.015
105.3792 0.095
105.4095 -0.107
105.4398 0.159
105.4701 -0.147
105.5003 -0.088
105.5306 -0.081
105.5609 0.134
105.5912 0.037
105.6215 0.149
105.6517 -0.156
105.6820 -0.148
105.7123 0.381
105.7426 -0.027
105.7728 0.190
105.8031 -0.061
105.8334 -0.156
105.8637 -0.109
105.8940 0.042
105.9242 -0.015
105.9545 0.032
105.9848 0.237
106.0151 0.753
106.0454 0.124
106.0756 0.069
106.1059 0.013
106.1362 -0.094
106.1665 -0.045
106.1967 -0.047
106.2270 -0.206
106.2573 0.156
106.2876 -0.314
106.3179 0.101
106.3481 0.204
106.3784 -0.006
106.4087 0.045
106.4390 -0.008
106.4693 -0.008
106.4995 -0.165
106.5298 0.252
106.5601 0.148
106.5904 0.201
106.6206 0.201
106.6509 -0.058
106.6812 0.204
106.7115 -0.160
106.7418 -0.106
106.7720 0.209
106.8023 0.054
106.8326 0.265
106.8629 0.216
106.8932 0.219
106.9234 0.065
106.9537 -0.140
106.9840 0.229
107.0143 -0.288
107.0445 0.028
107.0748 0.449
107.1051 0.037
107.1354 0.250
107.1657 -0.109
107.1959 -0.156
107.2262 0.049
107.2565 0.254
107.2868 -0.166
107.3171 -0.169
107.3473 0.558
107.3776 -0.173
107.4079 0.345
107.4382 0.083
107.4684 0.029
107.4987 -0.180
107.5290 0.024
107.5593 0.229
107.5896 -0.140
107.6198 0.013
107.6501 -0.146
107.6804 0.216
107.7107 0.057
107.7410 -0.310
107.7712 0.156
107.8015 -0.106
107.8318 -0.055
107.8621 -0.057
107.8923 -0.162
107.9226 0.253
107.9529 0.149
107.9832 0.148
108.0135 -0.217
108.0437 -0.008
108.0740 -0.373
108.1043 0.253
108.1346 -0.163
108.1649 -0.006
108.1951 -0.109
108.2254 0.101
108.2557 -0.366
108.2860 0.104
108.3163 0.159
108.3465 0.057
108.3768 0.164
108.4071 -0.042
108.4374 0.534
108.4676 0.173
108.4979 0.020
108.5282 0.128
108.5585 -0.232
108.5888 -0.081
108.6190 0.227
108.6493 0.014
108.6796 0.270
108.7099 0.266
108.7402 0.158
108.7704 0.050
108.8007 -0.110
108.8310 -0.165
108.8613 -0.011
108.8915 0.195
108.9218 -0.172
108.9521 0.087
108.9824 0.189
109.0127 -0.281
109.0429 0.239
109.0732 0.081
109.1035 0.029
109.1338 0.184
109.1641 -0.076
109.1943 0.132
109.2246 0.236
109.2549 -0.128
109.2852 0.342
109.3154 -0.230
109.3457 -0.125
109.3760 0.033
109.4063 -0.070
109.4366 0.505
109.4668 0.455
109.4971 -0.324
109.5274 -0.165
109.5577 0.246
109.5880 0.135
109.6182 0.129
109.6485 0.071
109.6788 0.014
109.7091 -0.252
109.7393 0.264
109.7696 -0.053
109.7999 -0.110
109.8302 0.146
109.8605 0.194
109.8907 -0.018
109.9210 -0.073
109.9513 0.184
109.9816 0.389
110.0119 -0.083
110.0421 0.175
110.0724 0.173
110.1027 -0.090
110.1330 0.481
110.1632 0.115
110.1935 0.322
110.2238 0.269
110.2541 0.164
110.2844 0.684
110.3146 -0.202
110.3449 0.319
110.3752 0.058
110.4055 -0.046
110.4358 0.372
110.4660 0.581
110.4963 0.269
110.5266 0.218
110.5569 -0.197
110.5871 0.274
110.6174 0.223
110.6477 0.278
110.6780 -0.032
110.7083 -0.134
110.7385 -0.079
110.7688 0.185
110.7991 -0.020
110.8294 0.452
110.8597 -0.117
110.8899 0.095
110.9202 0.308
110.9505 0.104
110.9808 -0.151
111.0110 0.218
111.0413 0.119
111.0716 0.125
111.1019 0.287
111.1322 0.293
111.1624 -0.013
111.1927 0.097
111.2230 0.000
111.2533 0.319
111.2836 0.170
111.3138 0.282
111.3441 0.238
111.3744 -0.119
111.4047 0.306
111.4350 0.158
111.4652 0.271
111.4955 0.592
111.5258 0.028
111.5561 0.142
111.5863 0.099
111.6166 0.213
111.6469 0.015
111.6772 0.182
111.7075 0.296
111.7377 0.203
111.7680 0.162
111.7983 -0.035
111.8286 -0.180
111.8589 0.077
111.8891 0.334
111.9194 0.278
111.9497 0.379
111.9800 0.220
112.0102 0.113
112.0405 -0.098
112.0708 0.161
112.1011 -0.154
112.1314 -0.109
112.1616 -0.012
112.1919 0.242
112.2222 0.236
112.2525 -0.135
112.2828 -0.037
112.3130 -0.095
112.3433 0.108
112.3736 0.363
112.4039 0.098
112.4341 -0.011
112.4644 0.244
112.4947 0.188
112.5250 0.444
112.5553 0.076
112.5855 0.177
112.6158 -0.087
112.6461 -0.038
112.6764 -0.145
112.7067 0.217
112.7369 -0.046
112.7672 0.160
112.7975 -0.102
112.8278 0.261
112.8580 -0.105
112.8883 -0.107
112.9186 -0.056
112.9489 0.152
112.9792 -0.057
113.0094 -0.057
113.0397 0.047
113.0700 0.099
113.1003 0.204
113.1306 0.361
113.1608 -0.107
113.1911 -0.001
113.2214 -0.156
113.2517 -0.054
113.2819 0.205
113.3122 -0.004
113.3425 0.151
113.3728 0.307
113.4031 0.098
113.4333 -0.267
113.4636 0.306
113.4939 -0.163
113.5242 0.203
113.5545 0.047
113.5847 0.100
113.6150 0.258
113.6453 -0.262
113.6756 -0.052
113.7058 -0.206
113.7361 0.100
113.7664 -0.010
113.7967 0.297
113.8270 -0.073
113.8572 0.600
113.8875 -0.030
113.9178 0.017
113.9481 -0.195
113.9784 0.061
114.0086 0.109
114.0389 0.105
114.0692 -0.262
114.0995 0.099
114.1298 0.148
114.1600 -0.063
114.1903 0.039
114.2206 -0.067
114.2509 0.451
114.2811 0.241
114.3114 -0.177
114.3417 0.343
114.3720 -0.335
114.4023 0.029
114.4325 -0.336
114.4628 0.132
114.4931 0.184
114.5234 -0.180
114.5537 -0.132
114.5839 0.333
114.6142 0.174
114.6445 0.171
114.6748 -0.248
114.7050 0.530
114.7353 0.216
114.7656 0.162
114.7959 0.160
114.8262 -0.311
114.8564 -0.105
114.8867 0.049
114.9170 0.307
114.9473 -0.008
114.9776 0.146
115.0078 -0.064
115.0381 0.352
115.0684 0.298
115.0987 -0.380
115.1289 0.661
115.1592 0.296
115.1895 0.088
115.2198 -0.173
115.2501 -0.173
115.2803 0.184
115.3106 -0.188
115.3409 -0.091
115.3712 -0.150
115.4015 0.207
115.4317 0.149
115.4620 -0.274
115.4923 0.136
115.5226 0.078
115.5528 0.281
115.5831 -0.193
115.6134 0.114
115.6437 0.318
115.6740 0.053
115.7042 0.309
115.7345 0.044
115.7648 0.352
115.7951 0.140
115.8254 0.606
115.8556 -0.127
115.8859 0.026
115.9162 -0.133
115.9465 0.386
115.9767 0.331
116.0070 0.225
116.0373 0.223
116.0676 0.378
116.0979 0.481
116.1281 0.219
116.1584 0.531
116.1887 0.530
116.2190 0.530
116.2493 0.947
116.2795 0.634
116.3098 0.426
116.3401 0.062
116.3704 -0.093
116.4006 0.220
116.4309 0.065
116.4612 0.484
116.4915 0.069
116.5218 0.279
116.5520 0.177
116.5823 0.440
116.6126 0.391
116.6429 -0.335
116.6732 0.032
116.7034 0.348
116.7337 0.248
116.7640 -0.009
116.7943 0.048
116.8245 0.365
116.8548 -0.047
116.8851 0.062
116.9154 0.275
116.9457 -0.032
116.9759 0.234
117.0062 0.344
117.0365 0.402
117.0668 0.044
117.0971 -0.054
117.1273 0.422
117.1576 0.168
117.1879 0.384
117.2182 0.235
117.2485 0.243
117.2787 -0.009
117.3090 0.103
117.3393 0.424
117.3696 -0.192
117.3998 0.129
117.4301 -0.018
117.4604 -0.165
117.4907 -0.165
117.5210 -0.014
117.5512 0.450
117.5815 -0.023
117.6118 0.128
117.6421 0.541
117.6724 0.068
117.7026 0.272
117.7329 -0.096
117.7632 0.161
117.7935 -0.102
117.8237 0.364
117.8540 0.101
117.8843 0.202
117.9146 -0.112
117.9449 0.198
117.9751 -0.168
118.0054 -0.274
118.0357 0.298
118.0660 0.193
118.0963 0.036
118.1265 -0.173
118.1568 -0.069
118.1871 -0.017
118.2174 -0.173
118.2476 -0.120
118.2779 -0.171
118.3082 -0.066
118.3385 0.300
118.3688 -0.011
118.3990 0.043
118.4293 0.097
118.4596 0.411
118.4899 0.101
118.5202 -0.209
118.5504 0.367
118.5807 0.058
118.6110 0.009
118.6413 0.117
118.6715 -0.035
118.7018 0.229
118.7321 -0.235
118.7624 -0.126
118.7927 0.035
118.8229 -0.220
118.8532 0.358
118.8835 0.363
118.9138 -0.047
118.9441 -0.146
118.9743 0.121
119.0046 0.180
119.0349 0.603
119.0652 -0.119
119.0954 0.045
119.1257 -0.156
119.1560 -0.058
119.1863 0.249
119.2166 -0.173
119.2468 -0.127
119.2771 -0.132
119.3074 0.385
119.3377 0.224
119.3680 0.167
119.3982 0.111
119.4285 0.003
119.4588 0.208
119.4891 0.413
119.5193 0.254
119.5496 0.199
119.5799 0.353
119.6102 0.194
119.6405 0.192
119.6707 0.034
119.7010 0.032
119.7313 0.135
119.7616 -0.023
119.7919 0.185
119.8221 0.288
119.8524 0.288
119.8827 0.288
119.9130 -0.025
119.9433 -0.077
119.9735 -0.337
120.0038 0.000
