'Id: "" Comment: "" Operator: "Lab Manager" Anode: "Cu" Scantype: "Locked Coupled" TimePerStep: "19.2" X: "9999" Y: "9999" Z: "9999" 
10.0015 0.000
10.0318 0.976
10.0620 -0.443
10.0923 0.481
10.1226 -0.104
10.1529 1.082
10.1832 0.236
10.2134 0.225
10.2437 0.110
10.2740 0.776
10.3043 -0.224
10.3346 -0.494
10.3648 0.231
10.3951 0.487
10.4254 0.536
10.4557 0.064
10.4859 0.165
10.5162 0.736
10.5465 -0.308
10.5768 1.201
10.6071 0.574
10.6373 0.000
10.6676 0.000
10.6979 0.781
10.7282 -0.157
10.7585 0.938
10.7887 0.991
10.8190 0.523
10.8493 0.212
10.8796 0.006
10.9098 0.477
10.9401 0.948
10.9704 1.733
11.0007 1.111
11.0310 0.229
11.0612 1.119
11.0915 1.801
11.1218 0.243
11.1521 1.394
11.1824 0.983
11.2126 -0.209
11.2429 0.787
11.2732 -0.040
11.3035 1.166
11.3337 1.433
11.3640 0.400
11.3943 0.199
11.4246 0.416
11.4549 -0.148
11.4851 0.591
11.5154 0.288
11.5457 0.663
11.5760 0.569
11.6063 0.059
11.6365 0.434
11.6668 -0.335
11.6971 0.562
11.7274 0.105
11.7577 -0.351
11.7879 -0.442
11.8182 0.399
11.8485 0.043
11.8788 0.208
11.9090 0.060
11.9393 0.330
11.9696 0.756
11.9999 -0.015
12.0302 0.412
12.0604 0.631
12.0907 0.434
12.1210 -0.388
12.1513 0.509
12.1816 0.209
12.2118 0.378
12.2421 0.234
12.2724 0.039
12.3027 -0.468
12.3329 -0.008
12.3632 0.088
12.3935 0.079
12.4238 0.332
12.4541 0.377
12.4843 0.786
12.5146 0.675
12.5449 0.825
12.5752 1.132
12.6055 -0.124
12.6357 0.183
12.6660 0.439
12.6963 -0.087
12.7266 -0.299
12.7568 -0.094
12.7871 0.319
12.8174 -0.153
12.8477 0.053
12.8780 -0.106
12.9082 -0.056
12.9385 0.776
12.9688 -0.319
12.9991 -0.216
13.0294 -0.581
13.0596 0.409
13.0899 -0.216
13.1202 0.983
13.1505 -0.058
13.1807 -0.005
13.2110 -0.107
13.2413 0.780
13.2716 0.627
13.3019 0.369
13.3321 0.580
13.3624 1.209
13.3927 0.848
13.4230 0.384
13.4533 0.441
13.4835 0.185
13.5138 -0.070
13.5441 -0.012
13.5744 -0.006
13.6046 -0.572
13.6349 0.737
13.6652 0.640
13.6955 -0.134
13.7258 -0.386
13.7560 -0.020
13.7863 0.294
13.8166 0.192
13.8469 0.507
13.8772 -0.167
13.9074 -0.007
13.9377 0.361
13.9680 0.000
13.9983 0.005
14.0285 0.218
14.0588 0.223
14.0891 0.020
14.1194 0.234
14.1497 0.345
14.1799 0.299
14.2102 0.306
14.2405 0.105
14.2708 0.061
14.3011 -0.608
14.3313 0.338
14.3616 -0.070
14.3919 0.200
14.4222 -0.520
14.4524 -0.159
14.4827 -0.318
14.5130 0.356
14.5433 0.250
14.5736 -0.117
14.6038 0.038
14.6341 -0.380
14.6644 0.244
14.6947 -0.330
14.7250 0.451
14.7552 -0.017
14.7855 -0.173
14.8158 0.193
14.8461 -0.171
14.8764 -0.013
14.9066 0.666
14.9369 -0.217
14.9672 -0.110
14.9975 -0.315
15.0277 0.522
15.0580 -0.099
15.0883 0.530
15.1186 0.014
15.1489 -0.294
15.1791 0.701
15.2094 -0.699
15.2397 0.349
15.2700 0.147
15.3003 0.049
15.3305 0.161
15.3608 -0.457
15.3911 0.332
15.4214 -0.389
15.4516 0.662
15.4819 -0.006
15.5122 -0.101
15.5425 1.159
15.5728 0.856
15.6030 0.033
15.6333 0.565
15.6636 -0.153
15.6939 0.328
15.7242 -0.650
15.7544 -0.283
15.7847 0.552
15.8150 -0.330
15.8453 0.298
15.8755 0.197
15.9058 0.461
15.9361 -0.524
15.9664 0.106
15.9967 0.371
16.0269 0.064
16.0572 -0.191
16.0875 -0.185
16.1178 0.291
16.1481 0.766
16.1783 0.982
16.2086 -0.313
16.2389 -0.774
16.2692 0.380
16.2994 1.431
16.3297 -0.435
16.3600 0.303
16.3903 0.573
16.4206 0.479
16.4508 0.490
16.4811 0.605
16.5114 -0.009
16.5417 0.888
16.5720 -0.246
16.6022 -0.442
16.6325 0.278
16.6628 -0.408
16.6931 0.468
16.7233 0.668
16.7536 0.035
16.7839 -0.025
16.8142 0.905
16.8445 0.221
16.8747 -0.098
16.9050 0.104
16.9353 -0.475
16.9656 0.144
16.9959 0.348
17.0261 0.134
17.0564 0.390
17.0867 0.022
17.1170 0.174
17.1472 -0.038
17.1775 0.116
17.2078 0.946
17.2381 -0.306
17.2684 -0.151
17.2986 0.055
17.3289 1.148
17.3592 -0.103
17.3895 -0.728
17.4198 0.154
17.4500 0.047
17.4803 -0.216
17.5106 0.042
17.5409 0.613
17.5712 -0.221
17.6014 0.611
17.6317 -0.015
17.6620 0.141
17.6923 0.454
17.7225 -0.379
17.7528 0.142
17.7831 -0.065
17.8134 0.510
17.8437 0.720
17.8739 0.097
17.9042 0.100
17.9345 0.207
17.9648 -0.050
17.9951 0.058
18.0253 -0.042
18.0556 0.900
18.0859 -0.033
18.1162 0.233
18.1464 0.603
18.1767 -0.589
18.2070 -0.322
18.2373 0.153
18.2676 0.212
18.2978 0.115
18.3281 0.123
18.3584 0.288
18.3887 0.504
18.4190 0.617
18.4492 0.210
18.4795 -0.353
18.5098 -0.353
18.5401 0.324
18.5703 0.220
18.6006 0.637
18.6309 0.326
18.6612 0.848
18.6915 0.225
18.7217 0.539
18.7520 0.125
18.7823 -0.080
18.8126 -0.650
18.8429 0.134
18.8731 0.503
18.9034 -1.004
18.9337 0.563
18.9640 0.620
18.9942 -0.053
19.0245 0.422
19.0548 0.115
19.0851 0.642
19.1154 0.284
19.1456 0.134
19.1759 -0.015
19.2062 -0.267
19.2365 0.313
19.2668 -0.147
19.2970 -0.034
19.3273 -0.494
19.3576 0.075
19.3879 -0.032
19.4181 0.538
19.4484 0.848
19.4787 0.481
19.5090 0.635
19.5393 0.477
19.5695 0.008
19.5998 -0.306
19.6301 -0.567
19.6604 0.423
19.6907 0.163
19.7209 0.007
19.7512 -0.304
19.7815 0.010
19.8118 -0.041
19.8420 0.535
19.8723 -0.609
19.9026 -0.345
19.9329 0.127
19.9632 0.236
19.9934 0.605
20.0237 -0.119
20.0540 -0.113
20.0843 0.310
20.1146 0.160
20.1448 0.687
20.1751 0.486
20.2054 0.337
20.2357 -0.020
20.2659 0.405
20.2962 -0.472
20.3265 0.318
20.3568 0.067
20.3871 0.753
20.4173 0.347
20.4476 0.774
20.4779 0.264
20.5082 0.327
20.5385 -0.235
20.5687 0.558
20.5990 0.206
20.6293 0.270
20.6596 0.283
20.6899 0.036
20.7201 0.519
20.7504 0.793
20.7807 0.964
20.8110 0.197
20.8412 -0.100
20.8715 0.696
20.9018 0.660
20.9321 0.989
20.9624 0.172
20.9926 0.293
21.0229 1.040
21.0532 0.589
21.0835 -0.070
21.1138 -0.312
21.1440 -0.018
21.1743 0.172
21.2046 0.623
21.2349 0.501
21.2651 0.484
21.2954 0.572
21.3257 0.399
21.3560 0.592
21.3863 1.045
21.4165 0.405
21.4468 0.755
21.4771 0.167
21.5074 0.258
21.5377 -0.016
21.5679 0.283
21.5982 0.686
21.6285 0.830
21.6588 -0.172
21.6890 0.337
21.7193 0.690
21.7496 0.679
21.7799 -0.686
21.8102 0.189
21.8404 0.232
21.8707 -0.038
21.9010 -0.412
21.9313 0.620
21.9616 -0.169
21.9918 0.343
22.0221 -0.342
22.0524 -0.558
22.0827 0.788
22.1129 0.051
22.1432 0.148
22.1735 -0.171
22.2038 -0.021
22.2341 -0.183
22.2643 -0.397
22.2946 0.431
22.3249 -0.251
22.3552 0.317
22.3855 0.261
22.4157 0.517
22.4460 -0.528
22.4763 -0.271
22.5066 -0.326
22.5368 -0.067
22.5671 -0.278
22.5974 -0.123
22.6277 0.136
22.6580 0.395
22.6882 0.916
22.7185 0.134
22.7488 0.499
22.7791 0.343
22.8094 -0.072
22.8396 -0.436
22.8699 0.295
22.9002 -0.380
22.9305 -0.169
22.9607 0.406
22.9910 0.045
23.0213 -0.056
23.0516 0.521
23.0819 0.213
23.1121 0.894
23.1424 -0.246
23.1727 -0.033
23.2030 -0.392
23.2333 0.135
23.2635 0.090
23.2938 0.565
23.3241 -0.001
23.3544 -0.149
23.3846 0.119
23.4149 -0.342
23.4452 -0.289
23.4755 -0.027
23.5058 0.027
23.5360 0.706
23.5663 -0.333
23.5966 -0.382
23.6269 1.027
23.6572 -0.740
23.6874 0.253
23.7177 -0.316
23.7480 -0.155
23.7783 0.267
23.8086 0.324
23.8388 0.486
23.8691 0.545
23.8994 0.395
23.9297 -0.171
23.9599 -0.373
23.9902 1.093
24.0205 0.320
24.0508 -0.036
24.0811 0.129
24.1113 -0.800
24.1416 0.095
24.1719 -0.104
24.2022 0.063
24.2325 0.594
24.2627 0.084
24.2930 0.200
24.3233 0.367
24.3536 0.015
24.3838 -0.338
24.4141 0.027
24.4444 0.027
24.4747 0.496
24.5050 -0.077
24.5352 0.341
24.5655 0.238
24.5958 0.397
24.6261 0.399
24.6564 0.297
24.6866 0.248
24.7169 0.407
24.7472 -0.058
24.7775 0.311
24.8077 0.263
24.8380 -0.357
24.8683 0.325
24.8986 0.070
24.9289 0.388
24.9591 0.134
24.9894 -0.172
25.0197 -0.321
25.0500 -0.222
25.0803 0.554
25.1105 -0.076
25.1408 0.597
25.1711 -0.136
25.2014 0.902
25.2316 -0.143
25.2619 0.271
25.2922 -0.252
25.3225 -0.150
25.3528 0.473
25.3830 0.993
25.4133 0.210
25.4436 0.158
25.4739 -0.520
25.5042 -0.110
25.5344 -0.325
25.5647 -0.230
25.5950 -0.030
25.6253 0.067
25.6555 -0.045
25.6858 0.625
25.7161 0.097
25.7464 -0.378
25.7767 0.189
25.8069 0.236
25.8372 -0.238
25.8675 0.538
25.8978 0.794
25.9281 -0.356
25.9583 -0.100
25.9886 -0.416
26.0189 0.138
26.0492 -0.297
26.0794 0.570
26.1097 0.344
26.1400 0.848
26.1703 -0.211
26.2006 0.033
26.2308 0.902
26.2611 0.105
26.2914 0.506
26.3217 -0.343
26.3520 0.059
26.3822 0.357
26.4125 -0.855
26.4428 -0.035
26.4731 0.576
26.5034 -0.478
26.5336 -0.074
26.5639 0.226
26.5942 -0.255
26.6245 0.411
26.6547 -0.017
26.6850 -0.184
26.7153 0.430
26.7456 0.368
26.7759 -0.058
26.8061 0.141
26.8364 -0.024
26.8667 0.019
26.8970 -0.406
26.9273 0.472
26.9575 -0.265
26.9878 0.978
27.0181 0.190
27.0484 -0.441
27.0786 0.386
27.1089 0.172
27.1392 0.219
27.1695 0.162
27.1998 0.157
27.2300 0.622
27.2603 -0.424
27.2906 0.562
27.3209 -0.378
27.3512 0.036
27.3814 0.554
27.4117 0.292
27.4420 0.603
27.4723 0.393
27.5025 0.027
27.5328 -0.390
27.5631 0.019
27.5934 0.741
27.6237 0.109
27.6539 -0.211
27.6842 0.512
27.7145 -0.067
27.7448 -0.385
27.7751 0.964
27.8053 0.542
27.8356 -0.295
27.8659 -0.091
27.8962 -0.408
27.9264 1.047
27.9567 -0.518
27.9870 0.416
28.0173 0.466
28.0476 0.256
28.0778 0.098
28.1081 -0.372
28.1384 -0.127
28.1687 0.015
28.1990 -0.989
28.2292 0.032
28.2595 0.273
28.2898 -0.372
28.3201 0.650
28.3503 -0.202
28.3806 0.352
28.4109 -0.812
28.4412 0.472
28.4715 -0.431
28.5017 -0.396
28.5320 0.524
28.5623 -0.898
28.5926 -0.342
28.6229 -0.305
28.6531 0.877
28.6834 0.341
28.7137 -0.038
28.7440 0.156
28.7742 -0.222
28.8045 0.129
28.8348 0.063
28.8651 -0.054
28.8954 0.611
28.9256 -0.287
28.9559 -0.194
28.9862 -0.049
29.0165 0.044
29.0468 -0.279
29.0770 -0.394
29.1073 -0.403
29.1376 0.158
29.1679 0.459
29.1981 -0.125
29.2284 -0.188
29.2587 -0.407
29.2890 -0.110
29.3193 0.136
29.3495 0.017
29.3798 -0.571
29.4101 0.249
29.4404 -1.067
29.4707 -0.203
29.5009 -0.171
29.5312 0.382
29.5615 0.414
29.5918 0.186
29.6221 -0.094
29.6523 -0.165
29.6826 0.598
29.7129 0.476
29.7432 0.458
29.7734 0.493
29.8037 0.059
29.8340 -0.426
29.8643 -0.040
29.8946 0.191
29.9248 0.058
29.9551 0.446
29.9854 -0.051
30.0157 -0.184
30.0460 0.153
30.0762 0.439
30.1065 -0.161
30.1368 -0.032
30.1671 -0.579
30.1973 0.750
30.2276 0.099
30.2579 0.178
30.2882 0.570
30.3185 -0.548
30.3487 -0.416
30.3790 -0.023
30.4093 0.319
30.4396 0.712
30.4699 1.106
30.5001 0.199
30.5304 0.489
30.5607 0.781
30.5910 1.176
30.6212 0.374
30.6515 0.250
30.6818 0.959
30.7121 1.408
30.7424 1.076
30.7726 2.412
30.8029 1.924
30.8332 2.167
30.8635 1.628
30.8938 1.767
30.9240 2.739
30.9543 2.879
30.9846 3.592
31.0149 4.826
31.0451 6.164
31.0754 5.264
31.1057 7.020
31.1360 7.734
31.1663 7.877
31.1965 7.498
31.2268 10.610
31.2571 12.003
31.2874 10.845
31.3177 15.468
31.3479 17.071
31.3782 18.778
31.4085 21.787
31.4388 24.693
31.4690 28.016
31.4993 35.350
31.5296 35.653
31.5599 41.216
31.5902 45.218
31.6204 44.845
31.6507 44.888
31.6810 43.526
31.7113 43.311
31.7416 39.241
31.7718 36.370
31.8021 31.832
31.8324 28.597
31.8627 22.654
31.8929 19.159
31.9232 19.154
31.9535 15.035
31.9838 13.260
32.0141 12.683
32.0443 9.294
32.0746 9.604
32.1049 7.882
32.1352 6.057
32.1655 6.471
32.1957 5.428
32.2260 5.635
32.2563 4.280
32.2866 3.498
32.3169 3.498
32.3471 3.186
32.3774 1.780
32.4077 2.511
32.4380 1.470
32.4682 2.878
32.4985 1.995
32.5288 0.747
32.5591 0.802
32.5894 1.795
32.6196 1.121
32.6499 0.083
32.6802 0.869
32.7105 -0.272
32.7408 1.347
32.7710 0.728
32.8013 0.629
32.8316 -0.458
32.8619 -0.191
32.8921 -0.080
32.9224 0.135
32.9527 -0.118
32.9830 -0.370
33.0133 -0.154
33.0435 0.845
33.0738 0.125
33.1041 -0.127
33.1344 0.456
33.1647 -0.471
33.1949 0.789
33.2252 -0.294
33.2555 0.551
33.2858 -0.479
33.3160 0.523
33.3463 0.535
33.3766 -0.494
33.4069 -0.480
33.4372 0.491
33.4674 0.422
33.4977 0.092
33.5280 1.794
33.5583 0.892
33.5886 1.188
33.6188 1.172
33.6491 1.625
33.6794 1.923
33.7097 2.273
33.7399 2.310
33.7702 3.077
33.8005 2.803
33.8308 4.821
33.8611 3.454
33.8913 4.015
33.9216 4.680
33.9519 7.012
33.9822 6.844
34.0125 8.656
34.0427 10.260
34.0730 13.010
34.1033 14.562
34.1336 19.136
34.1638 23.502
34.1941 29.951
34.2244 41.974
34.2547 50.039
34.2850 56.593
34.3152 58.357
34.3455 48.089
34.3758 46.572
34.4061 38.129
34.4364 29.216
34.4666 21.659
34.4969 16.654
34.5272 12.899
34.5575 12.373
34.5877 9.088
34.6180 9.345
34.6483 5.019
34.6786 6.318
34.7089 5.690
34.7391 3.240
34.7694 5.061
34.7997 3.393
34.8300 3.496
34.8603 2.766
34.8905 2.974
34.9208 2.453
34.9511 2.714
34.9814 3.079
35.0116 2.247
35.0419 2.092
35.0722 2.041
35.1025 2.564
35.1328 3.869
35.1630 4.236
35.1933 2.052
35.2236 2.525
35.2539 2.372
35.2842 5.293
35.3144 4.933
35.3447 3.220
35.3750 5.152
35.4053 3.700
35.4356 3.654
35.4658 6.577
35.4961 7.782
35.5264 7.789
35.5567 9.568
35.5869 8.743
35.6172 9.011
35.6475 11.781
35.6778 12.363
35.7081 12.841
35.7383 13.632
35.7686 17.601
35.7989 18.028
35.8292 23.612
35.8595 27.113
35.8897 30.978
35.9200 36.147
35.9503 41.628
35.9806 43.412
36.0108 53.685
36.0411 58.074
36.0714 60.640
36.1017 68.623
36.1320 71.971
36.1622 67.611
36.1925 64.761
36.2228 56.808
36.2531 55.106
36.2834 51.060
36.3136 45.504
36.3439 36.146
36.3742 33.716
36.4045 30.609
36.4347 25.679
36.4650 21.062
36.4953 17.227
36.5256 16.517
36.5559 14.037
36.5861 11.193
36.6164 8.817
36.6467 9.151
36.6770 7.401
36.7073 7.058
36.7375 6.872
36.7678 4.030
36.7981 5.563
36.8284 5.482
36.8586 3.839
36.8889 3.394
36.9192 4.251
36.9495 2.349
36.9798 1.592
37.0100 2.451
37.0403 2.268
37.0706 1.253
37.1009 1.852
37.1312 2.035
37.1614 1.229
37.1917 0.892
37.2220 0.919
37.2523 1.364
37.2825 2.226
37.3128 0.849
37.3431 0.826
37.3734 0.387
37.4037 0.469
37.4339 0.031
37.4642 0.687
37.4945 0.301
37.5248 0.489
37.5551 -0.364
37.5853 1.126
37.6156 0.169
37.6459 0.150
37.6762 0.340
37.7064 -0.408
37.7367 0.356
37.7670 0.182
37.7973 0.321
37.8276 -0.790
37.8578 -0.181
37.8881 0.115
37.9184 0.047
37.9487 -0.020
37.9790 -0.400
38.0092 0.037
38.0395 0.995
38.0698 0.494
38.1001 0.568
38.1304 0.485
38.1606 0.403
38.1909 -0.148
38.2212 0.239
38.2515 -0.050
38.2817 0.181
38.3120 0.153
38.3423 -0.031
38.3726 -0.059
38.4029 0.018
38.4331 0.772
38.4634 0.277
38.4937 -0.114
38.5240 0.173
38.5543 0.356
38.5845 0.383
38.6148 0.462
38.6451 0.126
38.6754 0.466
38.7056 0.078
38.7359 0.107
38.7662 0.188
38.7965 0.062
38.8268 0.612
38.8570 0.018
38.8873 1.038
38.9176 0.288
38.9479 0.111
38.9782 -0.430
39.0084 0.383
39.0387 0.051
39.0690 -0.385
39.0993 0.794
39.1295 -0.005
39.1598 0.601
39.1901 0.323
39.2204 0.410
39.2507 0.393
39.2809 -0.144
39.3112 -0.317
39.3415 0.149
39.3718 0.303
39.4021 0.665
39.4323 0.299
39.4626 -0.640
39.4929 -0.121
39.5232 0.295
39.5534 0.347
39.5837 0.451
39.6140 0.400
39.6443 -0.225
39.6746 0.089
39.7048 -0.118
39.7351 -0.168
39.7654 0.303
39.7957 -0.268
39.8260 -0.317
39.8562 0.204
39.8865 0.152
39.9168 -0.056
39.9471 -0.055
39.9773 -0.627
40.0076 0.468
40.0379 0.158
40.0682 0.212
40.0985 -0.410
40.1287 0.686
40.1590 -0.092
40.1893 0.641
40.2196 -0.188
40.2499 0.129
40.2801 0.707
40.3104 0.348
40.3407 0.301
40.3710 0.151
40.4012 0.209
40.4315 -0.409
40.4618 0.119
40.4921 0.647
40.5224 0.342
40.5526 0.715
40.5829 -0.110
40.6132 -0.153
40.6435 0.690
40.6738 0.387
40.7040 -0.124
40.7343 0.303
40.7646 -0.311
40.7949 -0.249
40.8251 -0.187
40.8554 0.657
40.8857 -0.061
40.9160 0.836
40.9463 0.275
40.9765 0.079
41.0068 -0.169
41.0371 0.365
41.0674 0.014
41.0977 -0.494
41.1279 0.021
41.1582 0.118
41.1885 -0.304
41.2188 0.367
41.2491 -0.002
41.2793 0.514
41.3096 -0.064
41.3399 -0.016
41.3702 -0.697
41.4004 0.654
41.4307 0.339
41.4610 -0.549
41.4913 0.334
41.5216 0.124
41.5518 0.018
41.5821 0.121
41.6124 0.328
41.6427 -0.245
41.6730 -0.141
41.7032 0.537
41.7335 -0.088
41.7638 0.174
41.7941 0.175
41.8243 -0.500
41.8546 0.127
41.8849 -0.183
41.9152 0.393
41.9455 0.084
41.9757 0.191
42.0060 0.091
42.0363 -0.061
42.0666 -0.160
42.0969 -0.311
42.1271 0.209
42.1574 0.106
42.1877 0.159
42.2180 0.056
42.2482 0.370
42.2785 -0.358
42.3088 0.217
42.3391 0.168
42.3694 0.119
42.3996 -0.295
42.4299 -0.083
42.4602 0.702
42.4905 -0.388
42.5208 -0.071
42.5510 -0.379
42.5813 0.355
42.6116 0.517
42.6419 1.043
42.6721 0.372
42.7024 -0.403
42.7327 -0.135
42.7630 -0.128
42.7933 0.661
42.8235 -0.217
42.8538 0.104
42.8841 0.113
42.9144 0.122
42.9447 -0.337
42.9749 -0.088
43.0052 -0.099
43.0355 -0.370
43.0658 0.557
43.0960 -0.390
43.1263 0.121
43.1566 0.164
43.1869 -0.053
43.2172 -0.426
43.2474 0.243
43.2777 0.027
43.3080 0.749
43.3383 -0.508
43.3686 0.423
43.3988 0.208
43.4291 0.150
43.4594 -0.116
43.4897 -0.121
43.5199 0.135
43.5502 -0.495
43.5805 0.022
43.6108 -0.138
43.6411 -0.141
43.6713 -0.040
43.7016 -0.094
43.7319 0.112
43.7622 -0.202
43.7925 -0.100
43.8227 0.681
43.8530 0.211
43.8833 -0.779
43.9136 0.107
43.9439 0.368
43.9741 -0.309
44.0044 0.890
44.0347 -0.254
44.0650 -0.252
44.0952 -0.042
44.1255 0.013
44.1558 -0.140
44.1861 0.332
44.2164 -0.133
44.2466 -0.858
44.2769 0.180
44.3072 -0.396
44.3375 0.226
44.3678 0.224
44.3980 0.222
44.4283 0.012
44.4586 0.220
44.4889 -0.250
44.5191 -0.198
44.5494 0.166
44.5797 -0.198
44.6100 0.375
44.6403 0.012
44.6705 -0.299
44.7008 0.012
44.7311 0.427
44.7614 0.062
44.7917 0.218
44.8219 -0.199
44.8522 0.270
44.8825 -0.354
44.9128 0.012
44.9430 -0.299
44.9733 0.000
45.0036 -0.065
45.0339 -0.442
45.0642 0.120
45.0944 -0.412
45.1247 -0.007
45.1550 0.243
45.1853 0.702
45.2156 0.536
45.2458 0.162
45.2761 0.309
45.3064 -0.272
45.3367 0.136
45.3669 0.232
45.3972 -0.296
45.4275 0.322
45.4578 0.471
45.4881 0.308
45.5183 -0.114
45.5486 0.140
45.5789 0.083
45.6092 0.026
45.6395 0.386
45.6697 0.590
45.7000 0.117
45.7303 0.634
45.7606 0.996
45.7908 0.316
45.8211 -0.728
45.8514 -0.277
45.8817 0.540
45.9120 0.055
45.9422 0.299
45.9725 0.387
46.0028 0.320
46.0331 0.565
46.0634 0.290
46.0936 0.901
46.1239 -0.468
46.1542 -0.169
46.1845 -0.286
46.2147 0.066
46.2450 -0.572
46.2753 -0.011
46.3056 0.342
46.3359 0.071
46.3661 -0.044
46.3964 0.363
46.4267 -0.220
46.4570 0.708
46.4873 -0.083
46.5175 1.523
46.5478 0.629
46.5781 0.465
46.6084 0.822
46.6386 0.085
46.6689 0.599
46.6992 0.853
46.7295 0.951
46.7598 1.153
46.7900 1.096
46.8203 0.778
46.8506 1.815
46.8809 1.029
46.9112 3.161
46.9414 1.074
46.9717 2.789
47.0020 2.161
47.0323 2.940
47.0626 3.198
47.0928 3.925
47.1231 5.799
47.1534 4.860
47.1837 6.474
47.2139 8.245
47.2442 7.932
47.2745 9.547
47.3048 11.006
47.3351 12.101
47.3653 13.301
47.3956 13.459
47.4259 13.773
47.4562 13.828
47.4865 11.487
47.5167 12.011
47.5470 11.703
47.5773 9.363
47.6076 7.805
47.6378 6.976
47.6681 8.335
47.6984 6.466
47.7287 5.430
47.7590 3.561
47.7892 3.568
47.8195 2.013
47.8498 2.124
47.8801 1.976
47.9104 2.452
47.9406 1.784
47.9709 1.168
48.0012 1.489
48.0315 0.040
48.0617 0.884
48.0920 1.050
48.1223 1.113
48.1526 0.082
48.1829 1.135
48.2131 0.470
48.2434 0.795
48.2737 0.182
48.3040 0.560
48.3343 0.052
48.3645 1.055
48.3948 0.027
48.4251 -0.062
48.4554 0.057
48.4856 -0.033
48.5159 0.400
48.5462 0.519
48.5765 0.119
48.6068 -0.177
48.6370 0.829
48.6673 -0.091
48.6976 0.031
48.7279 -0.003
48.7582 0.067
48.7884 -0.278
48.8187 -0.363
48.8490 0.322
48.8793 0.122
48.9095 0.339
48.9398 -0.121
48.9701 -0.216
49.0004 0.107
49.0307 -0.248
49.0609 0.180
49.0912 0.086
49.1215 0.462
49.1518 -0.099
49.1821 0.330
49.2123 0.186
49.2426 -0.062
49.2729 0.680
49.3032 -0.244
49.3334 -0.021
49.3637 -0.163
49.3940 -0.149
49.4243 -0.290
49.4546 0.033
49.4848 0.305
49.5151 0.316
49.5454 -0.037
49.5757 -0.285
49.6060 0.021
49.6362 0.120
49.6665 0.271
49.6968 -0.359
49.7271 0.521
49.7574 0.257
49.7876 -0.216
49.8179 0.250
49.8482 0.142
49.8785 -0.381
49.9087 0.554
49.9390 0.083
49.9693 -0.023
49.9996 -0.128
50.0299 0.027
50.0601 -0.130
50.0904 0.026
50.1207 0.027
50.1510 -0.442
50.1813 0.026
50.2115 -0.287
50.2418 -0.184
50.2721 0.702
50.3024 0.181
50.3326 0.234
50.3629 0.079
50.3932 0.445
50.4235 0.186
50.4538 -0.124
50.4840 0.086
50.5143 0.662
50.5446 1.082
50.5749 0.044
50.6052 0.465
50.6354 -0.573
50.6657 -0.047
50.6960 -0.355
50.7263 0.119
50.7565 0.490
50.7868 -0.285
50.8171 -0.435
50.8474 0.613
50.8777 0.360
50.9079 -0.101
50.9382 0.011
50.9685 0.123
50.9988 -0.337
51.0291 -0.086
51.0593 0.479
51.0896 0.210
51.1199 0.411
51.1502 -0.170
51.1804 -0.437
51.2107 0.338
51.2410 -0.606
51.2713 0.846
51.3016 0.112
51.3318 0.731
51.3621 0.362
51.3924 -0.320
51.4227 0.145
51.4530 0.089
51.4832 -0.122
51.5135 0.291
51.5438 -0.388
51.5741 0.234
51.6043 0.076
51.6346 -0.550
51.6649 0.126
51.6952 0.438
51.7255 0.229
51.7557 0.072
51.7860 0.073
51.8163 -0.135
51.8466 -0.290
51.8769 -0.081
51.9071 0.128
51.9374 0.078
51.9677 -0.389
51.9980 -0.031
52.0282 0.328
52.0585 0.270
52.0888 -0.620
52.1191 0.000
52.1494 -0.057
52.1796 0.252
52.2099 -0.012
52.2402 -0.015
52.2705 -0.174
52.3008 -0.021
52.3310 -0.335
52.3613 0.236
52.3916 0.339
52.4219 0.129
52.4521 -0.132
52.4824 -0.236
52.5127 0.180
52.5430 0.754
52.5733 0.129
52.6035 0.547
52.6338 0.028
52.6641 0.238
52.6944 -0.228
52.7247 -0.278
52.7549 0.194
52.7852 -0.167
52.8155 0.097
52.8458 0.205
52.8761 -0.468
52.9063 -0.158
52.9366 0.100
52.9669 0.098
52.9972 -0.268
53.0274 0.252
53.0577 0.147
53.0880 0.511
53.1183 -0.271
53.1486 0.146
53.1788 0.668
53.2091 0.408
53.2394 0.045
53.2697 0.307
53.3000 -0.212
53.3302 0.468
53.3605 -0.207
53.3908 0.109
53.4211 0.373
53.4513 0.169
53.4816 0.329
53.5119 0.282
53.5422 -0.078
53.5725 0.084
53.6027 0.506
53.6330 -0.530
53.6633 0.571
53.6936 0.525
53.7239 0.012
53.7541 -0.189
53.7844 -0.285
53.8147 0.064
53.8450 0.206
53.8752 -0.329
53.9055 0.178
53.9358 0.061
53.9661 -0.160
53.9964 0.139
54.0266 0.440
54.0569 0.272
54.0872 0.104
54.1175 0.093
54.1478 -0.335
54.1780 -0.033
54.2083 0.113
54.2386 -0.417
54.2689 -0.010
54.2991 -0.019
54.3294 -0.027
54.3597 -0.192
54.3900 -0.304
54.4203 0.037
54.4505 0.431
54.4808 0.148
54.5111 0.594
54.5414 0.052
54.5717 0.395
54.6019 -0.408
54.6322 -0.220
54.6625 0.020
54.6928 -0.417
54.7230 0.657
54.7533 0.117
54.7836 0.098
54.8139 -0.494
54.8442 -0.044
54.8744 -0.270
54.9047 -0.392
54.9350 0.372
54.9653 -0.166
54.9956 0.546
55.0258 0.061
55.0561 -0.007
55.0864 0.238
55.1167 -0.558
55.1469 0.781
55.1772 0.402
55.2075 -0.342
55.2378 -0.407
55.2681 0.726
55.2983 0.453
55.3286 0.233
55.3589 0.690
55.3892 0.157
55.4195 -0.635
55.4497 0.188
55.4800 -0.031
55.5103 0.115
55.5406 0.731
55.5709 0.721
55.6011 0.400
55.6314 1.173
55.6617 0.488
55.6920 0.688
55.7222 0.733
55.7525 1.767
55.7828 1.500
55.8131 1.077
55.8434 1.228
55.8736 1.378
55.9039 2.780
55.9342 2.671
55.9645 2.458
55.9948 2.193
56.0250 2.554
56.0553 3.801
56.0856 5.152
56.1159 4.733
56.1461 7.022
56.1764 6.916
56.2067 7.696
56.2370 8.945
56.2673 9.517
56.2975 9.568
56.3278 11.704
56.3581 14.569
56.3884 15.455
56.4187 17.122
56.4489 17.176
56.4792 16.344
56.5095 17.284
56.5398 15.464
56.5700 17.289
56.6003 15.001
56.6306 11.567
56.6609 11.519
56.6912 10.013
56.7214 8.455
56.7517 7.367
56.7820 7.945
56.8123 6.232
56.8426 5.561
56.8728 5.568
56.9031 4.585
56.9334 3.447
56.9637 3.194
56.9939 2.837
57.0242 3.367
57.0545 2.438
57.0848 2.551
57.1151 2.508
57.1453 1.477
57.1756 1.435
57.2059 1.237
57.2362 1.873
57.2665 0.895
57.2967 0.646
57.3270 0.294
57.3573 0.046
57.3876 0.319
57.4178 0.749
57.4481 0.606
57.4784 0.984
57.5087 0.218
57.5390 0.597
57.5692 0.091
57.5995 0.106
57.6298 0.643
57.6601 -0.591
57.6904 -0.262
57.7206 -0.193
57.7509 0.032
57.7812 -0.262
57.8115 0.485
57.8417 -0.226
57.8720 0.522
57.9023 -0.397
57.9326 -0.221
57.9629 0.163
57.9931 -0.390
58.0234 -0.127
58.0537 -0.229
58.0840 -0.018
58.1143 -0.016
58.1445 -0.273
58.1748 0.252
58.2051 0.204
58.2354 0.312
58.2656 -0.204
58.2959 0.114
58.3262 0.067
58.3565 0.073
58.3868 -0.337
58.4170 -0.024
58.4473 -0.648
58.4776 0.447
58.5079 -0.019
58.5382 -0.225
58.5684 -0.066
58.5987 -0.011
58.6290 0.148
58.6593 -0.212
58.6896 -0.312
58.7198 0.004
58.7501 -0.564
58.7804 0.274
58.8107 -0.502
58.8409 0.285
58.8712 0.552
58.9015 0.298
58.9318 -0.008
58.9621 -0.105
58.9923 -0.201
59.0226 0.015
59.0529 -0.237
59.0832 -0.281
59.1135 -0.480
59.1437 0.363
59.1740 0.112
59.2043 0.018
59.2346 0.081
59.2648 -0.169
59.2951 -0.418
59.3254 0.792
59.3557 -0.134
59.3860 0.087
59.4162 0.047
59.4465 0.008
59.4768 0.491
59.5071 0.296
59.5374 -0.263
59.5676 0.325
59.5979 -0.337
59.6282 -0.290
59.6585 0.376
59.6887 0.731
59.7190 0.252
59.7493 -0.070
59.7796 -0.079
59.8099 0.172
59.8401 -0.253
59.8704 0.103
59.9007 -0.009
59.9310 0.140
59.9613 -0.075
59.9915 -0.082
60.0218 0.277
60.0521 -0.511
60.0824 0.109
60.1126 0.468
60.1429 0.568
60.1732 -0.322
60.2035 0.403
60.2338 0.399
60.2640 -0.229
60.2943 -0.180
60.3246 0.130
60.3549 0.388
60.3852 0.334
60.4154 -0.241
60.4457 -0.242
60.4760 -0.034
60.5063 0.017
60.5365 0.226
60.5668 0.434
60.5971 -0.398
60.6274 0.071
60.6577 -0.031
60.6879 1.012
60.7182 0.285
60.7485 -0.337
60.7788 -0.236
60.8091 -0.291
60.8393 -0.189
60.8696 0.018
60.8999 0.329
60.9302 -0.245
60.9604 1.056
60.9907 -0.299
61.0210 0.535
61.0513 0.118
61.0816 0.328
61.1118 -0.244
61.1421 0.486
61.1724 0.019
61.2027 0.074
61.2330 0.180
61.2632 -0.337
61.2935 -0.149
61.3238 -0.220
61.3541 0.439
61.3844 0.733
61.4146 -0.379
61.4449 0.281
61.4752 -0.049
61.5055 0.246
61.5357 0.647
61.5660 -0.099
61.5963 0.719
61.6266 0.130
61.6569 0.532
61.6871 0.465
61.7174 0.503
61.7477 -0.136
61.7780 0.267
61.8083 0.514
61.8385 0.345
61.8688 0.437
61.8991 0.581
61.9294 0.413
61.9596 0.454
61.9899 1.016
62.0202 1.109
62.0505 0.370
62.0808 1.766
62.1110 1.392
62.1413 1.383
62.1716 1.426
62.2019 1.939
62.2322 2.556
62.2624 2.183
62.2927 2.957
62.3230 2.638
62.3533 4.246
62.3835 3.927
62.4138 4.025
62.4441 5.530
62.4744 6.202
62.5047 7.395
62.5349 7.860
62.5652 11.085
62.5955 10.352
62.6258 11.703
62.6561 13.158
62.6863 12.426
62.7166 14.872
62.7469 15.079
62.7772 13.671
62.8074 12.784
62.8377 11.950
62.8680 11.273
62.8983 10.856
62.9286 10.648
62.9588 9.295
62.9891 7.942
63.0194 7.110
63.0497 6.695
63.0800 6.124
63.1102 5.606
63.1405 3.943
63.1708 4.310
63.2011 3.064
63.2313 1.818
63.2616 2.812
63.2919 2.244
63.3222 2.353
63.3525 1.265
63.3827 2.521
63.4130 1.069
63.4433 0.242
63.4736 1.551
63.5039 1.038
63.5341 0.785
63.5644 0.272
63.5947 0.697
63.6250 0.915
63.6552 -0.118
63.6855 0.777
63.7158 0.058
63.7461 0.745
63.7764 0.652
63.8066 0.819
63.8369 0.622
63.8672 -0.043
63.8975 0.386
63.9278 0.502
63.9580 -0.162
63.9883 0.580
64.0186 -0.239
64.0489 0.296
64.0791 0.258
64.1094 0.220
64.1397 -0.390
64.1700 -0.168
64.2003 -0.154
64.2305 -0.244
64.2608 -0.073
64.2911 0.410
64.3214 0.217
64.3517 0.180
64.3819 -0.116
64.4122 -0.308
64.4425 0.000
64.4728 -0.108
64.5031 0.878
64.5333 -0.062
64.5636 0.091
64.5939 0.141
64.6242 0.191
64.6544 -0.280
64.6847 -0.229
64.7150 -0.282
64.7453 0.291
64.7756 0.343
64.8058 0.291
64.8361 -0.230
64.8664 0.344
64.8967 0.293
64.9270 -0.382
64.9572 0.297
64.9875 0.039
65.0178 0.354
65.0481 -0.736
65.0783 0.309
65.1086 0.104
65.1389 -0.308
65.1692 -0.220
65.1995 0.077
65.2297 0.114
65.2600 -0.162
65.2903 -0.020
65.3206 0.122
65.3509 -0.516
65.3811 0.199
65.4114 0.290
65.4417 0.121
65.4720 0.578
65.5022 -0.163
65.5325 0.346
65.5628 -0.238
65.5931 0.116
65.6234 -0.364
65.6536 -0.075
65.6839 -0.359
65.7142 0.660
65.7445 -0.248
65.7748 0.198
65.8050 0.020
65.8353 0.310
65.8656 0.498
65.8959 0.425
65.9261 -0.117
65.9564 0.123
65.9867 0.937
66.0170 1.022
66.0473 0.430
66.0775 0.775
66.1078 1.382
66.1381 1.781
66.1684 1.555
66.1987 1.017
66.2289 2.146
66.2592 1.712
66.2895 0.290
66.3198 1.681
66.3500 0.884
66.3803 0.504
66.4106 1.219
66.4409 0.788
66.4712 1.399
66.5014 1.750
66.5317 0.591
66.5620 1.411
66.5923 0.305
66.6226 0.553
66.6528 -0.083
66.6831 -0.043
66.7134 0.519
66.7437 -0.273
66.7739 -0.127
66.8042 0.020
66.8345 0.427
66.8648 -0.416
66.8951 -0.060
66.9253 -0.225
66.9556 0.653
66.9859 0.228
67.0162 0.273
67.0465 -0.619
67.0767 0.832
67.1070 1.139
67.1373 0.404
67.1676 0.607
67.1978 0.341
67.2281 0.753
67.2584 1.374
67.2887 1.786
67.3190 1.053
67.3492 1.467
67.3795 1.308
67.4098 2.607
67.4401 3.594
67.4704 2.916
67.5006 3.279
67.5309 3.850
67.5612 3.433
67.5915 6.089
67.6218 4.787
67.6520 6.558
67.6823 6.246
67.7126 7.602
67.7429 7.968
67.7731 9.428
67.8034 9.326
67.8337 8.131
67.8640 9.123
67.8943 8.501
67.9245 9.182
67.9548 8.197
67.9851 7.680
68.0154 7.893
68.0457 6.701
68.0759 6.081
68.1062 5.514
68.1365 3.802
68.1668 5.423
68.1970 3.607
68.2273 3.770
68.2576 3.466
68.2879 2.953
68.3182 2.076
68.3484 1.720
68.3787 2.250
68.4090 2.468
68.4393 2.426
68.4696 2.593
68.4998 2.134
68.5301 1.729
68.5604 1.324
68.5907 1.804
68.6209 2.650
68.6512 3.079
68.6815 3.144
68.7118 3.365
68.7421 3.327
68.7723 3.289
68.8026 3.511
68.8329 3.838
68.8632 3.281
68.8935 3.609
68.9237 3.676
68.9540 4.005
68.9843 3.970
69.0146 3.830
69.0448 3.535
69.0751 3.396
69.1054 2.737
69.1357 3.172
69.1660 2.410
69.1962 1.700
69.2265 2.344
69.2568 3.302
69.2871 1.759
69.3174 2.405
69.3476 2.061
69.3779 2.395
69.4082 1.323
69.4385 1.189
69.4687 0.170
69.4990 0.609
69.5293 0.632
69.5596 0.239
69.5899 0.263
69.6201 -0.025
69.6504 0.208
69.6807 0.545
69.7110 0.362
69.7413 0.440
69.7715 0.466
69.8018 0.336
69.8321 -0.002
69.8624 0.130
69.8926 -0.468
69.9229 -0.084
69.9532 0.612
69.9835 -0.098
70.0138 0.130
70.0440 0.046
70.0743 -0.090
70.1046 0.504
70.1349 -0.361
70.1652 0.807
70.1954 -0.005
70.2257 -0.139
70.2560 0.353
70.2863 -0.041
70.3166 0.399
70.3468 -0.046
70.3771 -0.178
70.4074 -0.153
70.4377 0.392
70.4679 -0.364
70.4982 0.026
70.5285 0.573
70.5588 0.183
70.5891 -0.311
70.6193 -0.153
70.6496 0.735
70.6799 -0.200
70.7102 -0.093
70.7405 -0.089
70.7707 0.227
70.8010 0.283
70.8313 -0.181
70.8616 0.032
70.8918 0.194
70.9221 0.252
70.9524 0.049
70.9827 0.264
71.0130 0.583
71.0432 -0.243
71.0735 0.702
71.1038 0.345
71.1341 0.614
71.1644 -0.211
71.1946 0.371
71.2249 0.329
71.2552 0.494
71.2855 -0.225
71.3157 0.515
71.3460 -0.203
71.3763 -0.244
71.4066 -0.049
71.4369 0.043
71.4671 0.291
71.4974 0.123
71.5277 0.007
71.5580 0.778
71.5883 0.767
71.6185 -0.441
71.6488 -0.139
71.6791 0.216
71.7094 -0.054
71.7396 0.250
71.7699 0.242
71.8002 0.390
71.8305 0.174
71.8608 0.323
71.8910 -0.518
71.9213 0.205
71.9516 0.198
71.9819 -0.120
72.0122 0.187
72.0424 0.338
72.0727 0.385
72.1030 -0.140
72.1333 0.116
72.1635 0.685
72.1938 0.213
72.2241 0.627
72.2544 0.677
72.2847 0.622
72.3149 0.099
72.3452 0.254
72.3755 1.138
72.4058 0.929
72.4361 -0.009
72.4663 0.148
72.4966 1.190
72.5269 1.086
72.5572 0.618
72.5874 0.464
72.6177 0.413
72.6480 0.936
72.6783 0.418
72.7086 0.629
72.7388 0.164
72.7691 0.272
72.7994 0.067
72.8297 -0.033
72.8600 -0.028
72.8902 -0.179
72.9205 -0.226
72.9508 -0.116
72.9811 0.151
73.0113 -0.363
73.0416 -0.100
73.0719 -0.253
73.1022 -0.198
73.1325 -0.090
73.1627 0.018
73.1930 -0.029
73.2233 0.236
73.2536 -0.436
73.2839 0.559
73.3141 0.201
73.3444 0.155
73.3747 -0.255
73.4050 -0.147
73.4353 0.066
73.4655 0.019
73.4958 0.077
73.5261 -0.282
73.5564 0.245
73.5866 0.043
73.6169 0.414
73.6472 0.213
73.6775 -0.040
73.7078 0.229
73.7380 -0.128
73.7683 -0.119
73.7986 0.307
73.8289 -0.152
73.8592 -0.143
73.8894 0.180
73.9197 -0.226
73.9500 -0.059
73.9803 0.004
74.0105 -0.036
74.0408 -0.128
74.0711 -0.116
74.1014 -0.051
74.1317 0.222
74.1619 -0.233
74.1922 -0.183
74.2225 -0.029
74.2528 0.178
74.2831 0.438
74.3133 0.072
74.3436 0.228
74.3739 -0.188
74.4042 0.020
74.4344 0.229
74.4647 -0.082
74.4950 0.284
74.5253 0.182
74.5556 -0.233
74.5858 0.134
74.6161 -0.071
74.6464 -0.068
74.6767 -0.168
74.7070 0.096
74.7372 -0.055
74.7675 -0.259
74.7978 0.100
74.8281 0.042
74.8583 -0.068
74.8886 -0.072
74.9189 -0.077
74.9492 0.023
74.9795 0.488
75.0097 0.380
75.0400 0.117
75.0703 -0.094
75.1006 0.164
75.1309 0.162
75.1611 -0.100
75.1914 -0.049
75.2217 0.158
75.2520 0.001
75.2822 0.001
75.3125 -0.363
75.3428 0.053
75.3731 -0.415
75.4034 -0.003
75.4336 -0.110
75.4639 -0.010
75.4942 -0.117
75.5245 0.402
75.5548 0.399
75.5850 0.189
75.6153 -0.021
75.6456 0.030
75.6759 -0.439
75.7061 0.498
75.7364 0.133
75.7667 -0.127
75.7970 -0.230
75.8273 -0.073
75.8575 0.033
75.8878 0.972
75.9181 0.193
75.9484 0.508
75.9787 -0.270
76.0089 0.567
76.0392 -0.003
76.0695 -0.259
76.0998 0.043
76.1301 0.241
76.1603 -0.134
76.1906 0.117
76.2209 0.055
76.2512 -0.058
76.2814 0.402
76.3117 0.862
76.3420 0.646
76.3723 0.639
76.4026 0.423
76.4328 0.573
76.4631 0.358
76.4934 0.664
76.5237 0.919
76.5540 0.549
76.5842 0.492
76.6145 0.956
76.6448 0.535
76.6751 0.740
76.7053 0.528
76.7356 1.306
76.7659 0.835
76.7962 0.780
76.8265 1.455
76.8567 1.245
76.8870 1.713
76.9173 1.451
76.9476 1.138
76.9779 1.659
77.0081 0.669
77.0384 1.191
77.0687 0.775
77.0990 0.933
77.1292 1.351
77.1595 0.572
77.1898 0.835
77.2201 -0.309
77.2504 0.736
77.2806 0.688
77.3109 0.691
77.3412 -0.190
77.3715 -0.029
77.4018 -0.024
77.4320 0.554
77.4623 0.143
77.4926 -0.059
77.5229 -0.053
77.5531 0.163
77.5834 0.326
77.6137 0.490
77.6440 0.133
77.6743 0.558
77.7045 -0.006
77.7348 0.523
77.7651 -0.248
77.7954 -0.239
77.8257 -0.186
77.8559 -0.133
77.8862 0.337
77.9165 -0.338
77.9468 -0.024
77.9770 0.291
78.0073 0.242
78.0376 -0.276
78.0679 0.145
78.0982 -0.268
78.1284 0.049
78.1587 0.157
78.1890 0.267
78.2193 0.324
78.2496 0.434
78.2798 -0.081
78.3101 -0.178
78.3404 0.193
78.3707 0.461
78.4009 -0.365
78.4312 0.476
78.4615 0.484
78.4918 -0.392
78.5221 -0.227
78.5523 0.344
78.5826 0.135
78.6129 0.238
78.6432 -0.283
78.6735 0.082
78.7037 0.030
78.7340 0.135
78.7643 -0.021
78.7946 0.189
78.8248 -0.226
78.8551 -0.015
78.8854 0.144
78.9157 0.407
78.9460 0.306
78.9762 0.310
79.0065 -0.207
79.0368 0.162
79.0671 0.479
79.0974 0.276
79.1276 0.073
79.1579 0.027
79.1882 -0.123
79.2185 -0.221
79.2488 0.137
79.2790 0.130
79.3093 0.384
79.3396 0.066
79.3699 0.112
79.4001 0.055
79.4304 0.310
79.4607 -0.059
79.4910 -0.167
79.5213 -0.275
79.5515 0.243
79.5818 0.448
79.6121 -0.128
79.6424 0.026
79.6727 0.181
79.7029 -0.081
79.7332 0.178
79.7635 0.073
79.7938 0.646
79.8240 0.541
79.8543 -0.031
79.8846 0.490
79.9149 -0.238
79.9452 -0.080
79.9754 -0.026
80.0057 -0.024
80.0360 -0.126
80.0663 -0.227
80.0966 -0.136
80.1268 0.476
80.1571 0.204
80.1874 0.244
80.2177 -0.133
80.2479 -0.092
80.2782 -0.051
80.3085 -0.165
80.3388 0.189
80.3691 -0.081
80.3993 -0.038
80.4296 0.057
80.4599 0.308
80.4902 0.665
80.5205 0.240
80.5507 -0.132
80.5810 0.069
80.6113 -0.198
80.6416 -0.205
80.6718 -0.159
80.7021 -0.165
80.7324 0.247
80.7627 0.033
80.7930 0.029
80.8232 0.076
80.8535 0.229
80.8838 0.069
80.9141 0.118
80.9444 0.323
80.9746 0.165
81.0049 -0.046
81.0352 0.005
81.0655 -0.153
81.0957 0.523
81.1260 0.470
81.1563 0.679
81.1866 0.210
81.2169 0.731
81.2471 0.211
81.2774 0.265
81.3077 -0.098
81.3380 0.841
81.3683 0.218
81.3985 0.325
81.4288 0.953
81.4591 0.644
81.4894 -0.029
81.5196 0.235
81.5499 0.344
81.5802 -0.016
81.6105 0.250
81.6408 -0.057
81.6710 -0.311
81.7013 0.111
81.7316 0.014
81.7619 -0.084
81.7922 0.340
81.8224 -0.486
81.8527 -0.062
81.8830 0.051
81.9133 0.111
81.9436 -0.557
81.9738 0.233
82.0041 0.087
82.0344 0.253
82.0647 0.211
82.0949 -0.247
82.1252 0.493
82.1555 -0.433
82.1858 0.100
82.2161 -0.044
82.2463 0.177
82.2766 -0.227
82.3069 -0.177
82.3372 0.030
82.3675 0.237
82.3977 0.237
82.4280 -0.024
82.4583 0.080
82.4886 0.133
82.5188 -0.023
82.5491 -0.022
82.5794 0.448
82.6097 0.138
82.6400 -0.016
82.6702 0.351
82.7005 -0.479
82.7308 -0.007
82.7611 0.309
82.7914 0.209
82.8216 0.317
82.8519 0.062
82.8822 0.015
82.9125 -0.188
82.9427 0.703
82.9730 0.397
83.0033 0.404
83.0336 -0.006
83.0639 -0.415
83.0941 0.053
83.1244 0.157
83.1547 0.053
83.1850 0.522
83.2153 0.523
83.2455 0.264
83.2758 0.214
83.3061 0.164
83.3364 0.270
83.3666 0.585
83.3969 0.016
83.4272 0.384
83.4575 0.283
83.4878 0.288
83.5180 0.292
83.5483 0.349
83.5786 0.094
83.6089 -0.057
83.6392 -0.259
83.6694 0.101
83.6997 0.410
83.7300 0.094
83.7603 0.195
83.7905 0.453
83.8208 0.242
83.8511 0.032
83.8814 0.238
83.9117 0.185
83.9419 -0.337
83.9722 -0.136
84.0025 0.118
84.0328 -0.044
84.0631 0.263
84.0933 0.049
84.1236 0.200
84.1539 0.195
84.1842 0.347
84.2144 -0.230
84.2447 0.392
84.2750 0.492
84.3053 0.594
84.3356 0.070
84.3658 0.068
84.3961 0.275
84.4264 -0.456
84.4567 -0.196
84.4870 0.324
84.5172 0.636
84.5475 0.376
84.5778 0.220
84.6081 0.221
84.6383 -0.143
84.6686 -0.193
84.6989 0.381
84.7292 0.019
84.7595 0.282
84.7897 0.493
84.8200 0.132
84.8503 0.188
84.8806 -0.068
84.9109 0.092
84.9411 0.045
84.9714 0.207
85.0017 0.264
85.0320 0.531
85.0623 -0.140
85.0925 -0.186
85.1228 0.030
85.1531 0.558
85.1834 -0.268
85.2136 0.418
85.2439 0.322
85.2742 -0.086
85.3045 -0.337
85.3348 0.130
85.3650 -0.289
85.3953 0.126
85.4256 0.490
85.4559 0.020
85.4862 0.645
85.5164 1.061
85.5467 -0.084
85.5770 0.125
85.6073 0.021
85.6375 0.127
85.6678 0.285
85.6981 0.079
85.7284 0.029
85.7587 0.241
85.7889 0.192
85.8192 -0.013
85.8495 -0.061
85.8798 -0.057
85.9101 -0.208
85.9403 0.099
85.9706 0.303
86.0009 -0.013
86.0312 0.452
86.0614 0.136
86.0917 0.394
86.1220 0.131
86.1523 -0.236
86.1826 0.075
86.2128 0.074
86.2431 -0.032
86.2734 0.124
86.3037 0.801
86.3340 0.540
86.3642 0.124
86.3945 -0.031
86.4248 0.178
86.4551 0.128
86.4853 0.130
86.5156 -0.233
86.5459 -0.083
86.5762 0.120
86.6065 0.114
86.6367 0.161
86.6670 0.313
86.6973 0.100
86.7276 0.253
86.7579 -0.480
86.7881 0.194
86.8184 0.035
86.8487 0.293
86.8790 0.499
86.9092 0.133
86.9395 0.183
86.9698 0.078
87.0001 -0.131
87.0304 0.338
87.0606 -0.027
87.0909 0.442
87.1212 -0.130
87.1515 0.028
87.1818 0.029
87.2120 -0.073
87.2423 0.138
87.2726 0.244
87.3029 0.352
87.3331 -0.010
87.3634 0.307
87.3937 0.415
87.4240 0.107
87.4543 0.216
87.4845 0.117
87.5148 0.331
87.5451 0.597
87.5754 -0.021
87.6057 0.142
87.6359 -0.060
87.6662 -0.208
87.6965 -0.017
87.7268 0.175
87.7571 -0.467
87.7873 0.142
87.8176 -0.134
87.8479 -0.201
87.8782 0.149
87.9084 0.030
87.9387 0.484
87.9690 0.054
87.9993 -0.064
88.0296 -0.233
88.0598 0.113
88.0901 -0.165
88.1204 -0.183
88.1507 -0.044
88.1810 0.043
88.2112 -0.599
88.2415 0.166
88.2718 0.150
88.3021 -0.126
88.3323 0.484
88.3626 -0.208
88.3929 -0.327
88.4232 0.336
88.4535 0.114
88.4837 0.205
88.5140 0.036
88.5443 -0.029
88.5746 0.011
88.6049 0.259
88.6351 0.248
88.6654 0.341
88.6957 0.538
88.7260 0.319
88.7562 -0.107
88.7865 0.560
88.8168 0.030
88.8471 0.542
88.8774 0.221
88.9076 0.108
88.9379 0.569
88.9682 0.353
88.9985 0.502
89.0288 0.704
89.0590 0.802
89.0893 0.483
89.1196 0.061
89.1499 0.524
89.1801 1.040
89.2104 0.671
89.2407 0.354
89.2710 1.340
89.3013 1.285
89.3315 1.073
89.3618 1.904
89.3921 1.849
89.4224 1.535
89.4527 2.210
89.4829 2.157
89.5132 1.062
89.5435 2.208
89.5738 1.791
89.6040 1.843
89.6343 1.375
89.6646 2.157
89.6949 1.377
89.7252 1.587
89.7554 1.068
89.7857 1.487
89.8160 1.230
89.8463 1.545
89.8766 1.184
89.9068 0.719
89.9371 0.672
89.9674 0.520
89.9977 0.681
90.0279 0.791
90.0582 0.849
90.0885 0.490
90.1188 0.080
90.1491 0.399
90.1793 0.042
90.2096 0.153
90.2399 0.734
90.2702 0.795
90.3005 0.335
90.3307 0.396
90.3610 -0.272
90.3913 0.050
90.4216 -0.148
90.4518 0.019
90.4821 0.082
90.5124 0.301
90.5427 -0.052
90.5730 0.117
90.6032 0.181
90.6335 0.246
90.6638 -0.262
90.6941 0.116
90.7244 0.078
90.7546 0.456
90.7849 0.263
90.8152 -0.347
90.8455 0.762
90.8758 -0.160
90.9060 0.064
90.9363 0.028
90.9666 -0.111
90.9969 -0.146
91.0271 -0.337
91.0574 0.171
91.0877 0.314
91.1180 0.510
91.1483 0.342
91.1785 0.070
91.2088 0.319
91.2391 0.099
91.2694 -0.588
91.2997 0.027
91.3299 -0.139
91.3602 0.424
91.3905 -0.418
91.4208 -0.167
91.4510 0.294
91.4813 0.286
91.5116 -0.243
91.5419 -0.198
91.5722 0.055
91.6024 -0.211
91.6327 0.199
91.6630 0.297
91.6933 0.188
91.7236 -0.911
91.7538 0.282
91.7841 -0.139
91.8144 -0.247
91.8447 -0.042
91.8749 0.371
91.9052 -0.205
91.9355 -0.520
91.9658 0.257
91.9961 0.044
92.0263 0.144
92.0566 0.088
92.0869 -0.071
92.1172 -0.179
92.1475 -0.077
92.1777 0.025
92.2080 0.388
92.2383 0.334
92.2686 0.072
92.2988 0.228
92.3291 0.123
92.3594 0.331
92.3897 0.123
92.4200 0.541
92.4502 0.281
92.4805 0.960
92.5108 0.128
92.5411 1.068
92.5714 1.070
92.6016 1.490
92.6319 0.660
92.6622 0.194
92.6925 0.303
92.7227 0.463
92.7530 0.676
92.7833 0.421
92.8136 0.374
92.8439 0.067
92.8741 0.907
92.9044 0.809
92.9347 0.712
92.9650 0.251
92.9953 0.310
93.0255 0.370
93.0558 0.223
93.0861 -0.185
93.1164 0.188
93.1466 0.250
93.1769 0.364
93.2072 0.270
93.2375 0.593
93.2678 0.135
93.2980 0.198
93.3283 0.314
93.3586 0.847
93.3889 0.183
93.4192 0.299
93.4494 -0.156
93.4797 -0.091
93.5100 -0.233
93.5403 0.063
93.5706 0.516
93.6008 0.448
93.6311 0.328
93.6614 0.105
93.6917 -0.170
93.7219 0.285
93.7522 -0.198
93.7825 0.205
93.8128 -0.225
93.8431 -0.185
93.8733 -0.250
93.9036 0.206
93.9339 -0.015
93.9642 0.389
93.9945 -0.352
94.0247 -0.052
94.0550 0.197
94.0853 0.082
94.1156 -0.137
94.1458 0.165
94.1761 0.208
94.2064 -0.062
94.2367 0.085
94.2670 -0.185
94.2972 0.640
94.3275 -0.097
94.3578 0.104
94.3881 0.096
94.4184 0.142
94.4486 -0.438
94.4789 -0.028
94.5092 0.540
94.5395 0.169
94.5697 -0.096
94.6000 0.680
94.6303 0.311
94.6606 -0.109
94.6909 0.356
94.7211 -0.012
94.7514 0.402
94.7817 0.191
94.8120 0.553
94.8423 0.708
94.8725 1.279
94.9028 1.278
94.9331 0.965
94.9634 1.798
94.9936 1.225
95.0239 1.538
95.0542 1.538
95.0845 1.071
95.1148 1.749
95.1450 1.908
95.1753 2.222
95.2056 1.808
95.2359 1.447
95.2662 1.658
95.2964 1.193
95.3267 1.666
95.3570 2.191
95.3873 1.519
95.4175 1.107
95.4478 0.540
95.4781 1.535
95.5084 1.750
95.5387 0.975
95.5689 1.816
95.5992 0.990
95.6295 0.841
95.6598 0.953
95.6901 0.754
95.7203 0.762
95.7506 0.459
95.7809 -0.156
95.8112 0.687
95.8414 0.385
95.8717 0.812
95.9020 1.188
95.9323 0.418
95.9626 0.221
95.9928 0.285
96.0231 0.454
96.0534 0.780
96.0837 0.324
96.1140 0.025
96.1442 0.508
96.1745 -0.103
96.2048 -0.244
96.2351 -0.041
96.2653 0.006
96.2956 -0.102
96.3259 0.258
96.3562 0.255
96.3865 0.355
96.4167 0.352
96.4470 -0.067
96.4773 0.035
96.5076 0.346
96.5379 -0.281
96.5681 -0.073
96.5984 -0.178
96.6287 -0.179
96.6590 0.707
96.6893 0.082
96.7195 0.291
96.7498 -0.072
96.7801 0.085
96.8104 0.191
96.8406 0.246
96.8709 -0.377
96.9012 0.355
96.9315 -0.370
96.9618 -0.106
96.9920 0.054
97.0223 0.006
97.0526 0.063
97.0829 -0.244
97.1132 -0.153
97.1434 0.042
97.1737 0.238
97.2040 0.018
97.2343 -0.202
97.2645 -0.109
97.2948 0.297
97.3251 0.026
97.3554 -0.036
97.3857 -0.202
97.4159 -0.003
97.4462 0.144
97.4765 0.031
97.5068 -0.029
97.5371 0.223
97.5673 -0.201
97.5976 -0.260
97.6279 0.251
97.6582 0.138
97.6884 0.286
97.7187 -0.504
97.7490 0.114
97.7793 0.627
97.8096 -0.266
97.8398 -0.220
97.8701 0.398
97.9004 -0.232
97.9307 0.126
97.9610 0.955
97.9912 -0.196
98.0215 0.529
98.0518 0.316
98.0821 -0.156
98.1123 0.309
98.1426 0.254
98.1729 0.147
98.2032 0.405
98.2335 0.247
98.2637 0.089
98.2940 0.557
98.3243 0.087
98.3546 0.868
98.3849 0.607
98.4151 0.451
98.4454 0.608
98.4757 0.870
98.5060 1.027
98.5362 0.248
98.5665 1.292
98.5968 1.607
98.6271 0.932
98.6574 0.519
98.6876 0.054
98.7179 1.099
98.7482 0.635
98.7785 -0.142
98.8088 0.853
98.8390 0.598
98.8693 0.760
98.8996 0.610
98.9299 -0.009
98.9601 -0.210
98.9904 -0.099
99.0207 0.065
99.0510 0.229
99.0813 -0.283
99.1115 0.455
99.1418 0.203
99.1721 -0.100
99.2024 0.171
99.2327 0.233
99.2629 0.191
99.2932 -0.214
99.3235 -0.255
99.3538 -0.044
99.3841 0.115
99.4143 -0.194
99.4446 0.486
99.4749 0.178
99.5052 0.078
99.5354 -0.073
99.5657 -0.120
99.5960 0.041
99.6263 0.047
99.6566 -0.311
99.6868 0.005
99.7171 0.216
99.7474 0.272
99.7777 0.225
99.8080 -0.031
99.8382 0.182
99.8685 -0.177
99.8988 0.089
99.9291 -0.113
99.9593 0.414
99.9896 0.057
100.0199 -0.197
100.0502 -0.189
100.0805 0.184
100.1107 0.244
100.1410 -0.008
100.1713 -0.415
100.2016 0.052
100.2319 -0.261
100.2621 0.259
100.2924 0.103
100.3227 -0.054
100.3530 -0.001
100.3832 0.052
100.4135 -0.051
100.4438 -0.205
100.4741 0.057
100.5044 0.320
100.5346 0.062
100.5649 0.221
100.5952 0.225
100.6255 0.333
100.6558 0.285
100.6860 0.862
100.7163 0.086
100.7466 0.248
100.7769 0.462
100.8071 0.989
100.8374 0.214
100.8677 0.116
100.8980 0.071
100.9283 0.652
100.9585 0.556
100.9888 0.199
101.0191 0.052
101.0494 0.061
101.0797 0.174
101.1099 -0.285
101.1402 -0.133
101.1705 0.019
101.2008 -0.088
101.2310 0.065
101.2613 0.219
101.2916 0.320
101.3219 -0.203
101.3522 0.108
101.3824 0.159
101.4127 -0.050
101.4430 -0.311
101.4733 0.091
101.5036 0.130
101.5338 0.325
101.5641 -0.626
101.5944 -0.222
101.6247 0.026
101.6549 0.223
101.6852 0.315
101.7155 0.512
101.7458 0.241
101.7761 -0.342
101.8063 0.012
101.8366 0.159
101.8669 0.097
101.8972 0.140
101.9275 -0.598
101.9577 -0.089
101.9880 0.004
102.0183 -0.111
102.0486 -0.330
102.0788 0.493
102.1091 0.014
102.1394 -0.048
102.1697 0.256
102.2000 -0.326
102.2302 0.134
102.2605 0.178
102.2908 0.483
102.3211 0.580
102.3514 0.625
102.3816 0.201
102.4119 -0.117
102.4422 -0.228
102.4725 -0.285
102.5028 0.274
102.5330 0.260
102.5633 0.559
102.5936 0.234
102.6239 0.638
102.6541 0.418
102.6844 0.823
102.7147 -0.230
102.7450 0.175
102.7753 0.529
102.8055 0.415
102.8358 -0.012
102.8661 0.291
102.8964 0.282
102.9267 0.846
102.9569 0.213
102.9872 0.465
103.0175 0.093
103.0478 0.606
103.0780 0.443
103.1083 0.541
103.1386 0.534
103.1689 0.216
103.1992 0.419
103.2294 -0.159
103.2597 0.461
103.2900 0.092
103.3203 0.452
103.3506 0.293
103.3808 0.654
103.4111 0.338
103.4414 0.805
103.4717 0.594
103.5019 -0.241
103.5322 0.122
103.5625 0.902
103.5928 0.537
103.6231 -0.089
103.6533 0.849
103.6836 0.172
103.7139 0.277
103.7442 0.695
103.7745 0.644
103.8047 1.011
103.8350 0.336
103.8653 1.276
103.8956 1.175
103.9258 0.970
103.9561 0.661
103.9864 1.186
104.0167 1.242
104.0470 1.195
104.0772 1.356
104.1075 0.841
104.1378 1.420
104.1681 0.749
104.1984 0.703
104.2286 0.867
104.2589 0.718
104.2892 1.350
104.3195 0.161
104.3497 1.002
104.3800 1.220
104.4103 0.760
104.4406 0.353
104.4709 0.363
104.5011 0.790
104.5314 1.373
104.5617 0.291
104.5920 0.302
104.6223 0.314
104.6525 0.690
104.6828 0.286
104.7131 0.559
104.7434 -0.156
104.7736 0.065
104.8039 -0.389
104.8342 -0.018
104.8645 0.093
104.8948 -0.004
104.9250 0.056
104.9553 0.064
104.9856 0.176
105.0159 -0.179
105.0462 -0.014
105.0764 -0.057
105.1067 -0.255
105.1370 -0.194
105.1673 0.231
105.1975 -0.020
105.2278 -0.062
105.2581 0.521
105.2884 0.583
105.3187 0.438
105.3489 0.189
105.3792 -0.112
105.4095 0.004
105.4398 -0.244
105.4701 0.020
105.5003 0.025
105.5306 0.238
105.5609 0.035
105.5912 0.353
105.6215 -0.266
105.6517 0.105
105.6820 0.268
105.7123 -0.090
105.7426 -0.239
105.7728 0.024
105.8031 -0.078
105.8334 0.030
105.8637 0.137
105.8940 0.297
105.9242 0.249
105.9545 -0.215
105.9848 -0.158
106.0151 0.159
106.0454 -0.096
106.0756 0.483
106.1059 0.177
106.1362 -0.233
106.1665 -0.233
106.1967 0.129
106.2270 0.334
106.2573 0.123
106.2876 0.017
106.3179 -0.037
106.3481 0.223
106.3784 0.065
106.4087 -0.143
106.4390 0.013
106.4693 0.325
106.4995 -0.143
106.5298 0.066
106.5601 0.172
106.5904 0.069
106.6206 0.123
106.6509 0.334
106.6812 -0.080
106.7115 -0.441
106.7418 0.124
106.7720 -0.091
106.8023 0.162
106.8326 0.416
106.8629 0.098
106.8932 0.248
106.9234 0.399
106.9537 -0.075
106.9840 0.181
107.0143 0.542
107.0445 0.329
107.0748 0.065
107.1051 0.114
107.1354 0.841
107.1657 0.474
107.1959 0.107
107.2262 -0.415
107.2565 -0.058
107.2868 0.196
107.3171 -0.279
107.3473 0.028
107.3776 0.074
107.4079 0.121
107.4382 -0.144
107.4684 0.581
107.4987 0.160
107.5290 0.052
107.5593 -0.316
107.5896 0.619
107.6198 0.095
107.6501 0.041
107.6804 -0.013
107.7107 0.090
107.7410 0.089
107.7712 0.348
107.8015 -0.016
107.8318 -0.069
107.8621 -0.172
107.8923 -0.432
107.9226 0.507
107.9529 -0.221
107.9832 0.197
108.0135 0.252
108.0437 -0.110
108.0740 0.101
108.1043 0.104
108.1346 0.316
108.1649 0.060
108.1951 -0.509
108.2254 0.121
108.2557 0.126
108.2860 -0.285
108.3163 -0.073
108.3465 0.295
108.3768 -0.482
108.4071 0.044
108.4374 -0.003
108.4676 0.158
108.4979 0.008
108.5282 -0.351
108.5585 0.437
108.5888 0.184
108.6190 0.191
108.6493 0.355
108.6796 0.259
108.7099 0.111
108.7402 0.119
108.7704 -0.132
108.8007 0.554
108.8310 -0.113
108.8613 -0.311
108.8915 0.140
108.9218 0.123
108.9521 -0.363
108.9824 -0.014
109.0127 0.282
109.0429 0.214
109.0732 0.303
109.1035 0.392
109.1338 -0.195
109.1641 -0.105
109.1943 -0.015
109.2246 -0.080
109.2549 -0.250
109.2852 -0.212
109.3154 0.711
109.3457 0.489
109.3760 0.632
109.4063 0.515
109.4366 0.086
109.4668 -0.604
109.4971 0.166
109.5274 -0.002
109.5577 0.247
109.5880 0.132
109.6182 0.122
109.6485 0.008
109.6788 -0.054
109.7091 -0.324
109.7393 0.344
109.7696 -0.081
109.7999 -0.037
109.8302 -0.201
109.8605 0.312
109.8907 0.357
109.9210 -0.691
109.9513 -0.072
109.9816 0.807
110.0119 0.020
110.0421 -0.089
110.0724 0.062
110.1027 0.891
110.1330 -0.311
110.1632 0.258
110.1935 0.879
110.2238 0.512
110.2541 -0.116
110.2844 0.507
110.3146 -0.120
110.3449 0.139
110.3752 0.294
110.4055 0.345
110.4358 0.188
110.4660 0.553
110.4963 -0.280
110.5266 -0.072
110.5569 0.346
110.5871 0.243
110.6174 0.297
110.6477 0.195
110.6780 -0.115
110.7083 0.200
110.7385 -0.109
110.7688 -0.158
110.7991 0.211
110.8294 -0.254
110.8597 0.272
110.8899 -0.036
110.9202 0.439
110.9505 0.028
110.9808 0.034
111.0110 -0.064
111.0413 -0.057
111.0716 0.263
111.1019 0.427
111.1322 0.018
111.1624 0.026
111.1927 0.556
111.2230 -0.321
111.2533 -0.467
111.2836 0.376
111.3138 0.178
111.3441 0.189
111.3744 0.044
111.4047 0.108
111.4350 -0.297
111.4652 0.132
111.4955 0.092
111.5258 -0.259
111.5561 -0.041
111.5863 -0.031
111.6166 -0.072
111.6469 0.304
111.6772 -0.258
111.7075 0.118
111.7377 0.078
111.7680 0.039
111.7983 -0.053
111.8286 -0.091
111.8589 0.495
111.8891 0.301
111.9194 0.315
111.9497 0.226
111.9800 0.032
112.0102 0.048
112.0405 0.011
112.0708 -0.233
112.1011 -0.187
112.1314 -0.193
112.1616 0.062
112.1919 0.109
112.2222 0.365
112.2525 -0.004
112.2828 -0.008
112.3130 -0.012
112.3433 -0.328
112.3736 0.190
112.4039 0.292
112.4341 -0.439
112.4644 0.392
112.4947 0.078
112.5250 0.390
112.5553 -0.288
112.5855 0.389
112.6158 0.493
112.6461 -0.288
112.6764 0.286
112.7067 0.235
112.7369 -0.024
112.7672 -0.178
112.7975 -0.072
112.8278 -0.069
112.8580 0.507
112.8883 0.041
112.9186 -0.684
112.9489 0.101
112.9792 -0.259
113.0094 -0.049
113.0397 0.422
113.0700 0.321
113.1003 0.064
113.1306 0.015
113.1608 0.435
113.1911 -0.237
113.2214 -0.233
113.2517 0.126
113.2819 0.434
113.3122 -0.665
113.3425 0.216
113.3728 0.368
113.4031 -0.052
113.4333 0.257
113.4636 -0.006
113.4939 -0.061
113.5242 0.874
113.5545 0.300
113.5847 0.298
113.6150 0.245
113.6453 0.453
113.6756 -0.069
113.7058 0.244
113.7361 0.557
113.7664 -0.172
113.7967 0.246
113.8270 0.144
113.8572 0.458
113.8875 -0.061
113.9178 0.098
113.9481 0.049
113.9784 0.261
114.0086 0.681
114.0389 0.216
114.0692 0.169
114.0995 0.382
114.1298 0.074
114.1600 0.392
114.1903 0.294
114.2206 0.144
114.2509 0.515
114.2811 0.366
114.3114 0.530
114.3417 0.277
114.3720 0.389
114.4023 -0.123
114.4325 0.146
114.4628 0.155
114.4931 0.061
114.5234 0.383
114.5537 0.029
114.5839 -0.221
114.6142 -0.033
114.6445 0.155
114.6748 0.084
114.7050 -0.092
114.7353 0.306
114.7656 0.600
114.7959 1.155
114.8262 -0.321
114.8564 0.390
114.8867 0.321
114.9170 -0.268
114.9473 -0.024
114.9776 -0.144
115.0078 0.361
115.0381 -0.019
115.0684 0.227
115.0987 0.108
115.1289 -0.010
115.1592 0.237
115.1895 -0.141
115.2198 0.523
115.2501 -0.063
115.2803 0.706
115.3106 0.121
115.3409 0.370
115.3712 0.359
115.4015 -0.016
115.4317 0.130
115.4620 0.745
115.4923 0.527
115.5226 0.726
115.5528 1.029
115.5831 0.708
115.6134 0.179
115.6437 0.744
115.6740 0.632
115.7042 0.521
115.7345 1.035
115.7648 0.091
115.7951 0.606
115.8254 0.601
115.8556 0.387
115.8859 0.642
115.9162 1.419
115.9465 0.946
115.9767 0.942
116.0070 0.626
116.0373 0.936
116.0676 0.464
116.0979 0.931
116.1281 1.554
116.1584 1.292
116.1887 0.978
116.2190 1.186
116.2493 1.550
116.2795 0.977
116.3098 1.550
116.3401 1.759
116.3704 0.926
116.4006 1.553
116.4309 0.565
116.4612 1.140
116.4915 1.038
116.5218 1.249
116.5520 0.992
116.5823 1.152
116.6126 1.416
116.6429 1.577
116.6732 0.696
116.7034 0.440
116.7337 1.644
116.7640 0.660
116.7943 0.718
116.8245 0.412
116.8548 0.367
116.8851 1.103
116.9154 0.173
116.9457 0.389
116.9759 0.398
117.0062 0.511
117.0365 0.363
117.0668 0.685
117.0971 0.278
117.1273 0.184
117.1576 -0.066
117.1879 0.258
117.2182 0.738
117.2485 -0.084
117.2787 0.032
117.3090 0.201
117.3393 -0.255
117.3696 -0.201
117.3998 0.218
117.4301 -0.092
117.4604 0.171
117.4907 0.174
117.5210 0.490
117.5512 0.078
117.5815 0.499
117.6118 -0.017
117.6421 -0.012
117.6724 -0.267
117.7026 0.312
117.7329 0.162
117.7632 0.220
117.7935 0.279
117.8237 -0.078
117.8540 0.294
117.8843 -0.427
117.9146 0.311
117.9449 -0.306
117.9751 -0.244
118.0054 -0.188
118.0357 0.232
118.0660 -0.024
118.0963 0.242
118.1265 0.091
118.1568 0.044
118.1871 0.102
118.2174 0.109
118.2476 0.480
118.2779 0.279
118.3082 0.182
118.3385 -0.071
118.3688 0.146
118.3990 0.258
118.4293 0.007
118.4596 0.068
118.4899 0.234
118.5202 0.088
118.5504 0.046
118.5807 0.578
118.6110 -0.036
118.6413 -0.233
118.6715 0.079
118.7018 0.078
118.7321 0.547
118.7624 0.079
118.7927 -0.025
118.8229 0.132
118.8532 0.030
118.8835 0.448
118.9138 -0.227
118.9441 0.557
118.9743 0.091
119.0046 0.563
119.0349 0.358
119.0652 -0.263
119.0954 0.210
119.1257 0.267
119.1560 -0.092
119.1863 0.486
119.2166 0.648
119.2468 -0.127
119.2771 0.244
119.3074 0.043
119.3377 0.206
119.3680 0.318
119.3982 -0.247
119.4285 0.543
119.4588 0.187
119.4891 0.248
119.5193 0.257
119.5496 1.101
119.5799 0.173
119.6102 -0.337
119.6405 -0.176
119.6707 -0.014
119.7010 0.148
119.7313 -0.002
119.7616 0.057
119.7919 0.012
119.8221 0.280
119.8524 -0.077
119.8827 -0.017
119.9130 -0.165
119.9433 -0.260
119.9735 -0.280
120.0038 0.000
