'Id: "" Comment: "" Operator: "Lab Manager" Anode: "Cu" Scantype: "Locked Coupled" TimePerStep: "19.2" X: "9999" Y: "9999" Z: "9999" 
10.0015 0.000
10.0318 0.291
10.0620 1.312
10.0923 0.875
10.1226 0.335
10.1529 -0.102
10.1832 0.348
10.2134 -0.192
10.2437 0.675
10.2740 1.178
10.3043 0.379
10.3346 0.049
10.3648 0.553
10.3951 -0.349
10.4254 0.156
10.4557 -0.433
10.4859 -0.162
10.5162 0.213
10.5465 0.172
10.5768 -0.807
10.6071 -0.133
10.6373 0.332
10.6676 0.798
10.6979 -0.194
10.7282 -0.301
10.7585 0.687
10.7887 0.164
10.8190 0.007
10.8493 1.308
10.8796 0.943
10.9098 -0.463
10.9401 0.319
10.9704 0.944
11.0007 0.893
11.0310 0.739
11.0612 0.793
11.0915 0.274
11.1218 1.787
11.1521 -0.085
11.1824 0.491
11.2126 0.912
11.2429 0.603
11.2732 -0.017
11.3035 0.352
11.3337 1.607
11.3640 1.509
11.3943 0.577
11.4246 0.896
11.4549 1.945
11.4851 1.327
11.5154 2.584
11.5457 0.717
11.5760 1.611
11.6063 1.723
11.6365 1.368
11.6668 0.544
11.6971 0.658
11.7274 1.918
11.7577 2.449
11.7879 1.835
11.8182 1.378
11.8485 1.233
11.8788 1.193
11.9090 2.143
11.9393 1.374
11.9696 1.700
11.9999 0.672
12.0302 0.477
12.0604 0.179
12.0907 0.923
12.1210 0.990
12.1513 1.057
12.1816 1.021
12.2118 0.412
12.2421 0.949
12.2724 0.341
12.3027 0.515
12.3329 0.845
12.3632 0.811
12.3935 0.621
12.4238 1.004
12.4541 0.554
12.4843 0.626
12.5146 -0.396
12.5449 0.354
12.5752 0.635
12.6055 0.656
12.6357 -0.052
12.6660 0.855
12.6963 0.981
12.7266 0.275
12.7568 0.714
12.7871 0.112
12.8174 -0.020
12.8477 0.473
12.8780 0.028
12.9082 -0.832
12.9385 -0.002
12.9688 1.141
12.9991 1.191
13.0294 1.137
13.0596 -0.166
13.0899 -0.011
13.1202 0.040
13.1505 0.248
13.1807 0.665
13.2110 0.197
13.2413 -0.219
13.2716 0.720
13.3019 -0.425
13.3321 -0.319
13.3624 0.621
13.3927 0.468
13.4230 1.096
13.4533 0.630
13.4835 0.634
13.5138 0.586
13.5441 -0.399
13.5744 0.179
13.6046 0.289
13.6349 0.815
13.6652 0.613
13.6955 0.203
13.7258 0.210
13.7560 -0.460
13.7863 0.589
13.8166 -0.341
13.8469 0.241
13.8772 -0.376
13.9074 -0.582
13.9377 0.462
13.9680 0.153
13.9983 0.000
14.0285 0.524
14.0588 -0.201
14.0891 -0.093
14.1194 0.276
14.1497 -0.239
14.1799 0.079
14.2102 -0.020
14.2405 0.351
14.2708 0.097
14.3011 0.729
14.3313 0.268
14.3616 0.744
14.3919 0.179
14.4222 0.136
14.4524 -0.533
14.4827 0.050
14.5130 0.372
14.5433 0.642
14.5736 1.173
14.6038 -0.691
14.6341 -0.003
14.6644 -0.200
14.6947 -0.084
14.7250 0.137
14.7552 0.358
14.7855 -0.515
14.8158 0.228
14.8461 0.918
14.8764 0.568
14.9066 -0.355
14.9369 0.233
14.9672 0.925
14.9975 -0.101
15.0277 1.321
15.0580 0.817
15.0883 -0.052
15.1186 0.590
15.1489 0.139
15.1791 0.156
15.2094 0.227
15.2397 0.506
15.2700 0.577
15.3003 0.961
15.3305 0.668
15.3608 0.219
15.3911 0.500
15.4214 -0.104
15.4516 0.126
15.4819 0.043
15.5122 -0.039
15.5425 -0.329
15.5728 -0.544
15.6030 1.117
15.6333 -0.452
15.6636 1.210
15.6939 0.372
15.7242 0.367
15.7544 0.519
15.7847 0.203
15.8150 0.148
15.8453 0.093
15.8755 1.132
15.9058 -0.069
15.9361 0.555
15.9664 0.188
15.9967 -0.333
16.0269 -0.242
16.0572 0.578
16.0875 0.670
16.1178 0.919
16.1481 -0.082
16.1783 0.219
16.2086 0.156
16.2389 0.771
16.2692 0.032
16.2994 -0.030
16.3297 -0.039
16.3600 -0.464
16.3903 0.360
16.4206 0.092
16.4508 -0.072
16.4811 0.546
16.5114 0.799
16.5417 0.480
16.5720 0.526
16.6022 -0.105
16.6325 0.358
16.6628 0.874
16.6931 0.453
16.7233 -0.177
16.7536 -0.233
16.7839 0.909
16.8142 0.073
16.8445 0.487
16.8747 0.745
16.9050 0.065
16.9353 -0.718
16.9656 0.531
16.9959 0.322
17.0261 0.217
17.0564 -0.096
17.0867 0.686
17.1170 -0.147
17.1472 1.104
17.1775 0.584
17.2078 1.003
17.2381 0.953
17.2684 0.538
17.2986 0.124
17.3289 0.336
17.3592 -0.598
17.3895 -0.292
17.4198 0.796
17.4500 0.582
17.4803 1.202
17.5106 0.312
17.5409 -0.317
17.5712 0.199
17.6014 0.352
17.6317 0.088
17.6620 0.502
17.6923 0.916
17.7225 0.654
17.7528 -0.234
17.7831 -0.131
17.8134 0.181
17.8437 -0.549
17.8739 0.180
17.9042 -0.185
17.9345 -0.080
17.9648 0.077
17.9951 -0.338
18.0253 0.601
18.0556 -0.022
18.0859 -0.280
18.1162 0.191
18.1464 -0.535
18.1767 0.875
18.2070 0.410
18.2373 0.518
18.2676 0.106
18.2978 -0.253
18.3281 0.638
18.3584 0.123
18.3887 0.441
18.4190 -0.229
18.4492 -1.160
18.4795 0.462
18.5098 0.626
18.5401 0.165
18.5703 -0.139
18.6006 0.078
18.6309 0.243
18.6612 -0.112
18.6915 0.002
18.7217 0.065
18.7520 -0.342
18.7823 -0.135
18.8126 -0.501
18.8429 0.644
18.8731 0.696
18.9034 0.175
18.9337 0.279
18.9640 0.019
18.9942 -0.084
19.0245 0.334
19.0548 0.076
19.0851 -0.027
19.1154 0.132
19.1456 -0.073
19.1759 0.867
19.2062 0.090
19.2365 0.198
19.2668 -0.006
19.2970 -0.418
19.3273 0.108
19.3576 -0.303
19.3879 1.109
19.4181 0.438
19.4484 -0.076
19.4787 -0.173
19.5090 -0.114
19.5393 0.050
19.5695 -0.254
19.5998 0.067
19.6301 -0.029
19.6604 -0.176
19.6907 -0.218
19.7209 0.469
19.7512 0.532
19.7815 -0.343
19.8118 -0.072
19.8420 0.409
19.8723 0.525
19.9026 0.224
19.9329 0.237
19.9632 0.042
19.9934 0.784
20.0237 1.058
20.0540 0.968
20.0843 0.254
20.1146 -0.096
20.1448 0.284
20.1751 0.195
20.2054 0.680
20.2357 0.853
20.2659 -0.224
20.2962 -0.572
20.3265 0.250
20.3568 0.238
20.3871 -0.033
20.4173 0.321
20.4476 0.623
20.4779 0.509
20.5082 0.240
20.5385 0.283
20.5687 0.690
20.5990 -0.203
20.6293 -0.315
20.6596 0.354
20.6899 0.607
20.7201 -0.389
20.7504 0.282
20.7807 -0.245
20.8110 0.791
20.8412 -0.569
20.8715 -0.001
20.9018 -0.318
20.9321 0.251
20.9624 -0.430
20.9926 0.452
21.0229 0.293
21.0532 -0.179
21.0835 -0.390
21.1138 0.232
21.1440 -0.032
21.1743 0.382
21.2046 0.015
21.2349 0.117
21.2651 -0.771
21.2954 0.374
21.3257 0.269
21.3560 -0.201
21.3863 0.007
21.4165 0.528
21.4468 0.737
21.4771 0.373
21.5074 -0.303
21.5377 0.115
21.5679 -0.403
21.5982 0.016
21.6285 -0.242
21.6588 -0.343
21.6890 0.494
21.7193 0.185
21.7496 0.189
21.7799 0.506
21.8102 0.355
21.8404 -0.369
21.8707 0.106
21.9010 -0.045
21.9313 0.222
21.9616 -0.292
21.9918 -0.128
22.0221 0.140
22.0524 -0.321
22.0827 -0.111
22.1129 -0.212
22.1432 -0.314
22.1735 0.106
22.2038 -0.203
22.2341 -0.147
22.2643 0.014
22.2946 0.592
22.3249 0.128
22.3552 0.446
22.3855 -0.121
22.4157 0.041
22.4460 -0.317
22.4763 -0.208
22.5066 0.682
22.5368 -0.250
22.5671 -0.088
22.5974 -0.030
22.6277 0.184
22.6580 1.128
22.6882 0.875
22.7185 0.310
22.7488 -0.099
22.7791 0.951
22.8094 -0.395
22.8396 0.291
22.8699 -0.064
22.9002 0.622
22.9305 0.372
22.9607 0.695
22.9910 -0.180
23.0213 0.352
23.0516 0.520
23.0819 0.480
23.1121 0.440
23.1424 0.245
23.1727 0.414
23.2030 0.532
23.2333 0.650
23.2635 0.455
23.2938 0.783
23.3241 1.058
23.3544 0.292
23.3846 0.516
23.4149 0.793
23.4452 0.288
23.4755 0.409
23.5058 0.270
23.5360 -0.285
23.5663 -0.304
23.5966 1.031
23.6269 0.857
23.6572 0.995
23.6874 0.561
23.7177 0.544
23.7480 -0.098
23.7783 0.146
23.8086 0.442
23.8388 0.635
23.8691 0.307
23.8994 1.282
23.9297 -0.400
23.9599 -0.258
23.9902 0.562
24.0205 -0.024
24.0508 0.483
24.0811 -0.415
24.1113 0.094
24.1416 -0.231
24.1719 0.175
24.2022 0.684
24.2325 0.309
24.2627 0.819
24.2930 0.393
24.3233 0.383
24.3536 0.322
24.3838 0.729
24.4141 0.200
24.4444 0.452
24.4747 0.913
24.5050 0.072
24.5352 0.690
24.5655 0.215
24.5958 0.209
24.6261 0.203
24.6564 1.083
24.6866 0.348
24.7169 0.500
24.7472 0.808
24.7775 -0.082
24.8077 0.123
24.8380 -0.245
24.8683 0.898
24.8986 0.583
24.9289 0.372
24.9591 0.787
24.9894 0.890
25.0197 0.889
25.0500 0.055
25.0803 0.784
25.1105 0.576
25.1408 0.264
25.1711 -0.413
25.2014 0.422
25.2316 0.059
25.2619 0.165
25.2922 -0.145
25.3225 -0.194
25.3528 0.538
25.3830 0.489
25.4133 0.701
25.4436 0.029
25.4739 0.398
25.5042 -0.274
25.5344 -0.321
25.5647 0.196
25.5950 -0.016
25.6253 -0.332
25.6555 0.499
25.6858 0.861
25.7161 0.390
25.7464 0.493
25.7767 -0.394
25.8069 0.438
25.8372 -0.135
25.8675 0.385
25.8978 -0.135
25.9281 -0.551
25.9583 0.595
25.9886 -0.393
26.0189 -0.131
26.0492 -0.129
26.0794 -0.230
26.1097 0.710
26.1400 0.140
26.1703 -0.065
26.2006 -0.321
26.2308 -0.016
26.2611 -0.388
26.2914 0.230
26.3217 0.744
26.3520 -0.616
26.3822 0.211
26.4125 1.247
26.4428 -0.372
26.4731 -0.117
26.5034 0.452
26.5336 0.604
26.5639 -0.441
26.5942 0.285
26.6245 0.074
26.6547 0.071
26.6850 0.069
26.7153 0.744
26.7456 0.014
26.7759 -0.456
26.8061 0.689
26.8364 0.168
26.8667 0.533
26.8970 1.002
26.9273 0.326
26.9575 0.588
26.9878 0.225
27.0181 0.904
27.0484 0.490
27.0786 -0.080
27.1089 -0.702
27.1392 0.118
27.1695 -0.051
27.1998 0.562
27.2300 0.497
27.2603 0.069
27.2906 0.058
27.3209 -0.057
27.3512 0.141
27.3814 0.026
27.4117 -0.348
27.4420 0.788
27.4723 0.415
27.5025 0.302
27.5328 0.710
27.5631 0.182
27.5934 0.643
27.6237 -0.614
27.6539 0.368
27.6842 0.414
27.7145 -0.373
27.7448 1.392
27.7751 0.553
27.8053 -0.441
27.8356 -0.342
27.8659 0.119
27.8962 0.215
27.9264 -0.417
27.9567 0.096
27.9870 0.090
28.0173 -0.333
28.0476 0.077
28.0778 0.072
28.1081 0.275
28.1384 -0.199
28.1687 -0.151
28.1990 -0.468
28.2292 0.204
28.2595 0.511
28.2898 0.559
28.3201 0.138
28.3503 -0.231
28.3806 0.078
28.4109 -0.185
28.4412 -0.396
28.4715 0.278
28.5017 -0.297
28.5320 0.327
28.5623 1.576
28.5926 -0.352
28.6229 -0.041
28.6531 0.897
28.6834 0.428
28.7137 -0.092
28.7440 0.065
28.7742 0.483
28.8045 0.068
28.8348 0.435
28.8651 0.125
28.8954 -0.185
28.9256 -0.390
28.9559 0.213
28.9862 0.138
29.0165 0.168
29.0468 -0.218
29.0770 0.333
29.1073 0.677
29.1376 -0.333
29.1679 -0.041
29.1981 0.304
29.2284 0.076
29.2587 0.213
29.2890 0.090
29.3193 0.437
29.3495 0.366
29.3798 0.141
29.4101 -0.814
29.4404 0.419
29.4707 0.455
29.5009 -0.239
29.5312 0.110
29.5615 0.095
29.5918 -0.076
29.6221 0.274
29.6523 -0.105
29.6826 -0.379
29.7129 -0.090
29.7432 0.511
29.7734 0.228
29.8037 0.310
29.8340 0.496
29.8643 -0.203
29.8946 0.713
29.9248 -0.297
29.9551 0.463
29.9854 -0.130
30.0157 0.059
30.0460 0.247
30.0762 -0.397
30.1065 -0.270
30.1368 0.273
30.1671 0.140
30.1973 0.059
30.2276 1.177
30.2579 0.576
30.2882 1.069
30.3185 0.678
30.3487 0.339
30.3790 0.677
30.4093 0.286
30.4396 0.990
30.4699 0.444
30.5001 0.106
30.5304 0.759
30.5607 0.943
30.5910 0.815
30.6212 0.427
30.6515 0.144
30.6818 1.267
30.7121 0.932
30.7424 1.379
30.7726 2.243
30.8029 0.815
30.8332 1.524
30.8635 1.451
30.8938 2.942
30.9240 2.662
30.9543 3.684
30.9846 2.676
31.0149 2.657
31.0451 3.264
31.0754 4.132
31.1057 4.583
31.1360 5.608
31.1663 6.476
31.1965 8.387
31.2268 8.476
31.2571 10.752
31.2874 11.935
31.3177 12.961
31.3479 15.760
31.3782 22.464
31.4085 23.857
31.4388 26.969
31.4690 30.185
31.4993 36.735
31.5296 42.087
31.5599 46.919
31.5902 48.366
31.6204 50.751
31.6507 47.147
31.6810 47.137
31.7113 42.804
31.7416 34.096
31.7718 30.650
31.8021 26.422
31.8324 23.549
31.8627 20.156
31.8929 17.909
31.9232 14.777
31.9535 13.103
31.9838 10.336
32.0141 7.361
32.0443 7.095
32.0746 5.215
32.1049 5.314
32.1352 6.091
32.1655 3.795
32.1957 3.322
32.2260 2.433
32.2563 2.899
32.2866 2.115
32.3169 2.217
32.3471 1.590
32.3774 0.859
32.4077 2.472
32.4380 0.232
32.4682 1.325
32.4985 2.002
32.5288 0.127
32.5591 0.909
32.5894 0.858
32.6196 0.547
32.6499 0.809
32.6802 0.447
32.7105 0.553
32.7408 0.452
32.7710 0.612
32.8013 0.459
32.8316 -0.058
32.8619 0.259
32.8921 0.524
32.9224 0.842
32.9527 0.431
32.9830 0.645
33.0133 -0.390
33.0435 -0.227
33.0738 0.300
33.1041 0.256
33.1344 -0.049
33.1647 0.168
33.1949 0.228
33.2252 -0.388
33.2555 -0.431
33.2858 0.464
33.3160 -0.567
33.3463 0.433
33.3766 -0.494
33.4069 -0.408
33.4372 -0.218
33.4674 0.493
33.4977 -0.150
33.5280 1.031
33.5583 1.171
33.5886 1.415
33.6188 0.305
33.6491 1.071
33.6794 1.108
33.7097 0.832
33.7399 1.599
33.7702 1.533
33.8005 1.988
33.8308 3.016
33.8611 3.003
33.8913 4.189
33.9216 4.072
33.9519 5.102
33.9822 5.247
34.0125 7.996
34.0427 7.100
34.0730 12.142
34.1033 13.955
34.1336 17.904
34.1638 27.269
34.1941 36.011
34.2244 49.856
34.2547 60.004
34.2850 64.528
34.3152 55.510
34.3455 51.545
34.3758 39.872
34.4061 31.168
34.4364 20.745
34.4666 15.740
34.4969 12.922
34.5272 9.063
34.5575 8.955
34.5877 7.909
34.6180 4.208
34.6483 5.090
34.6786 4.306
34.7089 3.105
34.7391 2.634
34.7694 2.476
34.7997 2.788
34.8300 2.578
34.8603 1.484
34.8905 3.671
34.9208 2.005
34.9511 1.433
34.9814 1.746
35.0116 2.372
35.0419 2.686
35.0722 1.386
35.1025 1.597
35.1328 1.183
35.1630 2.697
35.1933 1.503
35.2236 1.975
35.2539 2.500
35.2842 3.547
35.3144 2.770
35.3447 3.245
35.3750 4.136
35.4053 3.205
35.4356 3.992
35.4658 3.895
35.4961 5.309
35.5264 5.056
35.5567 6.731
35.5869 7.364
35.6172 9.560
35.6475 10.143
35.6778 10.256
35.7081 13.339
35.7383 15.954
35.7686 15.756
35.7989 18.371
35.8292 23.956
35.8595 24.905
35.8897 32.000
35.9200 38.315
35.9503 43.640
35.9806 50.477
36.0108 63.407
36.0411 68.577
36.0714 73.644
36.1017 75.898
36.1320 72.424
36.1622 69.835
36.1925 69.330
36.2228 61.847
36.2531 49.988
36.2834 45.006
36.3136 36.325
36.3439 30.197
36.3742 28.913
36.4045 24.088
36.4347 18.690
36.4650 16.783
36.4953 15.761
36.5256 14.062
36.5559 9.499
36.5861 9.364
36.6164 7.614
36.6467 7.948
36.6770 6.043
36.7073 4.555
36.7375 4.473
36.7678 4.184
36.7981 2.801
36.8284 3.033
36.8586 1.599
36.8889 1.624
36.9192 2.899
36.9495 2.195
36.9798 2.741
37.0100 1.570
37.0403 2.377
37.0706 1.519
37.1009 1.702
37.1312 1.990
37.1614 1.185
37.1917 1.213
37.2220 2.284
37.2523 0.177
37.2825 0.207
37.3128 0.757
37.3431 0.735
37.3734 0.349
37.4037 0.537
37.4339 1.610
37.4642 0.391
37.4945 0.736
37.5248 0.248
37.5551 0.228
37.5853 0.105
37.6156 -0.122
37.6459 0.017
37.6762 -0.262
37.7064 0.294
37.7367 0.485
37.7670 0.573
37.7973 -0.016
37.8276 0.332
37.8578 0.473
37.8881 -0.219
37.9184 0.443
37.9487 1.054
37.9790 0.728
38.0092 -0.119
38.0395 0.388
38.0698 0.532
38.1001 0.050
38.1304 -0.118
38.1606 0.183
38.1909 -0.349
38.2212 -0.181
38.2515 -0.013
38.2817 0.468
38.3120 0.169
38.3423 0.963
38.3726 -0.013
38.4029 0.001
38.4331 0.068
38.4634 -0.855
38.4937 0.410
38.5240 0.113
38.5543 -0.079
38.5845 0.197
38.6148 0.787
38.6451 0.231
38.6754 -0.377
38.7056 0.162
38.7359 0.076
38.7662 0.563
38.7965 0.269
38.8268 0.237
38.8570 0.933
38.8873 -0.193
38.9176 0.349
38.9479 0.421
38.9782 -0.130
39.0084 0.308
39.0387 -0.295
39.0690 0.196
39.0993 0.531
39.1295 -0.436
39.1598 -0.308
39.1901 0.055
39.2204 -0.207
39.2507 -0.156
39.2809 -0.104
39.3112 0.312
39.3415 0.156
39.3718 -0.729
39.4021 0.314
39.4323 -0.153
39.4626 -0.204
39.4929 0.527
39.5232 -0.512
39.5534 0.429
39.5837 -0.089
39.6140 0.175
39.6443 0.335
39.6746 0.027
39.7048 0.657
39.7351 0.193
39.7654 0.251
39.7957 0.308
39.8260 0.263
39.8562 -0.043
39.8865 0.068
39.9168 0.336
39.9471 -0.438
39.9773 -0.169
40.0076 0.204
40.0379 -0.100
40.0682 -0.299
40.0985 -0.081
40.1287 -0.175
40.1590 -0.112
40.1893 -0.048
40.2196 -0.141
40.2499 -0.337
40.2801 0.192
40.3104 -0.163
40.3407 0.159
40.3710 0.116
40.4012 0.439
40.4315 0.346
40.4618 -0.320
40.4921 0.368
40.5224 -0.089
40.5526 -0.702
40.5829 0.129
40.6132 0.545
40.6435 0.596
40.6738 0.022
40.7040 -0.291
40.7343 0.490
40.7646 0.126
40.7949 -0.030
40.8251 0.232
40.8554 0.285
40.8857 0.079
40.9160 0.758
40.9463 -0.229
40.9765 -0.278
41.0068 0.402
41.0371 0.354
41.0674 -0.006
41.0977 0.206
41.1279 0.263
41.1582 -0.148
41.1885 0.482
41.2188 0.020
41.2491 0.078
41.2793 0.918
41.3096 0.092
41.3399 -0.317
41.3702 0.524
41.4004 -0.041
41.4307 -0.084
41.4610 0.081
41.4913 0.247
41.5216 0.465
41.5518 0.631
41.5821 0.277
41.6124 -0.285
41.6427 -0.238
41.6730 1.007
41.7032 0.117
41.7335 0.322
41.7638 0.370
41.7941 0.263
41.8243 0.572
41.8546 -0.264
41.8849 0.203
41.9152 -0.215
41.9455 -0.165
41.9757 -0.114
42.0060 -0.062
42.0363 0.250
42.0666 0.354
42.0969 0.147
42.1271 0.200
42.1574 -0.060
42.1877 -0.058
42.2180 0.725
42.2482 0.259
42.2785 -0.415
42.3088 -0.214
42.3391 0.041
42.3694 -0.069
42.3996 0.029
42.4299 0.129
42.4602 0.228
42.4905 0.328
42.5208 0.012
42.5510 0.269
42.5813 0.265
42.6116 0.471
42.6419 0.052
42.6721 -0.210
42.7024 0.100
42.7327 -0.057
42.7630 0.411
42.7933 0.150
42.8235 -0.111
42.8538 -0.267
42.8841 -0.266
42.9144 0.620
42.9447 0.205
42.9749 -0.002
43.0052 -0.052
43.0355 -0.570
43.0658 0.423
43.0960 0.165
43.1263 -0.404
43.1566 0.277
43.1869 0.125
43.2172 -0.078
43.2474 0.031
43.2777 0.036
43.3080 0.199
43.3383 -0.056
43.3686 0.628
43.3988 0.218
43.4291 -0.191
43.4594 -0.131
43.4897 -0.175
43.5199 -0.271
43.5502 0.139
43.5805 0.080
43.6108 -0.239
43.6411 0.431
43.6713 0.165
43.7016 -0.205
43.7319 0.519
43.7622 -0.319
43.7925 0.093
43.8227 0.298
43.8530 0.086
43.8833 0.031
43.9136 -0.337
43.9439 0.077
43.9741 -0.394
44.0044 0.230
44.0347 -0.345
44.0650 0.071
44.0952 0.071
44.1255 0.070
44.1558 0.279
44.1861 -0.450
44.2164 0.749
44.2466 0.698
44.2769 0.127
44.3072 -0.079
44.3375 -0.389
44.3678 0.122
44.3980 0.112
44.4283 0.311
44.4586 -0.062
44.4889 0.034
44.5191 0.078
44.5494 0.018
44.5797 0.011
44.6100 0.056
44.6403 -0.159
44.6705 0.043
44.7008 -0.067
44.7311 -0.176
44.7614 -0.285
44.7917 -0.083
44.8219 0.068
44.8522 0.063
44.8825 -0.150
44.9128 0.574
44.9430 -0.367
44.9733 -0.006
45.0036 0.147
45.0339 0.873
45.0642 0.298
45.0944 0.608
45.1247 0.658
45.1550 -0.333
45.1853 -0.230
45.2156 -0.022
45.2458 -0.126
45.2761 0.447
45.3064 0.187
45.3367 0.188
45.3669 0.085
45.3972 -0.487
45.4275 0.036
45.4578 -0.482
45.4881 0.614
45.5183 0.044
45.5486 0.569
45.5789 -0.313
45.6092 0.369
45.6395 -0.356
45.6697 0.274
45.7000 -0.033
45.7303 0.129
45.7606 0.395
45.7908 -0.327
45.8211 0.357
45.8514 0.208
45.8817 0.372
45.9120 0.536
45.9422 -0.289
45.9725 -0.280
46.0028 0.067
46.0331 0.675
46.0634 0.710
46.0936 0.746
46.1239 0.574
46.1542 0.037
46.1845 0.178
46.2147 -0.358
46.2450 0.201
46.2753 1.124
46.3056 0.642
46.3359 0.993
46.3661 -0.009
46.3964 0.343
46.4267 -0.295
46.4570 0.527
46.4873 -0.162
46.5175 0.661
46.5478 0.494
46.5781 0.952
46.6084 0.526
46.6386 1.297
46.6689 0.403
46.6992 0.394
46.7295 0.958
46.7598 1.679
46.7900 1.307
46.8203 1.196
46.8506 1.449
46.8809 0.818
46.9112 1.384
46.9414 1.483
46.9717 2.311
47.0020 2.566
47.0323 3.030
47.0626 3.599
47.0928 4.428
47.1231 4.424
47.1534 5.307
47.1837 5.825
47.2139 8.166
47.2442 10.039
47.2745 11.600
47.3048 11.494
47.3351 14.723
47.3653 14.045
47.3956 14.045
47.4259 14.826
47.4562 14.566
47.4865 12.953
47.5167 12.016
47.5470 8.893
47.5773 9.781
47.6076 8.012
47.6378 7.390
47.6681 6.768
47.6984 3.751
47.7287 3.338
47.7590 3.030
47.7892 3.087
47.8195 2.623
47.8498 1.691
47.8801 1.957
47.9104 1.859
47.9406 1.137
47.9709 1.144
48.0012 1.672
48.0315 0.846
48.0617 0.229
48.0920 0.186
48.1223 0.247
48.1526 0.777
48.1829 0.109
48.2131 0.588
48.2434 0.234
48.2737 0.453
48.3040 0.776
48.3343 0.371
48.3645 0.331
48.3948 0.187
48.4251 1.189
48.4554 0.212
48.4856 0.278
48.5159 1.021
48.5462 0.514
48.5765 0.372
48.6068 -0.238
48.6370 -0.014
48.6673 -0.624
48.6976 0.052
48.7279 -0.053
48.7582 0.155
48.7884 -0.053
48.8187 0.468
48.8490 -0.260
48.8793 0.314
48.9095 0.367
48.9398 0.474
48.9701 0.163
49.0004 -0.094
49.0307 0.325
49.0609 -0.140
49.0912 0.020
49.1215 0.180
49.1518 0.341
49.1821 0.138
49.2123 -0.065
49.2426 0.357
49.2729 -0.158
49.3032 0.734
49.3334 -0.301
49.3637 0.435
49.3940 0.183
49.4243 0.190
49.4546 0.407
49.4848 0.676
49.5151 0.685
49.5454 0.486
49.5757 0.652
49.6060 -0.327
49.6362 0.308
49.6665 0.267
49.6968 -0.503
49.7271 0.030
49.7574 -0.271
49.7876 -0.020
49.8179 0.336
49.8482 -0.194
49.8785 0.267
49.9087 0.415
49.9390 0.043
49.9693 0.401
49.9996 0.706
50.0299 -0.081
50.0601 0.485
50.0904 0.324
50.1207 0.214
50.1510 0.001
50.1813 -0.212
50.2115 -0.164
50.2418 -0.220
50.2721 -0.015
50.3024 0.034
50.3326 0.656
50.3629 0.133
50.3932 -0.389
50.4235 -0.079
50.4538 0.441
50.4840 0.284
50.5143 0.023
50.5446 -0.134
50.5749 0.283
50.6052 0.492
50.6354 -0.132
50.6657 0.078
50.6960 0.288
50.7263 -0.231
50.7565 -0.280
50.7868 -0.019
50.8171 0.295
50.8474 0.349
50.8777 0.768
50.9079 -0.115
50.9382 -0.112
50.9685 0.256
50.9988 0.572
51.0291 0.681
51.0593 0.269
51.0896 -0.091
51.1199 0.175
51.1502 0.076
51.1804 -0.074
51.2107 -0.172
51.2410 0.251
51.2713 0.050
51.3016 0.266
51.3318 -0.038
51.3621 0.439
51.3924 0.031
51.4227 0.040
51.4530 0.361
51.4832 -0.150
51.5135 -0.192
51.5438 -0.285
51.5741 0.237
51.6043 0.343
51.6346 0.450
51.6649 0.348
51.6952 0.247
51.7255 -0.427
51.7557 0.202
51.7860 0.154
51.8163 0.107
51.8466 0.320
51.8769 -0.404
51.9071 0.123
51.9374 0.389
51.9677 -0.177
51.9980 0.506
52.0282 0.149
52.0585 -0.052
52.0888 0.425
52.1191 -0.088
52.1494 0.390
52.1796 0.034
52.2099 -0.165
52.2402 -0.363
52.2705 0.196
52.3008 0.183
52.3310 0.170
52.3613 0.209
52.3916 0.249
52.4219 0.289
52.4521 0.122
52.4824 0.163
52.5127 0.048
52.5430 -0.119
52.5733 -0.129
52.6035 0.383
52.6338 0.686
52.6641 0.938
52.6944 -0.269
52.7247 -0.329
52.7549 0.497
52.7852 -0.344
52.8155 -0.038
52.8458 0.320
52.8761 -0.363
52.9063 -0.057
52.9366 -0.062
52.9669 -0.276
52.9972 0.085
53.0274 0.290
53.0577 0.234
53.0880 -0.342
53.1183 0.489
53.1486 0.070
53.1788 0.642
53.2091 0.536
53.2394 0.222
53.2697 0.378
53.3000 0.013
53.3302 -0.299
53.3605 0.482
53.3908 -0.038
53.4211 -0.140
53.4513 -0.087
53.4816 0.176
53.5119 0.490
53.5422 0.389
53.5725 0.288
53.6027 0.343
53.6330 -0.382
53.6633 0.143
53.6936 -0.008
53.7239 -0.003
53.7541 0.262
53.7844 0.320
53.8147 0.014
53.8450 0.333
53.8752 -0.442
53.9055 0.138
53.9358 -0.271
53.9661 -0.233
53.9964 -0.143
54.0266 -0.053
54.0569 0.298
54.0872 -0.444
54.1175 0.481
54.1478 -0.209
54.1780 -0.064
54.2083 0.341
54.2386 -0.035
54.2689 -0.150
54.2991 -0.056
54.3294 -0.014
54.3597 0.236
54.3900 -0.294
54.4203 0.114
54.4505 -0.468
54.4808 -0.064
54.5111 0.080
54.5414 -0.193
54.5717 0.524
54.6019 -0.060
54.6322 0.085
54.6625 -0.551
54.6928 0.115
54.7230 -0.311
54.7533 -0.071
54.7836 -0.091
54.8139 -0.110
54.8442 -0.077
54.8744 -0.304
54.9047 -0.114
54.9350 -0.236
54.9653 0.423
54.9956 0.145
55.0258 -0.445
55.0561 0.527
55.0864 0.199
55.1167 0.339
55.1469 0.531
55.1772 0.204
55.2075 -0.176
55.2378 0.278
55.2681 -0.100
55.2983 -0.062
55.3286 -0.023
55.3589 0.120
55.3892 -0.362
55.4195 0.199
55.4497 0.031
55.4800 0.176
55.5103 0.112
55.5406 -0.003
55.5709 0.300
55.6011 0.967
55.6314 0.644
55.6617 1.312
55.6920 0.001
55.7222 0.982
55.7525 0.714
55.7828 0.602
55.8131 1.063
55.8434 1.733
55.8736 1.154
55.9039 1.772
55.9342 2.600
55.9645 2.334
55.9948 3.006
56.0250 2.480
56.0553 4.090
56.0856 3.722
56.1159 4.135
56.1461 7.257
56.1764 6.108
56.2067 7.616
56.2370 8.707
56.2673 8.758
56.2975 11.933
56.3278 13.495
56.3581 16.046
56.3884 17.296
56.4187 17.661
56.4489 17.922
56.4792 16.152
56.5095 15.528
56.5398 15.061
56.5700 13.032
56.6003 11.784
56.6306 12.047
56.6609 9.446
56.6912 8.408
56.7214 8.828
56.7517 7.426
56.7820 4.983
56.8123 5.144
56.8426 4.525
56.8728 3.489
56.9031 3.443
56.9334 3.762
56.9637 2.206
56.9939 2.109
57.0242 2.638
57.0545 1.760
57.0848 1.196
57.1151 1.673
57.1453 1.109
57.1756 1.744
57.2059 0.973
57.2362 0.566
57.2665 0.473
57.2967 -0.193
57.3270 0.912
57.3573 1.236
57.3876 0.258
57.4178 0.583
57.4481 0.857
57.4784 -0.067
57.5087 -0.158
57.5390 0.116
57.5692 -0.078
57.5995 0.562
57.6298 0.525
57.6601 -0.188
57.6904 -0.068
57.7206 -0.312
57.7509 0.066
57.7812 0.340
57.8115 -0.219
57.8417 0.421
57.8720 0.384
57.9023 -0.069
57.9326 -0.106
57.9629 -0.037
57.9931 0.187
58.0234 -0.160
58.0537 -0.299
58.0840 -0.190
58.1143 0.127
58.1445 -0.024
58.1748 -0.227
58.2051 -0.012
58.2354 -0.162
58.2656 -0.728
58.2959 0.215
58.3262 0.689
58.3565 -0.243
58.3868 0.128
58.4170 -0.178
58.4473 -0.744
58.4776 0.774
58.5079 0.365
58.5382 -0.304
58.5684 0.590
58.5987 -0.338
58.6290 -0.121
58.6593 0.202
58.6896 -0.101
58.7198 -0.090
58.7501 -0.236
58.7804 0.348
58.8107 -0.057
58.8409 -0.201
58.8712 0.176
58.9015 -0.280
58.9318 -0.173
58.9621 0.820
58.9923 -0.010
59.0226 0.411
59.0529 -0.105
59.0832 -0.048
59.1135 -0.043
59.1437 0.067
59.1740 0.021
59.2043 0.080
59.2346 0.503
59.2648 -0.167
59.2951 -0.471
59.3254 0.370
59.3557 0.014
59.3860 0.179
59.4162 -0.021
59.4465 -0.220
59.4768 0.103
59.5071 -0.147
59.5374 -0.137
59.5676 -0.126
59.5979 0.406
59.6282 0.314
59.6585 0.378
59.6887 -0.234
59.7190 -0.065
59.7493 -0.260
59.7796 0.085
59.8099 0.848
59.8401 0.205
59.8704 0.500
59.9007 0.431
59.9310 0.310
59.9613 0.033
59.9915 0.330
60.0218 0.106
60.0521 0.351
60.0824 0.336
60.1126 -0.252
60.1429 -0.110
60.1732 0.293
60.2035 -0.554
60.2338 -0.150
60.2640 0.150
60.2943 0.554
60.3246 0.073
60.3549 -0.251
60.3852 0.415
60.4154 0.456
60.4457 -0.127
60.4760 -0.554
60.5063 0.635
60.5365 -0.104
60.5668 0.668
60.5971 -0.278
60.6274 0.131
60.6577 0.123
60.6879 -0.457
60.7182 0.265
60.7485 -0.159
60.7788 -0.217
60.8091 -0.067
60.8393 -0.072
60.8696 0.652
60.8999 0.230
60.9302 -0.243
60.9604 -0.299
60.9907 -0.095
61.0210 0.005
61.0513 -0.572
61.0816 0.034
61.1118 0.172
61.1421 -0.471
61.1724 0.137
61.2027 0.276
61.2330 -0.731
61.2632 -0.175
61.2935 -0.399
61.3238 0.262
61.3541 -0.222
61.3844 0.076
61.4146 -0.408
61.4449 0.411
61.4752 0.397
61.5055 -0.033
61.5357 0.058
61.5660 -0.267
61.5963 -0.071
61.6266 0.021
61.6569 -0.095
61.6871 0.050
61.7174 -0.221
61.7477 0.706
61.7780 -0.294
61.8083 -0.043
61.8385 0.051
61.8688 0.199
61.8991 0.659
61.9294 0.182
61.9596 0.538
61.9899 0.271
62.0202 0.159
62.0505 0.830
62.0808 0.979
62.1110 0.973
62.1413 0.916
62.1716 0.598
62.2019 1.270
62.2322 1.630
62.2624 2.407
62.2927 2.664
62.3230 3.181
62.3533 2.918
62.3835 3.749
62.4138 4.163
62.4441 5.151
62.4744 6.295
62.5047 7.075
62.5349 9.262
62.5652 12.178
62.5955 10.772
62.6258 13.064
62.6561 13.065
62.6863 14.941
62.7166 15.359
62.7469 14.736
62.7772 14.426
62.8074 12.189
62.8377 11.931
62.8680 11.622
62.8983 10.532
62.9286 9.286
62.9588 8.509
62.9891 8.098
63.0194 6.020
63.0497 4.515
63.0800 3.635
63.1102 3.902
63.1405 3.284
63.1708 2.926
63.2011 2.361
63.2313 0.390
63.2616 1.388
63.2919 0.094
63.3222 1.405
63.3525 1.154
63.3827 0.747
63.4130 0.757
63.4433 0.716
63.4736 0.206
63.5039 0.217
63.5341 0.697
63.5644 0.084
63.5947 0.409
63.6250 -0.099
63.6552 0.331
63.6855 0.657
63.7158 0.254
63.7461 -0.200
63.7764 -0.238
63.8066 -0.014
63.8369 -0.416
63.8672 0.061
63.8975 0.590
63.9278 0.234
63.9580 0.347
63.9883 -0.112
64.0186 -0.884
64.0489 0.741
64.0791 -0.186
64.1094 0.345
64.1397 0.356
64.1700 -0.465
64.2003 -0.037
64.2305 0.757
64.2608 0.144
64.2911 -0.363
64.3214 -0.100
64.3517 0.528
64.3819 -0.093
64.4122 -0.089
64.4425 0.489
64.4728 0.181
64.5031 0.187
64.5333 0.140
64.5636 -0.062
64.5939 0.205
64.6242 -0.049
64.6544 0.062
64.6847 -0.295
64.7150 -0.092
64.7453 0.268
64.7756 -0.518
64.8058 -0.001
64.8361 -0.057
64.8664 -0.321
64.8967 0.458
64.9270 -0.274
64.9572 -0.068
64.9875 0.399
65.0178 -0.176
65.0481 0.084
65.0783 -0.021
65.1086 -0.126
65.1389 0.656
65.1692 -0.073
65.1995 0.448
65.2297 -0.071
65.2600 0.034
65.2903 -0.172
65.3206 -0.170
65.3509 0.041
65.3811 -0.008
65.4114 -0.213
65.4417 -0.105
65.4720 0.003
65.5022 0.112
65.5325 0.013
65.5628 -0.295
65.5931 -0.046
65.6234 -0.162
65.6536 0.347
65.6839 -0.132
65.7142 0.430
65.7445 0.316
65.7748 0.046
65.8050 -0.068
65.8353 -0.337
65.8656 0.110
65.8959 0.819
65.9261 0.955
65.9564 0.206
65.9867 0.290
66.0170 0.792
66.0473 1.658
66.0775 0.963
66.1078 0.997
66.1381 1.292
66.1684 1.326
66.1987 1.726
66.2289 0.772
66.2592 1.433
66.2895 1.261
66.3198 1.558
66.3500 0.866
66.3803 0.695
66.4106 2.087
66.4409 1.031
66.4712 0.184
66.5014 0.692
66.5317 -0.363
66.5620 0.406
66.5923 -0.335
66.6226 -0.086
66.6528 0.580
66.6831 0.204
66.7134 -0.067
66.7437 -0.338
66.7739 -0.090
66.8042 -0.258
66.8345 -0.270
66.8648 0.292
66.8951 0.541
66.9253 -0.303
66.9556 -0.105
66.9859 0.510
67.0162 0.240
67.0465 0.127
67.0767 -0.038
67.1070 0.787
67.1373 0.674
67.1676 1.448
67.1978 0.659
67.2281 0.861
67.2584 0.698
67.2887 1.265
67.3190 1.728
67.3492 1.410
67.3795 1.249
67.4098 2.546
67.4401 2.437
67.4704 2.277
67.5006 3.836
67.5309 3.781
67.5612 4.612
67.5915 5.442
67.6218 5.128
67.6520 6.376
67.6823 7.469
67.7126 8.093
67.7429 8.717
67.7731 10.280
67.8034 9.759
67.8337 10.853
67.8640 10.646
67.8943 8.564
67.9245 7.680
67.9548 8.255
67.9851 6.956
68.0154 6.438
68.0457 6.180
68.0759 5.351
68.1062 6.448
68.1365 3.484
68.1668 3.280
68.1970 3.390
68.2273 2.822
68.2576 2.307
68.2879 2.261
68.3182 1.643
68.3484 1.754
68.3787 2.386
68.4090 2.498
68.4393 1.777
68.4696 1.109
68.4998 2.420
68.5301 1.543
68.5604 1.553
68.5907 2.344
68.6209 1.521
68.6512 2.365
68.6815 1.908
68.7118 2.857
68.7421 2.556
68.7723 3.193
68.8026 4.039
68.8329 3.271
68.8632 3.701
68.8935 4.131
68.9237 3.416
68.9540 2.962
68.9843 4.383
69.0146 4.503
69.0448 3.945
69.0751 3.232
69.1054 3.196
69.1357 2.536
69.1660 2.709
69.1962 2.258
69.2265 2.484
69.2568 1.252
69.2871 1.740
69.3174 1.186
69.3476 1.518
69.3779 0.548
69.4082 1.141
69.4385 0.589
69.4687 0.297
69.4990 0.266
69.5293 0.548
69.5596 0.726
69.5899 0.592
69.6201 -0.270
69.6504 -0.299
69.6807 -0.185
69.7110 -0.174
69.7413 0.357
69.7715 0.421
69.8018 -0.193
69.8321 0.028
69.8624 0.144
69.8926 0.157
69.9229 -0.142
69.9532 -0.233
69.9835 -0.063
70.0138 0.004
70.0440 -0.503
70.0743 0.242
70.1046 -0.212
70.1349 -0.144
70.1652 -0.023
70.1954 -0.007
70.2257 0.010
70.2560 -0.285
70.2863 0.034
70.3166 0.042
70.3468 -0.055
70.3771 0.318
70.4074 0.170
70.4377 -0.238
70.4679 -0.020
70.4982 0.094
70.5285 -0.052
70.5588 0.583
70.5891 0.073
70.6193 0.397
70.6496 0.304
70.6799 0.160
70.7102 -0.297
70.7405 0.028
70.7707 -0.115
70.8010 0.211
70.8313 0.746
70.8616 -0.230
70.8918 0.045
70.9221 -0.200
70.9524 0.284
70.9827 0.143
71.0130 0.107
71.0432 0.436
71.0735 -0.224
71.1038 -0.155
71.1341 -0.138
71.1644 0.245
71.1946 0.159
71.2249 0.334
71.2552 -0.220
71.2855 -0.044
71.3157 -0.233
71.3460 -0.085
71.3763 0.012
71.4066 -0.047
71.4369 0.363
71.4671 -0.060
71.4974 0.194
71.5277 0.449
71.5580 -0.286
71.5883 -0.239
71.6185 -0.087
71.6488 0.430
71.6791 0.270
71.7094 0.162
71.7396 0.107
71.7699 0.730
71.8002 0.363
71.8305 0.049
71.8608 -0.057
71.8910 -0.162
71.9213 0.150
71.9516 -0.007
71.9819 -0.111
72.0122 0.358
72.0424 0.567
72.0727 0.256
72.1030 -0.159
72.1333 -0.209
72.1635 0.053
72.1938 0.473
72.2241 0.476
72.2544 0.219
72.2847 0.483
72.3149 0.331
72.3452 0.908
72.3755 1.747
72.4058 1.335
72.4361 1.289
72.4663 1.035
72.4966 1.406
72.5269 0.735
72.5572 0.534
72.5874 1.115
72.6177 0.914
72.6480 0.818
72.6783 0.410
72.7086 0.420
72.7388 0.637
72.7691 1.012
72.7994 0.345
72.8297 0.251
72.8600 0.314
72.8902 0.013
72.9205 0.025
72.9508 0.714
72.9811 0.049
73.0113 0.427
73.0416 0.127
73.0719 0.089
73.1022 0.572
73.1325 -0.091
73.1627 -0.233
73.1930 0.126
73.2233 0.172
73.2536 -0.042
73.2839 0.318
73.3141 0.314
73.3444 0.934
73.3747 0.201
73.4050 0.354
73.4353 0.299
73.4655 0.140
73.4958 -0.019
73.5261 0.084
73.5564 0.343
73.5866 0.550
73.6169 0.028
73.6472 -0.233
73.6775 0.022
73.7078 -0.244
73.7380 0.585
73.7683 0.320
73.7986 0.264
73.8289 -0.104
73.8592 0.413
73.8894 0.358
73.9197 -0.269
73.9500 -0.219
73.9803 -0.221
74.0105 0.087
74.0408 0.031
74.0711 -0.233
74.1014 0.181
74.1317 0.074
74.1619 0.176
74.1922 -0.191
74.2225 -0.140
74.2528 -0.194
74.2831 0.274
74.3133 -0.664
74.3436 -0.195
74.3739 0.222
74.4042 0.118
74.4344 -0.141
74.4647 0.277
74.4950 0.018
74.5253 0.020
74.5556 0.179
74.5858 0.234
74.6161 0.393
74.6464 -0.020
74.6767 0.349
74.7070 0.405
74.7372 -0.059
74.7675 -0.314
74.7978 0.317
74.8281 0.166
74.8583 0.172
74.8886 0.023
74.9189 0.134
74.9492 -0.275
74.9795 0.097
75.0097 0.366
75.0400 -0.199
75.0703 0.383
75.1006 -0.337
75.1309 -0.337
75.1611 0.652
75.1914 0.184
75.2217 0.550
75.2520 0.082
75.2822 0.032
75.3125 0.815
75.3428 0.400
75.3731 0.143
75.4034 0.719
75.4336 0.149
75.4639 0.153
75.4942 0.366
75.5245 0.162
75.5548 -0.042
75.5850 0.380
75.6153 -0.030
75.6456 -0.285
75.6759 0.063
75.7061 0.203
75.7364 0.031
75.7667 0.224
75.7970 0.001
75.8273 0.247
75.8575 0.232
75.8878 0.219
75.9181 0.309
75.9484 0.036
75.9787 -0.029
76.0089 0.427
76.0392 0.051
76.0695 0.508
76.0998 -0.337
76.1301 0.225
76.1603 0.423
76.1906 0.100
76.2209 -0.014
76.2512 -0.075
76.2814 0.280
76.3117 0.376
76.3420 0.211
76.3723 0.204
76.4026 0.509
76.4328 -0.072
76.4631 0.234
76.4934 0.436
76.5237 0.430
76.5540 0.425
76.5842 0.940
76.6145 0.310
76.6448 0.983
76.6751 0.979
76.7053 1.496
76.7356 0.763
76.7659 0.760
76.7962 1.122
76.8265 1.328
76.8567 0.962
76.8870 0.491
76.9173 1.115
76.9476 1.167
76.9779 0.906
77.0081 0.854
77.0384 1.375
77.0687 0.438
77.0990 0.596
77.1292 0.441
77.1595 0.391
77.1898 0.237
77.2201 0.343
77.2504 0.294
77.2806 0.194
77.3109 0.145
77.3412 0.201
77.3715 0.050
77.4018 0.263
77.4320 0.633
77.4623 -0.143
77.4926 0.072
77.5229 0.547
77.5531 -0.072
77.5834 -0.064
77.6137 0.099
77.6440 -0.153
77.6743 0.063
77.7045 -0.553
77.7348 0.341
77.7651 0.507
77.7954 0.100
77.8257 -0.046
77.8559 0.069
77.8862 -0.337
77.9165 -0.024
77.9468 0.080
77.9770 0.237
78.0073 0.082
78.0376 0.136
78.0679 0.815
78.0982 0.088
78.1284 -0.014
78.1587 0.458
78.1890 -0.215
78.2193 -0.003
78.2496 0.366
78.2798 -0.359
78.3101 0.010
78.3404 0.745
78.3707 -0.031
78.4009 -0.337
78.4312 0.080
78.4615 0.185
78.4918 -0.022
78.5221 -0.124
78.5523 0.503
78.5826 -0.432
78.6129 -0.221
78.6432 -0.012
78.6735 -0.062
78.7037 0.669
78.7340 0.462
78.7643 0.100
78.7946 -0.001
78.8248 -0.102
78.8551 -0.202
78.8854 0.062
78.9157 0.119
78.9460 -0.033
78.9762 0.129
79.0065 -0.387
79.0368 0.452
79.0671 0.146
79.0974 -0.055
79.1276 0.316
79.1579 0.063
79.1882 0.383
79.2185 0.600
79.2488 -0.173
79.2790 0.149
79.3093 -0.311
79.3396 -0.109
79.3699 -0.063
79.4001 -0.017
79.4304 -0.179
79.4607 -0.132
79.4910 0.124
79.5213 0.120
79.5515 0.116
79.5818 0.425
79.6121 0.474
79.6424 0.054
79.6727 0.000
79.7029 0.414
79.7332 -0.056
79.7635 -0.110
79.7938 -0.006
79.8240 -0.111
79.8543 0.357
79.8846 -0.319
79.9149 -0.215
79.9452 0.141
79.9754 0.289
80.0057 0.386
80.0360 0.170
80.0663 -0.150
80.0966 0.312
80.1268 -0.215
80.1571 -0.221
80.1874 -0.077
80.2177 -0.089
80.2479 -0.204
80.2782 0.149
80.3085 -0.018
80.3388 0.493
80.3691 -0.247
80.3993 -0.048
80.4296 -0.526
80.4599 0.351
80.4902 -0.022
80.5205 -0.551
80.5507 0.222
80.5810 -0.097
80.6113 0.416
80.6416 -0.007
80.6718 -0.117
80.7021 0.033
80.7324 0.340
80.7627 0.127
80.7930 -0.138
80.8232 0.326
80.8535 0.062
80.8838 -0.046
80.9141 0.211
80.9444 0.208
80.9746 -0.211
81.0049 0.100
81.0352 -0.058
81.0655 0.305
81.0957 0.773
81.1260 0.772
81.1563 0.668
81.1866 0.564
81.2169 0.512
81.2471 0.617
81.2774 0.671
81.3077 0.360
81.3380 0.414
81.3683 0.417
81.3985 0.003
81.4288 0.527
81.4591 1.051
81.4894 0.274
81.5196 0.278
81.5499 -0.082
81.5802 0.444
81.6105 0.345
81.6408 0.039
81.6710 0.097
81.7013 0.208
81.7316 0.162
81.7619 -0.039
81.7922 -0.187
81.8224 -0.075
81.8527 -0.119
81.8830 -0.058
81.9133 0.160
81.9436 0.482
81.9738 -0.029
82.0041 -0.227
82.0344 -0.022
82.0647 -0.025
82.0949 -0.183
82.1252 0.283
82.1555 -0.083
82.1858 0.020
82.2161 -0.189
82.2463 0.018
82.2766 -0.190
82.3069 -0.138
82.3372 0.071
82.3675 0.020
82.3977 -0.343
82.4280 0.127
82.4583 -0.600
82.4886 0.132
82.5188 -0.334
82.5491 0.034
82.5794 0.402
82.6097 -0.011
82.6400 0.462
82.6702 -0.314
82.7005 0.003
82.7308 0.009
82.7611 -0.038
82.7914 0.177
82.8216 -0.181
82.8519 -0.018
82.8822 0.042
82.9125 0.049
82.9427 0.214
82.9730 0.170
83.0033 0.283
83.0336 0.396
83.0639 -0.219
83.0941 -0.053
83.1244 0.218
83.1547 0.177
83.1850 0.396
83.2153 0.043
83.2455 0.315
83.2758 0.119
83.3061 0.184
83.3364 -0.064
83.3666 -0.207
83.3969 0.093
83.4272 0.238
83.4575 0.591
83.4878 0.163
83.5180 0.256
83.5483 -0.380
83.5786 0.548
83.6089 0.121
83.6392 0.164
83.6694 0.051
83.6997 0.146
83.7300 0.034
83.7603 0.391
83.7905 -0.190
83.8208 0.116
83.8511 0.265
83.8814 -0.158
83.9117 0.201
83.9419 0.143
83.9722 -0.227
84.0025 0.029
84.0328 -0.236
84.0631 0.124
84.0933 -0.036
84.1236 -0.143
84.1539 0.114
84.1842 -0.045
84.2144 -0.047
84.2447 0.003
84.2750 -0.363
84.3053 0.049
84.3356 0.357
84.3658 -0.012
84.3961 0.141
84.4264 -0.279
84.4567 -0.022
84.4870 0.132
84.5172 -0.079
84.5475 0.180
84.5778 -0.291
84.6081 -0.031
84.6383 0.020
84.6686 -0.084
84.6989 0.072
84.7292 -0.397
84.7595 0.385
84.7897 0.022
84.8200 -0.081
84.8503 0.703
84.8806 -0.024
84.9109 -0.022
84.9411 -0.227
84.9714 -0.067
85.0017 0.093
85.0320 -0.476
85.0623 0.570
85.0925 0.210
85.1228 0.111
85.1531 -0.144
85.1834 -0.034
85.2136 -0.027
85.2439 -0.229
85.2742 0.143
85.3045 -0.214
85.3348 0.054
85.3650 0.166
85.3953 0.071
85.4256 -0.389
85.4559 -0.020
85.4862 0.193
85.5164 -0.114
85.5467 -0.109
85.5770 -0.259
85.6073 0.152
85.6375 0.564
85.6678 0.039
85.6981 0.086
85.7284 0.187
85.7587 -0.338
85.7889 0.128
85.8192 -0.031
85.8495 0.435
85.8798 0.277
85.9101 -0.246
85.9403 0.222
85.9706 0.377
86.0009 0.116
86.0312 0.012
86.0614 0.012
86.0917 -0.039
86.1220 -0.142
86.1523 -0.141
86.1826 -0.139
86.2128 -0.085
86.2431 0.438
86.2734 0.129
86.3037 -0.285
86.3340 -0.076
86.3642 0.498
86.3945 0.135
86.4248 -0.072
86.4551 0.087
86.4853 0.350
86.5156 -0.116
86.5459 0.043
86.5762 0.203
86.6065 0.259
86.6367 0.524
86.6670 -0.148
86.6973 0.222
86.7276 0.123
86.7579 0.285
86.7881 -0.073
86.8184 0.142
86.8487 -0.059
86.8790 -0.208
86.9092 0.040
86.9395 0.028
86.9698 -0.191
87.0001 0.319
87.0304 -0.212
87.0606 -0.170
87.0909 0.236
87.1212 0.331
87.1515 -0.042
87.1818 0.418
87.2120 0.462
87.2423 -0.015
87.2726 -0.022
87.3029 0.023
87.3331 0.016
87.3634 -0.147
87.3937 -0.153
87.4240 -0.002
87.4543 -0.112
87.4845 -0.012
87.5148 0.660
87.5451 0.031
87.5754 -0.285
87.6057 0.021
87.6359 0.327
87.6662 -0.095
87.6965 0.055
87.7268 -0.106
87.7571 0.150
87.7873 -0.011
87.8176 -0.067
87.8479 -0.018
87.8782 -0.178
87.9084 -0.233
87.9387 -0.083
87.9690 -0.089
87.9993 -0.043
88.0296 -0.152
88.0598 -0.157
88.0901 0.046
88.1204 -0.010
88.1507 0.038
88.1810 -0.069
88.2112 -0.073
88.2415 -0.179
88.2718 -0.130
88.3021 -0.132
88.3323 0.127
88.3626 -0.239
88.3929 -0.294
88.4232 0.379
88.4535 0.272
88.4837 0.478
88.5140 0.319
88.5443 0.213
88.5746 0.316
88.6049 0.315
88.6351 0.366
88.6654 -0.259
88.6957 -0.325
88.7260 0.443
88.7562 0.222
88.7865 0.054
88.8168 -0.323
88.8471 0.186
88.8774 0.123
88.9076 0.372
88.9379 0.101
88.9682 0.195
88.9985 0.550
89.0288 0.280
89.0590 0.688
89.0893 0.627
89.1196 1.088
89.1499 1.236
89.1801 0.552
89.2104 0.805
89.2407 0.746
89.2710 2.667
89.3013 1.515
89.3315 1.561
89.3618 1.504
89.3921 2.176
89.4224 2.432
89.4527 1.959
89.4829 2.164
89.5132 1.796
89.5435 2.105
89.5738 1.269
89.6040 1.267
89.6343 1.942
89.6646 1.055
89.6949 1.783
89.7252 1.105
89.7554 0.897
89.7857 1.313
89.8160 1.001
89.8463 1.262
89.8766 1.263
89.9068 0.952
89.9371 0.538
89.9674 0.175
89.9977 0.542
90.0279 -0.236
90.0582 0.757
90.0885 0.084
90.1188 0.713
90.1491 -0.116
90.1793 0.045
90.2096 0.259
90.2399 0.108
90.2702 -0.042
90.3005 0.120
90.3307 0.231
90.3610 0.811
90.3913 -0.275
90.4216 -0.007
90.4518 0.262
90.4821 0.010
90.5124 0.228
90.5427 0.185
90.5730 0.090
90.6032 0.048
90.6335 0.163
90.6638 0.122
90.6941 0.185
90.7244 -0.220
90.7546 -0.052
90.7849 0.013
90.8152 -0.183
90.8455 -0.065
90.8758 0.781
90.9060 -0.142
90.9363 -0.128
90.9666 0.355
90.9969 0.579
91.0271 -0.031
91.0574 -0.119
91.0877 0.001
91.1180 -0.347
91.1483 0.607
91.1785 -0.052
91.2088 0.017
91.2391 0.035
91.2694 -0.259
91.2997 -0.008
91.3299 -0.121
91.3602 0.599
91.3905 0.070
91.4208 0.062
91.4510 0.054
91.4813 -0.578
91.5116 0.092
91.5419 0.085
91.5722 -0.182
91.6024 0.125
91.6327 -0.141
91.6630 -0.146
91.6933 -0.046
91.7236 -0.259
91.7538 0.096
91.7841 -0.070
91.8144 0.650
91.8447 0.329
91.8749 0.372
91.9052 0.052
91.9355 0.253
91.9658 -0.276
91.9961 0.238
92.0263 0.180
92.0566 0.434
92.0869 0.220
92.1172 0.319
92.1475 0.262
92.1777 -0.003
92.2080 -0.216
92.2383 -0.220
92.2686 0.454
92.2988 0.346
92.3291 -0.021
92.3594 -0.128
92.3897 0.183
92.4200 0.442
92.4502 0.284
92.4805 0.700
92.5108 0.804
92.5411 0.335
92.5714 0.231
92.6016 0.179
92.6319 0.805
92.6622 0.598
92.6925 0.600
92.7227 0.134
92.7530 0.084
92.7833 1.181
92.8136 0.507
92.8439 0.719
92.8741 0.150
92.9044 0.154
92.9347 0.315
92.9650 0.060
92.9953 0.169
93.0255 0.957
93.0558 0.338
93.0861 0.240
93.1164 0.508
93.1466 -0.318
93.1769 0.523
93.2072 0.635
93.2375 -0.138
93.2678 -0.233
93.2980 0.194
93.3283 -0.108
93.3586 -0.045
93.3889 0.487
93.4192 -0.127
93.4494 0.198
93.4797 0.471
93.5100 -0.142
93.5403 -0.285
93.5706 0.169
93.6008 -0.158
93.6311 -0.015
93.6614 0.440
93.6917 0.479
93.7219 -0.003
93.7522 0.141
93.7825 0.129
93.8128 0.273
93.8431 0.106
93.8733 -0.114
93.9036 -0.124
93.9339 -0.239
93.9642 -0.148
93.9945 -0.421
94.0247 0.348
94.0550 -0.341
94.0853 0.689
94.1156 -0.573
94.1458 -0.115
94.1761 0.187
94.2064 0.281
94.2367 0.271
94.2670 -0.467
94.2972 -0.217
94.3275 0.137
94.3578 0.128
94.3881 0.275
94.4184 -0.307
94.4486 0.205
94.4789 0.197
94.5092 0.137
94.5395 -0.182
94.5697 0.123
94.6000 -0.040
94.6303 0.631
94.6606 0.625
94.6909 0.620
94.7211 0.354
94.7514 0.922
94.7817 0.918
94.8120 0.550
94.8423 0.650
94.8725 0.595
94.9028 1.217
94.9331 1.110
94.9634 0.952
94.9936 1.575
95.0239 1.887
95.0542 1.417
95.0845 1.208
95.1148 1.364
95.1450 1.364
95.1753 1.156
95.2056 1.730
95.2359 1.836
95.2662 1.785
95.2964 1.110
95.3267 1.685
95.3570 1.584
95.3873 1.744
95.4175 1.487
95.4478 1.438
95.4781 1.547
95.5084 1.500
95.5387 0.671
95.5689 1.093
95.5992 0.787
95.6295 0.897
95.6598 0.695
95.6901 0.442
95.7203 0.814
95.7506 0.405
95.7809 0.308
95.8112 0.161
95.8414 0.534
95.8717 0.647
95.9020 -0.072
95.9323 0.406
95.9626 0.052
95.9928 0.479
96.0231 -0.030
96.0534 -0.071
96.0837 0.097
96.1140 -0.047
96.1442 -0.139
96.1745 0.187
96.2048 -0.164
96.2351 -0.047
96.2653 0.020
96.2956 0.190
96.3259 0.465
96.3562 -0.196
96.3865 -0.233
96.4167 0.240
96.4470 0.506
96.4773 0.094
96.5076 0.360
96.5379 -0.051
96.5681 0.268
96.5984 0.119
96.6287 0.230
96.6590 0.289
96.6893 0.453
96.7195 0.357
96.7498 0.053
96.7801 0.323
96.8104 0.280
96.8406 -0.596
96.8709 -0.221
96.9012 0.076
96.9315 0.060
96.9618 0.618
96.9920 0.187
97.0223 0.069
97.0526 -0.102
97.0829 0.510
97.1132 -0.232
97.1434 0.276
97.1737 0.315
97.2040 -0.426
97.2343 -0.125
97.2645 0.072
97.2948 -0.043
97.3251 -0.106
97.3554 0.041
97.3857 -0.126
97.4159 -0.239
97.4462 0.429
97.4765 0.004
97.5068 0.308
97.5371 -0.169
97.5673 -0.124
97.5976 -0.079
97.6279 0.018
97.6582 -0.301
97.6884 0.266
97.7187 0.261
97.7490 -0.213
97.7793 0.250
97.8096 0.142
97.8398 0.346
97.8701 0.290
97.9004 0.183
97.9307 -0.602
97.9610 0.177
97.9912 0.279
98.0215 0.225
98.0518 -0.193
98.0821 0.014
98.1123 0.378
98.1426 0.430
98.1729 -0.091
98.2032 0.065
98.2335 0.066
98.2637 0.848
98.2940 0.694
98.3243 0.383
98.3546 0.750
98.3849 1.013
98.4151 0.495
98.4454 0.759
98.4757 0.502
98.5060 1.340
98.5362 0.719
98.5665 0.880
98.5968 0.625
98.6271 0.839
98.6574 1.158
98.6876 0.799
98.7179 1.223
98.7482 0.865
98.7785 0.925
98.8088 0.516
98.8390 0.629
98.8693 0.689
98.8996 0.178
98.9299 0.864
98.9601 0.301
98.9904 0.363
99.0207 -0.303
99.0510 0.228
99.0813 0.031
99.1115 0.355
99.1418 0.107
99.1721 0.328
99.2024 0.132
99.2327 0.562
99.2629 0.471
99.2932 0.173
99.3235 -0.073
99.3538 0.254
99.3841 0.217
99.4143 0.024
99.4446 -0.221
99.4749 -0.110
99.5052 -0.311
99.5354 0.155
99.5657 0.413
99.5960 0.202
99.6263 0.304
99.6566 0.563
99.6868 0.562
99.7171 0.093
99.7474 0.353
99.7777 0.144
99.8080 0.093
99.8382 0.041
99.8685 -0.166
99.8988 0.148
99.9291 0.046
99.9593 -0.160
99.9896 0.207
100.0199 0.418
100.0502 0.005
100.0805 -0.200
100.1107 0.325
100.1410 -0.035
100.1713 0.387
100.2016 -0.285
100.2319 0.502
100.2621 0.039
100.2924 -0.215
100.3227 -0.018
100.3530 0.283
100.3832 0.115
100.4135 -0.364
100.4438 0.042
100.4741 -0.020
100.5044 0.387
100.5346 0.170
100.5649 -0.048
100.5952 -0.004
100.6255 0.196
100.6558 -0.332
100.6860 -0.079
100.7163 -0.191
100.7466 0.011
100.7769 0.057
100.8071 0.051
100.8374 -0.111
100.8677 0.041
100.8980 0.140
100.9283 0.031
100.9585 -0.233
100.9888 -0.237
101.0191 0.488
101.0494 0.016
101.0797 -0.144
101.1099 0.218
101.1402 -0.253
101.1705 0.109
101.2008 -0.518
101.2310 0.054
101.2613 0.157
101.2916 -0.312
101.3219 0.000
101.3522 -0.208
101.3824 0.261
101.4127 -0.311
101.4430 -0.217
101.4733 -0.174
101.5036 -0.131
101.5338 0.277
101.5641 -0.096
101.5944 0.104
101.6247 -0.060
101.6549 0.141
101.6852 -0.022
101.7155 0.284
101.7458 0.434
101.7761 0.012
101.8063 0.007
101.8366 0.418
101.8669 0.049
101.8972 0.045
101.9275 -0.063
101.9577 -0.067
101.9880 0.555
102.0183 0.292
102.0486 0.186
102.0788 -0.337
102.1091 -0.147
102.1394 -0.216
102.1697 -0.077
102.2000 -0.249
102.2302 -0.005
102.2605 -0.125
102.2908 -0.245
102.3211 0.261
102.3514 -0.118
102.3816 0.545
102.4119 0.166
102.4422 0.257
102.4725 -0.381
102.5028 0.283
102.5330 -0.146
102.5633 0.206
102.5936 -0.014
102.6239 0.288
102.6541 -0.400
102.6844 0.318
102.7147 0.673
102.7450 0.611
102.7753 -0.076
102.8055 0.123
102.8358 0.427
102.8661 0.263
102.8964 -0.370
102.9267 0.299
102.9569 0.136
102.9872 -0.027
103.0175 0.123
103.0478 0.429
103.0780 0.111
103.1083 -0.050
103.1386 -0.055
103.1689 0.096
103.1992 0.196
103.2294 0.349
103.2597 0.085
103.2900 -0.231
103.3203 -0.285
103.3506 -0.183
103.3808 -0.080
103.4111 -0.186
103.4414 0.543
103.4717 0.542
103.5019 0.073
103.5322 0.334
103.5625 0.439
103.5928 0.023
103.6231 -0.132
103.6533 0.131
103.6836 0.081
103.7139 0.240
103.7442 0.347
103.7745 0.402
103.8047 0.718
103.8350 0.879
103.8653 1.560
103.8956 0.732
103.9258 0.372
103.9561 2.097
103.9864 1.842
104.0167 1.015
104.0470 1.178
104.0772 1.446
104.1075 0.984
104.1378 0.888
104.1681 1.104
104.1984 0.853
104.2286 0.393
104.2589 0.350
104.2892 0.672
104.3195 0.266
104.3497 1.474
104.3800 0.704
104.4103 0.350
104.4406 0.466
104.4709 0.217
104.5011 0.126
104.5314 0.295
104.5617 0.047
104.5920 -0.148
104.6223 0.022
104.6525 0.610
104.6828 0.572
104.7131 0.379
104.7434 0.498
104.7736 0.514
104.8039 -0.043
104.8342 0.286
104.8645 0.095
104.8948 0.476
104.9250 0.025
104.9553 0.043
104.9856 -0.199
105.0159 0.393
105.0462 0.360
105.0764 -0.506
105.1067 0.139
105.1370 0.523
105.1673 0.023
105.1975 -0.268
105.2278 0.378
105.2581 0.035
105.2884 0.213
105.3187 -0.233
105.3489 -0.190
105.3792 0.479
105.4095 -0.102
105.4398 0.254
105.4701 0.403
105.5003 0.448
105.5306 0.285
105.5609 0.331
105.5912 -0.040
105.6215 0.423
105.6517 -0.051
105.6820 0.517
105.7123 -0.164
105.7426 0.144
105.7728 0.245
105.8031 0.189
105.8334 -0.074
105.8637 -0.337
105.8940 0.128
105.9242 0.437
105.9545 -0.295
105.9848 0.224
106.0151 0.065
106.0454 -0.197
106.0756 0.167
106.1059 -0.355
106.1362 0.269
106.1665 -0.200
106.1967 0.009
106.2270 0.114
106.2573 -0.094
106.2876 -0.040
106.3179 -0.195
106.3481 -0.037
106.3784 0.070
106.4087 0.229
106.4390 -0.080
106.4693 -0.233
106.4995 0.135
106.5298 -0.018
106.5601 0.455
106.5904 0.042
106.6206 -0.109
106.6509 0.156
106.6812 0.057
106.7115 -0.093
106.7418 0.486
106.7720 0.180
106.8023 0.030
106.8326 0.246
106.8629 -0.111
106.8932 -0.363
106.9234 0.270
106.9537 0.018
106.9840 -0.389
107.0143 0.021
107.0445 0.223
107.0748 -0.043
107.1051 0.317
107.1354 0.051
107.1657 0.255
107.1959 0.512
107.2262 0.195
107.2565 0.244
107.2868 0.241
107.3171 0.238
107.3473 -0.076
107.3776 0.234
107.4079 -0.392
107.4382 0.232
107.4684 0.595
107.4987 -0.134
107.5290 0.283
107.5593 0.075
107.5896 -0.289
107.6198 0.129
107.6501 -0.078
107.6804 0.236
107.7107 0.447
107.7410 0.033
107.7712 0.609
107.8015 0.143
107.8318 -0.166
107.8621 -0.005
107.8923 0.051
107.9226 0.265
107.9529 0.322
107.9832 0.276
108.0135 0.177
108.0437 0.340
108.0740 0.451
108.1043 0.718
108.1346 0.205
108.1649 -0.152
108.1951 0.117
108.2254 0.334
108.2557 -0.126
108.2860 0.405
108.3163 -0.159
108.3465 -0.148
108.3768 0.018
108.4071 0.967
108.4374 -0.012
108.4676 -0.208
108.4979 0.043
108.5282 0.606
108.5585 0.754
108.5888 0.225
108.6190 0.269
108.6493 0.001
108.6796 0.150
108.7099 0.143
108.7402 0.240
108.7704 0.286
108.8007 0.385
108.8310 0.379
108.8613 0.583
108.8915 0.213
108.9218 0.157
108.9521 0.257
108.9824 0.306
109.0127 -0.218
109.0429 -0.221
109.0732 0.182
109.1035 0.221
109.1338 -0.261
109.1641 0.352
109.1943 -0.025
109.2246 0.276
109.2549 0.317
109.2852 0.150
109.3154 0.295
109.3457 0.025
109.3760 0.223
109.4063 0.214
109.4366 0.257
109.4668 0.561
109.4971 0.240
109.5274 0.232
109.5577 -0.192
109.5880 0.374
109.6182 -0.206
109.6485 -0.108
109.6788 -0.010
109.7091 -0.224
109.7393 -0.230
109.7696 0.807
109.7999 0.334
109.8302 0.173
109.8605 0.638
109.8907 0.270
109.9210 0.163
109.9513 0.108
109.9816 0.002
110.0119 0.156
110.0421 0.103
110.0724 0.622
110.1027 0.621
110.1330 0.308
110.1632 0.308
110.1935 0.621
110.2238 0.622
110.2541 1.092
110.2844 0.208
110.3146 0.210
110.3449 0.524
110.3752 0.892
110.4055 0.217
110.4358 0.585
110.4660 0.745
110.4963 0.801
110.5266 0.181
110.5569 0.342
110.5871 0.243
110.6174 -0.272
110.6477 0.307
110.6780 0.209
110.7083 -0.097
110.7385 -0.142
110.7688 -0.239
110.7991 -0.133
110.8294 0.390
110.8597 -0.180
110.8899 0.760
110.9202 0.243
110.9505 -0.118
110.9808 -0.166
111.0110 -0.162
111.0413 -0.053
111.0716 0.056
111.1019 0.374
111.1322 0.068
111.1624 0.074
111.1927 -0.024
111.2230 0.244
111.2533 0.147
111.2836 0.363
111.3138 -0.097
111.3441 0.224
111.3744 -0.184
111.4047 -0.227
111.4350 0.192
111.4652 0.247
111.4955 -0.167
111.5258 -0.059
111.5561 0.153
111.5863 -0.155
111.6166 0.005
111.6469 0.010
111.6772 0.328
111.7075 0.178
111.7377 -0.285
111.7680 -0.135
111.7983 0.275
111.8286 0.166
111.8589 0.264
111.8891 -0.209
111.9194 -0.162
111.9497 0.147
111.9800 0.455
112.0102 -0.017
112.0405 0.397
112.0708 -0.179
112.1011 0.183
112.1314 0.129
112.1616 0.388
112.1919 -0.238
112.2222 0.178
112.2525 0.021
112.2828 -0.239
112.3130 0.282
112.3433 0.126
112.3736 0.336
112.4039 0.285
112.4341 0.027
112.4644 -0.127
112.4947 -0.177
112.5250 -0.070
112.5553 0.246
112.5855 -0.167
112.6158 -0.007
112.6461 -0.211
112.6764 -0.102
112.7067 -0.096
112.7369 0.274
112.7672 0.176
112.7975 0.546
112.8278 -0.332
112.8580 -0.221
112.8883 -0.126
112.9186 0.179
112.9489 0.275
112.9792 0.528
113.0094 -0.417
113.0397 -0.164
113.0700 0.195
113.1003 -0.228
113.1306 0.078
113.1608 -0.187
113.1911 -0.192
113.2214 -0.041
113.2517 -0.149
113.2819 -0.101
113.3122 0.156
113.3425 -0.055
113.3728 0.046
113.4031 0.096
113.4333 -0.167
113.4636 -0.064
113.4939 -0.065
113.5242 0.090
113.5545 -0.014
113.5847 0.194
113.6150 0.194
113.6453 0.038
113.6756 -0.169
113.7058 -0.324
113.7361 0.511
113.7664 0.045
113.7967 -0.057
113.8270 0.050
113.8572 -0.467
113.8875 -0.004
113.9178 -0.009
113.9481 0.298
113.9784 -0.071
114.0086 0.186
114.0389 -0.078
114.0692 -0.186
114.0995 0.124
114.1298 -0.087
114.1600 -0.037
114.1903 0.274
114.2206 0.012
114.2509 0.063
114.2811 -0.198
114.3114 -0.251
114.3417 0.374
114.3720 -0.302
114.4023 -0.197
114.4325 -0.248
114.4628 0.274
114.4931 0.172
114.5234 0.383
114.5537 0.073
114.5839 -0.028
114.6142 -0.233
114.6445 -0.038
114.6748 -0.050
114.7050 0.146
114.7353 0.082
114.7656 0.070
114.7959 -0.149
114.8262 0.465
114.8564 0.142
114.8867 -0.129
114.9170 -0.190
114.9473 0.373
114.9776 0.156
115.0078 0.200
115.0381 -0.017
115.0684 -0.337
115.0987 0.066
115.1289 0.001
115.1592 0.353
115.1895 0.444
115.2198 0.276
115.2501 0.212
115.2803 -0.059
115.3106 0.294
115.3409 0.492
115.3712 0.117
115.4015 0.212
115.4317 0.098
115.4620 0.089
115.4923 0.237
115.5226 0.489
115.5528 0.533
115.5831 1.046
115.6134 0.518
115.6437 0.564
115.6740 1.130
115.7042 0.291
115.7345 1.171
115.7648 0.749
115.7951 0.900
115.8254 0.896
115.8556 1.048
115.8859 0.783
115.9162 1.718
115.9465 0.829
115.9767 1.035
116.0070 1.449
116.0373 1.760
116.0676 1.758
116.0979 1.184
116.1281 2.121
116.1584 0.975
116.1887 1.548
116.2190 0.819
116.2493 2.434
116.2795 1.185
116.3098 0.718
116.3401 1.553
116.3704 1.035
116.4006 1.037
116.4309 1.561
116.4612 0.575
116.4915 1.204
116.5218 1.156
116.5520 1.160
116.5823 1.217
116.6126 1.327
116.6429 0.916
116.6732 0.869
116.7034 0.355
116.7337 0.987
116.7640 0.629
116.7943 0.585
116.8245 0.593
116.8548 1.017
116.8851 0.349
116.9154 0.723
116.9457 0.263
116.9759 0.533
117.0062 0.283
117.0365 0.971
117.0668 0.669
117.0971 0.368
117.1273 0.275
117.1576 0.391
117.1879 -0.065
117.2182 -0.104
117.2485 -0.247
117.2787 0.443
117.3090 0.145
117.3393 0.159
117.3696 -0.087
117.3998 0.605
117.4301 0.464
117.4604 0.115
117.4907 -0.389
117.5210 -0.075
117.5512 -0.177
117.5815 0.138
117.6118 -0.276
117.6421 0.040
117.6724 0.252
117.7026 0.308
117.7329 0.469
117.7632 0.317
117.7935 -0.042
117.8237 0.484
117.8540 -0.291
117.8843 -0.233
117.9146 -0.075
117.9449 0.604
117.9751 -0.019
118.0054 -0.068
118.0357 0.508
118.0660 0.042
118.0963 0.046
118.1265 0.519
118.1568 -0.310
118.1871 -0.097
118.2174 0.013
118.2476 0.539
118.2779 0.181
118.3082 0.083
118.3385 0.142
118.3688 -0.060
118.3990 -0.104
118.4293 -0.409
118.4596 0.172
118.4899 0.181
118.5202 0.346
118.5504 0.147
118.5807 0.157
118.6110 0.376
118.6413 -0.395
118.6715 0.137
118.7018 0.096
118.7321 0.107
118.7624 0.015
118.7927 -0.233
118.8229 0.014
118.8532 0.417
118.8835 0.299
118.9138 -0.183
118.9441 -0.195
118.9743 0.105
119.0046 -0.011
119.0349 0.238
119.0652 -0.085
119.0954 0.529
119.1257 0.467
119.1560 0.144
119.1863 0.343
119.2166 -0.395
119.2468 0.065
119.2771 -0.152
119.3074 0.048
119.3377 -0.063
119.3680 0.190
119.3982 0.079
119.4285 0.072
119.4588 -0.142
119.4891 0.112
119.5193 -0.310
119.5496 0.050
119.5799 0.201
119.6102 -0.168
119.6405 -0.224
119.6707 -0.019
119.7010 0.030
119.7313 -0.285
119.7616 0.011
119.7919 -0.057
119.8221 -0.177
119.8524 -0.244
119.8827 -0.080
119.9130 0.554
119.9433 -0.530
119.9735 -0.260
120.0038 0.000
