'Id: "" Comment: "" Operator: "Lab Manager" Anode: "Cu" Scantype: "Locked Coupled" TimePerStep: "19.2" X: "9999" Y: "9999" Z: "9999" 
10.0015 0.000
10.0318 0.537
10.0620 0.554
10.0923 0.155
10.1226 0.797
10.1529 0.503
10.1832 0.782
10.2134 -0.918
10.2437 -0.013
10.2740 0.423
10.3043 -0.859
10.3346 -0.390
10.3648 0.443
10.3951 -0.026
10.4254 -0.233
10.4557 0.289
10.4859 0.186
10.5162 0.084
10.5465 -0.174
10.5768 0.298
10.6071 -0.220
10.6373 -0.060
10.6676 -0.056
10.6979 0.053
10.7282 0.162
10.7585 0.792
10.7887 1.006
10.8190 0.127
10.8493 1.331
10.8796 0.869
10.9098 0.669
10.9401 0.156
10.9704 1.049
11.0007 2.100
11.0310 1.744
11.0612 1.597
11.0915 2.232
11.1218 1.045
11.1521 2.045
11.1824 0.754
11.2126 1.339
11.2429 -0.056
11.2732 0.738
11.3035 -0.395
11.3337 0.816
11.3640 -0.212
11.3943 0.740
11.4246 0.390
11.4549 0.405
11.4851 0.576
11.5154 0.644
11.5457 0.452
11.5760 0.104
11.6063 0.329
11.6365 0.034
11.6668 0.156
11.6971 0.383
11.7274 1.391
11.7577 -0.048
11.7879 -0.393
11.8182 -0.219
11.8485 0.632
11.8788 0.390
11.9090 0.408
11.9393 0.480
11.9696 -0.386
11.9999 -0.495
12.0302 0.802
12.0604 0.173
12.0907 0.794
12.1210 -0.251
12.1513 0.423
12.1816 0.733
12.2118 -0.415
12.2421 0.157
12.2724 -0.053
12.3027 -0.262
12.3329 0.258
12.3632 0.519
12.3935 1.509
12.4238 0.937
12.4541 0.417
12.4843 0.002
12.5146 -0.308
12.5449 -0.202
12.5752 -0.095
12.6055 0.065
12.6357 -0.556
12.6660 0.437
12.6963 -0.235
12.7266 -0.386
12.7568 0.241
12.7871 0.035
12.8174 0.507
12.8477 0.719
12.8780 0.359
12.9082 0.988
12.9385 0.160
12.9688 -0.304
12.9991 0.900
13.0294 -0.865
13.0596 0.027
13.0899 -0.383
13.1202 -0.025
13.1505 0.489
13.1807 0.691
13.2110 0.424
13.2413 0.158
13.2716 -0.264
13.3019 0.357
13.3321 -0.116
13.3624 -0.068
13.3927 -0.540
13.4230 0.707
13.4533 0.548
13.4835 0.129
13.5138 0.127
13.5441 -0.135
13.5744 -0.240
13.6046 0.489
13.6349 0.072
13.6652 0.281
13.6955 -0.396
13.7258 1.064
13.7560 0.076
13.7863 -0.287
13.8166 -0.337
13.8469 0.291
13.8772 -0.747
13.9074 0.090
13.9377 -0.271
13.9680 0.411
13.9983 -0.730
14.0285 -0.204
14.0588 0.583
14.0891 0.172
14.1194 -0.342
14.1497 0.602
14.1799 -1.005
14.2102 -0.216
14.2405 -0.624
14.2708 0.259
14.3011 1.090
14.3313 -0.213
14.3616 -0.162
14.3919 0.358
14.4222 -0.267
14.4524 -0.163
14.4827 0.463
14.5130 0.255
14.5433 0.309
14.5736 0.779
14.6038 -0.781
14.6341 0.211
14.6644 -0.358
14.6947 -0.824
14.7250 0.899
14.7552 0.591
14.7855 0.387
14.8158 0.236
14.8461 -0.123
14.8764 0.404
14.9066 -0.371
14.9369 0.365
14.9672 0.112
14.9975 -0.349
15.0277 -0.289
15.0580 -0.124
15.0883 -0.376
15.1186 0.150
15.1489 0.675
15.1791 0.264
15.2094 0.530
15.2397 0.223
15.2700 -0.135
15.3003 -0.596
15.3305 0.453
15.3608 0.252
15.3911 0.156
15.4214 -0.096
15.4516 0.694
15.4819 1.329
15.5122 -0.068
15.5425 0.255
15.5728 0.214
15.6030 -0.244
15.6333 -0.128
15.6636 -0.221
15.6939 -0.365
15.7242 0.147
15.7544 -0.121
15.7847 0.391
15.8150 0.071
15.8453 0.533
15.8755 0.787
15.9058 0.780
15.9361 0.462
15.9664 0.092
15.9967 -0.278
16.0269 -0.022
16.0572 0.755
16.0875 -0.499
16.1178 -0.086
16.1481 0.172
16.1783 -0.248
16.2086 0.948
16.2389 -0.147
16.2692 0.529
16.2994 0.580
16.3297 -0.462
16.3600 0.163
16.3903 0.527
16.4206 -0.409
16.4508 -0.252
16.4811 -0.354
16.5114 0.168
16.5417 0.171
16.5720 0.174
16.6022 0.073
16.6325 0.493
16.6628 0.654
16.6931 0.241
16.7233 -0.118
16.7536 -0.894
16.7839 0.414
16.8142 0.003
16.8445 0.322
16.8747 0.798
16.9050 -0.340
16.9353 1.647
16.9656 0.353
16.9959 0.049
17.0261 -0.150
17.0564 1.318
17.0867 -0.755
17.1170 0.505
17.1472 0.151
17.1775 0.006
17.2078 -0.138
17.2381 0.134
17.2684 0.303
17.2986 0.316
17.3289 0.329
17.3592 0.343
17.3895 0.409
17.4198 -0.201
17.4500 -0.134
17.4803 0.037
17.5106 -0.676
17.5409 0.002
17.5712 0.524
17.6014 0.370
17.6317 0.112
17.6620 -0.406
17.6923 0.899
17.7225 1.423
17.7528 0.698
17.7831 -0.079
17.8134 0.551
17.8437 0.504
17.8739 0.301
17.9042 0.151
17.9345 -0.364
17.9648 -0.110
17.9951 0.300
18.0253 0.033
18.0556 -0.077
18.0859 0.230
18.1162 -0.713
18.1464 0.168
18.1767 0.112
18.2070 -0.361
18.2373 0.990
18.2676 0.362
18.2978 0.412
18.3281 -0.215
18.3584 -0.061
18.3887 0.094
18.4190 0.718
18.4492 0.561
18.4795 -0.064
18.5098 -0.324
18.5401 -0.167
18.5703 0.199
18.6006 0.149
18.6309 -0.057
18.6612 0.310
18.6915 -0.104
18.7217 -0.518
18.7520 0.840
18.7823 0.220
18.8126 0.380
18.8429 -0.552
18.8731 0.026
18.9034 0.240
18.9337 -0.170
18.9640 -0.372
18.9942 0.364
19.0245 0.059
19.0548 0.119
19.0851 0.544
19.1154 1.439
19.1456 -0.479
19.1759 0.780
19.2062 0.061
19.2365 0.124
19.2668 0.134
19.2970 0.093
19.3273 -0.676
19.3576 -0.058
19.3879 -0.169
19.4181 0.606
19.4484 0.027
19.4787 0.438
19.5090 0.902
19.5393 -0.092
19.5695 -0.253
19.5998 0.681
19.6301 0.522
19.6604 0.467
19.6907 0.516
19.7209 -0.319
19.7512 0.304
19.7815 -0.218
19.8118 -0.271
19.8420 -0.219
19.8723 0.145
19.9026 0.927
19.9329 0.355
19.9632 -0.529
19.9934 0.514
20.0237 -0.265
20.0540 -0.211
20.0843 0.105
20.1146 0.681
20.1448 0.424
20.1751 0.428
20.2054 0.277
20.2357 -0.031
20.2659 0.287
20.2962 0.814
20.3265 0.403
20.3568 0.566
20.3871 0.365
20.4173 -0.044
20.4476 0.641
20.4779 0.181
20.5082 0.866
20.5385 0.980
20.5687 0.156
20.5990 0.583
20.6293 -0.292
20.6596 -0.333
20.6899 0.075
20.7201 1.005
20.7504 0.581
20.7807 0.887
20.8110 0.203
20.8412 0.041
20.8715 -0.017
20.9018 0.551
20.9321 0.651
20.9624 0.230
20.9926 0.069
21.0229 0.378
21.0532 -0.510
21.0835 0.269
21.1138 0.110
21.1440 0.004
21.1743 0.159
21.2046 0.106
21.2349 -0.520
21.2651 0.418
21.2954 0.470
21.3257 0.054
21.3560 0.211
21.3863 0.005
21.4165 0.111
21.4468 0.478
21.4771 0.012
21.5074 -0.245
21.5377 0.175
21.5679 -0.082
21.5982 -0.338
21.6285 -0.338
21.6588 -0.035
21.6890 0.164
21.7193 0.206
21.7496 -0.271
21.7799 -0.175
21.8102 0.077
21.8404 0.590
21.8707 0.114
21.9010 0.003
21.9313 0.310
21.9616 0.200
21.9918 -0.327
22.0221 -0.019
22.0524 -0.284
22.0827 -0.028
22.1129 -0.188
22.1432 0.433
22.1735 -0.247
22.2038 -0.249
22.2341 0.165
22.2643 -0.461
22.2946 0.319
22.3249 -0.047
22.3552 0.630
22.3855 0.734
22.4157 0.890
22.4460 -0.150
22.4763 0.267
22.5066 1.102
22.5368 0.219
22.5671 0.117
22.5974 -0.140
22.6277 0.123
22.6580 -0.029
22.6882 -0.129
22.7185 0.813
22.7488 0.453
22.7791 0.198
22.8094 -0.265
22.8396 -0.259
22.8699 -0.304
22.9002 -0.141
22.9305 -0.342
22.9607 -0.342
22.9910 0.023
23.0213 -0.393
23.0516 0.598
23.0819 -0.286
23.1121 0.549
23.1424 -0.230
23.1727 0.085
23.2030 -0.172
23.2333 0.300
23.2635 -0.061
23.2938 0.048
23.3241 -0.469
23.3544 0.110
23.3846 -0.093
23.4149 0.434
23.4452 -0.706
23.4755 0.447
23.5058 0.142
23.5360 -0.215
23.5663 -0.520
23.5966 0.253
23.6269 0.193
23.6572 -0.127
23.6874 -0.291
23.7177 0.535
23.7480 -0.356
23.7783 0.263
23.8086 0.361
23.8388 -0.113
23.8691 0.247
23.8994 0.399
23.9297 -0.022
23.9599 0.027
23.9902 -0.080
24.0205 -0.239
24.0508 0.384
24.0811 0.225
24.1113 0.380
24.1416 -0.714
24.1719 0.483
24.2022 -0.038
24.2325 -0.402
24.2627 0.275
24.2930 0.120
24.3233 -0.191
24.3536 1.165
24.3838 0.282
24.4141 1.014
24.4444 0.184
24.4747 0.292
24.5050 0.191
24.5352 0.352
24.5655 -0.164
24.5958 0.050
24.6261 -0.153
24.6564 0.009
24.6866 0.068
24.7169 0.179
24.7472 -0.022
24.7775 -0.014
24.8077 0.827
24.8380 0.263
24.8683 0.533
24.8986 -0.343
24.9289 -0.333
24.9591 0.067
24.9894 -0.106
25.0197 0.243
25.0500 0.176
25.0803 -0.047
25.1105 0.095
25.1408 0.393
25.1711 0.484
25.2014 0.314
25.2316 0.771
25.2619 -0.023
25.2922 0.798
25.3225 0.162
25.3528 0.307
25.3830 0.297
25.4133 0.443
25.4436 0.068
25.4739 0.007
25.5042 -0.211
25.5344 -0.063
25.5647 -0.071
25.5950 0.546
25.6253 -0.503
25.6555 -0.353
25.6858 0.161
25.7161 -0.106
25.7464 -0.165
25.7767 -0.483
25.8069 0.345
25.8372 -0.389
25.8675 0.180
25.8978 0.124
25.9281 -0.088
25.9583 0.690
25.9886 -0.719
26.0189 -0.357
26.0492 0.318
26.0794 0.003
26.1097 0.262
26.1400 0.052
26.1703 0.520
26.2006 -0.418
26.2308 0.676
26.2611 -0.261
26.2914 0.677
26.3217 -0.415
26.3520 0.107
26.3822 -0.047
26.4125 0.112
26.4428 0.375
26.4731 -0.246
26.5034 0.018
26.5336 -0.134
26.5639 0.027
26.5942 -0.385
26.6245 0.454
26.6547 0.252
26.6850 -0.107
26.7153 0.004
26.7456 -0.353
26.7759 -0.153
26.8061 0.204
26.8364 0.561
26.8667 -0.643
26.8970 0.913
26.9273 0.230
26.9575 0.016
26.9878 0.792
27.0181 0.006
27.0484 0.210
27.0786 0.466
27.1089 0.307
27.1392 0.356
27.1695 0.093
27.1998 -0.118
27.2300 1.026
27.2603 -0.642
27.2906 -0.070
27.3209 0.867
27.3512 0.346
27.3814 -0.279
27.4117 0.816
27.4420 0.088
27.4723 0.298
27.5025 0.977
27.5328 0.198
27.5631 0.148
27.5934 -0.369
27.6237 0.520
27.6539 -0.362
27.6842 -0.357
27.7145 0.051
27.7448 1.137
27.7751 0.087
27.8053 0.601
27.8356 0.177
27.8659 -0.142
27.8962 0.061
27.9264 0.159
27.9567 0.466
27.9870 0.462
28.0173 1.290
28.0476 0.141
28.0778 0.345
28.1081 0.499
28.1384 0.860
28.1687 0.910
28.1990 0.492
28.2292 0.386
28.2595 -0.448
28.2898 0.228
28.3201 -0.137
28.3503 0.645
28.3806 0.854
28.4109 0.021
28.4412 0.335
28.4715 0.494
28.5017 0.912
28.5320 1.019
28.5623 -0.071
28.5926 -0.016
28.6229 -0.376
28.6531 0.670
28.6834 0.779
28.7137 0.784
28.7440 1.467
28.7742 0.119
28.8045 0.177
28.8348 0.445
28.8651 1.025
28.8954 0.512
28.9256 0.311
28.9559 -0.357
28.9862 -0.339
29.0165 0.200
29.0468 0.635
29.0770 0.966
29.1073 0.361
29.1376 0.381
29.1679 1.807
29.1981 -0.204
29.2284 0.703
29.2587 0.777
29.2890 0.382
29.3193 0.248
29.3495 0.271
29.3798 0.971
29.4101 -0.672
29.4404 0.550
29.4707 0.991
29.5009 0.755
29.5312 0.572
29.5615 0.025
29.5918 -0.001
29.6221 1.171
29.6523 0.833
29.6826 0.288
29.7129 0.316
29.7432 0.031
29.7734 0.425
29.8037 0.349
29.8340 0.118
29.8643 0.565
29.8946 -0.134
29.9248 -0.416
29.9551 0.172
29.9854 0.760
30.0157 -0.162
30.0460 0.479
30.0762 0.339
30.1065 0.200
30.1368 1.206
30.1671 1.068
30.1973 0.253
30.2276 0.063
30.2579 1.019
30.2882 0.257
30.3185 0.017
30.3487 -0.380
30.3790 0.005
30.4093 1.172
30.4396 0.100
30.4699 0.278
30.5001 -0.117
30.5304 1.260
30.5607 0.450
30.5910 0.526
30.6212 1.227
30.6515 1.876
30.6818 0.859
30.7121 1.718
30.7424 0.702
30.7726 0.988
30.8029 0.858
30.8332 2.291
30.8635 2.891
30.8938 3.180
30.9240 1.697
30.9543 3.080
30.9846 4.828
31.0149 2.357
31.0451 3.897
31.0754 5.073
31.1057 6.406
31.1360 4.926
31.1663 7.145
31.1965 8.427
31.2268 8.980
31.2571 10.367
31.2874 12.536
31.3177 14.861
31.3479 17.864
31.3782 20.658
31.4085 23.506
31.4388 26.926
31.4690 33.472
31.4993 35.800
31.5296 40.420
31.5599 46.707
31.5902 53.619
31.6204 56.938
31.6507 58.226
31.6810 55.244
31.7113 56.116
31.7416 51.468
31.7718 46.925
31.8021 39.829
31.8324 35.235
31.8627 31.057
31.8929 23.859
31.9232 22.755
31.9535 18.162
31.9838 16.642
32.0141 13.352
32.0443 9.385
32.0746 10.835
32.1049 8.275
32.1352 6.914
32.1655 5.240
32.1957 5.026
32.2260 5.384
32.2563 3.660
32.2866 2.769
32.3169 3.129
32.3471 2.396
32.3774 2.444
32.4077 2.336
32.4380 1.760
32.4682 1.914
32.4985 1.443
32.5288 2.118
32.5591 1.908
32.5894 0.970
32.6196 0.344
32.6499 0.813
32.6802 1.698
32.7105 0.449
32.7408 1.700
32.7710 0.504
32.8013 0.349
32.8316 0.612
32.8619 -0.010
32.8921 0.306
32.9224 -0.368
32.9527 -1.353
32.9830 0.405
33.0133 1.122
33.0435 0.017
33.0738 0.110
33.1041 -0.994
33.1344 0.610
33.1647 -0.181
33.1949 0.018
33.2252 -0.355
33.2555 0.053
33.2858 0.461
33.3160 0.089
33.3463 -0.179
33.3766 0.492
33.4069 -0.192
33.4372 -0.510
33.4674 -0.321
33.4977 -0.184
33.5280 1.620
33.5583 0.560
33.5886 0.698
33.6188 0.941
33.6491 0.820
33.6794 1.585
33.7097 0.110
33.7399 1.657
33.7702 2.683
33.8005 2.096
33.8308 3.071
33.8611 3.682
33.8913 3.460
33.9216 6.675
33.9519 4.579
33.9822 6.806
34.0125 8.097
34.0427 9.543
34.0730 10.209
34.1033 14.469
34.1336 16.230
34.1638 24.866
34.1941 33.033
34.2244 41.253
34.2547 59.057
34.2850 71.393
34.3152 78.364
34.3455 71.482
34.3758 62.204
34.4061 50.270
34.4364 37.087
34.4666 31.352
34.4969 22.441
34.5272 16.967
34.5575 12.848
34.5877 12.323
34.6180 6.903
34.6483 8.045
34.6786 5.647
34.7089 6.009
34.7391 5.434
34.7694 4.703
34.7997 5.692
34.8300 2.306
34.8603 4.128
34.8905 2.514
34.9208 2.671
34.9511 3.349
34.9814 4.340
35.0116 1.841
35.0419 1.948
35.0722 2.471
35.1025 1.328
35.1328 3.832
35.1630 3.159
35.1933 3.528
35.2236 2.699
35.2539 2.444
35.2842 2.762
35.3144 3.705
35.3447 3.347
35.3750 3.823
35.4053 4.767
35.4356 4.723
35.4658 6.398
35.4961 4.375
35.5264 6.623
35.5567 7.310
35.5869 8.205
35.6172 10.507
35.6475 9.996
35.6778 11.205
35.7081 12.675
35.7383 16.385
35.7686 18.012
35.7989 19.795
35.8292 23.975
35.8595 29.769
35.8897 35.617
35.9200 37.975
35.9503 46.687
35.9806 56.807
36.0108 62.656
36.0411 74.286
36.0714 82.271
36.1017 89.267
36.1320 94.076
36.1622 90.552
36.1925 91.404
36.2228 79.860
36.2531 76.702
36.2834 66.981
36.3136 53.876
36.3439 48.844
36.3742 41.625
36.4045 36.177
36.4347 29.220
36.4650 24.398
36.4953 20.514
36.5256 18.505
36.5559 16.653
36.5861 12.614
36.6164 12.847
36.6467 9.486
36.6770 7.896
36.7073 7.400
36.7375 8.259
36.7678 6.254
36.7981 5.551
36.8284 5.213
36.8586 5.814
36.8889 3.966
36.9192 4.307
36.9495 2.408
36.9798 3.739
37.0100 3.144
37.0403 2.549
37.0706 2.006
37.1009 1.724
37.1312 1.495
37.1614 1.057
37.1917 0.933
37.2220 2.007
37.2523 1.519
37.2825 0.666
37.3128 2.210
37.3431 1.567
37.3734 1.081
37.4037 0.334
37.4339 0.526
37.4642 0.301
37.4945 1.118
37.5248 -0.043
37.5551 0.463
37.5853 0.344
37.6156 0.173
37.6459 0.940
37.6762 -0.271
37.7064 -0.180
37.7367 0.328
37.7670 -0.257
37.7973 -0.009
37.8276 -0.957
37.8578 0.542
37.8881 0.115
37.9184 -0.208
37.9487 0.303
37.9790 -0.540
38.0092 0.076
38.0395 -0.349
38.0698 0.060
38.1001 -0.104
38.1304 0.045
38.1606 0.298
38.1909 0.657
38.2212 0.130
38.2515 1.166
38.2817 0.223
38.3120 0.166
38.3423 0.266
38.3726 -0.154
38.4029 -0.054
38.4331 -0.317
38.4634 -0.372
38.4937 0.330
38.5240 0.721
38.5543 -0.087
38.5845 0.356
38.6148 0.435
38.6451 0.775
38.6754 0.334
38.7056 0.050
38.7359 0.235
38.7662 0.420
38.7965 1.283
38.8268 -0.042
38.8570 -0.324
38.8873 -0.345
38.9176 0.066
38.9479 0.062
38.9782 0.006
39.0084 0.106
39.0387 0.207
39.0690 0.048
39.0993 -0.163
39.1295 -0.425
39.1598 0.459
39.1901 0.249
39.2204 0.092
39.2507 0.404
39.2809 -0.221
39.3112 -0.116
39.3415 0.614
39.3718 0.772
39.4021 -0.112
39.4323 -0.266
39.4626 0.830
39.4929 0.000
39.5232 -0.205
39.5534 -0.774
39.5837 0.324
39.6140 -0.296
39.6443 0.386
39.6746 0.183
39.7048 -0.123
39.7351 -0.065
39.7654 -0.579
39.7957 0.157
39.8260 -0.460
39.8562 0.538
39.8865 -0.027
39.9168 -0.174
39.9471 0.200
39.9773 -0.364
40.0076 -0.148
40.0379 -0.036
40.0682 0.129
40.0985 -0.487
40.1287 0.616
40.1590 -0.104
40.1893 0.218
40.2196 0.177
40.2499 0.292
40.2801 -0.739
40.3104 -0.102
40.3407 0.171
40.3710 0.079
40.4012 0.144
40.4315 0.261
40.4618 0.692
40.4921 0.446
40.5224 -0.165
40.5526 0.215
40.5829 0.074
40.6132 -0.275
40.6435 -0.259
40.6738 0.123
40.7040 -0.121
40.7343 -0.468
40.7646 0.158
40.7949 0.055
40.8251 0.369
40.8554 -0.306
40.8857 0.165
40.9160 0.064
40.9463 -0.245
40.9765 0.123
41.0068 -0.237
41.0371 0.080
41.0674 0.814
41.0977 -0.066
41.1279 0.148
41.1582 -0.054
41.1885 0.265
41.2188 -0.040
41.2491 -0.085
41.2793 0.704
41.3096 0.348
41.3399 0.617
41.3702 -0.051
41.4004 -0.198
41.4307 0.385
41.4610 0.552
41.4913 0.094
41.5216 -0.416
41.5518 -0.060
41.5821 0.765
41.6124 0.079
41.6427 -0.606
41.6730 0.012
41.7032 -0.047
41.7335 -0.471
41.7638 0.721
41.7941 0.507
41.8243 -0.436
41.8546 0.445
41.8849 0.023
41.9152 0.748
41.9455 0.432
41.9757 0.012
42.0060 0.061
42.0363 -0.410
42.0666 0.422
42.0969 -0.257
42.1271 -0.050
42.1574 0.470
42.1877 0.001
42.2180 -0.520
42.2482 0.046
42.2785 -0.481
42.3088 0.450
42.3391 0.288
42.3694 -0.864
42.3996 -0.139
42.4299 0.481
42.4602 0.425
42.4905 0.109
42.5208 -0.468
42.5510 -0.056
42.5813 -0.216
42.6116 0.614
42.6419 -0.223
42.6721 -0.017
42.7024 -0.072
42.7327 -0.022
42.7630 0.289
42.7933 0.653
42.8235 -0.234
42.8538 -0.026
42.8841 0.339
42.9144 -0.442
42.9447 -0.284
42.9749 -0.283
43.0052 0.032
43.0355 0.347
43.0658 -0.484
43.0960 0.040
43.1263 -0.217
43.1566 -0.317
43.1869 0.151
43.2172 0.047
43.2474 -0.005
43.2777 -0.316
43.3080 0.310
43.3383 -0.209
43.3686 -0.728
43.3988 0.262
43.4291 -0.155
43.4594 -0.154
43.4897 0.473
43.5199 0.266
43.5502 -0.044
43.5805 -0.459
43.6108 0.534
43.6411 0.381
43.6713 0.177
43.7016 0.285
43.7319 -0.335
43.7622 0.503
43.7925 0.352
43.8227 -0.163
43.8530 -0.312
43.8833 -0.202
43.9136 0.378
43.9439 0.542
43.9741 -0.492
44.0044 0.037
44.0347 0.358
44.0650 0.158
44.0952 0.793
44.1255 -0.187
44.1558 -0.229
44.1861 0.355
44.2164 -0.311
44.2466 -0.325
44.2769 0.547
44.3072 -0.299
44.3375 -0.051
44.3678 -0.011
44.3980 -0.231
44.4283 -0.034
44.4586 0.685
44.4889 0.049
44.5191 0.404
44.5494 -0.178
44.5797 0.646
44.6100 0.168
44.6403 0.160
44.6705 0.257
44.7008 -0.168
44.7311 -0.279
44.7614 0.496
44.7917 0.542
44.8219 0.172
44.8522 -0.198
44.8825 0.891
44.9128 0.678
44.9430 0.465
44.9733 0.253
45.0036 -0.375
45.0339 0.247
45.0642 0.141
45.0944 -0.278
45.1247 0.033
45.1550 0.188
45.1853 0.708
45.2156 -0.594
45.2458 0.291
45.2761 0.344
45.3064 -0.124
45.3367 -0.070
45.3669 0.140
45.3972 0.455
45.4275 -0.428
45.4578 -0.321
45.4881 0.180
45.5183 -0.205
45.5486 0.245
45.5789 0.017
45.6092 0.103
45.6395 0.241
45.6697 0.432
45.7000 0.884
45.7303 -0.019
45.7606 0.121
45.7908 -0.468
45.8211 -0.066
45.8514 0.127
45.8817 -0.148
45.9120 -0.005
45.9422 0.971
45.9725 0.645
46.0028 -0.149
46.0331 -0.057
46.0634 0.504
46.0936 -0.028
46.1239 -0.039
46.1542 0.367
46.1845 0.357
46.2147 0.139
46.2450 0.181
46.2753 0.329
46.3056 -0.097
46.3359 -0.157
46.3661 0.148
46.3964 0.141
46.4267 0.082
46.4570 -0.133
46.4873 0.226
46.5175 0.064
46.5478 0.527
46.5781 0.210
46.6084 -0.159
46.6386 1.035
46.6689 0.823
46.6992 -0.013
46.7295 0.505
46.7598 0.711
46.7900 0.761
46.8203 1.281
46.8506 1.592
46.8809 1.956
46.9112 1.435
46.9414 2.633
46.9717 2.686
47.0020 2.791
47.0323 2.793
47.0626 4.566
47.0928 4.464
47.1231 5.821
47.1534 6.501
47.1837 7.338
47.2139 7.602
47.2442 11.096
47.2745 12.195
47.3048 15.117
47.3351 17.623
47.3653 17.993
47.3956 18.521
47.4259 18.736
47.4562 17.441
47.4865 17.657
47.5167 16.728
47.5470 15.122
47.5773 12.943
47.6076 10.922
47.6378 9.629
47.6681 8.911
47.6984 6.994
47.7287 4.870
47.7590 4.986
47.7892 5.206
47.8195 3.916
47.8498 3.877
47.8801 2.744
47.9104 2.810
47.9406 2.043
47.9709 1.536
48.0012 1.239
48.0315 0.785
48.0617 1.374
48.0920 1.025
48.1223 2.136
48.1526 0.538
48.1829 1.180
48.2131 0.573
48.2434 1.008
48.2737 1.495
48.3040 0.212
48.3343 0.544
48.3645 0.877
48.3948 0.116
48.4251 -0.124
48.4554 0.262
48.4856 0.075
48.5159 0.045
48.5462 0.901
48.5765 0.142
48.6068 0.218
48.6370 0.293
48.6673 -0.047
48.6976 0.602
48.7279 0.471
48.7582 -0.025
48.7884 -0.572
48.8187 0.047
48.8490 0.926
48.8793 -0.121
48.9095 0.812
48.9398 0.234
48.9701 0.073
49.0004 0.434
49.0307 0.222
49.0609 0.063
49.0912 0.269
49.1215 0.735
49.1518 0.630
49.1821 1.045
49.2123 0.211
49.2426 0.418
49.2729 0.002
49.3032 -0.102
49.3334 0.107
49.3637 -0.152
49.3940 -0.151
49.4243 0.112
49.4546 -0.251
49.4848 0.950
49.5151 0.433
49.5454 0.384
49.5757 0.649
49.6060 0.445
49.6362 0.294
49.6665 0.195
49.6968 -0.060
49.7271 -0.210
49.7574 0.474
49.7876 0.637
49.8179 -0.033
49.8482 -0.337
49.8785 0.079
49.9087 0.496
49.9390 0.184
49.9693 0.185
49.9996 0.238
50.0299 0.761
50.0601 -0.226
50.0904 -0.276
50.1207 0.092
50.1510 0.356
50.1813 0.151
50.2115 0.729
50.2418 0.369
50.2721 0.165
50.3024 0.900
50.3326 -0.135
50.3629 -0.546
50.3932 0.176
50.4235 0.638
50.4538 0.475
50.4840 0.625
50.5143 -0.006
50.5446 -0.272
50.5749 -0.172
50.6052 0.708
50.6354 0.600
50.6657 0.128
50.6960 0.072
50.7263 0.694
50.7565 0.067
50.7868 0.013
50.8171 0.428
50.8474 0.166
50.8777 0.374
50.9079 0.842
50.9382 0.426
50.9685 -0.199
50.9988 0.063
51.0291 -0.144
51.0593 0.482
51.0896 -0.401
51.1199 0.279
51.1502 0.698
51.1804 -0.080
51.2107 0.185
51.2410 -0.644
51.2713 0.037
51.3016 0.147
51.3318 -0.056
51.3621 0.366
51.3924 0.216
51.4227 0.171
51.4530 0.178
51.4832 0.238
51.5135 -0.535
51.5438 0.931
51.5741 0.524
51.6043 0.116
51.6346 0.386
51.6649 0.813
51.6952 0.094
51.7255 -0.311
51.7557 -0.055
51.7860 0.461
51.8163 0.093
51.8466 0.350
51.8769 0.868
51.9071 0.501
51.9374 0.759
51.9677 -0.024
51.9980 -0.285
52.0282 -0.088
52.0585 0.162
52.0888 0.048
52.1191 0.351
52.1494 0.393
52.1796 0.124
52.2099 0.064
52.2402 0.316
52.2705 0.465
52.3008 0.041
52.3310 -0.174
52.3613 0.132
52.3916 0.386
52.4219 1.110
52.4521 0.532
52.4824 0.111
52.5127 0.159
52.5430 0.363
52.5733 -0.630
52.6035 0.253
52.6338 -0.167
52.6641 -0.117
52.6944 -0.223
52.7247 0.037
52.7549 1.338
52.7852 0.816
52.8155 -0.121
52.8458 -0.277
52.8761 0.088
52.9063 0.037
52.9366 -0.013
52.9669 -0.063
52.9972 -0.009
53.0274 0.098
53.0577 0.258
53.0880 -0.051
53.1183 0.474
53.1486 0.895
53.1788 0.640
53.2091 0.333
53.2394 0.286
53.2697 -0.489
53.3000 0.508
53.3302 -0.006
53.3605 -0.728
53.3908 0.035
53.4211 0.017
53.4513 0.312
53.4816 0.296
53.5119 -0.033
53.5422 0.211
53.5725 0.560
53.6027 -0.237
53.6330 -0.304
53.6633 0.256
53.6936 0.086
53.7239 0.542
53.7541 0.946
53.7844 -0.264
53.8147 0.141
53.8450 -0.234
53.8752 0.536
53.9055 0.474
53.9358 0.881
53.9661 -0.066
53.9964 0.393
54.0266 -0.345
54.0569 0.064
54.0872 -0.465
54.1175 0.205
54.1478 0.146
54.1780 0.035
54.2083 0.029
54.2386 -0.029
54.2689 -0.347
54.2991 0.325
54.3294 0.061
54.3597 0.629
54.3900 -0.312
54.4203 -0.002
54.4505 -0.057
54.4808 -0.268
54.5111 0.720
54.5414 0.353
54.5717 0.613
54.6019 -0.117
54.6322 -0.118
54.6625 0.299
54.6928 0.196
54.7230 -0.116
54.7533 -0.115
54.7836 -0.321
54.8139 0.072
54.8442 0.517
54.8744 0.547
54.9047 0.733
54.9350 0.033
54.9653 -0.197
54.9956 0.199
55.0258 0.543
55.0561 0.054
55.0864 -0.227
55.1167 0.170
55.1469 0.568
55.1772 0.601
55.2075 0.583
55.2378 0.305
55.2681 -0.285
55.2983 0.896
55.3286 0.254
55.3589 0.550
55.3892 0.847
55.4195 0.207
55.4497 0.348
55.4800 0.438
55.5103 1.622
55.5406 0.150
55.5709 0.188
55.6011 0.748
55.6314 0.267
55.6617 0.776
55.6920 0.296
55.7222 0.649
55.7525 0.534
55.7828 0.993
55.8131 1.191
55.8434 2.015
55.8736 2.527
55.9039 2.154
55.9342 1.937
55.9645 4.273
55.9948 3.068
56.0250 3.738
56.0553 4.148
56.0856 4.715
56.1159 6.115
56.1461 7.360
56.1764 9.230
56.2067 9.434
56.2370 9.742
56.2673 11.718
56.2975 14.058
56.3278 15.670
56.3581 18.897
56.3884 21.655
56.4187 21.550
56.4489 24.621
56.4792 21.548
56.5095 21.131
56.5398 22.329
56.5700 19.934
56.6003 19.570
56.6306 14.415
56.6609 16.552
56.6912 13.169
56.7214 11.349
56.7517 11.873
56.7820 10.001
56.8123 8.547
56.8426 7.613
56.8728 6.472
56.9031 5.123
56.9334 4.712
56.9637 3.781
56.9939 3.735
57.0242 2.908
57.0545 3.384
57.0848 2.767
57.1151 2.098
57.1453 1.950
57.1756 1.022
57.2059 0.458
57.2362 1.666
57.2665 1.363
57.2967 0.697
57.3270 0.187
57.3573 0.615
57.3876 1.512
57.4178 0.483
57.4481 1.173
57.4784 0.405
57.5087 0.939
57.5390 -0.454
57.5692 0.186
57.5995 0.461
57.6298 0.684
57.6601 0.231
57.6904 0.404
57.7206 -0.413
57.7509 -0.188
57.7812 0.246
57.8115 0.368
57.8417 0.021
57.8720 0.456
57.9023 0.319
57.9326 0.234
57.9629 0.046
57.9931 0.014
58.0234 0.555
58.0537 -0.101
58.0840 -0.132
58.1143 -0.162
58.1445 0.329
58.1748 -0.325
58.2051 -0.737
58.2354 0.518
58.2656 0.262
58.2959 -0.044
58.3262 0.274
58.3565 -0.240
58.3868 0.705
58.4170 0.660
58.4473 0.303
58.4776 0.416
58.5079 -0.669
58.5382 0.486
58.5684 -0.442
58.5987 0.088
58.6290 0.515
58.6593 0.162
58.6896 -0.036
58.7198 -0.024
58.7501 0.248
58.7804 0.209
58.8107 0.013
58.8409 0.235
58.8712 0.249
58.9015 0.315
58.9318 0.069
58.9621 0.084
58.9923 0.099
59.0226 -0.302
59.0529 -0.337
59.0832 0.335
59.1135 -0.033
59.1437 0.641
59.1740 -0.039
59.2043 0.635
59.2346 0.060
59.2648 0.006
59.2951 0.057
59.3254 0.421
59.3557 0.108
59.3860 -0.100
59.4162 0.108
59.4465 0.213
59.4768 -0.306
59.5071 0.164
59.5374 0.166
59.5676 -0.040
59.5979 0.119
59.6282 0.695
59.6585 0.283
59.6887 0.443
59.7190 -0.125
59.7493 0.400
59.7796 0.822
59.8099 0.151
59.8401 -0.363
59.8704 -0.111
59.9007 0.662
59.9310 -0.492
59.9613 -0.186
59.9915 0.484
60.0218 0.217
60.0521 0.055
60.0824 0.623
60.1126 0.045
60.1429 0.821
60.1732 0.400
60.2035 -0.072
60.2338 0.185
60.2640 0.755
60.2943 0.387
60.3246 0.229
60.3549 -0.346
60.3852 0.122
60.4154 0.017
60.4457 -0.088
60.4760 -0.036
60.5063 0.589
60.5365 0.121
60.5668 1.268
60.5971 0.228
60.6274 0.178
60.6577 0.806
60.6879 0.236
60.7182 0.499
60.7485 0.451
60.7788 1.393
60.8091 0.043
60.8393 -0.160
60.8696 -0.363
60.8999 0.186
60.9302 0.007
60.9604 1.130
60.9907 0.223
61.0210 0.149
61.0513 0.389
61.0816 -0.674
61.1118 0.452
61.1421 -0.193
61.1724 0.516
61.2027 0.445
61.2330 0.114
61.2632 0.408
61.2935 0.338
61.3238 -0.200
61.3541 0.096
61.3844 -0.338
61.4146 -0.047
61.4449 0.193
61.4752 -0.349
61.5055 0.152
61.5357 0.340
61.5660 0.634
61.5963 -0.271
61.6266 0.440
61.6569 0.369
61.6871 -0.325
61.7174 0.855
61.7477 0.474
61.7780 0.509
61.8083 0.441
61.8385 0.269
61.8688 -0.319
61.8991 -0.021
61.9294 1.475
61.9596 0.159
61.9899 0.041
62.0202 0.393
62.0505 1.161
62.0808 0.628
62.1110 1.397
62.1413 1.490
62.1716 2.208
62.2019 1.625
62.2322 2.239
62.2624 2.334
62.2927 3.626
62.3230 3.513
62.3533 3.140
62.3835 5.372
62.4138 5.468
62.4441 6.398
62.4744 7.121
62.5047 8.312
62.5349 8.879
62.5652 13.248
62.5955 15.014
62.6258 15.843
62.6561 18.703
62.6863 18.907
62.7166 20.518
62.7469 19.421
62.7772 21.033
62.8074 19.573
62.8377 16.446
62.8680 18.632
62.8983 16.652
62.9286 16.807
62.9588 12.640
62.9891 10.870
63.0194 9.100
63.0497 8.424
63.0800 7.696
63.1102 5.406
63.1405 5.252
63.1708 4.057
63.2011 3.904
63.2313 2.918
63.2616 2.141
63.2919 2.093
63.3222 0.952
63.3525 2.155
63.3827 1.640
63.4130 1.125
63.4433 1.861
63.4736 0.826
63.5039 1.094
63.5341 0.164
63.5644 1.110
63.5947 0.181
63.6250 1.128
63.6552 -0.165
63.6855 -0.364
63.7158 0.219
63.7461 0.803
63.7764 0.501
63.8066 -0.060
63.8369 0.733
63.8672 0.276
63.8975 0.289
63.9278 0.354
63.9580 -0.049
63.9883 0.538
64.0186 0.135
64.0489 -0.006
64.0791 -0.147
64.1094 0.754
64.1397 0.353
64.1700 0.786
64.2003 -0.135
64.2305 -0.274
64.2608 0.213
64.2911 0.022
64.3214 0.093
64.3517 0.164
64.3819 -0.546
64.4122 -0.135
64.4425 -0.348
64.4728 0.689
64.5031 -0.304
64.5333 0.161
64.5636 -0.572
64.5939 -0.108
64.6242 -0.320
64.6544 -0.324
64.6847 -0.223
64.7150 0.347
64.7453 -0.437
64.7756 -0.126
64.8058 -0.232
64.8361 -0.546
64.8664 0.285
64.8967 -0.029
64.9270 0.282
64.9572 -0.187
64.9875 -0.292
65.0178 0.333
65.0481 -0.031
65.0783 -0.030
65.1086 -0.342
65.1389 0.013
65.1692 -0.309
65.1995 -0.162
65.2297 -0.535
65.2600 0.759
65.2903 -0.499
65.3206 0.171
65.3509 -0.357
65.3811 0.001
65.4114 0.099
65.4417 -0.375
65.4720 0.140
65.5022 -0.229
65.5325 -0.390
65.5628 0.260
65.5931 -0.287
65.6234 0.416
65.6536 0.077
65.6839 0.260
65.7142 0.131
65.7445 -0.102
65.7748 -0.022
65.8050 0.058
65.8353 0.035
65.8656 -0.092
65.8959 -0.011
65.9261 0.644
65.9564 0.831
65.9867 0.705
66.0170 1.414
66.0473 0.768
66.0775 1.529
66.1078 0.156
66.1381 1.543
66.1684 1.316
66.1987 1.766
66.2289 0.863
66.2592 1.731
66.2895 0.776
66.3198 2.738
66.3500 2.305
66.3803 2.550
66.4106 1.076
66.4409 1.530
66.4712 0.161
66.5014 1.189
66.5317 1.019
66.5620 1.109
66.5923 0.784
66.6226 1.136
66.6528 -0.439
66.6831 -0.398
66.7134 1.153
66.7437 0.101
66.7739 -0.170
66.8042 -0.284
66.8345 0.331
66.8648 0.061
66.8951 -0.208
66.9253 0.513
66.9556 0.193
66.9859 -0.232
67.0162 -0.082
67.0465 -0.193
67.0767 0.061
67.1070 0.159
67.1373 0.623
67.1676 0.982
67.1978 0.405
67.2281 1.651
67.2584 0.501
67.2887 0.602
67.3190 0.911
67.3492 2.784
67.3795 1.844
67.4098 2.572
67.4401 3.508
67.4704 3.507
67.5006 4.080
67.5309 4.757
67.5612 5.278
67.5915 6.946
67.6218 6.739
67.6520 8.407
67.6823 10.232
67.7126 10.964
67.7429 11.852
67.7731 13.730
67.8034 12.276
67.8337 14.728
67.8640 13.118
67.8943 11.352
67.9245 12.451
67.9548 11.936
67.9851 11.266
68.0154 10.804
68.0457 9.248
68.0759 7.068
68.1062 7.857
68.1365 7.293
68.1668 6.573
68.1970 5.019
68.2273 3.258
68.2576 3.997
68.2879 4.424
68.3182 3.029
68.3484 2.780
68.3787 2.740
68.4090 2.856
68.4393 2.504
68.4696 1.892
68.4998 3.103
68.5301 2.075
68.5604 2.610
68.5907 2.104
68.6209 2.536
68.6512 3.437
68.6815 3.140
68.7118 3.313
68.7421 4.215
68.7723 2.878
68.8026 4.822
68.8329 5.674
68.8632 5.432
68.8935 5.659
68.9237 5.991
68.9540 5.021
68.9843 6.187
69.0146 5.322
69.0448 5.186
69.0751 6.301
69.1054 5.490
69.1357 4.210
69.1660 4.024
69.1962 3.943
69.2265 2.248
69.2568 3.261
69.2871 2.244
69.3174 1.904
69.3476 2.085
69.3779 1.642
69.4082 1.147
69.4385 2.267
69.4687 0.731
69.4990 1.592
69.5293 0.838
69.5596 0.762
69.5899 0.634
69.6201 0.767
69.6504 0.276
69.6807 0.097
69.7110 0.335
69.7413 0.782
69.7715 0.084
69.8018 -0.093
69.8321 0.095
69.8624 0.388
69.8926 0.421
69.9229 0.662
69.9532 0.070
69.9835 -0.312
70.0138 -0.147
70.0440 0.123
70.0743 0.967
70.1046 -0.533
70.1349 -0.053
70.1652 -0.042
70.1954 -0.082
70.2257 -0.017
70.2560 0.151
70.2863 -0.669
70.3166 0.178
70.3468 0.192
70.3771 0.259
70.4074 -0.039
70.4377 -0.076
70.4679 0.252
70.4982 -0.513
70.5285 0.128
70.5588 -0.219
70.5891 0.058
70.6193 0.493
70.6496 0.199
70.6799 0.373
70.7102 0.236
70.7405 -0.109
70.7707 0.744
70.8010 0.139
70.8313 0.212
70.8616 0.025
70.8918 0.255
70.9221 -0.296
70.9524 0.351
70.9827 0.061
71.0130 0.449
71.0432 -0.517
71.0735 -0.129
71.1038 -0.260
71.1341 0.088
71.1644 0.593
71.1946 0.005
71.2249 0.355
71.2552 -0.232
71.2855 0.379
71.3157 0.209
71.3460 0.561
71.3763 0.548
71.4066 0.119
71.4369 -0.049
71.4671 -0.008
71.4974 0.085
71.5277 0.387
71.5580 0.117
71.5883 0.419
71.6185 -0.319
71.6488 0.141
71.6791 0.080
71.7094 0.333
71.7396 -0.404
71.7699 0.005
71.8002 -0.314
71.8305 0.096
71.8608 -0.118
71.8910 0.345
71.9213 0.340
71.9516 -0.081
71.9819 0.279
72.0122 -0.298
72.0424 0.272
72.0727 -0.356
72.1030 0.370
72.1333 -0.205
72.1635 0.366
72.1938 0.573
72.2241 0.520
72.2544 0.624
72.2847 0.884
72.3149 0.155
72.3452 0.416
72.3755 1.251
72.4058 1.044
72.4361 1.463
72.4663 2.142
72.4966 0.843
72.5269 1.367
72.5572 1.214
72.5874 1.375
72.6177 0.858
72.6480 0.759
72.6783 1.129
72.7086 0.562
72.7388 0.412
72.7691 0.783
72.7994 -0.096
72.8297 0.068
72.8600 -0.237
72.8902 -0.280
72.9205 0.093
72.9508 0.466
72.9811 0.007
73.0113 0.694
73.0416 0.444
73.0719 0.403
73.1022 0.049
73.1325 -0.252
73.1627 0.073
73.1930 -0.019
73.2233 -0.006
73.2536 -0.462
73.2839 0.489
73.3141 0.660
73.3444 0.205
73.3747 -0.197
73.4050 0.079
73.4353 0.147
73.4655 0.528
73.4958 -0.289
73.5261 -0.012
73.5564 -0.046
73.5866 -0.393
73.6169 0.250
73.6472 -0.200
73.6775 -0.337
73.7078 0.229
73.7380 0.119
73.7683 0.009
73.7986 0.004
73.8289 0.468
73.8592 -0.057
73.8894 0.200
73.9197 0.196
73.9500 -0.120
73.9803 -0.226
74.0105 0.136
74.0408 -0.178
74.0711 0.133
74.1014 0.236
74.1317 0.027
74.1619 0.235
74.1922 0.183
74.2225 0.080
74.2528 0.185
74.2831 0.082
74.3133 -0.020
74.3436 0.139
74.3739 0.089
74.4042 -0.064
74.4344 0.305
74.4647 0.100
74.4950 0.573
74.5253 -0.099
74.5556 -0.250
74.5858 0.065
74.6161 0.329
74.6464 -0.137
74.6767 -0.185
74.7070 0.600
74.7372 0.292
74.7675 -0.224
74.7978 0.251
74.8281 0.152
74.8583 0.315
74.8886 0.009
74.9189 -0.244
74.9492 0.006
74.9795 0.048
75.0097 0.143
75.0400 0.238
75.0703 -0.031
75.1006 0.690
75.1309 0.265
75.1611 -0.263
75.1914 -0.062
75.2217 0.036
75.2520 0.342
75.2822 0.232
75.3125 0.696
75.3428 -0.299
75.3731 0.582
75.4034 0.109
75.4336 -0.311
75.4639 -0.059
75.4942 0.715
75.5245 0.291
75.5548 0.440
75.5850 0.173
75.6153 0.740
75.6456 -0.047
75.6759 -0.260
75.7061 0.090
75.7364 -0.028
75.7667 0.375
75.7970 0.049
75.8273 0.192
75.8575 0.076
75.8878 0.220
75.9181 -0.260
75.9484 0.041
75.9787 0.239
76.0089 -0.136
76.0392 -0.041
76.0695 -0.520
76.0998 0.097
76.1301 0.349
76.1603 0.341
76.1906 -0.031
76.2209 -0.142
76.2512 0.425
76.2814 -0.154
76.3117 0.361
76.3420 0.460
76.3723 -0.118
76.4026 0.294
76.4328 0.759
76.4631 0.911
76.4934 0.179
76.5237 0.489
76.5540 0.851
76.5842 1.057
76.6145 0.795
76.6448 1.263
76.6751 0.846
76.7053 1.314
76.7356 1.419
76.7659 1.627
76.7962 1.212
76.8265 1.109
76.8567 1.319
76.8870 1.842
76.9173 1.585
76.9476 1.379
76.9779 1.331
77.0081 1.022
77.0384 0.401
77.0687 0.198
77.0990 0.880
77.1292 1.198
77.1595 0.944
77.1898 0.794
77.2201 0.645
77.2504 0.391
77.2806 0.347
77.3109 0.668
77.3412 0.207
77.3715 0.477
77.4018 0.174
77.4320 -0.025
77.4623 -0.015
77.4926 0.881
77.5229 0.319
77.5531 0.070
77.5834 0.499
77.6137 0.042
77.6440 0.368
77.6743 0.537
77.7045 -0.439
77.7348 0.148
77.7651 0.475
77.7954 0.073
77.8257 0.140
77.8559 0.572
77.8862 0.328
77.9165 0.448
77.9468 -0.160
77.9770 -0.247
78.0073 0.344
78.0376 -0.002
78.0679 -0.244
78.0982 0.014
78.1284 -0.041
78.1587 0.062
78.1890 -0.252
78.2193 0.320
78.2496 -0.149
78.2798 -0.149
78.3101 -0.096
78.3404 0.217
78.3707 0.062
78.4009 0.428
78.4312 -0.143
78.4615 -0.244
78.4918 -0.193
78.5221 0.171
78.5523 0.639
78.5826 -0.090
78.6129 0.015
78.6432 -0.244
78.6735 -0.301
78.7037 0.319
78.7340 0.367
78.7643 0.259
78.7946 -0.161
78.8248 -0.268
78.8551 0.302
78.8854 -0.012
78.9157 0.246
78.9460 -0.119
78.9762 -0.016
79.0065 0.452
79.0368 -0.069
79.0671 0.453
79.0974 0.089
79.1276 0.194
79.1579 -0.064
79.1882 0.094
79.2185 0.044
79.2488 0.151
79.2790 0.259
79.3093 0.107
79.3396 -0.098
79.3699 -0.145
79.4001 -0.244
79.4304 -0.092
79.4607 0.166
79.4910 0.267
79.5213 0.317
79.5515 -0.206
79.5818 -0.311
79.6121 0.249
79.6424 -0.284
79.6727 -0.088
79.7029 0.004
79.7332 0.097
79.7635 0.191
79.7938 0.180
79.8240 0.170
79.8543 0.577
79.8846 0.047
79.9149 -0.170
79.9452 0.135
79.9754 0.022
80.0057 -0.141
80.0360 0.268
80.0663 -0.311
80.0966 -0.218
80.1268 -0.228
80.1571 0.179
80.1874 0.013
80.2177 0.004
80.2479 0.360
80.2782 0.092
80.3085 0.084
80.3388 -0.080
80.3691 0.382
80.3993 0.167
80.4296 0.213
80.4599 -0.417
80.4902 0.150
80.5205 -0.011
80.5507 0.245
80.5810 -0.644
80.6113 -0.023
80.6416 0.026
80.6718 0.023
80.7021 0.177
80.7324 0.436
80.7627 -0.034
80.7930 0.329
80.8232 -0.453
80.8535 -0.140
80.8838 0.172
80.9141 0.433
80.9444 0.122
80.9746 0.227
81.0049 0.333
81.0352 0.388
81.0655 0.495
81.0957 0.967
81.1260 1.126
81.1563 1.287
81.1866 0.874
81.2169 0.306
81.2471 0.832
81.2774 0.473
81.3077 0.531
81.3380 0.381
81.3683 0.649
81.3985 1.854
81.4288 0.455
81.4591 0.516
81.4894 0.003
81.5196 0.064
81.5499 0.543
81.5802 0.188
81.6105 0.563
81.6408 -0.208
81.6710 0.272
81.7013 0.127
81.7316 0.087
81.7619 0.516
81.7922 0.164
81.8224 -0.031
81.8527 0.659
81.8830 0.048
81.9133 -0.250
81.9436 -0.195
81.9738 0.276
82.0041 0.488
82.0344 0.179
82.0647 -0.181
82.0949 -0.229
82.1252 0.140
82.1555 0.146
82.1858 0.256
82.2161 -0.051
82.2463 -0.357
82.2766 0.275
82.3069 -0.082
82.3372 0.082
82.3675 0.195
82.3977 0.360
82.4280 0.213
82.4583 0.482
82.4886 0.128
82.5188 -0.122
82.5491 -0.111
82.5794 0.577
82.6097 0.068
82.6400 -0.233
82.6702 -0.190
82.7005 -0.407
82.7308 0.679
82.7611 -0.162
82.7914 0.195
82.8216 0.241
82.8519 0.026
82.8822 0.072
82.9125 0.066
82.9427 0.218
82.9730 0.057
83.0033 -0.312
83.0336 0.621
83.0639 0.201
83.0941 0.146
83.1244 -0.273
83.1547 -0.015
83.1850 0.764
83.2153 -0.279
83.2455 0.033
83.2758 0.032
83.3061 0.449
83.3364 -0.176
83.3666 0.085
83.3969 -0.174
83.4272 0.296
83.4575 -0.067
83.4878 0.248
83.5180 0.251
83.5483 -0.215
83.5786 0.154
83.6089 0.262
83.6392 0.266
83.6694 0.479
83.6997 -0.244
83.7300 -0.239
83.7603 -0.088
83.7905 0.376
83.8208 -0.202
83.8511 -0.154
83.8814 0.207
83.9117 0.360
83.9419 -0.164
83.9722 0.250
84.0025 0.300
84.0328 0.299
84.0631 -0.015
84.0933 0.713
84.1236 -0.121
84.1539 -0.017
84.1842 0.192
84.2144 0.089
84.2447 -0.014
84.2750 0.665
84.3053 -0.323
84.3356 0.148
84.3658 -0.474
84.3961 0.103
84.4264 0.523
84.4567 0.631
84.4870 0.271
84.5172 -0.036
84.5475 -0.135
84.5778 -0.233
84.6081 0.085
84.6383 0.248
84.6686 0.151
84.6989 0.211
84.7292 0.271
84.7595 -0.138
84.7897 -0.233
84.8200 0.178
84.8503 0.329
84.8806 0.689
84.9109 0.112
84.9411 0.056
84.9714 0.001
85.0017 0.414
85.0320 0.047
85.0623 0.618
85.0925 0.512
85.1228 0.250
85.1531 0.041
85.1834 0.248
85.2136 0.353
85.2439 -0.012
85.2742 0.614
85.3045 -0.114
85.3348 0.304
85.3650 -0.163
85.3953 0.465
85.4256 -0.001
85.4559 0.210
85.4862 0.422
85.5164 -0.042
85.5467 0.535
85.5770 0.488
85.6073 -0.548
85.6375 -0.022
85.6678 0.297
85.6981 -0.061
85.7284 0.467
85.7587 0.109
85.7889 0.482
85.8192 0.490
85.8495 0.863
85.8798 0.456
85.9101 0.101
85.9403 0.684
85.9706 0.433
86.0009 -0.337
86.0312 -0.389
86.0614 0.381
86.0917 0.474
86.1220 0.359
86.1523 0.036
86.1826 0.755
86.2128 0.433
86.2431 0.633
86.2734 0.207
86.3037 0.355
86.3340 -0.069
86.3642 0.288
86.3945 -0.031
86.4248 0.118
86.4551 0.529
86.4853 0.315
86.5156 -0.159
86.5459 -0.164
86.5762 0.196
86.6065 -0.329
86.6367 0.345
86.6670 0.290
86.6973 -0.390
86.7276 0.441
86.7579 0.074
86.7881 -0.136
86.8184 -0.085
86.8487 0.436
86.8790 0.019
86.9092 0.019
86.9395 0.280
86.9698 -0.032
87.0001 -0.239
87.0304 -0.244
87.0606 0.377
87.0909 0.373
87.1212 -0.100
87.1515 0.678
87.1818 0.623
87.2120 -0.056
87.2423 0.150
87.2726 -0.008
87.3029 0.512
87.3331 0.250
87.3634 0.094
87.3937 -0.167
87.4240 0.563
87.4543 0.251
87.4845 0.305
87.5148 -0.423
87.5451 0.361
87.5754 0.467
87.6057 -0.311
87.6359 -0.431
87.6662 0.490
87.6965 0.163
87.7268 0.408
87.7571 0.498
87.7873 0.327
87.8176 0.157
87.8479 0.665
87.8782 -0.285
87.9084 -0.193
87.9387 -0.101
87.9690 -0.269
87.9993 0.397
88.0296 0.022
88.0598 -0.249
88.0901 -0.728
88.1204 0.298
88.1507 -0.030
88.1810 -0.045
88.2112 -0.164
88.2415 0.082
88.2718 -0.348
88.3021 0.472
88.3323 -0.010
88.3626 -0.126
88.3929 -0.086
88.4232 0.215
88.4535 0.047
88.4837 -0.172
88.5140 -0.339
88.5443 0.328
88.5746 0.475
88.6049 0.362
88.6351 -0.428
88.6654 -0.280
88.6957 0.173
88.7260 0.055
88.7562 0.249
88.7865 0.287
88.8168 0.170
88.8471 0.001
88.8774 0.561
88.9076 0.758
88.9379 0.642
88.9682 -0.203
88.9985 0.568
89.0288 0.297
89.0590 0.652
89.0893 0.955
89.1196 0.737
89.1499 1.718
89.1801 1.293
89.2104 2.067
89.2407 2.216
89.2710 1.584
89.3013 1.994
89.3315 1.415
89.3618 3.649
89.3921 3.018
89.4224 3.743
89.4527 2.176
89.4829 3.109
89.5132 2.845
89.5435 3.102
89.5738 2.839
89.6040 2.472
89.6343 2.418
89.6646 2.937
89.6949 1.634
89.7252 1.164
89.7554 1.529
89.7857 1.633
89.8160 1.008
89.8463 1.582
89.8766 1.219
89.9068 1.117
89.9371 1.431
89.9674 1.278
89.9977 0.448
90.0279 0.711
90.0582 -0.014
90.0885 0.199
90.1188 0.933
90.1491 0.104
90.1793 0.110
90.2096 0.533
90.2399 -0.086
90.2702 -0.235
90.3005 0.709
90.3307 -0.116
90.3610 -0.160
90.3913 0.160
90.4216 -0.456
90.4518 0.439
90.4821 -0.228
90.5124 0.615
90.5427 -0.260
90.5730 -0.040
90.6032 0.440
90.6335 -0.173
90.6638 0.360
90.6941 -0.253
90.7244 0.281
90.7546 -0.018
90.7849 -0.421
90.8152 0.271
90.8455 0.390
90.8758 -0.012
90.9060 0.368
90.9363 -0.397
90.9666 -0.068
90.9969 -0.051
91.0271 -0.242
91.0574 -0.172
91.0877 -0.206
91.1180 0.750
91.1483 -0.065
91.1785 0.111
91.2088 -0.078
91.2391 0.307
91.2694 0.588
91.2997 0.192
91.3299 -0.255
91.3602 -0.219
91.3905 0.181
91.4208 -0.355
91.4510 0.255
91.4813 0.865
91.5116 0.017
91.5419 0.107
91.5722 -0.323
91.6024 0.393
91.6327 0.641
91.6630 0.368
91.6933 -0.112
91.7236 -0.228
91.7538 0.334
91.7841 0.063
91.8144 -0.051
91.8447 -0.061
91.8749 0.659
91.9052 0.233
91.9355 0.225
91.9658 0.269
91.9961 0.105
92.0263 -0.058
92.0566 -0.117
92.0869 -0.020
92.1172 -0.026
92.1475 0.386
92.1777 -0.401
92.2080 0.428
92.2383 -0.149
92.2686 0.420
92.2988 -0.053
92.3291 -0.108
92.3594 0.306
92.3897 0.825
92.4200 0.667
92.4502 0.509
92.4805 0.821
92.5108 0.456
92.5411 1.028
92.5714 0.664
92.6016 0.769
92.6319 1.291
92.6622 0.355
92.6925 0.826
92.7227 0.672
92.7530 0.466
92.7833 0.261
92.8136 -0.100
92.8439 0.738
92.8741 0.378
92.9044 0.903
92.9347 1.013
92.9650 0.654
92.9953 0.920
93.0255 0.875
93.0558 0.413
93.0861 0.368
93.1164 0.116
93.1466 0.176
93.1769 0.445
93.2072 0.350
93.2375 0.203
93.2678 1.411
93.2980 0.015
93.3283 -0.078
93.3586 0.402
93.3889 -0.003
93.4192 0.061
93.4494 0.802
93.4797 0.294
93.5100 0.464
93.5403 0.582
93.5706 0.596
93.6008 -0.067
93.6311 -0.260
93.6614 -0.012
93.6917 0.288
93.7219 -0.036
93.7522 -0.256
93.7825 0.410
93.8128 0.036
93.8431 0.182
93.8733 0.328
93.9036 0.059
93.9339 -0.002
93.9642 -0.271
93.9945 0.022
94.0247 0.211
94.0550 0.036
94.0853 -0.086
94.1156 -0.052
94.1458 0.607
94.1761 0.121
94.2064 0.209
94.2367 -0.068
94.2670 0.176
94.2972 0.265
94.3275 0.458
94.3578 0.391
94.3881 -0.144
94.4184 -0.366
94.4486 0.246
94.4789 -0.080
94.5092 0.168
94.5395 0.208
94.5697 0.040
94.6000 0.654
94.6303 0.226
94.6606 0.737
94.6909 0.362
94.7211 0.717
94.7514 0.655
94.7817 0.595
94.8120 1.784
94.8423 1.464
94.8725 0.831
94.9028 1.188
94.9331 0.973
94.9634 1.436
94.9936 1.586
95.0239 1.685
95.0542 2.096
95.0845 2.769
95.1148 2.608
95.1450 2.761
95.1753 2.445
95.2056 2.494
95.2359 2.231
95.2662 2.073
95.2964 2.748
95.3267 2.643
95.3570 2.590
95.3873 2.381
95.4175 1.600
95.4478 1.392
95.4781 1.288
95.5084 1.550
95.5387 1.552
95.5689 1.085
95.5992 1.139
95.6295 1.298
95.6598 0.573
95.6901 1.097
95.7203 0.528
95.7506 0.481
95.7809 0.277
95.8112 0.075
95.8414 -0.024
95.8717 -0.382
95.9020 0.614
95.9323 0.517
95.9626 0.160
95.9928 -0.093
96.0231 -0.189
96.0534 -0.076
96.0837 -0.275
96.1140 -0.005
96.1442 0.265
96.1745 0.172
96.2048 0.391
96.2351 -0.015
96.2653 0.205
96.2956 -0.043
96.3259 -0.239
96.3562 -0.538
96.3865 0.517
96.4167 -0.303
96.4470 -0.237
96.4773 -0.118
96.5076 -0.415
96.5379 0.174
96.5681 -0.070
96.5984 -0.157
96.6287 0.329
96.6590 0.191
96.6893 -0.363
96.7195 -0.143
96.7498 -0.079
96.7801 0.245
96.8104 -0.263
96.8406 0.532
96.8709 -0.392
96.9012 -0.013
96.9315 0.470
96.9618 0.120
96.9920 0.187
97.0223 -0.266
97.0526 -0.218
97.0829 0.091
97.1132 0.556
97.1434 0.449
97.1737 -0.075
97.2040 -0.077
97.2343 0.077
97.2645 -0.081
97.2948 0.022
97.3251 -0.186
97.3554 -0.291
97.3857 0.439
97.4159 0.231
97.4462 0.596
97.4765 0.494
97.5068 0.652
97.5371 0.185
97.5673 0.188
97.5976 0.243
97.6279 0.143
97.6582 0.199
97.6884 -0.266
97.7187 -0.174
97.7490 0.231
97.7793 -0.145
97.8096 -0.156
97.8398 -0.271
97.8701 0.030
97.9004 0.070
97.9307 0.267
97.9610 0.517
97.9912 0.038
98.0215 0.392
98.0518 0.851
98.0821 0.061
98.1123 0.260
98.1426 0.460
98.1729 0.348
98.2032 0.653
98.2335 0.282
98.2637 0.796
98.2940 0.581
98.3243 1.096
98.3546 1.716
98.3849 1.815
98.4151 1.081
98.4454 1.337
98.4757 2.063
98.5060 1.591
98.5362 1.275
98.5665 1.481
98.5968 1.271
98.6271 1.321
98.6574 0.747
98.6876 1.215
98.7179 1.266
98.7482 1.058
98.7785 0.902
98.8088 1.216
98.8390 0.592
98.8693 0.958
98.8996 0.543
98.9299 0.338
98.9601 0.445
98.9904 0.917
99.0207 0.504
99.0510 1.081
99.0813 0.825
99.1115 0.466
99.1418 -0.102
99.1721 0.321
99.2024 -0.142
99.2327 0.542
99.2629 -0.232
99.2932 0.348
99.3235 -0.060
99.3538 -0.104
99.3841 0.477
99.4143 -0.243
99.4446 0.392
99.4749 0.090
99.5052 -0.056
99.5354 0.423
99.5657 0.331
99.5960 -0.126
99.6263 -0.271
99.6566 0.153
99.6868 -0.204
99.7171 -0.249
99.7474 0.072
99.7777 -0.440
99.8080 -0.015
99.8382 -0.266
99.8685 -0.207
99.8988 0.322
99.9291 0.225
99.9593 -0.287
99.9896 0.190
100.0199 0.043
100.0502 -0.260
100.0805 0.005
100.1107 0.114
100.1410 -0.037
100.1713 0.178
100.2016 -0.129
100.2319 0.034
100.2621 -0.115
100.2924 -0.211
100.3227 -0.255
100.3530 -0.247
100.3832 0.439
100.4135 0.240
100.4438 -0.063
100.4741 0.312
100.5044 0.062
100.5346 0.281
100.5649 0.084
100.5952 0.460
100.6255 -0.257
100.6558 -0.244
100.6860 -0.098
100.7163 0.257
100.7466 0.299
100.7769 0.134
100.8071 0.282
100.8374 0.378
100.8677 -0.255
100.8980 0.155
100.9283 -0.008
100.9585 -0.327
100.9888 0.187
101.0191 0.234
101.0494 -0.240
101.0797 0.328
101.1099 0.272
101.1402 -0.097
101.1705 -0.569
101.2008 0.522
101.2310 0.206
101.2613 0.204
101.2916 0.411
101.3219 0.305
101.3522 0.044
101.3824 0.356
101.4127 -0.165
101.4430 0.408
101.4733 0.252
101.5036 0.097
101.5338 0.151
101.5641 -0.056
101.5944 0.207
101.6247 -0.311
101.6549 -0.180
101.6852 0.003
101.7155 -0.229
101.7458 -0.149
101.7761 -0.225
101.8063 0.273
101.8366 0.094
101.8669 0.176
101.8972 -0.159
101.9275 0.236
101.9577 0.059
101.9880 -0.066
102.0183 -0.138
102.0486 -0.106
102.0788 -0.021
102.1091 0.324
102.1394 0.097
102.1697 -0.494
102.2000 -0.042
102.2302 -0.320
102.2605 0.236
102.2908 -0.041
102.3211 -0.109
102.3514 0.188
102.3816 -0.035
102.4119 0.263
102.4422 0.353
102.4725 0.391
102.5028 0.846
102.5330 0.365
102.5633 0.040
102.5936 0.392
102.6239 0.120
102.6541 0.838
102.6844 0.827
102.7147 0.556
102.7450 0.390
102.7753 1.370
102.8055 0.214
102.8358 0.466
102.8661 0.249
102.8964 0.658
102.9267 0.494
102.9569 0.175
102.9872 0.637
103.0175 0.839
103.0478 0.364
103.0780 0.879
103.1083 0.562
103.1386 -0.537
103.1689 0.188
103.1992 0.237
103.2294 0.181
103.2597 0.022
103.2900 -0.241
103.3203 -0.087
103.3506 0.484
103.3808 0.952
103.4111 0.326
103.4414 0.690
103.4717 0.117
103.5019 0.222
103.5322 0.691
103.5625 -0.714
103.5928 0.434
103.6231 0.748
103.6533 0.334
103.6836 0.545
103.7139 0.132
103.7442 0.657
103.7745 0.713
103.8047 0.769
103.8350 1.347
103.8653 1.405
103.8956 0.942
103.9258 1.625
103.9561 1.371
103.9864 2.264
104.0167 1.386
104.0470 0.613
104.0772 1.454
104.1075 1.567
104.1378 1.420
104.1681 1.221
104.1984 1.648
104.2286 2.023
104.2589 0.940
104.2892 1.108
104.3195 1.848
104.3497 1.600
104.3800 1.248
104.4103 0.792
104.4406 0.597
104.4709 1.236
104.5011 0.573
104.5314 0.431
104.5617 0.811
104.5920 1.139
104.6223 0.530
104.6525 0.598
104.6828 0.458
104.7131 0.580
104.7434 0.597
104.7736 0.667
104.8039 -0.356
104.8342 -0.285
104.8645 0.086
104.8948 0.094
104.9250 0.206
104.9553 -0.359
104.9856 0.275
105.0159 0.753
105.0462 0.033
105.0764 0.512
105.1067 -0.102
105.1370 0.690
105.1673 -0.341
105.1975 0.452
105.2278 0.100
105.2581 0.060
105.2884 0.021
105.3187 0.034
105.3489 0.569
105.3792 0.010
105.4095 0.181
105.4398 0.040
105.4701 0.264
105.5003 0.488
105.5306 0.192
105.5609 -0.260
105.5912 -0.213
105.6215 -0.269
105.6517 0.457
105.6820 0.194
105.7123 0.347
105.7426 -0.540
105.7728 -0.021
105.8031 -0.127
105.8334 0.185
105.8637 0.393
105.8940 -0.024
105.9242 -0.232
105.9545 0.185
105.9848 -0.074
106.0151 0.761
106.0454 -0.643
106.0756 0.401
106.1059 -0.586
106.1362 -0.218
106.1665 0.723
106.1967 -0.471
106.2270 -0.206
106.2573 -0.253
106.2876 0.117
106.3179 -0.086
106.3481 -0.132
106.3784 -0.125
106.4087 0.142
106.4390 -0.059
106.4693 -0.311
106.4995 0.090
106.5298 0.544
106.5601 -0.095
106.5904 -0.057
106.6206 -0.279
106.6509 0.177
106.6812 0.008
106.7115 -0.421
106.7418 0.087
106.7720 0.649
106.8023 0.273
106.8326 -0.362
106.8629 -0.164
106.8932 0.347
106.9234 -0.236
106.9537 0.016
106.9840 -0.097
107.0143 0.260
107.0445 -0.061
107.0748 -0.068
107.1051 -0.023
107.1354 0.335
107.1657 0.069
107.1959 0.584
107.2262 0.214
107.2565 0.678
107.2868 -0.212
107.3171 -0.111
107.3473 -0.063
107.3776 0.194
107.4079 -0.225
107.4382 -0.019
107.4684 0.031
107.4987 0.499
107.5290 0.341
107.5593 0.184
107.5896 -0.389
107.6198 0.184
107.6501 0.498
107.6804 0.082
107.7107 0.604
107.7410 -0.279
107.7712 0.140
107.8015 -0.170
107.8318 0.093
107.8621 -0.111
107.8923 0.049
107.9226 -0.363
107.9529 0.006
107.9832 0.375
108.0135 -0.193
108.0437 0.125
108.0740 -0.285
108.1043 -0.072
108.1346 -0.276
108.1649 -0.067
108.1951 0.037
108.2254 -0.014
108.2557 -0.221
108.2860 0.197
108.3163 -0.426
108.3465 -0.058
108.3768 -0.108
108.4071 0.208
108.4374 -0.257
108.4676 -0.200
108.4979 0.742
108.5282 0.434
108.5585 0.336
108.5888 0.446
108.6190 -0.277
108.6493 -0.271
108.6796 -0.162
108.7099 -0.002
108.7402 -0.101
108.7704 -0.148
108.8007 -0.038
108.8310 -0.084
108.8613 0.131
108.8915 -0.123
108.9218 -0.219
108.9521 -0.055
108.9824 -0.047
109.0127 -0.143
109.0429 -0.134
109.0732 0.032
109.1035 -0.010
109.1338 -0.260
109.1641 0.053
109.1943 -0.311
109.2246 -0.016
109.2549 0.070
109.2852 -0.259
109.3154 0.193
109.3457 -0.083
109.3760 -0.099
109.4063 -0.114
109.4366 -0.858
109.4668 0.170
109.4971 -0.207
109.5274 0.197
109.5577 0.185
109.5880 0.017
109.6182 0.267
109.6485 0.152
109.6788 -0.223
109.7091 0.392
109.7393 0.435
109.7696 -0.356
109.7999 0.104
109.8302 0.773
109.8605 0.349
109.8907 0.446
109.9210 0.282
109.9513 0.901
109.9816 0.166
110.0119 0.420
110.0421 0.519
110.0724 0.671
110.1027 0.666
110.1330 0.662
110.1632 1.023
110.1935 0.447
110.2238 0.496
110.2541 0.494
110.2844 0.440
110.3146 1.167
110.3449 0.906
110.3752 0.436
110.4055 0.957
110.4358 1.061
110.4660 0.229
110.4963 0.854
110.5266 -0.030
110.5569 0.129
110.5871 0.808
110.6174 0.185
110.6477 -0.280
110.6780 0.244
110.7083 0.769
110.7385 0.252
110.7688 -0.003
110.7991 1.043
110.8294 0.789
110.8597 0.170
110.8899 0.176
110.9202 0.443
110.9505 0.398
110.9808 1.083
111.0110 0.206
111.0413 -0.202
111.0716 -0.141
111.1019 0.285
111.1322 -0.070
111.1624 -0.008
111.1927 0.055
111.2230 0.482
111.2533 -0.027
111.2836 -0.276
111.3138 -0.056
111.3441 -0.148
111.3744 0.230
111.4047 -0.174
111.4350 -0.161
111.4652 0.426
111.4955 0.128
111.5258 -0.066
111.5561 -0.363
111.5863 0.110
111.6166 0.324
111.6469 -0.035
111.6772 0.440
111.7075 -0.178
111.7377 0.558
111.7680 -0.267
111.7983 0.313
111.8286 0.166
111.8589 0.591
111.8891 -0.077
111.9194 -0.119
111.9497 -0.161
111.9800 0.109
112.0102 0.068
112.0405 -0.285
112.0708 -0.026
112.1011 -0.027
112.1314 0.181
112.1616 0.181
112.1919 0.389
112.2222 0.025
112.2525 1.016
112.2828 -0.180
112.3130 -0.230
112.3433 0.189
112.3736 0.296
112.4039 0.559
112.4341 -0.062
112.4644 -0.058
112.4947 -0.001
112.5250 0.472
112.5553 0.113
112.5855 0.275
112.6158 -0.188
112.6461 -0.285
112.6764 0.230
112.7067 -0.087
112.7369 0.585
112.7672 0.061
112.7975 0.005
112.8278 0.002
112.8580 0.103
112.8883 0.465
112.9186 -0.370
112.9489 0.826
112.9792 -0.269
113.0094 -0.009
113.0397 0.355
113.0700 0.251
113.1003 0.928
113.1306 0.096
113.1608 0.045
113.1911 -0.266
113.2214 0.309
113.2517 0.104
113.2819 0.471
113.3122 0.891
113.3425 -0.251
113.3728 0.274
113.4031 -0.138
113.4333 0.180
113.4636 0.758
113.4939 0.191
113.5242 0.146
113.5545 0.361
113.5847 -0.049
113.6150 0.376
113.6453 -0.137
113.6756 -0.337
113.7058 0.182
113.7361 0.286
113.7664 0.546
113.7967 -0.183
113.8270 0.025
113.8572 0.235
113.8875 -0.337
113.9178 -0.188
113.9481 -0.091
113.9784 -0.150
114.0086 0.365
114.0389 -0.370
114.0692 -0.115
114.0995 0.245
114.1298 0.397
114.1600 0.028
114.1903 0.806
114.2206 0.386
114.2509 0.748
114.2811 -0.140
114.3114 -0.246
114.3417 0.429
114.3720 0.011
114.4023 0.219
114.4325 0.115
114.4628 -0.250
114.4931 -0.376
114.5234 0.437
114.5537 -0.157
114.5839 0.343
114.6142 -0.249
114.6445 0.304
114.6748 -0.080
114.7050 0.370
114.7353 0.352
114.7656 -0.082
114.7959 0.161
114.8262 0.039
114.8564 -0.029
114.8867 0.111
114.9170 0.199
114.9473 0.132
114.9776 -0.352
115.0078 0.102
115.0381 0.088
115.0684 0.179
115.0987 -0.147
115.1289 -0.004
115.1592 0.765
115.1895 0.232
115.2198 0.742
115.2501 0.001
115.2803 -0.009
115.3106 -0.072
115.3409 -0.290
115.3712 -0.042
115.4015 0.259
115.4317 0.144
115.4620 -0.232
115.4923 0.591
115.5226 0.477
115.5528 0.311
115.5831 0.770
115.6134 1.126
115.6437 0.649
115.6740 0.745
115.7042 0.581
115.7345 1.251
115.7648 1.349
115.7951 1.082
115.8254 1.649
115.8556 0.810
115.8859 1.899
115.9162 1.373
115.9465 1.577
115.9767 1.834
116.0070 1.987
116.0373 1.098
116.0676 2.085
116.0979 1.406
116.1281 2.134
116.1584 2.445
116.1887 1.506
116.2190 2.860
116.2493 1.662
116.2795 2.444
116.3098 1.768
116.3401 1.508
116.3704 1.302
116.4006 2.189
116.4309 2.139
116.4612 2.142
116.4915 1.573
116.5218 2.254
116.5520 1.424
116.5823 1.064
116.6126 1.330
116.6429 1.752
116.6732 1.393
116.7034 1.399
116.7337 1.093
116.7640 0.944
116.7943 1.004
116.8245 0.803
116.8548 1.124
116.8851 1.133
116.9154 0.725
116.9457 0.526
116.9759 0.536
117.0062 0.859
117.0365 0.558
117.0668 0.100
117.0971 1.101
117.1273 0.697
117.1576 0.240
117.1879 0.514
117.2182 0.788
117.2485 0.645
117.2787 0.190
117.3090 0.518
117.3393 0.897
117.3696 0.340
117.3998 -0.218
117.4301 0.632
117.4604 -0.237
117.4907 0.301
117.5210 0.006
117.5512 0.649
117.5815 0.667
117.6118 0.165
117.6421 0.705
117.6724 -0.317
117.7026 0.433
117.7329 0.401
117.7632 0.161
117.7935 0.547
117.8237 0.256
117.8540 0.330
117.8843 0.040
117.9146 0.272
117.9449 0.139
117.9751 -0.567
118.0054 -0.022
118.0357 -0.101
118.0660 -0.128
118.0963 -0.311
118.1265 0.144
118.1568 0.859
118.1871 -0.196
118.2174 -0.157
118.2476 0.508
118.2779 0.496
118.3082 0.120
118.3385 -0.047
118.3688 0.150
118.3990 0.244
118.4293 0.703
118.4596 0.225
118.4899 0.059
118.5202 1.197
118.5504 0.042
118.5807 0.347
118.6110 0.131
118.6413 -0.240
118.6715 0.118
118.7018 0.216
118.7321 0.575
118.7624 -0.316
118.7927 0.044
118.8229 -0.221
118.8532 0.660
118.8835 -0.281
118.9138 0.289
118.9441 -0.027
118.9743 0.544
119.0046 -0.343
119.0349 0.020
119.0652 -0.086
119.0954 -0.086
119.1257 0.226
119.1560 -0.243
119.1863 0.018
119.2166 0.175
119.2468 0.281
119.2771 0.283
119.3074 -0.184
119.3377 -0.181
119.3680 -0.126
119.3982 0.607
119.4285 -0.014
119.4588 -0.635
119.4891 0.359
119.5193 -0.104
119.5496 -0.255
119.5799 -0.144
119.6102 0.749
119.6405 -0.076
119.6707 -0.068
119.7010 -0.007
119.7313 0.315
119.7616 0.324
119.7919 0.282
119.8221 -0.072
119.8524 0.252
119.8827 0.576
119.9130 0.327
119.9433 0.443
119.9735 0.456
120.0038 0.000
