'Id: "" Comment: "" Operator: "Lab Manager" Anode: "Cu" Scantype: "Locked Coupled" TimePerStep: "19.2" X: "9999" Y: "9999" Z: "9999" 
10.0015 0.000
10.0318 0.365
10.0620 0.053
10.0923 0.106
10.1226 0.107
10.1529 0.005
10.1832 -0.045
10.2134 -0.094
10.2437 1.055
10.2740 0.433
10.3043 0.072
10.3346 -0.392
10.3648 0.967
10.3951 1.024
10.4254 -0.272
10.4557 -0.058
10.4859 -0.416
10.5162 0.103
10.5465 0.519
10.5768 -0.315
10.6071 -0.159
10.6373 -0.159
10.6676 1.300
10.6979 -0.574
10.7282 0.261
10.7585 0.158
10.7887 -0.152
10.8190 -0.097
10.8493 -0.407
10.8796 0.059
10.9098 0.578
10.9401 0.211
10.9704 0.054
11.0007 -0.676
11.0310 0.417
11.0612 -0.521
11.0915 -0.104
11.1218 -0.103
11.1521 0.887
11.1824 -0.205
11.2126 0.110
11.2429 0.320
11.2732 1.990
11.3035 -0.455
11.3337 1.476
11.3640 0.178
11.3943 0.235
11.4246 0.344
11.4549 0.661
11.4851 -0.531
11.5154 0.569
11.5457 -0.049
11.5760 0.375
11.6063 0.538
11.6365 -0.131
11.6668 0.659
11.6971 0.355
11.7274 1.197
11.7577 -0.147
11.7879 0.748
11.8182 -0.127
11.8485 -0.012
11.8788 0.625
11.9090 0.428
11.9393 -0.081
11.9696 -0.224
11.9999 -0.055
12.0302 -0.042
12.0604 0.128
12.0907 0.090
12.1210 -0.572
12.1513 -0.045
12.1816 -0.247
12.2118 -0.293
12.2421 -0.390
12.2724 0.346
12.3027 -0.012
12.3329 -0.109
12.3632 0.836
12.3935 -0.719
12.4238 0.487
12.4541 0.548
12.4843 1.026
12.5146 0.306
12.5449 0.212
12.5752 1.473
12.6055 0.025
12.6357 0.141
12.6660 0.152
12.6963 0.373
12.7266 1.167
12.7568 0.555
12.7871 -0.265
12.8174 -0.252
12.8477 0.075
12.8780 0.975
12.9082 -0.208
12.9385 0.121
12.9688 0.866
12.9991 -0.264
13.0294 -0.143
13.0596 0.656
13.0899 -0.108
13.1202 -0.090
13.1505 -0.124
13.1807 0.416
13.2110 -0.033
13.2413 0.403
13.2716 -0.098
13.3019 0.808
13.3321 0.569
13.3624 -0.034
13.3927 0.092
13.4230 0.531
13.4533 0.501
13.4835 0.003
13.5138 -0.442
13.5441 0.037
13.5744 0.725
13.6046 0.111
13.6349 -0.294
13.6652 0.291
13.6955 0.147
13.7258 0.317
13.7560 -0.087
13.7863 0.969
13.8166 0.201
13.8469 0.372
13.8772 0.804
13.9074 0.715
13.9377 0.366
13.9680 0.122
13.9983 0.868
14.0285 0.989
14.0588 -0.556
14.0891 -0.329
14.1194 0.539
14.1497 0.367
14.1799 0.560
14.2102 0.753
14.2405 0.426
14.2708 0.255
14.3011 1.022
14.3313 -0.137
14.3616 0.735
14.3919 -0.163
14.4222 0.293
14.4524 -0.187
14.4827 0.166
14.5130 0.519
14.5433 0.821
14.5736 -0.022
14.6038 -0.188
14.6341 0.740
14.6644 1.044
14.6947 0.358
14.7250 0.714
14.7552 0.707
14.7855 1.012
14.8158 0.224
14.8461 0.686
14.8764 0.316
14.9066 0.102
14.9369 1.087
14.9672 0.144
14.9975 0.192
15.0277 0.188
15.0580 0.237
15.0883 0.859
15.1186 0.388
15.1489 0.490
15.1791 0.123
15.2094 0.539
15.2397 0.434
15.2700 0.485
15.3003 -0.087
15.3305 -0.139
15.3608 0.539
15.3911 0.748
15.4214 0.229
15.4516 0.127
15.4819 0.546
15.5122 0.028
15.5425 0.657
15.5728 0.400
15.6030 0.977
15.6333 0.357
15.6636 0.258
15.6939 0.732
15.7242 -0.616
15.7544 -0.245
15.7847 0.074
15.8150 0.237
15.8453 0.610
15.8755 0.149
15.9058 -0.364
15.9361 -0.119
15.9664 -0.134
15.9967 0.007
16.0269 -0.476
16.0572 0.083
16.0875 -0.139
16.1178 0.265
16.1481 0.356
16.1783 0.553
16.2086 -0.293
16.2389 0.217
16.2692 -0.003
16.2994 0.039
16.3297 -0.232
16.3600 0.488
16.3903 -0.199
16.4206 -0.572
16.4508 0.250
16.4811 0.344
16.5114 1.115
16.5417 -0.354
16.5720 0.054
16.6022 0.253
16.6325 -0.224
16.6628 0.236
16.6931 0.489
16.7233 -0.091
16.7536 0.475
16.7839 0.624
16.8142 -0.163
16.8445 -0.116
16.8747 0.347
16.9050 -0.179
16.9353 0.598
16.9656 -0.239
16.9959 0.383
17.0261 0.067
17.0564 0.012
17.0867 -0.667
17.1170 0.269
17.1472 -0.202
17.1775 0.110
17.2078 0.213
17.2381 0.630
17.2684 -0.047
17.2986 -0.671
17.3289 0.268
17.3592 -0.668
17.3895 0.532
17.4198 -0.247
17.4500 -0.192
17.4803 0.800
17.5106 0.023
17.5409 -0.650
17.5712 0.032
17.6014 0.402
17.6317 -0.165
17.6620 0.206
17.6923 0.005
17.7225 -0.092
17.7528 -0.137
17.7831 -0.701
17.8134 0.245
17.8437 0.618
17.8739 0.263
17.9042 -0.144
17.9345 0.179
17.9648 0.033
17.9951 0.149
18.0253 -0.361
18.0556 -0.263
18.0859 -0.061
18.1162 -0.274
18.1464 0.398
18.1767 0.393
18.2070 -0.028
18.2373 -0.501
18.2676 0.486
18.2978 0.014
18.3281 -0.301
18.3584 0.426
18.3887 -0.617
18.4190 0.631
18.4492 -0.047
18.4795 0.890
18.5098 0.422
18.5401 0.370
18.5703 -0.567
18.6006 -0.045
18.6309 0.166
18.6612 -0.405
18.6915 0.066
18.7217 -0.348
18.7520 0.072
18.7823 -0.705
18.8126 0.341
18.8429 0.970
18.8731 0.298
18.9034 0.877
18.9337 -0.367
18.9640 -0.361
18.9942 0.054
19.0245 -0.051
19.0548 -0.104
19.0851 0.729
19.1154 0.312
19.1456 -0.365
19.1759 0.209
19.2062 0.210
19.2365 -0.361
19.2668 -0.204
19.2970 -0.098
19.3273 1.050
19.3576 0.635
19.3879 0.378
19.4181 0.121
19.4484 -0.188
19.4787 -0.341
19.5090 0.601
19.5393 0.189
19.5695 0.403
19.5998 -0.060
19.6301 -0.314
19.6604 0.474
19.6907 0.376
19.7209 -0.033
19.7512 -0.390
19.7815 0.075
19.8118 0.332
19.8420 -0.192
19.8723 -0.247
19.9026 0.011
19.9329 0.426
19.9632 -0.357
19.9934 -0.775
20.0237 1.256
20.0540 -0.046
20.0843 0.475
20.1146 -0.045
20.1448 -0.877
20.1751 0.426
20.2054 0.845
20.2357 0.639
20.2659 0.069
20.2962 0.072
20.3265 0.128
20.3568 -0.128
20.3871 0.658
20.4173 0.142
20.4476 0.251
20.4779 -0.837
20.5082 0.628
20.5385 0.010
20.5687 -0.348
20.5990 0.389
20.6293 0.136
20.6596 -0.064
20.6899 0.310
20.7201 0.267
20.7504 0.276
20.7807 -0.078
20.8110 0.505
20.8412 -0.369
20.8715 -0.098
20.9018 0.227
20.9321 0.447
20.9624 0.512
20.9926 -0.256
21.0229 0.330
21.0532 0.604
21.0835 -0.527
21.1138 0.060
21.1440 0.284
21.1743 0.560
21.2046 0.315
21.2349 -0.502
21.2651 0.036
21.2954 -0.468
21.3257 -0.014
21.3560 -0.549
21.3863 0.479
21.4165 0.570
21.4468 0.192
21.4771 0.128
21.5074 0.220
21.5377 0.833
21.5679 0.092
21.5982 0.134
21.6285 0.592
21.6588 0.478
21.6890 -0.157
21.7193 0.667
21.7496 0.138
21.7799 0.025
21.8102 0.278
21.8404 -0.407
21.8707 0.367
21.9010 0.309
21.9313 0.354
21.9616 0.713
21.9918 -0.230
22.0221 0.234
22.0524 -0.291
22.0827 0.121
22.1129 0.118
22.1432 0.167
22.1735 -0.201
22.2038 0.161
22.2341 0.784
22.2643 1.043
22.2946 -0.052
22.3249 0.520
22.3552 0.312
22.3855 -0.626
22.4157 -0.156
22.4460 -0.468
22.4763 0.207
22.5066 -0.055
22.5368 -0.056
22.5671 0.152
22.5974 0.256
22.6277 0.673
22.6580 0.205
22.6882 0.518
22.7185 -0.314
22.7488 0.469
22.7791 0.628
22.8094 0.474
22.8396 0.582
22.8699 -0.248
22.9002 -0.140
22.9305 0.854
22.9607 -0.079
22.9910 -0.021
23.0213 -0.276
23.0516 0.199
23.0819 -0.159
23.1121 -0.048
23.1424 0.115
23.1727 -0.345
23.2030 -0.139
23.2333 0.276
23.2635 -0.298
23.2938 0.638
23.3241 -0.091
23.3544 0.169
23.3846 -0.299
23.4149 -0.142
23.4452 -0.089
23.4755 0.121
23.5058 -0.137
23.5360 0.438
23.5663 0.233
23.5966 -0.389
23.6269 0.084
23.6572 0.088
23.6874 0.145
23.7177 0.098
23.7480 0.832
23.7783 0.005
23.8086 -0.145
23.8388 0.539
23.8691 0.234
23.8994 -0.696
23.9297 0.666
23.9599 0.310
23.9902 0.006
24.0205 0.172
24.0508 0.338
24.0811 0.035
24.1113 0.463
24.1416 0.422
24.1719 0.589
24.2022 0.184
24.2325 0.301
24.2627 -0.572
24.2930 -0.263
24.3233 0.776
24.3536 -0.112
24.3838 -0.270
24.4141 0.249
24.4444 0.247
24.4747 0.351
24.5050 0.455
24.5352 -0.379
24.5655 0.299
24.5958 0.872
24.6261 0.509
24.6564 0.459
24.6866 0.513
24.7169 0.516
24.7472 0.102
24.7775 -0.468
24.8077 -0.058
24.8380 -0.012
24.8683 0.346
24.8986 0.445
24.9289 0.700
24.9591 0.123
24.9894 0.223
25.0197 0.583
25.0500 0.111
25.0803 0.108
25.1105 -0.624
25.1408 0.208
25.1711 0.727
25.2014 0.153
25.2316 0.256
25.2619 0.464
25.2922 0.464
25.3225 0.776
25.3528 -0.212
25.3830 0.101
25.4133 0.155
25.4436 -0.416
25.4739 -0.104
25.5042 0.051
25.5344 0.259
25.5647 -0.366
25.5950 0.624
25.6253 -0.104
25.6555 -0.207
25.6858 0.315
25.7161 0.682
25.7464 -0.149
25.7767 -0.042
25.8069 0.170
25.8372 1.007
25.8675 -0.447
25.8978 0.183
25.9281 0.761
25.9583 0.506
25.9886 0.616
26.0189 0.466
26.0492 0.317
26.0794 0.688
26.1097 0.384
26.1400 -0.338
26.1703 -0.355
26.2006 0.878
26.2308 0.549
26.2611 -0.092
26.2914 -0.160
26.3217 0.241
26.3520 0.174
26.3822 -0.153
26.4125 0.458
26.4428 0.236
26.4731 -0.245
26.5034 0.992
26.5336 -0.375
26.5639 -0.022
26.5942 0.956
26.6245 0.476
26.6547 -0.159
26.6850 0.403
26.7153 0.602
26.7456 -0.241
26.7759 0.531
26.8061 -0.206
26.8364 0.567
26.8667 0.090
26.8970 0.396
26.9273 0.128
26.9575 0.695
26.9878 0.324
27.0181 -0.046
27.0484 -0.572
27.0786 0.086
27.1089 0.588
27.1392 0.310
27.1695 0.292
27.1998 0.118
27.2300 0.205
27.2603 -0.124
27.2906 0.068
27.3209 0.626
27.3512 0.089
27.3814 0.491
27.4117 -0.513
27.4420 0.202
27.4723 0.501
27.5025 0.124
27.5328 -0.202
27.5631 -0.318
27.5934 0.139
27.6237 0.179
27.6539 0.325
27.6842 -0.207
27.7145 -0.842
27.7448 0.659
27.7751 0.128
27.8053 1.057
27.8356 0.632
27.8659 0.155
27.8962 0.251
27.9264 -0.693
27.9567 0.602
27.9870 -0.446
28.0173 0.069
28.0476 -0.249
28.0778 -0.463
28.1081 0.835
28.1384 -0.211
28.1687 -0.215
28.1990 -0.427
28.2292 0.612
28.2595 0.192
28.2898 0.555
28.3201 0.397
28.3503 -0.125
28.3806 0.082
28.4109 0.290
28.4412 -0.283
28.4715 -0.178
28.5017 0.187
28.5320 0.501
28.5623 -0.800
28.5926 0.609
28.6229 -0.170
28.6531 0.145
28.6834 0.461
28.7137 -0.264
28.7440 0.573
28.7742 0.526
28.8045 -0.146
28.8348 -0.349
28.8651 -0.448
28.8954 0.705
28.9256 -0.122
28.9559 0.458
28.9862 0.466
29.0165 0.109
29.0468 0.534
29.0770 0.439
29.1073 -0.281
29.1376 -0.376
29.1679 0.259
29.1981 0.633
29.2284 0.434
29.2587 0.237
29.2890 0.456
29.3193 -0.002
29.3495 0.375
29.3798 0.074
29.4101 -0.278
29.4404 -0.004
29.4707 0.322
29.5009 -0.498
29.5312 -0.119
29.5615 0.260
29.5918 0.848
29.6221 0.343
29.6523 -0.422
29.6826 0.636
29.7129 0.652
29.7432 0.930
29.7734 0.010
29.8037 0.705
29.8340 -0.526
29.8643 0.586
29.8946 -0.019
29.9248 -0.104
29.9551 0.073
29.9854 0.718
30.0157 0.323
30.0460 1.750
30.0762 -0.103
30.1065 -0.445
30.1368 -0.167
30.1671 0.111
30.1973 0.702
30.2276 0.460
30.2579 0.323
30.2882 0.967
30.3185 -0.315
30.3487 -0.087
30.3790 1.601
30.4093 1.518
30.4396 0.498
30.4699 0.311
30.5001 0.542
30.5304 0.981
30.5607 0.484
30.5910 1.028
30.6212 1.938
30.6515 2.014
30.6818 0.997
30.7121 3.731
30.7424 2.142
30.7726 1.856
30.8029 2.872
30.8332 1.858
30.8635 2.927
30.8938 3.059
30.9240 2.670
30.9543 3.428
30.9846 3.561
31.0149 4.424
31.0451 5.965
31.0754 6.464
31.1057 6.547
31.1360 7.411
31.1663 6.506
31.1965 8.413
31.2268 10.164
31.2571 11.707
31.2874 14.032
31.3177 15.681
31.3479 18.423
31.3782 20.020
31.4085 26.514
31.4388 30.143
31.4690 32.991
31.4993 36.257
31.5296 44.835
31.5599 49.352
31.5902 56.368
31.6204 58.906
31.6507 57.903
31.6810 58.567
31.7113 58.138
31.7416 54.844
31.7718 50.197
31.8021 43.466
31.8324 40.226
31.8627 30.841
31.8929 26.351
31.9232 25.352
31.9535 20.238
31.9838 18.667
32.0141 14.439
32.0443 12.087
32.0746 13.017
32.1049 10.770
32.1352 7.378
32.1655 6.695
32.1957 7.001
32.2260 6.162
32.2563 4.907
32.2866 3.756
32.3169 3.387
32.3471 2.550
32.3774 2.286
32.4077 1.658
32.4380 3.218
32.4682 1.862
32.4985 1.600
32.5288 2.171
32.5591 1.545
32.5894 1.805
32.6196 1.857
32.6499 0.503
32.6802 1.025
32.7105 1.234
32.7408 1.340
32.7710 1.238
32.8013 1.553
32.8316 0.722
32.8619 0.361
32.8921 0.261
32.9224 1.150
32.9527 0.738
32.9830 0.118
33.0133 -0.606
33.0435 0.181
33.0738 -0.125
33.1041 0.194
33.1344 0.514
33.1647 -0.676
33.1949 -0.490
33.2252 0.791
33.2555 1.030
33.2858 -0.397
33.3160 0.416
33.3463 -0.281
33.3766 -0.092
33.4069 0.410
33.4372 0.496
33.4674 0.790
33.4977 -0.373
33.5280 1.224
33.5583 1.155
33.5886 0.774
33.6188 0.341
33.6491 -0.456
33.6794 1.092
33.7097 1.285
33.7399 2.104
33.7702 1.622
33.8005 3.015
33.8308 2.741
33.8611 3.979
33.8913 4.383
33.9216 5.361
33.9519 6.860
33.9822 6.068
34.0125 8.297
34.0427 8.026
34.0730 10.517
34.1033 15.872
34.1336 18.884
34.1638 25.699
34.1941 31.003
34.2244 40.996
34.2547 55.207
34.2850 67.857
34.3152 73.632
34.3455 73.209
34.3758 63.464
34.4061 54.449
34.4364 43.403
34.4666 36.628
34.4969 26.572
34.5272 18.860
34.5575 16.514
34.5877 11.719
34.6180 9.634
34.6483 8.018
34.6786 7.079
34.7089 6.245
34.7391 6.974
34.7694 5.047
34.7997 4.787
34.8300 3.173
34.8603 3.800
34.8905 3.854
34.9208 2.762
34.9511 3.963
34.9814 1.622
35.0116 1.886
35.0419 4.442
35.0722 3.561
35.1025 2.732
35.1328 1.904
35.1630 3.107
35.1933 2.541
35.2236 3.745
35.2539 3.856
35.2842 4.957
35.3144 3.871
35.3447 4.296
35.3750 3.002
35.4053 5.355
35.4356 5.885
35.4658 6.259
35.4961 7.468
35.5264 8.312
35.5567 7.698
35.5869 9.845
35.6172 10.846
35.6475 12.317
35.6778 14.934
35.7081 14.791
35.7383 18.659
35.7686 19.766
35.7989 23.270
35.8292 26.983
35.8595 30.019
35.8897 34.671
35.9200 45.520
35.9503 46.578
35.9806 54.564
36.0108 65.415
36.0411 75.276
36.0714 81.701
36.1017 86.147
36.1320 96.530
36.1622 94.831
36.1925 94.018
36.2228 87.684
36.2531 82.028
36.2834 70.851
36.3136 62.383
36.3439 52.510
36.3742 48.209
36.4045 40.315
36.4347 31.537
36.4650 30.519
36.4953 25.074
36.5256 22.651
36.5559 17.884
36.5861 13.066
36.6164 13.509
36.6467 12.858
36.6770 11.895
36.7073 8.172
36.7375 9.242
36.7678 7.707
36.7981 5.704
36.8284 6.358
36.8586 5.294
36.8889 4.282
36.9192 4.260
36.9495 4.655
36.9798 3.696
37.0100 2.738
37.0403 3.812
37.0706 3.011
37.1009 3.043
37.1312 2.920
37.1614 2.224
37.1917 1.269
37.2220 1.511
37.2523 2.171
37.2825 1.790
37.3128 1.357
37.3431 1.289
37.3734 0.908
37.4037 1.570
37.4339 0.983
37.4642 0.447
37.4945 0.329
37.5248 0.628
37.5551 0.615
37.5853 0.603
37.6156 1.788
37.6459 0.475
37.6762 1.453
37.7064 -0.381
37.7367 0.390
37.7670 0.588
37.7973 0.109
37.8276 -0.212
37.8578 -0.429
37.8881 -0.141
37.9184 0.617
37.9487 0.022
37.9790 0.260
38.0092 0.550
38.0395 0.164
38.0698 -0.274
38.1001 -0.086
38.1304 -0.158
38.1606 -0.230
38.1909 0.167
38.2212 -0.008
38.2515 -0.391
38.2817 0.528
38.3120 -0.011
38.3423 -0.028
38.3726 0.268
38.4029 0.355
38.4331 -0.754
38.4634 -0.308
38.4937 0.400
38.5240 0.327
38.5543 0.722
38.5845 0.181
38.6148 -0.151
38.6451 -0.379
38.6754 -0.148
38.7056 -0.490
38.7359 0.888
38.7662 0.443
38.7965 0.155
38.8268 -0.289
38.8570 0.153
38.8873 -0.290
38.9176 0.517
38.9479 0.700
38.9782 -0.106
39.0084 -0.235
39.0387 -0.832
39.0690 0.267
39.0993 -0.717
39.1295 0.383
39.1598 -0.132
39.1901 -0.541
39.2204 0.664
39.2507 0.880
39.2809 0.263
39.3112 -0.353
39.3415 -0.346
39.3718 -0.339
39.4021 -0.435
39.4323 0.406
39.4626 0.051
39.4929 -0.149
39.5232 0.642
39.5534 -0.285
39.5837 0.090
39.6140 -0.004
39.6443 0.008
39.6746 0.696
39.7048 0.240
39.7351 0.252
39.7654 0.682
39.7957 0.226
39.8260 -0.541
39.8562 0.202
39.8865 0.217
39.9168 0.128
39.9471 -0.378
39.9773 0.055
40.0076 0.540
40.0379 -0.381
40.0682 -0.468
40.0985 0.421
40.1287 0.216
40.1590 0.637
40.1893 -0.035
40.2196 0.178
40.2499 0.131
40.2801 0.137
40.3104 -0.117
40.3407 0.098
40.3710 -0.676
40.4012 -0.052
40.4315 0.156
40.4618 0.937
40.4921 -0.053
40.5224 -0.208
40.5526 0.626
40.5829 0.367
40.6132 -0.256
40.6435 0.111
40.6738 -0.407
40.7040 0.377
40.7343 0.381
40.7646 0.385
40.7949 0.337
40.8251 0.030
40.8554 0.191
40.8857 0.353
40.9160 -0.109
40.9463 0.053
40.9765 -0.825
41.0068 0.120
41.0371 -0.133
41.0674 1.126
41.0977 -0.480
41.1279 0.206
41.1582 0.059
41.1885 0.069
41.2188 -0.025
41.2491 0.142
41.2793 -0.055
41.3096 0.634
41.3399 0.073
41.3702 0.086
41.4004 -0.162
41.4307 0.268
41.4610 0.126
41.4913 -0.225
41.5216 -0.002
41.5518 -0.039
41.5821 0.133
41.6124 -0.060
41.6427 -0.304
41.6730 -0.209
41.7032 0.510
41.7335 -0.020
41.7638 -0.081
41.7941 0.172
41.8243 -0.201
41.8546 0.417
41.8849 0.045
41.9152 0.664
41.9455 0.085
41.9757 0.131
42.0060 -0.083
42.0363 0.225
42.0666 -0.040
42.0969 0.321
42.1271 0.005
42.1574 0.418
42.1877 -0.366
42.2180 -0.056
42.2482 0.619
42.2785 0.045
42.3088 -0.164
42.3391 0.148
42.3694 0.043
42.3996 -0.113
42.4299 -0.008
42.4602 0.410
42.4905 -0.110
42.5208 0.465
42.5510 0.572
42.5813 0.106
42.6116 -0.047
42.6419 -0.148
42.6721 -0.092
42.7024 -0.140
42.7327 -0.135
42.7630 -0.025
42.7933 0.189
42.8235 -0.118
42.8538 0.254
42.8841 0.677
42.9144 0.320
42.9447 -0.558
42.9749 -0.133
43.0052 0.866
43.0355 -0.584
43.0658 -0.105
43.0960 -0.304
43.1263 -0.044
43.1566 0.423
43.1869 0.527
43.2172 0.319
43.2474 0.007
43.2777 0.112
43.3080 0.322
43.3383 -0.093
43.3686 -0.143
43.3988 -0.036
43.4291 -0.085
43.4594 0.126
43.4897 0.651
43.5199 -0.178
43.5502 0.191
43.5805 0.405
43.6108 -0.163
43.6411 -0.053
43.6713 0.006
43.7016 -0.091
43.7319 0.020
43.7622 0.601
43.7925 0.296
43.8227 -0.164
43.8530 -0.363
43.8833 0.196
43.9136 0.704
43.9439 -0.142
43.9741 -0.050
44.0044 0.199
44.0347 0.031
44.0650 0.072
44.0952 0.531
44.1255 0.052
44.1558 0.407
44.1861 -0.175
44.2164 -0.028
44.2466 -0.036
44.2769 0.529
44.3072 -0.208
44.3375 0.410
44.3678 0.247
44.3980 -0.019
44.4283 0.027
44.4586 0.126
44.4889 -0.192
44.5191 0.116
44.5494 -0.461
44.5797 0.161
44.6100 -0.468
44.6403 -0.121
44.6705 0.643
44.7008 -0.104
44.7311 0.452
44.7614 0.540
44.7917 0.368
44.8219 -0.064
44.8522 -0.183
44.8825 0.531
44.9128 -0.421
44.9430 0.347
44.9733 -0.292
45.0036 0.216
45.0339 0.099
45.0642 0.087
45.0944 -0.185
45.1247 0.429
45.1550 0.001
45.1853 0.251
45.2156 -0.227
45.2458 0.492
45.2761 -0.142
45.3064 0.058
45.3367 -0.315
45.3669 -0.219
45.3972 -0.122
45.4275 -0.806
45.4578 0.161
45.4881 -0.018
45.5183 -0.196
45.5486 -0.218
45.5789 0.542
45.6092 0.261
45.6395 -0.592
45.6697 0.117
45.7000 -0.788
45.7303 0.339
45.7606 0.789
45.7908 0.407
45.8211 -0.132
45.8514 0.059
45.8817 -0.062
45.9120 0.130
45.9422 -0.094
45.9725 -0.006
46.0028 0.136
46.0331 -0.296
46.0634 -0.310
46.0936 0.770
46.1239 -0.390
46.1542 -0.455
46.1845 0.574
46.2147 -0.323
46.2450 0.186
46.2753 -0.555
46.3056 0.528
46.3359 0.101
46.3661 -0.065
46.3964 0.237
46.4267 -0.241
46.4570 0.115
46.4873 0.055
46.5175 -0.057
46.5478 0.248
46.5781 0.032
46.6084 -0.027
46.6386 0.957
46.6689 0.899
46.6992 0.685
46.7295 1.045
46.7598 0.467
46.7900 0.932
46.8203 1.397
46.8506 1.289
46.8809 0.870
46.9112 1.649
46.9414 1.855
46.9717 2.478
47.0020 2.477
47.0323 3.518
47.0626 3.361
47.0928 5.236
47.1231 5.810
47.1534 6.592
47.1837 7.323
47.2139 9.043
47.2442 10.920
47.2745 11.704
47.3048 15.041
47.3351 16.034
47.3653 17.860
47.3956 17.708
47.4259 18.130
47.4562 19.125
47.4865 17.620
47.5167 17.626
47.5470 15.601
47.5773 13.629
47.6076 12.073
47.6378 11.664
47.6681 8.652
47.6984 8.504
47.7287 6.065
47.7590 4.824
47.7892 5.824
47.8195 4.792
47.8498 3.970
47.8801 2.835
47.9104 1.805
47.9406 1.973
47.9709 0.996
48.0012 1.113
48.0315 1.074
48.0617 1.088
48.0920 0.529
48.1223 1.741
48.1526 0.402
48.1829 0.730
48.2131 0.954
48.2434 1.126
48.2737 0.466
48.3040 0.274
48.3343 0.604
48.3645 0.570
48.3948 -0.089
48.4251 0.399
48.4554 0.939
48.4856 1.323
48.5159 0.301
48.5462 0.530
48.5765 -0.335
48.6068 0.155
48.6370 0.385
48.6673 -0.114
48.6976 0.221
48.7279 0.244
48.7582 -0.201
48.7884 -0.333
48.8187 -0.206
48.8490 -0.806
48.8793 0.237
48.9095 -0.178
48.9398 0.137
48.9701 -0.329
49.0004 -0.172
49.0307 0.038
49.0609 0.301
49.0912 0.407
49.1215 0.671
49.1518 -0.211
49.1821 0.157
49.2123 0.422
49.2426 -0.095
49.2729 0.588
49.3032 0.072
49.3334 -0.026
49.3637 0.084
49.3940 0.091
49.4243 -0.214
49.4546 -0.519
49.4848 0.947
49.5151 -0.086
49.5454 -0.754
49.5757 0.134
49.6060 0.033
49.6362 -0.172
49.6665 0.197
49.6968 -0.111
49.7271 -0.002
49.7574 0.055
49.7876 0.165
49.8179 0.015
49.8482 0.803
49.8785 -0.128
49.9087 0.400
49.9390 0.877
49.9693 0.364
49.9996 -0.460
50.0299 -0.087
50.0601 -0.337
50.0904 0.136
50.1207 0.610
50.1510 0.615
50.1813 -0.316
50.2115 0.003
50.2418 0.218
50.2721 0.381
50.3024 -0.028
50.3326 -0.072
50.3629 0.041
50.3932 0.415
50.4235 0.372
50.4538 0.694
50.4840 0.079
50.5143 0.090
50.5446 0.518
50.5749 0.529
50.6052 0.541
50.6354 -0.228
50.6657 0.306
50.6960 0.110
50.7263 0.124
50.7565 0.242
50.7868 -0.421
50.8171 0.011
50.8474 0.495
50.8777 0.094
50.9079 0.058
50.9382 -0.290
50.9685 -0.086
50.9988 0.483
51.0291 0.011
51.0593 0.686
51.0896 0.423
51.1199 -0.152
51.1502 -0.154
51.1804 -0.468
51.2107 0.195
51.2410 0.232
51.2713 0.843
51.3016 0.569
51.3318 0.660
51.3621 0.022
51.3924 0.896
51.4227 0.154
51.4530 0.351
51.4832 -0.024
51.5135 0.121
51.5438 0.528
51.5741 0.153
51.6043 0.144
51.6346 0.239
51.6649 -0.290
51.6952 0.431
51.7255 -0.150
51.7557 -0.105
51.7860 0.097
51.8163 0.299
51.8466 -0.124
51.8769 0.235
51.9071 0.594
51.9374 0.433
51.9677 0.481
51.9980 -0.096
52.0282 -0.255
52.0585 0.002
52.0888 0.624
52.1191 -0.159
52.1494 -0.004
52.1796 0.255
52.2099 -0.111
52.2402 -0.268
52.2705 0.722
52.3008 1.035
52.3310 0.046
52.3613 -0.005
52.3916 0.205
52.4219 -0.262
52.4521 0.470
52.4824 -0.152
52.5127 0.685
52.5430 0.011
52.5733 -0.349
52.6035 0.072
52.6338 -0.287
52.6641 0.239
52.6944 0.193
52.7247 -0.687
52.7549 0.258
52.7852 -0.308
52.8155 -0.308
52.8458 0.155
52.8761 -0.111
52.9063 -0.168
52.9366 -0.069
52.9669 0.448
52.9972 0.079
53.0274 0.441
53.0577 0.333
53.0880 0.383
53.1183 -0.192
53.1486 -0.038
53.1788 0.065
53.2091 -0.352
53.2394 0.793
53.2697 0.064
53.3000 -0.613
53.3302 0.065
53.3605 0.587
53.3908 -0.140
53.4211 0.227
53.4513 -0.083
53.4816 1.013
53.5119 0.079
53.5422 -0.177
53.5725 0.244
53.6027 0.405
53.6330 0.149
53.6633 0.155
53.6936 -0.308
53.7239 -0.204
53.7541 -0.308
53.7844 0.138
53.8147 -0.301
53.8450 -0.010
53.8752 0.124
53.9055 -0.001
53.9358 0.500
53.9661 -0.250
53.9964 0.251
54.0266 -0.237
54.0569 -0.047
54.0872 0.143
54.1175 -0.188
54.1478 -0.101
54.1780 0.090
54.2083 0.125
54.2386 0.057
54.2689 -0.064
54.2991 -0.027
54.3294 -0.042
54.3597 0.204
54.3900 -0.227
54.4203 0.228
54.4505 -0.150
54.4808 -0.059
54.5111 0.085
54.5414 -0.292
54.5717 0.686
54.6019 -0.680
54.6322 0.299
54.6625 0.549
54.6928 -0.294
54.7230 0.009
54.7533 0.416
54.7836 -0.009
54.8139 -0.642
54.8442 0.287
54.8744 0.592
54.9047 -0.144
54.9350 0.526
54.9653 -0.469
54.9956 0.306
55.0258 -0.168
55.0561 0.088
55.0864 -0.490
55.1167 0.287
55.1469 0.909
55.1772 0.489
55.2075 -0.660
55.2378 0.327
55.2681 0.013
55.2983 -0.353
55.3286 -0.059
55.3589 0.808
55.3892 0.009
55.4195 0.824
55.4497 0.755
55.4800 0.999
55.5103 0.462
55.5406 0.290
55.5709 0.327
55.6011 0.729
55.6314 1.443
55.6617 0.492
55.6920 0.895
55.7222 1.715
55.7525 2.900
55.7828 1.742
55.8131 2.095
55.8434 2.552
55.8736 2.905
55.9039 3.624
55.9342 2.884
55.9645 4.281
55.9948 4.271
56.0250 4.731
56.0553 4.983
56.0856 7.058
56.1159 5.071
56.1461 8.293
56.1764 10.005
56.2067 10.624
56.2370 11.920
56.2673 13.893
56.2975 14.930
56.3278 15.185
56.3581 18.983
56.3884 22.052
56.4187 23.090
56.4489 23.921
56.4792 24.960
56.5095 26.207
56.5398 24.383
56.5700 20.475
56.6003 20.630
56.6306 19.172
56.6609 17.869
56.6912 15.839
56.7214 11.933
56.7517 12.299
56.7820 10.998
56.8123 7.459
56.8426 8.555
56.8728 7.516
56.9031 6.634
56.9334 4.606
56.9637 5.496
56.9939 3.834
57.0242 3.474
57.0545 4.261
57.0848 2.861
57.1151 3.283
57.1453 1.519
57.1756 2.985
57.2059 1.013
57.2362 2.271
57.2665 1.134
57.2967 1.819
57.3270 1.308
57.3573 1.318
57.3876 0.390
57.4178 0.296
57.4481 0.672
57.4784 0.735
57.5087 0.539
57.5390 0.447
57.5692 -0.322
57.5995 0.108
57.6298 0.486
57.6601 0.396
57.6904 -0.632
57.7206 -0.096
57.7509 0.440
57.7812 0.664
57.8115 0.992
57.8417 0.071
57.8720 -0.068
57.9023 0.522
57.9326 0.227
57.9629 -0.536
57.9931 -0.049
58.0234 0.074
58.0537 0.510
58.0840 0.738
58.1143 0.186
58.1445 -0.054
58.1748 -0.345
58.2051 -0.552
58.2354 0.544
58.2656 1.327
58.2959 0.184
58.3262 -0.073
58.3565 -0.798
58.3868 0.456
58.4170 -0.425
58.4473 0.466
58.4776 -0.310
58.5079 -0.564
58.5382 0.588
58.5684 -0.395
58.5987 0.445
58.6290 -0.120
58.6593 -0.268
58.6896 0.261
58.7198 0.166
58.7501 0.123
58.7804 0.445
58.8107 -0.170
58.8409 0.622
58.8712 0.320
58.9015 -0.085
58.9318 -0.333
58.9621 0.084
58.9923 0.502
59.0226 -0.174
59.0529 -0.068
59.0832 0.195
59.1135 -0.531
59.1437 0.410
59.1740 -0.264
59.2043 -0.572
59.2346 0.314
59.2648 0.055
59.2951 0.004
59.3254 -0.255
59.3557 -0.044
59.3860 0.011
59.4162 0.014
59.4465 0.330
59.4768 -0.291
59.5071 -0.183
59.5374 0.343
59.5676 -0.225
59.5979 -0.011
59.6282 0.256
59.6585 0.523
59.6887 -0.616
59.7190 0.797
59.7493 0.076
59.7796 0.449
59.8099 -0.064
59.8401 -0.159
59.8704 0.424
59.9007 -0.192
59.9310 -0.390
59.9613 0.224
59.9915 -0.047
60.0218 0.151
60.0521 0.089
60.0824 0.079
60.1126 0.018
60.1429 0.270
60.1732 0.001
60.2035 0.098
60.2338 0.403
60.2640 0.292
60.2943 -0.288
60.3246 0.644
60.3549 -0.456
60.3852 0.060
60.4154 0.263
60.4457 0.311
60.4760 -0.422
60.5063 0.616
60.5365 -0.065
60.5668 -0.276
60.5971 -0.278
60.6274 0.397
60.6577 -0.073
60.6879 0.707
60.7182 0.394
60.7485 -0.283
60.7788 0.186
60.8091 -0.282
60.8393 -0.333
60.8696 -0.250
60.8999 0.303
60.9302 0.283
60.9604 0.212
60.9907 -0.536
61.0210 0.123
61.0513 0.626
61.0816 0.765
61.1118 0.591
61.1421 0.575
61.1724 0.194
61.2027 -0.187
61.2330 -0.306
61.2632 0.356
61.2935 0.029
61.3238 -0.037
61.3541 0.261
61.3844 0.352
61.4146 0.027
61.4449 0.119
61.4752 0.523
61.5055 0.512
61.5357 0.084
61.5660 -0.291
61.5963 0.115
61.6266 -0.624
61.6569 -0.069
61.6871 -0.451
61.7174 1.250
61.7477 0.296
61.7780 1.217
61.8083 0.316
61.8385 0.613
61.8688 0.390
61.8991 0.844
61.9294 0.673
61.9596 1.233
61.9899 1.323
62.0202 0.685
62.0505 1.819
62.0808 1.234
62.1110 1.274
62.1413 1.315
62.1716 1.825
62.2019 2.492
62.2322 2.274
62.2624 2.993
62.2927 4.130
62.3230 3.705
62.3533 5.155
62.3835 5.980
62.4138 7.119
62.4441 6.955
62.4744 8.303
62.5047 9.495
62.5349 12.666
62.5652 13.078
62.5955 14.479
62.6258 18.797
62.6561 18.377
62.6863 17.383
62.7166 20.349
62.7469 21.284
62.7772 20.917
62.8074 23.102
62.8377 21.018
62.8680 18.673
62.8983 16.276
62.9286 15.755
62.9588 13.776
62.9891 12.058
63.0194 11.434
63.0497 10.082
63.0800 8.365
63.1102 7.169
63.1405 5.818
63.1708 4.883
63.2011 4.470
63.2313 2.704
63.2616 2.864
63.2919 2.817
63.3222 2.770
63.3525 2.307
63.3827 1.167
63.4130 1.174
63.4433 2.327
63.4736 1.345
63.5039 0.936
63.5341 0.684
63.5644 0.849
63.5947 0.910
63.6250 1.076
63.6552 0.513
63.6855 0.627
63.7158 0.638
63.7461 0.805
63.7764 -0.121
63.8066 0.152
63.8369 0.633
63.8672 0.021
63.8975 0.034
63.9278 0.569
63.9580 0.687
63.9883 0.754
64.0186 -0.377
64.0489 0.368
64.0791 1.217
64.1094 -0.017
64.1397 -0.365
64.1700 0.065
64.2003 -0.077
64.2305 -0.271
64.2608 -0.361
64.2911 0.331
64.3214 -0.278
64.3517 0.050
64.3819 0.483
64.4122 -0.542
64.4425 -0.264
64.4728 -0.246
64.5031 0.084
64.5333 0.311
64.5636 -0.608
64.5939 0.453
64.6242 -0.204
64.6544 0.441
64.6847 -0.841
64.7150 0.482
64.7453 0.087
64.7756 -0.204
64.8058 -0.338
64.8361 0.069
64.8664 -0.097
64.8967 0.258
64.9270 0.666
64.9572 0.657
64.9875 -0.132
65.0178 0.069
65.0481 1.312
65.0783 0.107
65.1086 -0.160
65.1389 -0.166
65.1692 0.506
65.1995 0.084
65.2297 0.183
65.2600 -0.029
65.2903 -0.345
65.3206 -0.058
65.3509 -0.187
65.3811 0.310
65.4114 -0.287
65.4417 -0.310
65.4720 0.240
65.5022 0.321
65.5325 0.299
65.5628 0.434
65.5931 0.308
65.6234 0.079
65.6536 0.684
65.6839 0.768
65.7142 0.800
65.7445 0.312
65.7748 -0.227
65.8050 0.327
65.8353 -0.055
65.8656 0.292
65.8959 0.535
65.9261 0.935
65.9564 0.815
65.9867 0.851
66.0170 1.096
66.0473 0.977
66.0775 2.057
66.1078 2.459
66.1381 2.550
66.1684 1.911
66.1987 3.201
66.2289 3.032
66.2592 2.656
66.2895 1.811
66.3198 2.320
66.3500 3.039
66.3803 1.518
66.4106 2.133
66.4409 1.082
66.4712 1.802
66.5014 0.908
66.5317 0.796
66.5620 1.413
66.5923 1.719
66.6226 0.566
66.6528 0.091
66.6831 0.658
66.7134 -0.442
66.7437 -0.616
66.7739 1.242
66.8042 0.652
66.8345 0.010
66.8648 -0.214
66.8951 0.447
66.9253 1.005
66.9556 0.417
66.9859 0.142
67.0162 0.285
67.0465 -0.198
67.0767 0.883
67.1070 0.974
67.1373 0.597
67.1676 0.586
67.1978 1.772
67.2281 1.292
67.2584 1.021
67.2887 2.001
67.3190 2.303
67.3492 2.606
67.3795 2.441
67.4098 3.318
67.4401 4.300
67.4704 3.563
67.5006 4.649
67.5309 5.632
67.5612 5.053
67.5915 7.859
67.6218 8.635
67.6520 8.995
67.6823 9.459
67.7126 12.111
67.7429 12.992
67.7731 13.510
67.8034 16.059
67.8337 13.973
67.8640 12.877
67.8943 11.729
67.9245 11.311
67.9548 11.988
67.9851 12.196
68.0154 11.154
68.0457 10.425
68.0759 9.228
68.1062 7.250
68.1365 8.293
68.1668 8.295
68.1970 6.735
68.2273 5.384
68.2576 4.606
68.2879 6.121
68.3182 3.677
68.3484 3.838
68.3787 3.166
68.4090 4.629
68.4393 4.062
68.4696 3.027
68.4998 2.878
68.5301 2.416
68.5604 3.465
68.5907 2.952
68.6209 4.992
68.6512 3.022
68.6815 4.125
68.7118 3.301
68.7421 4.405
68.7723 4.936
68.8026 5.000
68.8329 5.375
68.8632 6.429
68.8935 5.191
68.9237 5.725
68.9540 6.102
68.9843 7.418
69.0146 6.859
69.0448 5.675
69.0751 6.055
69.1054 6.643
69.1357 4.054
69.1660 5.268
69.1962 4.556
69.2265 4.677
69.2568 3.079
69.2871 2.420
69.3174 3.532
69.3476 2.978
69.3779 1.590
69.4082 1.662
69.4385 1.630
69.4687 1.702
69.4990 2.087
69.5293 0.754
69.5596 0.203
69.5899 0.798
69.6201 0.195
69.6504 0.166
69.6807 0.085
69.7110 0.109
69.7413 0.758
69.7715 -0.051
69.8018 -0.026
69.8321 0.052
69.8624 -0.079
69.8926 0.156
69.9229 0.026
69.9532 -0.572
69.9835 0.029
70.0138 -0.151
70.0440 0.190
70.0743 0.063
70.1046 -0.896
70.1349 0.019
70.1652 -0.107
70.1954 -0.284
70.2257 -0.617
70.2560 0.404
70.2863 -0.761
70.3166 -0.208
70.3468 0.554
70.3771 -0.402
70.4074 0.466
70.4377 -0.125
70.4679 0.535
70.4982 -0.003
70.5285 0.033
70.5588 -0.192
70.5891 -0.259
70.6193 0.090
70.6496 0.075
70.6799 -0.304
70.7102 -0.144
70.7405 0.380
70.7707 -0.032
70.8010 0.493
70.8313 -0.283
70.8616 0.243
70.8918 0.718
70.9221 0.360
70.9524 0.314
70.9827 0.426
71.0130 0.069
71.0432 -0.236
71.0735 -0.228
71.1038 0.458
71.1341 0.155
71.1644 -0.200
71.1946 0.019
71.2249 0.290
71.2552 0.821
71.2855 -0.313
71.3157 0.115
71.3460 0.648
71.3763 0.348
71.4066 0.101
71.4369 0.479
71.4671 -0.184
71.4974 0.403
71.5277 0.053
71.5580 -0.140
71.5883 -0.280
71.6185 0.133
71.6488 0.547
71.6791 0.493
71.7094 0.439
71.7396 0.021
71.7699 0.281
71.8002 0.229
71.8305 0.489
71.8608 0.594
71.8910 0.542
71.9213 0.127
71.9516 -0.340
71.9819 0.391
72.0122 -0.388
72.0424 -0.280
72.0727 -0.495
72.1030 0.957
72.1333 -0.299
72.1635 0.217
72.1938 0.421
72.2241 0.677
72.2544 -0.004
72.2847 1.294
72.3149 1.291
72.3452 0.559
72.3755 0.765
72.4058 0.972
72.4361 1.075
72.4663 1.542
72.4966 1.438
72.5269 0.917
72.5572 1.438
72.5874 1.334
72.6177 0.971
72.6480 1.441
72.6783 0.506
72.7086 1.081
72.7388 1.136
72.7691 1.400
72.7994 0.310
72.8297 0.105
72.8600 0.422
72.8902 0.115
72.9205 0.328
72.9508 0.438
72.9811 0.393
73.0113 0.451
73.0416 -0.219
73.0719 -0.055
73.1022 0.161
73.1325 0.482
73.1627 0.439
73.1930 -0.125
73.2233 -0.063
73.2536 0.103
73.2839 0.426
73.3141 0.176
73.3444 -0.073
73.3747 0.043
73.4050 -0.257
73.4353 0.120
73.4655 0.445
73.4958 -0.010
73.5261 0.473
73.5564 0.070
73.5866 -0.071
73.6169 0.152
73.6472 -0.249
73.6775 -0.285
73.7078 0.281
73.7380 0.534
73.7683 -0.097
73.7986 0.157
73.8289 -0.109
73.8592 -0.009
73.8894 -0.014
73.9197 0.555
73.9500 0.603
73.9803 -0.338
74.0105 0.024
74.0408 -0.083
74.0711 -0.033
74.1014 0.486
74.1317 0.068
74.1619 -0.089
74.1922 0.067
74.2225 -0.037
74.2528 0.380
74.2831 0.641
74.3133 -0.139
74.3436 0.227
74.3739 0.073
74.4042 -0.133
74.4344 0.131
74.4647 -0.022
74.4950 -0.227
74.5253 0.090
74.5556 0.251
74.5858 -0.004
74.6161 -0.415
74.6464 0.054
74.6767 -0.049
74.7070 0.421
74.7372 0.162
74.7675 0.269
74.7978 0.115
74.8281 0.066
74.8583 -0.295
74.8886 0.021
74.9189 0.286
74.9492 -0.022
74.9795 -0.225
75.0097 0.197
75.0400 -0.005
75.0703 -0.363
75.1006 0.040
75.1309 0.080
75.1611 0.328
75.1914 0.264
75.2217 0.409
75.2520 0.242
75.2822 -0.081
75.3125 0.430
75.3428 -0.100
75.3731 -0.266
75.4034 0.086
75.4336 0.541
75.4639 -0.148
75.4942 0.100
75.5245 -0.432
75.5548 0.181
75.5850 0.483
75.6153 -0.048
75.6456 0.411
75.6759 0.349
75.7061 0.079
75.7364 0.279
75.7667 0.062
75.7970 0.315
75.8273 -0.057
75.8575 -0.272
75.8878 0.190
75.9181 -0.285
75.9484 -0.142
75.9787 0.523
76.0089 0.199
76.0392 0.032
76.0695 0.594
76.0998 -0.667
76.1301 0.313
76.1603 0.303
76.1906 -0.487
76.2209 0.441
76.2512 0.120
76.2814 0.425
76.3117 -0.051
76.3420 -0.215
76.3723 0.195
76.4026 0.189
76.4328 0.236
76.4631 0.386
76.4934 0.329
76.5237 0.637
76.5540 1.050
76.5842 0.734
76.6145 0.782
76.6448 0.467
76.6751 1.038
76.7053 0.931
76.7356 0.930
76.7659 1.606
76.7962 2.126
76.8265 1.709
76.8567 2.230
76.8870 1.241
76.9173 1.658
76.9476 1.243
76.9779 0.985
77.0081 1.612
77.0384 1.614
77.0687 0.472
77.0990 1.100
77.1292 0.531
77.1595 1.004
77.1898 1.269
77.2201 1.223
77.2504 0.291
77.2806 0.349
77.3109 0.720
77.3412 -0.159
77.3715 0.005
77.4018 0.325
77.4320 0.490
77.4623 0.550
77.4926 -0.066
77.5229 -0.056
77.5531 0.318
77.5834 0.328
77.6137 0.235
77.6440 0.506
77.6743 0.414
77.7045 0.322
77.7348 -0.031
77.7651 0.243
77.7954 0.360
77.8257 0.165
77.8559 0.023
77.8862 0.246
77.9165 -0.104
77.9468 0.485
77.9770 -0.072
78.0073 0.048
78.0376 -0.196
78.0679 0.186
78.0982 -0.266
78.1284 -0.164
78.1587 -0.426
78.1890 0.509
78.2193 0.143
78.2496 -0.014
78.2798 -0.066
78.3101 0.038
78.3404 -0.170
78.3707 -0.169
78.4009 0.353
78.4312 -0.218
78.4615 0.253
78.4918 0.255
78.5221 -0.263
78.5523 -0.884
78.5826 0.308
78.6129 -0.167
78.6432 0.141
78.6735 0.032
78.7037 -0.441
78.7340 0.021
78.7643 0.224
78.7946 0.010
78.8248 0.213
78.8551 1.147
78.8854 -0.108
78.9157 -0.163
78.9460 -0.271
78.9762 -0.223
79.0065 -0.123
79.0368 0.342
79.0671 -0.181
79.0974 -0.132
79.1276 0.126
79.1579 -0.501
79.1882 0.279
79.2185 -0.034
79.2488 -0.400
79.2790 0.538
79.3093 0.017
79.3396 -0.191
79.3699 0.123
79.4001 0.385
79.4304 0.022
79.4607 0.285
79.4910 -0.493
79.5213 -0.073
79.5515 -0.122
79.5818 0.143
79.6121 -0.269
79.6424 0.100
79.6727 -0.311
79.7029 -0.056
79.7332 0.459
79.7635 -0.483
79.7938 -0.018
79.8240 0.186
79.8543 0.027
79.8846 0.128
79.9149 0.021
79.9452 0.175
79.9754 -0.608
80.0057 0.068
80.0360 0.224
80.0663 -0.142
80.0966 0.015
80.1268 0.067
80.1571 -0.036
80.1874 0.330
80.2177 0.123
80.2479 0.021
80.2782 0.128
80.3085 -0.442
80.3388 0.030
80.3691 0.138
80.3993 0.194
80.4296 -0.009
80.4599 -0.109
80.4902 -0.155
80.5205 -0.149
80.5507 -0.143
80.5810 0.124
80.6113 -0.546
80.6416 -0.083
80.6718 -0.193
80.7021 -0.043
80.7324 0.577
80.7627 0.104
80.7930 0.412
80.8232 0.304
80.8535 0.457
80.8838 0.245
80.9141 -0.174
80.9444 0.605
80.9746 0.134
81.0049 0.602
81.0352 0.757
81.0655 -0.024
81.0957 0.496
81.1260 -0.024
81.1563 0.654
81.1866 0.759
81.2169 1.229
81.2471 0.867
81.2774 0.765
81.3077 0.820
81.3380 1.553
81.3683 0.515
81.3985 1.144
81.4288 1.044
81.4591 0.633
81.4894 0.638
81.5196 0.592
81.5499 0.859
81.5802 0.605
81.6105 0.612
81.6408 0.880
81.6710 0.002
81.7013 -0.197
81.7316 0.541
81.7619 0.081
81.7922 0.820
81.8224 0.882
81.8527 0.684
81.8830 0.122
81.9133 0.967
81.9436 -0.115
81.9738 -0.520
82.0041 0.147
82.0344 0.293
82.0647 -0.133
82.0949 0.066
82.1252 0.109
82.1555 0.257
82.1858 0.249
82.2161 0.450
82.2463 -0.338
82.2766 -0.189
82.3069 -0.091
82.3372 -0.253
82.3675 0.106
82.3977 0.258
82.4280 -0.111
82.4583 0.353
82.4886 0.245
82.5188 -0.383
82.5491 0.187
82.5794 -0.388
82.6097 -0.026
82.6400 0.025
82.6702 0.128
82.7005 -0.238
82.7308 -0.186
82.7611 -0.134
82.7914 0.492
82.8216 -0.393
82.8519 -0.235
82.8822 -0.337
82.9125 0.289
82.9427 -0.021
82.9730 -0.018
83.0033 0.141
83.0336 0.249
83.0639 -0.008
83.0941 -0.003
83.1244 -0.311
83.1547 0.057
83.1850 -0.251
83.2153 0.691
83.2455 -0.138
83.2758 0.076
83.3061 0.342
83.3364 -0.432
83.3666 0.095
83.3969 -0.367
83.4272 0.214
83.4575 0.170
83.4878 0.126
83.5180 -0.021
83.5483 0.092
83.5786 0.154
83.6089 0.164
83.6392 0.331
83.6694 0.654
83.6997 -0.012
83.7300 -0.104
83.7603 -0.144
83.7905 0.337
83.8208 -0.379
83.8511 0.103
83.8814 0.274
83.9117 -0.337
83.9419 -0.239
83.9722 -0.244
84.0025 0.057
84.0328 0.202
84.0631 0.296
84.0933 0.494
84.1236 -0.245
84.1539 0.736
84.1842 -0.263
84.2144 -0.115
84.2447 0.346
84.2750 -0.078
84.3053 0.123
84.3356 0.741
84.3658 0.058
84.3961 0.156
84.4264 0.046
84.4567 0.406
84.4870 0.089
84.5172 -0.124
84.5475 -0.075
84.5778 0.130
84.6081 0.387
84.6383 -0.032
84.6686 -0.086
84.6989 0.225
84.7292 0.119
84.7595 -0.350
84.7897 -0.038
84.8200 -0.246
84.8503 -0.142
84.8806 -0.349
84.9109 0.538
84.9411 -0.190
84.9714 0.490
85.0017 -0.029
85.0320 -0.130
85.0623 -0.022
85.0925 0.242
85.1228 0.350
85.1531 0.147
85.1834 0.152
85.2136 -0.363
85.2439 -0.105
85.2742 0.258
85.3045 0.101
85.3348 0.100
85.3650 0.256
85.3953 0.100
85.4256 -0.160
85.4559 0.258
85.4862 -0.418
85.5164 0.157
85.5467 0.159
85.5770 0.005
85.6073 -0.304
85.6375 0.533
85.6678 0.172
85.6981 -0.032
85.7284 0.181
85.7587 0.030
85.7889 -0.277
85.8192 0.198
85.8495 0.569
85.8798 0.003
85.9101 -0.250
85.9403 -0.049
85.9706 -0.004
86.0009 0.042
86.0312 0.140
86.0614 -0.283
86.0917 0.233
86.1220 0.020
86.1523 -0.037
86.1826 0.168
86.2128 0.164
86.2431 0.421
86.2734 -0.050
86.3037 0.052
86.3340 -0.680
86.3642 0.204
86.3945 0.203
86.4248 0.255
86.4551 -0.110
86.4853 0.307
86.5156 -0.005
86.5459 0.569
86.5762 -0.263
86.6065 0.364
86.6367 0.314
86.6670 -0.048
86.6973 0.268
86.7276 0.011
86.7579 -0.089
86.7881 -0.084
86.8184 0.285
86.8487 0.134
86.8790 0.088
86.9092 -0.010
86.9395 0.517
86.9698 -0.361
87.0001 -0.250
87.0304 0.363
87.0606 0.404
87.0909 0.549
87.1212 -0.608
87.1515 0.632
87.1818 0.257
87.2120 0.821
87.2423 -0.022
87.2726 0.282
87.3029 0.013
87.3331 0.422
87.3634 0.571
87.3937 0.304
87.4240 -0.224
87.4543 -0.073
87.4845 0.129
87.5148 0.384
87.5451 -0.141
87.5754 0.011
87.6057 -0.045
87.6359 -0.101
87.6662 0.104
87.6965 0.049
87.7268 -0.266
87.7571 -0.074
87.7873 -0.141
87.8176 -0.261
87.8479 0.089
87.8782 -0.186
87.9084 0.008
87.9387 -0.266
87.9690 -0.019
87.9993 0.385
88.0296 0.268
88.0598 0.308
88.0901 0.661
88.1204 0.441
88.1507 -0.351
88.1810 0.264
88.2112 0.306
88.2415 -0.172
88.2718 -0.285
88.3021 0.063
88.3323 0.255
88.3626 0.083
88.3929 -0.245
88.4232 0.157
88.4535 0.195
88.4837 0.285
88.5140 0.376
88.5443 -0.002
88.5746 0.142
88.6049 -0.183
88.6351 -0.039
88.6654 -0.154
88.6957 0.303
88.7260 0.605
88.7562 0.074
88.7865 -0.196
88.8168 0.159
88.8471 0.567
88.8774 0.194
88.9076 0.707
88.9379 0.647
88.9682 0.796
88.9985 1.154
89.0288 0.523
89.0590 1.559
89.0893 1.345
89.1196 1.027
89.1499 0.189
89.1801 1.435
89.2104 2.108
89.2407 1.740
89.2710 1.893
89.3013 1.943
89.3315 2.774
89.3618 2.616
89.3921 2.407
89.4224 2.718
89.4527 2.666
89.4829 2.666
89.5132 2.770
89.5435 3.553
89.5738 2.773
89.6040 2.931
89.6343 3.037
89.6646 2.831
89.6949 2.990
89.7252 2.889
89.7554 2.372
89.7857 1.752
89.8160 1.913
89.8463 1.501
89.8766 0.986
89.9068 1.252
89.9371 1.362
89.9674 1.473
89.9977 1.585
90.0279 0.551
90.0582 1.184
90.0885 0.619
90.1188 -0.309
90.1491 0.794
90.1793 0.491
90.2096 0.449
90.2399 0.355
90.2702 0.314
90.3005 0.482
90.3307 -0.131
90.3610 0.662
90.3913 0.571
90.4216 0.011
90.4518 0.129
90.4821 0.091
90.5124 0.522
90.5427 -0.349
90.5730 -0.229
90.6032 0.568
90.6335 0.323
90.6638 -0.389
90.6941 -0.283
90.7244 0.032
90.7546 0.452
90.7849 -0.170
90.8152 -0.062
90.8455 -0.162
90.8758 0.312
90.9060 0.317
90.9363 -0.251
90.9666 0.120
90.9969 -0.134
91.0271 0.810
91.0574 0.348
91.0877 -0.165
91.1180 -0.209
91.1483 0.216
91.1785 0.538
91.2088 0.026
91.2391 -0.120
91.2694 0.098
91.2997 0.057
91.3299 0.797
91.3602 -0.285
91.3905 -0.770
91.4208 0.568
91.4510 -0.072
91.4813 0.174
91.5116 -0.414
91.5419 0.041
91.5722 -0.598
91.6024 0.011
91.6327 0.465
91.6630 -0.071
91.6933 -0.190
91.7236 0.108
91.7538 -0.114
91.7841 -0.179
91.8144 -0.244
91.8447 0.369
91.8749 -0.581
91.9052 -0.280
91.9355 0.073
91.9658 -0.198
91.9961 -0.052
92.0263 0.042
92.0566 0.189
92.0869 -0.080
92.1172 -0.297
92.1475 0.371
92.1777 -0.001
92.2080 -0.060
92.2383 0.141
92.2686 0.239
92.2988 0.180
92.3291 0.695
92.3594 0.951
92.3897 0.529
92.4200 0.733
92.4502 0.521
92.4805 0.153
92.5108 0.410
92.5411 0.667
92.5714 0.457
92.6016 1.028
92.6319 0.922
92.6622 0.140
92.6925 0.139
92.7227 0.816
92.7530 0.712
92.7833 0.973
92.8136 0.558
92.8439 0.455
92.8741 0.665
92.9044 0.824
92.9347 0.775
92.9650 1.038
92.9953 0.625
93.0255 0.369
93.0558 0.738
93.0861 0.118
93.1164 0.279
93.1466 0.337
93.1769 0.760
93.2072 0.402
93.2375 -0.008
93.2678 0.573
93.2980 0.424
93.3283 -0.349
93.3586 -0.236
93.3889 0.138
93.4192 0.252
93.4494 -0.468
93.4797 -0.203
93.5100 0.218
93.5403 0.119
93.5706 -0.188
93.6008 0.131
93.6311 -0.071
93.6614 0.248
93.6917 0.776
93.7219 0.263
93.7522 0.271
93.7825 0.905
93.8128 -0.076
93.8431 0.350
93.8733 -0.213
93.9036 0.318
93.9339 -0.036
93.9642 -0.337
93.9945 0.063
94.0247 0.099
94.0550 -0.020
94.0853 0.121
94.1156 0.367
94.1458 -0.377
94.1761 0.078
94.2064 -0.143
94.2367 0.625
94.2670 0.300
94.2972 0.132
94.3275 0.380
94.3578 0.473
94.3881 0.150
94.4184 0.036
94.4486 0.546
94.4789 0.485
94.5092 -0.358
94.5395 0.832
94.5697 0.459
94.6000 0.086
94.6303 0.964
94.6606 0.593
94.6909 0.951
94.7211 1.153
94.7514 0.835
94.7817 0.517
94.8120 0.929
94.8423 2.331
94.8725 1.493
94.9028 1.958
94.9331 1.018
94.9634 1.275
94.9936 2.679
95.0239 2.053
95.0542 2.832
95.0845 2.206
95.1148 3.195
95.1450 2.935
95.1753 3.247
95.2056 2.623
95.2359 2.676
95.2662 1.792
95.2964 3.096
95.3267 1.432
95.3570 2.528
95.3873 2.011
95.4175 2.483
95.4478 1.966
95.4781 1.137
95.5084 2.340
95.5387 1.564
95.5689 1.518
95.5992 1.940
95.6295 1.530
95.6598 1.069
95.6901 2.066
95.7203 0.563
95.7506 0.936
95.7809 0.736
95.8112 1.162
95.8414 0.599
95.8717 0.244
95.9020 0.254
95.9323 0.213
95.9626 0.849
95.9928 0.600
96.0231 1.133
96.0534 0.677
96.0837 0.169
96.1140 0.807
96.1442 0.144
96.1745 0.523
96.2048 0.642
96.2351 0.084
96.2653 1.245
96.2956 -0.041
96.3259 -0.337
96.3562 0.082
96.3865 0.503
96.4167 0.402
96.4470 -0.635
96.4773 0.828
96.5076 -0.261
96.5379 -0.099
96.5681 -0.041
96.5984 0.226
96.6287 0.233
96.6590 -0.280
96.6893 -0.488
96.7195 0.347
96.7498 0.661
96.7801 0.194
96.8104 0.040
96.8406 -0.113
96.8709 0.047
96.9012 -0.262
96.9315 -0.622
96.9618 0.424
96.9920 -0.092
97.0223 0.487
97.0526 -0.028
97.0829 0.082
97.1132 -0.276
97.1434 -0.276
97.1737 0.186
97.2040 0.544
97.2343 0.173
97.2645 0.011
97.2948 -0.203
97.3251 0.261
97.3554 0.309
97.3857 0.096
97.4159 -0.116
97.4462 0.454
97.4765 -0.174
97.5068 -0.280
97.5371 -0.243
97.5673 0.107
97.5976 0.562
97.6279 -0.024
97.6582 0.275
97.6884 0.315
97.7187 -0.062
97.7490 -0.126
97.7793 -0.137
97.8096 0.113
97.8398 -0.054
97.8701 0.405
97.9004 0.187
97.9307 0.178
97.9610 -0.092
97.9912 0.369
98.0215 0.309
98.0518 0.041
98.0821 0.450
98.1123 0.548
98.1426 0.281
98.1729 1.109
98.2032 0.895
98.2335 1.359
98.2637 1.146
98.2940 0.569
98.3243 0.878
98.3546 1.396
98.3849 1.549
98.4151 1.599
98.4454 1.805
98.4757 1.439
98.5060 1.229
98.5362 1.281
98.5665 1.697
98.5968 1.228
98.6271 1.542
98.6574 1.230
98.6876 1.596
98.7179 2.275
98.7482 1.392
98.7785 0.040
98.8088 1.241
98.8390 0.776
98.8693 1.457
98.8996 0.420
98.9299 0.268
98.9601 0.846
98.9904 1.112
99.0207 0.546
99.0510 0.292
99.0813 -0.118
99.1115 0.254
99.1418 -0.520
99.1721 -0.203
99.2024 0.271
99.2327 0.016
99.2629 0.335
99.2932 -0.336
99.3235 0.192
99.3538 0.251
99.3841 0.155
99.4143 0.163
99.4446 -0.141
99.4749 -0.237
99.5052 0.398
99.5354 -0.322
99.5657 -0.103
99.5960 -0.197
99.6263 -0.082
99.6566 -0.018
99.6868 0.306
99.7171 0.214
99.7474 0.019
99.7777 -0.280
99.8080 -0.114
99.8382 -0.259
99.8685 0.169
99.8988 -0.027
99.9291 -0.276
99.9593 -0.385
99.9896 0.496
100.0199 0.284
100.0502 0.124
100.0805 0.017
100.1107 0.327
100.1410 0.585
100.1713 0.010
100.2016 -0.044
100.2319 -0.045
100.2621 0.059
100.2924 0.059
100.3227 0.319
100.3530 0.216
100.3832 -0.044
100.4135 0.218
100.4438 0.012
100.4741 -0.507
100.5044 0.069
100.5346 0.072
100.5649 0.128
100.5952 -0.129
100.6255 0.084
100.6558 -0.276
100.6860 -0.168
100.7163 -0.269
100.7466 -0.057
100.7769 0.052
100.8071 -0.048
100.8374 0.166
100.8677 -0.141
100.8980 0.125
100.9283 -0.285
100.9585 -0.076
100.9888 0.291
101.0191 0.033
101.0494 0.087
101.0797 -0.222
101.1099 -0.271
101.1402 -0.218
101.1705 0.200
101.2008 -0.371
101.2310 0.464
101.2613 -0.262
101.2916 -0.103
101.3219 1.150
101.3522 0.060
101.3824 0.586
101.4127 0.278
101.4430 0.231
101.4733 0.497
101.5036 -0.227
101.5338 -0.012
101.5641 -0.266
101.5944 -0.136
101.6247 0.358
101.6549 -0.345
101.6852 0.150
101.7155 0.020
101.7458 -0.057
101.7761 0.492
101.8063 -0.053
101.8366 0.027
101.8669 0.265
101.8972 -0.279
101.9275 -0.041
101.9577 -0.115
101.9880 0.436
102.0183 0.155
102.0486 0.186
102.0788 0.010
102.1091 0.459
102.1394 0.387
102.1697 0.577
102.2000 -0.223
102.2302 -0.241
102.2605 -0.259
102.2908 0.036
102.3211 0.280
102.3514 0.524
102.3816 -0.013
102.4119 1.117
102.4422 -0.200
102.4725 0.410
102.5028 0.187
102.5330 0.226
102.5633 0.056
102.5936 0.251
102.6239 0.499
102.6541 0.122
102.6844 0.162
102.7147 0.516
102.7450 0.140
102.7753 1.223
102.8055 -0.141
102.8358 1.047
102.8661 0.569
102.8964 0.665
102.9267 0.656
102.9569 -0.029
102.9872 0.953
103.0175 0.946
103.0478 0.887
103.0780 0.048
103.1083 0.615
103.1386 0.661
103.1689 -0.281
103.1992 0.235
103.2294 0.283
103.2597 -0.033
103.2900 0.745
103.3203 0.273
103.3506 0.479
103.3808 -0.148
103.4111 0.840
103.4414 0.474
103.4717 0.265
103.5019 1.150
103.5322 0.890
103.5625 0.265
103.5928 0.058
103.6231 0.944
103.6533 0.530
103.6836 0.375
103.7139 0.430
103.7442 0.589
103.7745 0.593
103.8047 1.274
103.8350 1.539
103.8653 1.647
103.8956 1.705
103.9258 1.866
103.9561 2.393
103.9864 2.348
104.0167 2.563
104.0470 2.101
104.0772 2.057
104.1075 1.336
104.1378 1.657
104.1681 2.291
104.1984 1.519
104.2286 1.112
104.2589 1.904
104.2892 1.966
104.3195 1.352
104.3497 1.624
104.3800 1.167
104.4103 2.013
104.4406 1.140
104.4709 1.206
104.5011 1.532
104.5314 -0.069
104.5617 0.310
104.5920 1.159
104.6223 0.445
104.6525 0.565
104.6828 0.529
104.7131 0.545
104.7434 0.406
104.7736 0.007
104.8039 0.285
104.8342 0.720
104.8645 0.426
104.8948 0.029
104.9250 -0.056
104.9553 0.120
104.9856 0.036
105.0159 -0.203
105.0462 0.078
105.0764 -0.473
105.1067 0.226
105.1370 0.665
105.1673 -0.145
105.1975 -0.070
105.2278 0.527
105.2581 0.603
105.2884 0.159
105.3187 0.028
105.3489 -0.051
105.3792 -0.285
105.4095 0.087
105.4398 0.720
105.4701 -0.053
105.5003 0.320
105.5306 0.693
105.5609 0.130
105.5912 0.036
105.6215 -0.006
105.6517 0.838
105.6820 -0.036
105.7123 0.028
105.7426 -0.065
105.7728 -0.260
105.8031 -0.210
105.8334 0.101
105.8637 0.152
105.8940 0.099
105.9242 -0.214
105.9545 0.255
105.9848 -0.109
106.0151 0.204
106.0454 0.726
106.0756 -0.001
106.1059 0.314
106.1362 0.004
106.1665 0.528
106.1967 0.167
106.2270 0.223
106.2573 0.592
106.2876 -0.081
106.3179 0.133
106.3481 0.503
106.3784 -0.064
106.4087 0.307
106.4390 0.106
106.4693 0.322
106.4995 0.642
106.5298 0.285
106.5601 0.034
106.5904 -0.166
106.6206 0.000
106.6509 0.114
106.6812 0.906
106.7115 0.708
106.7418 0.250
106.7720 -0.363
106.8023 -0.224
106.8326 0.592
106.8629 0.263
106.8932 0.195
106.9234 -0.080
106.9537 0.269
106.9840 0.463
107.0143 0.136
107.0445 0.278
107.0748 0.161
107.1051 -0.165
107.1354 -0.021
107.1657 0.019
107.1959 -0.357
107.2262 0.152
107.2565 0.818
107.2868 0.443
107.3171 1.267
107.3473 0.528
107.3776 0.571
107.4079 0.406
107.4382 -0.176
107.4684 0.129
107.4987 0.069
107.5290 0.167
107.5593 -0.517
107.5896 0.362
107.6198 -0.165
107.6501 0.038
107.6804 -0.071
107.7107 -0.075
107.7410 0.181
107.7712 -0.239
107.8015 0.018
107.8318 0.536
107.8621 0.169
107.8923 0.479
107.9226 0.113
107.9529 0.060
107.9832 0.424
108.0135 -0.201
108.0437 -0.201
108.0740 -0.097
108.1043 0.894
108.1346 -0.355
108.1649 0.168
108.1951 0.431
108.2254 -0.087
108.2557 0.176
108.2860 0.075
108.3163 -0.025
108.3465 0.292
108.3768 0.036
108.4071 0.302
108.4374 -0.161
108.4676 -0.780
108.4979 0.210
108.5282 -0.049
108.5585 0.056
108.5888 -0.463
108.6190 0.425
108.6493 0.167
108.6796 0.118
108.7099 -0.138
108.7402 0.126
108.7704 -0.182
108.8007 0.343
108.8310 0.036
108.8613 -0.271
108.8915 -0.111
108.9218 0.205
108.9521 -0.520
108.9824 -0.158
109.0127 0.152
109.0429 0.151
109.0732 0.305
109.1035 0.356
109.1338 0.408
109.1641 0.199
109.1943 0.408
109.2246 0.460
109.2549 0.045
109.2852 -0.110
109.3154 -0.212
109.3457 0.207
109.3760 -0.311
109.4063 -0.172
109.4366 0.125
109.4668 0.005
109.4971 0.094
109.5274 0.599
109.5577 0.533
109.5880 0.310
109.6182 0.557
109.6485 0.127
109.6788 0.271
109.7091 0.935
109.7393 0.819
109.7696 0.547
109.7999 0.120
109.8302 0.942
109.8605 0.203
109.8907 1.026
109.9210 0.392
109.9513 1.841
109.9816 0.270
110.0119 0.314
110.0421 0.202
110.0724 1.445
110.1027 1.021
110.1330 0.234
110.1632 0.384
110.1935 0.743
110.2238 0.321
110.2541 1.202
110.2844 0.833
110.3146 0.516
110.3449 0.513
110.3752 0.197
110.4055 0.403
110.4358 0.192
110.4660 1.857
110.4963 0.345
110.5266 0.449
110.5569 0.344
110.5871 1.021
110.6174 0.500
110.6477 0.189
110.6780 0.242
110.7083 0.087
110.7385 0.089
110.7688 0.352
110.7991 0.407
110.8294 -0.215
110.8597 0.414
110.8899 0.574
110.9202 0.266
110.9505 0.428
110.9808 0.589
111.0110 0.647
111.0413 0.080
111.0716 -0.330
111.1019 0.250
111.1322 -0.211
111.1624 -0.255
111.1927 -0.195
111.2230 -0.290
111.2533 0.188
111.2836 0.146
111.3138 0.053
111.3441 0.116
111.3744 -0.185
111.4047 0.139
111.4350 -0.005
111.4652 -0.044
111.4955 0.490
111.5258 -0.018
111.5561 0.100
111.5863 0.271
111.6166 -0.183
111.6469 0.561
111.6772 -0.048
111.7075 0.072
111.7377 -0.016
111.7680 -0.363
111.7983 0.054
111.8286 0.420
111.8589 0.005
111.8891 0.267
111.9194 0.009
111.9497 0.428
111.9800 0.015
112.0102 -0.190
112.0405 0.023
112.0708 -0.494
112.1011 0.030
112.1314 0.189
112.1616 -0.172
112.1919 0.093
112.2222 -0.371
112.2525 0.727
112.2828 0.732
112.3130 0.061
112.3433 0.588
112.3736 -0.239
112.4039 0.393
112.4341 0.661
112.4644 -0.164
112.4947 -0.260
112.5250 0.090
112.5553 0.337
112.5855 0.741
112.6158 -0.001
112.6461 0.299
112.6764 0.235
112.7067 -0.141
112.7369 0.369
112.7672 -0.215
112.7975 0.712
112.8278 0.286
112.8580 0.016
112.8883 0.216
112.9186 -0.105
112.9489 0.460
112.9792 -0.590
113.0094 0.184
113.0397 -0.708
113.0700 0.432
113.1003 -0.147
113.1306 0.472
113.1608 -0.054
113.1911 -0.006
113.2214 -0.063
113.2517 -0.067
113.2819 0.243
113.3122 0.031
113.3425 0.445
113.3728 -0.130
113.4031 -0.184
113.4333 0.232
113.4636 -0.290
113.4939 -0.030
113.5242 -0.082
113.5545 -0.030
113.5847 -0.497
113.6150 0.389
113.6453 0.495
113.6756 -0.180
113.7058 -0.125
113.7361 0.190
113.7664 -0.119
113.7967 0.145
113.8270 -0.059
113.8572 -0.054
113.8875 0.524
113.9178 0.321
113.9481 -0.090
113.9784 -0.240
114.0086 -0.441
114.0389 0.290
114.0692 0.136
114.0995 -0.330
114.1298 0.090
114.1600 0.458
114.1903 -0.527
114.2206 0.519
114.2509 -0.362
114.2811 0.008
114.3114 0.431
114.3417 0.333
114.3720 0.027
114.4023 -0.175
114.4325 0.406
114.4628 0.153
114.4931 0.214
114.5234 0.587
114.5537 0.023
114.5839 0.189
114.6142 0.303
114.6445 -0.520
114.6748 -0.266
114.7050 0.389
114.7353 0.210
114.7656 0.449
114.7959 -0.406
114.8262 0.823
114.8564 0.803
114.8867 0.991
114.9170 0.711
114.9473 0.431
114.9776 0.047
115.0078 0.550
115.0381 0.480
115.0684 0.618
115.0987 -0.076
115.1289 0.845
115.1592 -0.213
115.1895 0.083
115.2198 -0.088
115.2501 -0.312
115.2803 0.351
115.3106 0.076
115.3409 0.062
115.3712 0.674
115.4015 0.921
115.4317 1.169
115.4620 0.740
115.4923 0.989
115.5226 0.301
115.5528 0.759
115.5831 0.644
115.6134 1.259
115.6437 0.260
115.6740 1.501
115.7042 0.919
115.7345 0.442
115.7648 1.528
115.7951 1.885
115.8254 1.878
115.8556 0.986
115.8859 1.969
115.9162 1.599
115.9465 2.219
115.9767 2.318
116.0070 2.105
116.0373 0.903
116.0676 2.514
116.0979 2.303
116.1281 2.248
116.1584 3.027
116.1887 3.545
116.2190 1.825
116.2493 3.022
116.2795 2.396
116.3098 1.042
116.3401 1.302
116.3704 2.605
116.4006 2.085
116.4309 2.087
116.4612 1.984
116.4915 1.622
116.5218 2.406
116.5520 1.836
116.5823 2.100
116.6126 1.479
116.6429 1.536
116.6732 1.593
116.7034 1.702
116.7337 1.395
116.7640 1.610
116.7943 0.887
116.8245 1.258
116.8548 0.901
116.8851 0.701
116.9154 1.698
116.9457 0.874
116.9759 1.039
117.0062 0.944
117.0365 1.215
117.0668 0.183
117.0971 0.402
117.1273 0.778
117.1576 0.633
117.1879 0.489
117.2182 0.189
117.2485 0.306
117.2787 0.215
117.3090 0.333
117.3393 0.087
117.3696 0.466
117.3998 0.012
117.4301 0.132
117.4604 0.148
117.4907 0.112
117.5210 0.389
117.5512 -0.167
117.5815 0.476
117.6118 0.181
117.6421 0.304
117.6724 0.218
117.7026 0.133
117.7329 0.465
117.7632 0.850
117.7935 -0.015
117.8237 0.110
117.8540 -0.285
117.8843 -0.090
117.9146 0.261
117.9449 -0.064
117.9751 0.027
118.0054 0.172
118.0357 0.577
118.0660 0.253
118.0963 0.191
118.1265 0.233
118.1568 0.119
118.1871 0.213
118.2174 -0.004
118.2476 -0.117
118.2779 -0.020
118.3082 -0.341
118.3385 0.277
118.3688 0.843
118.3990 0.108
118.4293 -0.211
118.4596 0.044
118.4899 0.143
118.5202 -0.070
118.5504 -0.126
118.5807 0.026
118.6110 -0.290
118.6413 -0.188
118.6715 0.227
118.7018 0.226
118.7321 0.121
118.7624 -0.192
118.7927 -0.035
118.8229 0.122
118.8532 0.175
118.8835 0.436
118.9138 -0.603
118.9441 0.024
118.9743 0.131
119.0046 0.290
119.0349 0.085
119.0652 0.141
119.0954 -0.532
119.1257 0.046
119.1560 0.468
119.1863 0.421
119.2166 -0.354
119.2468 0.226
119.2771 0.389
119.3074 -0.125
119.3377 -0.221
119.3680 -0.213
119.3982 -0.257
119.4285 -0.248
119.4588 0.283
119.4891 -0.280
119.5193 -0.280
119.5496 -0.196
119.5799 0.253
119.6102 0.286
119.6405 0.267
119.6707 -0.220
119.7010 -0.290
119.7313 -0.167
119.7616 0.112
119.7919 -0.442
119.8221 -0.030
119.8524 -0.712
119.8827 0.273
119.9130 -0.095
119.9433 -0.671
119.9735 0.680
120.0038 0.000
