'Id: "" Comment: "" Operator: "Lab Manager" Anode: "Cu" Scantype: "Locked Coupled" TimePerStep: "19.2" X: "9999" Y: "9999" Z: "9999" 
10.0015 0.000
10.0318 -0.733
10.0620 1.034
10.0923 0.353
10.1226 0.037
10.1529 0.607
10.1832 0.292
10.2134 0.237
10.2437 -0.911
10.2740 -0.230
10.3043 0.400
10.3346 -0.013
10.3648 0.982
10.3951 0.414
10.4254 0.471
10.4557 0.841
10.4859 0.378
10.5162 0.020
10.5465 -0.234
10.5768 0.866
10.6071 0.769
10.6373 0.047
10.6676 1.043
10.6979 -0.199
10.7282 1.111
10.7585 -0.444
10.7887 -0.071
10.8190 0.094
10.8493 0.259
10.8796 -0.044
10.9098 -0.035
10.9401 -0.754
10.9704 0.083
11.0007 0.920
11.0310 1.758
11.0612 0.669
11.0915 0.986
11.1218 1.043
11.1521 0.319
11.1824 0.533
11.2126 0.643
11.2429 -0.080
11.2732 -0.230
11.3035 -0.119
11.3337 0.774
11.3640 -0.001
11.3943 0.111
11.4246 0.379
11.4549 0.022
11.4851 -0.282
11.5154 -0.117
11.5457 0.256
11.5760 -0.568
11.6063 0.691
11.6365 0.127
11.6668 0.293
11.6971 0.355
11.7274 -0.520
11.7577 -0.307
11.7879 0.063
11.8182 0.173
11.8485 0.022
11.8788 0.862
11.9090 0.503
11.9393 0.145
11.9696 0.100
11.9999 0.055
12.0302 0.010
12.0604 -0.191
12.0907 -0.027
12.1210 -0.488
12.1513 0.875
12.1816 0.831
12.2118 0.319
12.2421 0.589
12.2724 0.077
12.3027 0.660
12.3329 -0.685
12.3632 0.315
12.3935 0.065
12.4238 -0.393
12.4541 -0.345
12.4843 -0.140
12.5146 -0.091
12.5449 0.323
12.5752 0.164
12.6055 -0.099
12.6357 -0.570
12.6660 1.043
12.6963 -0.001
12.7266 -0.367
12.7568 0.257
12.7871 0.256
12.8174 0.881
12.8477 0.464
12.8780 -0.109
12.9082 0.151
12.9385 -0.630
12.9688 0.204
12.9991 0.205
13.0294 0.571
13.0596 0.051
13.0899 -0.780
13.1202 0.001
13.1505 0.730
13.1807 -1.248
13.2110 0.888
13.2413 -0.309
13.2716 -0.152
13.3019 -0.150
13.3321 0.112
13.3624 -0.407
13.3927 0.168
13.4230 0.275
13.4533 0.122
13.4835 -0.240
13.5138 0.024
13.5441 -0.442
13.5744 0.291
13.6046 0.035
13.6349 0.091
13.6652 -0.060
13.6955 0.257
13.7258 -0.727
13.7560 0.007
13.7863 1.106
13.8166 0.175
13.8469 -0.652
13.8772 0.031
13.9074 -0.796
13.9377 0.461
13.9680 -0.105
13.9983 0.111
14.0285 0.223
14.0588 -0.082
14.0891 -0.386
14.1194 0.035
14.1497 0.091
14.1799 -0.425
14.2102 0.100
14.2405 -0.467
14.2708 0.840
14.3011 -0.456
14.3313 0.070
14.3616 -0.028
14.3919 0.239
14.4222 1.131
14.4524 0.565
14.4827 0.156
14.5130 -0.410
14.5433 0.223
14.5736 -0.811
14.6038 -0.073
14.6341 0.091
14.6644 0.673
14.6947 0.682
14.7250 0.378
14.7552 0.492
14.7855 1.023
14.8158 0.564
14.8461 0.574
14.8764 -0.093
14.9066 0.074
14.9369 -0.279
14.9672 0.670
14.9975 0.160
15.0277 -0.505
15.0580 0.496
15.0883 0.925
15.1186 0.000
15.1489 -0.091
15.1791 0.599
15.2094 -0.013
15.2397 -0.624
15.2700 0.048
15.3003 -0.425
15.3305 0.769
15.3608 -0.225
15.3911 0.761
15.4214 0.549
15.4516 0.129
15.4819 -0.186
15.5122 0.801
15.5425 0.173
15.5728 0.484
15.6030 0.430
15.6333 0.115
15.6636 0.427
15.6939 -1.033
15.7242 0.216
15.7544 -0.253
15.7847 -0.254
15.8150 -0.150
15.8453 0.736
15.8755 0.320
15.9058 -0.305
15.9361 -0.773
15.9664 0.374
15.9967 0.532
16.0269 -0.456
16.0572 0.327
16.0875 -0.244
16.1178 -0.033
16.1481 0.178
16.1783 0.702
16.2086 0.184
16.2389 0.083
16.2692 0.764
16.2994 -0.170
16.3297 0.199
16.3600 0.256
16.3903 -0.365
16.4206 -0.267
16.4508 -0.534
16.4811 0.657
16.5114 0.026
16.5417 0.020
16.5720 0.431
16.6022 0.270
16.6325 -0.100
16.6628 0.364
16.6931 -0.213
16.7233 -0.009
16.7536 0.299
16.7839 0.504
16.8142 0.552
16.8445 0.132
16.8747 0.233
16.9050 -0.030
16.9353 1.009
16.9656 0.538
16.9959 0.328
17.0261 0.586
17.0564 0.533
17.0867 0.167
17.1170 -0.251
17.1472 0.113
17.1775 -0.044
17.2078 -0.096
17.2381 -0.721
17.2684 0.321
17.2986 -0.720
17.3289 -0.250
17.3592 -0.041
17.3895 -0.248
17.4198 -0.611
17.4500 0.484
17.4803 -0.607
17.5106 0.385
17.5409 -0.707
17.5712 -0.131
17.6014 0.497
17.6317 0.136
17.6620 0.817
17.6923 -0.377
17.7225 -0.321
17.7528 -0.213
17.7831 0.417
17.8134 0.005
17.8437 0.323
17.8739 -0.037
17.9042 0.229
17.9345 -0.546
17.9648 -0.182
17.9951 0.338
18.0253 0.025
18.0556 0.025
18.0859 -0.391
18.1162 0.286
18.1464 0.391
18.1767 0.705
18.2070 -0.232
18.2373 0.447
18.2676 -0.072
18.2978 -0.487
18.3281 0.661
18.3584 0.508
18.3887 -0.323
18.4190 0.878
18.4492 0.465
18.4795 0.104
18.5098 0.003
18.5401 0.372
18.5703 1.314
18.6006 -0.088
18.6309 -0.188
18.6612 0.286
18.6915 0.396
18.7217 -0.953
18.7520 0.407
18.7823 -0.056
18.8126 0.211
18.8429 -0.459
18.8731 0.641
18.9034 0.805
18.9337 -0.386
18.9640 0.142
18.9942 0.254
19.0245 0.263
19.0548 0.115
19.0851 -0.450
19.1154 0.393
19.1456 0.037
19.1759 -0.266
19.2062 -0.152
19.2365 -0.038
19.2668 -0.080
19.2970 -0.330
19.3273 1.191
19.3576 -0.100
19.3879 -0.349
19.4181 -0.345
19.4484 -0.027
19.4787 0.499
19.5090 0.140
19.5393 0.146
19.5695 0.569
19.5998 -0.050
19.6301 0.478
19.6604 0.745
19.6907 -0.289
19.7209 0.603
19.7512 0.559
19.7815 0.150
19.8118 0.627
19.8420 0.219
19.8723 0.748
19.9026 -0.232
19.9329 -0.223
19.9632 1.036
19.9934 -0.100
20.0237 0.327
20.0540 0.493
20.0843 0.556
20.1146 1.192
20.1448 0.786
20.1751 0.901
20.2054 0.340
20.2357 -0.586
20.2659 0.416
20.2962 0.063
20.3265 0.440
20.3568 -0.016
20.3871 0.987
20.4173 0.948
20.4476 0.910
20.4779 0.455
20.5082 1.146
20.5385 1.473
20.5687 -0.075
20.5990 -0.321
20.6293 -0.118
20.6596 0.710
20.6899 -0.233
20.7201 -0.185
20.7504 -0.502
20.7807 0.639
20.8110 0.323
20.8412 0.371
20.8715 0.367
20.9018 0.156
20.9321 0.778
20.9624 0.202
20.9926 0.408
21.0229 0.406
21.0532 -0.325
21.0835 0.662
21.1138 0.973
21.1440 1.024
21.1743 0.346
21.2046 0.398
21.2349 -0.019
21.2651 0.137
21.2954 0.085
21.3257 0.450
21.3560 0.763
21.3863 0.972
21.4165 0.608
21.4468 0.037
21.4771 0.507
21.5074 0.248
21.5377 -0.166
21.5679 0.045
21.5982 -0.317
21.6285 -0.210
21.6588 -0.364
21.6890 0.251
21.7193 0.031
21.7496 -0.500
21.7799 0.636
21.8102 0.157
21.8404 0.147
21.8707 0.034
21.9010 0.441
21.9313 0.380
21.9616 -0.305
21.9918 0.155
22.0221 0.043
22.0524 -0.174
22.0827 0.444
22.1129 0.957
22.1432 1.054
22.1735 0.318
22.2038 -0.001
22.2341 -0.164
22.2643 0.403
22.2946 -0.175
22.3249 0.079
22.3552 0.282
22.3855 0.121
22.4157 0.481
22.4460 -0.253
22.4763 -0.153
22.5066 0.416
22.5368 0.047
22.5671 -0.425
22.5974 0.040
22.6277 -0.327
22.6580 -0.226
22.6882 0.032
22.7185 0.342
22.7488 -0.545
22.7791 0.234
22.8094 -0.184
22.8396 -0.342
22.8699 -0.136
22.9002 0.746
22.9305 -0.298
22.9607 -0.092
22.9910 0.271
23.0213 0.165
23.0516 0.997
23.0819 0.266
23.1121 0.317
23.1424 -0.412
23.1727 -0.205
23.2030 0.837
23.2333 0.160
23.2635 -0.100
23.2938 -0.204
23.3241 0.526
23.3544 -0.046
23.3846 0.737
23.4149 -0.512
23.4452 0.323
23.4755 -0.143
23.5058 0.328
23.5360 0.070
23.5663 -0.084
23.5966 -0.185
23.6269 -0.390
23.6572 0.237
23.6874 -0.437
23.7177 0.399
23.7480 0.453
23.7783 -0.064
23.8086 -0.113
23.8388 -0.057
23.8691 -0.262
23.8994 0.003
23.9297 0.840
23.9599 0.064
23.9902 0.381
24.0205 -0.030
24.0508 -0.338
24.0811 -0.233
24.1113 -0.024
24.1416 0.029
24.1719 0.290
24.2022 0.344
24.2325 -0.749
24.2627 0.451
24.2930 0.193
24.3233 -0.169
24.3536 -0.115
24.3838 -0.060
24.4141 0.620
24.4444 0.624
24.4747 0.211
24.5050 0.579
24.5352 0.375
24.5655 -0.194
24.5958 -0.033
24.6261 0.493
24.6564 -0.335
24.6866 0.139
24.7169 0.093
24.7472 -0.370
24.7775 0.157
24.8077 0.267
24.8380 0.118
24.8683 -0.084
24.8986 0.080
24.9289 -0.329
24.9591 -0.281
24.9894 0.342
25.0197 0.287
25.0500 0.336
25.0803 0.438
25.1105 0.176
25.1408 -0.034
25.1711 0.277
25.2014 -0.401
25.2316 0.379
25.2619 0.431
25.2922 -0.247
25.3225 0.743
25.3528 0.430
25.3830 0.952
25.4133 0.536
25.4436 -0.088
25.4739 -0.035
25.5042 0.487
25.5344 0.593
25.5647 -0.291
25.5950 -0.080
25.6253 0.339
25.6555 -0.127
25.6858 0.397
25.7161 -0.329
25.7464 -0.443
25.7767 0.642
25.8069 0.841
25.8372 0.468
25.8675 0.668
25.8978 -0.277
25.9281 0.705
25.9583 1.218
25.9886 0.013
26.0189 -0.619
26.0492 0.572
26.0794 0.514
26.1097 0.091
26.1400 0.033
26.1703 -0.181
26.2006 0.074
26.2308 -0.192
26.2611 0.689
26.2914 0.371
26.3217 0.523
26.3520 0.207
26.3822 -0.006
26.4125 0.147
26.4428 0.977
26.4731 0.245
26.5034 0.762
26.5336 0.083
26.5639 -0.076
26.5942 -0.599
26.6245 0.181
26.6547 -0.707
26.6850 0.334
26.7153 0.489
26.7456 -0.293
26.7759 -0.190
26.8061 0.695
26.8364 0.227
26.8667 0.748
26.8970 -0.346
26.9273 0.436
26.9575 0.802
26.9878 -0.083
27.0181 -0.342
27.0484 0.057
27.0786 0.300
27.1089 -0.291
27.1392 0.630
27.1695 0.040
27.1998 0.075
27.2300 0.423
27.2603 0.146
27.2906 -0.286
27.3209 0.115
27.3512 0.203
27.3814 0.240
27.4117 0.694
27.4420 0.211
27.4723 -0.377
27.5025 0.807
27.5328 0.585
27.5631 -0.002
27.5934 0.297
27.6237 0.753
27.6539 -0.458
27.6842 0.311
27.7145 0.194
27.7448 -0.026
27.7751 0.066
27.8053 -0.258
27.8356 0.199
27.8659 0.136
27.8962 0.229
27.9264 0.010
27.9567 0.260
27.9870 -0.427
28.0173 0.605
28.0476 0.283
28.0778 1.211
28.1081 0.056
28.1384 0.047
28.1687 0.507
28.1990 0.447
28.2292 -0.030
28.2595 -0.090
28.2898 1.048
28.3201 0.208
28.3503 -0.216
28.3806 -0.379
28.4109 0.228
28.4412 0.835
28.4715 0.401
28.5017 0.020
28.5320 0.003
28.5623 -0.118
28.5926 -0.238
28.6229 0.162
28.6531 -0.062
28.6834 -0.390
28.7137 -0.306
28.7440 0.091
28.7742 0.071
28.8045 0.208
28.8348 -0.437
28.8651 0.117
28.8954 0.359
28.9256 -0.233
28.9559 0.322
28.9862 -0.009
29.0165 0.547
29.0468 0.581
29.0770 0.772
29.1073 0.338
29.1376 0.790
29.1679 0.409
29.1981 -0.180
29.2284 -0.196
29.2587 1.038
29.2890 0.554
29.3193 0.070
29.3495 0.159
29.3798 -0.220
29.4101 -0.391
29.4404 0.533
29.4707 0.206
29.5009 0.297
29.5312 -0.602
29.5615 0.166
29.5918 -0.420
29.6221 -0.191
29.6523 0.508
29.6826 0.321
29.7129 -0.491
29.7432 0.468
29.7734 0.178
29.8037 -0.372
29.8340 0.223
29.8643 0.194
29.8946 -0.877
29.9248 1.334
29.9551 -0.361
29.9854 0.965
30.0157 0.208
30.0460 -0.184
30.0762 1.091
30.1065 0.595
30.1368 0.985
30.1671 1.062
30.1973 0.567
30.2276 1.374
30.2579 -0.474
30.2882 -0.500
30.3185 0.673
30.3487 1.012
30.3790 1.560
30.4093 0.911
30.4396 1.459
30.4699 1.696
30.5001 1.411
30.5304 0.971
30.5607 1.260
30.5910 2.227
30.6212 1.527
30.6515 1.452
30.6818 1.639
30.7121 1.617
30.7424 2.168
30.7726 3.292
30.8029 2.177
30.8332 2.677
30.8635 4.531
30.8938 3.886
30.9240 3.553
30.9543 4.314
30.9846 5.388
31.0149 3.546
31.0451 5.454
31.0754 5.695
31.1057 7.499
31.1360 8.314
31.1663 8.661
31.1965 10.934
31.2268 11.854
31.2571 13.191
31.2874 15.830
31.3177 14.980
31.3479 18.713
31.3782 19.686
31.4085 22.118
31.4388 25.696
31.4690 28.909
31.4993 31.810
31.5296 35.858
31.5599 40.114
31.5902 44.318
31.6204 47.064
31.6507 48.039
31.6810 46.359
31.7113 44.470
31.7416 43.936
31.7718 38.038
31.8021 35.421
31.8324 33.064
31.8627 25.448
31.8929 24.654
31.9232 18.965
31.9535 18.277
31.9838 14.359
32.0141 13.671
32.0443 11.004
32.0746 9.900
32.1049 10.462
32.1352 8.994
32.1655 7.109
32.1957 6.370
32.2260 5.997
32.2563 4.738
32.2866 3.739
32.3169 3.783
32.3471 4.399
32.3774 1.891
32.4077 2.925
32.4380 2.501
32.4682 3.067
32.4985 1.549
32.5288 1.907
32.5591 2.682
32.5894 1.218
32.6196 1.368
32.6499 2.820
32.6802 3.023
32.7105 2.133
32.7408 1.138
32.7710 1.186
32.8013 1.441
32.8316 0.812
32.8619 0.288
32.8921 0.648
32.9224 -0.032
32.9527 0.069
32.9830 0.587
33.0133 1.053
33.0435 0.113
33.0738 1.309
33.1041 0.578
33.1344 0.576
33.1647 0.054
33.1949 -0.572
33.2252 -0.007
33.2555 -0.483
33.2858 -0.073
33.3160 -0.132
33.3463 1.528
33.3766 -0.353
33.4069 0.370
33.4372 1.094
33.4674 1.453
33.4977 1.708
33.5280 -0.276
33.5583 0.501
33.5886 0.809
33.6188 0.909
33.6491 1.061
33.6794 2.204
33.7097 1.575
33.7399 3.030
33.7702 3.132
33.8005 3.806
33.8308 4.325
33.8611 4.114
33.8913 7.133
33.9216 5.986
33.9519 7.599
33.9822 8.275
34.0125 9.524
34.0427 12.180
34.0730 13.690
34.1033 14.575
34.1336 20.878
34.1638 24.628
34.1941 29.212
34.2244 38.380
34.2547 42.027
34.2850 49.997
34.3152 55.051
34.3455 55.574
34.3758 53.909
34.4061 45.370
34.4364 36.883
34.4666 31.521
34.4969 22.566
34.5272 20.018
34.5575 16.897
34.5877 15.234
34.6180 11.853
34.6483 10.347
34.6786 7.539
34.7089 6.763
34.7391 6.924
34.7694 4.847
34.7997 6.311
34.8300 5.848
34.8603 3.667
34.8905 5.705
34.9208 4.670
34.9511 3.479
34.9814 4.372
35.0116 3.963
35.0419 3.866
35.0722 5.385
35.1025 3.674
35.1328 4.672
35.1630 6.556
35.1933 5.680
35.2236 5.064
35.2539 5.022
35.2842 5.292
35.3144 5.354
35.3447 6.771
35.3750 7.771
35.4053 7.418
35.4356 7.897
35.4658 7.023
35.4961 9.483
35.5264 8.609
35.5567 9.611
35.5869 9.936
35.6172 12.345
35.6475 13.660
35.6778 16.485
35.7081 16.811
35.7383 19.950
35.7686 21.943
35.7989 23.468
35.8292 23.847
35.8595 29.070
35.8897 34.033
35.9200 40.194
35.9503 41.667
35.9806 48.662
36.0108 50.814
36.0411 59.267
36.0714 65.482
36.1017 70.134
36.1320 71.245
36.1622 72.147
36.1925 74.509
36.2228 65.516
36.2531 62.617
36.2834 59.146
36.3136 49.581
36.3439 44.131
36.3742 40.557
36.4045 34.899
36.4347 31.898
36.4650 29.261
36.4953 25.427
36.5256 18.937
36.5559 18.905
36.5861 15.280
36.6164 14.364
36.6467 12.302
36.6770 10.084
36.7073 8.700
36.7375 7.315
36.7678 6.504
36.7981 6.527
36.8284 6.446
36.8586 5.583
36.8889 4.721
36.9192 3.339
36.9495 4.248
36.9798 4.376
37.0100 4.297
37.0403 3.644
37.0706 4.346
37.1009 2.080
37.1312 1.897
37.1614 1.922
37.1917 2.417
37.2220 1.974
37.2523 2.053
37.2825 1.767
37.3128 1.742
37.3431 0.988
37.3734 2.369
37.4037 2.033
37.4339 0.811
37.4642 1.985
37.4945 0.555
37.5248 0.844
37.5551 1.394
37.5853 0.433
37.6156 1.088
37.6459 1.534
37.6762 1.200
37.7064 0.865
37.7367 0.583
37.7670 0.614
37.7973 1.166
37.8276 0.364
37.8578 0.916
37.8881 0.010
37.9184 0.094
37.9487 0.700
37.9790 0.576
38.0092 0.192
38.0395 0.173
38.0698 0.363
38.1001 0.552
38.1304 0.482
38.1606 0.516
38.1909 -0.075
38.2212 1.158
38.2515 0.620
38.2817 0.863
38.3120 0.326
38.3423 0.153
38.3726 -0.176
38.4029 0.173
38.4331 -0.572
38.4634 -0.136
38.4937 0.196
38.5240 0.789
38.5543 0.029
38.5845 0.570
38.6148 -0.399
38.6451 0.456
38.6754 0.112
38.7056 0.290
38.7359 0.677
38.7662 0.022
38.7965 -0.164
38.8268 0.327
38.8570 -0.379
38.8873 -0.148
38.9176 -0.333
38.9479 0.732
38.9782 0.027
39.0084 -0.001
39.0387 -0.028
39.0690 -0.160
39.0993 0.229
39.1295 0.880
39.1598 -0.137
39.1901 0.045
39.2204 -0.345
39.2507 -0.081
39.2809 0.080
39.3112 0.502
39.3415 -0.274
39.3718 -0.164
39.4021 -0.211
39.4323 -0.049
39.4626 0.374
39.4929 0.329
39.5232 0.023
39.5534 0.863
39.5837 0.141
39.6140 0.097
39.6443 -0.208
39.6746 0.269
39.7048 -0.244
39.7351 0.390
39.7654 0.034
39.7957 0.512
39.8260 0.261
39.8562 0.687
39.8865 -0.032
39.9168 -0.022
39.9471 0.717
39.9773 -0.522
40.0076 0.374
40.0379 0.906
40.0682 -0.281
40.0985 -0.113
40.1287 -0.726
40.1590 0.224
40.1893 -0.181
40.2196 -0.272
40.2499 -0.416
40.2801 0.324
40.3104 0.335
40.3407 -0.227
40.3710 0.357
40.4012 0.004
40.4315 -0.297
40.4618 0.184
40.4921 0.040
40.5224 -0.468
40.5526 0.274
40.5829 0.495
40.6132 -0.325
40.6435 0.314
40.6738 0.432
40.7040 0.446
40.7343 0.096
40.7646 0.371
40.7949 0.229
40.8251 -0.433
40.8554 0.156
40.8857 0.380
40.9160 -0.282
40.9463 0.464
40.9765 0.897
41.0068 0.757
41.0371 0.201
41.0674 0.010
41.0977 -0.650
41.1279 0.020
41.1582 0.535
41.1885 0.580
41.2188 0.054
41.2491 0.308
41.2793 0.251
41.3096 0.245
41.3399 0.345
41.3702 0.184
41.4004 0.648
41.4307 0.227
41.4610 -0.142
41.4913 0.480
41.5216 0.059
41.5518 -0.152
41.5821 -0.311
41.6124 0.206
41.6427 0.099
41.6730 -0.165
41.7032 0.509
41.7335 -0.014
41.7638 0.036
41.7941 0.190
41.8243 0.397
41.8546 -0.125
41.8849 0.498
41.9152 0.602
41.9455 0.132
41.9757 0.236
42.0060 0.236
42.0363 0.184
42.0666 0.184
42.0969 -0.024
42.1271 0.081
42.1574 0.082
42.1877 0.084
42.2180 0.554
42.2482 0.087
42.2785 0.193
42.3088 -0.013
42.3391 -0.427
42.3694 0.357
42.3996 0.256
42.4299 0.156
42.4602 0.159
42.4905 0.059
42.5208 0.480
42.5510 0.120
42.5813 0.801
42.6116 0.285
42.6419 0.134
42.6721 0.504
42.7024 0.249
42.7327 0.099
42.7630 -0.468
42.7933 -0.053
42.8235 0.362
42.8538 0.309
42.8841 0.256
42.9144 0.724
42.9447 -0.266
42.9749 0.203
43.0052 0.619
43.0355 0.359
43.0658 -0.057
43.0960 0.152
43.1263 0.153
43.1566 0.363
43.1869 0.104
43.2172 0.158
43.2474 0.368
43.2777 0.110
43.3080 -0.252
43.3383 0.168
43.3686 0.171
43.3988 -0.295
43.4291 -0.192
43.4594 -0.036
43.4897 0.484
43.5199 0.171
43.5502 0.536
43.5805 0.379
43.6108 0.432
43.6411 0.849
43.6713 0.017
43.7016 -0.295
43.7319 -0.191
43.7622 0.799
43.7925 0.434
43.8227 0.330
43.8530 0.175
43.8833 0.592
43.9136 -0.240
43.9439 -0.291
43.9741 -0.029
44.0044 -0.027
44.0347 -0.389
44.0650 0.066
44.0952 0.418
44.1255 0.093
44.1558 -0.180
44.1861 0.172
44.2164 0.473
44.2466 0.201
44.2769 0.554
44.3072 0.074
44.3375 0.063
44.3678 0.470
44.3980 -0.062
44.4283 0.345
44.4586 0.075
44.4889 0.378
44.5191 0.264
44.5494 0.620
44.5797 0.246
44.6100 0.081
44.6403 0.177
44.6705 0.013
44.7008 -0.099
44.7311 0.414
44.7614 -0.062
44.7917 0.713
44.8219 -0.336
44.8522 0.283
44.8825 0.641
44.9128 0.843
44.9430 -0.256
44.9733 0.572
45.0036 0.566
45.0339 -0.324
45.0642 0.557
45.0944 0.135
45.1247 -0.442
45.1550 -0.092
45.1853 0.154
45.2156 0.452
45.2458 -0.448
45.2761 0.111
45.3064 -0.215
45.3367 0.188
45.3669 -0.034
45.3972 -0.151
45.4275 0.253
45.4578 0.345
45.4881 0.281
45.5183 0.165
45.5486 0.101
45.5789 0.037
45.6092 -0.130
45.6395 0.120
45.6697 0.213
45.7000 0.203
45.7303 -0.120
45.7606 0.183
45.7908 0.069
45.8211 -0.253
45.8514 -0.106
45.8817 -0.167
45.9120 0.085
45.9422 0.650
45.9725 -0.036
46.0028 0.373
46.0331 -0.468
46.0634 -0.322
46.0936 0.292
46.1239 0.230
46.1542 -0.561
46.1845 0.732
46.2147 0.358
46.2450 0.348
46.2753 -0.129
46.3056 0.071
46.3359 0.010
46.3661 0.367
46.3964 0.567
46.4267 0.195
46.4570 0.448
46.4873 0.441
46.5175 0.799
46.5478 1.573
46.5781 1.150
46.6084 -0.158
46.6386 0.618
46.6689 0.716
46.6992 0.919
46.7295 1.487
46.7598 2.055
46.7900 1.374
46.8203 1.734
46.8506 2.199
46.8809 1.674
46.9112 2.243
46.9414 2.396
46.9717 2.393
47.0020 3.172
47.0323 3.274
47.0626 4.105
47.0928 5.353
47.1231 5.872
47.1534 7.016
47.1837 7.848
47.2139 7.170
47.2442 9.409
47.2745 9.148
47.3048 10.190
47.3351 12.013
47.3653 11.232
47.3956 12.274
47.4259 13.369
47.4562 12.797
47.4865 13.423
47.5167 13.060
47.5470 11.916
47.5773 10.147
47.6076 10.097
47.6378 8.746
47.6681 8.853
47.6984 6.981
47.7287 5.526
47.7590 5.009
47.7892 4.700
47.8195 4.288
47.8498 3.198
47.8801 2.838
47.9104 2.687
47.9406 2.796
47.9709 2.698
48.0012 3.172
48.0315 1.251
48.0617 1.465
48.0920 1.003
48.1223 1.010
48.1526 0.912
48.1829 0.763
48.2131 1.760
48.2434 0.310
48.2737 1.203
48.3040 0.378
48.3343 0.386
48.3645 1.020
48.3948 0.248
48.4251 -0.368
48.4554 0.579
48.4856 0.328
48.5159 0.755
48.5462 0.453
48.5765 0.151
48.6068 0.214
48.6370 0.068
48.6673 -0.181
48.6976 0.560
48.7279 -0.314
48.7582 0.115
48.7884 0.335
48.8187 0.140
48.8490 -0.160
48.8793 -0.199
48.9095 0.023
48.9398 0.244
48.9701 0.258
49.0004 0.324
49.0307 0.182
49.0609 -0.220
49.0912 0.524
49.1215 0.175
49.1518 0.398
49.1821 0.310
49.2123 0.222
49.2426 0.290
49.2729 -0.527
49.3032 0.479
49.3334 0.027
49.3637 0.357
49.3940 0.218
49.4243 -0.390
49.4546 -0.172
49.4848 0.150
49.5151 -0.048
49.5454 0.066
49.5757 0.284
49.6060 -0.122
49.6362 -0.267
49.6665 -0.308
49.6968 0.013
49.7271 -0.083
49.7574 0.134
49.7876 0.039
49.8179 0.413
49.8482 0.162
49.8785 -0.505
49.9087 0.390
49.9390 0.140
49.9693 -0.162
49.9996 -0.099
50.0299 0.120
50.0601 0.184
50.0904 0.404
50.1207 0.936
50.1510 0.167
50.1813 0.180
50.2115 -0.016
50.2418 -0.420
50.2721 0.374
50.3024 0.179
50.3326 0.193
50.3629 0.415
50.3932 -0.456
50.4235 0.235
50.4538 1.083
50.4840 0.265
50.5143 1.009
50.5446 0.191
50.5749 0.207
50.6052 0.692
50.6354 0.447
50.6657 0.308
50.6960 0.324
50.7263 0.654
50.7565 0.411
50.7868 0.584
50.8171 0.081
50.8474 -0.266
50.8777 -0.276
50.9079 0.650
50.9382 0.640
50.9685 0.786
50.9988 0.620
51.0291 -0.015
51.0593 0.601
51.0896 0.852
51.1199 0.479
51.1502 0.053
51.1804 0.201
51.2107 -0.276
51.2410 -0.231
51.2713 0.438
51.3016 0.744
51.3318 0.632
51.3621 0.469
51.3924 0.307
51.4227 0.248
51.4530 -0.174
51.4832 0.653
51.5135 0.440
51.5438 0.486
51.5741 -0.144
51.6043 -0.252
51.6346 0.056
51.6649 0.520
51.6952 -0.421
51.7255 0.460
51.7557 0.874
51.7860 0.246
51.8163 0.711
51.8466 0.448
51.8769 -0.127
51.9071 0.131
51.9374 0.390
51.9677 0.544
51.9980 0.074
52.0282 0.177
52.0585 -0.136
52.0888 -0.293
52.1191 0.280
52.1494 0.175
52.1796 0.332
52.2099 0.592
52.2402 0.281
52.2705 0.021
52.3008 0.960
52.3310 0.805
52.3613 0.077
52.3916 -0.285
52.4219 -0.036
52.4521 0.423
52.4824 0.360
52.5127 0.194
52.5430 0.080
52.5733 1.008
52.6035 0.062
52.6338 0.626
52.6641 0.096
52.6944 -0.173
52.7247 0.392
52.7549 0.697
52.7852 0.116
52.8155 0.578
52.8458 -0.211
52.8761 0.355
52.9063 0.296
52.9366 -0.127
52.9669 0.024
52.9972 -0.034
53.0274 -0.040
53.0577 0.371
53.0880 0.158
53.1183 0.205
53.1486 0.044
53.1788 0.509
53.2091 -0.173
53.2394 0.553
53.2697 0.185
53.3000 -0.079
53.3302 0.022
53.3605 -0.241
53.3908 -0.140
53.4211 0.014
53.4513 0.481
53.4816 0.323
53.5119 0.009
53.5422 0.320
53.5725 0.163
53.6027 0.527
53.6330 0.526
53.6633 0.109
53.6936 0.109
53.7239 0.422
53.7541 -0.255
53.7844 -0.098
53.8147 0.060
53.8450 -0.304
53.8752 -0.374
53.9055 0.493
53.9358 0.788
53.9661 0.510
53.9964 0.232
54.0266 -0.150
54.0569 0.093
54.0872 0.129
54.1175 0.425
54.1478 0.096
54.1780 0.497
54.2083 0.898
54.2386 0.102
54.2689 0.347
54.2991 0.384
54.3294 -0.203
54.3597 0.772
54.3900 0.133
54.4203 -0.090
54.4505 -0.468
54.4808 0.140
54.5111 -0.501
54.5414 0.107
54.5717 -0.273
54.6019 0.388
54.6322 -0.409
54.6625 0.148
54.6928 -1.273
54.7230 0.275
54.7533 0.000
54.7836 0.610
54.8139 -0.289
54.8442 0.270
54.8744 0.152
54.9047 0.243
54.9350 -0.135
54.9653 0.530
54.9956 0.465
55.0258 0.088
55.0561 0.180
55.0864 0.012
55.1167 0.938
55.1469 0.562
55.1772 0.291
55.2075 0.071
55.2378 0.165
55.2681 0.988
55.2983 0.874
55.3286 0.343
55.3589 0.907
55.3892 2.043
55.4195 0.368
55.4497 0.307
55.4800 0.923
55.5103 0.446
55.5406 1.063
55.5709 1.212
55.6011 1.673
55.6314 0.780
55.6617 1.555
55.6920 1.496
55.7222 1.385
55.7525 2.525
55.7828 2.623
55.8131 1.940
55.8434 2.456
55.8736 3.076
55.9039 2.758
55.9342 3.483
55.9645 4.416
55.9948 4.984
56.0250 4.043
56.0553 4.925
56.0856 5.755
56.1159 7.418
56.1461 5.749
56.1764 8.663
56.2067 7.775
56.2370 9.752
56.2673 10.740
56.2975 13.446
56.3278 12.664
56.3581 13.079
56.3884 15.474
56.4187 18.130
56.4489 17.557
56.4792 19.432
56.5095 18.182
56.5398 19.328
56.5700 16.620
56.6003 16.725
56.6306 15.893
56.6609 15.374
56.6912 12.771
56.7214 11.471
56.7517 8.296
56.7820 8.924
56.8123 8.041
56.8426 7.419
56.8728 5.651
56.9031 5.759
56.9334 5.190
56.9637 4.881
56.9939 4.052
57.0242 3.276
57.0545 3.280
57.0848 3.285
57.1151 2.457
57.1453 1.942
57.1756 2.781
57.2059 1.693
57.2362 1.283
57.2665 0.144
57.2967 2.025
57.3270 0.782
57.3573 1.363
57.3876 0.849
57.4178 1.222
57.4481 0.188
57.4784 0.874
57.5087 1.299
57.5390 0.995
57.5692 0.587
57.5995 1.430
57.6298 0.763
57.6601 0.043
57.6904 0.418
57.7206 0.116
57.7509 -0.342
57.7812 -0.123
57.8115 0.565
57.8417 0.264
57.8720 -0.349
57.9023 -0.391
57.9326 0.505
57.9629 0.307
57.9931 0.214
58.0234 0.486
58.0537 0.602
58.0840 -0.168
58.1143 0.625
58.1445 -0.039
58.1748 -0.495
58.2051 0.872
58.2354 0.260
58.2656 0.169
58.2959 -0.234
58.3262 -0.220
58.3565 0.002
58.3868 -0.296
58.4170 -0.333
58.4473 0.148
58.4776 1.046
58.5079 0.017
58.5382 0.343
58.5684 -0.529
58.5987 1.099
58.6290 -0.033
58.6593 0.190
58.6896 -0.004
58.7198 0.531
58.7501 0.442
58.7804 -0.637
58.8107 0.994
58.8409 0.280
58.8712 0.504
58.9015 0.312
58.9318 -0.244
58.9621 0.241
58.9923 0.415
59.0226 1.005
59.0529 0.814
59.0832 -0.314
59.1135 0.121
59.1437 0.139
59.1740 -0.416
59.2043 -0.116
59.2346 0.392
59.2648 0.848
59.2951 0.210
59.3254 1.032
59.3557 0.186
59.3860 0.175
59.4162 -0.410
59.4465 0.309
59.4768 0.402
59.5071 -0.442
59.5374 0.225
59.5676 0.475
59.5979 -0.108
59.6282 0.508
59.6585 0.550
59.6887 0.541
59.7190 -0.301
59.7493 -0.049
59.7796 -0.370
59.8099 0.247
59.8401 -0.073
59.8704 -0.185
59.9007 0.485
59.9310 -0.303
59.9613 -0.102
59.9915 -0.265
60.0218 0.094
60.0521 -0.694
60.0824 0.238
60.1126 -0.288
60.1429 0.331
60.1732 0.066
60.2035 -0.199
60.2338 -0.047
60.2640 0.000
60.2943 0.257
60.3246 0.253
60.3549 0.614
60.3852 -0.014
60.4154 -0.329
60.4457 -0.029
60.4760 0.427
60.5063 -0.158
60.5365 0.716
60.5668 0.444
60.5971 -0.088
60.6274 0.265
60.6577 0.359
60.6879 0.036
60.7182 -0.391
60.7485 0.589
60.7788 -0.098
60.8091 0.153
60.8393 -0.065
60.8696 0.083
60.8999 0.022
60.9302 -0.143
60.9604 0.109
60.9907 0.206
61.0210 0.354
61.0513 -0.955
61.0816 0.079
61.1118 -0.188
61.1421 0.014
61.1724 0.163
61.2027 -0.416
61.2330 -0.114
61.2632 -0.333
61.2935 -0.240
61.3238 0.271
61.3541 0.365
61.3844 -0.374
61.4146 0.554
61.4449 0.232
61.4752 0.171
61.5055 -0.046
61.5357 -0.107
61.5660 -0.271
61.5963 -0.435
61.6266 0.442
61.6569 -0.450
61.6871 -0.197
61.7174 0.577
61.7477 0.518
61.7780 0.355
61.8083 1.026
61.8385 0.916
61.8688 0.338
61.8991 1.113
61.9294 1.004
61.9596 1.468
61.9899 0.994
62.0202 1.771
62.0505 1.819
62.0808 0.878
62.1110 1.916
62.1413 1.444
62.1716 2.899
62.2019 2.375
62.2322 2.529
62.2624 3.099
62.2927 4.295
62.3230 3.564
62.3533 4.500
62.3835 4.863
62.4138 5.747
62.4441 6.944
62.4744 8.819
62.5047 7.881
62.5349 8.402
62.5652 8.037
62.5955 8.767
62.6258 14.028
62.6561 13.925
62.6863 14.655
62.7166 14.396
62.7469 13.408
62.7772 14.816
62.8074 15.860
62.8377 13.363
62.8680 16.595
62.8983 14.670
62.9286 10.299
62.9588 11.604
62.9891 11.191
63.0194 9.320
63.0497 9.116
63.0800 7.714
63.1102 6.417
63.1405 6.839
63.1708 4.917
63.2011 5.079
63.2313 3.782
63.2616 3.268
63.2919 2.805
63.3222 1.978
63.3525 3.131
63.3827 2.409
63.4130 2.416
63.4433 1.799
63.4736 1.442
63.5039 1.450
63.5341 2.292
63.5644 0.738
63.5947 1.007
63.6250 0.443
63.6552 0.869
63.6855 0.618
63.7158 0.993
63.7461 0.951
63.7764 0.857
63.8066 0.190
63.8369 0.410
63.8672 0.421
63.8975 0.901
63.9278 0.600
63.9580 0.924
63.9883 0.259
64.0186 0.324
64.0489 -0.289
64.0791 0.506
64.1094 0.206
64.1397 0.011
64.1700 0.129
64.2003 0.143
64.2305 -0.468
64.2608 -0.113
64.2911 0.763
64.3214 0.077
64.3517 0.173
64.3819 0.268
64.4122 0.729
64.4425 0.252
64.4728 0.244
64.5031 0.237
64.5333 0.386
64.5636 -0.611
64.5939 -0.201
64.6242 0.938
64.6544 0.567
64.6847 0.041
64.7150 -0.538
64.7453 0.238
64.7756 0.232
64.8058 0.384
64.8361 0.587
64.8664 0.166
64.8967 0.735
64.9270 -0.311
64.9572 0.363
64.9875 0.411
65.0178 0.200
65.0481 -0.689
65.0783 -0.118
65.1086 -0.225
65.1389 -0.540
65.1692 0.344
65.1995 0.446
65.2297 0.028
65.2600 -0.546
65.2903 0.011
65.3206 -0.214
65.3509 -0.073
65.3811 0.276
65.4114 -0.261
65.4417 -0.015
65.4720 -0.030
65.5022 0.164
65.5325 -0.528
65.5628 0.448
65.5931 0.226
65.6234 -0.361
65.6536 -0.429
65.6839 0.546
65.7142 0.062
65.7445 0.620
65.7748 0.657
65.8050 0.122
65.8353 -0.465
65.8656 0.511
65.8959 -0.023
65.9261 0.484
65.9564 0.575
65.9867 0.927
66.0170 0.342
66.0473 1.059
66.0775 0.474
66.1078 1.712
66.1381 1.336
66.1684 1.949
66.1987 1.053
66.2289 1.355
66.2592 1.813
66.2895 1.438
66.3198 1.324
66.3500 1.002
66.3803 1.461
66.4106 1.504
66.4409 1.078
66.4712 0.913
66.5014 1.113
66.5317 1.157
66.5620 1.201
66.5923 1.298
66.6226 1.030
66.6528 0.970
66.6831 1.224
66.7134 1.478
66.7437 0.221
66.7739 0.892
66.8042 0.990
66.8345 0.099
66.8648 1.604
66.8951 1.651
66.9253 1.230
66.9556 0.600
66.9859 0.283
67.0162 0.539
67.0465 0.744
67.0767 1.001
67.1070 1.206
67.1373 1.463
67.1676 1.512
67.1978 0.207
67.2281 1.820
67.2584 1.661
67.2887 1.920
67.3190 2.231
67.3492 2.490
67.3795 3.062
67.4098 3.373
67.4401 4.414
67.4704 3.529
67.5006 5.039
67.5309 4.831
67.5612 4.883
67.5915 6.343
67.6218 7.333
67.6520 6.084
67.6823 8.429
67.7126 7.285
67.7429 9.787
67.7731 7.967
67.8034 9.844
67.8337 9.691
67.8640 8.548
67.8943 10.270
67.9245 10.742
67.9548 10.433
67.9851 9.292
68.0154 9.712
68.0457 7.477
68.0759 7.430
68.1062 8.008
68.1365 5.722
68.1668 6.561
68.1970 6.254
68.2273 5.218
68.2576 5.016
68.2879 4.242
68.3182 3.311
68.3484 3.787
68.3787 4.159
68.4090 3.697
68.4393 2.195
68.4696 3.713
68.4998 2.888
68.5301 2.741
68.5604 3.635
68.5907 2.863
68.6209 2.976
68.6512 2.569
68.6815 3.048
68.7118 3.475
68.7421 3.225
68.7723 3.339
68.8026 3.819
68.8329 4.039
68.8632 3.581
68.8935 3.541
68.9237 4.386
68.9540 3.982
68.9843 4.879
69.0146 4.475
69.0448 5.165
69.0751 3.981
69.1054 3.473
69.1357 4.372
69.1660 3.709
69.1962 3.671
69.2265 2.748
69.2568 3.232
69.2871 2.778
69.3174 1.387
69.3476 2.236
69.3779 1.835
69.4082 2.215
69.4385 1.555
69.4687 1.102
69.4990 0.963
69.5293 1.240
69.5596 0.945
69.5899 1.431
69.6201 0.564
69.6504 0.113
69.6807 0.652
69.7110 0.306
69.7413 0.689
69.7715 -0.437
69.8018 0.415
69.8321 0.279
69.8624 0.403
69.8926 -0.098
69.9229 -0.182
69.9532 0.099
69.9835 0.536
70.0138 0.089
70.0440 -0.202
70.0743 0.080
70.1046 0.154
70.1349 -0.241
70.1652 -0.010
70.1954 -0.300
70.2257 -0.225
70.2560 0.110
70.2863 -0.023
70.3166 -0.520
70.3468 0.067
70.3771 0.446
70.4074 -0.477
70.4377 0.007
70.4679 0.387
70.4982 -0.483
70.5285 0.470
70.5588 -0.139
70.5891 -0.123
70.6193 0.102
70.6496 0.223
70.6799 -0.229
70.7102 0.257
70.7405 0.170
70.7707 -0.385
70.8010 0.467
70.8313 -0.088
70.8616 -0.122
70.8918 -0.363
70.9221 0.158
70.9524 0.368
70.9827 0.213
71.0130 -0.098
71.0432 -0.096
71.0735 0.322
71.1038 0.012
71.1341 -0.193
71.1644 0.851
71.1946 -0.031
71.2249 -0.445
71.2552 0.445
71.2855 0.136
71.3157 0.505
71.3460 -0.116
71.3763 0.149
71.4066 -0.054
71.4369 -0.101
71.4671 0.112
71.4974 0.222
71.5277 -0.188
71.5580 0.443
71.5883 -0.228
71.6185 0.143
71.6488 0.046
71.6791 -0.572
71.7094 0.000
71.7396 -0.001
71.7699 0.207
71.8002 0.258
71.8305 0.206
71.8608 0.154
71.8910 0.415
71.9213 -0.053
71.9516 0.052
71.9819 0.105
72.0122 0.627
72.0424 -0.101
72.0727 0.318
72.1030 0.424
72.1333 0.322
72.1635 0.169
72.1938 0.015
72.2241 0.956
72.2544 0.230
72.2847 0.494
72.3149 1.123
72.3452 0.919
72.3755 0.715
72.4058 1.084
72.4361 0.672
72.4663 0.990
72.4966 0.579
72.5269 0.949
72.5572 1.163
72.5874 0.909
72.6177 0.811
72.6480 0.297
72.6783 0.148
72.7086 0.936
72.7388 0.423
72.7691 0.118
72.7994 0.334
72.8297 0.394
72.8600 0.403
72.8902 0.724
72.9205 0.421
72.9508 0.638
72.9811 0.127
73.0113 0.085
73.0416 0.147
73.0719 0.261
73.1022 0.532
73.1325 0.543
73.1627 0.450
73.1930 0.200
73.2233 -0.101
73.2536 0.067
73.2839 -0.285
73.3141 -0.027
73.3444 0.545
73.3747 0.700
73.4050 0.282
73.4353 -0.344
73.4655 0.072
73.4958 0.697
73.5261 0.280
73.5564 0.541
73.5866 0.177
73.6169 -0.031
73.6472 0.022
73.6775 0.909
73.7078 0.025
73.7380 0.339
73.7683 0.393
73.7986 -0.126
73.8289 0.294
73.8592 0.661
73.8894 0.039
73.9197 -0.322
73.9500 0.410
73.9803 0.206
74.0105 -0.520
74.0408 -0.159
74.0711 0.045
74.1014 -0.375
74.1317 0.038
74.1619 -0.069
74.1922 0.449
74.2225 0.186
74.2528 -0.389
74.2831 -0.136
74.3133 0.014
74.3436 0.372
74.3739 0.313
74.4042 0.099
74.4344 0.614
74.4647 -0.016
74.4950 -0.022
74.5253 -0.026
74.5556 0.021
74.5858 -0.244
74.6161 0.064
74.6464 0.269
74.6767 -0.516
74.7070 0.157
74.7372 0.154
74.7675 -0.213
74.7978 0.097
74.8281 0.042
74.8583 0.144
74.8886 0.038
74.9189 -0.380
74.9492 0.035
74.9795 -0.539
75.0097 0.085
75.0400 0.397
75.0703 -0.124
75.1006 -0.177
75.1309 -0.176
75.1611 -0.020
75.1914 0.398
75.2217 -0.018
75.2520 0.191
75.2822 0.297
75.3125 0.038
75.3428 -0.429
75.3731 0.042
75.4034 0.149
75.4336 -0.109
75.4639 -0.158
75.4942 -0.311
75.5245 0.210
75.5548 -0.102
75.5850 0.108
75.6153 0.317
75.6456 0.058
75.6759 -0.461
75.7061 0.010
75.7364 0.012
75.7667 0.119
75.7970 0.278
75.8273 0.489
75.8575 -0.028
75.8878 -0.702
75.9181 0.076
75.9484 -0.188
75.9787 0.017
76.0089 0.483
76.0392 0.116
76.0695 0.166
76.0998 0.059
76.1301 0.318
76.1603 0.160
76.1906 0.107
76.2209 -0.415
76.2512 -0.057
76.2814 0.146
76.3117 0.349
76.3420 0.448
76.3723 0.079
76.4026 0.230
76.4328 0.591
76.4631 0.586
76.4934 1.260
76.5237 0.683
76.5540 0.992
76.5842 1.250
76.6145 1.143
76.6448 0.671
76.6751 0.669
76.7053 0.771
76.7356 1.082
76.7659 0.820
76.7962 1.548
76.8265 0.922
76.8567 0.504
76.8870 0.973
76.9173 0.816
76.9476 0.660
76.9779 0.973
77.0081 0.140
77.0384 0.609
77.0687 0.714
77.0990 1.132
77.1292 0.978
77.1595 0.198
77.1898 -0.008
77.2201 0.671
77.2504 0.882
77.2806 0.625
77.3109 0.159
77.3412 0.579
77.3715 0.009
77.4018 0.430
77.4320 0.069
77.4623 0.022
77.4926 0.235
77.5229 -0.229
77.5531 0.401
77.5834 0.094
77.6137 0.516
77.6440 0.313
77.6743 -0.566
77.7045 0.013
77.7348 -0.501
77.7651 0.131
77.7954 0.503
77.8257 0.718
77.8559 0.361
77.8862 -0.204
77.9165 0.377
77.9468 -0.031
77.9770 0.134
78.0073 0.247
78.0376 0.100
78.0679 -0.255
78.0982 -0.152
78.1284 -0.152
78.1587 0.316
78.1890 0.577
78.2193 0.421
78.2496 -0.308
78.2798 0.370
78.3101 0.371
78.3404 -0.200
78.3707 0.270
78.4009 0.168
78.4312 -0.143
78.4615 0.276
78.4918 0.019
78.5221 0.073
78.5523 0.129
78.5826 -0.024
78.6129 -0.229
78.6432 0.192
78.6735 -0.221
78.7037 -0.112
78.7340 0.049
78.7643 -0.259
78.7946 0.001
78.8248 0.313
78.8551 0.365
78.8854 0.469
78.9157 -0.155
78.9460 0.158
78.9762 -0.206
79.0065 0.212
79.0368 0.005
79.0671 0.215
79.0974 -0.044
79.1276 -0.250
79.1579 -0.041
79.1882 0.011
79.2185 0.168
79.2488 0.168
79.2790 0.534
79.3093 0.483
79.3396 0.016
79.3699 0.382
79.4001 -0.241
79.4304 0.074
79.4607 0.025
79.4910 -0.389
79.5213 0.021
79.5515 0.432
79.5818 -0.302
79.6121 0.161
79.6424 0.312
79.6727 0.047
79.7029 -0.166
79.7332 0.143
79.7635 -0.695
79.7938 0.291
79.8240 0.079
79.8543 0.389
79.8846 0.854
79.9149 0.175
79.9452 0.172
79.9754 -0.195
80.0057 0.376
80.0360 0.166
80.0663 0.113
80.0966 0.164
80.1268 0.527
80.1571 -0.307
80.1874 -0.255
80.2177 0.206
80.2479 0.042
80.2782 0.242
80.3085 0.183
80.3388 0.072
80.3691 0.169
80.3993 0.215
80.4296 0.000
80.4599 0.046
80.4902 0.405
80.5205 0.556
80.5507 -0.335
80.5810 0.285
80.6113 0.541
80.6416 0.484
80.6718 0.584
80.7021 -0.305
80.7324 -0.257
80.7627 0.521
80.7930 -0.003
80.8232 -0.058
80.8535 0.252
80.8838 0.093
80.9141 0.039
80.9444 0.662
80.9746 0.035
81.0049 0.034
81.0352 0.658
81.0655 0.032
81.0957 0.135
81.1260 0.760
81.1563 0.239
81.1866 0.291
81.2169 0.344
81.2471 0.813
81.2774 0.553
81.3077 0.659
81.3380 0.504
81.3683 0.558
81.3985 1.289
81.4288 0.562
81.4591 0.824
81.4894 0.306
81.5196 0.361
81.5499 0.573
81.5802 0.472
81.6105 0.267
81.6408 0.480
81.6710 -0.141
81.7013 1.009
81.7316 0.545
81.7619 0.238
81.7922 0.139
81.8224 -0.064
81.8527 0.566
81.8830 0.312
81.9133 0.058
81.9436 0.116
81.9738 1.061
82.0041 0.026
82.0344 0.346
82.0647 -0.116
82.0949 0.309
82.1252 -0.048
82.1555 0.377
82.1858 0.438
82.2161 -0.439
82.2463 -0.013
82.2766 0.204
82.3069 -0.255
82.3372 0.172
82.3675 -0.547
82.3977 -0.016
82.4280 0.411
82.4583 -0.203
82.4886 -0.244
82.5188 0.013
82.5491 0.270
82.5794 -0.253
82.6097 0.213
82.6400 0.576
82.6702 -0.468
82.7005 -0.053
82.7308 0.050
82.7611 -0.264
82.7914 0.048
82.8216 0.100
82.8519 -0.057
82.8822 -0.318
82.9125 0.151
82.9427 -0.317
82.9730 0.152
83.0033 -0.211
83.0336 0.311
83.0639 -0.157
83.0941 -0.259
83.1244 0.207
83.1547 -0.213
83.1850 0.358
83.2153 0.251
83.2455 0.562
83.2758 -0.169
83.3061 0.246
83.3364 -0.120
83.3666 -0.120
83.3969 0.296
83.4272 -0.122
83.4575 0.451
83.4878 -0.174
83.5180 0.087
83.5483 -0.329
83.5786 0.245
83.6089 0.142
83.6392 0.299
83.6694 -0.168
83.6997 0.511
83.7300 0.044
83.7603 0.359
83.7905 -0.315
83.8208 0.000
83.8511 -0.570
83.8814 0.111
83.9117 0.219
83.9419 0.118
83.9722 -0.294
84.0025 -0.029
84.0328 -0.181
84.0631 -0.176
84.0933 -0.067
84.1236 0.147
84.1539 0.309
84.1842 -0.050
84.2144 -0.043
84.2447 -0.089
84.2750 -0.239
84.3053 -0.133
84.3356 -0.235
84.3658 0.496
84.3961 0.134
84.4264 -0.071
84.4567 -0.589
84.4870 0.768
84.5172 0.355
84.5475 0.359
84.5778 -0.054
84.6081 -0.050
84.6383 0.424
84.6686 0.012
84.6989 0.381
84.7292 -0.238
84.7595 -0.233
84.7897 0.126
84.8200 0.121
84.8503 0.376
84.8806 -0.045
84.9109 0.315
84.9411 0.103
84.9714 0.359
85.0017 0.564
85.0320 0.248
85.0623 0.349
85.0925 -0.071
85.1228 0.135
85.1531 0.237
85.1834 0.078
85.2136 0.285
85.2439 0.231
85.2742 -0.135
85.3045 0.176
85.3348 0.488
85.3650 0.383
85.3953 -0.294
85.4256 0.539
85.4559 -0.138
85.4862 -0.034
85.5164 -0.346
85.5467 0.280
85.5770 0.282
85.6073 0.231
85.6375 -0.184
85.6678 0.339
85.6981 0.341
85.7284 0.343
85.7587 0.346
85.7889 0.245
85.8192 0.039
85.8495 -0.113
85.8798 -0.058
85.9101 0.207
85.9403 -0.362
85.9706 0.007
86.0009 0.012
86.0312 0.694
86.0614 -0.186
86.0917 -0.233
86.1220 0.232
86.1523 -0.396
86.1826 0.225
86.2128 0.431
86.2431 -0.093
86.2734 0.426
86.3037 0.371
86.3340 0.369
86.3642 0.003
86.3945 0.054
86.4248 0.157
86.4551 -0.417
86.4853 -0.001
86.5156 -0.054
86.5459 0.050
86.5762 0.103
86.6065 0.363
86.6367 -0.053
86.6670 0.157
86.6973 -0.259
86.7276 -0.114
86.7579 0.396
86.7881 0.177
86.8184 0.323
86.8487 0.001
86.8790 0.251
86.9092 0.086
86.9395 -0.288
86.9698 0.015
87.0001 0.007
87.0304 -0.106
87.0606 -0.219
87.0909 0.242
87.1212 0.026
87.1515 0.019
87.1818 0.168
87.2120 -0.152
87.2423 0.467
87.2726 0.200
87.3029 0.246
87.3331 0.083
87.3634 -0.183
87.3937 -0.292
87.4240 0.536
87.4543 0.010
87.4845 -0.255
87.5148 -0.105
87.5451 0.411
87.5754 -0.063
87.6057 0.245
87.6359 0.084
87.6662 0.392
87.6965 0.127
87.7268 0.228
87.7571 0.380
87.7873 0.221
87.8176 0.217
87.8479 0.162
87.8782 0.004
87.9084 -0.311
87.9387 0.041
87.9690 -0.128
87.9993 -0.193
88.0296 -0.257
88.0598 0.513
88.0901 0.761
88.1204 -0.239
88.1507 0.166
88.1810 0.051
88.2112 -0.011
88.2415 0.447
88.2718 -0.448
88.3021 0.375
88.3323 -0.311
88.3626 0.096
88.3929 -0.173
88.4232 0.078
88.4535 0.226
88.4837 0.478
88.5140 0.783
88.5443 -0.058
88.5746 0.195
88.6049 0.500
88.6351 -0.236
88.6654 0.069
88.6957 0.636
88.7260 -0.152
88.7562 0.728
88.7865 -0.163
88.8168 -0.169
88.8471 0.712
88.8774 0.811
88.9076 0.285
88.9379 0.437
88.9682 0.902
88.9985 0.742
89.0288 0.842
89.0590 0.526
89.0893 1.148
89.1196 1.249
89.1499 1.247
89.1801 1.296
89.2104 1.607
89.2407 1.344
89.2710 2.072
89.3013 1.081
89.3315 1.861
89.3618 1.808
89.3921 0.922
89.4224 2.068
89.4527 2.588
89.4829 1.651
89.5132 2.120
89.5435 2.433
89.5738 2.174
89.6040 2.175
89.6343 2.333
89.6646 1.762
89.6949 2.336
89.7252 1.818
89.7554 2.341
89.7857 1.146
89.8160 2.451
89.8463 1.829
89.8766 1.364
89.9068 1.055
89.9371 1.111
89.9674 1.636
89.9977 0.859
90.0279 0.968
90.0582 1.182
90.0885 0.145
90.1188 1.140
90.1491 0.313
90.1793 0.319
90.2096 -0.040
90.2399 -0.137
90.2702 0.338
90.3005 1.231
90.3307 0.457
90.3610 0.360
90.3913 0.108
90.4216 0.116
90.4518 0.645
90.4821 0.237
90.5124 0.246
90.5427 0.046
90.5730 0.524
90.6032 0.430
90.6335 0.492
90.6638 0.450
90.6941 0.616
90.7244 0.262
90.7546 0.482
90.7849 -0.132
90.8152 -0.069
90.8455 -0.266
90.8758 -0.211
90.9060 0.365
90.9363 0.056
90.9666 0.528
90.9969 0.532
91.0271 0.067
91.0574 0.540
91.0877 0.388
91.1180 -0.232
91.1483 0.190
91.1785 0.403
91.2088 0.096
91.2391 0.415
91.2694 -0.308
91.2997 -0.042
91.3299 0.694
91.3602 0.076
91.3905 -0.073
91.4208 0.246
91.4510 0.150
91.4813 -0.311
91.5116 -0.113
91.5419 -0.176
91.5722 0.022
91.6024 -0.040
91.6327 0.211
91.6630 0.462
91.6933 0.349
91.7236 0.600
91.7538 0.592
91.7841 0.219
91.8144 0.471
91.8447 0.672
91.8749 0.560
91.9052 0.448
91.9355 -0.132
91.9658 0.018
91.9961 0.168
92.0263 0.005
92.0566 0.155
92.0869 0.306
92.1172 -0.064
92.1475 0.191
92.1777 0.706
92.2080 0.702
92.2383 0.385
92.2686 0.432
92.2988 -0.301
92.3291 0.477
92.3594 0.109
92.3897 -0.311
92.4200 -0.053
92.4502 0.101
92.4805 0.776
92.5108 0.566
92.5411 0.096
92.5714 0.668
92.6016 0.511
92.6319 0.823
92.6622 0.093
92.6925 -0.167
92.7227 0.145
92.7530 1.239
92.7833 1.084
92.8136 -0.113
92.8439 0.357
92.8741 0.879
92.9044 1.245
92.9347 0.466
92.9650 0.885
92.9953 0.627
93.0255 0.629
93.0558 0.685
93.0861 0.792
93.1164 1.264
93.1466 0.539
93.1769 0.543
93.2072 0.547
93.2375 0.291
93.2678 0.504
93.2980 0.040
93.3283 0.254
93.3586 0.259
93.3889 0.578
93.4192 0.011
93.4494 0.017
93.4797 0.180
93.5100 -0.022
93.5403 0.089
93.5706 -0.007
93.6008 0.417
93.6311 0.685
93.6614 0.537
93.6917 0.753
93.7219 0.137
93.7522 0.615
93.7825 -0.158
93.8128 0.425
93.8431 0.018
93.8733 -0.285
93.9036 0.015
93.9339 0.106
93.9642 1.136
93.9945 0.342
94.0247 0.747
94.0550 0.163
94.0853 0.048
94.1156 0.349
94.1458 -0.026
94.1761 0.015
94.2064 0.161
94.2367 0.620
94.2670 0.194
94.2972 0.184
94.3275 0.696
94.3578 0.218
94.3881 0.470
94.4184 0.983
94.4486 0.141
94.4789 0.914
94.5092 0.334
94.5395 0.691
94.5697 0.632
94.6000 0.677
94.6303 0.879
94.6606 0.351
94.6909 1.022
94.7211 1.121
94.7514 0.802
94.7817 1.318
94.8120 1.000
94.8423 1.412
94.8725 1.772
94.9028 1.872
94.9331 0.878
94.9634 1.447
94.9936 1.600
95.0239 1.857
95.0542 1.177
95.0845 1.851
95.1148 1.380
95.1450 1.794
95.1753 2.573
95.2056 1.738
95.2359 1.945
95.2662 1.631
95.2964 1.786
95.3267 2.306
95.3570 1.837
95.3873 1.785
95.4175 2.358
95.4478 2.150
95.4781 1.994
95.5084 1.838
95.5387 1.423
95.5689 1.164
95.5992 1.946
95.6295 1.063
95.6598 1.429
95.6901 1.796
95.7203 1.330
95.7506 0.239
95.7809 0.502
95.8112 0.818
95.8414 0.978
95.8717 0.721
95.9020 1.090
95.9323 -0.104
95.9626 0.474
95.9928 0.427
96.0231 0.796
96.0534 -0.136
96.0837 0.859
96.1140 0.292
96.1442 1.079
96.1745 0.669
96.2048 0.728
96.2351 0.214
96.2653 0.325
96.2956 0.489
96.3259 -0.077
96.3562 0.452
96.3865 0.148
96.4167 0.781
96.4470 -0.304
96.4773 0.017
96.5076 0.079
96.5379 0.505
96.5681 0.306
96.5984 0.056
96.6287 -0.247
96.6590 0.232
96.6893 -0.017
96.7195 0.410
96.7498 0.005
96.7801 0.433
96.8104 0.601
96.8406 -0.689
96.8709 -0.260
96.9012 0.212
96.9315 -0.200
96.9618 0.169
96.9920 0.226
97.0223 -0.238
97.0526 0.288
97.0829 0.918
97.1132 -0.066
97.1434 0.670
97.1737 -0.053
97.2040 -0.255
97.2343 -0.255
97.2645 0.006
97.2948 -0.305
97.3251 0.634
97.3554 0.635
97.3857 0.585
97.4159 0.222
97.4462 0.901
97.4765 0.800
97.5068 0.646
97.5371 -0.288
97.5673 -0.389
97.5976 0.329
97.6279 0.214
97.6582 -0.109
97.6884 0.402
97.7187 0.548
97.7490 0.538
97.7793 0.216
97.8096 0.728
97.8398 0.094
97.8701 0.554
97.9004 0.389
97.9307 0.694
97.9610 0.061
97.9912 0.001
98.0215 0.983
98.0518 1.288
98.0821 0.708
98.1123 0.025
98.1426 0.279
98.1729 0.845
98.2032 0.215
98.2335 0.782
98.2637 1.141
98.2940 0.719
98.3243 0.662
98.3546 0.762
98.3849 1.122
98.4151 1.326
98.4454 1.687
98.4757 0.694
98.5060 0.742
98.5362 1.469
98.5665 0.945
98.5968 1.099
98.6271 0.367
98.6574 1.198
98.6876 1.144
98.7179 0.830
98.7482 0.569
98.7785 0.776
98.8088 1.088
98.8390 0.514
98.8693 0.253
98.8996 0.566
98.9299 0.566
98.9601 0.671
98.9904 0.567
99.0207 0.099
99.0510 0.413
99.0813 0.571
99.1115 0.312
99.1418 -0.207
99.1721 0.577
99.2024 0.059
99.2327 0.530
99.2629 0.116
99.2932 0.276
99.3235 0.644
99.3538 -0.290
99.3841 0.287
99.4143 0.083
99.4446 0.505
99.4749 0.353
99.5052 0.306
99.5354 -0.522
99.5657 0.213
99.5960 0.166
99.6263 -0.088
99.6566 0.283
99.6868 0.185
99.7171 0.140
99.7474 0.043
99.7777 -0.002
99.8080 -0.150
99.8382 -0.038
99.8685 0.230
99.8988 -0.022
99.9291 0.039
99.9593 0.464
99.9896 0.317
100.0199 0.223
100.0502 -0.237
100.0805 -0.227
100.1107 0.148
100.1410 0.211
100.1713 0.325
100.2016 0.336
100.2319 0.035
100.2621 0.255
100.2924 0.371
100.3227 0.018
100.3530 0.499
100.3832 0.199
100.4135 0.107
100.4438 -0.244
100.4741 -0.148
100.5044 0.313
100.5346 0.046
100.5649 -0.222
100.5952 -0.020
100.6255 0.754
100.6558 -0.189
100.6860 0.325
100.7163 -0.305
100.7466 -0.207
100.7769 0.205
100.8071 0.043
100.8374 0.455
100.8677 0.242
100.8980 0.551
100.9283 0.859
100.9585 -0.082
100.9888 -0.086
101.0191 0.015
101.0494 0.169
101.0797 0.010
101.1099 0.059
101.1402 0.317
101.1705 0.211
101.2008 -0.363
101.2310 -0.160
101.2613 0.148
101.2916 0.403
101.3219 0.607
101.3522 0.551
101.3824 -0.025
101.4127 0.127
101.4430 0.228
101.4733 0.381
101.5036 0.587
101.5338 0.376
101.5641 0.009
101.5944 0.372
101.6247 0.318
101.6549 0.316
101.6852 -0.310
101.7155 -0.103
101.7458 -0.103
101.7761 -0.312
101.8063 0.208
101.8366 -0.260
101.8669 -0.170
101.8972 0.285
101.9275 0.271
101.9577 -0.159
101.9880 0.089
102.0183 0.441
102.0486 0.689
102.0788 -0.105
102.1091 0.300
102.1394 0.132
102.1697 0.172
102.2000 0.161
102.2302 0.202
102.2605 0.244
102.2908 0.442
102.3211 0.588
102.3514 0.317
102.3816 0.360
102.4119 -0.066
102.4422 0.654
102.4725 0.801
102.5028 0.584
102.5330 0.107
102.5633 0.099
102.5936 0.455
102.6239 0.031
102.6541 0.388
102.6844 1.110
102.7147 0.583
102.7450 0.784
102.7753 1.247
102.8055 0.668
102.8358 0.505
102.8661 0.656
102.8964 0.755
102.9267 0.906
102.9569 0.589
102.9872 0.688
103.0175 0.476
103.0478 0.732
103.0780 0.780
103.1083 0.568
103.1386 0.930
103.1689 0.093
103.1992 -0.482
103.2294 1.234
103.2597 0.346
103.2900 0.865
103.3203 0.498
103.3506 0.497
103.3808 0.287
103.4111 1.432
103.4414 0.442
103.4717 0.441
103.5019 0.024
103.5322 1.118
103.5625 0.598
103.5928 0.754
103.6231 1.068
103.6533 0.652
103.6836 0.445
103.7139 0.603
103.7442 1.229
103.7745 0.867
103.8047 1.025
103.8350 0.507
103.8653 1.083
103.8956 1.294
103.9258 1.714
103.9561 1.353
103.9864 1.097
104.0167 1.361
104.0470 0.428
104.0772 1.162
104.1075 1.687
104.1378 1.536
104.1681 1.125
104.1984 1.599
104.2286 0.407
104.2589 0.674
104.2892 1.045
104.3195 1.937
104.3497 0.589
104.3800 0.909
104.4103 1.177
104.4406 1.132
104.4709 0.984
104.5011 0.940
104.5314 1.157
104.5617 0.749
104.5920 0.706
104.6223 0.923
104.6525 0.568
104.6828 0.369
104.7131 0.796
104.7434 0.337
104.7736 -0.121
104.8039 0.359
104.8342 0.005
104.8645 0.120
104.8948 0.080
104.9250 -0.065
104.9553 0.676
104.9856 0.480
105.0159 0.597
105.0462 0.193
105.0764 0.518
105.1067 0.115
105.1370 -0.132
105.1673 -0.066
105.1975 -0.260
105.2278 -0.153
105.2581 0.267
105.2884 -0.146
105.3187 0.431
105.3489 0.488
105.3792 0.232
105.4095 0.289
105.4398 0.086
105.4701 0.143
105.5003 0.045
105.5306 1.040
105.5609 0.161
105.5912 1.001
105.6215 0.070
105.6517 0.910
105.6820 0.917
105.7123 -0.169
105.7426 0.255
105.7728 -0.050
105.8031 -0.250
105.8334 0.004
105.8637 -0.003
105.8940 0.199
105.9242 0.245
105.9545 0.291
105.9848 0.182
106.0151 0.020
106.0454 0.119
106.0756 0.375
106.1059 -0.098
106.1362 0.418
106.1665 -0.055
106.1967 0.462
106.2270 0.094
106.2573 0.508
106.2876 0.296
106.3179 0.241
106.3481 0.239
106.3784 -0.128
106.4087 0.183
106.4390 0.233
106.4693 0.023
106.4995 -0.082
106.5298 -0.083
106.5601 -0.136
106.5904 0.488
106.6206 -0.085
106.6509 -0.033
106.6812 -0.084
106.7115 0.281
106.7418 0.438
106.7720 0.543
106.8023 -0.289
106.8326 0.233
106.8629 0.496
106.8932 0.237
106.9234 -0.333
106.9537 -0.070
106.9840 0.297
107.0143 -0.325
107.0445 -0.165
107.0748 -0.005
107.1051 0.259
107.1354 0.211
107.1657 0.007
107.1959 0.637
107.2262 0.069
107.2565 0.647
107.2868 0.340
107.3171 -0.280
107.3473 0.455
107.3776 0.149
107.4079 -0.053
107.4382 0.006
107.4684 -0.352
107.4987 0.593
107.5290 0.965
107.5593 0.452
107.5896 0.407
107.6198 0.207
107.6501 0.007
107.6804 -0.244
107.7107 0.007
107.7410 0.363
107.7712 0.250
107.8015 0.555
107.8318 0.182
107.8621 -0.242
107.8923 -0.250
107.9226 0.262
107.9529 0.044
107.9832 0.348
108.0135 -0.129
108.0437 0.019
108.0740 -0.250
108.1043 0.003
108.1346 0.360
108.1649 0.145
108.1951 0.242
108.2254 -0.130
108.2557 -0.188
108.2860 -0.038
108.3163 -0.044
108.3465 0.263
108.3768 -0.055
108.4071 -0.373
108.4374 0.195
108.4676 0.242
108.4979 -0.179
108.5282 -0.079
108.5585 0.803
108.5888 -0.191
108.6190 -0.142
108.6493 0.480
108.6796 -0.096
108.7099 0.318
108.7402 0.055
108.7704 0.157
108.8007 -0.105
108.8310 -0.159
108.8613 -0.056
108.8915 -0.266
108.9218 -0.171
108.9521 -0.025
108.9824 0.382
109.0127 -0.252
109.0429 0.207
109.0732 -0.010
109.1035 -0.070
109.1338 -0.131
109.1641 0.382
109.1943 -0.563
109.2246 0.419
109.2549 0.047
109.2852 -0.220
109.3154 0.242
109.3457 0.131
109.3760 -0.084
109.4063 0.119
109.4366 0.061
109.4668 0.628
109.4971 -0.210
109.5274 -0.215
109.5577 -0.011
109.5880 0.349
109.6182 0.397
109.6485 0.393
109.6788 0.076
109.7091 0.021
109.7393 0.174
109.7696 -0.194
109.7999 -0.092
109.8302 0.374
109.8605 0.841
109.8907 -0.255
109.9210 0.264
109.9513 0.315
109.9816 0.314
110.0119 0.417
110.0421 0.104
110.0724 -0.261
110.1027 0.572
110.1330 0.312
110.1632 1.458
110.1935 1.198
110.2238 0.418
110.2541 0.367
110.2844 0.421
110.3146 0.735
110.3449 1.049
110.3752 0.426
110.4055 0.220
110.4358 0.484
110.4660 0.799
110.4963 0.698
110.5266 0.233
110.5569 0.653
110.5871 1.438
110.6174 0.349
110.6477 0.614
110.6780 0.358
110.7083 0.102
110.7385 0.524
110.7688 0.165
110.7991 0.275
110.8294 0.125
110.8597 -0.181
110.8899 0.658
110.9202 0.405
110.9505 0.099
110.9808 0.731
111.0110 -0.094
111.0413 1.163
111.0716 0.078
111.1019 0.607
111.1322 0.147
111.1624 0.676
111.1927 -0.200
111.2230 0.486
111.2533 0.600
111.2836 0.506
111.3138 0.255
111.3441 0.526
111.3744 0.172
111.4047 -0.234
111.4350 0.506
111.4652 0.049
111.4955 0.373
111.5258 -0.084
111.5561 0.345
111.5863 -0.320
111.6166 -0.255
111.6469 0.106
111.6772 0.572
111.7075 -0.315
111.7377 -0.213
111.7680 -0.007
111.7983 0.356
111.8286 0.094
111.8589 0.145
111.8891 0.092
111.9194 0.143
111.9497 0.403
111.9800 -0.326
112.0102 0.403
112.0405 0.508
112.0708 0.300
112.1011 0.301
112.1314 0.146
112.1616 -0.374
112.1919 -0.008
112.2222 0.203
112.2525 0.153
112.2828 0.103
112.3130 -0.520
112.3433 -0.048
112.3736 0.007
112.4039 0.688
112.4341 0.640
112.4644 0.123
112.4947 0.179
112.5250 -0.441
112.5553 -0.130
112.5855 0.286
112.6158 0.233
112.6461 0.389
112.6764 0.233
112.7067 -0.132
112.7369 0.129
112.7672 -0.079
112.7975 0.235
112.8278 -0.754
112.8580 -0.184
112.8883 0.021
112.9186 0.278
112.9489 0.588
112.9792 0.742
113.0094 0.063
113.0397 0.270
113.0700 -0.461
113.1003 -0.150
113.1306 -0.099
113.1608 0.213
113.1911 0.004
113.2214 -0.309
113.2517 0.160
113.2819 -0.048
113.3122 0.212
113.3425 0.005
113.3728 0.110
113.4031 0.059
113.4333 0.165
113.4636 -0.094
113.4939 0.377
113.5242 0.014
113.5545 0.017
113.5847 0.280
113.6150 -0.342
113.6453 0.026
113.6756 0.238
113.7058 -0.123
113.7361 0.298
113.7664 -0.427
113.7967 -0.058
113.8270 0.207
113.8572 -0.205
113.8875 0.790
113.9178 0.588
113.9481 -0.032
113.9784 0.026
114.0086 -0.019
114.0389 -0.065
114.0692 0.359
114.0995 0.835
114.1298 0.113
114.1600 -0.244
114.1903 -0.211
114.2206 0.031
114.2509 0.169
114.2811 -0.058
114.3114 0.133
114.3417 0.011
114.3720 0.150
114.4023 0.341
114.4325 0.272
114.4628 -0.109
114.4931 -0.229
114.5234 0.119
114.5537 0.312
114.5839 0.036
114.6142 0.281
114.6445 0.006
114.6748 0.147
114.7050 0.028
114.7353 0.431
114.7656 -0.260
114.7959 0.143
114.8262 0.077
114.8564 -0.092
114.8867 0.051
114.9170 0.507
114.9473 0.703
114.9776 0.430
115.0078 -0.207
115.0381 0.459
115.0684 -0.334
115.0987 -0.085
115.1289 -0.096
115.1592 0.102
115.1895 -0.013
115.2198 -0.023
115.2501 0.071
115.2803 0.062
115.3106 0.729
115.3409 1.033
115.3712 0.242
115.4015 0.078
115.4317 -0.295
115.4620 0.321
115.4923 1.095
115.5226 0.202
115.5528 0.455
115.5831 0.864
115.6134 0.389
115.6437 0.903
115.6740 0.688
115.7042 1.255
115.7345 1.041
115.7648 0.723
115.7951 1.030
115.8254 0.608
115.8556 1.280
115.8859 1.224
115.9162 0.803
115.9465 0.799
115.9767 0.795
116.0070 0.895
116.0373 0.944
116.0676 1.202
116.0979 1.824
116.1281 2.394
116.1584 1.402
116.1887 1.452
116.2190 1.867
116.2493 2.230
116.2795 1.135
116.3098 1.655
116.3401 1.654
116.3704 1.237
116.4006 0.977
116.4309 1.758
116.4612 0.716
116.4915 0.457
116.5218 1.499
116.5520 1.396
116.5823 1.710
116.6126 0.670
116.6429 1.453
116.6732 0.621
116.7034 0.415
116.7337 0.730
116.7640 0.421
116.7943 0.840
116.8245 1.104
116.8548 0.587
116.8851 0.174
116.9154 0.647
116.9457 0.859
116.9759 0.656
117.0062 0.556
117.0365 0.145
117.0668 0.359
117.0971 0.625
117.1273 0.683
117.1576 0.168
117.1879 0.226
117.2182 0.181
117.2485 0.656
117.2787 -0.378
117.3090 0.254
117.3393 0.210
117.3696 0.062
117.3998 0.591
117.4301 0.547
117.4604 0.139
117.4907 -0.060
117.5210 0.313
117.5512 0.114
117.5815 0.332
117.6118 0.030
117.6421 0.144
117.6724 0.623
117.7026 0.842
117.7329 0.541
117.7632 -0.177
117.7935 0.043
117.8237 0.054
117.8540 0.119
117.8843 -0.494
117.9146 0.300
117.9449 0.000
117.9751 0.377
118.0054 0.130
118.0357 -0.013
118.0660 -0.311
118.0963 0.056
118.1265 0.267
118.1568 0.062
118.1871 -0.091
118.2174 0.121
118.2476 0.385
118.2779 -0.080
118.3082 -0.023
118.3385 0.242
118.3688 0.455
118.3990 -0.425
118.4293 -0.003
118.4596 0.159
118.4899 -0.356
118.5202 0.171
118.5504 -0.031
118.5807 -0.181
118.6110 -0.382
118.6413 0.771
118.6715 -0.211
118.7018 0.057
118.7321 -0.144
118.7624 -0.083
118.7927 0.133
118.8229 0.194
118.8532 0.620
118.8835 0.264
118.9138 0.534
118.9441 -0.029
118.9743 0.293
119.0046 0.616
119.0349 -0.207
119.0652 0.898
119.0954 0.127
119.1257 0.035
119.1560 -0.006
119.1863 0.266
119.2166 0.174
119.2468 0.759
119.2771 -0.114
119.3074 -0.049
119.3377 -0.244
119.3680 0.041
119.3982 0.275
119.4285 0.405
119.4588 0.170
119.4891 -0.117
119.5193 0.795
119.5496 0.145
119.5799 -0.089
119.6102 -0.166
119.6405 0.278
119.6707 -0.372
119.7010 0.177
119.7313 -0.107
119.7616 -0.027
119.7919 -0.207
119.8221 0.135
119.8524 0.060
119.8827 0.037
119.9130 -0.090
119.9433 -0.216
119.9735 -0.290
120.0038 0.000
