'Id: "" Comment: "" Operator: "Lab Manager" Anode: "Cu" Scantype: "Locked Coupled" TimePerStep: "19.2" X: "9999" Y: "9999" Z: "9999" 
10.0015 2.865
10.0318 2.760
10.0620 2.760
10.0923 3.333
10.1226 3.333
10.1529 3.646
10.1832 3.073
10.2134 3.646
10.2437 3.073
10.2740 2.500
10.3043 3.854
10.3346 2.396
10.3648 3.646
10.3951 2.812
10.4254 2.656
10.4557 3.177
10.4859 2.031
10.5162 3.542
10.5465 2.865
10.5768 2.500
10.6071 3.021
10.6373 3.229
10.6676 2.500
10.6979 3.177
10.7282 2.969
10.7585 2.969
10.7887 3.229
10.8190 2.552
10.8493 2.865
10.8796 2.969
10.9098 2.396
10.9401 2.552
10.9704 2.031
11.0007 2.708
11.0310 3.385
11.0612 3.385
11.0915 3.698
11.1218 3.021
11.1521 3.021
11.1824 2.396
11.2126 3.437
11.2429 3.906
11.2732 3.490
11.3035 2.917
11.3337 3.125
11.3640 2.865
11.3943 2.344
11.4246 3.594
11.4549 2.812
11.4851 3.021
11.5154 2.500
11.5457 3.437
11.5760 2.187
11.6063 2.917
11.6365 4.062
11.6668 2.865
11.6971 2.812
11.7274 3.385
11.7577 2.448
11.7879 2.552
11.8182 2.135
11.8485 3.750
11.8788 3.229
11.9090 2.812
11.9393 2.969
11.9696 3.125
11.9999 3.854
12.0302 2.604
12.0604 3.437
12.0907 2.448
12.1210 3.437
12.1513 2.604
12.1816 3.021
12.2118 3.281
12.2421 3.073
12.2724 3.125
12.3027 3.437
12.3329 3.333
12.3632 2.969
12.3935 2.969
12.4238 3.281
12.4541 2.292
12.4843 1.979
12.5146 3.490
12.5449 2.760
12.5752 3.177
12.6055 2.187
12.6357 2.292
12.6660 2.292
12.6963 2.656
12.7266 2.448
12.7568 3.021
12.7871 2.812
12.8174 2.500
12.8477 2.604
12.8780 1.771
12.9082 1.927
12.9385 1.771
12.9688 2.448
12.9991 2.604
13.0294 2.865
13.0596 2.292
13.0899 3.333
13.1202 3.073
13.1505 2.031
13.1807 2.187
13.2110 2.344
13.2413 1.875
13.2716 2.083
13.3019 2.500
13.3321 2.396
13.3624 3.073
13.3927 2.292
13.4230 2.292
13.4533 2.604
13.4835 2.656
13.5138 2.760
13.5441 2.708
13.5744 2.708
13.6046 2.240
13.6349 2.448
13.6652 2.604
13.6955 1.927
13.7258 2.396
13.7560 2.240
13.7863 2.500
13.8166 2.187
13.8469 2.240
13.8772 2.031
13.9074 2.500
13.9377 2.760
13.9680 2.083
13.9983 2.031
14.0285 2.448
14.0588 1.927
14.0891 2.292
14.1194 1.771
14.1497 2.500
14.1799 1.979
14.2102 2.240
14.2405 2.292
14.2708 2.187
14.3011 2.552
14.3313 1.875
14.3616 2.135
14.3919 2.448
14.4222 2.552
14.4524 2.500
14.4827 2.760
14.5130 2.187
14.5433 1.979
14.5736 2.448
14.6038 2.187
14.6341 2.448
14.6644 2.396
14.6947 2.708
14.7250 1.667
14.7552 1.302
14.7855 2.135
14.8158 2.135
14.8461 1.719
14.8764 1.927
14.9066 2.083
14.9369 2.031
14.9672 1.667
14.9975 1.667
15.0277 2.344
15.0580 2.344
15.0883 2.552
15.1186 2.708
15.1489 2.292
15.1791 2.552
15.2094 2.552
15.2397 2.448
15.2700 1.771
15.3003 1.667
15.3305 1.823
15.3608 2.500
15.3911 2.083
15.4214 2.135
15.4516 1.875
15.4819 2.448
15.5122 1.875
15.5425 2.500
15.5728 1.875
15.6030 2.292
15.6333 2.031
15.6636 2.344
15.6939 2.448
15.7242 2.135
15.7544 2.083
15.7847 2.448
15.8150 1.719
15.8453 1.667
15.8755 1.562
15.9058 2.604
15.9361 1.562
15.9664 2.396
15.9967 2.604
16.0269 1.719
16.0572 1.823
16.0875 2.031
16.1178 2.604
16.1481 2.135
16.1783 2.031
16.2086 2.135
16.2389 1.979
16.2692 1.875
16.2994 2.135
16.3297 2.187
16.3600 2.083
16.3903 2.031
16.4206 1.875
16.4508 1.875
16.4811 2.135
16.5114 1.823
16.5417 2.500
16.5720 1.719
16.6022 2.031
16.6325 2.135
16.6628 1.823
16.6931 1.198
16.7233 1.823
16.7536 1.979
16.7839 2.135
16.8142 1.562
16.8445 1.250
16.8747 2.240
16.9050 1.667
16.9353 2.240
16.9656 1.458
16.9959 1.198
17.0261 2.396
17.0564 1.979
17.0867 2.135
17.1170 2.240
17.1472 2.344
17.1775 2.292
17.2078 1.667
17.2381 1.667
17.2684 2.187
17.2986 2.187
17.3289 2.187
17.3592 1.875
17.3895 1.927
17.4198 1.927
17.4500 1.927
17.4803 1.615
17.5106 0.885
17.5409 1.875
17.5712 1.406
17.6014 2.083
17.6317 1.615
17.6620 2.344
17.6923 1.406
17.7225 2.812
17.7528 2.135
17.7831 1.302
17.8134 1.615
17.8437 2.656
17.8739 1.719
17.9042 1.615
17.9345 1.927
17.9648 1.667
17.9951 2.135
18.0253 2.135
18.0556 1.771
18.0859 1.771
18.1162 1.719
18.1464 1.823
18.1767 2.187
18.2070 1.823
18.2373 1.615
18.2676 1.458
18.2978 1.562
18.3281 2.500
18.3584 1.406
18.3887 1.823
18.4190 2.083
18.4492 2.187
18.4795 1.875
18.5098 1.823
18.5401 1.510
18.5703 2.187
18.6006 2.031
18.6309 1.615
18.6612 1.250
18.6915 1.927
18.7217 1.667
18.7520 1.875
18.7823 1.927
18.8126 1.875
18.8429 2.083
18.8731 1.719
18.9034 1.667
18.9337 1.823
18.9640 1.771
18.9942 2.344
19.0245 1.875
19.0548 1.354
19.0851 1.823
19.1154 1.562
19.1456 1.146
19.1759 1.771
19.2062 1.823
19.2365 2.031
19.2668 1.562
19.2970 1.406
19.3273 1.875
19.3576 1.979
19.3879 2.500
19.4181 1.875
19.4484 1.771
19.4787 1.875
19.5090 1.875
19.5393 1.615
19.5695 1.979
19.5998 1.771
19.6301 1.771
19.6604 1.979
19.6907 1.615
19.7209 1.667
19.7512 1.562
19.7815 1.562
19.8118 1.458
19.8420 1.771
19.8723 1.875
19.9026 1.406
19.9329 2.292
19.9632 1.615
19.9934 1.562
20.0237 1.510
20.0540 1.562
20.0843 1.771
20.1146 1.562
20.1448 1.510
20.1751 1.927
20.2054 1.875
20.2357 1.250
20.2659 1.979
20.2962 2.083
20.3265 1.458
20.3568 1.250
20.3871 1.458
20.4173 1.719
20.4476 1.458
20.4779 1.823
20.5082 1.510
20.5385 1.562
20.5687 2.135
20.5990 1.615
20.6293 2.396
20.6596 1.042
20.6899 1.250
20.7201 1.458
20.7504 1.250
20.7807 1.719
20.8110 1.667
20.8412 1.927
20.8715 1.510
20.9018 2.083
20.9321 1.823
20.9624 2.135
20.9926 1.875
21.0229 1.615
21.0532 1.719
21.0835 1.667
21.1138 1.615
21.1440 1.927
21.1743 2.135
21.2046 1.302
21.2349 1.198
21.2651 1.667
21.2954 1.354
21.3257 1.250
21.3560 2.396
21.3863 1.562
21.4165 2.031
21.4468 2.135
21.4771 1.354
21.5074 1.302
21.5377 1.354
21.5679 2.135
21.5982 1.250
21.6285 1.719
21.6588 0.937
21.6890 1.771
21.7193 1.875
21.7496 1.458
21.7799 1.719
21.8102 1.354
21.8404 1.719
21.8707 1.615
21.9010 1.510
21.9313 1.354
21.9616 1.406
21.9918 1.823
22.0221 1.406
22.0524 0.990
22.0827 1.354
22.1129 1.198
22.1432 1.458
22.1735 1.458
22.2038 1.146
22.2341 1.719
22.2643 1.354
22.2946 1.562
22.3249 1.094
22.3552 1.354
22.3855 1.510
22.4157 1.615
22.4460 1.615
22.4763 1.771
22.5066 1.562
22.5368 1.406
22.5671 1.510
22.5974 1.354
22.6277 1.615
22.6580 1.354
22.6882 1.458
22.7185 1.354
22.7488 1.562
22.7791 1.354
22.8094 1.562
22.8396 1.615
22.8699 1.562
22.9002 1.250
22.9305 2.187
22.9607 1.667
22.9910 0.990
23.0213 1.406
23.0516 1.458
23.0819 1.875
23.1121 1.771
23.1424 1.198
23.1727 1.094
23.2030 1.667
23.2333 1.615
23.2635 1.719
23.2938 1.354
23.3241 0.937
23.3544 1.719
23.3846 1.406
23.4149 1.615
23.4452 1.667
23.4755 1.719
23.5058 1.354
23.5360 1.927
23.5663 1.823
23.5966 1.823
23.6269 1.354
23.6572 1.354
23.6874 1.198
23.7177 1.302
23.7480 1.667
23.7783 1.302
23.8086 1.562
23.8388 1.562
23.8691 1.250
23.8994 1.823
23.9297 1.615
23.9599 1.198
23.9902 1.302
24.0205 1.719
24.0508 1.562
24.0811 1.667
24.1113 1.458
24.1416 1.719
24.1719 1.667
24.2022 1.458
24.2325 1.354
24.2627 1.406
24.2930 2.292
24.3233 1.458
24.3536 1.458
24.3838 1.771
24.4141 1.823
24.4444 1.562
24.4747 1.354
24.5050 2.344
24.5352 1.458
24.5655 1.562
24.5958 1.354
24.6261 1.302
24.6564 1.615
24.6866 1.562
24.7169 1.354
24.7472 1.615
24.7775 1.667
24.8077 2.083
24.8380 1.615
24.8683 1.250
24.8986 1.458
24.9289 1.042
24.9591 1.146
24.9894 1.615
25.0197 1.302
25.0500 0.990
25.0803 2.240
25.1105 1.250
25.1408 1.823
25.1711 1.667
25.2014 1.510
25.2316 1.302
25.2619 1.771
25.2922 1.406
25.3225 1.667
25.3528 1.354
25.3830 1.406
25.4133 1.302
25.4436 1.667
25.4739 1.562
25.5042 1.354
25.5344 1.458
25.5647 1.458
25.5950 1.562
25.6253 1.771
25.6555 1.302
25.6858 1.927
25.7161 1.562
25.7464 1.667
25.7767 1.823
25.8069 1.042
25.8372 1.458
25.8675 1.667
25.8978 1.406
25.9281 1.198
25.9583 1.354
25.9886 1.719
26.0189 1.615
26.0492 2.031
26.0794 1.406
26.1097 1.250
26.1400 1.198
26.1703 1.406
26.2006 1.458
26.2308 1.094
26.2611 1.510
26.2914 1.250
26.3217 1.458
26.3520 1.198
26.3822 0.990
26.4125 1.250
26.4428 1.615
26.4731 2.083
26.5034 1.615
26.5336 1.510
26.5639 1.250
26.5942 1.354
26.6245 1.354
26.6547 1.719
26.6850 1.510
26.7153 1.458
26.7456 1.406
26.7759 1.146
26.8061 1.875
26.8364 1.354
26.8667 1.354
26.8970 0.990
26.9273 1.250
26.9575 1.406
26.9878 1.406
27.0181 1.406
27.0484 0.937
27.0786 1.562
27.1089 1.354
27.1392 0.885
27.1695 2.031
27.1998 1.250
27.2300 1.979
27.2603 1.615
27.2906 1.667
27.3209 1.562
27.3512 1.458
27.3814 1.510
27.4117 1.406
27.4420 1.615
27.4723 1.198
27.5025 1.615
27.5328 1.250
27.5631 1.667
27.5934 1.823
27.6237 1.302
27.6539 1.406
27.6842 1.146
27.7145 1.771
27.7448 1.615
27.7751 2.031
27.8053 1.146
27.8356 1.094
27.8659 1.771
27.8962 1.667
27.9264 1.510
27.9567 1.927
27.9870 1.094
28.0173 1.094
28.0476 1.615
28.0778 1.250
28.1081 1.042
28.1384 1.406
28.1687 1.510
28.1990 1.667
28.2292 1.198
28.2595 1.667
28.2898 1.615
28.3201 1.667
28.3503 1.875
28.3806 1.250
28.4109 1.302
28.4412 1.823
28.4715 1.354
28.5017 2.031
28.5320 1.823
28.5623 1.771
28.5926 1.354
28.6229 1.823
28.6531 1.667
28.6834 1.250
28.7137 1.875
28.7440 1.458
28.7742 1.458
28.8045 1.510
28.8348 1.406
28.8651 1.875
28.8954 1.250
28.9256 1.875
28.9559 1.510
28.9862 1.927
29.0165 1.615
29.0468 1.771
29.0770 1.302
29.1073 1.458
29.1376 1.667
29.1679 1.875
29.1981 1.615
29.2284 1.198
29.2587 1.198
29.2890 1.875
29.3193 1.615
29.3495 1.042
29.3798 1.562
29.4101 1.094
29.4404 1.094
29.4707 1.458
29.5009 1.302
29.5312 1.510
29.5615 1.406
29.5918 1.562
29.6221 2.135
29.6523 1.927
29.6826 1.458
29.7129 1.667
29.7432 1.302
29.7734 1.146
29.8037 1.354
29.8340 1.458
29.8643 2.031
29.8946 1.719
29.9248 1.406
29.9551 2.187
29.9854 2.083
30.0157 1.354
30.0460 1.615
30.0762 1.927
30.1065 1.562
30.1368 2.135
30.1671 1.979
30.1973 1.823
30.2276 1.510
30.2579 2.344
30.2882 1.875
30.3185 2.083
30.3487 1.719
30.3790 1.979
30.4093 2.552
30.4396 1.771
30.4699 2.604
30.5001 1.927
30.5304 2.187
30.5607 2.240
30.5910 2.292
30.6212 1.823
30.6515 2.500
30.6818 2.292
30.7121 2.240
30.7424 2.344
30.7726 2.656
30.8029 2.552
30.8332 3.177
30.8635 2.812
30.8938 3.125
30.9240 2.969
30.9543 3.542
30.9846 3.385
31.0149 3.594
31.0451 2.969
31.0754 3.281
31.1057 3.437
31.1360 3.906
31.1663 4.792
31.1965 4.635
31.2268 4.896
31.2571 5.625
31.2874 7.552
31.3177 7.500
31.3479 7.865
31.3782 10.208
31.4085 10.469
31.4388 11.354
31.4690 13.542
31.4993 15.990
31.5296 20.885
31.5599 20.573
31.5902 23.073
31.6204 22.500
31.6507 21.354
31.6810 20.469
31.7113 18.594
31.7416 16.042
31.7718 14.740
31.8021 10.885
31.8324 11.198
31.8627 7.760
31.8929 6.823
31.9232 7.031
31.9535 5.781
31.9838 5.469
32.0141 4.010
32.0443 4.427
32.0746 4.948
32.1049 4.323
32.1352 4.167
32.1655 4.635
32.1957 4.375
32.2260 3.177
32.2563 3.385
32.2866 2.708
32.3169 3.490
32.3471 3.125
32.3774 2.135
32.4077 2.969
32.4380 3.490
32.4682 2.656
32.4985 2.187
32.5288 2.708
32.5591 2.083
32.5894 1.823
32.6196 2.240
32.6499 2.083
32.6802 2.240
32.7105 2.240
32.7408 2.500
32.7710 2.031
32.8013 1.615
32.8316 1.823
32.8619 2.083
32.8921 2.135
32.9224 1.927
32.9527 2.969
32.9830 2.865
33.0133 2.604
33.0435 2.135
33.0738 2.031
33.1041 2.760
33.1344 2.083
33.1647 2.500
33.1949 2.240
33.2252 2.552
33.2555 2.083
33.2858 2.552
33.3160 2.083
33.3463 2.812
33.3766 1.510
33.4069 1.979
33.4372 2.135
33.4674 2.083
33.4977 2.344
33.5280 2.448
33.5583 2.812
33.5886 2.292
33.6188 1.719
33.6491 2.344
33.6794 2.812
33.7097 2.760
33.7399 3.281
33.7702 2.656
33.8005 2.812
33.8308 3.385
33.8611 3.333
33.8913 4.062
33.9216 4.792
33.9519 4.271
33.9822 5.208
34.0125 5.469
34.0427 6.146
34.0730 6.302
34.1033 9.323
34.1336 10.937
34.1638 13.490
34.1941 16.510
34.2244 19.583
34.2547 23.021
34.2850 25.833
34.3152 22.500
34.3455 19.010
34.3758 15.312
34.4061 13.385
34.4364 10.208
34.4666 6.562
34.4969 6.302
34.5272 4.740
34.5575 4.635
34.5877 4.323
34.6180 4.635
34.6483 3.281
34.6786 3.594
34.7089 2.396
34.7391 3.542
34.7694 3.333
34.7997 2.656
34.8300 3.542
34.8603 2.969
34.8905 3.281
34.9208 2.969
34.9511 2.708
34.9814 2.187
35.0116 2.812
35.0419 3.073
35.0722 2.865
35.1025 3.385
35.1328 2.500
35.1630 3.021
35.1933 3.698
35.2236 2.812
35.2539 3.333
35.2842 2.812
35.3144 3.073
35.3447 3.698
35.3750 3.125
35.4053 3.125
35.4356 3.542
35.4658 3.750
35.4961 4.115
35.5264 4.375
35.5567 4.740
35.5869 4.219
35.6172 4.687
35.6475 5.052
35.6778 5.885
35.7081 6.562
35.7383 7.812
35.7686 7.865
35.7989 7.760
35.8292 7.865
35.8595 9.479
35.8897 12.396
35.9200 15.260
35.9503 17.812
35.9806 20.729
36.0108 22.187
36.0411 29.323
36.0714 30.052
36.1017 31.406
36.1320 31.094
36.1622 28.281
36.1925 25.729
36.2228 23.021
36.2531 18.906
36.2834 17.135
36.3136 14.167
36.3439 11.823
36.3742 10.000
36.4045 8.698
36.4347 8.229
36.4650 6.250
36.4953 6.510
36.5256 5.885
36.5559 5.104
36.5861 5.104
36.6164 3.958
36.6467 4.062
36.6770 3.802
36.7073 3.437
36.7375 3.542
36.7678 3.490
36.7981 2.448
36.8284 3.021
36.8586 3.385
36.8889 2.396
36.9192 2.448
36.9495 2.240
36.9798 2.656
37.0100 2.031
37.0403 2.604
37.0706 2.500
37.1009 2.135
37.1312 1.615
37.1614 1.406
37.1917 1.667
37.2220 2.135
37.2523 2.083
37.2825 1.771
37.3128 2.448
37.3431 2.344
37.3734 2.292
37.4037 1.875
37.4339 1.719
37.4642 1.667
37.4945 1.667
37.5248 1.615
37.5551 1.823
37.5853 1.510
37.6156 2.344
37.6459 1.302
37.6762 1.667
37.7064 1.979
37.7367 1.354
37.7670 1.667
37.7973 1.667
37.8276 1.198
37.8578 1.458
37.8881 1.875
37.9184 1.719
37.9487 2.031
37.9790 1.146
38.0092 1.823
38.0395 1.510
38.0698 0.990
38.1001 1.458
38.1304 1.354
38.1606 1.250
38.1909 1.406
38.2212 1.302
38.2515 1.146
38.2817 1.458
38.3120 1.615
38.3423 1.198
38.3726 1.354
38.4029 1.510
38.4331 1.198
38.4634 0.937
38.4937 1.667
38.5240 1.354
38.5543 1.458
38.5845 1.615
38.6148 1.094
38.6451 1.406
38.6754 1.719
38.7056 1.094
38.7359 1.094
38.7662 1.302
38.7965 1.094
38.8268 0.937
38.8570 1.042
38.8873 1.042
38.9176 0.833
38.9479 1.042
38.9782 1.302
39.0084 1.354
39.0387 0.990
39.0690 1.354
39.0993 0.937
39.1295 0.677
39.1598 1.042
39.1901 1.146
39.2204 1.198
39.2507 1.250
39.2809 1.615
39.3112 0.729
39.3415 0.990
39.3718 1.146
39.4021 1.354
39.4323 1.875
39.4626 0.937
39.4929 1.562
39.5232 1.146
39.5534 0.937
39.5837 1.198
39.6140 1.458
39.6443 0.781
39.6746 0.781
39.7048 1.198
39.7351 0.937
39.7654 1.198
39.7957 1.094
39.8260 1.094
39.8562 0.521
39.8865 0.781
39.9168 1.042
39.9471 1.458
39.9773 1.094
40.0076 0.625
40.0379 1.198
40.0682 0.885
40.0985 0.990
40.1287 0.885
40.1590 0.833
40.1893 1.250
40.2196 0.885
40.2499 1.042
40.2801 0.729
40.3104 1.250
40.3407 0.885
40.3710 1.250
40.4012 0.833
40.4315 0.729
40.4618 1.302
40.4921 1.354
40.5224 0.885
40.5526 0.937
40.5829 1.302
40.6132 0.937
40.6435 0.937
40.6738 0.937
40.7040 1.094
40.7343 0.781
40.7646 0.781
40.7949 1.042
40.8251 0.885
40.8554 1.198
40.8857 0.833
40.9160 0.781
40.9463 0.937
40.9765 1.250
41.0068 1.094
41.0371 0.833
41.0674 1.042
41.0977 0.781
41.1279 0.781
41.1582 1.146
41.1885 0.885
41.2188 1.146
41.2491 0.990
41.2793 0.625
41.3096 1.302
41.3399 0.990
41.3702 0.833
41.4004 0.729
41.4307 1.042
41.4610 1.302
41.4913 0.937
41.5216 0.990
41.5518 1.198
41.5821 0.990
41.6124 0.885
41.6427 1.458
41.6730 0.990
41.7032 0.833
41.7335 0.990
41.7638 1.094
41.7941 1.094
41.8243 0.625
41.8546 0.885
41.8849 0.833
41.9152 1.042
41.9455 0.885
41.9757 1.146
42.0060 1.094
42.0363 1.250
42.0666 0.417
42.0969 1.094
42.1271 1.094
42.1574 0.781
42.1877 1.042
42.2180 0.937
42.2482 0.625
42.2785 0.990
42.3088 1.042
42.3391 1.094
42.3694 1.198
42.3996 1.146
42.4299 1.094
42.4602 0.781
42.4905 1.094
42.5208 0.729
42.5510 0.573
42.5813 0.990
42.6116 0.833
42.6419 0.625
42.6721 0.990
42.7024 0.885
42.7327 0.885
42.7630 0.833
42.7933 1.354
42.8235 1.146
42.8538 0.885
42.8841 0.833
42.9144 0.625
42.9447 0.521
42.9749 0.729
43.0052 0.990
43.0355 1.146
43.0658 1.094
43.0960 0.677
43.1263 0.833
43.1566 0.677
43.1869 0.833
43.2172 0.937
43.2474 0.625
43.2777 1.354
43.3080 0.729
43.3383 1.302
43.3686 0.990
43.3988 0.365
43.4291 1.042
43.4594 0.990
43.4897 1.042
43.5199 0.885
43.5502 0.885
43.5805 0.937
43.6108 1.094
43.6411 1.146
43.6713 0.469
43.7016 0.833
43.7319 0.885
43.7622 0.990
43.7925 1.094
43.8227 0.781
43.8530 0.677
43.8833 1.042
43.9136 1.094
43.9439 0.990
43.9741 1.042
44.0044 0.990
44.0347 1.406
44.0650 1.250
44.0952 0.625
44.1255 0.729
44.1558 0.937
44.1861 0.573
44.2164 0.937
44.2466 0.833
44.2769 1.042
44.3072 1.042
44.3375 0.573
44.3678 1.042
44.3980 1.354
44.4283 0.885
44.4586 1.146
44.4889 1.042
44.5191 1.094
44.5494 0.833
44.5797 1.198
44.6100 0.990
44.6403 1.042
44.6705 1.042
44.7008 1.510
44.7311 0.573
44.7614 1.146
44.7917 1.042
44.8219 0.781
44.8522 0.937
44.8825 1.042
44.9128 0.729
44.9430 1.302
44.9733 0.729
45.0036 0.990
45.0339 0.937
45.0642 0.885
45.0944 1.146
45.1247 1.094
45.1550 0.781
45.1853 0.885
45.2156 0.781
45.2458 1.458
45.2761 0.573
45.3064 0.885
45.3367 0.885
45.3669 1.302
45.3972 0.677
45.4275 0.937
45.4578 0.677
45.4881 1.094
45.5183 0.885
45.5486 1.094
45.5789 1.198
45.6092 0.729
45.6395 1.146
45.6697 0.937
45.7000 0.885
45.7303 1.302
45.7606 1.406
45.7908 0.937
45.8211 1.094
45.8514 1.354
45.8817 0.885
45.9120 1.146
45.9422 0.885
45.9725 0.990
46.0028 1.094
46.0331 0.677
46.0634 1.094
46.0936 1.354
46.1239 1.094
46.1542 1.302
46.1845 1.458
46.2147 0.990
46.2450 0.937
46.2753 0.781
46.3056 1.146
46.3359 1.562
46.3661 1.042
46.3964 1.094
46.4267 1.354
46.4570 1.250
46.4873 0.937
46.5175 1.146
46.5478 1.562
46.5781 1.615
46.6084 1.042
46.6386 1.146
46.6689 1.458
46.6992 1.146
46.7295 1.667
46.7598 1.823
46.7900 1.615
46.8203 1.719
46.8506 1.406
46.8809 1.510
46.9112 1.458
46.9414 1.771
46.9717 1.615
47.0020 2.604
47.0323 1.875
47.0626 1.458
47.0928 2.292
47.1231 2.344
47.1534 2.604
47.1837 2.865
47.2139 3.333
47.2442 4.167
47.2745 4.792
47.3048 5.052
47.3351 6.146
47.3653 5.469
47.3956 5.833
47.4259 5.937
47.4562 6.146
47.4865 4.479
47.5167 4.323
47.5470 4.479
47.5773 4.010
47.6076 3.542
47.6378 2.552
47.6681 2.865
47.6984 1.979
47.7287 3.333
47.7590 2.240
47.7892 2.448
47.8195 1.406
47.8498 1.458
47.8801 1.458
47.9104 1.719
47.9406 1.615
47.9709 1.510
48.0012 1.771
48.0315 1.094
48.0617 1.927
48.0920 1.406
48.1223 1.302
48.1526 0.990
48.1829 1.458
48.2131 1.250
48.2434 1.198
48.2737 1.094
48.3040 1.042
48.3343 0.937
48.3645 1.042
48.3948 1.146
48.4251 1.354
48.4554 1.198
48.4856 1.354
48.5159 1.302
48.5462 1.250
48.5765 0.937
48.6068 0.937
48.6370 1.510
48.6673 0.833
48.6976 1.094
48.7279 1.042
48.7582 1.250
48.7884 1.042
48.8187 0.833
48.8490 0.833
48.8793 0.625
48.9095 0.990
48.9398 1.354
48.9701 0.937
49.0004 1.302
49.0307 0.990
49.0609 1.302
49.0912 1.406
49.1215 1.042
49.1518 0.937
49.1821 0.781
49.2123 1.198
49.2426 0.885
49.2729 1.354
49.3032 0.677
49.3334 0.677
49.3637 0.937
49.3940 0.573
49.4243 1.250
49.4546 0.990
49.4848 0.885
49.5151 1.042
49.5454 0.781
49.5757 1.302
49.6060 0.937
49.6362 1.406
49.6665 1.302
49.6968 1.458
49.7271 0.937
49.7574 0.990
49.7876 1.042
49.8179 1.094
49.8482 0.937
49.8785 0.937
49.9087 0.625
49.9390 0.990
49.9693 1.094
49.9996 1.094
50.0299 1.354
50.0601 1.458
50.0904 1.354
50.1207 0.937
50.1510 0.833
50.1813 1.094
50.2115 1.042
50.2418 0.833
50.2721 0.833
50.3024 0.990
50.3326 0.625
50.3629 0.417
50.3932 1.354
50.4235 0.937
50.4538 1.198
50.4840 1.406
50.5143 1.094
50.5446 1.042
50.5749 1.094
50.6052 1.146
50.6354 0.729
50.6657 0.781
50.6960 1.094
50.7263 0.990
50.7565 1.198
50.7868 1.250
50.8171 0.729
50.8474 0.573
50.8777 1.354
50.9079 0.990
50.9382 0.729
50.9685 1.146
50.9988 1.198
51.0291 1.302
51.0593 0.833
51.0896 0.885
51.1199 0.937
51.1502 1.146
51.1804 1.146
51.2107 0.573
51.2410 0.677
51.2713 1.198
51.3016 1.094
51.3318 0.885
51.3621 0.833
51.3924 1.042
51.4227 0.781
51.4530 1.042
51.4832 1.094
51.5135 1.146
51.5438 1.510
51.5741 0.833
51.6043 1.042
51.6346 0.885
51.6649 0.990
51.6952 0.885
51.7255 0.677
51.7557 0.937
51.7860 0.937
51.8163 0.885
51.8466 0.937
51.8769 1.146
51.9071 1.146
51.9374 0.677
51.9677 1.146
51.9980 1.094
52.0282 0.833
52.0585 0.677
52.0888 0.469
52.1191 1.094
52.1494 1.094
52.1796 0.781
52.2099 0.677
52.2402 0.729
52.2705 0.990
52.3008 0.781
52.3310 1.354
52.3613 0.573
52.3916 1.094
52.4219 0.573
52.4521 0.990
52.4824 0.781
52.5127 0.937
52.5430 1.042
52.5733 0.833
52.6035 0.677
52.6338 0.990
52.6641 1.146
52.6944 0.781
52.7247 1.302
52.7549 0.729
52.7852 0.885
52.8155 0.885
52.8458 1.146
52.8761 0.937
52.9063 1.146
52.9366 1.302
52.9669 0.833
52.9972 0.990
53.0274 0.990
53.0577 1.198
53.0880 1.042
53.1183 0.885
53.1486 0.781
53.1788 0.729
53.2091 0.990
53.2394 1.094
53.2697 1.302
53.3000 0.625
53.3302 1.042
53.3605 0.625
53.3908 1.354
53.4211 0.677
53.4513 0.781
53.4816 0.833
53.5119 1.094
53.5422 0.781
53.5725 0.833
53.6027 0.677
53.6330 0.833
53.6633 1.094
53.6936 0.885
53.7239 1.042
53.7541 0.833
53.7844 1.042
53.8147 0.937
53.8450 0.885
53.8752 0.937
53.9055 1.146
53.9358 0.885
53.9661 1.250
53.9964 1.250
54.0266 1.354
54.0569 0.781
54.0872 1.198
54.1175 1.302
54.1478 0.833
54.1780 1.146
54.2083 1.406
54.2386 0.990
54.2689 0.937
54.2991 0.729
54.3294 1.094
54.3597 0.729
54.3900 0.990
54.4203 1.250
54.4505 1.094
54.4808 0.937
54.5111 1.146
54.5414 0.990
54.5717 0.885
54.6019 1.042
54.6322 0.729
54.6625 1.094
54.6928 0.729
54.7230 1.198
54.7533 0.729
54.7836 0.833
54.8139 1.042
54.8442 0.885
54.8744 1.094
54.9047 1.042
54.9350 1.042
54.9653 0.521
54.9956 0.990
55.0258 0.729
55.0561 1.146
55.0864 1.042
55.1167 1.146
55.1469 0.990
55.1772 0.990
55.2075 1.302
55.2378 1.406
55.2681 0.937
55.2983 0.990
55.3286 1.042
55.3589 1.250
55.3892 0.937
55.4195 1.250
55.4497 1.354
55.4800 1.146
55.5103 0.781
55.5406 1.406
55.5709 1.042
55.6011 1.198
55.6314 1.094
55.6617 1.406
55.6920 1.719
55.7222 1.042
55.7525 1.406
55.7828 1.562
55.8131 1.823
55.8434 1.354
55.8736 1.562
55.9039 2.135
55.9342 2.292
55.9645 1.615
55.9948 1.615
56.0250 2.031
56.0553 1.406
56.0856 2.083
56.1159 3.490
56.1461 2.865
56.1764 2.708
56.2067 3.854
56.2370 2.552
56.2673 3.906
56.2975 4.740
56.3278 5.000
56.3581 5.573
56.3884 7.135
56.4187 5.781
56.4489 7.135
56.4792 6.823
56.5095 6.562
56.5398 6.667
56.5700 6.302
56.6003 5.990
56.6306 4.948
56.6609 4.271
56.6912 4.115
56.7214 3.906
56.7517 3.437
56.7820 2.865
56.8123 2.760
56.8426 2.604
56.8728 2.708
56.9031 1.771
56.9334 1.719
56.9637 1.042
56.9939 1.719
57.0242 2.031
57.0545 1.354
57.0848 1.094
57.1151 1.406
57.1453 0.990
57.1756 1.042
57.2059 0.885
57.2362 1.302
57.2665 1.562
57.2967 1.875
57.3270 1.354
57.3573 1.146
57.3876 1.406
57.4178 1.146
57.4481 1.250
57.4784 1.719
57.5087 0.781
57.5390 0.573
57.5692 1.042
57.5995 0.781
57.6298 0.885
57.6601 0.833
57.6904 0.729
57.7206 0.677
57.7509 0.833
57.7812 0.937
57.8115 1.146
57.8417 0.833
57.8720 0.729
57.9023 1.198
57.9326 1.146
57.9629 1.042
57.9931 1.510
58.0234 0.885
58.0537 1.250
58.0840 0.990
58.1143 0.937
58.1445 0.729
58.1748 0.573
58.2051 1.406
58.2354 0.885
58.2656 0.937
58.2959 1.094
58.3262 0.937
58.3565 0.937
58.3868 0.469
58.4170 0.573
58.4473 0.833
58.4776 1.615
58.5079 0.937
58.5382 0.833
58.5684 0.937
58.5987 0.990
58.6290 0.833
58.6593 0.781
58.6896 0.990
58.7198 0.729
58.7501 1.250
58.7804 0.990
58.8107 0.729
58.8409 0.885
58.8712 0.937
58.9015 0.781
58.9318 0.729
58.9621 0.573
58.9923 0.729
59.0226 1.250
59.0529 0.990
59.0832 0.885
59.1135 0.729
59.1437 1.146
59.1740 0.937
59.2043 0.885
59.2346 0.990
59.2648 0.677
59.2951 0.885
59.3254 0.937
59.3557 1.094
59.3860 0.937
59.4162 0.417
59.4465 0.833
59.4768 0.937
59.5071 0.781
59.5374 0.833
59.5676 0.937
59.5979 0.573
59.6282 0.625
59.6585 0.937
59.6887 0.677
59.7190 0.573
59.7493 1.094
59.7796 1.042
59.8099 0.833
59.8401 0.885
59.8704 0.833
59.9007 0.937
59.9310 0.885
59.9613 0.729
59.9915 0.469
60.0218 0.729
60.0521 0.625
60.0824 0.885
60.1126 0.677
60.1429 0.885
60.1732 0.729
60.2035 0.781
60.2338 0.677
60.2640 0.573
60.2943 0.729
60.3246 1.198
60.3549 0.729
60.3852 0.625
60.4154 0.937
60.4457 0.781
60.4760 0.625
60.5063 0.833
60.5365 0.937
60.5668 1.146
60.5971 0.937
60.6274 0.781
60.6577 0.885
60.6879 1.042
60.7182 1.042
60.7485 0.677
60.7788 0.885
60.8091 0.885
60.8393 0.833
60.8696 0.885
60.8999 1.146
60.9302 0.729
60.9604 0.937
60.9907 0.781
61.0210 0.729
61.0513 0.937
61.0816 1.250
61.1118 0.990
61.1421 0.885
61.1724 0.990
61.2027 0.885
61.2330 0.781
61.2632 1.042
61.2935 1.042
61.3238 0.833
61.3541 0.573
61.3844 0.990
61.4146 0.781
61.4449 0.625
61.4752 0.833
61.5055 0.833
61.5357 0.573
61.5660 0.677
61.5963 1.354
61.6266 0.781
61.6569 1.146
61.6871 1.146
61.7174 1.615
61.7477 0.990
61.7780 1.094
61.8083 1.094
61.8385 0.885
61.8688 1.250
61.8991 1.406
61.9294 1.094
61.9596 1.406
61.9899 1.094
62.0202 1.094
62.0505 1.198
62.0808 1.927
62.1110 1.458
62.1413 1.510
62.1716 1.146
62.2019 1.771
62.2322 1.667
62.2624 1.562
62.2927 1.510
62.3230 2.240
62.3533 1.927
62.3835 2.187
62.4138 2.552
62.4441 2.552
62.4744 2.396
62.5047 3.698
62.5349 3.646
62.5652 3.802
62.5955 3.906
62.6258 5.000
62.6561 6.198
62.6863 5.417
62.7166 5.521
62.7469 5.833
62.7772 4.323
62.8074 4.271
62.8377 5.469
62.8680 4.896
62.8983 4.479
62.9286 3.385
62.9588 2.865
62.9891 3.594
63.0194 2.708
63.0497 2.917
63.0800 2.135
63.1102 1.979
63.1405 2.031
63.1708 2.292
63.2011 1.771
63.2313 1.719
63.2616 1.302
63.2919 1.302
63.3222 0.833
63.3525 1.198
63.3827 1.406
63.4130 1.146
63.4433 1.354
63.4736 1.406
63.5039 0.937
63.5341 1.406
63.5644 1.198
63.5947 1.146
63.6250 0.885
63.6552 0.885
63.6855 0.729
63.7158 0.833
63.7461 0.990
63.7764 1.094
63.8066 0.937
63.8369 0.573
63.8672 0.990
63.8975 1.198
63.9278 1.042
63.9580 0.781
63.9883 1.094
64.0186 0.625
64.0489 0.781
64.0791 1.042
64.1094 0.781
64.1397 1.094
64.1700 0.677
64.2003 0.833
64.2305 0.781
64.2608 0.729
64.2911 0.833
64.3214 1.094
64.3517 0.781
64.3819 0.677
64.4122 1.042
64.4425 0.677
64.4728 1.198
64.5031 0.729
64.5333 0.677
64.5636 0.833
64.5939 0.781
64.6242 0.677
64.6544 0.729
64.6847 0.833
64.7150 0.833
64.7453 1.198
64.7756 0.573
64.8058 0.781
64.8361 0.885
64.8664 0.833
64.8967 0.990
64.9270 0.937
64.9572 0.677
64.9875 0.937
65.0178 0.781
65.0481 0.781
65.0783 0.781
65.1086 0.365
65.1389 0.937
65.1692 0.521
65.1995 1.042
65.2297 0.677
65.2600 0.781
65.2903 1.146
65.3206 0.990
65.3509 0.677
65.3811 0.781
65.4114 0.781
65.4417 0.833
65.4720 0.677
65.5022 0.833
65.5325 0.729
65.5628 0.781
65.5931 0.729
65.6234 0.990
65.6536 0.781
65.6839 1.250
65.7142 0.885
65.7445 1.250
65.7748 0.833
65.8050 0.833
65.8353 1.198
65.8656 0.833
65.8959 1.354
65.9261 1.042
65.9564 1.042
65.9867 1.042
66.0170 1.302
66.0473 0.937
66.0775 1.510
66.1078 1.250
66.1381 1.979
66.1684 1.354
66.1987 1.406
66.2289 1.823
66.2592 1.771
66.2895 1.198
66.3198 0.937
66.3500 1.146
66.3803 1.510
66.4106 1.094
66.4409 1.302
66.4712 1.042
66.5014 1.042
66.5317 0.937
66.5620 1.198
66.5923 1.198
66.6226 1.250
66.6528 0.990
66.6831 1.146
66.7134 0.885
66.7437 1.042
66.7739 1.302
66.8042 1.250
66.8345 1.510
66.8648 0.885
66.8951 1.354
66.9253 0.781
66.9556 0.937
66.9859 0.937
67.0162 0.990
67.0465 0.833
67.0767 1.146
67.1070 1.146
67.1373 1.250
67.1676 1.198
67.1978 1.458
67.2281 1.042
67.2584 1.458
67.2887 0.885
67.3190 1.302
67.3492 1.146
67.3795 1.302
67.4098 1.823
67.4401 2.344
67.4704 2.031
67.5006 1.823
67.5309 2.917
67.5612 2.083
67.5915 2.344
67.6218 3.490
67.6520 2.552
67.6823 3.177
67.7126 3.437
67.7429 3.177
67.7731 3.854
67.8034 4.531
67.8337 3.958
67.8640 4.219
67.8943 4.062
67.9245 3.958
67.9548 4.167
67.9851 3.437
68.0154 3.385
68.0457 3.646
68.0759 3.021
68.1062 2.187
68.1365 2.292
68.1668 2.031
68.1970 1.875
68.2273 1.615
68.2576 1.875
68.2879 1.979
68.3182 2.083
68.3484 1.094
68.3787 1.667
68.4090 1.562
68.4393 1.354
68.4696 1.510
68.4998 1.667
68.5301 1.094
68.5604 0.990
68.5907 1.615
68.6209 1.719
68.6512 1.615
68.6815 1.354
68.7118 1.250
68.7421 1.510
68.7723 1.979
68.8026 1.823
68.8329 1.719
68.8632 1.927
68.8935 2.135
68.9237 1.823
68.9540 2.344
68.9843 2.396
69.0146 2.656
69.0448 1.771
69.0751 2.500
69.1054 1.927
69.1357 1.927
69.1660 1.354
69.1962 1.667
69.2265 1.875
69.2568 1.354
69.2871 0.885
69.3174 1.146
69.3476 1.250
69.3779 1.198
69.4082 1.094
69.4385 1.094
69.4687 1.198
69.4990 0.781
69.5293 1.094
69.5596 0.781
69.5899 1.146
69.6201 1.302
69.6504 1.042
69.6807 0.365
69.7110 0.781
69.7413 0.833
69.7715 1.250
69.8018 0.990
69.8321 1.406
69.8624 0.781
69.8926 0.312
69.9229 0.521
69.9532 0.677
69.9835 0.417
70.0138 1.042
70.0440 0.417
70.0743 0.677
70.1046 0.781
70.1349 0.365
70.1652 0.990
70.1954 0.833
70.2257 0.781
70.2560 0.781
70.2863 0.521
70.3166 0.885
70.3468 0.885
70.3771 0.469
70.4074 0.677
70.4377 0.521
70.4679 1.094
70.4982 0.677
70.5285 0.781
70.5588 0.729
70.5891 0.833
70.6193 0.417
70.6496 0.781
70.6799 0.625
70.7102 0.781
70.7405 0.417
70.7707 0.781
70.8010 0.521
70.8313 0.781
70.8616 0.521
70.8918 0.573
70.9221 0.625
70.9524 0.521
70.9827 0.781
71.0130 0.677
71.0432 0.781
71.0735 0.833
71.1038 1.406
71.1341 0.573
71.1644 0.521
71.1946 0.417
71.2249 0.417
71.2552 0.521
71.2855 0.729
71.3157 0.417
71.3460 0.521
71.3763 0.521
71.4066 0.417
71.4369 0.677
71.4671 0.625
71.4974 0.573
71.5277 0.521
71.5580 0.417
71.5883 0.625
71.6185 0.521
71.6488 0.937
71.6791 0.625
71.7094 0.521
71.7396 0.937
71.7699 0.469
71.8002 0.521
71.8305 0.573
71.8608 0.729
71.8910 0.469
71.9213 0.365
71.9516 0.312
71.9819 0.417
72.0122 0.573
72.0424 0.260
72.0727 0.573
72.1030 0.208
72.1333 0.729
72.1635 0.833
72.1938 0.781
72.2241 0.469
72.2544 0.521
72.2847 0.729
72.3149 0.937
72.3452 0.729
72.3755 0.729
72.4058 0.729
72.4361 0.625
72.4663 0.417
72.4966 1.198
72.5269 0.729
72.5572 0.729
72.5874 0.729
72.6177 0.937
72.6480 0.729
72.6783 0.990
72.7086 0.833
72.7388 0.573
72.7691 0.260
72.7994 0.365
72.8297 0.573
72.8600 0.729
72.8902 0.885
72.9205 0.729
72.9508 0.625
72.9811 0.573
73.0113 0.365
73.0416 0.521
73.0719 0.729
73.1022 0.573
73.1325 0.312
73.1627 0.990
73.1930 0.573
73.2233 0.625
73.2536 0.677
73.2839 0.833
73.3141 0.573
73.3444 0.469
73.3747 0.729
73.4050 0.729
73.4353 0.729
73.4655 0.833
73.4958 0.573
73.5261 0.417
73.5564 0.573
73.5866 0.677
73.6169 0.573
73.6472 0.729
73.6775 0.781
73.7078 0.729
73.7380 0.677
73.7683 0.677
73.7986 0.365
73.8289 0.781
73.8592 0.729
73.8894 0.469
73.9197 0.521
73.9500 0.885
73.9803 0.573
74.0105 0.625
74.0408 0.521
74.0711 0.469
74.1014 0.625
74.1317 0.625
74.1619 0.573
74.1922 0.625
74.2225 0.521
74.2528 0.573
74.2831 0.521
74.3133 0.781
74.3436 0.729
74.3739 0.208
74.4042 0.417
74.4344 0.729
74.4647 0.625
74.4950 0.885
74.5253 0.521
74.5556 0.833
74.5858 0.469
74.6161 0.469
74.6464 0.625
74.6767 0.625
74.7070 0.729
74.7372 0.729
74.7675 0.573
74.7978 0.521
74.8281 0.573
74.8583 0.729
74.8886 0.573
74.9189 0.573
74.9492 0.729
74.9795 0.417
75.0097 0.677
75.0400 0.625
75.0703 0.729
75.1006 0.677
75.1309 0.521
75.1611 0.573
75.1914 0.365
75.2217 0.677
75.2520 0.677
75.2822 0.625
75.3125 0.573
75.3428 0.781
75.3731 0.729
75.4034 0.729
75.4336 0.573
75.4639 0.625
75.4942 0.885
75.5245 0.937
75.5548 0.312
75.5850 0.833
75.6153 0.521
75.6456 0.729
75.6759 0.521
75.7061 0.677
75.7364 0.417
75.7667 0.521
75.7970 0.833
75.8273 0.625
75.8575 0.573
75.8878 0.729
75.9181 0.729
75.9484 0.729
75.9787 0.573
76.0089 0.833
76.0392 0.417
76.0695 0.469
76.0998 0.677
76.1301 0.469
76.1603 0.417
76.1906 0.573
76.2209 0.625
76.2512 0.781
76.2814 0.625
76.3117 0.677
76.3420 0.781
76.3723 0.885
76.4026 0.729
76.4328 0.469
76.4631 0.937
76.4934 0.677
76.5237 0.677
76.5540 1.042
76.5842 0.937
76.6145 0.729
76.6448 0.625
76.6751 0.990
76.7053 0.573
76.7356 0.937
76.7659 0.937
76.7962 1.146
76.8265 1.562
76.8567 0.833
76.8870 0.990
76.9173 0.937
76.9476 1.042
76.9779 0.833
77.0081 0.677
77.0384 1.302
77.0687 0.781
77.0990 0.885
77.1292 1.146
77.1595 0.729
77.1898 1.146
77.2201 0.885
77.2504 0.417
77.2806 0.833
77.3109 0.833
77.3412 0.990
77.3715 0.781
77.4018 0.625
77.4320 0.573
77.4623 0.833
77.4926 0.937
77.5229 0.729
77.5531 0.833
77.5834 0.312
77.6137 0.729
77.6440 0.729
77.6743 0.937
77.7045 0.417
77.7348 0.469
77.7651 0.833
77.7954 0.469
77.8257 0.729
77.8559 0.781
77.8862 0.729
77.9165 0.729
77.9468 0.677
77.9770 0.521
78.0073 0.677
78.0376 0.573
78.0679 0.625
78.0982 0.729
78.1284 0.625
78.1587 0.469
78.1890 0.677
78.2193 0.417
78.2496 0.625
78.2798 0.729
78.3101 0.677
78.3404 0.469
78.3707 0.260
78.4009 0.781
78.4312 0.365
78.4615 0.521
78.4918 0.521
78.5221 0.573
78.5523 0.833
78.5826 0.417
78.6129 0.521
78.6432 0.729
78.6735 0.521
78.7037 0.677
78.7340 0.677
78.7643 0.469
78.7946 0.625
78.8248 0.677
78.8551 0.677
78.8854 0.625
78.9157 0.729
78.9460 0.677
78.9762 0.312
79.0065 0.729
79.0368 0.625
79.0671 0.729
79.0974 0.781
79.1276 0.573
79.1579 0.729
79.1882 0.573
79.2185 0.885
79.2488 0.677
79.2790 0.677
79.3093 0.469
79.3396 0.885
79.3699 0.729
79.4001 0.781
79.4304 0.729
79.4607 0.677
79.4910 0.833
79.5213 0.833
79.5515 0.885
79.5818 0.937
79.6121 0.729
79.6424 0.625
79.6727 0.260
79.7029 0.781
79.7332 0.677
79.7635 0.312
79.7938 0.417
79.8240 0.573
79.8543 0.833
79.8846 0.677
79.9149 0.729
79.9452 0.573
79.9754 0.677
80.0057 0.312
80.0360 0.729
80.0663 0.729
80.0966 0.365
80.1268 0.312
80.1571 0.677
80.1874 0.625
80.2177 0.417
80.2479 0.729
80.2782 0.521
80.3085 0.729
80.3388 0.365
80.3691 0.521
80.3993 0.469
80.4296 0.990
80.4599 0.677
80.4902 0.677
80.5205 0.521
80.5507 0.625
80.5810 0.521
80.6113 0.729
80.6416 0.365
80.6718 0.677
80.7021 0.625
80.7324 0.573
80.7627 0.885
80.7930 0.781
80.8232 0.729
80.8535 0.677
80.8838 0.781
80.9141 0.677
80.9444 0.990
80.9746 0.521
81.0049 1.146
81.0352 0.729
81.0655 0.625
81.0957 0.677
81.1260 0.937
81.1563 0.937
81.1866 0.260
81.2169 0.573
81.2471 0.885
81.2774 0.521
81.3077 0.937
81.3380 0.625
81.3683 0.625
81.3985 0.833
81.4288 0.729
81.4591 0.781
81.4894 0.469
81.5196 0.729
81.5499 0.937
81.5802 0.417
81.6105 0.729
81.6408 0.573
81.6710 1.146
81.7013 0.625
81.7316 0.573
81.7619 0.573
81.7922 0.625
81.8224 0.469
81.8527 0.729
81.8830 0.625
81.9133 0.573
81.9436 0.729
81.9738 0.937
82.0041 0.833
82.0344 0.312
82.0647 0.573
82.0949 0.625
82.1252 0.573
82.1555 0.469
82.1858 0.625
82.2161 0.729
82.2463 0.573
82.2766 0.677
82.3069 0.469
82.3372 0.521
82.3675 0.729
82.3977 0.625
82.4280 1.042
82.4583 0.469
82.4886 0.625
82.5188 0.521
82.5491 0.729
82.5794 0.937
82.6097 0.469
82.6400 0.677
82.6702 0.625
82.7005 0.729
82.7308 0.312
82.7611 0.781
82.7914 0.573
82.8216 0.781
82.8519 0.937
82.8822 0.521
82.9125 0.677
82.9427 0.469
82.9730 0.677
83.0033 0.729
83.0336 0.625
83.0639 0.625
83.0941 0.469
83.1244 0.417
83.1547 0.469
83.1850 0.573
83.2153 0.260
83.2455 0.677
83.2758 0.677
83.3061 1.146
83.3364 0.417
83.3666 0.729
83.3969 0.677
83.4272 0.469
83.4575 0.417
83.4878 0.573
83.5180 0.625
83.5483 0.417
83.5786 0.729
83.6089 0.573
83.6392 0.469
83.6694 0.312
83.6997 0.365
83.7300 0.469
83.7603 0.365
83.7905 0.937
83.8208 0.260
83.8511 0.729
83.8814 0.625
83.9117 0.417
83.9419 0.469
83.9722 0.469
84.0025 0.573
84.0328 0.312
84.0631 0.729
84.0933 0.625
84.1236 0.573
84.1539 0.469
84.1842 0.573
84.2144 0.625
84.2447 0.521
84.2750 0.365
84.3053 0.417
84.3356 0.521
84.3658 0.469
84.3961 0.729
84.4264 0.312
84.4567 0.625
84.4870 0.417
84.5172 0.729
84.5475 0.521
84.5778 0.365
84.6081 0.729
84.6383 0.469
84.6686 0.625
84.6989 0.781
84.7292 0.729
84.7595 0.625
84.7897 0.365
84.8200 0.469
84.8503 0.625
84.8806 0.365
84.9109 0.521
84.9411 0.521
84.9714 0.625
85.0017 0.625
85.0320 0.781
85.0623 0.729
85.0925 0.521
85.1228 0.677
85.1531 0.625
85.1834 0.417
85.2136 0.521
85.2439 0.885
85.2742 0.729
85.3045 0.677
85.3348 0.521
85.3650 0.573
85.3953 0.469
85.4256 0.260
85.4559 0.729
85.4862 0.417
85.5164 0.573
85.5467 0.365
85.5770 0.417
85.6073 0.417
85.6375 0.729
85.6678 0.417
85.6981 0.625
85.7284 0.729
85.7587 0.521
85.7889 0.573
85.8192 0.417
85.8495 0.521
85.8798 0.469
85.9101 0.469
85.9403 0.417
85.9706 0.625
86.0009 0.521
86.0312 0.625
86.0614 0.729
86.0917 0.729
86.1220 0.625
86.1523 0.469
86.1826 0.312
86.2128 0.625
86.2431 0.625
86.2734 0.521
86.3037 0.521
86.3340 0.521
86.3642 0.937
86.3945 0.937
86.4248 0.417
86.4551 0.885
86.4853 0.365
86.5156 0.573
86.5459 0.521
86.5762 0.729
86.6065 0.729
86.6367 0.521
86.6670 0.573
86.6973 0.729
86.7276 0.312
86.7579 0.729
86.7881 0.625
86.8184 0.573
86.8487 0.469
86.8790 0.365
86.9092 0.937
86.9395 0.521
86.9698 0.417
87.0001 0.469
87.0304 1.198
87.0606 0.677
87.0909 0.365
87.1212 0.729
87.1515 0.573
87.1818 0.469
87.2120 0.677
87.2423 0.469
87.2726 0.677
87.3029 0.365
87.3331 0.781
87.3634 0.729
87.3937 0.729
87.4240 0.885
87.4543 0.521
87.4845 0.469
87.5148 0.885
87.5451 0.729
87.5754 0.677
87.6057 0.365
87.6359 0.677
87.6662 0.573
87.6965 0.677
87.7268 0.937
87.7571 0.573
87.7873 0.521
87.8176 0.365
87.8479 0.469
87.8782 0.573
87.9084 0.677
87.9387 0.365
87.9690 0.312
87.9993 0.260
88.0296 0.625
88.0598 0.521
88.0901 0.521
88.1204 0.677
88.1507 0.625
88.1810 0.573
88.2112 0.729
88.2415 0.625
88.2718 0.677
88.3021 0.417
88.3323 0.781
88.3626 0.521
88.3929 0.677
88.4232 0.573
88.4535 0.469
88.4837 0.729
88.5140 0.573
88.5443 0.729
88.5746 0.833
88.6049 0.729
88.6351 0.729
88.6654 0.885
88.6957 0.521
88.7260 0.781
88.7562 0.677
88.7865 0.885
88.8168 0.573
88.8471 0.573
88.8774 0.573
88.9076 0.677
88.9379 1.354
88.9682 0.781
88.9985 0.677
89.0288 0.729
89.0590 0.729
89.0893 1.198
89.1196 0.781
89.1499 0.833
89.1801 1.146
89.2104 0.990
89.2407 0.937
89.2710 1.198
89.3013 0.729
89.3315 0.937
89.3618 1.198
89.3921 1.146
89.4224 0.990
89.4527 0.990
89.4829 1.146
89.5132 0.937
89.5435 1.250
89.5738 1.250
89.6040 1.250
89.6343 1.458
89.6646 1.302
89.6949 1.094
89.7252 0.729
89.7554 1.042
89.7857 1.250
89.8160 0.937
89.8463 0.885
89.8766 0.937
89.9068 0.937
89.9371 0.833
89.9674 0.937
89.9977 0.781
90.0279 1.094
90.0582 0.469
90.0885 0.937
90.1188 0.625
90.1491 0.625
90.1793 0.833
90.2096 0.521
90.2399 1.042
90.2702 0.625
90.3005 0.625
90.3307 0.521
90.3610 0.625
90.3913 1.250
90.4216 0.625
90.4518 0.521
90.4821 0.573
90.5124 0.365
90.5427 0.729
90.5730 0.625
90.6032 0.521
90.6335 0.677
90.6638 0.417
90.6941 0.573
90.7244 0.990
90.7546 0.677
90.7849 0.469
90.8152 0.781
90.8455 0.729
90.8758 0.677
90.9060 0.365
90.9363 0.625
90.9666 0.625
90.9969 0.729
91.0271 0.833
91.0574 0.312
91.0877 0.573
91.1180 0.781
91.1483 0.885
91.1785 0.729
91.2088 0.677
91.2391 0.677
91.2694 0.729
91.2997 0.729
91.3299 0.521
91.3602 0.625
91.3905 0.521
91.4208 0.573
91.4510 0.521
91.4813 0.729
91.5116 0.729
91.5419 0.469
91.5722 0.469
91.6024 0.521
91.6327 0.625
91.6630 0.729
91.6933 0.521
91.7236 0.677
91.7538 0.260
91.7841 0.729
91.8144 0.625
91.8447 0.417
91.8749 0.729
91.9052 0.573
91.9355 0.365
91.9658 0.469
91.9961 0.729
92.0263 0.521
92.0566 0.677
92.0869 0.781
92.1172 0.677
92.1475 0.521
92.1777 0.677
92.2080 0.417
92.2383 0.365
92.2686 0.573
92.2988 0.469
92.3291 0.677
92.3594 0.729
92.3897 0.521
92.4200 0.677
92.4502 0.625
92.4805 0.781
92.5108 0.625
92.5411 0.312
92.5714 1.042
92.6016 0.729
92.6319 1.146
92.6622 0.573
92.6925 0.729
92.7227 0.729
92.7530 0.729
92.7833 1.094
92.8136 0.937
92.8439 0.365
92.8741 0.417
92.9044 0.469
92.9347 0.521
92.9650 0.677
92.9953 0.833
93.0255 0.573
93.0558 0.729
93.0861 0.885
93.1164 0.729
93.1466 0.521
93.1769 0.781
93.2072 0.729
93.2375 0.312
93.2678 0.729
93.2980 0.729
93.3283 0.469
93.3586 0.625
93.3889 0.521
93.4192 0.729
93.4494 0.781
93.4797 0.833
93.5100 1.406
93.5403 0.990
93.5706 0.573
93.6008 0.469
93.6311 0.937
93.6614 0.729
93.6917 0.573
93.7219 0.729
93.7522 0.365
93.7825 0.677
93.8128 0.625
93.8431 0.469
93.8733 0.677
93.9036 0.677
93.9339 0.937
93.9642 0.521
93.9945 0.417
94.0247 0.625
94.0550 0.312
94.0853 0.833
94.1156 0.469
94.1458 0.729
94.1761 0.729
94.2064 0.885
94.2367 0.312
94.2670 0.677
94.2972 0.573
94.3275 0.677
94.3578 0.729
94.3881 0.990
94.4184 0.573
94.4486 0.573
94.4789 0.677
94.5092 0.729
94.5395 0.937
94.5697 1.042
94.6000 0.625
94.6303 0.677
94.6606 0.417
94.6909 0.833
94.7211 0.573
94.7514 1.146
94.7817 0.729
94.8120 0.729
94.8423 1.146
94.8725 0.625
94.9028 0.781
94.9331 0.885
94.9634 1.042
94.9936 1.146
95.0239 0.833
95.0542 0.885
95.0845 0.937
95.1148 1.250
95.1450 1.406
95.1753 1.719
95.2056 1.250
95.2359 0.885
95.2662 1.406
95.2964 1.198
95.3267 1.094
95.3570 1.302
95.3873 1.042
95.4175 1.094
95.4478 1.042
95.4781 1.146
95.5084 0.885
95.5387 0.729
95.5689 1.042
95.5992 1.094
95.6295 1.094
95.6598 1.302
95.6901 0.937
95.7203 1.198
95.7506 0.885
95.7809 0.521
95.8112 0.729
95.8414 0.469
95.8717 0.573
95.9020 0.729
95.9323 0.729
95.9626 0.521
95.9928 0.625
96.0231 0.260
96.0534 0.469
96.0837 0.521
96.1140 0.729
96.1442 0.417
96.1745 0.625
96.2048 1.094
96.2351 0.573
96.2653 0.625
96.2956 0.573
96.3259 0.885
96.3562 0.312
96.3865 0.625
96.4167 0.312
96.4470 0.521
96.4773 0.990
96.5076 0.729
96.5379 0.573
96.5681 0.729
96.5984 0.729
96.6287 0.729
96.6590 0.469
96.6893 0.677
96.7195 0.729
96.7498 0.573
96.7801 0.781
96.8104 0.729
96.8406 0.729
96.8709 0.417
96.9012 0.677
96.9315 0.521
96.9618 0.677
96.9920 0.677
97.0223 0.365
97.0526 0.885
97.0829 0.781
97.1132 0.469
97.1434 0.469
97.1737 0.625
97.2040 0.260
97.2343 0.781
97.2645 0.573
97.2948 0.521
97.3251 0.781
97.3554 0.781
97.3857 0.625
97.4159 0.417
97.4462 0.573
97.4765 0.677
97.5068 0.312
97.5371 0.781
97.5673 0.677
97.5976 0.521
97.6279 0.625
97.6582 0.521
97.6884 0.781
97.7187 0.677
97.7490 0.521
97.7793 0.417
97.8096 0.469
97.8398 0.417
97.8701 0.833
97.9004 0.521
97.9307 0.781
97.9610 0.625
97.9912 0.625
98.0215 0.885
98.0518 0.781
98.0821 0.677
98.1123 0.885
98.1426 0.573
98.1729 1.146
98.2032 0.729
98.2335 0.937
98.2637 1.250
98.2940 0.885
98.3243 0.937
98.3546 1.406
98.3849 1.146
98.4151 0.469
98.4454 1.250
98.4757 0.521
98.5060 0.729
98.5362 0.781
98.5665 0.781
98.5968 1.302
98.6271 0.937
98.6574 0.677
98.6876 0.990
98.7179 0.833
98.7482 1.146
98.7785 0.885
98.8088 0.781
98.8390 0.990
98.8693 0.729
98.8996 0.625
98.9299 0.833
98.9601 0.885
98.9904 0.729
99.0207 0.573
99.0510 0.521
99.0813 1.094
99.1115 0.625
99.1418 1.042
99.1721 0.677
99.2024 0.521
99.2327 0.729
99.2629 1.042
99.2932 1.042
99.3235 0.260
99.3538 0.990
99.3841 0.625
99.4143 0.208
99.4446 0.521
99.4749 0.729
99.5052 0.729
99.5354 0.833
99.5657 0.990
99.5960 0.729
99.6263 0.521
99.6566 0.625
99.6868 0.573
99.7171 0.729
99.7474 0.937
99.7777 0.781
99.8080 0.521
99.8382 0.573
99.8685 0.625
99.8988 0.885
99.9291 0.833
99.9593 0.781
99.9896 0.521
100.0199 0.469
100.0502 0.781
100.0805 0.729
100.1107 0.781
100.1410 0.781
100.1713 0.625
100.2016 0.521
100.2319 0.625
100.2621 0.781
100.2924 0.677
100.3227 0.573
100.3530 0.312
100.3832 0.573
100.4135 0.573
100.4438 0.625
100.4741 0.312
100.5044 0.521
100.5346 0.937
100.5649 0.625
100.5952 0.625
100.6255 0.417
100.6558 0.781
100.6860 0.781
100.7163 1.198
100.7466 0.833
100.7769 0.781
100.8071 0.677
100.8374 0.729
100.8677 0.573
100.8980 0.521
100.9283 0.573
100.9585 0.677
100.9888 0.625
101.0191 0.521
101.0494 0.625
101.0797 0.833
101.1099 0.677
101.1402 0.990
101.1705 0.781
101.2008 0.365
101.2310 0.990
101.2613 0.729
101.2916 0.573
101.3219 0.677
101.3522 0.312
101.3824 0.677
101.4127 0.469
101.4430 0.469
101.4733 0.625
101.5036 0.677
101.5338 0.573
101.5641 0.781
101.5944 0.677
101.6247 0.729
101.6549 0.781
101.6852 0.781
101.7155 0.573
101.7458 0.729
101.7761 0.573
101.8063 0.885
101.8366 0.417
101.8669 0.781
101.8972 0.573
101.9275 0.833
101.9577 0.781
101.9880 0.625
102.0183 0.469
102.0486 0.729
102.0788 0.781
102.1091 0.833
102.1394 0.312
102.1697 0.937
102.2000 1.510
102.2302 0.469
102.2605 0.833
102.2908 0.937
102.3211 0.990
102.3514 0.521
102.3816 0.937
102.4119 0.937
102.4422 0.677
102.4725 0.833
102.5028 0.937
102.5330 0.781
102.5633 1.042
102.5936 0.469
102.6239 1.146
102.6541 0.781
102.6844 1.094
102.7147 1.406
102.7450 0.729
102.7753 0.990
102.8055 0.833
102.8358 0.833
102.8661 0.729
102.8964 0.781
102.9267 1.094
102.9569 0.729
102.9872 0.625
103.0175 1.094
103.0478 1.250
103.0780 0.729
103.1083 1.198
103.1386 0.937
103.1689 1.146
103.1992 1.406
103.2294 0.990
103.2597 0.990
103.2900 0.885
103.3203 0.833
103.3506 1.094
103.3808 0.781
103.4111 0.677
103.4414 1.146
103.4717 1.198
103.5019 0.781
103.5322 1.094
103.5625 0.781
103.5928 1.354
103.6231 0.885
103.6533 0.625
103.6836 0.833
103.7139 0.781
103.7442 1.146
103.7745 1.250
103.8047 1.042
103.8350 1.146
103.8653 1.094
103.8956 1.510
103.9258 1.146
103.9561 0.833
103.9864 1.302
104.0167 0.885
104.0470 1.250
104.0772 1.406
104.1075 0.937
104.1378 0.833
104.1681 1.094
104.1984 1.146
104.2286 0.885
104.2589 0.885
104.2892 0.833
104.3195 0.885
104.3497 1.094
104.3800 0.833
104.4103 0.625
104.4406 1.042
104.4709 0.885
104.5011 0.833
104.5314 0.521
104.5617 1.198
104.5920 0.990
104.6223 0.677
104.6525 1.094
104.6828 0.885
104.7131 0.833
104.7434 0.781
104.7736 0.885
104.8039 0.781
104.8342 0.677
104.8645 1.042
104.8948 0.573
104.9250 0.625
104.9553 0.677
104.9856 0.677
105.0159 0.781
105.0462 0.885
105.0764 1.406
105.1067 0.990
105.1370 0.625
105.1673 0.833
105.1975 0.885
105.2278 0.625
105.2581 1.094
105.2884 0.677
105.3187 0.469
105.3489 0.365
105.3792 0.833
105.4095 0.312
105.4398 0.833
105.4701 0.573
105.5003 0.521
105.5306 0.937
105.5609 0.677
105.5912 0.885
105.6215 0.521
105.6517 0.677
105.6820 0.781
105.7123 0.625
105.7426 0.677
105.7728 0.677
105.8031 0.885
105.8334 0.677
105.8637 0.573
105.8940 0.625
105.9242 0.885
105.9545 0.625
105.9848 0.833
106.0151 0.885
106.0454 0.469
106.0756 0.625
106.1059 0.781
106.1362 0.677
106.1665 0.781
106.1967 0.781
106.2270 0.885
106.2573 0.781
106.2876 0.417
106.3179 0.833
106.3481 0.937
106.3784 0.625
106.4087 0.573
106.4390 0.625
106.4693 0.833
106.4995 0.781
106.5298 1.042
106.5601 0.885
106.5904 0.625
106.6206 0.469
106.6509 0.781
106.6812 0.990
106.7115 0.573
106.7418 0.833
106.7720 0.937
106.8023 0.677
106.8326 0.677
106.8629 0.677
106.8932 0.625
106.9234 0.677
106.9537 0.625
106.9840 0.833
107.0143 0.885
107.0445 0.833
107.0748 0.625
107.1051 1.094
107.1354 0.521
107.1657 0.521
107.1959 0.729
107.2262 0.677
107.2565 0.729
107.2868 0.885
107.3171 1.094
107.3473 0.677
107.3776 1.146
107.4079 0.885
107.4382 0.260
107.4684 1.042
107.4987 0.833
107.5290 0.365
107.5593 1.458
107.5896 0.729
107.6198 0.625
107.6501 0.729
107.6804 0.885
107.7107 0.833
107.7410 0.781
107.7712 0.781
107.8015 0.781
107.8318 0.729
107.8621 0.573
107.8923 0.469
107.9226 0.625
107.9529 0.573
107.9832 0.625
108.0135 0.469
108.0437 0.521
108.0740 0.625
108.1043 0.365
108.1346 0.417
108.1649 0.729
108.1951 0.573
108.2254 0.781
108.2557 0.521
108.2860 0.625
108.3163 0.625
108.3465 0.469
108.3768 0.625
108.4071 0.729
108.4374 0.781
108.4676 0.729
108.4979 0.781
108.5282 0.990
108.5585 0.781
108.5888 0.417
108.6190 0.885
108.6493 0.885
108.6796 0.729
108.7099 0.521
108.7402 0.833
108.7704 0.365
108.8007 0.729
108.8310 0.677
108.8613 0.729
108.8915 0.573
108.9218 0.833
108.9521 0.469
108.9824 0.677
109.0127 0.781
109.0429 0.417
109.0732 0.417
109.1035 0.625
109.1338 0.469
109.1641 0.521
109.1943 1.094
109.2246 0.573
109.2549 0.990
109.2852 0.677
109.3154 0.573
109.3457 0.729
109.3760 0.521
109.4063 0.625
109.4366 0.365
109.4668 0.573
109.4971 0.469
109.5274 0.521
109.5577 0.625
109.5880 0.729
109.6182 0.937
109.6485 0.729
109.6788 0.937
109.7091 0.937
109.7393 1.094
109.7696 0.990
109.7999 0.937
109.8302 0.833
109.8605 1.146
109.8907 0.573
109.9210 0.573
109.9513 0.990
109.9816 0.937
110.0119 0.729
110.0421 0.937
110.0724 0.937
110.1027 0.469
110.1330 0.521
110.1632 0.833
110.1935 1.042
110.2238 1.146
110.2541 0.677
110.2844 0.625
110.3146 1.198
110.3449 1.302
110.3752 0.573
110.4055 1.146
110.4358 0.990
110.4660 1.042
110.4963 0.469
110.5266 0.937
110.5569 1.042
110.5871 0.729
110.6174 0.417
110.6477 0.990
110.6780 1.042
110.7083 0.885
110.7385 0.625
110.7688 0.990
110.7991 1.094
110.8294 0.677
110.8597 1.198
110.8899 0.625
110.9202 0.833
110.9505 0.625
110.9808 0.469
111.0110 0.885
111.0413 0.885
111.0716 0.990
111.1019 0.573
111.1322 0.729
111.1624 0.677
111.1927 0.729
111.2230 0.573
111.2533 0.677
111.2836 0.625
111.3138 0.833
111.3441 0.521
111.3744 0.625
111.4047 0.677
111.4350 0.469
111.4652 0.729
111.4955 0.625
111.5258 0.833
111.5561 0.625
111.5863 0.937
111.6166 0.781
111.6469 0.833
111.6772 0.781
111.7075 0.573
111.7377 0.573
111.7680 0.833
111.7983 1.042
111.8286 0.729
111.8589 0.885
111.8891 0.625
111.9194 0.729
111.9497 0.677
111.9800 0.573
112.0102 0.781
112.0405 0.625
112.0708 0.573
112.1011 0.781
112.1314 0.573
112.1616 0.625
112.1919 0.625
112.2222 0.521
112.2525 0.417
112.2828 0.469
112.3130 0.573
112.3433 0.573
112.3736 0.833
112.4039 0.937
112.4341 0.729
112.4644 0.781
112.4947 0.417
112.5250 0.833
112.5553 0.729
112.5855 0.729
112.6158 0.729
112.6461 0.677
112.6764 0.937
112.7067 0.521
112.7369 0.573
112.7672 0.781
112.7975 0.781
112.8278 0.990
112.8580 0.625
112.8883 0.781
112.9186 0.677
112.9489 0.990
112.9792 0.833
113.0094 0.729
113.0397 0.885
113.0700 0.625
113.1003 0.677
113.1306 0.885
113.1608 0.729
113.1911 1.042
113.2214 0.677
113.2517 0.937
113.2819 0.417
113.3122 0.677
113.3425 0.521
113.3728 0.469
113.4031 0.625
113.4333 0.781
113.4636 0.885
113.4939 0.573
113.5242 0.937
113.5545 0.885
113.5847 0.781
113.6150 0.625
113.6453 1.042
113.6756 0.781
113.7058 0.677
113.7361 1.042
113.7664 0.781
113.7967 0.833
113.8270 0.781
113.8572 0.729
113.8875 1.042
113.9178 0.937
113.9481 0.521
113.9784 0.729
114.0086 0.677
114.0389 0.937
114.0692 0.521
114.0995 0.521
114.1298 0.677
114.1600 0.625
114.1903 0.677
114.2206 1.042
114.2509 0.729
114.2811 0.573
114.3114 0.833
114.3417 0.729
114.3720 0.729
114.4023 0.573
114.4325 0.573
114.4628 0.521
114.4931 0.781
114.5234 0.729
114.5537 0.625
114.5839 0.521
114.6142 1.042
114.6445 0.521
114.6748 0.573
114.7050 0.625
114.7353 0.625
114.7656 0.469
114.7959 0.885
114.8262 0.781
114.8564 0.833
114.8867 0.469
114.9170 0.469
114.9473 1.094
114.9776 0.885
115.0078 0.625
115.0381 0.625
115.0684 0.677
115.0987 0.937
115.1289 0.885
115.1592 0.833
115.1895 0.833
115.2198 0.885
115.2501 1.042
115.2803 0.677
115.3106 0.937
115.3409 0.729
115.3712 0.625
115.4015 0.990
115.4317 0.521
115.4620 1.042
115.4923 0.677
115.5226 1.510
115.5528 1.094
115.5831 1.146
115.6134 0.781
115.6437 1.094
115.6740 0.417
115.7042 0.781
115.7345 0.990
115.7648 1.302
115.7951 1.250
115.8254 0.833
115.8556 0.833
115.8859 1.146
115.9162 0.677
115.9465 1.458
115.9767 0.885
116.0070 1.042
116.0373 1.250
116.0676 1.146
116.0979 1.302
116.1281 1.667
116.1584 1.510
116.1887 0.937
116.2190 1.250
116.2493 1.250
116.2795 1.458
116.3098 1.302
116.3401 1.823
116.3704 0.729
116.4006 0.937
116.4309 1.042
116.4612 1.250
116.4915 1.042
116.5218 1.510
116.5520 1.354
116.5823 1.094
116.6126 1.094
116.6429 1.198
116.6732 1.094
116.7034 0.937
116.7337 1.458
116.7640 1.146
116.7943 1.146
116.8245 0.833
116.8548 0.990
116.8851 1.458
116.9154 1.198
116.9457 0.990
116.9759 0.937
117.0062 0.990
117.0365 0.625
117.0668 0.677
117.0971 0.937
117.1273 0.781
117.1576 0.781
117.1879 0.729
117.2182 0.677
117.2485 0.937
117.2787 0.781
117.3090 0.885
117.3393 0.833
117.3696 0.573
117.3998 0.677
117.4301 0.729
117.4604 0.781
117.4907 0.990
117.5210 0.781
117.5512 0.729
117.5815 1.094
117.6118 0.417
117.6421 1.094
117.6724 1.042
117.7026 0.625
117.7329 1.042
117.7632 0.573
117.7935 0.781
117.8237 0.990
117.8540 0.885
117.8843 0.573
117.9146 0.521
117.9449 0.833
117.9751 0.990
118.0054 0.573
118.0357 1.042
118.0660 0.885
118.0963 0.677
118.1265 0.833
118.1568 0.885
118.1871 0.833
118.2174 0.625
118.2476 0.729
118.2779 1.042
118.3082 0.833
118.3385 0.885
118.3688 0.417
118.3990 0.625
118.4293 0.833
118.4596 1.250
118.4899 0.625
118.5202 1.042
118.5504 0.625
118.5807 0.833
118.6110 0.573
118.6413 1.042
118.6715 0.937
118.7018 1.302
118.7321 0.833
118.7624 0.521
118.7927 0.573
118.8229 0.729
118.8532 0.625
118.8835 0.573
118.9138 0.833
118.9441 0.990
118.9743 0.781
119.0046 0.833
119.0349 1.250
119.0652 0.573
119.0954 0.729
119.1257 1.302
119.1560 0.729
119.1863 0.990
119.2166 0.885
119.2468 0.885
119.2771 0.573
119.3074 0.833
119.3377 0.625
119.3680 0.937
119.3982 0.573
119.4285 0.573
119.4588 1.042
119.4891 0.781
119.5193 0.990
119.5496 0.469
119.5799 0.781
119.6102 0.677
119.6405 0.625
119.6707 0.677
119.7010 0.937
119.7313 0.469
119.7616 0.937
119.7919 0.781
119.8221 0.885
119.8524 0.990
119.8827 0.521
119.9130 0.781
119.9433 0.729
119.9735 0.469
120.0038 0.573
