'Id: "" Comment: "" Operator: "Lab Manager" Anode: "Cu" Scantype: "Locked Coupled" TimePerStep: "19.2" X: "9999" Y: "9999" Z: "9999" 
10.0015 83.385
10.0318 82.760
10.0620 83.125
10.0923 83.594
10.1226 84.062
10.1529 85.521
10.1832 92.760
10.2134 89.427
10.2437 90.312
10.2740 97.969
10.3043 97.083
10.3346 98.281
10.3648 95.990
10.3951 99.844
10.4254 105.260
10.4557 103.646
10.4859 109.010
10.5162 109.635
10.5465 117.240
10.5768 112.240
10.6071 120.937
10.6373 123.385
10.6676 124.896
10.6979 127.448
10.7282 126.615
10.7585 130.833
10.7887 133.333
10.8190 140.833
10.8493 138.125
10.8796 149.010
10.9098 148.281
10.9401 150.885
10.9704 157.604
11.0007 157.396
11.0310 163.854
11.0612 158.854
11.0915 168.906
11.1218 161.094
11.1521 164.479
11.1824 167.187
11.2126 165.260
11.2429 165.104
11.2732 162.969
11.3035 165.469
11.3337 169.271
11.3640 159.531
11.3943 162.656
11.4246 161.250
11.4549 152.135
11.4851 157.031
11.5154 149.844
11.5457 153.854
11.5760 144.010
11.6063 141.771
11.6365 142.031
11.6668 141.146
11.6971 141.198
11.7274 137.708
11.7577 134.583
11.7879 122.812
11.8182 121.979
11.8485 123.437
11.8788 119.323
11.9090 113.021
11.9393 105.781
11.9696 106.823
11.9999 102.760
12.0302 99.635
12.0604 94.896
12.0907 95.781
12.1210 85.833
12.1513 87.344
12.1816 87.552
12.2118 84.323
12.2421 77.917
12.2724 78.021
12.3027 74.844
12.3329 72.396
12.3632 71.198
12.3935 67.344
12.4238 62.865
12.4541 62.083
12.4843 58.490
12.5146 58.385
12.5449 56.979
12.5752 51.562
12.6055 51.510
12.6357 50.677
12.6660 52.552
12.6963 47.708
12.7266 47.500
12.7568 46.146
12.7871 45.573
12.8174 44.271
12.8477 42.708
12.8780 44.635
12.9082 44.583
12.9385 39.062
12.9688 42.292
12.9991 38.542
13.0294 42.344
13.0596 41.667
13.0899 41.406
13.1202 41.250
13.1505 36.979
13.1807 37.604
13.2110 36.354
13.2413 35.521
13.2716 36.667
13.3019 35.104
13.3321 36.302
13.3624 33.854
13.3927 32.135
13.4230 33.802
13.4533 34.531
13.4835 31.667
13.5138 36.198
13.5441 34.948
13.5744 31.250
13.6046 32.917
13.6349 31.302
13.6652 30.677
13.6955 29.792
13.7258 32.917
13.7560 31.146
13.7863 30.000
13.8166 32.760
13.8469 29.479
13.8772 30.781
13.9074 28.385
13.9377 29.167
13.9680 29.219
13.9983 29.271
14.0285 26.979
14.0588 31.146
14.0891 29.427
14.1194 28.021
14.1497 28.698
14.1799 29.427
14.2102 27.500
14.2405 26.562
14.2708 28.437
14.3011 25.677
14.3313 25.104
14.3616 23.750
14.3919 25.208
14.4222 25.573
14.4524 22.917
14.4827 24.948
14.5130 23.646
14.5433 23.750
14.5736 22.812
14.6038 22.865
14.6341 22.344
14.6644 22.812
14.6947 22.760
14.7250 22.083
14.7552 23.073
14.7855 22.240
14.8158 23.333
14.8461 20.417
14.8764 22.865
14.9066 20.937
14.9369 21.979
14.9672 21.094
14.9975 23.750
15.0277 20.000
15.0580 21.094
15.0883 19.948
15.1186 20.000
15.1489 18.125
15.1791 17.969
15.2094 19.323
15.2397 19.687
15.2700 21.042
15.3003 18.594
15.3305 19.687
15.3608 19.010
15.3911 18.281
15.4214 18.073
15.4516 20.625
15.4819 19.323
15.5122 17.344
15.5425 22.187
15.5728 17.552
15.6030 18.125
15.6333 18.125
15.6636 18.021
15.6939 17.344
15.7242 19.271
15.7544 19.219
15.7847 15.990
15.8150 17.344
15.8453 17.917
15.8755 17.969
15.9058 18.958
15.9361 16.562
15.9664 17.708
15.9967 17.969
16.0269 15.052
16.0572 17.812
16.0875 16.042
16.1178 16.562
16.1481 16.250
16.1783 18.125
16.2086 14.948
16.2389 16.458
16.2692 15.937
16.2994 17.187
16.3297 18.073
16.3600 15.365
16.3903 16.406
16.4206 17.240
16.4508 15.677
16.4811 15.156
16.5114 15.729
16.5417 16.042
16.5720 15.625
16.6022 14.844
16.6325 13.802
16.6628 14.479
16.6931 14.740
16.7233 13.594
16.7536 15.781
16.7839 14.323
16.8142 13.906
16.8445 13.125
16.8747 14.531
16.9050 13.750
16.9353 15.417
16.9656 14.323
16.9959 14.479
17.0261 13.125
17.0564 14.115
17.0867 12.812
17.1170 13.490
17.1472 13.125
17.1775 13.490
17.2078 12.292
17.2381 13.854
17.2684 13.229
17.2986 13.542
17.3289 12.031
17.3592 12.135
17.3895 12.656
17.4198 13.333
17.4500 13.229
17.4803 12.396
17.5106 13.385
17.5409 12.240
17.5712 12.552
17.6014 12.604
17.6317 14.427
17.6620 11.615
17.6923 12.396
17.7225 13.177
17.7528 11.927
17.7831 11.719
17.8134 10.625
17.8437 13.333
17.8739 13.802
17.9042 14.062
17.9345 11.146
17.9648 13.229
17.9951 13.490
18.0253 11.875
18.0556 11.094
18.0859 12.083
18.1162 11.927
18.1464 13.333
18.1767 13.542
18.2070 11.094
18.2373 12.969
18.2676 13.125
18.2978 12.760
18.3281 12.292
18.3584 12.083
18.3887 13.958
18.4190 14.479
18.4492 11.198
18.4795 12.656
18.5098 14.375
18.5401 13.229
18.5703 11.927
18.6006 13.333
18.6309 13.802
18.6612 13.177
18.6915 11.354
18.7217 11.823
18.7520 13.073
18.7823 13.542
18.8126 11.458
18.8429 12.083
18.8731 11.875
18.9034 11.354
18.9337 11.562
18.9640 10.990
18.9942 12.135
19.0245 11.198
19.0548 11.615
19.0851 10.156
19.1154 10.885
19.1456 9.323
19.1759 10.052
19.2062 9.948
19.2365 10.573
19.2668 10.000
19.2970 9.896
19.3273 8.594
19.3576 9.115
19.3879 9.167
19.4181 9.375
19.4484 6.719
19.4787 8.437
19.5090 9.062
19.5393 7.292
19.5695 7.344
19.5998 8.385
19.6301 7.917
19.6604 7.083
19.6907 7.760
19.7209 7.812
19.7512 6.823
19.7815 6.823
19.8118 6.250
19.8420 8.333
19.8723 7.083
19.9026 6.823
19.9329 6.979
19.9632 6.979
19.9934 7.865
20.0237 7.344
20.0540 6.667
20.0843 7.448
20.1146 7.656
20.1448 6.198
20.1751 7.083
20.2054 6.875
20.2357 6.562
20.2659 7.865
20.2962 7.031
20.3265 6.667
20.3568 7.500
20.3871 7.135
20.4173 6.094
20.4476 7.760
20.4779 7.240
20.5082 5.573
20.5385 6.146
20.5687 5.885
20.5990 5.990
20.6293 6.667
20.6596 5.677
20.6899 6.302
20.7201 5.833
20.7504 6.615
20.7807 6.667
20.8110 6.615
20.8412 6.458
20.8715 5.729
20.9018 6.615
20.9321 6.406
20.9624 5.365
20.9926 6.615
21.0229 6.458
21.0532 7.135
21.0835 6.250
21.1138 6.667
21.1440 5.937
21.1743 7.917
21.2046 6.719
21.2349 6.146
21.2651 7.240
21.2954 6.823
21.3257 6.042
21.3560 5.677
21.3863 6.771
21.4165 6.667
21.4468 7.083
21.4771 6.302
21.5074 6.719
21.5377 6.354
21.5679 6.458
21.5982 6.510
21.6285 7.031
21.6588 8.073
21.6890 6.510
21.7193 6.146
21.7496 7.708
21.7799 6.094
21.8102 7.865
21.8404 7.135
21.8707 7.240
21.9010 7.083
21.9313 5.625
21.9616 7.031
21.9918 6.615
22.0221 6.719
22.0524 7.865
22.0827 7.656
22.1129 7.344
22.1432 6.146
22.1735 7.187
22.2038 8.333
22.2341 7.135
22.2643 6.615
22.2946 7.656
22.3249 6.562
22.3552 7.135
22.3855 7.604
22.4157 6.979
22.4460 8.490
22.4763 8.594
22.5066 8.021
22.5368 6.823
22.5671 7.448
22.5974 6.771
22.6277 7.656
22.6580 8.958
22.6882 8.073
22.7185 8.385
22.7488 8.490
22.7791 7.292
22.8094 6.979
22.8396 7.917
22.8699 8.385
22.9002 7.344
22.9305 7.187
22.9607 8.333
22.9910 9.167
23.0213 8.750
23.0516 9.271
23.0819 7.187
23.1121 8.073
23.1424 9.427
23.1727 7.448
23.2030 8.021
23.2333 10.000
23.2635 8.646
23.2938 10.156
23.3241 9.740
23.3544 7.448
23.3846 9.427
23.4149 7.604
23.4452 8.385
23.4755 8.698
23.5058 8.437
23.5360 9.271
23.5663 9.792
23.5966 8.854
23.6269 9.479
23.6572 9.687
23.6874 9.687
23.7177 10.208
23.7480 10.677
23.7783 11.146
23.8086 9.479
23.8388 10.417
23.8691 10.365
23.8994 10.521
23.9297 11.302
23.9599 11.562
23.9902 10.469
24.0205 10.052
24.0508 11.042
24.0811 9.740
24.1113 11.510
24.1416 11.458
24.1719 11.615
24.2022 11.667
24.2325 10.937
24.2627 9.583
24.2930 12.812
24.3233 11.719
24.3536 11.302
24.3838 12.448
24.4141 12.760
24.4444 12.552
24.4747 10.573
24.5050 13.802
24.5352 13.177
24.5655 12.812
24.5958 13.385
24.6261 15.937
24.6564 14.062
24.6866 14.115
24.7169 14.323
24.7472 13.906
24.7775 14.219
24.8077 13.958
24.8380 14.948
24.8683 14.740
24.8986 13.750
24.9289 17.031
24.9591 16.302
24.9894 16.979
25.0197 16.771
25.0500 17.865
25.0803 16.875
25.1105 18.594
25.1408 17.969
25.1711 20.208
25.2014 18.021
25.2316 19.010
25.2619 19.583
25.2922 18.854
25.3225 20.000
25.3528 18.594
25.3830 20.885
25.4133 20.677
25.4436 19.687
25.4739 18.594
25.5042 20.000
25.5344 20.156
25.5647 19.583
25.5950 22.135
25.6253 18.958
25.6555 19.271
25.6858 20.208
25.7161 19.635
25.7464 20.156
25.7767 21.198
25.8069 20.000
25.8372 19.271
25.8675 18.542
25.8978 19.531
25.9281 16.875
25.9583 17.865
25.9886 17.552
26.0189 18.281
26.0492 17.292
26.0794 17.240
26.1097 17.240
26.1400 15.729
26.1703 16.042
26.2006 16.979
26.2308 15.260
26.2611 16.094
26.2914 16.250
26.3217 12.865
26.3520 16.719
26.3822 14.427
26.4125 15.104
26.4428 14.479
26.4731 14.740
26.5034 15.469
26.5336 14.583
26.5639 14.219
26.5942 15.208
26.6245 14.583
26.6547 13.958
26.6850 13.698
26.7153 15.417
26.7456 13.646
26.7759 12.604
26.8061 15.833
26.8364 14.896
26.8667 15.417
26.8970 15.781
26.9273 15.052
26.9575 15.000
26.9878 13.698
27.0181 14.219
27.0484 13.594
27.0786 14.844
27.1089 16.094
27.1392 14.740
27.1695 14.896
27.1998 15.990
27.2300 14.896
27.2603 15.000
27.2906 15.885
27.3209 13.958
27.3512 15.156
27.3814 18.073
27.4117 16.667
27.4420 16.667
27.4723 16.250
27.5025 15.729
27.5328 15.990
27.5631 14.583
27.5934 16.979
27.6237 17.656
27.6539 16.615
27.6842 16.458
27.7145 15.990
27.7448 18.281
27.7751 17.865
27.8053 15.625
27.8356 16.719
27.8659 15.833
27.8962 15.156
27.9264 18.542
27.9567 17.240
27.9870 17.500
28.0173 16.406
28.0476 18.073
28.0778 18.281
28.1081 18.073
28.1384 17.708
28.1687 16.042
28.1990 15.833
28.2292 16.979
28.2595 17.135
28.2898 16.458
28.3201 16.771
28.3503 15.156
28.3806 16.615
28.4109 14.271
28.4412 15.104
28.4715 15.521
28.5017 14.167
28.5320 15.521
28.5623 13.333
28.5926 15.208
28.6229 14.844
28.6531 15.208
28.6834 13.594
28.7137 12.969
28.7440 13.490
28.7742 14.531
28.8045 13.385
28.8348 13.073
28.8651 12.344
28.8954 12.917
28.9256 12.135
28.9559 13.750
28.9862 12.969
29.0165 11.198
29.0468 12.552
29.0770 11.094
29.1073 12.187
29.1376 10.990
29.1679 11.042
29.1981 10.052
29.2284 10.260
29.2587 12.031
29.2890 11.042
29.3193 11.250
29.3495 9.583
29.3798 11.979
29.4101 10.833
29.4404 10.365
29.4707 9.323
29.5009 10.625
29.5312 10.156
29.5615 10.365
29.5918 9.896
29.6221 9.167
29.6523 9.531
29.6826 7.656
29.7129 9.635
29.7432 8.385
29.7734 9.323
29.8037 9.010
29.8340 9.427
29.8643 8.750
29.8946 8.021
29.9248 9.375
29.9551 6.771
29.9854 8.333
30.0157 7.917
30.0460 7.708
30.0762 8.698
30.1065 6.615
30.1368 9.271
30.1671 8.490
30.1973 7.240
30.2276 7.135
30.2579 7.292
30.2882 6.927
30.3185 7.812
30.3487 7.031
30.3790 7.760
30.4093 7.448
30.4396 4.844
30.4699 7.187
30.5001 6.250
30.5304 7.187
30.5607 6.927
30.5910 7.135
30.6212 6.042
30.6515 6.927
30.6818 6.562
30.7121 6.927
30.7424 7.396
30.7726 7.031
30.8029 6.302
30.8332 6.198
30.8635 7.344
30.8938 5.365
30.9240 6.146
30.9543 6.354
30.9846 7.552
31.0149 5.573
31.0451 6.667
31.0754 7.187
31.1057 6.302
31.1360 6.458
31.1663 5.208
31.1965 5.365
31.2268 6.771
31.2571 7.812
31.2874 6.719
31.3177 6.615
31.3479 6.094
31.3782 5.156
31.4085 6.823
31.4388 6.250
31.4690 6.615
31.4993 6.094
31.5296 4.792
31.5599 5.937
31.5902 5.521
31.6204 5.833
31.6507 6.146
31.6810 6.042
31.7113 5.573
31.7416 5.052
31.7718 4.948
31.8021 5.990
31.8324 5.417
31.8627 6.250
31.8929 6.094
31.9232 4.687
31.9535 6.354
31.9838 5.104
32.0141 6.250
32.0443 5.208
32.0746 6.198
32.1049 5.521
32.1352 5.156
32.1655 5.208
32.1957 4.583
32.2260 6.719
32.2563 4.323
32.2866 5.937
32.3169 6.094
32.3471 6.458
32.3774 4.948
32.4077 5.365
32.4380 6.250
32.4682 6.198
32.4985 6.094
32.5288 6.458
32.5591 6.198
32.5894 7.031
32.6196 7.292
32.6499 7.812
32.6802 7.552
32.7105 7.969
32.7408 7.865
32.7710 7.031
32.8013 7.187
32.8316 6.354
32.8619 7.031
32.8921 6.042
32.9224 5.990
32.9527 5.729
32.9830 5.990
33.0133 5.990
33.0435 6.042
33.0738 4.219
33.1041 6.198
33.1344 4.896
33.1647 5.052
33.1949 4.219
33.2252 5.677
33.2555 4.948
33.2858 5.260
33.3160 5.208
33.3463 4.687
33.3766 4.792
33.4069 4.531
33.4372 4.844
33.4674 5.417
33.4977 4.062
33.5280 4.635
33.5583 4.375
33.5886 5.000
33.6188 4.062
33.6491 4.844
33.6794 5.312
33.7097 4.740
33.7399 4.115
33.7702 5.417
33.8005 5.156
33.8308 4.323
33.8611 4.271
33.8913 5.365
33.9216 4.687
33.9519 4.687
33.9822 5.000
34.0125 4.844
34.0427 4.323
34.0730 5.208
34.1033 5.208
34.1336 4.219
34.1638 3.646
34.1941 5.469
34.2244 5.937
34.2547 5.000
34.2850 5.677
34.3152 4.687
34.3455 5.104
34.3758 4.792
34.4061 4.687
34.4364 5.260
34.4666 5.729
34.4969 5.052
34.5272 4.427
34.5575 4.948
34.5877 6.094
34.6180 4.687
34.6483 5.885
34.6786 5.208
34.7089 5.365
34.7391 6.042
34.7694 5.625
34.7997 5.104
34.8300 5.833
34.8603 4.687
34.8905 5.260
34.9208 6.615
34.9511 5.833
34.9814 5.260
35.0116 5.885
35.0419 5.625
35.0722 5.260
35.1025 5.833
35.1328 5.573
35.1630 4.687
35.1933 6.458
35.2236 4.115
35.2539 6.458
35.2842 4.635
35.3144 5.104
35.3447 5.781
35.3750 4.792
35.4053 5.521
35.4356 5.625
35.4658 5.000
35.4961 4.896
35.5264 5.052
35.5567 5.417
35.5869 5.208
35.6172 5.729
35.6475 5.156
35.6778 4.948
35.7081 5.469
35.7383 5.573
35.7686 4.792
35.7989 4.948
35.8292 5.208
35.8595 4.427
35.8897 5.000
35.9200 4.792
35.9503 4.687
35.9806 5.208
36.0108 5.469
36.0411 5.104
36.0714 5.104
36.1017 4.583
36.1320 4.167
36.1622 5.781
36.1925 5.521
36.2228 4.271
36.2531 5.156
36.2834 4.062
36.3136 4.635
36.3439 4.583
36.3742 4.687
36.4045 3.698
36.4347 4.948
36.4650 3.750
36.4953 4.792
36.5256 4.687
36.5559 4.531
36.5861 4.062
36.6164 3.802
36.6467 4.271
36.6770 3.333
36.7073 4.010
36.7375 5.052
36.7678 3.854
36.7981 4.062
36.8284 5.104
36.8586 4.896
36.8889 3.177
36.9192 4.167
36.9495 4.687
36.9798 4.323
37.0100 3.958
37.0403 3.333
37.0706 3.437
37.1009 3.437
37.1312 5.833
37.1614 4.062
37.1917 4.167
37.2220 4.792
37.2523 4.687
37.2825 4.115
37.3128 4.844
37.3431 4.115
37.3734 5.417
37.4037 4.115
37.4339 3.542
37.4642 4.010
37.4945 5.000
37.5248 5.156
37.5551 3.958
37.5853 4.427
37.6156 4.635
37.6459 4.219
37.6762 3.854
37.7064 3.958
37.7367 4.792
37.7670 4.740
37.7973 4.271
37.8276 4.635
37.8578 4.479
37.8881 5.000
37.9184 4.115
37.9487 4.635
37.9790 4.531
38.0092 4.323
38.0395 4.896
38.0698 3.646
38.1001 4.479
38.1304 3.698
38.1606 4.323
38.1909 3.958
38.2212 5.260
38.2515 3.750
38.2817 4.062
38.3120 4.010
38.3423 4.219
38.3726 4.323
38.4029 3.750
38.4331 3.750
38.4634 4.375
38.4937 3.490
38.5240 3.594
38.5543 4.687
38.5845 3.281
38.6148 3.802
38.6451 4.010
38.6754 3.385
38.7056 3.594
38.7359 4.010
38.7662 3.542
38.7965 2.917
38.8268 3.854
38.8570 3.333
38.8873 3.802
38.9176 3.906
38.9479 3.333
38.9782 3.750
39.0084 3.021
39.0387 3.750
39.0690 3.021
39.0993 3.177
39.1295 3.802
39.1598 3.437
39.1901 3.021
39.2204 3.490
39.2507 3.542
39.2809 3.750
39.3112 2.656
39.3415 3.177
39.3718 3.177
39.4021 4.010
39.4323 3.542
39.4626 3.021
39.4929 3.385
39.5232 3.437
39.5534 3.385
39.5837 3.594
39.6140 3.229
39.6443 2.760
39.6746 3.385
39.7048 2.917
39.7351 3.385
39.7654 2.760
39.7957 3.698
39.8260 3.073
39.8562 3.333
39.8865 3.021
39.9168 2.656
39.9471 2.865
39.9773 3.490
40.0076 3.021
40.0379 2.865
40.0682 2.760
40.0985 2.969
40.1287 3.177
40.1590 3.437
40.1893 3.385
40.2196 2.396
40.2499 3.177
40.2801 2.969
40.3104 3.542
40.3407 2.604
40.3710 2.812
40.4012 3.594
40.4315 3.906
40.4618 2.500
40.4921 3.542
40.5224 3.750
40.5526 2.656
40.5829 3.437
40.6132 3.490
40.6435 3.125
40.6738 2.604
40.7040 3.021
40.7343 3.646
40.7646 3.073
40.7949 2.969
40.8251 3.437
40.8554 3.437
40.8857 3.125
40.9160 3.177
40.9463 3.177
40.9765 2.500
41.0068 3.333
41.0371 3.073
41.0674 3.073
41.0977 3.437
41.1279 3.021
41.1582 3.594
41.1885 3.281
41.2188 3.177
41.2491 2.969
41.2793 3.229
41.3096 2.917
41.3399 3.854
41.3702 3.229
41.4004 3.385
41.4307 3.854
41.4610 2.865
41.4913 3.802
41.5216 2.604
41.5518 2.812
41.5821 3.594
41.6124 2.604
41.6427 3.490
41.6730 2.708
41.7032 2.917
41.7335 3.333
41.7638 3.177
41.7941 3.594
41.8243 2.552
41.8546 2.917
41.8849 3.594
41.9152 3.385
41.9455 3.906
41.9757 4.219
42.0060 2.708
42.0363 3.490
42.0666 2.760
42.0969 2.969
42.1271 3.177
42.1574 3.437
42.1877 3.073
42.2180 3.073
42.2482 2.656
42.2785 3.490
42.3088 3.542
42.3391 3.177
42.3694 3.125
42.3996 2.865
42.4299 2.812
42.4602 3.125
42.4905 2.969
42.5208 3.437
42.5510 3.125
42.5813 2.708
42.6116 3.385
42.6419 2.552
42.6721 2.865
42.7024 3.490
42.7327 3.333
42.7630 2.865
42.7933 3.281
42.8235 3.021
42.8538 2.344
42.8841 3.333
42.9144 2.917
42.9447 3.750
42.9749 3.229
43.0052 2.604
43.0355 2.812
43.0658 2.240
43.0960 2.448
43.1263 3.385
43.1566 2.708
43.1869 3.437
43.2172 2.969
43.2474 3.177
43.2777 2.031
43.3080 2.812
43.3383 2.656
43.3686 2.812
43.3988 2.344
43.4291 2.344
43.4594 2.812
43.4897 3.229
43.5199 2.656
43.5502 3.073
43.5805 3.333
43.6108 2.917
43.6411 2.917
43.6713 2.448
43.7016 2.240
43.7319 1.875
43.7622 3.021
43.7925 2.448
43.8227 2.969
43.8530 2.812
43.8833 2.708
43.9136 2.812
43.9439 2.448
43.9741 2.344
44.0044 2.500
44.0347 2.865
44.0650 3.177
44.0952 2.604
44.1255 3.073
44.1558 2.448
44.1861 3.073
44.2164 1.875
44.2466 2.917
44.2769 2.865
44.3072 2.292
44.3375 2.448
44.3678 2.656
44.3980 2.760
44.4283 1.927
44.4586 3.594
44.4889 2.500
44.5191 2.812
44.5494 3.073
44.5797 2.500
44.6100 2.292
44.6403 2.865
44.6705 2.708
44.7008 2.812
44.7311 3.125
44.7614 2.500
44.7917 2.812
44.8219 2.500
44.8522 3.073
44.8825 2.552
44.9128 2.552
44.9430 2.865
44.9733 2.865
45.0036 3.333
45.0339 2.292
45.0642 2.240
45.0944 3.021
45.1247 3.281
45.1550 2.396
45.1853 3.021
45.2156 3.385
45.2458 2.344
45.2761 2.969
45.3064 2.917
45.3367 3.333
45.3669 2.760
45.3972 3.750
45.4275 2.969
45.4578 3.385
45.4881 2.500
45.5183 3.177
45.5486 2.552
45.5789 2.917
45.6092 2.708
45.6395 2.292
45.6697 2.396
45.7000 2.187
45.7303 2.292
45.7606 2.292
45.7908 3.333
45.8211 2.656
45.8514 2.656
45.8817 2.552
45.9120 2.760
45.9422 3.437
45.9725 3.229
46.0028 2.865
46.0331 2.917
46.0634 3.542
46.0936 2.604
46.1239 3.594
46.1542 2.604
46.1845 2.760
46.2147 3.177
46.2450 2.604
46.2753 3.281
46.3056 2.865
46.3359 2.917
46.3661 2.708
46.3964 2.760
46.4267 2.500
46.4570 2.500
46.4873 3.177
46.5175 2.187
46.5478 2.240
46.5781 2.500
46.6084 2.969
46.6386 3.281
46.6689 3.125
46.6992 2.344
46.7295 2.604
46.7598 3.333
46.7900 2.552
46.8203 2.604
46.8506 3.281
46.8809 2.812
46.9112 2.917
46.9414 2.604
46.9717 3.490
47.0020 3.177
47.0323 3.385
47.0626 3.490
47.0928 2.656
47.1231 2.448
47.1534 3.177
47.1837 3.385
47.2139 2.344
47.2442 2.552
47.2745 3.281
47.3048 2.292
47.3351 2.865
47.3653 2.656
47.3956 2.917
47.4259 3.333
47.4562 2.344
47.4865 2.656
47.5167 3.177
47.5470 3.281
47.5773 2.604
47.6076 3.646
47.6378 3.385
47.6681 3.125
47.6984 3.490
47.7287 3.542
47.7590 2.760
47.7892 3.802
47.8195 3.229
47.8498 2.969
47.8801 2.969
47.9104 4.323
47.9406 3.021
47.9709 3.073
48.0012 2.865
48.0315 3.125
48.0617 3.073
48.0920 2.917
48.1223 3.854
48.1526 3.073
48.1829 2.812
48.2131 3.333
48.2434 2.969
48.2737 3.437
48.3040 3.490
48.3343 3.177
48.3645 3.073
48.3948 3.542
48.4251 3.333
48.4554 4.271
48.4856 3.281
48.5159 3.854
48.5462 3.490
48.5765 2.969
48.6068 3.646
48.6370 3.542
48.6673 3.802
48.6976 4.583
48.7279 3.177
48.7582 3.177
48.7884 3.958
48.8187 3.854
48.8490 4.010
48.8793 3.854
48.9095 4.531
48.9398 3.750
48.9701 3.385
49.0004 2.969
49.0307 4.583
49.0609 3.750
49.0912 5.521
49.1215 4.010
49.1518 3.698
49.1821 4.844
49.2123 4.219
49.2426 4.062
49.2729 4.062
49.3032 4.219
49.3334 3.906
49.3637 3.906
49.3940 4.427
49.4243 3.854
49.4546 4.375
49.4848 4.531
49.5151 5.052
49.5454 3.906
49.5757 3.958
49.6060 4.010
49.6362 5.156
49.6665 3.958
49.6968 4.583
49.7271 4.635
49.7574 4.375
49.7876 5.990
49.8179 4.948
49.8482 5.000
49.8785 5.521
49.9087 5.781
49.9390 4.531
49.9693 4.844
49.9996 5.000
50.0299 4.896
50.0601 4.844
50.0904 5.260
50.1207 5.937
50.1510 5.312
50.1813 5.260
50.2115 4.948
50.2418 5.833
50.2721 6.302
50.3024 5.521
50.3326 7.135
50.3629 6.354
50.3932 5.833
50.4235 5.677
50.4538 6.094
50.4840 7.812
50.5143 6.927
50.5446 6.198
50.5749 7.812
50.6052 6.719
50.6354 6.406
50.6657 7.031
50.6960 6.875
50.7263 6.771
50.7565 7.760
50.7868 7.083
50.8171 7.604
50.8474 5.312
50.8777 7.135
50.9079 7.292
50.9382 7.448
50.9685 7.552
50.9988 6.875
51.0291 8.437
51.0593 6.667
51.0896 7.708
51.1199 7.448
51.1502 8.229
51.1804 6.719
51.2107 7.604
51.2410 6.979
51.2713 7.240
51.3016 6.823
51.3318 6.927
51.3621 5.990
51.3924 6.979
51.4227 6.927
51.4530 6.719
51.4832 6.406
51.5135 7.344
51.5438 7.240
51.5741 6.406
51.6043 7.240
51.6346 7.500
51.6649 6.042
51.6952 6.302
51.7255 6.771
51.7557 5.937
51.7860 7.396
51.8163 6.146
51.8466 6.146
51.8769 5.312
51.9071 5.729
51.9374 6.354
51.9677 5.990
51.9980 6.406
52.0282 5.990
52.0585 5.833
52.0888 5.937
52.1191 5.937
52.1494 5.573
52.1796 5.833
52.2099 4.635
52.2402 5.625
52.2705 5.781
52.3008 5.104
52.3310 5.625
52.3613 5.052
52.3916 5.260
52.4219 5.677
52.4521 4.687
52.4824 5.052
52.5127 4.896
52.5430 4.271
52.5733 4.687
52.6035 4.844
52.6338 5.260
52.6641 5.625
52.6944 4.427
52.7247 5.000
52.7549 4.687
52.7852 5.417
52.8155 4.740
52.8458 3.854
52.8761 4.844
52.9063 4.167
52.9366 4.271
52.9669 5.104
52.9972 4.323
53.0274 5.469
53.0577 4.896
53.0880 4.115
53.1183 4.375
53.1486 4.635
53.1788 4.687
53.2091 5.000
53.2394 5.156
53.2697 4.740
53.3000 5.260
53.3302 4.792
53.3605 5.104
53.3908 4.115
53.4211 3.802
53.4513 4.062
53.4816 4.531
53.5119 5.104
53.5422 4.635
53.5725 4.323
53.6027 4.010
53.6330 4.531
53.6633 4.271
53.6936 4.010
53.7239 4.271
53.7541 4.167
53.7844 4.583
53.8147 4.740
53.8450 4.792
53.8752 4.323
53.9055 3.802
53.9358 4.010
53.9661 4.479
53.9964 4.635
54.0266 3.594
54.0569 4.323
54.0872 4.219
54.1175 3.750
54.1478 4.219
54.1780 3.698
54.2083 3.802
54.2386 3.437
54.2689 3.906
54.2991 3.906
54.3294 4.062
54.3597 4.167
54.3900 4.427
54.4203 4.167
54.4505 3.490
54.4808 3.385
54.5111 3.802
54.5414 3.281
54.5717 3.750
54.6019 3.490
54.6322 4.271
54.6625 3.490
54.6928 3.542
54.7230 3.906
54.7533 4.062
54.7836 3.906
54.8139 3.333
54.8442 3.542
54.8744 3.021
54.9047 2.812
54.9350 4.010
54.9653 3.594
54.9956 3.177
55.0258 3.073
55.0561 3.698
55.0864 3.281
55.1167 4.115
55.1469 3.854
55.1772 3.437
55.2075 3.125
55.2378 3.125
55.2681 3.542
55.2983 3.750
55.3286 3.906
55.3589 3.490
55.3892 3.802
55.4195 4.115
55.4497 3.073
55.4800 3.542
55.5103 3.958
55.5406 4.687
55.5709 2.812
55.6011 3.073
55.6314 3.333
55.6617 3.229
55.6920 3.021
55.7222 2.969
55.7525 2.812
55.7828 2.969
55.8131 4.479
55.8434 3.073
55.8736 3.437
55.9039 3.542
55.9342 2.969
55.9645 3.177
55.9948 2.604
56.0250 3.490
56.0553 2.656
56.0856 3.021
56.1159 3.333
56.1461 2.917
56.1764 2.656
56.2067 3.073
56.2370 3.177
56.2673 3.229
56.2975 2.656
56.3278 2.604
56.3581 3.125
56.3884 2.760
56.4187 3.021
56.4489 2.500
56.4792 3.021
56.5095 2.865
56.5398 2.812
56.5700 3.073
56.6003 2.604
56.6306 2.812
56.6609 2.552
56.6912 3.333
56.7214 2.708
56.7517 2.969
56.7820 2.500
56.8123 2.292
56.8426 2.083
56.8728 3.281
56.9031 2.760
56.9334 2.917
56.9637 2.344
56.9939 2.760
57.0242 3.125
57.0545 2.292
57.0848 2.187
57.1151 2.812
57.1453 2.917
57.1756 2.812
57.2059 3.542
57.2362 2.760
57.2665 2.292
57.2967 2.917
57.3270 2.187
57.3573 2.448
57.3876 2.760
57.4178 2.135
57.4481 2.656
57.4784 3.177
57.5087 2.865
57.5390 2.344
57.5692 2.656
57.5995 2.500
57.6298 2.917
57.6601 3.437
57.6904 2.135
57.7206 2.812
57.7509 2.708
57.7812 2.812
57.8115 2.865
57.8417 2.708
57.8720 2.240
57.9023 2.865
57.9326 2.865
57.9629 2.292
57.9931 2.344
58.0234 2.240
58.0537 3.333
58.0840 2.292
58.1143 3.490
58.1445 2.917
58.1748 3.490
58.2051 2.969
58.2354 2.969
58.2656 2.865
58.2959 4.062
58.3262 3.802
58.3565 3.229
58.3868 3.385
58.4170 3.698
58.4473 3.490
58.4776 3.594
58.5079 2.865
58.5382 3.490
58.5684 3.542
58.5987 3.177
58.6290 3.021
58.6593 3.437
58.6896 2.812
58.7198 2.865
58.7501 2.708
58.7804 2.812
58.8107 3.281
58.8409 2.917
58.8712 2.552
58.9015 3.125
58.9318 2.604
58.9621 2.604
58.9923 3.646
59.0226 3.073
59.0529 2.656
59.0832 3.125
59.1135 2.187
59.1437 3.177
59.1740 2.812
59.2043 2.708
59.2346 3.385
59.2648 2.448
59.2951 3.542
59.3254 2.604
59.3557 3.177
59.3860 4.115
59.4162 3.229
59.4465 2.865
59.4768 3.281
59.5071 3.177
59.5374 3.229
59.5676 2.760
59.5979 2.448
59.6282 2.604
59.6585 3.385
59.6887 3.125
59.7190 2.135
59.7493 3.125
59.7796 3.437
59.8099 2.448
59.8401 2.656
59.8704 3.594
59.9007 3.437
59.9310 3.490
59.9613 2.969
59.9915 3.333
60.0218 2.917
60.0521 2.708
60.0824 2.917
60.1126 3.177
60.1429 2.917
60.1732 3.125
60.2035 2.708
60.2338 2.708
60.2640 2.500
60.2943 3.802
60.3246 2.708
60.3549 3.125
60.3852 2.812
60.4154 2.500
60.4457 3.490
60.4760 2.708
60.5063 2.865
60.5365 3.281
60.5668 2.865
60.5971 3.177
60.6274 2.865
60.6577 3.021
60.6879 2.917
60.7182 2.708
60.7485 3.125
60.7788 3.333
60.8091 2.656
60.8393 3.385
60.8696 3.385
60.8999 3.281
60.9302 3.490
60.9604 3.229
60.9907 2.760
61.0210 3.229
61.0513 3.177
61.0816 3.750
61.1118 3.542
61.1421 3.437
61.1724 2.917
61.2027 3.385
61.2330 3.750
61.2632 3.229
61.2935 2.969
61.3238 3.802
61.3541 2.865
61.3844 3.802
61.4146 3.229
61.4449 3.385
61.4752 3.646
61.5055 3.906
61.5357 3.750
61.5660 4.167
61.5963 4.375
61.6266 3.802
61.6569 3.437
61.6871 4.375
61.7174 4.219
61.7477 4.167
61.7780 3.490
61.8083 3.073
61.8385 4.271
61.8688 3.594
61.8991 3.594
61.9294 4.167
61.9596 4.219
61.9899 3.437
62.0202 3.281
62.0505 4.271
62.0808 4.010
62.1110 3.906
62.1413 4.323
62.1716 3.542
62.2019 4.323
62.2322 4.427
62.2624 4.115
62.2927 3.229
62.3230 4.271
62.3533 4.687
62.3835 3.750
62.4138 3.698
62.4441 3.646
62.4744 4.010
62.5047 3.750
62.5349 3.698
62.5652 3.437
62.5955 4.375
62.6258 3.542
62.6561 4.531
62.6863 4.219
62.7166 4.062
62.7469 4.167
62.7772 3.958
62.8074 4.583
62.8377 3.698
62.8680 3.854
62.8983 3.646
62.9286 4.115
62.9588 3.802
62.9891 3.490
63.0194 4.062
63.0497 4.792
63.0800 3.750
63.1102 4.792
63.1405 3.333
63.1708 3.854
63.2011 3.906
63.2313 4.219
63.2616 4.010
63.2919 3.542
63.3222 3.333
63.3525 3.281
63.3827 3.437
63.4130 3.698
63.4433 3.073
63.4736 3.854
63.5039 3.333
63.5341 2.552
63.5644 3.906
63.5947 2.969
63.6250 3.281
63.6552 3.490
63.6855 3.854
63.7158 3.073
63.7461 3.281
63.7764 3.073
63.8066 4.219
63.8369 3.854
63.8672 3.125
63.8975 3.854
63.9278 3.698
63.9580 3.906
63.9883 3.594
64.0186 3.229
64.0489 2.552
64.0791 2.812
64.1094 3.073
64.1397 3.125
64.1700 3.750
64.2003 2.656
64.2305 2.812
64.2608 3.646
64.2911 3.229
64.3214 2.708
64.3517 2.865
64.3819 3.281
64.4122 3.073
64.4425 3.021
64.4728 2.448
64.5031 2.604
64.5333 3.177
64.5636 2.917
64.5939 3.281
64.6242 2.865
64.6544 3.594
64.6847 2.969
64.7150 3.594
64.7453 2.865
64.7756 3.385
64.8058 3.073
64.8361 2.448
64.8664 2.865
64.8967 3.073
64.9270 2.812
64.9572 2.969
64.9875 3.437
65.0178 3.385
65.0481 2.240
65.0783 2.187
65.1086 2.552
65.1389 2.187
65.1692 2.917
65.1995 2.448
65.2297 2.760
65.2600 2.604
65.2903 2.917
65.3206 2.760
65.3509 3.698
65.3811 2.500
65.4114 2.500
65.4417 2.396
65.4720 3.281
65.5022 2.500
65.5325 3.333
65.5628 2.500
65.5931 2.604
65.6234 2.760
65.6536 3.385
65.6839 2.500
65.7142 2.812
65.7445 1.875
65.7748 2.656
65.8050 2.396
65.8353 2.292
65.8656 2.187
65.8959 2.708
65.9261 2.812
65.9564 2.969
65.9867 2.396
66.0170 2.865
66.0473 2.865
66.0775 2.396
66.1078 2.240
66.1381 2.187
66.1684 2.031
66.1987 2.708
66.2289 2.448
66.2592 2.760
66.2895 2.708
66.3198 2.396
66.3500 2.396
66.3803 2.500
66.4106 2.604
66.4409 3.177
66.4712 2.604
66.5014 1.823
66.5317 2.760
66.5620 2.031
66.5923 2.917
66.6226 2.500
66.6528 2.396
66.6831 2.448
66.7134 2.708
66.7437 2.135
66.7739 2.448
66.8042 1.979
66.8345 2.396
66.8648 2.448
66.8951 2.552
66.9253 2.396
66.9556 2.240
66.9859 2.240
67.0162 2.656
67.0465 1.615
67.0767 2.760
67.1070 2.865
67.1373 2.552
67.1676 2.656
67.1978 2.083
67.2281 2.240
67.2584 2.240
67.2887 2.708
67.3190 2.135
67.3492 2.292
67.3795 2.448
67.4098 1.354
67.4401 1.979
67.4704 2.396
67.5006 2.760
67.5309 2.187
67.5612 2.083
67.5915 1.875
67.6218 2.031
67.6520 2.344
67.6823 2.656
67.7126 2.812
67.7429 2.604
67.7731 2.292
67.8034 2.240
67.8337 1.823
67.8640 2.396
67.8943 2.552
67.9245 1.615
67.9548 1.979
67.9851 1.979
68.0154 1.823
68.0457 1.615
68.0759 2.240
68.1062 1.771
68.1365 2.292
68.1668 1.823
68.1970 2.187
68.2273 2.187
68.2576 2.187
68.2879 2.500
68.3182 1.823
68.3484 1.875
68.3787 2.760
68.4090 2.240
68.4393 1.667
68.4696 2.187
68.4998 2.135
68.5301 2.240
68.5604 2.240
68.5907 1.875
68.6209 1.875
68.6512 2.031
68.6815 2.135
68.7118 2.031
68.7421 2.031
68.7723 1.875
68.8026 2.240
68.8329 2.656
68.8632 2.448
68.8935 2.292
68.9237 1.823
68.9540 1.927
68.9843 2.240
69.0146 2.656
69.0448 1.875
69.0751 1.927
69.1054 2.760
69.1357 1.771
69.1660 2.396
69.1962 1.458
69.2265 1.667
69.2568 1.927
69.2871 1.719
69.3174 1.771
69.3476 1.198
69.3779 1.562
69.4082 1.927
69.4385 1.615
69.4687 1.510
69.4990 1.562
69.5293 1.875
69.5596 2.292
69.5899 1.823
69.6201 1.719
69.6504 1.875
69.6807 1.771
69.7110 2.240
69.7413 1.510
69.7715 2.187
69.8018 1.667
69.8321 2.135
69.8624 2.292
69.8926 1.667
69.9229 2.500
69.9532 1.615
69.9835 2.083
70.0138 2.187
70.0440 1.771
70.0743 2.135
70.1046 1.406
70.1349 2.604
70.1652 1.823
70.1954 1.875
70.2257 1.875
70.2560 2.135
70.2863 2.031
70.3166 2.292
70.3468 1.875
70.3771 1.927
70.4074 2.240
70.4377 1.979
70.4679 1.615
70.4982 1.927
70.5285 2.135
70.5588 1.979
70.5891 1.771
70.6193 1.667
70.6496 1.875
70.6799 1.823
70.7102 2.083
70.7405 1.719
70.7707 2.292
70.8010 1.823
70.8313 1.771
70.8616 1.771
70.8918 2.240
70.9221 1.979
70.9524 1.771
70.9827 1.562
71.0130 1.875
71.0432 1.927
71.0735 1.667
71.1038 1.667
71.1341 2.083
71.1644 1.875
71.1946 1.719
71.2249 2.135
71.2552 1.615
71.2855 1.302
71.3157 1.823
71.3460 1.667
71.3763 2.031
71.4066 1.615
71.4369 1.979
71.4671 2.083
71.4974 1.562
71.5277 1.823
71.5580 1.927
71.5883 2.292
71.6185 2.135
71.6488 2.500
71.6791 2.240
71.7094 1.927
71.7396 1.979
71.7699 1.510
71.8002 1.667
71.8305 2.187
71.8608 1.719
71.8910 2.240
71.9213 2.031
71.9516 1.458
71.9819 1.771
72.0122 2.448
72.0424 2.344
72.0727 1.719
72.1030 1.406
72.1333 2.031
72.1635 1.510
72.1938 1.667
72.2241 1.875
72.2544 2.240
72.2847 2.187
72.3149 2.031
72.3452 2.083
72.3755 2.031
72.4058 1.719
72.4361 2.240
72.4663 1.667
72.4966 2.344
72.5269 1.719
72.5572 1.927
72.5874 1.823
72.6177 1.875
72.6480 1.771
72.6783 1.771
72.7086 1.510
72.7388 1.562
72.7691 1.823
72.7994 2.448
72.8297 1.875
72.8600 1.562
72.8902 2.396
72.9205 1.667
72.9508 1.927
72.9811 1.875
73.0113 1.562
73.0416 1.771
73.0719 2.240
73.1022 2.448
73.1325 1.562
73.1627 1.771
73.1930 2.083
73.2233 1.927
73.2536 2.240
73.2839 1.562
73.3141 2.031
73.3444 1.823
73.3747 1.771
73.4050 1.719
73.4353 1.719
73.4655 2.135
73.4958 1.719
73.5261 1.771
73.5564 1.979
73.5866 2.344
73.6169 1.927
73.6472 1.667
73.6775 2.135
73.7078 2.031
73.7380 2.552
73.7683 2.448
73.7986 3.125
73.8289 2.240
73.8592 2.083
73.8894 2.083
73.9197 1.823
73.9500 2.187
73.9803 2.135
74.0105 2.187
74.0408 2.396
74.0711 2.031
74.1014 2.448
74.1317 2.240
74.1619 2.240
74.1922 1.927
74.2225 1.719
74.2528 1.719
74.2831 2.083
74.3133 2.344
74.3436 1.875
74.3739 2.187
74.4042 2.448
74.4344 1.979
74.4647 2.292
74.4950 1.302
74.5253 1.823
74.5556 1.927
74.5858 1.719
74.6161 1.979
74.6464 1.823
74.6767 1.719
74.7070 2.500
74.7372 2.187
74.7675 1.823
74.7978 1.927
74.8281 1.458
74.8583 2.187
74.8886 2.187
74.9189 1.406
74.9492 2.187
74.9795 2.292
75.0097 2.292
75.0400 1.979
75.0703 1.719
75.1006 2.187
75.1309 2.240
75.1611 1.719
75.1914 2.031
75.2217 2.135
75.2520 2.135
75.2822 2.656
75.3125 2.083
75.3428 2.292
75.3731 2.396
75.4034 1.458
75.4336 2.656
75.4639 2.240
75.4942 2.031
75.5245 2.500
75.5548 1.979
75.5850 1.875
75.6153 2.396
75.6456 2.187
75.6759 2.187
75.7061 1.979
75.7364 2.187
75.7667 1.667
75.7970 1.302
75.8273 2.187
75.8575 2.396
75.8878 2.031
75.9181 2.292
75.9484 2.552
75.9787 1.667
76.0089 1.979
76.0392 1.875
76.0695 2.240
76.0998 2.969
76.1301 2.500
76.1603 1.719
76.1906 2.083
76.2209 1.354
76.2512 1.771
76.2814 1.667
76.3117 1.979
76.3420 1.354
76.3723 2.240
76.4026 2.500
76.4328 1.927
76.4631 1.979
76.4934 1.927
76.5237 2.187
76.5540 1.771
76.5842 2.135
76.6145 1.406
76.6448 1.979
76.6751 1.458
76.7053 1.615
76.7356 1.875
76.7659 2.865
76.7962 2.292
76.8265 1.823
76.8567 1.198
76.8870 2.344
76.9173 1.615
76.9476 2.031
76.9779 1.302
77.0081 2.187
77.0384 1.719
77.0687 1.771
77.0990 1.510
77.1292 1.771
77.1595 2.396
77.1898 1.615
77.2201 1.823
77.2504 1.979
77.2806 1.927
77.3109 1.615
77.3412 1.667
77.3715 1.927
77.4018 1.615
77.4320 2.292
77.4623 1.823
77.4926 1.406
77.5229 1.823
77.5531 1.823
77.5834 1.198
77.6137 2.031
77.6440 2.135
77.6743 1.615
77.7045 1.979
77.7348 1.979
77.7651 1.979
77.7954 1.667
77.8257 2.135
77.8559 1.510
77.8862 1.198
77.9165 1.927
77.9468 1.667
77.9770 2.187
78.0073 1.354
78.0376 1.667
78.0679 1.823
78.0982 1.510
78.1284 1.771
78.1587 1.510
78.1890 1.615
78.2193 1.667
78.2496 1.719
78.2798 1.667
78.3101 1.875
78.3404 1.927
78.3707 1.771
78.4009 1.146
78.4312 1.615
78.4615 1.667
78.4918 1.719
78.5221 1.771
78.5523 1.198
78.5826 1.198
78.6129 1.250
78.6432 1.615
78.6735 1.875
78.7037 1.615
78.7340 1.458
78.7643 1.615
78.7946 2.135
78.8248 1.927
78.8551 1.406
78.8854 2.031
78.9157 1.875
78.9460 2.135
78.9762 1.562
79.0065 1.510
79.0368 1.667
79.0671 2.083
79.0974 1.875
79.1276 2.135
79.1579 1.406
79.1882 1.719
79.2185 2.187
79.2488 1.823
79.2790 1.979
79.3093 1.615
79.3396 1.875
79.3699 1.771
79.4001 2.292
79.4304 1.771
79.4607 2.396
79.4910 1.927
79.5213 1.615
79.5515 1.667
79.5818 1.354
79.6121 2.135
79.6424 1.667
79.6727 1.510
79.7029 1.667
79.7332 1.667
79.7635 1.927
79.7938 1.667
79.8240 1.146
79.8543 1.927
79.8846 2.240
79.9149 1.562
79.9452 1.823
79.9754 2.135
80.0057 1.875
80.0360 1.667
80.0663 1.979
80.0966 2.135
80.1268 1.094
80.1571 1.615
80.1874 2.292
80.2177 1.823
80.2479 1.615
80.2782 1.719
80.3085 1.875
80.3388 1.667
80.3691 2.708
80.3993 2.031
80.4296 1.667
80.4599 1.406
80.4902 1.927
80.5205 1.615
80.5507 1.615
80.5810 1.719
80.6113 2.031
80.6416 2.031
80.6718 1.667
80.7021 1.823
80.7324 2.344
80.7627 1.979
80.7930 1.979
80.8232 1.979
80.8535 2.135
80.8838 1.354
80.9141 2.135
80.9444 1.979
80.9746 1.667
81.0049 1.927
81.0352 1.823
81.0655 1.927
81.0957 1.719
81.1260 1.771
81.1563 2.031
81.1866 2.292
81.2169 1.823
81.2471 1.771
81.2774 2.448
81.3077 1.615
81.3380 2.083
81.3683 1.927
81.3985 2.031
81.4288 1.458
81.4591 1.667
81.4894 2.031
81.5196 1.771
81.5499 2.396
81.5802 2.083
81.6105 1.719
81.6408 1.562
81.6710 1.667
81.7013 1.771
81.7316 1.198
81.7619 1.719
81.7922 2.031
81.8224 1.875
81.8527 1.667
81.8830 2.604
81.9133 1.979
81.9436 1.615
81.9738 2.031
82.0041 2.292
82.0344 1.458
82.0647 2.865
82.0949 2.187
82.1252 1.927
82.1555 2.083
82.1858 2.240
82.2161 2.135
82.2463 2.448
82.2766 2.396
82.3069 1.771
82.3372 1.510
82.3675 2.187
82.3977 1.719
82.4280 1.823
82.4583 1.667
82.4886 1.510
82.5188 2.240
82.5491 2.083
82.5794 1.719
82.6097 1.979
82.6400 1.667
82.6702 1.875
82.7005 2.240
82.7308 1.771
82.7611 2.031
82.7914 1.406
82.8216 2.135
82.8519 2.083
82.8822 1.406
82.9125 1.875
82.9427 1.823
82.9730 1.719
83.0033 2.135
83.0336 1.875
83.0639 1.875
83.0941 1.979
83.1244 1.875
83.1547 1.979
83.1850 1.510
83.2153 1.667
83.2455 1.771
83.2758 1.667
83.3061 1.406
83.3364 1.771
83.3666 1.615
83.3969 1.927
83.4272 1.667
83.4575 1.719
83.4878 2.083
83.5180 1.927
83.5483 2.135
83.5786 1.510
83.6089 1.875
83.6392 1.510
83.6694 1.667
83.6997 1.979
83.7300 1.979
83.7603 1.667
83.7905 1.719
83.8208 1.198
83.8511 1.719
83.8814 1.406
83.9117 2.031
83.9419 2.083
83.9722 1.615
84.0025 1.667
84.0328 2.500
84.0631 1.667
84.0933 1.771
84.1236 2.604
84.1539 1.927
84.1842 1.927
84.2144 1.823
84.2447 2.083
84.2750 1.615
84.3053 1.615
84.3356 1.458
84.3658 2.292
84.3961 1.719
84.4264 2.344
84.4567 1.875
84.4870 2.240
84.5172 2.135
84.5475 1.354
84.5778 2.344
84.6081 2.135
84.6383 1.823
84.6686 1.771
84.6989 2.135
84.7292 1.875
84.7595 1.771
84.7897 1.719
84.8200 1.875
84.8503 1.771
84.8806 2.187
84.9109 2.187
84.9411 1.719
84.9714 1.510
85.0017 1.771
85.0320 1.719
85.0623 1.771
85.0925 1.719
85.1228 1.667
85.1531 2.083
85.1834 1.354
85.2136 1.979
85.2439 2.083
85.2742 1.771
85.3045 1.875
85.3348 1.615
85.3650 1.719
85.3953 1.562
85.4256 2.083
85.4559 1.667
85.4862 1.979
85.5164 2.135
85.5467 1.510
85.5770 2.135
85.6073 1.615
85.6375 1.458
85.6678 1.458
85.6981 1.979
85.7284 2.135
85.7587 1.927
85.7889 1.354
85.8192 1.667
85.8495 2.135
85.8798 1.927
85.9101 1.979
85.9403 2.135
85.9706 2.083
86.0009 1.667
86.0312 2.031
86.0614 1.562
86.0917 1.875
86.1220 1.719
86.1523 1.719
86.1826 2.031
86.2128 2.135
86.2431 2.552
86.2734 1.458
86.3037 1.667
86.3340 1.771
86.3642 2.344
86.3945 2.396
86.4248 1.302
86.4551 1.979
86.4853 1.250
86.5156 1.823
86.5459 2.292
86.5762 2.448
86.6065 1.771
86.6367 1.719
86.6670 1.562
86.6973 1.823
86.7276 2.083
86.7579 1.927
86.7881 1.458
86.8184 1.667
86.8487 2.500
86.8790 1.354
86.9092 1.667
86.9395 1.979
86.9698 2.083
87.0001 1.875
87.0304 1.615
87.0606 1.771
87.0909 1.875
87.1212 1.510
87.1515 1.615
87.1818 1.719
87.2120 1.510
87.2423 2.552
87.2726 1.458
87.3029 1.823
87.3331 1.458
87.3634 1.562
87.3937 1.719
87.4240 2.031
87.4543 1.875
87.4845 1.927
87.5148 1.927
87.5451 1.875
87.5754 1.875
87.6057 1.510
87.6359 1.667
87.6662 1.979
87.6965 1.771
87.7268 1.406
87.7571 0.990
87.7873 1.667
87.8176 1.979
87.8479 1.458
87.8782 1.406
87.9084 1.875
87.9387 1.562
87.9690 1.719
87.9993 1.562
88.0296 1.667
88.0598 1.458
88.0901 2.031
88.1204 1.771
88.1507 1.667
88.1810 2.135
88.2112 1.562
88.2415 1.771
88.2718 1.458
88.3021 1.771
88.3323 2.448
88.3626 1.667
88.3929 1.927
88.4232 1.875
88.4535 1.250
88.4837 1.510
88.5140 1.510
88.5443 2.187
88.5746 1.719
88.6049 1.302
88.6351 1.979
88.6654 1.823
88.6957 1.667
88.7260 1.458
88.7562 1.406
88.7865 1.823
88.8168 1.875
88.8471 1.615
88.8774 1.875
88.9076 1.719
88.9379 1.771
88.9682 1.771
88.9985 1.667
89.0288 1.667
89.0590 1.510
89.0893 1.562
89.1196 1.823
89.1499 1.719
89.1801 1.927
89.2104 2.083
89.2407 1.302
89.2710 1.979
89.3013 1.198
89.3315 1.875
89.3618 1.354
89.3921 1.406
89.4224 2.344
89.4527 1.198
89.4829 1.562
89.5132 1.198
89.5435 1.615
89.5738 1.354
89.6040 1.302
89.6343 1.510
89.6646 1.771
89.6949 1.615
89.7252 1.198
89.7554 1.927
89.7857 2.187
89.8160 1.510
89.8463 1.875
89.8766 1.562
89.9068 1.562
89.9371 1.302
89.9674 1.562
89.9977 1.094
90.0279 1.979
90.0582 1.354
90.0885 1.875
90.1188 1.146
90.1491 1.927
90.1793 2.448
90.2096 2.292
90.2399 1.198
90.2702 1.458
90.3005 1.875
90.3307 1.875
90.3610 1.823
90.3913 1.771
90.4216 1.771
90.4518 2.083
90.4821 1.927
90.5124 2.187
90.5427 1.719
90.5730 2.344
90.6032 1.562
90.6335 2.031
90.6638 1.979
90.6941 1.667
90.7244 1.667
90.7546 1.458
90.7849 1.667
90.8152 1.458
90.8455 2.083
90.8758 1.667
90.9060 1.354
90.9363 1.510
90.9666 1.615
90.9969 2.031
91.0271 1.406
91.0574 1.510
91.0877 1.667
91.1180 2.135
91.1483 1.406
91.1785 1.510
91.2088 1.250
91.2391 2.083
91.2694 1.667
91.2997 1.562
91.3299 1.771
91.3602 2.344
91.3905 1.354
91.4208 1.250
91.4510 1.823
91.4813 1.823
91.5116 1.875
91.5419 2.187
91.5722 2.083
91.6024 1.927
91.6327 1.667
91.6630 1.667
91.6933 1.875
91.7236 1.667
91.7538 1.823
91.7841 1.667
91.8144 1.719
91.8447 2.187
91.8749 1.667
91.9052 1.667
91.9355 1.302
91.9658 1.458
91.9961 1.250
92.0263 1.979
92.0566 2.083
92.0869 1.719
92.1172 2.187
92.1475 1.771
92.1777 1.458
92.2080 1.562
92.2383 1.667
92.2686 1.250
92.2988 2.187
92.3291 0.990
92.3594 2.135
92.3897 1.562
92.4200 1.875
92.4502 1.979
92.4805 1.510
92.5108 1.979
92.5411 2.135
92.5714 1.875
92.6016 1.510
92.6319 1.458
92.6622 1.250
92.6925 1.562
92.7227 1.615
92.7530 1.302
92.7833 1.823
92.8136 1.458
92.8439 1.354
92.8741 1.667
92.9044 1.094
92.9347 1.354
92.9650 1.719
92.9953 1.927
93.0255 1.875
93.0558 1.354
93.0861 1.719
93.1164 1.146
93.1466 1.771
93.1769 1.615
93.2072 1.354
93.2375 1.510
93.2678 1.615
93.2980 1.510
93.3283 1.719
93.3586 1.094
93.3889 1.719
93.4192 1.875
93.4494 1.615
93.4797 1.510
93.5100 1.771
93.5403 1.094
93.5706 1.771
93.6008 1.198
93.6311 1.823
93.6614 1.771
93.6917 1.562
93.7219 1.354
93.7522 1.250
93.7825 1.510
93.8128 1.562
93.8431 0.990
93.8733 1.146
93.9036 1.719
93.9339 0.937
93.9642 1.667
93.9945 2.031
94.0247 1.615
94.0550 1.719
94.0853 1.250
94.1156 1.510
94.1458 1.198
94.1761 1.302
94.2064 2.083
94.2367 1.562
94.2670 1.771
94.2972 1.510
94.3275 1.667
94.3578 1.615
94.3881 1.927
94.4184 1.510
94.4486 1.198
94.4789 1.250
94.5092 1.615
94.5395 1.250
94.5697 1.719
94.6000 1.927
94.6303 1.719
94.6606 1.302
94.6909 1.823
94.7211 1.250
94.7514 1.146
94.7817 1.042
94.8120 1.354
94.8423 2.135
94.8725 1.562
94.9028 1.406
94.9331 1.615
94.9634 1.875
94.9936 1.823
95.0239 1.458
95.0542 1.354
95.0845 1.302
95.1148 1.823
95.1450 1.510
95.1753 1.042
95.2056 1.927
95.2359 1.406
95.2662 1.198
95.2964 1.719
95.3267 2.083
95.3570 1.250
95.3873 1.146
95.4175 1.979
95.4478 1.354
95.4781 1.042
95.5084 1.302
95.5387 1.458
95.5689 1.458
95.5992 1.458
95.6295 1.198
95.6598 1.354
95.6901 1.562
95.7203 1.719
95.7506 1.875
95.7809 1.562
95.8112 1.562
95.8414 1.615
95.8717 1.406
95.9020 1.302
95.9323 1.302
95.9626 1.250
95.9928 1.406
96.0231 1.354
96.0534 2.031
96.0837 1.198
96.1140 1.927
96.1442 1.823
96.1745 1.979
96.2048 1.562
96.2351 1.719
96.2653 1.406
96.2956 1.094
96.3259 1.927
96.3562 1.042
96.3865 1.354
96.4167 1.719
96.4470 1.615
96.4773 1.667
96.5076 1.250
96.5379 1.823
96.5681 1.562
96.5984 1.198
96.6287 1.562
96.6590 1.458
96.6893 1.562
96.7195 1.458
96.7498 1.771
96.7801 1.979
96.8104 2.292
96.8406 1.146
96.8709 2.083
96.9012 1.094
96.9315 1.302
96.9618 1.771
96.9920 1.823
97.0223 1.458
97.0526 1.146
97.0829 1.510
97.1132 1.875
97.1434 1.458
97.1737 1.615
97.2040 1.667
97.2343 1.771
97.2645 2.292
97.2948 1.719
97.3251 1.823
97.3554 1.250
97.3857 1.458
97.4159 1.458
97.4462 1.562
97.4765 1.510
97.5068 1.510
97.5371 1.615
97.5673 1.875
97.5976 1.979
97.6279 1.198
97.6582 1.406
97.6884 1.458
97.7187 1.562
97.7490 2.083
97.7793 2.552
97.8096 1.406
97.8398 1.562
97.8701 1.146
97.9004 1.562
97.9307 1.250
97.9610 1.406
97.9912 1.510
98.0215 1.719
98.0518 1.146
98.0821 1.562
98.1123 1.719
98.1426 1.719
98.1729 1.771
98.2032 1.979
98.2335 1.771
98.2637 1.979
98.2940 1.250
98.3243 1.198
98.3546 1.875
98.3849 1.771
98.4151 1.354
98.4454 2.292
98.4757 1.458
98.5060 1.198
98.5362 1.823
98.5665 1.510
98.5968 1.719
98.6271 1.615
98.6574 1.823
98.6876 1.510
98.7179 2.031
98.7482 1.823
98.7785 1.927
98.8088 1.406
98.8390 1.458
98.8693 1.406
98.8996 1.667
98.9299 2.187
98.9601 1.562
98.9904 1.458
99.0207 1.562
99.0510 1.823
99.0813 1.146
99.1115 1.823
99.1418 1.823
99.1721 1.354
99.2024 1.302
99.2327 1.823
99.2629 1.615
99.2932 1.615
99.3235 1.667
99.3538 0.833
99.3841 1.562
99.4143 2.031
99.4446 1.354
99.4749 1.615
99.5052 1.823
99.5354 1.719
99.5657 1.302
99.5960 2.031
99.6263 1.406
99.6566 1.302
99.6868 1.458
99.7171 1.615
99.7474 1.510
99.7777 0.990
99.8080 1.562
99.8382 1.354
99.8685 1.406
99.8988 2.344
99.9291 1.302
99.9593 1.458
99.9896 1.771
100.0199 1.302
100.0502 1.615
100.0805 1.042
100.1107 1.927
100.1410 1.510
100.1713 1.406
100.2016 1.979
100.2319 1.406
100.2621 1.198
100.2924 2.083
100.3227 2.135
100.3530 1.146
100.3832 1.406
100.4135 1.250
100.4438 1.354
100.4741 1.719
100.5044 1.667
100.5346 1.719
100.5649 1.823
100.5952 1.354
100.6255 1.198
100.6558 1.719
100.6860 1.562
100.7163 1.146
100.7466 1.979
100.7769 1.198
100.8071 1.823
100.8374 1.146
100.8677 2.083
100.8980 1.406
100.9283 1.562
100.9585 1.667
100.9888 1.302
101.0191 1.615
101.0494 1.406
101.0797 1.458
101.1099 1.667
101.1402 1.458
101.1705 1.406
101.2008 1.719
101.2310 1.042
101.2613 1.302
101.2916 1.094
101.3219 1.458
101.3522 1.250
101.3824 2.031
101.4127 1.979
101.4430 1.667
101.4733 1.250
101.5036 1.198
101.5338 1.667
101.5641 1.771
101.5944 1.667
101.6247 1.302
101.6549 1.562
101.6852 1.562
101.7155 1.771
101.7458 1.250
101.7761 1.458
101.8063 1.615
101.8366 1.979
101.8669 1.562
101.8972 1.354
101.9275 1.354
101.9577 1.615
101.9880 0.781
102.0183 1.354
102.0486 1.875
102.0788 1.510
102.1091 1.198
102.1394 1.823
102.1697 1.562
102.2000 1.458
102.2302 1.354
102.2605 1.198
102.2908 2.083
102.3211 1.719
102.3514 1.979
102.3816 1.458
102.4119 1.406
102.4422 1.823
102.4725 1.719
102.5028 1.354
102.5330 1.406
102.5633 1.875
102.5936 1.354
102.6239 1.458
102.6541 1.719
102.6844 1.094
102.7147 1.875
102.7450 1.667
102.7753 1.771
102.8055 1.406
102.8358 1.562
102.8661 1.823
102.8964 1.615
102.9267 1.354
102.9569 1.719
102.9872 1.354
103.0175 1.250
103.0478 0.781
103.0780 1.562
103.1083 1.510
103.1386 1.667
103.1689 1.354
103.1992 1.354
103.2294 1.354
103.2597 0.990
103.2900 1.042
103.3203 1.146
103.3506 1.094
103.3808 1.354
103.4111 1.771
103.4414 1.250
103.4717 1.354
103.5019 0.937
103.5322 1.250
103.5625 1.562
103.5928 1.875
103.6231 1.302
103.6533 1.406
103.6836 1.094
103.7139 1.927
103.7442 1.406
103.7745 1.562
103.8047 1.615
103.8350 1.406
103.8653 1.562
103.8956 1.719
103.9258 0.833
103.9561 1.406
103.9864 1.823
104.0167 1.771
104.0470 1.094
104.0772 1.042
104.1075 1.406
104.1378 1.146
104.1681 1.562
104.1984 1.354
104.2286 1.875
104.2589 1.302
104.2892 1.771
104.3195 1.667
104.3497 1.823
104.3800 1.667
104.4103 1.458
104.4406 1.510
104.4709 1.042
104.5011 1.771
104.5314 1.406
104.5617 1.510
104.5920 1.406
104.6223 1.406
104.6525 1.458
104.6828 2.083
104.7131 1.458
104.7434 0.885
104.7736 1.875
104.8039 1.406
104.8342 1.406
104.8645 1.510
104.8948 1.771
104.9250 1.458
104.9553 1.198
104.9856 1.406
105.0159 1.719
105.0462 1.562
105.0764 1.406
105.1067 1.250
105.1370 1.406
105.1673 1.510
105.1975 1.562
105.2278 1.302
105.2581 1.458
105.2884 1.198
105.3187 1.302
105.3489 1.458
105.3792 1.406
105.4095 1.406
105.4398 1.094
105.4701 1.042
105.5003 1.719
105.5306 1.458
105.5609 1.354
105.5912 1.927
105.6215 1.198
105.6517 1.146
105.6820 1.719
105.7123 1.146
105.7426 1.250
105.7728 1.354
105.8031 1.042
105.8334 1.771
105.8637 1.458
105.8940 1.562
105.9242 1.667
105.9545 1.615
105.9848 2.031
106.0151 1.198
106.0454 1.302
106.0756 1.615
106.1059 1.146
106.1362 0.885
106.1665 1.667
106.1967 1.198
106.2270 1.719
106.2573 1.667
106.2876 1.042
106.3179 1.562
106.3481 1.458
106.3784 1.458
106.4087 1.250
106.4390 1.354
106.4693 1.146
106.4995 1.719
106.5298 1.302
106.5601 1.198
106.5904 1.667
106.6206 1.458
106.6509 1.823
106.6812 1.458
106.7115 1.250
106.7418 1.406
106.7720 1.354
106.8023 1.146
106.8326 1.458
106.8629 0.885
106.8932 1.510
106.9234 1.562
106.9537 1.458
106.9840 1.094
107.0143 1.302
107.0445 1.771
107.0748 1.615
107.1051 1.615
107.1354 1.458
107.1657 1.667
107.1959 1.510
107.2262 0.885
107.2565 1.667
107.2868 1.771
107.3171 1.302
107.3473 1.510
107.3776 1.510
107.4079 1.719
107.4382 1.094
107.4684 1.875
107.4987 1.042
107.5290 1.250
107.5593 1.302
107.5896 1.510
107.6198 1.719
107.6501 0.937
107.6804 1.250
107.7107 1.198
107.7410 1.510
107.7712 1.302
107.8015 2.083
107.8318 1.510
107.8621 0.937
107.8923 1.354
107.9226 1.354
107.9529 1.510
107.9832 1.667
108.0135 1.510
108.0437 1.510
108.0740 1.510
108.1043 1.562
108.1346 1.510
108.1649 1.771
108.1951 1.562
108.2254 1.250
108.2557 1.823
108.2860 1.510
108.3163 1.771
108.3465 1.406
108.3768 1.406
108.4071 1.458
108.4374 2.187
108.4676 1.667
108.4979 1.615
108.5282 1.510
108.5585 1.510
108.5888 1.562
108.6190 1.458
108.6493 1.510
108.6796 1.198
108.7099 1.615
108.7402 1.510
108.7704 1.875
108.8007 1.198
108.8310 1.562
108.8613 1.354
108.8915 1.042
108.9218 1.250
108.9521 1.458
108.9824 1.719
109.0127 2.292
109.0429 1.615
109.0732 1.458
109.1035 1.094
109.1338 1.042
109.1641 1.042
109.1943 1.562
109.2246 1.094
109.2549 1.875
109.2852 1.719
109.3154 1.823
109.3457 1.354
109.3760 1.562
109.4063 1.146
109.4366 1.562
109.4668 0.990
109.4971 1.354
109.5274 1.458
109.5577 1.354
109.5880 1.562
109.6182 1.146
109.6485 1.615
109.6788 1.198
109.7091 1.562
109.7393 1.562
109.7696 1.354
109.7999 1.562
109.8302 1.354
109.8605 1.458
109.8907 1.146
109.9210 1.198
109.9513 1.354
109.9816 1.302
110.0119 1.562
110.0421 1.250
110.0724 1.667
110.1027 1.562
110.1330 1.719
110.1632 1.562
110.1935 0.937
110.2238 1.198
110.2541 1.406
110.2844 0.990
110.3146 1.562
110.3449 1.198
110.3752 0.937
110.4055 1.562
110.4358 1.979
110.4660 1.510
110.4963 1.562
110.5266 1.562
110.5569 1.615
110.5871 1.510
110.6174 1.615
110.6477 0.937
110.6780 1.615
110.7083 1.354
110.7385 1.458
110.7688 1.458
110.7991 1.198
110.8294 1.615
110.8597 1.406
110.8899 1.562
110.9202 1.979
110.9505 1.042
110.9808 1.094
111.0110 1.771
111.0413 1.458
111.0716 1.250
111.1019 1.406
111.1322 1.198
111.1624 1.198
111.1927 1.823
111.2230 1.510
111.2533 1.094
111.2836 1.615
111.3138 1.406
111.3441 1.562
111.3744 1.667
111.4047 1.823
111.4350 1.354
111.4652 1.250
111.4955 1.354
111.5258 1.406
111.5561 1.667
111.5863 1.458
111.6166 1.719
111.6469 1.354
111.6772 1.562
111.7075 1.354
111.7377 1.771
111.7680 0.990
111.7983 1.354
111.8286 1.094
111.8589 1.302
111.8891 1.667
111.9194 1.406
111.9497 1.771
111.9800 1.354
112.0102 1.042
112.0405 1.667
112.0708 1.250
112.1011 1.771
112.1314 1.562
112.1616 1.458
112.1919 1.719
112.2222 1.458
112.2525 1.615
112.2828 1.458
112.3130 0.990
112.3433 1.562
112.3736 1.354
112.4039 1.875
112.4341 1.927
112.4644 1.198
112.4947 1.250
112.5250 1.302
112.5553 0.990
112.5855 1.510
112.6158 0.885
112.6461 1.719
112.6764 1.510
112.7067 1.406
112.7369 1.354
112.7672 1.250
112.7975 1.302
112.8278 1.094
112.8580 2.187
112.8883 1.042
112.9186 1.042
112.9489 1.719
112.9792 1.615
113.0094 1.250
113.0397 1.094
113.0700 1.875
113.1003 1.510
113.1306 1.458
113.1608 1.458
113.1911 1.406
113.2214 1.771
113.2517 1.719
113.2819 1.302
113.3122 1.250
113.3425 2.031
113.3728 1.146
113.4031 1.406
113.4333 1.615
113.4636 0.990
113.4939 1.771
113.5242 1.719
113.5545 1.719
113.5847 1.615
113.6150 1.198
113.6453 1.250
113.6756 1.771
113.7058 1.354
113.7361 1.406
113.7664 1.094
113.7967 1.562
113.8270 1.562
113.8572 1.302
113.8875 1.302
113.9178 1.562
113.9481 1.771
113.9784 1.406
114.0086 1.250
114.0389 1.302
114.0692 1.562
114.0995 1.510
114.1298 1.615
114.1600 2.031
114.1903 1.875
114.2206 1.458
114.2509 1.406
114.2811 1.146
114.3114 1.406
114.3417 1.979
114.3720 1.354
114.4023 1.250
114.4325 1.823
114.4628 1.250
114.4931 1.667
114.5234 1.198
114.5537 1.094
114.5839 1.354
114.6142 1.510
114.6445 1.667
114.6748 1.406
114.7050 1.406
114.7353 0.937
114.7656 1.719
114.7959 1.250
114.8262 1.562
114.8564 1.406
114.8867 1.094
114.9170 1.406
114.9473 1.615
114.9776 1.667
115.0078 1.406
115.0381 1.302
115.0684 1.094
115.0987 1.198
115.1289 1.042
115.1592 1.198
115.1895 1.458
115.2198 1.719
115.2501 1.198
115.2803 1.198
115.3106 1.667
115.3409 1.094
115.3712 1.875
115.4015 1.042
115.4317 1.615
115.4620 1.875
115.4923 1.250
115.5226 1.510
115.5528 1.406
115.5831 1.146
115.6134 1.354
115.6437 1.510
115.6740 1.250
115.7042 1.458
115.7345 2.031
115.7648 2.083
115.7951 1.719
115.8254 1.146
115.8556 1.250
115.8859 1.146
115.9162 1.562
115.9465 1.667
115.9767 1.198
116.0070 1.562
116.0373 1.771
116.0676 1.927
116.0979 0.990
116.1281 1.458
116.1584 1.615
116.1887 1.302
116.2190 1.719
116.2493 1.615
116.2795 1.250
116.3098 1.354
116.3401 1.198
116.3704 1.510
116.4006 1.094
116.4309 1.562
116.4612 1.146
116.4915 1.771
116.5218 1.510
116.5520 1.615
116.5823 1.615
116.6126 0.677
116.6429 2.083
116.6732 1.354
116.7034 1.667
116.7337 1.875
116.7640 1.562
116.7943 1.667
116.8245 1.406
116.8548 1.615
116.8851 1.302
116.9154 1.562
116.9457 1.302
116.9759 0.885
117.0062 2.031
117.0365 1.667
117.0668 1.198
117.0971 1.719
117.1273 1.615
117.1576 1.354
117.1879 1.667
117.2182 1.875
117.2485 0.937
117.2787 1.823
117.3090 1.719
117.3393 1.823
117.3696 1.667
117.3998 1.667
117.4301 1.406
117.4604 1.562
117.4907 1.198
117.5210 1.562
117.5512 1.354
117.5815 2.031
117.6118 1.615
117.6421 1.302
117.6724 1.510
117.7026 1.302
117.7329 1.875
117.7632 1.771
117.7935 0.990
117.8237 1.458
117.8540 1.823
117.8843 1.615
117.9146 1.771
117.9449 1.667
117.9751 1.198
118.0054 1.510
118.0357 1.875
118.0660 1.354
118.0963 2.240
118.1265 1.562
118.1568 1.146
118.1871 1.198
118.2174 1.146
118.2476 1.250
118.2779 1.458
118.3082 1.615
118.3385 1.615
118.3688 1.302
118.3990 1.667
118.4293 1.302
118.4596 1.458
118.4899 1.927
118.5202 1.302
118.5504 1.458
118.5807 1.927
118.6110 1.615
118.6413 1.771
118.6715 1.719
118.7018 1.615
118.7321 1.302
118.7624 1.094
118.7927 1.302
118.8229 1.771
118.8532 1.354
118.8835 1.458
118.9138 1.823
118.9441 1.198
118.9743 1.510
119.0046 1.667
119.0349 1.458
119.0652 1.458
119.0954 1.562
119.1257 1.146
119.1560 1.927
119.1863 1.250
119.2166 1.615
119.2468 1.302
119.2771 1.354
119.3074 1.562
119.3377 1.146
119.3680 1.615
119.3982 1.250
119.4285 1.615
119.4588 1.615
119.4891 1.875
119.5193 1.354
119.5496 1.458
119.5799 1.354
119.6102 1.146
119.6405 1.562
119.6707 1.510
119.7010 1.458
119.7313 0.990
119.7616 1.875
119.7919 1.198
119.8221 1.771
119.8524 1.458
119.8827 1.562
119.9130 1.354
119.9433 1.406
119.9735 1.302
120.0038 1.302
