'Id: "" Comment: "" Operator: "Lab Manager" Anode: "Cu" Scantype: "Locked Coupled" TimePerStep: "19.2" X: "9999" Y: "9999" Z: "9999" 
10.0015 3.333
10.0318 3.802
10.0620 4.115
10.0923 4.687
10.1226 4.479
10.1529 3.854
10.1832 3.958
10.2134 3.281
10.2437 3.594
10.2740 3.854
10.3043 4.323
10.3346 4.271
10.3648 3.646
10.3951 3.750
10.4254 4.740
10.4557 4.167
10.4859 3.854
10.5162 4.375
10.5465 4.635
10.5768 4.219
10.6071 3.646
10.6373 4.635
10.6676 3.750
10.6979 3.854
10.7282 4.167
10.7585 4.792
10.7887 3.490
10.8190 5.156
10.8493 5.156
10.8796 5.208
10.9098 5.625
10.9401 7.552
10.9704 7.240
11.0007 9.687
11.0310 7.760
11.0612 8.177
11.0915 7.187
11.1218 6.667
11.1521 7.396
11.1824 5.521
11.2126 5.781
11.2429 4.844
11.2732 4.323
11.3035 4.583
11.3337 5.208
11.3640 5.417
11.3943 3.646
11.4246 4.844
11.4549 4.531
11.4851 3.385
11.5154 4.896
11.5457 4.167
11.5760 2.969
11.6063 4.792
11.6365 3.333
11.6668 3.437
11.6971 4.479
11.7274 3.594
11.7577 4.219
11.7879 3.229
11.8182 4.115
11.8485 3.490
11.8788 2.604
11.9090 3.750
11.9393 3.490
11.9696 3.646
11.9999 3.750
12.0302 3.490
12.0604 2.917
12.0907 4.271
12.1210 3.073
12.1513 3.229
12.1816 3.906
12.2118 3.594
12.2421 3.958
12.2724 3.542
12.3027 3.437
12.3329 4.010
12.3632 3.802
12.3935 3.177
12.4238 2.760
12.4541 2.708
12.4843 3.490
12.5146 3.177
12.5449 3.229
12.5752 4.115
12.6055 3.594
12.6357 3.594
12.6660 3.490
12.6963 3.333
12.7266 3.073
12.7568 3.281
12.7871 3.333
12.8174 4.427
12.8477 2.552
12.8780 3.542
12.9082 2.708
12.9385 3.698
12.9688 2.708
12.9991 3.281
13.0294 2.812
13.0596 3.073
13.0899 3.437
13.1202 3.750
13.1505 3.125
13.1807 3.333
13.2110 3.698
13.2413 3.906
13.2716 3.281
13.3019 2.760
13.3321 2.760
13.3624 3.385
13.3927 3.385
13.4230 3.437
13.4533 3.281
13.4835 3.281
13.5138 3.021
13.5441 3.437
13.5744 2.917
13.6046 3.125
13.6349 3.229
13.6652 3.021
13.6955 2.760
13.7258 2.552
13.7560 3.385
13.7863 2.917
13.8166 2.812
13.8469 3.021
13.8772 2.344
13.9074 3.490
13.9377 3.021
13.9680 3.177
13.9983 2.865
14.0285 3.021
14.0588 2.812
14.0891 3.906
14.1194 2.865
14.1497 3.385
14.1799 2.917
14.2102 3.542
14.2405 3.385
14.2708 2.500
14.3011 3.594
14.3313 2.448
14.3616 3.021
14.3919 2.552
14.4222 2.604
14.4524 2.969
14.4827 2.865
14.5130 2.865
14.5433 2.812
14.5736 3.125
14.6038 3.021
14.6341 3.437
14.6644 3.385
14.6947 2.708
14.7250 2.552
14.7552 3.385
14.7855 2.604
14.8158 2.240
14.8461 2.969
14.8764 2.917
14.9066 3.073
14.9369 2.969
14.9672 2.917
14.9975 2.448
15.0277 3.490
15.0580 3.385
15.0883 2.917
15.1186 2.969
15.1489 3.177
15.1791 3.281
15.2094 2.500
15.2397 3.646
15.2700 2.552
15.3003 3.177
15.3305 3.333
15.3608 2.969
15.3911 3.333
15.4214 2.500
15.4516 1.823
15.4819 2.604
15.5122 2.969
15.5425 2.865
15.5728 2.969
15.6030 3.229
15.6333 2.917
15.6636 2.812
15.6939 2.917
15.7242 3.073
15.7544 2.812
15.7847 2.604
15.8150 3.333
15.8453 2.500
15.8755 3.333
15.9058 3.385
15.9361 3.229
15.9664 3.021
15.9967 3.437
16.0269 2.552
16.0572 2.656
16.0875 2.865
16.1178 3.125
16.1481 3.125
16.1783 2.812
16.2086 2.812
16.2389 3.125
16.2692 2.917
16.2994 2.917
16.3297 3.021
16.3600 2.760
16.3903 3.333
16.4206 3.073
16.4508 3.646
16.4811 2.865
16.5114 3.385
16.5417 3.125
16.5720 2.448
16.6022 3.125
16.6325 3.594
16.6628 2.865
16.6931 3.333
16.7233 2.969
16.7536 3.281
16.7839 2.344
16.8142 3.177
16.8445 2.031
16.8747 3.594
16.9050 3.281
16.9353 3.854
16.9656 2.760
16.9959 3.281
17.0261 3.021
17.0564 3.073
17.0867 3.021
17.1170 2.760
17.1472 3.594
17.1775 2.656
17.2078 2.865
17.2381 3.073
17.2684 2.812
17.2986 2.708
17.3289 2.552
17.3592 3.854
17.3895 2.604
17.4198 3.333
17.4500 2.760
17.4803 2.604
17.5106 3.385
17.5409 2.708
17.5712 2.187
17.6014 3.958
17.6317 3.385
17.6620 2.135
17.6923 2.500
17.7225 3.542
17.7528 3.177
17.7831 3.490
17.8134 3.177
17.8437 2.500
17.8739 2.448
17.9042 2.917
17.9345 3.021
17.9648 2.812
17.9951 2.917
18.0253 2.500
18.0556 4.219
18.0859 2.292
18.1162 2.448
18.1464 2.396
18.1767 2.240
18.2070 2.552
18.2373 2.865
18.2676 3.021
18.2978 2.187
18.3281 3.021
18.3584 3.229
18.3887 2.083
18.4190 2.656
18.4492 2.448
18.4795 3.333
18.5098 2.396
18.5401 3.177
18.5703 2.187
18.6006 3.125
18.6309 2.708
18.6612 3.125
18.6915 3.490
18.7217 3.594
18.7520 2.656
18.7823 2.031
18.8126 1.771
18.8429 2.708
18.8731 2.292
18.9034 3.698
18.9337 2.708
18.9640 2.552
18.9942 2.448
19.0245 2.500
19.0548 4.062
19.0851 2.396
19.1154 2.969
19.1456 2.760
19.1759 3.125
19.2062 2.604
19.2365 3.490
19.2668 3.177
19.2970 3.073
19.3273 3.125
19.3576 2.812
19.3879 2.760
19.4181 3.229
19.4484 2.708
19.4787 2.656
19.5090 2.917
19.5393 2.500
19.5695 2.917
19.5998 2.760
19.6301 2.240
19.6604 3.281
19.6907 1.771
19.7209 2.760
19.7512 3.177
19.7815 2.240
19.8118 2.917
19.8420 3.333
19.8723 2.552
19.9026 2.500
19.9329 2.656
19.9632 2.969
19.9934 2.708
20.0237 2.604
20.0540 3.854
20.0843 2.865
20.1146 2.448
20.1448 2.760
20.1751 2.552
20.2054 2.812
20.2357 2.604
20.2659 1.979
20.2962 2.708
20.3265 2.500
20.3568 2.656
20.3871 3.437
20.4173 2.917
20.4476 2.187
20.4779 2.500
20.5082 2.500
20.5385 2.031
20.5687 3.021
20.5990 1.979
20.6293 2.604
20.6596 2.135
20.6899 1.875
20.7201 1.875
20.7504 2.708
20.7807 2.292
20.8110 2.760
20.8412 2.344
20.8715 2.135
20.9018 2.708
20.9321 2.552
20.9624 2.344
20.9926 2.552
21.0229 2.604
21.0532 2.656
21.0835 2.344
21.1138 3.021
21.1440 2.344
21.1743 2.500
21.2046 2.396
21.2349 2.865
21.2651 3.125
21.2954 2.865
21.3257 2.344
21.3560 2.865
21.3863 2.083
21.4165 3.125
21.4468 2.708
21.4771 2.187
21.5074 2.500
21.5377 2.604
21.5679 1.927
21.5982 3.281
21.6285 2.656
21.6588 3.125
21.6890 2.604
21.7193 2.448
21.7496 3.177
21.7799 2.865
21.8102 2.083
21.8404 1.927
21.8707 2.969
21.9010 2.552
21.9313 2.760
21.9616 2.448
21.9918 2.500
22.0221 3.125
22.0524 2.448
22.0827 2.917
22.1129 2.240
22.1432 2.656
22.1735 2.865
22.2038 1.823
22.2341 2.812
22.2643 3.385
22.2946 2.292
22.3249 2.865
22.3552 2.083
22.3855 1.771
22.4157 2.865
22.4460 3.021
22.4763 2.187
22.5066 2.448
22.5368 2.500
22.5671 2.552
22.5974 2.708
22.6277 2.292
22.6580 2.812
22.6882 2.500
22.7185 1.927
22.7488 2.396
22.7791 2.292
22.8094 2.500
22.8396 2.344
22.8699 2.500
22.9002 2.552
22.9305 2.812
22.9607 2.344
22.9910 3.021
23.0213 2.396
23.0516 2.292
23.0819 3.385
23.1121 2.135
23.1424 3.750
23.1727 2.396
23.2030 2.656
23.2333 2.135
23.2635 2.917
23.2938 2.812
23.3241 2.396
23.3544 2.240
23.3846 2.656
23.4149 2.135
23.4452 2.448
23.4755 2.969
23.5058 2.292
23.5360 3.177
23.5663 2.344
23.5966 2.500
23.6269 2.031
23.6572 2.604
23.6874 2.917
23.7177 3.073
23.7480 2.240
23.7783 2.031
23.8086 2.135
23.8388 2.448
23.8691 2.031
23.8994 3.125
23.9297 2.448
23.9599 2.500
23.9902 2.656
24.0205 3.125
24.0508 2.865
24.0811 2.396
24.1113 2.187
24.1416 2.865
24.1719 2.448
24.2022 2.760
24.2325 2.292
24.2627 2.708
24.2930 2.552
24.3233 2.396
24.3536 2.344
24.3838 2.812
24.4141 2.865
24.4444 2.031
24.4747 3.437
24.5050 2.240
24.5352 2.448
24.5655 2.187
24.5958 2.396
24.6261 1.875
24.6564 2.292
24.6866 2.292
24.7169 1.979
24.7472 2.812
24.7775 2.865
24.8077 2.448
24.8380 1.979
24.8683 2.760
24.8986 1.771
24.9289 2.031
24.9591 2.812
24.9894 2.552
25.0197 2.552
25.0500 2.187
25.0803 2.135
25.1105 2.552
25.1408 2.292
25.1711 2.552
25.2014 1.875
25.2316 3.177
25.2619 2.708
25.2922 2.656
25.3225 2.812
25.3528 2.917
25.3830 2.812
25.4133 2.708
25.4436 2.396
25.4739 2.292
25.5042 2.187
25.5344 2.917
25.5647 2.708
25.5950 2.292
25.6253 3.021
25.6555 2.917
25.6858 2.083
25.7161 2.135
25.7464 2.604
25.7767 2.448
25.8069 2.448
25.8372 2.448
25.8675 3.073
25.8978 3.073
25.9281 2.448
25.9583 2.344
25.9886 2.292
26.0189 2.604
26.0492 2.396
26.0794 2.760
26.1097 2.448
26.1400 2.187
26.1703 2.292
26.2006 2.552
26.2308 2.552
26.2611 2.500
26.2914 2.552
26.3217 2.708
26.3520 2.448
26.3822 2.760
26.4125 2.708
26.4428 2.083
26.4731 2.448
26.5034 3.281
26.5336 2.760
26.5639 2.604
26.5942 2.656
26.6245 2.240
26.6547 2.448
26.6850 2.500
26.7153 2.708
26.7456 2.760
26.7759 2.969
26.8061 2.552
26.8364 3.177
26.8667 2.396
26.8970 2.552
26.9273 2.500
26.9575 2.760
26.9878 2.656
27.0181 3.646
27.0484 2.969
27.0786 2.344
27.1089 2.500
27.1392 2.760
27.1695 2.969
27.1998 3.125
27.2300 2.865
27.2603 2.552
27.2906 3.021
27.3209 3.073
27.3512 2.500
27.3814 2.917
27.4117 2.969
27.4420 3.125
27.4723 2.448
27.5025 2.969
27.5328 2.708
27.5631 2.917
27.5934 3.281
27.6237 2.917
27.6539 2.812
27.6842 3.125
27.7145 3.385
27.7448 2.187
27.7751 3.594
27.8053 3.281
27.8356 2.708
27.8659 3.281
27.8962 3.333
27.9264 3.646
27.9567 3.437
27.9870 3.698
28.0173 3.281
28.0476 2.656
28.0778 2.708
28.1081 2.812
28.1384 3.542
28.1687 4.115
28.1990 3.333
28.2292 3.490
28.2595 3.021
28.2898 4.219
28.3201 3.177
28.3503 3.281
28.3806 3.385
28.4109 3.333
28.4412 3.125
28.4715 3.385
28.5017 3.177
28.5320 2.656
28.5623 3.177
28.5926 2.917
28.6229 2.760
28.6531 3.646
28.6834 2.969
28.7137 3.177
28.7440 4.427
28.7742 3.385
28.8045 3.229
28.8348 3.333
28.8651 3.385
28.8954 2.969
28.9256 3.854
28.9559 3.490
28.9862 2.760
29.0165 3.281
29.0468 4.010
29.0770 3.802
29.1073 3.542
29.1376 2.969
29.1679 3.125
29.1981 3.437
29.2284 4.062
29.2587 4.375
29.2890 3.594
29.3193 3.646
29.3495 2.969
29.3798 3.177
29.4101 3.437
29.4404 3.385
29.4707 3.646
29.5009 3.698
29.5312 3.750
29.5615 4.219
29.5918 3.542
29.6221 3.750
29.6523 3.958
29.6826 3.854
29.7129 3.854
29.7432 3.125
29.7734 3.594
29.8037 4.167
29.8340 4.740
29.8643 3.594
29.8946 4.062
29.9248 4.062
29.9551 3.437
29.9854 3.802
30.0157 3.646
30.0460 4.271
30.0762 4.010
30.1065 4.635
30.1368 4.115
30.1671 4.687
30.1973 3.854
30.2276 5.000
30.2579 3.906
30.2882 5.573
30.3185 4.896
30.3487 5.625
30.3790 5.469
30.4093 4.687
30.4396 4.948
30.4699 5.469
30.5001 5.625
30.5304 4.635
30.5607 5.885
30.5910 5.677
30.6212 6.302
30.6515 6.146
30.6818 6.146
30.7121 6.198
30.7424 6.406
30.7726 8.021
30.8029 7.969
30.8332 7.344
30.8635 7.187
30.8938 8.021
30.9240 7.448
30.9543 8.542
30.9846 8.958
31.0149 9.375
31.0451 9.531
31.0754 11.354
31.1057 10.781
31.1360 11.927
31.1663 12.344
31.1965 13.490
31.2268 16.198
31.2571 15.260
31.2874 18.854
31.3177 18.698
31.3479 22.552
31.3782 23.333
31.4085 25.521
31.4388 27.240
31.4690 31.875
31.4993 33.802
31.5296 34.479
31.5599 40.000
31.5902 37.083
31.6204 38.646
31.6507 42.448
31.6810 39.531
31.7113 37.187
31.7416 34.740
31.7718 32.240
31.8021 31.667
31.8324 26.771
31.8627 23.437
31.8929 23.594
31.9232 19.896
31.9535 19.115
31.9838 17.344
32.0141 14.323
32.0443 12.917
32.0746 13.906
32.1049 13.542
32.1352 9.740
32.1655 10.260
32.1957 10.312
32.2260 9.375
32.2563 8.854
32.2866 9.740
32.3169 8.802
32.3471 6.458
32.3774 7.708
32.4077 8.698
32.4380 7.344
32.4682 7.187
32.4985 6.198
32.5288 7.448
32.5591 6.510
32.5894 5.208
32.6196 5.052
32.6499 6.354
32.6802 5.104
32.7105 6.771
32.7408 4.844
32.7710 5.833
32.8013 5.208
32.8316 5.469
32.8619 5.781
32.8921 6.354
32.9224 5.104
32.9527 5.417
32.9830 5.365
33.0133 5.365
33.0435 4.844
33.0738 5.573
33.1041 6.146
33.1344 5.677
33.1647 5.521
33.1949 5.260
33.2252 5.469
33.2555 5.469
33.2858 5.677
33.3160 5.885
33.3463 6.198
33.3766 5.729
33.4069 5.885
33.4372 5.208
33.4674 5.677
33.4977 6.510
33.5280 5.573
33.5583 5.625
33.5886 6.146
33.6188 6.562
33.6491 5.833
33.6794 7.760
33.7097 6.406
33.7399 7.292
33.7702 8.906
33.8005 8.385
33.8308 8.854
33.8611 7.969
33.8913 7.760
33.9216 10.833
33.9519 11.458
33.9822 11.615
34.0125 15.000
34.0427 14.167
34.0730 17.083
34.1033 20.677
34.1336 22.552
34.1638 26.562
34.1941 34.687
34.2244 37.708
34.2547 47.448
34.2850 51.250
34.3152 50.417
34.3455 47.604
34.3758 41.406
34.4061 34.583
34.4364 28.958
34.4666 23.958
34.4969 20.937
34.5272 16.302
34.5575 16.406
34.5877 13.021
34.6180 13.802
34.6483 10.729
34.6786 10.781
34.7089 9.687
34.7391 10.312
34.7694 9.583
34.7997 9.115
34.8300 9.323
34.8603 7.865
34.8905 8.802
34.9208 9.323
34.9511 8.646
34.9814 7.708
35.0116 8.854
35.0419 7.812
35.0722 7.656
35.1025 9.010
35.1328 8.958
35.1630 9.687
35.1933 8.854
35.2236 9.687
35.2539 9.479
35.2842 10.104
35.3144 10.000
35.3447 11.771
35.3750 10.677
35.4053 10.677
35.4356 10.677
35.4658 12.240
35.4961 12.031
35.5264 12.240
35.5567 13.229
35.5869 14.219
35.6172 15.885
35.6475 15.990
35.6778 18.594
35.7081 17.448
35.7383 18.229
35.7686 22.708
35.7989 25.260
35.8292 27.344
35.8595 31.042
35.8897 30.104
35.9200 37.604
35.9503 40.156
35.9806 47.292
36.0108 48.542
36.0411 49.583
36.0714 54.583
36.1017 54.167
36.1320 58.958
36.1622 52.292
36.1925 55.885
36.2228 48.177
36.2531 46.146
36.2834 44.792
36.3136 40.208
36.3439 36.771
36.3742 31.198
36.4045 29.635
36.4347 27.656
36.4650 25.833
36.4953 21.354
36.5256 19.323
36.5559 18.229
36.5861 16.979
36.6164 15.521
36.6467 13.906
36.6770 13.646
36.7073 10.937
36.7375 10.885
36.7678 9.687
36.7981 7.865
36.8284 8.646
36.8586 9.896
36.8889 8.229
36.9192 8.229
36.9495 8.021
36.9798 6.198
37.0100 7.552
37.0403 5.885
37.0706 5.729
37.1009 6.302
37.1312 5.729
37.1614 5.937
37.1917 5.208
37.2220 5.365
37.2523 5.677
37.2825 4.375
37.3128 5.937
37.3431 4.479
37.3734 4.427
37.4037 4.323
37.4339 3.437
37.4642 4.115
37.4945 4.687
37.5248 4.479
37.5551 4.167
37.5853 3.802
37.6156 4.427
37.6459 4.531
37.6762 4.375
37.7064 2.812
37.7367 3.698
37.7670 3.854
37.7973 4.792
37.8276 3.958
37.8578 3.437
37.8881 3.490
37.9184 4.010
37.9487 4.479
37.9790 3.646
38.0092 3.385
38.0395 3.750
38.0698 3.698
38.1001 2.760
38.1304 3.385
38.1606 3.073
38.1909 2.969
38.2212 2.708
38.2515 2.865
38.2817 3.333
38.3120 2.708
38.3423 2.292
38.3726 3.073
38.4029 3.385
38.4331 2.969
38.4634 2.760
38.4937 2.760
38.5240 3.125
38.5543 2.917
38.5845 3.281
38.6148 2.448
38.6451 2.500
38.6754 2.812
38.7056 3.646
38.7359 2.604
38.7662 2.812
38.7965 2.708
38.8268 2.552
38.8570 3.281
38.8873 2.760
38.9176 2.812
38.9479 2.292
38.9782 2.083
39.0084 2.500
39.0387 2.760
39.0690 2.292
39.0993 2.448
39.1295 2.448
39.1598 2.969
39.1901 1.562
39.2204 2.240
39.2507 2.500
39.2809 2.344
39.3112 2.812
39.3415 2.240
39.3718 2.396
39.4021 2.917
39.4323 2.135
39.4626 2.500
39.4929 2.604
39.5232 2.344
39.5534 1.979
39.5837 2.083
39.6140 2.812
39.6443 2.552
39.6746 2.448
39.7048 2.917
39.7351 2.448
39.7654 2.187
39.7957 2.083
39.8260 1.771
39.8562 2.812
39.8865 2.708
39.9168 2.187
39.9471 2.292
39.9773 2.240
40.0076 2.969
40.0379 2.187
40.0682 2.396
40.0985 2.031
40.1287 2.865
40.1590 1.979
40.1893 2.135
40.2196 2.083
40.2499 1.927
40.2801 1.771
40.3104 1.667
40.3407 2.187
40.3710 1.875
40.4012 1.823
40.4315 2.344
40.4618 2.031
40.4921 1.979
40.5224 2.031
40.5526 1.354
40.5829 2.187
40.6132 1.458
40.6435 2.135
40.6738 2.187
40.7040 1.771
40.7343 1.771
40.7646 2.135
40.7949 2.396
40.8251 1.927
40.8554 1.875
40.8857 1.927
40.9160 2.812
40.9463 2.448
40.9765 2.396
41.0068 2.396
41.0371 2.187
41.0674 1.771
41.0977 2.187
41.1279 2.240
41.1582 2.187
41.1885 1.458
41.2188 1.719
41.2491 2.292
41.2793 1.667
41.3096 1.562
41.3399 2.187
41.3702 1.615
41.4004 2.031
41.4307 1.823
41.4610 1.927
41.4913 1.354
41.5216 1.719
41.5518 1.927
41.5821 1.615
41.6124 2.083
41.6427 1.615
41.6730 2.240
41.7032 1.823
41.7335 2.135
41.7638 1.979
41.7941 1.198
41.8243 2.292
41.8546 2.187
41.8849 1.927
41.9152 1.562
41.9455 1.979
41.9757 1.927
42.0060 1.406
42.0363 2.083
42.0666 1.615
42.0969 2.135
42.1271 2.083
42.1574 1.771
42.1877 1.615
42.2180 1.615
42.2482 1.875
42.2785 2.031
42.3088 1.927
42.3391 2.083
42.3694 1.719
42.3996 2.135
42.4299 2.031
42.4602 1.406
42.4905 2.187
42.5208 1.875
42.5510 1.667
42.5813 1.719
42.6116 1.771
42.6419 3.021
42.6721 1.719
42.7024 1.250
42.7327 1.094
42.7630 1.406
42.7933 1.406
42.8235 2.083
42.8538 1.250
42.8841 1.927
42.9144 1.823
42.9447 2.083
42.9749 2.187
43.0052 1.719
43.0355 1.510
43.0658 2.396
43.0960 1.979
43.1263 1.771
43.1566 1.562
43.1869 1.979
43.2172 1.719
43.2474 1.667
43.2777 1.927
43.3080 2.292
43.3383 1.927
43.3686 2.552
43.3988 1.927
43.4291 2.083
43.4594 1.354
43.4897 1.615
43.5199 2.656
43.5502 1.667
43.5805 1.927
43.6108 1.875
43.6411 1.823
43.6713 1.458
43.7016 1.510
43.7319 1.979
43.7622 1.823
43.7925 1.198
43.8227 1.823
43.8530 1.979
43.8833 1.927
43.9136 1.927
43.9439 1.927
43.9741 2.292
44.0044 2.500
44.0347 1.719
44.0650 1.615
44.0952 1.406
44.1255 1.458
44.1558 2.031
44.1861 1.458
44.2164 1.823
44.2466 2.083
44.2769 2.083
44.3072 1.406
44.3375 2.708
44.3678 1.667
44.3980 1.927
44.4283 2.396
44.4586 2.344
44.4889 2.031
44.5191 2.552
44.5494 2.031
44.5797 2.396
44.6100 1.927
44.6403 2.187
44.6705 1.719
44.7008 2.396
44.7311 1.927
44.7614 2.083
44.7917 2.083
44.8219 1.823
44.8522 1.771
44.8825 1.562
44.9128 1.875
44.9430 2.396
44.9733 1.510
45.0036 2.500
45.0339 1.562
45.0642 1.510
45.0944 2.917
45.1247 1.562
45.1550 1.875
45.1853 2.135
45.2156 1.823
45.2458 1.823
45.2761 1.823
45.3064 1.875
45.3367 2.292
45.3669 1.406
45.3972 1.667
45.4275 2.031
45.4578 1.667
45.4881 1.719
45.5183 1.875
45.5486 2.552
45.5789 1.927
45.6092 1.979
45.6395 1.927
45.6697 2.656
45.7000 2.292
45.7303 2.031
45.7606 1.875
45.7908 1.823
45.8211 2.135
45.8514 2.135
45.8817 2.135
45.9120 2.604
45.9422 2.187
45.9725 2.396
46.0028 2.292
46.0331 2.656
46.0634 2.344
46.0936 2.240
46.1239 2.812
46.1542 2.135
46.1845 2.083
46.2147 2.760
46.2450 2.760
46.2753 2.656
46.3056 2.656
46.3359 2.500
46.3661 2.031
46.3964 2.448
46.4267 2.865
46.4570 3.073
46.4873 2.656
46.5175 2.969
46.5478 3.229
46.5781 2.708
46.6084 2.969
46.6386 3.177
46.6689 3.281
46.6992 3.177
46.7295 2.552
46.7598 3.906
46.7900 3.854
46.8203 3.333
46.8506 3.594
46.8809 4.479
46.9112 2.917
46.9414 4.167
46.9717 4.896
47.0020 5.104
47.0323 5.365
47.0626 5.937
47.0928 5.417
47.1231 6.250
47.1534 8.021
47.1837 8.333
47.2139 8.177
47.2442 9.427
47.2745 10.990
47.3048 10.990
47.3351 12.031
47.3653 10.365
47.3956 12.396
47.4259 13.594
47.4562 12.083
47.4865 13.281
47.5167 11.094
47.5470 10.052
47.5773 9.583
47.6076 9.167
47.6378 8.646
47.6681 8.854
47.6984 8.021
47.7287 6.823
47.7590 5.937
47.7892 6.198
47.8195 5.990
47.8498 5.365
47.8801 4.844
47.9104 4.375
47.9406 3.698
47.9709 4.010
48.0012 3.437
48.0315 3.281
48.0617 3.854
48.0920 3.125
48.1223 2.969
48.1526 3.281
48.1829 2.865
48.2131 2.760
48.2434 3.177
48.2737 2.865
48.3040 2.969
48.3343 2.865
48.3645 2.083
48.3948 2.240
48.4251 1.927
48.4554 2.083
48.4856 1.615
48.5159 2.552
48.5462 2.083
48.5765 2.344
48.6068 2.031
48.6370 2.240
48.6673 1.979
48.6976 1.979
48.7279 2.135
48.7582 2.917
48.7884 2.448
48.8187 2.187
48.8490 2.135
48.8793 2.969
48.9095 2.187
48.9398 1.510
48.9701 2.135
49.0004 1.510
49.0307 2.240
49.0609 2.552
49.0912 1.927
49.1215 2.135
49.1518 1.927
49.1821 1.719
49.2123 2.031
49.2426 1.719
49.2729 2.240
49.3032 1.875
49.3334 1.667
49.3637 2.240
49.3940 2.031
49.4243 2.135
49.4546 2.240
49.4848 2.187
49.5151 2.083
49.5454 1.823
49.5757 1.406
49.6060 2.083
49.6362 1.562
49.6665 2.344
49.6968 1.510
49.7271 2.812
49.7574 1.771
49.7876 2.135
49.8179 1.719
49.8482 1.615
49.8785 2.552
49.9087 2.240
49.9390 1.458
49.9693 2.448
49.9996 1.719
50.0299 1.979
50.0601 1.823
50.0904 1.510
50.1207 2.031
50.1510 1.667
50.1813 2.240
50.2115 1.667
50.2418 1.771
50.2721 1.719
50.3024 1.510
50.3326 1.771
50.3629 1.302
50.3932 2.187
50.4235 1.667
50.4538 2.187
50.4840 1.719
50.5143 1.198
50.5446 2.083
50.5749 1.562
50.6052 1.615
50.6354 1.719
50.6657 2.552
50.6960 1.771
50.7263 2.240
50.7565 1.771
50.7868 1.302
50.8171 1.198
50.8474 1.719
50.8777 1.667
50.9079 2.292
50.9382 1.562
50.9685 1.927
50.9988 2.656
51.0291 1.979
51.0593 2.187
51.0896 1.719
51.1199 1.562
51.1502 1.615
51.1804 1.667
51.2107 1.302
51.2410 1.979
51.2713 1.719
51.3016 1.771
51.3318 1.562
51.3621 1.667
51.3924 1.510
51.4227 1.979
51.4530 2.344
51.4832 1.875
51.5135 2.135
51.5438 1.927
51.5741 1.979
51.6043 2.031
51.6346 2.292
51.6649 2.031
51.6952 2.083
51.7255 1.979
51.7557 1.823
51.7860 1.198
51.8163 1.771
51.8466 1.875
51.8769 1.354
51.9071 2.240
51.9374 1.927
51.9677 2.083
51.9980 1.510
52.0282 1.302
52.0585 1.615
52.0888 1.979
52.1191 1.823
52.1494 2.135
52.1796 1.927
52.2099 2.083
52.2402 1.875
52.2705 1.354
52.3008 2.708
52.3310 2.083
52.3613 1.979
52.3916 2.135
52.4219 1.510
52.4521 1.927
52.4824 2.187
52.5127 1.615
52.5430 2.708
52.5733 1.510
52.6035 1.406
52.6338 1.771
52.6641 2.448
52.6944 1.927
52.7247 1.875
52.7549 1.719
52.7852 2.187
52.8155 1.146
52.8458 2.240
52.8761 1.354
52.9063 1.667
52.9366 2.240
52.9669 1.823
52.9972 1.302
53.0274 2.292
53.0577 1.719
53.0880 1.562
53.1183 1.875
53.1486 1.510
53.1788 2.187
53.2091 1.667
53.2394 2.448
53.2697 1.875
53.3000 2.292
53.3302 1.302
53.3605 1.354
53.3908 1.667
53.4211 1.615
53.4513 2.031
53.4816 1.979
53.5119 1.823
53.5422 1.615
53.5725 1.823
53.6027 1.927
53.6330 1.302
53.6633 1.927
53.6936 1.875
53.7239 1.823
53.7541 1.510
53.7844 1.771
53.8147 1.823
53.8450 1.823
53.8752 2.240
53.9055 1.510
53.9358 1.875
53.9661 2.396
53.9964 1.979
54.0266 2.292
54.0569 1.667
54.0872 1.823
54.1175 2.083
54.1478 2.240
54.1780 1.823
54.2083 1.979
54.2386 1.562
54.2689 1.615
54.2991 2.396
54.3294 2.292
54.3597 2.396
54.3900 2.031
54.4203 1.771
54.4505 1.823
54.4808 1.979
54.5111 3.021
54.5414 2.448
54.5717 2.292
54.6019 1.771
54.6322 1.875
54.6625 2.240
54.6928 1.771
54.7230 2.865
54.7533 1.927
54.7836 2.812
54.8139 2.604
54.8442 2.344
54.8744 2.135
54.9047 2.656
54.9350 1.875
54.9653 2.292
54.9956 2.604
55.0258 2.292
55.0561 2.760
55.0864 2.240
55.1167 1.875
55.1469 2.292
55.1772 2.656
55.2075 2.187
55.2378 2.969
55.2681 2.031
55.2983 2.969
55.3286 3.177
55.3589 2.135
55.3892 2.708
55.4195 2.500
55.4497 2.708
55.4800 3.437
55.5103 3.021
55.5406 3.229
55.5709 2.917
55.6011 3.073
55.6314 3.281
55.6617 3.385
55.6920 3.646
55.7222 3.750
55.7525 4.010
55.7828 4.740
55.8131 3.229
55.8434 4.010
55.8736 3.437
55.9039 4.375
55.9342 5.052
55.9645 5.521
55.9948 6.667
56.0250 5.417
56.0553 6.458
56.0856 5.990
56.1159 7.500
56.1461 8.125
56.1764 8.177
56.2067 8.021
56.2370 9.219
56.2673 11.198
56.2975 11.927
56.3278 11.042
56.3581 14.792
56.3884 13.177
56.4187 16.042
56.4489 15.312
56.4792 15.677
56.5095 14.792
56.5398 14.844
56.5700 15.052
56.6003 13.229
56.6306 11.979
56.6609 10.833
56.6912 11.823
56.7214 9.167
56.7517 7.917
56.7820 8.229
56.8123 6.927
56.8426 7.812
56.8728 7.812
56.9031 5.677
56.9334 6.302
56.9637 5.677
56.9939 5.260
57.0242 5.677
57.0545 4.687
57.0848 4.844
57.1151 3.542
57.1453 4.687
57.1756 3.698
57.2059 3.594
57.2362 3.958
57.2665 3.594
57.2967 3.229
57.3270 3.177
57.3573 3.542
57.3876 3.281
57.4178 3.333
57.4481 3.385
57.4784 2.865
57.5087 2.656
57.5390 2.917
57.5692 2.396
57.5995 3.177
57.6298 2.917
57.6601 2.083
57.6904 3.229
57.7206 2.917
57.7509 2.708
57.7812 2.812
57.8115 2.240
57.8417 2.344
57.8720 2.396
57.9023 2.344
57.9326 2.708
57.9629 2.656
57.9931 1.979
58.0234 3.281
58.0537 2.552
58.0840 2.292
58.1143 1.615
58.1445 2.500
58.1748 1.823
58.2051 1.875
58.2354 1.667
58.2656 2.135
58.2959 2.031
58.3262 2.292
58.3565 2.760
58.3868 2.187
58.4170 1.771
58.4473 1.771
58.4776 2.135
58.5079 2.031
58.5382 1.562
58.5684 1.562
58.5987 2.187
58.6290 1.927
58.6593 1.927
58.6896 2.135
58.7198 2.500
58.7501 2.344
58.7804 1.719
58.8107 1.615
58.8409 1.771
58.8712 2.396
58.9015 2.031
58.9318 2.396
58.9621 1.562
58.9923 1.823
59.0226 2.135
59.0529 1.615
59.0832 2.135
59.1135 1.562
59.1437 1.875
59.1740 1.771
59.2043 1.771
59.2346 1.823
59.2648 1.979
59.2951 1.927
59.3254 2.396
59.3557 2.240
59.3860 1.667
59.4162 1.979
59.4465 1.458
59.4768 1.667
59.5071 1.719
59.5374 2.031
59.5676 1.979
59.5979 2.031
59.6282 1.979
59.6585 1.771
59.6887 1.927
59.7190 2.135
59.7493 2.344
59.7796 1.146
59.8099 1.562
59.8401 1.562
59.8704 1.771
59.9007 2.917
59.9310 1.927
59.9613 1.615
59.9915 1.458
60.0218 0.937
60.0521 2.187
60.0824 1.510
60.1126 2.031
60.1429 2.083
60.1732 2.083
60.2035 2.708
60.2338 2.135
60.2640 1.198
60.2943 2.448
60.3246 1.667
60.3549 1.875
60.3852 1.615
60.4154 2.135
60.4457 2.396
60.4760 1.719
60.5063 2.031
60.5365 1.823
60.5668 1.875
60.5971 2.500
60.6274 1.979
60.6577 2.552
60.6879 1.979
60.7182 1.927
60.7485 2.760
60.7788 2.292
60.8091 2.240
60.8393 2.083
60.8696 2.604
60.8999 1.771
60.9302 2.240
60.9604 1.823
60.9907 2.396
61.0210 2.031
61.0513 2.292
61.0816 2.240
61.1118 2.083
61.1421 2.083
61.1724 1.667
61.2027 1.562
61.2330 2.135
61.2632 1.823
61.2935 2.500
61.3238 2.448
61.3541 2.656
61.3844 2.240
61.4146 2.031
61.4449 1.771
61.4752 2.865
61.5055 1.875
61.5357 2.031
61.5660 2.969
61.5963 1.667
61.6266 2.448
61.6569 2.500
61.6871 3.594
61.7174 2.552
61.7477 3.281
61.7780 2.865
61.8083 2.396
61.8385 2.865
61.8688 2.604
61.8991 2.292
61.9294 2.812
61.9596 2.969
61.9899 3.073
62.0202 3.177
62.0505 3.854
62.0808 3.333
62.1110 3.906
62.1413 4.375
62.1716 3.854
62.2019 4.010
62.2322 3.750
62.2624 4.896
62.2927 4.948
62.3230 4.844
62.3533 5.885
62.3835 5.156
62.4138 6.615
62.4441 7.448
62.4744 8.125
62.5047 7.500
62.5349 9.167
62.5652 9.896
62.5955 11.823
62.6258 10.990
62.6561 13.125
62.6863 12.187
62.7166 12.812
62.7469 12.708
62.7772 12.292
62.8074 11.979
62.8377 12.552
62.8680 11.302
62.8983 11.406
62.9286 10.417
62.9588 10.000
62.9891 9.219
63.0194 7.552
63.0497 8.385
63.0800 7.292
63.1102 7.083
63.1405 5.677
63.1708 5.781
63.2011 4.427
63.2313 4.635
63.2616 4.740
63.2919 4.167
63.3222 3.281
63.3525 3.750
63.3827 3.906
63.4130 2.760
63.4433 3.906
63.4736 2.760
63.5039 3.490
63.5341 3.021
63.5644 3.229
63.5947 3.646
63.6250 2.969
63.6552 3.385
63.6855 2.187
63.7158 2.500
63.7461 2.344
63.7764 2.396
63.8066 2.396
63.8369 3.281
63.8672 2.240
63.8975 2.344
63.9278 2.031
63.9580 2.708
63.9883 2.500
64.0186 2.135
64.0489 2.448
64.0791 2.292
64.1094 2.240
64.1397 2.500
64.1700 1.823
64.2003 2.865
64.2305 1.719
64.2608 1.823
64.2911 2.135
64.3214 2.760
64.3517 2.396
64.3819 2.135
64.4122 2.083
64.4425 2.344
64.4728 2.448
64.5031 2.083
64.5333 1.667
64.5636 2.031
64.5939 2.500
64.6242 1.562
64.6544 1.198
64.6847 1.719
64.7150 1.927
64.7453 2.240
64.7756 2.344
64.8058 1.562
64.8361 2.135
64.8664 1.927
64.8967 2.135
64.9270 2.135
64.9572 2.396
64.9875 1.771
65.0178 2.187
65.0481 1.927
65.0783 1.979
65.1086 2.135
65.1389 2.292
65.1692 2.083
65.1995 1.979
65.2297 2.448
65.2600 2.917
65.2903 2.500
65.3206 2.031
65.3509 2.083
65.3811 2.187
65.4114 2.292
65.4417 2.656
65.4720 1.979
65.5022 2.135
65.5325 2.187
65.5628 1.615
65.5931 2.031
65.6234 2.396
65.6536 2.344
65.6839 2.552
65.7142 1.979
65.7445 2.708
65.7748 2.708
65.8050 2.969
65.8353 2.917
65.8656 2.500
65.8959 3.125
65.9261 2.917
65.9564 2.031
65.9867 2.500
66.0170 3.490
66.0473 2.969
66.0775 2.865
66.1078 2.812
66.1381 2.812
66.1684 3.490
66.1987 3.281
66.2289 3.750
66.2592 4.219
66.2895 3.594
66.3198 3.698
66.3500 3.490
66.3803 4.271
66.4106 2.760
66.4409 3.281
66.4712 3.750
66.5014 2.708
66.5317 2.969
66.5620 2.917
66.5923 3.802
66.6226 2.812
66.6528 2.865
66.6831 3.021
66.7134 2.760
66.7437 2.344
66.7739 3.750
66.8042 3.385
66.8345 3.229
66.8648 3.021
66.8951 3.177
66.9253 3.021
66.9556 2.865
66.9859 3.229
67.0162 3.229
67.0465 3.802
67.0767 3.542
67.1070 4.115
67.1373 3.958
67.1676 3.958
67.1978 4.219
67.2281 4.167
67.2584 4.531
67.2887 4.219
67.3190 5.052
67.3492 4.271
67.3795 4.375
67.4098 4.323
67.4401 5.469
67.4704 6.302
67.5006 4.896
67.5309 5.573
67.5612 6.979
67.5915 6.979
67.6218 8.073
67.6520 8.125
67.6823 8.385
67.7126 8.437
67.7429 10.260
67.7731 9.219
67.8034 10.573
67.8337 9.687
67.8640 9.531
67.8943 10.052
67.9245 9.167
67.9548 10.104
67.9851 8.906
68.0154 8.073
68.0457 7.760
68.0759 6.562
68.1062 7.448
68.1365 6.875
68.1668 7.031
68.1970 6.042
68.2273 6.719
68.2576 5.990
68.2879 6.302
68.3182 5.469
68.3484 5.000
68.3787 5.312
68.4090 5.260
68.4393 5.573
68.4696 5.104
68.4998 4.948
68.5301 5.052
68.5604 5.052
68.5907 3.958
68.6209 4.427
68.6512 5.260
68.6815 4.583
68.7118 6.667
68.7421 4.844
68.7723 4.583
68.8026 4.635
68.8329 5.417
68.8632 4.635
68.8935 5.208
68.9237 5.417
68.9540 5.156
68.9843 6.198
69.0146 5.052
69.0448 5.573
69.0751 5.573
69.1054 5.677
69.1357 5.052
69.1660 5.937
69.1962 4.427
69.2265 4.792
69.2568 3.698
69.2871 3.646
69.3174 4.375
69.3476 3.906
69.3779 3.802
69.4082 2.969
69.4385 3.177
69.4687 3.437
69.4990 3.021
69.5293 2.969
69.5596 2.604
69.5899 3.333
69.6201 3.021
69.6504 2.448
69.6807 2.187
69.7110 1.771
69.7413 2.500
69.7715 2.240
69.8018 2.656
69.8321 2.500
69.8624 1.667
69.8926 1.979
69.9229 1.875
69.9532 2.083
69.9835 1.667
70.0138 2.240
70.0440 1.823
70.0743 1.875
70.1046 1.562
70.1349 1.406
70.1652 1.875
70.1954 2.240
70.2257 1.615
70.2560 2.083
70.2863 2.187
70.3166 1.354
70.3468 1.719
70.3771 1.406
70.4074 1.927
70.4377 1.458
70.4679 1.562
70.4982 1.562
70.5285 1.667
70.5588 1.771
70.5891 1.719
70.6193 1.458
70.6496 1.927
70.6799 1.458
70.7102 1.771
70.7405 1.250
70.7707 0.833
70.8010 1.458
70.8313 1.354
70.8616 1.719
70.8918 1.771
70.9221 1.458
70.9524 1.771
70.9827 1.458
71.0130 0.833
71.0432 0.885
71.0735 1.719
71.1038 1.875
71.1341 1.198
71.1644 1.250
71.1946 1.823
71.2249 1.615
71.2552 1.667
71.2855 1.354
71.3157 1.667
71.3460 1.927
71.3763 1.250
71.4066 1.667
71.4369 1.250
71.4671 1.562
71.4974 1.719
71.5277 1.406
71.5580 2.083
71.5883 1.458
71.6185 1.250
71.6488 1.771
71.6791 1.406
71.7094 1.406
71.7396 1.719
71.7699 1.406
71.8002 1.146
71.8305 1.562
71.8608 1.458
71.8910 1.771
71.9213 1.562
71.9516 1.510
71.9819 1.562
72.0122 1.562
72.0424 1.823
72.0727 1.562
72.1030 1.823
72.1333 1.823
72.1635 1.458
72.1938 1.979
72.2241 1.562
72.2544 2.031
72.2847 2.031
72.3149 1.875
72.3452 2.240
72.3755 2.448
72.4058 1.719
72.4361 2.240
72.4663 2.031
72.4966 1.771
72.5269 2.760
72.5572 2.292
72.5874 1.771
72.6177 1.667
72.6480 2.031
72.6783 1.823
72.7086 1.510
72.7388 2.083
72.7691 1.979
72.7994 1.250
72.8297 1.198
72.8600 1.250
72.8902 1.510
72.9205 1.562
72.9508 1.302
72.9811 1.302
73.0113 1.458
73.0416 1.771
73.0719 1.406
73.1022 0.885
73.1325 1.927
73.1627 1.302
73.1930 0.990
73.2233 1.667
73.2536 1.302
73.2839 1.510
73.3141 1.406
73.3444 1.562
73.3747 1.719
73.4050 1.042
73.4353 1.354
73.4655 1.615
73.4958 1.719
73.5261 1.250
73.5564 1.458
73.5866 1.615
73.6169 1.615
73.6472 1.458
73.6775 1.250
73.7078 0.833
73.7380 1.146
73.7683 1.562
73.7986 1.458
73.8289 1.250
73.8592 1.250
73.8894 1.250
73.9197 1.354
73.9500 1.562
73.9803 1.042
74.0105 1.979
74.0408 1.615
74.0711 1.562
74.1014 1.302
74.1317 1.042
74.1619 1.667
74.1922 1.302
74.2225 0.990
74.2528 1.094
74.2831 1.198
74.3133 1.719
74.3436 1.458
74.3739 1.458
74.4042 1.302
74.4344 1.354
74.4647 1.510
74.4950 1.198
74.5253 1.719
74.5556 1.198
74.5858 1.927
74.6161 1.042
74.6464 1.667
74.6767 1.406
74.7070 1.354
74.7372 1.198
74.7675 1.198
74.7978 1.042
74.8281 1.302
74.8583 1.562
74.8886 1.562
74.9189 1.875
74.9492 1.250
74.9795 1.562
75.0097 1.042
75.0400 1.667
75.0703 0.937
75.1006 1.146
75.1309 1.354
75.1611 1.510
75.1914 0.833
75.2217 1.198
75.2520 1.198
75.2822 1.146
75.3125 0.937
75.3428 1.146
75.3731 1.615
75.4034 1.198
75.4336 1.406
75.4639 1.146
75.4942 1.250
75.5245 0.729
75.5548 1.146
75.5850 1.198
75.6153 1.198
75.6456 0.937
75.6759 1.354
75.7061 1.458
75.7364 1.198
75.7667 1.094
75.7970 1.146
75.8273 0.937
75.8575 1.042
75.8878 1.250
75.9181 1.146
75.9484 1.615
75.9787 1.198
76.0089 1.771
76.0392 1.250
76.0695 1.458
76.0998 1.823
76.1301 1.719
76.1603 1.667
76.1906 1.406
76.2209 1.354
76.2512 1.406
76.2814 1.354
76.3117 1.198
76.3420 1.250
76.3723 1.406
76.4026 1.927
76.4328 1.875
76.4631 1.875
76.4934 1.823
76.5237 1.562
76.5540 1.667
76.5842 1.719
76.6145 1.927
76.6448 2.187
76.6751 1.719
76.7053 1.667
76.7356 1.927
76.7659 2.187
76.7962 1.771
76.8265 2.187
76.8567 2.396
76.8870 2.396
76.9173 2.083
76.9476 2.917
76.9779 1.719
77.0081 2.344
77.0384 2.240
77.0687 1.667
77.0990 1.615
77.1292 1.927
77.1595 1.667
77.1898 1.615
77.2201 1.667
77.2504 2.656
77.2806 1.615
77.3109 1.667
77.3412 2.083
77.3715 1.771
77.4018 1.354
77.4320 1.406
77.4623 2.187
77.4926 1.302
77.5229 1.667
77.5531 1.615
77.5834 1.719
77.6137 1.354
77.6440 1.562
77.6743 1.771
77.7045 1.302
77.7348 1.146
77.7651 1.406
77.7954 1.198
77.8257 1.250
77.8559 1.146
77.8862 1.406
77.9165 1.250
77.9468 1.667
77.9770 1.615
78.0073 1.406
78.0376 1.146
78.0679 1.927
78.0982 1.094
78.1284 1.562
78.1587 1.250
78.1890 1.562
78.2193 1.667
78.2496 1.146
78.2798 0.937
78.3101 1.562
78.3404 1.510
78.3707 1.406
78.4009 1.042
78.4312 1.198
78.4615 1.771
78.4918 1.198
78.5221 1.771
78.5523 1.354
78.5826 0.885
78.6129 1.354
78.6432 1.146
78.6735 1.458
78.7037 1.250
78.7340 1.198
78.7643 1.094
78.7946 1.042
78.8248 1.667
78.8551 1.406
78.8854 1.354
78.9157 1.354
78.9460 1.354
78.9762 1.667
79.0065 1.198
79.0368 1.198
79.0671 1.667
79.0974 1.302
79.1276 1.354
79.1579 1.354
79.1882 1.198
79.2185 0.937
79.2488 1.146
79.2790 1.510
79.3093 1.354
79.3396 1.198
79.3699 1.042
79.4001 0.729
79.4304 1.250
79.4607 1.667
79.4910 1.146
79.5213 1.406
79.5515 1.510
79.5818 1.771
79.6121 1.094
79.6424 1.198
79.6727 1.667
79.7029 1.250
79.7332 1.042
79.7635 0.729
79.7938 1.198
79.8240 1.042
79.8543 1.198
79.8846 1.354
79.9149 1.458
79.9452 1.458
79.9754 1.302
80.0057 0.885
80.0360 1.615
80.0663 1.250
80.0966 1.302
80.1268 1.458
80.1571 1.094
80.1874 1.250
80.2177 1.615
80.2479 0.937
80.2782 0.885
80.3085 0.833
80.3388 1.615
80.3691 1.250
80.3993 1.146
80.4296 1.667
80.4599 1.510
80.4902 1.510
80.5205 1.146
80.5507 1.562
80.5810 1.667
80.6113 1.354
80.6416 1.198
80.6718 1.198
80.7021 1.146
80.7324 1.250
80.7627 1.354
80.7930 1.667
80.8232 1.146
80.8535 0.885
80.8838 1.094
80.9141 0.885
80.9444 1.823
80.9746 0.677
81.0049 1.198
81.0352 1.406
81.0655 1.458
81.0957 1.510
81.1260 1.771
81.1563 1.771
81.1866 1.562
81.2169 1.927
81.2471 1.667
81.2774 1.354
81.3077 1.823
81.3380 1.510
81.3683 1.354
81.3985 1.875
81.4288 1.875
81.4591 1.250
81.4894 1.406
81.5196 1.875
81.5499 1.667
81.5802 1.667
81.6105 1.406
81.6408 1.354
81.6710 1.198
81.7013 1.510
81.7316 1.510
81.7619 1.094
81.7922 0.833
81.8224 1.250
81.8527 1.615
81.8830 1.250
81.9133 1.667
81.9436 1.198
81.9738 0.937
82.0041 1.354
82.0344 1.198
82.0647 1.146
82.0949 1.615
82.1252 1.510
82.1555 1.094
82.1858 1.198
82.2161 1.302
82.2463 1.302
82.2766 1.198
82.3069 1.042
82.3372 0.833
82.3675 1.146
82.3977 1.562
82.4280 1.146
82.4583 1.146
82.4886 1.146
82.5188 1.198
82.5491 1.510
82.5794 1.354
82.6097 1.406
82.6400 1.042
82.6702 0.781
82.7005 0.885
82.7308 1.302
82.7611 1.562
82.7914 1.458
82.8216 1.667
82.8519 1.042
82.8822 1.302
82.9125 0.990
82.9427 0.937
82.9730 1.354
83.0033 0.729
83.0336 1.198
83.0639 1.250
83.0941 0.885
83.1244 0.990
83.1547 0.885
83.1850 1.042
83.2153 1.302
83.2455 1.146
83.2758 1.198
83.3061 1.250
83.3364 1.667
83.3666 1.198
83.3969 0.937
83.4272 1.198
83.4575 1.510
83.4878 0.885
83.5180 1.094
83.5483 1.146
83.5786 0.833
83.6089 1.302
83.6392 1.667
83.6694 1.302
83.6997 1.146
83.7300 1.302
83.7603 1.198
83.7905 1.250
83.8208 0.937
83.8511 0.833
83.8814 0.937
83.9117 1.250
83.9419 0.937
83.9722 1.510
84.0025 0.833
84.0328 1.146
84.0631 0.937
84.0933 1.042
84.1236 0.990
84.1539 1.146
84.1842 1.198
84.2144 1.198
84.2447 0.937
84.2750 1.146
84.3053 1.562
84.3356 1.198
84.3658 1.354
84.3961 1.250
84.4264 1.198
84.4567 0.729
84.4870 1.354
84.5172 0.885
84.5475 1.667
84.5778 1.510
84.6081 1.406
84.6383 0.885
84.6686 1.198
84.6989 1.042
84.7292 1.198
84.7595 1.302
84.7897 1.146
84.8200 1.302
84.8503 1.198
84.8806 0.833
84.9109 1.146
84.9411 1.094
84.9714 0.990
85.0017 1.354
85.0320 1.302
85.0623 1.250
85.0925 1.198
85.1228 0.885
85.1531 1.042
85.1834 1.354
85.2136 1.458
85.2439 1.250
85.2742 1.406
85.3045 1.302
85.3348 0.781
85.3650 0.781
85.3953 1.198
85.4256 1.667
85.4559 1.042
85.4862 1.250
85.5164 1.198
85.5467 0.990
85.5770 1.667
85.6073 0.990
85.6375 0.937
85.6678 1.198
85.6981 1.198
85.7284 1.094
85.7587 1.302
85.7889 1.094
85.8192 0.833
85.8495 1.615
85.8798 1.302
85.9101 1.198
85.9403 0.729
85.9706 1.094
86.0009 1.146
86.0312 1.198
86.0614 0.833
86.0917 1.250
86.1220 1.667
86.1523 1.198
86.1826 1.094
86.2128 1.667
86.2431 1.302
86.2734 1.094
86.3037 1.042
86.3340 1.094
86.3642 1.562
86.3945 1.250
86.4248 1.146
86.4551 1.042
86.4853 0.990
86.5156 1.042
86.5459 1.198
86.5762 1.354
86.6065 1.198
86.6367 1.198
86.6670 1.354
86.6973 1.198
86.7276 1.042
86.7579 1.615
86.7881 1.354
86.8184 0.937
86.8487 1.198
86.8790 0.885
86.9092 0.990
86.9395 0.937
86.9698 0.990
87.0001 1.094
87.0304 1.094
87.0606 0.833
87.0909 1.146
87.1212 1.250
87.1515 1.198
87.1818 0.885
87.2120 1.406
87.2423 1.354
87.2726 0.729
87.3029 1.146
87.3331 1.302
87.3634 1.250
87.3937 1.198
87.4240 1.042
87.4543 1.198
87.4845 1.198
87.5148 1.042
87.5451 0.990
87.5754 1.042
87.6057 0.833
87.6359 1.667
87.6662 1.198
87.6965 0.990
87.7268 1.406
87.7571 1.510
87.7873 1.302
87.8176 1.094
87.8479 1.094
87.8782 1.250
87.9084 1.198
87.9387 1.458
87.9690 1.042
87.9993 1.302
88.0296 1.510
88.0598 1.458
88.0901 1.198
88.1204 1.198
88.1507 1.719
88.1810 1.354
88.2112 1.458
88.2415 1.094
88.2718 1.198
88.3021 1.042
88.3323 1.615
88.3626 1.198
88.3929 1.406
88.4232 1.510
88.4535 1.562
88.4837 1.667
88.5140 1.354
88.5443 1.562
88.5746 1.510
88.6049 1.719
88.6351 1.406
88.6654 1.198
88.6957 1.510
88.7260 2.135
88.7562 1.979
88.7865 1.562
88.8168 1.615
88.8471 1.667
88.8774 1.875
88.9076 1.354
88.9379 1.823
88.9682 1.875
88.9985 1.927
89.0288 2.135
89.0590 1.979
89.0893 1.771
89.1196 2.500
89.1499 1.667
89.1801 1.875
89.2104 3.177
89.2407 2.135
89.2710 2.031
89.3013 2.344
89.3315 3.021
89.3618 2.240
89.3921 3.177
89.4224 2.708
89.4527 3.281
89.4829 2.344
89.5132 2.187
89.5435 2.917
89.5738 2.604
89.6040 2.604
89.6343 2.812
89.6646 3.333
89.6949 3.073
89.7252 2.969
89.7554 2.917
89.7857 2.552
89.8160 2.500
89.8463 2.187
89.8766 1.771
89.9068 2.604
89.9371 1.667
89.9674 2.604
89.9977 1.875
90.0279 1.875
90.0582 2.396
90.0885 1.667
90.1188 2.083
90.1491 1.250
90.1793 1.771
90.2096 1.667
90.2399 1.771
90.2702 1.927
90.3005 1.562
90.3307 1.719
90.3610 1.927
90.3913 0.990
90.4216 1.354
90.4518 1.406
90.4821 1.198
90.5124 1.406
90.5427 1.667
90.5730 1.406
90.6032 2.031
90.6335 1.719
90.6638 1.302
90.6941 1.823
90.7244 1.667
90.7546 1.198
90.7849 1.198
90.8152 1.458
90.8455 1.250
90.8758 1.302
90.9060 1.667
90.9363 1.615
90.9666 1.510
90.9969 1.302
91.0271 1.823
91.0574 1.198
91.0877 2.031
91.1180 1.094
91.1483 1.250
91.1785 1.198
91.2088 1.979
91.2391 1.562
91.2694 1.771
91.2997 1.354
91.3299 1.146
91.3602 1.667
91.3905 1.198
91.4208 1.615
91.4510 1.146
91.4813 1.198
91.5116 1.510
91.5419 1.406
91.5722 1.458
91.6024 1.302
91.6327 1.198
91.6630 1.302
91.6933 1.198
91.7236 1.042
91.7538 0.729
91.7841 1.302
91.8144 1.198
91.8447 1.615
91.8749 1.302
91.9052 1.875
91.9355 1.875
91.9658 1.771
91.9961 1.510
92.0263 1.562
92.0566 1.927
92.0869 1.302
92.1172 1.458
92.1475 1.510
92.1777 1.354
92.2080 1.250
92.2383 1.562
92.2686 1.510
92.2988 1.510
92.3291 1.250
92.3594 1.302
92.3897 1.771
92.4200 1.875
92.4502 1.458
92.4805 1.927
92.5108 1.719
92.5411 1.719
92.5714 1.771
92.6016 1.406
92.6319 1.667
92.6622 1.510
92.6925 1.458
92.7227 1.094
92.7530 1.875
92.7833 1.458
92.8136 1.875
92.8439 1.250
92.8741 2.135
92.9044 1.562
92.9347 1.875
92.9650 1.823
92.9953 1.667
93.0255 1.719
93.0558 1.927
93.0861 1.927
93.1164 1.823
93.1466 1.667
93.1769 1.302
93.2072 1.302
93.2375 1.719
93.2678 1.927
93.2980 1.979
93.3283 1.146
93.3586 0.625
93.3889 1.667
93.4192 1.250
93.4494 1.458
93.4797 1.510
93.5100 1.042
93.5403 1.198
93.5706 1.302
93.6008 1.198
93.6311 0.990
93.6614 1.406
93.6917 1.510
93.7219 0.937
93.7522 1.406
93.7825 1.198
93.8128 1.615
93.8431 1.719
93.8733 1.458
93.9036 1.979
93.9339 1.615
93.9642 1.562
93.9945 1.562
94.0247 1.562
94.0550 1.354
94.0853 1.719
94.1156 2.031
94.1458 1.823
94.1761 1.094
94.2064 1.771
94.2367 1.302
94.2670 1.719
94.2972 1.406
94.3275 1.771
94.3578 1.667
94.3881 1.510
94.4184 1.615
94.4486 1.719
94.4789 1.615
94.5092 1.771
94.5395 1.562
94.5697 1.771
94.6000 1.719
94.6303 1.250
94.6606 1.562
94.6909 1.823
94.7211 1.719
94.7514 1.823
94.7817 2.031
94.8120 2.031
94.8423 1.771
94.8725 2.500
94.9028 2.292
94.9331 1.875
94.9634 2.135
94.9936 2.396
95.0239 2.187
95.0542 2.500
95.0845 2.500
95.1148 2.344
95.1450 2.604
95.1753 2.500
95.2056 2.865
95.2359 2.448
95.2662 3.490
95.2964 2.500
95.3267 2.604
95.3570 2.396
95.3873 3.073
95.4175 2.292
95.4478 2.135
95.4781 3.125
95.5084 2.812
95.5387 2.135
95.5689 2.031
95.5992 2.292
95.6295 2.812
95.6598 2.552
95.6901 1.771
95.7203 2.552
95.7506 1.771
95.7809 2.240
95.8112 2.135
95.8414 2.031
95.8717 1.667
95.9020 1.667
95.9323 1.823
95.9626 1.615
95.9928 2.187
96.0231 1.615
96.0534 1.562
96.0837 1.562
96.1140 1.615
96.1442 2.135
96.1745 2.240
96.2048 1.719
96.2351 1.667
96.2653 1.406
96.2956 1.250
96.3259 0.729
96.3562 1.510
96.3865 1.667
96.4167 1.510
96.4470 1.875
96.4773 1.302
96.5076 1.771
96.5379 1.406
96.5681 1.823
96.5984 1.302
96.6287 1.562
96.6590 0.937
96.6893 1.354
96.7195 1.354
96.7498 2.031
96.7801 1.458
96.8104 1.562
96.8406 1.562
96.8709 1.146
96.9012 1.667
96.9315 1.771
96.9618 1.562
96.9920 1.094
97.0223 1.302
97.0526 1.667
97.0829 1.302
97.1132 1.354
97.1434 1.719
97.1737 1.302
97.2040 1.406
97.2343 1.771
97.2645 1.510
97.2948 1.562
97.3251 1.250
97.3554 1.198
97.3857 1.562
97.4159 1.094
97.4462 1.354
97.4765 1.510
97.5068 1.875
97.5371 1.302
97.5673 1.615
97.5976 1.562
97.6279 1.458
97.6582 1.458
97.6884 1.510
97.7187 1.250
97.7490 1.927
97.7793 1.562
97.8096 1.458
97.8398 1.042
97.8701 1.667
97.9004 1.615
97.9307 1.875
97.9610 2.083
97.9912 1.719
98.0215 1.302
98.0518 1.406
98.0821 1.771
98.1123 1.615
98.1426 1.354
98.1729 1.823
98.2032 1.354
98.2335 1.771
98.2637 2.344
98.2940 1.823
98.3243 1.979
98.3546 1.771
98.3849 2.292
98.4151 1.562
98.4454 1.667
98.4757 1.719
98.5060 1.562
98.5362 1.823
98.5665 1.979
98.5968 2.135
98.6271 1.979
98.6574 1.875
98.6876 2.292
98.7179 2.344
98.7482 2.500
98.7785 2.240
98.8088 2.083
98.8390 1.667
98.8693 1.615
98.8996 1.771
98.9299 1.510
98.9601 1.823
98.9904 1.823
99.0207 1.667
99.0510 1.823
99.0813 1.771
99.1115 1.823
99.1418 1.719
99.1721 1.354
99.2024 1.979
99.2327 1.771
99.2629 1.927
99.2932 1.354
99.3235 1.302
99.3538 1.406
99.3841 0.990
99.4143 1.042
99.4446 1.719
99.4749 2.344
99.5052 1.719
99.5354 1.198
99.5657 1.875
99.5960 1.406
99.6263 1.562
99.6566 1.354
99.6868 1.302
99.7171 1.667
99.7474 1.458
99.7777 1.615
99.8080 0.990
99.8382 1.094
99.8685 1.146
99.8988 1.562
99.9291 1.250
99.9593 1.302
99.9896 0.833
100.0199 1.250
100.0502 1.562
100.0805 1.458
100.1107 1.094
100.1410 1.562
100.1713 0.885
100.2016 1.510
100.2319 1.354
100.2621 1.302
100.2924 1.667
100.3227 0.885
100.3530 1.615
100.3832 1.667
100.4135 1.146
100.4438 1.094
100.4741 1.302
100.5044 1.042
100.5346 1.094
100.5649 0.937
100.5952 1.250
100.6255 1.406
100.6558 1.667
100.6860 0.885
100.7163 1.302
100.7466 1.198
100.7769 1.615
100.8071 1.354
100.8374 1.094
100.8677 1.667
100.8980 1.354
100.9283 1.250
100.9585 1.250
100.9888 1.562
101.0191 1.667
101.0494 1.667
101.0797 1.667
101.1099 1.354
101.1402 1.354
101.1705 1.406
101.2008 1.354
101.2310 1.250
101.2613 0.885
101.2916 1.146
101.3219 1.458
101.3522 1.146
101.3824 1.510
101.4127 0.990
101.4430 1.146
101.4733 1.406
101.5036 1.146
101.5338 1.719
101.5641 1.354
101.5944 1.823
101.6247 1.354
101.6549 0.937
101.6852 1.146
101.7155 1.562
101.7458 1.510
101.7761 1.198
101.8063 1.510
101.8366 1.250
101.8669 1.198
101.8972 1.354
101.9275 1.354
101.9577 1.354
101.9880 1.615
102.0183 1.458
102.0486 1.250
102.0788 1.302
102.1091 1.667
102.1394 1.354
102.1697 1.406
102.2000 1.615
102.2302 1.510
102.2605 1.406
102.2908 1.823
102.3211 2.240
102.3514 1.354
102.3816 1.406
102.4119 1.667
102.4422 1.875
102.4725 1.875
102.5028 1.927
102.5330 2.083
102.5633 1.667
102.5936 1.354
102.6239 1.823
102.6541 1.719
102.6844 1.615
102.7147 1.562
102.7450 1.719
102.7753 2.135
102.8055 2.135
102.8358 2.135
102.8661 1.615
102.8964 1.667
102.9267 2.135
102.9569 1.771
102.9872 1.719
103.0175 1.979
103.0478 2.292
103.0780 1.875
103.1083 1.979
103.1386 1.927
103.1689 1.354
103.1992 1.562
103.2294 2.344
103.2597 2.396
103.2900 2.552
103.3203 1.719
103.3506 2.240
103.3808 1.562
103.4111 1.771
103.4414 1.823
103.4717 2.448
103.5019 1.927
103.5322 1.771
103.5625 1.354
103.5928 1.510
103.6231 2.396
103.6533 1.927
103.6836 2.552
103.7139 1.979
103.7442 1.927
103.7745 2.448
103.8047 2.292
103.8350 2.187
103.8653 2.031
103.8956 2.083
103.9258 2.344
103.9561 1.875
103.9864 1.875
104.0167 2.656
104.0470 2.917
104.0772 2.917
104.1075 2.500
104.1378 2.500
104.1681 2.448
104.1984 2.656
104.2286 2.708
104.2589 1.927
104.2892 2.240
104.3195 2.292
104.3497 2.292
104.3800 2.552
104.4103 2.083
104.4406 1.979
104.4709 2.552
104.5011 2.344
104.5314 1.875
104.5617 1.875
104.5920 1.562
104.6223 1.979
104.6525 1.719
104.6828 1.927
104.7131 1.979
104.7434 1.667
104.7736 1.406
104.8039 1.979
104.8342 1.510
104.8645 1.875
104.8948 1.562
104.9250 2.083
104.9553 1.667
104.9856 1.250
105.0159 1.875
105.0462 1.302
105.0764 1.667
105.1067 1.875
105.1370 1.615
105.1673 1.823
105.1975 1.771
105.2278 1.406
105.2581 1.719
105.2884 1.406
105.3187 1.302
105.3489 1.198
105.3792 1.302
105.4095 1.198
105.4398 0.833
105.4701 1.406
105.5003 1.406
105.5306 1.406
105.5609 1.406
105.5912 1.406
105.6215 1.250
105.6517 1.094
105.6820 1.198
105.7123 1.146
105.7426 1.198
105.7728 1.562
105.8031 1.562
105.8334 1.615
105.8637 1.510
105.8940 0.990
105.9242 1.094
105.9545 1.510
105.9848 1.667
106.0151 1.198
106.0454 1.510
106.0756 0.937
106.1059 1.458
106.1362 1.562
106.1665 1.354
106.1967 1.042
106.2270 0.990
106.2573 1.354
106.2876 1.302
106.3179 1.146
106.3481 1.510
106.3784 1.302
106.4087 1.146
106.4390 1.458
106.4693 0.937
106.4995 0.990
106.5298 1.458
106.5601 1.198
106.5904 1.302
106.6206 1.615
106.6509 1.458
106.6812 1.354
106.7115 1.146
106.7418 1.771
106.7720 1.354
106.8023 1.458
106.8326 1.146
106.8629 1.354
106.8932 0.885
106.9234 1.094
106.9537 1.875
106.9840 1.667
107.0143 1.458
107.0445 1.823
107.0748 1.250
107.1051 1.406
107.1354 1.979
107.1657 1.458
107.1959 0.990
107.2262 0.833
107.2565 1.146
107.2868 1.771
107.3171 1.354
107.3473 1.198
107.3776 1.823
107.4079 1.354
107.4382 1.250
107.4684 0.990
107.4987 1.094
107.5290 1.406
107.5593 1.510
107.5896 1.302
107.6198 0.885
107.6501 1.510
107.6804 1.510
107.7107 1.510
107.7410 1.615
107.7712 1.510
107.8015 1.562
107.8318 1.719
107.8621 1.458
107.8923 1.927
107.9226 1.146
107.9529 1.146
107.9832 1.458
108.0135 1.302
108.0437 1.146
108.0740 1.615
108.1043 1.042
108.1346 1.510
108.1649 1.458
108.1951 1.146
108.2254 1.458
108.2557 0.990
108.2860 1.719
108.3163 1.823
108.3465 1.198
108.3768 1.302
108.4071 0.885
108.4374 1.510
108.4676 1.250
108.4979 1.198
108.5282 0.937
108.5585 0.885
108.5888 1.042
108.6190 1.354
108.6493 1.042
108.6796 1.250
108.7099 1.615
108.7402 0.937
108.7704 1.615
108.8007 0.833
108.8310 1.354
108.8613 1.042
108.8915 0.990
108.9218 1.250
108.9521 1.146
108.9824 0.937
109.0127 1.406
109.0429 1.979
109.0732 1.719
109.1035 1.302
109.1338 0.990
109.1641 0.885
109.1943 1.510
109.2246 1.250
109.2549 1.615
109.2852 1.354
109.3154 1.198
109.3457 1.615
109.3760 1.562
109.4063 1.042
109.4366 1.354
109.4668 1.458
109.4971 1.250
109.5274 1.771
109.5577 1.250
109.5880 1.615
109.6182 0.990
109.6485 1.719
109.6788 2.135
109.7091 1.302
109.7393 1.198
109.7696 1.198
109.7999 1.927
109.8302 1.562
109.8605 1.771
109.8907 1.302
109.9210 1.979
109.9513 1.667
109.9816 1.146
110.0119 1.615
110.0421 1.302
110.0724 1.667
110.1027 1.667
110.1330 1.927
110.1632 1.510
110.1935 2.292
110.2238 1.823
110.2541 0.990
110.2844 1.875
110.3146 1.042
110.3449 1.250
110.3752 2.292
110.4055 1.615
110.4358 1.771
110.4660 1.198
110.4963 1.354
110.5266 1.823
110.5569 1.562
110.5871 1.927
110.6174 2.344
110.6477 1.667
110.6780 2.240
110.7083 1.250
110.7385 1.771
110.7688 1.667
110.7991 2.135
110.8294 1.615
110.8597 1.615
110.8899 1.615
110.9202 1.146
110.9505 1.979
110.9808 1.927
111.0110 1.615
111.0413 1.927
111.0716 1.198
111.1019 1.198
111.1322 1.198
111.1624 1.615
111.1927 1.198
111.2230 1.250
111.2533 1.510
111.2836 1.562
111.3138 1.510
111.3441 2.135
111.3744 1.042
111.4047 0.990
111.4350 1.198
111.4652 0.990
111.4955 1.250
111.5258 0.990
111.5561 1.406
111.5863 1.615
111.6166 1.667
111.6469 1.510
111.6772 1.719
111.7075 1.667
111.7377 1.094
111.7680 1.198
111.7983 1.354
111.8286 1.302
111.8589 1.094
111.8891 0.990
111.9194 1.927
111.9497 1.198
111.9800 1.094
112.0102 1.458
112.0405 1.615
112.0708 1.302
112.1011 1.302
112.1314 1.198
112.1616 1.510
112.1919 1.250
112.2222 1.198
112.2525 1.771
112.2828 1.406
112.3130 1.146
112.3433 0.833
112.3736 1.302
112.4039 0.833
112.4341 0.885
112.4644 0.990
112.4947 1.354
112.5250 1.510
112.5553 1.510
112.5855 1.510
112.6158 1.510
112.6461 1.302
112.6764 1.510
112.7067 1.615
112.7369 1.042
112.7672 1.510
112.7975 0.937
112.8278 0.781
112.8580 1.146
112.8883 1.615
112.9186 1.510
112.9489 1.406
112.9792 1.406
113.0094 1.510
113.0397 1.146
113.0700 1.615
113.1003 1.406
113.1306 1.458
113.1608 1.302
113.1911 1.146
113.2214 1.458
113.2517 1.198
113.2819 1.354
113.3122 1.042
113.3425 1.406
113.3728 1.146
113.4031 1.354
113.4333 1.042
113.4636 1.771
113.4939 1.250
113.5242 0.990
113.5545 1.042
113.5847 1.302
113.6150 1.771
113.6453 1.250
113.6756 1.458
113.7058 1.250
113.7361 1.042
113.7664 1.146
113.7967 0.990
113.8270 1.406
113.8572 1.354
113.8875 1.302
113.9178 0.937
113.9481 1.823
113.9784 1.302
114.0086 1.042
114.0389 0.990
114.0692 1.146
114.0995 1.510
114.1298 1.510
114.1600 1.250
114.1903 1.146
114.2206 0.937
114.2509 1.302
114.2811 1.302
114.3114 1.198
114.3417 1.719
114.3720 1.094
114.4023 1.250
114.4325 1.458
114.4628 0.885
114.4931 1.250
114.5234 1.042
114.5537 1.615
114.5839 1.458
114.6142 1.458
114.6445 1.615
114.6748 1.667
114.7050 1.615
114.7353 1.146
114.7656 0.990
114.7959 1.094
114.8262 1.042
114.8564 1.458
114.8867 1.250
114.9170 1.771
114.9473 1.198
114.9776 1.615
115.0078 1.094
115.0381 1.510
115.0684 1.094
115.0987 1.771
115.1289 1.719
115.1592 1.094
115.1895 1.302
115.2198 1.667
115.2501 1.667
115.2803 1.302
115.3106 1.562
115.3409 1.979
115.3712 1.875
115.4015 1.979
115.4317 1.823
115.4620 2.292
115.4923 2.031
115.5226 1.510
115.5528 2.240
115.5831 2.083
115.6134 2.292
115.6437 2.552
115.6740 1.875
115.7042 2.135
115.7345 1.771
115.7648 1.979
115.7951 1.771
115.8254 1.510
115.8556 2.552
115.8859 2.135
115.9162 2.708
115.9465 2.292
115.9767 2.344
116.0070 2.500
116.0373 2.031
116.0676 2.865
116.0979 2.187
116.1281 2.865
116.1584 2.187
116.1887 2.708
116.2190 1.979
116.2493 1.927
116.2795 2.448
116.3098 2.812
116.3401 2.135
116.3704 2.917
116.4006 2.031
116.4309 2.760
116.4612 2.917
116.4915 1.927
116.5218 2.604
116.5520 3.073
116.5823 2.448
116.6126 2.292
116.6429 2.812
116.6732 2.292
116.7034 2.396
116.7337 2.187
116.7640 2.135
116.7943 2.344
116.8245 1.979
116.8548 2.187
116.8851 1.615
116.9154 1.510
116.9457 1.927
116.9759 2.240
117.0062 1.875
117.0365 1.302
117.0668 1.510
117.0971 1.562
117.1273 1.094
117.1576 2.292
117.1879 1.458
117.2182 1.823
117.2485 1.615
117.2787 1.615
117.3090 1.250
117.3393 1.198
117.3696 1.562
117.3998 1.979
117.4301 2.187
117.4604 1.719
117.4907 1.719
117.5210 1.146
117.5512 1.719
117.5815 1.719
117.6118 1.562
117.6421 1.615
117.6724 1.615
117.7026 1.510
117.7329 1.562
117.7632 1.406
117.7935 1.250
117.8237 1.250
117.8540 1.771
117.8843 1.250
117.9146 1.354
117.9449 1.667
117.9751 1.042
118.0054 1.719
118.0357 1.510
118.0660 1.354
118.0963 1.198
118.1265 1.146
118.1568 1.510
118.1871 1.250
118.2174 1.250
118.2476 1.250
118.2779 1.250
118.3082 1.406
118.3385 1.250
118.3688 1.250
118.3990 1.667
118.4293 1.302
118.4596 1.198
118.4899 1.771
118.5202 1.562
118.5504 1.510
118.5807 1.198
118.6110 1.042
118.6413 1.406
118.6715 0.990
118.7018 1.562
118.7321 1.146
118.7624 1.458
118.7927 1.719
118.8229 1.667
118.8532 1.042
118.8835 1.719
118.9138 1.302
118.9441 1.250
118.9743 1.146
119.0046 0.990
119.0349 1.771
119.0652 1.719
119.0954 1.302
119.1257 1.198
119.1560 1.250
119.1863 1.250
119.2166 1.354
119.2468 1.562
119.2771 1.094
119.3074 1.615
119.3377 1.198
119.3680 1.250
119.3982 1.406
119.4285 1.562
119.4588 1.198
119.4891 1.250
119.5193 1.094
119.5496 1.302
119.5799 1.875
119.6102 1.719
119.6405 1.615
119.6707 1.354
119.7010 1.823
119.7313 1.302
119.7616 1.250
119.7919 0.833
119.8221 1.615
119.8524 1.562
119.8827 1.302
119.9130 1.510
119.9433 1.354
119.9735 1.615
120.0038 1.198
