'Id: "" Comment: "" Operator: "Lab Manager" Anode: "Cu" Scantype: "Locked Coupled" TimePerStep: "19.2" X: "9999" Y: "9999" Z: "9999" 
10.0015 19.323
10.0318 20.625
10.0620 20.521
10.0923 19.792
10.1226 21.302
10.1529 19.792
10.1832 20.365
10.2134 20.156
10.2437 21.198
10.2740 19.115
10.3043 20.000
10.3346 17.604
10.3648 16.562
10.3951 15.365
10.4254 15.990
10.4557 16.146
10.4859 16.510
10.5162 16.250
10.5465 15.104
10.5768 14.635
10.6071 14.219
10.6373 15.052
10.6676 14.687
10.6979 14.531
10.7282 12.448
10.7585 14.792
10.7887 13.281
10.8190 14.010
10.8493 14.167
10.8796 13.542
10.9098 15.625
10.9401 16.354
10.9704 19.271
11.0007 20.104
11.0310 19.635
11.0612 20.833
11.0915 20.833
11.1218 18.281
11.1521 17.552
11.1824 18.854
11.2126 16.562
11.2429 18.333
11.2732 19.687
11.3035 18.906
11.3337 22.656
11.3640 24.896
11.3943 25.469
11.4246 27.552
11.4549 31.667
11.4851 37.135
11.5154 40.156
11.5457 41.719
11.5760 44.062
11.6063 52.708
11.6365 59.687
11.6668 69.375
11.6971 83.958
11.7274 93.125
11.7577 101.198
11.7879 97.500
11.8182 87.812
11.8485 74.167
11.8788 61.198
11.9090 47.552
11.9393 39.271
11.9696 32.344
11.9999 27.865
12.0302 22.083
12.0604 23.125
12.0907 19.687
12.1210 19.062
12.1513 17.240
12.1816 17.656
12.2118 13.073
12.2421 12.760
12.2724 10.781
12.3027 10.260
12.3329 9.531
12.3632 8.333
12.3935 7.969
12.4238 8.802
12.4541 7.760
12.4843 6.823
12.5146 9.427
12.5449 6.354
12.5752 7.031
12.6055 6.250
12.6357 7.187
12.6660 6.302
12.6963 4.896
12.7266 7.187
12.7568 6.771
12.7871 6.198
12.8174 6.198
12.8477 5.885
12.8780 5.885
12.9082 5.885
12.9385 4.427
12.9688 4.740
12.9991 5.521
13.0294 4.167
13.0596 4.323
13.0899 5.312
13.1202 5.104
13.1505 4.271
13.1807 5.625
13.2110 4.740
13.2413 4.792
13.2716 4.531
13.3019 5.104
13.3321 4.219
13.3624 5.052
13.3927 3.958
13.4230 5.052
13.4533 5.729
13.4835 5.469
13.5138 4.062
13.5441 4.687
13.5744 3.646
13.6046 5.052
13.6349 4.427
13.6652 4.427
13.6955 3.802
13.7258 3.958
13.7560 4.115
13.7863 4.427
13.8166 5.312
13.8469 3.906
13.8772 3.542
13.9074 4.167
13.9377 5.104
13.9680 4.167
13.9983 4.375
14.0285 4.531
14.0588 4.115
14.0891 3.594
14.1194 4.635
14.1497 4.479
14.1799 4.271
14.2102 3.646
14.2405 4.219
14.2708 5.052
14.3011 4.219
14.3313 4.479
14.3616 3.698
14.3919 4.687
14.4222 5.312
14.4524 4.167
14.4827 4.687
14.5130 3.542
14.5433 4.687
14.5736 5.260
14.6038 3.490
14.6341 3.802
14.6644 5.521
14.6947 4.323
14.7250 5.365
14.7552 5.937
14.7855 6.198
14.8158 5.521
14.8461 5.885
14.8764 6.250
14.9066 5.677
14.9369 5.885
14.9672 6.042
14.9975 5.833
15.0277 6.510
15.0580 6.510
15.0883 5.833
15.1186 7.240
15.1489 5.729
15.1791 6.302
15.2094 7.187
15.2397 5.729
15.2700 6.771
15.3003 6.771
15.3305 6.250
15.3608 6.198
15.3911 6.354
15.4214 5.417
15.4516 5.052
15.4819 5.885
15.5122 4.948
15.5425 4.948
15.5728 4.375
15.6030 6.250
15.6333 4.792
15.6636 4.792
15.6939 3.854
15.7242 4.427
15.7544 3.750
15.7847 3.490
15.8150 3.333
15.8453 3.698
15.8755 3.646
15.9058 4.323
15.9361 3.854
15.9664 3.437
15.9967 3.854
16.0269 3.385
16.0572 3.698
16.0875 4.687
16.1178 4.531
16.1481 4.948
16.1783 3.229
16.2086 4.479
16.2389 3.177
16.2692 2.708
16.2994 3.854
16.3297 3.229
16.3600 3.906
16.3903 3.542
16.4206 4.167
16.4508 3.177
16.4811 4.115
16.5114 3.594
16.5417 3.854
16.5720 3.594
16.6022 3.281
16.6325 3.854
16.6628 2.552
16.6931 4.687
16.7233 4.167
16.7536 3.958
16.7839 4.167
16.8142 4.219
16.8445 5.208
16.8747 4.010
16.9050 5.052
16.9353 5.469
16.9656 5.260
16.9959 6.510
17.0261 6.562
17.0564 6.719
17.0867 5.208
17.1170 5.312
17.1472 4.010
17.1775 3.802
17.2078 3.750
17.2381 4.010
17.2684 3.698
17.2986 3.281
17.3289 3.542
17.3592 3.177
17.3895 3.385
17.4198 3.385
17.4500 3.646
17.4803 2.396
17.5106 3.177
17.5409 3.594
17.5712 3.490
17.6014 2.708
17.6317 2.344
17.6620 3.073
17.6923 4.167
17.7225 3.437
17.7528 2.656
17.7831 2.865
17.8134 3.490
17.8437 3.021
17.8739 3.177
17.9042 3.594
17.9345 3.437
17.9648 3.125
17.9951 2.292
18.0253 4.844
18.0556 3.802
18.0859 2.760
18.1162 3.646
18.1464 2.969
18.1767 3.385
18.2070 2.917
18.2373 2.917
18.2676 2.812
18.2978 2.812
18.3281 3.125
18.3584 3.750
18.3887 3.750
18.4190 2.448
18.4492 3.281
18.4795 3.177
18.5098 3.177
18.5401 4.323
18.5703 3.177
18.6006 2.969
18.6309 3.594
18.6612 2.917
18.6915 3.490
18.7217 3.854
18.7520 2.969
18.7823 3.854
18.8126 3.750
18.8429 3.229
18.8731 3.229
18.9034 3.750
18.9337 2.760
18.9640 3.698
18.9942 2.969
19.0245 3.854
19.0548 3.125
19.0851 2.969
19.1154 2.448
19.1456 2.448
19.1759 3.281
19.2062 2.604
19.2365 3.750
19.2668 2.396
19.2970 2.552
19.3273 2.396
19.3576 2.500
19.3879 2.292
19.4181 2.240
19.4484 2.396
19.4787 3.490
19.5090 3.542
19.5393 2.865
19.5695 2.552
19.5998 2.604
19.6301 3.177
19.6604 2.812
19.6907 2.760
19.7209 2.812
19.7512 2.708
19.7815 2.812
19.8118 3.073
19.8420 2.396
19.8723 2.969
19.9026 3.385
19.9329 4.062
19.9632 3.646
19.9934 2.760
20.0237 3.021
20.0540 3.542
20.0843 3.281
20.1146 3.385
20.1448 2.448
20.1751 2.500
20.2054 3.594
20.2357 3.385
20.2659 3.802
20.2962 4.479
20.3265 4.167
20.3568 3.333
20.3871 3.646
20.4173 2.656
20.4476 3.125
20.4779 3.073
20.5082 2.500
20.5385 3.333
20.5687 2.500
20.5990 3.854
20.6293 3.125
20.6596 2.552
20.6899 2.552
20.7201 3.802
20.7504 3.698
20.7807 3.594
20.8110 2.240
20.8412 2.917
20.8715 3.021
20.9018 3.281
20.9321 2.604
20.9624 3.490
20.9926 2.604
21.0229 2.760
21.0532 3.854
21.0835 3.854
21.1138 3.854
21.1440 4.427
21.1743 5.990
21.2046 7.917
21.2349 6.875
21.2651 5.781
21.2954 4.115
21.3257 4.062
21.3560 3.854
21.3863 4.010
21.4165 2.917
21.4468 2.865
21.4771 4.062
21.5074 3.177
21.5377 3.802
21.5679 2.344
21.5982 3.021
21.6285 3.021
21.6588 2.708
21.6890 2.396
21.7193 2.760
21.7496 2.708
21.7799 3.021
21.8102 2.760
21.8404 2.760
21.8707 2.031
21.9010 2.708
21.9313 3.125
21.9616 2.344
21.9918 3.177
22.0221 1.875
22.0524 3.125
22.0827 1.875
22.1129 3.125
22.1432 2.448
22.1735 2.604
22.2038 2.760
22.2341 2.865
22.2643 3.385
22.2946 2.396
22.3249 3.802
22.3552 2.969
22.3855 2.500
22.4157 3.073
22.4460 2.448
22.4763 2.500
22.5066 2.708
22.5368 3.177
22.5671 2.969
22.5974 2.187
22.6277 3.125
22.6580 2.708
22.6882 2.500
22.7185 2.969
22.7488 3.021
22.7791 3.125
22.8094 3.333
22.8396 3.594
22.8699 2.500
22.9002 2.240
22.9305 2.500
22.9607 2.292
22.9910 3.021
23.0213 3.229
23.0516 2.187
23.0819 2.812
23.1121 3.698
23.1424 2.917
23.1727 3.281
23.2030 4.167
23.2333 3.177
23.2635 4.583
23.2938 4.115
23.3241 3.542
23.3544 3.542
23.3846 3.958
23.4149 3.333
23.4452 4.010
23.4755 3.646
23.5058 4.115
23.5360 5.781
23.5663 4.115
23.5966 5.208
23.6269 5.521
23.6572 5.833
23.6874 6.823
23.7177 6.979
23.7480 7.865
23.7783 8.750
23.8086 9.115
23.8388 10.573
23.8691 11.458
23.8994 11.823
23.9297 10.052
23.9599 9.323
23.9902 6.927
24.0205 7.240
24.0508 6.458
24.0811 5.573
24.1113 6.146
24.1416 5.885
24.1719 5.573
24.2022 5.260
24.2325 4.896
24.2627 6.979
24.2930 5.781
24.3233 6.927
24.3536 7.917
24.3838 8.073
24.4141 7.865
24.4444 7.187
24.4747 7.292
24.5050 6.250
24.5352 6.458
24.5655 5.990
24.5958 5.990
24.6261 4.687
24.6564 4.948
24.6866 4.948
24.7169 4.323
24.7472 4.740
24.7775 4.271
24.8077 4.062
24.8380 3.333
24.8683 3.490
24.8986 4.219
24.9289 4.062
24.9591 3.229
24.9894 3.490
25.0197 4.062
25.0500 2.552
25.0803 4.375
25.1105 3.437
25.1408 4.167
25.1711 3.073
25.2014 4.323
25.2316 4.375
25.2619 3.854
25.2922 4.427
25.3225 3.750
25.3528 3.594
25.3830 4.479
25.4133 4.687
25.4436 3.698
25.4739 4.635
25.5042 3.698
25.5344 3.437
25.5647 4.271
25.5950 4.896
25.6253 3.906
25.6555 4.062
25.6858 3.802
25.7161 3.646
25.7464 4.010
25.7767 3.333
25.8069 4.583
25.8372 3.594
25.8675 3.646
25.8978 4.219
25.9281 3.698
25.9583 4.062
25.9886 2.969
26.0189 3.437
26.0492 3.698
26.0794 3.906
26.1097 3.177
26.1400 3.437
26.1703 4.167
26.2006 4.167
26.2308 3.542
26.2611 4.219
26.2914 4.531
26.3217 5.052
26.3520 4.062
26.3822 4.740
26.4125 4.062
26.4428 4.687
26.4731 5.625
26.5034 4.896
26.5336 5.573
26.5639 6.458
26.5942 5.677
26.6245 6.719
26.6547 5.521
26.6850 7.552
26.7153 7.865
26.7456 8.906
26.7759 10.469
26.8061 11.615
26.8364 13.542
26.8667 15.937
26.8970 15.365
26.9273 16.354
26.9575 14.323
26.9878 13.542
27.0181 12.031
27.0484 10.365
27.0786 8.437
27.1089 6.719
27.1392 6.458
27.1695 7.135
27.1998 6.562
27.2300 4.740
27.2603 5.365
27.2906 6.250
27.3209 5.000
27.3512 6.510
27.3814 6.042
27.4117 5.521
27.4420 4.844
27.4723 5.312
27.5025 5.104
27.5328 5.156
27.5631 4.948
27.5934 4.635
27.6237 4.062
27.6539 4.531
27.6842 3.229
27.7145 4.271
27.7448 3.594
27.7751 4.010
27.8053 3.594
27.8356 4.531
27.8659 4.323
27.8962 4.740
27.9264 4.375
27.9567 4.062
27.9870 4.062
28.0173 4.844
28.0476 3.750
28.0778 4.271
28.1081 3.542
28.1384 4.010
28.1687 4.323
28.1990 4.740
28.2292 4.375
28.2595 3.802
28.2898 4.062
28.3201 4.375
28.3503 4.740
28.3806 3.958
28.4109 3.958
28.4412 4.010
28.4715 3.125
28.5017 4.010
28.5320 4.062
28.5623 3.698
28.5926 5.052
28.6229 3.906
28.6531 4.323
28.6834 4.740
28.7137 4.219
28.7440 3.542
28.7742 3.490
28.8045 4.271
28.8348 3.490
28.8651 3.698
28.8954 3.333
28.9256 3.177
28.9559 3.333
28.9862 2.292
29.0165 3.281
29.0468 3.437
29.0770 4.219
29.1073 3.646
29.1376 3.542
29.1679 3.073
29.1981 3.437
29.2284 3.281
29.2587 3.021
29.2890 2.812
29.3193 3.281
29.3495 3.021
29.3798 2.865
29.4101 2.292
29.4404 3.125
29.4707 3.906
29.5009 3.177
29.5312 3.281
29.5615 3.594
29.5918 2.083
29.6221 2.604
29.6523 3.333
29.6826 2.917
29.7129 2.500
29.7432 3.281
29.7734 2.552
29.8037 3.281
29.8340 3.698
29.8643 2.500
29.8946 2.865
29.9248 2.917
29.9551 3.177
29.9854 3.021
30.0157 2.969
30.0460 2.604
30.0762 3.177
30.1065 3.490
30.1368 3.750
30.1671 2.760
30.1973 2.969
30.2276 3.125
30.2579 3.385
30.2882 3.229
30.3185 2.969
30.3487 3.333
30.3790 3.125
30.4093 3.385
30.4396 2.448
30.4699 2.865
30.5001 3.437
30.5304 3.542
30.5607 3.490
30.5910 3.646
30.6212 3.333
30.6515 4.271
30.6818 2.917
30.7121 4.479
30.7424 3.646
30.7726 3.750
30.8029 5.156
30.8332 5.156
30.8635 4.583
30.8938 5.208
30.9240 4.896
30.9543 5.052
30.9846 5.469
31.0149 4.844
31.0451 5.729
31.0754 6.146
31.1057 5.573
31.1360 5.885
31.1663 8.281
31.1965 8.177
31.2268 6.406
31.2571 8.854
31.2874 9.948
31.3177 10.156
31.3479 12.240
31.3782 12.917
31.4085 15.156
31.4388 19.010
31.4690 19.010
31.4993 23.750
31.5296 27.500
31.5599 27.396
31.5902 29.375
31.6204 28.906
31.6507 27.240
31.6810 24.219
31.7113 22.760
31.7416 20.521
31.7718 16.615
31.8021 16.667
31.8324 14.062
31.8627 13.385
31.8929 11.562
31.9232 10.052
31.9535 9.583
31.9838 9.479
32.0141 9.271
32.0443 7.552
32.0746 10.208
32.1049 9.948
32.1352 8.177
32.1655 8.906
32.1957 9.010
32.2260 8.385
32.2563 8.333
32.2866 7.448
32.3169 6.875
32.3471 6.562
32.3774 7.187
32.4077 6.458
32.4380 6.302
32.4682 5.469
32.4985 5.469
32.5288 6.302
32.5591 5.990
32.5894 6.354
32.6196 7.604
32.6499 8.073
32.6802 11.510
32.7105 13.802
32.7408 19.010
32.7710 18.385
32.8013 14.792
32.8316 13.490
32.8619 11.042
32.8921 7.760
32.9224 6.250
32.9527 6.198
32.9830 4.948
33.0133 4.844
33.0435 4.740
33.0738 4.271
33.1041 3.750
33.1344 4.427
33.1647 3.542
33.1949 3.750
33.2252 4.531
33.2555 4.792
33.2858 3.437
33.3160 4.115
33.3463 3.229
33.3766 3.333
33.4069 4.323
33.4372 4.062
33.4674 4.844
33.4977 3.750
33.5280 3.698
33.5583 3.177
33.5886 3.854
33.6188 3.542
33.6491 3.385
33.6794 3.385
33.7097 3.281
33.7399 4.323
33.7702 3.125
33.8005 3.281
33.8308 3.594
33.8611 4.740
33.8913 3.802
33.9216 4.271
33.9519 4.792
33.9822 5.937
34.0125 4.271
34.0427 5.365
34.0730 5.729
34.1033 6.562
34.1336 7.865
34.1638 10.156
34.1941 12.448
34.2244 15.312
34.2547 14.844
34.2850 13.646
34.3152 11.354
34.3455 11.198
34.3758 9.740
34.4061 8.594
34.4364 7.552
34.4666 8.854
34.4969 8.021
34.5272 7.656
34.5575 7.448
34.5877 8.437
34.6180 7.812
34.6483 8.646
34.6786 8.646
34.7089 8.125
34.7391 7.604
34.7694 8.750
34.7997 9.115
34.8300 11.198
34.8603 12.917
34.8905 14.792
34.9208 15.885
34.9511 18.646
34.9814 18.229
35.0116 18.437
35.0419 14.583
35.0722 14.531
35.1025 11.562
35.1328 9.948
35.1630 8.646
35.1933 7.865
35.2236 6.406
35.2539 7.760
35.2842 5.885
35.3144 6.510
35.3447 5.625
35.3750 5.885
35.4053 6.719
35.4356 5.417
35.4658 5.521
35.4961 6.302
35.5264 6.042
35.5567 7.083
35.5869 6.094
35.6172 7.031
35.6475 7.448
35.6778 7.656
35.7081 7.552
35.7383 7.708
35.7686 9.271
35.7989 11.198
35.8292 11.302
35.8595 12.240
35.8897 16.302
35.9200 17.396
35.9503 19.479
35.9806 21.042
36.0108 25.260
36.0411 28.490
36.0714 28.333
36.1017 31.094
36.1320 27.917
36.1622 27.552
36.1925 25.521
36.2228 23.021
36.2531 19.687
36.2834 18.021
36.3136 16.562
36.3439 10.990
36.3742 11.667
36.4045 8.906
36.4347 7.500
36.4650 7.865
36.4953 7.448
36.5256 5.885
36.5559 6.458
36.5861 4.844
36.6164 5.156
36.6467 4.167
36.6770 4.323
36.7073 4.479
36.7375 4.010
36.7678 4.375
36.7981 4.271
36.8284 4.115
36.8586 3.802
36.8889 3.802
36.9192 3.281
36.9495 3.281
36.9798 3.021
37.0100 2.812
37.0403 3.021
37.0706 3.229
37.1009 2.865
37.1312 3.802
37.1614 3.385
37.1917 2.969
37.2220 2.865
37.2523 3.490
37.2825 3.906
37.3128 2.969
37.3431 3.229
37.3734 3.542
37.4037 3.385
37.4339 3.542
37.4642 2.500
37.4945 3.021
37.5248 2.917
37.5551 2.031
37.5853 2.917
37.6156 2.500
37.6459 2.500
37.6762 2.865
37.7064 2.344
37.7367 2.760
37.7670 2.552
37.7973 2.240
37.8276 3.125
37.8578 1.354
37.8881 2.708
37.9184 2.344
37.9487 3.021
37.9790 2.344
38.0092 1.510
38.0395 2.135
38.0698 2.187
38.1001 2.552
38.1304 2.812
38.1606 2.656
38.1909 2.656
38.2212 2.448
38.2515 1.823
38.2817 2.187
38.3120 2.865
38.3423 2.187
38.3726 1.927
38.4029 2.187
38.4331 2.708
38.4634 2.604
38.4937 2.552
38.5240 2.135
38.5543 2.031
38.5845 1.771
38.6148 2.500
38.6451 2.083
38.6754 2.344
38.7056 2.500
38.7359 2.240
38.7662 1.771
38.7965 2.500
38.8268 2.292
38.8570 2.344
38.8873 2.187
38.9176 1.510
38.9479 1.771
38.9782 2.917
39.0084 2.031
39.0387 2.812
39.0690 2.187
39.0993 1.771
39.1295 2.031
39.1598 1.771
39.1901 1.719
39.2204 2.187
39.2507 1.615
39.2809 1.771
39.3112 2.344
39.3415 2.187
39.3718 2.135
39.4021 1.875
39.4323 1.927
39.4626 1.823
39.4929 2.083
39.5232 1.562
39.5534 2.500
39.5837 2.187
39.6140 1.562
39.6443 2.031
39.6746 1.823
39.7048 2.292
39.7351 1.823
39.7654 2.083
39.7957 1.667
39.8260 2.708
39.8562 2.656
39.8865 1.823
39.9168 2.187
39.9471 1.719
39.9773 2.031
40.0076 1.562
40.0379 2.500
40.0682 1.875
40.0985 2.187
40.1287 2.396
40.1590 1.875
40.1893 2.031
40.2196 2.031
40.2499 1.562
40.2801 1.458
40.3104 2.292
40.3407 2.083
40.3710 2.135
40.4012 2.396
40.4315 2.656
40.4618 1.875
40.4921 2.396
40.5224 3.177
40.5526 2.240
40.5829 2.760
40.6132 2.708
40.6435 2.187
40.6738 3.125
40.7040 2.812
40.7343 3.073
40.7646 3.906
40.7949 4.062
40.8251 4.219
40.8554 3.802
40.8857 4.323
40.9160 5.312
40.9463 5.937
40.9765 6.250
41.0068 5.781
41.0371 5.260
41.0674 5.885
41.0977 5.156
41.1279 4.792
41.1582 3.125
41.1885 3.437
41.2188 3.906
41.2491 3.125
41.2793 2.083
41.3096 3.281
41.3399 3.177
41.3702 2.448
41.4004 2.396
41.4307 2.448
41.4610 2.083
41.4913 1.719
41.5216 1.719
41.5518 2.135
41.5821 2.344
41.6124 2.396
41.6427 2.344
41.6730 2.344
41.7032 2.604
41.7335 1.927
41.7638 2.083
41.7941 1.667
41.8243 2.396
41.8546 2.344
41.8849 2.083
41.9152 1.771
41.9455 1.927
41.9757 1.927
42.0060 2.292
42.0363 1.927
42.0666 1.146
42.0969 1.771
42.1271 1.667
42.1574 1.667
42.1877 2.292
42.2180 2.083
42.2482 1.979
42.2785 1.875
42.3088 2.187
42.3391 2.760
42.3694 2.031
42.3996 2.083
42.4299 2.031
42.4602 2.292
42.4905 2.448
42.5208 2.031
42.5510 2.187
42.5813 1.510
42.6116 1.719
42.6419 1.927
42.6721 1.146
42.7024 2.031
42.7327 1.458
42.7630 2.031
42.7933 1.406
42.8235 1.719
42.8538 1.510
42.8841 1.406
42.9144 1.354
42.9447 1.354
42.9749 2.604
43.0052 2.240
43.0355 1.562
43.0658 1.562
43.0960 1.406
43.1263 1.927
43.1566 2.031
43.1869 1.927
43.2172 2.448
43.2474 1.823
43.2777 2.240
43.3080 2.344
43.3383 1.302
43.3686 1.719
43.3988 2.135
43.4291 1.667
43.4594 2.083
43.4897 2.292
43.5199 2.187
43.5502 1.615
43.5805 1.823
43.6108 1.615
43.6411 1.979
43.6713 1.823
43.7016 1.875
43.7319 2.448
43.7622 1.875
43.7925 1.146
43.8227 1.823
43.8530 1.510
43.8833 1.354
43.9136 2.135
43.9439 1.927
43.9741 1.354
44.0044 1.250
44.0347 1.823
44.0650 1.979
44.0952 1.927
44.1255 2.240
44.1558 1.562
44.1861 1.302
44.2164 1.719
44.2466 1.979
44.2769 2.083
44.3072 1.771
44.3375 2.031
44.3678 1.979
44.3980 2.240
44.4283 2.031
44.4586 1.979
44.4889 1.667
44.5191 2.292
44.5494 1.927
44.5797 2.135
44.6100 2.031
44.6403 1.771
44.6705 2.448
44.7008 1.927
44.7311 2.135
44.7614 2.448
44.7917 2.396
44.8219 2.865
44.8522 2.604
44.8825 1.771
44.9128 1.927
44.9430 2.396
44.9733 1.927
45.0036 2.135
45.0339 1.771
45.0642 1.719
45.0944 2.500
45.1247 1.354
45.1550 1.354
45.1853 2.135
45.2156 1.615
45.2458 2.812
45.2761 2.917
45.3064 1.667
45.3367 2.240
45.3669 1.771
45.3972 1.875
45.4275 2.500
45.4578 1.302
45.4881 1.927
45.5183 1.615
45.5486 1.771
45.5789 1.771
45.6092 1.667
45.6395 1.719
45.6697 1.615
45.7000 1.458
45.7303 1.927
45.7606 1.615
45.7908 1.250
45.8211 2.500
45.8514 1.615
45.8817 2.083
45.9120 1.875
45.9422 1.198
45.9725 1.771
46.0028 1.250
46.0331 2.031
46.0634 1.458
46.0936 1.615
46.1239 1.927
46.1542 1.927
46.1845 1.719
46.2147 1.615
46.2450 2.292
46.2753 1.562
46.3056 1.771
46.3359 1.354
46.3661 1.562
46.3964 1.510
46.4267 2.240
46.4570 2.083
46.4873 2.187
46.5175 2.083
46.5478 2.083
46.5781 1.927
46.6084 1.771
46.6386 1.927
46.6689 1.823
46.6992 2.292
46.7295 1.927
46.7598 2.187
46.7900 2.240
46.8203 2.292
46.8506 1.823
46.8809 2.865
46.9112 2.500
46.9414 2.552
46.9717 3.073
47.0020 3.021
47.0323 2.448
47.0626 2.344
47.0928 3.437
47.1231 2.917
47.1534 3.958
47.1837 3.958
47.2139 3.281
47.2442 4.323
47.2745 4.167
47.3048 3.646
47.3351 4.271
47.3653 4.010
47.3956 2.969
47.4259 3.750
47.4562 3.958
47.4865 3.073
47.5167 3.594
47.5470 3.698
47.5773 3.802
47.6076 3.906
47.6378 2.917
47.6681 3.646
47.6984 3.177
47.7287 2.865
47.7590 2.500
47.7892 2.031
47.8195 2.031
47.8498 3.073
47.8801 3.229
47.9104 2.240
47.9406 2.187
47.9709 1.927
48.0012 2.812
48.0315 2.187
48.0617 2.083
48.0920 2.552
48.1223 1.823
48.1526 2.344
48.1829 2.135
48.2131 2.760
48.2434 2.292
48.2737 2.448
48.3040 2.344
48.3343 2.865
48.3645 2.396
48.3948 2.292
48.4251 2.031
48.4554 2.292
48.4856 2.500
48.5159 2.552
48.5462 2.135
48.5765 1.927
48.6068 1.927
48.6370 2.448
48.6673 2.708
48.6976 2.396
48.7279 3.177
48.7582 2.656
48.7884 2.656
48.8187 2.396
48.8490 2.500
48.8793 3.021
48.9095 3.177
48.9398 3.229
48.9701 4.010
49.0004 3.021
49.0307 2.604
49.0609 3.750
49.0912 3.385
49.1215 3.073
49.1518 2.760
49.1821 3.073
49.2123 2.552
49.2426 2.344
49.2729 2.760
49.3032 2.656
49.3334 2.917
49.3637 2.969
49.3940 3.125
49.4243 2.917
49.4546 2.760
49.4848 3.385
49.5151 3.594
49.5454 3.698
49.5757 4.115
49.6060 4.635
49.6362 4.531
49.6665 6.354
49.6968 6.458
49.7271 5.104
49.7574 5.312
49.7876 5.312
49.8179 4.635
49.8482 3.958
49.8785 3.750
49.9087 4.062
49.9390 3.958
49.9693 3.490
49.9996 4.531
50.0299 3.385
50.0601 2.917
50.0904 3.437
50.1207 2.656
50.1510 3.229
50.1813 2.812
50.2115 3.021
50.2418 3.333
50.2721 2.083
50.3024 2.396
50.3326 2.865
50.3629 2.708
50.3932 2.187
50.4235 2.656
50.4538 2.135
50.4840 2.187
50.5143 1.979
50.5446 1.823
50.5749 2.083
50.6052 2.344
50.6354 2.031
50.6657 2.656
50.6960 2.656
50.7263 2.396
50.7565 2.656
50.7868 2.865
50.8171 2.083
50.8474 2.500
50.8777 2.708
50.9079 2.865
50.9382 2.604
50.9685 1.771
50.9988 2.083
51.0291 2.083
51.0593 2.135
51.0896 1.510
51.1199 2.135
51.1502 2.344
51.1804 2.812
51.2107 1.979
51.2410 2.240
51.2713 2.396
51.3016 2.135
51.3318 1.719
51.3621 2.135
51.3924 2.031
51.4227 1.615
51.4530 2.135
51.4832 2.448
51.5135 2.135
51.5438 2.656
51.5741 2.240
51.6043 2.187
51.6346 2.448
51.6649 1.771
51.6952 2.240
51.7255 3.125
51.7557 2.760
51.7860 2.187
51.8163 3.542
51.8466 2.760
51.8769 2.604
51.9071 2.552
51.9374 2.292
51.9677 2.396
51.9980 2.187
52.0282 3.542
52.0585 2.292
52.0888 2.396
52.1191 2.656
52.1494 1.875
52.1796 2.760
52.2099 2.760
52.2402 2.760
52.2705 1.562
52.3008 1.927
52.3310 2.396
52.3613 1.719
52.3916 2.135
52.4219 2.083
52.4521 1.927
52.4824 2.760
52.5127 2.240
52.5430 1.927
52.5733 1.771
52.6035 1.927
52.6338 1.562
52.6641 1.927
52.6944 2.083
52.7247 2.396
52.7549 2.240
52.7852 1.875
52.8155 2.187
52.8458 1.719
52.8761 1.771
52.9063 1.875
52.9366 2.344
52.9669 2.031
52.9972 2.083
53.0274 1.719
53.0577 1.875
53.0880 1.875
53.1183 1.094
53.1486 1.302
53.1788 1.562
53.2091 1.719
53.2394 2.240
53.2697 1.667
53.3000 1.562
53.3302 1.615
53.3605 1.823
53.3908 2.240
53.4211 1.458
53.4513 1.406
53.4816 2.083
53.5119 2.187
53.5422 2.292
53.5725 1.510
53.6027 1.823
53.6330 1.562
53.6633 2.135
53.6936 1.771
53.7239 1.823
53.7541 1.510
53.7844 2.292
53.8147 1.615
53.8450 1.667
53.8752 1.458
53.9055 1.458
53.9358 1.719
53.9661 2.344
53.9964 1.667
54.0266 1.719
54.0569 1.719
54.0872 1.823
54.1175 1.771
54.1478 2.135
54.1780 2.083
54.2083 1.719
54.2386 1.927
54.2689 1.562
54.2991 1.562
54.3294 2.187
54.3597 1.354
54.3900 1.615
54.4203 2.135
54.4505 1.562
54.4808 1.458
54.5111 1.771
54.5414 1.302
54.5717 1.458
54.6019 2.083
54.6322 1.771
54.6625 1.562
54.6928 1.771
54.7230 1.771
54.7533 1.510
54.7836 1.615
54.8139 1.927
54.8442 1.667
54.8744 1.615
54.9047 1.927
54.9350 1.667
54.9653 1.667
54.9956 1.823
55.0258 1.615
55.0561 2.292
55.0864 1.354
55.1167 1.562
55.1469 1.562
55.1772 1.927
55.2075 1.719
55.2378 1.719
55.2681 1.458
55.2983 2.396
55.3286 2.083
55.3589 2.187
55.3892 2.083
55.4195 1.719
55.4497 1.615
55.4800 2.031
55.5103 2.083
55.5406 2.083
55.5709 1.615
55.6011 1.927
55.6314 2.448
55.6617 2.292
55.6920 2.448
55.7222 1.615
55.7525 2.031
55.7828 2.292
55.8131 2.083
55.8434 2.604
55.8736 2.187
55.9039 3.073
55.9342 2.500
55.9645 3.125
55.9948 2.969
56.0250 3.437
56.0553 2.969
56.0856 3.750
56.1159 4.844
56.1461 5.208
56.1764 5.000
56.2067 5.781
56.2370 5.729
56.2673 8.802
56.2975 7.396
56.3278 8.906
56.3581 8.177
56.3884 10.781
56.4187 9.896
56.4489 9.844
56.4792 10.052
56.5095 8.333
56.5398 9.167
56.5700 8.437
56.6003 7.708
56.6306 7.708
56.6609 6.771
56.6912 5.990
56.7214 4.948
56.7517 5.052
56.7820 4.896
56.8123 4.219
56.8426 3.854
56.8728 4.115
56.9031 3.229
56.9334 3.125
56.9637 2.396
56.9939 2.865
57.0242 3.281
57.0545 2.344
57.0848 2.448
57.1151 2.344
57.1453 2.031
57.1756 2.604
57.2059 2.396
57.2362 2.083
57.2665 1.875
57.2967 1.667
57.3270 2.135
57.3573 2.083
57.3876 2.031
57.4178 2.292
57.4481 2.344
57.4784 1.823
57.5087 1.927
57.5390 1.615
57.5692 2.552
57.5995 2.083
57.6298 1.771
57.6601 2.240
57.6904 1.615
57.7206 1.615
57.7509 1.719
57.7812 2.135
57.8115 1.562
57.8417 1.250
57.8720 1.719
57.9023 1.667
57.9326 1.719
57.9629 1.458
57.9931 1.719
58.0234 1.823
58.0537 2.292
58.0840 1.979
58.1143 1.927
58.1445 2.396
58.1748 2.083
58.2051 2.656
58.2354 1.979
58.2656 2.031
58.2959 2.187
58.3262 2.396
58.3565 1.562
58.3868 3.073
58.4170 2.708
58.4473 2.812
58.4776 3.437
58.5079 4.062
58.5382 4.740
58.5684 5.469
58.5987 5.417
58.6290 5.469
58.6593 4.531
58.6896 3.958
58.7198 3.698
58.7501 4.687
58.7804 3.594
58.8107 2.760
58.8409 2.292
58.8712 2.083
58.9015 2.500
58.9318 1.979
58.9621 2.240
58.9923 2.396
59.0226 2.240
59.0529 2.135
59.0832 2.292
59.1135 2.344
59.1437 2.187
59.1740 1.875
59.2043 2.031
59.2346 2.292
59.2648 2.083
59.2951 2.083
59.3254 2.500
59.3557 2.396
59.3860 2.083
59.4162 2.396
59.4465 2.187
59.4768 2.604
59.5071 2.240
59.5374 2.135
59.5676 2.448
59.5979 2.187
59.6282 2.396
59.6585 2.656
59.6887 2.135
59.7190 2.552
59.7493 2.448
59.7796 2.656
59.8099 3.281
59.8401 3.073
59.8704 3.542
59.9007 3.229
59.9310 3.333
59.9613 3.958
59.9915 4.219
60.0218 4.740
60.0521 3.750
60.0824 5.156
60.1126 3.906
60.1429 4.740
60.1732 4.687
60.2035 5.000
60.2338 4.271
60.2640 4.010
60.2943 3.854
60.3246 4.531
60.3549 3.646
60.3852 3.958
60.4154 3.281
60.4457 4.271
60.4760 3.594
60.5063 3.802
60.5365 3.542
60.5668 3.021
60.5971 3.073
60.6274 2.292
60.6577 1.979
60.6879 1.875
60.7182 2.500
60.7485 2.240
60.7788 1.823
60.8091 1.615
60.8393 2.083
60.8696 2.604
60.8999 2.187
60.9302 2.083
60.9604 2.187
60.9907 2.500
61.0210 2.031
61.0513 2.292
61.0816 2.500
61.1118 2.656
61.1421 2.187
61.1724 2.396
61.2027 2.031
61.2330 2.396
61.2632 2.604
61.2935 2.292
61.3238 2.031
61.3541 1.771
61.3844 2.031
61.4146 1.927
61.4449 2.083
61.4752 1.562
61.5055 1.667
61.5357 2.031
61.5660 2.031
61.5963 1.927
61.6266 1.667
61.6569 1.615
61.6871 1.667
61.7174 1.406
61.7477 1.667
61.7780 2.552
61.8083 1.875
61.8385 2.292
61.8688 1.562
61.8991 1.510
61.9294 1.823
61.9596 2.187
61.9899 1.719
62.0202 2.552
62.0505 2.031
62.0808 2.396
62.1110 2.031
62.1413 1.562
62.1716 2.083
62.2019 2.917
62.2322 2.344
62.2624 2.760
62.2927 2.500
62.3230 2.448
62.3533 2.448
62.3835 2.552
62.4138 2.448
62.4441 2.812
62.4744 3.750
62.5047 3.542
62.5349 4.062
62.5652 4.531
62.5955 3.854
62.6258 3.125
62.6561 3.125
62.6863 4.740
62.7166 4.271
62.7469 3.854
62.7772 3.698
62.8074 4.271
62.8377 3.698
62.8680 2.812
62.8983 3.177
62.9286 3.177
62.9588 2.396
62.9891 2.812
63.0194 2.604
63.0497 2.656
63.0800 1.823
63.1102 2.448
63.1405 2.500
63.1708 1.719
63.2011 1.875
63.2313 1.458
63.2616 1.875
63.2919 1.927
63.3222 1.875
63.3525 1.927
63.3827 1.719
63.4130 1.562
63.4433 1.406
63.4736 1.719
63.5039 1.458
63.5341 1.562
63.5644 1.771
63.5947 1.354
63.6250 1.042
63.6552 1.615
63.6855 1.719
63.7158 1.562
63.7461 1.146
63.7764 1.719
63.8066 1.458
63.8369 1.042
63.8672 1.823
63.8975 1.771
63.9278 2.031
63.9580 1.406
63.9883 1.406
64.0186 1.927
64.0489 1.615
64.0791 1.562
64.1094 1.615
64.1397 1.406
64.1700 1.354
64.2003 1.458
64.2305 1.146
64.2608 1.198
64.2911 1.562
64.3214 1.719
64.3517 1.927
64.3819 1.927
64.4122 1.458
64.4425 1.927
64.4728 1.562
64.5031 0.885
64.5333 1.510
64.5636 1.615
64.5939 1.510
64.6242 1.458
64.6544 1.510
64.6847 1.354
64.7150 1.719
64.7453 1.198
64.7756 1.510
64.8058 1.406
64.8361 1.667
64.8664 1.458
64.8967 1.302
64.9270 1.302
64.9572 1.198
64.9875 1.146
65.0178 1.354
65.0481 1.250
65.0783 1.615
65.1086 1.354
65.1389 1.667
65.1692 1.198
65.1995 1.198
65.2297 1.354
65.2600 1.250
65.2903 1.458
65.3206 1.146
65.3509 1.562
65.3811 1.042
65.4114 1.823
65.4417 1.198
65.4720 1.875
65.5022 1.510
65.5325 1.302
65.5628 1.771
65.5931 1.146
65.6234 1.198
65.6536 1.302
65.6839 1.354
65.7142 1.042
65.7445 1.615
65.7748 1.562
65.8050 1.875
65.8353 1.667
65.8656 1.354
65.8959 1.615
65.9261 1.927
65.9564 1.406
65.9867 1.875
66.0170 1.615
66.0473 2.500
66.0775 2.187
66.1078 1.927
66.1381 2.604
66.1684 1.927
66.1987 1.927
66.2289 2.656
66.2592 1.927
66.2895 2.552
66.3198 1.979
66.3500 1.823
66.3803 2.292
66.4106 2.396
66.4409 1.875
66.4712 1.823
66.5014 2.396
66.5317 1.510
66.5620 1.771
66.5923 1.406
66.6226 1.458
66.6528 1.615
66.6831 1.823
66.7134 1.667
66.7437 1.510
66.7739 1.198
66.8042 1.354
66.8345 1.354
66.8648 1.042
66.8951 1.042
66.9253 2.083
66.9556 1.250
66.9859 1.875
67.0162 1.615
67.0465 1.458
67.0767 1.354
67.1070 1.875
67.1373 1.562
67.1676 1.875
67.1978 1.875
67.2281 1.875
67.2584 1.719
67.2887 2.031
67.3190 1.927
67.3492 1.458
67.3795 2.760
67.4098 2.812
67.4401 3.281
67.4704 2.656
67.5006 3.125
67.5309 3.229
67.5612 3.333
67.5915 4.115
67.6218 3.177
67.6520 3.698
67.6823 4.375
67.7126 4.271
67.7429 4.427
67.7731 4.583
67.8034 4.479
67.8337 4.115
67.8640 4.115
67.8943 4.115
67.9245 4.583
67.9548 3.802
67.9851 3.437
68.0154 3.490
68.0457 3.229
68.0759 3.906
68.1062 3.021
68.1365 2.604
68.1668 1.875
68.1970 2.604
68.2273 2.240
68.2576 2.135
68.2879 1.979
68.3182 2.135
68.3484 2.500
68.3787 1.771
68.4090 1.719
68.4393 1.979
68.4696 2.135
68.4998 1.771
68.5301 2.500
68.5604 2.292
68.5907 2.396
68.6209 2.292
68.6512 3.177
68.6815 2.344
68.7118 2.396
68.7421 2.760
68.7723 3.333
68.8026 3.385
68.8329 3.385
68.8632 3.750
68.8935 4.375
68.9237 3.177
68.9540 2.969
68.9843 2.604
69.0146 2.448
69.0448 2.812
69.0751 2.760
69.1054 3.125
69.1357 3.021
69.1660 2.552
69.1962 2.396
69.2265 3.177
69.2568 2.500
69.2871 1.719
69.3174 1.771
69.3476 1.927
69.3779 1.823
69.4082 1.562
69.4385 1.615
69.4687 1.823
69.4990 1.354
69.5293 1.771
69.5596 1.302
69.5899 1.510
69.6201 1.250
69.6504 1.510
69.6807 2.083
69.7110 1.458
69.7413 1.458
69.7715 1.562
69.8018 1.771
69.8321 1.771
69.8624 1.771
69.8926 1.302
69.9229 1.562
69.9532 2.187
69.9835 1.354
70.0138 0.729
70.0440 1.615
70.0743 1.458
70.1046 1.875
70.1349 1.927
70.1652 2.292
70.1954 2.083
70.2257 1.823
70.2560 2.396
70.2863 1.510
70.3166 1.458
70.3468 1.823
70.3771 1.302
70.4074 1.562
70.4377 1.302
70.4679 1.250
70.4982 1.250
70.5285 1.458
70.5588 1.250
70.5891 1.094
70.6193 1.250
70.6496 0.937
70.6799 1.562
70.7102 1.406
70.7405 1.354
70.7707 1.250
70.8010 1.406
70.8313 1.146
70.8616 1.198
70.8918 1.510
70.9221 1.510
70.9524 1.250
70.9827 1.146
71.0130 1.302
71.0432 0.990
71.0735 1.250
71.1038 1.615
71.1341 1.615
71.1644 1.250
71.1946 0.885
71.2249 1.510
71.2552 1.146
71.2855 1.354
71.3157 1.458
71.3460 1.354
71.3763 0.885
71.4066 0.937
71.4369 0.990
71.4671 1.302
71.4974 1.250
71.5277 1.458
71.5580 1.042
71.5883 1.562
71.6185 1.198
71.6488 1.250
71.6791 0.885
71.7094 1.146
71.7396 1.146
71.7699 1.094
71.8002 1.354
71.8305 0.729
71.8608 1.302
71.8910 0.833
71.9213 1.042
71.9516 1.354
71.9819 1.615
72.0122 1.094
72.0424 1.146
72.0727 1.406
72.1030 1.719
72.1333 1.302
72.1635 1.250
72.1938 1.667
72.2241 1.354
72.2544 1.667
72.2847 1.615
72.3149 2.031
72.3452 1.719
72.3755 1.667
72.4058 1.667
72.4361 1.406
72.4663 1.823
72.4966 1.250
72.5269 1.771
72.5572 0.833
72.5874 1.146
72.6177 1.562
72.6480 1.719
72.6783 1.250
72.7086 1.302
72.7388 1.250
72.7691 1.406
72.7994 1.615
72.8297 1.146
72.8600 1.198
72.8902 1.719
72.9205 1.667
72.9508 0.781
72.9811 1.406
73.0113 1.094
73.0416 1.042
73.0719 0.937
73.1022 1.562
73.1325 1.198
73.1627 1.302
73.1930 1.510
73.2233 0.937
73.2536 1.198
73.2839 1.771
73.3141 0.729
73.3444 1.146
73.3747 1.562
73.4050 1.406
73.4353 1.302
73.4655 1.302
73.4958 1.146
73.5261 1.042
73.5564 1.198
73.5866 1.146
73.6169 0.729
73.6472 1.458
73.6775 1.146
73.7078 1.146
73.7380 1.198
73.7683 1.250
73.7986 1.458
73.8289 1.458
73.8592 1.094
73.8894 0.937
73.9197 1.510
73.9500 1.042
73.9803 1.302
74.0105 0.937
74.0408 1.198
74.0711 0.937
74.1014 1.458
74.1317 1.719
74.1619 1.250
74.1922 1.667
74.2225 1.094
74.2528 0.990
74.2831 1.146
74.3133 0.937
74.3436 1.198
74.3739 1.354
74.4042 0.885
74.4344 1.094
74.4647 0.885
74.4950 1.354
74.5253 0.937
74.5556 1.198
74.5858 0.781
74.6161 0.937
74.6464 1.562
74.6767 1.198
74.7070 1.094
74.7372 1.042
74.7675 0.990
74.7978 1.146
74.8281 1.094
74.8583 0.937
74.8886 1.458
74.9189 1.042
74.9492 0.885
74.9795 0.937
75.0097 1.198
75.0400 0.885
75.0703 1.146
75.1006 1.094
75.1309 0.729
75.1611 1.146
75.1914 1.042
75.2217 0.781
75.2520 1.042
75.2822 1.250
75.3125 1.250
75.3428 0.990
75.3731 0.833
75.4034 0.885
75.4336 0.729
75.4639 1.042
75.4942 0.729
75.5245 0.885
75.5548 0.833
75.5850 1.302
75.6153 0.990
75.6456 0.990
75.6759 1.042
75.7061 0.990
75.7364 1.198
75.7667 0.937
75.7970 1.406
75.8273 1.146
75.8575 1.458
75.8878 0.885
75.9181 1.146
75.9484 0.833
75.9787 1.354
76.0089 0.833
76.0392 1.302
76.0695 1.198
76.0998 1.302
76.1301 1.094
76.1603 1.146
76.1906 0.729
76.2209 1.250
76.2512 0.937
76.2814 0.729
76.3117 1.302
76.3420 1.510
76.3723 0.937
76.4026 0.677
76.4328 1.354
76.4631 1.406
76.4934 1.198
76.5237 1.667
76.5540 0.937
76.5842 1.302
76.6145 0.990
76.6448 1.094
76.6751 1.510
76.7053 1.302
76.7356 1.146
76.7659 1.146
76.7962 1.406
76.8265 1.250
76.8567 1.510
76.8870 1.354
76.9173 1.354
76.9476 1.979
76.9779 1.042
77.0081 1.250
77.0384 1.198
77.0687 1.510
77.0990 1.406
77.1292 1.094
77.1595 1.198
77.1898 1.042
77.2201 1.354
77.2504 1.771
77.2806 1.667
77.3109 1.510
77.3412 0.937
77.3715 1.354
77.4018 1.146
77.4320 0.781
77.4623 1.146
77.4926 0.833
77.5229 0.885
77.5531 0.937
77.5834 0.937
77.6137 1.302
77.6440 0.990
77.6743 0.729
77.7045 0.729
77.7348 1.562
77.7651 1.094
77.7954 0.729
77.8257 0.937
77.8559 0.833
77.8862 0.885
77.9165 1.250
77.9468 1.146
77.9770 1.250
78.0073 1.146
78.0376 1.198
78.0679 1.354
78.0982 1.042
78.1284 1.146
78.1587 1.146
78.1890 0.990
78.2193 0.729
78.2496 0.365
78.2798 1.406
78.3101 1.042
78.3404 0.937
78.3707 1.094
78.4009 0.729
78.4312 0.781
78.4615 1.250
78.4918 1.354
78.5221 1.719
78.5523 0.937
78.5826 0.937
78.6129 1.042
78.6432 1.198
78.6735 1.615
78.7037 0.781
78.7340 0.781
78.7643 1.094
78.7946 1.094
78.8248 1.406
78.8551 1.094
78.8854 1.094
78.9157 0.937
78.9460 1.198
78.9762 1.094
79.0065 0.729
79.0368 1.198
79.0671 1.406
79.0974 1.406
79.1276 0.781
79.1579 0.990
79.1882 0.833
79.2185 0.885
79.2488 0.781
79.2790 1.094
79.3093 1.198
79.3396 1.094
79.3699 0.781
79.4001 0.937
79.4304 1.354
79.4607 1.094
79.4910 1.250
79.5213 1.510
79.5515 0.937
79.5818 0.729
79.6121 0.833
79.6424 0.885
79.6727 1.510
79.7029 1.146
79.7332 0.990
79.7635 1.250
79.7938 1.198
79.8240 1.667
79.8543 1.146
79.8846 1.302
79.9149 1.406
79.9452 1.458
79.9754 1.302
80.0057 1.042
80.0360 1.458
80.0663 0.990
80.0966 1.302
80.1268 0.781
80.1571 1.823
80.1874 1.302
80.2177 0.990
80.2479 0.990
80.2782 0.990
80.3085 0.937
80.3388 1.719
80.3691 1.354
80.3993 1.094
80.4296 1.198
80.4599 1.250
80.4902 1.146
80.5205 0.990
80.5507 1.198
80.5810 1.302
80.6113 1.250
80.6416 1.198
80.6718 1.198
80.7021 1.094
80.7324 1.302
80.7627 0.833
80.7930 0.729
80.8232 1.302
80.8535 1.094
80.8838 1.354
80.9141 1.094
80.9444 1.198
80.9746 0.937
81.0049 1.146
81.0352 0.833
81.0655 1.562
81.0957 1.198
81.1260 1.510
81.1563 1.146
81.1866 1.354
81.2169 1.250
81.2471 1.250
81.2774 1.354
81.3077 1.771
81.3380 1.042
81.3683 1.302
81.3985 1.198
81.4288 1.146
81.4591 1.094
81.4894 1.198
81.5196 1.042
81.5499 0.729
81.5802 1.719
81.6105 0.781
81.6408 1.094
81.6710 1.198
81.7013 1.562
81.7316 1.510
81.7619 1.198
81.7922 1.094
81.8224 0.833
81.8527 0.729
81.8830 1.667
81.9133 0.937
81.9436 0.990
81.9738 0.885
82.0041 1.302
82.0344 1.406
82.0647 0.833
82.0949 0.625
82.1252 1.198
82.1555 0.833
82.1858 0.781
82.2161 0.990
82.2463 0.990
82.2766 1.354
82.3069 1.302
82.3372 0.885
82.3675 0.937
82.3977 1.302
82.4280 0.885
82.4583 1.302
82.4886 0.885
82.5188 0.573
82.5491 0.885
82.5794 1.250
82.6097 1.354
82.6400 0.937
82.6702 1.302
82.7005 1.042
82.7308 1.094
82.7611 0.833
82.7914 0.885
82.8216 1.146
82.8519 1.510
82.8822 0.729
82.9125 1.354
82.9427 0.677
82.9730 1.042
83.0033 0.729
83.0336 0.729
83.0639 0.937
83.0941 0.885
83.1244 0.990
83.1547 0.521
83.1850 0.937
83.2153 0.885
83.2455 1.510
83.2758 1.198
83.3061 0.990
83.3364 0.833
83.3666 0.990
83.3969 1.146
83.4272 1.198
83.4575 1.042
83.4878 1.146
83.5180 1.250
83.5483 0.990
83.5786 0.885
83.6089 1.458
83.6392 0.677
83.6694 1.146
83.6997 1.042
83.7300 0.990
83.7603 0.990
83.7905 0.990
83.8208 0.937
83.8511 1.302
83.8814 1.146
83.9117 1.042
83.9419 0.729
83.9722 0.573
84.0025 1.198
84.0328 1.042
84.0631 1.198
84.0933 0.625
84.1236 0.729
84.1539 1.146
84.1842 0.937
84.2144 0.937
84.2447 1.042
84.2750 0.937
84.3053 0.885
84.3356 0.990
84.3658 0.833
84.3961 1.250
84.4264 0.990
84.4567 1.198
84.4870 0.781
84.5172 0.885
84.5475 0.937
84.5778 0.781
84.6081 1.094
84.6383 1.198
84.6686 0.833
84.6989 1.354
84.7292 1.146
84.7595 0.885
84.7897 1.094
84.8200 1.146
84.8503 1.302
84.8806 1.562
84.9109 1.042
84.9411 1.094
84.9714 0.781
85.0017 1.198
85.0320 1.198
85.0623 0.885
85.0925 1.094
85.1228 1.458
85.1531 0.833
85.1834 1.146
85.2136 1.198
85.2439 1.198
85.2742 1.250
85.3045 1.198
85.3348 0.990
85.3650 0.937
85.3953 1.094
85.4256 0.937
85.4559 1.250
85.4862 1.302
85.5164 0.729
85.5467 0.990
85.5770 0.885
85.6073 1.667
85.6375 1.094
85.6678 1.198
85.6981 1.042
85.7284 1.042
85.7587 1.094
85.7889 1.094
85.8192 1.094
85.8495 1.198
85.8798 0.990
85.9101 0.885
85.9403 1.406
85.9706 0.573
86.0009 0.937
86.0312 0.937
86.0614 0.937
86.0917 1.094
86.1220 0.729
86.1523 1.250
86.1826 1.406
86.2128 0.990
86.2431 0.781
86.2734 1.146
86.3037 0.833
86.3340 0.781
86.3642 0.573
86.3945 1.198
86.4248 0.990
86.4551 1.667
86.4853 0.937
86.5156 1.198
86.5459 1.042
86.5762 1.250
86.6065 0.833
86.6367 0.990
86.6670 1.094
86.6973 1.094
86.7276 1.146
86.7579 0.625
86.7881 1.250
86.8184 1.042
86.8487 1.042
86.8790 1.302
86.9092 0.990
86.9395 0.781
86.9698 0.990
87.0001 1.094
87.0304 0.781
87.0606 1.198
87.0909 0.729
87.1212 0.729
87.1515 0.937
87.1818 1.146
87.2120 0.781
87.2423 0.781
87.2726 0.469
87.3029 0.833
87.3331 0.990
87.3634 0.781
87.3937 0.885
87.4240 1.146
87.4543 0.781
87.4845 0.937
87.5148 1.198
87.5451 1.250
87.5754 0.729
87.6057 1.042
87.6359 1.094
87.6662 1.042
87.6965 1.042
87.7268 0.729
87.7571 0.885
87.7873 0.885
87.8176 0.521
87.8479 0.729
87.8782 1.302
87.9084 0.833
87.9387 0.729
87.9690 1.198
87.9993 0.885
88.0296 0.625
88.0598 1.354
88.0901 0.885
88.1204 0.729
88.1507 1.146
88.1810 0.990
88.2112 0.937
88.2415 0.625
88.2718 0.677
88.3021 1.198
88.3323 1.094
88.3626 1.406
88.3929 1.302
88.4232 1.146
88.4535 1.146
88.4837 1.250
88.5140 1.354
88.5443 1.406
88.5746 1.198
88.6049 0.990
88.6351 1.354
88.6654 0.833
88.6957 0.885
88.7260 0.833
88.7562 1.198
88.7865 1.510
88.8168 1.094
88.8471 1.875
88.8774 1.094
88.9076 0.937
88.9379 0.781
88.9682 1.458
88.9985 1.667
89.0288 1.615
89.0590 0.833
89.0893 1.250
89.1196 1.719
89.1499 1.667
89.1801 2.031
89.2104 1.510
89.2407 1.510
89.2710 1.875
89.3013 1.979
89.3315 2.135
89.3618 1.667
89.3921 1.719
89.4224 1.667
89.4527 1.510
89.4829 1.198
89.5132 1.719
89.5435 1.510
89.5738 1.198
89.6040 1.198
89.6343 1.615
89.6646 1.510
89.6949 1.510
89.7252 0.990
89.7554 1.719
89.7857 1.354
89.8160 2.135
89.8463 1.198
89.8766 1.458
89.9068 1.198
89.9371 1.198
89.9674 1.198
89.9977 1.302
90.0279 1.198
90.0582 1.198
90.0885 1.354
90.1188 0.990
90.1491 1.198
90.1793 1.146
90.2096 1.302
90.2399 1.562
90.2702 0.729
90.3005 1.198
90.3307 1.042
90.3610 1.406
90.3913 1.667
90.4216 1.354
90.4518 1.146
90.4821 1.198
90.5124 0.937
90.5427 0.781
90.5730 1.042
90.6032 0.885
90.6335 1.198
90.6638 1.510
90.6941 0.990
90.7244 1.094
90.7546 0.937
90.7849 1.146
90.8152 1.615
90.8455 0.990
90.8758 1.094
90.9060 0.781
90.9363 0.833
90.9666 0.885
90.9969 1.198
91.0271 1.354
91.0574 1.198
91.0877 0.885
91.1180 1.458
91.1483 0.990
91.1785 1.042
91.2088 0.885
91.2391 0.729
91.2694 1.042
91.2997 1.302
91.3299 1.198
91.3602 0.990
91.3905 0.937
91.4208 0.990
91.4510 0.990
91.4813 1.198
91.5116 0.937
91.5419 1.146
91.5722 0.885
91.6024 1.146
91.6327 1.250
91.6630 0.781
91.6933 1.458
91.7236 0.937
91.7538 1.979
91.7841 1.094
91.8144 1.198
91.8447 0.937
91.8749 0.885
91.9052 0.937
91.9355 1.354
91.9658 1.094
91.9961 1.250
92.0263 1.354
92.0566 1.198
92.0869 1.198
92.1172 1.094
92.1475 1.094
92.1777 1.042
92.2080 1.354
92.2383 1.458
92.2686 1.406
92.2988 1.458
92.3291 1.510
92.3594 1.094
92.3897 0.885
92.4200 0.937
92.4502 1.406
92.4805 1.562
92.5108 1.667
92.5411 1.198
92.5714 1.719
92.6016 1.198
92.6319 1.198
92.6622 1.667
92.6925 0.990
92.7227 1.458
92.7530 1.354
92.7833 0.885
92.8136 1.250
92.8439 1.198
92.8741 0.885
92.9044 1.510
92.9347 1.146
92.9650 0.781
92.9953 1.823
93.0255 1.406
93.0558 0.990
93.0861 1.042
93.1164 1.302
93.1466 1.146
93.1769 0.833
93.2072 1.406
93.2375 0.990
93.2678 0.937
93.2980 1.458
93.3283 0.885
93.3586 1.094
93.3889 0.885
93.4192 0.990
93.4494 1.094
93.4797 1.042
93.5100 1.146
93.5403 1.042
93.5706 1.198
93.6008 0.781
93.6311 1.094
93.6614 0.885
93.6917 1.198
93.7219 1.198
93.7522 1.146
93.7825 1.406
93.8128 0.781
93.8431 1.198
93.8733 1.042
93.9036 0.885
93.9339 0.885
93.9642 1.719
93.9945 1.198
94.0247 0.990
94.0550 1.198
94.0853 1.198
94.1156 1.146
94.1458 0.885
94.1761 0.990
94.2064 1.094
94.2367 1.042
94.2670 1.458
94.2972 0.729
94.3275 0.990
94.3578 1.510
94.3881 1.250
94.4184 1.042
94.4486 1.198
94.4789 1.250
94.5092 0.990
94.5395 1.094
94.5697 1.250
94.6000 1.458
94.6303 1.198
94.6606 1.250
94.6909 1.510
94.7211 1.354
94.7514 1.146
94.7817 1.406
94.8120 2.344
94.8423 1.458
94.8725 1.354
94.9028 1.406
94.9331 1.615
94.9634 1.406
94.9936 1.250
95.0239 1.771
95.0542 1.510
95.0845 1.875
95.1148 1.875
95.1450 1.354
95.1753 1.719
95.2056 1.458
95.2359 2.240
95.2662 1.875
95.2964 1.875
95.3267 1.354
95.3570 1.667
95.3873 1.510
95.4175 1.719
95.4478 1.406
95.4781 1.562
95.5084 1.510
95.5387 1.719
95.5689 1.719
95.5992 1.250
95.6295 1.875
95.6598 1.406
95.6901 1.510
95.7203 0.990
95.7506 1.198
95.7809 1.146
95.8112 1.510
95.8414 1.146
95.8717 1.458
95.9020 1.250
95.9323 1.198
95.9626 0.573
95.9928 0.937
96.0231 1.042
96.0534 0.990
96.0837 0.990
96.1140 1.719
96.1442 0.833
96.1745 1.042
96.2048 0.990
96.2351 1.094
96.2653 1.146
96.2956 1.146
96.3259 0.833
96.3562 1.250
96.3865 1.250
96.4167 1.146
96.4470 1.250
96.4773 1.250
96.5076 0.833
96.5379 1.667
96.5681 0.937
96.5984 0.833
96.6287 0.729
96.6590 0.937
96.6893 1.250
96.7195 1.146
96.7498 1.042
96.7801 1.094
96.8104 0.729
96.8406 1.562
96.8709 1.042
96.9012 1.094
96.9315 1.042
96.9618 0.781
96.9920 0.781
97.0223 1.562
97.0526 1.250
97.0829 1.250
97.1132 1.250
97.1434 1.562
97.1737 0.729
97.2040 1.094
97.2343 1.354
97.2645 1.667
97.2948 1.094
97.3251 0.885
97.3554 1.250
97.3857 1.354
97.4159 0.885
97.4462 0.833
97.4765 1.146
97.5068 1.042
97.5371 0.781
97.5673 1.406
97.5976 0.937
97.6279 0.990
97.6582 0.990
97.6884 1.562
97.7187 0.729
97.7490 0.937
97.7793 0.937
97.8096 1.458
97.8398 1.094
97.8701 1.094
97.9004 1.354
97.9307 1.302
97.9610 0.990
97.9912 0.833
98.0215 1.302
98.0518 1.198
98.0821 1.875
98.1123 0.990
98.1426 1.354
98.1729 1.458
98.2032 1.042
98.2335 1.510
98.2637 1.250
98.2940 1.302
98.3243 1.302
98.3546 1.250
98.3849 1.510
98.4151 1.198
98.4454 1.615
98.4757 0.885
98.5060 0.937
98.5362 1.094
98.5665 1.302
98.5968 1.406
98.6271 1.562
98.6574 0.937
98.6876 1.094
98.7179 1.562
98.7482 1.302
98.7785 1.302
98.8088 0.885
98.8390 1.302
98.8693 0.625
98.8996 0.990
98.9299 1.198
98.9601 1.302
98.9904 0.885
99.0207 1.146
99.0510 1.198
99.0813 1.354
99.1115 0.885
99.1418 0.781
99.1721 0.781
99.2024 0.833
99.2327 1.302
99.2629 1.198
99.2932 1.042
99.3235 1.458
99.3538 1.042
99.3841 1.354
99.4143 0.885
99.4446 1.719
99.4749 0.990
99.5052 1.250
99.5354 1.198
99.5657 0.781
99.5960 1.250
99.6263 1.302
99.6566 0.729
99.6868 1.094
99.7171 1.146
99.7474 1.042
99.7777 1.354
99.8080 0.937
99.8382 0.990
99.8685 1.250
99.8988 0.937
99.9291 1.146
99.9593 0.885
99.9896 1.354
100.0199 1.094
100.0502 0.781
100.0805 1.042
100.1107 1.354
100.1410 0.781
100.1713 0.521
100.2016 0.885
100.2319 1.094
100.2621 1.250
100.2924 0.885
100.3227 1.302
100.3530 0.365
100.3832 0.781
100.4135 0.990
100.4438 0.729
100.4741 0.990
100.5044 1.198
100.5346 1.094
100.5649 1.094
100.5952 1.042
100.6255 0.781
100.6558 1.146
100.6860 1.146
100.7163 1.354
100.7466 0.885
100.7769 0.885
100.8071 1.094
100.8374 1.094
100.8677 1.198
100.8980 1.094
100.9283 1.042
100.9585 1.562
100.9888 1.094
101.0191 1.198
101.0494 0.990
101.0797 1.615
101.1099 0.781
101.1402 1.302
101.1705 1.146
101.2008 1.198
101.2310 1.094
101.2613 1.146
101.2916 0.573
101.3219 1.042
101.3522 1.042
101.3824 1.042
101.4127 0.781
101.4430 1.250
101.4733 1.510
101.5036 0.781
101.5338 0.729
101.5641 0.990
101.5944 0.833
101.6247 1.146
101.6549 0.833
101.6852 1.198
101.7155 1.250
101.7458 0.677
101.7761 0.937
101.8063 0.990
101.8366 1.250
101.8669 1.198
101.8972 1.302
101.9275 1.354
101.9577 1.094
101.9880 0.937
102.0183 0.781
102.0486 1.094
102.0788 1.250
102.1091 0.937
102.1394 1.458
102.1697 1.406
102.2000 0.677
102.2302 1.094
102.2605 1.562
102.2908 0.937
102.3211 0.990
102.3514 1.198
102.3816 1.354
102.4119 0.833
102.4422 1.458
102.4725 1.667
102.5028 1.354
102.5330 1.094
102.5633 1.146
102.5936 0.885
102.6239 0.937
102.6541 1.094
102.6844 1.198
102.7147 1.094
102.7450 1.458
102.7753 1.354
102.8055 1.094
102.8358 1.198
102.8661 1.458
102.8964 0.833
102.9267 1.927
102.9569 1.510
102.9872 1.615
103.0175 1.302
103.0478 1.042
103.0780 1.198
103.1083 1.406
103.1386 0.833
103.1689 0.937
103.1992 0.990
103.2294 1.094
103.2597 0.990
103.2900 1.042
103.3203 1.042
103.3506 1.094
103.3808 1.302
103.4111 1.458
103.4414 1.250
103.4717 1.354
103.5019 1.354
103.5322 1.615
103.5625 1.562
103.5928 1.458
103.6231 1.354
103.6533 1.406
103.6836 1.146
103.7139 1.771
103.7442 1.302
103.7745 1.094
103.8047 1.198
103.8350 1.354
103.8653 1.406
103.8956 1.146
103.9258 0.885
103.9561 0.729
103.9864 1.302
104.0167 1.458
104.0470 1.198
104.0772 1.146
104.1075 1.250
104.1378 1.198
104.1681 0.833
104.1984 1.302
104.2286 1.146
104.2589 1.042
104.2892 0.885
104.3195 1.146
104.3497 1.198
104.3800 0.781
104.4103 1.198
104.4406 1.250
104.4709 0.937
104.5011 0.833
104.5314 1.406
104.5617 0.833
104.5920 1.302
104.6223 1.406
104.6525 0.833
104.6828 1.198
104.7131 0.990
104.7434 1.094
104.7736 1.146
104.8039 1.094
104.8342 0.990
104.8645 1.146
104.8948 0.990
104.9250 1.250
104.9553 1.094
104.9856 1.198
105.0159 1.042
105.0462 1.094
105.0764 1.354
105.1067 0.990
105.1370 0.677
105.1673 0.833
105.1975 1.406
105.2278 1.042
105.2581 0.833
105.2884 1.094
105.3187 0.937
105.3489 1.042
105.3792 0.990
105.4095 1.458
105.4398 1.354
105.4701 0.833
105.5003 0.937
105.5306 1.042
105.5609 0.729
105.5912 1.354
105.6215 0.677
105.6517 0.990
105.6820 0.990
105.7123 0.990
105.7426 0.833
105.7728 1.198
105.8031 0.885
105.8334 0.990
105.8637 1.458
105.8940 0.885
105.9242 0.885
105.9545 1.198
105.9848 0.833
106.0151 0.990
106.0454 0.625
106.0756 0.729
106.1059 0.990
106.1362 1.042
106.1665 0.990
106.1967 0.677
106.2270 0.833
106.2573 1.302
106.2876 1.094
106.3179 0.677
106.3481 1.354
106.3784 0.937
106.4087 0.781
106.4390 1.302
106.4693 1.042
106.4995 1.406
106.5298 0.937
106.5601 1.458
106.5904 0.573
106.6206 1.146
106.6509 1.094
106.6812 0.885
106.7115 0.833
106.7418 0.625
106.7720 0.990
106.8023 1.354
106.8326 0.885
106.8629 1.094
106.8932 0.990
106.9234 0.885
106.9537 0.937
106.9840 1.406
107.0143 0.885
107.0445 0.990
107.0748 0.885
107.1051 1.198
107.1354 0.885
107.1657 1.146
107.1959 1.042
107.2262 0.885
107.2565 0.990
107.2868 1.198
107.3171 0.937
107.3473 0.833
107.3776 1.146
107.4079 1.354
107.4382 1.094
107.4684 0.885
107.4987 0.677
107.5290 1.354
107.5593 0.833
107.5896 1.302
107.6198 1.146
107.6501 0.990
107.6804 1.094
107.7107 1.146
107.7410 0.833
107.7712 0.937
107.8015 1.406
107.8318 0.885
107.8621 0.885
107.8923 0.885
107.9226 0.937
107.9529 1.667
107.9832 0.677
108.0135 0.781
108.0437 0.885
108.0740 1.510
108.1043 1.354
108.1346 0.833
108.1649 1.510
108.1951 1.146
108.2254 1.094
108.2557 1.042
108.2860 1.406
108.3163 1.406
108.3465 1.458
108.3768 1.562
108.4071 1.198
108.4374 1.354
108.4676 1.146
108.4979 1.198
108.5282 1.302
108.5585 1.250
108.5888 1.146
108.6190 0.937
108.6493 1.094
108.6796 0.833
108.7099 1.146
108.7402 1.146
108.7704 1.250
108.8007 1.042
108.8310 1.146
108.8613 1.406
108.8915 1.042
108.9218 0.937
108.9521 0.990
108.9824 1.198
109.0127 0.937
109.0429 1.302
109.0732 1.302
109.1035 1.146
109.1338 0.937
109.1641 0.990
109.1943 1.198
109.2246 0.937
109.2549 1.198
109.2852 1.198
109.3154 1.458
109.3457 0.885
109.3760 1.198
109.4063 1.146
109.4366 1.094
109.4668 1.198
109.4971 1.250
109.5274 1.094
109.5577 1.094
109.5880 1.094
109.6182 1.354
109.6485 1.406
109.6788 1.094
109.7091 1.250
109.7393 1.302
109.7696 1.094
109.7999 1.510
109.8302 1.042
109.8605 0.937
109.8907 1.458
109.9210 0.937
109.9513 1.562
109.9816 1.510
110.0119 1.667
110.0421 1.406
110.0724 1.302
110.1027 1.302
110.1330 1.302
110.1632 1.458
110.1935 1.562
110.2238 1.406
110.2541 1.198
110.2844 1.875
110.3146 1.562
110.3449 1.250
110.3752 1.406
110.4055 1.562
110.4358 1.302
110.4660 0.937
110.4963 1.042
110.5266 1.198
110.5569 1.094
110.5871 1.250
110.6174 1.458
110.6477 1.302
110.6780 0.729
110.7083 0.885
110.7385 1.042
110.7688 1.406
110.7991 0.990
110.8294 1.146
110.8597 1.198
110.8899 0.990
110.9202 1.042
110.9505 1.198
110.9808 0.833
111.0110 1.094
111.0413 0.990
111.0716 1.406
111.1019 1.615
111.1322 1.042
111.1624 0.990
111.1927 1.042
111.2230 0.990
111.2533 0.990
111.2836 0.937
111.3138 1.302
111.3441 1.042
111.3744 0.990
111.4047 1.406
111.4350 0.885
111.4652 0.417
111.4955 0.885
111.5258 1.094
111.5561 0.625
111.5863 0.937
111.6166 1.198
111.6469 1.042
111.6772 0.990
111.7075 1.510
111.7377 1.094
111.7680 1.198
111.7983 0.885
111.8286 1.406
111.8589 1.250
111.8891 0.677
111.9194 0.990
111.9497 1.250
111.9800 0.833
112.0102 0.729
112.0405 0.521
112.0708 1.458
112.1011 1.042
112.1314 1.146
112.1616 0.885
112.1919 0.990
112.2222 0.729
112.2525 1.198
112.2828 0.885
112.3130 1.042
112.3433 0.729
112.3736 0.729
112.4039 0.885
112.4341 1.302
112.4644 0.833
112.4947 1.146
112.5250 1.250
112.5553 1.354
112.5855 0.833
112.6158 0.677
112.6461 0.833
112.6764 1.042
112.7067 1.354
112.7369 0.885
112.7672 0.573
112.7975 1.198
112.8278 1.250
112.8580 0.937
112.8883 0.937
112.9186 0.833
112.9489 1.198
112.9792 0.781
113.0094 0.937
113.0397 1.406
113.0700 1.042
113.1003 1.719
113.1306 1.094
113.1608 1.094
113.1911 1.042
113.2214 1.094
113.2517 1.198
113.2819 0.781
113.3122 1.250
113.3425 0.885
113.3728 1.302
113.4031 0.937
113.4333 0.781
113.4636 1.042
113.4939 1.146
113.5242 1.510
113.5545 1.146
113.5847 1.302
113.6150 1.042
113.6453 1.042
113.6756 0.885
113.7058 1.146
113.7361 1.042
113.7664 1.302
113.7967 1.146
113.8270 1.042
113.8572 1.354
113.8875 0.990
113.9178 1.198
113.9481 1.250
113.9784 0.937
114.0086 0.885
114.0389 1.250
114.0692 0.677
114.0995 1.146
114.1298 1.042
114.1600 0.885
114.1903 0.937
114.2206 1.094
114.2509 1.094
114.2811 1.042
114.3114 1.302
114.3417 0.677
114.3720 0.937
114.4023 1.302
114.4325 1.302
114.4628 1.458
114.4931 0.729
114.5234 1.146
114.5537 1.146
114.5839 1.146
114.6142 1.562
114.6445 1.094
114.6748 1.250
114.7050 1.042
114.7353 1.354
114.7656 0.885
114.7959 1.146
114.8262 0.937
114.8564 1.562
114.8867 1.302
114.9170 0.677
114.9473 1.094
114.9776 1.458
115.0078 1.510
115.0381 1.198
115.0684 1.094
115.0987 0.781
115.1289 1.250
115.1592 0.833
115.1895 1.094
115.2198 0.781
115.2501 1.458
115.2803 1.302
115.3106 1.042
115.3409 1.302
115.3712 1.354
115.4015 1.354
115.4317 1.302
115.4620 1.458
115.4923 0.990
115.5226 1.510
115.5528 1.094
115.5831 1.510
115.6134 1.042
115.6437 1.302
115.6740 1.354
115.7042 1.719
115.7345 1.406
115.7648 1.302
115.7951 1.354
115.8254 1.354
115.8556 1.458
115.8859 1.354
115.9162 1.458
115.9465 1.719
115.9767 1.771
116.0070 2.031
116.0373 1.719
116.0676 1.562
116.0979 1.198
116.1281 1.562
116.1584 0.885
116.1887 2.083
116.2190 1.250
116.2493 1.302
116.2795 1.719
116.3098 1.771
116.3401 1.562
116.3704 1.458
116.4006 1.458
116.4309 1.302
116.4612 1.875
116.4915 1.615
116.5218 1.094
116.5520 1.667
116.5823 1.667
116.6126 1.771
116.6429 1.667
116.6732 1.458
116.7034 1.458
116.7337 1.406
116.7640 1.771
116.7943 1.562
116.8245 1.250
116.8548 1.458
116.8851 1.250
116.9154 1.823
116.9457 1.615
116.9759 1.406
117.0062 1.094
117.0365 1.250
117.0668 1.250
117.0971 1.615
117.1273 1.562
117.1576 1.875
117.1879 1.250
117.2182 1.302
117.2485 1.094
117.2787 1.302
117.3090 0.990
117.3393 1.146
117.3696 1.406
117.3998 1.042
117.4301 1.510
117.4604 1.615
117.4907 1.198
117.5210 1.198
117.5512 0.885
117.5815 1.406
117.6118 1.354
117.6421 1.250
117.6724 1.250
117.7026 1.354
117.7329 0.781
117.7632 1.250
117.7935 1.302
117.8237 1.406
117.8540 1.094
117.8843 1.823
117.9146 1.094
117.9449 1.354
117.9751 0.937
118.0054 1.458
118.0357 1.510
118.0660 1.198
118.0963 1.354
118.1265 1.458
118.1568 0.885
118.1871 1.042
118.2174 1.406
118.2476 1.094
118.2779 1.042
118.3082 1.302
118.3385 1.510
118.3688 1.458
118.3990 0.937
118.4293 1.198
118.4596 1.354
118.4899 1.354
118.5202 0.781
118.5504 0.990
118.5807 0.937
118.6110 1.406
118.6413 1.354
118.6715 0.990
118.7018 1.094
118.7321 1.198
118.7624 1.198
118.7927 1.667
118.8229 0.885
118.8532 1.146
118.8835 0.677
118.9138 1.094
118.9441 0.833
118.9743 1.250
119.0046 0.937
119.0349 1.146
119.0652 0.937
119.0954 0.990
119.1257 0.781
119.1560 0.781
119.1863 0.937
119.2166 1.302
119.2468 1.562
119.2771 0.990
119.3074 1.302
119.3377 1.198
119.3680 1.146
119.3982 1.458
119.4285 0.990
119.4588 0.469
119.4891 0.625
119.5193 1.146
119.5496 0.990
119.5799 1.198
119.6102 1.042
119.6405 0.625
119.6707 1.354
119.7010 1.198
119.7313 0.990
119.7616 1.198
119.7919 1.198
119.8221 1.406
119.8524 1.302
119.8827 0.833
119.9130 1.042
119.9433 0.469
119.9735 0.677
120.0038 1.198
