'Id: "" Comment: "" Operator: "Lab Manager" Anode: "Cu" Scantype: "Locked Coupled" TimePerStep: "19.2" X: "9999" Y: "9999" Z: "9999" 
10.0015 21.146
10.0318 18.854
10.0620 17.552
10.0923 16.979
10.1226 14.635
10.1529 15.260
10.1832 13.281
10.2134 12.917
10.2437 13.073
10.2740 11.510
10.3043 11.250
10.3346 11.406
10.3648 10.729
10.3951 9.479
10.4254 9.323
10.4557 7.760
10.4859 7.135
10.5162 7.812
10.5465 7.812
10.5768 9.740
10.6071 7.917
10.6373 7.448
10.6676 8.021
10.6979 8.698
10.7282 9.271
10.7585 9.479
10.7887 9.010
10.8190 8.177
10.8493 10.208
10.8796 10.937
10.9098 11.979
10.9401 12.344
10.9704 16.198
11.0007 13.854
11.0310 14.167
11.0612 14.948
11.0915 13.385
11.1218 13.854
11.1521 13.750
11.1824 11.667
11.2126 14.219
11.2429 14.010
11.2732 15.052
11.3035 17.917
11.3337 19.375
11.3640 29.635
11.3943 35.052
11.4246 46.771
11.4549 62.396
11.4851 68.437
11.5154 75.990
11.5457 73.802
11.5760 72.552
11.6063 62.396
11.6365 53.958
11.6668 42.448
11.6971 34.167
11.7274 29.635
11.7577 27.604
11.7879 25.573
11.8182 21.823
11.8485 21.042
11.8788 18.229
11.9090 16.875
11.9393 14.219
11.9696 13.906
11.9999 13.125
12.0302 10.729
12.0604 9.323
12.0907 11.042
12.1210 7.760
12.1513 8.750
12.1816 8.125
12.2118 6.042
12.2421 7.865
12.2724 5.781
12.3027 5.312
12.3329 6.250
12.3632 5.208
12.3935 4.271
12.4238 5.156
12.4541 5.104
12.4843 5.156
12.5146 4.635
12.5449 4.740
12.5752 4.375
12.6055 4.427
12.6357 3.750
12.6660 4.792
12.6963 3.385
12.7266 3.698
12.7568 3.854
12.7871 3.542
12.8174 3.646
12.8477 3.594
12.8780 3.750
12.9082 3.958
12.9385 4.323
12.9688 4.167
12.9991 3.542
13.0294 4.323
13.0596 4.167
13.0899 3.958
13.1202 4.479
13.1505 4.167
13.1807 3.802
13.2110 4.115
13.2413 3.854
13.2716 3.854
13.3019 3.437
13.3321 3.802
13.3624 4.167
13.3927 4.844
13.4230 4.740
13.4533 3.385
13.4835 3.437
13.5138 3.490
13.5441 3.906
13.5744 3.854
13.6046 3.437
13.6349 3.802
13.6652 2.865
13.6955 3.802
13.7258 3.437
13.7560 2.708
13.7863 3.229
13.8166 3.021
13.8469 3.385
13.8772 3.385
13.9074 3.073
13.9377 4.635
13.9680 3.385
13.9983 3.177
14.0285 3.073
14.0588 2.969
14.0891 3.229
14.1194 3.281
14.1497 3.437
14.1799 3.490
14.2102 2.760
14.2405 3.073
14.2708 3.125
14.3011 3.594
14.3313 4.687
14.3616 3.542
14.3919 3.646
14.4222 3.750
14.4524 3.646
14.4827 4.531
14.5130 3.750
14.5433 4.375
14.5736 5.417
14.6038 5.156
14.6341 5.885
14.6644 5.677
14.6947 5.208
14.7250 5.885
14.7552 6.823
14.7855 5.885
14.8158 5.937
14.8461 6.875
14.8764 6.510
14.9066 4.687
14.9369 6.458
14.9672 5.312
14.9975 5.573
15.0277 3.750
15.0580 4.687
15.0883 4.531
15.1186 4.375
15.1489 5.312
15.1791 3.177
15.2094 3.542
15.2397 3.958
15.2700 2.969
15.3003 3.854
15.3305 3.490
15.3608 2.969
15.3911 3.542
15.4214 3.281
15.4516 3.333
15.4819 3.229
15.5122 3.177
15.5425 3.125
15.5728 2.604
15.6030 2.812
15.6333 2.708
15.6636 2.812
15.6939 2.396
15.7242 3.073
15.7544 2.500
15.7847 3.177
15.8150 3.021
15.8453 2.292
15.8755 3.177
15.9058 2.812
15.9361 2.500
15.9664 3.385
15.9967 2.552
16.0269 2.344
16.0572 3.125
16.0875 2.865
16.1178 2.448
16.1481 2.604
16.1783 3.021
16.2086 2.708
16.2389 1.875
16.2692 2.708
16.2994 2.187
16.3297 2.500
16.3600 2.760
16.3903 3.333
16.4206 2.865
16.4508 2.708
16.4811 2.240
16.5114 1.979
16.5417 2.135
16.5720 2.500
16.6022 2.448
16.6325 3.229
16.6628 2.083
16.6931 3.021
16.7233 2.604
16.7536 2.917
16.7839 2.656
16.8142 3.281
16.8445 2.500
16.8747 3.333
16.9050 3.906
16.9353 2.760
16.9656 2.552
16.9959 2.812
17.0261 3.021
17.0564 2.865
17.0867 3.021
17.1170 2.292
17.1472 3.594
17.1775 2.396
17.2078 3.021
17.2381 2.656
17.2684 2.187
17.2986 2.969
17.3289 1.979
17.3592 2.448
17.3895 2.292
17.4198 2.396
17.4500 2.812
17.4803 2.187
17.5106 2.187
17.5409 2.448
17.5712 2.240
17.6014 2.031
17.6317 2.604
17.6620 2.448
17.6923 2.031
17.7225 2.760
17.7528 2.187
17.7831 1.771
17.8134 2.396
17.8437 2.448
17.8739 2.135
17.9042 2.969
17.9345 2.292
17.9648 2.760
17.9951 2.760
18.0253 2.083
18.0556 1.927
18.0859 2.187
18.1162 2.187
18.1464 2.865
18.1767 1.979
18.2070 2.448
18.2373 2.292
18.2676 2.396
18.2978 2.292
18.3281 2.500
18.3584 2.396
18.3887 1.510
18.4190 2.396
18.4492 1.302
18.4795 2.865
18.5098 2.083
18.5401 2.604
18.5703 2.396
18.6006 2.135
18.6309 2.240
18.6612 1.823
18.6915 2.604
18.7217 1.875
18.7520 2.812
18.7823 2.187
18.8126 2.031
18.8429 2.240
18.8731 2.604
18.9034 2.396
18.9337 2.083
18.9640 2.344
18.9942 2.344
19.0245 2.500
19.0548 1.979
19.0851 1.458
19.1154 1.979
19.1456 2.083
19.1759 2.292
19.2062 1.927
19.2365 2.292
19.2668 2.448
19.2970 2.240
19.3273 3.021
19.3576 1.771
19.3879 1.927
19.4181 2.865
19.4484 1.823
19.4787 3.177
19.5090 1.719
19.5393 1.615
19.5695 1.771
19.5998 1.875
19.6301 2.240
19.6604 2.396
19.6907 2.865
19.7209 2.083
19.7512 2.240
19.7815 2.240
19.8118 2.083
19.8420 2.031
19.8723 2.240
19.9026 2.760
19.9329 2.708
19.9632 2.344
19.9934 2.708
20.0237 2.812
20.0540 2.448
20.0843 2.135
20.1146 2.187
20.1448 2.812
20.1751 2.552
20.2054 1.875
20.2357 2.083
20.2659 1.875
20.2962 3.698
20.3265 2.031
20.3568 2.604
20.3871 1.927
20.4173 2.031
20.4476 2.344
20.4779 2.344
20.5082 1.771
20.5385 2.448
20.5687 1.979
20.5990 1.562
20.6293 2.083
20.6596 2.240
20.6899 2.396
20.7201 2.083
20.7504 2.135
20.7807 2.448
20.8110 1.823
20.8412 2.552
20.8715 1.927
20.9018 1.510
20.9321 1.719
20.9624 3.021
20.9926 2.187
21.0229 2.135
21.0532 2.292
21.0835 2.708
21.1138 2.135
21.1440 3.229
21.1743 2.760
21.2046 3.698
21.2349 3.333
21.2651 3.542
21.2954 3.073
21.3257 2.448
21.3560 2.656
21.3863 2.448
21.4165 2.135
21.4468 1.354
21.4771 2.135
21.5074 1.719
21.5377 2.604
21.5679 2.396
21.5982 1.979
21.6285 2.240
21.6588 1.875
21.6890 2.135
21.7193 1.458
21.7496 2.344
21.7799 1.771
21.8102 1.979
21.8404 1.615
21.8707 2.031
21.9010 2.083
21.9313 2.396
21.9616 2.552
21.9918 1.667
22.0221 2.187
22.0524 2.500
22.0827 1.979
22.1129 2.135
22.1432 1.927
22.1735 1.771
22.2038 1.562
22.2341 2.083
22.2643 2.448
22.2946 2.292
22.3249 2.083
22.3552 2.292
22.3855 1.875
22.4157 2.344
22.4460 1.927
22.4763 2.448
22.5066 2.240
22.5368 1.875
22.5671 1.771
22.5974 2.187
22.6277 1.979
22.6580 1.667
22.6882 1.875
22.7185 1.615
22.7488 2.552
22.7791 2.031
22.8094 2.500
22.8396 1.771
22.8699 2.552
22.9002 1.979
22.9305 2.031
22.9607 1.823
22.9910 2.396
23.0213 2.656
23.0516 2.500
23.0819 2.448
23.1121 3.177
23.1424 3.125
23.1727 4.740
23.2030 5.833
23.2333 5.156
23.2635 4.844
23.2938 5.625
23.3241 6.146
23.3544 5.885
23.3846 4.896
23.4149 5.312
23.4452 5.937
23.4755 4.792
23.5058 5.260
23.5360 4.271
23.5663 4.896
23.5966 3.802
23.6269 4.427
23.6572 3.490
23.6874 3.125
23.7177 2.292
23.7480 3.385
23.7783 3.490
23.8086 3.125
23.8388 3.333
23.8691 3.542
23.8994 3.229
23.9297 3.490
23.9599 3.646
23.9902 3.437
24.0205 2.604
24.0508 3.490
24.0811 2.812
24.1113 2.396
24.1416 2.500
24.1719 3.229
24.2022 2.500
24.2325 3.854
24.2627 3.333
24.2930 4.062
24.3233 3.750
24.3536 3.437
24.3838 3.437
24.4141 2.344
24.4444 3.073
24.4747 2.812
24.5050 2.865
24.5352 2.656
24.5655 2.865
24.5958 2.969
24.6261 2.812
24.6564 2.917
24.6866 2.656
24.7169 2.812
24.7472 2.760
24.7775 3.125
24.8077 2.552
24.8380 2.708
24.8683 2.135
24.8986 3.333
24.9289 3.333
24.9591 3.281
24.9894 3.021
25.0197 2.865
25.0500 3.125
25.0803 2.917
25.1105 3.125
25.1408 2.969
25.1711 2.865
25.2014 3.021
25.2316 3.073
25.2619 3.073
25.2922 2.083
25.3225 2.812
25.3528 2.812
25.3830 2.708
25.4133 2.969
25.4436 2.344
25.4739 2.083
25.5042 1.875
25.5344 2.500
25.5647 2.552
25.5950 2.448
25.6253 2.031
25.6555 1.979
25.6858 2.656
25.7161 2.135
25.7464 1.562
25.7767 1.979
25.8069 1.979
25.8372 1.875
25.8675 1.875
25.8978 1.979
25.9281 2.083
25.9583 2.448
25.9886 2.448
26.0189 2.292
26.0492 2.083
26.0794 2.292
26.1097 2.031
26.1400 2.552
26.1703 2.500
26.2006 3.854
26.2308 3.750
26.2611 3.594
26.2914 3.750
26.3217 5.000
26.3520 5.469
26.3822 5.000
26.4125 4.531
26.4428 3.906
26.4731 5.260
26.5034 4.740
26.5336 5.365
26.5639 6.094
26.5942 4.896
26.6245 5.000
26.6547 5.573
26.6850 4.583
26.7153 4.062
26.7456 3.594
26.7759 3.229
26.8061 3.490
26.8364 4.427
26.8667 3.854
26.8970 3.646
26.9273 4.427
26.9575 3.698
26.9878 4.844
27.0181 3.802
27.0484 3.698
27.0786 2.969
27.1089 3.385
27.1392 3.333
27.1695 3.073
27.1998 3.802
27.2300 2.760
27.2603 3.177
27.2906 2.656
27.3209 2.083
27.3512 2.187
27.3814 2.812
27.4117 3.281
27.4420 3.802
27.4723 2.396
27.5025 2.760
27.5328 3.073
27.5631 3.437
27.5934 2.917
27.6237 2.656
27.6539 2.500
27.6842 2.552
27.7145 2.917
27.7448 3.125
27.7751 2.917
27.8053 3.437
27.8356 3.177
27.8659 3.490
27.8962 3.802
27.9264 3.125
27.9567 3.698
27.9870 2.344
28.0173 2.917
28.0476 2.604
28.0778 3.333
28.1081 2.604
28.1384 2.031
28.1687 2.135
28.1990 2.812
28.2292 2.448
28.2595 2.708
28.2898 2.083
28.3201 2.448
28.3503 2.500
28.3806 1.979
28.4109 2.344
28.4412 2.708
28.4715 2.865
28.5017 1.823
28.5320 2.135
28.5623 1.875
28.5926 2.396
28.6229 1.823
28.6531 2.344
28.6834 2.031
28.7137 2.240
28.7440 2.187
28.7742 1.719
28.8045 2.448
28.8348 2.187
28.8651 1.875
28.8954 1.771
28.9256 2.344
28.9559 1.771
28.9862 2.240
29.0165 2.083
29.0468 2.760
29.0770 1.823
29.1073 2.500
29.1376 2.135
29.1679 2.031
29.1981 1.823
29.2284 2.031
29.2587 2.187
29.2890 2.083
29.3193 1.615
29.3495 2.865
29.3798 2.031
29.4101 1.719
29.4404 1.927
29.4707 2.448
29.5009 1.875
29.5312 1.510
29.5615 1.667
29.5918 2.187
29.6221 2.083
29.6523 2.396
29.6826 2.187
29.7129 2.500
29.7432 1.875
29.7734 1.667
29.8037 2.292
29.8340 2.083
29.8643 1.719
29.8946 1.875
29.9248 2.031
29.9551 2.812
29.9854 1.615
30.0157 2.812
30.0460 1.927
30.0762 2.708
30.1065 2.292
30.1368 3.385
30.1671 2.500
30.1973 2.083
30.2276 2.344
30.2579 2.708
30.2882 3.177
30.3185 2.760
30.3487 2.604
30.3790 2.552
30.4093 2.083
30.4396 2.448
30.4699 2.604
30.5001 3.490
30.5304 3.125
30.5607 2.917
30.5910 3.073
30.6212 3.125
30.6515 2.865
30.6818 2.917
30.7121 3.542
30.7424 2.760
30.7726 3.594
30.8029 2.917
30.8332 4.479
30.8635 5.208
30.8938 3.958
30.9240 3.802
30.9543 4.896
30.9846 4.792
31.0149 5.469
31.0451 4.687
31.0754 4.531
31.1057 5.885
31.1360 6.771
31.1663 6.875
31.1965 7.656
31.2268 8.177
31.2571 10.208
31.2874 10.104
31.3177 12.083
31.3479 14.375
31.3782 17.604
31.4085 19.167
31.4388 20.677
31.4690 26.510
31.4993 26.562
31.5296 33.854
31.5599 36.354
31.5902 35.677
31.6204 34.896
31.6507 33.229
31.6810 31.719
31.7113 26.875
31.7416 23.385
31.7718 20.000
31.8021 16.354
31.8324 14.635
31.8627 14.167
31.8929 11.615
31.9232 10.990
31.9535 10.052
31.9838 8.854
32.0141 7.500
32.0443 8.437
32.0746 7.500
32.1049 6.042
32.1352 6.667
32.1655 5.885
32.1957 5.833
32.2260 6.094
32.2563 5.000
32.2866 4.896
32.3169 4.792
32.3471 4.583
32.3774 4.635
32.4077 3.958
32.4380 3.802
32.4682 2.604
32.4985 3.594
32.5288 3.021
32.5591 3.594
32.5894 3.750
32.6196 5.365
32.6499 4.792
32.6802 4.792
32.7105 5.312
32.7408 6.510
32.7710 4.792
32.8013 4.531
32.8316 5.052
32.8619 3.854
32.8921 3.281
32.9224 2.917
32.9527 4.062
32.9830 2.604
33.0133 3.698
33.0435 3.281
33.0738 2.552
33.1041 3.177
33.1344 3.281
33.1647 2.656
33.1949 1.979
33.2252 3.698
33.2555 3.281
33.2858 2.656
33.3160 2.500
33.3463 2.187
33.3766 3.385
33.4069 2.708
33.4372 2.812
33.4674 2.292
33.4977 3.125
33.5280 1.771
33.5583 2.812
33.5886 2.760
33.6188 2.604
33.6491 2.344
33.6794 2.708
33.7097 3.385
33.7399 2.708
33.7702 3.073
33.8005 3.177
33.8308 2.344
33.8611 3.281
33.8913 3.750
33.9216 3.594
33.9519 4.167
33.9822 3.073
34.0125 4.948
34.0427 5.573
34.0730 5.885
34.1033 6.979
34.1336 9.271
34.1638 14.219
34.1941 15.625
34.2244 19.687
34.2547 17.917
34.2850 17.240
34.3152 13.958
34.3455 13.281
34.3758 9.948
34.4061 6.927
34.4364 7.708
34.4666 4.792
34.4969 5.208
34.5272 4.375
34.5575 4.010
34.5877 3.906
34.6180 4.740
34.6483 5.000
34.6786 5.052
34.7089 3.958
34.7391 3.802
34.7694 4.375
34.7997 4.740
34.8300 5.052
34.8603 6.667
34.8905 4.792
34.9208 6.042
34.9511 5.573
34.9814 7.083
35.0116 5.729
35.0419 4.271
35.0722 5.208
35.1025 5.052
35.1328 4.219
35.1630 4.740
35.1933 3.437
35.2236 4.531
35.2539 4.010
35.2842 3.385
35.3144 5.729
35.3447 4.479
35.3750 5.000
35.4053 5.104
35.4356 4.635
35.4658 5.729
35.4961 4.635
35.5264 5.521
35.5567 5.885
35.5869 6.771
35.6172 6.771
35.6475 7.135
35.6778 9.062
35.7081 10.781
35.7383 8.802
35.7686 11.250
35.7989 11.667
35.8292 15.990
35.8595 16.354
35.8897 17.865
35.9200 23.385
35.9503 24.531
35.9806 27.760
36.0108 32.656
36.0411 32.552
36.0714 37.708
36.1017 37.656
36.1320 36.146
36.1622 32.292
36.1925 28.854
36.2228 25.990
36.2531 21.042
36.2834 18.542
36.3136 16.562
36.3439 13.229
36.3742 13.385
36.4045 11.406
36.4347 10.573
36.4650 8.646
36.4953 7.656
36.5256 6.823
36.5559 6.458
36.5861 5.156
36.6164 5.625
36.6467 5.937
36.6770 3.594
36.7073 4.323
36.7375 4.479
36.7678 5.156
36.7981 3.750
36.8284 4.115
36.8586 3.333
36.8889 3.594
36.9192 3.437
36.9495 3.229
36.9798 3.802
37.0100 3.021
37.0403 3.073
37.0706 3.021
37.1009 2.656
37.1312 2.448
37.1614 2.917
37.1917 2.812
37.2220 2.760
37.2523 2.187
37.2825 2.083
37.3128 1.927
37.3431 3.125
37.3734 2.865
37.4037 2.135
37.4339 2.292
37.4642 2.604
37.4945 2.344
37.5248 2.604
37.5551 2.135
37.5853 2.500
37.6156 1.979
37.6459 1.823
37.6762 1.823
37.7064 1.823
37.7367 2.500
37.7670 2.292
37.7973 3.073
37.8276 1.979
37.8578 1.927
37.8881 1.562
37.9184 2.240
37.9487 1.354
37.9790 2.240
38.0092 1.615
38.0395 2.083
38.0698 1.823
38.1001 1.875
38.1304 1.823
38.1606 2.396
38.1909 1.562
38.2212 1.458
38.2515 1.667
38.2817 2.135
38.3120 1.771
38.3423 2.448
38.3726 1.667
38.4029 1.823
38.4331 1.562
38.4634 1.771
38.4937 1.771
38.5240 1.927
38.5543 1.198
38.5845 1.406
38.6148 1.250
38.6451 1.042
38.6754 1.406
38.7056 1.615
38.7359 1.406
38.7662 1.927
38.7965 1.615
38.8268 1.042
38.8570 1.562
38.8873 1.302
38.9176 1.458
38.9479 1.354
38.9782 1.250
39.0084 1.094
39.0387 1.198
39.0690 1.562
39.0993 1.406
39.1295 2.031
39.1598 1.667
39.1901 1.146
39.2204 2.031
39.2507 1.562
39.2809 1.771
39.3112 1.198
39.3415 0.990
39.3718 1.927
39.4021 1.458
39.4323 1.562
39.4626 1.562
39.4929 0.833
39.5232 1.458
39.5534 1.510
39.5837 1.927
39.6140 1.458
39.6443 1.510
39.6746 1.094
39.7048 1.354
39.7351 1.042
39.7654 1.042
39.7957 1.146
39.8260 1.250
39.8562 1.198
39.8865 1.198
39.9168 1.198
39.9471 1.615
39.9773 1.302
40.0076 1.562
40.0379 0.885
40.0682 1.250
40.0985 1.198
40.1287 1.302
40.1590 1.458
40.1893 1.302
40.2196 1.406
40.2499 1.250
40.2801 1.667
40.3104 1.875
40.3407 1.458
40.3710 1.458
40.4012 1.510
40.4315 1.823
40.4618 1.354
40.4921 1.406
40.5224 1.667
40.5526 2.865
40.5829 1.979
40.6132 2.135
40.6435 1.667
40.6738 1.927
40.7040 2.448
40.7343 1.615
40.7646 2.240
40.7949 2.604
40.8251 1.979
40.8554 2.135
40.8857 1.823
40.9160 1.562
40.9463 1.875
40.9765 1.406
41.0068 1.354
41.0371 1.354
41.0674 2.031
41.0977 2.135
41.1279 1.146
41.1582 2.292
41.1885 1.146
41.2188 1.615
41.2491 1.927
41.2793 1.042
41.3096 1.042
41.3399 2.187
41.3702 1.458
41.4004 1.302
41.4307 1.562
41.4610 1.250
41.4913 1.354
41.5216 1.667
41.5518 1.510
41.5821 1.406
41.6124 1.354
41.6427 1.719
41.6730 2.083
41.7032 1.198
41.7335 1.562
41.7638 1.302
41.7941 1.406
41.8243 0.990
41.8546 1.458
41.8849 0.990
41.9152 0.937
41.9455 1.354
41.9757 1.458
42.0060 1.354
42.0363 1.354
42.0666 1.771
42.0969 1.302
42.1271 1.146
42.1574 1.146
42.1877 1.198
42.2180 1.458
42.2482 0.677
42.2785 1.250
42.3088 1.615
42.3391 1.510
42.3694 1.094
42.3996 0.937
42.4299 1.302
42.4602 1.302
42.4905 1.250
42.5208 1.302
42.5510 0.729
42.5813 1.094
42.6116 1.875
42.6419 1.042
42.6721 1.406
42.7024 1.562
42.7327 0.990
42.7630 1.458
42.7933 1.198
42.8235 1.042
42.8538 0.833
42.8841 1.198
42.9144 1.146
42.9447 1.146
42.9749 1.250
43.0052 1.667
43.0355 1.094
43.0658 0.990
43.0960 1.510
43.1263 1.875
43.1566 1.250
43.1869 1.250
43.2172 0.625
43.2474 1.510
43.2777 1.406
43.3080 1.354
43.3383 1.198
43.3686 1.406
43.3988 1.354
43.4291 1.094
43.4594 1.094
43.4897 1.250
43.5199 1.562
43.5502 1.198
43.5805 1.771
43.6108 1.146
43.6411 1.615
43.6713 1.562
43.7016 0.781
43.7319 1.042
43.7622 0.990
43.7925 1.146
43.8227 0.885
43.8530 0.625
43.8833 1.094
43.9136 0.781
43.9439 0.990
43.9741 0.729
44.0044 1.094
44.0347 0.833
44.0650 0.937
44.0952 0.937
44.1255 1.146
44.1558 1.458
44.1861 1.042
44.2164 1.094
44.2466 1.302
44.2769 1.771
44.3072 1.719
44.3375 1.250
44.3678 1.354
44.3980 1.458
44.4283 1.406
44.4586 0.990
44.4889 1.562
44.5191 1.354
44.5494 1.875
44.5797 1.667
44.6100 1.510
44.6403 1.198
44.6705 1.146
44.7008 1.927
44.7311 1.354
44.7614 1.719
44.7917 1.667
44.8219 1.562
44.8522 1.458
44.8825 2.135
44.9128 1.354
44.9430 1.562
44.9733 1.094
45.0036 1.615
45.0339 1.250
45.0642 1.302
45.0944 1.615
45.1247 1.302
45.1550 1.719
45.1853 1.615
45.2156 1.719
45.2458 1.406
45.2761 1.667
45.3064 1.510
45.3367 1.354
45.3669 1.250
45.3972 1.562
45.4275 0.937
45.4578 0.833
45.4881 1.198
45.5183 0.885
45.5486 1.615
45.5789 1.302
45.6092 1.042
45.6395 1.354
45.6697 1.250
45.7000 1.510
45.7303 1.875
45.7606 1.094
45.7908 0.521
45.8211 1.146
45.8514 1.250
45.8817 0.937
45.9120 1.146
45.9422 1.562
45.9725 1.146
46.0028 1.042
46.0331 1.250
46.0634 1.562
46.0936 1.302
46.1239 1.406
46.1542 1.510
46.1845 1.250
46.2147 2.083
46.2450 1.510
46.2753 1.406
46.3056 2.135
46.3359 1.510
46.3661 1.823
46.3964 1.302
46.4267 1.406
46.4570 1.979
46.4873 1.250
46.5175 1.250
46.5478 1.042
46.5781 1.875
46.6084 1.510
46.6386 2.031
46.6689 1.510
46.6992 1.615
46.7295 1.719
46.7598 2.187
46.7900 1.510
46.8203 1.927
46.8506 2.396
46.8809 1.927
46.9112 1.510
46.9414 2.187
46.9717 1.927
47.0020 2.344
47.0323 2.344
47.0626 2.865
47.0928 2.083
47.1231 2.708
47.1534 2.448
47.1837 3.437
47.2139 3.750
47.2442 3.750
47.2745 3.385
47.3048 4.427
47.3351 4.219
47.3653 4.740
47.3956 4.271
47.4259 3.906
47.4562 4.583
47.4865 3.490
47.5167 3.125
47.5470 3.021
47.5773 2.656
47.6076 2.552
47.6378 3.594
47.6681 2.969
47.6984 2.240
47.7287 2.135
47.7590 2.760
47.7892 2.292
47.8195 2.500
47.8498 2.396
47.8801 2.031
47.9104 2.448
47.9406 1.771
47.9709 1.510
48.0012 2.240
48.0315 2.344
48.0617 2.604
48.0920 2.083
48.1223 1.875
48.1526 1.927
48.1829 1.406
48.2131 2.135
48.2434 1.927
48.2737 1.719
48.3040 1.927
48.3343 1.615
48.3645 1.615
48.3948 1.510
48.4251 1.615
48.4554 1.771
48.4856 2.135
48.5159 1.354
48.5462 1.719
48.5765 2.031
48.6068 1.667
48.6370 1.354
48.6673 1.667
48.6976 2.083
48.7279 1.719
48.7582 1.927
48.7884 1.771
48.8187 2.135
48.8490 2.187
48.8793 2.240
48.9095 2.760
48.9398 2.031
48.9701 2.344
49.0004 1.927
49.0307 2.031
49.0609 1.927
49.0912 2.187
49.1215 2.187
49.1518 2.604
49.1821 2.708
49.2123 2.344
49.2426 2.031
49.2729 2.552
49.3032 2.031
49.3334 1.458
49.3637 1.667
49.3940 1.615
49.4243 2.552
49.4546 1.771
49.4848 1.615
49.5151 2.344
49.5454 2.187
49.5757 1.667
49.6060 1.823
49.6362 1.406
49.6665 1.823
49.6968 1.823
49.7271 1.667
49.7574 1.875
49.7876 1.875
49.8179 2.083
49.8482 1.510
49.8785 1.979
49.9087 1.927
49.9390 1.615
49.9693 1.667
49.9996 2.240
50.0299 1.771
50.0601 1.562
50.0904 1.562
50.1207 2.083
50.1510 1.667
50.1813 1.354
50.2115 1.250
50.2418 1.458
50.2721 1.354
50.3024 1.771
50.3326 1.354
50.3629 1.042
50.3932 1.146
50.4235 1.042
50.4538 1.042
50.4840 1.458
50.5143 1.250
50.5446 1.927
50.5749 0.885
50.6052 1.302
50.6354 1.615
50.6657 1.667
50.6960 1.667
50.7263 1.667
50.7565 1.250
50.7868 1.562
50.8171 1.302
50.8474 1.510
50.8777 1.198
50.9079 1.510
50.9382 1.042
50.9685 1.615
50.9988 1.250
51.0291 1.250
51.0593 1.458
51.0896 1.458
51.1199 1.406
51.1502 1.354
51.1804 1.354
51.2107 1.510
51.2410 0.990
51.2713 1.406
51.3016 1.198
51.3318 1.042
51.3621 1.198
51.3924 1.354
51.4227 1.146
51.4530 1.094
51.4832 1.406
51.5135 1.667
51.5438 1.458
51.5741 1.250
51.6043 1.250
51.6346 1.667
51.6649 2.031
51.6952 1.562
51.7255 1.198
51.7557 1.667
51.7860 1.771
51.8163 1.875
51.8466 1.198
51.8769 1.354
51.9071 1.562
51.9374 1.615
51.9677 1.875
51.9980 1.146
52.0282 1.667
52.0585 1.406
52.0888 1.771
52.1191 0.885
52.1494 1.719
52.1796 1.094
52.2099 1.510
52.2402 1.302
52.2705 1.198
52.3008 1.146
52.3310 1.042
52.3613 1.146
52.3916 1.198
52.4219 1.146
52.4521 1.146
52.4824 1.719
52.5127 1.354
52.5430 0.990
52.5733 1.615
52.6035 1.302
52.6338 1.510
52.6641 0.729
52.6944 1.615
52.7247 1.771
52.7549 1.406
52.7852 1.250
52.8155 1.354
52.8458 1.510
52.8761 1.562
52.9063 1.250
52.9366 0.990
52.9669 1.510
52.9972 1.198
53.0274 0.937
53.0577 1.667
53.0880 1.198
53.1183 1.406
53.1486 1.406
53.1788 1.719
53.2091 1.615
53.2394 1.406
53.2697 1.771
53.3000 1.198
53.3302 1.406
53.3605 1.458
53.3908 0.833
53.4211 1.198
53.4513 1.094
53.4816 1.250
53.5119 1.250
53.5422 0.990
53.5725 1.979
53.6027 1.198
53.6330 1.250
53.6633 1.198
53.6936 1.302
53.7239 1.354
53.7541 1.094
53.7844 1.094
53.8147 1.094
53.8450 1.094
53.8752 1.094
53.9055 1.198
53.9358 1.510
53.9661 1.302
53.9964 1.094
54.0266 1.302
54.0569 1.198
54.0872 0.937
54.1175 1.250
54.1478 1.510
54.1780 1.354
54.2083 1.354
54.2386 1.562
54.2689 1.094
54.2991 1.094
54.3294 1.146
54.3597 1.094
54.3900 1.510
54.4203 1.250
54.4505 1.250
54.4808 1.302
54.5111 1.562
54.5414 1.719
54.5717 1.146
54.6019 1.302
54.6322 0.781
54.6625 1.250
54.6928 1.302
54.7230 1.146
54.7533 1.667
54.7836 1.406
54.8139 1.198
54.8442 1.927
54.8744 1.354
54.9047 1.302
54.9350 1.719
54.9653 0.885
54.9956 1.615
55.0258 1.510
55.0561 1.406
55.0864 1.094
55.1167 1.198
55.1469 1.302
55.1772 0.937
55.2075 1.719
55.2378 1.771
55.2681 1.667
55.2983 1.979
55.3286 1.042
55.3589 1.615
55.3892 1.615
55.4195 1.771
55.4497 1.094
55.4800 1.667
55.5103 1.927
55.5406 1.354
55.5709 1.667
55.6011 2.083
55.6314 1.250
55.6617 1.562
55.6920 1.823
55.7222 2.240
55.7525 1.510
55.7828 1.771
55.8131 2.396
55.8434 1.719
55.8736 2.865
55.9039 2.865
55.9342 3.333
55.9645 3.125
55.9948 2.865
56.0250 3.385
56.0553 3.646
56.0856 3.646
56.1159 5.104
56.1461 5.573
56.1764 5.885
56.2067 6.927
56.2370 7.448
56.2673 8.646
56.2975 9.271
56.3278 9.792
56.3581 9.687
56.3884 10.677
56.4187 10.833
56.4489 11.198
56.4792 11.146
56.5095 9.635
56.5398 10.885
56.5700 9.427
56.6003 8.021
56.6306 7.969
56.6609 5.937
56.6912 5.625
56.7214 5.781
56.7517 5.156
56.7820 4.479
56.8123 4.115
56.8426 3.594
56.8728 2.292
56.9031 2.969
56.9334 3.437
56.9637 2.292
56.9939 2.292
57.0242 2.187
57.0545 2.031
57.0848 1.510
57.1151 1.667
57.1453 1.406
57.1756 1.927
57.2059 1.875
57.2362 2.031
57.2665 1.823
57.2967 1.771
57.3270 1.823
57.3573 1.302
57.3876 1.562
57.4178 0.990
57.4481 1.458
57.4784 1.615
57.5087 1.458
57.5390 0.990
57.5692 1.667
57.5995 1.302
57.6298 1.146
57.6601 1.667
57.6904 0.990
57.7206 1.406
57.7509 1.458
57.7812 0.990
57.8115 1.667
57.8417 1.510
57.8720 0.625
57.9023 1.615
57.9326 1.198
57.9629 1.198
57.9931 1.250
58.0234 1.198
58.0537 1.406
58.0840 0.937
58.1143 1.458
58.1445 1.458
58.1748 0.990
58.2051 1.094
58.2354 1.667
58.2656 1.198
58.2959 1.562
58.3262 0.885
58.3565 1.094
58.3868 1.406
58.4170 1.719
58.4473 1.562
58.4776 1.302
58.5079 1.302
58.5382 2.187
58.5684 1.615
58.5987 2.083
58.6290 1.510
58.6593 1.354
58.6896 1.406
58.7198 1.562
58.7501 1.667
58.7804 1.146
58.8107 0.937
58.8409 1.979
58.8712 1.562
58.9015 1.406
58.9318 1.406
58.9621 1.146
58.9923 0.990
59.0226 1.458
59.0529 1.146
59.0832 1.510
59.1135 1.719
59.1437 1.094
59.1740 0.990
59.2043 1.667
59.2346 1.875
59.2648 1.302
59.2951 1.458
59.3254 1.562
59.3557 1.719
59.3860 1.354
59.4162 1.510
59.4465 0.937
59.4768 1.719
59.5071 1.719
59.5374 1.562
59.5676 1.146
59.5979 1.719
59.6282 1.562
59.6585 1.458
59.6887 1.458
59.7190 1.615
59.7493 1.510
59.7796 1.146
59.8099 0.885
59.8401 1.250
59.8704 1.510
59.9007 1.927
59.9310 1.354
59.9613 1.615
59.9915 1.719
60.0218 1.719
60.0521 2.396
60.0824 1.979
60.1126 1.562
60.1429 2.031
60.1732 1.719
60.2035 1.094
60.2338 1.823
60.2640 1.510
60.2943 1.771
60.3246 1.406
60.3549 1.979
60.3852 1.354
60.4154 1.458
60.4457 0.833
60.4760 1.042
60.5063 1.354
60.5365 0.885
60.5668 1.719
60.5971 1.302
60.6274 1.510
60.6577 1.823
60.6879 1.146
60.7182 1.094
60.7485 1.354
60.7788 1.094
60.8091 1.615
60.8393 1.250
60.8696 1.406
60.8999 1.146
60.9302 1.250
60.9604 1.562
60.9907 1.146
61.0210 1.094
61.0513 1.198
61.0816 1.406
61.1118 1.458
61.1421 1.458
61.1724 1.719
61.2027 1.458
61.2330 1.458
61.2632 1.458
61.2935 1.198
61.3238 1.250
61.3541 1.458
61.3844 1.250
61.4146 1.458
61.4449 1.042
61.4752 1.458
61.5055 1.615
61.5357 1.458
61.5660 0.990
61.5963 1.458
61.6266 0.937
61.6569 1.146
61.6871 1.771
61.7174 1.250
61.7477 1.198
61.7780 1.458
61.8083 1.302
61.8385 1.458
61.8688 1.562
61.8991 1.875
61.9294 1.458
61.9596 1.198
61.9899 1.250
62.0202 1.146
62.0505 1.771
62.0808 1.615
62.1110 1.719
62.1413 1.510
62.1716 2.083
62.2019 1.927
62.2322 1.667
62.2624 2.135
62.2927 2.396
62.3230 2.604
62.3533 2.604
62.3835 2.917
62.4138 3.073
62.4441 2.448
62.4744 2.812
62.5047 3.698
62.5349 3.750
62.5652 3.698
62.5955 3.698
62.6258 4.062
62.6561 3.646
62.6863 4.792
62.7166 4.167
62.7469 4.531
62.7772 4.271
62.8074 3.854
62.8377 3.281
62.8680 4.219
62.8983 2.865
62.9286 3.125
62.9588 3.073
62.9891 2.240
63.0194 1.979
63.0497 2.135
63.0800 1.979
63.1102 1.667
63.1405 1.510
63.1708 1.719
63.2011 1.250
63.2313 2.187
63.2616 2.292
63.2919 1.302
63.3222 1.510
63.3525 0.833
63.3827 1.146
63.4130 1.771
63.4433 1.719
63.4736 1.719
63.5039 0.937
63.5341 1.406
63.5644 1.302
63.5947 0.937
63.6250 1.719
63.6552 1.094
63.6855 1.719
63.7158 1.094
63.7461 1.302
63.7764 1.302
63.8066 1.562
63.8369 1.250
63.8672 0.885
63.8975 1.198
63.9278 1.458
63.9580 1.198
63.9883 1.146
64.0186 1.510
64.0489 0.833
64.0791 1.250
64.1094 1.042
64.1397 1.250
64.1700 1.042
64.2003 1.042
64.2305 1.354
64.2608 1.250
64.2911 0.833
64.3214 1.094
64.3517 0.833
64.3819 0.625
64.4122 1.094
64.4425 1.250
64.4728 1.198
64.5031 0.833
64.5333 1.510
64.5636 0.833
64.5939 0.833
64.6242 0.990
64.6544 0.937
64.6847 0.885
64.7150 0.833
64.7453 0.833
64.7756 0.937
64.8058 0.937
64.8361 1.354
64.8664 1.354
64.8967 1.094
64.9270 0.833
64.9572 1.094
64.9875 1.198
65.0178 1.146
65.0481 1.250
65.0783 1.042
65.1086 0.990
65.1389 1.250
65.1692 1.094
65.1995 1.250
65.2297 0.990
65.2600 1.302
65.2903 1.146
65.3206 1.354
65.3509 0.781
65.3811 1.615
65.4114 1.094
65.4417 1.042
65.4720 1.042
65.5022 0.833
65.5325 1.562
65.5628 1.094
65.5931 1.615
65.6234 0.990
65.6536 1.302
65.6839 0.729
65.7142 1.146
65.7445 0.990
65.7748 1.354
65.8050 1.615
65.8353 1.354
65.8656 1.354
65.8959 1.615
65.9261 1.927
65.9564 1.198
65.9867 0.937
66.0170 1.823
66.0473 2.187
66.0775 1.771
66.1078 1.771
66.1381 1.510
66.1684 1.354
66.1987 1.979
66.2289 1.875
66.2592 1.510
66.2895 2.031
66.3198 1.562
66.3500 2.031
66.3803 2.552
66.4106 1.875
66.4409 1.094
66.4712 1.562
66.5014 1.927
66.5317 1.615
66.5620 1.927
66.5923 1.875
66.6226 1.406
66.6528 1.875
66.6831 1.458
66.7134 1.823
66.7437 1.354
66.7739 1.302
66.8042 1.146
66.8345 1.198
66.8648 1.094
66.8951 1.667
66.9253 1.146
66.9556 1.094
66.9859 1.198
67.0162 2.031
67.0465 1.458
67.0767 1.302
67.1070 1.771
67.1373 1.198
67.1676 0.990
67.1978 1.406
67.2281 1.927
67.2584 1.875
67.2887 1.719
67.3190 1.875
67.3492 2.344
67.3795 2.135
67.4098 2.500
67.4401 2.552
67.4704 2.396
67.5006 2.760
67.5309 3.802
67.5612 3.281
67.5915 3.437
67.6218 3.750
67.6520 4.010
67.6823 4.531
67.7126 5.573
67.7429 4.323
67.7731 4.271
67.8034 4.792
67.8337 5.052
67.8640 5.312
67.8943 5.312
67.9245 4.635
67.9548 3.958
67.9851 3.021
68.0154 4.115
68.0457 3.073
68.0759 2.865
68.1062 3.958
68.1365 2.187
68.1668 2.760
68.1970 2.344
68.2273 1.979
68.2576 2.396
68.2879 2.240
68.3182 2.031
68.3484 2.187
68.3787 2.240
68.4090 2.031
68.4393 1.927
68.4696 1.667
68.4998 2.292
68.5301 2.031
68.5604 1.875
68.5907 2.448
68.6209 2.083
68.6512 2.500
68.6815 2.917
68.7118 2.448
68.7421 2.187
68.7723 3.281
68.8026 3.177
68.8329 2.969
68.8632 3.437
68.8935 2.656
68.9237 2.969
68.9540 3.906
68.9843 2.917
69.0146 3.073
69.0448 2.344
69.0751 2.812
69.1054 3.437
69.1357 2.708
69.1660 1.927
69.1962 2.135
69.2265 1.771
69.2568 1.667
69.2871 1.510
69.3174 1.458
69.3476 1.042
69.3779 1.198
69.4082 1.719
69.4385 1.562
69.4687 1.042
69.4990 1.250
69.5293 1.302
69.5596 1.042
69.5899 1.146
69.6201 0.937
69.6504 1.615
69.6807 1.510
69.7110 1.302
69.7413 1.042
69.7715 1.146
69.8018 1.302
69.8321 1.250
69.8624 1.667
69.8926 0.990
69.9229 0.833
69.9532 1.094
69.9835 0.937
70.0138 0.781
70.0440 1.615
70.0743 1.198
70.1046 0.677
70.1349 0.990
70.1652 0.990
70.1954 1.094
70.2257 1.094
70.2560 0.833
70.2863 1.146
70.3166 0.781
70.3468 0.729
70.3771 0.885
70.4074 1.094
70.4377 1.250
70.4679 0.781
70.4982 0.885
70.5285 1.146
70.5588 1.094
70.5891 0.833
70.6193 0.781
70.6496 1.198
70.6799 1.042
70.7102 0.677
70.7405 0.781
70.7707 0.833
70.8010 0.990
70.8313 0.677
70.8616 0.781
70.8918 1.042
70.9221 0.937
70.9524 0.885
70.9827 0.833
71.0130 1.042
71.0432 1.042
71.0735 0.833
71.1038 0.990
71.1341 0.937
71.1644 0.937
71.1946 1.042
71.2249 1.198
71.2552 0.885
71.2855 0.833
71.3157 0.885
71.3460 0.781
71.3763 0.729
71.4066 0.937
71.4369 1.615
71.4671 1.250
71.4974 0.521
71.5277 0.781
71.5580 1.042
71.5883 1.146
71.6185 0.469
71.6488 1.094
71.6791 0.573
71.7094 0.990
71.7396 0.885
71.7699 1.042
71.8002 0.573
71.8305 0.833
71.8608 0.833
71.8910 1.198
71.9213 0.677
71.9516 0.990
71.9819 0.521
72.0122 0.937
72.0424 0.833
72.0727 0.833
72.1030 0.729
72.1333 0.781
72.1635 1.198
72.1938 0.885
72.2241 0.990
72.2544 0.885
72.2847 0.885
72.3149 1.510
72.3452 1.042
72.3755 1.250
72.4058 1.146
72.4361 0.729
72.4663 0.729
72.4966 1.198
72.5269 0.990
72.5572 0.937
72.5874 1.250
72.6177 0.885
72.6480 1.094
72.6783 1.302
72.7086 1.042
72.7388 0.833
72.7691 0.937
72.7994 1.042
72.8297 0.885
72.8600 0.885
72.8902 0.625
72.9205 1.094
72.9508 0.729
72.9811 1.042
73.0113 1.250
73.0416 0.990
73.0719 0.677
73.1022 0.781
73.1325 0.625
73.1627 0.417
73.1930 1.146
73.2233 0.937
73.2536 0.521
73.2839 0.781
73.3141 0.781
73.3444 0.833
73.3747 1.042
73.4050 0.625
73.4353 0.937
73.4655 1.198
73.4958 0.781
73.5261 0.781
73.5564 0.625
73.5866 0.729
73.6169 0.625
73.6472 0.677
73.6775 0.677
73.7078 0.729
73.7380 0.729
73.7683 1.198
73.7986 1.354
73.8289 0.833
73.8592 0.781
73.8894 1.250
73.9197 0.885
73.9500 1.042
73.9803 0.573
74.0105 0.625
74.0408 1.146
74.0711 0.781
74.1014 0.885
74.1317 0.677
74.1619 0.937
74.1922 0.729
74.2225 0.469
74.2528 0.885
74.2831 0.781
74.3133 0.885
74.3436 0.781
74.3739 0.729
74.4042 0.833
74.4344 1.250
74.4647 0.469
74.4950 0.729
74.5253 0.937
74.5556 0.677
74.5858 0.833
74.6161 0.729
74.6464 0.625
74.6767 0.729
74.7070 0.729
74.7372 0.833
74.7675 0.885
74.7978 1.146
74.8281 0.729
74.8583 0.729
74.8886 0.677
74.9189 0.521
74.9492 0.937
74.9795 0.469
75.0097 1.042
75.0400 0.937
75.0703 0.885
75.1006 0.677
75.1309 1.042
75.1611 0.625
75.1914 0.677
75.2217 0.625
75.2520 0.729
75.2822 0.729
75.3125 1.250
75.3428 0.937
75.3731 0.469
75.4034 0.469
75.4336 0.729
75.4639 0.417
75.4942 0.729
75.5245 0.677
75.5548 0.833
75.5850 0.573
75.6153 0.937
75.6456 0.729
75.6759 0.312
75.7061 1.042
75.7364 0.729
75.7667 0.677
75.7970 0.885
75.8273 0.469
75.8575 0.781
75.8878 1.042
75.9181 0.781
75.9484 0.729
75.9787 0.521
76.0089 0.937
76.0392 0.781
76.0695 0.469
76.0998 1.146
76.1301 0.781
76.1603 0.885
76.1906 0.729
76.2209 0.729
76.2512 0.781
76.2814 0.833
76.3117 0.885
76.3420 0.677
76.3723 1.198
76.4026 1.510
76.4328 0.937
76.4631 1.094
76.4934 0.885
76.5237 0.729
76.5540 1.198
76.5842 0.937
76.6145 0.885
76.6448 1.198
76.6751 1.198
76.7053 0.729
76.7356 0.781
76.7659 1.719
76.7962 1.198
76.8265 0.833
76.8567 0.937
76.8870 1.042
76.9173 1.198
76.9476 1.250
76.9779 1.198
77.0081 1.198
77.0384 0.990
77.0687 0.885
77.0990 0.677
77.1292 1.302
77.1595 0.781
77.1898 1.198
77.2201 0.521
77.2504 0.990
77.2806 1.198
77.3109 0.937
77.3412 1.042
77.3715 0.885
77.4018 1.146
77.4320 0.625
77.4623 0.937
77.4926 0.833
77.5229 1.042
77.5531 0.729
77.5834 0.729
77.6137 0.937
77.6440 1.198
77.6743 0.885
77.7045 0.677
77.7348 0.521
77.7651 0.937
77.7954 0.417
77.8257 0.990
77.8559 1.146
77.8862 0.625
77.9165 0.729
77.9468 0.937
77.9770 0.781
78.0073 1.094
78.0376 0.729
78.0679 0.833
78.0982 0.573
78.1284 0.833
78.1587 0.937
78.1890 0.885
78.2193 0.729
78.2496 0.625
78.2798 0.677
78.3101 1.094
78.3404 0.625
78.3707 1.042
78.4009 0.573
78.4312 1.250
78.4615 1.302
78.4918 0.573
78.5221 0.885
78.5523 1.094
78.5826 0.833
78.6129 1.094
78.6432 0.885
78.6735 0.677
78.7037 0.729
78.7340 0.573
78.7643 0.833
78.7946 1.094
78.8248 0.937
78.8551 0.625
78.8854 0.677
78.9157 0.729
78.9460 0.469
78.9762 0.781
79.0065 1.042
79.0368 0.781
79.0671 0.521
79.0974 1.042
79.1276 0.573
79.1579 0.990
79.1882 0.729
79.2185 1.250
79.2488 0.781
79.2790 0.677
79.3093 0.729
79.3396 0.573
79.3699 0.781
79.4001 0.885
79.4304 0.729
79.4607 0.990
79.4910 0.781
79.5213 0.833
79.5515 0.833
79.5818 0.729
79.6121 1.146
79.6424 1.094
79.6727 1.146
79.7029 0.625
79.7332 0.781
79.7635 1.042
79.7938 0.677
79.8240 0.573
79.8543 0.990
79.8846 0.781
79.9149 1.042
79.9452 0.729
79.9754 0.729
80.0057 0.885
80.0360 1.146
80.0663 1.198
80.0966 1.042
80.1268 0.677
80.1571 0.677
80.1874 0.885
80.2177 0.781
80.2479 0.833
80.2782 0.677
80.3085 0.885
80.3388 0.729
80.3691 0.729
80.3993 1.094
80.4296 0.781
80.4599 0.990
80.4902 0.729
80.5205 0.885
80.5507 0.729
80.5810 0.885
80.6113 1.198
80.6416 1.250
80.6718 0.885
80.7021 0.937
80.7324 0.781
80.7627 1.146
80.7930 0.990
80.8232 1.094
80.8535 0.625
80.8838 1.042
80.9141 0.729
80.9444 0.781
80.9746 0.885
81.0049 1.198
81.0352 0.990
81.0655 0.781
81.0957 1.198
81.1260 0.677
81.1563 0.781
81.1866 0.833
81.2169 0.729
81.2471 0.677
81.2774 1.354
81.3077 0.729
81.3380 0.833
81.3683 0.729
81.3985 0.729
81.4288 0.781
81.4591 0.990
81.4894 1.042
81.5196 0.781
81.5499 0.625
81.5802 1.146
81.6105 0.833
81.6408 0.625
81.6710 0.885
81.7013 0.990
81.7316 0.521
81.7619 0.677
81.7922 0.625
81.8224 1.094
81.8527 0.937
81.8830 0.885
81.9133 0.677
81.9436 0.260
81.9738 0.990
82.0041 0.729
82.0344 0.625
82.0647 0.990
82.0949 1.042
82.1252 0.885
82.1555 0.781
82.1858 1.146
82.2161 0.729
82.2463 0.937
82.2766 1.042
82.3069 0.521
82.3372 0.729
82.3675 0.781
82.3977 0.677
82.4280 1.094
82.4583 1.042
82.4886 1.250
82.5188 0.625
82.5491 0.781
82.5794 0.729
82.6097 0.677
82.6400 0.729
82.6702 0.729
82.7005 0.625
82.7308 0.781
82.7611 0.937
82.7914 0.677
82.8216 0.729
82.8519 0.677
82.8822 0.990
82.9125 0.937
82.9427 0.625
82.9730 0.573
83.0033 0.365
83.0336 0.729
83.0639 0.521
83.0941 0.990
83.1244 0.625
83.1547 0.625
83.1850 0.625
83.2153 0.573
83.2455 0.781
83.2758 0.729
83.3061 0.729
83.3364 1.094
83.3666 0.625
83.3969 0.833
83.4272 0.781
83.4575 0.469
83.4878 0.573
83.5180 0.573
83.5483 0.885
83.5786 1.042
83.6089 0.937
83.6392 0.833
83.6694 0.729
83.6997 0.729
83.7300 0.312
83.7603 0.625
83.7905 0.521
83.8208 0.729
83.8511 0.729
83.8814 0.417
83.9117 0.781
83.9419 0.677
83.9722 0.729
84.0025 0.729
84.0328 0.729
84.0631 1.042
84.0933 0.781
84.1236 0.677
84.1539 0.781
84.1842 0.729
84.2144 0.990
84.2447 0.990
84.2750 0.417
84.3053 0.625
84.3356 0.729
84.3658 0.469
84.3961 0.677
84.4264 0.729
84.4567 0.729
84.4870 0.729
84.5172 0.729
84.5475 0.781
84.5778 0.469
84.6081 0.885
84.6383 0.677
84.6686 0.677
84.6989 0.417
84.7292 0.573
84.7595 0.573
84.7897 0.729
84.8200 0.833
84.8503 0.833
84.8806 0.677
84.9109 0.677
84.9411 0.677
84.9714 0.625
85.0017 0.729
85.0320 0.781
85.0623 1.146
85.0925 1.042
85.1228 0.729
85.1531 0.729
85.1834 0.677
85.2136 0.781
85.2439 0.885
85.2742 0.469
85.3045 0.677
85.3348 0.885
85.3650 0.469
85.3953 0.833
85.4256 0.833
85.4559 0.937
85.4862 0.677
85.5164 0.833
85.5467 0.573
85.5770 1.042
85.6073 0.469
85.6375 0.781
85.6678 0.260
85.6981 0.833
85.7284 0.833
85.7587 0.573
85.7889 0.833
85.8192 0.781
85.8495 0.625
85.8798 0.729
85.9101 0.573
85.9403 0.677
85.9706 0.729
86.0009 0.990
86.0312 0.729
86.0614 1.094
86.0917 0.781
86.1220 0.573
86.1523 0.521
86.1826 0.937
86.2128 0.729
86.2431 1.094
86.2734 0.833
86.3037 1.042
86.3340 1.042
86.3642 0.521
86.3945 0.625
86.4248 0.781
86.4551 0.729
86.4853 1.094
86.5156 0.729
86.5459 0.781
86.5762 0.729
86.6065 0.729
86.6367 0.625
86.6670 0.677
86.6973 0.729
86.7276 0.781
86.7579 0.729
86.7881 0.469
86.8184 0.573
86.8487 0.573
86.8790 0.625
86.9092 1.042
86.9395 0.833
86.9698 0.521
87.0001 0.885
87.0304 0.729
87.0606 0.937
87.0909 0.729
87.1212 0.729
87.1515 0.937
87.1818 0.729
87.2120 0.937
87.2423 0.469
87.2726 0.521
87.3029 1.094
87.3331 0.990
87.3634 0.729
87.3937 0.937
87.4240 0.781
87.4543 0.729
87.4845 0.573
87.5148 0.990
87.5451 0.417
87.5754 0.729
87.6057 0.625
87.6359 0.937
87.6662 0.625
87.6965 1.094
87.7268 0.729
87.7571 0.521
87.7873 0.417
87.8176 0.781
87.8479 0.781
87.8782 0.417
87.9084 0.781
87.9387 1.042
87.9690 0.729
87.9993 0.677
88.0296 1.042
88.0598 0.417
88.0901 0.677
88.1204 0.729
88.1507 0.625
88.1810 0.781
88.2112 0.781
88.2415 1.198
88.2718 1.094
88.3021 0.833
88.3323 1.042
88.3626 0.729
88.3929 0.573
88.4232 0.781
88.4535 0.781
88.4837 1.042
88.5140 0.885
88.5443 0.625
88.5746 0.625
88.6049 0.833
88.6351 0.417
88.6654 0.937
88.6957 0.990
88.7260 0.833
88.7562 0.833
88.7865 0.781
88.8168 1.094
88.8471 0.729
88.8774 1.302
88.9076 0.885
88.9379 0.729
88.9682 1.094
88.9985 0.833
89.0288 1.198
89.0590 1.146
89.0893 1.198
89.1196 1.719
89.1499 1.250
89.1801 0.781
89.2104 1.406
89.2407 1.823
89.2710 1.458
89.3013 1.510
89.3315 0.937
89.3618 1.302
89.3921 1.406
89.4224 1.406
89.4527 0.729
89.4829 1.042
89.5132 0.937
89.5435 1.667
89.5738 1.198
89.6040 1.615
89.6343 0.990
89.6646 0.833
89.6949 1.094
89.7252 1.615
89.7554 1.615
89.7857 1.198
89.8160 1.250
89.8463 1.406
89.8766 1.615
89.9068 0.625
89.9371 1.302
89.9674 0.677
89.9977 1.094
90.0279 0.990
90.0582 0.625
90.0885 0.833
90.1188 1.094
90.1491 0.937
90.1793 1.042
90.2096 0.990
90.2399 0.729
90.2702 1.302
90.3005 0.729
90.3307 0.833
90.3610 0.885
90.3913 1.198
90.4216 0.729
90.4518 0.729
90.4821 0.729
90.5124 0.729
90.5427 0.990
90.5730 0.781
90.6032 0.729
90.6335 0.729
90.6638 0.625
90.6941 0.312
90.7244 0.885
90.7546 0.677
90.7849 0.625
90.8152 0.729
90.8455 0.625
90.8758 0.677
90.9060 0.677
90.9363 0.781
90.9666 0.729
90.9969 0.990
91.0271 1.094
91.0574 0.781
91.0877 0.625
91.1180 0.937
91.1483 0.469
91.1785 0.781
91.2088 0.937
91.2391 0.729
91.2694 1.302
91.2997 0.937
91.3299 0.990
91.3602 0.781
91.3905 0.833
91.4208 0.677
91.4510 0.469
91.4813 0.937
91.5116 0.729
91.5419 1.042
91.5722 0.833
91.6024 0.833
91.6327 1.198
91.6630 1.406
91.6933 0.937
91.7236 0.990
91.7538 0.521
91.7841 0.885
91.8144 0.781
91.8447 0.677
91.8749 0.833
91.9052 0.781
91.9355 0.729
91.9658 0.937
91.9961 0.833
92.0263 1.146
92.0566 0.781
92.0869 0.990
92.1172 0.990
92.1475 1.042
92.1777 0.833
92.2080 0.885
92.2383 1.094
92.2686 1.354
92.2988 1.198
92.3291 1.094
92.3594 1.094
92.3897 0.885
92.4200 0.990
92.4502 1.510
92.4805 1.354
92.5108 0.990
92.5411 0.885
92.5714 1.042
92.6016 0.937
92.6319 1.198
92.6622 0.729
92.6925 0.833
92.7227 0.990
92.7530 0.990
92.7833 1.094
92.8136 1.354
92.8439 0.990
92.8741 0.781
92.9044 0.937
92.9347 1.250
92.9650 1.094
92.9953 0.833
93.0255 0.729
93.0558 0.833
93.0861 1.302
93.1164 0.781
93.1466 0.417
93.1769 0.885
93.2072 0.729
93.2375 1.094
93.2678 0.677
93.2980 1.042
93.3283 0.990
93.3586 0.885
93.3889 0.781
93.4192 0.937
93.4494 0.990
93.4797 0.521
93.5100 0.573
93.5403 0.990
93.5706 1.406
93.6008 0.990
93.6311 0.521
93.6614 0.781
93.6917 0.521
93.7219 0.833
93.7522 1.094
93.7825 0.729
93.8128 1.354
93.8431 0.885
93.8733 1.094
93.9036 0.729
93.9339 1.042
93.9642 1.198
93.9945 1.146
94.0247 0.937
94.0550 0.729
94.0853 0.729
94.1156 0.573
94.1458 1.042
94.1761 0.677
94.2064 0.990
94.2367 0.781
94.2670 0.781
94.2972 0.937
94.3275 1.042
94.3578 1.250
94.3881 0.990
94.4184 1.198
94.4486 0.885
94.4789 0.833
94.5092 0.885
94.5395 0.937
94.5697 1.094
94.6000 1.250
94.6303 1.146
94.6606 1.042
94.6909 1.719
94.7211 1.094
94.7514 0.990
94.7817 1.146
94.8120 1.250
94.8423 1.458
94.8725 1.302
94.9028 1.562
94.9331 0.885
94.9634 1.250
94.9936 1.719
95.0239 1.667
95.0542 1.562
95.0845 1.667
95.1148 1.823
95.1450 1.875
95.1753 2.031
95.2056 1.667
95.2359 1.927
95.2662 1.354
95.2964 1.771
95.3267 1.562
95.3570 1.719
95.3873 1.927
95.4175 1.250
95.4478 1.146
95.4781 1.198
95.5084 0.833
95.5387 1.094
95.5689 1.042
95.5992 1.406
95.6295 1.250
95.6598 0.990
95.6901 1.198
95.7203 0.885
95.7506 0.521
95.7809 1.250
95.8112 0.937
95.8414 0.573
95.8717 0.990
95.9020 0.885
95.9323 1.094
95.9626 0.885
95.9928 1.198
96.0231 0.990
96.0534 0.729
96.0837 1.094
96.1140 1.042
96.1442 0.729
96.1745 0.781
96.2048 0.729
96.2351 0.885
96.2653 0.677
96.2956 1.042
96.3259 0.677
96.3562 1.094
96.3865 0.573
96.4167 0.729
96.4470 0.833
96.4773 0.937
96.5076 1.146
96.5379 0.729
96.5681 0.885
96.5984 0.781
96.6287 0.833
96.6590 0.677
96.6893 0.937
96.7195 0.729
96.7498 1.250
96.7801 0.729
96.8104 0.833
96.8406 0.990
96.8709 0.990
96.9012 0.781
96.9315 0.885
96.9618 1.042
96.9920 0.885
97.0223 0.729
97.0526 1.146
97.0829 0.677
97.1132 0.937
97.1434 0.781
97.1737 1.042
97.2040 1.302
97.2343 0.937
97.2645 0.885
97.2948 0.469
97.3251 0.781
97.3554 0.781
97.3857 0.625
97.4159 0.990
97.4462 0.573
97.4765 1.042
97.5068 0.729
97.5371 0.781
97.5673 0.833
97.5976 0.781
97.6279 0.781
97.6582 1.094
97.6884 0.885
97.7187 0.885
97.7490 0.625
97.7793 1.198
97.8096 0.990
97.8398 0.833
97.8701 0.365
97.9004 0.677
97.9307 0.937
97.9610 0.573
97.9912 0.937
98.0215 0.781
98.0518 1.146
98.0821 0.833
98.1123 1.042
98.1426 1.354
98.1729 1.042
98.2032 0.781
98.2335 1.146
98.2637 1.146
98.2940 1.250
98.3243 1.250
98.3546 0.833
98.3849 0.885
98.4151 1.250
98.4454 1.302
98.4757 1.198
98.5060 1.302
98.5362 1.302
98.5665 1.146
98.5968 1.198
98.6271 0.781
98.6574 1.094
98.6876 1.250
98.7179 1.094
98.7482 0.781
98.7785 0.885
98.8088 1.094
98.8390 0.885
98.8693 1.094
98.8996 1.094
98.9299 1.042
98.9601 0.833
98.9904 0.729
99.0207 0.990
99.0510 0.729
99.0813 1.094
99.1115 0.625
99.1418 0.937
99.1721 0.781
99.2024 0.781
99.2327 0.781
99.2629 0.833
99.2932 0.885
99.3235 1.042
99.3538 0.781
99.3841 0.729
99.4143 0.729
99.4446 0.573
99.4749 0.729
99.5052 0.937
99.5354 0.729
99.5657 0.781
99.5960 0.885
99.6263 0.729
99.6566 0.885
99.6868 0.885
99.7171 0.781
99.7474 0.833
99.7777 0.625
99.8080 0.937
99.8382 0.885
99.8685 1.354
99.8988 0.781
99.9291 0.781
99.9593 0.677
99.9896 0.417
100.0199 0.573
100.0502 1.042
100.0805 0.885
100.1107 0.729
100.1410 0.937
100.1713 0.625
100.2016 0.781
100.2319 1.042
100.2621 0.781
100.2924 0.573
100.3227 0.469
100.3530 0.729
100.3832 0.417
100.4135 0.781
100.4438 0.833
100.4741 0.677
100.5044 0.521
100.5346 0.677
100.5649 0.781
100.5952 0.885
100.6255 0.885
100.6558 0.937
100.6860 0.781
100.7163 0.781
100.7466 0.677
100.7769 0.729
100.8071 0.781
100.8374 1.094
100.8677 0.781
100.8980 0.677
100.9283 0.729
100.9585 0.625
100.9888 0.781
101.0191 0.677
101.0494 0.781
101.0797 0.469
101.1099 0.833
101.1402 0.885
101.1705 0.573
101.2008 0.937
101.2310 0.937
101.2613 0.625
101.2916 0.677
101.3219 0.625
101.3522 0.729
101.3824 0.833
101.4127 0.573
101.4430 0.833
101.4733 0.781
101.5036 0.781
101.5338 0.833
101.5641 0.833
101.5944 0.937
101.6247 1.250
101.6549 0.677
101.6852 0.677
101.7155 1.146
101.7458 0.729
101.7761 0.781
101.8063 1.198
101.8366 0.677
101.8669 0.937
101.8972 0.833
101.9275 0.885
101.9577 0.677
101.9880 0.781
102.0183 0.990
102.0486 1.250
102.0788 0.937
102.1091 0.833
102.1394 0.781
102.1697 0.781
102.2000 0.937
102.2302 1.458
102.2605 0.729
102.2908 0.937
102.3211 0.469
102.3514 1.094
102.3816 1.250
102.4119 0.885
102.4422 0.937
102.4725 0.833
102.5028 0.833
102.5330 1.094
102.5633 0.885
102.5936 1.042
102.6239 1.354
102.6541 1.406
102.6844 0.729
102.7147 1.354
102.7450 1.042
102.7753 1.250
102.8055 1.302
102.8358 1.094
102.8661 1.354
102.8964 1.406
102.9267 1.042
102.9569 0.833
102.9872 0.937
103.0175 1.042
103.0478 0.833
103.0780 1.354
103.1083 1.094
103.1386 0.937
103.1689 1.094
103.1992 1.458
103.2294 0.990
103.2597 0.990
103.2900 1.042
103.3203 1.354
103.3506 0.781
103.3808 0.625
103.4111 0.937
103.4414 1.198
103.4717 0.677
103.5019 1.042
103.5322 0.990
103.5625 0.833
103.5928 0.937
103.6231 0.885
103.6533 1.302
103.6836 0.677
103.7139 0.885
103.7442 1.354
103.7745 0.833
103.8047 0.990
103.8350 0.833
103.8653 0.781
103.8956 1.302
103.9258 1.198
103.9561 0.885
103.9864 1.094
104.0167 0.885
104.0470 1.094
104.0772 1.354
104.1075 1.094
104.1378 1.094
104.1681 0.833
104.1984 0.885
104.2286 1.198
104.2589 0.677
104.2892 0.833
104.3195 1.250
104.3497 0.833
104.3800 1.406
104.4103 1.094
104.4406 1.198
104.4709 0.677
104.5011 0.781
104.5314 0.521
104.5617 0.833
104.5920 0.990
104.6223 1.198
104.6525 1.146
104.6828 0.833
104.7131 0.729
104.7434 0.729
104.7736 0.885
104.8039 0.677
104.8342 0.677
104.8645 0.937
104.8948 0.885
104.9250 0.729
104.9553 0.625
104.9856 0.833
105.0159 0.625
105.0462 0.990
105.0764 0.729
105.1067 0.625
105.1370 0.625
105.1673 0.885
105.1975 0.677
105.2278 0.521
105.2581 0.833
105.2884 0.833
105.3187 1.094
105.3489 0.833
105.3792 0.833
105.4095 0.885
105.4398 0.937
105.4701 0.625
105.5003 1.146
105.5306 0.625
105.5609 0.521
105.5912 0.521
105.6215 0.885
105.6517 0.677
105.6820 0.885
105.7123 1.146
105.7426 0.833
105.7728 1.302
105.8031 0.885
105.8334 0.833
105.8637 0.521
105.8940 0.625
105.9242 0.833
105.9545 0.677
105.9848 1.094
106.0151 0.729
106.0454 0.625
106.0756 0.885
106.1059 0.781
106.1362 0.781
106.1665 0.885
106.1967 0.625
106.2270 0.573
106.2573 0.677
106.2876 1.042
106.3179 0.677
106.3481 0.833
106.3784 0.781
106.4087 1.250
106.4390 0.625
106.4693 1.042
106.4995 0.729
106.5298 0.885
106.5601 1.094
106.5904 0.937
106.6206 0.677
106.6509 0.885
106.6812 0.937
106.7115 0.417
106.7418 0.781
106.7720 1.094
106.8023 0.885
106.8326 0.833
106.8629 0.885
106.8932 0.729
106.9234 0.937
106.9537 1.094
106.9840 0.937
107.0143 1.094
107.0445 1.250
107.0748 1.042
107.1051 0.625
107.1354 0.625
107.1657 0.677
107.1959 0.937
107.2262 0.521
107.2565 0.729
107.2868 0.781
107.3171 0.677
107.3473 1.198
107.3776 0.937
107.4079 0.937
107.4382 0.365
107.4684 0.729
107.4987 1.354
107.5290 0.677
107.5593 0.990
107.5896 1.042
107.6198 0.885
107.6501 1.042
107.6804 0.885
107.7107 0.885
107.7410 0.833
107.7712 0.677
107.8015 0.885
107.8318 0.365
107.8621 0.885
107.8923 0.625
107.9226 1.094
107.9529 0.937
107.9832 0.885
108.0135 0.573
108.0437 0.625
108.0740 1.042
108.1043 0.937
108.1346 0.729
108.1649 1.250
108.1951 0.677
108.2254 0.885
108.2557 0.937
108.2860 0.573
108.3163 0.885
108.3465 0.990
108.3768 0.521
108.4071 0.677
108.4374 0.885
108.4676 0.417
108.4979 0.885
108.5282 0.990
108.5585 0.937
108.5888 1.250
108.6190 0.729
108.6493 0.625
108.6796 0.573
108.7099 0.937
108.7402 0.417
108.7704 0.729
108.8007 1.094
108.8310 0.937
108.8613 0.469
108.8915 0.781
108.9218 0.521
108.9521 1.198
108.9824 0.781
109.0127 0.833
109.0429 1.302
109.0732 0.521
109.1035 1.250
109.1338 0.781
109.1641 0.469
109.1943 0.781
109.2246 0.937
109.2549 0.781
109.2852 0.365
109.3154 0.937
109.3457 0.521
109.3760 1.094
109.4063 1.094
109.4366 0.729
109.4668 1.146
109.4971 0.677
109.5274 0.937
109.5577 1.198
109.5880 1.042
109.6182 1.094
109.6485 0.885
109.6788 1.198
109.7091 0.990
109.7393 0.990
109.7696 0.937
109.7999 1.042
109.8302 1.198
109.8605 1.042
109.8907 0.937
109.9210 1.302
109.9513 0.990
109.9816 1.406
110.0119 1.198
110.0421 1.146
110.0724 1.198
110.1027 0.677
110.1330 1.510
110.1632 1.094
110.1935 1.406
110.2238 0.833
110.2541 1.250
110.2844 0.885
110.3146 1.719
110.3449 1.094
110.3752 0.625
110.4055 1.198
110.4358 1.042
110.4660 1.250
110.4963 0.937
110.5266 1.094
110.5569 1.302
110.5871 0.990
110.6174 0.833
110.6477 0.990
110.6780 0.990
110.7083 1.302
110.7385 0.833
110.7688 0.833
110.7991 0.990
110.8294 0.990
110.8597 1.250
110.8899 1.250
110.9202 0.990
110.9505 1.094
110.9808 0.990
111.0110 1.198
111.0413 0.885
111.0716 1.042
111.1019 0.885
111.1322 0.990
111.1624 1.146
111.1927 0.677
111.2230 1.042
111.2533 0.677
111.2836 0.937
111.3138 0.625
111.3441 0.937
111.3744 0.990
111.4047 0.833
111.4350 0.990
111.4652 0.885
111.4955 1.094
111.5258 0.937
111.5561 0.625
111.5863 0.625
111.6166 0.937
111.6469 0.729
111.6772 0.833
111.7075 0.781
111.7377 0.469
111.7680 1.198
111.7983 0.781
111.8286 1.042
111.8589 0.990
111.8891 0.833
111.9194 0.781
111.9497 0.833
111.9800 1.042
112.0102 0.990
112.0405 0.937
112.0708 0.990
112.1011 0.573
112.1314 0.729
112.1616 0.990
112.1919 0.937
112.2222 0.469
112.2525 0.677
112.2828 0.729
112.3130 0.625
112.3433 0.833
112.3736 0.469
112.4039 0.990
112.4341 0.833
112.4644 0.990
112.4947 1.146
112.5250 0.417
112.5553 1.146
112.5855 0.417
112.6158 1.094
112.6461 1.042
112.6764 0.885
112.7067 0.729
112.7369 1.042
112.7672 0.469
112.7975 0.625
112.8278 0.729
112.8580 0.833
112.8883 1.198
112.9186 1.094
112.9489 1.250
112.9792 1.146
113.0094 0.781
113.0397 0.729
113.0700 0.990
113.1003 1.354
113.1306 1.042
113.1608 0.885
113.1911 0.990
113.2214 0.885
113.2517 1.198
113.2819 0.937
113.3122 1.094
113.3425 1.302
113.3728 0.885
113.4031 0.885
113.4333 0.885
113.4636 1.042
113.4939 0.729
113.5242 0.573
113.5545 0.990
113.5847 0.573
113.6150 0.885
113.6453 0.990
113.6756 0.677
113.7058 0.990
113.7361 0.729
113.7664 1.042
113.7967 0.781
113.8270 0.781
113.8572 0.729
113.8875 0.990
113.9178 0.729
113.9481 0.625
113.9784 0.937
114.0086 0.729
114.0389 0.990
114.0692 1.146
114.0995 1.250
114.1298 0.937
114.1600 0.677
114.1903 1.146
114.2206 0.990
114.2509 1.042
114.2811 0.625
114.3114 0.937
114.3417 1.094
114.3720 1.146
114.4023 0.990
114.4325 0.937
114.4628 0.729
114.4931 0.833
114.5234 0.781
114.5537 1.406
114.5839 1.250
114.6142 1.042
114.6445 0.833
114.6748 1.146
114.7050 0.885
114.7353 0.521
114.7656 1.042
114.7959 0.781
114.8262 0.885
114.8564 0.990
114.8867 0.990
114.9170 0.677
114.9473 0.990
114.9776 1.094
115.0078 0.781
115.0381 1.094
115.0684 0.937
115.0987 1.094
115.1289 1.042
115.1592 0.729
115.1895 0.833
115.2198 1.094
115.2501 0.833
115.2803 0.625
115.3106 0.573
115.3409 0.885
115.3712 1.302
115.4015 1.042
115.4317 1.146
115.4620 1.042
115.4923 0.990
115.5226 1.146
115.5528 1.042
115.5831 0.833
115.6134 1.406
115.6437 1.562
115.6740 1.302
115.7042 0.990
115.7345 1.406
115.7648 1.302
115.7951 1.094
115.8254 1.771
115.8556 1.250
115.8859 1.302
115.9162 1.406
115.9465 1.302
115.9767 1.667
116.0070 1.458
116.0373 1.615
116.0676 1.198
116.0979 0.937
116.1281 1.250
116.1584 1.354
116.1887 1.667
116.2190 1.719
116.2493 1.406
116.2795 1.146
116.3098 1.302
116.3401 1.250
116.3704 1.250
116.4006 1.146
116.4309 1.042
116.4612 1.615
116.4915 1.406
116.5218 1.615
116.5520 1.146
116.5823 1.198
116.6126 0.937
116.6429 1.406
116.6732 1.094
116.7034 1.146
116.7337 1.198
116.7640 1.146
116.7943 1.198
116.8245 1.094
116.8548 0.677
116.8851 1.510
116.9154 1.198
116.9457 0.990
116.9759 0.990
117.0062 0.885
117.0365 0.990
117.0668 0.729
117.0971 1.198
117.1273 1.042
117.1576 0.885
117.1879 1.250
117.2182 0.677
117.2485 0.625
117.2787 0.781
117.3090 0.677
117.3393 0.885
117.3696 0.833
117.3998 1.250
117.4301 0.521
117.4604 1.146
117.4907 1.146
117.5210 0.937
117.5512 0.521
117.5815 0.990
117.6118 0.833
117.6421 0.885
117.6724 1.250
117.7026 0.937
117.7329 0.885
117.7632 0.469
117.7935 0.677
117.8237 0.781
117.8540 0.677
117.8843 0.833
117.9146 0.625
117.9449 1.250
117.9751 0.781
118.0054 0.781
118.0357 1.354
118.0660 0.937
118.0963 0.781
118.1265 1.042
118.1568 0.625
118.1871 0.937
118.2174 0.469
118.2476 0.781
118.2779 0.573
118.3082 0.885
118.3385 0.885
118.3688 0.573
118.3990 1.094
118.4293 0.677
118.4596 0.937
118.4899 0.833
118.5202 0.521
118.5504 0.990
118.5807 1.146
118.6110 0.677
118.6413 0.781
118.6715 0.469
118.7018 0.677
118.7321 0.937
118.7624 1.042
118.7927 0.729
118.8229 1.042
118.8532 0.625
118.8835 0.885
118.9138 0.677
118.9441 0.781
118.9743 0.781
119.0046 1.094
119.0349 1.198
119.0652 0.937
119.0954 0.990
119.1257 0.833
119.1560 1.146
119.1863 0.885
119.2166 0.781
119.2468 1.198
119.2771 0.781
119.3074 0.521
119.3377 0.833
119.3680 0.781
119.3982 0.677
119.4285 0.677
119.4588 1.354
119.4891 0.885
119.5193 0.521
119.5496 0.781
119.5799 1.042
119.6102 1.042
119.6405 0.885
119.6707 0.781
119.7010 1.198
119.7313 0.833
119.7616 0.625
119.7919 0.781
119.8221 1.146
119.8524 0.729
119.8827 1.198
119.9130 0.521
119.9433 0.521
119.9735 0.781
120.0038 1.042
