'Id: "" Comment: "" Operator: "Lab Manager" Anode: "Cu" Scantype: "Locked Coupled" TimePerStep: "19.2" X: "9999" Y: "9999" Z: "9999" 
10.0015 11.771
10.0318 10.104
10.0620 11.042
10.0923 10.000
10.1226 10.469
10.1529 10.312
10.1832 8.750
10.2134 9.740
10.2437 9.427
10.2740 9.792
10.3043 9.115
10.3346 9.896
10.3648 8.333
10.3951 8.385
10.4254 7.187
10.4557 8.542
10.4859 8.333
10.5162 7.917
10.5465 9.010
10.5768 7.812
10.6071 8.646
10.6373 7.083
10.6676 8.385
10.6979 6.354
10.7282 7.760
10.7585 8.281
10.7887 7.292
10.8190 8.021
10.8493 7.292
10.8796 6.406
10.9098 6.094
10.9401 6.875
10.9704 5.937
11.0007 6.823
11.0310 7.292
11.0612 7.448
11.0915 7.812
11.1218 7.552
11.1521 7.240
11.1824 8.646
11.2126 7.917
11.2429 7.240
11.2732 7.708
11.3035 8.125
11.3337 8.021
11.3640 8.698
11.3943 8.906
11.4246 10.052
11.4549 12.396
11.4851 11.146
11.5154 10.521
11.5457 14.010
11.5760 13.542
11.6063 15.052
11.6365 17.917
11.6668 19.115
11.6971 24.167
11.7274 27.083
11.7577 26.875
11.7879 30.625
11.8182 36.146
11.8485 34.740
11.8788 36.719
11.9090 33.177
11.9393 29.844
11.9696 24.948
11.9999 20.833
12.0302 18.854
12.0604 17.917
12.0907 14.167
12.1210 12.083
12.1513 13.125
12.1816 12.344
12.2118 12.500
12.2421 10.521
12.2724 10.104
12.3027 9.740
12.3329 7.448
12.3632 7.240
12.3935 6.198
12.4238 5.677
12.4541 6.042
12.4843 4.792
12.5146 5.052
12.5449 5.260
12.5752 4.740
12.6055 5.781
12.6357 4.635
12.6660 4.896
12.6963 3.854
12.7266 5.208
12.7568 4.635
12.7871 3.802
12.8174 5.156
12.8477 4.062
12.8780 4.167
12.9082 4.948
12.9385 3.906
12.9688 4.167
12.9991 3.594
13.0294 3.385
13.0596 4.115
13.0899 4.427
13.1202 3.906
13.1505 4.479
13.1807 4.115
13.2110 4.271
13.2413 4.740
13.2716 3.854
13.3019 4.583
13.3321 4.271
13.3624 3.698
13.3927 3.229
13.4230 3.542
13.4533 4.062
13.4835 3.906
13.5138 3.229
13.5441 3.229
13.5744 3.854
13.6046 4.479
13.6349 3.333
13.6652 3.437
13.6955 2.865
13.7258 4.427
13.7560 3.854
13.7863 3.750
13.8166 3.698
13.8469 3.750
13.8772 3.229
13.9074 3.385
13.9377 3.073
13.9680 4.219
13.9983 3.958
14.0285 3.906
14.0588 4.323
14.0891 2.865
14.1194 4.167
14.1497 3.437
14.1799 4.427
14.2102 4.583
14.2405 3.854
14.2708 4.167
14.3011 4.323
14.3313 3.333
14.3616 3.021
14.3919 4.687
14.4222 4.115
14.4524 3.906
14.4827 3.958
14.5130 3.854
14.5433 3.906
14.5736 4.167
14.6038 4.323
14.6341 4.115
14.6644 3.802
14.6947 4.740
14.7250 4.167
14.7552 3.750
14.7855 3.229
14.8158 4.271
14.8461 4.635
14.8764 4.427
14.9066 4.427
14.9369 4.167
14.9672 4.427
14.9975 3.750
15.0277 3.802
15.0580 3.906
15.0883 4.844
15.1186 4.062
15.1489 4.115
15.1791 3.281
15.2094 4.271
15.2397 4.375
15.2700 4.740
15.3003 4.271
15.3305 3.906
15.3608 3.854
15.3911 4.219
15.4214 3.906
15.4516 3.594
15.4819 3.490
15.5122 3.542
15.5425 4.010
15.5728 3.906
15.6030 3.281
15.6333 4.792
15.6636 4.062
15.6939 3.073
15.7242 4.271
15.7544 4.010
15.7847 3.125
15.8150 3.490
15.8453 3.021
15.8755 3.437
15.9058 3.646
15.9361 4.427
15.9664 5.052
15.9967 3.073
16.0269 3.281
16.0572 3.854
16.0875 4.062
16.1178 3.854
16.1481 4.010
16.1783 3.333
16.2086 3.698
16.2389 3.594
16.2692 3.542
16.2994 3.854
16.3297 3.594
16.3600 4.010
16.3903 2.760
16.4206 3.542
16.4508 3.594
16.4811 3.333
16.5114 3.646
16.5417 3.437
16.5720 4.323
16.6022 4.010
16.6325 3.385
16.6628 3.958
16.6931 2.760
16.7233 3.854
16.7536 4.115
16.7839 4.219
16.8142 3.646
16.8445 3.490
16.8747 5.000
16.9050 4.062
16.9353 4.219
16.9656 3.750
16.9959 4.427
17.0261 4.740
17.0564 5.781
17.0867 5.365
17.1170 4.635
17.1472 5.573
17.1775 5.156
17.2078 5.365
17.2381 4.167
17.2684 4.323
17.2986 3.437
17.3289 3.281
17.3592 3.542
17.3895 4.427
17.4198 2.760
17.4500 3.021
17.4803 3.177
17.5106 3.646
17.5409 3.021
17.5712 4.271
17.6014 2.604
17.6317 4.167
17.6620 3.125
17.6923 3.177
17.7225 3.750
17.7528 2.760
17.7831 3.385
17.8134 2.917
17.8437 3.750
17.8739 2.708
17.9042 3.750
17.9345 3.854
17.9648 3.125
17.9951 3.177
18.0253 4.375
18.0556 3.750
18.0859 3.437
18.1162 3.229
18.1464 3.750
18.1767 3.854
18.2070 2.760
18.2373 3.958
18.2676 2.500
18.2978 3.958
18.3281 3.854
18.3584 3.021
18.3887 2.969
18.4190 3.333
18.4492 3.750
18.4795 3.750
18.5098 3.073
18.5401 4.010
18.5703 2.917
18.6006 4.062
18.6309 3.229
18.6612 3.594
18.6915 3.490
18.7217 2.552
18.7520 4.010
18.7823 3.177
18.8126 3.802
18.8429 3.437
18.8731 3.750
18.9034 2.865
18.9337 3.333
18.9640 4.115
18.9942 4.010
19.0245 2.708
19.0548 3.906
19.0851 3.437
19.1154 2.396
19.1456 2.917
19.1759 4.010
19.2062 2.812
19.2365 3.073
19.2668 2.656
19.2970 2.969
19.3273 3.281
19.3576 2.187
19.3879 3.385
19.4181 3.073
19.4484 3.906
19.4787 3.281
19.5090 2.552
19.5393 2.917
19.5695 3.021
19.5998 3.021
19.6301 3.385
19.6604 3.490
19.6907 3.073
19.7209 2.552
19.7512 3.385
19.7815 2.448
19.8118 3.594
19.8420 2.396
19.8723 2.448
19.9026 3.542
19.9329 2.969
19.9632 2.656
19.9934 2.969
20.0237 2.552
20.0540 3.333
20.0843 2.031
20.1146 2.604
20.1448 2.760
20.1751 3.021
20.2054 2.344
20.2357 3.281
20.2659 3.021
20.2962 2.917
20.3265 2.500
20.3568 2.969
20.3871 3.281
20.4173 3.594
20.4476 2.552
20.4779 3.333
20.5082 2.865
20.5385 3.490
20.5687 2.812
20.5990 2.656
20.6293 3.021
20.6596 2.969
20.6899 2.708
20.7201 2.917
20.7504 2.083
20.7807 2.865
20.8110 2.812
20.8412 2.448
20.8715 3.646
20.9018 2.917
20.9321 2.760
20.9624 3.125
20.9926 2.865
21.0229 3.750
21.0532 3.333
21.0835 3.073
21.1138 3.906
21.1440 4.010
21.1743 4.531
21.2046 6.927
21.2349 5.156
21.2651 8.229
21.2954 7.708
21.3257 6.979
21.3560 5.937
21.3863 5.781
21.4165 5.625
21.4468 5.000
21.4771 3.490
21.5074 3.802
21.5377 3.854
21.5679 3.385
21.5982 3.542
21.6285 3.385
21.6588 3.490
21.6890 2.865
21.7193 2.917
21.7496 3.906
21.7799 3.177
21.8102 2.552
21.8404 3.854
21.8707 2.865
21.9010 3.333
21.9313 3.021
21.9616 3.958
21.9918 2.760
22.0221 2.865
22.0524 3.125
22.0827 2.500
22.1129 2.396
22.1432 2.500
22.1735 2.760
22.2038 3.073
22.2341 2.865
22.2643 2.812
22.2946 3.333
22.3249 3.281
22.3552 3.177
22.3855 2.969
22.4157 2.917
22.4460 3.333
22.4763 3.177
22.5066 2.396
22.5368 2.448
22.5671 3.750
22.5974 3.229
22.6277 2.969
22.6580 2.187
22.6882 3.177
22.7185 3.281
22.7488 3.021
22.7791 2.812
22.8094 2.969
22.8396 2.552
22.8699 3.177
22.9002 3.021
22.9305 2.604
22.9607 2.760
22.9910 2.812
23.0213 2.500
23.0516 3.333
23.0819 3.333
23.1121 3.073
23.1424 3.594
23.1727 3.802
23.2030 3.385
23.2333 2.760
23.2635 3.854
23.2938 3.906
23.3241 3.958
23.3544 4.010
23.3846 2.917
23.4149 3.073
23.4452 4.948
23.4755 2.917
23.5058 3.385
23.5360 4.219
23.5663 4.167
23.5966 4.167
23.6269 4.740
23.6572 4.896
23.6874 3.958
23.7177 5.469
23.7480 5.573
23.7783 5.469
23.8086 7.031
23.8388 6.094
23.8691 6.354
23.8994 6.250
23.9297 7.656
23.9599 7.656
23.9902 7.135
24.0205 5.729
24.0508 6.146
24.0811 5.573
24.1113 5.521
24.1416 5.365
24.1719 5.104
24.2022 6.094
24.2325 6.302
24.2627 5.625
24.2930 5.990
24.3233 5.677
24.3536 7.031
24.3838 6.979
24.4141 9.167
24.4444 8.125
24.4747 8.646
24.5050 8.958
24.5352 8.646
24.5655 7.240
24.5958 6.875
24.6261 6.927
24.6564 6.354
24.6866 6.979
24.7169 5.781
24.7472 6.250
24.7775 6.250
24.8077 5.104
24.8380 4.219
24.8683 4.844
24.8986 5.104
24.9289 5.833
24.9591 4.479
24.9894 3.750
25.0197 5.417
25.0500 5.000
25.0803 5.052
25.1105 5.052
25.1408 4.740
25.1711 4.635
25.2014 3.594
25.2316 4.792
25.2619 5.260
25.2922 6.354
25.3225 4.479
25.3528 5.156
25.3830 5.260
25.4133 5.052
25.4436 5.156
25.4739 5.208
25.5042 4.479
25.5344 4.323
25.5647 4.479
25.5950 4.010
25.6253 4.844
25.6555 5.000
25.6858 4.062
25.7161 4.323
25.7464 4.687
25.7767 4.740
25.8069 4.583
25.8372 4.844
25.8675 5.156
25.8978 5.156
25.9281 6.146
25.9583 4.271
25.9886 5.208
26.0189 5.312
26.0492 4.635
26.0794 5.104
26.1097 4.427
26.1400 6.198
26.1703 6.406
26.2006 5.052
26.2308 5.156
26.2611 5.521
26.2914 5.937
26.3217 5.781
26.3520 5.417
26.3822 5.208
26.4125 5.833
26.4428 5.312
26.4731 5.885
26.5034 6.510
26.5336 4.115
26.5639 5.885
26.5942 5.833
26.6245 6.458
26.6547 5.937
26.6850 6.719
26.7153 7.031
26.7456 8.073
26.7759 8.698
26.8061 9.167
26.8364 9.479
26.8667 10.156
26.8970 9.948
26.9273 12.656
26.9575 12.187
26.9878 13.229
27.0181 12.500
27.0484 10.365
27.0786 10.052
27.1089 10.990
27.1392 11.562
27.1695 7.812
27.1998 8.073
27.2300 6.979
27.2603 6.510
27.2906 6.875
27.3209 6.094
27.3512 5.729
27.3814 5.156
27.4117 7.187
27.4420 6.771
27.4723 6.354
27.5025 6.042
27.5328 6.250
27.5631 5.365
27.5934 4.948
27.6237 5.156
27.6539 6.146
27.6842 4.792
27.7145 5.625
27.7448 4.792
27.7751 4.583
27.8053 4.375
27.8356 3.854
27.8659 6.042
27.8962 4.271
27.9264 5.260
27.9567 4.792
27.9870 5.000
28.0173 4.948
28.0476 5.417
28.0778 4.844
28.1081 4.167
28.1384 5.365
28.1687 5.729
28.1990 4.635
28.2292 4.792
28.2595 3.854
28.2898 4.479
28.3201 4.792
28.3503 4.948
28.3806 4.635
28.4109 4.635
28.4412 4.479
28.4715 4.219
28.5017 4.740
28.5320 4.531
28.5623 4.375
28.5926 4.583
28.6229 4.531
28.6531 3.333
28.6834 4.687
28.7137 4.010
28.7440 4.010
28.7742 4.635
28.8045 4.792
28.8348 4.844
28.8651 4.062
28.8954 4.010
28.9256 4.479
28.9559 4.062
28.9862 5.260
29.0165 4.219
29.0468 3.802
29.0770 3.802
29.1073 4.375
29.1376 3.333
29.1679 3.854
29.1981 4.010
29.2284 4.219
29.2587 3.646
29.2890 3.802
29.3193 4.167
29.3495 3.906
29.3798 4.375
29.4101 3.646
29.4404 3.229
29.4707 3.490
29.5009 3.646
29.5312 4.115
29.5615 3.594
29.5918 4.062
29.6221 3.854
29.6523 4.115
29.6826 3.958
29.7129 3.854
29.7432 3.437
29.7734 3.802
29.8037 3.229
29.8340 2.865
29.8643 3.750
29.8946 4.062
29.9248 4.219
29.9551 2.708
29.9854 4.323
30.0157 3.333
30.0460 3.646
30.0762 3.750
30.1065 4.167
30.1368 3.958
30.1671 3.854
30.1973 3.177
30.2276 3.281
30.2579 3.958
30.2882 4.271
30.3185 3.906
30.3487 3.906
30.3790 3.490
30.4093 3.750
30.4396 3.802
30.4699 3.333
30.5001 4.375
30.5304 4.687
30.5607 4.323
30.5910 3.437
30.6212 4.427
30.6515 4.115
30.6818 3.385
30.7121 3.385
30.7424 4.010
30.7726 5.052
30.8029 4.375
30.8332 4.010
30.8635 4.010
30.8938 4.948
30.9240 4.948
30.9543 4.635
30.9846 4.635
31.0149 5.677
31.0451 5.521
31.0754 5.000
31.1057 5.990
31.1360 4.896
31.1663 5.573
31.1965 5.937
31.2268 5.885
31.2571 7.552
31.2874 8.333
31.3177 7.135
31.3479 9.271
31.3782 8.542
31.4085 11.094
31.4388 12.240
31.4690 10.521
31.4993 15.937
31.5296 18.073
31.5599 18.385
31.5902 21.927
31.6204 22.812
31.6507 24.583
31.6810 23.385
31.7113 24.427
31.7416 22.135
31.7718 21.250
31.8021 18.229
31.8324 15.781
31.8627 15.365
31.8929 11.719
31.9232 10.521
31.9535 9.948
31.9838 10.052
32.0141 8.281
32.0443 7.812
32.0746 7.396
32.1049 8.958
32.1352 9.844
32.1655 8.333
32.1957 7.708
32.2260 8.490
32.2563 8.802
32.2866 8.958
32.3169 8.385
32.3471 7.917
32.3774 8.594
32.4077 6.615
32.4380 7.396
32.4682 8.906
32.4985 7.760
32.5288 7.656
32.5591 7.031
32.5894 8.281
32.6196 8.490
32.6499 10.156
32.6802 10.625
32.7105 12.552
32.7408 15.729
32.7710 20.573
32.8013 22.865
32.8316 23.906
32.8619 22.448
32.8921 20.208
32.9224 18.333
32.9527 15.000
32.9830 12.031
33.0133 11.250
33.0435 10.365
33.0738 9.844
33.1041 8.385
33.1344 7.083
33.1647 7.969
33.1949 7.865
33.2252 6.198
33.2555 6.406
33.2858 5.990
33.3160 5.885
33.3463 6.719
33.3766 6.719
33.4069 6.667
33.4372 6.146
33.4674 5.208
33.4977 5.573
33.5280 4.687
33.5583 6.458
33.5886 5.000
33.6188 5.521
33.6491 4.896
33.6794 5.365
33.7097 7.135
33.7399 6.302
33.7702 6.667
33.8005 6.146
33.8308 5.990
33.8611 7.656
33.8913 6.302
33.9216 6.302
33.9519 7.031
33.9822 6.510
34.0125 7.396
34.0427 8.750
34.0730 7.448
34.1033 8.958
34.1336 9.219
34.1638 12.031
34.1941 13.281
34.2244 14.427
34.2547 20.000
34.2850 21.771
34.3152 25.208
34.3455 26.510
34.3758 23.073
34.4061 21.771
34.4364 18.698
34.4666 16.302
34.4969 13.437
34.5272 12.604
34.5575 11.719
34.5877 10.937
34.6180 12.500
34.6483 9.479
34.6786 11.406
34.7089 10.729
34.7391 12.448
34.7694 12.135
34.7997 11.979
34.8300 12.292
34.8603 12.187
34.8905 15.937
34.9208 15.677
34.9511 16.875
34.9814 21.562
35.0116 20.573
35.0419 21.979
35.0722 22.031
35.1025 21.719
35.1328 18.854
35.1630 18.281
35.1933 14.219
35.2236 14.010
35.2539 11.719
35.2842 11.250
35.3144 10.469
35.3447 10.208
35.3750 8.073
35.4053 8.229
35.4356 7.656
35.4658 8.490
35.4961 7.344
35.5264 7.812
35.5567 8.802
35.5869 8.177
35.6172 8.490
35.6475 10.260
35.6778 9.271
35.7081 8.437
35.7383 10.260
35.7686 10.312
35.7989 9.896
35.8292 10.208
35.8595 14.115
35.8897 13.594
35.9200 13.906
35.9503 17.083
35.9806 18.437
36.0108 22.083
36.0411 24.010
36.0714 27.344
36.1017 29.167
36.1320 30.000
36.1622 33.229
36.1925 31.354
36.2228 31.302
36.2531 28.437
36.2834 25.260
36.3136 25.469
36.3439 20.625
36.3742 17.344
36.4045 15.469
36.4347 12.969
36.4650 11.406
36.4953 10.885
36.5256 10.677
36.5559 8.125
36.5861 8.802
36.6164 6.458
36.6467 5.833
36.6770 6.771
36.7073 6.198
36.7375 4.948
36.7678 4.375
36.7981 5.781
36.8284 5.312
36.8586 4.167
36.8889 5.990
36.9192 5.104
36.9495 4.844
36.9798 5.208
37.0100 4.167
37.0403 5.156
37.0706 4.948
37.1009 5.208
37.1312 4.167
37.1614 4.531
37.1917 4.219
37.2220 4.167
37.2523 4.167
37.2825 4.635
37.3128 4.687
37.3431 5.469
37.3734 4.062
37.4037 4.948
37.4339 3.958
37.4642 4.219
37.4945 4.479
37.5248 4.323
37.5551 4.323
37.5853 4.115
37.6156 3.906
37.6459 4.010
37.6762 3.437
37.7064 3.490
37.7367 4.115
37.7670 3.906
37.7973 3.177
37.8276 3.906
37.8578 4.115
37.8881 3.646
37.9184 3.437
37.9487 3.177
37.9790 3.281
38.0092 2.760
38.0395 4.115
38.0698 2.917
38.1001 3.542
38.1304 3.750
38.1606 3.594
38.1909 3.698
38.2212 3.646
38.2515 2.917
38.2817 2.969
38.3120 3.281
38.3423 3.437
38.3726 2.969
38.4029 2.396
38.4331 3.281
38.4634 3.542
38.4937 2.917
38.5240 2.656
38.5543 2.344
38.5845 2.917
38.6148 2.917
38.6451 2.552
38.6754 2.760
38.7056 3.490
38.7359 3.021
38.7662 3.177
38.7965 2.604
38.8268 3.021
38.8570 2.187
38.8873 3.385
38.9176 3.177
38.9479 3.125
38.9782 3.542
39.0084 2.812
39.0387 3.750
39.0690 2.969
39.0993 2.917
39.1295 3.125
39.1598 2.969
39.1901 2.969
39.2204 2.396
39.2507 2.135
39.2809 3.281
39.3112 3.021
39.3415 2.969
39.3718 2.552
39.4021 2.969
39.4323 2.917
39.4626 2.187
39.4929 2.969
39.5232 2.969
39.5534 2.917
39.5837 2.552
39.6140 2.812
39.6443 2.812
39.6746 3.021
39.7048 3.229
39.7351 2.760
39.7654 3.125
39.7957 3.125
39.8260 3.073
39.8562 2.552
39.8865 3.021
39.9168 2.500
39.9471 2.760
39.9773 2.812
40.0076 3.125
40.0379 3.229
40.0682 2.552
40.0985 3.281
40.1287 2.917
40.1590 2.760
40.1893 3.594
40.2196 2.552
40.2499 2.448
40.2801 3.437
40.3104 3.385
40.3407 3.073
40.3710 2.552
40.4012 2.865
40.4315 3.437
40.4618 3.437
40.4921 3.177
40.5224 3.490
40.5526 2.969
40.5829 3.125
40.6132 3.542
40.6435 4.219
40.6738 3.594
40.7040 4.115
40.7343 4.583
40.7646 4.740
40.7949 4.844
40.8251 4.792
40.8554 5.417
40.8857 5.521
40.9160 6.042
40.9463 6.146
40.9765 6.562
41.0068 6.458
41.0371 7.656
41.0674 8.542
41.0977 6.979
41.1279 6.927
41.1582 7.708
41.1885 6.354
41.2188 6.771
41.2491 5.260
41.2793 5.000
41.3096 5.208
41.3399 4.844
41.3702 3.854
41.4004 3.437
41.4307 3.750
41.4610 3.229
41.4913 3.490
41.5216 3.802
41.5518 3.229
41.5821 3.021
41.6124 3.594
41.6427 3.333
41.6730 2.969
41.7032 3.490
41.7335 2.031
41.7638 3.490
41.7941 2.500
41.8243 2.917
41.8546 2.552
41.8849 2.865
41.9152 2.760
41.9455 2.812
41.9757 3.854
42.0060 3.750
42.0363 2.708
42.0666 2.708
42.0969 2.604
42.1271 3.229
42.1574 2.760
42.1877 3.229
42.2180 2.760
42.2482 2.708
42.2785 3.021
42.3088 3.021
42.3391 2.708
42.3694 2.656
42.3996 2.135
42.4299 1.875
42.4602 2.917
42.4905 3.698
42.5208 3.229
42.5510 2.344
42.5813 2.396
42.6116 2.708
42.6419 3.125
42.6721 2.396
42.7024 2.969
42.7327 2.187
42.7630 2.083
42.7933 2.500
42.8235 2.396
42.8538 2.344
42.8841 3.281
42.9144 2.396
42.9447 2.396
42.9749 2.396
43.0052 2.552
43.0355 3.073
43.0658 2.240
43.0960 2.604
43.1263 2.292
43.1566 2.500
43.1869 1.771
43.2172 3.177
43.2474 2.240
43.2777 3.229
43.3080 2.812
43.3383 1.875
43.3686 2.708
43.3988 3.281
43.4291 2.917
43.4594 2.708
43.4897 2.969
43.5199 2.448
43.5502 2.396
43.5805 2.396
43.6108 2.448
43.6411 2.917
43.6713 2.344
43.7016 2.760
43.7319 2.812
43.7622 2.865
43.7925 2.448
43.8227 2.396
43.8530 2.187
43.8833 2.135
43.9136 2.083
43.9439 2.240
43.9741 2.500
44.0044 2.812
44.0347 2.448
44.0650 2.865
44.0952 3.073
44.1255 1.979
44.1558 2.708
44.1861 2.552
44.2164 2.552
44.2466 2.292
44.2769 3.073
44.3072 2.812
44.3375 2.760
44.3678 2.760
44.3980 2.812
44.4283 2.812
44.4586 2.656
44.4889 2.292
44.5191 2.656
44.5494 2.448
44.5797 2.552
44.6100 2.396
44.6403 2.292
44.6705 2.865
44.7008 2.865
44.7311 3.490
44.7614 2.604
44.7917 3.281
44.8219 2.604
44.8522 2.604
44.8825 3.333
44.9128 2.917
44.9430 3.281
44.9733 3.333
45.0036 2.812
45.0339 3.021
45.0642 3.594
45.0944 3.490
45.1247 3.698
45.1550 2.969
45.1853 3.333
45.2156 3.125
45.2458 3.021
45.2761 2.917
45.3064 3.281
45.3367 3.281
45.3669 1.979
45.3972 2.760
45.4275 3.229
45.4578 2.656
45.4881 2.969
45.5183 2.344
45.5486 3.177
45.5789 2.396
45.6092 2.812
45.6395 3.073
45.6697 2.500
45.7000 2.812
45.7303 2.656
45.7606 2.604
45.7908 2.187
45.8211 2.500
45.8514 2.656
45.8817 2.240
45.9120 2.448
45.9422 1.615
45.9725 2.344
46.0028 2.240
46.0331 2.396
46.0634 2.708
46.0936 2.240
46.1239 2.448
46.1542 1.875
46.1845 2.500
46.2147 2.500
46.2450 2.448
46.2753 2.552
46.3056 2.812
46.3359 2.135
46.3661 2.344
46.3964 2.292
46.4267 3.281
46.4570 1.979
46.4873 2.865
46.5175 2.708
46.5478 2.969
46.5781 3.281
46.6084 2.187
46.6386 2.344
46.6689 2.448
46.6992 2.240
46.7295 3.021
46.7598 3.385
46.7900 3.333
46.8203 2.552
46.8506 3.490
46.8809 2.865
46.9112 2.969
46.9414 4.375
46.9717 3.490
47.0020 4.219
47.0323 3.594
47.0626 3.177
47.0928 4.635
47.1231 4.115
47.1534 4.583
47.1837 4.635
47.2139 4.323
47.2442 5.260
47.2745 5.677
47.3048 4.844
47.3351 5.208
47.3653 5.573
47.3956 5.937
47.4259 6.146
47.4562 5.573
47.4865 4.792
47.5167 4.323
47.5470 6.250
47.5773 5.521
47.6076 5.625
47.6378 4.375
47.6681 3.646
47.6984 4.479
47.7287 4.271
47.7590 3.281
47.7892 4.271
47.8195 4.948
47.8498 4.062
47.8801 4.062
47.9104 3.437
47.9406 3.437
47.9709 3.125
48.0012 3.802
48.0315 2.760
48.0617 3.125
48.0920 3.177
48.1223 2.240
48.1526 2.656
48.1829 3.802
48.2131 2.187
48.2434 2.656
48.2737 3.333
48.3040 3.646
48.3343 2.969
48.3645 3.281
48.3948 3.229
48.4251 3.073
48.4554 3.646
48.4856 3.021
48.5159 3.542
48.5462 3.542
48.5765 2.656
48.6068 2.969
48.6370 2.969
48.6673 2.812
48.6976 2.656
48.7279 2.500
48.7582 3.542
48.7884 3.177
48.8187 4.115
48.8490 4.479
48.8793 3.594
48.9095 4.115
48.9398 3.177
48.9701 4.844
49.0004 3.229
49.0307 2.708
49.0609 3.698
49.0912 3.906
49.1215 3.646
49.1518 4.896
49.1821 3.906
49.2123 3.958
49.2426 4.323
49.2729 3.542
49.3032 5.365
49.3334 4.844
49.3637 3.906
49.3940 4.062
49.4243 4.167
49.4546 5.417
49.4848 4.115
49.5151 4.115
49.5454 5.104
49.5757 5.625
49.6060 5.990
49.6362 5.052
49.6665 6.875
49.6968 5.000
49.7271 6.302
49.7574 6.406
49.7876 5.573
49.8179 5.990
49.8482 5.677
49.8785 5.625
49.9087 6.302
49.9390 5.208
49.9693 6.667
49.9996 5.052
50.0299 5.469
50.0601 4.687
50.0904 4.167
50.1207 4.687
50.1510 4.062
50.1813 4.323
50.2115 4.062
50.2418 3.958
50.2721 4.219
50.3024 4.687
50.3326 3.854
50.3629 3.906
50.3932 4.167
50.4235 3.177
50.4538 3.490
50.4840 3.646
50.5143 3.646
50.5446 3.802
50.5749 3.021
50.6052 2.917
50.6354 3.750
50.6657 3.125
50.6960 3.490
50.7263 3.281
50.7565 3.698
50.7868 3.177
50.8171 3.385
50.8474 2.969
50.8777 2.708
50.9079 2.604
50.9382 3.646
50.9685 2.552
50.9988 2.708
51.0291 2.865
51.0593 3.073
51.0896 2.969
51.1199 3.385
51.1502 2.812
51.1804 2.344
51.2107 2.812
51.2410 2.812
51.2713 3.802
51.3016 2.812
51.3318 3.021
51.3621 3.177
51.3924 3.177
51.4227 2.187
51.4530 2.396
51.4832 2.708
51.5135 2.344
51.5438 3.177
51.5741 2.812
51.6043 2.656
51.6346 3.073
51.6649 3.073
51.6952 3.437
51.7255 2.760
51.7557 3.125
51.7860 4.115
51.8163 4.375
51.8466 3.385
51.8769 4.323
51.9071 3.958
51.9374 4.792
51.9677 4.583
51.9980 3.906
52.0282 4.167
52.0585 4.635
52.0888 3.750
52.1191 3.437
52.1494 4.062
52.1796 3.333
52.2099 3.906
52.2402 3.802
52.2705 3.542
52.3008 2.135
52.3310 3.594
52.3613 2.708
52.3916 2.500
52.4219 3.177
52.4521 2.292
52.4824 3.333
52.5127 2.604
52.5430 3.073
52.5733 3.021
52.6035 2.083
52.6338 3.021
52.6641 3.125
52.6944 2.031
52.7247 2.708
52.7549 2.917
52.7852 2.969
52.8155 2.604
52.8458 2.031
52.8761 3.333
52.9063 2.604
52.9366 2.760
52.9669 2.344
52.9972 2.604
53.0274 2.656
53.0577 2.083
53.0880 2.396
53.1183 2.031
53.1486 2.448
53.1788 3.021
53.2091 2.760
53.2394 3.073
53.2697 1.875
53.3000 2.552
53.3302 2.396
53.3605 2.708
53.3908 1.979
53.4211 2.604
53.4513 3.490
53.4816 2.552
53.5119 2.448
53.5422 3.385
53.5725 1.823
53.6027 2.344
53.6330 2.292
53.6633 2.240
53.6936 2.969
53.7239 2.135
53.7541 2.031
53.7844 2.552
53.8147 2.344
53.8450 3.125
53.8752 2.448
53.9055 3.333
53.9358 1.927
53.9661 2.865
53.9964 2.917
54.0266 2.396
54.0569 2.292
54.0872 2.187
54.1175 3.125
54.1478 2.187
54.1780 2.031
54.2083 2.604
54.2386 3.229
54.2689 2.969
54.2991 2.500
54.3294 1.979
54.3597 2.031
54.3900 2.292
54.4203 2.448
54.4505 2.656
54.4808 2.865
54.5111 2.656
54.5414 2.396
54.5717 2.396
54.6019 2.448
54.6322 2.396
54.6625 2.969
54.6928 2.135
54.7230 2.396
54.7533 2.187
54.7836 2.708
54.8139 2.396
54.8442 2.135
54.8744 2.187
54.9047 2.500
54.9350 3.073
54.9653 2.240
54.9956 1.979
55.0258 2.344
55.0561 2.708
55.0864 2.448
55.1167 2.448
55.1469 2.656
55.1772 2.656
55.2075 2.448
55.2378 2.552
55.2681 2.344
55.2983 1.979
55.3286 2.865
55.3589 2.396
55.3892 2.448
55.4195 2.500
55.4497 1.979
55.4800 2.708
55.5103 3.333
55.5406 3.125
55.5709 3.177
55.6011 2.969
55.6314 2.604
55.6617 2.812
55.6920 3.021
55.7222 2.344
55.7525 3.229
55.7828 2.708
55.8131 2.760
55.8434 3.021
55.8736 3.177
55.9039 3.698
55.9342 3.698
55.9645 2.448
55.9948 3.906
56.0250 4.219
56.0553 3.125
56.0856 4.896
56.1159 5.052
56.1461 5.625
56.1764 5.312
56.2067 5.677
56.2370 6.979
56.2673 6.458
56.2975 8.125
56.3278 9.948
56.3581 8.698
56.3884 10.625
56.4187 10.885
56.4489 11.354
56.4792 10.000
56.5095 9.896
56.5398 10.885
56.5700 11.510
56.6003 10.365
56.6306 9.896
56.6609 8.802
56.6912 8.490
56.7214 7.552
56.7517 6.198
56.7820 6.615
56.8123 5.781
56.8426 4.531
56.8728 5.156
56.9031 4.687
56.9334 4.115
56.9637 4.896
56.9939 4.010
57.0242 3.854
57.0545 3.802
57.0848 3.906
57.1151 3.385
57.1453 3.646
57.1756 3.021
57.2059 3.177
57.2362 3.750
57.2665 3.542
57.2967 2.969
57.3270 3.281
57.3573 2.865
57.3876 2.760
57.4178 2.917
57.4481 2.292
57.4784 2.812
57.5087 2.708
57.5390 2.917
57.5692 2.812
57.5995 3.437
57.6298 2.604
57.6601 2.865
57.6904 2.448
57.7206 2.500
57.7509 2.969
57.7812 2.135
57.8115 2.865
57.8417 2.552
57.8720 3.125
57.9023 2.917
57.9326 3.333
57.9629 3.021
57.9931 3.177
58.0234 2.552
58.0537 2.812
58.0840 3.229
58.1143 3.021
58.1445 3.802
58.1748 2.969
58.2051 3.437
58.2354 5.000
58.2656 3.906
58.2959 3.125
58.3262 5.000
58.3565 4.271
58.3868 5.312
58.4170 5.365
58.4473 5.781
58.4776 6.146
58.5079 5.885
58.5382 6.458
58.5684 7.083
58.5987 8.437
58.6290 9.583
58.6593 9.583
58.6896 9.948
58.7198 7.760
58.7501 7.187
58.7804 7.812
58.8107 7.865
58.8409 5.937
58.8712 6.510
58.9015 5.052
58.9318 6.875
58.9621 3.490
58.9923 4.635
59.0226 3.802
59.0529 4.583
59.0832 4.479
59.1135 4.427
59.1437 3.906
59.1740 3.542
59.2043 3.542
59.2346 4.062
59.2648 4.010
59.2951 2.865
59.3254 4.219
59.3557 3.542
59.3860 3.385
59.4162 4.010
59.4465 4.271
59.4768 3.542
59.5071 3.021
59.5374 3.906
59.5676 4.583
59.5979 3.490
59.6282 4.323
59.6585 3.594
59.6887 3.437
59.7190 5.156
59.7493 5.000
59.7796 3.698
59.8099 4.635
59.8401 3.646
59.8704 4.948
59.9007 4.323
59.9310 3.385
59.9613 5.521
59.9915 5.521
60.0218 5.469
60.0521 6.823
60.0824 6.719
60.1126 6.875
60.1429 6.458
60.1732 7.500
60.2035 6.562
60.2338 6.146
60.2640 7.396
60.2943 6.875
60.3246 6.302
60.3549 5.885
60.3852 5.260
60.4154 5.000
60.4457 5.104
60.4760 5.312
60.5063 4.583
60.5365 4.844
60.5668 4.687
60.5971 5.469
60.6274 3.125
60.6577 3.906
60.6879 3.802
60.7182 3.854
60.7485 2.760
60.7788 2.969
60.8091 2.708
60.8393 4.062
60.8696 3.281
60.8999 3.177
60.9302 3.490
60.9604 3.125
60.9907 3.802
61.0210 2.604
61.0513 3.021
61.0816 3.177
61.1118 2.969
61.1421 2.969
61.1724 3.906
61.2027 3.281
61.2330 2.865
61.2632 3.073
61.2935 3.802
61.3238 4.062
61.3541 3.594
61.3844 3.542
61.4146 4.271
61.4449 3.854
61.4752 3.229
61.5055 2.812
61.5357 2.917
61.5660 3.073
61.5963 3.021
61.6266 2.604
61.6569 2.552
61.6871 3.437
61.7174 2.448
61.7477 2.604
61.7780 2.552
61.8083 3.490
61.8385 2.708
61.8688 3.333
61.8991 3.281
61.9294 3.021
61.9596 3.490
61.9899 2.500
62.0202 3.021
62.0505 3.073
62.0808 2.656
62.1110 3.490
62.1413 3.490
62.1716 3.281
62.2019 3.906
62.2322 2.708
62.2624 3.594
62.2927 3.542
62.3230 3.542
62.3533 4.427
62.3835 3.750
62.4138 3.854
62.4441 4.583
62.4744 4.635
62.5047 4.323
62.5349 5.469
62.5652 5.729
62.5955 5.417
62.6258 7.031
62.6561 6.875
62.6863 6.562
62.7166 6.771
62.7469 7.187
62.7772 5.990
62.8074 6.875
62.8377 6.615
62.8680 5.885
62.8983 6.979
62.9286 5.677
62.9588 5.156
62.9891 5.156
63.0194 5.677
63.0497 4.583
63.0800 4.844
63.1102 4.687
63.1405 4.115
63.1708 3.750
63.2011 3.906
63.2313 3.437
63.2616 3.698
63.2919 3.125
63.3222 3.385
63.3525 2.604
63.3827 2.552
63.4130 2.344
63.4433 3.281
63.4736 1.927
63.5039 3.073
63.5341 2.448
63.5644 2.448
63.5947 2.969
63.6250 2.240
63.6552 3.125
63.6855 2.969
63.7158 2.812
63.7461 2.552
63.7764 2.135
63.8066 2.396
63.8369 2.969
63.8672 2.135
63.8975 2.396
63.9278 2.135
63.9580 2.240
63.9883 3.021
64.0186 3.073
64.0489 1.927
64.0791 2.656
64.1094 1.927
64.1397 3.229
64.1700 2.760
64.2003 2.708
64.2305 2.552
64.2608 2.292
64.2911 2.500
64.3214 2.292
64.3517 2.448
64.3819 2.448
64.4122 2.396
64.4425 2.656
64.4728 1.927
64.5031 2.604
64.5333 2.500
64.5636 2.031
64.5939 1.458
64.6242 2.448
64.6544 2.083
64.6847 2.812
64.7150 1.927
64.7453 2.135
64.7756 1.875
64.8058 2.135
64.8361 1.562
64.8664 1.979
64.8967 1.615
64.9270 1.354
64.9572 2.448
64.9875 2.448
65.0178 2.292
65.0481 1.875
65.0783 2.031
65.1086 1.979
65.1389 1.979
65.1692 2.292
65.1995 1.823
65.2297 1.875
65.2600 2.135
65.2903 2.187
65.3206 1.615
65.3509 1.615
65.3811 1.927
65.4114 1.979
65.4417 1.615
65.4720 2.292
65.5022 2.031
65.5325 2.031
65.5628 1.875
65.5931 1.875
65.6234 2.187
65.6536 2.396
65.6839 1.979
65.7142 2.240
65.7445 2.760
65.7748 1.875
65.8050 2.500
65.8353 1.979
65.8656 2.396
65.8959 2.344
65.9261 2.187
65.9564 2.396
65.9867 2.448
66.0170 2.552
66.0473 3.646
66.0775 2.604
66.1078 3.073
66.1381 2.083
66.1684 2.552
66.1987 2.604
66.2289 1.875
66.2592 2.396
66.2895 2.812
66.3198 2.708
66.3500 2.917
66.3803 2.344
66.4106 2.760
66.4409 2.917
66.4712 2.917
66.5014 2.135
66.5317 2.344
66.5620 2.135
66.5923 1.458
66.6226 2.240
66.6528 2.187
66.6831 1.823
66.7134 2.448
66.7437 2.292
66.7739 2.500
66.8042 1.875
66.8345 2.135
66.8648 1.823
66.8951 1.979
66.9253 2.448
66.9556 1.979
66.9859 2.396
67.0162 2.292
67.0465 2.292
67.0767 2.396
67.1070 2.448
67.1373 2.604
67.1676 2.396
67.1978 2.344
67.2281 2.396
67.2584 2.656
67.2887 2.552
67.3190 2.292
67.3492 3.021
67.3795 3.542
67.4098 3.385
67.4401 3.437
67.4704 3.333
67.5006 3.490
67.5309 5.104
67.5612 4.010
67.5915 4.583
67.6218 5.260
67.6520 5.729
67.6823 5.677
67.7126 6.354
67.7429 6.302
67.7731 6.406
67.8034 5.990
67.8337 5.781
67.8640 5.781
67.8943 6.458
67.9245 6.042
67.9548 7.448
67.9851 6.354
68.0154 4.687
68.0457 4.948
68.0759 4.948
68.1062 5.000
68.1365 4.531
68.1668 3.906
68.1970 4.219
68.2273 3.854
68.2576 3.385
68.2879 3.802
68.3182 3.125
68.3484 3.333
68.3787 2.187
68.4090 2.344
68.4393 3.490
68.4696 2.760
68.4998 3.229
68.5301 3.281
68.5604 3.490
68.5907 3.385
68.6209 3.177
68.6512 4.062
68.6815 4.115
68.7118 3.958
68.7421 3.646
68.7723 4.167
68.8026 4.323
68.8329 4.687
68.8632 4.010
68.8935 4.427
68.9237 4.896
68.9540 4.167
68.9843 5.104
69.0146 4.635
69.0448 5.417
69.0751 4.375
69.1054 3.646
69.1357 4.010
69.1660 3.437
69.1962 4.271
69.2265 3.594
69.2568 3.854
69.2871 2.448
69.3174 2.812
69.3476 2.292
69.3779 2.760
69.4082 3.646
69.4385 2.187
69.4687 2.812
69.4990 2.187
69.5293 2.760
69.5596 2.812
69.5899 2.031
69.6201 2.240
69.6504 2.812
69.6807 2.760
69.7110 2.969
69.7413 2.292
69.7715 2.812
69.8018 2.396
69.8321 2.760
69.8624 3.437
69.8926 2.187
69.9229 2.552
69.9532 2.240
69.9835 2.448
70.0138 1.979
70.0440 2.083
70.0743 3.229
70.1046 2.396
70.1349 2.969
70.1652 2.917
70.1954 3.698
70.2257 3.177
70.2560 2.552
70.2863 3.281
70.3166 2.500
70.3468 2.656
70.3771 3.385
70.4074 3.281
70.4377 3.021
70.4679 2.344
70.4982 2.344
70.5285 2.187
70.5588 2.292
70.5891 2.500
70.6193 1.771
70.6496 2.344
70.6799 1.927
70.7102 2.917
70.7405 1.823
70.7707 2.604
70.8010 2.031
70.8313 1.667
70.8616 1.927
70.8918 2.083
70.9221 1.667
70.9524 2.083
70.9827 2.031
71.0130 2.187
71.0432 2.031
71.0735 2.292
71.1038 2.292
71.1341 2.031
71.1644 2.083
71.1946 1.615
71.2249 2.917
71.2552 1.458
71.2855 1.979
71.3157 2.344
71.3460 2.240
71.3763 1.927
71.4066 1.979
71.4369 2.552
71.4671 2.552
71.4974 2.344
71.5277 1.979
71.5580 2.031
71.5883 1.667
71.6185 1.875
71.6488 1.562
71.6791 1.562
71.7094 1.771
71.7396 2.135
71.7699 1.510
71.8002 1.667
71.8305 1.771
71.8608 1.771
71.8910 1.562
71.9213 1.198
71.9516 1.354
71.9819 1.250
72.0122 1.979
72.0424 1.875
72.0727 2.031
72.1030 1.875
72.1333 2.396
72.1635 2.500
72.1938 1.823
72.2241 1.771
72.2544 1.875
72.2847 2.031
72.3149 2.656
72.3452 1.927
72.3755 2.500
72.4058 2.292
72.4361 2.135
72.4663 2.344
72.4966 2.240
72.5269 2.083
72.5572 1.615
72.5874 2.292
72.6177 2.187
72.6480 2.292
72.6783 2.135
72.7086 2.031
72.7388 1.823
72.7691 2.344
72.7994 2.240
72.8297 2.135
72.8600 2.500
72.8902 2.135
72.9205 2.083
72.9508 2.604
72.9811 2.031
73.0113 1.927
73.0416 1.719
73.0719 1.719
73.1022 2.083
73.1325 2.552
73.1627 2.083
73.1930 1.719
73.2233 1.719
73.2536 1.406
73.2839 1.927
73.3141 1.562
73.3444 1.562
73.3747 1.250
73.4050 1.562
73.4353 1.875
73.4655 1.719
73.4958 2.135
73.5261 1.667
73.5564 2.240
73.5866 1.510
73.6169 1.823
73.6472 1.771
73.6775 1.927
73.7078 1.615
73.7380 1.875
73.7683 0.885
73.7986 1.927
73.8289 2.552
73.8592 1.667
73.8894 1.719
73.9197 2.031
73.9500 2.187
73.9803 1.927
74.0105 1.719
74.0408 2.292
74.0711 1.771
74.1014 1.667
74.1317 2.344
74.1619 2.031
74.1922 1.302
74.2225 1.615
74.2528 1.719
74.2831 1.458
74.3133 2.292
74.3436 1.354
74.3739 1.406
74.4042 1.771
74.4344 1.458
74.4647 1.927
74.4950 1.615
74.5253 1.927
74.5556 1.458
74.5858 1.146
74.6161 1.667
74.6464 2.083
74.6767 1.146
74.7070 1.927
74.7372 1.719
74.7675 1.510
74.7978 1.667
74.8281 1.094
74.8583 1.198
74.8886 1.406
74.9189 1.354
74.9492 1.458
74.9795 1.406
75.0097 1.823
75.0400 1.510
75.0703 1.875
75.1006 1.562
75.1309 1.823
75.1611 1.458
75.1914 1.927
75.2217 1.927
75.2520 1.615
75.2822 1.146
75.3125 1.406
75.3428 1.667
75.3731 1.719
75.4034 1.198
75.4336 1.719
75.4639 1.510
75.4942 1.198
75.5245 1.979
75.5548 1.510
75.5850 1.875
75.6153 1.354
75.6456 1.302
75.6759 0.990
75.7061 1.198
75.7364 1.302
75.7667 1.458
75.7970 1.875
75.8273 1.719
75.8575 1.458
75.8878 2.031
75.9181 1.510
75.9484 1.458
75.9787 1.406
76.0089 1.927
76.0392 1.510
76.0695 1.771
76.0998 1.667
76.1301 1.562
76.1603 1.875
76.1906 1.667
76.2209 1.458
76.2512 1.458
76.2814 2.031
76.3117 1.615
76.3420 2.083
76.3723 1.979
76.4026 1.667
76.4328 1.615
76.4631 1.771
76.4934 1.406
76.5237 1.927
76.5540 1.667
76.5842 1.823
76.6145 0.990
76.6448 1.875
76.6751 2.240
76.7053 1.719
76.7356 2.292
76.7659 2.396
76.7962 1.510
76.8265 2.083
76.8567 1.927
76.8870 2.031
76.9173 1.979
76.9476 2.396
76.9779 1.667
77.0081 1.771
77.0384 1.979
77.0687 1.771
77.0990 2.135
77.1292 2.031
77.1595 1.927
77.1898 1.927
77.2201 2.083
77.2504 1.354
77.2806 1.979
77.3109 1.510
77.3412 1.562
77.3715 2.083
77.4018 1.458
77.4320 1.667
77.4623 1.458
77.4926 1.719
77.5229 1.458
77.5531 1.510
77.5834 2.135
77.6137 1.458
77.6440 1.667
77.6743 1.667
77.7045 1.719
77.7348 1.823
77.7651 1.406
77.7954 1.458
77.8257 1.198
77.8559 1.250
77.8862 1.667
77.9165 1.667
77.9468 1.615
77.9770 1.458
78.0073 1.354
78.0376 1.875
78.0679 1.875
78.0982 1.615
78.1284 1.719
78.1587 0.990
78.1890 1.823
78.2193 1.562
78.2496 1.667
78.2798 1.615
78.3101 1.719
78.3404 2.031
78.3707 1.615
78.4009 1.823
78.4312 1.458
78.4615 1.510
78.4918 1.927
78.5221 1.615
78.5523 1.094
78.5826 1.250
78.6129 1.510
78.6432 2.292
78.6735 1.354
78.7037 1.615
78.7340 1.615
78.7643 1.302
78.7946 1.250
78.8248 1.510
78.8551 1.615
78.8854 1.198
78.9157 1.250
78.9460 1.667
78.9762 1.510
79.0065 1.406
79.0368 2.031
79.0671 1.979
79.0974 1.094
79.1276 1.250
79.1579 1.823
79.1882 2.135
79.2185 1.406
79.2488 1.510
79.2790 1.354
79.3093 1.979
79.3396 1.719
79.3699 1.771
79.4001 1.302
79.4304 1.667
79.4607 1.458
79.4910 1.927
79.5213 1.354
79.5515 1.458
79.5818 1.615
79.6121 1.354
79.6424 1.667
79.6727 1.406
79.7029 1.562
79.7332 1.719
79.7635 1.771
79.7938 1.406
79.8240 1.562
79.8543 1.615
79.8846 1.615
79.9149 1.302
79.9452 1.198
79.9754 1.823
80.0057 1.823
80.0360 1.458
80.0663 1.927
80.0966 1.927
80.1268 2.135
80.1571 1.615
80.1874 1.667
80.2177 2.448
80.2479 1.823
80.2782 1.771
80.3085 1.771
80.3388 2.292
80.3691 1.823
80.3993 2.708
80.4296 1.979
80.4599 2.292
80.4902 2.135
80.5205 1.719
80.5507 2.500
80.5810 1.927
80.6113 1.615
80.6416 1.771
80.6718 2.187
80.7021 2.292
80.7324 1.615
80.7627 2.135
80.7930 2.135
80.8232 1.615
80.8535 2.135
80.8838 2.135
80.9141 2.135
80.9444 1.875
80.9746 2.135
81.0049 2.396
81.0352 2.083
81.0655 1.615
81.0957 2.135
81.1260 1.562
81.1563 1.354
81.1866 1.510
81.2169 1.615
81.2471 1.875
81.2774 1.667
81.3077 1.823
81.3380 1.146
81.3683 1.354
81.3985 2.031
81.4288 1.458
81.4591 1.875
81.4894 1.667
81.5196 1.875
81.5499 1.406
81.5802 1.719
81.6105 1.823
81.6408 2.135
81.6710 1.667
81.7013 1.823
81.7316 1.562
81.7619 1.979
81.7922 1.719
81.8224 1.406
81.8527 2.135
81.8830 1.823
81.9133 1.875
81.9436 1.302
81.9738 1.823
82.0041 2.031
82.0344 1.875
82.0647 1.406
82.0949 1.198
82.1252 1.302
82.1555 1.771
82.1858 1.719
82.2161 1.250
82.2463 1.354
82.2766 1.979
82.3069 1.927
82.3372 1.979
82.3675 1.250
82.3977 1.042
82.4280 2.135
82.4583 1.823
82.4886 2.031
82.5188 1.458
82.5491 1.667
82.5794 1.823
82.6097 1.406
82.6400 1.198
82.6702 1.667
82.7005 1.719
82.7308 1.875
82.7611 1.302
82.7914 1.875
82.8216 1.198
82.8519 1.562
82.8822 1.406
82.9125 2.031
82.9427 1.458
82.9730 0.990
83.0033 1.406
83.0336 1.771
83.0639 1.198
83.0941 1.302
83.1244 1.198
83.1547 1.562
83.1850 1.198
83.2153 1.406
83.2455 1.615
83.2758 1.406
83.3061 2.031
83.3364 1.406
83.3666 1.198
83.3969 1.458
83.4272 1.667
83.4575 1.406
83.4878 1.615
83.5180 1.562
83.5483 1.667
83.5786 1.979
83.6089 1.719
83.6392 1.250
83.6694 1.094
83.6997 1.458
83.7300 1.823
83.7603 1.302
83.7905 1.719
83.8208 1.406
83.8511 1.719
83.8814 2.031
83.9117 1.823
83.9419 1.198
83.9722 1.510
84.0025 1.354
84.0328 1.458
84.0631 1.771
84.0933 1.562
84.1236 1.667
84.1539 1.719
84.1842 1.510
84.2144 1.510
84.2447 1.198
84.2750 1.667
84.3053 1.302
84.3356 2.240
84.3658 1.771
84.3961 1.510
84.4264 1.406
84.4567 1.667
84.4870 1.302
84.5172 1.875
84.5475 2.031
84.5778 1.927
84.6081 1.198
84.6383 1.615
84.6686 1.198
84.6989 1.667
84.7292 2.031
84.7595 1.302
84.7897 2.083
84.8200 1.094
84.8503 1.771
84.8806 1.719
84.9109 1.615
84.9411 1.458
84.9714 1.510
85.0017 1.615
85.0320 1.094
85.0623 1.562
85.0925 1.667
85.1228 1.302
85.1531 1.615
85.1834 1.667
85.2136 1.198
85.2439 1.719
85.2742 1.875
85.3045 1.667
85.3348 1.771
85.3650 1.510
85.3953 1.510
85.4256 1.406
85.4559 1.771
85.4862 1.250
85.5164 1.510
85.5467 2.135
85.5770 1.562
85.6073 1.094
85.6375 1.354
85.6678 1.198
85.6981 1.302
85.7284 1.510
85.7587 1.354
85.7889 1.667
85.8192 1.875
85.8495 1.354
85.8798 2.135
85.9101 1.510
85.9403 1.667
85.9706 1.927
86.0009 1.458
86.0312 1.198
86.0614 1.667
86.0917 1.302
86.1220 1.615
86.1523 1.667
86.1826 1.719
86.2128 2.344
86.2431 2.500
86.2734 1.615
86.3037 1.667
86.3340 1.615
86.3642 1.458
86.3945 1.562
86.4248 1.510
86.4551 1.823
86.4853 1.562
86.5156 1.510
86.5459 1.719
86.5762 2.031
86.6065 1.875
86.6367 1.562
86.6670 1.510
86.6973 1.354
86.7276 1.302
86.7579 1.302
86.7881 1.302
86.8184 1.458
86.8487 1.302
86.8790 1.458
86.9092 1.667
86.9395 1.510
86.9698 1.406
87.0001 1.510
87.0304 1.458
87.0606 1.927
87.0909 1.146
87.1212 1.875
87.1515 1.302
87.1818 1.146
87.2120 1.510
87.2423 2.031
87.2726 1.250
87.3029 1.146
87.3331 1.667
87.3634 1.875
87.3937 1.406
87.4240 1.250
87.4543 1.562
87.4845 1.302
87.5148 1.406
87.5451 1.458
87.5754 1.250
87.6057 1.042
87.6359 1.510
87.6662 1.719
87.6965 1.615
87.7268 1.354
87.7571 1.927
87.7873 1.510
87.8176 1.458
87.8479 1.823
87.8782 1.406
87.9084 1.823
87.9387 1.667
87.9690 1.510
87.9993 1.042
88.0296 1.302
88.0598 1.094
88.0901 1.615
88.1204 1.354
88.1507 1.875
88.1810 1.823
88.2112 2.187
88.2415 1.562
88.2718 1.719
88.3021 1.615
88.3323 1.667
88.3626 1.667
88.3929 1.146
88.4232 2.292
88.4535 1.615
88.4837 1.198
88.5140 1.667
88.5443 1.667
88.5746 1.667
88.6049 1.927
88.6351 2.083
88.6654 1.979
88.6957 2.031
88.7260 2.083
88.7562 1.667
88.7865 1.719
88.8168 2.031
88.8471 2.552
88.8774 1.667
88.9076 2.083
88.9379 2.448
88.9682 2.448
88.9985 1.719
89.0288 2.604
89.0590 2.083
89.0893 2.500
89.1196 1.979
89.1499 2.187
89.1801 2.344
89.2104 2.292
89.2407 2.552
89.2710 2.708
89.3013 3.073
89.3315 3.125
89.3618 2.656
89.3921 2.604
89.4224 2.135
89.4527 2.812
89.4829 2.344
89.5132 2.135
89.5435 2.448
89.5738 2.552
89.6040 2.708
89.6343 2.917
89.6646 2.031
89.6949 2.031
89.7252 2.031
89.7554 2.187
89.7857 2.344
89.8160 2.187
89.8463 1.302
89.8766 2.604
89.9068 2.396
89.9371 2.031
89.9674 1.510
89.9977 1.667
90.0279 1.979
90.0582 1.771
90.0885 1.510
90.1188 2.240
90.1491 1.823
90.1793 1.771
90.2096 1.719
90.2399 2.083
90.2702 1.719
90.3005 1.667
90.3307 1.667
90.3610 2.135
90.3913 1.562
90.4216 1.719
90.4518 1.771
90.4821 1.458
90.5124 1.198
90.5427 1.094
90.5730 1.927
90.6032 1.510
90.6335 1.823
90.6638 1.771
90.6941 1.510
90.7244 1.927
90.7546 1.771
90.7849 1.979
90.8152 1.771
90.8455 1.927
90.8758 1.667
90.9060 2.031
90.9363 1.667
90.9666 1.562
90.9969 1.667
91.0271 1.354
91.0574 1.667
91.0877 1.354
91.1180 2.083
91.1483 1.823
91.1785 1.771
91.2088 1.667
91.2391 1.510
91.2694 1.510
91.2997 1.562
91.3299 1.198
91.3602 1.615
91.3905 1.875
91.4208 1.667
91.4510 1.615
91.4813 1.354
91.5116 2.187
91.5419 1.927
91.5722 1.354
91.6024 2.083
91.6327 1.615
91.6630 1.667
91.6933 1.823
91.7236 1.562
91.7538 1.198
91.7841 2.396
91.8144 1.562
91.8447 1.458
91.8749 1.354
91.9052 1.354
91.9355 1.979
91.9658 1.406
91.9961 1.406
92.0263 1.667
92.0566 1.250
92.0869 1.458
92.1172 1.771
92.1475 1.823
92.1777 2.031
92.2080 1.875
92.2383 1.667
92.2686 1.719
92.2988 1.198
92.3291 1.250
92.3594 2.396
92.3897 1.250
92.4200 1.823
92.4502 1.562
92.4805 1.667
92.5108 2.083
92.5411 1.719
92.5714 1.458
92.6016 1.510
92.6319 1.250
92.6622 2.292
92.6925 1.875
92.7227 1.875
92.7530 2.031
92.7833 1.927
92.8136 1.771
92.8439 2.240
92.8741 1.875
92.9044 2.031
92.9347 2.604
92.9650 1.823
92.9953 2.031
93.0255 1.510
93.0558 1.927
93.0861 1.875
93.1164 2.187
93.1466 1.719
93.1769 2.083
93.2072 2.135
93.2375 1.667
93.2678 1.771
93.2980 1.875
93.3283 2.135
93.3586 1.927
93.3889 1.615
93.4192 1.250
93.4494 2.031
93.4797 1.510
93.5100 1.146
93.5403 1.354
93.5706 2.083
93.6008 1.406
93.6311 2.031
93.6614 1.354
93.6917 1.667
93.7219 1.667
93.7522 1.562
93.7825 0.833
93.8128 1.562
93.8431 1.667
93.8733 1.406
93.9036 1.354
93.9339 1.562
93.9642 1.823
93.9945 1.875
94.0247 1.458
94.0550 1.562
94.0853 1.562
94.1156 1.719
94.1458 1.719
94.1761 1.719
94.2064 1.979
94.2367 1.615
94.2670 1.250
94.2972 1.823
94.3275 1.875
94.3578 1.719
94.3881 1.927
94.4184 1.927
94.4486 1.667
94.4789 1.823
94.5092 1.562
94.5395 2.135
94.5697 1.979
94.6000 2.344
94.6303 1.719
94.6606 2.135
94.6909 1.771
94.7211 1.719
94.7514 2.135
94.7817 1.719
94.8120 1.719
94.8423 2.187
94.8725 2.240
94.9028 2.396
94.9331 2.292
94.9634 2.708
94.9936 2.083
95.0239 2.083
95.0542 2.031
95.0845 2.344
95.1148 2.187
95.1450 2.500
95.1753 2.448
95.2056 2.708
95.2359 2.708
95.2662 2.344
95.2964 2.344
95.3267 2.187
95.3570 2.760
95.3873 2.812
95.4175 1.927
95.4478 2.865
95.4781 2.344
95.5084 2.187
95.5387 1.771
95.5689 2.656
95.5992 1.510
95.6295 2.240
95.6598 1.510
95.6901 1.667
95.7203 2.135
95.7506 2.031
95.7809 1.562
95.8112 1.510
95.8414 1.979
95.8717 1.302
95.9020 1.458
95.9323 1.510
95.9626 1.667
95.9928 2.240
96.0231 1.823
96.0534 2.240
96.0837 1.927
96.1140 1.667
96.1442 1.667
96.1745 1.615
96.2048 1.198
96.2351 1.719
96.2653 1.667
96.2956 1.979
96.3259 1.562
96.3562 1.510
96.3865 1.771
96.4167 1.719
96.4470 1.458
96.4773 1.458
96.5076 1.302
96.5379 1.771
96.5681 1.615
96.5984 1.406
96.6287 1.771
96.6590 1.302
96.6893 1.458
96.7195 1.719
96.7498 1.458
96.7801 1.719
96.8104 1.667
96.8406 1.250
96.8709 2.552
96.9012 1.927
96.9315 1.719
96.9618 1.771
96.9920 1.406
97.0223 1.771
97.0526 2.240
97.0829 1.823
97.1132 2.292
97.1434 1.667
97.1737 2.187
97.2040 1.875
97.2343 1.823
97.2645 1.875
97.2948 1.771
97.3251 1.667
97.3554 1.771
97.3857 1.927
97.4159 1.927
97.4462 1.927
97.4765 1.302
97.5068 1.510
97.5371 1.510
97.5673 1.406
97.5976 1.302
97.6279 1.250
97.6582 1.406
97.6884 1.875
97.7187 1.875
97.7490 1.302
97.7793 1.823
97.8096 1.875
97.8398 2.083
97.8701 1.250
97.9004 1.875
97.9307 1.667
97.9610 1.771
97.9912 2.083
98.0215 2.031
98.0518 2.448
98.0821 2.292
98.1123 2.083
98.1426 2.552
98.1729 2.187
98.2032 2.292
98.2335 2.396
98.2637 2.604
98.2940 2.083
98.3243 2.656
98.3546 2.135
98.3849 2.656
98.4151 2.917
98.4454 2.031
98.4757 2.812
98.5060 2.500
98.5362 2.448
98.5665 1.146
98.5968 2.240
98.6271 2.240
98.6574 1.875
98.6876 1.771
98.7179 1.771
98.7482 2.344
98.7785 2.083
98.8088 1.771
98.8390 1.771
98.8693 2.031
98.8996 2.135
98.9299 2.240
98.9601 1.875
98.9904 1.667
99.0207 1.562
99.0510 1.823
99.0813 1.615
99.1115 1.823
99.1418 1.823
99.1721 1.667
99.2024 1.667
99.2327 1.302
99.2629 1.667
99.2932 1.250
99.3235 2.344
99.3538 1.302
99.3841 1.458
99.4143 1.823
99.4446 1.406
99.4749 1.719
99.5052 1.302
99.5354 1.198
99.5657 1.198
99.5960 1.354
99.6263 1.615
99.6566 1.302
99.6868 1.875
99.7171 1.146
99.7474 1.615
99.7777 1.302
99.8080 1.562
99.8382 1.823
99.8685 1.719
99.8988 1.823
99.9291 1.771
99.9593 1.094
99.9896 1.667
100.0199 1.771
100.0502 1.458
100.0805 1.458
100.1107 1.406
100.1410 1.250
100.1713 1.354
100.2016 1.667
100.2319 1.615
100.2621 1.302
100.2924 1.875
100.3227 1.250
100.3530 1.562
100.3832 1.562
100.4135 1.406
100.4438 1.875
100.4741 1.302
100.5044 1.406
100.5346 0.885
100.5649 1.458
100.5952 1.250
100.6255 1.302
100.6558 1.615
100.6860 1.615
100.7163 1.615
100.7466 1.562
100.7769 1.615
100.8071 1.510
100.8374 1.667
100.8677 1.198
100.8980 1.615
100.9283 2.135
100.9585 1.823
100.9888 1.615
101.0191 1.979
101.0494 1.562
101.0797 1.302
101.1099 1.354
101.1402 1.354
101.1705 1.719
101.2008 1.927
101.2310 1.979
101.2613 1.615
101.2916 1.510
101.3219 1.875
101.3522 1.562
101.3824 1.562
101.4127 1.667
101.4430 1.771
101.4733 1.667
101.5036 1.979
101.5338 1.198
101.5641 2.135
101.5944 1.667
101.6247 1.771
101.6549 1.250
101.6852 1.615
101.7155 1.719
101.7458 1.510
101.7761 2.240
101.8063 1.615
101.8366 1.979
101.8669 1.927
101.8972 1.354
101.9275 2.135
101.9577 2.135
101.9880 1.667
102.0183 2.500
102.0486 1.615
102.0788 1.979
102.1091 1.875
102.1394 2.031
102.1697 1.979
102.2000 1.771
102.2302 2.031
102.2605 1.979
102.2908 1.875
102.3211 2.083
102.3514 1.510
102.3816 1.719
102.4119 1.979
102.4422 1.875
102.4725 1.354
102.5028 1.354
102.5330 2.187
102.5633 1.406
102.5936 1.823
102.6239 1.458
102.6541 1.615
102.6844 1.302
102.7147 1.615
102.7450 1.667
102.7753 1.823
102.8055 1.823
102.8358 1.719
102.8661 1.510
102.8964 1.927
102.9267 2.031
102.9569 1.615
102.9872 1.510
103.0175 1.719
103.0478 2.135
103.0780 2.135
103.1083 2.083
103.1386 1.354
103.1689 1.354
103.1992 1.823
103.2294 2.135
103.2597 1.458
103.2900 1.562
103.3203 1.979
103.3506 1.823
103.3808 1.927
103.4111 1.979
103.4414 1.615
103.4717 2.031
103.5019 1.562
103.5322 1.823
103.5625 1.719
103.5928 1.667
103.6231 2.292
103.6533 1.927
103.6836 1.927
103.7139 2.187
103.7442 1.875
103.7745 1.458
103.8047 1.667
103.8350 1.771
103.8653 2.083
103.8956 1.771
103.9258 1.979
103.9561 2.396
103.9864 1.875
104.0167 1.771
104.0470 2.240
104.0772 2.292
104.1075 2.083
104.1378 2.187
104.1681 2.083
104.1984 1.927
104.2286 1.615
104.2589 1.979
104.2892 1.719
104.3195 2.135
104.3497 1.302
104.3800 1.719
104.4103 2.135
104.4406 1.615
104.4709 1.979
104.5011 1.562
104.5314 1.979
104.5617 1.406
104.5920 1.458
104.6223 1.406
104.6525 1.771
104.6828 1.458
104.7131 1.927
104.7434 2.135
104.7736 1.771
104.8039 1.823
104.8342 1.354
104.8645 1.979
104.8948 1.302
104.9250 2.240
104.9553 1.667
104.9856 1.667
105.0159 1.823
105.0462 2.031
105.0764 1.667
105.1067 1.667
105.1370 1.354
105.1673 1.667
105.1975 1.302
105.2278 1.927
105.2581 1.406
105.2884 1.458
105.3187 1.615
105.3489 1.458
105.3792 1.094
105.4095 2.031
105.4398 1.406
105.4701 1.302
105.5003 1.615
105.5306 1.719
105.5609 1.406
105.5912 1.823
105.6215 1.667
105.6517 1.562
105.6820 1.979
105.7123 1.406
105.7426 1.719
105.7728 1.510
105.8031 1.875
105.8334 1.094
105.8637 1.354
105.8940 1.562
105.9242 1.562
105.9545 1.302
105.9848 1.510
106.0151 2.135
106.0454 1.615
106.0756 1.562
106.1059 1.510
106.1362 1.458
106.1665 1.510
106.1967 1.719
106.2270 2.135
106.2573 1.615
106.2876 1.406
106.3179 1.562
106.3481 1.510
106.3784 1.562
106.4087 1.458
106.4390 1.562
106.4693 1.458
106.4995 1.562
106.5298 1.979
106.5601 1.875
106.5904 2.187
106.6206 1.615
106.6509 1.198
106.6812 1.510
106.7115 1.406
106.7418 1.667
106.7720 1.198
106.8023 1.458
106.8326 1.198
106.8629 1.510
106.8932 1.510
106.9234 1.823
106.9537 1.719
106.9840 1.510
107.0143 1.302
107.0445 1.458
107.0748 1.458
107.1051 1.458
107.1354 1.250
107.1657 1.510
107.1959 1.250
107.2262 1.510
107.2565 1.250
107.2868 2.031
107.3171 1.562
107.3473 1.667
107.3776 1.094
107.4079 1.667
107.4382 1.458
107.4684 1.250
107.4987 1.406
107.5290 1.823
107.5593 1.250
107.5896 1.562
107.6198 1.146
107.6501 1.667
107.6804 1.510
107.7107 1.562
107.7410 1.354
107.7712 1.250
107.8015 1.458
107.8318 1.198
107.8621 1.979
107.8923 1.042
107.9226 1.094
107.9529 2.083
107.9832 1.198
108.0135 1.771
108.0437 1.458
108.0740 1.406
108.1043 1.667
108.1346 1.458
108.1649 1.250
108.1951 1.562
108.2254 1.615
108.2557 1.927
108.2860 1.510
108.3163 1.510
108.3465 1.458
108.3768 1.510
108.4071 1.510
108.4374 1.250
108.4676 1.875
108.4979 2.135
108.5282 1.771
108.5585 1.875
108.5888 1.510
108.6190 1.406
108.6493 1.562
108.6796 1.302
108.7099 1.406
108.7402 1.406
108.7704 2.187
108.8007 2.135
108.8310 1.510
108.8613 1.354
108.8915 1.146
108.9218 1.562
108.9521 1.146
108.9824 1.250
109.0127 1.458
109.0429 2.083
109.0732 1.354
109.1035 1.562
109.1338 1.250
109.1641 1.562
109.1943 1.562
109.2246 1.615
109.2549 1.250
109.2852 1.823
109.3154 1.771
109.3457 1.771
109.3760 2.083
109.4063 1.562
109.4366 1.510
109.4668 1.875
109.4971 1.562
109.5274 2.135
109.5577 1.510
109.5880 1.823
109.6182 1.823
109.6485 1.719
109.6788 2.031
109.7091 1.615
109.7393 1.823
109.7696 1.406
109.7999 2.135
109.8302 1.562
109.8605 2.187
109.8907 1.875
109.9210 1.562
109.9513 1.562
109.9816 1.927
110.0119 1.771
110.0421 1.562
110.0724 2.344
110.1027 1.875
110.1330 1.823
110.1632 2.292
110.1935 1.667
110.2238 1.823
110.2541 2.031
110.2844 2.031
110.3146 1.823
110.3449 1.927
110.3752 2.135
110.4055 2.240
110.4358 2.135
110.4660 1.615
110.4963 1.354
110.5266 1.719
110.5569 1.719
110.5871 2.240
110.6174 1.615
110.6477 1.875
110.6780 1.719
110.7083 1.875
110.7385 1.562
110.7688 2.240
110.7991 2.135
110.8294 1.458
110.8597 1.510
110.8899 1.667
110.9202 1.510
110.9505 1.615
110.9808 1.510
111.0110 1.615
111.0413 1.615
111.0716 1.302
111.1019 1.667
111.1322 1.198
111.1624 1.302
111.1927 1.667
111.2230 1.927
111.2533 1.458
111.2836 1.354
111.3138 1.146
111.3441 1.198
111.3744 1.771
111.4047 1.667
111.4350 1.458
111.4652 1.667
111.4955 1.875
111.5258 1.667
111.5561 1.354
111.5863 1.667
111.6166 1.510
111.6469 1.667
111.6772 1.615
111.7075 1.302
111.7377 1.615
111.7680 1.771
111.7983 1.615
111.8286 1.042
111.8589 1.458
111.8891 1.562
111.9194 1.927
111.9497 1.667
111.9800 2.031
112.0102 1.927
112.0405 1.875
112.0708 1.667
112.1011 1.667
112.1314 1.562
112.1616 1.042
112.1919 1.719
112.2222 1.146
112.2525 0.990
112.2828 1.667
112.3130 1.667
112.3433 1.510
112.3736 1.562
112.4039 1.094
112.4341 1.771
112.4644 1.146
112.4947 1.979
112.5250 1.146
112.5553 1.354
112.5855 1.719
112.6158 1.458
112.6461 1.562
112.6764 1.667
112.7067 1.302
112.7369 1.510
112.7672 1.667
112.7975 1.719
112.8278 2.031
112.8580 1.719
112.8883 1.875
112.9186 1.354
112.9489 1.458
112.9792 0.833
113.0094 1.458
113.0397 2.083
113.0700 1.198
113.1003 1.719
113.1306 1.927
113.1608 1.615
113.1911 1.771
113.2214 1.823
113.2517 1.146
113.2819 1.458
113.3122 1.510
113.3425 1.562
113.3728 1.250
113.4031 1.302
113.4333 1.458
113.4636 1.354
113.4939 1.042
113.5242 2.031
113.5545 1.198
113.5847 1.354
113.6150 1.615
113.6453 1.823
113.6756 1.615
113.7058 1.354
113.7361 1.562
113.7664 1.510
113.7967 1.562
113.8270 1.354
113.8572 1.823
113.8875 1.615
113.9178 1.771
113.9481 2.135
113.9784 1.875
114.0086 1.719
114.0389 1.354
114.0692 1.094
114.0995 1.250
114.1298 1.719
114.1600 1.458
114.1903 1.094
114.2206 1.615
114.2509 1.615
114.2811 1.562
114.3114 1.510
114.3417 1.771
114.3720 1.719
114.4023 1.406
114.4325 1.771
114.4628 1.823
114.4931 1.719
114.5234 1.562
114.5537 1.823
114.5839 1.823
114.6142 1.771
114.6445 1.615
114.6748 1.719
114.7050 1.198
114.7353 1.823
114.7656 1.406
114.7959 1.458
114.8262 1.302
114.8564 1.302
114.8867 2.031
114.9170 1.719
114.9473 1.562
114.9776 1.562
115.0078 1.823
115.0381 1.823
115.0684 1.667
115.0987 1.667
115.1289 1.667
115.1592 1.927
115.1895 2.083
115.2198 1.667
115.2501 2.187
115.2803 1.406
115.3106 0.937
115.3409 1.875
115.3712 1.875
115.4015 1.927
115.4317 2.083
115.4620 1.354
115.4923 2.083
115.5226 1.875
115.5528 2.344
115.5831 2.292
115.6134 2.187
115.6437 2.656
115.6740 2.292
115.7042 2.552
115.7345 2.656
115.7648 2.031
115.7951 2.448
115.8254 2.500
115.8556 2.031
115.8859 2.500
115.9162 2.917
115.9465 2.187
115.9767 2.656
116.0070 3.177
116.0373 2.240
116.0676 2.865
116.0979 2.240
116.1281 2.344
116.1584 1.927
116.1887 2.292
116.2190 2.708
116.2493 2.448
116.2795 2.396
116.3098 2.292
116.3401 3.021
116.3704 2.812
116.4006 2.656
116.4309 2.396
116.4612 2.500
116.4915 2.292
116.5218 2.760
116.5520 3.542
116.5823 2.396
116.6126 2.500
116.6429 2.500
116.6732 3.021
116.7034 1.979
116.7337 3.021
116.7640 2.344
116.7943 2.031
116.8245 2.812
116.8548 2.187
116.8851 1.719
116.9154 1.719
116.9457 1.979
116.9759 1.510
117.0062 1.458
117.0365 2.135
117.0668 1.875
117.0971 2.448
117.1273 1.458
117.1576 1.719
117.1879 1.875
117.2182 2.292
117.2485 1.198
117.2787 2.187
117.3090 1.927
117.3393 1.667
117.3696 1.875
117.3998 1.354
117.4301 1.354
117.4604 1.667
117.4907 2.083
117.5210 2.187
117.5512 1.667
117.5815 1.250
117.6118 1.615
117.6421 2.135
117.6724 2.187
117.7026 1.875
117.7329 2.500
117.7632 2.344
117.7935 1.771
117.8237 2.865
117.8540 1.875
117.8843 1.823
117.9146 2.292
117.9449 1.771
117.9751 1.927
118.0054 2.187
118.0357 1.979
118.0660 1.667
118.0963 1.979
118.1265 2.135
118.1568 1.771
118.1871 1.667
118.2174 1.719
118.2476 2.187
118.2779 2.083
118.3082 1.719
118.3385 1.875
118.3688 1.719
118.3990 1.615
118.4293 1.875
118.4596 1.562
118.4899 1.979
118.5202 1.458
118.5504 1.719
118.5807 1.615
118.6110 1.927
118.6413 1.354
118.6715 1.354
118.7018 1.875
118.7321 2.500
118.7624 1.823
118.7927 1.458
118.8229 1.875
118.8532 1.823
118.8835 1.667
118.9138 2.083
118.9441 1.875
118.9743 1.406
119.0046 1.042
119.0349 1.302
119.0652 1.406
119.0954 2.083
119.1257 1.719
119.1560 1.510
119.1863 1.823
119.2166 2.031
119.2468 1.615
119.2771 1.302
119.3074 1.771
119.3377 1.771
119.3680 2.187
119.3982 1.458
119.4285 1.719
119.4588 1.875
119.4891 1.302
119.5193 1.354
119.5496 1.979
119.5799 1.510
119.6102 1.354
119.6405 1.667
119.6707 1.771
119.7010 1.927
119.7313 1.823
119.7616 1.302
119.7919 2.187
119.8221 1.667
119.8524 1.667
119.8827 1.302
119.9130 1.302
119.9433 1.354
119.9735 1.771
120.0038 1.406
