'Id: "" Comment: "" Operator: "Lab Manager" Anode: "Cu" Scantype: "Locked Coupled" TimePerStep: "19.2" X: "9999" Y: "9999" Z: "9999" 
10.0015 161.510
10.0318 159.792
10.0620 153.281
10.0923 150.000
10.1226 154.010
10.1529 147.187
10.1832 141.094
10.2134 137.135
10.2437 133.385
10.2740 135.521
10.3043 135.781
10.3346 129.010
10.3648 127.135
10.3951 124.948
10.4254 127.292
10.4557 126.354
10.4859 119.531
10.5162 116.719
10.5465 112.344
10.5768 109.635
10.6071 107.969
10.6373 99.687
10.6676 101.719
10.6979 93.542
10.7282 88.906
10.7585 83.177
10.7887 83.646
10.8190 74.583
10.8493 76.458
10.8796 68.802
10.9098 69.062
10.9401 65.625
10.9704 64.948
11.0007 60.625
11.0310 58.437
11.0612 59.792
11.0915 54.583
11.1218 54.479
11.1521 50.312
11.1824 47.448
11.2126 48.802
11.2429 49.740
11.2732 48.437
11.3035 48.385
11.3337 48.802
11.3640 48.750
11.3943 48.021
11.4246 51.354
11.4549 51.927
11.4851 56.354
11.5154 49.583
11.5457 49.062
11.5760 45.781
11.6063 43.229
11.6365 44.010
11.6668 43.281
11.6971 43.594
11.7274 45.573
11.7577 46.094
11.7879 42.865
11.8182 44.531
11.8485 45.625
11.8788 44.479
11.9090 44.062
11.9393 42.552
11.9696 43.125
11.9999 43.125
12.0302 40.365
12.0604 40.260
12.0907 39.635
12.1210 36.667
12.1513 37.240
12.1816 37.552
12.2118 36.250
12.2421 32.708
12.2724 33.698
12.3027 33.385
12.3329 30.677
12.3632 28.958
12.3935 28.698
12.4238 26.562
12.4541 26.250
12.4843 26.042
12.5146 25.417
12.5449 22.708
12.5752 23.229
12.6055 22.396
12.6357 22.135
12.6660 22.240
12.6963 19.062
12.7266 19.687
12.7568 19.375
12.7871 17.292
12.8174 19.323
12.8477 16.562
12.8780 18.281
12.9082 17.448
12.9385 16.615
12.9688 16.302
12.9991 16.667
13.0294 17.448
13.0596 15.729
13.0899 16.406
13.1202 14.271
13.1505 15.208
13.1807 13.802
13.2110 16.354
13.2413 14.271
13.2716 16.302
13.3019 14.427
13.3321 16.510
13.3624 14.167
13.3927 15.625
13.4230 13.385
13.4533 13.125
13.4835 13.594
13.5138 14.896
13.5441 13.802
13.5744 15.000
13.6046 13.698
13.6349 12.917
13.6652 14.583
13.6955 13.958
13.7258 14.427
13.7560 15.625
13.7863 14.323
13.8166 13.906
13.8469 14.375
13.8772 16.094
13.9074 15.573
13.9377 14.740
13.9680 13.437
13.9983 14.896
14.0285 15.000
14.0588 13.281
14.0891 14.219
14.1194 13.958
14.1497 16.250
14.1799 15.677
14.2102 14.844
14.2405 18.125
14.2708 14.010
14.3011 16.042
14.3313 15.000
14.3616 16.823
14.3919 15.573
14.4222 18.073
14.4524 15.312
14.4827 14.740
14.5130 15.729
14.5433 16.042
14.5736 15.885
14.6038 15.260
14.6341 17.240
14.6644 18.385
14.6947 17.812
14.7250 17.083
14.7552 17.344
14.7855 18.021
14.8158 16.719
14.8461 18.490
14.8764 19.740
14.9066 17.500
14.9369 19.219
14.9672 17.031
14.9975 18.750
15.0277 20.312
15.0580 18.854
15.0883 18.177
15.1186 20.104
15.1489 18.854
15.1791 20.365
15.2094 20.104
15.2397 21.042
15.2700 17.812
15.3003 18.646
15.3305 17.760
15.3608 18.854
15.3911 19.531
15.4214 19.219
15.4516 18.854
15.4819 17.656
15.5122 18.073
15.5425 18.229
15.5728 20.729
15.6030 19.583
15.6333 18.854
15.6636 19.375
15.6939 20.417
15.7242 19.271
15.7544 17.812
15.7847 19.635
15.8150 21.094
15.8453 18.125
15.8755 19.271
15.9058 19.062
15.9361 17.031
15.9664 16.302
15.9967 18.542
16.0269 19.219
16.0572 18.750
16.0875 18.021
16.1178 16.406
16.1481 14.687
16.1783 15.104
16.2086 18.021
16.2389 17.396
16.2692 15.365
16.2994 16.562
16.3297 16.094
16.3600 15.990
16.3903 15.156
16.4206 16.042
16.4508 14.896
16.4811 16.667
16.5114 14.062
16.5417 15.365
16.5720 15.312
16.6022 15.365
16.6325 14.271
16.6628 13.802
16.6931 16.094
16.7233 14.896
16.7536 14.844
16.7839 13.229
16.8142 15.208
16.8445 16.562
16.8747 13.594
16.9050 15.990
16.9353 15.625
16.9656 15.729
16.9959 16.979
17.0261 18.906
17.0564 17.240
17.0867 16.354
17.1170 17.969
17.1472 15.521
17.1775 15.469
17.2078 15.677
17.2381 14.792
17.2684 14.896
17.2986 15.885
17.3289 14.427
17.3592 15.521
17.3895 13.802
17.4198 14.896
17.4500 12.708
17.4803 14.427
17.5106 13.281
17.5409 13.333
17.5712 12.344
17.6014 12.917
17.6317 12.812
17.6620 13.385
17.6923 11.771
17.7225 13.281
17.7528 11.354
17.7831 13.177
17.8134 13.437
17.8437 13.750
17.8739 13.021
17.9042 12.604
17.9345 12.760
17.9648 12.396
17.9951 13.490
18.0253 13.490
18.0556 11.510
18.0859 13.385
18.1162 14.323
18.1464 13.281
18.1767 14.896
18.2070 13.437
18.2373 13.698
18.2676 14.219
18.2978 16.823
18.3281 17.656
18.3584 17.552
18.3887 15.156
18.4190 18.437
18.4492 18.021
18.4795 20.469
18.5098 20.312
18.5401 22.552
18.5703 21.250
18.6006 21.354
18.6309 22.135
18.6612 24.687
18.6915 26.667
18.7217 27.656
18.7520 27.500
18.7823 30.937
18.8126 30.521
18.8429 29.844
18.8731 32.760
18.9034 30.208
18.9337 31.094
18.9640 30.937
18.9942 30.729
19.0245 28.073
19.0548 29.167
19.0851 28.490
19.1154 26.875
19.1456 26.667
19.1759 24.896
19.2062 22.135
19.2365 21.406
19.2668 19.062
19.2970 17.708
19.3273 16.510
19.3576 16.562
19.3879 15.677
19.4181 15.781
19.4484 13.490
19.4787 14.844
19.5090 12.135
19.5393 11.771
19.5695 12.031
19.5998 11.042
19.6301 10.260
19.6604 11.667
19.6907 10.052
19.7209 10.208
19.7512 8.854
19.7815 9.219
19.8118 8.646
19.8420 9.167
19.8723 7.917
19.9026 9.844
19.9329 8.125
19.9632 7.240
19.9934 8.854
20.0237 7.604
20.0540 8.437
20.0843 7.135
20.1146 7.708
20.1448 8.594
20.1751 6.875
20.2054 6.823
20.2357 8.125
20.2659 6.719
20.2962 6.927
20.3265 7.031
20.3568 6.354
20.3871 7.031
20.4173 7.240
20.4476 5.521
20.4779 6.719
20.5082 6.250
20.5385 7.135
20.5687 6.094
20.5990 6.719
20.6293 6.302
20.6596 5.781
20.6899 5.625
20.7201 6.198
20.7504 6.198
20.7807 5.677
20.8110 6.562
20.8412 6.354
20.8715 6.562
20.9018 6.458
20.9321 6.302
20.9624 6.406
20.9926 6.562
21.0229 6.927
21.0532 6.771
21.0835 6.979
21.1138 7.344
21.1440 5.729
21.1743 5.573
21.2046 7.865
21.2349 7.083
21.2651 6.562
21.2954 6.510
21.3257 6.042
21.3560 5.781
21.3863 7.708
21.4165 6.823
21.4468 5.312
21.4771 6.146
21.5074 5.885
21.5377 5.312
21.5679 6.042
21.5982 6.667
21.6285 5.312
21.6588 6.094
21.6890 5.469
21.7193 6.302
21.7496 5.885
21.7799 5.990
21.8102 5.833
21.8404 6.562
21.8707 4.792
21.9010 5.000
21.9313 6.094
21.9616 6.927
21.9918 4.948
22.0221 5.104
22.0524 6.042
22.0827 5.990
22.1129 5.781
22.1432 5.573
22.1735 6.250
22.2038 5.260
22.2341 7.031
22.2643 5.677
22.2946 6.615
22.3249 5.469
22.3552 5.521
22.3855 6.302
22.4157 6.302
22.4460 5.625
22.4763 6.198
22.5066 6.458
22.5368 7.552
22.5671 5.260
22.5974 6.667
22.6277 6.667
22.6580 6.875
22.6882 5.729
22.7185 6.667
22.7488 5.573
22.7791 5.312
22.8094 6.042
22.8396 6.719
22.8699 5.729
22.9002 5.365
22.9305 6.094
22.9607 5.625
22.9910 6.198
23.0213 5.000
23.0516 5.833
23.0819 6.510
23.1121 6.406
23.1424 6.354
23.1727 7.240
23.2030 7.240
23.2333 7.865
23.2635 6.927
23.2938 6.615
23.3241 6.354
23.3544 7.448
23.3846 5.990
23.4149 6.927
23.4452 7.812
23.4755 7.292
23.5058 7.969
23.5360 6.198
23.5663 7.604
23.5966 8.177
23.6269 7.760
23.6572 6.042
23.6874 7.396
23.7177 8.229
23.7480 7.812
23.7783 8.542
23.8086 7.448
23.8388 7.396
23.8691 6.354
23.8994 8.698
23.9297 8.021
23.9599 7.500
23.9902 8.490
24.0205 8.281
24.0508 10.104
24.0811 8.802
24.1113 9.427
24.1416 9.740
24.1719 9.896
24.2022 8.750
24.2325 9.427
24.2627 12.187
24.2930 12.240
24.3233 11.458
24.3536 11.354
24.3838 12.969
24.4141 12.656
24.4444 11.771
24.4747 12.448
24.5050 13.229
24.5352 13.646
24.5655 11.979
24.5958 13.542
24.6261 15.104
24.6564 14.323
24.6866 14.896
24.7169 14.583
24.7472 13.854
24.7775 14.479
24.8077 15.208
24.8380 14.479
24.8683 14.896
24.8986 16.250
24.9289 15.312
24.9591 15.469
24.9894 15.677
25.0197 17.292
25.0500 15.885
25.0803 15.521
25.1105 15.521
25.1408 17.552
25.1711 16.458
25.2014 16.927
25.2316 15.208
25.2619 17.500
25.2922 17.812
25.3225 17.656
25.3528 17.604
25.3830 17.708
25.4133 17.604
25.4436 17.240
25.4739 20.000
25.5042 19.792
25.5344 17.344
25.5647 20.833
25.5950 17.292
25.6253 21.667
25.6555 19.375
25.6858 16.667
25.7161 17.760
25.7464 19.531
25.7767 18.906
25.8069 17.656
25.8372 15.990
25.8675 16.302
25.8978 17.812
25.9281 15.052
25.9583 16.823
25.9886 15.365
26.0189 14.740
26.0492 15.469
26.0794 15.573
26.1097 14.740
26.1400 15.573
26.1703 14.583
26.2006 14.740
26.2308 15.312
26.2611 14.167
26.2914 16.146
26.3217 15.000
26.3520 16.094
26.3822 15.156
26.4125 14.427
26.4428 15.417
26.4731 14.792
26.5034 17.760
26.5336 15.677
26.5639 17.031
26.5942 16.406
26.6245 16.979
26.6547 18.958
26.6850 18.958
26.7153 20.677
26.7456 21.771
26.7759 23.490
26.8061 23.958
26.8364 26.510
26.8667 26.615
26.8970 26.979
26.9273 27.865
26.9575 28.854
26.9878 30.000
27.0181 29.271
27.0484 28.490
27.0786 27.760
27.1089 28.490
27.1392 26.146
27.1695 26.667
27.1998 23.021
27.2300 23.594
27.2603 22.604
27.2906 23.385
27.3209 23.021
27.3512 21.250
27.3814 22.083
27.4117 21.250
27.4420 20.365
27.4723 22.292
27.5025 21.250
27.5328 21.302
27.5631 21.146
27.5934 20.833
27.6237 19.740
27.6539 20.000
27.6842 19.531
27.7145 21.406
27.7448 22.292
27.7751 20.937
27.8053 18.385
27.8356 21.406
27.8659 21.875
27.8962 22.760
27.9264 21.875
27.9567 20.052
27.9870 23.281
28.0173 20.729
28.0476 21.250
28.0778 23.490
28.1081 24.583
28.1384 22.500
28.1687 24.687
28.1990 21.458
28.2292 22.917
28.2595 24.062
28.2898 24.479
28.3201 24.271
28.3503 25.833
28.3806 24.635
28.4109 24.844
28.4412 23.594
28.4715 26.198
28.5017 23.802
28.5320 24.687
28.5623 26.719
28.5926 25.052
28.6229 24.167
28.6531 23.958
28.6834 24.115
28.7137 21.927
28.7440 22.656
28.7742 21.875
28.8045 20.417
28.8348 18.646
28.8651 18.906
28.8954 16.927
28.9256 15.677
28.9559 15.365
28.9862 16.042
29.0165 13.958
29.0468 13.490
29.0770 12.292
29.1073 13.021
29.1376 11.354
29.1679 10.521
29.1981 11.719
29.2284 7.708
29.2587 11.458
29.2890 11.302
29.3193 9.375
29.3495 9.740
29.3798 8.229
29.4101 9.479
29.4404 9.219
29.4707 8.750
29.5009 9.427
29.5312 7.083
29.5615 7.760
29.5918 7.240
29.6221 8.073
29.6523 7.656
29.6826 7.344
29.7129 8.229
29.7432 9.062
29.7734 8.229
29.8037 7.708
29.8340 7.083
29.8643 6.458
29.8946 7.135
29.9248 7.344
29.9551 5.677
29.9854 5.833
30.0157 6.615
30.0460 5.625
30.0762 7.292
30.1065 6.302
30.1368 6.979
30.1671 6.719
30.1973 6.615
30.2276 6.042
30.2579 6.510
30.2882 6.667
30.3185 6.615
30.3487 6.042
30.3790 5.937
30.4093 5.208
30.4396 5.625
30.4699 6.667
30.5001 6.406
30.5304 5.729
30.5607 7.240
30.5910 5.990
30.6212 5.937
30.6515 5.781
30.6818 6.615
30.7121 5.833
30.7424 7.344
30.7726 7.604
30.8029 7.552
30.8332 6.979
30.8635 8.802
30.8938 6.979
30.9240 7.760
30.9543 8.854
30.9846 8.490
31.0149 8.333
31.0451 9.375
31.0754 8.490
31.1057 9.531
31.1360 9.740
31.1663 8.802
31.1965 9.375
31.2268 9.583
31.2571 8.646
31.2874 9.010
31.3177 7.917
31.3479 7.865
31.3782 7.083
31.4085 7.656
31.4388 6.198
31.4690 7.135
31.4993 6.771
31.5296 6.927
31.5599 6.250
31.5902 6.042
31.6204 5.729
31.6507 7.500
31.6810 6.094
31.7113 5.833
31.7416 5.104
31.7718 5.677
31.8021 5.677
31.8324 5.312
31.8627 5.677
31.8929 5.260
31.9232 5.729
31.9535 6.042
31.9838 5.729
32.0141 6.771
32.0443 5.469
32.0746 6.198
32.1049 5.365
32.1352 5.729
32.1655 5.417
32.1957 6.042
32.2260 6.094
32.2563 4.687
32.2866 5.260
32.3169 5.729
32.3471 5.312
32.3774 5.937
32.4077 5.365
32.4380 5.469
32.4682 6.094
32.4985 6.250
32.5288 6.719
32.5591 6.823
32.5894 6.719
32.6196 6.927
32.6499 7.344
32.6802 8.437
32.7105 7.448
32.7408 7.812
32.7710 7.812
32.8013 6.771
32.8316 6.979
32.8619 8.229
32.8921 5.365
32.9224 5.677
32.9527 5.000
32.9830 6.615
33.0133 5.885
33.0435 5.000
33.0738 5.833
33.1041 6.406
33.1344 6.042
33.1647 5.885
33.1949 5.990
33.2252 5.469
33.2555 5.052
33.2858 5.573
33.3160 4.583
33.3463 5.469
33.3766 5.417
33.4069 4.479
33.4372 4.948
33.4674 4.271
33.4977 4.531
33.5280 4.740
33.5583 3.229
33.5886 4.167
33.6188 5.052
33.6491 4.583
33.6794 5.312
33.7097 5.260
33.7399 4.948
33.7702 6.042
33.8005 5.052
33.8308 4.531
33.8611 5.000
33.8913 5.833
33.9216 4.010
33.9519 4.323
33.9822 5.469
34.0125 5.521
34.0427 5.990
34.0730 5.104
34.1033 4.948
34.1336 6.146
34.1638 6.146
34.1941 4.792
34.2244 5.365
34.2547 5.365
34.2850 5.469
34.3152 3.958
34.3455 4.896
34.3758 3.229
34.4061 4.531
34.4364 4.219
34.4666 5.781
34.4969 4.792
34.5272 4.219
34.5575 4.271
34.5877 3.594
34.6180 3.229
34.6483 4.062
34.6786 4.687
34.7089 4.219
34.7391 4.323
34.7694 4.375
34.7997 6.146
34.8300 4.896
34.8603 5.677
34.8905 5.729
34.9208 5.052
34.9511 5.469
34.9814 5.156
35.0116 4.635
35.0419 5.365
35.0722 4.687
35.1025 5.208
35.1328 4.375
35.1630 4.479
35.1933 5.208
35.2236 5.104
35.2539 4.531
35.2842 5.521
35.3144 5.521
35.3447 4.948
35.3750 4.687
35.4053 5.937
35.4356 5.833
35.4658 5.885
35.4961 6.042
35.5264 5.990
35.5567 6.667
35.5869 7.292
35.6172 7.344
35.6475 6.927
35.6778 7.552
35.7081 7.240
35.7383 6.771
35.7686 8.385
35.7989 9.219
35.8292 8.906
35.8595 10.104
35.8897 10.208
35.9200 10.104
35.9503 9.010
35.9806 8.177
36.0108 9.583
36.0411 8.281
36.0714 9.167
36.1017 8.437
36.1320 8.542
36.1622 7.917
36.1925 7.240
36.2228 8.750
36.2531 8.490
36.2834 8.229
36.3136 6.927
36.3439 6.510
36.3742 6.146
36.4045 6.198
36.4347 5.573
36.4650 5.260
36.4953 6.198
36.5256 5.990
36.5559 5.312
36.5861 5.677
36.6164 6.146
36.6467 5.677
36.6770 4.792
36.7073 5.625
36.7375 6.146
36.7678 6.510
36.7981 4.844
36.8284 5.625
36.8586 4.583
36.8889 4.844
36.9192 5.312
36.9495 4.948
36.9798 5.052
37.0100 6.302
37.0403 5.521
37.0706 5.625
37.1009 5.885
37.1312 6.094
37.1614 4.844
37.1917 5.677
37.2220 5.990
37.2523 6.198
37.2825 4.792
37.3128 5.885
37.3431 5.208
37.3734 5.208
37.4037 4.740
37.4339 5.104
37.4642 4.531
37.4945 5.990
37.5248 5.000
37.5551 5.052
37.5853 5.000
37.6156 6.146
37.6459 5.469
37.6762 5.521
37.7064 4.896
37.7367 6.771
37.7670 5.781
37.7973 5.208
37.8276 3.750
37.8578 5.104
37.8881 4.583
37.9184 5.469
37.9487 6.250
37.9790 5.885
38.0092 5.990
38.0395 5.260
38.0698 4.844
38.1001 5.417
38.1304 5.677
38.1606 5.573
38.1909 5.260
38.2212 5.781
38.2515 5.833
38.2817 6.146
38.3120 5.573
38.3423 4.740
38.3726 4.479
38.4029 4.844
38.4331 4.948
38.4634 5.052
38.4937 5.104
38.5240 4.010
38.5543 3.750
38.5845 4.427
38.6148 3.906
38.6451 3.281
38.6754 4.323
38.7056 3.802
38.7359 5.156
38.7662 3.958
38.7965 3.646
38.8268 4.219
38.8570 3.750
38.8873 3.854
38.9176 3.437
38.9479 3.177
38.9782 3.125
39.0084 3.594
39.0387 3.854
39.0690 3.594
39.0993 3.958
39.1295 3.177
39.1598 3.125
39.1901 2.917
39.2204 3.542
39.2507 3.958
39.2809 3.177
39.3112 2.969
39.3415 2.604
39.3718 3.281
39.4021 3.594
39.4323 3.021
39.4626 3.437
39.4929 3.542
39.5232 3.594
39.5534 3.906
39.5837 3.125
39.6140 2.969
39.6443 2.917
39.6746 3.542
39.7048 2.917
39.7351 3.698
39.7654 3.594
39.7957 3.073
39.8260 2.865
39.8562 3.646
39.8865 3.021
39.9168 3.906
39.9471 3.437
39.9773 2.708
40.0076 3.802
40.0379 4.479
40.0682 4.062
40.0985 3.958
40.1287 4.427
40.1590 3.854
40.1893 4.375
40.2196 4.115
40.2499 4.323
40.2801 4.635
40.3104 3.750
40.3407 4.479
40.3710 4.167
40.4012 4.687
40.4315 4.635
40.4618 4.740
40.4921 4.792
40.5224 3.490
40.5526 4.271
40.5829 5.260
40.6132 4.948
40.6435 5.052
40.6738 4.740
40.7040 5.260
40.7343 3.646
40.7646 4.687
40.7949 4.323
40.8251 4.115
40.8554 4.115
40.8857 3.802
40.9160 4.583
40.9463 4.896
40.9765 4.479
41.0068 3.646
41.0371 3.802
41.0674 4.323
41.0977 3.333
41.1279 3.750
41.1582 4.375
41.1885 3.906
41.2188 3.698
41.2491 4.323
41.2793 3.802
41.3096 3.750
41.3399 4.167
41.3702 3.646
41.4004 4.010
41.4307 3.646
41.4610 3.646
41.4913 2.865
41.5216 4.531
41.5518 3.385
41.5821 3.906
41.6124 2.969
41.6427 3.542
41.6730 4.062
41.7032 3.698
41.7335 3.490
41.7638 3.646
41.7941 4.219
41.8243 4.531
41.8546 2.969
41.8849 3.958
41.9152 3.958
41.9455 3.750
41.9757 2.760
42.0060 4.115
42.0363 4.010
42.0666 4.323
42.0969 3.542
42.1271 4.115
42.1574 3.802
42.1877 3.542
42.2180 3.906
42.2482 2.656
42.2785 3.958
42.3088 3.177
42.3391 2.865
42.3694 3.177
42.3996 3.698
42.4299 2.969
42.4602 3.229
42.4905 3.802
42.5208 2.760
42.5510 2.969
42.5813 2.812
42.6116 3.021
42.6419 2.760
42.6721 3.125
42.7024 3.229
42.7327 2.604
42.7630 2.760
42.7933 2.812
42.8235 2.500
42.8538 3.385
42.8841 2.760
42.9144 3.333
42.9447 3.281
42.9749 3.281
43.0052 2.708
43.0355 3.125
43.0658 3.490
43.0960 2.917
43.1263 2.969
43.1566 2.969
43.1869 3.177
43.2172 2.396
43.2474 2.865
43.2777 3.177
43.3080 2.969
43.3383 3.437
43.3686 2.344
43.3988 3.594
43.4291 2.396
43.4594 2.969
43.4897 3.437
43.5199 2.865
43.5502 2.604
43.5805 2.812
43.6108 2.917
43.6411 2.604
43.6713 3.021
43.7016 2.917
43.7319 3.594
43.7622 3.073
43.7925 2.656
43.8227 2.969
43.8530 3.594
43.8833 2.812
43.9136 3.021
43.9439 2.135
43.9741 3.542
44.0044 3.229
44.0347 3.177
44.0650 2.865
44.0952 3.021
44.1255 3.698
44.1558 3.594
44.1861 2.604
44.2164 3.750
44.2466 3.125
44.2769 3.958
44.3072 3.281
44.3375 3.490
44.3678 2.969
44.3980 3.854
44.4283 3.333
44.4586 2.760
44.4889 3.385
44.5191 3.490
44.5494 3.750
44.5797 3.385
44.6100 3.021
44.6403 3.073
44.6705 3.021
44.7008 3.385
44.7311 3.281
44.7614 3.177
44.7917 4.062
44.8219 3.229
44.8522 4.010
44.8825 3.385
44.9128 2.969
44.9430 3.385
44.9733 2.604
45.0036 3.177
45.0339 2.812
45.0642 3.750
45.0944 3.437
45.1247 4.010
45.1550 3.281
45.1853 3.229
45.2156 4.219
45.2458 3.333
45.2761 3.802
45.3064 3.594
45.3367 2.760
45.3669 4.323
45.3972 3.281
45.4275 3.125
45.4578 3.958
45.4881 3.594
45.5183 4.271
45.5486 3.385
45.5789 3.698
45.6092 3.021
45.6395 3.854
45.6697 3.698
45.7000 3.177
45.7303 3.958
45.7606 3.750
45.7908 3.542
45.8211 3.490
45.8514 2.865
45.8817 3.229
45.9120 3.229
45.9422 3.125
45.9725 3.177
46.0028 3.542
46.0331 3.958
46.0634 3.333
46.0936 2.917
46.1239 3.229
46.1542 2.969
46.1845 3.437
46.2147 3.385
46.2450 3.021
46.2753 2.708
46.3056 3.698
46.3359 3.542
46.3661 2.656
46.3964 3.281
46.4267 3.542
46.4570 3.490
46.4873 3.333
46.5175 3.750
46.5478 2.760
46.5781 2.396
46.6084 2.865
46.6386 1.979
46.6689 3.646
46.6992 2.760
46.7295 2.917
46.7598 3.490
46.7900 3.437
46.8203 3.125
46.8506 3.333
46.8809 2.552
46.9112 3.229
46.9414 3.542
46.9717 2.865
47.0020 2.656
47.0323 3.750
47.0626 2.969
47.0928 3.802
47.1231 3.385
47.1534 3.333
47.1837 3.125
47.2139 3.437
47.2442 3.333
47.2745 3.073
47.3048 3.542
47.3351 4.115
47.3653 3.854
47.3956 3.854
47.4259 3.958
47.4562 3.542
47.4865 3.906
47.5167 4.531
47.5470 4.115
47.5773 4.219
47.6076 4.323
47.6378 4.687
47.6681 4.062
47.6984 4.271
47.7287 3.802
47.7590 4.167
47.7892 5.000
47.8195 4.792
47.8498 4.948
47.8801 4.583
47.9104 4.635
47.9406 4.167
47.9709 3.750
48.0012 4.271
48.0315 4.375
48.0617 5.104
48.0920 4.740
48.1223 3.802
48.1526 3.906
48.1829 4.167
48.2131 4.479
48.2434 4.167
48.2737 4.115
48.3040 4.896
48.3343 4.531
48.3645 4.687
48.3948 4.896
48.4251 4.948
48.4554 4.115
48.4856 4.427
48.5159 4.844
48.5462 4.375
48.5765 4.323
48.6068 6.094
48.6370 5.260
48.6673 5.573
48.6976 4.844
48.7279 5.729
48.7582 6.042
48.7884 5.990
48.8187 7.292
48.8490 5.990
48.8793 6.458
48.9095 6.562
48.9398 7.500
48.9701 7.031
49.0004 7.344
49.0307 6.667
49.0609 6.094
49.0912 7.240
49.1215 7.083
49.1518 7.292
49.1821 6.198
49.2123 5.521
49.2426 6.042
49.2729 6.250
49.3032 6.354
49.3334 7.552
49.3637 5.312
49.3940 5.417
49.4243 5.781
49.4546 6.302
49.4848 5.781
49.5151 5.469
49.5454 5.625
49.5757 5.312
49.6060 5.469
49.6362 5.469
49.6665 6.458
49.6968 4.427
49.7271 4.896
49.7574 5.312
49.7876 4.479
49.8179 5.781
49.8482 5.365
49.8785 4.948
49.9087 5.573
49.9390 4.844
49.9693 5.521
49.9996 6.042
50.0299 5.156
50.0601 5.052
50.0904 5.677
50.1207 5.573
50.1510 4.896
50.1813 6.510
50.2115 6.042
50.2418 6.146
50.2721 7.656
50.3024 6.198
50.3326 5.937
50.3629 6.250
50.3932 5.000
50.4235 6.250
50.4538 5.417
50.4840 5.417
50.5143 6.042
50.5446 7.187
50.5749 7.135
50.6052 6.771
50.6354 5.625
50.6657 7.708
50.6960 7.812
50.7263 6.875
50.7565 6.667
50.7868 6.510
50.8171 6.719
50.8474 5.781
50.8777 6.562
50.9079 5.833
50.9382 5.885
50.9685 5.833
50.9988 6.354
51.0291 6.771
51.0593 6.042
51.0896 5.885
51.1199 5.469
51.1502 6.198
51.1804 6.667
51.2107 5.937
51.2410 5.573
51.2713 5.885
51.3016 6.198
51.3318 5.990
51.3621 6.771
51.3924 6.771
51.4227 5.677
51.4530 5.781
51.4832 7.552
51.5135 6.719
51.5438 6.146
51.5741 6.771
51.6043 6.354
51.6346 5.260
51.6649 5.677
51.6952 5.990
51.7255 6.875
51.7557 5.781
51.7860 5.729
51.8163 4.687
51.8466 5.781
51.8769 5.260
51.9071 6.198
51.9374 5.573
51.9677 5.677
51.9980 5.625
52.0282 6.094
52.0585 5.000
52.0888 6.042
52.1191 5.104
52.1494 4.740
52.1796 5.000
52.2099 5.833
52.2402 4.844
52.2705 5.365
52.3008 4.323
52.3310 5.885
52.3613 5.312
52.3916 4.740
52.4219 5.104
52.4521 5.312
52.4824 5.156
52.5127 4.896
52.5430 5.365
52.5733 4.844
52.6035 5.417
52.6338 5.573
52.6641 5.052
52.6944 5.208
52.7247 5.417
52.7549 5.156
52.7852 4.427
52.8155 4.687
52.8458 4.792
52.8761 4.271
52.9063 4.062
52.9366 4.740
52.9669 4.062
52.9972 4.635
53.0274 5.521
53.0577 4.792
53.0880 5.000
53.1183 4.583
53.1486 4.323
53.1788 4.219
53.2091 5.052
53.2394 5.417
53.2697 4.896
53.3000 4.583
53.3302 4.896
53.3605 4.792
53.3908 5.104
53.4211 4.792
53.4513 4.010
53.4816 4.375
53.5119 4.375
53.5422 5.156
53.5725 4.271
53.6027 4.323
53.6330 4.167
53.6633 4.062
53.6936 3.385
53.7239 4.219
53.7541 4.531
53.7844 3.906
53.8147 4.792
53.8450 4.740
53.8752 4.271
53.9055 4.792
53.9358 4.740
53.9661 4.583
53.9964 5.260
54.0266 3.698
54.0569 3.698
54.0872 4.062
54.1175 4.740
54.1478 4.531
54.1780 4.323
54.2083 4.687
54.2386 4.792
54.2689 5.573
54.2991 4.219
54.3294 4.219
54.3597 5.104
54.3900 3.958
54.4203 4.792
54.4505 4.479
54.4808 4.010
54.5111 4.531
54.5414 4.219
54.5717 3.906
54.6019 4.323
54.6322 4.375
54.6625 4.375
54.6928 4.323
54.7230 4.687
54.7533 4.844
54.7836 3.854
54.8139 3.854
54.8442 5.208
54.8744 4.375
54.9047 5.104
54.9350 4.948
54.9653 4.896
54.9956 4.375
55.0258 4.740
55.0561 5.677
55.0864 5.156
55.1167 5.365
55.1469 5.052
55.1772 5.312
55.2075 4.219
55.2378 5.625
55.2681 5.104
55.2983 6.042
55.3286 6.302
55.3589 6.250
55.3892 6.510
55.4195 6.094
55.4497 6.510
55.4800 8.594
55.5103 7.760
55.5406 7.552
55.5709 6.823
55.6011 7.344
55.6314 8.802
55.6617 6.458
55.6920 7.240
55.7222 7.135
55.7525 6.979
55.7828 8.281
55.8131 7.708
55.8434 6.875
55.8736 5.521
55.9039 5.937
55.9342 6.094
55.9645 5.260
55.9948 5.781
56.0250 5.365
56.0553 5.052
56.0856 4.427
56.1159 4.896
56.1461 4.531
56.1764 4.115
56.2067 4.271
56.2370 3.281
56.2673 4.896
56.2975 3.854
56.3278 3.906
56.3581 4.115
56.3884 4.062
56.4187 3.177
56.4489 3.229
56.4792 3.854
56.5095 3.281
56.5398 3.177
56.5700 3.021
56.6003 3.073
56.6306 3.490
56.6609 3.281
56.6912 3.802
56.7214 3.229
56.7517 3.802
56.7820 3.490
56.8123 4.427
56.8426 3.385
56.8728 3.437
56.9031 3.177
56.9334 3.073
56.9637 2.969
56.9939 3.073
57.0242 3.333
57.0545 3.125
57.0848 3.542
57.1151 2.812
57.1453 3.021
57.1756 3.177
57.2059 3.125
57.2362 3.385
57.2665 3.542
57.2967 4.219
57.3270 3.646
57.3573 2.969
57.3876 3.490
57.4178 2.656
57.4481 3.177
57.4784 3.281
57.5087 3.854
57.5390 3.385
57.5692 4.115
57.5995 3.021
57.6298 3.385
57.6601 3.385
57.6904 2.917
57.7206 3.542
57.7509 2.396
57.7812 2.656
57.8115 2.604
57.8417 3.594
57.8720 3.385
57.9023 3.490
57.9326 3.177
57.9629 2.292
57.9931 3.750
58.0234 3.281
58.0537 3.490
58.0840 3.750
58.1143 4.323
58.1445 3.958
58.1748 3.698
58.2051 4.115
58.2354 4.427
58.2656 3.698
58.2959 4.740
58.3262 4.115
58.3565 3.854
58.3868 4.062
58.4170 3.854
58.4473 3.906
58.4776 4.896
58.5079 4.115
58.5382 4.375
58.5684 3.958
58.5987 4.896
58.6290 4.635
58.6593 4.219
58.6896 4.062
58.7198 3.802
58.7501 4.687
58.7804 4.948
58.8107 3.802
58.8409 3.906
58.8712 4.167
58.9015 2.552
58.9318 3.646
58.9621 3.229
58.9923 4.062
59.0226 3.958
59.0529 4.375
59.0832 4.479
59.1135 3.698
59.1437 3.802
59.1740 4.635
59.2043 4.479
59.2346 4.375
59.2648 3.490
59.2951 4.167
59.3254 4.010
59.3557 5.208
59.3860 4.792
59.4162 3.490
59.4465 4.271
59.4768 3.542
59.5071 5.260
59.5374 5.417
59.5676 5.208
59.5979 4.948
59.6282 4.583
59.6585 4.010
59.6887 4.583
59.7190 5.312
59.7493 3.854
59.7796 4.792
59.8099 4.271
59.8401 5.573
59.8704 4.219
59.9007 3.698
59.9310 4.896
59.9613 4.375
59.9915 5.156
60.0218 4.062
60.0521 5.104
60.0824 4.687
60.1126 4.792
60.1429 4.531
60.1732 4.531
60.2035 4.531
60.2338 4.427
60.2640 3.750
60.2943 4.635
60.3246 4.219
60.3549 3.958
60.3852 4.115
60.4154 3.906
60.4457 2.969
60.4760 3.958
60.5063 3.594
60.5365 3.802
60.5668 4.062
60.5971 3.437
60.6274 3.802
60.6577 3.594
60.6879 3.385
60.7182 3.542
60.7485 2.656
60.7788 3.177
60.8091 3.594
60.8393 4.427
60.8696 3.437
60.8999 2.760
60.9302 2.917
60.9604 3.854
60.9907 3.125
61.0210 3.177
61.0513 3.125
61.0816 3.333
61.1118 2.917
61.1421 3.125
61.1724 3.125
61.2027 4.062
61.2330 2.812
61.2632 3.490
61.2935 3.125
61.3238 3.385
61.3541 2.604
61.3844 3.802
61.4146 3.854
61.4449 3.229
61.4752 3.802
61.5055 2.969
61.5357 2.708
61.5660 3.437
61.5963 3.177
61.6266 3.177
61.6569 3.229
61.6871 3.073
61.7174 3.594
61.7477 3.802
61.7780 3.073
61.8083 2.917
61.8385 2.604
61.8688 3.333
61.8991 3.698
61.9294 4.271
61.9596 3.177
61.9899 3.802
62.0202 3.646
62.0505 3.490
62.0808 3.437
62.1110 2.448
62.1413 3.750
62.1716 3.333
62.2019 2.865
62.2322 4.271
62.2624 4.062
62.2927 4.010
62.3230 3.385
62.3533 4.062
62.3835 3.333
62.4138 3.958
62.4441 3.854
62.4744 4.427
62.5047 3.906
62.5349 4.219
62.5652 3.437
62.5955 4.375
62.6258 4.375
62.6561 3.906
62.6863 4.583
62.7166 3.750
62.7469 4.115
62.7772 4.792
62.8074 4.271
62.8377 3.906
62.8680 4.323
62.8983 3.542
62.9286 3.854
62.9588 4.635
62.9891 5.104
63.0194 4.062
63.0497 3.698
63.0800 4.062
63.1102 4.479
63.1405 4.219
63.1708 4.844
63.2011 4.219
63.2313 3.542
63.2616 4.844
63.2919 3.958
63.3222 4.375
63.3525 4.427
63.3827 3.490
63.4130 3.646
63.4433 3.646
63.4736 3.542
63.5039 4.583
63.5341 3.698
63.5644 4.479
63.5947 4.740
63.6250 3.906
63.6552 4.062
63.6855 4.323
63.7158 5.208
63.7461 4.948
63.7764 3.333
63.8066 4.583
63.8369 4.844
63.8672 4.271
63.8975 4.219
63.9278 3.750
63.9580 4.844
63.9883 4.740
64.0186 4.271
64.0489 4.271
64.0791 3.854
64.1094 4.531
64.1397 4.219
64.1700 4.740
64.2003 5.208
64.2305 5.104
64.2608 3.802
64.2911 4.323
64.3214 5.625
64.3517 4.375
64.3819 4.219
64.4122 3.698
64.4425 5.365
64.4728 4.010
64.5031 4.271
64.5333 4.323
64.5636 4.531
64.5939 4.740
64.6242 4.531
64.6544 4.531
64.6847 5.052
64.7150 4.687
64.7453 4.271
64.7756 4.115
64.8058 4.115
64.8361 4.687
64.8664 4.375
64.8967 3.802
64.9270 3.021
64.9572 4.010
64.9875 3.542
65.0178 3.229
65.0481 3.385
65.0783 3.385
65.1086 3.854
65.1389 3.490
65.1692 3.646
65.1995 2.865
65.2297 2.708
65.2600 3.177
65.2903 2.708
65.3206 3.021
65.3509 2.187
65.3811 3.125
65.4114 2.187
65.4417 2.500
65.4720 2.917
65.5022 2.552
65.5325 3.542
65.5628 2.604
65.5931 2.969
65.6234 1.875
65.6536 2.240
65.6839 2.187
65.7142 2.448
65.7445 3.021
65.7748 2.396
65.8050 1.979
65.8353 1.875
65.8656 2.500
65.8959 2.083
65.9261 2.604
65.9564 2.396
65.9867 2.292
66.0170 2.448
66.0473 2.448
66.0775 1.875
66.1078 2.552
66.1381 2.240
66.1684 1.823
66.1987 3.229
66.2289 2.448
66.2592 2.240
66.2895 2.396
66.3198 2.969
66.3500 2.344
66.3803 2.969
66.4106 2.344
66.4409 2.292
66.4712 2.500
66.5014 2.344
66.5317 2.396
66.5620 2.448
66.5923 2.396
66.6226 2.187
66.6528 1.927
66.6831 2.500
66.7134 2.083
66.7437 2.031
66.7739 2.708
66.8042 2.344
66.8345 2.448
66.8648 2.344
66.8951 1.979
66.9253 1.927
66.9556 2.396
66.9859 2.344
67.0162 1.979
67.0465 1.979
67.0767 2.083
67.1070 2.656
67.1373 2.604
67.1676 1.615
67.1978 2.135
67.2281 1.875
67.2584 2.396
67.2887 2.396
67.3190 2.187
67.3492 2.292
67.3795 1.823
67.4098 2.344
67.4401 3.177
67.4704 2.240
67.5006 2.135
67.5309 1.927
67.5612 2.396
67.5915 2.135
67.6218 2.135
67.6520 2.708
67.6823 2.344
67.7126 2.240
67.7429 2.500
67.7731 2.917
67.8034 2.448
67.8337 2.552
67.8640 2.656
67.8943 2.448
67.9245 1.979
67.9548 2.344
67.9851 2.344
68.0154 1.979
68.0457 2.344
68.0759 1.823
68.1062 1.354
68.1365 1.823
68.1668 2.031
68.1970 2.187
68.2273 2.396
68.2576 2.500
68.2879 2.187
68.3182 2.344
68.3484 1.823
68.3787 2.865
68.4090 2.500
68.4393 2.135
68.4696 2.656
68.4998 2.031
68.5301 2.135
68.5604 1.875
68.5907 2.240
68.6209 2.656
68.6512 1.667
68.6815 2.448
68.7118 2.917
68.7421 2.500
68.7723 2.344
68.8026 3.281
68.8329 2.500
68.8632 2.344
68.8935 2.396
68.9237 2.604
68.9540 2.604
68.9843 2.760
69.0146 2.344
69.0448 2.396
69.0751 2.448
69.1054 2.500
69.1357 2.500
69.1660 2.865
69.1962 3.177
69.2265 2.448
69.2568 2.187
69.2871 2.865
69.3174 3.125
69.3476 3.021
69.3779 2.969
69.4082 2.552
69.4385 2.708
69.4687 2.240
69.4990 3.490
69.5293 2.969
69.5596 3.125
69.5899 2.500
69.6201 2.812
69.6504 2.812
69.6807 2.656
69.7110 3.125
69.7413 2.344
69.7715 2.187
69.8018 2.917
69.8321 2.083
69.8624 2.344
69.8926 2.917
69.9229 2.917
69.9532 2.500
69.9835 3.021
70.0138 2.240
70.0440 2.240
70.0743 2.344
70.1046 2.917
70.1349 2.708
70.1652 2.448
70.1954 2.500
70.2257 2.917
70.2560 2.760
70.2863 2.917
70.3166 2.292
70.3468 3.073
70.3771 2.396
70.4074 2.187
70.4377 2.708
70.4679 2.552
70.4982 2.708
70.5285 2.708
70.5588 2.292
70.5891 2.604
70.6193 2.865
70.6496 2.708
70.6799 2.656
70.7102 2.396
70.7405 2.917
70.7707 3.125
70.8010 2.292
70.8313 2.552
70.8616 2.187
70.8918 2.240
70.9221 2.292
70.9524 2.240
70.9827 2.396
71.0130 2.031
71.0432 2.292
71.0735 2.240
71.1038 2.500
71.1341 2.500
71.1644 3.073
71.1946 2.135
71.2249 2.708
71.2552 1.927
71.2855 2.917
71.3157 2.187
71.3460 2.656
71.3763 2.240
71.4066 2.240
71.4369 2.552
71.4671 2.396
71.4974 2.031
71.5277 2.656
71.5580 1.667
71.5883 2.240
71.6185 1.875
71.6488 2.448
71.6791 2.448
71.7094 1.406
71.7396 2.344
71.7699 2.760
71.8002 2.708
71.8305 1.927
71.8608 2.292
71.8910 2.292
71.9213 2.396
71.9516 1.927
71.9819 2.083
72.0122 2.240
72.0424 2.500
72.0727 2.552
72.1030 3.021
72.1333 2.552
72.1635 2.240
72.1938 2.344
72.2241 2.292
72.2544 2.344
72.2847 1.875
72.3149 2.240
72.3452 2.031
72.3755 1.719
72.4058 2.552
72.4361 2.604
72.4663 2.240
72.4966 2.656
72.5269 2.396
72.5572 2.396
72.5874 2.292
72.6177 2.917
72.6480 2.135
72.6783 2.292
72.7086 2.083
72.7388 2.344
72.7691 2.083
72.7994 3.385
72.8297 2.865
72.8600 2.604
72.8902 1.875
72.9205 2.292
72.9508 2.396
72.9811 2.552
73.0113 2.240
73.0416 2.969
73.0719 1.667
73.1022 2.760
73.1325 2.344
73.1627 3.125
73.1930 2.135
73.2233 1.927
73.2536 2.292
73.2839 2.604
73.3141 2.448
73.3444 1.875
73.3747 2.812
73.4050 2.031
73.4353 2.083
73.4655 2.031
73.4958 2.344
73.5261 2.083
73.5564 2.760
73.5866 2.344
73.6169 2.604
73.6472 2.760
73.6775 2.708
73.7078 2.292
73.7380 2.135
73.7683 3.177
73.7986 3.385
73.8289 2.656
73.8592 2.187
73.8894 2.969
73.9197 1.719
73.9500 2.812
73.9803 2.240
74.0105 2.708
74.0408 2.240
74.0711 2.240
74.1014 2.240
74.1317 2.604
74.1619 2.500
74.1922 2.292
74.2225 3.229
74.2528 1.719
74.2831 2.656
74.3133 2.656
74.3436 2.448
74.3739 2.656
74.4042 2.240
74.4344 2.448
74.4647 2.500
74.4950 2.552
74.5253 2.917
74.5556 3.594
74.5858 2.552
74.6161 2.656
74.6464 2.708
74.6767 2.708
74.7070 3.229
74.7372 2.656
74.7675 2.448
74.7978 2.865
74.8281 2.604
74.8583 3.854
74.8886 2.969
74.9189 3.698
74.9492 2.812
74.9795 2.344
75.0097 1.771
75.0400 2.344
75.0703 2.865
75.1006 3.281
75.1309 2.917
75.1611 3.333
75.1914 2.708
75.2217 3.333
75.2520 2.760
75.2822 3.229
75.3125 3.177
75.3428 2.396
75.3731 2.760
75.4034 2.031
75.4336 2.604
75.4639 1.771
75.4942 2.500
75.5245 3.125
75.5548 2.240
75.5850 1.875
75.6153 1.927
75.6456 2.187
75.6759 1.771
75.7061 2.240
75.7364 2.396
75.7667 2.656
75.7970 2.604
75.8273 2.656
75.8575 2.604
75.8878 2.240
75.9181 2.448
75.9484 1.979
75.9787 2.135
76.0089 2.187
76.0392 2.083
76.0695 2.031
76.0998 2.292
76.1301 2.656
76.1603 2.292
76.1906 2.240
76.2209 2.812
76.2512 1.979
76.2814 2.135
76.3117 2.135
76.3420 2.344
76.3723 2.500
76.4026 2.135
76.4328 2.396
76.4631 2.240
76.4934 2.292
76.5237 1.927
76.5540 2.604
76.5842 2.812
76.6145 2.083
76.6448 1.719
76.6751 2.187
76.7053 2.135
76.7356 2.656
76.7659 1.510
76.7962 1.562
76.8265 1.823
76.8567 2.135
76.8870 1.823
76.9173 2.135
76.9476 2.604
76.9779 1.979
77.0081 1.615
77.0384 1.823
77.0687 1.667
77.0990 1.927
77.1292 2.500
77.1595 1.823
77.1898 2.344
77.2201 2.604
77.2504 2.292
77.2806 2.344
77.3109 1.510
77.3412 1.667
77.3715 2.396
77.4018 2.708
77.4320 1.667
77.4623 1.771
77.4926 2.292
77.5229 2.187
77.5531 1.615
77.5834 1.823
77.6137 2.656
77.6440 2.396
77.6743 1.719
77.7045 1.979
77.7348 2.187
77.7651 2.135
77.7954 2.031
77.8257 2.031
77.8559 2.812
77.8862 1.719
77.9165 1.875
77.9468 1.875
77.9770 2.344
78.0073 2.187
78.0376 1.719
78.0679 2.604
78.0982 1.562
78.1284 2.135
78.1587 2.031
78.1890 1.927
78.2193 1.927
78.2496 2.135
78.2798 1.875
78.3101 1.458
78.3404 2.240
78.3707 1.875
78.4009 1.458
78.4312 2.083
78.4615 2.240
78.4918 2.135
78.5221 1.979
78.5523 1.667
78.5826 1.510
78.6129 2.552
78.6432 2.240
78.6735 1.823
78.7037 1.719
78.7340 1.927
78.7643 1.771
78.7946 2.344
78.8248 1.927
78.8551 2.500
78.8854 1.927
78.9157 1.615
78.9460 1.771
78.9762 2.135
79.0065 2.396
79.0368 2.135
79.0671 2.396
79.0974 1.562
79.1276 2.083
79.1579 2.031
79.1882 2.135
79.2185 1.667
79.2488 2.240
79.2790 1.979
79.3093 2.240
79.3396 1.510
79.3699 1.667
79.4001 2.396
79.4304 2.292
79.4607 1.615
79.4910 2.135
79.5213 2.500
79.5515 2.187
79.5818 2.031
79.6121 2.552
79.6424 2.500
79.6727 1.823
79.7029 1.615
79.7332 2.187
79.7635 2.240
79.7938 2.708
79.8240 1.823
79.8543 2.656
79.8846 2.240
79.9149 2.344
79.9452 2.656
79.9754 1.823
80.0057 1.667
80.0360 1.562
80.0663 2.187
80.0966 1.667
80.1268 2.344
80.1571 2.083
80.1874 1.927
80.2177 3.073
80.2479 1.979
80.2782 1.979
80.3085 2.500
80.3388 2.031
80.3691 2.187
80.3993 2.292
80.4296 2.552
80.4599 2.552
80.4902 1.771
80.5205 2.552
80.5507 2.135
80.5810 2.969
80.6113 2.552
80.6416 2.083
80.6718 2.500
80.7021 2.708
80.7324 2.083
80.7627 2.448
80.7930 2.448
80.8232 2.396
80.8535 1.719
80.8838 1.979
80.9141 2.135
80.9444 2.240
80.9746 2.083
81.0049 2.604
81.0352 1.875
81.0655 1.667
81.0957 1.719
81.1260 2.031
81.1563 1.875
81.1866 2.500
81.2169 2.448
81.2471 2.083
81.2774 2.187
81.3077 2.135
81.3380 2.187
81.3683 2.292
81.3985 1.667
81.4288 1.562
81.4591 2.500
81.4894 2.448
81.5196 2.187
81.5499 2.135
81.5802 2.240
81.6105 1.667
81.6408 2.552
81.6710 2.187
81.7013 2.187
81.7316 2.083
81.7619 2.187
81.7922 1.667
81.8224 2.240
81.8527 1.719
81.8830 2.448
81.9133 2.760
81.9436 1.771
81.9738 1.875
82.0041 1.615
82.0344 1.875
82.0647 2.083
82.0949 2.135
82.1252 2.344
82.1555 1.719
82.1858 2.292
82.2161 2.187
82.2463 2.031
82.2766 1.979
82.3069 2.292
82.3372 1.979
82.3675 2.240
82.3977 2.031
82.4280 2.708
82.4583 2.604
82.4886 1.927
82.5188 1.823
82.5491 1.927
82.5794 2.708
82.6097 2.031
82.6400 2.344
82.6702 2.240
82.7005 2.135
82.7308 1.667
82.7611 2.083
82.7914 2.865
82.8216 2.500
82.8519 2.656
82.8822 2.656
82.9125 2.604
82.9427 2.552
82.9730 2.344
83.0033 2.656
83.0336 1.927
83.0639 1.771
83.0941 1.979
83.1244 2.135
83.1547 2.969
83.1850 2.344
83.2153 2.292
83.2455 2.448
83.2758 2.240
83.3061 1.615
83.3364 2.344
83.3666 2.135
83.3969 1.510
83.4272 2.135
83.4575 1.979
83.4878 2.292
83.5180 1.875
83.5483 2.656
83.5786 2.396
83.6089 2.240
83.6392 1.667
83.6694 2.240
83.6997 2.396
83.7300 2.135
83.7603 1.979
83.7905 1.667
83.8208 2.292
83.8511 2.240
83.8814 1.615
83.9117 2.656
83.9419 2.135
83.9722 1.979
84.0025 2.448
84.0328 1.719
84.0631 1.458
84.0933 1.615
84.1236 2.448
84.1539 2.292
84.1842 2.083
84.2144 2.344
84.2447 2.396
84.2750 2.240
84.3053 2.083
84.3356 2.500
84.3658 1.979
84.3961 2.292
84.4264 2.135
84.4567 2.031
84.4870 2.396
84.5172 2.396
84.5475 1.823
84.5778 2.292
84.6081 1.823
84.6383 1.667
84.6686 2.240
84.6989 1.979
84.7292 1.771
84.7595 1.302
84.7897 2.187
84.8200 1.875
84.8503 1.406
84.8806 2.083
84.9109 2.396
84.9411 2.187
84.9714 1.823
85.0017 2.187
85.0320 2.135
85.0623 1.667
85.0925 2.344
85.1228 2.292
85.1531 1.667
85.1834 2.187
85.2136 1.615
85.2439 2.396
85.2742 1.771
85.3045 2.031
85.3348 1.771
85.3650 1.667
85.3953 2.240
85.4256 1.719
85.4559 2.448
85.4862 1.875
85.5164 2.500
85.5467 1.667
85.5770 1.562
85.6073 1.927
85.6375 2.187
85.6678 2.396
85.6981 2.448
85.7284 1.979
85.7587 2.240
85.7889 2.135
85.8192 1.771
85.8495 2.135
85.8798 1.823
85.9101 2.083
85.9403 2.135
85.9706 2.292
86.0009 2.552
86.0312 1.823
86.0614 2.604
86.0917 1.979
86.1220 2.187
86.1523 1.510
86.1826 2.656
86.2128 2.135
86.2431 2.344
86.2734 2.448
86.3037 2.344
86.3340 2.240
86.3642 2.760
86.3945 2.344
86.4248 2.500
86.4551 2.135
86.4853 2.135
86.5156 1.771
86.5459 2.135
86.5762 2.396
86.6065 1.719
86.6367 2.292
86.6670 2.552
86.6973 1.615
86.7276 2.604
86.7579 1.823
86.7881 2.240
86.8184 2.344
86.8487 2.552
86.8790 2.135
86.9092 2.135
86.9395 2.187
86.9698 1.615
87.0001 1.875
87.0304 2.708
87.0606 1.927
87.0909 2.500
87.1212 2.708
87.1515 2.708
87.1818 2.135
87.2120 1.927
87.2423 1.823
87.2726 2.135
87.3029 2.396
87.3331 1.719
87.3634 2.292
87.3937 2.396
87.4240 2.760
87.4543 1.823
87.4845 2.083
87.5148 2.187
87.5451 2.083
87.5754 2.500
87.6057 1.979
87.6359 2.240
87.6662 2.604
87.6965 2.760
87.7268 1.667
87.7571 1.719
87.7873 1.979
87.8176 2.344
87.8479 2.448
87.8782 2.500
87.9084 1.927
87.9387 2.396
87.9690 2.187
87.9993 2.083
88.0296 2.187
88.0598 2.656
88.0901 2.396
88.1204 2.708
88.1507 2.656
88.1810 2.292
88.2112 2.083
88.2415 2.187
88.2718 2.448
88.3021 2.760
88.3323 2.292
88.3626 2.448
88.3929 2.187
88.4232 2.396
88.4535 2.135
88.4837 2.292
88.5140 2.292
88.5443 1.927
88.5746 2.396
88.6049 2.187
88.6351 2.135
88.6654 1.667
88.6957 1.927
88.7260 2.604
88.7562 2.500
88.7865 2.448
88.8168 1.979
88.8471 2.031
88.8774 2.448
88.9076 1.927
88.9379 1.562
88.9682 2.187
88.9985 1.875
89.0288 1.510
89.0590 1.667
89.0893 1.927
89.1196 1.719
89.1499 1.979
89.1801 1.927
89.2104 2.448
89.2407 1.771
89.2710 1.667
89.3013 1.719
89.3315 1.667
89.3618 1.875
89.3921 1.510
89.4224 2.031
89.4527 2.500
89.4829 2.292
89.5132 1.823
89.5435 1.406
89.5738 2.135
89.6040 1.562
89.6343 2.187
89.6646 2.135
89.6949 1.927
89.7252 1.719
89.7554 2.135
89.7857 2.344
89.8160 2.083
89.8463 1.875
89.8766 2.135
89.9068 1.458
89.9371 2.031
89.9674 1.615
89.9977 2.500
90.0279 1.979
90.0582 1.510
90.0885 2.292
90.1188 1.823
90.1491 1.719
90.1793 2.344
90.2096 2.031
90.2399 2.083
90.2702 1.562
90.3005 1.927
90.3307 1.771
90.3610 1.198
90.3913 1.667
90.4216 1.771
90.4518 1.979
90.4821 1.979
90.5124 1.615
90.5427 1.823
90.5730 2.135
90.6032 2.083
90.6335 1.875
90.6638 2.448
90.6941 1.562
90.7244 2.240
90.7546 1.510
90.7849 2.031
90.8152 2.292
90.8455 2.396
90.8758 1.719
90.9060 1.927
90.9363 2.031
90.9666 1.667
90.9969 2.292
91.0271 1.927
91.0574 1.667
91.0877 1.979
91.1180 2.031
91.1483 2.812
91.1785 1.510
91.2088 2.031
91.2391 1.510
91.2694 1.667
91.2997 1.979
91.3299 1.979
91.3602 2.187
91.3905 1.667
91.4208 2.344
91.4510 2.344
91.4813 2.135
91.5116 2.292
91.5419 2.135
91.5722 2.187
91.6024 1.823
91.6327 1.406
91.6630 2.135
91.6933 2.448
91.7236 2.083
91.7538 2.500
91.7841 1.823
91.8144 2.187
91.8447 1.771
91.8749 1.667
91.9052 1.927
91.9355 1.823
91.9658 1.823
91.9961 1.875
92.0263 2.031
92.0566 1.562
92.0869 1.510
92.1172 1.458
92.1475 1.615
92.1777 1.719
92.2080 1.979
92.2383 2.344
92.2686 1.667
92.2988 2.187
92.3291 1.979
92.3594 2.187
92.3897 1.927
92.4200 1.875
92.4502 1.979
92.4805 1.667
92.5108 1.562
92.5411 2.083
92.5714 1.719
92.6016 2.135
92.6319 1.927
92.6622 1.875
92.6925 2.656
92.7227 1.562
92.7530 2.031
92.7833 1.771
92.8136 2.135
92.8439 1.927
92.8741 1.510
92.9044 1.875
92.9347 1.302
92.9650 1.615
92.9953 1.719
93.0255 2.292
93.0558 2.031
93.0861 1.719
93.1164 2.187
93.1466 1.979
93.1769 1.771
93.2072 1.406
93.2375 1.823
93.2678 2.135
93.2980 1.771
93.3283 2.135
93.3586 1.823
93.3889 1.823
93.4192 1.927
93.4494 1.667
93.4797 2.240
93.5100 1.875
93.5403 1.406
93.5706 2.031
93.6008 2.187
93.6311 1.927
93.6614 2.031
93.6917 2.656
93.7219 2.187
93.7522 2.187
93.7825 2.708
93.8128 1.562
93.8431 1.562
93.8733 2.240
93.9036 2.135
93.9339 2.083
93.9642 1.979
93.9945 2.031
94.0247 2.187
94.0550 2.135
94.0853 1.667
94.1156 2.396
94.1458 2.187
94.1761 1.771
94.2064 1.875
94.2367 1.667
94.2670 2.083
94.2972 1.719
94.3275 1.615
94.3578 1.250
94.3881 1.927
94.4184 2.344
94.4486 1.771
94.4789 2.240
94.5092 1.823
94.5395 1.979
94.5697 1.771
94.6000 2.187
94.6303 2.187
94.6606 1.615
94.6909 1.771
94.7211 2.135
94.7514 1.510
94.7817 1.823
94.8120 1.927
94.8423 1.458
94.8725 1.875
94.9028 2.187
94.9331 2.187
94.9634 1.771
94.9936 1.719
95.0239 1.302
95.0542 1.406
95.0845 2.031
95.1148 1.458
95.1450 1.667
95.1753 1.667
95.2056 2.083
95.2359 1.771
95.2662 1.615
95.2964 1.771
95.3267 1.510
95.3570 1.979
95.3873 2.031
95.4175 2.031
95.4478 2.917
95.4781 1.771
95.5084 1.615
95.5387 1.510
95.5689 1.875
95.5992 1.406
95.6295 1.875
95.6598 1.979
95.6901 1.719
95.7203 1.719
95.7506 1.771
95.7809 1.667
95.8112 1.979
95.8414 1.875
95.8717 2.656
95.9020 1.562
95.9323 2.240
95.9626 2.031
95.9928 2.187
96.0231 2.187
96.0534 1.979
96.0837 2.240
96.1140 2.083
96.1442 1.823
96.1745 1.458
96.2048 1.562
96.2351 1.302
96.2653 1.302
96.2956 2.448
96.3259 1.719
96.3562 1.510
96.3865 1.823
96.4167 2.187
96.4470 2.135
96.4773 1.771
96.5076 1.771
96.5379 2.500
96.5681 1.875
96.5984 1.875
96.6287 1.771
96.6590 1.823
96.6893 2.240
96.7195 2.187
96.7498 2.656
96.7801 1.771
96.8104 2.135
96.8406 1.510
96.8709 1.771
96.9012 2.604
96.9315 1.771
96.9618 2.240
96.9920 2.448
97.0223 2.135
97.0526 2.240
97.0829 1.771
97.1132 1.823
97.1434 1.875
97.1737 1.979
97.2040 1.823
97.2343 2.187
97.2645 1.875
97.2948 2.031
97.3251 1.771
97.3554 2.187
97.3857 1.615
97.4159 1.771
97.4462 1.354
97.4765 2.240
97.5068 1.719
97.5371 1.719
97.5673 2.135
97.5976 1.771
97.6279 2.448
97.6582 1.979
97.6884 2.135
97.7187 1.562
97.7490 2.344
97.7793 1.979
97.8096 2.187
97.8398 2.083
97.8701 1.719
97.9004 2.292
97.9307 2.448
97.9610 1.875
97.9912 2.240
98.0215 1.458
98.0518 2.448
98.0821 1.719
98.1123 2.083
98.1426 2.031
98.1729 1.458
98.2032 2.656
98.2335 2.135
98.2637 2.292
98.2940 1.823
98.3243 1.927
98.3546 1.771
98.3849 1.771
98.4151 1.979
98.4454 2.031
98.4757 1.771
98.5060 1.562
98.5362 2.500
98.5665 2.396
98.5968 1.771
98.6271 1.771
98.6574 1.771
98.6876 1.510
98.7179 2.292
98.7482 1.615
98.7785 1.979
98.8088 2.240
98.8390 2.031
98.8693 2.396
98.8996 1.667
98.9299 2.292
98.9601 1.562
98.9904 1.771
99.0207 2.187
99.0510 1.771
99.0813 1.198
99.1115 2.812
99.1418 1.875
99.1721 1.927
99.2024 1.667
99.2327 1.771
99.2629 1.823
99.2932 1.927
99.3235 2.240
99.3538 1.719
99.3841 2.396
99.4143 1.979
99.4446 1.927
99.4749 2.083
99.5052 2.083
99.5354 1.406
99.5657 1.667
99.5960 1.771
99.6263 1.875
99.6566 1.510
99.6868 1.979
99.7171 1.719
99.7474 1.875
99.7777 1.979
99.8080 2.656
99.8382 1.615
99.8685 2.187
99.8988 1.719
99.9291 1.406
99.9593 1.719
99.9896 1.562
100.0199 2.031
100.0502 1.823
100.0805 2.031
100.1107 1.667
100.1410 1.823
100.1713 1.406
100.2016 1.667
100.2319 1.302
100.2621 1.823
100.2924 1.615
100.3227 2.604
100.3530 2.135
100.3832 1.771
100.4135 1.562
100.4438 1.979
100.4741 1.979
100.5044 1.979
100.5346 2.031
100.5649 1.875
100.5952 1.979
100.6255 2.708
100.6558 1.823
100.6860 1.458
100.7163 1.927
100.7466 2.031
100.7769 1.615
100.8071 1.354
100.8374 1.354
100.8677 1.875
100.8980 1.823
100.9283 1.719
100.9585 2.031
100.9888 1.979
101.0191 2.240
101.0494 2.500
101.0797 1.979
101.1099 2.031
101.1402 2.187
101.1705 1.875
101.2008 2.604
101.2310 2.135
101.2613 1.615
101.2916 1.979
101.3219 2.083
101.3522 1.406
101.3824 1.250
101.4127 1.875
101.4430 1.875
101.4733 1.823
101.5036 1.354
101.5338 2.031
101.5641 1.875
101.5944 2.031
101.6247 1.406
101.6549 2.135
101.6852 1.875
101.7155 2.031
101.7458 2.344
101.7761 1.771
101.8063 2.031
101.8366 1.510
101.8669 2.240
101.8972 1.875
101.9275 1.406
101.9577 1.771
101.9880 0.990
102.0183 1.510
102.0486 1.146
102.0788 1.927
102.1091 2.240
102.1394 1.875
102.1697 1.927
102.2000 1.927
102.2302 1.615
102.2605 1.250
102.2908 1.562
102.3211 1.719
102.3514 1.927
102.3816 1.979
102.4119 1.406
102.4422 1.458
102.4725 1.667
102.5028 1.771
102.5330 1.615
102.5633 1.979
102.5936 1.406
102.6239 1.458
102.6541 1.667
102.6844 1.875
102.7147 1.354
102.7450 1.198
102.7753 1.458
102.8055 2.031
102.8358 1.354
102.8661 1.823
102.8964 1.823
102.9267 1.510
102.9569 2.292
102.9872 1.562
103.0175 1.406
103.0478 1.510
103.0780 1.771
103.1083 1.250
103.1386 1.927
103.1689 1.562
103.1992 1.771
103.2294 1.667
103.2597 1.458
103.2900 1.042
103.3203 1.927
103.3506 1.510
103.3808 1.458
103.4111 1.667
103.4414 1.823
103.4717 1.458
103.5019 1.562
103.5322 1.927
103.5625 1.458
103.5928 1.250
103.6231 1.823
103.6533 1.354
103.6836 1.354
103.7139 1.250
103.7442 1.562
103.7745 1.562
103.8047 1.458
103.8350 1.510
103.8653 1.719
103.8956 1.562
103.9258 2.292
103.9561 1.771
103.9864 1.510
104.0167 2.396
104.0470 2.292
104.0772 2.344
104.1075 1.406
104.1378 1.458
104.1681 1.562
104.1984 1.250
104.2286 1.406
104.2589 1.458
104.2892 2.135
104.3195 1.771
104.3497 1.510
104.3800 2.031
104.4103 1.615
104.4406 1.562
104.4709 1.562
104.5011 1.198
104.5314 1.823
104.5617 1.719
104.5920 1.823
104.6223 2.083
104.6525 1.979
104.6828 1.875
104.7131 1.510
104.7434 1.250
104.7736 1.615
104.8039 1.927
104.8342 2.135
104.8645 1.198
104.8948 1.510
104.9250 1.250
104.9553 1.719
104.9856 1.406
105.0159 1.979
105.0462 1.458
105.0764 1.823
105.1067 1.667
105.1370 1.927
105.1673 1.510
105.1975 1.458
105.2278 1.875
105.2581 1.146
105.2884 1.562
105.3187 1.562
105.3489 1.406
105.3792 2.083
105.4095 1.667
105.4398 1.771
105.4701 1.927
105.5003 1.406
105.5306 1.771
105.5609 1.979
105.5912 1.615
105.6215 1.094
105.6517 1.615
105.6820 1.927
105.7123 1.927
105.7426 1.823
105.7728 1.146
105.8031 0.990
105.8334 1.615
105.8637 1.979
105.8940 1.979
105.9242 2.031
105.9545 1.458
105.9848 1.562
106.0151 1.979
106.0454 1.458
106.0756 1.823
106.1059 1.354
106.1362 2.031
106.1665 1.667
106.1967 2.031
106.2270 1.719
106.2573 1.771
106.2876 1.615
106.3179 1.302
106.3481 1.458
106.3784 2.552
106.4087 1.719
106.4390 1.354
106.4693 1.250
106.4995 1.615
106.5298 1.042
106.5601 1.979
106.5904 1.823
106.6206 1.406
106.6509 1.979
106.6812 1.615
106.7115 1.667
106.7418 2.031
106.7720 2.083
106.8023 2.135
106.8326 2.135
106.8629 1.875
106.8932 1.927
106.9234 2.031
106.9537 1.615
106.9840 1.771
107.0143 1.458
107.0445 1.458
107.0748 1.354
107.1051 1.458
107.1354 1.562
107.1657 1.354
107.1959 1.719
107.2262 1.927
107.2565 1.771
107.2868 1.458
107.3171 1.979
107.3473 2.448
107.3776 1.198
107.4079 1.562
107.4382 1.406
107.4684 1.823
107.4987 1.927
107.5290 1.302
107.5593 1.823
107.5896 1.094
107.6198 2.083
107.6501 1.667
107.6804 1.719
107.7107 1.927
107.7410 1.667
107.7712 1.510
107.8015 1.667
107.8318 1.510
107.8621 1.354
107.8923 1.458
107.9226 1.927
107.9529 1.719
107.9832 1.406
108.0135 1.771
108.0437 1.927
108.0740 1.510
108.1043 2.083
108.1346 1.823
108.1649 1.510
108.1951 1.562
108.2254 2.031
108.2557 2.187
108.2860 1.615
108.3163 1.771
108.3465 2.135
108.3768 1.927
108.4071 1.562
108.4374 1.510
108.4676 1.615
108.4979 1.667
108.5282 1.667
108.5585 1.979
108.5888 1.198
108.6190 1.823
108.6493 1.927
108.6796 1.510
108.7099 1.562
108.7402 1.719
108.7704 1.458
108.8007 1.823
108.8310 1.510
108.8613 1.875
108.8915 1.875
108.9218 1.615
108.9521 1.510
108.9824 1.562
109.0127 1.823
109.0429 1.562
109.0732 1.510
109.1035 1.875
109.1338 1.562
109.1641 1.146
109.1943 2.031
109.2246 1.771
109.2549 1.302
109.2852 1.458
109.3154 1.562
109.3457 1.458
109.3760 1.510
109.4063 1.250
109.4366 1.927
109.4668 1.562
109.4971 1.562
109.5274 2.031
109.5577 1.927
109.5880 1.094
109.6182 1.771
109.6485 1.354
109.6788 1.927
109.7091 1.979
109.7393 1.354
109.7696 1.823
109.7999 1.875
109.8302 1.667
109.8605 1.458
109.8907 1.458
109.9210 1.458
109.9513 1.667
109.9816 1.458
110.0119 1.510
110.0421 1.458
110.0724 2.187
110.1027 1.510
110.1330 1.458
110.1632 1.823
110.1935 1.354
110.2238 1.458
110.2541 1.615
110.2844 1.094
110.3146 1.406
110.3449 1.771
110.3752 2.031
110.4055 1.771
110.4358 1.771
110.4660 1.042
110.4963 1.667
110.5266 1.771
110.5569 1.406
110.5871 1.406
110.6174 2.292
110.6477 1.979
110.6780 1.406
110.7083 1.615
110.7385 1.458
110.7688 1.771
110.7991 1.510
110.8294 1.042
110.8597 1.719
110.8899 1.719
110.9202 1.615
110.9505 1.927
110.9808 1.510
111.0110 1.667
111.0413 2.083
111.0716 1.198
111.1019 1.875
111.1322 1.823
111.1624 1.823
111.1927 1.771
111.2230 1.771
111.2533 1.406
111.2836 1.979
111.3138 1.406
111.3441 1.615
111.3744 1.823
111.4047 1.406
111.4350 1.667
111.4652 1.823
111.4955 1.354
111.5258 1.927
111.5561 1.354
111.5863 1.615
111.6166 1.615
111.6469 1.667
111.6772 1.667
111.7075 1.667
111.7377 1.823
111.7680 1.667
111.7983 1.927
111.8286 1.719
111.8589 1.719
111.8891 1.510
111.9194 2.083
111.9497 1.719
111.9800 1.458
112.0102 1.667
112.0405 1.615
112.0708 2.396
112.1011 1.510
112.1314 1.250
112.1616 1.146
112.1919 1.667
112.2222 1.354
112.2525 1.458
112.2828 1.667
112.3130 1.458
112.3433 1.823
112.3736 1.615
112.4039 1.250
112.4341 1.771
112.4644 1.979
112.4947 1.667
112.5250 2.292
112.5553 1.562
112.5855 1.302
112.6158 1.458
112.6461 1.562
112.6764 1.406
112.7067 1.823
112.7369 1.615
112.7672 1.615
112.7975 2.656
112.8278 1.615
112.8580 1.823
112.8883 1.615
112.9186 1.823
112.9489 2.344
112.9792 1.771
113.0094 1.250
113.0397 2.083
113.0700 1.667
113.1003 1.823
113.1306 1.406
113.1608 1.927
113.1911 1.250
113.2214 1.979
113.2517 1.562
113.2819 2.396
113.3122 1.250
113.3425 1.719
113.3728 2.292
113.4031 1.927
113.4333 1.719
113.4636 1.615
113.4939 1.667
113.5242 1.719
113.5545 1.719
113.5847 1.667
113.6150 1.667
113.6453 1.562
113.6756 1.354
113.7058 1.667
113.7361 1.979
113.7664 1.823
113.7967 1.875
113.8270 1.771
113.8572 1.979
113.8875 2.292
113.9178 2.031
113.9481 1.562
113.9784 1.771
114.0086 1.823
114.0389 1.823
114.0692 1.875
114.0995 1.771
114.1298 1.719
114.1600 2.708
114.1903 2.083
114.2206 1.979
114.2509 0.937
114.2811 1.458
114.3114 2.187
114.3417 1.771
114.3720 1.406
114.4023 1.458
114.4325 1.615
114.4628 1.875
114.4931 1.667
114.5234 1.771
114.5537 1.406
114.5839 1.302
114.6142 1.667
114.6445 1.510
114.6748 1.146
114.7050 1.823
114.7353 1.823
114.7656 1.458
114.7959 1.667
114.8262 1.771
114.8564 1.979
114.8867 2.031
114.9170 1.510
114.9473 2.135
114.9776 1.823
115.0078 1.875
115.0381 1.198
115.0684 1.771
115.0987 1.823
115.1289 1.719
115.1592 1.458
115.1895 1.927
115.2198 1.302
115.2501 1.875
115.2803 1.719
115.3106 1.198
115.3409 2.187
115.3712 1.719
115.4015 2.031
115.4317 1.771
115.4620 1.510
115.4923 1.823
115.5226 1.875
115.5528 1.823
115.5831 1.458
115.6134 1.771
115.6437 1.458
115.6740 1.615
115.7042 1.719
115.7345 1.562
115.7648 1.510
115.7951 2.344
115.8254 1.615
115.8556 2.135
115.8859 1.042
115.9162 2.031
115.9465 2.135
115.9767 1.927
116.0070 2.031
116.0373 1.354
116.0676 1.406
116.0979 2.240
116.1281 1.771
116.1584 1.771
116.1887 1.771
116.2190 1.562
116.2493 2.083
116.2795 1.927
116.3098 1.979
116.3401 1.615
116.3704 1.979
116.4006 1.823
116.4309 1.667
116.4612 2.344
116.4915 1.719
116.5218 2.083
116.5520 1.927
116.5823 1.979
116.6126 1.615
116.6429 1.562
116.6732 0.990
116.7034 1.615
116.7337 1.823
116.7640 1.406
116.7943 2.135
116.8245 2.031
116.8548 1.875
116.8851 1.875
116.9154 1.719
116.9457 1.979
116.9759 1.510
117.0062 1.979
117.0365 1.979
117.0668 1.875
117.0971 1.823
117.1273 1.615
117.1576 1.927
117.1879 1.823
117.2182 1.510
117.2485 1.562
117.2787 1.823
117.3090 1.615
117.3393 1.719
117.3696 1.823
117.3998 1.823
117.4301 1.979
117.4604 1.823
117.4907 1.458
117.5210 1.510
117.5512 1.510
117.5815 2.135
117.6118 1.823
117.6421 1.667
117.6724 1.875
117.7026 1.875
117.7329 1.979
117.7632 1.771
117.7935 1.615
117.8237 1.875
117.8540 1.927
117.8843 1.875
117.9146 1.458
117.9449 2.083
117.9751 1.719
118.0054 1.250
118.0357 2.135
118.0660 1.146
118.0963 1.302
118.1265 1.823
118.1568 1.979
118.1871 2.187
118.2174 1.562
118.2476 1.406
118.2779 1.823
118.3082 1.562
118.3385 1.302
118.3688 1.823
118.3990 1.510
118.4293 2.344
118.4596 2.135
118.4899 1.615
118.5202 1.719
118.5504 1.979
118.5807 1.354
118.6110 1.719
118.6413 1.979
118.6715 1.823
118.7018 2.135
118.7321 2.135
118.7624 1.510
118.7927 1.979
118.8229 1.406
118.8532 1.927
118.8835 2.031
118.9138 1.615
118.9441 1.927
118.9743 2.812
119.0046 1.562
119.0349 1.406
119.0652 2.135
119.0954 1.562
119.1257 1.823
119.1560 1.094
119.1863 1.510
119.2166 1.927
119.2468 2.083
119.2771 1.927
119.3074 1.667
119.3377 1.510
119.3680 1.250
119.3982 1.562
119.4285 1.510
119.4588 1.771
119.4891 1.927
119.5193 1.458
119.5496 1.719
119.5799 1.875
119.6102 1.927
119.6405 1.406
119.6707 1.979
119.7010 1.458
119.7313 1.719
119.7616 1.979
119.7919 1.771
119.8221 2.031
119.8524 1.719
119.8827 2.031
119.9130 1.458
119.9433 1.979
119.9735 2.135
120.0038 1.667
