'Id: "" Comment: "" Operator: "Lab Manager" Anode: "Cu" Scantype: "Locked Coupled" TimePerStep: "19.2" X: "9999" Y: "9999" Z: "9999" 
10.0015 3.177
10.0318 3.698
10.0620 2.760
10.0923 3.646
10.1226 3.542
10.1529 2.760
10.1832 4.010
10.2134 2.969
10.2437 3.229
10.2740 3.542
10.3043 3.125
10.3346 3.281
10.3648 3.750
10.3951 3.854
10.4254 3.229
10.4557 4.583
10.4859 4.010
10.5162 4.010
10.5465 4.323
10.5768 3.854
10.6071 3.698
10.6373 3.906
10.6676 4.167
10.6979 4.167
10.7282 3.333
10.7585 4.635
10.7887 4.323
10.8190 3.698
10.8493 6.146
10.8796 5.937
10.9098 6.667
10.9401 8.021
10.9704 10.000
11.0007 11.406
11.0310 12.396
11.0612 13.854
11.0915 13.021
11.1218 13.073
11.1521 13.021
11.1824 10.625
11.2126 7.917
11.2429 9.167
11.2732 6.979
11.3035 5.937
11.3337 5.990
11.3640 5.260
11.3943 4.792
11.4246 3.750
11.4549 3.542
11.4851 4.635
11.5154 4.062
11.5457 3.177
11.5760 3.542
11.6063 4.271
11.6365 3.594
11.6668 3.333
11.6971 3.646
11.7274 3.906
11.7577 5.104
11.7879 2.865
11.8182 3.958
11.8485 3.958
11.8788 3.125
11.9090 2.187
11.9393 4.219
11.9696 2.969
11.9999 2.708
12.0302 3.542
12.0604 3.021
12.0907 2.448
12.1210 3.958
12.1513 2.344
12.1816 3.177
12.2118 3.229
12.2421 3.490
12.2724 3.021
12.3027 3.906
12.3329 3.698
12.3632 3.750
12.3935 3.177
12.4238 3.750
12.4541 2.448
12.4843 2.604
12.5146 3.229
12.5449 3.177
12.5752 3.073
12.6055 2.708
12.6357 1.562
12.6660 2.500
12.6963 3.177
12.7266 3.490
12.7568 3.281
12.7871 3.021
12.8174 3.281
12.8477 3.125
12.8780 3.177
12.9082 3.542
12.9385 4.062
12.9688 2.917
12.9991 2.604
13.0294 3.333
13.0596 2.604
13.0899 2.656
13.1202 4.323
13.1505 3.021
13.1807 2.135
13.2110 3.646
13.2413 2.917
13.2716 3.281
13.3019 3.281
13.3321 3.437
13.3624 2.865
13.3927 2.604
13.4230 2.760
13.4533 2.292
13.4835 2.083
13.5138 2.656
13.5441 3.125
13.5744 2.656
13.6046 2.292
13.6349 3.281
13.6652 2.812
13.6955 2.292
13.7258 2.760
13.7560 3.021
13.7863 2.031
13.8166 2.187
13.8469 1.771
13.8772 2.448
13.9074 1.927
13.9377 2.187
13.9680 3.073
13.9983 2.656
14.0285 3.021
14.0588 2.604
14.0891 3.073
14.1194 2.344
14.1497 3.125
14.1799 1.927
14.2102 3.542
14.2405 2.344
14.2708 2.292
14.3011 2.552
14.3313 2.344
14.3616 2.344
14.3919 2.135
14.4222 1.979
14.4524 2.760
14.4827 3.073
14.5130 2.187
14.5433 2.187
14.5736 2.917
14.6038 3.073
14.6341 1.979
14.6644 2.344
14.6947 2.917
14.7250 2.812
14.7552 3.021
14.7855 2.865
14.8158 2.292
14.8461 2.448
14.8764 2.344
14.9066 2.500
14.9369 2.396
14.9672 2.292
14.9975 2.812
15.0277 2.656
15.0580 1.979
15.0883 2.187
15.1186 2.500
15.1489 2.187
15.1791 2.240
15.2094 2.500
15.2397 1.667
15.2700 2.031
15.3003 2.865
15.3305 2.240
15.3608 3.021
15.3911 1.927
15.4214 2.448
15.4516 2.917
15.4819 1.771
15.5122 2.656
15.5425 2.240
15.5728 2.552
15.6030 2.031
15.6333 2.604
15.6636 2.187
15.6939 2.500
15.7242 2.552
15.7544 2.552
15.7847 2.552
15.8150 3.177
15.8453 2.500
15.8755 1.927
15.9058 2.135
15.9361 2.344
15.9664 2.448
15.9967 2.448
16.0269 1.719
16.0572 2.708
16.0875 1.875
16.1178 2.760
16.1481 2.135
16.1783 1.875
16.2086 2.240
16.2389 2.187
16.2692 2.760
16.2994 2.500
16.3297 2.083
16.3600 2.396
16.3903 1.823
16.4206 2.500
16.4508 2.135
16.4811 2.292
16.5114 2.292
16.5417 2.187
16.5720 2.135
16.6022 2.083
16.6325 1.771
16.6628 2.448
16.6931 2.760
16.7233 2.760
16.7536 2.500
16.7839 3.125
16.8142 2.708
16.8445 2.656
16.8747 1.823
16.9050 2.500
16.9353 1.875
16.9656 2.187
16.9959 2.292
17.0261 2.187
17.0564 2.187
17.0867 2.083
17.1170 3.229
17.1472 2.604
17.1775 2.812
17.2078 2.031
17.2381 2.448
17.2684 2.187
17.2986 2.031
17.3289 2.708
17.3592 1.823
17.3895 2.604
17.4198 1.562
17.4500 2.240
17.4803 2.656
17.5106 2.448
17.5409 2.187
17.5712 2.083
17.6014 2.135
17.6317 2.396
17.6620 2.708
17.6923 2.135
17.7225 1.615
17.7528 2.135
17.7831 2.344
17.8134 2.552
17.8437 2.031
17.8739 2.344
17.9042 2.292
17.9345 2.292
17.9648 2.656
17.9951 1.562
18.0253 2.760
18.0556 2.240
18.0859 2.135
18.1162 1.510
18.1464 2.292
18.1767 1.615
18.2070 1.875
18.2373 2.760
18.2676 2.187
18.2978 1.510
18.3281 1.771
18.3584 2.500
18.3887 1.771
18.4190 1.771
18.4492 2.083
18.4795 1.302
18.5098 2.604
18.5401 2.187
18.5703 2.240
18.6006 2.448
18.6309 1.875
18.6612 1.875
18.6915 1.510
18.7217 2.187
18.7520 2.187
18.7823 2.083
18.8126 2.552
18.8429 2.500
18.8731 1.615
18.9034 1.510
18.9337 1.875
18.9640 2.083
18.9942 1.719
19.0245 1.771
19.0548 2.344
19.0851 1.927
19.1154 1.979
19.1456 2.135
19.1759 2.187
19.2062 1.719
19.2365 2.031
19.2668 1.719
19.2970 2.187
19.3273 1.979
19.3576 2.187
19.3879 1.458
19.4181 2.344
19.4484 2.187
19.4787 2.448
19.5090 1.823
19.5393 2.292
19.5695 1.927
19.5998 2.344
19.6301 2.187
19.6604 2.500
19.6907 2.083
19.7209 2.292
19.7512 2.240
19.7815 1.667
19.8118 1.510
19.8420 1.979
19.8723 2.240
19.9026 1.927
19.9329 1.458
19.9632 2.240
19.9934 2.344
20.0237 2.500
20.0540 1.615
20.0843 1.510
20.1146 1.719
20.1448 1.562
20.1751 1.667
20.2054 2.083
20.2357 2.135
20.2659 1.771
20.2962 1.927
20.3265 2.083
20.3568 1.771
20.3871 2.552
20.4173 1.719
20.4476 1.771
20.4779 1.823
20.5082 2.031
20.5385 2.917
20.5687 2.396
20.5990 2.396
20.6293 1.562
20.6596 2.083
20.6899 1.771
20.7201 1.510
20.7504 1.771
20.7807 1.927
20.8110 1.667
20.8412 1.927
20.8715 1.510
20.9018 1.615
20.9321 1.875
20.9624 2.083
20.9926 2.031
21.0229 1.823
21.0532 1.719
21.0835 1.823
21.1138 2.604
21.1440 1.510
21.1743 1.823
21.2046 2.292
21.2349 1.354
21.2651 2.135
21.2954 1.979
21.3257 2.292
21.3560 1.823
21.3863 2.240
21.4165 1.354
21.4468 1.875
21.4771 1.823
21.5074 1.771
21.5377 1.875
21.5679 2.135
21.5982 1.198
21.6285 1.458
21.6588 1.510
21.6890 1.719
21.7193 2.031
21.7496 2.031
21.7799 1.927
21.8102 1.354
21.8404 1.510
21.8707 1.823
21.9010 1.667
21.9313 1.823
21.9616 1.458
21.9918 1.042
22.0221 1.458
22.0524 2.240
22.0827 1.927
22.1129 1.458
22.1432 1.823
22.1735 1.667
22.2038 1.875
22.2341 1.875
22.2643 1.510
22.2946 2.396
22.3249 1.927
22.3552 1.875
22.3855 1.927
22.4157 1.771
22.4460 1.823
22.4763 1.771
22.5066 1.562
22.5368 2.552
22.5671 1.875
22.5974 1.562
22.6277 2.917
22.6580 1.771
22.6882 1.458
22.7185 2.344
22.7488 2.240
22.7791 1.771
22.8094 1.875
22.8396 1.875
22.8699 1.979
22.9002 2.135
22.9305 2.135
22.9607 1.510
22.9910 1.979
23.0213 1.719
23.0516 2.344
23.0819 1.406
23.1121 1.667
23.1424 1.667
23.1727 1.875
23.2030 1.354
23.2333 2.135
23.2635 2.135
23.2938 1.979
23.3241 1.562
23.3544 1.667
23.3846 1.667
23.4149 1.979
23.4452 1.979
23.4755 1.823
23.5058 2.187
23.5360 1.510
23.5663 1.510
23.5966 1.562
23.6269 2.083
23.6572 0.937
23.6874 2.135
23.7177 1.823
23.7480 1.875
23.7783 1.823
23.8086 2.292
23.8388 1.927
23.8691 1.615
23.8994 1.719
23.9297 1.771
23.9599 1.406
23.9902 1.562
24.0205 1.823
24.0508 2.396
24.0811 1.510
24.1113 1.823
24.1416 2.187
24.1719 1.458
24.2022 1.354
24.2325 1.406
24.2627 1.927
24.2930 1.667
24.3233 1.615
24.3536 1.927
24.3838 1.510
24.4141 1.927
24.4444 1.562
24.4747 1.146
24.5050 1.510
24.5352 1.927
24.5655 1.979
24.5958 1.354
24.6261 2.344
24.6564 1.719
24.6866 1.875
24.7169 1.510
24.7472 1.875
24.7775 1.667
24.8077 1.927
24.8380 1.667
24.8683 1.198
24.8986 1.771
24.9289 1.562
24.9591 1.562
24.9894 1.875
25.0197 1.771
25.0500 1.927
25.0803 1.406
25.1105 0.833
25.1408 1.094
25.1711 1.302
25.2014 0.937
25.2316 2.083
25.2619 1.615
25.2922 1.354
25.3225 1.927
25.3528 1.979
25.3830 1.979
25.4133 1.250
25.4436 1.771
25.4739 2.292
25.5042 1.667
25.5344 1.562
25.5647 1.458
25.5950 1.823
25.6253 1.719
25.6555 1.615
25.6858 1.771
25.7161 2.031
25.7464 1.458
25.7767 1.458
25.8069 1.146
25.8372 1.458
25.8675 1.771
25.8978 1.354
25.9281 1.510
25.9583 1.458
25.9886 2.031
26.0189 1.510
26.0492 1.719
26.0794 1.823
26.1097 1.354
26.1400 1.615
26.1703 1.615
26.2006 2.135
26.2308 2.187
26.2611 1.719
26.2914 1.979
26.3217 1.406
26.3520 2.292
26.3822 1.667
26.4125 1.198
26.4428 1.667
26.4731 1.302
26.5034 1.458
26.5336 2.083
26.5639 1.354
26.5942 1.615
26.6245 1.667
26.6547 1.927
26.6850 1.875
26.7153 1.771
26.7456 1.510
26.7759 1.667
26.8061 1.615
26.8364 1.667
26.8667 1.667
26.8970 1.458
26.9273 1.823
26.9575 1.354
26.9878 1.823
27.0181 1.667
27.0484 1.406
27.0786 1.719
27.1089 1.875
27.1392 1.927
27.1695 1.927
27.1998 1.875
27.2300 1.979
27.2603 1.562
27.2906 2.083
27.3209 2.187
27.3512 1.458
27.3814 1.615
27.4117 1.823
27.4420 2.396
27.4723 1.823
27.5025 1.562
27.5328 1.354
27.5631 2.031
27.5934 2.187
27.6237 1.667
27.6539 1.667
27.6842 1.719
27.7145 2.031
27.7448 2.240
27.7751 1.927
27.8053 1.354
27.8356 1.354
27.8659 1.562
27.8962 1.927
27.9264 2.135
27.9567 1.927
27.9870 1.458
28.0173 1.510
28.0476 1.667
28.0778 1.667
28.1081 2.083
28.1384 1.615
28.1687 1.667
28.1990 2.135
28.2292 1.562
28.2595 1.771
28.2898 1.927
28.3201 1.719
28.3503 1.823
28.3806 1.615
28.4109 1.823
28.4412 1.823
28.4715 1.667
28.5017 2.031
28.5320 1.510
28.5623 1.667
28.5926 2.135
28.6229 1.198
28.6531 1.719
28.6834 2.344
28.7137 1.979
28.7440 1.979
28.7742 1.823
28.8045 1.302
28.8348 1.615
28.8651 1.562
28.8954 1.667
28.9256 1.823
28.9559 1.562
28.9862 1.771
29.0165 1.979
29.0468 1.354
29.0770 1.406
29.1073 2.396
29.1376 1.406
29.1679 1.510
29.1981 1.667
29.2284 2.344
29.2587 1.979
29.2890 1.719
29.3193 2.083
29.3495 2.708
29.3798 2.240
29.4101 2.187
29.4404 2.083
29.4707 2.344
29.5009 1.719
29.5312 1.458
29.5615 1.510
29.5918 2.083
29.6221 2.604
29.6523 1.979
29.6826 2.135
29.7129 2.135
29.7432 2.135
29.7734 2.604
29.8037 2.240
29.8340 2.448
29.8643 2.083
29.8946 2.604
29.9248 1.875
29.9551 2.135
29.9854 2.604
30.0157 2.292
30.0460 2.448
30.0762 2.552
30.1065 1.927
30.1368 2.865
30.1671 1.719
30.1973 2.135
30.2276 2.812
30.2579 1.771
30.2882 2.500
30.3185 2.708
30.3487 3.021
30.3790 2.969
30.4093 2.552
30.4396 2.865
30.4699 3.021
30.5001 3.437
30.5304 2.552
30.5607 3.073
30.5910 3.073
30.6212 2.187
30.6515 3.594
30.6818 3.490
30.7121 3.125
30.7424 3.385
30.7726 4.479
30.8029 3.281
30.8332 3.646
30.8635 3.437
30.8938 4.323
30.9240 4.427
30.9543 4.271
30.9846 4.479
31.0149 4.740
31.0451 5.208
31.0754 6.042
31.1057 6.250
31.1360 7.604
31.1663 6.615
31.1965 7.396
31.2268 8.281
31.2571 9.740
31.2874 10.312
31.3177 10.312
31.3479 10.156
31.3782 11.771
31.4085 15.781
31.4388 17.344
31.4690 15.729
31.4993 20.833
31.5296 22.865
31.5599 23.646
31.5902 23.698
31.6204 26.667
31.6507 23.490
31.6810 22.083
31.7113 20.104
31.7416 20.833
31.7718 17.031
31.8021 15.052
31.8324 15.625
31.8627 11.615
31.8929 10.885
31.9232 9.115
31.9535 10.208
31.9838 8.073
32.0141 7.344
32.0443 6.042
32.0746 6.719
32.1049 6.354
32.1352 6.146
32.1655 5.990
32.1957 4.167
32.2260 5.000
32.2563 3.906
32.2866 4.687
32.3169 4.219
32.3471 4.479
32.3774 4.583
32.4077 3.854
32.4380 2.760
32.4682 3.646
32.4985 4.010
32.5288 4.271
32.5591 3.698
32.5894 3.646
32.6196 3.906
32.6499 3.698
32.6802 3.177
32.7105 3.490
32.7408 3.385
32.7710 2.708
32.8013 3.125
32.8316 2.917
32.8619 2.344
32.8921 2.969
32.9224 2.656
32.9527 2.812
32.9830 2.760
33.0133 2.917
33.0435 2.969
33.0738 3.021
33.1041 3.281
33.1344 2.760
33.1647 2.604
33.1949 2.969
33.2252 3.073
33.2555 2.865
33.2858 3.490
33.3160 3.125
33.3463 2.604
33.3766 3.542
33.4069 2.812
33.4372 2.396
33.4674 2.760
33.4977 2.656
33.5280 2.552
33.5583 3.490
33.5886 3.750
33.6188 3.802
33.6491 3.750
33.6794 3.542
33.7097 3.177
33.7399 4.115
33.7702 4.896
33.8005 4.687
33.8308 5.104
33.8611 4.740
33.8913 5.625
33.9216 5.208
33.9519 6.771
33.9822 6.927
34.0125 8.333
34.0427 8.437
34.0730 10.573
34.1033 10.677
34.1336 14.635
34.1638 16.719
34.1941 22.500
34.2244 24.583
34.2547 28.177
34.2850 27.917
34.3152 23.854
34.3455 21.667
34.3758 19.219
34.4061 16.771
34.4364 11.927
34.4666 9.948
34.4969 8.542
34.5272 7.917
34.5575 6.302
34.5877 6.562
34.6180 6.562
34.6483 5.156
34.6786 5.937
34.7089 5.052
34.7391 5.208
34.7694 4.062
34.7997 4.375
34.8300 4.687
34.8603 3.542
34.8905 3.906
34.9208 3.646
34.9511 4.531
34.9814 3.490
35.0116 3.802
35.0419 4.010
35.0722 4.375
35.1025 4.635
35.1328 3.906
35.1630 4.271
35.1933 3.437
35.2236 3.750
35.2539 5.156
35.2842 4.531
35.3144 4.844
35.3447 5.156
35.3750 4.740
35.4053 5.521
35.4356 5.208
35.4658 5.469
35.4961 6.667
35.5264 5.365
35.5567 6.615
35.5869 6.406
35.6172 6.719
35.6475 8.698
35.6778 8.594
35.7081 8.333
35.7383 9.844
35.7686 10.573
35.7989 11.406
35.8292 12.969
35.8595 14.844
35.8897 18.490
35.9200 19.583
35.9503 21.042
35.9806 22.552
36.0108 26.458
36.0411 28.958
36.0714 29.948
36.1017 33.229
36.1320 30.781
36.1622 31.302
36.1925 30.312
36.2228 25.260
36.2531 23.385
36.2834 21.354
36.3136 16.458
36.3439 14.010
36.3742 12.500
36.4045 13.594
36.4347 9.896
36.4650 9.479
36.4953 8.646
36.5256 8.021
36.5559 8.125
36.5861 6.406
36.6164 6.562
36.6467 5.469
36.6770 5.260
36.7073 4.687
36.7375 4.219
36.7678 4.531
36.7981 4.375
36.8284 3.333
36.8586 3.958
36.8889 2.917
36.9192 2.604
36.9495 3.490
36.9798 3.906
37.0100 3.281
37.0403 2.135
37.0706 3.437
37.1009 3.229
37.1312 2.604
37.1614 2.708
37.1917 2.604
37.2220 2.760
37.2523 2.500
37.2825 2.604
37.3128 2.344
37.3431 2.344
37.3734 1.979
37.4037 2.917
37.4339 2.396
37.4642 2.708
37.4945 2.187
37.5248 1.979
37.5551 2.031
37.5853 1.823
37.6156 2.240
37.6459 1.458
37.6762 2.344
37.7064 2.292
37.7367 2.240
37.7670 2.135
37.7973 2.083
37.8276 1.875
37.8578 1.823
37.8881 1.823
37.9184 1.510
37.9487 1.927
37.9790 1.875
38.0092 1.927
38.0395 2.187
38.0698 1.875
38.1001 1.979
38.1304 1.875
38.1606 1.562
38.1909 2.135
38.2212 1.406
38.2515 1.771
38.2817 1.562
38.3120 1.615
38.3423 1.823
38.3726 1.615
38.4029 1.406
38.4331 1.875
38.4634 1.771
38.4937 1.250
38.5240 1.510
38.5543 1.771
38.5845 1.406
38.6148 1.667
38.6451 1.198
38.6754 0.990
38.7056 0.833
38.7359 1.250
38.7662 1.510
38.7965 1.302
38.8268 1.458
38.8570 1.771
38.8873 1.146
38.9176 1.510
38.9479 1.979
38.9782 1.510
39.0084 1.562
39.0387 1.562
39.0690 1.562
39.0993 1.094
39.1295 1.562
39.1598 1.094
39.1901 1.458
39.2204 1.250
39.2507 1.198
39.2809 1.667
39.3112 1.823
39.3415 1.250
39.3718 1.354
39.4021 1.771
39.4323 1.823
39.4626 1.823
39.4929 1.302
39.5232 0.833
39.5534 1.042
39.5837 1.198
39.6140 1.250
39.6443 0.937
39.6746 1.510
39.7048 1.146
39.7351 1.250
39.7654 0.990
39.7957 1.198
39.8260 1.250
39.8562 1.042
39.8865 1.354
39.9168 0.833
39.9471 1.146
39.9773 0.833
40.0076 0.885
40.0379 1.823
40.0682 0.990
40.0985 0.729
40.1287 1.302
40.1590 1.458
40.1893 1.510
40.2196 0.885
40.2499 1.562
40.2801 1.406
40.3104 1.042
40.3407 1.302
40.3710 0.833
40.4012 1.875
40.4315 0.833
40.4618 0.885
40.4921 1.354
40.5224 0.937
40.5526 0.885
40.5829 1.198
40.6132 1.146
40.6435 1.302
40.6738 0.833
40.7040 1.406
40.7343 1.302
40.7646 0.990
40.7949 0.937
40.8251 1.562
40.8554 1.198
40.8857 0.833
40.9160 0.885
40.9463 1.354
40.9765 1.042
41.0068 0.885
41.0371 1.198
41.0674 1.406
41.0977 1.042
41.1279 1.406
41.1582 1.250
41.1885 1.094
41.2188 0.937
41.2491 0.677
41.2793 0.885
41.3096 0.937
41.3399 0.937
41.3702 1.354
41.4004 1.302
41.4307 1.250
41.4610 1.146
41.4913 1.719
41.5216 1.250
41.5518 0.937
41.5821 0.729
41.6124 1.458
41.6427 1.042
41.6730 1.042
41.7032 1.094
41.7335 1.146
41.7638 1.042
41.7941 0.885
41.8243 0.885
41.8546 1.458
41.8849 0.937
41.9152 1.406
41.9455 1.198
41.9757 1.406
42.0060 1.146
42.0363 1.094
42.0666 1.458
42.0969 0.937
42.1271 1.146
42.1574 1.042
42.1877 1.094
42.2180 1.510
42.2482 1.094
42.2785 1.042
42.3088 0.885
42.3391 1.458
42.3694 0.937
42.3996 0.885
42.4299 0.781
42.4602 1.510
42.4905 1.146
42.5208 1.146
42.5510 0.833
42.5813 1.562
42.6116 0.885
42.6419 1.354
42.6721 1.198
42.7024 1.146
42.7327 1.458
42.7630 0.937
42.7933 0.781
42.8235 0.885
42.8538 1.406
42.8841 1.302
42.9144 1.042
42.9447 0.937
42.9749 0.990
43.0052 0.885
43.0355 1.354
43.0658 1.302
43.0960 1.094
43.1263 1.250
43.1566 0.729
43.1869 0.833
43.2172 1.198
43.2474 0.990
43.2777 1.250
43.3080 1.667
43.3383 1.615
43.3686 1.042
43.3988 1.146
43.4291 1.250
43.4594 0.885
43.4897 1.094
43.5199 1.198
43.5502 1.094
43.5805 0.625
43.6108 1.198
43.6411 0.781
43.6713 0.990
43.7016 1.354
43.7319 0.885
43.7622 1.198
43.7925 1.250
43.8227 0.677
43.8530 0.990
43.8833 1.458
43.9136 1.667
43.9439 1.198
43.9741 0.990
44.0044 0.729
44.0347 1.198
44.0650 1.615
44.0952 1.146
44.1255 0.729
44.1558 0.937
44.1861 1.094
44.2164 1.094
44.2466 1.094
44.2769 0.885
44.3072 1.094
44.3375 0.937
44.3678 0.885
44.3980 0.885
44.4283 1.406
44.4586 1.406
44.4889 1.250
44.5191 1.667
44.5494 0.937
44.5797 1.146
44.6100 1.667
44.6403 1.406
44.6705 1.198
44.7008 0.885
44.7311 1.719
44.7614 1.146
44.7917 1.146
44.8219 1.094
44.8522 1.250
44.8825 0.990
44.9128 0.677
44.9430 1.094
44.9733 1.042
45.0036 1.406
45.0339 1.094
45.0642 0.729
45.0944 1.146
45.1247 0.573
45.1550 1.458
45.1853 1.146
45.2156 1.302
45.2458 1.250
45.2761 1.458
45.3064 1.510
45.3367 0.833
45.3669 1.510
45.3972 1.927
45.4275 1.042
45.4578 1.510
45.4881 1.458
45.5183 1.146
45.5486 1.094
45.5789 1.042
45.6092 0.833
45.6395 1.146
45.6697 0.781
45.7000 1.146
45.7303 1.094
45.7606 0.729
45.7908 1.406
45.8211 1.458
45.8514 1.302
45.8817 1.042
45.9120 1.250
45.9422 1.302
45.9725 1.354
46.0028 1.094
46.0331 1.615
46.0634 1.146
46.0936 1.302
46.1239 1.458
46.1542 1.094
46.1845 1.354
46.2147 0.833
46.2450 1.250
46.2753 1.719
46.3056 1.771
46.3359 0.990
46.3661 1.562
46.3964 1.823
46.4267 1.771
46.4570 1.823
46.4873 1.458
46.5175 1.458
46.5478 1.875
46.5781 1.615
46.6084 1.510
46.6386 1.354
46.6689 1.875
46.6992 1.615
46.7295 2.083
46.7598 1.615
46.7900 1.562
46.8203 1.458
46.8506 1.927
46.8809 1.615
46.9112 2.187
46.9414 2.917
46.9717 2.552
47.0020 2.708
47.0323 2.760
47.0626 3.802
47.0928 3.073
47.1231 3.646
47.1534 3.646
47.1837 3.750
47.2139 5.677
47.2442 5.365
47.2745 6.146
47.3048 5.573
47.3351 6.458
47.3653 6.302
47.3956 6.719
47.4259 6.667
47.4562 6.562
47.4865 6.094
47.5167 5.885
47.5470 4.583
47.5773 5.208
47.6076 5.000
47.6378 4.531
47.6681 3.385
47.6984 2.708
47.7287 2.760
47.7590 2.552
47.7892 2.552
47.8195 2.135
47.8498 2.344
47.8801 2.083
47.9104 1.771
47.9406 1.979
47.9709 1.406
48.0012 1.667
48.0315 1.250
48.0617 1.771
48.0920 1.875
48.1223 1.927
48.1526 1.250
48.1829 1.771
48.2131 1.042
48.2434 1.615
48.2737 1.354
48.3040 0.990
48.3343 1.094
48.3645 2.031
48.3948 1.354
48.4251 1.198
48.4554 1.094
48.4856 1.094
48.5159 1.510
48.5462 1.510
48.5765 1.250
48.6068 1.354
48.6370 1.198
48.6673 1.354
48.6976 1.354
48.7279 1.406
48.7582 1.146
48.7884 1.094
48.8187 1.354
48.8490 1.250
48.8793 1.458
48.9095 1.146
48.9398 1.719
48.9701 1.146
49.0004 1.146
49.0307 1.458
49.0609 1.354
49.0912 1.042
49.1215 0.729
49.1518 1.562
49.1821 1.406
49.2123 1.354
49.2426 0.990
49.2729 1.302
49.3032 1.198
49.3334 1.146
49.3637 1.510
49.3940 1.458
49.4243 0.937
49.4546 1.250
49.4848 0.885
49.5151 1.302
49.5454 0.781
49.5757 1.406
49.6060 1.042
49.6362 1.042
49.6665 1.198
49.6968 1.094
49.7271 1.250
49.7574 1.562
49.7876 0.990
49.8179 0.937
49.8482 1.406
49.8785 1.510
49.9087 0.937
49.9390 1.146
49.9693 1.250
49.9996 1.094
50.0299 0.833
50.0601 1.250
50.0904 1.042
50.1207 1.094
50.1510 1.250
50.1813 1.250
50.2115 0.937
50.2418 1.198
50.2721 1.146
50.3024 1.250
50.3326 0.781
50.3629 0.885
50.3932 1.302
50.4235 1.354
50.4538 1.510
50.4840 1.250
50.5143 0.990
50.5446 1.250
50.5749 1.250
50.6052 1.562
50.6354 1.250
50.6657 0.833
50.6960 0.833
50.7263 1.042
50.7565 1.042
50.7868 0.781
50.8171 1.146
50.8474 1.510
50.8777 1.406
50.9079 1.354
50.9382 0.937
50.9685 1.146
50.9988 0.677
51.0291 0.781
51.0593 1.406
51.0896 0.833
51.1199 0.990
51.1502 1.146
51.1804 0.990
51.2107 0.833
51.2410 1.094
51.2713 1.198
51.3016 1.042
51.3318 0.885
51.3621 1.250
51.3924 0.833
51.4227 1.458
51.4530 1.510
51.4832 1.302
51.5135 0.885
51.5438 0.990
51.5741 0.990
51.6043 0.677
51.6346 1.094
51.6649 1.198
51.6952 1.302
51.7255 0.573
51.7557 1.198
51.7860 1.198
51.8163 1.406
51.8466 0.937
51.8769 0.990
51.9071 1.250
51.9374 0.625
51.9677 0.937
51.9980 0.833
52.0282 0.990
52.0585 1.042
52.0888 0.885
52.1191 1.146
52.1494 1.146
52.1796 0.885
52.2099 1.250
52.2402 0.990
52.2705 1.302
52.3008 1.146
52.3310 1.198
52.3613 1.042
52.3916 1.198
52.4219 1.875
52.4521 0.677
52.4824 0.990
52.5127 0.781
52.5430 0.885
52.5733 1.146
52.6035 1.146
52.6338 1.042
52.6641 1.094
52.6944 1.146
52.7247 1.354
52.7549 1.094
52.7852 1.406
52.8155 1.042
52.8458 1.302
52.8761 1.510
52.9063 1.198
52.9366 1.146
52.9669 1.146
52.9972 1.042
53.0274 1.250
53.0577 0.990
53.0880 1.094
53.1183 1.094
53.1486 1.094
53.1788 0.677
53.2091 1.146
53.2394 1.042
53.2697 0.937
53.3000 0.990
53.3302 0.885
53.3605 1.094
53.3908 0.833
53.4211 1.198
53.4513 1.146
53.4816 1.146
53.5119 0.469
53.5422 1.094
53.5725 0.885
53.6027 1.198
53.6330 0.833
53.6633 1.198
53.6936 1.094
53.7239 1.198
53.7541 0.781
53.7844 1.354
53.8147 1.094
53.8450 1.146
53.8752 1.198
53.9055 0.990
53.9358 1.406
53.9661 1.094
53.9964 1.094
54.0266 0.729
54.0569 1.250
54.0872 1.094
54.1175 0.781
54.1478 0.833
54.1780 1.250
54.2083 1.198
54.2386 1.354
54.2689 1.042
54.2991 0.990
54.3294 1.198
54.3597 1.198
54.3900 1.042
54.4203 1.250
54.4505 0.677
54.4808 1.510
54.5111 1.042
54.5414 1.042
54.5717 1.146
54.6019 1.302
54.6322 1.510
54.6625 1.406
54.6928 1.042
54.7230 1.667
54.7533 0.937
54.7836 1.615
54.8139 1.562
54.8442 1.302
54.8744 1.458
54.9047 0.729
54.9350 1.094
54.9653 0.937
54.9956 1.250
55.0258 1.458
55.0561 0.885
55.0864 1.250
55.1167 1.094
55.1469 0.781
55.1772 1.667
55.2075 1.354
55.2378 1.510
55.2681 1.719
55.2983 1.042
55.3286 1.510
55.3589 1.615
55.3892 1.198
55.4195 1.458
55.4497 1.719
55.4800 1.302
55.5103 1.354
55.5406 1.719
55.5709 1.250
55.6011 1.875
55.6314 1.667
55.6617 1.771
55.6920 1.458
55.7222 1.875
55.7525 1.458
55.7828 1.719
55.8131 1.771
55.8434 1.823
55.8736 1.250
55.9039 2.083
55.9342 2.552
55.9645 2.604
55.9948 2.187
56.0250 3.385
56.0553 3.385
56.0856 3.073
56.1159 3.646
56.1461 3.854
56.1764 3.958
56.2067 4.687
56.2370 4.844
56.2673 5.000
56.2975 5.729
56.3278 6.354
56.3581 6.719
56.3884 7.344
56.4187 7.708
56.4489 7.708
56.4792 7.187
56.5095 6.510
56.5398 7.344
56.5700 6.771
56.6003 5.729
56.6306 5.156
56.6609 4.323
56.6912 4.948
56.7214 4.010
56.7517 3.490
56.7820 3.698
56.8123 3.281
56.8426 3.281
56.8728 2.448
56.9031 3.021
56.9334 2.760
56.9637 2.083
56.9939 2.760
57.0242 1.667
57.0545 1.979
57.0848 2.552
57.1151 2.187
57.1453 1.927
57.1756 1.458
57.2059 1.615
57.2362 1.875
57.2665 1.615
57.2967 1.667
57.3270 2.187
57.3573 1.146
57.3876 1.094
57.4178 1.458
57.4481 0.990
57.4784 1.094
57.5087 1.146
57.5390 1.146
57.5692 1.562
57.5995 0.833
57.6298 1.198
57.6601 1.042
57.6904 0.990
57.7206 1.510
57.7509 1.771
57.7812 1.354
57.8115 1.406
57.8417 1.094
57.8720 1.146
57.9023 1.198
57.9326 1.458
57.9629 1.198
57.9931 1.146
58.0234 1.354
58.0537 0.469
58.0840 0.781
58.1143 1.198
58.1445 1.042
58.1748 0.937
58.2051 1.198
58.2354 1.094
58.2656 1.250
58.2959 0.885
58.3262 0.937
58.3565 0.833
58.3868 0.625
58.4170 0.937
58.4473 0.885
58.4776 1.354
58.5079 1.562
58.5382 0.937
58.5684 1.302
58.5987 1.042
58.6290 1.042
58.6593 0.937
58.6896 0.937
58.7198 1.094
58.7501 0.625
58.7804 1.198
58.8107 1.094
58.8409 1.562
58.8712 0.833
58.9015 0.833
58.9318 1.042
58.9621 1.094
58.9923 1.042
59.0226 0.833
59.0529 0.937
59.0832 1.042
59.1135 1.094
59.1437 0.990
59.1740 1.146
59.2043 0.885
59.2346 0.729
59.2648 0.781
59.2951 1.094
59.3254 0.937
59.3557 0.885
59.3860 0.937
59.4162 0.937
59.4465 0.885
59.4768 1.146
59.5071 0.885
59.5374 1.302
59.5676 0.937
59.5979 0.937
59.6282 1.198
59.6585 1.250
59.6887 1.406
59.7190 0.885
59.7493 0.677
59.7796 1.146
59.8099 1.094
59.8401 0.937
59.8704 0.937
59.9007 1.302
59.9310 0.677
59.9613 1.042
59.9915 1.354
60.0218 1.250
60.0521 0.729
60.0824 0.885
60.1126 0.885
60.1429 1.042
60.1732 1.354
60.2035 1.354
60.2338 0.990
60.2640 1.094
60.2943 0.885
60.3246 1.146
60.3549 0.833
60.3852 1.042
60.4154 0.885
60.4457 1.250
60.4760 1.042
60.5063 1.198
60.5365 1.510
60.5668 0.781
60.5971 1.771
60.6274 0.990
60.6577 0.833
60.6879 1.250
60.7182 0.937
60.7485 0.990
60.7788 1.146
60.8091 0.625
60.8393 0.885
60.8696 0.521
60.8999 0.990
60.9302 1.042
60.9604 0.781
60.9907 1.146
61.0210 0.990
61.0513 1.354
61.0816 1.094
61.1118 0.937
61.1421 1.146
61.1724 1.510
61.2027 0.937
61.2330 1.042
61.2632 0.937
61.2935 1.094
61.3238 1.146
61.3541 1.250
61.3844 1.354
61.4146 1.094
61.4449 1.198
61.4752 1.250
61.5055 0.781
61.5357 1.250
61.5660 1.250
61.5963 1.146
61.6266 1.354
61.6569 1.250
61.6871 1.198
61.7174 1.823
61.7477 1.302
61.7780 1.094
61.8083 1.562
61.8385 1.406
61.8688 1.146
61.8991 1.510
61.9294 1.979
61.9596 1.667
61.9899 1.823
62.0202 1.771
62.0505 1.042
62.0808 2.396
62.1110 1.823
62.1413 1.719
62.1716 2.292
62.2019 1.719
62.2322 2.240
62.2624 3.021
62.2927 2.031
62.3230 3.021
62.3533 2.448
62.3835 3.437
62.4138 3.281
62.4441 3.490
62.4744 4.323
62.5047 3.802
62.5349 3.958
62.5652 4.062
62.5955 5.521
62.6258 4.896
62.6561 5.052
62.6863 6.927
62.7166 5.729
62.7469 5.573
62.7772 5.937
62.8074 5.833
62.8377 5.312
62.8680 6.198
62.8983 4.740
62.9286 4.219
62.9588 4.583
62.9891 3.958
63.0194 3.750
63.0497 3.437
63.0800 3.125
63.1102 3.229
63.1405 2.083
63.1708 2.552
63.2011 1.823
63.2313 2.031
63.2616 2.135
63.2919 2.344
63.3222 1.927
63.3525 1.875
63.3827 2.031
63.4130 1.458
63.4433 2.031
63.4736 1.302
63.5039 1.510
63.5341 1.302
63.5644 1.823
63.5947 1.094
63.6250 0.885
63.6552 1.458
63.6855 1.354
63.7158 1.458
63.7461 1.094
63.7764 1.146
63.8066 1.667
63.8369 0.885
63.8672 1.250
63.8975 1.406
63.9278 1.250
63.9580 1.354
63.9883 0.781
64.0186 0.885
64.0489 0.885
64.0791 1.198
64.1094 0.833
64.1397 0.729
64.1700 0.990
64.2003 0.833
64.2305 0.885
64.2608 1.094
64.2911 0.885
64.3214 1.094
64.3517 1.302
64.3819 1.042
64.4122 0.937
64.4425 0.937
64.4728 0.885
64.5031 0.885
64.5333 1.042
64.5636 0.833
64.5939 1.146
64.6242 0.833
64.6544 1.250
64.6847 1.042
64.7150 0.990
64.7453 1.250
64.7756 0.729
64.8058 1.250
64.8361 1.302
64.8664 0.937
64.8967 0.833
64.9270 0.833
64.9572 0.781
64.9875 1.250
65.0178 1.042
65.0481 0.937
65.0783 0.781
65.1086 0.833
65.1389 0.729
65.1692 1.146
65.1995 0.833
65.2297 0.885
65.2600 0.885
65.2903 1.250
65.3206 1.250
65.3509 0.833
65.3811 1.250
65.4114 1.302
65.4417 1.250
65.4720 0.885
65.5022 0.885
65.5325 1.354
65.5628 1.042
65.5931 0.781
65.6234 1.094
65.6536 0.885
65.6839 0.833
65.7142 0.781
65.7445 0.833
65.7748 1.250
65.8050 1.146
65.8353 1.406
65.8656 1.302
65.8959 1.667
65.9261 1.406
65.9564 1.406
65.9867 1.406
66.0170 1.302
66.0473 1.823
66.0775 1.302
66.1078 1.615
66.1381 1.927
66.1684 1.927
66.1987 1.406
66.2289 2.396
66.2592 2.083
66.2895 0.990
66.3198 1.875
66.3500 1.771
66.3803 1.406
66.4106 1.094
66.4409 1.510
66.4712 1.198
66.5014 1.615
66.5317 1.146
66.5620 1.406
66.5923 1.823
66.6226 1.302
66.6528 2.083
66.6831 1.302
66.7134 1.146
66.7437 0.781
66.7739 1.302
66.8042 1.823
66.8345 1.354
66.8648 1.562
66.8951 1.875
66.9253 1.406
66.9556 1.354
66.9859 1.198
67.0162 1.406
67.0465 1.562
67.0767 1.406
67.1070 1.667
67.1373 1.927
67.1676 1.302
67.1978 1.719
67.2281 2.031
67.2584 2.031
67.2887 1.719
67.3190 1.719
67.3492 1.562
67.3795 1.875
67.4098 2.083
67.4401 2.865
67.4704 2.865
67.5006 3.125
67.5309 2.292
67.5612 3.542
67.5915 3.437
67.6218 3.437
67.6520 3.958
67.6823 3.958
67.7126 4.635
67.7429 4.062
67.7731 3.958
67.8034 4.844
67.8337 5.052
67.8640 4.219
67.8943 4.479
67.9245 4.531
67.9548 4.583
67.9851 3.490
68.0154 4.323
68.0457 3.229
68.0759 3.177
68.1062 3.281
68.1365 3.073
68.1668 2.865
68.1970 2.500
68.2273 2.083
68.2576 2.500
68.2879 1.979
68.3182 2.292
68.3484 2.292
68.3787 1.823
68.4090 2.500
68.4393 1.927
68.4696 1.719
68.4998 2.656
68.5301 2.344
68.5604 1.771
68.5907 1.979
68.6209 1.823
68.6512 2.292
68.6815 2.187
68.7118 2.396
68.7421 2.708
68.7723 3.021
68.8026 2.031
68.8329 1.615
68.8632 2.500
68.8935 1.771
68.9237 1.979
68.9540 2.865
68.9843 2.240
69.0146 2.187
69.0448 2.396
69.0751 1.771
69.1054 2.187
69.1357 1.562
69.1660 2.292
69.1962 1.823
69.2265 1.927
69.2568 2.083
69.2871 1.667
69.3174 1.823
69.3476 1.406
69.3779 1.615
69.4082 1.510
69.4385 1.302
69.4687 1.302
69.4990 1.406
69.5293 1.875
69.5596 1.250
69.5899 0.885
69.6201 0.937
69.6504 1.667
69.6807 1.302
69.7110 1.250
69.7413 1.146
69.7715 1.042
69.8018 0.937
69.8321 0.990
69.8624 1.302
69.8926 1.042
69.9229 0.885
69.9532 1.042
69.9835 0.781
70.0138 0.781
70.0440 1.250
70.0743 0.833
70.1046 0.625
70.1349 0.990
70.1652 0.781
70.1954 0.833
70.2257 1.094
70.2560 0.885
70.2863 1.042
70.3166 0.781
70.3468 0.885
70.3771 0.885
70.4074 0.781
70.4377 0.677
70.4679 0.885
70.4982 1.094
70.5285 1.198
70.5588 0.469
70.5891 0.573
70.6193 0.885
70.6496 0.781
70.6799 0.885
70.7102 0.990
70.7405 1.146
70.7707 0.729
70.8010 0.521
70.8313 0.885
70.8616 0.625
70.8918 0.729
70.9221 1.146
70.9524 1.042
70.9827 0.885
71.0130 0.990
71.0432 0.625
71.0735 0.885
71.1038 0.729
71.1341 0.990
71.1644 0.729
71.1946 0.781
71.2249 0.625
71.2552 0.625
71.2855 0.833
71.3157 0.677
71.3460 0.833
71.3763 0.677
71.4066 0.885
71.4369 0.573
71.4671 0.521
71.4974 0.729
71.5277 0.833
71.5580 0.729
71.5883 0.417
71.6185 0.885
71.6488 0.677
71.6791 0.833
71.7094 1.042
71.7396 0.937
71.7699 1.042
71.8002 0.729
71.8305 0.729
71.8608 0.729
71.8910 0.365
71.9213 0.781
71.9516 0.781
71.9819 0.729
72.0122 0.990
72.0424 0.729
72.0727 0.729
72.1030 0.990
72.1333 0.625
72.1635 0.885
72.1938 1.094
72.2241 1.146
72.2544 0.677
72.2847 1.094
72.3149 1.042
72.3452 1.667
72.3755 0.885
72.4058 1.146
72.4361 0.833
72.4663 1.250
72.4966 0.729
72.5269 1.198
72.5572 0.937
72.5874 0.833
72.6177 0.625
72.6480 1.146
72.6783 1.146
72.7086 1.094
72.7388 0.573
72.7691 1.094
72.7994 0.729
72.8297 0.937
72.8600 0.729
72.8902 0.625
72.9205 0.573
72.9508 0.729
72.9811 0.729
73.0113 0.833
73.0416 0.937
73.0719 0.833
73.1022 0.885
73.1325 0.521
73.1627 0.781
73.1930 0.312
73.2233 0.625
73.2536 0.417
73.2839 0.417
73.3141 0.729
73.3444 0.937
73.3747 0.833
73.4050 0.625
73.4353 0.781
73.4655 0.833
73.4958 0.677
73.5261 0.260
73.5564 0.521
73.5866 1.198
73.6169 0.729
73.6472 0.417
73.6775 0.521
73.7078 0.521
73.7380 0.781
73.7683 0.625
73.7986 0.677
73.8289 0.781
73.8592 0.937
73.8894 0.990
73.9197 0.677
73.9500 0.833
73.9803 0.469
74.0105 0.677
74.0408 0.937
74.0711 0.729
74.1014 0.885
74.1317 0.677
74.1619 0.677
74.1922 0.833
74.2225 0.677
74.2528 0.573
74.2831 0.469
74.3133 0.365
74.3436 0.990
74.3739 0.729
74.4042 0.417
74.4344 0.729
74.4647 0.729
74.4950 0.573
74.5253 0.312
74.5556 0.677
74.5858 0.677
74.6161 0.833
74.6464 0.833
74.6767 0.521
74.7070 0.521
74.7372 0.729
74.7675 0.937
74.7978 0.937
74.8281 0.833
74.8583 0.677
74.8886 0.677
74.9189 0.625
74.9492 0.885
74.9795 0.729
75.0097 0.625
75.0400 0.417
75.0703 0.521
75.1006 0.729
75.1309 0.885
75.1611 0.521
75.1914 0.781
75.2217 0.625
75.2520 0.625
75.2822 0.677
75.3125 0.573
75.3428 0.521
75.3731 0.677
75.4034 0.521
75.4336 0.469
75.4639 0.729
75.4942 0.937
75.5245 0.521
75.5548 0.625
75.5850 0.469
75.6153 0.729
75.6456 0.677
75.6759 0.365
75.7061 1.042
75.7364 0.729
75.7667 0.729
75.7970 0.781
75.8273 0.677
75.8575 0.729
75.8878 0.729
75.9181 0.833
75.9484 0.573
75.9787 0.781
76.0089 0.521
76.0392 0.729
76.0695 0.625
76.0998 0.625
76.1301 0.990
76.1603 0.729
76.1906 0.937
76.2209 0.885
76.2512 1.198
76.2814 1.094
76.3117 1.198
76.3420 0.729
76.3723 0.885
76.4026 0.885
76.4328 1.198
76.4631 0.729
76.4934 0.729
76.5237 0.885
76.5540 0.781
76.5842 1.198
76.6145 1.042
76.6448 0.781
76.6751 0.885
76.7053 1.042
76.7356 1.354
76.7659 1.250
76.7962 0.885
76.8265 1.562
76.8567 0.937
76.8870 1.198
76.9173 0.885
76.9476 0.833
76.9779 1.198
77.0081 0.833
77.0384 1.146
77.0687 1.250
77.0990 0.677
77.1292 0.937
77.1595 0.990
77.1898 1.042
77.2201 0.833
77.2504 1.042
77.2806 0.781
77.3109 0.885
77.3412 0.781
77.3715 0.833
77.4018 1.198
77.4320 0.833
77.4623 0.781
77.4926 0.990
77.5229 0.729
77.5531 0.729
77.5834 0.833
77.6137 0.833
77.6440 0.781
77.6743 0.729
77.7045 0.677
77.7348 0.625
77.7651 0.729
77.7954 1.094
77.8257 0.885
77.8559 0.521
77.8862 0.885
77.9165 0.573
77.9468 0.729
77.9770 0.625
78.0073 0.573
78.0376 1.094
78.0679 0.833
78.0982 0.885
78.1284 0.625
78.1587 0.573
78.1890 0.521
78.2193 1.146
78.2496 0.573
78.2798 0.885
78.3101 0.729
78.3404 0.729
78.3707 0.677
78.4009 0.625
78.4312 0.990
78.4615 0.833
78.4918 0.729
78.5221 0.677
78.5523 0.729
78.5826 0.729
78.6129 0.469
78.6432 0.573
78.6735 0.677
78.7037 0.729
78.7340 0.833
78.7643 1.094
78.7946 0.573
78.8248 0.729
78.8551 0.469
78.8854 0.833
78.9157 0.312
78.9460 0.573
78.9762 0.729
79.0065 0.677
79.0368 0.990
79.0671 0.729
79.0974 0.885
79.1276 0.833
79.1579 0.937
79.1882 0.833
79.2185 0.781
79.2488 0.729
79.2790 0.781
79.3093 0.312
79.3396 0.937
79.3699 1.146
79.4001 0.677
79.4304 0.729
79.4607 0.521
79.4910 0.469
79.5213 1.198
79.5515 0.729
79.5818 0.677
79.6121 1.198
79.6424 0.573
79.6727 0.521
79.7029 0.781
79.7332 0.677
79.7635 0.469
79.7938 0.729
79.8240 0.625
79.8543 0.625
79.8846 0.833
79.9149 0.573
79.9452 1.146
79.9754 0.677
80.0057 0.677
80.0360 0.729
80.0663 0.573
80.0966 0.781
80.1268 0.677
80.1571 0.729
80.1874 0.885
80.2177 0.937
80.2479 0.260
80.2782 0.729
80.3085 0.469
80.3388 0.365
80.3691 0.781
80.3993 0.781
80.4296 0.469
80.4599 0.469
80.4902 0.469
80.5205 0.625
80.5507 0.312
80.5810 0.885
80.6113 1.458
80.6416 0.729
80.6718 0.729
80.7021 0.781
80.7324 0.729
80.7627 0.781
80.7930 1.094
80.8232 0.833
80.8535 0.729
80.8838 0.990
80.9141 0.990
80.9444 0.625
80.9746 0.677
81.0049 1.354
81.0352 0.729
81.0655 0.833
81.0957 0.729
81.1260 1.094
81.1563 1.198
81.1866 0.729
81.2169 0.781
81.2471 1.094
81.2774 1.198
81.3077 0.990
81.3380 0.885
81.3683 0.990
81.3985 1.146
81.4288 0.990
81.4591 1.146
81.4894 0.885
81.5196 0.729
81.5499 0.990
81.5802 0.729
81.6105 0.937
81.6408 0.729
81.6710 0.469
81.7013 0.469
81.7316 0.677
81.7619 0.677
81.7922 0.990
81.8224 0.677
81.8527 0.885
81.8830 0.365
81.9133 0.937
81.9436 0.833
81.9738 0.625
82.0041 0.677
82.0344 1.198
82.0647 0.729
82.0949 0.625
82.1252 0.833
82.1555 0.521
82.1858 0.625
82.2161 0.729
82.2463 1.146
82.2766 0.469
82.3069 0.729
82.3372 0.625
82.3675 0.677
82.3977 0.625
82.4280 0.417
82.4583 0.469
82.4886 0.729
82.5188 0.729
82.5491 0.729
82.5794 0.417
82.6097 0.729
82.6400 0.729
82.6702 0.729
82.7005 0.469
82.7308 0.677
82.7611 0.729
82.7914 0.781
82.8216 0.781
82.8519 0.677
82.8822 0.990
82.9125 1.094
82.9427 1.042
82.9730 0.365
83.0033 0.937
83.0336 0.781
83.0639 0.573
83.0941 0.625
83.1244 0.625
83.1547 0.625
83.1850 0.729
83.2153 0.729
83.2455 0.469
83.2758 0.781
83.3061 0.677
83.3364 0.573
83.3666 0.729
83.3969 0.937
83.4272 0.781
83.4575 0.729
83.4878 0.469
83.5180 0.521
83.5483 0.885
83.5786 0.625
83.6089 0.417
83.6392 0.781
83.6694 0.573
83.6997 1.198
83.7300 0.573
83.7603 0.677
83.7905 0.521
83.8208 0.677
83.8511 0.625
83.8814 0.729
83.9117 0.625
83.9419 0.885
83.9722 0.729
84.0025 0.625
84.0328 0.625
84.0631 0.625
84.0933 0.677
84.1236 0.573
84.1539 0.521
84.1842 0.365
84.2144 0.937
84.2447 0.573
84.2750 0.677
84.3053 0.885
84.3356 0.521
84.3658 0.521
84.3961 0.781
84.4264 0.521
84.4567 0.417
84.4870 0.677
84.5172 0.729
84.5475 0.729
84.5778 0.781
84.6081 0.677
84.6383 0.417
84.6686 0.729
84.6989 0.521
84.7292 0.781
84.7595 0.469
84.7897 0.417
84.8200 0.781
84.8503 0.677
84.8806 0.312
84.9109 0.729
84.9411 0.885
84.9714 0.469
85.0017 0.625
85.0320 0.625
85.0623 1.146
85.0925 0.573
85.1228 0.469
85.1531 1.042
85.1834 0.625
85.2136 0.365
85.2439 0.469
85.2742 0.625
85.3045 0.677
85.3348 0.729
85.3650 0.573
85.3953 0.729
85.4256 0.625
85.4559 0.469
85.4862 0.521
85.5164 0.729
85.5467 0.469
85.5770 0.781
85.6073 0.677
85.6375 0.729
85.6678 0.781
85.6981 0.469
85.7284 0.469
85.7587 0.573
85.7889 0.729
85.8192 0.677
85.8495 0.573
85.8798 0.365
85.9101 0.573
85.9403 0.885
85.9706 0.573
86.0009 0.677
86.0312 0.729
86.0614 0.781
86.0917 0.781
86.1220 0.677
86.1523 1.146
86.1826 0.729
86.2128 0.260
86.2431 0.729
86.2734 0.729
86.3037 0.625
86.3340 0.781
86.3642 0.729
86.3945 0.573
86.4248 0.365
86.4551 0.729
86.4853 0.937
86.5156 0.625
86.5459 0.625
86.5762 0.417
86.6065 0.833
86.6367 0.677
86.6670 0.677
86.6973 0.208
86.7276 0.729
86.7579 0.417
86.7881 0.781
86.8184 0.781
86.8487 0.729
86.8790 0.573
86.9092 0.573
86.9395 0.937
86.9698 1.042
87.0001 0.521
87.0304 0.469
87.0606 0.833
87.0909 0.260
87.1212 0.729
87.1515 0.625
87.1818 0.469
87.2120 0.260
87.2423 0.729
87.2726 0.677
87.3029 0.365
87.3331 0.729
87.3634 0.729
87.3937 0.625
87.4240 0.521
87.4543 0.417
87.4845 0.781
87.5148 0.781
87.5451 0.677
87.5754 0.781
87.6057 0.625
87.6359 0.677
87.6662 0.521
87.6965 0.677
87.7268 0.677
87.7571 0.729
87.7873 0.521
87.8176 0.573
87.8479 0.729
87.8782 0.625
87.9084 0.833
87.9387 0.729
87.9690 0.729
87.9993 0.781
88.0296 1.146
88.0598 0.573
88.0901 0.781
88.1204 0.677
88.1507 0.677
88.1810 0.885
88.2112 0.885
88.2415 0.521
88.2718 0.729
88.3021 0.625
88.3323 1.094
88.3626 0.677
88.3929 0.885
88.4232 0.885
88.4535 0.573
88.4837 0.885
88.5140 0.729
88.5443 0.260
88.5746 0.781
88.6049 0.729
88.6351 0.625
88.6654 0.885
88.6957 0.729
88.7260 1.042
88.7562 0.677
88.7865 0.729
88.8168 1.198
88.8471 0.937
88.8774 0.781
88.9076 0.677
88.9379 1.094
88.9682 1.250
88.9985 1.198
89.0288 1.198
89.0590 1.302
89.0893 1.354
89.1196 0.937
89.1499 1.250
89.1801 1.094
89.2104 1.406
89.2407 1.198
89.2710 1.406
89.3013 1.094
89.3315 1.198
89.3618 1.562
89.3921 1.198
89.4224 1.667
89.4527 1.719
89.4829 1.510
89.5132 1.250
89.5435 1.302
89.5738 1.771
89.6040 1.667
89.6343 1.354
89.6646 0.937
89.6949 1.771
89.7252 0.937
89.7554 1.406
89.7857 1.354
89.8160 1.250
89.8463 0.937
89.8766 1.094
89.9068 1.615
89.9371 0.885
89.9674 0.625
89.9977 1.042
90.0279 0.781
90.0582 0.990
90.0885 1.094
90.1188 0.781
90.1491 0.729
90.1793 0.990
90.2096 0.781
90.2399 1.302
90.2702 0.729
90.3005 1.042
90.3307 1.198
90.3610 0.521
90.3913 0.937
90.4216 1.094
90.4518 0.885
90.4821 1.042
90.5124 0.573
90.5427 1.250
90.5730 0.625
90.6032 0.677
90.6335 0.677
90.6638 1.042
90.6941 0.833
90.7244 0.781
90.7546 1.094
90.7849 0.521
90.8152 1.042
90.8455 0.781
90.8758 0.990
90.9060 0.833
90.9363 0.625
90.9666 0.677
90.9969 0.677
91.0271 0.729
91.0574 0.990
91.0877 0.417
91.1180 0.625
91.1483 0.625
91.1785 0.677
91.2088 1.146
91.2391 0.312
91.2694 0.417
91.2997 0.677
91.3299 0.729
91.3602 0.729
91.3905 0.729
91.4208 0.729
91.4510 0.625
91.4813 0.677
91.5116 0.365
91.5419 0.729
91.5722 0.677
91.6024 0.573
91.6327 0.677
91.6630 0.885
91.6933 0.833
91.7236 0.312
91.7538 0.729
91.7841 0.729
91.8144 0.573
91.8447 0.729
91.8749 0.729
91.9052 0.833
91.9355 0.937
91.9658 0.521
91.9961 0.625
92.0263 0.469
92.0566 0.729
92.0869 0.937
92.1172 0.729
92.1475 0.573
92.1777 0.885
92.2080 0.781
92.2383 0.833
92.2686 0.937
92.2988 0.937
92.3291 0.729
92.3594 1.146
92.3897 0.833
92.4200 0.625
92.4502 0.521
92.4805 0.990
92.5108 0.573
92.5411 0.937
92.5714 0.521
92.6016 0.729
92.6319 1.146
92.6622 1.146
92.6925 0.729
92.7227 0.781
92.7530 1.250
92.7833 0.677
92.8136 1.146
92.8439 0.677
92.8741 0.885
92.9044 0.990
92.9347 0.469
92.9650 0.885
92.9953 1.146
93.0255 0.729
93.0558 1.198
93.0861 0.885
93.1164 1.146
93.1466 0.885
93.1769 0.521
93.2072 0.781
93.2375 0.677
93.2678 0.729
93.2980 0.729
93.3283 0.990
93.3586 0.312
93.3889 0.417
93.4192 0.833
93.4494 0.781
93.4797 1.198
93.5100 0.885
93.5403 0.990
93.5706 1.198
93.6008 0.677
93.6311 0.781
93.6614 0.521
93.6917 0.781
93.7219 0.729
93.7522 0.729
93.7825 0.260
93.8128 1.042
93.8431 0.677
93.8733 0.625
93.9036 0.521
93.9339 0.677
93.9642 0.781
93.9945 0.833
94.0247 0.990
94.0550 0.833
94.0853 0.990
94.1156 0.990
94.1458 0.885
94.1761 1.094
94.2064 0.469
94.2367 0.573
94.2670 0.625
94.2972 0.677
94.3275 0.729
94.3578 0.990
94.3881 0.729
94.4184 0.625
94.4486 0.833
94.4789 1.198
94.5092 0.781
94.5395 0.781
94.5697 0.990
94.6000 0.937
94.6303 0.833
94.6606 0.833
94.6909 0.833
94.7211 1.406
94.7514 0.885
94.7817 1.510
94.8120 1.406
94.8423 1.146
94.8725 0.990
94.9028 1.302
94.9331 1.042
94.9634 1.094
94.9936 1.042
95.0239 1.302
95.0542 1.406
95.0845 1.562
95.1148 1.562
95.1450 1.510
95.1753 1.510
95.2056 1.094
95.2359 1.302
95.2662 1.198
95.2964 1.667
95.3267 1.250
95.3570 1.250
95.3873 1.250
95.4175 1.562
95.4478 1.875
95.4781 1.510
95.5084 0.937
95.5387 1.042
95.5689 1.250
95.5992 0.781
95.6295 0.990
95.6598 1.562
95.6901 1.042
95.7203 1.198
95.7506 0.729
95.7809 1.042
95.8112 0.833
95.8414 1.094
95.8717 0.885
95.9020 0.833
95.9323 0.469
95.9626 0.781
95.9928 0.937
96.0231 0.781
96.0534 1.198
96.0837 1.146
96.1140 1.094
96.1442 0.677
96.1745 0.833
96.2048 0.781
96.2351 0.625
96.2653 1.094
96.2956 0.833
96.3259 0.781
96.3562 0.677
96.3865 0.729
96.4167 0.729
96.4470 0.990
96.4773 0.833
96.5076 0.729
96.5379 0.677
96.5681 0.573
96.5984 0.677
96.6287 0.521
96.6590 0.990
96.6893 0.781
96.7195 0.729
96.7498 0.625
96.7801 0.729
96.8104 0.677
96.8406 0.729
96.8709 0.729
96.9012 0.365
96.9315 1.146
96.9618 0.781
96.9920 0.521
97.0223 0.521
97.0526 0.677
97.0829 0.521
97.1132 0.469
97.1434 0.729
97.1737 1.302
97.2040 0.469
97.2343 0.521
97.2645 0.781
97.2948 0.625
97.3251 0.729
97.3554 1.042
97.3857 0.469
97.4159 0.521
97.4462 0.729
97.4765 0.781
97.5068 0.677
97.5371 0.573
97.5673 0.937
97.5976 1.146
97.6279 1.042
97.6582 0.729
97.6884 0.937
97.7187 0.781
97.7490 0.833
97.7793 0.833
97.8096 0.729
97.8398 0.990
97.8701 0.729
97.9004 0.833
97.9307 0.781
97.9610 0.885
97.9912 0.625
98.0215 0.937
98.0518 1.042
98.0821 0.781
98.1123 1.042
98.1426 0.677
98.1729 0.990
98.2032 0.781
98.2335 0.937
98.2637 1.042
98.2940 1.094
98.3243 1.146
98.3546 1.302
98.3849 1.198
98.4151 0.625
98.4454 0.833
98.4757 1.094
98.5060 0.937
98.5362 0.781
98.5665 0.990
98.5968 0.937
98.6271 1.250
98.6574 1.146
98.6876 1.406
98.7179 1.146
98.7482 1.250
98.7785 0.781
98.8088 0.781
98.8390 0.833
98.8693 0.990
98.8996 1.042
98.9299 0.833
98.9601 0.937
98.9904 0.677
99.0207 0.677
99.0510 0.781
99.0813 0.469
99.1115 0.833
99.1418 1.094
99.1721 0.781
99.2024 0.781
99.2327 0.885
99.2629 0.781
99.2932 1.042
99.3235 0.677
99.3538 0.729
99.3841 0.521
99.4143 0.781
99.4446 0.469
99.4749 0.469
99.5052 0.833
99.5354 0.990
99.5657 0.365
99.5960 0.781
99.6263 1.042
99.6566 1.250
99.6868 0.521
99.7171 0.469
99.7474 0.625
99.7777 0.781
99.8080 0.677
99.8382 0.781
99.8685 1.042
99.8988 0.729
99.9291 0.573
99.9593 0.781
99.9896 1.198
100.0199 0.781
100.0502 0.729
100.0805 0.781
100.1107 0.625
100.1410 0.521
100.1713 0.469
100.2016 0.573
100.2319 0.729
100.2621 0.885
100.2924 0.625
100.3227 0.781
100.3530 0.781
100.3832 0.677
100.4135 0.521
100.4438 0.625
100.4741 1.250
100.5044 0.521
100.5346 0.781
100.5649 0.781
100.5952 0.625
100.6255 0.417
100.6558 0.833
100.6860 0.781
100.7163 0.417
100.7466 0.885
100.7769 0.781
100.8071 0.781
100.8374 0.781
100.8677 1.042
100.8980 0.729
100.9283 1.042
100.9585 0.625
100.9888 0.729
101.0191 0.781
101.0494 0.990
101.0797 0.677
101.1099 1.406
101.1402 0.417
101.1705 0.990
101.2008 0.573
101.2310 0.677
101.2613 0.521
101.2916 0.781
101.3219 0.625
101.3522 0.990
101.3824 0.781
101.4127 0.677
101.4430 0.625
101.4733 0.781
101.5036 1.146
101.5338 1.354
101.5641 0.729
101.5944 0.833
101.6247 0.990
101.6549 0.729
101.6852 0.469
101.7155 0.885
101.7458 0.521
101.7761 0.833
101.8063 0.833
101.8366 0.781
101.8669 0.833
101.8972 0.625
101.9275 0.677
101.9577 0.781
101.9880 0.729
102.0183 0.833
102.0486 0.729
102.0788 0.573
102.1091 0.990
102.1394 0.990
102.1697 1.094
102.2000 1.094
102.2302 0.781
102.2605 0.573
102.2908 0.833
102.3211 1.042
102.3514 1.354
102.3816 1.094
102.4119 0.833
102.4422 0.937
102.4725 0.729
102.5028 0.833
102.5330 1.562
102.5633 1.042
102.5936 0.781
102.6239 0.937
102.6541 0.885
102.6844 0.833
102.7147 0.937
102.7450 1.354
102.7753 0.990
102.8055 0.833
102.8358 0.885
102.8661 1.250
102.8964 0.729
102.9267 0.833
102.9569 1.146
102.9872 1.771
103.0175 1.094
103.0478 0.937
103.0780 1.302
103.1083 0.781
103.1386 1.146
103.1689 0.729
103.1992 1.042
103.2294 1.198
103.2597 0.833
103.2900 0.729
103.3203 1.094
103.3506 1.198
103.3808 0.729
103.4111 0.937
103.4414 0.729
103.4717 0.990
103.5019 0.625
103.5322 0.677
103.5625 1.198
103.5928 0.833
103.6231 1.562
103.6533 1.198
103.6836 0.990
103.7139 0.833
103.7442 0.937
103.7745 1.146
103.8047 1.667
103.8350 0.937
103.8653 1.562
103.8956 1.354
103.9258 1.354
103.9561 1.562
103.9864 1.510
104.0167 1.146
104.0470 1.406
104.0772 1.198
104.1075 1.354
104.1378 1.302
104.1681 0.833
104.1984 1.198
104.2286 1.771
104.2589 1.094
104.2892 1.823
104.3195 0.937
104.3497 1.354
104.3800 1.146
104.4103 1.042
104.4406 0.937
104.4709 0.885
104.5011 0.781
104.5314 0.573
104.5617 1.094
104.5920 1.302
104.6223 1.042
104.6525 1.354
104.6828 1.094
104.7131 1.406
104.7434 0.625
104.7736 0.937
104.8039 0.833
104.8342 0.885
104.8645 0.833
104.8948 0.885
104.9250 0.833
104.9553 1.406
104.9856 1.198
105.0159 0.781
105.0462 0.677
105.0764 1.094
105.1067 0.677
105.1370 1.094
105.1673 0.885
105.1975 1.146
105.2278 0.833
105.2581 0.885
105.2884 1.042
105.3187 0.573
105.3489 0.625
105.3792 0.990
105.4095 0.990
105.4398 1.094
105.4701 1.146
105.5003 0.833
105.5306 0.469
105.5609 0.885
105.5912 0.677
105.6215 1.042
105.6517 0.521
105.6820 1.042
105.7123 0.833
105.7426 0.833
105.7728 0.521
105.8031 0.833
105.8334 0.990
105.8637 0.990
105.8940 0.937
105.9242 0.885
105.9545 0.937
105.9848 0.937
106.0151 0.885
106.0454 1.198
106.0756 0.417
106.1059 0.885
106.1362 0.885
106.1665 1.042
106.1967 0.990
106.2270 0.573
106.2573 0.833
106.2876 0.625
106.3179 0.729
106.3481 0.990
106.3784 1.042
106.4087 0.677
106.4390 0.781
106.4693 0.937
106.4995 0.729
106.5298 0.781
106.5601 1.146
106.5904 0.417
106.6206 1.094
106.6509 0.833
106.6812 0.781
106.7115 0.833
106.7418 0.833
106.7720 0.937
106.8023 0.885
106.8326 0.885
106.8629 1.042
106.8932 0.625
106.9234 0.260
106.9537 0.677
106.9840 0.781
107.0143 0.937
107.0445 0.781
107.0748 0.729
107.1051 0.781
107.1354 0.833
107.1657 0.990
107.1959 0.885
107.2262 0.625
107.2565 0.521
107.2868 0.885
107.3171 0.990
107.3473 0.937
107.3776 0.937
107.4079 0.885
107.4382 0.885
107.4684 0.937
107.4987 1.042
107.5290 0.781
107.5593 0.885
107.5896 1.198
107.6198 0.885
107.6501 1.042
107.6804 0.833
107.7107 0.937
107.7410 0.781
107.7712 0.677
107.8015 1.042
107.8318 0.833
107.8621 0.573
107.8923 0.833
107.9226 0.833
107.9529 0.885
107.9832 0.625
108.0135 0.937
108.0437 0.885
108.0740 0.417
108.1043 0.573
108.1346 0.729
108.1649 0.781
108.1951 0.729
108.2254 0.885
108.2557 0.885
108.2860 0.677
108.3163 0.365
108.3465 0.781
108.3768 1.042
108.4071 1.042
108.4374 0.781
108.4676 0.781
108.4979 0.833
108.5282 1.042
108.5585 0.781
108.5888 0.833
108.6190 0.781
108.6493 0.937
108.6796 0.677
108.7099 1.042
108.7402 0.729
108.7704 0.365
108.8007 1.042
108.8310 0.833
108.8613 0.729
108.8915 0.677
108.9218 0.885
108.9521 1.250
108.9824 0.990
109.0127 1.042
109.0429 0.469
109.0732 0.937
109.1035 0.937
109.1338 0.625
109.1641 0.885
109.1943 0.833
109.2246 0.937
109.2549 0.885
109.2852 1.094
109.3154 0.729
109.3457 0.885
109.3760 0.937
109.4063 0.729
109.4366 0.625
109.4668 0.781
109.4971 0.885
109.5274 1.146
109.5577 0.677
109.5880 0.781
109.6182 0.990
109.6485 0.677
109.6788 1.198
109.7091 0.677
109.7393 0.937
109.7696 0.833
109.7999 0.625
109.8302 0.937
109.8605 0.937
109.8907 1.250
109.9210 0.677
109.9513 0.573
109.9816 0.625
110.0119 0.833
110.0421 1.042
110.0724 1.406
110.1027 0.937
110.1330 1.042
110.1632 1.354
110.1935 1.250
110.2238 0.937
110.2541 0.990
110.2844 0.677
110.3146 0.677
110.3449 1.302
110.3752 0.937
110.4055 1.562
110.4358 0.937
110.4660 0.573
110.4963 1.302
110.5266 0.729
110.5569 1.042
110.5871 1.250
110.6174 0.781
110.6477 1.146
110.6780 1.406
110.7083 0.885
110.7385 0.885
110.7688 1.667
110.7991 1.042
110.8294 0.833
110.8597 0.781
110.8899 0.833
110.9202 0.833
110.9505 0.781
110.9808 0.937
111.0110 1.042
111.0413 0.781
111.0716 0.990
111.1019 0.625
111.1322 0.677
111.1624 0.885
111.1927 0.990
111.2230 1.094
111.2533 0.729
111.2836 0.990
111.3138 1.042
111.3441 0.937
111.3744 0.573
111.4047 0.990
111.4350 0.833
111.4652 0.833
111.4955 0.885
111.5258 0.729
111.5561 0.677
111.5863 0.937
111.6166 0.781
111.6469 0.885
111.6772 0.990
111.7075 0.937
111.7377 0.521
111.7680 0.937
111.7983 1.042
111.8286 0.521
111.8589 0.417
111.8891 0.521
111.9194 0.677
111.9497 0.469
111.9800 0.625
112.0102 0.573
112.0405 0.312
112.0708 1.042
112.1011 0.677
112.1314 0.990
112.1616 0.729
112.1919 0.937
112.2222 0.677
112.2525 0.521
112.2828 0.729
112.3130 0.781
112.3433 0.521
112.3736 0.573
112.4039 1.094
112.4341 0.885
112.4644 0.729
112.4947 0.677
112.5250 1.146
112.5553 0.729
112.5855 0.781
112.6158 0.469
112.6461 0.573
112.6764 0.781
112.7067 0.885
112.7369 0.833
112.7672 0.885
112.7975 0.990
112.8278 0.937
112.8580 0.677
112.8883 0.521
112.9186 0.677
112.9489 0.573
112.9792 0.625
113.0094 0.833
113.0397 0.937
113.0700 0.990
113.1003 0.625
113.1306 0.521
113.1608 0.937
113.1911 0.833
113.2214 0.729
113.2517 0.625
113.2819 0.573
113.3122 0.469
113.3425 0.469
113.3728 0.781
113.4031 1.146
113.4333 0.625
113.4636 0.469
113.4939 0.365
113.5242 0.833
113.5545 0.833
113.5847 0.573
113.6150 0.677
113.6453 0.833
113.6756 0.990
113.7058 0.573
113.7361 0.833
113.7664 0.833
113.7967 0.365
113.8270 1.042
113.8572 1.042
113.8875 0.885
113.9178 1.198
113.9481 0.625
113.9784 1.042
114.0086 0.833
114.0389 0.521
114.0692 0.521
114.0995 0.625
114.1298 0.937
114.1600 0.729
114.1903 0.625
114.2206 0.833
114.2509 0.260
114.2811 0.781
114.3114 1.042
114.3417 0.417
114.3720 0.833
114.4023 0.833
114.4325 0.833
114.4628 0.833
114.4931 1.094
114.5234 0.937
114.5537 0.677
114.5839 0.990
114.6142 0.990
114.6445 0.729
114.6748 0.677
114.7050 0.729
114.7353 0.937
114.7656 0.885
114.7959 1.146
114.8262 0.833
114.8564 1.042
114.8867 0.885
114.9170 0.885
114.9473 1.302
114.9776 0.729
115.0078 0.573
115.0381 1.094
115.0684 0.781
115.0987 0.208
115.1289 0.833
115.1592 1.146
115.1895 0.833
115.2198 1.094
115.2501 0.573
115.2803 0.781
115.3106 1.042
115.3409 0.625
115.3712 0.625
115.4015 0.781
115.4317 0.937
115.4620 0.990
115.4923 0.937
115.5226 0.521
115.5528 0.885
115.5831 1.302
115.6134 1.458
115.6437 1.094
115.6740 1.042
115.7042 0.990
115.7345 1.198
115.7648 1.198
115.7951 1.406
115.8254 1.146
115.8556 1.198
115.8859 1.094
115.9162 1.146
115.9465 1.458
115.9767 1.823
116.0070 1.615
116.0373 1.042
116.0676 1.667
116.0979 1.094
116.1281 1.354
116.1584 1.510
116.1887 1.250
116.2190 1.562
116.2493 1.667
116.2795 1.146
116.3098 1.562
116.3401 1.198
116.3704 0.990
116.4006 0.990
116.4309 1.302
116.4612 1.146
116.4915 1.146
116.5218 1.250
116.5520 1.458
116.5823 1.146
116.6126 1.354
116.6429 1.146
116.6732 0.937
116.7034 1.302
116.7337 1.562
116.7640 0.781
116.7943 1.146
116.8245 1.250
116.8548 1.094
116.8851 1.250
116.9154 0.937
116.9457 0.417
116.9759 0.937
117.0062 1.354
117.0365 0.781
117.0668 1.146
117.0971 1.406
117.1273 0.990
117.1576 1.146
117.1879 1.042
117.2182 1.094
117.2485 0.885
117.2787 1.146
117.3090 0.573
117.3393 0.573
117.3696 0.990
117.3998 1.198
117.4301 1.042
117.4604 0.885
117.4907 1.198
117.5210 1.042
117.5512 0.677
117.5815 1.146
117.6118 0.677
117.6421 1.094
117.6724 1.250
117.7026 0.625
117.7329 0.885
117.7632 1.146
117.7935 0.885
117.8237 1.198
117.8540 0.833
117.8843 0.729
117.9146 0.885
117.9449 0.937
117.9751 1.042
118.0054 0.677
118.0357 1.042
118.0660 0.677
118.0963 0.937
118.1265 0.885
118.1568 0.781
118.1871 0.990
118.2174 0.677
118.2476 0.781
118.2779 0.729
118.3082 0.573
118.3385 0.833
118.3688 0.781
118.3990 0.937
118.4293 1.354
118.4596 1.406
118.4899 0.781
118.5202 0.781
118.5504 0.885
118.5807 0.990
118.6110 0.781
118.6413 0.677
118.6715 1.146
118.7018 0.677
118.7321 0.521
118.7624 0.990
118.7927 1.094
118.8229 0.781
118.8532 1.510
118.8835 1.302
118.9138 0.781
118.9441 0.833
118.9743 1.146
119.0046 0.833
119.0349 0.729
119.0652 0.729
119.0954 0.937
119.1257 1.094
119.1560 0.781
119.1863 0.677
119.2166 0.885
119.2468 1.302
119.2771 0.885
119.3074 0.521
119.3377 0.833
119.3680 1.094
119.3982 0.625
119.4285 0.833
119.4588 1.094
119.4891 0.833
119.5193 0.677
119.5496 1.042
119.5799 1.146
119.6102 0.990
119.6405 0.990
119.6707 0.937
119.7010 0.729
119.7313 0.573
119.7616 0.729
119.7919 1.042
119.8221 0.729
119.8524 0.729
119.8827 0.521
119.9130 0.417
119.9433 0.885
119.9735 0.573
120.0038 0.781
