'Id: "" Comment: "" Operator: "Lab Manager" Anode: "Cu" Scantype: "Locked Coupled" TimePerStep: "19.2" X: "9999" Y: "9999" Z: "9999" 
10.0015 2.448
10.0318 3.281
10.0620 2.344
10.0923 3.385
10.1226 1.979
10.1529 3.073
10.1832 2.917
10.2134 2.708
10.2437 1.979
10.2740 2.917
10.3043 2.396
10.3346 3.177
10.3648 3.229
10.3951 2.031
10.4254 2.708
10.4557 1.667
10.4859 2.135
10.5162 2.604
10.5465 2.031
10.5768 2.344
10.6071 2.344
10.6373 2.656
10.6676 2.552
10.6979 3.125
10.7282 3.021
10.7585 2.500
10.7887 2.812
10.8190 3.177
10.8493 2.500
10.8796 2.708
10.9098 2.552
10.9401 2.812
10.9704 3.333
11.0007 2.135
11.0310 2.917
11.0612 2.083
11.0915 2.760
11.1218 2.240
11.1521 3.021
11.1824 2.135
11.2126 2.708
11.2429 2.240
11.2732 2.500
11.3035 2.240
11.3337 2.500
11.3640 2.552
11.3943 2.240
11.4246 2.500
11.4549 2.552
11.4851 2.448
11.5154 2.604
11.5457 2.187
11.5760 1.979
11.6063 2.083
11.6365 2.135
11.6668 2.344
11.6971 2.448
11.7274 2.344
11.7577 2.344
11.7879 2.292
11.8182 2.187
11.8485 2.344
11.8788 2.656
11.9090 1.823
11.9393 2.187
11.9696 2.187
11.9999 2.656
12.0302 2.969
12.0604 2.396
12.0907 2.448
12.1210 1.979
12.1513 2.656
12.1816 2.396
12.2118 2.187
12.2421 2.344
12.2724 2.500
12.3027 2.292
12.3329 2.396
12.3632 2.396
12.3935 2.292
12.4238 2.187
12.4541 1.875
12.4843 2.604
12.5146 2.292
12.5449 2.448
12.5752 2.292
12.6055 2.917
12.6357 2.083
12.6660 2.083
12.6963 2.500
12.7266 2.292
12.7568 1.510
12.7871 3.125
12.8174 1.979
12.8477 1.615
12.8780 2.187
12.9082 1.302
12.9385 2.187
12.9688 1.823
12.9991 2.187
13.0294 1.823
13.0596 2.604
13.0899 2.344
13.1202 2.187
13.1505 1.667
13.1807 1.979
13.2110 1.823
13.2413 1.771
13.2716 1.667
13.3019 1.719
13.3321 1.979
13.3624 2.760
13.3927 1.458
13.4230 1.458
13.4533 1.458
13.4835 2.031
13.5138 1.979
13.5441 2.031
13.5744 2.031
13.6046 1.823
13.6349 1.979
13.6652 1.250
13.6955 2.135
13.7258 2.344
13.7560 2.187
13.7863 2.656
13.8166 2.396
13.8469 1.667
13.8772 2.031
13.9074 1.615
13.9377 2.187
13.9680 1.927
13.9983 2.083
14.0285 1.667
14.0588 1.719
14.0891 1.667
14.1194 2.396
14.1497 1.510
14.1799 1.823
14.2102 1.927
14.2405 1.771
14.2708 1.979
14.3011 1.510
14.3313 2.135
14.3616 1.979
14.3919 2.187
14.4222 1.510
14.4524 1.875
14.4827 1.823
14.5130 2.031
14.5433 2.187
14.5736 1.719
14.6038 1.823
14.6341 2.344
14.6644 1.667
14.6947 1.771
14.7250 1.771
14.7552 1.823
14.7855 2.240
14.8158 1.823
14.8461 1.458
14.8764 2.031
14.9066 1.719
14.9369 1.823
14.9672 1.771
14.9975 2.292
15.0277 1.562
15.0580 2.083
15.0883 1.146
15.1186 1.875
15.1489 1.458
15.1791 2.396
15.2094 1.927
15.2397 1.823
15.2700 1.875
15.3003 1.823
15.3305 1.458
15.3608 1.458
15.3911 1.719
15.4214 1.823
15.4516 1.719
15.4819 1.198
15.5122 2.344
15.5425 1.719
15.5728 1.875
15.6030 1.615
15.6333 1.354
15.6636 2.031
15.6939 1.198
15.7242 1.562
15.7544 1.458
15.7847 1.302
15.8150 1.510
15.8453 1.979
15.8755 1.510
15.9058 1.719
15.9361 2.135
15.9664 1.562
15.9967 1.354
16.0269 1.302
16.0572 2.187
16.0875 2.448
16.1178 1.562
16.1481 1.771
16.1783 1.406
16.2086 1.510
16.2389 1.979
16.2692 1.771
16.2994 1.562
16.3297 2.031
16.3600 1.771
16.3903 1.250
16.4206 1.615
16.4508 1.250
16.4811 1.458
16.5114 1.458
16.5417 1.562
16.5720 1.406
16.6022 1.615
16.6325 1.250
16.6628 1.667
16.6931 1.562
16.7233 1.823
16.7536 1.771
16.7839 1.458
16.8142 1.458
16.8445 1.562
16.8747 1.771
16.9050 1.667
16.9353 2.083
16.9656 1.875
16.9959 1.302
17.0261 1.458
17.0564 2.240
17.0867 1.510
17.1170 1.615
17.1472 1.094
17.1775 1.875
17.2078 1.094
17.2381 1.458
17.2684 1.875
17.2986 1.615
17.3289 1.719
17.3592 1.979
17.3895 1.823
17.4198 1.823
17.4500 1.615
17.4803 2.031
17.5106 2.187
17.5409 1.562
17.5712 1.510
17.6014 1.615
17.6317 1.615
17.6620 1.667
17.6923 1.771
17.7225 1.302
17.7528 1.458
17.7831 1.562
17.8134 1.458
17.8437 1.406
17.8739 1.615
17.9042 1.615
17.9345 1.198
17.9648 1.771
17.9951 1.406
18.0253 1.667
18.0556 1.406
18.0859 1.354
18.1162 1.823
18.1464 1.562
18.1767 2.031
18.2070 1.667
18.2373 1.302
18.2676 1.615
18.2978 1.250
18.3281 1.719
18.3584 0.937
18.3887 0.990
18.4190 1.719
18.4492 1.823
18.4795 1.458
18.5098 1.406
18.5401 1.667
18.5703 1.146
18.6006 1.615
18.6309 1.302
18.6612 1.458
18.6915 0.990
18.7217 1.354
18.7520 1.354
18.7823 1.719
18.8126 1.667
18.8429 2.240
18.8731 1.458
18.9034 1.406
18.9337 1.823
18.9640 1.250
18.9942 1.510
19.0245 1.562
19.0548 1.667
19.0851 2.135
19.1154 1.406
19.1456 1.562
19.1759 1.146
19.2062 1.458
19.2365 1.094
19.2668 1.562
19.2970 1.562
19.3273 1.406
19.3576 1.354
19.3879 1.667
19.4181 1.406
19.4484 1.198
19.4787 1.042
19.5090 1.146
19.5393 1.354
19.5695 1.458
19.5998 1.406
19.6301 0.937
19.6604 1.667
19.6907 1.094
19.7209 1.406
19.7512 1.354
19.7815 1.875
19.8118 1.615
19.8420 1.198
19.8723 1.094
19.9026 1.458
19.9329 1.354
19.9632 1.042
19.9934 1.562
20.0237 1.094
20.0540 1.406
20.0843 0.781
20.1146 1.042
20.1448 1.302
20.1751 1.562
20.2054 1.615
20.2357 1.250
20.2659 1.094
20.2962 1.302
20.3265 0.937
20.3568 1.615
20.3871 1.667
20.4173 0.937
20.4476 1.719
20.4779 1.146
20.5082 1.823
20.5385 1.667
20.5687 1.510
20.5990 1.250
20.6293 0.833
20.6596 1.250
20.6899 1.510
20.7201 1.615
20.7504 1.562
20.7807 0.677
20.8110 1.458
20.8412 1.354
20.8715 1.510
20.9018 1.042
20.9321 1.042
20.9624 1.562
20.9926 1.250
21.0229 1.042
21.0532 0.781
21.0835 1.719
21.1138 1.094
21.1440 0.833
21.1743 1.146
21.2046 1.354
21.2349 1.562
21.2651 0.781
21.2954 1.302
21.3257 1.094
21.3560 1.354
21.3863 0.937
21.4165 1.458
21.4468 1.302
21.4771 1.354
21.5074 1.354
21.5377 1.302
21.5679 1.198
21.5982 1.146
21.6285 0.885
21.6588 1.354
21.6890 1.146
21.7193 0.885
21.7496 1.042
21.7799 1.458
21.8102 1.042
21.8404 1.771
21.8707 0.937
21.9010 1.719
21.9313 1.094
21.9616 0.937
21.9918 1.146
22.0221 1.458
22.0524 1.302
22.0827 1.094
22.1129 0.885
22.1432 1.146
22.1735 1.198
22.2038 1.198
22.2341 0.833
22.2643 1.406
22.2946 1.198
22.3249 1.198
22.3552 1.094
22.3855 1.719
22.4157 0.885
22.4460 0.990
22.4763 1.458
22.5066 1.198
22.5368 1.198
22.5671 0.833
22.5974 1.042
22.6277 1.094
22.6580 0.781
22.6882 1.406
22.7185 1.042
22.7488 1.094
22.7791 1.562
22.8094 1.042
22.8396 1.198
22.8699 1.458
22.9002 1.146
22.9305 1.406
22.9607 0.781
22.9910 1.354
23.0213 1.198
23.0516 1.146
23.0819 1.042
23.1121 1.146
23.1424 0.937
23.1727 1.510
23.2030 1.146
23.2333 1.042
23.2635 1.198
23.2938 0.937
23.3241 1.354
23.3544 1.198
23.3846 1.406
23.4149 0.937
23.4452 1.146
23.4755 1.250
23.5058 1.302
23.5360 1.042
23.5663 1.250
23.5966 1.667
23.6269 1.094
23.6572 0.937
23.6874 1.510
23.7177 0.937
23.7480 1.406
23.7783 0.990
23.8086 1.094
23.8388 0.937
23.8691 1.250
23.8994 1.146
23.9297 0.885
23.9599 1.042
23.9902 1.042
24.0205 1.250
24.0508 1.042
24.0811 1.042
24.1113 1.302
24.1416 0.469
24.1719 0.885
24.2022 1.250
24.2325 0.937
24.2627 1.146
24.2930 1.042
24.3233 1.198
24.3536 1.354
24.3838 0.833
24.4141 1.042
24.4444 1.406
24.4747 0.781
24.5050 0.990
24.5352 0.990
24.5655 1.250
24.5958 0.781
24.6261 1.146
24.6564 0.885
24.6866 1.094
24.7169 0.885
24.7472 1.146
24.7775 1.094
24.8077 1.354
24.8380 1.250
24.8683 1.094
24.8986 1.510
24.9289 1.042
24.9591 0.573
24.9894 1.250
25.0197 0.573
25.0500 0.937
25.0803 1.042
25.1105 1.146
25.1408 0.990
25.1711 1.510
25.2014 0.990
25.2316 1.458
25.2619 1.406
25.2922 1.250
25.3225 1.354
25.3528 0.677
25.3830 1.406
25.4133 1.354
25.4436 0.729
25.4739 0.937
25.5042 1.302
25.5344 0.990
25.5647 0.990
25.5950 0.781
25.6253 0.990
25.6555 1.198
25.6858 0.990
25.7161 1.198
25.7464 1.094
25.7767 1.406
25.8069 1.094
25.8372 1.458
25.8675 1.510
25.8978 1.406
25.9281 1.719
25.9583 1.250
25.9886 1.198
26.0189 1.406
26.0492 0.781
26.0794 0.937
26.1097 1.094
26.1400 1.094
26.1703 1.302
26.2006 1.354
26.2308 1.250
26.2611 0.729
26.2914 0.729
26.3217 1.562
26.3520 1.250
26.3822 1.458
26.4125 1.094
26.4428 1.042
26.4731 1.094
26.5034 1.146
26.5336 1.094
26.5639 0.781
26.5942 1.198
26.6245 1.042
26.6547 1.250
26.6850 0.833
26.7153 1.198
26.7456 1.354
26.7759 0.937
26.8061 1.198
26.8364 1.146
26.8667 1.354
26.8970 1.406
26.9273 1.146
26.9575 1.094
26.9878 1.615
27.0181 0.885
27.0484 1.250
27.0786 1.094
27.1089 1.406
27.1392 1.458
27.1695 0.781
27.1998 1.406
27.2300 0.781
27.2603 0.729
27.2906 0.990
27.3209 0.729
27.3512 1.250
27.3814 1.042
27.4117 1.458
27.4420 1.250
27.4723 0.937
27.5025 0.781
27.5328 0.625
27.5631 1.198
27.5934 0.521
27.6237 0.781
27.6539 1.719
27.6842 1.458
27.7145 1.302
27.7448 0.833
27.7751 0.937
27.8053 0.937
27.8356 0.833
27.8659 1.562
27.8962 1.146
27.9264 1.094
27.9567 1.667
27.9870 0.885
28.0173 1.667
28.0476 0.885
28.0778 1.354
28.1081 0.729
28.1384 0.729
28.1687 1.406
28.1990 1.615
28.2292 0.781
28.2595 1.302
28.2898 1.302
28.3201 1.146
28.3503 1.615
28.3806 0.990
28.4109 1.042
28.4412 1.042
28.4715 1.615
28.5017 0.781
28.5320 1.146
28.5623 1.302
28.5926 0.885
28.6229 1.406
28.6531 0.990
28.6834 0.990
28.7137 1.042
28.7440 1.406
28.7742 0.781
28.8045 1.094
28.8348 1.458
28.8651 0.885
28.8954 1.250
28.9256 1.042
28.9559 1.406
28.9862 1.510
29.0165 1.302
29.0468 1.094
29.0770 0.990
29.1073 1.458
29.1376 0.990
29.1679 1.771
29.1981 0.990
29.2284 1.146
29.2587 1.406
29.2890 1.302
29.3193 0.833
29.3495 1.198
29.3798 1.458
29.4101 0.885
29.4404 1.146
29.4707 1.042
29.5009 1.094
29.5312 0.937
29.5615 1.094
29.5918 1.250
29.6221 1.146
29.6523 0.885
29.6826 1.406
29.7129 1.198
29.7432 0.677
29.7734 0.990
29.8037 1.406
29.8340 1.562
29.8643 1.146
29.8946 1.302
29.9248 0.885
29.9551 1.667
29.9854 0.990
30.0157 1.146
30.0460 1.250
30.0762 1.146
30.1065 1.250
30.1368 1.823
30.1671 1.302
30.1973 1.458
30.2276 0.990
30.2579 1.146
30.2882 1.042
30.3185 1.146
30.3487 1.458
30.3790 1.719
30.4093 1.458
30.4396 0.781
30.4699 1.354
30.5001 1.250
30.5304 1.458
30.5607 1.615
30.5910 2.031
30.6212 1.510
30.6515 1.354
30.6818 1.562
30.7121 1.354
30.7424 1.458
30.7726 1.458
30.8029 2.031
30.8332 1.667
30.8635 2.500
30.8938 2.031
30.9240 2.135
30.9543 2.292
30.9846 2.552
31.0149 1.927
31.0451 2.760
31.0754 2.135
31.1057 2.344
31.1360 3.437
31.1663 3.229
31.1965 3.698
31.2268 4.167
31.2571 3.750
31.2874 4.635
31.3177 5.781
31.3479 5.729
31.3782 5.833
31.4085 8.073
31.4388 8.125
31.4690 10.990
31.4993 12.292
31.5296 14.219
31.5599 14.531
31.5902 17.396
31.6204 15.625
31.6507 14.167
31.6810 13.802
31.7113 12.604
31.7416 10.260
31.7718 7.969
31.8021 8.437
31.8324 5.625
31.8627 5.104
31.8929 5.052
31.9232 4.062
31.9535 4.844
31.9838 3.437
32.0141 3.177
32.0443 3.177
32.0746 3.490
32.1049 3.021
32.1352 2.865
32.1655 2.500
32.1957 2.604
32.2260 2.135
32.2563 1.667
32.2866 2.604
32.3169 1.823
32.3471 1.719
32.3774 1.667
32.4077 2.187
32.4380 1.615
32.4682 1.823
32.4985 1.667
32.5288 1.823
32.5591 1.823
32.5894 2.083
32.6196 2.292
32.6499 1.302
32.6802 1.979
32.7105 1.979
32.7408 1.927
32.7710 1.927
32.8013 1.719
32.8316 1.875
32.8619 1.094
32.8921 1.354
32.9224 2.448
32.9527 1.615
32.9830 1.094
33.0133 2.031
33.0435 1.510
33.0738 1.250
33.1041 1.771
33.1344 1.510
33.1647 1.510
33.1949 1.771
33.2252 1.667
33.2555 0.990
33.2858 1.615
33.3160 1.771
33.3463 1.198
33.3766 1.302
33.4069 1.510
33.4372 1.510
33.4674 1.250
33.4977 1.979
33.5280 1.250
33.5583 1.667
33.5886 1.823
33.6188 1.667
33.6491 1.510
33.6794 1.615
33.7097 1.719
33.7399 2.344
33.7702 1.927
33.8005 1.510
33.8308 1.406
33.8611 2.187
33.8913 2.969
33.9216 2.865
33.9519 2.500
33.9822 2.656
34.0125 3.021
34.0427 4.115
34.0730 4.479
34.1033 7.344
34.1336 9.740
34.1638 13.385
34.1941 14.948
34.2244 19.427
34.2547 18.177
34.2850 15.885
34.3152 11.615
34.3455 9.948
34.3758 7.969
34.4061 5.990
34.4364 4.583
34.4666 4.271
34.4969 3.229
34.5272 2.917
34.5575 2.604
34.5877 2.604
34.6180 2.031
34.6483 1.979
34.6786 2.187
34.7089 1.719
34.7391 2.500
34.7694 2.448
34.7997 1.562
34.8300 1.719
34.8603 1.823
34.8905 2.187
34.9208 1.823
34.9511 2.292
34.9814 1.979
35.0116 1.875
35.0419 2.240
35.0722 2.396
35.1025 1.771
35.1328 2.344
35.1630 1.667
35.1933 2.500
35.2236 2.917
35.2539 2.500
35.2842 2.396
35.3144 2.552
35.3447 2.604
35.3750 2.708
35.4053 2.344
35.4356 1.823
35.4658 2.552
35.4961 3.490
35.5264 2.917
35.5567 3.437
35.5869 3.437
35.6172 3.802
35.6475 4.271
35.6778 4.167
35.7081 5.104
35.7383 4.479
35.7686 5.625
35.7989 7.083
35.8292 6.979
35.8595 8.177
35.8897 10.312
35.9200 10.521
35.9503 11.771
35.9806 15.521
36.0108 16.146
36.0411 20.625
36.0714 20.625
36.1017 20.677
36.1320 19.583
36.1622 18.333
36.1925 16.094
36.2228 15.208
36.2531 14.323
36.2834 12.187
36.3136 10.365
36.3439 9.167
36.3742 6.823
36.4045 6.823
36.4347 4.740
36.4650 4.792
36.4953 3.385
36.5256 4.010
36.5559 4.479
36.5861 3.490
36.6164 2.344
36.6467 2.969
36.6770 2.865
36.7073 1.979
36.7375 2.760
36.7678 1.719
36.7981 1.771
36.8284 1.719
36.8586 1.562
36.8889 1.979
36.9192 2.187
36.9495 1.927
36.9798 1.615
37.0100 1.458
37.0403 1.562
37.0706 1.615
37.1009 1.615
37.1312 1.979
37.1614 1.562
37.1917 1.354
37.2220 0.781
37.2523 0.885
37.2825 1.562
37.3128 1.406
37.3431 1.406
37.3734 1.302
37.4037 1.302
37.4339 1.146
37.4642 1.094
37.4945 1.146
37.5248 1.354
37.5551 1.354
37.5853 1.406
37.6156 0.833
37.6459 0.937
37.6762 1.302
37.7064 1.042
37.7367 1.302
37.7670 1.302
37.7973 1.250
37.8276 0.885
37.8578 0.990
37.8881 1.094
37.9184 1.250
37.9487 0.729
37.9790 0.990
38.0092 1.458
38.0395 1.198
38.0698 0.937
38.1001 1.146
38.1304 0.937
38.1606 0.990
38.1909 1.094
38.2212 0.729
38.2515 0.990
38.2817 0.990
38.3120 0.937
38.3423 0.781
38.3726 1.146
38.4029 1.042
38.4331 0.990
38.4634 1.094
38.4937 0.677
38.5240 1.198
38.5543 0.781
38.5845 0.885
38.6148 0.781
38.6451 0.937
38.6754 0.885
38.7056 0.625
38.7359 0.885
38.7662 0.833
38.7965 0.937
38.8268 1.042
38.8570 0.937
38.8873 0.521
38.9176 0.885
38.9479 0.937
38.9782 0.781
39.0084 1.042
39.0387 0.677
39.0690 1.198
39.0993 0.625
39.1295 1.042
39.1598 0.677
39.1901 0.312
39.2204 0.990
39.2507 0.990
39.2809 0.469
39.3112 0.833
39.3415 0.625
39.3718 0.937
39.4021 0.573
39.4323 0.833
39.4626 0.833
39.4929 0.469
39.5232 1.042
39.5534 0.729
39.5837 0.885
39.6140 0.521
39.6443 1.146
39.6746 0.781
39.7048 0.990
39.7351 0.729
39.7654 0.937
39.7957 0.833
39.8260 0.937
39.8562 0.677
39.8865 0.677
39.9168 0.521
39.9471 0.885
39.9773 0.573
40.0076 0.833
40.0379 0.625
40.0682 0.885
40.0985 0.677
40.1287 0.625
40.1590 0.885
40.1893 0.573
40.2196 0.781
40.2499 1.094
40.2801 0.781
40.3104 0.729
40.3407 0.469
40.3710 0.937
40.4012 0.573
40.4315 0.729
40.4618 0.365
40.4921 0.833
40.5224 0.833
40.5526 0.521
40.5829 0.833
40.6132 0.885
40.6435 0.573
40.6738 0.990
40.7040 0.885
40.7343 0.469
40.7646 0.781
40.7949 0.521
40.8251 0.781
40.8554 0.781
40.8857 0.781
40.9160 0.885
40.9463 0.573
40.9765 0.781
41.0068 0.677
41.0371 0.990
41.0674 0.937
41.0977 0.625
41.1279 0.573
41.1582 0.365
41.1885 0.729
41.2188 1.042
41.2491 0.729
41.2793 0.312
41.3096 0.885
41.3399 0.573
41.3702 0.469
41.4004 0.990
41.4307 0.729
41.4610 0.729
41.4913 0.625
41.5216 0.521
41.5518 0.625
41.5821 0.573
41.6124 0.469
41.6427 0.677
41.6730 0.573
41.7032 0.781
41.7335 0.573
41.7638 1.458
41.7941 0.833
41.8243 0.937
41.8546 0.937
41.8849 0.521
41.9152 0.729
41.9455 0.729
41.9757 0.521
42.0060 0.417
42.0363 0.833
42.0666 0.677
42.0969 0.625
42.1271 0.573
42.1574 0.781
42.1877 0.573
42.2180 0.521
42.2482 0.781
42.2785 0.677
42.3088 0.625
42.3391 0.781
42.3694 1.198
42.3996 0.521
42.4299 0.677
42.4602 0.573
42.4905 0.885
42.5208 0.677
42.5510 0.521
42.5813 0.677
42.6116 0.729
42.6419 0.573
42.6721 0.625
42.7024 0.781
42.7327 0.677
42.7630 0.781
42.7933 0.729
42.8235 0.573
42.8538 0.677
42.8841 0.625
42.9144 0.625
42.9447 0.521
42.9749 1.198
43.0052 0.521
43.0355 0.573
43.0658 0.677
43.0960 0.625
43.1263 0.781
43.1566 0.417
43.1869 0.625
43.2172 0.677
43.2474 0.885
43.2777 0.521
43.3080 0.781
43.3383 0.677
43.3686 0.677
43.3988 0.365
43.4291 0.521
43.4594 0.573
43.4897 0.521
43.5199 0.521
43.5502 0.677
43.5805 0.885
43.6108 0.625
43.6411 0.417
43.6713 0.885
43.7016 0.833
43.7319 0.677
43.7622 0.885
43.7925 0.833
43.8227 0.677
43.8530 1.042
43.8833 0.990
43.9136 0.885
43.9439 0.417
43.9741 0.781
44.0044 0.573
44.0347 0.729
44.0650 0.625
44.0952 0.573
44.1255 0.833
44.1558 0.781
44.1861 0.833
44.2164 0.365
44.2466 0.729
44.2769 1.198
44.3072 0.729
44.3375 0.469
44.3678 0.781
44.3980 0.573
44.4283 0.625
44.4586 0.573
44.4889 0.365
44.5191 0.781
44.5494 0.469
44.5797 0.833
44.6100 0.990
44.6403 0.625
44.6705 0.729
44.7008 0.885
44.7311 0.729
44.7614 0.990
44.7917 0.365
44.8219 0.833
44.8522 0.885
44.8825 0.573
44.9128 0.573
44.9430 0.573
44.9733 0.729
45.0036 1.094
45.0339 1.042
45.0642 0.677
45.0944 1.146
45.1247 0.729
45.1550 0.729
45.1853 0.573
45.2156 0.781
45.2458 0.573
45.2761 0.937
45.3064 0.625
45.3367 0.781
45.3669 0.625
45.3972 0.573
45.4275 0.833
45.4578 0.677
45.4881 0.677
45.5183 0.573
45.5486 0.781
45.5789 0.885
45.6092 0.469
45.6395 0.885
45.6697 0.521
45.7000 0.833
45.7303 0.677
45.7606 0.469
45.7908 0.885
45.8211 0.677
45.8514 0.729
45.8817 0.885
45.9120 0.937
45.9422 0.990
45.9725 0.625
46.0028 0.677
46.0331 0.573
46.0634 0.625
46.0936 0.677
46.1239 1.042
46.1542 0.781
46.1845 1.250
46.2147 0.781
46.2450 1.198
46.2753 1.042
46.3056 0.885
46.3359 0.937
46.3661 0.990
46.3964 1.302
46.4267 1.406
46.4570 0.833
46.4873 1.250
46.5175 0.885
46.5478 1.198
46.5781 1.198
46.6084 1.823
46.6386 1.458
46.6689 1.354
46.6992 1.198
46.7295 1.250
46.7598 0.990
46.7900 1.406
46.8203 0.937
46.8506 1.458
46.8809 1.250
46.9112 1.354
46.9414 1.354
46.9717 1.510
47.0020 1.354
47.0323 1.667
47.0626 2.448
47.0928 1.979
47.1231 1.771
47.1534 2.187
47.1837 2.031
47.2139 2.031
47.2442 2.656
47.2745 2.552
47.3048 2.969
47.3351 2.448
47.3653 3.229
47.3956 3.125
47.4259 2.187
47.4562 2.656
47.4865 2.396
47.5167 2.448
47.5470 2.135
47.5773 2.187
47.6076 1.615
47.6378 2.031
47.6681 1.458
47.6984 1.875
47.7287 1.406
47.7590 1.406
47.7892 1.510
47.8195 1.667
47.8498 1.042
47.8801 1.042
47.9104 0.990
47.9406 0.729
47.9709 1.198
48.0012 1.458
48.0315 1.250
48.0617 1.198
48.0920 1.354
48.1223 0.781
48.1526 1.198
48.1829 0.990
48.2131 1.406
48.2434 1.302
48.2737 1.198
48.3040 1.042
48.3343 1.406
48.3645 1.094
48.3948 0.729
48.4251 1.354
48.4554 1.042
48.4856 0.885
48.5159 0.729
48.5462 0.885
48.5765 1.042
48.6068 0.937
48.6370 0.781
48.6673 0.469
48.6976 1.510
48.7279 1.146
48.7582 0.781
48.7884 0.885
48.8187 0.885
48.8490 1.510
48.8793 0.833
48.9095 0.833
48.9398 0.833
48.9701 0.677
49.0004 0.990
49.0307 0.781
49.0609 1.094
49.0912 1.094
49.1215 0.625
49.1518 0.833
49.1821 0.573
49.2123 0.833
49.2426 0.781
49.2729 0.781
49.3032 0.990
49.3334 1.146
49.3637 0.729
49.3940 1.042
49.4243 0.781
49.4546 1.250
49.4848 0.781
49.5151 0.781
49.5454 0.729
49.5757 0.833
49.6060 1.146
49.6362 0.833
49.6665 0.573
49.6968 0.729
49.7271 0.833
49.7574 0.885
49.7876 0.625
49.8179 0.781
49.8482 1.042
49.8785 1.042
49.9087 0.833
49.9390 0.833
49.9693 1.094
49.9996 0.729
50.0299 0.781
50.0601 0.781
50.0904 0.729
50.1207 0.677
50.1510 0.990
50.1813 0.885
50.2115 0.833
50.2418 0.469
50.2721 1.042
50.3024 1.042
50.3326 1.094
50.3629 0.781
50.3932 1.146
50.4235 0.885
50.4538 0.625
50.4840 0.990
50.5143 0.781
50.5446 0.937
50.5749 0.937
50.6052 0.990
50.6354 0.781
50.6657 0.781
50.6960 1.146
50.7263 1.406
50.7565 0.729
50.7868 0.885
50.8171 1.094
50.8474 1.094
50.8777 1.094
50.9079 0.833
50.9382 0.885
50.9685 0.990
50.9988 1.250
51.0291 0.990
51.0593 0.781
51.0896 1.198
51.1199 0.365
51.1502 0.677
51.1804 0.573
51.2107 0.990
51.2410 1.406
51.2713 0.625
51.3016 0.312
51.3318 0.937
51.3621 0.990
51.3924 0.833
51.4227 0.677
51.4530 0.677
51.4832 1.042
51.5135 0.937
51.5438 0.781
51.5741 0.677
51.6043 0.677
51.6346 1.354
51.6649 0.781
51.6952 0.990
51.7255 0.677
51.7557 0.729
51.7860 1.146
51.8163 0.781
51.8466 0.885
51.8769 0.937
51.9071 0.990
51.9374 1.042
51.9677 0.937
51.9980 1.146
52.0282 0.677
52.0585 1.094
52.0888 0.729
52.1191 1.042
52.1494 0.937
52.1796 1.094
52.2099 0.885
52.2402 0.990
52.2705 0.990
52.3008 0.625
52.3310 0.573
52.3613 0.990
52.3916 0.781
52.4219 0.365
52.4521 0.990
52.4824 0.990
52.5127 0.625
52.5430 0.417
52.5733 0.937
52.6035 0.573
52.6338 0.729
52.6641 0.781
52.6944 0.833
52.7247 0.469
52.7549 0.677
52.7852 0.677
52.8155 0.521
52.8458 0.885
52.8761 0.885
52.9063 0.937
52.9366 0.365
52.9669 0.885
52.9972 0.625
53.0274 1.198
53.0577 0.729
53.0880 1.042
53.1183 0.781
53.1486 0.625
53.1788 0.729
53.2091 0.417
53.2394 0.937
53.2697 0.729
53.3000 0.990
53.3302 0.937
53.3605 0.521
53.3908 0.885
53.4211 0.781
53.4513 0.885
53.4816 0.885
53.5119 0.937
53.5422 0.781
53.5725 0.990
53.6027 0.937
53.6330 1.094
53.6633 0.521
53.6936 0.781
53.7239 0.833
53.7541 0.729
53.7844 0.781
53.8147 0.729
53.8450 0.573
53.8752 0.677
53.9055 0.573
53.9358 0.417
53.9661 1.094
53.9964 0.729
54.0266 0.990
54.0569 0.573
54.0872 0.625
54.1175 0.990
54.1478 0.729
54.1780 1.042
54.2083 0.937
54.2386 0.833
54.2689 0.729
54.2991 0.625
54.3294 0.573
54.3597 0.885
54.3900 1.042
54.4203 0.833
54.4505 0.521
54.4808 0.781
54.5111 1.354
54.5414 0.990
54.5717 0.573
54.6019 0.781
54.6322 0.885
54.6625 0.573
54.6928 0.937
54.7230 0.469
54.7533 0.573
54.7836 0.729
54.8139 0.990
54.8442 1.094
54.8744 0.729
54.9047 0.781
54.9350 0.729
54.9653 0.937
54.9956 0.833
55.0258 0.677
55.0561 0.521
55.0864 0.469
55.1167 1.042
55.1469 0.625
55.1772 0.729
55.2075 0.885
55.2378 0.677
55.2681 1.042
55.2983 0.260
55.3286 0.937
55.3589 0.833
55.3892 0.885
55.4195 0.625
55.4497 0.677
55.4800 0.990
55.5103 1.302
55.5406 1.042
55.5709 0.990
55.6011 0.729
55.6314 0.573
55.6617 1.042
55.6920 1.146
55.7222 0.990
55.7525 0.521
55.7828 1.719
55.8131 1.146
55.8434 1.510
55.8736 1.094
55.9039 1.302
55.9342 1.146
55.9645 1.510
55.9948 1.510
56.0250 1.771
56.0553 1.354
56.0856 1.719
56.1159 2.604
56.1461 1.875
56.1764 2.083
56.2067 2.708
56.2370 3.021
56.2673 3.698
56.2975 4.115
56.3278 2.969
56.3581 5.312
56.3884 4.375
56.4187 5.260
56.4489 4.635
56.4792 4.531
56.5095 5.000
56.5398 4.219
56.5700 2.917
56.6003 3.802
56.6306 4.062
56.6609 3.646
56.6912 2.969
56.7214 2.240
56.7517 1.771
56.7820 1.875
56.8123 1.667
56.8426 1.562
56.8728 1.562
56.9031 1.667
56.9334 1.146
56.9637 0.990
56.9939 1.094
57.0242 0.990
57.0545 1.042
57.0848 0.937
57.1151 0.833
57.1453 0.885
57.1756 1.042
57.2059 1.146
57.2362 1.042
57.2665 0.990
57.2967 0.312
57.3270 0.990
57.3573 0.990
57.3876 0.729
57.4178 0.885
57.4481 0.990
57.4784 0.990
57.5087 0.625
57.5390 0.677
57.5692 0.729
57.5995 0.781
57.6298 0.729
57.6601 0.417
57.6904 0.625
57.7206 0.833
57.7509 0.677
57.7812 0.312
57.8115 0.781
57.8417 0.781
57.8720 0.625
57.9023 0.937
57.9326 0.521
57.9629 0.573
57.9931 1.146
58.0234 0.781
58.0537 0.729
58.0840 0.573
58.1143 0.625
58.1445 0.677
58.1748 0.781
58.2051 0.573
58.2354 1.094
58.2656 0.781
58.2959 0.885
58.3262 0.677
58.3565 0.625
58.3868 0.573
58.4170 0.677
58.4473 0.469
58.4776 0.312
58.5079 0.833
58.5382 0.677
58.5684 0.729
58.5987 0.417
58.6290 0.417
58.6593 0.625
58.6896 0.625
58.7198 0.781
58.7501 1.146
58.7804 0.885
58.8107 0.573
58.8409 0.521
58.8712 0.312
58.9015 0.729
58.9318 0.625
58.9621 0.312
58.9923 0.417
59.0226 0.729
59.0529 0.833
59.0832 0.365
59.1135 1.094
59.1437 0.781
59.1740 0.573
59.2043 0.573
59.2346 0.469
59.2648 1.094
59.2951 0.469
59.3254 0.937
59.3557 1.250
59.3860 0.729
59.4162 0.833
59.4465 0.833
59.4768 0.521
59.5071 0.781
59.5374 0.521
59.5676 0.937
59.5979 1.146
59.6282 0.833
59.6585 0.885
59.6887 0.781
59.7190 0.521
59.7493 0.573
59.7796 0.469
59.8099 0.417
59.8401 0.521
59.8704 0.573
59.9007 0.677
59.9310 0.521
59.9613 0.573
59.9915 0.833
60.0218 0.885
60.0521 0.677
60.0824 0.573
60.1126 0.573
60.1429 0.573
60.1732 0.677
60.2035 0.885
60.2338 0.469
60.2640 0.469
60.2943 0.573
60.3246 0.417
60.3549 0.625
60.3852 0.625
60.4154 0.365
60.4457 0.521
60.4760 0.573
60.5063 0.417
60.5365 0.625
60.5668 0.521
60.5971 0.573
60.6274 0.625
60.6577 0.417
60.6879 0.417
60.7182 0.729
60.7485 0.573
60.7788 0.781
60.8091 0.625
60.8393 0.417
60.8696 0.365
60.8999 0.573
60.9302 0.833
60.9604 0.625
60.9907 0.417
61.0210 0.781
61.0513 0.781
61.0816 0.573
61.1118 0.365
61.1421 0.677
61.1724 0.625
61.2027 0.573
61.2330 0.521
61.2632 0.573
61.2935 0.573
61.3238 0.833
61.3541 0.677
61.3844 0.573
61.4146 0.781
61.4449 0.833
61.4752 0.573
61.5055 0.781
61.5357 0.677
61.5660 0.573
61.5963 0.729
61.6266 0.573
61.6569 0.885
61.6871 0.521
61.7174 0.833
61.7477 0.625
61.7780 0.677
61.8083 0.781
61.8385 0.781
61.8688 0.885
61.8991 0.729
61.9294 0.781
61.9596 1.146
61.9899 0.885
62.0202 0.885
62.0505 0.885
62.0808 1.198
62.1110 0.885
62.1413 1.146
62.1716 1.250
62.2019 1.354
62.2322 1.302
62.2624 1.198
62.2927 1.875
62.3230 1.354
62.3533 1.771
62.3835 1.719
62.4138 1.667
62.4441 2.083
62.4744 1.458
62.5047 2.760
62.5349 1.927
62.5652 2.708
62.5955 2.448
62.6258 3.333
62.6561 3.906
62.6863 4.010
62.7166 2.969
62.7469 2.760
62.7772 2.552
62.8074 3.073
62.8377 2.552
62.8680 2.187
62.8983 3.073
62.9286 2.292
62.9588 2.604
62.9891 1.979
63.0194 1.875
63.0497 1.979
63.0800 1.771
63.1102 1.510
63.1405 1.823
63.1708 1.667
63.2011 1.250
63.2313 1.198
63.2616 0.833
63.2919 1.042
63.3222 1.042
63.3525 0.937
63.3827 0.677
63.4130 1.146
63.4433 0.990
63.4736 0.833
63.5039 1.354
63.5341 0.937
63.5644 0.677
63.5947 0.781
63.6250 0.729
63.6552 0.573
63.6855 1.354
63.7158 0.990
63.7461 0.677
63.7764 0.833
63.8066 0.937
63.8369 0.729
63.8672 0.885
63.8975 0.729
63.9278 0.937
63.9580 0.573
63.9883 0.521
64.0186 0.625
64.0489 0.625
64.0791 0.260
64.1094 0.417
64.1397 0.573
64.1700 0.521
64.2003 0.573
64.2305 0.677
64.2608 0.677
64.2911 0.469
64.3214 0.469
64.3517 0.573
64.3819 0.781
64.4122 0.833
64.4425 0.677
64.4728 0.625
64.5031 0.833
64.5333 0.781
64.5636 0.573
64.5939 0.625
64.6242 0.729
64.6544 0.312
64.6847 0.312
64.7150 0.469
64.7453 0.573
64.7756 0.573
64.8058 0.417
64.8361 0.625
64.8664 0.469
64.8967 0.677
64.9270 0.833
64.9572 0.469
64.9875 0.625
65.0178 0.625
65.0481 0.729
65.0783 0.677
65.1086 0.885
65.1389 0.312
65.1692 0.573
65.1995 0.625
65.2297 0.833
65.2600 0.365
65.2903 0.573
65.3206 0.781
65.3509 0.521
65.3811 0.625
65.4114 0.469
65.4417 0.729
65.4720 0.625
65.5022 0.677
65.5325 0.729
65.5628 0.937
65.5931 0.573
65.6234 0.833
65.6536 0.469
65.6839 0.469
65.7142 0.833
65.7445 0.885
65.7748 0.625
65.8050 0.729
65.8353 0.885
65.8656 0.729
65.8959 0.677
65.9261 0.833
65.9564 1.042
65.9867 1.198
66.0170 0.781
66.0473 0.365
66.0775 0.833
66.1078 1.198
66.1381 1.302
66.1684 0.729
66.1987 1.198
66.2289 0.833
66.2592 1.406
66.2895 0.781
66.3198 0.781
66.3500 0.885
66.3803 1.250
66.4106 0.885
66.4409 0.833
66.4712 0.885
66.5014 0.677
66.5317 1.042
66.5620 0.990
66.5923 0.990
66.6226 0.833
66.6528 0.833
66.6831 0.885
66.7134 0.625
66.7437 0.885
66.7739 0.781
66.8042 1.042
66.8345 0.573
66.8648 0.573
66.8951 0.937
66.9253 0.573
66.9556 0.937
66.9859 0.833
67.0162 0.781
67.0465 0.729
67.0767 0.625
67.1070 0.625
67.1373 0.990
67.1676 0.677
67.1978 0.833
67.2281 1.250
67.2584 1.146
67.2887 1.042
67.3190 1.250
67.3492 1.094
67.3795 1.094
67.4098 1.406
67.4401 1.250
67.4704 1.771
67.5006 2.135
67.5309 1.562
67.5612 1.406
67.5915 1.875
67.6218 1.458
67.6520 2.656
67.6823 2.448
67.7126 1.979
67.7429 2.969
67.7731 3.125
67.8034 3.385
67.8337 2.812
67.8640 2.917
67.8943 2.865
67.9245 1.927
67.9548 2.292
67.9851 2.240
68.0154 2.135
68.0457 2.292
68.0759 2.031
68.1062 1.823
68.1365 2.031
68.1668 1.458
68.1970 2.240
68.2273 1.771
68.2576 1.354
68.2879 1.198
68.3182 0.990
68.3484 0.990
68.3787 0.937
68.4090 1.198
68.4393 0.990
68.4696 1.250
68.4998 0.833
68.5301 1.094
68.5604 1.042
68.5907 1.042
68.6209 1.250
68.6512 1.354
68.6815 1.562
68.7118 1.615
68.7421 0.990
68.7723 1.302
68.8026 1.927
68.8329 1.458
68.8632 1.615
68.8935 1.406
68.9237 1.198
68.9540 1.615
68.9843 1.823
69.0146 1.250
69.0448 1.406
69.0751 1.667
69.1054 1.562
69.1357 1.198
69.1660 1.146
69.1962 1.094
69.2265 0.990
69.2568 1.302
69.2871 1.094
69.3174 1.406
69.3476 0.781
69.3779 0.417
69.4082 0.885
69.4385 0.625
69.4687 0.885
69.4990 0.417
69.5293 1.042
69.5596 0.677
69.5899 0.729
69.6201 0.781
69.6504 0.729
69.6807 0.625
69.7110 0.833
69.7413 0.729
69.7715 0.729
69.8018 0.469
69.8321 0.625
69.8624 0.521
69.8926 0.521
69.9229 0.312
69.9532 0.365
69.9835 0.469
70.0138 0.625
70.0440 0.417
70.0743 0.729
70.1046 0.469
70.1349 0.365
70.1652 0.521
70.1954 0.365
70.2257 0.521
70.2560 0.260
70.2863 0.312
70.3166 0.573
70.3468 0.781
70.3771 0.677
70.4074 0.625
70.4377 0.521
70.4679 0.260
70.4982 0.625
70.5285 0.521
70.5588 0.521
70.5891 0.677
70.6193 0.729
70.6496 0.677
70.6799 0.781
70.7102 0.260
70.7405 0.260
70.7707 0.781
70.8010 0.260
70.8313 0.625
70.8616 0.625
70.8918 0.365
70.9221 0.365
70.9524 0.260
70.9827 0.625
71.0130 0.365
71.0432 0.469
71.0735 0.625
71.1038 0.208
71.1341 0.469
71.1644 0.312
71.1946 0.677
71.2249 0.521
71.2552 0.417
71.2855 0.625
71.3157 0.365
71.3460 0.625
71.3763 0.469
71.4066 0.417
71.4369 0.260
71.4671 0.781
71.4974 0.625
71.5277 0.469
71.5580 0.885
71.5883 0.729
71.6185 0.365
71.6488 0.469
71.6791 0.208
71.7094 0.260
71.7396 0.521
71.7699 0.365
71.8002 0.521
71.8305 0.937
71.8608 0.521
71.8910 0.521
71.9213 0.469
71.9516 0.312
71.9819 0.469
72.0122 0.469
72.0424 0.573
72.0727 0.729
72.1030 0.677
72.1333 0.729
72.1635 0.729
72.1938 0.625
72.2241 0.677
72.2544 0.625
72.2847 0.521
72.3149 0.625
72.3452 0.521
72.3755 0.365
72.4058 1.042
72.4361 0.677
72.4663 0.625
72.4966 0.781
72.5269 0.729
72.5572 0.365
72.5874 0.573
72.6177 0.677
72.6480 0.729
72.6783 0.573
72.7086 0.573
72.7388 0.573
72.7691 0.573
72.7994 0.365
72.8297 0.417
72.8600 0.625
72.8902 0.521
72.9205 0.573
72.9508 0.521
72.9811 0.521
73.0113 0.417
73.0416 0.469
73.0719 0.469
73.1022 0.312
73.1325 0.469
73.1627 0.573
73.1930 0.469
73.2233 0.625
73.2536 0.365
73.2839 0.937
73.3141 0.833
73.3444 0.365
73.3747 0.312
73.4050 0.573
73.4353 0.312
73.4655 0.312
73.4958 0.573
73.5261 0.417
73.5564 0.781
73.5866 0.417
73.6169 0.417
73.6472 0.469
73.6775 0.312
73.7078 0.625
73.7380 0.469
73.7683 0.677
73.7986 0.365
73.8289 0.885
73.8592 0.521
73.8894 0.729
73.9197 0.521
73.9500 0.417
73.9803 0.677
74.0105 0.260
74.0408 0.417
74.0711 0.365
74.1014 0.729
74.1317 0.729
74.1619 0.365
74.1922 0.260
74.2225 0.521
74.2528 0.521
74.2831 0.469
74.3133 0.208
74.3436 0.260
74.3739 0.469
74.4042 0.469
74.4344 0.260
74.4647 0.365
74.4950 0.469
74.5253 0.417
74.5556 0.365
74.5858 0.573
74.6161 0.417
74.6464 0.729
74.6767 0.312
74.7070 0.365
74.7372 0.365
74.7675 0.469
74.7978 0.677
74.8281 0.573
74.8583 0.469
74.8886 0.521
74.9189 0.573
74.9492 0.260
74.9795 0.260
75.0097 0.521
75.0400 0.521
75.0703 0.417
75.1006 0.521
75.1309 0.365
75.1611 0.729
75.1914 0.417
75.2217 0.677
75.2520 0.417
75.2822 0.208
75.3125 0.625
75.3428 0.469
75.3731 0.417
75.4034 0.573
75.4336 0.521
75.4639 0.833
75.4942 0.365
75.5245 0.521
75.5548 0.312
75.5850 0.365
75.6153 0.365
75.6456 0.312
75.6759 0.365
75.7061 0.729
75.7364 0.729
75.7667 0.625
75.7970 0.469
75.8273 0.833
75.8575 0.521
75.8878 0.677
75.9181 0.677
75.9484 0.417
75.9787 0.469
76.0089 0.365
76.0392 0.260
76.0695 0.417
76.0998 0.469
76.1301 0.625
76.1603 0.521
76.1906 0.469
76.2209 0.729
76.2512 0.469
76.2814 0.469
76.3117 0.573
76.3420 0.417
76.3723 0.625
76.4026 0.573
76.4328 0.573
76.4631 0.781
76.4934 0.417
76.5237 0.417
76.5540 0.417
76.5842 0.729
76.6145 0.625
76.6448 0.625
76.6751 0.469
76.7053 0.521
76.7356 0.625
76.7659 0.521
76.7962 0.781
76.8265 0.625
76.8567 1.094
76.8870 0.677
76.9173 1.250
76.9476 0.573
76.9779 0.417
77.0081 0.625
77.0384 0.469
77.0687 0.937
77.0990 0.417
77.1292 0.625
77.1595 0.625
77.1898 0.729
77.2201 0.469
77.2504 0.260
77.2806 0.469
77.3109 0.365
77.3412 0.417
77.3715 0.312
77.4018 0.937
77.4320 0.521
77.4623 0.469
77.4926 0.260
77.5229 0.365
77.5531 0.521
77.5834 0.677
77.6137 0.312
77.6440 0.417
77.6743 0.573
77.7045 0.365
77.7348 0.729
77.7651 0.833
77.7954 0.260
77.8257 0.521
77.8559 0.521
77.8862 0.312
77.9165 0.469
77.9468 0.469
77.9770 0.521
78.0073 0.469
78.0376 0.312
78.0679 0.885
78.0982 0.469
78.1284 0.365
78.1587 0.365
78.1890 0.260
78.2193 0.469
78.2496 0.573
78.2798 0.573
78.3101 0.781
78.3404 0.260
78.3707 0.677
78.4009 0.729
78.4312 0.573
78.4615 0.104
78.4918 0.365
78.5221 0.365
78.5523 0.260
78.5826 0.521
78.6129 0.781
78.6432 0.469
78.6735 0.469
78.7037 0.521
78.7340 0.417
78.7643 0.521
78.7946 0.417
78.8248 0.573
78.8551 0.677
78.8854 0.521
78.9157 0.365
78.9460 0.469
78.9762 0.625
79.0065 0.312
79.0368 0.365
79.0671 0.625
79.0974 0.521
79.1276 0.260
79.1579 0.729
79.1882 0.312
79.2185 0.729
79.2488 0.677
79.2790 0.677
79.3093 0.312
79.3396 0.312
79.3699 0.260
79.4001 0.521
79.4304 0.521
79.4607 0.469
79.4910 0.417
79.5213 0.469
79.5515 0.260
79.5818 0.417
79.6121 0.469
79.6424 0.260
79.6727 0.573
79.7029 0.208
79.7332 0.677
79.7635 0.417
79.7938 0.312
79.8240 0.573
79.8543 0.417
79.8846 0.781
79.9149 0.729
79.9452 0.573
79.9754 0.365
80.0057 0.625
80.0360 0.625
80.0663 0.260
80.0966 0.729
80.1268 0.312
80.1571 0.260
80.1874 0.781
80.2177 0.260
80.2479 0.260
80.2782 0.365
80.3085 0.469
80.3388 0.729
80.3691 0.625
80.3993 0.417
80.4296 0.469
80.4599 0.417
80.4902 0.365
80.5205 0.365
80.5507 0.521
80.5810 0.729
80.6113 0.469
80.6416 0.521
80.6718 0.417
80.7021 0.573
80.7324 0.260
80.7627 0.625
80.7930 0.625
80.8232 0.312
80.8535 0.677
80.8838 0.677
80.9141 0.677
80.9444 0.260
80.9746 0.312
81.0049 0.521
81.0352 0.573
81.0655 0.469
81.0957 0.729
81.1260 0.833
81.1563 0.885
81.1866 0.781
81.2169 0.729
81.2471 0.469
81.2774 0.521
81.3077 0.781
81.3380 0.521
81.3683 0.729
81.3985 0.469
81.4288 0.469
81.4591 0.521
81.4894 0.781
81.5196 0.781
81.5499 0.781
81.5802 0.677
81.6105 0.260
81.6408 0.365
81.6710 0.677
81.7013 0.625
81.7316 0.677
81.7619 0.625
81.7922 0.833
81.8224 0.521
81.8527 0.417
81.8830 0.208
81.9133 0.417
81.9436 0.729
81.9738 0.260
82.0041 0.625
82.0344 0.469
82.0647 0.573
82.0949 0.469
82.1252 0.417
82.1555 0.573
82.1858 0.677
82.2161 0.833
82.2463 0.573
82.2766 0.885
82.3069 0.625
82.3372 0.573
82.3675 0.417
82.3977 0.417
82.4280 0.521
82.4583 0.469
82.4886 0.625
82.5188 0.781
82.5491 0.677
82.5794 0.625
82.6097 0.312
82.6400 0.365
82.6702 0.312
82.7005 0.781
82.7308 0.573
82.7611 0.573
82.7914 0.729
82.8216 0.365
82.8519 0.417
82.8822 0.781
82.9125 0.573
82.9427 0.625
82.9730 0.521
83.0033 0.729
83.0336 0.417
83.0639 0.521
83.0941 0.312
83.1244 0.417
83.1547 0.729
83.1850 0.573
83.2153 0.417
83.2455 0.365
83.2758 0.208
83.3061 0.260
83.3364 0.625
83.3666 0.365
83.3969 0.260
83.4272 0.469
83.4575 0.365
83.4878 0.417
83.5180 0.625
83.5483 0.365
83.5786 0.417
83.6089 0.469
83.6392 0.625
83.6694 0.729
83.6997 0.417
83.7300 0.573
83.7603 0.469
83.7905 0.625
83.8208 0.521
83.8511 0.625
83.8814 0.312
83.9117 0.312
83.9419 0.677
83.9722 0.312
84.0025 0.677
84.0328 0.365
84.0631 0.625
84.0933 0.469
84.1236 0.677
84.1539 0.469
84.1842 0.417
84.2144 0.521
84.2447 0.729
84.2750 0.312
84.3053 0.573
84.3356 0.365
84.3658 0.729
84.3961 0.208
84.4264 0.417
84.4567 0.365
84.4870 0.469
84.5172 0.469
84.5475 0.573
84.5778 0.156
84.6081 0.469
84.6383 0.625
84.6686 0.573
84.6989 0.833
84.7292 0.781
84.7595 0.833
84.7897 0.521
84.8200 0.260
84.8503 0.417
84.8806 0.260
84.9109 0.573
84.9411 0.521
84.9714 0.417
85.0017 0.573
85.0320 0.312
85.0623 0.469
85.0925 0.469
85.1228 0.208
85.1531 0.729
85.1834 0.260
85.2136 0.469
85.2439 0.260
85.2742 0.260
85.3045 0.365
85.3348 0.417
85.3650 0.469
85.3953 0.417
85.4256 0.417
85.4559 0.469
85.4862 0.573
85.5164 0.729
85.5467 0.469
85.5770 0.521
85.6073 0.573
85.6375 0.521
85.6678 0.417
85.6981 0.469
85.7284 0.469
85.7587 0.573
85.7889 0.521
85.8192 0.365
85.8495 0.365
85.8798 0.365
85.9101 0.521
85.9403 0.417
85.9706 0.260
86.0009 0.521
86.0312 0.365
86.0614 0.260
86.0917 0.260
86.1220 0.677
86.1523 0.625
86.1826 0.365
86.2128 0.521
86.2431 0.521
86.2734 0.469
86.3037 0.312
86.3340 0.260
86.3642 0.312
86.3945 0.469
86.4248 1.146
86.4551 0.521
86.4853 0.521
86.5156 0.469
86.5459 0.469
86.5762 0.625
86.6065 0.260
86.6367 0.521
86.6670 0.312
86.6973 0.417
86.7276 0.625
86.7579 0.312
86.7881 0.625
86.8184 0.365
86.8487 0.729
86.8790 0.365
86.9092 0.625
86.9395 0.677
86.9698 0.312
87.0001 0.469
87.0304 0.365
87.0606 0.469
87.0909 0.417
87.1212 0.729
87.1515 0.365
87.1818 0.365
87.2120 0.417
87.2423 0.260
87.2726 0.625
87.3029 0.469
87.3331 0.469
87.3634 0.417
87.3937 0.312
87.4240 0.729
87.4543 0.260
87.4845 0.417
87.5148 0.469
87.5451 0.312
87.5754 0.729
87.6057 0.312
87.6359 0.677
87.6662 0.260
87.6965 0.312
87.7268 0.521
87.7571 0.365
87.7873 0.625
87.8176 0.417
87.8479 0.469
87.8782 0.625
87.9084 0.365
87.9387 0.365
87.9690 0.729
87.9993 0.521
88.0296 0.469
88.0598 0.573
88.0901 0.729
88.1204 0.625
88.1507 0.260
88.1810 0.521
88.2112 0.469
88.2415 0.521
88.2718 0.729
88.3021 0.365
88.3323 0.260
88.3626 0.365
88.3929 0.260
88.4232 0.417
88.4535 0.260
88.4837 0.677
88.5140 0.521
88.5443 0.312
88.5746 0.208
88.6049 0.625
88.6351 0.260
88.6654 0.521
88.6957 0.521
88.7260 0.417
88.7562 0.729
88.7865 0.833
88.8168 0.573
88.8471 0.729
88.8774 0.573
88.9076 0.729
88.9379 0.625
88.9682 0.625
88.9985 0.521
89.0288 0.729
89.0590 0.729
89.0893 0.417
89.1196 0.677
89.1499 0.990
89.1801 0.625
89.2104 0.573
89.2407 0.937
89.2710 0.937
89.3013 0.937
89.3315 0.781
89.3618 0.521
89.3921 1.094
89.4224 1.198
89.4527 0.625
89.4829 0.729
89.5132 0.990
89.5435 0.365
89.5738 0.990
89.6040 0.260
89.6343 0.833
89.6646 0.573
89.6949 0.781
89.7252 0.729
89.7554 1.198
89.7857 0.677
89.8160 0.625
89.8463 0.312
89.8766 0.729
89.9068 0.677
89.9371 0.729
89.9674 0.573
89.9977 0.625
90.0279 0.573
90.0582 0.521
90.0885 0.729
90.1188 0.521
90.1491 0.365
90.1793 0.573
90.2096 0.521
90.2399 0.573
90.2702 0.729
90.3005 0.885
90.3307 0.365
90.3610 0.625
90.3913 0.573
90.4216 0.573
90.4518 0.729
90.4821 0.573
90.5124 0.417
90.5427 0.521
90.5730 0.521
90.6032 0.521
90.6335 0.365
90.6638 0.417
90.6941 0.417
90.7244 0.833
90.7546 0.469
90.7849 0.417
90.8152 0.729
90.8455 0.365
90.8758 0.469
90.9060 0.469
90.9363 0.417
90.9666 0.260
90.9969 0.312
91.0271 0.365
91.0574 0.573
91.0877 0.417
91.1180 0.573
91.1483 0.781
91.1785 0.729
91.2088 0.833
91.2391 0.365
91.2694 0.469
91.2997 0.365
91.3299 0.521
91.3602 0.260
91.3905 0.312
91.4208 0.365
91.4510 0.469
91.4813 0.469
91.5116 0.833
91.5419 0.677
91.5722 0.469
91.6024 0.417
91.6327 0.677
91.6630 0.365
91.6933 0.312
91.7236 0.833
91.7538 0.573
91.7841 0.729
91.8144 0.833
91.8447 0.260
91.8749 1.042
91.9052 0.729
91.9355 0.365
91.9658 0.365
91.9961 0.312
92.0263 0.417
92.0566 0.521
92.0869 0.417
92.1172 0.729
92.1475 0.417
92.1777 0.312
92.2080 0.625
92.2383 0.365
92.2686 0.469
92.2988 0.729
92.3291 0.312
92.3594 0.937
92.3897 0.677
92.4200 0.729
92.4502 0.521
92.4805 0.469
92.5108 0.521
92.5411 0.781
92.5714 0.729
92.6016 0.573
92.6319 0.625
92.6622 0.365
92.6925 0.990
92.7227 0.625
92.7530 0.729
92.7833 0.729
92.8136 0.885
92.8439 0.521
92.8741 0.781
92.9044 0.625
92.9347 0.521
92.9650 0.625
92.9953 0.729
93.0255 0.521
93.0558 0.625
93.0861 0.521
93.1164 0.729
93.1466 0.677
93.1769 0.312
93.2072 0.573
93.2375 0.521
93.2678 0.365
93.2980 0.469
93.3283 0.625
93.3586 0.469
93.3889 0.417
93.4192 0.521
93.4494 0.417
93.4797 0.417
93.5100 0.833
93.5403 0.521
93.5706 0.573
93.6008 0.781
93.6311 0.521
93.6614 0.573
93.6917 0.469
93.7219 0.729
93.7522 0.260
93.7825 0.729
93.8128 0.729
93.8431 0.573
93.8733 0.365
93.9036 0.521
93.9339 0.625
93.9642 0.833
93.9945 0.677
94.0247 0.625
94.0550 0.365
94.0853 0.521
94.1156 0.260
94.1458 0.365
94.1761 0.521
94.2064 0.729
94.2367 0.885
94.2670 0.521
94.2972 0.677
94.3275 0.365
94.3578 0.625
94.3881 0.469
94.4184 0.729
94.4486 0.573
94.4789 0.469
94.5092 0.729
94.5395 0.469
94.5697 0.833
94.6000 0.781
94.6303 0.625
94.6606 0.469
94.6909 0.781
94.7211 0.781
94.7514 0.573
94.7817 0.885
94.8120 0.729
94.8423 0.885
94.8725 0.937
94.9028 0.937
94.9331 0.677
94.9634 0.937
94.9936 0.677
95.0239 0.677
95.0542 0.781
95.0845 0.729
95.1148 0.729
95.1450 0.729
95.1753 0.937
95.2056 0.729
95.2359 1.094
95.2662 1.146
95.2964 1.406
95.3267 1.146
95.3570 0.729
95.3873 0.729
95.4175 1.250
95.4478 0.781
95.4781 0.937
95.5084 0.573
95.5387 0.781
95.5689 0.573
95.5992 0.625
95.6295 0.677
95.6598 0.469
95.6901 0.729
95.7203 0.573
95.7506 0.677
95.7809 0.677
95.8112 0.729
95.8414 0.729
95.8717 0.781
95.9020 0.469
95.9323 0.781
95.9626 0.521
95.9928 0.469
96.0231 0.833
96.0534 0.417
96.0837 0.781
96.1140 0.625
96.1442 0.729
96.1745 0.677
96.2048 0.729
96.2351 0.260
96.2653 0.417
96.2956 0.625
96.3259 0.625
96.3562 0.573
96.3865 0.260
96.4167 0.729
96.4470 0.208
96.4773 0.365
96.5076 0.469
96.5379 0.521
96.5681 0.417
96.5984 0.469
96.6287 0.573
96.6590 0.365
96.6893 0.677
96.7195 0.781
96.7498 0.260
96.7801 0.208
96.8104 0.260
96.8406 0.365
96.8709 0.521
96.9012 0.521
96.9315 0.521
96.9618 0.677
96.9920 0.833
97.0223 0.521
97.0526 0.417
97.0829 0.937
97.1132 0.417
97.1434 0.729
97.1737 0.729
97.2040 0.625
97.2343 0.417
97.2645 0.781
97.2948 0.260
97.3251 0.469
97.3554 0.521
97.3857 0.417
97.4159 0.260
97.4462 0.677
97.4765 0.521
97.5068 0.260
97.5371 0.521
97.5673 0.156
97.5976 0.417
97.6279 0.469
97.6582 0.677
97.6884 0.885
97.7187 0.573
97.7490 0.573
97.7793 0.417
97.8096 0.885
97.8398 0.781
97.8701 0.417
97.9004 0.885
97.9307 0.729
97.9610 0.365
97.9912 0.833
98.0215 0.573
98.0518 0.521
98.0821 0.677
98.1123 0.469
98.1426 0.521
98.1729 0.625
98.2032 0.417
98.2335 0.625
98.2637 0.365
98.2940 0.625
98.3243 0.937
98.3546 0.781
98.3849 0.469
98.4151 0.469
98.4454 0.573
98.4757 0.521
98.5060 0.781
98.5362 0.729
98.5665 0.937
98.5968 0.677
98.6271 0.729
98.6574 0.625
98.6876 0.833
98.7179 0.573
98.7482 0.469
98.7785 0.417
98.8088 0.469
98.8390 0.781
98.8693 0.729
98.8996 0.833
98.9299 0.729
98.9601 0.521
98.9904 0.729
99.0207 0.625
99.0510 0.260
99.0813 0.365
99.1115 0.625
99.1418 0.781
99.1721 0.469
99.2024 0.781
99.2327 0.521
99.2629 0.312
99.2932 0.312
99.3235 0.573
99.3538 0.573
99.3841 0.417
99.4143 0.781
99.4446 0.729
99.4749 0.677
99.5052 0.573
99.5354 0.833
99.5657 0.677
99.5960 0.417
99.6263 0.521
99.6566 0.781
99.6868 0.365
99.7171 0.365
99.7474 0.833
99.7777 0.312
99.8080 0.417
99.8382 0.677
99.8685 0.990
99.8988 0.417
99.9291 0.312
99.9593 0.417
99.9896 0.312
100.0199 0.625
100.0502 0.469
100.0805 0.781
100.1107 0.417
100.1410 0.521
100.1713 0.677
100.2016 0.312
100.2319 0.417
100.2621 0.521
100.2924 0.260
100.3227 0.469
100.3530 0.521
100.3832 0.417
100.4135 0.521
100.4438 0.781
100.4741 0.469
100.5044 0.625
100.5346 0.677
100.5649 0.677
100.5952 0.521
100.6255 0.312
100.6558 0.729
100.6860 0.573
100.7163 0.990
100.7466 0.260
100.7769 0.469
100.8071 0.573
100.8374 0.521
100.8677 0.365
100.8980 0.625
100.9283 0.521
100.9585 0.781
100.9888 0.625
101.0191 0.469
101.0494 0.260
101.0797 0.625
101.1099 0.469
101.1402 0.625
101.1705 0.365
101.2008 0.417
101.2310 0.521
101.2613 0.677
101.2916 0.521
101.3219 0.521
101.3522 0.417
101.3824 0.781
101.4127 0.625
101.4430 0.417
101.4733 1.302
101.5036 0.521
101.5338 0.729
101.5641 0.469
101.5944 0.260
101.6247 0.365
101.6549 0.625
101.6852 0.417
101.7155 0.573
101.7458 0.573
101.7761 0.573
101.8063 0.573
101.8366 0.469
101.8669 0.573
101.8972 0.729
101.9275 0.625
101.9577 0.417
101.9880 0.469
102.0183 0.885
102.0486 0.469
102.0788 0.521
102.1091 0.625
102.1394 0.729
102.1697 0.677
102.2000 0.677
102.2302 0.521
102.2605 0.521
102.2908 0.573
102.3211 0.573
102.3514 0.833
102.3816 0.729
102.4119 0.521
102.4422 0.833
102.4725 0.625
102.5028 0.417
102.5330 0.729
102.5633 0.521
102.5936 0.937
102.6239 0.521
102.6541 0.521
102.6844 0.417
102.7147 0.729
102.7450 0.729
102.7753 0.417
102.8055 0.521
102.8358 0.677
102.8661 0.625
102.8964 0.781
102.9267 0.521
102.9569 0.885
102.9872 1.042
103.0175 0.781
103.0478 0.365
103.0780 0.365
103.1083 0.833
103.1386 0.729
103.1689 0.573
103.1992 0.625
103.2294 0.833
103.2597 0.885
103.2900 0.417
103.3203 0.677
103.3506 0.521
103.3808 0.677
103.4111 0.833
103.4414 0.833
103.4717 0.781
103.5019 0.833
103.5322 0.573
103.5625 0.469
103.5928 1.042
103.6231 0.833
103.6533 0.417
103.6836 1.146
103.7139 0.990
103.7442 0.521
103.7745 0.729
103.8047 0.781
103.8350 0.885
103.8653 1.146
103.8956 0.781
103.9258 0.833
103.9561 1.094
103.9864 0.625
104.0167 0.937
104.0470 0.833
104.0772 0.573
104.1075 0.417
104.1378 0.937
104.1681 0.885
104.1984 0.833
104.2286 0.833
104.2589 0.521
104.2892 0.833
104.3195 0.677
104.3497 0.833
104.3800 0.677
104.4103 0.677
104.4406 0.833
104.4709 0.573
104.5011 0.833
104.5314 0.781
104.5617 0.885
104.5920 0.625
104.6223 0.729
104.6525 0.833
104.6828 0.833
104.7131 0.677
104.7434 0.417
104.7736 0.937
104.8039 0.677
104.8342 0.625
104.8645 0.833
104.8948 0.469
104.9250 0.521
104.9553 0.417
104.9856 0.625
105.0159 0.573
105.0462 0.677
105.0764 0.417
105.1067 0.521
105.1370 0.625
105.1673 0.573
105.1975 0.521
105.2278 0.469
105.2581 0.729
105.2884 0.833
105.3187 0.521
105.3489 0.469
105.3792 0.417
105.4095 0.365
105.4398 0.833
105.4701 0.573
105.5003 0.677
105.5306 0.365
105.5609 0.937
105.5912 0.469
105.6215 0.677
105.6517 0.573
105.6820 0.729
105.7123 0.573
105.7426 0.625
105.7728 0.625
105.8031 0.208
105.8334 0.365
105.8637 0.521
105.8940 0.312
105.9242 0.885
105.9545 0.521
105.9848 0.521
106.0151 0.573
106.0454 0.781
106.0756 0.573
106.1059 0.729
106.1362 0.729
106.1665 0.677
106.1967 0.625
106.2270 0.260
106.2573 0.417
106.2876 0.573
106.3179 0.677
106.3481 0.625
106.3784 0.937
106.4087 0.417
106.4390 0.469
106.4693 0.885
106.4995 0.573
106.5298 0.729
106.5601 0.625
106.5904 0.208
106.6206 0.833
106.6509 0.365
106.6812 0.365
106.7115 0.417
106.7418 0.365
106.7720 0.729
106.8023 0.521
106.8326 0.625
106.8629 0.521
106.8932 0.521
106.9234 0.365
106.9537 0.781
106.9840 0.417
107.0143 0.625
107.0445 0.521
107.0748 0.625
107.1051 0.885
107.1354 0.417
107.1657 0.365
107.1959 0.365
107.2262 0.417
107.2565 0.885
107.2868 0.521
107.3171 0.365
107.3473 0.521
107.3776 0.521
107.4079 0.625
107.4382 0.833
107.4684 0.469
107.4987 0.625
107.5290 0.521
107.5593 0.885
107.5896 0.260
107.6198 0.312
107.6501 0.781
107.6804 0.521
107.7107 0.469
107.7410 0.573
107.7712 0.885
107.8015 0.521
107.8318 0.677
107.8621 0.885
107.8923 0.469
107.9226 0.469
107.9529 0.365
107.9832 0.677
108.0135 0.521
108.0437 0.833
108.0740 0.521
108.1043 0.833
108.1346 0.521
108.1649 0.781
108.1951 0.677
108.2254 0.885
108.2557 0.885
108.2860 0.312
108.3163 0.885
108.3465 0.781
108.3768 0.573
108.4071 0.885
108.4374 0.365
108.4676 0.729
108.4979 0.469
108.5282 0.625
108.5585 0.625
108.5888 0.781
108.6190 0.365
108.6493 0.156
108.6796 0.469
108.7099 0.677
108.7402 0.833
108.7704 0.521
108.8007 0.833
108.8310 0.833
108.8613 0.625
108.8915 0.417
108.9218 0.781
108.9521 0.365
108.9824 0.781
109.0127 0.625
109.0429 0.521
109.0732 0.573
109.1035 0.625
109.1338 0.781
109.1641 0.573
109.1943 0.365
109.2246 0.469
109.2549 0.729
109.2852 0.521
109.3154 0.260
109.3457 0.521
109.3760 0.521
109.4063 0.521
109.4366 0.937
109.4668 0.417
109.4971 0.469
109.5274 0.625
109.5577 0.625
109.5880 0.469
109.6182 0.365
109.6485 0.677
109.6788 0.573
109.7091 0.417
109.7393 0.625
109.7696 0.521
109.7999 0.417
109.8302 0.937
109.8605 0.833
109.8907 0.312
109.9210 0.781
109.9513 0.937
109.9816 0.677
110.0119 0.573
110.0421 0.573
110.0724 0.573
110.1027 0.573
110.1330 0.937
110.1632 0.729
110.1935 0.885
110.2238 0.833
110.2541 0.573
110.2844 0.885
110.3146 0.573
110.3449 0.677
110.3752 0.521
110.4055 0.833
110.4358 0.937
110.4660 0.573
110.4963 0.677
110.5266 0.729
110.5569 0.625
110.5871 0.573
110.6174 0.625
110.6477 0.729
110.6780 0.312
110.7083 0.990
110.7385 0.417
110.7688 0.781
110.7991 0.521
110.8294 0.729
110.8597 0.573
110.8899 0.573
110.9202 0.677
110.9505 0.729
110.9808 0.781
111.0110 0.573
111.0413 0.677
111.0716 0.521
111.1019 0.885
111.1322 0.625
111.1624 0.469
111.1927 0.729
111.2230 0.573
111.2533 0.573
111.2836 0.469
111.3138 0.781
111.3441 0.469
111.3744 0.365
111.4047 0.625
111.4350 0.625
111.4652 0.417
111.4955 0.729
111.5258 0.990
111.5561 0.573
111.5863 0.365
111.6166 0.469
111.6469 0.625
111.6772 0.573
111.7075 0.677
111.7377 0.573
111.7680 0.833
111.7983 0.417
111.8286 0.260
111.8589 0.625
111.8891 0.625
111.9194 0.469
111.9497 0.521
111.9800 0.312
112.0102 0.781
112.0405 0.573
112.0708 0.365
112.1011 0.677
112.1314 0.781
112.1616 0.729
112.1919 0.573
112.2222 0.625
112.2525 0.625
112.2828 0.625
112.3130 0.573
112.3433 0.729
112.3736 0.781
112.4039 0.677
112.4341 0.365
112.4644 0.417
112.4947 0.573
112.5250 0.573
112.5553 0.729
112.5855 0.625
112.6158 0.573
112.6461 0.417
112.6764 0.573
112.7067 0.573
112.7369 0.573
112.7672 0.781
112.7975 0.729
112.8278 0.625
112.8580 0.729
112.8883 0.365
112.9186 0.573
112.9489 0.521
112.9792 0.417
113.0094 0.521
113.0397 0.781
113.0700 0.417
113.1003 0.937
113.1306 0.365
113.1608 1.042
113.1911 0.625
113.2214 0.729
113.2517 0.365
113.2819 0.781
113.3122 0.833
113.3425 0.469
113.3728 0.573
113.4031 0.469
113.4333 0.729
113.4636 0.729
113.4939 0.365
113.5242 0.417
113.5545 0.521
113.5847 0.677
113.6150 0.833
113.6453 0.469
113.6756 0.781
113.7058 0.312
113.7361 0.521
113.7664 0.625
113.7967 0.729
113.8270 0.677
113.8572 0.573
113.8875 0.521
113.9178 0.365
113.9481 0.729
113.9784 0.729
114.0086 0.677
114.0389 0.729
114.0692 0.677
114.0995 0.729
114.1298 0.729
114.1600 0.521
114.1903 0.677
114.2206 0.417
114.2509 0.521
114.2811 0.625
114.3114 0.312
114.3417 0.573
114.3720 0.521
114.4023 0.625
114.4325 0.677
114.4628 0.625
114.4931 0.729
114.5234 0.677
114.5537 0.990
114.5839 0.365
114.6142 1.094
114.6445 0.729
114.6748 0.417
114.7050 0.521
114.7353 0.729
114.7656 0.990
114.7959 0.417
114.8262 0.781
114.8564 0.625
114.8867 0.990
114.9170 0.469
114.9473 0.625
114.9776 0.677
115.0078 0.365
115.0381 0.833
115.0684 0.469
115.0987 0.677
115.1289 0.781
115.1592 0.729
115.1895 0.417
115.2198 0.937
115.2501 0.990
115.2803 0.729
115.3106 0.573
115.3409 1.042
115.3712 0.521
115.4015 0.781
115.4317 0.885
115.4620 0.573
115.4923 0.677
115.5226 0.573
115.5528 0.729
115.5831 0.729
115.6134 0.677
115.6437 0.677
115.6740 0.833
115.7042 0.625
115.7345 0.573
115.7648 0.573
115.7951 1.250
115.8254 1.146
115.8556 0.781
115.8859 0.833
115.9162 1.146
115.9465 0.990
115.9767 1.146
116.0070 0.781
116.0373 0.937
116.0676 1.146
116.0979 1.094
116.1281 0.885
116.1584 0.885
116.1887 0.937
116.2190 1.146
116.2493 1.094
116.2795 0.677
116.3098 1.198
116.3401 1.198
116.3704 1.406
116.4006 0.885
116.4309 1.250
116.4612 1.094
116.4915 0.833
116.5218 0.729
116.5520 0.833
116.5823 0.990
116.6126 0.729
116.6429 0.729
116.6732 0.781
116.7034 0.781
116.7337 0.677
116.7640 0.677
116.7943 0.677
116.8245 0.625
116.8548 0.729
116.8851 1.146
116.9154 0.625
116.9457 0.417
116.9759 0.781
117.0062 0.677
117.0365 0.469
117.0668 0.990
117.0971 0.729
117.1273 0.677
117.1576 0.990
117.1879 0.677
117.2182 0.885
117.2485 0.781
117.2787 0.729
117.3090 0.937
117.3393 0.521
117.3696 0.417
117.3998 0.729
117.4301 0.937
117.4604 0.573
117.4907 0.677
117.5210 0.885
117.5512 0.573
117.5815 1.042
117.6118 0.833
117.6421 1.146
117.6724 0.677
117.7026 0.521
117.7329 0.677
117.7632 0.729
117.7935 0.312
117.8237 0.885
117.8540 0.625
117.8843 0.469
117.9146 0.521
117.9449 0.521
117.9751 0.625
118.0054 0.469
118.0357 1.042
118.0660 0.469
118.0963 0.625
118.1265 0.625
118.1568 0.365
118.1871 0.677
118.2174 0.729
118.2476 0.521
118.2779 0.885
118.3082 0.885
118.3385 0.885
118.3688 0.521
118.3990 0.625
118.4293 0.885
118.4596 0.729
118.4899 0.781
118.5202 0.625
118.5504 1.042
118.5807 0.625
118.6110 0.469
118.6413 0.677
118.6715 0.885
118.7018 0.990
118.7321 0.573
118.7624 0.417
118.7927 0.729
118.8229 0.833
118.8532 0.521
118.8835 0.469
118.9138 0.781
118.9441 0.677
118.9743 0.573
119.0046 0.885
119.0349 0.833
119.0652 0.521
119.0954 0.677
119.1257 0.521
119.1560 0.625
119.1863 0.573
119.2166 1.042
119.2468 0.625
119.2771 0.885
119.3074 1.094
119.3377 0.729
119.3680 0.625
119.3982 0.833
119.4285 0.469
119.4588 0.885
119.4891 0.469
119.5193 0.677
119.5496 0.781
119.5799 0.625
119.6102 0.469
119.6405 0.365
119.6707 0.469
119.7010 0.469
119.7313 0.781
119.7616 0.521
119.7919 0.625
119.8221 0.781
119.8524 0.677
119.8827 0.937
119.9130 0.469
119.9433 0.729
119.9735 0.781
120.0038 0.729
