'Id: "" Comment: "" Operator: "Lab Manager" Anode: "Cu" Scantype: "Locked Coupled" TimePerStep: "19.2" X: "9999" Y: "9999" Z: "9999" 
10.0015 3.490
10.0318 3.385
10.0620 3.385
10.0923 3.594
10.1226 2.812
10.1529 3.281
10.1832 3.802
10.2134 4.010
10.2437 3.854
10.2740 3.594
10.3043 3.854
10.3346 3.281
10.3648 4.219
10.3951 3.906
10.4254 3.646
10.4557 3.437
10.4859 3.229
10.5162 4.323
10.5465 4.167
10.5768 3.229
10.6071 4.062
10.6373 3.177
10.6676 2.656
10.6979 2.969
10.7282 4.635
10.7585 4.062
10.7887 3.437
10.8190 4.479
10.8493 3.490
10.8796 3.750
10.9098 4.010
10.9401 4.635
10.9704 4.531
11.0007 3.698
11.0310 4.010
11.0612 3.958
11.0915 3.906
11.1218 3.437
11.1521 3.958
11.1824 3.437
11.2126 3.437
11.2429 2.865
11.2732 3.490
11.3035 4.115
11.3337 3.594
11.3640 3.750
11.3943 3.437
11.4246 2.969
11.4549 3.542
11.4851 4.062
11.5154 3.333
11.5457 3.750
11.5760 3.490
11.6063 3.646
11.6365 4.115
11.6668 3.177
11.6971 3.177
11.7274 2.969
11.7577 2.969
11.7879 3.698
11.8182 3.646
11.8485 4.010
11.8788 4.010
11.9090 3.594
11.9393 3.750
11.9696 2.969
11.9999 2.604
12.0302 3.333
12.0604 3.281
12.0907 3.385
12.1210 2.552
12.1513 3.073
12.1816 3.177
12.2118 3.437
12.2421 2.656
12.2724 3.437
12.3027 2.292
12.3329 3.542
12.3632 3.229
12.3935 3.021
12.4238 3.333
12.4541 3.229
12.4843 4.531
12.5146 2.656
12.5449 3.177
12.5752 3.646
12.6055 2.500
12.6357 2.708
12.6660 2.604
12.6963 3.750
12.7266 3.333
12.7568 3.125
12.7871 2.969
12.8174 2.969
12.8477 3.385
12.8780 3.333
12.9082 3.385
12.9385 2.187
12.9688 2.708
12.9991 3.177
13.0294 3.177
13.0596 2.552
13.0899 3.177
13.1202 3.021
13.1505 3.333
13.1807 2.708
13.2110 3.229
13.2413 3.125
13.2716 3.281
13.3019 3.854
13.3321 2.604
13.3624 2.344
13.3927 2.656
13.4230 2.604
13.4533 3.437
13.4835 2.292
13.5138 2.344
13.5441 2.865
13.5744 3.177
13.6046 2.292
13.6349 3.542
13.6652 3.125
13.6955 3.698
13.7258 3.281
13.7560 3.802
13.7863 3.437
13.8166 2.604
13.8469 3.281
13.8772 4.010
13.9074 3.021
13.9377 3.333
13.9680 3.542
13.9983 2.812
14.0285 2.708
14.0588 3.229
14.0891 3.021
14.1194 2.760
14.1497 2.865
14.1799 3.073
14.2102 2.917
14.2405 2.708
14.2708 2.708
14.3011 2.500
14.3313 3.490
14.3616 3.177
14.3919 3.333
14.4222 2.760
14.4524 3.073
14.4827 2.604
14.5130 2.812
14.5433 2.500
14.5736 3.594
14.6038 2.760
14.6341 3.073
14.6644 2.865
14.6947 2.917
14.7250 2.604
14.7552 2.760
14.7855 2.812
14.8158 2.500
14.8461 2.760
14.8764 3.229
14.9066 3.281
14.9369 2.656
14.9672 2.500
14.9975 3.021
15.0277 2.083
15.0580 3.281
15.0883 2.812
15.1186 2.344
15.1489 2.917
15.1791 2.812
15.2094 2.552
15.2397 2.656
15.2700 2.448
15.3003 2.656
15.3305 2.500
15.3608 2.448
15.3911 2.760
15.4214 3.177
15.4516 3.333
15.4819 2.500
15.5122 2.917
15.5425 2.708
15.5728 3.125
15.6030 2.708
15.6333 2.656
15.6636 2.604
15.6939 2.656
15.7242 2.604
15.7544 2.552
15.7847 2.396
15.8150 3.021
15.8453 2.448
15.8755 2.708
15.9058 2.865
15.9361 2.187
15.9664 3.750
15.9967 2.708
16.0269 2.656
16.0572 2.969
16.0875 2.448
16.1178 2.552
16.1481 2.708
16.1783 3.229
16.2086 2.917
16.2389 2.656
16.2692 3.385
16.2994 2.708
16.3297 2.292
16.3600 2.812
16.3903 3.333
16.4206 2.917
16.4508 2.240
16.4811 1.875
16.5114 2.552
16.5417 2.448
16.5720 2.969
16.6022 2.396
16.6325 2.552
16.6628 2.656
16.6931 2.865
16.7233 3.177
16.7536 2.865
16.7839 2.031
16.8142 3.490
16.8445 2.865
16.8747 2.656
16.9050 2.604
16.9353 2.656
16.9656 3.021
16.9959 3.021
17.0261 3.021
17.0564 3.333
17.0867 2.604
17.1170 2.396
17.1472 2.292
17.1775 3.125
17.2078 3.333
17.2381 2.812
17.2684 2.865
17.2986 2.708
17.3289 2.344
17.3592 2.396
17.3895 2.292
17.4198 2.812
17.4500 3.385
17.4803 3.073
17.5106 2.187
17.5409 3.281
17.5712 2.708
17.6014 2.917
17.6317 2.396
17.6620 2.396
17.6923 2.969
17.7225 1.667
17.7528 2.135
17.7831 2.604
17.8134 2.865
17.8437 2.448
17.8739 2.917
17.9042 2.708
17.9345 2.552
17.9648 2.448
17.9951 2.135
18.0253 3.073
18.0556 3.490
18.0859 1.615
18.1162 2.865
18.1464 2.292
18.1767 2.708
18.2070 2.031
18.2373 2.552
18.2676 2.500
18.2978 2.708
18.3281 3.177
18.3584 2.500
18.3887 2.812
18.4190 3.125
18.4492 2.917
18.4795 2.760
18.5098 1.719
18.5401 2.552
18.5703 2.292
18.6006 3.021
18.6309 3.125
18.6612 2.604
18.6915 2.656
18.7217 2.135
18.7520 2.187
18.7823 2.812
18.8126 2.708
18.8429 2.135
18.8731 2.604
18.9034 2.708
18.9337 2.396
18.9640 2.708
18.9942 2.865
19.0245 2.604
19.0548 2.083
19.0851 2.448
19.1154 2.708
19.1456 2.344
19.1759 2.500
19.2062 2.604
19.2365 2.187
19.2668 2.344
19.2970 1.927
19.3273 2.344
19.3576 2.500
19.3879 2.500
19.4181 2.656
19.4484 3.281
19.4787 2.708
19.5090 2.656
19.5393 2.865
19.5695 2.500
19.5998 2.187
19.6301 2.448
19.6604 2.448
19.6907 1.823
19.7209 2.187
19.7512 2.760
19.7815 2.448
19.8118 2.396
19.8420 2.708
19.8723 2.240
19.9026 2.760
19.9329 2.344
19.9632 2.656
19.9934 2.760
20.0237 2.760
20.0540 2.031
20.0843 2.396
20.1146 2.552
20.1448 2.448
20.1751 2.865
20.2054 3.021
20.2357 2.552
20.2659 1.927
20.2962 1.927
20.3265 2.083
20.3568 1.823
20.3871 2.135
20.4173 1.927
20.4476 2.604
20.4779 2.135
20.5082 2.344
20.5385 2.396
20.5687 2.552
20.5990 2.083
20.6293 2.292
20.6596 2.604
20.6899 2.083
20.7201 2.083
20.7504 1.927
20.7807 2.292
20.8110 2.083
20.8412 2.865
20.8715 2.448
20.9018 2.865
20.9321 2.917
20.9624 2.031
20.9926 2.344
21.0229 2.083
21.0532 2.344
21.0835 1.927
21.1138 2.240
21.1440 2.396
21.1743 1.771
21.2046 1.927
21.2349 2.344
21.2651 2.552
21.2954 2.187
21.3257 1.771
21.3560 2.135
21.3863 2.604
21.4165 2.187
21.4468 2.865
21.4771 2.135
21.5074 2.187
21.5377 1.979
21.5679 2.396
21.5982 2.396
21.6285 2.604
21.6588 2.187
21.6890 2.969
21.7193 2.240
21.7496 2.292
21.7799 2.812
21.8102 2.292
21.8404 2.135
21.8707 2.396
21.9010 2.396
21.9313 1.615
21.9616 2.187
21.9918 2.135
22.0221 2.448
22.0524 2.240
22.0827 2.240
22.1129 2.292
22.1432 2.344
22.1735 2.448
22.2038 2.500
22.2341 2.656
22.2643 1.875
22.2946 2.448
22.3249 2.656
22.3552 2.500
22.3855 1.823
22.4157 2.240
22.4460 2.865
22.4763 2.396
22.5066 2.396
22.5368 2.031
22.5671 2.344
22.5974 2.604
22.6277 2.083
22.6580 2.135
22.6882 2.292
22.7185 2.292
22.7488 1.927
22.7791 1.667
22.8094 2.135
22.8396 2.656
22.8699 2.240
22.9002 2.240
22.9305 1.979
22.9607 2.708
22.9910 2.396
23.0213 1.979
23.0516 1.562
23.0819 1.823
23.1121 1.875
23.1424 1.667
23.1727 1.927
23.2030 2.969
23.2333 2.031
23.2635 2.031
23.2938 2.396
23.3241 2.344
23.3544 2.448
23.3846 2.135
23.4149 2.500
23.4452 2.135
23.4755 1.771
23.5058 2.187
23.5360 2.292
23.5663 2.396
23.5966 1.979
23.6269 1.875
23.6572 2.396
23.6874 2.292
23.7177 2.135
23.7480 2.865
23.7783 1.667
23.8086 2.135
23.8388 2.135
23.8691 1.719
23.8994 2.604
23.9297 1.771
23.9599 2.656
23.9902 2.396
24.0205 2.031
24.0508 2.448
24.0811 2.396
24.1113 1.667
24.1416 2.448
24.1719 2.083
24.2022 2.292
24.2325 2.292
24.2627 2.448
24.2930 2.240
24.3233 1.979
24.3536 1.979
24.3838 2.187
24.4141 1.823
24.4444 2.083
24.4747 1.875
24.5050 2.031
24.5352 2.396
24.5655 2.187
24.5958 1.979
24.6261 1.927
24.6564 1.823
24.6866 2.604
24.7169 2.135
24.7472 2.031
24.7775 2.135
24.8077 2.396
24.8380 2.292
24.8683 2.135
24.8986 1.875
24.9289 2.396
24.9591 1.875
24.9894 2.604
25.0197 2.500
25.0500 1.719
25.0803 1.354
25.1105 1.979
25.1408 1.823
25.1711 2.135
25.2014 2.396
25.2316 3.177
25.2619 1.875
25.2922 2.031
25.3225 2.552
25.3528 2.760
25.3830 3.281
25.4133 1.927
25.4436 1.719
25.4739 1.979
25.5042 2.708
25.5344 2.031
25.5647 2.135
25.5950 2.240
25.6253 1.927
25.6555 2.292
25.6858 2.083
25.7161 2.187
25.7464 1.979
25.7767 2.708
25.8069 2.292
25.8372 2.448
25.8675 2.448
25.8978 2.552
25.9281 1.667
25.9583 2.656
25.9886 2.240
26.0189 1.927
26.0492 1.615
26.0794 1.927
26.1097 1.979
26.1400 2.135
26.1703 2.344
26.2006 2.240
26.2308 2.396
26.2611 2.656
26.2914 2.500
26.3217 1.927
26.3520 1.771
26.3822 2.396
26.4125 2.344
26.4428 1.979
26.4731 1.875
26.5034 2.083
26.5336 2.187
26.5639 2.187
26.5942 2.760
26.6245 2.656
26.6547 2.344
26.6850 2.500
26.7153 2.917
26.7456 2.396
26.7759 2.656
26.8061 2.812
26.8364 2.656
26.8667 2.448
26.8970 1.875
26.9273 1.979
26.9575 2.135
26.9878 1.667
27.0181 2.604
27.0484 2.552
27.0786 2.552
27.1089 3.333
27.1392 2.760
27.1695 2.292
27.1998 3.437
27.2300 2.448
27.2603 2.760
27.2906 2.083
27.3209 2.812
27.3512 1.979
27.3814 2.865
27.4117 2.135
27.4420 2.396
27.4723 2.396
27.5025 2.083
27.5328 2.604
27.5631 2.708
27.5934 2.135
27.6237 2.708
27.6539 2.760
27.6842 2.187
27.7145 2.396
27.7448 2.917
27.7751 2.292
27.8053 2.604
27.8356 3.333
27.8659 2.865
27.8962 3.177
27.9264 2.552
27.9567 2.604
27.9870 2.083
28.0173 3.229
28.0476 2.500
28.0778 2.187
28.1081 2.552
28.1384 2.344
28.1687 2.656
28.1990 2.917
28.2292 2.552
28.2595 3.073
28.2898 2.552
28.3201 2.604
28.3503 2.969
28.3806 2.604
28.4109 3.542
28.4412 2.656
28.4715 2.187
28.5017 2.344
28.5320 2.604
28.5623 2.917
28.5926 3.073
28.6229 2.760
28.6531 2.865
28.6834 2.448
28.7137 4.219
28.7440 3.437
28.7742 2.865
28.8045 2.552
28.8348 2.917
28.8651 2.448
28.8954 2.240
28.9256 2.552
28.9559 2.552
28.9862 2.969
29.0165 2.396
29.0468 2.812
29.0770 2.396
29.1073 2.552
29.1376 3.385
29.1679 2.552
29.1981 2.708
29.2284 2.500
29.2587 2.344
29.2890 2.500
29.3193 3.073
29.3495 1.979
29.3798 3.177
29.4101 3.698
29.4404 3.437
29.4707 3.437
29.5009 3.073
29.5312 2.865
29.5615 4.062
29.5918 3.385
29.6221 3.385
29.6523 1.875
29.6826 3.177
29.7129 3.490
29.7432 3.125
29.7734 3.750
29.8037 2.865
29.8340 3.281
29.8643 3.281
29.8946 3.542
29.9248 2.656
29.9551 2.604
29.9854 3.542
30.0157 3.542
30.0460 4.271
30.0762 2.708
30.1065 3.385
30.1368 3.958
30.1671 3.802
30.1973 4.271
30.2276 3.802
30.2579 3.594
30.2882 4.635
30.3185 4.323
30.3487 3.750
30.3790 5.000
30.4093 3.854
30.4396 3.854
30.4699 3.906
30.5001 3.750
30.5304 4.375
30.5607 4.062
30.5910 4.635
30.6212 5.312
30.6515 5.833
30.6818 5.677
30.7121 5.260
30.7424 5.417
30.7726 4.479
30.8029 5.937
30.8332 6.354
30.8635 5.208
30.8938 5.990
30.9240 6.250
30.9543 8.073
30.9846 6.562
31.0149 7.135
31.0451 7.083
31.0754 9.010
31.1057 9.010
31.1360 9.010
31.1663 9.687
31.1965 11.615
31.2268 11.354
31.2571 15.312
31.2874 15.729
31.3177 14.740
31.3479 17.969
31.3782 20.052
31.4085 21.823
31.4388 24.792
31.4690 27.187
31.4993 26.719
31.5296 32.240
31.5599 35.365
31.5902 37.240
31.6204 38.646
31.6507 36.302
31.6810 36.927
31.7113 36.875
31.7416 32.292
31.7718 29.479
31.8021 27.292
31.8324 23.333
31.8627 21.615
31.8929 18.177
31.9232 17.812
31.9535 13.750
31.9838 13.229
32.0141 13.125
32.0443 10.156
32.0746 9.479
32.1049 9.687
32.1352 8.594
32.1655 8.073
32.1957 8.333
32.2260 7.240
32.2563 7.083
32.2866 7.292
32.3169 7.604
32.3471 6.510
32.3774 6.354
32.4077 6.406
32.4380 4.896
32.4682 5.833
32.4985 5.104
32.5288 5.885
32.5591 4.375
32.5894 4.844
32.6196 4.219
32.6499 4.271
32.6802 4.531
32.7105 4.479
32.7408 5.781
32.7710 4.427
32.8013 4.635
32.8316 4.531
32.8619 4.479
32.8921 4.948
32.9224 5.312
32.9527 3.594
32.9830 4.062
33.0133 4.427
33.0435 4.740
33.0738 5.260
33.1041 3.698
33.1344 4.583
33.1647 4.792
33.1949 3.437
33.2252 4.687
33.2555 3.906
33.2858 4.635
33.3160 3.958
33.3463 3.906
33.3766 5.052
33.4069 5.677
33.4372 4.844
33.4674 5.052
33.4977 4.583
33.5280 5.156
33.5583 4.740
33.5886 5.365
33.6188 5.990
33.6491 5.990
33.6794 6.302
33.7097 5.677
33.7399 5.573
33.7702 6.042
33.8005 5.729
33.8308 6.302
33.8611 6.875
33.8913 7.969
33.9216 6.875
33.9519 10.104
33.9822 10.208
34.0125 10.885
34.0427 12.812
34.0730 13.437
34.1033 15.990
34.1336 18.333
34.1638 21.562
34.1941 27.604
34.2244 34.271
34.2547 41.354
34.2850 42.031
34.3152 40.625
34.3455 38.542
34.3758 34.115
34.4061 28.698
34.4364 23.958
34.4666 20.729
34.4969 17.292
34.5272 13.437
34.5575 12.865
34.5877 10.781
34.6180 11.094
34.6483 10.469
34.6786 8.490
34.7089 8.385
34.7391 7.656
34.7694 7.396
34.7997 6.823
34.8300 7.344
34.8603 7.969
34.8905 5.469
34.9208 6.302
34.9511 6.198
34.9814 6.250
35.0116 7.187
35.0419 6.198
35.0722 7.292
35.1025 6.042
35.1328 6.094
35.1630 6.354
35.1933 6.146
35.2236 5.677
35.2539 6.771
35.2842 8.021
35.3144 6.510
35.3447 7.812
35.3750 7.240
35.4053 7.969
35.4356 9.427
35.4658 8.125
35.4961 9.375
35.5264 10.833
35.5567 9.635
35.5869 11.250
35.6172 11.250
35.6475 11.927
35.6778 14.948
35.7081 14.219
35.7383 16.823
35.7686 17.292
35.7989 19.896
35.8292 20.312
35.8595 25.156
35.8897 25.677
35.9200 29.583
35.9503 33.333
35.9806 40.677
36.0108 40.677
36.0411 43.281
36.0714 47.187
36.1017 48.958
36.1320 51.250
36.1622 52.187
36.1925 46.875
36.2228 48.177
36.2531 41.979
36.2834 36.615
36.3136 34.062
36.3439 30.312
36.3742 28.177
36.4045 23.802
36.4347 22.917
36.4650 18.229
36.4953 18.073
36.5256 14.531
36.5559 13.281
36.5861 12.760
36.6164 10.417
36.6467 10.521
36.6770 11.042
36.7073 8.958
36.7375 7.448
36.7678 8.229
36.7981 7.500
36.8284 7.187
36.8586 6.615
36.8889 6.927
36.9192 7.187
36.9495 5.729
36.9798 5.469
37.0100 6.146
37.0403 5.833
37.0706 5.885
37.1009 4.427
37.1312 4.531
37.1614 3.906
37.1917 4.531
37.2220 4.010
37.2523 4.740
37.2825 3.958
37.3128 4.010
37.3431 4.062
37.3734 4.635
37.4037 3.646
37.4339 4.062
37.4642 4.115
37.4945 3.750
37.5248 3.125
37.5551 4.479
37.5853 3.021
37.6156 3.750
37.6459 3.333
37.6762 3.542
37.7064 3.333
37.7367 2.656
37.7670 3.125
37.7973 2.969
37.8276 2.708
37.8578 2.708
37.8881 3.437
37.9184 3.490
37.9487 2.292
37.9790 2.656
38.0092 2.917
38.0395 3.437
38.0698 3.281
38.1001 2.865
38.1304 2.760
38.1606 2.969
38.1909 3.125
38.2212 2.969
38.2515 2.552
38.2817 2.604
38.3120 2.604
38.3423 2.604
38.3726 2.344
38.4029 2.344
38.4331 2.500
38.4634 2.708
38.4937 1.979
38.5240 1.979
38.5543 2.865
38.5845 2.760
38.6148 2.604
38.6451 2.135
38.6754 1.979
38.7056 2.187
38.7359 2.083
38.7662 2.656
38.7965 2.448
38.8268 2.031
38.8570 2.187
38.8873 2.448
38.9176 2.187
38.9479 1.979
38.9782 2.187
39.0084 1.667
39.0387 2.083
39.0690 1.979
39.0993 1.875
39.1295 2.396
39.1598 1.875
39.1901 1.927
39.2204 2.240
39.2507 1.510
39.2809 2.292
39.3112 2.292
39.3415 1.615
39.3718 1.823
39.4021 2.292
39.4323 2.135
39.4626 2.292
39.4929 1.667
39.5232 2.031
39.5534 1.458
39.5837 1.771
39.6140 2.240
39.6443 1.771
39.6746 1.979
39.7048 2.344
39.7351 1.458
39.7654 1.771
39.7957 1.979
39.8260 2.031
39.8562 1.927
39.8865 1.927
39.9168 2.031
39.9471 2.031
39.9773 2.135
40.0076 2.500
40.0379 2.031
40.0682 1.719
40.0985 1.875
40.1287 1.198
40.1590 1.354
40.1893 1.562
40.2196 1.823
40.2499 2.083
40.2801 2.552
40.3104 2.083
40.3407 1.719
40.3710 1.406
40.4012 1.875
40.4315 1.562
40.4618 1.562
40.4921 1.615
40.5224 1.979
40.5526 1.875
40.5829 1.875
40.6132 1.823
40.6435 1.615
40.6738 1.354
40.7040 1.979
40.7343 1.979
40.7646 1.927
40.7949 1.979
40.8251 1.406
40.8554 1.458
40.8857 2.083
40.9160 1.406
40.9463 1.927
40.9765 1.771
41.0068 1.250
41.0371 1.458
41.0674 1.562
41.0977 1.875
41.1279 1.615
41.1582 1.823
41.1885 1.250
41.2188 1.406
41.2491 2.083
41.2793 2.031
41.3096 1.771
41.3399 1.146
41.3702 1.250
41.4004 1.719
41.4307 1.823
41.4610 1.979
41.4913 1.510
41.5216 1.615
41.5518 1.927
41.5821 1.406
41.6124 1.458
41.6427 1.875
41.6730 0.833
41.7032 1.667
41.7335 1.771
41.7638 1.615
41.7941 1.510
41.8243 1.458
41.8546 1.875
41.8849 2.031
41.9152 2.083
41.9455 1.510
41.9757 1.354
42.0060 1.927
42.0363 1.771
42.0666 1.458
42.0969 1.667
42.1271 1.823
42.1574 1.094
42.1877 1.615
42.2180 1.927
42.2482 1.406
42.2785 1.406
42.3088 1.198
42.3391 1.510
42.3694 1.823
42.3996 1.562
42.4299 1.458
42.4602 1.458
42.4905 1.823
42.5208 1.562
42.5510 1.510
42.5813 1.198
42.6116 1.094
42.6419 2.083
42.6721 1.406
42.7024 1.667
42.7327 1.198
42.7630 1.302
42.7933 1.615
42.8235 1.823
42.8538 1.615
42.8841 1.458
42.9144 1.771
42.9447 1.719
42.9749 1.615
43.0052 1.510
43.0355 1.823
43.0658 1.823
43.0960 1.406
43.1263 2.292
43.1566 1.146
43.1869 1.406
43.2172 1.875
43.2474 1.823
43.2777 1.354
43.3080 1.458
43.3383 1.562
43.3686 1.562
43.3988 1.250
43.4291 1.302
43.4594 1.615
43.4897 1.406
43.5199 1.927
43.5502 1.562
43.5805 1.198
43.6108 1.198
43.6411 1.406
43.6713 1.615
43.7016 1.771
43.7319 1.615
43.7622 1.510
43.7925 1.510
43.8227 1.927
43.8530 1.250
43.8833 1.406
43.9136 1.458
43.9439 1.615
43.9741 1.198
44.0044 1.562
44.0347 2.135
44.0650 1.354
44.0952 1.458
44.1255 1.198
44.1558 1.823
44.1861 1.406
44.2164 1.250
44.2466 1.458
44.2769 1.771
44.3072 1.823
44.3375 2.344
44.3678 1.458
44.3980 1.823
44.4283 1.510
44.4586 1.719
44.4889 1.615
44.5191 1.615
44.5494 1.094
44.5797 1.771
44.6100 1.719
44.6403 1.719
44.6705 1.719
44.7008 1.354
44.7311 1.198
44.7614 1.406
44.7917 1.875
44.8219 1.719
44.8522 1.510
44.8825 1.615
44.9128 1.719
44.9430 1.875
44.9733 1.667
45.0036 1.510
45.0339 1.510
45.0642 1.615
45.0944 1.823
45.1247 1.719
45.1550 1.875
45.1853 1.927
45.2156 1.302
45.2458 1.979
45.2761 1.458
45.3064 1.875
45.3367 1.823
45.3669 1.510
45.3972 2.031
45.4275 2.344
45.4578 1.823
45.4881 1.667
45.5183 2.135
45.5486 1.406
45.5789 2.292
45.6092 1.667
45.6395 1.615
45.6697 1.979
45.7000 1.406
45.7303 1.146
45.7606 2.292
45.7908 2.500
45.8211 1.927
45.8514 1.875
45.8817 1.406
45.9120 1.927
45.9422 2.240
45.9725 1.927
46.0028 1.615
46.0331 1.927
46.0634 2.240
46.0936 1.875
46.1239 1.719
46.1542 1.979
46.1845 2.135
46.2147 2.604
46.2450 1.823
46.2753 2.135
46.3056 1.562
46.3359 2.500
46.3661 1.667
46.3964 2.500
46.4267 1.615
46.4570 2.240
46.4873 1.771
46.5175 2.396
46.5478 2.083
46.5781 2.917
46.6084 2.344
46.6386 2.917
46.6689 2.552
46.6992 2.500
46.7295 2.812
46.7598 2.812
46.7900 2.396
46.8203 3.542
46.8506 3.698
46.8809 2.656
46.9112 3.385
46.9414 4.115
46.9717 4.115
47.0020 4.375
47.0323 3.229
47.0626 5.052
47.0928 4.687
47.1231 5.833
47.1534 5.885
47.1837 6.458
47.2139 6.198
47.2442 7.552
47.2745 8.594
47.3048 8.594
47.3351 9.010
47.3653 9.844
47.3956 10.729
47.4259 10.833
47.4562 9.792
47.4865 10.573
47.5167 10.417
47.5470 9.844
47.5773 9.479
47.6076 7.344
47.6378 6.302
47.6681 6.354
47.6984 6.198
47.7287 5.469
47.7590 3.958
47.7892 4.531
47.8195 4.531
47.8498 4.635
47.8801 3.646
47.9104 3.802
47.9406 2.708
47.9709 2.865
48.0012 3.177
48.0315 2.500
48.0617 3.073
48.0920 2.187
48.1223 2.812
48.1526 2.344
48.1829 2.448
48.2131 2.865
48.2434 2.292
48.2737 1.823
48.3040 2.187
48.3343 2.292
48.3645 1.927
48.3948 1.562
48.4251 2.396
48.4554 1.406
48.4856 1.927
48.5159 1.979
48.5462 2.135
48.5765 2.344
48.6068 2.031
48.6370 2.031
48.6673 1.354
48.6976 1.458
48.7279 2.240
48.7582 1.302
48.7884 2.656
48.8187 1.510
48.8490 1.510
48.8793 1.719
48.9095 2.240
48.9398 1.667
48.9701 2.240
49.0004 1.354
49.0307 1.562
49.0609 2.396
49.0912 1.302
49.1215 2.031
49.1518 1.094
49.1821 1.927
49.2123 1.094
49.2426 1.927
49.2729 1.562
49.3032 2.135
49.3334 1.927
49.3637 2.031
49.3940 1.771
49.4243 1.510
49.4546 1.406
49.4848 1.354
49.5151 1.615
49.5454 1.615
49.5757 1.562
49.6060 1.354
49.6362 1.458
49.6665 2.135
49.6968 1.302
49.7271 1.615
49.7574 1.198
49.7876 1.562
49.8179 1.562
49.8482 1.875
49.8785 1.719
49.9087 2.448
49.9390 1.250
49.9693 1.146
49.9996 1.823
50.0299 1.823
50.0601 1.042
50.0904 1.302
50.1207 1.562
50.1510 1.354
50.1813 2.187
50.2115 2.031
50.2418 1.771
50.2721 1.719
50.3024 1.615
50.3326 1.458
50.3629 1.667
50.3932 1.615
50.4235 1.146
50.4538 1.510
50.4840 1.927
50.5143 1.562
50.5446 1.615
50.5749 1.875
50.6052 1.406
50.6354 1.510
50.6657 1.719
50.6960 1.615
50.7263 1.875
50.7565 1.719
50.7868 1.562
50.8171 1.979
50.8474 1.823
50.8777 1.510
50.9079 1.875
50.9382 1.198
50.9685 2.031
50.9988 1.979
51.0291 1.042
51.0593 1.354
51.0896 1.562
51.1199 1.458
51.1502 2.135
51.1804 1.198
51.2107 1.562
51.2410 1.562
51.2713 1.302
51.3016 1.354
51.3318 1.406
51.3621 1.927
51.3924 1.198
51.4227 2.031
51.4530 1.510
51.4832 1.302
51.5135 1.406
51.5438 1.510
51.5741 1.771
51.6043 1.823
51.6346 1.667
51.6649 2.083
51.6952 1.875
51.7255 1.615
51.7557 1.354
51.7860 1.250
51.8163 1.979
51.8466 1.719
51.8769 1.354
51.9071 1.875
51.9374 1.875
51.9677 1.719
51.9980 1.458
52.0282 1.562
52.0585 1.562
52.0888 1.146
52.1191 1.823
52.1494 1.354
52.1796 1.927
52.2099 1.510
52.2402 1.354
52.2705 1.823
52.3008 1.510
52.3310 1.458
52.3613 1.198
52.3916 1.458
52.4219 1.562
52.4521 1.875
52.4824 2.031
52.5127 1.146
52.5430 1.250
52.5733 1.719
52.6035 1.562
52.6338 1.667
52.6641 1.875
52.6944 1.354
52.7247 1.458
52.7549 1.354
52.7852 1.406
52.8155 1.875
52.8458 1.562
52.8761 1.302
52.9063 1.354
52.9366 1.615
52.9669 1.458
52.9972 1.771
53.0274 1.198
53.0577 1.615
53.0880 1.927
53.1183 1.562
53.1486 1.510
53.1788 2.292
53.2091 1.823
53.2394 1.406
53.2697 1.406
53.3000 1.667
53.3302 2.187
53.3605 0.937
53.3908 1.302
53.4211 1.458
53.4513 2.240
53.4816 1.771
53.5119 1.719
53.5422 1.771
53.5725 1.823
53.6027 1.354
53.6330 1.458
53.6633 2.240
53.6936 1.823
53.7239 2.083
53.7541 1.302
53.7844 1.823
53.8147 1.927
53.8450 1.667
53.8752 1.927
53.9055 1.927
53.9358 1.667
53.9661 1.667
53.9964 1.667
54.0266 2.187
54.0569 1.875
54.0872 1.562
54.1175 1.823
54.1478 1.771
54.1780 2.135
54.2083 1.667
54.2386 1.823
54.2689 1.771
54.2991 1.615
54.3294 1.354
54.3597 1.250
54.3900 1.406
54.4203 1.719
54.4505 1.875
54.4808 1.719
54.5111 2.135
54.5414 2.292
54.5717 1.771
54.6019 1.719
54.6322 2.031
54.6625 1.771
54.6928 1.510
54.7230 1.979
54.7533 1.667
54.7836 1.771
54.8139 1.510
54.8442 1.927
54.8744 2.292
54.9047 1.250
54.9350 1.719
54.9653 1.094
54.9956 1.875
55.0258 2.083
55.0561 2.292
55.0864 1.875
55.1167 1.771
55.1469 2.344
55.1772 1.979
55.2075 2.187
55.2378 2.344
55.2681 2.292
55.2983 2.344
55.3286 1.823
55.3589 1.823
55.3892 2.083
55.4195 2.083
55.4497 2.760
55.4800 2.031
55.5103 2.240
55.5406 2.292
55.5709 2.344
55.6011 2.812
55.6314 2.292
55.6617 3.073
55.6920 4.167
55.7222 3.021
55.7525 3.073
55.7828 3.958
55.8131 3.333
55.8434 3.281
55.8736 3.906
55.9039 3.073
55.9342 4.062
55.9645 4.740
55.9948 3.750
56.0250 5.052
56.0553 5.104
56.0856 4.583
56.1159 5.937
56.1461 6.146
56.1764 7.812
56.2067 7.240
56.2370 7.812
56.2673 9.115
56.2975 9.375
56.3278 9.167
56.3581 11.719
56.3884 12.865
56.4187 12.812
56.4489 12.812
56.4792 13.385
56.5095 13.229
56.5398 11.719
56.5700 10.990
56.6003 11.562
56.6306 10.469
56.6609 8.854
56.6912 10.417
56.7214 6.875
56.7517 5.677
56.7820 6.094
56.8123 6.510
56.8426 5.208
56.8728 5.573
56.9031 4.740
56.9334 4.844
56.9637 4.427
56.9939 4.583
57.0242 4.062
57.0545 3.594
57.0848 3.125
57.1151 3.333
57.1453 3.385
57.1756 3.125
57.2059 3.594
57.2362 2.448
57.2665 2.969
57.2967 2.917
57.3270 1.979
57.3573 2.396
57.3876 2.292
57.4178 2.917
57.4481 2.135
57.4784 2.292
57.5087 2.031
57.5390 1.771
57.5692 2.344
57.5995 2.135
57.6298 1.875
57.6601 1.927
57.6904 2.656
57.7206 1.510
57.7509 1.771
57.7812 1.927
57.8115 2.604
57.8417 2.083
57.8720 2.031
57.9023 2.292
57.9326 1.667
57.9629 1.875
57.9931 1.719
58.0234 1.562
58.0537 1.250
58.0840 1.354
58.1143 1.615
58.1445 1.823
58.1748 1.562
58.2051 2.083
58.2354 1.406
58.2656 1.510
58.2959 1.927
58.3262 1.771
58.3565 2.187
58.3868 1.354
58.4170 1.406
58.4473 1.771
58.4776 1.719
58.5079 1.667
58.5382 1.458
58.5684 1.927
58.5987 1.875
58.6290 1.615
58.6593 1.458
58.6896 1.667
58.7198 1.875
58.7501 1.302
58.7804 1.615
58.8107 2.135
58.8409 1.562
58.8712 1.198
58.9015 1.667
58.9318 1.667
58.9621 1.719
58.9923 1.979
59.0226 1.667
59.0529 1.562
59.0832 2.031
59.1135 2.083
59.1437 1.615
59.1740 1.354
59.2043 2.031
59.2346 1.354
59.2648 1.562
59.2951 1.354
59.3254 1.562
59.3557 1.146
59.3860 1.562
59.4162 1.615
59.4465 1.615
59.4768 1.250
59.5071 1.354
59.5374 1.771
59.5676 1.719
59.5979 1.667
59.6282 1.823
59.6585 1.562
59.6887 1.719
59.7190 1.250
59.7493 1.146
59.7796 1.562
59.8099 1.562
59.8401 2.031
59.8704 1.615
59.9007 1.458
59.9310 2.135
59.9613 2.135
59.9915 1.667
60.0218 1.615
60.0521 1.771
60.0824 1.302
60.1126 1.406
60.1429 1.302
60.1732 1.198
60.2035 1.198
60.2338 1.510
60.2640 1.979
60.2943 1.406
60.3246 1.510
60.3549 1.510
60.3852 1.510
60.4154 1.510
60.4457 1.146
60.4760 1.510
60.5063 1.719
60.5365 1.667
60.5668 2.500
60.5971 1.562
60.6274 1.510
60.6577 1.719
60.6879 1.667
60.7182 1.927
60.7485 2.500
60.7788 1.458
60.8091 2.344
60.8393 1.354
60.8696 2.396
60.8999 1.927
60.9302 2.396
60.9604 2.135
60.9907 1.458
61.0210 1.615
61.0513 1.823
61.0816 1.458
61.1118 1.979
61.1421 1.875
61.1724 2.031
61.2027 1.458
61.2330 1.719
61.2632 2.083
61.2935 1.615
61.3238 1.979
61.3541 1.146
61.3844 1.615
61.4146 2.031
61.4449 2.240
61.4752 2.083
61.5055 1.562
61.5357 1.771
61.5660 1.615
61.5963 1.667
61.6266 1.927
61.6569 1.771
61.6871 2.083
61.7174 1.979
61.7477 2.448
61.7780 1.771
61.8083 2.552
61.8385 2.187
61.8688 1.771
61.8991 1.875
61.9294 2.240
61.9596 2.604
61.9899 2.552
62.0202 2.292
62.0505 2.917
62.0808 2.656
62.1110 3.125
62.1413 2.500
62.1716 2.812
62.2019 3.646
62.2322 3.906
62.2624 4.323
62.2927 4.479
62.3230 3.958
62.3533 5.104
62.3835 5.677
62.4138 4.583
62.4441 5.469
62.4744 6.198
62.5047 6.771
62.5349 6.979
62.5652 8.125
62.5955 8.958
62.6258 9.323
62.6561 9.948
62.6863 10.260
62.7166 9.948
62.7469 12.708
62.7772 10.156
62.8074 9.635
62.8377 10.260
62.8680 9.948
62.8983 9.323
62.9286 9.375
62.9588 9.010
62.9891 7.656
63.0194 6.927
63.0497 6.354
63.0800 5.937
63.1102 5.052
63.1405 5.052
63.1708 4.792
63.2011 4.219
63.2313 3.646
63.2616 3.698
63.2919 4.010
63.3222 3.021
63.3525 3.177
63.3827 2.969
63.4130 3.125
63.4433 2.656
63.4736 2.396
63.5039 2.396
63.5341 1.823
63.5644 2.656
63.5947 2.187
63.6250 2.760
63.6552 2.500
63.6855 2.135
63.7158 1.979
63.7461 1.458
63.7764 2.083
63.8066 1.719
63.8369 1.927
63.8672 1.562
63.8975 1.719
63.9278 1.927
63.9580 2.344
63.9883 1.406
64.0186 1.406
64.0489 1.823
64.0791 2.135
64.1094 1.510
64.1397 1.875
64.1700 2.083
64.2003 1.771
64.2305 1.875
64.2608 2.083
64.2911 2.396
64.3214 1.667
64.3517 1.823
64.3819 1.510
64.4122 2.292
64.4425 1.354
64.4728 1.927
64.5031 1.875
64.5333 1.615
64.5636 1.615
64.5939 1.615
64.6242 1.667
64.6544 1.771
64.6847 1.458
64.7150 1.771
64.7453 1.875
64.7756 1.927
64.8058 1.823
64.8361 1.719
64.8664 1.771
64.8967 1.823
64.9270 1.302
64.9572 1.667
64.9875 1.823
65.0178 1.615
65.0481 1.510
65.0783 1.510
65.1086 1.771
65.1389 1.927
65.1692 1.771
65.1995 1.510
65.2297 1.458
65.2600 1.823
65.2903 1.667
65.3206 1.562
65.3509 1.562
65.3811 1.875
65.4114 1.510
65.4417 1.979
65.4720 1.510
65.5022 1.562
65.5325 2.292
65.5628 1.667
65.5931 1.667
65.6234 2.135
65.6536 2.031
65.6839 2.083
65.7142 1.667
65.7445 1.979
65.7748 2.135
65.8050 2.500
65.8353 2.083
65.8656 2.448
65.8959 2.396
65.9261 2.135
65.9564 2.240
65.9867 2.083
66.0170 2.865
66.0473 2.656
66.0775 2.969
66.1078 3.698
66.1381 2.708
66.1684 3.281
66.1987 2.760
66.2289 2.760
66.2592 2.812
66.2895 2.344
66.3198 2.865
66.3500 2.552
66.3803 3.333
66.4106 2.969
66.4409 2.292
66.4712 3.437
66.5014 2.344
66.5317 2.500
66.5620 2.604
66.5923 2.760
66.6226 2.396
66.6528 1.875
66.6831 2.656
66.7134 1.771
66.7437 3.073
66.7739 2.396
66.8042 2.396
66.8345 2.500
66.8648 2.240
66.8951 2.708
66.9253 2.031
66.9556 2.500
66.9859 2.708
67.0162 2.552
67.0465 2.708
67.0767 2.812
67.1070 2.656
67.1373 3.021
67.1676 3.125
67.1978 2.292
67.2281 2.917
67.2584 3.437
67.2887 3.021
67.3190 3.229
67.3492 4.167
67.3795 4.062
67.4098 3.333
67.4401 4.479
67.4704 4.479
67.5006 3.646
67.5309 4.844
67.5612 5.208
67.5915 6.042
67.6218 6.771
67.6520 6.250
67.6823 7.292
67.7126 8.906
67.7429 7.083
67.7731 7.187
67.8034 7.552
67.8337 7.604
67.8640 8.646
67.8943 8.021
67.9245 7.708
67.9548 8.542
67.9851 6.719
68.0154 7.396
68.0457 6.510
68.0759 6.406
68.1062 5.052
68.1365 6.042
68.1668 5.677
68.1970 4.740
68.2273 4.740
68.2576 4.948
68.2879 3.646
68.3182 3.750
68.3484 4.427
68.3787 3.958
68.4090 3.906
68.4393 4.948
68.4696 3.594
68.4998 2.708
68.5301 3.437
68.5604 3.385
68.5907 3.594
68.6209 4.167
68.6512 3.385
68.6815 3.385
68.7118 3.021
68.7421 4.583
68.7723 4.062
68.8026 4.844
68.8329 4.271
68.8632 4.427
68.8935 4.844
68.9237 4.271
68.9540 4.323
68.9843 4.948
69.0146 4.896
69.0448 3.802
69.0751 4.375
69.1054 3.437
69.1357 5.208
69.1660 2.604
69.1962 3.542
69.2265 3.177
69.2568 3.854
69.2871 3.229
69.3174 3.229
69.3476 2.396
69.3779 2.812
69.4082 3.229
69.4385 2.344
69.4687 2.552
69.4990 2.240
69.5293 2.187
69.5596 2.292
69.5899 2.187
69.6201 1.771
69.6504 1.771
69.6807 1.458
69.7110 1.719
69.7413 1.875
69.7715 1.406
69.8018 1.615
69.8321 1.875
69.8624 1.979
69.8926 1.719
69.9229 1.510
69.9532 1.667
69.9835 1.615
70.0138 1.510
70.0440 1.719
70.0743 1.771
70.1046 1.250
70.1349 1.510
70.1652 1.406
70.1954 1.406
70.2257 1.042
70.2560 1.458
70.2863 1.250
70.3166 1.250
70.3468 1.667
70.3771 1.094
70.4074 1.094
70.4377 1.250
70.4679 1.302
70.4982 1.719
70.5285 1.250
70.5588 1.250
70.5891 1.458
70.6193 1.510
70.6496 1.250
70.6799 0.677
70.7102 1.146
70.7405 1.042
70.7707 0.729
70.8010 0.833
70.8313 0.833
70.8616 0.833
70.8918 1.146
70.9221 1.250
70.9524 0.729
70.9827 1.458
71.0130 1.250
71.0432 1.510
71.0735 0.990
71.1038 1.146
71.1341 1.562
71.1644 1.562
71.1946 1.667
71.2249 1.094
71.2552 0.729
71.2855 1.250
71.3157 1.615
71.3460 1.406
71.3763 1.094
71.4066 1.406
71.4369 1.250
71.4671 1.719
71.4974 0.937
71.5277 1.615
71.5580 1.458
71.5883 0.885
71.6185 0.729
71.6488 1.667
71.6791 1.406
71.7094 1.146
71.7396 1.094
71.7699 0.937
71.8002 1.354
71.8305 1.250
71.8608 1.146
71.8910 1.302
71.9213 1.302
71.9516 1.510
71.9819 0.990
72.0122 1.302
72.0424 1.198
72.0727 1.458
72.1030 1.458
72.1333 0.990
72.1635 1.510
72.1938 1.615
72.2241 1.458
72.2544 1.302
72.2847 1.458
72.3149 1.458
72.3452 1.667
72.3755 2.031
72.4058 1.250
72.4361 1.250
72.4663 1.875
72.4966 1.979
72.5269 1.250
72.5572 1.406
72.5874 1.823
72.6177 1.198
72.6480 1.458
72.6783 1.354
72.7086 1.719
72.7388 1.250
72.7691 1.562
72.7994 1.406
72.8297 0.937
72.8600 1.198
72.8902 1.250
72.9205 1.250
72.9508 1.198
72.9811 1.562
73.0113 1.354
73.0416 1.302
73.0719 1.250
73.1022 1.042
73.1325 0.937
73.1627 1.667
73.1930 1.042
73.2233 1.354
73.2536 1.302
73.2839 0.677
73.3141 1.250
73.3444 1.198
73.3747 1.250
73.4050 1.146
73.4353 1.094
73.4655 0.833
73.4958 0.937
73.5261 1.042
73.5564 0.937
73.5866 1.042
73.6169 1.094
73.6472 1.250
73.6775 1.250
73.7078 1.042
73.7380 1.406
73.7683 0.990
73.7986 1.250
73.8289 0.833
73.8592 1.354
73.8894 1.198
73.9197 1.198
73.9500 0.885
73.9803 1.354
74.0105 1.094
74.0408 0.729
74.0711 0.833
74.1014 1.042
74.1317 1.406
74.1619 1.302
74.1922 1.042
74.2225 0.990
74.2528 1.094
74.2831 0.729
74.3133 1.302
74.3436 1.250
74.3739 1.667
74.4042 0.781
74.4344 1.458
74.4647 1.042
74.4950 0.833
74.5253 1.042
74.5556 1.250
74.5858 1.302
74.6161 1.094
74.6464 0.885
74.6767 1.250
74.7070 0.729
74.7372 1.250
74.7675 1.198
74.7978 1.406
74.8281 0.990
74.8583 0.937
74.8886 1.510
74.9189 0.833
74.9492 1.250
74.9795 1.198
75.0097 0.937
75.0400 1.146
75.0703 0.885
75.1006 1.042
75.1309 1.302
75.1611 1.198
75.1914 1.302
75.2217 1.510
75.2520 1.094
75.2822 1.250
75.3125 1.146
75.3428 0.937
75.3731 0.781
75.4034 0.885
75.4336 1.146
75.4639 1.510
75.4942 1.562
75.5245 0.573
75.5548 1.302
75.5850 0.885
75.6153 0.990
75.6456 1.198
75.6759 1.042
75.7061 0.781
75.7364 1.354
75.7667 1.198
75.7970 1.198
75.8273 1.302
75.8575 1.406
75.8878 0.833
75.9181 1.042
75.9484 0.990
75.9787 0.833
76.0089 1.198
76.0392 1.198
76.0695 1.458
76.0998 1.146
76.1301 1.146
76.1603 1.302
76.1906 1.406
76.2209 1.198
76.2512 0.937
76.2814 1.094
76.3117 1.094
76.3420 1.667
76.3723 1.354
76.4026 1.094
76.4328 1.198
76.4631 1.198
76.4934 1.562
76.5237 1.406
76.5540 1.198
76.5842 1.562
76.6145 1.510
76.6448 1.510
76.6751 1.406
76.7053 1.771
76.7356 1.302
76.7659 1.250
76.7962 1.615
76.8265 1.979
76.8567 1.667
76.8870 1.667
76.9173 2.292
76.9476 1.875
76.9779 1.667
77.0081 1.406
77.0384 1.719
77.0687 1.354
77.0990 1.198
77.1292 1.667
77.1595 1.771
77.1898 1.979
77.2201 1.667
77.2504 1.250
77.2806 1.719
77.3109 1.406
77.3412 1.198
77.3715 1.042
77.4018 1.667
77.4320 1.094
77.4623 1.562
77.4926 1.198
77.5229 1.042
77.5531 1.510
77.5834 0.937
77.6137 1.198
77.6440 1.146
77.6743 0.885
77.7045 1.354
77.7348 1.458
77.7651 1.042
77.7954 1.198
77.8257 0.781
77.8559 1.042
77.8862 1.042
77.9165 0.990
77.9468 1.406
77.9770 1.146
78.0073 1.250
78.0376 0.990
78.0679 0.625
78.0982 1.094
78.1284 1.198
78.1587 1.094
78.1890 1.562
78.2193 0.885
78.2496 1.198
78.2798 1.302
78.3101 0.677
78.3404 1.354
78.3707 1.042
78.4009 1.042
78.4312 0.937
78.4615 0.885
78.4918 0.937
78.5221 1.094
78.5523 0.833
78.5826 1.094
78.6129 0.521
78.6432 1.094
78.6735 0.833
78.7037 1.354
78.7340 0.885
78.7643 1.458
78.7946 1.354
78.8248 0.729
78.8551 1.146
78.8854 1.198
78.9157 0.885
78.9460 0.833
78.9762 0.937
79.0065 0.625
79.0368 1.042
79.0671 1.250
79.0974 0.885
79.1276 1.510
79.1579 0.729
79.1882 1.198
79.2185 0.990
79.2488 1.198
79.2790 0.885
79.3093 0.885
79.3396 0.781
79.3699 1.146
79.4001 1.094
79.4304 0.937
79.4607 0.781
79.4910 1.250
79.5213 1.302
79.5515 1.094
79.5818 0.677
79.6121 0.833
79.6424 0.625
79.6727 1.250
79.7029 0.469
79.7332 0.885
79.7635 0.677
79.7938 1.250
79.8240 1.198
79.8543 0.990
79.8846 0.833
79.9149 0.781
79.9452 1.146
79.9754 0.729
80.0057 1.354
80.0360 1.146
80.0663 1.146
80.0966 1.042
80.1268 1.562
80.1571 0.573
80.1874 1.198
80.2177 1.250
80.2479 1.302
80.2782 0.677
80.3085 1.042
80.3388 0.833
80.3691 1.250
80.3993 1.198
80.4296 0.990
80.4599 0.677
80.4902 0.677
80.5205 1.406
80.5507 0.781
80.5810 1.198
80.6113 1.198
80.6416 1.250
80.6718 0.677
80.7021 0.990
80.7324 1.250
80.7627 0.990
80.7930 1.094
80.8232 0.885
80.8535 1.250
80.8838 1.667
80.9141 1.042
80.9444 0.937
80.9746 0.885
81.0049 1.406
81.0352 1.042
81.0655 1.562
81.0957 1.250
81.1260 1.146
81.1563 1.146
81.1866 1.719
81.2169 1.406
81.2471 1.667
81.2774 1.615
81.3077 1.198
81.3380 1.250
81.3683 1.042
81.3985 1.771
81.4288 1.510
81.4591 1.146
81.4894 1.406
81.5196 1.510
81.5499 1.198
81.5802 1.198
81.6105 0.677
81.6408 1.354
81.6710 1.823
81.7013 0.885
81.7316 1.302
81.7619 0.937
81.7922 1.198
81.8224 0.885
81.8527 0.990
81.8830 1.198
81.9133 0.990
81.9436 1.510
81.9738 1.146
82.0041 1.198
82.0344 1.250
82.0647 1.042
82.0949 1.146
82.1252 0.885
82.1555 1.354
82.1858 0.937
82.2161 1.250
82.2463 1.198
82.2766 0.937
82.3069 1.198
82.3372 1.042
82.3675 0.781
82.3977 0.885
82.4280 0.937
82.4583 1.198
82.4886 1.094
82.5188 1.198
82.5491 0.573
82.5794 0.833
82.6097 1.042
82.6400 1.042
82.6702 1.198
82.7005 1.250
82.7308 1.302
82.7611 0.990
82.7914 0.625
82.8216 1.146
82.8519 0.990
82.8822 1.094
82.9125 0.729
82.9427 1.042
82.9730 1.302
83.0033 0.729
83.0336 1.094
83.0639 1.094
83.0941 1.042
83.1244 0.781
83.1547 0.729
83.1850 0.729
83.2153 0.990
83.2455 1.250
83.2758 1.042
83.3061 0.729
83.3364 1.354
83.3666 1.667
83.3969 0.729
83.4272 1.250
83.4575 1.094
83.4878 0.937
83.5180 0.885
83.5483 0.990
83.5786 0.833
83.6089 1.198
83.6392 1.042
83.6694 0.885
83.6997 0.990
83.7300 1.198
83.7603 0.729
83.7905 0.885
83.8208 1.198
83.8511 0.729
83.8814 1.198
83.9117 1.302
83.9419 0.729
83.9722 1.146
84.0025 1.198
84.0328 0.833
84.0631 0.937
84.0933 1.198
84.1236 0.885
84.1539 0.885
84.1842 0.729
84.2144 0.990
84.2447 1.198
84.2750 1.198
84.3053 0.833
84.3356 0.990
84.3658 1.042
84.3961 1.250
84.4264 0.729
84.4567 0.937
84.4870 1.094
84.5172 1.458
84.5475 1.406
84.5778 0.937
84.6081 1.198
84.6383 0.729
84.6686 1.094
84.6989 0.833
84.7292 0.833
84.7595 1.198
84.7897 0.833
84.8200 1.198
84.8503 1.042
84.8806 1.302
84.9109 0.885
84.9411 0.781
84.9714 1.146
85.0017 1.042
85.0320 1.302
85.0623 0.729
85.0925 0.833
85.1228 1.094
85.1531 1.042
85.1834 0.833
85.2136 1.354
85.2439 0.781
85.2742 0.521
85.3045 1.302
85.3348 0.990
85.3650 0.885
85.3953 0.885
85.4256 0.937
85.4559 1.094
85.4862 1.198
85.5164 0.990
85.5467 0.990
85.5770 0.729
85.6073 1.146
85.6375 0.937
85.6678 1.198
85.6981 0.990
85.7284 1.198
85.7587 1.250
85.7889 0.833
85.8192 1.302
85.8495 0.990
85.8798 0.833
85.9101 1.094
85.9403 0.937
85.9706 1.198
86.0009 1.250
86.0312 0.885
86.0614 0.990
86.0917 1.302
86.1220 0.990
86.1523 0.990
86.1826 1.198
86.2128 1.042
86.2431 1.198
86.2734 1.094
86.3037 1.198
86.3340 0.937
86.3642 0.729
86.3945 1.042
86.4248 1.094
86.4551 0.833
86.4853 0.885
86.5156 0.833
86.5459 1.510
86.5762 1.198
86.6065 1.198
86.6367 1.458
86.6670 1.198
86.6973 1.198
86.7276 1.302
86.7579 0.833
86.7881 0.990
86.8184 1.198
86.8487 0.729
86.8790 1.250
86.9092 1.198
86.9395 0.937
86.9698 1.302
87.0001 0.833
87.0304 0.729
87.0606 0.833
87.0909 0.990
87.1212 0.833
87.1515 0.990
87.1818 1.042
87.2120 1.406
87.2423 0.885
87.2726 1.198
87.3029 0.885
87.3331 1.146
87.3634 1.094
87.3937 0.885
87.4240 0.781
87.4543 0.937
87.4845 0.990
87.5148 1.250
87.5451 0.729
87.5754 0.990
87.6057 1.250
87.6359 0.990
87.6662 1.042
87.6965 0.885
87.7268 1.250
87.7571 1.198
87.7873 1.094
87.8176 1.094
87.8479 0.937
87.8782 1.042
87.9084 1.094
87.9387 1.146
87.9690 1.302
87.9993 1.302
88.0296 1.354
88.0598 1.094
88.0901 1.146
88.1204 1.198
88.1507 0.781
88.1810 0.781
88.2112 1.406
88.2415 1.302
88.2718 0.833
88.3021 0.990
88.3323 1.562
88.3626 1.250
88.3929 0.885
88.4232 0.937
88.4535 0.781
88.4837 0.729
88.5140 1.510
88.5443 1.042
88.5746 0.990
88.6049 1.667
88.6351 0.833
88.6654 0.833
88.6957 1.615
88.7260 1.094
88.7562 1.198
88.7865 1.042
88.8168 1.406
88.8471 1.458
88.8774 1.042
88.9076 1.198
88.9379 1.302
88.9682 2.031
88.9985 1.510
89.0288 1.250
89.0590 1.354
89.0893 1.198
89.1196 1.562
89.1499 1.823
89.1801 1.927
89.2104 2.656
89.2407 1.823
89.2710 2.292
89.3013 1.667
89.3315 1.979
89.3618 2.135
89.3921 1.823
89.4224 1.771
89.4527 2.344
89.4829 1.510
89.5132 2.240
89.5435 2.865
89.5738 1.875
89.6040 2.604
89.6343 2.552
89.6646 2.396
89.6949 2.187
89.7252 2.552
89.7554 2.812
89.7857 2.656
89.8160 2.031
89.8463 2.135
89.8766 1.927
89.9068 1.875
89.9371 1.979
89.9674 1.406
89.9977 1.719
90.0279 1.354
90.0582 1.615
90.0885 1.302
90.1188 1.615
90.1491 1.458
90.1793 1.510
90.2096 1.615
90.2399 2.083
90.2702 1.302
90.3005 1.458
90.3307 1.406
90.3610 1.198
90.3913 1.302
90.4216 1.510
90.4518 0.990
90.4821 1.094
90.5124 1.198
90.5427 1.198
90.5730 1.198
90.6032 0.937
90.6335 1.146
90.6638 1.302
90.6941 0.990
90.7244 1.354
90.7546 0.833
90.7849 1.458
90.8152 0.937
90.8455 1.510
90.8758 1.302
90.9060 1.406
90.9363 1.094
90.9666 1.406
90.9969 0.833
91.0271 1.146
91.0574 1.562
91.0877 1.094
91.1180 1.198
91.1483 0.729
91.1785 0.833
91.2088 1.042
91.2391 0.625
91.2694 0.781
91.2997 1.198
91.3299 0.990
91.3602 0.781
91.3905 1.094
91.4208 1.354
91.4510 1.042
91.4813 0.885
91.5116 1.354
91.5419 1.094
91.5722 1.042
91.6024 1.510
91.6327 1.302
91.6630 0.937
91.6933 0.990
91.7236 1.562
91.7538 1.302
91.7841 1.094
91.8144 1.146
91.8447 1.354
91.8749 1.094
91.9052 1.146
91.9355 0.990
91.9658 1.094
91.9961 0.833
92.0263 1.198
92.0566 1.406
92.0869 1.250
92.1172 1.146
92.1475 0.833
92.1777 1.354
92.2080 0.990
92.2383 1.562
92.2686 1.458
92.2988 1.354
92.3291 1.823
92.3594 1.146
92.3897 1.198
92.4200 1.458
92.4502 1.510
92.4805 1.771
92.5108 1.198
92.5411 1.510
92.5714 1.198
92.6016 1.406
92.6319 1.667
92.6622 1.562
92.6925 1.615
92.7227 1.667
92.7530 1.615
92.7833 1.771
92.8136 1.406
92.8439 1.927
92.8741 1.354
92.9044 1.406
92.9347 1.146
92.9650 1.562
92.9953 1.510
93.0255 1.562
93.0558 1.094
93.0861 1.250
93.1164 1.302
93.1466 1.510
93.1769 1.562
93.2072 0.990
93.2375 1.719
93.2678 1.354
93.2980 1.458
93.3283 1.094
93.3586 1.198
93.3889 0.990
93.4192 0.781
93.4494 0.937
93.4797 1.302
93.5100 1.198
93.5403 1.146
93.5706 1.562
93.6008 0.885
93.6311 1.406
93.6614 1.302
93.6917 1.354
93.7219 0.990
93.7522 0.885
93.7825 0.937
93.8128 0.990
93.8431 1.406
93.8733 1.094
93.9036 1.406
93.9339 0.885
93.9642 1.198
93.9945 1.094
94.0247 1.510
94.0550 0.833
94.0853 1.250
94.1156 1.250
94.1458 1.302
94.1761 1.198
94.2064 1.458
94.2367 1.146
94.2670 1.250
94.2972 1.042
94.3275 1.250
94.3578 1.823
94.3881 1.458
94.4184 1.354
94.4486 1.198
94.4789 0.729
94.5092 2.031
94.5395 1.510
94.5697 1.250
94.6000 1.406
94.6303 1.198
94.6606 1.458
94.6909 1.615
94.7211 0.885
94.7514 1.823
94.7817 2.083
94.8120 1.771
94.8423 1.250
94.8725 1.771
94.9028 2.448
94.9331 1.510
94.9634 1.615
94.9936 2.240
95.0239 1.302
95.0542 2.135
95.0845 2.240
95.1148 2.344
95.1450 2.187
95.1753 2.031
95.2056 2.500
95.2359 2.083
95.2662 2.708
95.2964 1.719
95.3267 1.927
95.3570 2.135
95.3873 1.562
95.4175 1.771
95.4478 1.823
95.4781 1.979
95.5084 2.240
95.5387 2.292
95.5689 1.823
95.5992 2.083
95.6295 1.823
95.6598 1.667
95.6901 1.771
95.7203 1.562
95.7506 1.667
95.7809 0.937
95.8112 1.875
95.8414 1.562
95.8717 1.094
95.9020 1.562
95.9323 1.979
95.9626 1.667
95.9928 1.615
96.0231 1.198
96.0534 1.458
96.0837 1.719
96.1140 1.094
96.1442 1.510
96.1745 1.250
96.2048 1.250
96.2351 1.198
96.2653 1.250
96.2956 1.042
96.3259 1.719
96.3562 0.729
96.3865 0.885
96.4167 0.781
96.4470 1.094
96.4773 1.250
96.5076 1.094
96.5379 1.094
96.5681 0.885
96.5984 1.042
96.6287 1.406
96.6590 1.250
96.6893 1.302
96.7195 1.562
96.7498 1.146
96.7801 1.094
96.8104 1.458
96.8406 0.937
96.8709 1.354
96.9012 0.990
96.9315 1.615
96.9618 1.094
96.9920 0.990
97.0223 0.937
97.0526 1.198
97.0829 1.406
97.1132 0.937
97.1434 1.302
97.1737 1.198
97.2040 0.417
97.2343 0.937
97.2645 0.937
97.2948 1.458
97.3251 1.146
97.3554 0.781
97.3857 1.146
97.4159 0.885
97.4462 1.771
97.4765 1.406
97.5068 0.677
97.5371 0.729
97.5673 1.198
97.5976 1.354
97.6279 0.781
97.6582 0.937
97.6884 1.250
97.7187 1.250
97.7490 1.302
97.7793 1.927
97.8096 1.615
97.8398 0.937
97.8701 1.354
97.9004 1.042
97.9307 1.250
97.9610 0.833
97.9912 1.562
98.0215 1.354
98.0518 1.510
98.0821 1.354
98.1123 1.458
98.1426 1.510
98.1729 1.562
98.2032 1.250
98.2335 1.562
98.2637 1.510
98.2940 1.458
98.3243 1.510
98.3546 1.771
98.3849 1.667
98.4151 1.771
98.4454 1.510
98.4757 1.823
98.5060 1.562
98.5362 2.031
98.5665 1.875
98.5968 1.771
98.6271 1.719
98.6574 2.292
98.6876 1.458
98.7179 1.823
98.7482 1.875
98.7785 1.562
98.8088 1.302
98.8390 1.823
98.8693 1.719
98.8996 1.302
98.9299 1.823
98.9601 1.198
98.9904 1.927
99.0207 1.094
99.0510 1.406
99.0813 1.823
99.1115 1.510
99.1418 1.354
99.1721 1.042
99.2024 1.510
99.2327 1.042
99.2629 1.198
99.2932 1.823
99.3235 1.198
99.3538 1.302
99.3841 1.198
99.4143 1.615
99.4446 1.302
99.4749 0.781
99.5052 1.302
99.5354 0.937
99.5657 1.198
99.5960 1.250
99.6263 1.667
99.6566 0.990
99.6868 1.042
99.7171 0.990
99.7474 0.781
99.7777 1.302
99.8080 1.198
99.8382 1.250
99.8685 1.354
99.8988 1.302
99.9291 1.302
99.9593 1.094
99.9896 0.990
100.0199 1.042
100.0502 1.302
100.0805 0.677
100.1107 1.146
100.1410 1.250
100.1713 1.354
100.2016 1.302
100.2319 1.094
100.2621 1.094
100.2924 1.458
100.3227 1.354
100.3530 1.094
100.3832 0.885
100.4135 0.937
100.4438 1.406
100.4741 0.781
100.5044 1.198
100.5346 0.990
100.5649 0.781
100.5952 0.781
100.6255 0.937
100.6558 1.198
100.6860 1.302
100.7163 1.094
100.7466 1.354
100.7769 0.833
100.8071 1.302
100.8374 1.302
100.8677 0.781
100.8980 1.094
100.9283 1.042
100.9585 1.302
100.9888 1.354
101.0191 0.990
101.0494 0.937
101.0797 1.042
101.1099 1.042
101.1402 1.250
101.1705 1.094
101.2008 1.719
101.2310 0.990
101.2613 0.937
101.2916 1.406
101.3219 1.094
101.3522 0.625
101.3824 1.250
101.4127 1.094
101.4430 1.250
101.4733 0.833
101.5036 1.146
101.5338 1.458
101.5641 1.510
101.5944 1.094
101.6247 1.250
101.6549 1.510
101.6852 0.990
101.7155 1.250
101.7458 0.990
101.7761 1.146
101.8063 1.302
101.8366 1.250
101.8669 1.302
101.8972 1.042
101.9275 1.198
101.9577 1.250
101.9880 1.146
102.0183 1.094
102.0486 1.562
102.0788 1.302
102.1091 1.146
102.1394 1.458
102.1697 1.146
102.2000 1.354
102.2302 1.198
102.2605 0.885
102.2908 1.615
102.3211 1.198
102.3514 1.250
102.3816 1.146
102.4119 1.094
102.4422 1.146
102.4725 1.354
102.5028 1.667
102.5330 1.562
102.5633 0.885
102.5936 0.990
102.6239 2.083
102.6541 1.354
102.6844 1.146
102.7147 2.344
102.7450 0.833
102.7753 1.354
102.8055 1.354
102.8358 1.354
102.8661 1.615
102.8964 1.823
102.9267 1.927
102.9569 1.458
102.9872 1.719
103.0175 1.510
103.0478 1.562
103.0780 1.354
103.1083 1.458
103.1386 1.510
103.1689 0.885
103.1992 1.198
103.2294 1.562
103.2597 1.146
103.2900 1.562
103.3203 1.406
103.3506 1.354
103.3808 1.250
103.4111 1.302
103.4414 1.354
103.4717 1.354
103.5019 1.615
103.5322 1.198
103.5625 1.354
103.5928 1.823
103.6231 1.354
103.6533 1.458
103.6836 1.771
103.7139 1.615
103.7442 2.292
103.7745 1.562
103.8047 1.302
103.8350 1.719
103.8653 1.771
103.8956 2.240
103.9258 1.927
103.9561 1.823
103.9864 1.719
104.0167 1.927
104.0470 1.406
104.0772 2.448
104.1075 2.292
104.1378 1.823
104.1681 1.927
104.1984 2.187
104.2286 1.667
104.2589 2.083
104.2892 2.031
104.3195 1.250
104.3497 2.031
104.3800 1.354
104.4103 1.667
104.4406 1.823
104.4709 1.615
104.5011 1.979
104.5314 1.823
104.5617 1.771
104.5920 1.458
104.6223 1.667
104.6525 1.562
104.6828 1.354
104.7131 1.615
104.7434 1.146
104.7736 1.510
104.8039 1.042
104.8342 1.562
104.8645 1.562
104.8948 1.510
104.9250 1.406
104.9553 1.719
104.9856 1.146
105.0159 1.250
105.0462 1.354
105.0764 1.250
105.1067 1.146
105.1370 1.667
105.1673 0.990
105.1975 0.990
105.2278 0.573
105.2581 1.406
105.2884 1.354
105.3187 1.406
105.3489 0.729
105.3792 1.042
105.4095 1.198
105.4398 1.198
105.4701 1.302
105.5003 1.146
105.5306 1.406
105.5609 0.781
105.5912 1.302
105.6215 1.198
105.6517 1.406
105.6820 1.146
105.7123 0.833
105.7426 0.781
105.7728 1.198
105.8031 0.833
105.8334 1.302
105.8637 0.885
105.8940 0.990
105.9242 1.354
105.9545 0.781
105.9848 1.146
106.0151 1.250
106.0454 0.937
106.0756 1.354
106.1059 1.562
106.1362 1.302
106.1665 1.250
106.1967 1.250
106.2270 1.146
106.2573 1.302
106.2876 1.250
106.3179 1.510
106.3481 0.885
106.3784 1.094
106.4087 1.094
106.4390 1.302
106.4693 0.990
106.4995 1.302
106.5298 1.094
106.5601 1.042
106.5904 1.250
106.6206 1.198
106.6509 0.573
106.6812 1.094
106.7115 1.094
106.7418 1.198
106.7720 1.094
106.8023 1.250
106.8326 1.198
106.8629 1.250
106.8932 1.354
106.9234 0.885
106.9537 1.406
106.9840 1.146
107.0143 0.937
107.0445 1.250
107.0748 1.302
107.1051 1.094
107.1354 1.354
107.1657 1.042
107.1959 1.250
107.2262 1.302
107.2565 0.937
107.2868 1.510
107.3171 0.990
107.3473 1.198
107.3776 1.250
107.4079 1.250
107.4382 1.458
107.4684 0.781
107.4987 1.146
107.5290 1.198
107.5593 0.729
107.5896 1.302
107.6198 0.833
107.6501 1.302
107.6804 1.458
107.7107 0.885
107.7410 0.833
107.7712 0.937
107.8015 0.885
107.8318 1.406
107.8621 1.458
107.8923 1.042
107.9226 0.990
107.9529 1.198
107.9832 1.406
108.0135 0.833
108.0437 1.354
108.0740 1.094
108.1043 1.302
108.1346 0.937
108.1649 1.198
108.1951 1.198
108.2254 1.198
108.2557 0.990
108.2860 0.990
108.3163 1.094
108.3465 0.885
108.3768 0.885
108.4071 0.885
108.4374 0.937
108.4676 1.250
108.4979 0.625
108.5282 1.354
108.5585 0.990
108.5888 1.198
108.6190 1.042
108.6493 1.094
108.6796 1.042
108.7099 0.937
108.7402 0.937
108.7704 0.729
108.8007 1.042
108.8310 1.042
108.8613 0.729
108.8915 0.937
108.9218 1.510
108.9521 0.833
108.9824 2.083
109.0127 1.094
109.0429 1.094
109.0732 1.094
109.1035 0.833
109.1338 0.781
109.1641 0.729
109.1943 1.302
109.2246 1.302
109.2549 0.990
109.2852 0.990
109.3154 1.042
109.3457 1.458
109.3760 1.458
109.4063 1.094
109.4366 0.937
109.4668 1.042
109.4971 0.990
109.5274 1.094
109.5577 1.458
109.5880 1.198
109.6182 1.458
109.6485 1.406
109.6788 1.198
109.7091 1.250
109.7393 1.406
109.7696 1.875
109.7999 1.302
109.8302 1.354
109.8605 1.615
109.8907 0.885
109.9210 1.302
109.9513 1.250
109.9816 1.510
110.0119 1.302
110.0421 1.562
110.0724 1.771
110.1027 1.510
110.1330 1.198
110.1632 1.250
110.1935 0.937
110.2238 1.562
110.2541 1.198
110.2844 1.354
110.3146 1.771
110.3449 1.615
110.3752 1.510
110.4055 1.562
110.4358 1.302
110.4660 1.510
110.4963 1.250
110.5266 1.250
110.5569 1.875
110.5871 1.510
110.6174 1.823
110.6477 1.510
110.6780 1.250
110.7083 1.406
110.7385 1.250
110.7688 1.615
110.7991 1.198
110.8294 1.406
110.8597 1.250
110.8899 1.771
110.9202 1.510
110.9505 1.458
110.9808 1.875
111.0110 0.990
111.0413 1.615
111.0716 0.990
111.1019 1.042
111.1322 0.833
111.1624 1.146
111.1927 0.885
111.2230 1.146
111.2533 1.667
111.2836 0.990
111.3138 0.781
111.3441 0.990
111.3744 0.937
111.4047 0.885
111.4350 1.250
111.4652 0.990
111.4955 1.510
111.5258 1.406
111.5561 1.250
111.5863 1.250
111.6166 1.302
111.6469 0.781
111.6772 0.990
111.7075 0.677
111.7377 1.146
111.7680 0.885
111.7983 0.625
111.8286 1.042
111.8589 1.146
111.8891 0.990
111.9194 0.781
111.9497 1.094
111.9800 1.406
112.0102 1.458
112.0405 1.458
112.0708 1.198
112.1011 1.042
112.1314 1.198
112.1616 1.094
112.1919 1.094
112.2222 0.781
112.2525 0.833
112.2828 1.042
112.3130 1.354
112.3433 0.990
112.3736 1.250
112.4039 0.885
112.4341 1.562
112.4644 0.833
112.4947 1.042
112.5250 1.354
112.5553 0.990
112.5855 1.042
112.6158 1.042
112.6461 1.250
112.6764 0.885
112.7067 1.094
112.7369 0.885
112.7672 1.354
112.7975 1.042
112.8278 1.562
112.8580 1.042
112.8883 1.250
112.9186 1.042
112.9489 0.677
112.9792 0.833
113.0094 1.042
113.0397 1.146
113.0700 0.937
113.1003 1.302
113.1306 0.937
113.1608 0.781
113.1911 0.885
113.2214 1.406
113.2517 0.781
113.2819 1.094
113.3122 1.562
113.3425 1.354
113.3728 1.250
113.4031 0.885
113.4333 1.146
113.4636 1.042
113.4939 1.510
113.5242 1.510
113.5545 1.302
113.5847 0.781
113.6150 0.937
113.6453 0.781
113.6756 0.781
113.7058 1.146
113.7361 1.042
113.7664 0.573
113.7967 0.677
113.8270 1.250
113.8572 1.146
113.8875 1.198
113.9178 1.094
113.9481 0.885
113.9784 1.042
114.0086 1.562
114.0389 1.094
114.0692 1.354
114.0995 1.094
114.1298 1.094
114.1600 1.042
114.1903 0.990
114.2206 1.250
114.2509 0.990
114.2811 0.990
114.3114 0.833
114.3417 1.354
114.3720 1.094
114.4023 0.885
114.4325 1.458
114.4628 1.094
114.4931 1.615
114.5234 1.146
114.5537 0.937
114.5839 1.042
114.6142 1.094
114.6445 1.615
114.6748 1.302
114.7050 1.146
114.7353 1.094
114.7656 1.094
114.7959 1.250
114.8262 0.937
114.8564 1.146
114.8867 1.458
114.9170 1.198
114.9473 1.198
114.9776 1.354
115.0078 1.354
115.0381 1.458
115.0684 1.667
115.0987 0.833
115.1289 1.458
115.1592 1.354
115.1895 1.510
115.2198 1.562
115.2501 1.146
115.2803 1.510
115.3106 1.615
115.3409 1.250
115.3712 1.458
115.4015 1.354
115.4317 1.406
115.4620 1.510
115.4923 1.250
115.5226 1.823
115.5528 1.458
115.5831 1.354
115.6134 1.875
115.6437 1.667
115.6740 0.990
115.7042 1.406
115.7345 1.615
115.7648 1.458
115.7951 1.875
115.8254 1.667
115.8556 1.823
115.8859 1.354
115.9162 2.083
115.9465 1.771
115.9767 1.927
116.0070 1.771
116.0373 2.552
116.0676 1.771
116.0979 2.552
116.1281 2.031
116.1584 2.187
116.1887 2.135
116.2190 2.292
116.2493 1.927
116.2795 2.865
116.3098 1.667
116.3401 2.344
116.3704 2.083
116.4006 2.031
116.4309 1.562
116.4612 2.240
116.4915 1.875
116.5218 2.396
116.5520 1.771
116.5823 1.979
116.6126 1.927
116.6429 1.927
116.6732 1.823
116.7034 1.771
116.7337 1.979
116.7640 1.562
116.7943 1.510
116.8245 1.562
116.8548 1.771
116.8851 1.406
116.9154 2.083
116.9457 1.927
116.9759 1.302
117.0062 1.667
117.0365 1.406
117.0668 1.771
117.0971 1.875
117.1273 1.510
117.1576 1.458
117.1879 1.667
117.2182 1.562
117.2485 1.615
117.2787 1.094
117.3090 1.562
117.3393 0.885
117.3696 1.406
117.3998 1.667
117.4301 1.094
117.4604 1.510
117.4907 1.198
117.5210 1.250
117.5512 1.198
117.5815 1.406
117.6118 1.250
117.6421 1.250
117.6724 1.146
117.7026 1.458
117.7329 1.250
117.7632 1.042
117.7935 1.042
117.8237 0.833
117.8540 1.146
117.8843 0.937
117.9146 1.406
117.9449 1.250
117.9751 1.458
118.0054 0.729
118.0357 1.562
118.0660 0.990
118.0963 1.875
118.1265 1.250
118.1568 1.042
118.1871 0.990
118.2174 0.729
118.2476 1.406
118.2779 1.146
118.3082 1.615
118.3385 1.510
118.3688 0.729
118.3990 1.146
118.4293 1.354
118.4596 1.302
118.4899 0.781
118.5202 0.990
118.5504 1.198
118.5807 1.146
118.6110 1.042
118.6413 1.458
118.6715 0.729
118.7018 1.302
118.7321 1.562
118.7624 1.406
118.7927 0.625
118.8229 1.354
118.8532 0.990
118.8835 1.094
118.9138 0.885
118.9441 0.937
118.9743 1.042
119.0046 1.094
119.0349 1.094
119.0652 0.781
119.0954 1.406
119.1257 0.990
119.1560 1.042
119.1863 1.250
119.2166 1.198
119.2468 1.458
119.2771 1.510
119.3074 1.302
119.3377 0.729
119.3680 1.510
119.3982 1.562
119.4285 1.302
119.4588 1.042
119.4891 0.885
119.5193 1.354
119.5496 1.042
119.5799 0.781
119.6102 0.937
119.6405 1.198
119.6707 1.094
119.7010 0.990
119.7313 1.146
119.7616 1.042
119.7919 1.510
119.8221 1.406
119.8524 1.354
119.8827 1.354
119.9130 1.250
119.9433 1.146
119.9735 1.146
120.0038 1.354
