'Id: "" Comment: "" Operator: "Lab Manager" Anode: "Cu" Scantype: "Locked Coupled" TimePerStep: "19.2" X: "9999" Y: "9999" Z: "9999" 
10.0015 3.646
10.0318 4.062
10.0620 3.854
10.0923 3.229
10.1226 4.062
10.1529 4.583
10.1832 3.385
10.2134 3.854
10.2437 3.281
10.2740 3.229
10.3043 3.906
10.3346 3.646
10.3648 2.760
10.3951 3.802
10.4254 3.854
10.4557 2.865
10.4859 3.854
10.5162 3.646
10.5465 2.500
10.5768 3.333
10.6071 4.375
10.6373 2.969
10.6676 3.281
10.6979 2.708
10.7282 3.333
10.7585 3.229
10.7887 3.958
10.8190 3.021
10.8493 4.115
10.8796 3.437
10.9098 3.281
10.9401 4.010
10.9704 3.333
11.0007 3.542
11.0310 3.177
11.0612 2.760
11.0915 3.906
11.1218 3.333
11.1521 3.802
11.1824 3.802
11.2126 3.854
11.2429 3.906
11.2732 4.062
11.3035 3.906
11.3337 3.125
11.3640 3.646
11.3943 2.812
11.4246 2.500
11.4549 3.490
11.4851 3.542
11.5154 2.969
11.5457 3.177
11.5760 3.281
11.6063 2.760
11.6365 2.865
11.6668 3.490
11.6971 3.490
11.7274 3.594
11.7577 2.969
11.7879 3.229
11.8182 3.073
11.8485 2.812
11.8788 2.917
11.9090 2.656
11.9393 2.656
11.9696 2.865
11.9999 2.865
12.0302 2.917
12.0604 3.021
12.0907 2.969
12.1210 3.125
12.1513 3.698
12.1816 2.708
12.2118 2.708
12.2421 3.490
12.2724 2.656
12.3027 3.542
12.3329 2.448
12.3632 3.229
12.3935 2.708
12.4238 3.125
12.4541 3.021
12.4843 2.500
12.5146 3.229
12.5449 2.396
12.5752 3.437
12.6055 2.656
12.6357 2.760
12.6660 3.281
12.6963 2.500
12.7266 4.010
12.7568 2.969
12.7871 2.760
12.8174 2.240
12.8477 1.719
12.8780 2.969
12.9082 2.552
12.9385 2.865
12.9688 2.760
12.9991 2.344
13.0294 3.125
13.0596 2.344
13.0899 2.552
13.1202 3.958
13.1505 1.719
13.1807 3.073
13.2110 2.344
13.2413 2.760
13.2716 2.917
13.3019 2.656
13.3321 2.812
13.3624 2.500
13.3927 2.448
13.4230 2.656
13.4533 3.281
13.4835 3.281
13.5138 2.760
13.5441 3.750
13.5744 2.240
13.6046 2.240
13.6349 2.187
13.6652 3.698
13.6955 2.865
13.7258 2.969
13.7560 2.083
13.7863 2.344
13.8166 2.656
13.8469 2.396
13.8772 2.812
13.9074 2.656
13.9377 2.604
13.9680 2.604
13.9983 2.187
14.0285 2.760
14.0588 2.396
14.0891 2.083
14.1194 2.760
14.1497 2.812
14.1799 2.396
14.2102 2.187
14.2405 2.500
14.2708 2.552
14.3011 2.812
14.3313 3.021
14.3616 3.177
14.3919 2.552
14.4222 2.187
14.4524 2.396
14.4827 2.500
14.5130 2.865
14.5433 2.187
14.5736 2.292
14.6038 2.604
14.6341 3.490
14.6644 3.229
14.6947 3.073
14.7250 2.812
14.7552 2.240
14.7855 3.125
14.8158 2.500
14.8461 2.552
14.8764 2.500
14.9066 1.719
14.9369 1.719
14.9672 2.292
14.9975 1.667
15.0277 2.552
15.0580 2.812
15.0883 1.823
15.1186 2.604
15.1489 2.187
15.1791 1.927
15.2094 2.292
15.2397 2.448
15.2700 2.240
15.3003 2.135
15.3305 2.604
15.3608 2.448
15.3911 1.875
15.4214 2.969
15.4516 2.240
15.4819 2.708
15.5122 2.031
15.5425 2.240
15.5728 2.760
15.6030 2.344
15.6333 1.927
15.6636 1.875
15.6939 2.969
15.7242 2.656
15.7544 2.552
15.7847 2.396
15.8150 2.604
15.8453 2.656
15.8755 2.292
15.9058 2.552
15.9361 3.229
15.9664 2.604
15.9967 2.344
16.0269 2.083
16.0572 3.073
16.0875 2.656
16.1178 2.604
16.1481 2.552
16.1783 2.396
16.2086 2.031
16.2389 1.979
16.2692 2.031
16.2994 2.448
16.3297 1.875
16.3600 2.448
16.3903 2.604
16.4206 2.240
16.4508 1.771
16.4811 2.031
16.5114 2.448
16.5417 2.083
16.5720 2.187
16.6022 2.031
16.6325 2.552
16.6628 2.812
16.6931 2.031
16.7233 2.240
16.7536 2.708
16.7839 2.135
16.8142 2.604
16.8445 3.229
16.8747 2.448
16.9050 2.969
16.9353 1.771
16.9656 2.292
16.9959 2.292
17.0261 2.292
17.0564 2.292
17.0867 2.708
17.1170 1.823
17.1472 2.552
17.1775 1.927
17.2078 3.125
17.2381 1.875
17.2684 2.292
17.2986 2.344
17.3289 2.292
17.3592 2.344
17.3895 2.656
17.4198 1.823
17.4500 1.615
17.4803 2.396
17.5106 1.927
17.5409 2.292
17.5712 3.542
17.6014 2.448
17.6317 2.292
17.6620 2.448
17.6923 2.344
17.7225 1.927
17.7528 2.812
17.7831 1.927
17.8134 2.187
17.8437 2.760
17.8739 1.823
17.9042 1.823
17.9345 2.240
17.9648 2.812
17.9951 2.031
18.0253 1.927
18.0556 1.771
18.0859 2.135
18.1162 1.771
18.1464 2.083
18.1767 1.927
18.2070 2.240
18.2373 2.031
18.2676 1.719
18.2978 2.292
18.3281 2.031
18.3584 2.448
18.3887 1.667
18.4190 2.812
18.4492 2.083
18.4795 1.875
18.5098 1.771
18.5401 1.667
18.5703 1.823
18.6006 2.917
18.6309 2.135
18.6612 2.500
18.6915 1.875
18.7217 3.021
18.7520 2.344
18.7823 2.187
18.8126 1.667
18.8429 2.083
18.8731 1.562
18.9034 1.875
18.9337 1.823
18.9640 2.292
18.9942 2.448
19.0245 1.771
19.0548 1.250
19.0851 1.458
19.1154 2.292
19.1456 2.812
19.1759 1.823
19.2062 2.812
19.2365 1.823
19.2668 1.562
19.2970 2.135
19.3273 2.135
19.3576 1.875
19.3879 1.927
19.4181 2.500
19.4484 2.396
19.4787 1.667
19.5090 1.927
19.5393 1.771
19.5695 2.552
19.5998 2.083
19.6301 1.979
19.6604 1.562
19.6907 2.240
19.7209 1.510
19.7512 1.927
19.7815 2.187
19.8118 1.875
19.8420 2.031
19.8723 2.656
19.9026 2.083
19.9329 1.719
19.9632 1.927
19.9934 2.865
20.0237 2.292
20.0540 2.344
20.0843 1.979
20.1146 2.292
20.1448 1.615
20.1751 1.667
20.2054 1.927
20.2357 2.031
20.2659 2.083
20.2962 2.292
20.3265 1.719
20.3568 1.823
20.3871 1.562
20.4173 1.198
20.4476 1.875
20.4779 2.187
20.5082 1.875
20.5385 1.615
20.5687 2.135
20.5990 1.302
20.6293 1.719
20.6596 1.927
20.6899 2.292
20.7201 1.823
20.7504 2.135
20.7807 2.292
20.8110 1.823
20.8412 1.719
20.8715 1.615
20.9018 2.135
20.9321 2.031
20.9624 2.135
20.9926 1.875
21.0229 1.667
21.0532 2.135
21.0835 2.500
21.1138 1.719
21.1440 2.187
21.1743 1.771
21.2046 2.135
21.2349 2.135
21.2651 2.031
21.2954 1.406
21.3257 1.875
21.3560 2.812
21.3863 1.771
21.4165 2.344
21.4468 2.396
21.4771 1.667
21.5074 1.719
21.5377 1.979
21.5679 2.240
21.5982 2.344
21.6285 1.875
21.6588 1.458
21.6890 1.615
21.7193 1.406
21.7496 1.979
21.7799 2.344
21.8102 1.458
21.8404 1.406
21.8707 1.667
21.9010 1.771
21.9313 1.615
21.9616 1.562
21.9918 1.979
22.0221 1.458
22.0524 1.510
22.0827 1.823
22.1129 1.250
22.1432 1.823
22.1735 2.187
22.2038 1.823
22.2341 1.771
22.2643 2.135
22.2946 1.562
22.3249 1.823
22.3552 1.562
22.3855 2.083
22.4157 1.615
22.4460 2.031
22.4763 1.562
22.5066 1.979
22.5368 1.250
22.5671 1.302
22.5974 1.667
22.6277 1.875
22.6580 1.562
22.6882 1.875
22.7185 2.448
22.7488 1.510
22.7791 2.448
22.8094 2.083
22.8396 2.448
22.8699 1.719
22.9002 2.240
22.9305 1.510
22.9607 1.719
22.9910 1.302
23.0213 2.187
23.0516 1.198
23.0819 2.083
23.1121 1.510
23.1424 2.031
23.1727 2.135
23.2030 1.562
23.2333 1.979
23.2635 2.292
23.2938 1.615
23.3241 1.458
23.3544 2.187
23.3846 1.823
23.4149 1.510
23.4452 2.083
23.4755 1.615
23.5058 1.510
23.5360 1.667
23.5663 1.823
23.5966 2.240
23.6269 0.833
23.6572 2.083
23.6874 1.979
23.7177 1.406
23.7480 2.187
23.7783 1.719
23.8086 1.719
23.8388 1.771
23.8691 2.031
23.8994 1.719
23.9297 1.406
23.9599 2.396
23.9902 1.302
24.0205 1.615
24.0508 1.771
24.0811 1.615
24.1113 1.771
24.1416 1.562
24.1719 1.927
24.2022 1.875
24.2325 1.562
24.2627 1.823
24.2930 1.927
24.3233 1.302
24.3536 2.292
24.3838 1.667
24.4141 2.292
24.4444 1.510
24.4747 1.354
24.5050 1.823
24.5352 2.083
24.5655 1.458
24.5958 1.823
24.6261 2.135
24.6564 1.875
24.6866 1.510
24.7169 1.875
24.7472 1.615
24.7775 1.875
24.8077 1.562
24.8380 1.458
24.8683 1.510
24.8986 2.135
24.9289 1.562
24.9591 1.771
24.9894 1.458
25.0197 1.354
25.0500 1.615
25.0803 1.875
25.1105 2.083
25.1408 2.031
25.1711 2.083
25.2014 1.823
25.2316 1.562
25.2619 2.135
25.2922 1.823
25.3225 1.510
25.3528 1.458
25.3830 1.875
25.4133 2.135
25.4436 2.031
25.4739 1.823
25.5042 1.823
25.5344 1.198
25.5647 1.354
25.5950 1.667
25.6253 2.031
25.6555 2.031
25.6858 1.823
25.7161 2.187
25.7464 1.562
25.7767 2.135
25.8069 1.458
25.8372 1.562
25.8675 2.135
25.8978 1.719
25.9281 1.667
25.9583 1.979
25.9886 1.771
26.0189 2.187
26.0492 1.927
26.0794 1.667
26.1097 1.406
26.1400 1.458
26.1703 1.771
26.2006 1.771
26.2308 1.302
26.2611 2.448
26.2914 1.510
26.3217 1.719
26.3520 1.927
26.3822 1.771
26.4125 1.146
26.4428 1.615
26.4731 1.667
26.5034 2.344
26.5336 1.771
26.5639 1.458
26.5942 2.240
26.6245 2.135
26.6547 1.875
26.6850 1.458
26.7153 1.667
26.7456 1.875
26.7759 1.719
26.8061 1.562
26.8364 2.135
26.8667 1.927
26.8970 2.187
26.9273 1.354
26.9575 1.875
26.9878 1.510
27.0181 2.344
27.0484 1.458
27.0786 1.667
27.1089 1.927
27.1392 1.875
27.1695 1.927
27.1998 2.031
27.2300 2.031
27.2603 1.667
27.2906 1.875
27.3209 1.979
27.3512 1.979
27.3814 1.719
27.4117 1.667
27.4420 1.719
27.4723 2.240
27.5025 1.510
27.5328 1.719
27.5631 1.615
27.5934 1.615
27.6237 2.083
27.6539 1.510
27.6842 2.500
27.7145 2.708
27.7448 1.823
27.7751 2.240
27.8053 1.875
27.8356 2.604
27.8659 1.927
27.8962 1.927
27.9264 1.719
27.9567 1.875
27.9870 1.927
28.0173 1.927
28.0476 2.396
28.0778 2.500
28.1081 1.927
28.1384 1.927
28.1687 1.927
28.1990 2.031
28.2292 2.604
28.2595 2.344
28.2898 1.927
28.3201 1.562
28.3503 2.083
28.3806 1.875
28.4109 1.927
28.4412 1.771
28.4715 2.031
28.5017 2.031
28.5320 1.615
28.5623 2.135
28.5926 2.240
28.6229 2.135
28.6531 1.562
28.6834 2.344
28.7137 2.448
28.7440 1.979
28.7742 1.927
28.8045 1.927
28.8348 1.667
28.8651 2.500
28.8954 1.979
28.9256 1.875
28.9559 1.771
28.9862 2.396
29.0165 2.396
29.0468 1.823
29.0770 1.979
29.1073 2.552
29.1376 2.552
29.1679 2.083
29.1981 2.031
29.2284 2.552
29.2587 1.979
29.2890 2.031
29.3193 2.760
29.3495 1.771
29.3798 1.771
29.4101 2.083
29.4404 1.406
29.4707 1.823
29.5009 2.344
29.5312 2.240
29.5615 2.292
29.5918 2.552
29.6221 2.448
29.6523 2.396
29.6826 1.615
29.7129 1.875
29.7432 2.187
29.7734 1.719
29.8037 1.719
29.8340 2.135
29.8643 2.396
29.8946 2.396
29.9248 1.719
29.9551 2.031
29.9854 2.760
30.0157 2.500
30.0460 2.083
30.0762 2.917
30.1065 2.240
30.1368 2.292
30.1671 2.865
30.1973 3.021
30.2276 2.865
30.2579 3.073
30.2882 3.333
30.3185 2.812
30.3487 3.594
30.3790 3.750
30.4093 2.448
30.4396 3.594
30.4699 3.177
30.5001 2.448
30.5304 2.760
30.5607 3.437
30.5910 2.917
30.6212 3.229
30.6515 3.177
30.6818 3.698
30.7121 4.427
30.7424 3.750
30.7726 3.802
30.8029 3.229
30.8332 4.635
30.8635 4.219
30.8938 3.906
30.9240 4.531
30.9543 5.521
30.9846 5.000
31.0149 5.417
31.0451 5.833
31.0754 5.990
31.1057 5.729
31.1360 7.656
31.1663 5.312
31.1965 6.771
31.2268 6.823
31.2571 8.906
31.2874 9.115
31.3177 10.625
31.3479 12.240
31.3782 12.865
31.4085 15.260
31.4388 15.729
31.4690 17.656
31.4993 19.323
31.5296 21.719
31.5599 21.354
31.5902 24.115
31.6204 26.771
31.6507 25.052
31.6810 25.573
31.7113 21.979
31.7416 18.281
31.7718 19.792
31.8021 16.667
31.8324 13.802
31.8627 11.771
31.8929 12.083
31.9232 9.271
31.9535 7.760
31.9838 9.323
32.0141 7.760
32.0443 7.917
32.0746 7.604
32.1049 6.510
32.1352 5.937
32.1655 4.948
32.1957 5.990
32.2260 5.937
32.2563 4.792
32.2866 3.698
32.3169 3.854
32.3471 4.323
32.3774 4.167
32.4077 3.802
32.4380 3.490
32.4682 4.271
32.4985 3.281
32.5288 4.427
32.5591 3.958
32.5894 3.177
32.6196 2.396
32.6499 3.542
32.6802 3.333
32.7105 2.812
32.7408 3.437
32.7710 3.906
32.8013 2.500
32.8316 3.698
32.8619 3.229
32.8921 3.594
32.9224 2.500
32.9527 3.229
32.9830 3.958
33.0133 2.708
33.0435 3.073
33.0738 3.125
33.1041 2.969
33.1344 2.969
33.1647 2.760
33.1949 4.010
33.2252 3.125
33.2555 3.229
33.2858 3.021
33.3160 2.448
33.3463 2.865
33.3766 2.656
33.4069 3.854
33.4372 3.333
33.4674 3.906
33.4977 3.125
33.5280 3.125
33.5583 3.437
33.5886 2.917
33.6188 3.542
33.6491 3.854
33.6794 2.760
33.7097 3.281
33.7399 3.646
33.7702 4.583
33.8005 3.437
33.8308 5.052
33.8611 5.104
33.8913 4.687
33.9216 5.469
33.9519 7.083
33.9822 7.604
34.0125 7.448
34.0427 9.271
34.0730 10.729
34.1033 13.385
34.1336 15.052
34.1638 15.990
34.1941 19.062
34.2244 25.729
34.2547 25.573
34.2850 26.510
34.3152 27.187
34.3455 27.187
34.3758 19.687
34.4061 18.906
34.4364 16.510
34.4666 11.823
34.4969 10.000
34.5272 7.917
34.5575 6.979
34.5877 6.562
34.6180 7.135
34.6483 6.354
34.6786 6.146
34.7089 5.937
34.7391 4.687
34.7694 4.792
34.7997 4.531
34.8300 4.844
34.8603 5.156
34.8905 4.635
34.9208 3.750
34.9511 4.583
34.9814 4.844
35.0116 3.646
35.0419 3.958
35.0722 4.531
35.1025 5.417
35.1328 4.010
35.1630 5.521
35.1933 3.906
35.2236 5.469
35.2539 4.323
35.2842 4.167
35.3144 4.844
35.3447 4.687
35.3750 5.052
35.4053 4.896
35.4356 5.625
35.4658 5.521
35.4961 6.302
35.5264 6.927
35.5567 7.604
35.5869 7.396
35.6172 7.135
35.6475 8.385
35.6778 8.750
35.7081 11.250
35.7383 10.260
35.7686 10.729
35.7989 13.125
35.8292 14.010
35.8595 15.417
35.8897 15.833
35.9200 19.010
35.9503 21.615
35.9806 24.375
36.0108 27.344
36.0411 28.281
36.0714 29.896
36.1017 31.927
36.1320 32.708
36.1622 29.896
36.1925 29.219
36.2228 27.500
36.2531 23.073
36.2834 22.240
36.3136 19.479
36.3439 17.448
36.3742 14.948
36.4045 14.219
36.4347 10.937
36.4650 10.833
36.4953 9.583
36.5256 9.844
36.5559 8.698
36.5861 6.719
36.6164 6.406
36.6467 6.354
36.6770 5.990
36.7073 5.521
36.7375 6.146
36.7678 5.469
36.7981 4.635
36.8284 4.323
36.8586 4.740
36.8889 4.323
36.9192 4.115
36.9495 2.969
36.9798 3.385
37.0100 3.854
37.0403 3.698
37.0706 4.375
37.1009 2.969
37.1312 2.292
37.1614 2.760
37.1917 2.604
37.2220 3.385
37.2523 2.396
37.2825 3.021
37.3128 1.875
37.3431 2.500
37.3734 2.656
37.4037 2.083
37.4339 1.875
37.4642 2.031
37.4945 2.448
37.5248 2.135
37.5551 2.604
37.5853 2.292
37.6156 2.396
37.6459 1.615
37.6762 1.615
37.7064 2.187
37.7367 2.031
37.7670 1.979
37.7973 1.667
37.8276 1.562
37.8578 2.083
37.8881 2.135
37.9184 2.187
37.9487 1.719
37.9790 2.396
38.0092 1.979
38.0395 1.250
38.0698 2.187
38.1001 1.771
38.1304 1.615
38.1606 1.979
38.1909 1.250
38.2212 1.771
38.2515 1.354
38.2817 1.927
38.3120 2.083
38.3423 1.406
38.3726 1.302
38.4029 1.302
38.4331 1.927
38.4634 1.406
38.4937 1.875
38.5240 1.562
38.5543 1.719
38.5845 1.510
38.6148 1.719
38.6451 1.719
38.6754 1.875
38.7056 2.135
38.7359 1.562
38.7662 1.719
38.7965 1.458
38.8268 1.823
38.8570 1.302
38.8873 1.094
38.9176 1.771
38.9479 1.406
38.9782 1.250
39.0084 1.510
39.0387 0.990
39.0690 1.250
39.0993 1.719
39.1295 1.615
39.1598 1.615
39.1901 1.458
39.2204 1.979
39.2507 1.302
39.2809 1.250
39.3112 1.146
39.3415 1.510
39.3718 1.823
39.4021 1.302
39.4323 1.562
39.4626 1.979
39.4929 1.510
39.5232 1.562
39.5534 1.667
39.5837 1.302
39.6140 1.458
39.6443 1.875
39.6746 1.250
39.7048 1.146
39.7351 1.094
39.7654 1.406
39.7957 1.771
39.8260 1.458
39.8562 1.510
39.8865 1.354
39.9168 1.510
39.9471 0.990
39.9773 1.250
40.0076 1.094
40.0379 1.354
40.0682 1.562
40.0985 1.146
40.1287 0.990
40.1590 0.990
40.1893 1.615
40.2196 1.354
40.2499 1.562
40.2801 1.302
40.3104 1.406
40.3407 1.719
40.3710 1.354
40.4012 1.510
40.4315 1.198
40.4618 1.927
40.4921 0.990
40.5224 1.094
40.5526 1.250
40.5829 0.833
40.6132 1.302
40.6435 0.781
40.6738 1.302
40.7040 1.250
40.7343 0.937
40.7646 1.042
40.7949 1.667
40.8251 1.458
40.8554 1.250
40.8857 0.937
40.9160 1.250
40.9463 1.146
40.9765 0.885
41.0068 1.823
41.0371 1.250
41.0674 1.042
41.0977 1.615
41.1279 1.562
41.1582 1.094
41.1885 1.615
41.2188 0.885
41.2491 0.937
41.2793 0.781
41.3096 1.094
41.3399 1.094
41.3702 1.458
41.4004 0.781
41.4307 1.198
41.4610 1.510
41.4913 1.406
41.5216 1.458
41.5518 0.937
41.5821 1.302
41.6124 0.990
41.6427 1.198
41.6730 1.094
41.7032 1.042
41.7335 1.615
41.7638 1.042
41.7941 1.146
41.8243 0.781
41.8546 0.990
41.8849 1.042
41.9152 0.833
41.9455 1.302
41.9757 1.406
42.0060 1.198
42.0363 1.510
42.0666 1.250
42.0969 1.615
42.1271 1.458
42.1574 1.354
42.1877 1.615
42.2180 1.562
42.2482 1.250
42.2785 1.146
42.3088 1.146
42.3391 1.302
42.3694 0.990
42.3996 0.833
42.4299 1.198
42.4602 1.354
42.4905 0.937
42.5208 1.042
42.5510 1.198
42.5813 1.615
42.6116 1.250
42.6419 1.198
42.6721 0.937
42.7024 1.302
42.7327 1.302
42.7630 1.354
42.7933 0.833
42.8235 0.885
42.8538 1.302
42.8841 0.833
42.9144 0.781
42.9447 1.615
42.9749 1.094
43.0052 1.042
43.0355 1.042
43.0658 1.146
43.0960 1.042
43.1263 1.250
43.1566 1.406
43.1869 1.042
43.2172 1.198
43.2474 0.677
43.2777 1.771
43.3080 1.094
43.3383 0.885
43.3686 1.198
43.3988 1.250
43.4291 0.625
43.4594 1.354
43.4897 1.146
43.5199 1.042
43.5502 1.302
43.5805 1.302
43.6108 1.146
43.6411 1.198
43.6713 1.354
43.7016 1.094
43.7319 0.990
43.7622 1.198
43.7925 1.094
43.8227 1.198
43.8530 0.729
43.8833 1.042
43.9136 1.510
43.9439 1.354
43.9741 1.250
44.0044 1.146
44.0347 1.146
44.0650 1.042
44.0952 1.406
44.1255 1.250
44.1558 1.094
44.1861 0.885
44.2164 1.146
44.2466 1.042
44.2769 1.458
44.3072 1.250
44.3375 1.042
44.3678 1.406
44.3980 0.937
44.4283 1.146
44.4586 1.094
44.4889 1.042
44.5191 1.146
44.5494 0.885
44.5797 1.667
44.6100 0.885
44.6403 1.094
44.6705 1.406
44.7008 1.406
44.7311 0.781
44.7614 1.042
44.7917 0.833
44.8219 0.937
44.8522 1.042
44.8825 1.146
44.9128 1.458
44.9430 1.354
44.9733 0.677
45.0036 1.042
45.0339 1.562
45.0642 1.406
45.0944 1.042
45.1247 1.302
45.1550 1.042
45.1853 1.094
45.2156 1.146
45.2458 1.042
45.2761 1.146
45.3064 1.250
45.3367 1.198
45.3669 1.250
45.3972 0.729
45.4275 0.937
45.4578 1.198
45.4881 0.990
45.5183 1.146
45.5486 1.719
45.5789 1.771
45.6092 1.198
45.6395 0.937
45.6697 1.562
45.7000 1.823
45.7303 1.615
45.7606 1.615
45.7908 1.250
45.8211 1.146
45.8514 1.042
45.8817 1.510
45.9120 1.615
45.9422 1.510
45.9725 1.667
46.0028 1.979
46.0331 1.615
46.0634 1.458
46.0936 1.354
46.1239 1.354
46.1542 1.562
46.1845 1.615
46.2147 1.875
46.2450 1.823
46.2753 1.354
46.3056 1.562
46.3359 1.771
46.3661 0.885
46.3964 1.667
46.4267 1.354
46.4570 1.719
46.4873 1.198
46.5175 1.510
46.5478 1.302
46.5781 1.510
46.6084 1.562
46.6386 1.510
46.6689 1.927
46.6992 1.823
46.7295 1.458
46.7598 2.083
46.7900 1.979
46.8203 2.187
46.8506 1.510
46.8809 2.135
46.9112 2.083
46.9414 2.604
46.9717 2.708
47.0020 3.177
47.0323 3.281
47.0626 3.437
47.0928 3.958
47.1231 3.958
47.1534 4.115
47.1837 3.437
47.2139 4.323
47.2442 5.677
47.2745 5.000
47.3048 5.417
47.3351 6.458
47.3653 5.781
47.3956 7.292
47.4259 5.990
47.4562 6.719
47.4865 5.729
47.5167 6.302
47.5470 5.729
47.5773 4.062
47.6076 5.052
47.6378 4.375
47.6681 3.333
47.6984 3.854
47.7287 3.437
47.7590 2.865
47.7892 3.437
47.8195 2.396
47.8498 2.552
47.8801 1.875
47.9104 2.240
47.9406 1.875
47.9709 2.240
48.0012 2.083
48.0315 1.979
48.0617 1.406
48.0920 1.458
48.1223 1.771
48.1526 1.406
48.1829 1.927
48.2131 1.615
48.2434 1.823
48.2737 2.083
48.3040 1.406
48.3343 1.354
48.3645 0.937
48.3948 1.615
48.4251 1.562
48.4554 1.615
48.4856 1.302
48.5159 0.833
48.5462 1.354
48.5765 1.510
48.6068 1.406
48.6370 1.615
48.6673 1.406
48.6976 1.979
48.7279 1.667
48.7582 1.458
48.7884 1.562
48.8187 1.250
48.8490 1.302
48.8793 1.562
48.9095 1.719
48.9398 1.615
48.9701 1.302
49.0004 1.510
49.0307 1.354
49.0609 1.302
49.0912 1.510
49.1215 1.198
49.1518 1.875
49.1821 2.031
49.2123 0.885
49.2426 1.094
49.2729 1.042
49.3032 1.615
49.3334 1.198
49.3637 0.990
49.3940 1.146
49.4243 1.094
49.4546 1.302
49.4848 1.042
49.5151 0.885
49.5454 1.302
49.5757 1.250
49.6060 0.990
49.6362 0.833
49.6665 1.302
49.6968 1.615
49.7271 1.458
49.7574 1.406
49.7876 1.094
49.8179 1.250
49.8482 0.781
49.8785 0.990
49.9087 1.198
49.9390 0.833
49.9693 0.990
49.9996 1.094
50.0299 1.146
50.0601 1.042
50.0904 1.667
50.1207 0.937
50.1510 1.198
50.1813 1.042
50.2115 1.510
50.2418 1.302
50.2721 1.354
50.3024 1.250
50.3326 1.302
50.3629 1.354
50.3932 1.354
50.4235 1.302
50.4538 0.833
50.4840 1.250
50.5143 1.510
50.5446 0.833
50.5749 1.302
50.6052 1.250
50.6354 1.094
50.6657 1.562
50.6960 1.615
50.7263 0.937
50.7565 1.250
50.7868 1.146
50.8171 1.198
50.8474 1.198
50.8777 1.146
50.9079 0.729
50.9382 0.937
50.9685 0.677
50.9988 1.458
51.0291 0.677
51.0593 1.198
51.0896 1.302
51.1199 0.937
51.1502 1.198
51.1804 0.990
51.2107 1.146
51.2410 0.885
51.2713 1.198
51.3016 1.719
51.3318 1.042
51.3621 0.781
51.3924 0.573
51.4227 1.354
51.4530 1.198
51.4832 1.354
51.5135 0.781
51.5438 1.146
51.5741 1.198
51.6043 1.042
51.6346 0.885
51.6649 1.719
51.6952 1.198
51.7255 1.146
51.7557 1.094
51.7860 0.885
51.8163 1.198
51.8466 1.615
51.8769 1.146
51.9071 1.615
51.9374 1.094
51.9677 1.042
51.9980 0.781
52.0282 1.458
52.0585 0.885
52.0888 0.990
52.1191 1.146
52.1494 1.354
52.1796 1.250
52.2099 1.354
52.2402 1.406
52.2705 1.198
52.3008 1.094
52.3310 1.250
52.3613 1.354
52.3916 0.990
52.4219 1.406
52.4521 1.146
52.4824 0.469
52.5127 0.990
52.5430 0.885
52.5733 0.781
52.6035 0.885
52.6338 0.937
52.6641 1.146
52.6944 0.937
52.7247 0.990
52.7549 0.729
52.7852 1.146
52.8155 1.562
52.8458 1.354
52.8761 1.250
52.9063 1.250
52.9366 1.042
52.9669 1.510
52.9972 1.094
53.0274 1.667
53.0577 1.406
53.0880 0.937
53.1183 1.094
53.1486 1.094
53.1788 0.990
53.2091 0.833
53.2394 1.094
53.2697 1.094
53.3000 1.302
53.3302 1.250
53.3605 1.406
53.3908 1.094
53.4211 1.562
53.4513 1.042
53.4816 0.937
53.5119 1.198
53.5422 1.094
53.5725 1.094
53.6027 1.719
53.6330 1.458
53.6633 1.406
53.6936 1.146
53.7239 1.823
53.7541 1.094
53.7844 1.094
53.8147 1.510
53.8450 1.250
53.8752 0.885
53.9055 1.354
53.9358 1.198
53.9661 1.406
53.9964 1.094
54.0266 1.458
54.0569 1.042
54.0872 1.198
54.1175 1.094
54.1478 1.458
54.1780 1.042
54.2083 1.094
54.2386 1.146
54.2689 1.042
54.2991 1.615
54.3294 1.615
54.3597 1.198
54.3900 1.250
54.4203 1.562
54.4505 1.146
54.4808 1.198
54.5111 1.250
54.5414 1.250
54.5717 1.146
54.6019 1.406
54.6322 0.990
54.6625 1.302
54.6928 1.198
54.7230 1.042
54.7533 1.198
54.7836 1.458
54.8139 0.729
54.8442 1.406
54.8744 1.667
54.9047 1.302
54.9350 1.146
54.9653 1.250
54.9956 1.510
55.0258 1.406
55.0561 1.458
55.0864 1.250
55.1167 0.990
55.1469 0.937
55.1772 0.937
55.2075 1.302
55.2378 1.615
55.2681 1.823
55.2983 1.510
55.3286 1.302
55.3589 1.406
55.3892 1.719
55.4195 2.031
55.4497 1.771
55.4800 2.083
55.5103 1.927
55.5406 1.719
55.5709 1.562
55.6011 0.937
55.6314 2.031
55.6617 1.979
55.6920 2.292
55.7222 2.031
55.7525 2.344
55.7828 2.396
55.8131 2.500
55.8434 2.969
55.8736 2.604
55.9039 2.552
55.9342 3.125
55.9645 3.021
55.9948 3.229
56.0250 3.021
56.0553 3.229
56.0856 3.177
56.1159 4.010
56.1461 3.698
56.1764 4.635
56.2067 4.948
56.2370 5.625
56.2673 5.260
56.2975 5.885
56.3278 6.458
56.3581 6.354
56.3884 7.187
56.4187 8.125
56.4489 6.667
56.4792 7.500
56.5095 8.333
56.5398 8.958
56.5700 7.708
56.6003 7.083
56.6306 6.406
56.6609 5.312
56.6912 5.469
56.7214 4.479
56.7517 4.531
56.7820 4.479
56.8123 3.646
56.8426 3.646
56.8728 3.177
56.9031 2.448
56.9334 2.604
56.9637 2.344
56.9939 2.552
57.0242 1.979
57.0545 2.083
57.0848 2.604
57.1151 1.927
57.1453 1.823
57.1756 1.823
57.2059 2.083
57.2362 2.031
57.2665 1.615
57.2967 1.406
57.3270 1.667
57.3573 1.562
57.3876 1.302
57.4178 1.406
57.4481 1.667
57.4784 1.354
57.5087 1.771
57.5390 0.990
57.5692 1.250
57.5995 1.302
57.6298 1.615
57.6601 1.042
57.6904 1.198
57.7206 1.510
57.7509 1.198
57.7812 1.406
57.8115 0.990
57.8417 1.406
57.8720 1.667
57.9023 1.250
57.9326 1.667
57.9629 0.937
57.9931 0.625
58.0234 1.094
58.0537 1.458
58.0840 1.094
58.1143 1.198
58.1445 1.094
58.1748 1.094
58.2051 1.146
58.2354 1.198
58.2656 1.198
58.2959 0.990
58.3262 0.937
58.3565 1.094
58.3868 1.667
58.4170 1.510
58.4473 1.562
58.4776 0.885
58.5079 1.615
58.5382 0.990
58.5684 0.833
58.5987 0.990
58.6290 1.302
58.6593 1.094
58.6896 0.937
58.7198 1.250
58.7501 1.146
58.7804 1.094
58.8107 1.198
58.8409 0.937
58.8712 0.937
58.9015 1.302
58.9318 0.885
58.9621 1.302
58.9923 0.677
59.0226 0.937
59.0529 1.146
59.0832 1.302
59.1135 1.406
59.1437 0.937
59.1740 0.885
59.2043 1.458
59.2346 1.146
59.2648 1.406
59.2951 1.510
59.3254 1.510
59.3557 1.302
59.3860 1.198
59.4162 1.094
59.4465 0.937
59.4768 1.250
59.5071 1.198
59.5374 1.042
59.5676 0.781
59.5979 1.302
59.6282 0.781
59.6585 1.250
59.6887 0.833
59.7190 1.094
59.7493 1.042
59.7796 1.146
59.8099 1.198
59.8401 1.094
59.8704 1.198
59.9007 1.042
59.9310 1.146
59.9613 1.250
59.9915 0.781
60.0218 1.198
60.0521 1.146
60.0824 0.729
60.1126 0.990
60.1429 0.885
60.1732 0.937
60.2035 1.302
60.2338 0.781
60.2640 1.094
60.2943 0.885
60.3246 0.781
60.3549 1.042
60.3852 1.094
60.4154 1.510
60.4457 0.833
60.4760 0.885
60.5063 1.354
60.5365 1.354
60.5668 1.458
60.5971 0.677
60.6274 0.781
60.6577 1.146
60.6879 0.729
60.7182 0.885
60.7485 0.885
60.7788 0.781
60.8091 0.781
60.8393 1.250
60.8696 1.250
60.8999 0.937
60.9302 1.198
60.9604 1.146
60.9907 1.302
61.0210 1.094
61.0513 1.354
61.0816 0.885
61.1118 0.990
61.1421 1.146
61.1724 1.198
61.2027 0.885
61.2330 1.354
61.2632 1.302
61.2935 1.458
61.3238 1.198
61.3541 1.198
61.3844 1.302
61.4146 1.458
61.4449 1.198
61.4752 1.458
61.5055 1.198
61.5357 1.042
61.5660 1.458
61.5963 1.458
61.6266 1.562
61.6569 0.937
61.6871 1.250
61.7174 1.302
61.7477 1.458
61.7780 1.458
61.8083 1.979
61.8385 1.250
61.8688 1.458
61.8991 1.615
61.9294 1.667
61.9596 1.562
61.9899 1.615
62.0202 1.615
62.0505 1.875
62.0808 2.083
62.1110 1.875
62.1413 1.667
62.1716 2.031
62.2019 2.031
62.2322 1.562
62.2624 2.812
62.2927 2.812
62.3230 1.979
62.3533 2.604
62.3835 3.125
62.4138 3.177
62.4441 3.229
62.4744 3.333
62.5047 4.896
62.5349 4.323
62.5652 4.531
62.5955 5.521
62.6258 6.458
62.6561 6.823
62.6863 6.146
62.7166 6.875
62.7469 5.625
62.7772 7.135
62.8074 5.365
62.8377 6.458
62.8680 5.417
62.8983 5.469
62.9286 4.219
62.9588 4.271
62.9891 4.844
63.0194 3.229
63.0497 4.115
63.0800 3.437
63.1102 2.760
63.1405 2.500
63.1708 1.979
63.2011 2.865
63.2313 2.396
63.2616 2.240
63.2919 1.719
63.3222 2.031
63.3525 1.510
63.3827 1.406
63.4130 2.083
63.4433 2.135
63.4736 1.771
63.5039 1.615
63.5341 1.667
63.5644 1.719
63.5947 1.250
63.6250 1.302
63.6552 1.406
63.6855 1.094
63.7158 1.406
63.7461 0.990
63.7764 1.406
63.8066 1.667
63.8369 0.990
63.8672 1.146
63.8975 1.719
63.9278 0.833
63.9580 1.250
63.9883 1.406
64.0186 1.198
64.0489 1.302
64.0791 1.354
64.1094 1.250
64.1397 1.250
64.1700 1.406
64.2003 0.937
64.2305 1.198
64.2608 1.146
64.2911 0.937
64.3214 0.937
64.3517 0.833
64.3819 1.458
64.4122 0.833
64.4425 1.250
64.4728 0.937
64.5031 0.937
64.5333 0.885
64.5636 0.469
64.5939 0.885
64.6242 0.729
64.6544 1.354
64.6847 1.302
64.7150 0.781
64.7453 1.146
64.7756 1.250
64.8058 1.406
64.8361 1.094
64.8664 1.042
64.8967 1.094
64.9270 0.885
64.9572 0.781
64.9875 0.885
65.0178 0.781
65.0481 1.510
65.0783 1.042
65.1086 1.198
65.1389 0.885
65.1692 0.885
65.1995 1.094
65.2297 0.885
65.2600 0.833
65.2903 0.990
65.3206 1.302
65.3509 0.833
65.3811 1.198
65.4114 1.354
65.4417 1.146
65.4720 1.354
65.5022 1.250
65.5325 1.146
65.5628 1.302
65.5931 1.146
65.6234 0.885
65.6536 1.458
65.6839 1.302
65.7142 1.094
65.7445 1.562
65.7748 0.937
65.8050 1.250
65.8353 1.406
65.8656 1.458
65.8959 0.937
65.9261 1.354
65.9564 1.719
65.9867 1.354
66.0170 1.302
66.0473 2.083
66.0775 1.510
66.1078 1.562
66.1381 1.927
66.1684 2.344
66.1987 1.823
66.2289 2.083
66.2592 1.615
66.2895 1.615
66.3198 1.927
66.3500 1.771
66.3803 1.927
66.4106 1.979
66.4409 0.990
66.4712 1.667
66.5014 1.719
66.5317 1.771
66.5620 1.146
66.5923 1.510
66.6226 1.823
66.6528 1.615
66.6831 0.990
66.7134 1.354
66.7437 1.771
66.7739 1.667
66.8042 1.250
66.8345 2.396
66.8648 1.302
66.8951 1.771
66.9253 1.250
66.9556 1.302
66.9859 1.875
67.0162 1.354
67.0465 1.875
67.0767 1.250
67.1070 1.458
67.1373 1.667
67.1676 1.719
67.1978 1.719
67.2281 1.562
67.2584 2.135
67.2887 1.719
67.3190 2.187
67.3492 2.396
67.3795 2.604
67.4098 2.135
67.4401 2.708
67.4704 2.708
67.5006 3.594
67.5309 3.125
67.5612 3.333
67.5915 3.437
67.6218 4.062
67.6520 3.958
67.6823 4.219
67.7126 4.427
67.7429 4.948
67.7731 4.687
67.8034 5.000
67.8337 4.115
67.8640 4.740
67.8943 4.479
67.9245 4.687
67.9548 4.740
67.9851 4.948
68.0154 4.531
68.0457 3.073
68.0759 3.750
68.1062 3.073
68.1365 3.542
68.1668 2.604
68.1970 3.177
68.2273 2.240
68.2576 2.969
68.2879 2.292
68.3182 2.604
68.3484 2.031
68.3787 1.979
68.4090 2.396
68.4393 2.187
68.4696 1.927
68.4998 1.719
68.5301 1.875
68.5604 1.927
68.5907 1.667
68.6209 1.771
68.6512 1.719
68.6815 2.969
68.7118 1.927
68.7421 2.344
68.7723 1.719
68.8026 2.865
68.8329 2.396
68.8632 2.812
68.8935 2.448
68.9237 2.292
68.9540 2.031
68.9843 2.552
69.0146 3.646
69.0448 2.760
69.0751 2.708
69.1054 2.604
69.1357 1.927
69.1660 2.604
69.1962 2.292
69.2265 2.292
69.2568 1.927
69.2871 1.719
69.3174 2.083
69.3476 1.406
69.3779 1.406
69.4082 1.510
69.4385 1.823
69.4687 1.510
69.4990 1.458
69.5293 0.885
69.5596 1.094
69.5899 1.562
69.6201 1.302
69.6504 1.354
69.6807 1.406
69.7110 1.458
69.7413 1.198
69.7715 0.677
69.8018 1.094
69.8321 1.458
69.8624 1.198
69.8926 0.937
69.9229 0.990
69.9532 0.937
69.9835 0.729
70.0138 1.146
70.0440 0.781
70.0743 0.990
70.1046 0.781
70.1349 0.885
70.1652 0.833
70.1954 1.250
70.2257 0.573
70.2560 0.781
70.2863 1.146
70.3166 1.146
70.3468 0.990
70.3771 0.677
70.4074 0.990
70.4377 0.781
70.4679 0.781
70.4982 0.781
70.5285 0.990
70.5588 1.146
70.5891 0.781
70.6193 0.781
70.6496 0.885
70.6799 0.729
70.7102 0.885
70.7405 0.781
70.7707 0.781
70.8010 0.937
70.8313 1.094
70.8616 0.937
70.8918 0.937
70.9221 1.250
70.9524 0.677
70.9827 0.573
71.0130 0.781
71.0432 0.677
71.0735 0.781
71.1038 0.573
71.1341 1.042
71.1644 0.417
71.1946 0.677
71.2249 0.885
71.2552 0.625
71.2855 0.677
71.3157 0.729
71.3460 1.094
71.3763 0.885
71.4066 0.781
71.4369 0.573
71.4671 0.833
71.4974 1.146
71.5277 0.781
71.5580 1.042
71.5883 0.469
71.6185 0.573
71.6488 0.729
71.6791 0.990
71.7094 0.729
71.7396 0.729
71.7699 0.781
71.8002 0.573
71.8305 0.729
71.8608 0.625
71.8910 0.625
71.9213 0.729
71.9516 0.937
71.9819 0.677
72.0122 1.146
72.0424 1.094
72.0727 1.354
72.1030 0.990
72.1333 0.885
72.1635 0.937
72.1938 0.729
72.2241 0.729
72.2544 0.833
72.2847 1.146
72.3149 1.250
72.3452 0.729
72.3755 1.198
72.4058 1.042
72.4361 0.990
72.4663 0.729
72.4966 1.146
72.5269 0.833
72.5572 0.937
72.5874 1.094
72.6177 0.521
72.6480 1.250
72.6783 0.729
72.7086 0.885
72.7388 0.833
72.7691 0.990
72.7994 0.833
72.8297 1.146
72.8600 0.573
72.8902 0.729
72.9205 1.042
72.9508 1.250
72.9811 0.312
73.0113 0.937
73.0416 0.990
73.0719 0.677
73.1022 0.781
73.1325 0.729
73.1627 0.833
73.1930 0.521
73.2233 0.573
73.2536 0.729
73.2839 1.094
73.3141 0.677
73.3444 0.260
73.3747 0.729
73.4050 0.677
73.4353 0.573
73.4655 0.729
73.4958 1.042
73.5261 0.781
73.5564 1.094
73.5866 1.250
73.6169 0.573
73.6472 0.833
73.6775 0.729
73.7078 0.729
73.7380 0.365
73.7683 0.729
73.7986 1.042
73.8289 0.885
73.8592 0.573
73.8894 1.198
73.9197 0.573
73.9500 0.625
73.9803 0.365
74.0105 0.729
74.0408 1.146
74.0711 0.417
74.1014 0.729
74.1317 0.573
74.1619 0.625
74.1922 0.885
74.2225 0.833
74.2528 0.677
74.2831 0.469
74.3133 0.990
74.3436 0.833
74.3739 1.042
74.4042 0.573
74.4344 0.729
74.4647 0.677
74.4950 0.885
74.5253 0.833
74.5556 0.521
74.5858 0.729
74.6161 1.198
74.6464 0.677
74.6767 0.677
74.7070 0.937
74.7372 0.729
74.7675 0.625
74.7978 0.469
74.8281 1.042
74.8583 0.625
74.8886 0.521
74.9189 0.573
74.9492 0.625
74.9795 0.729
75.0097 0.885
75.0400 1.042
75.0703 0.521
75.1006 0.990
75.1309 0.990
75.1611 0.990
75.1914 0.677
75.2217 0.885
75.2520 1.042
75.2822 0.677
75.3125 0.729
75.3428 0.417
75.3731 0.781
75.4034 0.937
75.4336 0.729
75.4639 0.573
75.4942 0.729
75.5245 1.094
75.5548 0.521
75.5850 0.729
75.6153 0.990
75.6456 1.042
75.6759 0.729
75.7061 0.781
75.7364 0.729
75.7667 0.729
75.7970 1.250
75.8273 0.781
75.8575 0.469
75.8878 1.042
75.9181 0.781
75.9484 0.833
75.9787 0.833
76.0089 1.042
76.0392 0.729
76.0695 0.521
76.0998 0.729
76.1301 0.677
76.1603 0.833
76.1906 0.781
76.2209 0.625
76.2512 0.990
76.2814 1.042
76.3117 1.198
76.3420 0.990
76.3723 1.302
76.4026 0.781
76.4328 0.625
76.4631 0.781
76.4934 0.937
76.5237 0.781
76.5540 1.094
76.5842 1.198
76.6145 0.990
76.6448 1.146
76.6751 0.781
76.7053 1.042
76.7356 1.458
76.7659 1.250
76.7962 1.146
76.8265 0.781
76.8567 1.094
76.8870 1.302
76.9173 0.990
76.9476 1.510
76.9779 1.354
77.0081 1.406
77.0384 1.094
77.0687 1.354
77.0990 0.885
77.1292 1.042
77.1595 0.937
77.1898 0.990
77.2201 1.094
77.2504 1.094
77.2806 1.042
77.3109 0.729
77.3412 0.625
77.3715 0.937
77.4018 0.625
77.4320 0.573
77.4623 1.094
77.4926 0.781
77.5229 0.990
77.5531 0.729
77.5834 0.521
77.6137 0.833
77.6440 0.521
77.6743 0.729
77.7045 0.937
77.7348 0.521
77.7651 0.729
77.7954 0.573
77.8257 0.521
77.8559 0.625
77.8862 1.198
77.9165 0.521
77.9468 1.146
77.9770 0.625
78.0073 0.729
78.0376 0.781
78.0679 0.833
78.0982 0.885
78.1284 0.885
78.1587 0.625
78.1890 0.625
78.2193 0.781
78.2496 0.573
78.2798 0.312
78.3101 0.573
78.3404 0.729
78.3707 0.521
78.4009 0.729
78.4312 0.729
78.4615 0.885
78.4918 0.521
78.5221 0.469
78.5523 0.833
78.5826 0.677
78.6129 0.990
78.6432 0.937
78.6735 0.885
78.7037 0.573
78.7340 0.781
78.7643 0.677
78.7946 0.885
78.8248 0.833
78.8551 0.729
78.8854 0.781
78.9157 0.469
78.9460 0.625
78.9762 0.417
79.0065 0.729
79.0368 0.677
79.0671 0.521
79.0974 0.885
79.1276 0.937
79.1579 0.781
79.1882 0.417
79.2185 0.417
79.2488 0.781
79.2790 0.521
79.3093 0.729
79.3396 0.729
79.3699 0.729
79.4001 0.781
79.4304 0.885
79.4607 0.781
79.4910 0.625
79.5213 0.833
79.5515 0.781
79.5818 0.521
79.6121 0.729
79.6424 0.833
79.6727 0.781
79.7029 0.521
79.7332 1.042
79.7635 0.990
79.7938 0.625
79.8240 0.781
79.8543 0.729
79.8846 0.937
79.9149 0.729
79.9452 0.990
79.9754 0.885
80.0057 0.417
80.0360 0.625
80.0663 0.625
80.0966 0.833
80.1268 0.729
80.1571 0.885
80.1874 0.729
80.2177 0.677
80.2479 0.625
80.2782 0.781
80.3085 0.625
80.3388 0.729
80.3691 1.042
80.3993 0.417
80.4296 0.677
80.4599 0.729
80.4902 0.469
80.5205 0.677
80.5507 0.573
80.5810 0.677
80.6113 0.625
80.6416 0.885
80.6718 0.677
80.7021 0.937
80.7324 0.729
80.7627 0.729
80.7930 1.042
80.8232 0.729
80.8535 0.677
80.8838 0.729
80.9141 1.146
80.9444 0.781
80.9746 0.833
81.0049 0.833
81.0352 0.781
81.0655 1.042
81.0957 0.677
81.1260 0.573
81.1563 0.990
81.1866 1.042
81.2169 0.729
81.2471 1.198
81.2774 0.833
81.3077 0.573
81.3380 1.250
81.3683 0.729
81.3985 0.573
81.4288 0.625
81.4591 0.833
81.4894 1.094
81.5196 0.625
81.5499 1.042
81.5802 0.833
81.6105 0.729
81.6408 1.042
81.6710 0.833
81.7013 0.729
81.7316 0.625
81.7619 0.729
81.7922 0.729
81.8224 0.729
81.8527 0.729
81.8830 1.198
81.9133 0.885
81.9436 0.677
81.9738 0.833
82.0041 0.729
82.0344 0.365
82.0647 0.625
82.0949 0.573
82.1252 0.521
82.1555 1.354
82.1858 0.521
82.2161 0.417
82.2463 1.042
82.2766 0.885
82.3069 0.521
82.3372 0.417
82.3675 0.469
82.3977 0.677
82.4280 0.937
82.4583 0.625
82.4886 0.833
82.5188 0.833
82.5491 0.833
82.5794 0.885
82.6097 0.833
82.6400 0.729
82.6702 0.625
82.7005 0.469
82.7308 0.937
82.7611 0.625
82.7914 1.042
82.8216 0.781
82.8519 0.937
82.8822 0.573
82.9125 0.885
82.9427 0.625
82.9730 0.885
83.0033 0.625
83.0336 0.781
83.0639 0.729
83.0941 0.833
83.1244 0.521
83.1547 0.677
83.1850 0.729
83.2153 0.625
83.2455 0.625
83.2758 0.833
83.3061 0.729
83.3364 0.625
83.3666 0.729
83.3969 0.677
83.4272 0.365
83.4575 0.573
83.4878 0.729
83.5180 0.885
83.5483 0.677
83.5786 0.365
83.6089 0.937
83.6392 0.417
83.6694 0.677
83.6997 0.521
83.7300 0.573
83.7603 1.042
83.7905 0.729
83.8208 0.729
83.8511 0.729
83.8814 0.937
83.9117 0.833
83.9419 0.729
83.9722 0.885
84.0025 0.781
84.0328 0.573
84.0631 0.781
84.0933 0.729
84.1236 0.833
84.1539 0.729
84.1842 0.521
84.2144 0.312
84.2447 0.573
84.2750 0.781
84.3053 0.573
84.3356 0.521
84.3658 0.781
84.3961 0.729
84.4264 0.417
84.4567 0.781
84.4870 0.729
84.5172 0.521
84.5475 0.625
84.5778 0.937
84.6081 0.677
84.6383 0.729
84.6686 0.469
84.6989 0.729
84.7292 0.781
84.7595 0.469
84.7897 0.833
84.8200 0.417
84.8503 0.469
84.8806 0.573
84.9109 0.729
84.9411 0.781
84.9714 0.885
85.0017 0.781
85.0320 0.677
85.0623 0.625
85.0925 0.469
85.1228 0.625
85.1531 0.937
85.1834 0.885
85.2136 0.937
85.2439 0.417
85.2742 0.573
85.3045 0.573
85.3348 0.573
85.3650 0.677
85.3953 0.625
85.4256 0.677
85.4559 0.677
85.4862 0.729
85.5164 0.521
85.5467 0.625
85.5770 0.937
85.6073 0.781
85.6375 0.625
85.6678 1.042
85.6981 1.094
85.7284 0.521
85.7587 0.573
85.7889 0.729
85.8192 0.729
85.8495 0.677
85.8798 0.990
85.9101 0.781
85.9403 0.729
85.9706 0.833
86.0009 0.573
86.0312 0.573
86.0614 0.729
86.0917 0.677
86.1220 1.042
86.1523 0.729
86.1826 0.781
86.2128 0.417
86.2431 0.625
86.2734 1.198
86.3037 0.469
86.3340 0.677
86.3642 0.625
86.3945 0.677
86.4248 0.365
86.4551 0.677
86.4853 0.729
86.5156 0.729
86.5459 0.573
86.5762 1.094
86.6065 0.729
86.6367 0.677
86.6670 0.729
86.6973 0.937
86.7276 0.885
86.7579 0.677
86.7881 0.885
86.8184 0.833
86.8487 0.729
86.8790 0.573
86.9092 0.729
86.9395 0.781
86.9698 0.625
87.0001 0.573
87.0304 1.042
87.0606 1.042
87.0909 0.885
87.1212 0.729
87.1515 0.521
87.1818 0.833
87.2120 0.573
87.2423 1.094
87.2726 0.573
87.3029 0.677
87.3331 0.729
87.3634 0.990
87.3937 0.677
87.4240 0.260
87.4543 0.625
87.4845 0.729
87.5148 0.417
87.5451 0.729
87.5754 0.729
87.6057 0.521
87.6359 1.042
87.6662 0.781
87.6965 0.729
87.7268 0.521
87.7571 0.937
87.7873 0.729
87.8176 0.365
87.8479 0.521
87.8782 0.729
87.9084 0.729
87.9387 0.417
87.9690 0.469
87.9993 0.833
88.0296 0.625
88.0598 0.729
88.0901 1.094
88.1204 0.521
88.1507 0.677
88.1810 0.521
88.2112 0.833
88.2415 0.729
88.2718 0.833
88.3021 0.729
88.3323 0.573
88.3626 0.885
88.3929 1.042
88.4232 0.833
88.4535 0.885
88.4837 0.729
88.5140 0.885
88.5443 1.094
88.5746 0.521
88.6049 0.677
88.6351 0.885
88.6654 0.625
88.6957 0.937
88.7260 0.937
88.7562 1.198
88.7865 0.729
88.8168 0.885
88.8471 0.625
88.8774 1.042
88.9076 0.833
88.9379 0.937
88.9682 0.781
88.9985 1.042
89.0288 0.990
89.0590 1.042
89.0893 1.094
89.1196 1.198
89.1499 1.146
89.1801 1.250
89.2104 1.250
89.2407 0.781
89.2710 0.833
89.3013 1.146
89.3315 1.042
89.3618 1.667
89.3921 1.042
89.4224 1.250
89.4527 1.042
89.4829 1.198
89.5132 1.198
89.5435 1.719
89.5738 1.250
89.6040 1.667
89.6343 1.302
89.6646 1.667
89.6949 1.302
89.7252 1.302
89.7554 1.250
89.7857 0.833
89.8160 1.094
89.8463 1.510
89.8766 0.729
89.9068 1.146
89.9371 1.250
89.9674 0.833
89.9977 1.250
90.0279 0.885
90.0582 0.990
90.0885 1.198
90.1188 1.146
90.1491 0.729
90.1793 1.042
90.2096 0.625
90.2399 1.146
90.2702 0.677
90.3005 0.833
90.3307 0.729
90.3610 0.833
90.3913 0.625
90.4216 0.937
90.4518 0.937
90.4821 0.729
90.5124 0.729
90.5427 1.094
90.5730 0.729
90.6032 0.781
90.6335 0.729
90.6638 1.250
90.6941 0.833
90.7244 0.729
90.7546 0.990
90.7849 0.990
90.8152 0.937
90.8455 0.729
90.8758 1.094
90.9060 0.990
90.9363 0.417
90.9666 1.146
90.9969 0.521
91.0271 0.677
91.0574 0.937
91.0877 0.781
91.1180 0.729
91.1483 0.885
91.1785 0.833
91.2088 0.937
91.2391 0.833
91.2694 0.990
91.2997 0.573
91.3299 0.521
91.3602 0.885
91.3905 0.885
91.4208 0.469
91.4510 0.625
91.4813 0.833
91.5116 0.729
91.5419 0.781
91.5722 0.625
91.6024 0.729
91.6327 0.573
91.6630 0.729
91.6933 0.990
91.7236 1.094
91.7538 0.677
91.7841 0.729
91.8144 0.885
91.8447 0.521
91.8749 0.729
91.9052 0.833
91.9355 0.781
91.9658 0.729
91.9961 0.833
92.0263 0.885
92.0566 0.729
92.0869 0.833
92.1172 0.833
92.1475 0.677
92.1777 0.990
92.2080 1.198
92.2383 1.146
92.2686 0.937
92.2988 1.250
92.3291 0.885
92.3594 0.573
92.3897 0.625
92.4200 1.302
92.4502 0.885
92.4805 0.729
92.5108 0.937
92.5411 1.042
92.5714 1.042
92.6016 1.042
92.6319 1.250
92.6622 1.198
92.6925 0.937
92.7227 0.677
92.7530 1.094
92.7833 1.198
92.8136 0.885
92.8439 0.729
92.8741 0.990
92.9044 1.094
92.9347 0.781
92.9650 1.198
92.9953 0.729
93.0255 0.833
93.0558 1.094
93.0861 0.729
93.1164 0.990
93.1466 0.781
93.1769 0.625
93.2072 0.677
93.2375 1.146
93.2678 0.990
93.2980 0.937
93.3283 0.729
93.3586 0.990
93.3889 0.781
93.4192 0.833
93.4494 1.198
93.4797 0.729
93.5100 0.885
93.5403 0.573
93.5706 1.094
93.6008 0.521
93.6311 0.625
93.6614 0.417
93.6917 0.885
93.7219 0.729
93.7522 0.625
93.7825 1.042
93.8128 1.146
93.8431 0.729
93.8733 0.833
93.9036 0.625
93.9339 0.521
93.9642 0.729
93.9945 0.833
94.0247 0.365
94.0550 0.677
94.0853 1.094
94.1156 0.573
94.1458 0.990
94.1761 0.990
94.2064 0.990
94.2367 0.573
94.2670 0.937
94.2972 0.677
94.3275 0.885
94.3578 0.729
94.3881 1.250
94.4184 1.146
94.4486 1.302
94.4789 0.729
94.5092 1.094
94.5395 0.885
94.5697 0.833
94.6000 1.250
94.6303 0.625
94.6606 0.990
94.6909 1.198
94.7211 1.146
94.7514 1.250
94.7817 0.937
94.8120 1.250
94.8423 1.302
94.8725 1.302
94.9028 1.146
94.9331 1.354
94.9634 0.990
94.9936 1.302
95.0239 1.250
95.0542 1.198
95.0845 1.719
95.1148 1.667
95.1450 1.354
95.1753 1.458
95.2056 1.354
95.2359 1.667
95.2662 1.719
95.2964 1.719
95.3267 1.042
95.3570 1.406
95.3873 1.667
95.4175 1.406
95.4478 1.719
95.4781 1.146
95.5084 1.302
95.5387 1.198
95.5689 1.562
95.5992 0.833
95.6295 1.198
95.6598 0.990
95.6901 1.250
95.7203 0.937
95.7506 1.198
95.7809 1.458
95.8112 0.729
95.8414 1.094
95.8717 0.625
95.9020 0.990
95.9323 0.729
95.9626 1.250
95.9928 0.729
96.0231 0.937
96.0534 0.937
96.0837 0.729
96.1140 0.885
96.1442 1.198
96.1745 0.677
96.2048 0.937
96.2351 0.885
96.2653 0.990
96.2956 1.094
96.3259 0.833
96.3562 0.677
96.3865 0.781
96.4167 0.573
96.4470 0.469
96.4773 0.469
96.5076 1.042
96.5379 0.729
96.5681 0.625
96.5984 0.729
96.6287 0.833
96.6590 0.937
96.6893 0.729
96.7195 0.729
96.7498 1.042
96.7801 0.885
96.8104 0.833
96.8406 0.625
96.8709 0.677
96.9012 0.885
96.9315 0.573
96.9618 0.573
96.9920 0.833
97.0223 0.729
97.0526 0.573
97.0829 0.521
97.1132 1.042
97.1434 0.469
97.1737 1.094
97.2040 1.198
97.2343 0.885
97.2645 0.781
97.2948 0.573
97.3251 0.937
97.3554 0.677
97.3857 0.781
97.4159 0.885
97.4462 0.885
97.4765 0.677
97.5068 0.781
97.5371 0.833
97.5673 1.094
97.5976 0.990
97.6279 0.677
97.6582 1.250
97.6884 0.833
97.7187 0.469
97.7490 0.573
97.7793 0.781
97.8096 0.781
97.8398 1.042
97.8701 0.625
97.9004 0.781
97.9307 0.781
97.9610 0.990
97.9912 1.562
98.0215 0.781
98.0518 1.094
98.0821 0.781
98.1123 0.885
98.1426 0.990
98.1729 0.885
98.2032 0.990
98.2335 1.302
98.2637 1.198
98.2940 1.042
98.3243 1.458
98.3546 1.146
98.3849 1.042
98.4151 1.094
98.4454 1.042
98.4757 0.885
98.5060 1.146
98.5362 0.990
98.5665 0.937
98.5968 1.198
98.6271 0.937
98.6574 1.042
98.6876 0.729
98.7179 0.781
98.7482 1.146
98.7785 0.990
98.8088 1.250
98.8390 1.094
98.8693 1.094
98.8996 1.198
98.9299 0.677
98.9601 0.937
98.9904 0.990
99.0207 0.937
99.0510 1.458
99.0813 1.146
99.1115 0.990
99.1418 0.833
99.1721 0.781
99.2024 1.042
99.2327 0.677
99.2629 0.573
99.2932 0.937
99.3235 0.781
99.3538 0.781
99.3841 0.729
99.4143 1.042
99.4446 0.729
99.4749 1.094
99.5052 0.781
99.5354 0.885
99.5657 0.677
99.5960 0.833
99.6263 0.781
99.6566 0.990
99.6868 0.729
99.7171 1.198
99.7474 1.042
99.7777 1.094
99.8080 0.937
99.8382 0.625
99.8685 0.729
99.8988 0.729
99.9291 0.677
99.9593 0.885
99.9896 0.677
100.0199 1.094
100.0502 0.729
100.0805 0.677
100.1107 0.521
100.1410 1.042
100.1713 0.625
100.2016 0.729
100.2319 0.833
100.2621 0.677
100.2924 0.677
100.3227 0.937
100.3530 0.625
100.3832 0.677
100.4135 0.521
100.4438 0.885
100.4741 0.781
100.5044 0.573
100.5346 0.937
100.5649 0.729
100.5952 0.885
100.6255 0.937
100.6558 0.781
100.6860 0.885
100.7163 0.781
100.7466 0.677
100.7769 0.677
100.8071 0.937
100.8374 0.677
100.8677 1.146
100.8980 1.042
100.9283 0.833
100.9585 0.729
100.9888 1.042
101.0191 0.781
101.0494 0.677
101.0797 1.198
101.1099 0.677
101.1402 0.833
101.1705 0.885
101.2008 0.260
101.2310 0.573
101.2613 1.719
101.2916 1.094
101.3219 0.885
101.3522 0.729
101.3824 0.990
101.4127 0.990
101.4430 0.781
101.4733 0.521
101.5036 0.833
101.5338 0.573
101.5641 0.729
101.5944 0.990
101.6247 0.781
101.6549 0.729
101.6852 0.781
101.7155 0.677
101.7458 0.885
101.7761 0.729
101.8063 0.417
101.8366 0.677
101.8669 0.990
101.8972 0.885
101.9275 0.677
101.9577 0.677
101.9880 0.677
102.0183 0.885
102.0486 0.729
102.0788 0.885
102.1091 0.781
102.1394 0.729
102.1697 0.833
102.2000 0.781
102.2302 1.094
102.2605 0.833
102.2908 1.354
102.3211 0.885
102.3514 0.781
102.3816 1.198
102.4119 1.042
102.4422 0.990
102.4725 0.833
102.5028 0.885
102.5330 0.729
102.5633 1.042
102.5936 0.990
102.6239 1.146
102.6541 0.885
102.6844 1.354
102.7147 1.042
102.7450 1.458
102.7753 1.146
102.8055 0.833
102.8358 0.990
102.8661 1.198
102.8964 1.146
102.9267 1.146
102.9569 0.833
102.9872 0.990
103.0175 0.937
103.0478 0.625
103.0780 0.729
103.1083 0.885
103.1386 1.094
103.1689 1.198
103.1992 1.146
103.2294 1.354
103.2597 0.781
103.2900 0.833
103.3203 0.781
103.3506 0.521
103.3808 0.990
103.4111 1.354
103.4414 1.771
103.4717 1.250
103.5019 0.937
103.5322 1.510
103.5625 1.250
103.5928 1.250
103.6231 1.406
103.6533 0.885
103.6836 1.719
103.7139 1.146
103.7442 1.250
103.7745 0.937
103.8047 1.354
103.8350 1.406
103.8653 1.719
103.8956 1.406
103.9258 0.833
103.9561 1.198
103.9864 1.354
104.0167 1.667
104.0470 1.927
104.0772 1.406
104.1075 1.198
104.1378 1.667
104.1681 1.406
104.1984 1.146
104.2286 1.875
104.2589 1.615
104.2892 0.990
104.3195 1.302
104.3497 0.885
104.3800 1.042
104.4103 1.667
104.4406 1.042
104.4709 0.885
104.5011 1.406
104.5314 1.406
104.5617 0.990
104.5920 1.302
104.6223 0.729
104.6525 0.833
104.6828 0.833
104.7131 0.833
104.7434 1.354
104.7736 1.094
104.8039 1.250
104.8342 0.833
104.8645 0.781
104.8948 1.302
104.9250 1.094
104.9553 0.625
104.9856 1.250
105.0159 0.990
105.0462 1.094
105.0764 0.781
105.1067 0.937
105.1370 1.406
105.1673 0.781
105.1975 0.885
105.2278 0.990
105.2581 0.781
105.2884 0.885
105.3187 0.677
105.3489 0.937
105.3792 1.302
105.4095 0.625
105.4398 0.833
105.4701 1.406
105.5003 0.677
105.5306 0.677
105.5609 0.729
105.5912 0.677
105.6215 0.729
105.6517 0.885
105.6820 0.781
105.7123 1.198
105.7426 0.990
105.7728 1.146
105.8031 0.781
105.8334 0.781
105.8637 0.573
105.8940 0.990
105.9242 0.521
105.9545 0.833
105.9848 0.885
106.0151 1.042
106.0454 1.042
106.0756 0.625
106.1059 0.573
106.1362 0.729
106.1665 0.781
106.1967 0.625
106.2270 0.990
106.2573 0.781
106.2876 0.417
106.3179 0.521
106.3481 0.781
106.3784 0.885
106.4087 0.625
106.4390 0.521
106.4693 0.937
106.4995 0.573
106.5298 0.469
106.5601 0.937
106.5904 0.625
106.6206 0.990
106.6509 0.781
106.6812 0.885
106.7115 0.833
106.7418 0.833
106.7720 0.833
106.8023 0.833
106.8326 0.885
106.8629 0.781
106.8932 0.833
106.9234 0.990
106.9537 0.781
106.9840 0.937
107.0143 0.573
107.0445 0.781
107.0748 0.885
107.1051 0.781
107.1354 0.625
107.1657 0.677
107.1959 0.781
107.2262 0.833
107.2565 1.198
107.2868 0.833
107.3171 1.042
107.3473 0.729
107.3776 0.573
107.4079 0.833
107.4382 0.781
107.4684 0.625
107.4987 0.729
107.5290 1.042
107.5593 0.885
107.5896 0.521
107.6198 0.937
107.6501 0.937
107.6804 0.885
107.7107 0.885
107.7410 0.937
107.7712 0.625
107.8015 0.781
107.8318 0.677
107.8621 0.990
107.8923 1.146
107.9226 0.521
107.9529 0.781
107.9832 0.781
108.0135 1.250
108.0437 0.885
108.0740 0.781
108.1043 0.469
108.1346 0.729
108.1649 0.990
108.1951 0.885
108.2254 0.833
108.2557 0.990
108.2860 0.781
108.3163 0.833
108.3465 0.729
108.3768 1.198
108.4071 0.885
108.4374 1.094
108.4676 0.625
108.4979 1.146
108.5282 1.198
108.5585 0.937
108.5888 0.573
108.6190 0.729
108.6493 0.937
108.6796 0.937
108.7099 0.833
108.7402 0.937
108.7704 0.677
108.8007 0.937
108.8310 0.885
108.8613 0.937
108.8915 0.729
108.9218 1.094
108.9521 0.937
108.9824 1.146
109.0127 0.729
109.0429 0.781
109.0732 0.833
109.1035 0.573
109.1338 0.729
109.1641 0.937
109.1943 1.042
109.2246 1.094
109.2549 1.146
109.2852 0.729
109.3154 1.042
109.3457 1.250
109.3760 0.990
109.4063 0.573
109.4366 0.833
109.4668 0.469
109.4971 0.990
109.5274 0.833
109.5577 0.833
109.5880 0.833
109.6182 0.833
109.6485 0.781
109.6788 0.677
109.7091 0.833
109.7393 0.937
109.7696 1.042
109.7999 1.198
109.8302 1.094
109.8605 0.885
109.8907 0.677
109.9210 0.833
109.9513 0.990
109.9816 1.146
110.0119 0.781
110.0421 1.042
110.0724 1.094
110.1027 0.885
110.1330 1.042
110.1632 0.990
110.1935 1.562
110.2238 1.354
110.2541 1.042
110.2844 0.990
110.3146 0.990
110.3449 0.729
110.3752 0.937
110.4055 0.885
110.4358 0.521
110.4660 1.562
110.4963 1.094
110.5266 0.937
110.5569 0.729
110.5871 1.042
110.6174 1.250
110.6477 0.885
110.6780 1.094
110.7083 1.562
110.7385 0.990
110.7688 1.302
110.7991 0.625
110.8294 0.781
110.8597 1.354
110.8899 1.042
110.9202 0.937
110.9505 0.573
110.9808 0.729
111.0110 0.729
111.0413 1.042
111.0716 0.990
111.1019 0.781
111.1322 0.625
111.1624 0.990
111.1927 0.729
111.2230 0.833
111.2533 0.990
111.2836 0.833
111.3138 0.833
111.3441 0.781
111.3744 1.406
111.4047 0.990
111.4350 0.937
111.4652 0.937
111.4955 0.833
111.5258 0.885
111.5561 0.781
111.5863 0.990
111.6166 0.781
111.6469 0.781
111.6772 0.833
111.7075 0.781
111.7377 1.094
111.7680 0.677
111.7983 0.781
111.8286 0.781
111.8589 0.990
111.8891 0.990
111.9194 0.781
111.9497 1.198
111.9800 0.990
112.0102 0.729
112.0405 0.781
112.0708 0.625
112.1011 0.833
112.1314 0.729
112.1616 0.729
112.1919 0.625
112.2222 1.250
112.2525 0.625
112.2828 0.990
112.3130 0.729
112.3433 0.937
112.3736 0.677
112.4039 0.729
112.4341 0.729
112.4644 1.198
112.4947 0.885
112.5250 0.833
112.5553 0.833
112.5855 1.042
112.6158 0.677
112.6461 0.417
112.6764 0.260
112.7067 0.677
112.7369 0.781
112.7672 0.625
112.7975 0.729
112.8278 0.833
112.8580 0.885
112.8883 1.146
112.9186 0.781
112.9489 0.885
112.9792 1.198
113.0094 0.677
113.0397 0.729
113.0700 0.937
113.1003 0.677
113.1306 0.937
113.1608 0.885
113.1911 0.677
113.2214 0.677
113.2517 0.885
113.2819 0.937
113.3122 0.625
113.3425 1.042
113.3728 1.146
113.4031 1.042
113.4333 0.729
113.4636 0.781
113.4939 0.833
113.5242 0.781
113.5545 0.417
113.5847 1.250
113.6150 1.042
113.6453 0.781
113.6756 0.729
113.7058 1.042
113.7361 0.885
113.7664 1.198
113.7967 0.885
113.8270 0.677
113.8572 0.417
113.8875 0.990
113.9178 0.521
113.9481 0.885
113.9784 0.521
114.0086 0.885
114.0389 0.990
114.0692 0.521
114.0995 1.302
114.1298 1.094
114.1600 1.250
114.1903 0.729
114.2206 1.094
114.2509 0.781
114.2811 0.573
114.3114 1.042
114.3417 0.677
114.3720 0.677
114.4023 0.885
114.4325 0.937
114.4628 0.885
114.4931 0.469
114.5234 0.521
114.5537 0.937
114.5839 0.573
114.6142 0.885
114.6445 0.833
114.6748 0.781
114.7050 0.625
114.7353 0.990
114.7656 1.094
114.7959 0.885
114.8262 0.625
114.8564 0.833
114.8867 1.302
114.9170 1.042
114.9473 0.937
114.9776 0.781
115.0078 0.729
115.0381 0.521
115.0684 0.990
115.0987 0.990
115.1289 1.094
115.1592 0.677
115.1895 1.094
115.2198 1.198
115.2501 1.146
115.2803 1.042
115.3106 1.042
115.3409 0.573
115.3712 0.937
115.4015 0.729
115.4317 0.990
115.4620 1.198
115.4923 1.094
115.5226 1.354
115.5528 1.198
115.5831 0.885
115.6134 1.562
115.6437 0.885
115.6740 1.042
115.7042 1.302
115.7345 0.781
115.7648 1.302
115.7951 1.406
115.8254 0.937
115.8556 1.146
115.8859 1.458
115.9162 1.042
115.9465 1.406
115.9767 0.990
116.0070 1.510
116.0373 1.146
116.0676 1.094
116.0979 1.042
116.1281 1.042
116.1584 1.562
116.1887 1.198
116.2190 0.885
116.2493 1.250
116.2795 0.990
116.3098 1.667
116.3401 1.354
116.3704 1.719
116.4006 1.302
116.4309 1.562
116.4612 1.302
116.4915 1.094
116.5218 1.510
116.5520 0.781
116.5823 0.729
116.6126 1.198
116.6429 1.302
116.6732 0.885
116.7034 1.406
116.7337 1.250
116.7640 1.458
116.7943 1.510
116.8245 1.042
116.8548 1.354
116.8851 1.510
116.9154 1.094
116.9457 1.771
116.9759 0.677
117.0062 1.354
117.0365 1.094
117.0668 1.667
117.0971 0.625
117.1273 1.094
117.1576 0.990
117.1879 0.885
117.2182 0.885
117.2485 1.198
117.2787 0.833
117.3090 0.885
117.3393 1.094
117.3696 1.406
117.3998 0.937
117.4301 1.198
117.4604 0.729
117.4907 0.990
117.5210 0.885
117.5512 0.833
117.5815 0.833
117.6118 0.990
117.6421 1.302
117.6724 1.146
117.7026 0.990
117.7329 0.625
117.7632 1.042
117.7935 0.729
117.8237 1.406
117.8540 1.146
117.8843 0.521
117.9146 0.990
117.9449 0.833
117.9751 0.573
118.0054 1.042
118.0357 0.833
118.0660 0.781
118.0963 1.250
118.1265 1.198
118.1568 0.937
118.1871 0.729
118.2174 0.833
118.2476 1.042
118.2779 0.937
118.3082 0.417
118.3385 1.146
118.3688 1.250
118.3990 0.781
118.4293 1.042
118.4596 0.833
118.4899 1.094
118.5202 0.469
118.5504 0.990
118.5807 0.677
118.6110 0.990
118.6413 0.885
118.6715 1.146
118.7018 1.406
118.7321 0.677
118.7624 0.625
118.7927 0.937
118.8229 0.781
118.8532 0.781
118.8835 0.729
118.9138 0.781
118.9441 0.573
118.9743 0.781
119.0046 0.990
119.0349 1.198
119.0652 0.885
119.0954 0.781
119.1257 0.677
119.1560 0.833
119.1863 0.937
119.2166 0.625
119.2468 0.677
119.2771 0.625
119.3074 0.365
119.3377 0.469
119.3680 0.990
119.3982 0.937
119.4285 0.885
119.4588 0.781
119.4891 0.625
119.5193 0.990
119.5496 0.625
119.5799 0.729
119.6102 0.729
119.6405 0.469
119.6707 0.833
119.7010 0.469
119.7313 1.042
119.7616 0.781
119.7919 0.625
119.8221 0.990
119.8524 1.354
119.8827 0.625
119.9130 0.573
119.9433 0.521
119.9735 0.990
120.0038 0.781
