'Id: "" Comment: "" Operator: "Lab Manager" Anode: "Cu" Scantype: "Locked Coupled" TimePerStep: "19.2" X: "9999" Y: "9999" Z: "9999" 
10.0015 3.906
10.0318 3.542
10.0620 3.333
10.0923 3.021
10.1226 3.333
10.1529 2.917
10.1832 2.917
10.2134 4.479
10.2437 2.760
10.2740 3.437
10.3043 3.594
10.3346 3.437
10.3648 2.760
10.3951 3.177
10.4254 3.177
10.4557 2.500
10.4859 3.333
10.5162 4.323
10.5465 3.802
10.5768 3.333
10.6071 2.917
10.6373 3.646
10.6676 3.698
10.6979 4.167
10.7282 4.323
10.7585 4.167
10.7887 2.448
10.8190 4.271
10.8493 4.219
10.8796 4.375
10.9098 5.260
10.9401 4.896
10.9704 6.042
11.0007 6.354
11.0310 8.802
11.0612 8.385
11.0915 9.948
11.1218 10.000
11.1521 9.740
11.1824 9.167
11.2126 8.333
11.2429 6.719
11.2732 5.833
11.3035 5.469
11.3337 3.958
11.3640 4.062
11.3943 4.062
11.4246 3.750
11.4549 4.062
11.4851 4.115
11.5154 2.865
11.5457 3.854
11.5760 2.917
11.6063 3.437
11.6365 4.115
11.6668 2.552
11.6971 3.021
11.7274 3.490
11.7577 4.219
11.7879 3.437
11.8182 3.073
11.8485 2.812
11.8788 3.125
11.9090 3.229
11.9393 3.958
11.9696 3.229
11.9999 2.917
12.0302 2.656
12.0604 2.969
12.0907 2.760
12.1210 2.656
12.1513 3.437
12.1816 2.708
12.2118 3.125
12.2421 4.010
12.2724 3.490
12.3027 3.490
12.3329 2.812
12.3632 3.281
12.3935 2.917
12.4238 2.760
12.4541 3.542
12.4843 2.812
12.5146 2.656
12.5449 3.750
12.5752 3.281
12.6055 3.125
12.6357 3.073
12.6660 3.698
12.6963 3.281
12.7266 3.177
12.7568 3.021
12.7871 3.542
12.8174 3.229
12.8477 3.906
12.8780 2.656
12.9082 2.865
12.9385 3.750
12.9688 2.344
12.9991 2.760
13.0294 3.229
13.0596 3.125
13.0899 2.500
13.1202 2.917
13.1505 2.708
13.1807 2.552
13.2110 2.865
13.2413 2.917
13.2716 2.917
13.3019 3.646
13.3321 2.604
13.3624 2.917
13.3927 3.490
13.4230 3.229
13.4533 2.708
13.4835 2.396
13.5138 2.187
13.5441 2.552
13.5744 2.240
13.6046 1.771
13.6349 2.083
13.6652 2.604
13.6955 3.333
13.7258 2.708
13.7560 2.396
13.7863 2.917
13.8166 2.292
13.8469 2.240
13.8772 2.917
13.9074 2.656
13.9377 2.187
13.9680 2.812
13.9983 1.719
14.0285 3.281
14.0588 1.719
14.0891 2.552
14.1194 2.760
14.1497 2.552
14.1799 2.187
14.2102 2.448
14.2405 3.073
14.2708 2.917
14.3011 2.760
14.3313 2.552
14.3616 2.917
14.3919 2.135
14.4222 2.500
14.4524 2.708
14.4827 2.292
14.5130 2.187
14.5433 2.396
14.5736 2.344
14.6038 1.979
14.6341 2.031
14.6644 2.344
14.6947 3.802
14.7250 2.604
14.7552 2.292
14.7855 3.073
14.8158 2.344
14.8461 2.187
14.8764 2.240
14.9066 2.292
14.9369 2.917
14.9672 2.812
14.9975 2.396
15.0277 2.292
15.0580 2.604
15.0883 2.500
15.1186 2.552
15.1489 1.979
15.1791 2.865
15.2094 3.229
15.2397 1.875
15.2700 2.604
15.3003 2.604
15.3305 2.396
15.3608 2.552
15.3911 3.021
15.4214 1.979
15.4516 2.969
15.4819 2.448
15.5122 2.344
15.5425 2.656
15.5728 2.396
15.6030 2.396
15.6333 2.604
15.6636 1.510
15.6939 2.031
15.7242 2.760
15.7544 1.875
15.7847 3.073
15.8150 1.875
15.8453 2.292
15.8755 2.292
15.9058 2.292
15.9361 2.396
15.9664 2.656
15.9967 2.187
16.0269 2.135
16.0572 2.552
16.0875 1.875
16.1178 2.344
16.1481 1.979
16.1783 2.396
16.2086 1.875
16.2389 2.448
16.2692 2.135
16.2994 2.344
16.3297 2.708
16.3600 1.823
16.3903 1.927
16.4206 1.823
16.4508 2.292
16.4811 2.396
16.5114 2.760
16.5417 2.187
16.5720 1.719
16.6022 1.927
16.6325 2.656
16.6628 2.292
16.6931 2.292
16.7233 2.865
16.7536 1.927
16.7839 2.656
16.8142 1.927
16.8445 3.594
16.8747 2.083
16.9050 2.240
16.9353 2.969
16.9656 1.979
16.9959 1.979
17.0261 1.927
17.0564 2.604
17.0867 2.083
17.1170 2.187
17.1472 2.708
17.1775 1.458
17.2078 2.187
17.2381 2.448
17.2684 2.708
17.2986 2.187
17.3289 2.292
17.3592 2.448
17.3895 2.031
17.4198 2.083
17.4500 1.875
17.4803 2.656
17.5106 2.031
17.5409 2.396
17.5712 1.667
17.6014 2.708
17.6317 2.031
17.6620 1.771
17.6923 2.240
17.7225 1.927
17.7528 2.031
17.7831 1.927
17.8134 2.344
17.8437 2.292
17.8739 1.719
17.9042 1.562
17.9345 2.187
17.9648 1.823
17.9951 2.031
18.0253 2.083
18.0556 1.615
18.0859 1.667
18.1162 1.823
18.1464 2.292
18.1767 2.604
18.2070 1.771
18.2373 1.458
18.2676 2.135
18.2978 1.979
18.3281 2.396
18.3584 2.240
18.3887 1.979
18.4190 2.604
18.4492 1.979
18.4795 2.552
18.5098 2.135
18.5401 1.979
18.5703 2.031
18.6006 1.562
18.6309 1.823
18.6612 1.719
18.6915 2.031
18.7217 1.875
18.7520 1.927
18.7823 1.823
18.8126 2.187
18.8429 2.031
18.8731 1.927
18.9034 1.979
18.9337 1.927
18.9640 1.510
18.9942 1.562
19.0245 2.240
19.0548 2.083
19.0851 2.083
19.1154 2.187
19.1456 1.406
19.1759 1.198
19.2062 1.927
19.2365 1.875
19.2668 2.292
19.2970 2.292
19.3273 1.823
19.3576 1.979
19.3879 1.875
19.4181 1.615
19.4484 2.031
19.4787 1.562
19.5090 1.719
19.5393 1.875
19.5695 1.719
19.5998 2.083
19.6301 1.771
19.6604 1.875
19.6907 2.344
19.7209 2.031
19.7512 2.083
19.7815 2.240
19.8118 1.927
19.8420 2.083
19.8723 1.823
19.9026 1.979
19.9329 2.344
19.9632 1.458
19.9934 1.979
20.0237 1.354
20.0540 1.927
20.0843 1.615
20.1146 2.656
20.1448 1.771
20.1751 1.823
20.2054 1.823
20.2357 1.875
20.2659 1.562
20.2962 1.562
20.3265 2.135
20.3568 2.187
20.3871 2.656
20.4173 2.344
20.4476 2.240
20.4779 1.719
20.5082 2.135
20.5385 1.458
20.5687 1.823
20.5990 1.510
20.6293 1.510
20.6596 2.240
20.6899 1.615
20.7201 1.875
20.7504 1.875
20.7807 2.031
20.8110 1.771
20.8412 1.354
20.8715 1.875
20.9018 1.719
20.9321 1.562
20.9624 1.146
20.9926 1.615
21.0229 2.292
21.0532 1.719
21.0835 1.562
21.1138 1.354
21.1440 1.979
21.1743 2.552
21.2046 1.719
21.2349 1.927
21.2651 1.823
21.2954 2.031
21.3257 1.562
21.3560 1.875
21.3863 1.927
21.4165 1.198
21.4468 1.719
21.4771 1.354
21.5074 1.562
21.5377 2.240
21.5679 2.344
21.5982 1.979
21.6285 1.823
21.6588 2.083
21.6890 1.823
21.7193 1.875
21.7496 1.719
21.7799 1.667
21.8102 2.240
21.8404 1.823
21.8707 1.771
21.9010 1.250
21.9313 1.354
21.9616 1.771
21.9918 1.562
22.0221 1.875
22.0524 2.031
22.0827 0.990
22.1129 1.719
22.1432 1.771
22.1735 1.562
22.2038 1.302
22.2341 1.510
22.2643 0.990
22.2946 1.823
22.3249 1.875
22.3552 1.510
22.3855 1.927
22.4157 1.719
22.4460 1.615
22.4763 1.771
22.5066 2.448
22.5368 1.719
22.5671 2.240
22.5974 1.667
22.6277 1.927
22.6580 1.875
22.6882 2.292
22.7185 1.562
22.7488 1.667
22.7791 1.979
22.8094 2.656
22.8396 1.875
22.8699 1.042
22.9002 1.562
22.9305 1.406
22.9607 1.042
22.9910 1.979
23.0213 1.719
23.0516 1.458
23.0819 1.875
23.1121 1.927
23.1424 1.615
23.1727 2.031
23.2030 1.719
23.2333 1.250
23.2635 1.615
23.2938 1.615
23.3241 1.458
23.3544 1.510
23.3846 1.354
23.4149 1.406
23.4452 1.719
23.4755 1.354
23.5058 1.354
23.5360 1.302
23.5663 1.302
23.5966 1.458
23.6269 1.719
23.6572 2.396
23.6874 1.510
23.7177 2.031
23.7480 1.510
23.7783 1.458
23.8086 1.719
23.8388 2.083
23.8691 1.562
23.8994 1.146
23.9297 1.615
23.9599 1.875
23.9902 1.302
24.0205 2.187
24.0508 1.823
24.0811 1.406
24.1113 2.135
24.1416 1.979
24.1719 1.562
24.2022 1.667
24.2325 1.771
24.2627 1.406
24.2930 1.771
24.3233 1.094
24.3536 1.927
24.3838 0.781
24.4141 1.562
24.4444 1.562
24.4747 2.083
24.5050 1.615
24.5352 1.719
24.5655 1.510
24.5958 1.979
24.6261 1.771
24.6564 1.979
24.6866 2.031
24.7169 1.562
24.7472 1.406
24.7775 2.031
24.8077 1.562
24.8380 2.344
24.8683 2.135
24.8986 1.615
24.9289 0.990
24.9591 1.510
24.9894 1.719
25.0197 2.344
25.0500 1.875
25.0803 1.615
25.1105 1.823
25.1408 2.031
25.1711 1.875
25.2014 1.667
25.2316 1.302
25.2619 2.135
25.2922 1.510
25.3225 1.458
25.3528 1.406
25.3830 1.771
25.4133 2.552
25.4436 1.302
25.4739 2.083
25.5042 1.562
25.5344 1.615
25.5647 1.562
25.5950 1.302
25.6253 1.302
25.6555 2.135
25.6858 2.187
25.7161 1.771
25.7464 1.875
25.7767 1.562
25.8069 1.927
25.8372 1.406
25.8675 1.875
25.8978 1.094
25.9281 1.354
25.9583 1.927
25.9886 1.771
26.0189 1.458
26.0492 2.240
26.0794 1.146
26.1097 1.875
26.1400 1.562
26.1703 1.562
26.2006 1.354
26.2308 1.927
26.2611 1.719
26.2914 1.250
26.3217 1.719
26.3520 1.667
26.3822 1.771
26.4125 2.292
26.4428 1.771
26.4731 1.354
26.5034 1.458
26.5336 1.562
26.5639 1.198
26.5942 2.240
26.6245 1.719
26.6547 1.823
26.6850 1.719
26.7153 1.615
26.7456 1.771
26.7759 1.823
26.8061 1.771
26.8364 1.771
26.8667 1.667
26.8970 2.187
26.9273 1.615
26.9575 2.187
26.9878 1.562
27.0181 1.615
27.0484 1.667
27.0786 1.875
27.1089 1.667
27.1392 2.083
27.1695 1.302
27.1998 1.979
27.2300 2.083
27.2603 1.719
27.2906 1.458
27.3209 1.875
27.3512 1.719
27.3814 1.615
27.4117 1.823
27.4420 1.771
27.4723 1.719
27.5025 1.667
27.5328 1.458
27.5631 1.562
27.5934 1.406
27.6237 1.615
27.6539 1.823
27.6842 1.927
27.7145 1.406
27.7448 1.823
27.7751 1.979
27.8053 2.552
27.8356 1.562
27.8659 1.615
27.8962 1.823
27.9264 2.031
27.9567 1.615
27.9870 1.354
28.0173 1.875
28.0476 1.771
28.0778 1.667
28.1081 1.510
28.1384 1.615
28.1687 1.615
28.1990 1.615
28.2292 1.146
28.2595 1.719
28.2898 2.031
28.3201 1.458
28.3503 1.667
28.3806 1.510
28.4109 1.719
28.4412 2.292
28.4715 2.031
28.5017 2.135
28.5320 1.719
28.5623 1.615
28.5926 1.927
28.6229 1.771
28.6531 1.667
28.6834 1.458
28.7137 1.302
28.7440 1.667
28.7742 1.667
28.8045 2.344
28.8348 1.354
28.8651 1.562
28.8954 1.562
28.9256 1.406
28.9559 2.240
28.9862 2.292
29.0165 1.823
29.0468 1.719
29.0770 2.344
29.1073 1.510
29.1376 1.458
29.1679 2.031
29.1981 1.510
29.2284 1.719
29.2587 2.083
29.2890 1.927
29.3193 1.615
29.3495 1.875
29.3798 1.562
29.4101 1.667
29.4404 1.667
29.4707 1.198
29.5009 2.031
29.5312 1.667
29.5615 1.875
29.5918 1.771
29.6221 2.187
29.6523 2.500
29.6826 1.823
29.7129 1.771
29.7432 1.875
29.7734 2.031
29.8037 1.562
29.8340 1.771
29.8643 1.719
29.8946 1.979
29.9248 2.083
29.9551 1.927
29.9854 2.083
30.0157 2.031
30.0460 2.292
30.0762 2.500
30.1065 2.135
30.1368 2.135
30.1671 2.187
30.1973 1.667
30.2276 2.344
30.2579 3.073
30.2882 2.760
30.3185 1.927
30.3487 2.708
30.3790 2.969
30.4093 2.604
30.4396 2.240
30.4699 2.344
30.5001 2.396
30.5304 3.333
30.5607 2.604
30.5910 2.448
30.6212 2.760
30.6515 2.917
30.6818 3.177
30.7121 3.333
30.7424 3.385
30.7726 3.021
30.8029 3.177
30.8332 4.010
30.8635 4.323
30.8938 4.167
30.9240 3.854
30.9543 3.802
30.9846 4.948
31.0149 4.896
31.0451 3.594
31.0754 3.646
31.1057 5.156
31.1360 6.094
31.1663 6.094
31.1965 6.198
31.2268 7.969
31.2571 7.240
31.2874 8.125
31.3177 8.958
31.3479 10.469
31.3782 13.177
31.4085 12.240
31.4388 14.479
31.4690 17.500
31.4993 20.417
31.5296 22.083
31.5599 23.542
31.5902 22.708
31.6204 27.292
31.6507 26.250
31.6810 26.146
31.7113 21.615
31.7416 19.896
31.7718 16.615
31.8021 14.635
31.8324 13.229
31.8627 12.344
31.8929 9.896
31.9232 7.448
31.9535 7.240
31.9838 7.187
32.0141 7.344
32.0443 7.187
32.0746 7.292
32.1049 6.094
32.1352 5.469
32.1655 4.479
32.1957 4.948
32.2260 4.010
32.2563 4.375
32.2866 3.490
32.3169 4.479
32.3471 2.865
32.3774 2.344
32.4077 2.969
32.4380 2.760
32.4682 3.281
32.4985 3.125
32.5288 3.490
32.5591 3.594
32.5894 3.281
32.6196 3.542
32.6499 2.969
32.6802 3.229
32.7105 3.177
32.7408 3.073
32.7710 3.385
32.8013 2.812
32.8316 3.021
32.8619 2.552
32.8921 2.344
32.9224 2.552
32.9527 2.656
32.9830 2.656
33.0133 2.656
33.0435 2.448
33.0738 2.500
33.1041 2.083
33.1344 3.125
33.1647 1.771
33.1949 2.708
33.2252 2.604
33.2555 3.542
33.2858 2.656
33.3160 3.281
33.3463 2.344
33.3766 2.344
33.4069 2.604
33.4372 3.073
33.4674 2.292
33.4977 2.448
33.5280 3.490
33.5583 3.646
33.5886 3.125
33.6188 2.396
33.6491 3.385
33.6794 2.917
33.7097 3.125
33.7399 3.594
33.7702 4.271
33.8005 4.115
33.8308 3.594
33.8611 4.167
33.8913 3.542
33.9216 5.000
33.9519 6.250
33.9822 6.146
34.0125 6.823
34.0427 7.396
34.0730 8.385
34.1033 10.469
34.1336 12.500
34.1638 14.062
34.1941 19.479
34.2244 25.677
34.2547 28.958
34.2850 28.125
34.3152 26.667
34.3455 24.010
34.3758 21.198
34.4061 14.531
34.4364 12.448
34.4666 10.990
34.4969 8.125
34.5272 8.385
34.5575 5.781
34.5877 6.302
34.6180 5.104
34.6483 4.167
34.6786 4.896
34.7089 3.854
34.7391 4.167
34.7694 3.906
34.7997 4.167
34.8300 3.698
34.8603 4.219
34.8905 4.271
34.9208 3.646
34.9511 3.021
34.9814 3.646
35.0116 3.802
35.0419 4.896
35.0722 3.385
35.1025 3.646
35.1328 3.229
35.1630 3.490
35.1933 3.698
35.2236 4.375
35.2539 3.854
35.2842 3.490
35.3144 4.375
35.3447 4.792
35.3750 3.750
35.4053 3.490
35.4356 3.854
35.4658 5.625
35.4961 4.792
35.5264 4.323
35.5567 5.833
35.5869 5.104
35.6172 7.187
35.6475 6.927
35.6778 6.562
35.7081 7.448
35.7383 8.906
35.7686 10.365
35.7989 11.302
35.8292 12.760
35.8595 12.448
35.8897 16.302
35.9200 16.510
35.9503 18.750
35.9806 23.021
36.0108 27.083
36.0411 32.500
36.0714 30.365
36.1017 36.146
36.1320 33.854
36.1622 35.625
36.1925 33.854
36.2228 26.250
36.2531 23.437
36.2834 20.365
36.3136 16.042
36.3439 16.094
36.3742 12.187
36.4045 11.250
36.4347 11.771
36.4650 8.281
36.4953 8.854
36.5256 6.615
36.5559 6.250
36.5861 5.677
36.6164 5.521
36.6467 4.792
36.6770 4.219
36.7073 4.896
36.7375 3.646
36.7678 4.635
36.7981 2.865
36.8284 3.333
36.8586 3.177
36.8889 3.646
36.9192 3.073
36.9495 3.073
36.9798 2.500
37.0100 3.021
37.0403 2.708
37.0706 3.021
37.1009 3.073
37.1312 2.448
37.1614 2.760
37.1917 2.083
37.2220 2.292
37.2523 2.083
37.2825 1.927
37.3128 2.500
37.3431 2.344
37.3734 2.240
37.4037 1.615
37.4339 3.021
37.4642 1.302
37.4945 1.823
37.5248 2.396
37.5551 1.615
37.5853 1.979
37.6156 1.823
37.6459 2.187
37.6762 1.823
37.7064 1.615
37.7367 2.187
37.7670 1.667
37.7973 2.083
37.8276 1.823
37.8578 2.240
37.8881 1.667
37.9184 2.031
37.9487 1.719
37.9790 1.146
38.0092 1.719
38.0395 1.771
38.0698 1.406
38.1001 1.771
38.1304 1.302
38.1606 1.667
38.1909 1.250
38.2212 1.615
38.2515 1.458
38.2817 1.562
38.3120 1.198
38.3423 1.823
38.3726 1.250
38.4029 1.406
38.4331 0.833
38.4634 1.875
38.4937 1.094
38.5240 1.562
38.5543 1.458
38.5845 0.990
38.6148 1.458
38.6451 1.458
38.6754 1.302
38.7056 1.354
38.7359 1.719
38.7662 1.406
38.7965 1.146
38.8268 1.458
38.8570 1.354
38.8873 1.510
38.9176 1.458
38.9479 1.250
38.9782 1.354
39.0084 1.302
39.0387 1.042
39.0690 1.458
39.0993 1.406
39.1295 1.146
39.1598 0.990
39.1901 1.094
39.2204 1.250
39.2507 1.250
39.2809 1.094
39.3112 0.885
39.3415 1.406
39.3718 0.990
39.4021 1.510
39.4323 0.677
39.4626 1.094
39.4929 1.250
39.5232 1.458
39.5534 1.042
39.5837 1.198
39.6140 0.937
39.6443 1.198
39.6746 0.885
39.7048 1.146
39.7351 0.833
39.7654 1.146
39.7957 1.354
39.8260 1.302
39.8562 1.615
39.8865 0.937
39.9168 1.094
39.9471 1.302
39.9773 0.937
40.0076 0.885
40.0379 1.042
40.0682 1.250
40.0985 0.937
40.1287 1.198
40.1590 1.198
40.1893 1.250
40.2196 0.937
40.2499 1.302
40.2801 1.302
40.3104 1.042
40.3407 1.458
40.3710 0.729
40.4012 0.729
40.4315 1.406
40.4618 1.406
40.4921 1.198
40.5224 1.302
40.5526 0.990
40.5829 1.198
40.6132 1.406
40.6435 1.406
40.6738 1.198
40.7040 1.250
40.7343 1.094
40.7646 1.198
40.7949 0.937
40.8251 1.094
40.8554 1.042
40.8857 1.302
40.9160 0.781
40.9463 1.198
40.9765 1.198
41.0068 1.146
41.0371 1.146
41.0674 1.094
41.0977 1.354
41.1279 1.146
41.1582 0.990
41.1885 0.885
41.2188 0.833
41.2491 0.937
41.2793 0.937
41.3096 1.250
41.3399 1.302
41.3702 0.990
41.4004 1.719
41.4307 1.302
41.4610 0.885
41.4913 1.354
41.5216 0.937
41.5518 1.146
41.5821 1.042
41.6124 1.250
41.6427 0.990
41.6730 0.937
41.7032 0.990
41.7335 1.354
41.7638 0.833
41.7941 1.042
41.8243 1.250
41.8546 0.781
41.8849 1.615
41.9152 0.781
41.9455 1.146
41.9757 0.990
42.0060 1.198
42.0363 1.042
42.0666 1.094
42.0969 1.302
42.1271 0.990
42.1574 0.990
42.1877 1.198
42.2180 1.458
42.2482 1.094
42.2785 0.990
42.3088 0.937
42.3391 1.042
42.3694 1.146
42.3996 0.729
42.4299 1.094
42.4602 1.146
42.4905 0.833
42.5208 1.094
42.5510 0.990
42.5813 1.042
42.6116 1.094
42.6419 0.885
42.6721 0.937
42.7024 0.990
42.7327 1.198
42.7630 1.042
42.7933 0.937
42.8235 0.833
42.8538 0.937
42.8841 1.198
42.9144 0.677
42.9447 1.094
42.9749 0.885
43.0052 1.302
43.0355 0.781
43.0658 1.667
43.0960 1.250
43.1263 0.729
43.1566 1.354
43.1869 0.781
43.2172 0.990
43.2474 1.510
43.2777 0.833
43.3080 0.833
43.3383 0.937
43.3686 0.625
43.3988 1.406
43.4291 0.677
43.4594 0.729
43.4897 1.198
43.5199 1.302
43.5502 0.781
43.5805 0.729
43.6108 1.146
43.6411 0.781
43.6713 0.625
43.7016 1.510
43.7319 1.042
43.7622 0.833
43.7925 0.781
43.8227 0.781
43.8530 0.677
43.8833 1.042
43.9136 1.094
43.9439 0.781
43.9741 0.833
44.0044 1.094
44.0347 0.729
44.0650 0.937
44.0952 0.781
44.1255 0.937
44.1558 0.990
44.1861 1.198
44.2164 1.406
44.2466 0.990
44.2769 0.833
44.3072 0.885
44.3375 0.833
44.3678 1.302
44.3980 1.146
44.4283 0.885
44.4586 0.781
44.4889 0.990
44.5191 1.510
44.5494 1.354
44.5797 1.198
44.6100 1.094
44.6403 0.885
44.6705 0.937
44.7008 0.729
44.7311 1.094
44.7614 0.885
44.7917 1.406
44.8219 0.677
44.8522 1.302
44.8825 0.990
44.9128 0.781
44.9430 1.146
44.9733 0.781
45.0036 0.937
45.0339 1.354
45.0642 1.198
45.0944 1.198
45.1247 1.094
45.1550 1.458
45.1853 0.833
45.2156 1.198
45.2458 0.833
45.2761 0.937
45.3064 1.354
45.3367 1.198
45.3669 1.198
45.3972 1.198
45.4275 0.990
45.4578 0.885
45.4881 1.198
45.5183 1.615
45.5486 1.354
45.5789 1.510
45.6092 1.146
45.6395 1.250
45.6697 1.198
45.7000 0.885
45.7303 0.885
45.7606 0.885
45.7908 1.979
45.8211 1.354
45.8514 1.354
45.8817 1.302
45.9120 1.406
45.9422 1.510
45.9725 1.406
46.0028 1.146
46.0331 1.562
46.0634 1.510
46.0936 0.937
46.1239 1.719
46.1542 1.250
46.1845 1.875
46.2147 0.990
46.2450 1.667
46.2753 1.250
46.3056 1.562
46.3359 1.198
46.3661 1.458
46.3964 1.667
46.4267 0.729
46.4570 0.937
46.4873 1.458
46.5175 1.510
46.5478 1.771
46.5781 1.562
46.6084 1.146
46.6386 1.302
46.6689 1.667
46.6992 1.406
46.7295 1.354
46.7598 2.135
46.7900 2.135
46.8203 1.979
46.8506 1.667
46.8809 1.823
46.9112 1.510
46.9414 1.667
46.9717 1.875
47.0020 2.240
47.0323 2.708
47.0626 2.344
47.0928 3.385
47.1231 3.490
47.1534 3.229
47.1837 4.062
47.2139 4.531
47.2442 4.687
47.2745 4.583
47.3048 5.833
47.3351 6.927
47.3653 6.510
47.3956 6.875
47.4259 6.510
47.4562 6.354
47.4865 6.302
47.5167 5.833
47.5470 5.260
47.5773 4.323
47.6076 4.167
47.6378 4.010
47.6681 3.698
47.6984 2.969
47.7287 2.292
47.7590 2.396
47.7892 2.604
47.8195 2.344
47.8498 2.396
47.8801 1.510
47.9104 1.823
47.9406 2.083
47.9709 1.771
48.0012 2.240
48.0315 1.979
48.0617 1.146
48.0920 1.406
48.1223 1.302
48.1526 1.302
48.1829 1.667
48.2131 1.198
48.2434 0.677
48.2737 1.615
48.3040 1.302
48.3343 1.406
48.3645 1.094
48.3948 0.937
48.4251 1.250
48.4554 1.146
48.4856 1.198
48.5159 1.406
48.5462 1.198
48.5765 1.667
48.6068 0.833
48.6370 0.729
48.6673 0.937
48.6976 1.042
48.7279 1.719
48.7582 1.667
48.7884 1.198
48.8187 1.094
48.8490 1.198
48.8793 1.094
48.9095 1.250
48.9398 1.198
48.9701 1.354
49.0004 1.094
49.0307 1.198
49.0609 1.250
49.0912 1.198
49.1215 0.937
49.1518 1.302
49.1821 1.302
49.2123 0.677
49.2426 1.667
49.2729 1.146
49.3032 0.885
49.3334 1.042
49.3637 1.458
49.3940 1.250
49.4243 0.937
49.4546 1.250
49.4848 1.042
49.5151 1.458
49.5454 1.458
49.5757 1.250
49.6060 0.990
49.6362 1.562
49.6665 1.250
49.6968 1.094
49.7271 1.302
49.7574 1.302
49.7876 1.094
49.8179 0.885
49.8482 0.937
49.8785 0.937
49.9087 1.094
49.9390 1.354
49.9693 1.250
49.9996 0.833
50.0299 0.677
50.0601 1.198
50.0904 1.406
50.1207 1.458
50.1510 1.094
50.1813 0.781
50.2115 1.146
50.2418 1.354
50.2721 1.250
50.3024 0.990
50.3326 1.042
50.3629 1.250
50.3932 1.250
50.4235 0.990
50.4538 1.250
50.4840 1.406
50.5143 1.042
50.5446 0.885
50.5749 1.198
50.6052 1.042
50.6354 1.094
50.6657 1.354
50.6960 1.250
50.7263 1.510
50.7565 1.094
50.7868 1.198
50.8171 0.677
50.8474 1.250
50.8777 1.094
50.9079 1.198
50.9382 1.094
50.9685 1.979
50.9988 0.937
51.0291 1.510
51.0593 1.667
51.0896 1.354
51.1199 0.990
51.1502 1.302
51.1804 1.198
51.2107 0.833
51.2410 0.937
51.2713 1.042
51.3016 1.302
51.3318 1.250
51.3621 1.198
51.3924 1.042
51.4227 0.677
51.4530 1.198
51.4832 0.833
51.5135 1.198
51.5438 1.042
51.5741 0.937
51.6043 0.781
51.6346 0.885
51.6649 1.354
51.6952 1.042
51.7255 1.979
51.7557 1.146
51.7860 0.781
51.8163 1.354
51.8466 1.302
51.8769 0.990
51.9071 0.937
51.9374 0.990
51.9677 1.354
51.9980 1.354
52.0282 1.042
52.0585 1.042
52.0888 1.146
52.1191 1.198
52.1494 0.573
52.1796 1.458
52.2099 1.406
52.2402 1.250
52.2705 0.625
52.3008 1.146
52.3310 1.458
52.3613 0.937
52.3916 0.781
52.4219 1.250
52.4521 1.302
52.4824 1.146
52.5127 1.250
52.5430 1.198
52.5733 0.885
52.6035 1.458
52.6338 0.990
52.6641 1.146
52.6944 0.729
52.7247 0.781
52.7549 1.094
52.7852 1.146
52.8155 1.302
52.8458 0.937
52.8761 0.781
52.9063 1.094
52.9366 0.937
52.9669 1.146
52.9972 0.729
53.0274 0.937
53.0577 1.094
53.0880 1.094
53.1183 0.729
53.1486 1.146
53.1788 1.146
53.2091 1.354
53.2394 1.094
53.2697 1.094
53.3000 1.094
53.3302 1.302
53.3605 1.094
53.3908 1.094
53.4211 0.729
53.4513 1.406
53.4816 1.302
53.5119 1.042
53.5422 1.250
53.5725 0.885
53.6027 1.094
53.6330 1.667
53.6633 0.833
53.6936 0.990
53.7239 1.198
53.7541 1.094
53.7844 1.094
53.8147 1.094
53.8450 1.094
53.8752 0.937
53.9055 1.354
53.9358 0.885
53.9661 0.885
53.9964 1.510
54.0266 0.521
54.0569 1.146
54.0872 1.250
54.1175 0.990
54.1478 0.990
54.1780 0.781
54.2083 0.833
54.2386 1.615
54.2689 1.042
54.2991 1.198
54.3294 0.990
54.3597 0.990
54.3900 1.667
54.4203 1.354
54.4505 0.990
54.4808 1.094
54.5111 1.198
54.5414 1.198
54.5717 1.198
54.6019 1.250
54.6322 0.885
54.6625 1.615
54.6928 1.042
54.7230 1.042
54.7533 0.990
54.7836 1.562
54.8139 1.354
54.8442 1.615
54.8744 0.937
54.9047 0.885
54.9350 1.510
54.9653 1.042
54.9956 1.302
55.0258 1.198
55.0561 1.562
55.0864 1.198
55.1167 1.250
55.1469 1.198
55.1772 1.146
55.2075 1.094
55.2378 1.250
55.2681 1.094
55.2983 1.510
55.3286 1.406
55.3589 1.094
55.3892 2.083
55.4195 1.042
55.4497 1.198
55.4800 1.354
55.5103 1.094
55.5406 1.354
55.5709 0.990
55.6011 1.979
55.6314 1.719
55.6617 1.927
55.6920 1.719
55.7222 1.510
55.7525 2.292
55.7828 1.823
55.8131 1.406
55.8434 1.979
55.8736 2.292
55.9039 2.500
55.9342 2.135
55.9645 2.135
55.9948 2.344
56.0250 2.604
56.0553 2.969
56.0856 3.125
56.1159 2.917
56.1461 3.906
56.1764 4.219
56.2067 4.062
56.2370 4.948
56.2673 5.260
56.2975 5.000
56.3278 6.406
56.3581 6.615
56.3884 8.125
56.4187 8.490
56.4489 8.854
56.4792 7.656
56.5095 7.865
56.5398 7.292
56.5700 7.135
56.6003 6.771
56.6306 6.771
56.6609 5.469
56.6912 5.156
56.7214 4.792
56.7517 3.750
56.7820 3.385
56.8123 2.812
56.8426 2.396
56.8728 2.812
56.9031 2.604
56.9334 2.448
56.9637 2.448
56.9939 2.187
57.0242 1.875
57.0545 1.510
57.0848 1.771
57.1151 1.458
57.1453 1.094
57.1756 1.667
57.2059 2.031
57.2362 1.510
57.2665 1.927
57.2967 1.562
57.3270 0.990
57.3573 0.885
57.3876 1.354
57.4178 1.250
57.4481 1.510
57.4784 1.146
57.5087 0.990
57.5390 1.198
57.5692 0.990
57.5995 1.615
57.6298 0.990
57.6601 1.354
57.6904 0.990
57.7206 0.885
57.7509 0.937
57.7812 0.729
57.8115 1.094
57.8417 1.250
57.8720 0.990
57.9023 1.510
57.9326 1.406
57.9629 1.250
57.9931 0.937
58.0234 0.677
58.0537 1.615
58.0840 1.354
58.1143 0.937
58.1445 1.354
58.1748 1.042
58.2051 1.302
58.2354 0.990
58.2656 1.042
58.2959 0.937
58.3262 1.302
58.3565 1.042
58.3868 1.094
58.4170 0.990
58.4473 0.937
58.4776 1.354
58.5079 0.937
58.5382 0.937
58.5684 1.198
58.5987 0.937
58.6290 1.458
58.6593 0.937
58.6896 1.302
58.7198 0.729
58.7501 0.990
58.7804 0.677
58.8107 1.198
58.8409 0.885
58.8712 0.937
58.9015 0.677
58.9318 0.833
58.9621 1.042
58.9923 1.146
59.0226 1.250
59.0529 0.937
59.0832 0.990
59.1135 0.885
59.1437 0.833
59.1740 1.406
59.2043 1.094
59.2346 0.781
59.2648 1.094
59.2951 0.781
59.3254 0.729
59.3557 0.781
59.3860 1.510
59.4162 0.885
59.4465 0.937
59.4768 0.833
59.5071 0.937
59.5374 0.729
59.5676 0.625
59.5979 1.094
59.6282 0.990
59.6585 0.573
59.6887 0.677
59.7190 0.729
59.7493 0.729
59.7796 0.885
59.8099 1.146
59.8401 1.094
59.8704 0.833
59.9007 0.990
59.9310 0.781
59.9613 0.833
59.9915 0.937
60.0218 1.146
60.0521 0.781
60.0824 0.937
60.1126 1.250
60.1429 0.990
60.1732 0.781
60.2035 0.625
60.2338 1.094
60.2640 1.094
60.2943 0.781
60.3246 1.094
60.3549 0.937
60.3852 1.198
60.4154 0.885
60.4457 0.729
60.4760 1.146
60.5063 0.781
60.5365 1.250
60.5668 0.729
60.5971 0.885
60.6274 1.042
60.6577 0.885
60.6879 1.042
60.7182 0.833
60.7485 0.469
60.7788 0.885
60.8091 1.302
60.8393 1.094
60.8696 0.990
60.8999 1.042
60.9302 1.354
60.9604 0.990
60.9907 0.885
61.0210 0.990
61.0513 1.094
61.0816 1.250
61.1118 1.198
61.1421 0.885
61.1724 1.042
61.2027 0.937
61.2330 0.937
61.2632 1.094
61.2935 0.885
61.3238 1.042
61.3541 1.146
61.3844 1.354
61.4146 0.885
61.4449 0.885
61.4752 0.990
61.5055 1.042
61.5357 1.146
61.5660 1.562
61.5963 1.250
61.6266 0.937
61.6569 1.198
61.6871 0.729
61.7174 1.198
61.7477 1.302
61.7780 1.458
61.8083 0.833
61.8385 1.042
61.8688 1.198
61.8991 1.198
61.9294 1.302
61.9596 2.187
61.9899 1.406
62.0202 1.406
62.0505 1.667
62.0808 1.198
62.1110 1.667
62.1413 1.406
62.1716 1.667
62.2019 1.406
62.2322 1.979
62.2624 2.500
62.2927 2.031
62.3230 2.812
62.3533 2.396
62.3835 2.760
62.4138 2.917
62.4441 2.917
62.4744 3.698
62.5047 3.802
62.5349 4.635
62.5652 4.635
62.5955 5.312
62.6258 4.687
62.6561 6.406
62.6863 7.031
62.7166 6.510
62.7469 6.042
62.7772 6.667
62.8074 6.094
62.8377 6.406
62.8680 5.260
62.8983 4.635
62.9286 4.844
62.9588 4.271
62.9891 3.177
63.0194 3.646
63.0497 3.490
63.0800 3.385
63.1102 2.031
63.1405 2.500
63.1708 2.656
63.2011 2.292
63.2313 1.771
63.2616 2.448
63.2919 2.187
63.3222 0.885
63.3525 1.146
63.3827 1.667
63.4130 1.406
63.4433 1.406
63.4736 1.146
63.5039 1.510
63.5341 0.729
63.5644 1.094
63.5947 1.146
63.6250 0.885
63.6552 1.042
63.6855 1.198
63.7158 1.354
63.7461 1.198
63.7764 1.042
63.8066 0.833
63.8369 1.302
63.8672 1.406
63.8975 1.198
63.9278 1.562
63.9580 1.406
63.9883 0.990
64.0186 0.677
64.0489 1.042
64.0791 0.937
64.1094 1.094
64.1397 0.885
64.1700 1.094
64.2003 1.146
64.2305 1.250
64.2608 1.719
64.2911 1.302
64.3214 0.833
64.3517 0.781
64.3819 0.833
64.4122 1.042
64.4425 1.354
64.4728 1.094
64.5031 1.146
64.5333 0.781
64.5636 0.781
64.5939 0.781
64.6242 1.198
64.6544 1.042
64.6847 1.042
64.7150 0.833
64.7453 1.146
64.7756 0.677
64.8058 1.042
64.8361 1.198
64.8664 1.146
64.8967 0.937
64.9270 1.250
64.9572 1.406
64.9875 1.458
65.0178 0.937
65.0481 0.833
65.0783 0.781
65.1086 1.042
65.1389 1.094
65.1692 0.885
65.1995 0.990
65.2297 1.146
65.2600 1.250
65.2903 0.885
65.3206 0.729
65.3509 0.781
65.3811 0.677
65.4114 0.625
65.4417 0.833
65.4720 0.990
65.5022 1.354
65.5325 1.042
65.5628 1.198
65.5931 1.042
65.6234 1.042
65.6536 1.198
65.6839 1.042
65.7142 0.781
65.7445 1.354
65.7748 0.885
65.8050 0.885
65.8353 1.094
65.8656 1.458
65.8959 1.406
65.9261 0.990
65.9564 1.458
65.9867 1.771
66.0170 2.500
66.0473 1.302
66.0775 1.510
66.1078 1.302
66.1381 1.510
66.1684 1.615
66.1987 1.615
66.2289 1.771
66.2592 1.458
66.2895 1.667
66.3198 1.719
66.3500 1.719
66.3803 1.771
66.4106 1.510
66.4409 2.500
66.4712 1.094
66.5014 1.302
66.5317 1.875
66.5620 1.562
66.5923 1.250
66.6226 1.250
66.6528 1.250
66.6831 1.250
66.7134 1.042
66.7437 1.354
66.7739 1.354
66.8042 1.094
66.8345 1.094
66.8648 1.094
66.8951 1.771
66.9253 1.250
66.9556 1.302
66.9859 1.198
67.0162 1.250
67.0465 1.562
67.0767 1.302
67.1070 1.250
67.1373 1.667
67.1676 1.979
67.1978 1.875
67.2281 1.927
67.2584 1.875
67.2887 1.406
67.3190 1.875
67.3492 1.354
67.3795 2.031
67.4098 1.979
67.4401 2.292
67.4704 2.240
67.5006 2.448
67.5309 1.979
67.5612 2.552
67.5915 3.073
67.6218 3.437
67.6520 3.958
67.6823 3.958
67.7126 4.010
67.7429 5.156
67.7731 5.000
67.8034 4.375
67.8337 4.948
67.8640 4.844
67.8943 4.479
67.9245 4.844
67.9548 4.948
67.9851 3.437
68.0154 3.125
68.0457 3.490
68.0759 3.281
68.1062 3.594
68.1365 3.281
68.1668 2.969
68.1970 2.135
68.2273 2.292
68.2576 2.760
68.2879 2.396
68.3182 1.979
68.3484 2.344
68.3787 2.292
68.4090 1.979
68.4393 1.458
68.4696 1.823
68.4998 1.406
68.5301 1.771
68.5604 1.458
68.5907 1.823
68.6209 1.823
68.6512 1.354
68.6815 1.406
68.7118 2.292
68.7421 2.135
68.7723 2.552
68.8026 2.812
68.8329 2.656
68.8632 2.448
68.8935 2.396
68.9237 2.448
68.9540 2.812
68.9843 3.125
69.0146 2.708
69.0448 2.396
69.0751 2.344
69.1054 2.083
69.1357 1.979
69.1660 1.719
69.1962 2.344
69.2265 2.083
69.2568 1.823
69.2871 1.875
69.3174 1.406
69.3476 2.083
69.3779 1.250
69.4082 1.615
69.4385 0.990
69.4687 1.198
69.4990 0.937
69.5293 1.771
69.5596 0.521
69.5899 0.990
69.6201 0.833
69.6504 1.198
69.6807 1.354
69.7110 1.146
69.7413 0.885
69.7715 1.146
69.8018 1.042
69.8321 0.937
69.8624 0.937
69.8926 0.833
69.9229 0.990
69.9532 1.406
69.9835 1.094
70.0138 1.042
70.0440 1.042
70.0743 1.146
70.1046 0.937
70.1349 0.781
70.1652 0.937
70.1954 1.146
70.2257 0.937
70.2560 0.781
70.2863 0.677
70.3166 0.990
70.3468 0.677
70.3771 0.781
70.4074 0.781
70.4377 0.990
70.4679 0.729
70.4982 0.781
70.5285 1.146
70.5588 1.094
70.5891 0.833
70.6193 0.781
70.6496 0.937
70.6799 0.573
70.7102 1.094
70.7405 1.042
70.7707 0.625
70.8010 0.781
70.8313 0.781
70.8616 0.417
70.8918 0.833
70.9221 0.729
70.9524 0.677
70.9827 0.729
71.0130 0.573
71.0432 1.042
71.0735 0.990
71.1038 0.573
71.1341 0.833
71.1644 0.990
71.1946 0.781
71.2249 0.729
71.2552 0.833
71.2855 0.990
71.3157 0.625
71.3460 0.937
71.3763 0.729
71.4066 0.677
71.4369 0.833
71.4671 1.198
71.4974 0.885
71.5277 0.677
71.5580 0.833
71.5883 0.729
71.6185 0.937
71.6488 0.729
71.6791 0.833
71.7094 0.729
71.7396 0.625
71.7699 0.469
71.8002 0.573
71.8305 0.521
71.8608 0.625
71.8910 0.625
71.9213 0.833
71.9516 0.781
71.9819 0.937
72.0122 0.833
72.0424 0.729
72.0727 0.677
72.1030 0.937
72.1333 0.677
72.1635 0.729
72.1938 0.885
72.2241 1.198
72.2544 0.729
72.2847 1.250
72.3149 1.042
72.3452 0.677
72.3755 1.354
72.4058 1.302
72.4361 1.042
72.4663 1.354
72.4966 0.833
72.5269 1.615
72.5572 1.146
72.5874 0.729
72.6177 1.042
72.6480 1.146
72.6783 0.312
72.7086 0.729
72.7388 0.781
72.7691 1.146
72.7994 0.677
72.8297 0.729
72.8600 0.677
72.8902 0.729
72.9205 0.573
72.9508 0.469
72.9811 0.625
73.0113 1.146
73.0416 0.729
73.0719 0.625
73.1022 0.885
73.1325 0.729
73.1627 0.833
73.1930 0.990
73.2233 0.781
73.2536 0.729
73.2839 0.781
73.3141 0.625
73.3444 0.833
73.3747 0.677
73.4050 0.729
73.4353 0.781
73.4655 0.781
73.4958 0.677
73.5261 0.729
73.5564 0.573
73.5866 0.260
73.6169 0.990
73.6472 0.677
73.6775 0.781
73.7078 0.885
73.7380 1.042
73.7683 0.625
73.7986 0.729
73.8289 0.625
73.8592 0.937
73.8894 0.521
73.9197 0.729
73.9500 0.729
73.9803 0.573
74.0105 0.781
74.0408 0.521
74.0711 0.885
74.1014 0.625
74.1317 0.469
74.1619 0.833
74.1922 0.833
74.2225 0.729
74.2528 0.937
74.2831 0.885
74.3133 0.521
74.3436 0.469
74.3739 0.833
74.4042 0.625
74.4344 0.677
74.4647 0.677
74.4950 0.573
74.5253 0.781
74.5556 0.729
74.5858 0.729
74.6161 0.625
74.6464 0.625
74.6767 0.573
74.7070 0.625
74.7372 1.146
74.7675 0.990
74.7978 1.146
74.8281 0.677
74.8583 0.833
74.8886 0.781
74.9189 0.521
74.9492 0.521
74.9795 0.885
75.0097 0.521
75.0400 0.469
75.0703 0.521
75.1006 0.573
75.1309 0.729
75.1611 0.625
75.1914 0.677
75.2217 0.312
75.2520 0.417
75.2822 0.729
75.3125 0.781
75.3428 0.937
75.3731 0.521
75.4034 0.573
75.4336 0.573
75.4639 0.573
75.4942 0.781
75.5245 0.729
75.5548 0.833
75.5850 0.833
75.6153 0.833
75.6456 0.417
75.6759 0.677
75.7061 0.729
75.7364 0.677
75.7667 0.469
75.7970 0.625
75.8273 0.885
75.8575 0.729
75.8878 0.677
75.9181 0.677
75.9484 0.625
75.9787 0.573
76.0089 0.885
76.0392 0.885
76.0695 0.885
76.0998 0.625
76.1301 0.729
76.1603 0.677
76.1906 1.198
76.2209 0.781
76.2512 1.146
76.2814 1.094
76.3117 0.833
76.3420 0.573
76.3723 0.990
76.4026 0.990
76.4328 0.625
76.4631 0.885
76.4934 0.937
76.5237 0.885
76.5540 0.417
76.5842 1.354
76.6145 1.667
76.6448 1.094
76.6751 1.354
76.7053 1.198
76.7356 1.406
76.7659 0.781
76.7962 0.781
76.8265 1.510
76.8567 1.042
76.8870 1.458
76.9173 0.729
76.9476 1.354
76.9779 0.990
77.0081 0.885
77.0384 1.146
77.0687 0.937
77.0990 0.521
77.1292 1.198
77.1595 0.937
77.1898 0.937
77.2201 0.677
77.2504 0.677
77.2806 0.625
77.3109 0.417
77.3412 0.677
77.3715 0.781
77.4018 0.521
77.4320 0.729
77.4623 0.833
77.4926 0.990
77.5229 0.625
77.5531 0.417
77.5834 0.573
77.6137 0.677
77.6440 0.729
77.6743 0.469
77.7045 0.677
77.7348 1.250
77.7651 0.729
77.7954 0.729
77.8257 0.833
77.8559 0.677
77.8862 0.677
77.9165 0.573
77.9468 0.729
77.9770 0.469
78.0073 0.833
78.0376 0.417
78.0679 0.781
78.0982 0.729
78.1284 0.625
78.1587 0.677
78.1890 0.833
78.2193 0.677
78.2496 0.833
78.2798 0.729
78.3101 0.729
78.3404 0.677
78.3707 0.937
78.4009 0.573
78.4312 0.729
78.4615 0.625
78.4918 0.469
78.5221 0.417
78.5523 0.781
78.5826 0.521
78.6129 0.729
78.6432 0.833
78.6735 1.042
78.7037 0.625
78.7340 0.729
78.7643 0.677
78.7946 0.729
78.8248 0.521
78.8551 0.781
78.8854 0.469
78.9157 0.625
78.9460 0.260
78.9762 0.937
79.0065 0.729
79.0368 0.781
79.0671 0.781
79.0974 0.573
79.1276 0.625
79.1579 0.885
79.1882 1.198
79.2185 0.677
79.2488 0.729
79.2790 0.573
79.3093 0.573
79.3396 0.469
79.3699 0.677
79.4001 0.417
79.4304 0.469
79.4607 0.885
79.4910 0.469
79.5213 0.781
79.5515 0.677
79.5818 0.677
79.6121 0.729
79.6424 0.885
79.6727 0.312
79.7029 0.677
79.7332 0.729
79.7635 0.729
79.7938 0.365
79.8240 0.469
79.8543 0.885
79.8846 0.677
79.9149 0.625
79.9452 0.833
79.9754 1.146
80.0057 0.729
80.0360 0.573
80.0663 0.729
80.0966 0.625
80.1268 0.573
80.1571 0.521
80.1874 0.729
80.2177 0.365
80.2479 0.729
80.2782 0.521
80.3085 0.521
80.3388 0.625
80.3691 0.521
80.3993 0.729
80.4296 0.625
80.4599 0.469
80.4902 0.729
80.5205 0.365
80.5507 0.625
80.5810 0.417
80.6113 0.729
80.6416 0.365
80.6718 0.781
80.7021 0.729
80.7324 0.729
80.7627 0.521
80.7930 0.781
80.8232 0.677
80.8535 0.573
80.8838 0.677
80.9141 0.833
80.9444 0.365
80.9746 0.677
81.0049 1.094
81.0352 0.990
81.0655 0.365
81.0957 0.833
81.1260 0.990
81.1563 0.417
81.1866 0.833
81.2169 0.521
81.2471 0.937
81.2774 0.833
81.3077 0.937
81.3380 0.833
81.3683 0.833
81.3985 1.094
81.4288 0.833
81.4591 0.729
81.4894 0.469
81.5196 0.833
81.5499 0.729
81.5802 1.198
81.6105 1.146
81.6408 0.573
81.6710 0.990
81.7013 0.833
81.7316 0.625
81.7619 0.729
81.7922 0.781
81.8224 0.521
81.8527 0.573
81.8830 0.729
81.9133 0.573
81.9436 0.573
81.9738 0.625
82.0041 0.937
82.0344 0.833
82.0647 0.677
82.0949 0.781
82.1252 0.625
82.1555 0.729
82.1858 0.833
82.2161 0.417
82.2463 0.573
82.2766 0.729
82.3069 0.729
82.3372 0.729
82.3675 0.677
82.3977 0.625
82.4280 0.833
82.4583 0.729
82.4886 0.729
82.5188 0.625
82.5491 0.781
82.5794 0.729
82.6097 0.677
82.6400 0.937
82.6702 0.781
82.7005 0.417
82.7308 0.677
82.7611 0.677
82.7914 0.885
82.8216 0.625
82.8519 0.625
82.8822 0.677
82.9125 0.521
82.9427 0.729
82.9730 0.469
83.0033 0.729
83.0336 0.833
83.0639 0.469
83.0941 0.729
83.1244 0.729
83.1547 0.729
83.1850 0.521
83.2153 0.417
83.2455 0.521
83.2758 0.365
83.3061 0.625
83.3364 0.781
83.3666 0.573
83.3969 0.469
83.4272 0.469
83.4575 0.417
83.4878 0.521
83.5180 0.417
83.5483 0.312
83.5786 0.521
83.6089 0.625
83.6392 0.208
83.6694 0.417
83.6997 0.729
83.7300 0.625
83.7603 0.729
83.7905 0.417
83.8208 0.625
83.8511 0.833
83.8814 0.677
83.9117 0.625
83.9419 0.469
83.9722 0.365
84.0025 0.469
84.0328 0.469
84.0631 0.729
84.0933 0.833
84.1236 0.521
84.1539 0.885
84.1842 0.625
84.2144 0.833
84.2447 0.729
84.2750 0.677
84.3053 0.990
84.3356 0.729
84.3658 1.042
84.3961 0.573
84.4264 0.521
84.4567 0.417
84.4870 1.042
84.5172 0.417
84.5475 0.417
84.5778 0.729
84.6081 0.729
84.6383 0.729
84.6686 0.521
84.6989 0.937
84.7292 0.521
84.7595 0.521
84.7897 0.885
84.8200 0.729
84.8503 0.260
84.8806 0.781
84.9109 0.521
84.9411 0.885
84.9714 0.885
85.0017 0.625
85.0320 0.990
85.0623 0.937
85.0925 0.781
85.1228 0.729
85.1531 0.729
85.1834 0.625
85.2136 0.729
85.2439 0.729
85.2742 0.885
85.3045 0.625
85.3348 0.469
85.3650 0.729
85.3953 0.677
85.4256 0.573
85.4559 0.729
85.4862 0.625
85.5164 0.729
85.5467 0.990
85.5770 0.573
85.6073 0.469
85.6375 0.573
85.6678 0.937
85.6981 0.833
85.7284 0.729
85.7587 0.625
85.7889 0.573
85.8192 0.521
85.8495 0.573
85.8798 0.573
85.9101 0.365
85.9403 0.833
85.9706 0.625
86.0009 0.937
86.0312 0.677
86.0614 0.729
86.0917 0.729
86.1220 0.469
86.1523 0.573
86.1826 0.937
86.2128 0.833
86.2431 0.521
86.2734 0.625
86.3037 0.521
86.3340 0.625
86.3642 0.521
86.3945 0.469
86.4248 0.677
86.4551 0.469
86.4853 0.677
86.5156 0.729
86.5459 0.833
86.5762 0.625
86.6065 0.469
86.6367 0.729
86.6670 0.625
86.6973 0.469
86.7276 0.573
86.7579 0.625
86.7881 0.937
86.8184 0.937
86.8487 0.469
86.8790 0.625
86.9092 0.521
86.9395 0.625
86.9698 0.625
87.0001 0.833
87.0304 0.312
87.0606 0.990
87.0909 0.521
87.1212 0.677
87.1515 0.885
87.1818 0.625
87.2120 0.573
87.2423 0.729
87.2726 0.573
87.3029 0.625
87.3331 0.729
87.3634 1.094
87.3937 0.781
87.4240 0.729
87.4543 0.677
87.4845 0.469
87.5148 0.729
87.5451 0.469
87.5754 0.521
87.6057 0.781
87.6359 0.573
87.6662 0.521
87.6965 0.469
87.7268 0.885
87.7571 0.729
87.7873 0.729
87.8176 0.729
87.8479 0.990
87.8782 0.469
87.9084 0.312
87.9387 0.833
87.9690 0.521
87.9993 0.729
88.0296 0.729
88.0598 0.729
88.0901 0.625
88.1204 0.573
88.1507 0.677
88.1810 0.312
88.2112 0.729
88.2415 0.781
88.2718 0.625
88.3021 0.729
88.3323 0.729
88.3626 0.625
88.3929 0.885
88.4232 0.729
88.4535 0.677
88.4837 0.833
88.5140 0.937
88.5443 0.677
88.5746 0.729
88.6049 1.198
88.6351 0.677
88.6654 0.469
88.6957 0.781
88.7260 0.729
88.7562 0.729
88.7865 0.729
88.8168 0.729
88.8471 0.833
88.8774 0.417
88.9076 0.625
88.9379 0.729
88.9682 0.885
88.9985 0.729
89.0288 1.042
89.0590 0.990
89.0893 0.885
89.1196 1.198
89.1499 1.354
89.1801 1.042
89.2104 1.406
89.2407 0.937
89.2710 0.833
89.3013 1.250
89.3315 1.302
89.3618 1.771
89.3921 1.198
89.4224 1.562
89.4527 1.771
89.4829 1.615
89.5132 1.198
89.5435 1.250
89.5738 1.042
89.6040 1.302
89.6343 1.354
89.6646 1.667
89.6949 1.615
89.7252 1.406
89.7554 1.250
89.7857 1.667
89.8160 1.302
89.8463 1.042
89.8766 0.781
89.9068 0.729
89.9371 1.042
89.9674 0.729
89.9977 0.729
90.0279 0.937
90.0582 0.833
90.0885 0.990
90.1188 0.677
90.1491 1.198
90.1793 0.781
90.2096 0.573
90.2399 0.573
90.2702 0.729
90.3005 0.625
90.3307 0.729
90.3610 1.198
90.3913 0.833
90.4216 0.990
90.4518 1.198
90.4821 0.885
90.5124 0.625
90.5427 0.885
90.5730 0.729
90.6032 0.937
90.6335 0.729
90.6638 0.781
90.6941 0.833
90.7244 0.625
90.7546 0.625
90.7849 0.573
90.8152 0.469
90.8455 0.833
90.8758 0.677
90.9060 0.729
90.9363 0.677
90.9666 0.521
90.9969 0.885
91.0271 0.833
91.0574 0.625
91.0877 0.781
91.1180 0.677
91.1483 0.573
91.1785 0.573
91.2088 1.042
91.2391 0.677
91.2694 0.937
91.2997 0.573
91.3299 0.260
91.3602 0.469
91.3905 0.833
91.4208 0.833
91.4510 0.625
91.4813 0.885
91.5116 0.937
91.5419 0.729
91.5722 0.833
91.6024 0.729
91.6327 0.990
91.6630 0.625
91.6933 0.937
91.7236 0.417
91.7538 0.573
91.7841 1.198
91.8144 0.625
91.8447 0.833
91.8749 0.885
91.9052 0.521
91.9355 0.729
91.9658 0.781
91.9961 0.937
92.0263 0.729
92.0566 0.469
92.0869 0.833
92.1172 0.781
92.1475 0.677
92.1777 0.573
92.2080 0.729
92.2383 0.833
92.2686 0.833
92.2988 0.469
92.3291 1.042
92.3594 0.469
92.3897 0.885
92.4200 0.833
92.4502 0.833
92.4805 1.302
92.5108 0.990
92.5411 0.885
92.5714 1.042
92.6016 0.729
92.6319 0.990
92.6622 1.094
92.6925 0.833
92.7227 1.562
92.7530 0.729
92.7833 0.885
92.8136 1.094
92.8439 1.042
92.8741 0.781
92.9044 0.625
92.9347 1.094
92.9650 0.729
92.9953 0.833
93.0255 0.937
93.0558 0.885
93.0861 0.677
93.1164 0.990
93.1466 0.937
93.1769 0.469
93.2072 0.729
93.2375 0.677
93.2678 0.781
93.2980 0.521
93.3283 0.729
93.3586 0.885
93.3889 0.833
93.4192 0.729
93.4494 0.729
93.4797 1.042
93.5100 0.573
93.5403 0.833
93.5706 0.885
93.6008 0.469
93.6311 1.094
93.6614 0.729
93.6917 0.833
93.7219 0.677
93.7522 0.990
93.7825 0.729
93.8128 0.521
93.8431 0.937
93.8733 0.729
93.9036 0.885
93.9339 0.937
93.9642 0.729
93.9945 0.573
94.0247 0.729
94.0550 0.729
94.0853 0.677
94.1156 0.833
94.1458 0.729
94.1761 0.469
94.2064 0.573
94.2367 0.885
94.2670 0.677
94.2972 0.365
94.3275 0.937
94.3578 0.990
94.3881 0.573
94.4184 0.729
94.4486 0.677
94.4789 0.729
94.5092 0.885
94.5395 0.781
94.5697 0.885
94.6000 0.990
94.6303 0.833
94.6606 1.094
94.6909 0.677
94.7211 0.990
94.7514 1.146
94.7817 1.250
94.8120 1.667
94.8423 0.990
94.8725 1.250
94.9028 1.042
94.9331 0.885
94.9634 1.146
94.9936 1.667
95.0239 1.562
95.0542 1.250
95.0845 1.406
95.1148 0.885
95.1450 1.823
95.1753 1.719
95.2056 1.250
95.2359 1.458
95.2662 1.562
95.2964 1.198
95.3267 1.250
95.3570 1.250
95.3873 1.354
95.4175 1.042
95.4478 1.198
95.4781 1.406
95.5084 1.198
95.5387 0.781
95.5689 1.094
95.5992 1.250
95.6295 1.042
95.6598 1.042
95.6901 0.990
95.7203 0.937
95.7506 0.885
95.7809 0.573
95.8112 1.094
95.8414 0.729
95.8717 0.729
95.9020 0.729
95.9323 0.885
95.9626 0.833
95.9928 0.885
96.0231 0.781
96.0534 0.677
96.0837 0.729
96.1140 0.885
96.1442 0.521
96.1745 0.729
96.2048 1.146
96.2351 0.885
96.2653 0.729
96.2956 0.677
96.3259 0.937
96.3562 0.677
96.3865 0.885
96.4167 0.677
96.4470 0.937
96.4773 0.729
96.5076 0.885
96.5379 0.677
96.5681 0.677
96.5984 0.729
96.6287 0.833
96.6590 0.729
96.6893 0.677
96.7195 0.625
96.7498 0.677
96.7801 0.729
96.8104 0.521
96.8406 0.729
96.8709 0.625
96.9012 0.833
96.9315 0.781
96.9618 0.990
96.9920 0.573
97.0223 0.312
97.0526 0.573
97.0829 1.094
97.1132 0.990
97.1434 0.677
97.1737 0.521
97.2040 0.781
97.2343 0.625
97.2645 0.625
97.2948 0.677
97.3251 1.302
97.3554 0.625
97.3857 0.781
97.4159 0.677
97.4462 0.677
97.4765 0.625
97.5068 0.729
97.5371 0.677
97.5673 0.833
97.5976 0.990
97.6279 0.885
97.6582 0.937
97.6884 0.729
97.7187 0.833
97.7490 0.625
97.7793 0.833
97.8096 0.260
97.8398 0.469
97.8701 0.781
97.9004 0.677
97.9307 0.937
97.9610 0.885
97.9912 0.677
98.0215 1.146
98.0518 0.677
98.0821 0.833
98.1123 0.625
98.1426 0.833
98.1729 1.042
98.2032 0.833
98.2335 0.625
98.2637 0.833
98.2940 1.354
98.3243 0.937
98.3546 1.042
98.3849 0.833
98.4151 0.781
98.4454 1.354
98.4757 1.250
98.5060 1.094
98.5362 1.198
98.5665 1.250
98.5968 0.781
98.6271 0.781
98.6574 1.146
98.6876 0.729
98.7179 1.042
98.7482 0.833
98.7785 0.833
98.8088 1.302
98.8390 0.729
98.8693 0.885
98.8996 1.198
98.9299 0.885
98.9601 1.302
98.9904 0.729
99.0207 0.885
99.0510 0.833
99.0813 0.677
99.1115 1.198
99.1418 0.573
99.1721 0.677
99.2024 1.042
99.2327 0.781
99.2629 0.677
99.2932 0.990
99.3235 0.885
99.3538 0.990
99.3841 0.885
99.4143 0.729
99.4446 0.729
99.4749 0.885
99.5052 0.833
99.5354 0.729
99.5657 0.937
99.5960 0.729
99.6263 0.833
99.6566 0.781
99.6868 0.469
99.7171 0.781
99.7474 0.625
99.7777 0.729
99.8080 0.677
99.8382 0.417
99.8685 0.781
99.8988 0.521
99.9291 0.990
99.9593 0.521
99.9896 0.781
100.0199 0.781
100.0502 0.729
100.0805 0.677
100.1107 0.677
100.1410 0.729
100.1713 0.781
100.2016 0.625
100.2319 0.729
100.2621 0.833
100.2924 0.521
100.3227 0.417
100.3530 0.521
100.3832 0.937
100.4135 0.677
100.4438 0.625
100.4741 0.781
100.5044 0.729
100.5346 0.417
100.5649 0.885
100.5952 0.781
100.6255 0.625
100.6558 0.312
100.6860 0.573
100.7163 1.146
100.7466 1.042
100.7769 0.521
100.8071 0.625
100.8374 0.469
100.8677 0.833
100.8980 0.781
100.9283 0.521
100.9585 0.729
100.9888 0.521
101.0191 0.937
101.0494 0.573
101.0797 0.781
101.1099 0.677
101.1402 0.469
101.1705 0.885
101.2008 0.729
101.2310 0.573
101.2613 0.781
101.2916 0.885
101.3219 0.937
101.3522 0.885
101.3824 0.885
101.4127 1.094
101.4430 0.625
101.4733 0.573
101.5036 0.885
101.5338 0.729
101.5641 0.677
101.5944 0.417
101.6247 0.417
101.6549 0.781
101.6852 0.729
101.7155 0.781
101.7458 0.781
101.7761 0.625
101.8063 0.677
101.8366 0.833
101.8669 0.625
101.8972 1.146
101.9275 0.937
101.9577 0.625
101.9880 0.729
102.0183 0.781
102.0486 0.833
102.0788 0.521
102.1091 0.677
102.1394 0.781
102.1697 0.885
102.2000 0.937
102.2302 0.833
102.2605 0.781
102.2908 0.729
102.3211 1.250
102.3514 0.833
102.3816 0.729
102.4119 0.521
102.4422 1.094
102.4725 0.677
102.5028 1.198
102.5330 1.198
102.5633 0.885
102.5936 0.833
102.6239 1.094
102.6541 1.302
102.6844 1.510
102.7147 0.990
102.7450 0.937
102.7753 1.302
102.8055 1.406
102.8358 1.146
102.8661 0.729
102.8964 1.354
102.9267 0.729
102.9569 0.885
102.9872 0.937
103.0175 1.198
103.0478 0.990
103.0780 0.937
103.1083 0.990
103.1386 0.833
103.1689 0.990
103.1992 0.885
103.2294 0.781
103.2597 1.094
103.2900 1.146
103.3203 0.885
103.3506 0.573
103.3808 1.146
103.4111 1.302
103.4414 1.198
103.4717 0.781
103.5019 0.937
103.5322 1.042
103.5625 0.937
103.5928 0.833
103.6231 1.146
103.6533 0.990
103.6836 1.250
103.7139 1.094
103.7442 1.354
103.7745 1.302
103.8047 0.990
103.8350 1.250
103.8653 1.615
103.8956 1.406
103.9258 1.354
103.9561 1.042
103.9864 1.146
104.0167 1.146
104.0470 1.198
104.0772 1.146
104.1075 1.406
104.1378 0.937
104.1681 1.302
104.1984 1.510
104.2286 0.990
104.2589 0.885
104.2892 1.302
104.3195 0.885
104.3497 1.406
104.3800 1.406
104.4103 0.677
104.4406 0.885
104.4709 1.042
104.5011 1.250
104.5314 0.781
104.5617 0.990
104.5920 0.990
104.6223 1.198
104.6525 1.094
104.6828 1.302
104.7131 0.781
104.7434 0.885
104.7736 0.885
104.8039 1.302
104.8342 0.625
104.8645 0.833
104.8948 0.729
104.9250 1.094
104.9553 0.729
104.9856 0.625
105.0159 0.625
105.0462 0.833
105.0764 0.833
105.1067 1.042
105.1370 0.937
105.1673 0.469
105.1975 0.677
105.2278 0.885
105.2581 0.885
105.2884 0.885
105.3187 0.833
105.3489 0.677
105.3792 0.677
105.4095 0.833
105.4398 0.781
105.4701 0.469
105.5003 0.625
105.5306 0.833
105.5609 0.885
105.5912 0.937
105.6215 0.729
105.6517 0.833
105.6820 0.625
105.7123 0.833
105.7426 0.833
105.7728 0.833
105.8031 1.042
105.8334 0.833
105.8637 0.990
105.8940 0.729
105.9242 0.937
105.9545 1.250
105.9848 0.885
106.0151 0.729
106.0454 0.625
106.0756 0.833
106.1059 0.677
106.1362 0.885
106.1665 0.885
106.1967 0.833
106.2270 0.729
106.2573 1.146
106.2876 0.677
106.3179 0.833
106.3481 0.885
106.3784 0.677
106.4087 0.625
106.4390 0.729
106.4693 0.990
106.4995 0.833
106.5298 0.885
106.5601 1.198
106.5904 0.833
106.6206 0.729
106.6509 0.990
106.6812 0.729
106.7115 0.573
106.7418 0.573
106.7720 0.885
106.8023 0.990
106.8326 0.937
106.8629 0.573
106.8932 0.833
106.9234 1.094
106.9537 0.885
106.9840 0.885
107.0143 0.729
107.0445 0.781
107.0748 0.885
107.1051 0.990
107.1354 0.781
107.1657 0.885
107.1959 0.417
107.2262 0.833
107.2565 0.937
107.2868 0.781
107.3171 0.781
107.3473 0.885
107.3776 0.781
107.4079 0.833
107.4382 0.885
107.4684 0.677
107.4987 0.781
107.5290 0.573
107.5593 0.729
107.5896 0.625
107.6198 0.781
107.6501 0.885
107.6804 0.885
107.7107 0.677
107.7410 0.937
107.7712 1.250
107.8015 0.885
107.8318 0.625
107.8621 0.781
107.8923 0.469
107.9226 1.146
107.9529 0.677
107.9832 0.677
108.0135 0.365
108.0437 0.521
108.0740 0.833
108.1043 0.625
108.1346 0.885
108.1649 0.885
108.1951 0.573
108.2254 0.312
108.2557 0.781
108.2860 0.937
108.3163 0.625
108.3465 0.573
108.3768 0.781
108.4071 0.990
108.4374 1.146
108.4676 0.417
108.4979 0.781
108.5282 0.469
108.5585 0.937
108.5888 0.833
108.6190 0.885
108.6493 0.937
108.6796 0.781
108.7099 1.198
108.7402 0.729
108.7704 0.781
108.8007 1.042
108.8310 0.937
108.8613 0.937
108.8915 0.833
108.9218 0.677
108.9521 0.573
108.9824 0.885
109.0127 0.937
109.0429 0.729
109.0732 1.198
109.1035 0.937
109.1338 0.625
109.1641 0.833
109.1943 1.198
109.2246 0.677
109.2549 0.573
109.2852 0.990
109.3154 0.729
109.3457 0.885
109.3760 0.625
109.4063 0.469
109.4366 0.781
109.4668 0.729
109.4971 0.833
109.5274 1.042
109.5577 0.729
109.5880 0.781
109.6182 0.677
109.6485 0.885
109.6788 0.937
109.7091 0.937
109.7393 0.937
109.7696 0.677
109.7999 0.833
109.8302 0.990
109.8605 1.146
109.8907 0.885
109.9210 0.729
109.9513 0.729
109.9816 1.198
110.0119 0.781
110.0421 0.937
110.0724 0.990
110.1027 1.562
110.1330 1.146
110.1632 0.990
110.1935 0.625
110.2238 1.042
110.2541 0.781
110.2844 0.937
110.3146 1.458
110.3449 0.625
110.3752 1.302
110.4055 0.937
110.4358 0.781
110.4660 1.198
110.4963 1.042
110.5266 1.146
110.5569 1.198
110.5871 1.406
110.6174 0.937
110.6477 1.042
110.6780 0.937
110.7083 0.990
110.7385 0.833
110.7688 0.885
110.7991 1.146
110.8294 0.833
110.8597 1.354
110.8899 0.833
110.9202 0.781
110.9505 1.042
110.9808 0.781
111.0110 0.833
111.0413 0.990
111.0716 1.094
111.1019 0.885
111.1322 0.781
111.1624 0.833
111.1927 1.042
111.2230 1.042
111.2533 0.573
111.2836 0.885
111.3138 0.937
111.3441 0.625
111.3744 0.625
111.4047 1.198
111.4350 0.625
111.4652 0.885
111.4955 0.625
111.5258 0.573
111.5561 0.833
111.5863 0.990
111.6166 0.729
111.6469 0.677
111.6772 0.729
111.7075 0.312
111.7377 0.573
111.7680 0.521
111.7983 0.781
111.8286 0.365
111.8589 0.625
111.8891 0.677
111.9194 0.781
111.9497 0.729
111.9800 0.937
112.0102 0.729
112.0405 0.833
112.0708 0.990
112.1011 0.937
112.1314 0.625
112.1616 0.417
112.1919 0.937
112.2222 0.677
112.2525 0.729
112.2828 0.677
112.3130 0.729
112.3433 0.312
112.3736 0.781
112.4039 0.521
112.4341 0.781
112.4644 0.573
112.4947 0.573
112.5250 0.990
112.5553 0.781
112.5855 0.625
112.6158 0.677
112.6461 0.625
112.6764 0.573
112.7067 0.990
112.7369 0.781
112.7672 0.990
112.7975 0.781
112.8278 1.042
112.8580 0.625
112.8883 0.885
112.9186 0.365
112.9489 0.469
112.9792 0.781
113.0094 0.521
113.0397 0.781
113.0700 0.573
113.1003 0.729
113.1306 0.990
113.1608 0.573
113.1911 0.833
113.2214 0.833
113.2517 0.833
113.2819 0.885
113.3122 0.625
113.3425 0.781
113.3728 0.573
113.4031 0.885
113.4333 0.885
113.4636 0.677
113.4939 0.990
113.5242 0.521
113.5545 0.573
113.5847 0.885
113.6150 0.469
113.6453 0.781
113.6756 0.729
113.7058 0.625
113.7361 0.573
113.7664 0.729
113.7967 0.885
113.8270 0.990
113.8572 0.469
113.8875 0.469
113.9178 0.729
113.9481 0.677
113.9784 0.312
114.0086 1.042
114.0389 0.729
114.0692 0.625
114.0995 0.677
114.1298 0.937
114.1600 0.729
114.1903 0.990
114.2206 0.573
114.2509 0.781
114.2811 1.146
114.3114 0.677
114.3417 0.990
114.3720 0.677
114.4023 0.990
114.4325 1.042
114.4628 0.833
114.4931 0.937
114.5234 0.885
114.5537 0.833
114.5839 0.885
114.6142 0.729
114.6445 0.729
114.6748 0.677
114.7050 0.573
114.7353 1.094
114.7656 0.937
114.7959 1.042
114.8262 1.250
114.8564 1.250
114.8867 0.625
114.9170 0.833
114.9473 0.729
114.9776 0.781
115.0078 0.677
115.0381 1.094
115.0684 0.625
115.0987 0.625
115.1289 0.781
115.1592 0.990
115.1895 0.937
115.2198 0.573
115.2501 1.042
115.2803 1.146
115.3106 0.885
115.3409 0.781
115.3712 1.198
115.4015 1.406
115.4317 1.146
115.4620 1.250
115.4923 0.677
115.5226 0.990
115.5528 1.250
115.5831 0.833
115.6134 0.833
115.6437 1.146
115.6740 0.833
115.7042 1.146
115.7345 1.094
115.7648 0.937
115.7951 0.990
115.8254 1.146
115.8556 1.042
115.8859 0.937
115.9162 0.885
115.9465 1.354
115.9767 0.781
116.0070 1.146
116.0373 1.406
116.0676 0.781
116.0979 1.146
116.1281 1.094
116.1584 1.146
116.1887 1.302
116.2190 1.302
116.2493 1.354
116.2795 1.875
116.3098 1.458
116.3401 1.667
116.3704 1.354
116.4006 0.990
116.4309 1.146
116.4612 1.198
116.4915 1.354
116.5218 1.562
116.5520 1.667
116.5823 1.198
116.6126 1.458
116.6429 1.198
116.6732 1.094
116.7034 1.094
116.7337 1.198
116.7640 1.354
116.7943 1.458
116.8245 1.406
116.8548 1.198
116.8851 0.677
116.9154 0.729
116.9457 0.833
116.9759 1.094
117.0062 1.198
117.0365 1.042
117.0668 1.198
117.0971 1.302
117.1273 0.990
117.1576 0.677
117.1879 0.990
117.2182 0.833
117.2485 0.729
117.2787 0.833
117.3090 0.937
117.3393 0.729
117.3696 0.990
117.3998 1.354
117.4301 0.781
117.4604 1.042
117.4907 0.781
117.5210 0.833
117.5512 0.677
117.5815 0.833
117.6118 0.729
117.6421 1.094
117.6724 0.573
117.7026 0.729
117.7329 0.573
117.7632 1.042
117.7935 0.833
117.8237 0.937
117.8540 1.094
117.8843 0.937
117.9146 0.885
117.9449 0.937
117.9751 0.573
118.0054 0.885
118.0357 0.677
118.0660 0.677
118.0963 0.677
118.1265 0.469
118.1568 0.625
118.1871 0.677
118.2174 1.042
118.2476 0.625
118.2779 0.885
118.3082 0.677
118.3385 0.729
118.3688 0.833
118.3990 0.885
118.4293 0.677
118.4596 0.677
118.4899 0.937
118.5202 0.625
118.5504 0.781
118.5807 0.833
118.6110 0.521
118.6413 1.094
118.6715 1.042
118.7018 0.885
118.7321 1.250
118.7624 0.833
118.7927 1.146
118.8229 0.625
118.8532 0.625
118.8835 0.573
118.9138 0.885
118.9441 0.573
118.9743 0.781
119.0046 0.937
119.0349 0.781
119.0652 0.573
119.0954 0.781
119.1257 0.677
119.1560 0.781
119.1863 0.990
119.2166 0.729
119.2468 0.625
119.2771 0.937
119.3074 0.885
119.3377 0.729
119.3680 1.250
119.3982 0.885
119.4285 0.781
119.4588 0.677
119.4891 0.937
119.5193 0.729
119.5496 0.781
119.5799 0.469
119.6102 0.573
119.6405 0.885
119.6707 0.677
119.7010 1.042
119.7313 1.250
119.7616 0.573
119.7919 0.990
119.8221 0.625
119.8524 0.625
119.8827 0.417
119.9130 0.937
119.9433 1.042
119.9735 0.573
120.0038 1.094
