'Id: "" Comment: "" Operator: "Lab Manager" Anode: "Cu" Scantype: "Locked Coupled" TimePerStep: "19.2" X: "9999" Y: "9999" Z: "9999" 
10.0015 2.708
10.0318 4.010
10.0620 2.604
10.0923 3.333
10.1226 3.021
10.1529 2.448
10.1832 2.917
10.2134 2.760
10.2437 3.073
10.2740 2.656
10.3043 2.448
10.3346 2.500
10.3648 3.073
10.3951 2.500
10.4254 2.396
10.4557 3.333
10.4859 2.604
10.5162 2.969
10.5465 3.698
10.5768 3.698
10.6071 3.125
10.6373 3.125
10.6676 2.969
10.6979 3.437
10.7282 2.917
10.7585 2.865
10.7887 2.812
10.8190 3.646
10.8493 2.292
10.8796 2.969
10.9098 3.854
10.9401 3.750
10.9704 2.708
11.0007 3.021
11.0310 3.177
11.0612 3.750
11.0915 3.385
11.1218 2.552
11.1521 2.865
11.1824 3.333
11.2126 3.021
11.2429 2.552
11.2732 3.698
11.3035 3.021
11.3337 2.500
11.3640 3.385
11.3943 2.812
11.4246 2.083
11.4549 2.552
11.4851 3.542
11.5154 2.760
11.5457 2.865
11.5760 2.812
11.6063 3.073
11.6365 2.865
11.6668 2.187
11.6971 2.708
11.7274 2.344
11.7577 2.812
11.7879 2.500
11.8182 2.604
11.8485 2.865
11.8788 2.812
11.9090 3.698
11.9393 2.344
11.9696 2.240
11.9999 3.021
12.0302 2.083
12.0604 2.396
12.0907 2.760
12.1210 2.760
12.1513 2.760
12.1816 2.344
12.2118 3.125
12.2421 2.656
12.2724 2.292
12.3027 2.292
12.3329 2.448
12.3632 2.917
12.3935 2.552
12.4238 2.812
12.4541 2.448
12.4843 4.010
12.5146 2.604
12.5449 2.031
12.5752 3.177
12.6055 2.396
12.6357 3.073
12.6660 2.969
12.6963 3.125
12.7266 2.135
12.7568 2.500
12.7871 2.656
12.8174 2.240
12.8477 2.708
12.8780 2.344
12.9082 1.979
12.9385 2.552
12.9688 1.927
12.9991 2.292
13.0294 2.708
13.0596 2.917
13.0899 1.510
13.1202 2.031
13.1505 2.240
13.1807 2.083
13.2110 2.760
13.2413 2.552
13.2716 2.552
13.3019 2.083
13.3321 2.031
13.3624 2.344
13.3927 2.760
13.4230 2.292
13.4533 2.656
13.4835 2.604
13.5138 2.031
13.5441 2.708
13.5744 2.187
13.6046 2.448
13.6349 2.292
13.6652 2.240
13.6955 2.812
13.7258 2.240
13.7560 2.448
13.7863 2.344
13.8166 2.292
13.8469 1.823
13.8772 2.448
13.9074 2.396
13.9377 1.667
13.9680 2.917
13.9983 2.656
14.0285 2.240
14.0588 1.771
14.0891 2.396
14.1194 2.500
14.1497 2.656
14.1799 2.552
14.2102 2.500
14.2405 2.865
14.2708 1.875
14.3011 2.500
14.3313 3.125
14.3616 1.406
14.3919 1.927
14.4222 2.187
14.4524 1.979
14.4827 1.927
14.5130 1.979
14.5433 2.135
14.5736 2.448
14.6038 2.604
14.6341 2.240
14.6644 1.927
14.6947 2.760
14.7250 2.552
14.7552 2.917
14.7855 1.927
14.8158 2.500
14.8461 1.823
14.8764 2.396
14.9066 2.187
14.9369 2.344
14.9672 1.771
14.9975 2.344
15.0277 1.406
15.0580 1.823
15.0883 2.240
15.1186 2.240
15.1489 2.500
15.1791 1.979
15.2094 2.240
15.2397 1.354
15.2700 2.656
15.3003 2.344
15.3305 1.667
15.3608 2.031
15.3911 2.448
15.4214 2.292
15.4516 1.771
15.4819 2.135
15.5122 2.292
15.5425 2.448
15.5728 1.458
15.6030 2.552
15.6333 2.760
15.6636 1.823
15.6939 1.823
15.7242 1.771
15.7544 2.083
15.7847 1.719
15.8150 1.927
15.8453 2.656
15.8755 1.927
15.9058 2.135
15.9361 1.406
15.9664 2.083
15.9967 1.458
16.0269 1.927
16.0572 2.396
16.0875 1.667
16.1178 1.771
16.1481 1.667
16.1783 2.552
16.2086 2.083
16.2389 1.615
16.2692 1.875
16.2994 1.615
16.3297 1.719
16.3600 1.562
16.3903 1.823
16.4206 2.292
16.4508 2.083
16.4811 2.083
16.5114 2.083
16.5417 2.500
16.5720 1.927
16.6022 2.292
16.6325 1.875
16.6628 2.240
16.6931 2.448
16.7233 1.979
16.7536 1.875
16.7839 2.448
16.8142 2.656
16.8445 1.771
16.8747 1.771
16.9050 2.344
16.9353 1.667
16.9656 1.562
16.9959 2.344
17.0261 1.979
17.0564 1.979
17.0867 2.292
17.1170 1.510
17.1472 2.187
17.1775 1.667
17.2078 1.667
17.2381 1.458
17.2684 1.302
17.2986 2.187
17.3289 1.615
17.3592 2.552
17.3895 1.302
17.4198 1.719
17.4500 2.604
17.4803 1.979
17.5106 2.240
17.5409 2.083
17.5712 1.927
17.6014 1.406
17.6317 2.292
17.6620 1.927
17.6923 1.927
17.7225 2.083
17.7528 2.083
17.7831 2.083
17.8134 2.031
17.8437 1.667
17.8739 2.240
17.9042 1.667
17.9345 1.406
17.9648 1.771
17.9951 2.292
18.0253 2.240
18.0556 2.344
18.0859 1.979
18.1162 1.719
18.1464 1.927
18.1767 2.083
18.2070 1.510
18.2373 1.458
18.2676 1.302
18.2978 1.771
18.3281 1.510
18.3584 1.771
18.3887 2.187
18.4190 1.771
18.4492 1.667
18.4795 1.198
18.5098 2.240
18.5401 1.823
18.5703 1.302
18.6006 1.042
18.6309 1.354
18.6612 1.719
18.6915 1.875
18.7217 1.823
18.7520 2.448
18.7823 1.458
18.8126 1.823
18.8429 1.667
18.8731 2.135
18.9034 1.042
18.9337 2.500
18.9640 2.292
18.9942 1.823
19.0245 1.875
19.0548 2.240
19.0851 2.292
19.1154 1.771
19.1456 1.823
19.1759 1.875
19.2062 1.823
19.2365 1.979
19.2668 1.875
19.2970 1.458
19.3273 1.198
19.3576 1.406
19.3879 1.198
19.4181 2.187
19.4484 1.667
19.4787 1.562
19.5090 1.979
19.5393 1.562
19.5695 1.146
19.5998 1.562
19.6301 1.510
19.6604 1.719
19.6907 1.406
19.7209 1.562
19.7512 1.771
19.7815 1.823
19.8118 1.562
19.8420 1.458
19.8723 1.927
19.9026 2.135
19.9329 1.510
19.9632 2.135
19.9934 1.927
20.0237 1.719
20.0540 1.146
20.0843 0.990
20.1146 1.719
20.1448 1.875
20.1751 1.042
20.2054 1.771
20.2357 1.667
20.2659 1.667
20.2962 1.719
20.3265 1.615
20.3568 1.302
20.3871 1.719
20.4173 1.875
20.4476 1.510
20.4779 2.083
20.5082 1.875
20.5385 1.302
20.5687 1.875
20.5990 1.354
20.6293 2.500
20.6596 1.719
20.6899 1.458
20.7201 1.771
20.7504 2.552
20.7807 1.667
20.8110 1.719
20.8412 1.927
20.8715 1.562
20.9018 1.615
20.9321 1.406
20.9624 1.719
20.9926 1.875
21.0229 1.302
21.0532 1.927
21.0835 1.667
21.1138 1.615
21.1440 2.135
21.1743 1.562
21.2046 1.250
21.2349 1.354
21.2651 1.667
21.2954 1.667
21.3257 1.458
21.3560 1.250
21.3863 1.615
21.4165 1.979
21.4468 2.031
21.4771 1.562
21.5074 1.406
21.5377 1.406
21.5679 1.146
21.5982 1.250
21.6285 1.510
21.6588 1.510
21.6890 1.094
21.7193 1.771
21.7496 0.781
21.7799 1.198
21.8102 1.250
21.8404 1.875
21.8707 2.031
21.9010 1.406
21.9313 1.719
21.9616 1.667
21.9918 1.979
22.0221 1.354
22.0524 1.406
22.0827 1.771
22.1129 1.458
22.1432 1.198
22.1735 1.667
22.2038 1.354
22.2341 1.510
22.2643 1.510
22.2946 1.094
22.3249 2.187
22.3552 2.187
22.3855 1.146
22.4157 1.354
22.4460 1.823
22.4763 1.250
22.5066 1.562
22.5368 1.615
22.5671 1.562
22.5974 1.510
22.6277 1.927
22.6580 1.146
22.6882 1.198
22.7185 1.458
22.7488 1.198
22.7791 1.875
22.8094 1.615
22.8396 1.302
22.8699 1.458
22.9002 1.719
22.9305 1.042
22.9607 1.250
22.9910 1.510
23.0213 1.458
23.0516 1.667
23.0819 1.094
23.1121 1.250
23.1424 1.146
23.1727 1.875
23.2030 1.198
23.2333 1.198
23.2635 1.354
23.2938 1.510
23.3241 1.406
23.3544 1.667
23.3846 1.510
23.4149 1.250
23.4452 1.198
23.4755 1.979
23.5058 1.302
23.5360 1.250
23.5663 0.885
23.5966 1.771
23.6269 1.562
23.6572 1.094
23.6874 1.615
23.7177 2.031
23.7480 1.146
23.7783 1.354
23.8086 1.250
23.8388 1.406
23.8691 0.937
23.8994 1.615
23.9297 1.042
23.9599 1.615
23.9902 1.771
24.0205 1.250
24.0508 1.562
24.0811 1.042
24.1113 1.458
24.1416 1.615
24.1719 1.094
24.2022 1.458
24.2325 1.354
24.2627 1.667
24.2930 1.094
24.3233 0.990
24.3536 1.406
24.3838 1.927
24.4141 1.458
24.4444 1.615
24.4747 1.458
24.5050 1.406
24.5352 1.406
24.5655 1.458
24.5958 0.937
24.6261 1.510
24.6564 1.198
24.6866 1.562
24.7169 1.406
24.7472 1.510
24.7775 1.823
24.8077 1.562
24.8380 1.406
24.8683 1.354
24.8986 0.781
24.9289 1.667
24.9591 1.771
24.9894 1.250
25.0197 1.302
25.0500 1.354
25.0803 1.875
25.1105 1.250
25.1408 1.146
25.1711 1.771
25.2014 1.094
25.2316 1.719
25.2619 1.198
25.2922 1.354
25.3225 1.615
25.3528 1.562
25.3830 1.562
25.4133 0.990
25.4436 1.458
25.4739 1.615
25.5042 1.823
25.5344 1.146
25.5647 1.094
25.5950 1.458
25.6253 0.729
25.6555 1.354
25.6858 1.875
25.7161 1.406
25.7464 1.250
25.7767 1.510
25.8069 1.354
25.8372 1.250
25.8675 1.510
25.8978 1.042
25.9281 1.562
25.9583 1.354
25.9886 1.927
26.0189 1.250
26.0492 1.146
26.0794 1.667
26.1097 1.667
26.1400 1.667
26.1703 1.302
26.2006 1.406
26.2308 1.562
26.2611 1.250
26.2914 1.146
26.3217 1.667
26.3520 1.146
26.3822 0.885
26.4125 0.677
26.4428 1.406
26.4731 1.458
26.5034 1.667
26.5336 1.719
26.5639 1.458
26.5942 1.510
26.6245 1.302
26.6547 1.667
26.6850 1.406
26.7153 1.875
26.7456 1.354
26.7759 1.615
26.8061 1.302
26.8364 1.354
26.8667 1.250
26.8970 1.719
26.9273 1.458
26.9575 1.094
26.9878 1.823
27.0181 1.354
27.0484 1.250
27.0786 1.562
27.1089 1.562
27.1392 2.031
27.1695 1.771
27.1998 1.615
27.2300 1.615
27.2603 1.823
27.2906 1.615
27.3209 1.510
27.3512 1.354
27.3814 1.094
27.4117 1.562
27.4420 1.615
27.4723 2.083
27.5025 2.240
27.5328 1.354
27.5631 1.667
27.5934 2.187
27.6237 1.354
27.6539 1.875
27.6842 1.771
27.7145 1.823
27.7448 1.354
27.7751 1.562
27.8053 1.667
27.8356 1.354
27.8659 1.302
27.8962 1.615
27.9264 1.354
27.9567 1.667
27.9870 1.562
28.0173 1.927
28.0476 1.875
28.0778 1.823
28.1081 1.927
28.1384 1.667
28.1687 0.937
28.1990 1.719
28.2292 1.562
28.2595 1.250
28.2898 1.510
28.3201 1.667
28.3503 1.250
28.3806 0.990
28.4109 1.198
28.4412 1.562
28.4715 1.406
28.5017 1.615
28.5320 1.615
28.5623 1.719
28.5926 1.771
28.6229 1.771
28.6531 1.458
28.6834 1.458
28.7137 1.719
28.7440 2.031
28.7742 1.094
28.8045 1.406
28.8348 1.823
28.8651 1.302
28.8954 1.406
28.9256 1.979
28.9559 1.510
28.9862 1.146
29.0165 2.031
29.0468 1.979
29.0770 1.198
29.1073 2.135
29.1376 1.562
29.1679 1.562
29.1981 1.510
29.2284 1.354
29.2587 1.719
29.2890 1.719
29.3193 1.458
29.3495 1.875
29.3798 1.667
29.4101 1.719
29.4404 1.979
29.4707 1.354
29.5009 1.198
29.5312 1.406
29.5615 2.135
29.5918 1.458
29.6221 1.875
29.6523 2.552
29.6826 1.719
29.7129 2.344
29.7432 1.823
29.7734 1.667
29.8037 1.875
29.8340 1.615
29.8643 2.344
29.8946 2.135
29.9248 1.875
29.9551 1.927
29.9854 2.031
30.0157 1.771
30.0460 1.719
30.0762 1.771
30.1065 1.562
30.1368 1.979
30.1671 1.615
30.1973 1.927
30.2276 1.875
30.2579 2.031
30.2882 2.031
30.3185 1.979
30.3487 2.187
30.3790 2.344
30.4093 1.979
30.4396 1.615
30.4699 2.917
30.5001 2.969
30.5304 2.865
30.5607 2.708
30.5910 1.979
30.6212 2.187
30.6515 2.500
30.6818 2.604
30.7121 2.552
30.7424 2.187
30.7726 3.542
30.8029 3.021
30.8332 4.010
30.8635 2.969
30.8938 4.323
30.9240 3.229
30.9543 4.167
30.9846 4.115
31.0149 4.062
31.0451 4.375
31.0754 4.792
31.1057 4.271
31.1360 5.208
31.1663 6.250
31.1965 5.104
31.2268 5.885
31.2571 7.396
31.2874 7.448
31.3177 7.760
31.3479 10.156
31.3782 10.417
31.4085 11.927
31.4388 11.823
31.4690 14.010
31.4993 15.312
31.5296 16.510
31.5599 17.708
31.5902 19.062
31.6204 20.729
31.6507 18.802
31.6810 21.719
31.7113 17.344
31.7416 17.552
31.7718 15.781
31.8021 13.333
31.8324 11.667
31.8627 10.208
31.8929 9.896
31.9232 8.854
31.9535 8.385
31.9838 6.510
32.0141 5.990
32.0443 5.937
32.0746 5.937
32.1049 4.531
32.1352 4.167
32.1655 4.167
32.1957 4.375
32.2260 4.167
32.2563 4.219
32.2866 3.854
32.3169 3.542
32.3471 3.906
32.3774 2.604
32.4077 4.010
32.4380 3.594
32.4682 3.385
32.4985 2.969
32.5288 2.448
32.5591 1.667
32.5894 3.073
32.6196 3.385
32.6499 3.229
32.6802 2.865
32.7105 2.708
32.7408 2.292
32.7710 2.760
32.8013 2.240
32.8316 3.229
32.8619 2.760
32.8921 2.083
32.9224 2.448
32.9527 2.083
32.9830 2.500
33.0133 1.823
33.0435 2.552
33.0738 2.448
33.1041 2.187
33.1344 1.875
33.1647 2.500
33.1949 2.448
33.2252 1.562
33.2555 2.448
33.2858 2.448
33.3160 2.500
33.3463 2.604
33.3766 2.396
33.4069 2.500
33.4372 2.760
33.4674 1.667
33.4977 2.292
33.5280 2.500
33.5583 3.073
33.5886 2.604
33.6188 2.500
33.6491 3.229
33.6794 3.333
33.7097 3.490
33.7399 3.698
33.7702 3.906
33.8005 3.594
33.8308 3.750
33.8611 3.854
33.8913 3.646
33.9216 4.062
33.9519 4.792
33.9822 5.052
34.0125 6.615
34.0427 6.667
34.0730 6.562
34.1033 7.917
34.1336 10.417
34.1638 11.875
34.1941 15.208
34.2244 20.521
34.2547 20.990
34.2850 23.437
34.3152 21.719
34.3455 20.469
34.3758 17.292
34.4061 13.281
34.4364 10.833
34.4666 9.635
34.4969 7.812
34.5272 6.771
34.5575 6.094
34.5877 5.208
34.6180 4.844
34.6483 4.687
34.6786 3.385
34.7089 3.854
34.7391 3.021
34.7694 3.490
34.7997 3.698
34.8300 2.865
34.8603 3.437
34.8905 2.135
34.9208 3.333
34.9511 2.812
34.9814 3.281
35.0116 2.969
35.0419 3.021
35.0722 3.437
35.1025 2.917
35.1328 3.333
35.1630 2.969
35.1933 2.552
35.2236 3.646
35.2539 3.594
35.2842 4.479
35.3144 3.385
35.3447 3.750
35.3750 4.115
35.4053 3.021
35.4356 4.583
35.4658 3.542
35.4961 4.687
35.5264 4.740
35.5567 4.635
35.5869 6.354
35.6172 6.406
35.6475 4.844
35.6778 6.458
35.7081 7.292
35.7383 8.646
35.7686 8.281
35.7989 9.375
35.8292 10.312
35.8595 12.083
35.8897 12.917
35.9200 15.365
35.9503 15.156
35.9806 19.844
36.0108 22.604
36.0411 23.802
36.0714 24.635
36.1017 26.250
36.1320 28.281
36.1622 24.583
36.1925 24.323
36.2228 21.198
36.2531 18.750
36.2834 19.948
36.3136 17.135
36.3439 15.365
36.3742 11.510
36.4045 11.771
36.4347 8.333
36.4650 7.240
36.4953 7.240
36.5256 6.458
36.5559 6.927
36.5861 5.729
36.6164 5.781
36.6467 4.167
36.6770 4.583
36.7073 4.375
36.7375 3.958
36.7678 3.906
36.7981 3.698
36.8284 3.594
36.8586 3.125
36.8889 3.594
36.9192 2.969
36.9495 2.292
36.9798 3.021
37.0100 3.177
37.0403 2.656
37.0706 2.552
37.1009 2.708
37.1312 2.396
37.1614 2.812
37.1917 2.344
37.2220 1.771
37.2523 1.823
37.2825 2.187
37.3128 1.719
37.3431 1.458
37.3734 1.979
37.4037 1.979
37.4339 2.187
37.4642 2.812
37.4945 2.187
37.5248 1.510
37.5551 2.083
37.5853 1.771
37.6156 1.875
37.6459 1.667
37.6762 2.083
37.7064 1.927
37.7367 1.510
37.7670 1.771
37.7973 2.187
37.8276 1.823
37.8578 1.198
37.8881 1.250
37.9184 1.667
37.9487 0.990
37.9790 1.667
38.0092 1.302
38.0395 1.302
38.0698 1.458
38.1001 1.667
38.1304 1.354
38.1606 1.823
38.1909 1.146
38.2212 1.458
38.2515 1.406
38.2817 1.146
38.3120 0.990
38.3423 1.302
38.3726 1.198
38.4029 1.198
38.4331 1.875
38.4634 1.562
38.4937 1.615
38.5240 1.771
38.5543 1.719
38.5845 1.302
38.6148 1.823
38.6451 1.615
38.6754 0.885
38.7056 1.354
38.7359 1.094
38.7662 1.198
38.7965 1.250
38.8268 1.146
38.8570 1.667
38.8873 1.094
38.9176 1.354
38.9479 1.406
38.9782 1.354
39.0084 1.302
39.0387 1.354
39.0690 0.937
39.0993 1.042
39.1295 1.250
39.1598 1.406
39.1901 0.885
39.2204 1.042
39.2507 1.198
39.2809 1.250
39.3112 0.937
39.3415 1.510
39.3718 0.990
39.4021 1.510
39.4323 1.302
39.4626 1.354
39.4929 1.250
39.5232 1.198
39.5534 1.354
39.5837 0.573
39.6140 0.833
39.6443 0.781
39.6746 1.302
39.7048 1.198
39.7351 1.667
39.7654 0.990
39.7957 0.937
39.8260 1.250
39.8562 0.781
39.8865 0.625
39.9168 0.885
39.9471 1.094
39.9773 1.042
40.0076 1.458
40.0379 0.885
40.0682 1.042
40.0985 0.937
40.1287 1.510
40.1590 0.885
40.1893 1.198
40.2196 1.094
40.2499 0.990
40.2801 1.094
40.3104 0.990
40.3407 0.990
40.3710 1.042
40.4012 1.042
40.4315 1.615
40.4618 1.562
40.4921 0.833
40.5224 0.729
40.5526 0.937
40.5829 1.510
40.6132 0.937
40.6435 1.198
40.6738 1.094
40.7040 1.094
40.7343 1.250
40.7646 0.885
40.7949 0.885
40.8251 0.885
40.8554 0.781
40.8857 1.250
40.9160 1.250
40.9463 0.990
40.9765 0.677
41.0068 0.990
41.0371 0.833
41.0674 0.781
41.0977 0.781
41.1279 1.198
41.1582 1.094
41.1885 0.937
41.2188 0.990
41.2491 1.042
41.2793 0.677
41.3096 1.198
41.3399 1.354
41.3702 0.885
41.4004 0.990
41.4307 0.937
41.4610 1.354
41.4913 1.042
41.5216 0.729
41.5518 1.094
41.5821 1.094
41.6124 1.198
41.6427 0.990
41.6730 0.833
41.7032 1.094
41.7335 1.198
41.7638 0.885
41.7941 0.781
41.8243 1.094
41.8546 1.094
41.8849 1.042
41.9152 1.146
41.9455 0.833
41.9757 0.990
42.0060 1.146
42.0363 0.990
42.0666 0.833
42.0969 0.990
42.1271 0.885
42.1574 0.990
42.1877 0.937
42.2180 0.885
42.2482 1.094
42.2785 0.833
42.3088 0.677
42.3391 0.677
42.3694 0.833
42.3996 1.406
42.4299 1.094
42.4602 1.146
42.4905 1.146
42.5208 1.094
42.5510 1.302
42.5813 0.937
42.6116 0.833
42.6419 0.781
42.6721 0.885
42.7024 1.146
42.7327 1.146
42.7630 1.042
42.7933 0.781
42.8235 1.510
42.8538 1.250
42.8841 0.729
42.9144 1.250
42.9447 1.354
42.9749 1.250
43.0052 1.146
43.0355 0.990
43.0658 1.042
43.0960 1.302
43.1263 1.354
43.1566 0.990
43.1869 0.625
43.2172 1.302
43.2474 1.042
43.2777 0.573
43.3080 1.250
43.3383 1.354
43.3686 0.781
43.3988 1.094
43.4291 0.937
43.4594 1.198
43.4897 1.146
43.5199 1.510
43.5502 0.885
43.5805 0.729
43.6108 0.625
43.6411 0.885
43.6713 1.250
43.7016 0.990
43.7319 0.729
43.7622 1.250
43.7925 0.833
43.8227 0.625
43.8530 1.302
43.8833 0.937
43.9136 1.250
43.9439 1.615
43.9741 1.354
44.0044 1.042
44.0347 0.729
44.0650 1.250
44.0952 0.885
44.1255 1.354
44.1558 1.094
44.1861 1.094
44.2164 0.781
44.2466 0.833
44.2769 0.937
44.3072 0.885
44.3375 0.990
44.3678 0.625
44.3980 1.510
44.4283 0.885
44.4586 0.781
44.4889 1.667
44.5191 0.833
44.5494 0.729
44.5797 0.990
44.6100 1.562
44.6403 0.990
44.6705 0.885
44.7008 1.042
44.7311 0.990
44.7614 1.250
44.7917 0.521
44.8219 1.198
44.8522 0.937
44.8825 0.885
44.9128 0.885
44.9430 1.354
44.9733 0.833
45.0036 0.990
45.0339 1.406
45.0642 1.042
45.0944 0.677
45.1247 1.146
45.1550 0.937
45.1853 1.198
45.2156 0.885
45.2458 0.677
45.2761 0.990
45.3064 0.937
45.3367 1.094
45.3669 1.094
45.3972 0.990
45.4275 1.094
45.4578 0.833
45.4881 1.042
45.5183 1.198
45.5486 1.146
45.5789 0.833
45.6092 0.833
45.6395 1.406
45.6697 0.625
45.7000 0.990
45.7303 1.562
45.7606 1.042
45.7908 0.937
45.8211 1.302
45.8514 0.729
45.8817 1.510
45.9120 1.562
45.9422 1.198
45.9725 1.146
46.0028 1.458
46.0331 1.562
46.0634 1.198
46.0936 1.354
46.1239 1.302
46.1542 1.146
46.1845 1.354
46.2147 1.562
46.2450 1.198
46.2753 1.198
46.3056 1.562
46.3359 1.510
46.3661 1.094
46.3964 1.406
46.4267 1.510
46.4570 1.510
46.4873 1.354
46.5175 1.458
46.5478 1.198
46.5781 1.198
46.6084 0.937
46.6386 1.823
46.6689 1.250
46.6992 0.990
46.7295 1.510
46.7598 1.406
46.7900 1.823
46.8203 1.719
46.8506 1.875
46.8809 1.771
46.9112 1.667
46.9414 2.031
46.9717 2.448
47.0020 2.083
47.0323 2.344
47.0626 2.292
47.0928 2.396
47.1231 2.865
47.1534 3.177
47.1837 3.698
47.2139 3.385
47.2442 4.062
47.2745 4.375
47.3048 4.740
47.3351 5.729
47.3653 5.677
47.3956 5.573
47.4259 4.687
47.4562 5.312
47.4865 5.937
47.5167 5.625
47.5470 4.687
47.5773 4.687
47.6076 4.167
47.6378 3.906
47.6681 3.229
47.6984 2.656
47.7287 2.917
47.7590 2.344
47.7892 2.344
47.8195 2.135
47.8498 1.875
47.8801 1.875
47.9104 1.823
47.9406 1.510
47.9709 1.719
48.0012 2.344
48.0315 1.146
48.0617 1.615
48.0920 1.042
48.1223 1.667
48.1526 2.083
48.1829 1.354
48.2131 1.458
48.2434 1.354
48.2737 0.885
48.3040 1.094
48.3343 1.510
48.3645 0.781
48.3948 0.885
48.4251 1.458
48.4554 1.354
48.4856 1.250
48.5159 0.781
48.5462 1.198
48.5765 1.406
48.6068 1.042
48.6370 1.094
48.6673 1.042
48.6976 1.302
48.7279 0.729
48.7582 1.094
48.7884 1.094
48.8187 1.250
48.8490 1.094
48.8793 1.042
48.9095 0.781
48.9398 1.198
48.9701 1.250
49.0004 1.198
49.0307 1.354
49.0609 1.094
49.0912 1.302
49.1215 1.302
49.1518 1.198
49.1821 1.042
49.2123 0.885
49.2426 1.354
49.2729 0.990
49.3032 1.667
49.3334 1.406
49.3637 1.302
49.3940 1.250
49.4243 1.198
49.4546 1.302
49.4848 1.302
49.5151 1.302
49.5454 1.094
49.5757 1.302
49.6060 1.302
49.6362 1.198
49.6665 0.833
49.6968 0.990
49.7271 0.729
49.7574 1.562
49.7876 0.990
49.8179 0.937
49.8482 1.458
49.8785 1.198
49.9087 1.354
49.9390 0.990
49.9693 0.677
49.9996 1.042
50.0299 1.250
50.0601 0.937
50.0904 0.990
50.1207 0.937
50.1510 1.302
50.1813 1.250
50.2115 1.302
50.2418 0.885
50.2721 0.885
50.3024 0.677
50.3326 1.094
50.3629 0.937
50.3932 1.250
50.4235 0.677
50.4538 0.833
50.4840 1.094
50.5143 0.573
50.5446 0.937
50.5749 0.729
50.6052 0.937
50.6354 0.885
50.6657 0.990
50.6960 0.729
50.7263 1.094
50.7565 1.146
50.7868 0.833
50.8171 0.833
50.8474 0.885
50.8777 1.198
50.9079 1.250
50.9382 1.719
50.9685 0.833
50.9988 1.094
51.0291 0.833
51.0593 1.302
51.0896 1.094
51.1199 1.042
51.1502 1.042
51.1804 1.042
51.2107 0.625
51.2410 1.250
51.2713 1.094
51.3016 0.677
51.3318 0.677
51.3621 1.250
51.3924 0.833
51.4227 1.094
51.4530 1.198
51.4832 0.937
51.5135 0.937
51.5438 0.573
51.5741 0.990
51.6043 1.042
51.6346 0.937
51.6649 1.042
51.6952 0.781
51.7255 0.729
51.7557 0.885
51.7860 0.573
51.8163 0.677
51.8466 0.885
51.8769 0.781
51.9071 1.146
51.9374 1.198
51.9677 1.302
51.9980 0.625
52.0282 0.990
52.0585 0.990
52.0888 1.042
52.1191 1.354
52.1494 0.729
52.1796 0.833
52.2099 1.146
52.2402 1.458
52.2705 1.198
52.3008 0.833
52.3310 0.781
52.3613 1.042
52.3916 0.990
52.4219 0.677
52.4521 1.198
52.4824 0.885
52.5127 0.677
52.5430 0.625
52.5733 0.573
52.6035 1.042
52.6338 0.937
52.6641 0.469
52.6944 0.833
52.7247 1.042
52.7549 1.198
52.7852 0.469
52.8155 1.042
52.8458 0.625
52.8761 0.885
52.9063 0.677
52.9366 1.042
52.9669 0.469
52.9972 0.729
53.0274 1.146
53.0577 1.094
53.0880 0.729
53.1183 1.198
53.1486 1.354
53.1788 0.885
53.2091 0.625
53.2394 0.781
53.2697 1.094
53.3000 0.990
53.3302 1.302
53.3605 1.094
53.3908 1.354
53.4211 0.781
53.4513 0.677
53.4816 0.729
53.5119 0.885
53.5422 0.677
53.5725 0.781
53.6027 0.729
53.6330 0.833
53.6633 0.885
53.6936 1.562
53.7239 0.885
53.7541 0.833
53.7844 0.833
53.8147 1.146
53.8450 0.729
53.8752 1.094
53.9055 1.198
53.9358 1.354
53.9661 0.937
53.9964 1.250
54.0266 0.729
54.0569 1.042
54.0872 1.042
54.1175 0.729
54.1478 1.094
54.1780 0.937
54.2083 0.677
54.2386 1.094
54.2689 1.146
54.2991 0.781
54.3294 0.937
54.3597 1.042
54.3900 1.354
54.4203 0.937
54.4505 0.781
54.4808 1.198
54.5111 0.833
54.5414 0.833
54.5717 0.937
54.6019 0.781
54.6322 1.094
54.6625 0.990
54.6928 0.885
54.7230 1.094
54.7533 0.729
54.7836 1.302
54.8139 0.833
54.8442 0.990
54.8744 1.250
54.9047 0.990
54.9350 1.302
54.9653 0.885
54.9956 0.990
55.0258 1.094
55.0561 1.042
55.0864 0.990
55.1167 1.302
55.1469 0.885
55.1772 1.042
55.2075 1.146
55.2378 0.937
55.2681 1.302
55.2983 1.198
55.3286 0.833
55.3589 1.302
55.3892 1.250
55.4195 1.198
55.4497 1.302
55.4800 0.573
55.5103 1.146
55.5406 1.458
55.5709 1.354
55.6011 0.990
55.6314 1.719
55.6617 1.302
55.6920 1.719
55.7222 1.615
55.7525 1.667
55.7828 1.406
55.8131 1.667
55.8434 2.135
55.8736 2.240
55.9039 1.094
55.9342 2.083
55.9645 1.667
55.9948 2.240
56.0250 2.135
56.0553 1.719
56.0856 3.490
56.1159 3.490
56.1461 3.333
56.1764 3.125
56.2067 3.698
56.2370 4.062
56.2673 4.271
56.2975 4.531
56.3278 5.417
56.3581 5.885
56.3884 6.302
56.4187 6.667
56.4489 5.677
56.4792 7.031
56.5095 5.729
56.5398 6.302
56.5700 4.896
56.6003 5.937
56.6306 4.583
56.6609 4.115
56.6912 4.323
56.7214 3.594
56.7517 4.271
56.7820 3.073
56.8123 3.281
56.8426 2.396
56.8728 2.656
56.9031 3.021
56.9334 2.083
56.9637 1.979
56.9939 1.615
57.0242 1.719
57.0545 1.562
57.0848 1.667
57.1151 1.458
57.1453 1.510
57.1756 1.562
57.2059 1.823
57.2362 1.562
57.2665 1.198
57.2967 1.094
57.3270 1.198
57.3573 1.302
57.3876 1.146
57.4178 0.885
57.4481 1.094
57.4784 1.354
57.5087 1.094
57.5390 1.406
57.5692 1.042
57.5995 1.302
57.6298 0.781
57.6601 0.990
57.6904 1.094
57.7206 0.990
57.7509 1.302
57.7812 0.781
57.8115 0.990
57.8417 1.146
57.8720 0.937
57.9023 0.781
57.9326 0.521
57.9629 0.781
57.9931 1.198
58.0234 1.198
58.0537 0.833
58.0840 0.885
58.1143 1.146
58.1445 0.677
58.1748 0.781
58.2051 0.937
58.2354 1.250
58.2656 0.729
58.2959 1.146
58.3262 0.937
58.3565 0.833
58.3868 0.885
58.4170 0.937
58.4473 1.198
58.4776 0.937
58.5079 0.625
58.5382 0.833
58.5684 0.885
58.5987 1.198
58.6290 1.146
58.6593 0.990
58.6896 1.042
58.7198 0.781
58.7501 1.198
58.7804 0.677
58.8107 0.677
58.8409 1.042
58.8712 0.781
58.9015 1.042
58.9318 0.833
58.9621 0.990
58.9923 0.937
59.0226 0.781
59.0529 1.458
59.0832 0.781
59.1135 1.198
59.1437 0.781
59.1740 0.937
59.2043 0.937
59.2346 0.885
59.2648 0.937
59.2951 1.146
59.3254 0.990
59.3557 0.885
59.3860 0.937
59.4162 0.729
59.4465 0.729
59.4768 0.937
59.5071 0.937
59.5374 0.573
59.5676 0.729
59.5979 0.885
59.6282 0.469
59.6585 0.937
59.6887 0.729
59.7190 0.990
59.7493 1.042
59.7796 0.677
59.8099 0.781
59.8401 0.469
59.8704 0.885
59.9007 0.885
59.9310 0.885
59.9613 1.042
59.9915 0.937
60.0218 0.885
60.0521 0.833
60.0824 0.937
60.1126 1.094
60.1429 1.146
60.1732 0.937
60.2035 0.937
60.2338 0.781
60.2640 1.042
60.2943 1.042
60.3246 1.250
60.3549 0.677
60.3852 0.417
60.4154 0.729
60.4457 1.042
60.4760 0.677
60.5063 1.250
60.5365 0.729
60.5668 0.990
60.5971 0.365
60.6274 1.146
60.6577 1.250
60.6879 0.833
60.7182 0.833
60.7485 0.885
60.7788 1.302
60.8091 0.833
60.8393 0.781
60.8696 0.625
60.8999 0.573
60.9302 0.937
60.9604 0.885
60.9907 1.094
61.0210 0.781
61.0513 0.833
61.0816 0.469
61.1118 0.833
61.1421 0.833
61.1724 0.937
61.2027 1.094
61.2330 0.990
61.2632 1.042
61.2935 0.937
61.3238 0.885
61.3541 0.781
61.3844 0.885
61.4146 1.094
61.4449 0.937
61.4752 0.729
61.5055 1.042
61.5357 0.885
61.5660 0.885
61.5963 0.781
61.6266 0.937
61.6569 1.042
61.6871 1.146
61.7174 1.094
61.7477 0.625
61.7780 1.406
61.8083 1.458
61.8385 1.042
61.8688 1.302
61.8991 0.885
61.9294 0.990
61.9596 1.562
61.9899 1.146
62.0202 0.885
62.0505 1.354
62.0808 1.302
62.1110 1.406
62.1413 1.042
62.1716 1.771
62.2019 1.406
62.2322 1.615
62.2624 1.510
62.2927 1.719
62.3230 2.187
62.3533 2.865
62.3835 3.021
62.4138 2.656
62.4441 3.125
62.4744 2.448
62.5047 3.177
62.5349 4.271
62.5652 3.698
62.5955 4.323
62.6258 4.583
62.6561 5.937
62.6863 4.740
62.7166 5.833
62.7469 5.208
62.7772 5.365
62.8074 3.437
62.8377 4.323
62.8680 4.375
62.8983 3.490
62.9286 4.687
62.9588 4.219
62.9891 3.646
63.0194 3.854
63.0497 2.812
63.0800 3.333
63.1102 2.135
63.1405 1.823
63.1708 1.719
63.2011 1.719
63.2313 1.458
63.2616 1.667
63.2919 1.198
63.3222 1.823
63.3525 1.458
63.3827 1.146
63.4130 1.302
63.4433 1.615
63.4736 0.990
63.5039 1.302
63.5341 1.354
63.5644 1.146
63.5947 1.042
63.6250 1.562
63.6552 1.250
63.6855 1.354
63.7158 0.937
63.7461 1.406
63.7764 1.094
63.8066 1.250
63.8369 1.042
63.8672 0.885
63.8975 0.677
63.9278 1.667
63.9580 1.146
63.9883 1.042
64.0186 1.146
64.0489 1.250
64.0791 1.354
64.1094 1.042
64.1397 0.885
64.1700 0.937
64.2003 0.729
64.2305 0.833
64.2608 0.990
64.2911 0.885
64.3214 0.833
64.3517 0.937
64.3819 1.250
64.4122 0.729
64.4425 0.573
64.4728 0.833
64.5031 0.625
64.5333 0.990
64.5636 0.677
64.5939 0.417
64.6242 0.833
64.6544 0.729
64.6847 0.833
64.7150 1.250
64.7453 0.677
64.7756 1.042
64.8058 0.885
64.8361 0.990
64.8664 0.729
64.8967 0.729
64.9270 0.833
64.9572 0.729
64.9875 0.833
65.0178 0.833
65.0481 0.833
65.0783 1.094
65.1086 0.937
65.1389 1.094
65.1692 0.677
65.1995 1.146
65.2297 0.833
65.2600 0.833
65.2903 0.729
65.3206 0.521
65.3509 0.781
65.3811 0.729
65.4114 0.833
65.4417 0.990
65.4720 0.833
65.5022 0.781
65.5325 0.937
65.5628 0.833
65.5931 0.781
65.6234 1.354
65.6536 1.042
65.6839 0.833
65.7142 1.198
65.7445 0.729
65.7748 0.990
65.8050 0.885
65.8353 0.833
65.8656 1.042
65.8959 1.302
65.9261 0.833
65.9564 1.146
65.9867 1.094
66.0170 1.510
66.0473 1.406
66.0775 0.937
66.1078 1.198
66.1381 1.615
66.1684 1.562
66.1987 1.458
66.2289 1.146
66.2592 1.562
66.2895 1.615
66.3198 1.615
66.3500 1.094
66.3803 1.354
66.4106 1.302
66.4409 1.771
66.4712 1.354
66.5014 1.719
66.5317 1.146
66.5620 1.719
66.5923 1.406
66.6226 1.250
66.6528 1.458
66.6831 1.146
66.7134 1.302
66.7437 0.990
66.7739 1.094
66.8042 0.781
66.8345 1.302
66.8648 1.042
66.8951 0.937
66.9253 1.406
66.9556 1.042
66.9859 0.781
67.0162 0.990
67.0465 0.990
67.0767 1.562
67.1070 1.094
67.1373 1.302
67.1676 1.250
67.1978 1.354
67.2281 0.781
67.2584 1.719
67.2887 1.354
67.3190 1.615
67.3492 1.927
67.3795 2.240
67.4098 2.240
67.4401 1.667
67.4704 2.292
67.5006 2.396
67.5309 2.240
67.5612 2.135
67.5915 2.708
67.6218 2.708
67.6520 2.865
67.6823 3.490
67.7126 3.385
67.7429 3.021
67.7731 3.698
67.8034 4.479
67.8337 3.854
67.8640 2.865
67.8943 3.698
67.9245 3.802
67.9548 2.917
67.9851 3.646
68.0154 3.542
68.0457 3.021
68.0759 2.917
68.1062 2.552
68.1365 2.448
68.1668 2.292
68.1970 2.292
68.2273 2.344
68.2576 1.667
68.2879 2.448
68.3182 1.771
68.3484 1.562
68.3787 1.927
68.4090 1.771
68.4393 2.031
68.4696 1.719
68.4998 1.250
68.5301 1.354
68.5604 1.927
68.5907 1.198
68.6209 1.562
68.6512 1.615
68.6815 1.406
68.7118 1.875
68.7421 2.240
68.7723 1.354
68.8026 1.667
68.8329 1.875
68.8632 2.344
68.8935 2.396
68.9237 1.875
68.9540 1.979
68.9843 2.448
69.0146 1.823
69.0448 1.510
69.0751 1.927
69.1054 2.292
69.1357 1.875
69.1660 2.031
69.1962 1.458
69.2265 1.875
69.2568 1.302
69.2871 1.667
69.3174 1.250
69.3476 1.771
69.3779 0.885
69.4082 1.354
69.4385 1.146
69.4687 1.198
69.4990 1.146
69.5293 0.885
69.5596 0.885
69.5899 1.042
69.6201 0.937
69.6504 0.781
69.6807 1.302
69.7110 0.833
69.7413 0.781
69.7715 0.625
69.8018 1.250
69.8321 0.781
69.8624 0.781
69.8926 0.781
69.9229 0.781
69.9532 0.885
69.9835 0.781
70.0138 0.937
70.0440 1.042
70.0743 0.990
70.1046 0.781
70.1349 0.625
70.1652 1.042
70.1954 1.302
70.2257 0.521
70.2560 0.729
70.2863 0.833
70.3166 0.781
70.3468 0.625
70.3771 0.781
70.4074 0.677
70.4377 0.729
70.4679 0.781
70.4982 0.677
70.5285 0.833
70.5588 0.521
70.5891 0.573
70.6193 0.677
70.6496 0.625
70.6799 0.677
70.7102 0.781
70.7405 0.521
70.7707 0.781
70.8010 0.677
70.8313 1.250
70.8616 0.781
70.8918 0.677
70.9221 0.521
70.9524 0.781
70.9827 0.573
71.0130 0.781
71.0432 0.573
71.0735 0.729
71.1038 0.885
71.1341 0.729
71.1644 0.729
71.1946 0.521
71.2249 0.625
71.2552 0.573
71.2855 0.573
71.3157 0.417
71.3460 0.781
71.3763 0.677
71.4066 0.365
71.4369 0.833
71.4671 0.417
71.4974 0.729
71.5277 0.729
71.5580 0.521
71.5883 0.833
71.6185 0.781
71.6488 0.677
71.6791 0.729
71.7094 0.885
71.7396 0.833
71.7699 1.198
71.8002 0.417
71.8305 1.146
71.8608 0.990
71.8910 0.885
71.9213 0.729
71.9516 0.521
71.9819 0.625
72.0122 0.781
72.0424 0.729
72.0727 0.312
72.1030 0.521
72.1333 0.625
72.1635 0.573
72.1938 0.885
72.2241 0.729
72.2544 0.885
72.2847 0.521
72.3149 0.521
72.3452 0.677
72.3755 0.677
72.4058 0.781
72.4361 0.885
72.4663 0.937
72.4966 1.094
72.5269 0.937
72.5572 0.833
72.5874 0.990
72.6177 0.573
72.6480 1.042
72.6783 0.729
72.7086 0.521
72.7388 0.417
72.7691 0.573
72.7994 0.833
72.8297 0.625
72.8600 0.729
72.8902 0.417
72.9205 0.833
72.9508 0.729
72.9811 0.260
73.0113 0.521
73.0416 0.677
73.0719 0.521
73.1022 0.573
73.1325 0.729
73.1627 0.990
73.1930 1.042
73.2233 0.677
73.2536 0.573
73.2839 0.625
73.3141 0.312
73.3444 0.417
73.3747 0.677
73.4050 0.729
73.4353 0.677
73.4655 0.365
73.4958 0.469
73.5261 0.625
73.5564 0.729
73.5866 0.833
73.6169 0.469
73.6472 0.469
73.6775 0.833
73.7078 0.521
73.7380 0.937
73.7683 0.729
73.7986 1.042
73.8289 0.573
73.8592 0.521
73.8894 0.260
73.9197 0.573
73.9500 0.365
73.9803 0.469
74.0105 0.677
74.0408 0.625
74.0711 0.677
74.1014 0.312
74.1317 0.677
74.1619 0.260
74.1922 0.625
74.2225 0.573
74.2528 0.260
74.2831 0.469
74.3133 0.417
74.3436 0.573
74.3739 0.521
74.4042 0.625
74.4344 0.677
74.4647 0.677
74.4950 0.677
74.5253 0.677
74.5556 0.729
74.5858 0.521
74.6161 0.469
74.6464 0.365
74.6767 0.573
74.7070 0.625
74.7372 0.625
74.7675 0.365
74.7978 0.729
74.8281 0.365
74.8583 0.417
74.8886 0.677
74.9189 0.469
74.9492 0.677
74.9795 0.781
75.0097 0.417
75.0400 0.573
75.0703 0.521
75.1006 0.677
75.1309 0.469
75.1611 0.625
75.1914 0.417
75.2217 0.625
75.2520 0.469
75.2822 0.990
75.3125 0.469
75.3428 0.625
75.3731 0.729
75.4034 0.469
75.4336 0.260
75.4639 0.833
75.4942 0.573
75.5245 0.729
75.5548 0.729
75.5850 0.833
75.6153 0.417
75.6456 1.198
75.6759 0.521
75.7061 0.677
75.7364 0.417
75.7667 0.729
75.7970 0.885
75.8273 0.417
75.8575 0.833
75.8878 0.677
75.9181 0.729
75.9484 0.573
75.9787 0.312
76.0089 0.781
76.0392 0.521
76.0695 0.729
76.0998 0.521
76.1301 0.781
76.1603 0.729
76.1906 0.521
76.2209 0.729
76.2512 0.677
76.2814 0.833
76.3117 0.729
76.3420 0.781
76.3723 0.833
76.4026 1.302
76.4328 0.781
76.4631 0.729
76.4934 0.781
76.5237 1.042
76.5540 0.729
76.5842 0.990
76.6145 0.833
76.6448 0.833
76.6751 0.729
76.7053 1.042
76.7356 1.250
76.7659 0.833
76.7962 1.094
76.8265 0.521
76.8567 0.677
76.8870 1.198
76.9173 0.990
76.9476 1.406
76.9779 0.729
77.0081 0.833
77.0384 0.625
77.0687 0.729
77.0990 0.885
77.1292 0.833
77.1595 1.094
77.1898 0.781
77.2201 0.937
77.2504 0.885
77.2806 0.417
77.3109 0.573
77.3412 0.937
77.3715 1.094
77.4018 0.312
77.4320 0.625
77.4623 0.625
77.4926 0.677
77.5229 0.573
77.5531 0.625
77.5834 0.365
77.6137 0.469
77.6440 0.729
77.6743 0.729
77.7045 0.417
77.7348 0.677
77.7651 0.260
77.7954 0.625
77.8257 0.365
77.8559 0.781
77.8862 0.729
77.9165 0.781
77.9468 0.469
77.9770 0.729
78.0073 0.417
78.0376 0.469
78.0679 0.677
78.0982 0.729
78.1284 0.677
78.1587 0.260
78.1890 0.729
78.2193 0.573
78.2496 0.573
78.2798 0.781
78.3101 0.469
78.3404 0.677
78.3707 0.573
78.4009 0.469
78.4312 0.573
78.4615 0.469
78.4918 0.573
78.5221 0.417
78.5523 0.417
78.5826 0.573
78.6129 0.260
78.6432 0.260
78.6735 0.677
78.7037 0.625
78.7340 0.729
78.7643 0.521
78.7946 0.885
78.8248 0.729
78.8551 0.260
78.8854 0.833
78.9157 0.417
78.9460 0.417
78.9762 0.573
79.0065 0.729
79.0368 0.469
79.0671 0.573
79.0974 0.521
79.1276 0.417
79.1579 0.573
79.1882 0.573
79.2185 0.469
79.2488 0.990
79.2790 0.417
79.3093 0.417
79.3396 0.312
79.3699 0.521
79.4001 0.260
79.4304 0.208
79.4607 0.625
79.4910 0.469
79.5213 0.677
79.5515 0.417
79.5818 0.469
79.6121 0.729
79.6424 0.365
79.6727 0.573
79.7029 0.677
79.7332 0.521
79.7635 0.625
79.7938 0.312
79.8240 0.729
79.8543 0.417
79.8846 0.417
79.9149 0.781
79.9452 0.937
79.9754 0.521
80.0057 0.625
80.0360 0.573
80.0663 0.729
80.0966 0.417
80.1268 0.417
80.1571 0.521
80.1874 0.521
80.2177 0.417
80.2479 0.521
80.2782 0.573
80.3085 0.312
80.3388 0.573
80.3691 0.469
80.3993 0.260
80.4296 0.625
80.4599 0.312
80.4902 0.677
80.5205 0.417
80.5507 0.729
80.5810 0.625
80.6113 0.521
80.6416 0.469
80.6718 0.365
80.7021 0.677
80.7324 0.365
80.7627 0.417
80.7930 0.625
80.8232 0.833
80.8535 0.625
80.8838 0.729
80.9141 0.312
80.9444 0.677
80.9746 0.677
81.0049 0.521
81.0352 0.417
81.0655 0.625
81.0957 0.469
81.1260 0.521
81.1563 1.198
81.1866 0.990
81.2169 0.729
81.2471 0.885
81.2774 0.625
81.3077 0.573
81.3380 0.833
81.3683 0.729
81.3985 0.573
81.4288 0.677
81.4591 0.521
81.4894 0.677
81.5196 0.625
81.5499 0.417
81.5802 0.521
81.6105 0.312
81.6408 0.312
81.6710 0.677
81.7013 0.365
81.7316 0.625
81.7619 0.625
81.7922 0.729
81.8224 0.625
81.8527 0.260
81.8830 0.677
81.9133 0.521
81.9436 0.521
81.9738 0.260
82.0041 0.625
82.0344 0.417
82.0647 0.885
82.0949 0.312
82.1252 0.521
82.1555 0.469
82.1858 0.469
82.2161 0.469
82.2463 0.729
82.2766 0.573
82.3069 0.469
82.3372 0.417
82.3675 0.469
82.3977 0.469
82.4280 0.729
82.4583 0.625
82.4886 0.781
82.5188 0.469
82.5491 0.573
82.5794 0.417
82.6097 0.781
82.6400 0.677
82.6702 0.417
82.7005 0.260
82.7308 0.625
82.7611 0.365
82.7914 0.469
82.8216 0.521
82.8519 0.833
82.8822 0.625
82.9125 0.469
82.9427 0.677
82.9730 0.573
83.0033 0.312
83.0336 0.521
83.0639 0.625
83.0941 0.260
83.1244 0.521
83.1547 0.417
83.1850 0.625
83.2153 0.417
83.2455 0.260
83.2758 0.469
83.3061 0.625
83.3364 0.365
83.3666 0.625
83.3969 0.625
83.4272 0.781
83.4575 0.729
83.4878 0.625
83.5180 0.729
83.5483 0.677
83.5786 0.469
83.6089 0.677
83.6392 0.469
83.6694 0.365
83.6997 0.729
83.7300 0.573
83.7603 0.573
83.7905 0.469
83.8208 0.417
83.8511 0.260
83.8814 0.469
83.9117 0.417
83.9419 0.469
83.9722 0.573
84.0025 0.833
84.0328 0.365
84.0631 0.260
84.0933 0.729
84.1236 0.469
84.1539 0.677
84.1842 0.677
84.2144 0.521
84.2447 0.625
84.2750 0.417
84.3053 0.469
84.3356 0.781
84.3658 0.625
84.3961 0.625
84.4264 0.469
84.4567 0.208
84.4870 0.365
84.5172 0.312
84.5475 0.625
84.5778 0.417
84.6081 0.417
84.6383 0.365
84.6686 0.521
84.6989 0.469
84.7292 0.469
84.7595 0.625
84.7897 0.417
84.8200 0.469
84.8503 0.729
84.8806 0.521
84.9109 0.677
84.9411 0.573
84.9714 0.625
85.0017 0.312
85.0320 0.469
85.0623 0.365
85.0925 0.312
85.1228 0.729
85.1531 0.312
85.1834 0.417
85.2136 0.625
85.2439 0.312
85.2742 0.208
85.3045 0.729
85.3348 0.729
85.3650 0.729
85.3953 0.677
85.4256 0.573
85.4559 0.729
85.4862 0.729
85.5164 0.365
85.5467 0.417
85.5770 0.365
85.6073 0.729
85.6375 0.365
85.6678 0.573
85.6981 0.469
85.7284 0.573
85.7587 0.625
85.7889 0.729
85.8192 0.365
85.8495 0.625
85.8798 0.365
85.9101 0.260
85.9403 0.521
85.9706 0.729
86.0009 0.729
86.0312 0.729
86.0614 0.417
86.0917 0.521
86.1220 0.469
86.1523 0.625
86.1826 0.312
86.2128 0.521
86.2431 0.312
86.2734 0.625
86.3037 0.573
86.3340 0.365
86.3642 0.260
86.3945 0.573
86.4248 0.312
86.4551 0.469
86.4853 0.260
86.5156 0.521
86.5459 0.625
86.5762 0.469
86.6065 0.729
86.6367 0.521
86.6670 0.573
86.6973 0.573
86.7276 0.729
86.7579 0.365
86.7881 0.417
86.8184 0.312
86.8487 0.573
86.8790 0.677
86.9092 0.729
86.9395 0.729
86.9698 0.521
87.0001 0.417
87.0304 0.521
87.0606 0.469
87.0909 0.312
87.1212 0.521
87.1515 0.365
87.1818 0.365
87.2120 0.365
87.2423 0.365
87.2726 0.469
87.3029 0.625
87.3331 0.833
87.3634 0.417
87.3937 0.469
87.4240 0.573
87.4543 0.365
87.4845 0.573
87.5148 0.312
87.5451 0.469
87.5754 0.521
87.6057 0.417
87.6359 0.365
87.6662 0.729
87.6965 0.729
87.7268 0.573
87.7571 0.417
87.7873 0.885
87.8176 0.781
87.8479 0.365
87.8782 1.250
87.9084 0.781
87.9387 0.260
87.9690 0.729
87.9993 0.365
88.0296 0.573
88.0598 0.677
88.0901 0.573
88.1204 0.312
88.1507 0.729
88.1810 0.625
88.2112 0.573
88.2415 0.677
88.2718 0.469
88.3021 0.573
88.3323 0.937
88.3626 0.729
88.3929 0.625
88.4232 0.260
88.4535 0.781
88.4837 0.833
88.5140 0.365
88.5443 0.625
88.5746 0.573
88.6049 0.312
88.6351 0.729
88.6654 0.625
88.6957 0.781
88.7260 0.573
88.7562 0.521
88.7865 0.625
88.8168 0.729
88.8471 0.729
88.8774 0.677
88.9076 0.885
88.9379 0.781
88.9682 0.937
88.9985 0.990
89.0288 0.729
89.0590 0.885
89.0893 0.990
89.1196 0.990
89.1499 0.990
89.1801 0.625
89.2104 1.302
89.2407 0.990
89.2710 0.677
89.3013 1.042
89.3315 1.615
89.3618 0.990
89.3921 1.042
89.4224 1.146
89.4527 1.250
89.4829 1.302
89.5132 1.198
89.5435 0.885
89.5738 0.937
89.6040 1.198
89.6343 1.458
89.6646 0.937
89.6949 0.990
89.7252 0.833
89.7554 1.094
89.7857 0.937
89.8160 0.729
89.8463 0.937
89.8766 1.302
89.9068 0.833
89.9371 0.729
89.9674 0.677
89.9977 0.990
90.0279 0.937
90.0582 0.781
90.0885 0.937
90.1188 0.521
90.1491 0.885
90.1793 0.573
90.2096 0.729
90.2399 0.937
90.2702 0.521
90.3005 0.937
90.3307 0.677
90.3610 1.042
90.3913 0.729
90.4216 0.625
90.4518 0.521
90.4821 0.729
90.5124 0.625
90.5427 0.260
90.5730 0.677
90.6032 0.625
90.6335 0.729
90.6638 0.521
90.6941 0.573
90.7244 0.729
90.7546 0.625
90.7849 0.365
90.8152 0.625
90.8455 0.573
90.8758 0.781
90.9060 0.521
90.9363 0.573
90.9666 0.937
90.9969 0.677
91.0271 0.833
91.0574 0.365
91.0877 0.417
91.1180 0.573
91.1483 0.729
91.1785 0.729
91.2088 0.833
91.2391 0.729
91.2694 0.729
91.2997 0.365
91.3299 0.469
91.3602 0.729
91.3905 0.625
91.4208 0.521
91.4510 1.146
91.4813 0.677
91.5116 0.625
91.5419 0.729
91.5722 0.677
91.6024 0.625
91.6327 0.677
91.6630 0.260
91.6933 0.573
91.7236 0.729
91.7538 0.573
91.7841 0.625
91.8144 0.469
91.8447 0.573
91.8749 0.885
91.9052 0.521
91.9355 0.625
91.9658 0.469
91.9961 0.521
92.0263 0.521
92.0566 0.521
92.0869 0.781
92.1172 0.521
92.1475 0.833
92.1777 0.521
92.2080 0.573
92.2383 0.365
92.2686 0.521
92.2988 0.781
92.3291 0.677
92.3594 0.781
92.3897 0.573
92.4200 0.729
92.4502 0.625
92.4805 0.677
92.5108 0.573
92.5411 0.521
92.5714 0.729
92.6016 0.729
92.6319 0.729
92.6622 0.729
92.6925 0.521
92.7227 0.937
92.7530 0.781
92.7833 0.573
92.8136 0.573
92.8439 0.990
92.8741 0.729
92.9044 0.729
92.9347 0.781
92.9650 0.729
92.9953 0.469
93.0255 0.833
93.0558 0.573
93.0861 0.625
93.1164 0.677
93.1466 0.781
93.1769 0.625
93.2072 0.729
93.2375 0.469
93.2678 0.729
93.2980 0.625
93.3283 0.521
93.3586 0.521
93.3889 0.729
93.4192 0.573
93.4494 0.677
93.4797 0.417
93.5100 0.729
93.5403 0.469
93.5706 0.521
93.6008 0.365
93.6311 0.885
93.6614 0.365
93.6917 0.365
93.7219 0.521
93.7522 0.573
93.7825 0.677
93.8128 0.469
93.8431 0.521
93.8733 0.521
93.9036 0.312
93.9339 0.312
93.9642 0.312
93.9945 0.729
94.0247 0.573
94.0550 0.573
94.0853 0.573
94.1156 0.677
94.1458 0.521
94.1761 0.781
94.2064 0.677
94.2367 0.521
94.2670 0.625
94.2972 0.781
94.3275 0.937
94.3578 0.677
94.3881 0.677
94.4184 0.573
94.4486 0.417
94.4789 0.677
94.5092 0.781
94.5395 0.625
94.5697 0.990
94.6000 0.417
94.6303 0.521
94.6606 0.833
94.6909 0.781
94.7211 1.250
94.7514 0.937
94.7817 0.729
94.8120 0.729
94.8423 0.885
94.8725 1.250
94.9028 1.510
94.9331 0.833
94.9634 1.250
94.9936 1.250
95.0239 1.250
95.0542 1.094
95.0845 1.042
95.1148 1.302
95.1450 1.354
95.1753 1.354
95.2056 1.094
95.2359 1.458
95.2662 1.510
95.2964 1.667
95.3267 1.250
95.3570 1.042
95.3873 0.833
95.4175 0.417
95.4478 0.885
95.4781 1.562
95.5084 1.198
95.5387 0.937
95.5689 0.990
95.5992 0.729
95.6295 0.990
95.6598 0.521
95.6901 0.781
95.7203 1.146
95.7506 0.729
95.7809 0.833
95.8112 0.937
95.8414 0.677
95.8717 0.625
95.9020 0.729
95.9323 0.885
95.9626 0.573
95.9928 0.781
96.0231 0.677
96.0534 1.042
96.0837 0.573
96.1140 0.677
96.1442 0.573
96.1745 0.625
96.2048 0.833
96.2351 0.625
96.2653 0.729
96.2956 0.312
96.3259 0.729
96.3562 0.729
96.3865 0.990
96.4167 0.729
96.4470 0.573
96.4773 0.625
96.5076 0.729
96.5379 0.573
96.5681 0.469
96.5984 0.729
96.6287 0.625
96.6590 0.937
96.6893 0.990
96.7195 0.885
96.7498 0.573
96.7801 0.833
96.8104 0.625
96.8406 0.573
96.8709 0.990
96.9012 0.573
96.9315 0.729
96.9618 0.625
96.9920 0.729
97.0223 0.677
97.0526 0.260
97.0829 0.625
97.1132 1.094
97.1434 0.625
97.1737 0.781
97.2040 0.781
97.2343 0.781
97.2645 0.625
97.2948 0.885
97.3251 0.365
97.3554 0.625
97.3857 0.521
97.4159 0.729
97.4462 0.885
97.4765 0.521
97.5068 0.729
97.5371 0.573
97.5673 0.417
97.5976 0.729
97.6279 0.469
97.6582 0.677
97.6884 0.677
97.7187 0.729
97.7490 0.417
97.7793 0.521
97.8096 0.365
97.8398 0.677
97.8701 0.573
97.9004 0.990
97.9307 0.625
97.9610 0.625
97.9912 0.781
98.0215 0.781
98.0518 0.729
98.0821 0.573
98.1123 0.729
98.1426 0.677
98.1729 0.990
98.2032 1.250
98.2335 0.990
98.2637 0.833
98.2940 0.833
98.3243 0.781
98.3546 0.833
98.3849 0.625
98.4151 0.990
98.4454 1.250
98.4757 0.990
98.5060 0.833
98.5362 0.885
98.5665 1.250
98.5968 1.250
98.6271 0.729
98.6574 0.885
98.6876 0.729
98.7179 0.781
98.7482 0.781
98.7785 0.417
98.8088 1.042
98.8390 0.781
98.8693 0.417
98.8996 0.521
98.9299 0.625
98.9601 0.573
98.9904 0.365
99.0207 0.677
99.0510 0.729
99.0813 0.990
99.1115 0.365
99.1418 0.625
99.1721 0.625
99.2024 0.365
99.2327 0.781
99.2629 0.781
99.2932 0.677
99.3235 0.781
99.3538 0.625
99.3841 0.521
99.4143 0.729
99.4446 0.729
99.4749 0.677
99.5052 0.625
99.5354 0.833
99.5657 0.365
99.5960 0.677
99.6263 0.781
99.6566 0.208
99.6868 0.573
99.7171 0.521
99.7474 0.625
99.7777 0.781
99.8080 0.573
99.8382 0.625
99.8685 0.573
99.8988 0.729
99.9291 0.521
99.9593 0.885
99.9896 0.521
100.0199 0.781
100.0502 0.781
100.0805 0.677
100.1107 0.469
100.1410 0.573
100.1713 0.365
100.2016 0.521
100.2319 0.781
100.2621 0.677
100.2924 0.729
100.3227 0.833
100.3530 0.729
100.3832 0.573
100.4135 0.521
100.4438 0.469
100.4741 0.625
100.5044 0.521
100.5346 0.729
100.5649 0.625
100.5952 0.625
100.6255 0.625
100.6558 0.625
100.6860 0.417
100.7163 0.781
100.7466 0.365
100.7769 0.781
100.8071 0.781
100.8374 0.312
100.8677 0.677
100.8980 0.417
100.9283 0.573
100.9585 0.521
100.9888 0.573
101.0191 0.677
101.0494 0.729
101.0797 0.781
101.1099 0.521
101.1402 0.417
101.1705 0.573
101.2008 0.521
101.2310 0.729
101.2613 0.833
101.2916 0.833
101.3219 0.365
101.3522 0.625
101.3824 0.469
101.4127 0.990
101.4430 0.521
101.4733 0.573
101.5036 0.469
101.5338 0.469
101.5641 0.729
101.5944 0.521
101.6247 0.729
101.6549 0.573
101.6852 0.573
101.7155 0.417
101.7458 0.625
101.7761 0.677
101.8063 0.729
101.8366 0.573
101.8669 0.677
101.8972 0.521
101.9275 0.729
101.9577 0.677
101.9880 0.781
102.0183 0.781
102.0486 0.937
102.0788 0.833
102.1091 0.833
102.1394 0.677
102.1697 1.094
102.2000 0.417
102.2302 0.521
102.2605 0.677
102.2908 0.260
102.3211 0.365
102.3514 1.094
102.3816 0.781
102.4119 0.781
102.4422 0.625
102.4725 0.573
102.5028 0.781
102.5330 0.729
102.5633 0.729
102.5936 0.729
102.6239 0.573
102.6541 0.937
102.6844 0.625
102.7147 1.354
102.7450 0.781
102.7753 0.729
102.8055 0.885
102.8358 0.937
102.8661 0.417
102.8964 1.198
102.9267 0.677
102.9569 1.094
102.9872 0.729
103.0175 1.094
103.0478 1.302
103.0780 0.677
103.1083 1.198
103.1386 0.729
103.1689 0.781
103.1992 0.469
103.2294 0.781
103.2597 0.729
103.2900 0.833
103.3203 0.781
103.3506 0.677
103.3808 0.625
103.4111 0.833
103.4414 0.625
103.4717 0.417
103.5019 0.833
103.5322 0.833
103.5625 0.729
103.5928 0.833
103.6231 0.833
103.6533 0.990
103.6836 1.042
103.7139 1.146
103.7442 0.937
103.7745 1.094
103.8047 0.833
103.8350 0.781
103.8653 1.615
103.8956 0.573
103.9258 1.146
103.9561 0.729
103.9864 1.406
104.0167 1.146
104.0470 1.510
104.0772 0.781
104.1075 1.094
104.1378 0.937
104.1681 0.885
104.1984 1.302
104.2286 0.990
104.2589 0.833
104.2892 1.406
104.3195 0.833
104.3497 0.833
104.3800 0.990
104.4103 1.094
104.4406 1.042
104.4709 0.833
104.5011 0.729
104.5314 0.937
104.5617 1.042
104.5920 0.937
104.6223 0.677
104.6525 0.625
104.6828 0.625
104.7131 0.781
104.7434 0.625
104.7736 0.573
104.8039 0.521
104.8342 0.729
104.8645 0.677
104.8948 0.521
104.9250 0.833
104.9553 0.729
104.9856 0.833
105.0159 0.521
105.0462 0.885
105.0764 0.833
105.1067 0.833
105.1370 0.781
105.1673 0.937
105.1975 0.833
105.2278 0.885
105.2581 0.781
105.2884 0.677
105.3187 0.312
105.3489 0.417
105.3792 0.156
105.4095 0.677
105.4398 0.729
105.4701 0.521
105.5003 1.302
105.5306 0.677
105.5609 0.729
105.5912 0.573
105.6215 0.833
105.6517 0.781
105.6820 0.365
105.7123 1.042
105.7426 0.573
105.7728 0.625
105.8031 1.042
105.8334 0.781
105.8637 0.885
105.8940 0.417
105.9242 0.469
105.9545 0.885
105.9848 0.781
106.0151 0.729
106.0454 0.990
106.0756 0.573
106.1059 0.625
106.1362 0.833
106.1665 0.469
106.1967 0.625
106.2270 0.729
106.2573 0.885
106.2876 0.781
106.3179 0.573
106.3481 0.625
106.3784 0.833
106.4087 0.885
106.4390 0.469
106.4693 0.573
106.4995 0.729
106.5298 0.885
106.5601 0.781
106.5904 0.573
106.6206 0.781
106.6509 0.781
106.6812 0.937
106.7115 0.937
106.7418 1.146
106.7720 0.833
106.8023 0.729
106.8326 0.937
106.8629 0.521
106.8932 0.573
106.9234 0.833
106.9537 0.729
106.9840 0.521
107.0143 0.573
107.0445 0.833
107.0748 0.885
107.1051 0.677
107.1354 0.781
107.1657 0.885
107.1959 0.677
107.2262 0.677
107.2565 0.677
107.2868 0.469
107.3171 0.729
107.3473 0.729
107.3776 0.625
107.4079 0.833
107.4382 0.729
107.4684 0.729
107.4987 0.573
107.5290 0.885
107.5593 0.833
107.5896 0.833
107.6198 0.729
107.6501 0.469
107.6804 1.042
107.7107 0.677
107.7410 0.469
107.7712 0.885
107.8015 0.833
107.8318 0.729
107.8621 0.625
107.8923 0.729
107.9226 0.885
107.9529 0.990
107.9832 0.990
108.0135 0.521
108.0437 0.573
108.0740 0.885
108.1043 0.885
108.1346 0.833
108.1649 0.573
108.1951 0.833
108.2254 0.885
108.2557 0.677
108.2860 0.625
108.3163 0.885
108.3465 0.521
108.3768 0.521
108.4071 0.990
108.4374 1.042
108.4676 0.885
108.4979 0.990
108.5282 0.312
108.5585 0.573
108.5888 1.042
108.6190 1.094
108.6493 0.781
108.6796 0.885
108.7099 0.937
108.7402 0.573
108.7704 0.729
108.8007 0.781
108.8310 0.937
108.8613 0.937
108.8915 0.833
108.9218 0.521
108.9521 0.573
108.9824 0.469
109.0127 0.677
109.0429 1.094
109.0732 0.677
109.1035 0.937
109.1338 0.677
109.1641 0.781
109.1943 0.625
109.2246 0.990
109.2549 0.885
109.2852 0.937
109.3154 0.937
109.3457 0.781
109.3760 0.677
109.4063 1.094
109.4366 0.625
109.4668 1.042
109.4971 0.521
109.5274 0.677
109.5577 0.573
109.5880 0.781
109.6182 0.573
109.6485 0.937
109.6788 0.937
109.7091 0.885
109.7393 1.042
109.7696 1.250
109.7999 0.729
109.8302 0.937
109.8605 0.833
109.8907 1.198
109.9210 0.990
109.9513 0.833
109.9816 1.094
110.0119 1.510
110.0421 0.885
110.0724 0.573
110.1027 1.042
110.1330 0.521
110.1632 1.615
110.1935 1.198
110.2238 1.042
110.2541 0.937
110.2844 1.094
110.3146 0.990
110.3449 0.677
110.3752 0.677
110.4055 0.885
110.4358 1.198
110.4660 1.302
110.4963 0.937
110.5266 0.937
110.5569 1.250
110.5871 0.937
110.6174 0.885
110.6477 0.781
110.6780 0.833
110.7083 1.042
110.7385 0.990
110.7688 1.198
110.7991 0.573
110.8294 1.094
110.8597 0.990
110.8899 1.198
110.9202 0.990
110.9505 0.781
110.9808 0.990
111.0110 1.250
111.0413 0.573
111.0716 1.146
111.1019 0.833
111.1322 0.885
111.1624 1.042
111.1927 0.990
111.2230 0.885
111.2533 0.833
111.2836 0.833
111.3138 1.250
111.3441 0.833
111.3744 0.937
111.4047 1.094
111.4350 0.781
111.4652 0.833
111.4955 1.198
111.5258 1.198
111.5561 0.833
111.5863 0.469
111.6166 0.781
111.6469 1.042
111.6772 0.885
111.7075 0.990
111.7377 0.729
111.7680 0.833
111.7983 0.833
111.8286 0.833
111.8589 0.937
111.8891 0.937
111.9194 0.625
111.9497 0.677
111.9800 0.937
112.0102 1.094
112.0405 0.937
112.0708 0.937
112.1011 0.677
112.1314 1.146
112.1616 0.781
112.1919 0.990
112.2222 0.469
112.2525 0.885
112.2828 1.042
112.3130 0.937
112.3433 0.729
112.3736 0.781
112.4039 0.833
112.4341 0.833
112.4644 0.833
112.4947 0.885
112.5250 1.094
112.5553 0.990
112.5855 1.042
112.6158 0.937
112.6461 1.302
112.6764 1.198
112.7067 1.042
112.7369 1.042
112.7672 0.990
112.7975 0.729
112.8278 1.302
112.8580 0.781
112.8883 1.146
112.9186 1.250
112.9489 0.885
112.9792 0.521
113.0094 0.625
113.0397 0.729
113.0700 0.677
113.1003 1.198
113.1306 0.677
113.1608 0.833
113.1911 0.833
113.2214 0.990
113.2517 1.094
113.2819 1.146
113.3122 0.885
113.3425 1.146
113.3728 0.937
113.4031 1.094
113.4333 0.990
113.4636 0.833
113.4939 1.042
113.5242 1.354
113.5545 0.781
113.5847 0.625
113.6150 0.729
113.6453 0.677
113.6756 0.729
113.7058 0.625
113.7361 0.990
113.7664 1.562
113.7967 0.937
113.8270 0.990
113.8572 1.042
113.8875 1.042
113.9178 0.990
113.9481 1.302
113.9784 1.458
114.0086 1.094
114.0389 1.406
114.0692 0.937
114.0995 0.729
114.1298 0.729
114.1600 0.990
114.1903 0.677
114.2206 0.990
114.2509 1.094
114.2811 0.990
114.3114 1.094
114.3417 1.719
114.3720 1.094
114.4023 0.937
114.4325 0.781
114.4628 1.198
114.4931 0.833
114.5234 0.833
114.5537 0.469
114.5839 0.625
114.6142 1.042
114.6445 1.146
114.6748 0.729
114.7050 0.781
114.7353 1.354
114.7656 0.885
114.7959 0.937
114.8262 1.406
114.8564 0.833
114.8867 0.937
114.9170 1.354
114.9473 1.250
114.9776 0.937
115.0078 0.937
115.0381 1.302
115.0684 1.458
115.0987 1.094
115.1289 0.990
115.1592 1.042
115.1895 0.885
115.2198 1.458
115.2501 0.990
115.2803 1.458
115.3106 0.469
115.3409 1.094
115.3712 1.094
115.4015 1.042
115.4317 1.302
115.4620 0.781
115.4923 1.458
115.5226 0.990
115.5528 1.198
115.5831 1.094
115.6134 0.677
115.6437 1.094
115.6740 0.833
115.7042 0.833
115.7345 0.990
115.7648 1.094
115.7951 0.990
115.8254 1.667
115.8556 0.990
115.8859 0.990
115.9162 1.562
115.9465 1.562
115.9767 1.510
116.0070 1.198
116.0373 1.667
116.0676 1.406
116.0979 1.250
116.1281 1.406
116.1584 1.406
116.1887 1.302
116.2190 1.406
116.2493 1.406
116.2795 1.146
116.3098 1.458
116.3401 1.146
116.3704 1.510
116.4006 1.510
116.4309 1.510
116.4612 1.458
116.4915 1.094
116.5218 1.510
116.5520 1.719
116.5823 1.302
116.6126 1.146
116.6429 1.354
116.6732 1.146
116.7034 1.354
116.7337 1.458
116.7640 1.510
116.7943 0.990
116.8245 1.198
116.8548 1.094
116.8851 1.406
116.9154 0.885
116.9457 0.729
116.9759 1.042
117.0062 0.781
117.0365 1.250
117.0668 1.562
117.0971 0.781
117.1273 0.729
117.1576 0.937
117.1879 1.406
117.2182 0.937
117.2485 0.990
117.2787 1.198
117.3090 1.354
117.3393 1.094
117.3696 0.885
117.3998 0.885
117.4301 0.677
117.4604 1.094
117.4907 0.573
117.5210 0.573
117.5512 1.146
117.5815 0.937
117.6118 0.937
117.6421 0.781
117.6724 0.781
117.7026 0.573
117.7329 1.250
117.7632 1.146
117.7935 1.302
117.8237 1.094
117.8540 0.677
117.8843 0.990
117.9146 0.469
117.9449 1.146
117.9751 0.937
118.0054 0.625
118.0357 0.937
118.0660 1.042
118.0963 0.990
118.1265 0.677
118.1568 0.885
118.1871 0.937
118.2174 1.094
118.2476 0.677
118.2779 1.198
118.3082 1.198
118.3385 0.417
118.3688 0.573
118.3990 0.885
118.4293 0.729
118.4596 0.833
118.4899 0.937
118.5202 0.937
118.5504 0.833
118.5807 0.781
118.6110 0.521
118.6413 0.937
118.6715 0.417
118.7018 0.833
118.7321 0.677
118.7624 1.146
118.7927 0.833
118.8229 0.573
118.8532 1.198
118.8835 0.677
118.9138 0.781
118.9441 0.885
118.9743 0.937
119.0046 1.250
119.0349 0.885
119.0652 0.677
119.0954 0.833
119.1257 0.833
119.1560 0.781
119.1863 0.937
119.2166 0.625
119.2468 0.833
119.2771 1.042
119.3074 0.937
119.3377 0.833
119.3680 1.250
119.3982 0.677
119.4285 0.521
119.4588 0.885
119.4891 0.573
119.5193 0.729
119.5496 0.885
119.5799 0.937
119.6102 0.885
119.6405 1.094
119.6707 0.833
119.7010 0.937
119.7313 0.469
119.7616 1.146
119.7919 0.937
119.8221 0.625
119.8524 0.990
119.8827 1.146
119.9130 0.677
119.9433 1.042
119.9735 0.990
120.0038 0.833
