'Id: "" Comment: "" Operator: "Lab Manager" Anode: "Cu" Scantype: "Locked Coupled" TimePerStep: "19.2" X: "9999" Y: "9999" Z: "9999" 
10.0015 3.073
10.0318 5.052
10.0620 2.917
10.0923 3.021
10.1226 3.698
10.1529 4.792
10.1832 3.073
10.2134 4.167
10.2437 4.167
10.2740 3.594
10.3043 2.969
10.3346 3.646
10.3648 4.323
10.3951 2.865
10.4254 4.062
10.4557 3.177
10.4859 3.281
10.5162 4.167
10.5465 3.177
10.5768 3.177
10.6071 4.167
10.6373 3.490
10.6676 2.812
10.6979 3.646
10.7282 2.812
10.7585 2.865
10.7887 2.708
10.8190 4.010
10.8493 3.854
10.8796 3.958
10.9098 3.854
10.9401 4.010
10.9704 2.865
11.0007 2.760
11.0310 3.854
11.0612 4.427
11.0915 3.750
11.1218 4.271
11.1521 2.760
11.1824 3.490
11.2126 3.021
11.2429 3.594
11.2732 4.062
11.3035 4.271
11.3337 3.906
11.3640 3.281
11.3943 3.594
11.4246 3.542
11.4549 3.021
11.4851 3.906
11.5154 3.802
11.5457 3.958
11.5760 4.062
11.6063 3.333
11.6365 2.812
11.6668 3.021
11.6971 3.125
11.7274 3.906
11.7577 2.292
11.7879 2.865
11.8182 3.437
11.8485 3.385
11.8788 3.385
11.9090 3.385
11.9393 3.542
11.9696 3.750
11.9999 3.333
12.0302 3.385
12.0604 3.021
12.0907 3.437
12.1210 3.073
12.1513 3.281
12.1816 3.750
12.2118 2.917
12.2421 3.490
12.2724 3.542
12.3027 3.021
12.3329 3.437
12.3632 3.177
12.3935 3.333
12.4238 3.958
12.4541 3.594
12.4843 3.594
12.5146 4.271
12.5449 2.500
12.5752 2.708
12.6055 2.135
12.6357 4.115
12.6660 4.375
12.6963 3.021
12.7266 3.229
12.7568 3.802
12.7871 3.021
12.8174 2.760
12.8477 3.125
12.8780 4.167
12.9082 3.177
12.9385 3.750
12.9688 2.448
12.9991 3.333
13.0294 2.656
13.0596 3.229
13.0899 3.281
13.1202 2.865
13.1505 3.281
13.1807 2.760
13.2110 3.698
13.2413 2.760
13.2716 2.187
13.3019 2.604
13.3321 3.333
13.3624 2.917
13.3927 3.177
13.4230 2.552
13.4533 3.437
13.4835 3.125
13.5138 3.906
13.5441 3.229
13.5744 3.021
13.6046 3.437
13.6349 3.802
13.6652 3.021
13.6955 3.906
13.7258 2.812
13.7560 2.708
13.7863 2.917
13.8166 3.437
13.8469 3.021
13.8772 2.448
13.9074 3.385
13.9377 3.542
13.9680 2.917
13.9983 3.021
14.0285 4.010
14.0588 2.031
14.0891 3.021
14.1194 2.656
14.1497 2.396
14.1799 2.292
14.2102 3.542
14.2405 3.281
14.2708 3.073
14.3011 3.854
14.3313 3.229
14.3616 2.969
14.3919 2.865
14.4222 2.812
14.4524 2.187
14.4827 2.708
14.5130 3.542
14.5433 2.812
14.5736 3.594
14.6038 3.333
14.6341 2.917
14.6644 3.333
14.6947 3.073
14.7250 2.760
14.7552 2.187
14.7855 3.594
14.8158 3.073
14.8461 2.917
14.8764 3.021
14.9066 3.594
14.9369 2.760
14.9672 3.385
14.9975 2.500
15.0277 2.917
15.0580 2.344
15.0883 2.656
15.1186 2.604
15.1489 3.177
15.1791 2.656
15.2094 4.427
15.2397 2.448
15.2700 2.969
15.3003 2.865
15.3305 2.865
15.3608 3.750
15.3911 2.708
15.4214 2.865
15.4516 2.448
15.4819 3.385
15.5122 3.646
15.5425 3.073
15.5728 3.229
15.6030 3.281
15.6333 2.448
15.6636 2.708
15.6939 3.125
15.7242 3.073
15.7544 3.646
15.7847 2.812
15.8150 3.490
15.8453 2.135
15.8755 2.344
15.9058 3.073
15.9361 3.073
15.9664 3.385
15.9967 2.708
16.0269 2.969
16.0572 2.656
16.0875 2.552
16.1178 2.656
16.1481 3.698
16.1783 2.917
16.2086 1.927
16.2389 2.917
16.2692 2.708
16.2994 2.552
16.3297 3.021
16.3600 2.812
16.3903 2.500
16.4206 2.552
16.4508 2.917
16.4811 2.708
16.5114 2.917
16.5417 2.292
16.5720 2.760
16.6022 2.969
16.6325 2.969
16.6628 2.917
16.6931 3.437
16.7233 2.865
16.7536 3.021
16.7839 4.010
16.8142 2.969
16.8445 3.333
16.8747 3.073
16.9050 2.917
16.9353 3.385
16.9656 3.073
16.9959 3.073
17.0261 2.083
17.0564 3.333
17.0867 2.292
17.1170 3.490
17.1472 3.594
17.1775 3.281
17.2078 2.656
17.2381 2.969
17.2684 3.385
17.2986 4.010
17.3289 3.281
17.3592 2.760
17.3895 3.021
17.4198 3.281
17.4500 2.917
17.4803 3.021
17.5106 2.760
17.5409 3.073
17.5712 2.969
17.6014 3.125
17.6317 2.604
17.6620 2.708
17.6923 3.594
17.7225 2.708
17.7528 3.073
17.7831 2.917
17.8134 3.177
17.8437 2.135
17.8739 2.552
17.9042 2.969
17.9345 2.969
17.9648 2.760
17.9951 3.437
18.0253 3.490
18.0556 3.281
18.0859 2.917
18.1162 2.396
18.1464 2.812
18.1767 2.917
18.2070 2.969
18.2373 3.073
18.2676 3.125
18.2978 2.187
18.3281 3.021
18.3584 2.969
18.3887 3.125
18.4190 2.917
18.4492 3.073
18.4795 3.073
18.5098 2.917
18.5401 2.865
18.5703 1.719
18.6006 2.500
18.6309 2.552
18.6612 3.021
18.6915 2.396
18.7217 2.656
18.7520 3.021
18.7823 2.187
18.8126 2.760
18.8429 3.125
18.8731 2.500
18.9034 2.604
18.9337 1.979
18.9640 2.396
18.9942 2.396
19.0245 2.240
19.0548 1.771
19.0851 3.177
19.1154 2.604
19.1456 2.083
19.1759 3.021
19.2062 2.604
19.2365 3.229
19.2668 2.604
19.2970 2.292
19.3273 2.604
19.3576 2.708
19.3879 2.656
19.4181 2.969
19.4484 2.344
19.4787 2.760
19.5090 2.656
19.5393 2.656
19.5695 2.604
19.5998 2.448
19.6301 2.396
19.6604 2.500
19.6907 2.500
19.7209 2.292
19.7512 2.292
19.7815 2.552
19.8118 3.490
19.8420 2.031
19.8723 2.500
19.9026 2.708
19.9329 2.969
19.9632 2.708
19.9934 2.031
20.0237 2.708
20.0540 2.448
20.0843 2.708
20.1146 1.771
20.1448 2.135
20.1751 3.021
20.2054 2.135
20.2357 2.552
20.2659 3.021
20.2962 2.604
20.3265 2.500
20.3568 2.708
20.3871 3.021
20.4173 2.083
20.4476 2.760
20.4779 2.604
20.5082 2.083
20.5385 2.187
20.5687 2.812
20.5990 2.708
20.6293 2.448
20.6596 2.812
20.6899 3.021
20.7201 2.500
20.7504 2.812
20.7807 2.135
20.8110 2.500
20.8412 2.083
20.8715 2.552
20.9018 2.552
20.9321 2.135
20.9624 2.917
20.9926 2.708
21.0229 3.281
21.0532 2.552
21.0835 2.396
21.1138 2.240
21.1440 2.240
21.1743 2.708
21.2046 2.187
21.2349 2.604
21.2651 2.187
21.2954 2.604
21.3257 2.969
21.3560 2.448
21.3863 2.448
21.4165 1.927
21.4468 3.073
21.4771 1.979
21.5074 2.344
21.5377 2.500
21.5679 2.656
21.5982 2.969
21.6285 2.240
21.6588 2.656
21.6890 3.073
21.7193 2.656
21.7496 2.812
21.7799 1.771
21.8102 1.719
21.8404 2.552
21.8707 2.917
21.9010 2.760
21.9313 2.396
21.9616 2.448
21.9918 1.979
22.0221 2.812
22.0524 3.125
22.0827 2.396
22.1129 2.292
22.1432 2.240
22.1735 2.448
22.2038 2.500
22.2341 2.604
22.2643 2.135
22.2946 2.969
22.3249 2.240
22.3552 2.604
22.3855 2.344
22.4157 2.187
22.4460 2.865
22.4763 2.083
22.5066 1.979
22.5368 3.177
22.5671 3.021
22.5974 2.344
22.6277 2.500
22.6580 2.917
22.6882 2.656
22.7185 3.646
22.7488 2.240
22.7791 2.396
22.8094 2.552
22.8396 2.969
22.8699 2.292
22.9002 3.490
22.9305 2.500
22.9607 2.135
22.9910 3.021
23.0213 2.708
23.0516 2.604
23.0819 2.604
23.1121 2.448
23.1424 1.719
23.1727 2.708
23.2030 3.125
23.2333 2.656
23.2635 2.917
23.2938 2.708
23.3241 2.552
23.3544 2.552
23.3846 2.656
23.4149 1.719
23.4452 2.708
23.4755 2.292
23.5058 2.656
23.5360 2.708
23.5663 3.021
23.5966 2.396
23.6269 2.292
23.6572 2.344
23.6874 1.979
23.7177 2.812
23.7480 2.344
23.7783 2.708
23.8086 2.552
23.8388 2.292
23.8691 1.927
23.8994 2.240
23.9297 2.969
23.9599 2.083
23.9902 3.385
24.0205 2.604
24.0508 2.187
24.0811 2.656
24.1113 3.073
24.1416 1.875
24.1719 2.812
24.2022 2.552
24.2325 1.667
24.2627 2.552
24.2930 1.979
24.3233 2.917
24.3536 2.344
24.3838 2.969
24.4141 2.552
24.4444 2.552
24.4747 2.969
24.5050 2.917
24.5352 2.187
24.5655 2.656
24.5958 1.875
24.6261 3.021
24.6564 2.865
24.6866 1.979
24.7169 2.083
24.7472 1.823
24.7775 2.240
24.8077 2.500
24.8380 2.656
24.8683 3.021
24.8986 2.708
24.9289 1.771
24.9591 2.969
24.9894 3.281
25.0197 3.385
25.0500 2.500
25.0803 2.083
25.1105 2.396
25.1408 2.604
25.1711 1.823
25.2014 2.031
25.2316 2.708
25.2619 1.667
25.2922 2.344
25.3225 2.448
25.3528 2.552
25.3830 3.177
25.4133 2.604
25.4436 2.604
25.4739 2.552
25.5042 2.344
25.5344 2.031
25.5647 2.031
25.5950 2.187
25.6253 3.385
25.6555 2.969
25.6858 2.240
25.7161 2.240
25.7464 2.292
25.7767 2.396
25.8069 2.917
25.8372 2.292
25.8675 2.760
25.8978 2.344
25.9281 2.135
25.9583 2.552
25.9886 2.240
26.0189 2.292
26.0492 2.396
26.0794 2.135
26.1097 2.031
26.1400 2.917
26.1703 2.187
26.2006 2.240
26.2308 2.396
26.2611 2.552
26.2914 2.031
26.3217 2.604
26.3520 2.708
26.3822 2.552
26.4125 3.073
26.4428 2.812
26.4731 2.552
26.5034 2.760
26.5336 2.552
26.5639 2.656
26.5942 2.187
26.6245 2.344
26.6547 2.760
26.6850 2.135
26.7153 2.708
26.7456 2.708
26.7759 3.385
26.8061 2.292
26.8364 3.229
26.8667 3.177
26.8970 2.812
26.9273 2.812
26.9575 2.448
26.9878 2.448
27.0181 2.969
27.0484 2.604
27.0786 2.500
27.1089 2.708
27.1392 3.177
27.1695 3.021
27.1998 2.812
27.2300 3.594
27.2603 2.135
27.2906 2.865
27.3209 2.865
27.3512 2.656
27.3814 2.500
27.4117 2.865
27.4420 2.656
27.4723 2.708
27.5025 2.760
27.5328 2.344
27.5631 3.594
27.5934 2.604
27.6237 3.646
27.6539 2.969
27.6842 1.823
27.7145 2.656
27.7448 2.500
27.7751 2.708
27.8053 3.073
27.8356 3.490
27.8659 3.229
27.8962 2.865
27.9264 2.969
27.9567 2.760
27.9870 2.552
28.0173 2.708
28.0476 3.646
28.0778 3.229
28.1081 2.760
28.1384 3.490
28.1687 2.760
28.1990 3.021
28.2292 2.969
28.2595 3.594
28.2898 2.812
28.3201 2.708
28.3503 2.917
28.3806 2.448
28.4109 3.906
28.4412 2.500
28.4715 2.917
28.5017 3.385
28.5320 2.917
28.5623 3.281
28.5926 1.979
28.6229 3.125
28.6531 3.333
28.6834 3.490
28.7137 3.542
28.7440 2.917
28.7742 2.552
28.8045 2.917
28.8348 3.125
28.8651 3.750
28.8954 3.177
28.9256 2.969
28.9559 2.760
28.9862 3.333
29.0165 3.333
29.0468 3.646
29.0770 3.958
29.1073 3.333
29.1376 3.854
29.1679 2.865
29.1981 4.115
29.2284 3.073
29.2587 3.542
29.2890 4.427
29.3193 3.802
29.3495 3.542
29.3798 3.698
29.4101 3.125
29.4404 4.062
29.4707 3.646
29.5009 4.115
29.5312 3.802
29.5615 4.479
29.5918 3.594
29.6221 3.333
29.6523 4.010
29.6826 3.906
29.7129 4.167
29.7432 3.802
29.7734 3.646
29.8037 3.281
29.8340 4.323
29.8643 4.740
29.8946 4.271
29.9248 4.167
29.9551 4.271
29.9854 3.802
30.0157 3.125
30.0460 4.792
30.0762 5.937
30.1065 4.687
30.1368 4.687
30.1671 4.583
30.1973 4.687
30.2276 4.219
30.2579 4.687
30.2882 4.792
30.3185 5.052
30.3487 5.312
30.3790 5.156
30.4093 5.156
30.4396 5.990
30.4699 5.417
30.5001 5.312
30.5304 5.000
30.5607 5.208
30.5910 5.677
30.6212 5.833
30.6515 5.781
30.6818 7.031
30.7121 7.917
30.7424 8.021
30.7726 7.448
30.8029 7.969
30.8332 8.177
30.8635 7.500
30.8938 9.531
30.9240 9.167
30.9543 9.896
30.9846 9.219
31.0149 9.687
31.0451 10.312
31.0754 9.844
31.1057 11.979
31.1360 13.594
31.1663 12.760
31.1965 14.635
31.2268 15.937
31.2571 19.427
31.2874 20.312
31.3177 21.302
31.3479 22.240
31.3782 24.219
31.4085 26.250
31.4388 28.073
31.4690 32.135
31.4993 37.187
31.5296 36.198
31.5599 38.437
31.5902 40.260
31.6204 42.448
31.6507 45.937
31.6810 42.917
31.7113 42.604
31.7416 41.354
31.7718 34.271
31.8021 36.198
31.8324 31.042
31.8627 27.760
31.8929 23.437
31.9232 21.771
31.9535 19.896
31.9838 16.250
32.0141 18.177
32.0443 14.844
32.0746 13.437
32.1049 13.281
32.1352 12.552
32.1655 10.156
32.1957 10.469
32.2260 9.479
32.2563 9.635
32.2866 10.469
32.3169 8.490
32.3471 9.896
32.3774 8.073
32.4077 7.135
32.4380 6.302
32.4682 7.344
32.4985 7.448
32.5288 6.458
32.5591 6.354
32.5894 6.198
32.6196 6.562
32.6499 6.823
32.6802 5.833
32.7105 5.833
32.7408 5.781
32.7710 6.146
32.8013 5.729
32.8316 4.948
32.8619 5.208
32.8921 5.885
32.9224 6.562
32.9527 6.562
32.9830 5.104
33.0133 5.677
33.0435 5.833
33.0738 5.677
33.1041 6.458
33.1344 5.937
33.1647 4.948
33.1949 5.729
33.2252 6.406
33.2555 5.417
33.2858 5.625
33.3160 5.521
33.3463 5.625
33.3766 5.052
33.4069 5.781
33.4372 5.937
33.4674 5.365
33.4977 5.781
33.5280 6.823
33.5583 5.521
33.5886 6.771
33.6188 7.135
33.6491 5.625
33.6794 6.615
33.7097 7.187
33.7399 8.854
33.7702 7.396
33.8005 8.073
33.8308 8.906
33.8611 9.635
33.8913 9.219
33.9216 10.781
33.9519 12.187
33.9822 13.281
34.0125 13.594
34.0427 16.302
34.0730 17.396
34.1033 21.198
34.1336 24.583
34.1638 30.000
34.1941 35.937
34.2244 40.417
34.2547 48.490
34.2850 54.219
34.3152 55.052
34.3455 51.875
34.3758 47.812
34.4061 42.292
34.4364 33.802
34.4666 27.552
34.4969 24.219
34.5272 19.531
34.5575 18.125
34.5877 15.781
34.6180 14.167
34.6483 12.552
34.6786 13.281
34.7089 12.604
34.7391 10.729
34.7694 9.271
34.7997 10.365
34.8300 9.740
34.8603 10.156
34.8905 8.698
34.9208 9.219
34.9511 8.854
34.9814 9.375
35.0116 9.531
35.0419 7.760
35.0722 10.781
35.1025 10.521
35.1328 10.417
35.1630 8.698
35.1933 8.906
35.2236 11.719
35.2539 10.208
35.2842 11.979
35.3144 10.677
35.3447 10.365
35.3750 12.448
35.4053 12.344
35.4356 12.083
35.4658 12.969
35.4961 12.656
35.5264 14.635
35.5567 14.844
35.5869 15.990
35.6172 17.135
35.6475 20.781
35.6778 21.979
35.7081 21.719
35.7383 24.271
35.7686 26.406
35.7989 28.646
35.8292 33.125
35.8595 32.031
35.8897 37.031
35.9200 43.698
35.9503 43.073
35.9806 49.010
36.0108 53.802
36.0411 56.406
36.0714 62.708
36.1017 61.198
36.1320 63.385
36.1622 61.771
36.1925 60.156
36.2228 58.177
36.2531 56.458
36.2834 52.604
36.3136 45.052
36.3439 41.042
36.3742 39.115
36.4045 31.771
36.4347 28.854
36.4650 26.406
36.4953 25.417
36.5256 22.187
36.5559 18.177
36.5861 18.021
36.6164 16.667
36.6467 15.781
36.6770 14.115
36.7073 12.708
36.7375 11.302
36.7678 11.146
36.7981 10.104
36.8284 10.990
36.8586 9.427
36.8889 9.740
36.9192 8.490
36.9495 9.062
36.9798 8.281
37.0100 8.542
37.0403 7.292
37.0706 7.083
37.1009 7.708
37.1312 6.354
37.1614 6.146
37.1917 5.937
37.2220 6.823
37.2523 5.833
37.2825 5.937
37.3128 5.729
37.3431 5.000
37.3734 6.042
37.4037 5.469
37.4339 4.427
37.4642 5.573
37.4945 4.375
37.5248 5.052
37.5551 4.427
37.5853 4.010
37.6156 4.635
37.6459 4.427
37.6762 3.802
37.7064 4.635
37.7367 3.750
37.7670 4.427
37.7973 3.490
37.8276 4.583
37.8578 3.906
37.8881 3.490
37.9184 3.646
37.9487 3.958
37.9790 3.750
38.0092 2.969
38.0395 2.917
38.0698 3.854
38.1001 2.812
38.1304 3.281
38.1606 3.021
38.1909 2.500
38.2212 3.490
38.2515 3.490
38.2817 3.229
38.3120 3.125
38.3423 4.115
38.3726 3.281
38.4029 3.385
38.4331 3.229
38.4634 3.750
38.4937 3.437
38.5240 3.490
38.5543 3.125
38.5845 3.125
38.6148 2.604
38.6451 3.021
38.6754 3.385
38.7056 3.021
38.7359 2.865
38.7662 2.969
38.7965 3.021
38.8268 2.604
38.8570 3.125
38.8873 2.396
38.9176 2.240
38.9479 3.229
38.9782 1.927
39.0084 1.927
39.0387 2.604
39.0690 2.969
39.0993 2.656
39.1295 2.500
39.1598 2.552
39.1901 2.135
39.2204 3.177
39.2507 2.448
39.2809 2.344
39.3112 2.083
39.3415 2.760
39.3718 2.552
39.4021 1.979
39.4323 2.656
39.4626 2.396
39.4929 2.656
39.5232 2.500
39.5534 2.083
39.5837 3.281
39.6140 1.979
39.6443 2.448
39.6746 2.396
39.7048 1.927
39.7351 2.708
39.7654 1.875
39.7957 2.187
39.8260 2.292
39.8562 1.875
39.8865 1.927
39.9168 2.448
39.9471 2.031
39.9773 2.083
40.0076 2.292
40.0379 2.083
40.0682 2.448
40.0985 1.927
40.1287 2.187
40.1590 1.927
40.1893 2.031
40.2196 1.979
40.2499 2.135
40.2801 2.344
40.3104 1.667
40.3407 1.979
40.3710 2.083
40.4012 2.500
40.4315 2.448
40.4618 2.031
40.4921 2.344
40.5224 2.083
40.5526 1.354
40.5829 2.396
40.6132 2.448
40.6435 2.708
40.6738 2.135
40.7040 1.875
40.7343 1.823
40.7646 1.823
40.7949 2.240
40.8251 2.187
40.8554 1.667
40.8857 2.240
40.9160 1.979
40.9463 2.031
40.9765 2.292
41.0068 1.146
41.0371 1.562
41.0674 1.823
41.0977 2.344
41.1279 2.344
41.1582 2.083
41.1885 2.083
41.2188 1.667
41.2491 1.979
41.2793 2.083
41.3096 1.927
41.3399 1.823
41.3702 2.187
41.4004 2.656
41.4307 1.354
41.4610 1.979
41.4913 1.458
41.5216 2.448
41.5518 2.135
41.5821 2.292
41.6124 1.875
41.6427 1.927
41.6730 1.719
41.7032 2.552
41.7335 1.875
41.7638 2.708
41.7941 2.500
41.8243 2.083
41.8546 2.187
41.8849 2.031
41.9152 2.500
41.9455 1.823
41.9757 1.875
42.0060 1.823
42.0363 2.083
42.0666 2.135
42.0969 2.292
42.1271 2.292
42.1574 2.031
42.1877 1.979
42.2180 2.187
42.2482 2.083
42.2785 1.719
42.3088 1.927
42.3391 1.250
42.3694 2.083
42.3996 1.771
42.4299 1.823
42.4602 1.719
42.4905 2.083
42.5208 1.667
42.5510 1.979
42.5813 2.187
42.6116 1.875
42.6419 1.771
42.6721 2.031
42.7024 2.031
42.7327 1.510
42.7630 2.031
42.7933 1.875
42.8235 2.812
42.8538 1.823
42.8841 1.823
42.9144 1.823
42.9447 1.510
42.9749 1.771
43.0052 2.187
43.0355 2.083
43.0658 1.927
43.0960 2.760
43.1263 1.927
43.1566 1.562
43.1869 1.562
43.2172 1.979
43.2474 1.562
43.2777 1.823
43.3080 1.510
43.3383 1.979
43.3686 1.875
43.3988 1.927
43.4291 1.667
43.4594 1.354
43.4897 1.771
43.5199 1.771
43.5502 1.979
43.5805 2.656
43.6108 1.719
43.6411 1.875
43.6713 1.927
43.7016 2.448
43.7319 1.667
43.7622 1.458
43.7925 1.771
43.8227 1.510
43.8530 1.042
43.8833 2.083
43.9136 1.927
43.9439 1.458
43.9741 1.667
44.0044 1.667
44.0347 2.031
44.0650 1.979
44.0952 1.823
44.1255 1.875
44.1558 1.875
44.1861 2.448
44.2164 1.667
44.2466 2.760
44.2769 1.667
44.3072 1.771
44.3375 1.979
44.3678 1.406
44.3980 2.031
44.4283 2.031
44.4586 2.292
44.4889 1.719
44.5191 1.927
44.5494 1.510
44.5797 2.187
44.6100 2.083
44.6403 1.719
44.6705 1.458
44.7008 2.292
44.7311 2.448
44.7614 2.083
44.7917 2.552
44.8219 1.875
44.8522 2.031
44.8825 2.292
44.9128 2.396
44.9430 2.969
44.9733 2.292
45.0036 2.656
45.0339 1.875
45.0642 2.344
45.0944 2.135
45.1247 2.500
45.1550 2.552
45.1853 1.823
45.2156 1.302
45.2458 2.500
45.2761 1.875
45.3064 2.708
45.3367 2.083
45.3669 2.604
45.3972 2.240
45.4275 2.031
45.4578 2.500
45.4881 1.875
45.5183 1.875
45.5486 2.292
45.5789 2.448
45.6092 2.031
45.6395 2.344
45.6697 2.552
45.7000 2.292
45.7303 1.875
45.7606 2.552
45.7908 1.823
45.8211 2.396
45.8514 2.812
45.8817 1.771
45.9120 1.875
45.9422 1.979
45.9725 2.448
46.0028 2.604
46.0331 2.812
46.0634 2.448
46.0936 2.656
46.1239 2.031
46.1542 2.187
46.1845 1.562
46.2147 2.552
46.2450 2.344
46.2753 2.917
46.3056 2.708
46.3359 2.552
46.3661 2.760
46.3964 2.656
46.4267 2.917
46.4570 2.865
46.4873 2.500
46.5175 2.760
46.5478 3.542
46.5781 2.500
46.6084 3.177
46.6386 3.802
46.6689 3.698
46.6992 3.073
46.7295 3.698
46.7598 3.542
46.7900 4.323
46.8203 4.219
46.8506 4.323
46.8809 5.208
46.9112 5.729
46.9414 4.740
46.9717 4.479
47.0020 6.302
47.0323 5.417
47.0626 6.719
47.0928 7.604
47.1231 8.125
47.1534 7.604
47.1837 9.740
47.2139 8.542
47.2442 10.208
47.2745 11.198
47.3048 11.458
47.3351 13.281
47.3653 12.396
47.3956 14.687
47.4259 13.802
47.4562 14.115
47.4865 13.542
47.5167 13.177
47.5470 10.208
47.5773 10.573
47.6076 10.573
47.6378 9.271
47.6681 8.594
47.6984 7.552
47.7287 6.875
47.7590 6.667
47.7892 5.781
47.8195 5.937
47.8498 5.885
47.8801 5.208
47.9104 4.271
47.9406 4.219
47.9709 4.167
48.0012 4.375
48.0315 3.906
48.0617 3.281
48.0920 3.958
48.1223 3.177
48.1526 2.500
48.1829 3.437
48.2131 3.073
48.2434 2.552
48.2737 3.177
48.3040 2.760
48.3343 2.865
48.3645 2.083
48.3948 2.552
48.4251 2.917
48.4554 2.292
48.4856 2.917
48.5159 2.344
48.5462 2.500
48.5765 2.917
48.6068 2.656
48.6370 2.031
48.6673 1.771
48.6976 2.552
48.7279 2.031
48.7582 2.240
48.7884 1.979
48.8187 2.135
48.8490 2.083
48.8793 2.344
48.9095 2.187
48.9398 2.135
48.9701 2.396
49.0004 2.292
49.0307 1.823
49.0609 2.656
49.0912 1.771
49.1215 1.615
49.1518 2.187
49.1821 2.135
49.2123 2.448
49.2426 1.510
49.2729 1.771
49.3032 2.552
49.3334 1.875
49.3637 2.187
49.3940 2.187
49.4243 1.979
49.4546 1.146
49.4848 2.812
49.5151 1.458
49.5454 1.979
49.5757 1.458
49.6060 2.187
49.6362 2.344
49.6665 1.667
49.6968 2.083
49.7271 1.771
49.7574 1.979
49.7876 2.396
49.8179 1.823
49.8482 1.719
49.8785 1.927
49.9087 2.031
49.9390 2.135
49.9693 1.615
49.9996 2.083
50.0299 1.667
50.0601 1.771
50.0904 2.760
50.1207 2.448
50.1510 1.979
50.1813 2.083
50.2115 2.396
50.2418 1.510
50.2721 1.719
50.3024 1.719
50.3326 2.083
50.3629 2.240
50.3932 2.396
50.4235 2.396
50.4538 2.187
50.4840 2.344
50.5143 2.083
50.5446 1.510
50.5749 1.562
50.6052 2.240
50.6354 2.031
50.6657 2.135
50.6960 1.562
50.7263 2.135
50.7565 1.771
50.7868 2.135
50.8171 2.031
50.8474 2.031
50.8777 1.875
50.9079 1.875
50.9382 2.031
50.9685 2.187
50.9988 2.083
51.0291 1.562
51.0593 1.771
51.0896 1.406
51.1199 2.031
51.1502 1.875
51.1804 2.031
51.2107 1.875
51.2410 2.187
51.2713 2.135
51.3016 2.135
51.3318 1.198
51.3621 1.615
51.3924 1.719
51.4227 2.083
51.4530 2.031
51.4832 1.875
51.5135 1.458
51.5438 2.396
51.5741 1.615
51.6043 1.719
51.6346 1.667
51.6649 1.979
51.6952 2.552
51.7255 1.615
51.7557 1.771
51.7860 1.719
51.8163 1.667
51.8466 1.875
51.8769 1.927
51.9071 1.927
51.9374 1.562
51.9677 1.562
51.9980 2.031
52.0282 2.031
52.0585 1.927
52.0888 2.083
52.1191 1.875
52.1494 1.562
52.1796 2.135
52.2099 2.396
52.2402 1.771
52.2705 1.979
52.3008 1.615
52.3310 2.604
52.3613 1.823
52.3916 1.302
52.4219 2.552
52.4521 2.396
52.4824 1.823
52.5127 1.719
52.5430 2.187
52.5733 1.927
52.6035 1.771
52.6338 1.458
52.6641 1.510
52.6944 2.240
52.7247 1.771
52.7549 2.344
52.7852 2.604
52.8155 1.875
52.8458 1.510
52.8761 2.604
52.9063 1.406
52.9366 1.875
52.9669 1.875
52.9972 1.823
53.0274 1.927
53.0577 2.031
53.0880 1.979
53.1183 1.927
53.1486 2.083
53.1788 2.344
53.2091 2.500
53.2394 2.292
53.2697 1.250
53.3000 1.458
53.3302 2.135
53.3605 2.031
53.3908 2.135
53.4211 2.344
53.4513 2.448
53.4816 2.187
53.5119 2.187
53.5422 2.292
53.5725 2.031
53.6027 1.875
53.6330 2.344
53.6633 2.135
53.6936 1.510
53.7239 2.031
53.7541 1.927
53.7844 2.031
53.8147 1.562
53.8450 1.823
53.8752 1.719
53.9055 1.615
53.9358 2.396
53.9661 2.187
53.9964 2.552
54.0266 1.615
54.0569 1.198
54.0872 2.604
54.1175 2.031
54.1478 2.240
54.1780 2.500
54.2083 1.771
54.2386 1.875
54.2689 2.292
54.2991 2.187
54.3294 1.771
54.3597 2.552
54.3900 2.083
54.4203 1.979
54.4505 2.500
54.4808 2.135
54.5111 2.083
54.5414 1.875
54.5717 2.240
54.6019 2.240
54.6322 2.396
54.6625 2.500
54.6928 1.771
54.7230 2.760
54.7533 2.292
54.7836 2.135
54.8139 2.812
54.8442 2.760
54.8744 2.969
54.9047 2.344
54.9350 2.292
54.9653 2.760
54.9956 2.448
55.0258 2.812
55.0561 2.500
55.0864 3.021
55.1167 2.812
55.1469 2.552
55.1772 2.500
55.2075 3.594
55.2378 3.021
55.2681 2.396
55.2983 2.865
55.3286 3.281
55.3589 3.073
55.3892 2.708
55.4195 3.490
55.4497 2.708
55.4800 3.542
55.5103 3.542
55.5406 2.917
55.5709 3.333
55.6011 3.281
55.6314 3.646
55.6617 3.906
55.6920 4.062
55.7222 3.906
55.7525 4.792
55.7828 4.271
55.8131 5.312
55.8434 5.000
55.8736 4.948
55.9039 5.625
55.9342 6.302
55.9645 6.354
55.9948 5.208
56.0250 7.135
56.0553 7.812
56.0856 8.125
56.1159 7.708
56.1461 7.917
56.1764 9.010
56.2067 10.625
56.2370 11.354
56.2673 13.281
56.2975 12.656
56.3278 14.427
56.3581 15.521
56.3884 15.365
56.4187 16.562
56.4489 16.927
56.4792 16.979
56.5095 17.917
56.5398 16.667
56.5700 16.146
56.6003 15.573
56.6306 15.104
56.6609 11.771
56.6912 11.719
56.7214 10.469
56.7517 10.833
56.7820 8.906
56.8123 9.531
56.8426 7.083
56.8728 8.229
56.9031 6.615
56.9334 6.094
56.9637 5.729
56.9939 6.823
57.0242 6.042
57.0545 4.896
57.0848 5.052
57.1151 4.687
57.1453 5.260
57.1756 5.208
57.2059 4.219
57.2362 4.219
57.2665 4.271
57.2967 2.917
57.3270 3.854
57.3573 3.229
57.3876 3.333
57.4178 3.594
57.4481 3.125
57.4784 3.177
57.5087 3.125
57.5390 2.865
57.5692 2.969
57.5995 2.917
57.6298 3.281
57.6601 2.552
57.6904 2.969
57.7206 2.604
57.7509 3.073
57.7812 1.979
57.8115 2.552
57.8417 1.979
57.8720 1.979
57.9023 2.708
57.9326 2.187
57.9629 2.917
57.9931 2.396
58.0234 2.812
58.0537 2.604
58.0840 2.135
58.1143 1.875
58.1445 2.240
58.1748 2.031
58.2051 2.292
58.2354 2.344
58.2656 2.135
58.2959 3.177
58.3262 1.615
58.3565 2.031
58.3868 2.135
58.4170 1.979
58.4473 1.458
58.4776 2.396
58.5079 1.667
58.5382 2.448
58.5684 2.292
58.5987 2.344
58.6290 2.865
58.6593 1.875
58.6896 2.812
58.7198 2.187
58.7501 2.031
58.7804 2.083
58.8107 1.719
58.8409 2.187
58.8712 2.292
58.9015 1.458
58.9318 2.396
58.9621 2.396
58.9923 1.979
59.0226 2.187
59.0529 1.771
59.0832 1.562
59.1135 2.552
59.1437 1.823
59.1740 2.135
59.2043 2.344
59.2346 1.823
59.2648 2.083
59.2951 2.292
59.3254 2.135
59.3557 1.979
59.3860 2.396
59.4162 2.292
59.4465 1.719
59.4768 2.344
59.5071 2.187
59.5374 1.979
59.5676 2.187
59.5979 1.771
59.6282 2.187
59.6585 1.927
59.6887 1.823
59.7190 1.823
59.7493 1.615
59.7796 1.927
59.8099 1.719
59.8401 2.083
59.8704 1.979
59.9007 2.083
59.9310 2.135
59.9613 2.083
59.9915 1.823
60.0218 2.760
60.0521 2.187
60.0824 2.656
60.1126 2.135
60.1429 1.719
60.1732 1.510
60.2035 2.031
60.2338 2.187
60.2640 2.031
60.2943 2.344
60.3246 1.979
60.3549 2.031
60.3852 2.187
60.4154 1.719
60.4457 2.083
60.4760 2.396
60.5063 1.719
60.5365 2.396
60.5668 2.083
60.5971 2.292
60.6274 2.187
60.6577 1.823
60.6879 1.667
60.7182 2.083
60.7485 2.031
60.7788 2.031
60.8091 2.187
60.8393 2.240
60.8696 1.823
60.8999 2.344
60.9302 2.187
60.9604 2.083
60.9907 2.552
61.0210 2.031
61.0513 2.344
61.0816 2.240
61.1118 2.344
61.1421 2.187
61.1724 1.667
61.2027 2.656
61.2330 2.500
61.2632 2.083
61.2935 2.604
61.3238 2.656
61.3541 2.396
61.3844 2.656
61.4146 2.292
61.4449 2.292
61.4752 2.656
61.5055 2.604
61.5357 1.979
61.5660 2.031
61.5963 2.135
61.6266 3.125
61.6569 2.865
61.6871 3.542
61.7174 2.917
61.7477 3.073
61.7780 2.760
61.8083 3.125
61.8385 3.542
61.8688 2.917
61.8991 4.323
61.9294 3.542
61.9596 3.698
61.9899 3.750
62.0202 3.698
62.0505 5.104
62.0808 4.948
62.1110 5.312
62.1413 4.010
62.1716 5.156
62.2019 5.417
62.2322 5.729
62.2624 6.354
62.2927 6.042
62.3230 6.250
62.3533 6.198
62.3835 6.771
62.4138 7.708
62.4441 8.698
62.4744 8.594
62.5047 9.271
62.5349 11.927
62.5652 10.104
62.5955 11.406
62.6258 12.187
62.6561 13.437
62.6863 13.177
62.7166 13.750
62.7469 15.000
62.7772 14.271
62.8074 13.542
62.8377 14.323
62.8680 13.646
62.8983 12.240
62.9286 12.396
62.9588 11.354
62.9891 11.094
63.0194 9.792
63.0497 9.323
63.0800 8.125
63.1102 7.760
63.1405 6.823
63.1708 6.927
63.2011 6.510
63.2313 5.937
63.2616 4.583
63.2919 4.687
63.3222 4.479
63.3525 4.531
63.3827 5.260
63.4130 3.437
63.4433 3.646
63.4736 3.906
63.5039 3.646
63.5341 3.385
63.5644 4.062
63.5947 2.760
63.6250 3.385
63.6552 2.708
63.6855 3.125
63.7158 2.500
63.7461 2.604
63.7764 2.500
63.8066 2.917
63.8369 2.500
63.8672 3.073
63.8975 2.500
63.9278 2.656
63.9580 3.021
63.9883 2.240
64.0186 2.031
64.0489 2.917
64.0791 2.708
64.1094 3.073
64.1397 2.604
64.1700 2.396
64.2003 1.927
64.2305 2.031
64.2608 2.292
64.2911 2.656
64.3214 3.021
64.3517 2.448
64.3819 2.865
64.4122 1.927
64.4425 1.927
64.4728 1.875
64.5031 2.396
64.5333 2.240
64.5636 2.344
64.5939 1.823
64.6242 2.396
64.6544 1.875
64.6847 1.979
64.7150 1.927
64.7453 2.552
64.7756 2.396
64.8058 2.708
64.8361 2.083
64.8664 1.771
64.8967 2.448
64.9270 2.031
64.9572 2.656
64.9875 1.823
65.0178 2.448
65.0481 2.187
65.0783 1.979
65.1086 2.187
65.1389 1.771
65.1692 2.760
65.1995 2.135
65.2297 2.344
65.2600 1.979
65.2903 2.552
65.3206 2.500
65.3509 2.135
65.3811 2.604
65.4114 2.552
65.4417 2.812
65.4720 2.240
65.5022 2.708
65.5325 2.448
65.5628 2.292
65.5931 2.292
65.6234 2.240
65.6536 2.344
65.6839 2.708
65.7142 2.240
65.7445 3.125
65.7748 2.969
65.8050 2.448
65.8353 3.281
65.8656 3.021
65.8959 2.812
65.9261 3.333
65.9564 2.969
65.9867 3.333
66.0170 3.854
66.0473 3.750
66.0775 3.437
66.1078 3.646
66.1381 3.385
66.1684 3.594
66.1987 3.490
66.2289 3.802
66.2592 3.125
66.2895 4.010
66.3198 4.635
66.3500 3.958
66.3803 4.687
66.4106 3.698
66.4409 4.531
66.4712 3.594
66.5014 3.177
66.5317 4.740
66.5620 3.229
66.5923 3.958
66.6226 3.021
66.6528 3.906
66.6831 3.333
66.7134 3.750
66.7437 3.125
66.7739 3.385
66.8042 4.010
66.8345 3.333
66.8648 2.969
66.8951 3.177
66.9253 3.958
66.9556 2.812
66.9859 3.542
67.0162 3.802
67.0465 4.167
67.0767 3.490
67.1070 3.177
67.1373 3.698
67.1676 4.635
67.1978 4.219
67.2281 4.219
67.2584 4.427
67.2887 5.000
67.3190 4.792
67.3492 6.719
67.3795 5.417
67.4098 6.198
67.4401 6.615
67.4704 5.937
67.5006 7.292
67.5309 7.760
67.5612 7.083
67.5915 6.927
67.6218 9.531
67.6520 8.542
67.6823 8.229
67.7126 10.312
67.7429 9.740
67.7731 11.458
67.8034 11.094
67.8337 11.719
67.8640 10.625
67.8943 11.146
67.9245 9.427
67.9548 9.583
67.9851 10.312
68.0154 8.646
68.0457 8.437
68.0759 8.698
68.1062 7.812
68.1365 7.396
68.1668 7.031
68.1970 7.604
68.2273 7.031
68.2576 6.875
68.2879 5.573
68.3182 4.948
68.3484 6.406
68.3787 4.531
68.4090 6.094
68.4393 5.312
68.4696 5.417
68.4998 6.094
68.5301 5.417
68.5604 4.948
68.5907 5.521
68.6209 5.625
68.6512 5.469
68.6815 5.469
68.7118 5.469
68.7421 5.312
68.7723 5.937
68.8026 5.990
68.8329 5.833
68.8632 6.771
68.8935 6.406
68.9237 5.625
68.9540 6.823
68.9843 6.458
69.0146 5.312
69.0448 5.625
69.0751 6.250
69.1054 5.677
69.1357 5.677
69.1660 5.677
69.1962 5.365
69.2265 4.844
69.2568 4.896
69.2871 4.896
69.3174 4.896
69.3476 4.271
69.3779 3.333
69.4082 4.167
69.4385 3.698
69.4687 3.802
69.4990 3.542
69.5293 3.906
69.5596 3.073
69.5899 3.333
69.6201 3.073
69.6504 2.708
69.6807 2.708
69.7110 2.240
69.7413 2.448
69.7715 2.292
69.8018 2.448
69.8321 2.240
69.8624 2.865
69.8926 2.344
69.9229 2.708
69.9532 2.240
69.9835 1.771
70.0138 2.031
70.0440 2.135
70.0743 2.083
70.1046 2.708
70.1349 1.875
70.1652 2.396
70.1954 1.823
70.2257 1.562
70.2560 2.240
70.2863 2.292
70.3166 2.240
70.3468 1.823
70.3771 1.823
70.4074 1.771
70.4377 1.771
70.4679 1.354
70.4982 1.354
70.5285 1.146
70.5588 1.615
70.5891 1.875
70.6193 2.135
70.6496 1.562
70.6799 1.406
70.7102 1.615
70.7405 1.927
70.7707 1.562
70.8010 1.458
70.8313 1.562
70.8616 1.927
70.8918 1.667
70.9221 1.458
70.9524 1.667
70.9827 1.510
71.0130 1.250
71.0432 1.667
71.0735 1.927
71.1038 2.083
71.1341 1.927
71.1644 1.875
71.1946 1.615
71.2249 1.510
71.2552 1.771
71.2855 1.510
71.3157 1.510
71.3460 1.719
71.3763 1.823
71.4066 1.823
71.4369 1.615
71.4671 1.302
71.4974 1.771
71.5277 1.615
71.5580 1.875
71.5883 1.302
71.6185 1.198
71.6488 1.250
71.6791 2.031
71.7094 1.771
71.7396 1.719
71.7699 1.771
71.8002 1.771
71.8305 1.510
71.8608 1.667
71.8910 1.979
71.9213 1.719
71.9516 2.240
71.9819 1.927
72.0122 1.354
72.0424 1.719
72.0727 1.875
72.1030 1.823
72.1333 1.510
72.1635 2.083
72.1938 1.823
72.2241 1.771
72.2544 1.719
72.2847 2.292
72.3149 1.823
72.3452 1.771
72.3755 2.240
72.4058 2.240
72.4361 2.083
72.4663 1.979
72.4966 1.719
72.5269 2.500
72.5572 2.031
72.5874 2.240
72.6177 1.927
72.6480 2.604
72.6783 1.719
72.7086 2.031
72.7388 1.771
72.7691 1.458
72.7994 1.302
72.8297 1.667
72.8600 2.240
72.8902 1.302
72.9205 1.406
72.9508 2.448
72.9811 1.458
73.0113 1.771
73.0416 1.250
73.0719 1.250
73.1022 1.250
73.1325 1.302
73.1627 1.562
73.1930 1.510
73.2233 1.250
73.2536 1.250
73.2839 1.406
73.3141 1.198
73.3444 1.927
73.3747 1.719
73.4050 1.146
73.4353 1.719
73.4655 1.875
73.4958 1.719
73.5261 1.979
73.5564 1.146
73.5866 1.771
73.6169 1.250
73.6472 1.667
73.6775 1.302
73.7078 1.510
73.7380 1.510
73.7683 1.719
73.7986 1.250
73.8289 1.146
73.8592 1.354
73.8894 0.990
73.9197 1.354
73.9500 1.719
73.9803 1.615
74.0105 1.771
74.0408 1.719
74.0711 0.885
74.1014 1.562
74.1317 1.094
74.1619 1.719
74.1922 1.250
74.2225 1.198
74.2528 1.146
74.2831 0.990
74.3133 1.354
74.3436 1.562
74.3739 1.302
74.4042 1.406
74.4344 1.458
74.4647 1.406
74.4950 1.198
74.5253 1.875
74.5556 1.510
74.5858 1.719
74.6161 0.990
74.6464 1.198
74.6767 1.198
74.7070 1.667
74.7372 1.146
74.7675 1.406
74.7978 1.250
74.8281 1.198
74.8583 1.302
74.8886 1.198
74.9189 1.406
74.9492 1.146
74.9795 1.198
75.0097 1.354
75.0400 1.354
75.0703 1.771
75.1006 1.458
75.1309 1.562
75.1611 1.354
75.1914 0.990
75.2217 1.094
75.2520 1.719
75.2822 1.719
75.3125 1.198
75.3428 1.198
75.3731 1.198
75.4034 1.198
75.4336 1.406
75.4639 1.406
75.4942 1.510
75.5245 0.937
75.5548 1.354
75.5850 1.667
75.6153 1.042
75.6456 1.719
75.6759 1.198
75.7061 1.823
75.7364 1.667
75.7667 1.667
75.7970 1.250
75.8273 1.458
75.8575 1.562
75.8878 1.094
75.9181 1.562
75.9484 1.823
75.9787 1.302
76.0089 1.094
76.0392 1.615
76.0695 0.885
76.0998 1.354
76.1301 1.667
76.1603 1.667
76.1906 1.146
76.2209 1.823
76.2512 1.198
76.2814 2.240
76.3117 1.719
76.3420 1.667
76.3723 1.406
76.4026 1.302
76.4328 1.823
76.4631 1.875
76.4934 1.927
76.5237 1.615
76.5540 2.031
76.5842 1.719
76.6145 2.187
76.6448 2.760
76.6751 1.979
76.7053 2.135
76.7356 2.448
76.7659 2.135
76.7962 2.969
76.8265 2.604
76.8567 2.448
76.8870 2.500
76.9173 2.552
76.9476 1.927
76.9779 1.823
77.0081 2.344
77.0384 2.344
77.0687 2.448
77.0990 2.656
77.1292 2.344
77.1595 1.823
77.1898 2.396
77.2201 1.719
77.2504 1.667
77.2806 1.562
77.3109 1.510
77.3412 1.823
77.3715 1.979
77.4018 1.667
77.4320 1.406
77.4623 1.406
77.4926 1.354
77.5229 1.458
77.5531 2.031
77.5834 1.250
77.6137 1.615
77.6440 1.302
77.6743 2.135
77.7045 1.302
77.7348 1.406
77.7651 1.667
77.7954 1.562
77.8257 1.094
77.8559 1.875
77.8862 1.458
77.9165 1.719
77.9468 1.771
77.9770 1.198
78.0073 1.198
78.0376 1.510
78.0679 1.094
78.0982 1.667
78.1284 2.083
78.1587 1.615
78.1890 1.198
78.2193 1.771
78.2496 1.667
78.2798 1.198
78.3101 1.979
78.3404 1.406
78.3707 1.302
78.4009 1.667
78.4312 1.510
78.4615 1.510
78.4918 1.094
78.5221 1.198
78.5523 1.146
78.5826 1.875
78.6129 2.240
78.6432 1.302
78.6735 1.250
78.7037 1.719
78.7340 1.354
78.7643 1.042
78.7946 1.875
78.8248 1.875
78.8551 1.354
78.8854 1.719
78.9157 1.510
78.9460 1.458
78.9762 1.510
79.0065 1.094
79.0368 0.885
79.0671 1.667
79.0974 1.146
79.1276 1.406
79.1579 1.458
79.1882 1.198
79.2185 1.354
79.2488 1.198
79.2790 1.354
79.3093 1.615
79.3396 1.042
79.3699 1.458
79.4001 1.042
79.4304 1.198
79.4607 1.458
79.4910 1.823
79.5213 1.458
79.5515 1.458
79.5818 1.302
79.6121 1.302
79.6424 1.302
79.6727 1.250
79.7029 1.510
79.7332 1.667
79.7635 1.250
79.7938 0.833
79.8240 1.042
79.8543 0.990
79.8846 1.615
79.9149 1.354
79.9452 1.302
79.9754 1.823
80.0057 1.302
80.0360 1.302
80.0663 1.354
80.0966 1.406
80.1268 1.510
80.1571 1.302
80.1874 1.458
80.2177 1.615
80.2479 1.302
80.2782 2.083
80.3085 1.198
80.3388 1.354
80.3691 1.927
80.3993 1.302
80.4296 1.094
80.4599 1.458
80.4902 1.667
80.5205 1.146
80.5507 1.354
80.5810 1.510
80.6113 1.250
80.6416 1.510
80.6718 1.510
80.7021 1.250
80.7324 1.562
80.7627 1.823
80.7930 1.146
80.8232 1.302
80.8535 1.250
80.8838 1.354
80.9141 1.823
80.9444 1.458
80.9746 1.302
81.0049 1.510
81.0352 1.823
81.0655 1.719
81.0957 1.615
81.1260 1.979
81.1563 1.979
81.1866 1.719
81.2169 1.198
81.2471 1.771
81.2774 2.135
81.3077 2.135
81.3380 1.667
81.3683 2.760
81.3985 1.510
81.4288 1.510
81.4591 1.406
81.4894 1.458
81.5196 2.083
81.5499 1.719
81.5802 2.135
81.6105 2.031
81.6408 1.562
81.6710 1.406
81.7013 1.250
81.7316 1.615
81.7619 1.458
81.7922 1.667
81.8224 1.615
81.8527 1.302
81.8830 1.198
81.9133 1.250
81.9436 1.250
81.9738 1.406
82.0041 1.510
82.0344 0.937
82.0647 1.198
82.0949 1.250
82.1252 0.885
82.1555 1.458
82.1858 1.094
82.2161 1.146
82.2463 1.302
82.2766 1.198
82.3069 1.667
82.3372 1.250
82.3675 1.302
82.3977 1.146
82.4280 0.937
82.4583 1.667
82.4886 1.198
82.5188 1.042
82.5491 1.458
82.5794 0.990
82.6097 1.250
82.6400 1.146
82.6702 1.094
82.7005 0.625
82.7308 0.833
82.7611 1.302
82.7914 1.823
82.8216 1.667
82.8519 1.302
82.8822 1.198
82.9125 0.833
82.9427 1.510
82.9730 1.198
83.0033 0.937
83.0336 1.146
83.0639 1.198
83.0941 1.146
83.1244 1.406
83.1547 1.406
83.1850 1.198
83.2153 0.937
83.2455 1.354
83.2758 0.937
83.3061 1.510
83.3364 1.042
83.3666 1.458
83.3969 1.198
83.4272 0.885
83.4575 1.562
83.4878 1.302
83.5180 1.615
83.5483 1.198
83.5786 0.990
83.6089 1.198
83.6392 1.250
83.6694 0.990
83.6997 1.562
83.7300 1.042
83.7603 0.885
83.7905 2.031
83.8208 1.354
83.8511 1.042
83.8814 1.146
83.9117 1.354
83.9419 1.510
83.9722 1.458
84.0025 1.667
84.0328 1.458
84.0631 1.042
84.0933 1.458
84.1236 1.302
84.1539 1.094
84.1842 1.198
84.2144 1.458
84.2447 1.250
84.2750 1.354
84.3053 1.406
84.3356 1.406
84.3658 1.042
84.3961 1.354
84.4264 1.458
84.4567 1.250
84.4870 1.458
84.5172 1.510
84.5475 1.042
84.5778 1.302
84.6081 1.302
84.6383 1.302
84.6686 1.302
84.6989 1.302
84.7292 1.250
84.7595 1.198
84.7897 1.198
84.8200 1.458
84.8503 1.198
84.8806 1.354
84.9109 1.354
84.9411 1.198
84.9714 1.302
85.0017 1.615
85.0320 1.302
85.0623 1.198
85.0925 1.146
85.1228 1.771
85.1531 1.146
85.1834 1.198
85.2136 1.354
85.2439 1.510
85.2742 1.198
85.3045 1.562
85.3348 1.250
85.3650 1.562
85.3953 1.094
85.4256 1.042
85.4559 1.667
85.4862 1.198
85.5164 1.510
85.5467 1.250
85.5770 1.198
85.6073 1.406
85.6375 1.667
85.6678 1.875
85.6981 1.250
85.7284 1.562
85.7587 1.198
85.7889 1.302
85.8192 0.729
85.8495 1.042
85.8798 1.354
85.9101 1.458
85.9403 1.406
85.9706 1.146
86.0009 1.615
86.0312 1.042
86.0614 0.990
86.0917 1.510
86.1220 1.458
86.1523 1.146
86.1826 1.198
86.2128 1.042
86.2431 1.510
86.2734 1.042
86.3037 0.625
86.3340 1.198
86.3642 1.406
86.3945 0.990
86.4248 1.198
86.4551 1.094
86.4853 0.937
86.5156 1.354
86.5459 1.198
86.5762 1.198
86.6065 1.198
86.6367 1.250
86.6670 1.094
86.6973 0.990
86.7276 1.667
86.7579 1.302
86.7881 1.198
86.8184 1.354
86.8487 0.781
86.8790 1.354
86.9092 1.198
86.9395 1.458
86.9698 1.458
87.0001 1.198
87.0304 0.833
87.0606 1.094
87.0909 1.042
87.1212 1.146
87.1515 1.458
87.1818 1.198
87.2120 0.885
87.2423 1.615
87.2726 0.833
87.3029 1.042
87.3331 1.302
87.3634 0.990
87.3937 1.823
87.4240 1.562
87.4543 1.146
87.4845 1.250
87.5148 1.406
87.5451 1.354
87.5754 1.302
87.6057 1.042
87.6359 1.198
87.6662 1.927
87.6965 1.458
87.7268 1.250
87.7571 1.250
87.7873 1.354
87.8176 1.406
87.8479 1.198
87.8782 1.615
87.9084 1.094
87.9387 1.615
87.9690 1.510
87.9993 1.250
88.0296 1.510
88.0598 1.510
88.0901 1.667
88.1204 1.719
88.1507 1.458
88.1810 1.667
88.2112 1.198
88.2415 1.510
88.2718 2.135
88.3021 2.135
88.3323 1.458
88.3626 1.823
88.3929 1.615
88.4232 1.615
88.4535 1.719
88.4837 1.198
88.5140 1.771
88.5443 1.667
88.5746 1.667
88.6049 1.667
88.6351 1.302
88.6654 1.458
88.6957 1.979
88.7260 1.823
88.7562 1.562
88.7865 1.719
88.8168 2.396
88.8471 2.292
88.8774 1.823
88.9076 2.187
88.9379 1.615
88.9682 2.135
88.9985 1.875
89.0288 1.771
89.0590 2.604
89.0893 2.552
89.1196 1.562
89.1499 2.604
89.1801 2.604
89.2104 2.135
89.2407 2.240
89.2710 2.396
89.3013 2.240
89.3315 2.760
89.3618 2.865
89.3921 3.073
89.4224 2.500
89.4527 3.177
89.4829 3.646
89.5132 2.865
89.5435 3.542
89.5738 3.073
89.6040 3.594
89.6343 2.969
89.6646 3.177
89.6949 3.073
89.7252 3.177
89.7554 3.073
89.7857 2.917
89.8160 3.125
89.8463 2.604
89.8766 2.604
89.9068 2.500
89.9371 2.083
89.9674 2.552
89.9977 2.865
90.0279 1.771
90.0582 1.667
90.0885 2.344
90.1188 1.667
90.1491 2.187
90.1793 2.448
90.2096 1.927
90.2399 1.875
90.2702 1.667
90.3005 2.031
90.3307 1.562
90.3610 1.771
90.3913 1.615
90.4216 1.719
90.4518 1.510
90.4821 1.667
90.5124 1.927
90.5427 2.344
90.5730 0.937
90.6032 2.031
90.6335 1.719
90.6638 1.198
90.6941 2.135
90.7244 1.667
90.7546 1.406
90.7849 1.562
90.8152 1.250
90.8455 1.302
90.8758 1.250
90.9060 1.198
90.9363 1.354
90.9666 1.302
90.9969 2.083
91.0271 1.615
91.0574 1.458
91.0877 1.250
91.1180 1.562
91.1483 1.458
91.1785 1.719
91.2088 1.250
91.2391 1.667
91.2694 1.667
91.2997 1.354
91.3299 1.719
91.3602 1.771
91.3905 1.146
91.4208 1.198
91.4510 1.458
91.4813 1.510
91.5116 1.667
91.5419 1.875
91.5722 1.146
91.6024 1.406
91.6327 1.302
91.6630 1.771
91.6933 1.667
91.7236 1.562
91.7538 1.615
91.7841 1.562
91.8144 1.198
91.8447 1.510
91.8749 1.406
91.9052 1.667
91.9355 2.031
91.9658 1.615
91.9961 1.094
92.0263 1.615
92.0566 1.719
92.0869 1.198
92.1172 1.667
92.1475 1.875
92.1777 0.990
92.2080 1.719
92.2383 1.250
92.2686 1.562
92.2988 1.458
92.3291 1.771
92.3594 2.031
92.3897 1.875
92.4200 2.083
92.4502 1.979
92.4805 1.615
92.5108 1.927
92.5411 2.187
92.5714 1.719
92.6016 1.771
92.6319 2.083
92.6622 2.604
92.6925 1.458
92.7227 1.823
92.7530 1.719
92.7833 1.771
92.8136 1.510
92.8439 2.240
92.8741 2.135
92.9044 2.083
92.9347 2.708
92.9650 1.979
92.9953 1.875
93.0255 2.240
93.0558 2.396
93.0861 1.979
93.1164 2.187
93.1466 2.187
93.1769 1.667
93.2072 1.719
93.2375 1.823
93.2678 1.615
93.2980 1.250
93.3283 1.406
93.3586 1.458
93.3889 2.031
93.4192 1.354
93.4494 1.198
93.4797 1.771
93.5100 1.667
93.5403 1.458
93.5706 1.562
93.6008 1.406
93.6311 1.354
93.6614 1.615
93.6917 2.031
93.7219 1.250
93.7522 1.510
93.7825 1.719
93.8128 1.771
93.8431 1.406
93.8733 1.458
93.9036 1.615
93.9339 1.719
93.9642 2.031
93.9945 1.615
94.0247 1.667
94.0550 1.198
94.0853 1.719
94.1156 1.771
94.1458 1.198
94.1761 2.031
94.2064 1.198
94.2367 1.719
94.2670 1.562
94.2972 1.771
94.3275 1.615
94.3578 1.875
94.3881 1.771
94.4184 1.823
94.4486 1.562
94.4789 2.187
94.5092 1.979
94.5395 1.875
94.5697 2.083
94.6000 1.927
94.6303 2.552
94.6606 2.240
94.6909 2.604
94.7211 2.187
94.7514 2.135
94.7817 2.708
94.8120 2.031
94.8423 2.448
94.8725 3.125
94.9028 2.240
94.9331 2.865
94.9634 3.073
94.9936 1.615
95.0239 3.542
95.0542 3.490
95.0845 2.812
95.1148 3.854
95.1450 2.344
95.1753 3.802
95.2056 2.865
95.2359 2.917
95.2662 3.229
95.2964 3.177
95.3267 2.865
95.3570 3.177
95.3873 3.333
95.4175 2.917
95.4478 2.656
95.4781 2.708
95.5084 2.812
95.5387 2.760
95.5689 1.927
95.5992 2.344
95.6295 2.187
95.6598 2.656
95.6901 2.396
95.7203 1.823
95.7506 2.812
95.7809 2.083
95.8112 2.292
95.8414 1.979
95.8717 2.135
95.9020 2.031
95.9323 2.240
95.9626 2.240
95.9928 2.083
96.0231 1.979
96.0534 2.240
96.0837 1.250
96.1140 1.927
96.1442 1.719
96.1745 1.354
96.2048 1.510
96.2351 1.979
96.2653 2.135
96.2956 1.875
96.3259 1.615
96.3562 1.667
96.3865 1.615
96.4167 1.250
96.4470 2.031
96.4773 1.615
96.5076 1.302
96.5379 1.667
96.5681 1.302
96.5984 1.719
96.6287 1.146
96.6590 1.458
96.6893 1.510
96.7195 2.240
96.7498 1.250
96.7801 1.771
96.8104 1.458
96.8406 1.615
96.8709 1.562
96.9012 1.562
96.9315 0.990
96.9618 1.510
96.9920 1.667
97.0223 1.250
97.0526 1.406
97.0829 1.094
97.1132 1.146
97.1434 1.510
97.1737 1.719
97.2040 0.885
97.2343 2.031
97.2645 1.562
97.2948 2.083
97.3251 1.094
97.3554 1.406
97.3857 1.146
97.4159 1.198
97.4462 1.354
97.4765 1.250
97.5068 1.719
97.5371 1.198
97.5673 1.510
97.5976 2.187
97.6279 1.458
97.6582 1.562
97.6884 1.406
97.7187 1.198
97.7490 1.302
97.7793 1.771
97.8096 2.031
97.8398 0.990
97.8701 1.823
97.9004 1.250
97.9307 1.927
97.9610 1.719
97.9912 1.146
98.0215 2.708
98.0518 1.771
98.0821 1.771
98.1123 2.448
98.1426 1.875
98.1729 1.198
98.2032 2.135
98.2335 1.771
98.2637 1.875
98.2940 2.031
98.3243 2.031
98.3546 2.396
98.3849 2.135
98.4151 2.292
98.4454 1.979
98.4757 1.979
98.5060 2.656
98.5362 2.292
98.5665 1.771
98.5968 2.083
98.6271 2.344
98.6574 2.135
98.6876 2.865
98.7179 2.240
98.7482 1.875
98.7785 1.979
98.8088 1.927
98.8390 1.667
98.8693 2.708
98.8996 2.135
98.9299 2.917
98.9601 2.292
98.9904 2.031
99.0207 1.615
99.0510 1.771
99.0813 2.083
99.1115 2.083
99.1418 0.990
99.1721 1.406
99.2024 1.562
99.2327 1.719
99.2629 2.135
99.2932 1.250
99.3235 2.344
99.3538 2.031
99.3841 1.250
99.4143 1.771
99.4446 1.667
99.4749 1.927
99.5052 1.458
99.5354 1.927
99.5657 1.250
99.5960 1.302
99.6263 1.406
99.6566 2.240
99.6868 1.615
99.7171 1.250
99.7474 1.302
99.7777 1.510
99.8080 1.719
99.8382 1.458
99.8685 1.302
99.8988 1.510
99.9291 1.302
99.9593 1.615
99.9896 1.198
100.0199 1.615
100.0502 1.406
100.0805 1.406
100.1107 1.146
100.1410 1.250
100.1713 1.615
100.2016 1.771
100.2319 1.510
100.2621 1.510
100.2924 1.042
100.3227 1.562
100.3530 0.990
100.3832 1.250
100.4135 1.198
100.4438 1.354
100.4741 1.823
100.5044 2.083
100.5346 1.302
100.5649 1.198
100.5952 1.667
100.6255 1.823
100.6558 1.406
100.6860 1.094
100.7163 0.937
100.7466 1.042
100.7769 1.562
100.8071 0.937
100.8374 0.937
100.8677 1.354
100.8980 1.302
100.9283 1.198
100.9585 1.719
100.9888 0.990
101.0191 1.250
101.0494 0.937
101.0797 1.146
101.1099 1.302
101.1402 1.354
101.1705 1.458
101.2008 1.302
101.2310 1.250
101.2613 1.354
101.2916 1.823
101.3219 0.885
101.3522 1.302
101.3824 1.146
101.4127 1.146
101.4430 1.771
101.4733 1.302
101.5036 1.094
101.5338 1.615
101.5641 1.302
101.5944 1.771
101.6247 1.042
101.6549 0.677
101.6852 0.937
101.7155 1.823
101.7458 1.250
101.7761 1.198
101.8063 1.771
101.8366 1.615
101.8669 1.510
101.8972 1.354
101.9275 0.937
101.9577 0.990
101.9880 1.667
102.0183 1.927
102.0486 1.562
102.0788 1.198
102.1091 1.510
102.1394 1.979
102.1697 1.302
102.2000 1.458
102.2302 1.406
102.2605 1.771
102.2908 1.458
102.3211 2.031
102.3514 1.250
102.3816 1.667
102.4119 1.823
102.4422 2.292
102.4725 1.875
102.5028 1.771
102.5330 1.458
102.5633 2.187
102.5936 1.875
102.6239 1.979
102.6541 1.979
102.6844 1.719
102.7147 2.240
102.7450 2.135
102.7753 2.135
102.8055 1.875
102.8358 2.552
102.8661 1.875
102.8964 2.135
102.9267 2.292
102.9569 1.979
102.9872 1.875
103.0175 2.135
103.0478 1.615
103.0780 2.812
103.1083 2.031
103.1386 2.083
103.1689 1.979
103.1992 1.927
103.2294 2.187
103.2597 2.448
103.2900 1.927
103.3203 2.292
103.3506 2.292
103.3808 2.552
103.4111 1.875
103.4414 2.187
103.4717 2.292
103.5019 1.719
103.5322 1.823
103.5625 2.135
103.5928 2.552
103.6231 2.031
103.6533 2.448
103.6836 2.240
103.7139 2.604
103.7442 2.292
103.7745 2.760
103.8047 2.187
103.8350 2.396
103.8653 3.021
103.8956 2.396
103.9258 2.969
103.9561 2.187
103.9864 2.135
104.0167 2.292
104.0470 2.396
104.0772 2.396
104.1075 2.969
104.1378 1.823
104.1681 2.031
104.1984 2.917
104.2286 2.969
104.2589 2.812
104.2892 1.823
104.3195 2.344
104.3497 2.083
104.3800 2.552
104.4103 2.865
104.4406 2.448
104.4709 1.927
104.5011 2.552
104.5314 2.500
104.5617 3.073
104.5920 1.979
104.6223 1.823
104.6525 1.927
104.6828 1.615
104.7131 2.135
104.7434 1.927
104.7736 1.510
104.8039 1.823
104.8342 2.135
104.8645 1.667
104.8948 1.875
104.9250 2.187
104.9553 1.510
104.9856 1.719
105.0159 1.615
105.0462 1.406
105.0764 2.083
105.1067 2.448
105.1370 1.458
105.1673 1.510
105.1975 2.031
105.2278 1.458
105.2581 1.250
105.2884 1.302
105.3187 1.667
105.3489 1.615
105.3792 1.094
105.4095 1.406
105.4398 0.990
105.4701 1.562
105.5003 1.406
105.5306 1.667
105.5609 1.927
105.5912 1.667
105.6215 1.562
105.6517 0.937
105.6820 1.562
105.7123 1.406
105.7426 1.562
105.7728 1.719
105.8031 1.198
105.8334 1.354
105.8637 1.771
105.8940 1.354
105.9242 1.302
105.9545 1.510
105.9848 1.615
106.0151 1.667
106.0454 1.927
106.0756 1.354
106.1059 1.667
106.1362 1.406
106.1665 0.885
106.1967 1.250
106.2270 1.510
106.2573 1.458
106.2876 2.344
106.3179 0.990
106.3481 1.146
106.3784 1.615
106.4087 1.667
106.4390 1.354
106.4693 1.406
106.4995 1.615
106.5298 1.354
106.5601 1.406
106.5904 1.250
106.6206 1.771
106.6509 1.823
106.6812 1.354
106.7115 1.250
106.7418 1.927
106.7720 1.562
106.8023 1.510
106.8326 1.667
106.8629 1.250
106.8932 1.510
106.9234 2.083
106.9537 1.979
106.9840 1.562
107.0143 1.146
107.0445 1.042
107.0748 1.667
107.1051 1.250
107.1354 1.354
107.1657 1.042
107.1959 1.562
107.2262 1.458
107.2565 1.458
107.2868 1.302
107.3171 1.719
107.3473 1.615
107.3776 1.771
107.4079 1.458
107.4382 1.146
107.4684 1.771
107.4987 2.083
107.5290 1.615
107.5593 1.302
107.5896 1.250
107.6198 1.771
107.6501 1.771
107.6804 1.302
107.7107 1.562
107.7410 1.667
107.7712 1.510
107.8015 0.937
107.8318 1.250
107.8621 1.927
107.8923 1.406
107.9226 1.615
107.9529 1.823
107.9832 2.135
108.0135 1.250
108.0437 1.094
108.0740 1.615
108.1043 1.927
108.1346 1.302
108.1649 1.510
108.1951 1.510
108.2254 0.937
108.2557 1.354
108.2860 1.458
108.3163 1.406
108.3465 1.302
108.3768 1.302
108.4071 1.510
108.4374 1.302
108.4676 1.562
108.4979 1.823
108.5282 1.667
108.5585 1.198
108.5888 1.562
108.6190 0.833
108.6493 1.146
108.6796 1.771
108.7099 2.031
108.7402 1.198
108.7704 1.823
108.8007 1.042
108.8310 1.406
108.8613 1.458
108.8915 1.354
108.9218 0.833
108.9521 1.302
108.9824 1.667
109.0127 1.250
109.0429 1.510
109.0732 1.302
109.1035 1.719
109.1338 1.458
109.1641 1.354
109.1943 1.562
109.2246 1.719
109.2549 1.406
109.2852 1.562
109.3154 1.719
109.3457 1.771
109.3760 1.667
109.4063 2.135
109.4366 0.885
109.4668 1.562
109.4971 1.510
109.5274 1.771
109.5577 1.615
109.5880 1.302
109.6182 1.406
109.6485 1.354
109.6788 1.562
109.7091 2.031
109.7393 1.250
109.7696 1.667
109.7999 1.615
109.8302 1.562
109.8605 2.187
109.8907 1.667
109.9210 1.510
109.9513 1.562
109.9816 1.667
110.0119 1.979
110.0421 1.979
110.0724 2.500
110.1027 1.250
110.1330 2.344
110.1632 1.719
110.1935 2.187
110.2238 2.031
110.2541 2.031
110.2844 2.083
110.3146 1.927
110.3449 2.292
110.3752 2.240
110.4055 2.135
110.4358 1.875
110.4660 1.979
110.4963 2.344
110.5266 2.187
110.5569 1.615
110.5871 2.083
110.6174 1.615
110.6477 1.927
110.6780 1.927
110.7083 2.187
110.7385 2.083
110.7688 1.823
110.7991 2.187
110.8294 1.771
110.8597 1.250
110.8899 1.667
110.9202 1.927
110.9505 1.927
110.9808 1.719
111.0110 1.094
111.0413 1.094
111.0716 1.406
111.1019 1.250
111.1322 2.031
111.1624 1.823
111.1927 1.615
111.2230 1.406
111.2533 1.510
111.2836 1.406
111.3138 2.031
111.3441 1.250
111.3744 1.771
111.4047 1.615
111.4350 1.719
111.4652 1.615
111.4955 1.406
111.5258 1.927
111.5561 0.990
111.5863 1.875
111.6166 1.510
111.6469 0.990
111.6772 1.354
111.7075 1.562
111.7377 1.615
111.7680 1.615
111.7983 1.354
111.8286 0.990
111.8589 1.250
111.8891 1.250
111.9194 1.458
111.9497 1.510
111.9800 1.458
112.0102 1.302
112.0405 1.198
112.0708 1.146
112.1011 1.146
112.1314 1.302
112.1616 1.719
112.1919 0.990
112.2222 0.729
112.2525 0.990
112.2828 1.354
112.3130 0.990
112.3433 1.667
112.3736 1.354
112.4039 1.198
112.4341 0.781
112.4644 1.094
112.4947 2.031
112.5250 0.885
112.5553 1.458
112.5855 1.198
112.6158 1.615
112.6461 1.094
112.6764 1.562
112.7067 1.458
112.7369 1.562
112.7672 1.771
112.7975 1.302
112.8278 2.083
112.8580 1.302
112.8883 1.250
112.9186 1.354
112.9489 1.510
112.9792 1.354
113.0094 1.146
113.0397 1.510
113.0700 1.198
113.1003 1.250
113.1306 1.458
113.1608 1.406
113.1911 1.198
113.2214 1.458
113.2517 1.719
113.2819 1.771
113.3122 1.198
113.3425 1.562
113.3728 0.990
113.4031 1.250
113.4333 1.927
113.4636 1.354
113.4939 1.094
113.5242 1.146
113.5545 1.302
113.5847 1.562
113.6150 1.667
113.6453 0.937
113.6756 1.406
113.7058 1.302
113.7361 1.198
113.7664 1.302
113.7967 1.198
113.8270 1.354
113.8572 1.302
113.8875 1.458
113.9178 1.458
113.9481 1.094
113.9784 1.406
114.0086 0.937
114.0389 1.354
114.0692 0.990
114.0995 1.510
114.1298 1.771
114.1600 1.615
114.1903 1.667
114.2206 1.094
114.2509 1.510
114.2811 1.562
114.3114 1.615
114.3417 1.458
114.3720 1.146
114.4023 0.990
114.4325 1.562
114.4628 1.406
114.4931 1.354
114.5234 1.302
114.5537 0.990
114.5839 1.250
114.6142 1.302
114.6445 1.823
114.6748 1.354
114.7050 1.458
114.7353 1.250
114.7656 1.823
114.7959 1.615
114.8262 1.823
114.8564 1.510
114.8867 1.406
114.9170 2.031
114.9473 1.510
114.9776 1.823
115.0078 1.771
115.0381 1.562
115.0684 1.302
115.0987 2.708
115.1289 1.771
115.1592 1.562
115.1895 2.031
115.2198 1.719
115.2501 2.135
115.2803 1.562
115.3106 1.354
115.3409 1.771
115.3712 2.031
115.4015 1.875
115.4317 1.979
115.4620 1.719
115.4923 1.927
115.5226 2.708
115.5528 1.458
115.5831 2.812
115.6134 2.031
115.6437 2.448
115.6740 2.396
115.7042 2.083
115.7345 2.292
115.7648 2.083
115.7951 2.448
115.8254 2.083
115.8556 2.135
115.8859 2.396
115.9162 2.552
115.9465 2.604
115.9767 2.240
116.0070 2.552
116.0373 3.073
116.0676 3.281
116.0979 2.448
116.1281 3.542
116.1584 3.073
116.1887 2.552
116.2190 2.917
116.2493 2.865
116.2795 2.292
116.3098 2.448
116.3401 2.812
116.3704 3.229
116.4006 2.344
116.4309 2.760
116.4612 2.656
116.4915 2.917
116.5218 2.812
116.5520 2.604
116.5823 2.448
116.6126 2.656
116.6429 2.760
116.6732 2.656
116.7034 2.656
116.7337 2.604
116.7640 2.187
116.7943 2.187
116.8245 2.083
116.8548 2.396
116.8851 2.240
116.9154 2.552
116.9457 1.979
116.9759 1.667
117.0062 1.771
117.0365 2.500
117.0668 1.771
117.0971 2.187
117.1273 2.240
117.1576 1.927
117.1879 1.979
117.2182 1.771
117.2485 2.031
117.2787 1.615
117.3090 1.927
117.3393 1.615
117.3696 2.083
117.3998 1.562
117.4301 2.187
117.4604 1.823
117.4907 1.562
117.5210 1.823
117.5512 1.458
117.5815 1.771
117.6118 1.615
117.6421 1.510
117.6724 1.146
117.7026 1.510
117.7329 1.927
117.7632 1.875
117.7935 2.083
117.8237 1.615
117.8540 2.187
117.8843 1.510
117.9146 1.406
117.9449 1.979
117.9751 1.250
118.0054 1.979
118.0357 1.458
118.0660 1.562
118.0963 1.146
118.1265 1.250
118.1568 1.667
118.1871 1.146
118.2174 1.719
118.2476 1.406
118.2779 1.302
118.3082 1.250
118.3385 1.823
118.3688 1.302
118.3990 1.458
118.4293 1.302
118.4596 1.823
118.4899 1.458
118.5202 1.198
118.5504 1.146
118.5807 1.458
118.6110 1.250
118.6413 1.979
118.6715 1.615
118.7018 1.510
118.7321 0.833
118.7624 1.354
118.7927 1.823
118.8229 1.719
118.8532 1.719
118.8835 1.458
118.9138 1.302
118.9441 1.302
118.9743 1.094
119.0046 1.406
119.0349 1.823
119.0652 1.458
119.0954 1.458
119.1257 1.250
119.1560 0.833
119.1863 1.354
119.2166 1.354
119.2468 1.302
119.2771 1.094
119.3074 1.458
119.3377 1.354
119.3680 1.250
119.3982 1.979
119.4285 1.146
119.4588 0.885
119.4891 1.458
119.5193 1.562
119.5496 1.458
119.5799 1.615
119.6102 1.615
119.6405 1.094
119.6707 1.562
119.7010 1.146
119.7313 1.250
119.7616 1.354
119.7919 1.354
119.8221 1.615
119.8524 1.302
119.8827 1.354
119.9130 1.146
119.9433 1.094
119.9735 0.885
120.0038 1.302
