'Id: "" Comment: "" Operator: "Lab Manager" Anode: "Cu" Scantype: "Locked Coupled" TimePerStep: "19.2" X: "9999" Y: "9999" Z: "9999" 
10.0015 5.104
10.0318 4.010
10.0620 4.583
10.0923 4.896
10.1226 3.802
10.1529 3.646
10.1832 4.427
10.2134 4.010
10.2437 4.167
10.2740 4.271
10.3043 4.375
10.3346 4.479
10.3648 3.854
10.3951 3.594
10.4254 3.698
10.4557 4.687
10.4859 3.177
10.5162 3.698
10.5465 4.271
10.5768 3.854
10.6071 2.865
10.6373 3.802
10.6676 3.125
10.6979 3.385
10.7282 4.062
10.7585 3.698
10.7887 4.271
10.8190 3.437
10.8493 3.281
10.8796 3.490
10.9098 3.542
10.9401 3.542
10.9704 3.698
11.0007 3.958
11.0310 3.750
11.0612 3.229
11.0915 2.865
11.1218 3.333
11.1521 4.219
11.1824 3.698
11.2126 3.437
11.2429 3.594
11.2732 2.760
11.3035 3.490
11.3337 3.073
11.3640 4.479
11.3943 2.760
11.4246 3.333
11.4549 3.490
11.4851 3.333
11.5154 3.750
11.5457 3.437
11.5760 3.906
11.6063 3.437
11.6365 3.594
11.6668 3.490
11.6971 3.490
11.7274 3.490
11.7577 3.646
11.7879 3.542
11.8182 3.333
11.8485 3.385
11.8788 4.375
11.9090 3.542
11.9393 3.333
11.9696 3.594
11.9999 3.698
12.0302 4.062
12.0604 4.271
12.0907 3.385
12.1210 2.865
12.1513 3.542
12.1816 4.167
12.2118 3.906
12.2421 3.594
12.2724 3.437
12.3027 3.958
12.3329 3.646
12.3632 3.073
12.3935 3.437
12.4238 2.708
12.4541 3.021
12.4843 3.177
12.5146 4.219
12.5449 3.490
12.5752 3.229
12.6055 3.802
12.6357 3.750
12.6660 4.531
12.6963 3.229
12.7266 4.219
12.7568 3.281
12.7871 2.969
12.8174 3.698
12.8477 3.177
12.8780 2.708
12.9082 3.698
12.9385 3.177
12.9688 2.604
12.9991 3.594
13.0294 3.021
13.0596 3.854
13.0899 3.333
13.1202 3.750
13.1505 3.229
13.1807 2.760
13.2110 3.177
13.2413 3.698
13.2716 2.760
13.3019 3.125
13.3321 3.437
13.3624 3.333
13.3927 4.167
13.4230 2.083
13.4533 3.281
13.4835 3.385
13.5138 3.333
13.5441 3.646
13.5744 3.906
13.6046 3.698
13.6349 2.083
13.6652 2.552
13.6955 3.281
13.7258 3.021
13.7560 3.490
13.7863 2.448
13.8166 3.177
13.8469 4.375
13.8772 4.167
13.9074 2.760
13.9377 2.969
13.9680 2.812
13.9983 3.854
14.0285 3.021
14.0588 3.333
14.0891 3.490
14.1194 2.760
14.1497 3.437
14.1799 2.500
14.2102 3.073
14.2405 3.854
14.2708 2.812
14.3011 3.229
14.3313 2.865
14.3616 3.646
14.3919 3.021
14.4222 3.125
14.4524 3.177
14.4827 3.750
14.5130 1.927
14.5433 3.542
14.5736 3.646
14.6038 3.073
14.6341 3.073
14.6644 2.552
14.6947 3.177
14.7250 2.656
14.7552 3.437
14.7855 2.812
14.8158 2.917
14.8461 3.594
14.8764 3.542
14.9066 2.812
14.9369 3.021
14.9672 2.812
14.9975 3.854
15.0277 2.917
15.0580 2.656
15.0883 3.437
15.1186 3.281
15.1489 3.125
15.1791 3.802
15.2094 3.333
15.2397 3.437
15.2700 3.281
15.3003 3.073
15.3305 2.083
15.3608 3.021
15.3911 2.656
15.4214 3.542
15.4516 2.708
15.4819 3.333
15.5122 2.917
15.5425 2.969
15.5728 3.333
15.6030 3.646
15.6333 3.385
15.6636 3.281
15.6939 3.125
15.7242 2.760
15.7544 2.656
15.7847 3.490
15.8150 2.604
15.8453 2.812
15.8755 3.021
15.9058 2.552
15.9361 3.385
15.9664 3.073
15.9967 2.552
16.0269 2.760
16.0572 2.865
16.0875 3.437
16.1178 3.802
16.1481 3.437
16.1783 2.760
16.2086 2.760
16.2389 3.125
16.2692 2.917
16.2994 2.448
16.3297 3.177
16.3600 2.708
16.3903 3.490
16.4206 3.125
16.4508 2.969
16.4811 3.177
16.5114 2.292
16.5417 3.906
16.5720 3.333
16.6022 2.969
16.6325 2.812
16.6628 2.240
16.6931 3.906
16.7233 3.125
16.7536 2.656
16.7839 4.062
16.8142 3.125
16.8445 2.812
16.8747 3.021
16.9050 3.646
16.9353 3.073
16.9656 2.969
16.9959 2.865
17.0261 3.385
17.0564 2.656
17.0867 3.229
17.1170 2.865
17.1472 3.125
17.1775 2.812
17.2078 3.229
17.2381 2.760
17.2684 3.333
17.2986 3.021
17.3289 3.125
17.3592 3.281
17.3895 3.594
17.4198 3.177
17.4500 4.375
17.4803 3.125
17.5106 3.021
17.5409 3.385
17.5712 2.812
17.6014 3.229
17.6317 2.135
17.6620 2.448
17.6923 2.656
17.7225 3.385
17.7528 2.969
17.7831 3.125
17.8134 2.865
17.8437 2.396
17.8739 3.646
17.9042 2.500
17.9345 3.125
17.9648 3.542
17.9951 3.750
18.0253 2.708
18.0556 3.437
18.0859 2.760
18.1162 2.917
18.1464 2.604
18.1767 2.604
18.2070 2.969
18.2373 2.552
18.2676 2.604
18.2978 2.969
18.3281 2.969
18.3584 3.333
18.3887 2.812
18.4190 3.437
18.4492 2.396
18.4795 2.396
18.5098 3.073
18.5401 2.604
18.5703 2.135
18.6006 3.698
18.6309 3.125
18.6612 2.292
18.6915 2.552
18.7217 3.177
18.7520 2.552
18.7823 3.073
18.8126 3.021
18.8429 2.604
18.8731 3.021
18.9034 2.865
18.9337 3.125
18.9640 3.073
18.9942 3.125
19.0245 2.708
19.0548 3.177
19.0851 2.708
19.1154 1.823
19.1456 2.917
19.1759 2.760
19.2062 2.656
19.2365 2.448
19.2668 3.177
19.2970 3.385
19.3273 3.802
19.3576 3.073
19.3879 3.073
19.4181 2.812
19.4484 3.281
19.4787 2.604
19.5090 3.542
19.5393 1.927
19.5695 1.771
19.5998 3.281
19.6301 2.604
19.6604 2.604
19.6907 2.396
19.7209 4.062
19.7512 2.344
19.7815 3.229
19.8118 2.604
19.8420 2.604
19.8723 2.760
19.9026 3.646
19.9329 3.281
19.9632 1.875
19.9934 2.448
20.0237 2.812
20.0540 3.437
20.0843 2.187
20.1146 2.500
20.1448 2.344
20.1751 2.604
20.2054 2.396
20.2357 2.812
20.2659 2.500
20.2962 2.708
20.3265 2.552
20.3568 2.656
20.3871 3.021
20.4173 2.708
20.4476 2.396
20.4779 2.500
20.5082 2.865
20.5385 2.031
20.5687 2.344
20.5990 2.865
20.6293 2.708
20.6596 2.969
20.6899 2.396
20.7201 3.073
20.7504 2.604
20.7807 2.552
20.8110 2.812
20.8412 3.385
20.8715 1.823
20.9018 2.656
20.9321 2.448
20.9624 3.125
20.9926 2.552
21.0229 2.552
21.0532 2.760
21.0835 1.875
21.1138 3.281
21.1440 2.812
21.1743 3.854
21.2046 2.187
21.2349 2.969
21.2651 2.552
21.2954 2.760
21.3257 3.437
21.3560 2.760
21.3863 2.760
21.4165 2.135
21.4468 2.865
21.4771 2.865
21.5074 3.073
21.5377 2.292
21.5679 2.656
21.5982 2.656
21.6285 2.812
21.6588 2.031
21.6890 2.448
21.7193 1.771
21.7496 3.073
21.7799 3.490
21.8102 3.021
21.8404 2.187
21.8707 2.760
21.9010 2.500
21.9313 2.396
21.9616 2.812
21.9918 2.552
22.0221 2.812
22.0524 2.969
22.0827 2.344
22.1129 2.969
22.1432 2.656
22.1735 2.396
22.2038 3.021
22.2341 2.604
22.2643 2.552
22.2946 2.396
22.3249 3.021
22.3552 3.594
22.3855 2.187
22.4157 2.344
22.4460 3.021
22.4763 2.135
22.5066 1.771
22.5368 2.760
22.5671 3.021
22.5974 2.135
22.6277 2.083
22.6580 2.552
22.6882 2.604
22.7185 2.760
22.7488 2.240
22.7791 2.812
22.8094 2.760
22.8396 3.906
22.8699 2.969
22.9002 2.552
22.9305 2.708
22.9607 2.187
22.9910 2.292
23.0213 2.500
23.0516 2.552
23.0819 2.865
23.1121 2.552
23.1424 2.969
23.1727 3.385
23.2030 2.656
23.2333 2.500
23.2635 2.396
23.2938 2.760
23.3241 2.552
23.3544 2.708
23.3846 2.135
23.4149 2.812
23.4452 3.333
23.4755 2.708
23.5058 3.229
23.5360 3.073
23.5663 2.240
23.5966 2.865
23.6269 2.344
23.6572 2.708
23.6874 3.021
23.7177 1.406
23.7480 3.281
23.7783 2.448
23.8086 2.187
23.8388 2.604
23.8691 3.177
23.8994 1.875
23.9297 2.969
23.9599 2.969
23.9902 2.604
24.0205 2.552
24.0508 2.708
24.0811 2.292
24.1113 1.771
24.1416 2.917
24.1719 2.344
24.2022 2.344
24.2325 2.917
24.2627 2.917
24.2930 2.760
24.3233 2.760
24.3536 3.021
24.3838 2.708
24.4141 2.500
24.4444 2.240
24.4747 2.917
24.5050 2.656
24.5352 2.812
24.5655 3.177
24.5958 3.437
24.6261 2.812
24.6564 2.500
24.6866 2.135
24.7169 2.656
24.7472 2.344
24.7775 2.031
24.8077 2.552
24.8380 2.917
24.8683 1.927
24.8986 2.448
24.9289 2.760
24.9591 2.812
24.9894 2.917
25.0197 2.396
25.0500 2.344
25.0803 2.656
25.1105 2.187
25.1408 2.031
25.1711 2.865
25.2014 3.073
25.2316 3.646
25.2619 3.021
25.2922 1.927
25.3225 2.969
25.3528 2.292
25.3830 1.875
25.4133 3.021
25.4436 1.927
25.4739 3.333
25.5042 2.917
25.5344 3.646
25.5647 2.344
25.5950 2.865
25.6253 2.344
25.6555 2.552
25.6858 2.187
25.7161 2.865
25.7464 3.333
25.7767 2.760
25.8069 2.292
25.8372 2.500
25.8675 3.490
25.8978 1.927
25.9281 2.865
25.9583 2.344
25.9886 2.708
26.0189 2.448
26.0492 2.448
26.0794 2.240
26.1097 2.448
26.1400 2.760
26.1703 2.344
26.2006 2.187
26.2308 3.177
26.2611 2.396
26.2914 2.865
26.3217 2.708
26.3520 2.969
26.3822 2.396
26.4125 3.333
26.4428 2.240
26.4731 2.552
26.5034 2.396
26.5336 3.125
26.5639 2.656
26.5942 3.073
26.6245 2.656
26.6547 2.812
26.6850 2.344
26.7153 2.135
26.7456 2.812
26.7759 1.875
26.8061 3.177
26.8364 2.604
26.8667 2.708
26.8970 3.021
26.9273 3.281
26.9575 3.177
26.9878 2.552
27.0181 2.552
27.0484 2.969
27.0786 3.385
27.1089 2.760
27.1392 2.500
27.1695 3.021
27.1998 3.125
27.2300 2.448
27.2603 1.927
27.2906 3.229
27.3209 3.490
27.3512 3.021
27.3814 3.437
27.4117 3.125
27.4420 2.760
27.4723 3.906
27.5025 2.656
27.5328 3.542
27.5631 3.437
27.5934 3.281
27.6237 3.229
27.6539 3.177
27.6842 3.021
27.7145 3.385
27.7448 3.333
27.7751 3.125
27.8053 3.125
27.8356 3.385
27.8659 3.542
27.8962 3.333
27.9264 3.333
27.9567 3.333
27.9870 3.333
28.0173 4.115
28.0476 3.177
28.0778 3.542
28.1081 3.021
28.1384 3.646
28.1687 3.281
28.1990 3.281
28.2292 3.021
28.2595 3.437
28.2898 3.385
28.3201 3.073
28.3503 2.917
28.3806 3.281
28.4109 3.021
28.4412 4.844
28.4715 3.646
28.5017 3.594
28.5320 3.958
28.5623 2.708
28.5926 3.906
28.6229 3.594
28.6531 3.125
28.6834 3.333
28.7137 3.646
28.7440 3.594
28.7742 2.969
28.8045 3.750
28.8348 2.865
28.8651 4.167
28.8954 2.240
28.9256 3.437
28.9559 3.021
28.9862 4.271
29.0165 4.010
29.0468 3.542
29.0770 4.219
29.1073 3.333
29.1376 3.958
29.1679 3.958
29.1981 4.115
29.2284 3.802
29.2587 3.698
29.2890 3.750
29.3193 3.646
29.3495 3.750
29.3798 3.750
29.4101 3.802
29.4404 4.531
29.4707 3.750
29.5009 3.854
29.5312 4.115
29.5615 4.167
29.5918 4.271
29.6221 4.427
29.6523 4.167
29.6826 4.115
29.7129 4.531
29.7432 4.479
29.7734 5.052
29.8037 4.010
29.8340 4.323
29.8643 3.906
29.8946 4.635
29.9248 4.844
29.9551 5.156
29.9854 3.906
30.0157 4.062
30.0460 4.792
30.0762 5.000
30.1065 4.271
30.1368 4.948
30.1671 4.167
30.1973 4.948
30.2276 4.635
30.2579 5.000
30.2882 5.156
30.3185 4.896
30.3487 4.844
30.3790 5.937
30.4093 5.937
30.4396 6.146
30.4699 5.052
30.5001 6.771
30.5304 6.354
30.5607 6.198
30.5910 5.000
30.6212 6.823
30.6515 6.094
30.6818 5.885
30.7121 6.667
30.7424 7.344
30.7726 6.875
30.8029 8.646
30.8332 7.656
30.8635 7.552
30.8938 8.698
30.9240 8.906
30.9543 9.740
30.9846 8.906
31.0149 11.042
31.0451 9.792
31.0754 9.375
31.1057 11.875
31.1360 12.031
31.1663 14.948
31.1965 14.010
31.2268 16.979
31.2571 19.010
31.2874 20.104
31.3177 22.760
31.3479 22.969
31.3782 27.396
31.4085 28.490
31.4388 30.521
31.4690 35.781
31.4993 38.437
31.5296 45.521
31.5599 49.844
31.5902 52.656
31.6204 53.646
31.6507 50.573
31.6810 54.844
31.7113 47.708
31.7416 49.010
31.7718 44.427
31.8021 40.312
31.8324 36.615
31.8627 32.135
31.8929 28.698
31.9232 24.062
31.9535 20.365
31.9838 19.375
32.0141 17.969
32.0443 16.667
32.0746 15.156
32.1049 14.479
32.1352 13.542
32.1655 12.760
32.1957 12.344
32.2260 10.833
32.2563 11.771
32.2866 9.167
32.3169 8.542
32.3471 9.219
32.3774 8.594
32.4077 8.281
32.4380 8.437
32.4682 9.323
32.4985 7.604
32.5288 7.083
32.5591 8.854
32.5894 7.448
32.6196 6.406
32.6499 6.927
32.6802 6.510
32.7105 7.552
32.7408 5.365
32.7710 6.771
32.8013 6.458
32.8316 7.344
32.8619 5.833
32.8921 5.885
32.9224 6.510
32.9527 6.042
32.9830 6.250
33.0133 5.052
33.0435 6.667
33.0738 5.990
33.1041 6.667
33.1344 6.979
33.1647 6.562
33.1949 6.615
33.2252 6.667
33.2555 6.406
33.2858 5.833
33.3160 5.781
33.3463 6.667
33.3766 6.458
33.4069 7.240
33.4372 7.135
33.4674 6.771
33.4977 6.927
33.5280 7.083
33.5583 7.865
33.5886 7.031
33.6188 7.083
33.6491 7.917
33.6794 8.229
33.7097 7.760
33.7399 9.062
33.7702 8.698
33.8005 8.958
33.8308 10.625
33.8611 10.156
33.8913 12.083
33.9216 12.812
33.9519 13.542
33.9822 14.323
34.0125 17.083
34.0427 18.333
34.0730 20.104
34.1033 22.031
34.1336 27.604
34.1638 32.187
34.1941 37.865
34.2244 42.604
34.2547 50.000
34.2850 61.042
34.3152 63.281
34.3455 60.208
34.3758 53.698
34.4061 50.937
34.4364 44.792
34.4666 36.771
34.4969 32.240
34.5272 27.240
34.5575 20.885
34.5877 17.448
34.6180 17.344
34.6483 14.583
34.6786 14.219
34.7089 13.177
34.7391 11.719
34.7694 12.344
34.7997 10.729
34.8300 9.792
34.8603 10.573
34.8905 10.208
34.9208 12.187
34.9511 10.104
34.9814 9.062
35.0116 8.854
35.0419 10.208
35.0722 8.594
35.1025 10.573
35.1328 9.427
35.1630 10.625
35.1933 10.729
35.2236 11.042
35.2539 10.677
35.2842 10.521
35.3144 11.458
35.3447 11.979
35.3750 11.458
35.4053 11.354
35.4356 14.271
35.4658 12.917
35.4961 14.531
35.5264 15.312
35.5567 16.146
35.5869 17.292
35.6172 16.823
35.6475 17.344
35.6778 21.510
35.7081 23.177
35.7383 24.792
35.7686 26.406
35.7989 31.719
35.8292 31.510
35.8595 37.865
35.8897 38.698
35.9200 44.219
35.9503 47.969
35.9806 55.833
36.0108 61.615
36.0411 67.604
36.0714 75.469
36.1017 81.094
36.1320 79.583
36.1622 82.552
36.1925 79.792
36.2228 70.469
36.2531 68.437
36.2834 60.312
36.3136 56.354
36.3439 51.771
36.3742 42.604
36.4045 38.073
36.4347 35.573
36.4650 31.979
36.4953 25.937
36.5256 25.417
36.5559 23.177
36.5861 18.854
36.6164 17.760
36.6467 16.823
36.6770 15.729
36.7073 15.312
36.7375 12.448
36.7678 12.708
36.7981 11.875
36.8284 11.198
36.8586 10.573
36.8889 10.521
36.9192 9.635
36.9495 8.906
36.9798 7.865
37.0100 7.500
37.0403 7.760
37.0706 8.125
37.1009 7.187
37.1312 6.250
37.1614 6.615
37.1917 7.187
37.2220 6.042
37.2523 7.031
37.2825 6.458
37.3128 7.083
37.3431 6.510
37.3734 6.302
37.4037 5.000
37.4339 5.000
37.4642 6.458
37.4945 5.469
37.5248 5.729
37.5551 5.156
37.5853 5.156
37.6156 4.583
37.6459 4.948
37.6762 4.896
37.7064 4.427
37.7367 5.260
37.7670 4.427
37.7973 4.062
37.8276 4.948
37.8578 4.635
37.8881 4.635
37.9184 3.750
37.9487 4.167
37.9790 3.594
38.0092 3.854
38.0395 4.115
38.0698 3.750
38.1001 3.854
38.1304 3.958
38.1606 3.698
38.1909 3.906
38.2212 4.167
38.2515 4.010
38.2817 3.490
38.3120 3.177
38.3423 3.594
38.3726 3.854
38.4029 4.010
38.4331 2.708
38.4634 2.708
38.4937 3.542
38.5240 3.437
38.5543 2.969
38.5845 2.812
38.6148 2.812
38.6451 2.917
38.6754 2.812
38.7056 3.281
38.7359 3.021
38.7662 3.750
38.7965 3.073
38.8268 2.969
38.8570 3.073
38.8873 3.073
38.9176 3.854
38.9479 3.177
38.9782 2.708
39.0084 2.812
39.0387 3.385
39.0690 3.385
39.0993 3.177
39.1295 2.552
39.1598 2.344
39.1901 2.760
39.2204 2.656
39.2507 2.708
39.2809 2.812
39.3112 2.240
39.3415 4.167
39.3718 3.229
39.4021 2.917
39.4323 3.073
39.4626 3.073
39.4929 3.073
39.5232 2.604
39.5534 2.865
39.5837 2.240
39.6140 3.177
39.6443 3.281
39.6746 2.187
39.7048 2.604
39.7351 2.760
39.7654 2.240
39.7957 2.396
39.8260 2.552
39.8562 2.552
39.8865 2.240
39.9168 2.656
39.9471 1.979
39.9773 2.135
40.0076 2.708
40.0379 1.615
40.0682 2.760
40.0985 2.500
40.1287 1.979
40.1590 2.552
40.1893 1.875
40.2196 2.604
40.2499 2.865
40.2801 2.917
40.3104 2.812
40.3407 2.500
40.3710 2.552
40.4012 2.240
40.4315 3.021
40.4618 1.875
40.4921 2.292
40.5224 2.552
40.5526 2.552
40.5829 2.344
40.6132 2.083
40.6435 2.969
40.6738 2.240
40.7040 2.708
40.7343 2.031
40.7646 2.135
40.7949 1.875
40.8251 2.708
40.8554 2.135
40.8857 2.812
40.9160 1.823
40.9463 1.927
40.9765 2.396
41.0068 2.396
41.0371 2.448
41.0674 2.240
41.0977 2.083
41.1279 2.344
41.1582 2.865
41.1885 2.187
41.2188 2.292
41.2491 2.187
41.2793 2.344
41.3096 2.083
41.3399 2.917
41.3702 1.927
41.4004 1.667
41.4307 1.562
41.4610 2.292
41.4913 2.135
41.5216 2.656
41.5518 2.240
41.5821 2.083
41.6124 2.656
41.6427 2.604
41.6730 2.552
41.7032 2.083
41.7335 2.187
41.7638 2.656
41.7941 2.292
41.8243 2.187
41.8546 2.604
41.8849 2.344
41.9152 2.500
41.9455 2.656
41.9757 1.719
42.0060 2.187
42.0363 1.615
42.0666 2.031
42.0969 2.240
42.1271 2.187
42.1574 2.708
42.1877 2.656
42.2180 2.135
42.2482 2.396
42.2785 1.667
42.3088 1.823
42.3391 2.187
42.3694 2.448
42.3996 2.760
42.4299 2.292
42.4602 1.510
42.4905 2.917
42.5208 1.979
42.5510 2.031
42.5813 1.510
42.6116 2.344
42.6419 1.510
42.6721 2.969
42.7024 1.719
42.7327 2.083
42.7630 1.927
42.7933 1.667
42.8235 2.292
42.8538 2.240
42.8841 1.406
42.9144 2.240
42.9447 2.083
42.9749 3.177
43.0052 2.135
43.0355 2.240
43.0658 2.865
43.0960 1.979
43.1263 2.500
43.1566 2.135
43.1869 2.500
43.2172 2.344
43.2474 2.656
43.2777 2.396
43.3080 1.979
43.3383 2.396
43.3686 1.927
43.3988 2.031
43.4291 2.344
43.4594 2.240
43.4897 2.552
43.5199 2.083
43.5502 2.448
43.5805 2.656
43.6108 2.240
43.6411 2.031
43.6713 2.760
43.7016 1.979
43.7319 1.823
43.7622 2.083
43.7925 2.240
43.8227 2.292
43.8530 2.500
43.8833 2.344
43.9136 2.344
43.9439 1.927
43.9741 2.500
44.0044 2.448
44.0347 2.240
44.0650 2.135
44.0952 2.083
44.1255 1.823
44.1558 2.187
44.1861 2.240
44.2164 2.552
44.2466 1.927
44.2769 2.448
44.3072 2.344
44.3375 2.396
44.3678 2.031
44.3980 2.344
44.4283 2.135
44.4586 1.979
44.4889 1.979
44.5191 2.708
44.5494 1.667
44.5797 2.656
44.6100 2.708
44.6403 2.292
44.6705 2.396
44.7008 2.083
44.7311 2.344
44.7614 2.760
44.7917 1.875
44.8219 2.344
44.8522 2.812
44.8825 1.667
44.9128 2.552
44.9430 2.448
44.9733 2.865
45.0036 2.812
45.0339 2.344
45.0642 2.344
45.0944 2.604
45.1247 2.500
45.1550 2.344
45.1853 2.604
45.2156 2.917
45.2458 2.240
45.2761 2.344
45.3064 2.448
45.3367 2.604
45.3669 2.760
45.3972 2.604
45.4275 2.448
45.4578 2.500
45.4881 1.979
45.5183 2.083
45.5486 2.812
45.5789 2.969
45.6092 2.344
45.6395 2.708
45.6697 2.083
45.7000 2.656
45.7303 2.448
45.7606 2.656
45.7908 2.500
45.8211 3.229
45.8514 3.177
45.8817 2.396
45.9120 3.021
45.9422 2.969
45.9725 2.656
46.0028 3.437
46.0331 2.344
46.0634 3.229
46.0936 3.177
46.1239 2.865
46.1542 3.021
46.1845 3.125
46.2147 2.917
46.2450 2.760
46.2753 3.021
46.3056 3.281
46.3359 3.229
46.3661 2.812
46.3964 3.594
46.4267 3.021
46.4570 3.125
46.4873 3.594
46.5175 3.021
46.5478 3.542
46.5781 3.125
46.6084 2.708
46.6386 3.594
46.6689 3.281
46.6992 4.375
46.7295 4.948
46.7598 4.115
46.7900 4.635
46.8203 4.896
46.8506 4.844
46.8809 5.000
46.9112 5.885
46.9414 5.156
46.9717 5.469
47.0020 6.510
47.0323 6.615
47.0626 6.562
47.0928 7.396
47.1231 9.167
47.1534 8.542
47.1837 9.010
47.2139 11.354
47.2442 11.562
47.2745 13.073
47.3048 15.052
47.3351 16.250
47.3653 16.146
47.3956 16.875
47.4259 18.281
47.4562 17.031
47.4865 16.354
47.5167 17.083
47.5470 14.687
47.5773 14.792
47.6076 13.125
47.6378 12.760
47.6681 12.865
47.6984 9.583
47.7287 9.323
47.7590 8.125
47.7892 7.448
47.8195 6.927
47.8498 7.083
47.8801 6.198
47.9104 5.573
47.9406 5.677
47.9709 5.156
48.0012 4.375
48.0315 4.844
48.0617 5.000
48.0920 4.323
48.1223 4.323
48.1526 4.271
48.1829 4.219
48.2131 4.219
48.2434 3.385
48.2737 2.865
48.3040 3.177
48.3343 2.865
48.3645 3.437
48.3948 3.906
48.4251 2.396
48.4554 2.865
48.4856 2.396
48.5159 3.229
48.5462 2.656
48.5765 3.437
48.6068 2.865
48.6370 2.083
48.6673 3.229
48.6976 2.865
48.7279 2.708
48.7582 2.604
48.7884 2.083
48.8187 2.135
48.8490 2.812
48.8793 2.240
48.9095 2.552
48.9398 3.073
48.9701 2.448
49.0004 2.448
49.0307 2.656
49.0609 2.240
49.0912 2.865
49.1215 2.500
49.1518 1.667
49.1821 2.448
49.2123 2.187
49.2426 2.083
49.2729 2.656
49.3032 2.500
49.3334 1.927
49.3637 2.917
49.3940 2.604
49.4243 2.187
49.4546 2.187
49.4848 1.510
49.5151 2.187
49.5454 2.187
49.5757 2.656
49.6060 2.031
49.6362 2.135
49.6665 1.823
49.6968 1.615
49.7271 2.396
49.7574 1.719
49.7876 2.604
49.8179 2.292
49.8482 1.875
49.8785 2.344
49.9087 2.396
49.9390 2.135
49.9693 2.344
49.9996 1.875
50.0299 2.240
50.0601 2.187
50.0904 1.823
50.1207 1.719
50.1510 2.604
50.1813 1.875
50.2115 2.708
50.2418 1.458
50.2721 1.719
50.3024 2.135
50.3326 2.083
50.3629 1.927
50.3932 2.448
50.4235 1.927
50.4538 2.083
50.4840 2.656
50.5143 1.875
50.5446 1.875
50.5749 2.083
50.6052 1.771
50.6354 1.979
50.6657 2.344
50.6960 1.771
50.7263 1.927
50.7565 2.865
50.7868 2.187
50.8171 1.823
50.8474 2.969
50.8777 2.708
50.9079 2.604
50.9382 2.135
50.9685 2.812
50.9988 2.292
51.0291 2.083
51.0593 2.604
51.0896 2.344
51.1199 2.135
51.1502 1.875
51.1804 2.031
51.2107 1.771
51.2410 1.771
51.2713 2.083
51.3016 1.615
51.3318 1.667
51.3621 2.396
51.3924 2.292
51.4227 2.135
51.4530 2.292
51.4832 1.979
51.5135 1.927
51.5438 1.354
51.5741 2.083
51.6043 1.823
51.6346 2.187
51.6649 2.031
51.6952 1.979
51.7255 2.292
51.7557 2.448
51.7860 2.552
51.8163 2.292
51.8466 2.448
51.8769 2.552
51.9071 2.135
51.9374 2.292
51.9677 1.719
51.9980 1.823
52.0282 1.979
52.0585 2.187
52.0888 2.083
52.1191 2.292
52.1494 2.604
52.1796 1.042
52.2099 1.875
52.2402 1.979
52.2705 2.031
52.3008 1.927
52.3310 1.719
52.3613 2.031
52.3916 2.083
52.4219 2.344
52.4521 1.771
52.4824 2.656
52.5127 2.187
52.5430 1.823
52.5733 1.823
52.6035 2.396
52.6338 1.510
52.6641 1.875
52.6944 2.604
52.7247 2.083
52.7549 1.458
52.7852 1.875
52.8155 2.135
52.8458 2.344
52.8761 1.458
52.9063 1.875
52.9366 1.823
52.9669 2.292
52.9972 2.240
53.0274 1.823
53.0577 1.823
53.0880 1.979
53.1183 1.458
53.1486 1.927
53.1788 2.448
53.2091 2.656
53.2394 1.510
53.2697 3.021
53.3000 2.135
53.3302 2.448
53.3605 2.500
53.3908 1.875
53.4211 2.552
53.4513 2.031
53.4816 2.292
53.5119 2.292
53.5422 2.083
53.5725 2.448
53.6027 1.719
53.6330 2.240
53.6633 1.875
53.6936 2.760
53.7239 2.292
53.7541 3.125
53.7844 2.031
53.8147 2.292
53.8450 2.448
53.8752 2.917
53.9055 1.667
53.9358 2.708
53.9661 2.031
53.9964 2.344
54.0266 3.229
54.0569 2.604
54.0872 1.458
54.1175 3.125
54.1478 1.771
54.1780 3.021
54.2083 2.552
54.2386 2.656
54.2689 2.292
54.2991 1.875
54.3294 2.552
54.3597 3.021
54.3900 2.135
54.4203 2.448
54.4505 2.917
54.4808 2.396
54.5111 3.073
54.5414 2.812
54.5717 2.604
54.6019 3.125
54.6322 2.865
54.6625 1.771
54.6928 2.396
54.7230 2.865
54.7533 2.760
54.7836 2.656
54.8139 3.177
54.8442 3.958
54.8744 3.073
54.9047 2.292
54.9350 3.073
54.9653 3.385
54.9956 3.073
55.0258 2.865
55.0561 3.177
55.0864 1.875
55.1167 2.448
55.1469 4.010
55.1772 2.187
55.2075 2.760
55.2378 2.969
55.2681 4.219
55.2983 3.490
55.3286 3.437
55.3589 4.375
55.3892 3.906
55.4195 3.854
55.4497 3.802
55.4800 3.177
55.5103 3.646
55.5406 3.646
55.5709 4.479
55.6011 4.531
55.6314 4.479
55.6617 3.958
55.6920 4.375
55.7222 4.062
55.7525 5.365
55.7828 5.937
55.8131 5.260
55.8434 4.896
55.8736 5.625
55.9039 5.365
55.9342 6.875
55.9645 6.458
55.9948 5.990
56.0250 7.760
56.0553 8.229
56.0856 8.854
56.1159 10.000
56.1461 10.052
56.1764 11.458
56.2067 10.885
56.2370 13.906
56.2673 13.646
56.2975 15.208
56.3278 15.573
56.3581 18.542
56.3884 18.750
56.4187 21.250
56.4489 20.469
56.4792 20.677
56.5095 22.292
56.5398 20.937
56.5700 19.792
56.6003 17.552
56.6306 18.385
56.6609 16.979
56.6912 16.823
56.7214 13.385
56.7517 12.969
56.7820 13.437
56.8123 12.292
56.8426 9.635
56.8728 8.854
56.9031 7.969
56.9334 8.229
56.9637 7.187
56.9939 6.719
57.0242 7.187
57.0545 7.552
57.0848 6.250
57.1151 4.844
57.1453 4.687
57.1756 4.583
57.2059 5.052
57.2362 4.219
57.2665 4.896
57.2967 5.052
57.3270 4.115
57.3573 4.219
57.3876 4.219
57.4178 3.490
57.4481 3.698
57.4784 4.115
57.5087 3.906
57.5390 3.177
57.5692 3.490
57.5995 2.500
57.6298 3.229
57.6601 3.073
57.6904 3.021
57.7206 3.385
57.7509 2.865
57.7812 3.021
57.8115 2.865
57.8417 4.167
57.8720 2.865
57.9023 2.865
57.9326 2.812
57.9629 2.708
57.9931 2.396
58.0234 2.656
58.0537 3.437
58.0840 2.865
58.1143 2.656
58.1445 2.500
58.1748 2.969
58.2051 2.656
58.2354 2.187
58.2656 2.865
58.2959 2.552
58.3262 2.604
58.3565 2.865
58.3868 2.760
58.4170 2.448
58.4473 2.396
58.4776 2.344
58.5079 2.812
58.5382 2.708
58.5684 2.448
58.5987 2.500
58.6290 2.500
58.6593 2.344
58.6896 2.500
58.7198 2.344
58.7501 2.396
58.7804 2.344
58.8107 2.760
58.8409 2.292
58.8712 2.344
58.9015 2.760
58.9318 2.552
58.9621 1.927
58.9923 2.708
59.0226 2.187
59.0529 2.656
59.0832 2.187
59.1135 2.396
59.1437 2.812
59.1740 2.760
59.2043 2.135
59.2346 2.240
59.2648 2.135
59.2951 2.187
59.3254 2.135
59.3557 1.615
59.3860 2.500
59.4162 2.760
59.4465 2.344
59.4768 2.187
59.5071 1.875
59.5374 2.708
59.5676 2.500
59.5979 2.448
59.6282 2.083
59.6585 3.385
59.6887 2.292
59.7190 2.656
59.7493 2.396
59.7796 2.760
59.8099 2.344
59.8401 1.979
59.8704 1.719
59.9007 2.656
59.9310 2.135
59.9613 2.917
59.9915 2.500
60.0218 2.240
60.0521 2.135
60.0824 2.500
60.1126 2.448
60.1429 1.823
60.1732 2.240
60.2035 2.552
60.2338 2.812
60.2640 1.979
60.2943 2.604
60.3246 2.656
60.3549 2.708
60.3852 3.021
60.4154 2.917
60.4457 2.187
60.4760 2.552
60.5063 3.125
60.5365 3.073
60.5668 2.552
60.5971 1.875
60.6274 2.292
60.6577 2.656
60.6879 2.865
60.7182 2.083
60.7485 2.552
60.7788 2.500
60.8091 3.073
60.8393 2.396
60.8696 2.656
60.8999 2.969
60.9302 2.656
60.9604 2.656
60.9907 2.552
61.0210 2.604
61.0513 2.865
61.0816 3.229
61.1118 2.031
61.1421 2.760
61.1724 2.656
61.2027 2.344
61.2330 2.552
61.2632 2.865
61.2935 2.917
61.3238 3.802
61.3541 2.760
61.3844 2.760
61.4146 3.437
61.4449 3.073
61.4752 2.604
61.5055 2.865
61.5357 2.969
61.5660 4.167
61.5963 2.917
61.6266 2.708
61.6569 3.177
61.6871 3.750
61.7174 2.604
61.7477 3.229
61.7780 3.229
61.8083 3.906
61.8385 3.750
61.8688 3.177
61.8991 4.010
61.9294 4.115
61.9596 4.375
61.9899 4.167
62.0202 4.948
62.0505 4.948
62.0808 5.521
62.1110 5.365
62.1413 4.427
62.1716 5.312
62.2019 5.937
62.2322 5.521
62.2624 4.896
62.2927 5.781
62.3230 7.812
62.3533 7.760
62.3835 7.656
62.4138 9.167
62.4441 8.854
62.4744 10.781
62.5047 10.937
62.5349 11.042
62.5652 13.490
62.5955 13.698
62.6258 14.479
62.6561 16.146
62.6863 17.083
62.7166 17.552
62.7469 18.542
62.7772 18.750
62.8074 17.396
62.8377 17.969
62.8680 18.073
62.8983 16.458
62.9286 15.417
62.9588 14.687
62.9891 14.635
63.0194 12.760
63.0497 10.156
63.0800 9.531
63.1102 9.792
63.1405 8.646
63.1708 8.229
63.2011 8.750
63.2313 6.615
63.2616 6.510
63.2919 6.510
63.3222 5.781
63.3525 5.521
63.3827 5.365
63.4130 5.365
63.4433 4.479
63.4736 4.896
63.5039 4.219
63.5341 3.490
63.5644 4.062
63.5947 4.115
63.6250 3.958
63.6552 3.646
63.6855 3.437
63.7158 3.646
63.7461 3.490
63.7764 3.646
63.8066 3.073
63.8369 3.229
63.8672 3.646
63.8975 2.760
63.9278 2.760
63.9580 2.917
63.9883 2.187
64.0186 3.021
64.0489 2.760
64.0791 2.812
64.1094 3.594
64.1397 2.344
64.1700 2.760
64.2003 2.656
64.2305 3.542
64.2608 3.073
64.2911 2.552
64.3214 2.240
64.3517 2.552
64.3819 2.917
64.4122 3.125
64.4425 3.229
64.4728 2.448
64.5031 3.021
64.5333 2.917
64.5636 2.344
64.5939 2.812
64.6242 2.292
64.6544 2.552
64.6847 3.021
64.7150 2.552
64.7453 2.708
64.7756 2.917
64.8058 1.979
64.8361 2.656
64.8664 2.656
64.8967 3.021
64.9270 2.187
64.9572 2.031
64.9875 2.865
65.0178 2.552
65.0481 2.812
65.0783 1.927
65.1086 2.708
65.1389 2.500
65.1692 2.865
65.1995 1.979
65.2297 3.021
65.2600 2.708
65.2903 2.604
65.3206 2.917
65.3509 2.865
65.3811 3.229
65.4114 2.969
65.4417 3.437
65.4720 2.865
65.5022 2.865
65.5325 2.969
65.5628 2.917
65.5931 2.969
65.6234 2.708
65.6536 2.604
65.6839 3.281
65.7142 2.865
65.7445 2.500
65.7748 2.604
65.8050 2.604
65.8353 2.500
65.8656 3.646
65.8959 3.281
65.9261 3.125
65.9564 2.969
65.9867 3.490
66.0170 3.802
66.0473 4.792
66.0775 5.052
66.1078 3.646
66.1381 4.167
66.1684 3.906
66.1987 4.583
66.2289 4.375
66.2592 4.219
66.2895 4.948
66.3198 5.417
66.3500 4.062
66.3803 4.271
66.4106 4.844
66.4409 4.167
66.4712 4.635
66.5014 4.323
66.5317 4.323
66.5620 3.646
66.5923 4.687
66.6226 4.010
66.6528 4.062
66.6831 3.958
66.7134 4.427
66.7437 3.698
66.7739 3.802
66.8042 3.854
66.8345 4.010
66.8648 3.698
66.8951 4.010
66.9253 3.958
66.9556 4.531
66.9859 4.792
67.0162 4.687
67.0465 3.802
67.0767 3.906
67.1070 3.698
67.1373 3.750
67.1676 4.219
67.1978 4.219
67.2281 4.792
67.2584 4.687
67.2887 5.573
67.3190 5.677
67.3492 5.365
67.3795 5.833
67.4098 5.677
67.4401 7.344
67.4704 7.396
67.5006 7.552
67.5309 8.229
67.5612 9.375
67.5915 8.906
67.6218 9.792
67.6520 10.781
67.6823 12.031
67.7126 10.885
67.7429 13.437
67.7731 12.708
67.8034 13.542
67.8337 15.312
67.8640 14.010
67.8943 14.479
67.9245 14.167
67.9548 13.802
67.9851 12.708
68.0154 13.021
68.0457 12.083
68.0759 10.573
68.1062 11.094
68.1365 9.219
68.1668 10.156
68.1970 8.958
68.2273 9.844
68.2576 7.083
68.2879 7.083
68.3182 6.615
68.3484 6.719
68.3787 6.250
68.4090 7.083
68.4393 6.719
68.4696 6.927
68.4998 5.990
68.5301 6.458
68.5604 5.260
68.5907 6.875
68.6209 6.094
68.6512 7.604
68.6815 6.979
68.7118 5.469
68.7421 8.281
68.7723 6.719
68.8026 7.760
68.8329 7.240
68.8632 7.552
68.8935 7.812
68.9237 9.062
68.9540 9.115
68.9843 8.073
69.0146 7.917
69.0448 8.073
69.0751 8.125
69.1054 7.344
69.1357 7.500
69.1660 6.354
69.1962 7.240
69.2265 7.240
69.2568 6.250
69.2871 6.094
69.3174 5.937
69.3476 4.740
69.3779 5.677
69.4082 4.427
69.4385 4.844
69.4687 4.115
69.4990 4.844
69.5293 4.583
69.5596 3.802
69.5899 3.958
69.6201 3.490
69.6504 2.969
69.6807 2.812
69.7110 2.760
69.7413 3.906
69.7715 2.604
69.8018 2.812
69.8321 2.708
69.8624 2.865
69.8926 2.344
69.9229 3.750
69.9532 2.292
69.9835 2.031
70.0138 2.292
70.0440 2.604
70.0743 2.448
70.1046 2.865
70.1349 1.927
70.1652 2.187
70.1954 2.344
70.2257 2.448
70.2560 1.875
70.2863 2.500
70.3166 1.562
70.3468 2.135
70.3771 2.812
70.4074 2.240
70.4377 2.917
70.4679 1.875
70.4982 2.083
70.5285 2.187
70.5588 1.875
70.5891 2.396
70.6193 1.875
70.6496 2.656
70.6799 2.240
70.7102 1.927
70.7405 2.240
70.7707 1.562
70.8010 2.344
70.8313 2.604
70.8616 1.719
70.8918 2.240
70.9221 2.604
70.9524 1.771
70.9827 1.875
71.0130 2.292
71.0432 2.240
71.0735 1.667
71.1038 2.240
71.1341 1.875
71.1644 2.344
71.1946 1.979
71.2249 2.031
71.2552 1.771
71.2855 1.771
71.3157 2.240
71.3460 1.875
71.3763 1.719
71.4066 2.240
71.4369 2.031
71.4671 1.354
71.4974 1.979
71.5277 2.240
71.5580 1.771
71.5883 2.135
71.6185 1.510
71.6488 1.562
71.6791 1.510
71.7094 1.979
71.7396 2.448
71.7699 1.667
71.8002 1.875
71.8305 2.083
71.8608 2.448
71.8910 1.667
71.9213 2.135
71.9516 2.135
71.9819 2.448
72.0122 1.771
72.0424 1.719
72.0727 1.771
72.1030 1.927
72.1333 1.979
72.1635 2.240
72.1938 2.604
72.2241 2.865
72.2544 2.187
72.2847 2.240
72.3149 2.292
72.3452 2.708
72.3755 2.760
72.4058 2.031
72.4361 3.229
72.4663 2.917
72.4966 2.396
72.5269 2.865
72.5572 2.969
72.5874 3.073
72.6177 3.021
72.6480 2.396
72.6783 2.969
72.7086 2.917
72.7388 2.604
72.7691 2.344
72.7994 2.812
72.8297 2.500
72.8600 2.240
72.8902 1.406
72.9205 2.083
72.9508 2.135
72.9811 1.979
73.0113 1.875
73.0416 2.031
73.0719 1.667
73.1022 1.875
73.1325 1.458
73.1627 1.927
73.1930 1.979
73.2233 2.240
73.2536 1.875
73.2839 1.302
73.3141 1.615
73.3444 1.927
73.3747 0.990
73.4050 1.771
73.4353 1.771
73.4655 1.667
73.4958 1.458
73.5261 1.719
73.5564 1.250
73.5866 1.719
73.6169 1.510
73.6472 1.979
73.6775 1.615
73.7078 1.458
73.7380 1.302
73.7683 2.500
73.7986 1.562
73.8289 1.927
73.8592 1.719
73.8894 1.354
73.9197 1.562
73.9500 1.510
73.9803 1.823
74.0105 1.406
74.0408 1.198
74.0711 1.875
74.1014 1.458
74.1317 1.510
74.1619 1.667
74.1922 2.083
74.2225 2.031
74.2528 2.031
74.2831 1.667
74.3133 1.667
74.3436 1.406
74.3739 1.458
74.4042 2.604
74.4344 1.719
74.4647 1.875
74.4950 1.823
74.5253 1.927
74.5556 2.135
74.5858 1.875
74.6161 1.771
74.6464 1.823
74.6767 1.823
74.7070 1.510
74.7372 2.240
74.7675 1.719
74.7978 1.562
74.8281 1.667
74.8583 1.719
74.8886 1.562
74.9189 1.198
74.9492 1.875
74.9795 1.979
75.0097 1.927
75.0400 1.875
75.0703 1.510
75.1006 1.198
75.1309 1.562
75.1611 1.771
75.1914 2.240
75.2217 1.458
75.2520 1.875
75.2822 2.240
75.3125 1.719
75.3428 1.250
75.3731 1.667
75.4034 1.302
75.4336 0.885
75.4639 1.771
75.4942 1.667
75.5245 1.771
75.5548 1.667
75.5850 1.615
75.6153 2.031
75.6456 1.250
75.6759 1.354
75.7061 2.344
75.7364 1.250
75.7667 1.198
75.7970 1.510
75.8273 1.510
75.8575 1.823
75.8878 1.458
75.9181 1.979
75.9484 1.458
75.9787 1.302
76.0089 1.250
76.0392 1.771
76.0695 1.615
76.0998 1.615
76.1301 1.823
76.1603 1.979
76.1906 2.083
76.2209 1.354
76.2512 1.250
76.2814 2.240
76.3117 1.875
76.3420 1.875
76.3723 1.667
76.4026 2.240
76.4328 2.135
76.4631 1.875
76.4934 1.458
76.5237 2.187
76.5540 2.292
76.5842 2.500
76.6145 2.292
76.6448 2.292
76.6751 2.552
76.7053 2.865
76.7356 2.708
76.7659 2.708
76.7962 3.385
76.8265 2.292
76.8567 2.812
76.8870 2.760
76.9173 2.656
76.9476 2.760
76.9779 4.115
77.0081 2.708
77.0384 2.760
77.0687 2.604
77.0990 2.344
77.1292 2.552
77.1595 2.708
77.1898 2.656
77.2201 2.240
77.2504 2.344
77.2806 2.292
77.3109 1.875
77.3412 2.135
77.3715 1.719
77.4018 2.500
77.4320 2.187
77.4623 2.135
77.4926 2.031
77.5229 1.719
77.5531 1.667
77.5834 2.135
77.6137 1.719
77.6440 1.615
77.6743 1.719
77.7045 1.458
77.7348 1.406
77.7651 1.667
77.7954 1.719
77.8257 1.667
77.8559 1.823
77.8862 1.354
77.9165 1.719
77.9468 1.823
77.9770 1.354
78.0073 1.615
78.0376 1.302
78.0679 1.615
78.0982 1.667
78.1284 1.771
78.1587 1.667
78.1890 1.667
78.2193 1.302
78.2496 1.823
78.2798 1.719
78.3101 1.615
78.3404 1.198
78.3707 1.979
78.4009 1.562
78.4312 1.719
78.4615 2.031
78.4918 1.510
78.5221 1.562
78.5523 1.406
78.5826 1.302
78.6129 2.135
78.6432 1.146
78.6735 1.927
78.7037 1.302
78.7340 1.667
78.7643 1.250
78.7946 1.615
78.8248 1.146
78.8551 1.458
78.8854 1.823
78.9157 1.927
78.9460 1.771
78.9762 1.771
79.0065 2.135
79.0368 1.510
79.0671 1.719
79.0974 2.083
79.1276 1.302
79.1579 1.667
79.1882 1.458
79.2185 1.927
79.2488 1.667
79.2790 1.458
79.3093 1.250
79.3396 1.406
79.3699 0.990
79.4001 1.771
79.4304 1.510
79.4607 1.042
79.4910 0.885
79.5213 1.406
79.5515 0.781
79.5818 1.458
79.6121 1.562
79.6424 1.667
79.6727 1.979
79.7029 1.146
79.7332 1.406
79.7635 1.771
79.7938 1.406
79.8240 1.510
79.8543 1.719
79.8846 1.198
79.9149 1.458
79.9452 2.135
79.9754 1.719
80.0057 1.198
80.0360 2.031
80.0663 1.250
80.0966 1.927
80.1268 1.979
80.1571 1.771
80.1874 1.042
80.2177 1.510
80.2479 1.562
80.2782 1.719
80.3085 1.198
80.3388 1.250
80.3691 1.667
80.3993 1.562
80.4296 1.667
80.4599 1.250
80.4902 1.927
80.5205 1.406
80.5507 1.667
80.5810 1.458
80.6113 1.979
80.6416 1.510
80.6718 1.198
80.7021 1.250
80.7324 2.083
80.7627 1.094
80.7930 1.667
80.8232 2.448
80.8535 1.927
80.8838 2.083
80.9141 2.135
80.9444 2.135
80.9746 1.823
81.0049 1.979
81.0352 1.979
81.0655 1.979
81.0957 1.979
81.1260 2.187
81.1563 2.031
81.1866 2.135
81.2169 1.823
81.2471 1.667
81.2774 1.562
81.3077 2.240
81.3380 2.083
81.3683 1.771
81.3985 2.500
81.4288 2.187
81.4591 1.823
81.4894 2.500
81.5196 2.604
81.5499 1.979
81.5802 2.083
81.6105 1.875
81.6408 1.875
81.6710 1.979
81.7013 1.667
81.7316 2.083
81.7619 1.667
81.7922 1.667
81.8224 1.615
81.8527 1.771
81.8830 1.510
81.9133 1.615
81.9436 1.406
81.9738 1.510
82.0041 2.344
82.0344 1.458
82.0647 1.615
82.0949 1.719
82.1252 1.719
82.1555 1.146
82.1858 1.250
82.2161 2.031
82.2463 1.771
82.2766 1.719
82.3069 1.927
82.3372 1.406
82.3675 1.667
82.3977 1.354
82.4280 1.354
82.4583 1.250
82.4886 1.458
82.5188 1.250
82.5491 2.083
82.5794 1.458
82.6097 1.354
82.6400 1.562
82.6702 1.302
82.7005 1.094
82.7308 1.354
82.7611 1.927
82.7914 1.302
82.8216 1.562
82.8519 1.458
82.8822 1.510
82.9125 1.562
82.9427 1.667
82.9730 1.927
83.0033 1.823
83.0336 1.562
83.0639 1.667
83.0941 1.719
83.1244 1.615
83.1547 1.510
83.1850 1.250
83.2153 1.354
83.2455 1.406
83.2758 1.667
83.3061 1.510
83.3364 1.667
83.3666 1.198
83.3969 1.094
83.4272 1.667
83.4575 1.302
83.4878 1.302
83.5180 1.302
83.5483 1.667
83.5786 1.510
83.6089 1.771
83.6392 1.615
83.6694 2.240
83.6997 1.198
83.7300 1.615
83.7603 1.198
83.7905 1.771
83.8208 1.094
83.8511 2.031
83.8814 1.198
83.9117 1.823
83.9419 1.667
83.9722 1.771
84.0025 1.771
84.0328 0.937
84.0631 1.615
84.0933 1.979
84.1236 1.250
84.1539 1.198
84.1842 1.510
84.2144 1.823
84.2447 1.510
84.2750 1.250
84.3053 1.354
84.3356 1.250
84.3658 1.667
84.3961 1.667
84.4264 1.198
84.4567 1.875
84.4870 1.406
84.5172 1.458
84.5475 1.094
84.5778 1.250
84.6081 1.823
84.6383 1.302
84.6686 1.562
84.6989 1.458
84.7292 1.146
84.7595 1.927
84.7897 1.875
84.8200 1.562
84.8503 1.198
84.8806 0.885
84.9109 1.458
84.9411 1.562
84.9714 1.406
85.0017 1.667
85.0320 1.406
85.0623 1.458
85.0925 1.302
85.1228 1.510
85.1531 1.406
85.1834 1.406
85.2136 1.458
85.2439 1.823
85.2742 2.031
85.3045 1.458
85.3348 1.562
85.3650 1.302
85.3953 1.771
85.4256 1.615
85.4559 1.667
85.4862 1.302
85.5164 1.406
85.5467 1.771
85.5770 1.198
85.6073 1.302
85.6375 1.354
85.6678 1.719
85.6981 1.979
85.7284 0.990
85.7587 1.615
85.7889 1.667
85.8192 2.031
85.8495 1.562
85.8798 1.198
85.9101 1.146
85.9403 1.302
85.9706 1.615
86.0009 1.771
86.0312 1.510
86.0614 1.979
86.0917 1.406
86.1220 1.198
86.1523 1.927
86.1826 1.510
86.2128 1.198
86.2431 1.771
86.2734 1.458
86.3037 1.719
86.3340 1.458
86.3642 1.198
86.3945 1.406
86.4248 1.615
86.4551 1.510
86.4853 1.250
86.5156 1.406
86.5459 1.198
86.5762 1.354
86.6065 1.927
86.6367 1.354
86.6670 1.250
86.6973 1.927
86.7276 1.615
86.7579 1.198
86.7881 1.927
86.8184 1.615
86.8487 1.823
86.8790 1.615
86.9092 2.187
86.9395 1.615
86.9698 2.135
87.0001 1.510
87.0304 1.615
87.0606 1.198
87.0909 1.406
87.1212 1.615
87.1515 1.615
87.1818 1.510
87.2120 1.719
87.2423 1.667
87.2726 1.510
87.3029 0.990
87.3331 1.667
87.3634 1.615
87.3937 1.615
87.4240 1.667
87.4543 1.198
87.4845 2.240
87.5148 1.719
87.5451 1.927
87.5754 1.823
87.6057 1.875
87.6359 1.667
87.6662 1.771
87.6965 1.667
87.7268 1.927
87.7571 1.667
87.7873 1.875
87.8176 1.198
87.8479 1.354
87.8782 1.406
87.9084 1.771
87.9387 1.615
87.9690 1.875
87.9993 1.927
88.0296 1.458
88.0598 1.458
88.0901 1.719
88.1204 1.198
88.1507 1.615
88.1810 1.719
88.2112 1.354
88.2415 2.135
88.2718 1.562
88.3021 2.031
88.3323 1.927
88.3626 2.083
88.3929 1.667
88.4232 2.135
88.4535 1.667
88.4837 1.302
88.5140 1.615
88.5443 2.135
88.5746 1.979
88.6049 1.615
88.6351 1.927
88.6654 2.344
88.6957 2.135
88.7260 2.604
88.7562 1.979
88.7865 2.344
88.8168 1.875
88.8471 2.240
88.8774 2.396
88.9076 2.552
88.9379 2.917
88.9682 2.396
88.9985 2.240
89.0288 2.552
89.0590 2.396
89.0893 2.917
89.1196 2.760
89.1499 3.333
89.1801 2.917
89.2104 3.646
89.2407 3.333
89.2710 3.542
89.3013 2.865
89.3315 4.479
89.3618 3.073
89.3921 3.958
89.4224 3.490
89.4527 5.052
89.4829 4.323
89.5132 3.802
89.5435 3.854
89.5738 3.698
89.6040 3.385
89.6343 4.740
89.6646 4.219
89.6949 3.437
89.7252 3.229
89.7554 3.906
89.7857 3.802
89.8160 3.437
89.8463 3.646
89.8766 3.229
89.9068 3.177
89.9371 3.229
89.9674 2.865
89.9977 3.125
90.0279 2.865
90.0582 3.073
90.0885 2.604
90.1188 2.604
90.1491 2.344
90.1793 2.760
90.2096 2.708
90.2399 2.448
90.2702 2.135
90.3005 2.187
90.3307 2.760
90.3610 2.656
90.3913 2.135
90.4216 2.240
90.4518 2.292
90.4821 1.823
90.5124 2.083
90.5427 2.031
90.5730 1.927
90.6032 2.396
90.6335 1.719
90.6638 1.771
90.6941 1.719
90.7244 1.562
90.7546 2.187
90.7849 2.031
90.8152 1.771
90.8455 1.667
90.8758 1.615
90.9060 1.771
90.9363 2.083
90.9666 1.354
90.9969 2.292
91.0271 2.135
91.0574 1.667
91.0877 1.719
91.1180 1.667
91.1483 2.083
91.1785 1.771
91.2088 2.187
91.2391 2.083
91.2694 1.562
91.2997 1.406
91.3299 1.719
91.3602 0.729
91.3905 1.719
91.4208 2.031
91.4510 1.719
91.4813 1.771
91.5116 1.667
91.5419 1.615
91.5722 1.823
91.6024 2.083
91.6327 1.562
91.6630 1.823
91.6933 1.875
91.7236 1.667
91.7538 1.667
91.7841 1.458
91.8144 1.979
91.8447 1.719
91.8749 2.083
91.9052 1.771
91.9355 2.240
91.9658 1.667
91.9961 1.458
92.0263 1.510
92.0566 1.667
92.0869 1.823
92.1172 2.135
92.1475 2.500
92.1777 1.771
92.2080 2.083
92.2383 2.396
92.2686 1.979
92.2988 1.510
92.3291 2.292
92.3594 2.448
92.3897 2.187
92.4200 1.719
92.4502 2.656
92.4805 1.927
92.5108 1.771
92.5411 2.656
92.5714 2.656
92.6016 1.927
92.6319 2.031
92.6622 3.281
92.6925 2.448
92.7227 2.135
92.7530 2.396
92.7833 2.187
92.8136 2.917
92.8439 2.865
92.8741 2.396
92.9044 2.656
92.9347 2.292
92.9650 2.292
92.9953 2.135
93.0255 2.448
93.0558 2.031
93.0861 1.927
93.1164 2.344
93.1466 1.875
93.1769 2.760
93.2072 2.240
93.2375 2.552
93.2678 2.187
93.2980 2.187
93.3283 2.187
93.3586 2.344
93.3889 2.135
93.4192 2.500
93.4494 2.396
93.4797 1.667
93.5100 2.083
93.5403 2.031
93.5706 1.771
93.6008 1.927
93.6311 1.562
93.6614 2.031
93.6917 1.562
93.7219 2.448
93.7522 1.719
93.7825 2.292
93.8128 2.292
93.8431 2.187
93.8733 1.979
93.9036 2.396
93.9339 1.719
93.9642 2.187
93.9945 2.500
94.0247 1.823
94.0550 1.094
94.0853 2.240
94.1156 1.979
94.1458 1.823
94.1761 1.719
94.2064 1.979
94.2367 2.031
94.2670 2.344
94.2972 2.552
94.3275 1.354
94.3578 2.344
94.3881 2.083
94.4184 1.823
94.4486 2.604
94.4789 1.927
94.5092 1.979
94.5395 2.083
94.5697 2.344
94.6000 2.396
94.6303 2.604
94.6606 2.292
94.6909 2.292
94.7211 3.229
94.7514 2.448
94.7817 2.344
94.8120 3.646
94.8423 2.500
94.8725 3.229
94.9028 2.812
94.9331 3.958
94.9634 3.750
94.9936 3.073
95.0239 3.385
95.0542 2.969
95.0845 3.646
95.1148 3.802
95.1450 4.271
95.1753 4.115
95.2056 3.437
95.2359 4.479
95.2662 4.062
95.2964 3.125
95.3267 3.594
95.3570 3.229
95.3873 3.698
95.4175 3.802
95.4478 3.177
95.4781 3.542
95.5084 3.698
95.5387 3.542
95.5689 3.073
95.5992 3.125
95.6295 3.646
95.6598 3.177
95.6901 3.698
95.7203 3.437
95.7506 3.073
95.7809 2.708
95.8112 2.865
95.8414 2.500
95.8717 2.187
95.9020 1.823
95.9323 2.865
95.9626 2.292
95.9928 2.135
96.0231 2.135
96.0534 2.448
96.0837 1.771
96.1140 1.771
96.1442 1.927
96.1745 1.875
96.2048 1.302
96.2351 1.875
96.2653 1.719
96.2956 2.187
96.3259 2.031
96.3562 1.927
96.3865 1.771
96.4167 2.240
96.4470 2.083
96.4773 1.875
96.5076 2.604
96.5379 1.667
96.5681 1.771
96.5984 1.823
96.6287 1.615
96.6590 2.031
96.6893 1.562
96.7195 2.031
96.7498 1.562
96.7801 1.771
96.8104 1.979
96.8406 2.083
96.8709 1.562
96.9012 1.667
96.9315 2.292
96.9618 2.344
96.9920 2.031
97.0223 2.031
97.0526 1.615
97.0829 1.302
97.1132 1.771
97.1434 2.240
97.1737 1.823
97.2040 1.615
97.2343 1.771
97.2645 1.458
97.2948 1.562
97.3251 1.927
97.3554 1.719
97.3857 1.979
97.4159 1.198
97.4462 1.927
97.4765 1.875
97.5068 2.292
97.5371 1.667
97.5673 1.927
97.5976 1.615
97.6279 2.344
97.6582 1.875
97.6884 1.771
97.7187 1.771
97.7490 1.875
97.7793 1.458
97.8096 2.344
97.8398 1.667
97.8701 2.240
97.9004 2.292
97.9307 2.448
97.9610 1.875
97.9912 2.240
98.0215 2.500
98.0518 2.500
98.0821 2.135
98.1123 2.240
98.1426 2.031
98.1729 2.135
98.2032 3.021
98.2335 2.500
98.2637 1.823
98.2940 2.917
98.3243 2.865
98.3546 3.125
98.3849 2.708
98.4151 2.500
98.4454 3.125
98.4757 2.917
98.5060 3.073
98.5362 3.073
98.5665 3.021
98.5968 2.552
98.6271 3.333
98.6574 3.750
98.6876 2.969
98.7179 2.812
98.7482 3.385
98.7785 2.083
98.8088 2.812
98.8390 2.865
98.8693 2.969
98.8996 2.292
98.9299 2.292
98.9601 2.500
98.9904 2.708
99.0207 2.448
99.0510 2.292
99.0813 2.083
99.1115 2.031
99.1418 2.552
99.1721 2.292
99.2024 1.823
99.2327 1.875
99.2629 2.240
99.2932 1.823
99.3235 2.344
99.3538 2.135
99.3841 1.823
99.4143 2.240
99.4446 1.823
99.4749 2.135
99.5052 1.458
99.5354 1.302
99.5657 1.510
99.5960 1.771
99.6263 1.979
99.6566 1.875
99.6868 1.979
99.7171 1.510
99.7474 1.615
99.7777 1.510
99.8080 1.979
99.8382 2.240
99.8685 2.240
99.8988 1.823
99.9291 1.458
99.9593 1.406
99.9896 1.615
100.0199 1.562
100.0502 1.354
100.0805 2.240
100.1107 1.510
100.1410 1.354
100.1713 1.302
100.2016 1.302
100.2319 1.354
100.2621 1.615
100.2924 1.042
100.3227 1.146
100.3530 1.771
100.3832 1.562
100.4135 1.823
100.4438 1.510
100.4741 1.927
100.5044 1.823
100.5346 1.302
100.5649 1.667
100.5952 1.354
100.6255 1.823
100.6558 1.875
100.6860 1.302
100.7163 1.719
100.7466 2.344
100.7769 1.719
100.8071 1.771
100.8374 1.823
100.8677 1.458
100.8980 2.083
100.9283 0.937
100.9585 1.458
100.9888 1.667
101.0191 1.927
101.0494 1.979
101.0797 1.771
101.1099 1.615
101.1402 2.031
101.1705 1.510
101.2008 2.187
101.2310 1.562
101.2613 2.187
101.2916 1.615
101.3219 1.615
101.3522 1.615
101.3824 1.667
101.4127 1.667
101.4430 1.510
101.4733 1.719
101.5036 1.771
101.5338 1.979
101.5641 2.135
101.5944 2.396
101.6247 0.937
101.6549 1.615
101.6852 1.615
101.7155 1.719
101.7458 0.937
101.7761 1.562
101.8063 1.771
101.8366 1.250
101.8669 1.458
101.8972 1.927
101.9275 1.615
101.9577 2.135
101.9880 1.146
102.0183 2.083
102.0486 2.187
102.0788 2.187
102.1091 1.875
102.1394 1.406
102.1697 1.875
102.2000 1.823
102.2302 1.823
102.2605 2.083
102.2908 1.875
102.3211 1.771
102.3514 2.187
102.3816 2.448
102.4119 2.552
102.4422 2.292
102.4725 2.240
102.5028 2.969
102.5330 1.771
102.5633 2.135
102.5936 3.281
102.6239 2.969
102.6541 2.031
102.6844 2.448
102.7147 2.760
102.7450 2.448
102.7753 2.656
102.8055 2.604
102.8358 2.500
102.8661 2.240
102.8964 2.865
102.9267 2.812
102.9569 2.344
102.9872 2.552
103.0175 3.125
103.0478 2.552
103.0780 2.187
103.1083 2.969
103.1386 2.292
103.1689 2.812
103.1992 1.927
103.2294 2.969
103.2597 2.448
103.2900 2.396
103.3203 2.396
103.3506 2.760
103.3808 2.344
103.4111 2.083
103.4414 2.656
103.4717 2.917
103.5019 2.292
103.5322 3.021
103.5625 2.448
103.5928 2.708
103.6231 2.396
103.6533 3.021
103.6836 2.500
103.7139 3.802
103.7442 3.333
103.7745 2.500
103.8047 3.333
103.8350 2.917
103.8653 3.229
103.8956 2.812
103.9258 2.760
103.9561 2.969
103.9864 2.760
104.0167 3.385
104.0470 2.969
104.0772 3.281
104.1075 3.594
104.1378 3.229
104.1681 3.646
104.1984 3.490
104.2286 3.229
104.2589 3.698
104.2892 3.385
104.3195 3.177
104.3497 2.708
104.3800 2.812
104.4103 2.708
104.4406 2.604
104.4709 3.229
104.5011 3.021
104.5314 2.292
104.5617 1.979
104.5920 2.812
104.6223 3.281
104.6525 2.083
104.6828 2.448
104.7131 2.500
104.7434 1.615
104.7736 2.292
104.8039 2.396
104.8342 1.979
104.8645 2.344
104.8948 1.771
104.9250 1.823
104.9553 1.510
104.9856 2.344
105.0159 2.083
105.0462 1.823
105.0764 1.979
105.1067 1.250
105.1370 2.187
105.1673 1.771
105.1975 2.031
105.2278 2.396
105.2581 2.240
105.2884 1.667
105.3187 1.094
105.3489 1.510
105.3792 1.406
105.4095 1.979
105.4398 1.979
105.4701 1.719
105.5003 1.927
105.5306 1.719
105.5609 1.979
105.5912 1.979
105.6215 1.719
105.6517 1.979
105.6820 1.354
105.7123 1.875
105.7426 1.250
105.7728 1.354
105.8031 1.719
105.8334 2.031
105.8637 1.823
105.8940 1.875
105.9242 1.250
105.9545 1.302
105.9848 1.719
106.0151 1.927
106.0454 2.344
106.0756 1.667
106.1059 1.719
106.1362 0.990
106.1665 2.292
106.1967 1.354
106.2270 1.823
106.2573 1.302
106.2876 2.031
106.3179 1.927
106.3481 2.135
106.3784 1.927
106.4087 1.979
106.4390 1.771
106.4693 1.823
106.4995 1.875
106.5298 1.458
106.5601 1.146
106.5904 1.979
106.6206 1.250
106.6509 1.771
106.6812 1.510
106.7115 2.031
106.7418 1.979
106.7720 2.240
106.8023 1.979
106.8326 1.719
106.8629 2.031
106.8932 1.250
106.9234 1.875
106.9537 1.615
106.9840 1.979
107.0143 1.667
107.0445 1.771
107.0748 1.510
107.1051 1.562
107.1354 1.562
107.1657 1.458
107.1959 2.344
107.2262 2.083
107.2565 1.354
107.2868 1.875
107.3171 2.187
107.3473 1.302
107.3776 2.083
107.4079 1.875
107.4382 1.667
107.4684 1.875
107.4987 1.875
107.5290 2.031
107.5593 1.771
107.5896 1.458
107.6198 1.771
107.6501 1.146
107.6804 1.510
107.7107 1.979
107.7410 1.979
107.7712 1.979
107.8015 1.406
107.8318 1.510
107.8621 1.719
107.8923 1.302
107.9226 1.771
107.9529 1.875
107.9832 1.354
108.0135 1.875
108.0437 1.250
108.0740 1.510
108.1043 1.875
108.1346 1.354
108.1649 1.510
108.1951 1.562
108.2254 1.771
108.2557 1.875
108.2860 1.250
108.3163 1.562
108.3465 1.667
108.3768 1.927
108.4071 1.510
108.4374 1.927
108.4676 1.406
108.4979 1.823
108.5282 1.719
108.5585 1.823
108.5888 1.615
108.6190 1.875
108.6493 1.927
108.6796 2.135
108.7099 1.094
108.7402 1.250
108.7704 1.771
108.8007 1.719
108.8310 1.771
108.8613 2.292
108.8915 1.875
108.9218 1.146
108.9521 1.146
108.9824 1.354
109.0127 1.406
109.0429 2.344
109.0732 1.771
109.1035 1.562
109.1338 2.240
109.1641 1.667
109.1943 1.667
109.2246 1.562
109.2549 1.771
109.2852 1.927
109.3154 1.562
109.3457 2.031
109.3760 1.771
109.4063 2.083
109.4366 2.083
109.4668 1.875
109.4971 2.187
109.5274 1.927
109.5577 1.667
109.5880 2.187
109.6182 2.448
109.6485 2.292
109.6788 1.458
109.7091 2.083
109.7393 2.031
109.7696 2.083
109.7999 2.500
109.8302 1.823
109.8605 2.187
109.8907 1.615
109.9210 2.396
109.9513 2.448
109.9816 2.552
110.0119 2.448
110.0421 2.187
110.0724 2.135
110.1027 2.552
110.1330 1.719
110.1632 1.927
110.1935 2.135
110.2238 2.292
110.2541 2.500
110.2844 2.240
110.3146 2.292
110.3449 3.229
110.3752 2.865
110.4055 2.031
110.4358 2.292
110.4660 2.292
110.4963 2.396
110.5266 2.396
110.5569 2.344
110.5871 2.396
110.6174 1.719
110.6477 1.875
110.6780 2.344
110.7083 2.135
110.7385 2.240
110.7688 2.344
110.7991 2.083
110.8294 1.979
110.8597 2.135
110.8899 1.615
110.9202 1.875
110.9505 1.719
110.9808 2.187
111.0110 1.198
111.0413 2.396
111.0716 1.354
111.1019 2.135
111.1322 1.406
111.1624 2.240
111.1927 2.396
111.2230 1.562
111.2533 1.615
111.2836 2.135
111.3138 1.979
111.3441 2.344
111.3744 1.823
111.4047 2.135
111.4350 1.562
111.4652 1.927
111.4955 1.406
111.5258 1.562
111.5561 1.979
111.5863 2.135
111.6166 1.615
111.6469 2.500
111.6772 1.615
111.7075 1.719
111.7377 1.719
111.7680 1.719
111.7983 1.562
111.8286 1.406
111.8589 1.823
111.8891 1.667
111.9194 1.198
111.9497 1.250
111.9800 1.667
112.0102 1.406
112.0405 1.354
112.0708 1.042
112.1011 1.354
112.1314 1.771
112.1616 1.719
112.1919 1.927
112.2222 1.771
112.2525 1.562
112.2828 1.667
112.3130 1.406
112.3433 1.458
112.3736 1.354
112.4039 1.562
112.4341 1.875
112.4644 1.458
112.4947 1.719
112.5250 1.042
112.5553 1.823
112.5855 1.771
112.6158 1.198
112.6461 1.615
112.6764 1.406
112.7067 1.094
112.7369 1.719
112.7672 1.927
112.7975 2.031
112.8278 1.146
112.8580 1.771
112.8883 1.562
112.9186 1.302
112.9489 1.719
112.9792 1.562
113.0094 1.823
113.0397 1.875
113.0700 2.187
113.1003 1.979
113.1306 1.562
113.1608 1.458
113.1911 1.510
113.2214 1.406
113.2517 1.250
113.2819 2.031
113.3122 1.771
113.3425 1.719
113.3728 1.458
113.4031 2.083
113.4333 1.771
113.4636 1.510
113.4939 1.458
113.5242 1.979
113.5545 1.979
113.5847 1.719
113.6150 1.823
113.6453 1.302
113.6756 1.823
113.7058 2.240
113.7361 1.771
113.7664 1.615
113.7967 1.250
113.8270 1.510
113.8572 1.667
113.8875 1.719
113.9178 2.240
113.9481 2.187
113.9784 1.406
114.0086 1.510
114.0389 1.771
114.0692 1.667
114.0995 1.562
114.1298 1.302
114.1600 1.354
114.1903 1.719
114.2206 2.135
114.2509 1.510
114.2811 1.927
114.3114 1.823
114.3417 1.562
114.3720 1.875
114.4023 1.562
114.4325 1.667
114.4628 1.823
114.4931 1.302
114.5234 1.458
114.5537 1.354
114.5839 1.302
114.6142 1.719
114.6445 1.979
114.6748 2.083
114.7050 1.510
114.7353 1.823
114.7656 2.292
114.7959 1.771
114.8262 2.031
114.8564 2.083
114.8867 2.240
114.9170 1.719
114.9473 1.875
114.9776 2.135
115.0078 1.875
115.0381 1.667
115.0684 1.823
115.0987 1.719
115.1289 2.240
115.1592 2.187
115.1895 1.927
115.2198 2.083
115.2501 1.406
115.2803 2.031
115.3106 2.135
115.3409 2.760
115.3712 2.135
115.4015 2.083
115.4317 1.979
115.4620 2.500
115.4923 2.552
115.5226 2.812
115.5528 2.031
115.5831 3.073
115.6134 2.708
115.6437 2.917
115.6740 2.396
115.7042 2.552
115.7345 2.656
115.7648 3.594
115.7951 3.125
115.8254 3.542
115.8556 2.917
115.8859 3.281
115.9162 3.490
115.9465 3.437
115.9767 3.229
116.0070 3.437
116.0373 4.687
116.0676 4.479
116.0979 4.062
116.1281 3.802
116.1584 3.281
116.1887 3.906
116.2190 3.542
116.2493 3.490
116.2795 3.542
116.3098 3.542
116.3401 3.958
116.3704 3.542
116.4006 3.750
116.4309 2.708
116.4612 4.062
116.4915 3.437
116.5218 3.490
116.5520 2.865
116.5823 3.177
116.6126 3.437
116.6429 2.917
116.6732 4.010
116.7034 2.760
116.7337 3.594
116.7640 2.656
116.7943 3.281
116.8245 3.073
116.8548 3.229
116.8851 3.229
116.9154 2.969
116.9457 2.865
116.9759 3.490
117.0062 2.969
117.0365 2.240
117.0668 2.187
117.0971 2.969
117.1273 2.344
117.1576 2.396
117.1879 2.448
117.2182 2.292
117.2485 2.292
117.2787 2.031
117.3090 2.135
117.3393 2.083
117.3696 2.708
117.3998 2.448
117.4301 2.031
117.4604 1.927
117.4907 2.552
117.5210 2.292
117.5512 1.979
117.5815 1.823
117.6118 1.979
117.6421 1.719
117.6724 1.979
117.7026 1.927
117.7329 1.771
117.7632 2.240
117.7935 1.875
117.8237 1.667
117.8540 2.240
117.8843 1.979
117.9146 1.719
117.9449 1.771
117.9751 1.510
118.0054 2.135
118.0357 1.927
118.0660 1.927
118.0963 1.250
118.1265 2.292
118.1568 1.562
118.1871 1.719
118.2174 1.354
118.2476 1.771
118.2779 1.771
118.3082 1.354
118.3385 1.250
118.3688 1.406
118.3990 1.823
118.4293 1.979
118.4596 2.083
118.4899 1.719
118.5202 2.240
118.5504 1.510
118.5807 1.458
118.6110 2.135
118.6413 2.135
118.6715 2.135
118.7018 2.187
118.7321 2.083
118.7624 1.250
118.7927 1.667
118.8229 1.302
118.8532 1.406
118.8835 1.927
118.9138 2.187
118.9441 1.406
118.9743 2.187
119.0046 1.719
119.0349 1.302
119.0652 1.927
119.0954 1.562
119.1257 1.615
119.1560 1.719
119.1863 1.302
119.2166 1.719
119.2468 2.031
119.2771 1.615
119.3074 2.031
119.3377 1.875
119.3680 1.615
119.3982 1.875
119.4285 1.875
119.4588 1.667
119.4891 1.510
119.5193 1.406
119.5496 1.771
119.5799 1.927
119.6102 1.771
119.6405 1.354
119.6707 1.458
119.7010 2.083
119.7313 1.615
119.7616 1.719
119.7919 1.510
119.8221 1.823
119.8524 2.448
119.8827 1.406
119.9130 1.510
119.9433 1.719
119.9735 1.302
120.0038 2.292
