'Id: "" Comment: "" Operator: "Lab Manager" Anode: "Cu" Scantype: "Locked Coupled" TimePerStep: "19.2" X: "9999" Y: "9999" Z: "9999" 
10.0015 128.385
10.0318 134.062
10.0620 137.604
10.0923 135.417
10.1226 138.750
10.1529 139.531
10.1832 147.500
10.2134 148.021
10.2437 147.812
10.2740 151.354
10.3043 156.042
10.3346 155.417
10.3648 158.750
10.3951 157.812
10.4254 156.562
10.4557 158.958
10.4859 161.979
10.5162 156.875
10.5465 150.625
10.5768 157.240
10.6071 154.844
10.6373 156.406
10.6676 156.458
10.6979 153.802
10.7282 152.969
10.7585 147.292
10.7887 140.104
10.8190 143.437
10.8493 140.156
10.8796 145.208
10.9098 134.844
10.9401 129.427
10.9704 123.698
11.0007 123.281
11.0310 123.177
11.0612 114.062
11.0915 111.771
11.1218 104.427
11.1521 102.135
11.1824 92.396
11.2126 97.187
11.2429 91.667
11.2732 86.406
11.3035 85.104
11.3337 82.552
11.3640 82.917
11.3943 74.583
11.4246 77.552
11.4549 72.865
11.4851 70.365
11.5154 67.448
11.5457 66.875
11.5760 68.490
11.6063 63.594
11.6365 63.177
11.6668 62.865
11.6971 58.594
11.7274 57.604
11.7577 55.052
11.7879 53.281
11.8182 55.417
11.8485 55.260
11.8788 50.104
11.9090 53.542
11.9393 48.385
11.9696 49.687
11.9999 48.073
12.0302 47.396
12.0604 46.927
12.0907 45.937
12.1210 42.656
12.1513 44.844
12.1816 42.969
12.2118 42.344
12.2421 40.573
12.2724 42.656
12.3027 39.271
12.3329 39.427
12.3632 37.812
12.3935 34.375
12.4238 34.115
12.4541 35.781
12.4843 35.312
12.5146 32.292
12.5449 32.031
12.5752 30.521
12.6055 30.885
12.6357 32.083
12.6660 27.604
12.6963 28.490
12.7266 29.792
12.7568 27.187
12.7871 30.469
12.8174 30.208
12.8477 29.375
12.8780 27.448
12.9082 28.542
12.9385 25.312
12.9688 25.365
12.9991 26.771
13.0294 24.896
13.0596 23.177
13.0899 26.094
13.1202 23.958
13.1505 25.312
13.1807 25.677
13.2110 23.021
13.2413 24.844
13.2716 23.698
13.3019 24.948
13.3321 24.740
13.3624 22.656
13.3927 24.062
13.4230 21.615
13.4533 22.969
13.4835 23.021
13.5138 23.594
13.5441 21.042
13.5744 22.865
13.6046 23.021
13.6349 24.167
13.6652 22.292
13.6955 21.927
13.7258 20.781
13.7560 22.865
13.7863 21.719
13.8166 22.448
13.8469 21.823
13.8772 21.875
13.9074 23.333
13.9377 21.719
13.9680 22.708
13.9983 20.417
14.0285 21.510
14.0588 19.896
14.0891 18.385
14.1194 21.094
14.1497 19.167
14.1799 20.625
14.2102 23.333
14.2405 20.990
14.2708 21.302
14.3011 19.844
14.3313 21.198
14.3616 21.146
14.3919 20.781
14.4222 19.271
14.4524 20.052
14.4827 21.823
14.5130 21.250
14.5433 21.198
14.5736 22.917
14.6038 21.458
14.6341 19.167
14.6644 19.479
14.6947 24.271
14.7250 22.812
14.7552 21.927
14.7855 21.719
14.8158 22.396
14.8461 20.260
14.8764 20.312
14.9066 24.167
14.9369 20.729
14.9672 19.062
14.9975 20.521
15.0277 19.740
15.0580 21.979
15.0883 23.437
15.1186 19.948
15.1489 20.781
15.1791 19.896
15.2094 20.208
15.2397 18.698
15.2700 21.250
15.3003 20.521
15.3305 22.187
15.3608 19.115
15.3911 20.208
15.4214 20.521
15.4516 20.833
15.4819 22.344
15.5122 20.573
15.5425 21.302
15.5728 20.573
15.6030 19.531
15.6333 18.854
15.6636 21.042
15.6939 21.354
15.7242 20.156
15.7544 20.521
15.7847 20.729
15.8150 20.781
15.8453 19.271
15.8755 19.427
15.9058 19.792
15.9361 20.260
15.9664 17.656
15.9967 17.656
16.0269 17.083
16.0572 17.292
16.0875 18.125
16.1178 18.594
16.1481 18.750
16.1783 17.344
16.2086 18.125
16.2389 16.198
16.2692 18.958
16.2994 15.260
16.3297 17.031
16.3600 18.385
16.3903 15.729
16.4206 18.073
16.4508 14.740
16.4811 15.469
16.5114 13.698
16.5417 14.010
16.5720 16.823
16.6022 15.677
16.6325 14.479
16.6628 14.427
16.6931 13.542
16.7233 13.750
16.7536 15.208
16.7839 13.281
16.8142 13.333
16.8445 13.958
16.8747 13.229
16.9050 13.437
16.9353 13.177
16.9656 12.292
16.9959 12.760
17.0261 11.406
17.0564 12.865
17.0867 12.292
17.1170 13.021
17.1472 12.448
17.1775 12.656
17.2078 11.458
17.2381 12.812
17.2684 12.917
17.2986 12.552
17.3289 12.240
17.3592 11.094
17.3895 10.990
17.4198 11.719
17.4500 12.135
17.4803 11.250
17.5106 12.604
17.5409 11.250
17.5712 12.083
17.6014 11.771
17.6317 12.292
17.6620 11.979
17.6923 11.146
17.7225 11.250
17.7528 11.719
17.7831 12.396
17.8134 13.073
17.8437 12.083
17.8739 12.708
17.9042 13.490
17.9345 12.344
17.9648 11.042
17.9951 13.281
18.0253 14.062
18.0556 11.406
18.0859 12.031
18.1162 13.385
18.1464 11.771
18.1767 13.490
18.2070 13.229
18.2373 11.354
18.2676 13.125
18.2978 13.281
18.3281 13.542
18.3584 13.854
18.3887 13.906
18.4190 14.219
18.4492 14.531
18.4795 13.125
18.5098 13.594
18.5401 15.260
18.5703 13.333
18.6006 12.865
18.6309 13.125
18.6612 15.937
18.6915 14.375
18.7217 15.625
18.7520 15.573
18.7823 15.312
18.8126 15.365
18.8429 14.167
18.8731 13.490
18.9034 12.917
18.9337 13.125
18.9640 14.792
18.9942 12.083
19.0245 11.510
19.0548 12.917
19.0851 12.031
19.1154 13.385
19.1456 12.552
19.1759 11.667
19.2062 12.031
19.2365 11.458
19.2668 9.740
19.2970 10.625
19.3273 11.094
19.3576 9.792
19.3879 10.260
19.4181 10.260
19.4484 10.625
19.4787 10.833
19.5090 10.781
19.5393 9.792
19.5695 9.323
19.5998 9.948
19.6301 7.865
19.6604 8.802
19.6907 8.646
19.7209 9.479
19.7512 7.865
19.7815 7.552
19.8118 8.385
19.8420 9.062
19.8723 8.073
19.9026 10.104
19.9329 8.021
19.9632 6.875
19.9934 8.073
20.0237 7.656
20.0540 7.448
20.0843 7.292
20.1146 7.760
20.1448 8.594
20.1751 7.760
20.2054 7.083
20.2357 7.865
20.2659 7.083
20.2962 7.656
20.3265 6.615
20.3568 6.719
20.3871 7.812
20.4173 6.146
20.4476 6.458
20.4779 7.187
20.5082 6.719
20.5385 7.812
20.5687 7.083
20.5990 7.187
20.6293 6.094
20.6596 6.510
20.6899 7.292
20.7201 6.667
20.7504 6.667
20.7807 6.667
20.8110 6.667
20.8412 5.990
20.8715 6.719
20.9018 6.719
20.9321 7.812
20.9624 6.615
20.9926 6.458
21.0229 7.031
21.0532 6.771
21.0835 7.135
21.1138 6.615
21.1440 8.281
21.1743 8.542
21.2046 7.917
21.2349 7.552
21.2651 6.510
21.2954 8.750
21.3257 7.552
21.3560 7.187
21.3863 7.292
21.4165 7.708
21.4468 7.292
21.4771 7.865
21.5074 6.042
21.5377 7.708
21.5679 7.500
21.5982 6.979
21.6285 5.885
21.6588 6.406
21.6890 7.760
21.7193 7.812
21.7496 6.927
21.7799 7.292
21.8102 8.281
21.8404 7.760
21.8707 5.833
21.9010 7.187
21.9313 6.771
21.9616 8.073
21.9918 7.031
22.0221 6.198
22.0524 7.396
22.0827 6.615
22.1129 7.917
22.1432 6.875
22.1735 7.187
22.2038 6.302
22.2341 6.406
22.2643 7.240
22.2946 6.198
22.3249 6.979
22.3552 7.135
22.3855 7.031
22.4157 6.719
22.4460 6.406
22.4763 7.500
22.5066 6.667
22.5368 8.229
22.5671 6.979
22.5974 7.240
22.6277 7.031
22.6580 7.865
22.6882 5.625
22.7185 7.604
22.7488 6.771
22.7791 8.229
22.8094 9.010
22.8396 8.646
22.8699 7.135
22.9002 6.823
22.9305 7.448
22.9607 7.031
22.9910 7.292
23.0213 8.594
23.0516 6.823
23.0819 8.385
23.1121 8.333
23.1424 8.437
23.1727 8.542
23.2030 8.490
23.2333 8.490
23.2635 8.958
23.2938 7.656
23.3241 8.281
23.3544 7.500
23.3846 9.062
23.4149 8.177
23.4452 7.448
23.4755 9.271
23.5058 8.854
23.5360 9.531
23.5663 8.437
23.5966 8.854
23.6269 9.010
23.6572 10.365
23.6874 9.375
23.7177 10.573
23.7480 9.635
23.7783 10.000
23.8086 10.937
23.8388 10.208
23.8691 11.094
23.8994 10.000
23.9297 11.354
23.9599 9.583
23.9902 10.990
24.0205 9.896
24.0508 10.729
24.0811 10.208
24.1113 10.104
24.1416 12.031
24.1719 12.500
24.2022 11.927
24.2325 10.625
24.2627 10.573
24.2930 11.823
24.3233 11.354
24.3536 12.396
24.3838 13.333
24.4141 12.812
24.4444 13.177
24.4747 13.906
24.5050 14.427
24.5352 13.333
24.5655 14.323
24.5958 13.437
24.6261 14.010
24.6564 14.687
24.6866 14.115
24.7169 15.156
24.7472 15.677
24.7775 14.427
24.8077 16.094
24.8380 15.885
24.8683 16.458
24.8986 15.833
24.9289 16.458
24.9591 15.000
24.9894 16.458
25.0197 17.552
25.0500 17.135
25.0803 14.375
25.1105 15.781
25.1408 17.656
25.1711 17.240
25.2014 15.156
25.2316 17.500
25.2619 15.469
25.2922 17.969
25.3225 17.187
25.3528 17.083
25.3830 16.510
25.4133 18.646
25.4436 17.917
25.4739 18.490
25.5042 18.906
25.5344 18.802
25.5647 18.177
25.5950 18.073
25.6253 18.177
25.6555 17.760
25.6858 18.646
25.7161 17.656
25.7464 18.594
25.7767 16.146
25.8069 21.250
25.8372 20.469
25.8675 18.854
25.8978 19.010
25.9281 18.125
25.9583 16.823
25.9886 15.990
26.0189 18.802
26.0492 16.615
26.0794 19.010
26.1097 19.167
26.1400 18.906
26.1703 18.333
26.2006 18.333
26.2308 20.781
26.2611 17.969
26.2914 19.219
26.3217 17.344
26.3520 18.646
26.3822 16.979
26.4125 18.802
26.4428 18.906
26.4731 18.802
26.5034 15.625
26.5336 17.656
26.5639 18.646
26.5942 18.177
26.6245 18.542
26.6547 18.750
26.6850 19.948
26.7153 19.010
26.7456 17.969
26.7759 20.208
26.8061 18.542
26.8364 18.542
26.8667 20.052
26.8970 18.333
26.9273 19.687
26.9575 20.104
26.9878 19.323
27.0181 19.219
27.0484 20.625
27.0786 20.833
27.1089 19.583
27.1392 23.073
27.1695 18.854
27.1998 21.406
27.2300 18.906
27.2603 22.656
27.2906 21.250
27.3209 21.042
27.3512 20.885
27.3814 22.292
27.4117 22.396
27.4420 25.104
27.4723 20.833
27.5025 23.854
27.5328 24.219
27.5631 22.708
27.5934 24.427
27.6237 23.802
27.6539 24.531
27.6842 23.854
27.7145 24.062
27.7448 25.104
27.7751 24.635
27.8053 22.135
27.8356 23.646
27.8659 25.000
27.8962 22.292
27.9264 23.073
27.9567 23.542
27.9870 23.333
28.0173 23.646
28.0476 24.740
28.0778 20.260
28.1081 24.531
28.1384 23.437
28.1687 21.927
28.1990 20.781
28.2292 22.448
28.2595 21.875
28.2898 20.104
28.3201 20.521
28.3503 20.833
28.3806 18.125
28.4109 20.937
28.4412 20.521
28.4715 20.104
28.5017 20.365
28.5320 17.656
28.5623 18.594
28.5926 19.479
28.6229 18.073
28.6531 17.083
28.6834 19.010
28.7137 16.771
28.7440 16.667
28.7742 15.781
28.8045 18.594
28.8348 15.677
28.8651 16.042
28.8954 15.781
28.9256 15.417
28.9559 16.927
28.9862 15.208
29.0165 16.250
29.0468 15.677
29.0770 14.062
29.1073 15.521
29.1376 14.583
29.1679 13.854
29.1981 12.552
29.2284 13.750
29.2587 11.823
29.2890 12.396
29.3193 13.385
29.3495 12.969
29.3798 10.937
29.4101 11.927
29.4404 11.979
29.4707 11.979
29.5009 11.458
29.5312 10.990
29.5615 11.250
29.5918 10.729
29.6221 11.615
29.6523 11.042
29.6826 9.792
29.7129 10.521
29.7432 10.417
29.7734 9.687
29.8037 9.687
29.8340 10.156
29.8643 9.271
29.8946 10.052
29.9248 9.896
29.9551 9.115
29.9854 9.479
30.0157 9.062
30.0460 7.292
30.0762 9.844
30.1065 7.083
30.1368 8.854
30.1671 8.958
30.1973 7.552
30.2276 9.635
30.2579 8.229
30.2882 8.750
30.3185 8.073
30.3487 7.708
30.3790 8.802
30.4093 8.281
30.4396 7.344
30.4699 8.594
30.5001 7.552
30.5304 6.927
30.5607 6.615
30.5910 7.187
30.6212 6.354
30.6515 7.969
30.6818 7.448
30.7121 7.187
30.7424 8.021
30.7726 8.177
30.8029 8.229
30.8332 7.552
30.8635 7.865
30.8938 6.562
30.9240 6.719
30.9543 7.083
30.9846 7.083
31.0149 6.823
31.0451 7.448
31.0754 7.396
31.1057 7.604
31.1360 6.719
31.1663 7.396
31.1965 7.917
31.2268 6.823
31.2571 6.250
31.2874 6.771
31.3177 7.448
31.3479 7.240
31.3782 7.552
31.4085 7.240
31.4388 7.448
31.4690 6.979
31.4993 7.135
31.5296 6.615
31.5599 5.312
31.5902 6.823
31.6204 7.708
31.6507 5.885
31.6810 6.302
31.7113 6.406
31.7416 6.927
31.7718 6.458
31.8021 6.094
31.8324 6.615
31.8627 6.302
31.8929 6.354
31.9232 6.146
31.9535 7.031
31.9838 6.198
32.0141 5.937
32.0443 5.312
32.0746 6.094
32.1049 6.198
32.1352 6.875
32.1655 5.833
32.1957 7.135
32.2260 7.500
32.2563 6.146
32.2866 6.510
32.3169 6.458
32.3471 7.760
32.3774 7.083
32.4077 7.187
32.4380 7.969
32.4682 6.667
32.4985 7.292
32.5288 7.135
32.5591 7.917
32.5894 8.281
32.6196 8.177
32.6499 9.740
32.6802 11.198
32.7105 9.740
32.7408 10.677
32.7710 9.635
32.8013 10.573
32.8316 8.229
32.8619 9.167
32.8921 9.010
32.9224 7.448
32.9527 7.396
32.9830 8.177
33.0133 7.292
33.0435 6.875
33.0738 7.812
33.1041 7.969
33.1344 8.125
33.1647 7.448
33.1949 6.771
33.2252 7.187
33.2555 6.302
33.2858 6.510
33.3160 6.615
33.3463 6.250
33.3766 5.833
33.4069 5.885
33.4372 5.573
33.4674 5.365
33.4977 6.927
33.5280 6.458
33.5583 5.573
33.5886 5.937
33.6188 5.469
33.6491 6.354
33.6794 5.781
33.7097 6.042
33.7399 5.625
33.7702 6.771
33.8005 4.531
33.8308 6.146
33.8611 6.406
33.8913 6.250
33.9216 5.885
33.9519 5.469
33.9822 6.823
34.0125 6.458
34.0427 6.042
34.0730 6.562
34.1033 6.979
34.1336 6.667
34.1638 7.344
34.1941 5.937
34.2244 6.562
34.2547 6.302
34.2850 6.250
34.3152 6.458
34.3455 6.979
34.3758 7.760
34.4061 6.667
34.4364 7.760
34.4666 5.833
34.4969 6.979
34.5272 6.146
34.5575 5.885
34.5877 5.885
34.6180 7.604
34.6483 6.250
34.6786 6.406
34.7089 7.448
34.7391 6.458
34.7694 8.021
34.7997 6.562
34.8300 6.198
34.8603 6.719
34.8905 7.031
34.9208 5.729
34.9511 6.406
34.9814 6.615
35.0116 6.510
35.0419 7.396
35.0722 6.875
35.1025 6.615
35.1328 6.198
35.1630 6.354
35.1933 6.875
35.2236 7.344
35.2539 7.135
35.2842 6.458
35.3144 6.875
35.3447 6.146
35.3750 5.625
35.4053 7.760
35.4356 7.500
35.4658 5.781
35.4961 6.042
35.5264 6.771
35.5567 6.406
35.5869 6.406
35.6172 7.500
35.6475 7.656
35.6778 7.969
35.7081 7.135
35.7383 6.979
35.7686 6.771
35.7989 6.406
35.8292 7.031
35.8595 7.656
35.8897 7.969
35.9200 7.448
35.9503 6.771
35.9806 6.823
36.0108 6.667
36.0411 6.719
36.0714 6.875
36.1017 8.073
36.1320 6.354
36.1622 7.344
36.1925 6.979
36.2228 6.406
36.2531 5.781
36.2834 6.198
36.3136 5.781
36.3439 6.562
36.3742 6.510
36.4045 7.240
36.4347 6.354
36.4650 5.677
36.4953 6.406
36.5256 5.521
36.5559 6.146
36.5861 5.729
36.6164 5.729
36.6467 5.885
36.6770 6.354
36.7073 6.250
36.7375 4.687
36.7678 6.094
36.7981 5.417
36.8284 5.885
36.8586 6.250
36.8889 7.031
36.9192 5.833
36.9495 6.927
36.9798 5.521
37.0100 6.094
37.0403 7.448
37.0706 5.781
37.1009 5.469
37.1312 5.312
37.1614 6.875
37.1917 5.156
37.2220 5.312
37.2523 6.198
37.2825 5.625
37.3128 6.094
37.3431 5.781
37.3734 5.156
37.4037 5.312
37.4339 5.573
37.4642 5.625
37.4945 5.365
37.5248 5.625
37.5551 5.260
37.5853 6.146
37.6156 6.458
37.6459 5.781
37.6762 6.615
37.7064 6.354
37.7367 5.729
37.7670 6.042
37.7973 5.937
37.8276 6.771
37.8578 5.885
37.8881 5.937
37.9184 4.844
37.9487 5.052
37.9790 6.823
38.0092 5.833
38.0395 5.625
38.0698 5.885
38.1001 5.833
38.1304 6.042
38.1606 5.260
38.1909 6.146
38.2212 5.365
38.2515 5.990
38.2817 6.615
38.3120 5.937
38.3423 4.844
38.3726 6.198
38.4029 5.625
38.4331 6.198
38.4634 5.417
38.4937 5.469
38.5240 5.156
38.5543 5.208
38.5845 5.156
38.6148 4.583
38.6451 4.948
38.6754 6.146
38.7056 4.531
38.7359 5.104
38.7662 5.312
38.7965 5.417
38.8268 5.000
38.8570 5.156
38.8873 3.281
38.9176 3.854
38.9479 3.802
38.9782 4.479
39.0084 4.271
39.0387 4.531
39.0690 4.687
39.0993 4.115
39.1295 5.156
39.1598 4.792
39.1901 4.792
39.2204 5.156
39.2507 4.948
39.2809 3.229
39.3112 4.010
39.3415 4.896
39.3718 5.417
39.4021 4.687
39.4323 3.906
39.4626 4.271
39.4929 4.479
39.5232 4.115
39.5534 4.323
39.5837 4.635
39.6140 4.375
39.6443 4.010
39.6746 4.062
39.7048 4.219
39.7351 3.906
39.7654 4.271
39.7957 3.594
39.8260 3.802
39.8562 4.740
39.8865 3.958
39.9168 5.052
39.9471 5.208
39.9773 3.490
40.0076 4.375
40.0379 4.740
40.0682 2.917
40.0985 4.583
40.1287 4.010
40.1590 5.729
40.1893 3.437
40.2196 4.792
40.2499 3.281
40.2801 4.635
40.3104 3.906
40.3407 4.531
40.3710 4.115
40.4012 4.479
40.4315 4.531
40.4618 5.000
40.4921 3.698
40.5224 4.375
40.5526 3.958
40.5829 4.219
40.6132 4.167
40.6435 4.479
40.6738 4.219
40.7040 4.583
40.7343 4.792
40.7646 4.219
40.7949 4.062
40.8251 4.062
40.8554 5.260
40.8857 3.958
40.9160 4.010
40.9463 4.271
40.9765 5.469
41.0068 4.479
41.0371 4.375
41.0674 5.000
41.0977 4.010
41.1279 4.740
41.1582 5.312
41.1885 4.583
41.2188 4.740
41.2491 4.740
41.2793 5.052
41.3096 4.583
41.3399 4.687
41.3702 4.740
41.4004 4.844
41.4307 4.479
41.4610 4.531
41.4913 4.427
41.5216 4.687
41.5518 5.000
41.5821 4.219
41.6124 5.000
41.6427 3.854
41.6730 4.635
41.7032 4.844
41.7335 4.219
41.7638 4.792
41.7941 4.948
41.8243 4.687
41.8546 3.646
41.8849 4.271
41.9152 5.156
41.9455 6.354
41.9757 4.531
42.0060 5.052
42.0363 4.062
42.0666 5.000
42.0969 4.219
42.1271 5.156
42.1574 5.365
42.1877 5.000
42.2180 4.375
42.2482 3.802
42.2785 4.687
42.3088 4.948
42.3391 4.896
42.3694 4.271
42.3996 4.271
42.4299 3.854
42.4602 3.802
42.4905 4.583
42.5208 3.437
42.5510 3.958
42.5813 4.115
42.6116 4.740
42.6419 3.333
42.6721 4.375
42.7024 3.854
42.7327 4.115
42.7630 3.802
42.7933 4.219
42.8235 4.271
42.8538 4.479
42.8841 3.542
42.9144 4.844
42.9447 4.062
42.9749 4.062
43.0052 4.115
43.0355 4.062
43.0658 3.750
43.0960 3.542
43.1263 3.229
43.1566 3.437
43.1869 3.750
43.2172 3.490
43.2474 3.906
43.2777 3.802
43.3080 3.125
43.3383 4.427
43.3686 4.010
43.3988 3.281
43.4291 3.437
43.4594 3.802
43.4897 3.646
43.5199 4.062
43.5502 3.958
43.5805 4.635
43.6108 3.906
43.6411 3.125
43.6713 3.802
43.7016 4.323
43.7319 3.125
43.7622 3.385
43.7925 3.542
43.8227 4.062
43.8530 3.073
43.8833 3.229
43.9136 3.125
43.9439 4.115
43.9741 2.969
44.0044 3.021
44.0347 4.062
44.0650 3.854
44.0952 3.385
44.1255 3.594
44.1558 3.594
44.1861 3.542
44.2164 2.812
44.2466 3.594
44.2769 4.167
44.3072 3.385
44.3375 3.906
44.3678 3.750
44.3980 3.854
44.4283 3.594
44.4586 3.385
44.4889 3.906
44.5191 2.812
44.5494 2.917
44.5797 3.073
44.6100 3.490
44.6403 3.542
44.6705 3.542
44.7008 3.542
44.7311 3.698
44.7614 3.854
44.7917 3.490
44.8219 3.542
44.8522 3.906
44.8825 3.229
44.9128 4.427
44.9430 4.375
44.9733 3.750
45.0036 4.115
45.0339 3.542
45.0642 4.271
45.0944 3.333
45.1247 3.906
45.1550 3.073
45.1853 3.385
45.2156 3.958
45.2458 3.750
45.2761 3.333
45.3064 4.375
45.3367 4.271
45.3669 3.594
45.3972 4.635
45.4275 3.698
45.4578 3.437
45.4881 4.167
45.5183 3.698
45.5486 4.635
45.5789 3.385
45.6092 4.062
45.6395 4.167
45.6697 4.115
45.7000 4.479
45.7303 4.844
45.7606 4.062
45.7908 2.708
45.8211 3.750
45.8514 3.594
45.8817 3.594
45.9120 4.583
45.9422 3.385
45.9725 4.010
46.0028 3.698
46.0331 3.698
46.0634 3.646
46.0936 3.646
46.1239 3.906
46.1542 3.698
46.1845 3.437
46.2147 4.323
46.2450 3.177
46.2753 4.167
46.3056 4.531
46.3359 3.490
46.3661 3.750
46.3964 3.490
46.4267 3.177
46.4570 3.698
46.4873 3.698
46.5175 3.385
46.5478 4.167
46.5781 4.583
46.6084 3.698
46.6386 3.594
46.6689 3.281
46.6992 4.062
46.7295 4.010
46.7598 3.594
46.7900 3.490
46.8203 4.115
46.8506 3.958
46.8809 4.062
46.9112 3.958
46.9414 3.854
46.9717 3.177
47.0020 3.594
47.0323 3.594
47.0626 3.594
47.0928 4.219
47.1231 4.167
47.1534 3.281
47.1837 3.854
47.2139 4.219
47.2442 3.802
47.2745 4.740
47.3048 3.698
47.3351 4.323
47.3653 4.375
47.3956 4.167
47.4259 4.323
47.4562 4.792
47.4865 3.594
47.5167 4.844
47.5470 4.062
47.5773 4.115
47.6076 4.427
47.6378 4.948
47.6681 4.427
47.6984 4.583
47.7287 4.115
47.7590 4.271
47.7892 4.427
47.8195 4.375
47.8498 4.583
47.8801 5.052
47.9104 5.260
47.9406 3.542
47.9709 4.635
48.0012 4.323
48.0315 5.104
48.0617 4.167
48.0920 3.229
48.1223 5.677
48.1526 4.583
48.1829 4.219
48.2131 4.792
48.2434 4.844
48.2737 6.771
48.3040 4.271
48.3343 4.740
48.3645 5.417
48.3948 4.531
48.4251 5.365
48.4554 5.521
48.4856 4.844
48.5159 5.625
48.5462 4.896
48.5765 5.365
48.6068 5.729
48.6370 4.531
48.6673 4.792
48.6976 5.573
48.7279 5.521
48.7582 6.250
48.7884 5.677
48.8187 5.573
48.8490 5.208
48.8793 5.104
48.9095 5.625
48.9398 5.208
48.9701 6.510
49.0004 5.990
49.0307 5.885
49.0609 5.000
49.0912 5.521
49.1215 5.625
49.1518 5.312
49.1821 6.250
49.2123 5.365
49.2426 5.312
49.2729 6.562
49.3032 5.729
49.3334 6.979
49.3637 4.792
49.3940 6.823
49.4243 5.677
49.4546 7.396
49.4848 5.625
49.5151 5.417
49.5454 5.885
49.5757 5.365
49.6060 5.365
49.6362 5.885
49.6665 6.146
49.6968 6.354
49.7271 6.875
49.7574 6.354
49.7876 7.240
49.8179 6.510
49.8482 7.031
49.8785 7.135
49.9087 6.458
49.9390 6.823
49.9693 7.083
49.9996 7.500
50.0299 6.823
50.0601 7.448
50.0904 8.542
50.1207 7.917
50.1510 6.615
50.1813 6.302
50.2115 8.073
50.2418 7.552
50.2721 9.219
50.3024 7.396
50.3326 7.969
50.3629 7.760
50.3932 7.448
50.4235 8.229
50.4538 7.917
50.4840 9.062
50.5143 7.656
50.5446 7.396
50.5749 8.073
50.6052 8.281
50.6354 8.542
50.6657 8.594
50.6960 8.594
50.7263 8.073
50.7565 8.437
50.7868 8.698
50.8171 7.292
50.8474 9.375
50.8777 8.958
50.9079 8.490
50.9382 9.115
50.9685 7.708
50.9988 9.531
51.0291 8.802
51.0593 7.969
51.0896 7.812
51.1199 8.021
51.1502 9.167
51.1804 8.594
51.2107 8.750
51.2410 8.698
51.2713 7.344
51.3016 9.010
51.3318 8.073
51.3621 7.292
51.3924 7.344
51.4227 8.125
51.4530 7.552
51.4832 7.656
51.5135 8.125
51.5438 7.396
51.5741 8.125
51.6043 8.385
51.6346 7.552
51.6649 7.969
51.6952 5.990
51.7255 7.083
51.7557 7.760
51.7860 7.240
51.8163 7.865
51.8466 7.448
51.8769 8.333
51.9071 7.292
51.9374 6.927
51.9677 6.146
51.9980 6.198
52.0282 6.719
52.0585 6.719
52.0888 7.500
52.1191 6.823
52.1494 6.302
52.1796 6.823
52.2099 7.083
52.2402 5.573
52.2705 6.979
52.3008 6.510
52.3310 6.094
52.3613 7.292
52.3916 6.354
52.4219 6.042
52.4521 5.104
52.4824 6.354
52.5127 7.292
52.5430 6.979
52.5733 7.292
52.6035 6.250
52.6338 7.865
52.6641 5.573
52.6944 6.771
52.7247 6.198
52.7549 7.187
52.7852 5.521
52.8155 5.677
52.8458 6.562
52.8761 6.927
52.9063 5.260
52.9366 6.354
52.9669 6.146
52.9972 5.833
53.0274 6.771
53.0577 6.354
53.0880 5.104
53.1183 5.990
53.1486 6.354
53.1788 5.729
53.2091 6.562
53.2394 5.990
53.2697 5.625
53.3000 5.312
53.3302 6.667
53.3605 5.521
53.3908 5.521
53.4211 6.927
53.4513 5.781
53.4816 5.365
53.5119 5.156
53.5422 5.937
53.5725 5.312
53.6027 5.573
53.6330 5.729
53.6633 6.771
53.6936 5.417
53.7239 6.198
53.7541 5.469
53.7844 4.948
53.8147 4.271
53.8450 6.458
53.8752 5.208
53.9055 5.417
53.9358 6.146
53.9661 6.146
53.9964 5.729
54.0266 5.990
54.0569 6.302
54.0872 5.937
54.1175 5.729
54.1478 6.250
54.1780 5.521
54.2083 4.792
54.2386 6.615
54.2689 5.312
54.2991 4.896
54.3294 4.948
54.3597 5.677
54.3900 5.833
54.4203 4.948
54.4505 5.937
54.4808 5.417
54.5111 5.885
54.5414 5.417
54.5717 5.417
54.6019 4.740
54.6322 5.156
54.6625 5.625
54.6928 4.583
54.7230 4.896
54.7533 5.677
54.7836 5.573
54.8139 5.156
54.8442 5.260
54.8744 5.469
54.9047 4.479
54.9350 5.208
54.9653 4.062
54.9956 4.844
55.0258 4.844
55.0561 4.896
55.0864 5.833
55.1167 5.365
55.1469 5.000
55.1772 5.521
55.2075 6.406
55.2378 5.625
55.2681 5.365
55.2983 4.635
55.3286 5.000
55.3589 4.844
55.3892 4.323
55.4195 6.406
55.4497 5.625
55.4800 4.479
55.5103 4.687
55.5406 4.844
55.5709 5.990
55.6011 4.740
55.6314 5.000
55.6617 4.167
55.6920 4.323
55.7222 4.687
55.7525 5.573
55.7828 4.896
55.8131 3.646
55.8434 4.635
55.8736 5.208
55.9039 4.896
55.9342 5.521
55.9645 5.365
55.9948 4.896
56.0250 5.052
56.0553 3.229
56.0856 5.625
56.1159 3.698
56.1461 4.740
56.1764 4.583
56.2067 4.375
56.2370 4.375
56.2673 3.958
56.2975 4.167
56.3278 3.958
56.3581 3.385
56.3884 4.948
56.4187 3.333
56.4489 5.104
56.4792 4.792
56.5095 4.844
56.5398 4.531
56.5700 5.260
56.6003 5.156
56.6306 4.219
56.6609 3.542
56.6912 3.646
56.7214 3.906
56.7517 4.167
56.7820 4.271
56.8123 4.219
56.8426 4.375
56.8728 3.802
56.9031 3.958
56.9334 4.271
56.9637 3.802
56.9939 3.906
57.0242 4.792
57.0545 4.219
57.0848 4.844
57.1151 3.698
57.1453 3.750
57.1756 4.219
57.2059 4.323
57.2362 4.010
57.2665 4.479
57.2967 4.219
57.3270 5.156
57.3573 4.323
57.3876 3.333
57.4178 4.271
57.4481 4.792
57.4784 4.115
57.5087 3.490
57.5390 3.906
57.5692 3.750
57.5995 4.115
57.6298 4.271
57.6601 3.490
57.6904 3.490
57.7206 2.969
57.7509 3.646
57.7812 3.594
57.8115 3.854
57.8417 3.750
57.8720 4.427
57.9023 4.792
57.9326 4.167
57.9629 4.323
57.9931 4.635
58.0234 4.010
58.0537 4.271
58.0840 4.167
58.1143 3.854
58.1445 4.375
58.1748 4.740
58.2051 3.594
58.2354 3.906
58.2656 4.115
58.2959 4.219
58.3262 4.948
58.3565 4.844
58.3868 5.365
58.4170 5.729
58.4473 4.948
58.4776 5.312
58.5079 5.260
58.5382 5.312
58.5684 4.583
58.5987 5.312
58.6290 5.365
58.6593 4.635
58.6896 5.156
58.7198 4.531
58.7501 4.479
58.7804 4.271
58.8107 4.531
58.8409 4.948
58.8712 4.323
58.9015 3.958
58.9318 4.844
58.9621 4.375
58.9923 5.156
59.0226 4.219
59.0529 4.583
59.0832 4.323
59.1135 3.646
59.1437 4.062
59.1740 4.531
59.2043 5.000
59.2346 4.792
59.2648 3.542
59.2951 4.635
59.3254 4.219
59.3557 4.010
59.3860 4.479
59.4162 3.958
59.4465 5.104
59.4768 4.583
59.5071 4.062
59.5374 3.750
59.5676 5.573
59.5979 4.479
59.6282 4.531
59.6585 3.802
59.6887 4.010
59.7190 4.583
59.7493 4.115
59.7796 4.115
59.8099 3.698
59.8401 4.115
59.8704 3.906
59.9007 5.156
59.9310 4.479
59.9613 4.115
59.9915 4.531
60.0218 5.208
60.0521 4.948
60.0824 4.271
60.1126 4.375
60.1429 4.427
60.1732 4.375
60.2035 5.000
60.2338 4.427
60.2640 4.010
60.2943 4.219
60.3246 5.625
60.3549 4.531
60.3852 3.906
60.4154 4.583
60.4457 5.625
60.4760 5.156
60.5063 4.271
60.5365 4.219
60.5668 4.219
60.5971 3.906
60.6274 3.594
60.6577 4.219
60.6879 3.698
60.7182 5.365
60.7485 4.219
60.7788 4.740
60.8091 4.687
60.8393 4.583
60.8696 3.906
60.8999 5.052
60.9302 4.583
60.9604 4.635
60.9907 4.427
61.0210 4.167
61.0513 4.219
61.0816 4.740
61.1118 5.208
61.1421 4.531
61.1724 5.000
61.2027 4.635
61.2330 5.521
61.2632 4.844
61.2935 5.104
61.3238 4.896
61.3541 4.583
61.3844 4.687
61.4146 4.635
61.4449 4.687
61.4752 5.208
61.5055 4.792
61.5357 4.844
61.5660 4.740
61.5963 4.948
61.6266 4.896
61.6569 5.781
61.6871 5.156
61.7174 5.417
61.7477 5.521
61.7780 4.219
61.8083 5.625
61.8385 4.792
61.8688 6.354
61.8991 5.417
61.9294 5.260
61.9596 4.948
61.9899 5.260
62.0202 4.896
62.0505 5.521
62.0808 5.156
62.1110 4.323
62.1413 4.740
62.1716 5.729
62.2019 5.312
62.2322 5.052
62.2624 5.937
62.2927 5.104
62.3230 6.562
62.3533 5.833
62.3835 4.635
62.4138 4.896
62.4441 5.417
62.4744 5.573
62.5047 5.937
62.5349 5.469
62.5652 6.198
62.5955 5.885
62.6258 5.521
62.6561 6.458
62.6863 6.354
62.7166 5.469
62.7469 5.573
62.7772 5.781
62.8074 5.521
62.8377 6.458
62.8680 5.469
62.8983 4.792
62.9286 5.312
62.9588 5.365
62.9891 5.104
63.0194 6.042
63.0497 5.417
63.0800 6.510
63.1102 6.406
63.1405 5.677
63.1708 5.781
63.2011 5.677
63.2313 5.260
63.2616 5.000
63.2919 5.312
63.3222 5.677
63.3525 5.052
63.3827 5.208
63.4130 5.729
63.4433 5.573
63.4736 4.792
63.5039 5.104
63.5341 5.260
63.5644 5.260
63.5947 5.469
63.6250 5.469
63.6552 6.667
63.6855 5.885
63.7158 5.052
63.7461 5.156
63.7764 5.104
63.8066 5.885
63.8369 5.312
63.8672 4.844
63.8975 5.000
63.9278 5.885
63.9580 4.479
63.9883 5.417
64.0186 5.990
64.0489 5.573
64.0791 4.635
64.1094 4.948
64.1397 5.365
64.1700 5.208
64.2003 4.740
64.2305 4.792
64.2608 4.479
64.2911 5.833
64.3214 5.260
64.3517 4.896
64.3819 5.365
64.4122 5.312
64.4425 4.896
64.4728 5.469
64.5031 4.740
64.5333 5.417
64.5636 3.854
64.5939 4.219
64.6242 4.531
64.6544 5.000
64.6847 4.635
64.7150 4.583
64.7453 5.521
64.7756 5.365
64.8058 4.219
64.8361 4.375
64.8664 3.125
64.8967 4.583
64.9270 3.958
64.9572 4.792
64.9875 4.115
65.0178 4.375
65.0481 4.167
65.0783 4.167
65.1086 3.542
65.1389 3.646
65.1692 3.333
65.1995 4.219
65.2297 3.437
65.2600 2.708
65.2903 3.802
65.3206 3.802
65.3509 4.062
65.3811 3.542
65.4114 3.229
65.4417 3.333
65.4720 3.542
65.5022 3.542
65.5325 3.437
65.5628 3.281
65.5931 3.125
65.6234 3.854
65.6536 2.969
65.6839 3.281
65.7142 3.333
65.7445 2.708
65.7748 3.177
65.8050 3.281
65.8353 2.969
65.8656 3.021
65.8959 3.750
65.9261 3.333
65.9564 3.125
65.9867 3.229
66.0170 2.396
66.0473 3.073
66.0775 2.969
66.1078 3.385
66.1381 3.333
66.1684 2.865
66.1987 3.229
66.2289 2.969
66.2592 2.917
66.2895 3.229
66.3198 2.812
66.3500 3.490
66.3803 2.812
66.4106 2.865
66.4409 2.448
66.4712 2.917
66.5014 3.594
66.5317 2.865
66.5620 2.812
66.5923 2.865
66.6226 3.021
66.6528 3.490
66.6831 2.396
66.7134 3.385
66.7437 3.125
66.7739 2.448
66.8042 2.917
66.8345 2.812
66.8648 3.177
66.8951 3.073
66.9253 2.917
66.9556 2.708
66.9859 3.437
67.0162 2.604
67.0465 3.021
67.0767 2.708
67.1070 3.125
67.1373 2.917
67.1676 3.281
67.1978 2.969
67.2281 2.969
67.2584 3.073
67.2887 3.646
67.3190 3.594
67.3492 2.812
67.3795 2.865
67.4098 2.656
67.4401 3.490
67.4704 2.500
67.5006 2.552
67.5309 2.969
67.5612 2.969
67.5915 3.229
67.6218 2.865
67.6520 3.490
67.6823 2.865
67.7126 2.760
67.7429 3.125
67.7731 3.177
67.8034 2.865
67.8337 2.604
67.8640 2.604
67.8943 2.865
67.9245 2.448
67.9548 2.760
67.9851 2.708
68.0154 2.500
68.0457 2.604
68.0759 3.385
68.1062 2.760
68.1365 2.552
68.1668 3.542
68.1970 2.812
68.2273 2.240
68.2576 2.656
68.2879 2.031
68.3182 2.865
68.3484 3.125
68.3787 3.125
68.4090 2.865
68.4393 2.656
68.4696 3.125
68.4998 2.396
68.5301 2.969
68.5604 2.969
68.5907 2.917
68.6209 3.854
68.6512 3.333
68.6815 2.604
68.7118 3.281
68.7421 3.594
68.7723 3.021
68.8026 2.969
68.8329 3.125
68.8632 3.437
68.8935 2.865
68.9237 2.656
68.9540 2.969
68.9843 2.708
69.0146 2.344
69.0448 3.177
69.0751 2.917
69.1054 3.073
69.1357 2.865
69.1660 2.969
69.1962 2.708
69.2265 2.917
69.2568 3.229
69.2871 2.656
69.3174 3.490
69.3476 3.646
69.3779 3.281
69.4082 2.552
69.4385 3.229
69.4687 3.281
69.4990 2.708
69.5293 3.229
69.5596 3.490
69.5899 3.646
69.6201 2.656
69.6504 3.333
69.6807 2.448
69.7110 2.812
69.7413 2.969
69.7715 3.177
69.8018 3.490
69.8321 3.333
69.8624 3.229
69.8926 2.708
69.9229 3.125
69.9532 2.552
69.9835 3.177
70.0138 2.969
70.0440 3.385
70.0743 3.073
70.1046 2.969
70.1349 2.604
70.1652 2.292
70.1954 3.333
70.2257 2.656
70.2560 3.333
70.2863 2.865
70.3166 2.969
70.3468 3.021
70.3771 3.281
70.4074 2.708
70.4377 2.760
70.4679 2.500
70.4982 2.187
70.5285 2.760
70.5588 2.865
70.5891 3.281
70.6193 2.656
70.6496 2.760
70.6799 2.760
70.7102 2.865
70.7405 2.708
70.7707 2.656
70.8010 3.125
70.8313 2.552
70.8616 3.281
70.8918 2.969
70.9221 1.979
70.9524 2.865
70.9827 2.760
71.0130 2.604
71.0432 3.333
71.0735 3.021
71.1038 2.865
71.1341 3.437
71.1644 3.021
71.1946 3.437
71.2249 2.865
71.2552 2.448
71.2855 2.448
71.3157 2.760
71.3460 2.865
71.3763 2.656
71.4066 2.969
71.4369 3.281
71.4671 2.604
71.4974 2.656
71.5277 2.083
71.5580 2.604
71.5883 2.448
71.6185 3.229
71.6488 2.865
71.6791 2.187
71.7094 3.333
71.7396 2.240
71.7699 2.865
71.8002 2.552
71.8305 2.500
71.8608 2.604
71.8910 2.708
71.9213 3.073
71.9516 2.865
71.9819 2.656
72.0122 3.125
72.0424 3.125
72.0727 2.344
72.1030 2.448
72.1333 2.187
72.1635 3.229
72.1938 2.708
72.2241 2.396
72.2544 3.021
72.2847 2.396
72.3149 2.448
72.3452 2.292
72.3755 2.917
72.4058 2.552
72.4361 3.229
72.4663 2.708
72.4966 2.865
72.5269 2.240
72.5572 2.656
72.5874 2.656
72.6177 3.229
72.6480 2.396
72.6783 3.385
72.7086 3.073
72.7388 2.760
72.7691 2.708
72.7994 2.917
72.8297 2.604
72.8600 2.240
72.8902 2.708
72.9205 2.760
72.9508 2.031
72.9811 2.448
73.0113 3.177
73.0416 2.604
73.0719 2.865
73.1022 3.073
73.1325 3.333
73.1627 2.708
73.1930 3.073
73.2233 2.448
73.2536 3.229
73.2839 1.979
73.3141 2.760
73.3444 2.656
73.3747 2.917
73.4050 4.167
73.4353 2.917
73.4655 2.708
73.4958 4.167
73.5261 2.708
73.5564 3.698
73.5866 3.229
73.6169 2.292
73.6472 2.708
73.6775 2.500
73.7078 3.437
73.7380 2.708
73.7683 3.490
73.7986 3.385
73.8289 3.698
73.8592 2.500
73.8894 3.021
73.9197 2.917
73.9500 2.969
73.9803 2.656
74.0105 4.062
74.0408 3.073
74.0711 3.490
74.1014 3.333
74.1317 3.333
74.1619 2.812
74.1922 2.760
74.2225 3.333
74.2528 3.125
74.2831 3.594
74.3133 2.604
74.3436 2.135
74.3739 4.010
74.4042 3.646
74.4344 3.229
74.4647 3.646
74.4950 3.594
74.5253 3.177
74.5556 3.021
74.5858 3.958
74.6161 3.333
74.6464 3.437
74.6767 3.281
74.7070 3.177
74.7372 3.333
74.7675 2.865
74.7978 3.177
74.8281 2.604
74.8583 2.865
74.8886 3.229
74.9189 3.490
74.9492 3.594
74.9795 3.073
75.0097 3.281
75.0400 2.708
75.0703 3.490
75.1006 2.656
75.1309 3.177
75.1611 3.229
75.1914 3.594
75.2217 2.812
75.2520 2.396
75.2822 2.604
75.3125 3.125
75.3428 3.229
75.3731 3.437
75.4034 3.490
75.4336 2.552
75.4639 2.917
75.4942 2.917
75.5245 3.177
75.5548 3.333
75.5850 2.708
75.6153 2.812
75.6456 3.437
75.6759 2.187
75.7061 2.708
75.7364 2.917
75.7667 2.812
75.7970 2.708
75.8273 2.812
75.8575 2.917
75.8878 3.229
75.9181 3.125
75.9484 2.396
75.9787 2.396
76.0089 2.812
76.0392 3.229
76.0695 3.073
76.0998 2.865
76.1301 2.500
76.1603 2.865
76.1906 2.969
76.2209 2.448
76.2512 2.500
76.2814 2.500
76.3117 2.760
76.3420 2.760
76.3723 2.396
76.4026 2.865
76.4328 2.604
76.4631 2.760
76.4934 2.969
76.5237 2.760
76.5540 2.812
76.5842 2.604
76.6145 2.708
76.6448 2.865
76.6751 3.229
76.7053 2.031
76.7356 2.187
76.7659 2.812
76.7962 2.656
76.8265 2.448
76.8567 2.083
76.8870 2.656
76.9173 2.552
76.9476 2.031
76.9779 2.292
77.0081 2.344
77.0384 2.656
77.0687 2.708
77.0990 3.125
77.1292 2.969
77.1595 2.760
77.1898 2.344
77.2201 2.656
77.2504 2.708
77.2806 2.292
77.3109 2.187
77.3412 3.281
77.3715 2.240
77.4018 3.125
77.4320 2.396
77.4623 2.396
77.4926 2.604
77.5229 3.021
77.5531 2.344
77.5834 2.344
77.6137 3.490
77.6440 2.500
77.6743 2.187
77.7045 2.656
77.7348 2.552
77.7651 2.187
77.7954 1.771
77.8257 2.656
77.8559 2.448
77.8862 2.187
77.9165 2.865
77.9468 2.969
77.9770 2.812
78.0073 2.031
78.0376 2.344
78.0679 1.667
78.0982 2.135
78.1284 2.812
78.1587 2.396
78.1890 2.187
78.2193 2.448
78.2496 2.344
78.2798 2.760
78.3101 2.396
78.3404 2.344
78.3707 2.187
78.4009 2.604
78.4312 2.760
78.4615 2.135
78.4918 3.281
78.5221 2.135
78.5523 2.812
78.5826 3.021
78.6129 2.552
78.6432 2.135
78.6735 1.719
78.7037 2.396
78.7340 2.500
78.7643 2.604
78.7946 2.396
78.8248 2.031
78.8551 2.240
78.8854 2.917
78.9157 2.344
78.9460 2.344
78.9762 2.448
79.0065 2.604
79.0368 2.031
79.0671 1.875
79.0974 2.240
79.1276 2.917
79.1579 2.135
79.1882 2.344
79.2185 2.240
79.2488 1.979
79.2790 2.344
79.3093 2.552
79.3396 2.240
79.3699 2.344
79.4001 3.229
79.4304 2.708
79.4607 2.604
79.4910 2.708
79.5213 2.760
79.5515 2.448
79.5818 2.292
79.6121 2.187
79.6424 2.552
79.6727 2.448
79.7029 2.292
79.7332 2.760
79.7635 2.240
79.7938 2.969
79.8240 2.656
79.8543 2.500
79.8846 2.500
79.9149 2.656
79.9452 2.969
79.9754 2.031
80.0057 2.240
80.0360 2.292
80.0663 2.344
80.0966 2.708
80.1268 2.240
80.1571 2.865
80.1874 3.542
80.2177 2.292
80.2479 2.552
80.2782 2.812
80.3085 3.125
80.3388 2.083
80.3691 2.292
80.3993 2.448
80.4296 2.448
80.4599 2.448
80.4902 2.292
80.5205 2.448
80.5507 2.812
80.5810 2.604
80.6113 2.396
80.6416 3.073
80.6718 3.021
80.7021 2.865
80.7324 2.135
80.7627 2.760
80.7930 2.500
80.8232 2.552
80.8535 2.760
80.8838 2.865
80.9141 2.760
80.9444 2.604
80.9746 2.135
81.0049 2.760
81.0352 2.083
81.0655 2.500
81.0957 2.396
81.1260 2.656
81.1563 3.021
81.1866 3.490
81.2169 3.021
81.2471 2.604
81.2774 3.021
81.3077 2.500
81.3380 3.021
81.3683 2.396
81.3985 1.510
81.4288 2.917
81.4591 2.396
81.4894 3.542
81.5196 2.135
81.5499 3.125
81.5802 2.396
81.6105 2.552
81.6408 2.552
81.6710 2.187
81.7013 2.656
81.7316 2.865
81.7619 3.229
81.7922 2.083
81.8224 2.812
81.8527 2.656
81.8830 2.969
81.9133 2.240
81.9436 3.281
81.9738 2.448
82.0041 3.646
82.0344 2.552
82.0647 2.917
82.0949 2.396
82.1252 2.552
82.1555 2.708
82.1858 3.385
82.2161 3.281
82.2463 2.344
82.2766 2.292
82.3069 2.812
82.3372 2.604
82.3675 2.240
82.3977 2.500
82.4280 2.552
82.4583 2.656
82.4886 2.604
82.5188 2.448
82.5491 2.448
82.5794 2.604
82.6097 2.135
82.6400 2.760
82.6702 2.760
82.7005 2.760
82.7308 3.073
82.7611 2.969
82.7914 2.604
82.8216 2.812
82.8519 2.552
82.8822 3.125
82.9125 2.552
82.9427 3.073
82.9730 3.229
83.0033 2.656
83.0336 2.135
83.0639 2.760
83.0941 2.604
83.1244 2.396
83.1547 2.448
83.1850 3.229
83.2153 2.969
83.2455 1.719
83.2758 2.812
83.3061 2.031
83.3364 2.500
83.3666 2.292
83.3969 2.448
83.4272 2.604
83.4575 3.229
83.4878 2.708
83.5180 2.187
83.5483 2.812
83.5786 2.656
83.6089 2.187
83.6392 2.448
83.6694 3.021
83.6997 2.500
83.7300 3.490
83.7603 2.240
83.7905 2.500
83.8208 3.073
83.8511 1.979
83.8814 2.292
83.9117 2.500
83.9419 2.865
83.9722 2.187
84.0025 2.865
84.0328 2.083
84.0631 2.135
84.0933 2.917
84.1236 2.292
84.1539 2.135
84.1842 2.500
84.2144 2.292
84.2447 2.760
84.2750 2.448
84.3053 2.083
84.3356 2.917
84.3658 2.760
84.3961 2.708
84.4264 2.031
84.4567 3.490
84.4870 1.927
84.5172 2.292
84.5475 2.135
84.5778 2.500
84.6081 2.865
84.6383 2.865
84.6686 2.500
84.6989 2.708
84.7292 1.979
84.7595 2.031
84.7897 2.396
84.8200 2.708
84.8503 2.396
84.8806 2.812
84.9109 2.031
84.9411 2.604
84.9714 2.083
85.0017 2.135
85.0320 2.240
85.0623 2.969
85.0925 2.500
85.1228 2.656
85.1531 2.917
85.1834 2.500
85.2136 2.344
85.2439 2.083
85.2742 3.385
85.3045 2.760
85.3348 2.500
85.3650 2.448
85.3953 2.344
85.4256 2.396
85.4559 2.760
85.4862 2.604
85.5164 2.448
85.5467 2.656
85.5770 3.229
85.6073 2.396
85.6375 2.604
85.6678 2.552
85.6981 2.135
85.7284 2.865
85.7587 2.865
85.7889 2.656
85.8192 2.031
85.8495 2.917
85.8798 3.125
85.9101 2.240
85.9403 2.292
85.9706 2.865
86.0009 2.604
86.0312 2.708
86.0614 3.073
86.0917 2.604
86.1220 2.396
86.1523 2.552
86.1826 2.656
86.2128 2.344
86.2431 2.604
86.2734 3.125
86.3037 2.344
86.3340 2.500
86.3642 3.229
86.3945 2.500
86.4248 2.917
86.4551 2.656
86.4853 2.344
86.5156 3.021
86.5459 2.135
86.5762 2.604
86.6065 2.604
86.6367 2.865
86.6670 2.656
86.6973 2.396
86.7276 2.500
86.7579 2.812
86.7881 2.917
86.8184 3.281
86.8487 2.396
86.8790 2.969
86.9092 2.552
86.9395 2.604
86.9698 2.240
87.0001 2.292
87.0304 2.396
87.0606 2.812
87.0909 3.125
87.1212 2.240
87.1515 2.552
87.1818 3.073
87.2120 2.760
87.2423 3.229
87.2726 3.542
87.3029 2.604
87.3331 2.760
87.3634 2.760
87.3937 2.396
87.4240 3.021
87.4543 2.500
87.4845 2.448
87.5148 2.760
87.5451 2.396
87.5754 2.240
87.6057 2.240
87.6359 3.125
87.6662 2.604
87.6965 2.812
87.7268 2.396
87.7571 2.812
87.7873 2.500
87.8176 2.292
87.8479 2.604
87.8782 2.969
87.9084 2.500
87.9387 2.344
87.9690 3.333
87.9993 2.500
88.0296 2.865
88.0598 2.552
88.0901 2.135
88.1204 2.760
88.1507 2.604
88.1810 3.073
88.2112 2.500
88.2415 2.760
88.2718 3.333
88.3021 2.083
88.3323 2.292
88.3626 2.604
88.3929 2.344
88.4232 2.500
88.4535 2.812
88.4837 2.865
88.5140 2.396
88.5443 2.083
88.5746 2.812
88.6049 2.292
88.6351 2.604
88.6654 3.073
88.6957 2.604
88.7260 2.448
88.7562 2.135
88.7865 2.292
88.8168 2.760
88.8471 2.969
88.8774 2.552
88.9076 2.812
88.9379 2.656
88.9682 2.187
88.9985 1.927
89.0288 2.604
89.0590 2.865
89.0893 2.396
89.1196 2.240
89.1499 2.083
89.1801 3.073
89.2104 2.448
89.2407 2.240
89.2710 2.604
89.3013 2.344
89.3315 2.292
89.3618 2.135
89.3921 2.708
89.4224 2.500
89.4527 2.292
89.4829 2.708
89.5132 2.135
89.5435 2.083
89.5738 2.135
89.6040 2.500
89.6343 2.865
89.6646 2.708
89.6949 2.760
89.7252 1.667
89.7554 2.344
89.7857 2.344
89.8160 2.292
89.8463 2.292
89.8766 2.448
89.9068 2.500
89.9371 2.500
89.9674 2.500
89.9977 2.135
90.0279 2.604
90.0582 2.031
90.0885 2.552
90.1188 1.979
90.1491 3.125
90.1793 2.552
90.2096 2.396
90.2399 2.344
90.2702 2.604
90.3005 1.823
90.3307 1.719
90.3610 2.292
90.3913 2.760
90.4216 2.135
90.4518 2.500
90.4821 2.760
90.5124 2.396
90.5427 2.760
90.5730 2.656
90.6032 2.396
90.6335 2.500
90.6638 2.083
90.6941 2.135
90.7244 2.031
90.7546 2.865
90.7849 1.927
90.8152 2.396
90.8455 2.812
90.8758 2.292
90.9060 2.552
90.9363 2.604
90.9666 2.448
90.9969 2.031
91.0271 1.927
91.0574 2.708
91.0877 2.135
91.1180 2.344
91.1483 2.083
91.1785 2.656
91.2088 3.125
91.2391 1.771
91.2694 2.135
91.2997 2.969
91.3299 2.396
91.3602 1.823
91.3905 2.812
91.4208 1.823
91.4510 2.656
91.4813 2.396
91.5116 2.240
91.5419 3.594
91.5722 2.812
91.6024 2.396
91.6327 3.125
91.6630 2.448
91.6933 2.344
91.7236 2.448
91.7538 2.292
91.7841 2.396
91.8144 2.500
91.8447 2.760
91.8749 2.500
91.9052 2.240
91.9355 2.344
91.9658 2.292
91.9961 2.917
92.0263 2.969
92.0566 2.604
92.0869 2.708
92.1172 2.292
92.1475 2.656
92.1777 1.771
92.2080 2.292
92.2383 2.396
92.2686 2.500
92.2988 2.552
92.3291 2.552
92.3594 2.656
92.3897 2.031
92.4200 2.187
92.4502 2.604
92.4805 2.552
92.5108 2.083
92.5411 2.135
92.5714 2.969
92.6016 2.604
92.6319 2.240
92.6622 2.865
92.6925 3.698
92.7227 2.865
92.7530 2.656
92.7833 2.448
92.8136 2.865
92.8439 2.500
92.8741 2.812
92.9044 2.656
92.9347 2.656
92.9650 2.187
92.9953 2.656
93.0255 2.083
93.0558 2.656
93.0861 2.135
93.1164 1.771
93.1466 2.083
93.1769 2.240
93.2072 2.344
93.2375 2.656
93.2678 2.760
93.2980 1.979
93.3283 2.292
93.3586 2.448
93.3889 2.604
93.4192 2.656
93.4494 2.656
93.4797 2.865
93.5100 2.292
93.5403 1.927
93.5706 2.604
93.6008 2.344
93.6311 2.552
93.6614 2.240
93.6917 1.771
93.7219 2.135
93.7522 2.500
93.7825 2.865
93.8128 2.292
93.8431 1.354
93.8733 2.760
93.9036 1.875
93.9339 2.187
93.9642 2.083
93.9945 2.292
94.0247 2.240
94.0550 2.083
94.0853 3.177
94.1156 2.448
94.1458 2.500
94.1761 2.083
94.2064 2.240
94.2367 2.865
94.2670 2.865
94.2972 2.344
94.3275 2.135
94.3578 2.187
94.3881 2.344
94.4184 2.448
94.4486 2.500
94.4789 1.771
94.5092 2.031
94.5395 2.135
94.5697 2.448
94.6000 2.083
94.6303 2.760
94.6606 1.823
94.6909 2.187
94.7211 2.552
94.7514 2.292
94.7817 2.396
94.8120 1.667
94.8423 2.708
94.8725 2.448
94.9028 1.979
94.9331 2.604
94.9634 2.552
94.9936 2.448
95.0239 2.344
95.0542 2.396
95.0845 2.656
95.1148 2.552
95.1450 1.875
95.1753 2.760
95.2056 1.719
95.2359 1.823
95.2662 2.708
95.2964 2.240
95.3267 2.187
95.3570 2.083
95.3873 1.979
95.4175 2.240
95.4478 2.448
95.4781 1.719
95.5084 2.187
95.5387 3.229
95.5689 1.979
95.5992 1.927
95.6295 2.344
95.6598 1.979
95.6901 2.708
95.7203 1.875
95.7506 2.708
95.7809 2.240
95.8112 1.771
95.8414 2.187
95.8717 2.344
95.9020 2.656
95.9323 2.604
95.9626 2.240
95.9928 2.240
96.0231 2.656
96.0534 2.083
96.0837 2.812
96.1140 1.771
96.1442 1.979
96.1745 1.823
96.2048 2.031
96.2351 2.083
96.2653 1.875
96.2956 1.875
96.3259 2.240
96.3562 2.292
96.3865 2.604
96.4167 2.656
96.4470 3.385
96.4773 2.760
96.5076 2.135
96.5379 3.073
96.5681 2.031
96.5984 2.344
96.6287 2.656
96.6590 2.396
96.6893 2.656
96.7195 3.073
96.7498 2.812
96.7801 2.292
96.8104 1.875
96.8406 2.344
96.8709 2.552
96.9012 2.240
96.9315 1.771
96.9618 2.500
96.9920 2.760
97.0223 2.240
97.0526 2.240
97.0829 2.135
97.1132 3.073
97.1434 2.344
97.1737 2.240
97.2040 2.917
97.2343 2.760
97.2645 2.708
97.2948 2.552
97.3251 3.125
97.3554 2.448
97.3857 3.073
97.4159 3.281
97.4462 2.604
97.4765 2.083
97.5068 2.240
97.5371 2.708
97.5673 2.292
97.5976 2.396
97.6279 2.760
97.6582 2.500
97.6884 2.344
97.7187 2.135
97.7490 2.760
97.7793 2.344
97.8096 2.604
97.8398 1.719
97.8701 2.292
97.9004 2.708
97.9307 2.240
97.9610 2.812
97.9912 2.344
98.0215 2.396
98.0518 2.187
98.0821 2.448
98.1123 2.240
98.1426 1.771
98.1729 2.083
98.2032 1.771
98.2335 2.604
98.2637 1.771
98.2940 2.500
98.3243 1.927
98.3546 2.396
98.3849 2.135
98.4151 2.604
98.4454 2.135
98.4757 2.083
98.5060 2.292
98.5362 2.240
98.5665 2.552
98.5968 2.396
98.6271 2.292
98.6574 1.979
98.6876 2.708
98.7179 2.656
98.7482 2.240
98.7785 2.760
98.8088 1.771
98.8390 2.604
98.8693 2.448
98.8996 2.552
98.9299 1.927
98.9601 1.823
98.9904 2.292
99.0207 3.021
99.0510 2.448
99.0813 2.292
99.1115 1.823
99.1418 2.604
99.1721 2.812
99.2024 2.604
99.2327 2.448
99.2629 2.083
99.2932 2.396
99.3235 2.240
99.3538 2.708
99.3841 2.240
99.4143 2.760
99.4446 2.344
99.4749 1.875
99.5052 1.615
99.5354 2.760
99.5657 2.292
99.5960 2.292
99.6263 2.344
99.6566 2.500
99.6868 1.875
99.7171 1.979
99.7474 2.708
99.7777 2.292
99.8080 2.448
99.8382 2.969
99.8685 2.917
99.8988 1.771
99.9291 2.344
99.9593 2.240
99.9896 1.823
100.0199 1.615
100.0502 2.865
100.0805 1.979
100.1107 2.396
100.1410 2.448
100.1713 1.823
100.2016 1.667
100.2319 2.187
100.2621 1.615
100.2924 2.240
100.3227 1.823
100.3530 2.604
100.3832 1.719
100.4135 1.875
100.4438 2.083
100.4741 2.240
100.5044 2.344
100.5346 1.771
100.5649 2.812
100.5952 2.187
100.6255 2.187
100.6558 2.292
100.6860 1.771
100.7163 2.135
100.7466 1.875
100.7769 2.448
100.8071 2.031
100.8374 2.240
100.8677 2.708
100.8980 2.500
100.9283 2.396
100.9585 2.187
100.9888 2.552
101.0191 1.875
101.0494 2.083
101.0797 2.396
101.1099 2.135
101.1402 2.396
101.1705 2.083
101.2008 1.979
101.2310 2.083
101.2613 3.073
101.2916 1.875
101.3219 2.083
101.3522 1.667
101.3824 2.187
101.4127 1.875
101.4430 1.875
101.4733 1.615
101.5036 2.604
101.5338 2.396
101.5641 1.667
101.5944 2.604
101.6247 2.031
101.6549 2.344
101.6852 2.135
101.7155 2.135
101.7458 2.344
101.7761 2.187
101.8063 2.812
101.8366 1.562
101.8669 2.500
101.8972 1.979
101.9275 2.396
101.9577 2.031
101.9880 1.823
102.0183 2.031
102.0486 2.396
102.0788 2.396
102.1091 1.771
102.1394 1.667
102.1697 2.135
102.2000 2.292
102.2302 2.240
102.2605 1.667
102.2908 2.187
102.3211 2.708
102.3514 1.979
102.3816 2.292
102.4119 2.031
102.4422 3.125
102.4725 2.448
102.5028 2.552
102.5330 1.875
102.5633 2.031
102.5936 1.771
102.6239 1.927
102.6541 1.615
102.6844 1.979
102.7147 1.927
102.7450 2.344
102.7753 1.771
102.8055 2.812
102.8358 2.240
102.8661 1.250
102.8964 1.823
102.9267 1.562
102.9569 2.604
102.9872 1.823
103.0175 1.927
103.0478 2.448
103.0780 2.083
103.1083 1.979
103.1386 2.187
103.1689 2.135
103.1992 2.240
103.2294 1.979
103.2597 1.771
103.2900 1.979
103.3203 2.292
103.3506 2.031
103.3808 1.771
103.4111 1.979
103.4414 2.240
103.4717 1.562
103.5019 1.823
103.5322 2.240
103.5625 1.927
103.5928 1.667
103.6231 1.719
103.6533 1.719
103.6836 2.760
103.7139 1.979
103.7442 2.135
103.7745 1.927
103.8047 2.344
103.8350 1.615
103.8653 1.458
103.8956 1.771
103.9258 1.406
103.9561 2.760
103.9864 1.667
104.0167 1.823
104.0470 2.396
104.0772 1.562
104.1075 2.500
104.1378 1.927
104.1681 2.500
104.1984 2.552
104.2286 1.927
104.2589 2.396
104.2892 2.031
104.3195 2.240
104.3497 2.240
104.3800 2.083
104.4103 1.719
104.4406 1.927
104.4709 2.083
104.5011 2.135
104.5314 1.719
104.5617 1.719
104.5920 1.979
104.6223 2.656
104.6525 2.240
104.6828 1.771
104.7131 1.667
104.7434 1.823
104.7736 1.406
104.8039 1.875
104.8342 1.615
104.8645 1.979
104.8948 1.979
104.9250 2.396
104.9553 2.552
104.9856 1.875
105.0159 2.187
105.0462 2.240
105.0764 1.979
105.1067 2.292
105.1370 1.927
105.1673 2.344
105.1975 2.344
105.2278 2.031
105.2581 2.396
105.2884 1.615
105.3187 2.396
105.3489 1.927
105.3792 1.979
105.4095 1.823
105.4398 2.344
105.4701 2.552
105.5003 2.344
105.5306 2.552
105.5609 2.083
105.5912 1.875
105.6215 1.823
105.6517 1.719
105.6820 1.719
105.7123 2.031
105.7426 2.812
105.7728 2.135
105.8031 1.875
105.8334 1.615
105.8637 2.031
105.8940 2.031
105.9242 1.771
105.9545 1.615
105.9848 2.031
106.0151 2.917
106.0454 1.771
106.0756 1.719
106.1059 2.031
106.1362 1.719
106.1665 1.510
106.1967 2.396
106.2270 2.240
106.2573 1.771
106.2876 1.667
106.3179 2.240
106.3481 2.031
106.3784 2.031
106.4087 2.656
106.4390 1.510
106.4693 1.927
106.4995 2.500
106.5298 2.135
106.5601 1.615
106.5904 2.187
106.6206 2.031
106.6509 2.448
106.6812 1.510
106.7115 2.083
106.7418 1.979
106.7720 2.031
106.8023 2.240
106.8326 1.719
106.8629 2.135
106.8932 1.927
106.9234 1.250
106.9537 1.771
106.9840 1.771
107.0143 2.396
107.0445 2.396
107.0748 2.083
107.1051 2.396
107.1354 1.979
107.1657 1.302
107.1959 2.031
107.2262 2.031
107.2565 1.875
107.2868 2.083
107.3171 2.344
107.3473 2.240
107.3776 2.083
107.4079 1.979
107.4382 2.344
107.4684 1.979
107.4987 1.667
107.5290 2.656
107.5593 2.135
107.5896 2.031
107.6198 1.667
107.6501 2.240
107.6804 1.875
107.7107 1.771
107.7410 1.667
107.7712 2.344
107.8015 2.396
107.8318 1.615
107.8621 1.719
107.8923 2.292
107.9226 2.396
107.9529 2.708
107.9832 2.083
108.0135 1.927
108.0437 2.135
108.0740 2.604
108.1043 1.406
108.1346 2.031
108.1649 2.135
108.1951 1.719
108.2254 1.562
108.2557 2.135
108.2860 2.240
108.3163 1.979
108.3465 1.667
108.3768 2.135
108.4071 1.823
108.4374 2.656
108.4676 2.031
108.4979 1.667
108.5282 2.135
108.5585 2.031
108.5888 1.823
108.6190 2.344
108.6493 2.135
108.6796 2.552
108.7099 2.240
108.7402 1.979
108.7704 1.875
108.8007 2.656
108.8310 1.823
108.8613 1.302
108.8915 2.135
108.9218 2.448
108.9521 1.979
108.9824 2.135
109.0127 2.031
109.0429 2.240
109.0732 2.396
109.1035 1.979
109.1338 1.198
109.1641 1.719
109.1943 2.187
109.2246 2.187
109.2549 1.875
109.2852 2.448
109.3154 1.562
109.3457 2.187
109.3760 1.875
109.4063 2.292
109.4366 2.187
109.4668 1.823
109.4971 2.448
109.5274 2.031
109.5577 1.615
109.5880 1.771
109.6182 2.552
109.6485 1.823
109.6788 1.927
109.7091 1.927
109.7393 2.031
109.7696 2.031
109.7999 1.771
109.8302 2.448
109.8605 1.823
109.8907 2.083
109.9210 1.562
109.9513 1.875
109.9816 2.552
110.0119 1.927
110.0421 2.552
110.0724 2.344
110.1027 2.187
110.1330 1.979
110.1632 1.510
110.1935 2.083
110.2238 2.135
110.2541 1.667
110.2844 1.823
110.3146 1.875
110.3449 2.240
110.3752 1.823
110.4055 2.031
110.4358 1.875
110.4660 2.083
110.4963 2.500
110.5266 2.135
110.5569 1.823
110.5871 2.604
110.6174 2.240
110.6477 2.604
110.6780 2.240
110.7083 1.979
110.7385 1.875
110.7688 2.344
110.7991 2.604
110.8294 2.187
110.8597 1.615
110.8899 1.562
110.9202 2.240
110.9505 1.458
110.9808 2.344
111.0110 1.823
111.0413 2.187
111.0716 1.823
111.1019 2.344
111.1322 1.875
111.1624 1.979
111.1927 1.667
111.2230 1.979
111.2533 1.250
111.2836 2.187
111.3138 1.771
111.3441 2.083
111.3744 1.875
111.4047 1.406
111.4350 2.240
111.4652 2.240
111.4955 1.667
111.5258 2.448
111.5561 1.875
111.5863 2.396
111.6166 1.406
111.6469 1.979
111.6772 2.031
111.7075 2.656
111.7377 2.031
111.7680 1.719
111.7983 1.562
111.8286 1.458
111.8589 2.031
111.8891 2.083
111.9194 1.927
111.9497 2.083
111.9800 2.083
112.0102 1.719
112.0405 1.823
112.0708 1.615
112.1011 2.240
112.1314 1.927
112.1616 2.135
112.1919 2.396
112.2222 1.875
112.2525 1.979
112.2828 2.083
112.3130 1.615
112.3433 2.396
112.3736 2.396
112.4039 1.458
112.4341 2.448
112.4644 2.292
112.4947 1.771
112.5250 2.187
112.5553 2.656
112.5855 1.875
112.6158 1.510
112.6461 1.823
112.6764 2.604
112.7067 1.823
112.7369 2.031
112.7672 1.875
112.7975 1.771
112.8278 1.719
112.8580 2.708
112.8883 2.344
112.9186 2.083
112.9489 2.448
112.9792 2.240
113.0094 1.979
113.0397 1.354
113.0700 1.771
113.1003 2.396
113.1306 1.719
113.1608 1.979
113.1911 2.031
113.2214 2.344
113.2517 1.771
113.2819 2.448
113.3122 1.615
113.3425 2.187
113.3728 2.292
113.4031 2.187
113.4333 2.500
113.4636 2.448
113.4939 1.823
113.5242 2.135
113.5545 2.292
113.5847 2.135
113.6150 1.823
113.6453 2.292
113.6756 1.927
113.7058 2.083
113.7361 2.187
113.7664 1.823
113.7967 2.031
113.8270 2.448
113.8572 1.667
113.8875 1.771
113.9178 1.875
113.9481 1.823
113.9784 2.708
114.0086 1.927
114.0389 2.708
114.0692 2.500
114.0995 1.719
114.1298 1.406
114.1600 1.979
114.1903 1.927
114.2206 2.240
114.2509 1.771
114.2811 1.719
114.3114 2.240
114.3417 1.719
114.3720 2.240
114.4023 1.875
114.4325 1.406
114.4628 1.615
114.4931 2.187
114.5234 2.292
114.5537 2.187
114.5839 2.135
114.6142 1.510
114.6445 2.031
114.6748 2.031
114.7050 1.510
114.7353 1.615
114.7656 1.875
114.7959 1.927
114.8262 1.615
114.8564 1.927
114.8867 2.135
114.9170 2.031
114.9473 2.031
114.9776 2.552
115.0078 1.615
115.0381 2.500
115.0684 1.771
115.0987 1.562
115.1289 2.656
115.1592 2.396
115.1895 1.979
115.2198 2.083
115.2501 2.135
115.2803 1.875
115.3106 2.760
115.3409 2.135
115.3712 2.604
115.4015 2.135
115.4317 1.667
115.4620 2.240
115.4923 1.406
115.5226 2.187
115.5528 1.615
115.5831 2.083
115.6134 1.562
115.6437 2.187
115.6740 1.875
115.7042 2.760
115.7345 2.396
115.7648 2.969
115.7951 1.875
115.8254 1.615
115.8556 2.604
115.8859 2.135
115.9162 2.083
115.9465 2.448
115.9767 1.927
116.0070 2.083
116.0373 2.812
116.0676 1.979
116.0979 1.927
116.1281 1.719
116.1584 2.760
116.1887 2.708
116.2190 2.656
116.2493 1.875
116.2795 2.135
116.3098 2.240
116.3401 2.187
116.3704 2.292
116.4006 2.865
116.4309 1.875
116.4612 1.979
116.4915 2.448
116.5218 1.667
116.5520 2.031
116.5823 2.760
116.6126 2.240
116.6429 2.240
116.6732 2.292
116.7034 2.292
116.7337 1.667
116.7640 1.667
116.7943 2.135
116.8245 1.823
116.8548 2.292
116.8851 2.448
116.9154 2.448
116.9457 2.083
116.9759 2.187
117.0062 1.615
117.0365 2.031
117.0668 2.344
117.0971 1.927
117.1273 2.292
117.1576 2.187
117.1879 2.292
117.2182 2.031
117.2485 2.187
117.2787 1.667
117.3090 2.031
117.3393 1.771
117.3696 1.823
117.3998 2.708
117.4301 2.240
117.4604 2.344
117.4907 2.396
117.5210 1.562
117.5512 2.083
117.5815 2.448
117.6118 1.875
117.6421 2.812
117.6724 2.083
117.7026 2.031
117.7329 2.083
117.7632 1.615
117.7935 1.667
117.8237 2.240
117.8540 2.448
117.8843 2.083
117.9146 2.083
117.9449 1.927
117.9751 2.031
118.0054 1.719
118.0357 2.083
118.0660 2.135
118.0963 1.562
118.1265 1.823
118.1568 1.927
118.1871 2.135
118.2174 2.240
118.2476 2.917
118.2779 2.240
118.3082 1.979
118.3385 2.031
118.3688 2.031
118.3990 2.083
118.4293 1.979
118.4596 3.125
118.4899 2.500
118.5202 1.927
118.5504 2.135
118.5807 2.135
118.6110 2.760
118.6413 2.135
118.6715 1.823
118.7018 2.135
118.7321 1.875
118.7624 2.135
118.7927 2.396
118.8229 1.771
118.8532 1.615
118.8835 1.927
118.9138 2.083
118.9441 2.083
118.9743 1.771
119.0046 2.187
119.0349 2.135
119.0652 2.240
119.0954 2.187
119.1257 2.344
119.1560 2.135
119.1863 1.667
119.2166 1.458
119.2468 1.927
119.2771 2.708
119.3074 1.667
119.3377 1.667
119.3680 1.979
119.3982 1.823
119.4285 2.187
119.4588 2.240
119.4891 1.979
119.5193 2.969
119.5496 2.031
119.5799 1.979
119.6102 1.979
119.6405 1.719
119.6707 2.031
119.7010 2.396
119.7313 2.083
119.7616 1.823
119.7919 2.448
119.8221 1.875
119.8524 2.240
119.8827 1.823
119.9130 2.396
119.9433 2.344
119.9735 2.292
120.0038 1.823
