'Id: "" Comment: "" Operator: "Lab Manager" Anode: "Cu" Scantype: "Locked Coupled" TimePerStep: "19.2" X: "9999" Y: "9999" Z: "9999" 
10.0015 3.125
10.0318 3.594
10.0620 3.594
10.0923 3.594
10.1226 3.698
10.1529 3.854
10.1832 3.229
10.2134 3.333
10.2437 3.437
10.2740 3.385
10.3043 3.854
10.3346 4.062
10.3648 4.010
10.3951 3.646
10.4254 3.698
10.4557 3.333
10.4859 3.750
10.5162 4.219
10.5465 4.844
10.5768 3.490
10.6071 4.375
10.6373 3.906
10.6676 3.333
10.6979 4.323
10.7282 4.271
10.7585 3.802
10.7887 3.385
10.8190 4.844
10.8493 6.354
10.8796 5.937
10.9098 6.406
10.9401 7.604
10.9704 7.708
11.0007 8.542
11.0310 10.625
11.0612 11.927
11.0915 11.406
11.1218 11.562
11.1521 12.135
11.1824 10.312
11.2126 9.167
11.2429 6.927
11.2732 6.458
11.3035 6.302
11.3337 4.687
11.3640 5.208
11.3943 3.906
11.4246 3.437
11.4549 2.760
11.4851 3.802
11.5154 3.437
11.5457 3.594
11.5760 3.750
11.6063 3.698
11.6365 3.958
11.6668 3.594
11.6971 4.115
11.7274 3.802
11.7577 4.427
11.7879 2.812
11.8182 3.437
11.8485 4.844
11.8788 3.750
11.9090 3.437
11.9393 4.062
11.9696 3.958
11.9999 4.219
12.0302 3.542
12.0604 2.760
12.0907 3.698
12.1210 3.750
12.1513 3.229
12.1816 3.177
12.2118 2.865
12.2421 3.698
12.2724 3.281
12.3027 3.490
12.3329 2.708
12.3632 3.073
12.3935 3.698
12.4238 2.917
12.4541 3.646
12.4843 3.854
12.5146 4.375
12.5449 2.969
12.5752 3.281
12.6055 4.062
12.6357 2.552
12.6660 3.125
12.6963 3.333
12.7266 3.385
12.7568 3.646
12.7871 3.490
12.8174 3.073
12.8477 2.969
12.8780 3.750
12.9082 3.906
12.9385 3.646
12.9688 3.125
12.9991 3.958
13.0294 3.437
13.0596 3.385
13.0899 3.802
13.1202 2.760
13.1505 3.073
13.1807 2.917
13.2110 2.917
13.2413 2.708
13.2716 2.187
13.3019 3.490
13.3321 2.344
13.3624 3.437
13.3927 3.385
13.4230 2.448
13.4533 2.656
13.4835 2.917
13.5138 2.708
13.5441 3.646
13.5744 2.135
13.6046 2.240
13.6349 3.281
13.6652 3.437
13.6955 2.552
13.7258 3.125
13.7560 3.021
13.7863 2.917
13.8166 2.135
13.8469 2.656
13.8772 2.448
13.9074 2.865
13.9377 2.292
13.9680 2.760
13.9983 3.333
14.0285 1.823
14.0588 3.021
14.0891 2.969
14.1194 2.448
14.1497 1.823
14.1799 2.500
14.2102 3.229
14.2405 2.500
14.2708 2.708
14.3011 3.490
14.3313 2.135
14.3616 2.500
14.3919 2.344
14.4222 2.969
14.4524 1.823
14.4827 2.760
14.5130 2.135
14.5433 2.604
14.5736 2.760
14.6038 3.333
14.6341 3.385
14.6644 2.240
14.6947 2.760
14.7250 2.448
14.7552 2.500
14.7855 2.344
14.8158 2.604
14.8461 2.656
14.8764 2.552
14.9066 2.500
14.9369 2.187
14.9672 2.656
14.9975 1.979
15.0277 1.979
15.0580 2.969
15.0883 2.083
15.1186 2.865
15.1489 2.448
15.1791 2.708
15.2094 2.240
15.2397 2.552
15.2700 3.333
15.3003 2.448
15.3305 2.552
15.3608 1.823
15.3911 2.760
15.4214 2.552
15.4516 2.656
15.4819 1.823
15.5122 2.135
15.5425 2.500
15.5728 2.500
15.6030 2.083
15.6333 2.760
15.6636 2.187
15.6939 2.812
15.7242 2.760
15.7544 2.448
15.7847 2.656
15.8150 2.292
15.8453 2.344
15.8755 2.396
15.9058 2.396
15.9361 2.083
15.9664 2.552
15.9967 2.448
16.0269 2.448
16.0572 2.604
16.0875 2.656
16.1178 2.552
16.1481 2.240
16.1783 2.187
16.2086 3.073
16.2389 2.396
16.2692 2.708
16.2994 2.344
16.3297 2.448
16.3600 2.240
16.3903 2.656
16.4206 2.917
16.4508 2.187
16.4811 3.073
16.5114 2.031
16.5417 2.292
16.5720 2.292
16.6022 2.083
16.6325 2.083
16.6628 2.760
16.6931 2.604
16.7233 2.240
16.7536 2.083
16.7839 2.708
16.8142 2.708
16.8445 2.083
16.8747 2.240
16.9050 2.031
16.9353 2.135
16.9656 2.500
16.9959 2.344
17.0261 2.187
17.0564 2.344
17.0867 2.552
17.1170 2.240
17.1472 2.396
17.1775 2.240
17.2078 1.823
17.2381 2.083
17.2684 2.969
17.2986 2.708
17.3289 2.292
17.3592 2.083
17.3895 2.135
17.4198 2.292
17.4500 2.187
17.4803 2.708
17.5106 2.240
17.5409 2.135
17.5712 3.021
17.6014 2.031
17.6317 2.448
17.6620 2.240
17.6923 2.500
17.7225 1.771
17.7528 3.021
17.7831 1.875
17.8134 1.771
17.8437 2.656
17.8739 2.240
17.9042 2.135
17.9345 1.823
17.9648 1.979
17.9951 2.031
18.0253 2.083
18.0556 2.760
18.0859 2.344
18.1162 2.344
18.1464 2.187
18.1767 1.562
18.2070 2.396
18.2373 2.240
18.2676 1.823
18.2978 2.344
18.3281 3.177
18.3584 2.604
18.3887 1.510
18.4190 2.448
18.4492 2.083
18.4795 2.187
18.5098 1.719
18.5401 2.292
18.5703 2.708
18.6006 2.500
18.6309 3.125
18.6612 2.031
18.6915 2.031
18.7217 1.302
18.7520 2.292
18.7823 2.396
18.8126 1.719
18.8429 2.396
18.8731 2.500
18.9034 2.187
18.9337 1.823
18.9640 1.979
18.9942 1.719
19.0245 1.823
19.0548 2.135
19.0851 1.823
19.1154 2.240
19.1456 1.927
19.1759 1.458
19.2062 1.719
19.2365 1.875
19.2668 2.187
19.2970 1.979
19.3273 2.396
19.3576 2.135
19.3879 1.771
19.4181 2.187
19.4484 1.562
19.4787 1.979
19.5090 2.083
19.5393 1.667
19.5695 1.719
19.5998 2.396
19.6301 1.823
19.6604 2.187
19.6907 1.823
19.7209 2.187
19.7512 1.771
19.7815 2.292
19.8118 2.396
19.8420 1.927
19.8723 1.719
19.9026 1.927
19.9329 2.656
19.9632 2.656
19.9934 1.771
20.0237 1.719
20.0540 1.927
20.0843 1.979
20.1146 1.719
20.1448 2.500
20.1751 2.187
20.2054 2.135
20.2357 1.875
20.2659 1.771
20.2962 1.771
20.3265 2.396
20.3568 1.667
20.3871 2.031
20.4173 2.031
20.4476 2.031
20.4779 2.240
20.5082 2.083
20.5385 2.604
20.5687 1.927
20.5990 2.292
20.6293 1.875
20.6596 1.979
20.6899 1.771
20.7201 1.615
20.7504 2.448
20.7807 2.604
20.8110 1.719
20.8412 2.083
20.8715 1.667
20.9018 1.771
20.9321 2.031
20.9624 1.823
20.9926 2.187
21.0229 1.875
21.0532 1.354
21.0835 1.250
21.1138 2.135
21.1440 1.771
21.1743 2.083
21.2046 1.510
21.2349 1.823
21.2651 1.250
21.2954 1.146
21.3257 1.979
21.3560 2.292
21.3863 1.927
21.4165 1.667
21.4468 2.292
21.4771 1.927
21.5074 2.135
21.5377 1.823
21.5679 1.979
21.5982 2.031
21.6285 1.406
21.6588 1.771
21.6890 1.667
21.7193 1.458
21.7496 1.979
21.7799 1.771
21.8102 1.615
21.8404 1.823
21.8707 1.406
21.9010 1.510
21.9313 1.771
21.9616 2.187
21.9918 2.031
22.0221 2.396
22.0524 1.458
22.0827 1.719
22.1129 1.979
22.1432 2.240
22.1735 1.562
22.2038 1.927
22.2341 1.927
22.2643 1.406
22.2946 1.875
22.3249 1.615
22.3552 1.458
22.3855 2.135
22.4157 2.031
22.4460 1.927
22.4763 1.458
22.5066 2.187
22.5368 2.240
22.5671 1.667
22.5974 2.396
22.6277 2.344
22.6580 2.187
22.6882 1.562
22.7185 1.146
22.7488 1.354
22.7791 2.031
22.8094 1.771
22.8396 1.979
22.8699 2.448
22.9002 1.927
22.9305 1.354
22.9607 1.667
22.9910 1.510
23.0213 1.458
23.0516 1.719
23.0819 1.406
23.1121 1.406
23.1424 2.187
23.1727 1.771
23.2030 1.406
23.2333 1.927
23.2635 1.927
23.2938 2.135
23.3241 1.979
23.3544 1.354
23.3846 1.979
23.4149 1.562
23.4452 1.927
23.4755 1.771
23.5058 1.667
23.5360 1.510
23.5663 1.458
23.5966 1.562
23.6269 1.302
23.6572 2.031
23.6874 1.875
23.7177 2.031
23.7480 1.510
23.7783 1.719
23.8086 1.615
23.8388 1.406
23.8691 2.552
23.8994 1.615
23.9297 1.667
23.9599 1.719
23.9902 1.719
24.0205 2.031
24.0508 1.719
24.0811 1.927
24.1113 1.510
24.1416 1.667
24.1719 1.719
24.2022 1.562
24.2325 1.510
24.2627 1.615
24.2930 1.406
24.3233 1.562
24.3536 1.562
24.3838 1.406
24.4141 2.031
24.4444 1.875
24.4747 1.875
24.5050 1.354
24.5352 2.187
24.5655 2.292
24.5958 1.719
24.6261 1.302
24.6564 1.615
24.6866 1.823
24.7169 1.302
24.7472 1.927
24.7775 1.927
24.8077 1.667
24.8380 1.458
24.8683 1.146
24.8986 1.771
24.9289 2.031
24.9591 1.823
24.9894 1.979
25.0197 1.771
25.0500 1.667
25.0803 1.823
25.1105 1.302
25.1408 1.719
25.1711 1.406
25.2014 1.198
25.2316 1.510
25.2619 1.458
25.2922 2.292
25.3225 1.875
25.3528 1.667
25.3830 1.771
25.4133 1.406
25.4436 1.927
25.4739 1.094
25.5042 2.031
25.5344 2.292
25.5647 1.875
25.5950 2.135
25.6253 2.292
25.6555 1.458
25.6858 1.875
25.7161 1.771
25.7464 1.510
25.7767 1.615
25.8069 2.135
25.8372 1.823
25.8675 1.354
25.8978 1.458
25.9281 2.187
25.9583 1.250
25.9886 1.667
26.0189 1.719
26.0492 1.667
26.0794 2.031
26.1097 1.875
26.1400 1.562
26.1703 1.615
26.2006 1.823
26.2308 1.615
26.2611 1.979
26.2914 2.083
26.3217 1.302
26.3520 1.875
26.3822 1.615
26.4125 2.031
26.4428 1.250
26.4731 1.615
26.5034 1.927
26.5336 1.979
26.5639 1.354
26.5942 1.406
26.6245 1.458
26.6547 1.094
26.6850 1.354
26.7153 1.562
26.7456 1.927
26.7759 1.719
26.8061 1.667
26.8364 1.562
26.8667 1.146
26.8970 1.979
26.9273 1.562
26.9575 1.927
26.9878 2.448
27.0181 2.083
27.0484 1.615
27.0786 2.552
27.1089 1.719
27.1392 1.979
27.1695 1.198
27.1998 2.083
27.2300 2.031
27.2603 1.562
27.2906 2.344
27.3209 1.562
27.3512 1.771
27.3814 1.875
27.4117 2.240
27.4420 2.031
27.4723 1.719
27.5025 1.823
27.5328 1.771
27.5631 1.094
27.5934 1.875
27.6237 2.396
27.6539 1.771
27.6842 2.135
27.7145 1.615
27.7448 1.979
27.7751 2.083
27.8053 1.667
27.8356 1.458
27.8659 2.448
27.8962 1.979
27.9264 1.771
27.9567 2.135
27.9870 1.771
28.0173 2.240
28.0476 1.771
28.0778 1.823
28.1081 1.927
28.1384 1.719
28.1687 1.771
28.1990 1.927
28.2292 1.875
28.2595 2.292
28.2898 2.240
28.3201 1.875
28.3503 1.562
28.3806 2.344
28.4109 2.135
28.4412 2.083
28.4715 1.927
28.5017 1.823
28.5320 1.354
28.5623 1.198
28.5926 2.292
28.6229 2.187
28.6531 1.771
28.6834 2.187
28.7137 2.604
28.7440 1.823
28.7742 1.979
28.8045 3.125
28.8348 1.302
28.8651 2.031
28.8954 1.875
28.9256 2.240
28.9559 1.771
28.9862 2.083
29.0165 2.604
29.0468 2.448
29.0770 1.667
29.1073 2.448
29.1376 2.031
29.1679 1.615
29.1981 2.812
29.2284 2.240
29.2587 1.823
29.2890 2.031
29.3193 1.875
29.3495 1.562
29.3798 1.979
29.4101 2.656
29.4404 1.771
29.4707 2.031
29.5009 2.344
29.5312 3.177
29.5615 1.771
29.5918 2.500
29.6221 2.396
29.6523 2.708
29.6826 2.448
29.7129 2.552
29.7432 2.500
29.7734 1.719
29.8037 2.448
29.8340 2.292
29.8643 2.135
29.8946 1.823
29.9248 2.187
29.9551 2.760
29.9854 2.083
30.0157 2.031
30.0460 2.656
30.0762 2.500
30.1065 2.187
30.1368 2.812
30.1671 2.135
30.1973 2.240
30.2276 2.760
30.2579 2.969
30.2882 3.490
30.3185 2.969
30.3487 2.865
30.3790 2.552
30.4093 2.240
30.4396 3.177
30.4699 2.760
30.5001 2.135
30.5304 2.969
30.5607 3.281
30.5910 2.917
30.6212 3.906
30.6515 3.854
30.6818 4.010
30.7121 3.906
30.7424 3.542
30.7726 2.917
30.8029 4.635
30.8332 4.271
30.8635 4.635
30.8938 4.010
30.9240 4.583
30.9543 4.323
30.9846 5.052
31.0149 5.729
31.0451 6.615
31.0754 5.677
31.1057 6.875
31.1360 7.240
31.1663 7.604
31.1965 7.969
31.2268 8.594
31.2571 10.000
31.2874 10.781
31.3177 11.562
31.3479 12.917
31.3782 12.917
31.4085 15.312
31.4388 17.552
31.4690 18.698
31.4993 22.917
31.5296 22.760
31.5599 24.635
31.5902 25.156
31.6204 25.260
31.6507 26.823
31.6810 23.333
31.7113 21.875
31.7416 20.365
31.7718 17.083
31.8021 16.562
31.8324 13.490
31.8627 13.542
31.8929 11.510
31.9232 9.896
31.9535 9.062
31.9838 8.594
32.0141 8.490
32.0443 6.927
32.0746 6.615
32.1049 6.406
32.1352 6.146
32.1655 5.833
32.1957 5.365
32.2260 5.260
32.2563 5.781
32.2866 4.792
32.3169 5.833
32.3471 5.208
32.3774 4.010
32.4077 4.531
32.4380 3.958
32.4682 4.010
32.4985 4.583
32.5288 4.219
32.5591 4.010
32.5894 3.750
32.6196 3.125
32.6499 2.552
32.6802 3.906
32.7105 3.490
32.7408 4.115
32.7710 2.812
32.8013 3.802
32.8316 3.021
32.8619 2.656
32.8921 3.125
32.9224 2.708
32.9527 2.656
32.9830 2.708
33.0133 2.396
33.0435 2.552
33.0738 2.969
33.1041 2.760
33.1344 3.490
33.1647 3.646
33.1949 2.656
33.2252 2.760
33.2555 3.021
33.2858 2.760
33.3160 2.552
33.3463 2.917
33.3766 3.385
33.4069 2.656
33.4372 3.073
33.4674 2.969
33.4977 3.542
33.5280 3.229
33.5583 3.229
33.5886 3.906
33.6188 3.542
33.6491 3.646
33.6794 4.219
33.7097 4.427
33.7399 3.854
33.7702 4.115
33.8005 4.167
33.8308 5.208
33.8611 5.156
33.8913 5.521
33.9216 4.896
33.9519 5.417
33.9822 7.031
34.0125 7.604
34.0427 9.479
34.0730 10.365
34.1033 12.552
34.1336 14.010
34.1638 19.896
34.1941 20.312
34.2244 24.844
34.2547 28.646
34.2850 30.104
34.3152 27.865
34.3455 21.667
34.3758 19.010
34.4061 15.937
34.4364 13.802
34.4666 8.906
34.4969 8.802
34.5272 7.812
34.5575 6.927
34.5877 7.292
34.6180 5.312
34.6483 6.719
34.6786 4.583
34.7089 5.260
34.7391 5.000
34.7694 4.948
34.7997 3.958
34.8300 4.531
34.8603 3.958
34.8905 4.531
34.9208 4.948
34.9511 4.427
34.9814 4.531
35.0116 4.740
35.0419 5.573
35.0722 4.531
35.1025 3.802
35.1328 4.219
35.1630 4.427
35.1933 4.687
35.2236 4.896
35.2539 4.740
35.2842 4.635
35.3144 4.271
35.3447 4.375
35.3750 4.740
35.4053 5.937
35.4356 5.573
35.4658 6.302
35.4961 5.781
35.5264 7.604
35.5567 6.510
35.5869 7.500
35.6172 7.031
35.6475 8.490
35.6778 9.115
35.7081 10.156
35.7383 10.052
35.7686 12.708
35.7989 13.021
35.8292 15.208
35.8595 15.990
35.8897 18.073
35.9200 19.271
35.9503 22.083
35.9806 25.833
36.0108 29.062
36.0411 31.042
36.0714 32.865
36.1017 33.385
36.1320 32.031
36.1622 34.167
36.1925 28.021
36.2228 28.177
36.2531 24.844
36.2834 23.021
36.3136 17.812
36.3439 16.354
36.3742 14.740
36.4045 12.552
36.4347 10.937
36.4650 10.260
36.4953 8.958
36.5256 8.281
36.5559 8.281
36.5861 8.177
36.6164 6.875
36.6467 5.521
36.6770 5.781
36.7073 5.312
36.7375 5.000
36.7678 4.687
36.7981 3.177
36.8284 4.531
36.8586 3.542
36.8889 3.542
36.9192 3.385
36.9495 4.479
36.9798 3.229
37.0100 3.698
37.0403 3.385
37.0706 2.969
37.1009 2.812
37.1312 3.073
37.1614 3.229
37.1917 2.656
37.2220 2.917
37.2523 2.969
37.2825 2.396
37.3128 2.708
37.3431 2.708
37.3734 2.812
37.4037 3.125
37.4339 2.500
37.4642 2.396
37.4945 3.333
37.5248 2.187
37.5551 2.396
37.5853 3.073
37.6156 2.292
37.6459 2.135
37.6762 2.604
37.7064 2.448
37.7367 2.396
37.7670 1.875
37.7973 1.615
37.8276 1.927
37.8578 2.135
37.8881 1.667
37.9184 1.719
37.9487 1.510
37.9790 1.719
38.0092 2.708
38.0395 1.562
38.0698 2.083
38.1001 1.927
38.1304 1.667
38.1606 1.198
38.1909 1.771
38.2212 2.031
38.2515 1.667
38.2817 1.927
38.3120 1.198
38.3423 1.667
38.3726 1.823
38.4029 2.292
38.4331 2.500
38.4634 1.354
38.4937 1.406
38.5240 1.510
38.5543 1.406
38.5845 1.823
38.6148 1.510
38.6451 1.406
38.6754 1.354
38.7056 1.667
38.7359 0.937
38.7662 1.406
38.7965 1.510
38.8268 2.135
38.8570 1.510
38.8873 1.458
38.9176 1.042
38.9479 1.667
38.9782 1.354
39.0084 1.042
39.0387 1.510
39.0690 1.615
39.0993 1.302
39.1295 1.146
39.1598 1.250
39.1901 1.615
39.2204 1.354
39.2507 1.719
39.2809 1.250
39.3112 1.510
39.3415 0.990
39.3718 1.510
39.4021 1.562
39.4323 0.885
39.4626 1.771
39.4929 1.823
39.5232 1.510
39.5534 1.771
39.5837 0.625
39.6140 1.823
39.6443 1.250
39.6746 1.615
39.7048 1.406
39.7351 1.354
39.7654 0.990
39.7957 1.562
39.8260 1.510
39.8562 0.885
39.8865 1.719
39.9168 1.458
39.9471 1.094
39.9773 0.885
40.0076 0.990
40.0379 1.198
40.0682 1.198
40.0985 1.354
40.1287 1.302
40.1590 1.562
40.1893 0.937
40.2196 1.458
40.2499 1.198
40.2801 1.250
40.3104 1.510
40.3407 0.885
40.3710 1.146
40.4012 1.354
40.4315 1.250
40.4618 1.094
40.4921 1.146
40.5224 1.250
40.5526 0.833
40.5829 1.198
40.6132 1.198
40.6435 0.833
40.6738 0.937
40.7040 1.510
40.7343 1.250
40.7646 0.990
40.7949 1.302
40.8251 1.198
40.8554 1.198
40.8857 1.406
40.9160 1.250
40.9463 1.406
40.9765 1.146
41.0068 1.042
41.0371 1.198
41.0674 1.250
41.0977 0.833
41.1279 1.302
41.1582 1.198
41.1885 1.146
41.2188 1.823
41.2491 0.990
41.2793 1.562
41.3096 0.990
41.3399 1.302
41.3702 1.406
41.4004 1.562
41.4307 0.781
41.4610 0.937
41.4913 1.510
41.5216 0.729
41.5518 1.562
41.5821 1.146
41.6124 0.833
41.6427 1.354
41.6730 0.990
41.7032 1.250
41.7335 0.990
41.7638 0.937
41.7941 1.094
41.8243 0.885
41.8546 1.354
41.8849 0.990
41.9152 1.458
41.9455 1.354
41.9757 0.729
42.0060 1.250
42.0363 1.250
42.0666 1.042
42.0969 1.302
42.1271 1.198
42.1574 1.146
42.1877 1.302
42.2180 0.885
42.2482 1.615
42.2785 0.937
42.3088 1.354
42.3391 0.833
42.3694 1.094
42.3996 1.250
42.4299 1.146
42.4602 1.354
42.4905 1.250
42.5208 1.354
42.5510 1.198
42.5813 1.146
42.6116 0.885
42.6419 0.937
42.6721 0.990
42.7024 0.990
42.7327 1.823
42.7630 1.406
42.7933 1.458
42.8235 1.406
42.8538 1.042
42.8841 0.781
42.9144 0.937
42.9447 1.198
42.9749 1.458
43.0052 0.990
43.0355 1.094
43.0658 1.302
43.0960 0.937
43.1263 1.198
43.1566 0.833
43.1869 1.146
43.2172 0.885
43.2474 1.458
43.2777 0.990
43.3080 0.990
43.3383 1.198
43.3686 0.781
43.3988 0.990
43.4291 0.937
43.4594 1.250
43.4897 1.562
43.5199 0.781
43.5502 0.937
43.5805 1.302
43.6108 1.198
43.6411 0.781
43.6713 0.885
43.7016 0.677
43.7319 0.781
43.7622 1.042
43.7925 1.198
43.8227 1.042
43.8530 1.510
43.8833 0.937
43.9136 1.302
43.9439 1.354
43.9741 1.094
44.0044 1.250
44.0347 0.781
44.0650 1.510
44.0952 1.094
44.1255 0.990
44.1558 0.937
44.1861 1.042
44.2164 1.094
44.2466 1.562
44.2769 1.302
44.3072 1.042
44.3375 1.094
44.3678 1.458
44.3980 1.146
44.4283 1.302
44.4586 0.990
44.4889 1.406
44.5191 1.198
44.5494 1.250
44.5797 1.094
44.6100 1.667
44.6403 1.302
44.6705 1.042
44.7008 1.354
44.7311 1.094
44.7614 1.354
44.7917 1.198
44.8219 1.094
44.8522 1.198
44.8825 0.990
44.9128 0.833
44.9430 1.302
44.9733 1.406
45.0036 1.354
45.0339 1.250
45.0642 0.885
45.0944 1.042
45.1247 1.042
45.1550 0.833
45.1853 1.667
45.2156 0.885
45.2458 1.562
45.2761 1.250
45.3064 1.094
45.3367 0.990
45.3669 1.250
45.3972 0.937
45.4275 1.302
45.4578 1.406
45.4881 1.406
45.5183 1.927
45.5486 0.990
45.5789 1.198
45.6092 0.990
45.6395 1.667
45.6697 0.677
45.7000 1.250
45.7303 1.094
45.7606 1.198
45.7908 1.354
45.8211 1.406
45.8514 0.937
45.8817 1.458
45.9120 1.198
45.9422 1.302
45.9725 1.458
46.0028 1.354
46.0331 1.302
46.0634 1.146
46.0936 1.042
46.1239 1.562
46.1542 1.562
46.1845 1.458
46.2147 1.458
46.2450 1.615
46.2753 1.823
46.3056 1.094
46.3359 1.510
46.3661 1.615
46.3964 2.240
46.4267 1.250
46.4570 1.042
46.4873 1.042
46.5175 1.615
46.5478 1.979
46.5781 2.031
46.6084 1.406
46.6386 1.823
46.6689 1.771
46.6992 1.927
46.7295 2.031
46.7598 1.823
46.7900 2.240
46.8203 1.979
46.8506 2.135
46.8809 2.031
46.9112 2.396
46.9414 2.708
46.9717 2.656
47.0020 3.229
47.0323 2.344
47.0626 3.281
47.0928 3.437
47.1231 4.062
47.1534 4.635
47.1837 3.437
47.2139 5.521
47.2442 5.312
47.2745 6.094
47.3048 6.302
47.3351 6.510
47.3653 7.292
47.3956 7.812
47.4259 7.344
47.4562 6.875
47.4865 5.625
47.5167 5.208
47.5470 5.573
47.5773 4.740
47.6076 4.583
47.6378 3.594
47.6681 4.115
47.6984 3.385
47.7287 3.437
47.7590 2.969
47.7892 2.500
47.8195 2.240
47.8498 2.656
47.8801 2.552
47.9104 2.292
47.9406 2.135
47.9709 1.927
48.0012 1.510
48.0315 1.771
48.0617 1.354
48.0920 1.771
48.1223 1.719
48.1526 1.719
48.1829 1.562
48.2131 1.927
48.2434 1.458
48.2737 1.562
48.3040 1.406
48.3343 1.562
48.3645 1.146
48.3948 1.354
48.4251 1.927
48.4554 1.667
48.4856 1.146
48.5159 1.302
48.5462 1.562
48.5765 0.990
48.6068 1.510
48.6370 1.354
48.6673 1.510
48.6976 1.510
48.7279 1.302
48.7582 0.885
48.7884 1.562
48.8187 0.990
48.8490 1.458
48.8793 1.146
48.9095 0.885
48.9398 1.146
48.9701 1.250
49.0004 1.562
49.0307 1.406
49.0609 1.302
49.0912 1.302
49.1215 0.990
49.1518 1.719
49.1821 1.094
49.2123 1.302
49.2426 1.250
49.2729 1.250
49.3032 1.406
49.3334 1.615
49.3637 1.094
49.3940 1.354
49.4243 0.885
49.4546 1.094
49.4848 1.250
49.5151 1.042
49.5454 1.094
49.5757 1.302
49.6060 0.937
49.6362 1.302
49.6665 1.198
49.6968 1.406
49.7271 1.198
49.7574 0.990
49.7876 0.937
49.8179 1.406
49.8482 0.729
49.8785 0.990
49.9087 1.198
49.9390 1.042
49.9693 1.354
49.9996 1.302
50.0299 1.250
50.0601 1.146
50.0904 1.250
50.1207 1.250
50.1510 1.198
50.1813 1.198
50.2115 1.510
50.2418 1.302
50.2721 1.250
50.3024 0.990
50.3326 1.094
50.3629 1.094
50.3932 1.198
50.4235 0.990
50.4538 1.042
50.4840 1.250
50.5143 1.302
50.5446 1.198
50.5749 1.250
50.6052 1.354
50.6354 1.198
50.6657 1.250
50.6960 1.823
50.7263 1.302
50.7565 1.042
50.7868 0.990
50.8171 0.573
50.8474 0.990
50.8777 1.510
50.9079 0.833
50.9382 1.719
50.9685 0.937
50.9988 1.198
51.0291 0.833
51.0593 1.354
51.0896 1.042
51.1199 1.406
51.1502 1.146
51.1804 1.198
51.2107 1.094
51.2410 1.198
51.2713 1.042
51.3016 1.198
51.3318 1.198
51.3621 0.885
51.3924 0.990
51.4227 0.729
51.4530 1.198
51.4832 1.094
51.5135 1.562
51.5438 0.885
51.5741 1.562
51.6043 0.990
51.6346 1.406
51.6649 0.990
51.6952 1.458
51.7255 1.146
51.7557 1.146
51.7860 1.510
51.8163 0.937
51.8466 1.198
51.8769 0.937
51.9071 1.146
51.9374 0.990
51.9677 1.458
51.9980 0.833
52.0282 1.354
52.0585 1.198
52.0888 1.250
52.1191 1.042
52.1494 1.250
52.1796 1.094
52.2099 0.833
52.2402 0.937
52.2705 0.990
52.3008 1.354
52.3310 1.146
52.3613 1.146
52.3916 0.990
52.4219 1.042
52.4521 1.146
52.4824 1.094
52.5127 1.146
52.5430 0.937
52.5733 0.625
52.6035 1.562
52.6338 1.146
52.6641 1.198
52.6944 1.198
52.7247 1.094
52.7549 1.406
52.7852 0.781
52.8155 1.146
52.8458 1.354
52.8761 1.250
52.9063 1.354
52.9366 1.094
52.9669 0.885
52.9972 1.146
53.0274 0.833
53.0577 1.198
53.0880 0.937
53.1183 1.458
53.1486 1.458
53.1788 1.042
53.2091 1.667
53.2394 0.625
53.2697 1.302
53.3000 0.885
53.3302 0.990
53.3605 1.302
53.3908 1.302
53.4211 0.885
53.4513 1.094
53.4816 1.250
53.5119 1.146
53.5422 1.406
53.5725 1.458
53.6027 0.990
53.6330 0.937
53.6633 1.354
53.6936 1.354
53.7239 0.937
53.7541 1.354
53.7844 1.198
53.8147 1.406
53.8450 1.562
53.8752 1.250
53.9055 0.937
53.9358 1.771
53.9661 1.094
53.9964 1.146
54.0266 1.510
54.0569 1.198
54.0872 1.510
54.1175 1.302
54.1478 1.094
54.1780 1.094
54.2083 1.146
54.2386 1.354
54.2689 1.562
54.2991 1.667
54.3294 1.302
54.3597 1.250
54.3900 1.042
54.4203 1.406
54.4505 0.833
54.4808 1.562
54.5111 1.250
54.5414 1.198
54.5717 0.885
54.6019 0.937
54.6322 1.042
54.6625 1.094
54.6928 1.406
54.7230 1.406
54.7533 1.458
54.7836 1.042
54.8139 1.510
54.8442 1.042
54.8744 1.250
54.9047 1.042
54.9350 1.042
54.9653 0.781
54.9956 1.354
55.0258 1.250
55.0561 1.198
55.0864 0.885
55.1167 1.146
55.1469 1.458
55.1772 1.198
55.2075 1.302
55.2378 0.729
55.2681 1.042
55.2983 1.406
55.3286 1.302
55.3589 1.302
55.3892 1.615
55.4195 1.406
55.4497 1.667
55.4800 1.146
55.5103 1.458
55.5406 1.562
55.5709 1.615
55.6011 1.562
55.6314 1.198
55.6617 2.031
55.6920 1.875
55.7222 1.771
55.7525 2.135
55.7828 2.135
55.8131 2.031
55.8434 2.240
55.8736 1.719
55.9039 2.292
55.9342 2.760
55.9645 3.385
55.9948 2.031
56.0250 3.125
56.0553 3.281
56.0856 3.542
56.1159 5.052
56.1461 4.167
56.1764 5.365
56.2067 5.625
56.2370 5.052
56.2673 5.469
56.2975 6.562
56.3278 7.031
56.3581 7.292
56.3884 8.906
56.4187 7.552
56.4489 8.802
56.4792 7.135
56.5095 8.333
56.5398 6.771
56.5700 7.448
56.6003 6.250
56.6306 5.729
56.6609 6.250
56.6912 4.792
56.7214 4.427
56.7517 3.698
56.7820 3.646
56.8123 3.958
56.8426 3.073
56.8728 2.760
56.9031 3.333
56.9334 2.448
56.9637 2.135
56.9939 1.823
57.0242 2.500
57.0545 2.396
57.0848 2.448
57.1151 2.604
57.1453 1.927
57.1756 2.031
57.2059 1.250
57.2362 1.510
57.2665 2.031
57.2967 1.406
57.3270 1.354
57.3573 1.146
57.3876 1.615
57.4178 1.875
57.4481 1.250
57.4784 1.458
57.5087 1.458
57.5390 1.250
57.5692 1.406
57.5995 1.667
57.6298 1.198
57.6601 1.302
57.6904 1.562
57.7206 1.146
57.7509 1.302
57.7812 1.615
57.8115 1.302
57.8417 1.250
57.8720 0.990
57.9023 1.146
57.9326 1.042
57.9629 1.354
57.9931 1.094
58.0234 1.042
58.0537 0.990
58.0840 0.677
58.1143 0.937
58.1445 1.042
58.1748 1.250
58.2051 0.937
58.2354 1.302
58.2656 1.042
58.2959 1.042
58.3262 0.937
58.3565 1.458
58.3868 1.094
58.4170 0.833
58.4473 0.990
58.4776 1.302
58.5079 1.510
58.5382 1.146
58.5684 0.573
58.5987 0.990
58.6290 1.458
58.6593 1.406
58.6896 1.094
58.7198 1.146
58.7501 1.198
58.7804 0.937
58.8107 0.990
58.8409 1.042
58.8712 1.302
58.9015 1.042
58.9318 1.146
58.9621 1.250
58.9923 1.562
59.0226 1.042
59.0529 1.354
59.0832 0.781
59.1135 1.146
59.1437 1.354
59.1740 0.521
59.2043 0.885
59.2346 1.042
59.2648 0.833
59.2951 1.146
59.3254 0.729
59.3557 1.146
59.3860 1.302
59.4162 1.406
59.4465 0.833
59.4768 1.302
59.5071 1.146
59.5374 1.146
59.5676 1.042
59.5979 1.042
59.6282 1.458
59.6585 1.250
59.6887 1.250
59.7190 0.990
59.7493 0.781
59.7796 1.094
59.8099 1.250
59.8401 1.406
59.8704 1.146
59.9007 0.937
59.9310 0.937
59.9613 1.042
59.9915 0.781
60.0218 1.250
60.0521 0.781
60.0824 0.833
60.1126 0.885
60.1429 1.302
60.1732 1.146
60.2035 0.625
60.2338 1.302
60.2640 1.302
60.2943 1.198
60.3246 0.885
60.3549 0.885
60.3852 1.042
60.4154 1.094
60.4457 0.937
60.4760 1.302
60.5063 0.990
60.5365 0.885
60.5668 0.469
60.5971 1.250
60.6274 1.042
60.6577 1.094
60.6879 0.990
60.7182 1.510
60.7485 1.094
60.7788 1.406
60.8091 1.510
60.8393 0.937
60.8696 1.042
60.8999 0.937
60.9302 1.146
60.9604 1.562
60.9907 0.990
61.0210 0.990
61.0513 0.990
61.0816 1.146
61.1118 1.458
61.1421 1.406
61.1724 1.458
61.2027 0.937
61.2330 1.250
61.2632 1.198
61.2935 1.302
61.3238 0.729
61.3541 1.302
61.3844 1.406
61.4146 0.990
61.4449 0.833
61.4752 1.458
61.5055 1.354
61.5357 1.042
61.5660 1.302
61.5963 1.302
61.6266 1.510
61.6569 1.354
61.6871 1.250
61.7174 1.615
61.7477 1.667
61.7780 1.615
61.8083 1.042
61.8385 1.979
61.8688 1.667
61.8991 1.562
61.9294 1.615
61.9596 2.031
61.9899 2.031
62.0202 2.135
62.0505 1.250
62.0808 1.615
62.1110 1.823
62.1413 2.187
62.1716 2.083
62.2019 2.760
62.2322 2.031
62.2624 2.240
62.2927 3.021
62.3230 3.177
62.3533 2.708
62.3835 3.750
62.4138 3.854
62.4441 3.750
62.4744 4.687
62.5047 4.010
62.5349 4.896
62.5652 5.729
62.5955 4.948
62.6258 6.771
62.6561 5.729
62.6863 6.198
62.7166 6.875
62.7469 7.240
62.7772 7.344
62.8074 6.667
62.8377 5.833
62.8680 5.521
62.8983 4.583
62.9286 4.896
62.9588 4.531
62.9891 3.906
63.0194 3.490
63.0497 3.594
63.0800 3.073
63.1102 2.552
63.1405 2.969
63.1708 1.979
63.2011 2.708
63.2313 2.135
63.2616 1.667
63.2919 2.396
63.3222 1.719
63.3525 1.719
63.3827 1.719
63.4130 1.667
63.4433 1.667
63.4736 1.562
63.5039 1.094
63.5341 1.667
63.5644 1.302
63.5947 0.833
63.6250 1.354
63.6552 1.198
63.6855 1.354
63.7158 1.354
63.7461 1.406
63.7764 0.885
63.8066 1.094
63.8369 1.302
63.8672 1.406
63.8975 1.562
63.9278 1.302
63.9580 1.302
63.9883 1.146
64.0186 1.094
64.0489 0.833
64.0791 1.302
64.1094 1.094
64.1397 1.302
64.1700 0.885
64.2003 1.250
64.2305 1.250
64.2608 1.354
64.2911 1.042
64.3214 1.094
64.3517 1.042
64.3819 1.198
64.4122 1.458
64.4425 1.198
64.4728 1.302
64.5031 0.833
64.5333 0.990
64.5636 1.094
64.5939 0.781
64.6242 1.094
64.6544 0.833
64.6847 1.198
64.7150 0.625
64.7453 1.250
64.7756 0.990
64.8058 0.833
64.8361 0.990
64.8664 1.615
64.8967 0.833
64.9270 1.146
64.9572 1.146
64.9875 1.094
65.0178 1.042
65.0481 1.302
65.0783 1.094
65.1086 1.094
65.1389 0.937
65.1692 0.833
65.1995 1.094
65.2297 1.354
65.2600 0.885
65.2903 0.885
65.3206 1.354
65.3509 0.677
65.3811 0.937
65.4114 1.146
65.4417 1.042
65.4720 1.354
65.5022 1.615
65.5325 0.990
65.5628 1.042
65.5931 1.094
65.6234 1.458
65.6536 1.146
65.6839 1.094
65.7142 1.615
65.7445 1.354
65.7748 0.937
65.8050 2.031
65.8353 1.354
65.8656 1.458
65.8959 1.198
65.9261 1.979
65.9564 1.042
65.9867 1.667
66.0170 1.250
66.0473 1.354
66.0775 1.458
66.1078 1.302
66.1381 1.667
66.1684 1.875
66.1987 1.510
66.2289 2.031
66.2592 1.875
66.2895 1.979
66.3198 2.135
66.3500 1.823
66.3803 2.187
66.4106 1.302
66.4409 2.187
66.4712 1.302
66.5014 1.927
66.5317 1.667
66.5620 1.771
66.5923 1.198
66.6226 1.875
66.6528 1.250
66.6831 1.510
66.7134 1.510
66.7437 1.562
66.7739 1.458
66.8042 1.354
66.8345 0.937
66.8648 1.875
66.8951 1.510
66.9253 1.302
66.9556 1.354
66.9859 1.510
67.0162 1.927
67.0465 1.406
67.0767 1.510
67.1070 1.302
67.1373 1.667
67.1676 2.031
67.1978 1.302
67.2281 2.083
67.2584 2.344
67.2887 2.135
67.3190 2.083
67.3492 2.344
67.3795 2.135
67.4098 2.396
67.4401 2.917
67.4704 2.396
67.5006 2.708
67.5309 4.062
67.5612 3.229
67.5915 2.969
67.6218 3.385
67.6520 4.167
67.6823 4.323
67.7126 3.958
67.7429 4.062
67.7731 4.740
67.8034 4.375
67.8337 4.740
67.8640 4.010
67.8943 4.896
67.9245 5.052
67.9548 4.115
67.9851 4.167
68.0154 3.385
68.0457 3.125
68.0759 3.698
68.1062 4.115
68.1365 3.854
68.1668 3.125
68.1970 2.865
68.2273 2.656
68.2576 2.708
68.2879 2.135
68.3182 1.615
68.3484 1.823
68.3787 2.240
68.4090 1.823
68.4393 2.292
68.4696 2.344
68.4998 2.187
68.5301 2.187
68.5604 2.240
68.5907 2.083
68.6209 1.823
68.6512 2.292
68.6815 2.344
68.7118 2.031
68.7421 1.979
68.7723 2.344
68.8026 2.656
68.8329 2.812
68.8632 2.865
68.8935 2.865
68.9237 2.292
68.9540 2.865
68.9843 2.344
69.0146 2.344
69.0448 2.448
69.0751 2.969
69.1054 2.344
69.1357 2.760
69.1660 2.240
69.1962 2.604
69.2265 1.406
69.2568 1.302
69.2871 1.771
69.3174 1.719
69.3476 2.292
69.3779 1.875
69.4082 1.927
69.4385 1.302
69.4687 1.406
69.4990 1.510
69.5293 1.042
69.5596 1.406
69.5899 1.354
69.6201 1.146
69.6504 1.198
69.6807 1.354
69.7110 1.667
69.7413 0.990
69.7715 1.146
69.8018 1.250
69.8321 1.146
69.8624 0.937
69.8926 0.625
69.9229 0.833
69.9532 1.406
69.9835 0.833
70.0138 1.042
70.0440 1.250
70.0743 1.042
70.1046 0.729
70.1349 0.833
70.1652 0.885
70.1954 1.094
70.2257 0.729
70.2560 0.937
70.2863 0.781
70.3166 1.302
70.3468 0.781
70.3771 0.781
70.4074 0.990
70.4377 0.781
70.4679 0.573
70.4982 0.677
70.5285 0.781
70.5588 0.781
70.5891 0.625
70.6193 1.094
70.6496 1.250
70.6799 0.885
70.7102 1.146
70.7405 0.625
70.7707 1.250
70.8010 0.781
70.8313 0.885
70.8616 0.781
70.8918 0.833
70.9221 0.781
70.9524 1.198
70.9827 0.521
71.0130 0.625
71.0432 0.885
71.0735 0.677
71.1038 0.781
71.1341 1.198
71.1644 0.781
71.1946 1.250
71.2249 0.937
71.2552 0.833
71.2855 0.729
71.3157 0.469
71.3460 1.042
71.3763 0.729
71.4066 1.094
71.4369 1.198
71.4671 0.937
71.4974 0.573
71.5277 0.729
71.5580 0.521
71.5883 0.625
71.6185 0.833
71.6488 0.625
71.6791 0.885
71.7094 0.469
71.7396 0.469
71.7699 0.885
71.8002 0.885
71.8305 0.833
71.8608 0.521
71.8910 0.729
71.9213 0.625
71.9516 0.365
71.9819 0.573
72.0122 0.729
72.0424 0.729
72.0727 0.937
72.1030 0.781
72.1333 0.625
72.1635 1.094
72.1938 0.937
72.2241 0.937
72.2544 0.833
72.2847 1.510
72.3149 0.677
72.3452 1.250
72.3755 1.094
72.4058 0.937
72.4361 1.146
72.4663 0.833
72.4966 1.094
72.5269 1.042
72.5572 0.990
72.5874 0.833
72.6177 1.094
72.6480 1.250
72.6783 0.729
72.7086 0.677
72.7388 0.625
72.7691 0.833
72.7994 0.521
72.8297 0.885
72.8600 0.937
72.8902 1.094
72.9205 0.417
72.9508 1.250
72.9811 0.781
73.0113 0.990
73.0416 0.729
73.0719 0.937
73.1022 0.729
73.1325 0.677
73.1627 0.417
73.1930 0.833
73.2233 0.833
73.2536 0.521
73.2839 0.729
73.3141 0.885
73.3444 0.937
73.3747 0.677
73.4050 0.833
73.4353 0.833
73.4655 0.885
73.4958 0.990
73.5261 0.729
73.5564 0.729
73.5866 0.833
73.6169 1.042
73.6472 0.729
73.6775 0.677
73.7078 0.729
73.7380 0.937
73.7683 0.573
73.7986 0.833
73.8289 1.198
73.8592 0.417
73.8894 0.573
73.9197 0.833
73.9500 0.990
73.9803 0.937
74.0105 0.885
74.0408 0.625
74.0711 0.260
74.1014 0.729
74.1317 0.781
74.1619 0.729
74.1922 0.573
74.2225 0.521
74.2528 0.833
74.2831 1.198
74.3133 1.198
74.3436 0.781
74.3739 0.469
74.4042 0.781
74.4344 0.625
74.4647 0.625
74.4950 0.781
74.5253 0.781
74.5556 0.469
74.5858 0.729
74.6161 0.573
74.6464 0.677
74.6767 0.677
74.7070 0.937
74.7372 0.729
74.7675 0.729
74.7978 0.781
74.8281 0.469
74.8583 0.573
74.8886 0.885
74.9189 0.469
74.9492 0.729
74.9795 0.729
75.0097 0.729
75.0400 0.573
75.0703 1.146
75.1006 0.781
75.1309 0.729
75.1611 0.625
75.1914 0.729
75.2217 0.625
75.2520 0.677
75.2822 0.937
75.3125 0.625
75.3428 0.885
75.3731 0.937
75.4034 0.677
75.4336 0.833
75.4639 0.625
75.4942 0.729
75.5245 0.625
75.5548 0.521
75.5850 0.781
75.6153 0.729
75.6456 0.521
75.6759 0.573
75.7061 0.729
75.7364 0.677
75.7667 0.990
75.7970 0.521
75.8273 0.885
75.8575 0.885
75.8878 0.521
75.9181 0.885
75.9484 0.833
75.9787 0.469
76.0089 0.521
76.0392 0.937
76.0695 0.729
76.0998 0.937
76.1301 0.990
76.1603 0.677
76.1906 0.990
76.2209 0.885
76.2512 0.677
76.2814 0.990
76.3117 0.625
76.3420 1.198
76.3723 1.042
76.4026 0.677
76.4328 1.146
76.4631 0.729
76.4934 1.042
76.5237 1.094
76.5540 1.250
76.5842 0.990
76.6145 1.146
76.6448 1.198
76.6751 1.094
76.7053 1.458
76.7356 1.094
76.7659 0.781
76.7962 1.667
76.8265 1.042
76.8567 0.885
76.8870 1.458
76.9173 0.990
76.9476 1.094
76.9779 1.250
77.0081 1.198
77.0384 1.354
77.0687 1.354
77.0990 1.458
77.1292 0.885
77.1595 0.885
77.1898 0.885
77.2201 0.885
77.2504 1.510
77.2806 1.406
77.3109 0.990
77.3412 0.469
77.3715 0.833
77.4018 0.729
77.4320 0.937
77.4623 0.885
77.4926 0.833
77.5229 1.146
77.5531 0.833
77.5834 0.885
77.6137 0.833
77.6440 0.990
77.6743 0.573
77.7045 0.781
77.7348 0.729
77.7651 0.677
77.7954 0.729
77.8257 0.677
77.8559 0.469
77.8862 0.885
77.9165 0.625
77.9468 1.198
77.9770 0.521
78.0073 0.885
78.0376 0.729
78.0679 0.469
78.0982 0.573
78.1284 0.781
78.1587 0.781
78.1890 1.042
78.2193 0.573
78.2496 0.677
78.2798 0.625
78.3101 0.729
78.3404 0.729
78.3707 0.625
78.4009 1.042
78.4312 0.677
78.4615 0.469
78.4918 0.625
78.5221 0.573
78.5523 0.417
78.5826 0.781
78.6129 0.937
78.6432 0.521
78.6735 0.937
78.7037 0.677
78.7340 0.729
78.7643 0.573
78.7946 1.042
78.8248 0.990
78.8551 0.521
78.8854 0.781
78.9157 0.885
78.9460 0.521
78.9762 0.729
79.0065 0.677
79.0368 0.677
79.0671 0.469
79.0974 0.833
79.1276 0.677
79.1579 0.729
79.1882 0.625
79.2185 0.781
79.2488 0.677
79.2790 0.885
79.3093 0.469
79.3396 0.885
79.3699 0.729
79.4001 1.250
79.4304 0.625
79.4607 0.573
79.4910 0.521
79.5213 0.781
79.5515 0.833
79.5818 0.677
79.6121 0.677
79.6424 0.729
79.6727 0.417
79.7029 0.781
79.7332 0.937
79.7635 0.729
79.7938 0.885
79.8240 0.521
79.8543 0.729
79.8846 0.677
79.9149 0.260
79.9452 0.521
79.9754 0.729
80.0057 0.729
80.0360 0.521
80.0663 0.937
80.0966 0.469
80.1268 0.833
80.1571 0.677
80.1874 0.781
80.2177 0.833
80.2479 0.677
80.2782 0.885
80.3085 0.885
80.3388 0.729
80.3691 0.937
80.3993 0.625
80.4296 0.833
80.4599 1.094
80.4902 0.885
80.5205 1.042
80.5507 0.625
80.5810 0.937
80.6113 0.677
80.6416 0.885
80.6718 0.625
80.7021 0.729
80.7324 0.729
80.7627 0.729
80.7930 0.885
80.8232 0.990
80.8535 0.521
80.8838 0.677
80.9141 0.729
80.9444 0.729
80.9746 0.625
81.0049 0.885
81.0352 0.833
81.0655 0.625
81.0957 0.885
81.1260 0.885
81.1563 0.625
81.1866 0.937
81.2169 1.094
81.2471 1.198
81.2774 1.042
81.3077 0.833
81.3380 1.406
81.3683 0.729
81.3985 0.781
81.4288 0.573
81.4591 0.937
81.4894 0.729
81.5196 1.146
81.5499 1.094
81.5802 0.781
81.6105 0.990
81.6408 0.729
81.6710 0.990
81.7013 0.833
81.7316 0.625
81.7619 0.781
81.7922 0.990
81.8224 0.469
81.8527 0.729
81.8830 0.625
81.9133 0.417
81.9436 0.990
81.9738 0.729
82.0041 0.781
82.0344 0.990
82.0647 0.781
82.0949 0.469
82.1252 0.729
82.1555 0.729
82.1858 0.573
82.2161 0.521
82.2463 0.625
82.2766 0.573
82.3069 0.729
82.3372 0.469
82.3675 0.781
82.3977 0.729
82.4280 0.573
82.4583 1.146
82.4886 0.677
82.5188 0.990
82.5491 0.625
82.5794 0.417
82.6097 0.729
82.6400 0.781
82.6702 0.625
82.7005 0.417
82.7308 0.573
82.7611 0.677
82.7914 1.094
82.8216 0.729
82.8519 0.990
82.8822 0.625
82.9125 0.677
82.9427 0.781
82.9730 0.833
83.0033 0.625
83.0336 0.729
83.0639 0.937
83.0941 0.833
83.1244 0.625
83.1547 1.042
83.1850 0.625
83.2153 1.094
83.2455 0.729
83.2758 0.833
83.3061 0.937
83.3364 0.833
83.3666 0.677
83.3969 0.469
83.4272 0.729
83.4575 0.729
83.4878 0.729
83.5180 0.625
83.5483 0.677
83.5786 0.729
83.6089 0.781
83.6392 0.833
83.6694 0.833
83.6997 0.885
83.7300 0.729
83.7603 0.885
83.7905 1.198
83.8208 0.729
83.8511 0.521
83.8814 0.781
83.9117 0.469
83.9419 0.521
83.9722 0.729
84.0025 0.781
84.0328 0.781
84.0631 0.833
84.0933 0.729
84.1236 0.573
84.1539 1.042
84.1842 0.677
84.2144 0.781
84.2447 0.521
84.2750 0.677
84.3053 0.677
84.3356 0.677
84.3658 0.417
84.3961 1.198
84.4264 0.625
84.4567 0.625
84.4870 0.937
84.5172 0.677
84.5475 0.312
84.5778 0.729
84.6081 0.365
84.6383 0.625
84.6686 0.521
84.6989 1.198
84.7292 0.625
84.7595 0.417
84.7897 0.365
84.8200 0.885
84.8503 1.146
84.8806 0.365
84.9109 0.677
84.9411 0.677
84.9714 0.625
85.0017 0.573
85.0320 0.833
85.0623 0.625
85.0925 0.729
85.1228 0.885
85.1531 0.677
85.1834 0.833
85.2136 0.521
85.2439 0.573
85.2742 0.677
85.3045 0.781
85.3348 0.781
85.3650 0.885
85.3953 0.833
85.4256 0.729
85.4559 0.833
85.4862 0.573
85.5164 0.937
85.5467 0.677
85.5770 0.417
85.6073 0.781
85.6375 0.677
85.6678 0.573
85.6981 0.729
85.7284 0.677
85.7587 0.729
85.7889 0.677
85.8192 0.521
85.8495 0.937
85.8798 0.729
85.9101 0.625
85.9403 0.417
85.9706 0.573
86.0009 0.677
86.0312 0.625
86.0614 0.573
86.0917 0.781
86.1220 0.833
86.1523 0.677
86.1826 0.365
86.2128 0.625
86.2431 0.729
86.2734 0.625
86.3037 0.521
86.3340 0.312
86.3642 0.573
86.3945 0.677
86.4248 0.781
86.4551 0.677
86.4853 0.625
86.5156 0.729
86.5459 0.417
86.5762 0.729
86.6065 0.729
86.6367 0.833
86.6670 0.469
86.6973 0.729
86.7276 0.625
86.7579 0.781
86.7881 0.729
86.8184 0.833
86.8487 0.469
86.8790 0.625
86.9092 0.573
86.9395 0.573
86.9698 0.885
87.0001 0.417
87.0304 0.625
87.0606 0.573
87.0909 0.781
87.1212 0.729
87.1515 0.312
87.1818 0.677
87.2120 0.469
87.2423 1.042
87.2726 0.833
87.3029 0.625
87.3331 0.729
87.3634 0.625
87.3937 0.729
87.4240 0.573
87.4543 0.729
87.4845 0.937
87.5148 0.625
87.5451 0.469
87.5754 0.833
87.6057 0.677
87.6359 0.937
87.6662 0.990
87.6965 0.677
87.7268 0.469
87.7571 0.781
87.7873 0.625
87.8176 0.625
87.8479 0.521
87.8782 0.417
87.9084 0.833
87.9387 0.937
87.9690 1.094
87.9993 0.573
88.0296 0.990
88.0598 0.521
88.0901 1.094
88.1204 0.885
88.1507 0.833
88.1810 0.625
88.2112 0.469
88.2415 0.677
88.2718 0.625
88.3021 0.990
88.3323 0.729
88.3626 0.833
88.3929 0.677
88.4232 0.885
88.4535 0.833
88.4837 0.729
88.5140 0.677
88.5443 0.729
88.5746 0.729
88.6049 0.781
88.6351 0.625
88.6654 0.677
88.6957 1.302
88.7260 0.937
88.7562 0.885
88.7865 0.729
88.8168 0.729
88.8471 0.937
88.8774 0.729
88.9076 0.677
88.9379 1.042
88.9682 1.094
88.9985 1.198
89.0288 1.406
89.0590 1.302
89.0893 1.094
89.1196 0.990
89.1499 0.677
89.1801 1.406
89.2104 1.146
89.2407 1.094
89.2710 0.990
89.3013 1.302
89.3315 1.198
89.3618 1.823
89.3921 1.771
89.4224 1.146
89.4527 1.042
89.4829 1.927
89.5132 1.094
89.5435 1.198
89.5738 1.667
89.6040 1.042
89.6343 1.510
89.6646 1.302
89.6949 1.406
89.7252 1.250
89.7554 1.094
89.7857 1.198
89.8160 1.354
89.8463 0.937
89.8766 0.833
89.9068 1.146
89.9371 0.729
89.9674 1.146
89.9977 0.937
90.0279 1.198
90.0582 0.885
90.0885 0.833
90.1188 0.729
90.1491 0.677
90.1793 0.937
90.2096 1.354
90.2399 0.729
90.2702 0.885
90.3005 0.885
90.3307 0.990
90.3610 0.729
90.3913 0.625
90.4216 1.146
90.4518 0.833
90.4821 0.729
90.5124 0.677
90.5427 0.729
90.5730 0.885
90.6032 0.729
90.6335 0.937
90.6638 1.198
90.6941 0.833
90.7244 0.833
90.7546 1.094
90.7849 0.521
90.8152 0.677
90.8455 1.146
90.8758 0.417
90.9060 0.521
90.9363 1.198
90.9666 0.521
90.9969 0.885
91.0271 0.990
91.0574 0.729
91.0877 1.094
91.1180 0.781
91.1483 0.833
91.1785 0.417
91.2088 0.781
91.2391 0.729
91.2694 0.729
91.2997 0.469
91.3299 0.833
91.3602 0.833
91.3905 0.990
91.4208 0.729
91.4510 1.094
91.4813 0.729
91.5116 0.833
91.5419 0.885
91.5722 0.990
91.6024 0.833
91.6327 0.833
91.6630 0.990
91.6933 0.885
91.7236 0.729
91.7538 0.990
91.7841 0.833
91.8144 1.094
91.8447 0.729
91.8749 0.937
91.9052 0.677
91.9355 0.990
91.9658 0.625
91.9961 0.625
92.0263 0.625
92.0566 0.625
92.0869 0.729
92.1172 0.781
92.1475 0.833
92.1777 0.937
92.2080 0.729
92.2383 1.146
92.2686 0.937
92.2988 1.042
92.3291 0.729
92.3594 0.521
92.3897 0.990
92.4200 0.781
92.4502 1.354
92.4805 0.729
92.5108 1.042
92.5411 1.458
92.5714 0.833
92.6016 1.146
92.6319 1.042
92.6622 0.937
92.6925 1.146
92.7227 1.198
92.7530 0.417
92.7833 0.833
92.8136 0.990
92.8439 0.885
92.8741 0.781
92.9044 0.781
92.9347 0.729
92.9650 1.042
92.9953 0.729
93.0255 1.146
93.0558 1.250
93.0861 0.937
93.1164 0.521
93.1466 1.198
93.1769 0.729
93.2072 0.677
93.2375 0.833
93.2678 1.250
93.2980 0.833
93.3283 0.885
93.3586 0.833
93.3889 0.521
93.4192 0.781
93.4494 0.677
93.4797 1.250
93.5100 0.885
93.5403 0.677
93.5706 0.781
93.6008 0.625
93.6311 1.094
93.6614 1.042
93.6917 0.677
93.7219 0.729
93.7522 0.833
93.7825 0.677
93.8128 1.146
93.8431 0.573
93.8733 0.833
93.9036 0.729
93.9339 0.833
93.9642 0.833
93.9945 0.937
94.0247 0.677
94.0550 0.729
94.0853 0.833
94.1156 0.833
94.1458 0.937
94.1761 1.146
94.2064 0.677
94.2367 0.521
94.2670 0.417
94.2972 1.146
94.3275 0.729
94.3578 0.937
94.3881 1.198
94.4184 0.677
94.4486 0.469
94.4789 0.937
94.5092 1.458
94.5395 1.146
94.5697 0.833
94.6000 0.990
94.6303 0.885
94.6606 1.250
94.6909 1.406
94.7211 0.833
94.7514 1.042
94.7817 1.094
94.8120 1.146
94.8423 0.885
94.8725 1.094
94.9028 1.198
94.9331 1.302
94.9634 1.094
94.9936 1.615
95.0239 0.833
95.0542 1.250
95.0845 1.406
95.1148 1.979
95.1450 0.937
95.1753 1.562
95.2056 1.146
95.2359 1.667
95.2662 1.354
95.2964 2.083
95.3267 1.198
95.3570 1.146
95.3873 0.885
95.4175 1.198
95.4478 1.406
95.4781 1.094
95.5084 1.354
95.5387 1.406
95.5689 0.990
95.5992 0.781
95.6295 1.042
95.6598 1.094
95.6901 0.729
95.7203 0.729
95.7506 0.833
95.7809 0.937
95.8112 1.094
95.8414 1.250
95.8717 1.042
95.9020 0.937
95.9323 1.146
95.9626 0.729
95.9928 1.250
96.0231 0.990
96.0534 1.146
96.0837 0.729
96.1140 0.469
96.1442 0.729
96.1745 0.365
96.2048 1.042
96.2351 0.990
96.2653 0.885
96.2956 0.937
96.3259 0.781
96.3562 0.833
96.3865 0.625
96.4167 0.625
96.4470 0.833
96.4773 0.833
96.5076 0.885
96.5379 0.469
96.5681 0.781
96.5984 1.719
96.6287 1.250
96.6590 0.417
96.6893 0.885
96.7195 0.365
96.7498 0.781
96.7801 0.729
96.8104 0.625
96.8406 0.521
96.8709 0.937
96.9012 0.990
96.9315 0.833
96.9618 0.677
96.9920 0.573
97.0223 0.365
97.0526 1.042
97.0829 0.729
97.1132 0.781
97.1434 0.990
97.1737 0.573
97.2040 0.833
97.2343 0.677
97.2645 0.781
97.2948 0.937
97.3251 0.469
97.3554 0.677
97.3857 0.937
97.4159 0.833
97.4462 1.042
97.4765 0.781
97.5068 1.094
97.5371 1.094
97.5673 0.885
97.5976 0.781
97.6279 1.042
97.6582 0.833
97.6884 1.094
97.7187 0.885
97.7490 0.937
97.7793 0.677
97.8096 0.729
97.8398 0.781
97.8701 0.937
97.9004 0.990
97.9307 0.781
97.9610 0.729
97.9912 0.781
98.0215 0.885
98.0518 0.885
98.0821 1.354
98.1123 1.094
98.1426 0.833
98.1729 0.885
98.2032 1.562
98.2335 1.250
98.2637 1.198
98.2940 1.146
98.3243 0.937
98.3546 1.094
98.3849 1.250
98.4151 1.042
98.4454 1.042
98.4757 0.990
98.5060 1.406
98.5362 1.094
98.5665 1.146
98.5968 1.042
98.6271 1.406
98.6574 1.250
98.6876 0.885
98.7179 0.781
98.7482 0.781
98.7785 1.250
98.8088 1.042
98.8390 0.729
98.8693 1.198
98.8996 1.146
98.9299 0.781
98.9601 0.833
98.9904 0.729
99.0207 0.469
99.0510 1.510
99.0813 0.729
99.1115 0.885
99.1418 0.677
99.1721 0.781
99.2024 0.990
99.2327 0.625
99.2629 0.937
99.2932 1.198
99.3235 0.573
99.3538 0.677
99.3841 1.094
99.4143 0.625
99.4446 0.885
99.4749 1.146
99.5052 0.885
99.5354 1.250
99.5657 0.781
99.5960 0.781
99.6263 0.937
99.6566 0.625
99.6868 0.729
99.7171 0.729
99.7474 0.573
99.7777 0.781
99.8080 0.573
99.8382 0.781
99.8685 0.677
99.8988 0.521
99.9291 0.729
99.9593 0.885
99.9896 0.729
100.0199 0.625
100.0502 0.781
100.0805 0.990
100.1107 0.781
100.1410 0.677
100.1713 0.781
100.2016 0.677
100.2319 0.885
100.2621 0.729
100.2924 0.990
100.3227 0.937
100.3530 0.885
100.3832 0.937
100.4135 1.302
100.4438 0.833
100.4741 0.729
100.5044 0.781
100.5346 0.937
100.5649 0.677
100.5952 0.781
100.6255 0.521
100.6558 0.469
100.6860 0.781
100.7163 0.521
100.7466 1.146
100.7769 0.625
100.8071 0.677
100.8374 0.417
100.8677 1.094
100.8980 0.521
100.9283 0.729
100.9585 0.729
100.9888 0.990
101.0191 0.885
101.0494 0.677
101.0797 0.781
101.1099 0.625
101.1402 0.781
101.1705 0.885
101.2008 0.677
101.2310 0.833
101.2613 0.990
101.2916 0.990
101.3219 0.937
101.3522 0.990
101.3824 0.573
101.4127 0.781
101.4430 0.677
101.4733 0.677
101.5036 0.833
101.5338 1.302
101.5641 0.833
101.5944 0.781
101.6247 0.781
101.6549 0.729
101.6852 1.302
101.7155 0.990
101.7458 0.885
101.7761 1.250
101.8063 0.781
101.8366 0.573
101.8669 0.937
101.8972 1.146
101.9275 0.365
101.9577 0.990
101.9880 1.094
102.0183 0.625
102.0486 0.833
102.0788 1.042
102.1091 0.937
102.1394 0.833
102.1697 0.625
102.2000 0.677
102.2302 0.781
102.2605 0.729
102.2908 0.573
102.3211 0.990
102.3514 0.833
102.3816 0.781
102.4119 0.781
102.4422 1.146
102.4725 0.937
102.5028 1.094
102.5330 0.990
102.5633 0.833
102.5936 1.146
102.6239 1.094
102.6541 0.729
102.6844 1.250
102.7147 0.990
102.7450 1.354
102.7753 1.094
102.8055 1.094
102.8358 0.833
102.8661 1.094
102.8964 1.094
102.9267 1.510
102.9569 1.250
102.9872 1.354
103.0175 1.094
103.0478 1.302
103.0780 0.833
103.1083 0.833
103.1386 0.885
103.1689 0.885
103.1992 1.302
103.2294 1.198
103.2597 1.198
103.2900 1.146
103.3203 0.885
103.3506 1.250
103.3808 0.677
103.4111 1.094
103.4414 1.094
103.4717 1.406
103.5019 1.146
103.5322 1.042
103.5625 0.677
103.5928 1.094
103.6231 1.042
103.6533 1.458
103.6836 0.990
103.7139 1.042
103.7442 0.885
103.7745 1.354
103.8047 1.042
103.8350 1.823
103.8653 1.667
103.8956 1.406
103.9258 1.406
103.9561 1.354
103.9864 1.979
104.0167 1.250
104.0470 0.885
104.0772 1.615
104.1075 1.406
104.1378 1.510
104.1681 1.510
104.1984 1.406
104.2286 1.458
104.2589 1.146
104.2892 0.990
104.3195 1.458
104.3497 1.094
104.3800 1.458
104.4103 0.833
104.4406 1.562
104.4709 0.937
104.5011 0.885
104.5314 1.354
104.5617 0.833
104.5920 0.990
104.6223 0.781
104.6525 0.937
104.6828 1.042
104.7131 1.354
104.7434 0.833
104.7736 0.833
104.8039 0.833
104.8342 1.250
104.8645 0.729
104.8948 0.885
104.9250 0.833
104.9553 0.990
104.9856 1.042
105.0159 0.677
105.0462 1.042
105.0764 1.094
105.1067 0.729
105.1370 0.729
105.1673 0.885
105.1975 0.781
105.2278 1.094
105.2581 0.573
105.2884 0.729
105.3187 1.094
105.3489 0.937
105.3792 0.885
105.4095 0.469
105.4398 0.833
105.4701 1.354
105.5003 0.677
105.5306 0.885
105.5609 0.781
105.5912 0.625
105.6215 0.833
105.6517 0.417
105.6820 0.729
105.7123 0.625
105.7426 0.729
105.7728 0.937
105.8031 1.146
105.8334 0.677
105.8637 0.677
105.8940 0.990
105.9242 0.990
105.9545 0.781
105.9848 0.781
106.0151 0.781
106.0454 0.937
106.0756 0.937
106.1059 0.521
106.1362 0.729
106.1665 0.469
106.1967 1.146
106.2270 0.729
106.2573 0.521
106.2876 0.885
106.3179 0.885
106.3481 0.677
106.3784 0.729
106.4087 0.677
106.4390 0.937
106.4693 1.042
106.4995 0.521
106.5298 0.781
106.5601 0.885
106.5904 0.521
106.6206 0.885
106.6509 0.937
106.6812 0.885
106.7115 1.146
106.7418 0.729
106.7720 0.573
106.8023 0.885
106.8326 1.615
106.8629 1.458
106.8932 0.573
106.9234 0.573
106.9537 0.729
106.9840 1.250
107.0143 0.833
107.0445 0.573
107.0748 0.885
107.1051 0.729
107.1354 0.990
107.1657 1.146
107.1959 0.833
107.2262 1.302
107.2565 0.885
107.2868 0.677
107.3171 0.625
107.3473 0.833
107.3776 1.042
107.4079 0.885
107.4382 0.312
107.4684 0.729
107.4987 0.833
107.5290 0.833
107.5593 0.885
107.5896 0.885
107.6198 1.042
107.6501 1.146
107.6804 0.937
107.7107 1.094
107.7410 0.573
107.7712 0.677
107.8015 0.833
107.8318 0.677
107.8621 0.885
107.8923 0.677
107.9226 1.250
107.9529 0.573
107.9832 0.833
108.0135 0.573
108.0437 0.677
108.0740 1.146
108.1043 0.885
108.1346 0.833
108.1649 0.937
108.1951 1.354
108.2254 0.885
108.2557 0.625
108.2860 0.990
108.3163 1.094
108.3465 1.198
108.3768 0.885
108.4071 0.885
108.4374 0.625
108.4676 0.677
108.4979 0.625
108.5282 0.677
108.5585 1.094
108.5888 0.677
108.6190 0.833
108.6493 0.937
108.6796 0.781
108.7099 1.198
108.7402 0.365
108.7704 1.198
108.8007 0.677
108.8310 0.885
108.8613 0.781
108.8915 0.469
108.9218 0.833
108.9521 0.885
108.9824 0.573
109.0127 0.573
109.0429 0.573
109.0732 1.250
109.1035 0.833
109.1338 0.833
109.1641 1.146
109.1943 0.937
109.2246 0.781
109.2549 1.198
109.2852 1.042
109.3154 1.094
109.3457 0.885
109.3760 0.781
109.4063 1.042
109.4366 1.458
109.4668 0.677
109.4971 1.042
109.5274 0.625
109.5577 1.146
109.5880 0.729
109.6182 0.990
109.6485 0.937
109.6788 0.469
109.7091 0.990
109.7393 0.781
109.7696 0.990
109.7999 1.042
109.8302 1.094
109.8605 0.885
109.8907 0.990
109.9210 1.250
109.9513 0.937
109.9816 0.677
110.0119 1.406
110.0421 0.885
110.0724 1.094
110.1027 0.937
110.1330 1.042
110.1632 1.302
110.1935 1.094
110.2238 1.510
110.2541 1.146
110.2844 0.885
110.3146 1.042
110.3449 0.937
110.3752 0.833
110.4055 1.198
110.4358 0.937
110.4660 0.677
110.4963 0.937
110.5266 0.937
110.5569 1.302
110.5871 0.677
110.6174 1.458
110.6477 0.937
110.6780 0.990
110.7083 0.990
110.7385 1.094
110.7688 0.937
110.7991 1.250
110.8294 0.469
110.8597 0.937
110.8899 0.833
110.9202 0.885
110.9505 1.146
110.9808 0.885
111.0110 0.990
111.0413 0.990
111.0716 0.625
111.1019 1.094
111.1322 0.833
111.1624 0.833
111.1927 0.937
111.2230 0.729
111.2533 0.469
111.2836 0.677
111.3138 0.833
111.3441 0.521
111.3744 0.729
111.4047 0.729
111.4350 0.573
111.4652 0.990
111.4955 0.625
111.5258 0.937
111.5561 0.937
111.5863 0.417
111.6166 1.146
111.6469 0.729
111.6772 0.990
111.7075 0.937
111.7377 0.573
111.7680 0.885
111.7983 0.781
111.8286 0.625
111.8589 0.781
111.8891 0.990
111.9194 0.885
111.9497 1.094
111.9800 0.781
112.0102 0.677
112.0405 0.885
112.0708 0.625
112.1011 1.198
112.1314 0.885
112.1616 1.042
112.1919 0.833
112.2222 0.521
112.2525 1.354
112.2828 0.885
112.3130 0.833
112.3433 1.458
112.3736 0.677
112.4039 0.729
112.4341 0.990
112.4644 0.729
112.4947 0.729
112.5250 0.781
112.5553 0.937
112.5855 1.042
112.6158 0.625
112.6461 0.573
112.6764 0.417
112.7067 0.885
112.7369 0.729
112.7672 0.937
112.7975 0.677
112.8278 0.729
112.8580 0.833
112.8883 0.729
112.9186 0.833
112.9489 0.885
112.9792 0.365
113.0094 0.729
113.0397 0.937
113.0700 0.833
113.1003 1.042
113.1306 0.937
113.1608 0.417
113.1911 1.042
113.2214 0.833
113.2517 1.094
113.2819 0.469
113.3122 0.937
113.3425 0.729
113.3728 0.625
113.4031 0.990
113.4333 0.990
113.4636 0.677
113.4939 0.990
113.5242 0.365
113.5545 0.833
113.5847 0.833
113.6150 0.729
113.6453 0.469
113.6756 0.833
113.7058 0.990
113.7361 0.833
113.7664 0.521
113.7967 0.469
113.8270 0.781
113.8572 0.990
113.8875 1.198
113.9178 0.937
113.9481 0.781
113.9784 0.677
114.0086 0.729
114.0389 1.042
114.0692 0.990
114.0995 1.042
114.1298 0.990
114.1600 0.990
114.1903 1.198
114.2206 0.625
114.2509 1.354
114.2811 1.042
114.3114 0.729
114.3417 1.094
114.3720 1.146
114.4023 0.781
114.4325 1.042
114.4628 1.146
114.4931 1.042
114.5234 0.937
114.5537 1.146
114.5839 0.573
114.6142 0.573
114.6445 1.354
114.6748 1.250
114.7050 0.729
114.7353 1.198
114.7656 0.677
114.7959 0.729
114.8262 0.990
114.8564 0.625
114.8867 1.198
114.9170 0.729
114.9473 0.833
114.9776 0.729
115.0078 0.781
115.0381 0.833
115.0684 1.042
115.0987 1.042
115.1289 0.625
115.1592 0.625
115.1895 0.885
115.2198 0.677
115.2501 0.781
115.2803 0.625
115.3106 1.146
115.3409 0.729
115.3712 0.990
115.4015 1.146
115.4317 0.990
115.4620 0.729
115.4923 1.146
115.5226 0.729
115.5528 0.625
115.5831 1.146
115.6134 1.146
115.6437 1.094
115.6740 1.146
115.7042 1.302
115.7345 1.198
115.7648 1.406
115.7951 1.250
115.8254 1.250
115.8556 1.146
115.8859 1.458
115.9162 1.406
115.9465 1.198
115.9767 1.146
116.0070 1.406
116.0373 1.458
116.0676 1.562
116.0979 0.990
116.1281 1.146
116.1584 1.250
116.1887 1.406
116.2190 1.198
116.2493 1.458
116.2795 1.354
116.3098 1.406
116.3401 0.937
116.3704 1.562
116.4006 1.979
116.4309 1.562
116.4612 1.615
116.4915 1.146
116.5218 1.406
116.5520 0.990
116.5823 1.354
116.6126 1.146
116.6429 1.667
116.6732 1.406
116.7034 1.094
116.7337 1.667
116.7640 1.510
116.7943 1.042
116.8245 1.406
116.8548 0.990
116.8851 1.198
116.9154 1.198
116.9457 1.250
116.9759 1.458
117.0062 1.094
117.0365 0.990
117.0668 0.885
117.0971 1.198
117.1273 0.990
117.1576 1.250
117.1879 0.885
117.2182 1.146
117.2485 1.510
117.2787 0.990
117.3090 0.885
117.3393 0.781
117.3696 0.729
117.3998 1.094
117.4301 1.042
117.4604 0.937
117.4907 1.198
117.5210 1.094
117.5512 0.781
117.5815 0.833
117.6118 0.937
117.6421 0.990
117.6724 0.677
117.7026 1.250
117.7329 0.729
117.7632 0.781
117.7935 1.250
117.8237 0.937
117.8540 1.094
117.8843 0.990
117.9146 1.094
117.9449 1.094
117.9751 1.042
118.0054 0.781
118.0357 1.198
118.0660 0.937
118.0963 0.885
118.1265 0.781
118.1568 1.198
118.1871 1.094
118.2174 0.833
118.2476 0.885
118.2779 0.833
118.3082 0.677
118.3385 1.250
118.3688 0.573
118.3990 0.729
118.4293 0.885
118.4596 0.521
118.4899 0.833
118.5202 1.146
118.5504 0.521
118.5807 0.573
118.6110 0.781
118.6413 0.885
118.6715 0.729
118.7018 1.146
118.7321 0.937
118.7624 0.833
118.7927 0.937
118.8229 0.729
118.8532 0.937
118.8835 0.990
118.9138 0.677
118.9441 0.521
118.9743 1.094
119.0046 0.937
119.0349 0.990
119.0652 0.833
119.0954 0.833
119.1257 0.469
119.1560 1.302
119.1863 1.094
119.2166 0.625
119.2468 0.365
119.2771 0.833
119.3074 0.677
119.3377 0.885
119.3680 1.042
119.3982 0.990
119.4285 0.990
119.4588 1.042
119.4891 0.573
119.5193 0.885
119.5496 0.625
119.5799 0.781
119.6102 0.729
119.6405 0.469
119.6707 0.833
119.7010 1.042
119.7313 1.302
119.7616 0.625
119.7919 0.781
119.8221 1.042
119.8524 0.833
119.8827 0.729
119.9130 0.521
119.9433 0.885
119.9735 1.042
120.0038 0.677
