'Id: "" Comment: "" Operator: "Lab Manager" Anode: "Cu" Scantype: "Locked Coupled" TimePerStep: "19.2" X: "9999" Y: "9999" Z: "9999" 
10.0015 4.010
10.0318 4.167
10.0620 2.917
10.0923 3.125
10.1226 4.479
10.1529 3.750
10.1832 3.177
10.2134 3.646
10.2437 4.062
10.2740 3.750
10.3043 3.646
10.3346 3.281
10.3648 3.333
10.3951 3.906
10.4254 3.750
10.4557 4.062
10.4859 2.917
10.5162 4.062
10.5465 3.646
10.5768 3.594
10.6071 3.021
10.6373 4.219
10.6676 3.125
10.6979 3.958
10.7282 3.906
10.7585 2.917
10.7887 3.594
10.8190 3.229
10.8493 3.906
10.8796 3.177
10.9098 4.375
10.9401 3.906
10.9704 4.115
11.0007 4.010
11.0310 3.750
11.0612 3.385
11.0915 4.323
11.1218 3.750
11.1521 3.177
11.1824 4.271
11.2126 3.698
11.2429 4.531
11.2732 3.750
11.3035 3.437
11.3337 3.854
11.3640 4.323
11.3943 3.333
11.4246 3.802
11.4549 3.437
11.4851 4.010
11.5154 2.656
11.5457 3.281
11.5760 3.437
11.6063 2.760
11.6365 3.698
11.6668 3.021
11.6971 3.594
11.7274 4.167
11.7577 3.854
11.7879 2.865
11.8182 3.385
11.8485 3.958
11.8788 4.010
11.9090 3.437
11.9393 3.542
11.9696 3.854
11.9999 3.542
12.0302 3.698
12.0604 4.010
12.0907 3.594
12.1210 3.385
12.1513 3.698
12.1816 3.229
12.2118 2.917
12.2421 3.802
12.2724 3.490
12.3027 2.500
12.3329 3.177
12.3632 3.021
12.3935 3.542
12.4238 3.073
12.4541 3.281
12.4843 3.333
12.5146 3.490
12.5449 3.698
12.5752 3.229
12.6055 4.062
12.6357 2.865
12.6660 4.583
12.6963 2.760
12.7266 3.906
12.7568 3.750
12.7871 3.177
12.8174 3.385
12.8477 3.646
12.8780 4.115
12.9082 3.594
12.9385 3.698
12.9688 2.917
12.9991 3.385
13.0294 3.229
13.0596 3.073
13.0899 3.229
13.1202 3.177
13.1505 3.646
13.1807 3.802
13.2110 3.594
13.2413 2.865
13.2716 3.594
13.3019 2.760
13.3321 3.073
13.3624 3.385
13.3927 3.177
13.4230 3.177
13.4533 3.854
13.4835 3.750
13.5138 2.917
13.5441 3.177
13.5744 3.490
13.6046 3.333
13.6349 3.021
13.6652 4.115
13.6955 3.750
13.7258 2.760
13.7560 2.969
13.7863 2.865
13.8166 2.865
13.8469 3.385
13.8772 2.708
13.9074 2.448
13.9377 3.906
13.9680 2.917
13.9983 3.229
14.0285 2.812
14.0588 3.594
14.0891 3.385
14.1194 3.281
14.1497 3.646
14.1799 2.865
14.2102 2.812
14.2405 2.865
14.2708 3.281
14.3011 2.812
14.3313 2.865
14.3616 3.177
14.3919 3.646
14.4222 3.542
14.4524 2.917
14.4827 2.760
14.5130 2.812
14.5433 3.542
14.5736 3.021
14.6038 4.062
14.6341 2.969
14.6644 3.490
14.6947 2.604
14.7250 3.073
14.7552 3.177
14.7855 3.750
14.8158 3.437
14.8461 2.552
14.8764 3.125
14.9066 4.323
14.9369 2.969
14.9672 2.865
14.9975 2.969
15.0277 3.021
15.0580 2.812
15.0883 3.229
15.1186 2.292
15.1489 2.865
15.1791 3.281
15.2094 3.021
15.2397 2.812
15.2700 3.177
15.3003 3.021
15.3305 3.490
15.3608 3.229
15.3911 3.125
15.4214 3.594
15.4516 2.708
15.4819 3.646
15.5122 3.177
15.5425 3.490
15.5728 4.062
15.6030 1.875
15.6333 3.281
15.6636 3.229
15.6939 3.594
15.7242 2.812
15.7544 3.281
15.7847 3.385
15.8150 3.698
15.8453 3.125
15.8755 3.281
15.9058 3.177
15.9361 3.333
15.9664 2.812
15.9967 3.073
16.0269 3.281
16.0572 2.396
16.0875 2.656
16.1178 2.552
16.1481 2.708
16.1783 3.490
16.2086 2.135
16.2389 2.865
16.2692 2.760
16.2994 2.344
16.3297 2.656
16.3600 3.437
16.3903 3.281
16.4206 3.281
16.4508 3.281
16.4811 2.240
16.5114 3.177
16.5417 3.437
16.5720 3.281
16.6022 2.396
16.6325 2.760
16.6628 3.802
16.6931 4.219
16.7233 2.812
16.7536 3.021
16.7839 2.865
16.8142 3.125
16.8445 2.656
16.8747 2.500
16.9050 3.698
16.9353 3.021
16.9656 3.177
16.9959 3.177
17.0261 3.437
17.0564 3.281
17.0867 3.021
17.1170 2.708
17.1472 3.021
17.1775 3.802
17.2078 2.760
17.2381 3.542
17.2684 3.437
17.2986 2.865
17.3289 3.437
17.3592 3.594
17.3895 3.281
17.4198 2.917
17.4500 3.437
17.4803 3.281
17.5106 2.865
17.5409 2.760
17.5712 2.969
17.6014 2.917
17.6317 2.865
17.6620 2.969
17.6923 2.448
17.7225 2.656
17.7528 3.229
17.7831 3.854
17.8134 2.812
17.8437 2.917
17.8739 2.396
17.9042 3.854
17.9345 2.865
17.9648 3.594
17.9951 2.969
18.0253 2.865
18.0556 2.760
18.0859 3.802
18.1162 2.812
18.1464 3.021
18.1767 3.490
18.2070 3.125
18.2373 2.708
18.2676 3.281
18.2978 3.698
18.3281 2.917
18.3584 2.917
18.3887 3.750
18.4190 3.437
18.4492 3.437
18.4795 2.812
18.5098 3.437
18.5401 2.344
18.5703 2.292
18.6006 1.875
18.6309 2.812
18.6612 2.135
18.6915 2.812
18.7217 3.490
18.7520 2.708
18.7823 3.333
18.8126 2.760
18.8429 3.073
18.8731 2.708
18.9034 3.021
18.9337 3.229
18.9640 3.021
18.9942 2.448
19.0245 3.906
19.0548 2.708
19.0851 2.604
19.1154 2.969
19.1456 3.073
19.1759 1.875
19.2062 3.646
19.2365 3.125
19.2668 3.958
19.2970 3.125
19.3273 2.656
19.3576 2.969
19.3879 2.969
19.4181 3.177
19.4484 2.396
19.4787 2.604
19.5090 2.760
19.5393 2.760
19.5695 3.437
19.5998 3.177
19.6301 2.917
19.6604 2.812
19.6907 3.073
19.7209 2.760
19.7512 3.490
19.7815 2.552
19.8118 3.490
19.8420 2.656
19.8723 2.344
19.9026 2.604
19.9329 2.969
19.9632 2.552
19.9934 3.229
20.0237 2.969
20.0540 2.760
20.0843 2.292
20.1146 3.021
20.1448 2.812
20.1751 2.344
20.2054 2.292
20.2357 2.344
20.2659 2.760
20.2962 2.917
20.3265 2.344
20.3568 1.979
20.3871 3.385
20.4173 2.760
20.4476 2.604
20.4779 3.073
20.5082 3.281
20.5385 2.865
20.5687 3.542
20.5990 4.062
20.6293 2.448
20.6596 2.760
20.6899 2.604
20.7201 2.500
20.7504 2.448
20.7807 3.750
20.8110 2.865
20.8412 2.656
20.8715 2.604
20.9018 2.083
20.9321 2.552
20.9624 2.656
20.9926 2.604
21.0229 2.656
21.0532 3.073
21.0835 2.812
21.1138 3.281
21.1440 2.656
21.1743 3.177
21.2046 3.958
21.2349 2.708
21.2651 2.865
21.2954 2.448
21.3257 2.448
21.3560 1.771
21.3863 2.552
21.4165 3.073
21.4468 2.344
21.4771 2.448
21.5074 2.917
21.5377 2.604
21.5679 2.500
21.5982 3.177
21.6285 3.229
21.6588 2.760
21.6890 2.656
21.7193 3.229
21.7496 2.292
21.7799 3.281
21.8102 2.187
21.8404 2.448
21.8707 2.865
21.9010 3.542
21.9313 2.760
21.9616 3.229
21.9918 2.604
22.0221 1.927
22.0524 2.240
22.0827 3.073
22.1129 2.187
22.1432 2.083
22.1735 3.229
22.2038 3.854
22.2341 2.344
22.2643 2.500
22.2946 2.396
22.3249 3.281
22.3552 3.229
22.3855 2.135
22.4157 3.646
22.4460 3.021
22.4763 3.229
22.5066 2.187
22.5368 2.708
22.5671 2.969
22.5974 2.656
22.6277 2.240
22.6580 2.552
22.6882 2.969
22.7185 3.177
22.7488 2.604
22.7791 3.073
22.8094 2.760
22.8396 2.396
22.8699 3.073
22.9002 3.281
22.9305 3.385
22.9607 3.594
22.9910 2.760
23.0213 3.021
23.0516 2.708
23.0819 3.125
23.1121 3.177
23.1424 2.969
23.1727 3.177
23.2030 2.760
23.2333 2.448
23.2635 3.021
23.2938 3.333
23.3241 3.490
23.3544 3.021
23.3846 2.969
23.4149 2.812
23.4452 2.760
23.4755 2.708
23.5058 2.083
23.5360 2.656
23.5663 2.812
23.5966 2.240
23.6269 3.073
23.6572 1.667
23.6874 2.812
23.7177 2.969
23.7480 2.292
23.7783 1.510
23.8086 2.240
23.8388 2.083
23.8691 1.927
23.8994 2.396
23.9297 3.125
23.9599 2.344
23.9902 3.177
24.0205 2.812
24.0508 2.448
24.0811 2.708
24.1113 2.708
24.1416 2.917
24.1719 2.240
24.2022 2.135
24.2325 2.396
24.2627 2.292
24.2930 2.604
24.3233 2.187
24.3536 1.667
24.3838 2.292
24.4141 2.917
24.4444 3.073
24.4747 2.917
24.5050 3.385
24.5352 3.021
24.5655 3.125
24.5958 2.083
24.6261 2.656
24.6564 2.135
24.6866 2.708
24.7169 2.969
24.7472 3.385
24.7775 2.448
24.8077 2.708
24.8380 2.812
24.8683 2.396
24.8986 3.177
24.9289 2.135
24.9591 2.969
24.9894 3.125
25.0197 2.760
25.0500 2.760
25.0803 2.448
25.1105 2.552
25.1408 2.969
25.1711 3.698
25.2014 2.240
25.2316 2.031
25.2619 2.760
25.2922 2.448
25.3225 2.969
25.3528 2.500
25.3830 1.875
25.4133 2.708
25.4436 3.125
25.4739 3.437
25.5042 2.812
25.5344 2.969
25.5647 3.281
25.5950 2.865
25.6253 2.083
25.6555 1.875
25.6858 2.708
25.7161 2.760
25.7464 3.281
25.7767 2.187
25.8069 2.708
25.8372 2.812
25.8675 2.812
25.8978 2.135
25.9281 2.656
25.9583 2.396
25.9886 3.385
26.0189 2.917
26.0492 3.021
26.0794 2.604
26.1097 2.292
26.1400 3.073
26.1703 3.594
26.2006 3.021
26.2308 2.865
26.2611 2.344
26.2914 3.542
26.3217 3.385
26.3520 2.448
26.3822 3.385
26.4125 3.073
26.4428 3.542
26.4731 2.396
26.5034 2.812
26.5336 2.500
26.5639 2.760
26.5942 2.812
26.6245 2.812
26.6547 2.812
26.6850 2.812
26.7153 2.656
26.7456 2.656
26.7759 2.760
26.8061 3.542
26.8364 3.958
26.8667 4.323
26.8970 3.750
26.9273 2.969
26.9575 2.760
26.9878 2.917
27.0181 2.812
27.0484 3.854
27.0786 3.125
27.1089 2.969
27.1392 3.021
27.1695 2.292
27.1998 3.125
27.2300 3.646
27.2603 3.073
27.2906 2.812
27.3209 3.021
27.3512 3.698
27.3814 2.500
27.4117 2.344
27.4420 3.542
27.4723 3.385
27.5025 2.812
27.5328 2.344
27.5631 2.500
27.5934 2.865
27.6237 3.750
27.6539 3.385
27.6842 2.812
27.7145 3.125
27.7448 3.177
27.7751 2.969
27.8053 3.594
27.8356 2.812
27.8659 3.229
27.8962 3.437
27.9264 3.594
27.9567 3.333
27.9870 3.594
28.0173 2.812
28.0476 3.281
28.0778 3.958
28.1081 2.760
28.1384 2.656
28.1687 3.385
28.1990 3.958
28.2292 3.073
28.2595 3.177
28.2898 3.490
28.3201 3.437
28.3503 4.219
28.3806 3.385
28.4109 3.698
28.4412 3.073
28.4715 3.854
28.5017 3.958
28.5320 3.229
28.5623 3.958
28.5926 4.115
28.6229 3.385
28.6531 3.229
28.6834 3.177
28.7137 3.385
28.7440 4.531
28.7742 3.490
28.8045 3.073
28.8348 3.750
28.8651 4.323
28.8954 3.490
28.9256 3.490
28.9559 3.333
28.9862 3.229
29.0165 3.958
29.0468 4.115
29.0770 3.750
29.1073 3.437
29.1376 3.698
29.1679 4.010
29.1981 3.490
29.2284 4.219
29.2587 3.958
29.2890 4.323
29.3193 3.594
29.3495 4.219
29.3798 3.542
29.4101 3.646
29.4404 3.333
29.4707 3.906
29.5009 4.323
29.5312 4.427
29.5615 4.219
29.5918 4.479
29.6221 3.437
29.6523 3.281
29.6826 3.542
29.7129 3.490
29.7432 3.906
29.7734 4.115
29.8037 4.583
29.8340 3.594
29.8643 5.156
29.8946 4.062
29.9248 4.115
29.9551 4.010
29.9854 4.271
30.0157 4.844
30.0460 3.906
30.0762 4.271
30.1065 5.052
30.1368 4.062
30.1671 4.479
30.1973 5.000
30.2276 5.365
30.2579 5.625
30.2882 5.208
30.3185 4.948
30.3487 5.521
30.3790 5.000
30.4093 4.375
30.4396 5.677
30.4699 5.990
30.5001 6.458
30.5304 5.312
30.5607 5.469
30.5910 5.885
30.6212 6.146
30.6515 6.198
30.6818 6.406
30.7121 6.302
30.7424 8.490
30.7726 7.552
30.8029 8.177
30.8332 8.073
30.8635 7.344
30.8938 7.552
30.9240 9.844
30.9543 10.260
30.9846 10.156
31.0149 9.427
31.0451 11.094
31.0754 11.927
31.1057 12.240
31.1360 13.646
31.1663 14.062
31.1965 14.427
31.2268 17.656
31.2571 17.187
31.2874 20.000
31.3177 21.667
31.3479 23.594
31.3782 26.042
31.4085 29.062
31.4388 32.917
31.4690 36.667
31.4993 39.740
31.5296 40.885
31.5599 45.677
31.5902 47.812
31.6204 47.135
31.6507 49.792
31.6810 49.948
31.7113 48.073
31.7416 47.969
31.7718 42.135
31.8021 33.542
31.8324 33.594
31.8627 29.687
31.8929 24.792
31.9232 22.240
31.9535 19.531
31.9838 18.646
32.0141 16.875
32.0443 16.302
32.0746 14.792
32.1049 11.302
32.1352 12.604
32.1655 11.094
32.1957 9.271
32.2260 10.260
32.2563 9.792
32.2866 8.490
32.3169 10.000
32.3471 8.698
32.3774 9.271
32.4077 8.542
32.4380 7.500
32.4682 7.969
32.4985 7.240
32.5288 7.187
32.5591 6.719
32.5894 6.458
32.6196 7.031
32.6499 6.094
32.6802 6.406
32.7105 7.031
32.7408 5.937
32.7710 6.042
32.8013 5.990
32.8316 6.198
32.8619 5.833
32.8921 6.250
32.9224 4.271
32.9527 6.146
32.9830 5.312
33.0133 5.885
33.0435 6.042
33.0738 5.312
33.1041 4.896
33.1344 6.771
33.1647 4.479
33.1949 5.312
33.2252 5.469
33.2555 5.469
33.2858 5.937
33.3160 5.677
33.3463 6.406
33.3766 5.729
33.4069 6.458
33.4372 6.562
33.4674 7.292
33.4977 6.458
33.5280 6.562
33.5583 7.083
33.5886 7.917
33.6188 7.656
33.6491 6.302
33.6794 6.510
33.7097 8.177
33.7399 7.812
33.7702 7.865
33.8005 9.010
33.8308 9.427
33.8611 9.740
33.8913 10.000
33.9216 10.625
33.9519 11.823
33.9822 13.750
34.0125 15.052
34.0427 16.927
34.0730 21.094
34.1033 22.969
34.1336 27.552
34.1638 31.667
34.1941 38.333
34.2244 44.740
34.2547 56.406
34.2850 65.625
34.3152 64.271
34.3455 58.385
34.3758 47.240
34.4061 43.646
34.4364 35.208
34.4666 27.500
34.4969 23.229
34.5272 19.062
34.5575 18.802
34.5877 15.260
34.6180 14.635
34.6483 12.969
34.6786 13.437
34.7089 9.635
34.7391 11.562
34.7694 11.198
34.7997 9.323
34.8300 8.542
34.8603 10.833
34.8905 9.115
34.9208 9.687
34.9511 8.802
34.9814 9.479
35.0116 9.167
35.0419 9.583
35.0722 9.375
35.1025 8.542
35.1328 9.219
35.1630 10.990
35.1933 8.854
35.2236 9.635
35.2539 10.260
35.2842 10.521
35.3144 10.417
35.3447 11.198
35.3750 10.990
35.4053 11.562
35.4356 12.760
35.4658 13.021
35.4961 14.062
35.5264 13.490
35.5567 16.198
35.5869 15.521
35.6172 18.490
35.6475 18.698
35.6778 19.427
35.7081 21.823
35.7383 22.865
35.7686 23.802
35.7989 27.292
35.8292 31.406
35.8595 34.792
35.8897 37.656
35.9200 44.010
35.9503 44.740
35.9806 50.573
36.0108 59.010
36.0411 61.458
36.0714 65.208
36.1017 72.083
36.1320 72.865
36.1622 72.344
36.1925 68.021
36.2228 63.802
36.2531 63.646
36.2834 55.052
36.3136 48.594
36.3439 42.292
36.3742 39.115
36.4045 35.156
36.4347 31.458
36.4650 27.344
36.4953 25.625
36.5256 21.875
36.5559 19.687
36.5861 19.167
36.6164 17.656
36.6467 14.792
36.6770 14.219
36.7073 14.062
36.7375 12.396
36.7678 10.885
36.7981 11.562
36.8284 9.323
36.8586 10.469
36.8889 8.333
36.9192 9.479
36.9495 8.490
36.9798 7.969
37.0100 8.594
37.0403 6.771
37.0706 6.354
37.1009 7.448
37.1312 6.979
37.1614 6.042
37.1917 6.823
37.2220 6.875
37.2523 6.146
37.2825 6.094
37.3128 5.729
37.3431 5.104
37.3734 5.312
37.4037 5.469
37.4339 6.302
37.4642 4.896
37.4945 5.573
37.5248 5.000
37.5551 4.687
37.5853 4.167
37.6156 5.260
37.6459 5.260
37.6762 4.375
37.7064 3.802
37.7367 3.385
37.7670 4.844
37.7973 4.115
37.8276 4.531
37.8578 3.802
37.8881 4.271
37.9184 4.219
37.9487 3.333
37.9790 3.229
38.0092 3.646
38.0395 3.542
38.0698 3.594
38.1001 3.542
38.1304 3.698
38.1606 2.708
38.1909 3.385
38.2212 2.917
38.2515 3.073
38.2817 3.333
38.3120 3.437
38.3423 3.854
38.3726 3.750
38.4029 3.698
38.4331 2.760
38.4634 3.958
38.4937 3.490
38.5240 2.708
38.5543 3.177
38.5845 3.333
38.6148 2.604
38.6451 2.656
38.6754 3.177
38.7056 2.135
38.7359 2.656
38.7662 3.281
38.7965 3.646
38.8268 2.500
38.8570 3.177
38.8873 2.656
38.9176 3.073
38.9479 2.708
38.9782 2.396
39.0084 2.708
39.0387 2.500
39.0690 3.177
39.0993 2.187
39.1295 3.125
39.1598 3.229
39.1901 3.021
39.2204 2.448
39.2507 2.292
39.2809 3.385
39.3112 3.333
39.3415 2.500
39.3718 2.969
39.4021 2.656
39.4323 2.760
39.4626 2.552
39.4929 2.656
39.5232 2.656
39.5534 2.812
39.5837 2.656
39.6140 2.031
39.6443 2.448
39.6746 2.031
39.7048 2.812
39.7351 2.187
39.7654 2.917
39.7957 2.708
39.8260 2.865
39.8562 2.917
39.8865 2.865
39.9168 2.552
39.9471 2.812
39.9773 2.448
40.0076 2.760
40.0379 2.396
40.0682 1.823
40.0985 1.667
40.1287 1.823
40.1590 2.656
40.1893 3.125
40.2196 1.927
40.2499 2.604
40.2801 2.240
40.3104 2.604
40.3407 2.604
40.3710 2.552
40.4012 2.500
40.4315 2.552
40.4618 2.135
40.4921 1.927
40.5224 2.344
40.5526 2.292
40.5829 2.656
40.6132 2.500
40.6435 1.823
40.6738 1.719
40.7040 2.083
40.7343 2.292
40.7646 2.604
40.7949 2.448
40.8251 1.823
40.8554 2.396
40.8857 2.396
40.9160 2.656
40.9463 2.031
40.9765 2.604
41.0068 2.708
41.0371 2.135
41.0674 2.500
41.0977 1.458
41.1279 2.448
41.1582 2.135
41.1885 2.135
41.2188 1.719
41.2491 2.240
41.2793 1.979
41.3096 2.187
41.3399 2.708
41.3702 2.083
41.4004 2.344
41.4307 1.458
41.4610 2.917
41.4913 2.187
41.5216 2.448
41.5518 1.979
41.5821 2.552
41.6124 2.656
41.6427 2.240
41.6730 2.292
41.7032 2.448
41.7335 1.771
41.7638 2.135
41.7941 2.031
41.8243 1.823
41.8546 2.083
41.8849 2.240
41.9152 1.927
41.9455 1.927
41.9757 1.719
42.0060 2.396
42.0363 2.031
42.0666 1.823
42.0969 2.500
42.1271 2.187
42.1574 2.031
42.1877 1.510
42.2180 2.083
42.2482 2.083
42.2785 1.771
42.3088 2.396
42.3391 2.292
42.3694 2.656
42.3996 2.656
42.4299 2.292
42.4602 2.031
42.4905 2.292
42.5208 2.708
42.5510 2.760
42.5813 2.031
42.6116 1.510
42.6419 2.135
42.6721 2.135
42.7024 1.823
42.7327 2.604
42.7630 1.823
42.7933 1.354
42.8235 1.354
42.8538 2.292
42.8841 2.448
42.9144 1.615
42.9447 1.562
42.9749 2.448
43.0052 2.083
43.0355 1.823
43.0658 2.552
43.0960 2.240
43.1263 2.552
43.1566 1.667
43.1869 1.927
43.2172 1.927
43.2474 3.021
43.2777 2.135
43.3080 2.187
43.3383 1.927
43.3686 2.031
43.3988 2.448
43.4291 2.083
43.4594 1.979
43.4897 1.979
43.5199 2.031
43.5502 1.979
43.5805 2.292
43.6108 1.979
43.6411 2.344
43.6713 1.875
43.7016 2.187
43.7319 2.292
43.7622 1.927
43.7925 2.292
43.8227 2.187
43.8530 1.979
43.8833 1.771
43.9136 1.823
43.9439 1.927
43.9741 2.448
44.0044 2.083
44.0347 2.031
44.0650 2.552
44.0952 2.500
44.1255 1.979
44.1558 2.344
44.1861 1.667
44.2164 2.812
44.2466 2.708
44.2769 1.458
44.3072 2.344
44.3375 2.552
44.3678 2.135
44.3980 1.979
44.4283 2.448
44.4586 2.344
44.4889 1.771
44.5191 2.344
44.5494 2.240
44.5797 2.760
44.6100 2.135
44.6403 1.927
44.6705 2.344
44.7008 2.031
44.7311 2.760
44.7614 1.719
44.7917 2.344
44.8219 2.187
44.8522 2.865
44.8825 1.354
44.9128 2.552
44.9430 2.656
44.9733 2.604
45.0036 1.823
45.0339 2.448
45.0642 3.490
45.0944 1.771
45.1247 2.083
45.1550 2.344
45.1853 2.187
45.2156 1.771
45.2458 1.875
45.2761 2.083
45.3064 2.604
45.3367 2.396
45.3669 2.292
45.3972 2.552
45.4275 2.448
45.4578 2.135
45.4881 2.708
45.5183 1.615
45.5486 1.979
45.5789 2.500
45.6092 3.073
45.6395 2.187
45.6697 2.083
45.7000 2.344
45.7303 2.187
45.7606 2.240
45.7908 2.656
45.8211 2.552
45.8514 2.969
45.8817 2.448
45.9120 2.969
45.9422 2.187
45.9725 2.760
46.0028 2.292
46.0331 2.396
46.0634 2.240
46.0936 2.708
46.1239 2.083
46.1542 2.552
46.1845 3.021
46.2147 2.812
46.2450 3.073
46.2753 2.969
46.3056 2.969
46.3359 3.125
46.3661 2.969
46.3964 3.490
46.4267 3.229
46.4570 2.760
46.4873 3.385
46.5175 3.125
46.5478 3.490
46.5781 2.917
46.6084 2.865
46.6386 4.062
46.6689 3.125
46.6992 3.698
46.7295 3.698
46.7598 3.958
46.7900 4.635
46.8203 3.802
46.8506 4.115
46.8809 4.375
46.9112 4.792
46.9414 5.104
46.9717 5.625
47.0020 6.302
47.0323 6.354
47.0626 6.250
47.0928 7.812
47.1231 8.646
47.1534 9.792
47.1837 9.583
47.2139 8.958
47.2442 10.781
47.2745 12.083
47.3048 13.229
47.3351 12.812
47.3653 14.167
47.3956 15.937
47.4259 15.000
47.4562 14.115
47.4865 14.167
47.5167 12.760
47.5470 13.021
47.5773 11.042
47.6076 11.042
47.6378 11.927
47.6681 10.365
47.6984 9.531
47.7287 7.865
47.7590 7.656
47.7892 6.406
47.8195 6.875
47.8498 5.625
47.8801 4.687
47.9104 4.792
47.9406 4.375
47.9709 4.323
48.0012 4.323
48.0315 4.219
48.0617 3.333
48.0920 3.229
48.1223 3.229
48.1526 3.073
48.1829 3.333
48.2131 4.062
48.2434 3.073
48.2737 2.969
48.3040 2.812
48.3343 3.073
48.3645 2.135
48.3948 2.656
48.4251 2.604
48.4554 2.604
48.4856 2.552
48.5159 2.448
48.5462 3.021
48.5765 2.812
48.6068 2.604
48.6370 2.292
48.6673 2.760
48.6976 2.656
48.7279 2.135
48.7582 2.604
48.7884 2.187
48.8187 2.240
48.8490 2.865
48.8793 2.396
48.9095 2.292
48.9398 2.031
48.9701 1.927
49.0004 2.292
49.0307 2.812
49.0609 1.875
49.0912 2.865
49.1215 2.604
49.1518 1.719
49.1821 2.083
49.2123 1.562
49.2426 2.187
49.2729 2.083
49.3032 2.500
49.3334 2.240
49.3637 2.240
49.3940 1.927
49.4243 1.719
49.4546 2.187
49.4848 2.240
49.5151 2.656
49.5454 1.510
49.5757 2.552
49.6060 3.437
49.6362 1.875
49.6665 1.979
49.6968 2.917
49.7271 2.344
49.7574 2.240
49.7876 2.083
49.8179 2.187
49.8482 2.969
49.8785 3.073
49.9087 1.875
49.9390 2.083
49.9693 1.979
49.9996 1.771
50.0299 2.760
50.0601 1.979
50.0904 2.969
50.1207 2.083
50.1510 1.719
50.1813 1.979
50.2115 2.083
50.2418 2.552
50.2721 2.344
50.3024 2.083
50.3326 2.083
50.3629 2.083
50.3932 2.604
50.4235 1.771
50.4538 2.135
50.4840 2.187
50.5143 2.344
50.5446 1.979
50.5749 2.083
50.6052 1.615
50.6354 2.708
50.6657 1.979
50.6960 2.083
50.7263 1.823
50.7565 2.083
50.7868 1.979
50.8171 1.562
50.8474 1.979
50.8777 2.031
50.9079 1.979
50.9382 2.083
50.9685 2.083
50.9988 1.667
51.0291 1.979
51.0593 2.031
51.0896 2.604
51.1199 2.187
51.1502 1.510
51.1804 1.510
51.2107 2.708
51.2410 2.083
51.2713 2.240
51.3016 1.667
51.3318 1.823
51.3621 2.292
51.3924 2.187
51.4227 1.875
51.4530 2.083
51.4832 1.771
51.5135 1.771
51.5438 1.562
51.5741 1.719
51.6043 2.552
51.6346 2.031
51.6649 1.875
51.6952 1.771
51.7255 1.875
51.7557 2.031
51.7860 1.927
51.8163 2.187
51.8466 1.979
51.8769 2.240
51.9071 2.656
51.9374 1.823
51.9677 1.927
51.9980 1.927
52.0282 2.292
52.0585 1.979
52.0888 2.083
52.1191 2.240
52.1494 2.187
52.1796 1.771
52.2099 2.760
52.2402 1.615
52.2705 2.240
52.3008 2.344
52.3310 1.979
52.3613 1.979
52.3916 2.031
52.4219 2.448
52.4521 2.917
52.4824 1.875
52.5127 2.396
52.5430 2.500
52.5733 1.979
52.6035 2.292
52.6338 2.396
52.6641 2.083
52.6944 2.344
52.7247 2.083
52.7549 1.771
52.7852 2.187
52.8155 1.719
52.8458 1.927
52.8761 2.396
52.9063 2.083
52.9366 2.240
52.9669 2.240
52.9972 1.562
53.0274 1.719
53.0577 1.927
53.0880 1.927
53.1183 1.354
53.1486 1.823
53.1788 2.500
53.2091 2.500
53.2394 2.604
53.2697 2.292
53.3000 2.031
53.3302 1.823
53.3605 2.396
53.3908 1.979
53.4211 2.187
53.4513 1.979
53.4816 1.875
53.5119 2.083
53.5422 1.823
53.5725 2.604
53.6027 1.719
53.6330 2.031
53.6633 2.187
53.6936 2.083
53.7239 1.979
53.7541 1.979
53.7844 2.083
53.8147 2.187
53.8450 1.771
53.8752 2.448
53.9055 2.552
53.9358 2.396
53.9661 2.240
53.9964 2.448
54.0266 2.187
54.0569 2.969
54.0872 1.927
54.1175 2.865
54.1478 2.187
54.1780 1.875
54.2083 2.448
54.2386 2.187
54.2689 1.771
54.2991 2.656
54.3294 1.719
54.3597 2.135
54.3900 2.500
54.4203 1.562
54.4505 2.135
54.4808 2.969
54.5111 2.448
54.5414 2.969
54.5717 1.979
54.6019 2.500
54.6322 2.448
54.6625 3.125
54.6928 2.448
54.7230 2.760
54.7533 2.448
54.7836 2.552
54.8139 2.448
54.8442 2.396
54.8744 2.187
54.9047 2.344
54.9350 1.979
54.9653 3.437
54.9956 2.708
55.0258 2.760
55.0561 3.125
55.0864 2.552
55.1167 3.125
55.1469 2.917
55.1772 3.281
55.2075 3.802
55.2378 2.865
55.2681 3.333
55.2983 3.177
55.3286 3.802
55.3589 2.865
55.3892 3.177
55.4195 3.073
55.4497 3.281
55.4800 2.969
55.5103 4.531
55.5406 3.333
55.5709 3.437
55.6011 3.750
55.6314 4.948
55.6617 4.010
55.6920 3.750
55.7222 4.219
55.7525 3.542
55.7828 4.844
55.8131 5.104
55.8434 4.167
55.8736 5.052
55.9039 6.198
55.9342 5.208
55.9645 6.771
55.9948 6.979
56.0250 7.292
56.0553 7.812
56.0856 6.615
56.1159 8.646
56.1461 9.740
56.1764 9.427
56.2067 11.406
56.2370 11.198
56.2673 13.021
56.2975 14.635
56.3278 14.219
56.3581 16.146
56.3884 18.125
56.4187 18.333
56.4489 19.062
56.4792 19.583
56.5095 20.729
56.5398 18.698
56.5700 18.229
56.6003 19.375
56.6306 15.625
56.6609 13.750
56.6912 13.229
56.7214 12.448
56.7517 12.135
56.7820 11.771
56.8123 10.573
56.8426 10.833
56.8728 8.958
56.9031 8.281
56.9334 7.292
56.9637 6.615
56.9939 7.187
57.0242 5.469
57.0545 4.583
57.0848 5.260
57.1151 4.167
57.1453 4.896
57.1756 5.156
57.2059 4.010
57.2362 4.635
57.2665 3.958
57.2967 3.906
57.3270 3.906
57.3573 3.333
57.3876 3.854
57.4178 3.958
57.4481 3.385
57.4784 3.542
57.5087 3.646
57.5390 3.177
57.5692 3.490
57.5995 4.062
57.6298 2.917
57.6601 2.812
57.6904 2.656
57.7206 3.490
57.7509 2.552
57.7812 2.812
57.8115 2.240
57.8417 2.604
57.8720 3.333
57.9023 3.229
57.9326 2.708
57.9629 2.708
57.9931 2.187
58.0234 2.552
58.0537 2.708
58.0840 2.708
58.1143 2.656
58.1445 3.021
58.1748 2.760
58.2051 2.708
58.2354 2.240
58.2656 1.875
58.2959 1.927
58.3262 1.979
58.3565 2.500
58.3868 2.917
58.4170 2.187
58.4473 1.927
58.4776 2.500
58.5079 2.187
58.5382 2.552
58.5684 2.344
58.5987 2.187
58.6290 2.865
58.6593 2.292
58.6896 2.187
58.7198 1.719
58.7501 2.969
58.7804 2.187
58.8107 2.031
58.8409 2.292
58.8712 2.187
58.9015 2.708
58.9318 2.135
58.9621 3.177
58.9923 2.760
59.0226 2.292
59.0529 2.552
59.0832 1.875
59.1135 2.604
59.1437 2.292
59.1740 2.917
59.2043 2.500
59.2346 2.344
59.2648 2.604
59.2951 2.396
59.3254 2.135
59.3557 2.708
59.3860 2.135
59.4162 1.562
59.4465 2.500
59.4768 2.656
59.5071 1.927
59.5374 2.240
59.5676 1.875
59.5979 2.344
59.6282 2.448
59.6585 1.875
59.6887 2.344
59.7190 2.240
59.7493 2.135
59.7796 2.344
59.8099 1.562
59.8401 2.344
59.8704 1.510
59.9007 2.135
59.9310 2.396
59.9613 2.240
59.9915 2.135
60.0218 1.771
60.0521 2.240
60.0824 2.396
60.1126 1.823
60.1429 1.875
60.1732 2.396
60.2035 1.771
60.2338 2.031
60.2640 1.823
60.2943 2.448
60.3246 1.927
60.3549 2.083
60.3852 2.396
60.4154 1.927
60.4457 1.719
60.4760 2.031
60.5063 2.292
60.5365 1.510
60.5668 2.708
60.5971 2.240
60.6274 2.187
60.6577 2.552
60.6879 2.865
60.7182 3.177
60.7485 2.396
60.7788 2.656
60.8091 2.396
60.8393 2.708
60.8696 2.135
60.8999 2.760
60.9302 2.500
60.9604 2.083
60.9907 2.969
61.0210 2.812
61.0513 2.500
61.0816 2.083
61.1118 2.500
61.1421 2.604
61.1724 2.344
61.2027 2.604
61.2330 2.500
61.2632 2.656
61.2935 2.031
61.3238 3.125
61.3541 2.240
61.3844 2.552
61.4146 2.656
61.4449 2.240
61.4752 3.229
61.5055 1.823
61.5357 2.656
61.5660 3.125
61.5963 2.135
61.6266 2.500
61.6569 2.865
61.6871 3.542
61.7174 2.500
61.7477 2.604
61.7780 2.240
61.8083 2.969
61.8385 3.854
61.8688 3.229
61.8991 3.542
61.9294 2.917
61.9596 4.010
61.9899 4.010
62.0202 4.531
62.0505 4.323
62.0808 3.750
62.1110 4.583
62.1413 4.687
62.1716 5.156
62.2019 5.312
62.2322 5.000
62.2624 6.250
62.2927 5.990
62.3230 6.354
62.3533 7.552
62.3835 7.552
62.4138 9.115
62.4441 8.542
62.4744 8.802
62.5047 8.958
62.5349 12.812
62.5652 12.187
62.5955 13.646
62.6258 13.906
62.6561 14.062
62.6863 15.729
62.7166 17.083
62.7469 15.729
62.7772 16.042
62.8074 15.833
62.8377 16.250
62.8680 13.594
62.8983 14.375
62.9286 13.490
62.9588 12.969
62.9891 12.292
63.0194 10.573
63.0497 10.990
63.0800 8.698
63.1102 8.958
63.1405 8.750
63.1708 7.656
63.2011 6.250
63.2313 5.417
63.2616 5.781
63.2919 5.469
63.3222 4.792
63.3525 4.740
63.3827 3.229
63.4130 4.427
63.4433 3.698
63.4736 4.219
63.5039 3.594
63.5341 3.750
63.5644 3.437
63.5947 3.385
63.6250 4.167
63.6552 3.229
63.6855 2.969
63.7158 3.021
63.7461 3.958
63.7764 2.500
63.8066 2.865
63.8369 3.073
63.8672 3.125
63.8975 2.448
63.9278 3.385
63.9580 3.333
63.9883 2.812
64.0186 2.812
64.0489 3.229
64.0791 2.396
64.1094 2.552
64.1397 2.604
64.1700 2.292
64.2003 2.187
64.2305 2.448
64.2608 2.187
64.2911 2.187
64.3214 2.500
64.3517 2.500
64.3819 2.500
64.4122 2.396
64.4425 2.865
64.4728 2.187
64.5031 2.031
64.5333 1.927
64.5636 2.240
64.5939 2.396
64.6242 2.031
64.6544 2.448
64.6847 3.021
64.7150 2.969
64.7453 3.021
64.7756 2.604
64.8058 2.760
64.8361 1.510
64.8664 2.500
64.8967 3.021
64.9270 1.875
64.9572 2.187
64.9875 2.135
65.0178 2.760
65.0481 2.448
65.0783 2.448
65.1086 1.458
65.1389 2.708
65.1692 2.760
65.1995 2.708
65.2297 2.240
65.2600 2.240
65.2903 2.344
65.3206 3.437
65.3509 2.448
65.3811 1.927
65.4114 2.552
65.4417 2.969
65.4720 2.812
65.5022 2.708
65.5325 2.812
65.5628 1.719
65.5931 3.229
65.6234 2.396
65.6536 2.865
65.6839 3.958
65.7142 3.021
65.7445 2.812
65.7748 3.125
65.8050 2.396
65.8353 2.708
65.8656 4.115
65.8959 2.812
65.9261 3.125
65.9564 3.177
65.9867 3.490
66.0170 3.490
66.0473 3.750
66.0775 4.531
66.1078 4.323
66.1381 4.271
66.1684 4.427
66.1987 4.427
66.2289 3.490
66.2592 4.687
66.2895 5.104
66.3198 4.583
66.3500 4.375
66.3803 4.531
66.4106 4.271
66.4409 3.750
66.4712 4.687
66.5014 3.906
66.5317 4.323
66.5620 4.375
66.5923 3.490
66.6226 4.323
66.6528 3.542
66.6831 3.906
66.7134 3.646
66.7437 3.333
66.7739 4.010
66.8042 3.333
66.8345 2.917
66.8648 3.229
66.8951 4.427
66.9253 3.750
66.9556 3.646
66.9859 2.552
67.0162 3.854
67.0465 3.437
67.0767 4.010
67.1070 4.167
67.1373 4.792
67.1676 3.854
67.1978 3.854
67.2281 4.479
67.2584 5.625
67.2887 4.948
67.3190 5.104
67.3492 6.250
67.3795 6.198
67.4098 6.198
67.4401 5.260
67.4704 6.198
67.5006 7.552
67.5309 6.510
67.5612 7.865
67.5915 8.281
67.6218 8.281
67.6520 10.729
67.6823 10.625
67.7126 11.250
67.7429 10.990
67.7731 11.250
67.8034 10.937
67.8337 11.458
67.8640 12.760
67.8943 12.708
67.9245 13.177
67.9548 10.885
67.9851 10.677
68.0154 10.729
68.0457 10.000
68.0759 9.323
68.1062 9.219
68.1365 9.115
68.1668 8.385
68.1970 8.385
68.2273 7.135
68.2576 6.302
68.2879 6.198
68.3182 6.510
68.3484 4.948
68.3787 6.510
68.4090 6.667
68.4393 5.312
68.4696 5.833
68.4998 5.469
68.5301 5.833
68.5604 5.521
68.5907 6.198
68.6209 5.729
68.6512 5.521
68.6815 5.885
68.7118 6.562
68.7421 5.417
68.7723 5.990
68.8026 6.875
68.8329 6.927
68.8632 6.719
68.8935 6.458
68.9237 6.250
68.9540 7.812
68.9843 6.979
69.0146 6.250
69.0448 5.885
69.0751 6.927
69.1054 7.552
69.1357 5.729
69.1660 6.250
69.1962 5.625
69.2265 5.885
69.2568 5.677
69.2871 5.833
69.3174 4.375
69.3476 3.854
69.3779 4.375
69.4082 4.271
69.4385 3.333
69.4687 2.552
69.4990 3.073
69.5293 3.073
69.5596 2.708
69.5899 3.646
69.6201 3.073
69.6504 3.437
69.6807 3.281
69.7110 2.708
69.7413 2.292
69.7715 2.344
69.8018 2.552
69.8321 2.604
69.8624 2.500
69.8926 2.135
69.9229 2.083
69.9532 3.021
69.9835 2.031
70.0138 2.187
70.0440 2.344
70.0743 1.979
70.1046 2.240
70.1349 2.292
70.1652 1.562
70.1954 2.135
70.2257 2.448
70.2560 2.240
70.2863 2.344
70.3166 1.927
70.3468 2.187
70.3771 2.604
70.4074 2.760
70.4377 2.135
70.4679 2.292
70.4982 2.187
70.5285 1.771
70.5588 1.719
70.5891 2.187
70.6193 2.187
70.6496 1.771
70.6799 1.823
70.7102 2.552
70.7405 1.458
70.7707 1.875
70.8010 1.406
70.8313 1.927
70.8616 2.187
70.8918 2.031
70.9221 1.927
70.9524 2.396
70.9827 1.771
71.0130 2.135
71.0432 1.615
71.0735 1.979
71.1038 2.292
71.1341 1.615
71.1644 1.510
71.1946 1.979
71.2249 2.396
71.2552 1.927
71.2855 1.875
71.3157 1.771
71.3460 1.302
71.3763 1.771
71.4066 2.240
71.4369 2.448
71.4671 1.927
71.4974 1.667
71.5277 1.875
71.5580 1.771
71.5883 1.354
71.6185 1.667
71.6488 1.771
71.6791 2.031
71.7094 2.031
71.7396 1.719
71.7699 1.458
71.8002 1.458
71.8305 1.406
71.8608 1.771
71.8910 2.031
71.9213 2.240
71.9516 1.667
71.9819 1.302
72.0122 1.615
72.0424 2.240
72.0727 2.240
72.1030 1.771
72.1333 1.927
72.1635 2.135
72.1938 2.240
72.2241 1.562
72.2544 1.979
72.2847 2.240
72.3149 2.135
72.3452 2.240
72.3755 2.500
72.4058 1.979
72.4361 2.865
72.4663 1.979
72.4966 2.187
72.5269 2.240
72.5572 2.396
72.5874 2.240
72.6177 2.708
72.6480 2.708
72.6783 2.917
72.7086 1.875
72.7388 2.135
72.7691 2.187
72.7994 1.615
72.8297 2.240
72.8600 2.552
72.8902 1.615
72.9205 1.979
72.9508 2.083
72.9811 1.719
73.0113 2.031
73.0416 1.927
73.0719 1.875
73.1022 2.031
73.1325 1.927
73.1627 1.771
73.1930 1.354
73.2233 1.302
73.2536 1.719
73.2839 1.719
73.3141 1.927
73.3444 1.458
73.3747 2.240
73.4050 1.250
73.4353 1.510
73.4655 1.302
73.4958 1.302
73.5261 1.146
73.5564 1.719
73.5866 1.302
73.6169 1.510
73.6472 1.250
73.6775 1.354
73.7078 2.031
73.7380 1.354
73.7683 1.458
73.7986 1.458
73.8289 1.302
73.8592 1.458
73.8894 1.458
73.9197 1.458
73.9500 1.562
73.9803 1.667
74.0105 1.719
74.0408 1.406
74.0711 1.354
74.1014 1.667
74.1317 1.667
74.1619 1.979
74.1922 1.667
74.2225 1.302
74.2528 1.615
74.2831 1.406
74.3133 2.187
74.3436 1.458
74.3739 1.302
74.4042 1.875
74.4344 1.458
74.4647 1.354
74.4950 1.250
74.5253 1.719
74.5556 1.719
74.5858 1.875
74.6161 1.719
74.6464 1.615
74.6767 1.250
74.7070 1.198
74.7372 1.198
74.7675 1.875
74.7978 1.198
74.8281 1.510
74.8583 1.250
74.8886 1.667
74.9189 1.615
74.9492 1.719
74.9795 1.615
75.0097 1.719
75.0400 1.198
75.0703 1.354
75.1006 1.771
75.1309 1.510
75.1611 1.771
75.1914 1.719
75.2217 1.354
75.2520 1.875
75.2822 1.510
75.3125 1.198
75.3428 1.094
75.3731 1.406
75.4034 1.771
75.4336 1.458
75.4639 1.719
75.4942 1.406
75.5245 1.146
75.5548 0.833
75.5850 1.719
75.6153 2.396
75.6456 1.979
75.6759 1.302
75.7061 1.615
75.7364 1.198
75.7667 1.719
75.7970 1.719
75.8273 2.240
75.8575 1.562
75.8878 1.510
75.9181 1.875
75.9484 1.615
75.9787 1.615
76.0089 1.719
76.0392 2.187
76.0695 1.667
76.0998 1.823
76.1301 1.667
76.1603 1.667
76.1906 1.615
76.2209 2.135
76.2512 1.562
76.2814 1.510
76.3117 1.927
76.3420 2.187
76.3723 2.031
76.4026 2.240
76.4328 2.031
76.4631 2.187
76.4934 1.667
76.5237 2.292
76.5540 1.875
76.5842 2.500
76.6145 2.083
76.6448 2.656
76.6751 2.344
76.7053 2.812
76.7356 2.604
76.7659 2.656
76.7962 1.771
76.8265 2.760
76.8567 2.135
76.8870 2.448
76.9173 2.917
76.9476 3.281
76.9779 2.031
77.0081 2.708
77.0384 2.917
77.0687 2.500
77.0990 2.500
77.1292 2.760
77.1595 1.875
77.1898 1.979
77.2201 2.292
77.2504 1.823
77.2806 1.510
77.3109 2.240
77.3412 1.823
77.3715 1.979
77.4018 1.719
77.4320 1.615
77.4623 1.823
77.4926 1.250
77.5229 2.031
77.5531 1.823
77.5834 1.667
77.6137 1.667
77.6440 1.771
77.6743 2.031
77.7045 1.771
77.7348 1.927
77.7651 2.083
77.7954 1.458
77.8257 1.302
77.8559 1.510
77.8862 1.615
77.9165 1.406
77.9468 1.302
77.9770 1.042
78.0073 1.667
78.0376 1.562
78.0679 1.146
78.0982 1.198
78.1284 1.198
78.1587 1.250
78.1890 1.302
78.2193 1.250
78.2496 1.875
78.2798 1.250
78.3101 1.771
78.3404 1.094
78.3707 1.406
78.4009 1.250
78.4312 1.302
78.4615 1.094
78.4918 1.823
78.5221 1.562
78.5523 1.719
78.5826 1.198
78.6129 1.302
78.6432 1.719
78.6735 1.667
78.7037 1.458
78.7340 1.510
78.7643 1.979
78.7946 1.667
78.8248 1.562
78.8551 1.406
78.8854 0.833
78.9157 1.458
78.9460 1.562
78.9762 1.458
79.0065 1.198
79.0368 1.458
79.0671 1.667
79.0974 1.771
79.1276 1.302
79.1579 1.771
79.1882 1.562
79.2185 1.198
79.2488 1.406
79.2790 1.354
79.3093 1.250
79.3396 1.979
79.3699 1.406
79.4001 1.094
79.4304 1.198
79.4607 1.562
79.4910 1.250
79.5213 1.198
79.5515 1.771
79.5818 1.510
79.6121 1.771
79.6424 1.406
79.6727 1.562
79.7029 1.823
79.7332 1.562
79.7635 0.990
79.7938 0.677
79.8240 1.458
79.8543 1.667
79.8846 1.615
79.9149 1.354
79.9452 1.146
79.9754 1.667
80.0057 1.823
80.0360 1.823
80.0663 1.667
80.0966 1.667
80.1268 1.302
80.1571 1.719
80.1874 1.458
80.2177 1.406
80.2479 1.562
80.2782 1.406
80.3085 1.615
80.3388 1.302
80.3691 1.667
80.3993 1.719
80.4296 1.042
80.4599 1.302
80.4902 1.667
80.5205 1.042
80.5507 1.510
80.5810 1.406
80.6113 1.250
80.6416 1.510
80.6718 1.667
80.7021 1.458
80.7324 1.823
80.7627 1.719
80.7930 1.302
80.8232 1.302
80.8535 2.031
80.8838 1.875
80.9141 1.719
80.9444 1.406
80.9746 2.240
81.0049 2.396
81.0352 1.458
81.0655 1.354
81.0957 1.510
81.1260 1.667
81.1563 1.719
81.1866 1.510
81.2169 1.771
81.2471 1.667
81.2774 1.667
81.3077 1.979
81.3380 2.083
81.3683 1.875
81.3985 2.031
81.4288 2.500
81.4591 1.667
81.4894 1.667
81.5196 2.396
81.5499 1.562
81.5802 1.250
81.6105 2.083
81.6408 1.771
81.6710 1.667
81.7013 2.031
81.7316 2.292
81.7619 1.979
81.7922 0.937
81.8224 1.615
81.8527 1.771
81.8830 1.927
81.9133 1.562
81.9436 1.510
81.9738 1.250
82.0041 1.250
82.0344 1.510
82.0647 1.250
82.0949 1.667
82.1252 1.823
82.1555 1.562
82.1858 1.458
82.2161 0.990
82.2463 1.615
82.2766 1.562
82.3069 0.990
82.3372 1.458
82.3675 1.562
82.3977 1.667
82.4280 1.146
82.4583 1.458
82.4886 1.667
82.5188 1.615
82.5491 1.667
82.5794 1.562
82.6097 1.250
82.6400 1.510
82.6702 1.094
82.7005 0.937
82.7308 1.615
82.7611 1.458
82.7914 1.302
82.8216 1.198
82.8519 1.562
82.8822 1.615
82.9125 1.354
82.9427 1.458
82.9730 1.354
83.0033 1.302
83.0336 1.198
83.0639 0.833
83.0941 1.615
83.1244 1.094
83.1547 1.354
83.1850 1.354
83.2153 1.354
83.2455 1.458
83.2758 1.250
83.3061 1.094
83.3364 1.094
83.3666 1.354
83.3969 0.990
83.4272 1.406
83.4575 1.458
83.4878 1.198
83.5180 1.510
83.5483 1.354
83.5786 1.615
83.6089 2.083
83.6392 1.458
83.6694 1.667
83.6997 1.198
83.7300 1.510
83.7603 1.042
83.7905 1.146
83.8208 1.510
83.8511 1.667
83.8814 1.146
83.9117 1.302
83.9419 1.198
83.9722 2.031
84.0025 1.719
84.0328 1.302
84.0631 1.667
84.0933 1.458
84.1236 1.250
84.1539 1.562
84.1842 1.667
84.2144 1.562
84.2447 1.771
84.2750 1.875
84.3053 1.562
84.3356 1.198
84.3658 0.781
84.3961 1.562
84.4264 0.729
84.4567 1.354
84.4870 0.833
84.5172 1.510
84.5475 1.354
84.5778 1.458
84.6081 1.094
84.6383 0.729
84.6686 0.781
84.6989 1.198
84.7292 1.615
84.7595 1.615
84.7897 1.354
84.8200 0.937
84.8503 1.302
84.8806 1.406
84.9109 1.250
84.9411 1.719
84.9714 1.354
85.0017 1.510
85.0320 1.042
85.0623 1.458
85.0925 1.458
85.1228 1.667
85.1531 1.146
85.1834 1.667
85.2136 1.146
85.2439 1.198
85.2742 1.302
85.3045 1.094
85.3348 1.250
85.3650 1.771
85.3953 1.250
85.4256 1.250
85.4559 1.562
85.4862 1.354
85.5164 1.198
85.5467 1.615
85.5770 1.667
85.6073 1.250
85.6375 0.885
85.6678 1.146
85.6981 1.198
85.7284 0.990
85.7587 1.667
85.7889 1.719
85.8192 1.458
85.8495 1.302
85.8798 1.458
85.9101 1.198
85.9403 1.823
85.9706 1.667
86.0009 1.354
86.0312 1.458
86.0614 1.615
86.0917 1.198
86.1220 1.458
86.1523 0.677
86.1826 1.302
86.2128 1.146
86.2431 1.302
86.2734 0.990
86.3037 1.562
86.3340 1.354
86.3642 1.406
86.3945 1.615
86.4248 1.302
86.4551 1.302
86.4853 1.615
86.5156 0.990
86.5459 1.771
86.5762 1.354
86.6065 1.927
86.6367 1.250
86.6670 0.990
86.6973 1.146
86.7276 1.198
86.7579 1.719
86.7881 1.146
86.8184 1.198
86.8487 1.354
86.8790 1.510
86.9092 0.833
86.9395 0.990
86.9698 1.771
87.0001 1.354
87.0304 1.458
87.0606 1.719
87.0909 1.510
87.1212 1.823
87.1515 1.510
87.1818 1.667
87.2120 1.875
87.2423 1.406
87.2726 1.823
87.3029 1.354
87.3331 1.406
87.3634 1.406
87.3937 1.146
87.4240 1.302
87.4543 1.302
87.4845 1.979
87.5148 0.729
87.5451 0.990
87.5754 1.562
87.6057 1.615
87.6359 1.667
87.6662 1.615
87.6965 1.667
87.7268 1.302
87.7571 1.198
87.7873 2.135
87.8176 1.458
87.8479 1.562
87.8782 2.083
87.9084 1.406
87.9387 1.615
87.9690 1.510
87.9993 1.562
88.0296 1.615
88.0598 1.406
88.0901 1.719
88.1204 1.823
88.1507 1.458
88.1810 1.458
88.2112 1.719
88.2415 1.667
88.2718 1.719
88.3021 1.875
88.3323 1.354
88.3626 1.562
88.3929 1.667
88.4232 1.354
88.4535 1.198
88.4837 1.562
88.5140 2.031
88.5443 1.667
88.5746 1.823
88.6049 1.771
88.6351 1.615
88.6654 2.083
88.6957 1.875
88.7260 1.875
88.7562 1.615
88.7865 2.031
88.8168 1.875
88.8471 1.823
88.8774 1.667
88.9076 2.240
88.9379 1.979
88.9682 2.604
88.9985 2.135
89.0288 2.135
89.0590 2.969
89.0893 2.448
89.1196 2.604
89.1499 2.604
89.1801 2.396
89.2104 2.552
89.2407 2.708
89.2710 3.021
89.3013 3.646
89.3315 2.708
89.3618 3.073
89.3921 3.437
89.4224 4.375
89.4527 3.229
89.4829 3.750
89.5132 3.698
89.5435 3.437
89.5738 3.646
89.6040 3.437
89.6343 2.812
89.6646 3.594
89.6949 3.698
89.7252 3.333
89.7554 3.437
89.7857 3.281
89.8160 2.448
89.8463 4.062
89.8766 3.125
89.9068 2.760
89.9371 2.187
89.9674 2.865
89.9977 2.552
90.0279 2.604
90.0582 2.760
90.0885 2.656
90.1188 2.604
90.1491 1.510
90.1793 2.292
90.2096 2.448
90.2399 2.083
90.2702 1.615
90.3005 2.500
90.3307 2.135
90.3610 1.875
90.3913 1.719
90.4216 1.979
90.4518 1.667
90.4821 2.187
90.5124 1.406
90.5427 1.510
90.5730 1.927
90.6032 1.875
90.6335 1.302
90.6638 1.667
90.6941 1.458
90.7244 1.667
90.7546 2.187
90.7849 1.354
90.8152 1.562
90.8455 1.615
90.8758 2.187
90.9060 0.885
90.9363 1.562
90.9666 1.667
90.9969 1.406
91.0271 1.667
91.0574 1.562
91.0877 1.615
91.1180 2.187
91.1483 1.250
91.1785 1.302
91.2088 1.250
91.2391 1.406
91.2694 1.719
91.2997 1.875
91.3299 1.302
91.3602 1.823
91.3905 1.615
91.4208 1.667
91.4510 1.510
91.4813 1.198
91.5116 1.198
91.5419 1.615
91.5722 1.354
91.6024 1.667
91.6327 1.927
91.6630 1.719
91.6933 2.187
91.7236 1.771
91.7538 1.354
91.7841 1.615
91.8144 1.406
91.8447 1.302
91.8749 1.458
91.9052 1.250
91.9355 1.823
91.9658 1.354
91.9961 2.031
92.0263 1.458
92.0566 1.562
92.0869 2.187
92.1172 1.667
92.1475 1.615
92.1777 1.979
92.2080 1.198
92.2383 1.771
92.2686 2.031
92.2988 1.979
92.3291 1.927
92.3594 2.083
92.3897 1.510
92.4200 1.771
92.4502 1.979
92.4805 2.083
92.5108 1.979
92.5411 2.344
92.5714 2.187
92.6016 2.396
92.6319 1.615
92.6622 1.719
92.6925 1.927
92.7227 1.927
92.7530 1.406
92.7833 1.562
92.8136 1.875
92.8439 2.604
92.8741 2.552
92.9044 1.719
92.9347 2.500
92.9650 2.292
92.9953 2.135
93.0255 2.292
93.0558 2.031
93.0861 1.667
93.1164 1.719
93.1466 1.823
93.1769 1.875
93.2072 1.823
93.2375 1.615
93.2678 1.979
93.2980 2.240
93.3283 1.823
93.3586 1.198
93.3889 1.562
93.4192 1.510
93.4494 1.615
93.4797 1.406
93.5100 1.406
93.5403 1.510
93.5706 1.823
93.6008 1.562
93.6311 2.083
93.6614 1.562
93.6917 1.458
93.7219 1.667
93.7522 1.875
93.7825 1.250
93.8128 1.823
93.8431 1.875
93.8733 1.719
93.9036 1.667
93.9339 2.135
93.9642 1.823
93.9945 1.875
94.0247 1.562
94.0550 2.240
94.0853 1.562
94.1156 1.771
94.1458 1.979
94.1761 1.458
94.2064 1.562
94.2367 1.510
94.2670 1.562
94.2972 2.187
94.3275 1.875
94.3578 1.615
94.3881 1.719
94.4184 1.667
94.4486 2.240
94.4789 2.240
94.5092 2.292
94.5395 2.031
94.5697 1.875
94.6000 2.240
94.6303 2.760
94.6606 2.187
94.6909 2.240
94.7211 2.187
94.7514 2.344
94.7817 2.240
94.8120 2.656
94.8423 2.344
94.8725 2.760
94.9028 2.240
94.9331 3.177
94.9634 2.552
94.9936 2.969
95.0239 3.177
95.0542 2.917
95.0845 3.646
95.1148 3.437
95.1450 2.708
95.1753 2.708
95.2056 3.385
95.2359 3.385
95.2662 3.542
95.2964 3.281
95.3267 2.865
95.3570 3.385
95.3873 3.750
95.4175 2.604
95.4478 3.542
95.4781 3.958
95.5084 3.125
95.5387 3.229
95.5689 2.812
95.5992 2.969
95.6295 2.552
95.6598 2.240
95.6901 2.552
95.7203 2.344
95.7506 2.917
95.7809 2.240
95.8112 2.708
95.8414 2.031
95.8717 2.135
95.9020 1.979
95.9323 1.927
95.9626 2.240
95.9928 2.396
96.0231 2.240
96.0534 1.562
96.0837 2.396
96.1140 1.510
96.1442 2.344
96.1745 1.146
96.2048 1.771
96.2351 2.708
96.2653 1.875
96.2956 1.875
96.3259 1.927
96.3562 1.667
96.3865 2.396
96.4167 1.719
96.4470 1.719
96.4773 1.875
96.5076 1.823
96.5379 1.771
96.5681 1.458
96.5984 1.458
96.6287 1.250
96.6590 1.927
96.6893 1.510
96.7195 1.875
96.7498 1.615
96.7801 1.719
96.8104 1.771
96.8406 1.302
96.8709 1.250
96.9012 1.615
96.9315 1.458
96.9618 1.250
96.9920 1.719
97.0223 1.510
97.0526 2.240
97.0829 1.458
97.1132 1.406
97.1434 1.354
97.1737 1.562
97.2040 1.979
97.2343 1.562
97.2645 1.406
97.2948 1.615
97.3251 1.719
97.3554 1.458
97.3857 2.083
97.4159 1.250
97.4462 1.771
97.4765 1.667
97.5068 1.927
97.5371 1.510
97.5673 1.927
97.5976 1.354
97.6279 1.719
97.6582 1.979
97.6884 2.292
97.7187 2.031
97.7490 1.771
97.7793 1.927
97.8096 1.771
97.8398 2.187
97.8701 1.615
97.9004 1.667
97.9307 1.823
97.9610 2.031
97.9912 2.083
98.0215 1.615
98.0518 2.604
98.0821 1.979
98.1123 2.396
98.1426 1.979
98.1729 2.292
98.2032 1.927
98.2335 2.031
98.2637 2.656
98.2940 2.292
98.3243 2.656
98.3546 2.240
98.3849 2.187
98.4151 2.344
98.4454 2.292
98.4757 1.771
98.5060 2.708
98.5362 2.865
98.5665 2.812
98.5968 3.125
98.6271 2.500
98.6574 2.240
98.6876 2.031
98.7179 2.292
98.7482 2.448
98.7785 2.344
98.8088 2.292
98.8390 2.187
98.8693 2.552
98.8996 2.708
98.9299 2.187
98.9601 2.396
98.9904 2.240
99.0207 2.292
99.0510 2.500
99.0813 3.073
99.1115 1.562
99.1418 2.396
99.1721 1.406
99.2024 2.240
99.2327 1.667
99.2629 1.458
99.2932 1.979
99.3235 1.302
99.3538 1.823
99.3841 1.771
99.4143 1.667
99.4446 1.302
99.4749 1.823
99.5052 1.823
99.5354 1.771
99.5657 1.667
99.5960 1.250
99.6263 1.406
99.6566 1.771
99.6868 1.719
99.7171 1.875
99.7474 1.823
99.7777 1.875
99.8080 1.510
99.8382 1.875
99.8685 1.615
99.8988 1.510
99.9291 1.458
99.9593 1.302
99.9896 1.406
100.0199 1.302
100.0502 1.927
100.0805 1.458
100.1107 1.979
100.1410 1.510
100.1713 1.458
100.2016 1.250
100.2319 1.615
100.2621 2.292
100.2924 1.406
100.3227 1.510
100.3530 1.510
100.3832 1.562
100.4135 1.510
100.4438 1.562
100.4741 1.146
100.5044 1.823
100.5346 1.354
100.5649 1.458
100.5952 1.302
100.6255 0.937
100.6558 1.302
100.6860 1.406
100.7163 1.458
100.7466 1.823
100.7769 1.302
100.8071 1.562
100.8374 1.406
100.8677 1.823
100.8980 1.771
100.9283 1.979
100.9585 1.458
100.9888 1.406
101.0191 1.823
101.0494 1.406
101.0797 1.771
101.1099 1.510
101.1402 1.719
101.1705 1.302
101.2008 1.302
101.2310 1.354
101.2613 1.146
101.2916 1.510
101.3219 1.302
101.3522 1.146
101.3824 1.406
101.4127 1.458
101.4430 1.562
101.4733 1.354
101.5036 1.250
101.5338 1.875
101.5641 1.250
101.5944 1.250
101.6247 1.250
101.6549 1.615
101.6852 2.031
101.7155 1.667
101.7458 1.250
101.7761 1.302
101.8063 1.510
101.8366 1.875
101.8669 1.875
101.8972 1.979
101.9275 1.771
101.9577 1.667
101.9880 2.135
102.0183 1.667
102.0486 1.615
102.0788 2.135
102.1091 2.083
102.1394 1.719
102.1697 1.823
102.2000 1.719
102.2302 1.615
102.2605 2.240
102.2908 1.615
102.3211 1.719
102.3514 1.562
102.3816 2.031
102.4119 1.823
102.4422 1.771
102.4725 2.292
102.5028 2.396
102.5330 1.719
102.5633 1.719
102.5936 1.510
102.6239 2.448
102.6541 2.865
102.6844 2.083
102.7147 1.875
102.7450 2.135
102.7753 1.771
102.8055 2.865
102.8358 2.448
102.8661 2.448
102.8964 2.187
102.9267 2.240
102.9569 2.812
102.9872 1.875
103.0175 1.667
103.0478 2.240
103.0780 2.240
103.1083 2.656
103.1386 2.292
103.1689 2.656
103.1992 2.240
103.2294 2.031
103.2597 2.187
103.2900 2.083
103.3203 1.302
103.3506 1.875
103.3808 2.240
103.4111 2.292
103.4414 1.667
103.4717 1.875
103.5019 1.823
103.5322 1.927
103.5625 2.344
103.5928 2.187
103.6231 1.719
103.6533 2.448
103.6836 2.708
103.7139 2.344
103.7442 2.240
103.7745 2.396
103.8047 2.292
103.8350 2.448
103.8653 2.031
103.8956 2.448
103.9258 2.552
103.9561 3.021
103.9864 3.437
104.0167 3.125
104.0470 2.396
104.0772 3.281
104.1075 2.917
104.1378 3.073
104.1681 2.500
104.1984 2.656
104.2286 3.229
104.2589 2.292
104.2892 2.917
104.3195 3.229
104.3497 2.760
104.3800 2.604
104.4103 2.604
104.4406 2.240
104.4709 2.448
104.5011 2.344
104.5314 2.240
104.5617 2.708
104.5920 2.656
104.6223 2.292
104.6525 2.448
104.6828 1.875
104.7131 2.344
104.7434 1.719
104.7736 1.823
104.8039 1.771
104.8342 2.552
104.8645 2.552
104.8948 2.135
104.9250 1.510
104.9553 1.979
104.9856 1.406
105.0159 1.927
105.0462 1.094
105.0764 1.979
105.1067 1.927
105.1370 1.510
105.1673 1.979
105.1975 1.979
105.2278 1.406
105.2581 1.927
105.2884 1.719
105.3187 1.823
105.3489 1.771
105.3792 2.031
105.4095 1.823
105.4398 2.135
105.4701 1.771
105.5003 1.667
105.5306 1.458
105.5609 1.719
105.5912 1.823
105.6215 2.187
105.6517 1.771
105.6820 1.510
105.7123 1.458
105.7426 1.250
105.7728 1.615
105.8031 2.083
105.8334 1.667
105.8637 1.354
105.8940 1.979
105.9242 1.823
105.9545 1.198
105.9848 1.823
106.0151 1.823
106.0454 1.198
106.0756 1.406
106.1059 1.771
106.1362 1.562
106.1665 1.562
106.1967 1.458
106.2270 1.615
106.2573 0.937
106.2876 1.302
106.3179 1.615
106.3481 1.667
106.3784 0.990
106.4087 1.510
106.4390 1.458
106.4693 1.667
106.4995 1.667
106.5298 1.562
106.5601 1.823
106.5904 1.198
106.6206 1.302
106.6509 1.458
106.6812 1.510
106.7115 1.719
106.7418 1.354
106.7720 1.771
106.8023 1.198
106.8326 1.354
106.8629 1.302
106.8932 2.396
106.9234 1.615
106.9537 1.302
106.9840 1.510
107.0143 1.250
107.0445 1.094
107.0748 1.406
107.1051 1.302
107.1354 1.823
107.1657 1.406
107.1959 1.250
107.2262 1.458
107.2565 1.667
107.2868 2.083
107.3171 2.031
107.3473 1.823
107.3776 1.458
107.4079 1.458
107.4382 2.448
107.4684 1.823
107.4987 1.406
107.5290 2.396
107.5593 1.615
107.5896 1.094
107.6198 0.885
107.6501 1.510
107.6804 1.615
107.7107 1.510
107.7410 1.979
107.7712 1.302
107.8015 1.354
107.8318 1.667
107.8621 1.510
107.8923 1.719
107.9226 1.771
107.9529 1.615
107.9832 2.031
108.0135 2.135
108.0437 1.146
108.0740 1.615
108.1043 1.406
108.1346 1.562
108.1649 1.146
108.1951 1.719
108.2254 1.146
108.2557 1.510
108.2860 1.302
108.3163 2.083
108.3465 1.562
108.3768 1.146
108.4071 1.042
108.4374 1.510
108.4676 1.615
108.4979 1.406
108.5282 1.562
108.5585 1.250
108.5888 1.823
108.6190 1.510
108.6493 1.406
108.6796 1.302
108.7099 1.042
108.7402 1.979
108.7704 1.198
108.8007 1.302
108.8310 1.510
108.8613 1.562
108.8915 1.667
108.9218 1.510
108.9521 1.042
108.9824 1.458
109.0127 1.771
109.0429 1.562
109.0732 1.823
109.1035 1.615
109.1338 1.250
109.1641 1.771
109.1943 1.458
109.2246 2.187
109.2549 1.302
109.2852 1.615
109.3154 1.667
109.3457 1.979
109.3760 1.562
109.4063 1.562
109.4366 1.094
109.4668 1.562
109.4971 1.562
109.5274 1.354
109.5577 2.240
109.5880 2.187
109.6182 2.031
109.6485 1.302
109.6788 1.562
109.7091 1.771
109.7393 2.396
109.7696 1.927
109.7999 1.562
109.8302 2.031
109.8605 2.396
109.8907 1.406
109.9210 2.135
109.9513 1.458
109.9816 2.135
110.0119 1.823
110.0421 2.187
110.0724 1.771
110.1027 2.083
110.1330 2.292
110.1632 2.135
110.1935 2.552
110.2238 2.656
110.2541 1.927
110.2844 2.396
110.3146 1.771
110.3449 1.927
110.3752 1.875
110.4055 2.031
110.4358 2.552
110.4660 1.615
110.4963 2.292
110.5266 2.187
110.5569 2.083
110.5871 2.865
110.6174 2.344
110.6477 1.719
110.6780 1.458
110.7083 2.031
110.7385 1.927
110.7688 1.615
110.7991 1.979
110.8294 2.240
110.8597 1.823
110.8899 1.875
110.9202 1.927
110.9505 2.031
110.9808 2.031
111.0110 1.615
111.0413 1.615
111.0716 1.406
111.1019 1.458
111.1322 1.562
111.1624 1.510
111.1927 1.667
111.2230 1.510
111.2533 1.667
111.2836 1.354
111.3138 1.510
111.3441 2.031
111.3744 0.990
111.4047 1.823
111.4350 1.667
111.4652 1.562
111.4955 1.615
111.5258 1.510
111.5561 2.083
111.5863 1.250
111.6166 1.198
111.6469 1.406
111.6772 1.823
111.7075 1.927
111.7377 1.198
111.7680 1.667
111.7983 1.667
111.8286 1.667
111.8589 1.198
111.8891 1.510
111.9194 1.250
111.9497 1.823
111.9800 1.250
112.0102 1.406
112.0405 1.562
112.0708 1.146
112.1011 1.458
112.1314 1.510
112.1616 1.667
112.1919 1.719
112.2222 0.990
112.2525 1.406
112.2828 1.667
112.3130 1.562
112.3433 1.354
112.3736 0.833
112.4039 1.615
112.4341 1.458
112.4644 1.250
112.4947 1.823
112.5250 1.406
112.5553 1.615
112.5855 1.510
112.6158 1.198
112.6461 1.927
112.6764 1.302
112.7067 1.562
112.7369 1.458
112.7672 1.198
112.7975 1.562
112.8278 1.146
112.8580 1.615
112.8883 1.667
112.9186 1.562
112.9489 1.823
112.9792 1.615
113.0094 1.146
113.0397 1.927
113.0700 1.250
113.1003 1.562
113.1306 1.667
113.1608 1.771
113.1911 1.094
113.2214 1.719
113.2517 1.354
113.2819 1.719
113.3122 1.875
113.3425 1.771
113.3728 1.146
113.4031 1.615
113.4333 1.562
113.4636 1.458
113.4939 1.667
113.5242 1.771
113.5545 1.458
113.5847 1.510
113.6150 1.250
113.6453 1.510
113.6756 1.094
113.7058 1.562
113.7361 1.667
113.7664 1.771
113.7967 1.823
113.8270 1.354
113.8572 1.042
113.8875 1.719
113.9178 1.719
113.9481 1.406
113.9784 1.719
114.0086 1.719
114.0389 1.354
114.0692 1.510
114.0995 1.302
114.1298 1.458
114.1600 1.302
114.1903 1.406
114.2206 1.302
114.2509 1.354
114.2811 1.510
114.3114 1.198
114.3417 1.302
114.3720 1.719
114.4023 1.927
114.4325 2.240
114.4628 1.823
114.4931 2.031
114.5234 1.458
114.5537 1.615
114.5839 1.250
114.6142 1.875
114.6445 1.927
114.6748 1.354
114.7050 1.354
114.7353 2.031
114.7656 1.354
114.7959 1.979
114.8262 1.667
114.8564 1.823
114.8867 1.771
114.9170 2.031
114.9473 1.667
114.9776 0.937
115.0078 1.667
115.0381 2.031
115.0684 1.875
115.0987 2.760
115.1289 2.031
115.1592 1.406
115.1895 1.562
115.2198 1.927
115.2501 1.406
115.2803 2.083
115.3106 2.240
115.3409 2.031
115.3712 1.979
115.4015 1.667
115.4317 2.240
115.4620 2.083
115.4923 2.135
115.5226 2.031
115.5528 1.979
115.5831 2.656
115.6134 2.344
115.6437 2.656
115.6740 2.865
115.7042 2.812
115.7345 3.073
115.7648 2.708
115.7951 2.865
115.8254 3.229
115.8556 2.344
115.8859 2.708
115.9162 2.917
115.9465 2.812
115.9767 3.385
116.0070 2.865
116.0373 2.812
116.0676 3.229
116.0979 2.812
116.1281 3.229
116.1584 2.812
116.1887 3.333
116.2190 2.656
116.2493 3.594
116.2795 3.177
116.3098 3.542
116.3401 2.656
116.3704 3.646
116.4006 2.135
116.4309 3.333
116.4612 3.437
116.4915 3.073
116.5218 3.125
116.5520 2.865
116.5823 3.385
116.6126 3.385
116.6429 2.917
116.6732 2.656
116.7034 2.604
116.7337 3.021
116.7640 2.708
116.7943 2.708
116.8245 2.135
116.8548 2.083
116.8851 1.823
116.9154 2.344
116.9457 2.240
116.9759 2.187
117.0062 2.135
117.0365 2.240
117.0668 1.979
117.0971 2.604
117.1273 2.240
117.1576 1.823
117.1879 1.771
117.2182 2.500
117.2485 1.927
117.2787 2.031
117.3090 1.719
117.3393 2.031
117.3696 2.344
117.3998 2.552
117.4301 2.031
117.4604 1.771
117.4907 1.615
117.5210 1.562
117.5512 2.135
117.5815 1.823
117.6118 1.406
117.6421 1.979
117.6724 2.396
117.7026 1.562
117.7329 0.990
117.7632 2.083
117.7935 2.083
117.8237 1.719
117.8540 1.458
117.8843 1.406
117.9146 1.406
117.9449 1.458
117.9751 2.135
118.0054 1.458
118.0357 1.719
118.0660 1.562
118.0963 1.302
118.1265 1.510
118.1568 1.510
118.1871 1.771
118.2174 1.406
118.2476 1.406
118.2779 1.250
118.3082 1.406
118.3385 1.667
118.3688 1.458
118.3990 1.250
118.4293 1.719
118.4596 1.667
118.4899 1.406
118.5202 1.458
118.5504 1.719
118.5807 1.667
118.6110 1.146
118.6413 1.719
118.6715 1.562
118.7018 1.562
118.7321 1.562
118.7624 1.875
118.7927 2.135
118.8229 1.458
118.8532 1.667
118.8835 1.406
118.9138 1.094
118.9441 1.771
118.9743 1.615
119.0046 1.771
119.0349 1.198
119.0652 1.302
119.0954 2.187
119.1257 1.250
119.1560 1.510
119.1863 1.458
119.2166 1.615
119.2468 1.510
119.2771 1.667
119.3074 1.823
119.3377 1.042
119.3680 1.719
119.3982 2.031
119.4285 1.510
119.4588 1.354
119.4891 1.406
119.5193 1.406
119.5496 1.302
119.5799 1.354
119.6102 1.771
119.6405 1.823
119.6707 1.198
119.7010 1.354
119.7313 1.615
119.7616 1.354
119.7919 1.302
119.8221 2.031
119.8524 1.198
119.8827 1.354
119.9130 1.458
119.9433 1.771
119.9735 1.406
120.0038 1.510
