'Id: "" Comment: "" Operator: "Lab Manager" Anode: "Cu" Scantype: "Locked Coupled" TimePerStep: "19.2" X: "9999" Y: "9999" Z: "9999" 
10.0015 151.458
10.0318 153.177
10.0620 151.979
10.0923 156.719
10.1226 164.583
10.1529 159.115
10.1832 158.281
10.2134 160.521
10.2437 163.073
10.2740 173.229
10.3043 171.979
10.3346 169.583
10.3648 168.229
10.3951 172.708
10.4254 167.135
10.4557 168.854
10.4859 161.406
10.5162 164.687
10.5465 161.458
10.5768 160.260
10.6071 153.021
10.6373 149.167
10.6676 140.729
10.6979 141.198
10.7282 137.031
10.7585 132.656
10.7887 125.990
10.8190 123.906
10.8493 118.125
10.8796 112.083
10.9098 105.000
10.9401 101.458
10.9704 96.042
11.0007 94.740
11.0310 91.406
11.0612 83.542
11.0915 82.760
11.1218 75.833
11.1521 71.927
11.1824 67.344
11.2126 66.979
11.2429 65.000
11.2732 61.667
11.3035 58.333
11.3337 57.187
11.3640 54.375
11.3943 56.562
11.4246 54.167
11.4549 55.156
11.4851 49.271
11.5154 47.083
11.5457 50.573
11.5760 45.104
11.6063 43.906
11.6365 43.854
11.6668 42.552
11.6971 41.146
11.7274 39.167
11.7577 37.031
11.7879 38.750
11.8182 34.844
11.8485 34.427
11.8788 35.417
11.9090 30.729
11.9393 32.292
11.9696 31.875
11.9999 32.187
12.0302 28.958
12.0604 31.875
12.0907 31.042
12.1210 28.177
12.1513 27.135
12.1816 24.740
12.2118 26.302
12.2421 25.521
12.2724 24.792
12.3027 24.844
12.3329 24.844
12.3632 24.062
12.3935 24.844
12.4238 24.062
12.4541 21.875
12.4843 23.177
12.5146 23.177
12.5449 21.146
12.5752 22.396
12.6055 23.281
12.6357 21.771
12.6660 20.573
12.6963 20.729
12.7266 20.990
12.7568 19.271
12.7871 20.365
12.8174 19.635
12.8477 21.302
12.8780 20.833
12.9082 19.583
12.9385 18.594
12.9688 18.333
12.9991 18.750
13.0294 20.156
13.0596 18.281
13.0899 17.812
13.1202 17.708
13.1505 19.948
13.1807 20.885
13.2110 19.375
13.2413 19.323
13.2716 18.073
13.3019 18.073
13.3321 18.073
13.3624 19.010
13.3927 19.427
13.4230 16.458
13.4533 19.740
13.4835 19.479
13.5138 18.229
13.5441 17.083
13.5744 18.854
13.6046 18.281
13.6349 18.750
13.6652 18.333
13.6955 18.333
13.7258 17.604
13.7560 18.021
13.7863 18.750
13.8166 16.823
13.8469 18.750
13.8772 18.229
13.9074 18.854
13.9377 18.906
13.9680 17.708
13.9983 16.406
14.0285 18.906
14.0588 17.135
14.0891 16.042
14.1194 16.458
14.1497 16.042
14.1799 17.969
14.2102 16.250
14.2405 15.677
14.2708 17.865
14.3011 17.969
14.3313 16.927
14.3616 16.667
14.3919 18.073
14.4222 17.812
14.4524 18.750
14.4827 16.198
14.5130 15.781
14.5433 15.990
14.5736 16.875
14.6038 15.885
14.6341 17.812
14.6644 17.812
14.6947 18.073
14.7250 17.500
14.7552 17.812
14.7855 17.448
14.8158 18.594
14.8461 16.042
14.8764 17.708
14.9066 17.917
14.9369 17.396
14.9672 18.229
14.9975 18.281
15.0277 18.594
15.0580 18.125
15.0883 20.677
15.1186 17.812
15.1489 18.177
15.1791 17.865
15.2094 19.844
15.2397 20.990
15.2700 18.958
15.3003 16.615
15.3305 19.219
15.3608 19.792
15.3911 19.167
15.4214 18.750
15.4516 19.010
15.4819 18.698
15.5122 19.740
15.5425 17.187
15.5728 19.740
15.6030 19.010
15.6333 18.333
15.6636 17.917
15.6939 18.698
15.7242 18.906
15.7544 18.958
15.7847 18.177
15.8150 18.073
15.8453 21.146
15.8755 17.292
15.9058 18.333
15.9361 17.865
15.9664 18.073
15.9967 18.229
16.0269 17.917
16.0572 17.448
16.0875 16.823
16.1178 18.542
16.1481 15.990
16.1783 16.042
16.2086 17.292
16.2389 16.094
16.2692 15.365
16.2994 14.948
16.3297 15.625
16.3600 15.000
16.3903 15.104
16.4206 13.802
16.4508 14.792
16.4811 14.635
16.5114 15.677
16.5417 13.698
16.5720 13.125
16.6022 13.281
16.6325 11.771
16.6628 14.687
16.6931 14.271
16.7233 13.177
16.7536 12.552
16.7839 13.177
16.8142 11.875
16.8445 12.240
16.8747 11.927
16.9050 12.708
16.9353 12.865
16.9656 12.083
16.9959 11.875
17.0261 11.667
17.0564 12.500
17.0867 12.396
17.1170 12.448
17.1472 11.823
17.1775 11.875
17.2078 11.615
17.2381 11.510
17.2684 11.562
17.2986 12.031
17.3289 11.458
17.3592 11.458
17.3895 13.125
17.4198 10.937
17.4500 9.948
17.4803 10.469
17.5106 10.156
17.5409 12.083
17.5712 11.510
17.6014 12.135
17.6317 11.354
17.6620 10.312
17.6923 11.510
17.7225 10.417
17.7528 12.656
17.7831 11.302
17.8134 10.365
17.8437 9.531
17.8739 11.250
17.9042 11.875
17.9345 12.083
17.9648 10.937
17.9951 11.198
18.0253 11.979
18.0556 11.979
18.0859 12.500
18.1162 13.073
18.1464 10.781
18.1767 12.396
18.2070 11.719
18.2373 11.927
18.2676 12.656
18.2978 12.448
18.3281 13.073
18.3584 13.385
18.3887 13.854
18.4190 11.771
18.4492 13.698
18.4795 13.802
18.5098 13.854
18.5401 13.750
18.5703 14.010
18.6006 12.396
18.6309 15.365
18.6612 12.552
18.6915 13.854
18.7217 13.542
18.7520 14.531
18.7823 15.156
18.8126 13.542
18.8429 12.969
18.8731 12.187
18.9034 11.719
18.9337 13.802
18.9640 13.490
18.9942 13.698
19.0245 11.875
19.0548 12.031
19.0851 11.875
19.1154 13.542
19.1456 12.500
19.1759 13.281
19.2062 11.198
19.2365 11.354
19.2668 10.990
19.2970 9.948
19.3273 12.031
19.3576 10.729
19.3879 10.625
19.4181 10.833
19.4484 9.844
19.4787 9.896
19.5090 10.000
19.5393 9.948
19.5695 10.729
19.5998 9.740
19.6301 9.844
19.6604 9.948
19.6907 8.073
19.7209 9.062
19.7512 8.594
19.7815 8.333
19.8118 8.333
19.8420 7.604
19.8723 8.802
19.9026 9.323
19.9329 7.656
19.9632 8.073
19.9934 7.552
20.0237 9.844
20.0540 8.021
20.0843 7.865
20.1146 7.812
20.1448 7.500
20.1751 7.760
20.2054 7.396
20.2357 7.292
20.2659 8.125
20.2962 6.875
20.3265 7.500
20.3568 7.187
20.3871 7.344
20.4173 7.135
20.4476 7.760
20.4779 7.135
20.5082 6.302
20.5385 6.510
20.5687 6.406
20.5990 6.198
20.6293 6.146
20.6596 7.240
20.6899 6.615
20.7201 6.875
20.7504 7.292
20.7807 7.917
20.8110 7.552
20.8412 6.510
20.8715 6.354
20.9018 5.937
20.9321 6.927
20.9624 6.615
20.9926 5.729
21.0229 7.292
21.0532 6.875
21.0835 6.458
21.1138 7.396
21.1440 7.396
21.1743 7.448
21.2046 6.615
21.2349 7.604
21.2651 6.927
21.2954 5.781
21.3257 6.146
21.3560 7.083
21.3863 6.250
21.4165 6.615
21.4468 6.719
21.4771 6.302
21.5074 6.302
21.5377 6.302
21.5679 6.719
21.5982 6.719
21.6285 6.302
21.6588 5.833
21.6890 6.406
21.7193 6.302
21.7496 5.937
21.7799 6.302
21.8102 5.417
21.8404 5.573
21.8707 6.510
21.9010 5.937
21.9313 5.521
21.9616 5.208
21.9918 5.885
22.0221 4.583
22.0524 5.625
22.0827 6.875
22.1129 5.885
22.1432 6.354
22.1735 5.417
22.2038 5.625
22.2341 6.302
22.2643 6.094
22.2946 4.844
22.3249 5.156
22.3552 4.167
22.3855 5.365
22.4157 6.042
22.4460 5.417
22.4763 6.198
22.5066 4.792
22.5368 4.583
22.5671 4.687
22.5974 6.198
22.6277 5.833
22.6580 5.521
22.6882 6.354
22.7185 6.823
22.7488 5.469
22.7791 5.521
22.8094 5.781
22.8396 7.604
22.8699 7.917
22.9002 7.865
22.9305 7.135
22.9607 5.833
22.9910 6.979
23.0213 5.937
23.0516 6.198
23.0819 6.823
23.1121 6.719
23.1424 7.396
23.1727 6.979
23.2030 6.250
23.2333 6.823
23.2635 7.812
23.2938 6.302
23.3241 5.833
23.3544 6.823
23.3846 8.281
23.4149 7.135
23.4452 7.760
23.4755 7.292
23.5058 7.760
23.5360 7.760
23.5663 8.073
23.5966 7.292
23.6269 7.500
23.6572 8.021
23.6874 8.073
23.7177 7.865
23.7480 8.906
23.7783 7.969
23.8086 7.969
23.8388 7.292
23.8691 7.448
23.8994 7.917
23.9297 8.073
23.9599 9.375
23.9902 9.479
24.0205 8.437
24.0508 8.177
24.0811 8.646
24.1113 8.698
24.1416 9.010
24.1719 9.635
24.2022 8.281
24.2325 9.271
24.2627 8.333
24.2930 9.635
24.3233 11.198
24.3536 9.219
24.3838 8.958
24.4141 8.281
24.4444 10.104
24.4747 9.479
24.5050 9.740
24.5352 8.073
24.5655 8.854
24.5958 9.635
24.6261 9.219
24.6564 9.323
24.6866 9.740
24.7169 9.844
24.7472 9.896
24.7775 9.323
24.8077 10.729
24.8380 10.208
24.8683 11.042
24.8986 9.635
24.9289 11.250
24.9591 11.406
24.9894 11.510
25.0197 12.292
25.0500 11.615
25.0803 11.927
25.1105 10.937
25.1408 10.573
25.1711 11.927
25.2014 11.094
25.2316 12.292
25.2619 10.885
25.2922 11.927
25.3225 12.448
25.3528 12.500
25.3830 11.458
25.4133 11.042
25.4436 11.979
25.4739 11.667
25.5042 12.135
25.5344 12.448
25.5647 13.073
25.5950 12.917
25.6253 12.552
25.6555 14.375
25.6858 13.125
25.7161 12.969
25.7464 12.500
25.7767 13.229
25.8069 13.594
25.8372 12.969
25.8675 13.854
25.8978 13.750
25.9281 13.281
25.9583 14.219
25.9886 14.635
26.0189 14.219
26.0492 14.844
26.0794 14.062
26.1097 13.281
26.1400 14.219
26.1703 13.542
26.2006 14.792
26.2308 15.052
26.2611 13.542
26.2914 15.417
26.3217 16.875
26.3520 15.625
26.3822 14.271
26.4125 15.937
26.4428 14.062
26.4731 16.302
26.5034 15.417
26.5336 13.958
26.5639 15.937
26.5942 15.260
26.6245 15.052
26.6547 16.354
26.6850 15.990
26.7153 15.781
26.7456 16.510
26.7759 15.573
26.8061 17.135
26.8364 15.729
26.8667 19.687
26.8970 16.458
26.9273 17.708
26.9575 16.250
26.9878 17.396
27.0181 17.708
27.0484 19.427
27.0786 16.354
27.1089 16.979
27.1392 17.240
27.1695 18.021
27.1998 17.656
27.2300 16.615
27.2603 17.240
27.2906 16.667
27.3209 17.708
27.3512 19.219
27.3814 18.594
27.4117 19.323
27.4420 17.917
27.4723 18.646
27.5025 16.875
27.5328 18.073
27.5631 18.490
27.5934 17.292
27.6237 19.479
27.6539 16.771
27.6842 16.615
27.7145 17.552
27.7448 19.271
27.7751 18.437
27.8053 17.656
27.8356 17.552
27.8659 18.854
27.8962 16.823
27.9264 16.771
27.9567 17.656
27.9870 16.510
28.0173 17.448
28.0476 16.615
28.0778 15.729
28.1081 17.500
28.1384 17.448
28.1687 16.198
28.1990 16.823
28.2292 15.260
28.2595 16.719
28.2898 14.896
28.3201 15.573
28.3503 16.406
28.3806 15.052
28.4109 12.969
28.4412 13.646
28.4715 16.042
28.5017 15.104
28.5320 14.479
28.5623 12.448
28.5926 14.792
28.6229 13.698
28.6531 12.240
28.6834 14.010
28.7137 13.281
28.7440 12.031
28.7742 13.646
28.8045 12.760
28.8348 12.187
28.8651 11.615
28.8954 11.042
28.9256 9.167
28.9559 12.083
28.9862 10.052
29.0165 10.000
29.0468 10.052
29.0770 8.646
29.1073 8.958
29.1376 10.365
29.1679 10.990
29.1981 9.115
29.2284 8.594
29.2587 10.417
29.2890 8.698
29.3193 10.260
29.3495 10.208
29.3798 7.708
29.4101 9.115
29.4404 8.229
29.4707 8.229
29.5009 9.531
29.5312 8.021
29.5615 8.177
29.5918 7.812
29.6221 7.917
29.6523 8.385
29.6826 7.031
29.7129 7.552
29.7432 7.083
29.7734 6.875
29.8037 7.500
29.8340 7.760
29.8643 6.510
29.8946 6.510
29.9248 8.385
29.9551 6.042
29.9854 5.990
30.0157 6.094
30.0460 7.135
30.0762 6.823
30.1065 6.562
30.1368 6.667
30.1671 6.354
30.1973 5.104
30.2276 6.146
30.2579 6.875
30.2882 6.771
30.3185 6.615
30.3487 6.510
30.3790 5.833
30.4093 6.302
30.4396 5.469
30.4699 5.833
30.5001 5.312
30.5304 6.771
30.5607 5.208
30.5910 5.677
30.6212 5.104
30.6515 6.042
30.6818 6.302
30.7121 5.677
30.7424 5.104
30.7726 4.844
30.8029 5.677
30.8332 5.469
30.8635 5.365
30.8938 5.469
30.9240 5.000
30.9543 5.208
30.9846 4.479
31.0149 4.375
31.0451 5.937
31.0754 5.521
31.1057 6.562
31.1360 5.260
31.1663 6.198
31.1965 5.990
31.2268 5.000
31.2571 4.167
31.2874 5.781
31.3177 4.740
31.3479 5.156
31.3782 5.312
31.4085 5.000
31.4388 4.635
31.4690 4.115
31.4993 4.115
31.5296 5.260
31.5599 5.365
31.5902 5.260
31.6204 4.948
31.6507 4.479
31.6810 5.365
31.7113 6.198
31.7416 5.573
31.7718 5.469
31.8021 5.417
31.8324 4.792
31.8627 5.625
31.8929 5.000
31.9232 3.906
31.9535 4.687
31.9838 5.156
32.0141 5.052
32.0443 4.583
32.0746 4.115
32.1049 6.042
32.1352 5.573
32.1655 4.792
32.1957 5.000
32.2260 5.312
32.2563 5.260
32.2866 4.740
32.3169 4.740
32.3471 4.323
32.3774 5.000
32.4077 4.687
32.4380 5.104
32.4682 5.104
32.4985 5.625
32.5288 4.635
32.5591 4.271
32.5894 5.625
32.6196 6.250
32.6499 6.823
32.6802 5.937
32.7105 6.094
32.7408 5.937
32.7710 5.208
32.8013 6.406
32.8316 5.208
32.8619 4.844
32.8921 5.521
32.9224 4.583
32.9527 4.844
32.9830 5.156
33.0133 4.271
33.0435 5.104
33.0738 4.792
33.1041 5.156
33.1344 4.375
33.1647 4.323
33.1949 4.219
33.2252 3.542
33.2555 5.156
33.2858 5.365
33.3160 4.687
33.3463 4.844
33.3766 3.802
33.4069 3.802
33.4372 4.323
33.4674 4.687
33.4977 4.323
33.5280 4.167
33.5583 4.167
33.5886 4.062
33.6188 4.427
33.6491 3.854
33.6794 3.542
33.7097 4.479
33.7399 3.906
33.7702 3.385
33.8005 3.385
33.8308 3.229
33.8611 5.104
33.8913 4.427
33.9216 3.698
33.9519 4.271
33.9822 3.646
34.0125 4.583
34.0427 3.958
34.0730 4.844
34.1033 3.698
34.1336 4.375
34.1638 3.906
34.1941 4.115
34.2244 5.052
34.2547 3.802
34.2850 3.854
34.3152 3.437
34.3455 3.542
34.3758 4.427
34.4061 4.167
34.4364 4.271
34.4666 3.854
34.4969 3.802
34.5272 4.479
34.5575 3.802
34.5877 4.896
34.6180 4.792
34.6483 4.740
34.6786 4.687
34.7089 4.531
34.7391 4.219
34.7694 4.583
34.7997 4.062
34.8300 4.740
34.8603 4.531
34.8905 4.375
34.9208 3.542
34.9511 3.333
34.9814 4.323
35.0116 4.375
35.0419 4.167
35.0722 3.385
35.1025 4.479
35.1328 3.542
35.1630 3.437
35.1933 3.906
35.2236 4.531
35.2539 4.219
35.2842 3.802
35.3144 4.427
35.3447 4.531
35.3750 4.375
35.4053 3.854
35.4356 4.427
35.4658 4.479
35.4961 5.052
35.5264 4.479
35.5567 3.802
35.5869 4.948
35.6172 5.156
35.6475 4.427
35.6778 5.312
35.7081 4.271
35.7383 5.052
35.7686 4.896
35.7989 6.198
35.8292 5.104
35.8595 4.687
35.8897 4.948
35.9200 5.312
35.9503 5.260
35.9806 4.740
36.0108 4.687
36.0411 4.740
36.0714 3.958
36.1017 4.271
36.1320 4.115
36.1622 3.906
36.1925 4.010
36.2228 5.156
36.2531 4.687
36.2834 4.115
36.3136 4.115
36.3439 3.385
36.3742 4.427
36.4045 4.323
36.4347 4.740
36.4650 4.115
36.4953 4.740
36.5256 4.010
36.5559 5.104
36.5861 4.427
36.6164 4.219
36.6467 3.385
36.6770 4.219
36.7073 4.271
36.7375 3.906
36.7678 4.583
36.7981 4.479
36.8284 3.906
36.8586 4.167
36.8889 4.323
36.9192 4.479
36.9495 4.167
36.9798 3.385
37.0100 4.375
37.0403 4.375
37.0706 3.958
37.1009 3.906
37.1312 4.010
37.1614 3.646
37.1917 4.792
37.2220 3.646
37.2523 3.073
37.2825 3.906
37.3128 4.167
37.3431 4.740
37.3734 4.062
37.4037 4.219
37.4339 4.271
37.4642 3.750
37.4945 3.750
37.5248 4.844
37.5551 4.010
37.5853 3.229
37.6156 4.167
37.6459 4.115
37.6762 3.646
37.7064 3.906
37.7367 3.802
37.7670 4.531
37.7973 3.854
37.8276 3.958
37.8578 3.594
37.8881 4.219
37.9184 3.385
37.9487 4.115
37.9790 2.812
38.0092 4.323
38.0395 4.635
38.0698 3.854
38.1001 4.010
38.1304 4.010
38.1606 3.698
38.1909 4.219
38.2212 3.646
38.2515 3.281
38.2817 2.812
38.3120 4.271
38.3423 4.271
38.3726 3.854
38.4029 3.437
38.4331 2.969
38.4634 3.333
38.4937 3.073
38.5240 3.281
38.5543 4.010
38.5845 2.865
38.6148 3.542
38.6451 3.177
38.6754 3.437
38.7056 2.760
38.7359 3.125
38.7662 3.281
38.7965 2.865
38.8268 3.802
38.8570 3.125
38.8873 2.917
38.9176 2.708
38.9479 3.594
38.9782 3.177
39.0084 4.010
39.0387 3.542
39.0690 3.229
39.0993 3.281
39.1295 3.437
39.1598 2.812
39.1901 2.760
39.2204 2.656
39.2507 3.073
39.2809 2.865
39.3112 2.969
39.3415 2.500
39.3718 2.292
39.4021 3.333
39.4323 2.448
39.4626 4.167
39.4929 2.708
39.5232 2.760
39.5534 2.396
39.5837 2.865
39.6140 2.500
39.6443 2.969
39.6746 3.698
39.7048 2.760
39.7351 3.125
39.7654 2.812
39.7957 2.812
39.8260 2.552
39.8562 3.958
39.8865 3.646
39.9168 2.604
39.9471 3.229
39.9773 2.656
40.0076 2.708
40.0379 2.812
40.0682 2.656
40.0985 3.854
40.1287 3.021
40.1590 2.552
40.1893 2.812
40.2196 3.646
40.2499 3.594
40.2801 3.021
40.3104 2.292
40.3407 2.656
40.3710 2.552
40.4012 2.187
40.4315 3.125
40.4618 3.021
40.4921 2.604
40.5224 2.917
40.5526 3.385
40.5829 3.073
40.6132 3.281
40.6435 2.344
40.6738 2.292
40.7040 2.552
40.7343 2.552
40.7646 2.500
40.7949 2.812
40.8251 2.448
40.8554 2.187
40.8857 2.500
40.9160 3.073
40.9463 3.125
40.9765 2.760
41.0068 2.448
41.0371 3.229
41.0674 2.865
41.0977 2.917
41.1279 2.604
41.1582 3.177
41.1885 3.021
41.2188 2.865
41.2491 2.812
41.2793 2.240
41.3096 3.281
41.3399 3.125
41.3702 2.552
41.4004 2.552
41.4307 3.073
41.4610 2.240
41.4913 2.969
41.5216 2.812
41.5518 3.750
41.5821 2.604
41.6124 2.604
41.6427 3.542
41.6730 2.865
41.7032 3.073
41.7335 2.396
41.7638 2.969
41.7941 3.021
41.8243 2.969
41.8546 2.969
41.8849 2.760
41.9152 2.760
41.9455 2.292
41.9757 3.073
42.0060 2.240
42.0363 2.969
42.0666 3.073
42.0969 2.344
42.1271 3.177
42.1574 2.135
42.1877 2.708
42.2180 2.760
42.2482 2.865
42.2785 2.552
42.3088 3.125
42.3391 2.656
42.3694 2.500
42.3996 2.448
42.4299 2.552
42.4602 2.812
42.4905 3.177
42.5208 3.125
42.5510 2.500
42.5813 2.917
42.6116 2.344
42.6419 2.604
42.6721 2.448
42.7024 2.812
42.7327 2.396
42.7630 2.708
42.7933 3.385
42.8235 2.240
42.8538 2.448
42.8841 2.292
42.9144 2.708
42.9447 2.708
42.9749 2.708
43.0052 2.552
43.0355 2.500
43.0658 2.656
43.0960 3.021
43.1263 2.240
43.1566 3.021
43.1869 2.708
43.2172 2.396
43.2474 2.292
43.2777 2.344
43.3080 2.031
43.3383 2.240
43.3686 2.656
43.3988 2.187
43.4291 1.719
43.4594 2.344
43.4897 2.865
43.5199 2.292
43.5502 2.292
43.5805 2.500
43.6108 2.396
43.6411 2.500
43.6713 1.510
43.7016 2.760
43.7319 2.240
43.7622 2.396
43.7925 2.812
43.8227 2.448
43.8530 1.979
43.8833 2.396
43.9136 2.448
43.9439 1.823
43.9741 2.760
44.0044 1.979
44.0347 2.240
44.0650 2.292
44.0952 2.240
44.1255 2.344
44.1558 2.292
44.1861 2.760
44.2164 3.125
44.2466 3.125
44.2769 2.604
44.3072 2.396
44.3375 2.187
44.3678 2.187
44.3980 2.292
44.4283 2.396
44.4586 1.927
44.4889 2.448
44.5191 2.344
44.5494 2.344
44.5797 2.292
44.6100 1.875
44.6403 2.552
44.6705 2.135
44.7008 1.615
44.7311 2.292
44.7614 2.500
44.7917 2.708
44.8219 2.865
44.8522 2.865
44.8825 2.604
44.9128 2.292
44.9430 2.135
44.9733 2.083
45.0036 2.083
45.0339 2.135
45.0642 2.292
45.0944 2.135
45.1247 2.812
45.1550 2.865
45.1853 1.719
45.2156 1.927
45.2458 2.240
45.2761 2.604
45.3064 2.396
45.3367 2.448
45.3669 2.760
45.3972 2.396
45.4275 2.760
45.4578 3.802
45.4881 2.448
45.5183 2.552
45.5486 2.135
45.5789 2.708
45.6092 2.656
45.6395 2.552
45.6697 2.708
45.7000 2.604
45.7303 2.031
45.7606 2.656
45.7908 2.448
45.8211 2.812
45.8514 2.292
45.8817 3.229
45.9120 2.187
45.9422 2.187
45.9725 2.344
46.0028 1.823
46.0331 2.604
46.0634 2.031
46.0936 2.604
46.1239 2.344
46.1542 2.292
46.1845 3.229
46.2147 2.917
46.2450 2.708
46.2753 3.281
46.3056 2.604
46.3359 2.552
46.3661 2.865
46.3964 2.187
46.4267 1.771
46.4570 1.875
46.4873 2.240
46.5175 2.656
46.5478 1.979
46.5781 2.083
46.6084 2.292
46.6386 2.240
46.6689 2.812
46.6992 2.552
46.7295 3.125
46.7598 2.656
46.7900 2.292
46.8203 2.500
46.8506 2.656
46.8809 3.281
46.9112 2.396
46.9414 2.240
46.9717 2.552
47.0020 1.875
47.0323 2.500
47.0626 2.344
47.0928 2.760
47.1231 2.708
47.1534 3.021
47.1837 2.604
47.2139 3.125
47.2442 2.760
47.2745 2.969
47.3048 2.917
47.3351 2.344
47.3653 2.708
47.3956 3.021
47.4259 2.812
47.4562 2.969
47.4865 2.396
47.5167 3.021
47.5470 2.969
47.5773 2.604
47.6076 2.448
47.6378 3.177
47.6681 4.010
47.6984 3.177
47.7287 3.125
47.7590 2.656
47.7892 3.021
47.8195 2.865
47.8498 2.969
47.8801 3.281
47.9104 2.708
47.9406 3.437
47.9709 3.385
48.0012 2.969
48.0315 3.802
48.0617 4.115
48.0920 3.333
48.1223 3.490
48.1526 3.385
48.1829 2.656
48.2131 2.969
48.2434 3.229
48.2737 3.750
48.3040 3.437
48.3343 4.115
48.3645 3.229
48.3948 3.750
48.4251 3.490
48.4554 2.917
48.4856 3.021
48.5159 3.490
48.5462 3.906
48.5765 3.802
48.6068 4.167
48.6370 3.906
48.6673 3.177
48.6976 3.177
48.7279 4.948
48.7582 3.698
48.7884 4.115
48.8187 3.594
48.8490 3.802
48.8793 4.115
48.9095 4.219
48.9398 3.958
48.9701 3.542
49.0004 4.635
49.0307 4.010
49.0609 3.958
49.0912 4.583
49.1215 4.687
49.1518 3.385
49.1821 4.062
49.2123 4.010
49.2426 4.010
49.2729 3.385
49.3032 4.687
49.3334 4.010
49.3637 3.802
49.3940 4.531
49.4243 5.208
49.4546 4.271
49.4848 4.219
49.5151 4.115
49.5454 4.323
49.5757 4.375
49.6060 4.531
49.6362 3.750
49.6665 4.115
49.6968 4.635
49.7271 4.427
49.7574 3.906
49.7876 4.792
49.8179 3.698
49.8482 4.062
49.8785 5.156
49.9087 3.906
49.9390 4.844
49.9693 4.219
49.9996 5.052
50.0299 4.531
50.0601 4.635
50.0904 5.000
50.1207 5.104
50.1510 5.469
50.1813 4.427
50.2115 4.531
50.2418 5.000
50.2721 5.156
50.3024 4.427
50.3326 5.104
50.3629 4.583
50.3932 4.896
50.4235 5.469
50.4538 4.792
50.4840 5.469
50.5143 5.417
50.5446 4.948
50.5749 4.740
50.6052 4.687
50.6354 4.635
50.6657 5.625
50.6960 5.156
50.7263 4.844
50.7565 5.521
50.7868 4.896
50.8171 4.583
50.8474 5.833
50.8777 4.896
50.9079 5.677
50.9382 4.844
50.9685 4.792
50.9988 5.260
51.0291 5.000
51.0593 5.729
51.0896 5.312
51.1199 4.948
51.1502 5.156
51.1804 4.635
51.2107 5.208
51.2410 5.885
51.2713 4.844
51.3016 5.052
51.3318 4.792
51.3621 5.625
51.3924 5.417
51.4227 4.010
51.4530 5.625
51.4832 5.312
51.5135 4.167
51.5438 5.104
51.5741 5.000
51.6043 4.635
51.6346 5.104
51.6649 4.844
51.6952 5.312
51.7255 5.417
51.7557 5.260
51.7860 5.365
51.8163 4.687
51.8466 4.531
51.8769 5.104
51.9071 4.792
51.9374 4.740
51.9677 4.844
51.9980 4.323
52.0282 3.854
52.0585 4.635
52.0888 3.854
52.1191 4.427
52.1494 5.104
52.1796 4.010
52.2099 4.896
52.2402 4.010
52.2705 4.271
52.3008 5.365
52.3310 4.271
52.3613 4.115
52.3916 4.479
52.4219 3.958
52.4521 3.437
52.4824 4.479
52.5127 4.167
52.5430 4.167
52.5733 3.281
52.6035 4.427
52.6338 3.802
52.6641 3.854
52.6944 4.635
52.7247 3.385
52.7549 3.542
52.7852 4.219
52.8155 4.323
52.8458 4.271
52.8761 3.750
52.9063 5.521
52.9366 3.906
52.9669 4.844
52.9972 4.323
53.0274 3.594
53.0577 4.219
53.0880 4.323
53.1183 3.333
53.1486 3.437
53.1788 3.542
53.2091 3.906
53.2394 4.531
53.2697 3.385
53.3000 4.583
53.3302 3.333
53.3605 3.594
53.3908 3.229
53.4211 3.333
53.4513 3.281
53.4816 3.698
53.5119 3.333
53.5422 3.698
53.5725 3.698
53.6027 3.281
53.6330 2.760
53.6633 4.271
53.6936 3.698
53.7239 3.854
53.7541 4.583
53.7844 3.594
53.8147 3.646
53.8450 4.427
53.8752 4.062
53.9055 4.010
53.9358 3.281
53.9661 3.906
53.9964 4.271
54.0266 3.490
54.0569 3.646
54.0872 3.490
54.1175 3.594
54.1478 2.865
54.1780 3.802
54.2083 4.219
54.2386 3.854
54.2689 3.542
54.2991 4.948
54.3294 4.010
54.3597 3.177
54.3900 3.542
54.4203 3.437
54.4505 3.385
54.4808 3.542
54.5111 3.385
54.5414 3.594
54.5717 3.073
54.6019 3.385
54.6322 3.854
54.6625 3.125
54.6928 3.854
54.7230 3.646
54.7533 3.125
54.7836 3.802
54.8139 3.490
54.8442 3.281
54.8744 3.698
54.9047 3.854
54.9350 3.490
54.9653 3.073
54.9956 3.125
55.0258 2.969
55.0561 4.115
55.0864 4.271
55.1167 3.958
55.1469 3.854
55.1772 4.062
55.2075 3.698
55.2378 3.646
55.2681 3.073
55.2983 3.073
55.3286 3.542
55.3589 4.531
55.3892 2.656
55.4195 3.646
55.4497 3.437
55.4800 2.865
55.5103 3.646
55.5406 3.177
55.5709 3.281
55.6011 3.437
55.6314 3.594
55.6617 2.552
55.6920 4.167
55.7222 3.177
55.7525 2.344
55.7828 3.125
55.8131 2.604
55.8434 2.500
55.8736 3.073
55.9039 2.500
55.9342 3.698
55.9645 3.229
55.9948 3.177
56.0250 2.448
56.0553 2.865
56.0856 3.125
56.1159 1.875
56.1461 2.292
56.1764 3.229
56.2067 1.667
56.2370 3.229
56.2673 2.500
56.2975 3.021
56.3278 2.708
56.3581 3.281
56.3884 2.656
56.4187 3.490
56.4489 2.865
56.4792 2.865
56.5095 2.396
56.5398 2.917
56.5700 2.500
56.6003 2.917
56.6306 2.760
56.6609 2.187
56.6912 2.396
56.7214 2.240
56.7517 2.917
56.7820 2.656
56.8123 2.812
56.8426 2.448
56.8728 2.396
56.9031 2.708
56.9334 2.292
56.9637 2.917
56.9939 3.073
57.0242 2.760
57.0545 2.292
57.0848 3.698
57.1151 2.656
57.1453 2.969
57.1756 2.917
57.2059 2.396
57.2362 3.073
57.2665 2.917
57.2967 2.760
57.3270 2.760
57.3573 2.917
57.3876 2.187
57.4178 2.448
57.4481 2.917
57.4784 1.458
57.5087 2.187
57.5390 2.031
57.5692 2.135
57.5995 2.448
57.6298 2.865
57.6601 2.187
57.6904 2.292
57.7206 2.448
57.7509 2.760
57.7812 2.396
57.8115 2.812
57.8417 2.240
57.8720 1.615
57.9023 1.771
57.9326 2.604
57.9629 2.812
57.9931 2.812
58.0234 2.760
58.0537 2.865
58.0840 2.917
58.1143 2.760
58.1445 2.083
58.1748 2.917
58.2051 2.552
58.2354 3.021
58.2656 3.125
58.2959 3.281
58.3262 2.240
58.3565 2.969
58.3868 2.656
58.4170 3.073
58.4473 3.646
58.4776 3.333
58.5079 2.552
58.5382 2.604
58.5684 2.917
58.5987 4.062
58.6290 3.385
58.6593 3.229
58.6896 3.229
58.7198 2.604
58.7501 3.177
58.7804 2.552
58.8107 2.708
58.8409 2.708
58.8712 2.448
58.9015 2.604
58.9318 3.281
58.9621 2.500
58.9923 2.969
59.0226 2.917
59.0529 2.552
59.0832 2.344
59.1135 2.760
59.1437 2.917
59.1740 2.396
59.2043 2.344
59.2346 2.708
59.2648 3.125
59.2951 2.448
59.3254 3.385
59.3557 3.125
59.3860 2.240
59.4162 3.229
59.4465 3.177
59.4768 2.240
59.5071 2.552
59.5374 3.125
59.5676 3.021
59.5979 2.448
59.6282 2.344
59.6585 3.125
59.6887 2.708
59.7190 2.396
59.7493 3.021
59.7796 2.917
59.8099 3.385
59.8401 2.552
59.8704 3.125
59.9007 2.708
59.9310 3.385
59.9613 2.656
59.9915 3.177
60.0218 2.135
60.0521 2.708
60.0824 2.448
60.1126 3.021
60.1429 2.604
60.1732 2.292
60.2035 2.396
60.2338 2.656
60.2640 3.021
60.2943 2.812
60.3246 2.812
60.3549 3.698
60.3852 3.333
60.4154 3.177
60.4457 3.021
60.4760 2.292
60.5063 1.719
60.5365 2.448
60.5668 2.604
60.5971 2.552
60.6274 2.865
60.6577 3.125
60.6879 2.135
60.7182 2.500
60.7485 1.979
60.7788 3.594
60.8091 2.448
60.8393 2.083
60.8696 3.229
60.8999 2.917
60.9302 2.656
60.9604 2.396
60.9907 1.823
61.0210 2.656
61.0513 3.125
61.0816 2.865
61.1118 2.500
61.1421 3.437
61.1724 3.646
61.2027 2.656
61.2330 2.448
61.2632 2.187
61.2935 2.917
61.3238 2.448
61.3541 3.073
61.3844 2.604
61.4146 2.708
61.4449 2.865
61.4752 3.021
61.5055 2.604
61.5357 3.490
61.5660 2.656
61.5963 2.708
61.6266 2.552
61.6569 2.135
61.6871 2.969
61.7174 2.865
61.7477 2.396
61.7780 2.865
61.8083 2.656
61.8385 2.812
61.8688 3.177
61.8991 2.656
61.9294 2.604
61.9596 2.708
61.9899 2.552
62.0202 2.812
62.0505 3.177
62.0808 3.437
62.1110 3.281
62.1413 2.708
62.1716 3.177
62.2019 2.552
62.2322 2.760
62.2624 3.177
62.2927 3.646
62.3230 2.917
62.3533 3.177
62.3835 2.917
62.4138 3.177
62.4441 3.646
62.4744 3.437
62.5047 2.865
62.5349 3.854
62.5652 3.750
62.5955 3.021
62.6258 2.917
62.6561 3.281
62.6863 3.125
62.7166 3.073
62.7469 3.698
62.7772 2.917
62.8074 3.385
62.8377 3.854
62.8680 3.125
62.8983 3.750
62.9286 3.385
62.9588 3.385
62.9891 3.021
63.0194 2.969
63.0497 2.448
63.0800 3.177
63.1102 3.802
63.1405 3.177
63.1708 2.344
63.2011 3.594
63.2313 3.333
63.2616 2.812
63.2919 3.906
63.3222 3.125
63.3525 2.604
63.3827 3.125
63.4130 2.552
63.4433 3.490
63.4736 3.437
63.5039 2.760
63.5341 3.333
63.5644 2.656
63.5947 3.125
63.6250 2.760
63.6552 3.646
63.6855 2.604
63.7158 2.865
63.7461 3.073
63.7764 3.073
63.8066 3.177
63.8369 2.708
63.8672 3.906
63.8975 3.698
63.9278 3.542
63.9580 3.437
63.9883 3.750
64.0186 3.333
64.0489 2.396
64.0791 2.865
64.1094 3.490
64.1397 2.812
64.1700 2.604
64.2003 3.177
64.2305 2.917
64.2608 2.917
64.2911 2.917
64.3214 3.021
64.3517 2.760
64.3819 2.865
64.4122 2.865
64.4425 3.333
64.4728 2.969
64.5031 3.021
64.5333 2.500
64.5636 2.187
64.5939 2.448
64.6242 2.187
64.6544 2.760
64.6847 2.292
64.7150 2.604
64.7453 2.917
64.7756 2.969
64.8058 2.344
64.8361 2.187
64.8664 2.344
64.8967 3.021
64.9270 1.875
64.9572 2.917
64.9875 2.344
65.0178 2.344
65.0481 2.083
65.0783 1.771
65.1086 2.187
65.1389 1.927
65.1692 2.031
65.1995 2.500
65.2297 2.865
65.2600 2.708
65.2903 2.031
65.3206 2.500
65.3509 2.760
65.3811 1.667
65.4114 2.187
65.4417 2.292
65.4720 2.187
65.5022 2.708
65.5325 2.292
65.5628 2.292
65.5931 2.240
65.6234 1.927
65.6536 2.812
65.6839 2.292
65.7142 1.875
65.7445 1.771
65.7748 2.083
65.8050 2.031
65.8353 2.292
65.8656 2.031
65.8959 2.500
65.9261 1.927
65.9564 2.396
65.9867 2.448
66.0170 1.927
66.0473 1.823
66.0775 2.240
66.1078 1.823
66.1381 1.875
66.1684 1.875
66.1987 1.615
66.2289 1.354
66.2592 1.510
66.2895 2.240
66.3198 2.135
66.3500 1.719
66.3803 1.927
66.4106 1.875
66.4409 1.406
66.4712 1.927
66.5014 2.396
66.5317 2.396
66.5620 1.198
66.5923 1.875
66.6226 1.510
66.6528 2.031
66.6831 1.875
66.7134 2.135
66.7437 1.927
66.7739 1.875
66.8042 1.875
66.8345 1.927
66.8648 1.615
66.8951 2.187
66.9253 1.927
66.9556 1.562
66.9859 1.927
67.0162 1.562
67.0465 1.719
67.0767 1.875
67.1070 1.875
67.1373 1.042
67.1676 2.083
67.1978 1.458
67.2281 1.875
67.2584 1.719
67.2887 1.562
67.3190 1.979
67.3492 1.823
67.3795 2.083
67.4098 1.458
67.4401 1.875
67.4704 1.302
67.5006 1.927
67.5309 1.823
67.5612 1.667
67.5915 1.146
67.6218 1.562
67.6520 1.823
67.6823 1.875
67.7126 1.667
67.7429 1.823
67.7731 1.927
67.8034 1.615
67.8337 1.354
67.8640 1.823
67.8943 1.823
67.9245 2.396
67.9548 1.302
67.9851 1.875
68.0154 1.354
68.0457 1.823
68.0759 1.875
68.1062 2.344
68.1365 2.240
68.1668 1.146
68.1970 1.823
68.2273 1.927
68.2576 2.396
68.2879 1.875
68.3182 1.771
68.3484 1.354
68.3787 1.615
68.4090 1.875
68.4393 1.510
68.4696 2.344
68.4998 1.823
68.5301 2.292
68.5604 2.500
68.5907 1.615
68.6209 1.667
68.6512 1.823
68.6815 1.458
68.7118 1.979
68.7421 1.823
68.7723 1.771
68.8026 1.719
68.8329 1.510
68.8632 1.823
68.8935 2.083
68.9237 2.344
68.9540 1.719
68.9843 2.240
69.0146 1.927
69.0448 2.031
69.0751 1.927
69.1054 2.083
69.1357 2.031
69.1660 2.187
69.1962 2.031
69.2265 1.615
69.2568 1.927
69.2871 2.500
69.3174 1.823
69.3476 1.510
69.3779 2.083
69.4082 1.562
69.4385 2.083
69.4687 1.771
69.4990 1.771
69.5293 2.187
69.5596 2.031
69.5899 1.719
69.6201 1.771
69.6504 2.135
69.6807 2.396
69.7110 2.135
69.7413 2.240
69.7715 1.615
69.8018 1.979
69.8321 1.406
69.8624 2.292
69.8926 2.135
69.9229 1.667
69.9532 1.250
69.9835 1.615
70.0138 1.875
70.0440 2.083
70.0743 1.458
70.1046 1.823
70.1349 1.823
70.1652 1.406
70.1954 2.031
70.2257 1.979
70.2560 1.667
70.2863 2.083
70.3166 2.031
70.3468 1.510
70.3771 1.562
70.4074 1.771
70.4377 1.927
70.4679 2.083
70.4982 1.615
70.5285 2.135
70.5588 2.031
70.5891 2.240
70.6193 1.406
70.6496 1.875
70.6799 1.667
70.7102 1.823
70.7405 1.667
70.7707 1.250
70.8010 1.979
70.8313 1.875
70.8616 1.458
70.8918 1.667
70.9221 2.031
70.9524 1.250
70.9827 1.771
71.0130 1.667
71.0432 2.031
71.0735 1.406
71.1038 1.927
71.1341 1.719
71.1644 1.458
71.1946 1.667
71.2249 1.562
71.2552 1.250
71.2855 1.875
71.3157 2.031
71.3460 1.510
71.3763 2.240
71.4066 2.135
71.4369 1.302
71.4671 1.927
71.4974 1.719
71.5277 1.562
71.5580 2.031
71.5883 1.667
71.6185 1.823
71.6488 2.292
71.6791 1.979
71.7094 1.458
71.7396 1.250
71.7699 1.406
71.8002 2.031
71.8305 1.771
71.8608 2.135
71.8910 1.094
71.9213 1.771
71.9516 1.510
71.9819 1.458
72.0122 1.510
72.0424 1.719
72.0727 1.406
72.1030 1.250
72.1333 2.344
72.1635 1.771
72.1938 2.083
72.2241 1.719
72.2544 1.927
72.2847 1.354
72.3149 1.823
72.3452 1.562
72.3755 1.354
72.4058 1.458
72.4361 1.615
72.4663 1.771
72.4966 1.615
72.5269 1.302
72.5572 1.875
72.5874 2.344
72.6177 1.875
72.6480 1.146
72.6783 2.240
72.7086 1.927
72.7388 1.302
72.7691 1.562
72.7994 1.771
72.8297 2.031
72.8600 1.823
72.8902 1.823
72.9205 1.719
72.9508 1.979
72.9811 1.198
73.0113 1.979
73.0416 1.927
73.0719 1.927
73.1022 1.250
73.1325 1.771
73.1627 1.667
73.1930 2.031
73.2233 1.250
73.2536 2.031
73.2839 1.979
73.3141 1.198
73.3444 1.094
73.3747 1.354
73.4050 0.990
73.4353 1.771
73.4655 2.240
73.4958 1.719
73.5261 2.292
73.5564 1.042
73.5866 1.719
73.6169 1.927
73.6472 2.344
73.6775 2.552
73.7078 2.031
73.7380 1.823
73.7683 1.979
73.7986 1.719
73.8289 1.458
73.8592 1.667
73.8894 1.250
73.9197 1.979
73.9500 1.927
73.9803 1.667
74.0105 1.719
74.0408 2.031
74.0711 1.771
74.1014 2.344
74.1317 1.615
74.1619 2.187
74.1922 1.615
74.2225 1.562
74.2528 1.927
74.2831 2.187
74.3133 2.500
74.3436 1.719
74.3739 2.344
74.4042 1.771
74.4344 1.615
74.4647 1.823
74.4950 1.875
74.5253 1.250
74.5556 2.187
74.5858 1.823
74.6161 1.458
74.6464 1.615
74.6767 2.187
74.7070 1.719
74.7372 1.302
74.7675 2.135
74.7978 1.667
74.8281 1.667
74.8583 1.875
74.8886 1.771
74.9189 1.719
74.9492 2.500
74.9795 2.760
75.0097 2.031
75.0400 1.927
75.0703 1.250
75.1006 1.562
75.1309 1.719
75.1611 2.292
75.1914 1.510
75.2217 1.719
75.2520 2.656
75.2822 1.875
75.3125 1.198
75.3428 2.083
75.3731 1.979
75.4034 1.562
75.4336 1.458
75.4639 2.448
75.4942 1.823
75.5245 1.562
75.5548 1.979
75.5850 1.667
75.6153 1.615
75.6456 2.344
75.6759 2.031
75.7061 1.979
75.7364 1.875
75.7667 1.615
75.7970 1.354
75.8273 1.875
75.8575 1.146
75.8878 1.719
75.9181 1.562
75.9484 1.406
75.9787 1.979
76.0089 1.406
76.0392 1.406
76.0695 1.771
76.0998 1.667
76.1301 1.823
76.1603 1.562
76.1906 1.927
76.2209 1.667
76.2512 1.979
76.2814 2.240
76.3117 1.823
76.3420 1.667
76.3723 2.083
76.4026 1.667
76.4328 1.667
76.4631 1.406
76.4934 1.823
76.5237 1.406
76.5540 1.198
76.5842 1.771
76.6145 1.146
76.6448 1.510
76.6751 2.187
76.7053 1.458
76.7356 1.615
76.7659 1.458
76.7962 1.875
76.8265 1.615
76.8567 1.250
76.8870 1.771
76.9173 1.615
76.9476 0.990
76.9779 2.135
77.0081 1.406
77.0384 1.458
77.0687 1.719
77.0990 1.094
77.1292 1.719
77.1595 1.458
77.1898 1.458
77.2201 1.406
77.2504 1.510
77.2806 1.771
77.3109 1.719
77.3412 1.510
77.3715 1.198
77.4018 1.198
77.4320 1.198
77.4623 1.562
77.4926 1.198
77.5229 1.667
77.5531 1.667
77.5834 1.719
77.6137 1.458
77.6440 1.979
77.6743 1.406
77.7045 1.406
77.7348 1.146
77.7651 1.510
77.7954 1.250
77.8257 1.823
77.8559 1.823
77.8862 1.302
77.9165 1.615
77.9468 1.719
77.9770 1.250
78.0073 1.406
78.0376 1.771
78.0679 1.302
78.0982 1.719
78.1284 1.250
78.1587 1.458
78.1890 1.198
78.2193 1.823
78.2496 2.031
78.2798 1.198
78.3101 1.406
78.3404 1.458
78.3707 1.615
78.4009 1.771
78.4312 1.198
78.4615 1.198
78.4918 1.302
78.5221 1.771
78.5523 1.667
78.5826 1.354
78.6129 1.615
78.6432 1.198
78.6735 1.094
78.7037 0.833
78.7340 1.979
78.7643 1.562
78.7946 1.354
78.8248 1.667
78.8551 1.562
78.8854 1.667
78.9157 1.979
78.9460 1.406
78.9762 1.667
79.0065 1.875
79.0368 1.927
79.0671 1.354
79.0974 2.135
79.1276 1.198
79.1579 1.667
79.1882 1.458
79.2185 1.875
79.2488 1.823
79.2790 1.667
79.3093 1.719
79.3396 1.771
79.3699 1.198
79.4001 1.771
79.4304 1.042
79.4607 1.250
79.4910 1.250
79.5213 1.458
79.5515 1.250
79.5818 1.250
79.6121 1.406
79.6424 1.927
79.6727 1.927
79.7029 1.615
79.7332 1.562
79.7635 1.146
79.7938 1.250
79.8240 1.510
79.8543 2.292
79.8846 1.510
79.9149 1.302
79.9452 2.135
79.9754 1.719
80.0057 1.562
80.0360 1.823
80.0663 1.354
80.0966 1.510
80.1268 1.562
80.1571 1.406
80.1874 1.562
80.2177 1.562
80.2479 1.406
80.2782 1.615
80.3085 1.562
80.3388 0.833
80.3691 1.771
80.3993 1.615
80.4296 1.458
80.4599 1.771
80.4902 2.031
80.5205 1.615
80.5507 1.198
80.5810 1.875
80.6113 1.198
80.6416 0.990
80.6718 1.354
80.7021 1.875
80.7324 1.719
80.7627 1.667
80.7930 1.510
80.8232 1.667
80.8535 1.667
80.8838 1.406
80.9141 1.771
80.9444 1.146
80.9746 1.667
81.0049 1.667
81.0352 1.510
81.0655 1.667
81.0957 1.979
81.1260 0.885
81.1563 1.302
81.1866 1.458
81.2169 1.667
81.2471 1.094
81.2774 1.823
81.3077 1.198
81.3380 1.458
81.3683 1.667
81.3985 1.354
81.4288 1.719
81.4591 1.354
81.4894 1.510
81.5196 1.667
81.5499 1.406
81.5802 1.302
81.6105 1.979
81.6408 1.771
81.6710 1.354
81.7013 1.406
81.7316 1.354
81.7619 1.354
81.7922 1.615
81.8224 1.615
81.8527 2.135
81.8830 1.198
81.9133 1.667
81.9436 1.615
81.9738 1.562
82.0041 1.667
82.0344 1.875
82.0647 2.292
82.0949 1.562
82.1252 1.667
82.1555 1.875
82.1858 1.667
82.2161 1.771
82.2463 1.667
82.2766 1.667
82.3069 1.771
82.3372 1.927
82.3675 1.354
82.3977 1.250
82.4280 1.458
82.4583 1.562
82.4886 1.667
82.5188 1.510
82.5491 1.562
82.5794 1.615
82.6097 1.771
82.6400 1.667
82.6702 1.667
82.7005 1.667
82.7308 1.615
82.7611 1.354
82.7914 1.354
82.8216 1.719
82.8519 1.719
82.8822 1.615
82.9125 1.458
82.9427 1.667
82.9730 1.771
83.0033 1.250
83.0336 1.562
83.0639 1.562
83.0941 1.198
83.1244 1.458
83.1547 1.927
83.1850 1.406
83.2153 1.562
83.2455 1.823
83.2758 1.302
83.3061 1.510
83.3364 1.562
83.3666 1.615
83.3969 1.615
83.4272 1.667
83.4575 1.719
83.4878 1.979
83.5180 1.562
83.5483 1.510
83.5786 1.823
83.6089 1.198
83.6392 1.510
83.6694 1.667
83.6997 1.562
83.7300 1.458
83.7603 1.562
83.7905 1.667
83.8208 1.562
83.8511 1.719
83.8814 1.562
83.9117 1.771
83.9419 0.885
83.9722 1.510
84.0025 1.406
84.0328 1.302
84.0631 1.771
84.0933 1.719
84.1236 2.083
84.1539 1.667
84.1842 1.510
84.2144 1.875
84.2447 1.406
84.2750 2.240
84.3053 1.771
84.3356 1.146
84.3658 1.510
84.3961 1.354
84.4264 1.250
84.4567 1.667
84.4870 1.719
84.5172 1.771
84.5475 1.354
84.5778 1.823
84.6081 1.198
84.6383 1.927
84.6686 1.302
84.6989 1.354
84.7292 1.146
84.7595 1.719
84.7897 1.458
84.8200 1.406
84.8503 1.667
84.8806 1.354
84.9109 1.250
84.9411 1.615
84.9714 1.354
85.0017 1.562
85.0320 1.250
85.0623 1.719
85.0925 1.719
85.1228 1.562
85.1531 1.667
85.1834 2.396
85.2136 1.354
85.2439 1.406
85.2742 1.875
85.3045 1.667
85.3348 1.406
85.3650 1.458
85.3953 1.302
85.4256 1.667
85.4559 1.510
85.4862 1.250
85.5164 1.667
85.5467 1.406
85.5770 1.979
85.6073 1.198
85.6375 1.615
85.6678 1.562
85.6981 1.510
85.7284 1.667
85.7587 1.771
85.7889 1.823
85.8192 1.615
85.8495 1.406
85.8798 1.562
85.9101 1.458
85.9403 1.406
85.9706 1.302
86.0009 1.510
86.0312 1.406
86.0614 1.719
86.0917 1.510
86.1220 1.354
86.1523 1.406
86.1826 1.406
86.2128 0.937
86.2431 1.198
86.2734 1.406
86.3037 1.667
86.3340 2.083
86.3642 1.719
86.3945 1.250
86.4248 1.667
86.4551 1.823
86.4853 1.562
86.5156 1.875
86.5459 1.771
86.5762 1.406
86.6065 2.031
86.6367 1.406
86.6670 1.406
86.6973 2.187
86.7276 1.354
86.7579 2.083
86.7881 1.250
86.8184 1.510
86.8487 1.823
86.8790 1.823
86.9092 1.667
86.9395 2.344
86.9698 1.354
87.0001 1.823
87.0304 1.458
87.0606 1.719
87.0909 1.615
87.1212 1.823
87.1515 1.354
87.1818 1.719
87.2120 1.354
87.2423 1.198
87.2726 1.771
87.3029 1.771
87.3331 1.458
87.3634 1.667
87.3937 1.198
87.4240 2.083
87.4543 1.146
87.4845 1.667
87.5148 1.406
87.5451 1.771
87.5754 2.083
87.6057 2.083
87.6359 1.615
87.6662 1.510
87.6965 1.510
87.7268 1.458
87.7571 1.823
87.7873 1.667
87.8176 1.510
87.8479 2.135
87.8782 1.979
87.9084 1.615
87.9387 1.354
87.9690 1.667
87.9993 1.510
88.0296 1.198
88.0598 1.510
88.0901 1.562
88.1204 1.510
88.1507 1.667
88.1810 1.562
88.2112 1.458
88.2415 2.031
88.2718 1.979
88.3021 1.771
88.3323 1.562
88.3626 1.406
88.3929 1.667
88.4232 1.406
88.4535 1.927
88.4837 1.875
88.5140 1.094
88.5443 1.510
88.5746 1.198
88.6049 1.823
88.6351 1.510
88.6654 1.354
88.6957 1.406
88.7260 1.198
88.7562 1.510
88.7865 1.406
88.8168 1.667
88.8471 1.510
88.8774 1.771
88.9076 0.937
88.9379 1.354
88.9682 1.562
88.9985 1.250
89.0288 2.187
89.0590 1.719
89.0893 1.302
89.1196 1.406
89.1499 1.615
89.1801 1.198
89.2104 1.302
89.2407 1.562
89.2710 1.823
89.3013 1.667
89.3315 1.510
89.3618 1.406
89.3921 1.094
89.4224 2.135
89.4527 1.094
89.4829 1.510
89.5132 0.990
89.5435 2.083
89.5738 0.833
89.6040 1.302
89.6343 1.510
89.6646 1.667
89.6949 1.406
89.7252 1.198
89.7554 1.875
89.7857 1.615
89.8160 1.042
89.8463 1.510
89.8766 1.198
89.9068 2.031
89.9371 1.146
89.9674 0.990
89.9977 1.198
90.0279 1.198
90.0582 1.667
90.0885 1.667
90.1188 1.510
90.1491 1.458
90.1793 1.302
90.2096 1.302
90.2399 1.302
90.2702 1.667
90.3005 1.146
90.3307 1.354
90.3610 1.198
90.3913 1.250
90.4216 1.094
90.4518 1.354
90.4821 1.510
90.5124 1.458
90.5427 1.562
90.5730 1.667
90.6032 1.198
90.6335 1.562
90.6638 1.667
90.6941 1.875
90.7244 1.979
90.7546 1.823
90.7849 1.979
90.8152 0.937
90.8455 1.667
90.8758 1.406
90.9060 1.562
90.9363 1.094
90.9666 1.615
90.9969 0.937
91.0271 1.094
91.0574 1.198
91.0877 1.406
91.1180 1.667
91.1483 1.406
91.1785 1.198
91.2088 1.615
91.2391 1.615
91.2694 1.667
91.2997 1.146
91.3299 1.198
91.3602 1.719
91.3905 1.615
91.4208 1.979
91.4510 1.094
91.4813 1.302
91.5116 1.615
91.5419 1.042
91.5722 1.719
91.6024 1.667
91.6327 1.875
91.6630 1.042
91.6933 1.406
91.7236 1.562
91.7538 1.354
91.7841 1.562
91.8144 1.406
91.8447 1.667
91.8749 1.615
91.9052 1.823
91.9355 1.667
91.9658 1.406
91.9961 1.250
92.0263 1.250
92.0566 1.198
92.0869 1.562
92.1172 1.198
92.1475 1.146
92.1777 1.875
92.2080 1.302
92.2383 1.146
92.2686 1.406
92.2988 1.562
92.3291 1.875
92.3594 1.198
92.3897 1.562
92.4200 1.823
92.4502 1.458
92.4805 1.250
92.5108 1.927
92.5411 1.354
92.5714 1.146
92.6016 1.667
92.6319 1.406
92.6622 1.562
92.6925 1.406
92.7227 1.510
92.7530 1.198
92.7833 1.719
92.8136 1.719
92.8439 1.354
92.8741 1.406
92.9044 1.302
92.9347 1.094
92.9650 1.406
92.9953 1.615
93.0255 1.406
93.0558 1.875
93.0861 1.510
93.1164 1.354
93.1466 1.250
93.1769 1.302
93.2072 0.990
93.2375 1.198
93.2678 1.719
93.2980 1.719
93.3283 1.719
93.3586 1.198
93.3889 1.198
93.4192 1.198
93.4494 1.354
93.4797 1.510
93.5100 0.833
93.5403 0.833
93.5706 1.354
93.6008 1.302
93.6311 0.677
93.6614 1.875
93.6917 0.990
93.7219 1.146
93.7522 0.885
93.7825 1.406
93.8128 1.250
93.8431 1.198
93.8733 1.823
93.9036 1.667
93.9339 1.458
93.9642 1.302
93.9945 1.510
94.0247 1.198
94.0550 1.198
94.0853 1.042
94.1156 1.354
94.1458 1.302
94.1761 1.562
94.2064 1.250
94.2367 1.302
94.2670 1.250
94.2972 1.042
94.3275 1.615
94.3578 1.354
94.3881 1.302
94.4184 1.250
94.4486 0.833
94.4789 1.250
94.5092 1.042
94.5395 1.198
94.5697 1.458
94.6000 1.510
94.6303 1.562
94.6606 1.250
94.6909 1.198
94.7211 1.302
94.7514 1.979
94.7817 0.990
94.8120 1.615
94.8423 1.562
94.8725 1.510
94.9028 1.250
94.9331 1.354
94.9634 1.146
94.9936 1.302
95.0239 1.146
95.0542 2.240
95.0845 1.146
95.1148 1.042
95.1450 1.354
95.1753 1.250
95.2056 1.562
95.2359 1.562
95.2662 1.719
95.2964 1.406
95.3267 0.937
95.3570 1.094
95.3873 1.302
95.4175 1.562
95.4478 1.406
95.4781 1.094
95.5084 1.302
95.5387 1.615
95.5689 1.771
95.5992 1.146
95.6295 1.354
95.6598 1.250
95.6901 0.937
95.7203 1.198
95.7506 1.354
95.7809 1.719
95.8112 1.042
95.8414 1.875
95.8717 1.719
95.9020 1.302
95.9323 1.250
95.9626 1.458
95.9928 0.885
96.0231 1.562
96.0534 1.094
96.0837 1.719
96.1140 1.667
96.1442 1.302
96.1745 1.302
96.2048 1.250
96.2351 1.094
96.2653 1.458
96.2956 1.562
96.3259 1.406
96.3562 1.250
96.3865 1.146
96.4167 1.146
96.4470 0.937
96.4773 1.406
96.5076 0.937
96.5379 1.771
96.5681 1.406
96.5984 1.510
96.6287 1.615
96.6590 0.937
96.6893 1.250
96.7195 1.458
96.7498 1.042
96.7801 1.458
96.8104 1.667
96.8406 1.615
96.8709 1.771
96.9012 1.458
96.9315 1.458
96.9618 2.135
96.9920 1.406
97.0223 1.823
97.0526 1.250
97.0829 1.250
97.1132 1.354
97.1434 1.302
97.1737 1.250
97.2040 1.458
97.2343 1.562
97.2645 1.510
97.2948 1.458
97.3251 1.354
97.3554 1.354
97.3857 1.771
97.4159 1.094
97.4462 1.406
97.4765 1.354
97.5068 1.250
97.5371 1.406
97.5673 1.510
97.5976 1.562
97.6279 1.094
97.6582 1.406
97.6884 1.458
97.7187 1.510
97.7490 1.302
97.7793 1.302
97.8096 1.406
97.8398 1.771
97.8701 1.406
97.9004 1.562
97.9307 1.250
97.9610 1.510
97.9912 1.198
98.0215 1.667
98.0518 1.458
98.0821 1.094
98.1123 1.146
98.1426 1.302
98.1729 1.302
98.2032 1.094
98.2335 1.823
98.2637 1.094
98.2940 1.927
98.3243 1.615
98.3546 1.198
98.3849 1.458
98.4151 1.719
98.4454 1.406
98.4757 1.510
98.5060 1.354
98.5362 1.510
98.5665 1.510
98.5968 1.510
98.6271 1.250
98.6574 0.990
98.6876 1.302
98.7179 0.885
98.7482 0.885
98.7785 1.562
98.8088 1.510
98.8390 1.510
98.8693 1.042
98.8996 1.458
98.9299 1.510
98.9601 1.667
98.9904 0.990
99.0207 1.302
99.0510 1.406
99.0813 1.510
99.1115 1.927
99.1418 0.937
99.1721 1.146
99.2024 1.198
99.2327 1.615
99.2629 1.302
99.2932 1.302
99.3235 0.885
99.3538 1.146
99.3841 1.615
99.4143 1.302
99.4446 1.042
99.4749 1.406
99.5052 1.094
99.5354 1.771
99.5657 2.031
99.5960 0.990
99.6263 1.719
99.6566 1.250
99.6868 1.354
99.7171 1.146
99.7474 1.302
99.7777 1.458
99.8080 1.771
99.8382 1.823
99.8685 1.406
99.8988 0.990
99.9291 1.510
99.9593 1.510
99.9896 0.937
100.0199 0.729
100.0502 1.667
100.0805 1.146
100.1107 1.510
100.1410 1.094
100.1713 1.250
100.2016 1.302
100.2319 1.406
100.2621 1.406
100.2924 1.198
100.3227 1.250
100.3530 1.562
100.3832 0.885
100.4135 1.510
100.4438 1.198
100.4741 1.094
100.5044 2.031
100.5346 1.198
100.5649 1.667
100.5952 1.406
100.6255 1.771
100.6558 1.302
100.6860 1.667
100.7163 1.771
100.7466 0.833
100.7769 1.198
100.8071 1.250
100.8374 1.146
100.8677 1.510
100.8980 1.198
100.9283 1.302
100.9585 1.458
100.9888 1.510
101.0191 1.719
101.0494 1.510
101.0797 1.250
101.1099 0.937
101.1402 1.406
101.1705 1.094
101.2008 1.302
101.2310 1.562
101.2613 1.771
101.2916 1.146
101.3219 1.302
101.3522 1.250
101.3824 1.302
101.4127 1.719
101.4430 2.031
101.4733 1.146
101.5036 0.833
101.5338 1.354
101.5641 1.406
101.5944 1.250
101.6247 1.302
101.6549 1.406
101.6852 1.250
101.7155 1.094
101.7458 1.198
101.7761 1.771
101.8063 1.458
101.8366 1.354
101.8669 1.198
101.8972 1.146
101.9275 1.615
101.9577 1.198
101.9880 1.771
102.0183 1.198
102.0486 1.458
102.0788 1.719
102.1091 1.042
102.1394 1.510
102.1697 1.406
102.2000 1.667
102.2302 1.354
102.2605 1.094
102.2908 1.354
102.3211 1.302
102.3514 1.198
102.3816 0.833
102.4119 1.771
102.4422 1.667
102.4725 0.833
102.5028 1.719
102.5330 1.146
102.5633 1.198
102.5936 1.146
102.6239 1.510
102.6541 1.094
102.6844 1.354
102.7147 1.406
102.7450 1.719
102.7753 1.354
102.8055 1.510
102.8358 1.354
102.8661 0.833
102.8964 1.094
102.9267 1.146
102.9569 1.510
102.9872 1.146
103.0175 1.458
103.0478 1.719
103.0780 1.406
103.1083 1.719
103.1386 0.833
103.1689 1.250
103.1992 1.302
103.2294 0.937
103.2597 1.354
103.2900 1.146
103.3203 1.354
103.3506 1.562
103.3808 1.458
103.4111 1.198
103.4414 1.094
103.4717 1.198
103.5019 1.302
103.5322 1.562
103.5625 1.510
103.5928 1.510
103.6231 1.354
103.6533 0.990
103.6836 1.250
103.7139 1.094
103.7442 0.990
103.7745 1.146
103.8047 1.302
103.8350 1.146
103.8653 1.667
103.8956 1.198
103.9258 1.146
103.9561 1.354
103.9864 1.458
104.0167 0.833
104.0470 1.615
104.0772 0.990
104.1075 1.510
104.1378 1.719
104.1681 0.990
104.1984 1.510
104.2286 1.250
104.2589 1.198
104.2892 1.042
104.3195 1.094
104.3497 1.406
104.3800 1.042
104.4103 1.094
104.4406 1.094
104.4709 1.198
104.5011 1.354
104.5314 0.833
104.5617 1.719
104.5920 1.302
104.6223 1.458
104.6525 1.146
104.6828 1.406
104.7131 1.719
104.7434 1.302
104.7736 1.719
104.8039 1.875
104.8342 1.094
104.8645 1.146
104.8948 1.198
104.9250 1.250
104.9553 1.458
104.9856 1.823
105.0159 1.458
105.0462 1.615
105.0764 1.250
105.1067 1.094
105.1370 1.094
105.1673 1.094
105.1975 0.990
105.2278 1.406
105.2581 1.406
105.2884 0.937
105.3187 0.990
105.3489 1.042
105.3792 1.667
105.4095 1.302
105.4398 1.198
105.4701 1.667
105.5003 1.406
105.5306 1.615
105.5609 1.250
105.5912 1.354
105.6215 1.146
105.6517 1.562
105.6820 1.302
105.7123 1.354
105.7426 1.198
105.7728 1.406
105.8031 1.354
105.8334 1.302
105.8637 1.302
105.8940 1.250
105.9242 0.937
105.9545 1.250
105.9848 1.094
106.0151 1.458
106.0454 1.146
106.0756 1.250
106.1059 1.146
106.1362 1.354
106.1665 0.781
106.1967 1.302
106.2270 1.719
106.2573 1.302
106.2876 1.406
106.3179 1.146
106.3481 1.146
106.3784 1.615
106.4087 1.354
106.4390 1.354
106.4693 1.615
106.4995 1.146
106.5298 1.094
106.5601 1.302
106.5904 0.937
106.6206 1.406
106.6509 1.198
106.6812 1.250
106.7115 1.198
106.7418 1.458
106.7720 1.302
106.8023 1.354
106.8326 1.406
106.8629 1.198
106.8932 1.250
106.9234 1.354
106.9537 1.146
106.9840 1.302
107.0143 1.406
107.0445 1.667
107.0748 1.615
107.1051 0.885
107.1354 1.094
107.1657 0.885
107.1959 1.458
107.2262 1.458
107.2565 0.937
107.2868 0.990
107.3171 1.094
107.3473 1.250
107.3776 0.990
107.4079 1.510
107.4382 1.615
107.4684 1.094
107.4987 1.615
107.5290 1.719
107.5593 1.302
107.5896 1.198
107.6198 1.250
107.6501 1.094
107.6804 1.667
107.7107 1.458
107.7410 1.562
107.7712 1.198
107.8015 0.885
107.8318 1.354
107.8621 1.354
107.8923 1.510
107.9226 1.302
107.9529 1.406
107.9832 1.354
108.0135 0.833
108.0437 1.510
108.0740 1.146
108.1043 1.042
108.1346 1.302
108.1649 1.250
108.1951 1.510
108.2254 1.094
108.2557 1.094
108.2860 1.146
108.3163 0.990
108.3465 1.406
108.3768 1.146
108.4071 1.354
108.4374 1.198
108.4676 1.510
108.4979 1.510
108.5282 1.458
108.5585 1.510
108.5888 1.875
108.6190 1.250
108.6493 1.198
108.6796 0.937
108.7099 1.146
108.7402 1.510
108.7704 1.094
108.8007 1.094
108.8310 1.510
108.8613 1.510
108.8915 1.406
108.9218 1.615
108.9521 1.510
108.9824 0.937
109.0127 1.719
109.0429 1.042
109.0732 1.042
109.1035 1.094
109.1338 0.990
109.1641 1.562
109.1943 1.510
109.2246 1.771
109.2549 1.250
109.2852 1.146
109.3154 1.510
109.3457 1.250
109.3760 1.406
109.4063 0.885
109.4366 1.198
109.4668 0.937
109.4971 0.833
109.5274 1.250
109.5577 1.302
109.5880 1.198
109.6182 0.677
109.6485 1.198
109.6788 1.667
109.7091 1.250
109.7393 1.719
109.7696 0.885
109.7999 0.990
109.8302 1.406
109.8605 1.094
109.8907 1.198
109.9210 2.031
109.9513 0.937
109.9816 1.615
110.0119 1.146
110.0421 0.990
110.0724 1.562
110.1027 1.302
110.1330 1.094
110.1632 0.937
110.1935 1.354
110.2238 1.198
110.2541 1.146
110.2844 0.937
110.3146 0.885
110.3449 1.146
110.3752 1.250
110.4055 1.198
110.4358 1.302
110.4660 1.198
110.4963 1.042
110.5266 1.354
110.5569 1.406
110.5871 1.146
110.6174 1.354
110.6477 1.562
110.6780 1.302
110.7083 1.615
110.7385 1.667
110.7688 1.510
110.7991 1.354
110.8294 1.406
110.8597 1.615
110.8899 1.198
110.9202 1.042
110.9505 1.615
110.9808 1.302
111.0110 1.042
111.0413 1.406
111.0716 1.510
111.1019 1.302
111.1322 1.354
111.1624 1.771
111.1927 1.094
111.2230 1.406
111.2533 1.250
111.2836 1.094
111.3138 1.510
111.3441 1.354
111.3744 1.510
111.4047 1.615
111.4350 1.510
111.4652 1.406
111.4955 0.937
111.5258 1.042
111.5561 0.833
111.5863 1.406
111.6166 0.937
111.6469 1.250
111.6772 1.250
111.7075 1.406
111.7377 1.667
111.7680 1.094
111.7983 1.927
111.8286 1.302
111.8589 1.094
111.8891 1.198
111.9194 1.042
111.9497 1.250
111.9800 1.094
112.0102 0.990
112.0405 1.562
112.0708 1.250
112.1011 1.198
112.1314 1.406
112.1616 0.990
112.1919 1.510
112.2222 1.875
112.2525 1.510
112.2828 1.198
112.3130 1.302
112.3433 1.042
112.3736 1.250
112.4039 1.094
112.4341 1.406
112.4644 1.510
112.4947 1.042
112.5250 1.406
112.5553 1.771
112.5855 1.667
112.6158 1.562
112.6461 1.875
112.6764 1.562
112.7067 1.302
112.7369 1.094
112.7672 1.771
112.7975 1.354
112.8278 1.354
112.8580 1.042
112.8883 1.302
112.9186 0.833
112.9489 1.042
112.9792 1.510
113.0094 1.302
113.0397 1.198
113.0700 1.146
113.1003 1.719
113.1306 1.615
113.1608 1.198
113.1911 1.875
113.2214 1.562
113.2517 1.094
113.2819 1.667
113.3122 1.719
113.3425 1.354
113.3728 1.510
113.4031 1.354
113.4333 1.354
113.4636 1.406
113.4939 1.042
113.5242 1.198
113.5545 1.458
113.5847 1.042
113.6150 1.458
113.6453 1.146
113.6756 1.615
113.7058 1.146
113.7361 1.042
113.7664 1.146
113.7967 1.042
113.8270 1.042
113.8572 1.562
113.8875 1.719
113.9178 1.771
113.9481 1.771
113.9784 1.094
114.0086 1.094
114.0389 1.615
114.0692 1.250
114.0995 1.302
114.1298 1.094
114.1600 1.146
114.1903 1.302
114.2206 1.146
114.2509 1.094
114.2811 1.094
114.3114 1.094
114.3417 1.198
114.3720 1.042
114.4023 1.302
114.4325 1.250
114.4628 1.250
114.4931 1.406
114.5234 0.990
114.5537 1.458
114.5839 1.354
114.6142 1.406
114.6445 1.406
114.6748 1.354
114.7050 1.875
114.7353 1.406
114.7656 0.885
114.7959 1.354
114.8262 1.198
114.8564 1.771
114.8867 1.458
114.9170 1.094
114.9473 1.250
114.9776 1.042
115.0078 1.146
115.0381 0.833
115.0684 1.302
115.0987 1.354
115.1289 1.510
115.1592 0.885
115.1895 1.250
115.2198 1.667
115.2501 1.354
115.2803 1.458
115.3106 1.354
115.3409 1.510
115.3712 1.042
115.4015 1.198
115.4317 1.146
115.4620 1.146
115.4923 0.990
115.5226 1.302
115.5528 1.146
115.5831 1.354
115.6134 1.667
115.6437 1.250
115.6740 0.990
115.7042 1.094
115.7345 1.302
115.7648 1.354
115.7951 1.458
115.8254 1.562
115.8556 1.250
115.8859 1.250
115.9162 1.406
115.9465 1.146
115.9767 1.302
116.0070 1.510
116.0373 0.885
116.0676 1.562
116.0979 0.990
116.1281 1.094
116.1584 1.354
116.1887 0.990
116.2190 1.562
116.2493 1.146
116.2795 0.990
116.3098 1.615
116.3401 1.510
116.3704 0.885
116.4006 1.406
116.4309 1.458
116.4612 1.042
116.4915 1.562
116.5218 1.094
116.5520 1.562
116.5823 1.875
116.6126 0.885
116.6429 1.354
116.6732 1.198
116.7034 1.562
116.7337 1.042
116.7640 1.042
116.7943 1.458
116.8245 1.406
116.8548 1.302
116.8851 1.771
116.9154 1.354
116.9457 1.771
116.9759 1.979
117.0062 1.198
117.0365 1.615
117.0668 1.458
117.0971 1.719
117.1273 1.302
117.1576 1.302
117.1879 1.198
117.2182 1.198
117.2485 1.198
117.2787 1.458
117.3090 0.990
117.3393 0.833
117.3696 1.354
117.3998 1.615
117.4301 1.146
117.4604 1.875
117.4907 1.146
117.5210 1.615
117.5512 1.302
117.5815 1.302
117.6118 1.354
117.6421 1.250
117.6724 1.406
117.7026 1.250
117.7329 1.562
117.7632 1.250
117.7935 1.406
117.8237 1.302
117.8540 1.406
117.8843 1.302
117.9146 2.083
117.9449 0.885
117.9751 1.302
118.0054 1.250
118.0357 0.937
118.0660 1.146
118.0963 1.250
118.1265 1.302
118.1568 1.302
118.1871 1.302
118.2174 0.885
118.2476 1.406
118.2779 1.771
118.3082 1.458
118.3385 1.458
118.3688 1.250
118.3990 1.198
118.4293 0.885
118.4596 1.250
118.4899 1.406
118.5202 1.615
118.5504 1.042
118.5807 1.354
118.6110 1.875
118.6413 1.302
118.6715 1.719
118.7018 0.937
118.7321 1.198
118.7624 1.354
118.7927 1.302
118.8229 1.615
118.8532 1.302
118.8835 0.990
118.9138 1.979
118.9441 1.198
118.9743 1.719
119.0046 1.198
119.0349 1.094
119.0652 2.187
119.0954 1.510
119.1257 1.615
119.1560 1.302
119.1863 1.198
119.2166 0.885
119.2468 1.302
119.2771 1.510
119.3074 1.146
119.3377 1.510
119.3680 1.250
119.3982 1.354
119.4285 1.094
119.4588 1.094
119.4891 1.250
119.5193 0.885
119.5496 1.198
119.5799 1.927
119.6102 1.510
119.6405 1.250
119.6707 0.781
119.7010 1.354
119.7313 1.198
119.7616 1.250
119.7919 1.875
119.8221 1.094
119.8524 1.198
119.8827 1.562
119.9130 1.094
119.9433 1.354
119.9735 1.198
120.0038 1.094
