'Id: "" Comment: "" Operator: "Lab Manager" Anode: "Cu" Scantype: "Locked Coupled" TimePerStep: "19.2" X: "9999" Y: "9999" Z: "9999" 
10.0015 3.906
10.0318 3.125
10.0620 3.594
10.0923 3.021
10.1226 3.802
10.1529 2.812
10.1832 3.125
10.2134 3.542
10.2437 3.333
10.2740 3.698
10.3043 4.167
10.3346 3.698
10.3648 3.542
10.3951 3.281
10.4254 3.281
10.4557 4.062
10.4859 4.062
10.5162 3.594
10.5465 3.333
10.5768 3.698
10.6071 2.969
10.6373 3.594
10.6676 3.646
10.6979 4.062
10.7282 3.698
10.7585 3.490
10.7887 3.229
10.8190 3.021
10.8493 4.167
10.8796 3.906
10.9098 3.073
10.9401 3.646
10.9704 3.021
11.0007 4.792
11.0310 4.062
11.0612 3.958
11.0915 4.375
11.1218 3.958
11.1521 2.917
11.1824 3.229
11.2126 3.437
11.2429 4.062
11.2732 4.219
11.3035 3.281
11.3337 3.281
11.3640 2.969
11.3943 3.333
11.4246 3.125
11.4549 3.021
11.4851 3.594
11.5154 2.917
11.5457 3.073
11.5760 3.073
11.6063 3.281
11.6365 3.594
11.6668 3.333
11.6971 2.344
11.7274 2.656
11.7577 3.229
11.7879 2.604
11.8182 2.604
11.8485 4.010
11.8788 3.125
11.9090 3.229
11.9393 4.010
11.9696 2.552
11.9999 3.333
12.0302 3.333
12.0604 3.021
12.0907 3.437
12.1210 2.552
12.1513 3.125
12.1816 3.698
12.2118 2.865
12.2421 4.062
12.2724 2.708
12.3027 4.010
12.3329 3.490
12.3632 3.854
12.3935 3.437
12.4238 2.812
12.4541 2.917
12.4843 3.333
12.5146 2.969
12.5449 3.437
12.5752 2.396
12.6055 3.906
12.6357 2.656
12.6660 2.292
12.6963 3.385
12.7266 3.073
12.7568 3.333
12.7871 2.500
12.8174 3.698
12.8477 2.812
12.8780 2.292
12.9082 3.229
12.9385 2.812
12.9688 3.281
12.9991 2.760
13.0294 2.760
13.0596 2.500
13.0899 3.229
13.1202 3.385
13.1505 3.073
13.1807 3.125
13.2110 2.865
13.2413 2.552
13.2716 2.396
13.3019 3.333
13.3321 2.604
13.3624 3.281
13.3927 3.125
13.4230 4.219
13.4533 3.542
13.4835 3.281
13.5138 2.083
13.5441 2.292
13.5744 2.865
13.6046 2.969
13.6349 2.865
13.6652 3.750
13.6955 3.385
13.7258 2.083
13.7560 2.292
13.7863 2.656
13.8166 2.500
13.8469 2.969
13.8772 3.437
13.9074 2.708
13.9377 2.760
13.9680 2.604
13.9983 3.385
14.0285 2.812
14.0588 2.760
14.0891 2.240
14.1194 2.760
14.1497 2.448
14.1799 2.969
14.2102 2.552
14.2405 2.448
14.2708 2.187
14.3011 2.917
14.3313 3.073
14.3616 2.917
14.3919 3.073
14.4222 2.240
14.4524 2.708
14.4827 3.021
14.5130 2.812
14.5433 2.500
14.5736 2.552
14.6038 2.344
14.6341 2.500
14.6644 2.552
14.6947 2.708
14.7250 2.240
14.7552 2.969
14.7855 2.969
14.8158 2.917
14.8461 3.021
14.8764 2.865
14.9066 2.187
14.9369 3.021
14.9672 2.344
14.9975 2.500
15.0277 2.187
15.0580 2.187
15.0883 2.240
15.1186 2.396
15.1489 2.448
15.1791 2.969
15.2094 3.281
15.2397 1.979
15.2700 2.344
15.3003 2.865
15.3305 2.969
15.3608 3.125
15.3911 2.552
15.4214 2.240
15.4516 2.396
15.4819 3.385
15.5122 2.917
15.5425 2.708
15.5728 3.125
15.6030 2.812
15.6333 2.187
15.6636 2.552
15.6939 2.187
15.7242 2.656
15.7544 2.031
15.7847 2.500
15.8150 2.969
15.8453 2.187
15.8755 2.812
15.9058 2.396
15.9361 3.229
15.9664 2.552
15.9967 2.552
16.0269 2.448
16.0572 2.500
16.0875 2.656
16.1178 2.656
16.1481 2.240
16.1783 3.385
16.2086 2.552
16.2389 2.760
16.2692 2.500
16.2994 2.240
16.3297 2.812
16.3600 2.812
16.3903 3.125
16.4206 2.031
16.4508 3.073
16.4811 2.760
16.5114 2.396
16.5417 2.292
16.5720 2.448
16.6022 2.552
16.6325 1.979
16.6628 3.177
16.6931 2.812
16.7233 2.552
16.7536 2.240
16.7839 2.969
16.8142 3.333
16.8445 2.448
16.8747 2.656
16.9050 2.240
16.9353 2.656
16.9656 2.396
16.9959 2.969
17.0261 2.344
17.0564 2.083
17.0867 3.333
17.1170 2.708
17.1472 2.865
17.1775 2.344
17.2078 2.240
17.2381 2.708
17.2684 2.396
17.2986 2.708
17.3289 2.552
17.3592 2.917
17.3895 2.760
17.4198 1.719
17.4500 2.865
17.4803 2.656
17.5106 2.969
17.5409 1.354
17.5712 2.812
17.6014 2.396
17.6317 2.708
17.6620 2.187
17.6923 3.385
17.7225 2.604
17.7528 1.927
17.7831 1.875
17.8134 2.969
17.8437 2.552
17.8739 3.490
17.9042 1.979
17.9345 2.656
17.9648 2.500
17.9951 1.979
18.0253 1.719
18.0556 2.187
18.0859 2.448
18.1162 2.500
18.1464 2.448
18.1767 1.979
18.2070 1.719
18.2373 2.552
18.2676 2.760
18.2978 1.771
18.3281 2.969
18.3584 2.500
18.3887 2.760
18.4190 2.812
18.4492 2.292
18.4795 2.292
18.5098 2.604
18.5401 2.865
18.5703 1.771
18.6006 2.604
18.6309 2.448
18.6612 2.604
18.6915 2.083
18.7217 3.073
18.7520 1.719
18.7823 2.292
18.8126 2.760
18.8429 2.396
18.8731 2.448
18.9034 2.396
18.9337 2.448
18.9640 1.927
18.9942 2.135
19.0245 1.823
19.0548 2.083
19.0851 2.344
19.1154 1.927
19.1456 2.240
19.1759 2.604
19.2062 2.708
19.2365 1.302
19.2668 1.771
19.2970 1.875
19.3273 2.448
19.3576 1.823
19.3879 1.979
19.4181 2.135
19.4484 2.552
19.4787 2.500
19.5090 1.927
19.5393 2.448
19.5695 1.927
19.5998 2.396
19.6301 2.344
19.6604 2.083
19.6907 2.969
19.7209 1.979
19.7512 2.448
19.7815 2.292
19.8118 2.240
19.8420 2.344
19.8723 1.719
19.9026 2.760
19.9329 1.875
19.9632 2.135
19.9934 1.927
20.0237 2.240
20.0540 2.083
20.0843 2.604
20.1146 1.823
20.1448 1.771
20.1751 1.667
20.2054 2.500
20.2357 2.031
20.2659 2.292
20.2962 1.875
20.3265 2.187
20.3568 2.083
20.3871 2.344
20.4173 2.135
20.4476 1.615
20.4779 2.083
20.5082 1.875
20.5385 2.448
20.5687 1.927
20.5990 1.875
20.6293 1.823
20.6596 1.719
20.6899 2.240
20.7201 2.083
20.7504 2.500
20.7807 2.083
20.8110 1.927
20.8412 2.187
20.8715 2.240
20.9018 2.083
20.9321 2.083
20.9624 1.823
20.9926 2.812
21.0229 1.927
21.0532 1.615
21.0835 1.823
21.1138 2.292
21.1440 2.187
21.1743 1.719
21.2046 2.135
21.2349 1.615
21.2651 2.240
21.2954 2.031
21.3257 2.083
21.3560 2.187
21.3863 1.562
21.4165 1.875
21.4468 1.406
21.4771 1.979
21.5074 1.875
21.5377 2.500
21.5679 2.240
21.5982 2.240
21.6285 2.083
21.6588 1.927
21.6890 1.979
21.7193 2.240
21.7496 2.396
21.7799 2.135
21.8102 2.552
21.8404 1.927
21.8707 2.448
21.9010 1.094
21.9313 2.187
21.9616 2.500
21.9918 1.458
22.0221 2.292
22.0524 2.083
22.0827 2.083
22.1129 2.031
22.1432 2.344
22.1735 2.656
22.2038 1.771
22.2341 2.083
22.2643 2.344
22.2946 1.979
22.3249 2.708
22.3552 1.719
22.3855 2.344
22.4157 2.083
22.4460 2.031
22.4763 1.875
22.5066 1.771
22.5368 2.240
22.5671 1.875
22.5974 2.083
22.6277 1.510
22.6580 2.760
22.6882 2.187
22.7185 1.875
22.7488 1.927
22.7791 2.240
22.8094 1.562
22.8396 1.927
22.8699 2.448
22.9002 1.823
22.9305 1.615
22.9607 1.875
22.9910 1.823
23.0213 1.823
23.0516 2.135
23.0819 2.135
23.1121 1.979
23.1424 1.771
23.1727 2.031
23.2030 1.562
23.2333 1.927
23.2635 2.135
23.2938 2.812
23.3241 3.177
23.3544 1.875
23.3846 2.240
23.4149 1.198
23.4452 2.500
23.4755 2.031
23.5058 1.719
23.5360 1.979
23.5663 2.240
23.5966 1.771
23.6269 1.719
23.6572 1.562
23.6874 1.667
23.7177 2.135
23.7480 1.823
23.7783 2.240
23.8086 1.458
23.8388 1.719
23.8691 2.135
23.8994 1.875
23.9297 1.823
23.9599 2.448
23.9902 2.240
24.0205 1.719
24.0508 1.979
24.0811 1.979
24.1113 1.771
24.1416 1.979
24.1719 1.875
24.2022 1.979
24.2325 2.656
24.2627 1.615
24.2930 1.979
24.3233 1.719
24.3536 1.719
24.3838 1.771
24.4141 1.927
24.4444 2.344
24.4747 2.083
24.5050 1.823
24.5352 1.198
24.5655 2.292
24.5958 1.667
24.6261 2.656
24.6564 1.562
24.6866 1.458
24.7169 1.719
24.7472 1.458
24.7775 2.135
24.8077 1.510
24.8380 1.927
24.8683 1.823
24.8986 1.927
24.9289 1.719
24.9591 1.771
24.9894 2.448
25.0197 2.135
25.0500 2.656
25.0803 1.771
25.1105 1.771
25.1408 1.979
25.1711 2.552
25.2014 1.771
25.2316 1.302
25.2619 2.083
25.2922 2.187
25.3225 1.979
25.3528 1.458
25.3830 1.823
25.4133 2.448
25.4436 1.406
25.4739 2.187
25.5042 2.656
25.5344 1.510
25.5647 1.458
25.5950 1.823
25.6253 2.187
25.6555 2.135
25.6858 1.875
25.7161 2.031
25.7464 2.187
25.7767 1.823
25.8069 2.240
25.8372 1.771
25.8675 1.927
25.8978 1.667
25.9281 1.771
25.9583 2.135
25.9886 2.135
26.0189 1.719
26.0492 1.615
26.0794 1.875
26.1097 2.396
26.1400 1.979
26.1703 2.083
26.2006 1.406
26.2308 1.354
26.2611 2.135
26.2914 2.240
26.3217 1.771
26.3520 2.135
26.3822 2.031
26.4125 2.187
26.4428 1.667
26.4731 1.510
26.5034 1.875
26.5336 2.083
26.5639 1.406
26.5942 1.927
26.6245 1.510
26.6547 1.615
26.6850 2.240
26.7153 1.719
26.7456 2.135
26.7759 1.719
26.8061 1.979
26.8364 2.969
26.8667 1.771
26.8970 1.615
26.9273 1.927
26.9575 1.719
26.9878 1.927
27.0181 1.927
27.0484 2.240
27.0786 2.187
27.1089 1.927
27.1392 1.927
27.1695 1.979
27.1998 1.510
27.2300 2.135
27.2603 1.667
27.2906 2.135
27.3209 2.240
27.3512 1.927
27.3814 2.240
27.4117 2.135
27.4420 2.187
27.4723 1.771
27.5025 2.396
27.5328 2.396
27.5631 1.979
27.5934 2.396
27.6237 1.615
27.6539 2.083
27.6842 1.510
27.7145 1.771
27.7448 1.979
27.7751 1.927
27.8053 2.604
27.8356 2.500
27.8659 2.240
27.8962 1.875
27.9264 1.927
27.9567 1.719
27.9870 1.979
28.0173 2.187
28.0476 2.604
28.0778 2.344
28.1081 1.875
28.1384 2.292
28.1687 2.344
28.1990 2.344
28.2292 2.240
28.2595 2.135
28.2898 3.177
28.3201 1.979
28.3503 2.500
28.3806 1.823
28.4109 2.344
28.4412 2.187
28.4715 2.240
28.5017 2.135
28.5320 2.344
28.5623 2.969
28.5926 1.302
28.6229 2.083
28.6531 2.500
28.6834 1.823
28.7137 2.656
28.7440 1.771
28.7742 2.604
28.8045 2.187
28.8348 2.135
28.8651 2.708
28.8954 2.135
28.9256 2.760
28.9559 1.667
28.9862 2.448
29.0165 2.292
29.0468 2.760
29.0770 2.969
29.1073 2.500
29.1376 3.021
29.1679 2.448
29.1981 2.187
29.2284 2.552
29.2587 2.604
29.2890 2.865
29.3193 2.396
29.3495 2.448
29.3798 2.656
29.4101 2.396
29.4404 2.135
29.4707 2.448
29.5009 2.448
29.5312 2.083
29.5615 2.760
29.5918 3.021
29.6221 2.604
29.6523 2.448
29.6826 2.812
29.7129 2.812
29.7432 3.073
29.7734 3.073
29.8037 2.292
29.8340 2.760
29.8643 2.604
29.8946 3.229
29.9248 3.021
29.9551 2.812
29.9854 3.021
30.0157 3.542
30.0460 2.760
30.0762 3.281
30.1065 3.385
30.1368 3.073
30.1671 2.969
30.1973 3.437
30.2276 2.917
30.2579 4.115
30.2882 3.229
30.3185 3.229
30.3487 3.177
30.3790 3.385
30.4093 4.115
30.4396 3.750
30.4699 2.917
30.5001 4.115
30.5304 4.323
30.5607 2.865
30.5910 4.115
30.6212 3.854
30.6515 4.635
30.6818 4.583
30.7121 4.219
30.7424 4.271
30.7726 5.156
30.8029 5.521
30.8332 5.104
30.8635 4.583
30.8938 5.729
30.9240 6.042
30.9543 6.979
30.9846 6.146
31.0149 5.937
31.0451 6.354
31.0754 7.969
31.1057 8.490
31.1360 8.125
31.1663 9.531
31.1965 10.573
31.2268 11.146
31.2571 11.458
31.2874 13.333
31.3177 14.375
31.3479 15.052
31.3782 18.594
31.4085 18.750
31.4388 20.417
31.4690 23.177
31.4993 26.198
31.5296 26.615
31.5599 31.615
31.5902 34.062
31.6204 29.635
31.6507 32.865
31.6810 30.469
31.7113 28.490
31.7416 28.594
31.7718 24.531
31.8021 24.010
31.8324 19.323
31.8627 16.302
31.8929 15.521
31.9232 13.958
31.9535 14.792
31.9838 11.354
32.0141 9.427
32.0443 9.375
32.0746 8.958
32.1049 8.490
32.1352 8.229
32.1655 8.437
32.1957 6.667
32.2260 7.240
32.2563 5.625
32.2866 6.979
32.3169 6.146
32.3471 5.260
32.3774 4.375
32.4077 5.104
32.4380 5.937
32.4682 4.687
32.4985 4.427
32.5288 4.062
32.5591 4.687
32.5894 4.167
32.6196 4.010
32.6499 4.323
32.6802 3.698
32.7105 3.958
32.7408 4.010
32.7710 3.958
32.8013 3.125
32.8316 3.437
32.8619 3.229
32.8921 4.531
32.9224 3.490
32.9527 4.427
32.9830 3.177
33.0133 2.969
33.0435 3.802
33.0738 4.948
33.1041 3.802
33.1344 4.167
33.1647 4.635
33.1949 3.958
33.2252 3.958
33.2555 4.062
33.2858 3.646
33.3160 3.854
33.3463 4.115
33.3766 5.312
33.4069 5.000
33.4372 4.687
33.4674 4.062
33.4977 4.323
33.5280 4.427
33.5583 4.375
33.5886 5.052
33.6188 4.375
33.6491 4.531
33.6794 5.885
33.7097 4.479
33.7399 4.427
33.7702 4.583
33.8005 5.469
33.8308 6.198
33.8611 5.885
33.8913 6.094
33.9216 6.094
33.9519 9.010
33.9822 9.479
34.0125 9.896
34.0427 10.781
34.0730 12.917
34.1033 14.323
34.1336 18.177
34.1638 19.271
34.1941 24.687
34.2244 30.885
34.2547 38.125
34.2850 37.240
34.3152 33.437
34.3455 34.062
34.3758 27.812
34.4061 23.698
34.4364 19.844
34.4666 14.271
34.4969 14.531
34.5272 11.823
34.5575 10.521
34.5877 8.333
34.6180 9.271
34.6483 7.865
34.6786 7.760
34.7089 6.927
34.7391 6.615
34.7694 7.240
34.7997 7.917
34.8300 6.146
34.8603 6.823
34.8905 6.510
34.9208 5.365
34.9511 6.094
34.9814 5.729
35.0116 5.573
35.0419 5.052
35.0722 5.937
35.1025 6.042
35.1328 5.729
35.1630 6.615
35.1933 5.833
35.2236 6.250
35.2539 7.187
35.2842 7.500
35.3144 5.677
35.3447 7.760
35.3750 7.396
35.4053 7.031
35.4356 7.083
35.4658 7.760
35.4961 9.792
35.5264 9.635
35.5567 9.062
35.5869 10.677
35.6172 10.521
35.6475 11.927
35.6778 13.073
35.7081 14.010
35.7383 15.573
35.7686 17.448
35.7989 17.552
35.8292 19.896
35.8595 21.771
35.8897 25.260
35.9200 28.125
35.9503 30.573
35.9806 32.240
36.0108 37.240
36.0411 40.365
36.0714 42.187
36.1017 44.740
36.1320 43.177
36.1622 45.365
36.1925 40.521
36.2228 37.240
36.2531 34.687
36.2834 32.135
36.3136 29.583
36.3439 25.885
36.3742 22.083
36.4045 19.844
36.4347 17.240
36.4650 16.562
36.4953 13.281
36.5256 12.865
36.5559 11.302
36.5861 12.083
36.6164 9.219
36.6467 8.125
36.6770 10.365
36.7073 7.865
36.7375 8.073
36.7678 6.927
36.7981 6.146
36.8284 6.771
36.8586 6.302
36.8889 5.521
36.9192 5.365
36.9495 5.417
36.9798 4.323
37.0100 4.583
37.0403 4.115
37.0706 4.583
37.1009 5.000
37.1312 3.958
37.1614 3.958
37.1917 3.958
37.2220 3.333
37.2523 3.854
37.2825 3.958
37.3128 2.865
37.3431 3.437
37.3734 3.281
37.4037 4.010
37.4339 3.177
37.4642 2.552
37.4945 2.917
37.5248 2.187
37.5551 2.760
37.5853 2.917
37.6156 2.656
37.6459 2.656
37.6762 3.490
37.7064 2.708
37.7367 2.396
37.7670 2.812
37.7973 3.021
37.8276 2.812
37.8578 2.448
37.8881 3.125
37.9184 2.396
37.9487 2.292
37.9790 2.396
38.0092 2.396
38.0395 1.667
38.0698 2.604
38.1001 2.812
38.1304 2.240
38.1606 2.135
38.1909 2.448
38.2212 1.667
38.2515 1.875
38.2817 1.823
38.3120 1.875
38.3423 2.292
38.3726 2.448
38.4029 2.344
38.4331 2.031
38.4634 2.292
38.4937 2.187
38.5240 2.240
38.5543 1.771
38.5845 1.979
38.6148 2.396
38.6451 2.083
38.6754 1.406
38.7056 1.458
38.7359 1.354
38.7662 1.771
38.7965 1.719
38.8268 1.406
38.8570 2.240
38.8873 2.292
38.9176 1.667
38.9479 1.771
38.9782 1.771
39.0084 1.406
39.0387 2.135
39.0690 1.667
39.0993 1.875
39.1295 2.135
39.1598 0.990
39.1901 1.302
39.2204 1.979
39.2507 1.771
39.2809 1.302
39.3112 1.927
39.3415 1.198
39.3718 1.875
39.4021 1.406
39.4323 1.562
39.4626 1.771
39.4929 1.875
39.5232 1.510
39.5534 1.146
39.5837 1.875
39.6140 1.719
39.6443 2.187
39.6746 1.875
39.7048 1.615
39.7351 1.406
39.7654 1.354
39.7957 1.510
39.8260 1.927
39.8562 1.927
39.8865 1.354
39.9168 1.510
39.9471 1.198
39.9773 1.562
40.0076 1.667
40.0379 1.510
40.0682 1.198
40.0985 1.406
40.1287 1.458
40.1590 1.406
40.1893 1.719
40.2196 1.875
40.2499 1.719
40.2801 1.615
40.3104 1.562
40.3407 1.875
40.3710 1.615
40.4012 1.458
40.4315 1.198
40.4618 1.354
40.4921 1.458
40.5224 1.667
40.5526 1.354
40.5829 1.771
40.6132 1.406
40.6435 1.458
40.6738 1.667
40.7040 1.667
40.7343 1.875
40.7646 1.406
40.7949 1.250
40.8251 1.094
40.8554 1.979
40.8857 1.510
40.9160 1.719
40.9463 1.302
40.9765 1.771
41.0068 1.354
41.0371 1.615
41.0674 1.719
41.0977 1.615
41.1279 1.146
41.1582 2.187
41.1885 1.250
41.2188 1.094
41.2491 1.250
41.2793 1.406
41.3096 1.562
41.3399 1.042
41.3702 1.302
41.4004 1.354
41.4307 1.875
41.4610 0.677
41.4913 1.146
41.5216 1.406
41.5518 1.719
41.5821 1.354
41.6124 1.510
41.6427 2.031
41.6730 1.146
41.7032 1.250
41.7335 1.562
41.7638 1.354
41.7941 1.406
41.8243 1.302
41.8546 1.458
41.8849 1.979
41.9152 1.510
41.9455 1.250
41.9757 1.667
42.0060 1.823
42.0363 1.250
42.0666 1.458
42.0969 0.990
42.1271 0.990
42.1574 1.615
42.1877 0.990
42.2180 1.510
42.2482 1.302
42.2785 1.458
42.3088 2.083
42.3391 1.615
42.3694 1.406
42.3996 1.406
42.4299 0.937
42.4602 1.510
42.4905 1.250
42.5208 1.823
42.5510 1.510
42.5813 1.667
42.6116 1.042
42.6419 1.198
42.6721 1.771
42.7024 1.250
42.7327 1.458
42.7630 1.510
42.7933 1.198
42.8235 1.146
42.8538 1.302
42.8841 1.510
42.9144 1.615
42.9447 1.146
42.9749 2.135
43.0052 1.667
43.0355 1.562
43.0658 1.667
43.0960 1.250
43.1263 0.990
43.1566 1.042
43.1869 1.302
43.2172 1.458
43.2474 1.146
43.2777 1.250
43.3080 1.042
43.3383 1.510
43.3686 0.990
43.3988 1.979
43.4291 1.667
43.4594 1.458
43.4897 0.885
43.5199 1.875
43.5502 1.615
43.5805 0.781
43.6108 1.198
43.6411 1.250
43.6713 1.875
43.7016 1.198
43.7319 1.667
43.7622 1.562
43.7925 1.146
43.8227 1.302
43.8530 1.250
43.8833 1.615
43.9136 1.198
43.9439 1.302
43.9741 1.354
44.0044 1.510
44.0347 1.458
44.0650 1.198
44.0952 1.667
44.1255 1.406
44.1558 1.406
44.1861 1.510
44.2164 1.250
44.2466 1.562
44.2769 1.354
44.3072 1.562
44.3375 1.719
44.3678 1.042
44.3980 1.042
44.4283 1.927
44.4586 1.562
44.4889 1.771
44.5191 1.667
44.5494 1.406
44.5797 1.354
44.6100 1.406
44.6403 1.615
44.6705 1.458
44.7008 1.302
44.7311 1.406
44.7614 1.406
44.7917 1.927
44.8219 0.990
44.8522 1.562
44.8825 1.510
44.9128 1.146
44.9430 1.302
44.9733 1.458
45.0036 1.562
45.0339 1.458
45.0642 1.354
45.0944 1.927
45.1247 1.823
45.1550 1.823
45.1853 0.885
45.2156 2.083
45.2458 1.198
45.2761 1.302
45.3064 1.562
45.3367 1.250
45.3669 1.562
45.3972 1.458
45.4275 1.823
45.4578 1.615
45.4881 1.094
45.5183 1.615
45.5486 1.302
45.5789 1.198
45.6092 1.458
45.6395 1.458
45.6697 1.771
45.7000 1.510
45.7303 1.094
45.7606 1.771
45.7908 1.198
45.8211 1.875
45.8514 1.615
45.8817 1.510
45.9120 1.510
45.9422 1.875
45.9725 1.771
46.0028 1.406
46.0331 1.406
46.0634 1.562
46.0936 1.979
46.1239 2.031
46.1542 1.719
46.1845 2.031
46.2147 1.406
46.2450 1.562
46.2753 1.719
46.3056 1.406
46.3359 1.458
46.3661 1.875
46.3964 2.240
46.4267 1.615
46.4570 2.031
46.4873 2.552
46.5175 1.979
46.5478 2.083
46.5781 1.510
46.6084 2.240
46.6386 1.979
46.6689 2.344
46.6992 2.083
46.7295 2.448
46.7598 3.229
46.7900 2.552
46.8203 3.177
46.8506 2.292
46.8809 2.552
46.9112 3.021
46.9414 3.281
46.9717 3.333
47.0020 3.906
47.0323 4.427
47.0626 3.958
47.0928 4.479
47.1231 3.958
47.1534 4.531
47.1837 6.302
47.2139 5.781
47.2442 6.510
47.2745 7.448
47.3048 8.750
47.3351 7.083
47.3653 9.271
47.3956 9.062
47.4259 9.323
47.4562 8.854
47.4865 8.646
47.5167 9.531
47.5470 7.448
47.5773 7.135
47.6076 6.615
47.6378 5.417
47.6681 5.365
47.6984 5.469
47.7287 4.740
47.7590 4.531
47.7892 4.271
47.8195 4.115
47.8498 3.177
47.8801 1.979
47.9104 2.708
47.9406 2.396
47.9709 3.177
48.0012 2.448
48.0315 2.604
48.0617 2.344
48.0920 2.760
48.1223 2.031
48.1526 2.292
48.1829 1.562
48.2131 1.771
48.2434 1.771
48.2737 1.719
48.3040 1.979
48.3343 1.615
48.3645 1.771
48.3948 1.458
48.4251 1.719
48.4554 1.719
48.4856 1.198
48.5159 1.823
48.5462 2.344
48.5765 2.031
48.6068 1.146
48.6370 1.354
48.6673 1.302
48.6976 1.719
48.7279 1.875
48.7582 1.458
48.7884 1.667
48.8187 1.719
48.8490 1.667
48.8793 1.615
48.9095 1.615
48.9398 1.510
48.9701 1.667
49.0004 1.875
49.0307 1.562
49.0609 1.771
49.0912 1.771
49.1215 1.719
49.1518 1.094
49.1821 1.771
49.2123 1.198
49.2426 1.979
49.2729 1.198
49.3032 1.823
49.3334 1.302
49.3637 2.031
49.3940 2.240
49.4243 1.615
49.4546 1.354
49.4848 1.198
49.5151 1.615
49.5454 1.406
49.5757 1.615
49.6060 1.250
49.6362 1.250
49.6665 1.667
49.6968 1.771
49.7271 1.771
49.7574 1.302
49.7876 1.094
49.8179 1.510
49.8482 1.562
49.8785 1.615
49.9087 1.823
49.9390 1.302
49.9693 1.510
49.9996 0.885
50.0299 1.562
50.0601 1.615
50.0904 0.885
50.1207 1.406
50.1510 1.615
50.1813 1.250
50.2115 1.667
50.2418 1.302
50.2721 1.667
50.3024 1.042
50.3326 1.250
50.3629 1.042
50.3932 1.562
50.4235 1.354
50.4538 1.146
50.4840 1.875
50.5143 1.615
50.5446 1.042
50.5749 1.823
50.6052 1.510
50.6354 0.885
50.6657 1.562
50.6960 1.562
50.7263 1.042
50.7565 1.510
50.7868 0.937
50.8171 1.250
50.8474 1.354
50.8777 1.562
50.9079 1.198
50.9382 1.406
50.9685 1.250
50.9988 1.198
51.0291 1.198
51.0593 1.198
51.0896 1.302
51.1199 1.406
51.1502 1.250
51.1804 1.146
51.2107 1.302
51.2410 1.823
51.2713 1.250
51.3016 1.146
51.3318 1.510
51.3621 1.250
51.3924 1.146
51.4227 1.615
51.4530 1.146
51.4832 0.885
51.5135 1.302
51.5438 1.979
51.5741 1.458
51.6043 1.562
51.6346 1.458
51.6649 1.562
51.6952 1.458
51.7255 1.198
51.7557 1.458
51.7860 1.094
51.8163 0.833
51.8466 1.302
51.8769 0.885
51.9071 1.146
51.9374 1.667
51.9677 1.042
51.9980 1.146
52.0282 1.771
52.0585 1.562
52.0888 1.458
52.1191 1.458
52.1494 1.146
52.1796 1.667
52.2099 1.250
52.2402 1.354
52.2705 1.094
52.3008 1.458
52.3310 1.354
52.3613 1.042
52.3916 1.146
52.4219 0.937
52.4521 1.302
52.4824 1.302
52.5127 0.990
52.5430 0.990
52.5733 1.615
52.6035 1.250
52.6338 1.198
52.6641 1.510
52.6944 1.250
52.7247 1.927
52.7549 1.615
52.7852 1.875
52.8155 0.937
52.8458 1.771
52.8761 1.510
52.9063 1.302
52.9366 1.615
52.9669 1.562
52.9972 1.302
53.0274 1.667
53.0577 1.042
53.0880 1.094
53.1183 1.823
53.1486 1.458
53.1788 1.094
53.2091 1.146
53.2394 1.667
53.2697 1.302
53.3000 1.406
53.3302 1.510
53.3605 1.510
53.3908 1.146
53.4211 1.615
53.4513 1.979
53.4816 1.406
53.5119 1.094
53.5422 1.354
53.5725 1.562
53.6027 1.302
53.6330 1.354
53.6633 1.354
53.6936 1.198
53.7239 1.771
53.7541 1.302
53.7844 1.510
53.8147 1.354
53.8450 1.562
53.8752 1.250
53.9055 1.510
53.9358 1.250
53.9661 2.135
53.9964 1.823
54.0266 1.615
54.0569 1.458
54.0872 1.667
54.1175 1.510
54.1478 1.302
54.1780 1.250
54.2083 1.458
54.2386 1.719
54.2689 1.094
54.2991 1.458
54.3294 1.458
54.3597 1.406
54.3900 1.719
54.4203 1.458
54.4505 1.302
54.4808 1.562
54.5111 1.719
54.5414 1.406
54.5717 1.719
54.6019 1.562
54.6322 1.719
54.6625 1.250
54.6928 1.562
54.7230 1.979
54.7533 1.562
54.7836 1.562
54.8139 1.094
54.8442 1.562
54.8744 1.615
54.9047 1.615
54.9350 1.927
54.9653 1.771
54.9956 1.719
55.0258 1.510
55.0561 1.615
55.0864 2.135
55.1167 1.875
55.1469 1.615
55.1772 1.667
55.2075 1.823
55.2378 2.187
55.2681 1.875
55.2983 1.823
55.3286 1.510
55.3589 2.083
55.3892 1.875
55.4195 1.875
55.4497 2.135
55.4800 2.187
55.5103 2.500
55.5406 2.187
55.5709 2.240
55.6011 2.240
55.6314 2.604
55.6617 2.396
55.6920 2.135
55.7222 2.604
55.7525 2.552
55.7828 2.083
55.8131 3.073
55.8434 2.865
55.8736 3.646
55.9039 3.073
55.9342 2.917
55.9645 4.062
55.9948 3.802
56.0250 3.854
56.0553 4.167
56.0856 4.687
56.1159 5.573
56.1461 5.573
56.1764 6.198
56.2067 7.031
56.2370 6.615
56.2673 7.031
56.2975 7.969
56.3278 9.010
56.3581 9.948
56.3884 11.094
56.4187 10.521
56.4489 9.740
56.4792 12.031
56.5095 11.927
56.5398 9.687
56.5700 10.052
56.6003 9.531
56.6306 8.958
56.6609 7.292
56.6912 7.292
56.7214 5.781
56.7517 6.302
56.7820 5.365
56.8123 4.792
56.8426 5.260
56.8728 4.219
56.9031 4.167
56.9334 3.958
56.9637 3.958
56.9939 3.854
57.0242 2.865
57.0545 2.865
57.0848 2.865
57.1151 2.656
57.1453 2.865
57.1756 3.229
57.2059 2.604
57.2362 2.187
57.2665 2.552
57.2967 2.500
57.3270 1.875
57.3573 2.031
57.3876 2.396
57.4178 2.083
57.4481 1.667
57.4784 1.823
57.5087 1.719
57.5390 1.354
57.5692 1.979
57.5995 1.615
57.6298 1.719
57.6601 1.562
57.6904 1.406
57.7206 1.146
57.7509 2.135
57.7812 1.979
57.8115 1.615
57.8417 1.615
57.8720 1.198
57.9023 2.187
57.9326 1.667
57.9629 1.771
57.9931 1.510
58.0234 1.979
58.0537 1.771
58.0840 1.302
58.1143 1.094
58.1445 1.562
58.1748 1.562
58.2051 1.406
58.2354 1.719
58.2656 1.458
58.2959 1.094
58.3262 1.458
58.3565 1.615
58.3868 1.198
58.4170 1.302
58.4473 1.146
58.4776 1.042
58.5079 1.615
58.5382 0.937
58.5684 1.458
58.5987 1.302
58.6290 1.198
58.6593 1.562
58.6896 1.354
58.7198 1.458
58.7501 1.354
58.7804 1.510
58.8107 0.729
58.8409 1.615
58.8712 1.146
58.9015 1.562
58.9318 1.198
58.9621 0.885
58.9923 1.406
59.0226 1.302
59.0529 1.094
59.0832 0.937
59.1135 1.510
59.1437 0.990
59.1740 1.510
59.2043 1.198
59.2346 1.302
59.2648 1.562
59.2951 0.937
59.3254 2.083
59.3557 1.510
59.3860 1.146
59.4162 1.354
59.4465 1.042
59.4768 1.146
59.5071 1.302
59.5374 1.302
59.5676 1.354
59.5979 1.458
59.6282 1.354
59.6585 1.250
59.6887 1.615
59.7190 1.458
59.7493 1.042
59.7796 0.885
59.8099 1.406
59.8401 1.198
59.8704 1.406
59.9007 1.667
59.9310 1.042
59.9613 1.198
59.9915 1.510
60.0218 1.250
60.0521 1.406
60.0824 0.937
60.1126 1.198
60.1429 1.094
60.1732 1.875
60.2035 1.458
60.2338 1.510
60.2640 1.823
60.2943 1.458
60.3246 1.458
60.3549 1.250
60.3852 1.406
60.4154 1.406
60.4457 1.094
60.4760 1.927
60.5063 0.937
60.5365 1.667
60.5668 1.354
60.5971 1.250
60.6274 1.094
60.6577 1.354
60.6879 1.510
60.7182 1.198
60.7485 1.667
60.7788 0.937
60.8091 1.510
60.8393 1.615
60.8696 0.625
60.8999 1.823
60.9302 1.667
60.9604 1.510
60.9907 1.354
61.0210 1.250
61.0513 1.302
61.0816 1.406
61.1118 1.458
61.1421 1.823
61.1724 1.771
61.2027 1.250
61.2330 1.510
61.2632 1.354
61.2935 1.510
61.3238 2.083
61.3541 1.927
61.3844 0.990
61.4146 1.302
61.4449 1.562
61.4752 1.719
61.5055 1.458
61.5357 0.990
61.5660 1.406
61.5963 2.448
61.6266 1.354
61.6569 1.875
61.6871 1.354
61.7174 1.875
61.7477 1.875
61.7780 1.875
61.8083 1.771
61.8385 2.083
61.8688 1.667
61.8991 1.771
61.9294 2.083
61.9596 1.562
61.9899 1.719
62.0202 2.500
62.0505 2.031
62.0808 2.604
62.1110 3.490
62.1413 2.448
62.1716 2.292
62.2019 3.490
62.2322 3.646
62.2624 3.698
62.2927 3.125
62.3230 3.229
62.3533 4.062
62.3835 4.062
62.4138 4.740
62.4441 5.417
62.4744 4.844
62.5047 6.094
62.5349 6.146
62.5652 7.083
62.5955 7.292
62.6258 8.906
62.6561 8.958
62.6863 8.177
62.7166 9.010
62.7469 8.073
62.7772 9.219
62.8074 9.323
62.8377 8.437
62.8680 7.708
62.8983 8.229
62.9286 6.198
62.9588 6.146
62.9891 6.510
63.0194 5.885
63.0497 4.896
63.0800 4.167
63.1102 4.531
63.1405 3.281
63.1708 3.073
63.2011 4.115
63.2313 3.542
63.2616 2.552
63.2919 2.552
63.3222 2.865
63.3525 2.604
63.3827 1.979
63.4130 1.771
63.4433 3.073
63.4736 1.719
63.5039 2.448
63.5341 1.562
63.5644 2.865
63.5947 1.719
63.6250 2.083
63.6552 2.240
63.6855 1.406
63.7158 1.458
63.7461 1.667
63.7764 1.979
63.8066 1.927
63.8369 1.875
63.8672 1.146
63.8975 1.615
63.9278 1.510
63.9580 1.875
63.9883 0.937
64.0186 1.510
64.0489 1.719
64.0791 1.250
64.1094 1.146
64.1397 1.198
64.1700 1.875
64.2003 1.406
64.2305 1.302
64.2608 1.250
64.2911 1.198
64.3214 1.250
64.3517 1.406
64.3819 1.146
64.4122 1.146
64.4425 1.406
64.4728 1.042
64.5031 1.927
64.5333 1.510
64.5636 1.719
64.5939 0.885
64.6242 1.094
64.6544 1.615
64.6847 1.198
64.7150 1.354
64.7453 1.615
64.7756 1.094
64.8058 1.302
64.8361 1.562
64.8664 1.823
64.8967 1.458
64.9270 1.458
64.9572 1.302
64.9875 1.146
65.0178 0.937
65.0481 1.406
65.0783 1.406
65.1086 1.146
65.1389 1.458
65.1692 1.510
65.1995 1.354
65.2297 1.615
65.2600 1.302
65.2903 1.198
65.3206 1.094
65.3509 1.771
65.3811 1.771
65.4114 1.562
65.4417 1.510
65.4720 1.510
65.5022 1.406
65.5325 1.354
65.5628 0.990
65.5931 1.406
65.6234 1.823
65.6536 1.771
65.6839 1.719
65.7142 2.031
65.7445 1.823
65.7748 1.094
65.8050 2.135
65.8353 1.823
65.8656 1.875
65.8959 2.448
65.9261 1.979
65.9564 2.292
65.9867 1.979
66.0170 2.344
66.0473 2.344
66.0775 2.135
66.1078 2.656
66.1381 1.875
66.1684 2.083
66.1987 1.979
66.2289 2.187
66.2592 2.552
66.2895 2.448
66.3198 2.344
66.3500 2.396
66.3803 2.396
66.4106 2.187
66.4409 2.344
66.4712 1.875
66.5014 1.823
66.5317 1.927
66.5620 2.396
66.5923 2.187
66.6226 1.406
66.6528 2.187
66.6831 1.927
66.7134 1.406
66.7437 1.979
66.7739 2.031
66.8042 1.719
66.8345 1.354
66.8648 1.510
66.8951 2.187
66.9253 1.875
66.9556 1.979
66.9859 1.979
67.0162 1.667
67.0465 1.927
67.0767 2.135
67.1070 2.448
67.1373 2.240
67.1676 1.667
67.1978 2.500
67.2281 2.917
67.2584 2.292
67.2887 3.073
67.3190 3.177
67.3492 2.604
67.3795 3.542
67.4098 3.021
67.4401 3.177
67.4704 3.958
67.5006 4.531
67.5309 4.687
67.5612 4.479
67.5915 5.104
67.6218 5.417
67.6520 5.104
67.6823 7.344
67.7126 5.521
67.7429 6.146
67.7731 6.615
67.8034 7.708
67.8337 7.083
67.8640 6.406
67.8943 6.094
67.9245 7.344
67.9548 6.562
67.9851 6.146
68.0154 5.365
68.0457 5.781
68.0759 5.312
68.1062 4.271
68.1365 5.260
68.1668 3.906
68.1970 4.427
68.2273 4.583
68.2576 3.073
68.2879 3.437
68.3182 2.865
68.3484 2.708
68.3787 4.010
68.4090 2.448
68.4393 3.073
68.4696 3.177
68.4998 2.812
68.5301 3.125
68.5604 2.865
68.5907 3.229
68.6209 2.812
68.6512 3.229
68.6815 3.177
68.7118 3.750
68.7421 2.865
68.7723 2.917
68.8026 3.906
68.8329 3.594
68.8632 3.854
68.8935 3.021
68.9237 3.229
68.9540 3.594
68.9843 2.552
69.0146 3.594
69.0448 3.490
69.0751 3.281
69.1054 3.854
69.1357 3.281
69.1660 3.490
69.1962 2.917
69.2265 3.594
69.2568 2.344
69.2871 2.500
69.3174 2.292
69.3476 2.344
69.3779 2.656
69.4082 2.135
69.4385 2.292
69.4687 1.979
69.4990 2.187
69.5293 2.135
69.5596 2.083
69.5899 1.615
69.6201 1.146
69.6504 1.719
69.6807 1.354
69.7110 1.875
69.7413 1.667
69.7715 1.562
69.8018 1.458
69.8321 1.510
69.8624 1.250
69.8926 1.302
69.9229 1.042
69.9532 1.719
69.9835 0.677
70.0138 1.302
70.0440 1.510
70.0743 1.146
70.1046 1.979
70.1349 1.458
70.1652 1.094
70.1954 1.250
70.2257 1.458
70.2560 1.302
70.2863 1.250
70.3166 1.146
70.3468 0.833
70.3771 1.250
70.4074 1.406
70.4377 1.302
70.4679 1.094
70.4982 0.833
70.5285 1.302
70.5588 1.719
70.5891 0.990
70.6193 1.354
70.6496 0.781
70.6799 1.146
70.7102 1.250
70.7405 0.833
70.7707 1.094
70.8010 1.406
70.8313 1.094
70.8616 0.885
70.8918 0.990
70.9221 1.146
70.9524 0.781
70.9827 0.885
71.0130 1.042
71.0432 1.094
71.0735 1.458
71.1038 1.302
71.1341 1.354
71.1644 1.146
71.1946 1.198
71.2249 0.677
71.2552 0.937
71.2855 1.094
71.3157 0.521
71.3460 0.990
71.3763 1.250
71.4066 0.781
71.4369 1.250
71.4671 1.302
71.4974 1.094
71.5277 1.042
71.5580 1.042
71.5883 0.937
71.6185 1.250
71.6488 0.781
71.6791 0.990
71.7094 1.146
71.7396 0.833
71.7699 1.146
71.8002 0.781
71.8305 1.198
71.8608 0.729
71.8910 0.885
71.9213 1.094
71.9516 1.042
71.9819 0.937
72.0122 1.406
72.0424 0.937
72.0727 1.198
72.1030 1.250
72.1333 1.146
72.1635 1.198
72.1938 1.406
72.2241 1.562
72.2544 1.198
72.2847 1.302
72.3149 1.042
72.3452 1.510
72.3755 1.302
72.4058 1.615
72.4361 1.302
72.4663 1.667
72.4966 1.250
72.5269 1.771
72.5572 1.562
72.5874 1.458
72.6177 1.458
72.6480 1.198
72.6783 0.729
72.7086 1.146
72.7388 1.615
72.7691 1.250
72.7994 1.146
72.8297 0.885
72.8600 1.198
72.8902 1.094
72.9205 0.833
72.9508 0.937
72.9811 0.937
73.0113 0.729
73.0416 1.250
73.0719 0.885
73.1022 1.094
73.1325 0.990
73.1627 0.625
73.1930 0.937
73.2233 0.937
73.2536 0.937
73.2839 0.573
73.3141 1.042
73.3444 0.833
73.3747 0.990
73.4050 1.250
73.4353 1.250
73.4655 0.833
73.4958 1.250
73.5261 0.729
73.5564 0.990
73.5866 0.469
73.6169 0.677
73.6472 0.885
73.6775 0.885
73.7078 0.990
73.7380 0.625
73.7683 0.937
73.7986 1.094
73.8289 1.042
73.8592 0.729
73.8894 0.885
73.9197 0.833
73.9500 0.677
73.9803 0.625
74.0105 1.250
74.0408 1.458
74.0711 0.937
74.1014 0.990
74.1317 0.885
74.1619 0.781
74.1922 0.781
74.2225 0.833
74.2528 0.885
74.2831 0.781
74.3133 0.990
74.3436 0.781
74.3739 0.937
74.4042 0.937
74.4344 0.469
74.4647 1.198
74.4950 1.302
74.5253 0.677
74.5556 0.885
74.5858 0.885
74.6161 0.833
74.6464 1.302
74.6767 0.573
74.7070 0.990
74.7372 1.250
74.7675 0.937
74.7978 1.094
74.8281 0.885
74.8583 1.094
74.8886 0.781
74.9189 0.885
74.9492 1.146
74.9795 1.094
75.0097 1.146
75.0400 0.781
75.0703 1.198
75.1006 1.042
75.1309 0.990
75.1611 0.937
75.1914 0.781
75.2217 1.406
75.2520 0.833
75.2822 0.781
75.3125 0.729
75.3428 1.094
75.3731 0.990
75.4034 0.885
75.4336 0.937
75.4639 1.198
75.4942 0.677
75.5245 0.833
75.5548 0.885
75.5850 0.990
75.6153 0.729
75.6456 0.990
75.6759 1.094
75.7061 0.885
75.7364 1.094
75.7667 0.729
75.7970 0.677
75.8273 0.885
75.8575 1.094
75.8878 0.937
75.9181 0.729
75.9484 0.885
75.9787 0.833
76.0089 0.625
76.0392 0.729
76.0695 1.094
76.0998 0.781
76.1301 0.833
76.1603 1.042
76.1906 0.625
76.2209 0.781
76.2512 0.937
76.2814 0.990
76.3117 1.042
76.3420 0.729
76.3723 0.729
76.4026 1.042
76.4328 1.042
76.4631 1.094
76.4934 1.302
76.5237 1.198
76.5540 1.667
76.5842 1.094
76.6145 1.302
76.6448 1.562
76.6751 1.510
76.7053 1.198
76.7356 1.406
76.7659 0.885
76.7962 1.667
76.8265 1.354
76.8567 1.667
76.8870 1.406
76.9173 1.615
76.9476 1.250
76.9779 1.146
77.0081 2.031
77.0384 1.302
77.0687 1.510
77.0990 1.667
77.1292 1.406
77.1595 1.198
77.1898 1.823
77.2201 0.885
77.2504 1.042
77.2806 1.042
77.3109 0.781
77.3412 1.198
77.3715 0.990
77.4018 0.833
77.4320 1.094
77.4623 0.573
77.4926 0.990
77.5229 0.937
77.5531 0.990
77.5834 1.250
77.6137 1.198
77.6440 1.250
77.6743 1.042
77.7045 0.677
77.7348 0.729
77.7651 0.937
77.7954 1.094
77.8257 0.833
77.8559 0.625
77.8862 0.885
77.9165 1.510
77.9468 0.937
77.9770 0.729
78.0073 0.312
78.0376 0.937
78.0679 1.094
78.0982 1.198
78.1284 0.573
78.1587 0.469
78.1890 0.729
78.2193 0.677
78.2496 0.937
78.2798 0.729
78.3101 0.781
78.3404 0.729
78.3707 0.729
78.4009 0.781
78.4312 0.729
78.4615 1.302
78.4918 1.250
78.5221 1.042
78.5523 0.990
78.5826 0.729
78.6129 0.625
78.6432 0.781
78.6735 1.198
78.7037 0.729
78.7340 0.469
78.7643 0.729
78.7946 0.990
78.8248 0.573
78.8551 0.781
78.8854 0.729
78.9157 1.198
78.9460 1.146
78.9762 0.677
79.0065 0.833
79.0368 0.781
79.0671 1.198
79.0974 0.625
79.1276 0.990
79.1579 0.729
79.1882 0.729
79.2185 0.885
79.2488 0.729
79.2790 0.625
79.3093 0.781
79.3396 1.198
79.3699 0.781
79.4001 1.198
79.4304 0.781
79.4607 1.094
79.4910 0.885
79.5213 1.042
79.5515 1.146
79.5818 1.146
79.6121 0.833
79.6424 0.833
79.6727 0.937
79.7029 0.833
79.7332 0.990
79.7635 0.885
79.7938 1.094
79.8240 0.937
79.8543 0.729
79.8846 0.677
79.9149 0.781
79.9452 0.833
79.9754 0.885
80.0057 1.354
80.0360 0.781
80.0663 0.937
80.0966 0.990
80.1268 0.729
80.1571 0.729
80.1874 1.198
80.2177 0.833
80.2479 0.573
80.2782 1.458
80.3085 0.833
80.3388 0.729
80.3691 1.198
80.3993 0.990
80.4296 0.937
80.4599 0.937
80.4902 0.781
80.5205 1.146
80.5507 1.146
80.5810 0.677
80.6113 0.885
80.6416 1.042
80.6718 0.833
80.7021 0.781
80.7324 1.250
80.7627 1.146
80.7930 0.781
80.8232 1.042
80.8535 0.573
80.8838 1.094
80.9141 0.729
80.9444 1.094
80.9746 1.146
81.0049 0.885
81.0352 1.094
81.0655 1.250
81.0957 1.823
81.1260 1.042
81.1563 1.927
81.1866 1.042
81.2169 1.250
81.2471 1.198
81.2774 1.250
81.3077 1.667
81.3380 1.250
81.3683 1.094
81.3985 1.667
81.4288 0.833
81.4591 1.354
81.4894 0.990
81.5196 0.729
81.5499 0.990
81.5802 1.250
81.6105 1.250
81.6408 0.833
81.6710 0.937
81.7013 0.990
81.7316 1.406
81.7619 0.937
81.7922 1.042
81.8224 1.198
81.8527 0.729
81.8830 0.677
81.9133 0.833
81.9436 0.521
81.9738 0.885
82.0041 0.625
82.0344 1.198
82.0647 0.729
82.0949 1.146
82.1252 1.562
82.1555 0.937
82.1858 0.781
82.2161 0.885
82.2463 1.198
82.2766 0.833
82.3069 0.677
82.3372 1.042
82.3675 0.990
82.3977 0.625
82.4280 0.937
82.4583 0.573
82.4886 0.781
82.5188 0.937
82.5491 0.417
82.5794 0.885
82.6097 0.833
82.6400 0.677
82.6702 0.833
82.7005 0.885
82.7308 0.729
82.7611 1.198
82.7914 1.198
82.8216 0.781
82.8519 0.937
82.8822 1.042
82.9125 0.625
82.9427 1.094
82.9730 0.729
83.0033 0.833
83.0336 0.625
83.0639 0.937
83.0941 0.937
83.1244 0.885
83.1547 0.990
83.1850 1.146
83.2153 0.677
83.2455 0.885
83.2758 0.990
83.3061 0.677
83.3364 1.198
83.3666 0.677
83.3969 0.417
83.4272 0.781
83.4575 0.990
83.4878 0.573
83.5180 0.990
83.5483 0.833
83.5786 0.729
83.6089 0.729
83.6392 0.729
83.6694 0.990
83.6997 0.729
83.7300 0.729
83.7603 0.729
83.7905 0.729
83.8208 0.990
83.8511 0.312
83.8814 0.417
83.9117 0.625
83.9419 0.990
83.9722 0.417
84.0025 0.937
84.0328 0.833
84.0631 0.729
84.0933 0.937
84.1236 0.781
84.1539 0.677
84.1842 0.781
84.2144 0.990
84.2447 0.729
84.2750 0.677
84.3053 0.677
84.3356 1.042
84.3658 0.885
84.3961 0.729
84.4264 1.250
84.4567 0.990
84.4870 0.990
84.5172 1.042
84.5475 0.729
84.5778 0.781
84.6081 0.833
84.6383 0.833
84.6686 0.990
84.6989 1.042
84.7292 0.729
84.7595 0.521
84.7897 1.094
84.8200 0.677
84.8503 0.937
84.8806 1.198
84.9109 0.625
84.9411 0.729
84.9714 0.417
85.0017 1.094
85.0320 0.625
85.0623 0.990
85.0925 0.781
85.1228 0.937
85.1531 0.937
85.1834 0.729
85.2136 1.094
85.2439 1.094
85.2742 0.417
85.3045 0.833
85.3348 0.573
85.3650 0.729
85.3953 0.990
85.4256 1.094
85.4559 0.833
85.4862 1.302
85.5164 0.833
85.5467 1.042
85.5770 0.781
85.6073 1.094
85.6375 0.937
85.6678 1.042
85.6981 0.885
85.7284 0.729
85.7587 0.937
85.7889 0.885
85.8192 0.937
85.8495 0.625
85.8798 0.833
85.9101 0.729
85.9403 0.729
85.9706 0.833
86.0009 0.573
86.0312 0.833
86.0614 0.729
86.0917 1.094
86.1220 0.833
86.1523 0.833
86.1826 0.833
86.2128 0.729
86.2431 0.469
86.2734 0.937
86.3037 0.781
86.3340 0.885
86.3642 1.406
86.3945 0.677
86.4248 0.677
86.4551 0.937
86.4853 0.990
86.5156 0.625
86.5459 0.677
86.5762 0.469
86.6065 0.729
86.6367 0.937
86.6670 1.042
86.6973 0.885
86.7276 1.094
86.7579 0.833
86.7881 0.625
86.8184 0.990
86.8487 0.885
86.8790 1.042
86.9092 1.042
86.9395 0.781
86.9698 0.469
87.0001 0.781
87.0304 1.198
87.0606 0.573
87.0909 1.042
87.1212 1.146
87.1515 0.781
87.1818 0.781
87.2120 0.260
87.2423 1.146
87.2726 0.781
87.3029 0.625
87.3331 0.573
87.3634 1.250
87.3937 0.885
87.4240 1.198
87.4543 0.990
87.4845 0.937
87.5148 0.469
87.5451 0.990
87.5754 1.042
87.6057 0.833
87.6359 0.677
87.6662 0.625
87.6965 0.937
87.7268 0.990
87.7571 0.937
87.7873 0.729
87.8176 1.198
87.8479 0.677
87.8782 0.937
87.9084 0.729
87.9387 0.729
87.9690 1.198
87.9993 0.990
88.0296 0.990
88.0598 0.417
88.0901 0.990
88.1204 0.937
88.1507 0.521
88.1810 1.094
88.2112 1.146
88.2415 0.937
88.2718 1.198
88.3021 0.729
88.3323 0.990
88.3626 0.937
88.3929 0.937
88.4232 1.146
88.4535 0.990
88.4837 0.677
88.5140 0.573
88.5443 1.198
88.5746 0.990
88.6049 1.198
88.6351 0.885
88.6654 1.198
88.6957 0.937
88.7260 0.573
88.7562 1.198
88.7865 1.042
88.8168 1.250
88.8471 1.042
88.8774 1.198
88.9076 1.719
88.9379 0.781
88.9682 1.094
88.9985 1.458
89.0288 1.250
89.0590 1.302
89.0893 1.458
89.1196 1.198
89.1499 1.458
89.1801 1.302
89.2104 1.875
89.2407 1.302
89.2710 2.083
89.3013 1.667
89.3315 1.823
89.3618 1.667
89.3921 2.135
89.4224 1.823
89.4527 1.615
89.4829 1.458
89.5132 2.187
89.5435 2.083
89.5738 1.927
89.6040 2.448
89.6343 2.135
89.6646 1.615
89.6949 1.354
89.7252 1.823
89.7554 2.083
89.7857 1.510
89.8160 1.719
89.8463 1.302
89.8766 1.719
89.9068 1.458
89.9371 1.771
89.9674 1.875
89.9977 1.458
90.0279 0.937
90.0582 1.354
90.0885 1.198
90.1188 1.198
90.1491 0.729
90.1793 1.719
90.2096 1.510
90.2399 1.198
90.2702 1.354
90.3005 1.198
90.3307 1.458
90.3610 1.198
90.3913 1.198
90.4216 1.250
90.4518 0.833
90.4821 1.250
90.5124 0.937
90.5427 1.198
90.5730 0.885
90.6032 0.781
90.6335 0.729
90.6638 0.990
90.6941 0.990
90.7244 1.198
90.7546 0.781
90.7849 1.094
90.8152 0.885
90.8455 0.729
90.8758 1.094
90.9060 1.302
90.9363 0.990
90.9666 1.250
90.9969 1.198
91.0271 0.937
91.0574 0.833
91.0877 0.937
91.1180 1.042
91.1483 1.094
91.1785 0.729
91.2088 0.990
91.2391 0.937
91.2694 0.833
91.2997 1.198
91.3299 0.990
91.3602 0.729
91.3905 0.781
91.4208 1.042
91.4510 1.302
91.4813 1.042
91.5116 0.885
91.5419 0.885
91.5722 1.458
91.6024 1.198
91.6327 1.198
91.6630 0.781
91.6933 1.250
91.7236 0.885
91.7538 1.146
91.7841 1.146
91.8144 0.677
91.8447 0.729
91.8749 0.573
91.9052 0.885
91.9355 0.937
91.9658 0.885
91.9961 0.937
92.0263 1.094
92.0566 0.937
92.0869 1.094
92.1172 1.146
92.1475 0.469
92.1777 1.302
92.2080 0.729
92.2383 0.729
92.2686 0.885
92.2988 0.990
92.3291 1.094
92.3594 1.094
92.3897 0.885
92.4200 1.042
92.4502 1.302
92.4805 1.198
92.5108 1.094
92.5411 0.937
92.5714 1.094
92.6016 1.510
92.6319 0.990
92.6622 0.729
92.6925 1.510
92.7227 1.042
92.7530 1.458
92.7833 1.094
92.8136 1.094
92.8439 1.667
92.8741 1.042
92.9044 1.510
92.9347 1.250
92.9650 1.146
92.9953 0.833
93.0255 1.094
93.0558 0.885
93.0861 1.562
93.1164 0.937
93.1466 1.094
93.1769 0.885
93.2072 1.198
93.2375 0.990
93.2678 0.885
93.2980 1.146
93.3283 0.937
93.3586 1.094
93.3889 1.302
93.4192 1.146
93.4494 0.990
93.4797 0.937
93.5100 1.042
93.5403 1.042
93.5706 0.781
93.6008 0.833
93.6311 1.354
93.6614 0.781
93.6917 0.573
93.7219 1.094
93.7522 0.990
93.7825 1.354
93.8128 0.885
93.8431 0.990
93.8733 1.198
93.9036 0.990
93.9339 1.354
93.9642 0.937
93.9945 1.198
94.0247 1.146
94.0550 0.937
94.0853 1.042
94.1156 1.042
94.1458 0.990
94.1761 0.781
94.2064 1.146
94.2367 1.094
94.2670 1.250
94.2972 1.042
94.3275 1.302
94.3578 1.302
94.3881 1.198
94.4184 1.250
94.4486 1.458
94.4789 1.146
94.5092 1.146
94.5395 1.406
94.5697 0.833
94.6000 1.146
94.6303 1.406
94.6606 1.562
94.6909 1.302
94.7211 1.250
94.7514 1.250
94.7817 1.406
94.8120 1.719
94.8423 1.562
94.8725 2.187
94.9028 2.187
94.9331 1.667
94.9634 1.667
94.9936 2.240
95.0239 1.979
95.0542 2.240
95.0845 1.927
95.1148 1.927
95.1450 1.615
95.1753 2.135
95.2056 1.562
95.2359 1.719
95.2662 1.875
95.2964 1.719
95.3267 1.458
95.3570 2.135
95.3873 2.083
95.4175 1.875
95.4478 1.823
95.4781 1.927
95.5084 1.406
95.5387 1.562
95.5689 1.510
95.5992 1.562
95.6295 1.771
95.6598 1.406
95.6901 1.719
95.7203 1.823
95.7506 1.250
95.7809 1.250
95.8112 1.302
95.8414 1.719
95.8717 1.250
95.9020 0.990
95.9323 0.937
95.9626 1.719
95.9928 1.198
96.0231 0.885
96.0534 1.042
96.0837 1.354
96.1140 0.729
96.1442 0.781
96.1745 0.781
96.2048 1.094
96.2351 1.406
96.2653 1.406
96.2956 0.990
96.3259 0.885
96.3562 0.885
96.3865 0.937
96.4167 1.250
96.4470 1.094
96.4773 1.042
96.5076 0.885
96.5379 0.729
96.5681 1.094
96.5984 1.146
96.6287 1.250
96.6590 1.146
96.6893 0.833
96.7195 0.990
96.7498 0.781
96.7801 1.250
96.8104 0.990
96.8406 0.885
96.8709 1.146
96.9012 1.250
96.9315 0.677
96.9618 0.729
96.9920 1.094
97.0223 0.677
97.0526 1.406
97.0829 0.937
97.1132 1.198
97.1434 0.729
97.1737 1.094
97.2040 0.729
97.2343 0.885
97.2645 0.885
97.2948 0.625
97.3251 0.885
97.3554 1.198
97.3857 0.937
97.4159 1.042
97.4462 0.573
97.4765 1.562
97.5068 1.198
97.5371 1.615
97.5673 1.042
97.5976 1.146
97.6279 1.250
97.6582 0.885
97.6884 1.042
97.7187 1.198
97.7490 1.094
97.7793 0.937
97.8096 0.885
97.8398 1.042
97.8701 1.198
97.9004 1.094
97.9307 1.146
97.9610 1.146
97.9912 1.094
98.0215 1.354
98.0518 1.615
98.0821 0.990
98.1123 0.937
98.1426 1.354
98.1729 1.250
98.2032 1.458
98.2335 0.937
98.2637 1.146
98.2940 1.458
98.3243 1.823
98.3546 0.990
98.3849 1.198
98.4151 1.771
98.4454 1.615
98.4757 1.875
98.5060 1.302
98.5362 1.719
98.5665 1.510
98.5968 1.354
98.6271 1.875
98.6574 1.406
98.6876 2.292
98.7179 1.146
98.7482 1.615
98.7785 1.510
98.8088 1.302
98.8390 1.562
98.8693 1.510
98.8996 1.146
98.9299 1.250
98.9601 0.781
98.9904 1.510
99.0207 1.354
99.0510 1.094
99.0813 1.458
99.1115 1.094
99.1418 1.094
99.1721 0.990
99.2024 1.615
99.2327 0.937
99.2629 1.146
99.2932 1.198
99.3235 1.354
99.3538 1.302
99.3841 1.354
99.4143 0.781
99.4446 1.146
99.4749 0.937
99.5052 0.781
99.5354 1.250
99.5657 0.677
99.5960 0.521
99.6263 1.562
99.6566 0.937
99.6868 1.146
99.7171 1.094
99.7474 1.094
99.7777 1.042
99.8080 1.406
99.8382 1.094
99.8685 0.833
99.8988 0.729
99.9291 0.833
99.9593 0.990
99.9896 1.094
100.0199 1.302
100.0502 0.781
100.0805 1.146
100.1107 0.781
100.1410 1.458
100.1713 0.677
100.2016 0.833
100.2319 1.146
100.2621 0.677
100.2924 1.406
100.3227 1.094
100.3530 0.833
100.3832 0.781
100.4135 1.042
100.4438 0.573
100.4741 0.937
100.5044 0.990
100.5346 0.417
100.5649 1.042
100.5952 1.094
100.6255 1.458
100.6558 0.833
100.6860 0.937
100.7163 1.094
100.7466 0.677
100.7769 0.833
100.8071 0.781
100.8374 1.042
100.8677 1.250
100.8980 0.781
100.9283 1.042
100.9585 0.781
100.9888 1.094
101.0191 0.990
101.0494 0.937
101.0797 1.042
101.1099 1.250
101.1402 0.937
101.1705 0.521
101.2008 0.885
101.2310 1.146
101.2613 0.990
101.2916 0.573
101.3219 0.781
101.3522 0.990
101.3824 0.781
101.4127 1.354
101.4430 0.937
101.4733 0.521
101.5036 1.146
101.5338 1.146
101.5641 1.042
101.5944 1.354
101.6247 0.521
101.6549 1.042
101.6852 0.885
101.7155 1.250
101.7458 0.885
101.7761 0.729
101.8063 1.198
101.8366 1.354
101.8669 1.458
101.8972 0.833
101.9275 0.937
101.9577 1.250
101.9880 1.146
102.0183 1.198
102.0486 1.302
102.0788 1.354
102.1091 1.250
102.1394 1.302
102.1697 0.833
102.2000 1.094
102.2302 1.198
102.2605 0.990
102.2908 1.302
102.3211 1.510
102.3514 1.354
102.3816 1.250
102.4119 1.146
102.4422 1.302
102.4725 1.146
102.5028 1.042
102.5330 1.250
102.5633 0.833
102.5936 1.354
102.6239 1.354
102.6541 1.198
102.6844 1.510
102.7147 1.510
102.7450 1.771
102.7753 1.302
102.8055 0.885
102.8358 1.354
102.8661 1.562
102.8964 1.302
102.9267 1.250
102.9569 1.302
102.9872 1.354
103.0175 1.406
103.0478 1.510
103.0780 1.198
103.1083 1.354
103.1386 1.562
103.1689 0.990
103.1992 1.719
103.2294 1.667
103.2597 1.250
103.2900 1.042
103.3203 1.354
103.3506 1.615
103.3808 1.510
103.4111 1.250
103.4414 0.937
103.4717 1.562
103.5019 1.354
103.5322 0.990
103.5625 1.302
103.5928 1.719
103.6231 1.875
103.6533 1.562
103.6836 0.990
103.7139 1.458
103.7442 1.875
103.7745 2.187
103.8047 1.771
103.8350 1.406
103.8653 1.719
103.8956 2.083
103.9258 1.875
103.9561 1.615
103.9864 1.302
104.0167 1.406
104.0470 1.875
104.0772 1.562
104.1075 1.875
104.1378 1.875
104.1681 1.250
104.1984 1.510
104.2286 2.031
104.2589 1.250
104.2892 1.510
104.3195 1.875
104.3497 1.667
104.3800 1.146
104.4103 1.875
104.4406 1.562
104.4709 1.771
104.5011 1.615
104.5314 1.458
104.5617 1.875
104.5920 1.094
104.6223 1.302
104.6525 1.302
104.6828 1.094
104.7131 1.406
104.7434 1.458
104.7736 1.042
104.8039 0.677
104.8342 1.146
104.8645 1.198
104.8948 0.521
104.9250 1.198
104.9553 1.406
104.9856 1.354
105.0159 0.990
105.0462 0.990
105.0764 0.625
105.1067 1.458
105.1370 1.042
105.1673 0.833
105.1975 1.198
105.2278 0.833
105.2581 1.302
105.2884 1.094
105.3187 1.198
105.3489 0.990
105.3792 1.250
105.4095 1.250
105.4398 0.781
105.4701 0.937
105.5003 0.521
105.5306 1.094
105.5609 1.302
105.5912 0.833
105.6215 0.990
105.6517 1.354
105.6820 1.198
105.7123 0.885
105.7426 1.354
105.7728 1.146
105.8031 0.781
105.8334 1.198
105.8637 1.198
105.8940 0.885
105.9242 0.625
105.9545 0.885
105.9848 0.729
106.0151 0.990
106.0454 0.885
106.0756 1.198
106.1059 0.833
106.1362 1.146
106.1665 0.469
106.1967 1.094
106.2270 0.937
106.2573 0.885
106.2876 0.521
106.3179 0.990
106.3481 0.990
106.3784 0.469
106.4087 0.990
106.4390 1.042
106.4693 0.990
106.4995 0.781
106.5298 0.625
106.5601 0.573
106.5904 0.885
106.6206 1.198
106.6509 0.677
106.6812 1.562
106.7115 1.354
106.7418 1.146
106.7720 0.833
106.8023 1.094
106.8326 0.990
106.8629 1.042
106.8932 1.250
106.9234 0.990
106.9537 1.042
106.9840 1.302
107.0143 1.042
107.0445 0.937
107.0748 1.094
107.1051 0.833
107.1354 0.937
107.1657 0.990
107.1959 0.885
107.2262 1.146
107.2565 0.833
107.2868 1.406
107.3171 1.198
107.3473 1.458
107.3776 1.042
107.4079 0.885
107.4382 1.042
107.4684 1.042
107.4987 1.146
107.5290 1.250
107.5593 0.937
107.5896 0.885
107.6198 0.833
107.6501 1.354
107.6804 0.885
107.7107 1.146
107.7410 0.833
107.7712 0.990
107.8015 0.573
107.8318 0.937
107.8621 0.885
107.8923 0.885
107.9226 0.781
107.9529 0.990
107.9832 0.781
108.0135 1.250
108.0437 0.990
108.0740 1.094
108.1043 1.354
108.1346 0.885
108.1649 0.885
108.1951 0.885
108.2254 1.406
108.2557 0.885
108.2860 1.458
108.3163 0.833
108.3465 0.885
108.3768 0.990
108.4071 0.729
108.4374 0.833
108.4676 0.885
108.4979 0.729
108.5282 1.198
108.5585 0.781
108.5888 0.937
108.6190 0.990
108.6493 0.990
108.6796 1.094
108.7099 0.365
108.7402 0.937
108.7704 0.781
108.8007 0.937
108.8310 0.833
108.8613 0.990
108.8915 0.729
108.9218 0.729
108.9521 1.094
108.9824 0.937
109.0127 1.458
109.0429 0.885
109.0732 0.937
109.1035 0.990
109.1338 1.354
109.1641 0.885
109.1943 0.990
109.2246 1.250
109.2549 1.302
109.2852 0.677
109.3154 1.042
109.3457 1.250
109.3760 1.146
109.4063 0.885
109.4366 1.198
109.4668 0.885
109.4971 0.937
109.5274 1.146
109.5577 0.937
109.5880 1.302
109.6182 0.677
109.6485 1.146
109.6788 1.458
109.7091 1.406
109.7393 1.667
109.7696 1.146
109.7999 1.198
109.8302 1.510
109.8605 0.937
109.8907 1.458
109.9210 1.354
109.9513 1.406
109.9816 1.042
110.0119 1.042
110.0421 1.198
110.0724 1.667
110.1027 1.458
110.1330 0.625
110.1632 1.302
110.1935 0.885
110.2238 1.458
110.2541 1.302
110.2844 1.250
110.3146 0.937
110.3449 0.937
110.3752 0.885
110.4055 1.510
110.4358 1.354
110.4660 0.990
110.4963 1.406
110.5266 1.458
110.5569 0.937
110.5871 1.615
110.6174 1.615
110.6477 1.094
110.6780 0.885
110.7083 0.990
110.7385 1.667
110.7688 1.406
110.7991 1.042
110.8294 0.990
110.8597 1.302
110.8899 1.250
110.9202 0.990
110.9505 1.250
110.9808 0.885
111.0110 0.990
111.0413 0.833
111.0716 1.406
111.1019 1.146
111.1322 0.990
111.1624 0.937
111.1927 0.990
111.2230 1.198
111.2533 0.990
111.2836 0.990
111.3138 0.885
111.3441 0.885
111.3744 0.885
111.4047 1.094
111.4350 0.990
111.4652 0.990
111.4955 1.146
111.5258 0.625
111.5561 0.990
111.5863 0.677
111.6166 1.042
111.6469 1.094
111.6772 0.781
111.7075 0.885
111.7377 1.198
111.7680 0.677
111.7983 1.146
111.8286 1.354
111.8589 1.198
111.8891 0.937
111.9194 0.781
111.9497 1.094
111.9800 1.250
112.0102 0.833
112.0405 0.677
112.0708 1.250
112.1011 1.042
112.1314 0.885
112.1616 0.885
112.1919 0.729
112.2222 1.198
112.2525 1.094
112.2828 0.937
112.3130 0.990
112.3433 0.781
112.3736 0.833
112.4039 0.990
112.4341 1.458
112.4644 0.885
112.4947 0.729
112.5250 1.250
112.5553 0.833
112.5855 0.833
112.6158 0.781
112.6461 1.146
112.6764 1.042
112.7067 1.042
112.7369 0.885
112.7672 1.146
112.7975 1.198
112.8278 0.833
112.8580 0.729
112.8883 0.833
112.9186 1.042
112.9489 0.937
112.9792 0.990
113.0094 0.729
113.0397 0.833
113.0700 0.781
113.1003 0.990
113.1306 0.833
113.1608 0.677
113.1911 1.094
113.2214 0.521
113.2517 0.990
113.2819 0.990
113.3122 1.094
113.3425 0.990
113.3728 1.146
113.4031 1.094
113.4333 0.521
113.4636 1.042
113.4939 0.990
113.5242 0.781
113.5545 0.781
113.5847 1.094
113.6150 0.781
113.6453 1.042
113.6756 1.094
113.7058 1.146
113.7361 0.781
113.7664 0.937
113.7967 1.146
113.8270 0.990
113.8572 0.885
113.8875 0.781
113.9178 1.042
113.9481 0.990
113.9784 0.677
114.0086 1.146
114.0389 0.781
114.0692 1.094
114.0995 0.833
114.1298 1.094
114.1600 0.781
114.1903 1.042
114.2206 1.302
114.2509 0.781
114.2811 1.042
114.3114 0.729
114.3417 1.042
114.3720 1.615
114.4023 0.781
114.4325 0.990
114.4628 1.094
114.4931 0.729
114.5234 1.094
114.5537 0.885
114.5839 1.562
114.6142 1.042
114.6445 1.094
114.6748 0.781
114.7050 0.885
114.7353 1.042
114.7656 0.885
114.7959 0.885
114.8262 1.146
114.8564 0.781
114.8867 1.250
114.9170 0.833
114.9473 1.302
114.9776 1.146
115.0078 0.937
115.0381 1.042
115.0684 1.094
115.0987 0.937
115.1289 0.937
115.1592 0.937
115.1895 0.990
115.2198 1.458
115.2501 1.458
115.2803 1.042
115.3106 0.885
115.3409 1.198
115.3712 1.198
115.4015 1.146
115.4317 1.458
115.4620 1.615
115.4923 1.198
115.5226 1.302
115.5528 1.146
115.5831 1.354
115.6134 1.458
115.6437 1.042
115.6740 1.458
115.7042 1.302
115.7345 0.729
115.7648 1.979
115.7951 1.094
115.8254 1.198
115.8556 1.927
115.8859 1.510
115.9162 1.979
115.9465 1.146
115.9767 1.823
116.0070 1.771
116.0373 1.719
116.0676 1.719
116.0979 1.771
116.1281 1.875
116.1584 1.771
116.1887 1.667
116.2190 1.927
116.2493 2.396
116.2795 1.562
116.3098 1.823
116.3401 1.875
116.3704 1.719
116.4006 1.927
116.4309 1.719
116.4612 1.667
116.4915 1.354
116.5218 1.719
116.5520 1.875
116.5823 1.302
116.6126 1.771
116.6429 1.302
116.6732 1.510
116.7034 1.667
116.7337 2.292
116.7640 1.146
116.7943 1.510
116.8245 1.510
116.8548 1.510
116.8851 1.042
116.9154 1.458
116.9457 1.406
116.9759 1.198
117.0062 1.510
117.0365 1.458
117.0668 1.719
117.0971 1.562
117.1273 1.406
117.1576 1.198
117.1879 1.562
117.2182 1.146
117.2485 0.625
117.2787 1.510
117.3090 1.094
117.3393 1.250
117.3696 0.781
117.3998 1.146
117.4301 1.198
117.4604 1.354
117.4907 1.354
117.5210 0.781
117.5512 0.469
117.5815 1.354
117.6118 1.146
117.6421 0.885
117.6724 1.146
117.7026 0.625
117.7329 1.250
117.7632 1.094
117.7935 1.094
117.8237 1.510
117.8540 0.833
117.8843 0.781
117.9146 1.146
117.9449 1.198
117.9751 0.833
118.0054 0.885
118.0357 1.146
118.0660 1.302
118.0963 0.990
118.1265 0.729
118.1568 1.354
118.1871 0.677
118.2174 1.146
118.2476 1.094
118.2779 1.354
118.3082 1.042
118.3385 0.885
118.3688 0.990
118.3990 0.833
118.4293 0.729
118.4596 0.937
118.4899 1.146
118.5202 0.677
118.5504 0.781
118.5807 1.042
118.6110 0.625
118.6413 0.781
118.6715 1.042
118.7018 0.729
118.7321 1.146
118.7624 0.677
118.7927 1.302
118.8229 1.354
118.8532 0.990
118.8835 1.198
118.9138 1.250
118.9441 0.833
118.9743 0.885
119.0046 0.833
119.0349 1.302
119.0652 1.146
119.0954 1.042
119.1257 1.250
119.1560 1.302
119.1863 0.937
119.2166 1.146
119.2468 1.094
119.2771 1.354
119.3074 1.302
119.3377 1.198
119.3680 0.885
119.3982 0.781
119.4285 1.146
119.4588 0.990
119.4891 0.990
119.5193 0.833
119.5496 0.781
119.5799 0.781
119.6102 0.990
119.6405 1.354
119.6707 0.677
119.7010 0.833
119.7313 0.937
119.7616 0.937
119.7919 0.990
119.8221 1.094
119.8524 0.781
119.8827 1.250
119.9130 0.990
119.9433 1.042
119.9735 1.354
120.0038 1.042
