'Id: "" Comment: "" Operator: "Lab Manager" Anode: "Cu" Scantype: "Locked Coupled" TimePerStep: "19.2" X: "9999" Y: "9999" Z: "9999" 
10.0015 164.740
10.0318 174.323
10.0620 174.740
10.0923 183.698
10.1226 179.687
10.1529 184.479
10.1832 184.427
10.2134 187.500
10.2437 197.031
10.2740 195.000
10.3043 197.135
10.3346 198.906
10.3648 200.625
10.3951 196.250
10.4254 197.604
10.4557 196.250
10.4859 191.875
10.5162 189.219
10.5465 187.292
10.5768 189.531
10.6071 176.146
10.6373 181.406
10.6676 175.000
10.6979 168.073
10.7282 165.937
10.7585 156.771
10.7887 153.073
10.8190 148.490
10.8493 144.948
10.8796 143.958
10.9098 132.969
10.9401 131.354
10.9704 126.562
11.0007 123.698
11.0310 117.656
11.0612 112.240
11.0915 106.198
11.1218 102.917
11.1521 96.667
11.1824 88.177
11.2126 81.771
11.2429 80.312
11.2732 77.135
11.3035 78.490
11.3337 70.781
11.3640 69.531
11.3943 66.771
11.4246 66.875
11.4549 62.604
11.4851 59.792
11.5154 60.937
11.5457 55.417
11.5760 53.906
11.6063 52.969
11.6365 50.260
11.6668 50.208
11.6971 48.385
11.7274 49.115
11.7577 50.000
11.7879 43.229
11.8182 45.885
11.8485 40.000
11.8788 40.677
11.9090 39.531
11.9393 41.875
11.9696 37.448
11.9999 37.708
12.0302 37.083
12.0604 36.094
12.0907 34.896
12.1210 32.500
12.1513 35.521
12.1816 33.437
12.2118 35.625
12.2421 31.823
12.2724 31.094
12.3027 32.396
12.3329 29.167
12.3632 28.125
12.3935 30.208
12.4238 30.521
12.4541 29.740
12.4843 25.625
12.5146 26.250
12.5449 26.562
12.5752 25.469
12.6055 27.396
12.6357 24.948
12.6660 25.729
12.6963 25.260
12.7266 22.656
12.7568 26.042
12.7871 24.635
12.8174 23.594
12.8477 24.479
12.8780 22.760
12.9082 23.229
12.9385 23.750
12.9688 24.115
12.9991 23.125
13.0294 23.021
13.0596 22.187
13.0899 22.917
13.1202 24.740
13.1505 22.187
13.1807 22.969
13.2110 21.719
13.2413 21.719
13.2716 22.396
13.3019 20.312
13.3321 22.448
13.3624 20.990
13.3927 20.469
13.4230 21.406
13.4533 20.990
13.4835 21.875
13.5138 20.156
13.5441 20.208
13.5744 19.948
13.6046 21.354
13.6349 21.771
13.6652 19.427
13.6955 21.719
13.7258 21.302
13.7560 19.635
13.7863 19.896
13.8166 19.635
13.8469 19.583
13.8772 20.417
13.9074 18.802
13.9377 20.417
13.9680 20.885
13.9983 20.052
14.0285 18.281
14.0588 18.698
14.0891 19.948
14.1194 19.062
14.1497 20.156
14.1799 17.656
14.2102 21.146
14.2405 21.562
14.2708 17.812
14.3011 20.104
14.3313 19.792
14.3616 18.281
14.3919 18.229
14.4222 19.271
14.4524 18.437
14.4827 20.990
14.5130 19.062
14.5433 20.104
14.5736 17.760
14.6038 20.365
14.6341 17.083
14.6644 20.052
14.6947 18.906
14.7250 17.969
14.7552 19.323
14.7855 21.198
14.8158 19.010
14.8461 20.677
14.8764 20.729
14.9066 18.073
14.9369 20.052
14.9672 18.698
14.9975 20.469
15.0277 18.854
15.0580 19.115
15.0883 20.365
15.1186 19.687
15.1489 20.260
15.1791 23.802
15.2094 18.854
15.2397 21.042
15.2700 21.562
15.3003 20.625
15.3305 20.365
15.3608 19.427
15.3911 20.156
15.4214 22.031
15.4516 22.031
15.4819 20.104
15.5122 20.885
15.5425 21.562
15.5728 20.104
15.6030 20.417
15.6333 19.531
15.6636 19.635
15.6939 19.323
15.7242 19.844
15.7544 20.573
15.7847 20.833
15.8150 21.094
15.8453 19.635
15.8755 20.573
15.9058 20.990
15.9361 21.719
15.9664 19.427
15.9967 17.708
16.0269 19.219
16.0572 18.906
16.0875 19.323
16.1178 19.531
16.1481 17.396
16.1783 17.552
16.2086 17.396
16.2389 17.708
16.2692 18.594
16.2994 15.260
16.3297 17.187
16.3600 16.458
16.3903 18.646
16.4206 16.094
16.4508 16.615
16.4811 17.031
16.5114 17.969
16.5417 16.927
16.5720 16.771
16.6022 16.354
16.6325 14.948
16.6628 15.729
16.6931 15.000
16.7233 14.792
16.7536 14.323
16.7839 13.646
16.8142 15.990
16.8445 13.542
16.8747 14.219
16.9050 14.323
16.9353 14.115
16.9656 14.010
16.9959 13.750
17.0261 12.969
17.0564 14.427
17.0867 15.156
17.1170 12.760
17.1472 13.437
17.1775 13.385
17.2078 12.969
17.2381 13.385
17.2684 12.187
17.2986 14.167
17.3289 14.792
17.3592 15.677
17.3895 11.719
17.4198 12.969
17.4500 12.292
17.4803 11.927
17.5106 11.510
17.5409 13.698
17.5712 12.865
17.6014 11.667
17.6317 13.021
17.6620 12.969
17.6923 11.927
17.7225 11.198
17.7528 12.396
17.7831 12.760
17.8134 11.615
17.8437 14.531
17.8739 13.229
17.9042 13.698
17.9345 14.479
17.9648 11.302
17.9951 13.490
18.0253 12.604
18.0556 12.760
18.0859 13.854
18.1162 13.437
18.1464 13.594
18.1767 12.812
18.2070 13.125
18.2373 12.135
18.2676 14.271
18.2978 14.010
18.3281 15.365
18.3584 12.917
18.3887 13.281
18.4190 13.125
18.4492 14.792
18.4795 13.229
18.5098 14.687
18.5401 13.958
18.5703 14.583
18.6006 15.365
18.6309 13.490
18.6612 14.740
18.6915 15.365
18.7217 13.958
18.7520 14.844
18.7823 16.562
18.8126 14.531
18.8429 14.740
18.8731 14.687
18.9034 14.115
18.9337 15.104
18.9640 14.792
18.9942 13.073
19.0245 13.437
19.0548 13.125
19.0851 12.240
19.1154 12.500
19.1456 12.396
19.1759 12.344
19.2062 12.604
19.2365 12.083
19.2668 11.354
19.2970 12.604
19.3273 11.979
19.3576 11.302
19.3879 11.823
19.4181 10.365
19.4484 10.937
19.4787 10.365
19.5090 10.000
19.5393 10.990
19.5695 11.198
19.5998 9.219
19.6301 9.167
19.6604 10.156
19.6907 10.417
19.7209 9.792
19.7512 8.802
19.7815 10.260
19.8118 9.740
19.8420 9.010
19.8723 9.635
19.9026 8.177
19.9329 7.865
19.9632 9.896
19.9934 7.552
20.0237 7.812
20.0540 7.708
20.0843 8.750
20.1146 9.062
20.1448 8.594
20.1751 7.500
20.2054 8.021
20.2357 7.292
20.2659 8.177
20.2962 8.281
20.3265 9.271
20.3568 8.802
20.3871 7.917
20.4173 8.021
20.4476 8.385
20.4779 7.969
20.5082 7.656
20.5385 8.594
20.5687 8.229
20.5990 7.760
20.6293 7.760
20.6596 9.479
20.6899 6.979
20.7201 7.865
20.7504 7.708
20.7807 7.396
20.8110 7.396
20.8412 7.708
20.8715 8.750
20.9018 7.917
20.9321 6.823
20.9624 7.448
20.9926 8.333
21.0229 7.135
21.0532 7.604
21.0835 7.083
21.1138 8.698
21.1440 7.760
21.1743 8.073
21.2046 8.385
21.2349 7.708
21.2651 8.698
21.2954 8.594
21.3257 7.187
21.3560 7.448
21.3863 7.240
21.4165 8.177
21.4468 7.083
21.4771 7.240
21.5074 8.021
21.5377 6.771
21.5679 6.667
21.5982 6.823
21.6285 6.615
21.6588 6.719
21.6890 7.396
21.7193 7.500
21.7496 6.667
21.7799 6.250
21.8102 7.031
21.8404 6.458
21.8707 7.500
21.9010 6.719
21.9313 7.083
21.9616 6.927
21.9918 5.937
22.0221 6.562
22.0524 6.302
22.0827 6.667
22.1129 7.708
22.1432 8.021
22.1735 6.979
22.2038 6.667
22.2341 6.615
22.2643 6.510
22.2946 6.198
22.3249 6.406
22.3552 7.448
22.3855 5.417
22.4157 6.510
22.4460 6.510
22.4763 7.969
22.5066 6.615
22.5368 8.021
22.5671 7.708
22.5974 7.500
22.6277 6.198
22.6580 7.500
22.6882 6.823
22.7185 6.615
22.7488 8.073
22.7791 6.146
22.8094 6.094
22.8396 6.510
22.8699 6.823
22.9002 7.708
22.9305 6.875
22.9607 6.250
22.9910 7.448
23.0213 7.083
23.0516 7.240
23.0819 7.917
23.1121 7.083
23.1424 7.448
23.1727 7.604
23.2030 7.448
23.2333 7.292
23.2635 8.073
23.2938 8.385
23.3241 8.854
23.3544 9.271
23.3846 8.385
23.4149 8.646
23.4452 9.010
23.4755 9.010
23.5058 7.500
23.5360 7.500
23.5663 8.854
23.5966 8.750
23.6269 8.646
23.6572 9.375
23.6874 7.708
23.7177 8.646
23.7480 9.219
23.7783 9.271
23.8086 9.219
23.8388 9.010
23.8691 9.687
23.8994 9.948
23.9297 9.635
23.9599 9.219
23.9902 9.635
24.0205 9.167
24.0508 10.833
24.0811 8.802
24.1113 9.375
24.1416 10.052
24.1719 9.687
24.2022 9.323
24.2325 9.479
24.2627 10.156
24.2930 10.521
24.3233 12.240
24.3536 11.927
24.3838 9.479
24.4141 11.406
24.4444 10.781
24.4747 11.979
24.5050 11.146
24.5352 12.552
24.5655 11.927
24.5958 11.042
24.6261 12.812
24.6564 10.052
24.6866 11.979
24.7169 11.094
24.7472 11.302
24.7775 11.094
24.8077 11.615
24.8380 13.177
24.8683 12.292
24.8986 12.240
24.9289 13.073
24.9591 12.969
24.9894 13.750
25.0197 13.802
25.0500 16.354
25.0803 13.229
25.1105 14.115
25.1408 13.385
25.1711 14.635
25.2014 14.271
25.2316 15.521
25.2619 13.594
25.2922 14.687
25.3225 14.792
25.3528 14.323
25.3830 15.521
25.4133 15.104
25.4436 15.990
25.4739 16.927
25.5042 13.229
25.5344 15.417
25.5647 16.354
25.5950 15.781
25.6253 15.677
25.6555 17.396
25.6858 15.469
25.7161 14.844
25.7464 16.823
25.7767 15.885
25.8069 16.771
25.8372 16.146
25.8675 16.927
25.8978 16.771
25.9281 16.927
25.9583 16.927
25.9886 16.302
26.0189 19.167
26.0492 18.177
26.0794 15.833
26.1097 18.490
26.1400 16.771
26.1703 16.667
26.2006 18.698
26.2308 18.333
26.2611 19.010
26.2914 17.812
26.3217 19.115
26.3520 18.750
26.3822 18.073
26.4125 19.479
26.4428 19.062
26.4731 18.542
26.5034 18.281
26.5336 18.021
26.5639 18.802
26.5942 20.573
26.6245 19.427
26.6547 18.021
26.6850 17.969
26.7153 20.781
26.7456 18.437
26.7759 19.531
26.8061 21.042
26.8364 21.979
26.8667 19.948
26.8970 20.573
26.9273 20.625
26.9575 21.979
26.9878 20.000
27.0181 20.312
27.0484 21.094
27.0786 21.094
27.1089 21.562
27.1392 21.042
27.1695 22.917
27.1998 22.135
27.2300 21.354
27.2603 21.823
27.2906 22.031
27.3209 24.115
27.3512 23.125
27.3814 22.396
27.4117 23.646
27.4420 22.604
27.4723 21.406
27.5025 22.552
27.5328 21.615
27.5631 22.656
27.5934 21.823
27.6237 22.760
27.6539 22.500
27.6842 23.385
27.7145 20.000
27.7448 22.656
27.7751 23.802
27.8053 22.812
27.8356 23.229
27.8659 20.677
27.8962 20.260
27.9264 20.312
27.9567 22.083
27.9870 20.833
28.0173 20.781
28.0476 21.927
28.0778 20.781
28.1081 21.719
28.1384 19.062
28.1687 22.187
28.1990 18.125
28.2292 20.469
28.2595 18.906
28.2898 18.698
28.3201 18.542
28.3503 18.437
28.3806 19.479
28.4109 19.062
28.4412 18.333
28.4715 18.646
28.5017 17.917
28.5320 17.656
28.5623 16.562
28.5926 16.927
28.6229 17.292
28.6531 16.250
28.6834 17.031
28.7137 16.302
28.7440 14.792
28.7742 16.042
28.8045 14.531
28.8348 14.583
28.8651 16.458
28.8954 14.167
28.9256 15.885
28.9559 15.729
28.9862 13.333
29.0165 12.865
29.0468 12.656
29.0770 13.646
29.1073 13.594
29.1376 12.708
29.1679 13.177
29.1981 14.271
29.2284 11.771
29.2587 13.490
29.2890 11.667
29.3193 10.573
29.3495 10.781
29.3798 11.719
29.4101 11.250
29.4404 11.771
29.4707 11.406
29.5009 11.354
29.5312 9.792
29.5615 9.115
29.5918 8.958
29.6221 11.198
29.6523 10.885
29.6826 9.896
29.7129 10.208
29.7432 10.260
29.7734 10.312
29.8037 9.948
29.8340 8.802
29.8643 10.000
29.8946 9.062
29.9248 9.531
29.9551 10.156
29.9854 8.750
30.0157 9.323
30.0460 8.281
30.0762 9.219
30.1065 8.958
30.1368 9.219
30.1671 9.271
30.1973 8.698
30.2276 8.021
30.2579 7.083
30.2882 7.396
30.3185 7.812
30.3487 8.958
30.3790 8.177
30.4093 8.750
30.4396 7.031
30.4699 7.604
30.5001 6.979
30.5304 7.240
30.5607 6.771
30.5910 6.979
30.6212 9.896
30.6515 8.021
30.6818 6.510
30.7121 7.031
30.7424 5.990
30.7726 7.396
30.8029 7.500
30.8332 6.510
30.8635 8.281
30.8938 6.354
30.9240 5.833
30.9543 7.812
30.9846 7.292
31.0149 6.979
31.0451 6.979
31.0754 6.667
31.1057 6.458
31.1360 7.760
31.1663 6.823
31.1965 7.656
31.2268 7.031
31.2571 5.885
31.2874 7.969
31.3177 7.135
31.3479 6.979
31.3782 7.344
31.4085 7.344
31.4388 6.927
31.4690 5.625
31.4993 6.510
31.5296 6.562
31.5599 6.458
31.5902 7.552
31.6204 6.354
31.6507 6.979
31.6810 5.312
31.7113 7.292
31.7416 6.042
31.7718 6.771
31.8021 5.260
31.8324 7.292
31.8627 7.760
31.8929 6.562
31.9232 7.448
31.9535 6.042
31.9838 6.719
32.0141 6.771
32.0443 6.302
32.0746 6.771
32.1049 6.510
32.1352 6.094
32.1655 6.510
32.1957 6.198
32.2260 6.771
32.2563 6.094
32.2866 6.667
32.3169 7.187
32.3471 6.562
32.3774 6.615
32.4077 6.615
32.4380 6.458
32.4682 7.396
32.4985 7.135
32.5288 7.500
32.5591 8.385
32.5894 9.115
32.6196 7.917
32.6499 9.635
32.6802 9.323
32.7105 8.490
32.7408 10.521
32.7710 9.479
32.8013 9.062
32.8316 7.656
32.8619 7.760
32.8921 6.667
32.9224 7.969
32.9527 8.958
32.9830 8.177
33.0133 7.552
33.0435 8.281
33.0738 7.969
33.1041 7.083
33.1344 6.302
33.1647 7.604
33.1949 7.187
33.2252 6.615
33.2555 6.406
33.2858 5.365
33.3160 6.302
33.3463 6.042
33.3766 5.781
33.4069 5.937
33.4372 6.354
33.4674 6.823
33.4977 5.781
33.5280 5.521
33.5583 6.927
33.5886 6.198
33.6188 7.083
33.6491 5.781
33.6794 6.667
33.7097 5.677
33.7399 5.052
33.7702 6.406
33.8005 6.146
33.8308 5.625
33.8611 5.625
33.8913 6.302
33.9216 5.833
33.9519 6.615
33.9822 5.521
34.0125 6.510
34.0427 6.094
34.0730 7.135
34.1033 6.562
34.1336 5.729
34.1638 5.052
34.1941 5.365
34.2244 5.677
34.2547 6.250
34.2850 6.094
34.3152 7.240
34.3455 6.406
34.3758 6.458
34.4061 6.146
34.4364 5.781
34.4666 6.667
34.4969 7.083
34.5272 6.458
34.5575 5.521
34.5877 6.562
34.6180 6.667
34.6483 5.365
34.6786 6.979
34.7089 6.719
34.7391 6.771
34.7694 6.719
34.7997 5.417
34.8300 5.833
34.8603 6.042
34.8905 6.406
34.9208 6.406
34.9511 6.250
34.9814 6.302
35.0116 5.937
35.0419 6.042
35.0722 6.510
35.1025 6.406
35.1328 5.260
35.1630 6.250
35.1933 6.771
35.2236 6.042
35.2539 6.562
35.2842 5.417
35.3144 6.354
35.3447 6.562
35.3750 5.521
35.4053 7.187
35.4356 6.719
35.4658 6.719
35.4961 6.406
35.5264 7.396
35.5567 6.771
35.5869 6.094
35.6172 6.198
35.6475 5.937
35.6778 6.250
35.7081 6.198
35.7383 7.396
35.7686 6.771
35.7989 6.406
35.8292 6.927
35.8595 7.396
35.8897 7.344
35.9200 6.875
35.9503 5.781
35.9806 6.719
36.0108 7.812
36.0411 6.094
36.0714 6.354
36.1017 6.771
36.1320 7.292
36.1622 6.510
36.1925 6.615
36.2228 7.135
36.2531 7.187
36.2834 5.781
36.3136 6.250
36.3439 5.521
36.3742 5.937
36.4045 7.396
36.4347 6.146
36.4650 5.937
36.4953 6.094
36.5256 6.094
36.5559 5.260
36.5861 6.667
36.6164 5.885
36.6467 6.354
36.6770 5.677
36.7073 6.198
36.7375 6.771
36.7678 5.573
36.7981 5.677
36.8284 6.354
36.8586 4.583
36.8889 5.417
36.9192 6.354
36.9495 5.000
36.9798 6.979
37.0100 6.302
37.0403 5.156
37.0706 6.042
37.1009 6.250
37.1312 7.135
37.1614 5.573
37.1917 5.417
37.2220 6.562
37.2523 5.469
37.2825 4.948
37.3128 4.948
37.3431 5.885
37.3734 4.271
37.4037 5.781
37.4339 5.365
37.4642 4.479
37.4945 5.260
37.5248 5.625
37.5551 5.521
37.5853 5.625
37.6156 4.896
37.6459 5.312
37.6762 6.042
37.7064 4.948
37.7367 5.260
37.7670 5.052
37.7973 5.052
37.8276 5.469
37.8578 4.479
37.8881 5.625
37.9184 4.844
37.9487 5.729
37.9790 5.573
38.0092 5.365
38.0395 5.365
38.0698 5.156
38.1001 5.365
38.1304 5.469
38.1606 5.104
38.1909 5.937
38.2212 5.104
38.2515 4.479
38.2817 5.312
38.3120 5.417
38.3423 5.052
38.3726 3.958
38.4029 4.896
38.4331 5.521
38.4634 4.323
38.4937 5.469
38.5240 4.323
38.5543 4.583
38.5845 4.687
38.6148 4.896
38.6451 4.896
38.6754 4.635
38.7056 4.479
38.7359 4.375
38.7662 5.052
38.7965 4.948
38.8268 4.062
38.8570 3.854
38.8873 4.010
38.9176 4.115
38.9479 4.948
38.9782 5.156
39.0084 4.323
39.0387 4.948
39.0690 4.219
39.0993 3.385
39.1295 4.948
39.1598 3.698
39.1901 4.635
39.2204 4.375
39.2507 4.375
39.2809 4.740
39.3112 3.646
39.3415 3.906
39.3718 3.594
39.4021 4.167
39.4323 4.010
39.4626 4.323
39.4929 4.583
39.5232 4.740
39.5534 3.125
39.5837 4.062
39.6140 3.854
39.6443 3.854
39.6746 3.490
39.7048 4.635
39.7351 3.594
39.7654 4.115
39.7957 3.437
39.8260 4.062
39.8562 3.385
39.8865 4.427
39.9168 3.594
39.9471 3.125
39.9773 4.844
40.0076 4.271
40.0379 3.802
40.0682 4.427
40.0985 4.271
40.1287 3.542
40.1590 4.062
40.1893 4.479
40.2196 3.177
40.2499 3.594
40.2801 3.802
40.3104 3.594
40.3407 2.865
40.3710 4.115
40.4012 3.698
40.4315 3.906
40.4618 3.490
40.4921 4.635
40.5224 4.323
40.5526 3.073
40.5829 3.802
40.6132 4.010
40.6435 3.385
40.6738 4.479
40.7040 3.125
40.7343 4.531
40.7646 4.115
40.7949 4.271
40.8251 3.802
40.8554 3.021
40.8857 4.740
40.9160 4.531
40.9463 4.948
40.9765 3.750
41.0068 4.167
41.0371 3.854
41.0674 3.958
41.0977 3.542
41.1279 4.479
41.1582 4.531
41.1885 4.323
41.2188 4.115
41.2491 4.219
41.2793 4.792
41.3096 4.271
41.3399 4.792
41.3702 3.750
41.4004 3.333
41.4307 3.490
41.4610 5.052
41.4913 3.021
41.5216 3.802
41.5518 3.385
41.5821 4.740
41.6124 5.000
41.6427 4.635
41.6730 4.010
41.7032 5.104
41.7335 4.635
41.7638 3.437
41.7941 4.271
41.8243 4.948
41.8546 4.115
41.8849 4.062
41.9152 3.958
41.9455 4.844
41.9757 3.281
42.0060 4.844
42.0363 4.167
42.0666 4.948
42.0969 4.583
42.1271 4.062
42.1574 4.323
42.1877 4.948
42.2180 3.854
42.2482 3.125
42.2785 3.750
42.3088 4.427
42.3391 3.698
42.3694 3.542
42.3996 3.646
42.4299 4.271
42.4602 3.750
42.4905 3.437
42.5208 4.687
42.5510 4.271
42.5813 3.542
42.6116 3.594
42.6419 4.375
42.6721 3.229
42.7024 3.177
42.7327 4.323
42.7630 4.062
42.7933 3.385
42.8235 3.333
42.8538 3.437
42.8841 3.594
42.9144 3.333
42.9447 4.062
42.9749 3.646
43.0052 3.333
43.0355 3.906
43.0658 3.229
43.0960 3.958
43.1263 3.542
43.1566 3.750
43.1869 3.333
43.2172 3.490
43.2474 3.698
43.2777 3.906
43.3080 3.750
43.3383 3.385
43.3686 3.281
43.3988 3.385
43.4291 3.594
43.4594 3.646
43.4897 4.271
43.5199 4.115
43.5502 3.958
43.5805 3.542
43.6108 3.490
43.6411 3.646
43.6713 3.021
43.7016 3.646
43.7319 3.646
43.7622 3.490
43.7925 2.865
43.8227 3.333
43.8530 3.073
43.8833 3.073
43.9136 2.552
43.9439 3.698
43.9741 3.073
44.0044 3.542
44.0347 2.135
44.0650 3.125
44.0952 3.437
44.1255 3.437
44.1558 2.812
44.1861 3.490
44.2164 3.281
44.2466 3.802
44.2769 3.906
44.3072 3.229
44.3375 3.594
44.3678 3.281
44.3980 3.490
44.4283 3.385
44.4586 3.437
44.4889 3.490
44.5191 4.635
44.5494 3.594
44.5797 3.542
44.6100 3.281
44.6403 3.594
44.6705 3.021
44.7008 3.073
44.7311 3.281
44.7614 3.177
44.7917 2.917
44.8219 3.281
44.8522 3.073
44.8825 2.865
44.9128 3.646
44.9430 2.604
44.9733 3.594
45.0036 2.917
45.0339 3.125
45.0642 4.583
45.0944 3.542
45.1247 3.125
45.1550 3.646
45.1853 3.177
45.2156 3.125
45.2458 3.437
45.2761 3.594
45.3064 3.385
45.3367 3.906
45.3669 3.542
45.3972 3.698
45.4275 3.542
45.4578 3.385
45.4881 4.062
45.5183 3.281
45.5486 3.333
45.5789 3.750
45.6092 3.594
45.6395 3.802
45.6697 3.385
45.7000 3.021
45.7303 3.594
45.7606 3.906
45.7908 4.948
45.8211 3.958
45.8514 3.281
45.8817 4.375
45.9120 2.969
45.9422 3.021
45.9725 4.219
46.0028 4.167
46.0331 3.229
46.0634 4.219
46.0936 3.750
46.1239 3.854
46.1542 3.125
46.1845 3.958
46.2147 3.854
46.2450 3.437
46.2753 3.906
46.3056 3.177
46.3359 3.021
46.3661 3.021
46.3964 3.542
46.4267 4.323
46.4570 4.271
46.4873 3.542
46.5175 3.490
46.5478 4.115
46.5781 3.750
46.6084 3.281
46.6386 3.854
46.6689 3.750
46.6992 2.812
46.7295 4.375
46.7598 3.125
46.7900 4.167
46.8203 3.646
46.8506 3.906
46.8809 3.646
46.9112 2.917
46.9414 3.698
46.9717 3.333
47.0020 3.802
47.0323 3.229
47.0626 3.021
47.0928 3.594
47.1231 3.906
47.1534 3.490
47.1837 3.437
47.2139 3.385
47.2442 3.542
47.2745 4.323
47.3048 3.385
47.3351 3.646
47.3653 3.958
47.3956 4.635
47.4259 3.906
47.4562 3.698
47.4865 3.750
47.5167 3.802
47.5470 3.385
47.5773 3.958
47.6076 4.115
47.6378 5.104
47.6681 4.271
47.6984 3.906
47.7287 4.687
47.7590 4.323
47.7892 4.896
47.8195 3.906
47.8498 4.115
47.8801 4.531
47.9104 4.323
47.9406 4.219
47.9709 4.167
48.0012 3.490
48.0315 4.062
48.0617 3.437
48.0920 3.594
48.1223 3.646
48.1526 4.115
48.1829 4.219
48.2131 4.219
48.2434 4.896
48.2737 3.854
48.3040 4.583
48.3343 4.844
48.3645 4.635
48.3948 3.490
48.4251 4.635
48.4554 4.479
48.4856 5.000
48.5159 4.740
48.5462 4.583
48.5765 4.948
48.6068 4.635
48.6370 5.208
48.6673 4.792
48.6976 4.531
48.7279 4.687
48.7582 3.906
48.7884 4.948
48.8187 5.052
48.8490 5.365
48.8793 4.323
48.9095 6.250
48.9398 4.115
48.9701 5.781
49.0004 5.000
49.0307 5.260
49.0609 4.479
49.0912 5.729
49.1215 5.677
49.1518 5.052
49.1821 5.625
49.2123 5.781
49.2426 5.885
49.2729 5.365
49.3032 6.250
49.3334 5.677
49.3637 5.625
49.3940 5.208
49.4243 5.625
49.4546 5.312
49.4848 5.417
49.5151 5.885
49.5454 5.521
49.5757 6.458
49.6060 5.521
49.6362 5.885
49.6665 6.615
49.6968 6.667
49.7271 6.875
49.7574 5.521
49.7876 5.833
49.8179 5.156
49.8482 6.406
49.8785 6.458
49.9087 6.302
49.9390 6.979
49.9693 5.885
49.9996 6.615
50.0299 5.417
50.0601 6.562
50.0904 6.875
50.1207 6.250
50.1510 7.187
50.1813 7.917
50.2115 6.094
50.2418 6.198
50.2721 7.292
50.3024 6.667
50.3326 6.875
50.3629 7.812
50.3932 7.187
50.4235 6.198
50.4538 6.354
50.4840 6.719
50.5143 7.031
50.5446 6.615
50.5749 6.667
50.6052 6.458
50.6354 6.979
50.6657 6.667
50.6960 6.354
50.7263 7.344
50.7565 7.448
50.7868 6.927
50.8171 6.979
50.8474 6.771
50.8777 6.354
50.9079 5.937
50.9382 7.031
50.9685 7.187
50.9988 6.875
51.0291 6.875
51.0593 7.604
51.0896 7.604
51.1199 7.344
51.1502 6.458
51.1804 6.354
51.2107 6.510
51.2410 7.396
51.2713 6.927
51.3016 7.187
51.3318 5.833
51.3621 6.458
51.3924 6.771
51.4227 6.979
51.4530 7.865
51.4832 8.021
51.5135 6.719
51.5438 6.042
51.5741 7.292
51.6043 6.719
51.6346 6.615
51.6649 7.187
51.6952 6.667
51.7255 6.562
51.7557 6.927
51.7860 6.927
51.8163 6.406
51.8466 6.146
51.8769 6.302
51.9071 6.198
51.9374 6.146
51.9677 6.615
51.9980 5.937
52.0282 5.573
52.0585 6.354
52.0888 6.875
52.1191 4.115
52.1494 6.562
52.1796 6.302
52.2099 6.094
52.2402 7.083
52.2705 7.292
52.3008 5.833
52.3310 5.573
52.3613 6.354
52.3916 6.667
52.4219 5.000
52.4521 5.729
52.4824 6.042
52.5127 5.937
52.5430 5.052
52.5733 6.146
52.6035 6.198
52.6338 6.094
52.6641 5.990
52.6944 5.885
52.7247 5.573
52.7549 5.312
52.7852 5.937
52.8155 5.104
52.8458 6.406
52.8761 6.510
52.9063 5.885
52.9366 5.990
52.9669 4.531
52.9972 4.844
53.0274 5.312
53.0577 5.417
53.0880 5.729
53.1183 5.469
53.1486 5.573
53.1788 4.635
53.2091 5.104
53.2394 5.469
53.2697 6.094
53.3000 5.104
53.3302 5.625
53.3605 6.146
53.3908 5.156
53.4211 5.781
53.4513 4.375
53.4816 4.740
53.5119 5.625
53.5422 4.740
53.5725 5.260
53.6027 4.948
53.6330 5.365
53.6633 5.521
53.6936 4.635
53.7239 5.000
53.7541 5.729
53.7844 4.531
53.8147 4.167
53.8450 5.521
53.8752 4.948
53.9055 5.417
53.9358 4.844
53.9661 5.365
53.9964 4.271
54.0266 5.625
54.0569 5.104
54.0872 4.948
54.1175 4.583
54.1478 5.104
54.1780 4.896
54.2083 4.323
54.2386 4.792
54.2689 4.792
54.2991 5.469
54.3294 5.156
54.3597 4.583
54.3900 4.375
54.4203 4.583
54.4505 4.948
54.4808 4.687
54.5111 4.583
54.5414 4.948
54.5717 4.479
54.6019 3.958
54.6322 4.583
54.6625 5.260
54.6928 4.583
54.7230 5.156
54.7533 5.260
54.7836 3.958
54.8139 4.583
54.8442 4.687
54.8744 5.156
54.9047 5.208
54.9350 4.635
54.9653 4.635
54.9956 4.271
55.0258 4.583
55.0561 4.531
55.0864 5.052
55.1167 4.844
55.1469 4.740
55.1772 4.896
55.2075 4.740
55.2378 5.208
55.2681 4.583
55.2983 5.104
55.3286 4.896
55.3589 4.115
55.3892 3.906
55.4195 4.531
55.4497 4.271
55.4800 4.375
55.5103 4.687
55.5406 4.427
55.5709 5.156
55.6011 4.531
55.6314 5.521
55.6617 4.219
55.6920 4.896
55.7222 4.948
55.7525 4.323
55.7828 4.115
55.8131 3.281
55.8434 3.646
55.8736 4.635
55.9039 3.906
55.9342 3.958
55.9645 4.427
55.9948 3.542
56.0250 4.375
56.0553 4.115
56.0856 4.010
56.1159 4.323
56.1461 3.958
56.1764 4.115
56.2067 3.958
56.2370 3.906
56.2673 3.906
56.2975 3.698
56.3278 4.427
56.3581 4.010
56.3884 5.208
56.4187 2.656
56.4489 3.854
56.4792 3.698
56.5095 3.646
56.5398 3.698
56.5700 3.125
56.6003 4.115
56.6306 3.437
56.6609 4.115
56.6912 3.802
56.7214 3.854
56.7517 4.427
56.7820 4.010
56.8123 3.333
56.8426 3.490
56.8728 3.958
56.9031 3.594
56.9334 3.698
56.9637 3.542
56.9939 3.906
57.0242 3.073
57.0545 4.115
57.0848 3.490
57.1151 3.802
57.1453 3.594
57.1756 3.750
57.2059 3.229
57.2362 3.125
57.2665 4.115
57.2967 3.646
57.3270 3.594
57.3573 3.906
57.3876 3.229
57.4178 3.490
57.4481 3.229
57.4784 3.073
57.5087 4.115
57.5390 4.427
57.5692 3.437
57.5995 3.750
57.6298 3.021
57.6601 3.594
57.6904 2.708
57.7206 3.594
57.7509 3.854
57.7812 3.021
57.8115 3.594
57.8417 3.385
57.8720 4.167
57.9023 4.167
57.9326 3.177
57.9629 3.437
57.9931 3.906
58.0234 3.073
58.0537 3.542
58.0840 3.646
58.1143 3.385
58.1445 4.219
58.1748 4.115
58.2051 3.594
58.2354 3.906
58.2656 4.531
58.2959 4.427
58.3262 3.958
58.3565 5.104
58.3868 4.792
58.4170 4.844
58.4473 4.323
58.4776 4.479
58.5079 4.375
58.5382 4.531
58.5684 3.542
58.5987 4.323
58.6290 4.635
58.6593 4.687
58.6896 4.687
58.7198 4.062
58.7501 4.010
58.7804 4.583
58.8107 5.052
58.8409 5.417
58.8712 4.687
58.9015 4.167
58.9318 3.333
58.9621 4.062
58.9923 3.229
59.0226 3.802
59.0529 3.958
59.0832 4.167
59.1135 4.271
59.1437 4.323
59.1740 4.427
59.2043 4.375
59.2346 4.115
59.2648 4.427
59.2951 4.219
59.3254 3.385
59.3557 4.479
59.3860 4.062
59.4162 4.323
59.4465 4.583
59.4768 3.698
59.5071 4.010
59.5374 4.271
59.5676 3.854
59.5979 3.802
59.6282 4.375
59.6585 4.896
59.6887 4.635
59.7190 3.802
59.7493 3.958
59.7796 4.167
59.8099 4.115
59.8401 4.583
59.8704 3.542
59.9007 4.531
59.9310 3.906
59.9613 3.437
59.9915 4.167
60.0218 4.583
60.0521 3.958
60.0824 2.969
60.1126 3.906
60.1429 4.687
60.1732 3.594
60.2035 3.802
60.2338 4.531
60.2640 4.844
60.2943 3.594
60.3246 4.635
60.3549 4.948
60.3852 4.219
60.4154 4.115
60.4457 3.437
60.4760 4.479
60.5063 3.437
60.5365 3.229
60.5668 3.646
60.5971 3.437
60.6274 4.219
60.6577 4.115
60.6879 3.854
60.7182 4.479
60.7485 3.906
60.7788 3.958
60.8091 5.052
60.8393 3.229
60.8696 3.594
60.8999 4.323
60.9302 4.427
60.9604 3.542
60.9907 4.323
61.0210 4.479
61.0513 4.167
61.0816 3.802
61.1118 3.698
61.1421 3.906
61.1724 3.958
61.2027 3.698
61.2330 4.010
61.2632 4.792
61.2935 4.375
61.3238 3.906
61.3541 4.323
61.3844 4.635
61.4146 3.802
61.4449 4.375
61.4752 4.427
61.5055 4.844
61.5357 5.000
61.5660 4.271
61.5963 4.219
61.6266 4.010
61.6569 4.583
61.6871 4.583
61.7174 5.052
61.7477 3.646
61.7780 4.427
61.8083 4.062
61.8385 4.427
61.8688 4.323
61.8991 4.427
61.9294 5.312
61.9596 4.062
61.9899 4.375
62.0202 5.000
62.0505 3.698
62.0808 4.740
62.1110 4.740
62.1413 3.802
62.1716 5.312
62.2019 4.844
62.2322 5.365
62.2624 4.948
62.2927 5.260
62.3230 4.219
62.3533 4.479
62.3835 5.521
62.4138 4.948
62.4441 4.323
62.4744 5.052
62.5047 5.052
62.5349 3.906
62.5652 5.000
62.5955 5.156
62.6258 5.000
62.6561 5.417
62.6863 5.260
62.7166 5.052
62.7469 5.260
62.7772 5.365
62.8074 5.417
62.8377 4.271
62.8680 4.896
62.8983 4.583
62.9286 4.531
62.9588 4.531
62.9891 4.792
63.0194 5.625
63.0497 5.260
63.0800 4.583
63.1102 5.260
63.1405 5.365
63.1708 5.104
63.2011 4.583
63.2313 5.052
63.2616 4.948
63.2919 5.156
63.3222 4.167
63.3525 4.844
63.3827 4.323
63.4130 4.844
63.4433 4.687
63.4736 5.365
63.5039 4.375
63.5341 5.365
63.5644 5.365
63.5947 4.948
63.6250 3.646
63.6552 4.948
63.6855 4.792
63.7158 4.792
63.7461 4.948
63.7764 4.010
63.8066 4.896
63.8369 4.219
63.8672 4.115
63.8975 5.990
63.9278 5.000
63.9580 4.635
63.9883 4.271
64.0186 4.375
64.0489 3.958
64.0791 4.167
64.1094 4.323
64.1397 3.750
64.1700 4.167
64.2003 5.052
64.2305 3.802
64.2608 4.167
64.2911 4.635
64.3214 4.219
64.3517 4.167
64.3819 3.906
64.4122 3.802
64.4425 3.802
64.4728 3.854
64.5031 4.375
64.5333 4.323
64.5636 4.115
64.5939 3.594
64.6242 3.437
64.6544 3.854
64.6847 4.115
64.7150 3.854
64.7453 3.021
64.7756 3.854
64.8058 3.021
64.8361 3.854
64.8664 3.906
64.8967 3.594
64.9270 3.542
64.9572 3.542
64.9875 3.021
65.0178 3.125
65.0481 3.854
65.0783 3.229
65.1086 2.865
65.1389 4.167
65.1692 3.125
65.1995 3.906
65.2297 3.750
65.2600 3.333
65.2903 2.812
65.3206 3.698
65.3509 2.448
65.3811 3.021
65.4114 3.281
65.4417 3.125
65.4720 2.969
65.5022 3.385
65.5325 3.125
65.5628 3.385
65.5931 3.333
65.6234 2.656
65.6536 3.281
65.6839 3.333
65.7142 2.708
65.7445 2.448
65.7748 3.021
65.8050 3.125
65.8353 2.917
65.8656 2.708
65.8959 2.708
65.9261 2.865
65.9564 2.604
65.9867 2.396
66.0170 3.281
66.0473 2.500
66.0775 3.385
66.1078 2.448
66.1381 2.448
66.1684 2.031
66.1987 2.656
66.2289 3.229
66.2592 3.281
66.2895 2.604
66.3198 2.917
66.3500 2.656
66.3803 3.073
66.4106 3.333
66.4409 2.187
66.4712 2.448
66.5014 2.448
66.5317 2.760
66.5620 2.396
66.5923 2.135
66.6226 2.187
66.6528 2.917
66.6831 3.281
66.7134 2.448
66.7437 2.552
66.7739 2.969
66.8042 2.396
66.8345 3.125
66.8648 2.917
66.8951 3.021
66.9253 1.927
66.9556 2.396
66.9859 2.135
67.0162 2.656
67.0465 2.917
67.0767 2.708
67.1070 1.927
67.1373 2.344
67.1676 2.812
67.1978 3.542
67.2281 2.812
67.2584 2.135
67.2887 2.552
67.3190 3.177
67.3492 2.604
67.3795 2.240
67.4098 2.917
67.4401 2.917
67.4704 2.031
67.5006 2.917
67.5309 2.760
67.5612 2.344
67.5915 2.135
67.6218 2.917
67.6520 2.187
67.6823 2.604
67.7126 2.917
67.7429 2.604
67.7731 3.073
67.8034 1.927
67.8337 2.083
67.8640 2.604
67.8943 2.604
67.9245 3.073
67.9548 2.448
67.9851 2.917
68.0154 2.917
68.0457 2.396
68.0759 3.802
68.1062 2.187
68.1365 2.344
68.1668 3.073
68.1970 2.917
68.2273 2.917
68.2576 2.604
68.2879 1.927
68.3182 2.917
68.3484 2.552
68.3787 2.865
68.4090 2.344
68.4393 2.917
68.4696 3.177
68.4998 2.500
68.5301 2.812
68.5604 4.010
68.5907 2.552
68.6209 2.292
68.6512 3.021
68.6815 2.500
68.7118 3.125
68.7421 2.344
68.7723 2.344
68.8026 2.656
68.8329 2.552
68.8632 2.292
68.8935 2.656
68.9237 3.750
68.9540 2.656
68.9843 2.292
69.0146 2.865
69.0448 2.500
69.0751 2.812
69.1054 2.917
69.1357 2.500
69.1660 2.708
69.1962 2.604
69.2265 3.021
69.2568 2.552
69.2871 3.021
69.3174 2.760
69.3476 3.333
69.3779 2.760
69.4082 3.229
69.4385 2.708
69.4687 2.083
69.4990 2.552
69.5293 3.073
69.5596 2.187
69.5899 2.865
69.6201 2.292
69.6504 2.812
69.6807 2.812
69.7110 2.344
69.7413 2.552
69.7715 2.292
69.8018 2.552
69.8321 2.552
69.8624 2.396
69.8926 3.021
69.9229 2.917
69.9532 2.917
69.9835 3.021
70.0138 2.500
70.0440 2.240
70.0743 2.240
70.1046 2.760
70.1349 2.135
70.1652 3.021
70.1954 2.604
70.2257 2.083
70.2560 2.396
70.2863 2.760
70.3166 2.292
70.3468 2.135
70.3771 2.344
70.4074 2.240
70.4377 3.177
70.4679 3.854
70.4982 2.552
70.5285 2.135
70.5588 2.708
70.5891 1.771
70.6193 2.604
70.6496 2.760
70.6799 2.656
70.7102 2.292
70.7405 2.448
70.7707 2.500
70.8010 1.875
70.8313 1.979
70.8616 2.448
70.8918 2.708
70.9221 2.344
70.9524 1.771
70.9827 2.292
71.0130 2.240
71.0432 2.292
71.0735 1.771
71.1038 2.760
71.1341 2.448
71.1644 2.292
71.1946 2.760
71.2249 2.396
71.2552 2.552
71.2855 2.917
71.3157 2.187
71.3460 2.604
71.3763 2.240
71.4066 2.656
71.4369 2.396
71.4671 2.240
71.4974 2.187
71.5277 2.604
71.5580 2.604
71.5883 2.187
71.6185 1.927
71.6488 2.552
71.6791 2.344
71.7094 2.240
71.7396 2.760
71.7699 2.031
71.8002 2.240
71.8305 2.760
71.8608 2.500
71.8910 2.344
71.9213 2.083
71.9516 2.031
71.9819 1.510
72.0122 2.135
72.0424 2.240
72.0727 2.344
72.1030 2.344
72.1333 2.500
72.1635 2.187
72.1938 2.292
72.2241 2.552
72.2544 2.917
72.2847 2.135
72.3149 2.031
72.3452 2.552
72.3755 2.396
72.4058 2.396
72.4361 2.083
72.4663 2.344
72.4966 2.552
72.5269 2.187
72.5572 1.927
72.5874 1.875
72.6177 2.292
72.6480 2.135
72.6783 2.760
72.7086 1.927
72.7388 2.448
72.7691 2.448
72.7994 2.708
72.8297 2.708
72.8600 2.500
72.8902 2.448
72.9205 2.083
72.9508 2.292
72.9811 2.969
73.0113 2.135
73.0416 2.083
73.0719 3.281
73.1022 2.396
73.1325 2.865
73.1627 2.240
73.1930 2.344
73.2233 3.021
73.2536 2.240
73.2839 3.073
73.3141 2.344
73.3444 2.500
73.3747 2.500
73.4050 2.812
73.4353 2.865
73.4655 2.708
73.4958 2.656
73.5261 2.708
73.5564 2.604
73.5866 2.917
73.6169 2.656
73.6472 2.448
73.6775 3.177
73.7078 2.396
73.7380 2.396
73.7683 2.969
73.7986 2.240
73.8289 2.500
73.8592 2.500
73.8894 2.344
73.9197 3.021
73.9500 2.240
73.9803 2.604
74.0105 2.656
74.0408 2.292
74.0711 2.865
74.1014 2.135
74.1317 2.448
74.1619 2.708
74.1922 2.083
74.2225 2.917
74.2528 3.385
74.2831 2.552
74.3133 2.812
74.3436 3.490
74.3739 2.865
74.4042 2.187
74.4344 2.760
74.4647 2.187
74.4950 2.656
74.5253 2.552
74.5556 2.708
74.5858 4.167
74.6161 2.708
74.6464 2.865
74.6767 2.292
74.7070 3.073
74.7372 3.073
74.7675 3.073
74.7978 2.344
74.8281 2.656
74.8583 2.969
74.8886 2.865
74.9189 2.292
74.9492 2.500
74.9795 2.604
75.0097 2.917
75.0400 2.083
75.0703 1.979
75.1006 2.708
75.1309 2.812
75.1611 2.656
75.1914 2.292
75.2217 2.865
75.2520 2.344
75.2822 3.177
75.3125 2.865
75.3428 2.865
75.3731 2.448
75.4034 3.073
75.4336 2.604
75.4639 2.865
75.4942 3.021
75.5245 2.812
75.5548 2.500
75.5850 1.719
75.6153 3.177
75.6456 1.927
75.6759 2.760
75.7061 2.292
75.7364 2.448
75.7667 2.812
75.7970 2.344
75.8273 2.083
75.8575 2.031
75.8878 2.708
75.9181 2.344
75.9484 2.500
75.9787 2.917
76.0089 2.604
76.0392 2.604
76.0695 2.500
76.0998 2.344
76.1301 2.812
76.1603 3.125
76.1906 2.135
76.2209 2.708
76.2512 2.083
76.2814 2.187
76.3117 1.927
76.3420 2.656
76.3723 2.187
76.4026 2.083
76.4328 2.865
76.4631 2.240
76.4934 2.812
76.5237 1.667
76.5540 2.187
76.5842 2.708
76.6145 2.187
76.6448 2.031
76.6751 2.552
76.7053 2.031
76.7356 1.823
76.7659 2.240
76.7962 2.031
76.8265 2.604
76.8567 2.552
76.8870 3.073
76.9173 2.344
76.9476 2.708
76.9779 2.708
77.0081 2.031
77.0384 2.083
77.0687 2.083
77.0990 1.667
77.1292 2.396
77.1595 2.344
77.1898 2.187
77.2201 2.344
77.2504 2.396
77.2806 2.708
77.3109 2.500
77.3412 3.125
77.3715 2.917
77.4018 2.240
77.4320 2.187
77.4623 2.396
77.4926 2.135
77.5229 2.656
77.5531 2.292
77.5834 1.667
77.6137 2.083
77.6440 1.927
77.6743 1.927
77.7045 2.917
77.7348 2.292
77.7651 2.500
77.7954 2.240
77.8257 2.396
77.8559 2.656
77.8862 2.448
77.9165 2.292
77.9468 2.396
77.9770 2.604
78.0073 2.344
78.0376 2.083
78.0679 1.458
78.0982 2.552
78.1284 2.135
78.1587 1.250
78.1890 3.125
78.2193 2.448
78.2496 2.344
78.2798 1.823
78.3101 2.083
78.3404 2.448
78.3707 2.135
78.4009 1.823
78.4312 2.083
78.4615 2.135
78.4918 2.292
78.5221 2.760
78.5523 2.187
78.5826 2.031
78.6129 2.396
78.6432 2.500
78.6735 2.969
78.7037 2.135
78.7340 2.344
78.7643 2.292
78.7946 2.135
78.8248 2.135
78.8551 2.448
78.8854 2.135
78.9157 1.927
78.9460 2.135
78.9762 2.240
79.0065 1.615
79.0368 2.135
79.0671 2.344
79.0974 2.604
79.1276 1.198
79.1579 1.823
79.1882 1.615
79.2185 2.240
79.2488 2.969
79.2790 2.344
79.3093 1.875
79.3396 2.500
79.3699 2.240
79.4001 2.031
79.4304 2.396
79.4607 2.500
79.4910 2.031
79.5213 1.823
79.5515 2.187
79.5818 2.135
79.6121 2.240
79.6424 2.031
79.6727 1.719
79.7029 2.135
79.7332 1.823
79.7635 2.083
79.7938 1.719
79.8240 2.083
79.8543 1.979
79.8846 2.344
79.9149 2.135
79.9452 2.604
79.9754 2.031
80.0057 2.812
80.0360 2.604
80.0663 1.927
80.0966 2.292
80.1268 1.823
80.1571 1.927
80.1874 2.135
80.2177 2.083
80.2479 2.708
80.2782 2.344
80.3085 2.187
80.3388 2.187
80.3691 1.927
80.3993 2.656
80.4296 2.292
80.4599 2.187
80.4902 2.240
80.5205 2.552
80.5507 2.083
80.5810 2.083
80.6113 1.667
80.6416 1.979
80.6718 2.344
80.7021 2.083
80.7324 1.927
80.7627 2.656
80.7930 2.083
80.8232 2.031
80.8535 2.604
80.8838 1.927
80.9141 1.927
80.9444 1.979
80.9746 2.240
81.0049 1.823
81.0352 2.604
81.0655 2.604
81.0957 2.187
81.1260 2.240
81.1563 2.135
81.1866 1.823
81.2169 2.344
81.2471 2.135
81.2774 2.760
81.3077 1.979
81.3380 2.917
81.3683 2.135
81.3985 2.083
81.4288 2.396
81.4591 2.812
81.4894 2.396
81.5196 2.604
81.5499 1.823
81.5802 2.083
81.6105 2.448
81.6408 2.031
81.6710 1.823
81.7013 2.604
81.7316 2.448
81.7619 2.344
81.7922 2.500
81.8224 2.500
81.8527 2.187
81.8830 2.135
81.9133 2.135
81.9436 1.979
81.9738 2.135
82.0041 2.917
82.0344 2.448
82.0647 2.865
82.0949 2.344
82.1252 2.604
82.1555 1.719
82.1858 2.500
82.2161 2.500
82.2463 2.604
82.2766 2.292
82.3069 2.865
82.3372 2.500
82.3675 3.073
82.3977 2.604
82.4280 2.865
82.4583 2.344
82.4886 2.448
82.5188 2.240
82.5491 2.083
82.5794 2.604
82.6097 3.437
82.6400 2.292
82.6702 2.396
82.7005 1.979
82.7308 2.656
82.7611 2.448
82.7914 2.135
82.8216 2.240
82.8519 2.187
82.8822 1.875
82.9125 1.927
82.9427 2.865
82.9730 3.021
83.0033 2.812
83.0336 2.865
83.0639 2.604
83.0941 2.240
83.1244 2.552
83.1547 2.448
83.1850 2.500
83.2153 2.552
83.2455 2.031
83.2758 2.135
83.3061 2.708
83.3364 1.979
83.3666 2.656
83.3969 2.500
83.4272 2.187
83.4575 2.344
83.4878 1.979
83.5180 2.604
83.5483 2.135
83.5786 2.656
83.6089 2.604
83.6392 1.771
83.6694 1.927
83.6997 2.187
83.7300 2.031
83.7603 2.292
83.7905 1.406
83.8208 2.135
83.8511 2.187
83.8814 2.552
83.9117 2.396
83.9419 3.229
83.9722 2.344
84.0025 2.187
84.0328 2.135
84.0631 2.240
84.0933 2.187
84.1236 2.240
84.1539 2.240
84.1842 2.552
84.2144 2.396
84.2447 2.135
84.2750 2.083
84.3053 2.187
84.3356 2.760
84.3658 2.552
84.3961 2.552
84.4264 2.448
84.4567 2.396
84.4870 2.656
84.5172 2.031
84.5475 2.292
84.5778 2.604
84.6081 2.292
84.6383 2.031
84.6686 2.292
84.6989 2.448
84.7292 2.656
84.7595 1.927
84.7897 1.927
84.8200 2.135
84.8503 2.031
84.8806 2.187
84.9109 2.760
84.9411 2.187
84.9714 2.448
85.0017 1.979
85.0320 1.719
85.0623 1.927
85.0925 1.719
85.1228 1.979
85.1531 2.344
85.1834 2.500
85.2136 2.240
85.2439 2.135
85.2742 1.667
85.3045 2.031
85.3348 2.083
85.3650 2.708
85.3953 2.344
85.4256 2.396
85.4559 2.604
85.4862 2.448
85.5164 2.604
85.5467 2.604
85.5770 2.292
85.6073 2.552
85.6375 2.135
85.6678 2.135
85.6981 2.292
85.7284 2.135
85.7587 2.083
85.7889 2.292
85.8192 2.969
85.8495 2.135
85.8798 1.979
85.9101 1.719
85.9403 2.135
85.9706 2.240
86.0009 2.448
86.0312 2.240
86.0614 3.021
86.0917 1.667
86.1220 2.656
86.1523 2.708
86.1826 2.187
86.2128 2.292
86.2431 2.187
86.2734 2.500
86.3037 2.917
86.3340 1.615
86.3642 2.448
86.3945 2.083
86.4248 2.292
86.4551 2.083
86.4853 2.135
86.5156 2.865
86.5459 2.396
86.5762 2.969
86.6065 2.604
86.6367 2.135
86.6670 1.823
86.6973 1.927
86.7276 2.187
86.7579 2.240
86.7881 2.135
86.8184 2.500
86.8487 2.187
86.8790 2.396
86.9092 2.656
86.9395 2.656
86.9698 2.083
87.0001 2.708
87.0304 1.927
87.0606 2.031
87.0909 1.979
87.1212 2.500
87.1515 2.396
87.1818 2.760
87.2120 2.552
87.2423 2.708
87.2726 2.500
87.3029 1.823
87.3331 2.604
87.3634 2.812
87.3937 2.448
87.4240 2.135
87.4543 1.979
87.4845 1.927
87.5148 2.656
87.5451 2.135
87.5754 2.240
87.6057 2.604
87.6359 1.927
87.6662 2.708
87.6965 2.708
87.7268 3.333
87.7571 2.708
87.7873 1.979
87.8176 2.135
87.8479 1.719
87.8782 2.344
87.9084 2.448
87.9387 2.240
87.9690 2.396
87.9993 2.344
88.0296 2.552
88.0598 2.708
88.0901 2.500
88.1204 2.083
88.1507 2.865
88.1810 2.760
88.2112 2.500
88.2415 1.927
88.2718 2.604
88.3021 2.187
88.3323 2.135
88.3626 2.292
88.3929 2.500
88.4232 2.656
88.4535 2.031
88.4837 2.083
88.5140 2.344
88.5443 2.396
88.5746 2.344
88.6049 2.396
88.6351 2.135
88.6654 2.083
88.6957 2.344
88.7260 2.187
88.7562 1.458
88.7865 1.771
88.8168 2.552
88.8471 2.552
88.8774 1.719
88.9076 2.031
88.9379 1.771
88.9682 2.240
88.9985 2.396
89.0288 2.292
89.0590 1.562
89.0893 1.875
89.1196 2.500
89.1499 2.396
89.1801 2.135
89.2104 2.604
89.2407 2.031
89.2710 2.292
89.3013 2.344
89.3315 2.240
89.3618 2.865
89.3921 2.083
89.4224 2.344
89.4527 1.927
89.4829 2.604
89.5132 2.083
89.5435 1.771
89.5738 1.823
89.6040 2.240
89.6343 2.135
89.6646 2.135
89.6949 1.719
89.7252 2.240
89.7554 1.771
89.7857 1.562
89.8160 2.031
89.8463 2.031
89.8766 2.396
89.9068 1.354
89.9371 2.240
89.9674 1.979
89.9977 1.562
90.0279 1.667
90.0582 2.187
90.0885 2.135
90.1188 2.135
90.1491 2.187
90.1793 1.667
90.2096 2.448
90.2399 1.823
90.2702 2.187
90.3005 2.240
90.3307 1.667
90.3610 2.240
90.3913 2.135
90.4216 1.823
90.4518 1.615
90.4821 1.979
90.5124 2.292
90.5427 2.031
90.5730 1.979
90.6032 2.344
90.6335 2.135
90.6638 2.552
90.6941 2.135
90.7244 1.875
90.7546 2.344
90.7849 2.135
90.8152 2.240
90.8455 2.760
90.8758 1.979
90.9060 2.240
90.9363 2.708
90.9666 1.927
90.9969 2.031
91.0271 2.292
91.0574 1.823
91.0877 1.823
91.1180 2.344
91.1483 1.562
91.1785 1.667
91.2088 1.771
91.2391 2.448
91.2694 2.396
91.2997 1.875
91.3299 1.875
91.3602 2.500
91.3905 2.083
91.4208 1.771
91.4510 3.125
91.4813 2.031
91.5116 2.135
91.5419 1.927
91.5722 1.823
91.6024 1.771
91.6327 1.979
91.6630 2.083
91.6933 2.292
91.7236 2.031
91.7538 2.083
91.7841 2.708
91.8144 1.667
91.8447 2.135
91.8749 2.187
91.9052 2.135
91.9355 2.083
91.9658 2.187
91.9961 1.979
92.0263 1.823
92.0566 1.927
92.0869 2.083
92.1172 2.448
92.1475 1.927
92.1777 1.667
92.2080 2.344
92.2383 2.187
92.2686 2.187
92.2988 2.552
92.3291 2.500
92.3594 2.865
92.3897 2.917
92.4200 1.458
92.4502 1.719
92.4805 1.823
92.5108 2.552
92.5411 2.344
92.5714 1.198
92.6016 2.031
92.6319 1.667
92.6622 2.135
92.6925 2.031
92.7227 2.187
92.7530 1.927
92.7833 2.656
92.8136 1.562
92.8439 2.031
92.8741 1.875
92.9044 1.719
92.9347 2.292
92.9650 2.135
92.9953 1.719
93.0255 2.187
93.0558 1.719
93.0861 2.344
93.1164 1.927
93.1466 2.344
93.1769 1.667
93.2072 2.604
93.2375 2.344
93.2678 2.187
93.2980 2.448
93.3283 1.719
93.3586 2.187
93.3889 2.083
93.4192 1.562
93.4494 2.187
93.4797 1.615
93.5100 2.552
93.5403 2.135
93.5706 1.875
93.6008 2.083
93.6311 3.073
93.6614 1.927
93.6917 2.031
93.7219 2.083
93.7522 2.500
93.7825 2.083
93.8128 1.979
93.8431 2.344
93.8733 1.875
93.9036 1.719
93.9339 2.031
93.9642 2.187
93.9945 2.552
94.0247 1.771
94.0550 2.500
94.0853 1.510
94.1156 1.510
94.1458 2.187
94.1761 1.927
94.2064 2.292
94.2367 1.927
94.2670 1.823
94.2972 2.344
94.3275 2.708
94.3578 2.031
94.3881 1.927
94.4184 1.823
94.4486 1.927
94.4789 1.979
94.5092 1.875
94.5395 1.823
94.5697 3.073
94.6000 1.510
94.6303 1.615
94.6606 2.187
94.6909 1.615
94.7211 2.240
94.7514 1.562
94.7817 1.875
94.8120 2.135
94.8423 1.562
94.8725 1.667
94.9028 1.406
94.9331 2.187
94.9634 2.083
94.9936 2.135
95.0239 2.500
95.0542 1.927
95.0845 1.354
95.1148 1.719
95.1450 1.927
95.1753 1.719
95.2056 2.552
95.2359 2.135
95.2662 2.656
95.2964 2.083
95.3267 2.448
95.3570 2.396
95.3873 1.875
95.4175 1.667
95.4478 1.354
95.4781 1.667
95.5084 1.719
95.5387 1.875
95.5689 1.823
95.5992 1.719
95.6295 2.656
95.6598 1.458
95.6901 1.875
95.7203 1.719
95.7506 2.135
95.7809 1.458
95.8112 2.292
95.8414 1.615
95.8717 1.927
95.9020 1.771
95.9323 1.927
95.9626 1.771
95.9928 1.667
96.0231 2.031
96.0534 1.875
96.0837 1.458
96.1140 1.823
96.1442 2.135
96.1745 1.719
96.2048 1.615
96.2351 1.458
96.2653 2.135
96.2956 1.667
96.3259 1.458
96.3562 2.500
96.3865 2.083
96.4167 2.344
96.4470 1.562
96.4773 2.656
96.5076 2.344
96.5379 2.344
96.5681 2.187
96.5984 1.823
96.6287 2.031
96.6590 1.458
96.6893 2.240
96.7195 1.823
96.7498 1.979
96.7801 2.396
96.8104 2.031
96.8406 2.083
96.8709 1.771
96.9012 1.823
96.9315 1.458
96.9618 2.135
96.9920 1.979
97.0223 2.083
97.0526 2.135
97.0829 1.250
97.1132 1.927
97.1434 1.823
97.1737 2.396
97.2040 2.135
97.2343 1.979
97.2645 2.135
97.2948 2.083
97.3251 2.135
97.3554 2.760
97.3857 2.031
97.4159 2.292
97.4462 2.031
97.4765 2.448
97.5068 1.927
97.5371 2.187
97.5673 2.500
97.5976 2.031
97.6279 1.771
97.6582 1.979
97.6884 1.979
97.7187 2.292
97.7490 2.135
97.7793 2.135
97.8096 2.135
97.8398 2.448
97.8701 2.656
97.9004 2.135
97.9307 1.771
97.9610 1.406
97.9912 2.135
98.0215 2.187
98.0518 2.135
98.0821 2.344
98.1123 2.344
98.1426 1.354
98.1729 2.292
98.2032 1.979
98.2335 2.292
98.2637 2.396
98.2940 2.292
98.3243 1.719
98.3546 2.187
98.3849 2.187
98.4151 1.979
98.4454 2.031
98.4757 1.719
98.5060 1.927
98.5362 1.771
98.5665 2.083
98.5968 2.187
98.6271 1.771
98.6574 1.875
98.6876 2.083
98.7179 1.979
98.7482 1.875
98.7785 1.198
98.8088 2.292
98.8390 2.240
98.8693 1.927
98.8996 2.552
98.9299 1.771
98.9601 1.875
98.9904 1.823
99.0207 2.344
99.0510 2.187
99.0813 2.083
99.1115 1.250
99.1418 1.771
99.1721 1.927
99.2024 2.135
99.2327 1.823
99.2629 2.500
99.2932 2.187
99.3235 2.135
99.3538 1.823
99.3841 1.719
99.4143 1.979
99.4446 1.927
99.4749 1.302
99.5052 1.458
99.5354 2.083
99.5657 1.823
99.5960 2.344
99.6263 1.927
99.6566 2.083
99.6868 2.135
99.7171 2.396
99.7474 1.823
99.7777 2.083
99.8080 1.875
99.8382 2.708
99.8685 2.083
99.8988 1.927
99.9291 1.302
99.9593 2.656
99.9896 2.292
100.0199 2.031
100.0502 1.823
100.0805 2.135
100.1107 1.667
100.1410 1.875
100.1713 1.927
100.2016 1.823
100.2319 1.771
100.2621 2.552
100.2924 1.823
100.3227 1.875
100.3530 2.083
100.3832 1.458
100.4135 2.083
100.4438 2.031
100.4741 2.448
100.5044 1.927
100.5346 2.552
100.5649 2.135
100.5952 1.927
100.6255 1.771
100.6558 1.823
100.6860 2.031
100.7163 2.031
100.7466 1.302
100.7769 2.187
100.8071 1.510
100.8374 2.083
100.8677 2.187
100.8980 1.562
100.9283 1.823
100.9585 1.823
100.9888 1.719
101.0191 1.042
101.0494 1.875
101.0797 1.875
101.1099 1.823
101.1402 1.979
101.1705 2.083
101.2008 1.771
101.2310 1.771
101.2613 1.875
101.2916 1.927
101.3219 2.240
101.3522 1.979
101.3824 1.667
101.4127 1.406
101.4430 1.875
101.4733 1.562
101.5036 1.562
101.5338 1.979
101.5641 1.979
101.5944 1.406
101.6247 1.875
101.6549 2.031
101.6852 2.031
101.7155 2.344
101.7458 2.031
101.7761 1.510
101.8063 1.250
101.8366 1.771
101.8669 1.615
101.8972 1.927
101.9275 2.604
101.9577 2.187
101.9880 1.875
102.0183 2.031
102.0486 1.875
102.0788 1.875
102.1091 1.615
102.1394 2.292
102.1697 1.458
102.2000 1.927
102.2302 1.562
102.2605 2.083
102.2908 2.135
102.3211 2.031
102.3514 1.719
102.3816 1.927
102.4119 1.510
102.4422 1.771
102.4725 1.823
102.5028 1.771
102.5330 1.719
102.5633 1.667
102.5936 2.083
102.6239 2.448
102.6541 1.875
102.6844 1.510
102.7147 1.875
102.7450 1.771
102.7753 1.979
102.8055 1.771
102.8358 1.667
102.8661 2.917
102.8964 1.771
102.9267 1.562
102.9569 1.458
102.9872 1.771
103.0175 2.083
103.0478 1.875
103.0780 2.083
103.1083 1.823
103.1386 2.500
103.1689 1.771
103.1992 2.187
103.2294 2.292
103.2597 1.927
103.2900 1.979
103.3203 1.875
103.3506 1.510
103.3808 1.562
103.4111 1.823
103.4414 1.875
103.4717 1.667
103.5019 1.354
103.5322 2.083
103.5625 2.083
103.5928 1.927
103.6231 1.719
103.6533 2.396
103.6836 1.667
103.7139 2.344
103.7442 1.979
103.7745 1.667
103.8047 2.187
103.8350 1.406
103.8653 1.823
103.8956 2.135
103.9258 2.083
103.9561 1.927
103.9864 1.562
104.0167 2.083
104.0470 2.500
104.0772 2.135
104.1075 1.927
104.1378 1.979
104.1681 1.771
104.1984 1.823
104.2286 1.667
104.2589 2.135
104.2892 2.187
104.3195 1.875
104.3497 1.875
104.3800 1.458
104.4103 1.667
104.4406 1.510
104.4709 1.823
104.5011 1.406
104.5314 2.187
104.5617 1.823
104.5920 1.250
104.6223 2.135
104.6525 1.979
104.6828 1.979
104.7131 1.875
104.7434 1.771
104.7736 1.927
104.8039 1.719
104.8342 1.771
104.8645 1.667
104.8948 1.823
104.9250 1.510
104.9553 1.979
104.9856 2.500
105.0159 1.875
105.0462 1.615
105.0764 1.458
105.1067 1.771
105.1370 1.927
105.1673 1.667
105.1975 2.031
105.2278 1.979
105.2581 1.562
105.2884 1.979
105.3187 2.083
105.3489 2.135
105.3792 1.458
105.4095 1.615
105.4398 2.031
105.4701 1.562
105.5003 1.250
105.5306 1.406
105.5609 1.562
105.5912 1.823
105.6215 1.719
105.6517 1.406
105.6820 1.458
105.7123 2.448
105.7426 2.031
105.7728 1.719
105.8031 2.240
105.8334 2.187
105.8637 2.187
105.8940 1.719
105.9242 1.875
105.9545 2.187
105.9848 1.406
106.0151 1.979
106.0454 1.979
106.0756 1.406
106.1059 2.031
106.1362 1.875
106.1665 1.667
106.1967 2.292
106.2270 1.927
106.2573 2.187
106.2876 1.667
106.3179 1.302
106.3481 1.458
106.3784 1.979
106.4087 1.562
106.4390 1.979
106.4693 2.031
106.4995 1.719
106.5298 1.615
106.5601 2.187
106.5904 1.562
106.6206 2.135
106.6509 1.719
106.6812 2.187
106.7115 1.979
106.7418 1.615
106.7720 1.615
106.8023 1.458
106.8326 1.667
106.8629 1.562
106.8932 1.979
106.9234 1.667
106.9537 1.771
106.9840 1.458
107.0143 1.667
107.0445 1.458
107.0748 1.458
107.1051 1.719
107.1354 1.302
107.1657 1.667
107.1959 2.031
107.2262 1.562
107.2565 1.875
107.2868 1.354
107.3171 2.292
107.3473 1.667
107.3776 2.083
107.4079 1.510
107.4382 1.823
107.4684 1.719
107.4987 1.146
107.5290 1.615
107.5593 2.552
107.5896 1.719
107.6198 1.927
107.6501 1.667
107.6804 2.187
107.7107 1.823
107.7410 1.927
107.7712 1.562
107.8015 1.615
107.8318 1.615
107.8621 1.510
107.8923 1.771
107.9226 2.448
107.9529 1.875
107.9832 2.031
108.0135 2.135
108.0437 1.927
108.0740 1.927
108.1043 1.667
108.1346 1.615
108.1649 1.979
108.1951 1.250
108.2254 2.031
108.2557 1.510
108.2860 2.083
108.3163 1.927
108.3465 1.875
108.3768 1.719
108.4071 2.292
108.4374 1.406
108.4676 2.135
108.4979 1.823
108.5282 1.823
108.5585 2.240
108.5888 1.771
108.6190 1.771
108.6493 1.510
108.6796 1.510
108.7099 2.135
108.7402 1.094
108.7704 1.146
108.8007 1.771
108.8310 1.719
108.8613 2.083
108.8915 2.031
108.9218 1.615
108.9521 1.875
108.9824 1.458
109.0127 2.083
109.0429 1.667
109.0732 2.135
109.1035 1.510
109.1338 1.667
109.1641 2.344
109.1943 2.292
109.2246 1.823
109.2549 1.927
109.2852 1.823
109.3154 1.510
109.3457 1.875
109.3760 1.510
109.4063 2.604
109.4366 1.510
109.4668 1.927
109.4971 1.562
109.5274 1.823
109.5577 1.667
109.5880 1.562
109.6182 1.510
109.6485 1.406
109.6788 1.927
109.7091 2.083
109.7393 1.562
109.7696 1.719
109.7999 1.667
109.8302 2.292
109.8605 1.667
109.8907 1.458
109.9210 1.875
109.9513 1.354
109.9816 1.406
110.0119 1.562
110.0421 1.875
110.0724 1.302
110.1027 1.615
110.1330 1.615
110.1632 1.198
110.1935 1.146
110.2238 1.562
110.2541 2.031
110.2844 1.875
110.3146 1.771
110.3449 1.667
110.3752 1.719
110.4055 1.094
110.4358 2.031
110.4660 2.031
110.4963 1.719
110.5266 1.719
110.5569 1.615
110.5871 1.875
110.6174 1.927
110.6477 1.823
110.6780 2.031
110.7083 1.562
110.7385 1.615
110.7688 1.927
110.7991 1.667
110.8294 1.667
110.8597 2.031
110.8899 1.615
110.9202 1.615
110.9505 1.667
110.9808 1.875
111.0110 1.719
111.0413 1.667
111.0716 2.083
111.1019 1.406
111.1322 1.406
111.1624 1.719
111.1927 2.031
111.2230 1.771
111.2533 1.198
111.2836 1.979
111.3138 1.667
111.3441 2.292
111.3744 1.615
111.4047 2.083
111.4350 1.927
111.4652 1.667
111.4955 1.562
111.5258 1.667
111.5561 1.667
111.5863 1.458
111.6166 1.719
111.6469 1.510
111.6772 1.198
111.7075 2.292
111.7377 1.562
111.7680 1.510
111.7983 2.135
111.8286 1.719
111.8589 1.510
111.8891 2.187
111.9194 1.719
111.9497 1.354
111.9800 1.406
112.0102 1.354
112.0405 1.771
112.0708 1.927
112.1011 2.187
112.1314 1.562
112.1616 1.667
112.1919 2.500
112.2222 1.823
112.2525 2.292
112.2828 1.875
112.3130 1.979
112.3433 1.719
112.3736 1.510
112.4039 1.615
112.4341 1.562
112.4644 1.875
112.4947 1.458
112.5250 1.771
112.5553 1.771
112.5855 1.302
112.6158 2.344
112.6461 1.719
112.6764 1.771
112.7067 2.240
112.7369 1.875
112.7672 1.667
112.7975 1.771
112.8278 1.250
112.8580 1.302
112.8883 1.771
112.9186 2.083
112.9489 1.719
112.9792 1.667
113.0094 1.667
113.0397 1.667
113.0700 1.719
113.1003 2.292
113.1306 2.240
113.1608 2.187
113.1911 1.823
113.2214 1.198
113.2517 1.458
113.2819 2.656
113.3122 1.927
113.3425 1.719
113.3728 2.292
113.4031 1.979
113.4333 1.667
113.4636 2.292
113.4939 1.823
113.5242 1.094
113.5545 2.135
113.5847 1.667
113.6150 1.823
113.6453 2.031
113.6756 2.083
113.7058 1.719
113.7361 1.927
113.7664 1.667
113.7967 1.771
113.8270 1.823
113.8572 1.510
113.8875 2.031
113.9178 1.875
113.9481 1.875
113.9784 1.771
114.0086 1.667
114.0389 1.979
114.0692 2.552
114.0995 1.458
114.1298 1.823
114.1600 1.771
114.1903 2.031
114.2206 1.771
114.2509 1.667
114.2811 1.823
114.3114 1.510
114.3417 1.667
114.3720 2.187
114.4023 2.292
114.4325 2.031
114.4628 2.083
114.4931 1.875
114.5234 1.823
114.5537 1.198
114.5839 1.823
114.6142 1.562
114.6445 1.771
114.6748 1.771
114.7050 1.667
114.7353 1.979
114.7656 1.719
114.7959 2.396
114.8262 2.240
114.8564 1.823
114.8867 1.719
114.9170 1.562
114.9473 1.510
114.9776 2.396
115.0078 2.396
115.0381 2.135
115.0684 1.510
115.0987 1.719
115.1289 1.667
115.1592 1.875
115.1895 1.667
115.2198 1.875
115.2501 1.979
115.2803 2.135
115.3106 1.927
115.3409 1.979
115.3712 1.823
115.4015 1.927
115.4317 1.875
115.4620 2.396
115.4923 1.458
115.5226 1.771
115.5528 1.615
115.5831 2.135
115.6134 2.135
115.6437 1.719
115.6740 1.562
115.7042 1.979
115.7345 2.083
115.7648 1.875
115.7951 1.667
115.8254 1.927
115.8556 1.875
115.8859 2.083
115.9162 2.135
115.9465 1.406
115.9767 1.927
116.0070 2.031
116.0373 1.719
116.0676 2.187
116.0979 1.198
116.1281 1.719
116.1584 1.927
116.1887 2.240
116.2190 1.667
116.2493 1.667
116.2795 1.927
116.3098 1.927
116.3401 1.510
116.3704 1.719
116.4006 1.667
116.4309 1.458
116.4612 1.458
116.4915 1.927
116.5218 1.823
116.5520 1.979
116.5823 2.552
116.6126 2.135
116.6429 1.719
116.6732 2.396
116.7034 2.292
116.7337 1.979
116.7640 2.344
116.7943 1.667
116.8245 1.615
116.8548 1.979
116.8851 1.875
116.9154 1.823
116.9457 1.875
116.9759 1.927
117.0062 1.875
117.0365 1.510
117.0668 1.979
117.0971 2.031
117.1273 1.927
117.1576 1.562
117.1879 1.667
117.2182 1.198
117.2485 1.927
117.2787 2.031
117.3090 2.292
117.3393 1.719
117.3696 1.979
117.3998 1.719
117.4301 2.031
117.4604 1.302
117.4907 1.406
117.5210 1.250
117.5512 1.250
117.5815 1.771
117.6118 1.458
117.6421 1.667
117.6724 1.823
117.7026 1.927
117.7329 1.250
117.7632 2.031
117.7935 1.354
117.8237 1.771
117.8540 1.875
117.8843 1.719
117.9146 1.458
117.9449 2.083
117.9751 1.615
118.0054 2.396
118.0357 2.031
118.0660 1.042
118.0963 2.500
118.1265 1.510
118.1568 1.354
118.1871 2.500
118.2174 1.562
118.2476 1.875
118.2779 2.292
118.3082 1.771
118.3385 1.771
118.3688 2.031
118.3990 1.615
118.4293 2.292
118.4596 2.344
118.4899 1.562
118.5202 1.823
118.5504 1.875
118.5807 1.927
118.6110 1.250
118.6413 1.667
118.6715 1.458
118.7018 2.135
118.7321 1.875
118.7624 1.354
118.7927 2.135
118.8229 2.135
118.8532 1.979
118.8835 1.719
118.9138 1.927
118.9441 1.719
118.9743 2.083
119.0046 2.135
119.0349 1.979
119.0652 2.031
119.0954 1.406
119.1257 1.042
119.1560 2.135
119.1863 1.823
119.2166 2.552
119.2468 2.708
119.2771 1.458
119.3074 1.927
119.3377 1.406
119.3680 1.979
119.3982 2.292
119.4285 2.083
119.4588 1.719
119.4891 2.292
119.5193 2.448
119.5496 2.083
119.5799 1.094
119.6102 2.292
119.6405 1.875
119.6707 2.083
119.7010 1.979
119.7313 1.562
119.7616 1.667
119.7919 1.719
119.8221 1.354
119.8524 2.240
119.8827 1.979
119.9130 1.406
119.9433 1.823
119.9735 1.406
120.0038 1.510
