'Id: "" Comment: "" Operator: "Lab Manager" Anode: "Cu" Scantype: "Locked Coupled" TimePerStep: "19.2" X: "9999" Y: "9999" Z: "9999" 
10.0015 3.958
10.0318 3.542
10.0620 3.229
10.0923 2.812
10.1226 3.333
10.1529 3.958
10.1832 4.219
10.2134 4.062
10.2437 4.010
10.2740 4.010
10.3043 3.698
10.3346 4.115
10.3648 3.698
10.3951 4.167
10.4254 4.271
10.4557 3.281
10.4859 3.750
10.5162 3.333
10.5465 4.687
10.5768 4.115
10.6071 3.750
10.6373 3.958
10.6676 2.552
10.6979 4.062
10.7282 3.906
10.7585 3.490
10.7887 3.854
10.8190 3.385
10.8493 3.802
10.8796 4.010
10.9098 4.687
10.9401 3.333
10.9704 3.906
11.0007 4.740
11.0310 4.323
11.0612 4.479
11.0915 3.437
11.1218 4.375
11.1521 3.854
11.1824 3.958
11.2126 3.385
11.2429 3.490
11.2732 3.854
11.3035 3.802
11.3337 2.969
11.3640 3.490
11.3943 3.333
11.4246 3.073
11.4549 4.010
11.4851 3.750
11.5154 2.969
11.5457 4.271
11.5760 3.646
11.6063 3.698
11.6365 2.604
11.6668 4.271
11.6971 3.958
11.7274 3.906
11.7577 3.490
11.7879 3.125
11.8182 2.708
11.8485 3.125
11.8788 2.969
11.9090 3.177
11.9393 3.698
11.9696 3.750
11.9999 3.958
12.0302 2.396
12.0604 2.865
12.0907 2.865
12.1210 2.552
12.1513 2.969
12.1816 3.073
12.2118 3.802
12.2421 3.594
12.2724 3.698
12.3027 3.542
12.3329 4.219
12.3632 2.969
12.3935 3.333
12.4238 2.500
12.4541 2.656
12.4843 2.917
12.5146 3.698
12.5449 3.125
12.5752 2.812
12.6055 3.021
12.6357 3.177
12.6660 3.073
12.6963 3.385
12.7266 3.906
12.7568 3.646
12.7871 3.490
12.8174 2.552
12.8477 2.656
12.8780 2.708
12.9082 2.552
12.9385 3.333
12.9688 2.552
12.9991 3.333
13.0294 3.333
13.0596 2.760
13.0899 3.437
13.1202 3.490
13.1505 2.708
13.1807 2.344
13.2110 3.281
13.2413 3.490
13.2716 3.385
13.3019 2.917
13.3321 2.500
13.3624 2.812
13.3927 3.802
13.4230 2.865
13.4533 2.865
13.4835 2.917
13.5138 3.281
13.5441 4.323
13.5744 3.385
13.6046 3.385
13.6349 3.385
13.6652 3.594
13.6955 3.698
13.7258 2.708
13.7560 2.760
13.7863 2.917
13.8166 3.281
13.8469 3.385
13.8772 3.385
13.9074 3.385
13.9377 2.760
13.9680 2.969
13.9983 3.229
14.0285 2.708
14.0588 3.021
14.0891 2.448
14.1194 2.500
14.1497 2.812
14.1799 2.969
14.2102 2.292
14.2405 3.385
14.2708 2.448
14.3011 2.656
14.3313 3.490
14.3616 2.708
14.3919 2.708
14.4222 3.333
14.4524 3.854
14.4827 2.812
14.5130 2.396
14.5433 3.385
14.5736 2.500
14.6038 3.437
14.6341 3.073
14.6644 3.125
14.6947 2.396
14.7250 2.448
14.7552 2.240
14.7855 3.177
14.8158 1.927
14.8461 2.760
14.8764 2.396
14.9066 1.979
14.9369 3.281
14.9672 2.760
14.9975 3.177
15.0277 2.812
15.0580 3.125
15.0883 1.979
15.1186 3.021
15.1489 2.812
15.1791 2.812
15.2094 3.125
15.2397 3.073
15.2700 3.229
15.3003 2.656
15.3305 2.396
15.3608 3.906
15.3911 1.667
15.4214 2.083
15.4516 3.073
15.4819 2.708
15.5122 3.594
15.5425 3.229
15.5728 2.448
15.6030 3.437
15.6333 3.750
15.6636 2.396
15.6939 2.187
15.7242 2.656
15.7544 2.917
15.7847 3.333
15.8150 3.177
15.8453 2.917
15.8755 2.187
15.9058 3.021
15.9361 1.875
15.9664 3.125
15.9967 2.604
16.0269 2.865
16.0572 2.240
16.0875 2.708
16.1178 2.656
16.1481 2.865
16.1783 1.927
16.2086 2.604
16.2389 2.552
16.2692 2.500
16.2994 3.021
16.3297 2.708
16.3600 2.865
16.3903 3.177
16.4206 2.812
16.4508 3.073
16.4811 3.177
16.5114 2.135
16.5417 3.177
16.5720 2.917
16.6022 2.865
16.6325 2.240
16.6628 2.656
16.6931 3.281
16.7233 2.656
16.7536 2.344
16.7839 2.969
16.8142 3.021
16.8445 2.812
16.8747 2.292
16.9050 2.344
16.9353 2.344
16.9656 2.760
16.9959 2.812
17.0261 2.187
17.0564 2.917
17.0867 2.865
17.1170 2.292
17.1472 2.812
17.1775 3.229
17.2078 2.812
17.2381 2.969
17.2684 2.917
17.2986 2.135
17.3289 2.292
17.3592 3.281
17.3895 2.448
17.4198 2.969
17.4500 1.823
17.4803 1.927
17.5106 2.760
17.5409 3.125
17.5712 3.229
17.6014 3.437
17.6317 2.135
17.6620 2.708
17.6923 2.708
17.7225 2.292
17.7528 3.073
17.7831 1.615
17.8134 2.969
17.8437 2.500
17.8739 2.240
17.9042 2.552
17.9345 3.125
17.9648 3.021
17.9951 2.187
18.0253 2.187
18.0556 2.865
18.0859 1.979
18.1162 2.552
18.1464 2.448
18.1767 1.719
18.2070 1.875
18.2373 2.396
18.2676 2.708
18.2978 2.552
18.3281 3.021
18.3584 2.760
18.3887 2.240
18.4190 2.604
18.4492 2.552
18.4795 2.917
18.5098 2.396
18.5401 2.083
18.5703 2.396
18.6006 2.135
18.6309 1.875
18.6612 2.812
18.6915 1.823
18.7217 2.917
18.7520 2.552
18.7823 3.073
18.8126 2.604
18.8429 2.292
18.8731 3.229
18.9034 1.458
18.9337 2.604
18.9640 2.344
18.9942 2.448
19.0245 2.448
19.0548 3.073
19.0851 2.969
19.1154 2.083
19.1456 2.187
19.1759 3.333
19.2062 2.448
19.2365 2.135
19.2668 2.187
19.2970 2.240
19.3273 2.396
19.3576 2.500
19.3879 1.875
19.4181 3.021
19.4484 2.031
19.4787 2.500
19.5090 2.031
19.5393 3.073
19.5695 3.125
19.5998 2.240
19.6301 2.500
19.6604 1.979
19.6907 2.448
19.7209 2.500
19.7512 1.771
19.7815 2.396
19.8118 2.917
19.8420 2.083
19.8723 3.490
19.9026 2.812
19.9329 2.135
19.9632 2.240
19.9934 2.240
20.0237 1.979
20.0540 2.083
20.0843 2.865
20.1146 1.875
20.1448 1.979
20.1751 2.760
20.2054 2.396
20.2357 2.344
20.2659 2.865
20.2962 3.229
20.3265 1.823
20.3568 2.708
20.3871 1.667
20.4173 2.083
20.4476 2.604
20.4779 2.396
20.5082 1.979
20.5385 2.448
20.5687 2.187
20.5990 2.500
20.6293 2.448
20.6596 1.823
20.6899 2.240
20.7201 2.708
20.7504 2.708
20.7807 2.187
20.8110 2.396
20.8412 1.510
20.8715 2.552
20.9018 1.979
20.9321 2.187
20.9624 3.437
20.9926 1.979
21.0229 1.823
21.0532 2.344
21.0835 2.500
21.1138 1.823
21.1440 2.969
21.1743 3.281
21.2046 2.135
21.2349 1.667
21.2651 2.187
21.2954 2.396
21.3257 2.760
21.3560 2.604
21.3863 1.875
21.4165 2.187
21.4468 1.927
21.4771 2.187
21.5074 2.604
21.5377 1.979
21.5679 2.031
21.5982 2.708
21.6285 1.979
21.6588 2.083
21.6890 2.240
21.7193 2.448
21.7496 2.656
21.7799 2.083
21.8102 2.240
21.8404 2.083
21.8707 2.135
21.9010 2.865
21.9313 2.135
21.9616 2.135
21.9918 2.240
22.0221 2.604
22.0524 2.812
22.0827 2.604
22.1129 2.500
22.1432 2.396
22.1735 2.083
22.2038 1.510
22.2341 2.552
22.2643 2.240
22.2946 2.552
22.3249 2.708
22.3552 1.562
22.3855 1.875
22.4157 2.292
22.4460 2.344
22.4763 2.083
22.5066 2.500
22.5368 1.562
22.5671 2.187
22.5974 2.031
22.6277 1.875
22.6580 1.927
22.6882 2.708
22.7185 2.292
22.7488 1.771
22.7791 2.292
22.8094 1.667
22.8396 2.552
22.8699 1.875
22.9002 2.760
22.9305 2.344
22.9607 2.656
22.9910 1.719
23.0213 1.875
23.0516 2.708
23.0819 2.344
23.1121 1.927
23.1424 2.031
23.1727 2.969
23.2030 1.875
23.2333 2.448
23.2635 1.667
23.2938 2.552
23.3241 2.344
23.3544 2.187
23.3846 1.979
23.4149 2.500
23.4452 2.187
23.4755 2.240
23.5058 2.187
23.5360 2.552
23.5663 1.615
23.5966 2.396
23.6269 1.823
23.6572 2.083
23.6874 1.979
23.7177 2.396
23.7480 1.979
23.7783 2.760
23.8086 2.187
23.8388 2.240
23.8691 2.187
23.8994 1.875
23.9297 2.708
23.9599 1.823
23.9902 2.500
24.0205 1.927
24.0508 1.562
24.0811 1.667
24.1113 1.719
24.1416 2.448
24.1719 2.448
24.2022 1.615
24.2325 2.187
24.2627 1.979
24.2930 2.448
24.3233 2.552
24.3536 2.187
24.3838 1.771
24.4141 3.125
24.4444 1.615
24.4747 2.187
24.5050 1.875
24.5352 2.292
24.5655 2.500
24.5958 1.823
24.6261 1.458
24.6564 2.917
24.6866 2.083
24.7169 1.979
24.7472 2.760
24.7775 2.083
24.8077 1.458
24.8380 2.135
24.8683 2.552
24.8986 2.187
24.9289 2.812
24.9591 1.667
24.9894 2.031
25.0197 1.979
25.0500 1.719
25.0803 2.500
25.1105 1.979
25.1408 3.281
25.1711 1.771
25.2014 2.240
25.2316 2.031
25.2619 1.823
25.2922 1.354
25.3225 2.083
25.3528 2.344
25.3830 2.292
25.4133 2.292
25.4436 2.031
25.4739 2.396
25.5042 1.927
25.5344 2.135
25.5647 2.083
25.5950 2.083
25.6253 1.615
25.6555 1.979
25.6858 2.656
25.7161 2.396
25.7464 2.448
25.7767 1.615
25.8069 2.031
25.8372 1.719
25.8675 2.292
25.8978 1.719
25.9281 1.927
25.9583 1.979
25.9886 2.135
26.0189 2.500
26.0492 1.979
26.0794 2.187
26.1097 2.187
26.1400 2.187
26.1703 2.604
26.2006 2.396
26.2308 1.823
26.2611 2.344
26.2914 2.500
26.3217 2.604
26.3520 2.083
26.3822 2.031
26.4125 2.448
26.4428 2.604
26.4731 2.448
26.5034 2.500
26.5336 2.135
26.5639 2.240
26.5942 2.292
26.6245 2.187
26.6547 2.083
26.6850 3.177
26.7153 2.708
26.7456 1.875
26.7759 2.187
26.8061 2.500
26.8364 2.135
26.8667 2.448
26.8970 3.021
26.9273 2.656
26.9575 1.719
26.9878 2.448
27.0181 2.135
27.0484 2.552
27.0786 2.656
27.1089 2.292
27.1392 1.354
27.1695 2.344
27.1998 2.812
27.2300 2.396
27.2603 2.187
27.2906 2.240
27.3209 2.187
27.3512 1.927
27.3814 2.448
27.4117 1.875
27.4420 1.771
27.4723 2.031
27.5025 2.187
27.5328 2.552
27.5631 2.187
27.5934 2.552
27.6237 2.135
27.6539 2.396
27.6842 2.500
27.7145 2.083
27.7448 2.708
27.7751 2.240
27.8053 2.135
27.8356 1.823
27.8659 2.240
27.8962 2.500
27.9264 2.396
27.9567 2.760
27.9870 2.552
28.0173 2.917
28.0476 2.917
28.0778 2.500
28.1081 2.552
28.1384 2.344
28.1687 2.656
28.1990 2.656
28.2292 2.344
28.2595 3.125
28.2898 2.292
28.3201 2.656
28.3503 2.865
28.3806 2.656
28.4109 2.917
28.4412 2.708
28.4715 2.760
28.5017 2.812
28.5320 2.812
28.5623 2.969
28.5926 2.396
28.6229 2.708
28.6531 2.135
28.6834 1.979
28.7137 1.771
28.7440 2.500
28.7742 2.396
28.8045 2.812
28.8348 3.125
28.8651 3.125
28.8954 3.021
28.9256 2.135
28.9559 2.292
28.9862 2.552
29.0165 3.021
29.0468 2.760
29.0770 2.292
29.1073 2.187
29.1376 2.656
29.1679 1.875
29.1981 2.760
29.2284 2.552
29.2587 2.552
29.2890 2.292
29.3193 2.865
29.3495 2.344
29.3798 3.073
29.4101 3.125
29.4404 2.344
29.4707 2.656
29.5009 2.969
29.5312 2.240
29.5615 2.240
29.5918 2.865
29.6221 2.812
29.6523 2.656
29.6826 3.229
29.7129 3.385
29.7432 3.542
29.7734 3.333
29.8037 3.021
29.8340 2.448
29.8643 2.552
29.8946 3.281
29.9248 3.385
29.9551 3.177
29.9854 2.187
30.0157 3.229
30.0460 3.385
30.0762 3.594
30.1065 2.708
30.1368 3.125
30.1671 3.437
30.1973 2.865
30.2276 3.229
30.2579 2.969
30.2882 3.021
30.3185 3.802
30.3487 3.646
30.3790 4.010
30.4093 3.333
30.4396 3.802
30.4699 4.687
30.5001 3.281
30.5304 4.167
30.5607 3.646
30.5910 4.583
30.6212 3.906
30.6515 4.323
30.6818 4.271
30.7121 4.635
30.7424 4.115
30.7726 4.792
30.8029 4.375
30.8332 5.833
30.8635 4.479
30.8938 5.312
30.9240 4.740
30.9543 6.250
30.9846 4.844
31.0149 6.094
31.0451 6.042
31.0754 7.292
31.1057 6.562
31.1360 7.865
31.1663 8.125
31.1965 9.844
31.2268 9.896
31.2571 10.990
31.2874 11.615
31.3177 13.646
31.3479 15.885
31.3782 18.125
31.4085 21.615
31.4388 25.365
31.4690 31.667
31.4993 36.875
31.5296 44.948
31.5599 50.729
31.5902 57.865
31.6204 59.740
31.6507 60.260
31.6810 53.281
31.7113 47.344
31.7416 40.104
31.7718 32.708
31.8021 28.542
31.8324 24.167
31.8627 21.927
31.8929 18.125
31.9232 13.802
31.9535 13.021
31.9838 11.094
32.0141 9.375
32.0443 8.906
32.0746 8.646
32.1049 8.073
32.1352 7.135
32.1655 7.135
32.1957 5.990
32.2260 6.719
32.2563 5.729
32.2866 5.677
32.3169 6.667
32.3471 6.042
32.3774 5.729
32.4077 4.740
32.4380 4.583
32.4682 4.740
32.4985 4.583
32.5288 4.583
32.5591 5.260
32.5894 4.271
32.6196 3.594
32.6499 4.219
32.6802 4.115
32.7105 4.427
32.7408 4.115
32.7710 4.323
32.8013 4.219
32.8316 4.792
32.8619 3.906
32.8921 3.854
32.9224 4.323
32.9527 3.542
32.9830 4.219
33.0133 5.104
33.0435 3.958
33.0738 3.854
33.1041 4.687
33.1344 3.542
33.1647 4.010
33.1949 3.802
33.2252 3.542
33.2555 3.542
33.2858 4.687
33.3160 4.792
33.3463 4.271
33.3766 4.427
33.4069 3.802
33.4372 4.271
33.4674 4.375
33.4977 4.948
33.5280 3.802
33.5583 4.271
33.5886 3.646
33.6188 3.854
33.6491 5.312
33.6794 5.781
33.7097 5.208
33.7399 5.469
33.7702 5.781
33.8005 6.146
33.8308 5.833
33.8611 7.031
33.8913 8.698
33.9216 9.115
33.9519 8.490
33.9822 10.052
34.0125 10.833
34.0427 12.604
34.0730 15.208
34.1033 19.583
34.1336 23.281
34.1638 30.156
34.1941 40.573
34.2244 56.562
34.2547 69.323
34.2850 71.198
34.3152 63.542
34.3455 57.240
34.3758 46.094
34.4061 30.781
34.4364 22.500
34.4666 19.115
34.4969 14.479
34.5272 11.823
34.5575 10.833
34.5877 10.885
34.6180 9.323
34.6483 9.323
34.6786 7.292
34.7089 7.187
34.7391 7.396
34.7694 7.240
34.7997 6.250
34.8300 5.156
34.8603 6.458
34.8905 5.990
34.9208 6.458
34.9511 5.625
34.9814 5.885
35.0116 5.156
35.0419 5.781
35.0722 5.833
35.1025 6.250
35.1328 4.844
35.1630 6.198
35.1933 5.104
35.2236 5.573
35.2539 5.312
35.2842 5.312
35.3144 7.031
35.3447 6.094
35.3750 6.875
35.4053 7.396
35.4356 6.875
35.4658 7.500
35.4961 7.917
35.5264 9.219
35.5567 8.281
35.5869 10.677
35.6172 10.833
35.6475 9.687
35.6778 11.354
35.7081 12.083
35.7383 14.948
35.7686 14.948
35.7989 20.052
35.8292 20.052
35.8595 23.333
35.8897 29.010
35.9200 38.281
35.9503 44.010
35.9806 52.396
36.0108 60.104
36.0411 75.052
36.0714 84.062
36.1017 86.458
36.1320 84.792
36.1622 82.552
36.1925 70.677
36.2228 66.823
36.2531 53.437
36.2834 43.281
36.3136 35.781
36.3439 30.990
36.3742 23.437
36.4045 19.427
36.4347 18.854
36.4650 16.719
36.4953 13.802
36.5256 13.229
36.5559 11.667
36.5861 10.781
36.6164 10.312
36.6467 9.271
36.6770 8.177
36.7073 6.771
36.7375 7.292
36.7678 5.885
36.7981 6.146
36.8284 5.833
36.8586 6.146
36.8889 5.208
36.9192 6.406
36.9495 5.312
36.9798 4.635
37.0100 5.417
37.0403 4.375
37.0706 4.323
37.1009 4.323
37.1312 4.375
37.1614 3.854
37.1917 4.271
37.2220 4.219
37.2523 3.698
37.2825 3.490
37.3128 3.854
37.3431 3.021
37.3734 3.490
37.4037 3.125
37.4339 3.333
37.4642 3.490
37.4945 3.125
37.5248 3.594
37.5551 3.802
37.5853 3.125
37.6156 3.385
37.6459 2.500
37.6762 4.167
37.7064 3.333
37.7367 2.760
37.7670 3.750
37.7973 2.917
37.8276 3.125
37.8578 3.073
37.8881 3.177
37.9184 2.708
37.9487 2.760
37.9790 2.969
38.0092 2.292
38.0395 2.083
38.0698 3.021
38.1001 2.344
38.1304 2.187
38.1606 1.927
38.1909 2.656
38.2212 2.344
38.2515 2.865
38.2817 2.812
38.3120 2.083
38.3423 2.760
38.3726 2.917
38.4029 2.292
38.4331 2.240
38.4634 2.760
38.4937 2.187
38.5240 1.979
38.5543 2.812
38.5845 2.135
38.6148 2.604
38.6451 1.979
38.6754 2.187
38.7056 2.083
38.7359 1.875
38.7662 1.927
38.7965 2.135
38.8268 2.083
38.8570 2.552
38.8873 2.656
38.9176 1.823
38.9479 2.083
38.9782 2.187
39.0084 1.510
39.0387 1.979
39.0690 2.552
39.0993 1.771
39.1295 2.396
39.1598 2.083
39.1901 1.667
39.2204 2.500
39.2507 1.979
39.2809 2.031
39.3112 2.083
39.3415 2.187
39.3718 1.667
39.4021 1.979
39.4323 2.604
39.4626 2.240
39.4929 2.396
39.5232 1.771
39.5534 1.667
39.5837 2.344
39.6140 1.510
39.6443 1.823
39.6746 1.927
39.7048 1.719
39.7351 1.927
39.7654 1.458
39.7957 2.500
39.8260 2.292
39.8562 2.448
39.8865 1.875
39.9168 1.719
39.9471 1.719
39.9773 2.240
40.0076 2.083
40.0379 2.187
40.0682 2.187
40.0985 1.458
40.1287 2.187
40.1590 1.667
40.1893 1.823
40.2196 2.396
40.2499 1.823
40.2801 1.354
40.3104 1.510
40.3407 1.823
40.3710 1.042
40.4012 2.187
40.4315 1.875
40.4618 2.031
40.4921 1.875
40.5224 1.979
40.5526 1.875
40.5829 1.510
40.6132 2.292
40.6435 2.656
40.6738 2.083
40.7040 1.615
40.7343 2.448
40.7646 1.354
40.7949 1.667
40.8251 1.302
40.8554 1.562
40.8857 2.240
40.9160 2.240
40.9463 1.979
40.9765 1.719
41.0068 1.979
41.0371 1.771
41.0674 1.823
41.0977 1.927
41.1279 1.510
41.1582 1.562
41.1885 1.615
41.2188 1.823
41.2491 1.615
41.2793 1.719
41.3096 1.302
41.3399 1.042
41.3702 1.771
41.4004 1.250
41.4307 1.458
41.4610 2.604
41.4913 2.656
41.5216 1.927
41.5518 1.979
41.5821 1.667
41.6124 1.615
41.6427 1.042
41.6730 1.667
41.7032 1.510
41.7335 1.354
41.7638 1.823
41.7941 1.562
41.8243 1.510
41.8546 1.302
41.8849 1.250
41.9152 1.615
41.9455 1.562
41.9757 1.927
42.0060 1.562
42.0363 1.562
42.0666 1.615
42.0969 2.083
42.1271 1.667
42.1574 1.667
42.1877 1.719
42.2180 1.510
42.2482 1.510
42.2785 1.927
42.3088 1.458
42.3391 2.135
42.3694 1.562
42.3996 1.458
42.4299 1.562
42.4602 1.927
42.4905 1.823
42.5208 1.823
42.5510 1.771
42.5813 2.240
42.6116 1.198
42.6419 1.875
42.6721 1.719
42.7024 1.302
42.7327 1.823
42.7630 1.719
42.7933 1.458
42.8235 1.719
42.8538 1.510
42.8841 1.406
42.9144 1.458
42.9447 1.979
42.9749 1.354
43.0052 1.302
43.0355 1.719
43.0658 1.927
43.0960 1.354
43.1263 1.250
43.1566 1.875
43.1869 1.354
43.2172 1.771
43.2474 1.250
43.2777 1.406
43.3080 1.667
43.3383 1.927
43.3686 1.771
43.3988 1.198
43.4291 1.562
43.4594 1.302
43.4897 2.031
43.5199 1.823
43.5502 1.510
43.5805 1.667
43.6108 1.927
43.6411 1.771
43.6713 1.406
43.7016 1.771
43.7319 1.615
43.7622 1.354
43.7925 1.458
43.8227 0.937
43.8530 1.823
43.8833 1.146
43.9136 1.823
43.9439 1.562
43.9741 1.979
44.0044 1.875
44.0347 2.083
44.0650 2.031
44.0952 1.562
44.1255 1.302
44.1558 2.031
44.1861 1.771
44.2164 1.562
44.2466 2.083
44.2769 1.562
44.3072 1.667
44.3375 1.719
44.3678 1.771
44.3980 1.927
44.4283 1.771
44.4586 2.031
44.4889 1.562
44.5191 1.823
44.5494 1.146
44.5797 1.562
44.6100 1.615
44.6403 2.396
44.6705 1.667
44.7008 1.667
44.7311 1.302
44.7614 1.615
44.7917 1.719
44.8219 1.719
44.8522 1.719
44.8825 1.719
44.9128 2.083
44.9430 1.823
44.9733 1.615
45.0036 1.615
45.0339 1.667
45.0642 1.823
45.0944 1.510
45.1247 1.771
45.1550 2.031
45.1853 1.719
45.2156 2.240
45.2458 1.875
45.2761 1.823
45.3064 1.771
45.3367 1.458
45.3669 1.771
45.3972 1.667
45.4275 1.719
45.4578 2.344
45.4881 2.031
45.5183 2.083
45.5486 2.187
45.5789 1.927
45.6092 1.771
45.6395 2.083
45.6697 1.615
45.7000 1.406
45.7303 2.292
45.7606 1.667
45.7908 1.615
45.8211 2.292
45.8514 1.562
45.8817 1.562
45.9120 1.667
45.9422 1.823
45.9725 1.719
46.0028 1.667
46.0331 1.667
46.0634 2.135
46.0936 1.719
46.1239 2.083
46.1542 2.500
46.1845 1.354
46.2147 1.875
46.2450 1.667
46.2753 1.406
46.3056 2.500
46.3359 1.771
46.3661 2.500
46.3964 1.875
46.4267 2.083
46.4570 1.719
46.4873 2.396
46.5175 2.083
46.5478 2.396
46.5781 3.177
46.6084 2.448
46.6386 2.448
46.6689 2.448
46.6992 2.344
46.7295 3.073
46.7598 2.292
46.7900 3.906
46.8203 2.917
46.8506 3.594
46.8809 3.281
46.9112 3.385
46.9414 3.958
46.9717 4.062
47.0020 4.271
47.0323 4.531
47.0626 4.844
47.0928 5.156
47.1231 5.677
47.1534 7.187
47.1837 6.562
47.2139 8.125
47.2442 9.740
47.2745 12.708
47.3048 15.000
47.3351 15.937
47.3653 16.979
47.3956 17.969
47.4259 17.135
47.4562 15.365
47.4865 15.573
47.5167 13.125
47.5470 10.781
47.5773 10.729
47.6076 6.719
47.6378 7.396
47.6681 7.344
47.6984 5.417
47.7287 4.583
47.7590 4.427
47.7892 4.271
47.8195 3.854
47.8498 3.542
47.8801 3.229
47.9104 2.552
47.9406 3.542
47.9709 2.500
48.0012 3.281
48.0315 3.125
48.0617 1.979
48.0920 3.021
48.1223 2.292
48.1526 2.083
48.1829 1.823
48.2131 2.083
48.2434 2.708
48.2737 2.448
48.3040 2.292
48.3343 2.552
48.3645 1.667
48.3948 2.187
48.4251 2.448
48.4554 2.552
48.4856 1.562
48.5159 1.771
48.5462 1.354
48.5765 2.552
48.6068 1.823
48.6370 2.448
48.6673 2.656
48.6976 1.823
48.7279 2.187
48.7582 1.771
48.7884 1.562
48.8187 1.927
48.8490 2.135
48.8793 2.135
48.9095 1.927
48.9398 1.875
48.9701 1.979
49.0004 2.083
49.0307 1.615
49.0609 1.615
49.0912 1.510
49.1215 1.667
49.1518 1.979
49.1821 1.719
49.2123 1.771
49.2426 1.823
49.2729 2.344
49.3032 2.604
49.3334 1.458
49.3637 1.354
49.3940 1.458
49.4243 1.562
49.4546 2.135
49.4848 1.510
49.5151 1.667
49.5454 1.719
49.5757 1.719
49.6060 1.771
49.6362 1.458
49.6665 1.615
49.6968 1.615
49.7271 1.771
49.7574 2.031
49.7876 1.927
49.8179 1.979
49.8482 1.823
49.8785 1.823
49.9087 1.302
49.9390 1.302
49.9693 1.406
49.9996 1.927
50.0299 1.719
50.0601 1.354
50.0904 1.719
50.1207 1.562
50.1510 1.719
50.1813 1.719
50.2115 1.771
50.2418 1.198
50.2721 1.719
50.3024 1.667
50.3326 2.083
50.3629 0.990
50.3932 2.083
50.4235 1.719
50.4538 1.875
50.4840 1.302
50.5143 2.396
50.5446 2.083
50.5749 1.198
50.6052 1.250
50.6354 1.458
50.6657 1.510
50.6960 1.771
50.7263 1.302
50.7565 1.302
50.7868 2.344
50.8171 1.875
50.8474 1.042
50.8777 2.083
50.9079 2.083
50.9382 1.146
50.9685 1.719
50.9988 2.031
51.0291 1.667
51.0593 2.187
51.0896 2.135
51.1199 1.667
51.1502 1.406
51.1804 1.875
51.2107 1.719
51.2410 1.510
51.2713 1.146
51.3016 1.094
51.3318 1.823
51.3621 1.615
51.3924 1.406
51.4227 1.510
51.4530 1.406
51.4832 2.083
51.5135 1.719
51.5438 1.667
51.5741 1.615
51.6043 1.354
51.6346 1.562
51.6649 1.458
51.6952 1.562
51.7255 1.823
51.7557 1.146
51.7860 1.615
51.8163 1.719
51.8466 1.510
51.8769 1.146
51.9071 1.615
51.9374 1.458
51.9677 1.198
51.9980 1.458
52.0282 1.146
52.0585 1.927
52.0888 1.875
52.1191 1.875
52.1494 1.510
52.1796 1.562
52.2099 1.406
52.2402 1.406
52.2705 1.927
52.3008 1.979
52.3310 1.667
52.3613 1.667
52.3916 1.198
52.4219 1.719
52.4521 2.240
52.4824 1.667
52.5127 1.250
52.5430 1.823
52.5733 0.885
52.6035 1.406
52.6338 1.458
52.6641 1.406
52.6944 2.135
52.7247 1.927
52.7549 1.771
52.7852 1.667
52.8155 1.458
52.8458 1.667
52.8761 1.302
52.9063 1.823
52.9366 1.875
52.9669 1.875
52.9972 1.458
53.0274 1.615
53.0577 1.719
53.0880 1.875
53.1183 1.250
53.1486 1.510
53.1788 1.771
53.2091 1.562
53.2394 1.198
53.2697 1.667
53.3000 1.198
53.3302 1.719
53.3605 1.458
53.3908 1.719
53.4211 1.927
53.4513 1.823
53.4816 2.396
53.5119 2.083
53.5422 1.615
53.5725 1.615
53.6027 1.250
53.6330 1.510
53.6633 1.615
53.6936 1.875
53.7239 1.510
53.7541 1.771
53.7844 1.823
53.8147 1.510
53.8450 1.667
53.8752 0.990
53.9055 1.094
53.9358 1.771
53.9661 1.667
53.9964 1.771
54.0266 1.667
54.0569 1.354
54.0872 1.979
54.1175 1.615
54.1478 1.354
54.1780 1.615
54.2083 1.354
54.2386 1.458
54.2689 2.396
54.2991 2.031
54.3294 1.510
54.3597 1.615
54.3900 2.135
54.4203 2.292
54.4505 1.875
54.4808 1.615
54.5111 1.875
54.5414 1.562
54.5717 1.250
54.6019 1.615
54.6322 1.875
54.6625 1.979
54.6928 1.615
54.7230 2.135
54.7533 1.458
54.7836 2.083
54.8139 2.396
54.8442 1.979
54.8744 1.823
54.9047 2.135
54.9350 1.771
54.9653 1.927
54.9956 1.458
55.0258 1.667
55.0561 1.823
55.0864 1.927
55.1167 1.458
55.1469 1.823
55.1772 1.667
55.2075 2.344
55.2378 1.667
55.2681 2.292
55.2983 1.719
55.3286 1.667
55.3589 2.292
55.3892 1.979
55.4195 2.240
55.4497 2.344
55.4800 2.708
55.5103 2.187
55.5406 2.031
55.5709 2.187
55.6011 2.240
55.6314 2.500
55.6617 2.187
55.6920 3.385
55.7222 2.865
55.7525 2.604
55.7828 2.604
55.8131 2.292
55.8434 3.333
55.8736 3.333
55.9039 3.229
55.9342 3.750
55.9645 2.969
55.9948 3.854
56.0250 3.750
56.0553 5.000
56.0856 5.312
56.1159 5.885
56.1461 7.865
56.1764 7.708
56.2067 8.385
56.2370 10.573
56.2673 10.625
56.2975 13.125
56.3278 13.698
56.3581 14.687
56.3884 19.167
56.4187 20.052
56.4489 21.094
56.4792 19.687
56.5095 20.156
56.5398 17.865
56.5700 15.208
56.6003 14.896
56.6306 13.958
56.6609 11.406
56.6912 9.635
56.7214 7.552
56.7517 8.125
56.7820 7.135
56.8123 6.823
56.8426 4.792
56.8728 5.000
56.9031 4.896
56.9334 3.594
56.9637 4.167
56.9939 3.854
57.0242 3.333
57.0545 2.969
57.0848 2.917
57.1151 2.604
57.1453 2.135
57.1756 3.073
57.2059 2.917
57.2362 2.917
57.2665 2.344
57.2967 2.344
57.3270 2.969
57.3573 2.396
57.3876 2.604
57.4178 2.448
57.4481 1.823
57.4784 1.615
57.5087 1.823
57.5390 1.823
57.5692 1.927
57.5995 2.240
57.6298 2.031
57.6601 2.187
57.6904 1.927
57.7206 2.240
57.7509 1.979
57.7812 2.187
57.8115 2.240
57.8417 2.448
57.8720 1.406
57.9023 2.031
57.9326 1.979
57.9629 1.719
57.9931 2.292
58.0234 1.823
58.0537 1.979
58.0840 2.292
58.1143 1.979
58.1445 1.562
58.1748 1.562
58.2051 1.615
58.2354 1.354
58.2656 1.979
58.2959 1.823
58.3262 1.927
58.3565 2.604
58.3868 1.823
58.4170 1.562
58.4473 1.927
58.4776 1.875
58.5079 1.562
58.5382 1.823
58.5684 2.135
58.5987 1.510
58.6290 1.667
58.6593 2.031
58.6896 1.927
58.7198 1.354
58.7501 1.406
58.7804 1.094
58.8107 1.302
58.8409 1.198
58.8712 1.198
58.9015 1.562
58.9318 1.562
58.9621 1.927
58.9923 1.198
59.0226 1.562
59.0529 1.823
59.0832 1.198
59.1135 1.562
59.1437 1.719
59.1740 1.406
59.2043 1.458
59.2346 1.510
59.2648 2.083
59.2951 1.875
59.3254 2.031
59.3557 1.562
59.3860 1.615
59.4162 1.146
59.4465 2.031
59.4768 1.198
59.5071 1.823
59.5374 2.344
59.5676 1.458
59.5979 1.458
59.6282 1.562
59.6585 1.719
59.6887 1.562
59.7190 2.448
59.7493 1.562
59.7796 1.562
59.8099 1.354
59.8401 2.031
59.8704 1.719
59.9007 1.875
59.9310 1.406
59.9613 1.510
59.9915 1.719
60.0218 1.771
60.0521 1.510
60.0824 1.510
60.1126 1.823
60.1429 1.927
60.1732 1.823
60.2035 1.927
60.2338 2.083
60.2640 1.667
60.2943 1.615
60.3246 2.083
60.3549 1.042
60.3852 2.083
60.4154 1.458
60.4457 1.146
60.4760 1.510
60.5063 1.146
60.5365 2.031
60.5668 1.615
60.5971 1.615
60.6274 2.083
60.6577 1.510
60.6879 1.875
60.7182 1.979
60.7485 1.823
60.7788 1.667
60.8091 1.458
60.8393 1.354
60.8696 1.198
60.8999 2.083
60.9302 1.458
60.9604 1.615
60.9907 1.510
61.0210 1.927
61.0513 1.510
61.0816 1.875
61.1118 1.458
61.1421 1.979
61.1724 1.719
61.2027 1.719
61.2330 1.979
61.2632 1.927
61.2935 1.562
61.3238 1.510
61.3541 1.302
61.3844 1.615
61.4146 1.771
61.4449 1.927
61.4752 1.458
61.5055 2.031
61.5357 2.031
61.5660 2.604
61.5963 1.979
61.6266 2.500
61.6569 1.562
61.6871 2.500
61.7174 1.667
61.7477 1.771
61.7780 1.979
61.8083 1.979
61.8385 2.969
61.8688 2.604
61.8991 2.604
61.9294 2.604
61.9596 2.656
61.9899 2.031
62.0202 2.500
62.0505 2.552
62.0808 3.073
62.1110 2.604
62.1413 3.333
62.1716 3.594
62.2019 3.125
62.2322 3.177
62.2624 3.854
62.2927 3.594
62.3230 4.375
62.3533 5.208
62.3835 5.208
62.4138 5.833
62.4441 6.979
62.4744 6.146
62.5047 9.427
62.5349 9.687
62.5652 11.094
62.5955 14.583
62.6258 16.302
62.6561 16.198
62.6863 18.698
62.7166 17.656
62.7469 16.406
62.7772 15.104
62.8074 16.354
62.8377 14.271
62.8680 13.594
62.8983 13.177
62.9286 11.562
62.9588 10.573
62.9891 8.333
63.0194 7.760
63.0497 7.604
63.0800 6.146
63.1102 4.427
63.1405 4.010
63.1708 4.167
63.2011 3.906
63.2313 3.333
63.2616 3.281
63.2919 3.437
63.3222 3.177
63.3525 3.333
63.3827 3.125
63.4130 2.812
63.4433 2.812
63.4736 2.604
63.5039 2.448
63.5341 2.292
63.5644 2.344
63.5947 2.083
63.6250 1.562
63.6552 2.396
63.6855 2.292
63.7158 2.135
63.7461 2.396
63.7764 2.552
63.8066 2.344
63.8369 2.083
63.8672 2.031
63.8975 2.031
63.9278 1.719
63.9580 1.771
63.9883 1.562
64.0186 1.406
64.0489 2.135
64.0791 1.927
64.1094 1.354
64.1397 1.927
64.1700 1.823
64.2003 1.927
64.2305 1.562
64.2608 1.719
64.2911 2.031
64.3214 1.875
64.3517 1.667
64.3819 1.667
64.4122 2.240
64.4425 1.927
64.4728 1.823
64.5031 1.719
64.5333 1.615
64.5636 2.031
64.5939 1.667
64.6242 1.354
64.6544 1.510
64.6847 1.771
64.7150 1.927
64.7453 2.031
64.7756 1.354
64.8058 1.927
64.8361 1.562
64.8664 1.406
64.8967 1.458
64.9270 1.875
64.9572 1.979
64.9875 2.031
65.0178 1.510
65.0481 1.458
65.0783 1.354
65.1086 2.135
65.1389 1.719
65.1692 1.615
65.1995 1.510
65.2297 1.719
65.2600 1.667
65.2903 1.927
65.3206 1.354
65.3509 1.667
65.3811 1.771
65.4114 1.771
65.4417 1.302
65.4720 2.083
65.5022 1.667
65.5325 2.031
65.5628 1.771
65.5931 1.875
65.6234 1.562
65.6536 2.344
65.6839 1.875
65.7142 2.187
65.7445 1.458
65.7748 2.135
65.8050 1.823
65.8353 1.875
65.8656 1.406
65.8959 1.719
65.9261 2.708
65.9564 2.604
65.9867 3.021
66.0170 3.437
66.0473 3.177
66.0775 2.812
66.1078 2.656
66.1381 3.490
66.1684 3.385
66.1987 3.073
66.2289 3.229
66.2592 3.646
66.2895 3.177
66.3198 3.906
66.3500 4.115
66.3803 2.969
66.4106 3.750
66.4409 3.021
66.4712 3.958
66.5014 2.448
66.5317 2.760
66.5620 3.073
66.5923 2.448
66.6226 3.021
66.6528 2.083
66.6831 2.187
66.7134 2.083
66.7437 2.604
66.7739 2.135
66.8042 2.656
66.8345 1.302
66.8648 1.875
66.8951 2.604
66.9253 2.604
66.9556 2.240
66.9859 1.927
67.0162 2.760
67.0465 1.875
67.0767 2.135
67.1070 1.875
67.1373 2.240
67.1676 2.708
67.1978 2.604
67.2281 2.812
67.2584 3.490
67.2887 3.437
67.3190 3.698
67.3492 3.958
67.3795 3.646
67.4098 3.542
67.4401 4.115
67.4704 5.208
67.5006 5.260
67.5309 6.042
67.5612 6.042
67.5915 7.135
67.6218 7.604
67.6520 9.687
67.6823 8.854
67.7126 11.927
67.7429 11.406
67.7731 11.823
67.8034 12.812
67.8337 12.396
67.8640 11.510
67.8943 10.937
67.9245 10.052
67.9548 10.312
67.9851 8.802
68.0154 8.646
68.0457 6.562
68.0759 7.083
68.1062 6.302
68.1365 6.458
68.1668 4.635
68.1970 4.583
68.2273 4.115
68.2576 4.844
68.2879 4.687
68.3182 3.698
68.3484 3.229
68.3787 4.062
68.4090 3.125
68.4393 3.490
68.4696 2.917
68.4998 3.073
68.5301 3.594
68.5604 3.177
68.5907 3.646
68.6209 4.271
68.6512 4.271
68.6815 4.271
68.7118 3.490
68.7421 5.104
68.7723 5.260
68.8026 5.521
68.8329 5.677
68.8632 5.885
68.8935 7.135
68.9237 6.667
68.9540 6.823
68.9843 5.521
69.0146 7.240
69.0448 5.833
69.0751 6.406
69.1054 5.937
69.1357 4.896
69.1660 4.271
69.1962 4.062
69.2265 2.812
69.2568 3.333
69.2871 3.073
69.3174 3.333
69.3476 2.760
69.3779 2.917
69.4082 2.760
69.4385 2.760
69.4687 2.240
69.4990 2.240
69.5293 2.344
69.5596 1.771
69.5899 1.771
69.6201 2.344
69.6504 1.771
69.6807 1.927
69.7110 1.354
69.7413 1.875
69.7715 1.667
69.8018 2.292
69.8321 1.771
69.8624 1.927
69.8926 1.406
69.9229 1.302
69.9532 1.406
69.9835 1.250
70.0138 1.771
70.0440 1.667
70.0743 1.771
70.1046 1.510
70.1349 1.302
70.1652 1.510
70.1954 1.406
70.2257 1.719
70.2560 1.562
70.2863 1.250
70.3166 1.615
70.3468 1.510
70.3771 1.562
70.4074 1.302
70.4377 1.094
70.4679 1.615
70.4982 1.615
70.5285 1.615
70.5588 1.406
70.5891 1.562
70.6193 1.302
70.6496 1.406
70.6799 1.562
70.7102 1.250
70.7405 1.615
70.7707 1.823
70.8010 1.250
70.8313 1.302
70.8616 1.146
70.8918 1.354
70.9221 1.771
70.9524 1.719
70.9827 1.354
71.0130 1.458
71.0432 1.250
71.0735 1.510
71.1038 2.031
71.1341 1.250
71.1644 1.250
71.1946 0.937
71.2249 1.771
71.2552 1.406
71.2855 1.458
71.3157 1.458
71.3460 1.250
71.3763 1.667
71.4066 1.250
71.4369 1.042
71.4671 1.719
71.4974 1.719
71.5277 1.771
71.5580 1.771
71.5883 1.406
71.6185 1.250
71.6488 0.990
71.6791 1.250
71.7094 1.198
71.7396 1.094
71.7699 1.510
71.8002 1.510
71.8305 1.458
71.8608 1.250
71.8910 1.615
71.9213 0.990
71.9516 1.354
71.9819 1.510
72.0122 1.927
72.0424 1.406
72.0727 1.042
72.1030 1.146
72.1333 1.719
72.1635 1.042
72.1938 1.875
72.2241 1.302
72.2544 1.354
72.2847 1.719
72.3149 2.500
72.3452 2.708
72.3755 2.396
72.4058 2.344
72.4361 2.708
72.4663 2.031
72.4966 1.979
72.5269 1.406
72.5572 2.135
72.5874 1.875
72.6177 1.302
72.6480 1.562
72.6783 2.083
72.7086 1.302
72.7388 1.302
72.7691 1.250
72.7994 1.719
72.8297 1.250
72.8600 1.146
72.8902 1.094
72.9205 1.146
72.9508 1.406
72.9811 1.250
73.0113 1.510
73.0416 1.562
73.0719 0.729
73.1022 1.250
73.1325 1.146
73.1627 0.937
73.1930 1.354
73.2233 1.354
73.2536 1.094
73.2839 1.667
73.3141 0.990
73.3444 1.302
73.3747 1.354
73.4050 1.302
73.4353 1.302
73.4655 1.250
73.4958 1.042
73.5261 1.250
73.5564 0.781
73.5866 1.354
73.6169 0.937
73.6472 0.885
73.6775 1.146
73.7078 1.094
73.7380 1.198
73.7683 1.042
73.7986 1.198
73.8289 1.250
73.8592 1.146
73.8894 1.250
73.9197 1.042
73.9500 1.250
73.9803 1.094
74.0105 1.146
74.0408 0.885
74.0711 1.354
74.1014 1.250
74.1317 0.729
74.1619 1.094
74.1922 1.250
74.2225 1.042
74.2528 0.937
74.2831 1.198
74.3133 1.198
74.3436 0.937
74.3739 1.146
74.4042 0.990
74.4344 1.198
74.4647 1.302
74.4950 0.885
74.5253 1.094
74.5556 1.094
74.5858 1.667
74.6161 1.094
74.6464 1.510
74.6767 1.302
74.7070 1.302
74.7372 0.729
74.7675 1.198
74.7978 0.729
74.8281 1.510
74.8583 1.250
74.8886 1.094
74.9189 0.990
74.9492 0.729
74.9795 1.302
75.0097 1.302
75.0400 1.302
75.0703 1.198
75.1006 1.250
75.1309 1.198
75.1611 1.198
75.1914 1.198
75.2217 0.990
75.2520 0.990
75.2822 1.146
75.3125 1.146
75.3428 1.354
75.3731 0.781
75.4034 1.042
75.4336 1.458
75.4639 1.458
75.4942 1.042
75.5245 0.990
75.5548 1.146
75.5850 0.990
75.6153 1.250
75.6456 1.250
75.6759 1.302
75.7061 0.781
75.7364 1.094
75.7667 1.615
75.7970 1.406
75.8273 1.094
75.8575 1.354
75.8878 1.458
75.9181 1.406
75.9484 1.250
75.9787 1.198
76.0089 0.833
76.0392 1.354
76.0695 0.729
76.0998 1.406
76.1301 0.885
76.1603 1.198
76.1906 1.667
76.2209 1.406
76.2512 0.937
76.2814 1.406
76.3117 0.885
76.3420 1.250
76.3723 1.302
76.4026 1.719
76.4328 1.406
76.4631 1.458
76.4934 1.979
76.5237 1.875
76.5540 1.562
76.5842 2.187
76.6145 1.458
76.6448 2.344
76.6751 2.240
76.7053 2.500
76.7356 1.667
76.7659 2.500
76.7962 2.292
76.8265 1.875
76.8567 2.396
76.8870 2.604
76.9173 2.500
76.9476 2.187
76.9779 2.135
77.0081 1.615
77.0384 2.031
77.0687 2.187
77.0990 1.146
77.1292 1.823
77.1595 1.667
77.1898 1.510
77.2201 1.458
77.2504 1.198
77.2806 1.198
77.3109 1.667
77.3412 1.458
77.3715 1.146
77.4018 1.302
77.4320 1.979
77.4623 1.250
77.4926 0.781
77.5229 1.146
77.5531 1.302
77.5834 1.198
77.6137 1.198
77.6440 0.990
77.6743 1.250
77.7045 1.302
77.7348 0.833
77.7651 1.198
77.7954 1.302
77.8257 0.990
77.8559 1.250
77.8862 0.885
77.9165 1.354
77.9468 0.885
77.9770 1.146
78.0073 1.146
78.0376 1.146
78.0679 1.146
78.0982 0.885
78.1284 1.042
78.1587 1.458
78.1890 0.937
78.2193 1.146
78.2496 1.406
78.2798 0.885
78.3101 0.885
78.3404 0.937
78.3707 0.937
78.4009 1.094
78.4312 0.937
78.4615 1.406
78.4918 0.885
78.5221 0.885
78.5523 1.198
78.5826 1.094
78.6129 0.781
78.6432 1.198
78.6735 0.937
78.7037 1.250
78.7340 1.094
78.7643 1.615
78.7946 1.146
78.8248 1.094
78.8551 0.937
78.8854 1.250
78.9157 1.042
78.9460 1.198
78.9762 1.198
79.0065 1.250
79.0368 1.302
79.0671 1.198
79.0974 0.781
79.1276 0.937
79.1579 0.885
79.1882 1.198
79.2185 0.885
79.2488 0.990
79.2790 0.937
79.3093 1.146
79.3396 1.094
79.3699 1.510
79.4001 1.354
79.4304 0.885
79.4607 1.250
79.4910 0.469
79.5213 0.937
79.5515 1.250
79.5818 1.198
79.6121 1.042
79.6424 1.250
79.6727 0.729
79.7029 0.885
79.7332 1.198
79.7635 0.990
79.7938 1.146
79.8240 0.937
79.8543 1.042
79.8846 0.729
79.9149 0.937
79.9452 1.458
79.9754 1.354
80.0057 1.302
80.0360 0.781
80.0663 1.146
80.0966 1.302
80.1268 0.833
80.1571 0.937
80.1874 1.094
80.2177 1.250
80.2479 0.729
80.2782 1.250
80.3085 1.354
80.3388 1.042
80.3691 0.729
80.3993 0.885
80.4296 1.198
80.4599 0.833
80.4902 0.990
80.5205 0.833
80.5507 1.927
80.5810 1.146
80.6113 0.990
80.6416 1.094
80.6718 0.885
80.7021 1.562
80.7324 1.562
80.7627 1.615
80.7930 1.094
80.8232 1.302
80.8535 1.198
80.8838 1.250
80.9141 1.771
80.9444 0.937
80.9746 1.198
81.0049 1.562
81.0352 1.667
81.0655 1.510
81.0957 1.719
81.1260 1.667
81.1563 1.198
81.1866 2.240
81.2169 1.667
81.2471 1.667
81.2774 2.552
81.3077 1.667
81.3380 1.615
81.3683 1.458
81.3985 1.719
81.4288 1.823
81.4591 1.771
81.4894 1.406
81.5196 1.146
81.5499 1.562
81.5802 1.302
81.6105 1.302
81.6408 1.146
81.6710 0.990
81.7013 1.406
81.7316 1.458
81.7619 1.146
81.7922 0.937
81.8224 0.885
81.8527 1.094
81.8830 0.937
81.9133 1.302
81.9436 1.146
81.9738 0.781
82.0041 1.042
82.0344 1.354
82.0647 1.510
82.0949 0.885
82.1252 0.937
82.1555 1.250
82.1858 1.198
82.2161 0.781
82.2463 1.250
82.2766 0.729
82.3069 1.042
82.3372 1.198
82.3675 0.677
82.3977 1.146
82.4280 0.625
82.4583 1.250
82.4886 1.510
82.5188 1.198
82.5491 1.146
82.5794 1.042
82.6097 1.198
82.6400 1.094
82.6702 1.042
82.7005 0.729
82.7308 1.042
82.7611 1.198
82.7914 0.937
82.8216 1.302
82.8519 0.833
82.8822 0.885
82.9125 1.302
82.9427 0.937
82.9730 1.146
83.0033 0.937
83.0336 1.146
83.0639 1.198
83.0941 1.146
83.1244 1.458
83.1547 1.198
83.1850 0.990
83.2153 1.510
83.2455 1.406
83.2758 1.146
83.3061 0.885
83.3364 0.729
83.3666 1.198
83.3969 1.667
83.4272 1.042
83.4575 0.885
83.4878 0.729
83.5180 1.198
83.5483 0.885
83.5786 1.250
83.6089 1.042
83.6392 0.885
83.6694 1.250
83.6997 1.042
83.7300 1.094
83.7603 0.833
83.7905 0.833
83.8208 1.094
83.8511 1.354
83.8814 0.469
83.9117 1.354
83.9419 0.885
83.9722 0.833
84.0025 1.198
84.0328 1.094
84.0631 0.937
84.0933 0.781
84.1236 1.198
84.1539 1.302
84.1842 0.885
84.2144 1.198
84.2447 1.146
84.2750 1.146
84.3053 1.354
84.3356 0.937
84.3658 1.198
84.3961 0.937
84.4264 1.094
84.4567 0.937
84.4870 1.198
84.5172 1.302
84.5475 1.146
84.5778 0.833
84.6081 0.990
84.6383 0.729
84.6686 0.937
84.6989 0.937
84.7292 1.198
84.7595 0.885
84.7897 1.042
84.8200 1.198
84.8503 1.146
84.8806 0.937
84.9109 0.729
84.9411 0.781
84.9714 0.833
85.0017 1.198
85.0320 1.094
85.0623 0.833
85.0925 1.198
85.1228 1.042
85.1531 0.729
85.1834 1.198
85.2136 1.198
85.2439 0.781
85.2742 0.990
85.3045 0.937
85.3348 0.990
85.3650 0.937
85.3953 1.042
85.4256 0.729
85.4559 1.823
85.4862 1.354
85.5164 0.885
85.5467 0.729
85.5770 1.667
85.6073 0.833
85.6375 0.990
85.6678 1.510
85.6981 1.042
85.7284 1.302
85.7587 1.250
85.7889 1.198
85.8192 1.354
85.8495 1.250
85.8798 1.198
85.9101 1.198
85.9403 1.094
85.9706 1.302
86.0009 0.729
86.0312 1.198
86.0614 1.094
86.0917 1.042
86.1220 0.937
86.1523 1.198
86.1826 1.146
86.2128 1.458
86.2431 1.302
86.2734 1.146
86.3037 0.937
86.3340 0.885
86.3642 1.146
86.3945 1.094
86.4248 1.823
86.4551 1.458
86.4853 1.042
86.5156 1.146
86.5459 1.302
86.5762 0.729
86.6065 1.042
86.6367 0.677
86.6670 0.937
86.6973 0.729
86.7276 1.042
86.7579 1.146
86.7881 1.146
86.8184 1.094
86.8487 1.354
86.8790 1.250
86.9092 1.250
86.9395 0.937
86.9698 0.521
87.0001 1.250
87.0304 0.990
87.0606 0.729
87.0909 0.937
87.1212 0.937
87.1515 1.198
87.1818 0.990
87.2120 1.094
87.2423 0.937
87.2726 0.885
87.3029 1.302
87.3331 1.406
87.3634 1.354
87.3937 1.198
87.4240 0.990
87.4543 1.406
87.4845 1.094
87.5148 1.354
87.5451 1.042
87.5754 1.042
87.6057 1.198
87.6359 1.146
87.6662 1.094
87.6965 0.781
87.7268 0.937
87.7571 1.302
87.7873 0.885
87.8176 1.562
87.8479 1.198
87.8782 1.146
87.9084 1.094
87.9387 0.885
87.9690 1.458
87.9993 1.354
88.0296 1.042
88.0598 0.833
88.0901 1.146
88.1204 0.990
88.1507 1.198
88.1810 1.302
88.2112 1.042
88.2415 1.250
88.2718 0.833
88.3021 1.146
88.3323 0.937
88.3626 1.667
88.3929 1.198
88.4232 0.573
88.4535 1.667
88.4837 0.937
88.5140 1.354
88.5443 1.302
88.5746 1.094
88.6049 1.198
88.6351 1.250
88.6654 1.146
88.6957 1.354
88.7260 1.302
88.7562 1.042
88.7865 1.458
88.8168 1.094
88.8471 1.302
88.8774 1.198
88.9076 1.615
88.9379 1.771
88.9682 1.510
88.9985 1.146
89.0288 1.510
89.0590 1.875
89.0893 1.667
89.1196 2.240
89.1499 2.031
89.1801 2.292
89.2104 2.083
89.2407 1.979
89.2710 2.760
89.3013 2.969
89.3315 3.542
89.3618 2.969
89.3921 3.073
89.4224 3.802
89.4527 3.125
89.4829 3.177
89.5132 3.073
89.5435 3.542
89.5738 2.656
89.6040 2.969
89.6343 2.604
89.6646 2.604
89.6949 2.656
89.7252 2.552
89.7554 2.135
89.7857 2.917
89.8160 2.812
89.8463 2.240
89.8766 2.552
89.9068 1.719
89.9371 1.719
89.9674 1.510
89.9977 2.135
90.0279 1.875
90.0582 1.927
90.0885 1.875
90.1188 1.198
90.1491 1.510
90.1793 1.406
90.2096 1.667
90.2399 1.667
90.2702 1.458
90.3005 1.198
90.3307 1.510
90.3610 1.198
90.3913 1.302
90.4216 1.406
90.4518 1.198
90.4821 1.562
90.5124 1.250
90.5427 1.198
90.5730 1.667
90.6032 0.833
90.6335 1.094
90.6638 1.146
90.6941 0.990
90.7244 1.198
90.7546 1.198
90.7849 1.198
90.8152 1.458
90.8455 1.562
90.8758 1.250
90.9060 1.198
90.9363 1.667
90.9666 1.094
90.9969 1.198
91.0271 0.885
91.0574 0.729
91.0877 1.667
91.1180 1.302
91.1483 1.198
91.1785 1.198
91.2088 1.094
91.2391 1.458
91.2694 1.198
91.2997 0.833
91.3299 0.885
91.3602 1.146
91.3905 0.781
91.4208 0.990
91.4510 0.937
91.4813 0.885
91.5116 0.885
91.5419 0.885
91.5722 0.833
91.6024 1.510
91.6327 0.885
91.6630 1.146
91.6933 1.354
91.7236 0.990
91.7538 1.094
91.7841 1.146
91.8144 1.302
91.8447 1.354
91.8749 1.354
91.9052 0.990
91.9355 0.990
91.9658 1.354
91.9961 1.250
92.0263 0.937
92.0566 1.458
92.0869 0.677
92.1172 0.833
92.1475 0.937
92.1777 1.302
92.2080 1.198
92.2383 1.198
92.2686 1.667
92.2988 1.094
92.3291 1.615
92.3594 1.771
92.3897 1.198
92.4200 1.667
92.4502 2.187
92.4805 1.615
92.5108 1.615
92.5411 1.979
92.5714 2.240
92.6016 2.031
92.6319 1.927
92.6622 1.562
92.6925 2.083
92.7227 1.875
92.7530 1.667
92.7833 2.135
92.8136 1.719
92.8439 1.719
92.8741 1.406
92.9044 1.510
92.9347 1.979
92.9650 1.667
92.9953 1.667
93.0255 2.135
93.0558 1.823
93.0861 1.094
93.1164 1.615
93.1466 1.719
93.1769 1.615
93.2072 1.302
93.2375 1.094
93.2678 1.458
93.2980 1.094
93.3283 1.562
93.3586 1.042
93.3889 1.250
93.4192 1.562
93.4494 1.562
93.4797 1.354
93.5100 1.094
93.5403 1.250
93.5706 1.146
93.6008 1.042
93.6311 1.667
93.6614 1.354
93.6917 0.885
93.7219 1.198
93.7522 1.250
93.7825 1.094
93.8128 0.990
93.8431 1.042
93.8733 1.094
93.9036 1.042
93.9339 1.302
93.9642 1.719
93.9945 1.771
94.0247 0.885
94.0550 1.510
94.0853 1.302
94.1156 0.937
94.1458 1.354
94.1761 1.250
94.2064 1.146
94.2367 1.250
94.2670 1.354
94.2972 1.354
94.3275 1.979
94.3578 1.146
94.3881 1.146
94.4184 1.458
94.4486 1.615
94.4789 1.198
94.5092 1.146
94.5395 1.771
94.5697 1.823
94.6000 1.406
94.6303 1.927
94.6606 1.771
94.6909 1.667
94.7211 1.458
94.7514 2.135
94.7817 1.615
94.8120 2.396
94.8423 2.292
94.8725 2.031
94.9028 1.823
94.9331 2.292
94.9634 2.344
94.9936 2.760
95.0239 2.969
95.0542 3.021
95.0845 2.760
95.1148 3.437
95.1450 3.281
95.1753 3.281
95.2056 2.292
95.2359 2.708
95.2662 3.073
95.2964 3.021
95.3267 3.073
95.3570 2.812
95.3873 2.865
95.4175 1.927
95.4478 2.865
95.4781 2.187
95.5084 2.656
95.5387 2.552
95.5689 2.292
95.5992 2.396
95.6295 2.292
95.6598 2.135
95.6901 1.667
95.7203 0.990
95.7506 1.615
95.7809 1.510
95.8112 1.250
95.8414 1.875
95.8717 1.615
95.9020 1.406
95.9323 1.250
95.9626 1.510
95.9928 2.135
96.0231 2.031
96.0534 1.719
96.0837 1.146
96.1140 1.406
96.1442 1.198
96.1745 0.990
96.2048 1.510
96.2351 0.833
96.2653 1.146
96.2956 1.667
96.3259 1.354
96.3562 1.250
96.3865 0.990
96.4167 1.354
96.4470 1.302
96.4773 1.510
96.5076 1.562
96.5379 1.146
96.5681 1.250
96.5984 1.042
96.6287 1.302
96.6590 1.094
96.6893 1.250
96.7195 0.833
96.7498 1.302
96.7801 1.719
96.8104 1.250
96.8406 1.094
96.8709 1.146
96.9012 1.510
96.9315 1.302
96.9618 1.615
96.9920 1.250
97.0223 1.042
97.0526 1.250
97.0829 0.729
97.1132 1.354
97.1434 1.250
97.1737 1.302
97.2040 0.885
97.2343 0.885
97.2645 1.510
97.2948 1.302
97.3251 1.094
97.3554 1.198
97.3857 0.677
97.4159 1.198
97.4462 1.615
97.4765 1.302
97.5068 1.354
97.5371 1.719
97.5673 1.510
97.5976 1.302
97.6279 1.615
97.6582 0.990
97.6884 1.510
97.7187 1.771
97.7490 1.302
97.7793 1.354
97.8096 1.250
97.8398 1.250
97.8701 1.458
97.9004 1.615
97.9307 1.562
97.9610 1.250
97.9912 1.302
98.0215 1.146
98.0518 1.562
98.0821 1.406
98.1123 1.927
98.1426 1.250
98.1729 1.771
98.2032 1.771
98.2335 1.771
98.2637 1.615
98.2940 1.875
98.3243 1.927
98.3546 2.500
98.3849 1.875
98.4151 2.187
98.4454 2.396
98.4757 1.979
98.5060 1.823
98.5362 1.823
98.5665 2.396
98.5968 2.292
98.6271 2.031
98.6574 2.344
98.6876 1.927
98.7179 2.031
98.7482 1.719
98.7785 1.875
98.8088 2.656
98.8390 1.875
98.8693 1.302
98.8996 1.927
98.9299 1.823
98.9601 1.510
98.9904 1.510
99.0207 1.458
99.0510 1.250
99.0813 0.781
99.1115 1.562
99.1418 1.354
99.1721 1.198
99.2024 1.302
99.2327 1.146
99.2629 1.302
99.2932 1.406
99.3235 1.354
99.3538 1.198
99.3841 1.042
99.4143 1.406
99.4446 1.250
99.4749 0.833
99.5052 1.146
99.5354 1.146
99.5657 1.302
99.5960 0.729
99.6263 0.937
99.6566 0.885
99.6868 1.198
99.7171 1.406
99.7474 0.781
99.7777 0.990
99.8080 1.302
99.8382 0.833
99.8685 1.302
99.8988 0.990
99.9291 0.781
99.9593 0.990
99.9896 1.302
100.0199 1.823
100.0502 0.781
100.0805 1.042
100.1107 1.146
100.1410 1.302
100.1713 1.458
100.2016 1.302
100.2319 1.354
100.2621 1.198
100.2924 1.250
100.3227 0.990
100.3530 0.781
100.3832 0.885
100.4135 1.094
100.4438 0.885
100.4741 0.990
100.5044 0.677
100.5346 1.146
100.5649 0.833
100.5952 0.990
100.6255 1.510
100.6558 1.042
100.6860 1.094
100.7163 0.833
100.7466 1.771
100.7769 1.250
100.8071 1.562
100.8374 1.250
100.8677 1.250
100.8980 0.990
100.9283 1.042
100.9585 1.354
100.9888 1.146
101.0191 1.354
101.0494 0.990
101.0797 0.677
101.1099 0.885
101.1402 0.937
101.1705 1.302
101.2008 0.781
101.2310 1.250
101.2613 1.615
101.2916 1.042
101.3219 0.885
101.3522 0.990
101.3824 1.042
101.4127 0.885
101.4430 1.042
101.4733 1.354
101.5036 1.458
101.5338 0.937
101.5641 0.990
101.5944 1.146
101.6247 0.937
101.6549 1.094
101.6852 1.146
101.7155 1.667
101.7458 0.781
101.7761 0.937
101.8063 1.406
101.8366 1.250
101.8669 0.781
101.8972 1.250
101.9275 1.979
101.9577 0.885
101.9880 1.510
102.0183 0.885
102.0486 0.937
102.0788 1.198
102.1091 1.458
102.1394 1.198
102.1697 1.250
102.2000 1.562
102.2302 1.562
102.2605 1.406
102.2908 1.562
102.3211 1.510
102.3514 1.354
102.3816 1.927
102.4119 1.510
102.4422 1.771
102.4725 1.875
102.5028 1.615
102.5330 1.823
102.5633 1.406
102.5936 0.937
102.6239 1.719
102.6541 2.083
102.6844 1.458
102.7147 2.187
102.7450 1.615
102.7753 1.979
102.8055 1.771
102.8358 2.083
102.8661 1.927
102.8964 1.198
102.9267 1.458
102.9569 1.771
102.9872 1.458
103.0175 2.135
103.0478 1.406
103.0780 2.135
103.1083 2.083
103.1386 1.510
103.1689 2.344
103.1992 2.031
103.2294 2.292
103.2597 2.135
103.2900 2.135
103.3203 1.667
103.3506 2.083
103.3808 1.875
103.4111 2.031
103.4414 1.719
103.4717 1.823
103.5019 1.667
103.5322 1.667
103.5625 1.250
103.5928 1.354
103.6231 1.823
103.6533 2.187
103.6836 2.083
103.7139 2.031
103.7442 1.458
103.7745 1.875
103.8047 2.292
103.8350 3.073
103.8653 2.135
103.8956 3.021
103.9258 2.812
103.9561 2.917
103.9864 2.917
104.0167 3.281
104.0470 2.500
104.0772 2.656
104.1075 2.240
104.1378 2.448
104.1681 2.604
104.1984 1.875
104.2286 2.500
104.2589 2.500
104.2892 3.594
104.3195 1.875
104.3497 2.604
104.3800 1.927
104.4103 2.240
104.4406 1.823
104.4709 1.979
104.5011 1.823
104.5314 2.031
104.5617 1.771
104.5920 1.354
104.6223 1.615
104.6525 1.927
104.6828 1.562
104.7131 1.198
104.7434 1.302
104.7736 1.719
104.8039 1.302
104.8342 1.146
104.8645 1.615
104.8948 1.615
104.9250 0.833
104.9553 1.042
104.9856 1.510
105.0159 1.302
105.0462 1.510
105.0764 1.510
105.1067 1.042
105.1370 1.094
105.1673 1.406
105.1975 0.990
105.2278 1.302
105.2581 1.094
105.2884 1.146
105.3187 0.990
105.3489 1.510
105.3792 1.354
105.4095 0.990
105.4398 1.302
105.4701 0.990
105.5003 1.354
105.5306 0.885
105.5609 0.937
105.5912 1.302
105.6215 1.354
105.6517 1.562
105.6820 0.885
105.7123 1.198
105.7426 1.042
105.7728 1.198
105.8031 1.094
105.8334 1.250
105.8637 1.406
105.8940 1.458
105.9242 1.250
105.9545 1.354
105.9848 1.250
106.0151 1.146
106.0454 1.198
106.0756 1.198
106.1059 1.510
106.1362 1.458
106.1665 1.250
106.1967 1.094
106.2270 1.406
106.2573 0.885
106.2876 1.875
106.3179 1.458
106.3481 1.354
106.3784 0.833
106.4087 0.990
106.4390 1.615
106.4693 1.562
106.4995 1.354
106.5298 1.406
106.5601 1.354
106.5904 1.146
106.6206 0.885
106.6509 1.250
106.6812 1.042
106.7115 1.094
106.7418 1.146
106.7720 0.521
106.8023 1.354
106.8326 1.510
106.8629 1.042
106.8932 0.729
106.9234 1.354
106.9537 1.510
106.9840 1.719
107.0143 1.042
107.0445 1.302
107.0748 1.458
107.1051 0.885
107.1354 1.146
107.1657 0.729
107.1959 1.458
107.2262 1.250
107.2565 1.771
107.2868 1.615
107.3171 1.615
107.3473 1.719
107.3776 1.094
107.4079 1.510
107.4382 1.198
107.4684 1.042
107.4987 1.042
107.5290 1.510
107.5593 1.510
107.5896 1.302
107.6198 1.198
107.6501 0.937
107.6804 1.250
107.7107 1.302
107.7410 1.458
107.7712 1.458
107.8015 1.146
107.8318 1.354
107.8621 1.510
107.8923 0.937
107.9226 1.198
107.9529 1.510
107.9832 1.458
108.0135 1.302
108.0437 1.250
108.0740 1.406
108.1043 1.198
108.1346 1.458
108.1649 1.406
108.1951 1.146
108.2254 1.510
108.2557 1.094
108.2860 1.510
108.3163 0.885
108.3465 1.510
108.3768 0.729
108.4071 1.198
108.4374 0.729
108.4676 0.625
108.4979 1.146
108.5282 1.042
108.5585 1.354
108.5888 0.937
108.6190 0.885
108.6493 1.198
108.6796 1.250
108.7099 1.198
108.7402 1.562
108.7704 0.990
108.8007 0.990
108.8310 1.146
108.8613 0.937
108.8915 0.937
108.9218 0.885
108.9521 0.885
108.9824 1.458
109.0127 1.458
109.0429 1.146
109.0732 1.562
109.1035 1.250
109.1338 1.042
109.1641 0.990
109.1943 1.094
109.2246 1.198
109.2549 1.354
109.2852 0.937
109.3154 0.885
109.3457 1.250
109.3760 0.781
109.4063 1.458
109.4366 1.250
109.4668 1.302
109.4971 1.250
109.5274 1.198
109.5577 1.406
109.5880 0.937
109.6182 1.198
109.6485 1.146
109.6788 1.302
109.7091 0.990
109.7393 1.354
109.7696 1.771
109.7999 1.979
109.8302 1.562
109.8605 0.833
109.8907 1.250
109.9210 1.771
109.9513 1.094
109.9816 1.562
110.0119 1.875
110.0421 1.667
110.0724 1.875
110.1027 1.562
110.1330 1.562
110.1632 1.823
110.1935 1.823
110.2238 1.354
110.2541 1.771
110.2844 1.562
110.3146 1.719
110.3449 1.302
110.3752 1.823
110.4055 1.667
110.4358 1.875
110.4660 1.823
110.4963 1.562
110.5266 2.240
110.5569 1.406
110.5871 1.615
110.6174 1.771
110.6477 1.250
110.6780 1.562
110.7083 1.302
110.7385 1.667
110.7688 1.302
110.7991 2.292
110.8294 1.354
110.8597 1.406
110.8899 1.354
110.9202 1.927
110.9505 1.250
110.9808 1.615
111.0110 1.406
111.0413 1.510
111.0716 1.302
111.1019 0.885
111.1322 1.198
111.1624 1.250
111.1927 1.302
111.2230 1.094
111.2533 1.354
111.2836 1.042
111.3138 0.990
111.3441 1.146
111.3744 1.094
111.4047 1.458
111.4350 1.302
111.4652 1.094
111.4955 1.094
111.5258 1.562
111.5561 0.937
111.5863 0.990
111.6166 1.250
111.6469 1.042
111.6772 1.094
111.7075 1.094
111.7377 1.042
111.7680 1.042
111.7983 1.094
111.8286 1.146
111.8589 1.510
111.8891 0.833
111.9194 0.729
111.9497 1.198
111.9800 0.885
112.0102 1.146
112.0405 1.823
112.0708 0.885
112.1011 0.937
112.1314 0.885
112.1616 0.990
112.1919 1.406
112.2222 0.937
112.2525 1.094
112.2828 1.198
112.3130 1.146
112.3433 1.406
112.3736 0.990
112.4039 1.458
112.4341 0.990
112.4644 1.094
112.4947 1.094
112.5250 0.833
112.5553 1.562
112.5855 1.146
112.6158 0.781
112.6461 1.146
112.6764 0.833
112.7067 1.042
112.7369 0.885
112.7672 1.042
112.7975 1.094
112.8278 1.198
112.8580 1.719
112.8883 1.146
112.9186 1.042
112.9489 1.042
112.9792 1.042
113.0094 1.406
113.0397 1.250
113.0700 0.990
113.1003 1.042
113.1306 1.146
113.1608 1.354
113.1911 1.458
113.2214 0.885
113.2517 1.354
113.2819 1.458
113.3122 1.406
113.3425 1.510
113.3728 1.042
113.4031 1.094
113.4333 0.885
113.4636 0.937
113.4939 2.135
113.5242 1.406
113.5545 1.042
113.5847 1.042
113.6150 1.198
113.6453 1.094
113.6756 0.990
113.7058 0.885
113.7361 1.198
113.7664 1.250
113.7967 1.146
113.8270 1.250
113.8572 1.198
113.8875 0.937
113.9178 1.042
113.9481 0.990
113.9784 1.042
114.0086 1.667
114.0389 1.094
114.0692 1.146
114.0995 1.042
114.1298 1.354
114.1600 1.250
114.1903 1.250
114.2206 1.094
114.2509 1.198
114.2811 1.198
114.3114 1.302
114.3417 1.406
114.3720 1.094
114.4023 1.198
114.4325 1.094
114.4628 0.990
114.4931 1.250
114.5234 1.094
114.5537 1.510
114.5839 1.510
114.6142 1.354
114.6445 1.562
114.6748 0.833
114.7050 1.302
114.7353 0.990
114.7656 1.458
114.7959 1.094
114.8262 1.562
114.8564 1.510
114.8867 1.354
114.9170 1.562
114.9473 1.458
114.9776 0.885
115.0078 1.042
115.0381 1.094
115.0684 0.937
115.0987 1.667
115.1289 1.771
115.1592 1.250
115.1895 1.198
115.2198 1.406
115.2501 1.094
115.2803 1.562
115.3106 1.719
115.3409 1.406
115.3712 1.458
115.4015 1.615
115.4317 1.094
115.4620 1.562
115.4923 1.979
115.5226 1.667
115.5528 1.979
115.5831 1.875
115.6134 1.562
115.6437 1.615
115.6740 1.979
115.7042 2.187
115.7345 1.875
115.7648 2.812
115.7951 2.083
115.8254 1.927
115.8556 2.240
115.8859 2.656
115.9162 2.292
115.9465 2.604
115.9767 2.865
116.0070 2.812
116.0373 2.812
116.0676 2.448
116.0979 2.760
116.1281 3.490
116.1584 2.552
116.1887 2.292
116.2190 3.281
116.2493 2.656
116.2795 2.917
116.3098 3.229
116.3401 2.448
116.3704 2.500
116.4006 2.969
116.4309 2.604
116.4612 3.177
116.4915 2.396
116.5218 2.604
116.5520 2.187
116.5823 2.656
116.6126 2.448
116.6429 2.500
116.6732 2.240
116.7034 2.240
116.7337 1.823
116.7640 1.458
116.7943 1.562
116.8245 1.562
116.8548 1.615
116.8851 1.615
116.9154 1.667
116.9457 1.875
116.9759 1.042
117.0062 1.667
117.0365 1.562
117.0668 1.146
117.0971 1.875
117.1273 1.250
117.1576 1.875
117.1879 1.250
117.2182 1.198
117.2485 1.667
117.2787 1.250
117.3090 1.562
117.3393 1.667
117.3696 1.562
117.3998 1.042
117.4301 1.510
117.4604 1.146
117.4907 1.615
117.5210 0.885
117.5512 1.510
117.5815 1.719
117.6118 1.146
117.6421 0.781
117.6724 1.250
117.7026 1.042
117.7329 1.094
117.7632 0.937
117.7935 1.562
117.8237 1.875
117.8540 1.094
117.8843 1.250
117.9146 1.250
117.9449 1.302
117.9751 1.250
118.0054 0.677
118.0357 1.094
118.0660 1.875
118.0963 1.250
118.1265 1.198
118.1568 0.677
118.1871 1.510
118.2174 1.250
118.2476 1.250
118.2779 0.990
118.3082 0.990
118.3385 0.833
118.3688 1.250
118.3990 1.302
118.4293 1.198
118.4596 1.094
118.4899 1.510
118.5202 1.250
118.5504 0.990
118.5807 0.521
118.6110 1.094
118.6413 1.198
118.6715 1.302
118.7018 0.937
118.7321 1.302
118.7624 1.146
118.7927 1.146
118.8229 1.250
118.8532 1.042
118.8835 0.990
118.9138 0.833
118.9441 1.250
118.9743 1.302
119.0046 1.250
119.0349 1.094
119.0652 1.875
119.0954 1.094
119.1257 1.198
119.1560 0.990
119.1863 1.094
119.2166 1.094
119.2468 1.042
119.2771 0.885
119.3074 1.354
119.3377 0.521
119.3680 1.094
119.3982 1.354
119.4285 0.625
119.4588 1.146
119.4891 1.146
119.5193 1.562
119.5496 1.510
119.5799 0.990
119.6102 1.094
119.6405 1.406
119.6707 1.458
119.7010 1.250
119.7313 0.937
119.7616 1.302
119.7919 1.354
119.8221 1.354
119.8524 1.094
119.8827 1.094
119.9130 1.250
119.9433 1.146
119.9735 1.302
120.0038 1.042
