'Id: "" Comment: "" Operator: "Lab Manager" Anode: "Cu" Scantype: "Locked Coupled" TimePerStep: "19.2" X: "9999" Y: "9999" Z: "9999" 
10.0015 3.698
10.0318 3.854
10.0620 3.854
10.0923 3.281
10.1226 3.646
10.1529 4.062
10.1832 4.167
10.2134 3.594
10.2437 3.437
10.2740 3.750
10.3043 4.271
10.3346 3.281
10.3648 3.906
10.3951 3.750
10.4254 4.219
10.4557 3.333
10.4859 4.323
10.5162 3.542
10.5465 3.958
10.5768 3.281
10.6071 3.229
10.6373 4.062
10.6676 3.854
10.6979 2.500
10.7282 4.219
10.7585 3.333
10.7887 3.802
10.8190 2.969
10.8493 4.115
10.8796 3.542
10.9098 4.115
10.9401 3.750
10.9704 3.437
11.0007 4.479
11.0310 4.792
11.0612 3.802
11.0915 3.333
11.1218 3.385
11.1521 2.969
11.1824 3.750
11.2126 3.854
11.2429 3.594
11.2732 2.760
11.3035 3.958
11.3337 3.437
11.3640 4.010
11.3943 3.385
11.4246 4.062
11.4549 3.594
11.4851 4.062
11.5154 3.646
11.5457 3.073
11.5760 3.646
11.6063 4.167
11.6365 3.333
11.6668 3.854
11.6971 4.479
11.7274 4.115
11.7577 3.646
11.7879 2.812
11.8182 3.958
11.8485 3.542
11.8788 4.479
11.9090 3.594
11.9393 3.177
11.9696 3.073
11.9999 3.125
12.0302 2.917
12.0604 4.010
12.0907 3.646
12.1210 3.437
12.1513 3.021
12.1816 3.750
12.2118 3.437
12.2421 3.385
12.2724 4.479
12.3027 3.594
12.3329 3.646
12.3632 3.437
12.3935 2.917
12.4238 3.750
12.4541 2.969
12.4843 3.177
12.5146 3.021
12.5449 3.333
12.5752 3.802
12.6055 3.021
12.6357 3.385
12.6660 3.750
12.6963 4.010
12.7266 3.073
12.7568 2.969
12.7871 3.229
12.8174 2.656
12.8477 3.490
12.8780 3.646
12.9082 3.281
12.9385 3.229
12.9688 2.604
12.9991 3.437
13.0294 3.177
13.0596 3.281
13.0899 3.229
13.1202 3.906
13.1505 3.021
13.1807 3.073
13.2110 3.594
13.2413 3.073
13.2716 2.917
13.3019 3.229
13.3321 3.281
13.3624 3.906
13.3927 2.865
13.4230 2.760
13.4533 3.490
13.4835 2.969
13.5138 3.229
13.5441 2.656
13.5744 3.229
13.6046 3.021
13.6349 2.760
13.6652 3.177
13.6955 3.125
13.7258 2.865
13.7560 2.812
13.7863 4.010
13.8166 4.010
13.8469 3.594
13.8772 3.437
13.9074 2.656
13.9377 4.062
13.9680 2.865
13.9983 2.917
14.0285 3.594
14.0588 2.240
14.0891 3.594
14.1194 2.135
14.1497 3.333
14.1799 2.396
14.2102 3.542
14.2405 3.125
14.2708 3.698
14.3011 2.292
14.3313 2.917
14.3616 3.281
14.3919 3.437
14.4222 2.760
14.4524 2.917
14.4827 3.021
14.5130 3.854
14.5433 3.073
14.5736 3.125
14.6038 2.552
14.6341 2.708
14.6644 3.333
14.6947 2.708
14.7250 3.125
14.7552 3.594
14.7855 3.125
14.8158 3.333
14.8461 2.656
14.8764 3.073
14.9066 3.021
14.9369 3.021
14.9672 3.229
14.9975 3.021
15.0277 3.125
15.0580 3.177
15.0883 3.802
15.1186 3.229
15.1489 3.073
15.1791 3.437
15.2094 2.604
15.2397 3.229
15.2700 3.750
15.3003 3.021
15.3305 3.021
15.3608 2.760
15.3911 3.229
15.4214 3.385
15.4516 3.802
15.4819 2.656
15.5122 3.750
15.5425 2.969
15.5728 3.021
15.6030 3.437
15.6333 3.333
15.6636 3.646
15.6939 3.646
15.7242 3.281
15.7544 3.542
15.7847 2.552
15.8150 3.125
15.8453 2.969
15.8755 3.281
15.9058 3.281
15.9361 2.448
15.9664 2.656
15.9967 2.604
16.0269 3.385
16.0572 2.969
16.0875 3.021
16.1178 3.281
16.1481 3.646
16.1783 2.500
16.2086 3.281
16.2389 2.656
16.2692 3.125
16.2994 2.604
16.3297 3.125
16.3600 2.656
16.3903 3.385
16.4206 2.448
16.4508 2.865
16.4811 3.177
16.5114 2.917
16.5417 2.135
16.5720 2.552
16.6022 3.281
16.6325 3.490
16.6628 2.552
16.6931 2.656
16.7233 2.812
16.7536 2.500
16.7839 3.437
16.8142 3.542
16.8445 3.229
16.8747 3.073
16.9050 3.698
16.9353 3.229
16.9656 3.906
16.9959 2.604
17.0261 3.021
17.0564 3.542
17.0867 3.177
17.1170 3.594
17.1472 3.021
17.1775 2.812
17.2078 2.604
17.2381 3.125
17.2684 2.604
17.2986 3.542
17.3289 3.385
17.3592 3.177
17.3895 3.125
17.4198 2.865
17.4500 2.708
17.4803 2.656
17.5106 3.646
17.5409 2.344
17.5712 3.125
17.6014 2.292
17.6317 2.187
17.6620 3.490
17.6923 3.333
17.7225 3.333
17.7528 3.750
17.7831 2.865
17.8134 3.229
17.8437 3.125
17.8739 3.125
17.9042 2.760
17.9345 2.344
17.9648 3.229
17.9951 3.177
18.0253 2.812
18.0556 3.177
18.0859 2.865
18.1162 2.240
18.1464 3.073
18.1767 3.281
18.2070 3.385
18.2373 2.552
18.2676 2.604
18.2978 3.333
18.3281 2.552
18.3584 2.552
18.3887 3.073
18.4190 2.760
18.4492 2.396
18.4795 2.656
18.5098 3.229
18.5401 3.854
18.5703 3.229
18.6006 2.448
18.6309 2.656
18.6612 3.229
18.6915 2.552
18.7217 3.229
18.7520 2.240
18.7823 2.604
18.8126 1.719
18.8429 1.927
18.8731 3.437
18.9034 3.437
18.9337 3.021
18.9640 2.500
18.9942 3.177
19.0245 2.344
19.0548 2.604
19.0851 3.594
19.1154 3.073
19.1456 1.771
19.1759 2.812
19.2062 3.021
19.2365 3.229
19.2668 3.542
19.2970 2.812
19.3273 2.656
19.3576 3.854
19.3879 2.865
19.4181 2.969
19.4484 3.073
19.4787 2.396
19.5090 2.552
19.5393 2.865
19.5695 2.240
19.5998 2.448
19.6301 2.812
19.6604 2.396
19.6907 2.812
19.7209 2.708
19.7512 2.760
19.7815 2.865
19.8118 2.760
19.8420 2.552
19.8723 2.656
19.9026 2.448
19.9329 2.240
19.9632 2.917
19.9934 2.865
20.0237 3.021
20.0540 2.917
20.0843 3.073
20.1146 2.708
20.1448 2.552
20.1751 2.812
20.2054 2.812
20.2357 2.448
20.2659 2.552
20.2962 2.187
20.3265 3.333
20.3568 2.552
20.3871 2.656
20.4173 2.865
20.4476 2.969
20.4779 2.760
20.5082 3.333
20.5385 2.969
20.5687 2.500
20.5990 3.854
20.6293 2.604
20.6596 3.229
20.6899 2.760
20.7201 2.969
20.7504 2.500
20.7807 3.021
20.8110 2.240
20.8412 3.073
20.8715 2.969
20.9018 2.135
20.9321 2.604
20.9624 3.021
20.9926 2.240
21.0229 2.812
21.0532 2.500
21.0835 2.552
21.1138 2.656
21.1440 3.177
21.1743 3.229
21.2046 3.177
21.2349 3.177
21.2651 3.229
21.2954 2.812
21.3257 2.656
21.3560 2.396
21.3863 1.562
21.4165 2.760
21.4468 3.021
21.4771 2.708
21.5074 3.021
21.5377 3.281
21.5679 2.344
21.5982 2.708
21.6285 2.812
21.6588 3.542
21.6890 2.344
21.7193 2.344
21.7496 3.281
21.7799 2.917
21.8102 3.073
21.8404 2.552
21.8707 3.125
21.9010 2.187
21.9313 2.552
21.9616 2.760
21.9918 2.760
22.0221 2.344
22.0524 2.344
22.0827 3.385
22.1129 3.333
22.1432 2.812
22.1735 3.229
22.2038 2.917
22.2341 3.177
22.2643 2.604
22.2946 2.448
22.3249 2.187
22.3552 3.229
22.3855 2.917
22.4157 2.292
22.4460 2.969
22.4763 2.604
22.5066 2.917
22.5368 3.021
22.5671 3.125
22.5974 2.552
22.6277 2.292
22.6580 2.917
22.6882 2.656
22.7185 3.229
22.7488 2.552
22.7791 3.281
22.8094 2.500
22.8396 3.073
22.8699 2.135
22.9002 2.604
22.9305 2.240
22.9607 3.125
22.9910 2.917
23.0213 2.917
23.0516 2.031
23.0819 2.604
23.1121 2.344
23.1424 2.865
23.1727 2.708
23.2030 2.083
23.2333 2.135
23.2635 2.187
23.2938 2.865
23.3241 2.865
23.3544 2.344
23.3846 2.917
23.4149 2.448
23.4452 2.292
23.4755 2.292
23.5058 3.177
23.5360 2.500
23.5663 2.812
23.5966 2.292
23.6269 2.344
23.6572 2.917
23.6874 2.604
23.7177 3.073
23.7480 2.396
23.7783 3.073
23.8086 3.437
23.8388 2.865
23.8691 2.812
23.8994 2.448
23.9297 2.604
23.9599 2.969
23.9902 1.927
24.0205 3.281
24.0508 2.708
24.0811 2.292
24.1113 2.760
24.1416 2.760
24.1719 2.656
24.2022 2.083
24.2325 3.073
24.2627 2.760
24.2930 2.344
24.3233 2.760
24.3536 2.604
24.3838 2.396
24.4141 2.812
24.4444 3.021
24.4747 3.021
24.5050 2.604
24.5352 2.865
24.5655 2.344
24.5958 3.021
24.6261 3.802
24.6564 2.604
24.6866 3.229
24.7169 2.604
24.7472 1.875
24.7775 3.906
24.8077 2.031
24.8380 2.187
24.8683 2.656
24.8986 2.396
24.9289 3.177
24.9591 2.708
24.9894 2.083
25.0197 3.646
25.0500 2.187
25.0803 2.604
25.1105 3.073
25.1408 2.656
25.1711 2.240
25.2014 2.969
25.2316 2.448
25.2619 2.656
25.2922 3.333
25.3225 3.073
25.3528 2.292
25.3830 2.917
25.4133 2.812
25.4436 2.917
25.4739 2.396
25.5042 2.917
25.5344 2.187
25.5647 2.865
25.5950 2.708
25.6253 2.917
25.6555 3.021
25.6858 2.969
25.7161 2.448
25.7464 3.281
25.7767 2.604
25.8069 3.437
25.8372 2.292
25.8675 2.812
25.8978 2.552
25.9281 2.865
25.9583 3.125
25.9886 3.594
26.0189 2.812
26.0492 3.125
26.0794 3.125
26.1097 2.760
26.1400 2.969
26.1703 2.500
26.2006 3.125
26.2308 2.708
26.2611 3.333
26.2914 2.240
26.3217 2.240
26.3520 3.073
26.3822 2.552
26.4125 2.500
26.4428 3.333
26.4731 2.500
26.5034 2.656
26.5336 2.656
26.5639 2.812
26.5942 2.500
26.6245 2.240
26.6547 3.125
26.6850 3.385
26.7153 2.812
26.7456 2.969
26.7759 3.333
26.8061 2.760
26.8364 3.125
26.8667 2.604
26.8970 2.604
26.9273 3.542
26.9575 2.812
26.9878 2.708
27.0181 3.437
27.0484 3.333
27.0786 3.021
27.1089 2.812
27.1392 3.333
27.1695 2.760
27.1998 2.240
27.2300 4.010
27.2603 2.969
27.2906 2.708
27.3209 3.073
27.3512 3.021
27.3814 3.490
27.4117 3.281
27.4420 3.490
27.4723 3.177
27.5025 2.812
27.5328 3.594
27.5631 3.177
27.5934 3.333
27.6237 3.646
27.6539 3.021
27.6842 3.333
27.7145 3.802
27.7448 3.750
27.7751 3.385
27.8053 3.437
27.8356 3.073
27.8659 2.552
27.8962 3.281
27.9264 2.396
27.9567 3.646
27.9870 2.865
28.0173 3.906
28.0476 2.969
28.0778 4.219
28.1081 3.229
28.1384 3.750
28.1687 3.385
28.1990 2.240
28.2292 2.865
28.2595 3.229
28.2898 2.760
28.3201 3.906
28.3503 2.396
28.3806 3.229
28.4109 4.323
28.4412 3.229
28.4715 3.802
28.5017 4.531
28.5320 2.448
28.5623 3.490
28.5926 2.187
28.6229 2.812
28.6531 3.906
28.6834 3.594
28.7137 3.281
28.7440 3.385
28.7742 3.958
28.8045 3.073
28.8348 3.333
28.8651 3.333
28.8954 3.906
28.9256 3.177
28.9559 3.125
28.9862 4.427
29.0165 3.802
29.0468 3.750
29.0770 4.219
29.1073 3.854
29.1376 4.062
29.1679 4.740
29.1981 3.021
29.2284 3.906
29.2587 3.750
29.2890 3.854
29.3193 3.333
29.3495 3.542
29.3798 4.375
29.4101 4.219
29.4404 3.385
29.4707 3.437
29.5009 3.750
29.5312 3.802
29.5615 5.104
29.5918 4.115
29.6221 4.271
29.6523 3.854
29.6826 3.854
29.7129 5.052
29.7432 4.583
29.7734 4.479
29.8037 5.156
29.8340 4.479
29.8643 5.833
29.8946 4.948
29.9248 4.427
29.9551 5.573
29.9854 5.000
30.0157 4.687
30.0460 5.104
30.0762 5.521
30.1065 5.469
30.1368 5.052
30.1671 7.031
30.1973 4.896
30.2276 5.365
30.2579 5.937
30.2882 4.948
30.3185 5.469
30.3487 5.312
30.3790 5.417
30.4093 5.469
30.4396 5.833
30.4699 7.187
30.5001 6.250
30.5304 6.823
30.5607 6.667
30.5910 6.458
30.6212 6.302
30.6515 6.719
30.6818 6.146
30.7121 6.510
30.7424 7.292
30.7726 8.073
30.8029 8.542
30.8332 8.646
30.8635 8.125
30.8938 10.104
30.9240 11.406
30.9543 9.948
30.9846 11.510
31.0149 11.042
31.0451 12.708
31.0754 12.135
31.1057 13.437
31.1360 14.062
31.1663 16.094
31.1965 16.875
31.2268 18.125
31.2571 18.646
31.2874 21.875
31.3177 20.625
31.3479 22.969
31.3782 28.646
31.4085 30.990
31.4388 33.073
31.4690 38.281
31.4993 42.031
31.5296 46.562
31.5599 49.010
31.5902 47.083
31.6204 53.802
31.6507 53.542
31.6810 53.854
31.7113 55.521
31.7416 53.750
31.7718 51.562
31.8021 43.437
31.8324 42.031
31.8627 36.146
31.8929 35.469
31.9232 29.427
31.9535 24.583
31.9838 25.156
32.0141 22.135
32.0443 19.844
32.0746 18.906
32.1049 17.187
32.1352 16.719
32.1655 15.156
32.1957 13.802
32.2260 11.875
32.2563 11.250
32.2866 12.344
32.3169 10.573
32.3471 9.687
32.3774 9.740
32.4077 11.354
32.4380 9.687
32.4682 8.750
32.4985 9.010
32.5288 9.635
32.5591 8.906
32.5894 7.812
32.6196 7.917
32.6499 8.542
32.6802 7.083
32.7105 7.656
32.7408 7.969
32.7710 7.708
32.8013 6.771
32.8316 7.083
32.8619 6.562
32.8921 6.771
32.9224 7.500
32.9527 6.615
32.9830 8.229
33.0133 5.208
33.0435 6.354
33.0738 6.562
33.1041 6.250
33.1344 6.615
33.1647 7.031
33.1949 7.552
33.2252 6.562
33.2555 6.719
33.2858 6.875
33.3160 6.458
33.3463 6.875
33.3766 7.135
33.4069 6.615
33.4372 6.719
33.4674 6.510
33.4977 7.187
33.5280 7.552
33.5583 8.177
33.5886 8.125
33.6188 8.542
33.6491 8.125
33.6794 8.021
33.7097 8.698
33.7399 9.271
33.7702 9.219
33.8005 10.677
33.8308 10.104
33.8611 11.615
33.8913 11.719
33.9216 13.229
33.9519 16.146
33.9822 14.635
34.0125 16.719
34.0427 16.875
34.0730 19.010
34.1033 22.552
34.1336 28.594
34.1638 31.354
34.1941 35.677
34.2244 44.531
34.2547 55.677
34.2850 62.656
34.3152 70.729
34.3455 75.469
34.3758 72.292
34.4061 59.896
34.4364 50.885
34.4666 46.719
34.4969 34.010
34.5272 31.510
34.5575 23.958
34.5877 22.396
34.6180 19.479
34.6483 17.812
34.6786 15.885
34.7089 16.250
34.7391 13.333
34.7694 13.073
34.7997 12.240
34.8300 12.812
34.8603 12.135
34.8905 10.833
34.9208 11.198
34.9511 10.677
34.9814 10.990
35.0116 10.729
35.0419 11.458
35.0722 11.094
35.1025 11.771
35.1328 11.719
35.1630 12.135
35.1933 13.646
35.2236 12.083
35.2539 10.417
35.2842 12.031
35.3144 12.552
35.3447 11.823
35.3750 13.698
35.4053 14.115
35.4356 14.062
35.4658 14.740
35.4961 19.740
35.5264 15.417
35.5567 16.667
35.5869 19.219
35.6172 19.427
35.6475 20.000
35.6778 24.740
35.7081 27.083
35.7383 28.021
35.7686 32.031
35.7989 32.187
35.8292 35.573
35.8595 37.917
35.8897 44.010
35.9200 49.010
35.9503 50.729
35.9806 57.656
36.0108 63.802
36.0411 71.458
36.0714 78.542
36.1017 82.500
36.1320 81.875
36.1622 83.281
36.1925 81.979
36.2228 81.927
36.2531 80.573
36.2834 74.479
36.3136 68.333
36.3439 62.604
36.3742 53.854
36.4045 49.323
36.4347 45.156
36.4650 37.552
36.4953 34.167
36.5256 29.219
36.5559 27.344
36.5861 24.271
36.6164 22.396
36.6467 20.104
36.6770 18.073
36.7073 17.917
36.7375 17.187
36.7678 16.250
36.7981 14.948
36.8284 13.021
36.8586 13.490
36.8889 11.771
36.9192 11.146
36.9495 10.573
36.9798 10.937
37.0100 10.365
37.0403 9.531
37.0706 8.698
37.1009 9.635
37.1312 8.021
37.1614 7.969
37.1917 6.719
37.2220 6.823
37.2523 7.760
37.2825 7.083
37.3128 5.885
37.3431 7.500
37.3734 7.135
37.4037 5.885
37.4339 7.187
37.4642 5.208
37.4945 6.458
37.5248 6.146
37.5551 5.885
37.5853 5.469
37.6156 6.094
37.6459 5.521
37.6762 5.417
37.7064 5.312
37.7367 4.740
37.7670 5.521
37.7973 5.573
37.8276 5.469
37.8578 5.208
37.8881 5.000
37.9184 5.052
37.9487 5.000
37.9790 4.583
38.0092 4.792
38.0395 4.323
38.0698 4.323
38.1001 5.260
38.1304 5.000
38.1606 3.802
38.1909 3.490
38.2212 3.906
38.2515 4.167
38.2817 3.698
38.3120 3.437
38.3423 3.906
38.3726 4.167
38.4029 3.646
38.4331 3.125
38.4634 3.437
38.4937 3.333
38.5240 3.906
38.5543 3.594
38.5845 3.490
38.6148 3.281
38.6451 3.750
38.6754 4.219
38.7056 4.115
38.7359 3.542
38.7662 3.385
38.7965 3.490
38.8268 3.385
38.8570 3.958
38.8873 3.281
38.9176 2.812
38.9479 3.542
38.9782 2.865
39.0084 2.552
39.0387 3.490
39.0690 3.021
39.0993 2.708
39.1295 3.073
39.1598 3.542
39.1901 3.073
39.2204 3.646
39.2507 3.229
39.2809 2.812
39.3112 3.073
39.3415 3.698
39.3718 3.958
39.4021 3.073
39.4323 2.760
39.4626 3.021
39.4929 3.021
39.5232 3.073
39.5534 2.760
39.5837 3.281
39.6140 2.760
39.6443 2.656
39.6746 1.979
39.7048 2.812
39.7351 2.708
39.7654 2.552
39.7957 2.656
39.8260 2.240
39.8562 3.490
39.8865 3.229
39.9168 2.865
39.9471 2.708
39.9773 2.552
40.0076 2.292
40.0379 2.500
40.0682 2.656
40.0985 2.708
40.1287 1.667
40.1590 2.656
40.1893 2.448
40.2196 2.604
40.2499 3.073
40.2801 2.656
40.3104 3.229
40.3407 2.708
40.3710 2.292
40.4012 2.708
40.4315 2.344
40.4618 2.552
40.4921 3.437
40.5224 2.187
40.5526 3.229
40.5829 3.021
40.6132 2.240
40.6435 2.240
40.6738 2.656
40.7040 2.240
40.7343 2.604
40.7646 2.240
40.7949 2.083
40.8251 2.396
40.8554 2.812
40.8857 2.031
40.9160 3.385
40.9463 2.240
40.9765 2.292
41.0068 2.292
41.0371 2.292
41.0674 2.448
41.0977 3.177
41.1279 1.927
41.1582 2.500
41.1885 2.969
41.2188 2.292
41.2491 2.135
41.2793 2.344
41.3096 2.344
41.3399 2.135
41.3702 3.333
41.4004 1.927
41.4307 2.969
41.4610 2.344
41.4913 2.760
41.5216 2.812
41.5518 3.229
41.5821 2.240
41.6124 2.240
41.6427 2.344
41.6730 3.333
41.7032 2.604
41.7335 2.135
41.7638 2.240
41.7941 1.927
41.8243 2.396
41.8546 2.240
41.8849 2.760
41.9152 2.708
41.9455 2.448
41.9757 2.031
42.0060 2.187
42.0363 2.396
42.0666 2.135
42.0969 3.021
42.1271 2.552
42.1574 2.708
42.1877 2.604
42.2180 2.500
42.2482 2.448
42.2785 2.083
42.3088 2.812
42.3391 2.031
42.3694 2.500
42.3996 2.812
42.4299 2.135
42.4602 2.187
42.4905 2.344
42.5208 2.083
42.5510 2.240
42.5813 2.656
42.6116 1.875
42.6419 2.448
42.6721 1.979
42.7024 2.917
42.7327 2.917
42.7630 2.656
42.7933 2.031
42.8235 2.604
42.8538 2.344
42.8841 2.396
42.9144 2.865
42.9447 2.083
42.9749 1.927
43.0052 2.552
43.0355 2.083
43.0658 2.448
43.0960 2.240
43.1263 1.875
43.1566 2.865
43.1869 2.448
43.2172 2.083
43.2474 2.344
43.2777 2.604
43.3080 3.281
43.3383 2.396
43.3686 2.604
43.3988 3.177
43.4291 1.979
43.4594 2.604
43.4897 2.344
43.5199 1.771
43.5502 2.083
43.5805 2.083
43.6108 1.927
43.6411 2.396
43.6713 3.229
43.7016 2.969
43.7319 2.865
43.7622 2.448
43.7925 1.979
43.8227 2.500
43.8530 2.344
43.8833 2.500
43.9136 2.812
43.9439 3.021
43.9741 2.083
44.0044 2.135
44.0347 1.875
44.0650 2.292
44.0952 2.760
44.1255 1.875
44.1558 2.656
44.1861 2.344
44.2164 1.771
44.2466 1.927
44.2769 2.240
44.3072 2.969
44.3375 2.656
44.3678 2.292
44.3980 2.396
44.4283 2.448
44.4586 2.344
44.4889 2.656
44.5191 2.969
44.5494 2.240
44.5797 2.500
44.6100 2.396
44.6403 1.927
44.6705 2.135
44.7008 3.281
44.7311 2.500
44.7614 2.187
44.7917 2.500
44.8219 2.240
44.8522 2.865
44.8825 2.552
44.9128 2.865
44.9430 2.760
44.9733 2.031
45.0036 2.292
45.0339 2.240
45.0642 2.708
45.0944 2.812
45.1247 2.396
45.1550 2.865
45.1853 2.240
45.2156 2.708
45.2458 2.448
45.2761 2.656
45.3064 2.708
45.3367 2.448
45.3669 2.552
45.3972 3.177
45.4275 2.500
45.4578 3.073
45.4881 2.708
45.5183 2.031
45.5486 2.604
45.5789 2.187
45.6092 2.604
45.6395 3.333
45.6697 2.552
45.7000 2.969
45.7303 3.177
45.7606 2.292
45.7908 2.656
45.8211 2.656
45.8514 3.021
45.8817 3.073
45.9120 2.969
45.9422 3.125
45.9725 2.656
46.0028 3.125
46.0331 3.490
46.0634 3.542
46.0936 3.594
46.1239 3.437
46.1542 2.656
46.1845 4.115
46.2147 2.448
46.2450 3.177
46.2753 3.594
46.3056 3.073
46.3359 3.281
46.3661 3.021
46.3964 2.812
46.4267 3.281
46.4570 3.229
46.4873 4.219
46.5175 3.750
46.5478 4.219
46.5781 4.010
46.6084 3.385
46.6386 4.479
46.6689 4.792
46.6992 4.323
46.7295 4.167
46.7598 4.896
46.7900 4.948
46.8203 5.052
46.8506 4.896
46.8809 5.469
46.9112 5.156
46.9414 6.302
46.9717 7.135
47.0020 7.187
47.0323 8.177
47.0626 9.115
47.0928 8.385
47.1231 9.219
47.1534 10.521
47.1837 11.406
47.2139 13.177
47.2442 13.490
47.2745 14.427
47.3048 16.406
47.3351 17.969
47.3653 17.448
47.3956 18.229
47.4259 19.792
47.4562 19.375
47.4865 19.167
47.5167 20.156
47.5470 18.073
47.5773 15.781
47.6076 15.729
47.6378 15.417
47.6681 13.958
47.6984 11.875
47.7287 10.990
47.7590 10.885
47.7892 10.260
47.8195 8.594
47.8498 8.021
47.8801 7.083
47.9104 6.615
47.9406 6.094
47.9709 4.948
48.0012 5.573
48.0315 4.479
48.0617 4.740
48.0920 4.635
48.1223 4.062
48.1526 4.896
48.1829 4.844
48.2131 4.792
48.2434 4.167
48.2737 5.000
48.3040 3.646
48.3343 3.906
48.3645 4.115
48.3948 3.490
48.4251 3.854
48.4554 2.604
48.4856 4.323
48.5159 4.010
48.5462 4.219
48.5765 2.865
48.6068 2.917
48.6370 2.865
48.6673 3.021
48.6976 2.448
48.7279 3.125
48.7582 2.292
48.7884 2.812
48.8187 3.073
48.8490 2.969
48.8793 2.656
48.9095 3.437
48.9398 2.448
48.9701 2.760
49.0004 2.656
49.0307 2.552
49.0609 2.812
49.0912 2.917
49.1215 2.500
49.1518 2.656
49.1821 3.437
49.2123 2.708
49.2426 2.448
49.2729 2.344
49.3032 2.969
49.3334 2.031
49.3637 2.396
49.3940 2.500
49.4243 2.135
49.4546 1.979
49.4848 2.552
49.5151 2.292
49.5454 2.187
49.5757 2.448
49.6060 2.448
49.6362 2.552
49.6665 2.083
49.6968 2.604
49.7271 2.344
49.7574 2.552
49.7876 2.448
49.8179 1.875
49.8482 3.125
49.8785 2.396
49.9087 2.031
49.9390 2.396
49.9693 2.240
49.9996 1.875
50.0299 2.396
50.0601 2.240
50.0904 2.135
50.1207 2.344
50.1510 2.187
50.1813 2.344
50.2115 2.448
50.2418 2.240
50.2721 2.031
50.3024 1.823
50.3326 2.292
50.3629 2.344
50.3932 2.604
50.4235 1.771
50.4538 3.073
50.4840 2.969
50.5143 2.187
50.5446 2.760
50.5749 1.927
50.6052 2.604
50.6354 2.656
50.6657 2.135
50.6960 2.031
50.7263 2.292
50.7565 2.865
50.7868 2.865
50.8171 2.031
50.8474 1.979
50.8777 3.073
50.9079 1.927
50.9382 1.979
50.9685 2.292
50.9988 1.719
51.0291 2.448
51.0593 2.031
51.0896 2.031
51.1199 2.344
51.1502 2.031
51.1804 2.708
51.2107 1.823
51.2410 2.083
51.2713 2.656
51.3016 2.396
51.3318 2.344
51.3621 2.240
51.3924 2.500
51.4227 2.135
51.4530 2.448
51.4832 2.031
51.5135 2.187
51.5438 2.500
51.5741 2.240
51.6043 2.656
51.6346 2.865
51.6649 2.240
51.6952 2.083
51.7255 1.927
51.7557 2.500
51.7860 1.979
51.8163 1.927
51.8466 2.344
51.8769 2.240
51.9071 1.927
51.9374 2.552
51.9677 2.240
51.9980 2.135
52.0282 1.979
52.0585 2.708
52.0888 3.021
52.1191 1.719
52.1494 2.187
52.1796 1.979
52.2099 3.177
52.2402 2.448
52.2705 2.552
52.3008 2.187
52.3310 2.083
52.3613 2.552
52.3916 2.240
52.4219 2.344
52.4521 3.542
52.4824 2.969
52.5127 2.604
52.5430 2.240
52.5733 1.875
52.6035 2.396
52.6338 2.552
52.6641 2.917
52.6944 2.135
52.7247 2.552
52.7549 2.292
52.7852 2.812
52.8155 1.823
52.8458 2.396
52.8761 2.396
52.9063 2.760
52.9366 1.875
52.9669 2.656
52.9972 2.969
53.0274 2.448
53.0577 1.146
53.0880 2.292
53.1183 2.500
53.1486 2.240
53.1788 2.292
53.2091 2.292
53.2394 2.240
53.2697 3.021
53.3000 2.552
53.3302 2.187
53.3605 2.708
53.3908 2.292
53.4211 2.240
53.4513 3.021
53.4816 2.500
53.5119 2.500
53.5422 2.760
53.5725 2.240
53.6027 2.396
53.6330 3.281
53.6633 2.396
53.6936 3.021
53.7239 2.969
53.7541 3.281
53.7844 1.823
53.8147 2.760
53.8450 2.448
53.8752 2.865
53.9055 2.656
53.9358 2.708
53.9661 2.083
53.9964 3.229
54.0266 2.708
54.0569 2.500
54.0872 3.125
54.1175 2.552
54.1478 2.708
54.1780 2.708
54.2083 3.073
54.2386 2.760
54.2689 2.396
54.2991 2.500
54.3294 2.708
54.3597 2.708
54.3900 3.906
54.4203 2.917
54.4505 3.333
54.4808 2.917
54.5111 2.500
54.5414 2.760
54.5717 2.865
54.6019 3.229
54.6322 2.500
54.6625 3.073
54.6928 3.281
54.7230 2.604
54.7533 3.177
54.7836 2.604
54.8139 2.187
54.8442 2.865
54.8744 3.594
54.9047 2.812
54.9350 3.073
54.9653 3.229
54.9956 3.073
55.0258 3.958
55.0561 3.542
55.0864 3.125
55.1167 3.385
55.1469 3.385
55.1772 3.385
55.2075 3.437
55.2378 3.125
55.2681 4.010
55.2983 2.760
55.3286 4.687
55.3589 3.854
55.3892 4.844
55.4195 4.740
55.4497 4.115
55.4800 4.896
55.5103 3.958
55.5406 5.000
55.5709 4.271
55.6011 3.646
55.6314 4.531
55.6617 5.104
55.6920 5.104
55.7222 5.156
55.7525 6.198
55.7828 7.187
55.8131 6.719
55.8434 6.615
55.8736 7.135
55.9039 6.771
55.9342 8.333
55.9645 8.333
55.9948 8.646
56.0250 8.542
56.0553 10.469
56.0856 10.937
56.1159 10.260
56.1461 11.927
56.1764 11.406
56.2067 13.958
56.2370 16.667
56.2673 14.479
56.2975 15.781
56.3278 18.490
56.3581 20.052
56.3884 24.531
56.4187 25.781
56.4489 22.969
56.4792 25.833
56.5095 23.177
56.5398 24.323
56.5700 23.125
56.6003 24.219
56.6306 22.604
56.6609 19.844
56.6912 19.896
56.7214 17.135
56.7517 16.927
56.7820 16.198
56.8123 14.583
56.8426 12.708
56.8728 10.885
56.9031 9.740
56.9334 10.156
56.9637 8.333
56.9939 8.125
57.0242 8.125
57.0545 7.135
57.0848 6.875
57.1151 7.396
57.1453 6.406
57.1756 6.094
57.2059 5.312
57.2362 6.667
57.2665 5.833
57.2967 5.365
57.3270 5.104
57.3573 4.844
57.3876 4.740
57.4178 4.792
57.4481 5.052
57.4784 4.219
57.5087 5.365
57.5390 5.208
57.5692 3.958
57.5995 4.062
57.6298 4.167
57.6601 3.958
57.6904 3.750
57.7206 3.854
57.7509 3.542
57.7812 3.385
57.8115 3.125
57.8417 3.802
57.8720 4.323
57.9023 3.490
57.9326 3.281
57.9629 3.177
57.9931 3.385
58.0234 2.865
58.0537 2.500
58.0840 3.594
58.1143 2.656
58.1445 4.323
58.1748 3.542
58.2051 3.125
58.2354 3.281
58.2656 3.073
58.2959 3.073
58.3262 2.865
58.3565 2.917
58.3868 2.812
58.4170 2.760
58.4473 2.812
58.4776 2.760
58.5079 3.073
58.5382 3.073
58.5684 2.969
58.5987 3.021
58.6290 2.812
58.6593 3.646
58.6896 3.073
58.7198 2.865
58.7501 2.969
58.7804 2.604
58.8107 2.969
58.8409 2.969
58.8712 3.281
58.9015 2.708
58.9318 2.708
58.9621 2.917
58.9923 2.604
59.0226 3.437
59.0529 2.812
59.0832 3.437
59.1135 3.073
59.1437 3.229
59.1740 3.073
59.2043 1.979
59.2346 2.292
59.2648 2.448
59.2951 2.760
59.3254 2.656
59.3557 2.969
59.3860 2.448
59.4162 2.865
59.4465 2.865
59.4768 2.760
59.5071 2.760
59.5374 2.604
59.5676 2.500
59.5979 2.552
59.6282 1.875
59.6585 2.656
59.6887 2.760
59.7190 2.656
59.7493 2.604
59.7796 2.812
59.8099 2.344
59.8401 1.875
59.8704 2.187
59.9007 3.854
59.9310 1.771
59.9613 3.281
59.9915 2.552
60.0218 2.865
60.0521 2.656
60.0824 3.229
60.1126 2.135
60.1429 2.135
60.1732 2.865
60.2035 3.021
60.2338 2.865
60.2640 2.083
60.2943 3.229
60.3246 3.281
60.3549 2.656
60.3852 2.396
60.4154 2.917
60.4457 2.604
60.4760 3.125
60.5063 2.708
60.5365 2.344
60.5668 2.552
60.5971 2.917
60.6274 3.333
60.6577 2.812
60.6879 2.135
60.7182 2.969
60.7485 3.177
60.7788 2.969
60.8091 3.021
60.8393 2.812
60.8696 2.396
60.8999 2.552
60.9302 3.073
60.9604 3.125
60.9907 3.021
61.0210 3.073
61.0513 2.760
61.0816 2.760
61.1118 2.448
61.1421 3.698
61.1724 2.969
61.2027 3.125
61.2330 3.490
61.2632 3.281
61.2935 3.281
61.3238 2.917
61.3541 3.437
61.3844 3.385
61.4146 3.802
61.4449 3.021
61.4752 2.760
61.5055 3.594
61.5357 3.750
61.5660 3.854
61.5963 3.594
61.6266 3.646
61.6569 3.646
61.6871 4.062
61.7174 3.906
61.7477 3.854
61.7780 4.375
61.8083 4.635
61.8385 3.177
61.8688 3.437
61.8991 4.062
61.9294 4.062
61.9596 5.208
61.9899 4.375
62.0202 5.573
62.0505 5.104
62.0808 5.260
62.1110 5.833
62.1413 5.833
62.1716 6.510
62.2019 6.042
62.2322 6.771
62.2624 7.969
62.2927 7.292
62.3230 9.479
62.3533 8.802
62.3835 10.156
62.4138 10.208
62.4441 11.354
62.4744 11.615
62.5047 14.062
62.5349 12.708
62.5652 16.042
62.5955 16.875
62.6258 18.021
62.6561 19.844
62.6863 20.469
62.7166 19.687
62.7469 22.760
62.7772 22.240
62.8074 21.667
62.8377 23.490
62.8680 21.094
62.8983 20.156
62.9286 20.677
62.9588 18.802
62.9891 16.771
63.0194 15.208
63.0497 14.635
63.0800 12.656
63.1102 12.292
63.1405 11.042
63.1708 10.781
63.2011 8.750
63.2313 8.542
63.2616 8.021
63.2919 7.656
63.3222 7.917
63.3525 5.000
63.3827 5.625
63.4130 5.677
63.4433 5.052
63.4736 5.260
63.5039 4.896
63.5341 4.531
63.5644 5.729
63.5947 4.948
63.6250 4.167
63.6552 4.583
63.6855 4.792
63.7158 3.906
63.7461 4.115
63.7764 3.854
63.8066 2.292
63.8369 4.479
63.8672 3.698
63.8975 2.917
63.9278 3.281
63.9580 3.437
63.9883 3.750
64.0186 3.490
64.0489 3.802
64.0791 3.385
64.1094 2.708
64.1397 3.281
64.1700 3.385
64.2003 3.229
64.2305 3.333
64.2608 2.448
64.2911 3.333
64.3214 3.073
64.3517 3.594
64.3819 3.125
64.4122 3.594
64.4425 3.021
64.4728 2.708
64.5031 2.604
64.5333 2.969
64.5636 2.552
64.5939 2.656
64.6242 3.490
64.6544 3.333
64.6847 3.333
64.7150 3.594
64.7453 3.073
64.7756 2.396
64.8058 3.333
64.8361 3.958
64.8664 3.281
64.8967 2.969
64.9270 3.073
64.9572 3.125
64.9875 3.333
65.0178 3.177
65.0481 3.125
65.0783 3.229
65.1086 3.385
65.1389 3.542
65.1692 2.396
65.1995 3.542
65.2297 3.177
65.2600 2.396
65.2903 3.073
65.3206 3.125
65.3509 2.708
65.3811 3.177
65.4114 3.646
65.4417 3.385
65.4720 2.552
65.5022 3.333
65.5325 3.490
65.5628 3.750
65.5931 3.229
65.6234 3.750
65.6536 3.437
65.6839 3.542
65.7142 3.854
65.7445 3.854
65.7748 3.490
65.8050 3.542
65.8353 4.531
65.8656 4.219
65.8959 4.427
65.9261 3.802
65.9564 4.271
65.9867 3.958
66.0170 4.427
66.0473 4.427
66.0775 4.740
66.1078 5.677
66.1381 4.896
66.1684 4.844
66.1987 5.208
66.2289 4.844
66.2592 6.094
66.2895 5.677
66.3198 5.885
66.3500 5.625
66.3803 6.771
66.4106 5.104
66.4409 5.469
66.4712 4.948
66.5014 4.844
66.5317 5.521
66.5620 5.729
66.5923 4.271
66.6226 5.104
66.6528 4.531
66.6831 5.052
66.7134 5.052
66.7437 5.312
66.7739 5.260
66.8042 4.010
66.8345 5.156
66.8648 5.104
66.8951 4.583
66.9253 5.469
66.9556 5.052
66.9859 4.583
67.0162 5.677
67.0465 4.531
67.0767 5.000
67.1070 5.260
67.1373 5.260
67.1676 5.833
67.1978 5.781
67.2281 6.354
67.2584 6.615
67.2887 6.615
67.3190 6.979
67.3492 7.917
67.3795 7.135
67.4098 8.125
67.4401 8.073
67.4704 9.427
67.5006 10.573
67.5309 8.958
67.5612 10.000
67.5915 10.990
67.6218 10.937
67.6520 12.865
67.6823 13.437
67.7126 14.948
67.7429 15.573
67.7731 16.823
67.8034 16.823
67.8337 16.615
67.8640 16.042
67.8943 15.990
67.9245 17.865
67.9548 17.552
67.9851 15.000
68.0154 14.219
68.0457 15.312
68.0759 14.896
68.1062 13.698
68.1365 11.927
68.1668 11.250
68.1970 10.833
68.2273 10.052
68.2576 9.635
68.2879 9.010
68.3182 8.385
68.3484 9.062
68.3787 7.656
68.4090 7.708
68.4393 7.708
68.4696 7.292
68.4998 8.125
68.5301 7.083
68.5604 6.302
68.5907 8.021
68.6209 7.083
68.6512 9.115
68.6815 7.500
68.7118 7.708
68.7421 7.396
68.7723 8.229
68.8026 7.969
68.8329 9.271
68.8632 9.427
68.8935 8.281
68.9237 9.115
68.9540 9.271
68.9843 9.740
69.0146 8.854
69.0448 8.854
69.0751 10.052
69.1054 9.010
69.1357 7.708
69.1660 8.490
69.1962 7.917
69.2265 8.646
69.2568 7.656
69.2871 7.031
69.3174 6.406
69.3476 5.573
69.3779 6.667
69.4082 6.042
69.4385 5.365
69.4687 5.521
69.4990 5.208
69.5293 3.958
69.5596 5.208
69.5899 5.104
69.6201 4.375
69.6504 3.177
69.6807 3.958
69.7110 3.646
69.7413 3.854
69.7715 4.115
69.8018 3.698
69.8321 3.125
69.8624 3.021
69.8926 2.917
69.9229 3.333
69.9532 3.437
69.9835 2.708
70.0138 2.969
70.0440 2.812
70.0743 3.229
70.1046 2.812
70.1349 2.865
70.1652 2.812
70.1954 2.865
70.2257 3.229
70.2560 2.135
70.2863 3.125
70.3166 2.344
70.3468 3.542
70.3771 2.448
70.4074 2.552
70.4377 2.969
70.4679 2.604
70.4982 2.656
70.5285 2.292
70.5588 1.823
70.5891 2.656
70.6193 2.292
70.6496 2.187
70.6799 2.760
70.7102 2.760
70.7405 1.771
70.7707 2.552
70.8010 2.760
70.8313 2.500
70.8616 2.187
70.8918 2.396
70.9221 2.135
70.9524 2.135
70.9827 2.240
71.0130 2.292
71.0432 1.979
71.0735 1.927
71.1038 2.396
71.1341 1.771
71.1644 3.073
71.1946 1.979
71.2249 2.760
71.2552 2.344
71.2855 2.917
71.3157 2.760
71.3460 1.823
71.3763 2.448
71.4066 1.823
71.4369 2.865
71.4671 2.344
71.4974 2.552
71.5277 1.667
71.5580 2.031
71.5883 2.083
71.6185 2.083
71.6488 2.604
71.6791 1.875
71.7094 2.396
71.7396 2.552
71.7699 1.979
71.8002 2.135
71.8305 1.823
71.8608 2.240
71.8910 2.917
71.9213 2.865
71.9516 2.240
71.9819 2.448
72.0122 2.812
72.0424 2.292
72.0727 2.292
72.1030 2.552
72.1333 2.448
72.1635 2.396
72.1938 2.760
72.2241 2.135
72.2544 3.125
72.2847 2.031
72.3149 2.812
72.3452 2.917
72.3755 3.021
72.4058 3.490
72.4361 2.917
72.4663 3.177
72.4966 3.333
72.5269 2.917
72.5572 3.437
72.5874 3.281
72.6177 2.865
72.6480 2.760
72.6783 3.333
72.7086 3.281
72.7388 3.229
72.7691 2.292
72.7994 2.708
72.8297 2.344
72.8600 2.708
72.8902 1.979
72.9205 2.500
72.9508 3.021
72.9811 2.292
73.0113 1.979
73.0416 2.344
73.0719 1.771
73.1022 2.604
73.1325 2.344
73.1627 2.396
73.1930 1.719
73.2233 2.240
73.2536 2.031
73.2839 1.875
73.3141 2.604
73.3444 2.031
73.3747 2.292
73.4050 1.771
73.4353 1.875
73.4655 2.083
73.4958 1.719
73.5261 2.344
73.5564 1.250
73.5866 1.510
73.6169 1.875
73.6472 2.240
73.6775 2.552
73.7078 2.240
73.7380 2.396
73.7683 1.719
73.7986 2.240
73.8289 1.771
73.8592 1.406
73.8894 1.771
73.9197 2.187
73.9500 2.552
73.9803 1.875
74.0105 1.979
74.0408 2.656
74.0711 1.562
74.1014 2.240
74.1317 2.031
74.1619 1.979
74.1922 1.927
74.2225 1.667
74.2528 2.083
74.2831 1.875
74.3133 2.448
74.3436 1.823
74.3739 2.187
74.4042 2.448
74.4344 2.135
74.4647 1.927
74.4950 2.031
74.5253 1.771
74.5556 2.396
74.5858 1.250
74.6161 1.667
74.6464 1.615
74.6767 1.823
74.7070 1.979
74.7372 2.135
74.7675 1.771
74.7978 1.823
74.8281 1.771
74.8583 1.719
74.8886 2.031
74.9189 1.667
74.9492 1.354
74.9795 2.552
75.0097 2.083
75.0400 1.979
75.0703 2.135
75.1006 2.135
75.1309 2.187
75.1611 1.719
75.1914 1.302
75.2217 1.927
75.2520 1.719
75.2822 1.510
75.3125 1.667
75.3428 1.667
75.3731 1.562
75.4034 2.240
75.4336 1.250
75.4639 2.031
75.4942 1.458
75.5245 2.500
75.5548 2.187
75.5850 1.875
75.6153 1.875
75.6456 1.406
75.6759 1.927
75.7061 2.187
75.7364 2.604
75.7667 1.979
75.7970 2.500
75.8273 2.187
75.8575 1.927
75.8878 2.187
75.9181 2.187
75.9484 2.135
75.9787 2.031
76.0089 2.135
76.0392 1.823
76.0695 1.927
76.0998 2.604
76.1301 2.500
76.1603 1.771
76.1906 2.448
76.2209 2.448
76.2512 2.292
76.2814 2.396
76.3117 2.656
76.3420 2.396
76.3723 2.344
76.4026 2.187
76.4328 2.656
76.4631 2.604
76.4934 2.187
76.5237 2.500
76.5540 2.760
76.5842 2.917
76.6145 2.708
76.6448 3.073
76.6751 3.021
76.7053 3.229
76.7356 2.604
76.7659 3.698
76.7962 3.646
76.8265 3.125
76.8567 3.177
76.8870 2.604
76.9173 2.708
76.9476 3.490
76.9779 3.802
77.0081 3.333
77.0384 4.583
77.0687 3.385
77.0990 3.073
77.1292 3.125
77.1595 2.604
77.1898 2.760
77.2201 3.385
77.2504 2.865
77.2806 2.760
77.3109 2.604
77.3412 1.719
77.3715 2.187
77.4018 2.552
77.4320 2.135
77.4623 1.979
77.4926 1.823
77.5229 2.344
77.5531 2.708
77.5834 2.031
77.6137 2.031
77.6440 2.396
77.6743 2.031
77.7045 2.240
77.7348 2.083
77.7651 1.615
77.7954 1.667
77.8257 2.083
77.8559 1.875
77.8862 1.927
77.9165 2.240
77.9468 2.552
77.9770 1.823
78.0073 1.510
78.0376 1.979
78.0679 1.875
78.0982 1.615
78.1284 1.927
78.1587 1.927
78.1890 1.979
78.2193 2.240
78.2496 1.510
78.2798 1.979
78.3101 2.344
78.3404 2.083
78.3707 2.240
78.4009 1.354
78.4312 1.667
78.4615 1.615
78.4918 1.458
78.5221 1.771
78.5523 2.187
78.5826 2.135
78.6129 1.823
78.6432 1.510
78.6735 1.927
78.7037 1.615
78.7340 1.562
78.7643 1.615
78.7946 2.083
78.8248 1.719
78.8551 1.615
78.8854 1.510
78.9157 1.719
78.9460 1.354
78.9762 1.458
79.0065 1.302
79.0368 1.667
79.0671 1.667
79.0974 1.354
79.1276 2.031
79.1579 1.667
79.1882 2.135
79.2185 2.135
79.2488 2.187
79.2790 2.031
79.3093 1.667
79.3396 2.240
79.3699 2.500
79.4001 2.292
79.4304 1.302
79.4607 1.875
79.4910 1.562
79.5213 1.198
79.5515 1.875
79.5818 1.719
79.6121 1.927
79.6424 1.771
79.6727 2.031
79.7029 1.302
79.7332 2.135
79.7635 1.094
79.7938 1.667
79.8240 1.354
79.8543 1.406
79.8846 1.667
79.9149 1.562
79.9452 1.771
79.9754 1.510
80.0057 1.615
80.0360 1.979
80.0663 1.875
80.0966 1.927
80.1268 1.719
80.1571 1.875
80.1874 2.135
80.2177 1.927
80.2479 1.875
80.2782 2.656
80.3085 2.135
80.3388 1.719
80.3691 1.875
80.3993 1.875
80.4296 1.979
80.4599 2.031
80.4902 1.875
80.5205 2.083
80.5507 2.135
80.5810 1.667
80.6113 1.667
80.6416 1.719
80.6718 1.615
80.7021 1.562
80.7324 2.344
80.7627 0.990
80.7930 1.615
80.8232 1.979
80.8535 1.979
80.8838 1.458
80.9141 1.458
80.9444 2.135
80.9746 1.979
81.0049 2.656
81.0352 2.031
81.0655 2.552
81.0957 2.292
81.1260 2.917
81.1563 2.656
81.1866 2.292
81.2169 3.073
81.2471 2.604
81.2774 2.240
81.3077 3.177
81.3380 2.969
81.3683 3.281
81.3985 1.823
81.4288 2.500
81.4591 2.396
81.4894 2.760
81.5196 3.073
81.5499 2.240
81.5802 1.615
81.6105 3.073
81.6408 2.187
81.6710 2.344
81.7013 2.344
81.7316 2.865
81.7619 2.396
81.7922 2.396
81.8224 2.292
81.8527 2.448
81.8830 1.354
81.9133 1.719
81.9436 2.031
81.9738 1.667
82.0041 2.135
82.0344 2.187
82.0647 1.510
82.0949 2.135
82.1252 1.875
82.1555 1.875
82.1858 1.771
82.2161 1.875
82.2463 1.667
82.2766 1.615
82.3069 2.135
82.3372 1.719
82.3675 2.240
82.3977 1.667
82.4280 1.510
82.4583 1.979
82.4886 1.562
82.5188 1.458
82.5491 1.354
82.5794 1.771
82.6097 1.458
82.6400 1.667
82.6702 1.250
82.7005 1.458
82.7308 1.979
82.7611 1.510
82.7914 1.562
82.8216 1.667
82.8519 2.292
82.8822 1.198
82.9125 1.667
82.9427 1.875
82.9730 1.302
83.0033 1.927
83.0336 1.979
83.0639 1.875
83.0941 1.458
83.1244 1.615
83.1547 1.771
83.1850 1.719
83.2153 2.187
83.2455 2.083
83.2758 1.823
83.3061 1.719
83.3364 1.458
83.3666 2.135
83.3969 1.719
83.4272 1.979
83.4575 1.458
83.4878 1.667
83.5180 1.823
83.5483 1.927
83.5786 1.875
83.6089 1.875
83.6392 1.615
83.6694 1.510
83.6997 1.719
83.7300 1.719
83.7603 1.667
83.7905 1.667
83.8208 1.771
83.8511 1.406
83.8814 2.031
83.9117 1.615
83.9419 1.302
83.9722 1.354
84.0025 1.667
84.0328 1.250
84.0631 2.031
84.0933 1.771
84.1236 1.406
84.1539 1.667
84.1842 1.771
84.2144 1.042
84.2447 1.354
84.2750 1.771
84.3053 1.510
84.3356 1.927
84.3658 1.667
84.3961 2.135
84.4264 1.615
84.4567 1.562
84.4870 1.615
84.5172 1.510
84.5475 1.615
84.5778 1.927
84.6081 1.406
84.6383 1.615
84.6686 1.771
84.6989 1.771
84.7292 1.875
84.7595 1.979
84.7897 1.771
84.8200 1.302
84.8503 1.927
84.8806 1.562
84.9109 1.562
84.9411 1.719
84.9714 1.719
85.0017 1.615
85.0320 1.823
85.0623 1.719
85.0925 1.042
85.1228 1.510
85.1531 1.823
85.1834 1.719
85.2136 1.562
85.2439 0.937
85.2742 1.510
85.3045 1.875
85.3348 1.406
85.3650 2.135
85.3953 1.875
85.4256 1.510
85.4559 1.823
85.4862 1.927
85.5164 1.510
85.5467 1.875
85.5770 1.198
85.6073 1.458
85.6375 1.458
85.6678 1.146
85.6981 1.406
85.7284 1.823
85.7587 1.667
85.7889 1.302
85.8192 1.198
85.8495 1.719
85.8798 1.354
85.9101 2.135
85.9403 1.510
85.9706 1.615
86.0009 1.823
86.0312 1.458
86.0614 2.083
86.0917 1.823
86.1220 1.250
86.1523 1.562
86.1826 1.927
86.2128 2.135
86.2431 1.771
86.2734 1.875
86.3037 2.187
86.3340 1.979
86.3642 2.083
86.3945 1.875
86.4248 2.292
86.4551 1.667
86.4853 1.823
86.5156 1.875
86.5459 1.667
86.5762 1.458
86.6065 1.615
86.6367 1.458
86.6670 1.667
86.6973 1.667
86.7276 2.083
86.7579 1.302
86.7881 1.719
86.8184 1.562
86.8487 1.615
86.8790 1.719
86.9092 2.187
86.9395 1.667
86.9698 1.354
87.0001 1.458
87.0304 1.458
87.0606 1.615
87.0909 2.292
87.1212 2.135
87.1515 2.448
87.1818 1.823
87.2120 1.458
87.2423 1.667
87.2726 2.187
87.3029 1.979
87.3331 2.396
87.3634 2.187
87.3937 1.875
87.4240 1.615
87.4543 1.719
87.4845 2.083
87.5148 1.615
87.5451 2.031
87.5754 2.135
87.6057 1.615
87.6359 1.667
87.6662 2.031
87.6965 1.927
87.7268 1.562
87.7571 2.031
87.7873 1.719
87.8176 1.979
87.8479 1.979
87.8782 2.656
87.9084 2.448
87.9387 1.771
87.9690 2.344
87.9993 1.979
88.0296 1.927
88.0598 1.667
88.0901 1.354
88.1204 1.823
88.1507 1.771
88.1810 2.240
88.2112 1.771
88.2415 2.083
88.2718 1.823
88.3021 2.396
88.3323 2.240
88.3626 1.771
88.3929 2.500
88.4232 2.135
88.4535 2.760
88.4837 2.135
88.5140 1.458
88.5443 2.396
88.5746 2.448
88.6049 2.135
88.6351 2.500
88.6654 2.656
88.6957 1.875
88.7260 2.240
88.7562 2.135
88.7865 2.604
88.8168 3.073
88.8471 3.073
88.8774 2.969
88.9076 2.656
88.9379 2.969
88.9682 2.917
88.9985 3.021
89.0288 2.708
89.0590 3.698
89.0893 2.812
89.1196 3.958
89.1499 3.437
89.1801 3.646
89.2104 4.010
89.2407 4.062
89.2710 4.583
89.3013 4.479
89.3315 4.792
89.3618 5.260
89.3921 5.000
89.4224 4.583
89.4527 5.000
89.4829 4.583
89.5132 5.469
89.5435 4.635
89.5738 5.677
89.6040 5.052
89.6343 4.896
89.6646 4.427
89.6949 4.948
89.7252 4.635
89.7554 4.635
89.7857 4.531
89.8160 3.594
89.8463 4.479
89.8766 4.427
89.9068 4.323
89.9371 4.375
89.9674 3.594
89.9977 4.375
90.0279 3.542
90.0582 4.375
90.0885 3.385
90.1188 3.802
90.1491 2.917
90.1793 2.344
90.2096 2.969
90.2399 3.021
90.2702 2.865
90.3005 2.656
90.3307 1.875
90.3610 2.396
90.3913 2.135
90.4216 2.708
90.4518 2.604
90.4821 2.396
90.5124 2.344
90.5427 2.083
90.5730 2.812
90.6032 2.656
90.6335 2.135
90.6638 2.656
90.6941 1.615
90.7244 2.708
90.7546 2.344
90.7849 2.604
90.8152 2.396
90.8455 1.823
90.8758 1.927
90.9060 1.979
90.9363 2.604
90.9666 2.083
90.9969 2.135
91.0271 2.135
91.0574 1.979
91.0877 2.187
91.1180 1.667
91.1483 2.344
91.1785 1.354
91.2088 2.135
91.2391 2.187
91.2694 1.979
91.2997 2.448
91.3299 1.979
91.3602 2.031
91.3905 1.719
91.4208 1.927
91.4510 2.240
91.4813 2.240
91.5116 1.979
91.5419 1.771
91.5722 1.927
91.6024 1.719
91.6327 2.187
91.6630 2.448
91.6933 2.812
91.7236 2.500
91.7538 2.292
91.7841 2.187
91.8144 1.719
91.8447 2.656
91.8749 1.562
91.9052 1.667
91.9355 2.396
91.9658 1.875
91.9961 1.615
92.0263 1.979
92.0566 2.187
92.0869 2.604
92.1172 1.562
92.1475 2.187
92.1777 2.656
92.2080 1.823
92.2383 2.604
92.2686 2.187
92.2988 2.656
92.3291 2.812
92.3594 2.240
92.3897 2.187
92.4200 3.021
92.4502 3.021
92.4805 2.656
92.5108 2.969
92.5411 2.604
92.5714 2.604
92.6016 3.750
92.6319 2.448
92.6622 3.437
92.6925 2.656
92.7227 3.125
92.7530 2.656
92.7833 3.333
92.8136 3.021
92.8439 2.448
92.8741 3.437
92.9044 2.656
92.9347 3.125
92.9650 2.240
92.9953 2.917
93.0255 2.917
93.0558 2.708
93.0861 3.125
93.1164 1.979
93.1466 2.500
93.1769 2.552
93.2072 2.917
93.2375 3.281
93.2678 2.396
93.2980 2.604
93.3283 2.865
93.3586 2.552
93.3889 2.448
93.4192 1.719
93.4494 2.500
93.4797 1.875
93.5100 2.760
93.5403 1.875
93.5706 2.187
93.6008 2.135
93.6311 1.615
93.6614 2.448
93.6917 2.187
93.7219 2.135
93.7522 3.021
93.7825 2.812
93.8128 2.240
93.8431 2.135
93.8733 2.500
93.9036 2.187
93.9339 2.552
93.9642 1.615
93.9945 2.031
94.0247 2.187
94.0550 1.927
94.0853 2.187
94.1156 2.969
94.1458 1.927
94.1761 3.021
94.2064 1.823
94.2367 1.979
94.2670 1.979
94.2972 2.448
94.3275 2.865
94.3578 2.812
94.3881 2.708
94.4184 3.177
94.4486 2.031
94.4789 3.073
94.5092 2.240
94.5395 2.292
94.5697 2.812
94.6000 3.229
94.6303 2.969
94.6606 2.448
94.6909 3.385
94.7211 3.073
94.7514 3.125
94.7817 2.708
94.8120 3.177
94.8423 3.073
94.8725 4.167
94.9028 3.385
94.9331 3.906
94.9634 3.437
94.9936 3.333
95.0239 4.323
95.0542 4.219
95.0845 5.365
95.1148 4.427
95.1450 4.167
95.1753 4.115
95.2056 4.844
95.2359 5.156
95.2662 4.583
95.2964 4.687
95.3267 4.740
95.3570 5.052
95.3873 5.104
95.4175 4.687
95.4478 4.427
95.4781 4.219
95.5084 4.479
95.5387 5.052
95.5689 4.219
95.5992 4.115
95.6295 3.906
95.6598 3.802
95.6901 3.698
95.7203 3.594
95.7506 3.437
95.7809 3.021
95.8112 2.552
95.8414 3.281
95.8717 2.344
95.9020 3.229
95.9323 3.750
95.9626 2.344
95.9928 2.552
96.0231 2.917
96.0534 2.760
96.0837 2.656
96.1140 2.448
96.1442 2.292
96.1745 2.604
96.2048 2.135
96.2351 2.917
96.2653 2.135
96.2956 2.656
96.3259 2.031
96.3562 2.500
96.3865 2.604
96.4167 2.187
96.4470 2.031
96.4773 2.708
96.5076 2.500
96.5379 2.344
96.5681 2.344
96.5984 2.083
96.6287 2.031
96.6590 1.719
96.6893 1.823
96.7195 1.823
96.7498 2.396
96.7801 1.875
96.8104 2.240
96.8406 1.927
96.8709 1.875
96.9012 1.562
96.9315 2.240
96.9618 2.187
96.9920 1.615
97.0223 2.760
97.0526 1.979
97.0829 2.083
97.1132 1.927
97.1434 2.083
97.1737 2.083
97.2040 2.135
97.2343 2.500
97.2645 2.448
97.2948 2.344
97.3251 1.927
97.3554 2.917
97.3857 2.135
97.4159 2.292
97.4462 2.240
97.4765 2.187
97.5068 1.927
97.5371 1.771
97.5673 3.177
97.5976 2.240
97.6279 1.927
97.6582 2.135
97.6884 2.031
97.7187 2.865
97.7490 2.448
97.7793 2.448
97.8096 2.187
97.8398 2.292
97.8701 2.812
97.9004 2.917
97.9307 2.187
97.9610 2.500
97.9912 2.292
98.0215 2.083
98.0518 2.812
98.0821 2.396
98.1123 2.083
98.1426 3.854
98.1729 2.292
98.2032 2.604
98.2335 2.552
98.2637 3.333
98.2940 3.542
98.3243 3.229
98.3546 2.865
98.3849 3.542
98.4151 2.865
98.4454 3.437
98.4757 3.333
98.5060 4.062
98.5362 3.021
98.5665 3.281
98.5968 3.333
98.6271 3.542
98.6574 3.802
98.6876 3.542
98.7179 2.812
98.7482 2.969
98.7785 2.865
98.8088 4.062
98.8390 3.490
98.8693 3.229
98.8996 3.437
98.9299 2.917
98.9601 2.604
98.9904 3.281
99.0207 2.917
99.0510 2.708
99.0813 3.333
99.1115 2.760
99.1418 2.760
99.1721 2.500
99.2024 3.021
99.2327 2.552
99.2629 2.708
99.2932 2.135
99.3235 2.187
99.3538 2.187
99.3841 2.344
99.4143 2.344
99.4446 2.031
99.4749 2.656
99.5052 1.823
99.5354 1.927
99.5657 2.083
99.5960 2.187
99.6263 2.448
99.6566 1.823
99.6868 2.083
99.7171 1.719
99.7474 1.823
99.7777 1.771
99.8080 1.823
99.8382 2.448
99.8685 1.979
99.8988 2.552
99.9291 1.927
99.9593 1.927
99.9896 1.927
100.0199 1.823
100.0502 1.354
100.0805 1.823
100.1107 1.823
100.1410 2.031
100.1713 1.927
100.2016 1.771
100.2319 2.344
100.2621 2.031
100.2924 1.719
100.3227 1.927
100.3530 1.875
100.3832 1.719
100.4135 1.979
100.4438 1.823
100.4741 1.615
100.5044 2.396
100.5346 1.823
100.5649 1.823
100.5952 1.823
100.6255 1.979
100.6558 1.875
100.6860 2.083
100.7163 2.135
100.7466 1.927
100.7769 1.719
100.8071 2.344
100.8374 1.979
100.8677 2.240
100.8980 2.396
100.9283 3.281
100.9585 1.823
100.9888 2.396
101.0191 2.135
101.0494 2.187
101.0797 1.458
101.1099 1.927
101.1402 2.396
101.1705 1.927
101.2008 1.615
101.2310 2.500
101.2613 2.448
101.2916 2.344
101.3219 1.823
101.3522 2.396
101.3824 1.823
101.4127 1.719
101.4430 2.031
101.4733 1.823
101.5036 2.240
101.5338 1.875
101.5641 1.771
101.5944 1.615
101.6247 1.510
101.6549 1.875
101.6852 2.187
101.7155 2.135
101.7458 1.927
101.7761 1.927
101.8063 1.667
101.8366 2.344
101.8669 2.396
101.8972 1.979
101.9275 2.344
101.9577 2.656
101.9880 1.667
102.0183 2.344
102.0486 1.979
102.0788 2.552
102.1091 2.083
102.1394 2.135
102.1697 2.292
102.2000 2.552
102.2302 2.552
102.2605 2.812
102.2908 2.083
102.3211 3.073
102.3514 2.448
102.3816 2.865
102.4119 2.969
102.4422 1.927
102.4725 3.177
102.5028 2.500
102.5330 1.979
102.5633 2.708
102.5936 2.812
102.6239 3.542
102.6541 3.073
102.6844 2.708
102.7147 2.917
102.7450 3.021
102.7753 3.542
102.8055 2.917
102.8358 2.969
102.8661 2.552
102.8964 3.073
102.9267 2.917
102.9569 3.542
102.9872 2.604
103.0175 3.021
103.0478 3.177
103.0780 3.281
103.1083 3.333
103.1386 3.385
103.1689 2.448
103.1992 3.385
103.2294 3.542
103.2597 3.646
103.2900 3.281
103.3203 2.917
103.3506 2.917
103.3808 3.698
103.4111 2.500
103.4414 3.854
103.4717 3.125
103.5019 3.750
103.5322 3.073
103.5625 3.437
103.5928 3.594
103.6231 3.437
103.6533 3.333
103.6836 3.437
103.7139 3.177
103.7442 3.490
103.7745 3.698
103.8047 3.594
103.8350 3.490
103.8653 3.229
103.8956 4.323
103.9258 3.594
103.9561 3.802
103.9864 4.167
104.0167 4.323
104.0470 4.948
104.0772 4.375
104.1075 4.427
104.1378 4.271
104.1681 4.115
104.1984 4.167
104.2286 4.271
104.2589 4.219
104.2892 3.229
104.3195 3.802
104.3497 3.437
104.3800 3.750
104.4103 3.542
104.4406 4.687
104.4709 3.750
104.5011 3.385
104.5314 3.073
104.5617 3.073
104.5920 2.708
104.6223 3.698
104.6525 2.500
104.6828 3.073
104.7131 2.760
104.7434 3.177
104.7736 2.969
104.8039 2.865
104.8342 2.292
104.8645 2.448
104.8948 2.240
104.9250 2.240
104.9553 2.292
104.9856 2.344
105.0159 2.240
105.0462 2.396
105.0764 2.083
105.1067 2.812
105.1370 2.604
105.1673 2.083
105.1975 2.292
105.2278 1.771
105.2581 2.292
105.2884 2.500
105.3187 1.458
105.3489 2.031
105.3792 2.292
105.4095 1.979
105.4398 2.135
105.4701 1.823
105.5003 2.240
105.5306 1.875
105.5609 1.979
105.5912 1.823
105.6215 2.344
105.6517 1.979
105.6820 1.979
105.7123 2.240
105.7426 1.719
105.7728 2.031
105.8031 2.187
105.8334 2.396
105.8637 1.667
105.8940 2.656
105.9242 1.615
105.9545 1.875
105.9848 2.344
106.0151 1.719
106.0454 1.875
106.0756 2.083
106.1059 2.240
106.1362 1.615
106.1665 2.083
106.1967 1.823
106.2270 1.875
106.2573 1.823
106.2876 1.823
106.3179 1.458
106.3481 2.031
106.3784 1.979
106.4087 2.031
106.4390 2.760
106.4693 1.823
106.4995 1.562
106.5298 1.615
106.5601 1.823
106.5904 1.823
106.6206 2.135
106.6509 2.240
106.6812 1.771
106.7115 2.292
106.7418 1.667
106.7720 2.187
106.8023 1.615
106.8326 2.135
106.8629 1.927
106.8932 1.927
106.9234 1.875
106.9537 2.292
106.9840 3.177
107.0143 1.719
107.0445 1.615
107.0748 2.240
107.1051 2.083
107.1354 2.135
107.1657 2.292
107.1959 1.458
107.2262 2.083
107.2565 1.771
107.2868 2.083
107.3171 1.510
107.3473 2.552
107.3776 2.604
107.4079 2.656
107.4382 2.500
107.4684 2.396
107.4987 2.292
107.5290 2.344
107.5593 1.719
107.5896 2.292
107.6198 2.344
107.6501 2.448
107.6804 2.083
107.7107 2.083
107.7410 2.552
107.7712 1.875
107.8015 1.771
107.8318 2.552
107.8621 2.187
107.8923 2.083
107.9226 1.615
107.9529 1.875
107.9832 2.135
108.0135 1.875
108.0437 1.979
108.0740 1.562
108.1043 2.083
108.1346 2.083
108.1649 2.240
108.1951 2.187
108.2254 1.510
108.2557 2.135
108.2860 2.031
108.3163 2.083
108.3465 1.510
108.3768 1.771
108.4071 2.448
108.4374 2.135
108.4676 1.979
108.4979 2.187
108.5282 1.510
108.5585 1.406
108.5888 1.510
108.6190 1.927
108.6493 2.760
108.6796 1.562
108.7099 2.083
108.7402 2.344
108.7704 2.396
108.8007 2.135
108.8310 2.240
108.8613 1.198
108.8915 1.615
108.9218 2.708
108.9521 1.979
108.9824 2.240
109.0127 2.083
109.0429 2.344
109.0732 2.187
109.1035 1.979
109.1338 2.448
109.1641 1.979
109.1943 2.187
109.2246 2.031
109.2549 1.875
109.2852 2.240
109.3154 2.083
109.3457 2.135
109.3760 1.979
109.4063 2.187
109.4366 2.187
109.4668 2.031
109.4971 2.448
109.5274 2.083
109.5577 1.979
109.5880 1.719
109.6182 3.125
109.6485 3.021
109.6788 2.031
109.7091 2.552
109.7393 2.187
109.7696 1.875
109.7999 2.344
109.8302 2.760
109.8605 2.500
109.8907 3.125
109.9210 2.031
109.9513 2.865
109.9816 2.135
110.0119 2.604
110.0421 2.135
110.0724 2.656
110.1027 2.812
110.1330 2.344
110.1632 2.917
110.1935 2.240
110.2238 2.865
110.2541 3.073
110.2844 2.865
110.3146 2.656
110.3449 2.708
110.3752 3.490
110.4055 3.333
110.4358 2.760
110.4660 2.969
110.4963 3.021
110.5266 3.177
110.5569 3.073
110.5871 2.865
110.6174 2.604
110.6477 2.500
110.6780 2.708
110.7083 3.177
110.7385 2.396
110.7688 2.344
110.7991 1.667
110.8294 2.917
110.8597 2.656
110.8899 2.396
110.9202 2.500
110.9505 2.552
110.9808 2.135
111.0110 2.656
111.0413 2.448
111.0716 2.552
111.1019 2.396
111.1322 1.979
111.1624 1.979
111.1927 2.240
111.2230 2.917
111.2533 2.135
111.2836 1.979
111.3138 1.823
111.3441 2.083
111.3744 2.344
111.4047 2.031
111.4350 2.292
111.4652 2.292
111.4955 2.396
111.5258 2.500
111.5561 2.292
111.5863 1.667
111.6166 1.615
111.6469 2.500
111.6772 1.667
111.7075 2.083
111.7377 2.031
111.7680 2.135
111.7983 2.135
111.8286 1.823
111.8589 1.406
111.8891 1.875
111.9194 1.719
111.9497 1.719
111.9800 2.500
112.0102 2.656
112.0405 1.719
112.0708 2.500
112.1011 2.344
112.1314 1.771
112.1616 2.135
112.1919 1.979
112.2222 1.771
112.2525 1.615
112.2828 1.667
112.3130 1.771
112.3433 1.875
112.3736 1.823
112.4039 1.875
112.4341 1.719
112.4644 1.667
112.4947 1.667
112.5250 1.771
112.5553 1.719
112.5855 2.187
112.6158 1.771
112.6461 1.667
112.6764 1.719
112.7067 1.875
112.7369 1.458
112.7672 2.083
112.7975 1.979
112.8278 2.292
112.8580 2.083
112.8883 2.396
112.9186 1.771
112.9489 1.771
112.9792 2.031
113.0094 1.667
113.0397 1.979
113.0700 1.771
113.1003 1.875
113.1306 1.719
113.1608 1.250
113.1911 1.667
113.2214 1.719
113.2517 1.771
113.2819 1.979
113.3122 2.292
113.3425 2.604
113.3728 1.875
113.4031 2.812
113.4333 2.187
113.4636 2.448
113.4939 2.187
113.5242 2.031
113.5545 2.031
113.5847 2.240
113.6150 2.187
113.6453 1.562
113.6756 1.615
113.7058 1.875
113.7361 1.771
113.7664 2.240
113.7967 1.875
113.8270 2.344
113.8572 2.240
113.8875 1.771
113.9178 2.135
113.9481 1.823
113.9784 1.979
114.0086 2.135
114.0389 2.187
114.0692 2.031
114.0995 1.719
114.1298 1.771
114.1600 1.823
114.1903 1.875
114.2206 1.198
114.2509 2.031
114.2811 2.344
114.3114 2.396
114.3417 2.187
114.3720 1.771
114.4023 2.396
114.4325 1.979
114.4628 2.240
114.4931 2.187
114.5234 2.187
114.5537 2.344
114.5839 2.031
114.6142 2.187
114.6445 1.875
114.6748 2.448
114.7050 2.708
114.7353 2.344
114.7656 2.292
114.7959 2.135
114.8262 2.500
114.8564 2.240
114.8867 2.500
114.9170 2.448
114.9473 2.552
114.9776 2.552
115.0078 1.979
115.0381 2.344
115.0684 2.760
115.0987 2.135
115.1289 2.760
115.1592 2.187
115.1895 3.177
115.2198 2.760
115.2501 3.333
115.2803 2.552
115.3106 2.396
115.3409 2.240
115.3712 3.385
115.4015 2.292
115.4317 3.125
115.4620 3.125
115.4923 2.187
115.5226 2.656
115.5528 2.865
115.5831 3.490
115.6134 3.385
115.6437 3.021
115.6740 3.437
115.7042 3.802
115.7345 4.062
115.7648 3.385
115.7951 4.219
115.8254 3.177
115.8556 2.760
115.8859 4.427
115.9162 3.646
115.9465 3.437
115.9767 4.635
116.0070 4.271
116.0373 4.844
116.0676 4.219
116.0979 3.958
116.1281 4.219
116.1584 4.375
116.1887 4.219
116.2190 4.740
116.2493 3.958
116.2795 4.531
116.3098 4.062
116.3401 4.375
116.3704 4.323
116.4006 4.948
116.4309 3.698
116.4612 3.281
116.4915 4.167
116.5218 3.802
116.5520 4.167
116.5823 4.219
116.6126 4.375
116.6429 4.427
116.6732 2.917
116.7034 3.437
116.7337 4.010
116.7640 3.958
116.7943 3.333
116.8245 3.542
116.8548 3.073
116.8851 4.375
116.9154 3.698
116.9457 2.969
116.9759 4.115
117.0062 2.812
117.0365 3.854
117.0668 3.229
117.0971 3.333
117.1273 3.281
117.1576 2.812
117.1879 2.552
117.2182 2.292
117.2485 2.552
117.2787 2.812
117.3090 2.969
117.3393 2.760
117.3696 2.448
117.3998 2.656
117.4301 3.125
117.4604 2.552
117.4907 2.656
117.5210 2.656
117.5512 2.187
117.5815 2.604
117.6118 2.812
117.6421 2.031
117.6724 2.083
117.7026 2.708
117.7329 2.396
117.7632 2.604
117.7935 1.875
117.8237 2.396
117.8540 1.875
117.8843 2.344
117.9146 1.771
117.9449 2.552
117.9751 1.719
118.0054 1.771
118.0357 1.667
118.0660 2.500
118.0963 1.979
118.1265 1.406
118.1568 2.240
118.1871 2.031
118.2174 2.187
118.2476 1.719
118.2779 2.969
118.3082 2.500
118.3385 2.135
118.3688 2.031
118.3990 2.396
118.4293 1.823
118.4596 2.135
118.4899 2.083
118.5202 2.500
118.5504 1.771
118.5807 2.135
118.6110 2.031
118.6413 2.135
118.6715 2.656
118.7018 1.719
118.7321 2.187
118.7624 1.615
118.7927 2.604
118.8229 2.240
118.8532 2.135
118.8835 2.240
118.9138 2.240
118.9441 2.448
118.9743 1.875
119.0046 2.396
119.0349 1.771
119.0652 1.771
119.0954 2.240
119.1257 1.615
119.1560 1.719
119.1863 2.031
119.2166 2.292
119.2468 2.187
119.2771 1.667
119.3074 1.875
119.3377 2.240
119.3680 1.771
119.3982 1.042
119.4285 2.135
119.4588 2.240
119.4891 2.187
119.5193 1.771
119.5496 1.719
119.5799 1.719
119.6102 2.031
119.6405 2.448
119.6707 2.135
119.7010 1.667
119.7313 2.552
119.7616 2.031
119.7919 2.187
119.8221 1.875
119.8524 1.927
119.8827 1.823
119.9130 1.615
119.9433 1.719
119.9735 2.292
120.0038 1.719
