'Id: "" Comment: "" Operator: "Lab Manager" Anode: "Cu" Scantype: "Locked Coupled" TimePerStep: "19.2" X: "9999" Y: "9999" Z: "9999" 
10.0015 3.750
10.0318 3.854
10.0620 3.698
10.0923 2.552
10.1226 3.750
10.1529 3.854
10.1832 3.177
10.2134 3.281
10.2437 3.646
10.2740 2.812
10.3043 4.219
10.3346 3.802
10.3648 3.646
10.3951 4.115
10.4254 3.125
10.4557 2.865
10.4859 2.656
10.5162 3.385
10.5465 2.708
10.5768 3.750
10.6071 4.583
10.6373 3.646
10.6676 3.490
10.6979 3.698
10.7282 3.698
10.7585 2.969
10.7887 2.708
10.8190 3.854
10.8493 3.177
10.8796 4.219
10.9098 3.229
10.9401 4.167
10.9704 2.969
11.0007 3.958
11.0310 2.917
11.0612 3.698
11.0915 3.021
11.1218 3.333
11.1521 2.917
11.1824 3.906
11.2126 3.437
11.2429 4.010
11.2732 2.656
11.3035 3.594
11.3337 3.698
11.3640 3.073
11.3943 2.969
11.4246 2.969
11.4549 2.865
11.4851 3.021
11.5154 2.865
11.5457 3.490
11.5760 2.865
11.6063 3.125
11.6365 2.917
11.6668 3.802
11.6971 3.333
11.7274 3.073
11.7577 3.333
11.7879 3.229
11.8182 3.646
11.8485 3.333
11.8788 3.385
11.9090 2.812
11.9393 2.344
11.9696 3.073
11.9999 3.542
12.0302 3.906
12.0604 3.229
12.0907 3.385
12.1210 2.969
12.1513 3.542
12.1816 2.917
12.2118 4.010
12.2421 3.125
12.2724 3.437
12.3027 2.708
12.3329 2.500
12.3632 3.125
12.3935 3.177
12.4238 3.229
12.4541 3.854
12.4843 2.656
12.5146 3.021
12.5449 2.500
12.5752 3.333
12.6055 2.240
12.6357 3.594
12.6660 2.552
12.6963 3.594
12.7266 3.177
12.7568 3.646
12.7871 2.448
12.8174 3.125
12.8477 3.281
12.8780 2.812
12.9082 2.604
12.9385 2.187
12.9688 2.917
12.9991 2.812
13.0294 3.073
13.0596 3.021
13.0899 3.073
13.1202 3.333
13.1505 1.927
13.1807 2.812
13.2110 2.396
13.2413 2.760
13.2716 2.604
13.3019 2.396
13.3321 3.073
13.3624 2.292
13.3927 2.760
13.4230 2.708
13.4533 2.448
13.4835 2.187
13.5138 2.969
13.5441 3.021
13.5744 2.240
13.6046 3.177
13.6349 2.552
13.6652 2.604
13.6955 2.865
13.7258 2.344
13.7560 2.708
13.7863 2.292
13.8166 2.344
13.8469 1.719
13.8772 2.344
13.9074 2.448
13.9377 2.292
13.9680 3.177
13.9983 2.344
14.0285 2.656
14.0588 2.604
14.0891 2.396
14.1194 2.656
14.1497 2.708
14.1799 2.760
14.2102 2.656
14.2405 2.760
14.2708 2.240
14.3011 2.344
14.3313 1.562
14.3616 2.344
14.3919 2.292
14.4222 3.021
14.4524 2.552
14.4827 2.552
14.5130 2.448
14.5433 2.917
14.5736 2.187
14.6038 2.917
14.6341 2.396
14.6644 2.760
14.6947 2.500
14.7250 2.240
14.7552 2.187
14.7855 2.187
14.8158 2.812
14.8461 2.500
14.8764 2.135
14.9066 1.927
14.9369 3.021
14.9672 3.073
14.9975 3.281
15.0277 2.396
15.0580 2.344
15.0883 2.448
15.1186 2.448
15.1489 3.073
15.1791 2.604
15.2094 2.187
15.2397 2.344
15.2700 2.240
15.3003 2.865
15.3305 2.344
15.3608 2.917
15.3911 2.917
15.4214 2.031
15.4516 2.969
15.4819 3.229
15.5122 2.292
15.5425 2.135
15.5728 2.500
15.6030 2.552
15.6333 1.510
15.6636 2.917
15.6939 2.448
15.7242 3.021
15.7544 2.031
15.7847 2.448
15.8150 1.510
15.8453 2.083
15.8755 2.448
15.9058 2.708
15.9361 2.552
15.9664 2.396
15.9967 1.667
16.0269 2.187
16.0572 2.604
16.0875 2.812
16.1178 2.812
16.1481 2.083
16.1783 3.437
16.2086 1.979
16.2389 2.448
16.2692 2.187
16.2994 2.656
16.3297 2.187
16.3600 2.604
16.3903 2.500
16.4206 2.656
16.4508 1.719
16.4811 2.292
16.5114 1.979
16.5417 2.917
16.5720 1.875
16.6022 1.979
16.6325 1.823
16.6628 2.448
16.6931 2.344
16.7233 2.917
16.7536 2.448
16.7839 1.823
16.8142 1.875
16.8445 2.500
16.8747 2.344
16.9050 2.344
16.9353 2.396
16.9656 2.187
16.9959 2.604
17.0261 2.344
17.0564 2.344
17.0867 2.135
17.1170 2.760
17.1472 2.604
17.1775 2.344
17.2078 1.927
17.2381 2.604
17.2684 2.448
17.2986 2.240
17.3289 2.552
17.3592 2.135
17.3895 1.875
17.4198 3.021
17.4500 2.135
17.4803 1.771
17.5106 2.135
17.5409 1.875
17.5712 1.667
17.6014 2.500
17.6317 1.771
17.6620 2.708
17.6923 1.719
17.7225 2.135
17.7528 2.187
17.7831 1.771
17.8134 1.875
17.8437 2.187
17.8739 2.448
17.9042 2.969
17.9345 1.823
17.9648 2.552
17.9951 2.292
18.0253 2.031
18.0556 2.240
18.0859 2.187
18.1162 2.135
18.1464 1.354
18.1767 1.667
18.2070 2.448
18.2373 2.135
18.2676 2.292
18.2978 1.615
18.3281 2.240
18.3584 2.135
18.3887 1.823
18.4190 2.031
18.4492 1.771
18.4795 2.135
18.5098 1.719
18.5401 1.979
18.5703 3.073
18.6006 2.031
18.6309 2.083
18.6612 1.615
18.6915 1.667
18.7217 1.510
18.7520 1.771
18.7823 2.708
18.8126 1.615
18.8429 1.667
18.8731 2.187
18.9034 2.500
18.9337 2.083
18.9640 1.719
18.9942 1.771
19.0245 2.083
19.0548 1.615
19.0851 2.240
19.1154 1.354
19.1456 2.604
19.1759 2.135
19.2062 1.562
19.2365 1.927
19.2668 2.656
19.2970 2.396
19.3273 2.344
19.3576 1.510
19.3879 2.344
19.4181 1.875
19.4484 2.031
19.4787 1.667
19.5090 1.615
19.5393 2.083
19.5695 2.344
19.5998 1.927
19.6301 1.667
19.6604 1.875
19.6907 2.083
19.7209 1.615
19.7512 1.927
19.7815 2.187
19.8118 2.083
19.8420 2.240
19.8723 1.875
19.9026 1.927
19.9329 1.771
19.9632 2.031
19.9934 2.656
20.0237 1.406
20.0540 2.292
20.0843 2.135
20.1146 1.562
20.1448 1.927
20.1751 1.875
20.2054 2.187
20.2357 1.771
20.2659 1.979
20.2962 1.562
20.3265 1.823
20.3568 1.927
20.3871 1.979
20.4173 2.187
20.4476 2.396
20.4779 2.083
20.5082 2.396
20.5385 1.823
20.5687 1.562
20.5990 1.927
20.6293 1.615
20.6596 1.615
20.6899 1.719
20.7201 2.083
20.7504 1.042
20.7807 2.083
20.8110 1.510
20.8412 1.667
20.8715 2.083
20.9018 2.500
20.9321 1.823
20.9624 1.979
20.9926 2.187
21.0229 2.240
21.0532 2.031
21.0835 1.562
21.1138 1.406
21.1440 1.042
21.1743 1.510
21.2046 1.927
21.2349 1.510
21.2651 1.719
21.2954 2.187
21.3257 1.927
21.3560 1.719
21.3863 2.240
21.4165 2.135
21.4468 1.302
21.4771 2.031
21.5074 1.458
21.5377 2.292
21.5679 1.719
21.5982 1.719
21.6285 2.396
21.6588 1.823
21.6890 1.719
21.7193 1.979
21.7496 1.302
21.7799 1.823
21.8102 2.292
21.8404 2.135
21.8707 1.979
21.9010 1.875
21.9313 1.823
21.9616 1.823
21.9918 1.927
22.0221 1.667
22.0524 2.083
22.0827 2.031
22.1129 1.719
22.1432 2.031
22.1735 2.031
22.2038 1.719
22.2341 1.146
22.2643 1.510
22.2946 1.771
22.3249 1.510
22.3552 1.354
22.3855 2.083
22.4157 1.823
22.4460 1.562
22.4763 1.875
22.5066 1.771
22.5368 2.135
22.5671 1.615
22.5974 2.240
22.6277 1.667
22.6580 2.187
22.6882 1.979
22.7185 1.510
22.7488 1.979
22.7791 1.615
22.8094 1.302
22.8396 1.823
22.8699 1.510
22.9002 1.562
22.9305 1.406
22.9607 1.719
22.9910 2.083
23.0213 1.354
23.0516 1.927
23.0819 2.344
23.1121 1.979
23.1424 1.979
23.1727 1.510
23.2030 2.135
23.2333 1.302
23.2635 2.344
23.2938 1.250
23.3241 2.344
23.3544 1.667
23.3846 1.719
23.4149 1.927
23.4452 1.562
23.4755 1.615
23.5058 1.562
23.5360 1.510
23.5663 2.083
23.5966 2.187
23.6269 1.875
23.6572 1.562
23.6874 2.135
23.7177 1.615
23.7480 1.719
23.7783 1.458
23.8086 1.771
23.8388 2.031
23.8691 1.667
23.8994 1.510
23.9297 1.458
23.9599 1.250
23.9902 1.719
24.0205 1.719
24.0508 1.250
24.0811 1.927
24.1113 1.615
24.1416 2.083
24.1719 1.562
24.2022 1.146
24.2325 2.135
24.2627 1.719
24.2930 1.823
24.3233 1.458
24.3536 2.031
24.3838 1.719
24.4141 1.510
24.4444 2.240
24.4747 1.979
24.5050 1.510
24.5352 1.875
24.5655 1.615
24.5958 1.875
24.6261 1.979
24.6564 1.979
24.6866 2.083
24.7169 1.719
24.7472 1.667
24.7775 2.031
24.8077 1.406
24.8380 2.031
24.8683 1.615
24.8986 1.927
24.9289 1.510
24.9591 1.510
24.9894 2.240
25.0197 1.875
25.0500 1.979
25.0803 1.146
25.1105 1.719
25.1408 2.083
25.1711 2.135
25.2014 1.510
25.2316 2.135
25.2619 1.458
25.2922 1.979
25.3225 1.406
25.3528 1.875
25.3830 1.458
25.4133 1.510
25.4436 2.031
25.4739 2.187
25.5042 1.510
25.5344 1.719
25.5647 1.302
25.5950 1.615
25.6253 2.240
25.6555 1.302
25.6858 1.458
25.7161 1.615
25.7464 1.667
25.7767 1.719
25.8069 1.771
25.8372 1.667
25.8675 1.771
25.8978 1.406
25.9281 1.510
25.9583 1.302
25.9886 1.562
26.0189 1.250
26.0492 2.396
26.0794 1.406
26.1097 1.771
26.1400 1.146
26.1703 1.823
26.2006 1.719
26.2308 2.083
26.2611 1.927
26.2914 1.198
26.3217 2.031
26.3520 2.083
26.3822 2.083
26.4125 1.510
26.4428 1.719
26.4731 1.927
26.5034 1.458
26.5336 1.927
26.5639 2.187
26.5942 1.042
26.6245 1.302
26.6547 1.354
26.6850 2.187
26.7153 0.885
26.7456 1.458
26.7759 1.979
26.8061 1.562
26.8364 1.406
26.8667 1.927
26.8970 1.875
26.9273 1.615
26.9575 2.031
26.9878 2.396
27.0181 2.396
27.0484 1.562
27.0786 1.771
27.1089 0.990
27.1392 1.302
27.1695 1.458
27.1998 2.083
27.2300 1.615
27.2603 1.667
27.2906 1.823
27.3209 1.771
27.3512 1.927
27.3814 2.344
27.4117 2.396
27.4420 1.771
27.4723 1.562
27.5025 1.719
27.5328 1.562
27.5631 1.719
27.5934 1.510
27.6237 2.344
27.6539 2.292
27.6842 2.500
27.7145 1.719
27.7448 2.083
27.7751 1.615
27.8053 3.177
27.8356 1.719
27.8659 1.875
27.8962 1.719
27.9264 1.667
27.9567 2.187
27.9870 1.979
28.0173 2.656
28.0476 1.823
28.0778 1.927
28.1081 2.292
28.1384 1.615
28.1687 2.031
28.1990 1.875
28.2292 1.823
28.2595 1.719
28.2898 2.083
28.3201 1.979
28.3503 2.240
28.3806 1.562
28.4109 2.396
28.4412 1.979
28.4715 1.927
28.5017 2.083
28.5320 1.979
28.5623 2.396
28.5926 1.771
28.6229 1.979
28.6531 2.240
28.6834 1.875
28.7137 2.135
28.7440 2.344
28.7742 1.875
28.8045 2.292
28.8348 1.823
28.8651 1.979
28.8954 2.135
28.9256 1.927
28.9559 2.031
28.9862 1.719
29.0165 1.562
29.0468 1.615
29.0770 2.552
29.1073 2.865
29.1376 1.979
29.1679 2.240
29.1981 1.875
29.2284 2.187
29.2587 2.240
29.2890 1.875
29.3193 1.875
29.3495 1.667
29.3798 2.396
29.4101 2.083
29.4404 1.979
29.4707 1.823
29.5009 2.031
29.5312 1.979
29.5615 2.552
29.5918 2.187
29.6221 1.875
29.6523 2.344
29.6826 2.969
29.7129 1.979
29.7432 2.344
29.7734 2.292
29.8037 2.396
29.8340 2.031
29.8643 2.135
29.8946 2.917
29.9248 1.875
29.9551 1.771
29.9854 2.083
30.0157 2.656
30.0460 2.396
30.0762 2.135
30.1065 2.344
30.1368 2.344
30.1671 2.292
30.1973 2.083
30.2276 2.604
30.2579 1.875
30.2882 2.656
30.3185 1.667
30.3487 2.396
30.3790 2.396
30.4093 2.812
30.4396 2.760
30.4699 2.031
30.5001 2.500
30.5304 2.760
30.5607 2.344
30.5910 2.708
30.6212 2.917
30.6515 3.125
30.6818 3.385
30.7121 3.073
30.7424 3.854
30.7726 3.229
30.8029 3.177
30.8332 4.427
30.8635 4.219
30.8938 4.583
30.9240 3.021
30.9543 3.906
30.9846 4.948
31.0149 4.792
31.0451 5.260
31.0754 4.844
31.1057 5.990
31.1360 6.042
31.1663 6.719
31.1965 6.146
31.2268 6.823
31.2571 8.229
31.2874 9.948
31.3177 9.740
31.3479 11.146
31.3782 12.812
31.4085 13.177
31.4388 15.677
31.4690 17.917
31.4993 21.823
31.5296 24.323
31.5599 20.781
31.5902 23.542
31.6204 23.490
31.6507 24.375
31.6810 23.646
31.7113 20.833
31.7416 19.375
31.7718 16.667
31.8021 15.521
31.8324 12.865
31.8627 13.177
31.8929 12.344
31.9232 8.281
31.9535 7.708
31.9838 8.490
32.0141 6.250
32.0443 6.198
32.0746 6.927
32.1049 6.042
32.1352 5.521
32.1655 5.521
32.1957 4.896
32.2260 4.583
32.2563 3.750
32.2866 4.583
32.3169 3.646
32.3471 4.323
32.3774 3.958
32.4077 3.646
32.4380 3.854
32.4682 2.865
32.4985 3.906
32.5288 2.969
32.5591 3.333
32.5894 2.865
32.6196 2.865
32.6499 2.552
32.6802 3.437
32.7105 2.812
32.7408 3.437
32.7710 3.437
32.8013 2.552
32.8316 3.854
32.8619 2.604
32.8921 3.021
32.9224 3.646
32.9527 2.917
32.9830 2.760
33.0133 3.021
33.0435 2.448
33.0738 3.490
33.1041 2.448
33.1344 2.969
33.1647 3.177
33.1949 3.021
33.2252 2.604
33.2555 2.552
33.2858 3.177
33.3160 3.021
33.3463 2.656
33.3766 2.552
33.4069 2.865
33.4372 2.604
33.4674 2.760
33.4977 2.604
33.5280 2.760
33.5583 3.073
33.5886 3.854
33.6188 2.292
33.6491 2.760
33.6794 3.854
33.7097 3.802
33.7399 4.375
33.7702 4.219
33.8005 4.375
33.8308 4.427
33.8611 5.781
33.8913 5.573
33.9216 4.792
33.9519 6.198
33.9822 6.198
34.0125 7.031
34.0427 8.281
34.0730 9.635
34.1033 12.448
34.1336 14.635
34.1638 16.250
34.1941 20.990
34.2244 27.083
34.2547 28.385
34.2850 30.625
34.3152 26.979
34.3455 24.635
34.3758 18.646
34.4061 18.021
34.4364 14.115
34.4666 12.187
34.4969 8.750
34.5272 8.333
34.5575 9.687
34.5877 7.604
34.6180 5.677
34.6483 4.635
34.6786 5.625
34.7089 5.208
34.7391 4.427
34.7694 5.104
34.7997 3.698
34.8300 4.167
34.8603 5.104
34.8905 4.010
34.9208 3.906
34.9511 4.271
34.9814 4.479
35.0116 3.750
35.0419 5.417
35.0722 3.490
35.1025 4.323
35.1328 4.010
35.1630 4.167
35.1933 4.583
35.2236 3.698
35.2539 5.156
35.2842 4.323
35.3144 3.854
35.3447 5.312
35.3750 5.156
35.4053 4.271
35.4356 5.990
35.4658 5.937
35.4961 6.354
35.5264 6.042
35.5567 6.510
35.5869 6.979
35.6172 8.073
35.6475 8.802
35.6778 9.219
35.7081 9.531
35.7383 8.490
35.7686 11.719
35.7989 11.615
35.8292 14.219
35.8595 16.719
35.8897 17.187
35.9200 19.375
35.9503 22.917
35.9806 26.146
36.0108 27.865
36.0411 29.792
36.0714 30.260
36.1017 32.500
36.1320 30.937
36.1622 29.583
36.1925 30.312
36.2228 25.521
36.2531 24.740
36.2834 20.521
36.3136 20.573
36.3439 15.937
36.3742 15.052
36.4045 14.115
36.4347 11.979
36.4650 10.521
36.4953 9.115
36.5256 8.385
36.5559 8.333
36.5861 7.656
36.6164 6.198
36.6467 5.469
36.6770 5.469
36.7073 5.312
36.7375 3.854
36.7678 4.427
36.7981 5.156
36.8284 4.583
36.8586 4.427
36.8889 3.437
36.9192 3.333
36.9495 3.073
36.9798 4.219
37.0100 3.437
37.0403 3.698
37.0706 2.812
37.1009 3.021
37.1312 2.187
37.1614 2.552
37.1917 3.281
37.2220 3.698
37.2523 2.448
37.2825 2.500
37.3128 2.031
37.3431 2.187
37.3734 2.135
37.4037 2.500
37.4339 2.292
37.4642 2.448
37.4945 1.719
37.5248 1.927
37.5551 2.396
37.5853 3.021
37.6156 2.708
37.6459 2.240
37.6762 2.135
37.7064 2.083
37.7367 1.562
37.7670 1.979
37.7973 2.135
37.8276 2.187
37.8578 1.875
37.8881 2.500
37.9184 1.562
37.9487 1.927
37.9790 2.240
38.0092 1.979
38.0395 1.927
38.0698 2.083
38.1001 1.823
38.1304 2.135
38.1606 0.937
38.1909 1.823
38.2212 1.875
38.2515 0.885
38.2817 1.250
38.3120 1.615
38.3423 1.823
38.3726 1.927
38.4029 1.927
38.4331 1.875
38.4634 2.083
38.4937 1.302
38.5240 1.562
38.5543 1.823
38.5845 1.979
38.6148 1.562
38.6451 1.615
38.6754 1.615
38.7056 1.562
38.7359 1.562
38.7662 1.146
38.7965 1.354
38.8268 2.083
38.8570 1.094
38.8873 1.354
38.9176 1.719
38.9479 1.354
38.9782 1.771
39.0084 1.042
39.0387 1.667
39.0690 1.198
39.0993 1.458
39.1295 1.927
39.1598 1.458
39.1901 1.667
39.2204 1.406
39.2507 1.354
39.2809 1.302
39.3112 1.250
39.3415 1.510
39.3718 1.302
39.4021 1.823
39.4323 1.823
39.4626 1.302
39.4929 1.667
39.5232 1.406
39.5534 1.667
39.5837 0.990
39.6140 1.771
39.6443 1.250
39.6746 1.302
39.7048 1.510
39.7351 1.615
39.7654 1.562
39.7957 0.937
39.8260 1.094
39.8562 1.406
39.8865 1.458
39.9168 1.042
39.9471 0.990
39.9773 1.354
40.0076 1.250
40.0379 1.719
40.0682 1.667
40.0985 1.250
40.1287 0.729
40.1590 1.458
40.1893 1.406
40.2196 1.406
40.2499 1.146
40.2801 1.510
40.3104 1.198
40.3407 1.510
40.3710 1.354
40.4012 1.719
40.4315 1.562
40.4618 1.354
40.4921 1.302
40.5224 1.302
40.5526 1.354
40.5829 1.302
40.6132 1.354
40.6435 1.146
40.6738 0.885
40.7040 1.823
40.7343 1.719
40.7646 1.198
40.7949 1.250
40.8251 1.250
40.8554 1.354
40.8857 1.458
40.9160 1.250
40.9463 1.562
40.9765 1.406
41.0068 1.094
41.0371 0.937
41.0674 2.031
41.0977 0.990
41.1279 1.198
41.1582 0.885
41.1885 1.094
41.2188 1.250
41.2491 1.198
41.2793 1.406
41.3096 1.146
41.3399 1.302
41.3702 0.781
41.4004 0.781
41.4307 1.302
41.4610 0.729
41.4913 0.937
41.5216 1.094
41.5518 0.781
41.5821 1.094
41.6124 0.729
41.6427 0.937
41.6730 0.885
41.7032 1.146
41.7335 1.354
41.7638 1.562
41.7941 1.510
41.8243 1.615
41.8546 1.302
41.8849 0.885
41.9152 1.094
41.9455 1.458
41.9757 1.094
42.0060 1.302
42.0363 0.990
42.0666 1.302
42.0969 1.354
42.1271 1.146
42.1574 1.354
42.1877 1.198
42.2180 1.146
42.2482 1.094
42.2785 1.094
42.3088 1.146
42.3391 0.990
42.3694 1.042
42.3996 1.042
42.4299 1.615
42.4602 1.042
42.4905 1.198
42.5208 1.094
42.5510 1.146
42.5813 1.250
42.6116 1.146
42.6419 1.250
42.6721 1.354
42.7024 1.146
42.7327 1.250
42.7630 1.302
42.7933 0.937
42.8235 1.094
42.8538 1.146
42.8841 0.729
42.9144 1.458
42.9447 0.885
42.9749 1.510
43.0052 0.937
43.0355 0.885
43.0658 1.146
43.0960 1.094
43.1263 1.302
43.1566 1.042
43.1869 1.094
43.2172 1.094
43.2474 0.729
43.2777 1.042
43.3080 1.094
43.3383 1.354
43.3686 1.510
43.3988 1.146
43.4291 1.094
43.4594 1.042
43.4897 1.198
43.5199 1.042
43.5502 1.302
43.5805 1.458
43.6108 1.146
43.6411 1.510
43.6713 0.937
43.7016 1.094
43.7319 1.250
43.7622 0.885
43.7925 0.885
43.8227 1.406
43.8530 1.146
43.8833 0.885
43.9136 1.719
43.9439 1.719
43.9741 1.615
44.0044 1.302
44.0347 1.042
44.0650 1.667
44.0952 1.250
44.1255 0.937
44.1558 1.615
44.1861 1.198
44.2164 0.833
44.2466 1.354
44.2769 1.354
44.3072 1.354
44.3375 1.146
44.3678 0.885
44.3980 1.198
44.4283 0.885
44.4586 1.406
44.4889 0.625
44.5191 1.250
44.5494 1.250
44.5797 0.885
44.6100 1.146
44.6403 1.094
44.6705 1.042
44.7008 1.354
44.7311 1.354
44.7614 1.354
44.7917 1.146
44.8219 1.354
44.8522 1.198
44.8825 0.937
44.9128 1.094
44.9430 0.833
44.9733 0.990
45.0036 1.510
45.0339 1.250
45.0642 0.885
45.0944 1.250
45.1247 1.042
45.1550 1.250
45.1853 0.833
45.2156 0.937
45.2458 1.458
45.2761 1.406
45.3064 0.781
45.3367 0.937
45.3669 1.562
45.3972 1.042
45.4275 1.615
45.4578 1.354
45.4881 1.094
45.5183 1.250
45.5486 1.667
45.5789 1.302
45.6092 1.406
45.6395 0.990
45.6697 1.146
45.7000 1.719
45.7303 1.042
45.7606 0.937
45.7908 1.615
45.8211 0.937
45.8514 1.250
45.8817 0.937
45.9120 0.990
45.9422 1.302
45.9725 1.719
46.0028 0.937
46.0331 1.562
46.0634 1.615
46.0936 1.198
46.1239 0.990
46.1542 1.562
46.1845 1.562
46.2147 0.937
46.2450 1.562
46.2753 1.562
46.3056 0.729
46.3359 1.719
46.3661 1.719
46.3964 1.354
46.4267 1.510
46.4570 1.667
46.4873 1.510
46.5175 1.198
46.5478 1.510
46.5781 1.406
46.6084 2.135
46.6386 1.719
46.6689 1.719
46.6992 2.083
46.7295 2.083
46.7598 2.187
46.7900 1.927
46.8203 2.187
46.8506 2.500
46.8809 1.771
46.9112 2.187
46.9414 2.500
46.9717 2.760
47.0020 2.604
47.0323 3.437
47.0626 3.437
47.0928 3.125
47.1231 3.958
47.1534 3.490
47.1837 5.365
47.2139 5.677
47.2442 5.781
47.2745 5.417
47.3048 5.573
47.3351 6.302
47.3653 7.240
47.3956 6.771
47.4259 6.302
47.4562 6.354
47.4865 6.927
47.5167 5.833
47.5470 6.094
47.5773 5.781
47.6076 4.479
47.6378 3.437
47.6681 3.437
47.6984 2.760
47.7287 2.865
47.7590 3.177
47.7892 2.500
47.8195 2.344
47.8498 2.865
47.8801 2.135
47.9104 1.667
47.9406 1.875
47.9709 2.135
48.0012 1.771
48.0315 2.031
48.0617 1.823
48.0920 1.510
48.1223 1.354
48.1526 1.510
48.1829 1.562
48.2131 1.406
48.2434 1.875
48.2737 1.719
48.3040 1.771
48.3343 1.354
48.3645 1.354
48.3948 1.302
48.4251 1.354
48.4554 1.406
48.4856 1.354
48.5159 1.354
48.5462 1.406
48.5765 1.302
48.6068 1.562
48.6370 1.354
48.6673 1.406
48.6976 1.302
48.7279 1.198
48.7582 1.250
48.7884 1.510
48.8187 1.354
48.8490 1.354
48.8793 1.719
48.9095 1.146
48.9398 1.406
48.9701 1.094
49.0004 1.302
49.0307 1.250
49.0609 1.510
49.0912 1.510
49.1215 1.198
49.1518 1.302
49.1821 1.302
49.2123 1.510
49.2426 0.937
49.2729 1.771
49.3032 1.406
49.3334 1.302
49.3637 1.094
49.3940 1.146
49.4243 0.833
49.4546 1.458
49.4848 1.562
49.5151 1.458
49.5454 1.302
49.5757 0.573
49.6060 1.823
49.6362 0.885
49.6665 0.990
49.6968 1.250
49.7271 0.937
49.7574 0.885
49.7876 1.562
49.8179 1.562
49.8482 1.250
49.8785 1.615
49.9087 1.302
49.9390 1.458
49.9693 1.146
49.9996 1.719
50.0299 1.146
50.0601 1.250
50.0904 1.146
50.1207 1.094
50.1510 1.146
50.1813 1.146
50.2115 0.937
50.2418 1.198
50.2721 0.990
50.3024 1.458
50.3326 1.146
50.3629 0.990
50.3932 1.562
50.4235 1.250
50.4538 1.562
50.4840 1.250
50.5143 1.250
50.5446 1.198
50.5749 1.198
50.6052 1.198
50.6354 0.885
50.6657 2.135
50.6960 1.146
50.7263 0.573
50.7565 1.354
50.7868 1.406
50.8171 0.885
50.8474 1.198
50.8777 1.094
50.9079 1.094
50.9382 0.885
50.9685 1.875
50.9988 1.250
51.0291 1.198
51.0593 1.198
51.0896 1.354
51.1199 1.094
51.1502 1.562
51.1804 1.354
51.2107 1.250
51.2410 0.833
51.2713 1.042
51.3016 0.937
51.3318 1.354
51.3621 1.094
51.3924 1.146
51.4227 1.094
51.4530 0.990
51.4832 1.354
51.5135 1.042
51.5438 1.198
51.5741 1.094
51.6043 0.781
51.6346 1.042
51.6649 0.885
51.6952 1.250
51.7255 1.615
51.7557 1.198
51.7860 1.667
51.8163 1.510
51.8466 1.198
51.8769 1.562
51.9071 1.354
51.9374 1.302
51.9677 1.406
51.9980 1.094
52.0282 0.937
52.0585 1.146
52.0888 0.937
52.1191 1.146
52.1494 1.302
52.1796 1.250
52.2099 0.990
52.2402 1.198
52.2705 1.146
52.3008 1.615
52.3310 1.510
52.3613 1.146
52.3916 0.781
52.4219 0.990
52.4521 1.354
52.4824 1.302
52.5127 1.146
52.5430 1.198
52.5733 1.146
52.6035 1.250
52.6338 0.990
52.6641 0.885
52.6944 1.719
52.7247 0.990
52.7549 0.990
52.7852 0.937
52.8155 1.250
52.8458 1.146
52.8761 1.302
52.9063 1.510
52.9366 1.094
52.9669 1.146
52.9972 1.354
53.0274 1.406
53.0577 0.833
53.0880 1.250
53.1183 0.677
53.1486 1.510
53.1788 1.250
53.2091 1.094
53.2394 1.302
53.2697 0.677
53.3000 0.781
53.3302 0.990
53.3605 1.458
53.3908 1.354
53.4211 1.146
53.4513 1.250
53.4816 1.146
53.5119 1.042
53.5422 1.094
53.5725 0.833
53.6027 1.302
53.6330 0.781
53.6633 1.406
53.6936 1.146
53.7239 1.094
53.7541 0.469
53.7844 1.302
53.8147 1.042
53.8450 1.094
53.8752 1.042
53.9055 1.719
53.9358 0.990
53.9661 1.042
53.9964 1.458
54.0266 1.198
54.0569 0.833
54.0872 0.885
54.1175 1.094
54.1478 0.885
54.1780 1.146
54.2083 1.250
54.2386 1.094
54.2689 0.937
54.2991 0.729
54.3294 1.250
54.3597 1.094
54.3900 0.833
54.4203 1.042
54.4505 0.937
54.4808 1.354
54.5111 1.042
54.5414 1.042
54.5717 1.406
54.6019 1.094
54.6322 1.406
54.6625 1.146
54.6928 0.990
54.7230 1.042
54.7533 1.198
54.7836 1.354
54.8139 1.198
54.8442 1.042
54.8744 1.667
54.9047 1.094
54.9350 1.354
54.9653 1.198
54.9956 1.042
55.0258 1.146
55.0561 1.146
55.0864 1.198
55.1167 1.510
55.1469 1.562
55.1772 1.823
55.2075 1.771
55.2378 1.667
55.2681 1.406
55.2983 1.250
55.3286 1.354
55.3589 1.094
55.3892 1.458
55.4195 1.510
55.4497 1.562
55.4800 1.302
55.5103 1.823
55.5406 1.719
55.5709 1.667
55.6011 1.719
55.6314 1.562
55.6617 2.031
55.6920 1.562
55.7222 1.875
55.7525 2.396
55.7828 2.135
55.8131 2.344
55.8434 2.604
55.8736 1.719
55.9039 3.021
55.9342 2.552
55.9645 2.396
55.9948 3.021
56.0250 3.021
56.0553 3.698
56.0856 3.281
56.1159 3.021
56.1461 3.698
56.1764 3.906
56.2067 3.698
56.2370 4.583
56.2673 5.104
56.2975 6.458
56.3278 6.875
56.3581 6.354
56.3884 8.281
56.4187 7.917
56.4489 7.552
56.4792 8.490
56.5095 7.760
56.5398 7.708
56.5700 6.771
56.6003 6.667
56.6306 6.302
56.6609 5.521
56.6912 5.781
56.7214 4.635
56.7517 3.437
56.7820 3.854
56.8123 3.125
56.8426 3.229
56.8728 2.292
56.9031 2.969
56.9334 3.229
56.9637 2.187
56.9939 2.240
57.0242 3.073
57.0545 2.135
57.0848 1.875
57.1151 1.510
57.1453 2.292
57.1756 1.615
57.2059 1.927
57.2362 1.562
57.2665 1.667
57.2967 1.719
57.3270 1.510
57.3573 1.510
57.3876 1.302
57.4178 1.615
57.4481 1.458
57.4784 1.615
57.5087 0.990
57.5390 1.458
57.5692 1.719
57.5995 1.198
57.6298 1.042
57.6601 1.198
57.6904 1.146
57.7206 1.198
57.7509 1.615
57.7812 1.250
57.8115 1.302
57.8417 1.302
57.8720 1.250
57.9023 1.562
57.9326 1.198
57.9629 0.990
57.9931 1.042
58.0234 1.458
58.0537 0.781
58.0840 1.302
58.1143 0.833
58.1445 1.250
58.1748 1.146
58.2051 0.885
58.2354 1.406
58.2656 0.781
58.2959 0.937
58.3262 1.198
58.3565 1.250
58.3868 1.302
58.4170 1.198
58.4473 0.937
58.4776 1.042
58.5079 1.146
58.5382 1.354
58.5684 1.458
58.5987 0.781
58.6290 1.146
58.6593 0.781
58.6896 1.250
58.7198 0.937
58.7501 1.250
58.7804 1.146
58.8107 1.042
58.8409 0.990
58.8712 1.198
58.9015 1.094
58.9318 1.198
58.9621 1.250
58.9923 1.042
59.0226 1.458
59.0529 0.729
59.0832 0.937
59.1135 0.937
59.1437 1.198
59.1740 0.937
59.2043 1.146
59.2346 1.042
59.2648 1.458
59.2951 1.146
59.3254 1.042
59.3557 1.198
59.3860 1.250
59.4162 1.042
59.4465 0.990
59.4768 1.094
59.5071 1.146
59.5374 0.781
59.5676 1.250
59.5979 1.198
59.6282 0.833
59.6585 1.094
59.6887 0.937
59.7190 0.625
59.7493 1.198
59.7796 1.354
59.8099 0.625
59.8401 0.781
59.8704 1.302
59.9007 0.990
59.9310 0.885
59.9613 1.406
59.9915 0.885
60.0218 1.510
60.0521 0.833
60.0824 0.937
60.1126 1.302
60.1429 1.146
60.1732 0.937
60.2035 1.042
60.2338 1.094
60.2640 0.781
60.2943 0.885
60.3246 0.937
60.3549 0.885
60.3852 1.302
60.4154 0.833
60.4457 0.833
60.4760 1.146
60.5063 1.198
60.5365 1.250
60.5668 1.406
60.5971 0.937
60.6274 0.885
60.6577 1.198
60.6879 0.729
60.7182 1.354
60.7485 1.406
60.7788 0.937
60.8091 0.833
60.8393 0.833
60.8696 1.094
60.8999 1.250
60.9302 1.094
60.9604 0.990
60.9907 0.833
61.0210 0.729
61.0513 1.667
61.0816 1.302
61.1118 0.990
61.1421 0.677
61.1724 0.833
61.2027 0.937
61.2330 1.354
61.2632 0.885
61.2935 0.781
61.3238 1.458
61.3541 0.937
61.3844 1.250
61.4146 1.198
61.4449 1.354
61.4752 1.250
61.5055 1.042
61.5357 1.146
61.5660 1.458
61.5963 1.094
61.6266 1.250
61.6569 0.937
61.6871 1.302
61.7174 1.198
61.7477 1.406
61.7780 1.927
61.8083 1.354
61.8385 1.510
61.8688 1.667
61.8991 1.198
61.9294 1.667
61.9596 1.719
61.9899 1.302
62.0202 1.927
62.0505 1.875
62.0808 1.615
62.1110 2.344
62.1413 1.719
62.1716 1.667
62.2019 1.979
62.2322 2.448
62.2624 2.604
62.2927 2.656
62.3230 2.604
62.3533 2.917
62.3835 3.125
62.4138 3.750
62.4441 3.646
62.4744 4.323
62.5047 4.687
62.5349 4.896
62.5652 5.312
62.5955 5.052
62.6258 6.510
62.6561 6.302
62.6863 6.875
62.7166 6.562
62.7469 6.406
62.7772 5.990
62.8074 5.677
62.8377 6.562
62.8680 5.677
62.8983 5.990
62.9286 5.833
62.9588 4.375
62.9891 4.844
63.0194 3.958
63.0497 4.271
63.0800 2.969
63.1102 2.812
63.1405 2.292
63.1708 2.448
63.2011 2.187
63.2313 2.135
63.2616 2.031
63.2919 1.979
63.3222 2.083
63.3525 1.771
63.3827 1.771
63.4130 1.771
63.4433 1.354
63.4736 1.198
63.5039 0.937
63.5341 1.719
63.5644 1.458
63.5947 1.615
63.6250 1.354
63.6552 1.406
63.6855 1.458
63.7158 1.198
63.7461 1.198
63.7764 1.198
63.8066 1.302
63.8369 1.771
63.8672 1.198
63.8975 1.667
63.9278 0.990
63.9580 0.885
63.9883 1.198
64.0186 1.094
64.0489 1.354
64.0791 1.094
64.1094 1.198
64.1397 1.406
64.1700 0.990
64.2003 1.198
64.2305 0.885
64.2608 1.198
64.2911 0.990
64.3214 0.833
64.3517 0.833
64.3819 1.250
64.4122 0.885
64.4425 0.990
64.4728 0.885
64.5031 1.406
64.5333 1.042
64.5636 0.781
64.5939 1.042
64.6242 0.833
64.6544 0.833
64.6847 1.354
64.7150 1.562
64.7453 0.990
64.7756 0.833
64.8058 1.042
64.8361 1.094
64.8664 0.833
64.8967 1.146
64.9270 1.094
64.9572 1.302
64.9875 1.406
65.0178 1.198
65.0481 1.042
65.0783 1.354
65.1086 1.146
65.1389 1.250
65.1692 0.885
65.1995 0.833
65.2297 1.302
65.2600 1.354
65.2903 1.146
65.3206 0.833
65.3509 1.510
65.3811 1.198
65.4114 0.990
65.4417 0.937
65.4720 1.615
65.5022 1.354
65.5325 0.885
65.5628 1.094
65.5931 1.198
65.6234 0.990
65.6536 1.302
65.6839 1.354
65.7142 1.510
65.7445 1.094
65.7748 1.771
65.8050 1.354
65.8353 1.250
65.8656 1.354
65.8959 1.875
65.9261 1.510
65.9564 1.354
65.9867 1.667
66.0170 1.458
66.0473 1.510
66.0775 1.510
66.1078 1.979
66.1381 1.354
66.1684 1.719
66.1987 1.771
66.2289 1.667
66.2592 1.302
66.2895 1.823
66.3198 1.979
66.3500 2.031
66.3803 1.406
66.4106 1.927
66.4409 1.771
66.4712 1.771
66.5014 1.458
66.5317 0.990
66.5620 1.354
66.5923 1.198
66.6226 1.458
66.6528 1.510
66.6831 1.927
66.7134 1.927
66.7437 1.615
66.7739 1.615
66.8042 1.250
66.8345 1.094
66.8648 1.302
66.8951 1.302
66.9253 1.354
66.9556 1.510
66.9859 1.771
67.0162 1.250
67.0465 1.458
67.0767 1.354
67.1070 2.083
67.1373 1.510
67.1676 1.719
67.1978 1.719
67.2281 1.615
67.2584 1.458
67.2887 2.240
67.3190 2.083
67.3492 2.656
67.3795 1.823
67.4098 2.083
67.4401 2.865
67.4704 2.708
67.5006 2.969
67.5309 3.542
67.5612 3.177
67.5915 3.854
67.6218 3.750
67.6520 3.594
67.6823 4.583
67.7126 4.687
67.7429 3.542
67.7731 4.427
67.8034 5.469
67.8337 5.365
67.8640 4.844
67.8943 4.375
67.9245 4.167
67.9548 3.802
67.9851 3.802
68.0154 3.802
68.0457 3.906
68.0759 2.865
68.1062 3.542
68.1365 3.646
68.1668 2.865
68.1970 2.604
68.2273 2.969
68.2576 2.865
68.2879 2.760
68.3182 2.344
68.3484 2.344
68.3787 2.344
68.4090 2.031
68.4393 1.927
68.4696 2.083
68.4998 1.823
68.5301 2.396
68.5604 1.354
68.5907 2.500
68.6209 1.927
68.6512 1.667
68.6815 2.656
68.7118 2.448
68.7421 1.823
68.7723 2.917
68.8026 2.865
68.8329 2.344
68.8632 2.708
68.8935 2.396
68.9237 2.240
68.9540 2.552
68.9843 2.604
69.0146 2.135
69.0448 2.812
69.0751 3.281
69.1054 2.552
69.1357 2.344
69.1660 1.875
69.1962 1.823
69.2265 2.344
69.2568 1.823
69.2871 2.083
69.3174 2.292
69.3476 1.562
69.3779 1.562
69.4082 1.510
69.4385 1.823
69.4687 1.094
69.4990 1.406
69.5293 1.094
69.5596 1.094
69.5899 0.885
69.6201 1.406
69.6504 1.146
69.6807 1.302
69.7110 1.146
69.7413 0.990
69.7715 0.937
69.8018 0.781
69.8321 0.781
69.8624 1.094
69.8926 1.250
69.9229 0.990
69.9532 0.625
69.9835 0.833
70.0138 1.250
70.0440 0.781
70.0743 1.042
70.1046 0.781
70.1349 1.198
70.1652 0.781
70.1954 0.937
70.2257 0.885
70.2560 0.677
70.2863 1.042
70.3166 0.885
70.3468 0.885
70.3771 1.146
70.4074 0.781
70.4377 0.990
70.4679 0.990
70.4982 0.573
70.5285 0.625
70.5588 0.833
70.5891 0.833
70.6193 0.417
70.6496 1.250
70.6799 0.937
70.7102 1.250
70.7405 0.781
70.7707 0.625
70.8010 1.198
70.8313 0.781
70.8616 0.885
70.8918 1.042
70.9221 0.781
70.9524 0.990
70.9827 1.354
71.0130 0.677
71.0432 0.781
71.0735 0.469
71.1038 0.990
71.1341 0.937
71.1644 0.833
71.1946 0.937
71.2249 0.729
71.2552 1.250
71.2855 0.833
71.3157 0.781
71.3460 0.625
71.3763 0.833
71.4066 0.833
71.4369 1.094
71.4671 0.625
71.4974 0.417
71.5277 1.146
71.5580 0.625
71.5883 0.469
71.6185 0.885
71.6488 0.937
71.6791 0.573
71.7094 1.094
71.7396 0.677
71.7699 0.469
71.8002 0.677
71.8305 0.937
71.8608 0.833
71.8910 0.729
71.9213 0.885
71.9516 0.729
71.9819 1.094
72.0122 1.198
72.0424 1.094
72.0727 0.833
72.1030 1.094
72.1333 0.729
72.1635 1.042
72.1938 0.729
72.2241 0.677
72.2544 0.729
72.2847 1.042
72.3149 1.198
72.3452 0.833
72.3755 1.250
72.4058 1.198
72.4361 1.042
72.4663 0.833
72.4966 1.198
72.5269 0.990
72.5572 0.885
72.5874 1.406
72.6177 0.677
72.6480 0.729
72.6783 1.042
72.7086 0.781
72.7388 1.302
72.7691 1.094
72.7994 0.937
72.8297 0.990
72.8600 1.042
72.8902 0.781
72.9205 0.990
72.9508 1.042
72.9811 1.146
73.0113 0.729
73.0416 0.625
73.0719 0.573
73.1022 0.729
73.1325 0.729
73.1627 0.417
73.1930 0.990
73.2233 0.833
73.2536 0.729
73.2839 0.781
73.3141 0.625
73.3444 0.677
73.3747 0.469
73.4050 0.677
73.4353 0.625
73.4655 0.729
73.4958 0.625
73.5261 0.625
73.5564 0.677
73.5866 0.781
73.6169 0.781
73.6472 0.729
73.6775 0.937
73.7078 0.677
73.7380 0.625
73.7683 0.729
73.7986 0.990
73.8289 0.365
73.8592 0.781
73.8894 0.781
73.9197 0.781
73.9500 0.729
73.9803 0.833
74.0105 0.937
74.0408 0.937
74.0711 0.885
74.1014 0.781
74.1317 0.365
74.1619 0.677
74.1922 0.677
74.2225 0.781
74.2528 0.365
74.2831 0.729
74.3133 0.677
74.3436 0.833
74.3739 0.469
74.4042 0.885
74.4344 1.250
74.4647 0.677
74.4950 0.781
74.5253 0.573
74.5556 0.469
74.5858 1.094
74.6161 0.729
74.6464 0.781
74.6767 0.781
74.7070 0.312
74.7372 0.573
74.7675 0.885
74.7978 0.677
74.8281 0.729
74.8583 0.729
74.8886 0.521
74.9189 0.573
74.9492 0.781
74.9795 0.625
75.0097 0.729
75.0400 0.573
75.0703 1.094
75.1006 0.625
75.1309 0.833
75.1611 0.677
75.1914 0.729
75.2217 0.521
75.2520 0.990
75.2822 0.833
75.3125 0.937
75.3428 0.833
75.3731 0.625
75.4034 0.521
75.4336 0.417
75.4639 0.781
75.4942 0.729
75.5245 0.885
75.5548 0.937
75.5850 0.781
75.6153 0.781
75.6456 0.937
75.6759 0.469
75.7061 0.677
75.7364 0.521
75.7667 0.833
75.7970 0.521
75.8273 0.729
75.8575 0.521
75.8878 1.042
75.9181 0.573
75.9484 0.885
75.9787 0.885
76.0089 0.677
76.0392 0.625
76.0695 0.469
76.0998 0.729
76.1301 0.990
76.1603 0.937
76.1906 0.573
76.2209 0.990
76.2512 0.885
76.2814 0.781
76.3117 0.521
76.3420 1.146
76.3723 0.833
76.4026 0.990
76.4328 0.781
76.4631 0.885
76.4934 0.729
76.5237 0.937
76.5540 0.781
76.5842 0.885
76.6145 0.937
76.6448 0.781
76.6751 0.990
76.7053 1.250
76.7356 1.250
76.7659 1.458
76.7962 0.990
76.8265 1.042
76.8567 0.729
76.8870 1.094
76.9173 0.937
76.9476 1.354
76.9779 0.781
77.0081 1.094
77.0384 1.198
77.0687 0.625
77.0990 1.198
77.1292 1.198
77.1595 0.729
77.1898 0.781
77.2201 1.302
77.2504 1.302
77.2806 1.042
77.3109 0.937
77.3412 0.729
77.3715 0.781
77.4018 0.937
77.4320 0.833
77.4623 0.781
77.4926 0.677
77.5229 0.677
77.5531 0.729
77.5834 0.833
77.6137 0.833
77.6440 0.937
77.6743 0.729
77.7045 0.729
77.7348 0.469
77.7651 0.781
77.7954 0.833
77.8257 1.198
77.8559 0.469
77.8862 0.781
77.9165 0.625
77.9468 1.198
77.9770 0.469
78.0073 0.885
78.0376 0.729
78.0679 0.729
78.0982 0.677
78.1284 0.729
78.1587 0.729
78.1890 0.729
78.2193 0.677
78.2496 0.833
78.2798 0.729
78.3101 0.833
78.3404 0.729
78.3707 0.833
78.4009 1.042
78.4312 0.469
78.4615 0.781
78.4918 0.729
78.5221 0.729
78.5523 0.833
78.5826 0.573
78.6129 0.937
78.6432 0.781
78.6735 0.677
78.7037 0.677
78.7340 0.729
78.7643 0.625
78.7946 0.573
78.8248 0.885
78.8551 0.677
78.8854 0.781
78.9157 0.885
78.9460 0.625
78.9762 0.781
79.0065 0.417
79.0368 0.729
79.0671 0.833
79.0974 0.573
79.1276 0.937
79.1579 0.573
79.1882 0.729
79.2185 0.937
79.2488 0.729
79.2790 0.521
79.3093 0.625
79.3396 0.573
79.3699 0.625
79.4001 0.885
79.4304 0.937
79.4607 0.990
79.4910 0.677
79.5213 0.677
79.5515 0.781
79.5818 0.573
79.6121 0.625
79.6424 0.729
79.6727 0.937
79.7029 1.042
79.7332 0.729
79.7635 0.729
79.7938 0.885
79.8240 0.729
79.8543 0.677
79.8846 0.729
79.9149 0.417
79.9452 0.729
79.9754 0.781
80.0057 0.729
80.0360 0.781
80.0663 0.625
80.0966 0.885
80.1268 0.885
80.1571 0.625
80.1874 0.937
80.2177 0.469
80.2479 0.781
80.2782 1.198
80.3085 0.833
80.3388 0.625
80.3691 0.833
80.3993 1.042
80.4296 0.990
80.4599 0.729
80.4902 0.729
80.5205 0.365
80.5507 0.729
80.5810 0.990
80.6113 0.729
80.6416 0.729
80.6718 0.573
80.7021 0.729
80.7324 0.625
80.7627 0.781
80.7930 0.990
80.8232 0.937
80.8535 0.625
80.8838 0.729
80.9141 0.990
80.9444 0.729
80.9746 0.937
81.0049 0.729
81.0352 0.729
81.0655 0.885
81.0957 0.833
81.1260 0.729
81.1563 1.198
81.1866 0.990
81.2169 1.094
81.2471 0.833
81.2774 0.729
81.3077 1.146
81.3380 0.833
81.3683 0.729
81.3985 0.937
81.4288 1.146
81.4591 0.677
81.4894 0.312
81.5196 0.729
81.5499 0.885
81.5802 0.990
81.6105 1.250
81.6408 0.677
81.6710 0.729
81.7013 0.885
81.7316 0.729
81.7619 0.677
81.7922 0.885
81.8224 0.625
81.8527 0.990
81.8830 0.990
81.9133 1.094
81.9436 0.729
81.9738 0.833
82.0041 0.781
82.0344 0.781
82.0647 0.990
82.0949 0.677
82.1252 1.094
82.1555 1.094
82.1858 0.677
82.2161 0.729
82.2463 0.729
82.2766 0.729
82.3069 0.521
82.3372 0.677
82.3675 0.417
82.3977 0.885
82.4280 0.833
82.4583 0.521
82.4886 0.573
82.5188 0.833
82.5491 0.677
82.5794 0.729
82.6097 0.781
82.6400 0.521
82.6702 0.729
82.7005 0.781
82.7308 0.521
82.7611 0.885
82.7914 0.729
82.8216 0.677
82.8519 1.094
82.8822 0.781
82.9125 0.365
82.9427 0.677
82.9730 0.417
83.0033 0.521
83.0336 0.573
83.0639 0.885
83.0941 0.729
83.1244 0.573
83.1547 0.729
83.1850 0.729
83.2153 0.781
83.2455 0.469
83.2758 0.833
83.3061 0.990
83.3364 0.677
83.3666 0.781
83.3969 0.417
83.4272 1.198
83.4575 0.677
83.4878 0.729
83.5180 0.521
83.5483 0.625
83.5786 0.625
83.6089 0.729
83.6392 1.198
83.6694 0.573
83.6997 0.625
83.7300 0.365
83.7603 0.365
83.7905 0.937
83.8208 0.677
83.8511 0.521
83.8814 0.937
83.9117 0.521
83.9419 0.729
83.9722 0.885
84.0025 0.781
84.0328 0.365
84.0631 0.937
84.0933 0.937
84.1236 0.521
84.1539 0.469
84.1842 0.677
84.2144 0.729
84.2447 0.781
84.2750 0.729
84.3053 0.729
84.3356 0.833
84.3658 0.677
84.3961 0.729
84.4264 0.833
84.4567 0.729
84.4870 0.625
84.5172 0.573
84.5475 0.677
84.5778 0.729
84.6081 0.625
84.6383 0.573
84.6686 0.833
84.6989 0.365
84.7292 0.781
84.7595 0.729
84.7897 0.833
84.8200 0.625
84.8503 0.833
84.8806 0.365
84.9109 0.573
84.9411 0.469
84.9714 0.417
85.0017 0.729
85.0320 0.729
85.0623 0.937
85.0925 0.625
85.1228 0.781
85.1531 0.625
85.1834 0.729
85.2136 0.729
85.2439 1.042
85.2742 0.833
85.3045 0.677
85.3348 0.885
85.3650 0.625
85.3953 0.573
85.4256 0.625
85.4559 0.469
85.4862 0.677
85.5164 0.937
85.5467 0.365
85.5770 0.573
85.6073 0.521
85.6375 0.417
85.6678 0.677
85.6981 0.573
85.7284 0.573
85.7587 0.781
85.7889 0.625
85.8192 0.937
85.8495 0.729
85.8798 0.677
85.9101 0.781
85.9403 0.833
85.9706 0.417
86.0009 1.042
86.0312 0.573
86.0614 0.469
86.0917 0.573
86.1220 0.729
86.1523 0.885
86.1826 0.677
86.2128 0.573
86.2431 0.781
86.2734 0.521
86.3037 0.521
86.3340 0.521
86.3642 0.365
86.3945 0.833
86.4248 0.729
86.4551 0.781
86.4853 0.573
86.5156 0.729
86.5459 0.677
86.5762 0.677
86.6065 0.677
86.6367 0.729
86.6670 0.365
86.6973 0.833
86.7276 0.937
86.7579 0.729
86.7881 0.625
86.8184 0.885
86.8487 0.885
86.8790 0.729
86.9092 0.729
86.9395 0.625
86.9698 0.677
87.0001 0.521
87.0304 0.729
87.0606 0.990
87.0909 0.469
87.1212 0.677
87.1515 1.094
87.1818 0.625
87.2120 0.573
87.2423 0.573
87.2726 0.573
87.3029 0.729
87.3331 0.625
87.3634 0.573
87.3937 0.833
87.4240 0.573
87.4543 0.625
87.4845 0.573
87.5148 0.781
87.5451 0.469
87.5754 0.573
87.6057 0.312
87.6359 0.885
87.6662 0.469
87.6965 0.677
87.7268 0.417
87.7571 0.625
87.7873 0.833
87.8176 0.885
87.8479 0.781
87.8782 0.833
87.9084 0.625
87.9387 0.885
87.9690 0.625
87.9993 0.781
88.0296 0.729
88.0598 0.573
88.0901 0.417
88.1204 0.521
88.1507 0.573
88.1810 0.573
88.2112 0.677
88.2415 0.625
88.2718 0.781
88.3021 1.042
88.3323 0.833
88.3626 0.729
88.3929 0.729
88.4232 0.729
88.4535 0.885
88.4837 0.625
88.5140 0.781
88.5443 0.625
88.5746 0.937
88.6049 0.729
88.6351 0.729
88.6654 0.833
88.6957 0.781
88.7260 1.146
88.7562 0.833
88.7865 1.198
88.8168 0.885
88.8471 0.990
88.8774 0.990
88.9076 0.781
88.9379 1.198
88.9682 1.198
88.9985 0.833
89.0288 1.406
89.0590 1.406
89.0893 1.146
89.1196 1.667
89.1499 1.042
89.1801 1.094
89.2104 1.042
89.2407 0.781
89.2710 0.937
89.3013 1.302
89.3315 1.771
89.3618 1.302
89.3921 2.240
89.4224 1.302
89.4527 1.198
89.4829 1.875
89.5132 1.667
89.5435 1.771
89.5738 1.302
89.6040 1.302
89.6343 0.990
89.6646 1.250
89.6949 1.615
89.7252 1.719
89.7554 1.406
89.7857 1.667
89.8160 1.146
89.8463 1.354
89.8766 1.198
89.9068 1.198
89.9371 1.302
89.9674 1.146
89.9977 0.833
90.0279 0.990
90.0582 1.562
90.0885 1.250
90.1188 1.250
90.1491 0.729
90.1793 0.937
90.2096 1.406
90.2399 1.250
90.2702 0.937
90.3005 1.198
90.3307 0.937
90.3610 0.677
90.3913 1.042
90.4216 1.042
90.4518 0.885
90.4821 0.937
90.5124 0.625
90.5427 0.781
90.5730 0.677
90.6032 1.094
90.6335 0.729
90.6638 0.729
90.6941 0.677
90.7244 1.094
90.7546 0.677
90.7849 0.729
90.8152 0.677
90.8455 0.469
90.8758 0.729
90.9060 0.833
90.9363 0.677
90.9666 0.521
90.9969 1.146
91.0271 0.677
91.0574 1.198
91.0877 0.677
91.1180 0.781
91.1483 0.521
91.1785 0.781
91.2088 0.417
91.2391 1.042
91.2694 0.469
91.2997 0.729
91.3299 0.573
91.3602 0.990
91.3905 0.990
91.4208 1.042
91.4510 0.729
91.4813 1.042
91.5116 0.729
91.5419 0.729
91.5722 0.781
91.6024 0.729
91.6327 0.729
91.6630 0.781
91.6933 0.885
91.7236 0.521
91.7538 0.833
91.7841 0.469
91.8144 0.781
91.8447 0.729
91.8749 0.365
91.9052 0.677
91.9355 0.677
91.9658 0.625
91.9961 0.625
92.0263 0.990
92.0566 0.573
92.0869 1.406
92.1172 1.094
92.1475 0.781
92.1777 1.146
92.2080 1.094
92.2383 0.885
92.2686 0.625
92.2988 0.990
92.3291 0.729
92.3594 0.781
92.3897 0.729
92.4200 0.781
92.4502 1.198
92.4805 0.781
92.5108 0.990
92.5411 0.937
92.5714 0.573
92.6016 0.990
92.6319 0.729
92.6622 0.833
92.6925 0.833
92.7227 0.833
92.7530 0.625
92.7833 1.146
92.8136 1.198
92.8439 1.042
92.8741 1.094
92.9044 0.729
92.9347 0.521
92.9650 0.990
92.9953 0.573
93.0255 0.781
93.0558 0.937
93.0861 1.198
93.1164 1.146
93.1466 0.729
93.1769 0.937
93.2072 0.885
93.2375 0.937
93.2678 1.198
93.2980 0.729
93.3283 0.990
93.3586 0.729
93.3889 1.042
93.4192 0.521
93.4494 0.937
93.4797 1.146
93.5100 0.677
93.5403 0.625
93.5706 0.625
93.6008 1.146
93.6311 0.625
93.6614 0.833
93.6917 1.094
93.7219 0.990
93.7522 0.729
93.7825 0.937
93.8128 0.625
93.8431 0.521
93.8733 0.573
93.9036 0.885
93.9339 0.833
93.9642 0.885
93.9945 0.937
94.0247 1.198
94.0550 0.417
94.0853 0.781
94.1156 0.417
94.1458 0.729
94.1761 0.833
94.2064 0.781
94.2367 0.729
94.2670 0.885
94.2972 0.885
94.3275 0.990
94.3578 0.729
94.3881 0.573
94.4184 0.833
94.4486 0.885
94.4789 0.677
94.5092 1.094
94.5395 1.354
94.5697 0.781
94.6000 0.781
94.6303 0.937
94.6606 0.677
94.6909 1.094
94.7211 1.198
94.7514 1.146
94.7817 0.833
94.8120 1.042
94.8423 1.562
94.8725 0.990
94.9028 1.250
94.9331 1.094
94.9634 1.094
94.9936 1.146
95.0239 0.625
95.0542 1.250
95.0845 1.250
95.1148 1.510
95.1450 1.302
95.1753 0.677
95.2056 1.250
95.2359 1.667
95.2662 1.719
95.2964 1.198
95.3267 1.094
95.3570 1.094
95.3873 1.250
95.4175 1.354
95.4478 1.094
95.4781 0.990
95.5084 1.250
95.5387 0.833
95.5689 0.885
95.5992 1.458
95.6295 1.042
95.6598 0.937
95.6901 1.302
95.7203 1.406
95.7506 1.146
95.7809 0.990
95.8112 0.885
95.8414 0.885
95.8717 1.250
95.9020 0.729
95.9323 1.042
95.9626 0.729
95.9928 0.937
96.0231 0.833
96.0534 0.677
96.0837 0.729
96.1140 1.198
96.1442 0.990
96.1745 0.677
96.2048 0.625
96.2351 0.885
96.2653 0.573
96.2956 0.729
96.3259 0.469
96.3562 1.146
96.3865 0.729
96.4167 0.625
96.4470 0.781
96.4773 0.729
96.5076 0.990
96.5379 0.833
96.5681 0.781
96.5984 0.625
96.6287 0.937
96.6590 0.729
96.6893 0.781
96.7195 0.885
96.7498 0.937
96.7801 0.625
96.8104 0.677
96.8406 0.937
96.8709 0.990
96.9012 1.198
96.9315 0.990
96.9618 0.885
96.9920 0.625
97.0223 0.729
97.0526 0.781
97.0829 0.677
97.1132 0.521
97.1434 0.625
97.1737 0.573
97.2040 0.781
97.2343 0.729
97.2645 0.833
97.2948 0.990
97.3251 0.521
97.3554 0.781
97.3857 0.937
97.4159 0.677
97.4462 0.677
97.4765 0.781
97.5068 0.781
97.5371 0.781
97.5673 0.781
97.5976 0.521
97.6279 0.729
97.6582 0.573
97.6884 0.885
97.7187 0.781
97.7490 0.677
97.7793 0.781
97.8096 0.729
97.8398 0.781
97.8701 0.990
97.9004 0.781
97.9307 0.990
97.9610 1.094
97.9912 1.042
98.0215 0.937
98.0518 0.781
98.0821 0.781
98.1123 1.094
98.1426 0.833
98.1729 1.042
98.2032 1.094
98.2335 1.042
98.2637 1.094
98.2940 1.250
98.3243 0.833
98.3546 1.302
98.3849 1.562
98.4151 0.729
98.4454 0.781
98.4757 1.198
98.5060 1.198
98.5362 1.042
98.5665 0.781
98.5968 0.885
98.6271 0.573
98.6574 1.094
98.6876 0.781
98.7179 1.094
98.7482 1.198
98.7785 1.146
98.8088 1.146
98.8390 1.354
98.8693 1.042
98.8996 1.146
98.9299 0.781
98.9601 0.833
98.9904 0.781
99.0207 0.937
99.0510 0.885
99.0813 0.729
99.1115 1.146
99.1418 0.937
99.1721 0.521
99.2024 0.781
99.2327 0.417
99.2629 0.677
99.2932 0.417
99.3235 1.146
99.3538 0.677
99.3841 0.781
99.4143 0.677
99.4446 0.885
99.4749 0.781
99.5052 0.781
99.5354 0.885
99.5657 0.521
99.5960 0.885
99.6263 0.781
99.6566 0.833
99.6868 1.250
99.7171 0.625
99.7474 0.990
99.7777 0.781
99.8080 0.729
99.8382 0.781
99.8685 0.677
99.8988 0.781
99.9291 0.573
99.9593 1.094
99.9896 0.781
100.0199 0.260
100.0502 0.781
100.0805 0.833
100.1107 0.625
100.1410 0.729
100.1713 0.833
100.2016 0.781
100.2319 0.937
100.2621 0.781
100.2924 1.094
100.3227 0.677
100.3530 0.677
100.3832 1.042
100.4135 0.781
100.4438 0.625
100.4741 0.729
100.5044 0.729
100.5346 0.573
100.5649 0.937
100.5952 0.312
100.6255 0.521
100.6558 0.677
100.6860 0.625
100.7163 0.677
100.7466 0.833
100.7769 0.417
100.8071 0.521
100.8374 0.885
100.8677 0.781
100.8980 0.781
100.9283 0.781
100.9585 0.885
100.9888 0.781
101.0191 0.937
101.0494 0.781
101.0797 0.677
101.1099 0.781
101.1402 0.781
101.1705 1.250
101.2008 0.729
101.2310 1.198
101.2613 0.469
101.2916 0.990
101.3219 0.990
101.3522 0.990
101.3824 0.677
101.4127 0.677
101.4430 0.573
101.4733 1.094
101.5036 0.990
101.5338 0.677
101.5641 0.781
101.5944 0.781
101.6247 1.094
101.6549 0.833
101.6852 0.833
101.7155 0.937
101.7458 0.885
101.7761 1.042
101.8063 0.885
101.8366 0.885
101.8669 0.781
101.8972 0.833
101.9275 0.781
101.9577 0.833
101.9880 0.937
102.0183 0.729
102.0486 1.042
102.0788 0.677
102.1091 1.406
102.1394 0.990
102.1697 1.302
102.2000 0.937
102.2302 0.781
102.2605 1.198
102.2908 0.781
102.3211 0.729
102.3514 0.990
102.3816 0.990
102.4119 0.990
102.4422 0.937
102.4725 0.833
102.5028 0.885
102.5330 1.354
102.5633 1.406
102.5936 0.833
102.6239 1.198
102.6541 0.781
102.6844 1.458
102.7147 1.094
102.7450 1.094
102.7753 0.677
102.8055 1.146
102.8358 1.198
102.8661 0.885
102.8964 1.146
102.9267 1.146
102.9569 1.406
102.9872 1.562
103.0175 1.354
103.0478 1.458
103.0780 1.146
103.1083 1.094
103.1386 0.990
103.1689 1.198
103.1992 1.042
103.2294 1.354
103.2597 1.250
103.2900 0.573
103.3203 1.042
103.3506 1.042
103.3808 1.354
103.4111 1.719
103.4414 1.094
103.4717 0.781
103.5019 1.406
103.5322 1.146
103.5625 0.625
103.5928 1.354
103.6231 1.354
103.6533 1.198
103.6836 1.198
103.7139 1.510
103.7442 1.562
103.7745 1.823
103.8047 0.833
103.8350 1.094
103.8653 1.198
103.8956 1.354
103.9258 1.406
103.9561 1.615
103.9864 1.458
104.0167 1.146
104.0470 1.406
104.0772 1.146
104.1075 1.302
104.1378 1.302
104.1681 0.833
104.1984 1.823
104.2286 1.406
104.2589 1.094
104.2892 0.781
104.3195 0.990
104.3497 1.458
104.3800 1.875
104.4103 1.302
104.4406 1.562
104.4709 1.562
104.5011 0.833
104.5314 1.354
104.5617 0.990
104.5920 0.990
104.6223 0.885
104.6525 0.833
104.6828 1.406
104.7131 1.302
104.7434 0.833
104.7736 1.146
104.8039 0.677
104.8342 0.990
104.8645 0.573
104.8948 0.990
104.9250 0.729
104.9553 0.937
104.9856 0.729
105.0159 0.625
105.0462 0.937
105.0764 1.250
105.1067 0.677
105.1370 1.198
105.1673 0.833
105.1975 0.833
105.2278 0.885
105.2581 0.833
105.2884 0.729
105.3187 0.833
105.3489 1.094
105.3792 0.937
105.4095 0.573
105.4398 0.885
105.4701 0.990
105.5003 0.833
105.5306 0.885
105.5609 0.521
105.5912 0.885
105.6215 0.990
105.6517 0.781
105.6820 0.573
105.7123 0.833
105.7426 0.990
105.7728 0.833
105.8031 0.625
105.8334 0.990
105.8637 0.729
105.8940 0.885
105.9242 0.885
105.9545 1.094
105.9848 0.990
106.0151 1.146
106.0454 1.094
106.0756 0.885
106.1059 0.937
106.1362 1.042
106.1665 0.729
106.1967 0.625
106.2270 0.990
106.2573 0.833
106.2876 0.729
106.3179 1.042
106.3481 0.833
106.3784 0.833
106.4087 0.729
106.4390 1.146
106.4693 0.625
106.4995 1.042
106.5298 0.625
106.5601 0.833
106.5904 1.198
106.6206 0.937
106.6509 0.885
106.6812 0.990
106.7115 0.625
106.7418 0.729
106.7720 1.042
106.8023 0.990
106.8326 0.990
106.8629 0.729
106.8932 0.885
106.9234 0.677
106.9537 0.573
106.9840 0.729
107.0143 1.146
107.0445 0.885
107.0748 0.937
107.1051 0.573
107.1354 0.521
107.1657 0.573
107.1959 1.094
107.2262 0.885
107.2565 0.625
107.2868 0.677
107.3171 0.885
107.3473 0.833
107.3776 0.990
107.4079 0.521
107.4382 0.990
107.4684 0.781
107.4987 0.781
107.5290 0.833
107.5593 0.521
107.5896 0.833
107.6198 0.469
107.6501 0.781
107.6804 0.625
107.7107 0.677
107.7410 0.729
107.7712 0.625
107.8015 1.406
107.8318 1.198
107.8621 0.833
107.8923 0.833
107.9226 1.146
107.9529 0.990
107.9832 0.521
108.0135 0.833
108.0437 0.521
108.0740 0.937
108.1043 0.885
108.1346 0.573
108.1649 0.885
108.1951 0.990
108.2254 0.990
108.2557 0.417
108.2860 0.625
108.3163 1.094
108.3465 0.833
108.3768 1.094
108.4071 1.042
108.4374 0.833
108.4676 0.885
108.4979 0.833
108.5282 0.990
108.5585 0.677
108.5888 0.625
108.6190 0.521
108.6493 0.677
108.6796 0.729
108.7099 1.250
108.7402 0.469
108.7704 0.729
108.8007 0.573
108.8310 0.729
108.8613 0.781
108.8915 1.042
108.9218 0.781
108.9521 0.625
108.9824 0.885
109.0127 0.781
109.0429 0.781
109.0732 0.937
109.1035 0.937
109.1338 0.677
109.1641 0.937
109.1943 0.885
109.2246 0.677
109.2549 0.937
109.2852 0.729
109.3154 0.885
109.3457 0.937
109.3760 0.937
109.4063 0.573
109.4366 0.625
109.4668 0.312
109.4971 0.677
109.5274 0.937
109.5577 0.677
109.5880 1.198
109.6182 0.781
109.6485 0.677
109.6788 0.885
109.7091 1.250
109.7393 1.094
109.7696 0.937
109.7999 0.729
109.8302 1.250
109.8605 1.250
109.8907 0.937
109.9210 0.937
109.9513 1.250
109.9816 0.833
110.0119 0.312
110.0421 0.781
110.0724 0.781
110.1027 0.781
110.1330 1.094
110.1632 1.198
110.1935 1.354
110.2238 0.781
110.2541 1.250
110.2844 1.510
110.3146 1.042
110.3449 0.937
110.3752 0.729
110.4055 0.937
110.4358 0.990
110.4660 1.042
110.4963 0.521
110.5266 1.458
110.5569 1.302
110.5871 0.729
110.6174 0.937
110.6477 0.833
110.6780 0.781
110.7083 0.677
110.7385 0.937
110.7688 0.781
110.7991 0.469
110.8294 0.625
110.8597 0.885
110.8899 1.146
110.9202 0.833
110.9505 0.521
110.9808 1.302
111.0110 0.781
111.0413 0.729
111.0716 1.302
111.1019 0.781
111.1322 0.677
111.1624 0.781
111.1927 0.677
111.2230 1.146
111.2533 0.729
111.2836 0.990
111.3138 0.625
111.3441 0.729
111.3744 1.042
111.4047 0.937
111.4350 0.833
111.4652 0.990
111.4955 0.833
111.5258 0.885
111.5561 0.833
111.5863 0.833
111.6166 0.573
111.6469 0.625
111.6772 0.521
111.7075 0.677
111.7377 0.781
111.7680 0.573
111.7983 1.094
111.8286 0.937
111.8589 0.885
111.8891 0.521
111.9194 0.781
111.9497 0.625
111.9800 0.625
112.0102 0.781
112.0405 0.833
112.0708 0.990
112.1011 0.833
112.1314 0.990
112.1616 0.573
112.1919 0.990
112.2222 0.729
112.2525 0.833
112.2828 1.094
112.3130 0.677
112.3433 0.677
112.3736 0.781
112.4039 1.042
112.4341 1.146
112.4644 0.573
112.4947 0.833
112.5250 0.833
112.5553 0.781
112.5855 1.146
112.6158 0.677
112.6461 0.729
112.6764 0.833
112.7067 0.781
112.7369 0.521
112.7672 0.365
112.7975 1.146
112.8278 0.625
112.8580 0.729
112.8883 1.042
112.9186 0.833
112.9489 0.990
112.9792 0.677
113.0094 0.677
113.0397 0.833
113.0700 0.990
113.1003 0.937
113.1306 1.146
113.1608 0.573
113.1911 0.417
113.2214 1.042
113.2517 0.937
113.2819 0.781
113.3122 0.677
113.3425 0.990
113.3728 0.990
113.4031 0.625
113.4333 0.729
113.4636 0.625
113.4939 0.573
113.5242 0.781
113.5545 0.781
113.5847 0.677
113.6150 0.625
113.6453 1.042
113.6756 0.833
113.7058 1.094
113.7361 0.937
113.7664 1.250
113.7967 0.990
113.8270 0.781
113.8572 0.729
113.8875 0.937
113.9178 1.042
113.9481 0.833
113.9784 0.990
114.0086 1.042
114.0389 0.417
114.0692 1.042
114.0995 1.198
114.1298 1.094
114.1600 0.781
114.1903 0.833
114.2206 0.937
114.2509 0.729
114.2811 0.885
114.3114 0.781
114.3417 0.625
114.3720 0.677
114.4023 0.677
114.4325 1.094
114.4628 1.042
114.4931 1.042
114.5234 1.198
114.5537 0.729
114.5839 0.625
114.6142 0.833
114.6445 0.417
114.6748 1.458
114.7050 0.625
114.7353 0.990
114.7656 0.990
114.7959 0.625
114.8262 0.677
114.8564 1.406
114.8867 0.833
114.9170 1.406
114.9473 1.250
114.9776 0.573
115.0078 0.990
115.0381 1.302
115.0684 1.146
115.0987 0.573
115.1289 1.042
115.1592 1.458
115.1895 1.458
115.2198 1.146
115.2501 1.250
115.2803 1.094
115.3106 0.833
115.3409 1.094
115.3712 0.677
115.4015 0.833
115.4317 1.042
115.4620 0.625
115.4923 1.146
115.5226 1.146
115.5528 0.937
115.5831 1.146
115.6134 1.250
115.6437 0.729
115.6740 1.146
115.7042 0.885
115.7345 1.042
115.7648 0.990
115.7951 1.094
115.8254 1.146
115.8556 0.990
115.8859 1.667
115.9162 1.094
115.9465 1.146
115.9767 1.510
116.0070 0.885
116.0373 1.406
116.0676 1.250
116.0979 1.198
116.1281 1.146
116.1584 1.198
116.1887 1.302
116.2190 1.198
116.2493 1.146
116.2795 1.250
116.3098 1.406
116.3401 1.198
116.3704 1.302
116.4006 1.719
116.4309 1.198
116.4612 1.094
116.4915 1.198
116.5218 1.771
116.5520 1.302
116.5823 1.354
116.6126 1.458
116.6429 1.875
116.6732 1.458
116.7034 1.250
116.7337 1.458
116.7640 1.094
116.7943 1.250
116.8245 0.885
116.8548 0.885
116.8851 1.771
116.9154 1.146
116.9457 1.250
116.9759 1.250
117.0062 1.406
117.0365 1.094
117.0668 0.885
117.0971 1.250
117.1273 0.990
117.1576 0.781
117.1879 0.833
117.2182 1.146
117.2485 0.833
117.2787 1.042
117.3090 1.198
117.3393 0.781
117.3696 0.833
117.3998 1.094
117.4301 1.354
117.4604 0.885
117.4907 1.198
117.5210 1.406
117.5512 0.781
117.5815 1.250
117.6118 1.042
117.6421 0.521
117.6724 0.885
117.7026 0.417
117.7329 0.781
117.7632 1.042
117.7935 1.094
117.8237 0.521
117.8540 1.146
117.8843 0.833
117.9146 0.833
117.9449 0.885
117.9751 0.833
118.0054 0.625
118.0357 0.885
118.0660 0.729
118.0963 0.885
118.1265 0.781
118.1568 0.937
118.1871 0.677
118.2174 0.885
118.2476 0.990
118.2779 0.781
118.3082 0.781
118.3385 0.990
118.3688 0.781
118.3990 0.833
118.4293 0.521
118.4596 0.729
118.4899 0.729
118.5202 0.677
118.5504 0.885
118.5807 0.729
118.6110 0.625
118.6413 0.573
118.6715 0.937
118.7018 0.990
118.7321 0.417
118.7624 0.521
118.7927 1.042
118.8229 0.885
118.8532 1.250
118.8835 1.042
118.9138 0.833
118.9441 1.042
118.9743 0.937
119.0046 1.198
119.0349 0.937
119.0652 0.885
119.0954 0.833
119.1257 0.781
119.1560 0.729
119.1863 1.302
119.2166 0.937
119.2468 0.729
119.2771 1.042
119.3074 0.885
119.3377 0.625
119.3680 0.677
119.3982 0.781
119.4285 0.677
119.4588 0.469
119.4891 0.833
119.5193 0.417
119.5496 0.781
119.5799 1.198
119.6102 0.677
119.6405 1.302
119.6707 0.573
119.7010 0.990
119.7313 1.042
119.7616 0.990
119.7919 1.250
119.8221 0.833
119.8524 0.677
119.8827 0.833
119.9130 0.885
119.9433 0.521
119.9735 0.833
120.0038 0.729
