'Id: "" Comment: "" Operator: "Lab Manager" Anode: "Cu" Scantype: "Locked Coupled" TimePerStep: "19.2" X: "9999" Y: "9999" Z: "9999" 
10.0015 120.625
10.0318 119.896
10.0620 123.750
10.0923 125.365
10.1226 130.156
10.1529 126.198
10.1832 138.333
10.2134 135.052
10.2437 136.771
10.2740 143.854
10.3043 153.281
10.3346 153.646
10.3648 153.802
10.3951 147.031
10.4254 159.896
10.4557 155.000
10.4859 161.771
10.5162 163.021
10.5465 165.312
10.5768 172.708
10.6071 170.937
10.6373 168.802
10.6676 172.031
10.6979 173.125
10.7282 169.167
10.7585 171.302
10.7887 174.687
10.8190 174.479
10.8493 171.719
10.8796 165.781
10.9098 162.135
10.9401 156.198
10.9704 158.490
11.0007 159.635
11.0310 159.323
11.0612 149.271
11.0915 148.958
11.1218 146.562
11.1521 140.104
11.1824 144.687
11.2126 130.833
11.2429 127.500
11.2732 128.542
11.3035 121.406
11.3337 122.240
11.3640 119.948
11.3943 119.271
11.4246 114.115
11.4549 108.750
11.4851 110.052
11.5154 108.802
11.5457 101.510
11.5760 100.312
11.6063 96.667
11.6365 98.125
11.6668 94.167
11.6971 93.281
11.7274 95.208
11.7577 93.646
11.7879 90.156
11.8182 88.958
11.8485 86.406
11.8788 85.573
11.9090 86.198
11.9393 84.948
11.9696 85.781
11.9999 88.854
12.0302 82.552
12.0604 85.781
12.0907 82.448
12.1210 87.344
12.1513 82.760
12.1816 81.562
12.2118 84.427
12.2421 80.625
12.2724 74.219
12.3027 73.021
12.3329 71.615
12.3632 63.750
12.3935 62.604
12.4238 58.073
12.4541 59.844
12.4843 53.542
12.5146 51.302
12.5449 53.177
12.5752 49.010
12.6055 51.094
12.6357 46.250
12.6660 46.094
12.6963 46.510
12.7266 44.740
12.7568 43.437
12.7871 42.656
12.8174 44.844
12.8477 42.187
12.8780 42.083
12.9082 39.219
12.9385 38.437
12.9688 37.865
12.9991 40.000
13.0294 36.042
13.0596 38.437
13.0899 34.427
13.1202 36.250
13.1505 34.375
13.1807 36.875
13.2110 35.052
13.2413 34.792
13.2716 36.615
13.3019 35.365
13.3321 35.937
13.3624 31.979
13.3927 35.156
13.4230 32.865
13.4533 32.760
13.4835 31.562
13.5138 33.437
13.5441 30.365
13.5744 29.948
13.6046 28.854
13.6349 31.823
13.6652 29.635
13.6955 30.156
13.7258 30.260
13.7560 30.417
13.7863 28.021
13.8166 28.594
13.8469 30.885
13.8772 29.583
13.9074 29.948
13.9377 32.240
13.9680 28.594
13.9983 28.125
14.0285 27.969
14.0588 26.875
14.0891 28.594
14.1194 27.500
14.1497 28.333
14.1799 26.771
14.2102 26.771
14.2405 23.229
14.2708 27.812
14.3011 26.875
14.3313 23.698
14.3616 22.083
14.3919 25.312
14.4222 26.615
14.4524 24.583
14.4827 25.885
14.5130 24.323
14.5433 23.854
14.5736 24.427
14.6038 23.542
14.6341 24.687
14.6644 25.156
14.6947 23.385
14.7250 22.552
14.7552 23.177
14.7855 22.812
14.8158 23.073
14.8461 22.500
14.8764 22.969
14.9066 23.750
14.9369 21.094
14.9672 22.500
14.9975 22.083
15.0277 24.271
15.0580 22.135
15.0883 22.396
15.1186 24.271
15.1489 21.510
15.1791 23.229
15.2094 21.562
15.2397 21.615
15.2700 20.677
15.3003 21.562
15.3305 21.042
15.3608 22.448
15.3911 21.927
15.4214 20.937
15.4516 22.656
15.4819 24.010
15.5122 20.729
15.5425 19.219
15.5728 21.302
15.6030 23.229
15.6333 23.229
15.6636 20.990
15.6939 20.937
15.7242 19.167
15.7544 20.417
15.7847 19.687
15.8150 21.719
15.8453 20.260
15.8755 19.740
15.9058 18.542
15.9361 19.115
15.9664 20.052
15.9967 19.167
16.0269 19.687
16.0572 18.802
16.0875 18.021
16.1178 16.146
16.1481 18.490
16.1783 17.865
16.2086 17.500
16.2389 17.396
16.2692 17.344
16.2994 18.385
16.3297 18.125
16.3600 18.437
16.3903 15.833
16.4206 16.510
16.4508 16.146
16.4811 16.823
16.5114 15.833
16.5417 16.094
16.5720 15.312
16.6022 15.573
16.6325 14.167
16.6628 15.521
16.6931 13.021
16.7233 15.104
16.7536 15.417
16.7839 13.646
16.8142 15.312
16.8445 13.229
16.8747 13.385
16.9050 15.937
16.9353 11.719
16.9656 14.375
16.9959 15.417
17.0261 12.969
17.0564 13.958
17.0867 12.500
17.1170 13.177
17.1472 12.240
17.1775 11.667
17.2078 13.385
17.2381 13.229
17.2684 13.698
17.2986 13.177
17.3289 12.292
17.3592 12.812
17.3895 11.719
17.4198 13.594
17.4500 13.073
17.4803 14.792
17.5106 12.135
17.5409 12.240
17.5712 12.969
17.6014 12.969
17.6317 11.615
17.6620 12.708
17.6923 13.021
17.7225 11.979
17.7528 12.917
17.7831 13.281
17.8134 11.094
17.8437 12.552
17.8739 11.823
17.9042 13.125
17.9345 14.427
17.9648 12.917
17.9951 13.698
18.0253 13.229
18.0556 12.708
18.0859 12.500
18.1162 14.167
18.1464 13.333
18.1767 11.979
18.2070 13.542
18.2373 13.281
18.2676 11.927
18.2978 13.594
18.3281 15.625
18.3584 12.917
18.3887 15.156
18.4190 14.948
18.4492 13.646
18.4795 15.260
18.5098 14.687
18.5401 15.937
18.5703 14.375
18.6006 14.687
18.6309 14.427
18.6612 14.792
18.6915 15.729
18.7217 15.573
18.7520 15.885
18.7823 16.250
18.8126 16.823
18.8429 16.979
18.8731 16.719
18.9034 14.219
18.9337 14.167
18.9640 15.781
18.9942 14.427
19.0245 15.208
19.0548 13.229
19.0851 12.552
19.1154 13.437
19.1456 14.427
19.1759 13.437
19.2062 13.333
19.2365 11.458
19.2668 11.458
19.2970 10.729
19.3273 11.406
19.3576 11.146
19.3879 10.156
19.4181 11.250
19.4484 10.156
19.4787 11.615
19.5090 9.583
19.5393 9.687
19.5695 10.156
19.5998 9.219
19.6301 9.010
19.6604 9.531
19.6907 8.542
19.7209 10.781
19.7512 10.677
19.7815 9.115
19.8118 9.323
19.8420 9.479
19.8723 8.698
19.9026 9.531
19.9329 8.906
19.9632 7.917
19.9934 7.917
20.0237 8.750
20.0540 8.594
20.0843 7.656
20.1146 9.687
20.1448 7.708
20.1751 7.656
20.2054 7.448
20.2357 7.552
20.2659 7.969
20.2962 8.177
20.3265 7.604
20.3568 7.604
20.3871 7.292
20.4173 6.250
20.4476 7.083
20.4779 6.927
20.5082 7.344
20.5385 7.656
20.5687 6.667
20.5990 6.302
20.6293 7.240
20.6596 6.667
20.6899 6.198
20.7201 6.927
20.7504 7.969
20.7807 7.031
20.8110 6.719
20.8412 7.917
20.8715 5.990
20.9018 6.667
20.9321 7.708
20.9624 7.760
20.9926 7.135
21.0229 7.083
21.0532 7.240
21.0835 6.823
21.1138 7.083
21.1440 7.187
21.1743 7.135
21.2046 7.344
21.2349 8.333
21.2651 6.615
21.2954 7.396
21.3257 8.594
21.3560 7.552
21.3863 7.344
21.4165 6.406
21.4468 6.615
21.4771 7.135
21.5074 6.719
21.5377 7.656
21.5679 7.344
21.5982 7.708
21.6285 8.125
21.6588 7.031
21.6890 7.396
21.7193 8.646
21.7496 6.771
21.7799 7.760
21.8102 7.552
21.8404 7.552
21.8707 7.812
21.9010 6.042
21.9313 7.083
21.9616 7.500
21.9918 7.760
22.0221 7.865
22.0524 7.344
22.0827 8.698
22.1129 7.031
22.1432 7.187
22.1735 6.823
22.2038 7.344
22.2341 6.719
22.2643 6.823
22.2946 7.969
22.3249 7.344
22.3552 8.177
22.3855 7.396
22.4157 8.594
22.4460 7.760
22.4763 7.760
22.5066 7.031
22.5368 7.083
22.5671 7.552
22.5974 8.125
22.6277 6.823
22.6580 7.135
22.6882 7.292
22.7185 7.083
22.7488 6.719
22.7791 6.667
22.8094 6.927
22.8396 7.187
22.8699 8.073
22.9002 6.719
22.9305 8.594
22.9607 8.229
22.9910 7.187
23.0213 8.802
23.0516 8.021
23.0819 9.323
23.1121 7.448
23.1424 8.229
23.1727 8.437
23.2030 8.177
23.2333 9.219
23.2635 8.490
23.2938 8.542
23.3241 7.708
23.3544 9.792
23.3846 8.229
23.4149 7.917
23.4452 8.698
23.4755 9.740
23.5058 7.917
23.5360 9.740
23.5663 10.208
23.5966 9.115
23.6269 9.115
23.6572 11.042
23.6874 9.062
23.7177 10.833
23.7480 8.906
23.7783 10.677
23.8086 10.885
23.8388 10.521
23.8691 10.417
23.8994 10.260
23.9297 11.406
23.9599 10.573
23.9902 11.615
24.0205 11.250
24.0508 11.042
24.0811 10.677
24.1113 11.875
24.1416 12.344
24.1719 12.865
24.2022 11.979
24.2325 12.656
24.2627 13.906
24.2930 13.802
24.3233 14.323
24.3536 14.844
24.3838 14.635
24.4141 17.083
24.4444 18.333
24.4747 16.562
24.5050 17.656
24.5352 17.187
24.5655 20.312
24.5958 19.219
24.6261 21.667
24.6564 21.771
24.6866 24.740
24.7169 25.260
24.7472 27.031
24.7775 27.083
24.8077 28.906
24.8380 28.281
24.8683 26.771
24.8986 26.302
24.9289 26.927
24.9591 26.615
24.9894 24.271
25.0197 24.167
25.0500 22.552
25.0803 23.125
25.1105 20.885
25.1408 21.354
25.1711 19.583
25.2014 19.427
25.2316 19.115
25.2619 18.646
25.2922 19.219
25.3225 20.885
25.3528 19.115
25.3830 19.271
25.4133 19.740
25.4436 20.521
25.4739 19.531
25.5042 18.854
25.5344 17.500
25.5647 18.229
25.5950 19.167
25.6253 20.260
25.6555 19.479
25.6858 19.531
25.7161 20.312
25.7464 18.333
25.7767 18.646
25.8069 18.958
25.8372 20.156
25.8675 21.042
25.8978 17.187
25.9281 18.854
25.9583 17.865
25.9886 19.115
26.0189 18.490
26.0492 19.740
26.0794 19.635
26.1097 19.583
26.1400 18.281
26.1703 18.854
26.2006 18.906
26.2308 20.000
26.2611 16.302
26.2914 20.260
26.3217 18.177
26.3520 16.667
26.3822 18.958
26.4125 20.260
26.4428 17.500
26.4731 16.510
26.5034 17.083
26.5336 19.323
26.5639 17.187
26.5942 16.510
26.6245 19.062
26.6547 18.854
26.6850 18.906
26.7153 17.135
26.7456 18.073
26.7759 17.396
26.8061 17.969
26.8364 18.073
26.8667 19.323
26.8970 18.229
26.9273 19.219
26.9575 18.698
26.9878 18.750
27.0181 19.062
27.0484 17.917
27.0786 20.156
27.1089 17.292
27.1392 19.687
27.1695 19.740
27.1998 21.094
27.2300 19.740
27.2603 19.531
27.2906 19.844
27.3209 21.250
27.3512 22.604
27.3814 23.333
27.4117 23.385
27.4420 23.594
27.4723 22.552
27.5025 23.698
27.5328 24.271
27.5631 24.427
27.5934 23.385
27.6237 24.844
27.6539 25.208
27.6842 26.198
27.7145 23.594
27.7448 26.094
27.7751 25.990
27.8053 25.417
27.8356 25.469
27.8659 25.052
27.8962 26.510
27.9264 24.531
27.9567 25.729
27.9870 22.031
28.0173 25.104
28.0476 23.750
28.0778 24.479
28.1081 22.760
28.1384 23.125
28.1687 23.854
28.1990 21.094
28.2292 22.292
28.2595 20.885
28.2898 22.083
28.3201 23.229
28.3503 21.198
28.3806 20.781
28.4109 20.312
28.4412 20.833
28.4715 19.635
28.5017 20.573
28.5320 20.937
28.5623 18.594
28.5926 18.333
28.6229 20.000
28.6531 18.854
28.6834 19.115
28.7137 17.604
28.7440 16.771
28.7742 17.552
28.8045 15.052
28.8348 18.594
28.8651 16.094
28.8954 14.427
28.9256 16.510
28.9559 14.687
28.9862 14.167
29.0165 14.167
29.0468 14.010
29.0770 12.865
29.1073 13.490
29.1376 14.531
29.1679 14.167
29.1981 13.073
29.2284 13.385
29.2587 13.385
29.2890 11.250
29.3193 12.187
29.3495 11.875
29.3798 10.885
29.4101 12.448
29.4404 11.094
29.4707 11.406
29.5009 10.469
29.5312 11.094
29.5615 11.302
29.5918 12.031
29.6221 10.885
29.6523 11.615
29.6826 10.625
29.7129 10.312
29.7432 11.510
29.7734 10.417
29.8037 10.469
29.8340 9.792
29.8643 10.521
29.8946 9.635
29.9248 9.115
29.9551 8.490
29.9854 9.792
30.0157 7.760
30.0460 9.062
30.0762 8.854
30.1065 8.854
30.1368 8.594
30.1671 8.750
30.1973 7.917
30.2276 8.542
30.2579 7.969
30.2882 7.448
30.3185 8.958
30.3487 7.708
30.3790 7.187
30.4093 7.292
30.4396 9.271
30.4699 7.812
30.5001 8.229
30.5304 7.917
30.5607 7.604
30.5910 6.615
30.6212 7.865
30.6515 9.010
30.6818 7.552
30.7121 6.979
30.7424 7.500
30.7726 7.187
30.8029 8.281
30.8332 6.615
30.8635 6.979
30.8938 6.927
30.9240 6.146
30.9543 7.604
30.9846 6.927
31.0149 6.719
31.0451 7.135
31.0754 7.448
31.1057 7.500
31.1360 7.240
31.1663 6.719
31.1965 7.552
31.2268 6.719
31.2571 7.240
31.2874 6.406
31.3177 8.177
31.3479 7.500
31.3782 6.510
31.4085 7.760
31.4388 6.562
31.4690 7.344
31.4993 6.875
31.5296 6.979
31.5599 6.719
31.5902 7.083
31.6204 7.292
31.6507 6.510
31.6810 6.094
31.7113 6.458
31.7416 6.719
31.7718 7.240
31.8021 6.823
31.8324 5.469
31.8627 6.354
31.8929 7.969
31.9232 5.833
31.9535 6.042
31.9838 6.458
32.0141 5.990
32.0443 6.667
32.0746 5.885
32.1049 5.781
32.1352 6.302
32.1655 5.781
32.1957 5.573
32.2260 7.135
32.2563 6.510
32.2866 5.677
32.3169 5.365
32.3471 7.031
32.3774 7.396
32.4077 6.042
32.4380 6.615
32.4682 7.135
32.4985 6.458
32.5288 8.594
32.5591 7.031
32.5894 8.802
32.6196 8.906
32.6499 9.635
32.6802 10.729
32.7105 9.583
32.7408 10.052
32.7710 10.677
32.8013 8.958
32.8316 9.844
32.8619 8.594
32.8921 9.167
32.9224 9.062
32.9527 8.073
32.9830 7.656
33.0133 8.125
33.0435 7.969
33.0738 8.437
33.1041 6.875
33.1344 7.604
33.1647 6.042
33.1949 7.187
33.2252 7.656
33.2555 7.031
33.2858 7.708
33.3160 6.094
33.3463 6.406
33.3766 6.458
33.4069 6.771
33.4372 5.781
33.4674 6.927
33.4977 5.625
33.5280 6.979
33.5583 5.990
33.5886 5.781
33.6188 6.823
33.6491 5.885
33.6794 5.573
33.7097 5.260
33.7399 6.875
33.7702 5.885
33.8005 4.792
33.8308 6.094
33.8611 5.521
33.8913 5.781
33.9216 6.458
33.9519 7.083
33.9822 5.781
34.0125 5.781
34.0427 5.885
34.0730 5.573
34.1033 6.667
34.1336 6.719
34.1638 4.948
34.1941 5.937
34.2244 6.979
34.2547 5.885
34.2850 6.719
34.3152 7.083
34.3455 6.615
34.3758 5.521
34.4061 6.719
34.4364 7.187
34.4666 6.406
34.4969 6.823
34.5272 6.146
34.5575 6.458
34.5877 5.781
34.6180 7.135
34.6483 6.771
34.6786 7.083
34.7089 6.667
34.7391 6.719
34.7694 7.031
34.7997 6.615
34.8300 7.135
34.8603 7.135
34.8905 6.250
34.9208 6.771
34.9511 6.823
34.9814 6.094
35.0116 6.146
35.0419 7.031
35.0722 6.823
35.1025 5.729
35.1328 7.604
35.1630 7.448
35.1933 6.406
35.2236 6.042
35.2539 5.260
35.2842 6.302
35.3144 6.562
35.3447 6.562
35.3750 6.615
35.4053 5.990
35.4356 6.198
35.4658 7.448
35.4961 7.448
35.5264 8.177
35.5567 7.500
35.5869 7.500
35.6172 7.031
35.6475 7.344
35.6778 7.083
35.7081 7.240
35.7383 7.917
35.7686 6.927
35.7989 7.083
35.8292 6.562
35.8595 6.198
35.8897 6.615
35.9200 7.552
35.9503 6.667
35.9806 7.917
36.0108 7.969
36.0411 7.135
36.0714 6.406
36.1017 6.979
36.1320 7.083
36.1622 6.146
36.1925 6.354
36.2228 7.135
36.2531 6.562
36.2834 7.240
36.3136 6.302
36.3439 6.354
36.3742 5.990
36.4045 6.094
36.4347 8.229
36.4650 5.312
36.4953 6.302
36.5256 6.094
36.5559 5.885
36.5861 6.510
36.6164 6.719
36.6467 6.302
36.6770 6.042
36.7073 5.781
36.7375 6.198
36.7678 5.365
36.7981 6.250
36.8284 5.885
36.8586 7.240
36.8889 5.208
36.9192 6.302
36.9495 5.208
36.9798 5.156
37.0100 5.156
37.0403 5.625
37.0706 5.208
37.1009 5.937
37.1312 5.573
37.1614 5.729
37.1917 5.833
37.2220 6.354
37.2523 5.885
37.2825 7.187
37.3128 5.469
37.3431 6.146
37.3734 5.156
37.4037 6.198
37.4339 5.260
37.4642 6.406
37.4945 6.615
37.5248 5.833
37.5551 5.990
37.5853 5.312
37.6156 5.521
37.6459 6.406
37.6762 6.250
37.7064 6.146
37.7367 7.240
37.7670 5.937
37.7973 6.146
37.8276 5.052
37.8578 5.208
37.8881 4.948
37.9184 5.365
37.9487 6.042
37.9790 5.781
38.0092 5.208
38.0395 5.677
38.0698 5.260
38.1001 5.052
38.1304 5.937
38.1606 5.885
38.1909 7.083
38.2212 5.260
38.2515 6.719
38.2817 4.427
38.3120 4.635
38.3423 4.844
38.3726 5.781
38.4029 5.104
38.4331 4.687
38.4634 5.781
38.4937 6.354
38.5240 4.375
38.5543 5.521
38.5845 4.896
38.6148 4.844
38.6451 5.000
38.6754 5.990
38.7056 5.208
38.7359 5.677
38.7662 5.365
38.7965 5.625
38.8268 5.260
38.8570 5.417
38.8873 4.479
38.9176 5.052
38.9479 5.260
38.9782 4.479
39.0084 4.635
39.0387 3.854
39.0690 5.260
39.0993 5.208
39.1295 4.583
39.1598 4.479
39.1901 4.792
39.2204 5.208
39.2507 4.948
39.2809 4.167
39.3112 4.687
39.3415 5.208
39.3718 4.635
39.4021 4.427
39.4323 5.521
39.4626 4.531
39.4929 4.271
39.5232 3.802
39.5534 4.427
39.5837 4.740
39.6140 4.792
39.6443 5.000
39.6746 3.958
39.7048 3.906
39.7351 4.323
39.7654 4.115
39.7957 4.896
39.8260 4.219
39.8562 3.958
39.8865 4.375
39.9168 3.906
39.9471 4.687
39.9773 4.375
40.0076 4.479
40.0379 2.969
40.0682 3.490
40.0985 3.073
40.1287 5.000
40.1590 3.906
40.1893 4.635
40.2196 4.479
40.2499 3.594
40.2801 4.375
40.3104 4.375
40.3407 3.646
40.3710 3.490
40.4012 4.740
40.4315 3.437
40.4618 4.271
40.4921 4.375
40.5224 3.906
40.5526 4.427
40.5829 4.844
40.6132 4.375
40.6435 3.385
40.6738 3.750
40.7040 3.854
40.7343 4.375
40.7646 4.792
40.7949 3.437
40.8251 4.271
40.8554 3.958
40.8857 4.687
40.9160 4.010
40.9463 3.906
40.9765 3.490
41.0068 4.635
41.0371 4.375
41.0674 4.167
41.0977 4.219
41.1279 3.490
41.1582 5.156
41.1885 4.323
41.2188 4.844
41.2491 4.896
41.2793 5.417
41.3096 4.062
41.3399 4.635
41.3702 3.802
41.4004 4.687
41.4307 4.427
41.4610 4.740
41.4913 5.677
41.5216 5.260
41.5518 5.260
41.5821 5.469
41.6124 4.375
41.6427 3.646
41.6730 4.792
41.7032 4.792
41.7335 4.219
41.7638 5.417
41.7941 4.740
41.8243 4.896
41.8546 4.323
41.8849 4.531
41.9152 5.521
41.9455 4.010
41.9757 3.958
42.0060 4.948
42.0363 4.844
42.0666 4.740
42.0969 5.000
42.1271 3.854
42.1574 4.271
42.1877 4.375
42.2180 4.896
42.2482 4.323
42.2785 4.323
42.3088 3.490
42.3391 4.740
42.3694 3.906
42.3996 4.010
42.4299 3.490
42.4602 4.792
42.4905 4.167
42.5208 4.792
42.5510 4.375
42.5813 4.531
42.6116 4.583
42.6419 4.219
42.6721 3.750
42.7024 3.698
42.7327 3.490
42.7630 3.490
42.7933 3.594
42.8235 3.906
42.8538 4.010
42.8841 3.802
42.9144 3.333
42.9447 4.323
42.9749 3.490
43.0052 3.802
43.0355 3.958
43.0658 4.219
43.0960 4.792
43.1263 3.906
43.1566 3.906
43.1869 3.646
43.2172 3.490
43.2474 4.479
43.2777 4.635
43.3080 4.062
43.3383 3.958
43.3686 2.969
43.3988 3.698
43.4291 4.010
43.4594 3.594
43.4897 2.969
43.5199 3.437
43.5502 3.542
43.5805 5.000
43.6108 3.750
43.6411 3.854
43.6713 4.583
43.7016 3.854
43.7319 4.323
43.7622 3.906
43.7925 4.010
43.8227 3.177
43.8530 3.542
43.8833 3.542
43.9136 3.229
43.9439 3.802
43.9741 3.385
44.0044 3.802
44.0347 2.969
44.0650 4.219
44.0952 3.437
44.1255 3.802
44.1558 3.958
44.1861 3.073
44.2164 4.062
44.2466 3.333
44.2769 4.010
44.3072 4.635
44.3375 3.594
44.3678 3.437
44.3980 4.740
44.4283 3.906
44.4586 3.906
44.4889 4.219
44.5191 4.271
44.5494 4.427
44.5797 3.437
44.6100 3.333
44.6403 3.229
44.6705 3.854
44.7008 5.156
44.7311 3.125
44.7614 4.271
44.7917 4.010
44.8219 3.802
44.8522 4.167
44.8825 3.594
44.9128 3.750
44.9430 3.958
44.9733 3.281
45.0036 3.698
45.0339 3.490
45.0642 3.906
45.0944 4.583
45.1247 3.750
45.1550 3.646
45.1853 3.802
45.2156 3.750
45.2458 4.167
45.2761 3.698
45.3064 3.594
45.3367 4.271
45.3669 4.375
45.3972 4.687
45.4275 4.323
45.4578 4.479
45.4881 3.333
45.5183 3.750
45.5486 3.802
45.5789 3.958
45.6092 4.062
45.6395 3.958
45.6697 4.062
45.7000 4.219
45.7303 4.115
45.7606 4.323
45.7908 3.802
45.8211 4.479
45.8514 3.490
45.8817 3.698
45.9120 3.125
45.9422 3.802
45.9725 4.115
46.0028 4.062
46.0331 4.792
46.0634 4.219
46.0936 2.969
46.1239 4.531
46.1542 3.281
46.1845 3.958
46.2147 3.750
46.2450 2.708
46.2753 4.323
46.3056 3.802
46.3359 4.115
46.3661 4.062
46.3964 3.594
46.4267 4.167
46.4570 4.323
46.4873 3.437
46.5175 4.271
46.5478 3.281
46.5781 4.271
46.6084 4.427
46.6386 3.385
46.6689 4.375
46.6992 3.802
46.7295 3.802
46.7598 3.854
46.7900 4.219
46.8203 4.427
46.8506 3.854
46.8809 4.427
46.9112 4.792
46.9414 2.969
46.9717 4.271
47.0020 3.906
47.0323 4.219
47.0626 4.062
47.0928 4.115
47.1231 3.698
47.1534 4.583
47.1837 4.583
47.2139 4.635
47.2442 3.542
47.2745 4.740
47.3048 4.635
47.3351 4.427
47.3653 5.000
47.3956 3.594
47.4259 5.156
47.4562 5.312
47.4865 4.375
47.5167 3.698
47.5470 4.479
47.5773 3.854
47.6076 3.958
47.6378 4.271
47.6681 5.156
47.6984 4.323
47.7287 4.792
47.7590 3.646
47.7892 4.479
47.8195 4.792
47.8498 5.000
47.8801 5.052
47.9104 5.156
47.9406 4.948
47.9709 4.740
48.0012 4.687
48.0315 4.271
48.0617 5.260
48.0920 4.844
48.1223 4.687
48.1526 5.365
48.1829 5.104
48.2131 5.365
48.2434 5.677
48.2737 5.781
48.3040 5.521
48.3343 5.573
48.3645 5.104
48.3948 4.740
48.4251 5.312
48.4554 5.365
48.4856 5.000
48.5159 5.260
48.5462 5.417
48.5765 5.625
48.6068 5.990
48.6370 5.573
48.6673 5.365
48.6976 5.937
48.7279 5.625
48.7582 5.833
48.7884 4.583
48.8187 5.469
48.8490 5.833
48.8793 5.573
48.9095 6.562
48.9398 6.667
48.9701 5.469
49.0004 5.521
49.0307 5.365
49.0609 5.885
49.0912 5.781
49.1215 5.573
49.1518 6.719
49.1821 6.250
49.2123 6.094
49.2426 6.510
49.2729 6.094
49.3032 5.260
49.3334 6.146
49.3637 6.562
49.3940 5.781
49.4243 5.677
49.4546 6.562
49.4848 6.094
49.5151 6.198
49.5454 6.875
49.5757 5.990
49.6060 6.875
49.6362 6.719
49.6665 5.781
49.6968 5.937
49.7271 6.771
49.7574 7.083
49.7876 6.406
49.8179 6.979
49.8482 7.552
49.8785 6.667
49.9087 7.083
49.9390 6.719
49.9693 8.281
49.9996 6.458
50.0299 7.865
50.0601 8.437
50.0904 6.562
50.1207 6.771
50.1510 6.094
50.1813 7.917
50.2115 7.812
50.2418 7.135
50.2721 7.917
50.3024 8.437
50.3326 6.823
50.3629 9.635
50.3932 8.594
50.4235 9.062
50.4538 8.698
50.4840 8.958
50.5143 8.854
50.5446 8.906
50.5749 9.427
50.6052 9.427
50.6354 7.760
50.6657 10.625
50.6960 11.146
50.7263 9.219
50.7565 9.687
50.7868 10.625
50.8171 9.583
50.8474 10.000
50.8777 8.437
50.9079 9.219
50.9382 10.885
50.9685 10.990
50.9988 10.156
51.0291 10.990
51.0593 9.531
51.0896 10.937
51.1199 10.677
51.1502 9.740
51.1804 10.052
51.2107 10.417
51.2410 9.687
51.2713 9.583
51.3016 9.792
51.3318 9.844
51.3621 10.052
51.3924 9.896
51.4227 9.948
51.4530 9.167
51.4832 9.375
51.5135 9.792
51.5438 9.479
51.5741 9.323
51.6043 9.635
51.6346 8.958
51.6649 8.333
51.6952 9.479
51.7255 8.229
51.7557 8.854
51.7860 8.333
51.8163 9.583
51.8466 8.229
51.8769 7.969
51.9071 8.437
51.9374 9.010
51.9677 7.292
51.9980 8.177
52.0282 7.604
52.0585 8.177
52.0888 7.760
52.1191 8.281
52.1494 7.135
52.1796 7.917
52.2099 7.604
52.2402 7.292
52.2705 7.135
52.3008 8.490
52.3310 8.437
52.3613 7.865
52.3916 6.719
52.4219 7.083
52.4521 6.719
52.4824 7.812
52.5127 6.771
52.5430 6.927
52.5733 7.396
52.6035 7.396
52.6338 8.021
52.6641 6.927
52.6944 7.292
52.7247 6.667
52.7549 7.917
52.7852 6.094
52.8155 6.094
52.8458 6.406
52.8761 5.781
52.9063 7.344
52.9366 6.927
52.9669 7.708
52.9972 5.729
53.0274 7.396
53.0577 7.604
53.0880 7.344
53.1183 7.031
53.1486 5.781
53.1788 6.823
53.2091 7.031
53.2394 6.979
53.2697 7.500
53.3000 6.771
53.3302 5.625
53.3605 5.729
53.3908 7.604
53.4211 5.729
53.4513 6.042
53.4816 5.990
53.5119 6.667
53.5422 6.406
53.5725 6.615
53.6027 6.510
53.6330 6.198
53.6633 6.302
53.6936 5.990
53.7239 6.302
53.7541 6.250
53.7844 5.573
53.8147 5.260
53.8450 6.406
53.8752 5.677
53.9055 5.729
53.9358 5.156
53.9661 5.729
53.9964 6.250
54.0266 5.417
54.0569 5.573
54.0872 5.312
54.1175 5.990
54.1478 6.302
54.1780 5.729
54.2083 6.354
54.2386 5.677
54.2689 4.635
54.2991 5.365
54.3294 6.354
54.3597 5.469
54.3900 5.312
54.4203 4.948
54.4505 4.271
54.4808 4.740
54.5111 5.365
54.5414 4.896
54.5717 5.677
54.6019 5.312
54.6322 4.896
54.6625 4.583
54.6928 4.479
54.7230 4.792
54.7533 5.781
54.7836 5.417
54.8139 5.365
54.8442 4.792
54.8744 4.896
54.9047 5.625
54.9350 4.583
54.9653 4.427
54.9956 4.531
55.0258 5.729
55.0561 5.260
55.0864 5.469
55.1167 5.156
55.1469 5.885
55.1772 6.094
55.2075 4.687
55.2378 5.781
55.2681 6.094
55.2983 5.260
55.3286 5.156
55.3589 5.156
55.3892 6.094
55.4195 6.094
55.4497 4.792
55.4800 5.365
55.5103 5.260
55.5406 5.312
55.5709 6.250
55.6011 5.208
55.6314 5.781
55.6617 5.521
55.6920 6.510
55.7222 4.896
55.7525 4.219
55.7828 5.417
55.8131 5.104
55.8434 5.052
55.8736 6.198
55.9039 4.635
55.9342 6.042
55.9645 4.583
55.9948 5.729
56.0250 4.948
56.0553 5.208
56.0856 5.104
56.1159 4.740
56.1461 3.594
56.1764 4.687
56.2067 4.687
56.2370 4.323
56.2673 4.583
56.2975 4.375
56.3278 3.750
56.3581 4.583
56.3884 4.427
56.4187 5.104
56.4489 4.792
56.4792 4.740
56.5095 4.531
56.5398 4.948
56.5700 3.750
56.6003 4.740
56.6306 4.635
56.6609 4.062
56.6912 3.646
56.7214 5.365
56.7517 4.948
56.7820 4.740
56.8123 4.271
56.8426 4.323
56.8728 4.271
56.9031 5.365
56.9334 4.219
56.9637 3.698
56.9939 4.323
57.0242 4.115
57.0545 3.750
57.0848 4.115
57.1151 3.333
57.1453 4.271
57.1756 3.750
57.2059 3.906
57.2362 3.698
57.2665 4.219
57.2967 4.271
57.3270 3.125
57.3573 3.490
57.3876 4.062
57.4178 5.000
57.4481 3.542
57.4784 4.323
57.5087 4.375
57.5390 4.948
57.5692 4.115
57.5995 4.219
57.6298 3.958
57.6601 3.854
57.6904 4.167
57.7206 4.427
57.7509 4.010
57.7812 4.115
57.8115 3.802
57.8417 3.177
57.8720 3.125
57.9023 4.062
57.9326 4.167
57.9629 4.062
57.9931 4.583
58.0234 4.010
58.0537 4.375
58.0840 4.687
58.1143 5.208
58.1445 4.375
58.1748 4.219
58.2051 3.646
58.2354 5.156
58.2656 5.208
58.2959 4.948
58.3262 4.635
58.3565 4.375
58.3868 5.156
58.4170 4.687
58.4473 6.354
58.4776 5.677
58.5079 5.990
58.5382 5.885
58.5684 5.260
58.5987 4.948
58.6290 4.375
58.6593 5.312
58.6896 4.687
58.7198 5.625
58.7501 4.531
58.7804 5.104
58.8107 5.104
58.8409 4.531
58.8712 4.948
58.9015 4.115
58.9318 5.521
58.9621 4.740
58.9923 4.687
59.0226 4.896
59.0529 4.375
59.0832 4.740
59.1135 5.104
59.1437 5.312
59.1740 4.792
59.2043 4.687
59.2346 4.479
59.2648 5.573
59.2951 5.417
59.3254 4.896
59.3557 5.000
59.3860 4.427
59.4162 5.260
59.4465 5.052
59.4768 4.583
59.5071 4.531
59.5374 4.896
59.5676 5.052
59.5979 5.260
59.6282 5.000
59.6585 4.375
59.6887 4.844
59.7190 5.208
59.7493 4.687
59.7796 5.156
59.8099 4.583
59.8401 4.479
59.8704 5.625
59.9007 4.427
59.9310 5.521
59.9613 4.896
59.9915 4.531
60.0218 4.115
60.0521 4.635
60.0824 3.802
60.1126 4.010
60.1429 3.906
60.1732 4.271
60.2035 4.219
60.2338 4.323
60.2640 4.219
60.2943 4.271
60.3246 5.104
60.3549 5.312
60.3852 5.000
60.4154 4.479
60.4457 3.854
60.4760 5.208
60.5063 4.583
60.5365 4.792
60.5668 4.583
60.5971 3.750
60.6274 4.323
60.6577 4.323
60.6879 4.635
60.7182 4.948
60.7485 4.167
60.7788 4.792
60.8091 4.271
60.8393 4.219
60.8696 4.271
60.8999 4.792
60.9302 4.635
60.9604 4.062
60.9907 5.156
61.0210 4.583
61.0513 4.479
61.0816 5.000
61.1118 4.792
61.1421 5.677
61.1724 4.167
61.2027 4.271
61.2330 5.000
61.2632 4.844
61.2935 5.156
61.3238 4.948
61.3541 5.000
61.3844 5.000
61.4146 4.687
61.4449 5.573
61.4752 4.115
61.5055 5.729
61.5357 4.583
61.5660 5.104
61.5963 4.635
61.6266 5.312
61.6569 4.219
61.6871 5.104
61.7174 6.406
61.7477 5.312
61.7780 5.260
61.8083 5.885
61.8385 6.042
61.8688 4.740
61.8991 5.469
61.9294 6.094
61.9596 5.625
61.9899 5.365
62.0202 5.260
62.0505 5.990
62.0808 6.146
62.1110 5.156
62.1413 4.792
62.1716 6.719
62.2019 5.156
62.2322 5.990
62.2624 5.573
62.2927 5.833
62.3230 5.469
62.3533 6.250
62.3835 5.833
62.4138 6.667
62.4441 6.406
62.4744 6.406
62.5047 5.469
62.5349 6.042
62.5652 6.146
62.5955 5.260
62.6258 5.990
62.6561 5.625
62.6863 6.146
62.7166 5.937
62.7469 5.729
62.7772 5.260
62.8074 6.823
62.8377 6.823
62.8680 4.635
62.8983 6.771
62.9286 5.781
62.9588 6.562
62.9891 5.521
63.0194 5.729
63.0497 6.042
63.0800 6.875
63.1102 7.760
63.1405 6.510
63.1708 6.510
63.2011 6.354
63.2313 5.885
63.2616 5.417
63.2919 4.792
63.3222 5.104
63.3525 5.156
63.3827 6.875
63.4130 6.875
63.4433 6.667
63.4736 5.677
63.5039 5.885
63.5341 6.458
63.5644 5.885
63.5947 5.417
63.6250 5.208
63.6552 6.562
63.6855 5.729
63.7158 5.417
63.7461 5.573
63.7764 5.573
63.8066 6.406
63.8369 5.104
63.8672 5.208
63.8975 5.677
63.9278 5.833
63.9580 5.365
63.9883 5.625
64.0186 5.052
64.0489 5.937
64.0791 5.677
64.1094 6.302
64.1397 5.833
64.1700 5.365
64.2003 5.729
64.2305 5.885
64.2608 6.198
64.2911 5.833
64.3214 5.417
64.3517 5.104
64.3819 5.573
64.4122 5.521
64.4425 5.260
64.4728 5.729
64.5031 4.792
64.5333 4.271
64.5636 4.896
64.5939 5.573
64.6242 4.844
64.6544 5.469
64.6847 4.271
64.7150 4.531
64.7453 4.635
64.7756 5.156
64.8058 4.635
64.8361 4.479
64.8664 4.635
64.8967 3.958
64.9270 4.062
64.9572 5.260
64.9875 4.687
65.0178 4.635
65.0481 4.062
65.0783 4.271
65.1086 4.115
65.1389 3.906
65.1692 4.427
65.1995 4.427
65.2297 4.948
65.2600 3.594
65.2903 3.906
65.3206 4.062
65.3509 3.750
65.3811 3.958
65.4114 4.323
65.4417 3.802
65.4720 3.385
65.5022 3.958
65.5325 3.750
65.5628 4.219
65.5931 3.437
65.6234 3.906
65.6536 4.583
65.6839 3.750
65.7142 3.542
65.7445 3.333
65.7748 2.969
65.8050 3.490
65.8353 4.427
65.8656 3.437
65.8959 3.229
65.9261 2.448
65.9564 3.750
65.9867 3.073
66.0170 2.604
66.0473 3.021
66.0775 3.490
66.1078 3.906
66.1381 3.021
66.1684 2.812
66.1987 3.594
66.2289 4.115
66.2592 3.333
66.2895 3.021
66.3198 3.906
66.3500 2.969
66.3803 3.698
66.4106 3.281
66.4409 2.604
66.4712 2.917
66.5014 2.500
66.5317 4.010
66.5620 3.854
66.5923 2.135
66.6226 3.333
66.6528 3.594
66.6831 3.594
66.7134 3.177
66.7437 2.708
66.7739 3.385
66.8042 2.760
66.8345 3.125
66.8648 3.229
66.8951 2.812
66.9253 3.594
66.9556 3.958
66.9859 2.760
67.0162 3.073
67.0465 3.281
67.0767 3.437
67.1070 3.281
67.1373 3.333
67.1676 2.812
67.1978 3.229
67.2281 3.073
67.2584 2.917
67.2887 2.760
67.3190 3.385
67.3492 2.917
67.3795 3.177
67.4098 3.229
67.4401 3.437
67.4704 3.073
67.5006 3.646
67.5309 3.177
67.5612 2.917
67.5915 2.396
67.6218 2.448
67.6520 2.969
67.6823 2.865
67.7126 2.708
67.7429 3.177
67.7731 2.812
67.8034 2.552
67.8337 2.396
67.8640 3.906
67.8943 3.802
67.9245 3.437
67.9548 2.656
67.9851 2.865
68.0154 3.073
68.0457 3.021
68.0759 2.865
68.1062 2.865
68.1365 3.021
68.1668 3.802
68.1970 2.917
68.2273 3.177
68.2576 3.177
68.2879 3.385
68.3182 3.490
68.3484 2.448
68.3787 2.344
68.4090 3.281
68.4393 2.500
68.4696 2.396
68.4998 3.333
68.5301 3.906
68.5604 3.229
68.5907 3.750
68.6209 3.490
68.6512 4.167
68.6815 3.125
68.7118 3.542
68.7421 2.812
68.7723 3.385
68.8026 3.281
68.8329 2.656
68.8632 3.333
68.8935 3.385
68.9237 3.177
68.9540 2.760
68.9843 3.177
69.0146 2.344
69.0448 4.010
69.0751 2.396
69.1054 2.917
69.1357 2.604
69.1660 3.333
69.1962 3.177
69.2265 4.323
69.2568 3.021
69.2871 3.854
69.3174 3.021
69.3476 2.812
69.3779 3.750
69.4082 3.021
69.4385 3.333
69.4687 3.281
69.4990 2.656
69.5293 3.125
69.5596 3.021
69.5899 3.698
69.6201 3.542
69.6504 2.969
69.6807 3.333
69.7110 2.552
69.7413 3.490
69.7715 3.229
69.8018 4.583
69.8321 2.656
69.8624 3.854
69.8926 3.750
69.9229 3.437
69.9532 3.437
69.9835 4.062
70.0138 2.865
70.0440 3.125
70.0743 3.437
70.1046 2.969
70.1349 4.062
70.1652 3.333
70.1954 2.500
70.2257 4.010
70.2560 3.490
70.2863 3.333
70.3166 2.865
70.3468 2.969
70.3771 2.760
70.4074 3.490
70.4377 3.021
70.4679 3.125
70.4982 3.125
70.5285 3.542
70.5588 2.708
70.5891 2.760
70.6193 2.812
70.6496 3.229
70.6799 2.656
70.7102 2.448
70.7405 2.917
70.7707 3.021
70.8010 3.437
70.8313 3.750
70.8616 2.812
70.8918 2.760
70.9221 3.021
70.9524 3.281
70.9827 2.865
71.0130 3.750
71.0432 3.021
71.0735 2.760
71.1038 2.240
71.1341 3.750
71.1644 3.125
71.1946 3.437
71.2249 2.969
71.2552 3.698
71.2855 2.708
71.3157 3.437
71.3460 3.646
71.3763 3.177
71.4066 2.448
71.4369 3.125
71.4671 2.448
71.4974 2.760
71.5277 2.552
71.5580 2.760
71.5883 3.698
71.6185 3.125
71.6488 3.229
71.6791 3.542
71.7094 2.760
71.7396 3.385
71.7699 2.187
71.8002 2.760
71.8305 2.865
71.8608 2.917
71.8910 2.604
71.9213 3.385
71.9516 3.177
71.9819 3.229
72.0122 2.760
72.0424 2.240
72.0727 3.073
72.1030 2.240
72.1333 3.021
72.1635 3.333
72.1938 2.865
72.2241 2.396
72.2544 3.229
72.2847 3.333
72.3149 2.656
72.3452 3.229
72.3755 2.448
72.4058 2.917
72.4361 2.917
72.4663 2.708
72.4966 3.229
72.5269 2.552
72.5572 2.708
72.5874 2.552
72.6177 2.708
72.6480 2.708
72.6783 3.646
72.7086 3.437
72.7388 2.865
72.7691 2.500
72.7994 2.656
72.8297 2.187
72.8600 2.969
72.8902 2.448
72.9205 3.073
72.9508 2.656
72.9811 3.958
73.0113 3.073
73.0416 3.229
73.0719 3.646
73.1022 3.490
73.1325 3.125
73.1627 3.281
73.1930 3.073
73.2233 3.958
73.2536 3.073
73.2839 2.344
73.3141 3.385
73.3444 2.812
73.3747 2.812
73.4050 3.333
73.4353 3.333
73.4655 3.125
73.4958 3.542
73.5261 3.698
73.5564 3.177
73.5866 3.542
73.6169 2.969
73.6472 3.229
73.6775 3.854
73.7078 3.177
73.7380 3.125
73.7683 3.542
73.7986 2.917
73.8289 2.812
73.8592 2.396
73.8894 3.021
73.9197 3.333
73.9500 2.969
73.9803 3.229
74.0105 3.385
74.0408 3.073
74.0711 3.490
74.1014 3.021
74.1317 3.177
74.1619 2.708
74.1922 3.229
74.2225 3.125
74.2528 3.177
74.2831 4.740
74.3133 4.271
74.3436 2.708
74.3739 3.594
74.4042 3.437
74.4344 3.177
74.4647 3.281
74.4950 2.708
74.5253 3.594
74.5556 3.177
74.5858 4.167
74.6161 3.177
74.6464 3.542
74.6767 2.969
74.7070 4.375
74.7372 3.542
74.7675 3.385
74.7978 3.646
74.8281 2.656
74.8583 3.594
74.8886 3.594
74.9189 3.177
74.9492 3.177
74.9795 3.385
75.0097 2.865
75.0400 2.865
75.0703 3.073
75.1006 3.646
75.1309 2.917
75.1611 2.292
75.1914 3.073
75.2217 2.500
75.2520 3.385
75.2822 2.656
75.3125 4.010
75.3428 3.594
75.3731 2.656
75.4034 3.646
75.4336 2.969
75.4639 3.177
75.4942 3.542
75.5245 2.865
75.5548 3.542
75.5850 3.021
75.6153 3.594
75.6456 2.812
75.6759 2.708
75.7061 2.969
75.7364 2.396
75.7667 2.917
75.7970 3.385
75.8273 2.760
75.8575 2.812
75.8878 2.500
75.9181 3.073
75.9484 3.333
75.9787 2.812
76.0089 3.125
76.0392 2.500
76.0695 2.865
76.0998 2.812
76.1301 2.187
76.1603 2.344
76.1906 3.490
76.2209 3.073
76.2512 3.177
76.2814 3.073
76.3117 3.021
76.3420 3.125
76.3723 3.333
76.4026 2.812
76.4328 2.812
76.4631 3.229
76.4934 3.281
76.5237 2.552
76.5540 2.969
76.5842 2.500
76.6145 2.969
76.6448 2.969
76.6751 2.969
76.7053 3.125
76.7356 3.125
76.7659 2.865
76.7962 2.969
76.8265 3.125
76.8567 3.229
76.8870 3.281
76.9173 2.760
76.9476 2.917
76.9779 3.437
77.0081 2.656
77.0384 3.177
77.0687 1.979
77.0990 2.187
77.1292 3.021
77.1595 2.396
77.1898 2.656
77.2201 3.177
77.2504 2.708
77.2806 2.396
77.3109 2.656
77.3412 2.760
77.3715 3.177
77.4018 2.135
77.4320 2.812
77.4623 3.125
77.4926 1.979
77.5229 2.812
77.5531 2.760
77.5834 2.865
77.6137 3.021
77.6440 2.448
77.6743 3.229
77.7045 2.917
77.7348 2.656
77.7651 2.604
77.7954 1.667
77.8257 2.656
77.8559 2.812
77.8862 2.135
77.9165 2.812
77.9468 1.979
77.9770 2.812
78.0073 3.281
78.0376 2.812
78.0679 2.396
78.0982 2.656
78.1284 2.448
78.1587 3.073
78.1890 2.656
78.2193 2.656
78.2496 2.969
78.2798 2.292
78.3101 2.500
78.3404 2.292
78.3707 2.656
78.4009 2.135
78.4312 3.125
78.4615 2.865
78.4918 2.396
78.5221 2.083
78.5523 2.344
78.5826 1.771
78.6129 2.396
78.6432 2.604
78.6735 2.448
78.7037 2.656
78.7340 2.396
78.7643 2.240
78.7946 2.604
78.8248 2.812
78.8551 2.292
78.8854 2.708
78.9157 3.073
78.9460 2.812
78.9762 3.750
79.0065 3.281
79.0368 2.708
79.0671 3.229
79.0974 1.771
79.1276 3.073
79.1579 3.125
79.1882 2.240
79.2185 2.760
79.2488 1.823
79.2790 2.656
79.3093 3.073
79.3396 2.344
79.3699 3.021
79.4001 2.708
79.4304 2.604
79.4607 3.177
79.4910 3.021
79.5213 2.656
79.5515 2.812
79.5818 2.917
79.6121 2.917
79.6424 2.552
79.6727 2.917
79.7029 3.385
79.7332 2.292
79.7635 2.865
79.7938 2.656
79.8240 3.125
79.8543 2.292
79.8846 3.333
79.9149 2.604
79.9452 2.708
79.9754 3.125
80.0057 2.135
80.0360 2.396
80.0663 2.448
80.0966 2.135
80.1268 2.187
80.1571 3.281
80.1874 2.604
80.2177 2.760
80.2479 2.969
80.2782 2.396
80.3085 2.865
80.3388 2.708
80.3691 2.865
80.3993 2.187
80.4296 2.656
80.4599 2.396
80.4902 2.344
80.5205 2.083
80.5507 2.500
80.5810 2.552
80.6113 2.812
80.6416 3.229
80.6718 2.604
80.7021 2.656
80.7324 1.875
80.7627 3.333
80.7930 3.073
80.8232 2.552
80.8535 3.854
80.8838 2.917
80.9141 2.448
80.9444 2.604
80.9746 2.604
81.0049 2.552
81.0352 3.542
81.0655 2.812
81.0957 2.708
81.1260 2.969
81.1563 2.604
81.1866 3.125
81.2169 3.177
81.2471 3.490
81.2774 2.760
81.3077 2.760
81.3380 3.490
81.3683 3.542
81.3985 2.917
81.4288 2.656
81.4591 3.333
81.4894 3.073
81.5196 2.865
81.5499 3.073
81.5802 2.604
81.6105 3.281
81.6408 2.552
81.6710 3.177
81.7013 3.177
81.7316 2.604
81.7619 2.552
81.7922 2.656
81.8224 2.917
81.8527 2.500
81.8830 3.125
81.9133 3.385
81.9436 2.656
81.9738 2.865
82.0041 2.240
82.0344 2.344
82.0647 3.021
82.0949 3.646
82.1252 2.812
82.1555 2.552
82.1858 2.604
82.2161 3.281
82.2463 2.500
82.2766 3.229
82.3069 3.073
82.3372 2.135
82.3675 3.698
82.3977 2.604
82.4280 2.604
82.4583 3.229
82.4886 3.542
82.5188 3.177
82.5491 2.865
82.5794 2.448
82.6097 3.385
82.6400 3.021
82.6702 3.437
82.7005 3.073
82.7308 3.177
82.7611 2.604
82.7914 2.604
82.8216 2.969
82.8519 3.125
82.8822 2.344
82.9125 2.083
82.9427 2.917
82.9730 3.490
83.0033 2.917
83.0336 3.229
83.0639 3.698
83.0941 2.344
83.1244 3.333
83.1547 2.917
83.1850 3.073
83.2153 3.177
83.2455 2.500
83.2758 2.812
83.3061 2.500
83.3364 3.229
83.3666 3.542
83.3969 3.177
83.4272 2.187
83.4575 3.542
83.4878 2.500
83.5180 2.760
83.5483 3.333
83.5786 2.396
83.6089 2.604
83.6392 2.604
83.6694 2.865
83.6997 3.073
83.7300 2.552
83.7603 3.698
83.7905 3.073
83.8208 2.969
83.8511 2.135
83.8814 3.281
83.9117 2.917
83.9419 2.708
83.9722 3.073
84.0025 2.917
84.0328 3.021
84.0631 3.385
84.0933 3.021
84.1236 3.750
84.1539 2.604
84.1842 3.490
84.2144 2.812
84.2447 3.229
84.2750 2.604
84.3053 2.552
84.3356 2.760
84.3658 2.552
84.3961 2.708
84.4264 3.125
84.4567 2.604
84.4870 2.552
84.5172 2.969
84.5475 2.917
84.5778 2.760
84.6081 2.292
84.6383 3.229
84.6686 2.865
84.6989 3.281
84.7292 2.708
84.7595 2.552
84.7897 2.604
84.8200 3.125
84.8503 2.552
84.8806 2.917
84.9109 2.135
84.9411 2.812
84.9714 2.708
85.0017 2.812
85.0320 2.448
85.0623 2.604
85.0925 3.125
85.1228 3.281
85.1531 2.760
85.1834 2.917
85.2136 2.604
85.2439 2.865
85.2742 2.604
85.3045 2.292
85.3348 2.344
85.3650 2.865
85.3953 2.500
85.4256 2.292
85.4559 2.448
85.4862 2.604
85.5164 3.073
85.5467 2.135
85.5770 2.604
85.6073 3.073
85.6375 3.073
85.6678 2.812
85.6981 3.281
85.7284 1.927
85.7587 2.500
85.7889 2.708
85.8192 1.979
85.8495 2.344
85.8798 2.656
85.9101 2.656
85.9403 2.500
85.9706 2.760
86.0009 2.969
86.0312 3.021
86.0614 2.917
86.0917 3.229
86.1220 2.604
86.1523 3.542
86.1826 2.604
86.2128 2.448
86.2431 3.073
86.2734 2.865
86.3037 2.917
86.3340 2.865
86.3642 2.292
86.3945 3.021
86.4248 2.708
86.4551 2.135
86.4853 4.010
86.5156 3.490
86.5459 2.448
86.5762 2.708
86.6065 2.604
86.6367 2.448
86.6670 2.344
86.6973 2.448
86.7276 2.865
86.7579 2.812
86.7881 2.604
86.8184 2.760
86.8487 3.229
86.8790 3.073
86.9092 3.177
86.9395 3.333
86.9698 2.292
87.0001 3.125
87.0304 2.448
87.0606 3.542
87.0909 3.437
87.1212 2.500
87.1515 2.708
87.1818 3.177
87.2120 2.448
87.2423 2.917
87.2726 2.708
87.3029 2.969
87.3331 3.490
87.3634 3.125
87.3937 2.656
87.4240 2.344
87.4543 2.135
87.4845 3.281
87.5148 2.865
87.5451 2.708
87.5754 2.760
87.6057 3.437
87.6359 2.448
87.6662 2.656
87.6965 2.187
87.7268 3.281
87.7571 3.281
87.7873 2.708
87.8176 2.552
87.8479 2.448
87.8782 3.229
87.9084 2.969
87.9387 2.240
87.9690 2.865
87.9993 3.698
88.0296 3.073
88.0598 2.604
88.0901 3.073
88.1204 2.187
88.1507 2.396
88.1810 2.865
88.2112 2.656
88.2415 2.604
88.2718 2.552
88.3021 2.708
88.3323 2.917
88.3626 3.333
88.3929 3.125
88.4232 3.437
88.4535 2.187
88.4837 2.917
88.5140 2.344
88.5443 3.073
88.5746 2.448
88.6049 2.552
88.6351 2.604
88.6654 2.604
88.6957 3.073
88.7260 2.604
88.7562 2.552
88.7865 2.812
88.8168 2.344
88.8471 2.135
88.8774 3.021
88.9076 2.604
88.9379 3.073
88.9682 2.604
88.9985 2.552
89.0288 2.969
89.0590 3.542
89.0893 2.604
89.1196 3.125
89.1499 2.500
89.1801 2.448
89.2104 3.177
89.2407 2.292
89.2710 2.292
89.3013 3.125
89.3315 2.656
89.3618 2.604
89.3921 2.865
89.4224 2.969
89.4527 2.396
89.4829 2.917
89.5132 1.927
89.5435 2.917
89.5738 2.031
89.6040 1.875
89.6343 1.927
89.6646 2.708
89.6949 2.500
89.7252 2.292
89.7554 2.448
89.7857 2.448
89.8160 2.500
89.8463 2.448
89.8766 2.292
89.9068 2.083
89.9371 2.604
89.9674 2.240
89.9977 2.812
90.0279 2.552
90.0582 2.135
90.0885 1.927
90.1188 2.448
90.1491 2.552
90.1793 2.552
90.2096 3.125
90.2399 3.073
90.2702 3.021
90.3005 2.135
90.3307 2.917
90.3610 2.917
90.3913 2.917
90.4216 2.760
90.4518 2.292
90.4821 3.177
90.5124 2.135
90.5427 2.969
90.5730 3.073
90.6032 1.667
90.6335 2.552
90.6638 2.604
90.6941 3.021
90.7244 2.500
90.7546 3.021
90.7849 2.135
90.8152 2.135
90.8455 2.656
90.8758 2.552
90.9060 2.708
90.9363 3.073
90.9666 3.542
90.9969 2.969
91.0271 2.187
91.0574 3.073
91.0877 2.604
91.1180 1.979
91.1483 3.125
91.1785 2.760
91.2088 2.656
91.2391 3.073
91.2694 3.125
91.2997 2.656
91.3299 2.500
91.3602 2.396
91.3905 2.656
91.4208 2.448
91.4510 2.187
91.4813 2.500
91.5116 2.031
91.5419 3.125
91.5722 3.490
91.6024 2.344
91.6327 2.396
91.6630 2.917
91.6933 2.656
91.7236 2.187
91.7538 2.240
91.7841 3.229
91.8144 3.177
91.8447 2.656
91.8749 2.917
91.9052 2.292
91.9355 3.021
91.9658 3.177
91.9961 2.656
92.0263 2.292
92.0566 1.979
92.0869 2.812
92.1172 2.760
92.1475 2.292
92.1777 2.292
92.2080 2.604
92.2383 3.073
92.2686 1.667
92.2988 2.656
92.3291 2.917
92.3594 2.500
92.3897 2.552
92.4200 2.448
92.4502 2.656
92.4805 2.031
92.5108 2.396
92.5411 3.125
92.5714 2.500
92.6016 2.656
92.6319 2.812
92.6622 2.083
92.6925 3.385
92.7227 2.708
92.7530 1.979
92.7833 2.760
92.8136 2.969
92.8439 2.656
92.8741 3.177
92.9044 2.760
92.9347 2.240
92.9650 2.552
92.9953 2.500
93.0255 3.177
93.0558 2.187
93.0861 2.812
93.1164 2.292
93.1466 2.292
93.1769 1.875
93.2072 2.708
93.2375 2.448
93.2678 2.500
93.2980 2.500
93.3283 2.396
93.3586 2.500
93.3889 1.927
93.4192 2.500
93.4494 2.344
93.4797 2.292
93.5100 2.865
93.5403 2.448
93.5706 1.823
93.6008 2.604
93.6311 2.865
93.6614 2.656
93.6917 2.031
93.7219 2.865
93.7522 2.344
93.7825 2.552
93.8128 2.500
93.8431 2.812
93.8733 2.552
93.9036 2.865
93.9339 2.865
93.9642 2.344
93.9945 2.708
94.0247 1.875
94.0550 2.500
94.0853 2.760
94.1156 2.344
94.1458 2.448
94.1761 2.187
94.2064 2.500
94.2367 2.083
94.2670 2.604
94.2972 2.187
94.3275 2.135
94.3578 2.396
94.3881 2.552
94.4184 2.708
94.4486 2.187
94.4789 2.760
94.5092 1.875
94.5395 2.396
94.5697 2.292
94.6000 2.552
94.6303 2.969
94.6606 2.135
94.6909 2.708
94.7211 2.708
94.7514 2.552
94.7817 2.135
94.8120 2.240
94.8423 1.771
94.8725 2.240
94.9028 2.448
94.9331 2.135
94.9634 2.187
94.9936 2.344
95.0239 2.552
95.0542 2.552
95.0845 2.240
95.1148 3.125
95.1450 2.552
95.1753 1.823
95.2056 1.875
95.2359 2.292
95.2662 2.135
95.2964 2.448
95.3267 2.292
95.3570 2.240
95.3873 2.083
95.4175 2.812
95.4478 2.865
95.4781 2.344
95.5084 2.865
95.5387 2.135
95.5689 2.865
95.5992 2.604
95.6295 2.760
95.6598 2.604
95.6901 3.385
95.7203 2.552
95.7506 2.708
95.7809 2.292
95.8112 2.083
95.8414 1.823
95.8717 2.500
95.9020 2.604
95.9323 2.240
95.9626 2.344
95.9928 2.448
96.0231 2.240
96.0534 2.708
96.0837 2.344
96.1140 2.135
96.1442 2.865
96.1745 2.604
96.2048 2.760
96.2351 2.292
96.2653 1.927
96.2956 2.604
96.3259 2.708
96.3562 2.865
96.3865 2.500
96.4167 2.812
96.4470 2.500
96.4773 2.656
96.5076 2.240
96.5379 2.865
96.5681 2.396
96.5984 2.240
96.6287 2.552
96.6590 2.760
96.6893 1.875
96.7195 2.240
96.7498 2.292
96.7801 2.760
96.8104 2.187
96.8406 2.708
96.8709 2.448
96.9012 2.708
96.9315 2.917
96.9618 2.292
96.9920 2.500
97.0223 2.604
97.0526 2.396
97.0829 2.760
97.1132 3.125
97.1434 2.917
97.1737 2.604
97.2040 2.240
97.2343 2.500
97.2645 2.969
97.2948 2.552
97.3251 2.760
97.3554 2.240
97.3857 2.604
97.4159 2.344
97.4462 3.229
97.4765 3.073
97.5068 2.812
97.5371 2.083
97.5673 2.500
97.5976 2.760
97.6279 2.344
97.6582 3.021
97.6884 2.292
97.7187 3.073
97.7490 2.031
97.7793 3.281
97.8096 2.083
97.8398 2.448
97.8701 2.760
97.9004 2.292
97.9307 2.448
97.9610 2.604
97.9912 2.396
98.0215 2.656
98.0518 2.500
98.0821 2.656
98.1123 2.760
98.1426 2.969
98.1729 2.500
98.2032 2.396
98.2335 3.125
98.2637 2.604
98.2940 2.812
98.3243 2.917
98.3546 2.812
98.3849 2.708
98.4151 2.708
98.4454 2.396
98.4757 2.865
98.5060 2.865
98.5362 2.240
98.5665 3.281
98.5968 2.448
98.6271 3.073
98.6574 1.615
98.6876 3.125
98.7179 2.396
98.7482 2.240
98.7785 2.083
98.8088 2.448
98.8390 3.125
98.8693 2.135
98.8996 2.344
98.9299 3.073
98.9601 2.083
98.9904 2.812
99.0207 2.292
99.0510 2.292
99.0813 2.969
99.1115 2.083
99.1418 2.240
99.1721 2.135
99.2024 1.771
99.2327 2.448
99.2629 2.031
99.2932 2.812
99.3235 2.240
99.3538 2.552
99.3841 2.500
99.4143 2.344
99.4446 2.656
99.4749 2.500
99.5052 2.187
99.5354 2.240
99.5657 2.865
99.5960 2.240
99.6263 2.292
99.6566 2.344
99.6868 2.083
99.7171 2.552
99.7474 2.604
99.7777 2.865
99.8080 2.500
99.8382 2.344
99.8685 1.823
99.8988 2.865
99.9291 2.344
99.9593 2.500
99.9896 2.187
100.0199 2.240
100.0502 2.552
100.0805 2.187
100.1107 2.448
100.1410 2.656
100.1713 1.719
100.2016 2.708
100.2319 2.135
100.2621 2.344
100.2924 2.083
100.3227 2.344
100.3530 2.917
100.3832 2.500
100.4135 1.927
100.4438 1.823
100.4741 1.823
100.5044 1.771
100.5346 2.135
100.5649 2.865
100.5952 2.083
100.6255 2.708
100.6558 2.396
100.6860 2.344
100.7163 2.187
100.7466 2.344
100.7769 2.344
100.8071 3.437
100.8374 2.448
100.8677 2.135
100.8980 1.823
100.9283 1.875
100.9585 2.812
100.9888 2.604
101.0191 2.187
101.0494 2.292
101.0797 1.979
101.1099 2.708
101.1402 2.292
101.1705 2.865
101.2008 2.396
101.2310 2.031
101.2613 2.917
101.2916 2.500
101.3219 2.187
101.3522 2.865
101.3824 2.083
101.4127 2.292
101.4430 1.823
101.4733 2.917
101.5036 2.292
101.5338 3.281
101.5641 2.865
101.5944 2.187
101.6247 2.083
101.6549 2.083
101.6852 2.292
101.7155 2.396
101.7458 2.500
101.7761 2.344
101.8063 2.396
101.8366 2.396
101.8669 1.719
101.8972 2.812
101.9275 2.344
101.9577 2.604
101.9880 1.979
102.0183 2.708
102.0486 2.448
102.0788 2.760
102.1091 2.396
102.1394 2.552
102.1697 2.708
102.2000 2.240
102.2302 2.187
102.2605 2.396
102.2908 1.875
102.3211 2.500
102.3514 1.771
102.3816 2.604
102.4119 2.344
102.4422 2.448
102.4725 2.240
102.5028 2.500
102.5330 2.083
102.5633 2.656
102.5936 2.187
102.6239 1.771
102.6541 1.875
102.6844 2.187
102.7147 2.917
102.7450 2.500
102.7753 2.500
102.8055 2.396
102.8358 2.187
102.8661 2.396
102.8964 2.708
102.9267 2.187
102.9569 2.500
102.9872 1.979
103.0175 2.240
103.0478 1.875
103.0780 2.344
103.1083 2.552
103.1386 2.135
103.1689 2.812
103.1992 2.135
103.2294 2.656
103.2597 2.031
103.2900 2.292
103.3203 2.656
103.3506 2.083
103.3808 1.979
103.4111 2.240
103.4414 2.135
103.4717 2.031
103.5019 2.448
103.5322 2.917
103.5625 2.083
103.5928 1.927
103.6231 2.604
103.6533 2.500
103.6836 2.083
103.7139 2.187
103.7442 1.927
103.7745 1.458
103.8047 2.187
103.8350 1.927
103.8653 1.771
103.8956 1.927
103.9258 1.771
103.9561 1.979
103.9864 2.187
104.0167 1.927
104.0470 1.615
104.0772 2.812
104.1075 2.031
104.1378 1.927
104.1681 2.396
104.1984 2.552
104.2286 2.031
104.2589 2.552
104.2892 1.354
104.3195 1.927
104.3497 2.083
104.3800 2.448
104.4103 2.240
104.4406 1.979
104.4709 1.510
104.5011 2.448
104.5314 1.979
104.5617 2.500
104.5920 2.448
104.6223 1.771
104.6525 2.135
104.6828 2.187
104.7131 3.073
104.7434 2.448
104.7736 1.927
104.8039 1.823
104.8342 2.031
104.8645 1.979
104.8948 1.719
104.9250 2.760
104.9553 2.187
104.9856 2.656
105.0159 2.760
105.0462 2.500
105.0764 1.927
105.1067 2.240
105.1370 2.083
105.1673 1.823
105.1975 2.552
105.2278 1.615
105.2581 2.344
105.2884 1.667
105.3187 1.979
105.3489 2.344
105.3792 2.240
105.4095 2.292
105.4398 1.979
105.4701 2.083
105.5003 1.875
105.5306 2.240
105.5609 1.667
105.5912 2.135
105.6215 1.719
105.6517 2.552
105.6820 2.083
105.7123 2.448
105.7426 2.708
105.7728 2.187
105.8031 2.135
105.8334 2.292
105.8637 2.656
105.8940 1.719
105.9242 1.979
105.9545 2.135
105.9848 2.865
106.0151 2.708
106.0454 2.604
106.0756 2.031
106.1059 2.187
106.1362 2.344
106.1665 2.500
106.1967 2.604
106.2270 2.292
106.2573 2.292
106.2876 2.604
106.3179 1.979
106.3481 2.500
106.3784 2.083
106.4087 2.240
106.4390 1.875
106.4693 3.073
106.4995 2.031
106.5298 1.979
106.5601 2.031
106.5904 1.823
106.6206 1.719
106.6509 1.927
106.6812 1.719
106.7115 2.135
106.7418 2.031
106.7720 1.979
106.8023 2.396
106.8326 1.875
106.8629 2.083
106.8932 2.344
106.9234 1.875
106.9537 2.552
106.9840 2.031
107.0143 2.240
107.0445 2.396
107.0748 2.604
107.1051 1.719
107.1354 2.187
107.1657 2.292
107.1959 2.031
107.2262 2.292
107.2565 1.979
107.2868 2.135
107.3171 2.292
107.3473 2.604
107.3776 2.500
107.4079 2.135
107.4382 1.771
107.4684 2.031
107.4987 2.187
107.5290 2.083
107.5593 2.552
107.5896 2.552
107.6198 1.562
107.6501 2.292
107.6804 2.135
107.7107 2.031
107.7410 2.187
107.7712 2.812
107.8015 2.448
107.8318 1.667
107.8621 2.083
107.8923 2.448
107.9226 2.344
107.9529 1.719
107.9832 1.927
108.0135 1.927
108.0437 1.979
108.0740 2.552
108.1043 1.927
108.1346 2.500
108.1649 1.719
108.1951 1.719
108.2254 1.927
108.2557 1.979
108.2860 1.927
108.3163 2.500
108.3465 2.031
108.3768 2.344
108.4071 2.604
108.4374 1.979
108.4676 2.760
108.4979 2.240
108.5282 2.083
108.5585 1.771
108.5888 2.292
108.6190 1.667
108.6493 2.083
108.6796 2.187
108.7099 2.656
108.7402 1.771
108.7704 1.875
108.8007 2.135
108.8310 2.135
108.8613 2.500
108.8915 1.979
108.9218 2.760
108.9521 2.396
108.9824 1.719
109.0127 2.448
109.0429 2.344
109.0732 2.604
109.1035 2.760
109.1338 2.396
109.1641 2.708
109.1943 2.552
109.2246 2.604
109.2549 1.719
109.2852 2.187
109.3154 2.396
109.3457 2.031
109.3760 1.458
109.4063 2.187
109.4366 2.083
109.4668 2.187
109.4971 2.240
109.5274 2.812
109.5577 1.875
109.5880 1.875
109.6182 2.396
109.6485 2.187
109.6788 2.396
109.7091 2.812
109.7393 1.875
109.7696 2.708
109.7999 3.385
109.8302 1.927
109.8605 2.187
109.8907 2.292
109.9210 1.875
109.9513 2.292
109.9816 2.292
110.0119 2.187
110.0421 2.865
110.0724 1.875
110.1027 2.135
110.1330 1.823
110.1632 2.240
110.1935 2.760
110.2238 2.135
110.2541 2.187
110.2844 1.771
110.3146 2.500
110.3449 1.771
110.3752 1.771
110.4055 2.031
110.4358 1.979
110.4660 2.292
110.4963 2.135
110.5266 1.927
110.5569 2.083
110.5871 2.187
110.6174 2.448
110.6477 2.292
110.6780 2.240
110.7083 1.510
110.7385 2.135
110.7688 2.240
110.7991 2.240
110.8294 2.187
110.8597 1.927
110.8899 1.927
110.9202 2.240
110.9505 2.708
110.9808 2.135
111.0110 1.771
111.0413 2.292
111.0716 2.344
111.1019 2.292
111.1322 1.875
111.1624 2.135
111.1927 2.135
111.2230 2.500
111.2533 2.083
111.2836 2.292
111.3138 2.292
111.3441 2.135
111.3744 2.240
111.4047 1.979
111.4350 2.500
111.4652 1.615
111.4955 2.708
111.5258 2.240
111.5561 2.240
111.5863 2.656
111.6166 2.865
111.6469 2.760
111.6772 2.552
111.7075 1.979
111.7377 2.135
111.7680 1.979
111.7983 2.031
111.8286 2.083
111.8589 2.760
111.8891 2.292
111.9194 2.604
111.9497 2.344
111.9800 2.604
112.0102 2.344
112.0405 2.656
112.0708 2.344
112.1011 2.031
112.1314 2.604
112.1616 1.927
112.1919 2.552
112.2222 2.448
112.2525 2.187
112.2828 1.719
112.3130 2.552
112.3433 2.344
112.3736 2.240
112.4039 2.240
112.4341 1.875
112.4644 2.083
112.4947 2.500
112.5250 2.187
112.5553 2.031
112.5855 2.292
112.6158 3.281
112.6461 1.875
112.6764 2.396
112.7067 2.344
112.7369 2.656
112.7672 2.760
112.7975 1.771
112.8278 2.396
112.8580 2.396
112.8883 2.344
112.9186 2.344
112.9489 2.396
112.9792 2.187
113.0094 2.031
113.0397 2.396
113.0700 2.240
113.1003 1.771
113.1306 1.927
113.1608 2.083
113.1911 2.708
113.2214 2.344
113.2517 2.969
113.2819 1.875
113.3122 2.604
113.3425 2.552
113.3728 2.708
113.4031 2.031
113.4333 2.292
113.4636 2.240
113.4939 1.771
113.5242 1.875
113.5545 2.292
113.5847 2.448
113.6150 2.083
113.6453 1.875
113.6756 1.771
113.7058 1.979
113.7361 2.865
113.7664 2.083
113.7967 2.135
113.8270 2.135
113.8572 2.500
113.8875 1.562
113.9178 2.083
113.9481 1.719
113.9784 2.187
114.0086 2.448
114.0389 2.552
114.0692 2.865
114.0995 1.771
114.1298 2.187
114.1600 2.656
114.1903 2.448
114.2206 1.406
114.2509 2.552
114.2811 2.396
114.3114 2.135
114.3417 2.500
114.3720 1.875
114.4023 2.448
114.4325 1.823
114.4628 2.656
114.4931 2.552
114.5234 2.656
114.5537 1.823
114.5839 2.344
114.6142 2.187
114.6445 2.396
114.6748 2.448
114.7050 2.865
114.7353 2.292
114.7656 1.823
114.7959 2.969
114.8262 2.396
114.8564 2.500
114.8867 2.604
114.9170 2.240
114.9473 2.396
114.9776 1.875
115.0078 2.292
115.0381 1.667
115.0684 2.500
115.0987 2.187
115.1289 2.604
115.1592 2.604
115.1895 2.708
115.2198 1.979
115.2501 2.708
115.2803 2.135
115.3106 3.177
115.3409 2.240
115.3712 2.083
115.4015 2.240
115.4317 2.240
115.4620 2.500
115.4923 2.135
115.5226 2.396
115.5528 2.031
115.5831 2.656
115.6134 1.823
115.6437 2.656
115.6740 2.135
115.7042 2.083
115.7345 2.812
115.7648 1.875
115.7951 1.979
115.8254 2.448
115.8556 3.385
115.8859 2.292
115.9162 2.656
115.9465 2.448
115.9767 1.771
116.0070 2.656
116.0373 2.708
116.0676 2.031
116.0979 1.562
116.1281 2.135
116.1584 2.448
116.1887 2.187
116.2190 2.500
116.2493 1.927
116.2795 2.187
116.3098 2.344
116.3401 1.771
116.3704 2.708
116.4006 1.927
116.4309 2.812
116.4612 2.500
116.4915 2.031
116.5218 2.396
116.5520 1.927
116.5823 2.448
116.6126 2.604
116.6429 2.760
116.6732 2.604
116.7034 2.760
116.7337 2.083
116.7640 2.187
116.7943 2.344
116.8245 2.135
116.8548 2.760
116.8851 2.396
116.9154 2.396
116.9457 2.552
116.9759 2.083
117.0062 2.187
117.0365 2.187
117.0668 2.083
117.0971 2.344
117.1273 3.385
117.1576 2.187
117.1879 2.812
117.2182 2.396
117.2485 2.448
117.2787 2.031
117.3090 2.760
117.3393 2.344
117.3696 2.292
117.3998 2.552
117.4301 2.812
117.4604 2.344
117.4907 2.292
117.5210 2.031
117.5512 2.500
117.5815 1.875
117.6118 1.719
117.6421 2.500
117.6724 2.292
117.7026 2.448
117.7329 2.187
117.7632 3.281
117.7935 2.240
117.8237 2.187
117.8540 2.187
117.8843 1.927
117.9146 2.240
117.9449 2.344
117.9751 2.396
118.0054 1.979
118.0357 2.187
118.0660 2.969
118.0963 2.552
118.1265 2.292
118.1568 2.760
118.1871 1.406
118.2174 2.969
118.2476 2.292
118.2779 1.979
118.3082 1.875
118.3385 2.552
118.3688 2.292
118.3990 2.292
118.4293 2.135
118.4596 2.344
118.4899 2.396
118.5202 2.500
118.5504 2.396
118.5807 2.604
118.6110 2.448
118.6413 2.760
118.6715 1.979
118.7018 2.083
118.7321 2.344
118.7624 1.979
118.7927 2.083
118.8229 2.396
118.8532 1.823
118.8835 2.187
118.9138 2.604
118.9441 2.552
118.9743 2.656
119.0046 1.771
119.0349 1.927
119.0652 2.552
119.0954 2.031
119.1257 2.083
119.1560 2.552
119.1863 2.083
119.2166 2.240
119.2468 1.979
119.2771 1.615
119.3074 1.979
119.3377 2.604
119.3680 2.240
119.3982 2.292
119.4285 1.875
119.4588 2.083
119.4891 2.500
119.5193 2.552
119.5496 2.448
119.5799 2.500
119.6102 2.187
119.6405 2.344
119.6707 3.021
119.7010 2.240
119.7313 1.979
119.7616 2.344
119.7919 2.760
119.8221 2.344
119.8524 2.812
119.8827 2.812
119.9130 2.917
119.9433 2.708
119.9735 2.865
120.0038 1.927
