'Id: "" Comment: "" Operator: "Lab Manager" Anode: "Cu" Scantype: "Locked Coupled" TimePerStep: "19.2" X: "9999" Y: "9999" Z: "9999" 
10.0015 3.750
10.0318 4.635
10.0620 3.802
10.0923 3.958
10.1226 4.948
10.1529 4.115
10.1832 3.594
10.2134 3.490
10.2437 3.333
10.2740 3.594
10.3043 2.240
10.3346 3.802
10.3648 3.854
10.3951 3.906
10.4254 4.635
10.4557 2.969
10.4859 4.635
10.5162 3.385
10.5465 3.802
10.5768 3.854
10.6071 4.271
10.6373 4.635
10.6676 4.427
10.6979 4.375
10.7282 4.792
10.7585 4.740
10.7887 3.177
10.8190 4.010
10.8493 3.542
10.8796 4.271
10.9098 4.583
10.9401 4.427
10.9704 6.198
11.0007 6.146
11.0310 5.677
11.0612 7.708
11.0915 6.823
11.1218 6.771
11.1521 7.552
11.1824 6.302
11.2126 5.729
11.2429 4.844
11.2732 4.427
11.3035 4.479
11.3337 4.323
11.3640 4.740
11.3943 3.594
11.4246 3.958
11.4549 3.021
11.4851 4.323
11.5154 4.896
11.5457 4.010
11.5760 3.281
11.6063 3.698
11.6365 3.854
11.6668 3.073
11.6971 3.594
11.7274 4.531
11.7577 3.229
11.7879 3.490
11.8182 3.542
11.8485 3.750
11.8788 3.021
11.9090 4.323
11.9393 3.594
11.9696 4.062
11.9999 3.333
12.0302 3.333
12.0604 4.010
12.0907 3.177
12.1210 3.542
12.1513 3.906
12.1816 3.437
12.2118 3.229
12.2421 3.177
12.2724 2.500
12.3027 3.698
12.3329 3.698
12.3632 3.333
12.3935 4.271
12.4238 4.531
12.4541 2.708
12.4843 4.219
12.5146 3.437
12.5449 3.281
12.5752 2.552
12.6055 2.969
12.6357 3.490
12.6660 3.125
12.6963 4.062
12.7266 2.448
12.7568 3.125
12.7871 3.177
12.8174 2.812
12.8477 3.490
12.8780 3.177
12.9082 3.698
12.9385 3.177
12.9688 3.698
12.9991 3.698
13.0294 3.854
13.0596 3.542
13.0899 4.427
13.1202 3.125
13.1505 3.437
13.1807 3.958
13.2110 3.906
13.2413 3.385
13.2716 3.333
13.3019 2.552
13.3321 2.812
13.3624 3.542
13.3927 3.073
13.4230 3.281
13.4533 3.385
13.4835 3.490
13.5138 3.698
13.5441 3.385
13.5744 3.854
13.6046 3.490
13.6349 3.177
13.6652 3.021
13.6955 3.177
13.7258 3.177
13.7560 3.437
13.7863 2.865
13.8166 3.281
13.8469 2.812
13.8772 4.115
13.9074 3.333
13.9377 3.854
13.9680 2.812
13.9983 3.073
14.0285 2.500
14.0588 4.323
14.0891 2.917
14.1194 3.125
14.1497 1.927
14.1799 3.594
14.2102 3.542
14.2405 4.010
14.2708 2.344
14.3011 2.969
14.3313 2.656
14.3616 2.812
14.3919 2.708
14.4222 2.552
14.4524 3.177
14.4827 3.594
14.5130 3.073
14.5433 3.594
14.5736 3.073
14.6038 3.437
14.6341 2.760
14.6644 2.917
14.6947 2.760
14.7250 3.750
14.7552 1.927
14.7855 2.969
14.8158 2.552
14.8461 2.812
14.8764 2.917
14.9066 3.281
14.9369 3.698
14.9672 2.604
14.9975 2.500
15.0277 2.500
15.0580 2.552
15.0883 3.281
15.1186 2.865
15.1489 3.073
15.1791 2.292
15.2094 2.917
15.2397 3.437
15.2700 2.708
15.3003 2.656
15.3305 3.021
15.3608 2.604
15.3911 2.604
15.4214 2.448
15.4516 2.604
15.4819 3.021
15.5122 2.344
15.5425 3.490
15.5728 2.552
15.6030 2.917
15.6333 2.708
15.6636 2.448
15.6939 2.656
15.7242 2.604
15.7544 3.281
15.7847 2.760
15.8150 2.552
15.8453 3.802
15.8755 3.125
15.9058 3.125
15.9361 2.656
15.9664 4.010
15.9967 3.490
16.0269 3.125
16.0572 2.760
16.0875 3.021
16.1178 2.187
16.1481 2.604
16.1783 3.333
16.2086 2.552
16.2389 3.125
16.2692 3.073
16.2994 3.385
16.3297 3.021
16.3600 2.812
16.3903 3.125
16.4206 3.333
16.4508 3.437
16.4811 3.177
16.5114 2.812
16.5417 3.125
16.5720 2.812
16.6022 2.865
16.6325 2.292
16.6628 2.760
16.6931 3.698
16.7233 3.281
16.7536 3.177
16.7839 2.292
16.8142 2.865
16.8445 3.385
16.8747 3.490
16.9050 2.969
16.9353 2.760
16.9656 2.969
16.9959 3.021
17.0261 2.656
17.0564 3.698
17.0867 2.552
17.1170 2.760
17.1472 3.698
17.1775 2.500
17.2078 2.500
17.2381 3.073
17.2684 2.917
17.2986 2.708
17.3289 2.812
17.3592 2.396
17.3895 2.708
17.4198 3.073
17.4500 2.812
17.4803 2.448
17.5106 2.917
17.5409 2.812
17.5712 2.344
17.6014 2.187
17.6317 2.344
17.6620 3.490
17.6923 2.865
17.7225 2.708
17.7528 2.656
17.7831 2.187
17.8134 2.708
17.8437 2.969
17.8739 2.448
17.9042 1.927
17.9345 2.552
17.9648 2.760
17.9951 2.708
18.0253 2.865
18.0556 2.708
18.0859 2.865
18.1162 2.760
18.1464 2.969
18.1767 2.969
18.2070 2.552
18.2373 2.812
18.2676 3.490
18.2978 2.760
18.3281 2.812
18.3584 2.292
18.3887 3.073
18.4190 3.021
18.4492 2.917
18.4795 2.917
18.5098 2.760
18.5401 2.344
18.5703 2.812
18.6006 3.333
18.6309 2.448
18.6612 2.656
18.6915 2.917
18.7217 2.969
18.7520 2.969
18.7823 2.917
18.8126 3.125
18.8429 2.865
18.8731 2.760
18.9034 2.760
18.9337 3.021
18.9640 4.115
18.9942 2.865
19.0245 2.135
19.0548 2.656
19.0851 3.333
19.1154 2.344
19.1456 2.396
19.1759 2.344
19.2062 3.021
19.2365 2.344
19.2668 3.021
19.2970 3.229
19.3273 3.229
19.3576 3.021
19.3879 3.073
19.4181 2.604
19.4484 3.021
19.4787 2.917
19.5090 2.187
19.5393 2.865
19.5695 2.500
19.5998 3.490
19.6301 2.656
19.6604 2.552
19.6907 3.073
19.7209 2.708
19.7512 2.500
19.7815 1.927
19.8118 3.073
19.8420 2.500
19.8723 3.646
19.9026 2.500
19.9329 2.604
19.9632 2.656
19.9934 2.396
20.0237 2.552
20.0540 2.448
20.0843 2.083
20.1146 2.552
20.1448 1.875
20.1751 2.135
20.2054 2.656
20.2357 2.448
20.2659 2.135
20.2962 2.865
20.3265 2.500
20.3568 2.708
20.3871 1.979
20.4173 2.656
20.4476 2.708
20.4779 2.552
20.5082 2.083
20.5385 2.656
20.5687 2.083
20.5990 2.448
20.6293 2.500
20.6596 1.979
20.6899 2.656
20.7201 2.812
20.7504 2.708
20.7807 2.969
20.8110 1.979
20.8412 2.083
20.8715 2.708
20.9018 2.344
20.9321 2.656
20.9624 2.760
20.9926 2.292
21.0229 2.500
21.0532 2.969
21.0835 1.979
21.1138 2.604
21.1440 2.917
21.1743 2.344
21.2046 2.708
21.2349 1.875
21.2651 2.656
21.2954 2.865
21.3257 2.552
21.3560 2.552
21.3863 2.969
21.4165 2.344
21.4468 2.448
21.4771 2.344
21.5074 2.656
21.5377 2.292
21.5679 3.229
21.5982 1.979
21.6285 2.708
21.6588 2.604
21.6890 2.656
21.7193 2.135
21.7496 2.344
21.7799 2.292
21.8102 2.552
21.8404 2.865
21.8707 2.292
21.9010 2.552
21.9313 2.500
21.9616 2.344
21.9918 2.708
22.0221 2.031
22.0524 2.240
22.0827 2.135
22.1129 2.187
22.1432 2.396
22.1735 3.073
22.2038 3.125
22.2341 2.240
22.2643 3.125
22.2946 3.073
22.3249 2.396
22.3552 1.979
22.3855 2.500
22.4157 2.187
22.4460 2.292
22.4763 2.083
22.5066 3.073
22.5368 2.604
22.5671 2.552
22.5974 2.708
22.6277 2.760
22.6580 3.073
22.6882 2.187
22.7185 2.708
22.7488 2.604
22.7791 2.240
22.8094 2.240
22.8396 2.812
22.8699 2.083
22.9002 2.187
22.9305 3.073
22.9607 2.500
22.9910 2.552
23.0213 3.177
23.0516 2.240
23.0819 3.073
23.1121 2.708
23.1424 2.187
23.1727 2.500
23.2030 2.448
23.2333 2.187
23.2635 2.031
23.2938 2.187
23.3241 2.187
23.3544 2.708
23.3846 2.917
23.4149 1.719
23.4452 2.396
23.4755 2.083
23.5058 2.187
23.5360 2.187
23.5663 1.823
23.5966 1.771
23.6269 3.021
23.6572 2.552
23.6874 2.344
23.7177 2.656
23.7480 2.240
23.7783 1.875
23.8086 2.969
23.8388 2.135
23.8691 2.552
23.8994 1.927
23.9297 2.708
23.9599 2.344
23.9902 2.448
24.0205 2.135
24.0508 2.656
24.0811 2.396
24.1113 2.812
24.1416 2.760
24.1719 2.292
24.2022 2.292
24.2325 2.500
24.2627 2.396
24.2930 2.448
24.3233 2.708
24.3536 2.135
24.3838 2.292
24.4141 2.292
24.4444 2.344
24.4747 2.448
24.5050 2.500
24.5352 2.396
24.5655 2.552
24.5958 2.760
24.6261 2.396
24.6564 2.448
24.6866 2.865
24.7169 1.823
24.7472 2.865
24.7775 2.396
24.8077 2.031
24.8380 2.604
24.8683 1.979
24.8986 1.979
24.9289 2.812
24.9591 2.760
24.9894 2.552
25.0197 2.240
25.0500 2.187
25.0803 2.812
25.1105 2.240
25.1408 2.760
25.1711 2.865
25.2014 2.083
25.2316 2.708
25.2619 2.448
25.2922 2.448
25.3225 2.240
25.3528 2.500
25.3830 2.240
25.4133 2.448
25.4436 2.812
25.4739 2.396
25.5042 1.823
25.5344 3.229
25.5647 1.875
25.5950 2.344
25.6253 2.344
25.6555 2.292
25.6858 3.125
25.7161 3.021
25.7464 3.125
25.7767 2.187
25.8069 1.667
25.8372 2.135
25.8675 2.187
25.8978 2.083
25.9281 2.292
25.9583 2.396
25.9886 1.875
26.0189 2.500
26.0492 1.979
26.0794 2.031
26.1097 2.865
26.1400 2.552
26.1703 3.125
26.2006 2.552
26.2308 2.812
26.2611 2.031
26.2914 2.396
26.3217 2.083
26.3520 3.333
26.3822 2.917
26.4125 2.396
26.4428 2.135
26.4731 2.240
26.5034 2.135
26.5336 2.604
26.5639 2.708
26.5942 2.083
26.6245 2.708
26.6547 2.396
26.6850 2.292
26.7153 2.396
26.7456 2.552
26.7759 2.708
26.8061 2.448
26.8364 2.344
26.8667 2.812
26.8970 2.344
26.9273 2.240
26.9575 2.344
26.9878 2.031
27.0181 2.656
27.0484 2.135
27.0786 2.812
27.1089 2.552
27.1392 2.500
27.1695 2.344
27.1998 2.604
27.2300 3.385
27.2603 2.500
27.2906 2.031
27.3209 2.135
27.3512 2.969
27.3814 2.500
27.4117 2.708
27.4420 3.802
27.4723 2.292
27.5025 2.604
27.5328 2.969
27.5631 2.344
27.5934 3.073
27.6237 2.500
27.6539 1.823
27.6842 3.177
27.7145 2.812
27.7448 2.396
27.7751 2.448
27.8053 2.760
27.8356 2.708
27.8659 2.240
27.8962 2.969
27.9264 2.448
27.9567 2.552
27.9870 2.760
28.0173 3.073
28.0476 3.073
28.0778 1.562
28.1081 3.073
28.1384 3.646
28.1687 2.708
28.1990 3.229
28.2292 1.615
28.2595 2.448
28.2898 2.969
28.3201 3.021
28.3503 2.865
28.3806 2.812
28.4109 2.448
28.4412 3.073
28.4715 1.979
28.5017 2.500
28.5320 3.646
28.5623 3.125
28.5926 2.917
28.6229 1.875
28.6531 3.073
28.6834 3.073
28.7137 2.917
28.7440 3.333
28.7742 2.917
28.8045 2.708
28.8348 3.281
28.8651 2.760
28.8954 3.125
28.9256 2.500
28.9559 3.646
28.9862 2.500
29.0165 2.760
29.0468 2.812
29.0770 2.344
29.1073 2.708
29.1376 2.760
29.1679 4.062
29.1981 2.917
29.2284 3.385
29.2587 2.552
29.2890 3.073
29.3193 2.969
29.3495 2.708
29.3798 3.229
29.4101 3.802
29.4404 3.542
29.4707 2.500
29.5009 2.969
29.5312 2.865
29.5615 4.062
29.5918 2.135
29.6221 3.542
29.6523 3.542
29.6826 3.437
29.7129 3.177
29.7432 4.375
29.7734 3.385
29.8037 3.229
29.8340 3.646
29.8643 3.125
29.8946 3.490
29.9248 3.229
29.9551 3.802
29.9854 3.906
30.0157 3.490
30.0460 3.594
30.0762 3.490
30.1065 4.271
30.1368 4.010
30.1671 4.062
30.1973 3.646
30.2276 3.958
30.2579 4.635
30.2882 3.802
30.3185 3.750
30.3487 5.260
30.3790 3.490
30.4093 5.052
30.4396 5.365
30.4699 4.531
30.5001 4.792
30.5304 5.521
30.5607 5.937
30.5910 4.323
30.6212 6.094
30.6515 5.156
30.6818 5.417
30.7121 5.729
30.7424 6.250
30.7726 6.198
30.8029 5.469
30.8332 6.458
30.8635 6.458
30.8938 7.917
30.9240 6.927
30.9543 7.708
30.9846 7.656
31.0149 9.062
31.0451 9.323
31.0754 7.969
31.1057 10.625
31.1360 11.667
31.1663 12.135
31.1965 12.187
31.2268 14.219
31.2571 16.354
31.2874 17.917
31.3177 18.385
31.3479 19.635
31.3782 22.135
31.4085 27.240
31.4388 26.198
31.4690 30.312
31.4993 32.031
31.5296 33.854
31.5599 39.844
31.5902 41.823
31.6204 40.781
31.6507 39.844
31.6810 37.135
31.7113 36.562
31.7416 35.573
31.7718 28.750
31.8021 23.490
31.8324 24.948
31.8627 21.823
31.8929 19.792
31.9232 17.552
31.9535 14.635
31.9838 13.021
32.0141 14.062
32.0443 12.396
32.0746 11.667
32.1049 10.885
32.1352 10.625
32.1655 11.250
32.1957 8.437
32.2260 8.021
32.2563 7.552
32.2866 7.240
32.3169 7.969
32.3471 6.458
32.3774 5.833
32.4077 5.937
32.4380 5.469
32.4682 6.198
32.4985 5.937
32.5288 5.833
32.5591 5.469
32.5894 5.625
32.6196 5.417
32.6499 5.625
32.6802 6.198
32.7105 5.156
32.7408 4.844
32.7710 5.677
32.8013 5.573
32.8316 5.417
32.8619 5.208
32.8921 4.375
32.9224 5.260
32.9527 4.844
32.9830 5.208
33.0133 4.375
33.0435 4.792
33.0738 4.219
33.1041 4.792
33.1344 4.219
33.1647 5.365
33.1949 4.948
33.2252 4.635
33.2555 4.479
33.2858 4.792
33.3160 5.521
33.3463 5.417
33.3766 4.896
33.4069 5.000
33.4372 4.844
33.4674 5.521
33.4977 5.000
33.5280 5.052
33.5583 5.365
33.5886 5.625
33.6188 6.250
33.6491 6.302
33.6794 6.979
33.7097 6.927
33.7399 5.000
33.7702 6.510
33.8005 7.187
33.8308 7.760
33.8611 8.073
33.8913 8.125
33.9216 9.583
33.9519 9.687
33.9822 11.094
34.0125 12.812
34.0427 12.969
34.0730 16.354
34.1033 20.208
34.1336 21.927
34.1638 26.771
34.1941 32.760
34.2244 38.854
34.2547 42.656
34.2850 43.802
34.3152 45.677
34.3455 39.531
34.3758 36.250
34.4061 27.604
34.4364 24.583
34.4666 19.427
34.4969 14.896
34.5272 14.167
34.5575 11.875
34.5877 12.396
34.6180 11.510
34.6483 9.531
34.6786 8.542
34.7089 8.750
34.7391 8.385
34.7694 8.542
34.7997 7.500
34.8300 7.812
34.8603 7.500
34.8905 6.875
34.9208 8.073
34.9511 7.552
34.9814 7.812
35.0116 7.604
35.0419 8.333
35.0722 8.281
35.1025 7.552
35.1328 7.448
35.1630 7.240
35.1933 6.823
35.2236 7.292
35.2539 6.719
35.2842 8.333
35.3144 8.802
35.3447 8.854
35.3750 9.375
35.4053 9.948
35.4356 9.687
35.4658 9.062
35.4961 11.302
35.5264 11.094
35.5567 11.875
35.5869 12.500
35.6172 13.802
35.6475 15.469
35.6778 15.521
35.7081 17.031
35.7383 19.219
35.7686 19.167
35.7989 23.594
35.8292 27.396
35.8595 28.333
35.8897 31.406
35.9200 34.479
35.9503 36.250
35.9806 44.323
36.0108 45.156
36.0411 49.844
36.0714 51.667
36.1017 52.500
36.1320 54.792
36.1622 54.167
36.1925 53.125
36.2228 45.781
36.2531 42.969
36.2834 36.406
36.3136 34.062
36.3439 31.406
36.3742 26.094
36.4045 22.552
36.4347 20.052
36.4650 20.990
36.4953 17.500
36.5256 16.875
36.5559 14.531
36.5861 13.698
36.6164 11.250
36.6467 10.833
36.6770 10.469
36.7073 9.792
36.7375 8.802
36.7678 9.167
36.7981 7.396
36.8284 7.865
36.8586 8.437
36.8889 6.927
36.9192 7.083
36.9495 6.510
36.9798 6.562
37.0100 5.625
37.0403 5.260
37.0706 5.833
37.1009 5.104
37.1312 5.260
37.1614 5.260
37.1917 4.479
37.2220 4.792
37.2523 4.219
37.2825 4.010
37.3128 4.167
37.3431 4.062
37.3734 3.594
37.4037 4.844
37.4339 3.281
37.4642 4.010
37.4945 4.062
37.5248 3.906
37.5551 3.333
37.5853 4.010
37.6156 3.594
37.6459 3.125
37.6762 3.906
37.7064 3.906
37.7367 3.594
37.7670 4.167
37.7973 3.021
37.8276 3.698
37.8578 3.385
37.8881 3.073
37.9184 2.552
37.9487 3.229
37.9790 2.865
38.0092 3.021
38.0395 2.604
38.0698 3.177
38.1001 3.333
38.1304 3.073
38.1606 2.865
38.1909 2.500
38.2212 2.969
38.2515 2.812
38.2817 2.448
38.3120 2.552
38.3423 1.979
38.3726 2.656
38.4029 3.021
38.4331 2.969
38.4634 1.927
38.4937 2.292
38.5240 3.021
38.5543 2.604
38.5845 3.125
38.6148 2.552
38.6451 2.031
38.6754 2.292
38.7056 3.281
38.7359 2.187
38.7662 2.448
38.7965 2.865
38.8268 2.292
38.8570 1.823
38.8873 2.656
38.9176 2.292
38.9479 2.344
38.9782 1.667
39.0084 2.917
39.0387 1.927
39.0690 2.187
39.0993 2.917
39.1295 2.656
39.1598 2.240
39.1901 1.719
39.2204 2.396
39.2507 2.187
39.2809 2.604
39.3112 2.187
39.3415 2.500
39.3718 2.708
39.4021 1.354
39.4323 2.031
39.4626 2.865
39.4929 1.979
39.5232 2.396
39.5534 2.240
39.5837 1.979
39.6140 1.979
39.6443 1.979
39.6746 1.927
39.7048 2.292
39.7351 1.927
39.7654 2.240
39.7957 1.979
39.8260 1.979
39.8562 1.510
39.8865 2.552
39.9168 1.771
39.9471 2.552
39.9773 1.979
40.0076 1.562
40.0379 1.979
40.0682 1.979
40.0985 1.979
40.1287 2.396
40.1590 2.031
40.1893 1.458
40.2196 1.406
40.2499 1.823
40.2801 1.979
40.3104 2.552
40.3407 1.719
40.3710 1.979
40.4012 1.719
40.4315 2.135
40.4618 1.458
40.4921 2.083
40.5224 2.240
40.5526 2.240
40.5829 1.667
40.6132 1.615
40.6435 1.719
40.6738 1.354
40.7040 1.875
40.7343 1.771
40.7646 2.083
40.7949 1.719
40.8251 1.979
40.8554 1.615
40.8857 1.823
40.9160 1.979
40.9463 2.083
40.9765 2.187
41.0068 2.448
41.0371 1.302
41.0674 2.187
41.0977 1.562
41.1279 1.094
41.1582 2.396
41.1885 1.302
41.2188 1.719
41.2491 1.302
41.2793 2.292
41.3096 1.823
41.3399 1.667
41.3702 2.031
41.4004 1.875
41.4307 1.302
41.4610 1.771
41.4913 1.562
41.5216 2.187
41.5518 1.458
41.5821 1.823
41.6124 1.667
41.6427 1.458
41.6730 2.240
41.7032 1.615
41.7335 1.823
41.7638 1.094
41.7941 2.187
41.8243 1.719
41.8546 1.406
41.8849 1.510
41.9152 1.615
41.9455 1.615
41.9757 1.458
42.0060 1.979
42.0363 1.406
42.0666 1.615
42.0969 1.354
42.1271 1.510
42.1574 1.979
42.1877 2.292
42.2180 1.615
42.2482 1.875
42.2785 2.031
42.3088 1.719
42.3391 1.198
42.3694 1.354
42.3996 1.875
42.4299 1.719
42.4602 1.406
42.4905 1.823
42.5208 1.927
42.5510 2.031
42.5813 1.615
42.6116 1.719
42.6419 2.083
42.6721 1.719
42.7024 1.562
42.7327 1.146
42.7630 2.031
42.7933 1.823
42.8235 1.615
42.8538 1.562
42.8841 1.615
42.9144 1.562
42.9447 1.979
42.9749 1.875
43.0052 1.562
43.0355 2.396
43.0658 1.615
43.0960 1.771
43.1263 1.510
43.1566 1.771
43.1869 2.135
43.2172 1.615
43.2474 1.615
43.2777 1.406
43.3080 1.875
43.3383 1.667
43.3686 1.562
43.3988 1.302
43.4291 1.979
43.4594 1.875
43.4897 1.562
43.5199 1.510
43.5502 1.094
43.5805 1.771
43.6108 1.615
43.6411 2.135
43.6713 1.615
43.7016 2.135
43.7319 1.771
43.7622 1.562
43.7925 1.823
43.8227 2.135
43.8530 1.667
43.8833 1.615
43.9136 1.979
43.9439 2.396
43.9741 1.146
44.0044 2.083
44.0347 1.771
44.0650 2.031
44.0952 1.927
44.1255 1.615
44.1558 1.354
44.1861 1.979
44.2164 1.354
44.2466 2.344
44.2769 2.292
44.3072 1.615
44.3375 2.031
44.3678 1.927
44.3980 1.406
44.4283 1.771
44.4586 2.031
44.4889 1.875
44.5191 1.979
44.5494 1.979
44.5797 1.823
44.6100 2.604
44.6403 1.875
44.6705 1.615
44.7008 2.187
44.7311 1.510
44.7614 1.927
44.7917 1.771
44.8219 1.250
44.8522 1.510
44.8825 1.510
44.9128 2.083
44.9430 1.823
44.9733 2.083
45.0036 1.719
45.0339 2.083
45.0642 1.510
45.0944 1.771
45.1247 1.875
45.1550 1.667
45.1853 2.135
45.2156 1.927
45.2458 1.823
45.2761 1.719
45.3064 1.927
45.3367 2.031
45.3669 2.344
45.3972 1.771
45.4275 2.135
45.4578 2.083
45.4881 2.083
45.5183 1.927
45.5486 2.187
45.5789 2.031
45.6092 1.927
45.6395 1.562
45.6697 2.292
45.7000 2.083
45.7303 1.510
45.7606 2.656
45.7908 1.979
45.8211 1.615
45.8514 1.562
45.8817 1.927
45.9120 2.083
45.9422 2.187
45.9725 2.396
46.0028 2.031
46.0331 1.458
46.0634 2.292
46.0936 1.667
46.1239 1.562
46.1542 2.344
46.1845 2.031
46.2147 2.396
46.2450 2.240
46.2753 1.979
46.3056 1.927
46.3359 2.240
46.3661 2.708
46.3964 3.073
46.4267 1.979
46.4570 2.656
46.4873 2.135
46.5175 2.500
46.5478 2.656
46.5781 1.562
46.6084 2.187
46.6386 2.552
46.6689 2.240
46.6992 2.969
46.7295 2.812
46.7598 3.281
46.7900 2.500
46.8203 3.490
46.8506 3.021
46.8809 3.802
46.9112 3.385
46.9414 4.062
46.9717 4.531
47.0020 5.156
47.0323 4.896
47.0626 4.687
47.0928 5.208
47.1231 6.719
47.1534 7.135
47.1837 7.812
47.2139 8.281
47.2442 8.594
47.2745 9.010
47.3048 10.052
47.3351 10.990
47.3653 11.667
47.3956 11.562
47.4259 11.615
47.4562 11.458
47.4865 10.625
47.5167 10.000
47.5470 9.167
47.5773 9.062
47.6076 8.125
47.6378 7.135
47.6681 7.031
47.6984 5.365
47.7287 5.885
47.7590 4.375
47.7892 5.000
47.8195 4.375
47.8498 3.802
47.8801 3.594
47.9104 3.333
47.9406 3.594
47.9709 2.292
48.0012 3.437
48.0315 3.125
48.0617 3.021
48.0920 2.760
48.1223 2.552
48.1526 2.448
48.1829 2.500
48.2131 2.500
48.2434 2.344
48.2737 2.917
48.3040 2.500
48.3343 2.187
48.3645 1.927
48.3948 1.719
48.4251 2.187
48.4554 1.875
48.4856 3.021
48.5159 1.667
48.5462 2.292
48.5765 2.500
48.6068 2.135
48.6370 2.292
48.6673 2.031
48.6976 2.656
48.7279 2.083
48.7582 2.344
48.7884 2.083
48.8187 2.083
48.8490 2.135
48.8793 1.875
48.9095 1.979
48.9398 1.927
48.9701 1.667
49.0004 1.615
49.0307 2.240
49.0609 1.927
49.0912 1.979
49.1215 1.927
49.1518 2.083
49.1821 1.927
49.2123 1.979
49.2426 2.187
49.2729 1.302
49.3032 2.240
49.3334 1.562
49.3637 1.094
49.3940 1.823
49.4243 1.406
49.4546 1.667
49.4848 1.771
49.5151 1.667
49.5454 1.615
49.5757 1.146
49.6060 2.500
49.6362 1.719
49.6665 2.083
49.6968 1.302
49.7271 1.354
49.7574 1.719
49.7876 2.135
49.8179 1.146
49.8482 2.448
49.8785 1.302
49.9087 2.135
49.9390 1.198
49.9693 1.927
49.9996 1.302
50.0299 2.292
50.0601 2.344
50.0904 1.250
50.1207 1.406
50.1510 1.771
50.1813 1.250
50.2115 1.458
50.2418 1.927
50.2721 1.719
50.3024 1.719
50.3326 1.615
50.3629 1.771
50.3932 1.562
50.4235 2.240
50.4538 1.562
50.4840 1.250
50.5143 1.302
50.5446 1.510
50.5749 1.250
50.6052 1.771
50.6354 1.927
50.6657 1.875
50.6960 2.344
50.7263 2.083
50.7565 1.875
50.7868 1.719
50.8171 1.510
50.8474 2.187
50.8777 1.979
50.9079 2.187
50.9382 1.667
50.9685 1.562
50.9988 1.615
51.0291 1.510
51.0593 2.031
51.0896 1.667
51.1199 1.719
51.1502 1.302
51.1804 2.083
51.2107 1.719
51.2410 1.875
51.2713 2.448
51.3016 2.083
51.3318 1.875
51.3621 1.719
51.3924 1.771
51.4227 1.354
51.4530 1.771
51.4832 1.354
51.5135 1.562
51.5438 1.250
51.5741 1.771
51.6043 1.302
51.6346 1.771
51.6649 1.771
51.6952 1.615
51.7255 0.990
51.7557 1.979
51.7860 1.719
51.8163 1.458
51.8466 1.615
51.8769 1.458
51.9071 1.302
51.9374 1.302
51.9677 1.823
51.9980 1.198
52.0282 1.146
52.0585 1.719
52.0888 1.719
52.1191 1.719
52.1494 1.771
52.1796 1.667
52.2099 1.771
52.2402 1.458
52.2705 1.302
52.3008 1.458
52.3310 1.354
52.3613 1.927
52.3916 1.927
52.4219 2.135
52.4521 1.875
52.4824 2.135
52.5127 1.927
52.5430 1.927
52.5733 1.094
52.6035 1.927
52.6338 1.302
52.6641 1.094
52.6944 1.615
52.7247 1.615
52.7549 1.823
52.7852 1.719
52.8155 1.823
52.8458 1.458
52.8761 1.354
52.9063 1.458
52.9366 1.615
52.9669 1.510
52.9972 1.875
53.0274 2.031
53.0577 1.719
53.0880 1.562
53.1183 1.667
53.1486 1.302
53.1788 1.875
53.2091 1.615
53.2394 1.979
53.2697 1.562
53.3000 1.771
53.3302 1.771
53.3605 1.562
53.3908 2.135
53.4211 2.344
53.4513 1.823
53.4816 1.615
53.5119 1.615
53.5422 1.667
53.5725 2.240
53.6027 1.979
53.6330 2.083
53.6633 1.458
53.6936 1.719
53.7239 1.875
53.7541 1.615
53.7844 1.667
53.8147 1.875
53.8450 1.875
53.8752 1.823
53.9055 2.448
53.9358 2.187
53.9661 1.458
53.9964 1.875
54.0266 2.292
54.0569 2.187
54.0872 2.240
54.1175 2.031
54.1478 1.562
54.1780 1.302
54.2083 1.771
54.2386 2.552
54.2689 1.510
54.2991 1.458
54.3294 1.875
54.3597 2.187
54.3900 1.927
54.4203 1.823
54.4505 1.771
54.4808 1.875
54.5111 1.979
54.5414 1.771
54.5717 1.927
54.6019 1.823
54.6322 1.823
54.6625 2.083
54.6928 1.823
54.7230 2.083
54.7533 2.500
54.7836 2.500
54.8139 2.552
54.8442 1.979
54.8744 2.031
54.9047 2.135
54.9350 1.771
54.9653 1.250
54.9956 2.396
55.0258 3.073
55.0561 2.135
55.0864 1.875
55.1167 2.396
55.1469 1.979
55.1772 2.240
55.2075 2.969
55.2378 2.187
55.2681 2.292
55.2983 2.917
55.3286 2.448
55.3589 2.344
55.3892 2.812
55.4195 2.708
55.4497 2.708
55.4800 3.333
55.5103 1.719
55.5406 2.187
55.5709 2.552
55.6011 3.125
55.6314 2.917
55.6617 3.281
55.6920 3.177
55.7222 2.448
55.7525 3.125
55.7828 4.115
55.8131 4.427
55.8434 4.115
55.8736 3.281
55.9039 4.427
55.9342 3.906
55.9645 3.958
55.9948 5.104
56.0250 4.531
56.0553 5.990
56.0856 5.260
56.1159 6.458
56.1461 7.969
56.1764 6.927
56.2067 8.437
56.2370 9.427
56.2673 8.802
56.2975 10.365
56.3278 11.771
56.3581 11.927
56.3884 13.437
56.4187 12.969
56.4489 13.125
56.4792 15.312
56.5095 14.844
56.5398 12.917
56.5700 11.719
56.6003 11.979
56.6306 10.208
56.6609 10.417
56.6912 9.740
56.7214 7.760
56.7517 8.073
56.7820 6.198
56.8123 7.448
56.8426 6.458
56.8728 5.573
56.9031 5.729
56.9334 4.844
56.9637 4.583
56.9939 4.115
57.0242 5.417
57.0545 4.635
57.0848 3.490
57.1151 3.490
57.1453 3.229
57.1756 3.646
57.2059 3.542
57.2362 2.917
57.2665 1.979
57.2967 2.604
57.3270 2.812
57.3573 2.917
57.3876 3.177
57.4178 2.812
57.4481 3.333
57.4784 2.812
57.5087 2.344
57.5390 1.927
57.5692 2.917
57.5995 2.604
57.6298 2.344
57.6601 2.240
57.6904 2.083
57.7206 2.240
57.7509 2.240
57.7812 1.615
57.8115 1.719
57.8417 2.240
57.8720 2.240
57.9023 1.875
57.9326 2.187
57.9629 2.031
57.9931 2.240
58.0234 2.135
58.0537 1.615
58.0840 1.979
58.1143 1.823
58.1445 2.240
58.1748 1.615
58.2051 2.135
58.2354 2.135
58.2656 1.719
58.2959 1.719
58.3262 1.719
58.3565 1.719
58.3868 2.187
58.4170 1.875
58.4473 2.083
58.4776 2.240
58.5079 1.719
58.5382 2.135
58.5684 1.198
58.5987 1.510
58.6290 1.615
58.6593 1.354
58.6896 1.406
58.7198 1.562
58.7501 1.719
58.7804 1.979
58.8107 1.615
58.8409 1.354
58.8712 1.979
58.9015 1.875
58.9318 1.302
58.9621 2.031
58.9923 1.823
59.0226 1.823
59.0529 2.083
59.0832 2.083
59.1135 1.510
59.1437 2.292
59.1740 1.562
59.2043 1.719
59.2346 1.562
59.2648 1.510
59.2951 1.667
59.3254 1.927
59.3557 1.406
59.3860 1.667
59.4162 2.240
59.4465 1.562
59.4768 1.875
59.5071 1.823
59.5374 1.927
59.5676 1.667
59.5979 1.302
59.6282 1.615
59.6585 1.823
59.6887 1.927
59.7190 2.292
59.7493 2.135
59.7796 1.979
59.8099 2.031
59.8401 1.510
59.8704 1.719
59.9007 2.031
59.9310 1.510
59.9613 1.979
59.9915 1.562
60.0218 2.031
60.0521 1.823
60.0824 1.823
60.1126 1.562
60.1429 1.458
60.1732 2.083
60.2035 1.823
60.2338 1.667
60.2640 1.146
60.2943 1.927
60.3246 1.458
60.3549 1.927
60.3852 1.562
60.4154 1.302
60.4457 1.562
60.4760 1.771
60.5063 1.875
60.5365 1.719
60.5668 1.615
60.5971 1.823
60.6274 1.562
60.6577 2.187
60.6879 1.719
60.7182 1.667
60.7485 2.031
60.7788 1.667
60.8091 2.031
60.8393 1.667
60.8696 2.240
60.8999 1.458
60.9302 2.187
60.9604 1.927
60.9907 1.875
61.0210 2.083
61.0513 1.979
61.0816 2.083
61.1118 2.812
61.1421 1.979
61.1724 2.708
61.2027 2.240
61.2330 1.667
61.2632 1.875
61.2935 2.083
61.3238 1.719
61.3541 1.458
61.3844 2.865
61.4146 2.187
61.4449 1.979
61.4752 2.083
61.5055 1.927
61.5357 2.031
61.5660 2.135
61.5963 1.875
61.6266 2.448
61.6569 2.552
61.6871 1.875
61.7174 2.604
61.7477 2.552
61.7780 2.969
61.8083 2.240
61.8385 2.552
61.8688 3.177
61.8991 2.656
61.9294 2.031
61.9596 2.760
61.9899 4.010
62.0202 3.698
62.0505 3.021
62.0808 4.062
62.1110 3.646
62.1413 2.969
62.1716 3.958
62.2019 3.281
62.2322 4.062
62.2624 4.896
62.2927 5.052
62.3230 4.375
62.3533 4.740
62.3835 5.000
62.4138 6.458
62.4441 5.365
62.4744 6.719
62.5047 8.437
62.5349 8.542
62.5652 8.594
62.5955 9.271
62.6258 10.365
62.6561 11.094
62.6863 10.885
62.7166 10.521
62.7469 14.062
62.7772 11.510
62.8074 11.979
62.8377 11.042
62.8680 10.521
62.8983 8.750
62.9286 9.479
62.9588 9.427
62.9891 7.500
63.0194 8.073
63.0497 6.198
63.0800 6.094
63.1102 6.979
63.1405 5.937
63.1708 4.219
63.2011 4.635
63.2313 4.531
63.2616 3.385
63.2919 3.333
63.3222 3.646
63.3525 3.229
63.3827 3.125
63.4130 2.917
63.4433 3.125
63.4736 3.073
63.5039 3.073
63.5341 2.552
63.5644 3.177
63.5947 2.031
63.6250 2.396
63.6552 2.292
63.6855 1.979
63.7158 2.552
63.7461 2.187
63.7764 2.135
63.8066 2.083
63.8369 1.979
63.8672 2.083
63.8975 2.240
63.9278 2.500
63.9580 1.927
63.9883 2.240
64.0186 1.510
64.0489 1.979
64.0791 2.292
64.1094 1.979
64.1397 1.719
64.1700 1.771
64.2003 1.979
64.2305 1.927
64.2608 1.667
64.2911 1.927
64.3214 2.500
64.3517 1.927
64.3819 2.344
64.4122 1.771
64.4425 1.667
64.4728 1.771
64.5031 1.979
64.5333 2.500
64.5636 1.927
64.5939 1.719
64.6242 1.875
64.6544 1.979
64.6847 1.458
64.7150 2.031
64.7453 1.719
64.7756 1.875
64.8058 1.979
64.8361 1.771
64.8664 1.875
64.8967 1.771
64.9270 1.562
64.9572 1.510
64.9875 2.083
65.0178 1.562
65.0481 1.667
65.0783 1.719
65.1086 1.719
65.1389 2.240
65.1692 2.344
65.1995 2.135
65.2297 1.562
65.2600 2.240
65.2903 1.927
65.3206 1.406
65.3509 2.031
65.3811 1.562
65.4114 2.031
65.4417 2.187
65.4720 2.083
65.5022 2.135
65.5325 1.979
65.5628 1.615
65.5931 1.875
65.6234 2.292
65.6536 2.240
65.6839 2.031
65.7142 2.969
65.7445 2.187
65.7748 1.823
65.8050 1.927
65.8353 2.344
65.8656 2.552
65.8959 2.917
65.9261 2.344
65.9564 2.292
65.9867 2.240
66.0170 3.906
66.0473 2.031
66.0775 2.604
66.1078 2.760
66.1381 3.281
66.1684 2.500
66.1987 3.281
66.2289 2.969
66.2592 2.917
66.2895 2.865
66.3198 3.594
66.3500 3.385
66.3803 3.125
66.4106 3.021
66.4409 3.333
66.4712 2.344
66.5014 2.448
66.5317 2.760
66.5620 3.073
66.5923 2.396
66.6226 2.865
66.6528 2.760
66.6831 2.917
66.7134 2.760
66.7437 2.656
66.7739 2.865
66.8042 2.865
66.8345 2.240
66.8648 3.281
66.8951 2.031
66.9253 2.344
66.9556 2.760
66.9859 2.396
67.0162 3.229
67.0465 2.865
67.0767 2.396
67.1070 3.021
67.1373 3.750
67.1676 2.656
67.1978 3.437
67.2281 2.396
67.2584 3.802
67.2887 4.427
67.3190 3.854
67.3492 4.062
67.3795 4.323
67.4098 4.062
67.4401 4.844
67.4704 4.948
67.5006 5.833
67.5309 5.625
67.5612 5.521
67.5915 5.833
67.6218 7.187
67.6520 6.094
67.6823 6.875
67.7126 7.969
67.7429 9.219
67.7731 8.333
67.8034 8.594
67.8337 8.646
67.8640 7.604
67.8943 8.802
67.9245 8.125
67.9548 8.229
67.9851 9.167
68.0154 6.719
68.0457 6.562
68.0759 5.781
68.1062 6.510
68.1365 5.885
68.1668 4.531
68.1970 6.094
68.2273 4.271
68.2576 4.740
68.2879 4.583
68.3182 4.583
68.3484 4.427
68.3787 5.052
68.4090 4.427
68.4393 4.115
68.4696 4.010
68.4998 3.906
68.5301 4.010
68.5604 4.375
68.5907 3.906
68.6209 4.792
68.6512 4.010
68.6815 4.479
68.7118 3.802
68.7421 4.792
68.7723 4.010
68.8026 4.896
68.8329 5.365
68.8632 4.479
68.8935 4.531
68.9237 4.010
68.9540 5.208
68.9843 4.896
69.0146 4.375
69.0448 4.115
69.0751 3.750
69.1054 4.531
69.1357 3.854
69.1660 4.375
69.1962 3.229
69.2265 4.115
69.2568 3.802
69.2871 3.750
69.3174 2.812
69.3476 3.698
69.3779 2.396
69.4082 2.760
69.4385 3.073
69.4687 2.135
69.4990 2.656
69.5293 2.812
69.5596 2.760
69.5899 2.656
69.6201 1.823
69.6504 2.292
69.6807 2.187
69.7110 2.292
69.7413 1.562
69.7715 2.500
69.8018 2.031
69.8321 1.615
69.8624 1.615
69.8926 1.302
69.9229 1.927
69.9532 1.771
69.9835 1.771
70.0138 1.667
70.0440 1.302
70.0743 2.031
70.1046 2.135
70.1349 1.615
70.1652 1.354
70.1954 1.823
70.2257 1.302
70.2560 1.094
70.2863 1.771
70.3166 1.198
70.3468 1.406
70.3771 1.406
70.4074 1.302
70.4377 1.302
70.4679 1.667
70.4982 1.250
70.5285 1.250
70.5588 1.615
70.5891 1.094
70.6193 1.510
70.6496 1.406
70.6799 1.771
70.7102 1.458
70.7405 1.719
70.7707 1.562
70.8010 1.771
70.8313 1.615
70.8616 1.302
70.8918 0.833
70.9221 1.302
70.9524 1.250
70.9827 1.250
71.0130 1.354
71.0432 1.510
71.0735 1.146
71.1038 1.406
71.1341 1.562
71.1644 1.042
71.1946 1.198
71.2249 1.615
71.2552 0.885
71.2855 1.927
71.3157 1.146
71.3460 1.250
71.3763 1.250
71.4066 1.354
71.4369 0.885
71.4671 1.302
71.4974 1.250
71.5277 0.937
71.5580 1.354
71.5883 1.458
71.6185 0.833
71.6488 0.990
71.6791 1.562
71.7094 1.510
71.7396 1.510
71.7699 1.406
71.8002 1.510
71.8305 1.406
71.8608 1.406
71.8910 1.510
71.9213 1.406
71.9516 1.250
71.9819 0.937
72.0122 1.719
72.0424 1.250
72.0727 1.771
72.1030 1.979
72.1333 1.510
72.1635 1.458
72.1938 1.823
72.2241 1.771
72.2544 1.250
72.2847 1.875
72.3149 1.823
72.3452 1.667
72.3755 1.823
72.4058 2.240
72.4361 1.719
72.4663 1.771
72.4966 1.354
72.5269 2.135
72.5572 1.719
72.5874 1.979
72.6177 1.562
72.6480 1.771
72.6783 0.990
72.7086 1.979
72.7388 1.562
72.7691 1.250
72.7994 1.406
72.8297 1.562
72.8600 1.354
72.8902 1.198
72.9205 1.042
72.9508 1.302
72.9811 1.198
73.0113 0.990
73.0416 1.146
73.0719 1.146
73.1022 1.094
73.1325 1.198
73.1627 1.562
73.1930 1.354
73.2233 0.937
73.2536 1.250
73.2839 1.250
73.3141 1.250
73.3444 0.781
73.3747 1.667
73.4050 1.354
73.4353 1.094
73.4655 1.250
73.4958 1.250
73.5261 0.990
73.5564 1.406
73.5866 1.406
73.6169 1.719
73.6472 1.354
73.6775 1.458
73.7078 1.250
73.7380 1.250
73.7683 0.885
73.7986 1.198
73.8289 1.094
73.8592 1.406
73.8894 1.250
73.9197 1.198
73.9500 0.885
73.9803 1.302
74.0105 0.781
74.0408 1.042
74.0711 1.042
74.1014 1.042
74.1317 1.198
74.1619 1.250
74.1922 1.198
74.2225 0.990
74.2528 1.510
74.2831 1.146
74.3133 1.198
74.3436 1.042
74.3739 0.937
74.4042 0.729
74.4344 0.990
74.4647 0.990
74.4950 1.198
74.5253 1.094
74.5556 1.458
74.5858 0.937
74.6161 1.458
74.6464 1.198
74.6767 1.198
74.7070 1.458
74.7372 0.833
74.7675 1.042
74.7978 1.198
74.8281 0.625
74.8583 1.042
74.8886 0.833
74.9189 1.042
74.9492 1.198
74.9795 1.250
75.0097 1.198
75.0400 1.094
75.0703 0.781
75.1006 1.458
75.1309 1.042
75.1611 1.094
75.1914 1.198
75.2217 1.146
75.2520 1.146
75.2822 1.354
75.3125 1.250
75.3428 1.146
75.3731 1.406
75.4034 1.094
75.4336 1.615
75.4639 1.094
75.4942 1.354
75.5245 0.885
75.5548 1.719
75.5850 1.042
75.6153 1.198
75.6456 0.833
75.6759 1.198
75.7061 0.312
75.7364 1.198
75.7667 1.406
75.7970 1.042
75.8273 1.250
75.8575 1.198
75.8878 1.146
75.9181 1.198
75.9484 1.875
75.9787 1.094
76.0089 1.406
76.0392 1.198
76.0695 1.354
76.0998 1.094
76.1301 1.302
76.1603 1.042
76.1906 1.042
76.2209 0.937
76.2512 1.562
76.2814 1.146
76.3117 1.354
76.3420 1.615
76.3723 1.198
76.4026 1.615
76.4328 1.354
76.4631 1.719
76.4934 1.823
76.5237 1.250
76.5540 1.615
76.5842 1.771
76.6145 1.510
76.6448 2.292
76.6751 1.823
76.7053 1.823
76.7356 2.187
76.7659 2.240
76.7962 1.979
76.8265 1.823
76.8567 1.615
76.8870 2.135
76.9173 2.552
76.9476 1.302
76.9779 1.771
77.0081 1.719
77.0384 1.667
77.0687 2.031
77.0990 1.927
77.1292 1.875
77.1595 1.719
77.1898 2.135
77.2201 1.667
77.2504 2.135
77.2806 1.198
77.3109 1.458
77.3412 1.354
77.3715 1.510
77.4018 1.927
77.4320 1.667
77.4623 1.719
77.4926 1.198
77.5229 0.573
77.5531 0.885
77.5834 1.719
77.6137 1.406
77.6440 0.990
77.6743 0.990
77.7045 1.458
77.7348 1.667
77.7651 1.198
77.7954 1.250
77.8257 1.198
77.8559 0.833
77.8862 1.198
77.9165 1.250
77.9468 1.094
77.9770 1.198
78.0073 1.719
78.0376 1.719
78.0679 0.990
78.0982 1.198
78.1284 1.562
78.1587 0.781
78.1890 1.875
78.2193 1.250
78.2496 1.510
78.2798 0.781
78.3101 0.833
78.3404 0.990
78.3707 0.833
78.4009 1.406
78.4312 1.146
78.4615 1.250
78.4918 1.198
78.5221 1.198
78.5523 1.146
78.5826 1.042
78.6129 1.146
78.6432 1.146
78.6735 0.937
78.7037 1.042
78.7340 1.146
78.7643 1.250
78.7946 1.458
78.8248 1.198
78.8551 0.937
78.8854 0.990
78.9157 0.937
78.9460 1.198
78.9762 0.990
79.0065 1.562
79.0368 1.042
79.0671 0.937
79.0974 1.302
79.1276 1.146
79.1579 1.198
79.1882 1.250
79.2185 1.250
79.2488 1.198
79.2790 1.198
79.3093 1.094
79.3396 1.354
79.3699 1.302
79.4001 1.250
79.4304 0.833
79.4607 0.729
79.4910 1.042
79.5213 0.781
79.5515 1.146
79.5818 1.510
79.6121 1.042
79.6424 1.667
79.6727 0.990
79.7029 1.354
79.7332 0.833
79.7635 0.729
79.7938 0.990
79.8240 0.990
79.8543 1.302
79.8846 1.198
79.9149 1.458
79.9452 1.198
79.9754 0.885
80.0057 0.990
80.0360 1.250
80.0663 1.198
80.0966 1.094
80.1268 1.094
80.1571 1.094
80.1874 1.406
80.2177 1.146
80.2479 1.198
80.2782 0.729
80.3085 1.302
80.3388 1.302
80.3691 0.937
80.3993 0.885
80.4296 1.198
80.4599 0.833
80.4902 1.094
80.5205 1.354
80.5507 0.990
80.5810 1.458
80.6113 1.094
80.6416 1.354
80.6718 1.354
80.7021 0.677
80.7324 1.979
80.7627 1.094
80.7930 1.198
80.8232 1.198
80.8535 1.667
80.8838 1.094
80.9141 1.198
80.9444 1.146
80.9746 0.990
81.0049 1.510
81.0352 0.937
81.0655 1.510
81.0957 1.667
81.1260 1.354
81.1563 1.510
81.1866 1.667
81.2169 1.667
81.2471 1.979
81.2774 1.198
81.3077 1.042
81.3380 1.198
81.3683 1.979
81.3985 1.146
81.4288 1.354
81.4591 1.354
81.4894 1.510
81.5196 1.927
81.5499 1.875
81.5802 1.354
81.6105 0.833
81.6408 1.510
81.6710 1.198
81.7013 1.198
81.7316 0.833
81.7619 0.781
81.7922 0.833
81.8224 0.885
81.8527 1.198
81.8830 1.146
81.9133 1.302
81.9436 1.042
81.9738 0.781
82.0041 1.458
82.0344 1.094
82.0647 1.354
82.0949 0.885
82.1252 1.302
82.1555 1.146
82.1858 1.146
82.2161 1.615
82.2463 1.198
82.2766 0.729
82.3069 0.729
82.3372 0.990
82.3675 0.937
82.3977 0.990
82.4280 1.406
82.4583 0.885
82.4886 1.406
82.5188 1.042
82.5491 1.146
82.5794 1.250
82.6097 1.094
82.6400 1.198
82.6702 0.990
82.7005 1.198
82.7308 1.406
82.7611 0.729
82.7914 1.198
82.8216 0.990
82.8519 0.833
82.8822 1.198
82.9125 0.937
82.9427 1.406
82.9730 0.885
83.0033 1.094
83.0336 0.833
83.0639 0.729
83.0941 0.990
83.1244 1.198
83.1547 1.354
83.1850 0.990
83.2153 1.146
83.2455 0.729
83.2758 0.990
83.3061 0.729
83.3364 1.042
83.3666 1.042
83.3969 0.885
83.4272 1.354
83.4575 0.990
83.4878 0.833
83.5180 1.146
83.5483 0.833
83.5786 1.458
83.6089 1.406
83.6392 0.312
83.6694 0.990
83.6997 1.302
83.7300 1.458
83.7603 1.042
83.7905 0.885
83.8208 1.510
83.8511 1.354
83.8814 1.406
83.9117 1.510
83.9419 1.198
83.9722 0.781
84.0025 1.042
84.0328 1.198
84.0631 0.781
84.0933 0.885
84.1236 0.937
84.1539 1.094
84.1842 1.042
84.2144 1.406
84.2447 0.937
84.2750 1.562
84.3053 1.146
84.3356 0.833
84.3658 1.198
84.3961 1.198
84.4264 1.198
84.4567 0.990
84.4870 1.302
84.5172 1.146
84.5475 1.250
84.5778 0.937
84.6081 1.198
84.6383 1.510
84.6686 0.937
84.6989 0.990
84.7292 1.146
84.7595 1.094
84.7897 1.250
84.8200 0.781
84.8503 0.990
84.8806 1.719
84.9109 0.885
84.9411 0.729
84.9714 1.042
85.0017 1.042
85.0320 0.937
85.0623 0.885
85.0925 0.885
85.1228 1.146
85.1531 1.250
85.1834 1.146
85.2136 0.990
85.2439 1.667
85.2742 0.729
85.3045 1.198
85.3348 1.198
85.3650 0.885
85.3953 0.625
85.4256 1.094
85.4559 1.250
85.4862 0.469
85.5164 1.302
85.5467 0.990
85.5770 1.198
85.6073 0.990
85.6375 1.667
85.6678 0.781
85.6981 1.510
85.7284 0.937
85.7587 0.729
85.7889 1.458
85.8192 0.937
85.8495 1.667
85.8798 1.094
85.9101 1.094
85.9403 1.458
85.9706 1.302
86.0009 1.354
86.0312 0.729
86.0614 1.094
86.0917 0.729
86.1220 1.198
86.1523 1.250
86.1826 1.406
86.2128 0.833
86.2431 1.302
86.2734 1.458
86.3037 0.833
86.3340 0.990
86.3642 0.885
86.3945 1.198
86.4248 0.781
86.4551 0.833
86.4853 1.406
86.5156 0.781
86.5459 1.406
86.5762 1.198
86.6065 1.094
86.6367 0.833
86.6670 0.781
86.6973 0.990
86.7276 1.146
86.7579 1.354
86.7881 0.990
86.8184 0.937
86.8487 1.198
86.8790 1.250
86.9092 1.198
86.9395 1.198
86.9698 0.990
87.0001 0.885
87.0304 1.406
87.0606 0.937
87.0909 0.885
87.1212 0.833
87.1515 1.094
87.1818 0.885
87.2120 0.937
87.2423 0.729
87.2726 0.885
87.3029 1.510
87.3331 1.510
87.3634 0.937
87.3937 0.937
87.4240 0.990
87.4543 1.250
87.4845 1.354
87.5148 1.198
87.5451 1.198
87.5754 0.885
87.6057 0.885
87.6359 0.833
87.6662 0.677
87.6965 1.146
87.7268 1.146
87.7571 1.198
87.7873 0.937
87.8176 0.833
87.8479 0.729
87.8782 0.885
87.9084 1.302
87.9387 0.781
87.9690 0.885
87.9993 1.562
88.0296 1.094
88.0598 1.250
88.0901 0.781
88.1204 1.354
88.1507 1.615
88.1810 1.198
88.2112 1.146
88.2415 1.198
88.2718 1.198
88.3021 0.781
88.3323 0.990
88.3626 1.406
88.3929 0.937
88.4232 0.990
88.4535 1.302
88.4837 1.510
88.5140 1.354
88.5443 0.990
88.5746 1.771
88.6049 1.198
88.6351 1.250
88.6654 1.406
88.6957 1.615
88.7260 1.198
88.7562 1.458
88.7865 1.250
88.8168 1.562
88.8471 1.406
88.8774 1.458
88.9076 2.240
88.9379 1.458
88.9682 1.823
88.9985 1.719
89.0288 1.146
89.0590 2.031
89.0893 1.927
89.1196 1.927
89.1499 2.396
89.1801 2.344
89.2104 2.135
89.2407 2.240
89.2710 2.500
89.3013 2.240
89.3315 2.031
89.3618 2.396
89.3921 2.500
89.4224 2.396
89.4527 2.656
89.4829 1.875
89.5132 2.135
89.5435 3.021
89.5738 2.604
89.6040 2.448
89.6343 3.229
89.6646 2.135
89.6949 2.604
89.7252 2.135
89.7554 2.344
89.7857 1.979
89.8160 2.135
89.8463 1.875
89.8766 2.135
89.9068 2.135
89.9371 1.458
89.9674 1.667
89.9977 1.823
90.0279 1.719
90.0582 1.719
90.0885 1.510
90.1188 1.667
90.1491 1.146
90.1793 2.031
90.2096 1.771
90.2399 1.771
90.2702 1.458
90.3005 1.198
90.3307 1.823
90.3610 1.302
90.3913 1.198
90.4216 0.990
90.4518 1.198
90.4821 1.510
90.5124 1.146
90.5427 1.198
90.5730 1.510
90.6032 1.198
90.6335 1.510
90.6638 1.510
90.6941 1.615
90.7244 1.406
90.7546 1.198
90.7849 1.094
90.8152 0.937
90.8455 1.562
90.8758 1.354
90.9060 1.250
90.9363 1.510
90.9666 0.937
90.9969 1.198
91.0271 1.198
91.0574 0.885
91.0877 1.198
91.1180 1.146
91.1483 1.146
91.1785 1.302
91.2088 1.198
91.2391 1.198
91.2694 1.198
91.2997 0.990
91.3299 0.937
91.3602 1.198
91.3905 0.937
91.4208 0.937
91.4510 1.250
91.4813 1.406
91.5116 0.937
91.5419 1.562
91.5722 1.510
91.6024 1.406
91.6327 1.250
91.6630 1.042
91.6933 1.146
91.7236 1.094
91.7538 1.198
91.7841 1.615
91.8144 1.667
91.8447 0.781
91.8749 1.406
91.9052 1.406
91.9355 1.094
91.9658 1.146
91.9961 0.833
92.0263 1.250
92.0566 1.250
92.0869 1.198
92.1172 1.562
92.1475 1.146
92.1777 1.667
92.2080 1.771
92.2383 0.990
92.2686 0.990
92.2988 1.146
92.3291 1.198
92.3594 1.302
92.3897 1.198
92.4200 1.250
92.4502 1.562
92.4805 1.302
92.5108 1.667
92.5411 1.823
92.5714 1.719
92.6016 1.510
92.6319 2.292
92.6622 2.135
92.6925 1.302
92.7227 2.031
92.7530 1.198
92.7833 1.875
92.8136 1.198
92.8439 1.667
92.8741 1.198
92.9044 1.771
92.9347 1.615
92.9650 1.198
92.9953 1.354
93.0255 2.135
93.0558 2.135
93.0861 1.667
93.1164 1.354
93.1466 1.250
93.1769 1.198
93.2072 1.615
93.2375 1.562
93.2678 1.198
93.2980 1.250
93.3283 1.146
93.3586 1.510
93.3889 0.729
93.4192 1.510
93.4494 1.250
93.4797 1.458
93.5100 1.302
93.5403 1.094
93.5706 1.042
93.6008 1.406
93.6311 1.094
93.6614 0.885
93.6917 1.094
93.7219 0.885
93.7522 1.510
93.7825 1.302
93.8128 1.719
93.8431 1.667
93.8733 1.823
93.9036 1.302
93.9339 0.937
93.9642 0.781
93.9945 1.250
94.0247 1.198
94.0550 1.302
94.0853 1.719
94.1156 1.719
94.1458 1.458
94.1761 1.042
94.2064 1.667
94.2367 1.302
94.2670 1.302
94.2972 0.833
94.3275 1.250
94.3578 1.042
94.3881 1.302
94.4184 1.615
94.4486 0.990
94.4789 1.927
94.5092 1.875
94.5395 1.667
94.5697 1.562
94.6000 2.187
94.6303 1.719
94.6606 1.510
94.6909 1.354
94.7211 1.198
94.7514 1.562
94.7817 2.187
94.8120 2.083
94.8423 2.031
94.8725 1.406
94.9028 2.500
94.9331 2.604
94.9634 2.552
94.9936 2.240
95.0239 1.771
95.0542 3.021
95.0845 2.708
95.1148 2.344
95.1450 3.021
95.1753 2.656
95.2056 2.708
95.2359 3.229
95.2662 2.500
95.2964 2.448
95.3267 2.865
95.3570 2.708
95.3873 2.552
95.4175 2.708
95.4478 1.667
95.4781 2.240
95.5084 2.708
95.5387 2.187
95.5689 1.719
95.5992 1.979
95.6295 1.615
95.6598 2.240
95.6901 1.875
95.7203 1.615
95.7506 2.083
95.7809 1.771
95.8112 1.615
95.8414 1.354
95.8717 1.510
95.9020 1.510
95.9323 1.719
95.9626 1.198
95.9928 1.615
96.0231 1.562
96.0534 1.458
96.0837 1.823
96.1140 1.510
96.1442 1.250
96.1745 1.250
96.2048 1.458
96.2351 1.302
96.2653 1.354
96.2956 1.719
96.3259 1.510
96.3562 1.198
96.3865 1.198
96.4167 1.615
96.4470 1.719
96.4773 0.990
96.5076 1.094
96.5379 1.510
96.5681 1.198
96.5984 0.677
96.6287 1.250
96.6590 1.250
96.6893 1.146
96.7195 1.406
96.7498 1.615
96.7801 1.042
96.8104 1.250
96.8406 1.250
96.8709 1.562
96.9012 1.302
96.9315 1.250
96.9618 1.250
96.9920 1.771
97.0223 0.833
97.0526 1.354
97.0829 1.302
97.1132 1.198
97.1434 0.990
97.1737 1.146
97.2040 1.250
97.2343 1.406
97.2645 1.042
97.2948 1.250
97.3251 1.458
97.3554 1.250
97.3857 1.562
97.4159 1.146
97.4462 1.146
97.4765 1.250
97.5068 1.250
97.5371 0.990
97.5673 1.510
97.5976 1.250
97.6279 1.042
97.6582 1.458
97.6884 1.250
97.7187 1.406
97.7490 1.302
97.7793 1.615
97.8096 0.885
97.8398 1.615
97.8701 1.094
97.9004 1.562
97.9307 1.406
97.9610 1.094
97.9912 1.562
98.0215 1.302
98.0518 1.510
98.0821 1.146
98.1123 1.510
98.1426 1.667
98.1729 1.927
98.2032 1.927
98.2335 1.562
98.2637 1.510
98.2940 1.667
98.3243 2.344
98.3546 1.667
98.3849 1.406
98.4151 1.771
98.4454 2.135
98.4757 1.927
98.5060 1.771
98.5362 1.667
98.5665 1.615
98.5968 2.187
98.6271 1.823
98.6574 2.031
98.6876 1.719
98.7179 1.771
98.7482 1.875
98.7785 1.615
98.8088 1.250
98.8390 2.083
98.8693 1.615
98.8996 1.354
98.9299 1.823
98.9601 1.562
98.9904 1.094
99.0207 1.406
99.0510 1.927
99.0813 1.823
99.1115 1.354
99.1418 1.667
99.1721 1.146
99.2024 1.198
99.2327 1.094
99.2629 1.562
99.2932 1.562
99.3235 1.719
99.3538 1.302
99.3841 1.302
99.4143 1.510
99.4446 1.250
99.4749 1.302
99.5052 1.250
99.5354 1.042
99.5657 0.781
99.5960 0.990
99.6263 1.458
99.6566 1.615
99.6868 1.510
99.7171 1.198
99.7474 0.885
99.7777 1.302
99.8080 0.729
99.8382 1.250
99.8685 1.406
99.8988 1.250
99.9291 1.510
99.9593 1.250
99.9896 1.094
100.0199 1.146
100.0502 0.990
100.0805 1.302
100.1107 1.250
100.1410 0.990
100.1713 1.354
100.2016 1.146
100.2319 1.146
100.2621 1.042
100.2924 1.146
100.3227 1.302
100.3530 1.302
100.3832 1.146
100.4135 1.250
100.4438 1.250
100.4741 0.990
100.5044 1.094
100.5346 1.094
100.5649 1.667
100.5952 1.302
100.6255 1.094
100.6558 1.146
100.6860 1.719
100.7163 1.302
100.7466 0.990
100.7769 1.302
100.8071 1.198
100.8374 1.146
100.8677 0.937
100.8980 1.094
100.9283 1.146
100.9585 0.833
100.9888 1.042
101.0191 0.990
101.0494 1.458
101.0797 0.833
101.1099 1.302
101.1402 1.562
101.1705 1.458
101.2008 1.094
101.2310 1.198
101.2613 1.042
101.2916 1.771
101.3219 1.458
101.3522 1.146
101.3824 1.719
101.4127 1.302
101.4430 1.302
101.4733 1.562
101.5036 1.615
101.5338 1.458
101.5641 1.458
101.5944 1.719
101.6247 1.354
101.6549 1.875
101.6852 1.510
101.7155 1.094
101.7458 1.250
101.7761 1.198
101.8063 0.885
101.8366 1.354
101.8669 0.781
101.8972 1.510
101.9275 1.510
101.9577 1.302
101.9880 1.354
102.0183 0.833
102.0486 1.771
102.0788 0.990
102.1091 1.302
102.1394 1.458
102.1697 0.833
102.2000 1.146
102.2302 1.302
102.2605 1.042
102.2908 1.458
102.3211 1.302
102.3514 1.250
102.3816 1.250
102.4119 1.354
102.4422 2.135
102.4725 1.562
102.5028 1.719
102.5330 1.823
102.5633 1.354
102.5936 2.135
102.6239 1.979
102.6541 1.458
102.6844 1.354
102.7147 1.302
102.7450 2.031
102.7753 1.979
102.8055 1.875
102.8358 1.562
102.8661 1.302
102.8964 1.354
102.9267 1.302
102.9569 1.406
102.9872 1.615
103.0175 1.927
103.0478 1.823
103.0780 1.719
103.1083 1.927
103.1386 2.083
103.1689 2.031
103.1992 1.771
103.2294 2.448
103.2597 1.615
103.2900 1.615
103.3203 1.562
103.3506 1.875
103.3808 1.615
103.4111 1.667
103.4414 2.240
103.4717 2.031
103.5019 2.135
103.5322 1.354
103.5625 1.719
103.5928 1.615
103.6231 1.667
103.6533 2.083
103.6836 1.927
103.7139 1.615
103.7442 2.500
103.7745 1.615
103.8047 2.448
103.8350 1.927
103.8653 2.187
103.8956 2.083
103.9258 2.240
103.9561 2.135
103.9864 2.344
104.0167 2.187
104.0470 1.927
104.0772 1.927
104.1075 2.135
104.1378 1.979
104.1681 2.500
104.1984 2.396
104.2286 2.135
104.2589 2.344
104.2892 1.875
104.3195 3.177
104.3497 1.719
104.3800 1.562
104.4103 1.719
104.4406 2.135
104.4709 2.656
104.5011 1.927
104.5314 1.823
104.5617 1.875
104.5920 1.562
104.6223 1.302
104.6525 1.823
104.6828 1.198
104.7131 1.510
104.7434 1.615
104.7736 0.833
104.8039 1.458
104.8342 1.875
104.8645 1.198
104.8948 1.979
104.9250 1.146
104.9553 1.615
104.9856 1.562
105.0159 1.510
105.0462 1.562
105.0764 1.562
105.1067 0.990
105.1370 1.146
105.1673 1.250
105.1975 1.719
105.2278 0.937
105.2581 1.354
105.2884 1.302
105.3187 1.146
105.3489 1.615
105.3792 1.250
105.4095 0.937
105.4398 1.302
105.4701 1.250
105.5003 1.354
105.5306 1.302
105.5609 0.885
105.5912 0.990
105.6215 1.615
105.6517 1.094
105.6820 1.406
105.7123 0.990
105.7426 1.562
105.7728 1.042
105.8031 1.094
105.8334 1.458
105.8637 1.146
105.8940 1.094
105.9242 1.094
105.9545 0.885
105.9848 1.406
106.0151 1.458
106.0454 1.094
106.0756 1.094
106.1059 1.406
106.1362 1.094
106.1665 1.146
106.1967 1.198
106.2270 1.094
106.2573 1.250
106.2876 1.510
106.3179 1.354
106.3481 1.198
106.3784 1.094
106.4087 1.250
106.4390 1.250
106.4693 1.094
106.4995 1.250
106.5298 1.406
106.5601 1.406
106.5904 0.677
106.6206 0.937
106.6509 0.885
106.6812 0.990
106.7115 1.354
106.7418 1.354
106.7720 0.990
106.8023 1.198
106.8326 0.781
106.8629 0.937
106.8932 1.510
106.9234 1.354
106.9537 0.885
106.9840 1.198
107.0143 1.458
107.0445 1.354
107.0748 1.354
107.1051 1.302
107.1354 1.302
107.1657 1.458
107.1959 1.042
107.2262 1.198
107.2565 1.198
107.2868 1.146
107.3171 1.198
107.3473 1.198
107.3776 1.562
107.4079 1.458
107.4382 1.042
107.4684 1.354
107.4987 1.250
107.5290 1.354
107.5593 1.302
107.5896 1.250
107.6198 1.562
107.6501 1.198
107.6804 1.302
107.7107 1.198
107.7410 1.354
107.7712 1.094
107.8015 0.885
107.8318 1.042
107.8621 1.042
107.8923 1.510
107.9226 0.990
107.9529 1.094
107.9832 1.094
108.0135 1.302
108.0437 1.042
108.0740 1.510
108.1043 1.146
108.1346 1.094
108.1649 0.885
108.1951 0.625
108.2254 0.990
108.2557 1.146
108.2860 1.250
108.3163 1.510
108.3465 0.885
108.3768 1.042
108.4071 1.250
108.4374 1.042
108.4676 1.250
108.4979 1.094
108.5282 0.781
108.5585 1.094
108.5888 0.990
108.6190 0.937
108.6493 1.094
108.6796 1.510
108.7099 0.833
108.7402 1.302
108.7704 1.302
108.8007 1.354
108.8310 1.302
108.8613 0.833
108.8915 1.615
108.9218 1.146
108.9521 1.354
108.9824 0.937
109.0127 0.885
109.0429 1.094
109.0732 0.937
109.1035 1.615
109.1338 0.937
109.1641 1.198
109.1943 1.302
109.2246 1.198
109.2549 1.562
109.2852 0.833
109.3154 1.354
109.3457 1.198
109.3760 1.354
109.4063 1.250
109.4366 1.146
109.4668 1.510
109.4971 1.302
109.5274 1.094
109.5577 0.990
109.5880 1.198
109.6182 1.250
109.6485 1.198
109.6788 1.250
109.7091 1.250
109.7393 1.510
109.7696 1.094
109.7999 1.458
109.8302 1.510
109.8605 1.458
109.8907 1.562
109.9210 1.042
109.9513 1.875
109.9816 1.771
110.0119 1.927
110.0421 1.406
110.0724 1.354
110.1027 1.667
110.1330 1.562
110.1632 1.510
110.1935 1.198
110.2238 1.771
110.2541 1.146
110.2844 1.667
110.3146 1.250
110.3449 2.187
110.3752 1.406
110.4055 1.562
110.4358 1.250
110.4660 1.771
110.4963 1.510
110.5266 2.031
110.5569 1.302
110.5871 1.562
110.6174 1.615
110.6477 1.406
110.6780 1.198
110.7083 1.406
110.7385 1.615
110.7688 1.406
110.7991 1.354
110.8294 1.667
110.8597 1.667
110.8899 1.562
110.9202 1.354
110.9505 1.406
110.9808 1.042
111.0110 1.354
111.0413 1.354
111.0716 1.510
111.1019 1.458
111.1322 0.990
111.1624 1.146
111.1927 1.615
111.2230 1.250
111.2533 1.302
111.2836 1.094
111.3138 1.562
111.3441 0.833
111.3744 0.990
111.4047 0.937
111.4350 0.729
111.4652 0.885
111.4955 1.615
111.5258 1.406
111.5561 1.042
111.5863 1.823
111.6166 1.042
111.6469 1.042
111.6772 1.198
111.7075 1.250
111.7377 1.094
111.7680 1.406
111.7983 1.146
111.8286 0.937
111.8589 1.302
111.8891 1.146
111.9194 1.406
111.9497 0.781
111.9800 0.677
112.0102 0.573
112.0405 1.146
112.0708 0.937
112.1011 1.354
112.1314 1.562
112.1616 1.042
112.1919 1.042
112.2222 1.042
112.2525 0.885
112.2828 0.833
112.3130 0.990
112.3433 0.833
112.3736 1.198
112.4039 1.198
112.4341 1.094
112.4644 1.146
112.4947 1.302
112.5250 1.042
112.5553 1.250
112.5855 1.094
112.6158 0.729
112.6461 1.042
112.6764 1.094
112.7067 1.771
112.7369 1.042
112.7672 1.094
112.7975 1.198
112.8278 0.990
112.8580 0.990
112.8883 1.146
112.9186 1.198
112.9489 0.937
112.9792 1.042
113.0094 0.937
113.0397 1.510
113.0700 1.198
113.1003 1.146
113.1306 1.198
113.1608 1.094
113.1911 1.250
113.2214 1.562
113.2517 1.250
113.2819 1.146
113.3122 1.406
113.3425 1.354
113.3728 0.885
113.4031 1.510
113.4333 1.042
113.4636 1.406
113.4939 1.667
113.5242 1.510
113.5545 1.042
113.5847 0.885
113.6150 1.302
113.6453 0.990
113.6756 0.937
113.7058 0.990
113.7361 1.198
113.7664 1.042
113.7967 1.354
113.8270 1.042
113.8572 1.458
113.8875 0.990
113.9178 1.823
113.9481 1.198
113.9784 1.094
114.0086 0.937
114.0389 1.042
114.0692 0.937
114.0995 1.250
114.1298 1.042
114.1600 0.885
114.1903 1.042
114.2206 1.615
114.2509 0.833
114.2811 0.990
114.3114 0.937
114.3417 1.250
114.3720 1.094
114.4023 1.562
114.4325 1.094
114.4628 1.250
114.4931 1.406
114.5234 1.146
114.5537 1.198
114.5839 1.198
114.6142 1.354
114.6445 1.198
114.6748 1.562
114.7050 1.042
114.7353 0.990
114.7656 1.094
114.7959 1.354
114.8262 1.302
114.8564 0.885
114.8867 1.094
114.9170 1.198
114.9473 1.302
114.9776 1.302
115.0078 1.510
115.0381 1.302
115.0684 1.406
115.0987 1.510
115.1289 1.510
115.1592 1.302
115.1895 0.937
115.2198 1.354
115.2501 1.615
115.2803 1.250
115.3106 1.406
115.3409 1.198
115.3712 1.667
115.4015 1.458
115.4317 1.927
115.4620 1.667
115.4923 1.615
115.5226 1.875
115.5528 1.562
115.5831 1.771
115.6134 1.875
115.6437 2.448
115.6740 2.396
115.7042 1.615
115.7345 1.719
115.7648 1.823
115.7951 1.979
115.8254 1.771
115.8556 1.979
115.8859 2.292
115.9162 1.927
115.9465 2.292
115.9767 2.083
116.0070 2.187
116.0373 1.250
116.0676 3.073
116.0979 2.135
116.1281 2.240
116.1584 1.719
116.1887 2.448
116.2190 1.979
116.2493 2.135
116.2795 2.135
116.3098 2.500
116.3401 2.187
116.3704 2.500
116.4006 2.656
116.4309 1.927
116.4612 2.031
116.4915 2.135
116.5218 1.510
116.5520 2.448
116.5823 2.240
116.6126 2.448
116.6429 2.500
116.6732 2.812
116.7034 2.344
116.7337 1.979
116.7640 1.979
116.7943 2.344
116.8245 1.875
116.8548 1.875
116.8851 1.719
116.9154 1.771
116.9457 1.979
116.9759 1.979
117.0062 1.927
117.0365 2.135
117.0668 1.771
117.0971 1.250
117.1273 2.083
117.1576 1.979
117.1879 2.083
117.2182 1.302
117.2485 1.302
117.2787 1.510
117.3090 1.510
117.3393 1.927
117.3696 1.406
117.3998 1.615
117.4301 1.510
117.4604 1.094
117.4907 1.198
117.5210 1.198
117.5512 1.615
117.5815 1.198
117.6118 1.927
117.6421 1.615
117.6724 1.406
117.7026 1.406
117.7329 2.031
117.7632 1.823
117.7935 1.250
117.8237 0.833
117.8540 1.302
117.8843 0.833
117.9146 0.990
117.9449 0.990
117.9751 1.719
118.0054 1.094
118.0357 1.250
118.0660 1.406
118.0963 1.042
118.1265 1.250
118.1568 1.615
118.1871 1.771
118.2174 1.042
118.2476 1.198
118.2779 1.458
118.3082 1.250
118.3385 1.406
118.3688 1.250
118.3990 1.302
118.4293 1.198
118.4596 1.823
118.4899 1.302
118.5202 1.198
118.5504 0.937
118.5807 1.354
118.6110 1.458
118.6413 1.146
118.6715 1.198
118.7018 1.042
118.7321 1.302
118.7624 1.094
118.7927 1.198
118.8229 0.937
118.8532 1.458
118.8835 1.458
118.9138 1.354
118.9441 0.625
118.9743 1.302
119.0046 0.833
119.0349 0.885
119.0652 1.094
119.0954 1.302
119.1257 1.146
119.1560 0.937
119.1863 1.562
119.2166 1.250
119.2468 1.510
119.2771 1.406
119.3074 1.458
119.3377 0.937
119.3680 1.510
119.3982 1.198
119.4285 1.354
119.4588 1.250
119.4891 1.250
119.5193 0.990
119.5496 1.094
119.5799 0.885
119.6102 1.094
119.6405 1.354
119.6707 1.615
119.7010 1.562
119.7313 1.354
119.7616 0.937
119.7919 0.885
119.8221 1.146
119.8524 1.354
119.8827 0.781
119.9130 1.354
119.9433 1.250
119.9735 1.250
120.0038 1.042
