'Id: "" Comment: "" Operator: "Lab Manager" Anode: "Cu" Scantype: "Locked Coupled" TimePerStep: "19.2" X: "9999" Y: "9999" Z: "9999" 
10.0015 3.750
10.0318 4.062
10.0620 5.104
10.0923 4.687
10.1226 4.167
10.1529 3.750
10.1832 4.219
10.2134 3.698
10.2437 4.583
10.2740 5.104
10.3043 4.323
10.3346 4.010
10.3648 4.531
10.3951 3.646
10.4254 4.167
10.4557 3.594
10.4859 3.854
10.5162 4.219
10.5465 4.167
10.5768 3.177
10.6071 3.854
10.6373 4.323
10.6676 4.792
10.6979 3.802
10.7282 3.698
10.7585 4.687
10.7887 4.167
10.8190 4.010
10.8493 5.312
10.8796 4.948
10.9098 3.542
10.9401 4.323
10.9704 4.948
11.0007 4.896
11.0310 4.740
11.0612 4.792
11.0915 4.271
11.1218 5.781
11.1521 3.906
11.1824 4.479
11.2126 4.896
11.2429 4.583
11.2732 3.958
11.3035 4.323
11.3337 5.573
11.3640 5.469
11.3943 4.531
11.4246 4.844
11.4549 5.885
11.4851 5.260
11.5154 6.510
11.5457 4.635
11.5760 5.521
11.6063 5.625
11.6365 5.260
11.6668 4.427
11.6971 4.531
11.7274 5.781
11.7577 6.302
11.7879 5.677
11.8182 5.208
11.8485 5.052
11.8788 5.000
11.9090 5.937
11.9393 5.156
11.9696 5.469
11.9999 4.427
12.0302 4.219
12.0604 3.906
12.0907 4.635
12.1210 4.687
12.1513 4.740
12.1816 4.687
12.2118 4.062
12.2421 4.583
12.2724 3.958
12.3027 4.115
12.3329 4.427
12.3632 4.375
12.3935 4.167
12.4238 4.531
12.4541 4.062
12.4843 4.115
12.5146 3.073
12.5449 3.802
12.5752 4.062
12.6055 4.062
12.6357 3.333
12.6660 4.219
12.6963 4.323
12.7266 3.594
12.7568 4.010
12.7871 3.385
12.8174 3.229
12.8477 3.698
12.8780 3.229
12.9082 2.344
12.9385 3.177
12.9688 4.323
12.9991 4.375
13.0294 4.323
13.0596 3.021
13.0899 3.177
13.1202 3.229
13.1505 3.437
13.1807 3.854
13.2110 3.385
13.2413 2.969
13.2716 3.906
13.3019 2.760
13.3321 2.865
13.3624 3.802
13.3927 3.646
13.4230 4.271
13.4533 3.802
13.4835 3.802
13.5138 3.750
13.5441 2.760
13.5744 3.333
13.6046 3.437
13.6349 3.958
13.6652 3.750
13.6955 3.333
13.7258 3.333
13.7560 2.656
13.7863 3.698
13.8166 2.760
13.8469 3.333
13.8772 2.708
13.9074 2.500
13.9377 3.542
13.9680 3.229
13.9983 3.073
14.0285 3.594
14.0588 2.865
14.0891 2.969
14.1194 3.333
14.1497 2.812
14.1799 3.125
14.2102 3.021
14.2405 3.385
14.2708 3.125
14.3011 3.750
14.3313 3.281
14.3616 3.750
14.3919 3.177
14.4222 3.125
14.4524 2.448
14.4827 3.021
14.5130 3.333
14.5433 3.594
14.5736 4.115
14.6038 2.240
14.6341 2.917
14.6644 2.708
14.6947 2.812
14.7250 3.021
14.7552 3.229
14.7855 2.344
14.8158 3.073
14.8461 3.750
14.8764 3.385
14.9066 2.448
14.9369 3.021
14.9672 3.698
14.9975 2.656
15.0277 4.062
15.0580 3.542
15.0883 2.656
15.1186 3.281
15.1489 2.812
15.1791 2.812
15.2094 2.865
15.2397 3.125
15.2700 3.177
15.3003 3.542
15.3305 3.229
15.3608 2.760
15.3911 3.021
15.4214 2.396
15.4516 2.604
15.4819 2.500
15.5122 2.396
15.5425 2.083
15.5728 1.875
15.6030 3.542
15.6333 1.979
15.6636 3.646
15.6939 2.812
15.7242 2.812
15.7544 2.969
15.7847 2.656
15.8150 2.604
15.8453 2.552
15.8755 3.594
15.9058 2.396
15.9361 3.021
15.9664 2.656
15.9967 2.135
16.0269 2.240
16.0572 3.073
16.0875 3.177
16.1178 3.437
16.1481 2.448
16.1783 2.760
16.2086 2.708
16.2389 3.333
16.2692 2.604
16.2994 2.552
16.3297 2.552
16.3600 2.135
16.3903 2.969
16.4206 2.708
16.4508 2.552
16.4811 3.177
16.5114 3.437
16.5417 3.125
16.5720 3.177
16.6022 2.552
16.6325 3.021
16.6628 3.542
16.6931 3.125
16.7233 2.500
16.7536 2.448
16.7839 3.594
16.8142 2.760
16.8445 3.177
16.8747 3.437
16.9050 2.760
16.9353 1.979
16.9656 3.229
16.9959 3.021
17.0261 2.917
17.0564 2.604
17.0867 3.385
17.1170 2.552
17.1472 3.802
17.1775 3.281
17.2078 3.698
17.2381 3.646
17.2684 3.229
17.2986 2.812
17.3289 3.021
17.3592 2.083
17.3895 2.396
17.4198 3.490
17.4500 3.281
17.4803 3.906
17.5106 3.021
17.5409 2.396
17.5712 2.917
17.6014 3.073
17.6317 2.812
17.6620 3.229
17.6923 3.646
17.7225 3.385
17.7528 2.500
17.7831 2.604
17.8134 2.917
17.8437 2.187
17.8739 2.917
17.9042 2.552
17.9345 2.656
17.9648 2.812
17.9951 2.396
18.0253 3.333
18.0556 2.708
18.0859 2.448
18.1162 2.917
18.1464 2.187
18.1767 3.594
18.2070 3.125
18.2373 3.229
18.2676 2.812
18.2978 2.448
18.3281 3.333
18.3584 2.812
18.3887 3.125
18.4190 2.448
18.4492 1.510
18.4795 3.125
18.5098 3.281
18.5401 2.812
18.5703 2.500
18.6006 2.708
18.6309 2.865
18.6612 2.500
18.6915 2.604
18.7217 2.656
18.7520 2.240
18.7823 2.448
18.8126 2.083
18.8429 3.229
18.8731 3.281
18.9034 2.760
18.9337 2.865
18.9640 2.604
18.9942 2.500
19.0245 2.917
19.0548 2.656
19.0851 2.552
19.1154 2.708
19.1456 2.500
19.1759 3.437
19.2062 2.656
19.2365 2.760
19.2668 2.552
19.2970 2.135
19.3273 2.656
19.3576 2.240
19.3879 3.646
19.4181 2.969
19.4484 2.448
19.4787 2.344
19.5090 2.396
19.5393 2.552
19.5695 2.240
19.5998 2.552
19.6301 2.448
19.6604 2.292
19.6907 2.240
19.7209 2.917
19.7512 2.969
19.7815 2.083
19.8118 2.344
19.8420 2.812
19.8723 2.917
19.9026 2.604
19.9329 2.604
19.9632 2.396
19.9934 3.125
20.0237 3.385
20.0540 3.281
20.0843 2.552
20.1146 2.187
20.1448 2.552
20.1751 2.448
20.2054 2.917
20.2357 3.073
20.2659 1.979
20.2962 1.615
20.3265 2.448
20.3568 2.448
20.3871 2.187
20.4173 2.552
20.4476 2.865
20.4779 2.760
20.5082 2.500
20.5385 2.552
20.5687 2.969
20.5990 2.083
20.6293 1.979
20.6596 2.656
20.6899 2.917
20.7201 1.927
20.7504 2.604
20.7807 2.083
20.8110 3.125
20.8412 1.771
20.8715 2.344
20.9018 2.031
20.9321 2.604
20.9624 1.927
20.9926 2.812
21.0229 2.656
21.0532 2.187
21.0835 1.979
21.1138 2.604
21.1440 2.344
21.1743 2.760
21.2046 2.396
21.2349 2.500
21.2651 1.615
21.2954 2.760
21.3257 2.656
21.3560 2.187
21.3863 2.396
21.4165 2.917
21.4468 3.125
21.4771 2.760
21.5074 2.083
21.5377 2.500
21.5679 1.979
21.5982 2.396
21.6285 2.135
21.6588 2.031
21.6890 2.865
21.7193 2.552
21.7496 2.552
21.7799 2.865
21.8102 2.708
21.8404 1.979
21.8707 2.448
21.9010 2.292
21.9313 2.552
21.9616 2.031
21.9918 2.187
22.0221 2.448
22.0524 1.979
22.0827 2.187
22.1129 2.083
22.1432 1.979
22.1735 2.396
22.2038 2.083
22.2341 2.135
22.2643 2.292
22.2946 2.865
22.3249 2.396
22.3552 2.708
22.3855 2.135
22.4157 2.292
22.4460 1.927
22.4763 2.031
22.5066 2.917
22.5368 1.979
22.5671 2.135
22.5974 2.187
22.6277 2.396
22.6580 3.333
22.6882 3.073
22.7185 2.500
22.7488 2.083
22.7791 3.125
22.8094 1.771
22.8396 2.448
22.8699 2.083
22.9002 2.760
22.9305 2.500
22.9607 2.812
22.9910 1.927
23.0213 2.448
23.0516 2.604
23.0819 2.552
23.1121 2.500
23.1424 2.292
23.1727 2.448
23.2030 2.552
23.2333 2.656
23.2635 2.448
23.2938 2.760
23.3241 3.021
23.3544 2.240
23.3846 2.448
23.4149 2.708
23.4452 2.187
23.4755 2.292
23.5058 2.135
23.5360 1.562
23.5663 1.562
23.5966 2.917
23.6269 2.760
23.6572 2.917
23.6874 2.500
23.7177 2.500
23.7480 1.875
23.7783 2.135
23.8086 2.448
23.8388 2.656
23.8691 2.344
23.8994 3.333
23.9297 1.667
23.9599 1.823
23.9902 2.656
24.0205 2.083
24.0508 2.604
24.0811 1.719
24.1113 2.240
24.1416 1.927
24.1719 2.344
24.2022 2.865
24.2325 2.500
24.2627 3.021
24.2930 2.604
24.3233 2.604
24.3536 2.552
24.3838 2.969
24.4141 2.448
24.4444 2.708
24.4747 3.177
24.5050 2.344
24.5352 2.969
24.5655 2.500
24.5958 2.500
24.6261 2.500
24.6564 3.385
24.6866 2.656
24.7169 2.812
24.7472 3.125
24.7775 2.240
24.8077 2.448
24.8380 2.083
24.8683 3.229
24.8986 2.917
24.9289 2.708
24.9591 3.125
24.9894 3.229
25.0197 3.229
25.0500 2.396
25.0803 3.125
25.1105 2.917
25.1408 2.604
25.1711 1.927
25.2014 2.760
25.2316 2.396
25.2619 2.500
25.2922 2.187
25.3225 2.135
25.3528 2.865
25.3830 2.812
25.4133 3.021
25.4436 2.344
25.4739 2.708
25.5042 2.031
25.5344 1.979
25.5647 2.500
25.5950 2.292
25.6253 1.979
25.6555 2.812
25.6858 3.177
25.7161 2.708
25.7464 2.812
25.7767 1.927
25.8069 2.760
25.8372 2.187
25.8675 2.708
25.8978 2.187
25.9281 1.771
25.9583 2.917
25.9886 1.927
26.0189 2.187
26.0492 2.187
26.0794 2.083
26.1097 3.021
26.1400 2.448
26.1703 2.240
26.2006 1.979
26.2308 2.292
26.2611 1.927
26.2914 2.552
26.3217 3.073
26.3520 1.719
26.3822 2.552
26.4125 3.594
26.4428 1.979
26.4731 2.240
26.5034 2.812
26.5336 2.969
26.5639 1.927
26.5942 2.656
26.6245 2.448
26.6547 2.448
26.6850 2.448
26.7153 3.125
26.7456 2.396
26.7759 1.927
26.8061 3.073
26.8364 2.552
26.8667 2.917
26.8970 3.385
26.9273 2.708
26.9575 2.969
26.9878 2.604
27.0181 3.281
27.0484 2.865
27.0786 2.292
27.1089 1.667
27.1392 2.500
27.1695 2.344
27.1998 2.969
27.2300 2.917
27.2603 2.500
27.2906 2.500
27.3209 2.396
27.3512 2.604
27.3814 2.500
27.4117 2.135
27.4420 3.281
27.4723 2.917
27.5025 2.812
27.5328 3.229
27.5631 2.708
27.5934 3.177
27.6237 1.927
27.6539 2.917
27.6842 2.969
27.7145 2.187
27.7448 3.958
27.7751 3.125
27.8053 2.135
27.8356 2.240
27.8659 2.708
27.8962 2.812
27.9264 2.187
27.9567 2.708
27.9870 2.708
28.0173 2.292
28.0476 2.708
28.0778 2.708
28.1081 2.917
28.1384 2.448
28.1687 2.500
28.1990 2.187
28.2292 2.865
28.2595 3.177
28.2898 3.229
28.3201 2.812
28.3503 2.448
28.3806 2.760
28.4109 2.500
28.4412 2.292
28.4715 2.969
28.5017 2.396
28.5320 3.021
28.5623 4.271
28.5926 2.344
28.6229 2.656
28.6531 3.594
28.6834 3.125
28.7137 2.604
28.7440 2.760
28.7742 3.177
28.8045 2.760
28.8348 3.125
28.8651 2.812
28.8954 2.500
28.9256 2.292
28.9559 2.917
28.9862 2.865
29.0165 2.917
29.0468 2.552
29.0770 3.125
29.1073 3.490
29.1376 2.500
29.1679 2.812
29.1981 3.177
29.2284 2.969
29.2587 3.125
29.2890 3.021
29.3193 3.385
29.3495 3.333
29.3798 3.125
29.4101 2.187
29.4404 3.437
29.4707 3.490
29.5009 2.812
29.5312 3.177
29.5615 3.177
29.5918 3.021
29.6221 3.385
29.6523 3.021
29.6826 2.760
29.7129 3.073
29.7432 3.698
29.7734 3.437
29.8037 3.542
29.8340 3.750
29.8643 3.073
29.8946 4.010
29.9248 3.021
29.9551 3.802
29.9854 3.229
30.0157 3.437
30.0460 3.646
30.0762 3.021
30.1065 3.177
30.1368 3.750
30.1671 3.646
30.1973 3.594
30.2276 4.740
30.2579 4.167
30.2882 4.687
30.3185 4.323
30.3487 4.010
30.3790 4.375
30.4093 4.010
30.4396 4.740
30.4699 4.219
30.5001 3.906
30.5304 4.583
30.5607 4.792
30.5910 4.687
30.6212 4.323
30.6515 4.062
30.6818 5.208
30.7121 4.896
30.7424 5.365
30.7726 6.250
30.8029 4.844
30.8332 5.573
30.8635 5.521
30.8938 7.031
30.9240 6.771
30.9543 7.812
30.9846 6.823
31.0149 6.823
31.0451 7.448
31.0754 8.333
31.1057 8.802
31.1360 9.844
31.1663 10.729
31.1965 12.656
31.2268 12.760
31.2571 15.052
31.2874 16.250
31.3177 17.292
31.3479 20.104
31.3782 26.823
31.4085 28.229
31.4388 31.354
31.4690 34.583
31.4993 41.146
31.5296 46.510
31.5599 51.354
31.5902 52.812
31.6204 55.208
31.6507 51.615
31.6810 51.615
31.7113 47.292
31.7416 38.594
31.7718 35.156
31.8021 30.937
31.8324 28.073
31.8627 24.687
31.8929 22.448
31.9232 19.323
31.9535 17.656
31.9838 14.896
32.0141 11.927
32.0443 11.667
32.0746 9.792
32.1049 9.896
32.1352 10.677
32.1655 8.385
32.1957 7.917
32.2260 7.031
32.2563 7.500
32.2866 6.719
32.3169 6.823
32.3471 6.198
32.3774 5.469
32.4077 7.083
32.4380 4.844
32.4682 5.937
32.4985 6.615
32.5288 4.740
32.5591 5.521
32.5894 5.469
32.6196 5.156
32.6499 5.417
32.6802 5.052
32.7105 5.156
32.7408 5.052
32.7710 5.208
32.8013 5.052
32.8316 4.531
32.8619 4.844
32.8921 5.104
32.9224 5.417
32.9527 5.000
32.9830 5.208
33.0133 4.167
33.0435 4.323
33.0738 4.844
33.1041 4.792
33.1344 4.479
33.1647 4.687
33.1949 4.740
33.2252 4.115
33.2555 4.062
33.2858 4.948
33.3160 3.906
33.3463 4.896
33.3766 3.958
33.4069 4.062
33.4372 4.271
33.4674 5.000
33.4977 4.375
33.5280 5.573
33.5583 5.729
33.5886 5.990
33.6188 4.896
33.6491 5.677
33.6794 5.729
33.7097 5.469
33.7399 6.250
33.7702 6.198
33.8005 6.667
33.8308 7.708
33.8611 7.708
33.8913 8.906
33.9216 8.802
33.9519 9.844
33.9822 10.000
34.0125 12.760
34.0427 11.875
34.0730 16.927
34.1033 18.750
34.1336 22.708
34.1638 32.083
34.1941 40.833
34.2244 54.687
34.2547 64.844
34.2850 69.375
34.3152 60.365
34.3455 56.406
34.3758 44.740
34.4061 36.042
34.4364 25.625
34.4666 20.625
34.4969 17.812
34.5272 13.958
34.5575 13.854
34.5877 12.812
34.6180 9.115
34.6483 10.000
34.6786 9.219
34.7089 8.021
34.7391 7.552
34.7694 7.396
34.7997 7.708
34.8300 7.500
34.8603 6.406
34.8905 8.594
34.9208 6.927
34.9511 6.354
34.9814 6.667
35.0116 7.292
35.0419 7.604
35.0722 6.302
35.1025 6.510
35.1328 6.094
35.1630 7.604
35.1933 6.406
35.2236 6.875
35.2539 7.396
35.2842 8.437
35.3144 7.656
35.3447 8.125
35.3750 9.010
35.4053 8.073
35.4356 8.854
35.4658 8.750
35.4961 10.156
35.5264 9.896
35.5567 11.562
35.5869 12.187
35.6172 14.375
35.6475 14.948
35.6778 15.052
35.7081 18.125
35.7383 20.729
35.7686 20.521
35.7989 23.125
35.8292 28.698
35.8595 29.635
35.8897 36.719
35.9200 43.021
35.9503 48.333
35.9806 55.156
36.0108 68.073
36.0411 73.229
36.0714 78.281
36.1017 80.521
36.1320 77.031
36.1622 74.427
36.1925 73.906
36.2228 66.406
36.2531 54.531
36.2834 49.531
36.3136 40.833
36.3439 34.687
36.3742 33.385
36.4045 28.542
36.4347 23.125
36.4650 21.198
36.4953 20.156
36.5256 18.437
36.5559 13.854
36.5861 13.698
36.6164 11.927
36.6467 12.240
36.6770 10.312
36.7073 8.802
36.7375 8.698
36.7678 8.385
36.7981 6.979
36.8284 7.187
36.8586 5.729
36.8889 5.729
36.9192 6.979
36.9495 6.250
36.9798 6.771
37.0100 5.573
37.0403 6.354
37.0706 5.469
37.1009 5.625
37.1312 5.885
37.1614 5.052
37.1917 5.052
37.2220 6.094
37.2523 3.958
37.2825 3.958
37.3128 4.479
37.3431 4.427
37.3734 4.010
37.4037 4.167
37.4339 5.208
37.4642 3.958
37.4945 4.271
37.5248 3.750
37.5551 3.698
37.5853 3.542
37.6156 3.281
37.6459 3.385
37.6762 3.073
37.7064 3.594
37.7367 3.750
37.7670 3.802
37.7973 3.177
37.8276 3.490
37.8578 3.594
37.8881 2.865
37.9184 3.490
37.9487 4.062
37.9790 3.698
38.0092 2.812
38.0395 3.281
38.0698 3.385
38.1001 2.865
38.1304 2.656
38.1606 2.917
38.1909 2.344
38.2212 2.500
38.2515 2.656
38.2817 3.125
38.3120 2.812
38.3423 3.594
38.3726 2.604
38.4029 2.604
38.4331 2.656
38.4634 1.719
38.4937 2.969
38.5240 2.656
38.5543 2.448
38.5845 2.708
38.6148 3.281
38.6451 2.708
38.6754 2.083
38.7056 2.604
38.7359 2.500
38.7662 2.969
38.7965 2.656
38.8268 2.604
38.8570 3.281
38.8873 2.135
38.9176 2.656
38.9479 2.708
38.9782 2.135
39.0084 2.552
39.0387 1.927
39.0690 2.396
39.0993 2.708
39.1295 1.719
39.1598 1.823
39.1901 2.187
39.2204 1.927
39.2507 1.979
39.2809 2.031
39.3112 2.448
39.3415 2.292
39.3718 1.406
39.4021 2.448
39.4323 1.979
39.4626 1.927
39.4929 2.656
39.5232 1.615
39.5534 2.552
39.5837 2.031
39.6140 2.292
39.6443 2.448
39.6746 2.135
39.7048 2.760
39.7351 2.292
39.7654 2.344
39.7957 2.396
39.8260 2.344
39.8562 2.031
39.8865 2.135
39.9168 2.396
39.9471 1.615
39.9773 1.875
40.0076 2.240
40.0379 1.927
40.0682 1.719
40.0985 1.927
40.1287 1.823
40.1590 1.875
40.1893 1.927
40.2196 1.823
40.2499 1.615
40.2801 2.135
40.3104 1.771
40.3407 2.083
40.3710 2.031
40.4012 2.344
40.4315 2.240
40.4618 1.562
40.4921 2.240
40.5224 1.771
40.5526 1.146
40.5829 1.979
40.6132 2.396
40.6435 2.448
40.6738 1.875
40.7040 1.562
40.7343 2.344
40.7646 1.979
40.7949 1.823
40.8251 2.083
40.8554 2.135
40.8857 1.927
40.9160 2.604
40.9463 1.615
40.9765 1.562
41.0068 2.240
41.0371 2.187
41.0674 1.823
41.0977 2.031
41.1279 2.083
41.1582 1.667
41.1885 2.292
41.2188 1.823
41.2491 1.875
41.2793 2.708
41.3096 1.875
41.3399 1.458
41.3702 2.292
41.4004 1.719
41.4307 1.667
41.4610 1.823
41.4913 1.979
41.5216 2.187
41.5518 2.344
41.5821 1.979
41.6124 1.406
41.6427 1.458
41.6730 2.708
41.7032 1.823
41.7335 2.031
41.7638 2.083
41.7941 1.979
41.8243 2.292
41.8546 1.458
41.8849 1.927
41.9152 1.510
41.9455 1.562
41.9757 1.615
42.0060 1.667
42.0363 1.979
42.0666 2.083
42.0969 1.875
42.1271 1.927
42.1574 1.667
42.1877 1.667
42.2180 2.448
42.2482 1.979
42.2785 1.302
42.3088 1.510
42.3391 1.771
42.3694 1.667
42.3996 1.771
42.4299 1.875
42.4602 1.979
42.4905 2.083
42.5208 1.771
42.5510 2.031
42.5813 2.031
42.6116 2.240
42.6419 1.823
42.6721 1.562
42.7024 1.875
42.7327 1.719
42.7630 2.187
42.7933 1.927
42.8235 1.667
42.8538 1.510
42.8841 1.510
42.9144 2.396
42.9447 1.979
42.9749 1.771
43.0052 1.719
43.0355 1.198
43.0658 2.187
43.0960 1.927
43.1263 1.354
43.1566 2.031
43.1869 1.875
43.2172 1.667
43.2474 1.771
43.2777 1.771
43.3080 1.927
43.3383 1.667
43.3686 2.344
43.3988 1.927
43.4291 1.510
43.4594 1.562
43.4897 1.510
43.5199 1.406
43.5502 1.823
43.5805 1.771
43.6108 1.458
43.6411 2.135
43.6713 1.875
43.7016 1.510
43.7319 2.240
43.7622 1.406
43.7925 1.823
43.8227 2.031
43.8530 1.823
43.8833 1.771
43.9136 1.406
43.9439 1.823
43.9741 1.354
44.0044 1.979
44.0347 1.406
44.0650 1.823
44.0952 1.823
44.1255 1.823
44.1558 2.031
44.1861 1.302
44.2164 2.500
44.2466 2.448
44.2769 1.875
44.3072 1.667
44.3375 1.354
44.3678 1.875
44.3980 1.875
44.4283 2.083
44.4586 1.719
44.4889 1.823
44.5191 1.875
44.5494 1.823
44.5797 1.823
44.6100 1.875
44.6403 1.667
44.6705 1.875
44.7008 1.771
44.7311 1.667
44.7614 1.562
44.7917 1.771
44.8219 1.927
44.8522 1.927
44.8825 1.719
44.9128 2.448
44.9430 1.510
44.9733 1.875
45.0036 2.031
45.0339 2.760
45.0642 2.187
45.0944 2.500
45.1247 2.552
45.1550 1.562
45.1853 1.667
45.2156 1.875
45.2458 1.771
45.2761 2.344
45.3064 2.083
45.3367 2.083
45.3669 1.979
45.3972 1.406
45.4275 1.927
45.4578 1.406
45.4881 2.500
45.5183 1.927
45.5486 2.448
45.5789 1.562
45.6092 2.240
45.6395 1.510
45.6697 2.135
45.7000 1.823
45.7303 1.979
45.7606 2.240
45.7908 1.510
45.8211 2.187
45.8514 2.031
45.8817 2.187
45.9120 2.344
45.9422 1.510
45.9725 1.510
46.0028 1.875
46.0331 2.500
46.0634 2.552
46.0936 2.604
46.1239 2.448
46.1542 1.927
46.1845 2.083
46.2147 1.562
46.2450 2.135
46.2753 3.073
46.3056 2.604
46.3359 2.969
46.3661 1.979
46.3964 2.344
46.4267 1.719
46.4570 2.552
46.4873 1.875
46.5175 2.708
46.5478 2.552
46.5781 3.021
46.6084 2.604
46.6386 3.385
46.6689 2.500
46.6992 2.500
46.7295 3.073
46.7598 3.802
46.7900 3.437
46.8203 3.333
46.8506 3.594
46.8809 2.969
46.9112 3.542
46.9414 3.646
46.9717 4.479
47.0020 4.740
47.0323 5.208
47.0626 5.781
47.0928 6.615
47.1231 6.615
47.1534 7.500
47.1837 8.021
47.2139 10.365
47.2442 12.240
47.2745 13.802
47.3048 13.698
47.3351 16.927
47.3653 16.250
47.3956 16.250
47.4259 17.031
47.4562 16.771
47.4865 15.156
47.5167 14.219
47.5470 11.094
47.5773 11.979
47.6076 10.208
47.6378 9.583
47.6681 8.958
47.6984 5.937
47.7287 5.521
47.7590 5.208
47.7892 5.260
47.8195 4.792
47.8498 3.854
47.8801 4.115
47.9104 4.010
47.9406 3.281
47.9709 3.281
48.0012 3.802
48.0315 2.969
48.0617 2.344
48.0920 2.292
48.1223 2.344
48.1526 2.865
48.1829 2.187
48.2131 2.656
48.2434 2.292
48.2737 2.500
48.3040 2.812
48.3343 2.396
48.3645 2.344
48.3948 2.187
48.4251 3.177
48.4554 2.187
48.4856 2.240
48.5159 2.969
48.5462 2.448
48.5765 2.292
48.6068 1.667
48.6370 1.875
48.6673 1.250
48.6976 1.927
48.7279 1.823
48.7582 2.031
48.7884 1.823
48.8187 2.344
48.8490 1.615
48.8793 2.187
48.9095 2.240
48.9398 2.344
48.9701 2.031
49.0004 1.771
49.0307 2.187
49.0609 1.719
49.0912 1.875
49.1215 2.031
49.1518 2.187
49.1821 1.979
49.2123 1.771
49.2426 2.187
49.2729 1.667
49.3032 2.552
49.3334 1.510
49.3637 2.240
49.3940 1.979
49.4243 1.979
49.4546 2.187
49.4848 2.448
49.5151 2.448
49.5454 2.240
49.5757 2.396
49.6060 1.406
49.6362 2.031
49.6665 1.979
49.6968 1.198
49.7271 1.719
49.7574 1.406
49.7876 1.667
49.8179 2.031
49.8482 1.510
49.8785 1.979
49.9087 2.135
49.9390 1.771
49.9693 2.135
49.9996 2.448
50.0299 1.667
50.0601 2.240
50.0904 2.083
50.1207 1.979
50.1510 1.771
50.1813 1.562
50.2115 1.615
50.2418 1.562
50.2721 1.771
50.3024 1.823
50.3326 2.448
50.3629 1.927
50.3932 1.406
50.4235 1.719
50.4538 2.240
50.4840 2.083
50.5143 1.823
50.5446 1.667
50.5749 2.083
50.6052 2.292
50.6354 1.667
50.6657 1.875
50.6960 2.083
50.7263 1.562
50.7565 1.510
50.7868 1.771
50.8171 2.083
50.8474 2.135
50.8777 2.552
50.9079 1.667
50.9382 1.667
50.9685 2.031
50.9988 2.344
51.0291 2.448
51.0593 2.031
51.0896 1.667
51.1199 1.927
51.1502 1.823
51.1804 1.667
51.2107 1.562
51.2410 1.979
51.2713 1.771
51.3016 1.979
51.3318 1.667
51.3621 2.135
51.3924 1.719
51.4227 1.719
51.4530 2.031
51.4832 1.510
51.5135 1.458
51.5438 1.354
51.5741 1.875
51.6043 1.979
51.6346 2.083
51.6649 1.979
51.6952 1.875
51.7255 1.198
51.7557 1.823
51.7860 1.771
51.8163 1.719
51.8466 1.927
51.8769 1.198
51.9071 1.719
51.9374 1.979
51.9677 1.406
51.9980 2.083
52.0282 1.719
52.0585 1.510
52.0888 1.979
52.1191 1.458
52.1494 1.927
52.1796 1.562
52.2099 1.354
52.2402 1.146
52.2705 1.719
52.3008 1.719
52.3310 1.719
52.3613 1.771
52.3916 1.823
52.4219 1.875
52.4521 1.719
52.4824 1.771
52.5127 1.667
52.5430 1.510
52.5733 1.510
52.6035 2.031
52.6338 2.344
52.6641 2.604
52.6944 1.406
52.7247 1.354
52.7549 2.187
52.7852 1.354
52.8155 1.667
52.8458 2.031
52.8761 1.354
52.9063 1.667
52.9366 1.667
52.9669 1.458
52.9972 1.823
53.0274 2.031
53.0577 1.979
53.0880 1.406
53.1183 2.240
53.1486 1.823
53.1788 2.396
53.2091 2.292
53.2394 1.979
53.2697 2.135
53.3000 1.771
53.3302 1.458
53.3605 2.240
53.3908 1.719
53.4211 1.615
53.4513 1.667
53.4816 1.927
53.5119 2.240
53.5422 2.135
53.5725 2.031
53.6027 2.083
53.6330 1.354
53.6633 1.875
53.6936 1.719
53.7239 1.719
53.7541 1.979
53.7844 2.031
53.8147 1.719
53.8450 2.031
53.8752 1.250
53.9055 1.823
53.9358 1.406
53.9661 1.458
53.9964 1.562
54.0266 1.667
54.0569 2.031
54.0872 1.302
54.1175 2.240
54.1478 1.562
54.1780 1.719
54.2083 2.135
54.2386 1.771
54.2689 1.667
54.2991 1.771
54.3294 1.823
54.3597 2.083
54.3900 1.562
54.4203 1.979
54.4505 1.406
54.4808 1.823
54.5111 1.979
54.5414 1.719
54.5717 2.448
54.6019 1.875
54.6322 2.031
54.6625 1.406
54.6928 2.083
54.7230 1.667
54.7533 1.927
54.7836 1.927
54.8139 1.927
54.8442 1.979
54.8744 1.771
54.9047 1.979
54.9350 1.875
54.9653 2.552
54.9956 2.292
55.0258 1.719
55.0561 2.708
55.0864 2.396
55.1167 2.552
55.1469 2.760
55.1772 2.448
55.2075 2.083
55.2378 2.552
55.2681 2.187
55.2983 2.240
55.3286 2.292
55.3589 2.448
55.3892 1.979
55.4195 2.552
55.4497 2.396
55.4800 2.552
55.5103 2.500
55.5406 2.396
55.5709 2.708
55.6011 3.385
55.6314 3.073
55.6617 3.750
55.6920 2.448
55.7222 3.437
55.7525 3.177
55.7828 3.073
55.8131 3.542
55.8434 4.219
55.8736 3.646
55.9039 4.271
55.9342 5.104
55.9645 4.844
55.9948 5.521
56.0250 5.000
56.0553 6.615
56.0856 6.250
56.1159 6.667
56.1461 9.792
56.1764 8.646
56.2067 10.156
56.2370 11.250
56.2673 11.302
56.2975 14.479
56.3278 16.042
56.3581 18.594
56.3884 19.844
56.4187 20.208
56.4489 20.469
56.4792 18.698
56.5095 18.073
56.5398 17.604
56.5700 15.573
56.6003 14.323
56.6306 14.583
56.6609 11.979
56.6912 10.937
56.7214 11.354
56.7517 9.948
56.7820 7.500
56.8123 7.656
56.8426 7.031
56.8728 5.990
56.9031 5.937
56.9334 6.250
56.9637 4.687
56.9939 4.583
57.0242 5.104
57.0545 4.219
57.0848 3.646
57.1151 4.115
57.1453 3.542
57.1756 4.167
57.2059 3.385
57.2362 2.969
57.2665 2.865
57.2967 2.187
57.3270 3.281
57.3573 3.594
57.3876 2.604
57.4178 2.917
57.4481 3.177
57.4784 2.240
57.5087 2.135
57.5390 2.396
57.5692 2.187
57.5995 2.812
57.6298 2.760
57.6601 2.031
57.6904 2.135
57.7206 1.875
57.7509 2.240
57.7812 2.500
57.8115 1.927
57.8417 2.552
57.8720 2.500
57.9023 2.031
57.9326 1.979
57.9629 2.031
57.9931 2.240
58.0234 1.875
58.0537 1.719
58.0840 1.823
58.1143 2.135
58.1445 1.979
58.1748 1.771
58.2051 1.979
58.2354 1.823
58.2656 1.250
58.2959 2.187
58.3262 2.656
58.3565 1.719
58.3868 2.083
58.4170 1.771
58.4473 1.198
58.4776 2.708
58.5079 2.292
58.5382 1.615
58.5684 2.500
58.5987 1.562
58.6290 1.771
58.6593 2.083
58.6896 1.771
58.7198 1.771
58.7501 1.615
58.7804 2.187
58.8107 1.771
58.8409 1.615
58.8712 1.979
58.9015 1.510
58.9318 1.615
58.9621 2.604
58.9923 1.771
59.0226 2.187
59.0529 1.667
59.0832 1.719
59.1135 1.719
59.1437 1.823
59.1740 1.771
59.2043 1.823
59.2346 2.240
59.2648 1.562
59.2951 1.250
59.3254 2.083
59.3557 1.719
59.3860 1.875
59.4162 1.667
59.4465 1.458
59.4768 1.771
59.5071 1.510
59.5374 1.510
59.5676 1.510
59.5979 2.031
59.6282 1.927
59.6585 1.979
59.6887 1.354
59.7190 1.510
59.7493 1.302
59.7796 1.667
59.8099 2.448
59.8401 1.823
59.8704 2.135
59.9007 2.083
59.9310 1.979
59.9613 1.719
59.9915 2.031
60.0218 1.823
60.0521 2.083
60.0824 2.083
60.1126 1.510
60.1429 1.667
60.1732 2.083
60.2035 1.250
60.2338 1.667
60.2640 1.979
60.2943 2.396
60.3246 1.927
60.3549 1.615
60.3852 2.292
60.4154 2.344
60.4457 1.771
60.4760 1.354
60.5063 2.552
60.5365 1.823
60.5668 2.604
60.5971 1.667
60.6274 2.083
60.6577 2.083
60.6879 1.510
60.7182 2.240
60.7485 1.823
60.7788 1.771
60.8091 1.927
60.8393 1.927
60.8696 2.656
60.8999 2.240
60.9302 1.771
60.9604 1.719
60.9907 1.927
61.0210 2.031
61.0513 1.458
61.0816 2.083
61.1118 2.240
61.1421 1.615
61.1724 2.240
61.2027 2.396
61.2330 1.406
61.2632 1.979
61.2935 1.771
61.3238 2.448
61.3541 1.979
61.3844 2.292
61.4146 1.823
61.4449 2.656
61.4752 2.656
61.5055 2.240
61.5357 2.344
61.5660 2.031
61.5963 2.240
61.6266 2.344
61.6569 2.240
61.6871 2.396
61.7174 2.135
61.7477 3.073
61.7780 2.083
61.8083 2.344
61.8385 2.448
61.8688 2.604
61.8991 3.073
61.9294 2.604
61.9596 2.969
61.9899 2.708
62.0202 2.604
62.0505 3.281
62.0808 3.437
62.1110 3.437
62.1413 3.385
62.1716 3.073
62.2019 3.750
62.2322 4.115
62.2624 4.896
62.2927 5.156
62.3230 5.677
62.3533 5.417
62.3835 6.250
62.4138 6.667
62.4441 7.656
62.4744 8.802
62.5047 9.583
62.5349 11.771
62.5652 14.687
62.5955 13.281
62.6258 15.573
62.6561 15.573
62.6863 17.448
62.7166 17.865
62.7469 17.240
62.7772 16.927
62.8074 14.687
62.8377 14.427
62.8680 14.115
62.8983 13.021
62.9286 11.771
62.9588 10.990
62.9891 10.573
63.0194 8.490
63.0497 6.979
63.0800 6.094
63.1102 6.354
63.1405 5.729
63.1708 5.365
63.2011 4.792
63.2313 2.812
63.2616 3.802
63.2919 2.500
63.3222 3.802
63.3525 3.542
63.3827 3.125
63.4130 3.125
63.4433 3.073
63.4736 2.552
63.5039 2.552
63.5341 3.021
63.5644 2.396
63.5947 2.708
63.6250 2.187
63.6552 2.604
63.6855 2.917
63.7158 2.500
63.7461 2.031
63.7764 1.979
63.8066 2.187
63.8369 1.771
63.8672 2.240
63.8975 2.760
63.9278 2.396
63.9580 2.500
63.9883 2.031
64.0186 1.250
64.0489 2.865
64.0791 1.927
64.1094 2.448
64.1397 2.448
64.1700 1.615
64.2003 2.031
64.2305 2.812
64.2608 2.187
64.2911 1.667
64.3214 1.927
64.3517 2.552
64.3819 1.927
64.4122 1.927
64.4425 2.500
64.4728 2.187
64.5031 2.187
64.5333 2.135
64.5636 1.927
64.5939 2.187
64.6242 1.927
64.6544 2.031
64.6847 1.667
64.7150 1.875
64.7453 2.240
64.7756 1.458
64.8058 1.979
64.8361 1.927
64.8664 1.667
64.8967 2.448
64.9270 1.719
64.9572 1.927
64.9875 2.396
65.0178 1.823
65.0481 2.083
65.0783 1.979
65.1086 1.875
65.1389 2.656
65.1692 1.927
65.1995 2.448
65.2297 1.927
65.2600 2.031
65.2903 1.823
65.3206 1.823
65.3509 2.031
65.3811 1.979
65.4114 1.771
65.4417 1.875
65.4720 1.979
65.5022 2.083
65.5325 1.979
65.5628 1.667
65.5931 1.927
65.6234 1.823
65.6536 2.344
65.6839 1.875
65.7142 2.448
65.7445 2.344
65.7748 2.083
65.8050 1.979
65.8353 1.719
65.8656 2.187
65.8959 2.917
65.9261 3.073
65.9564 2.344
65.9867 2.448
66.0170 2.969
66.0473 3.854
66.0775 3.177
66.1078 3.229
66.1381 3.542
66.1684 3.594
66.1987 4.010
66.2289 3.073
66.2592 3.750
66.2895 3.594
66.3198 3.906
66.3500 3.229
66.3803 3.073
66.4106 4.479
66.4409 3.437
66.4712 2.604
66.5014 3.125
66.5317 2.083
66.5620 2.865
66.5923 2.135
66.6226 2.396
66.6528 3.073
66.6831 2.708
66.7134 2.448
66.7437 2.187
66.7739 2.448
66.8042 2.292
66.8345 2.292
66.8648 2.865
66.8951 3.125
66.9253 2.292
66.9556 2.500
66.9859 3.125
67.0162 2.865
67.0465 2.760
67.0767 2.604
67.1070 3.437
67.1373 3.333
67.1676 4.115
67.1978 3.333
67.2281 3.542
67.2584 3.385
67.2887 3.958
67.3190 4.427
67.3492 4.115
67.3795 3.958
67.4098 5.260
67.4401 5.156
67.4704 5.000
67.5006 6.562
67.5309 6.510
67.5612 7.344
67.5915 8.177
67.6218 7.865
67.6520 9.115
67.6823 10.208
67.7126 10.833
67.7429 11.458
67.7731 13.021
67.8034 12.500
67.8337 13.594
67.8640 13.385
67.8943 11.302
67.9245 10.417
67.9548 10.990
67.9851 9.687
68.0154 9.167
68.0457 8.906
68.0759 8.073
68.1062 9.167
68.1365 6.198
68.1668 5.990
68.1970 6.094
68.2273 5.521
68.2576 5.000
68.2879 4.948
68.3182 4.323
68.3484 4.427
68.3787 5.052
68.4090 5.156
68.4393 4.427
68.4696 3.750
68.4998 5.052
68.5301 4.167
68.5604 4.167
68.5907 4.948
68.6209 4.115
68.6512 4.948
68.6815 4.479
68.7118 5.417
68.7421 5.104
68.7723 5.729
68.8026 6.562
68.8329 5.781
68.8632 6.198
68.8935 6.615
68.9237 5.885
68.9540 5.417
68.9843 6.823
69.0146 6.927
69.0448 6.354
69.0751 5.625
69.1054 5.573
69.1357 4.896
69.1660 5.052
69.1962 4.583
69.2265 4.792
69.2568 3.542
69.2871 4.010
69.3174 3.437
69.3476 3.750
69.3779 2.760
69.4082 3.333
69.4385 2.760
69.4687 2.448
69.4990 2.396
69.5293 2.656
69.5596 2.812
69.5899 2.656
69.6201 1.771
69.6504 1.719
69.6807 1.823
69.7110 1.823
69.7413 2.344
69.7715 2.396
69.8018 1.771
69.8321 1.979
69.8624 2.083
69.8926 2.083
69.9229 1.771
69.9532 1.667
69.9835 1.823
70.0138 1.875
70.0440 1.354
70.0743 2.083
70.1046 1.615
70.1349 1.667
70.1652 1.771
70.1954 1.771
70.2257 1.771
70.2560 1.458
70.2863 1.771
70.3166 1.771
70.3468 1.667
70.3771 2.031
70.4074 1.875
70.4377 1.458
70.4679 1.667
70.4982 1.771
70.5285 1.615
70.5588 2.240
70.5891 1.719
70.6193 2.031
70.6496 1.927
70.6799 1.771
70.7102 1.302
70.7405 1.615
70.7707 1.458
70.8010 1.771
70.8313 2.292
70.8616 1.302
70.8918 1.562
70.9221 1.302
70.9524 1.771
70.9827 1.615
71.0130 1.562
71.0432 1.875
71.0735 1.198
71.1038 1.250
71.1341 1.250
71.1644 1.615
71.1946 1.510
71.2249 1.667
71.2552 1.094
71.2855 1.250
71.3157 1.042
71.3460 1.198
71.3763 1.302
71.4066 1.250
71.4369 1.667
71.4671 1.250
71.4974 1.510
71.5277 1.771
71.5580 1.042
71.5883 1.094
71.6185 1.250
71.6488 1.771
71.6791 1.615
71.7094 1.510
71.7396 1.458
71.7699 2.083
71.8002 1.719
71.8305 1.406
71.8608 1.302
71.8910 1.198
71.9213 1.510
71.9516 1.354
71.9819 1.250
72.0122 1.719
72.0424 1.927
72.0727 1.615
72.1030 1.198
72.1333 1.146
72.1635 1.406
72.1938 1.823
72.2241 1.823
72.2544 1.562
72.2847 1.823
72.3149 1.667
72.3452 2.240
72.3755 3.073
72.4058 2.656
72.4361 2.604
72.4663 2.344
72.4966 2.708
72.5269 2.031
72.5572 1.823
72.5874 2.396
72.6177 2.187
72.6480 2.083
72.6783 1.667
72.7086 1.667
72.7388 1.875
72.7691 2.240
72.7994 1.562
72.8297 1.458
72.8600 1.510
72.8902 1.198
72.9205 1.198
72.9508 1.875
72.9811 1.198
73.0113 1.562
73.0416 1.250
73.0719 1.198
73.1022 1.667
73.1325 0.990
73.1627 0.833
73.1930 1.198
73.2233 1.250
73.2536 1.042
73.2839 1.406
73.3141 1.406
73.3444 2.031
73.3747 1.302
73.4050 1.458
73.4353 1.406
73.4655 1.250
73.4958 1.094
73.5261 1.198
73.5564 1.458
73.5866 1.667
73.6169 1.146
73.6472 0.885
73.6775 1.146
73.7078 0.885
73.7380 1.719
73.7683 1.458
73.7986 1.406
73.8289 1.042
73.8592 1.562
73.8894 1.510
73.9197 0.885
73.9500 0.937
73.9803 0.937
74.0105 1.250
74.0408 1.198
74.0711 0.937
74.1014 1.354
74.1317 1.250
74.1619 1.354
74.1922 0.990
74.2225 1.042
74.2528 0.990
74.2831 1.458
74.3133 0.521
74.3436 0.990
74.3739 1.406
74.4042 1.302
74.4344 1.042
74.4647 1.458
74.4950 1.198
74.5253 1.198
74.5556 1.354
74.5858 1.406
74.6161 1.562
74.6464 1.146
74.6767 1.510
74.7070 1.562
74.7372 1.094
74.7675 0.833
74.7978 1.458
74.8281 1.302
74.8583 1.302
74.8886 1.146
74.9189 1.250
74.9492 0.833
74.9795 1.198
75.0097 1.458
75.0400 0.885
75.0703 1.458
75.1006 0.729
75.1309 0.729
75.1611 1.719
75.1914 1.250
75.2217 1.615
75.2520 1.146
75.2822 1.094
75.3125 1.875
75.3428 1.458
75.3731 1.198
75.4034 1.771
75.4336 1.198
75.4639 1.198
75.4942 1.406
75.5245 1.198
75.5548 0.990
75.5850 1.406
75.6153 0.990
75.6456 0.729
75.6759 1.094
75.7061 1.250
75.7364 1.094
75.7667 1.302
75.7970 1.094
75.8273 1.354
75.8575 1.354
75.8878 1.354
75.9181 1.458
75.9484 1.198
75.9787 1.146
76.0089 1.615
76.0392 1.250
76.0695 1.719
76.0998 0.885
76.1301 1.458
76.1603 1.667
76.1906 1.354
76.2209 1.250
76.2512 1.198
76.2814 1.562
76.3117 1.667
76.3420 1.510
76.3723 1.510
76.4026 1.823
76.4328 1.250
76.4631 1.562
76.4934 1.771
76.5237 1.771
76.5540 1.771
76.5842 2.292
76.6145 1.667
76.6448 2.344
76.6751 2.344
76.7053 2.865
76.7356 2.135
76.7659 2.135
76.7962 2.500
76.8265 2.708
76.8567 2.344
76.8870 1.875
76.9173 2.500
76.9476 2.552
76.9779 2.292
77.0081 2.240
77.0384 2.760
77.0687 1.823
77.0990 1.979
77.1292 1.823
77.1595 1.771
77.1898 1.615
77.2201 1.719
77.2504 1.667
77.2806 1.562
77.3109 1.510
77.3412 1.562
77.3715 1.406
77.4018 1.615
77.4320 1.979
77.4623 1.198
77.4926 1.406
77.5229 1.875
77.5531 1.250
77.5834 1.250
77.6137 1.406
77.6440 1.146
77.6743 1.354
77.7045 0.729
77.7348 1.615
77.7651 1.771
77.7954 1.354
77.8257 1.198
77.8559 1.302
77.8862 0.885
77.9165 1.198
77.9468 1.302
77.9770 1.458
78.0073 1.302
78.0376 1.354
78.0679 2.031
78.0982 1.302
78.1284 1.198
78.1587 1.667
78.1890 0.990
78.2193 1.198
78.2496 1.562
78.2798 0.833
78.3101 1.198
78.3404 1.927
78.3707 1.146
78.4009 0.833
78.4312 1.250
78.4615 1.354
78.4918 1.146
78.5221 1.042
78.5523 1.667
78.5826 0.729
78.6129 0.937
78.6432 1.146
78.6735 1.094
78.7037 1.823
78.7340 1.615
78.7643 1.250
78.7946 1.146
78.8248 1.042
78.8551 0.937
78.8854 1.198
78.9157 1.250
78.9460 1.094
78.9762 1.250
79.0065 0.729
79.0368 1.562
79.0671 1.250
79.0974 1.042
79.1276 1.406
79.1579 1.146
79.1882 1.458
79.2185 1.667
79.2488 0.885
79.2790 1.198
79.3093 0.729
79.3396 0.937
79.3699 0.990
79.4001 1.042
79.4304 0.885
79.4607 0.937
79.4910 1.198
79.5213 1.198
79.5515 1.198
79.5818 1.510
79.6121 1.562
79.6424 1.146
79.6727 1.094
79.7029 1.510
79.7332 1.042
79.7635 0.990
79.7938 1.094
79.8240 0.990
79.8543 1.458
79.8846 0.781
79.9149 0.885
79.9452 1.250
79.9754 1.406
80.0057 1.510
80.0360 1.302
80.0663 0.990
80.0966 1.458
80.1268 0.937
80.1571 0.937
80.1874 1.094
80.2177 1.094
80.2479 0.990
80.2782 1.354
80.3085 1.198
80.3388 1.719
80.3691 0.990
80.3993 1.198
80.4296 0.729
80.4599 1.615
80.4902 1.250
80.5205 0.729
80.5507 1.510
80.5810 1.198
80.6113 1.719
80.6416 1.302
80.6718 1.198
80.7021 1.354
80.7324 1.667
80.7627 1.458
80.7930 1.198
80.8232 1.667
80.8535 1.406
80.8838 1.302
80.9141 1.562
80.9444 1.562
80.9746 1.146
81.0049 1.458
81.0352 1.302
81.0655 1.667
81.0957 2.135
81.1260 2.135
81.1563 2.031
81.1866 1.927
81.2169 1.875
81.2471 1.979
81.2774 2.031
81.3077 1.719
81.3380 1.771
81.3683 1.771
81.3985 1.354
81.4288 1.875
81.4591 2.396
81.4894 1.615
81.5196 1.615
81.5499 1.250
81.5802 1.771
81.6105 1.667
81.6408 1.354
81.6710 1.406
81.7013 1.510
81.7316 1.458
81.7619 1.250
81.7922 1.094
81.8224 1.198
81.8527 1.146
81.8830 1.198
81.9133 1.406
81.9436 1.719
81.9738 1.198
82.0041 0.990
82.0344 1.198
82.0647 1.198
82.0949 1.042
82.1252 1.510
82.1555 1.146
82.1858 1.250
82.2161 1.042
82.2463 1.250
82.2766 1.042
82.3069 1.094
82.3372 1.302
82.3675 1.250
82.3977 0.885
82.4280 1.354
82.4583 0.625
82.4886 1.354
82.5188 0.885
82.5491 1.250
82.5794 1.615
82.6097 1.198
82.6400 1.667
82.6702 0.885
82.7005 1.198
82.7308 1.198
82.7611 1.146
82.7914 1.354
82.8216 0.990
82.8519 1.146
82.8822 1.198
82.9125 1.198
82.9427 1.354
82.9730 1.302
83.0033 1.406
83.0336 1.510
83.0639 0.885
83.0941 1.042
83.1244 1.302
83.1547 1.250
83.1850 1.458
83.2153 1.094
83.2455 1.354
83.2758 1.146
83.3061 1.198
83.3364 0.937
83.3666 0.781
83.3969 1.094
83.4272 1.250
83.4575 1.615
83.4878 1.198
83.5180 1.302
83.5483 0.677
83.5786 1.615
83.6089 1.198
83.6392 1.250
83.6694 1.146
83.6997 1.250
83.7300 1.146
83.7603 1.510
83.7905 0.937
83.8208 1.250
83.8511 1.406
83.8814 0.990
83.9117 1.354
83.9419 1.302
83.9722 0.937
84.0025 1.198
84.0328 0.937
84.0631 1.302
84.0933 1.146
84.1236 1.042
84.1539 1.302
84.1842 1.146
84.2144 1.146
84.2447 1.198
84.2750 0.833
84.3053 1.250
84.3356 1.562
84.3658 1.198
84.3961 1.354
84.4264 0.937
84.4567 1.198
84.4870 1.354
84.5172 1.146
84.5475 1.406
84.5778 0.937
84.6081 1.198
84.6383 1.250
84.6686 1.146
84.6989 1.302
84.7292 0.833
84.7595 1.615
84.7897 1.250
84.8200 1.146
84.8503 1.927
84.8806 1.198
84.9109 1.198
84.9411 0.990
84.9714 1.146
85.0017 1.302
85.0320 0.729
85.0623 1.771
85.0925 1.406
85.1228 1.302
85.1531 1.042
85.1834 1.146
85.2136 1.146
85.2439 0.937
85.2742 1.302
85.3045 0.937
85.3348 1.198
85.3650 1.302
85.3953 1.198
85.4256 0.729
85.4559 1.094
85.4862 1.302
85.5164 0.990
85.5467 0.990
85.5770 0.833
85.6073 1.250
85.6375 1.667
85.6678 1.146
85.6981 1.198
85.7284 1.302
85.7587 0.781
85.7889 1.250
85.8192 1.094
85.8495 1.562
85.8798 1.406
85.9101 0.885
85.9403 1.354
85.9706 1.510
86.0009 1.250
86.0312 1.146
86.0614 1.146
86.0917 1.094
86.1220 0.990
86.1523 0.990
86.1826 0.990
86.2128 1.042
86.2431 1.562
86.2734 1.250
86.3037 0.833
86.3340 1.042
86.3642 1.615
86.3945 1.250
86.4248 1.042
86.4551 1.198
86.4853 1.458
86.5156 0.990
86.5459 1.146
86.5762 1.302
86.6065 1.354
86.6367 1.615
86.6670 0.937
86.6973 1.302
86.7276 1.198
86.7579 1.354
86.7881 0.990
86.8184 1.198
86.8487 0.990
86.8790 0.833
86.9092 1.094
86.9395 1.094
86.9698 0.885
87.0001 1.406
87.0304 0.885
87.0606 0.937
87.0909 1.354
87.1212 1.458
87.1515 1.094
87.1818 1.562
87.2120 1.615
87.2423 1.146
87.2726 1.146
87.3029 1.198
87.3331 1.198
87.3634 1.042
87.3937 1.042
87.4240 1.198
87.4543 1.094
87.4845 1.198
87.5148 1.875
87.5451 1.250
87.5754 0.937
87.6057 1.250
87.6359 1.562
87.6662 1.146
87.6965 1.302
87.7268 1.146
87.7571 1.406
87.7873 1.250
87.8176 1.198
87.8479 1.250
87.8782 1.094
87.9084 1.042
87.9387 1.198
87.9690 1.198
87.9993 1.250
88.0296 1.146
88.0598 1.146
88.0901 1.354
88.1204 1.302
88.1507 1.354
88.1810 1.250
88.2112 1.250
88.2415 1.146
88.2718 1.198
88.3021 1.198
88.3323 1.458
88.3626 1.094
88.3929 1.042
88.4232 1.719
88.4535 1.615
88.4837 1.823
88.5140 1.667
88.5443 1.562
88.5746 1.667
88.6049 1.667
88.6351 1.719
88.6654 1.094
88.6957 1.042
88.7260 1.823
88.7562 1.615
88.7865 1.458
88.8168 1.094
88.8471 1.615
88.8774 1.562
88.9076 1.823
88.9379 1.562
88.9682 1.667
88.9985 2.031
89.0288 1.771
89.0590 2.187
89.0893 2.135
89.1196 2.604
89.1499 2.760
89.1801 2.083
89.2104 2.344
89.2407 2.292
89.2710 4.219
89.3013 3.073
89.3315 3.125
89.3618 3.073
89.3921 3.750
89.4224 4.010
89.4527 3.542
89.4829 3.750
89.5132 3.385
89.5435 3.698
89.5738 2.865
89.6040 2.865
89.6343 3.542
89.6646 2.656
89.6949 3.385
89.7252 2.708
89.7554 2.500
89.7857 2.917
89.8160 2.604
89.8463 2.865
89.8766 2.865
89.9068 2.552
89.9371 2.135
89.9674 1.771
89.9977 2.135
90.0279 1.354
90.0582 2.344
90.0885 1.667
90.1188 2.292
90.1491 1.458
90.1793 1.615
90.2096 1.823
90.2399 1.667
90.2702 1.510
90.3005 1.667
90.3307 1.771
90.3610 2.344
90.3913 1.250
90.4216 1.510
90.4518 1.771
90.4821 1.510
90.5124 1.719
90.5427 1.667
90.5730 1.562
90.6032 1.510
90.6335 1.615
90.6638 1.562
90.6941 1.615
90.7244 1.198
90.7546 1.354
90.7849 1.406
90.8152 1.198
90.8455 1.302
90.8758 2.135
90.9060 1.198
90.9363 1.198
90.9666 1.667
90.9969 1.875
91.0271 1.250
91.0574 1.146
91.0877 1.250
91.1180 0.885
91.1483 1.823
91.1785 1.146
91.2088 1.198
91.2391 1.198
91.2694 0.885
91.2997 1.146
91.3299 1.042
91.3602 1.771
91.3905 1.250
91.4208 1.250
91.4510 1.250
91.4813 0.625
91.5116 1.302
91.5419 1.302
91.5722 1.042
91.6024 1.354
91.6327 1.094
91.6630 1.094
91.6933 1.198
91.7236 0.990
91.7538 1.354
91.7841 1.198
91.8144 1.927
91.8447 1.615
91.8749 1.667
91.9052 1.354
91.9355 1.562
91.9658 1.042
91.9961 1.562
92.0263 1.510
92.0566 1.771
92.0869 1.562
92.1172 1.667
92.1475 1.615
92.1777 1.354
92.2080 1.146
92.2383 1.146
92.2686 1.823
92.2988 1.719
92.3291 1.354
92.3594 1.250
92.3897 1.562
92.4200 1.823
92.4502 1.667
92.4805 2.083
92.5108 2.187
92.5411 1.719
92.5714 1.615
92.6016 1.562
92.6319 2.187
92.6622 1.979
92.6925 1.979
92.7227 1.510
92.7530 1.458
92.7833 2.552
92.8136 1.875
92.8439 2.083
92.8741 1.510
92.9044 1.510
92.9347 1.667
92.9650 1.406
92.9953 1.510
93.0255 2.292
93.0558 1.667
93.0861 1.562
93.1164 1.823
93.1466 0.990
93.1769 1.823
93.2072 1.927
93.2375 1.146
93.2678 1.042
93.2980 1.458
93.3283 1.146
93.3586 1.198
93.3889 1.719
93.4192 1.094
93.4494 1.406
93.4797 1.667
93.5100 1.042
93.5403 0.885
93.5706 1.354
93.6008 1.042
93.6311 1.198
93.6614 1.667
93.6917 1.719
93.7219 1.250
93.7522 1.406
93.7825 1.406
93.8128 1.562
93.8431 1.406
93.8733 1.198
93.9036 1.198
93.9339 1.094
93.9642 1.198
93.9945 0.937
94.0247 1.719
94.0550 1.042
94.0853 2.083
94.1156 0.833
94.1458 1.302
94.1761 1.615
94.2064 1.719
94.2367 1.719
94.2670 0.990
94.2972 1.250
94.3275 1.615
94.3578 1.615
94.3881 1.771
94.4184 1.198
94.4486 1.719
94.4789 1.719
94.5092 1.667
94.5395 1.354
94.5697 1.667
94.6000 1.510
94.6303 2.187
94.6606 2.187
94.6909 2.187
94.7211 1.927
94.7514 2.500
94.7817 2.500
94.8120 2.135
94.8423 2.240
94.8725 2.187
94.9028 2.812
94.9331 2.708
94.9634 2.552
94.9936 3.177
95.0239 3.490
95.0542 3.021
95.0845 2.812
95.1148 2.969
95.1450 2.969
95.1753 2.760
95.2056 3.333
95.2359 3.437
95.2662 3.385
95.2964 2.708
95.3267 3.281
95.3570 3.177
95.3873 3.333
95.4175 3.073
95.4478 3.021
95.4781 3.125
95.5084 3.073
95.5387 2.240
95.5689 2.656
95.5992 2.344
95.6295 2.448
95.6598 2.240
95.6901 1.979
95.7203 2.344
95.7506 1.927
95.7809 1.823
95.8112 1.667
95.8414 2.031
95.8717 2.135
95.9020 1.406
95.9323 1.875
95.9626 1.510
95.9928 1.927
96.0231 1.406
96.0534 1.354
96.0837 1.510
96.1140 1.354
96.1442 1.250
96.1745 1.562
96.2048 1.198
96.2351 1.302
96.2653 1.354
96.2956 1.510
96.3259 1.771
96.3562 1.094
96.3865 1.042
96.4167 1.510
96.4470 1.771
96.4773 1.354
96.5076 1.615
96.5379 1.198
96.5681 1.510
96.5984 1.354
96.6287 1.458
96.6590 1.510
96.6893 1.667
96.7195 1.562
96.7498 1.250
96.7801 1.510
96.8104 1.458
96.8406 0.573
96.8709 0.937
96.9012 1.250
96.9315 1.250
96.9618 1.823
96.9920 1.406
97.0223 1.302
97.0526 1.146
97.0829 1.771
97.1132 1.042
97.1434 1.562
97.1737 1.615
97.2040 0.885
97.2343 1.198
97.2645 1.406
97.2948 1.302
97.3251 1.250
97.3554 1.406
97.3857 1.250
97.4159 1.146
97.4462 1.823
97.4765 1.406
97.5068 1.719
97.5371 1.250
97.5673 1.302
97.5976 1.354
97.6279 1.458
97.6582 1.146
97.6884 1.719
97.7187 1.719
97.7490 1.250
97.7793 1.719
97.8096 1.615
97.8398 1.823
97.8701 1.771
97.9004 1.667
97.9307 0.885
97.9610 1.667
97.9912 1.771
98.0215 1.719
98.0518 1.302
98.0821 1.510
98.1123 1.875
98.1426 1.927
98.1729 1.406
98.2032 1.562
98.2335 1.562
98.2637 2.344
98.2940 2.187
98.3243 1.875
98.3546 2.240
98.3849 2.500
98.4151 1.979
98.4454 2.240
98.4757 1.979
98.5060 2.812
98.5362 2.187
98.5665 2.344
98.5968 2.083
98.6271 2.292
98.6574 2.604
98.6876 2.240
98.7179 2.656
98.7482 2.292
98.7785 2.344
98.8088 1.927
98.8390 2.031
98.8693 2.083
98.8996 1.562
98.9299 2.240
98.9601 1.667
98.9904 1.719
99.0207 1.042
99.0510 1.562
99.0813 1.354
99.1115 1.667
99.1418 1.406
99.1721 1.615
99.2024 1.406
99.2327 1.823
99.2629 1.719
99.2932 1.406
99.3235 1.146
99.3538 1.458
99.3841 1.406
99.4143 1.198
99.4446 0.937
99.4749 1.042
99.5052 0.833
99.5354 1.302
99.5657 1.562
99.5960 1.354
99.6263 1.458
99.6566 1.719
99.6868 1.719
99.7171 1.250
99.7474 1.510
99.7777 1.302
99.8080 1.250
99.8382 1.198
99.8685 0.990
99.8988 1.302
99.9291 1.198
99.9593 0.990
99.9896 1.354
100.0199 1.562
100.0502 1.146
100.0805 0.937
100.1107 1.458
100.1410 1.094
100.1713 1.510
100.2016 0.833
100.2319 1.615
100.2621 1.146
100.2924 0.885
100.3227 1.094
100.3530 1.406
100.3832 1.250
100.4135 0.781
100.4438 1.198
100.4741 1.146
100.5044 1.562
100.5346 1.354
100.5649 1.146
100.5952 1.198
100.6255 1.406
100.6558 0.885
100.6860 1.146
100.7163 1.042
100.7466 1.250
100.7769 1.302
100.8071 1.302
100.8374 1.146
100.8677 1.302
100.8980 1.406
100.9283 1.302
100.9585 1.042
100.9888 1.042
101.0191 1.771
101.0494 1.302
101.0797 1.146
101.1099 1.510
101.1402 1.042
101.1705 1.406
101.2008 0.781
101.2310 1.354
101.2613 1.458
101.2916 0.990
101.3219 1.302
101.3522 1.094
101.3824 1.562
101.4127 0.990
101.4430 1.094
101.4733 1.146
101.5036 1.198
101.5338 1.615
101.5641 1.250
101.5944 1.458
101.6247 1.302
101.6549 1.510
101.6852 1.354
101.7155 1.667
101.7458 1.823
101.7761 1.406
101.8063 1.406
101.8366 1.823
101.8669 1.458
101.8972 1.458
101.9275 1.354
101.9577 1.354
101.9880 1.979
102.0183 1.719
102.0486 1.615
102.0788 1.094
102.1091 1.302
102.1394 1.250
102.1697 1.406
102.2000 1.250
102.2302 1.510
102.2605 1.406
102.2908 1.302
102.3211 1.823
102.3514 1.458
102.3816 2.135
102.4119 1.771
102.4422 1.875
102.4725 1.250
102.5028 1.927
102.5330 1.510
102.5633 1.875
102.5936 1.667
102.6239 1.979
102.6541 1.302
102.6844 2.031
102.7147 2.396
102.7450 2.344
102.7753 1.667
102.8055 1.875
102.8358 2.187
102.8661 2.031
102.8964 1.406
102.9267 2.083
102.9569 1.927
102.9872 1.771
103.0175 1.927
103.0478 2.240
103.0780 1.927
103.1083 1.771
103.1386 1.771
103.1689 1.927
103.1992 2.031
103.2294 2.187
103.2597 1.927
103.2900 1.615
103.3203 1.562
103.3506 1.667
103.3808 1.771
103.4111 1.667
103.4414 2.396
103.4717 2.396
103.5019 1.927
103.5322 2.187
103.5625 2.292
103.5928 1.875
103.6231 1.719
103.6533 1.979
103.6836 1.927
103.7139 2.083
103.7442 2.187
103.7745 2.240
103.8047 2.552
103.8350 2.708
103.8653 3.385
103.8956 2.552
103.9258 2.187
103.9561 3.906
103.9864 3.646
104.0167 2.812
104.0470 2.969
104.0772 3.229
104.1075 2.760
104.1378 2.656
104.1681 2.865
104.1984 2.604
104.2286 2.135
104.2589 2.083
104.2892 2.396
104.3195 1.979
104.3497 3.177
104.3800 2.396
104.4103 2.031
104.4406 2.135
104.4709 1.875
104.5011 1.771
104.5314 1.927
104.5617 1.667
104.5920 1.458
104.6223 1.615
104.6525 2.187
104.6828 2.135
104.7131 1.927
104.7434 2.031
104.7736 2.031
104.8039 1.458
104.8342 1.771
104.8645 1.562
104.8948 1.927
104.9250 1.458
104.9553 1.458
104.9856 1.198
105.0159 1.771
105.0462 1.719
105.0764 0.833
105.1067 1.458
105.1370 1.823
105.1673 1.302
105.1975 0.990
105.2278 1.615
105.2581 1.250
105.2884 1.406
105.3187 0.937
105.3489 0.990
105.3792 1.667
105.4095 1.094
105.4398 1.458
105.4701 1.615
105.5003 1.667
105.5306 1.510
105.5609 1.562
105.5912 1.198
105.6215 1.667
105.6517 1.198
105.6820 1.771
105.7123 1.094
105.7426 1.406
105.7728 1.510
105.8031 1.458
105.8334 1.198
105.8637 0.937
105.8940 1.406
105.9242 1.719
105.9545 0.990
105.9848 1.510
106.0151 1.354
106.0454 1.094
106.0756 1.458
106.1059 0.937
106.1362 1.562
106.1665 1.094
106.1967 1.302
106.2270 1.406
106.2573 1.198
106.2876 1.250
106.3179 1.094
106.3481 1.250
106.3784 1.354
106.4087 1.510
106.4390 1.198
106.4693 1.042
106.4995 1.406
106.5298 1.250
106.5601 1.719
106.5904 1.302
106.6206 1.146
106.6509 1.406
106.6812 1.302
106.7115 1.146
106.7418 1.719
106.7720 1.406
106.8023 1.250
106.8326 1.458
106.8629 1.094
106.8932 0.833
106.9234 1.458
106.9537 1.198
106.9840 0.781
107.0143 1.198
107.0445 1.406
107.0748 1.146
107.1051 1.510
107.1354 1.250
107.1657 1.458
107.1959 1.719
107.2262 1.406
107.2565 1.458
107.2868 1.458
107.3171 1.458
107.3473 1.146
107.3776 1.458
107.4079 0.833
107.4382 1.458
107.4684 1.823
107.4987 1.094
107.5290 1.510
107.5593 1.302
107.5896 0.937
107.6198 1.354
107.6501 1.146
107.6804 1.458
107.7107 1.667
107.7410 1.250
107.7712 1.823
107.8015 1.354
107.8318 1.042
107.8621 1.198
107.8923 1.250
107.9226 1.458
107.9529 1.510
107.9832 1.458
108.0135 1.354
108.0437 1.510
108.0740 1.615
108.1043 1.875
108.1346 1.354
108.1649 0.990
108.1951 1.250
108.2254 1.458
108.2557 0.990
108.2860 1.510
108.3163 0.937
108.3465 0.937
108.3768 1.094
108.4071 2.031
108.4374 1.042
108.4676 0.833
108.4979 1.094
108.5282 1.667
108.5585 1.823
108.5888 1.302
108.6190 1.354
108.6493 1.094
108.6796 1.250
108.7099 1.250
108.7402 1.354
108.7704 1.406
108.8007 1.510
108.8310 1.510
108.8613 1.719
108.8915 1.354
108.9218 1.302
108.9521 1.406
108.9824 1.458
109.0127 0.937
109.0429 0.937
109.0732 1.354
109.1035 1.406
109.1338 0.937
109.1641 1.562
109.1943 1.198
109.2246 1.510
109.2549 1.562
109.2852 1.406
109.3154 1.562
109.3457 1.302
109.3760 1.510
109.4063 1.510
109.4366 1.562
109.4668 1.875
109.4971 1.562
109.5274 1.562
109.5577 1.146
109.5880 1.719
109.6182 1.146
109.6485 1.250
109.6788 1.354
109.7091 1.146
109.7393 1.146
109.7696 2.187
109.7999 1.719
109.8302 1.562
109.8605 2.031
109.8907 1.667
109.9210 1.562
109.9513 1.510
109.9816 1.406
110.0119 1.562
110.0421 1.510
110.0724 2.031
110.1027 2.031
110.1330 1.719
110.1632 1.719
110.1935 2.031
110.2238 2.031
110.2541 2.500
110.2844 1.615
110.3146 1.615
110.3449 1.927
110.3752 2.292
110.4055 1.615
110.4358 1.979
110.4660 2.135
110.4963 2.187
110.5266 1.562
110.5569 1.719
110.5871 1.615
110.6174 1.094
110.6477 1.667
110.6780 1.562
110.7083 1.250
110.7385 1.198
110.7688 1.094
110.7991 1.198
110.8294 1.719
110.8597 1.146
110.8899 2.083
110.9202 1.562
110.9505 1.198
110.9808 1.146
111.0110 1.146
111.0413 1.250
111.0716 1.354
111.1019 1.667
111.1322 1.354
111.1624 1.354
111.1927 1.250
111.2230 1.510
111.2533 1.406
111.2836 1.615
111.3138 1.146
111.3441 1.458
111.3744 1.042
111.4047 0.990
111.4350 1.406
111.4652 1.458
111.4955 1.042
111.5258 1.146
111.5561 1.354
111.5863 1.042
111.6166 1.198
111.6469 1.198
111.6772 1.510
111.7075 1.354
111.7377 0.885
111.7680 1.042
111.7983 1.458
111.8286 1.354
111.8589 1.458
111.8891 0.990
111.9194 1.042
111.9497 1.354
111.9800 1.667
112.0102 1.198
112.0405 1.615
112.0708 1.042
112.1011 1.406
112.1314 1.354
112.1616 1.615
112.1919 0.990
112.2222 1.406
112.2525 1.250
112.2828 0.990
112.3130 1.510
112.3433 1.354
112.3736 1.562
112.4039 1.510
112.4341 1.250
112.4644 1.094
112.4947 1.042
112.5250 1.146
112.5553 1.458
112.5855 1.042
112.6158 1.198
112.6461 0.990
112.6764 1.094
112.7067 1.094
112.7369 1.458
112.7672 1.354
112.7975 1.719
112.8278 0.833
112.8580 0.937
112.8883 1.042
112.9186 1.354
112.9489 1.458
112.9792 1.719
113.0094 0.781
113.0397 1.042
113.0700 1.406
113.1003 0.990
113.1306 1.302
113.1608 1.042
113.1911 1.042
113.2214 1.198
113.2517 1.094
113.2819 1.146
113.3122 1.406
113.3425 1.198
113.3728 1.302
113.4031 1.354
113.4333 1.094
113.4636 1.198
113.4939 1.198
113.5242 1.354
113.5545 1.250
113.5847 1.458
113.6150 1.458
113.6453 1.302
113.6756 1.094
113.7058 0.937
113.7361 1.771
113.7664 1.302
113.7967 1.198
113.8270 1.302
113.8572 0.781
113.8875 1.250
113.9178 1.250
113.9481 1.562
113.9784 1.198
114.0086 1.458
114.0389 1.198
114.0692 1.094
114.0995 1.406
114.1298 1.198
114.1600 1.250
114.1903 1.562
114.2206 1.302
114.2509 1.354
114.2811 1.094
114.3114 1.042
114.3417 1.667
114.3720 0.990
114.4023 1.094
114.4325 1.042
114.4628 1.562
114.4931 1.458
114.5234 1.667
114.5537 1.354
114.5839 1.250
114.6142 1.042
114.6445 1.250
114.6748 1.250
114.7050 1.458
114.7353 1.406
114.7656 1.406
114.7959 1.198
114.8262 1.823
114.8564 1.510
114.8867 1.250
114.9170 1.198
114.9473 1.771
114.9776 1.562
115.0078 1.615
115.0381 1.406
115.0684 1.094
115.0987 1.510
115.1289 1.458
115.1592 1.823
115.1895 1.927
115.2198 1.771
115.2501 1.719
115.2803 1.458
115.3106 1.823
115.3409 2.031
115.3712 1.667
115.4015 1.771
115.4317 1.667
115.4620 1.667
115.4923 1.823
115.5226 2.083
115.5528 2.135
115.5831 2.656
115.6134 2.135
115.6437 2.187
115.6740 2.760
115.7042 1.927
115.7345 2.812
115.7648 2.396
115.7951 2.552
115.8254 2.552
115.8556 2.708
115.8859 2.448
115.9162 3.385
115.9465 2.500
115.9767 2.708
116.0070 3.125
116.0373 3.437
116.0676 3.437
116.0979 2.865
116.1281 3.802
116.1584 2.656
116.1887 3.229
116.2190 2.500
116.2493 4.115
116.2795 2.865
116.3098 2.396
116.3401 3.229
116.3704 2.708
116.4006 2.708
116.4309 3.229
116.4612 2.240
116.4915 2.865
116.5218 2.812
116.5520 2.812
116.5823 2.865
116.6126 2.969
116.6429 2.552
116.6732 2.500
116.7034 1.979
116.7337 2.604
116.7640 2.240
116.7943 2.187
116.8245 2.187
116.8548 2.604
116.8851 1.927
116.9154 2.292
116.9457 1.823
116.9759 2.083
117.0062 1.823
117.0365 2.500
117.0668 2.187
117.0971 1.875
117.1273 1.771
117.1576 1.875
117.1879 1.406
117.2182 1.354
117.2485 1.198
117.2787 1.875
117.3090 1.562
117.3393 1.562
117.3696 1.302
117.3998 1.979
117.4301 1.823
117.4604 1.458
117.4907 0.937
117.5210 1.250
117.5512 1.146
117.5815 1.458
117.6118 1.042
117.6421 1.354
117.6724 1.562
117.7026 1.615
117.7329 1.771
117.7632 1.615
117.7935 1.250
117.8237 1.771
117.8540 0.990
117.8843 1.042
117.9146 1.198
117.9449 1.875
117.9751 1.250
118.0054 1.198
118.0357 1.771
118.0660 1.302
118.0963 1.302
118.1265 1.771
118.1568 0.937
118.1871 1.146
118.2174 1.250
118.2476 1.771
118.2779 1.406
118.3082 1.302
118.3385 1.354
118.3688 1.146
118.3990 1.094
118.4293 0.781
118.4596 1.354
118.4899 1.354
118.5202 1.510
118.5504 1.302
118.5807 1.302
118.6110 1.510
118.6413 0.729
118.6715 1.250
118.7018 1.198
118.7321 1.198
118.7624 1.094
118.7927 0.833
118.8229 1.094
118.8532 1.510
118.8835 1.406
118.9138 0.937
118.9441 0.937
118.9743 1.250
119.0046 1.146
119.0349 1.406
119.0652 1.094
119.0954 1.719
119.1257 1.667
119.1560 1.354
119.1863 1.562
119.2166 0.833
119.2468 1.302
119.2771 1.094
119.3074 1.302
119.3377 1.198
119.3680 1.458
119.3982 1.354
119.4285 1.354
119.4588 1.146
119.4891 1.406
119.5193 0.990
119.5496 1.354
119.5799 1.510
119.6102 1.146
119.6405 1.094
119.6707 1.302
119.7010 1.354
119.7313 1.042
119.7616 1.354
119.7919 1.302
119.8221 1.198
119.8524 1.146
119.8827 1.354
119.9130 2.031
119.9433 0.990
119.9735 1.302
120.0038 1.354
