'Id: "" Comment: "" Operator: "Lab Manager" Anode: "Cu" Scantype: "Locked Coupled" TimePerStep: "19.2" X: "9999" Y: "9999" Z: "9999" 
10.0015 3.594
10.0318 5.417
10.0620 4.167
10.0923 3.750
10.1226 4.583
10.1529 4.010
10.1832 3.802
10.2134 3.802
10.2437 4.792
10.2740 4.271
10.3043 4.010
10.3346 4.687
10.3648 4.062
10.3951 4.271
10.4254 2.865
10.4557 4.167
10.4859 3.385
10.5162 3.906
10.5465 3.594
10.5768 3.646
10.6071 3.698
10.6373 3.021
10.6676 3.854
10.6979 3.958
10.7282 3.906
10.7585 4.167
10.7887 3.802
10.8190 3.802
10.8493 3.073
10.8796 3.906
10.9098 3.750
10.9401 4.167
10.9704 3.958
11.0007 4.167
11.0310 4.062
11.0612 4.010
11.0915 3.594
11.1218 3.542
11.1521 4.479
11.1824 3.490
11.2126 3.854
11.2429 2.969
11.2732 2.604
11.3035 2.917
11.3337 2.969
11.3640 3.906
11.3943 4.375
11.4246 3.906
11.4549 3.437
11.4851 4.062
11.5154 3.385
11.5457 4.323
11.5760 4.010
11.6063 4.115
11.6365 3.021
11.6668 3.490
11.6971 3.385
11.7274 3.646
11.7577 3.854
11.7879 4.062
11.8182 4.062
11.8485 3.906
11.8788 3.958
11.9090 3.646
11.9393 3.646
11.9696 4.271
11.9999 3.437
12.0302 3.958
12.0604 3.594
12.0907 3.281
12.1210 2.656
12.1513 2.604
12.1816 3.385
12.2118 4.115
12.2421 3.073
12.2724 3.594
12.3027 3.958
12.3329 3.542
12.3632 3.490
12.3935 4.323
12.4238 3.594
12.4541 3.490
12.4843 3.281
12.5146 2.500
12.5449 3.646
12.5752 2.917
12.6055 3.646
12.6357 3.333
12.6660 3.698
12.6963 2.812
12.7266 3.594
12.7568 4.062
12.7871 3.594
12.8174 3.281
12.8477 4.271
12.8780 3.594
12.9082 2.969
12.9385 4.167
12.9688 3.021
12.9991 2.656
13.0294 3.802
13.0596 3.177
13.0899 3.073
13.1202 3.750
13.1505 3.385
13.1807 3.958
13.2110 4.010
13.2413 3.073
13.2716 3.229
13.3019 4.010
13.3321 3.802
13.3624 3.385
13.3927 2.812
13.4230 3.802
13.4533 2.448
13.4835 2.917
13.5138 3.646
13.5441 4.010
13.5744 3.854
13.6046 3.854
13.6349 3.490
13.6652 3.125
13.6955 3.437
13.7258 4.167
13.7560 3.229
13.7863 2.812
13.8166 3.854
13.8469 3.385
13.8772 3.177
13.9074 3.490
13.9377 3.437
13.9680 2.656
13.9983 3.073
14.0285 2.396
14.0588 3.437
14.0891 3.229
14.1194 3.542
14.1497 3.854
14.1799 3.281
14.2102 2.552
14.2405 3.698
14.2708 2.812
14.3011 3.646
14.3313 3.437
14.3616 3.646
14.3919 2.240
14.4222 2.917
14.4524 3.542
14.4827 3.125
14.5130 2.969
14.5433 3.385
14.5736 2.812
14.6038 3.698
14.6341 3.021
14.6644 2.865
14.6947 3.021
14.7250 2.969
14.7552 4.271
14.7855 2.396
14.8158 3.229
14.8461 3.281
14.8764 3.021
14.9066 3.229
14.9369 2.969
14.9672 3.021
14.9975 3.698
15.0277 2.812
15.0580 2.656
15.0883 2.604
15.1186 3.333
15.1489 3.854
15.1791 2.552
15.2094 3.490
15.2397 2.917
15.2700 3.229
15.3003 2.708
15.3305 2.969
15.3608 3.229
15.3911 3.073
15.4214 2.604
15.4516 3.073
15.4819 2.760
15.5122 2.865
15.5425 1.979
15.5728 2.917
15.6030 3.542
15.6333 4.375
15.6636 3.437
15.6939 2.708
15.7242 2.917
15.7544 2.812
15.7847 3.177
15.8150 2.656
15.8453 2.448
15.8755 3.073
15.9058 3.125
15.9361 3.906
15.9664 3.177
15.9967 3.073
16.0269 4.115
16.0572 3.229
16.0875 3.385
16.1178 3.437
16.1481 2.552
16.1783 3.385
16.2086 2.917
16.2389 2.552
16.2692 2.240
16.2994 2.812
16.3297 2.448
16.3600 3.177
16.3903 2.917
16.4206 2.865
16.4508 3.229
16.4811 2.812
16.5114 3.750
16.5417 2.396
16.5720 2.969
16.6022 2.812
16.6325 2.500
16.6628 3.125
16.6931 2.969
16.7233 3.177
16.7536 3.229
16.7839 2.865
16.8142 3.854
16.8445 2.917
16.8747 3.229
16.9050 3.281
16.9353 3.437
16.9656 3.490
16.9959 3.333
17.0261 3.333
17.0564 2.812
17.0867 3.229
17.1170 2.969
17.1472 2.656
17.1775 2.760
17.2078 3.125
17.2381 3.385
17.2684 2.760
17.2986 2.812
17.3289 2.969
17.3592 2.760
17.3895 3.073
17.4198 2.760
17.4500 2.760
17.4803 2.760
17.5106 3.073
17.5409 2.865
17.5712 3.073
17.6014 3.698
17.6317 3.333
17.6620 2.604
17.6923 3.333
17.7225 3.073
17.7528 2.708
17.7831 3.177
17.8134 3.437
17.8437 3.177
17.8739 3.646
17.9042 3.490
17.9345 3.073
17.9648 2.708
17.9951 3.177
18.0253 3.281
18.0556 2.500
18.0859 2.240
18.1162 2.917
18.1464 4.010
18.1767 2.760
18.2070 2.604
18.2373 2.708
18.2676 2.135
18.2978 3.021
18.3281 3.073
18.3584 2.865
18.3887 2.135
18.4190 2.917
18.4492 3.229
18.4795 2.187
18.5098 2.396
18.5401 2.969
18.5703 3.229
18.6006 2.656
18.6309 2.917
18.6612 1.771
18.6915 2.604
18.7217 3.073
18.7520 3.229
18.7823 3.490
18.8126 3.802
18.8429 2.708
18.8731 2.917
18.9034 2.760
18.9337 2.604
18.9640 3.125
18.9942 2.604
19.0245 2.917
19.0548 2.760
19.0851 2.917
19.1154 2.552
19.1456 3.073
19.1759 2.708
19.2062 2.552
19.2365 3.073
19.2668 2.812
19.2970 3.385
19.3273 2.708
19.3576 3.281
19.3879 2.396
19.4181 4.010
19.4484 2.760
19.4787 3.698
19.5090 3.437
19.5393 2.812
19.5695 1.875
19.5998 2.865
19.6301 2.865
19.6604 2.552
19.6907 2.656
19.7209 3.177
19.7512 2.917
19.7815 2.500
19.8118 2.708
19.8420 3.073
19.8723 2.448
19.9026 3.594
19.9329 2.865
19.9632 2.344
19.9934 2.448
20.0237 2.969
20.0540 3.281
20.0843 3.021
20.1146 2.708
20.1448 3.490
20.1751 3.229
20.2054 2.917
20.2357 3.333
20.2659 3.281
20.2962 2.604
20.3265 2.240
20.3568 2.396
20.3871 2.865
20.4173 2.917
20.4476 3.177
20.4779 2.708
20.5082 2.344
20.5385 3.750
20.5687 2.187
20.5990 3.385
20.6293 2.917
20.6596 2.917
20.6899 3.333
20.7201 3.021
20.7504 3.437
20.7807 2.865
20.8110 2.917
20.8412 2.604
20.8715 2.500
20.9018 2.500
20.9321 2.760
20.9624 3.281
20.9926 3.594
21.0229 2.760
21.0532 2.917
21.0835 3.073
21.1138 2.656
21.1440 2.969
21.1743 2.552
21.2046 2.656
21.2349 2.656
21.2651 2.969
21.2954 2.760
21.3257 2.812
21.3560 2.031
21.3863 2.865
21.4165 2.344
21.4468 2.865
21.4771 3.229
21.5074 1.927
21.5377 3.490
21.5679 3.229
21.5982 2.708
21.6285 2.656
21.6588 3.333
21.6890 2.500
21.7193 2.865
21.7496 2.396
21.7799 2.656
21.8102 2.552
21.8404 2.344
21.8707 2.240
21.9010 4.010
21.9313 2.760
21.9616 3.229
21.9918 2.448
22.0221 3.125
22.0524 2.969
22.0827 1.875
22.1129 2.292
22.1432 2.604
22.1735 2.760
22.2038 3.229
22.2341 3.021
22.2643 2.812
22.2946 3.073
22.3249 2.292
22.3552 3.177
22.3855 2.708
22.4157 3.281
22.4460 3.073
22.4763 2.292
22.5066 2.656
22.5368 2.396
22.5671 2.135
22.5974 2.917
22.6277 2.083
22.6580 2.448
22.6882 2.969
22.7185 3.229
22.7488 2.708
22.7791 2.552
22.8094 3.281
22.8396 2.292
22.8699 2.448
22.9002 3.021
22.9305 2.656
22.9607 3.385
22.9910 3.333
23.0213 2.708
23.0516 2.917
23.0819 2.760
23.1121 2.604
23.1424 2.708
23.1727 2.604
23.2030 2.396
23.2333 3.281
23.2635 2.240
23.2938 2.135
23.3241 3.021
23.3544 2.187
23.3846 2.604
23.4149 2.708
23.4452 2.865
23.4755 2.083
23.5058 3.177
23.5360 3.385
23.5663 2.604
23.5966 2.917
23.6269 3.021
23.6572 2.604
23.6874 2.240
23.7177 2.656
23.7480 2.708
23.7783 2.552
23.8086 2.812
23.8388 2.604
23.8691 2.135
23.8994 2.708
23.9297 2.344
23.9599 2.760
23.9902 2.187
24.0205 2.917
24.0508 2.292
24.0811 2.708
24.1113 2.448
24.1416 2.396
24.1719 3.125
24.2022 3.177
24.2325 3.125
24.2627 2.708
24.2930 2.552
24.3233 2.760
24.3536 3.125
24.3838 2.187
24.4141 3.177
24.4444 2.292
24.4747 2.760
24.5050 3.125
24.5352 1.719
24.5655 2.760
24.5958 2.865
24.6261 3.385
24.6564 2.969
24.6866 2.552
24.7169 2.344
24.7472 3.021
24.7775 3.333
24.8077 3.073
24.8380 2.604
24.8683 2.969
24.8986 2.656
24.9289 1.875
24.9591 2.135
24.9894 3.229
25.0197 2.448
25.0500 2.396
25.0803 2.240
25.1105 2.448
25.1408 2.865
25.1711 2.917
25.2014 2.396
25.2316 2.552
25.2619 2.917
25.2922 2.500
25.3225 1.771
25.3528 3.073
25.3830 2.760
25.4133 2.917
25.4436 2.292
25.4739 2.240
25.5042 2.708
25.5344 2.917
25.5647 2.760
25.5950 2.448
25.6253 2.552
25.6555 2.604
25.6858 2.708
25.7161 3.542
25.7464 2.292
25.7767 3.385
25.8069 1.823
25.8372 2.865
25.8675 3.281
25.8978 2.865
25.9281 2.500
25.9583 2.656
25.9886 2.760
26.0189 2.604
26.0492 2.552
26.0794 3.073
26.1097 2.865
26.1400 3.229
26.1703 3.385
26.2006 3.021
26.2308 2.969
26.2611 3.177
26.2914 3.490
26.3217 3.385
26.3520 2.292
26.3822 3.646
26.4125 3.073
26.4428 2.604
26.4731 2.552
26.5034 3.385
26.5336 2.656
26.5639 2.969
26.5942 3.490
26.6245 1.927
26.6547 3.490
26.6850 2.292
26.7153 3.073
26.7456 2.917
26.7759 2.865
26.8061 2.604
26.8364 2.812
26.8667 2.917
26.8970 2.604
26.9273 3.542
26.9575 3.490
26.9878 2.969
27.0181 2.708
27.0484 2.656
27.0786 2.656
27.1089 2.552
27.1392 3.021
27.1695 2.760
27.1998 3.906
27.2300 2.969
27.2603 3.125
27.2906 2.344
27.3209 2.917
27.3512 3.646
27.3814 3.594
27.4117 3.802
27.4420 3.542
27.4723 3.385
27.5025 2.917
27.5328 3.281
27.5631 3.073
27.5934 3.073
27.6237 2.396
27.6539 3.333
27.6842 3.385
27.7145 4.323
27.7448 2.917
27.7751 2.760
27.8053 3.073
27.8356 3.177
27.8659 2.604
27.8962 2.865
27.9264 3.281
27.9567 3.021
27.9870 3.542
28.0173 2.656
28.0476 3.125
28.0778 4.375
28.1081 3.542
28.1384 3.281
28.1687 2.552
28.1990 2.917
28.2292 4.271
28.2595 3.490
28.2898 3.073
28.3201 3.490
28.3503 3.125
28.3806 3.281
28.4109 2.969
28.4412 3.177
28.4715 3.437
28.5017 4.427
28.5320 3.333
28.5623 3.229
28.5926 3.802
28.6229 3.646
28.6531 3.281
28.6834 4.062
28.7137 4.219
28.7440 4.271
28.7742 3.490
28.8045 3.698
28.8348 3.333
28.8651 3.490
28.8954 3.802
28.9256 4.271
28.9559 2.917
28.9862 2.917
29.0165 3.698
29.0468 4.323
29.0770 3.698
29.1073 3.854
29.1376 3.698
29.1679 3.958
29.1981 3.802
29.2284 4.010
29.2587 3.906
29.2890 4.062
29.3193 3.698
29.3495 4.219
29.3798 3.542
29.4101 4.115
29.4404 4.687
29.4707 4.479
29.5009 3.854
29.5312 4.479
29.5615 3.646
29.5918 4.479
29.6221 4.687
29.6523 4.167
29.6826 4.583
29.7129 3.698
29.7432 3.958
29.7734 3.281
29.8037 4.479
29.8340 3.646
29.8643 5.469
29.8946 5.365
29.9248 4.167
29.9551 4.740
29.9854 5.990
30.0157 4.635
30.0460 4.427
30.0762 4.323
30.1065 5.052
30.1368 5.833
30.1671 5.312
30.1973 4.844
30.2276 5.000
30.2579 5.937
30.2882 5.521
30.3185 5.365
30.3487 5.000
30.3790 4.427
30.4093 6.146
30.4396 4.948
30.4699 5.573
30.5001 5.990
30.5304 6.198
30.5607 7.135
30.5910 6.615
30.6212 8.021
30.6515 7.708
30.6818 7.917
30.7121 7.656
30.7424 7.708
30.7726 8.333
30.8029 8.281
30.8332 9.896
30.8635 9.010
30.8938 9.479
30.9240 8.542
30.9543 11.562
30.9846 9.948
31.0149 9.948
31.0451 11.615
31.0754 12.969
31.1057 12.917
31.1360 14.740
31.1663 14.010
31.1965 15.208
31.2268 15.937
31.2571 18.490
31.2874 20.573
31.3177 20.469
31.3479 21.875
31.3782 23.698
31.4085 29.115
31.4388 31.615
31.4690 35.469
31.4993 39.167
31.5296 41.510
31.5599 47.500
31.5902 50.729
31.6204 54.948
31.6507 50.625
31.6810 55.833
31.7113 52.344
31.7416 51.302
31.7718 48.958
31.8021 44.167
31.8324 39.687
31.8627 32.448
31.8929 32.187
31.9232 30.000
31.9535 26.042
31.9838 23.698
32.0141 22.552
32.0443 17.708
32.0746 17.969
32.1049 15.833
32.1352 15.312
32.1655 15.573
32.1957 13.542
32.2260 13.385
32.2563 10.990
32.2866 11.146
32.3169 11.458
32.3471 9.271
32.3774 9.167
32.4077 10.052
32.4380 8.646
32.4682 8.594
32.4985 7.344
32.5288 9.531
32.5591 8.333
32.5894 7.969
32.6196 7.135
32.6499 7.292
32.6802 6.979
32.7105 5.990
32.7408 6.875
32.7710 6.354
32.8013 7.344
32.8316 7.344
32.8619 7.344
32.8921 6.927
32.9224 6.615
32.9527 7.708
32.9830 6.823
33.0133 7.292
33.0435 6.510
33.0738 6.927
33.1041 6.771
33.1344 6.042
33.1647 5.260
33.1949 6.354
33.2252 7.500
33.2555 7.031
33.2858 7.292
33.3160 6.719
33.3463 6.875
33.3766 6.979
33.4069 7.552
33.4372 6.406
33.4674 6.875
33.4977 7.083
33.5280 6.979
33.5583 7.031
33.5886 7.552
33.6188 7.240
33.6491 8.906
33.6794 8.437
33.7097 9.115
33.7399 10.104
33.7702 9.687
33.8005 9.375
33.8308 9.479
33.8611 9.948
33.8913 11.979
33.9216 12.292
33.9519 12.865
33.9822 14.375
34.0125 15.990
34.0427 19.167
34.0730 19.271
34.1033 19.427
34.1336 24.427
34.1638 30.833
34.1941 34.687
34.2244 41.562
34.2547 47.135
34.2850 56.615
34.3152 60.625
34.3455 67.656
34.3758 64.583
34.4061 54.583
34.4364 48.750
34.4666 42.500
34.4969 34.479
34.5272 26.302
34.5575 24.219
34.5877 20.000
34.6180 19.948
34.6483 15.312
34.6786 16.510
34.7089 14.375
34.7391 13.333
34.7694 12.812
34.7997 12.760
34.8300 12.083
34.8603 11.250
34.8905 11.667
34.9208 10.729
34.9511 10.156
34.9814 11.354
35.0116 10.417
35.0419 10.677
35.0722 11.510
35.1025 10.573
35.1328 10.104
35.1630 11.979
35.1933 10.885
35.2236 11.510
35.2539 10.208
35.2842 12.187
35.3144 11.458
35.3447 12.760
35.3750 11.458
35.4053 15.260
35.4356 13.802
35.4658 16.406
35.4961 15.312
35.5264 15.052
35.5567 18.333
35.5869 17.865
35.6172 19.167
35.6475 20.833
35.6778 23.125
35.7081 24.687
35.7383 26.458
35.7686 28.021
35.7989 33.698
35.8292 35.156
35.8595 36.875
35.8897 42.917
35.9200 42.552
35.9503 48.542
35.9806 54.375
36.0108 60.104
36.0411 63.958
36.0714 74.375
36.1017 69.687
36.1320 77.240
36.1622 76.354
36.1925 78.594
36.2228 74.219
36.2531 70.365
36.2834 66.562
36.3136 62.292
36.3439 56.562
36.3742 48.333
36.4045 47.969
36.4347 36.615
36.4650 34.635
36.4953 32.760
36.5256 28.750
36.5559 24.271
36.5861 24.427
36.6164 19.531
36.6467 17.656
36.6770 18.333
36.7073 16.250
36.7375 16.354
36.7678 14.687
36.7981 13.958
36.8284 13.750
36.8586 12.396
36.8889 8.750
36.9192 11.979
36.9495 10.000
36.9798 10.156
37.0100 9.531
37.0403 8.229
37.0706 8.021
37.1009 8.594
37.1312 8.802
37.1614 7.604
37.1917 7.604
37.2220 8.125
37.2523 7.135
37.2825 5.365
37.3128 6.927
37.3431 6.458
37.3734 6.667
37.4037 6.615
37.4339 6.302
37.4642 5.833
37.4945 6.302
37.5248 6.562
37.5551 5.677
37.5853 4.740
37.6156 4.167
37.6459 5.677
37.6762 4.896
37.7064 5.573
37.7367 5.625
37.7670 5.469
37.7973 5.000
37.8276 4.427
37.8578 4.531
37.8881 4.427
37.9184 5.833
37.9487 5.000
37.9790 4.375
38.0092 4.740
38.0395 4.167
38.0698 3.854
38.1001 4.115
38.1304 4.427
38.1606 4.375
38.1909 4.010
38.2212 3.698
38.2515 3.646
38.2817 4.115
38.3120 3.646
38.3423 3.750
38.3726 4.115
38.4029 4.115
38.4331 4.427
38.4634 3.802
38.4937 3.281
38.5240 2.917
38.5543 3.281
38.5845 3.281
38.6148 3.490
38.6451 3.125
38.6754 3.281
38.7056 3.490
38.7359 3.333
38.7662 3.594
38.7965 2.552
38.8268 3.542
38.8570 3.125
38.8873 3.542
38.9176 3.646
38.9479 2.396
38.9782 2.760
39.0084 3.906
39.0387 3.333
39.0690 3.021
39.0993 3.594
39.1295 3.385
39.1598 3.594
39.1901 3.021
39.2204 3.437
39.2507 3.281
39.2809 2.865
39.3112 2.708
39.3415 3.385
39.3718 2.969
39.4021 2.552
39.4323 2.500
39.4626 2.708
39.4929 2.031
39.5232 2.812
39.5534 3.437
39.5837 3.229
39.6140 3.073
39.6443 2.812
39.6746 3.073
39.7048 2.448
39.7351 2.708
39.7654 3.646
39.7957 2.500
39.8260 2.240
39.8562 2.344
39.8865 2.187
39.9168 2.552
39.9471 2.292
39.9773 2.604
40.0076 1.979
40.0379 2.187
40.0682 2.344
40.0985 2.917
40.1287 2.344
40.1590 2.969
40.1893 2.031
40.2196 2.865
40.2499 2.552
40.2801 3.125
40.3104 2.552
40.3407 2.865
40.3710 2.917
40.4012 2.917
40.4315 2.344
40.4618 2.292
40.4921 1.927
40.5224 2.760
40.5526 2.656
40.5829 3.021
40.6132 2.969
40.6435 2.656
40.6738 2.552
40.7040 2.708
40.7343 2.448
40.7646 1.719
40.7949 2.448
40.8251 2.031
40.8554 1.979
40.8857 2.812
40.9160 2.240
40.9463 2.396
40.9765 2.396
41.0068 2.448
41.0371 2.604
41.0674 2.135
41.0977 1.979
41.1279 2.083
41.1582 3.125
41.1885 2.344
41.2188 3.177
41.2491 2.448
41.2793 2.448
41.3096 2.500
41.3399 3.125
41.3702 2.760
41.4004 2.396
41.4307 1.875
41.4610 2.344
41.4913 2.448
41.5216 1.979
41.5518 2.344
41.5821 2.604
41.6124 2.656
41.6427 2.604
41.6730 2.969
41.7032 2.708
41.7335 2.552
41.7638 2.187
41.7941 2.187
41.8243 2.031
41.8546 2.292
41.8849 2.187
41.9152 2.344
41.9455 2.344
41.9757 2.604
42.0060 2.969
42.0363 2.344
42.0666 2.500
42.0969 2.656
42.1271 2.448
42.1574 2.552
42.1877 1.875
42.2180 2.344
42.2482 2.240
42.2785 2.083
42.3088 2.969
42.3391 2.240
42.3694 1.667
42.3996 2.240
42.4299 2.135
42.4602 2.552
42.4905 2.083
42.5208 2.812
42.5510 2.604
42.5813 2.552
42.6116 2.969
42.6419 2.396
42.6721 2.552
42.7024 2.760
42.7327 2.917
42.7630 2.917
42.7933 2.604
42.8235 2.083
42.8538 2.240
42.8841 2.135
42.9144 2.604
42.9447 2.187
42.9749 2.708
43.0052 2.500
43.0355 2.135
43.0658 2.344
43.0960 2.135
43.1263 1.979
43.1566 2.292
43.1869 1.979
43.2172 2.135
43.2474 2.344
43.2777 2.240
43.3080 2.760
43.3383 2.604
43.3686 1.927
43.3988 2.292
43.4291 2.344
43.4594 2.083
43.4897 2.500
43.5199 2.396
43.5502 2.604
43.5805 1.927
43.6108 2.187
43.6411 2.187
43.6713 2.552
43.7016 2.083
43.7319 2.240
43.7622 2.708
43.7925 1.979
43.8227 1.979
43.8530 2.552
43.8833 2.500
43.9136 2.083
43.9439 2.240
43.9741 2.552
44.0044 1.927
44.0347 2.031
44.0650 1.979
44.0952 1.875
44.1255 1.615
44.1558 1.823
44.1861 2.708
44.2164 2.396
44.2466 2.344
44.2769 1.354
44.3072 2.448
44.3375 2.604
44.3678 2.760
44.3980 2.187
44.4283 2.708
44.4586 2.500
44.4889 2.083
44.5191 1.875
44.5494 3.021
44.5797 2.448
44.6100 2.187
44.6403 2.187
44.6705 2.344
44.7008 2.448
44.7311 2.083
44.7614 2.812
44.7917 2.604
44.8219 2.187
44.8522 2.396
44.8825 2.656
44.9128 2.083
44.9430 2.760
44.9733 2.917
45.0036 2.656
45.0339 3.125
45.0642 2.083
45.0944 2.396
45.1247 2.500
45.1550 2.760
45.1853 2.917
45.2156 2.240
45.2458 2.448
45.2761 2.344
45.3064 2.083
45.3367 2.500
45.3669 2.031
45.3972 2.656
45.4275 1.979
45.4578 2.760
45.4881 2.604
45.5183 2.865
45.5486 2.135
45.5789 3.073
45.6092 2.708
45.6395 2.552
45.6697 2.187
45.7000 2.812
45.7303 2.812
45.7606 2.969
45.7908 2.552
45.8211 2.812
45.8514 2.917
45.8817 3.125
45.9120 2.969
45.9422 2.656
45.9725 3.646
46.0028 3.021
46.0331 3.229
46.0634 3.177
46.0936 2.969
46.1239 2.187
46.1542 3.333
46.1845 2.969
46.2147 2.812
46.2450 3.021
46.2753 3.281
46.3056 3.646
46.3359 2.552
46.3661 3.385
46.3964 3.229
46.4267 4.010
46.4570 3.385
46.4873 4.219
46.5175 3.437
46.5478 3.802
46.5781 3.958
46.6084 4.062
46.6386 3.750
46.6689 3.906
46.6992 4.479
46.7295 3.594
46.7598 4.479
46.7900 3.958
46.8203 4.167
46.8506 4.479
46.8809 5.260
46.9112 5.208
46.9414 5.729
46.9717 5.521
47.0020 5.990
47.0323 7.500
47.0626 8.542
47.0928 8.333
47.1231 8.854
47.1534 9.479
47.1837 10.677
47.2139 11.458
47.2442 12.135
47.2745 12.240
47.3048 13.750
47.3351 14.948
47.3653 15.052
47.3956 17.187
47.4259 19.427
47.4562 18.333
47.4865 17.604
47.5167 15.156
47.5470 16.250
47.5773 15.573
47.6076 15.677
47.6378 12.969
47.6681 11.667
47.6984 13.073
47.7287 9.844
47.7590 9.375
47.7892 7.708
47.8195 8.281
47.8498 6.875
47.8801 7.708
47.9104 7.031
47.9406 5.729
47.9709 5.469
48.0012 4.323
48.0315 5.156
48.0617 5.052
48.0920 4.583
48.1223 4.948
48.1526 4.375
48.1829 3.906
48.2131 3.854
48.2434 4.167
48.2737 3.698
48.3040 3.177
48.3343 3.437
48.3645 2.969
48.3948 3.594
48.4251 3.229
48.4554 3.698
48.4856 3.698
48.5159 2.969
48.5462 2.396
48.5765 2.604
48.6068 2.708
48.6370 2.656
48.6673 4.062
48.6976 2.396
48.7279 3.281
48.7582 2.708
48.7884 3.542
48.8187 3.698
48.8490 3.021
48.8793 2.396
48.9095 2.812
48.9398 3.333
48.9701 3.125
49.0004 2.812
49.0307 2.760
49.0609 2.448
49.0912 2.448
49.1215 1.771
49.1518 3.073
49.1821 2.917
49.2123 2.969
49.2426 2.500
49.2729 2.812
49.3032 3.073
49.3334 2.604
49.3637 2.969
49.3940 2.187
49.4243 1.927
49.4546 2.031
49.4848 2.292
49.5151 2.240
49.5454 2.552
49.5757 2.708
49.6060 2.135
49.6362 1.875
49.6665 2.760
49.6968 2.500
49.7271 2.135
49.7574 2.812
49.7876 2.344
49.8179 2.708
49.8482 1.979
49.8785 2.552
49.9087 2.448
49.9390 2.500
49.9693 2.031
49.9996 1.875
50.0299 2.969
50.0601 2.500
50.0904 2.448
50.1207 2.552
50.1510 2.344
50.1813 2.760
50.2115 2.031
50.2418 2.396
50.2721 2.552
50.3024 1.927
50.3326 2.083
50.3629 2.917
50.3932 2.500
50.4235 2.031
50.4538 2.187
50.4840 2.031
50.5143 2.760
50.5446 1.562
50.5749 2.187
50.6052 2.240
50.6354 2.240
50.6657 2.656
50.6960 2.344
50.7263 2.083
50.7565 2.292
50.7868 2.656
50.8171 2.708
50.8474 2.604
50.8777 1.979
50.9079 1.875
50.9382 1.719
50.9685 2.031
50.9988 2.344
51.0291 1.771
51.0593 1.562
51.0896 2.604
51.1199 2.292
51.1502 1.771
51.1804 1.927
51.2107 1.510
51.2410 2.396
51.2713 1.875
51.3016 1.719
51.3318 1.771
51.3621 1.667
51.3924 1.927
51.4227 2.187
51.4530 1.458
51.4832 2.083
51.5135 1.875
51.5438 2.187
51.5741 2.187
51.6043 1.771
51.6346 2.448
51.6649 2.187
51.6952 2.187
51.7255 2.031
51.7557 1.823
51.7860 1.875
51.8163 2.448
51.8466 2.708
51.8769 1.927
51.9071 1.667
51.9374 1.823
51.9677 1.875
51.9980 1.615
52.0282 1.875
52.0585 2.031
52.0888 2.083
52.1191 2.031
52.1494 2.292
52.1796 1.927
52.2099 2.812
52.2402 2.240
52.2705 1.510
52.3008 2.344
52.3310 2.344
52.3613 1.979
52.3916 2.135
52.4219 2.344
52.4521 2.135
52.4824 2.344
52.5127 2.344
52.5430 3.177
52.5733 2.240
52.6035 2.552
52.6338 2.865
52.6641 1.875
52.6944 1.979
52.7247 2.812
52.7549 2.240
52.7852 2.135
52.8155 2.552
52.8458 2.448
52.8761 2.448
52.9063 2.448
52.9366 2.500
52.9669 2.240
52.9972 2.344
53.0274 3.073
53.0577 2.448
53.0880 2.396
53.1183 1.823
53.1486 1.979
53.1788 2.083
53.2091 2.604
53.2394 2.500
53.2697 2.292
53.3000 2.812
53.3302 2.656
53.3605 2.708
53.3908 2.031
53.4211 2.552
53.4513 2.656
53.4816 2.083
53.5119 2.448
53.5422 2.292
53.5725 2.396
53.6027 3.281
53.6330 1.875
53.6633 1.562
53.6936 2.760
53.7239 2.448
53.7541 2.865
53.7844 1.927
53.8147 2.500
53.8450 2.760
53.8752 2.396
53.9055 2.708
53.9358 2.552
53.9661 2.604
53.9964 2.240
54.0266 3.021
54.0569 2.396
54.0872 1.823
54.1175 3.229
54.1478 2.552
54.1780 1.771
54.2083 2.187
54.2386 2.292
54.2689 2.865
54.2991 2.135
54.3294 1.771
54.3597 2.917
54.3900 2.448
54.4203 3.073
54.4505 2.760
54.4808 3.073
54.5111 3.177
54.5414 2.917
54.5717 2.083
54.6019 2.969
54.6322 2.240
54.6625 3.490
54.6928 3.021
54.7230 2.917
54.7533 2.448
54.7836 3.125
54.8139 3.073
54.8442 3.021
54.8744 2.760
54.9047 3.594
54.9350 2.865
54.9653 3.333
54.9956 3.490
55.0258 2.865
55.0561 3.698
55.0864 3.021
55.1167 3.750
55.1469 2.500
55.1772 3.385
55.2075 2.708
55.2378 3.333
55.2681 4.167
55.2983 3.542
55.3286 3.437
55.3589 3.490
55.3892 3.958
55.4195 3.542
55.4497 3.750
55.4800 4.479
55.5103 4.010
55.5406 3.906
55.5709 4.375
55.6011 5.000
55.6314 4.531
55.6617 4.635
55.6920 4.375
55.7222 4.531
55.7525 5.365
55.7828 5.573
55.8131 5.417
55.8434 5.521
55.8736 5.990
55.9039 6.094
55.9342 7.396
55.9645 6.146
55.9948 7.708
56.0250 9.115
56.0553 9.375
56.0856 8.698
56.1159 12.396
56.1461 12.187
56.1764 11.771
56.2067 12.344
56.2370 13.854
56.2673 16.302
56.2975 16.354
56.3278 17.240
56.3581 19.583
56.3884 20.573
56.4187 20.990
56.4489 21.823
56.4792 22.135
56.5095 22.969
56.5398 22.604
56.5700 23.073
56.6003 22.083
56.6306 21.302
56.6609 18.177
56.6912 18.802
56.7214 16.146
56.7517 13.385
56.7820 14.271
56.8123 13.333
56.8426 11.875
56.8728 10.469
56.9031 9.531
56.9334 8.802
56.9637 8.490
56.9939 8.646
57.0242 7.135
57.0545 7.448
57.0848 6.771
57.1151 5.156
57.1453 5.937
57.1756 6.094
57.2059 5.937
57.2362 5.104
57.2665 5.000
57.2967 4.427
57.3270 4.427
57.3573 4.740
57.3876 4.427
57.4178 4.323
57.4481 5.000
57.4784 4.062
57.5087 3.698
57.5390 3.698
57.5692 3.177
57.5995 3.125
57.6298 3.646
57.6601 3.906
57.6904 3.229
57.7206 3.281
57.7509 3.333
57.7812 3.698
57.8115 3.021
57.8417 2.344
57.8720 2.656
57.9023 2.865
57.9326 2.448
57.9629 2.917
57.9931 4.062
58.0234 2.708
58.0537 3.490
58.0840 3.385
58.1143 3.073
58.1445 2.865
58.1748 3.125
58.2051 2.865
58.2354 3.437
58.2656 3.177
58.2959 2.292
58.3262 3.073
58.3565 2.708
58.3868 3.021
58.4170 3.073
58.4473 2.344
58.4776 2.917
58.5079 2.500
58.5382 2.292
58.5684 1.875
58.5987 2.865
58.6290 2.708
58.6593 2.604
58.6896 3.281
58.7198 2.135
58.7501 2.708
58.7804 3.177
58.8107 2.448
58.8409 2.083
58.8712 2.552
58.9015 2.812
58.9318 2.656
58.9621 2.760
58.9923 2.812
59.0226 2.604
59.0529 2.187
59.0832 2.448
59.1135 2.552
59.1437 2.344
59.1740 2.969
59.2043 3.229
59.2346 2.240
59.2648 2.708
59.2951 2.708
59.3254 2.448
59.3557 2.135
59.3860 3.021
59.4162 2.083
59.4465 2.552
59.4768 2.760
59.5071 2.865
59.5374 3.281
59.5676 3.021
59.5979 2.448
59.6282 1.771
59.6585 2.812
59.6887 2.083
59.7190 2.656
59.7493 2.500
59.7796 2.344
59.8099 2.812
59.8401 3.021
59.8704 2.031
59.9007 1.979
59.9310 3.125
59.9613 2.396
59.9915 2.708
60.0218 2.760
60.0521 2.760
60.0824 2.500
60.1126 2.760
60.1429 2.656
60.1732 2.656
60.2035 1.979
60.2338 2.552
60.2640 2.656
60.2943 2.552
60.3246 2.708
60.3549 1.562
60.3852 2.812
60.4154 2.240
60.4457 2.760
60.4760 2.708
60.5063 2.917
60.5365 2.187
60.5668 2.760
60.5971 2.812
60.6274 3.073
60.6577 3.177
60.6879 1.927
60.7182 2.917
60.7485 2.552
60.7788 2.135
60.8091 2.448
60.8393 2.656
60.8696 2.240
60.8999 2.812
60.9302 2.448
60.9604 2.865
60.9907 2.656
61.0210 3.125
61.0513 3.177
61.0816 2.917
61.1118 2.135
61.1421 3.177
61.1724 2.656
61.2027 3.177
61.2330 3.229
61.2632 2.865
61.2935 3.021
61.3238 3.437
61.3541 2.812
61.3844 3.125
61.4146 2.604
61.4449 3.542
61.4752 2.656
61.5055 2.917
61.5357 3.750
61.5660 3.281
61.5963 3.854
61.6266 3.542
61.6569 3.906
61.6871 3.802
61.7174 3.333
61.7477 3.385
61.7780 3.437
61.8083 3.958
61.8385 4.583
61.8688 4.219
61.8991 4.167
61.9294 4.635
61.9596 4.115
61.9899 4.115
62.0202 4.323
62.0505 4.062
62.0808 5.208
62.1110 5.104
62.1413 5.625
62.1716 5.469
62.2019 6.615
62.2322 6.354
62.2624 6.615
62.2927 7.187
62.3230 7.917
62.3533 7.917
62.3835 9.635
62.4138 9.271
62.4441 9.375
62.4744 10.990
62.5047 12.031
62.5349 11.771
62.5652 14.219
62.5955 14.427
62.6258 15.990
62.6561 16.042
62.6863 17.917
62.7166 19.792
62.7469 19.531
62.7772 19.583
62.8074 19.271
62.8377 18.385
62.8680 16.823
62.8983 18.490
62.9286 15.625
62.9588 15.833
62.9891 14.167
63.0194 14.167
63.0497 14.115
63.0800 12.656
63.1102 10.365
63.1405 9.479
63.1708 8.542
63.2011 7.812
63.2313 8.490
63.2616 6.823
63.2919 6.875
63.3222 5.417
63.3525 7.187
63.3827 6.094
63.4130 6.250
63.4433 4.792
63.4736 4.948
63.5039 4.479
63.5341 4.635
63.5644 4.948
63.5947 4.219
63.6250 4.479
63.6552 3.333
63.6855 3.437
63.7158 3.437
63.7461 3.698
63.7764 2.812
63.8066 3.385
63.8369 3.646
63.8672 3.333
63.8975 2.708
63.9278 3.854
63.9580 2.917
63.9883 3.385
64.0186 3.906
64.0489 2.969
64.0791 4.167
64.1094 3.646
64.1397 3.229
64.1700 3.021
64.2003 3.333
64.2305 3.594
64.2608 2.500
64.2911 3.177
64.3214 4.062
64.3517 2.865
64.3819 2.656
64.4122 2.396
64.4425 3.021
64.4728 3.542
64.5031 2.708
64.5333 3.177
64.5636 1.927
64.5939 2.240
64.6242 3.021
64.6544 3.021
64.6847 3.281
64.7150 3.021
64.7453 2.448
64.7756 3.125
64.8058 3.594
64.8361 3.229
64.8664 2.917
64.8967 3.542
64.9270 2.187
64.9572 3.542
64.9875 2.344
65.0178 2.656
65.0481 4.062
65.0783 2.031
65.1086 2.552
65.1389 2.448
65.1692 2.448
65.1995 2.344
65.2297 2.448
65.2600 4.010
65.2903 2.969
65.3206 2.760
65.3509 3.333
65.3811 2.448
65.4114 2.865
65.4417 2.708
65.4720 2.552
65.5022 3.333
65.5325 2.969
65.5628 2.396
65.5931 4.010
65.6234 4.062
65.6536 3.385
65.6839 3.698
65.7142 4.062
65.7445 3.542
65.7748 2.708
65.8050 3.594
65.8353 3.594
65.8656 3.021
65.8959 4.115
65.9261 4.271
65.9564 3.854
65.9867 4.219
66.0170 4.583
66.0473 4.740
66.0775 4.115
66.1078 5.052
66.1381 4.375
66.1684 4.844
66.1987 4.844
66.2289 4.844
66.2592 4.115
66.2895 5.365
66.3198 5.208
66.3500 5.104
66.3803 5.625
66.4106 5.208
66.4409 4.948
66.4712 5.365
66.5014 5.156
66.5317 4.219
66.5620 4.375
66.5923 3.906
66.6226 4.740
66.6528 3.854
66.6831 5.000
66.7134 4.687
66.7437 4.375
66.7739 4.479
66.8042 3.594
66.8345 4.531
66.8648 4.479
66.8951 5.208
66.9253 4.375
66.9556 4.531
66.9859 4.375
67.0162 4.115
67.0465 3.958
67.0767 4.531
67.1070 5.573
67.1373 4.792
67.1676 4.687
67.1978 4.687
67.2281 5.521
67.2584 4.740
67.2887 6.094
67.3190 6.771
67.3492 6.302
67.3795 5.833
67.4098 7.656
67.4401 8.125
67.4704 8.542
67.5006 9.062
67.5309 8.437
67.5612 10.208
67.5915 9.792
67.6218 10.312
67.6520 11.094
67.6823 12.865
67.7126 12.500
67.7429 13.542
67.7731 14.531
67.8034 13.906
67.8337 15.677
67.8640 13.437
67.8943 15.260
67.9245 13.958
67.9548 14.427
67.9851 12.812
68.0154 13.437
68.0457 12.552
68.0759 12.240
68.1062 10.781
68.1365 11.615
68.1668 9.427
68.1970 10.729
68.2273 8.750
68.2576 7.865
68.2879 9.219
68.3182 7.448
68.3484 8.385
68.3787 8.073
68.4090 8.594
68.4393 6.823
68.4696 8.021
68.4998 7.031
68.5301 6.510
68.5604 7.344
68.5907 7.656
68.6209 8.021
68.6512 6.042
68.6815 7.344
68.7118 6.719
68.7421 7.240
68.7723 7.500
68.8026 8.333
68.8329 8.021
68.8632 7.292
68.8935 7.396
68.9237 7.812
68.9540 8.542
68.9843 8.750
69.0146 7.135
69.0448 8.125
69.0751 7.396
69.1054 8.021
69.1357 7.969
69.1660 7.187
69.1962 6.823
69.2265 6.615
69.2568 6.458
69.2871 6.354
69.3174 6.198
69.3476 6.146
69.3779 4.896
69.4082 5.365
69.4385 5.677
69.4687 4.948
69.4990 3.958
69.5293 4.010
69.5596 5.052
69.5899 4.740
69.6201 3.333
69.6504 3.698
69.6807 3.437
69.7110 3.854
69.7413 3.490
69.7715 3.437
69.8018 3.073
69.8321 3.385
69.8624 2.604
69.8926 3.021
69.9229 2.708
69.9532 2.969
69.9835 3.281
70.0138 3.177
70.0440 3.073
70.0743 2.240
70.1046 2.344
70.1349 2.656
70.1652 2.187
70.1954 2.240
70.2257 2.656
70.2560 2.135
70.2863 2.917
70.3166 2.500
70.3468 3.125
70.3771 2.344
70.4074 2.812
70.4377 2.292
70.4679 2.760
70.4982 2.187
70.5285 2.344
70.5588 2.448
70.5891 2.135
70.6193 2.552
70.6496 2.292
70.6799 2.292
70.7102 1.719
70.7405 2.500
70.7707 2.083
70.8010 2.760
70.8313 1.875
70.8616 2.656
70.8918 1.771
70.9221 1.771
70.9524 2.187
70.9827 2.500
71.0130 2.292
71.0432 2.083
71.0735 1.771
71.1038 2.448
71.1341 2.031
71.1644 2.135
71.1946 1.875
71.2249 1.823
71.2552 2.187
71.2855 2.187
71.3157 2.083
71.3460 1.719
71.3763 1.823
71.4066 2.135
71.4369 1.875
71.4671 2.396
71.4974 2.292
71.5277 1.615
71.5580 1.875
71.5883 1.667
71.6185 1.979
71.6488 2.031
71.6791 2.500
71.7094 1.927
71.7396 2.031
71.7699 2.240
71.8002 1.406
71.8305 1.875
71.8608 1.667
71.8910 2.240
71.9213 2.187
71.9516 1.771
71.9819 1.875
72.0122 2.344
72.0424 1.302
72.0727 2.396
72.1030 2.240
72.1333 2.135
72.1635 2.865
72.1938 2.760
72.2241 2.760
72.2544 3.073
72.2847 2.760
72.3149 3.125
72.3452 2.552
72.3755 2.604
72.4058 2.708
72.4361 3.177
72.4663 2.552
72.4966 2.812
72.5269 3.125
72.5572 2.708
72.5874 3.437
72.6177 3.021
72.6480 2.708
72.6783 2.552
72.7086 3.281
72.7388 2.604
72.7691 2.917
72.7994 2.240
72.8297 2.240
72.8600 2.656
72.8902 2.292
72.9205 2.708
72.9508 2.396
72.9811 1.771
73.0113 1.823
73.0416 2.292
73.0719 2.031
73.1022 2.031
73.1325 1.823
73.1627 2.344
73.1930 1.719
73.2233 2.031
73.2536 2.240
73.2839 2.083
73.3141 1.927
73.3444 2.083
73.3747 2.552
73.4050 2.240
73.4353 2.135
73.4655 1.875
73.4958 2.396
73.5261 2.187
73.5564 1.667
73.5866 1.771
73.6169 1.667
73.6472 1.719
73.6775 2.500
73.7078 1.719
73.7380 1.354
73.7683 1.823
73.7986 1.510
73.8289 1.667
73.8592 1.562
73.8894 1.771
73.9197 1.875
73.9500 1.562
73.9803 1.302
74.0105 1.458
74.0408 1.927
74.0711 1.615
74.1014 1.354
74.1317 1.406
74.1619 1.875
74.1922 1.354
74.2225 1.667
74.2528 2.083
74.2831 1.979
74.3133 2.135
74.3436 2.031
74.3739 1.250
74.4042 2.083
74.4344 2.292
74.4647 1.927
74.4950 2.187
74.5253 1.719
74.5556 1.667
74.5858 1.302
74.6161 1.042
74.6464 1.510
74.6767 1.562
74.7070 2.031
74.7372 2.083
74.7675 1.667
74.7978 1.562
74.8281 2.604
74.8583 1.406
74.8886 1.771
74.9189 1.719
74.9492 1.979
74.9795 1.562
75.0097 1.510
75.0400 1.771
75.0703 1.927
75.1006 1.667
75.1309 1.510
75.1611 1.302
75.1914 2.292
75.2217 1.927
75.2520 1.719
75.2822 2.292
75.3125 1.719
75.3428 1.615
75.3731 1.719
75.4034 1.875
75.4336 1.719
75.4639 2.187
75.4942 1.458
75.5245 1.823
75.5548 1.667
75.5850 1.719
75.6153 1.823
75.6456 1.875
75.6759 1.719
75.7061 1.667
75.7364 1.667
75.7667 2.135
75.7970 1.406
75.8273 1.406
75.8575 2.240
75.8878 2.448
75.9181 1.198
75.9484 2.344
75.9787 1.615
76.0089 1.823
76.0392 1.406
76.0695 1.979
76.0998 1.354
76.1301 1.771
76.1603 2.135
76.1906 1.823
76.2209 1.615
76.2512 1.875
76.2814 2.448
76.3117 1.927
76.3420 3.073
76.3723 2.187
76.4026 1.667
76.4328 2.292
76.4631 1.719
76.4934 2.135
76.5237 3.021
76.5540 1.875
76.5842 2.656
76.6145 2.396
76.6448 2.187
76.6751 2.500
76.7053 2.448
76.7356 2.656
76.7659 3.177
76.7962 2.865
76.8265 2.969
76.8567 3.177
76.8870 3.229
76.9173 3.542
76.9476 3.437
76.9779 2.917
77.0081 3.542
77.0384 3.125
77.0687 3.177
77.0990 3.437
77.1292 2.656
77.1595 3.177
77.1898 2.448
77.2201 2.708
77.2504 2.552
77.2806 2.344
77.3109 2.240
77.3412 2.240
77.3715 2.500
77.4018 1.979
77.4320 1.771
77.4623 2.031
77.4926 2.135
77.5229 1.719
77.5531 2.656
77.5834 2.187
77.6137 2.135
77.6440 2.344
77.6743 1.823
77.7045 1.458
77.7348 1.979
77.7651 1.875
77.7954 2.135
77.8257 1.719
77.8559 2.083
77.8862 1.823
77.9165 1.875
77.9468 1.406
77.9770 2.552
78.0073 2.083
78.0376 2.240
78.0679 1.927
78.0982 1.406
78.1284 2.031
78.1587 1.562
78.1890 1.927
78.2193 1.198
78.2496 1.458
78.2798 1.198
78.3101 2.031
78.3404 1.927
78.3707 1.823
78.4009 1.510
78.4312 1.458
78.4615 2.135
78.4918 1.615
78.5221 1.458
78.5523 1.927
78.5826 1.667
78.6129 1.146
78.6432 1.458
78.6735 2.031
78.7037 1.927
78.7340 1.667
78.7643 1.458
78.7946 1.771
78.8248 1.406
78.8551 2.083
78.8854 1.719
78.9157 1.510
78.9460 1.354
78.9762 1.667
79.0065 1.302
79.0368 1.875
79.0671 1.562
79.0974 1.615
79.1276 1.354
79.1579 2.031
79.1882 1.615
79.2185 2.031
79.2488 1.458
79.2790 1.302
79.3093 2.344
79.3396 1.615
79.3699 1.562
79.4001 2.135
79.4304 1.406
79.4607 1.354
79.4910 1.458
79.5213 1.667
79.5515 1.875
79.5818 1.875
79.6121 1.615
79.6424 1.667
79.6727 1.667
79.7029 1.302
79.7332 1.198
79.7635 1.302
79.7938 1.458
79.8240 1.979
79.8543 1.823
79.8846 1.875
79.9149 1.562
79.9452 1.354
79.9754 1.406
80.0057 1.719
80.0360 1.250
80.0663 2.031
80.0966 1.927
80.1268 1.250
80.1571 1.302
80.1874 1.458
80.2177 1.667
80.2479 1.823
80.2782 1.458
80.3085 2.187
80.3388 1.667
80.3691 1.719
80.3993 1.823
80.4296 1.510
80.4599 1.719
80.4902 1.719
80.5205 0.990
80.5507 1.615
80.5810 1.667
80.6113 2.135
80.6416 1.771
80.6718 1.458
80.7021 1.667
80.7324 1.406
80.7627 1.927
80.7930 1.979
80.8232 1.823
80.8535 2.292
80.8838 1.198
80.9141 1.667
80.9444 2.031
80.9746 1.667
81.0049 2.344
81.0352 2.135
81.0655 2.344
81.0957 1.771
81.1260 1.719
81.1563 1.927
81.1866 2.344
81.2169 2.292
81.2471 2.031
81.2774 2.448
81.3077 2.135
81.3380 3.229
81.3683 2.448
81.3985 2.292
81.4288 2.396
81.4591 2.500
81.4894 1.771
81.5196 2.187
81.5499 2.083
81.5802 2.292
81.6105 2.344
81.6408 2.031
81.6710 2.240
81.7013 2.656
81.7316 2.083
81.7619 2.031
81.7922 2.240
81.8224 1.927
81.8527 1.615
81.8830 1.771
81.9133 1.667
81.9436 2.031
81.9738 1.927
82.0041 2.135
82.0344 1.719
82.0647 1.354
82.0949 1.667
82.1252 1.667
82.1555 1.719
82.1858 1.302
82.2161 1.667
82.2463 2.135
82.2766 2.135
82.3069 2.292
82.3372 1.302
82.3675 1.667
82.3977 1.198
82.4280 1.354
82.4583 1.250
82.4886 1.354
82.5188 1.458
82.5491 1.562
82.5794 1.667
82.6097 1.562
82.6400 2.031
82.6702 1.615
82.7005 1.771
82.7308 1.875
82.7611 1.250
82.7914 1.562
82.8216 1.198
82.8519 1.615
82.8822 1.667
82.9125 1.354
82.9427 1.250
82.9730 1.562
83.0033 1.667
83.0336 1.719
83.0639 1.354
83.0941 1.771
83.1244 1.823
83.1547 1.719
83.1850 1.510
83.2153 1.354
83.2455 2.292
83.2758 1.042
83.3061 1.979
83.3364 1.771
83.3666 1.927
83.3969 1.771
83.4272 2.292
83.4575 1.302
83.4878 1.615
83.5180 1.615
83.5483 1.615
83.5786 1.406
83.6089 1.250
83.6392 1.979
83.6694 1.562
83.6997 1.198
83.7300 1.615
83.7603 1.406
83.7905 1.458
83.8208 1.146
83.8511 1.927
83.8814 1.771
83.9117 1.667
83.9419 1.354
83.9722 1.823
84.0025 1.875
84.0328 1.510
84.0631 1.615
84.0933 1.458
84.1236 1.615
84.1539 1.667
84.1842 1.823
84.2144 1.562
84.2447 1.458
84.2750 1.667
84.3053 1.250
84.3356 1.406
84.3658 1.562
84.3961 1.979
84.4264 1.927
84.4567 1.875
84.4870 1.667
84.5172 1.354
84.5475 1.510
84.5778 1.198
84.6081 1.250
84.6383 1.250
84.6686 1.406
84.6989 1.250
84.7292 1.354
84.7595 1.302
84.7897 2.240
84.8200 1.667
84.8503 1.719
84.8806 2.135
84.9109 1.823
84.9411 1.979
84.9714 1.562
85.0017 1.250
85.0320 1.615
85.0623 1.458
85.0925 1.875
85.1228 1.198
85.1531 1.615
85.1834 2.292
85.2136 1.823
85.2439 1.979
85.2742 0.833
85.3045 1.146
85.3348 1.302
85.3650 1.667
85.3953 1.719
85.4256 1.667
85.4559 1.354
85.4862 1.667
85.5164 1.146
85.5467 1.562
85.5770 1.875
85.6073 1.302
85.6375 1.771
85.6678 1.510
85.6981 0.937
85.7284 1.667
85.7587 1.667
85.7889 1.823
85.8192 1.146
85.8495 1.354
85.8798 1.458
85.9101 1.562
85.9403 2.083
85.9706 1.875
86.0009 1.979
86.0312 1.927
86.0614 1.927
86.0917 1.615
86.1220 1.823
86.1523 1.667
86.1826 1.562
86.2128 1.354
86.2431 1.354
86.2734 2.292
86.3037 1.406
86.3340 1.458
86.3642 1.198
86.3945 1.979
86.4248 1.302
86.4551 1.250
86.4853 1.823
86.5156 2.135
86.5459 1.406
86.5762 1.719
86.6065 1.771
86.6367 0.885
86.6670 1.406
86.6973 1.250
86.7276 1.719
86.7579 1.198
86.7881 2.031
86.8184 1.458
86.8487 1.406
86.8790 1.667
86.9092 1.771
86.9395 1.406
86.9698 1.667
87.0001 1.458
87.0304 1.823
87.0606 1.823
87.0909 1.667
87.1212 1.562
87.1515 1.250
87.1818 1.771
87.2120 1.979
87.2423 1.562
87.2726 1.615
87.3029 1.979
87.3331 1.406
87.3634 1.667
87.3937 1.354
87.4240 2.344
87.4543 1.198
87.4845 1.250
87.5148 1.667
87.5451 1.250
87.5754 1.667
87.6057 1.458
87.6359 1.719
87.6662 1.198
87.6965 1.250
87.7268 2.135
87.7571 1.302
87.7873 1.667
87.8176 1.823
87.8479 2.135
87.8782 1.875
87.9084 1.562
87.9387 1.615
87.9690 1.927
87.9993 1.979
88.0296 1.771
88.0598 1.458
88.0901 1.667
88.1204 1.927
88.1507 1.615
88.1810 2.500
88.2112 1.302
88.2415 2.292
88.2718 1.927
88.3021 2.500
88.3323 1.250
88.3626 2.292
88.3929 2.396
88.4232 2.083
88.4535 1.875
88.4837 1.823
88.5140 1.979
88.5443 1.562
88.5746 1.667
88.6049 2.552
88.6351 2.031
88.6654 2.187
88.6957 1.667
88.7260 1.979
88.7562 2.448
88.7865 2.448
88.8168 1.927
88.8471 2.448
88.8774 2.552
88.9076 3.542
88.9379 2.760
88.9682 3.333
88.9985 3.281
89.0288 2.604
89.0590 2.865
89.0893 2.604
89.1196 2.917
89.1499 3.542
89.1801 3.542
89.2104 3.333
89.2407 3.177
89.2710 3.229
89.3013 3.594
89.3315 3.802
89.3618 3.281
89.3921 4.323
89.4224 4.167
89.4527 4.271
89.4829 4.062
89.5132 4.479
89.5435 3.958
89.5738 4.479
89.6040 4.271
89.6343 4.427
89.6646 4.062
89.6949 4.583
89.7252 4.010
89.7554 3.906
89.7857 4.687
89.8160 4.062
89.8463 3.281
89.8766 4.062
89.9068 3.333
89.9371 3.594
89.9674 3.125
89.9977 3.542
90.0279 3.542
90.0582 3.125
90.0885 2.083
90.1188 2.812
90.1491 2.917
90.1793 2.396
90.2096 2.604
90.2399 2.917
90.2702 2.656
90.3005 2.187
90.3307 3.333
90.3610 2.083
90.3913 2.292
90.4216 2.083
90.4518 2.031
90.4821 1.354
90.5124 2.031
90.5427 2.135
90.5730 2.187
90.6032 2.135
90.6335 1.667
90.6638 2.240
90.6941 2.552
90.7244 1.979
90.7546 2.187
90.7849 2.187
90.8152 2.187
90.8455 1.615
90.8758 1.615
90.9060 2.135
90.9363 1.719
90.9666 2.292
90.9969 1.771
91.0271 1.823
91.0574 1.823
91.0877 2.604
91.1180 2.448
91.1483 1.198
91.1785 1.615
91.2088 1.979
91.2391 1.927
91.2694 1.979
91.2997 2.135
91.3299 1.667
91.3602 1.979
91.3905 1.719
91.4208 1.562
91.4510 2.344
91.4813 1.458
91.5116 1.667
91.5419 2.344
91.5722 2.448
91.6024 1.354
91.6327 1.667
91.6630 1.354
91.6933 1.875
91.7236 1.667
91.7538 1.667
91.7841 2.240
91.8144 2.187
91.8447 2.187
91.8749 1.667
91.9052 1.615
91.9355 1.719
91.9658 1.927
91.9961 2.448
92.0263 1.719
92.0566 1.979
92.0869 2.396
92.1172 1.823
92.1475 1.615
92.1777 2.656
92.2080 2.083
92.2383 2.083
92.2686 1.875
92.2988 1.875
92.3291 1.927
92.3594 2.656
92.3897 2.552
92.4200 3.021
92.4502 2.135
92.4805 2.917
92.5108 2.500
92.5411 2.187
92.5714 2.656
92.6016 2.187
92.6319 2.865
92.6622 2.656
92.6925 2.552
92.7227 2.656
92.7530 2.604
92.7833 2.240
92.8136 2.865
92.8439 3.021
92.8741 1.510
92.9044 2.187
92.9347 2.552
92.9650 2.396
92.9953 2.604
93.0255 2.656
93.0558 2.656
93.0861 3.125
93.1164 2.448
93.1466 2.240
93.1769 2.604
93.2072 1.979
93.2375 2.969
93.2678 1.979
93.2980 2.708
93.3283 1.771
93.3586 2.187
93.3889 2.448
93.4192 2.135
93.4494 2.083
93.4797 2.135
93.5100 2.031
93.5403 2.344
93.5706 2.187
93.6008 2.240
93.6311 1.875
93.6614 1.979
93.6917 1.875
93.7219 2.396
93.7522 1.875
93.7825 1.823
93.8128 1.719
93.8431 2.604
93.8733 2.760
93.9036 2.083
93.9339 1.927
93.9642 2.135
93.9945 1.979
94.0247 1.615
94.0550 1.719
94.0853 2.135
94.1156 2.187
94.1458 2.083
94.1761 1.302
94.2064 2.396
94.2367 1.875
94.2670 1.823
94.2972 2.187
94.3275 2.604
94.3578 2.396
94.3881 1.562
94.4184 2.240
94.4486 1.979
94.4789 2.552
94.5092 2.604
94.5395 2.917
94.5697 2.604
94.6000 2.344
94.6303 2.708
94.6606 3.125
94.6909 3.177
94.7211 3.177
94.7514 3.802
94.7817 3.177
94.8120 3.594
94.8423 3.281
94.8725 3.490
94.9028 3.385
94.9331 3.802
94.9634 2.969
94.9936 3.802
95.0239 4.062
95.0542 3.333
95.0845 3.802
95.1148 3.854
95.1450 3.698
95.1753 3.958
95.2056 5.000
95.2359 3.698
95.2662 3.906
95.2964 3.437
95.3267 4.167
95.3570 4.062
95.3873 4.531
95.4175 4.219
95.4478 3.802
95.4781 3.490
95.5084 4.115
95.5387 4.583
95.5689 3.281
95.5992 3.698
95.6295 4.219
95.6598 3.333
95.6901 3.177
95.7203 3.021
95.7506 2.917
95.7809 3.698
95.8112 2.604
95.8414 2.865
95.8717 2.292
95.9020 2.448
95.9323 3.281
95.9626 3.073
95.9928 2.760
96.0231 2.292
96.0534 2.083
96.0837 2.240
96.1140 2.240
96.1442 1.719
96.1745 2.031
96.2048 2.240
96.2351 2.760
96.2653 1.719
96.2956 2.292
96.3259 2.969
96.3562 1.875
96.3865 1.927
96.4167 1.719
96.4470 2.135
96.4773 2.031
96.5076 2.135
96.5379 2.344
96.5681 2.083
96.5984 2.292
96.6287 1.667
96.6590 1.979
96.6893 1.979
96.7195 1.771
96.7498 1.771
96.7801 1.927
96.8104 2.292
96.8406 2.031
96.8709 1.146
96.9012 2.083
96.9315 2.292
96.9618 1.927
96.9920 2.396
97.0223 2.083
97.0526 1.823
97.0829 1.719
97.1132 1.719
97.1434 1.615
97.1737 2.187
97.2040 1.615
97.2343 2.292
97.2645 2.031
97.2948 2.083
97.3251 1.979
97.3554 1.719
97.3857 1.875
97.4159 1.615
97.4462 2.187
97.4765 1.510
97.5068 1.771
97.5371 2.135
97.5673 1.823
97.5976 1.771
97.6279 1.927
97.6582 1.979
97.6884 1.354
97.7187 2.187
97.7490 1.927
97.7793 1.979
97.8096 1.875
97.8398 1.771
97.8701 2.448
97.9004 2.031
97.9307 2.135
97.9610 2.344
97.9912 2.604
98.0215 1.667
98.0518 1.667
98.0821 2.760
98.1123 2.135
98.1426 2.292
98.1729 2.604
98.2032 3.177
98.2335 2.187
98.2637 2.292
98.2940 2.812
98.3243 2.396
98.3546 3.542
98.3849 2.344
98.4151 2.812
98.4454 2.708
98.4757 3.125
98.5060 3.281
98.5362 3.021
98.5665 3.229
98.5968 3.125
98.6271 2.812
98.6574 2.760
98.6876 2.969
98.7179 2.865
98.7482 3.333
98.7785 2.656
98.8088 2.344
98.8390 2.240
98.8693 3.229
98.8996 2.500
98.9299 3.333
98.9601 3.333
98.9904 2.292
99.0207 2.969
99.0510 2.552
99.0813 2.812
99.1115 2.708
99.1418 2.396
99.1721 2.187
99.2024 2.344
99.2327 1.927
99.2629 1.823
99.2932 2.448
99.3235 1.823
99.3538 2.552
99.3841 2.396
99.4143 1.927
99.4446 2.083
99.4749 1.823
99.5052 1.615
99.5354 2.187
99.5657 2.187
99.5960 2.083
99.6263 2.187
99.6566 1.406
99.6868 1.927
99.7171 1.927
99.7474 2.135
99.7777 2.187
99.8080 1.875
99.8382 1.823
99.8685 1.823
99.8988 1.302
99.9291 1.615
99.9593 1.667
99.9896 1.667
100.0199 2.083
100.0502 1.719
100.0805 1.823
100.1107 1.719
100.1410 1.823
100.1713 2.135
100.2016 1.615
100.2319 2.344
100.2621 1.927
100.2924 1.719
100.3227 1.458
100.3530 1.667
100.3832 1.406
100.4135 1.510
100.4438 1.302
100.4741 1.562
100.5044 1.302
100.5346 1.875
100.5649 1.562
100.5952 1.719
100.6255 1.719
100.6558 1.823
100.6860 1.406
100.7163 1.719
100.7466 1.823
100.7769 1.823
100.8071 1.302
100.8374 1.615
100.8677 2.500
100.8980 1.927
100.9283 1.562
100.9585 1.615
100.9888 1.875
101.0191 1.250
101.0494 1.562
101.0797 1.615
101.1099 1.771
101.1402 2.135
101.1705 1.875
101.2008 1.719
101.2310 1.719
101.2613 2.083
101.2916 1.615
101.3219 1.510
101.3522 1.406
101.3824 1.302
101.4127 1.927
101.4430 2.708
101.4733 1.615
101.5036 1.979
101.5338 1.823
101.5641 1.406
101.5944 1.667
101.6247 2.396
101.6549 1.823
101.6852 2.448
101.7155 2.240
101.7458 1.719
101.7761 2.135
101.8063 2.240
101.8366 1.719
101.8669 2.344
101.8972 1.823
101.9275 1.719
101.9577 2.187
101.9880 2.083
102.0183 1.875
102.0486 2.344
102.0788 2.344
102.1091 2.969
102.1394 1.823
102.1697 1.719
102.2000 1.875
102.2302 1.823
102.2605 2.031
102.2908 2.396
102.3211 1.562
102.3514 1.927
102.3816 2.656
102.4119 1.979
102.4422 2.552
102.4725 3.021
102.5028 1.979
102.5330 2.396
102.5633 1.979
102.5936 2.708
102.6239 2.396
102.6541 2.708
102.6844 2.969
102.7147 1.927
102.7450 2.969
102.7753 1.823
102.8055 2.917
102.8358 2.031
102.8661 3.333
102.8964 2.187
102.9267 2.917
102.9569 2.812
102.9872 3.021
103.0175 2.812
103.0478 3.177
103.0780 3.021
103.1083 2.448
103.1386 3.021
103.1689 3.281
103.1992 3.073
103.2294 2.865
103.2597 2.865
103.2900 1.979
103.3203 2.031
103.3506 3.385
103.3808 2.708
103.4111 1.771
103.4414 2.760
103.4717 2.448
103.5019 2.656
103.5322 3.021
103.5625 3.385
103.5928 2.500
103.6231 2.969
103.6533 2.552
103.6836 2.656
103.7139 2.604
103.7442 3.437
103.7745 3.021
103.8047 2.708
103.8350 3.021
103.8653 3.854
103.8956 3.542
103.9258 4.167
103.9561 3.437
103.9864 3.385
104.0167 3.385
104.0470 3.958
104.0772 3.385
104.1075 3.073
104.1378 4.167
104.1681 3.750
104.1984 3.333
104.2286 3.698
104.2589 3.073
104.2892 2.865
104.3195 4.010
104.3497 3.802
104.3800 2.708
104.4103 3.073
104.4406 3.385
104.4709 3.646
104.5011 2.812
104.5314 3.177
104.5617 3.333
104.5920 2.396
104.6223 2.500
104.6525 2.448
104.6828 3.125
104.7131 2.240
104.7434 2.917
104.7736 2.344
104.8039 1.875
104.8342 1.927
104.8645 1.979
104.8948 2.656
104.9250 1.979
104.9553 1.823
104.9856 2.187
105.0159 2.344
105.0462 1.927
105.0764 2.396
105.1067 2.396
105.1370 1.927
105.1673 1.667
105.1975 1.979
105.2278 1.979
105.2581 1.771
105.2884 1.823
105.3187 2.135
105.3489 1.927
105.3792 1.979
105.4095 2.187
105.4398 1.615
105.4701 1.823
105.5003 2.031
105.5306 1.771
105.5609 1.406
105.5912 2.031
105.6215 2.292
105.6517 2.344
105.6820 1.406
105.7123 1.927
105.7426 1.510
105.7728 2.552
105.8031 2.031
105.8334 1.615
105.8637 1.875
105.8940 2.187
105.9242 1.458
105.9545 2.083
105.9848 1.510
106.0151 2.760
106.0454 2.708
106.0756 2.031
106.1059 2.187
106.1362 1.615
106.1665 1.510
106.1967 1.562
106.2270 2.031
106.2573 2.083
106.2876 1.458
106.3179 1.927
106.3481 1.979
106.3784 1.719
106.4087 1.875
106.4390 1.458
106.4693 1.927
106.4995 1.406
106.5298 1.406
106.5601 1.927
106.5904 1.406
106.6206 1.562
106.6509 1.510
106.6812 1.667
106.7115 1.510
106.7418 2.187
106.7720 1.250
106.8023 2.031
106.8326 1.771
106.8629 2.031
106.8932 1.927
106.9234 2.292
106.9537 1.198
106.9840 1.771
107.0143 2.031
107.0445 1.771
107.0748 1.927
107.1051 1.615
107.1354 1.875
107.1657 1.302
107.1959 1.667
107.2262 1.406
107.2565 2.396
107.2868 1.979
107.3171 1.719
107.3473 1.875
107.3776 1.771
107.4079 1.875
107.4382 1.823
107.4684 1.875
107.4987 1.250
107.5290 1.771
107.5593 1.094
107.5896 2.031
107.6198 2.292
107.6501 1.615
107.6804 1.042
107.7107 2.031
107.7410 1.927
107.7712 1.719
107.8015 1.562
107.8318 2.240
107.8621 1.875
107.8923 2.031
107.9226 2.396
107.9529 2.083
107.9832 1.562
108.0135 2.135
108.0437 2.344
108.0740 2.240
108.1043 2.083
108.1346 1.354
108.1649 1.875
108.1951 1.615
108.2254 2.344
108.2557 1.823
108.2860 1.615
108.3163 1.667
108.3465 1.667
108.3768 1.510
108.4071 2.187
108.4374 1.562
108.4676 1.927
108.4979 1.927
108.5282 1.458
108.5585 1.771
108.5888 2.292
108.6190 1.719
108.6493 1.823
108.6796 2.031
108.7099 1.823
108.7402 2.135
108.7704 1.458
108.8007 1.927
108.8310 1.979
108.8613 2.135
108.8915 1.250
108.9218 1.302
108.9521 1.250
108.9824 1.927
109.0127 2.292
109.0429 1.823
109.0732 2.135
109.1035 1.406
109.1338 1.875
109.1641 1.875
109.1943 2.240
109.2246 1.771
109.2549 1.979
109.2852 1.927
109.3154 2.031
109.3457 1.823
109.3760 2.083
109.4063 1.771
109.4366 2.240
109.4668 2.187
109.4971 1.927
109.5274 2.292
109.5577 1.302
109.5880 1.979
109.6182 2.187
109.6485 1.615
109.6788 2.135
109.7091 2.396
109.7393 2.083
109.7696 1.875
109.7999 1.927
109.8302 2.031
109.8605 1.719
109.8907 2.552
109.9210 2.031
109.9513 2.031
109.9816 2.292
110.0119 2.604
110.0421 2.292
110.0724 2.656
110.1027 2.917
110.1330 2.031
110.1632 2.396
110.1935 2.187
110.2238 3.125
110.2541 2.083
110.2844 1.823
110.3146 3.177
110.3449 3.177
110.3752 2.552
110.4055 2.656
110.4358 2.448
110.4660 2.240
110.4963 2.604
110.5266 3.229
110.5569 3.073
110.5871 3.594
110.6174 2.240
110.6477 2.760
110.6780 2.708
110.7083 2.396
110.7385 2.240
110.7688 2.135
110.7991 2.656
110.8294 2.344
110.8597 2.344
110.8899 2.448
110.9202 2.448
110.9505 2.760
110.9808 1.979
111.0110 2.031
111.0413 2.135
111.0716 2.500
111.1019 2.135
111.1322 2.187
111.1624 2.135
111.1927 2.500
111.2230 2.187
111.2533 2.083
111.2836 1.875
111.3138 1.667
111.3441 2.552
111.3744 1.615
111.4047 1.979
111.4350 2.187
111.4652 1.823
111.4955 2.240
111.5258 1.927
111.5561 1.667
111.5863 1.406
111.6166 1.198
111.6469 2.031
111.6772 2.135
111.7075 1.927
111.7377 2.031
111.7680 1.823
111.7983 2.083
111.8286 2.083
111.8589 1.719
111.8891 1.719
111.9194 1.667
111.9497 1.302
111.9800 1.667
112.0102 1.667
112.0405 1.771
112.0708 1.354
112.1011 1.979
112.1314 1.771
112.1616 1.667
112.1919 1.771
112.2222 1.719
112.2525 1.667
112.2828 1.250
112.3130 1.667
112.3433 1.719
112.3736 2.031
112.4039 1.719
112.4341 2.135
112.4644 1.979
112.4947 1.510
112.5250 1.875
112.5553 1.823
112.5855 1.927
112.6158 1.615
112.6461 1.615
112.6764 1.302
112.7067 1.146
112.7369 1.771
112.7672 1.562
112.7975 1.719
112.8278 1.823
112.8580 2.031
112.8883 1.458
112.9186 1.615
112.9489 1.406
112.9792 1.562
113.0094 1.198
113.0397 2.187
113.0700 1.823
113.1003 1.354
113.1306 1.667
113.1608 1.198
113.1911 2.187
113.2214 1.719
113.2517 1.615
113.2819 2.552
113.3122 1.927
113.3425 2.135
113.3728 1.771
113.4031 2.083
113.4333 1.875
113.4636 1.771
113.4939 1.198
113.5242 1.771
113.5545 1.510
113.5847 1.875
113.6150 1.510
113.6453 1.302
113.6756 1.771
113.7058 1.719
113.7361 2.135
113.7664 2.031
113.7967 2.656
113.8270 1.615
113.8572 1.979
113.8875 1.927
113.9178 2.448
113.9481 2.187
113.9784 1.823
114.0086 1.979
114.0389 2.240
114.0692 1.875
114.0995 1.198
114.1298 2.292
114.1600 1.719
114.1903 1.354
114.2206 1.458
114.2509 2.083
114.2811 1.875
114.3114 1.823
114.3417 2.135
114.3720 1.667
114.4023 2.344
114.4325 1.615
114.4628 2.135
114.4931 1.406
114.5234 1.823
114.5537 1.927
114.5839 2.187
114.6142 2.187
114.6445 1.615
114.6748 2.135
114.7050 2.500
114.7353 2.708
114.7656 2.135
114.7959 1.771
114.8262 2.083
114.8564 2.240
114.8867 1.823
114.9170 1.927
114.9473 2.187
114.9776 2.240
115.0078 1.823
115.0381 2.135
115.0684 2.240
115.0987 2.396
115.1289 2.812
115.1592 1.667
115.1895 2.448
115.2198 2.604
115.2501 2.187
115.2803 2.552
115.3106 2.500
115.3409 3.177
115.3712 2.760
115.4015 3.333
115.4317 2.552
115.4620 2.344
115.4923 2.760
115.5226 2.969
115.5528 2.448
115.5831 2.708
115.6134 3.385
115.6437 2.604
115.6740 3.021
115.7042 2.656
115.7345 2.969
115.7648 3.802
115.7951 2.969
115.8254 2.969
115.8556 3.594
115.8859 2.708
115.9162 3.177
115.9465 4.740
115.9767 3.750
116.0070 4.115
116.0373 4.792
116.0676 3.906
116.0979 3.698
116.1281 4.375
116.1584 4.010
116.1887 4.062
116.2190 4.896
116.2493 3.854
116.2795 3.542
116.3098 4.375
116.3401 3.437
116.3704 4.687
116.4006 4.010
116.4309 3.594
116.4612 4.219
116.4915 4.062
116.5218 3.802
116.5520 3.073
116.5823 3.854
116.6126 4.323
116.6429 3.646
116.6732 2.760
116.7034 3.437
116.7337 3.229
116.7640 2.656
116.7943 3.594
116.8245 2.969
116.8548 3.333
116.8851 3.437
116.9154 2.448
116.9457 2.969
116.9759 2.760
117.0062 3.750
117.0365 3.177
117.0668 3.333
117.0971 2.500
117.1273 3.229
117.1576 3.646
117.1879 2.552
117.2182 2.292
117.2485 2.500
117.2787 2.760
117.3090 2.708
117.3393 2.292
117.3696 3.073
117.3998 1.875
117.4301 2.240
117.4604 2.708
117.4907 2.135
117.5210 2.812
117.5512 2.135
117.5815 2.031
117.6118 2.187
117.6421 2.656
117.6724 1.927
117.7026 1.719
117.7329 2.240
117.7632 2.969
117.7935 1.667
117.8237 2.083
117.8540 2.396
117.8843 1.875
117.9146 1.927
117.9449 2.292
117.9751 2.500
118.0054 1.875
118.0357 2.656
118.0660 2.240
118.0963 1.771
118.1265 1.979
118.1568 2.031
118.1871 2.083
118.2174 1.667
118.2476 1.458
118.2779 1.354
118.3082 1.875
118.3385 1.823
118.3688 1.615
118.3990 1.510
118.4293 1.250
118.4596 1.927
118.4899 2.135
118.5202 2.187
118.5504 1.875
118.5807 2.187
118.6110 1.875
118.6413 1.562
118.6715 1.875
118.7018 1.927
118.7321 1.615
118.7624 1.354
118.7927 1.875
118.8229 1.771
118.8532 1.562
118.8835 2.187
118.9138 2.344
118.9441 1.562
118.9743 1.875
119.0046 1.823
119.0349 1.615
119.0652 1.510
119.0954 1.927
119.1257 1.979
119.1560 2.083
119.1863 1.771
119.2166 1.823
119.2468 1.927
119.2771 1.667
119.3074 1.927
119.3377 1.667
119.3680 2.031
119.3982 1.823
119.4285 1.719
119.4588 1.667
119.4891 2.240
119.5193 1.823
119.5496 1.927
119.5799 1.927
119.6102 1.510
119.6405 2.135
119.6707 1.719
119.7010 1.927
119.7313 1.562
119.7616 1.719
119.7919 1.823
119.8221 1.823
119.8524 1.302
119.8827 1.198
119.9130 2.031
119.9433 1.510
119.9735 1.875
120.0038 2.031
