'Id: "" Comment: "" Operator: "Lab Manager" Anode: "Cu" Scantype: "Locked Coupled" TimePerStep: "19.2" X: "9999" Y: "9999" Z: "9999" 
10.0015 3.906
10.0318 3.281
10.0620 3.385
10.0923 3.698
10.1226 3.073
10.1529 3.125
10.1832 4.531
10.2134 2.917
10.2437 3.750
10.2740 3.333
10.3043 2.187
10.3346 3.229
10.3648 4.062
10.3951 3.594
10.4254 4.271
10.4557 3.542
10.4859 3.750
10.5162 3.646
10.5465 4.844
10.5768 4.219
10.6071 4.740
10.6373 4.167
10.6676 3.594
10.6979 2.865
10.7282 4.167
10.7585 3.594
10.7887 4.010
10.8190 4.427
10.8493 4.479
10.8796 4.323
10.9098 6.562
10.9401 8.698
10.9704 8.802
11.0007 9.583
11.0310 12.917
11.0612 10.000
11.0915 9.479
11.1218 8.125
11.1521 6.198
11.1824 5.677
11.2126 4.167
11.2429 5.990
11.2732 4.583
11.3035 4.375
11.3337 3.802
11.3640 4.010
11.3943 4.115
11.4246 4.219
11.4549 4.583
11.4851 3.073
11.5154 4.323
11.5457 3.385
11.5760 3.854
11.6063 3.333
11.6365 4.062
11.6668 3.385
11.6971 3.906
11.7274 4.375
11.7577 3.958
11.7879 3.333
11.8182 4.427
11.8485 3.646
11.8788 3.906
11.9090 2.969
11.9393 3.177
11.9696 2.865
11.9999 3.437
12.0302 3.437
12.0604 3.229
12.0907 2.917
12.1210 2.708
12.1513 3.177
12.1816 3.229
12.2118 2.500
12.2421 2.604
12.2724 1.979
12.3027 2.552
12.3329 2.760
12.3632 3.437
12.3935 3.333
12.4238 2.240
12.4541 2.812
12.4843 2.292
12.5146 2.656
12.5449 2.240
12.5752 2.552
12.6055 2.604
12.6357 2.865
12.6660 2.760
12.6963 3.333
12.7266 2.604
12.7568 2.448
12.7871 2.708
12.8174 1.979
12.8477 3.177
12.8780 2.604
12.9082 2.500
12.9385 2.448
12.9688 2.917
12.9991 2.812
13.0294 2.760
13.0596 2.865
13.0899 3.021
13.1202 2.344
13.1505 2.500
13.1807 2.760
13.2110 2.396
13.2413 2.500
13.2716 3.125
13.3019 2.083
13.3321 2.187
13.3624 2.135
13.3927 2.552
13.4230 2.969
13.4533 2.656
13.4835 2.240
13.5138 2.552
13.5441 2.240
13.5744 2.031
13.6046 2.865
13.6349 2.448
13.6652 1.823
13.6955 2.552
13.7258 2.865
13.7560 2.656
13.7863 2.708
13.8166 2.448
13.8469 2.396
13.8772 2.240
13.9074 1.042
13.9377 2.865
13.9680 2.604
13.9983 2.500
14.0285 2.135
14.0588 2.656
14.0891 2.292
14.1194 2.240
14.1497 2.292
14.1799 2.240
14.2102 2.344
14.2405 2.187
14.2708 2.083
14.3011 1.823
14.3313 1.406
14.3616 2.135
14.3919 2.240
14.4222 2.708
14.4524 1.510
14.4827 2.552
14.5130 2.552
14.5433 2.135
14.5736 2.292
14.6038 1.719
14.6341 1.823
14.6644 2.187
14.6947 1.927
14.7250 2.500
14.7552 2.812
14.7855 1.979
14.8158 3.073
14.8461 1.979
14.8764 2.031
14.9066 2.760
14.9369 1.302
14.9672 2.344
14.9975 1.823
15.0277 2.448
15.0580 1.979
15.0883 1.615
15.1186 1.875
15.1489 2.448
15.1791 2.240
15.2094 1.875
15.2397 1.927
15.2700 2.500
15.3003 2.448
15.3305 1.927
15.3608 2.083
15.3911 3.073
15.4214 2.708
15.4516 1.823
15.4819 2.083
15.5122 2.292
15.5425 1.875
15.5728 1.875
15.6030 2.656
15.6333 1.771
15.6636 2.604
15.6939 2.187
15.7242 2.656
15.7544 1.927
15.7847 1.823
15.8150 1.719
15.8453 2.083
15.8755 2.292
15.9058 2.083
15.9361 1.979
15.9664 2.135
15.9967 2.031
16.0269 1.771
16.0572 1.719
16.0875 2.500
16.1178 2.656
16.1481 2.031
16.1783 1.562
16.2086 1.719
16.2389 1.979
16.2692 2.187
16.2994 2.760
16.3297 1.875
16.3600 2.292
16.3903 2.135
16.4206 2.031
16.4508 2.031
16.4811 1.615
16.5114 2.240
16.5417 2.187
16.5720 2.500
16.6022 1.719
16.6325 1.979
16.6628 2.292
16.6931 2.135
16.7233 2.240
16.7536 1.823
16.7839 2.187
16.8142 1.823
16.8445 2.240
16.8747 2.135
16.9050 2.812
16.9353 2.396
16.9656 1.146
16.9959 2.240
17.0261 2.344
17.0564 2.396
17.0867 1.927
17.1170 1.823
17.1472 1.875
17.1775 1.719
17.2078 2.344
17.2381 1.406
17.2684 2.031
17.2986 1.875
17.3289 1.875
17.3592 2.031
17.3895 2.083
17.4198 1.719
17.4500 2.292
17.4803 1.615
17.5106 1.406
17.5409 1.667
17.5712 1.406
17.6014 1.615
17.6317 1.667
17.6620 1.875
17.6923 1.771
17.7225 1.771
17.7528 2.031
17.7831 1.927
17.8134 1.927
17.8437 2.031
17.8739 2.240
17.9042 2.240
17.9345 2.292
17.9648 1.927
17.9951 1.354
18.0253 1.510
18.0556 2.135
18.0859 1.771
18.1162 1.771
18.1464 1.458
18.1767 1.771
18.2070 1.354
18.2373 1.510
18.2676 1.979
18.2978 1.823
18.3281 1.562
18.3584 1.719
18.3887 1.667
18.4190 1.302
18.4492 2.552
18.4795 2.031
18.5098 2.187
18.5401 1.771
18.5703 2.083
18.6006 2.083
18.6309 1.875
18.6612 1.667
18.6915 1.875
18.7217 1.302
18.7520 0.990
18.7823 1.719
18.8126 1.719
18.8429 1.823
18.8731 1.562
18.9034 1.927
18.9337 1.354
18.9640 1.510
18.9942 1.979
19.0245 1.510
19.0548 1.875
19.0851 2.187
19.1154 1.667
19.1456 1.146
19.1759 1.302
19.2062 1.615
19.2365 1.458
19.2668 1.562
19.2970 1.719
19.3273 1.927
19.3576 1.823
19.3879 1.667
19.4181 1.562
19.4484 1.823
19.4787 1.406
19.5090 2.187
19.5393 1.562
19.5695 1.042
19.5998 1.562
19.6301 1.510
19.6604 1.823
19.6907 1.771
19.7209 1.250
19.7512 1.667
19.7815 1.250
19.8118 1.615
19.8420 2.135
19.8723 1.979
19.9026 1.615
19.9329 1.719
19.9632 1.406
19.9934 1.406
20.0237 1.667
20.0540 2.031
20.0843 1.719
20.1146 0.990
20.1448 1.458
20.1751 1.615
20.2054 1.979
20.2357 1.927
20.2659 1.042
20.2962 1.198
20.3265 1.458
20.3568 1.771
20.3871 1.302
20.4173 2.396
20.4476 1.042
20.4779 1.875
20.5082 1.302
20.5385 1.354
20.5687 1.458
20.5990 1.146
20.6293 1.458
20.6596 1.823
20.6899 1.198
20.7201 1.458
20.7504 1.302
20.7807 1.927
20.8110 1.615
20.8412 1.042
20.8715 1.927
20.9018 1.354
20.9321 1.354
20.9624 1.927
20.9926 1.927
21.0229 1.823
21.0532 1.562
21.0835 1.250
21.1138 1.719
21.1440 1.562
21.1743 1.510
21.2046 1.615
21.2349 1.927
21.2651 1.146
21.2954 1.354
21.3257 1.615
21.3560 1.146
21.3863 1.406
21.4165 1.250
21.4468 1.719
21.4771 1.250
21.5074 2.083
21.5377 1.771
21.5679 1.354
21.5982 1.771
21.6285 0.990
21.6588 0.990
21.6890 1.823
21.7193 1.354
21.7496 1.667
21.7799 1.667
21.8102 1.302
21.8404 1.510
21.8707 1.719
21.9010 1.406
21.9313 1.406
21.9616 1.250
21.9918 1.667
22.0221 1.094
22.0524 1.354
22.0827 1.562
22.1129 1.510
22.1432 1.354
22.1735 1.458
22.2038 1.094
22.2341 1.562
22.2643 0.937
22.2946 1.562
22.3249 1.094
22.3552 1.615
22.3855 1.042
22.4157 1.094
22.4460 0.937
22.4763 1.823
22.5066 1.302
22.5368 1.198
22.5671 1.354
22.5974 1.198
22.6277 0.990
22.6580 1.406
22.6882 1.771
22.7185 1.302
22.7488 1.771
22.7791 1.042
22.8094 1.042
22.8396 1.146
22.8699 1.667
22.9002 1.042
22.9305 1.094
22.9607 1.406
22.9910 1.458
23.0213 1.302
23.0516 1.250
23.0819 0.990
23.1121 1.927
23.1424 1.302
23.1727 1.250
23.2030 1.458
23.2333 0.990
23.2635 1.042
23.2938 1.406
23.3241 1.146
23.3544 1.302
23.3846 0.990
23.4149 1.406
23.4452 1.510
23.4755 1.771
23.5058 1.771
23.5360 1.406
23.5663 1.667
23.5966 1.719
23.6269 1.458
23.6572 1.198
23.6874 1.823
23.7177 1.667
23.7480 1.198
23.7783 1.198
23.8086 2.083
23.8388 1.302
23.8691 1.094
23.8994 1.510
23.9297 1.458
23.9599 1.250
23.9902 1.302
24.0205 0.833
24.0508 1.406
24.0811 1.562
24.1113 1.302
24.1416 1.250
24.1719 1.406
24.2022 1.458
24.2325 1.302
24.2627 1.562
24.2930 1.354
24.3233 1.406
24.3536 1.458
24.3838 1.302
24.4141 1.198
24.4444 0.937
24.4747 1.354
24.5050 1.615
24.5352 1.250
24.5655 1.354
24.5958 1.250
24.6261 0.781
24.6564 1.406
24.6866 1.042
24.7169 0.990
24.7472 1.458
24.7775 1.146
24.8077 0.937
24.8380 0.885
24.8683 1.250
24.8986 0.677
24.9289 1.615
24.9591 1.250
24.9894 1.302
25.0197 1.719
25.0500 1.875
25.0803 1.510
25.1105 1.354
25.1408 1.458
25.1711 1.250
25.2014 1.354
25.2316 1.667
25.2619 1.354
25.2922 1.510
25.3225 1.562
25.3528 1.458
25.3830 1.042
25.4133 1.354
25.4436 1.406
25.4739 1.354
25.5042 0.885
25.5344 0.781
25.5647 1.146
25.5950 1.406
25.6253 1.406
25.6555 1.094
25.6858 1.302
25.7161 1.354
25.7464 0.885
25.7767 1.510
25.8069 1.094
25.8372 1.823
25.8675 1.094
25.8978 1.042
25.9281 1.458
25.9583 1.354
25.9886 1.719
26.0189 1.406
26.0492 1.302
26.0794 1.354
26.1097 1.406
26.1400 0.937
26.1703 1.458
26.2006 0.729
26.2308 0.781
26.2611 1.667
26.2914 0.781
26.3217 1.510
26.3520 1.458
26.3822 1.719
26.4125 1.198
26.4428 1.615
26.4731 1.250
26.5034 1.250
26.5336 1.146
26.5639 1.510
26.5942 1.354
26.6245 1.250
26.6547 1.042
26.6850 0.885
26.7153 1.302
26.7456 1.354
26.7759 1.719
26.8061 1.510
26.8364 1.771
26.8667 1.510
26.8970 1.250
26.9273 1.406
26.9575 1.094
26.9878 1.354
27.0181 1.354
27.0484 0.781
27.0786 0.885
27.1089 1.250
27.1392 1.302
27.1695 1.146
27.1998 1.302
27.2300 1.562
27.2603 1.406
27.2906 1.354
27.3209 1.406
27.3512 1.302
27.3814 0.990
27.4117 1.354
27.4420 1.094
27.4723 1.719
27.5025 1.250
27.5328 0.937
27.5631 0.885
27.5934 1.302
27.6237 0.990
27.6539 1.719
27.6842 1.354
27.7145 1.042
27.7448 1.875
27.7751 1.562
27.8053 0.937
27.8356 1.458
27.8659 1.094
27.8962 0.781
27.9264 1.354
27.9567 1.927
27.9870 1.875
28.0173 1.406
28.0476 1.562
28.0778 1.562
28.1081 1.250
28.1384 0.990
28.1687 1.302
28.1990 2.031
28.2292 1.146
28.2595 1.667
28.2898 1.562
28.3201 1.458
28.3503 1.354
28.3806 1.354
28.4109 1.562
28.4412 1.354
28.4715 1.250
28.5017 1.771
28.5320 1.146
28.5623 1.302
28.5926 1.615
28.6229 1.458
28.6531 1.146
28.6834 1.771
28.7137 1.302
28.7440 1.458
28.7742 1.406
28.8045 1.510
28.8348 1.406
28.8651 0.937
28.8954 1.250
28.9256 1.667
28.9559 1.510
28.9862 1.771
29.0165 1.510
29.0468 1.562
29.0770 1.094
29.1073 1.823
29.1376 1.615
29.1679 1.302
29.1981 1.510
29.2284 1.198
29.2587 1.562
29.2890 1.354
29.3193 1.510
29.3495 1.979
29.3798 1.510
29.4101 0.990
29.4404 1.146
29.4707 1.510
29.5009 0.990
29.5312 1.146
29.5615 1.198
29.5918 1.719
29.6221 1.042
29.6523 2.344
29.6826 1.354
29.7129 1.562
29.7432 1.354
29.7734 1.562
29.8037 1.250
29.8340 1.562
29.8643 1.510
29.8946 1.406
29.9248 1.927
29.9551 1.823
29.9854 1.510
30.0157 1.667
30.0460 1.823
30.0762 1.875
30.1065 1.458
30.1368 1.667
30.1671 1.771
30.1973 1.771
30.2276 1.250
30.2579 1.667
30.2882 1.667
30.3185 1.458
30.3487 1.510
30.3790 2.240
30.4093 1.406
30.4396 2.031
30.4699 2.396
30.5001 2.292
30.5304 2.292
30.5607 2.396
30.5910 2.344
30.6212 2.083
30.6515 1.979
30.6818 2.292
30.7121 2.396
30.7424 2.448
30.7726 2.240
30.8029 3.073
30.8332 2.604
30.8635 2.708
30.8938 2.708
30.9240 2.969
30.9543 3.125
30.9846 2.604
31.0149 3.594
31.0451 3.281
31.0754 4.375
31.1057 3.281
31.1360 3.698
31.1663 4.010
31.1965 4.479
31.2268 5.312
31.2571 5.312
31.2874 7.240
31.3177 6.979
31.3479 7.240
31.3782 8.490
31.4085 8.958
31.4388 8.854
31.4690 13.333
31.4993 14.844
31.5296 17.031
31.5599 19.323
31.5902 21.146
31.6204 20.833
31.6507 21.250
31.6810 20.312
31.7113 19.271
31.7416 16.042
31.7718 12.656
31.8021 12.187
31.8324 10.833
31.8627 8.333
31.8929 7.500
31.9232 7.031
31.9535 6.979
31.9838 5.260
32.0141 6.094
32.0443 4.219
32.0746 4.844
32.1049 4.323
32.1352 4.219
32.1655 3.333
32.1957 3.698
32.2260 3.333
32.2563 3.177
32.2866 3.125
32.3169 3.333
32.3471 2.656
32.3774 2.917
32.4077 2.396
32.4380 2.604
32.4682 2.552
32.4985 2.604
32.5288 1.979
32.5591 1.979
32.5894 2.344
32.6196 2.083
32.6499 2.344
32.6802 2.083
32.7105 1.927
32.7408 1.927
32.7710 2.031
32.8013 2.240
32.8316 1.823
32.8619 3.073
32.8921 2.187
32.9224 1.875
32.9527 2.083
32.9830 2.448
33.0133 2.344
33.0435 2.031
33.0738 2.604
33.1041 1.771
33.1344 2.031
33.1647 2.031
33.1949 1.719
33.2252 2.083
33.2555 1.823
33.2858 1.771
33.3160 2.708
33.3463 2.240
33.3766 2.604
33.4069 1.146
33.4372 2.500
33.4674 2.396
33.4977 1.927
33.5280 2.240
33.5583 2.240
33.5886 1.927
33.6188 2.812
33.6491 2.708
33.6794 2.812
33.7097 2.812
33.7399 2.656
33.7702 3.281
33.8005 2.917
33.8308 3.073
33.8611 2.812
33.8913 3.073
33.9216 3.646
33.9519 4.115
33.9822 4.427
34.0125 5.260
34.0427 5.781
34.0730 7.135
34.1033 7.240
34.1336 9.687
34.1638 12.135
34.1941 13.802
34.2244 18.437
34.2547 22.656
34.2850 22.917
34.3152 21.719
34.3455 17.500
34.3758 16.875
34.4061 11.615
34.4364 8.229
34.4666 6.979
34.4969 6.979
34.5272 5.260
34.5575 5.365
34.5877 4.687
34.6180 3.385
34.6483 3.594
34.6786 3.542
34.7089 3.698
34.7391 3.229
34.7694 3.490
34.7997 2.448
34.8300 2.187
34.8603 2.760
34.8905 2.604
34.9208 2.708
34.9511 2.396
34.9814 2.292
35.0116 2.552
35.0419 2.812
35.0722 2.552
35.1025 2.344
35.1328 3.177
35.1630 2.865
35.1933 2.812
35.2236 3.021
35.2539 3.281
35.2842 2.812
35.3144 3.073
35.3447 3.750
35.3750 3.125
35.4053 3.125
35.4356 4.219
35.4658 3.854
35.4961 2.656
35.5264 4.323
35.5567 2.917
35.5869 4.583
35.6172 4.010
35.6475 4.687
35.6778 5.208
35.7081 5.521
35.7383 6.562
35.7686 6.719
35.7989 7.552
35.8292 7.708
35.8595 9.271
35.8897 10.365
35.9200 12.292
35.9503 13.125
35.9806 16.615
36.0108 19.687
36.0411 23.698
36.0714 26.979
36.1017 28.594
36.1320 28.750
36.1622 25.885
36.1925 24.687
36.2228 23.437
36.2531 18.437
36.2834 15.833
36.3136 13.594
36.3439 10.625
36.3742 9.427
36.4045 8.698
36.4347 8.698
36.4650 7.292
36.4953 5.729
36.5256 6.146
36.5559 4.479
36.5861 4.427
36.6164 3.073
36.6467 3.750
36.6770 4.375
36.7073 3.125
36.7375 2.812
36.7678 2.812
36.7981 2.969
36.8284 3.281
36.8586 2.552
36.8889 2.396
36.9192 2.031
36.9495 2.292
36.9798 2.292
37.0100 2.135
37.0403 1.823
37.0706 2.500
37.1009 1.927
37.1312 2.292
37.1614 1.719
37.1917 2.344
37.2220 2.448
37.2523 1.615
37.2825 2.240
37.3128 1.354
37.3431 1.354
37.3734 1.667
37.4037 2.083
37.4339 1.250
37.4642 2.187
37.4945 1.719
37.5248 1.406
37.5551 1.302
37.5853 1.354
37.6156 1.302
37.6459 1.354
37.6762 1.562
37.7064 1.510
37.7367 1.823
37.7670 1.510
37.7973 2.031
37.8276 1.094
37.8578 1.354
37.8881 1.146
37.9184 0.990
37.9487 1.198
37.9790 1.354
38.0092 1.354
38.0395 0.833
38.0698 2.083
38.1001 1.198
38.1304 1.771
38.1606 1.354
38.1909 1.198
38.2212 1.198
38.2515 1.562
38.2817 1.042
38.3120 0.833
38.3423 0.990
38.3726 0.937
38.4029 1.094
38.4331 1.198
38.4634 1.094
38.4937 0.677
38.5240 1.302
38.5543 1.094
38.5845 1.406
38.6148 1.094
38.6451 1.354
38.6754 0.625
38.7056 0.781
38.7359 1.094
38.7662 1.094
38.7965 1.302
38.8268 1.354
38.8570 1.146
38.8873 0.885
38.9176 1.354
38.9479 0.990
38.9782 0.990
39.0084 1.302
39.0387 1.042
39.0690 0.885
39.0993 1.146
39.1295 1.094
39.1598 0.937
39.1901 0.937
39.2204 1.198
39.2507 1.302
39.2809 1.250
39.3112 1.042
39.3415 0.885
39.3718 0.625
39.4021 0.729
39.4323 1.146
39.4626 0.833
39.4929 1.406
39.5232 1.042
39.5534 0.729
39.5837 0.990
39.6140 0.937
39.6443 1.562
39.6746 0.885
39.7048 0.729
39.7351 1.094
39.7654 1.146
39.7957 0.990
39.8260 0.781
39.8562 0.729
39.8865 0.729
39.9168 0.990
39.9471 1.146
39.9773 0.781
40.0076 0.937
40.0379 0.729
40.0682 1.146
40.0985 1.146
40.1287 0.833
40.1590 0.990
40.1893 0.833
40.2196 0.625
40.2499 1.354
40.2801 1.198
40.3104 1.250
40.3407 1.302
40.3710 0.937
40.4012 1.094
40.4315 1.302
40.4618 1.198
40.4921 0.417
40.5224 0.990
40.5526 0.677
40.5829 0.990
40.6132 0.937
40.6435 0.885
40.6738 1.250
40.7040 0.781
40.7343 1.198
40.7646 0.885
40.7949 0.729
40.8251 0.781
40.8554 0.833
40.8857 0.833
40.9160 0.573
40.9463 1.042
40.9765 0.990
41.0068 0.937
41.0371 0.625
41.0674 0.729
41.0977 0.781
41.1279 0.885
41.1582 0.833
41.1885 0.781
41.2188 0.990
41.2491 1.094
41.2793 0.677
41.3096 0.833
41.3399 1.042
41.3702 0.885
41.4004 0.573
41.4307 0.781
41.4610 1.250
41.4913 0.677
41.5216 1.094
41.5518 0.990
41.5821 0.833
41.6124 1.042
41.6427 0.885
41.6730 0.937
41.7032 0.729
41.7335 0.833
41.7638 1.146
41.7941 0.625
41.8243 0.833
41.8546 1.042
41.8849 1.094
41.9152 1.094
41.9455 0.677
41.9757 0.990
42.0060 0.781
42.0363 1.198
42.0666 0.990
42.0969 1.198
42.1271 0.833
42.1574 1.146
42.1877 0.729
42.2180 0.521
42.2482 0.677
42.2785 1.094
42.3088 1.042
42.3391 0.573
42.3694 0.417
42.3996 0.677
42.4299 0.885
42.4602 1.406
42.4905 0.937
42.5208 1.146
42.5510 0.833
42.5813 0.833
42.6116 0.469
42.6419 0.729
42.6721 1.094
42.7024 0.677
42.7327 1.094
42.7630 0.729
42.7933 0.573
42.8235 1.042
42.8538 0.677
42.8841 0.729
42.9144 0.521
42.9447 0.729
42.9749 0.469
43.0052 0.677
43.0355 0.781
43.0658 0.781
43.0960 0.990
43.1263 0.937
43.1566 0.573
43.1869 1.094
43.2172 0.677
43.2474 1.042
43.2777 0.885
43.3080 0.729
43.3383 1.250
43.3686 0.781
43.3988 1.146
43.4291 1.094
43.4594 0.833
43.4897 0.677
43.5199 0.937
43.5502 0.625
43.5805 0.677
43.6108 0.937
43.6411 1.042
43.6713 1.198
43.7016 0.625
43.7319 0.781
43.7622 0.521
43.7925 1.042
43.8227 1.198
43.8530 0.781
43.8833 0.729
43.9136 1.094
43.9439 0.885
43.9741 1.042
44.0044 0.885
44.0347 1.458
44.0650 0.677
44.0952 0.990
44.1255 1.146
44.1558 0.990
44.1861 0.833
44.2164 1.198
44.2466 0.521
44.2769 0.573
44.3072 0.729
44.3375 0.677
44.3678 0.573
44.3980 1.354
44.4283 0.677
44.4586 0.781
44.4889 0.469
44.5191 0.573
44.5494 0.469
44.5797 0.625
44.6100 0.625
44.6403 0.990
44.6705 0.990
44.7008 0.885
44.7311 0.833
44.7614 0.781
44.7917 0.885
44.8219 1.146
44.8522 0.990
44.8825 1.042
44.9128 0.781
44.9430 0.625
44.9733 0.990
45.0036 0.833
45.0339 0.677
45.0642 0.521
45.0944 0.573
45.1247 1.042
45.1550 0.729
45.1853 0.677
45.2156 1.094
45.2458 0.573
45.2761 1.198
45.3064 0.417
45.3367 0.729
45.3669 1.094
45.3972 1.146
45.4275 0.677
45.4578 0.885
45.4881 1.094
45.5183 0.521
45.5486 0.573
45.5789 0.937
45.6092 0.573
45.6395 1.042
45.6697 0.990
45.7000 1.042
45.7303 1.146
45.7606 1.198
45.7908 1.042
45.8211 0.990
45.8514 1.094
45.8817 0.729
45.9120 0.833
45.9422 1.042
45.9725 1.042
46.0028 0.781
46.0331 0.521
46.0634 0.990
46.0936 1.094
46.1239 1.302
46.1542 0.937
46.1845 0.833
46.2147 0.573
46.2450 0.885
46.2753 0.781
46.3056 0.885
46.3359 0.990
46.3661 1.146
46.3964 1.146
46.4267 0.729
46.4570 1.146
46.4873 0.885
46.5175 1.198
46.5478 0.885
46.5781 0.833
46.6084 1.354
46.6386 1.510
46.6689 1.302
46.6992 1.406
46.7295 0.885
46.7598 1.771
46.7900 1.406
46.8203 1.302
46.8506 1.198
46.8809 1.771
46.9112 1.458
46.9414 1.667
46.9717 1.771
47.0020 1.458
47.0323 1.458
47.0626 2.396
47.0928 2.187
47.1231 1.823
47.1534 2.083
47.1837 3.021
47.2139 3.333
47.2442 2.917
47.2745 3.125
47.3048 3.646
47.3351 3.698
47.3653 5.156
47.3956 4.427
47.4259 4.687
47.4562 4.531
47.4865 4.323
47.5167 3.854
47.5470 4.583
47.5773 4.010
47.6076 3.646
47.6378 2.812
47.6681 2.187
47.6984 3.073
47.7287 2.500
47.7590 2.344
47.7892 1.562
47.8195 1.406
47.8498 1.458
47.8801 1.771
47.9104 1.406
47.9406 1.771
47.9709 1.615
48.0012 1.406
48.0315 1.354
48.0617 1.406
48.0920 1.042
48.1223 1.406
48.1526 1.719
48.1829 1.458
48.2131 1.458
48.2434 0.833
48.2737 1.406
48.3040 1.198
48.3343 1.354
48.3645 0.885
48.3948 1.146
48.4251 1.094
48.4554 1.094
48.4856 1.406
48.5159 1.198
48.5462 0.990
48.5765 1.146
48.6068 0.937
48.6370 0.677
48.6673 1.198
48.6976 0.937
48.7279 0.885
48.7582 1.146
48.7884 0.729
48.8187 0.990
48.8490 1.250
48.8793 0.677
48.9095 1.562
48.9398 1.094
48.9701 1.198
49.0004 0.937
49.0307 0.937
49.0609 1.094
49.0912 0.990
49.1215 0.833
49.1518 0.781
49.1821 0.833
49.2123 1.042
49.2426 0.885
49.2729 1.042
49.3032 0.885
49.3334 0.937
49.3637 0.990
49.3940 1.198
49.4243 0.990
49.4546 0.729
49.4848 1.198
49.5151 0.990
49.5454 1.042
49.5757 1.406
49.6060 0.573
49.6362 1.094
49.6665 0.729
49.6968 0.937
49.7271 1.042
49.7574 0.677
49.7876 0.833
49.8179 0.937
49.8482 1.094
49.8785 0.781
49.9087 1.042
49.9390 0.937
49.9693 0.729
49.9996 0.625
50.0299 1.458
50.0601 1.458
50.0904 1.094
50.1207 1.198
50.1510 0.990
50.1813 0.833
50.2115 1.250
50.2418 0.990
50.2721 1.146
50.3024 1.146
50.3326 0.781
50.3629 1.042
50.3932 1.406
50.4235 1.250
50.4538 0.990
50.4840 0.885
50.5143 0.833
50.5446 0.990
50.5749 0.729
50.6052 1.094
50.6354 1.146
50.6657 1.146
50.6960 0.885
50.7263 0.729
50.7565 0.729
50.7868 0.833
50.8171 0.729
50.8474 0.990
50.8777 1.198
50.9079 1.094
50.9382 1.302
50.9685 0.729
50.9988 1.198
51.0291 1.042
51.0593 0.677
51.0896 0.729
51.1199 0.833
51.1502 0.729
51.1804 0.885
51.2107 0.937
51.2410 1.302
51.2713 1.094
51.3016 0.990
51.3318 0.781
51.3621 1.146
51.3924 1.458
51.4227 0.677
51.4530 0.625
51.4832 0.833
51.5135 0.990
51.5438 0.885
51.5741 0.990
51.6043 0.833
51.6346 0.990
51.6649 0.885
51.6952 1.146
51.7255 1.042
51.7557 0.781
51.7860 1.042
51.8163 1.198
51.8466 0.937
51.8769 1.042
51.9071 0.937
51.9374 0.781
51.9677 0.937
51.9980 1.198
52.0282 0.885
52.0585 0.885
52.0888 1.250
52.1191 0.833
52.1494 0.885
52.1796 0.937
52.2099 1.042
52.2402 1.146
52.2705 0.521
52.3008 0.781
52.3310 0.625
52.3613 1.354
52.3916 0.937
52.4219 1.042
52.4521 0.937
52.4824 1.042
52.5127 1.094
52.5430 1.042
52.5733 0.781
52.6035 1.146
52.6338 0.937
52.6641 0.937
52.6944 0.885
52.7247 0.885
52.7549 1.146
52.7852 1.094
52.8155 0.729
52.8458 1.146
52.8761 0.573
52.9063 1.042
52.9366 0.781
52.9669 0.573
52.9972 1.302
53.0274 0.937
53.0577 1.042
53.0880 0.625
53.1183 1.042
53.1486 1.094
53.1788 1.042
53.2091 1.354
53.2394 0.573
53.2697 0.990
53.3000 1.250
53.3302 0.677
53.3605 1.250
53.3908 0.990
53.4211 1.198
53.4513 0.677
53.4816 0.417
53.5119 1.146
53.5422 1.458
53.5725 1.042
53.6027 0.833
53.6330 0.521
53.6633 0.937
53.6936 0.573
53.7239 0.729
53.7541 1.250
53.7844 0.990
53.8147 0.833
53.8450 0.885
53.8752 0.937
53.9055 0.885
53.9358 0.990
53.9661 1.094
53.9964 0.677
54.0266 1.042
54.0569 0.833
54.0872 1.094
54.1175 1.198
54.1478 0.729
54.1780 0.781
54.2083 0.990
54.2386 0.677
54.2689 0.885
54.2991 0.833
54.3294 0.677
54.3597 0.833
54.3900 0.729
54.4203 1.354
54.4505 0.625
54.4808 0.885
54.5111 1.094
54.5414 0.677
54.5717 0.885
54.6019 0.990
54.6322 0.729
54.6625 0.990
54.6928 0.937
54.7230 0.990
54.7533 0.781
54.7836 1.146
54.8139 1.146
54.8442 0.937
54.8744 1.094
54.9047 0.885
54.9350 1.146
54.9653 0.937
54.9956 0.677
55.0258 0.625
55.0561 1.406
55.0864 0.729
55.1167 1.146
55.1469 1.042
55.1772 1.042
55.2075 1.094
55.2378 0.417
55.2681 1.406
55.2983 0.781
55.3286 1.094
55.3589 0.833
55.3892 0.885
55.4195 1.406
55.4497 1.146
55.4800 1.250
55.5103 1.146
55.5406 0.990
55.5709 1.771
55.6011 1.146
55.6314 1.094
55.6617 1.094
55.6920 0.885
55.7222 1.667
55.7525 1.250
55.7828 0.990
55.8131 1.094
55.8434 1.406
55.8736 1.667
55.9039 1.250
55.9342 1.510
55.9645 1.146
55.9948 1.667
56.0250 1.979
56.0553 1.667
56.0856 1.719
56.1159 2.552
56.1461 1.875
56.1764 2.708
56.2067 2.344
56.2370 3.333
56.2673 3.385
56.2975 3.906
56.3278 4.427
56.3581 4.583
56.3884 5.781
56.4187 6.406
56.4489 6.458
56.4792 5.625
56.5095 5.885
56.5398 6.250
56.5700 5.417
56.6003 5.781
56.6306 5.521
56.6609 4.635
56.6912 3.594
56.7214 2.812
56.7517 2.448
56.7820 2.292
56.8123 2.135
56.8426 2.187
56.8728 2.083
56.9031 1.146
56.9334 2.135
56.9637 1.562
56.9939 1.094
57.0242 1.354
57.0545 1.406
57.0848 1.615
57.1151 1.250
57.1453 1.458
57.1756 0.937
57.2059 0.990
57.2362 1.302
57.2665 0.937
57.2967 1.094
57.3270 0.990
57.3573 1.250
57.3876 0.885
57.4178 1.198
57.4481 1.042
57.4784 0.937
57.5087 0.937
57.5390 1.042
57.5692 1.250
57.5995 0.990
57.6298 1.146
57.6601 1.042
57.6904 0.833
57.7206 0.677
57.7509 0.990
57.7812 0.833
57.8115 0.833
57.8417 0.937
57.8720 0.781
57.9023 0.677
57.9326 0.729
57.9629 0.937
57.9931 1.094
58.0234 0.521
58.0537 0.469
58.0840 0.990
58.1143 0.469
58.1445 0.625
58.1748 0.990
58.2051 1.042
58.2354 0.417
58.2656 1.042
58.2959 0.625
58.3262 1.250
58.3565 1.042
58.3868 0.937
58.4170 0.677
58.4473 0.625
58.4776 0.937
58.5079 0.937
58.5382 0.990
58.5684 0.937
58.5987 0.521
58.6290 0.781
58.6593 0.885
58.6896 1.146
58.7198 0.677
58.7501 0.677
58.7804 0.990
58.8107 0.625
58.8409 0.625
58.8712 0.833
58.9015 0.677
58.9318 0.990
58.9621 0.781
58.9923 0.833
59.0226 0.885
59.0529 0.729
59.0832 0.729
59.1135 1.094
59.1437 1.094
59.1740 0.833
59.2043 1.094
59.2346 0.573
59.2648 0.677
59.2951 0.365
59.3254 0.677
59.3557 0.729
59.3860 0.937
59.4162 0.573
59.4465 0.833
59.4768 0.937
59.5071 0.937
59.5374 0.781
59.5676 0.885
59.5979 0.885
59.6282 0.833
59.6585 0.312
59.6887 0.469
59.7190 0.573
59.7493 0.729
59.7796 1.094
59.8099 1.198
59.8401 0.885
59.8704 0.833
59.9007 0.625
59.9310 0.833
59.9613 0.990
59.9915 0.937
60.0218 0.885
60.0521 0.677
60.0824 0.781
60.1126 0.937
60.1429 0.990
60.1732 0.885
60.2035 1.198
60.2338 0.781
60.2640 0.885
60.2943 0.937
60.3246 0.729
60.3549 0.781
60.3852 0.625
60.4154 1.042
60.4457 0.573
60.4760 0.625
60.5063 0.469
60.5365 0.937
60.5668 0.677
60.5971 0.729
60.6274 0.677
60.6577 0.937
60.6879 0.833
60.7182 0.885
60.7485 0.885
60.7788 0.990
60.8091 0.677
60.8393 0.625
60.8696 0.885
60.8999 0.990
60.9302 0.312
60.9604 0.833
60.9907 0.469
61.0210 0.677
61.0513 0.573
61.0816 0.729
61.1118 0.885
61.1421 0.677
61.1724 0.833
61.2027 0.937
61.2330 0.990
61.2632 0.365
61.2935 0.625
61.3238 0.625
61.3541 0.781
61.3844 1.198
61.4146 0.833
61.4449 0.521
61.4752 0.469
61.5055 0.885
61.5357 1.198
61.5660 1.250
61.5963 1.250
61.6266 1.094
61.6569 0.833
61.6871 0.937
61.7174 0.885
61.7477 0.885
61.7780 0.937
61.8083 0.885
61.8385 0.937
61.8688 0.729
61.8991 0.990
61.9294 0.781
61.9596 0.885
61.9899 0.677
62.0202 0.729
62.0505 1.458
62.0808 1.094
62.1110 1.823
62.1413 1.250
62.1716 1.458
62.2019 1.458
62.2322 1.354
62.2624 1.667
62.2927 1.510
62.3230 1.719
62.3533 1.719
62.3835 2.344
62.4138 2.031
62.4441 1.823
62.4744 2.552
62.5047 2.760
62.5349 3.490
62.5652 3.177
62.5955 3.802
62.6258 4.583
62.6561 5.260
62.6863 4.896
62.7166 5.260
62.7469 5.365
62.7772 4.531
62.8074 4.115
62.8377 4.844
62.8680 3.958
62.8983 3.906
62.9286 3.490
62.9588 3.281
62.9891 3.958
63.0194 2.448
63.0497 3.073
63.0800 2.187
63.1102 2.344
63.1405 2.240
63.1708 1.979
63.2011 1.615
63.2313 1.615
63.2616 1.042
63.2919 1.198
63.3222 1.146
63.3525 0.937
63.3827 1.458
63.4130 1.146
63.4433 1.406
63.4736 0.937
63.5039 0.833
63.5341 0.885
63.5644 1.042
63.5947 1.042
63.6250 0.885
63.6552 0.885
63.6855 1.146
63.7158 0.625
63.7461 0.833
63.7764 1.094
63.8066 0.937
63.8369 0.885
63.8672 0.729
63.8975 0.937
63.9278 0.521
63.9580 0.573
63.9883 1.198
64.0186 0.833
64.0489 1.198
64.0791 0.833
64.1094 0.937
64.1397 0.677
64.1700 0.677
64.2003 0.781
64.2305 1.042
64.2608 0.677
64.2911 0.885
64.3214 0.833
64.3517 0.573
64.3819 0.833
64.4122 0.677
64.4425 0.729
64.4728 0.729
64.5031 0.885
64.5333 0.833
64.5636 0.729
64.5939 0.833
64.6242 1.198
64.6544 0.781
64.6847 0.937
64.7150 0.625
64.7453 1.250
64.7756 0.990
64.8058 0.833
64.8361 0.573
64.8664 0.573
64.8967 0.885
64.9270 0.677
64.9572 0.990
64.9875 0.677
65.0178 0.417
65.0481 0.885
65.0783 0.833
65.1086 0.833
65.1389 0.833
65.1692 0.885
65.1995 1.146
65.2297 1.406
65.2600 0.833
65.2903 0.781
65.3206 0.833
65.3509 0.677
65.3811 0.937
65.4114 0.260
65.4417 0.365
65.4720 1.302
65.5022 0.833
65.5325 0.729
65.5628 0.885
65.5931 0.833
65.6234 0.729
65.6536 0.729
65.6839 0.833
65.7142 0.833
65.7445 0.990
65.7748 0.833
65.8050 0.885
65.8353 1.042
65.8656 1.094
65.8959 0.625
65.9261 0.885
65.9564 0.833
65.9867 0.833
66.0170 1.354
66.0473 1.146
66.0775 1.354
66.1078 1.354
66.1381 1.042
66.1684 1.406
66.1987 0.885
66.2289 1.458
66.2592 1.354
66.2895 1.667
66.3198 1.042
66.3500 0.937
66.3803 1.094
66.4106 1.458
66.4409 1.042
66.4712 0.990
66.5014 1.458
66.5317 1.406
66.5620 0.885
66.5923 0.990
66.6226 0.990
66.6528 0.729
66.6831 0.937
66.7134 0.885
66.7437 0.781
66.7739 0.677
66.8042 0.781
66.8345 0.990
66.8648 0.833
66.8951 0.990
66.9253 0.729
66.9556 1.094
66.9859 0.781
67.0162 1.042
67.0465 0.781
67.0767 1.094
67.1070 1.198
67.1373 0.729
67.1676 1.250
67.1978 1.198
67.2281 1.354
67.2584 1.510
67.2887 1.250
67.3190 1.302
67.3492 0.729
67.3795 1.771
67.4098 1.615
67.4401 1.406
67.4704 1.667
67.5006 2.135
67.5309 1.771
67.5612 1.667
67.5915 2.760
67.6218 2.917
67.6520 2.552
67.6823 2.552
67.7126 3.125
67.7429 3.385
67.7731 2.552
67.8034 3.854
67.8337 3.073
67.8640 3.906
67.8943 3.229
67.9245 3.646
67.9548 2.969
67.9851 2.500
68.0154 2.917
68.0457 2.083
68.0759 2.448
68.1062 2.656
68.1365 2.760
68.1668 1.562
68.1970 1.719
68.2273 1.667
68.2576 1.875
68.2879 1.615
68.3182 1.562
68.3484 1.667
68.3787 1.302
68.4090 1.615
68.4393 1.354
68.4696 1.250
68.4998 1.094
68.5301 1.927
68.5604 1.562
68.5907 1.667
68.6209 1.354
68.6512 1.562
68.6815 1.562
68.7118 1.198
68.7421 1.510
68.7723 1.771
68.8026 1.823
68.8329 1.875
68.8632 1.615
68.8935 1.198
68.9237 1.927
68.9540 2.031
68.9843 2.292
69.0146 1.771
69.0448 1.875
69.0751 1.302
69.1054 1.875
69.1357 2.240
69.1660 1.354
69.1962 1.719
69.2265 1.302
69.2568 1.198
69.2871 1.302
69.3174 1.510
69.3476 1.094
69.3779 0.937
69.4082 1.042
69.4385 0.990
69.4687 1.198
69.4990 0.677
69.5293 1.042
69.5596 0.833
69.5899 0.781
69.6201 0.781
69.6504 0.625
69.6807 0.677
69.7110 0.677
69.7413 1.198
69.7715 0.937
69.8018 0.833
69.8321 0.781
69.8624 0.729
69.8926 0.781
69.9229 0.729
69.9532 0.625
69.9835 0.573
70.0138 0.781
70.0440 0.729
70.0743 0.990
70.1046 0.729
70.1349 1.146
70.1652 0.937
70.1954 0.781
70.2257 0.573
70.2560 0.260
70.2863 0.937
70.3166 0.521
70.3468 1.042
70.3771 0.677
70.4074 0.729
70.4377 0.417
70.4679 0.729
70.4982 0.937
70.5285 0.312
70.5588 0.781
70.5891 0.833
70.6193 0.781
70.6496 0.573
70.6799 0.625
70.7102 0.677
70.7405 0.573
70.7707 0.417
70.8010 0.677
70.8313 0.573
70.8616 0.781
70.8918 0.573
70.9221 0.573
70.9524 0.729
70.9827 0.781
71.0130 0.781
71.0432 0.417
71.0735 0.469
71.1038 0.885
71.1341 0.781
71.1644 0.937
71.1946 0.521
71.2249 0.729
71.2552 0.625
71.2855 0.573
71.3157 0.937
71.3460 0.208
71.3763 0.469
71.4066 0.417
71.4369 0.677
71.4671 0.625
71.4974 0.417
71.5277 0.729
71.5580 0.833
71.5883 0.677
71.6185 0.625
71.6488 0.729
71.6791 0.573
71.7094 0.625
71.7396 0.625
71.7699 0.365
71.8002 0.729
71.8305 0.729
71.8608 0.417
71.8910 0.729
71.9213 0.729
71.9516 0.781
71.9819 0.573
72.0122 0.365
72.0424 0.521
72.0727 0.625
72.1030 0.625
72.1333 0.937
72.1635 0.833
72.1938 0.833
72.2241 0.729
72.2544 0.573
72.2847 0.885
72.3149 0.469
72.3452 0.625
72.3755 0.625
72.4058 0.990
72.4361 0.885
72.4663 1.042
72.4966 0.833
72.5269 0.729
72.5572 0.833
72.5874 0.573
72.6177 0.625
72.6480 0.990
72.6783 0.937
72.7086 0.625
72.7388 0.677
72.7691 0.625
72.7994 0.573
72.8297 0.365
72.8600 0.677
72.8902 0.625
72.9205 0.312
72.9508 0.417
72.9811 0.990
73.0113 0.521
73.0416 0.312
73.0719 0.521
73.1022 0.625
73.1325 0.417
73.1627 0.573
73.1930 0.573
73.2233 0.625
73.2536 0.729
73.2839 0.625
73.3141 0.260
73.3444 0.625
73.3747 0.417
73.4050 0.260
73.4353 0.729
73.4655 0.729
73.4958 0.417
73.5261 0.990
73.5564 0.469
73.5866 0.729
73.6169 0.521
73.6472 0.625
73.6775 0.260
73.7078 0.260
73.7380 0.781
73.7683 0.573
73.7986 0.417
73.8289 0.521
73.8592 0.729
73.8894 0.365
73.9197 0.573
73.9500 0.417
73.9803 0.469
74.0105 0.521
74.0408 0.469
74.0711 0.312
74.1014 0.677
74.1317 0.781
74.1619 0.573
74.1922 0.469
74.2225 0.365
74.2528 0.312
74.2831 0.417
74.3133 0.521
74.3436 0.573
74.3739 0.729
74.4042 0.729
74.4344 0.625
74.4647 0.521
74.4950 0.312
74.5253 0.521
74.5556 0.625
74.5858 0.417
74.6161 0.417
74.6464 0.677
74.6767 0.677
74.7070 0.365
74.7372 0.521
74.7675 0.469
74.7978 0.677
74.8281 0.469
74.8583 0.573
74.8886 0.521
74.9189 0.365
74.9492 0.573
74.9795 0.417
75.0097 0.729
75.0400 0.781
75.0703 0.677
75.1006 0.781
75.1309 0.833
75.1611 0.677
75.1914 0.260
75.2217 0.573
75.2520 0.521
75.2822 0.677
75.3125 0.573
75.3428 0.365
75.3731 0.521
75.4034 0.417
75.4336 0.365
75.4639 0.521
75.4942 0.469
75.5245 0.573
75.5548 0.469
75.5850 0.781
75.6153 0.260
75.6456 0.677
75.6759 0.625
75.7061 0.469
75.7364 0.573
75.7667 0.573
75.7970 0.573
75.8273 0.729
75.8575 0.312
75.8878 0.729
75.9181 0.417
75.9484 0.260
75.9787 0.625
76.0089 0.469
76.0392 0.573
76.0695 0.469
76.0998 0.521
76.1301 0.208
76.1603 0.417
76.1906 0.677
76.2209 0.729
76.2512 0.469
76.2814 0.521
76.3117 0.573
76.3420 0.990
76.3723 0.833
76.4026 0.677
76.4328 0.677
76.4631 0.625
76.4934 0.729
76.5237 0.781
76.5540 0.937
76.5842 0.781
76.6145 0.885
76.6448 0.729
76.6751 0.781
76.7053 0.729
76.7356 0.469
76.7659 0.990
76.7962 1.146
76.8265 1.042
76.8567 0.729
76.8870 1.198
76.9173 1.042
76.9476 0.781
76.9779 0.833
77.0081 0.625
77.0384 0.990
77.0687 0.729
77.0990 0.573
77.1292 0.625
77.1595 0.573
77.1898 0.573
77.2201 0.573
77.2504 0.937
77.2806 0.937
77.3109 0.521
77.3412 0.521
77.3715 0.833
77.4018 0.469
77.4320 0.573
77.4623 0.365
77.4926 0.625
77.5229 0.677
77.5531 0.469
77.5834 0.677
77.6137 0.365
77.6440 0.417
77.6743 0.729
77.7045 0.260
77.7348 0.260
77.7651 0.781
77.7954 0.885
77.8257 0.625
77.8559 0.729
77.8862 0.469
77.9165 0.312
77.9468 0.521
77.9770 0.677
78.0073 0.260
78.0376 0.625
78.0679 0.677
78.0982 0.729
78.1284 0.885
78.1587 0.573
78.1890 0.573
78.2193 0.521
78.2496 0.521
78.2798 0.521
78.3101 0.312
78.3404 0.729
78.3707 0.625
78.4009 0.677
78.4312 0.260
78.4615 0.573
78.4918 0.573
78.5221 0.729
78.5523 0.885
78.5826 0.365
78.6129 0.417
78.6432 0.469
78.6735 0.781
78.7037 0.573
78.7340 0.521
78.7643 0.312
78.7946 0.469
78.8248 0.573
78.8551 0.469
78.8854 0.625
78.9157 0.677
78.9460 0.208
78.9762 0.677
79.0065 0.990
79.0368 0.312
79.0671 0.625
79.0974 0.260
79.1276 0.625
79.1579 0.729
79.1882 0.521
79.2185 0.573
79.2488 0.729
79.2790 0.469
79.3093 0.573
79.3396 0.573
79.3699 0.677
79.4001 0.573
79.4304 0.521
79.4607 0.573
79.4910 0.729
79.5213 0.625
79.5515 0.625
79.5818 0.833
79.6121 0.729
79.6424 0.573
79.6727 0.625
79.7029 0.417
79.7332 0.833
79.7635 0.312
79.7938 0.417
79.8240 0.729
79.8543 0.990
79.8846 0.729
79.9149 0.677
79.9452 0.417
79.9754 0.417
80.0057 0.729
80.0360 0.312
80.0663 0.625
80.0966 0.521
80.1268 0.469
80.1571 0.469
80.1874 0.781
80.2177 0.729
80.2479 0.625
80.2782 0.521
80.3085 0.469
80.3388 0.729
80.3691 0.312
80.3993 0.521
80.4296 0.625
80.4599 0.677
80.4902 0.417
80.5205 0.573
80.5507 0.469
80.5810 0.521
80.6113 0.312
80.6416 0.469
80.6718 0.365
80.7021 0.521
80.7324 0.521
80.7627 0.729
80.7930 0.469
80.8232 0.625
80.8535 0.625
80.8838 0.729
80.9141 0.677
80.9444 0.729
80.9746 0.469
81.0049 0.521
81.0352 0.573
81.0655 0.677
81.0957 0.417
81.1260 0.573
81.1563 0.625
81.1866 0.417
81.2169 0.729
81.2471 0.885
81.2774 0.573
81.3077 0.417
81.3380 0.625
81.3683 0.990
81.3985 0.833
81.4288 0.625
81.4591 0.365
81.4894 0.417
81.5196 0.833
81.5499 0.521
81.5802 0.937
81.6105 0.521
81.6408 0.885
81.6710 0.885
81.7013 0.990
81.7316 0.469
81.7619 0.625
81.7922 0.625
81.8224 0.260
81.8527 0.365
81.8830 0.729
81.9133 0.469
81.9436 0.729
81.9738 0.625
82.0041 0.833
82.0344 0.729
82.0647 0.521
82.0949 0.573
82.1252 0.885
82.1555 0.521
82.1858 0.417
82.2161 0.417
82.2463 0.365
82.2766 0.729
82.3069 0.573
82.3372 0.260
82.3675 0.365
82.3977 0.573
82.4280 0.625
82.4583 0.469
82.4886 0.937
82.5188 0.417
82.5491 0.937
82.5794 0.625
82.6097 0.417
82.6400 0.417
82.6702 0.365
82.7005 0.729
82.7308 0.677
82.7611 0.573
82.7914 0.781
82.8216 0.833
82.8519 0.625
82.8822 0.885
82.9125 0.729
82.9427 0.729
82.9730 0.573
83.0033 0.521
83.0336 0.417
83.0639 0.365
83.0941 0.677
83.1244 0.469
83.1547 0.729
83.1850 0.469
83.2153 0.677
83.2455 0.677
83.2758 0.521
83.3061 0.573
83.3364 0.417
83.3666 0.208
83.3969 0.729
83.4272 0.417
83.4575 0.729
83.4878 0.677
83.5180 0.625
83.5483 0.573
83.5786 0.365
83.6089 0.729
83.6392 0.625
83.6694 0.573
83.6997 0.573
83.7300 0.729
83.7603 0.521
83.7905 0.677
83.8208 1.250
83.8511 0.677
83.8814 0.469
83.9117 0.521
83.9419 0.312
83.9722 0.365
84.0025 0.365
84.0328 0.469
84.0631 0.625
84.0933 0.469
84.1236 0.417
84.1539 0.625
84.1842 0.469
84.2144 0.729
84.2447 0.260
84.2750 0.833
84.3053 0.417
84.3356 0.469
84.3658 0.573
84.3961 0.625
84.4264 0.417
84.4567 0.677
84.4870 0.677
84.5172 0.885
84.5475 0.469
84.5778 0.417
84.6081 0.260
84.6383 0.729
84.6686 0.781
84.6989 0.677
84.7292 0.469
84.7595 0.260
84.7897 0.469
84.8200 0.677
84.8503 0.469
84.8806 0.573
84.9109 0.625
84.9411 0.625
84.9714 0.469
85.0017 0.729
85.0320 0.417
85.0623 0.573
85.0925 0.312
85.1228 0.521
85.1531 0.781
85.1834 0.365
85.2136 0.573
85.2439 0.521
85.2742 0.677
85.3045 0.365
85.3348 0.677
85.3650 0.521
85.3953 0.417
85.4256 0.521
85.4559 0.260
85.4862 0.260
85.5164 0.729
85.5467 0.729
85.5770 0.781
85.6073 0.677
85.6375 0.469
85.6678 0.365
85.6981 0.521
85.7284 0.521
85.7587 0.260
85.7889 0.573
85.8192 0.417
85.8495 0.729
85.8798 0.781
85.9101 0.573
85.9403 0.312
85.9706 0.573
86.0009 0.417
86.0312 0.417
86.0614 0.625
86.0917 0.417
86.1220 0.729
86.1523 0.625
86.1826 0.573
86.2128 0.781
86.2431 0.573
86.2734 0.417
86.3037 0.573
86.3340 0.521
86.3642 0.521
86.3945 0.521
86.4248 0.260
86.4551 0.625
86.4853 0.417
86.5156 0.469
86.5459 0.312
86.5762 0.729
86.6065 0.469
86.6367 0.260
86.6670 0.729
86.6973 0.729
86.7276 0.260
86.7579 0.469
86.7881 0.573
86.8184 0.573
86.8487 0.625
86.8790 0.469
86.9092 0.312
86.9395 0.625
86.9698 0.573
87.0001 0.417
87.0304 0.729
87.0606 0.573
87.0909 0.729
87.1212 0.521
87.1515 0.729
87.1818 0.469
87.2120 0.417
87.2423 0.052
87.2726 0.260
87.3029 0.573
87.3331 0.156
87.3634 0.365
87.3937 0.521
87.4240 0.365
87.4543 0.625
87.4845 0.156
87.5148 0.573
87.5451 0.365
87.5754 0.521
87.6057 0.365
87.6359 0.521
87.6662 0.469
87.6965 0.573
87.7268 0.521
87.7571 0.573
87.7873 0.625
87.8176 0.781
87.8479 0.833
87.8782 0.573
87.9084 0.573
87.9387 0.729
87.9690 0.417
87.9993 0.260
88.0296 0.781
88.0598 0.469
88.0901 0.417
88.1204 0.573
88.1507 0.521
88.1810 0.729
88.2112 0.677
88.2415 0.729
88.2718 0.677
88.3021 0.573
88.3323 0.469
88.3626 0.625
88.3929 0.521
88.4232 0.885
88.4535 0.469
88.4837 0.521
88.5140 0.573
88.5443 0.469
88.5746 0.312
88.6049 0.573
88.6351 0.729
88.6654 0.312
88.6957 0.833
88.7260 0.625
88.7562 0.573
88.7865 0.937
88.8168 0.677
88.8471 0.469
88.8774 0.990
88.9076 0.677
88.9379 0.729
88.9682 0.469
88.9985 0.677
89.0288 0.885
89.0590 0.417
89.0893 0.521
89.1196 0.833
89.1499 0.573
89.1801 1.042
89.2104 0.521
89.2407 0.677
89.2710 0.469
89.3013 1.042
89.3315 1.562
89.3618 1.250
89.3921 0.937
89.4224 1.615
89.4527 1.042
89.4829 0.729
89.5132 1.094
89.5435 1.354
89.5738 1.354
89.6040 1.510
89.6343 1.198
89.6646 1.042
89.6949 1.146
89.7252 1.146
89.7554 1.406
89.7857 0.729
89.8160 1.094
89.8463 0.729
89.8766 1.042
89.9068 0.677
89.9371 0.573
89.9674 0.677
89.9977 0.573
90.0279 0.833
90.0582 0.677
90.0885 0.365
90.1188 0.990
90.1491 0.937
90.1793 0.677
90.2096 0.365
90.2399 0.729
90.2702 1.042
90.3005 0.573
90.3307 0.573
90.3610 0.677
90.3913 0.417
90.4216 0.625
90.4518 0.521
90.4821 0.312
90.5124 0.625
90.5427 0.677
90.5730 0.729
90.6032 0.677
90.6335 0.625
90.6638 0.417
90.6941 0.833
90.7244 0.625
90.7546 0.625
90.7849 0.365
90.8152 0.573
90.8455 0.417
90.8758 0.365
90.9060 0.573
90.9363 0.260
90.9666 0.781
90.9969 0.729
91.0271 0.625
91.0574 0.677
91.0877 0.469
91.1180 0.365
91.1483 0.729
91.1785 0.625
91.2088 0.521
91.2391 0.833
91.2694 0.573
91.2997 0.417
91.3299 0.573
91.3602 0.885
91.3905 0.365
91.4208 0.677
91.4510 0.469
91.4813 0.417
91.5116 1.094
91.5419 0.469
91.5722 0.781
91.6024 0.365
91.6327 0.417
91.6630 0.417
91.6933 0.625
91.7236 0.625
91.7538 0.677
91.7841 0.573
91.8144 0.365
91.8447 0.365
91.8749 0.417
91.9052 0.573
91.9355 0.729
91.9658 0.781
91.9961 0.469
92.0263 0.625
92.0566 0.625
92.0869 0.677
92.1172 0.937
92.1475 0.469
92.1777 0.365
92.2080 0.521
92.2383 0.729
92.2686 0.729
92.2988 0.781
92.3291 0.417
92.3594 0.990
92.3897 0.469
92.4200 0.521
92.4502 0.521
92.4805 1.042
92.5108 0.625
92.5411 0.729
92.5714 0.573
92.6016 0.729
92.6319 0.625
92.6622 0.417
92.6925 0.625
92.7227 0.885
92.7530 0.729
92.7833 0.781
92.8136 0.625
92.8439 0.521
92.8741 0.573
92.9044 0.729
92.9347 0.521
92.9650 0.729
92.9953 0.573
93.0255 0.729
93.0558 0.573
93.0861 0.469
93.1164 0.990
93.1466 0.625
93.1769 0.833
93.2072 0.573
93.2375 0.937
93.2678 0.781
93.2980 0.208
93.3283 0.990
93.3586 0.781
93.3889 0.729
93.4192 0.625
93.4494 0.365
93.4797 0.729
93.5100 0.365
93.5403 0.417
93.5706 0.469
93.6008 0.521
93.6311 0.729
93.6614 0.521
93.6917 0.677
93.7219 0.365
93.7522 0.677
93.7825 0.833
93.8128 0.625
93.8431 0.729
93.8733 0.573
93.9036 0.573
93.9339 0.521
93.9642 0.573
93.9945 0.469
94.0247 0.573
94.0550 0.729
94.0853 0.781
94.1156 0.729
94.1458 0.521
94.1761 0.729
94.2064 0.625
94.2367 0.781
94.2670 0.573
94.2972 0.677
94.3275 0.469
94.3578 0.625
94.3881 0.469
94.4184 0.625
94.4486 0.521
94.4789 0.469
94.5092 0.781
94.5395 0.365
94.5697 0.625
94.6000 0.417
94.6303 0.781
94.6606 1.094
94.6909 0.521
94.7211 0.729
94.7514 0.781
94.7817 0.625
94.8120 1.042
94.8423 1.250
94.8725 0.833
94.9028 0.885
94.9331 0.937
94.9634 0.990
94.9936 1.354
95.0239 1.042
95.0542 1.250
95.0845 1.250
95.1148 1.250
95.1450 0.885
95.1753 1.094
95.2056 1.250
95.2359 0.729
95.2662 1.198
95.2964 0.729
95.3267 0.833
95.3570 0.937
95.3873 0.781
95.4175 1.094
95.4478 0.990
95.4781 0.729
95.5084 0.937
95.5387 0.937
95.5689 1.146
95.5992 0.885
95.6295 0.729
95.6598 0.937
95.6901 0.625
95.7203 0.573
95.7506 0.312
95.7809 0.625
95.8112 1.094
95.8414 0.312
95.8717 0.937
95.9020 0.365
95.9323 0.729
95.9626 0.729
95.9928 0.521
96.0231 0.729
96.0534 0.781
96.0837 1.042
96.1140 0.677
96.1442 0.729
96.1745 0.312
96.2048 0.729
96.2351 0.990
96.2653 0.469
96.2956 0.469
96.3259 0.677
96.3562 0.521
96.3865 0.833
96.4167 0.521
96.4470 0.781
96.4773 0.417
96.5076 0.677
96.5379 0.521
96.5681 0.729
96.5984 0.573
96.6287 0.312
96.6590 0.677
96.6893 0.469
96.7195 0.729
96.7498 0.677
96.7801 0.677
96.8104 0.625
96.8406 0.729
96.8709 0.729
96.9012 0.729
96.9315 0.729
96.9618 1.042
96.9920 0.469
97.0223 0.677
97.0526 0.625
97.0829 0.469
97.1132 0.469
97.1434 0.677
97.1737 0.937
97.2040 0.573
97.2343 0.417
97.2645 0.521
97.2948 0.729
97.3251 0.885
97.3554 0.781
97.3857 0.521
97.4159 0.625
97.4462 0.833
97.4765 0.365
97.5068 0.781
97.5371 0.937
97.5673 0.573
97.5976 0.417
97.6279 0.729
97.6582 0.677
97.6884 0.469
97.7187 0.729
97.7490 0.833
97.7793 0.729
97.8096 0.365
97.8398 0.781
97.8701 0.573
97.9004 0.573
97.9307 0.521
97.9610 0.260
97.9912 0.469
98.0215 0.521
98.0518 0.833
98.0821 0.573
98.1123 0.729
98.1426 0.573
98.1729 0.729
98.2032 0.833
98.2335 0.729
98.2637 0.781
98.2940 0.937
98.3243 0.885
98.3546 0.885
98.3849 0.833
98.4151 0.573
98.4454 1.198
98.4757 0.781
98.5060 0.990
98.5362 0.781
98.5665 0.833
98.5968 0.781
98.6271 0.781
98.6574 0.833
98.6876 0.781
98.7179 0.573
98.7482 0.729
98.7785 0.677
98.8088 1.198
98.8390 0.521
98.8693 0.521
98.8996 0.937
98.9299 0.885
98.9601 1.094
98.9904 0.781
99.0207 0.521
99.0510 0.781
99.0813 0.729
99.1115 0.677
99.1418 0.469
99.1721 0.469
99.2024 0.625
99.2327 0.417
99.2629 0.469
99.2932 0.781
99.3235 0.677
99.3538 0.521
99.3841 0.469
99.4143 0.781
99.4446 0.677
99.4749 0.781
99.5052 0.417
99.5354 0.625
99.5657 0.677
99.5960 0.469
99.6263 0.417
99.6566 0.573
99.6868 0.469
99.7171 0.781
99.7474 0.729
99.7777 0.677
99.8080 0.417
99.8382 0.573
99.8685 0.677
99.8988 0.417
99.9291 0.573
99.9593 0.469
99.9896 0.469
100.0199 0.521
100.0502 0.677
100.0805 0.573
100.1107 0.521
100.1410 0.469
100.1713 0.312
100.2016 0.573
100.2319 0.365
100.2621 0.781
100.2924 0.625
100.3227 0.417
100.3530 1.042
100.3832 0.625
100.4135 0.469
100.4438 0.469
100.4741 0.729
100.5044 0.729
100.5346 0.677
100.5649 0.521
100.5952 0.677
100.6255 0.937
100.6558 0.781
100.6860 0.729
100.7163 0.417
100.7466 0.312
100.7769 0.781
100.8071 0.729
100.8374 0.469
100.8677 0.677
100.8980 0.573
100.9283 0.260
100.9585 0.625
100.9888 0.729
101.0191 0.365
101.0494 0.417
101.0797 0.781
101.1099 0.885
101.1402 0.729
101.1705 0.729
101.2008 0.417
101.2310 0.469
101.2613 0.573
101.2916 0.625
101.3219 1.146
101.3522 0.729
101.3824 0.990
101.4127 0.677
101.4430 0.781
101.4733 0.677
101.5036 0.573
101.5338 0.885
101.5641 0.417
101.5944 0.625
101.6247 0.781
101.6549 0.937
101.6852 0.885
101.7155 0.521
101.7458 0.781
101.7761 0.573
101.8063 0.573
101.8366 0.885
101.8669 0.625
101.8972 0.625
101.9275 0.417
101.9577 0.625
101.9880 0.573
102.0183 0.677
102.0486 0.312
102.0788 0.885
102.1091 0.521
102.1394 0.885
102.1697 0.260
102.2000 0.781
102.2302 0.417
102.2605 0.781
102.2908 1.198
102.3211 0.990
102.3514 0.521
102.3816 0.729
102.4119 0.781
102.4422 0.781
102.4725 0.729
102.5028 0.781
102.5330 0.365
102.5633 0.729
102.5936 0.365
102.6239 0.885
102.6541 0.573
102.6844 0.833
102.7147 0.729
102.7450 1.458
102.7753 0.990
102.8055 0.260
102.8358 0.833
102.8661 0.937
102.8964 1.146
102.9267 1.250
102.9569 0.729
102.9872 0.573
103.0175 0.781
103.0478 0.937
103.0780 0.990
103.1083 0.937
103.1386 0.781
103.1689 0.729
103.1992 1.250
103.2294 0.729
103.2597 0.833
103.2900 0.833
103.3203 1.042
103.3506 0.781
103.3808 0.833
103.4111 1.042
103.4414 0.833
103.4717 0.729
103.5019 0.937
103.5322 0.729
103.5625 1.042
103.5928 0.677
103.6231 1.198
103.6533 0.625
103.6836 0.417
103.7139 0.729
103.7442 0.937
103.7745 1.146
103.8047 0.729
103.8350 0.677
103.8653 1.667
103.8956 1.302
103.9258 0.781
103.9561 1.042
103.9864 1.250
104.0167 1.250
104.0470 0.937
104.0772 1.198
104.1075 0.885
104.1378 1.094
104.1681 1.094
104.1984 1.094
104.2286 0.885
104.2589 0.990
104.2892 0.677
104.3195 1.302
104.3497 0.937
104.3800 0.990
104.4103 0.885
104.4406 1.146
104.4709 0.573
104.5011 1.354
104.5314 0.729
104.5617 0.260
104.5920 0.833
104.6223 1.042
104.6525 0.885
104.6828 0.885
104.7131 0.937
104.7434 0.833
104.7736 0.937
104.8039 0.781
104.8342 1.094
104.8645 0.833
104.8948 0.990
104.9250 0.781
104.9553 0.937
104.9856 0.937
105.0159 1.250
105.0462 0.417
105.0764 0.573
105.1067 0.729
105.1370 0.885
105.1673 1.146
105.1975 0.417
105.2278 0.469
105.2581 0.417
105.2884 0.833
105.3187 0.521
105.3489 0.781
105.3792 0.521
105.4095 0.833
105.4398 0.781
105.4701 0.260
105.5003 0.365
105.5306 0.625
105.5609 0.573
105.5912 0.833
105.6215 0.521
105.6517 0.677
105.6820 0.833
105.7123 0.521
105.7426 0.573
105.7728 0.677
105.8031 0.729
105.8334 0.677
105.8637 0.312
105.8940 0.469
105.9242 0.885
105.9545 0.573
105.9848 0.469
106.0151 0.781
106.0454 0.937
106.0756 0.312
106.1059 0.833
106.1362 0.885
106.1665 1.042
106.1967 0.990
106.2270 0.417
106.2573 0.677
106.2876 0.885
106.3179 0.781
106.3481 0.469
106.3784 0.573
106.4087 0.625
106.4390 0.365
106.4693 0.625
106.4995 0.469
106.5298 0.833
106.5601 0.729
106.5904 0.885
106.6206 0.417
106.6509 0.365
106.6812 0.677
106.7115 0.833
106.7418 0.312
106.7720 0.885
106.8023 0.365
106.8326 0.833
106.8629 0.573
106.8932 0.312
106.9234 0.937
106.9537 0.573
106.9840 0.312
107.0143 1.094
107.0445 0.469
107.0748 0.990
107.1051 0.677
107.1354 0.417
107.1657 0.417
107.1959 0.885
107.2262 0.885
107.2565 0.729
107.2868 0.677
107.3171 0.781
107.3473 0.677
107.3776 0.885
107.4079 0.885
107.4382 0.885
107.4684 0.521
107.4987 1.146
107.5290 0.573
107.5593 0.885
107.5896 0.573
107.6198 0.833
107.6501 0.729
107.6804 0.781
107.7107 0.469
107.7410 0.469
107.7712 0.833
107.8015 0.573
107.8318 0.990
107.8621 0.417
107.8923 0.312
107.9226 0.677
107.9529 0.469
107.9832 0.833
108.0135 0.885
108.0437 0.781
108.0740 0.625
108.1043 0.417
108.1346 0.833
108.1649 0.833
108.1951 0.677
108.2254 0.312
108.2557 0.573
108.2860 0.469
108.3163 0.677
108.3465 0.469
108.3768 0.521
108.4071 0.833
108.4374 0.677
108.4676 0.521
108.4979 0.833
108.5282 0.677
108.5585 0.625
108.5888 0.937
108.6190 0.521
108.6493 0.573
108.6796 0.781
108.7099 0.677
108.7402 0.781
108.7704 0.625
108.8007 0.677
108.8310 0.625
108.8613 0.521
108.8915 0.573
108.9218 0.937
108.9521 0.677
108.9824 0.365
109.0127 0.990
109.0429 0.521
109.0732 0.469
109.1035 0.885
109.1338 0.885
109.1641 0.365
109.1943 0.833
109.2246 0.573
109.2549 0.521
109.2852 0.833
109.3154 0.833
109.3457 0.417
109.3760 0.521
109.4063 0.729
109.4366 0.781
109.4668 0.677
109.4971 0.781
109.5274 0.885
109.5577 0.573
109.5880 0.885
109.6182 0.417
109.6485 0.833
109.6788 0.885
109.7091 0.417
109.7393 0.677
109.7696 0.573
109.7999 0.677
109.8302 0.677
109.8605 0.833
109.8907 0.573
109.9210 0.677
109.9513 0.781
109.9816 0.677
110.0119 0.937
110.0421 0.990
110.0724 0.677
110.1027 0.833
110.1330 0.885
110.1632 0.781
110.1935 0.677
110.2238 1.146
110.2541 0.990
110.2844 0.677
110.3146 0.677
110.3449 0.677
110.3752 1.094
110.4055 1.094
110.4358 1.042
110.4660 0.937
110.4963 0.729
110.5266 1.094
110.5569 0.625
110.5871 0.781
110.6174 0.781
110.6477 0.729
110.6780 0.573
110.7083 0.469
110.7385 0.573
110.7688 0.625
110.7991 0.625
110.8294 0.521
110.8597 0.833
110.8899 0.521
110.9202 0.990
110.9505 0.990
110.9808 1.042
111.0110 0.625
111.0413 0.677
111.0716 0.521
111.1019 1.042
111.1322 0.885
111.1624 0.573
111.1927 0.781
111.2230 0.781
111.2533 0.885
111.2836 0.260
111.3138 0.521
111.3441 0.260
111.3744 0.781
111.4047 0.417
111.4350 0.417
111.4652 0.573
111.4955 0.677
111.5258 0.625
111.5561 0.417
111.5863 0.833
111.6166 0.573
111.6469 0.625
111.6772 0.885
111.7075 0.677
111.7377 0.729
111.7680 0.781
111.7983 0.312
111.8286 0.781
111.8589 0.312
111.8891 0.729
111.9194 0.469
111.9497 0.625
111.9800 0.625
112.0102 0.937
112.0405 0.729
112.0708 0.677
112.1011 0.469
112.1314 0.625
112.1616 0.521
112.1919 0.573
112.2222 0.990
112.2525 0.833
112.2828 0.365
112.3130 0.625
112.3433 0.573
112.3736 0.469
112.4039 0.729
112.4341 0.469
112.4644 0.677
112.4947 0.365
112.5250 0.677
112.5553 0.312
112.5855 0.469
112.6158 0.469
112.6461 0.521
112.6764 0.573
112.7067 1.094
112.7369 0.521
112.7672 0.937
112.7975 0.469
112.8278 0.990
112.8580 0.990
112.8883 0.729
112.9186 0.885
112.9489 0.573
112.9792 0.677
113.0094 0.365
113.0397 0.937
113.0700 0.885
113.1003 0.573
113.1306 0.677
113.1608 0.625
113.1911 0.677
113.2214 0.417
113.2517 0.729
113.2819 0.365
113.3122 0.573
113.3425 0.573
113.3728 0.937
113.4031 0.521
113.4333 0.937
113.4636 0.573
113.4939 0.521
113.5242 0.625
113.5545 0.781
113.5847 0.573
113.6150 0.677
113.6453 0.781
113.6756 0.625
113.7058 0.417
113.7361 0.469
113.7664 0.417
113.7967 0.729
113.8270 0.729
113.8572 0.937
113.8875 0.677
113.9178 0.521
113.9481 0.833
113.9784 0.625
114.0086 0.365
114.0389 0.625
114.0692 0.677
114.0995 0.729
114.1298 0.990
114.1600 0.469
114.1903 0.729
114.2206 0.469
114.2509 0.885
114.2811 0.729
114.3114 0.729
114.3417 0.781
114.3720 0.573
114.4023 0.365
114.4325 0.885
114.4628 1.094
114.4931 0.677
114.5234 0.937
114.5537 0.885
114.5839 1.042
114.6142 0.729
114.6445 0.833
114.6748 0.729
114.7050 0.521
114.7353 0.417
114.7656 0.781
114.7959 0.521
114.8262 1.094
114.8564 0.469
114.8867 0.885
114.9170 0.469
114.9473 1.094
114.9776 0.573
115.0078 0.937
115.0381 0.885
115.0684 0.677
115.0987 0.677
115.1289 0.625
115.1592 1.094
115.1895 0.573
115.2198 0.677
115.2501 0.729
115.2803 0.573
115.3106 1.042
115.3409 0.833
115.3712 0.937
115.4015 0.990
115.4317 0.781
115.4620 0.573
115.4923 0.885
115.5226 1.146
115.5528 0.833
115.5831 0.677
115.6134 0.677
115.6437 0.729
115.6740 0.729
115.7042 0.885
115.7345 0.833
115.7648 1.146
115.7951 1.146
115.8254 0.417
115.8556 1.146
115.8859 0.833
115.9162 1.146
115.9465 0.990
115.9767 0.885
116.0070 1.302
116.0373 1.042
116.0676 0.781
116.0979 1.771
116.1281 1.146
116.1584 1.302
116.1887 0.990
116.2190 1.250
116.2493 1.146
116.2795 0.885
116.3098 1.094
116.3401 0.937
116.3704 1.198
116.4006 1.146
116.4309 1.302
116.4612 0.781
116.4915 0.885
116.5218 1.146
116.5520 0.625
116.5823 1.198
116.6126 0.833
116.6429 0.833
116.6732 1.250
116.7034 1.146
116.7337 0.990
116.7640 0.573
116.7943 0.833
116.8245 1.198
116.8548 0.833
116.8851 1.198
116.9154 0.885
116.9457 1.042
116.9759 0.677
117.0062 0.937
117.0365 0.469
117.0668 0.781
117.0971 0.625
117.1273 0.729
117.1576 0.729
117.1879 0.833
117.2182 0.729
117.2485 0.729
117.2787 0.625
117.3090 0.781
117.3393 0.833
117.3696 1.094
117.3998 1.042
117.4301 0.573
117.4604 0.312
117.4907 0.990
117.5210 1.198
117.5512 0.937
117.5815 0.677
117.6118 0.469
117.6421 0.781
117.6724 0.625
117.7026 0.833
117.7329 0.781
117.7632 0.885
117.7935 0.573
117.8237 0.521
117.8540 0.833
117.8843 0.469
117.9146 0.885
117.9449 0.990
117.9751 0.573
118.0054 0.625
118.0357 0.781
118.0660 0.521
118.0963 0.885
118.1265 1.094
118.1568 0.625
118.1871 0.729
118.2174 0.990
118.2476 0.365
118.2779 0.521
118.3082 0.677
118.3385 0.833
118.3688 1.042
118.3990 0.573
118.4293 0.781
118.4596 0.677
118.4899 0.677
118.5202 1.094
118.5504 0.417
118.5807 0.729
118.6110 0.781
118.6413 0.885
118.6715 0.521
118.7018 0.677
118.7321 0.469
118.7624 0.625
118.7927 0.833
118.8229 0.729
118.8532 0.521
118.8835 0.573
118.9138 0.417
118.9441 0.417
118.9743 1.094
119.0046 0.677
119.0349 0.573
119.0652 0.781
119.0954 0.677
119.1257 0.521
119.1560 0.625
119.1863 0.729
119.2166 0.677
119.2468 0.625
119.2771 0.625
119.3074 0.573
119.3377 0.573
119.3680 1.146
119.3982 0.469
119.4285 0.521
119.4588 0.729
119.4891 0.677
119.5193 0.625
119.5496 0.990
119.5799 0.625
119.6102 0.677
119.6405 0.625
119.6707 0.260
119.7010 0.937
119.7313 0.625
119.7616 0.677
119.7919 0.417
119.8221 1.198
119.8524 0.677
119.8827 0.573
119.9130 0.729
119.9433 0.677
119.9735 0.833
120.0038 0.937
