'Id: "" Comment: "" Operator: "Lab Manager" Anode: "Cu" Scantype: "Locked Coupled" TimePerStep: "19.2" X: "9999" Y: "9999" Z: "9999" 
10.0015 3.385
10.0318 3.542
10.0620 4.427
10.0923 4.844
10.1226 4.635
10.1529 3.594
10.1832 4.115
10.2134 3.490
10.2437 4.271
10.2740 4.062
10.3043 3.229
10.3346 4.375
10.3648 4.219
10.3951 4.583
10.4254 3.802
10.4557 3.542
10.4859 5.260
10.5162 3.229
10.5465 2.969
10.5768 4.323
10.6071 3.802
10.6373 3.958
10.6676 3.437
10.6979 4.219
10.7282 3.646
10.7585 4.583
10.7887 3.750
10.8190 4.271
10.8493 3.437
10.8796 3.542
10.9098 3.958
10.9401 3.385
10.9704 3.646
11.0007 4.375
11.0310 3.073
11.0612 3.333
11.0915 4.844
11.1218 3.906
11.1521 3.854
11.1824 4.375
11.2126 3.333
11.2429 4.375
11.2732 4.427
11.3035 3.906
11.3337 3.958
11.3640 3.646
11.3943 4.062
11.4246 4.115
11.4549 4.010
11.4851 4.167
11.5154 4.271
11.5457 3.906
11.5760 3.646
11.6063 2.760
11.6365 3.490
11.6668 3.490
11.6971 3.437
11.7274 3.125
11.7577 3.542
11.7879 3.073
11.8182 3.594
11.8485 4.323
11.8788 3.333
11.9090 3.698
11.9393 3.854
11.9696 3.958
11.9999 4.167
12.0302 4.271
12.0604 4.115
12.0907 2.708
12.1210 3.750
12.1513 3.802
12.1816 3.177
12.2118 3.490
12.2421 3.750
12.2724 3.698
12.3027 4.531
12.3329 3.802
12.3632 3.073
12.3935 3.281
12.4238 3.646
12.4541 3.125
12.4843 3.021
12.5146 3.333
12.5449 3.229
12.5752 4.010
12.6055 3.542
12.6357 3.594
12.6660 3.750
12.6963 4.115
12.7266 3.906
12.7568 3.542
12.7871 3.281
12.8174 3.854
12.8477 3.646
12.8780 3.385
12.9082 3.854
12.9385 2.812
12.9688 4.323
12.9991 3.125
13.0294 3.125
13.0596 4.010
13.0899 2.552
13.1202 3.385
13.1505 2.865
13.1807 4.583
13.2110 3.385
13.2413 3.490
13.2716 2.344
13.3019 3.437
13.3321 3.125
13.3624 3.125
13.3927 2.917
13.4230 2.708
13.4533 2.292
13.4835 3.437
13.5138 3.385
13.5441 3.021
13.5744 2.656
13.6046 3.385
13.6349 2.760
13.6652 3.281
13.6955 3.021
13.7258 3.437
13.7560 3.021
13.7863 2.812
13.8166 3.437
13.8469 3.646
13.8772 3.333
13.9074 3.385
13.9377 2.656
13.9680 2.812
13.9983 3.490
14.0285 2.969
14.0588 3.281
14.0891 2.812
14.1194 3.698
14.1497 3.125
14.1799 3.854
14.2102 1.979
14.2405 2.448
14.2708 3.229
14.3011 2.760
14.3313 3.437
14.3616 3.333
14.3919 3.125
14.4222 2.812
14.4524 3.281
14.4827 3.542
14.5130 4.010
14.5433 3.594
14.5736 3.750
14.6038 2.917
14.6341 3.021
14.6644 3.021
14.6947 2.865
14.7250 2.552
14.7552 2.292
14.7855 3.490
14.8158 3.177
14.8461 2.917
14.8764 2.552
14.9066 3.281
14.9369 3.646
14.9672 3.021
14.9975 2.552
15.0277 2.552
15.0580 3.021
15.0883 2.604
15.1186 2.969
15.1489 3.177
15.1791 2.708
15.2094 2.396
15.2397 2.708
15.2700 3.854
15.3003 2.500
15.3305 2.865
15.3608 2.604
15.3911 3.125
15.4214 3.229
15.4516 2.552
15.4819 2.865
15.5122 3.229
15.5425 3.021
15.5728 3.437
15.6030 2.500
15.6333 2.500
15.6636 3.802
15.6939 3.073
15.7242 3.125
15.7544 2.187
15.7847 2.448
15.8150 2.917
15.8453 2.396
15.8755 2.656
15.9058 3.229
15.9361 2.708
15.9664 2.656
15.9967 2.708
16.0269 3.229
16.0572 2.708
16.0875 2.760
16.1178 2.865
16.1481 2.760
16.1783 3.490
16.2086 2.187
16.2389 2.500
16.2692 2.760
16.2994 2.760
16.3297 2.760
16.3600 3.281
16.3903 2.812
16.4206 2.552
16.4508 2.604
16.4811 3.229
16.5114 1.615
16.5417 2.552
16.5720 2.812
16.6022 2.292
16.6325 3.281
16.6628 2.917
16.6931 2.448
16.7233 2.760
16.7536 2.292
16.7839 3.594
16.8142 2.865
16.8445 2.969
16.8747 2.865
16.9050 3.229
16.9353 3.177
16.9656 2.344
16.9959 2.917
17.0261 2.917
17.0564 3.333
17.0867 3.073
17.1170 2.708
17.1472 2.031
17.1775 2.865
17.2078 3.021
17.2381 2.708
17.2684 3.542
17.2986 2.708
17.3289 2.812
17.3592 2.604
17.3895 2.240
17.4198 2.240
17.4500 2.656
17.4803 2.708
17.5106 3.281
17.5409 2.969
17.5712 2.708
17.6014 2.500
17.6317 3.177
17.6620 2.812
17.6923 2.969
17.7225 3.490
17.7528 2.865
17.7831 1.667
17.8134 2.917
17.8437 2.865
17.8739 3.021
17.9042 2.760
17.9345 2.656
17.9648 1.927
17.9951 3.073
18.0253 2.708
18.0556 2.500
18.0859 2.552
18.1162 1.927
18.1464 2.500
18.1767 2.187
18.2070 2.708
18.2373 3.073
18.2676 2.187
18.2978 2.760
18.3281 3.385
18.3584 2.604
18.3887 2.448
18.4190 2.917
18.4492 2.812
18.4795 2.760
18.5098 2.552
18.5401 2.917
18.5703 3.125
18.6006 2.552
18.6309 2.552
18.6612 3.125
18.6915 2.187
18.7217 2.135
18.7520 2.344
18.7823 3.073
18.8126 2.969
18.8429 2.500
18.8731 2.292
18.9034 3.437
18.9337 2.292
18.9640 2.708
18.9942 2.292
19.0245 2.448
19.0548 2.552
19.0851 2.917
19.1154 2.344
19.1456 2.708
19.1759 3.125
19.2062 2.917
19.2365 2.240
19.2668 2.240
19.2970 2.865
19.3273 2.604
19.3576 2.292
19.3879 1.979
19.4181 3.073
19.4484 2.865
19.4787 2.135
19.5090 2.187
19.5393 2.344
19.5695 2.708
19.5998 2.187
19.6301 2.083
19.6604 2.344
19.6907 2.396
19.7209 2.187
19.7512 3.125
19.7815 3.125
19.8118 2.552
19.8420 2.969
19.8723 2.448
19.9026 1.979
19.9329 1.875
19.9632 2.031
19.9934 2.396
20.0237 2.240
20.0540 3.437
20.0843 1.875
20.1146 2.708
20.1448 2.396
20.1751 2.031
20.2054 2.135
20.2357 2.083
20.2659 2.448
20.2962 2.656
20.3265 2.604
20.3568 2.187
20.3871 2.083
20.4173 2.135
20.4476 2.344
20.4779 2.865
20.5082 2.656
20.5385 3.281
20.5687 2.240
20.5990 2.708
20.6293 2.969
20.6596 2.135
20.6899 2.604
20.7201 1.771
20.7504 3.542
20.7807 3.021
20.8110 2.396
20.8412 2.292
20.8715 2.604
20.9018 1.823
20.9321 2.812
20.9624 4.167
20.9926 2.604
21.0229 3.229
21.0532 1.979
21.0835 1.823
21.1138 1.615
21.1440 2.083
21.1743 1.771
21.2046 2.708
21.2349 2.187
21.2651 1.823
21.2954 1.875
21.3257 2.656
21.3560 2.135
21.3863 1.771
21.4165 2.031
21.4468 3.646
21.4771 2.031
21.5074 2.760
21.5377 2.500
21.5679 2.292
21.5982 2.292
21.6285 2.500
21.6588 2.708
21.6890 2.500
21.7193 2.917
21.7496 2.812
21.7799 2.187
21.8102 1.823
21.8404 2.292
21.8707 2.917
21.9010 2.135
21.9313 1.927
21.9616 1.302
21.9918 1.927
22.0221 2.500
22.0524 2.552
22.0827 2.344
22.1129 2.344
22.1432 2.604
22.1735 3.021
22.2038 1.875
22.2341 2.656
22.2643 2.292
22.2946 2.031
22.3249 1.823
22.3552 2.500
22.3855 1.771
22.4157 2.552
22.4460 1.823
22.4763 2.344
22.5066 2.240
22.5368 2.292
22.5671 2.448
22.5974 2.240
22.6277 2.187
22.6580 2.656
22.6882 1.146
22.7185 1.979
22.7488 2.187
22.7791 2.448
22.8094 2.240
22.8396 1.927
22.8699 2.344
22.9002 2.187
22.9305 2.240
22.9607 2.292
22.9910 2.552
23.0213 2.656
23.0516 2.604
23.0819 2.604
23.1121 2.187
23.1424 1.927
23.1727 2.292
23.2030 2.344
23.2333 2.396
23.2635 1.510
23.2938 2.187
23.3241 1.771
23.3544 2.500
23.3846 1.823
23.4149 1.771
23.4452 2.865
23.4755 1.979
23.5058 2.344
23.5360 2.187
23.5663 2.552
23.5966 2.292
23.6269 2.448
23.6572 1.667
23.6874 2.240
23.7177 2.344
23.7480 2.500
23.7783 2.760
23.8086 1.719
23.8388 2.240
23.8691 2.083
23.8994 2.396
23.9297 2.344
23.9599 2.187
23.9902 2.344
24.0205 2.396
24.0508 1.771
24.0811 1.927
24.1113 2.708
24.1416 2.448
24.1719 2.500
24.2022 1.667
24.2325 2.448
24.2627 2.760
24.2930 2.292
24.3233 1.927
24.3536 2.604
24.3838 1.823
24.4141 2.656
24.4444 2.187
24.4747 2.187
24.5050 2.344
24.5352 2.396
24.5655 2.500
24.5958 2.552
24.6261 2.292
24.6564 2.656
24.6866 2.083
24.7169 2.135
24.7472 2.031
24.7775 2.604
24.8077 2.396
24.8380 2.135
24.8683 1.979
24.8986 2.344
24.9289 1.771
24.9591 2.500
24.9894 2.240
25.0197 2.031
25.0500 2.135
25.0803 1.615
25.1105 2.083
25.1408 2.083
25.1711 2.448
25.2014 1.875
25.2316 3.021
25.2619 2.969
25.2922 2.240
25.3225 2.604
25.3528 2.187
25.3830 1.979
25.4133 2.604
25.4436 2.083
25.4739 2.656
25.5042 1.823
25.5344 2.344
25.5647 2.292
25.5950 1.823
25.6253 2.448
25.6555 2.812
25.6858 2.240
25.7161 2.448
25.7464 1.927
25.7767 2.604
25.8069 2.292
25.8372 2.292
25.8675 2.396
25.8978 1.979
25.9281 2.552
25.9583 2.448
25.9886 2.083
26.0189 2.604
26.0492 2.708
26.0794 1.823
26.1097 2.656
26.1400 2.187
26.1703 2.656
26.2006 2.760
26.2308 1.875
26.2611 2.500
26.2914 2.031
26.3217 2.760
26.3520 1.823
26.3822 2.031
26.4125 2.760
26.4428 2.656
26.4731 2.708
26.5034 1.875
26.5336 1.719
26.5639 2.135
26.5942 2.240
26.6245 2.396
26.6547 1.771
26.6850 2.552
26.7153 2.552
26.7456 2.135
26.7759 1.875
26.8061 1.823
26.8364 2.083
26.8667 1.979
26.8970 3.177
26.9273 2.187
26.9575 1.875
26.9878 2.135
27.0181 1.823
27.0484 2.344
27.0786 2.604
27.1089 2.344
27.1392 2.604
27.1695 2.552
27.1998 2.708
27.2300 2.031
27.2603 2.396
27.2906 3.125
27.3209 2.969
27.3512 2.760
27.3814 1.719
27.4117 2.708
27.4420 2.031
27.4723 2.396
27.5025 2.187
27.5328 2.135
27.5631 1.979
27.5934 2.396
27.6237 1.771
27.6539 2.604
27.6842 1.719
27.7145 2.500
27.7448 2.396
27.7751 2.552
27.8053 2.396
27.8356 2.708
27.8659 2.500
27.8962 2.344
27.9264 2.344
27.9567 2.448
27.9870 2.812
28.0173 2.396
28.0476 2.917
28.0778 2.604
28.1081 2.969
28.1384 3.177
28.1687 2.604
28.1990 1.771
28.2292 2.500
28.2595 2.500
28.2898 1.979
28.3201 2.448
28.3503 2.292
28.3806 2.552
28.4109 2.760
28.4412 2.812
28.4715 1.875
28.5017 2.708
28.5320 2.083
28.5623 3.021
28.5926 1.927
28.6229 2.292
28.6531 2.344
28.6834 2.604
28.7137 2.969
28.7440 2.708
28.7742 2.240
28.8045 2.708
28.8348 2.812
28.8651 2.865
28.8954 2.500
28.9256 2.396
28.9559 1.979
28.9862 2.187
29.0165 2.344
29.0468 2.969
29.0770 2.396
29.1073 2.500
29.1376 2.344
29.1679 2.708
29.1981 2.917
29.2284 2.344
29.2587 2.604
29.2890 2.865
29.3193 3.073
29.3495 2.396
29.3798 2.604
29.4101 2.292
29.4404 3.229
29.4707 2.552
29.5009 3.854
29.5312 2.812
29.5615 3.177
29.5918 3.021
29.6221 2.812
29.6523 2.917
29.6826 2.552
29.7129 2.865
29.7432 2.500
29.7734 3.125
29.8037 3.229
29.8340 3.021
29.8643 2.656
29.8946 3.125
29.9248 3.125
29.9551 3.177
29.9854 2.760
30.0157 2.604
30.0460 2.396
30.0762 2.760
30.1065 3.229
30.1368 2.917
30.1671 3.646
30.1973 3.021
30.2276 3.125
30.2579 4.167
30.2882 3.698
30.3185 3.437
30.3487 3.646
30.3790 3.437
30.4093 3.802
30.4396 3.802
30.4699 3.854
30.5001 3.646
30.5304 4.271
30.5607 3.698
30.5910 4.375
30.6212 3.854
30.6515 4.427
30.6818 4.740
30.7121 5.208
30.7424 4.583
30.7726 5.469
30.8029 4.844
30.8332 5.729
30.8635 5.365
30.8938 5.521
30.9240 6.042
30.9543 5.885
30.9846 5.833
31.0149 6.927
31.0451 7.969
31.0754 7.135
31.1057 8.177
31.1360 8.125
31.1663 8.698
31.1965 10.104
31.2268 10.312
31.2571 12.552
31.2874 12.760
31.3177 13.490
31.3479 16.146
31.3782 18.542
31.4085 21.250
31.4388 20.573
31.4690 26.146
31.4993 28.802
31.5296 34.740
31.5599 33.594
31.5902 40.729
31.6204 43.490
31.6507 41.302
31.6810 38.854
31.7113 35.365
31.7416 33.281
31.7718 25.677
31.8021 25.885
31.8324 22.344
31.8627 18.698
31.8929 17.708
31.9232 14.219
31.9535 12.552
31.9838 12.240
32.0141 12.135
32.0443 10.104
32.0746 8.542
32.1049 8.854
32.1352 8.385
32.1655 7.031
32.1957 7.344
32.2260 6.875
32.2563 5.781
32.2866 6.250
32.3169 6.615
32.3471 5.833
32.3774 5.156
32.4077 4.687
32.4380 4.115
32.4682 5.729
32.4985 6.198
32.5288 5.469
32.5591 4.687
32.5894 3.750
32.6196 5.625
32.6499 3.906
32.6802 4.427
32.7105 4.219
32.7408 4.427
32.7710 4.062
32.8013 3.542
32.8316 4.323
32.8619 4.115
32.8921 3.802
32.9224 3.906
32.9527 3.698
32.9830 3.906
33.0133 5.000
33.0435 4.062
33.0738 3.385
33.1041 3.958
33.1344 4.271
33.1647 4.948
33.1949 4.219
33.2252 4.740
33.2555 4.427
33.2858 4.010
33.3160 5.208
33.3463 4.531
33.3766 3.958
33.4069 3.906
33.4372 4.635
33.4674 4.635
33.4977 4.115
33.5280 4.531
33.5583 4.844
33.5886 5.052
33.6188 4.479
33.6491 4.948
33.6794 4.635
33.7097 4.583
33.7399 4.948
33.7702 6.146
33.8005 6.302
33.8308 6.198
33.8611 6.979
33.8913 7.292
33.9216 7.708
33.9519 8.021
33.9822 10.365
34.0125 9.531
34.0427 9.948
34.0730 13.490
34.1033 15.573
34.1336 18.594
34.1638 24.375
34.1941 33.698
34.2244 43.750
34.2547 54.062
34.2850 56.146
34.3152 50.625
34.3455 45.417
34.3758 41.979
34.4061 30.729
34.4364 25.104
34.4666 18.490
34.4969 14.844
34.5272 13.385
34.5575 11.510
34.5877 11.510
34.6180 10.000
34.6483 9.375
34.6786 8.698
34.7089 7.865
34.7391 6.719
34.7694 6.250
34.7997 6.042
34.8300 5.990
34.8603 6.771
34.8905 6.146
34.9208 5.885
34.9511 5.312
34.9814 4.792
35.0116 5.312
35.0419 5.208
35.0722 5.104
35.1025 5.573
35.1328 5.573
35.1630 5.677
35.1933 6.198
35.2236 5.573
35.2539 6.875
35.2842 6.927
35.3144 6.510
35.3447 6.510
35.3750 6.979
35.4053 6.979
35.4356 7.135
35.4658 7.344
35.4961 8.125
35.5264 7.865
35.5567 9.896
35.5869 10.365
35.6172 9.740
35.6475 12.969
35.6778 12.812
35.7081 14.740
35.7383 14.010
35.7686 14.531
35.7989 18.646
35.8292 20.104
35.8595 23.229
35.8897 26.562
35.9200 27.031
35.9503 35.469
35.9806 39.687
36.0108 43.698
36.0411 50.208
36.0714 53.542
36.1017 56.771
36.1320 57.812
36.1622 55.104
36.1925 54.583
36.2228 48.958
36.2531 42.760
36.2834 39.479
36.3136 33.229
36.3439 30.000
36.3742 25.208
36.4045 19.479
36.4347 19.479
36.4650 15.573
36.4953 16.354
36.5256 13.333
36.5559 10.521
36.5861 11.406
36.6164 9.479
36.6467 8.490
36.6770 7.656
36.7073 8.906
36.7375 6.771
36.7678 6.719
36.7981 7.552
36.8284 6.094
36.8586 7.344
36.8889 4.115
36.9192 5.208
36.9495 5.000
36.9798 5.000
37.0100 4.948
37.0403 4.844
37.0706 4.427
37.1009 4.323
37.1312 4.375
37.1614 4.271
37.1917 4.323
37.2220 3.229
37.2523 2.969
37.2825 3.594
37.3128 4.167
37.3431 3.490
37.3734 2.917
37.4037 2.812
37.4339 3.437
37.4642 3.073
37.4945 3.177
37.5248 3.490
37.5551 2.552
37.5853 2.969
37.6156 3.385
37.6459 3.177
37.6762 2.552
37.7064 2.969
37.7367 3.385
37.7670 2.969
37.7973 2.865
37.8276 3.490
37.8578 2.604
37.8881 2.917
37.9184 2.135
37.9487 2.083
37.9790 2.240
38.0092 2.760
38.0395 2.708
38.0698 2.604
38.1001 2.552
38.1304 1.875
38.1606 2.865
38.1909 2.344
38.2212 2.448
38.2515 2.448
38.2817 2.448
38.3120 2.552
38.3423 2.135
38.3726 1.771
38.4029 2.344
38.4331 2.604
38.4634 2.812
38.4937 2.604
38.5240 1.927
38.5543 2.552
38.5845 2.448
38.6148 1.979
38.6451 1.927
38.6754 2.552
38.7056 1.979
38.7359 1.406
38.7662 2.031
38.7965 2.031
38.8268 2.344
38.8570 1.771
38.8873 1.771
38.9176 2.292
38.9479 1.979
38.9782 1.823
39.0084 1.146
39.0387 2.187
39.0690 2.500
39.0993 1.927
39.1295 1.510
39.1598 1.823
39.1901 2.187
39.2204 2.240
39.2507 2.344
39.2809 1.979
39.3112 2.240
39.3415 1.875
39.3718 1.615
39.4021 1.719
39.4323 2.135
39.4626 2.031
39.4929 2.396
39.5232 1.510
39.5534 2.292
39.5837 1.875
39.6140 1.562
39.6443 1.510
39.6746 1.615
39.7048 1.771
39.7351 2.031
39.7654 1.562
39.7957 1.875
39.8260 1.406
39.8562 1.146
39.8865 1.354
39.9168 1.510
39.9471 2.083
39.9773 1.823
40.0076 1.771
40.0379 1.562
40.0682 1.510
40.0985 1.823
40.1287 1.927
40.1590 1.823
40.1893 1.719
40.2196 1.615
40.2499 2.187
40.2801 1.875
40.3104 1.615
40.3407 2.031
40.3710 1.458
40.4012 1.823
40.4315 1.823
40.4618 1.875
40.4921 1.719
40.5224 2.031
40.5526 1.510
40.5829 1.823
40.6132 1.406
40.6435 2.500
40.6738 1.823
40.7040 1.875
40.7343 1.875
40.7646 1.823
40.7949 1.510
40.8251 1.562
40.8554 1.875
40.8857 2.083
40.9160 1.510
40.9463 2.031
40.9765 1.302
41.0068 1.094
41.0371 1.615
41.0674 1.354
41.0977 1.875
41.1279 1.406
41.1582 1.927
41.1885 1.510
41.2188 1.250
41.2491 1.875
41.2793 1.823
41.3096 1.458
41.3399 1.146
41.3702 2.396
41.4004 1.354
41.4307 1.354
41.4610 1.406
41.4913 1.146
41.5216 1.719
41.5518 2.083
41.5821 1.875
41.6124 1.667
41.6427 1.615
41.6730 1.667
41.7032 1.510
41.7335 1.562
41.7638 2.083
41.7941 1.667
41.8243 1.458
41.8546 1.302
41.8849 2.240
41.9152 1.250
41.9455 1.458
41.9757 1.458
42.0060 1.615
42.0363 1.979
42.0666 1.615
42.0969 1.458
42.1271 1.823
42.1574 1.354
42.1877 1.927
42.2180 2.135
42.2482 1.823
42.2785 1.510
42.3088 1.562
42.3391 1.719
42.3694 1.615
42.3996 1.667
42.4299 2.240
42.4602 1.615
42.4905 1.875
42.5208 1.458
42.5510 1.458
42.5813 1.510
42.6116 1.875
42.6419 1.354
42.6721 1.250
42.7024 1.875
42.7327 1.406
42.7630 1.667
42.7933 1.771
42.8235 1.979
42.8538 1.771
42.8841 1.875
42.9144 2.187
42.9447 1.510
42.9749 1.458
43.0052 1.667
43.0355 1.667
43.0658 1.667
43.0960 1.510
43.1263 1.250
43.1566 1.562
43.1869 1.198
43.2172 1.615
43.2474 1.823
43.2777 1.094
43.3080 1.302
43.3383 1.406
43.3686 1.927
43.3988 1.979
43.4291 1.615
43.4594 1.562
43.4897 1.458
43.5199 2.240
43.5502 1.354
43.5805 1.667
43.6108 1.562
43.6411 1.406
43.6713 1.406
43.7016 1.458
43.7319 1.510
43.7622 1.354
43.7925 1.562
43.8227 1.562
43.8530 1.302
43.8833 1.562
43.9136 1.510
43.9439 1.562
43.9741 1.615
44.0044 1.823
44.0347 1.823
44.0650 1.562
44.0952 1.458
44.1255 1.771
44.1558 1.354
44.1861 1.875
44.2164 1.615
44.2466 1.615
44.2769 2.240
44.3072 1.875
44.3375 1.354
44.3678 1.510
44.3980 1.615
44.4283 1.094
44.4586 1.823
44.4889 2.344
44.5191 1.406
44.5494 1.146
44.5797 1.667
44.6100 1.771
44.6403 1.615
44.6705 1.458
44.7008 1.719
44.7311 1.719
44.7614 1.406
44.7917 1.615
44.8219 1.771
44.8522 2.031
44.8825 1.771
44.9128 1.771
44.9430 1.146
44.9733 1.927
45.0036 1.562
45.0339 1.667
45.0642 1.823
45.0944 1.562
45.1247 1.823
45.1550 2.187
45.1853 1.510
45.2156 1.719
45.2458 1.354
45.2761 1.615
45.3064 1.406
45.3367 1.719
45.3669 1.667
45.3972 2.083
45.4275 1.302
45.4578 0.990
45.4881 1.875
45.5183 1.771
45.5486 1.771
45.5789 1.354
45.6092 2.187
45.6395 1.198
45.6697 1.615
45.7000 1.823
45.7303 1.458
45.7606 1.771
45.7908 2.344
45.8211 2.187
45.8514 1.667
45.8817 1.823
45.9120 1.771
45.9422 2.552
45.9725 1.979
46.0028 2.292
46.0331 1.667
46.0634 1.458
46.0936 2.240
46.1239 1.979
46.1542 2.344
46.1845 2.240
46.2147 2.344
46.2450 1.771
46.2753 1.719
46.3056 2.135
46.3359 2.552
46.3661 2.292
46.3964 1.667
46.4267 2.187
46.4570 2.187
46.4873 1.875
46.5175 2.500
46.5478 2.135
46.5781 2.604
46.6084 1.927
46.6386 2.656
46.6689 3.229
46.6992 2.396
46.7295 2.917
46.7598 2.708
46.7900 2.500
46.8203 3.021
46.8506 2.500
46.8809 2.917
46.9112 2.865
46.9414 3.490
46.9717 3.490
47.0020 3.437
47.0323 3.437
47.0626 4.531
47.0928 5.208
47.1231 5.312
47.1534 6.302
47.1837 7.292
47.2139 6.354
47.2442 8.021
47.2745 9.479
47.3048 10.208
47.3351 10.052
47.3653 12.812
47.3956 12.187
47.4259 12.083
47.4562 11.823
47.4865 9.375
47.5167 11.094
47.5470 10.417
47.5773 8.542
47.6076 7.760
47.6378 5.729
47.6681 5.937
47.6984 5.781
47.7287 5.000
47.7590 4.740
47.7892 4.531
47.8195 4.271
47.8498 3.333
47.8801 3.437
47.9104 3.542
47.9406 3.073
47.9709 2.865
48.0012 2.969
48.0315 2.552
48.0617 1.979
48.0920 3.281
48.1223 2.500
48.1526 2.344
48.1829 2.396
48.2131 2.344
48.2434 2.500
48.2737 1.510
48.3040 2.292
48.3343 2.187
48.3645 2.292
48.3948 2.396
48.4251 2.396
48.4554 1.979
48.4856 1.667
48.5159 1.927
48.5462 1.615
48.5765 1.875
48.6068 2.083
48.6370 1.667
48.6673 1.562
48.6976 1.615
48.7279 1.458
48.7582 1.875
48.7884 1.875
48.8187 1.458
48.8490 1.771
48.8793 2.031
48.9095 1.615
48.9398 1.719
48.9701 1.615
49.0004 1.510
49.0307 1.562
49.0609 1.927
49.0912 2.031
49.1215 2.135
49.1518 2.292
49.1821 1.406
49.2123 1.458
49.2426 1.458
49.2729 1.406
49.3032 1.927
49.3334 1.406
49.3637 1.615
49.3940 1.719
49.4243 1.458
49.4546 1.458
49.4848 1.875
49.5151 1.562
49.5454 2.187
49.5757 1.250
49.6060 1.302
49.6362 1.562
49.6665 1.458
49.6968 1.719
49.7271 1.615
49.7574 1.302
49.7876 1.510
49.8179 1.562
49.8482 1.302
49.8785 1.927
49.9087 1.458
49.9390 1.354
49.9693 0.990
49.9996 1.979
50.0299 2.083
50.0601 1.667
50.0904 1.042
50.1207 1.771
50.1510 1.667
50.1813 1.771
50.2115 1.823
50.2418 2.344
50.2721 1.354
50.3024 2.240
50.3326 1.562
50.3629 1.667
50.3932 2.031
50.4235 1.510
50.4538 1.771
50.4840 1.510
50.5143 1.094
50.5446 1.875
50.5749 1.615
50.6052 1.927
50.6354 1.719
50.6657 1.250
50.6960 1.771
50.7263 1.667
50.7565 1.250
50.7868 2.083
50.8171 1.771
50.8474 1.667
50.8777 1.510
50.9079 1.302
50.9382 1.667
50.9685 1.667
50.9988 1.302
51.0291 1.458
51.0593 1.875
51.0896 1.510
51.1199 1.927
51.1502 1.458
51.1804 1.667
51.2107 1.719
51.2410 0.885
51.2713 1.094
51.3016 1.927
51.3318 1.198
51.3621 1.510
51.3924 1.875
51.4227 1.198
51.4530 1.719
51.4832 1.667
51.5135 1.771
51.5438 1.406
51.5741 1.667
51.6043 1.510
51.6346 1.562
51.6649 1.510
51.6952 0.781
51.7255 0.937
51.7557 1.615
51.7860 0.990
51.8163 1.719
51.8466 1.458
51.8769 1.927
51.9071 1.406
51.9374 1.146
51.9677 1.510
51.9980 1.406
52.0282 1.146
52.0585 1.719
52.0888 1.823
52.1191 1.146
52.1494 1.406
52.1796 1.406
52.2099 1.354
52.2402 1.667
52.2705 1.354
52.3008 1.354
52.3310 1.667
52.3613 1.510
52.3916 1.250
52.4219 1.615
52.4521 1.719
52.4824 1.198
52.5127 1.406
52.5430 1.458
52.5733 1.146
52.6035 1.146
52.6338 1.146
52.6641 1.458
52.6944 1.146
52.7247 1.406
52.7549 1.615
52.7852 1.198
52.8155 1.927
52.8458 1.302
52.8761 1.458
52.9063 1.406
52.9366 0.677
52.9669 1.198
52.9972 1.719
53.0274 1.354
53.0577 1.406
53.0880 1.094
53.1183 1.354
53.1486 1.406
53.1788 1.562
53.2091 1.562
53.2394 1.562
53.2697 1.094
53.3000 1.667
53.3302 0.937
53.3605 1.354
53.3908 1.667
53.4211 1.719
53.4513 1.406
53.4816 1.510
53.5119 1.510
53.5422 1.615
53.5725 1.302
53.6027 1.562
53.6330 1.302
53.6633 1.979
53.6936 1.823
53.7239 1.510
53.7541 1.354
53.7844 1.823
53.8147 1.302
53.8450 1.458
53.8752 1.562
53.9055 1.250
53.9358 1.615
53.9661 1.562
53.9964 1.562
54.0266 1.875
54.0569 1.719
54.0872 1.875
54.1175 1.823
54.1478 1.198
54.1780 1.562
54.2083 2.187
54.2386 1.302
54.2689 1.667
54.2991 1.354
54.3294 1.354
54.3597 1.146
54.3900 1.302
54.4203 1.510
54.4505 1.510
54.4808 1.771
54.5111 1.667
54.5414 1.823
54.5717 1.719
54.6019 1.042
54.6322 1.146
54.6625 1.510
54.6928 1.875
54.7230 1.250
54.7533 1.615
54.7836 1.198
54.8139 1.354
54.8442 1.875
54.8744 1.667
54.9047 1.406
54.9350 1.771
54.9653 1.667
54.9956 1.927
55.0258 1.615
55.0561 2.604
55.0864 1.667
55.1167 1.719
55.1469 1.562
55.1772 1.823
55.2075 1.250
55.2378 1.667
55.2681 1.823
55.2983 1.250
55.3286 1.458
55.3589 2.344
55.3892 1.875
55.4195 2.135
55.4497 2.292
55.4800 1.927
55.5103 1.719
55.5406 1.875
55.5709 2.552
55.6011 2.292
55.6314 2.292
55.6617 2.240
55.6920 2.604
55.7222 2.240
55.7525 2.812
55.7828 2.760
55.8131 3.333
55.8434 2.396
55.8736 3.750
55.9039 3.333
55.9342 3.698
55.9645 3.021
55.9948 3.698
56.0250 3.958
56.0553 5.208
56.0856 5.417
56.1159 5.625
56.1461 6.302
56.1764 6.979
56.2067 6.510
56.2370 8.646
56.2673 8.906
56.2975 9.792
56.3278 10.573
56.3581 11.146
56.3884 12.135
56.4187 13.437
56.4489 14.896
56.4792 12.187
56.5095 13.385
56.5398 11.146
56.5700 11.615
56.6003 11.406
56.6306 10.625
56.6609 9.010
56.6912 8.698
56.7214 7.604
56.7517 7.344
56.7820 6.250
56.8123 6.042
56.8426 5.937
56.8728 4.948
56.9031 3.802
56.9334 4.219
56.9637 3.281
56.9939 3.646
57.0242 3.333
57.0545 3.229
57.0848 2.552
57.1151 2.917
57.1453 2.656
57.1756 2.396
57.2059 2.604
57.2362 2.135
57.2665 2.083
57.2967 2.396
57.3270 1.771
57.3573 2.812
57.3876 2.448
57.4178 1.927
57.4481 1.823
57.4784 1.927
57.5087 2.031
57.5390 1.927
57.5692 2.240
57.5995 2.083
57.6298 1.562
57.6601 1.823
57.6904 2.240
57.7206 2.344
57.7509 1.823
57.7812 2.448
57.8115 1.719
57.8417 1.615
57.8720 1.302
57.9023 1.250
57.9326 1.667
57.9629 1.615
57.9931 1.615
58.0234 1.667
58.0537 2.031
58.0840 1.979
58.1143 1.198
58.1445 1.667
58.1748 2.135
58.2051 1.458
58.2354 1.406
58.2656 1.406
58.2959 1.510
58.3262 1.875
58.3565 1.771
58.3868 1.510
58.4170 1.510
58.4473 1.979
58.4776 1.198
58.5079 1.354
58.5382 1.458
58.5684 1.615
58.5987 1.198
58.6290 1.250
58.6593 1.562
58.6896 1.406
58.7198 1.771
58.7501 1.875
58.7804 1.823
58.8107 1.354
58.8409 1.615
58.8712 1.719
58.9015 1.146
58.9318 2.031
58.9621 1.406
58.9923 1.302
59.0226 1.510
59.0529 1.510
59.0832 1.250
59.1135 1.562
59.1437 1.458
59.1740 1.667
59.2043 1.562
59.2346 1.302
59.2648 1.927
59.2951 1.615
59.3254 1.615
59.3557 0.990
59.3860 1.146
59.4162 1.354
59.4465 1.667
59.4768 1.979
59.5071 1.302
59.5374 1.458
59.5676 1.406
59.5979 1.927
59.6282 1.458
59.6585 1.146
59.6887 1.146
59.7190 1.771
59.7493 1.406
59.7796 1.250
59.8099 1.146
59.8401 1.354
59.8704 1.667
59.9007 1.615
59.9310 1.354
59.9613 1.823
59.9915 1.198
60.0218 1.354
60.0521 1.667
60.0824 1.250
60.1126 1.146
60.1429 1.719
60.1732 1.510
60.2035 1.510
60.2338 0.937
60.2640 1.615
60.2943 1.927
60.3246 1.615
60.3549 1.562
60.3852 1.562
60.4154 1.406
60.4457 1.510
60.4760 1.510
60.5063 1.302
60.5365 1.510
60.5668 1.823
60.5971 1.562
60.6274 1.719
60.6577 1.302
60.6879 1.927
60.7182 1.615
60.7485 1.250
60.7788 1.927
60.8091 1.667
60.8393 1.615
60.8696 1.458
60.8999 1.458
60.9302 1.562
60.9604 1.615
60.9907 1.146
61.0210 1.458
61.0513 1.406
61.0816 1.719
61.1118 1.406
61.1421 2.031
61.1724 1.927
61.2027 1.719
61.2330 1.667
61.2632 1.354
61.2935 1.823
61.3238 1.302
61.3541 1.615
61.3844 1.667
61.4146 1.406
61.4449 1.875
61.4752 1.458
61.5055 1.927
61.5357 2.240
61.5660 2.083
61.5963 1.667
61.6266 1.042
61.6569 2.083
61.6871 1.927
61.7174 2.135
61.7477 1.979
61.7780 2.396
61.8083 1.615
61.8385 2.031
61.8688 2.552
61.8991 1.875
61.9294 1.667
61.9596 2.344
61.9899 2.448
62.0202 2.656
62.0505 1.979
62.0808 1.927
62.1110 3.490
62.1413 3.333
62.1716 3.594
62.2019 2.760
62.2322 2.917
62.2624 3.073
62.2927 4.427
62.3230 3.906
62.3533 5.052
62.3835 4.583
62.4138 5.156
62.4441 5.365
62.4744 6.354
62.5047 7.917
62.5349 8.021
62.5652 7.969
62.5955 9.740
62.6258 10.104
62.6561 11.354
62.6863 12.552
62.7166 12.448
62.7469 11.667
62.7772 12.135
62.8074 14.062
62.8377 11.406
62.8680 11.458
62.8983 8.073
62.9286 9.167
62.9588 8.802
62.9891 6.979
63.0194 6.042
63.0497 5.365
63.0800 5.312
63.1102 4.531
63.1405 4.323
63.1708 4.115
63.2011 3.229
63.2313 3.437
63.2616 2.917
63.2919 3.073
63.3222 3.021
63.3525 2.083
63.3827 2.917
63.4130 2.396
63.4433 2.344
63.4736 1.771
63.5039 2.031
63.5341 2.552
63.5644 1.823
63.5947 1.979
63.6250 1.823
63.6552 1.250
63.6855 2.240
63.7158 2.240
63.7461 1.823
63.7764 1.927
63.8066 2.552
63.8369 2.135
63.8672 2.031
63.8975 2.135
63.9278 1.719
63.9580 1.667
63.9883 1.615
64.0186 1.719
64.0489 0.990
64.0791 1.875
64.1094 1.719
64.1397 1.458
64.1700 1.667
64.2003 1.875
64.2305 2.031
64.2608 1.406
64.2911 1.094
64.3214 1.354
64.3517 1.094
64.3819 1.719
64.4122 1.979
64.4425 1.562
64.4728 1.510
64.5031 1.198
64.5333 1.615
64.5636 1.354
64.5939 2.135
64.6242 1.927
64.6544 1.615
64.6847 1.667
64.7150 1.406
64.7453 1.354
64.7756 1.250
64.8058 1.927
64.8361 1.719
64.8664 1.250
64.8967 1.458
64.9270 1.562
64.9572 1.719
64.9875 1.146
65.0178 1.354
65.0481 1.354
65.0783 1.510
65.1086 1.198
65.1389 1.667
65.1692 1.719
65.1995 1.823
65.2297 1.406
65.2600 1.458
65.2903 1.354
65.3206 1.979
65.3509 1.562
65.3811 1.510
65.4114 1.667
65.4417 1.094
65.4720 1.510
65.5022 1.771
65.5325 1.927
65.5628 2.031
65.5931 1.719
65.6234 1.510
65.6536 1.354
65.6839 1.927
65.7142 1.667
65.7445 1.875
65.7748 1.875
65.8050 1.927
65.8353 2.448
65.8656 1.510
65.8959 1.875
65.9261 2.396
65.9564 2.187
65.9867 1.771
66.0170 1.875
66.0473 2.500
66.0775 2.396
66.1078 2.500
66.1381 2.865
66.1684 2.708
66.1987 2.240
66.2289 2.760
66.2592 2.917
66.2895 2.656
66.3198 2.448
66.3500 2.396
66.3803 2.812
66.4106 2.865
66.4409 2.969
66.4712 3.073
66.5014 2.292
66.5317 2.812
66.5620 2.344
66.5923 1.875
66.6226 2.344
66.6528 1.771
66.6831 2.240
66.7134 2.396
66.7437 1.979
66.7739 2.344
66.8042 2.292
66.8345 1.875
66.8648 2.031
66.8951 1.823
66.9253 2.135
66.9556 1.927
66.9859 1.875
67.0162 2.240
67.0465 2.396
67.0767 2.135
67.1070 2.083
67.1373 1.875
67.1676 2.760
67.1978 1.927
67.2281 2.552
67.2584 2.240
67.2887 2.396
67.3190 3.177
67.3492 2.604
67.3795 2.760
67.4098 3.958
67.4401 3.906
67.4704 4.062
67.5006 4.010
67.5309 5.260
67.5612 5.000
67.5915 5.052
67.6218 7.083
67.6520 6.615
67.6823 6.719
67.7126 7.187
67.7429 8.646
67.7731 7.292
67.8034 7.969
67.8337 9.479
67.8640 8.333
67.8943 7.344
67.9245 6.875
67.9548 6.562
67.9851 8.021
68.0154 6.458
68.0457 5.990
68.0759 6.198
68.1062 6.406
68.1365 5.469
68.1668 4.271
68.1970 4.062
68.2273 4.010
68.2576 3.854
68.2879 3.490
68.3182 2.708
68.3484 3.385
68.3787 2.917
68.4090 2.708
68.4393 2.812
68.4696 3.385
68.4998 2.396
68.5301 3.385
68.5604 2.656
68.5907 2.865
68.6209 3.073
68.6512 3.385
68.6815 2.865
68.7118 3.177
68.7421 3.854
68.7723 3.177
68.8026 4.010
68.8329 4.375
68.8632 4.062
68.8935 4.219
68.9237 5.365
68.9540 5.104
68.9843 5.260
69.0146 5.104
69.0448 4.375
69.0751 4.271
69.1054 3.385
69.1357 4.010
69.1660 3.906
69.1962 3.021
69.2265 4.062
69.2568 2.969
69.2871 2.292
69.3174 2.344
69.3476 3.073
69.3779 2.500
69.4082 2.187
69.4385 2.656
69.4687 2.135
69.4990 1.615
69.5293 1.719
69.5596 2.240
69.5899 2.031
69.6201 1.875
69.6504 1.771
69.6807 2.083
69.7110 1.562
69.7413 1.771
69.7715 1.302
69.8018 1.354
69.8321 1.250
69.8624 1.615
69.8926 1.510
69.9229 1.354
69.9532 1.875
69.9835 1.667
70.0138 1.250
70.0440 1.823
70.0743 1.302
70.1046 1.823
70.1349 1.302
70.1652 1.406
70.1954 1.250
70.2257 1.354
70.2560 1.458
70.2863 0.885
70.3166 1.615
70.3468 0.937
70.3771 1.198
70.4074 0.937
70.4377 0.677
70.4679 1.250
70.4982 1.042
70.5285 0.990
70.5588 1.510
70.5891 1.094
70.6193 1.354
70.6496 1.615
70.6799 1.354
70.7102 0.990
70.7405 1.302
70.7707 1.615
70.8010 1.615
70.8313 1.250
70.8616 1.146
70.8918 0.990
70.9221 1.354
70.9524 1.406
70.9827 0.833
71.0130 0.885
71.0432 1.042
71.0735 1.458
71.1038 1.146
71.1341 1.042
71.1644 1.094
71.1946 1.354
71.2249 0.833
71.2552 1.615
71.2855 0.729
71.3157 1.094
71.3460 1.250
71.3763 0.990
71.4066 0.937
71.4369 1.094
71.4671 1.198
71.4974 1.042
71.5277 0.833
71.5580 1.250
71.5883 1.667
71.6185 1.198
71.6488 1.146
71.6791 1.198
71.7094 0.937
71.7396 1.198
71.7699 1.250
71.8002 1.042
71.8305 1.510
71.8608 0.833
71.8910 1.042
71.9213 1.042
71.9516 1.094
71.9819 1.562
72.0122 1.146
72.0424 1.250
72.0727 1.198
72.1030 1.406
72.1333 1.354
72.1635 1.458
72.1938 1.146
72.2241 1.458
72.2544 1.719
72.2847 1.042
72.3149 1.406
72.3452 1.667
72.3755 1.354
72.4058 1.875
72.4361 1.979
72.4663 1.719
72.4966 1.719
72.5269 1.615
72.5572 2.031
72.5874 1.771
72.6177 1.719
72.6480 1.198
72.6783 1.771
72.7086 0.885
72.7388 1.146
72.7691 1.510
72.7994 1.042
72.8297 0.885
72.8600 1.094
72.8902 1.146
72.9205 1.094
72.9508 1.250
72.9811 1.406
73.0113 1.250
73.0416 1.198
73.0719 0.885
73.1022 1.302
73.1325 1.458
73.1627 1.250
73.1930 1.146
73.2233 1.042
73.2536 0.990
73.2839 0.833
73.3141 1.562
73.3444 1.198
73.3747 1.667
73.4050 1.354
73.4353 1.042
73.4655 0.521
73.4958 1.250
73.5261 0.937
73.5564 1.094
73.5866 1.042
73.6169 1.250
73.6472 1.302
73.6775 0.990
73.7078 0.729
73.7380 0.677
73.7683 0.729
73.7986 0.990
73.8289 0.833
73.8592 1.094
73.8894 1.094
73.9197 0.990
73.9500 0.885
73.9803 0.885
74.0105 1.094
74.0408 1.094
74.0711 1.198
74.1014 1.146
74.1317 0.781
74.1619 1.094
74.1922 0.833
74.2225 1.146
74.2528 1.198
74.2831 1.094
74.3133 0.573
74.3436 0.937
74.3739 1.042
74.4042 0.990
74.4344 0.937
74.4647 0.833
74.4950 0.885
74.5253 0.781
74.5556 1.250
74.5858 1.198
74.6161 0.937
74.6464 1.042
74.6767 1.094
74.7070 0.990
74.7372 0.937
74.7675 0.781
74.7978 1.094
74.8281 1.094
74.8583 0.677
74.8886 0.937
74.9189 1.042
74.9492 1.146
74.9795 0.937
75.0097 0.990
75.0400 1.250
75.0703 0.937
75.1006 0.781
75.1309 0.729
75.1611 1.094
75.1914 0.937
75.2217 0.729
75.2520 0.729
75.2822 0.677
75.3125 0.833
75.3428 0.781
75.3731 0.781
75.4034 1.406
75.4336 0.937
75.4639 1.250
75.4942 1.458
75.5245 0.573
75.5548 0.833
75.5850 1.198
75.6153 0.729
75.6456 0.885
75.6759 0.729
75.7061 0.781
75.7364 0.937
75.7667 1.146
75.7970 1.198
75.8273 1.146
75.8575 0.677
75.8878 0.677
75.9181 0.937
75.9484 0.729
75.9787 1.406
76.0089 0.990
76.0392 0.781
76.0695 0.781
76.0998 1.146
76.1301 0.729
76.1603 1.198
76.1906 1.094
76.2209 0.833
76.2512 1.302
76.2814 1.198
76.3117 0.990
76.3420 1.146
76.3723 0.625
76.4026 1.458
76.4328 0.833
76.4631 0.937
76.4934 1.667
76.5237 1.250
76.5540 1.667
76.5842 1.667
76.6145 1.354
76.6448 1.927
76.6751 1.562
76.7053 1.667
76.7356 1.510
76.7659 1.354
76.7962 1.562
76.8265 1.562
76.8567 1.562
76.8870 1.667
76.9173 1.562
76.9476 2.292
76.9779 1.667
77.0081 2.292
77.0384 1.146
77.0687 1.458
77.0990 1.719
77.1292 1.771
77.1595 1.875
77.1898 1.667
77.2201 1.250
77.2504 1.562
77.2806 1.250
77.3109 1.146
77.3412 1.458
77.3715 1.198
77.4018 0.937
77.4320 0.990
77.4623 1.094
77.4926 0.937
77.5229 0.990
77.5531 0.729
77.5834 1.198
77.6137 0.625
77.6440 0.573
77.6743 0.885
77.7045 1.094
77.7348 0.833
77.7651 1.146
77.7954 1.198
77.8257 1.094
77.8559 0.677
77.8862 0.833
77.9165 1.354
77.9468 0.729
77.9770 0.781
78.0073 1.302
78.0376 1.198
78.0679 0.729
78.0982 0.729
78.1284 0.729
78.1587 0.990
78.1890 0.990
78.2193 1.198
78.2496 0.677
78.2798 0.781
78.3101 0.729
78.3404 0.937
78.3707 0.677
78.4009 0.990
78.4312 0.833
78.4615 0.937
78.4918 0.990
78.5221 0.885
78.5523 0.990
78.5826 1.094
78.6129 1.094
78.6432 0.937
78.6735 0.781
78.7037 0.833
78.7340 0.729
78.7643 0.990
78.7946 0.521
78.8248 0.833
78.8551 0.573
78.8854 0.990
78.9157 0.729
78.9460 0.885
78.9762 0.937
79.0065 0.729
79.0368 1.042
79.0671 0.990
79.0974 1.198
79.1276 0.729
79.1579 0.937
79.1882 0.937
79.2185 0.885
79.2488 0.937
79.2790 1.042
79.3093 1.042
79.3396 1.250
79.3699 1.198
79.4001 1.146
79.4304 0.729
79.4607 1.146
79.4910 0.781
79.5213 0.729
79.5515 0.781
79.5818 1.094
79.6121 1.042
79.6424 0.833
79.6727 0.781
79.7029 0.729
79.7332 0.937
79.7635 0.833
79.7938 0.781
79.8240 0.885
79.8543 0.729
79.8846 0.729
79.9149 0.990
79.9452 0.781
79.9754 0.885
80.0057 1.146
80.0360 0.990
80.0663 1.250
80.0966 0.937
80.1268 0.625
80.1571 0.625
80.1874 1.198
80.2177 1.354
80.2479 0.781
80.2782 0.885
80.3085 1.198
80.3388 0.729
80.3691 1.042
80.3993 0.677
80.4296 1.198
80.4599 1.042
80.4902 0.729
80.5205 0.990
80.5507 1.042
80.5810 0.885
80.6113 1.198
80.6416 0.990
80.6718 0.781
80.7021 1.094
80.7324 0.729
80.7627 1.198
80.7930 0.885
80.8232 0.729
80.8535 1.458
80.8838 0.833
80.9141 1.042
80.9444 1.094
80.9746 1.667
81.0049 1.562
81.0352 1.146
81.0655 1.510
81.0957 1.406
81.1260 1.302
81.1563 1.198
81.1866 1.615
81.2169 1.198
81.2471 1.146
81.2774 1.510
81.3077 1.198
81.3380 2.031
81.3683 1.302
81.3985 1.458
81.4288 1.198
81.4591 1.406
81.4894 1.094
81.5196 1.667
81.5499 0.781
81.5802 0.937
81.6105 0.833
81.6408 0.729
81.6710 1.198
81.7013 0.781
81.7316 0.937
81.7619 1.146
81.7922 0.625
81.8224 0.677
81.8527 0.833
81.8830 0.885
81.9133 1.667
81.9436 0.833
81.9738 1.094
82.0041 0.885
82.0344 0.781
82.0647 0.990
82.0949 0.885
82.1252 1.094
82.1555 0.677
82.1858 0.833
82.2161 1.094
82.2463 0.885
82.2766 0.781
82.3069 0.833
82.3372 0.729
82.3675 0.729
82.3977 1.042
82.4280 0.521
82.4583 0.729
82.4886 0.729
82.5188 0.729
82.5491 0.937
82.5794 0.729
82.6097 0.990
82.6400 1.042
82.6702 0.677
82.7005 0.937
82.7308 0.729
82.7611 0.937
82.7914 0.885
82.8216 0.781
82.8519 0.937
82.8822 0.990
82.9125 0.729
82.9427 0.521
82.9730 0.937
83.0033 0.937
83.0336 0.729
83.0639 0.937
83.0941 0.729
83.1244 0.885
83.1547 0.885
83.1850 0.937
83.2153 0.885
83.2455 0.990
83.2758 0.729
83.3061 0.885
83.3364 0.990
83.3666 0.573
83.3969 0.677
83.4272 0.625
83.4575 0.729
83.4878 0.885
83.5180 1.042
83.5483 0.781
83.5786 0.990
83.6089 1.198
83.6392 0.729
83.6694 0.833
83.6997 0.260
83.7300 0.729
83.7603 1.094
83.7905 0.885
83.8208 0.885
83.8511 1.042
83.8814 0.729
83.9117 0.729
83.9419 0.417
83.9722 1.042
84.0025 0.677
84.0328 1.146
84.0631 1.198
84.0933 0.625
84.1236 0.729
84.1539 1.042
84.1842 1.042
84.2144 0.729
84.2447 0.937
84.2750 0.990
84.3053 1.042
84.3356 0.729
84.3658 0.729
84.3961 0.937
84.4264 0.833
84.4567 0.937
84.4870 0.573
84.5172 0.833
84.5475 0.625
84.5778 0.677
84.6081 0.833
84.6383 0.990
84.6686 0.937
84.6989 0.833
84.7292 0.677
84.7595 1.094
84.7897 0.833
84.8200 0.885
84.8503 0.885
84.8806 0.729
84.9109 0.625
84.9411 0.781
84.9714 0.729
85.0017 0.937
85.0320 0.937
85.0623 0.729
85.0925 0.833
85.1228 0.885
85.1531 0.521
85.1834 0.625
85.2136 0.729
85.2439 0.729
85.2742 0.625
85.3045 0.885
85.3348 0.677
85.3650 0.573
85.3953 1.042
85.4256 0.573
85.4559 0.937
85.4862 0.677
85.5164 0.781
85.5467 0.521
85.5770 0.729
85.6073 0.885
85.6375 1.042
85.6678 0.833
85.6981 1.250
85.7284 1.146
85.7587 1.302
85.7889 0.573
85.8192 1.354
85.8495 0.781
85.8798 1.510
85.9101 0.625
85.9403 0.833
85.9706 0.677
86.0009 1.042
86.0312 0.781
86.0614 0.937
86.0917 1.042
86.1220 0.885
86.1523 0.885
86.1826 0.677
86.2128 0.885
86.2431 1.042
86.2734 0.677
86.3037 0.885
86.3340 0.521
86.3642 0.781
86.3945 1.198
86.4248 1.198
86.4551 0.937
86.4853 0.937
86.5156 0.937
86.5459 0.937
86.5762 0.937
86.6065 0.521
86.6367 0.729
86.6670 0.833
86.6973 1.198
86.7276 1.146
86.7579 0.990
86.7881 1.042
86.8184 0.729
86.8487 0.521
86.8790 0.885
86.9092 0.937
86.9395 1.354
86.9698 0.885
87.0001 0.937
87.0304 0.885
87.0606 1.094
87.0909 0.885
87.1212 0.781
87.1515 0.729
87.1818 0.885
87.2120 0.833
87.2423 0.833
87.2726 0.885
87.3029 0.990
87.3331 0.521
87.3634 1.198
87.3937 1.250
87.4240 0.729
87.4543 0.885
87.4845 0.521
87.5148 1.458
87.5451 0.677
87.5754 1.146
87.6057 1.042
87.6359 0.781
87.6662 0.937
87.6965 0.990
87.7268 0.885
87.7571 0.677
87.7873 0.781
87.8176 0.729
87.8479 0.990
87.8782 0.677
87.9084 1.042
87.9387 0.885
87.9690 1.042
87.9993 0.469
88.0296 1.094
88.0598 0.833
88.0901 0.781
88.1204 1.198
88.1507 1.094
88.1810 1.146
88.2112 0.521
88.2415 0.781
88.2718 0.833
88.3021 1.094
88.3323 1.250
88.3626 0.937
88.3929 1.042
88.4232 1.042
88.4535 1.094
88.4837 0.990
88.5140 1.042
88.5443 0.937
88.5746 0.990
88.6049 1.198
88.6351 1.198
88.6654 0.781
88.6957 1.667
88.7260 1.198
88.7562 1.146
88.7865 0.885
88.8168 1.198
88.8471 1.302
88.8774 1.198
88.9076 1.198
88.9379 1.042
88.9682 1.302
88.9985 1.667
89.0288 1.042
89.0590 1.354
89.0893 2.240
89.1196 1.667
89.1499 1.510
89.1801 1.823
89.2104 1.562
89.2407 1.615
89.2710 1.562
89.3013 1.979
89.3315 1.458
89.3618 2.240
89.3921 2.187
89.4224 2.135
89.4527 2.604
89.4829 2.396
89.5132 2.292
89.5435 2.604
89.5738 2.187
89.6040 1.562
89.6343 2.969
89.6646 2.344
89.6949 2.240
89.7252 2.135
89.7554 2.135
89.7857 2.500
89.8160 1.823
89.8463 2.135
89.8766 1.875
89.9068 1.979
89.9371 1.562
89.9674 1.562
89.9977 1.458
90.0279 0.885
90.0582 1.510
90.0885 1.354
90.1188 1.354
90.1491 1.615
90.1793 1.458
90.2096 1.250
90.2399 1.094
90.2702 1.146
90.3005 1.042
90.3307 1.198
90.3610 1.198
90.3913 0.937
90.4216 0.990
90.4518 1.562
90.4821 0.990
90.5124 1.406
90.5427 1.198
90.5730 1.042
90.6032 1.250
90.6335 0.729
90.6638 1.198
90.6941 1.302
90.7244 1.198
90.7546 1.302
90.7849 0.990
90.8152 1.198
90.8455 1.198
90.8758 0.885
90.9060 1.094
90.9363 0.833
90.9666 0.937
90.9969 0.729
91.0271 0.729
91.0574 1.094
91.0877 0.625
91.1180 1.250
91.1483 0.937
91.1785 0.833
91.2088 0.677
91.2391 1.146
91.2694 0.990
91.2997 0.833
91.3299 0.990
91.3602 0.885
91.3905 0.833
91.4208 0.833
91.4510 1.146
91.4813 0.833
91.5116 0.937
91.5419 0.781
91.5722 0.781
91.6024 0.625
91.6327 0.781
91.6630 0.781
91.6933 0.625
91.7236 1.198
91.7538 1.302
91.7841 1.094
91.8144 0.990
91.8447 0.677
91.8749 0.885
91.9052 1.094
91.9355 1.198
91.9658 1.250
91.9961 0.990
92.0263 1.562
92.0566 0.885
92.0869 1.146
92.1172 0.781
92.1475 1.198
92.1777 0.990
92.2080 1.198
92.2383 1.250
92.2686 1.406
92.2988 1.042
92.3291 0.781
92.3594 1.406
92.3897 0.833
92.4200 1.198
92.4502 1.146
92.4805 1.458
92.5108 0.885
92.5411 1.510
92.5714 1.771
92.6016 1.562
92.6319 1.354
92.6622 1.250
92.6925 1.302
92.7227 0.937
92.7530 1.667
92.7833 1.615
92.8136 1.771
92.8439 1.198
92.8741 1.875
92.9044 1.458
92.9347 1.302
92.9650 1.458
92.9953 1.406
93.0255 1.302
93.0558 1.198
93.0861 0.729
93.1164 1.250
93.1466 1.094
93.1769 0.885
93.2072 1.094
93.2375 1.146
93.2678 1.302
93.2980 1.406
93.3283 0.833
93.3586 1.042
93.3889 1.562
93.4192 0.781
93.4494 1.094
93.4797 1.250
93.5100 1.146
93.5403 1.198
93.5706 1.198
93.6008 1.198
93.6311 1.042
93.6614 1.146
93.6917 1.198
93.7219 0.729
93.7522 1.094
93.7825 0.937
93.8128 0.729
93.8431 1.042
93.8733 1.302
93.9036 0.729
93.9339 0.781
93.9642 0.729
93.9945 0.885
94.0247 1.615
94.0550 0.625
94.0853 1.042
94.1156 1.146
94.1458 1.406
94.1761 1.198
94.2064 0.781
94.2367 0.990
94.2670 1.094
94.2972 1.146
94.3275 1.458
94.3578 0.937
94.3881 1.250
94.4184 1.250
94.4486 1.146
94.4789 1.042
94.5092 1.302
94.5395 1.250
94.5697 1.823
94.6000 0.833
94.6303 1.719
94.6606 1.354
94.6909 1.458
94.7211 1.875
94.7514 1.927
94.7817 1.354
94.8120 1.771
94.8423 1.927
94.8725 1.406
94.9028 1.719
94.9331 1.719
94.9634 1.875
94.9936 1.719
95.0239 1.979
95.0542 2.240
95.0845 1.979
95.1148 2.240
95.1450 2.292
95.1753 1.875
95.2056 2.240
95.2359 2.292
95.2662 2.135
95.2964 2.344
95.3267 2.969
95.3570 2.292
95.3873 1.562
95.4175 2.292
95.4478 1.823
95.4781 2.240
95.5084 2.344
95.5387 2.031
95.5689 1.719
95.5992 1.510
95.6295 1.719
95.6598 2.135
95.6901 1.510
95.7203 1.406
95.7506 1.562
95.7809 1.667
95.8112 1.250
95.8414 1.094
95.8717 1.406
95.9020 1.302
95.9323 0.729
95.9626 1.719
95.9928 1.146
96.0231 0.885
96.0534 1.146
96.0837 0.833
96.1140 1.250
96.1442 1.146
96.1745 0.990
96.2048 1.302
96.2351 1.042
96.2653 0.781
96.2956 1.146
96.3259 1.042
96.3562 1.510
96.3865 1.042
96.4167 1.250
96.4470 0.625
96.4773 1.250
96.5076 1.406
96.5379 1.042
96.5681 1.094
96.5984 0.729
96.6287 0.833
96.6590 1.042
96.6893 1.250
96.7195 1.094
96.7498 1.094
96.7801 1.302
96.8104 0.990
96.8406 0.573
96.8709 1.094
96.9012 1.094
96.9315 1.198
96.9618 0.937
96.9920 1.042
97.0223 1.302
97.0526 1.094
97.0829 0.729
97.1132 1.250
97.1434 0.990
97.1737 1.094
97.2040 1.094
97.2343 0.937
97.2645 1.250
97.2948 1.042
97.3251 0.781
97.3554 0.937
97.3857 1.042
97.4159 0.729
97.4462 1.146
97.4765 1.302
97.5068 0.937
97.5371 1.042
97.5673 0.990
97.5976 1.198
97.6279 1.406
97.6582 1.198
97.6884 0.990
97.7187 1.146
97.7490 1.562
97.7793 0.833
97.8096 1.094
97.8398 0.937
97.8701 1.250
97.9004 1.094
97.9307 1.094
97.9610 1.927
97.9912 1.354
98.0215 1.875
98.0518 1.302
98.0821 1.250
98.1123 1.615
98.1426 1.771
98.1729 1.146
98.2032 1.146
98.2335 1.875
98.2637 1.198
98.2940 1.250
98.3243 1.406
98.3546 1.302
98.3849 1.719
98.4151 1.667
98.4454 1.510
98.4757 1.771
98.5060 1.250
98.5362 2.187
98.5665 1.979
98.5968 1.823
98.6271 1.667
98.6574 1.146
98.6876 1.771
98.7179 1.771
98.7482 1.979
98.7785 1.562
98.8088 1.250
98.8390 1.562
98.8693 1.406
98.8996 1.354
98.9299 1.146
98.9601 1.198
98.9904 1.510
99.0207 0.781
99.0510 1.302
99.0813 1.302
99.1115 1.042
99.1418 1.510
99.1721 1.250
99.2024 0.781
99.2327 1.302
99.2629 1.979
99.2932 1.562
99.3235 1.510
99.3538 0.937
99.3841 0.990
99.4143 1.510
99.4446 0.729
99.4749 0.885
99.5052 0.990
99.5354 1.094
99.5657 0.937
99.5960 0.729
99.6263 1.146
99.6566 0.521
99.6868 1.250
99.7171 0.885
99.7474 1.094
99.7777 0.781
99.8080 0.781
99.8382 0.729
99.8685 0.573
99.8988 0.885
99.9291 1.094
99.9593 1.042
99.9896 0.677
100.0199 0.990
100.0502 0.937
100.0805 1.146
100.1107 0.312
100.1410 0.937
100.1713 0.833
100.2016 1.406
100.2319 0.781
100.2621 1.302
100.2924 0.990
100.3227 0.729
100.3530 0.781
100.3832 0.937
100.4135 0.781
100.4438 0.885
100.4741 0.937
100.5044 1.146
100.5346 0.885
100.5649 0.833
100.5952 0.885
100.6255 0.833
100.6558 1.042
100.6860 0.677
100.7163 0.885
100.7466 0.677
100.7769 0.990
100.8071 1.094
100.8374 0.937
100.8677 1.406
100.8980 0.885
100.9283 0.885
100.9585 0.937
100.9888 0.677
101.0191 0.469
101.0494 0.781
101.0797 0.781
101.1099 0.625
101.1402 0.885
101.1705 0.781
101.2008 1.198
101.2310 0.833
101.2613 0.833
101.2916 1.406
101.3219 0.937
101.3522 1.146
101.3824 1.146
101.4127 0.729
101.4430 0.781
101.4733 1.094
101.5036 0.729
101.5338 0.833
101.5641 0.937
101.5944 0.781
101.6247 1.198
101.6549 1.094
101.6852 0.781
101.7155 1.458
101.7458 0.781
101.7761 1.094
101.8063 1.250
101.8366 0.781
101.8669 0.781
101.8972 0.781
101.9275 0.990
101.9577 1.250
101.9880 0.937
102.0183 1.250
102.0486 1.354
102.0788 1.094
102.1091 1.302
102.1394 0.833
102.1697 1.250
102.2000 1.354
102.2302 1.094
102.2605 1.146
102.2908 1.250
102.3211 1.094
102.3514 1.354
102.3816 1.146
102.4119 1.510
102.4422 1.510
102.4725 1.771
102.5028 1.354
102.5330 0.990
102.5633 1.198
102.5936 1.719
102.6239 1.406
102.6541 1.146
102.6844 1.823
102.7147 1.406
102.7450 1.823
102.7753 1.406
102.8055 1.198
102.8358 1.667
102.8661 1.562
102.8964 1.510
102.9267 1.927
102.9569 1.458
102.9872 1.042
103.0175 1.354
103.0478 1.615
103.0780 1.667
103.1083 1.510
103.1386 1.146
103.1689 1.615
103.1992 1.875
103.2294 1.406
103.2597 1.615
103.2900 1.302
103.3203 1.667
103.3506 1.250
103.3808 1.406
103.4111 1.406
103.4414 1.927
103.4717 1.354
103.5019 1.615
103.5322 1.354
103.5625 1.771
103.5928 1.667
103.6231 0.990
103.6533 1.458
103.6836 1.875
103.7139 1.979
103.7442 1.406
103.7745 1.875
103.8047 1.979
103.8350 2.292
103.8653 2.292
103.8956 1.927
103.9258 2.031
103.9561 1.667
103.9864 2.500
104.0167 2.344
104.0470 1.562
104.0772 2.396
104.1075 1.875
104.1378 1.406
104.1681 1.875
104.1984 1.615
104.2286 2.031
104.2589 1.406
104.2892 1.510
104.3195 2.500
104.3497 1.458
104.3800 1.302
104.4103 2.135
104.4406 1.615
104.4709 1.510
104.5011 1.667
104.5314 1.354
104.5617 1.771
104.5920 1.823
104.6223 1.458
104.6525 1.302
104.6828 1.406
104.7131 1.458
104.7434 1.719
104.7736 0.990
104.8039 1.042
104.8342 1.094
104.8645 1.302
104.8948 0.833
104.9250 1.198
104.9553 0.781
104.9856 0.833
105.0159 1.302
105.0462 1.354
105.0764 0.833
105.1067 1.406
105.1370 0.990
105.1673 0.885
105.1975 1.406
105.2278 1.198
105.2581 0.781
105.2884 0.885
105.3187 0.677
105.3489 0.937
105.3792 1.146
105.4095 0.729
105.4398 0.990
105.4701 1.302
105.5003 1.146
105.5306 1.562
105.5609 1.250
105.5912 0.833
105.6215 0.833
105.6517 0.833
105.6820 1.094
105.7123 0.990
105.7426 0.833
105.7728 1.146
105.8031 1.198
105.8334 0.885
105.8637 0.990
105.8940 0.885
105.9242 0.937
105.9545 1.302
105.9848 0.833
106.0151 0.781
106.0454 0.885
106.0756 1.146
106.1059 0.937
106.1362 0.937
106.1665 1.042
106.1967 0.885
106.2270 0.990
106.2573 0.781
106.2876 0.833
106.3179 1.406
106.3481 0.885
106.3784 0.781
106.4087 1.198
106.4390 0.937
106.4693 1.146
106.4995 1.458
106.5298 0.729
106.5601 0.781
106.5904 1.198
106.6206 0.990
106.6509 1.406
106.6812 1.146
106.7115 0.937
106.7418 0.833
106.7720 0.990
106.8023 1.198
106.8326 1.146
106.8629 1.354
106.8932 1.458
106.9234 0.990
106.9537 1.094
106.9840 0.885
107.0143 0.885
107.0445 1.198
107.0748 0.937
107.1051 0.885
107.1354 1.354
107.1657 0.990
107.1959 1.354
107.2262 1.250
107.2565 0.990
107.2868 0.990
107.3171 1.042
107.3473 1.146
107.3776 1.198
107.4079 1.198
107.4382 0.885
107.4684 0.937
107.4987 1.198
107.5290 0.937
107.5593 0.885
107.5896 1.406
107.6198 0.885
107.6501 1.302
107.6804 1.042
107.7107 1.354
107.7410 1.146
107.7712 0.885
107.8015 1.302
107.8318 0.625
107.8621 0.990
107.8923 0.833
107.9226 0.885
107.9529 1.094
107.9832 0.990
108.0135 0.833
108.0437 1.458
108.0740 1.198
108.1043 0.312
108.1346 1.146
108.1649 1.094
108.1951 1.250
108.2254 0.990
108.2557 1.354
108.2860 1.250
108.3163 0.781
108.3465 1.042
108.3768 0.833
108.4071 0.937
108.4374 1.094
108.4676 1.250
108.4979 0.885
108.5282 1.042
108.5585 1.458
108.5888 1.146
108.6190 0.937
108.6493 1.042
108.6796 1.198
108.7099 0.781
108.7402 0.729
108.7704 1.354
108.8007 1.510
108.8310 0.937
108.8613 1.198
108.8915 1.406
108.9218 1.302
108.9521 0.990
108.9824 1.198
109.0127 1.042
109.0429 1.094
109.0732 1.042
109.1035 0.833
109.1338 1.562
109.1641 1.354
109.1943 1.250
109.2246 0.885
109.2549 0.937
109.2852 0.990
109.3154 1.302
109.3457 1.146
109.3760 1.198
109.4063 0.990
109.4366 1.510
109.4668 1.354
109.4971 0.937
109.5274 1.302
109.5577 1.406
109.5880 1.198
109.6182 0.990
109.6485 1.458
109.6788 1.094
109.7091 1.771
109.7393 1.406
109.7696 1.562
109.7999 1.198
109.8302 1.354
109.8605 1.823
109.8907 1.302
109.9210 1.458
109.9513 1.667
109.9816 1.042
110.0119 1.562
110.0421 1.302
110.0724 1.250
110.1027 1.823
110.1330 1.562
110.1632 1.615
110.1935 1.875
110.2238 1.354
110.2541 1.250
110.2844 1.771
110.3146 1.302
110.3449 2.187
110.3752 0.990
110.4055 1.510
110.4358 1.406
110.4660 1.562
110.4963 1.667
110.5266 2.031
110.5569 1.615
110.5871 1.510
110.6174 1.719
110.6477 1.667
110.6780 1.250
110.7083 1.198
110.7385 1.302
110.7688 1.250
110.7991 1.302
110.8294 1.927
110.8597 1.406
110.8899 1.615
110.9202 1.458
110.9505 1.510
110.9808 1.354
111.0110 1.042
111.0413 0.885
111.0716 1.250
111.1019 1.354
111.1322 1.094
111.1624 1.094
111.1927 1.146
111.2230 1.250
111.2533 0.990
111.2836 0.885
111.3138 1.302
111.3441 1.562
111.3744 0.937
111.4047 1.146
111.4350 0.990
111.4652 0.990
111.4955 1.094
111.5258 0.885
111.5561 1.250
111.5863 1.042
111.6166 1.094
111.6469 0.885
111.6772 0.990
111.7075 1.302
111.7377 1.042
111.7680 1.302
111.7983 1.302
111.8286 1.510
111.8589 1.354
111.8891 1.302
111.9194 1.094
111.9497 1.094
111.9800 1.510
112.0102 1.042
112.0405 1.198
112.0708 1.354
112.1011 1.302
112.1314 0.990
112.1616 1.250
112.1919 1.250
112.2222 1.406
112.2525 1.510
112.2828 0.990
112.3130 1.042
112.3433 0.885
112.3736 1.562
112.4039 1.719
112.4341 1.458
112.4644 1.562
112.4947 1.250
112.5250 1.406
112.5553 1.042
112.5855 1.042
112.6158 1.406
112.6461 1.302
112.6764 0.833
112.7067 1.927
112.7369 1.250
112.7672 0.990
112.7975 1.823
112.8278 1.302
112.8580 1.094
112.8883 1.198
112.9186 1.719
112.9489 1.510
112.9792 1.302
113.0094 1.198
113.0397 1.042
113.0700 0.937
113.1003 1.250
113.1306 1.146
113.1608 1.510
113.1911 1.354
113.2214 0.781
113.2517 1.406
113.2819 1.354
113.3122 1.146
113.3425 1.406
113.3728 0.677
113.4031 1.302
113.4333 1.510
113.4636 1.042
113.4939 0.833
113.5242 1.146
113.5545 1.094
113.5847 1.510
113.6150 1.250
113.6453 0.990
113.6756 0.937
113.7058 1.406
113.7361 1.146
113.7664 1.042
113.7967 0.781
113.8270 0.885
113.8572 1.042
113.8875 1.406
113.9178 1.354
113.9481 1.719
113.9784 1.250
114.0086 1.510
114.0389 1.250
114.0692 1.198
114.0995 1.823
114.1298 1.146
114.1600 1.250
114.1903 0.990
114.2206 1.406
114.2509 1.302
114.2811 0.677
114.3114 1.146
114.3417 1.510
114.3720 1.406
114.4023 1.094
114.4325 1.458
114.4628 1.458
114.4931 1.458
114.5234 1.354
114.5537 1.250
114.5839 1.458
114.6142 1.354
114.6445 1.406
114.6748 1.354
114.7050 1.510
114.7353 1.250
114.7656 1.250
114.7959 1.354
114.8262 1.458
114.8564 1.823
114.8867 1.146
114.9170 1.302
114.9473 1.719
114.9776 1.615
115.0078 1.510
115.0381 1.979
115.0684 1.042
115.0987 1.458
115.1289 2.083
115.1592 0.833
115.1895 1.302
115.2198 1.979
115.2501 1.562
115.2803 1.510
115.3106 1.667
115.3409 1.406
115.3712 1.198
115.4015 1.562
115.4317 1.615
115.4620 1.406
115.4923 1.354
115.5226 1.406
115.5528 1.771
115.5831 1.250
115.6134 1.458
115.6437 1.875
115.6740 2.135
115.7042 1.823
115.7345 1.354
115.7648 1.510
115.7951 1.562
115.8254 1.562
115.8556 2.448
115.8859 1.302
115.9162 2.760
115.9465 1.927
115.9767 1.510
116.0070 1.510
116.0373 3.073
116.0676 2.292
116.0979 1.927
116.1281 2.865
116.1584 2.031
116.1887 2.708
116.2190 1.927
116.2493 1.927
116.2795 1.875
116.3098 2.292
116.3401 2.240
116.3704 1.927
116.4006 1.875
116.4309 2.240
116.4612 2.083
116.4915 1.458
116.5218 2.552
116.5520 2.448
116.5823 2.187
116.6126 2.448
116.6429 1.562
116.6732 1.510
116.7034 2.135
116.7337 1.615
116.7640 1.615
116.7943 2.083
116.8245 1.719
116.8548 2.240
116.8851 1.927
116.9154 1.719
116.9457 1.146
116.9759 1.562
117.0062 1.562
117.0365 1.094
117.0668 0.885
117.0971 1.719
117.1273 1.615
117.1576 1.667
117.1879 1.198
117.2182 1.823
117.2485 1.198
117.2787 1.406
117.3090 1.719
117.3393 1.667
117.3696 1.927
117.3998 1.510
117.4301 1.458
117.4604 1.354
117.4907 1.198
117.5210 1.823
117.5512 1.354
117.5815 1.250
117.6118 1.042
117.6421 1.198
117.6724 1.615
117.7026 1.094
117.7329 1.354
117.7632 1.458
117.7935 1.406
117.8237 1.250
117.8540 1.562
117.8843 1.302
117.9146 1.354
117.9449 0.937
117.9751 1.406
118.0054 0.781
118.0357 1.719
118.0660 1.719
118.0963 1.042
118.1265 1.042
118.1568 1.094
118.1871 0.781
118.2174 1.406
118.2476 0.677
118.2779 1.250
118.3082 1.510
118.3385 1.042
118.3688 1.302
118.3990 1.250
118.4293 1.562
118.4596 0.833
118.4899 1.198
118.5202 1.302
118.5504 1.562
118.5807 1.510
118.6110 1.302
118.6413 1.042
118.6715 1.198
118.7018 1.562
118.7321 1.094
118.7624 1.042
118.7927 1.458
118.8229 0.833
118.8532 1.198
118.8835 1.250
118.9138 0.781
118.9441 1.146
118.9743 1.094
119.0046 1.562
119.0349 1.094
119.0652 1.302
119.0954 1.458
119.1257 1.250
119.1560 1.562
119.1863 1.354
119.2166 0.990
119.2468 1.510
119.2771 1.354
119.3074 1.146
119.3377 1.198
119.3680 1.406
119.3982 0.781
119.4285 1.146
119.4588 0.781
119.4891 0.885
119.5193 1.719
119.5496 1.198
119.5799 1.198
119.6102 0.729
119.6405 1.042
119.6707 1.146
119.7010 0.937
119.7313 1.302
119.7616 1.250
119.7919 1.250
119.8221 1.354
119.8524 1.354
119.8827 0.937
119.9130 1.354
119.9433 0.677
119.9735 0.729
120.0038 0.885
