'Id: "" Comment: "" Operator: "Lab Manager" Anode: "Cu" Scantype: "Locked Coupled" TimePerStep: "19.2" X: "9999" Y: "9999" Z: "9999" 
10.0015 3.073
10.0318 3.229
10.0620 3.490
10.0923 3.125
10.1226 2.865
10.1529 3.385
10.1832 2.604
10.2134 3.229
10.2437 2.917
10.2740 2.396
10.3043 2.604
10.3346 3.229
10.3648 2.917
10.3951 2.969
10.4254 2.760
10.4557 2.604
10.4859 3.802
10.5162 2.760
10.5465 2.760
10.5768 4.062
10.6071 3.333
10.6373 3.385
10.6676 2.969
10.6979 3.177
10.7282 2.812
10.7585 3.385
10.7887 3.021
10.8190 2.656
10.8493 3.854
10.8796 3.177
10.9098 3.906
10.9401 3.333
10.9704 3.490
11.0007 3.646
11.0310 3.854
11.0612 4.375
11.0915 3.021
11.1218 3.854
11.1521 3.698
11.1824 3.594
11.2126 2.344
11.2429 3.229
11.2732 3.542
11.3035 2.917
11.3337 3.802
11.3640 3.385
11.3943 1.927
11.4246 3.021
11.4549 3.073
11.4851 2.604
11.5154 2.656
11.5457 2.187
11.5760 3.125
11.6063 2.656
11.6365 3.073
11.6668 2.552
11.6971 2.708
11.7274 2.917
11.7577 3.385
11.7879 3.125
11.8182 3.333
11.8485 2.969
11.8788 3.177
11.9090 2.812
11.9393 1.979
11.9696 2.760
11.9999 2.865
12.0302 2.708
12.0604 2.917
12.0907 2.552
12.1210 3.542
12.1513 2.969
12.1816 3.021
12.2118 2.240
12.2421 2.656
12.2724 2.656
12.3027 2.760
12.3329 2.708
12.3632 2.760
12.3935 3.073
12.4238 2.969
12.4541 2.240
12.4843 2.187
12.5146 1.719
12.5449 2.135
12.5752 2.552
12.6055 2.448
12.6357 2.135
12.6660 2.656
12.6963 2.187
12.7266 2.552
12.7568 2.865
12.7871 2.448
12.8174 1.979
12.8477 3.542
12.8780 3.125
12.9082 2.500
12.9385 2.083
12.9688 1.979
12.9991 2.500
13.0294 2.656
13.0596 3.177
13.0899 2.344
13.1202 2.760
13.1505 2.344
13.1807 1.979
13.2110 2.552
13.2413 1.771
13.2716 2.760
13.3019 2.656
13.3321 2.812
13.3624 2.135
13.3927 2.187
13.4230 2.292
13.4533 2.604
13.4835 3.073
13.5138 2.448
13.5441 2.344
13.5744 2.344
13.6046 1.771
13.6349 3.021
13.6652 1.823
13.6955 2.396
13.7258 2.187
13.7560 2.760
13.7863 1.667
13.8166 2.656
13.8469 2.656
13.8772 2.448
13.9074 1.667
13.9377 2.500
13.9680 2.344
13.9983 2.969
14.0285 2.292
14.0588 3.281
14.0891 2.760
14.1194 2.865
14.1497 3.073
14.1799 1.823
14.2102 3.281
14.2405 2.917
14.2708 2.240
14.3011 2.656
14.3313 2.812
14.3616 3.542
14.3919 4.115
14.4222 3.854
14.4524 4.010
14.4827 4.115
14.5130 4.010
14.5433 4.844
14.5736 4.115
14.6038 3.958
14.6341 3.229
14.6644 3.073
14.6947 3.385
14.7250 3.125
14.7552 3.437
14.7855 2.135
14.8158 2.552
14.8461 2.292
14.8764 2.187
14.9066 1.667
14.9369 2.396
14.9672 2.812
14.9975 3.281
15.0277 1.979
15.0580 2.187
15.0883 2.552
15.1186 2.812
15.1489 3.437
15.1791 2.344
15.2094 3.021
15.2397 2.292
15.2700 2.604
15.3003 2.135
15.3305 2.135
15.3608 1.823
15.3911 2.083
15.4214 2.708
15.4516 1.979
15.4819 2.083
15.5122 1.406
15.5425 2.083
15.5728 2.396
15.6030 1.979
15.6333 2.344
15.6636 2.552
15.6939 2.083
15.7242 1.771
15.7544 2.604
15.7847 2.031
15.8150 1.771
15.8453 1.250
15.8755 2.135
15.9058 1.719
15.9361 2.344
15.9664 1.875
15.9967 1.927
16.0269 1.927
16.0572 1.406
16.0875 2.135
16.1178 1.875
16.1481 1.719
16.1783 2.448
16.2086 2.240
16.2389 2.240
16.2692 2.656
16.2994 1.875
16.3297 2.500
16.3600 2.448
16.3903 2.240
16.4206 2.708
16.4508 1.823
16.4811 2.135
16.5114 2.396
16.5417 1.979
16.5720 2.187
16.6022 1.354
16.6325 1.823
16.6628 2.135
16.6931 1.875
16.7233 2.708
16.7536 2.292
16.7839 1.823
16.8142 1.979
16.8445 1.823
16.8747 1.979
16.9050 2.604
16.9353 2.135
16.9656 2.240
16.9959 1.927
17.0261 2.865
17.0564 2.031
17.0867 2.292
17.1170 1.979
17.1472 1.458
17.1775 2.083
17.2078 2.760
17.2381 1.615
17.2684 1.250
17.2986 2.292
17.3289 1.719
17.3592 1.823
17.3895 2.240
17.4198 1.667
17.4500 2.135
17.4803 2.031
17.5106 1.562
17.5409 2.656
17.5712 1.979
17.6014 1.875
17.6317 2.031
17.6620 2.396
17.6923 1.406
17.7225 1.771
17.7528 1.510
17.7831 1.875
17.8134 1.406
17.8437 1.979
17.8739 2.396
17.9042 2.240
17.9345 2.031
17.9648 2.396
17.9951 2.812
18.0253 2.240
18.0556 1.979
18.0859 1.302
18.1162 1.667
18.1464 2.240
18.1767 1.302
18.2070 2.292
18.2373 2.240
18.2676 2.083
18.2978 1.615
18.3281 1.719
18.3584 1.458
18.3887 1.406
18.4190 1.771
18.4492 1.875
18.4795 1.667
18.5098 1.562
18.5401 2.187
18.5703 1.719
18.6006 2.135
18.6309 2.865
18.6612 1.823
18.6915 2.187
18.7217 2.187
18.7520 1.719
18.7823 1.823
18.8126 1.927
18.8429 1.719
18.8731 1.927
18.9034 1.667
18.9337 1.927
18.9640 1.719
18.9942 1.510
19.0245 2.240
19.0548 2.187
19.0851 2.240
19.1154 2.344
19.1456 2.500
19.1759 1.771
19.2062 1.771
19.2365 2.292
19.2668 1.875
19.2970 1.719
19.3273 1.094
19.3576 1.615
19.3879 1.771
19.4181 1.667
19.4484 2.969
19.4787 1.875
19.5090 1.823
19.5393 1.823
19.5695 1.823
19.5998 1.667
19.6301 1.875
19.6604 1.615
19.6907 1.198
19.7209 1.719
19.7512 1.771
19.7815 1.458
19.8118 2.292
19.8420 2.083
19.8723 2.604
19.9026 1.458
19.9329 1.979
19.9632 2.292
19.9934 1.927
20.0237 2.500
20.0540 2.344
20.0843 0.990
20.1146 1.927
20.1448 1.510
20.1751 0.937
20.2054 1.198
20.2357 1.979
20.2659 2.135
20.2962 1.771
20.3265 2.135
20.3568 2.240
20.3871 2.083
20.4173 1.667
20.4476 1.667
20.4779 2.031
20.5082 1.302
20.5385 1.667
20.5687 1.458
20.5990 1.615
20.6293 1.927
20.6596 1.354
20.6899 1.719
20.7201 1.927
20.7504 1.458
20.7807 1.667
20.8110 1.875
20.8412 1.979
20.8715 1.198
20.9018 1.562
20.9321 1.354
20.9624 1.927
20.9926 1.771
21.0229 1.667
21.0532 1.719
21.0835 1.198
21.1138 2.083
21.1440 1.927
21.1743 2.240
21.2046 1.198
21.2349 1.667
21.2651 1.354
21.2954 1.823
21.3257 1.771
21.3560 1.615
21.3863 1.823
21.4165 1.562
21.4468 1.823
21.4771 1.667
21.5074 2.187
21.5377 1.458
21.5679 0.990
21.5982 1.979
21.6285 1.510
21.6588 2.500
21.6890 1.823
21.7193 1.719
21.7496 1.510
21.7799 2.083
21.8102 1.979
21.8404 1.823
21.8707 1.406
21.9010 1.406
21.9313 1.771
21.9616 1.354
21.9918 1.979
22.0221 1.510
22.0524 1.927
22.0827 1.771
22.1129 1.406
22.1432 1.406
22.1735 1.458
22.2038 1.302
22.2341 1.875
22.2643 2.240
22.2946 1.771
22.3249 1.719
22.3552 1.458
22.3855 1.146
22.4157 1.510
22.4460 1.302
22.4763 1.875
22.5066 1.302
22.5368 1.823
22.5671 1.458
22.5974 1.458
22.6277 0.885
22.6580 1.667
22.6882 1.823
22.7185 1.458
22.7488 1.302
22.7791 1.198
22.8094 1.302
22.8396 1.458
22.8699 1.927
22.9002 1.302
22.9305 2.135
22.9607 1.406
22.9910 1.354
23.0213 1.406
23.0516 1.667
23.0819 1.510
23.1121 1.250
23.1424 1.458
23.1727 2.031
23.2030 1.562
23.2333 1.458
23.2635 1.562
23.2938 2.187
23.3241 1.615
23.3544 2.187
23.3846 1.146
23.4149 1.823
23.4452 1.667
23.4755 1.094
23.5058 1.510
23.5360 2.031
23.5663 1.094
23.5966 1.667
23.6269 1.771
23.6572 1.458
23.6874 1.406
23.7177 1.302
23.7480 1.615
23.7783 1.406
23.8086 1.510
23.8388 1.667
23.8691 1.719
23.8994 1.042
23.9297 1.406
23.9599 1.719
23.9902 1.562
24.0205 1.667
24.0508 1.823
24.0811 1.667
24.1113 1.615
24.1416 1.094
24.1719 2.187
24.2022 1.146
24.2325 1.667
24.2627 1.667
24.2930 1.250
24.3233 1.510
24.3536 1.979
24.3838 1.771
24.4141 1.458
24.4444 1.771
24.4747 1.250
24.5050 1.042
24.5352 1.823
24.5655 1.458
24.5958 2.187
24.6261 1.667
24.6564 1.719
24.6866 1.354
24.7169 1.667
24.7472 1.562
24.7775 2.083
24.8077 1.510
24.8380 1.250
24.8683 1.354
24.8986 1.042
24.9289 1.667
24.9591 1.250
24.9894 1.927
25.0197 1.302
25.0500 1.771
25.0803 1.406
25.1105 1.458
25.1408 1.458
25.1711 0.990
25.2014 1.458
25.2316 1.771
25.2619 1.979
25.2922 1.667
25.3225 1.771
25.3528 1.667
25.3830 2.552
25.4133 2.292
25.4436 2.552
25.4739 2.760
25.5042 2.500
25.5344 2.708
25.5647 3.021
25.5950 3.750
25.6253 3.437
25.6555 3.333
25.6858 4.740
25.7161 4.375
25.7464 5.677
25.7767 5.312
25.8069 4.948
25.8372 4.635
25.8675 4.687
25.8978 3.906
25.9281 2.552
25.9583 2.135
25.9886 2.812
26.0189 2.917
26.0492 1.562
26.0794 2.344
26.1097 3.073
26.1400 2.604
26.1703 2.240
26.2006 2.500
26.2308 2.187
26.2611 1.615
26.2914 1.875
26.3217 1.771
26.3520 1.979
26.3822 1.771
26.4125 1.615
26.4428 1.719
26.4731 1.875
26.5034 1.354
26.5336 2.240
26.5639 1.042
26.5942 2.083
26.6245 2.240
26.6547 1.615
26.6850 1.823
26.7153 2.031
26.7456 1.875
26.7759 1.927
26.8061 1.667
26.8364 1.458
26.8667 1.615
26.8970 1.823
26.9273 1.510
26.9575 1.510
26.9878 2.083
27.0181 1.823
27.0484 1.615
27.0786 2.187
27.1089 2.135
27.1392 1.927
27.1695 1.458
27.1998 1.771
27.2300 1.354
27.2603 1.510
27.2906 1.354
27.3209 1.875
27.3512 1.875
27.3814 2.240
27.4117 1.979
27.4420 1.823
27.4723 1.823
27.5025 2.031
27.5328 1.406
27.5631 1.354
27.5934 1.823
27.6237 1.302
27.6539 1.823
27.6842 1.823
27.7145 1.875
27.7448 1.719
27.7751 1.510
27.8053 2.135
27.8356 2.187
27.8659 1.354
27.8962 2.344
27.9264 1.458
27.9567 1.771
27.9870 1.719
28.0173 1.562
28.0476 1.615
28.0778 1.458
28.1081 1.771
28.1384 2.604
28.1687 1.875
28.1990 1.146
28.2292 2.187
28.2595 2.292
28.2898 1.875
28.3201 1.615
28.3503 2.031
28.3806 1.667
28.4109 1.979
28.4412 2.135
28.4715 2.083
28.5017 1.198
28.5320 1.354
28.5623 1.823
28.5926 2.187
28.6229 1.198
28.6531 2.396
28.6834 1.771
28.7137 1.979
28.7440 2.240
28.7742 1.927
28.8045 2.760
28.8348 2.031
28.8651 2.344
28.8954 1.667
28.9256 2.656
28.9559 2.240
28.9862 1.979
29.0165 1.719
29.0468 3.073
29.0770 3.125
29.1073 3.177
29.1376 3.021
29.1679 3.125
29.1981 4.271
29.2284 3.906
29.2587 4.115
29.2890 4.583
29.3193 5.000
29.3495 5.781
29.3798 6.615
29.4101 9.010
29.4404 7.292
29.4707 9.740
29.5009 10.208
29.5312 8.698
29.5615 9.115
29.5918 6.875
29.6221 7.396
29.6523 5.625
29.6826 5.104
29.7129 4.635
29.7432 3.229
29.7734 3.125
29.8037 3.542
29.8340 3.073
29.8643 2.760
29.8946 3.594
29.9248 2.292
29.9551 2.760
29.9854 2.552
30.0157 3.073
30.0460 2.604
30.0762 2.812
30.1065 2.448
30.1368 2.552
30.1671 3.021
30.1973 2.083
30.2276 2.292
30.2579 2.187
30.2882 2.448
30.3185 2.083
30.3487 2.604
30.3790 2.187
30.4093 2.396
30.4396 2.604
30.4699 2.604
30.5001 3.542
30.5304 3.177
30.5607 2.656
30.5910 2.135
30.6212 2.083
30.6515 3.333
30.6818 2.708
30.7121 3.698
30.7424 2.656
30.7726 3.542
30.8029 2.708
30.8332 2.708
30.8635 3.177
30.8938 4.062
30.9240 4.271
30.9543 4.323
30.9846 4.427
31.0149 5.417
31.0451 4.271
31.0754 4.323
31.1057 5.729
31.1360 6.094
31.1663 5.312
31.1965 6.458
31.2268 7.969
31.2571 8.281
31.2874 7.917
31.3177 10.781
31.3479 12.240
31.3782 13.958
31.4085 14.687
31.4388 17.552
31.4690 22.760
31.4993 24.844
31.5296 28.750
31.5599 36.198
31.5902 37.396
31.6204 37.604
31.6507 34.219
31.6810 33.229
31.7113 28.542
31.7416 23.750
31.7718 19.062
31.8021 15.781
31.8324 14.687
31.8627 11.458
31.8929 10.937
31.9232 10.521
31.9535 9.531
31.9838 7.500
32.0141 6.823
32.0443 6.406
32.0746 5.052
32.1049 5.104
32.1352 5.365
32.1655 5.104
32.1957 4.896
32.2260 4.271
32.2563 3.958
32.2866 4.427
32.3169 3.542
32.3471 4.115
32.3774 3.802
32.4077 4.531
32.4380 4.010
32.4682 3.177
32.4985 4.010
32.5288 2.917
32.5591 2.865
32.5894 2.917
32.6196 2.083
32.6499 2.969
32.6802 3.542
32.7105 2.708
32.7408 2.708
32.7710 2.865
32.8013 3.073
32.8316 2.708
32.8619 2.552
32.8921 2.760
32.9224 2.760
32.9527 2.500
32.9830 2.604
33.0133 2.448
33.0435 3.437
33.0738 2.604
33.1041 2.344
33.1344 1.719
33.1647 2.135
33.1949 2.656
33.2252 2.500
33.2555 1.615
33.2858 2.187
33.3160 2.396
33.3463 1.875
33.3766 2.396
33.4069 2.708
33.4372 1.615
33.4674 2.396
33.4977 2.448
33.5280 2.760
33.5583 3.177
33.5886 2.344
33.6188 2.760
33.6491 2.760
33.6794 2.083
33.7097 2.760
33.7399 2.500
33.7702 2.708
33.8005 2.917
33.8308 2.760
33.8611 3.437
33.8913 3.854
33.9216 3.854
33.9519 4.115
33.9822 4.167
34.0125 5.000
34.0427 4.531
34.0730 7.135
34.1033 10.573
34.1336 12.292
34.1638 15.156
34.1941 19.740
34.2244 25.208
34.2547 24.479
34.2850 24.948
34.3152 21.198
34.3455 17.396
34.3758 12.292
34.4061 10.521
34.4364 7.344
34.4666 5.312
34.4969 4.479
34.5272 4.427
34.5575 4.271
34.5877 4.323
34.6180 4.635
34.6483 4.115
34.6786 3.073
34.7089 3.125
34.7391 2.917
34.7694 3.750
34.7997 3.125
34.8300 3.021
34.8603 3.125
34.8905 2.917
34.9208 2.760
34.9511 3.229
34.9814 3.490
35.0116 3.177
35.0419 3.177
35.0722 2.812
35.1025 3.073
35.1328 3.229
35.1630 3.333
35.1933 3.437
35.2236 3.802
35.2539 3.385
35.2842 4.479
35.3144 3.542
35.3447 4.375
35.3750 4.583
35.4053 4.479
35.4356 4.167
35.4658 4.740
35.4961 4.740
35.5264 4.687
35.5567 5.573
35.5869 5.052
35.6172 6.979
35.6475 8.229
35.6778 7.292
35.7081 7.031
35.7383 8.437
35.7686 9.583
35.7989 12.083
35.8292 12.187
35.8595 14.792
35.8897 15.208
35.9200 20.052
35.9503 22.187
35.9806 25.521
36.0108 30.104
36.0411 36.719
36.0714 38.229
36.1017 40.260
36.1320 39.167
36.1622 38.698
36.1925 35.833
36.2228 27.760
36.2531 25.937
36.2834 20.052
36.3136 17.240
36.3439 15.000
36.3742 11.875
36.4045 11.146
36.4347 9.062
36.4650 7.865
36.4953 7.292
36.5256 7.083
36.5559 6.302
36.5861 5.469
36.6164 5.260
36.6467 4.531
36.6770 5.104
36.7073 3.333
36.7375 3.958
36.7678 3.177
36.7981 3.333
36.8284 3.646
36.8586 3.698
36.8889 2.969
36.9192 2.865
36.9495 3.125
36.9798 2.812
37.0100 2.292
37.0403 3.646
37.0706 2.812
37.1009 2.500
37.1312 2.396
37.1614 3.125
37.1917 2.708
37.2220 3.021
37.2523 1.927
37.2825 3.021
37.3128 1.979
37.3431 1.615
37.3734 1.719
37.4037 1.927
37.4339 1.615
37.4642 2.500
37.4945 1.875
37.5248 1.979
37.5551 1.875
37.5853 2.031
37.6156 2.187
37.6459 1.615
37.6762 2.083
37.7064 1.927
37.7367 1.719
37.7670 1.719
37.7973 2.187
37.8276 1.458
37.8578 1.979
37.8881 1.250
37.9184 2.083
37.9487 2.031
37.9790 1.771
38.0092 1.979
38.0395 1.771
38.0698 2.135
38.1001 2.187
38.1304 2.031
38.1606 1.458
38.1909 1.823
38.2212 1.198
38.2515 1.771
38.2817 1.562
38.3120 1.615
38.3423 1.406
38.3726 1.615
38.4029 1.510
38.4331 1.719
38.4634 1.458
38.4937 1.198
38.5240 1.562
38.5543 1.146
38.5845 1.354
38.6148 1.302
38.6451 1.771
38.6754 1.094
38.7056 1.510
38.7359 1.927
38.7662 1.927
38.7965 1.979
38.8268 1.198
38.8570 1.562
38.8873 1.667
38.9176 1.458
38.9479 1.406
38.9782 1.354
39.0084 1.406
39.0387 1.198
39.0690 1.510
39.0993 1.406
39.1295 1.146
39.1598 1.823
39.1901 1.302
39.2204 1.094
39.2507 1.406
39.2809 1.615
39.3112 1.406
39.3415 1.146
39.3718 1.510
39.4021 1.667
39.4323 1.615
39.4626 1.250
39.4929 1.562
39.5232 1.354
39.5534 1.562
39.5837 1.042
39.6140 1.875
39.6443 0.833
39.6746 1.458
39.7048 1.146
39.7351 1.510
39.7654 1.667
39.7957 1.250
39.8260 1.510
39.8562 1.302
39.8865 1.042
39.9168 1.198
39.9471 1.146
39.9773 0.937
40.0076 1.198
40.0379 1.823
40.0682 1.198
40.0985 0.885
40.1287 1.094
40.1590 0.937
40.1893 1.042
40.2196 0.885
40.2499 1.354
40.2801 1.042
40.3104 1.354
40.3407 1.510
40.3710 1.354
40.4012 1.198
40.4315 1.042
40.4618 1.250
40.4921 1.042
40.5224 1.146
40.5526 1.042
40.5829 1.042
40.6132 0.937
40.6435 1.354
40.6738 0.937
40.7040 0.729
40.7343 1.458
40.7646 1.406
40.7949 1.198
40.8251 1.198
40.8554 1.146
40.8857 1.667
40.9160 1.250
40.9463 0.885
40.9765 1.406
41.0068 1.562
41.0371 0.833
41.0674 1.250
41.0977 1.042
41.1279 0.885
41.1582 1.094
41.1885 0.937
41.2188 1.406
41.2491 1.510
41.2793 1.667
41.3096 0.885
41.3399 1.146
41.3702 1.146
41.4004 0.937
41.4307 1.302
41.4610 1.250
41.4913 1.250
41.5216 0.469
41.5518 1.146
41.5821 1.615
41.6124 0.990
41.6427 0.885
41.6730 1.146
41.7032 1.094
41.7335 0.625
41.7638 1.719
41.7941 0.990
41.8243 0.781
41.8546 1.406
41.8849 1.406
41.9152 0.781
41.9455 1.250
41.9757 0.573
42.0060 1.354
42.0363 1.510
42.0666 1.042
42.0969 1.458
42.1271 1.510
42.1574 1.458
42.1877 0.990
42.2180 1.250
42.2482 1.094
42.2785 1.302
42.3088 0.937
42.3391 1.354
42.3694 1.302
42.3996 0.937
42.4299 1.354
42.4602 1.094
42.4905 1.354
42.5208 1.354
42.5510 0.781
42.5813 1.406
42.6116 1.302
42.6419 1.250
42.6721 1.042
42.7024 0.885
42.7327 1.094
42.7630 1.042
42.7933 0.990
42.8235 1.458
42.8538 0.990
42.8841 1.094
42.9144 0.781
42.9447 0.885
42.9749 0.937
43.0052 1.250
43.0355 1.198
43.0658 1.094
43.0960 0.885
43.1263 0.781
43.1566 1.354
43.1869 1.615
43.2172 0.781
43.2474 1.406
43.2777 1.354
43.3080 1.302
43.3383 1.302
43.3686 0.573
43.3988 0.937
43.4291 1.146
43.4594 0.885
43.4897 1.094
43.5199 1.510
43.5502 1.302
43.5805 0.937
43.6108 0.885
43.6411 0.781
43.6713 0.990
43.7016 1.354
43.7319 2.135
43.7622 1.094
43.7925 1.094
43.8227 0.990
43.8530 1.042
43.8833 1.562
43.9136 1.146
43.9439 1.146
43.9741 0.625
44.0044 0.885
44.0347 0.937
44.0650 0.990
44.0952 1.406
44.1255 1.354
44.1558 0.990
44.1861 0.990
44.2164 1.302
44.2466 1.510
44.2769 0.885
44.3072 0.937
44.3375 1.146
44.3678 1.042
44.3980 1.302
44.4283 1.094
44.4586 1.302
44.4889 1.458
44.5191 0.885
44.5494 1.042
44.5797 1.719
44.6100 1.615
44.6403 1.302
44.6705 1.667
44.7008 1.719
44.7311 1.875
44.7614 2.240
44.7917 1.927
44.8219 1.562
44.8522 2.135
44.8825 1.510
44.9128 1.927
44.9430 2.135
44.9733 2.135
45.0036 1.875
45.0339 1.771
45.0642 1.562
45.0944 1.562
45.1247 1.719
45.1550 1.615
45.1853 1.250
45.2156 1.302
45.2458 1.146
45.2761 1.458
45.3064 1.198
45.3367 1.562
45.3669 1.302
45.3972 1.510
45.4275 1.250
45.4578 0.833
45.4881 1.146
45.5183 1.146
45.5486 0.885
45.5789 0.937
45.6092 1.615
45.6395 1.719
45.6697 1.198
45.7000 0.937
45.7303 0.937
45.7606 1.146
45.7908 1.094
45.8211 1.094
45.8514 1.771
45.8817 1.198
45.9120 1.458
45.9422 1.615
45.9725 1.094
46.0028 1.198
46.0331 1.198
46.0634 1.510
46.0936 1.302
46.1239 1.354
46.1542 1.146
46.1845 1.458
46.2147 1.823
46.2450 1.250
46.2753 1.146
46.3056 1.406
46.3359 1.615
46.3661 1.354
46.3964 1.510
46.4267 1.615
46.4570 1.771
46.4873 1.510
46.5175 1.510
46.5478 1.250
46.5781 1.615
46.6084 2.187
46.6386 1.771
46.6689 1.510
46.6992 2.083
46.7295 2.187
46.7598 1.927
46.7900 1.510
46.8203 2.031
46.8506 2.344
46.8809 2.396
46.9112 1.510
46.9414 1.823
46.9717 2.552
47.0020 2.969
47.0323 2.604
47.0626 3.021
47.0928 2.656
47.1231 3.333
47.1534 2.396
47.1837 3.646
47.2139 3.802
47.2442 4.427
47.2745 4.635
47.3048 4.792
47.3351 5.312
47.3653 4.896
47.3956 5.104
47.4259 4.948
47.4562 4.375
47.4865 4.010
47.5167 3.542
47.5470 4.219
47.5773 3.802
47.6076 2.812
47.6378 2.917
47.6681 2.812
47.6984 2.708
47.7287 2.604
47.7590 3.333
47.7892 2.917
47.8195 1.979
47.8498 1.927
47.8801 2.344
47.9104 1.823
47.9406 1.823
47.9709 1.354
48.0012 1.875
48.0315 1.719
48.0617 2.500
48.0920 2.344
48.1223 1.615
48.1526 1.823
48.1829 1.406
48.2131 1.667
48.2434 1.458
48.2737 1.406
48.3040 1.927
48.3343 1.198
48.3645 1.250
48.3948 1.406
48.4251 1.198
48.4554 1.562
48.4856 1.562
48.5159 1.615
48.5462 1.562
48.5765 1.719
48.6068 1.458
48.6370 1.198
48.6673 1.719
48.6976 1.250
48.7279 1.458
48.7582 1.615
48.7884 1.719
48.8187 1.354
48.8490 1.510
48.8793 1.302
48.9095 1.302
48.9398 1.510
48.9701 1.927
49.0004 1.250
49.0307 1.198
49.0609 1.250
49.0912 1.719
49.1215 1.562
49.1518 1.771
49.1821 1.771
49.2123 1.302
49.2426 1.354
49.2729 0.833
49.3032 1.406
49.3334 1.406
49.3637 1.302
49.3940 1.198
49.4243 1.406
49.4546 1.250
49.4848 1.510
49.5151 1.302
49.5454 1.354
49.5757 1.667
49.6060 0.729
49.6362 1.094
49.6665 0.937
49.6968 1.198
49.7271 1.458
49.7574 1.615
49.7876 1.094
49.8179 1.458
49.8482 1.302
49.8785 1.354
49.9087 1.250
49.9390 1.094
49.9693 1.146
49.9996 1.406
50.0299 1.875
50.0601 1.146
50.0904 1.354
50.1207 1.302
50.1510 1.250
50.1813 1.250
50.2115 0.885
50.2418 1.250
50.2721 1.094
50.3024 1.250
50.3326 1.094
50.3629 1.354
50.3932 1.094
50.4235 0.990
50.4538 1.094
50.4840 1.042
50.5143 1.042
50.5446 1.250
50.5749 1.562
50.6052 1.615
50.6354 1.198
50.6657 1.198
50.6960 1.562
50.7263 1.042
50.7565 1.302
50.7868 1.094
50.8171 0.990
50.8474 0.885
50.8777 1.354
50.9079 1.146
50.9382 0.937
50.9685 0.990
50.9988 1.354
51.0291 1.146
51.0593 1.927
51.0896 1.042
51.1199 1.198
51.1502 1.667
51.1804 0.833
51.2107 1.146
51.2410 1.250
51.2713 1.302
51.3016 0.937
51.3318 1.250
51.3621 1.146
51.3924 1.198
51.4227 1.198
51.4530 1.354
51.4832 1.615
51.5135 1.094
51.5438 1.042
51.5741 1.250
51.6043 1.458
51.6346 1.302
51.6649 1.354
51.6952 1.302
51.7255 1.510
51.7557 1.250
51.7860 1.042
51.8163 0.781
51.8466 0.937
51.8769 1.198
51.9071 1.146
51.9374 1.146
51.9677 1.198
51.9980 1.302
52.0282 0.990
52.0585 1.042
52.0888 1.406
52.1191 1.250
52.1494 1.146
52.1796 1.771
52.2099 1.094
52.2402 1.146
52.2705 1.198
52.3008 1.302
52.3310 1.354
52.3613 1.458
52.3916 1.250
52.4219 1.198
52.4521 1.042
52.4824 1.354
52.5127 1.250
52.5430 1.250
52.5733 1.354
52.6035 1.458
52.6338 1.198
52.6641 1.146
52.6944 1.042
52.7247 1.094
52.7549 1.146
52.7852 1.042
52.8155 1.771
52.8458 0.833
52.8761 1.146
52.9063 1.302
52.9366 1.198
52.9669 1.510
52.9972 0.937
53.0274 1.094
53.0577 1.354
53.0880 1.458
53.1183 1.562
53.1486 1.510
53.1788 1.250
53.2091 1.042
53.2394 1.354
53.2697 1.146
53.3000 1.094
53.3302 0.990
53.3605 1.198
53.3908 1.979
53.4211 1.094
53.4513 1.667
53.4816 1.406
53.5119 1.198
53.5422 1.146
53.5725 1.094
53.6027 1.615
53.6330 1.615
53.6633 1.667
53.6936 1.458
53.7239 1.562
53.7541 1.042
53.7844 1.615
53.8147 1.094
53.8450 1.198
53.8752 1.302
53.9055 1.562
53.9358 1.094
53.9661 1.302
53.9964 1.146
54.0266 1.146
54.0569 1.510
54.0872 1.042
54.1175 1.406
54.1478 1.146
54.1780 1.094
54.2083 1.406
54.2386 1.146
54.2689 1.094
54.2991 1.250
54.3294 1.302
54.3597 1.354
54.3900 1.406
54.4203 1.302
54.4505 1.823
54.4808 1.354
54.5111 0.937
54.5414 1.458
54.5717 1.354
54.6019 0.990
54.6322 1.042
54.6625 1.198
54.6928 1.406
54.7230 1.510
54.7533 1.719
54.7836 1.667
54.8139 1.198
54.8442 1.510
54.8744 1.302
54.9047 1.458
54.9350 1.667
54.9653 1.667
54.9956 1.719
55.0258 1.042
55.0561 1.979
55.0864 1.562
55.1167 1.823
55.1469 1.354
55.1772 1.979
55.2075 1.042
55.2378 2.083
55.2681 1.146
55.2983 1.510
55.3286 1.719
55.3589 1.823
55.3892 1.094
55.4195 1.719
55.4497 1.458
55.4800 1.406
55.5103 1.510
55.5406 1.562
55.5709 1.354
55.6011 1.979
55.6314 1.823
55.6617 2.292
55.6920 1.562
55.7222 1.823
55.7525 1.667
55.7828 1.823
55.8131 1.927
55.8434 1.719
55.8736 2.135
55.9039 2.187
55.9342 1.979
55.9645 2.448
55.9948 2.812
56.0250 2.344
56.0553 3.646
56.0856 3.698
56.1159 3.958
56.1461 4.115
56.1764 3.906
56.2067 5.000
56.2370 5.365
56.2673 6.667
56.2975 8.802
56.3278 9.479
56.3581 9.167
56.3884 10.417
56.4187 9.479
56.4489 10.729
56.4792 12.604
56.5095 10.729
56.5398 10.052
56.5700 8.906
56.6003 9.479
56.6306 6.771
56.6609 7.604
56.6912 5.625
56.7214 6.042
56.7517 5.000
56.7820 4.583
56.8123 3.490
56.8426 2.865
56.8728 3.802
56.9031 3.021
56.9334 3.073
56.9637 2.656
56.9939 1.771
57.0242 2.292
57.0545 2.083
57.0848 2.187
57.1151 1.615
57.1453 1.615
57.1756 2.187
57.2059 1.927
57.2362 1.875
57.2665 1.354
57.2967 1.875
57.3270 1.458
57.3573 1.354
57.3876 1.510
57.4178 1.354
57.4481 1.615
57.4784 1.198
57.5087 1.302
57.5390 0.990
57.5692 1.615
57.5995 1.042
57.6298 1.354
57.6601 1.667
57.6904 1.406
57.7206 0.937
57.7509 1.458
57.7812 1.042
57.8115 1.042
57.8417 0.990
57.8720 1.458
57.9023 1.562
57.9326 1.094
57.9629 0.937
57.9931 1.302
58.0234 1.250
58.0537 1.250
58.0840 1.302
58.1143 0.990
58.1445 0.990
58.1748 1.562
58.2051 1.250
58.2354 0.990
58.2656 0.781
58.2959 1.094
58.3262 1.198
58.3565 1.302
58.3868 0.990
58.4170 0.937
58.4473 0.885
58.4776 1.094
58.5079 1.250
58.5382 1.354
58.5684 1.146
58.5987 1.354
58.6290 1.302
58.6593 1.198
58.6896 1.042
58.7198 1.042
58.7501 1.250
58.7804 1.146
58.8107 0.833
58.8409 1.146
58.8712 1.302
58.9015 0.885
58.9318 1.146
58.9621 0.885
58.9923 1.042
59.0226 1.042
59.0529 1.302
59.0832 1.042
59.1135 1.354
59.1437 1.042
59.1740 1.354
59.2043 0.937
59.2346 1.094
59.2648 1.406
59.2951 0.937
59.3254 1.146
59.3557 0.781
59.3860 1.094
59.4162 1.302
59.4465 1.198
59.4768 1.198
59.5071 0.990
59.5374 0.937
59.5676 1.198
59.5979 0.833
59.6282 0.990
59.6585 1.094
59.6887 0.885
59.7190 1.302
59.7493 1.146
59.7796 1.302
59.8099 1.302
59.8401 1.042
59.8704 0.885
59.9007 1.458
59.9310 1.042
59.9613 0.677
59.9915 1.510
60.0218 1.094
60.0521 1.146
60.0824 1.250
60.1126 1.458
60.1429 1.042
60.1732 1.615
60.2035 0.885
60.2338 1.198
60.2640 1.302
60.2943 1.042
60.3246 1.979
60.3549 0.885
60.3852 1.667
60.4154 1.198
60.4457 1.562
60.4760 1.250
60.5063 1.094
60.5365 1.146
60.5668 1.719
60.5971 1.198
60.6274 1.510
60.6577 0.677
60.6879 1.406
60.7182 1.146
60.7485 1.510
60.7788 1.198
60.8091 1.042
60.8393 1.250
60.8696 1.875
60.8999 1.406
60.9302 1.146
60.9604 1.771
60.9907 1.406
61.0210 1.406
61.0513 1.667
61.0816 1.562
61.1118 1.406
61.1421 1.562
61.1724 1.615
61.2027 2.083
61.2330 1.406
61.2632 2.344
61.2935 2.812
61.3238 2.708
61.3541 1.823
61.3844 2.292
61.4146 1.823
61.4449 2.031
61.4752 2.135
61.5055 2.396
61.5357 2.187
61.5660 2.135
61.5963 1.979
61.6266 2.292
61.6569 1.979
61.6871 1.302
61.7174 1.458
61.7477 1.354
61.7780 1.354
61.8083 1.510
61.8385 1.875
61.8688 1.927
61.8991 1.823
61.9294 1.719
61.9596 1.406
61.9899 1.458
62.0202 1.562
62.0505 1.562
62.0808 1.771
62.1110 2.031
62.1413 2.083
62.1716 2.187
62.2019 1.771
62.2322 2.135
62.2624 2.604
62.2927 2.031
62.3230 2.031
62.3533 2.240
62.3835 3.542
62.4138 3.073
62.4441 3.281
62.4744 4.167
62.5047 4.323
62.5349 3.750
62.5652 4.323
62.5955 3.906
62.6258 4.479
62.6561 5.625
62.6863 5.885
62.7166 5.365
62.7469 5.677
62.7772 6.302
62.8074 5.365
62.8377 4.948
62.8680 5.000
62.8983 5.104
62.9286 3.750
62.9588 3.177
62.9891 3.177
63.0194 2.240
63.0497 2.969
63.0800 2.812
63.1102 1.979
63.1405 2.083
63.1708 2.448
63.2011 2.135
63.2313 2.135
63.2616 2.031
63.2919 1.823
63.3222 1.406
63.3525 1.823
63.3827 1.615
63.4130 1.250
63.4433 1.615
63.4736 1.562
63.5039 1.354
63.5341 1.667
63.5644 1.302
63.5947 1.198
63.6250 1.198
63.6552 1.406
63.6855 1.146
63.7158 1.771
63.7461 1.354
63.7764 1.354
63.8066 1.250
63.8369 1.250
63.8672 1.198
63.8975 1.146
63.9278 1.302
63.9580 0.937
63.9883 1.146
64.0186 1.094
64.0489 1.406
64.0791 0.833
64.1094 1.146
64.1397 1.094
64.1700 1.302
64.2003 1.146
64.2305 1.354
64.2608 0.573
64.2911 0.833
64.3214 0.990
64.3517 1.042
64.3819 1.042
64.4122 0.937
64.4425 1.146
64.4728 0.990
64.5031 1.354
64.5333 1.146
64.5636 1.094
64.5939 1.302
64.6242 1.198
64.6544 0.833
64.6847 1.771
64.7150 1.354
64.7453 1.302
64.7756 1.042
64.8058 1.042
64.8361 1.198
64.8664 1.094
64.8967 1.198
64.9270 1.250
64.9572 1.094
64.9875 0.990
65.0178 1.198
65.0481 0.833
65.0783 1.562
65.1086 1.094
65.1389 1.094
65.1692 0.729
65.1995 0.990
65.2297 1.406
65.2600 1.146
65.2903 1.146
65.3206 1.302
65.3509 0.781
65.3811 1.198
65.4114 1.250
65.4417 0.677
65.4720 1.146
65.5022 1.094
65.5325 1.042
65.5628 0.885
65.5931 0.990
65.6234 0.781
65.6536 0.990
65.6839 1.198
65.7142 1.042
65.7445 1.354
65.7748 1.250
65.8050 1.406
65.8353 1.198
65.8656 1.354
65.8959 1.875
65.9261 1.406
65.9564 1.458
65.9867 1.719
66.0170 2.083
66.0473 2.031
66.0775 1.979
66.1078 2.083
66.1381 2.187
66.1684 1.667
66.1987 2.760
66.2289 2.292
66.2592 1.458
66.2895 2.031
66.3198 1.302
66.3500 2.344
66.3803 1.875
66.4106 2.448
66.4409 2.083
66.4712 1.562
66.5014 1.354
66.5317 1.875
66.5620 1.562
66.5923 1.198
66.6226 1.302
66.6528 1.198
66.6831 1.354
66.7134 1.354
66.7437 1.354
66.7739 1.562
66.8042 1.458
66.8345 1.354
66.8648 1.354
66.8951 1.302
66.9253 1.042
66.9556 1.198
66.9859 1.198
67.0162 1.510
67.0465 1.510
67.0767 1.406
67.1070 1.562
67.1373 1.458
67.1676 1.875
67.1978 1.250
67.2281 1.302
67.2584 1.979
67.2887 2.396
67.3190 2.344
67.3492 2.240
67.3795 2.083
67.4098 2.396
67.4401 2.292
67.4704 3.073
67.5006 3.073
67.5309 3.750
67.5612 4.219
67.5915 3.490
67.6218 3.958
67.6520 4.375
67.6823 4.531
67.7126 5.781
67.7429 4.896
67.7731 5.885
67.8034 6.667
67.8337 5.937
67.8640 5.625
67.8943 5.833
67.9245 5.417
67.9548 4.271
67.9851 4.531
68.0154 4.740
68.0457 4.375
68.0759 3.906
68.1062 3.906
68.1365 2.969
68.1668 3.021
68.1970 2.812
68.2273 2.865
68.2576 2.031
68.2879 2.344
68.3182 2.240
68.3484 2.344
68.3787 1.771
68.4090 1.823
68.4393 2.396
68.4696 1.823
68.4998 1.927
68.5301 1.875
68.5604 1.979
68.5907 2.396
68.6209 2.344
68.6512 2.344
68.6815 2.760
68.7118 2.656
68.7421 3.021
68.7723 2.917
68.8026 3.281
68.8329 3.229
68.8632 2.969
68.8935 3.750
68.9237 4.271
68.9540 3.177
68.9843 3.646
69.0146 3.229
69.0448 3.385
69.0751 3.229
69.1054 3.125
69.1357 2.708
69.1660 2.187
69.1962 2.240
69.2265 2.812
69.2568 2.552
69.2871 2.240
69.3174 1.979
69.3476 1.875
69.3779 1.562
69.4082 1.302
69.4385 2.135
69.4687 1.354
69.4990 1.302
69.5293 1.250
69.5596 1.771
69.5899 1.302
69.6201 0.781
69.6504 1.250
69.6807 1.771
69.7110 1.146
69.7413 0.781
69.7715 1.302
69.8018 1.354
69.8321 0.417
69.8624 0.937
69.8926 1.094
69.9229 0.885
69.9532 0.625
69.9835 0.833
70.0138 0.833
70.0440 0.937
70.0743 1.198
70.1046 1.250
70.1349 1.250
70.1652 0.885
70.1954 0.990
70.2257 0.521
70.2560 0.833
70.2863 0.781
70.3166 0.885
70.3468 1.250
70.3771 0.729
70.4074 1.250
70.4377 0.833
70.4679 0.990
70.4982 0.625
70.5285 0.729
70.5588 1.042
70.5891 0.885
70.6193 0.937
70.6496 1.094
70.6799 0.990
70.7102 0.521
70.7405 0.729
70.7707 1.719
70.8010 0.990
70.8313 0.833
70.8616 0.990
70.8918 0.833
70.9221 0.990
70.9524 0.937
70.9827 0.885
71.0130 0.937
71.0432 0.937
71.0735 1.094
71.1038 0.573
71.1341 1.198
71.1644 1.146
71.1946 0.781
71.2249 0.781
71.2552 0.781
71.2855 1.042
71.3157 0.990
71.3460 0.573
71.3763 0.833
71.4066 0.885
71.4369 1.302
71.4671 1.094
71.4974 0.990
71.5277 1.250
71.5580 0.833
71.5883 1.094
71.6185 0.781
71.6488 0.729
71.6791 1.042
71.7094 0.990
71.7396 1.354
71.7699 0.625
71.8002 0.937
71.8305 1.042
71.8608 0.990
71.8910 0.677
71.9213 0.729
71.9516 0.990
71.9819 0.677
72.0122 0.885
72.0424 0.937
72.0727 0.937
72.1030 0.625
72.1333 0.833
72.1635 0.937
72.1938 1.510
72.2241 0.729
72.2544 1.250
72.2847 1.094
72.3149 1.146
72.3452 1.250
72.3755 1.302
72.4058 0.781
72.4361 1.042
72.4663 1.458
72.4966 0.729
72.5269 1.250
72.5572 0.833
72.5874 0.937
72.6177 0.990
72.6480 0.833
72.6783 0.677
72.7086 1.146
72.7388 0.729
72.7691 0.885
72.7994 1.250
72.8297 1.250
72.8600 0.781
72.8902 0.677
72.9205 0.625
72.9508 1.042
72.9811 0.885
73.0113 0.729
73.0416 0.469
73.0719 0.573
73.1022 0.833
73.1325 1.250
73.1627 0.885
73.1930 0.729
73.2233 0.885
73.2536 0.781
73.2839 0.990
73.3141 0.833
73.3444 0.833
73.3747 0.833
73.4050 0.937
73.4353 0.469
73.4655 0.729
73.4958 0.990
73.5261 1.042
73.5564 0.937
73.5866 0.573
73.6169 0.937
73.6472 0.781
73.6775 0.885
73.7078 0.885
73.7380 1.146
73.7683 0.677
73.7986 0.885
73.8289 0.729
73.8592 0.729
73.8894 0.521
73.9197 1.042
73.9500 0.677
73.9803 0.573
74.0105 0.625
74.0408 0.937
74.0711 0.729
74.1014 0.729
74.1317 0.521
74.1619 1.094
74.1922 0.729
74.2225 0.729
74.2528 0.729
74.2831 0.417
74.3133 0.833
74.3436 0.781
74.3739 0.885
74.4042 0.729
74.4344 0.729
74.4647 0.781
74.4950 0.521
74.5253 0.781
74.5556 0.729
74.5858 0.677
74.6161 0.469
74.6464 0.729
74.6767 0.625
74.7070 0.677
74.7372 0.729
74.7675 0.885
74.7978 0.729
74.8281 0.781
74.8583 0.521
74.8886 0.677
74.9189 0.781
74.9492 0.729
74.9795 0.781
75.0097 0.990
75.0400 0.625
75.0703 1.042
75.1006 0.729
75.1309 0.781
75.1611 0.625
75.1914 0.625
75.2217 0.885
75.2520 0.625
75.2822 0.990
75.3125 0.521
75.3428 0.677
75.3731 0.729
75.4034 0.625
75.4336 0.729
75.4639 0.365
75.4942 1.146
75.5245 0.729
75.5548 0.833
75.5850 1.302
75.6153 0.729
75.6456 0.833
75.6759 0.885
75.7061 0.573
75.7364 1.146
75.7667 0.885
75.7970 1.094
75.8273 0.833
75.8575 0.573
75.8878 0.990
75.9181 0.729
75.9484 0.365
75.9787 0.990
76.0089 0.677
76.0392 1.042
76.0695 0.729
76.0998 0.729
76.1301 1.094
76.1603 0.937
76.1906 0.781
76.2209 1.094
76.2512 0.677
76.2814 0.937
76.3117 1.250
76.3420 0.833
76.3723 1.198
76.4026 0.885
76.4328 1.354
76.4631 1.146
76.4934 0.833
76.5237 1.094
76.5540 0.990
76.5842 0.833
76.6145 0.990
76.6448 0.781
76.6751 1.406
76.7053 0.573
76.7356 1.302
76.7659 1.198
76.7962 1.354
76.8265 1.458
76.8567 0.729
76.8870 1.146
76.9173 1.094
76.9476 1.146
76.9779 1.406
77.0081 0.990
77.0384 0.885
77.0687 1.042
77.0990 0.729
77.1292 1.042
77.1595 1.198
77.1898 1.146
77.2201 1.302
77.2504 1.198
77.2806 1.146
77.3109 0.937
77.3412 0.521
77.3715 0.990
77.4018 1.146
77.4320 1.250
77.4623 0.833
77.4926 0.833
77.5229 1.198
77.5531 0.521
77.5834 0.521
77.6137 0.937
77.6440 0.833
77.6743 0.833
77.7045 0.365
77.7348 0.937
77.7651 0.729
77.7954 0.937
77.8257 0.990
77.8559 0.781
77.8862 0.469
77.9165 0.885
77.9468 0.573
77.9770 0.885
78.0073 0.625
78.0376 0.729
78.0679 0.729
78.0982 0.990
78.1284 0.833
78.1587 0.677
78.1890 0.729
78.2193 1.094
78.2496 0.833
78.2798 0.729
78.3101 0.312
78.3404 0.990
78.3707 0.677
78.4009 0.990
78.4312 0.573
78.4615 0.521
78.4918 0.781
78.5221 0.521
78.5523 0.521
78.5826 0.677
78.6129 0.677
78.6432 0.677
78.6735 0.781
78.7037 0.781
78.7340 0.885
78.7643 0.729
78.7946 0.677
78.8248 1.198
78.8551 0.885
78.8854 0.625
78.9157 1.094
78.9460 0.469
78.9762 0.521
79.0065 0.573
79.0368 1.042
79.0671 0.833
79.0974 0.677
79.1276 0.833
79.1579 0.365
79.1882 0.417
79.2185 1.250
79.2488 1.146
79.2790 0.469
79.3093 0.365
79.3396 0.469
79.3699 0.625
79.4001 0.729
79.4304 0.833
79.4607 0.937
79.4910 1.146
79.5213 1.042
79.5515 1.042
79.5818 0.729
79.6121 0.729
79.6424 0.521
79.6727 0.833
79.7029 0.417
79.7332 0.781
79.7635 0.417
79.7938 0.885
79.8240 0.781
79.8543 1.094
79.8846 1.094
79.9149 0.625
79.9452 0.833
79.9754 0.833
80.0057 0.885
80.0360 0.729
80.0663 0.573
80.0966 0.885
80.1268 0.521
80.1571 0.937
80.1874 0.833
80.2177 0.573
80.2479 1.094
80.2782 0.833
80.3085 0.990
80.3388 0.729
80.3691 0.833
80.3993 0.729
80.4296 1.198
80.4599 0.833
80.4902 0.677
80.5205 0.573
80.5507 0.677
80.5810 0.677
80.6113 0.729
80.6416 0.833
80.6718 1.198
80.7021 0.781
80.7324 1.042
80.7627 0.885
80.7930 0.885
80.8232 0.937
80.8535 0.677
80.8838 0.729
80.9141 0.469
80.9444 0.833
80.9746 0.417
81.0049 0.885
81.0352 0.833
81.0655 0.781
81.0957 0.729
81.1260 0.885
81.1563 1.198
81.1866 1.406
81.2169 0.885
81.2471 1.146
81.2774 1.042
81.3077 0.885
81.3380 0.990
81.3683 0.729
81.3985 0.990
81.4288 0.729
81.4591 0.677
81.4894 0.781
81.5196 0.729
81.5499 0.677
81.5802 0.729
81.6105 0.781
81.6408 0.573
81.6710 0.521
81.7013 0.729
81.7316 0.729
81.7619 0.937
81.7922 0.625
81.8224 0.625
81.8527 0.677
81.8830 0.417
81.9133 0.833
81.9436 0.521
81.9738 0.677
82.0041 0.677
82.0344 0.937
82.0647 0.469
82.0949 0.677
82.1252 0.885
82.1555 0.729
82.1858 0.573
82.2161 0.729
82.2463 0.937
82.2766 0.521
82.3069 0.677
82.3372 0.260
82.3675 0.729
82.3977 0.729
82.4280 0.625
82.4583 0.729
82.4886 0.833
82.5188 0.573
82.5491 0.625
82.5794 0.677
82.6097 0.677
82.6400 0.729
82.6702 0.729
82.7005 0.781
82.7308 1.042
82.7611 0.677
82.7914 0.729
82.8216 0.521
82.8519 0.937
82.8822 0.729
82.9125 1.042
82.9427 0.781
82.9730 0.573
83.0033 0.677
83.0336 0.781
83.0639 0.937
83.0941 0.729
83.1244 0.677
83.1547 0.469
83.1850 0.417
83.2153 0.885
83.2455 0.625
83.2758 0.729
83.3061 0.573
83.3364 0.469
83.3666 0.937
83.3969 0.833
83.4272 0.573
83.4575 0.677
83.4878 0.625
83.5180 0.937
83.5483 0.781
83.5786 0.729
83.6089 0.833
83.6392 0.781
83.6694 0.521
83.6997 0.625
83.7300 0.729
83.7603 0.729
83.7905 0.729
83.8208 0.833
83.8511 0.990
83.8814 0.781
83.9117 0.729
83.9419 0.729
83.9722 0.885
84.0025 0.937
84.0328 0.885
84.0631 0.833
84.0933 0.625
84.1236 0.729
84.1539 0.729
84.1842 1.094
84.2144 1.042
84.2447 1.250
84.2750 0.469
84.3053 0.937
84.3356 0.677
84.3658 0.521
84.3961 0.729
84.4264 0.781
84.4567 0.833
84.4870 0.521
84.5172 0.365
84.5475 1.146
84.5778 0.521
84.6081 0.990
84.6383 0.833
84.6686 0.781
84.6989 0.573
84.7292 0.677
84.7595 0.937
84.7897 0.781
84.8200 0.573
84.8503 0.729
84.8806 0.521
84.9109 0.781
84.9411 0.573
84.9714 0.677
85.0017 1.042
85.0320 0.260
85.0623 0.781
85.0925 1.406
85.1228 0.729
85.1531 0.729
85.1834 0.729
85.2136 1.094
85.2439 0.625
85.2742 0.625
85.3045 0.833
85.3348 0.677
85.3650 0.833
85.3953 0.885
85.4256 0.990
85.4559 0.729
85.4862 0.417
85.5164 0.521
85.5467 0.729
85.5770 0.625
85.6073 0.417
85.6375 0.833
85.6678 0.469
85.6981 1.198
85.7284 1.146
85.7587 0.625
85.7889 0.469
85.8192 0.729
85.8495 0.833
85.8798 0.885
85.9101 0.573
85.9403 0.729
85.9706 0.729
86.0009 0.677
86.0312 0.521
86.0614 0.677
86.0917 0.729
86.1220 0.937
86.1523 0.677
86.1826 0.573
86.2128 0.885
86.2431 1.042
86.2734 0.521
86.3037 0.885
86.3340 1.198
86.3642 0.469
86.3945 0.625
86.4248 0.365
86.4551 0.677
86.4853 0.729
86.5156 0.521
86.5459 0.521
86.5762 1.094
86.6065 0.833
86.6367 0.417
86.6670 0.729
86.6973 0.729
86.7276 0.729
86.7579 0.469
86.7881 0.521
86.8184 0.521
86.8487 0.729
86.8790 1.042
86.9092 0.729
86.9395 0.833
86.9698 0.937
87.0001 0.729
87.0304 0.729
87.0606 1.198
87.0909 0.729
87.1212 1.042
87.1515 0.729
87.1818 0.729
87.2120 0.625
87.2423 0.677
87.2726 0.729
87.3029 0.729
87.3331 0.573
87.3634 0.625
87.3937 0.677
87.4240 0.833
87.4543 0.729
87.4845 0.625
87.5148 0.833
87.5451 0.677
87.5754 0.833
87.6057 0.729
87.6359 0.885
87.6662 0.729
87.6965 0.625
87.7268 0.885
87.7571 0.937
87.7873 0.417
87.8176 0.729
87.8479 0.781
87.8782 0.937
87.9084 0.781
87.9387 0.833
87.9690 0.573
87.9993 0.417
88.0296 0.885
88.0598 0.729
88.0901 0.781
88.1204 0.729
88.1507 1.198
88.1810 0.781
88.2112 0.573
88.2415 0.677
88.2718 0.521
88.3021 0.781
88.3323 1.198
88.3626 0.781
88.3929 0.729
88.4232 1.354
88.4535 0.781
88.4837 0.937
88.5140 0.781
88.5443 0.833
88.5746 0.677
88.6049 0.937
88.6351 0.625
88.6654 0.729
88.6957 0.781
88.7260 0.990
88.7562 1.094
88.7865 1.094
88.8168 0.729
88.8471 1.302
88.8774 0.781
88.9076 1.094
88.9379 1.406
88.9682 0.937
88.9985 1.042
89.0288 1.198
89.0590 1.302
89.0893 1.458
89.1196 1.042
89.1499 0.833
89.1801 1.094
89.2104 1.198
89.2407 1.354
89.2710 1.250
89.3013 1.302
89.3315 1.510
89.3618 1.354
89.3921 1.198
89.4224 1.562
89.4527 1.458
89.4829 1.667
89.5132 1.250
89.5435 1.771
89.5738 1.458
89.6040 1.354
89.6343 1.510
89.6646 1.146
89.6949 1.250
89.7252 1.302
89.7554 1.042
89.7857 1.198
89.8160 1.771
89.8463 1.146
89.8766 1.146
89.9068 1.458
89.9371 0.937
89.9674 0.885
89.9977 0.781
90.0279 1.302
90.0582 0.937
90.0885 0.781
90.1188 0.677
90.1491 1.094
90.1793 1.198
90.2096 0.885
90.2399 0.469
90.2702 0.729
90.3005 1.302
90.3307 1.042
90.3610 1.042
90.3913 0.781
90.4216 0.885
90.4518 1.094
90.4821 0.729
90.5124 0.781
90.5427 1.146
90.5730 0.729
90.6032 0.990
90.6335 1.094
90.6638 0.833
90.6941 0.833
90.7244 0.729
90.7546 1.042
90.7849 1.042
90.8152 0.885
90.8455 1.198
90.8758 0.937
90.9060 0.990
90.9363 0.625
90.9666 0.937
90.9969 1.094
91.0271 0.469
91.0574 1.094
91.0877 0.573
91.1180 1.094
91.1483 0.990
91.1785 0.833
91.2088 1.302
91.2391 0.833
91.2694 0.625
91.2997 1.146
91.3299 1.094
91.3602 0.729
91.3905 1.042
91.4208 0.885
91.4510 0.781
91.4813 0.729
91.5116 0.521
91.5419 0.729
91.5722 0.885
91.6024 0.729
91.6327 0.937
91.6630 1.198
91.6933 0.729
91.7236 1.198
91.7538 0.677
91.7841 0.729
91.8144 0.885
91.8447 0.677
91.8749 0.729
91.9052 0.990
91.9355 0.990
91.9658 1.094
91.9961 1.146
92.0263 0.677
92.0566 0.937
92.0869 0.885
92.1172 0.677
92.1475 0.833
92.1777 0.833
92.2080 0.677
92.2383 0.729
92.2686 0.781
92.2988 1.146
92.3291 0.781
92.3594 0.833
92.3897 0.625
92.4200 0.885
92.4502 1.250
92.4805 1.094
92.5108 0.885
92.5411 0.990
92.5714 0.990
92.6016 1.302
92.6319 1.198
92.6622 1.250
92.6925 1.406
92.7227 0.990
92.7530 1.094
92.7833 0.885
92.8136 1.094
92.8439 0.937
92.8741 1.250
92.9044 1.094
92.9347 1.354
92.9650 0.625
92.9953 0.729
93.0255 1.198
93.0558 0.937
93.0861 1.146
93.1164 1.094
93.1466 0.885
93.1769 0.937
93.2072 1.354
93.2375 1.146
93.2678 0.781
93.2980 0.885
93.3283 0.625
93.3586 0.573
93.3889 0.521
93.4192 1.198
93.4494 1.146
93.4797 0.990
93.5100 0.937
93.5403 0.625
93.5706 1.094
93.6008 0.729
93.6311 0.729
93.6614 0.833
93.6917 1.094
93.7219 1.198
93.7522 1.042
93.7825 0.625
93.8128 1.042
93.8431 0.937
93.8733 0.677
93.9036 0.781
93.9339 0.677
93.9642 0.625
93.9945 0.885
94.0247 1.198
94.0550 0.729
94.0853 1.198
94.1156 1.198
94.1458 0.937
94.1761 0.625
94.2064 0.625
94.2367 0.885
94.2670 0.625
94.2972 0.781
94.3275 0.781
94.3578 0.729
94.3881 0.937
94.4184 0.833
94.4486 1.146
94.4789 1.354
94.5092 0.885
94.5395 1.146
94.5697 1.354
94.6000 0.677
94.6303 0.729
94.6606 0.990
94.6909 1.354
94.7211 1.406
94.7514 0.885
94.7817 0.833
94.8120 1.042
94.8423 1.927
94.8725 1.250
94.9028 1.302
94.9331 1.458
94.9634 1.615
94.9936 1.406
95.0239 1.406
95.0542 1.562
95.0845 1.510
95.1148 1.771
95.1450 1.250
95.1753 1.458
95.2056 1.719
95.2359 1.979
95.2662 1.667
95.2964 1.667
95.3267 1.562
95.3570 1.719
95.3873 1.771
95.4175 2.083
95.4478 1.198
95.4781 1.615
95.5084 1.250
95.5387 1.875
95.5689 0.990
95.5992 1.146
95.6295 0.937
95.6598 1.042
95.6901 1.146
95.7203 1.250
95.7506 1.562
95.7809 1.302
95.8112 1.146
95.8414 1.302
95.8717 0.990
95.9020 1.250
95.9323 0.729
95.9626 1.250
95.9928 1.354
96.0231 0.729
96.0534 1.042
96.0837 0.573
96.1140 0.469
96.1442 1.042
96.1745 0.833
96.2048 0.677
96.2351 0.937
96.2653 1.198
96.2956 0.833
96.3259 1.146
96.3562 1.042
96.3865 1.250
96.4167 0.729
96.4470 0.990
96.4773 0.521
96.5076 1.302
96.5379 0.833
96.5681 0.885
96.5984 0.833
96.6287 0.677
96.6590 0.573
96.6893 0.469
96.7195 0.781
96.7498 0.833
96.7801 0.937
96.8104 0.729
96.8406 0.885
96.8709 0.937
96.9012 0.729
96.9315 0.312
96.9618 0.833
96.9920 0.833
97.0223 0.625
97.0526 0.937
97.0829 1.146
97.1132 0.885
97.1434 0.625
97.1737 1.198
97.2040 1.250
97.2343 1.406
97.2645 0.781
97.2948 1.302
97.3251 0.885
97.3554 0.781
97.3857 0.990
97.4159 0.729
97.4462 0.781
97.4765 0.781
97.5068 0.937
97.5371 1.146
97.5673 0.990
97.5976 0.885
97.6279 0.781
97.6582 1.042
97.6884 0.990
97.7187 0.625
97.7490 1.302
97.7793 0.833
97.8096 0.729
97.8398 0.990
97.8701 1.354
97.9004 0.781
97.9307 1.302
97.9610 0.781
97.9912 0.781
98.0215 0.781
98.0518 1.250
98.0821 1.094
98.1123 0.677
98.1426 1.094
98.1729 1.094
98.2032 0.781
98.2335 1.406
98.2637 1.562
98.2940 0.937
98.3243 1.250
98.3546 1.250
98.3849 1.094
98.4151 1.302
98.4454 1.198
98.4757 1.562
98.5060 1.146
98.5362 1.510
98.5665 1.198
98.5968 0.885
98.6271 0.781
98.6574 1.042
98.6876 1.198
98.7179 1.094
98.7482 1.094
98.7785 1.042
98.8088 0.729
98.8390 1.094
98.8693 1.146
98.8996 1.302
98.9299 0.885
98.9601 1.146
98.9904 0.885
99.0207 0.729
99.0510 0.937
99.0813 1.198
99.1115 0.781
99.1418 1.094
99.1721 0.937
99.2024 0.781
99.2327 1.302
99.2629 1.042
99.2932 0.781
99.3235 1.302
99.3538 0.781
99.3841 0.729
99.4143 1.094
99.4446 0.573
99.4749 0.781
99.5052 0.781
99.5354 0.573
99.5657 0.521
99.5960 0.833
99.6263 0.937
99.6566 0.937
99.6868 0.365
99.7171 0.937
99.7474 0.781
99.7777 0.833
99.8080 0.677
99.8382 0.990
99.8685 0.781
99.8988 1.042
99.9291 0.885
99.9593 1.250
99.9896 0.781
100.0199 0.781
100.0502 0.781
100.0805 1.354
100.1107 0.885
100.1410 1.094
100.1713 0.573
100.2016 0.573
100.2319 0.729
100.2621 0.573
100.2924 0.521
100.3227 0.469
100.3530 0.781
100.3832 0.260
100.4135 0.937
100.4438 0.625
100.4741 0.625
100.5044 0.781
100.5346 1.302
100.5649 0.729
100.5952 0.937
100.6255 0.312
100.6558 0.729
100.6860 0.677
100.7163 0.781
100.7466 0.937
100.7769 0.781
100.8071 0.573
100.8374 0.677
100.8677 0.833
100.8980 0.885
100.9283 0.990
100.9585 0.677
100.9888 0.781
101.0191 0.833
101.0494 0.833
101.0797 1.042
101.1099 0.990
101.1402 0.677
101.1705 0.885
101.2008 0.573
101.2310 0.833
101.2613 0.937
101.2916 0.781
101.3219 0.781
101.3522 0.781
101.3824 0.990
101.4127 0.937
101.4430 0.781
101.4733 0.781
101.5036 0.990
101.5338 0.833
101.5641 0.833
101.5944 0.729
101.6247 0.885
101.6549 0.677
101.6852 0.625
101.7155 1.354
101.7458 1.146
101.7761 0.677
101.8063 0.729
101.8366 1.094
101.8669 0.781
101.8972 0.729
101.9275 0.833
101.9577 0.781
101.9880 0.781
102.0183 0.781
102.0486 0.937
102.0788 0.781
102.1091 1.146
102.1394 0.937
102.1697 1.615
102.2000 1.042
102.2302 0.885
102.2605 1.354
102.2908 1.042
102.3211 0.990
102.3514 0.937
102.3816 0.521
102.4119 0.781
102.4422 0.885
102.4725 1.042
102.5028 1.146
102.5330 1.198
102.5633 1.354
102.5936 0.990
102.6239 1.250
102.6541 0.937
102.6844 0.833
102.7147 1.146
102.7450 0.729
102.7753 0.885
102.8055 0.990
102.8358 1.042
102.8661 0.937
102.8964 1.094
102.9267 1.406
102.9569 1.302
102.9872 1.562
103.0175 1.406
103.0478 0.990
103.0780 0.937
103.1083 0.833
103.1386 0.885
103.1689 0.937
103.1992 1.198
103.2294 0.990
103.2597 1.823
103.2900 1.146
103.3203 1.354
103.3506 1.562
103.3808 0.937
103.4111 1.250
103.4414 0.937
103.4717 1.094
103.5019 0.833
103.5322 1.406
103.5625 1.042
103.5928 1.458
103.6231 1.042
103.6533 0.781
103.6836 0.990
103.7139 0.833
103.7442 0.885
103.7745 0.729
103.8047 1.354
103.8350 1.719
103.8653 1.406
103.8956 1.406
103.9258 1.406
103.9561 1.302
103.9864 1.458
104.0167 1.250
104.0470 1.042
104.0772 1.094
104.1075 0.885
104.1378 1.510
104.1681 1.042
104.1984 1.406
104.2286 1.094
104.2589 1.250
104.2892 1.250
104.3195 1.406
104.3497 1.198
104.3800 1.094
104.4103 1.094
104.4406 1.198
104.4709 1.042
104.5011 0.781
104.5314 1.146
104.5617 1.250
104.5920 0.937
104.6223 0.781
104.6525 0.990
104.6828 0.781
104.7131 0.885
104.7434 0.937
104.7736 0.729
104.8039 1.406
104.8342 0.885
104.8645 0.990
104.8948 0.729
104.9250 0.781
104.9553 0.937
104.9856 0.833
105.0159 0.833
105.0462 0.885
105.0764 0.833
105.1067 0.781
105.1370 1.198
105.1673 0.833
105.1975 0.573
105.2278 1.042
105.2581 0.990
105.2884 0.885
105.3187 0.885
105.3489 0.729
105.3792 0.990
105.4095 0.885
105.4398 0.885
105.4701 0.937
105.5003 1.146
105.5306 1.042
105.5609 1.042
105.5912 0.469
105.6215 0.885
105.6517 0.885
105.6820 0.937
105.7123 1.042
105.7426 1.146
105.7728 0.937
105.8031 0.677
105.8334 0.885
105.8637 0.885
105.8940 1.250
105.9242 0.625
105.9545 0.781
105.9848 1.042
106.0151 0.677
106.0454 0.937
106.0756 0.729
106.1059 1.042
106.1362 0.417
106.1665 0.677
106.1967 1.146
106.2270 0.781
106.2573 1.146
106.2876 0.625
106.3179 0.729
106.3481 0.729
106.3784 1.198
106.4087 0.781
106.4390 1.094
106.4693 0.677
106.4995 0.885
106.5298 0.573
106.5601 1.094
106.5904 1.458
106.6206 1.250
106.6509 0.990
106.6812 0.885
106.7115 1.094
106.7418 0.885
106.7720 0.990
106.8023 0.781
106.8326 0.625
106.8629 0.677
106.8932 0.833
106.9234 0.469
106.9537 0.729
106.9840 1.198
107.0143 0.885
107.0445 0.521
107.0748 0.781
107.1051 0.833
107.1354 1.146
107.1657 0.573
107.1959 0.885
107.2262 0.885
107.2565 0.573
107.2868 0.937
107.3171 1.042
107.3473 1.250
107.3776 1.042
107.4079 0.885
107.4382 0.625
107.4684 0.781
107.4987 0.781
107.5290 1.354
107.5593 0.625
107.5896 0.833
107.6198 0.677
107.6501 0.885
107.6804 0.833
107.7107 0.833
107.7410 1.146
107.7712 1.250
107.8015 0.833
107.8318 0.833
107.8621 0.990
107.8923 0.833
107.9226 0.937
107.9529 0.937
107.9832 0.885
108.0135 1.250
108.0437 0.781
108.0740 0.781
108.1043 0.625
108.1346 0.729
108.1649 0.729
108.1951 0.937
108.2254 0.781
108.2557 0.937
108.2860 0.885
108.3163 0.885
108.3465 0.937
108.3768 0.885
108.4071 0.833
108.4374 0.885
108.4676 0.312
108.4979 0.677
108.5282 0.677
108.5585 0.781
108.5888 1.094
108.6190 0.937
108.6493 0.937
108.6796 0.625
108.7099 0.521
108.7402 0.521
108.7704 0.521
108.8007 0.625
108.8310 0.729
108.8613 0.677
108.8915 1.094
108.9218 1.198
108.9521 0.937
108.9824 0.573
109.0127 0.937
109.0429 1.042
109.0732 0.781
109.1035 1.198
109.1338 1.094
109.1641 1.094
109.1943 1.250
109.2246 0.625
109.2549 1.042
109.2852 0.469
109.3154 0.937
109.3457 0.885
109.3760 0.573
109.4063 0.937
109.4366 1.250
109.4668 0.729
109.4971 1.042
109.5274 1.198
109.5577 1.302
109.5880 0.677
109.6182 0.885
109.6485 0.729
109.6788 0.937
109.7091 0.937
109.7393 0.937
109.7696 0.937
109.7999 0.990
109.8302 0.937
109.8605 1.250
109.8907 0.937
109.9210 0.677
109.9513 1.094
109.9816 1.510
110.0119 1.250
110.0421 1.510
110.0724 1.094
110.1027 1.094
110.1330 1.250
110.1632 1.458
110.1935 1.250
110.2238 1.094
110.2541 1.354
110.2844 1.094
110.3146 1.042
110.3449 1.354
110.3752 1.042
110.4055 1.354
110.4358 1.146
110.4660 0.937
110.4963 0.937
110.5266 0.885
110.5569 1.458
110.5871 1.146
110.6174 1.198
110.6477 1.146
110.6780 1.250
110.7083 0.937
110.7385 0.885
110.7688 1.510
110.7991 1.094
110.8294 1.146
110.8597 0.990
110.8899 0.937
110.9202 0.990
110.9505 1.354
110.9808 0.990
111.0110 0.990
111.0413 0.885
111.0716 1.042
111.1019 0.625
111.1322 1.302
111.1624 1.042
111.1927 1.302
111.2230 0.781
111.2533 0.990
111.2836 0.990
111.3138 1.094
111.3441 0.677
111.3744 1.042
111.4047 0.833
111.4350 0.469
111.4652 0.937
111.4955 0.469
111.5258 1.198
111.5561 0.781
111.5863 0.417
111.6166 1.042
111.6469 0.729
111.6772 0.833
111.7075 0.729
111.7377 1.406
111.7680 0.573
111.7983 0.885
111.8286 0.729
111.8589 0.833
111.8891 0.885
111.9194 0.781
111.9497 0.573
111.9800 0.885
112.0102 0.937
112.0405 0.729
112.0708 0.625
112.1011 0.937
112.1314 0.677
112.1616 0.885
112.1919 0.885
112.2222 0.781
112.2525 0.990
112.2828 0.781
112.3130 1.667
112.3433 0.833
112.3736 0.937
112.4039 1.302
112.4341 0.990
112.4644 0.833
112.4947 1.146
112.5250 0.417
112.5553 0.677
112.5855 1.042
112.6158 0.729
112.6461 0.573
112.6764 0.677
112.7067 0.937
112.7369 0.885
112.7672 0.781
112.7975 0.677
112.8278 0.729
112.8580 0.990
112.8883 1.042
112.9186 0.990
112.9489 1.146
112.9792 0.781
113.0094 0.885
113.0397 0.573
113.0700 0.521
113.1003 0.937
113.1306 0.729
113.1608 0.833
113.1911 0.990
113.2214 0.781
113.2517 1.198
113.2819 0.885
113.3122 0.937
113.3425 0.885
113.3728 1.042
113.4031 0.781
113.4333 0.781
113.4636 1.042
113.4939 0.677
113.5242 0.937
113.5545 0.885
113.5847 0.677
113.6150 0.417
113.6453 0.885
113.6756 0.625
113.7058 0.677
113.7361 0.937
113.7664 0.937
113.7967 0.990
113.8270 0.781
113.8572 1.094
113.8875 1.042
113.9178 0.990
113.9481 0.885
113.9784 0.625
114.0086 1.042
114.0389 0.937
114.0692 0.677
114.0995 0.937
114.1298 0.729
114.1600 0.729
114.1903 0.573
114.2206 0.625
114.2509 1.094
114.2811 1.250
114.3114 1.042
114.3417 1.094
114.3720 0.833
114.4023 0.781
114.4325 0.937
114.4628 0.833
114.4931 0.677
114.5234 0.937
114.5537 0.833
114.5839 1.406
114.6142 1.302
114.6445 0.937
114.6748 1.094
114.7050 0.312
114.7353 1.146
114.7656 0.833
114.7959 0.729
114.8262 0.833
114.8564 1.042
114.8867 0.729
114.9170 1.094
114.9473 1.094
114.9776 0.729
115.0078 0.937
115.0381 1.094
115.0684 0.781
115.0987 0.833
115.1289 0.833
115.1592 1.094
115.1895 1.615
115.2198 0.833
115.2501 1.094
115.2803 1.354
115.3106 1.562
115.3409 1.094
115.3712 1.198
115.4015 0.781
115.4317 0.937
115.4620 0.885
115.4923 0.990
115.5226 1.146
115.5528 1.094
115.5831 1.406
115.6134 1.458
115.6437 1.458
115.6740 1.302
115.7042 1.615
115.7345 1.562
115.7648 1.094
115.7951 1.146
115.8254 1.302
115.8556 1.198
115.8859 1.250
115.9162 0.885
115.9465 1.510
115.9767 1.250
116.0070 1.458
116.0373 0.937
116.0676 1.354
116.0979 1.250
116.1281 1.302
116.1584 1.354
116.1887 1.510
116.2190 1.406
116.2493 1.875
116.2795 1.667
116.3098 1.042
116.3401 1.927
116.3704 1.458
116.4006 1.823
116.4309 1.719
116.4612 1.406
116.4915 1.094
116.5218 1.146
116.5520 0.937
116.5823 1.354
116.6126 1.458
116.6429 1.406
116.6732 1.198
116.7034 1.198
116.7337 0.937
116.7640 1.510
116.7943 1.458
116.8245 1.250
116.8548 1.042
116.8851 0.990
116.9154 1.354
116.9457 1.458
116.9759 1.250
117.0062 1.094
117.0365 0.990
117.0668 1.198
117.0971 1.042
117.1273 0.937
117.1576 0.729
117.1879 1.354
117.2182 1.302
117.2485 0.990
117.2787 0.833
117.3090 0.833
117.3393 0.625
117.3696 0.937
117.3998 1.250
117.4301 0.729
117.4604 0.885
117.4907 0.833
117.5210 0.885
117.5512 1.198
117.5815 1.042
117.6118 0.833
117.6421 1.198
117.6724 0.937
117.7026 1.198
117.7329 0.417
117.7632 0.990
117.7935 0.729
117.8237 0.781
117.8540 0.937
117.8843 0.729
117.9146 0.990
117.9449 1.250
117.9751 0.781
118.0054 0.677
118.0357 0.677
118.0660 1.198
118.0963 1.094
118.1265 1.198
118.1568 0.885
118.1871 0.781
118.2174 1.250
118.2476 1.042
118.2779 0.990
118.3082 0.833
118.3385 0.625
118.3688 0.625
118.3990 1.250
118.4293 0.885
118.4596 0.833
118.4899 0.990
118.5202 1.406
118.5504 1.302
118.5807 1.094
118.6110 0.833
118.6413 0.781
118.6715 0.417
118.7018 0.677
118.7321 0.573
118.7624 0.990
118.7927 0.625
118.8229 0.781
118.8532 1.094
118.8835 0.885
118.9138 1.302
118.9441 1.250
118.9743 0.573
119.0046 0.833
119.0349 0.833
119.0652 1.042
119.0954 0.625
119.1257 0.677
119.1560 1.094
119.1863 0.677
119.2166 0.937
119.2468 0.781
119.2771 0.625
119.3074 1.250
119.3377 1.146
119.3680 0.990
119.3982 1.094
119.4285 1.302
119.4588 0.937
119.4891 1.094
119.5193 0.781
119.5496 0.469
119.5799 0.833
119.6102 1.094
119.6405 0.990
119.6707 0.885
119.7010 1.302
119.7313 1.198
119.7616 0.990
119.7919 0.833
119.8221 0.625
119.8524 0.885
119.8827 0.885
119.9130 1.198
119.9433 0.885
119.9735 1.146
120.0038 0.937
