'Id: "" Comment: "" Operator: "Lab Manager" Anode: "Cu" Scantype: "Locked Coupled" TimePerStep: "19.2" X: "9999" Y: "9999" Z: "9999" 
10.0015 2.865
10.0318 3.490
10.0620 2.917
10.0923 1.927
10.1226 3.073
10.1529 3.958
10.1832 2.344
10.2134 3.125
10.2437 3.073
10.2740 3.281
10.3043 2.396
10.3346 3.385
10.3648 3.177
10.3951 2.865
10.4254 3.437
10.4557 2.656
10.4859 2.865
10.5162 3.281
10.5465 3.385
10.5768 3.698
10.6071 3.750
10.6373 3.021
10.6676 3.906
10.6979 3.854
10.7282 3.385
10.7585 4.792
10.7887 3.958
10.8190 5.052
10.8493 5.417
10.8796 6.042
10.9098 7.083
10.9401 6.719
10.9704 8.698
11.0007 11.250
11.0310 12.448
11.0612 13.906
11.0915 13.333
11.1218 13.958
11.1521 13.958
11.1824 13.229
11.2126 10.729
11.2429 9.219
11.2732 8.125
11.3035 4.531
11.3337 6.042
11.3640 4.427
11.3943 5.208
11.4246 4.010
11.4549 3.125
11.4851 3.646
11.5154 3.385
11.5457 3.437
11.5760 3.073
11.6063 3.646
11.6365 3.385
11.6668 2.812
11.6971 3.125
11.7274 2.344
11.7577 3.021
11.7879 2.500
11.8182 2.969
11.8485 3.229
11.8788 3.437
11.9090 3.229
11.9393 2.500
11.9696 3.333
11.9999 3.229
12.0302 2.969
12.0604 2.552
12.0907 3.281
12.1210 3.021
12.1513 2.344
12.1816 2.917
12.2118 2.187
12.2421 2.552
12.2724 3.125
12.3027 3.385
12.3329 2.187
12.3632 1.719
12.3935 2.240
12.4238 3.073
12.4541 2.708
12.4843 2.552
12.5146 2.760
12.5449 3.073
12.5752 2.917
12.6055 2.552
12.6357 2.812
12.6660 3.073
12.6963 2.604
12.7266 2.187
12.7568 2.135
12.7871 3.385
12.8174 2.708
12.8477 2.552
12.8780 2.760
12.9082 3.021
12.9385 2.344
12.9688 3.073
12.9991 2.760
13.0294 1.979
13.0596 1.979
13.0899 3.021
13.1202 3.229
13.1505 3.385
13.1807 2.656
13.2110 2.552
13.2413 2.135
13.2716 2.917
13.3019 2.708
13.3321 2.240
13.3624 2.969
13.3927 2.240
13.4230 2.760
13.4533 2.135
13.4835 2.344
13.5138 2.344
13.5441 2.292
13.5744 2.240
13.6046 2.344
13.6349 1.823
13.6652 2.656
13.6955 2.396
13.7258 2.083
13.7560 3.229
13.7863 2.187
13.8166 2.292
13.8469 2.500
13.8772 1.927
13.9074 2.292
13.9377 2.083
13.9680 2.656
13.9983 2.917
14.0285 2.135
14.0588 1.667
14.0891 3.281
14.1194 2.135
14.1497 2.552
14.1799 3.229
14.2102 2.083
14.2405 2.448
14.2708 1.719
14.3011 2.552
14.3313 2.500
14.3616 1.979
14.3919 2.187
14.4222 2.135
14.4524 2.604
14.4827 2.292
14.5130 1.875
14.5433 2.396
14.5736 2.344
14.6038 2.917
14.6341 1.875
14.6644 1.927
14.6947 2.552
14.7250 2.292
14.7552 2.292
14.7855 1.979
14.8158 2.240
14.8461 1.927
14.8764 1.979
14.9066 2.292
14.9369 2.448
14.9672 3.437
14.9975 2.969
15.0277 2.865
15.0580 4.062
15.0883 4.062
15.1186 4.167
15.1489 3.698
15.1791 3.229
15.2094 3.437
15.2397 2.396
15.2700 3.698
15.3003 2.604
15.3305 3.073
15.3608 2.240
15.3911 3.021
15.4214 2.604
15.4516 2.969
15.4819 2.604
15.5122 2.448
15.5425 3.281
15.5728 2.760
15.6030 2.448
15.6333 2.604
15.6636 2.135
15.6939 2.917
15.7242 2.656
15.7544 1.979
15.7847 2.500
15.8150 2.031
15.8453 2.135
15.8755 2.500
15.9058 2.604
15.9361 2.187
15.9664 2.448
15.9967 1.719
16.0269 2.031
16.0572 1.771
16.0875 2.396
16.1178 1.823
16.1481 1.979
16.1783 1.927
16.2086 2.448
16.2389 1.406
16.2692 2.708
16.2994 2.344
16.3297 2.083
16.3600 1.823
16.3903 2.083
16.4206 2.031
16.4508 2.396
16.4811 2.135
16.5114 2.448
16.5417 1.562
16.5720 1.719
16.6022 2.292
16.6325 2.083
16.6628 1.510
16.6931 2.135
16.7233 1.927
16.7536 2.448
16.7839 1.667
16.8142 1.458
16.8445 2.031
16.8747 1.875
16.9050 2.448
16.9353 2.083
16.9656 2.135
16.9959 1.823
17.0261 1.979
17.0564 1.719
17.0867 1.667
17.1170 2.083
17.1472 1.719
17.1775 1.823
17.2078 1.458
17.2381 1.615
17.2684 2.708
17.2986 1.146
17.3289 1.979
17.3592 1.615
17.3895 1.719
17.4198 2.031
17.4500 1.562
17.4803 1.510
17.5106 1.667
17.5409 1.927
17.5712 1.562
17.6014 1.615
17.6317 1.719
17.6620 1.927
17.6923 1.458
17.7225 1.927
17.7528 1.927
17.7831 2.135
17.8134 1.875
17.8437 2.240
17.8739 1.927
17.9042 1.302
17.9345 1.510
17.9648 2.135
17.9951 1.406
18.0253 1.771
18.0556 1.823
18.0859 1.406
18.1162 2.083
18.1464 1.458
18.1767 1.927
18.2070 1.562
18.2373 1.562
18.2676 1.250
18.2978 2.187
18.3281 1.979
18.3584 1.354
18.3887 1.615
18.4190 1.562
18.4492 2.083
18.4795 1.562
18.5098 0.990
18.5401 1.510
18.5703 1.458
18.6006 2.083
18.6309 1.094
18.6612 1.771
18.6915 2.031
18.7217 1.354
18.7520 1.458
18.7823 1.458
18.8126 1.771
18.8429 1.771
18.8731 1.042
18.9034 1.458
18.9337 1.354
18.9640 2.083
18.9942 1.094
19.0245 1.094
19.0548 1.250
19.0851 1.510
19.1154 1.146
19.1456 1.562
19.1759 1.823
19.2062 1.823
19.2365 1.354
19.2668 1.615
19.2970 0.833
19.3273 1.719
19.3576 1.615
19.3879 1.719
19.4181 1.719
19.4484 1.510
19.4787 1.875
19.5090 1.458
19.5393 1.354
19.5695 1.458
19.5998 1.198
19.6301 1.406
19.6604 1.562
19.6907 1.979
19.7209 1.823
19.7512 1.510
19.7815 1.823
19.8118 1.510
19.8420 0.781
19.8723 1.406
19.9026 1.458
19.9329 1.979
19.9632 1.406
19.9934 1.979
20.0237 1.562
20.0540 1.458
20.0843 1.458
20.1146 2.031
20.1448 1.719
20.1751 0.990
20.2054 1.406
20.2357 2.031
20.2659 1.667
20.2962 1.094
20.3265 1.562
20.3568 1.250
20.3871 0.833
20.4173 1.146
20.4476 1.771
20.4779 1.198
20.5082 2.187
20.5385 1.250
20.5687 1.198
20.5990 1.875
20.6293 0.885
20.6596 1.146
20.6899 1.146
20.7201 1.510
20.7504 1.927
20.7807 1.823
20.8110 1.458
20.8412 1.719
20.8715 1.823
20.9018 0.833
20.9321 1.771
20.9624 1.354
20.9926 1.406
21.0229 1.250
21.0532 1.771
21.0835 1.354
21.1138 1.354
21.1440 1.250
21.1743 1.615
21.2046 1.198
21.2349 1.927
21.2651 1.250
21.2954 1.406
21.3257 0.937
21.3560 1.823
21.3863 1.615
21.4165 1.354
21.4468 1.667
21.4771 1.354
21.5074 1.094
21.5377 1.562
21.5679 1.562
21.5982 1.615
21.6285 1.146
21.6588 1.198
21.6890 1.875
21.7193 2.031
21.7496 1.250
21.7799 1.406
21.8102 1.146
21.8404 1.927
21.8707 1.354
21.9010 1.042
21.9313 1.927
21.9616 1.667
21.9918 1.562
22.0221 0.885
22.0524 1.406
22.0827 1.302
22.1129 1.354
22.1432 0.729
22.1735 0.990
22.2038 1.354
22.2341 1.250
22.2643 1.979
22.2946 1.302
22.3249 1.094
22.3552 1.979
22.3855 1.042
22.4157 1.250
22.4460 1.146
22.4763 1.406
22.5066 1.250
22.5368 1.354
22.5671 0.937
22.5974 1.875
22.6277 2.135
22.6580 1.510
22.6882 1.458
22.7185 1.198
22.7488 1.615
22.7791 1.250
22.8094 1.562
22.8396 1.510
22.8699 1.615
22.9002 1.250
22.9305 1.406
22.9607 1.615
22.9910 1.094
23.0213 1.250
23.0516 1.562
23.0819 0.885
23.1121 1.250
23.1424 1.510
23.1727 1.198
23.2030 1.406
23.2333 0.833
23.2635 1.510
23.2938 1.146
23.3241 1.719
23.3544 1.771
23.3846 1.458
23.4149 1.458
23.4452 2.083
23.4755 1.198
23.5058 1.562
23.5360 0.885
23.5663 1.250
23.5966 1.146
23.6269 1.510
23.6572 1.406
23.6874 1.406
23.7177 0.885
23.7480 0.937
23.7783 1.250
23.8086 1.510
23.8388 1.354
23.8691 1.771
23.8994 1.302
23.9297 0.937
23.9599 1.354
23.9902 0.729
24.0205 1.458
24.0508 1.250
24.0811 1.458
24.1113 1.458
24.1416 1.354
24.1719 1.146
24.2022 0.990
24.2325 0.937
24.2627 1.510
24.2930 1.250
24.3233 1.250
24.3536 1.042
24.3838 1.146
24.4141 1.250
24.4444 1.146
24.4747 1.771
24.5050 0.781
24.5352 0.990
24.5655 1.354
24.5958 1.042
24.6261 1.146
24.6564 1.562
24.6866 1.458
24.7169 1.198
24.7472 1.562
24.7775 1.354
24.8077 1.458
24.8380 1.302
24.8683 0.990
24.8986 1.354
24.9289 1.510
24.9591 1.042
24.9894 1.198
25.0197 1.302
25.0500 1.146
25.0803 0.885
25.1105 1.510
25.1408 1.302
25.1711 2.240
25.2014 1.562
25.2316 1.510
25.2619 1.406
25.2922 1.354
25.3225 1.250
25.3528 1.510
25.3830 1.615
25.4133 1.562
25.4436 2.031
25.4739 2.240
25.5042 2.240
25.5344 2.604
25.5647 2.187
25.5950 2.187
25.6253 3.542
25.6555 4.219
25.6858 4.896
25.7161 4.531
25.7464 5.156
25.7767 5.208
25.8069 4.479
25.8372 4.531
25.8675 3.490
25.8978 3.542
25.9281 3.490
25.9583 2.865
25.9886 3.073
26.0189 2.760
26.0492 1.719
26.0794 1.354
26.1097 2.031
26.1400 1.771
26.1703 2.031
26.2006 1.823
26.2308 1.302
26.2611 1.406
26.2914 1.510
26.3217 1.927
26.3520 1.354
26.3822 1.198
26.4125 1.615
26.4428 1.406
26.4731 0.990
26.5034 1.667
26.5336 1.146
26.5639 1.823
26.5942 1.562
26.6245 2.135
26.6547 1.094
26.6850 1.615
26.7153 1.979
26.7456 1.875
26.7759 2.187
26.8061 1.823
26.8364 0.885
26.8667 1.146
26.8970 1.198
26.9273 1.562
26.9575 1.250
26.9878 1.719
27.0181 1.302
27.0484 1.406
27.0786 1.302
27.1089 1.406
27.1392 1.250
27.1695 0.833
27.1998 1.250
27.2300 1.458
27.2603 1.615
27.2906 0.937
27.3209 1.562
27.3512 1.094
27.3814 0.937
27.4117 1.979
27.4420 1.562
27.4723 1.771
27.5025 2.135
27.5328 1.771
27.5631 2.135
27.5934 1.094
27.6237 1.562
27.6539 1.406
27.6842 1.719
27.7145 1.302
27.7448 1.094
27.7751 0.990
27.8053 1.042
27.8356 0.781
27.8659 0.937
27.8962 1.406
27.9264 0.885
27.9567 1.354
27.9870 2.031
28.0173 1.667
28.0476 1.198
28.0778 1.198
28.1081 1.042
28.1384 1.562
28.1687 1.406
28.1990 1.823
28.2292 1.510
28.2595 1.042
28.2898 1.458
28.3201 1.562
28.3503 1.354
28.3806 0.781
28.4109 1.042
28.4412 1.510
28.4715 1.667
28.5017 1.562
28.5320 1.823
28.5623 1.510
28.5926 0.885
28.6229 1.615
28.6531 1.771
28.6834 1.562
28.7137 1.458
28.7440 1.042
28.7742 0.990
28.8045 1.302
28.8348 1.042
28.8651 1.823
28.8954 1.250
28.9256 1.146
28.9559 1.458
28.9862 1.875
29.0165 1.771
29.0468 1.146
29.0770 1.510
29.1073 1.562
29.1376 1.979
29.1679 2.344
29.1981 2.292
29.2284 1.927
29.2587 2.031
29.2890 1.771
29.3193 1.198
29.3495 2.812
29.3798 3.229
29.4101 2.812
29.4404 2.083
29.4707 2.396
29.5009 2.135
29.5312 2.448
29.5615 2.500
29.5918 2.187
29.6221 2.240
29.6523 2.135
29.6826 2.135
29.7129 2.187
29.7432 1.875
29.7734 1.979
29.8037 2.083
29.8340 1.719
29.8643 1.823
29.8946 1.823
29.9248 1.562
29.9551 1.302
29.9854 1.771
30.0157 2.135
30.0460 1.562
30.0762 1.615
30.1065 1.667
30.1368 0.990
30.1671 1.458
30.1973 1.458
30.2276 1.719
30.2579 1.562
30.2882 1.510
30.3185 1.719
30.3487 1.875
30.3790 2.344
30.4093 2.135
30.4396 2.031
30.4699 1.875
30.5001 2.604
30.5304 2.187
30.5607 1.875
30.5910 1.875
30.6212 2.500
30.6515 2.344
30.6818 2.187
30.7121 2.292
30.7424 2.917
30.7726 3.437
30.8029 2.865
30.8332 1.562
30.8635 2.708
30.8938 2.448
30.9240 3.437
30.9543 4.062
30.9846 3.229
31.0149 3.958
31.0451 4.740
31.0754 3.802
31.1057 3.906
31.1360 4.531
31.1663 5.052
31.1965 4.844
31.2268 5.208
31.2571 5.937
31.2874 7.292
31.3177 6.615
31.3479 8.125
31.3782 9.792
31.4085 8.958
31.4388 10.312
31.4690 10.781
31.4993 11.719
31.5296 14.479
31.5599 13.802
31.5902 13.125
31.6204 13.490
31.6507 13.073
31.6810 12.708
31.7113 13.073
31.7416 11.458
31.7718 9.479
31.8021 8.594
31.8324 7.552
31.8627 6.979
31.8929 8.854
31.9232 6.354
31.9535 5.521
31.9838 4.687
32.0141 4.687
32.0443 5.208
32.0746 4.375
32.1049 5.156
32.1352 4.583
32.1655 3.958
32.1957 3.594
32.2260 3.698
32.2563 3.281
32.2866 3.698
32.3169 3.802
32.3471 2.917
32.3774 3.281
32.4077 2.604
32.4380 2.604
32.4682 3.177
32.4985 2.292
32.5288 2.604
32.5591 2.396
32.5894 2.448
32.6196 2.187
32.6499 2.552
32.6802 2.760
32.7105 2.240
32.7408 2.344
32.7710 2.240
32.8013 2.083
32.8316 1.823
32.8619 2.083
32.8921 2.604
32.9224 1.823
32.9527 2.448
32.9830 1.719
33.0133 2.031
33.0435 2.240
33.0738 2.135
33.1041 1.927
33.1344 2.448
33.1647 1.250
33.1949 1.979
33.2252 2.240
33.2555 2.917
33.2858 1.771
33.3160 2.292
33.3463 2.187
33.3766 2.292
33.4069 1.771
33.4372 1.615
33.4674 1.510
33.4977 2.031
33.5280 2.812
33.5583 2.500
33.5886 2.240
33.6188 2.083
33.6491 3.542
33.6794 2.031
33.7097 2.240
33.7399 2.604
33.7702 2.656
33.8005 2.656
33.8308 3.281
33.8611 3.177
33.8913 3.854
33.9216 4.479
33.9519 3.177
33.9822 4.167
34.0125 3.958
34.0427 6.823
34.0730 7.187
34.1033 7.500
34.1336 8.437
34.1638 11.250
34.1941 13.854
34.2244 15.156
34.2547 16.354
34.2850 16.198
34.3152 14.635
34.3455 15.000
34.3758 11.719
34.4061 10.000
34.4364 8.646
34.4666 5.573
34.4969 4.323
34.5272 5.000
34.5575 3.802
34.5877 4.219
34.6180 3.073
34.6483 3.073
34.6786 3.073
34.7089 3.229
34.7391 2.292
34.7694 2.917
34.7997 2.917
34.8300 2.656
34.8603 2.500
34.8905 3.177
34.9208 2.917
34.9511 2.656
34.9814 2.187
35.0116 2.917
35.0419 2.240
35.0722 2.031
35.1025 2.187
35.1328 2.500
35.1630 2.448
35.1933 2.708
35.2236 2.187
35.2539 2.760
35.2842 2.865
35.3144 3.125
35.3447 3.698
35.3750 3.385
35.4053 3.854
35.4356 3.281
35.4658 2.969
35.4961 3.906
35.5264 3.958
35.5567 4.010
35.5869 4.271
35.6172 4.427
35.6475 6.250
35.6778 5.573
35.7081 6.146
35.7383 6.354
35.7686 6.771
35.7989 9.792
35.8292 8.177
35.8595 9.479
35.8897 10.469
35.9200 10.937
35.9503 11.198
35.9806 13.698
36.0108 14.427
36.0411 16.094
36.0714 15.469
36.1017 16.615
36.1320 15.833
36.1622 16.562
36.1925 16.875
36.2228 16.979
36.2531 14.219
36.2834 12.396
36.3136 12.344
36.3439 9.687
36.3742 8.854
36.4045 7.031
36.4347 6.562
36.4650 6.094
36.4953 5.104
36.5256 5.208
36.5559 5.104
36.5861 4.323
36.6164 4.427
36.6467 3.906
36.6770 3.073
36.7073 3.073
36.7375 2.135
36.7678 3.281
36.7981 2.083
36.8284 2.187
36.8586 1.771
36.8889 1.927
36.9192 3.281
36.9495 2.448
36.9798 2.292
37.0100 2.344
37.0403 2.240
37.0706 1.927
37.1009 2.187
37.1312 1.615
37.1614 1.927
37.1917 1.667
37.2220 1.510
37.2523 1.302
37.2825 1.406
37.3128 1.562
37.3431 1.823
37.3734 1.562
37.4037 1.823
37.4339 1.510
37.4642 1.979
37.4945 1.302
37.5248 1.146
37.5551 1.562
37.5853 1.354
37.6156 1.562
37.6459 1.094
37.6762 1.667
37.7064 1.458
37.7367 2.240
37.7670 1.354
37.7973 1.302
37.8276 0.990
37.8578 2.031
37.8881 1.562
37.9184 1.302
37.9487 1.406
37.9790 1.146
38.0092 1.927
38.0395 1.771
38.0698 1.771
38.1001 1.667
38.1304 1.354
38.1606 1.875
38.1909 0.990
38.2212 1.406
38.2515 1.146
38.2817 1.094
38.3120 1.406
38.3423 0.833
38.3726 1.510
38.4029 1.250
38.4331 1.250
38.4634 1.562
38.4937 1.250
38.5240 0.990
38.5543 0.781
38.5845 0.937
38.6148 1.302
38.6451 1.302
38.6754 0.990
38.7056 0.990
38.7359 1.510
38.7662 0.885
38.7965 1.354
38.8268 1.146
38.8570 1.042
38.8873 1.042
38.9176 1.250
38.9479 0.781
38.9782 1.406
39.0084 0.833
39.0387 1.302
39.0690 0.990
39.0993 0.833
39.1295 1.094
39.1598 0.990
39.1901 1.146
39.2204 0.937
39.2507 0.990
39.2809 1.042
39.3112 0.781
39.3415 1.094
39.3718 0.833
39.4021 0.990
39.4323 1.146
39.4626 0.885
39.4929 1.094
39.5232 0.937
39.5534 1.302
39.5837 0.885
39.6140 0.990
39.6443 0.833
39.6746 1.250
39.7048 0.781
39.7351 0.625
39.7654 1.250
39.7957 0.885
39.8260 1.146
39.8562 0.781
39.8865 0.833
39.9168 0.781
39.9471 1.302
39.9773 0.937
40.0076 1.198
40.0379 0.937
40.0682 0.990
40.0985 0.521
40.1287 1.250
40.1590 0.729
40.1893 0.833
40.2196 0.937
40.2499 0.990
40.2801 0.833
40.3104 1.042
40.3407 0.990
40.3710 0.833
40.4012 0.833
40.4315 1.042
40.4618 0.885
40.4921 0.990
40.5224 0.990
40.5526 0.625
40.5829 0.833
40.6132 1.042
40.6435 0.781
40.6738 0.937
40.7040 1.042
40.7343 1.198
40.7646 0.469
40.7949 0.885
40.8251 1.146
40.8554 1.198
40.8857 0.833
40.9160 0.833
40.9463 0.729
40.9765 1.354
41.0068 0.677
41.0371 0.677
41.0674 1.302
41.0977 1.146
41.1279 1.198
41.1582 0.729
41.1885 0.885
41.2188 0.833
41.2491 1.198
41.2793 0.677
41.3096 0.677
41.3399 0.885
41.3702 0.781
41.4004 0.833
41.4307 0.781
41.4610 0.781
41.4913 0.781
41.5216 0.937
41.5518 1.146
41.5821 0.885
41.6124 1.250
41.6427 0.573
41.6730 0.729
41.7032 0.677
41.7335 1.250
41.7638 1.250
41.7941 0.937
41.8243 0.625
41.8546 0.729
41.8849 0.833
41.9152 1.198
41.9455 0.990
41.9757 1.094
42.0060 0.833
42.0363 1.198
42.0666 0.729
42.0969 0.990
42.1271 0.677
42.1574 0.677
42.1877 0.625
42.2180 0.990
42.2482 1.198
42.2785 0.990
42.3088 0.937
42.3391 0.625
42.3694 0.937
42.3996 0.781
42.4299 0.885
42.4602 0.781
42.4905 0.677
42.5208 0.937
42.5510 0.833
42.5813 0.573
42.6116 0.937
42.6419 0.781
42.6721 0.833
42.7024 0.833
42.7327 1.042
42.7630 0.885
42.7933 1.354
42.8235 0.885
42.8538 0.521
42.8841 0.677
42.9144 0.990
42.9447 0.833
42.9749 0.885
43.0052 1.302
43.0355 0.677
43.0658 0.677
43.0960 0.677
43.1263 0.937
43.1566 0.833
43.1869 0.781
43.2172 0.781
43.2474 0.833
43.2777 0.625
43.3080 0.677
43.3383 0.937
43.3686 0.677
43.3988 0.573
43.4291 0.469
43.4594 0.937
43.4897 0.885
43.5199 0.521
43.5502 0.885
43.5805 0.312
43.6108 1.042
43.6411 0.625
43.6713 0.625
43.7016 0.781
43.7319 0.417
43.7622 0.729
43.7925 0.677
43.8227 1.094
43.8530 1.042
43.8833 1.042
43.9136 0.729
43.9439 0.781
43.9741 0.833
44.0044 0.833
44.0347 0.885
44.0650 0.937
44.0952 1.042
44.1255 0.937
44.1558 0.833
44.1861 1.094
44.2164 0.677
44.2466 0.937
44.2769 0.729
44.3072 0.677
44.3375 0.677
44.3678 0.573
44.3980 0.833
44.4283 0.833
44.4586 0.677
44.4889 0.573
44.5191 1.094
44.5494 0.833
44.5797 1.302
44.6100 0.781
44.6403 0.885
44.6705 0.937
44.7008 0.937
44.7311 0.521
44.7614 0.781
44.7917 0.781
44.8219 1.198
44.8522 0.625
44.8825 0.885
44.9128 1.458
44.9430 0.937
44.9733 1.615
45.0036 0.833
45.0339 1.510
45.0642 1.354
45.0944 1.042
45.1247 0.833
45.1550 0.573
45.1853 0.937
45.2156 0.937
45.2458 0.885
45.2761 0.729
45.3064 0.937
45.3367 1.250
45.3669 1.146
45.3972 0.937
45.4275 0.990
45.4578 0.937
45.4881 0.885
45.5183 0.937
45.5486 0.521
45.5789 0.990
45.6092 0.677
45.6395 1.094
45.6697 0.521
45.7000 0.937
45.7303 0.885
45.7606 0.885
45.7908 0.885
45.8211 1.094
45.8514 0.521
45.8817 0.677
45.9120 0.885
45.9422 0.833
45.9725 0.677
46.0028 0.885
46.0331 0.885
46.0634 0.677
46.0936 1.042
46.1239 0.781
46.1542 1.094
46.1845 1.042
46.2147 1.458
46.2450 1.302
46.2753 0.990
46.3056 1.094
46.3359 1.406
46.3661 1.146
46.3964 0.833
46.4267 1.354
46.4570 0.937
46.4873 0.781
46.5175 1.302
46.5478 1.250
46.5781 1.354
46.6084 1.406
46.6386 1.458
46.6689 1.042
46.6992 1.094
46.7295 1.771
46.7598 1.615
46.7900 1.510
46.8203 1.042
46.8506 1.510
46.8809 1.823
46.9112 1.719
46.9414 1.771
46.9717 1.875
47.0020 1.562
47.0323 1.354
47.0626 2.187
47.0928 2.396
47.1231 2.448
47.1534 1.979
47.1837 2.396
47.2139 2.552
47.2442 2.760
47.2745 2.760
47.3048 2.604
47.3351 3.125
47.3653 2.656
47.3956 2.448
47.4259 2.760
47.4562 2.917
47.4865 2.969
47.5167 2.708
47.5470 2.396
47.5773 2.708
47.6076 2.760
47.6378 2.396
47.6681 1.458
47.6984 2.396
47.7287 1.250
47.7590 2.240
47.7892 2.292
47.8195 1.146
47.8498 2.083
47.8801 2.135
47.9104 1.406
47.9406 2.083
47.9709 1.458
48.0012 1.094
48.0315 1.250
48.0617 1.667
48.0920 1.979
48.1223 1.875
48.1526 1.146
48.1829 1.042
48.2131 1.406
48.2434 1.198
48.2737 1.094
48.3040 1.094
48.3343 1.042
48.3645 1.198
48.3948 1.198
48.4251 1.198
48.4554 1.354
48.4856 1.406
48.5159 1.250
48.5462 0.781
48.5765 1.042
48.6068 1.250
48.6370 1.354
48.6673 1.198
48.6976 0.885
48.7279 1.146
48.7582 0.937
48.7884 0.781
48.8187 1.354
48.8490 1.354
48.8793 1.094
48.9095 1.094
48.9398 1.354
48.9701 1.094
49.0004 1.302
49.0307 1.250
49.0609 0.625
49.0912 1.302
49.1215 1.042
49.1518 1.094
49.1821 0.885
49.2123 1.250
49.2426 1.198
49.2729 0.677
49.3032 1.198
49.3334 0.990
49.3637 1.094
49.3940 1.094
49.4243 1.354
49.4546 1.094
49.4848 1.302
49.5151 0.885
49.5454 1.042
49.5757 1.250
49.6060 0.937
49.6362 1.042
49.6665 0.990
49.6968 1.094
49.7271 0.833
49.7574 0.833
49.7876 1.302
49.8179 0.833
49.8482 1.302
49.8785 0.885
49.9087 0.625
49.9390 0.833
49.9693 0.990
49.9996 0.729
50.0299 0.677
50.0601 0.833
50.0904 1.042
50.1207 0.885
50.1510 0.625
50.1813 0.833
50.2115 0.833
50.2418 1.094
50.2721 1.354
50.3024 1.198
50.3326 1.042
50.3629 0.937
50.3932 1.250
50.4235 1.146
50.4538 1.510
50.4840 1.094
50.5143 0.885
50.5446 0.677
50.5749 1.146
50.6052 0.990
50.6354 0.573
50.6657 1.042
50.6960 0.781
50.7263 0.990
50.7565 0.937
50.7868 0.729
50.8171 1.406
50.8474 0.729
50.8777 1.250
50.9079 0.573
50.9382 0.937
50.9685 0.990
50.9988 1.198
51.0291 0.937
51.0593 0.833
51.0896 0.885
51.1199 0.990
51.1502 1.198
51.1804 0.677
51.2107 1.042
51.2410 0.937
51.2713 1.198
51.3016 0.573
51.3318 0.885
51.3621 0.573
51.3924 0.781
51.4227 1.146
51.4530 0.573
51.4832 0.937
51.5135 1.042
51.5438 1.094
51.5741 1.094
51.6043 0.937
51.6346 0.885
51.6649 1.042
51.6952 0.885
51.7255 0.937
51.7557 0.990
51.7860 0.885
51.8163 0.833
51.8466 1.042
51.8769 0.625
51.9071 0.937
51.9374 0.729
51.9677 1.042
51.9980 0.833
52.0282 0.625
52.0585 0.469
52.0888 0.937
52.1191 0.885
52.1494 0.677
52.1796 0.885
52.2099 0.521
52.2402 1.042
52.2705 1.042
52.3008 0.885
52.3310 0.625
52.3613 0.885
52.3916 0.937
52.4219 1.354
52.4521 1.042
52.4824 0.781
52.5127 0.937
52.5430 1.146
52.5733 1.146
52.6035 1.042
52.6338 0.729
52.6641 0.781
52.6944 0.937
52.7247 1.198
52.7549 0.885
52.7852 0.937
52.8155 1.094
52.8458 0.833
52.8761 1.146
52.9063 0.990
52.9366 1.146
52.9669 0.885
52.9972 0.573
53.0274 0.417
53.0577 0.781
53.0880 1.042
53.1183 1.042
53.1486 0.833
53.1788 1.042
53.2091 0.885
53.2394 0.781
53.2697 1.146
53.3000 1.354
53.3302 0.729
53.3605 1.094
53.3908 0.885
53.4211 0.625
53.4513 0.781
53.4816 0.885
53.5119 1.042
53.5422 0.990
53.5725 0.990
53.6027 0.781
53.6330 0.781
53.6633 1.250
53.6936 1.354
53.7239 0.937
53.7541 0.990
53.7844 0.937
53.8147 1.094
53.8450 0.729
53.8752 1.042
53.9055 1.146
53.9358 0.781
53.9661 0.885
53.9964 1.042
54.0266 0.781
54.0569 0.990
54.0872 0.990
54.1175 1.094
54.1478 1.094
54.1780 0.990
54.2083 1.250
54.2386 0.885
54.2689 1.094
54.2991 1.719
54.3294 0.677
54.3597 0.781
54.3900 0.990
54.4203 0.729
54.4505 1.094
54.4808 1.146
54.5111 0.990
54.5414 0.885
54.5717 0.833
54.6019 1.042
54.6322 1.198
54.6625 0.937
54.6928 1.042
54.7230 1.354
54.7533 1.042
54.7836 0.990
54.8139 1.042
54.8442 1.146
54.8744 1.094
54.9047 0.677
54.9350 0.625
54.9653 0.990
54.9956 0.625
55.0258 0.625
55.0561 1.042
55.0864 0.990
55.1167 0.885
55.1469 0.937
55.1772 0.885
55.2075 0.833
55.2378 1.146
55.2681 1.198
55.2983 0.625
55.3286 1.354
55.3589 1.510
55.3892 0.937
55.4195 1.302
55.4497 0.781
55.4800 1.615
55.5103 1.146
55.5406 1.302
55.5709 0.885
55.6011 1.250
55.6314 1.458
55.6617 0.937
55.6920 1.198
55.7222 0.937
55.7525 1.510
55.7828 1.354
55.8131 1.823
55.8434 1.875
55.8736 1.719
55.9039 1.771
55.9342 1.510
55.9645 1.979
55.9948 1.510
56.0250 2.083
56.0553 1.979
56.0856 1.823
56.1159 1.927
56.1461 1.979
56.1764 2.969
56.2067 2.344
56.2370 2.656
56.2673 3.229
56.2975 2.500
56.3278 3.490
56.3581 3.073
56.3884 3.802
56.4187 3.125
56.4489 4.792
56.4792 4.010
56.5095 3.958
56.5398 4.583
56.5700 3.646
56.6003 3.229
56.6306 3.177
56.6609 2.708
56.6912 3.646
56.7214 3.646
56.7517 2.448
56.7820 2.656
56.8123 2.240
56.8426 2.187
56.8728 1.979
56.9031 2.135
56.9334 1.667
56.9637 1.823
56.9939 1.406
57.0242 1.615
57.0545 1.146
57.0848 1.510
57.1151 1.615
57.1453 1.771
57.1756 1.146
57.2059 1.198
57.2362 0.937
57.2665 1.146
57.2967 0.937
57.3270 1.354
57.3573 0.990
57.3876 0.625
57.4178 0.781
57.4481 0.990
57.4784 0.990
57.5087 1.042
57.5390 0.781
57.5692 1.198
57.5995 1.198
57.6298 0.677
57.6601 0.781
57.6904 0.937
57.7206 1.094
57.7509 1.042
57.7812 0.937
57.8115 0.781
57.8417 0.990
57.8720 0.937
57.9023 0.937
57.9326 0.521
57.9629 0.729
57.9931 0.937
58.0234 0.781
58.0537 0.937
58.0840 1.198
58.1143 0.729
58.1445 0.937
58.1748 0.833
58.2051 0.833
58.2354 0.990
58.2656 1.198
58.2959 1.042
58.3262 0.573
58.3565 0.625
58.3868 0.729
58.4170 0.417
58.4473 0.729
58.4776 0.729
58.5079 0.937
58.5382 0.729
58.5684 0.781
58.5987 1.094
58.6290 0.885
58.6593 1.042
58.6896 0.625
58.7198 0.937
58.7501 0.990
58.7804 0.625
58.8107 1.042
58.8409 0.729
58.8712 0.573
58.9015 0.885
58.9318 0.937
58.9621 0.625
58.9923 0.990
59.0226 0.677
59.0529 0.312
59.0832 0.729
59.1135 0.885
59.1437 0.937
59.1740 0.833
59.2043 0.625
59.2346 0.885
59.2648 0.573
59.2951 1.146
59.3254 1.146
59.3557 1.146
59.3860 0.521
59.4162 0.885
59.4465 0.781
59.4768 0.937
59.5071 0.937
59.5374 0.990
59.5676 0.625
59.5979 0.781
59.6282 0.781
59.6585 0.937
59.6887 0.833
59.7190 0.781
59.7493 0.625
59.7796 0.833
59.8099 0.885
59.8401 0.781
59.8704 0.729
59.9007 0.781
59.9310 0.573
59.9613 0.729
59.9915 0.937
60.0218 0.625
60.0521 0.729
60.0824 0.885
60.1126 0.833
60.1429 0.729
60.1732 0.729
60.2035 0.781
60.2338 0.885
60.2640 0.625
60.2943 0.573
60.3246 0.677
60.3549 0.625
60.3852 0.729
60.4154 0.573
60.4457 0.573
60.4760 0.677
60.5063 0.625
60.5365 0.469
60.5668 0.365
60.5971 1.094
60.6274 0.729
60.6577 0.885
60.6879 0.573
60.7182 0.781
60.7485 0.990
60.7788 1.042
60.8091 1.250
60.8393 0.677
60.8696 0.885
60.8999 0.990
60.9302 0.573
60.9604 0.885
60.9907 0.833
61.0210 0.573
61.0513 1.146
61.0816 1.458
61.1118 0.521
61.1421 0.469
61.1724 0.781
61.2027 0.677
61.2330 0.781
61.2632 0.521
61.2935 0.833
61.3238 0.937
61.3541 0.521
61.3844 0.885
61.4146 1.042
61.4449 0.729
61.4752 0.729
61.5055 1.458
61.5357 1.146
61.5660 1.042
61.5963 1.146
61.6266 0.729
61.6569 0.937
61.6871 1.094
61.7174 0.885
61.7477 0.885
61.7780 0.937
61.8083 0.677
61.8385 1.042
61.8688 1.094
61.8991 1.094
61.9294 1.198
61.9596 0.677
61.9899 1.354
62.0202 1.042
62.0505 1.406
62.0808 1.615
62.1110 1.250
62.1413 0.990
62.1716 1.354
62.2019 1.354
62.2322 1.198
62.2624 1.719
62.2927 1.771
62.3230 2.187
62.3533 1.823
62.3835 2.500
62.4138 2.552
62.4441 2.031
62.4744 2.031
62.5047 1.927
62.5349 2.917
62.5652 3.073
62.5955 2.396
62.6258 3.229
62.6561 2.760
62.6863 2.917
62.7166 4.219
62.7469 2.865
62.7772 2.865
62.8074 3.125
62.8377 3.385
62.8680 2.656
62.8983 2.917
62.9286 2.917
62.9588 3.229
62.9891 2.552
63.0194 2.708
63.0497 2.812
63.0800 2.240
63.1102 2.187
63.1405 1.354
63.1708 1.458
63.2011 1.250
63.2313 1.562
63.2616 1.406
63.2919 1.562
63.3222 1.510
63.3525 1.354
63.3827 1.250
63.4130 0.990
63.4433 1.406
63.4736 0.625
63.5039 1.042
63.5341 1.042
63.5644 1.406
63.5947 0.833
63.6250 0.885
63.6552 0.781
63.6855 1.094
63.7158 1.042
63.7461 0.885
63.7764 1.042
63.8066 0.677
63.8369 1.250
63.8672 1.198
63.8975 1.094
63.9278 1.042
63.9580 0.990
63.9883 0.833
64.0186 0.885
64.0489 0.833
64.0791 0.625
64.1094 0.990
64.1397 0.729
64.1700 0.781
64.2003 0.937
64.2305 0.833
64.2608 0.573
64.2911 0.833
64.3214 0.625
64.3517 0.833
64.3819 0.781
64.4122 0.521
64.4425 0.625
64.4728 0.885
64.5031 0.521
64.5333 0.729
64.5636 1.042
64.5939 0.625
64.6242 0.833
64.6544 0.833
64.6847 0.833
64.7150 0.469
64.7453 0.729
64.7756 0.833
64.8058 0.729
64.8361 0.781
64.8664 0.937
64.8967 0.833
64.9270 0.677
64.9572 0.469
64.9875 0.937
65.0178 0.677
65.0481 0.729
65.0783 0.885
65.1086 0.677
65.1389 0.677
65.1692 0.885
65.1995 0.625
65.2297 0.677
65.2600 0.937
65.2903 0.833
65.3206 0.625
65.3509 1.042
65.3811 0.885
65.4114 0.573
65.4417 0.521
65.4720 0.833
65.5022 0.729
65.5325 0.937
65.5628 0.781
65.5931 0.885
65.6234 0.365
65.6536 0.937
65.6839 0.417
65.7142 0.937
65.7445 0.573
65.7748 0.521
65.8050 0.781
65.8353 0.729
65.8656 0.677
65.8959 1.042
65.9261 0.833
65.9564 0.990
65.9867 1.094
66.0170 0.937
66.0473 0.521
66.0775 0.990
66.1078 1.094
66.1381 0.781
66.1684 0.990
66.1987 1.146
66.2289 1.458
66.2592 1.146
66.2895 1.094
66.3198 1.250
66.3500 0.833
66.3803 0.781
66.4106 1.562
66.4409 0.677
66.4712 0.573
66.5014 0.833
66.5317 0.937
66.5620 0.677
66.5923 0.885
66.6226 0.781
66.6528 0.885
66.6831 0.781
66.7134 0.937
66.7437 0.885
66.7739 0.781
66.8042 1.406
66.8345 0.937
66.8648 1.302
66.8951 0.937
66.9253 1.094
66.9556 0.990
66.9859 1.094
67.0162 1.250
67.0465 0.885
67.0767 1.250
67.1070 0.885
67.1373 0.937
67.1676 0.781
67.1978 1.094
67.2281 1.302
67.2584 1.302
67.2887 1.146
67.3190 1.354
67.3492 1.302
67.3795 1.510
67.4098 1.406
67.4401 1.615
67.4704 1.510
67.5006 2.135
67.5309 1.250
67.5612 1.510
67.5915 1.979
67.6218 2.344
67.6520 2.135
67.6823 2.448
67.7126 2.917
67.7429 2.448
67.7731 2.604
67.8034 2.448
67.8337 2.396
67.8640 2.865
67.8943 1.719
67.9245 2.708
67.9548 2.344
67.9851 2.344
68.0154 2.344
68.0457 2.083
68.0759 1.667
68.1062 2.083
68.1365 1.302
68.1668 2.240
68.1970 1.823
68.2273 1.979
68.2576 2.031
68.2879 1.719
68.3182 1.615
68.3484 1.510
68.3787 1.667
68.4090 1.302
68.4393 1.667
68.4696 1.510
68.4998 1.823
68.5301 1.458
68.5604 1.094
68.5907 1.719
68.6209 1.771
68.6512 1.406
68.6815 1.562
68.7118 1.146
68.7421 1.562
68.7723 1.094
68.8026 1.615
68.8329 1.667
68.8632 1.771
68.8935 1.562
68.9237 1.823
68.9540 1.823
68.9843 1.302
69.0146 1.615
69.0448 1.354
69.0751 1.458
69.1054 1.458
69.1357 1.302
69.1660 1.146
69.1962 1.406
69.2265 1.042
69.2568 1.146
69.2871 1.458
69.3174 0.781
69.3476 1.146
69.3779 0.677
69.4082 0.781
69.4385 1.094
69.4687 1.094
69.4990 1.042
69.5293 0.833
69.5596 0.781
69.5899 0.781
69.6201 0.781
69.6504 0.833
69.6807 0.781
69.7110 0.625
69.7413 0.781
69.7715 1.302
69.8018 0.625
69.8321 0.573
69.8624 0.573
69.8926 0.573
69.9229 0.469
69.9532 0.833
69.9835 0.729
70.0138 0.729
70.0440 0.729
70.0743 0.729
70.1046 0.729
70.1349 0.677
70.1652 0.729
70.1954 0.729
70.2257 0.833
70.2560 0.781
70.2863 0.781
70.3166 0.781
70.3468 0.625
70.3771 0.312
70.4074 0.521
70.4377 0.365
70.4679 0.469
70.4982 0.990
70.5285 0.365
70.5588 0.573
70.5891 0.833
70.6193 0.729
70.6496 0.937
70.6799 0.729
70.7102 0.625
70.7405 0.260
70.7707 0.625
70.8010 0.521
70.8313 0.781
70.8616 0.365
70.8918 0.573
70.9221 0.312
70.9524 0.625
70.9827 0.417
71.0130 0.365
71.0432 0.625
71.0735 0.625
71.1038 0.417
71.1341 0.469
71.1644 0.417
71.1946 0.469
71.2249 0.469
71.2552 0.885
71.2855 0.833
71.3157 0.625
71.3460 0.521
71.3763 0.417
71.4066 0.469
71.4369 0.729
71.4671 0.729
71.4974 0.885
71.5277 0.625
71.5580 0.677
71.5883 0.365
71.6185 0.521
71.6488 0.677
71.6791 0.677
71.7094 0.573
71.7396 0.573
71.7699 0.417
71.8002 0.469
71.8305 0.729
71.8608 0.417
71.8910 0.469
71.9213 0.625
71.9516 0.469
71.9819 0.521
72.0122 0.573
72.0424 0.677
72.0727 0.260
72.1030 0.469
72.1333 0.729
72.1635 0.365
72.1938 0.417
72.2241 0.625
72.2544 0.677
72.2847 0.521
72.3149 0.729
72.3452 0.625
72.3755 0.885
72.4058 0.469
72.4361 0.573
72.4663 0.781
72.4966 0.729
72.5269 0.625
72.5572 0.781
72.5874 0.677
72.6177 0.625
72.6480 0.573
72.6783 0.729
72.7086 0.625
72.7388 0.781
72.7691 0.469
72.7994 0.677
72.8297 0.573
72.8600 0.365
72.8902 0.573
72.9205 0.573
72.9508 0.625
72.9811 0.729
73.0113 0.417
73.0416 0.260
73.0719 0.521
73.1022 0.573
73.1325 0.729
73.1627 0.365
73.1930 0.625
73.2233 0.625
73.2536 0.521
73.2839 0.729
73.3141 0.729
73.3444 0.729
73.3747 0.625
73.4050 0.469
73.4353 0.521
73.4655 0.260
73.4958 0.469
73.5261 0.417
73.5564 0.677
73.5866 0.729
73.6169 0.521
73.6472 0.521
73.6775 0.417
73.7078 0.729
73.7380 0.729
73.7683 0.573
73.7986 0.781
73.8289 0.312
73.8592 0.365
73.8894 0.469
73.9197 0.625
73.9500 0.625
73.9803 0.677
74.0105 0.521
74.0408 0.625
74.0711 0.260
74.1014 0.625
74.1317 0.625
74.1619 0.573
74.1922 0.417
74.2225 0.417
74.2528 0.365
74.2831 0.312
74.3133 0.417
74.3436 0.625
74.3739 0.573
74.4042 0.469
74.4344 0.469
74.4647 0.729
74.4950 0.573
74.5253 0.677
74.5556 0.573
74.5858 0.781
74.6161 0.781
74.6464 0.521
74.6767 0.417
74.7070 0.312
74.7372 0.937
74.7675 0.677
74.7978 0.625
74.8281 0.573
74.8583 0.625
74.8886 0.625
74.9189 0.885
74.9492 0.469
74.9795 0.365
75.0097 0.312
75.0400 0.469
75.0703 0.521
75.1006 0.469
75.1309 0.521
75.1611 0.729
75.1914 0.312
75.2217 0.312
75.2520 0.729
75.2822 0.521
75.3125 0.469
75.3428 0.677
75.3731 0.312
75.4034 0.521
75.4336 0.521
75.4639 0.625
75.4942 0.625
75.5245 0.417
75.5548 0.365
75.5850 0.469
75.6153 0.833
75.6456 0.417
75.6759 0.365
75.7061 0.365
75.7364 0.729
75.7667 0.365
75.7970 0.729
75.8273 0.573
75.8575 0.677
75.8878 0.573
75.9181 0.469
75.9484 0.417
75.9787 0.573
76.0089 0.156
76.0392 0.365
76.0695 0.573
76.0998 0.885
76.1301 0.573
76.1603 0.729
76.1906 0.625
76.2209 0.781
76.2512 0.521
76.2814 0.677
76.3117 0.573
76.3420 0.781
76.3723 0.521
76.4026 0.677
76.4328 0.625
76.4631 0.625
76.4934 0.677
76.5237 0.312
76.5540 0.469
76.5842 0.937
76.6145 0.677
76.6448 0.625
76.6751 0.677
76.7053 0.729
76.7356 0.677
76.7659 0.833
76.7962 0.833
76.8265 0.781
76.8567 0.677
76.8870 0.521
76.9173 0.365
76.9476 0.833
76.9779 0.625
77.0081 0.885
77.0384 0.885
77.0687 0.729
77.0990 0.312
77.1292 0.729
77.1595 0.365
77.1898 0.417
77.2201 0.573
77.2504 0.833
77.2806 0.677
77.3109 0.312
77.3412 0.729
77.3715 0.573
77.4018 0.573
77.4320 0.625
77.4623 0.417
77.4926 0.521
77.5229 0.885
77.5531 0.625
77.5834 0.625
77.6137 0.781
77.6440 0.573
77.6743 0.990
77.7045 0.677
77.7348 0.312
77.7651 0.365
77.7954 0.365
77.8257 0.573
77.8559 0.677
77.8862 1.042
77.9165 0.469
77.9468 0.469
77.9770 0.469
78.0073 0.677
78.0376 0.521
78.0679 0.573
78.0982 0.625
78.1284 0.365
78.1587 0.677
78.1890 0.260
78.2193 0.625
78.2496 0.625
78.2798 0.417
78.3101 0.417
78.3404 0.937
78.3707 0.729
78.4009 0.312
78.4312 0.312
78.4615 0.573
78.4918 1.042
78.5221 0.625
78.5523 0.625
78.5826 0.781
78.6129 0.417
78.6432 0.573
78.6735 0.365
78.7037 0.573
78.7340 0.260
78.7643 0.573
78.7946 0.469
78.8248 0.677
78.8551 0.469
78.8854 0.469
78.9157 0.937
78.9460 0.677
78.9762 0.417
79.0065 0.417
79.0368 0.677
79.0671 0.417
79.0974 0.729
79.1276 0.625
79.1579 0.625
79.1882 0.573
79.2185 0.625
79.2488 0.729
79.2790 0.521
79.3093 0.260
79.3396 0.469
79.3699 0.729
79.4001 0.573
79.4304 0.677
79.4607 0.469
79.4910 0.729
79.5213 0.781
79.5515 0.781
79.5818 0.573
79.6121 0.365
79.6424 0.417
79.6727 0.781
79.7029 0.625
79.7332 0.729
79.7635 0.365
79.7938 0.521
79.8240 0.677
79.8543 0.729
79.8846 0.469
79.9149 0.625
79.9452 0.625
79.9754 0.417
80.0057 0.312
80.0360 0.781
80.0663 0.573
80.0966 0.677
80.1268 0.573
80.1571 0.625
80.1874 0.469
80.2177 0.573
80.2479 0.417
80.2782 0.729
80.3085 0.417
80.3388 0.417
80.3691 0.417
80.3993 0.573
80.4296 0.417
80.4599 0.417
80.4902 0.677
80.5205 0.260
80.5507 0.573
80.5810 0.937
80.6113 0.312
80.6416 0.521
80.6718 0.625
80.7021 0.469
80.7324 0.729
80.7627 0.521
80.7930 0.781
80.8232 0.469
80.8535 0.625
80.8838 0.417
80.9141 0.469
80.9444 0.729
80.9746 0.469
81.0049 0.573
81.0352 0.677
81.0655 0.625
81.0957 0.729
81.1260 0.885
81.1563 0.885
81.1866 0.521
81.2169 0.469
81.2471 0.573
81.2774 1.146
81.3077 0.625
81.3380 0.573
81.3683 0.729
81.3985 0.365
81.4288 0.729
81.4591 0.885
81.4894 0.365
81.5196 0.781
81.5499 0.469
81.5802 0.833
81.6105 0.625
81.6408 0.208
81.6710 0.365
81.7013 0.573
81.7316 0.365
81.7619 0.833
81.7922 0.625
81.8224 0.573
81.8527 0.729
81.8830 0.573
81.9133 0.312
81.9436 0.573
81.9738 0.729
82.0041 0.573
82.0344 0.469
82.0647 0.833
82.0949 0.781
82.1252 0.729
82.1555 0.573
82.1858 0.417
82.2161 0.417
82.2463 0.573
82.2766 0.469
82.3069 0.312
82.3372 0.365
82.3675 0.521
82.3977 0.729
82.4280 0.521
82.4583 0.729
82.4886 0.260
82.5188 0.573
82.5491 0.833
82.5794 0.677
82.6097 0.625
82.6400 0.469
82.6702 0.521
82.7005 0.625
82.7308 0.781
82.7611 0.781
82.7914 0.417
82.8216 1.042
82.8519 0.781
82.8822 0.573
82.9125 0.469
82.9427 0.521
82.9730 0.521
83.0033 0.469
83.0336 0.469
83.0639 0.625
83.0941 0.312
83.1244 0.729
83.1547 0.365
83.1850 0.260
83.2153 0.312
83.2455 0.417
83.2758 0.573
83.3061 0.677
83.3364 0.729
83.3666 0.365
83.3969 0.417
83.4272 0.365
83.4575 0.625
83.4878 0.417
83.5180 0.365
83.5483 0.365
83.5786 0.469
83.6089 0.365
83.6392 0.625
83.6694 0.521
83.6997 0.625
83.7300 0.729
83.7603 0.469
83.7905 0.521
83.8208 0.677
83.8511 0.677
83.8814 0.573
83.9117 0.469
83.9419 0.625
83.9722 0.625
84.0025 0.417
84.0328 0.729
84.0631 0.677
84.0933 0.365
84.1236 0.417
84.1539 0.729
84.1842 0.365
84.2144 0.729
84.2447 0.417
84.2750 0.365
84.3053 0.729
84.3356 0.625
84.3658 0.469
84.3961 0.312
84.4264 0.260
84.4567 0.781
84.4870 0.729
84.5172 0.729
84.5475 0.729
84.5778 0.573
84.6081 0.417
84.6383 0.677
84.6686 0.573
84.6989 0.833
84.7292 0.729
84.7595 0.312
84.7897 0.625
84.8200 0.312
84.8503 0.625
84.8806 0.469
84.9109 0.469
84.9411 0.521
84.9714 0.729
85.0017 0.260
85.0320 0.677
85.0623 0.573
85.0925 0.312
85.1228 0.625
85.1531 0.365
85.1834 0.521
85.2136 0.573
85.2439 0.208
85.2742 0.417
85.3045 0.312
85.3348 0.312
85.3650 0.469
85.3953 0.365
85.4256 0.365
85.4559 0.365
85.4862 0.677
85.5164 0.521
85.5467 0.625
85.5770 0.208
85.6073 0.521
85.6375 0.469
85.6678 0.260
85.6981 0.365
85.7284 0.729
85.7587 0.417
85.7889 0.625
85.8192 0.677
85.8495 0.573
85.8798 0.365
85.9101 0.677
85.9403 0.417
85.9706 0.677
86.0009 0.625
86.0312 0.312
86.0614 0.260
86.0917 0.417
86.1220 0.417
86.1523 0.521
86.1826 0.260
86.2128 0.885
86.2431 0.312
86.2734 0.365
86.3037 0.521
86.3340 0.625
86.3642 0.573
86.3945 0.312
86.4248 0.260
86.4551 0.521
86.4853 0.312
86.5156 0.208
86.5459 0.625
86.5762 0.521
86.6065 0.521
86.6367 0.469
86.6670 0.312
86.6973 0.625
86.7276 0.469
86.7579 0.417
86.7881 0.312
86.8184 0.625
86.8487 0.365
86.8790 0.729
86.9092 0.365
86.9395 0.521
86.9698 0.625
87.0001 0.469
87.0304 0.417
87.0606 0.729
87.0909 0.521
87.1212 0.260
87.1515 0.573
87.1818 0.573
87.2120 0.417
87.2423 0.521
87.2726 0.573
87.3029 0.521
87.3331 0.729
87.3634 0.677
87.3937 0.365
87.4240 0.573
87.4543 0.521
87.4845 0.677
87.5148 0.573
87.5451 0.260
87.5754 0.156
87.6057 0.521
87.6359 0.260
87.6662 0.365
87.6965 0.521
87.7268 0.365
87.7571 0.469
87.7873 0.521
87.8176 0.625
87.8479 0.104
87.8782 0.729
87.9084 0.729
87.9387 0.469
87.9690 0.521
87.9993 0.365
88.0296 0.521
88.0598 0.260
88.0901 0.625
88.1204 0.781
88.1507 0.729
88.1810 0.417
88.2112 0.312
88.2415 0.677
88.2718 0.417
88.3021 0.469
88.3323 0.937
88.3626 0.729
88.3929 0.625
88.4232 0.625
88.4535 0.729
88.4837 0.260
88.5140 0.260
88.5443 0.729
88.5746 0.625
88.6049 0.521
88.6351 0.625
88.6654 0.729
88.6957 0.521
88.7260 0.781
88.7562 0.260
88.7865 0.729
88.8168 0.573
88.8471 0.521
88.8774 0.573
88.9076 0.469
88.9379 0.677
88.9682 0.677
88.9985 0.781
89.0288 0.885
89.0590 0.885
89.0893 0.729
89.1196 0.937
89.1499 0.885
89.1801 0.521
89.2104 0.573
89.2407 0.469
89.2710 0.469
89.3013 0.729
89.3315 0.833
89.3618 0.677
89.3921 1.198
89.4224 0.885
89.4527 0.521
89.4829 1.094
89.5132 1.146
89.5435 0.937
89.5738 0.677
89.6040 0.885
89.6343 1.042
89.6646 1.094
89.6949 0.990
89.7252 0.625
89.7554 0.729
89.7857 1.146
89.8160 0.885
89.8463 0.990
89.8766 0.781
89.9068 0.990
89.9371 0.937
89.9674 0.625
89.9977 0.573
90.0279 0.833
90.0582 0.729
90.0885 0.729
90.1188 0.573
90.1491 0.677
90.1793 0.781
90.2096 1.042
90.2399 0.677
90.2702 0.729
90.3005 0.573
90.3307 0.469
90.3610 0.417
90.3913 0.677
90.4216 0.365
90.4518 0.469
90.4821 0.677
90.5124 0.417
90.5427 0.312
90.5730 0.677
90.6032 0.729
90.6335 0.729
90.6638 0.260
90.6941 0.573
90.7244 0.729
90.7546 0.729
90.7849 0.677
90.8152 0.729
90.8455 0.573
90.8758 0.781
90.9060 0.521
90.9363 0.729
90.9666 0.781
90.9969 0.729
91.0271 0.365
91.0574 0.365
91.0877 0.417
91.1180 0.521
91.1483 0.625
91.1785 0.312
91.2088 0.677
91.2391 0.729
91.2694 0.625
91.2997 0.312
91.3299 0.573
91.3602 0.521
91.3905 0.833
91.4208 0.677
91.4510 0.312
91.4813 0.260
91.5116 0.365
91.5419 0.417
91.5722 0.729
91.6024 0.729
91.6327 0.677
91.6630 0.677
91.6933 0.365
91.7236 0.417
91.7538 0.937
91.7841 0.729
91.8144 0.677
91.8447 0.625
91.8749 0.573
91.9052 0.729
91.9355 0.677
91.9658 0.469
91.9961 0.469
92.0263 0.677
92.0566 1.458
92.0869 0.625
92.1172 0.312
92.1475 0.677
92.1777 0.781
92.2080 0.573
92.2383 1.042
92.2686 0.677
92.2988 0.625
92.3291 0.417
92.3594 0.729
92.3897 0.521
92.4200 0.677
92.4502 0.729
92.4805 0.573
92.5108 0.677
92.5411 1.094
92.5714 0.521
92.6016 0.729
92.6319 0.677
92.6622 0.677
92.6925 0.417
92.7227 0.573
92.7530 0.469
92.7833 0.729
92.8136 0.729
92.8439 0.885
92.8741 0.365
92.9044 0.729
92.9347 1.042
92.9650 0.573
92.9953 0.781
93.0255 0.677
93.0558 0.521
93.0861 0.573
93.1164 0.521
93.1466 0.521
93.1769 0.833
93.2072 0.521
93.2375 0.469
93.2678 0.833
93.2980 0.573
93.3283 0.677
93.3586 0.573
93.3889 0.260
93.4192 0.729
93.4494 0.417
93.4797 0.729
93.5100 0.521
93.5403 0.573
93.5706 0.573
93.6008 0.677
93.6311 0.312
93.6614 0.729
93.6917 0.573
93.7219 0.312
93.7522 0.729
93.7825 0.417
93.8128 0.677
93.8431 0.677
93.8733 0.677
93.9036 0.729
93.9339 0.573
93.9642 0.625
93.9945 0.729
94.0247 0.469
94.0550 0.729
94.0853 0.573
94.1156 0.417
94.1458 0.729
94.1761 0.729
94.2064 0.521
94.2367 0.677
94.2670 0.521
94.2972 0.937
94.3275 0.625
94.3578 0.365
94.3881 0.625
94.4184 0.417
94.4486 0.417
94.4789 0.677
94.5092 0.521
94.5395 0.573
94.5697 0.573
94.6000 1.094
94.6303 0.833
94.6606 0.729
94.6909 0.312
94.7211 0.573
94.7514 0.625
94.7817 0.937
94.8120 0.573
94.8423 0.625
94.8725 0.937
94.9028 0.677
94.9331 0.677
94.9634 0.781
94.9936 0.937
95.0239 0.833
95.0542 0.885
95.0845 0.625
95.1148 0.833
95.1450 0.937
95.1753 0.990
95.2056 0.937
95.2359 0.781
95.2662 1.198
95.2964 0.990
95.3267 1.198
95.3570 0.625
95.3873 1.146
95.4175 0.729
95.4478 0.625
95.4781 0.729
95.5084 0.781
95.5387 0.625
95.5689 0.729
95.5992 0.625
95.6295 0.729
95.6598 0.781
95.6901 0.781
95.7203 0.573
95.7506 0.729
95.7809 1.094
95.8112 1.094
95.8414 0.833
95.8717 0.417
95.9020 0.833
95.9323 0.417
95.9626 0.365
95.9928 0.521
96.0231 0.521
96.0534 0.625
96.0837 0.521
96.1140 0.469
96.1442 0.729
96.1745 0.729
96.2048 0.625
96.2351 0.573
96.2653 0.469
96.2956 0.677
96.3259 0.573
96.3562 0.521
96.3865 0.729
96.4167 0.469
96.4470 0.573
96.4773 0.312
96.5076 0.729
96.5379 0.312
96.5681 0.573
96.5984 0.417
96.6287 0.521
96.6590 0.990
96.6893 0.781
96.7195 0.260
96.7498 0.469
96.7801 0.573
96.8104 0.625
96.8406 0.521
96.8709 0.729
96.9012 0.729
96.9315 0.677
96.9618 0.729
96.9920 0.625
97.0223 0.937
97.0526 0.573
97.0829 0.885
97.1132 0.365
97.1434 0.729
97.1737 0.677
97.2040 0.417
97.2343 0.573
97.2645 0.365
97.2948 0.573
97.3251 0.260
97.3554 0.573
97.3857 0.729
97.4159 0.885
97.4462 0.365
97.4765 0.729
97.5068 0.521
97.5371 0.365
97.5673 0.677
97.5976 0.521
97.6279 0.781
97.6582 0.521
97.6884 0.417
97.7187 0.677
97.7490 0.469
97.7793 0.625
97.8096 0.573
97.8398 0.729
97.8701 0.781
97.9004 0.573
97.9307 0.573
97.9610 0.781
97.9912 0.781
98.0215 0.937
98.0518 0.990
98.0821 0.573
98.1123 0.781
98.1426 0.729
98.1729 0.469
98.2032 0.729
98.2335 0.417
98.2637 0.729
98.2940 0.625
98.3243 0.781
98.3546 0.781
98.3849 0.937
98.4151 0.417
98.4454 0.885
98.4757 1.146
98.5060 0.729
98.5362 1.510
98.5665 0.677
98.5968 0.729
98.6271 0.625
98.6574 0.469
98.6876 0.573
98.7179 0.729
98.7482 0.573
98.7785 0.990
98.8088 0.625
98.8390 0.781
98.8693 0.937
98.8996 0.260
98.9299 0.365
98.9601 0.781
98.9904 0.729
99.0207 0.677
99.0510 0.521
99.0813 0.625
99.1115 0.937
99.1418 0.521
99.1721 0.469
99.2024 0.625
99.2327 0.937
99.2629 0.781
99.2932 0.833
99.3235 0.781
99.3538 0.781
99.3841 0.469
99.4143 0.260
99.4446 0.781
99.4749 0.885
99.5052 0.521
99.5354 0.833
99.5657 0.417
99.5960 0.417
99.6263 0.573
99.6566 0.729
99.6868 0.625
99.7171 0.625
99.7474 0.729
99.7777 0.677
99.8080 0.521
99.8382 0.260
99.8685 0.833
99.8988 0.521
99.9291 0.521
99.9593 0.781
99.9896 0.729
100.0199 0.469
100.0502 0.625
100.0805 0.312
100.1107 1.094
100.1410 0.573
100.1713 0.417
100.2016 0.521
100.2319 0.885
100.2621 0.365
100.2924 0.625
100.3227 0.885
100.3530 0.625
100.3832 0.573
100.4135 0.729
100.4438 0.937
100.4741 0.937
100.5044 0.729
100.5346 0.573
100.5649 0.677
100.5952 0.469
100.6255 0.469
100.6558 0.833
100.6860 0.677
100.7163 0.729
100.7466 0.729
100.7769 0.469
100.8071 0.625
100.8374 0.417
100.8677 0.260
100.8980 0.625
100.9283 0.521
100.9585 0.677
100.9888 0.885
101.0191 0.990
101.0494 0.729
101.0797 0.729
101.1099 0.625
101.1402 0.573
101.1705 0.365
101.2008 0.833
101.2310 0.312
101.2613 0.625
101.2916 0.833
101.3219 0.573
101.3522 0.729
101.3824 0.573
101.4127 0.677
101.4430 0.208
101.4733 0.885
101.5036 0.781
101.5338 0.625
101.5641 0.521
101.5944 0.469
101.6247 0.833
101.6549 0.573
101.6852 0.417
101.7155 0.729
101.7458 0.521
101.7761 0.469
101.8063 0.469
101.8366 0.729
101.8669 0.781
101.8972 0.729
101.9275 0.833
101.9577 0.885
101.9880 0.833
102.0183 0.469
102.0486 0.521
102.0788 0.729
102.1091 0.781
102.1394 0.781
102.1697 0.781
102.2000 0.625
102.2302 1.146
102.2605 0.677
102.2908 0.833
102.3211 0.573
102.3514 0.729
102.3816 0.729
102.4119 0.625
102.4422 0.573
102.4725 0.781
102.5028 0.677
102.5330 0.469
102.5633 0.937
102.5936 0.417
102.6239 1.354
102.6541 0.365
102.6844 0.573
102.7147 0.469
102.7450 0.417
102.7753 0.625
102.8055 0.365
102.8358 0.833
102.8661 0.312
102.8964 0.417
102.9267 0.833
102.9569 0.937
102.9872 1.094
103.0175 0.729
103.0478 0.677
103.0780 0.729
103.1083 0.990
103.1386 0.937
103.1689 0.729
103.1992 0.417
103.2294 0.573
103.2597 0.677
103.2900 0.833
103.3203 0.990
103.3506 0.573
103.3808 1.302
103.4111 0.677
103.4414 0.417
103.4717 0.781
103.5019 0.937
103.5322 0.937
103.5625 0.573
103.5928 0.729
103.6231 0.365
103.6533 0.521
103.6836 0.729
103.7139 0.781
103.7442 0.781
103.7745 0.781
103.8047 0.729
103.8350 0.990
103.8653 0.990
103.8956 0.625
103.9258 0.781
103.9561 1.146
103.9864 0.677
104.0167 0.885
104.0470 0.729
104.0772 0.781
104.1075 1.094
104.1378 0.781
104.1681 0.833
104.1984 0.781
104.2286 0.677
104.2589 0.990
104.2892 1.042
104.3195 1.042
104.3497 0.833
104.3800 0.885
104.4103 0.573
104.4406 1.094
104.4709 0.833
104.5011 1.042
104.5314 0.937
104.5617 0.781
104.5920 0.937
104.6223 1.094
104.6525 0.833
104.6828 0.937
104.7131 0.677
104.7434 1.094
104.7736 0.417
104.8039 0.365
104.8342 0.625
104.8645 0.417
104.8948 0.833
104.9250 0.625
104.9553 0.365
104.9856 0.417
105.0159 0.417
105.0462 0.729
105.0764 0.260
105.1067 0.312
105.1370 0.677
105.1673 0.833
105.1975 0.573
105.2278 0.937
105.2581 0.990
105.2884 0.521
105.3187 0.781
105.3489 0.937
105.3792 0.833
105.4095 0.469
105.4398 0.781
105.4701 0.781
105.5003 0.625
105.5306 0.260
105.5609 1.094
105.5912 0.469
105.6215 0.781
105.6517 0.625
105.6820 0.417
105.7123 0.833
105.7426 0.833
105.7728 0.885
105.8031 0.625
105.8334 0.573
105.8637 0.417
105.8940 1.094
105.9242 0.729
105.9545 0.573
105.9848 0.729
106.0151 0.521
106.0454 0.729
106.0756 0.729
106.1059 0.625
106.1362 0.521
106.1665 0.625
106.1967 0.573
106.2270 0.625
106.2573 0.521
106.2876 0.417
106.3179 0.573
106.3481 0.677
106.3784 0.677
106.4087 0.677
106.4390 0.417
106.4693 0.990
106.4995 0.625
106.5298 0.677
106.5601 0.937
106.5904 0.937
106.6206 1.042
106.6509 0.833
106.6812 0.625
106.7115 0.781
106.7418 0.729
106.7720 0.573
106.8023 0.937
106.8326 0.625
106.8629 0.781
106.8932 0.625
106.9234 0.885
106.9537 0.833
106.9840 0.573
107.0143 0.885
107.0445 0.469
107.0748 0.833
107.1051 0.729
107.1354 0.417
107.1657 0.781
107.1959 0.833
107.2262 0.521
107.2565 0.417
107.2868 0.781
107.3171 0.885
107.3473 0.625
107.3776 0.885
107.4079 0.625
107.4382 0.885
107.4684 0.677
107.4987 0.469
107.5290 0.885
107.5593 0.312
107.5896 0.833
107.6198 0.469
107.6501 0.417
107.6804 0.833
107.7107 0.417
107.7410 0.573
107.7712 0.677
107.8015 0.573
107.8318 0.625
107.8621 0.781
107.8923 0.833
107.9226 0.781
107.9529 0.573
107.9832 0.781
108.0135 0.885
108.0437 0.417
108.0740 0.781
108.1043 0.260
108.1346 0.833
108.1649 0.469
108.1951 0.521
108.2254 0.729
108.2557 0.729
108.2860 1.042
108.3163 0.573
108.3465 0.625
108.3768 0.781
108.4071 0.521
108.4374 0.521
108.4676 0.625
108.4979 0.729
108.5282 0.417
108.5585 0.365
108.5888 0.625
108.6190 0.469
108.6493 0.573
108.6796 0.469
108.7099 0.521
108.7402 0.833
108.7704 0.885
108.8007 0.833
108.8310 0.573
108.8613 0.260
108.8915 0.729
108.9218 0.781
108.9521 0.573
108.9824 0.521
109.0127 0.521
109.0429 0.937
109.0732 0.573
109.1035 0.729
109.1338 0.677
109.1641 0.521
109.1943 0.417
109.2246 0.729
109.2549 0.625
109.2852 0.365
109.3154 0.625
109.3457 0.677
109.3760 0.573
109.4063 0.417
109.4366 0.521
109.4668 0.521
109.4971 0.833
109.5274 0.729
109.5577 0.625
109.5880 0.521
109.6182 0.937
109.6485 0.677
109.6788 0.625
109.7091 0.521
109.7393 0.469
109.7696 0.677
109.7999 0.781
109.8302 0.677
109.8605 0.729
109.8907 0.885
109.9210 0.521
109.9513 0.833
109.9816 0.729
110.0119 0.625
110.0421 0.677
110.0724 0.885
110.1027 1.094
110.1330 0.625
110.1632 0.937
110.1935 0.573
110.2238 0.573
110.2541 0.937
110.2844 0.729
110.3146 1.094
110.3449 0.312
110.3752 0.937
110.4055 0.885
110.4358 0.573
110.4660 0.937
110.4963 0.729
110.5266 0.781
110.5569 0.833
110.5871 1.198
110.6174 0.729
110.6477 0.885
110.6780 0.625
110.7083 1.042
110.7385 0.625
110.7688 0.781
110.7991 0.781
110.8294 0.729
110.8597 0.885
110.8899 0.469
110.9202 1.354
110.9505 0.729
110.9808 0.885
111.0110 0.781
111.0413 1.042
111.0716 0.521
111.1019 0.677
111.1322 0.677
111.1624 0.729
111.1927 0.573
111.2230 0.729
111.2533 0.729
111.2836 0.677
111.3138 0.729
111.3441 0.677
111.3744 0.312
111.4047 0.469
111.4350 0.781
111.4652 0.521
111.4955 0.677
111.5258 0.312
111.5561 0.833
111.5863 0.521
111.6166 0.521
111.6469 0.469
111.6772 0.781
111.7075 0.365
111.7377 0.729
111.7680 0.417
111.7983 0.781
111.8286 0.625
111.8589 0.365
111.8891 0.417
111.9194 0.729
111.9497 0.521
111.9800 0.469
112.0102 0.937
112.0405 0.833
112.0708 0.365
112.1011 0.417
112.1314 0.365
112.1616 0.677
112.1919 0.781
112.2222 0.781
112.2525 0.312
112.2828 0.729
112.3130 0.521
112.3433 0.625
112.3736 0.885
112.4039 0.677
112.4341 1.094
112.4644 0.885
112.4947 0.365
112.5250 0.521
112.5553 0.729
112.5855 0.573
112.6158 0.677
112.6461 0.365
112.6764 0.677
112.7067 0.365
112.7369 0.677
112.7672 0.365
112.7975 0.781
112.8278 0.521
112.8580 0.781
112.8883 0.469
112.9186 0.625
112.9489 0.365
112.9792 0.365
113.0094 0.729
113.0397 0.781
113.0700 0.937
113.1003 0.833
113.1306 0.625
113.1608 0.417
113.1911 0.417
113.2214 0.521
113.2517 0.833
113.2819 0.365
113.3122 0.417
113.3425 0.937
113.3728 0.781
113.4031 0.781
113.4333 0.573
113.4636 0.781
113.4939 0.469
113.5242 0.937
113.5545 0.573
113.5847 0.677
113.6150 0.573
113.6453 0.781
113.6756 0.417
113.7058 0.573
113.7361 0.833
113.7664 0.833
113.7967 0.677
113.8270 0.677
113.8572 0.521
113.8875 0.781
113.9178 0.729
113.9481 0.937
113.9784 0.573
114.0086 0.729
114.0389 0.521
114.0692 0.312
114.0995 0.625
114.1298 0.729
114.1600 0.573
114.1903 0.469
114.2206 0.781
114.2509 0.677
114.2811 0.781
114.3114 0.729
114.3417 0.625
114.3720 0.677
114.4023 0.573
114.4325 0.573
114.4628 1.094
114.4931 0.625
114.5234 0.729
114.5537 0.417
114.5839 0.417
114.6142 0.625
114.6445 0.573
114.6748 0.469
114.7050 0.469
114.7353 0.625
114.7656 0.469
114.7959 0.677
114.8262 0.833
114.8564 0.521
114.8867 0.573
114.9170 0.677
114.9473 0.885
114.9776 0.885
115.0078 0.573
115.0381 0.469
115.0684 0.625
115.0987 0.625
115.1289 0.729
115.1592 0.781
115.1895 0.312
115.2198 0.573
115.2501 0.469
115.2803 0.937
115.3106 0.677
115.3409 0.677
115.3712 0.781
115.4015 0.781
115.4317 0.781
115.4620 0.677
115.4923 0.937
115.5226 0.990
115.5528 0.833
115.5831 0.729
115.6134 0.833
115.6437 0.885
115.6740 0.729
115.7042 0.469
115.7345 0.990
115.7648 0.729
115.7951 0.677
115.8254 0.885
115.8556 1.042
115.8859 0.937
115.9162 0.990
115.9465 0.729
115.9767 1.094
116.0070 1.042
116.0373 0.677
116.0676 1.458
116.0979 1.146
116.1281 0.781
116.1584 0.729
116.1887 0.937
116.2190 1.198
116.2493 1.042
116.2795 1.042
116.3098 0.833
116.3401 0.885
116.3704 1.146
116.4006 1.406
116.4309 1.094
116.4612 0.625
116.4915 1.250
116.5218 1.146
116.5520 0.781
116.5823 0.833
116.6126 1.094
116.6429 0.781
116.6732 1.146
116.7034 0.677
116.7337 0.937
116.7640 0.833
116.7943 0.885
116.8245 0.469
116.8548 0.937
116.8851 0.365
116.9154 0.573
116.9457 0.677
116.9759 0.937
117.0062 0.990
117.0365 0.885
117.0668 0.677
117.0971 0.781
117.1273 0.625
117.1576 0.521
117.1879 0.677
117.2182 0.729
117.2485 0.833
117.2787 0.781
117.3090 0.417
117.3393 0.990
117.3696 0.677
117.3998 0.365
117.4301 0.625
117.4604 0.885
117.4907 0.885
117.5210 0.417
117.5512 0.625
117.5815 0.937
117.6118 0.781
117.6421 0.521
117.6724 0.833
117.7026 0.521
117.7329 0.677
117.7632 0.677
117.7935 1.094
117.8237 0.937
117.8540 0.365
117.8843 0.625
117.9146 0.573
117.9449 0.729
117.9751 0.885
118.0054 0.625
118.0357 0.781
118.0660 0.729
118.0963 0.833
118.1265 0.833
118.1568 0.990
118.1871 1.042
118.2174 0.573
118.2476 0.625
118.2779 0.625
118.3082 0.469
118.3385 0.729
118.3688 0.833
118.3990 0.833
118.4293 0.885
118.4596 0.625
118.4899 0.833
118.5202 0.677
118.5504 0.729
118.5807 0.937
118.6110 0.729
118.6413 0.625
118.6715 0.729
118.7018 0.677
118.7321 1.146
118.7624 0.781
118.7927 0.521
118.8229 0.573
118.8532 0.677
118.8835 0.469
118.9138 0.781
118.9441 0.573
118.9743 0.677
119.0046 0.781
119.0349 0.677
119.0652 0.521
119.0954 0.677
119.1257 0.833
119.1560 0.937
119.1863 0.729
119.2166 0.781
119.2468 0.677
119.2771 0.625
119.3074 0.833
119.3377 0.990
119.3680 0.625
119.3982 0.781
119.4285 0.521
119.4588 0.573
119.4891 0.521
119.5193 0.781
119.5496 0.677
119.5799 0.521
119.6102 0.990
119.6405 0.469
119.6707 0.833
119.7010 0.625
119.7313 0.469
119.7616 0.469
119.7919 0.990
119.8221 0.573
119.8524 0.781
119.8827 0.781
119.9130 0.990
119.9433 0.573
119.9735 0.677
120.0038 0.573
