'Id: "" Comment: "" Operator: "Lab Manager" Anode: "Cu" Scantype: "Locked Coupled" TimePerStep: "19.2" X: "9999" Y: "9999" Z: "9999" 
10.0015 151.979
10.0318 151.823
10.0620 150.781
10.0923 152.344
10.1226 156.250
10.1529 154.531
10.1832 154.583
10.2134 161.198
10.2437 155.573
10.2740 157.969
10.3043 155.156
10.3346 160.677
10.3648 156.198
10.3951 154.948
10.4254 156.875
10.4557 154.115
10.4859 151.146
10.5162 146.667
10.5465 145.990
10.5768 144.531
10.6071 137.187
10.6373 133.958
10.6676 128.646
10.6979 125.677
10.7282 121.146
10.7585 116.875
10.7887 110.208
10.8190 110.104
10.8493 103.594
10.8796 98.490
10.9098 92.240
10.9401 86.562
10.9704 87.656
11.0007 80.365
11.0310 77.448
11.0612 77.187
11.0915 69.740
11.1218 68.125
11.1521 65.156
11.1824 63.802
11.2126 62.083
11.2429 57.969
11.2732 51.198
11.3035 53.229
11.3337 54.740
11.3640 52.135
11.3943 50.625
11.4246 48.750
11.4549 46.302
11.4851 49.427
11.5154 45.208
11.5457 46.094
11.5760 46.406
11.6063 42.135
11.6365 43.437
11.6668 40.052
11.6971 40.469
11.7274 39.219
11.7577 34.635
11.7879 34.479
11.8182 38.594
11.8485 33.750
11.8788 32.656
11.9090 33.281
11.9393 31.250
11.9696 29.687
11.9999 28.021
12.0302 28.802
12.0604 28.750
12.0907 28.490
12.1210 26.719
12.1513 27.552
12.1816 25.677
12.2118 25.729
12.2421 24.323
12.2724 25.417
12.3027 24.844
12.3329 24.948
12.3632 23.125
12.3935 23.750
12.4238 23.281
12.4541 21.771
12.4843 23.698
12.5146 21.458
12.5449 20.469
12.5752 19.948
12.6055 18.698
12.6357 17.917
12.6660 19.635
12.6963 19.219
12.7266 20.208
12.7568 17.812
12.7871 18.021
12.8174 16.562
12.8477 19.271
12.8780 17.187
12.9082 17.031
12.9385 17.604
12.9688 16.979
12.9991 18.333
13.0294 16.146
13.0596 15.729
13.0899 17.500
13.1202 16.354
13.1505 17.760
13.1807 17.031
13.2110 15.625
13.2413 17.135
13.2716 15.885
13.3019 17.448
13.3321 16.510
13.3624 17.604
13.3927 17.240
13.4230 16.510
13.4533 16.875
13.4835 16.771
13.5138 15.312
13.5441 15.208
13.5744 16.562
13.6046 14.896
13.6349 15.625
13.6652 15.104
13.6955 15.729
13.7258 16.458
13.7560 14.792
13.7863 16.510
13.8166 15.208
13.8469 14.948
13.8772 14.583
13.9074 14.844
13.9377 16.094
13.9680 17.969
13.9983 14.219
14.0285 15.260
14.0588 15.052
14.0891 16.458
14.1194 14.375
14.1497 17.187
14.1799 14.167
14.2102 16.094
14.2405 16.823
14.2708 12.865
14.3011 15.521
14.3313 15.260
14.3616 15.937
14.3919 18.229
14.4222 15.885
14.4524 13.854
14.4827 15.052
14.5130 16.302
14.5433 14.323
14.5736 15.573
14.6038 16.146
14.6341 15.573
14.6644 16.250
14.6947 15.521
14.7250 16.146
14.7552 14.427
14.7855 16.042
14.8158 17.760
14.8461 16.146
14.8764 14.948
14.9066 17.500
14.9369 17.760
14.9672 17.083
14.9975 15.521
15.0277 15.885
15.0580 17.656
15.0883 16.146
15.1186 17.500
15.1489 17.604
15.1791 16.719
15.2094 17.083
15.2397 17.292
15.2700 15.469
15.3003 17.396
15.3305 17.031
15.3608 16.667
15.3911 17.240
15.4214 18.385
15.4516 16.667
15.4819 19.167
15.5122 16.458
15.5425 19.219
15.5728 16.667
15.6030 19.375
15.6333 18.802
15.6636 17.031
15.6939 17.292
15.7242 17.552
15.7544 16.354
15.7847 19.219
15.8150 16.250
15.8453 16.406
15.8755 15.625
15.9058 16.615
15.9361 17.344
15.9664 14.010
15.9967 16.719
16.0269 16.042
16.0572 17.292
16.0875 14.427
16.1178 16.719
16.1481 15.365
16.1783 13.854
16.2086 16.250
16.2389 15.885
16.2692 14.635
16.2994 15.000
16.3297 14.844
16.3600 13.698
16.3903 15.729
16.4206 14.010
16.4508 13.437
16.4811 14.167
16.5114 13.490
16.5417 12.083
16.5720 12.240
16.6022 13.490
16.6325 11.042
16.6628 12.500
16.6931 12.448
16.7233 11.667
16.7536 13.698
16.7839 11.615
16.8142 10.417
16.8445 12.187
16.8747 11.927
16.9050 13.073
16.9353 10.677
16.9656 13.125
16.9959 10.937
17.0261 11.719
17.0564 11.719
17.0867 9.635
17.1170 10.521
17.1472 11.510
17.1775 11.302
17.2078 9.792
17.2381 11.562
17.2684 11.458
17.2986 11.198
17.3289 10.885
17.3592 8.542
17.3895 9.375
17.4198 11.250
17.4500 11.250
17.4803 10.365
17.5106 10.000
17.5409 11.146
17.5712 10.000
17.6014 9.687
17.6317 11.250
17.6620 9.583
17.6923 10.781
17.7225 10.260
17.7528 11.979
17.7831 10.573
17.8134 10.625
17.8437 11.042
17.8739 10.625
17.9042 11.354
17.9345 10.521
17.9648 10.000
17.9951 10.677
18.0253 11.771
18.0556 11.094
18.0859 10.833
18.1162 12.240
18.1464 11.875
18.1767 10.677
18.2070 12.240
18.2373 11.615
18.2676 11.406
18.2978 13.125
18.3281 13.490
18.3584 12.917
18.3887 13.177
18.4190 14.219
18.4492 14.062
18.4795 12.083
18.5098 13.385
18.5401 13.958
18.5703 14.687
18.6006 14.896
18.6309 13.802
18.6612 13.698
18.6915 14.479
18.7217 12.708
18.7520 15.729
18.7823 15.156
18.8126 15.208
18.8429 12.031
18.8731 14.583
18.9034 13.646
18.9337 15.104
18.9640 14.167
18.9942 14.427
19.0245 13.281
19.0548 13.750
19.0851 13.333
19.1154 12.969
19.1456 13.229
19.1759 11.615
19.2062 11.823
19.2365 11.302
19.2668 13.594
19.2970 12.552
19.3273 10.521
19.3576 11.302
19.3879 10.312
19.4181 9.896
19.4484 10.000
19.4787 9.896
19.5090 9.427
19.5393 9.167
19.5695 7.969
19.5998 9.948
19.6301 8.854
19.6604 8.437
19.6907 8.646
19.7209 9.740
19.7512 8.333
19.7815 7.552
19.8118 8.958
19.8420 7.812
19.8723 7.031
19.9026 9.010
19.9329 7.500
19.9632 6.927
19.9934 6.198
20.0237 7.917
20.0540 7.448
20.0843 7.187
20.1146 7.135
20.1448 7.031
20.1751 7.031
20.2054 7.760
20.2357 7.240
20.2659 6.458
20.2962 5.781
20.3265 6.562
20.3568 6.250
20.3871 6.667
20.4173 7.604
20.4476 6.771
20.4779 6.354
20.5082 7.240
20.5385 5.365
20.5687 6.354
20.5990 6.146
20.6293 7.240
20.6596 6.302
20.6899 6.406
20.7201 5.990
20.7504 5.469
20.7807 5.781
20.8110 5.312
20.8412 4.948
20.8715 4.531
20.9018 6.719
20.9321 6.354
20.9624 6.510
20.9926 5.937
21.0229 5.990
21.0532 7.187
21.0835 6.354
21.1138 7.552
21.1440 6.719
21.1743 6.406
21.2046 7.552
21.2349 6.042
21.2651 6.042
21.2954 5.365
21.3257 5.625
21.3560 6.094
21.3863 6.302
21.4165 5.365
21.4468 5.625
21.4771 5.052
21.5074 6.719
21.5377 5.521
21.5679 4.948
21.5982 6.042
21.6285 5.417
21.6588 5.833
21.6890 6.146
21.7193 5.156
21.7496 6.198
21.7799 5.625
21.8102 4.844
21.8404 5.312
21.8707 5.469
21.9010 5.260
21.9313 5.781
21.9616 5.729
21.9918 4.948
22.0221 5.312
22.0524 4.896
22.0827 5.729
22.1129 5.469
22.1432 5.104
22.1735 6.146
22.2038 5.417
22.2341 5.052
22.2643 6.042
22.2946 4.271
22.3249 5.000
22.3552 5.260
22.3855 5.625
22.4157 6.875
22.4460 4.740
22.4763 5.521
22.5066 5.521
22.5368 5.312
22.5671 5.208
22.5974 5.937
22.6277 4.896
22.6580 5.677
22.6882 5.365
22.7185 4.948
22.7488 5.260
22.7791 5.781
22.8094 5.885
22.8396 5.677
22.8699 6.458
22.9002 5.000
22.9305 6.094
22.9607 5.677
22.9910 5.625
23.0213 6.771
23.0516 5.260
23.0819 6.406
23.1121 6.354
23.1424 6.510
23.1727 5.729
23.2030 6.823
23.2333 5.833
23.2635 6.458
23.2938 5.417
23.3241 6.458
23.3544 7.969
23.3846 6.094
23.4149 6.354
23.4452 6.719
23.4755 6.562
23.5058 8.021
23.5360 6.094
23.5663 6.562
23.5966 7.187
23.6269 8.125
23.6572 8.490
23.6874 7.760
23.7177 7.187
23.7480 7.240
23.7783 5.365
23.8086 7.083
23.8388 6.667
23.8691 7.344
23.8994 6.510
23.9297 8.542
23.9599 8.021
23.9902 7.708
24.0205 7.396
24.0508 8.750
24.0811 7.604
24.1113 9.167
24.1416 9.479
24.1719 7.708
24.2022 7.865
24.2325 7.448
24.2627 8.542
24.2930 7.552
24.3233 8.646
24.3536 8.698
24.3838 8.177
24.4141 8.073
24.4444 8.177
24.4747 9.167
24.5050 8.906
24.5352 7.500
24.5655 9.375
24.5958 8.281
24.6261 8.437
24.6564 9.479
24.6866 9.375
24.7169 7.604
24.7472 9.792
24.7775 9.219
24.8077 8.958
24.8380 11.302
24.8683 10.052
24.8986 9.427
24.9289 9.635
24.9591 9.948
24.9894 8.385
25.0197 9.792
25.0500 10.469
25.0803 9.427
25.1105 9.479
25.1408 10.885
25.1711 11.354
25.2014 12.187
25.2316 10.573
25.2619 11.406
25.2922 10.000
25.3225 10.885
25.3528 11.458
25.3830 11.615
25.4133 13.073
25.4436 10.625
25.4739 13.021
25.5042 11.406
25.5344 11.302
25.5647 11.458
25.5950 11.719
25.6253 11.719
25.6555 11.094
25.6858 12.083
25.7161 12.552
25.7464 11.354
25.7767 11.979
25.8069 11.302
25.8372 11.979
25.8675 12.396
25.8978 12.240
25.9281 13.750
25.9583 12.448
25.9886 11.823
26.0189 12.031
26.0492 11.927
26.0794 12.083
26.1097 14.115
26.1400 13.385
26.1703 11.667
26.2006 15.417
26.2308 13.854
26.2611 13.490
26.2914 11.667
26.3217 13.802
26.3520 13.854
26.3822 12.812
26.4125 14.531
26.4428 13.542
26.4731 16.510
26.5034 13.854
26.5336 12.083
26.5639 14.375
26.5942 13.594
26.6245 16.562
26.6547 15.000
26.6850 14.479
26.7153 15.208
26.7456 14.323
26.7759 17.292
26.8061 16.771
26.8364 16.302
26.8667 15.781
26.8970 15.885
26.9273 16.979
26.9575 16.875
26.9878 16.823
27.0181 16.615
27.0484 18.125
27.0786 17.396
27.1089 17.552
27.1392 17.344
27.1695 18.490
27.1998 15.208
27.2300 16.250
27.2603 17.552
27.2906 15.260
27.3209 17.396
27.3512 18.646
27.3814 15.521
27.4117 18.229
27.4420 16.302
27.4723 16.510
27.5025 17.292
27.5328 17.135
27.5631 16.927
27.5934 18.542
27.6237 16.927
27.6539 17.031
27.6842 15.833
27.7145 18.437
27.7448 17.812
27.7751 16.302
27.8053 17.552
27.8356 15.781
27.8659 18.333
27.8962 16.875
27.9264 16.042
27.9567 17.083
27.9870 17.448
28.0173 16.302
28.0476 16.302
28.0778 16.094
28.1081 14.583
28.1384 15.729
28.1687 16.250
28.1990 15.729
28.2292 15.208
28.2595 14.219
28.2898 15.781
28.3201 13.385
28.3503 15.156
28.3806 13.542
28.4109 15.156
28.4412 14.896
28.4715 14.583
28.5017 14.219
28.5320 14.531
28.5623 13.646
28.5926 14.740
28.6229 13.333
28.6531 13.906
28.6834 12.240
28.7137 10.312
28.7440 10.833
28.7742 11.354
28.8045 12.656
28.8348 11.979
28.8651 11.510
28.8954 9.896
28.9256 10.000
28.9559 11.198
28.9862 10.990
29.0165 9.479
29.0468 10.104
29.0770 10.104
29.1073 8.750
29.1376 8.437
29.1679 8.021
29.1981 8.906
29.2284 9.010
29.2587 9.219
29.2890 7.656
29.3193 7.708
29.3495 7.708
29.3798 8.854
29.4101 8.281
29.4404 8.021
29.4707 6.927
29.5009 7.969
29.5312 8.125
29.5615 8.437
29.5918 6.458
29.6221 8.229
29.6523 6.771
29.6826 5.781
29.7129 6.667
29.7432 5.937
29.7734 5.417
29.8037 7.865
29.8340 5.781
29.8643 7.083
29.8946 5.677
29.9248 7.656
29.9551 6.771
29.9854 5.521
30.0157 6.302
30.0460 6.719
30.0762 6.719
30.1065 6.302
30.1368 6.458
30.1671 5.885
30.1973 5.260
30.2276 6.198
30.2579 5.208
30.2882 5.365
30.3185 5.937
30.3487 4.427
30.3790 5.990
30.4093 4.479
30.4396 6.354
30.4699 5.052
30.5001 5.208
30.5304 5.729
30.5607 3.906
30.5910 5.260
30.6212 5.677
30.6515 5.885
30.6818 5.573
30.7121 5.052
30.7424 5.469
30.7726 5.729
30.8029 5.417
30.8332 5.833
30.8635 5.052
30.8938 4.687
30.9240 5.260
30.9543 5.781
30.9846 4.896
31.0149 5.937
31.0451 6.042
31.0754 5.469
31.1057 4.687
31.1360 5.833
31.1663 5.573
31.1965 5.104
31.2268 5.937
31.2571 5.312
31.2874 6.094
31.3177 5.937
31.3479 5.677
31.3782 6.094
31.4085 5.833
31.4388 6.354
31.4690 5.156
31.4993 5.833
31.5296 5.469
31.5599 5.833
31.5902 6.094
31.6204 5.260
31.6507 6.510
31.6810 5.521
31.7113 5.417
31.7416 5.677
31.7718 4.635
31.8021 5.260
31.8324 5.573
31.8627 5.677
31.8929 4.219
31.9232 5.000
31.9535 5.625
31.9838 4.792
32.0141 5.104
32.0443 4.427
32.0746 5.104
32.1049 5.521
32.1352 4.479
32.1655 5.208
32.1957 5.104
32.2260 4.948
32.2563 5.156
32.2866 5.625
32.3169 4.271
32.3471 4.896
32.3774 5.521
32.4077 4.740
32.4380 5.000
32.4682 5.156
32.4985 4.896
32.5288 6.354
32.5591 6.302
32.5894 5.573
32.6196 6.458
32.6499 5.781
32.6802 6.927
32.7105 6.979
32.7408 6.198
32.7710 5.156
32.8013 6.354
32.8316 5.781
32.8619 5.052
32.8921 5.937
32.9224 5.781
32.9527 4.635
32.9830 5.000
33.0133 4.271
33.0435 5.000
33.0738 5.729
33.1041 4.427
33.1344 4.583
33.1647 5.052
33.1949 4.896
33.2252 4.740
33.2555 3.750
33.2858 4.583
33.3160 3.802
33.3463 4.010
33.3766 3.750
33.4069 3.958
33.4372 4.792
33.4674 3.646
33.4977 3.333
33.5280 3.750
33.5583 4.792
33.5886 3.958
33.6188 3.750
33.6491 3.021
33.6794 3.281
33.7097 3.333
33.7399 4.219
33.7702 3.802
33.8005 3.802
33.8308 3.385
33.8611 3.854
33.8913 4.271
33.9216 4.062
33.9519 4.167
33.9822 4.271
34.0125 4.271
34.0427 4.010
34.0730 3.385
34.1033 4.010
34.1336 3.906
34.1638 3.958
34.1941 3.958
34.2244 3.906
34.2547 4.896
34.2850 4.271
34.3152 3.073
34.3455 4.323
34.3758 2.917
34.4061 4.687
34.4364 3.646
34.4666 3.437
34.4969 4.375
34.5272 4.323
34.5575 4.375
34.5877 4.323
34.6180 4.531
34.6483 3.854
34.6786 4.115
34.7089 3.542
34.7391 4.115
34.7694 3.385
34.7997 4.427
34.8300 5.260
34.8603 3.906
34.8905 4.323
34.9208 4.062
34.9511 4.635
34.9814 4.323
35.0116 4.687
35.0419 4.010
35.0722 4.219
35.1025 3.958
35.1328 3.490
35.1630 4.427
35.1933 4.271
35.2236 4.062
35.2539 4.323
35.2842 4.010
35.3144 4.531
35.3447 3.646
35.3750 3.698
35.4053 4.844
35.4356 4.792
35.4658 4.323
35.4961 4.635
35.5264 5.990
35.5567 3.750
35.5869 4.896
35.6172 5.052
35.6475 5.104
35.6778 4.479
35.7081 4.740
35.7383 5.260
35.7686 4.687
35.7989 4.010
35.8292 4.635
35.8595 4.583
35.8897 4.740
35.9200 4.635
35.9503 4.687
35.9806 5.312
36.0108 5.573
36.0411 5.156
36.0714 4.635
36.1017 4.271
36.1320 5.104
36.1622 4.323
36.1925 4.687
36.2228 4.427
36.2531 3.958
36.2834 5.052
36.3136 3.281
36.3439 5.052
36.3742 4.479
36.4045 4.427
36.4347 3.646
36.4650 3.281
36.4953 3.646
36.5256 3.958
36.5559 4.115
36.5861 4.167
36.6164 3.802
36.6467 4.115
36.6770 4.271
36.7073 3.854
36.7375 3.906
36.7678 4.375
36.7981 3.333
36.8284 4.115
36.8586 4.271
36.8889 3.698
36.9192 3.490
36.9495 4.375
36.9798 3.385
37.0100 4.375
37.0403 3.437
37.0706 3.854
37.1009 4.115
37.1312 3.646
37.1614 3.229
37.1917 3.281
37.2220 3.125
37.2523 3.750
37.2825 4.323
37.3128 4.219
37.3431 3.750
37.3734 3.437
37.4037 3.750
37.4339 4.167
37.4642 4.062
37.4945 3.333
37.5248 4.062
37.5551 3.646
37.5853 2.396
37.6156 3.698
37.6459 2.865
37.6762 4.375
37.7064 3.333
37.7367 3.542
37.7670 3.646
37.7973 3.958
37.8276 3.385
37.8578 3.333
37.8881 4.010
37.9184 3.906
37.9487 3.854
37.9790 3.437
38.0092 3.854
38.0395 3.333
38.0698 3.594
38.1001 3.906
38.1304 3.958
38.1606 3.385
38.1909 3.333
38.2212 3.490
38.2515 3.333
38.2817 3.385
38.3120 3.958
38.3423 4.115
38.3726 3.490
38.4029 3.437
38.4331 2.969
38.4634 3.333
38.4937 3.750
38.5240 3.229
38.5543 3.281
38.5845 3.177
38.6148 3.802
38.6451 2.240
38.6754 3.385
38.7056 3.229
38.7359 3.073
38.7662 2.760
38.7965 3.177
38.8268 3.073
38.8570 3.698
38.8873 2.865
38.9176 3.385
38.9479 2.135
38.9782 2.969
39.0084 2.969
39.0387 2.448
39.0690 3.177
39.0993 3.281
39.1295 2.448
39.1598 3.021
39.1901 2.865
39.2204 2.917
39.2507 3.125
39.2809 2.292
39.3112 3.437
39.3415 3.125
39.3718 2.396
39.4021 2.187
39.4323 2.656
39.4626 2.865
39.4929 2.187
39.5232 2.708
39.5534 2.604
39.5837 2.552
39.6140 2.656
39.6443 2.187
39.6746 2.500
39.7048 3.125
39.7351 2.969
39.7654 2.865
39.7957 2.240
39.8260 3.750
39.8562 2.760
39.8865 3.021
39.9168 2.448
39.9471 3.021
39.9773 2.448
40.0076 2.812
40.0379 2.917
40.0682 3.698
40.0985 2.552
40.1287 2.969
40.1590 2.969
40.1893 2.448
40.2196 3.698
40.2499 2.604
40.2801 3.385
40.3104 3.125
40.3407 2.500
40.3710 2.865
40.4012 3.073
40.4315 2.552
40.4618 2.708
40.4921 2.552
40.5224 2.500
40.5526 2.292
40.5829 2.969
40.6132 2.604
40.6435 3.490
40.6738 2.448
40.7040 2.708
40.7343 2.656
40.7646 3.021
40.7949 2.969
40.8251 2.969
40.8554 3.021
40.8857 3.177
40.9160 3.385
40.9463 3.281
40.9765 2.448
41.0068 3.177
41.0371 2.760
41.0674 3.281
41.0977 2.344
41.1279 2.396
41.1582 2.500
41.1885 3.281
41.2188 2.448
41.2491 2.292
41.2793 3.906
41.3096 3.229
41.3399 2.500
41.3702 3.021
41.4004 3.177
41.4307 2.969
41.4610 3.073
41.4913 2.917
41.5216 3.177
41.5518 2.448
41.5821 2.448
41.6124 2.760
41.6427 2.240
41.6730 3.385
41.7032 2.969
41.7335 2.240
41.7638 2.187
41.7941 2.969
41.8243 1.875
41.8546 2.500
41.8849 2.604
41.9152 2.240
41.9455 3.281
41.9757 2.448
42.0060 2.396
42.0363 2.708
42.0666 3.073
42.0969 3.229
42.1271 2.812
42.1574 2.552
42.1877 2.448
42.2180 2.500
42.2482 2.552
42.2785 3.073
42.3088 3.281
42.3391 2.083
42.3694 2.187
42.3996 2.500
42.4299 2.604
42.4602 2.135
42.4905 2.812
42.5208 3.177
42.5510 1.875
42.5813 2.656
42.6116 2.969
42.6419 2.656
42.6721 2.396
42.7024 2.656
42.7327 2.656
42.7630 1.979
42.7933 2.135
42.8235 2.708
42.8538 2.292
42.8841 3.073
42.9144 3.021
42.9447 2.656
42.9749 2.552
43.0052 2.500
43.0355 2.552
43.0658 1.979
43.0960 3.125
43.1263 2.135
43.1566 2.448
43.1869 2.135
43.2172 2.344
43.2474 2.604
43.2777 2.396
43.3080 2.135
43.3383 2.448
43.3686 2.448
43.3988 2.604
43.4291 2.083
43.4594 1.927
43.4897 1.979
43.5199 2.604
43.5502 2.240
43.5805 2.448
43.6108 1.875
43.6411 1.771
43.6713 2.708
43.7016 2.292
43.7319 2.448
43.7622 2.292
43.7925 1.875
43.8227 2.187
43.8530 2.240
43.8833 2.292
43.9136 2.656
43.9439 1.875
43.9741 2.500
44.0044 2.656
44.0347 2.396
44.0650 2.396
44.0952 2.292
44.1255 2.656
44.1558 2.240
44.1861 2.083
44.2164 1.979
44.2466 2.135
44.2769 2.135
44.3072 2.240
44.3375 2.083
44.3678 2.448
44.3980 2.865
44.4283 2.031
44.4586 2.031
44.4889 2.135
44.5191 1.771
44.5494 2.135
44.5797 2.552
44.6100 2.344
44.6403 1.667
44.6705 2.292
44.7008 2.448
44.7311 2.396
44.7614 2.292
44.7917 2.812
44.8219 1.354
44.8522 1.979
44.8825 2.865
44.9128 2.187
44.9430 2.135
44.9733 1.719
45.0036 2.083
45.0339 2.760
45.0642 2.708
45.0944 2.031
45.1247 2.031
45.1550 2.656
45.1853 2.083
45.2156 2.552
45.2458 1.719
45.2761 2.500
45.3064 2.865
45.3367 2.396
45.3669 2.031
45.3972 2.812
45.4275 2.240
45.4578 2.448
45.4881 1.771
45.5183 2.917
45.5486 2.760
45.5789 2.552
45.6092 2.344
45.6395 2.812
45.6697 2.344
45.7000 2.865
45.7303 3.229
45.7606 2.187
45.7908 2.604
45.8211 2.656
45.8514 2.240
45.8817 2.396
45.9120 2.604
45.9422 2.240
45.9725 2.604
46.0028 2.604
46.0331 2.552
46.0634 2.604
46.0936 2.448
46.1239 2.344
46.1542 2.083
46.1845 2.344
46.2147 3.437
46.2450 2.656
46.2753 2.708
46.3056 2.448
46.3359 2.187
46.3661 3.490
46.3964 2.552
46.4267 2.135
46.4570 2.135
46.4873 2.396
46.5175 2.292
46.5478 1.875
46.5781 2.187
46.6084 2.396
46.6386 2.344
46.6689 1.875
46.6992 2.812
46.7295 2.031
46.7598 2.812
46.7900 2.604
46.8203 1.875
46.8506 2.396
46.8809 2.187
46.9112 2.500
46.9414 2.917
46.9717 2.187
47.0020 1.979
47.0323 3.073
47.0626 2.604
47.0928 1.667
47.1231 2.135
47.1534 2.500
47.1837 2.448
47.2139 2.500
47.2442 3.281
47.2745 2.604
47.3048 3.177
47.3351 3.073
47.3653 3.125
47.3956 3.021
47.4259 2.031
47.4562 3.333
47.4865 2.240
47.5167 3.437
47.5470 1.979
47.5773 3.021
47.6076 2.500
47.6378 2.865
47.6681 2.708
47.6984 2.500
47.7287 2.812
47.7590 3.021
47.7892 3.490
47.8195 3.229
47.8498 3.281
47.8801 2.552
47.9104 2.865
47.9406 3.698
47.9709 2.865
48.0012 2.812
48.0315 2.812
48.0617 3.021
48.0920 3.229
48.1223 3.073
48.1526 3.125
48.1829 3.281
48.2131 3.229
48.2434 3.646
48.2737 2.240
48.3040 3.229
48.3343 3.073
48.3645 3.177
48.3948 2.760
48.4251 3.958
48.4554 3.333
48.4856 3.021
48.5159 3.594
48.5462 3.229
48.5765 3.750
48.6068 3.385
48.6370 3.177
48.6673 3.385
48.6976 3.229
48.7279 4.010
48.7582 3.385
48.7884 3.854
48.8187 3.594
48.8490 3.333
48.8793 3.437
48.9095 4.323
48.9398 3.594
48.9701 3.281
49.0004 3.906
49.0307 3.594
49.0609 4.271
49.0912 3.906
49.1215 3.906
49.1518 4.427
49.1821 3.698
49.2123 3.594
49.2426 3.906
49.2729 4.323
49.3032 4.583
49.3334 4.531
49.3637 3.542
49.3940 3.646
49.4243 4.740
49.4546 4.167
49.4848 4.062
49.5151 4.115
49.5454 4.531
49.5757 4.583
49.6060 3.802
49.6362 3.698
49.6665 4.062
49.6968 3.750
49.7271 3.906
49.7574 4.062
49.7876 4.531
49.8179 4.062
49.8482 4.010
49.8785 4.271
49.9087 4.687
49.9390 4.687
49.9693 4.062
49.9996 4.531
50.0299 5.000
50.0601 3.802
50.0904 4.531
50.1207 4.427
50.1510 4.740
50.1813 4.635
50.2115 4.531
50.2418 4.271
50.2721 3.281
50.3024 4.427
50.3326 4.687
50.3629 4.740
50.3932 3.750
50.4235 4.531
50.4538 5.469
50.4840 4.844
50.5143 4.948
50.5446 4.115
50.5749 3.698
50.6052 4.427
50.6354 4.635
50.6657 5.104
50.6960 4.583
50.7263 4.427
50.7565 5.729
50.7868 4.271
50.8171 4.062
50.8474 5.260
50.8777 4.844
50.9079 4.427
50.9382 3.802
50.9685 4.635
50.9988 4.687
51.0291 4.115
51.0593 4.740
51.0896 5.104
51.1199 5.312
51.1502 5.052
51.1804 5.312
51.2107 4.531
51.2410 5.260
51.2713 4.687
51.3016 4.844
51.3318 3.906
51.3621 5.260
51.3924 5.000
51.4227 5.052
51.4530 5.208
51.4832 4.635
51.5135 3.542
51.5438 4.010
51.5741 4.375
51.6043 3.802
51.6346 4.271
51.6649 4.427
51.6952 4.323
51.7255 4.844
51.7557 5.052
51.7860 4.427
51.8163 4.479
51.8466 4.844
51.8769 3.958
51.9071 4.479
51.9374 4.740
51.9677 3.490
51.9980 4.115
52.0282 3.281
52.0585 4.010
52.0888 3.854
52.1191 4.062
52.1494 3.750
52.1796 4.062
52.2099 3.958
52.2402 3.177
52.2705 4.167
52.3008 4.115
52.3310 3.385
52.3613 4.427
52.3916 3.698
52.4219 4.792
52.4521 3.958
52.4824 3.802
52.5127 3.646
52.5430 3.490
52.5733 4.323
52.6035 3.437
52.6338 3.333
52.6641 3.594
52.6944 2.969
52.7247 4.010
52.7549 3.490
52.7852 4.687
52.8155 3.646
52.8458 3.802
52.8761 4.271
52.9063 4.062
52.9366 3.542
52.9669 3.698
52.9972 3.490
53.0274 3.490
53.0577 3.854
53.0880 3.698
53.1183 3.333
53.1486 3.542
53.1788 4.062
53.2091 3.021
53.2394 3.490
53.2697 3.594
53.3000 3.802
53.3302 4.062
53.3605 3.698
53.3908 3.854
53.4211 4.115
53.4513 4.115
53.4816 3.281
53.5119 3.698
53.5422 4.635
53.5725 3.073
53.6027 3.229
53.6330 3.906
53.6633 3.385
53.6936 3.333
53.7239 3.385
53.7541 3.281
53.7844 3.281
53.8147 3.750
53.8450 3.333
53.8752 3.750
53.9055 3.542
53.9358 3.542
53.9661 3.333
53.9964 3.073
54.0266 3.281
54.0569 3.594
54.0872 2.917
54.1175 3.594
54.1478 2.865
54.1780 3.490
54.2083 2.656
54.2386 2.656
54.2689 4.219
54.2991 3.229
54.3294 3.385
54.3597 2.865
54.3900 3.698
54.4203 3.333
54.4505 3.542
54.4808 4.167
54.5111 3.229
54.5414 3.333
54.5717 2.656
54.6019 3.333
54.6322 3.229
54.6625 3.333
54.6928 3.125
54.7230 3.125
54.7533 2.708
54.7836 3.281
54.8139 3.073
54.8442 3.750
54.8744 2.865
54.9047 2.448
54.9350 3.073
54.9653 3.385
54.9956 4.010
55.0258 3.698
55.0561 2.760
55.0864 2.969
55.1167 3.229
55.1469 3.385
55.1772 2.760
55.2075 3.333
55.2378 3.437
55.2681 3.854
55.2983 3.229
55.3286 3.125
55.3589 4.062
55.3892 2.812
55.4195 3.437
55.4497 3.750
55.4800 3.594
55.5103 3.073
55.5406 3.698
55.5709 3.229
55.6011 2.917
55.6314 3.073
55.6617 3.125
55.6920 2.812
55.7222 3.073
55.7525 3.646
55.7828 3.490
55.8131 3.542
55.8434 3.073
55.8736 3.333
55.9039 3.021
55.9342 3.021
55.9645 2.969
55.9948 3.021
56.0250 2.708
56.0553 2.865
56.0856 2.760
56.1159 3.333
56.1461 2.135
56.1764 2.344
56.2067 2.187
56.2370 2.812
56.2673 2.917
56.2975 2.760
56.3278 3.073
56.3581 2.448
56.3884 2.708
56.4187 2.604
56.4489 2.448
56.4792 2.656
56.5095 2.865
56.5398 2.760
56.5700 3.385
56.6003 2.812
56.6306 2.552
56.6609 2.031
56.6912 1.979
56.7214 2.135
56.7517 2.344
56.7820 2.865
56.8123 2.917
56.8426 2.344
56.8728 2.917
56.9031 2.135
56.9334 2.292
56.9637 2.917
56.9939 2.552
57.0242 2.083
57.0545 2.760
57.0848 2.552
57.1151 2.708
57.1453 2.552
57.1756 2.083
57.2059 2.448
57.2362 2.240
57.2665 2.448
57.2967 2.552
57.3270 3.021
57.3573 2.500
57.3876 2.292
57.4178 2.552
57.4481 2.865
57.4784 2.448
57.5087 3.021
57.5390 2.969
57.5692 2.240
57.5995 2.448
57.6298 2.240
57.6601 2.552
57.6904 2.917
57.7206 2.083
57.7509 1.979
57.7812 2.656
57.8115 2.396
57.8417 2.187
57.8720 2.135
57.9023 2.865
57.9326 1.667
57.9629 2.240
57.9931 2.135
58.0234 2.344
58.0537 2.240
58.0840 2.396
58.1143 2.865
58.1445 2.396
58.1748 2.656
58.2051 2.917
58.2354 2.865
58.2656 3.594
58.2959 3.125
58.3262 2.448
58.3565 2.917
58.3868 3.177
58.4170 3.021
58.4473 2.500
58.4776 3.281
58.5079 3.125
58.5382 2.604
58.5684 2.969
58.5987 3.802
58.6290 2.500
58.6593 3.125
58.6896 3.073
58.7198 3.021
58.7501 2.604
58.7804 1.823
58.8107 2.812
58.8409 2.135
58.8712 2.812
58.9015 2.344
58.9318 2.552
58.9621 2.448
58.9923 3.177
59.0226 2.604
59.0529 2.500
59.0832 2.865
59.1135 3.073
59.1437 2.865
59.1740 3.490
59.2043 3.281
59.2346 2.969
59.2648 2.031
59.2951 3.125
59.3254 2.656
59.3557 2.552
59.3860 2.865
59.4162 2.812
59.4465 2.760
59.4768 2.448
59.5071 2.344
59.5374 2.812
59.5676 3.177
59.5979 2.812
59.6282 3.021
59.6585 2.500
59.6887 2.760
59.7190 1.875
59.7493 2.604
59.7796 2.344
59.8099 2.396
59.8401 3.021
59.8704 2.604
59.9007 2.865
59.9310 2.760
59.9613 2.812
59.9915 2.135
60.0218 2.708
60.0521 2.396
60.0824 2.604
60.1126 2.344
60.1429 3.333
60.1732 2.344
60.2035 2.500
60.2338 2.604
60.2640 2.760
60.2943 2.604
60.3246 2.500
60.3549 2.240
60.3852 2.083
60.4154 2.031
60.4457 2.396
60.4760 3.281
60.5063 2.344
60.5365 3.229
60.5668 2.656
60.5971 2.292
60.6274 2.917
60.6577 2.500
60.6879 2.708
60.7182 2.500
60.7485 2.500
60.7788 2.448
60.8091 2.604
60.8393 2.656
60.8696 2.396
60.8999 2.969
60.9302 2.344
60.9604 2.344
60.9907 2.656
61.0210 1.615
61.0513 2.917
61.0816 2.656
61.1118 2.656
61.1421 2.865
61.1724 2.552
61.2027 2.344
61.2330 2.917
61.2632 2.187
61.2935 2.500
61.3238 2.656
61.3541 2.344
61.3844 2.604
61.4146 2.969
61.4449 2.552
61.4752 3.021
61.5055 2.031
61.5357 2.031
61.5660 2.292
61.5963 2.292
61.6266 2.812
61.6569 2.500
61.6871 2.656
61.7174 2.604
61.7477 2.448
61.7780 2.969
61.8083 3.021
61.8385 2.604
61.8688 2.135
61.8991 3.177
61.9294 2.604
61.9596 2.656
61.9899 2.708
62.0202 2.344
62.0505 3.542
62.0808 2.917
62.1110 2.552
62.1413 2.552
62.1716 2.708
62.2019 2.604
62.2322 3.229
62.2624 2.917
62.2927 2.708
62.3230 2.500
62.3533 2.656
62.3835 3.073
62.4138 2.865
62.4441 3.906
62.4744 2.969
62.5047 3.750
62.5349 3.750
62.5652 2.240
62.5955 3.437
62.6258 3.125
62.6561 3.802
62.6863 3.281
62.7166 3.021
62.7469 3.333
62.7772 2.812
62.8074 3.385
62.8377 3.958
62.8680 3.542
62.8983 3.229
62.9286 3.177
62.9588 2.552
62.9891 3.646
63.0194 3.906
63.0497 3.385
63.0800 3.125
63.1102 3.698
63.1405 2.760
63.1708 3.177
63.2011 3.125
63.2313 3.698
63.2616 3.073
63.2919 3.125
63.3222 3.021
63.3525 3.125
63.3827 3.333
63.4130 2.760
63.4433 2.604
63.4736 3.281
63.5039 3.073
63.5341 2.656
63.5644 3.698
63.5947 2.812
63.6250 2.969
63.6552 3.229
63.6855 3.906
63.7158 3.021
63.7461 2.708
63.7764 4.115
63.8066 3.333
63.8369 3.437
63.8672 3.281
63.8975 3.646
63.9278 1.979
63.9580 2.917
63.9883 2.031
64.0186 3.073
64.0489 2.708
64.0791 3.021
64.1094 3.021
64.1397 1.719
64.1700 2.969
64.2003 3.177
64.2305 2.656
64.2608 2.500
64.2911 3.229
64.3214 3.385
64.3517 2.917
64.3819 1.719
64.4122 2.812
64.4425 2.396
64.4728 3.021
64.5031 3.021
64.5333 3.490
64.5636 2.500
64.5939 2.292
64.6242 2.969
64.6544 2.344
64.6847 3.594
64.7150 2.865
64.7453 2.396
64.7756 2.448
64.8058 2.344
64.8361 2.500
64.8664 1.979
64.8967 2.292
64.9270 1.719
64.9572 2.500
64.9875 2.344
65.0178 2.396
65.0481 2.292
65.0783 1.927
65.1086 2.448
65.1389 1.771
65.1692 1.615
65.1995 2.396
65.2297 2.083
65.2600 2.135
65.2903 1.823
65.3206 2.812
65.3509 1.198
65.3811 2.031
65.4114 2.083
65.4417 2.448
65.4720 1.875
65.5022 2.240
65.5325 1.458
65.5628 1.875
65.5931 1.615
65.6234 1.875
65.6536 1.302
65.6839 1.979
65.7142 2.135
65.7445 1.823
65.7748 2.292
65.8050 2.031
65.8353 1.719
65.8656 1.823
65.8959 2.135
65.9261 1.250
65.9564 1.042
65.9867 1.771
66.0170 2.031
66.0473 2.396
66.0775 1.458
66.1078 2.135
66.1381 1.562
66.1684 1.979
66.1987 1.927
66.2289 1.667
66.2592 1.875
66.2895 2.396
66.3198 1.562
66.3500 1.927
66.3803 1.771
66.4106 2.344
66.4409 1.823
66.4712 1.562
66.5014 1.406
66.5317 1.615
66.5620 1.875
66.5923 1.562
66.6226 1.406
66.6528 1.406
66.6831 1.615
66.7134 1.458
66.7437 1.875
66.7739 2.031
66.8042 1.406
66.8345 1.615
66.8648 1.979
66.8951 1.562
66.9253 1.510
66.9556 1.771
66.9859 1.667
67.0162 1.823
67.0465 1.615
67.0767 1.406
67.1070 1.771
67.1373 1.979
67.1676 1.875
67.1978 1.719
67.2281 1.250
67.2584 1.875
67.2887 1.615
67.3190 1.719
67.3492 1.458
67.3795 1.250
67.4098 1.979
67.4401 1.719
67.4704 1.354
67.5006 1.354
67.5309 1.354
67.5612 1.823
67.5915 1.354
67.6218 2.083
67.6520 1.667
67.6823 2.135
67.7126 1.458
67.7429 1.406
67.7731 1.979
67.8034 1.823
67.8337 1.302
67.8640 1.719
67.8943 1.406
67.9245 1.406
67.9548 1.771
67.9851 1.875
68.0154 1.406
68.0457 1.667
68.0759 1.458
68.1062 1.667
68.1365 1.562
68.1668 1.354
68.1970 1.198
68.2273 1.562
68.2576 1.198
68.2879 1.562
68.3182 1.354
68.3484 1.823
68.3787 2.083
68.4090 2.031
68.4393 1.719
68.4696 1.354
68.4998 2.135
68.5301 1.562
68.5604 1.406
68.5907 2.031
68.6209 1.771
68.6512 1.979
68.6815 1.719
68.7118 1.458
68.7421 1.875
68.7723 1.875
68.8026 1.406
68.8329 1.562
68.8632 1.823
68.8935 1.615
68.9237 1.771
68.9540 1.458
68.9843 2.187
69.0146 1.406
69.0448 2.083
69.0751 2.031
69.1054 1.823
69.1357 1.823
69.1660 1.406
69.1962 2.083
69.2265 2.240
69.2568 1.771
69.2871 1.562
69.3174 1.615
69.3476 0.990
69.3779 1.979
69.4082 1.354
69.4385 1.719
69.4687 2.187
69.4990 1.510
69.5293 1.510
69.5596 1.198
69.5899 1.979
69.6201 1.771
69.6504 1.823
69.6807 1.927
69.7110 1.823
69.7413 1.719
69.7715 1.875
69.8018 1.979
69.8321 1.823
69.8624 1.562
69.8926 1.302
69.9229 1.667
69.9532 1.615
69.9835 1.771
70.0138 2.031
70.0440 1.979
70.0743 1.875
70.1046 1.615
70.1349 1.771
70.1652 2.500
70.1954 2.135
70.2257 1.146
70.2560 1.823
70.2863 1.198
70.3166 1.667
70.3468 1.458
70.3771 2.135
70.4074 1.042
70.4377 1.250
70.4679 1.667
70.4982 1.406
70.5285 1.250
70.5588 1.250
70.5891 1.354
70.6193 2.187
70.6496 1.771
70.6799 2.240
70.7102 1.615
70.7405 1.875
70.7707 1.719
70.8010 0.885
70.8313 1.250
70.8616 1.771
70.8918 1.823
70.9221 1.042
70.9524 1.615
70.9827 1.302
71.0130 1.146
71.0432 1.927
71.0735 1.875
71.1038 1.198
71.1341 1.458
71.1644 1.510
71.1946 1.406
71.2249 2.083
71.2552 1.250
71.2855 1.354
71.3157 1.771
71.3460 1.458
71.3763 1.771
71.4066 1.719
71.4369 1.250
71.4671 1.302
71.4974 1.667
71.5277 1.458
71.5580 1.823
71.5883 1.667
71.6185 1.771
71.6488 1.771
71.6791 1.302
71.7094 1.562
71.7396 1.979
71.7699 1.250
71.8002 1.719
71.8305 1.562
71.8608 1.354
71.8910 1.615
71.9213 1.250
71.9516 1.667
71.9819 1.302
72.0122 1.458
72.0424 1.719
72.0727 1.615
72.1030 1.927
72.1333 1.719
72.1635 1.615
72.1938 1.510
72.2241 1.719
72.2544 1.719
72.2847 1.406
72.3149 1.667
72.3452 1.302
72.3755 1.719
72.4058 1.823
72.4361 1.771
72.4663 1.771
72.4966 1.302
72.5269 1.406
72.5572 1.198
72.5874 1.615
72.6177 1.562
72.6480 1.615
72.6783 1.406
72.7086 2.187
72.7388 0.885
72.7691 1.823
72.7994 1.510
72.8297 0.781
72.8600 1.771
72.8902 1.823
72.9205 1.615
72.9508 1.719
72.9811 1.510
73.0113 1.719
73.0416 1.615
73.0719 1.354
73.1022 1.667
73.1325 1.875
73.1627 1.406
73.1930 1.771
73.2233 1.979
73.2536 1.458
73.2839 1.615
73.3141 1.667
73.3444 1.667
73.3747 1.302
73.4050 1.250
73.4353 1.615
73.4655 1.875
73.4958 1.510
73.5261 1.771
73.5564 1.510
73.5866 1.562
73.6169 0.885
73.6472 1.250
73.6775 2.187
73.7078 1.458
73.7380 2.187
73.7683 1.615
73.7986 1.458
73.8289 1.615
73.8592 2.240
73.8894 1.510
73.9197 1.875
73.9500 1.406
73.9803 1.979
74.0105 2.135
74.0408 1.927
74.0711 1.667
74.1014 1.875
74.1317 1.823
74.1619 1.406
74.1922 1.406
74.2225 1.927
74.2528 1.458
74.2831 1.719
74.3133 1.927
74.3436 2.083
74.3739 2.344
74.4042 1.979
74.4344 2.031
74.4647 1.302
74.4950 2.031
74.5253 1.823
74.5556 1.719
74.5858 1.875
74.6161 1.979
74.6464 1.979
74.6767 2.344
74.7070 1.510
74.7372 1.615
74.7675 1.510
74.7978 1.458
74.8281 1.302
74.8583 1.667
74.8886 1.979
74.9189 2.187
74.9492 1.510
74.9795 1.771
75.0097 1.719
75.0400 1.510
75.0703 1.562
75.1006 1.927
75.1309 1.927
75.1611 1.719
75.1914 1.458
75.2217 1.615
75.2520 1.094
75.2822 1.667
75.3125 1.562
75.3428 1.406
75.3731 1.198
75.4034 1.250
75.4336 1.719
75.4639 1.146
75.4942 1.458
75.5245 1.719
75.5548 1.198
75.5850 1.719
75.6153 1.667
75.6456 1.510
75.6759 1.771
75.7061 1.719
75.7364 2.031
75.7667 1.198
75.7970 1.198
75.8273 1.458
75.8575 1.354
75.8878 1.979
75.9181 1.198
75.9484 1.562
75.9787 1.823
76.0089 1.562
76.0392 1.146
76.0695 1.823
76.0998 1.510
76.1301 1.979
76.1603 1.354
76.1906 1.615
76.2209 1.562
76.2512 1.562
76.2814 1.875
76.3117 1.510
76.3420 1.302
76.3723 1.198
76.4026 1.562
76.4328 1.719
76.4631 1.198
76.4934 1.667
76.5237 1.250
76.5540 1.458
76.5842 1.458
76.6145 1.562
76.6448 1.510
76.6751 1.354
76.7053 1.406
76.7356 1.458
76.7659 1.406
76.7962 1.979
76.8265 1.823
76.8567 1.667
76.8870 1.146
76.9173 1.198
76.9476 1.615
76.9779 1.146
77.0081 1.406
77.0384 1.667
77.0687 1.667
77.0990 1.667
77.1292 1.354
77.1595 1.458
77.1898 1.198
77.2201 1.406
77.2504 1.562
77.2806 1.667
77.3109 1.250
77.3412 1.719
77.3715 1.198
77.4018 1.562
77.4320 1.042
77.4623 1.458
77.4926 1.250
77.5229 1.302
77.5531 1.667
77.5834 1.354
77.6137 1.198
77.6440 0.990
77.6743 1.406
77.7045 1.146
77.7348 1.094
77.7651 0.990
77.7954 1.823
77.8257 1.615
77.8559 1.667
77.8862 1.615
77.9165 1.146
77.9468 1.771
77.9770 1.667
78.0073 1.562
78.0376 1.354
78.0679 1.927
78.0982 1.771
78.1284 1.875
78.1587 1.719
78.1890 1.510
78.2193 1.354
78.2496 1.823
78.2798 1.667
78.3101 1.719
78.3404 0.833
78.3707 1.406
78.4009 1.823
78.4312 1.094
78.4615 1.927
78.4918 1.302
78.5221 1.354
78.5523 1.250
78.5826 1.615
78.6129 1.094
78.6432 1.510
78.6735 1.719
78.7037 1.615
78.7340 1.198
78.7643 1.406
78.7946 1.198
78.8248 1.667
78.8551 1.615
78.8854 1.667
78.9157 1.042
78.9460 1.198
78.9762 1.927
79.0065 1.979
79.0368 1.302
79.0671 1.562
79.0974 1.667
79.1276 1.094
79.1579 1.146
79.1882 1.615
79.2185 1.458
79.2488 1.615
79.2790 1.250
79.3093 1.667
79.3396 1.302
79.3699 1.510
79.4001 1.406
79.4304 1.458
79.4607 1.510
79.4910 1.354
79.5213 1.250
79.5515 1.667
79.5818 1.354
79.6121 1.406
79.6424 1.667
79.6727 1.354
79.7029 1.354
79.7332 1.510
79.7635 1.771
79.7938 1.198
79.8240 1.354
79.8543 1.250
79.8846 1.667
79.9149 1.146
79.9452 1.302
79.9754 1.823
80.0057 1.927
80.0360 1.667
80.0663 1.823
80.0966 1.250
80.1268 1.667
80.1571 1.406
80.1874 1.302
80.2177 1.667
80.2479 1.719
80.2782 1.979
80.3085 1.667
80.3388 1.823
80.3691 1.458
80.3993 1.510
80.4296 1.302
80.4599 1.615
80.4902 1.302
80.5205 1.510
80.5507 1.406
80.5810 1.510
80.6113 1.458
80.6416 1.562
80.6718 0.937
80.7021 1.719
80.7324 1.458
80.7627 1.771
80.7930 1.458
80.8232 1.198
80.8535 1.510
80.8838 1.875
80.9141 1.406
80.9444 1.667
80.9746 1.354
81.0049 1.510
81.0352 1.354
81.0655 1.198
81.0957 2.031
81.1260 1.354
81.1563 1.458
81.1866 1.094
81.2169 1.823
81.2471 2.083
81.2774 1.771
81.3077 1.771
81.3380 1.198
81.3683 1.406
81.3985 1.146
81.4288 1.510
81.4591 1.927
81.4894 1.562
81.5196 1.250
81.5499 1.198
81.5802 1.510
81.6105 1.250
81.6408 1.458
81.6710 1.354
81.7013 1.354
81.7316 1.198
81.7619 1.510
81.7922 1.667
81.8224 1.354
81.8527 1.094
81.8830 1.458
81.9133 1.875
81.9436 1.458
81.9738 1.458
82.0041 2.135
82.0344 1.615
82.0647 1.615
82.0949 1.875
82.1252 1.823
82.1555 2.083
82.1858 1.406
82.2161 2.187
82.2463 1.510
82.2766 1.562
82.3069 1.667
82.3372 1.823
82.3675 1.667
82.3977 1.823
82.4280 1.354
82.4583 1.719
82.4886 1.510
82.5188 1.354
82.5491 1.823
82.5794 1.406
82.6097 1.458
82.6400 2.031
82.6702 1.927
82.7005 1.354
82.7308 1.719
82.7611 1.719
82.7914 1.615
82.8216 1.302
82.8519 1.562
82.8822 1.615
82.9125 1.510
82.9427 1.562
82.9730 1.562
83.0033 1.823
83.0336 1.406
83.0639 1.406
83.0941 0.833
83.1244 1.458
83.1547 1.562
83.1850 1.458
83.2153 1.094
83.2455 1.198
83.2758 2.031
83.3061 2.031
83.3364 1.719
83.3666 1.042
83.3969 1.302
83.4272 1.198
83.4575 1.667
83.4878 1.406
83.5180 1.719
83.5483 1.771
83.5786 1.927
83.6089 1.198
83.6392 1.042
83.6694 1.667
83.6997 1.667
83.7300 1.823
83.7603 1.406
83.7905 1.510
83.8208 1.615
83.8511 1.667
83.8814 1.354
83.9117 1.302
83.9419 1.198
83.9722 1.354
84.0025 1.198
84.0328 1.615
84.0631 1.198
84.0933 1.302
84.1236 1.094
84.1539 1.458
84.1842 1.458
84.2144 1.198
84.2447 0.885
84.2750 1.510
84.3053 1.094
84.3356 1.667
84.3658 1.250
84.3961 1.042
84.4264 1.615
84.4567 1.146
84.4870 1.458
84.5172 1.562
84.5475 1.510
84.5778 1.198
84.6081 1.562
84.6383 1.250
84.6686 1.406
84.6989 1.094
84.7292 1.094
84.7595 0.937
84.7897 1.510
84.8200 1.198
84.8503 1.510
84.8806 1.510
84.9109 1.198
84.9411 1.615
84.9714 1.406
85.0017 1.250
85.0320 1.615
85.0623 1.562
85.0925 1.719
85.1228 1.719
85.1531 1.667
85.1834 1.510
85.2136 0.990
85.2439 1.562
85.2742 1.354
85.3045 1.615
85.3348 1.354
85.3650 1.458
85.3953 1.510
85.4256 1.354
85.4559 1.406
85.4862 1.198
85.5164 1.302
85.5467 1.615
85.5770 1.562
85.6073 1.562
85.6375 1.823
85.6678 1.875
85.6981 1.198
85.7284 1.354
85.7587 1.823
85.7889 1.406
85.8192 1.406
85.8495 1.615
85.8798 1.458
85.9101 1.771
85.9403 1.094
85.9706 2.031
86.0009 1.875
86.0312 1.510
86.0614 1.719
86.0917 1.979
86.1220 1.042
86.1523 1.354
86.1826 2.031
86.2128 1.354
86.2431 1.198
86.2734 1.510
86.3037 1.823
86.3340 1.406
86.3642 1.354
86.3945 1.458
86.4248 1.198
86.4551 1.615
86.4853 1.354
86.5156 1.198
86.5459 2.135
86.5762 1.615
86.6065 1.823
86.6367 1.667
86.6670 1.250
86.6973 1.354
86.7276 1.250
86.7579 1.302
86.7881 1.510
86.8184 1.979
86.8487 1.458
86.8790 1.406
86.9092 1.615
86.9395 1.354
86.9698 1.823
87.0001 1.667
87.0304 1.458
87.0606 1.406
87.0909 1.302
87.1212 1.042
87.1515 1.146
87.1818 1.979
87.2120 1.771
87.2423 1.771
87.2726 1.354
87.3029 1.562
87.3331 1.354
87.3634 1.406
87.3937 1.042
87.4240 1.562
87.4543 1.302
87.4845 2.135
87.5148 2.500
87.5451 1.094
87.5754 1.250
87.6057 0.937
87.6359 1.510
87.6662 1.615
87.6965 1.302
87.7268 1.354
87.7571 1.406
87.7873 2.135
87.8176 1.302
87.8479 1.146
87.8782 1.198
87.9084 1.458
87.9387 1.302
87.9690 2.031
87.9993 1.302
88.0296 1.458
88.0598 1.875
88.0901 1.562
88.1204 1.562
88.1507 1.458
88.1810 1.667
88.2112 1.667
88.2415 1.823
88.2718 1.406
88.3021 1.771
88.3323 1.250
88.3626 1.406
88.3929 1.042
88.4232 1.823
88.4535 1.198
88.4837 1.302
88.5140 1.510
88.5443 1.615
88.5746 1.667
88.6049 1.458
88.6351 1.250
88.6654 1.406
88.6957 1.354
88.7260 0.833
88.7562 1.979
88.7865 1.615
88.8168 1.198
88.8471 1.667
88.8774 1.302
88.9076 1.510
88.9379 0.990
88.9682 1.406
88.9985 1.875
89.0288 1.198
89.0590 1.406
89.0893 1.406
89.1196 1.458
89.1499 1.354
89.1801 1.667
89.2104 1.250
89.2407 1.198
89.2710 1.615
89.3013 1.927
89.3315 1.302
89.3618 0.990
89.3921 1.406
89.4224 0.990
89.4527 1.146
89.4829 1.250
89.5132 1.302
89.5435 1.771
89.5738 0.729
89.6040 1.354
89.6343 1.510
89.6646 1.458
89.6949 1.198
89.7252 1.667
89.7554 1.510
89.7857 1.562
89.8160 1.146
89.8463 1.198
89.8766 1.198
89.9068 1.094
89.9371 1.719
89.9674 1.198
89.9977 1.823
90.0279 1.146
90.0582 0.885
90.0885 1.354
90.1188 0.729
90.1491 1.302
90.1793 0.729
90.2096 1.042
90.2399 1.406
90.2702 1.406
90.3005 1.042
90.3307 1.719
90.3610 1.302
90.3913 1.198
90.4216 1.667
90.4518 1.719
90.4821 1.250
90.5124 1.302
90.5427 0.990
90.5730 1.198
90.6032 1.354
90.6335 0.781
90.6638 1.250
90.6941 1.719
90.7244 1.510
90.7546 1.458
90.7849 1.354
90.8152 1.510
90.8455 0.833
90.8758 1.094
90.9060 1.354
90.9363 1.667
90.9666 1.198
90.9969 1.250
91.0271 1.094
91.0574 1.615
91.0877 1.198
91.1180 0.937
91.1483 1.562
91.1785 1.146
91.2088 1.615
91.2391 1.354
91.2694 0.781
91.2997 1.198
91.3299 1.823
91.3602 1.615
91.3905 1.198
91.4208 1.510
91.4510 0.885
91.4813 1.510
91.5116 1.198
91.5419 1.094
91.5722 1.146
91.6024 1.615
91.6327 1.146
91.6630 1.354
91.6933 1.198
91.7236 1.354
91.7538 1.719
91.7841 1.146
91.8144 1.615
91.8447 1.927
91.8749 1.458
91.9052 0.937
91.9355 1.250
91.9658 1.927
91.9961 1.198
92.0263 1.302
92.0566 1.562
92.0869 1.562
92.1172 1.146
92.1475 1.198
92.1777 1.667
92.2080 1.198
92.2383 1.771
92.2686 1.458
92.2988 1.406
92.3291 1.719
92.3594 1.198
92.3897 1.719
92.4200 1.458
92.4502 1.354
92.4805 1.198
92.5108 1.146
92.5411 1.354
92.5714 1.302
92.6016 1.458
92.6319 1.250
92.6622 0.990
92.6925 1.146
92.7227 0.990
92.7530 1.719
92.7833 1.250
92.8136 0.937
92.8439 1.198
92.8741 1.875
92.9044 1.198
92.9347 1.198
92.9650 1.719
92.9953 1.406
93.0255 1.302
93.0558 1.510
93.0861 1.562
93.1164 1.198
93.1466 1.719
93.1769 1.250
93.2072 1.354
93.2375 1.667
93.2678 1.042
93.2980 1.823
93.3283 1.458
93.3586 1.719
93.3889 1.510
93.4192 0.990
93.4494 1.719
93.4797 1.250
93.5100 1.458
93.5403 1.250
93.5706 1.146
93.6008 1.406
93.6311 1.667
93.6614 1.458
93.6917 1.198
93.7219 1.302
93.7522 1.406
93.7825 1.250
93.8128 1.667
93.8431 0.885
93.8733 0.885
93.9036 1.458
93.9339 1.406
93.9642 1.250
93.9945 1.094
94.0247 1.198
94.0550 1.198
94.0853 1.198
94.1156 1.406
94.1458 1.354
94.1761 0.781
94.2064 1.354
94.2367 1.146
94.2670 1.250
94.2972 1.198
94.3275 1.458
94.3578 1.250
94.3881 1.094
94.4184 1.354
94.4486 1.302
94.4789 1.667
94.5092 1.615
94.5395 1.250
94.5697 1.042
94.6000 1.771
94.6303 1.198
94.6606 1.198
94.6909 1.510
94.7211 1.250
94.7514 0.990
94.7817 1.719
94.8120 1.354
94.8423 1.302
94.8725 1.250
94.9028 1.094
94.9331 1.615
94.9634 1.042
94.9936 1.250
95.0239 1.354
95.0542 0.937
95.0845 1.510
95.1148 1.094
95.1450 1.667
95.1753 0.990
95.2056 1.354
95.2359 1.458
95.2662 1.302
95.2964 0.990
95.3267 1.250
95.3570 0.990
95.3873 1.250
95.4175 1.094
95.4478 1.094
95.4781 1.719
95.5084 1.510
95.5387 1.094
95.5689 1.719
95.5992 0.990
95.6295 1.615
95.6598 1.094
95.6901 1.250
95.7203 0.990
95.7506 1.458
95.7809 1.406
95.8112 1.562
95.8414 1.354
95.8717 1.094
95.9020 1.094
95.9323 0.990
95.9626 1.250
95.9928 1.510
96.0231 0.937
96.0534 1.302
96.0837 1.250
96.1140 1.719
96.1442 0.833
96.1745 1.302
96.2048 1.042
96.2351 1.094
96.2653 1.562
96.2956 1.667
96.3259 0.781
96.3562 1.615
96.3865 1.198
96.4167 1.458
96.4470 1.354
96.4773 1.562
96.5076 1.458
96.5379 0.937
96.5681 1.250
96.5984 0.885
96.6287 0.781
96.6590 1.458
96.6893 1.094
96.7195 1.042
96.7498 1.094
96.7801 1.510
96.8104 1.250
96.8406 1.302
96.8709 1.354
96.9012 1.354
96.9315 1.510
96.9618 1.510
96.9920 1.250
97.0223 1.094
97.0526 1.094
97.0829 1.667
97.1132 1.667
97.1434 1.510
97.1737 0.937
97.2040 1.302
97.2343 1.510
97.2645 1.406
97.2948 1.354
97.3251 1.458
97.3554 1.458
97.3857 1.250
97.4159 1.719
97.4462 1.250
97.4765 1.146
97.5068 1.354
97.5371 0.885
97.5673 1.354
97.5976 1.406
97.6279 1.198
97.6582 1.458
97.6884 1.094
97.7187 0.937
97.7490 1.510
97.7793 1.250
97.8096 1.562
97.8398 1.354
97.8701 1.510
97.9004 1.406
97.9307 1.146
97.9610 1.250
97.9912 1.354
98.0215 1.458
98.0518 1.146
98.0821 1.198
98.1123 1.146
98.1426 1.458
98.1729 1.198
98.2032 1.823
98.2335 1.094
98.2637 1.771
98.2940 1.250
98.3243 1.771
98.3546 1.771
98.3849 1.302
98.4151 1.250
98.4454 1.302
98.4757 1.354
98.5060 1.927
98.5362 1.615
98.5665 1.406
98.5968 1.250
98.6271 1.458
98.6574 1.146
98.6876 0.990
98.7179 1.458
98.7482 1.198
98.7785 1.250
98.8088 1.719
98.8390 1.667
98.8693 1.406
98.8996 1.094
98.9299 1.510
98.9601 1.146
98.9904 1.146
99.0207 1.146
99.0510 1.250
99.0813 1.302
99.1115 1.302
99.1418 0.937
99.1721 1.302
99.2024 1.354
99.2327 1.406
99.2629 1.146
99.2932 0.833
99.3235 1.302
99.3538 1.250
99.3841 1.667
99.4143 1.458
99.4446 1.354
99.4749 1.094
99.5052 1.250
99.5354 1.146
99.5657 1.875
99.5960 1.302
99.6263 1.562
99.6566 1.094
99.6868 1.302
99.7171 1.250
99.7474 1.406
99.7777 0.833
99.8080 1.198
99.8382 1.823
99.8685 1.250
99.8988 1.302
99.9291 1.458
99.9593 0.990
99.9896 1.354
100.0199 1.250
100.0502 0.937
100.0805 0.990
100.1107 1.198
100.1410 1.198
100.1713 1.771
100.2016 1.302
100.2319 1.406
100.2621 1.250
100.2924 1.094
100.3227 1.146
100.3530 1.510
100.3832 1.302
100.4135 1.458
100.4438 1.042
100.4741 1.094
100.5044 1.406
100.5346 1.094
100.5649 1.302
100.5952 1.198
100.6255 1.302
100.6558 1.302
100.6860 1.146
100.7163 1.146
100.7466 1.302
100.7769 1.302
100.8071 1.302
100.8374 1.302
100.8677 1.250
100.8980 1.146
100.9283 1.667
100.9585 1.562
100.9888 0.833
101.0191 1.042
101.0494 1.146
101.0797 1.146
101.1099 1.146
101.1402 1.562
101.1705 0.729
101.2008 1.354
101.2310 1.510
101.2613 0.990
101.2916 1.719
101.3219 1.615
101.3522 1.250
101.3824 1.458
101.4127 0.990
101.4430 1.198
101.4733 1.615
101.5036 1.094
101.5338 0.833
101.5641 1.510
101.5944 1.406
101.6247 1.719
101.6549 1.198
101.6852 1.354
101.7155 1.354
101.7458 1.719
101.7761 1.354
101.8063 1.146
101.8366 1.510
101.8669 0.937
101.8972 1.302
101.9275 1.354
101.9577 1.458
101.9880 1.354
102.0183 1.354
102.0486 1.771
102.0788 0.833
102.1091 1.615
102.1394 1.354
102.1697 0.729
102.2000 1.510
102.2302 1.198
102.2605 1.354
102.2908 1.406
102.3211 1.198
102.3514 1.198
102.3816 0.990
102.4119 1.146
102.4422 1.615
102.4725 1.719
102.5028 1.146
102.5330 0.677
102.5633 1.302
102.5936 1.042
102.6239 0.833
102.6541 1.250
102.6844 0.937
102.7147 1.198
102.7450 1.250
102.7753 1.510
102.8055 1.094
102.8358 1.302
102.8661 1.146
102.8964 1.406
102.9267 1.094
102.9569 1.354
102.9872 1.823
103.0175 1.146
103.0478 1.094
103.0780 1.510
103.1083 1.146
103.1386 1.615
103.1689 1.406
103.1992 1.354
103.2294 1.510
103.2597 1.510
103.2900 1.510
103.3203 1.458
103.3506 1.667
103.3808 1.094
103.4111 0.833
103.4414 1.510
103.4717 1.146
103.5019 1.615
103.5322 1.198
103.5625 1.562
103.5928 0.990
103.6231 1.354
103.6533 0.990
103.6836 1.198
103.7139 0.885
103.7442 1.302
103.7745 1.146
103.8047 1.354
103.8350 1.042
103.8653 1.302
103.8956 0.625
103.9258 1.250
103.9561 0.885
103.9864 1.094
104.0167 1.510
104.0470 1.302
104.0772 0.937
104.1075 1.458
104.1378 1.354
104.1681 1.146
104.1984 1.458
104.2286 1.302
104.2589 1.510
104.2892 1.146
104.3195 1.198
104.3497 1.302
104.3800 1.250
104.4103 0.781
104.4406 1.094
104.4709 1.354
104.5011 1.510
104.5314 1.354
104.5617 1.042
104.5920 1.146
104.6223 1.458
104.6525 1.302
104.6828 1.250
104.7131 0.937
104.7434 1.250
104.7736 1.250
104.8039 0.885
104.8342 1.250
104.8645 0.885
104.8948 1.198
104.9250 1.250
104.9553 1.562
104.9856 0.937
105.0159 1.562
105.0462 0.937
105.0764 1.458
105.1067 1.615
105.1370 1.198
105.1673 1.250
105.1975 1.094
105.2278 1.562
105.2581 1.562
105.2884 0.990
105.3187 1.406
105.3489 1.094
105.3792 1.094
105.4095 0.937
105.4398 1.354
105.4701 1.406
105.5003 1.406
105.5306 1.302
105.5609 1.250
105.5912 0.833
105.6215 1.094
105.6517 1.146
105.6820 0.677
105.7123 0.937
105.7426 1.146
105.7728 1.094
105.8031 1.146
105.8334 0.885
105.8637 1.250
105.8940 1.250
105.9242 1.406
105.9545 0.937
105.9848 0.990
106.0151 1.146
106.0454 1.146
106.0756 1.094
106.1059 1.562
106.1362 1.198
106.1665 0.937
106.1967 0.885
106.2270 1.667
106.2573 0.937
106.2876 1.562
106.3179 1.146
106.3481 1.406
106.3784 0.885
106.4087 1.406
106.4390 0.833
106.4693 0.781
106.4995 1.510
106.5298 1.615
106.5601 0.833
106.5904 0.833
106.6206 1.406
106.6509 0.781
106.6812 0.937
106.7115 1.146
106.7418 1.302
106.7720 1.146
106.8023 1.042
106.8326 0.833
106.8629 0.937
106.8932 1.510
106.9234 1.250
106.9537 1.719
106.9840 1.042
107.0143 1.823
107.0445 1.042
107.0748 1.146
107.1051 1.458
107.1354 1.458
107.1657 0.937
107.1959 0.990
107.2262 1.302
107.2565 0.781
107.2868 1.510
107.3171 1.354
107.3473 1.719
107.3776 1.094
107.4079 1.042
107.4382 1.510
107.4684 1.823
107.4987 1.562
107.5290 1.354
107.5593 1.302
107.5896 1.094
107.6198 1.302
107.6501 1.094
107.6804 1.198
107.7107 1.823
107.7410 1.198
107.7712 1.302
107.8015 1.146
107.8318 1.094
107.8621 1.198
107.8923 1.562
107.9226 1.198
107.9529 0.937
107.9832 1.406
108.0135 1.302
108.0437 0.937
108.0740 1.146
108.1043 1.094
108.1346 1.406
108.1649 1.406
108.1951 1.042
108.2254 1.094
108.2557 1.875
108.2860 0.990
108.3163 1.250
108.3465 0.781
108.3768 1.198
108.4071 0.833
108.4374 0.990
108.4676 0.885
108.4979 1.094
108.5282 1.354
108.5585 0.885
108.5888 1.354
108.6190 0.937
108.6493 0.833
108.6796 1.094
108.7099 1.250
108.7402 0.937
108.7704 1.250
108.8007 1.354
108.8310 1.042
108.8613 1.042
108.8915 1.510
108.9218 0.885
108.9521 1.667
108.9824 1.458
109.0127 1.406
109.0429 1.302
109.0732 1.094
109.1035 1.094
109.1338 0.937
109.1641 1.667
109.1943 1.406
109.2246 0.885
109.2549 0.990
109.2852 1.562
109.3154 0.885
109.3457 1.458
109.3760 1.094
109.4063 1.354
109.4366 0.885
109.4668 1.354
109.4971 0.937
109.5274 1.250
109.5577 1.562
109.5880 1.458
109.6182 1.562
109.6485 0.937
109.6788 1.146
109.7091 0.937
109.7393 1.198
109.7696 1.042
109.7999 1.406
109.8302 1.458
109.8605 1.302
109.8907 1.198
109.9210 0.937
109.9513 1.198
109.9816 0.937
110.0119 1.667
110.0421 1.250
110.0724 1.510
110.1027 1.562
110.1330 1.354
110.1632 0.990
110.1935 0.885
110.2238 1.094
110.2541 1.146
110.2844 1.250
110.3146 1.146
110.3449 1.042
110.3752 1.094
110.4055 1.042
110.4358 0.937
110.4660 1.354
110.4963 1.250
110.5266 0.990
110.5569 1.146
110.5871 1.615
110.6174 1.406
110.6477 1.198
110.6780 1.250
110.7083 0.781
110.7385 1.250
110.7688 1.146
110.7991 0.885
110.8294 1.615
110.8597 1.146
110.8899 1.146
110.9202 1.042
110.9505 1.250
110.9808 1.146
111.0110 1.198
111.0413 1.198
111.0716 1.510
111.1019 0.937
111.1322 1.146
111.1624 0.677
111.1927 1.042
111.2230 1.510
111.2533 1.094
111.2836 0.990
111.3138 1.510
111.3441 1.146
111.3744 1.094
111.4047 1.354
111.4350 1.250
111.4652 1.094
111.4955 1.094
111.5258 1.146
111.5561 1.406
111.5863 1.510
111.6166 1.094
111.6469 0.729
111.6772 1.042
111.7075 1.510
111.7377 1.302
111.7680 1.562
111.7983 1.354
111.8286 1.250
111.8589 1.146
111.8891 0.937
111.9194 0.937
111.9497 1.510
111.9800 1.615
112.0102 1.562
112.0405 1.667
112.0708 0.937
112.1011 0.990
112.1314 1.094
112.1616 1.250
112.1919 0.885
112.2222 1.615
112.2525 1.562
112.2828 1.302
112.3130 1.146
112.3433 1.406
112.3736 1.198
112.4039 0.990
112.4341 1.615
112.4644 1.042
112.4947 1.146
112.5250 1.615
112.5553 1.406
112.5855 1.458
112.6158 1.146
112.6461 1.094
112.6764 1.458
112.7067 1.302
112.7369 1.042
112.7672 1.094
112.7975 1.510
112.8278 1.250
112.8580 1.094
112.8883 1.615
112.9186 1.250
112.9489 1.042
112.9792 0.990
113.0094 1.302
113.0397 1.146
113.0700 1.042
113.1003 0.781
113.1306 0.937
113.1608 0.937
113.1911 0.521
113.2214 0.937
113.2517 0.937
113.2819 1.042
113.3122 1.042
113.3425 1.667
113.3728 1.458
113.4031 1.042
113.4333 1.250
113.4636 1.302
113.4939 1.458
113.5242 1.094
113.5545 0.990
113.5847 1.146
113.6150 1.302
113.6453 1.458
113.6756 1.250
113.7058 1.406
113.7361 1.302
113.7664 1.198
113.7967 1.094
113.8270 1.510
113.8572 1.042
113.8875 1.406
113.9178 1.406
113.9481 1.406
113.9784 1.042
114.0086 1.094
114.0389 1.198
114.0692 1.302
114.0995 1.094
114.1298 0.990
114.1600 1.094
114.1903 1.198
114.2206 1.562
114.2509 0.937
114.2811 1.146
114.3114 0.885
114.3417 0.990
114.3720 1.406
114.4023 1.354
114.4325 1.198
114.4628 0.937
114.4931 1.198
114.5234 1.354
114.5537 0.937
114.5839 1.094
114.6142 1.406
114.6445 0.990
114.6748 0.729
114.7050 1.667
114.7353 1.354
114.7656 1.458
114.7959 1.510
114.8262 1.042
114.8564 1.302
114.8867 1.510
114.9170 1.562
114.9473 1.510
114.9776 1.302
115.0078 0.937
115.0381 1.250
115.0684 1.146
115.0987 1.823
115.1289 1.146
115.1592 1.406
115.1895 0.937
115.2198 1.198
115.2501 1.406
115.2803 1.146
115.3106 1.198
115.3409 0.937
115.3712 1.198
115.4015 1.198
115.4317 1.510
115.4620 1.198
115.4923 1.302
115.5226 1.250
115.5528 1.823
115.5831 1.354
115.6134 1.406
115.6437 1.458
115.6740 1.510
115.7042 1.146
115.7345 1.458
115.7648 0.990
115.7951 1.667
115.8254 1.510
115.8556 0.990
115.8859 1.302
115.9162 1.198
115.9465 1.198
115.9767 1.406
116.0070 1.094
116.0373 1.042
116.0676 1.094
116.0979 1.458
116.1281 1.146
116.1584 1.094
116.1887 1.510
116.2190 1.406
116.2493 1.146
116.2795 1.146
116.3098 1.146
116.3401 1.302
116.3704 1.146
116.4006 1.510
116.4309 1.146
116.4612 1.510
116.4915 1.250
116.5218 1.250
116.5520 0.885
116.5823 1.406
116.6126 1.406
116.6429 1.615
116.6732 1.458
116.7034 0.677
116.7337 1.510
116.7640 1.094
116.7943 0.990
116.8245 1.198
116.8548 0.677
116.8851 0.781
116.9154 1.198
116.9457 1.979
116.9759 1.354
117.0062 1.198
117.0365 0.885
117.0668 1.198
117.0971 1.667
117.1273 1.302
117.1576 1.562
117.1879 1.823
117.2182 1.146
117.2485 1.146
117.2787 0.937
117.3090 1.302
117.3393 1.094
117.3696 1.250
117.3998 1.615
117.4301 1.198
117.4604 1.198
117.4907 1.823
117.5210 1.198
117.5512 1.719
117.5815 1.250
117.6118 1.146
117.6421 1.198
117.6724 1.667
117.7026 1.615
117.7329 1.146
117.7632 1.302
117.7935 1.719
117.8237 1.510
117.8540 1.094
117.8843 1.250
117.9146 0.937
117.9449 0.937
117.9751 1.302
118.0054 1.510
118.0357 1.354
118.0660 1.250
118.0963 1.406
118.1265 1.302
118.1568 1.198
118.1871 0.833
118.2174 1.042
118.2476 1.406
118.2779 1.302
118.3082 0.937
118.3385 1.354
118.3688 1.615
118.3990 1.354
118.4293 0.937
118.4596 1.042
118.4899 1.302
118.5202 1.302
118.5504 1.146
118.5807 0.781
118.6110 0.990
118.6413 1.146
118.6715 0.677
118.7018 1.667
118.7321 1.250
118.7624 0.937
118.7927 1.667
118.8229 1.458
118.8532 1.094
118.8835 1.406
118.9138 1.302
118.9441 1.458
118.9743 1.354
119.0046 1.302
119.0349 1.302
119.0652 1.250
119.0954 1.198
119.1257 1.719
119.1560 0.729
119.1863 1.615
119.2166 1.354
119.2468 0.990
119.2771 1.719
119.3074 0.937
119.3377 1.458
119.3680 0.990
119.3982 1.146
119.4285 1.458
119.4588 1.406
119.4891 1.302
119.5193 1.042
119.5496 0.990
119.5799 0.677
119.6102 1.302
119.6405 1.510
119.6707 0.937
119.7010 1.354
119.7313 0.677
119.7616 1.354
119.7919 1.354
119.8221 1.615
119.8524 1.354
119.8827 1.875
119.9130 1.615
119.9433 0.990
119.9735 1.458
120.0038 0.990
