'Id: "" Comment: "" Operator: "Lab Manager" Anode: "Cu" Scantype: "Locked Coupled" TimePerStep: "19.2" X: "9999" Y: "9999" Z: "9999" 
10.0015 4.479
10.0318 4.167
10.0620 4.479
10.0923 4.167
10.1226 4.896
10.1529 3.750
10.1832 4.115
10.2134 5.104
10.2437 3.854
10.2740 3.750
10.3043 4.531
10.3346 4.531
10.3648 4.167
10.3951 4.271
10.4254 3.854
10.4557 3.802
10.4859 4.219
10.5162 4.792
10.5465 4.167
10.5768 4.062
10.6071 4.531
10.6373 3.750
10.6676 3.646
10.6979 3.281
10.7282 4.896
10.7585 4.687
10.7887 3.750
10.8190 3.542
10.8493 3.229
10.8796 3.281
10.9098 3.906
10.9401 4.010
10.9704 3.542
11.0007 3.906
11.0310 2.969
11.0612 3.698
11.0915 3.750
11.1218 3.594
11.1521 4.167
11.1824 4.531
11.2126 4.844
11.2429 4.740
11.2732 3.594
11.3035 4.115
11.3337 3.802
11.3640 4.062
11.3943 3.958
11.4246 3.854
11.4549 3.854
11.4851 4.323
11.5154 3.542
11.5457 5.000
11.5760 3.646
11.6063 3.854
11.6365 5.260
11.6668 3.385
11.6971 4.167
11.7274 3.698
11.7577 3.177
11.7879 4.010
11.8182 3.490
11.8485 3.073
11.8788 3.125
11.9090 3.437
11.9393 2.604
11.9696 3.906
11.9999 2.969
12.0302 3.490
12.0604 3.854
12.0907 4.427
12.1210 4.115
12.1513 3.802
12.1816 3.698
12.2118 4.479
12.2421 3.750
12.2724 4.271
12.3027 3.906
12.3329 3.750
12.3632 2.812
12.3935 3.854
12.4238 3.958
12.4541 3.646
12.4843 4.375
12.5146 3.333
12.5449 3.073
12.5752 3.490
12.6055 3.698
12.6357 3.542
12.6660 2.865
12.6963 4.687
12.7266 2.865
12.7568 3.125
12.7871 3.125
12.8174 3.906
12.8477 3.854
12.8780 3.854
12.9082 3.698
12.9385 4.062
12.9688 3.281
12.9991 3.281
13.0294 3.854
13.0596 3.437
13.0899 3.021
13.1202 2.240
13.1505 2.500
13.1807 3.281
13.2110 2.865
13.2413 3.698
13.2716 3.125
13.3019 4.167
13.3321 3.490
13.3624 2.292
13.3927 4.062
13.4230 3.073
13.4533 3.385
13.4835 2.656
13.5138 3.750
13.5441 3.750
13.5744 2.656
13.6046 3.594
13.6349 2.865
13.6652 3.854
13.6955 3.333
13.7258 3.750
13.7560 4.062
13.7863 3.802
13.8166 4.531
13.8469 3.281
13.8772 3.073
13.9074 4.010
13.9377 3.750
13.9680 3.646
13.9983 2.708
14.0285 3.490
14.0588 3.333
14.0891 2.708
14.1194 4.010
14.1497 3.281
14.1799 3.646
14.2102 3.698
14.2405 2.656
14.2708 3.385
14.3011 3.750
14.3313 3.073
14.3616 4.271
14.3919 3.646
14.4222 2.865
14.4524 3.854
14.4827 3.281
14.5130 3.385
14.5433 3.125
14.5736 4.010
14.6038 3.125
14.6341 3.229
14.6644 3.437
14.6947 3.021
14.7250 3.490
14.7552 3.073
14.7855 3.229
14.8158 3.177
14.8461 2.760
14.8764 3.646
14.9066 3.437
14.9369 2.552
14.9672 3.594
14.9975 3.021
15.0277 3.594
15.0580 2.812
15.0883 2.917
15.1186 2.917
15.1489 3.698
15.1791 3.125
15.2094 2.552
15.2397 3.125
15.2700 3.177
15.3003 2.760
15.3305 3.594
15.3608 3.281
15.3911 3.333
15.4214 3.385
15.4516 3.073
15.4819 3.021
15.5122 3.646
15.5425 3.698
15.5728 3.281
15.6030 2.135
15.6333 3.542
15.6636 3.542
15.6939 2.812
15.7242 2.708
15.7544 2.969
15.7847 2.917
15.8150 3.281
15.8453 3.125
15.8755 3.333
15.9058 3.125
15.9361 3.594
15.9664 2.865
15.9967 3.854
16.0269 2.656
16.0572 2.656
16.0875 2.656
16.1178 3.437
16.1481 2.812
16.1783 3.125
16.2086 3.125
16.2389 2.500
16.2692 2.760
16.2994 3.021
16.3297 3.229
16.3600 2.917
16.3903 3.854
16.4206 2.552
16.4508 2.448
16.4811 3.333
16.5114 2.656
16.5417 3.594
16.5720 2.969
16.6022 3.229
16.6325 2.656
16.6628 2.969
16.6931 2.031
16.7233 3.802
16.7536 2.656
16.7839 3.385
16.8142 2.917
16.8445 3.229
16.8747 2.760
16.9050 3.073
16.9353 3.906
16.9656 3.854
16.9959 3.073
17.0261 3.698
17.0564 3.333
17.0867 3.646
17.1170 3.333
17.1472 3.646
17.1775 2.812
17.2078 3.750
17.2381 2.969
17.2684 2.552
17.2986 3.437
17.3289 2.917
17.3592 2.656
17.3895 3.281
17.4198 3.594
17.4500 2.031
17.4803 2.448
17.5106 3.385
17.5409 2.292
17.5712 3.385
17.6014 3.646
17.6317 2.708
17.6620 2.917
17.6923 2.604
17.7225 2.448
17.7528 3.229
17.7831 2.812
17.8134 2.656
17.8437 2.969
17.8739 3.229
17.9042 3.646
17.9345 3.177
17.9648 3.229
17.9951 2.812
18.0253 3.646
18.0556 2.917
18.0859 3.958
18.1162 2.969
18.1464 3.125
18.1767 3.958
18.2070 3.021
18.2373 2.708
18.2676 3.125
18.2978 2.135
18.3281 3.021
18.3584 3.229
18.3887 2.812
18.4190 3.385
18.4492 3.385
18.4795 4.010
18.5098 3.073
18.5401 3.281
18.5703 3.437
18.6006 2.812
18.6309 3.177
18.6612 2.448
18.6915 3.021
18.7217 2.708
18.7520 2.240
18.7823 2.865
18.8126 3.437
18.8429 3.177
18.8731 3.229
18.9034 3.437
18.9337 2.552
18.9640 2.760
18.9942 3.437
19.0245 3.021
19.0548 2.812
19.0851 2.969
19.1154 2.604
19.1456 4.010
19.1759 3.490
19.2062 3.177
19.2365 2.760
19.2668 3.490
19.2970 3.125
19.3273 2.760
19.3576 2.031
19.3879 3.229
19.4181 3.073
19.4484 2.812
19.4787 3.281
19.5090 3.177
19.5393 2.604
19.5695 3.021
19.5998 3.490
19.6301 2.604
19.6604 2.500
19.6907 3.542
19.7209 2.187
19.7512 2.917
19.7815 2.969
19.8118 2.656
19.8420 3.333
19.8723 3.750
19.9026 3.229
19.9329 3.333
19.9632 3.021
19.9934 3.021
20.0237 2.865
20.0540 2.240
20.0843 2.760
20.1146 3.229
20.1448 3.177
20.1751 2.708
20.2054 2.917
20.2357 2.292
20.2659 2.500
20.2962 2.969
20.3265 2.656
20.3568 2.865
20.3871 2.760
20.4173 2.708
20.4476 2.500
20.4779 2.760
20.5082 2.865
20.5385 3.385
20.5687 3.594
20.5990 2.604
20.6293 3.125
20.6596 3.437
20.6899 2.708
20.7201 2.187
20.7504 2.552
20.7807 2.500
20.8110 3.021
20.8412 2.865
20.8715 2.292
20.9018 3.125
20.9321 2.187
20.9624 2.187
20.9926 2.760
21.0229 2.240
21.0532 3.594
21.0835 2.187
21.1138 1.979
21.1440 2.344
21.1743 2.187
21.2046 3.333
21.2349 2.708
21.2651 2.500
21.2954 3.594
21.3257 2.812
21.3560 2.760
21.3863 2.448
21.4165 2.656
21.4468 2.656
21.4771 3.698
21.5074 2.917
21.5377 3.021
21.5679 2.865
21.5982 2.708
21.6285 2.865
21.6588 2.448
21.6890 2.344
21.7193 2.917
21.7496 3.177
21.7799 2.865
21.8102 2.656
21.8404 1.927
21.8707 2.969
21.9010 2.708
21.9313 3.021
21.9616 2.708
21.9918 2.396
22.0221 3.646
22.0524 3.281
22.0827 2.760
22.1129 2.865
22.1432 2.396
22.1735 3.021
22.2038 2.812
22.2341 3.021
22.2643 1.927
22.2946 1.927
22.3249 3.021
22.3552 2.812
22.3855 2.917
22.4157 3.125
22.4460 2.344
22.4763 2.656
22.5066 2.344
22.5368 2.917
22.5671 3.125
22.5974 3.073
22.6277 2.812
22.6580 2.708
22.6882 2.500
22.7185 3.021
22.7488 2.917
22.7791 2.292
22.8094 3.281
22.8396 2.187
22.8699 3.281
22.9002 2.604
22.9305 2.500
22.9607 3.073
22.9910 3.385
23.0213 2.396
23.0516 3.125
23.0819 3.281
23.1121 3.177
23.1424 2.917
23.1727 2.865
23.2030 2.396
23.2333 3.802
23.2635 2.292
23.2938 2.865
23.3241 2.396
23.3544 2.083
23.3846 3.542
23.4149 2.917
23.4452 2.708
23.4755 2.865
23.5058 2.292
23.5360 3.021
23.5663 2.760
23.5966 3.073
23.6269 3.073
23.6572 4.062
23.6874 2.396
23.7177 3.177
23.7480 3.646
23.7783 1.875
23.8086 2.812
23.8388 2.552
23.8691 2.031
23.8994 2.448
23.9297 2.760
23.9599 2.135
23.9902 3.021
24.0205 3.281
24.0508 2.448
24.0811 3.021
24.1113 2.760
24.1416 2.500
24.1719 2.448
24.2022 2.396
24.2325 3.490
24.2627 2.344
24.2930 2.448
24.3233 3.021
24.3536 2.604
24.3838 2.604
24.4141 2.604
24.4444 2.083
24.4747 2.708
24.5050 2.812
24.5352 3.385
24.5655 1.667
24.5958 2.917
24.6261 2.083
24.6564 2.708
24.6866 3.177
24.7169 2.656
24.7472 2.500
24.7775 2.656
24.8077 3.229
24.8380 2.917
24.8683 3.125
24.8986 2.865
24.9289 2.708
24.9591 2.760
24.9894 2.865
25.0197 2.500
25.0500 2.708
25.0803 3.437
25.1105 3.073
25.1408 2.396
25.1711 3.177
25.2014 2.500
25.2316 2.552
25.2619 2.708
25.2922 2.969
25.3225 2.865
25.3528 2.604
25.3830 3.073
25.4133 2.865
25.4436 3.177
25.4739 2.917
25.5042 2.865
25.5344 2.083
25.5647 3.073
25.5950 2.969
25.6253 3.542
25.6555 3.385
25.6858 3.229
25.7161 2.448
25.7464 3.177
25.7767 2.812
25.8069 2.135
25.8372 2.865
25.8675 2.448
25.8978 1.719
25.9281 3.906
25.9583 3.281
25.9886 2.865
26.0189 1.979
26.0492 2.865
26.0794 3.490
26.1097 3.021
26.1400 3.229
26.1703 2.760
26.2006 2.031
26.2308 2.135
26.2611 3.333
26.2914 3.021
26.3217 2.135
26.3520 2.552
26.3822 2.604
26.4125 2.865
26.4428 2.969
26.4731 1.719
26.5034 3.281
26.5336 2.656
26.5639 2.708
26.5942 2.396
26.6245 2.760
26.6547 2.865
26.6850 2.760
26.7153 2.865
26.7456 2.240
26.7759 3.646
26.8061 2.969
26.8364 3.281
26.8667 3.125
26.8970 3.281
26.9273 3.021
26.9575 3.281
26.9878 3.021
27.0181 2.604
27.0484 2.656
27.0786 2.396
27.1089 2.500
27.1392 3.646
27.1695 3.125
27.1998 2.604
27.2300 3.333
27.2603 3.333
27.2906 2.708
27.3209 2.917
27.3512 3.073
27.3814 3.958
27.4117 3.750
27.4420 2.708
27.4723 3.125
27.5025 3.125
27.5328 2.865
27.5631 3.385
27.5934 2.708
27.6237 3.750
27.6539 3.073
27.6842 3.281
27.7145 2.969
27.7448 3.437
27.7751 3.594
27.8053 3.646
27.8356 3.385
27.8659 2.812
27.8962 3.229
27.9264 3.073
27.9567 3.073
27.9870 3.542
28.0173 2.865
28.0476 3.073
28.0778 2.760
28.1081 3.906
28.1384 2.865
28.1687 3.125
28.1990 3.750
28.2292 3.906
28.2595 3.177
28.2898 3.802
28.3201 3.125
28.3503 2.344
28.3806 3.906
28.4109 3.698
28.4412 2.760
28.4715 2.604
28.5017 3.229
28.5320 3.490
28.5623 3.073
28.5926 4.062
28.6229 4.167
28.6531 3.229
28.6834 3.490
28.7137 3.177
28.7440 2.812
28.7742 3.073
28.8045 3.802
28.8348 3.646
28.8651 3.594
28.8954 2.604
28.9256 3.229
28.9559 4.167
28.9862 2.917
29.0165 2.812
29.0468 3.594
29.0770 3.177
29.1073 3.854
29.1376 3.958
29.1679 2.604
29.1981 3.437
29.2284 3.073
29.2587 3.542
29.2890 4.167
29.3193 3.281
29.3495 3.490
29.3798 3.750
29.4101 4.010
29.4404 3.958
29.4707 4.219
29.5009 3.542
29.5312 3.333
29.5615 3.906
29.5918 4.062
29.6221 4.635
29.6523 3.698
29.6826 4.427
29.7129 3.958
29.7432 4.010
29.7734 4.167
29.8037 3.802
29.8340 3.490
29.8643 4.115
29.8946 4.687
29.9248 4.531
29.9551 5.208
29.9854 4.062
30.0157 3.646
30.0460 3.646
30.0762 4.062
30.1065 4.844
30.1368 5.469
30.1671 4.896
30.1973 4.844
30.2276 4.375
30.2579 4.896
30.2882 5.104
30.3185 4.740
30.3487 4.792
30.3790 5.312
30.4093 5.573
30.4396 4.948
30.4699 5.885
30.5001 6.458
30.5304 6.146
30.5607 5.781
30.5910 5.833
30.6212 4.583
30.6515 5.521
30.6818 6.042
30.7121 6.510
30.7424 5.417
30.7726 6.562
30.8029 8.229
30.8332 7.240
30.8635 7.656
30.8938 6.719
30.9240 7.917
30.9543 8.542
30.9846 8.906
31.0149 9.792
31.0451 9.948
31.0754 10.885
31.1057 11.875
31.1360 12.656
31.1663 11.771
31.1965 14.740
31.2268 17.083
31.2571 15.677
31.2874 18.542
31.3177 21.094
31.3479 23.490
31.3782 25.729
31.4085 28.490
31.4388 32.708
31.4690 40.312
31.4993 38.385
31.5296 47.604
31.5599 49.687
31.5902 54.010
31.6204 58.073
31.6507 56.406
31.6810 55.781
31.7113 51.094
31.7416 48.333
31.7718 41.042
31.8021 37.708
31.8324 31.667
31.8627 29.271
31.8929 27.083
31.9232 23.385
31.9535 21.979
31.9838 18.021
32.0141 15.990
32.0443 15.990
32.0746 13.854
32.1049 14.635
32.1352 11.615
32.1655 11.198
32.1957 11.771
32.2260 10.937
32.2563 9.844
32.2866 9.010
32.3169 7.969
32.3471 8.490
32.3774 8.333
32.4077 8.437
32.4380 7.448
32.4682 7.292
32.4985 7.604
32.5288 7.135
32.5591 6.302
32.5894 6.667
32.6196 7.292
32.6499 7.187
32.6802 6.146
32.7105 6.823
32.7408 5.885
32.7710 6.458
32.8013 4.896
32.8316 6.927
32.8619 6.875
32.8921 6.094
32.9224 6.250
32.9527 6.406
32.9830 5.990
33.0133 5.885
33.0435 4.375
33.0738 6.562
33.1041 5.208
33.1344 5.104
33.1647 5.573
33.1949 5.990
33.2252 4.896
33.2555 6.146
33.2858 5.156
33.3160 6.458
33.3463 5.729
33.3766 6.198
33.4069 6.458
33.4372 5.677
33.4674 5.677
33.4977 6.146
33.5280 6.406
33.5583 6.823
33.5886 6.823
33.6188 6.198
33.6491 7.604
33.6794 7.969
33.7097 7.604
33.7399 7.917
33.7702 8.281
33.8005 9.375
33.8308 8.594
33.8611 10.417
33.8913 9.948
33.9216 12.812
33.9519 10.937
33.9822 12.865
34.0125 14.479
34.0427 16.406
34.0730 19.635
34.1033 22.344
34.1336 25.208
34.1638 31.250
34.1941 43.750
34.2244 52.552
34.2547 63.490
34.2850 69.427
34.3152 70.833
34.3455 58.802
34.3758 53.906
34.4061 47.344
34.4364 35.937
34.4666 29.375
34.4969 23.073
34.5272 20.677
34.5575 15.937
34.5877 15.573
34.6180 12.865
34.6483 12.969
34.6786 12.552
34.7089 10.625
34.7391 11.458
34.7694 10.833
34.7997 9.635
34.8300 9.427
34.8603 9.219
34.8905 9.062
34.9208 9.271
34.9511 9.115
34.9814 7.812
35.0116 7.500
35.0419 8.594
35.0722 8.594
35.1025 8.437
35.1328 9.844
35.1630 8.333
35.1933 8.802
35.2236 8.802
35.2539 10.469
35.2842 8.437
35.3144 11.562
35.3447 9.167
35.3750 11.875
35.4053 10.937
35.4356 10.729
35.4658 11.406
35.4961 13.802
35.5264 13.229
35.5567 13.542
35.5869 16.667
35.6172 15.104
35.6475 16.823
35.6778 17.083
35.7081 21.250
35.7383 23.906
35.7686 25.573
35.7989 27.760
35.8292 30.729
35.8595 35.677
35.8897 39.010
35.9200 45.000
35.9503 49.531
35.9806 59.792
36.0108 63.073
36.0411 70.469
36.0714 78.021
36.1017 79.427
36.1320 80.365
36.1622 82.604
36.1925 77.865
36.2228 71.146
36.2531 65.312
36.2834 56.875
36.3136 51.562
36.3439 45.104
36.3742 39.479
36.4045 33.177
36.4347 29.167
36.4650 29.427
36.4953 23.021
36.5256 21.510
36.5559 17.604
36.5861 19.844
36.6164 15.677
36.6467 15.000
36.6770 12.552
36.7073 11.667
36.7375 11.510
36.7678 10.208
36.7981 10.156
36.8284 10.052
36.8586 9.062
36.8889 8.073
36.9192 9.792
36.9495 8.177
36.9798 8.125
37.0100 7.760
37.0403 7.135
37.0706 6.302
37.1009 6.667
37.1312 6.458
37.1614 5.885
37.1917 6.458
37.2220 6.354
37.2523 5.312
37.2825 5.260
37.3128 5.521
37.3431 6.042
37.3734 5.417
37.4037 5.260
37.4339 5.521
37.4642 4.583
37.4945 5.156
37.5248 5.156
37.5551 4.375
37.5853 5.052
37.6156 5.104
37.6459 4.948
37.6762 3.854
37.7064 3.802
37.7367 3.646
37.7670 3.854
37.7973 3.750
37.8276 4.583
37.8578 4.323
37.8881 3.594
37.9184 3.854
37.9487 4.427
37.9790 3.594
38.0092 3.958
38.0395 3.854
38.0698 2.656
38.1001 3.021
38.1304 3.437
38.1606 3.490
38.1909 4.010
38.2212 3.906
38.2515 3.854
38.2817 3.021
38.3120 3.646
38.3423 3.646
38.3726 3.437
38.4029 3.125
38.4331 4.323
38.4634 4.010
38.4937 2.708
38.5240 2.240
38.5543 3.229
38.5845 3.958
38.6148 2.448
38.6451 2.969
38.6754 2.865
38.7056 2.344
38.7359 2.552
38.7662 3.021
38.7965 2.552
38.8268 3.021
38.8570 2.604
38.8873 3.073
38.9176 3.229
38.9479 3.698
38.9782 3.021
39.0084 2.812
39.0387 2.917
39.0690 2.604
39.0993 2.969
39.1295 3.021
39.1598 2.604
39.1901 3.021
39.2204 2.708
39.2507 3.229
39.2809 2.396
39.3112 2.969
39.3415 2.760
39.3718 2.917
39.4021 2.708
39.4323 2.396
39.4626 2.812
39.4929 2.448
39.5232 2.031
39.5534 2.760
39.5837 2.865
39.6140 2.604
39.6443 2.396
39.6746 2.396
39.7048 2.969
39.7351 2.656
39.7654 2.552
39.7957 2.500
39.8260 2.552
39.8562 2.760
39.8865 2.812
39.9168 2.604
39.9471 2.865
39.9773 2.500
40.0076 3.281
40.0379 2.604
40.0682 2.552
40.0985 2.292
40.1287 2.500
40.1590 1.719
40.1893 1.719
40.2196 3.281
40.2499 1.823
40.2801 2.344
40.3104 2.031
40.3407 2.083
40.3710 3.073
40.4012 2.292
40.4315 2.083
40.4618 1.615
40.4921 1.875
40.5224 2.656
40.5526 2.344
40.5829 1.771
40.6132 2.448
40.6435 1.771
40.6738 2.187
40.7040 1.927
40.7343 2.396
40.7646 2.187
40.7949 2.500
40.8251 2.344
40.8554 2.083
40.8857 1.979
40.9160 2.552
40.9463 2.865
40.9765 2.292
41.0068 2.969
41.0371 2.396
41.0674 1.823
41.0977 2.500
41.1279 1.979
41.1582 1.823
41.1885 2.344
41.2188 2.240
41.2491 2.135
41.2793 2.604
41.3096 2.656
41.3399 1.875
41.3702 3.021
41.4004 2.187
41.4307 2.656
41.4610 1.823
41.4913 2.031
41.5216 2.500
41.5518 1.615
41.5821 2.500
41.6124 2.708
41.6427 2.240
41.6730 2.396
41.7032 2.396
41.7335 2.240
41.7638 2.187
41.7941 2.448
41.8243 1.771
41.8546 2.448
41.8849 2.552
41.9152 2.500
41.9455 1.979
41.9757 2.552
42.0060 2.292
42.0363 2.292
42.0666 1.719
42.0969 1.406
42.1271 1.615
42.1574 2.396
42.1877 2.344
42.2180 2.396
42.2482 1.979
42.2785 1.979
42.3088 2.083
42.3391 1.927
42.3694 2.396
42.3996 2.969
42.4299 1.719
42.4602 2.083
42.4905 1.823
42.5208 2.292
42.5510 2.187
42.5813 2.448
42.6116 2.083
42.6419 1.771
42.6721 1.979
42.7024 2.031
42.7327 2.031
42.7630 2.240
42.7933 2.448
42.8235 1.719
42.8538 2.604
42.8841 2.135
42.9144 2.292
42.9447 1.927
42.9749 2.240
43.0052 1.823
43.0355 1.354
43.0658 2.708
43.0960 2.708
43.1263 1.719
43.1566 2.448
43.1869 2.240
43.2172 1.875
43.2474 2.083
43.2777 1.927
43.3080 2.552
43.3383 2.552
43.3686 2.604
43.3988 2.135
43.4291 1.927
43.4594 1.250
43.4897 2.292
43.5199 2.344
43.5502 2.656
43.5805 2.292
43.6108 2.344
43.6411 2.500
43.6713 1.875
43.7016 1.562
43.7319 2.083
43.7622 1.875
43.7925 1.615
43.8227 1.771
43.8530 1.875
43.8833 1.875
43.9136 2.135
43.9439 1.823
43.9741 2.031
44.0044 2.292
44.0347 1.771
44.0650 1.771
44.0952 1.823
44.1255 2.812
44.1558 2.240
44.1861 2.396
44.2164 1.979
44.2466 2.344
44.2769 2.917
44.3072 2.396
44.3375 2.969
44.3678 1.875
44.3980 2.708
44.4283 1.823
44.4586 2.031
44.4889 2.240
44.5191 2.135
44.5494 2.240
44.5797 2.135
44.6100 2.083
44.6403 2.552
44.6705 2.292
44.7008 2.812
44.7311 1.927
44.7614 2.135
44.7917 2.187
44.8219 2.292
44.8522 1.771
44.8825 2.604
44.9128 2.760
44.9430 2.344
44.9733 2.135
45.0036 1.875
45.0339 1.979
45.0642 1.979
45.0944 1.927
45.1247 2.865
45.1550 2.448
45.1853 2.552
45.2156 2.083
45.2458 2.500
45.2761 2.031
45.3064 1.927
45.3367 1.979
45.3669 2.344
45.3972 2.604
45.4275 2.031
45.4578 2.240
45.4881 2.396
45.5183 2.292
45.5486 2.552
45.5789 2.448
45.6092 2.135
45.6395 3.021
45.6697 2.656
45.7000 2.656
45.7303 2.344
45.7606 2.344
45.7908 2.500
45.8211 2.552
45.8514 2.396
45.8817 2.396
45.9120 2.917
45.9422 2.240
45.9725 3.021
46.0028 2.812
46.0331 2.656
46.0634 2.292
46.0936 2.865
46.1239 2.344
46.1542 2.240
46.1845 2.448
46.2147 2.500
46.2450 3.385
46.2753 2.396
46.3056 2.917
46.3359 2.969
46.3661 2.917
46.3964 2.292
46.4267 2.552
46.4570 2.708
46.4873 2.552
46.5175 2.865
46.5478 3.177
46.5781 3.229
46.6084 4.323
46.6386 3.750
46.6689 3.281
46.6992 3.594
46.7295 4.531
46.7598 4.583
46.7900 4.062
46.8203 3.854
46.8506 4.375
46.8809 4.583
46.9112 4.948
46.9414 5.573
46.9717 5.156
47.0020 6.302
47.0323 5.417
47.0626 7.031
47.0928 6.771
47.1231 8.021
47.1534 8.385
47.1837 9.531
47.2139 11.562
47.2442 11.302
47.2745 13.177
47.3048 15.052
47.3351 18.177
47.3653 18.385
47.3956 17.552
47.4259 17.812
47.4562 17.552
47.4865 17.812
47.5167 16.250
47.5470 13.906
47.5773 14.635
47.6076 10.885
47.6378 12.135
47.6681 9.375
47.6984 8.333
47.7287 7.708
47.7590 7.135
47.7892 7.135
47.8195 5.573
47.8498 5.573
47.8801 6.146
47.9104 4.219
47.9406 4.635
47.9709 3.750
48.0012 4.635
48.0315 3.281
48.0617 3.021
48.0920 3.542
48.1223 3.281
48.1526 3.073
48.1829 3.906
48.2131 3.594
48.2434 3.281
48.2737 2.500
48.3040 3.281
48.3343 2.552
48.3645 2.240
48.3948 2.708
48.4251 2.969
48.4554 3.125
48.4856 2.604
48.5159 3.229
48.5462 2.552
48.5765 3.490
48.6068 3.229
48.6370 2.917
48.6673 2.448
48.6976 2.187
48.7279 2.552
48.7582 1.927
48.7884 2.240
48.8187 2.135
48.8490 1.979
48.8793 2.240
48.9095 2.448
48.9398 1.719
48.9701 1.562
49.0004 2.292
49.0307 2.187
49.0609 2.240
49.0912 2.604
49.1215 2.604
49.1518 1.979
49.1821 1.927
49.2123 1.979
49.2426 2.187
49.2729 1.771
49.3032 2.552
49.3334 2.500
49.3637 3.073
49.3940 2.344
49.4243 2.552
49.4546 2.135
49.4848 2.500
49.5151 2.187
49.5454 1.979
49.5757 2.552
49.6060 2.344
49.6362 2.292
49.6665 1.979
49.6968 2.292
49.7271 1.927
49.7574 2.344
49.7876 2.865
49.8179 2.500
49.8482 2.187
49.8785 2.552
49.9087 2.500
49.9390 2.344
49.9693 2.187
49.9996 1.979
50.0299 1.771
50.0601 2.292
50.0904 2.396
50.1207 2.448
50.1510 2.760
50.1813 2.292
50.2115 1.302
50.2418 1.979
50.2721 2.292
50.3024 2.344
50.3326 2.083
50.3629 1.927
50.3932 2.083
50.4235 1.562
50.4538 2.083
50.4840 2.292
50.5143 2.552
50.5446 1.979
50.5749 1.979
50.6052 2.135
50.6354 2.135
50.6657 1.979
50.6960 1.927
50.7263 1.667
50.7565 1.823
50.7868 2.344
50.8171 2.031
50.8474 2.344
50.8777 1.198
50.9079 2.344
50.9382 1.927
50.9685 2.083
50.9988 2.031
51.0291 2.031
51.0593 1.979
51.0896 2.187
51.1199 2.344
51.1502 1.875
51.1804 2.187
51.2107 1.823
51.2410 2.187
51.2713 1.875
51.3016 1.198
51.3318 2.240
51.3621 2.031
51.3924 2.187
51.4227 1.615
51.4530 2.656
51.4832 2.031
51.5135 1.875
51.5438 2.083
51.5741 2.396
51.6043 2.604
51.6346 1.823
51.6649 1.875
51.6952 2.135
51.7255 1.927
51.7557 1.771
51.7860 2.031
51.8163 2.656
51.8466 2.083
51.8769 1.354
51.9071 1.979
51.9374 1.615
51.9677 2.292
51.9980 1.667
52.0282 1.823
52.0585 2.344
52.0888 1.927
52.1191 1.823
52.1494 1.927
52.1796 2.187
52.2099 2.083
52.2402 1.823
52.2705 1.562
52.3008 2.708
52.3310 1.406
52.3613 2.240
52.3916 2.396
52.4219 2.656
52.4521 1.927
52.4824 2.187
52.5127 1.719
52.5430 1.927
52.5733 3.021
52.6035 2.187
52.6338 1.667
52.6641 1.875
52.6944 1.875
52.7247 1.771
52.7549 2.135
52.7852 1.667
52.8155 1.875
52.8458 2.604
52.8761 2.292
52.9063 2.292
52.9366 2.135
52.9669 2.083
52.9972 2.187
53.0274 2.604
53.0577 2.552
53.0880 2.187
53.1183 2.500
53.1486 1.927
53.1788 1.615
53.2091 1.562
53.2394 2.500
53.2697 2.604
53.3000 1.771
53.3302 1.875
53.3605 1.979
53.3908 2.500
53.4211 2.448
53.4513 2.240
53.4816 1.667
53.5119 1.875
53.5422 2.292
53.5725 2.865
53.6027 2.292
53.6330 1.927
53.6633 2.083
53.6936 1.927
53.7239 2.656
53.7541 2.187
53.7844 2.865
53.8147 2.396
53.8450 2.917
53.8752 1.875
53.9055 2.292
53.9358 2.448
53.9661 2.396
53.9964 2.240
54.0266 2.292
54.0569 2.292
54.0872 2.135
54.1175 2.135
54.1478 2.187
54.1780 2.500
54.2083 2.240
54.2386 2.135
54.2689 1.979
54.2991 2.135
54.3294 2.812
54.3597 2.552
54.3900 2.500
54.4203 2.448
54.4505 2.292
54.4808 2.865
54.5111 2.604
54.5414 2.240
54.5717 2.083
54.6019 2.396
54.6322 2.500
54.6625 2.031
54.6928 3.177
54.7230 2.031
54.7533 2.240
54.7836 3.021
54.8139 2.344
54.8442 2.344
54.8744 2.448
54.9047 2.031
54.9350 3.177
54.9653 2.708
54.9956 2.760
55.0258 2.812
55.0561 2.500
55.0864 2.812
55.1167 2.865
55.1469 2.292
55.1772 2.604
55.2075 3.125
55.2378 2.604
55.2681 3.385
55.2983 2.448
55.3286 2.344
55.3589 3.490
55.3892 3.333
55.4195 3.542
55.4497 2.812
55.4800 2.812
55.5103 3.073
55.5406 3.385
55.5709 4.427
55.6011 3.594
55.6314 4.427
55.6617 3.750
55.6920 4.844
55.7222 4.479
55.7525 3.021
55.7828 3.958
55.8131 4.323
55.8434 4.375
55.8736 5.312
55.9039 5.260
55.9342 5.312
55.9645 6.615
55.9948 6.823
56.0250 7.135
56.0553 7.500
56.0856 8.333
56.1159 9.062
56.1461 8.906
56.1764 9.687
56.2067 11.198
56.2370 12.448
56.2673 14.844
56.2975 15.469
56.3278 16.667
56.3581 18.958
56.3884 21.562
56.4187 21.354
56.4489 22.969
56.4792 21.562
56.5095 19.948
56.5398 21.823
56.5700 20.260
56.6003 19.844
56.6306 17.812
56.6609 16.875
56.6912 13.646
56.7214 11.719
56.7517 11.979
56.7820 10.937
56.8123 10.781
56.8426 9.792
56.8728 7.760
56.9031 7.604
56.9334 6.875
56.9637 7.240
56.9939 5.729
57.0242 5.573
57.0545 5.104
57.0848 4.896
57.1151 4.896
57.1453 4.479
57.1756 4.010
57.2059 3.490
57.2362 4.479
57.2665 3.385
57.2967 4.531
57.3270 3.594
57.3573 4.167
57.3876 3.802
57.4178 3.542
57.4481 2.812
57.4784 3.333
57.5087 3.177
57.5390 2.917
57.5692 2.552
57.5995 2.292
57.6298 3.542
57.6601 2.917
57.6904 3.490
57.7206 2.500
57.7509 2.396
57.7812 2.865
57.8115 3.177
57.8417 2.292
57.8720 2.240
57.9023 2.708
57.9326 2.812
57.9629 2.760
57.9931 2.812
58.0234 2.500
58.0537 2.552
58.0840 3.073
58.1143 2.344
58.1445 2.708
58.1748 2.292
58.2051 3.385
58.2354 2.135
58.2656 1.875
58.2959 2.292
58.3262 2.552
58.3565 2.083
58.3868 2.083
58.4170 1.510
58.4473 2.396
58.4776 1.771
58.5079 2.500
58.5382 2.396
58.5684 2.760
58.5987 2.292
58.6290 2.083
58.6593 2.344
58.6896 2.031
58.7198 2.448
58.7501 2.760
58.7804 2.135
58.8107 1.719
58.8409 2.031
58.8712 2.083
58.9015 2.812
58.9318 2.656
58.9621 2.292
58.9923 2.135
59.0226 2.396
59.0529 2.083
59.0832 2.240
59.1135 2.604
59.1437 2.240
59.1740 2.240
59.2043 2.396
59.2346 2.604
59.2648 2.396
59.2951 1.979
59.3254 1.927
59.3557 2.344
59.3860 2.500
59.4162 2.187
59.4465 2.083
59.4768 2.083
59.5071 2.135
59.5374 2.396
59.5676 2.344
59.5979 2.552
59.6282 1.875
59.6585 2.969
59.6887 2.031
59.7190 2.083
59.7493 2.344
59.7796 1.979
59.8099 1.927
59.8401 2.187
59.8704 1.927
59.9007 1.979
59.9310 2.656
59.9613 2.448
59.9915 2.552
60.0218 2.344
60.0521 2.240
60.0824 2.187
60.1126 2.187
60.1429 2.969
60.1732 2.135
60.2035 2.760
60.2338 2.448
60.2640 2.760
60.2943 2.656
60.3246 2.031
60.3549 2.812
60.3852 2.656
60.4154 2.604
60.4457 2.656
60.4760 2.187
60.5063 2.187
60.5365 2.552
60.5668 1.823
60.5971 2.344
60.6274 2.604
60.6577 2.552
60.6879 2.396
60.7182 2.344
60.7485 3.021
60.7788 2.292
60.8091 2.187
60.8393 2.135
60.8696 2.448
60.8999 2.448
60.9302 2.292
60.9604 1.823
60.9907 2.917
61.0210 2.812
61.0513 3.281
61.0816 2.344
61.1118 2.604
61.1421 2.552
61.1724 2.187
61.2027 2.083
61.2330 2.396
61.2632 2.812
61.2935 2.656
61.3238 2.708
61.3541 2.604
61.3844 2.500
61.4146 2.656
61.4449 3.073
61.4752 2.917
61.5055 2.552
61.5357 3.177
61.5660 2.552
61.5963 2.187
61.6266 2.812
61.6569 2.656
61.6871 3.073
61.7174 3.333
61.7477 2.604
61.7780 2.396
61.8083 2.708
61.8385 3.021
61.8688 3.646
61.8991 3.750
61.9294 3.750
61.9596 3.437
61.9899 3.437
62.0202 3.750
62.0505 4.010
62.0808 3.802
62.1110 3.854
62.1413 4.271
62.1716 4.323
62.2019 5.156
62.2322 5.156
62.2624 6.042
62.2927 5.365
62.3230 7.917
62.3533 7.917
62.3835 7.292
62.4138 8.125
62.4441 9.479
62.4744 10.260
62.5047 9.948
62.5349 11.510
62.5652 14.115
62.5955 15.885
62.6258 15.990
62.6561 16.615
62.6863 20.417
62.7166 18.802
62.7469 18.177
62.7772 20.937
62.8074 19.375
62.8377 17.448
62.8680 17.083
62.8983 15.104
62.9286 13.906
62.9588 14.844
62.9891 11.042
63.0194 10.365
63.0497 10.469
63.0800 8.750
63.1102 9.323
63.1405 6.875
63.1708 6.198
63.2011 5.781
63.2313 6.302
63.2616 5.312
63.2919 5.000
63.3222 4.792
63.3525 4.323
63.3827 4.167
63.4130 3.646
63.4433 3.177
63.4736 4.583
63.5039 3.229
63.5341 3.906
63.5644 3.594
63.5947 3.333
63.6250 3.073
63.6552 3.698
63.6855 3.333
63.7158 3.229
63.7461 3.229
63.7764 2.917
63.8066 2.396
63.8369 2.448
63.8672 2.760
63.8975 2.708
63.9278 1.875
63.9580 4.167
63.9883 2.031
64.0186 3.281
64.0489 1.927
64.0791 2.500
64.1094 3.073
64.1397 2.656
64.1700 2.604
64.2003 2.500
64.2305 2.865
64.2608 2.708
64.2911 2.865
64.3214 2.708
64.3517 2.031
64.3819 2.969
64.4122 2.604
64.4425 2.604
64.4728 1.823
64.5031 2.812
64.5333 2.500
64.5636 2.344
64.5939 2.135
64.6242 2.604
64.6544 2.344
64.6847 2.396
64.7150 2.500
64.7453 3.125
64.7756 1.927
64.8058 2.187
64.8361 2.083
64.8664 2.552
64.8967 1.927
64.9270 2.135
64.9572 2.292
64.9875 2.240
65.0178 2.187
65.0481 2.292
65.0783 2.604
65.1086 2.240
65.1389 2.396
65.1692 2.500
65.1995 2.500
65.2297 2.240
65.2600 2.812
65.2903 2.448
65.3206 2.396
65.3509 2.135
65.3811 1.979
65.4114 1.979
65.4417 2.760
65.4720 2.604
65.5022 2.917
65.5325 2.240
65.5628 2.031
65.5931 3.125
65.6234 2.292
65.6536 3.021
65.6839 2.448
65.7142 2.344
65.7445 2.448
65.7748 2.292
65.8050 3.281
65.8353 3.125
65.8656 2.812
65.8959 3.281
65.9261 3.750
65.9564 3.021
65.9867 3.490
66.0170 3.125
66.0473 3.906
66.0775 4.271
66.1078 4.531
66.1381 4.219
66.1684 4.687
66.1987 3.958
66.2289 4.531
66.2592 5.000
66.2895 5.573
66.3198 4.323
66.3500 4.531
66.3803 4.375
66.4106 4.375
66.4409 4.219
66.4712 4.010
66.5014 3.281
66.5317 3.385
66.5620 4.531
66.5923 4.271
66.6226 3.490
66.6528 2.917
66.6831 3.906
66.7134 3.437
66.7437 3.437
66.7739 4.115
66.8042 3.125
66.8345 2.760
66.8648 3.125
66.8951 2.656
66.9253 3.385
66.9556 2.396
66.9859 4.375
67.0162 3.229
67.0465 3.958
67.0767 5.000
67.1070 4.115
67.1373 3.333
67.1676 4.583
67.1978 3.490
67.2281 3.750
67.2584 5.000
67.2887 4.531
67.3190 5.417
67.3492 5.260
67.3795 5.417
67.4098 6.042
67.4401 6.719
67.4704 7.969
67.5006 7.656
67.5309 7.396
67.5612 8.698
67.5915 9.948
67.6218 10.260
67.6520 11.198
67.6823 11.094
67.7126 13.854
67.7429 11.562
67.7731 13.542
67.8034 12.708
67.8337 13.802
67.8640 13.906
67.8943 12.708
67.9245 12.917
67.9548 13.073
67.9851 12.344
68.0154 11.875
68.0457 12.292
68.0759 10.469
68.1062 9.167
68.1365 8.281
68.1668 8.333
68.1970 8.698
68.2273 7.187
68.2576 8.854
68.2879 6.562
68.3182 7.187
68.3484 6.667
68.3787 5.208
68.4090 6.042
68.4393 5.833
68.4696 5.417
68.4998 5.000
68.5301 5.469
68.5604 5.833
68.5907 5.312
68.6209 4.740
68.6512 5.104
68.6815 6.198
68.7118 6.354
68.7421 6.823
68.7723 6.771
68.8026 6.823
68.8329 6.458
68.8632 6.719
68.8935 8.073
68.9237 7.552
68.9540 6.823
68.9843 9.062
69.0146 6.979
69.0448 7.344
69.0751 6.406
69.1054 7.187
69.1357 6.458
69.1660 6.250
69.1962 6.094
69.2265 5.885
69.2568 5.312
69.2871 5.208
69.3174 5.469
69.3476 4.948
69.3779 3.229
69.4082 3.698
69.4385 3.698
69.4687 3.021
69.4990 3.073
69.5293 3.281
69.5596 3.281
69.5899 3.281
69.6201 3.646
69.6504 2.292
69.6807 2.969
69.7110 2.812
69.7413 3.073
69.7715 2.708
69.8018 2.292
69.8321 2.656
69.8624 2.812
69.8926 2.187
69.9229 2.656
69.9532 2.187
69.9835 2.865
70.0138 2.760
70.0440 2.135
70.0743 2.187
70.1046 2.135
70.1349 2.396
70.1652 2.292
70.1954 2.031
70.2257 2.031
70.2560 1.771
70.2863 2.187
70.3166 2.344
70.3468 1.771
70.3771 2.135
70.4074 2.292
70.4377 2.135
70.4679 2.292
70.4982 2.135
70.5285 1.562
70.5588 2.135
70.5891 1.458
70.6193 1.510
70.6496 1.562
70.6799 1.667
70.7102 2.031
70.7405 1.875
70.7707 1.771
70.8010 1.771
70.8313 2.187
70.8616 1.875
70.8918 1.771
70.9221 2.604
70.9524 1.771
70.9827 2.760
71.0130 2.135
71.0432 2.344
71.0735 2.396
71.1038 1.615
71.1341 1.979
71.1644 1.458
71.1946 1.510
71.2249 1.719
71.2552 1.510
71.2855 1.615
71.3157 1.354
71.3460 1.979
71.3763 1.250
71.4066 1.771
71.4369 1.406
71.4671 1.562
71.4974 1.354
71.5277 1.510
71.5580 1.406
71.5883 1.562
71.6185 1.927
71.6488 1.562
71.6791 1.615
71.7094 2.031
71.7396 1.979
71.7699 1.927
71.8002 1.302
71.8305 1.875
71.8608 1.979
71.8910 1.302
71.9213 1.823
71.9516 1.823
71.9819 1.979
72.0122 1.875
72.0424 1.354
72.0727 1.823
72.1030 1.875
72.1333 2.656
72.1635 1.927
72.1938 2.292
72.2241 1.979
72.2544 2.760
72.2847 2.187
72.3149 2.500
72.3452 2.500
72.3755 2.865
72.4058 2.656
72.4361 2.917
72.4663 2.396
72.4966 2.552
72.5269 2.448
72.5572 2.500
72.5874 2.240
72.6177 2.344
72.6480 2.083
72.6783 2.396
72.7086 2.240
72.7388 1.875
72.7691 2.396
72.7994 2.135
72.8297 2.760
72.8600 1.510
72.8902 1.771
72.9205 1.667
72.9508 2.031
72.9811 2.083
73.0113 2.187
73.0416 1.510
73.0719 1.719
73.1022 1.354
73.1325 1.927
73.1627 1.667
73.1930 1.927
73.2233 1.719
73.2536 1.823
73.2839 1.719
73.3141 1.875
73.3444 1.562
73.3747 0.990
73.4050 1.458
73.4353 1.979
73.4655 1.250
73.4958 1.719
73.5261 1.719
73.5564 1.927
73.5866 1.927
73.6169 1.667
73.6472 1.927
73.6775 1.719
73.7078 1.354
73.7380 1.615
73.7683 1.719
73.7986 1.354
73.8289 1.719
73.8592 2.187
73.8894 2.083
73.9197 1.510
73.9500 1.302
73.9803 1.406
74.0105 2.187
74.0408 1.094
74.0711 1.719
74.1014 1.354
74.1317 1.875
74.1619 1.250
74.1922 2.187
74.2225 1.458
74.2528 1.615
74.2831 1.562
74.3133 1.354
74.3436 1.875
74.3739 1.562
74.4042 1.719
74.4344 1.406
74.4647 1.354
74.4950 1.354
74.5253 0.990
74.5556 1.354
74.5858 1.667
74.6161 2.135
74.6464 1.562
74.6767 1.875
74.7070 1.510
74.7372 1.562
74.7675 1.719
74.7978 1.875
74.8281 1.198
74.8583 1.510
74.8886 1.458
74.9189 1.250
74.9492 1.979
74.9795 1.406
75.0097 1.510
75.0400 0.833
75.0703 1.927
75.1006 1.719
75.1309 1.719
75.1611 1.562
75.1914 1.406
75.2217 1.719
75.2520 1.510
75.2822 1.458
75.3125 1.719
75.3428 1.771
75.3731 1.979
75.4034 1.719
75.4336 1.198
75.4639 1.719
75.4942 1.562
75.5245 1.510
75.5548 1.458
75.5850 1.198
75.6153 2.083
75.6456 1.198
75.6759 1.667
75.7061 2.187
75.7364 1.979
75.7667 0.990
75.7970 1.875
75.8273 0.990
75.8575 1.719
75.8878 1.615
75.9181 1.771
75.9484 1.562
75.9787 1.354
76.0089 1.615
76.0392 1.979
76.0695 2.135
76.0998 1.667
76.1301 1.979
76.1603 1.562
76.1906 1.615
76.2209 1.510
76.2512 1.979
76.2814 1.667
76.3117 1.719
76.3420 1.458
76.3723 1.927
76.4026 2.135
76.4328 1.979
76.4631 2.240
76.4934 2.656
76.5237 1.979
76.5540 1.510
76.5842 1.667
76.6145 2.760
76.6448 2.760
76.6751 2.552
76.7053 2.187
76.7356 2.656
76.7659 3.073
76.7962 2.604
76.8265 3.229
76.8567 3.281
76.8870 2.865
76.9173 2.812
76.9476 3.333
76.9779 2.760
77.0081 2.031
77.0384 2.031
77.0687 2.344
77.0990 2.656
77.1292 1.927
77.1595 2.448
77.1898 1.875
77.2201 2.135
77.2504 2.917
77.2806 2.187
77.3109 1.771
77.3412 2.240
77.3715 1.719
77.4018 1.615
77.4320 2.292
77.4623 1.927
77.4926 1.667
77.5229 1.719
77.5531 1.823
77.5834 2.083
77.6137 1.979
77.6440 1.615
77.6743 1.823
77.7045 1.146
77.7348 1.979
77.7651 1.979
77.7954 1.667
77.8257 1.458
77.8559 1.354
77.8862 1.198
77.9165 1.667
77.9468 1.667
77.9770 0.937
78.0073 1.458
78.0376 1.562
78.0679 1.615
78.0982 1.354
78.1284 1.667
78.1587 1.771
78.1890 1.458
78.2193 1.823
78.2496 1.510
78.2798 1.823
78.3101 1.615
78.3404 1.250
78.3707 1.667
78.4009 1.510
78.4312 1.458
78.4615 1.927
78.4918 0.781
78.5221 1.667
78.5523 1.042
78.5826 1.667
78.6129 1.198
78.6432 0.937
78.6735 1.250
78.7037 1.354
78.7340 1.302
78.7643 1.354
78.7946 1.354
78.8248 1.458
78.8551 2.031
78.8854 1.510
78.9157 0.937
78.9460 1.510
78.9762 1.406
79.0065 1.458
79.0368 0.833
79.0671 1.354
79.0974 1.667
79.1276 1.615
79.1579 0.990
79.1882 1.562
79.2185 1.667
79.2488 1.562
79.2790 1.250
79.3093 1.302
79.3396 0.729
79.3699 1.667
79.4001 1.562
79.4304 1.406
79.4607 1.979
79.4910 1.302
79.5213 0.990
79.5515 1.562
79.5818 1.875
79.6121 1.250
79.6424 1.510
79.6727 1.458
79.7029 1.198
79.7332 1.823
79.7635 1.198
79.7938 1.667
79.8240 1.406
79.8543 1.146
79.8846 1.458
79.9149 1.354
79.9452 1.771
79.9754 1.406
80.0057 1.354
80.0360 1.458
80.0663 1.094
80.0966 1.302
80.1268 1.198
80.1571 1.823
80.1874 1.979
80.2177 1.042
80.2479 1.458
80.2782 1.250
80.3085 1.458
80.3388 1.406
80.3691 1.354
80.3993 1.823
80.4296 1.302
80.4599 1.354
80.4902 1.615
80.5205 1.510
80.5507 1.667
80.5810 1.667
80.6113 1.406
80.6416 1.719
80.6718 1.823
80.7021 1.823
80.7324 1.302
80.7627 1.302
80.7930 1.615
80.8232 2.135
80.8535 1.458
80.8838 1.458
80.9141 1.719
80.9444 1.406
80.9746 1.615
81.0049 1.823
81.0352 2.187
81.0655 1.302
81.0957 2.240
81.1260 2.135
81.1563 2.135
81.1866 2.292
81.2169 2.448
81.2471 1.979
81.2774 1.927
81.3077 1.979
81.3380 1.615
81.3683 2.396
81.3985 2.135
81.4288 1.771
81.4591 2.135
81.4894 2.083
81.5196 2.031
81.5499 1.771
81.5802 2.187
81.6105 2.135
81.6408 1.146
81.6710 1.615
81.7013 2.083
81.7316 1.667
81.7619 1.667
81.7922 1.719
81.8224 1.979
81.8527 0.937
81.8830 1.667
81.9133 1.302
81.9436 1.198
81.9738 1.562
82.0041 1.667
82.0344 1.823
82.0647 1.615
82.0949 1.406
82.1252 1.458
82.1555 0.937
82.1858 1.406
82.2161 1.458
82.2463 1.615
82.2766 1.250
82.3069 1.667
82.3372 1.250
82.3675 1.615
82.3977 1.615
82.4280 1.198
82.4583 1.667
82.4886 1.667
82.5188 0.990
82.5491 1.198
82.5794 1.406
82.6097 1.458
82.6400 1.458
82.6702 1.146
82.7005 1.458
82.7308 1.406
82.7611 1.823
82.7914 1.719
82.8216 1.354
82.8519 1.198
82.8822 1.302
82.9125 1.406
82.9427 1.198
82.9730 0.937
83.0033 1.458
83.0336 1.510
83.0639 1.094
83.0941 1.510
83.1244 1.250
83.1547 1.562
83.1850 1.250
83.2153 1.719
83.2455 1.198
83.2758 0.990
83.3061 1.510
83.3364 1.354
83.3666 1.198
83.3969 1.615
83.4272 1.927
83.4575 1.458
83.4878 1.667
83.5180 1.042
83.5483 1.146
83.5786 1.667
83.6089 1.927
83.6392 1.198
83.6694 1.406
83.6997 1.615
83.7300 1.354
83.7603 1.094
83.7905 1.458
83.8208 2.031
83.8511 1.042
83.8814 1.250
83.9117 1.094
83.9419 1.094
83.9722 1.562
84.0025 1.042
84.0328 1.198
84.0631 0.990
84.0933 1.562
84.1236 1.250
84.1539 1.198
84.1842 1.094
84.2144 1.458
84.2447 1.667
84.2750 1.406
84.3053 1.562
84.3356 1.198
84.3658 1.042
84.3961 1.094
84.4264 1.406
84.4567 1.458
84.4870 1.927
84.5172 1.615
84.5475 1.562
84.5778 1.510
84.6081 1.562
84.6383 1.406
84.6686 1.354
84.6989 1.094
84.7292 1.354
84.7595 1.510
84.7897 1.562
84.8200 1.771
84.8503 1.406
84.8806 1.146
84.9109 1.146
84.9411 1.198
84.9714 1.458
85.0017 1.510
85.0320 1.823
85.0623 1.510
85.0925 1.667
85.1228 1.354
85.1531 1.406
85.1834 1.406
85.2136 2.083
85.2439 1.719
85.2742 1.198
85.3045 1.198
85.3348 1.458
85.3650 1.927
85.3953 1.510
85.4256 1.667
85.4559 1.458
85.4862 1.094
85.5164 0.990
85.5467 1.354
85.5770 1.615
85.6073 1.615
85.6375 1.198
85.6678 1.354
85.6981 1.198
85.7284 1.406
85.7587 1.615
85.7889 1.510
85.8192 1.406
85.8495 1.562
85.8798 1.615
85.9101 1.146
85.9403 1.562
85.9706 0.833
86.0009 1.667
86.0312 1.562
86.0614 1.667
86.0917 1.562
86.1220 1.198
86.1523 2.031
86.1826 1.406
86.2128 1.615
86.2431 1.562
86.2734 1.458
86.3037 1.198
86.3340 1.354
86.3642 1.927
86.3945 1.302
86.4248 1.354
86.4551 1.198
86.4853 1.458
86.5156 1.458
86.5459 1.510
86.5762 1.302
86.6065 1.875
86.6367 1.094
86.6670 1.667
86.6973 1.667
86.7276 1.823
86.7579 1.198
86.7881 1.562
86.8184 1.458
86.8487 1.615
86.8790 1.406
86.9092 1.875
86.9395 1.667
86.9698 1.406
87.0001 1.042
87.0304 1.510
87.0606 1.094
87.0909 1.667
87.1212 1.562
87.1515 1.354
87.1818 1.250
87.2120 1.198
87.2423 1.354
87.2726 1.146
87.3029 0.937
87.3331 1.562
87.3634 1.458
87.3937 1.094
87.4240 1.094
87.4543 1.198
87.4845 1.354
87.5148 1.562
87.5451 1.823
87.5754 1.406
87.6057 1.823
87.6359 1.615
87.6662 1.354
87.6965 1.667
87.7268 1.198
87.7571 1.406
87.7873 1.250
87.8176 1.146
87.8479 1.354
87.8782 1.406
87.9084 1.719
87.9387 1.875
87.9690 1.615
87.9993 1.198
88.0296 1.510
88.0598 1.875
88.0901 1.667
88.1204 1.771
88.1507 1.458
88.1810 1.823
88.2112 1.667
88.2415 1.198
88.2718 1.667
88.3021 1.927
88.3323 1.615
88.3626 1.406
88.3929 1.250
88.4232 1.198
88.4535 1.823
88.4837 1.198
88.5140 1.562
88.5443 1.875
88.5746 1.875
88.6049 1.771
88.6351 1.510
88.6654 1.771
88.6957 1.875
88.7260 1.771
88.7562 2.240
88.7865 1.927
88.8168 1.719
88.8471 1.823
88.8774 2.083
88.9076 2.240
88.9379 1.667
88.9682 1.771
88.9985 2.656
89.0288 2.344
89.0590 1.927
89.0893 2.292
89.1196 2.604
89.1499 2.969
89.1801 2.448
89.2104 3.021
89.2407 3.177
89.2710 3.125
89.3013 3.490
89.3315 3.594
89.3618 4.010
89.3921 4.479
89.4224 3.958
89.4527 3.542
89.4829 4.219
89.5132 5.052
89.5435 4.115
89.5738 4.479
89.6040 3.802
89.6343 4.167
89.6646 3.594
89.6949 3.594
89.7252 3.021
89.7554 3.854
89.7857 3.906
89.8160 2.812
89.8463 3.698
89.8766 3.229
89.9068 3.437
89.9371 3.073
89.9674 2.292
89.9977 2.604
90.0279 2.396
90.0582 2.656
90.0885 2.135
90.1188 2.500
90.1491 2.031
90.1793 2.187
90.2096 2.240
90.2399 2.187
90.2702 1.510
90.3005 2.135
90.3307 2.187
90.3610 1.979
90.3913 1.823
90.4216 1.771
90.4518 1.823
90.4821 1.771
90.5124 1.823
90.5427 2.031
90.5730 1.823
90.6032 2.240
90.6335 1.927
90.6638 1.406
90.6941 2.187
90.7244 2.135
90.7546 1.406
90.7849 1.615
90.8152 1.615
90.8455 1.615
90.8758 2.031
90.9060 1.406
90.9363 1.510
90.9666 1.823
90.9969 1.719
91.0271 1.719
91.0574 1.615
91.0877 1.667
91.1180 2.292
91.1483 1.562
91.1785 1.302
91.2088 2.031
91.2391 1.510
91.2694 1.927
91.2997 1.927
91.3299 1.354
91.3602 1.823
91.3905 1.198
91.4208 1.302
91.4510 1.458
91.4813 1.458
91.5116 1.354
91.5419 1.667
91.5722 1.302
91.6024 1.458
91.6327 1.302
91.6630 1.562
91.6933 1.510
91.7236 1.354
91.7538 1.458
91.7841 1.771
91.8144 1.250
91.8447 1.510
91.8749 1.667
91.9052 2.187
91.9355 1.719
91.9658 1.927
91.9961 1.667
92.0263 1.667
92.0566 1.667
92.0869 1.823
92.1172 1.615
92.1475 2.135
92.1777 1.979
92.2080 1.250
92.2383 1.615
92.2686 2.031
92.2988 1.719
92.3291 2.187
92.3594 2.031
92.3897 2.187
92.4200 2.031
92.4502 2.240
92.4805 2.083
92.5108 2.135
92.5411 2.292
92.5714 2.292
92.6016 1.667
92.6319 1.979
92.6622 2.396
92.6925 2.187
92.7227 2.187
92.7530 2.396
92.7833 2.812
92.8136 2.656
92.8439 1.927
92.8741 1.875
92.9044 2.187
92.9347 3.021
92.9650 1.875
92.9953 1.719
93.0255 1.719
93.0558 2.135
93.0861 1.615
93.1164 1.823
93.1466 1.875
93.1769 2.604
93.2072 2.760
93.2375 1.771
93.2678 2.187
93.2980 1.771
93.3283 1.719
93.3586 1.771
93.3889 1.823
93.4192 1.667
93.4494 2.135
93.4797 1.771
93.5100 1.771
93.5403 1.667
93.5706 1.719
93.6008 2.135
93.6311 1.719
93.6614 2.031
93.6917 1.823
93.7219 1.771
93.7522 1.771
93.7825 1.771
93.8128 1.979
93.8431 1.875
93.8733 1.719
93.9036 1.979
93.9339 0.990
93.9642 1.875
93.9945 1.615
94.0247 1.615
94.0550 1.719
94.0853 2.292
94.1156 2.031
94.1458 2.031
94.1761 1.406
94.2064 2.240
94.2367 1.719
94.2670 1.615
94.2972 2.187
94.3275 1.979
94.3578 2.135
94.3881 1.302
94.4184 1.927
94.4486 1.927
94.4789 2.083
94.5092 1.771
94.5395 2.187
94.5697 2.344
94.6000 1.823
94.6303 1.875
94.6606 2.187
94.6909 2.604
94.7211 1.979
94.7514 2.135
94.7817 1.979
94.8120 2.865
94.8423 2.760
94.8725 2.917
94.9028 3.437
94.9331 3.177
94.9634 3.333
94.9936 3.750
95.0239 3.437
95.0542 4.219
95.0845 4.219
95.1148 4.792
95.1450 4.740
95.1753 4.219
95.2056 3.281
95.2359 3.594
95.2662 3.698
95.2964 3.958
95.3267 3.542
95.3570 4.167
95.3873 3.437
95.4175 2.917
95.4478 3.802
95.4781 3.646
95.5084 3.229
95.5387 2.969
95.5689 3.281
95.5992 3.333
95.6295 3.073
95.6598 2.083
95.6901 2.604
95.7203 2.187
95.7506 2.604
95.7809 2.344
95.8112 1.771
95.8414 2.240
95.8717 2.708
95.9020 2.031
95.9323 2.500
95.9626 1.927
95.9928 2.135
96.0231 2.500
96.0534 2.083
96.0837 2.344
96.1140 2.552
96.1442 1.562
96.1745 2.187
96.2048 1.458
96.2351 1.250
96.2653 1.615
96.2956 1.719
96.3259 2.083
96.3562 1.927
96.3865 1.667
96.4167 1.667
96.4470 1.875
96.4773 1.667
96.5076 1.615
96.5379 2.031
96.5681 1.979
96.5984 1.510
96.6287 1.302
96.6590 1.979
96.6893 1.510
96.7195 1.771
96.7498 1.354
96.7801 1.927
96.8104 1.510
96.8406 1.875
96.8709 1.615
96.9012 1.354
96.9315 0.990
96.9618 1.771
96.9920 1.042
97.0223 1.458
97.0526 2.083
97.0829 1.510
97.1132 1.875
97.1434 2.031
97.1737 1.667
97.2040 1.354
97.2343 2.344
97.2645 2.083
97.2948 1.615
97.3251 2.187
97.3554 1.562
97.3857 1.719
97.4159 1.510
97.4462 1.562
97.4765 1.354
97.5068 1.198
97.5371 1.406
97.5673 1.927
97.5976 1.250
97.6279 1.250
97.6582 1.667
97.6884 1.250
97.7187 1.719
97.7490 2.031
97.7793 1.510
97.8096 1.927
97.8398 1.458
97.8701 1.927
97.9004 2.135
97.9307 2.083
97.9610 1.250
97.9912 2.292
98.0215 2.292
98.0518 1.771
98.0821 1.406
98.1123 1.719
98.1426 2.083
98.1729 2.448
98.2032 1.771
98.2335 2.865
98.2637 2.604
98.2940 2.135
98.3243 2.187
98.3546 3.333
98.3849 2.812
98.4151 2.708
98.4454 2.812
98.4757 2.344
98.5060 2.292
98.5362 3.125
98.5665 2.396
98.5968 2.969
98.6271 2.708
98.6574 2.969
98.6876 2.396
98.7179 2.604
98.7482 2.031
98.7785 2.344
98.8088 2.656
98.8390 2.031
98.8693 2.240
98.8996 1.979
98.9299 2.083
98.9601 1.875
98.9904 2.292
99.0207 2.448
99.0510 1.823
99.0813 1.771
99.1115 2.135
99.1418 1.667
99.1721 1.719
99.2024 2.187
99.2327 1.875
99.2629 2.083
99.2932 1.823
99.3235 1.927
99.3538 1.302
99.3841 2.344
99.4143 1.771
99.4446 1.354
99.4749 1.771
99.5052 1.771
99.5354 1.823
99.5657 1.667
99.5960 1.458
99.6263 1.354
99.6566 1.406
99.6868 1.719
99.7171 1.302
99.7474 1.615
99.7777 0.833
99.8080 2.135
99.8382 1.406
99.8685 1.719
99.8988 1.510
99.9291 1.875
99.9593 1.615
99.9896 1.562
100.0199 1.406
100.0502 1.042
100.0805 1.510
100.1107 1.823
100.1410 1.510
100.1713 1.510
100.2016 1.562
100.2319 1.719
100.2621 1.875
100.2924 1.250
100.3227 1.198
100.3530 1.771
100.3832 1.302
100.4135 1.771
100.4438 1.146
100.4741 1.354
100.5044 1.562
100.5346 1.250
100.5649 1.927
100.5952 1.615
100.6255 1.719
100.6558 1.510
100.6860 1.510
100.7163 1.875
100.7466 2.031
100.7769 1.406
100.8071 1.615
100.8374 1.406
100.8677 1.823
100.8980 1.302
100.9283 1.667
100.9585 1.406
100.9888 1.979
101.0191 1.927
101.0494 1.406
101.0797 1.198
101.1099 1.719
101.1402 1.927
101.1705 1.719
101.2008 1.875
101.2310 2.083
101.2613 2.083
101.2916 1.458
101.3219 1.719
101.3522 1.771
101.3824 1.615
101.4127 1.198
101.4430 1.979
101.4733 1.562
101.5036 1.354
101.5338 1.771
101.5641 1.146
101.5944 1.406
101.6247 2.187
101.6549 1.406
101.6852 1.875
101.7155 1.771
101.7458 2.083
101.7761 1.771
101.8063 1.458
101.8366 1.406
101.8669 1.771
101.8972 1.771
101.9275 1.510
101.9577 1.250
101.9880 1.406
102.0183 2.031
102.0486 2.240
102.0788 2.344
102.1091 1.615
102.1394 1.510
102.1697 1.927
102.2000 1.510
102.2302 1.302
102.2605 1.771
102.2908 1.875
102.3211 2.031
102.3514 2.344
102.3816 1.615
102.4119 1.562
102.4422 1.667
102.4725 2.344
102.5028 2.500
102.5330 1.875
102.5633 2.604
102.5936 2.187
102.6239 2.396
102.6541 2.135
102.6844 2.708
102.7147 2.500
102.7450 2.083
102.7753 2.552
102.8055 2.812
102.8358 2.031
102.8661 2.344
102.8964 2.604
102.9267 2.292
102.9569 2.187
102.9872 2.448
103.0175 2.396
103.0478 2.812
103.0780 2.396
103.1083 2.396
103.1386 2.448
103.1689 2.760
103.1992 2.708
103.2294 2.083
103.2597 1.562
103.2900 1.510
103.3203 2.083
103.3506 2.135
103.3808 1.875
103.4111 2.187
103.4414 2.083
103.4717 2.500
103.5019 2.760
103.5322 1.927
103.5625 2.187
103.5928 2.500
103.6231 2.760
103.6533 2.552
103.6836 2.865
103.7139 2.969
103.7442 2.604
103.7745 2.812
103.8047 2.812
103.8350 3.385
103.8653 2.969
103.8956 2.604
103.9258 2.917
103.9561 3.854
103.9864 3.333
104.0167 3.646
104.0470 3.437
104.0772 3.437
104.1075 3.229
104.1378 3.906
104.1681 2.917
104.1984 2.865
104.2286 3.073
104.2589 3.125
104.2892 3.490
104.3195 3.281
104.3497 3.490
104.3800 3.177
104.4103 2.865
104.4406 3.229
104.4709 2.917
104.5011 2.135
104.5314 2.448
104.5617 2.552
104.5920 2.656
104.6223 2.656
104.6525 2.396
104.6828 1.667
104.7131 1.979
104.7434 2.500
104.7736 1.719
104.8039 1.771
104.8342 2.083
104.8645 1.875
104.8948 1.719
104.9250 1.667
104.9553 1.615
104.9856 1.927
105.0159 1.771
105.0462 1.927
105.0764 1.094
105.1067 2.187
105.1370 2.031
105.1673 1.667
105.1975 1.615
105.2278 1.406
105.2581 1.198
105.2884 2.187
105.3187 2.292
105.3489 2.187
105.3792 1.771
105.4095 1.302
105.4398 2.292
105.4701 1.771
105.5003 1.979
105.5306 1.250
105.5609 1.146
105.5912 1.562
105.6215 1.719
105.6517 2.135
105.6820 1.667
105.7123 1.406
105.7426 1.510
105.7728 1.562
105.8031 1.510
105.8334 1.354
105.8637 0.781
105.8940 1.406
105.9242 0.937
105.9545 1.927
105.9848 1.771
106.0151 1.615
106.0454 1.354
106.0756 1.823
106.1059 1.615
106.1362 2.031
106.1665 1.823
106.1967 1.302
106.2270 1.458
106.2573 1.146
106.2876 1.042
106.3179 1.615
106.3481 1.771
106.3784 1.510
106.4087 1.615
106.4390 1.615
106.4693 1.510
106.4995 1.458
106.5298 1.406
106.5601 1.562
106.5904 2.240
106.6206 1.667
106.6509 1.146
106.6812 1.667
106.7115 1.250
106.7418 1.354
106.7720 1.302
106.8023 2.031
106.8326 1.302
106.8629 1.250
106.8932 2.031
106.9234 1.406
106.9537 1.146
106.9840 1.510
107.0143 1.719
107.0445 1.510
107.0748 1.458
107.1051 1.823
107.1354 1.354
107.1657 1.458
107.1959 1.823
107.2262 2.083
107.2565 1.458
107.2868 1.927
107.3171 1.927
107.3473 1.094
107.3776 1.406
107.4079 1.719
107.4382 1.458
107.4684 1.458
107.4987 1.927
107.5290 1.458
107.5593 1.875
107.5896 2.083
107.6198 1.250
107.6501 2.292
107.6804 1.823
107.7107 1.250
107.7410 1.719
107.7712 1.771
107.8015 1.302
107.8318 1.250
107.8621 1.667
107.8923 1.510
107.9226 1.562
107.9529 1.406
107.9832 1.250
108.0135 1.198
108.0437 1.927
108.0740 1.719
108.1043 1.458
108.1346 1.406
108.1649 1.667
108.1951 1.510
108.2254 1.146
108.2557 1.823
108.2860 1.510
108.3163 1.406
108.3465 1.510
108.3768 1.510
108.4071 1.719
108.4374 1.979
108.4676 1.615
108.4979 1.615
108.5282 1.302
108.5585 1.510
108.5888 1.250
108.6190 1.094
108.6493 1.250
108.6796 1.875
108.7099 1.927
108.7402 1.250
108.7704 2.448
108.8007 1.875
108.8310 1.458
108.8613 1.302
108.8915 1.823
108.9218 1.562
108.9521 1.719
108.9824 1.771
109.0127 1.510
109.0429 1.562
109.0732 1.510
109.1035 1.198
109.1338 1.250
109.1641 1.198
109.1943 1.198
109.2246 1.771
109.2549 1.927
109.2852 1.771
109.3154 1.927
109.3457 1.250
109.3760 2.135
109.4063 1.562
109.4366 2.187
109.4668 1.302
109.4971 1.667
109.5274 1.927
109.5577 1.406
109.5880 1.354
109.6182 1.146
109.6485 1.458
109.6788 1.927
109.7091 1.510
109.7393 2.187
109.7696 1.979
109.7999 1.510
109.8302 1.562
109.8605 1.615
109.8907 1.979
109.9210 1.927
109.9513 2.031
109.9816 2.604
110.0119 1.979
110.0421 1.927
110.0724 2.604
110.1027 2.240
110.1330 2.240
110.1632 2.292
110.1935 2.344
110.2238 3.073
110.2541 2.135
110.2844 2.292
110.3146 2.292
110.3449 1.615
110.3752 2.656
110.4055 1.927
110.4358 2.396
110.4660 2.135
110.4963 2.812
110.5266 2.604
110.5569 2.240
110.5871 2.083
110.6174 2.187
110.6477 1.562
110.6780 1.615
110.7083 1.979
110.7385 1.875
110.7688 1.771
110.7991 2.396
110.8294 1.927
110.8597 1.979
110.8899 1.875
110.9202 2.552
110.9505 1.198
110.9808 1.354
111.0110 1.771
111.0413 1.823
111.0716 1.615
111.1019 1.979
111.1322 1.458
111.1624 1.927
111.1927 1.667
111.2230 2.135
111.2533 1.562
111.2836 1.667
111.3138 2.240
111.3441 2.135
111.3744 1.198
111.4047 1.927
111.4350 2.187
111.4652 1.458
111.4955 2.083
111.5258 1.042
111.5561 1.250
111.5863 1.354
111.6166 1.302
111.6469 1.302
111.6772 1.354
111.7075 1.510
111.7377 1.406
111.7680 1.771
111.7983 1.510
111.8286 1.927
111.8589 1.823
111.8891 1.667
111.9194 1.458
111.9497 1.510
111.9800 1.458
112.0102 1.823
112.0405 1.615
112.0708 1.771
112.1011 1.719
112.1314 1.615
112.1616 1.615
112.1919 1.927
112.2222 1.354
112.2525 1.458
112.2828 1.823
112.3130 1.250
112.3433 2.187
112.3736 1.771
112.4039 1.510
112.4341 1.562
112.4644 0.885
112.4947 1.458
112.5250 1.510
112.5553 1.510
112.5855 0.781
112.6158 1.354
112.6461 1.510
112.6764 1.510
112.7067 1.302
112.7369 1.771
112.7672 2.187
112.7975 1.458
112.8278 1.667
112.8580 1.406
112.8883 1.771
112.9186 1.406
112.9489 1.562
112.9792 1.667
113.0094 1.562
113.0397 1.875
113.0700 1.719
113.1003 1.615
113.1306 1.875
113.1608 1.719
113.1911 1.302
113.2214 1.823
113.2517 1.510
113.2819 1.042
113.3122 1.979
113.3425 1.354
113.3728 1.615
113.4031 1.354
113.4333 1.510
113.4636 1.771
113.4939 1.406
113.5242 1.458
113.5545 1.562
113.5847 1.510
113.6150 1.302
113.6453 1.510
113.6756 1.562
113.7058 1.615
113.7361 1.615
113.7664 1.406
113.7967 1.510
113.8270 1.771
113.8572 1.354
113.8875 1.771
113.9178 0.990
113.9481 1.302
113.9784 1.562
114.0086 1.302
114.0389 1.615
114.0692 1.719
114.0995 1.719
114.1298 1.458
114.1600 1.823
114.1903 1.458
114.2206 1.458
114.2509 1.667
114.2811 1.510
114.3114 1.354
114.3417 1.146
114.3720 1.667
114.4023 1.875
114.4325 1.615
114.4628 1.562
114.4931 2.031
114.5234 1.406
114.5537 1.562
114.5839 1.458
114.6142 1.771
114.6445 1.667
114.6748 1.927
114.7050 1.615
114.7353 1.875
114.7656 1.250
114.7959 1.458
114.8262 2.083
114.8564 2.135
114.8867 1.510
114.9170 1.302
114.9473 1.615
114.9776 1.510
115.0078 1.667
115.0381 1.146
115.0684 1.875
115.0987 2.135
115.1289 2.396
115.1592 1.875
115.1895 1.823
115.2198 1.771
115.2501 1.875
115.2803 2.031
115.3106 1.562
115.3409 1.979
115.3712 2.083
115.4015 2.396
115.4317 2.344
115.4620 2.031
115.4923 2.396
115.5226 1.771
115.5528 2.292
115.5831 2.240
115.6134 2.240
115.6437 2.396
115.6740 2.135
115.7042 1.979
115.7345 2.187
115.7648 2.396
115.7951 2.917
115.8254 2.656
115.8556 3.385
115.8859 2.865
115.9162 2.656
115.9465 2.552
115.9767 3.177
116.0070 3.437
116.0373 3.333
116.0676 3.854
116.0979 3.281
116.1281 3.802
116.1584 3.437
116.1887 3.698
116.2190 4.323
116.2493 3.542
116.2795 3.490
116.3098 4.115
116.3401 3.958
116.3704 4.115
116.4006 2.969
116.4309 2.969
116.4612 3.125
116.4915 3.594
116.5218 3.281
116.5520 2.812
116.5823 3.750
116.6126 2.656
116.6429 3.021
116.6732 3.281
116.7034 3.125
116.7337 3.229
116.7640 2.344
116.7943 2.448
116.8245 2.969
116.8548 2.187
116.8851 1.771
116.9154 2.969
116.9457 2.812
116.9759 1.823
117.0062 2.344
117.0365 2.604
117.0668 2.292
117.0971 2.604
117.1273 2.344
117.1576 1.615
117.1879 1.458
117.2182 2.187
117.2485 2.031
117.2787 1.719
117.3090 2.031
117.3393 1.979
117.3696 2.865
117.3998 1.875
117.4301 1.771
117.4604 1.667
117.4907 2.031
117.5210 1.719
117.5512 1.927
117.5815 1.771
117.6118 2.083
117.6421 1.615
117.6724 1.458
117.7026 1.250
117.7329 1.250
117.7632 1.719
117.7935 2.396
117.8237 1.406
117.8540 2.083
117.8843 2.344
117.9146 1.719
117.9449 2.187
117.9751 1.927
118.0054 1.354
118.0357 1.615
118.0660 1.510
118.0963 1.927
118.1265 1.250
118.1568 1.719
118.1871 1.615
118.2174 1.562
118.2476 1.771
118.2779 1.146
118.3082 1.667
118.3385 1.510
118.3688 1.979
118.3990 1.458
118.4293 1.458
118.4596 2.135
118.4899 1.302
118.5202 1.406
118.5504 1.615
118.5807 1.406
118.6110 1.094
118.6413 1.302
118.6715 1.615
118.7018 1.875
118.7321 1.198
118.7624 1.927
118.7927 1.198
118.8229 0.885
118.8532 1.823
118.8835 1.719
118.9138 1.302
118.9441 1.771
118.9743 1.354
119.0046 1.562
119.0349 1.458
119.0652 2.031
119.0954 1.302
119.1257 1.302
119.1560 0.781
119.1863 1.771
119.2166 1.406
119.2468 1.771
119.2771 1.510
119.3074 1.406
119.3377 1.823
119.3680 1.354
119.3982 1.250
119.4285 1.250
119.4588 1.354
119.4891 1.771
119.5193 2.135
119.5496 1.823
119.5799 1.615
119.6102 1.510
119.6405 1.406
119.6707 1.406
119.7010 1.354
119.7313 1.667
119.7616 1.094
119.7919 1.615
119.8221 1.667
119.8524 1.302
119.8827 1.406
119.9130 1.406
119.9433 1.354
119.9735 1.719
120.0038 1.354
