'Id: "" Comment: "" Operator: "Lab Manager" Anode: "Cu" Scantype: "Locked Coupled" TimePerStep: "19.2" X: "9999" Y: "9999" Z: "9999" 
10.0015 4.635
10.0318 4.167
10.0620 3.854
10.0923 3.490
10.1226 3.385
10.1529 4.479
10.1832 4.531
10.2134 4.896
10.2437 3.750
10.2740 3.750
10.3043 4.010
10.3346 3.802
10.3648 3.385
10.3951 3.698
10.4254 4.167
10.4557 4.062
10.4859 4.531
10.5162 4.583
10.5465 3.906
10.5768 4.323
10.6071 3.698
10.6373 4.687
10.6676 3.594
10.6979 4.115
10.7282 4.583
10.7585 4.271
10.7887 4.323
10.8190 4.271
10.8493 5.573
10.8796 5.104
10.9098 4.896
10.9401 5.833
10.9704 6.302
11.0007 9.062
11.0310 9.323
11.0612 10.990
11.0915 10.052
11.1218 9.062
11.1521 8.333
11.1824 6.771
11.2126 5.625
11.2429 6.667
11.2732 4.375
11.3035 3.906
11.3337 4.323
11.3640 4.948
11.3943 5.260
11.4246 4.375
11.4549 4.583
11.4851 3.125
11.5154 3.906
11.5457 4.323
11.5760 4.479
11.6063 3.958
11.6365 3.958
11.6668 4.635
11.6971 4.271
11.7274 4.219
11.7577 2.969
11.7879 3.125
11.8182 4.219
11.8485 3.542
11.8788 3.385
11.9090 3.490
11.9393 3.854
11.9696 2.969
11.9999 3.542
12.0302 3.125
12.0604 4.062
12.0907 4.219
12.1210 3.594
12.1513 3.750
12.1816 3.750
12.2118 2.656
12.2421 4.167
12.2724 2.187
12.3027 3.229
12.3329 3.594
12.3632 3.125
12.3935 3.333
12.4238 3.437
12.4541 3.490
12.4843 3.177
12.5146 3.802
12.5449 2.500
12.5752 3.750
12.6055 3.177
12.6357 3.333
12.6660 2.760
12.6963 3.854
12.7266 2.552
12.7568 3.177
12.7871 3.385
12.8174 4.115
12.8477 2.865
12.8780 3.073
12.9082 3.333
12.9385 3.073
12.9688 3.281
12.9991 2.812
13.0294 3.594
13.0596 2.917
13.0899 3.021
13.1202 3.437
13.1505 2.396
13.1807 3.906
13.2110 3.490
13.2413 2.865
13.2716 2.917
13.3019 2.552
13.3321 3.073
13.3624 2.708
13.3927 3.385
13.4230 3.437
13.4533 4.062
13.4835 3.125
13.5138 4.115
13.5441 2.760
13.5744 2.969
13.6046 2.708
13.6349 3.333
13.6652 3.854
13.6955 2.812
13.7258 3.177
13.7560 2.917
13.7863 3.750
13.8166 2.187
13.8469 3.177
13.8772 3.177
13.9074 3.385
13.9377 2.500
13.9680 3.594
13.9983 2.865
14.0285 2.344
14.0588 3.229
14.0891 2.917
14.1194 3.281
14.1497 2.969
14.1799 2.500
14.2102 3.281
14.2405 2.969
14.2708 3.437
14.3011 3.125
14.3313 2.656
14.3616 3.281
14.3919 2.917
14.4222 2.969
14.4524 3.281
14.4827 2.812
14.5130 3.021
14.5433 2.865
14.5736 3.542
14.6038 2.760
14.6341 2.344
14.6644 2.917
14.6947 2.969
14.7250 2.187
14.7552 2.760
14.7855 3.073
14.8158 2.969
14.8461 3.281
14.8764 2.917
14.9066 2.865
14.9369 3.021
14.9672 2.552
14.9975 2.812
15.0277 3.125
15.0580 2.656
15.0883 3.177
15.1186 3.333
15.1489 2.604
15.1791 3.437
15.2094 3.073
15.2397 2.552
15.2700 3.281
15.3003 3.229
15.3305 3.698
15.3608 2.708
15.3911 3.490
15.4214 2.292
15.4516 2.708
15.4819 3.021
15.5122 3.281
15.5425 2.760
15.5728 3.229
15.6030 3.437
15.6333 2.292
15.6636 3.125
15.6939 3.437
15.7242 3.125
15.7544 2.500
15.7847 3.594
15.8150 2.708
15.8453 2.292
15.8755 3.594
15.9058 3.125
15.9361 2.656
15.9664 2.500
15.9967 3.333
16.0269 3.177
16.0572 3.177
16.0875 3.125
16.1178 3.177
16.1481 3.073
16.1783 2.656
16.2086 2.865
16.2389 3.229
16.2692 2.552
16.2994 3.854
16.3297 3.229
16.3600 3.125
16.3903 2.448
16.4206 2.500
16.4508 3.229
16.4811 3.750
16.5114 2.969
16.5417 2.917
16.5720 2.969
16.6022 3.073
16.6325 3.177
16.6628 1.875
16.6931 2.865
16.7233 3.281
16.7536 3.385
16.7839 2.552
16.8142 2.708
16.8445 2.865
16.8747 2.865
16.9050 2.812
16.9353 2.083
16.9656 3.542
16.9959 2.760
17.0261 2.292
17.0564 3.542
17.0867 2.865
17.1170 3.437
17.1472 2.656
17.1775 3.125
17.2078 2.917
17.2381 3.281
17.2684 3.073
17.2986 2.969
17.3289 2.760
17.3592 2.865
17.3895 1.562
17.4198 1.979
17.4500 2.865
17.4803 3.594
17.5106 2.135
17.5409 2.760
17.5712 2.865
17.6014 2.500
17.6317 2.760
17.6620 2.917
17.6923 2.448
17.7225 2.448
17.7528 2.917
17.7831 2.760
17.8134 3.177
17.8437 2.917
17.8739 3.073
17.9042 2.812
17.9345 3.385
17.9648 1.979
17.9951 2.760
18.0253 2.448
18.0556 2.552
18.0859 2.917
18.1162 3.073
18.1464 2.604
18.1767 1.823
18.2070 2.865
18.2373 2.135
18.2676 3.021
18.2978 2.344
18.3281 2.760
18.3584 3.021
18.3887 3.021
18.4190 2.760
18.4492 2.917
18.4795 3.333
18.5098 2.656
18.5401 3.177
18.5703 3.229
18.6006 4.167
18.6309 2.500
18.6612 2.396
18.6915 2.865
18.7217 2.812
18.7520 2.812
18.7823 1.771
18.8126 3.437
18.8429 2.396
18.8731 2.552
18.9034 2.604
18.9337 3.281
18.9640 2.760
18.9942 2.552
19.0245 2.344
19.0548 2.500
19.0851 3.229
19.1154 3.281
19.1456 2.969
19.1759 2.760
19.2062 2.396
19.2365 2.708
19.2668 3.073
19.2970 2.812
19.3273 2.812
19.3576 3.073
19.3879 2.604
19.4181 1.823
19.4484 2.344
19.4787 3.281
19.5090 2.396
19.5393 2.656
19.5695 2.865
19.5998 3.073
19.6301 2.760
19.6604 2.187
19.6907 2.760
19.7209 3.125
19.7512 2.292
19.7815 2.240
19.8118 2.969
19.8420 2.656
19.8723 2.708
19.9026 2.448
19.9329 3.177
19.9632 2.865
19.9934 2.969
20.0237 2.760
20.0540 2.031
20.0843 2.656
20.1146 2.812
20.1448 2.135
20.1751 2.760
20.2054 2.396
20.2357 2.917
20.2659 3.021
20.2962 2.500
20.3265 2.396
20.3568 1.458
20.3871 2.917
20.4173 2.187
20.4476 2.969
20.4779 2.135
20.5082 2.396
20.5385 1.875
20.5687 2.969
20.5990 2.292
20.6293 1.979
20.6596 2.656
20.6899 2.135
20.7201 3.333
20.7504 3.333
20.7807 2.500
20.8110 2.031
20.8412 2.344
20.8715 2.708
20.9018 2.344
20.9321 2.552
20.9624 2.344
20.9926 2.604
21.0229 2.083
21.0532 2.135
21.0835 2.865
21.1138 2.396
21.1440 2.083
21.1743 2.656
21.2046 2.865
21.2349 3.490
21.2651 2.917
21.2954 2.135
21.3257 2.969
21.3560 3.385
21.3863 2.031
21.4165 2.135
21.4468 2.604
21.4771 2.604
21.5074 3.333
21.5377 2.917
21.5679 2.500
21.5982 2.240
21.6285 1.927
21.6588 2.448
21.6890 2.656
21.7193 2.656
21.7496 2.448
21.7799 2.969
21.8102 2.812
21.8404 3.177
21.8707 2.656
21.9010 2.344
21.9313 2.552
21.9616 3.958
21.9918 3.021
22.0221 1.979
22.0524 2.448
22.0827 2.708
22.1129 2.135
22.1432 2.396
22.1735 3.073
22.2038 2.552
22.2341 2.812
22.2643 2.552
22.2946 2.500
22.3249 2.604
22.3552 2.292
22.3855 2.917
22.4157 2.292
22.4460 2.396
22.4763 2.031
22.5066 2.656
22.5368 2.500
22.5671 2.396
22.5974 2.552
22.6277 2.656
22.6580 2.917
22.6882 2.604
22.7185 2.344
22.7488 2.708
22.7791 2.552
22.8094 2.865
22.8396 2.448
22.8699 2.240
22.9002 2.292
22.9305 2.292
22.9607 2.292
22.9910 2.760
23.0213 2.760
23.0516 2.552
23.0819 2.031
23.1121 2.760
23.1424 3.073
23.1727 2.760
23.2030 2.604
23.2333 2.865
23.2635 1.979
23.2938 2.135
23.3241 2.604
23.3544 2.187
23.3846 2.708
23.4149 3.437
23.4452 2.344
23.4755 2.656
23.5058 2.760
23.5360 2.344
23.5663 2.656
23.5966 2.708
23.6269 2.240
23.6572 2.396
23.6874 2.240
23.7177 2.969
23.7480 1.875
23.7783 2.604
23.8086 2.292
23.8388 2.656
23.8691 2.604
23.8994 2.083
23.9297 2.240
23.9599 2.812
23.9902 2.187
24.0205 2.396
24.0508 2.344
24.0811 2.708
24.1113 2.865
24.1416 2.656
24.1719 3.281
24.2022 1.979
24.2325 1.771
24.2627 2.969
24.2930 2.344
24.3233 2.604
24.3536 2.604
24.3838 2.552
24.4141 2.396
24.4444 3.281
24.4747 2.708
24.5050 3.281
24.5352 2.865
24.5655 2.917
24.5958 2.344
24.6261 2.760
24.6564 2.500
24.6866 2.552
24.7169 3.021
24.7472 2.292
24.7775 2.656
24.8077 2.135
24.8380 2.865
24.8683 2.396
24.8986 2.656
24.9289 2.656
24.9591 2.917
24.9894 2.604
25.0197 2.031
25.0500 2.604
25.0803 1.979
25.1105 2.135
25.1408 3.021
25.1711 2.552
25.2014 2.760
25.2316 2.865
25.2619 2.865
25.2922 2.135
25.3225 2.656
25.3528 2.240
25.3830 2.656
25.4133 2.448
25.4436 2.656
25.4739 2.656
25.5042 1.667
25.5344 2.083
25.5647 2.812
25.5950 2.760
25.6253 2.604
25.6555 3.125
25.6858 2.656
25.7161 2.604
25.7464 3.229
25.7767 2.917
25.8069 2.135
25.8372 2.969
25.8675 2.500
25.8978 1.927
25.9281 2.135
25.9583 1.979
25.9886 2.448
26.0189 2.969
26.0492 1.927
26.0794 2.917
26.1097 2.396
26.1400 2.344
26.1703 2.500
26.2006 3.281
26.2308 2.292
26.2611 2.135
26.2914 1.615
26.3217 3.021
26.3520 3.385
26.3822 2.083
26.4125 2.187
26.4428 2.396
26.4731 2.656
26.5034 2.344
26.5336 3.229
26.5639 2.344
26.5942 2.656
26.6245 2.292
26.6547 2.448
26.6850 2.760
26.7153 2.500
26.7456 2.552
26.7759 2.448
26.8061 2.344
26.8364 2.344
26.8667 2.917
26.8970 2.812
26.9273 2.292
26.9575 2.760
26.9878 3.073
27.0181 3.021
27.0484 3.229
27.0786 2.865
27.1089 2.500
27.1392 2.604
27.1695 2.969
27.1998 2.760
27.2300 3.021
27.2603 3.125
27.2906 2.031
27.3209 3.073
27.3512 2.917
27.3814 2.969
27.4117 2.760
27.4420 3.333
27.4723 3.333
27.5025 2.865
27.5328 2.448
27.5631 3.073
27.5934 3.177
27.6237 2.552
27.6539 3.437
27.6842 3.229
27.7145 3.177
27.7448 3.125
27.7751 2.812
27.8053 3.229
27.8356 2.656
27.8659 3.073
27.8962 3.229
27.9264 3.021
27.9567 3.333
27.9870 3.021
28.0173 2.708
28.0476 3.125
28.0778 3.385
28.1081 3.229
28.1384 3.490
28.1687 2.812
28.1990 3.229
28.2292 3.229
28.2595 2.917
28.2898 3.021
28.3201 3.177
28.3503 2.604
28.3806 2.812
28.4109 3.125
28.4412 3.177
28.4715 4.375
28.5017 3.021
28.5320 2.656
28.5623 3.490
28.5926 2.656
28.6229 3.333
28.6531 3.073
28.6834 3.594
28.7137 3.021
28.7440 2.604
28.7742 3.490
28.8045 2.865
28.8348 4.219
28.8651 3.750
28.8954 3.490
28.9256 2.917
28.9559 3.750
28.9862 3.802
29.0165 3.333
29.0468 3.437
29.0770 3.542
29.1073 2.708
29.1376 2.344
29.1679 3.177
29.1981 4.219
29.2284 3.490
29.2587 3.229
29.2890 2.917
29.3193 3.490
29.3495 3.333
29.3798 3.646
29.4101 3.021
29.4404 3.958
29.4707 3.437
29.5009 2.917
29.5312 3.594
29.5615 3.437
29.5918 4.219
29.6221 3.750
29.6523 3.437
29.6826 4.687
29.7129 3.437
29.7432 4.323
29.7734 4.115
29.8037 3.802
29.8340 4.583
29.8643 4.062
29.8946 4.896
29.9248 4.427
29.9551 3.958
29.9854 4.427
30.0157 3.854
30.0460 5.677
30.0762 4.844
30.1065 4.740
30.1368 4.844
30.1671 5.156
30.1973 4.531
30.2276 4.583
30.2579 4.427
30.2882 4.844
30.3185 5.260
30.3487 4.323
30.3790 4.792
30.4093 4.531
30.4396 6.458
30.4699 5.781
30.5001 6.094
30.5304 5.677
30.5607 6.146
30.5910 6.094
30.6212 5.729
30.6515 6.615
30.6818 6.042
30.7121 7.083
30.7424 6.667
30.7726 6.719
30.8029 7.865
30.8332 7.604
30.8635 7.448
30.8938 6.667
30.9240 8.073
30.9543 8.333
30.9846 7.865
31.0149 9.062
31.0451 11.250
31.0754 11.510
31.1057 11.406
31.1360 14.844
31.1663 13.646
31.1965 15.469
31.2268 15.885
31.2571 16.823
31.2874 18.490
31.3177 19.896
31.3479 23.385
31.3782 25.885
31.4085 27.135
31.4388 29.687
31.4690 31.875
31.4993 36.458
31.5296 39.115
31.5599 44.375
31.5902 43.021
31.6204 49.427
31.6507 48.906
31.6810 44.167
31.7113 42.292
31.7416 42.292
31.7718 37.187
31.8021 33.385
31.8324 29.635
31.8627 28.437
31.8929 27.187
31.9232 21.250
31.9535 20.625
31.9838 17.969
32.0141 17.917
32.0443 14.219
32.0746 12.917
32.1049 13.177
32.1352 13.125
32.1655 11.927
32.1957 11.979
32.2260 10.417
32.2563 10.052
32.2866 9.375
32.3169 9.844
32.3471 7.865
32.3774 7.448
32.4077 7.656
32.4380 6.979
32.4682 6.406
32.4985 6.875
32.5288 6.562
32.5591 7.969
32.5894 6.667
32.6196 6.927
32.6499 6.875
32.6802 6.406
32.7105 6.615
32.7408 5.052
32.7710 6.406
32.8013 5.417
32.8316 4.896
32.8619 5.990
32.8921 5.781
32.9224 6.198
32.9527 5.260
32.9830 6.354
33.0133 5.990
33.0435 5.469
33.0738 5.677
33.1041 5.781
33.1344 5.677
33.1647 6.198
33.1949 5.573
33.2252 5.417
33.2555 5.312
33.2858 5.521
33.3160 4.948
33.3463 5.469
33.3766 5.260
33.4069 6.250
33.4372 6.510
33.4674 7.552
33.4977 5.052
33.5280 6.146
33.5583 6.406
33.5886 6.875
33.6188 7.135
33.6491 5.990
33.6794 7.135
33.7097 7.812
33.7399 7.031
33.7702 7.135
33.8005 7.656
33.8308 8.281
33.8611 10.260
33.8913 11.198
33.9216 11.250
33.9519 12.865
33.9822 12.083
34.0125 15.937
34.0427 17.031
34.0730 16.719
34.1033 18.906
34.1336 25.365
34.1638 29.010
34.1941 36.354
34.2244 43.177
34.2547 50.990
34.2850 56.927
34.3152 58.437
34.3455 52.865
34.3758 47.292
34.4061 40.885
34.4364 32.969
34.4666 27.187
34.4969 23.906
34.5272 19.687
34.5575 15.521
34.5877 16.354
34.6180 14.010
34.6483 12.552
34.6786 13.646
34.7089 11.875
34.7391 12.448
34.7694 9.219
34.7997 12.135
34.8300 8.437
34.8603 9.219
34.8905 8.958
34.9208 9.531
34.9511 8.490
34.9814 8.281
35.0116 8.333
35.0419 8.646
35.0722 10.156
35.1025 10.729
35.1328 10.104
35.1630 8.750
35.1933 9.167
35.2236 11.198
35.2539 9.323
35.2842 9.479
35.3144 10.625
35.3447 10.260
35.3750 11.354
35.4053 10.573
35.4356 13.281
35.4658 13.437
35.4961 13.802
35.5264 15.156
35.5567 14.844
35.5869 15.365
35.6172 17.656
35.6475 18.750
35.6778 19.062
35.7081 21.667
35.7383 24.740
35.7686 23.750
35.7989 25.052
35.8292 31.771
35.8595 30.573
35.8897 35.781
35.9200 42.500
35.9503 43.802
35.9806 50.990
36.0108 55.625
36.0411 61.823
36.0714 65.052
36.1017 70.833
36.1320 64.844
36.1622 71.823
36.1925 62.083
36.2228 63.542
36.2531 55.312
36.2834 51.562
36.3136 45.781
36.3439 43.854
36.3742 38.021
36.4045 34.375
36.4347 29.271
36.4650 26.667
36.4953 25.312
36.5256 22.187
36.5559 20.677
36.5861 17.708
36.6164 18.490
36.6467 15.417
36.6770 14.167
36.7073 12.292
36.7375 14.115
36.7678 11.615
36.7981 11.042
36.8284 10.156
36.8586 8.542
36.8889 10.156
36.9192 8.594
36.9495 8.542
36.9798 8.177
37.0100 6.823
37.0403 6.771
37.0706 7.917
37.1009 6.979
37.1312 6.302
37.1614 6.042
37.1917 7.448
37.2220 6.667
37.2523 5.729
37.2825 6.510
37.3128 6.198
37.3431 5.573
37.3734 5.469
37.4037 4.635
37.4339 4.010
37.4642 5.365
37.4945 4.687
37.5248 5.312
37.5551 4.062
37.5853 3.958
37.6156 4.427
37.6459 5.729
37.6762 3.854
37.7064 3.594
37.7367 4.948
37.7670 4.062
37.7973 5.052
37.8276 4.115
37.8578 4.167
37.8881 3.698
37.9184 3.906
37.9487 2.865
37.9790 3.854
38.0092 3.750
38.0395 3.594
38.0698 3.385
38.1001 4.115
38.1304 3.073
38.1606 3.802
38.1909 3.073
38.2212 3.490
38.2515 3.021
38.2817 2.969
38.3120 3.281
38.3423 3.906
38.3726 3.385
38.4029 2.344
38.4331 3.229
38.4634 2.760
38.4937 2.969
38.5240 3.385
38.5543 3.385
38.5845 3.333
38.6148 3.385
38.6451 2.448
38.6754 2.865
38.7056 3.542
38.7359 2.552
38.7662 2.135
38.7965 2.865
38.8268 3.229
38.8570 2.396
38.8873 2.552
38.9176 2.552
38.9479 2.656
38.9782 2.240
39.0084 2.708
39.0387 2.083
39.0690 2.187
39.0993 2.500
39.1295 2.292
39.1598 1.927
39.1901 2.865
39.2204 2.500
39.2507 2.656
39.2809 3.229
39.3112 2.500
39.3415 2.031
39.3718 2.500
39.4021 2.604
39.4323 2.500
39.4626 2.865
39.4929 2.812
39.5232 1.979
39.5534 2.708
39.5837 2.604
39.6140 1.823
39.6443 2.187
39.6746 2.656
39.7048 2.812
39.7351 2.500
39.7654 2.396
39.7957 2.448
39.8260 2.396
39.8562 2.187
39.8865 1.875
39.9168 2.135
39.9471 2.396
39.9773 1.823
40.0076 2.500
40.0379 2.083
40.0682 2.240
40.0985 1.510
40.1287 2.500
40.1590 1.875
40.1893 2.083
40.2196 2.760
40.2499 2.448
40.2801 1.354
40.3104 1.979
40.3407 1.198
40.3710 1.875
40.4012 2.344
40.4315 2.448
40.4618 2.552
40.4921 1.771
40.5224 2.031
40.5526 2.031
40.5829 2.656
40.6132 2.187
40.6435 1.979
40.6738 1.927
40.7040 1.927
40.7343 2.135
40.7646 2.448
40.7949 3.021
40.8251 1.771
40.8554 2.500
40.8857 1.979
40.9160 2.240
40.9463 1.875
40.9765 2.292
41.0068 1.771
41.0371 2.292
41.0674 2.396
41.0977 1.979
41.1279 2.396
41.1582 1.927
41.1885 2.031
41.2188 2.135
41.2491 1.719
41.2793 2.500
41.3096 1.823
41.3399 1.250
41.3702 2.344
41.4004 2.292
41.4307 1.302
41.4610 2.031
41.4913 2.292
41.5216 2.240
41.5518 1.823
41.5821 2.031
41.6124 1.979
41.6427 1.771
41.6730 2.187
41.7032 1.927
41.7335 2.292
41.7638 1.719
41.7941 1.771
41.8243 2.083
41.8546 2.500
41.8849 1.615
41.9152 2.083
41.9455 1.927
41.9757 2.031
42.0060 2.187
42.0363 1.823
42.0666 1.823
42.0969 1.771
42.1271 2.552
42.1574 2.135
42.1877 2.031
42.2180 2.552
42.2482 1.979
42.2785 1.510
42.3088 2.083
42.3391 1.927
42.3694 1.771
42.3996 2.135
42.4299 2.083
42.4602 1.979
42.4905 2.135
42.5208 1.979
42.5510 1.979
42.5813 2.344
42.6116 1.927
42.6419 1.615
42.6721 1.146
42.7024 2.552
42.7327 1.823
42.7630 2.292
42.7933 2.708
42.8235 1.719
42.8538 1.562
42.8841 2.083
42.9144 1.823
42.9447 2.031
42.9749 1.667
43.0052 1.979
43.0355 2.604
43.0658 1.875
43.0960 2.083
43.1263 2.240
43.1566 1.562
43.1869 2.135
43.2172 1.615
43.2474 2.344
43.2777 1.823
43.3080 2.604
43.3383 1.562
43.3686 2.031
43.3988 1.927
43.4291 2.083
43.4594 1.823
43.4897 1.667
43.5199 2.083
43.5502 2.031
43.5805 2.760
43.6108 1.667
43.6411 2.031
43.6713 1.823
43.7016 1.510
43.7319 1.979
43.7622 2.135
43.7925 1.667
43.8227 1.510
43.8530 1.615
43.8833 2.083
43.9136 1.823
43.9439 1.615
43.9741 2.031
44.0044 2.396
44.0347 1.198
44.0650 2.344
44.0952 1.927
44.1255 1.562
44.1558 2.240
44.1861 2.240
44.2164 2.500
44.2466 2.552
44.2769 1.562
44.3072 2.187
44.3375 1.823
44.3678 2.031
44.3980 1.875
44.4283 2.187
44.4586 1.615
44.4889 2.135
44.5191 2.500
44.5494 1.562
44.5797 2.292
44.6100 2.135
44.6403 1.719
44.6705 1.875
44.7008 3.177
44.7311 2.031
44.7614 1.719
44.7917 2.135
44.8219 2.396
44.8522 1.927
44.8825 2.292
44.9128 2.344
44.9430 1.927
44.9733 1.771
45.0036 2.448
45.0339 2.031
45.0642 2.552
45.0944 1.875
45.1247 2.240
45.1550 2.240
45.1853 2.187
45.2156 2.031
45.2458 1.979
45.2761 2.187
45.3064 2.708
45.3367 2.083
45.3669 2.344
45.3972 2.083
45.4275 1.979
45.4578 1.875
45.4881 1.979
45.5183 2.031
45.5486 2.552
45.5789 1.615
45.6092 1.875
45.6395 2.187
45.6697 1.875
45.7000 2.604
45.7303 2.292
45.7606 2.552
45.7908 2.969
45.8211 2.604
45.8514 2.656
45.8817 2.396
45.9120 2.917
45.9422 2.031
45.9725 2.344
46.0028 2.292
46.0331 2.396
46.0634 2.708
46.0936 1.927
46.1239 2.448
46.1542 2.604
46.1845 2.396
46.2147 2.812
46.2450 2.135
46.2753 2.760
46.3056 2.396
46.3359 2.708
46.3661 2.656
46.3964 3.073
46.4267 2.812
46.4570 3.021
46.4873 2.396
46.5175 2.240
46.5478 3.021
46.5781 3.073
46.6084 3.021
46.6386 3.281
46.6689 3.281
46.6992 3.125
46.7295 3.437
46.7598 3.698
46.7900 3.437
46.8203 3.802
46.8506 3.437
46.8809 3.646
46.9112 4.583
46.9414 4.687
46.9717 4.479
47.0020 6.458
47.0323 6.771
47.0626 6.094
47.0928 7.969
47.1231 7.917
47.1534 8.385
47.1837 9.062
47.2139 9.635
47.2442 9.948
47.2745 12.292
47.3048 12.708
47.3351 13.281
47.3653 14.583
47.3956 14.583
47.4259 13.906
47.4562 14.792
47.4865 14.427
47.5167 13.385
47.5470 12.969
47.5773 12.135
47.6076 10.833
47.6378 11.979
47.6681 10.000
47.6984 8.958
47.7287 7.865
47.7590 7.083
47.7892 5.885
47.8195 6.094
47.8498 6.042
47.8801 5.521
47.9104 5.573
47.9406 4.062
47.9709 4.375
48.0012 4.167
48.0315 3.750
48.0617 3.177
48.0920 3.698
48.1223 4.010
48.1526 2.969
48.1829 3.281
48.2131 3.542
48.2434 2.760
48.2737 3.333
48.3040 3.646
48.3343 2.917
48.3645 3.437
48.3948 3.437
48.4251 2.604
48.4554 2.656
48.4856 3.437
48.5159 2.708
48.5462 3.385
48.5765 2.760
48.6068 2.292
48.6370 2.292
48.6673 2.500
48.6976 2.760
48.7279 3.073
48.7582 1.771
48.7884 2.031
48.8187 2.135
48.8490 2.292
48.8793 2.656
48.9095 2.187
48.9398 1.719
48.9701 1.771
49.0004 1.823
49.0307 1.562
49.0609 2.344
49.0912 2.083
49.1215 2.500
49.1518 2.500
49.1821 2.135
49.2123 1.979
49.2426 1.927
49.2729 2.292
49.3032 2.083
49.3334 2.500
49.3637 2.344
49.3940 1.927
49.4243 2.292
49.4546 2.292
49.4848 2.031
49.5151 1.667
49.5454 2.031
49.5757 1.771
49.6060 1.771
49.6362 1.927
49.6665 1.615
49.6968 2.448
49.7271 1.354
49.7574 2.031
49.7876 2.083
49.8179 2.552
49.8482 2.187
49.8785 1.979
49.9087 2.135
49.9390 2.031
49.9693 2.083
49.9996 2.135
50.0299 1.354
50.0601 2.292
50.0904 2.292
50.1207 1.771
50.1510 1.823
50.1813 1.406
50.2115 2.500
50.2418 2.292
50.2721 1.823
50.3024 1.875
50.3326 2.083
50.3629 1.615
50.3932 1.823
50.4235 2.083
50.4538 2.917
50.4840 1.875
50.5143 2.187
50.5446 2.396
50.5749 1.823
50.6052 2.240
50.6354 1.458
50.6657 1.667
50.6960 2.135
50.7263 1.615
50.7565 1.667
50.7868 1.771
50.8171 2.135
50.8474 1.771
50.8777 1.927
50.9079 1.979
50.9382 1.979
50.9685 2.292
50.9988 2.135
51.0291 2.135
51.0593 2.292
51.0896 1.198
51.1199 1.875
51.1502 1.979
51.1804 1.927
51.2107 2.135
51.2410 1.354
51.2713 1.979
51.3016 2.031
51.3318 1.771
51.3621 2.083
51.3924 1.927
51.4227 1.667
51.4530 1.458
51.4832 2.448
51.5135 1.979
51.5438 2.135
51.5741 1.510
51.6043 2.552
51.6346 1.771
51.6649 2.083
51.6952 1.667
51.7255 1.719
51.7557 1.875
51.7860 1.615
51.8163 1.771
51.8466 1.510
51.8769 2.500
51.9071 1.771
51.9374 2.083
51.9677 1.771
51.9980 2.083
52.0282 2.292
52.0585 2.187
52.0888 1.719
52.1191 1.771
52.1494 1.771
52.1796 1.927
52.2099 1.823
52.2402 1.510
52.2705 1.406
52.3008 2.031
52.3310 1.510
52.3613 2.083
52.3916 2.083
52.4219 2.500
52.4521 1.875
52.4824 1.510
52.5127 1.771
52.5430 2.135
52.5733 1.823
52.6035 2.083
52.6338 1.771
52.6641 1.875
52.6944 2.083
52.7247 2.396
52.7549 2.448
52.7852 1.875
52.8155 1.615
52.8458 1.354
52.8761 2.240
52.9063 1.562
52.9366 1.979
52.9669 1.615
52.9972 2.344
53.0274 1.615
53.0577 1.979
53.0880 2.031
53.1183 1.510
53.1486 1.771
53.1788 1.719
53.2091 2.083
53.2394 1.875
53.2697 2.344
53.3000 1.771
53.3302 2.500
53.3605 2.292
53.3908 1.719
53.4211 1.823
53.4513 1.979
53.4816 1.979
53.5119 2.031
53.5422 1.979
53.5725 2.396
53.6027 1.823
53.6330 1.510
53.6633 1.562
53.6936 2.135
53.7239 1.719
53.7541 2.240
53.7844 2.656
53.8147 2.552
53.8450 1.927
53.8752 2.083
53.9055 2.135
53.9358 2.656
53.9661 1.615
53.9964 2.135
54.0266 2.292
54.0569 2.396
54.0872 1.979
54.1175 1.875
54.1478 1.771
54.1780 1.667
54.2083 2.187
54.2386 1.875
54.2689 1.823
54.2991 2.083
54.3294 2.187
54.3597 2.031
54.3900 2.500
54.4203 2.135
54.4505 2.031
54.4808 2.083
54.5111 2.396
54.5414 2.344
54.5717 2.448
54.6019 1.719
54.6322 2.656
54.6625 2.448
54.6928 2.396
54.7230 2.031
54.7533 2.448
54.7836 2.292
54.8139 1.979
54.8442 2.812
54.8744 3.437
54.9047 2.917
54.9350 3.021
54.9653 2.448
54.9956 2.656
55.0258 2.135
55.0561 2.656
55.0864 2.604
55.1167 2.604
55.1469 2.812
55.1772 2.552
55.2075 2.344
55.2378 2.865
55.2681 3.958
55.2983 2.396
55.3286 2.865
55.3589 3.125
55.3892 3.281
55.4195 3.177
55.4497 3.437
55.4800 3.021
55.5103 3.177
55.5406 4.062
55.5709 3.750
55.6011 3.125
55.6314 4.167
55.6617 3.802
55.6920 4.167
55.7222 3.646
55.7525 3.698
55.7828 5.312
55.8131 5.208
55.8434 5.104
55.8736 4.635
55.9039 5.052
55.9342 5.833
55.9645 6.250
55.9948 5.937
56.0250 7.187
56.0553 7.552
56.0856 6.406
56.1159 8.906
56.1461 8.906
56.1764 10.260
56.2067 9.583
56.2370 11.823
56.2673 12.448
56.2975 12.760
56.3278 15.833
56.3581 17.865
56.3884 17.917
56.4187 19.583
56.4489 16.458
56.4792 18.698
56.5095 19.583
56.5398 16.615
56.5700 15.729
56.6003 16.094
56.6306 14.479
56.6609 14.896
56.6912 11.771
56.7214 11.562
56.7517 11.719
56.7820 9.740
56.8123 9.896
56.8426 8.333
56.8728 6.927
56.9031 7.187
56.9334 7.604
56.9637 6.146
56.9939 5.937
57.0242 5.677
57.0545 4.948
57.0848 5.312
57.1151 4.010
57.1453 3.906
57.1756 4.531
57.2059 4.010
57.2362 4.010
57.2665 3.594
57.2967 3.490
57.3270 4.062
57.3573 4.219
57.3876 3.542
57.4178 3.958
57.4481 3.490
57.4784 3.958
57.5087 3.333
57.5390 3.333
57.5692 3.125
57.5995 3.333
57.6298 3.125
57.6601 2.917
57.6904 2.917
57.7206 2.292
57.7509 2.448
57.7812 3.229
57.8115 2.604
57.8417 2.865
57.8720 2.187
57.9023 2.292
57.9326 1.979
57.9629 2.187
57.9931 2.083
58.0234 2.448
58.0537 1.823
58.0840 2.708
58.1143 1.875
58.1445 1.875
58.1748 2.812
58.2051 2.448
58.2354 1.927
58.2656 2.865
58.2959 2.760
58.3262 2.760
58.3565 2.760
58.3868 2.552
58.4170 2.604
58.4473 2.604
58.4776 2.396
58.5079 2.396
58.5382 2.396
58.5684 1.979
58.5987 1.875
58.6290 2.500
58.6593 2.187
58.6896 2.083
58.7198 1.875
58.7501 2.396
58.7804 2.500
58.8107 2.031
58.8409 2.187
58.8712 1.667
58.9015 1.979
58.9318 2.812
58.9621 1.823
58.9923 2.344
59.0226 2.240
59.0529 2.344
59.0832 2.187
59.1135 2.031
59.1437 2.135
59.1740 2.240
59.2043 2.187
59.2346 2.135
59.2648 2.396
59.2951 2.240
59.3254 2.135
59.3557 1.979
59.3860 2.240
59.4162 2.396
59.4465 2.656
59.4768 1.927
59.5071 2.240
59.5374 1.979
59.5676 2.760
59.5979 1.667
59.6282 1.719
59.6585 2.187
59.6887 1.562
59.7190 1.406
59.7493 2.552
59.7796 2.396
59.8099 2.448
59.8401 1.510
59.8704 1.823
59.9007 2.552
59.9310 2.500
59.9613 2.135
59.9915 2.031
60.0218 1.823
60.0521 1.354
60.0824 1.979
60.1126 1.875
60.1429 2.187
60.1732 1.927
60.2035 2.135
60.2338 2.083
60.2640 2.344
60.2943 2.240
60.3246 2.031
60.3549 2.396
60.3852 2.396
60.4154 1.979
60.4457 2.708
60.4760 1.771
60.5063 2.187
60.5365 2.292
60.5668 2.500
60.5971 3.229
60.6274 2.500
60.6577 1.979
60.6879 1.719
60.7182 1.771
60.7485 2.500
60.7788 2.187
60.8091 2.083
60.8393 2.135
60.8696 2.135
60.8999 2.135
60.9302 2.031
60.9604 1.979
60.9907 2.135
61.0210 2.552
61.0513 1.875
61.0816 2.135
61.1118 2.760
61.1421 2.083
61.1724 2.812
61.2027 1.615
61.2330 2.500
61.2632 2.187
61.2935 2.760
61.3238 2.604
61.3541 2.344
61.3844 2.448
61.4146 2.344
61.4449 2.031
61.4752 3.177
61.5055 1.771
61.5357 2.396
61.5660 2.865
61.5963 2.031
61.6266 2.604
61.6569 2.604
61.6871 2.656
61.7174 2.865
61.7477 3.125
61.7780 3.073
61.8083 2.656
61.8385 2.500
61.8688 3.281
61.8991 3.333
61.9294 3.177
61.9596 4.167
61.9899 2.656
62.0202 3.802
62.0505 3.021
62.0808 4.115
62.1110 4.635
62.1413 4.323
62.1716 3.229
62.2019 4.948
62.2322 5.260
62.2624 5.000
62.2927 5.677
62.3230 6.927
62.3533 6.250
62.3835 6.562
62.4138 7.969
62.4441 8.698
62.4744 8.854
62.5047 9.531
62.5349 10.885
62.5652 10.312
62.5955 11.927
62.6258 13.802
62.6561 14.010
62.6863 16.406
62.7166 15.000
62.7469 16.354
62.7772 16.250
62.8074 15.833
62.8377 13.854
62.8680 15.104
62.8983 14.115
62.9286 14.844
62.9588 12.083
62.9891 12.031
63.0194 10.677
63.0497 10.104
63.0800 8.073
63.1102 7.656
63.1405 6.406
63.1708 5.781
63.2011 6.406
63.2313 6.198
63.2616 5.469
63.2919 5.052
63.3222 4.792
63.3525 3.958
63.3827 4.740
63.4130 4.792
63.4433 4.375
63.4736 3.750
63.5039 3.646
63.5341 3.646
63.5644 4.271
63.5947 2.969
63.6250 2.917
63.6552 2.344
63.6855 2.292
63.7158 2.552
63.7461 2.760
63.7764 2.812
63.8066 3.073
63.8369 2.240
63.8672 2.500
63.8975 2.917
63.9278 2.604
63.9580 2.396
63.9883 2.135
64.0186 2.865
64.0489 2.240
64.0791 2.604
64.1094 1.927
64.1397 2.187
64.1700 2.292
64.2003 2.500
64.2305 3.542
64.2608 1.823
64.2911 2.448
64.3214 2.448
64.3517 2.760
64.3819 2.865
64.4122 1.979
64.4425 1.979
64.4728 2.656
64.5031 2.396
64.5333 2.812
64.5636 2.083
64.5939 1.875
64.6242 2.604
64.6544 2.240
64.6847 2.344
64.7150 2.187
64.7453 2.135
64.7756 1.927
64.8058 2.448
64.8361 1.875
64.8664 2.031
64.8967 2.031
64.9270 2.448
64.9572 2.187
64.9875 2.344
65.0178 1.667
65.0481 1.823
65.0783 2.448
65.1086 2.344
65.1389 1.927
65.1692 2.448
65.1995 2.552
65.2297 2.083
65.2600 2.240
65.2903 3.125
65.3206 2.031
65.3509 2.135
65.3811 2.344
65.4114 2.604
65.4417 2.240
65.4720 2.708
65.5022 2.969
65.5325 2.448
65.5628 2.083
65.5931 3.333
65.6234 2.656
65.6536 2.344
65.6839 3.125
65.7142 2.812
65.7445 3.073
65.7748 3.229
65.8050 2.969
65.8353 3.281
65.8656 3.021
65.8959 3.021
65.9261 3.073
65.9564 3.281
65.9867 3.229
66.0170 3.542
66.0473 3.542
66.0775 3.646
66.1078 3.490
66.1381 3.854
66.1684 3.802
66.1987 3.177
66.2289 3.229
66.2592 4.427
66.2895 3.646
66.3198 3.802
66.3500 3.542
66.3803 3.490
66.4106 4.375
66.4409 2.917
66.4712 3.594
66.5014 4.583
66.5317 4.531
66.5620 3.333
66.5923 3.385
66.6226 3.229
66.6528 3.177
66.6831 3.906
66.7134 3.333
66.7437 3.281
66.7739 3.073
66.8042 2.708
66.8345 3.125
66.8648 3.490
66.8951 3.698
66.9253 3.802
66.9556 3.646
66.9859 3.437
67.0162 3.385
67.0465 3.073
67.0767 3.333
67.1070 3.177
67.1373 3.802
67.1676 4.010
67.1978 3.958
67.2281 4.010
67.2584 4.896
67.2887 4.635
67.3190 4.635
67.3492 4.062
67.3795 5.729
67.4098 5.781
67.4401 5.521
67.4704 7.031
67.5006 7.500
67.5309 8.698
67.5612 7.500
67.5915 7.865
67.6218 8.490
67.6520 9.792
67.6823 9.115
67.7126 9.687
67.7429 9.635
67.7731 11.823
67.8034 11.667
67.8337 11.719
67.8640 12.708
67.8943 11.562
67.9245 9.635
67.9548 9.687
67.9851 11.302
68.0154 9.115
68.0457 10.365
68.0759 9.115
68.1062 8.073
68.1365 8.646
68.1668 7.656
68.1970 6.406
68.2273 6.510
68.2576 6.875
68.2879 7.396
68.3182 5.677
68.3484 5.937
68.3787 6.042
68.4090 5.677
68.4393 6.198
68.4696 6.094
68.4998 5.521
68.5301 4.948
68.5604 5.052
68.5907 5.365
68.6209 5.417
68.6512 5.833
68.6815 6.042
68.7118 6.458
68.7421 5.573
68.7723 6.094
68.8026 6.875
68.8329 6.302
68.8632 5.833
68.8935 6.979
68.9237 6.198
68.9540 5.573
68.9843 6.094
69.0146 6.979
69.0448 5.781
69.0751 5.937
69.1054 5.208
69.1357 6.458
69.1660 5.625
69.1962 5.469
69.2265 5.104
69.2568 4.375
69.2871 5.573
69.3174 5.052
69.3476 4.375
69.3779 4.167
69.4082 3.906
69.4385 3.177
69.4687 4.531
69.4990 2.969
69.5293 3.490
69.5596 3.281
69.5899 2.969
69.6201 2.604
69.6504 2.708
69.6807 2.656
69.7110 2.448
69.7413 2.240
69.7715 2.552
69.8018 2.448
69.8321 3.333
69.8624 2.083
69.8926 2.604
69.9229 2.969
69.9532 2.604
69.9835 2.760
70.0138 1.875
70.0440 2.083
70.0743 2.292
70.1046 2.240
70.1349 2.083
70.1652 1.615
70.1954 1.823
70.2257 2.031
70.2560 1.719
70.2863 1.875
70.3166 1.562
70.3468 2.187
70.3771 1.250
70.4074 1.771
70.4377 1.615
70.4679 1.771
70.4982 1.979
70.5285 1.875
70.5588 1.562
70.5891 1.719
70.6193 1.979
70.6496 2.292
70.6799 1.354
70.7102 1.562
70.7405 2.083
70.7707 2.083
70.8010 1.458
70.8313 1.771
70.8616 1.667
70.8918 1.146
70.9221 1.823
70.9524 1.823
70.9827 1.667
71.0130 2.240
71.0432 1.302
71.0735 1.771
71.1038 1.927
71.1341 1.406
71.1644 2.083
71.1946 1.615
71.2249 1.406
71.2552 1.510
71.2855 2.083
71.3157 1.406
71.3460 1.302
71.3763 1.927
71.4066 1.406
71.4369 1.146
71.4671 1.875
71.4974 1.667
71.5277 2.187
71.5580 2.240
71.5883 1.979
71.6185 1.458
71.6488 1.406
71.6791 2.500
71.7094 1.510
71.7396 1.823
71.7699 1.510
71.8002 1.667
71.8305 1.771
71.8608 1.719
71.8910 1.771
71.9213 1.667
71.9516 1.927
71.9819 1.302
72.0122 2.240
72.0424 2.031
72.0727 1.927
72.1030 1.875
72.1333 1.615
72.1635 2.240
72.1938 2.240
72.2241 1.302
72.2544 1.719
72.2847 2.448
72.3149 2.396
72.3452 2.083
72.3755 2.240
72.4058 2.292
72.4361 2.552
72.4663 3.229
72.4966 2.292
72.5269 1.875
72.5572 2.187
72.5874 2.448
72.6177 1.875
72.6480 2.292
72.6783 2.240
72.7086 1.823
72.7388 2.187
72.7691 2.135
72.7994 2.187
72.8297 1.719
72.8600 1.354
72.8902 1.927
72.9205 1.354
72.9508 1.979
72.9811 1.667
73.0113 1.875
73.0416 1.667
73.0719 1.562
73.1022 1.562
73.1325 1.927
73.1627 1.927
73.1930 0.885
73.2233 1.458
73.2536 1.719
73.2839 1.354
73.3141 1.615
73.3444 1.250
73.3747 1.458
73.4050 1.146
73.4353 1.302
73.4655 1.823
73.4958 1.667
73.5261 1.406
73.5564 1.771
73.5866 1.146
73.6169 1.719
73.6472 1.146
73.6775 2.031
73.7078 1.354
73.7380 1.615
73.7683 1.927
73.7986 1.615
73.8289 1.458
73.8592 1.302
73.8894 1.719
73.9197 1.667
73.9500 1.667
73.9803 1.406
74.0105 1.458
74.0408 1.198
74.0711 1.042
74.1014 1.354
74.1317 1.302
74.1619 1.406
74.1922 1.615
74.2225 1.198
74.2528 1.302
74.2831 1.667
74.3133 1.406
74.3436 1.458
74.3739 1.250
74.4042 1.146
74.4344 1.667
74.4647 1.510
74.4950 1.667
74.5253 0.833
74.5556 1.562
74.5858 1.823
74.6161 1.042
74.6464 1.458
74.6767 1.719
74.7070 1.406
74.7372 1.302
74.7675 1.198
74.7978 0.885
74.8281 1.354
74.8583 1.458
74.8886 1.719
74.9189 0.833
74.9492 1.562
74.9795 1.562
75.0097 1.042
75.0400 1.562
75.0703 1.198
75.1006 1.510
75.1309 1.562
75.1611 1.823
75.1914 1.250
75.2217 1.458
75.2520 1.198
75.2822 1.198
75.3125 1.458
75.3428 1.354
75.3731 1.823
75.4034 1.042
75.4336 1.302
75.4639 1.823
75.4942 1.094
75.5245 1.250
75.5548 1.354
75.5850 1.250
75.6153 1.250
75.6456 1.562
75.6759 1.979
75.7061 1.198
75.7364 1.510
75.7667 1.094
75.7970 1.458
75.8273 1.354
75.8575 1.354
75.8878 1.562
75.9181 1.615
75.9484 1.927
75.9787 1.615
76.0089 1.667
76.0392 1.562
76.0695 1.979
76.0998 1.979
76.1301 1.771
76.1603 1.510
76.1906 1.823
76.2209 2.240
76.2512 1.667
76.2814 1.823
76.3117 1.615
76.3420 1.719
76.3723 1.667
76.4026 1.927
76.4328 1.823
76.4631 1.667
76.4934 2.187
76.5237 2.187
76.5540 1.979
76.5842 3.385
76.6145 1.719
76.6448 1.771
76.6751 2.083
76.7053 2.500
76.7356 2.187
76.7659 2.396
76.7962 2.708
76.8265 3.125
76.8567 2.344
76.8870 2.552
76.9173 1.927
76.9476 2.187
76.9779 2.187
77.0081 2.292
77.0384 2.604
77.0687 2.240
77.0990 2.083
77.1292 2.292
77.1595 2.344
77.1898 2.812
77.2201 2.240
77.2504 2.656
77.2806 2.031
77.3109 1.719
77.3412 1.719
77.3715 1.823
77.4018 1.667
77.4320 2.604
77.4623 1.615
77.4926 1.719
77.5229 1.667
77.5531 1.458
77.5834 1.615
77.6137 1.146
77.6440 1.198
77.6743 2.292
77.7045 1.406
77.7348 1.719
77.7651 1.562
77.7954 1.250
77.8257 1.042
77.8559 1.510
77.8862 1.198
77.9165 1.198
77.9468 1.823
77.9770 1.042
78.0073 1.250
78.0376 1.510
78.0679 1.146
78.0982 1.146
78.1284 0.885
78.1587 0.990
78.1890 1.458
78.2193 1.979
78.2496 1.458
78.2798 1.406
78.3101 1.354
78.3404 1.302
78.3707 1.146
78.4009 1.719
78.4312 1.667
78.4615 1.198
78.4918 1.406
78.5221 0.990
78.5523 1.406
78.5826 1.458
78.6129 1.406
78.6432 1.250
78.6735 1.302
78.7037 1.146
78.7340 1.198
78.7643 1.094
78.7946 1.198
78.8248 1.302
78.8551 1.302
78.8854 0.937
78.9157 1.042
78.9460 1.094
78.9762 1.250
79.0065 1.458
79.0368 1.198
79.0671 1.406
79.0974 0.990
79.1276 1.198
79.1579 1.094
79.1882 0.937
79.2185 1.510
79.2488 1.510
79.2790 1.667
79.3093 1.719
79.3396 0.990
79.3699 1.302
79.4001 1.510
79.4304 1.719
79.4607 0.937
79.4910 1.146
79.5213 1.302
79.5515 1.094
79.5818 1.146
79.6121 1.354
79.6424 1.198
79.6727 1.510
79.7029 1.198
79.7332 1.250
79.7635 1.146
79.7938 1.615
79.8240 1.615
79.8543 1.302
79.8846 1.250
79.9149 0.885
79.9452 1.458
79.9754 1.094
80.0057 1.719
80.0360 1.823
80.0663 1.146
80.0966 1.250
80.1268 1.094
80.1571 0.937
80.1874 2.083
80.2177 1.875
80.2479 1.510
80.2782 1.406
80.3085 1.198
80.3388 1.250
80.3691 1.042
80.3993 0.833
80.4296 1.302
80.4599 1.302
80.4902 1.198
80.5205 1.719
80.5507 1.458
80.5810 1.615
80.6113 1.198
80.6416 1.562
80.6718 1.198
80.7021 1.615
80.7324 1.615
80.7627 1.562
80.7930 1.562
80.8232 1.250
80.8535 1.771
80.8838 1.771
80.9141 1.458
80.9444 1.250
80.9746 1.667
81.0049 1.302
81.0352 1.875
81.0655 2.187
81.0957 1.562
81.1260 1.771
81.1563 2.292
81.1866 1.302
81.2169 2.031
81.2471 1.823
81.2774 2.031
81.3077 1.823
81.3380 1.667
81.3683 2.500
81.3985 1.979
81.4288 1.719
81.4591 1.979
81.4894 1.667
81.5196 1.667
81.5499 1.979
81.5802 1.719
81.6105 1.198
81.6408 1.406
81.6710 1.354
81.7013 1.667
81.7316 1.406
81.7619 2.135
81.7922 1.823
81.8224 1.615
81.8527 1.562
81.8830 1.510
81.9133 1.458
81.9436 1.667
81.9738 1.458
82.0041 1.354
82.0344 1.198
82.0647 1.458
82.0949 1.406
82.1252 1.458
82.1555 1.510
82.1858 1.562
82.2161 1.510
82.2463 1.354
82.2766 1.198
82.3069 1.198
82.3372 1.354
82.3675 1.667
82.3977 1.302
82.4280 1.354
82.4583 0.521
82.4886 0.625
82.5188 1.042
82.5491 1.042
82.5794 1.198
82.6097 1.406
82.6400 1.615
82.6702 1.198
82.7005 1.875
82.7308 1.198
82.7611 1.198
82.7914 1.719
82.8216 1.198
82.8519 1.354
82.8822 0.781
82.9125 1.354
82.9427 1.198
82.9730 1.302
83.0033 1.146
83.0336 1.302
83.0639 1.094
83.0941 1.667
83.1244 0.885
83.1547 1.667
83.1850 1.250
83.2153 1.979
83.2455 1.719
83.2758 0.990
83.3061 1.198
83.3364 1.406
83.3666 1.667
83.3969 0.990
83.4272 1.198
83.4575 1.615
83.4878 1.667
83.5180 0.885
83.5483 1.250
83.5786 1.302
83.6089 1.146
83.6392 1.146
83.6694 1.198
83.6997 1.094
83.7300 1.406
83.7603 1.667
83.7905 1.406
83.8208 0.885
83.8511 1.042
83.8814 1.458
83.9117 1.094
83.9419 1.510
83.9722 1.302
84.0025 1.667
84.0328 1.198
84.0631 1.458
84.0933 1.510
84.1236 1.615
84.1539 1.771
84.1842 0.885
84.2144 1.510
84.2447 1.250
84.2750 1.458
84.3053 0.885
84.3356 1.042
84.3658 1.198
84.3961 1.250
84.4264 1.615
84.4567 1.146
84.4870 1.302
84.5172 1.458
84.5475 1.094
84.5778 1.510
84.6081 1.198
84.6383 1.406
84.6686 1.198
84.6989 1.354
84.7292 1.198
84.7595 1.302
84.7897 1.250
84.8200 1.354
84.8503 1.146
84.8806 1.094
84.9109 1.927
84.9411 1.562
84.9714 1.250
85.0017 2.135
85.0320 1.354
85.0623 1.250
85.0925 1.354
85.1228 1.667
85.1531 1.198
85.1834 0.937
85.2136 1.458
85.2439 1.198
85.2742 1.198
85.3045 1.146
85.3348 1.198
85.3650 0.781
85.3953 1.198
85.4256 1.198
85.4559 1.198
85.4862 1.302
85.5164 0.729
85.5467 1.094
85.5770 1.094
85.6073 1.562
85.6375 1.302
85.6678 1.198
85.6981 1.250
85.7284 1.198
85.7587 1.875
85.7889 1.458
85.8192 1.302
85.8495 1.198
85.8798 1.198
85.9101 1.302
85.9403 1.094
85.9706 1.198
86.0009 1.615
86.0312 1.094
86.0614 1.146
86.0917 1.250
86.1220 1.406
86.1523 0.781
86.1826 1.615
86.2128 1.042
86.2431 1.250
86.2734 1.250
86.3037 1.771
86.3340 1.458
86.3642 1.354
86.3945 1.510
86.4248 1.042
86.4551 1.250
86.4853 1.510
86.5156 1.198
86.5459 1.562
86.5762 1.458
86.6065 1.250
86.6367 0.937
86.6670 1.198
86.6973 1.250
86.7276 0.990
86.7579 1.615
86.7881 1.198
86.8184 1.562
86.8487 0.833
86.8790 1.042
86.9092 1.042
86.9395 1.198
86.9698 1.250
87.0001 1.719
87.0304 1.302
87.0606 0.990
87.0909 1.042
87.1212 1.823
87.1515 0.833
87.1818 1.198
87.2120 1.562
87.2423 1.562
87.2726 1.458
87.3029 1.354
87.3331 1.458
87.3634 1.615
87.3937 1.146
87.4240 1.198
87.4543 0.990
87.4845 1.719
87.5148 1.146
87.5451 1.250
87.5754 1.146
87.6057 1.354
87.6359 1.302
87.6662 1.354
87.6965 1.042
87.7268 1.042
87.7571 1.250
87.7873 1.198
87.8176 1.458
87.8479 1.458
87.8782 1.250
87.9084 1.458
87.9387 1.458
87.9690 1.562
87.9993 1.302
88.0296 1.667
88.0598 1.667
88.0901 1.406
88.1204 1.354
88.1507 1.667
88.1810 1.198
88.2112 1.562
88.2415 1.458
88.2718 1.146
88.3021 1.875
88.3323 1.510
88.3626 1.406
88.3929 1.510
88.4232 0.937
88.4535 1.042
88.4837 1.875
88.5140 1.302
88.5443 2.187
88.5746 1.615
88.6049 1.771
88.6351 1.615
88.6654 1.979
88.6957 1.875
88.7260 2.083
88.7562 1.510
88.7865 1.667
88.8168 1.771
88.8471 1.615
88.8774 2.187
88.9076 2.396
88.9379 2.187
88.9682 1.771
88.9985 2.656
89.0288 2.344
89.0590 2.083
89.0893 2.604
89.1196 2.240
89.1499 2.760
89.1801 2.760
89.2104 3.073
89.2407 3.281
89.2710 3.125
89.3013 2.656
89.3315 2.969
89.3618 3.802
89.3921 3.385
89.4224 2.344
89.4527 3.281
89.4829 2.604
89.5132 4.010
89.5435 3.125
89.5738 3.281
89.6040 3.594
89.6343 2.969
89.6646 3.490
89.6949 3.385
89.7252 2.396
89.7554 2.396
89.7857 3.177
89.8160 3.021
89.8463 3.073
89.8766 2.135
89.9068 2.604
89.9371 2.604
89.9674 2.604
89.9977 1.771
90.0279 2.396
90.0582 2.292
90.0885 2.135
90.1188 1.875
90.1491 2.187
90.1793 2.240
90.2096 1.875
90.2399 2.240
90.2702 2.187
90.3005 1.667
90.3307 1.927
90.3610 1.979
90.3913 1.354
90.4216 1.667
90.4518 1.510
90.4821 2.083
90.5124 1.719
90.5427 1.979
90.5730 1.302
90.6032 1.458
90.6335 1.667
90.6638 1.406
90.6941 1.510
90.7244 1.510
90.7546 1.667
90.7849 1.042
90.8152 1.667
90.8455 1.667
90.8758 2.344
90.9060 1.354
90.9363 1.875
90.9666 2.135
90.9969 1.146
91.0271 1.823
91.0574 1.302
91.0877 1.510
91.1180 1.406
91.1483 1.354
91.1785 1.875
91.2088 1.198
91.2391 1.823
91.2694 1.979
91.2997 1.458
91.3299 1.042
91.3602 1.406
91.3905 1.198
91.4208 1.719
91.4510 1.615
91.4813 1.823
91.5116 1.094
91.5419 1.510
91.5722 1.562
91.6024 1.406
91.6327 1.667
91.6630 1.458
91.6933 1.510
91.7236 1.094
91.7538 1.771
91.7841 1.250
91.8144 1.667
91.8447 1.823
91.8749 1.667
91.9052 1.719
91.9355 2.083
91.9658 1.667
91.9961 2.031
92.0263 1.615
92.0566 1.562
92.0869 1.615
92.1172 1.198
92.1475 1.615
92.1777 1.354
92.2080 1.771
92.2383 1.510
92.2686 1.667
92.2988 1.354
92.3291 1.615
92.3594 1.719
92.3897 1.823
92.4200 2.031
92.4502 1.927
92.4805 1.302
92.5108 2.135
92.5411 1.875
92.5714 2.187
92.6016 2.396
92.6319 1.875
92.6622 2.187
92.6925 2.240
92.7227 2.031
92.7530 1.458
92.7833 2.656
92.8136 1.979
92.8439 1.927
92.8741 1.719
92.9044 2.552
92.9347 1.510
92.9650 2.083
92.9953 1.823
93.0255 1.458
93.0558 1.615
93.0861 1.719
93.1164 1.979
93.1466 1.615
93.1769 1.771
93.2072 1.667
93.2375 1.198
93.2678 1.562
93.2980 1.302
93.3283 1.354
93.3586 1.406
93.3889 2.292
93.4192 1.510
93.4494 1.979
93.4797 2.031
93.5100 2.031
93.5403 1.615
93.5706 1.198
93.6008 1.719
93.6311 1.719
93.6614 1.771
93.6917 1.354
93.7219 1.198
93.7522 1.719
93.7825 2.448
93.8128 1.458
93.8431 1.406
93.8733 1.198
93.9036 1.615
93.9339 1.927
93.9642 2.031
93.9945 1.458
94.0247 1.667
94.0550 1.719
94.0853 1.198
94.1156 1.771
94.1458 1.875
94.1761 1.615
94.2064 1.510
94.2367 2.187
94.2670 2.187
94.2972 2.396
94.3275 1.667
94.3578 1.927
94.3881 1.823
94.4184 1.302
94.4486 1.823
94.4789 2.187
94.5092 2.031
94.5395 2.292
94.5697 2.292
94.6000 1.615
94.6303 2.083
94.6606 2.031
94.6909 1.927
94.7211 2.656
94.7514 2.500
94.7817 2.240
94.8120 2.604
94.8423 2.917
94.8725 2.812
94.9028 2.552
94.9331 2.708
94.9634 3.333
94.9936 2.708
95.0239 2.708
95.0542 2.917
95.0845 2.240
95.1148 3.490
95.1450 3.490
95.1753 2.969
95.2056 3.542
95.2359 3.646
95.2662 2.812
95.2964 2.448
95.3267 3.021
95.3570 2.812
95.3873 2.969
95.4175 3.073
95.4478 3.125
95.4781 3.542
95.5084 3.021
95.5387 2.708
95.5689 2.240
95.5992 2.292
95.6295 2.760
95.6598 2.812
95.6901 2.240
95.7203 2.240
95.7506 2.448
95.7809 2.135
95.8112 2.240
95.8414 2.500
95.8717 2.448
95.9020 2.240
95.9323 2.240
95.9626 2.448
95.9928 2.604
96.0231 2.135
96.0534 1.875
96.0837 1.771
96.1140 1.667
96.1442 1.771
96.1745 1.458
96.2048 1.719
96.2351 1.875
96.2653 1.510
96.2956 1.719
96.3259 1.615
96.3562 1.927
96.3865 1.406
96.4167 1.250
96.4470 1.250
96.4773 1.719
96.5076 1.979
96.5379 1.302
96.5681 1.615
96.5984 1.719
96.6287 1.562
96.6590 1.250
96.6893 1.354
96.7195 1.198
96.7498 2.083
96.7801 1.406
96.8104 1.771
96.8406 1.302
96.8709 1.667
96.9012 1.927
96.9315 1.406
96.9618 1.615
96.9920 1.823
97.0223 1.146
97.0526 1.458
97.0829 1.458
97.1132 1.771
97.1434 1.250
97.1737 1.146
97.2040 1.458
97.2343 1.667
97.2645 2.240
97.2948 0.990
97.3251 1.510
97.3554 1.146
97.3857 1.458
97.4159 1.615
97.4462 1.927
97.4765 1.250
97.5068 1.302
97.5371 1.406
97.5673 1.771
97.5976 1.615
97.6279 1.406
97.6582 1.250
97.6884 2.031
97.7187 1.562
97.7490 1.771
97.7793 1.406
97.8096 1.302
97.8398 1.719
97.8701 1.458
97.9004 1.406
97.9307 1.719
97.9610 1.510
97.9912 1.875
98.0215 1.667
98.0518 1.875
98.0821 1.875
98.1123 1.823
98.1426 2.031
98.1729 1.458
98.2032 1.927
98.2335 2.500
98.2637 2.240
98.2940 1.823
98.3243 2.812
98.3546 2.292
98.3849 2.292
98.4151 2.083
98.4454 2.344
98.4757 2.135
98.5060 2.292
98.5362 3.229
98.5665 2.500
98.5968 2.187
98.6271 2.500
98.6574 3.542
98.6876 2.708
98.7179 2.552
98.7482 2.969
98.7785 1.979
98.8088 2.031
98.8390 2.135
98.8693 2.240
98.8996 2.135
98.9299 1.979
98.9601 2.292
98.9904 1.823
99.0207 2.187
99.0510 1.719
99.0813 2.187
99.1115 1.615
99.1418 1.354
99.1721 1.875
99.2024 2.240
99.2327 1.615
99.2629 0.937
99.2932 2.031
99.3235 1.354
99.3538 1.562
99.3841 1.927
99.4143 1.406
99.4446 1.875
99.4749 1.562
99.5052 1.979
99.5354 1.562
99.5657 1.406
99.5960 2.135
99.6263 1.510
99.6566 1.354
99.6868 1.719
99.7171 1.823
99.7474 1.562
99.7777 1.458
99.8080 1.250
99.8382 1.458
99.8685 1.562
99.8988 1.615
99.9291 1.406
99.9593 1.667
99.9896 2.344
100.0199 1.719
100.0502 1.302
100.0805 2.135
100.1107 1.302
100.1410 1.146
100.1713 1.458
100.2016 0.937
100.2319 1.250
100.2621 1.354
100.2924 1.562
100.3227 1.042
100.3530 1.458
100.3832 1.354
100.4135 1.615
100.4438 1.406
100.4741 0.990
100.5044 1.354
100.5346 1.198
100.5649 1.146
100.5952 1.510
100.6255 1.562
100.6558 1.042
100.6860 1.354
100.7163 2.083
100.7466 1.406
100.7769 1.406
100.8071 0.990
100.8374 1.302
100.8677 1.823
100.8980 1.771
100.9283 1.302
100.9585 0.990
100.9888 1.250
101.0191 1.302
101.0494 0.990
101.0797 1.719
101.1099 1.510
101.1402 1.875
101.1705 1.406
101.2008 1.354
101.2310 1.562
101.2613 1.458
101.2916 1.615
101.3219 1.302
101.3522 1.875
101.3824 0.990
101.4127 1.250
101.4430 1.771
101.4733 1.615
101.5036 1.979
101.5338 1.250
101.5641 1.458
101.5944 1.615
101.6247 1.354
101.6549 2.031
101.6852 1.198
101.7155 1.146
101.7458 1.354
101.7761 1.302
101.8063 2.031
101.8366 1.250
101.8669 1.458
101.8972 1.719
101.9275 1.354
101.9577 1.719
101.9880 1.875
102.0183 1.354
102.0486 1.615
102.0788 1.458
102.1091 2.031
102.1394 1.458
102.1697 1.719
102.2000 1.875
102.2302 1.667
102.2605 1.927
102.2908 2.240
102.3211 1.875
102.3514 1.719
102.3816 1.823
102.4119 2.292
102.4422 2.292
102.4725 1.927
102.5028 1.719
102.5330 1.615
102.5633 2.031
102.5936 2.292
102.6239 2.500
102.6541 1.406
102.6844 1.823
102.7147 1.615
102.7450 1.823
102.7753 1.875
102.8055 1.771
102.8358 2.240
102.8661 1.771
102.8964 2.187
102.9267 2.240
102.9569 2.396
102.9872 2.292
103.0175 1.927
103.0478 2.083
103.0780 2.448
103.1083 2.240
103.1386 2.240
103.1689 2.187
103.1992 2.187
103.2294 1.875
103.2597 2.708
103.2900 2.292
103.3203 1.979
103.3506 2.396
103.3808 2.292
103.4111 2.656
103.4414 1.823
103.4717 1.719
103.5019 1.823
103.5322 1.927
103.5625 1.719
103.5928 1.406
103.6231 2.031
103.6533 2.187
103.6836 2.448
103.7139 2.500
103.7442 2.240
103.7745 3.333
103.8047 2.760
103.8350 2.344
103.8653 3.125
103.8956 3.542
103.9258 2.604
103.9561 3.698
103.9864 3.437
104.0167 2.604
104.0470 2.604
104.0772 3.073
104.1075 2.604
104.1378 3.021
104.1681 2.500
104.1984 3.333
104.2286 2.500
104.2589 2.656
104.2892 1.875
104.3195 1.927
104.3497 2.917
104.3800 2.135
104.4103 2.448
104.4406 2.760
104.4709 2.344
104.5011 2.344
104.5314 2.344
104.5617 1.771
104.5920 2.552
104.6223 2.135
104.6525 2.344
104.6828 2.708
104.7131 2.344
104.7434 1.927
104.7736 2.292
104.8039 1.875
104.8342 1.979
104.8645 2.135
104.8948 1.719
104.9250 1.406
104.9553 1.510
104.9856 1.719
105.0159 1.667
105.0462 1.198
105.0764 2.344
105.1067 1.771
105.1370 1.406
105.1673 1.406
105.1975 1.510
105.2278 1.615
105.2581 1.406
105.2884 1.406
105.3187 1.406
105.3489 1.458
105.3792 1.562
105.4095 1.406
105.4398 1.823
105.4701 1.875
105.5003 1.615
105.5306 1.719
105.5609 1.667
105.5912 1.354
105.6215 1.458
105.6517 1.354
105.6820 1.146
105.7123 1.719
105.7426 1.354
105.7728 1.510
105.8031 1.302
105.8334 1.562
105.8637 1.562
105.8940 0.937
105.9242 1.458
105.9545 2.135
105.9848 0.990
106.0151 1.615
106.0454 1.094
106.0756 1.458
106.1059 0.937
106.1362 1.250
106.1665 2.031
106.1967 1.979
106.2270 1.719
106.2573 1.094
106.2876 1.823
106.3179 1.615
106.3481 1.094
106.3784 1.198
106.4087 1.458
106.4390 1.302
106.4693 1.354
106.4995 1.667
106.5298 1.198
106.5601 1.458
106.5904 1.302
106.6206 1.562
106.6509 1.198
106.6812 1.302
106.7115 1.771
106.7418 1.354
106.7720 1.302
106.8023 1.146
106.8326 1.458
106.8629 2.083
106.8932 1.458
106.9234 0.990
106.9537 1.198
106.9840 1.771
107.0143 1.458
107.0445 1.354
107.0748 1.354
107.1051 2.083
107.1354 1.458
107.1657 1.562
107.1959 1.198
107.2262 1.667
107.2565 2.083
107.2868 1.406
107.3171 2.292
107.3473 1.458
107.3776 1.094
107.4079 1.927
107.4382 1.198
107.4684 1.354
107.4987 1.302
107.5290 1.719
107.5593 1.510
107.5896 1.406
107.6198 1.875
107.6501 1.510
107.6804 1.667
107.7107 1.302
107.7410 1.510
107.7712 1.510
107.8015 1.719
107.8318 1.875
107.8621 1.510
107.8923 1.406
107.9226 1.719
107.9529 1.042
107.9832 1.458
108.0135 1.615
108.0437 1.406
108.0740 1.719
108.1043 1.406
108.1346 1.719
108.1649 1.562
108.1951 1.615
108.2254 1.302
108.2557 1.458
108.2860 2.135
108.3163 1.875
108.3465 1.667
108.3768 1.771
108.4071 1.094
108.4374 1.875
108.4676 1.042
108.4979 1.354
108.5282 1.146
108.5585 1.510
108.5888 1.146
108.6190 0.990
108.6493 1.510
108.6796 1.771
108.7099 1.667
108.7402 0.937
108.7704 1.458
108.8007 1.510
108.8310 1.615
108.8613 1.354
108.8915 1.406
108.9218 1.979
108.9521 1.146
108.9824 1.458
109.0127 1.302
109.0429 1.250
109.0732 1.250
109.1035 1.771
109.1338 1.250
109.1641 1.406
109.1943 1.406
109.2246 1.406
109.2549 1.250
109.2852 1.562
109.3154 1.562
109.3457 1.562
109.3760 1.615
109.4063 1.406
109.4366 1.562
109.4668 1.406
109.4971 1.562
109.5274 1.562
109.5577 1.562
109.5880 1.302
109.6182 2.031
109.6485 1.406
109.6788 1.458
109.7091 1.719
109.7393 2.031
109.7696 2.031
109.7999 1.615
109.8302 1.354
109.8605 2.083
109.8907 2.135
109.9210 2.083
109.9513 2.135
109.9816 2.344
110.0119 2.135
110.0421 1.823
110.0724 2.240
110.1027 1.667
110.1330 2.031
110.1632 1.719
110.1935 1.979
110.2238 2.292
110.2541 2.344
110.2844 2.760
110.3146 2.031
110.3449 1.875
110.3752 2.031
110.4055 2.240
110.4358 2.708
110.4660 2.240
110.4963 2.708
110.5266 2.604
110.5569 2.135
110.5871 2.187
110.6174 2.604
110.6477 2.292
110.6780 2.031
110.7083 2.396
110.7385 2.187
110.7688 1.094
110.7991 2.135
110.8294 2.552
110.8597 2.135
110.8899 1.927
110.9202 1.615
110.9505 2.396
110.9808 1.146
111.0110 0.990
111.0413 1.042
111.0716 2.292
111.1019 1.406
111.1322 2.240
111.1624 1.250
111.1927 2.083
111.2230 1.823
111.2533 1.667
111.2836 1.667
111.3138 2.292
111.3441 1.198
111.3744 1.615
111.4047 1.302
111.4350 1.562
111.4652 1.250
111.4955 1.667
111.5258 1.562
111.5561 1.146
111.5863 1.667
111.6166 1.875
111.6469 1.406
111.6772 1.667
111.7075 1.094
111.7377 1.198
111.7680 1.250
111.7983 1.250
111.8286 1.406
111.8589 1.458
111.8891 1.406
111.9194 1.354
111.9497 1.771
111.9800 1.719
112.0102 1.667
112.0405 1.250
112.0708 1.146
112.1011 1.719
112.1314 1.823
112.1616 1.875
112.1919 1.198
112.2222 1.302
112.2525 1.198
112.2828 1.198
112.3130 1.406
112.3433 1.198
112.3736 1.719
112.4039 1.406
112.4341 1.354
112.4644 1.146
112.4947 1.302
112.5250 1.719
112.5553 1.458
112.5855 1.719
112.6158 0.937
112.6461 1.042
112.6764 1.302
112.7067 1.198
112.7369 1.667
112.7672 1.823
112.7975 1.094
112.8278 1.042
112.8580 0.990
112.8883 1.354
112.9186 2.135
112.9489 1.250
112.9792 1.302
113.0094 1.146
113.0397 1.250
113.0700 1.510
113.1003 1.198
113.1306 1.406
113.1608 1.094
113.1911 0.990
113.2214 0.937
113.2517 1.406
113.2819 1.458
113.3122 1.354
113.3425 1.354
113.3728 1.771
113.4031 1.302
113.4333 1.406
113.4636 1.510
113.4939 1.458
113.5242 1.198
113.5545 1.302
113.5847 1.146
113.6150 1.875
113.6453 1.354
113.6756 1.042
113.7058 1.354
113.7361 1.562
113.7664 1.927
113.7967 1.354
113.8270 1.823
113.8572 1.979
113.8875 1.094
113.9178 2.083
113.9481 1.719
113.9784 1.823
114.0086 1.719
114.0389 1.771
114.0692 1.615
114.0995 1.042
114.1298 1.771
114.1600 1.562
114.1903 1.667
114.2206 1.667
114.2509 1.562
114.2811 1.771
114.3114 1.354
114.3417 1.615
114.3720 1.094
114.4023 1.406
114.4325 1.458
114.4628 1.510
114.4931 1.094
114.5234 1.667
114.5537 1.094
114.5839 1.250
114.6142 1.406
114.6445 1.823
114.6748 1.250
114.7050 1.146
114.7353 1.406
114.7656 1.458
114.7959 1.823
114.8262 1.615
114.8564 1.250
114.8867 1.615
114.9170 2.083
114.9473 1.094
114.9776 1.927
115.0078 1.927
115.0381 1.510
115.0684 1.562
115.0987 1.562
115.1289 1.615
115.1592 1.406
115.1895 2.604
115.2198 1.927
115.2501 1.562
115.2803 1.979
115.3106 1.771
115.3409 2.083
115.3712 1.875
115.4015 2.031
115.4317 1.875
115.4620 2.031
115.4923 2.396
115.5226 2.604
115.5528 2.552
115.5831 2.135
115.6134 2.083
115.6437 2.500
115.6740 1.979
115.7042 2.604
115.7345 2.448
115.7648 2.969
115.7951 2.656
115.8254 2.240
115.8556 2.604
115.8859 2.083
115.9162 2.656
115.9465 2.812
115.9767 2.500
116.0070 2.917
116.0373 2.865
116.0676 3.177
116.0979 3.125
116.1281 3.073
116.1584 3.385
116.1887 2.604
116.2190 3.281
116.2493 3.646
116.2795 2.865
116.3098 2.708
116.3401 2.812
116.3704 3.958
116.4006 3.021
116.4309 3.333
116.4612 3.021
116.4915 2.656
116.5218 2.292
116.5520 2.865
116.5823 3.437
116.6126 2.760
116.6429 2.708
116.6732 2.500
116.7034 2.812
116.7337 2.448
116.7640 2.708
116.7943 2.031
116.8245 2.240
116.8548 1.979
116.8851 2.708
116.9154 2.292
116.9457 2.656
116.9759 2.396
117.0062 1.979
117.0365 2.396
117.0668 1.875
117.0971 1.875
117.1273 1.927
117.1576 2.187
117.1879 2.083
117.2182 1.510
117.2485 1.979
117.2787 2.187
117.3090 1.094
117.3393 2.031
117.3696 1.562
117.3998 1.510
117.4301 2.031
117.4604 1.302
117.4907 1.771
117.5210 1.562
117.5512 1.979
117.5815 1.771
117.6118 1.354
117.6421 1.927
117.6724 1.458
117.7026 1.823
117.7329 1.458
117.7632 1.719
117.7935 1.667
117.8237 1.719
117.8540 1.562
117.8843 1.562
117.9146 1.354
117.9449 1.406
117.9751 1.927
118.0054 1.667
118.0357 1.979
118.0660 1.927
118.0963 1.250
118.1265 1.927
118.1568 1.510
118.1871 1.510
118.2174 1.510
118.2476 2.240
118.2779 1.823
118.3082 1.823
118.3385 2.083
118.3688 1.042
118.3990 1.771
118.4293 1.667
118.4596 1.510
118.4899 1.562
118.5202 1.562
118.5504 1.250
118.5807 1.198
118.6110 1.354
118.6413 1.406
118.6715 1.406
118.7018 1.250
118.7321 1.198
118.7624 1.875
118.7927 1.719
118.8229 1.615
118.8532 1.615
118.8835 0.937
118.9138 1.250
118.9441 1.979
118.9743 1.302
119.0046 1.667
119.0349 1.302
119.0652 1.667
119.0954 1.615
119.1257 1.562
119.1560 1.979
119.1863 1.250
119.2166 1.198
119.2468 1.250
119.2771 1.458
119.3074 1.458
119.3377 1.823
119.3680 1.146
119.3982 1.354
119.4285 1.406
119.4588 1.094
119.4891 1.458
119.5193 1.354
119.5496 1.094
119.5799 2.240
119.6102 1.302
119.6405 1.198
119.6707 1.771
119.7010 1.198
119.7313 1.458
119.7616 1.979
119.7919 1.771
119.8221 1.354
119.8524 1.510
119.8827 1.198
119.9130 1.250
119.9433 1.042
119.9735 1.510
120.0038 0.885
