'Id: "" Comment: "" Operator: "Lab Manager" Anode: "Cu" Scantype: "Locked Coupled" TimePerStep: "19.2" X: "9999" Y: "9999" Z: "9999" 
10.0015 15.156
10.0318 13.437
10.0620 12.552
10.0923 13.281
10.1226 13.490
10.1529 13.802
10.1832 13.281
10.2134 12.031
10.2437 11.198
10.2740 11.198
10.3043 13.437
10.3346 12.656
10.3648 12.396
10.3951 11.510
10.4254 12.917
10.4557 11.823
10.4859 9.062
10.5162 11.719
10.5465 10.208
10.5768 10.000
10.6071 11.719
10.6373 11.302
10.6676 11.198
10.6979 10.208
10.7282 9.896
10.7585 10.937
10.7887 10.781
10.8190 9.427
10.8493 9.115
10.8796 9.896
10.9098 10.469
10.9401 10.521
10.9704 10.469
11.0007 9.583
11.0310 11.042
11.0612 10.729
11.0915 9.740
11.1218 10.573
11.1521 11.562
11.1824 10.677
11.2126 11.458
11.2429 11.510
11.2732 12.083
11.3035 13.021
11.3337 15.521
11.3640 13.437
11.3943 15.052
11.4246 14.323
11.4549 14.792
11.4851 17.552
11.5154 19.323
11.5457 19.740
11.5760 22.500
11.6063 25.677
11.6365 26.406
11.6668 30.521
11.6971 31.354
11.7274 37.031
11.7577 39.010
11.7879 41.094
11.8182 35.729
11.8485 32.865
11.8788 31.094
11.9090 27.135
11.9393 21.875
11.9696 19.167
11.9999 15.833
12.0302 16.146
12.0604 15.417
12.0907 12.396
12.1210 12.708
12.1513 11.615
12.1816 11.094
12.2118 10.885
12.2421 9.844
12.2724 9.167
12.3027 7.760
12.3329 7.917
12.3632 7.604
12.3935 8.333
12.4238 7.240
12.4541 7.292
12.4843 6.302
12.5146 7.135
12.5449 5.781
12.5752 5.833
12.6055 6.146
12.6357 5.729
12.6660 6.198
12.6963 4.740
12.7266 5.469
12.7568 7.083
12.7871 5.260
12.8174 5.990
12.8477 5.521
12.8780 6.198
12.9082 4.792
12.9385 5.208
12.9688 4.844
12.9991 5.052
13.0294 4.740
13.0596 4.427
13.0899 4.427
13.1202 5.208
13.1505 4.219
13.1807 4.948
13.2110 4.427
13.2413 5.104
13.2716 5.469
13.3019 4.010
13.3321 4.427
13.3624 5.104
13.3927 4.583
13.4230 4.792
13.4533 4.375
13.4835 5.052
13.5138 4.792
13.5441 3.177
13.5744 4.375
13.6046 4.479
13.6349 4.427
13.6652 4.792
13.6955 4.427
13.7258 3.385
13.7560 4.479
13.7863 4.375
13.8166 3.229
13.8469 5.156
13.8772 4.531
13.9074 5.208
13.9377 3.802
13.9680 4.740
13.9983 3.490
14.0285 3.958
14.0588 4.062
14.0891 4.792
14.1194 4.115
14.1497 3.802
14.1799 4.219
14.2102 4.167
14.2405 3.698
14.2708 4.740
14.3011 4.219
14.3313 4.062
14.3616 4.531
14.3919 4.687
14.4222 4.740
14.4524 4.271
14.4827 4.219
14.5130 4.062
14.5433 4.062
14.5736 4.062
14.6038 4.792
14.6341 4.687
14.6644 4.687
14.6947 4.687
14.7250 4.635
14.7552 4.635
14.7855 4.375
14.8158 5.469
14.8461 5.417
14.8764 4.896
14.9066 4.896
14.9369 4.896
14.9672 4.740
14.9975 5.104
15.0277 4.010
15.0580 4.844
15.0883 5.417
15.1186 5.260
15.1489 5.052
15.1791 5.677
15.2094 4.167
15.2397 4.687
15.2700 4.115
15.3003 4.479
15.3305 3.594
15.3608 3.906
15.3911 3.906
15.4214 4.896
15.4516 4.010
15.4819 4.219
15.5122 4.219
15.5425 4.219
15.5728 4.844
15.6030 5.000
15.6333 4.583
15.6636 4.635
15.6939 4.271
15.7242 4.167
15.7544 4.010
15.7847 3.802
15.8150 3.229
15.8453 3.698
15.8755 4.583
15.9058 4.427
15.9361 3.698
15.9664 4.115
15.9967 4.583
16.0269 3.906
16.0572 5.052
16.0875 3.906
16.1178 4.062
16.1481 4.167
16.1783 4.375
16.2086 4.323
16.2389 4.010
16.2692 4.792
16.2994 4.115
16.3297 3.125
16.3600 3.177
16.3903 4.427
16.4206 4.583
16.4508 4.375
16.4811 4.323
16.5114 4.427
16.5417 4.219
16.5720 4.792
16.6022 5.000
16.6325 4.010
16.6628 3.958
16.6931 4.740
16.7233 4.687
16.7536 4.323
16.7839 5.521
16.8142 4.062
16.8445 4.896
16.8747 3.906
16.9050 5.677
16.9353 5.156
16.9656 4.635
16.9959 5.365
17.0261 5.885
17.0564 5.990
17.0867 4.583
17.1170 4.792
17.1472 4.479
17.1775 4.844
17.2078 4.792
17.2381 4.792
17.2684 5.156
17.2986 3.698
17.3289 3.125
17.3592 3.854
17.3895 4.271
17.4198 4.115
17.4500 4.010
17.4803 3.698
17.5106 3.646
17.5409 3.646
17.5712 4.115
17.6014 3.802
17.6317 4.271
17.6620 5.052
17.6923 2.969
17.7225 4.115
17.7528 4.375
17.7831 3.385
17.8134 4.219
17.8437 4.687
17.8739 3.385
17.9042 4.219
17.9345 4.167
17.9648 4.531
17.9951 4.740
18.0253 2.969
18.0556 3.906
18.0859 3.750
18.1162 4.115
18.1464 4.687
18.1767 3.490
18.2070 4.375
18.2373 4.062
18.2676 3.594
18.2978 4.062
18.3281 3.906
18.3584 3.490
18.3887 3.802
18.4190 3.958
18.4492 4.010
18.4795 4.323
18.5098 4.375
18.5401 3.437
18.5703 2.812
18.6006 3.802
18.6309 3.490
18.6612 3.698
18.6915 4.583
18.7217 3.698
18.7520 3.854
18.7823 4.167
18.8126 4.427
18.8429 3.281
18.8731 4.167
18.9034 3.750
18.9337 3.698
18.9640 3.698
18.9942 3.229
19.0245 4.583
19.0548 4.531
19.0851 3.021
19.1154 4.219
19.1456 3.490
19.1759 3.542
19.2062 4.427
19.2365 4.323
19.2668 3.542
19.2970 3.646
19.3273 3.073
19.3576 3.229
19.3879 3.594
19.4181 3.333
19.4484 3.854
19.4787 2.344
19.5090 3.281
19.5393 4.010
19.5695 3.021
19.5998 3.281
19.6301 2.083
19.6604 3.750
19.6907 3.750
19.7209 3.594
19.7512 3.490
19.7815 3.125
19.8118 3.385
19.8420 2.917
19.8723 2.448
19.9026 2.708
19.9329 2.708
19.9632 3.385
19.9934 2.708
20.0237 2.396
20.0540 2.760
20.0843 3.281
20.1146 2.969
20.1448 2.865
20.1751 3.073
20.2054 3.229
20.2357 3.385
20.2659 2.812
20.2962 3.750
20.3265 3.229
20.3568 3.021
20.3871 3.021
20.4173 2.969
20.4476 3.750
20.4779 2.812
20.5082 3.490
20.5385 3.125
20.5687 4.531
20.5990 3.437
20.6293 3.177
20.6596 3.333
20.6899 2.760
20.7201 2.812
20.7504 2.812
20.7807 3.646
20.8110 3.177
20.8412 3.229
20.8715 3.229
20.9018 2.552
20.9321 3.021
20.9624 3.542
20.9926 3.125
21.0229 3.594
21.0532 2.552
21.0835 4.583
21.1138 5.104
21.1440 4.531
21.1743 5.208
21.2046 6.771
21.2349 7.083
21.2651 5.469
21.2954 6.354
21.3257 5.104
21.3560 4.115
21.3863 3.698
21.4165 4.115
21.4468 3.490
21.4771 3.906
21.5074 3.229
21.5377 3.490
21.5679 3.333
21.5982 3.490
21.6285 3.958
21.6588 2.969
21.6890 3.125
21.7193 4.115
21.7496 2.448
21.7799 3.021
21.8102 3.542
21.8404 2.969
21.8707 2.552
21.9010 3.646
21.9313 3.854
21.9616 2.917
21.9918 2.552
22.0221 3.281
22.0524 3.333
22.0827 2.760
22.1129 2.656
22.1432 3.437
22.1735 2.969
22.2038 2.135
22.2341 2.500
22.2643 2.865
22.2946 3.073
22.3249 3.229
22.3552 2.969
22.3855 3.333
22.4157 2.917
22.4460 3.073
22.4763 2.344
22.5066 3.854
22.5368 2.760
22.5671 2.969
22.5974 3.385
22.6277 3.281
22.6580 2.604
22.6882 3.073
22.7185 3.073
22.7488 3.073
22.7791 3.385
22.8094 3.021
22.8396 3.021
22.8699 3.594
22.9002 3.542
22.9305 2.604
22.9607 3.437
22.9910 4.167
23.0213 3.490
23.0516 3.490
23.0819 3.594
23.1121 3.958
23.1424 3.906
23.1727 3.594
23.2030 4.115
23.2333 3.698
23.2635 3.281
23.2938 4.010
23.3241 4.792
23.3544 3.542
23.3846 3.542
23.4149 4.844
23.4452 4.219
23.4755 4.740
23.5058 5.417
23.5360 3.958
23.5663 4.583
23.5966 4.531
23.6269 5.104
23.6572 5.312
23.6874 6.510
23.7177 5.521
23.7480 6.458
23.7783 6.719
23.8086 6.562
23.8388 7.552
23.8691 6.927
23.8994 8.594
23.9297 6.979
23.9599 6.979
23.9902 6.354
24.0205 5.781
24.0508 6.458
24.0811 6.406
24.1113 6.615
24.1416 6.302
24.1719 5.417
24.2022 5.521
24.2325 6.146
24.2627 5.781
24.2930 6.302
24.3233 6.875
24.3536 7.187
24.3838 8.802
24.4141 7.917
24.4444 8.802
24.4747 5.573
24.5050 7.865
24.5352 6.250
24.5655 6.198
24.5958 7.500
24.6261 4.844
24.6564 5.677
24.6866 5.625
24.7169 5.312
24.7472 4.635
24.7775 5.417
24.8077 4.167
24.8380 4.948
24.8683 4.479
24.8986 4.010
24.9289 4.896
24.9591 4.010
24.9894 4.635
25.0197 4.948
25.0500 5.052
25.0803 4.583
25.1105 4.531
25.1408 4.687
25.1711 5.156
25.2014 3.958
25.2316 5.104
25.2619 3.854
25.2922 5.000
25.3225 4.479
25.3528 4.323
25.3830 4.219
25.4133 4.844
25.4436 4.844
25.4739 4.583
25.5042 5.104
25.5344 4.010
25.5647 4.844
25.5950 4.219
25.6253 4.115
25.6555 5.573
25.6858 5.469
25.7161 3.906
25.7464 5.625
25.7767 4.740
25.8069 4.896
25.8372 5.208
25.8675 5.104
25.8978 3.385
25.9281 5.677
25.9583 5.260
25.9886 5.052
26.0189 5.260
26.0492 5.417
26.0794 6.458
26.1097 5.781
26.1400 5.469
26.1703 5.469
26.2006 5.833
26.2308 5.260
26.2611 5.208
26.2914 5.937
26.3217 6.667
26.3520 7.500
26.3822 5.365
26.4125 6.406
26.4428 5.729
26.4731 6.250
26.5034 6.302
26.5336 7.396
26.5639 6.406
26.5942 7.083
26.6245 8.229
26.6547 7.708
26.6850 8.437
26.7153 9.167
26.7456 8.594
26.7759 8.281
26.8061 9.792
26.8364 9.583
26.8667 11.458
26.8970 12.448
26.9273 11.667
26.9575 11.719
26.9878 9.115
27.0181 11.094
27.0484 9.740
27.0786 8.646
27.1089 8.854
27.1392 7.656
27.1695 6.823
27.1998 6.042
27.2300 6.302
27.2603 6.615
27.2906 6.302
27.3209 5.937
27.3512 6.354
27.3814 6.198
27.4117 6.615
27.4420 6.615
27.4723 5.417
27.5025 6.302
27.5328 5.052
27.5631 6.042
27.5934 5.260
27.6237 6.406
27.6539 5.156
27.6842 4.948
27.7145 4.844
27.7448 5.312
27.7751 4.740
27.8053 4.583
27.8356 5.573
27.8659 5.208
27.8962 4.427
27.9264 4.896
27.9567 6.250
27.9870 5.156
28.0173 4.427
28.0476 5.781
28.0778 5.104
28.1081 4.062
28.1384 5.312
28.1687 3.750
28.1990 5.052
28.2292 4.323
28.2595 4.167
28.2898 4.687
28.3201 4.219
28.3503 4.896
28.3806 4.375
28.4109 4.844
28.4412 4.427
28.4715 4.010
28.5017 5.677
28.5320 4.271
28.5623 4.740
28.5926 4.740
28.6229 4.896
28.6531 3.542
28.6834 4.167
28.7137 4.531
28.7440 4.010
28.7742 4.792
28.8045 5.521
28.8348 3.958
28.8651 4.427
28.8954 3.854
28.9256 4.687
28.9559 3.958
28.9862 4.479
29.0165 4.167
29.0468 4.271
29.0770 4.323
29.1073 4.375
29.1376 3.854
29.1679 3.698
29.1981 3.229
29.2284 3.906
29.2587 3.958
29.2890 4.115
29.3193 4.323
29.3495 4.010
29.3798 3.906
29.4101 4.219
29.4404 3.802
29.4707 4.010
29.5009 4.219
29.5312 3.229
29.5615 3.802
29.5918 4.167
29.6221 3.802
29.6523 4.010
29.6826 4.115
29.7129 4.687
29.7432 3.490
29.7734 4.375
29.8037 3.542
29.8340 4.792
29.8643 3.281
29.8946 4.792
29.9248 3.958
29.9551 4.323
29.9854 5.052
30.0157 4.635
30.0460 4.948
30.0762 3.750
30.1065 3.594
30.1368 4.010
30.1671 4.635
30.1973 4.635
30.2276 3.906
30.2579 3.646
30.2882 4.271
30.3185 4.219
30.3487 3.854
30.3790 4.427
30.4093 4.115
30.4396 5.208
30.4699 4.375
30.5001 4.479
30.5304 3.437
30.5607 4.479
30.5910 3.437
30.6212 5.156
30.6515 4.219
30.6818 4.062
30.7121 4.323
30.7424 5.208
30.7726 4.635
30.8029 5.104
30.8332 5.156
30.8635 4.740
30.8938 5.469
30.9240 5.260
30.9543 5.833
30.9846 6.406
31.0149 5.781
31.0451 6.406
31.0754 6.406
31.1057 7.812
31.1360 7.500
31.1663 9.010
31.1965 8.698
31.2268 10.260
31.2571 8.854
31.2874 10.990
31.3177 13.021
31.3479 14.948
31.3782 15.937
31.4085 17.656
31.4388 21.719
31.4690 24.687
31.4993 30.625
31.5296 30.208
31.5599 33.594
31.5902 36.667
31.6204 35.990
31.6507 34.167
31.6810 31.146
31.7113 27.396
31.7416 24.896
31.7718 22.240
31.8021 17.865
31.8324 16.562
31.8627 15.677
31.8929 13.698
31.9232 13.958
31.9535 12.292
31.9838 9.844
32.0141 10.469
32.0443 9.062
32.0746 8.385
32.1049 10.990
32.1352 9.115
32.1655 11.146
32.1957 10.260
32.2260 8.437
32.2563 8.906
32.2866 8.646
32.3169 9.219
32.3471 7.552
32.3774 7.031
32.4077 7.812
32.4380 6.771
32.4682 8.281
32.4985 7.292
32.5288 6.875
32.5591 7.448
32.5894 10.104
32.6196 10.208
32.6499 10.417
32.6802 13.750
32.7105 16.302
32.7408 18.281
32.7710 18.750
32.8013 16.823
32.8316 15.625
32.8619 13.281
32.8921 10.573
32.9224 8.802
32.9527 7.656
32.9830 8.854
33.0133 7.865
33.0435 7.760
33.0738 5.729
33.1041 7.031
33.1344 5.937
33.1647 6.094
33.1949 5.469
33.2252 6.146
33.2555 5.937
33.2858 5.312
33.3160 6.042
33.3463 6.823
33.3766 5.260
33.4069 5.937
33.4372 5.521
33.4674 5.677
33.4977 5.729
33.5280 5.365
33.5583 4.687
33.5886 6.667
33.6188 4.896
33.6491 4.896
33.6794 5.052
33.7097 7.135
33.7399 5.833
33.7702 5.573
33.8005 5.990
33.8308 7.083
33.8611 5.885
33.8913 7.500
33.9216 7.812
33.9519 6.979
33.9822 7.604
34.0125 8.333
34.0427 9.635
34.0730 9.323
34.1033 11.875
34.1336 13.490
34.1638 16.562
34.1941 20.833
34.2244 26.823
34.2547 31.146
34.2850 24.635
34.3152 28.021
34.3455 24.740
34.3758 19.948
34.4061 16.615
34.4364 14.010
34.4666 11.302
34.4969 9.323
34.5272 9.583
34.5575 9.531
34.5877 10.469
34.6180 10.573
34.6483 11.667
34.6786 11.667
34.7089 8.490
34.7391 10.781
34.7694 9.792
34.7997 12.240
34.8300 11.042
34.8603 12.865
34.8905 14.427
34.9208 16.458
34.9511 18.385
34.9814 17.500
35.0116 18.646
35.0419 16.875
35.0722 16.250
35.1025 12.812
35.1328 11.406
35.1630 10.573
35.1933 9.479
35.2236 10.521
35.2539 8.802
35.2842 10.000
35.3144 7.865
35.3447 8.802
35.3750 8.437
35.4053 8.437
35.4356 7.135
35.4658 8.646
35.4961 9.323
35.5264 7.760
35.5567 9.167
35.5869 10.781
35.6172 9.844
35.6475 9.948
35.6778 11.719
35.7081 12.083
35.7383 13.229
35.7686 13.021
35.7989 15.312
35.8292 18.177
35.8595 20.312
35.8897 23.906
35.9200 23.594
35.9503 26.042
35.9806 31.042
36.0108 39.062
36.0411 41.198
36.0714 44.219
36.1017 42.292
36.1320 44.427
36.1622 41.719
36.1925 37.344
36.2228 34.531
36.2531 28.333
36.2834 24.323
36.3136 22.708
36.3439 18.385
36.3742 16.615
36.4045 15.677
36.4347 11.771
36.4650 11.719
36.4953 10.885
36.5256 9.167
36.5559 8.177
36.5861 8.333
36.6164 8.073
36.6467 7.240
36.6770 8.437
36.7073 6.406
36.7375 5.365
36.7678 6.823
36.7981 6.458
36.8284 5.469
36.8586 5.260
36.8889 4.948
36.9192 5.052
36.9495 4.010
36.9798 4.896
37.0100 3.698
37.0403 4.740
37.0706 4.531
37.1009 4.687
37.1312 3.854
37.1614 5.417
37.1917 5.729
37.2220 3.594
37.2523 4.844
37.2825 4.479
37.3128 4.792
37.3431 4.844
37.3734 4.792
37.4037 4.427
37.4339 4.010
37.4642 3.958
37.4945 3.750
37.5248 4.115
37.5551 3.906
37.5853 4.427
37.6156 3.281
37.6459 4.062
37.6762 3.958
37.7064 3.333
37.7367 4.010
37.7670 3.646
37.7973 3.750
37.8276 3.177
37.8578 3.594
37.8881 3.125
37.9184 3.125
37.9487 3.542
37.9790 3.646
38.0092 3.073
38.0395 3.333
38.0698 3.021
38.1001 2.865
38.1304 3.958
38.1606 3.646
38.1909 3.073
38.2212 3.594
38.2515 3.490
38.2817 2.708
38.3120 3.333
38.3423 3.125
38.3726 3.125
38.4029 3.333
38.4331 2.917
38.4634 2.812
38.4937 3.698
38.5240 3.490
38.5543 3.385
38.5845 3.281
38.6148 3.385
38.6451 3.281
38.6754 3.177
38.7056 2.917
38.7359 3.281
38.7662 3.125
38.7965 3.073
38.8268 2.760
38.8570 3.125
38.8873 3.385
38.9176 2.969
38.9479 3.906
38.9782 2.604
39.0084 2.760
39.0387 2.917
39.0690 3.073
39.0993 3.125
39.1295 2.656
39.1598 2.812
39.1901 3.125
39.2204 2.760
39.2507 3.229
39.2809 2.708
39.3112 2.969
39.3415 3.229
39.3718 2.448
39.4021 2.708
39.4323 2.917
39.4626 3.229
39.4929 2.760
39.5232 2.448
39.5534 2.187
39.5837 2.812
39.6140 3.490
39.6443 2.031
39.6746 3.125
39.7048 2.500
39.7351 2.604
39.7654 3.125
39.7957 2.500
39.8260 2.500
39.8562 3.021
39.8865 2.760
39.9168 3.021
39.9471 2.656
39.9773 2.812
40.0076 2.396
40.0379 2.656
40.0682 3.177
40.0985 2.708
40.1287 3.073
40.1590 3.542
40.1893 2.865
40.2196 2.656
40.2499 3.125
40.2801 3.073
40.3104 2.500
40.3407 3.542
40.3710 3.906
40.4012 2.812
40.4315 3.125
40.4618 3.385
40.4921 3.229
40.5224 3.229
40.5526 3.698
40.5829 3.333
40.6132 3.437
40.6435 3.281
40.6738 3.594
40.7040 3.750
40.7343 4.531
40.7646 4.115
40.7949 5.625
40.8251 4.948
40.8554 5.260
40.8857 6.667
40.9160 6.667
40.9463 6.510
40.9765 6.406
41.0068 7.187
41.0371 5.937
41.0674 5.677
41.0977 5.417
41.1279 5.052
41.1582 5.521
41.1885 4.792
41.2188 3.385
41.2491 3.177
41.2793 3.594
41.3096 3.281
41.3399 3.646
41.3702 2.917
41.4004 2.917
41.4307 2.969
41.4610 3.646
41.4913 2.812
41.5216 3.333
41.5518 2.135
41.5821 3.073
41.6124 2.656
41.6427 3.281
41.6730 2.292
41.7032 2.240
41.7335 3.385
41.7638 2.865
41.7941 2.448
41.8243 2.187
41.8546 2.760
41.8849 3.073
41.9152 2.604
41.9455 2.969
41.9757 2.969
42.0060 2.552
42.0363 2.969
42.0666 2.083
42.0969 2.552
42.1271 1.875
42.1574 2.135
42.1877 2.604
42.2180 2.448
42.2482 1.979
42.2785 2.500
42.3088 2.187
42.3391 2.240
42.3694 2.656
42.3996 2.396
42.4299 2.396
42.4602 2.500
42.4905 1.927
42.5208 2.135
42.5510 2.344
42.5813 3.125
42.6116 2.656
42.6419 1.979
42.6721 2.552
42.7024 2.292
42.7327 2.865
42.7630 2.552
42.7933 2.292
42.8235 3.177
42.8538 2.083
42.8841 2.917
42.9144 2.396
42.9447 2.344
42.9749 1.927
43.0052 2.292
43.0355 2.292
43.0658 2.344
43.0960 3.177
43.1263 2.240
43.1566 2.396
43.1869 2.656
43.2172 2.083
43.2474 2.917
43.2777 2.031
43.3080 1.719
43.3383 2.187
43.3686 2.760
43.3988 2.604
43.4291 2.448
43.4594 2.708
43.4897 2.396
43.5199 2.708
43.5502 2.760
43.5805 2.344
43.6108 2.083
43.6411 2.865
43.6713 2.344
43.7016 2.396
43.7319 1.875
43.7622 2.396
43.7925 1.927
43.8227 2.865
43.8530 2.708
43.8833 2.240
43.9136 2.135
43.9439 2.448
43.9741 2.500
44.0044 2.083
44.0347 1.719
44.0650 1.667
44.0952 1.927
44.1255 2.552
44.1558 3.385
44.1861 2.917
44.2164 2.187
44.2466 2.604
44.2769 2.552
44.3072 3.542
44.3375 1.719
44.3678 2.135
44.3980 2.656
44.4283 2.760
44.4586 2.604
44.4889 3.021
44.5191 2.760
44.5494 2.604
44.5797 1.667
44.6100 2.240
44.6403 2.500
44.6705 2.760
44.7008 2.604
44.7311 3.333
44.7614 2.969
44.7917 2.292
44.8219 2.031
44.8522 2.865
44.8825 2.344
44.9128 2.656
44.9430 2.187
44.9733 2.917
45.0036 2.865
45.0339 2.708
45.0642 2.500
45.0944 2.448
45.1247 2.969
45.1550 2.344
45.1853 2.656
45.2156 2.500
45.2458 2.708
45.2761 2.448
45.3064 2.552
45.3367 1.719
45.3669 2.969
45.3972 2.448
45.4275 1.771
45.4578 2.604
45.4881 2.656
45.5183 2.708
45.5486 2.760
45.5789 2.031
45.6092 2.344
45.6395 2.604
45.6697 2.448
45.7000 2.448
45.7303 2.552
45.7606 2.344
45.7908 1.875
45.8211 2.812
45.8514 2.656
45.8817 2.187
45.9120 2.500
45.9422 2.552
45.9725 2.344
46.0028 2.604
46.0331 3.073
46.0634 2.344
46.0936 2.812
46.1239 2.448
46.1542 2.656
46.1845 2.135
46.2147 2.552
46.2450 2.604
46.2753 2.604
46.3056 2.708
46.3359 2.969
46.3661 2.604
46.3964 2.812
46.4267 2.865
46.4570 2.656
46.4873 3.229
46.5175 2.396
46.5478 3.073
46.5781 2.656
46.6084 3.125
46.6386 2.500
46.6689 2.500
46.6992 3.385
46.7295 3.073
46.7598 2.812
46.7900 2.865
46.8203 3.021
46.8506 3.854
46.8809 3.958
46.9112 2.917
46.9414 3.906
46.9717 4.635
47.0020 4.687
47.0323 5.104
47.0626 3.281
47.0928 5.312
47.1231 4.687
47.1534 5.937
47.1837 4.375
47.2139 5.156
47.2442 5.156
47.2745 6.615
47.3048 6.042
47.3351 5.833
47.3653 5.208
47.3956 5.885
47.4259 5.990
47.4562 6.667
47.4865 6.198
47.5167 5.260
47.5470 5.833
47.5773 5.365
47.6076 4.740
47.6378 4.479
47.6681 4.635
47.6984 3.437
47.7287 3.750
47.7590 4.531
47.7892 4.323
47.8195 3.750
47.8498 3.854
47.8801 4.062
47.9104 4.375
47.9406 4.323
47.9709 2.812
48.0012 3.125
48.0315 3.594
48.0617 2.969
48.0920 4.167
48.1223 3.177
48.1526 3.802
48.1829 2.917
48.2131 2.969
48.2434 2.969
48.2737 3.177
48.3040 3.437
48.3343 3.750
48.3645 2.812
48.3948 3.021
48.4251 2.865
48.4554 2.969
48.4856 3.229
48.5159 2.448
48.5462 2.708
48.5765 3.177
48.6068 3.437
48.6370 3.177
48.6673 3.125
48.6976 3.073
48.7279 2.604
48.7582 3.177
48.7884 3.385
48.8187 3.906
48.8490 2.812
48.8793 3.490
48.9095 3.698
48.9398 3.125
48.9701 3.958
49.0004 3.385
49.0307 3.906
49.0609 3.594
49.0912 4.271
49.1215 4.479
49.1518 3.802
49.1821 3.177
49.2123 3.854
49.2426 3.385
49.2729 3.958
49.3032 3.958
49.3334 3.073
49.3637 4.271
49.3940 4.635
49.4243 3.750
49.4546 3.854
49.4848 3.750
49.5151 4.635
49.5454 4.844
49.5757 4.479
49.6060 4.896
49.6362 5.260
49.6665 5.365
49.6968 4.687
49.7271 5.729
49.7574 4.531
49.7876 4.896
49.8179 5.052
49.8482 4.375
49.8785 4.375
49.9087 4.375
49.9390 4.010
49.9693 4.792
49.9996 4.010
50.0299 3.802
50.0601 3.906
50.0904 3.698
50.1207 3.906
50.1510 4.115
50.1813 3.906
50.2115 3.750
50.2418 3.750
50.2721 3.073
50.3024 4.271
50.3326 3.385
50.3629 2.656
50.3932 2.552
50.4235 3.437
50.4538 2.917
50.4840 3.281
50.5143 2.969
50.5446 2.865
50.5749 3.333
50.6052 3.490
50.6354 3.385
50.6657 3.177
50.6960 2.760
50.7263 2.396
50.7565 3.333
50.7868 2.812
50.8171 2.917
50.8474 3.021
50.8777 2.604
50.9079 2.656
50.9382 3.021
50.9685 2.604
50.9988 2.812
51.0291 2.344
51.0593 2.031
51.0896 2.604
51.1199 2.969
51.1502 2.344
51.1804 3.177
51.2107 2.604
51.2410 2.083
51.2713 2.969
51.3016 2.396
51.3318 2.292
51.3621 3.281
51.3924 2.344
51.4227 2.240
51.4530 2.552
51.4832 3.073
51.5135 3.333
51.5438 2.448
51.5741 2.760
51.6043 2.292
51.6346 3.281
51.6649 3.021
51.6952 3.281
51.7255 3.229
51.7557 3.437
51.7860 3.073
51.8163 4.062
51.8466 3.333
51.8769 4.219
51.9071 3.437
51.9374 3.333
51.9677 3.073
51.9980 3.073
52.0282 2.552
52.0585 2.812
52.0888 2.552
52.1191 3.385
52.1494 2.187
52.1796 2.865
52.2099 2.396
52.2402 2.083
52.2705 2.708
52.3008 3.177
52.3310 3.021
52.3613 2.344
52.3916 2.604
52.4219 3.281
52.4521 2.187
52.4824 2.708
52.5127 2.865
52.5430 2.708
52.5733 2.812
52.6035 2.656
52.6338 2.083
52.6641 2.812
52.6944 2.396
52.7247 2.135
52.7549 2.604
52.7852 2.031
52.8155 2.865
52.8458 2.500
52.8761 2.240
52.9063 2.760
52.9366 2.083
52.9669 2.604
52.9972 1.875
53.0274 3.490
53.0577 2.187
53.0880 2.656
53.1183 2.135
53.1486 2.656
53.1788 2.083
53.2091 3.073
53.2394 2.708
53.2697 2.656
53.3000 2.552
53.3302 2.708
53.3605 2.604
53.3908 2.292
53.4211 2.344
53.4513 1.927
53.4816 2.760
53.5119 3.542
53.5422 3.177
53.5725 2.344
53.6027 2.187
53.6330 2.552
53.6633 2.448
53.6936 2.031
53.7239 1.927
53.7541 2.083
53.7844 2.812
53.8147 2.552
53.8450 1.927
53.8752 2.344
53.9055 2.344
53.9358 2.187
53.9661 2.292
53.9964 2.396
54.0266 2.083
54.0569 1.979
54.0872 2.396
54.1175 2.760
54.1478 2.760
54.1780 2.031
54.2083 1.771
54.2386 2.396
54.2689 2.708
54.2991 2.135
54.3294 1.823
54.3597 2.552
54.3900 2.031
54.4203 3.125
54.4505 2.135
54.4808 2.448
54.5111 2.552
54.5414 2.656
54.5717 1.771
54.6019 2.448
54.6322 2.604
54.6625 2.812
54.6928 2.812
54.7230 2.344
54.7533 2.917
54.7836 2.448
54.8139 2.083
54.8442 1.771
54.8744 2.083
54.9047 2.917
54.9350 2.812
54.9653 3.177
54.9956 2.344
55.0258 2.448
55.0561 2.760
55.0864 2.917
55.1167 2.396
55.1469 2.083
55.1772 2.240
55.2075 2.656
55.2378 2.760
55.2681 2.708
55.2983 2.917
55.3286 2.604
55.3589 1.927
55.3892 2.500
55.4195 2.448
55.4497 3.021
55.4800 3.125
55.5103 2.656
55.5406 2.760
55.5709 3.125
55.6011 2.552
55.6314 3.073
55.6617 2.708
55.6920 3.021
55.7222 2.240
55.7525 3.125
55.7828 3.125
55.8131 3.073
55.8434 3.854
55.8736 3.698
55.9039 3.594
55.9342 4.167
55.9645 4.167
55.9948 5.208
56.0250 4.687
56.0553 5.312
56.0856 5.937
56.1159 6.406
56.1461 7.031
56.1764 7.760
56.2067 8.750
56.2370 9.740
56.2673 10.312
56.2975 10.000
56.3278 12.448
56.3581 12.969
56.3884 13.802
56.4187 13.073
56.4489 13.698
56.4792 13.229
56.5095 12.135
56.5398 12.135
56.5700 10.937
56.6003 11.823
56.6306 9.792
56.6609 9.479
56.6912 7.708
56.7214 7.396
56.7517 7.240
56.7820 5.937
56.8123 5.833
56.8426 4.479
56.8728 4.271
56.9031 4.479
56.9334 4.948
56.9637 4.010
56.9939 4.271
57.0242 3.906
57.0545 3.542
57.0848 3.281
57.1151 3.542
57.1453 3.490
57.1756 2.969
57.2059 3.281
57.2362 3.437
57.2665 2.917
57.2967 2.760
57.3270 2.969
57.3573 2.969
57.3876 2.812
57.4178 3.229
57.4481 3.021
57.4784 2.708
57.5087 2.917
57.5390 2.708
57.5692 2.812
57.5995 2.760
57.6298 2.708
57.6601 2.969
57.6904 2.812
57.7206 2.396
57.7509 2.812
57.7812 2.396
57.8115 2.500
57.8417 2.448
57.8720 2.500
57.9023 2.344
57.9326 2.344
57.9629 2.240
57.9931 2.969
58.0234 2.344
58.0537 2.604
58.0840 2.865
58.1143 2.865
58.1445 3.437
58.1748 3.437
58.2051 3.177
58.2354 2.865
58.2656 3.490
58.2959 3.594
58.3262 4.375
58.3565 3.802
58.3868 3.646
58.4170 3.750
58.4473 4.635
58.4776 5.365
58.5079 4.583
58.5382 5.156
58.5684 6.615
58.5987 6.562
58.6290 6.094
58.6593 5.156
58.6896 4.896
58.7198 5.260
58.7501 5.312
58.7804 5.156
58.8107 5.052
58.8409 3.542
58.8712 3.854
58.9015 3.854
58.9318 4.167
58.9621 3.177
58.9923 2.812
59.0226 2.760
59.0529 3.698
59.0832 2.865
59.1135 3.229
59.1437 4.167
59.1740 3.229
59.2043 2.604
59.2346 3.646
59.2648 3.698
59.2951 2.917
59.3254 2.760
59.3557 3.437
59.3860 2.969
59.4162 3.385
59.4465 2.969
59.4768 2.760
59.5071 3.125
59.5374 3.542
59.5676 2.865
59.5979 3.229
59.6282 3.229
59.6585 3.490
59.6887 3.385
59.7190 3.594
59.7493 3.490
59.7796 3.177
59.8099 3.177
59.8401 3.073
59.8704 3.646
59.9007 3.698
59.9310 5.156
59.9613 3.854
59.9915 4.844
60.0218 5.052
60.0521 5.312
60.0824 5.729
60.1126 5.156
60.1429 5.000
60.1732 5.833
60.2035 4.896
60.2338 4.948
60.2640 3.906
60.2943 4.271
60.3246 4.219
60.3549 3.229
60.3852 3.229
60.4154 4.583
60.4457 4.740
60.4760 4.167
60.5063 3.385
60.5365 3.177
60.5668 3.646
60.5971 3.490
60.6274 3.542
60.6577 3.854
60.6879 3.333
60.7182 2.760
60.7485 3.177
60.7788 2.969
60.8091 2.812
60.8393 2.396
60.8696 2.292
60.8999 2.917
60.9302 3.073
60.9604 2.396
60.9907 2.917
61.0210 2.135
61.0513 3.073
61.0816 3.021
61.1118 2.500
61.1421 2.708
61.1724 2.708
61.2027 2.812
61.2330 2.344
61.2632 2.865
61.2935 3.125
61.3238 3.646
61.3541 2.760
61.3844 2.135
61.4146 2.396
61.4449 2.812
61.4752 2.344
61.5055 2.396
61.5357 3.385
61.5660 2.604
61.5963 2.292
61.6266 3.229
61.6569 2.604
61.6871 2.500
61.7174 2.240
61.7477 2.031
61.7780 2.969
61.8083 2.500
61.8385 2.604
61.8688 3.281
61.8991 3.177
61.9294 2.917
61.9596 2.760
61.9899 3.177
62.0202 2.708
62.0505 3.125
62.0808 2.292
62.1110 2.917
62.1413 4.115
62.1716 3.385
62.2019 2.917
62.2322 3.698
62.2624 3.646
62.2927 3.646
62.3230 3.698
62.3533 4.531
62.3835 4.375
62.4138 4.792
62.4441 5.104
62.4744 5.573
62.5047 5.677
62.5349 7.135
62.5652 6.198
62.5955 8.281
62.6258 8.333
62.6561 6.198
62.6863 6.927
62.7166 6.927
62.7469 6.719
62.7772 6.927
62.8074 6.875
62.8377 6.771
62.8680 6.042
62.8983 5.365
62.9286 6.510
62.9588 5.521
62.9891 4.375
63.0194 4.792
63.0497 4.062
63.0800 4.062
63.1102 3.542
63.1405 2.552
63.1708 2.917
63.2011 3.750
63.2313 3.177
63.2616 3.906
63.2919 2.187
63.3222 3.646
63.3525 2.604
63.3827 2.812
63.4130 3.281
63.4433 2.656
63.4736 2.083
63.5039 2.656
63.5341 2.812
63.5644 3.073
63.5947 1.771
63.6250 1.771
63.6552 2.187
63.6855 2.552
63.7158 2.448
63.7461 2.292
63.7764 1.927
63.8066 2.448
63.8369 2.500
63.8672 2.708
63.8975 1.562
63.9278 2.031
63.9580 2.240
63.9883 2.083
64.0186 2.135
64.0489 2.656
64.0791 2.187
64.1094 1.927
64.1397 2.344
64.1700 2.448
64.2003 2.187
64.2305 2.552
64.2608 2.708
64.2911 1.771
64.3214 2.344
64.3517 2.396
64.3819 2.760
64.4122 2.448
64.4425 1.719
64.4728 2.292
64.5031 1.823
64.5333 2.083
64.5636 2.292
64.5939 2.083
64.6242 1.927
64.6544 1.979
64.6847 2.292
64.7150 1.927
64.7453 2.031
64.7756 1.510
64.8058 2.187
64.8361 1.042
64.8664 1.927
64.8967 2.135
64.9270 2.187
64.9572 1.875
64.9875 1.927
65.0178 1.510
65.0481 2.500
65.0783 2.083
65.1086 1.927
65.1389 1.719
65.1692 1.615
65.1995 2.031
65.2297 2.344
65.2600 1.823
65.2903 1.927
65.3206 1.458
65.3509 1.406
65.3811 2.448
65.4114 1.927
65.4417 1.927
65.4720 1.927
65.5022 1.354
65.5325 2.083
65.5628 1.615
65.5931 2.292
65.6234 2.448
65.6536 1.927
65.6839 1.927
65.7142 1.979
65.7445 2.031
65.7748 2.240
65.8050 2.760
65.8353 2.031
65.8656 3.698
65.8959 2.396
65.9261 2.292
65.9564 2.344
65.9867 2.292
66.0170 2.292
66.0473 2.969
66.0775 3.333
66.1078 2.917
66.1381 2.552
66.1684 2.969
66.1987 2.760
66.2289 2.448
66.2592 3.073
66.2895 3.281
66.3198 3.281
66.3500 2.760
66.3803 3.333
66.4106 2.500
66.4409 2.292
66.4712 2.708
66.5014 2.812
66.5317 1.875
66.5620 2.396
66.5923 1.875
66.6226 2.656
66.6528 2.344
66.6831 2.344
66.7134 2.292
66.7437 1.927
66.7739 2.396
66.8042 2.604
66.8345 2.344
66.8648 2.292
66.8951 2.396
66.9253 2.083
66.9556 2.448
66.9859 2.708
67.0162 1.875
67.0465 2.812
67.0767 2.812
67.1070 2.292
67.1373 2.500
67.1676 1.771
67.1978 2.552
67.2281 3.542
67.2584 2.917
67.2887 2.240
67.3190 3.698
67.3492 3.229
67.3795 3.229
67.4098 4.583
67.4401 4.010
67.4704 4.375
67.5006 4.896
67.5309 5.156
67.5612 5.521
67.5915 5.833
67.6218 7.292
67.6520 6.406
67.6823 7.656
67.7126 7.448
67.7429 7.500
67.7731 8.490
67.8034 7.135
67.8337 7.396
67.8640 7.240
67.8943 7.292
67.9245 7.135
67.9548 6.823
67.9851 6.458
68.0154 5.833
68.0457 5.417
68.0759 5.573
68.1062 4.167
68.1365 3.281
68.1668 4.010
68.1970 3.698
68.2273 3.594
68.2576 3.490
68.2879 3.750
68.3182 3.698
68.3484 3.437
68.3787 3.906
68.4090 3.437
68.4393 3.125
68.4696 3.437
68.4998 4.115
68.5301 3.229
68.5604 3.281
68.5907 3.750
68.6209 2.708
68.6512 4.323
68.6815 4.844
68.7118 4.844
68.7421 4.531
68.7723 4.896
68.8026 3.542
68.8329 4.792
68.8632 4.687
68.8935 4.531
68.9237 5.469
68.9540 4.844
68.9843 4.479
69.0146 4.583
69.0448 5.052
69.0751 4.479
69.1054 4.531
69.1357 3.437
69.1660 4.062
69.1962 4.010
69.2265 3.906
69.2568 2.760
69.2871 2.500
69.3174 2.552
69.3476 2.604
69.3779 2.604
69.4082 2.604
69.4385 2.604
69.4687 2.396
69.4990 2.500
69.5293 1.823
69.5596 2.812
69.5899 2.448
69.6201 1.927
69.6504 1.927
69.6807 2.292
69.7110 2.292
69.7413 1.979
69.7715 2.135
69.8018 2.135
69.8321 2.135
69.8624 1.719
69.8926 2.656
69.9229 1.771
69.9532 1.979
69.9835 1.667
70.0138 2.344
70.0440 2.292
70.0743 2.552
70.1046 3.177
70.1349 2.292
70.1652 2.865
70.1954 2.656
70.2257 2.812
70.2560 2.292
70.2863 2.396
70.3166 2.344
70.3468 2.812
70.3771 1.354
70.4074 2.031
70.4377 1.771
70.4679 2.240
70.4982 2.240
70.5285 2.240
70.5588 2.083
70.5891 1.771
70.6193 1.667
70.6496 2.031
70.6799 2.240
70.7102 1.771
70.7405 2.240
70.7707 1.771
70.8010 2.344
70.8313 1.667
70.8616 1.771
70.8918 1.927
70.9221 1.927
70.9524 2.656
70.9827 2.187
71.0130 1.927
71.0432 2.187
71.0735 1.719
71.1038 1.562
71.1341 1.198
71.1644 1.615
71.1946 1.510
71.2249 1.771
71.2552 1.562
71.2855 1.719
71.3157 1.927
71.3460 1.562
71.3763 1.823
71.4066 1.667
71.4369 1.354
71.4671 1.979
71.4974 1.354
71.5277 1.979
71.5580 2.552
71.5883 1.406
71.6185 1.458
71.6488 1.562
71.6791 1.771
71.7094 1.250
71.7396 1.667
71.7699 2.083
71.8002 1.562
71.8305 1.458
71.8608 1.771
71.8910 1.771
71.9213 1.771
71.9516 1.510
71.9819 1.823
72.0122 2.031
72.0424 1.719
72.0727 2.135
72.1030 1.406
72.1333 2.240
72.1635 1.667
72.1938 2.135
72.2241 1.875
72.2544 1.875
72.2847 1.719
72.3149 2.031
72.3452 2.760
72.3755 2.760
72.4058 2.552
72.4361 2.240
72.4663 2.240
72.4966 1.875
72.5269 2.396
72.5572 2.031
72.5874 1.719
72.6177 2.135
72.6480 1.927
72.6783 1.302
72.7086 2.344
72.7388 1.615
72.7691 2.083
72.7994 1.823
72.8297 1.458
72.8600 2.083
72.8902 1.302
72.9205 1.719
72.9508 1.458
72.9811 1.562
73.0113 1.354
73.0416 2.292
73.0719 1.719
73.1022 1.719
73.1325 1.354
73.1627 2.187
73.1930 1.719
73.2233 1.719
73.2536 2.083
73.2839 1.302
73.3141 1.510
73.3444 1.250
73.3747 1.354
73.4050 1.615
73.4353 1.615
73.4655 1.458
73.4958 1.771
73.5261 1.719
73.5564 1.615
73.5866 1.615
73.6169 1.927
73.6472 1.562
73.6775 1.354
73.7078 2.135
73.7380 1.562
73.7683 1.250
73.7986 1.562
73.8289 1.510
73.8592 1.354
73.8894 2.031
73.9197 1.667
73.9500 1.510
73.9803 1.094
74.0105 1.302
74.0408 1.510
74.0711 1.562
74.1014 2.031
74.1317 1.146
74.1619 1.458
74.1922 1.250
74.2225 1.510
74.2528 2.187
74.2831 2.344
74.3133 1.875
74.3436 1.615
74.3739 1.771
74.4042 1.354
74.4344 1.615
74.4647 2.187
74.4950 1.615
74.5253 1.146
74.5556 0.937
74.5858 1.354
74.6161 1.198
74.6464 1.146
74.6767 1.302
74.7070 1.719
74.7372 1.094
74.7675 1.510
74.7978 1.354
74.8281 1.510
74.8583 1.562
74.8886 1.042
74.9189 1.615
74.9492 1.719
74.9795 1.094
75.0097 1.354
75.0400 1.198
75.0703 1.667
75.1006 1.719
75.1309 2.187
75.1611 1.615
75.1914 1.562
75.2217 1.979
75.2520 1.719
75.2822 2.031
75.3125 1.823
75.3428 1.250
75.3731 1.302
75.4034 1.562
75.4336 1.302
75.4639 1.510
75.4942 1.458
75.5245 1.302
75.5548 1.354
75.5850 1.615
75.6153 1.042
75.6456 1.354
75.6759 1.719
75.7061 1.198
75.7364 1.458
75.7667 1.042
75.7970 0.937
75.8273 1.354
75.8575 1.667
75.8878 1.042
75.9181 1.406
75.9484 1.094
75.9787 1.667
76.0089 1.406
76.0392 1.667
76.0695 1.875
76.0998 1.458
76.1301 1.354
76.1603 1.406
76.1906 1.250
76.2209 1.302
76.2512 1.667
76.2814 1.146
76.3117 1.771
76.3420 1.875
76.3723 1.406
76.4026 1.667
76.4328 1.458
76.4631 1.667
76.4934 1.875
76.5237 1.771
76.5540 2.292
76.5842 1.562
76.6145 1.979
76.6448 1.667
76.6751 2.187
76.7053 2.187
76.7356 1.927
76.7659 1.354
76.7962 2.187
76.8265 1.927
76.8567 1.667
76.8870 1.667
76.9173 1.562
76.9476 2.083
76.9779 1.562
77.0081 1.667
77.0384 1.719
77.0687 1.927
77.0990 1.042
77.1292 1.823
77.1595 2.135
77.1898 1.719
77.2201 2.031
77.2504 1.302
77.2806 1.979
77.3109 1.875
77.3412 1.458
77.3715 1.667
77.4018 1.562
77.4320 1.510
77.4623 1.406
77.4926 1.198
77.5229 2.031
77.5531 1.302
77.5834 1.458
77.6137 2.083
77.6440 1.406
77.6743 1.042
77.7045 1.615
77.7348 1.198
77.7651 1.615
77.7954 1.615
77.8257 1.615
77.8559 1.667
77.8862 0.990
77.9165 1.354
77.9468 1.667
77.9770 1.927
78.0073 1.667
78.0376 1.719
78.0679 1.198
78.0982 1.667
78.1284 1.562
78.1587 1.510
78.1890 1.094
78.2193 2.135
78.2496 1.354
78.2798 1.458
78.3101 1.615
78.3404 1.719
78.3707 1.719
78.4009 1.615
78.4312 1.667
78.4615 1.250
78.4918 1.146
78.5221 0.990
78.5523 1.510
78.5826 1.562
78.6129 1.198
78.6432 1.667
78.6735 1.406
78.7037 1.250
78.7340 1.406
78.7643 1.302
78.7946 1.146
78.8248 1.458
78.8551 1.562
78.8854 1.198
78.9157 1.042
78.9460 1.302
78.9762 1.406
79.0065 1.615
79.0368 1.667
79.0671 1.667
79.0974 0.990
79.1276 1.042
79.1579 1.250
79.1882 1.458
79.2185 1.354
79.2488 1.302
79.2790 1.198
79.3093 1.667
79.3396 1.198
79.3699 1.927
79.4001 1.719
79.4304 1.719
79.4607 1.510
79.4910 1.198
79.5213 1.510
79.5515 1.927
79.5818 1.562
79.6121 1.719
79.6424 1.510
79.6727 0.885
79.7029 1.771
79.7332 2.135
79.7635 1.198
79.7938 1.250
79.8240 1.198
79.8543 1.354
79.8846 1.615
79.9149 1.354
79.9452 1.354
79.9754 1.562
80.0057 1.198
80.0360 1.250
80.0663 1.562
80.0966 1.562
80.1268 1.667
80.1571 1.562
80.1874 1.458
80.2177 2.292
80.2479 1.771
80.2782 2.552
80.3085 1.667
80.3388 1.979
80.3691 1.979
80.3993 1.979
80.4296 1.562
80.4599 1.562
80.4902 2.240
80.5205 1.771
80.5507 1.354
80.5810 1.823
80.6113 1.719
80.6416 2.240
80.6718 1.927
80.7021 1.562
80.7324 1.615
80.7627 1.302
80.7930 1.927
80.8232 1.823
80.8535 1.510
80.8838 1.354
80.9141 1.198
80.9444 1.458
80.9746 1.979
81.0049 1.562
81.0352 1.615
81.0655 1.667
81.0957 1.354
81.1260 1.771
81.1563 1.823
81.1866 1.667
81.2169 1.875
81.2471 1.875
81.2774 1.302
81.3077 1.406
81.3380 1.510
81.3683 1.354
81.3985 1.667
81.4288 1.667
81.4591 1.719
81.4894 1.562
81.5196 1.458
81.5499 1.562
81.5802 1.406
81.6105 1.198
81.6408 1.354
81.6710 1.302
81.7013 1.719
81.7316 1.667
81.7619 1.250
81.7922 1.667
81.8224 1.510
81.8527 1.042
81.8830 1.719
81.9133 1.979
81.9436 1.562
81.9738 1.354
82.0041 1.667
82.0344 1.146
82.0647 1.823
82.0949 1.354
82.1252 2.031
82.1555 1.250
82.1858 1.354
82.2161 1.771
82.2463 1.667
82.2766 1.667
82.3069 1.615
82.3372 1.302
82.3675 1.823
82.3977 1.302
82.4280 1.458
82.4583 1.250
82.4886 1.354
82.5188 1.354
82.5491 1.354
82.5794 1.771
82.6097 1.146
82.6400 1.042
82.6702 1.615
82.7005 1.250
82.7308 1.250
82.7611 1.198
82.7914 1.250
82.8216 1.406
82.8519 0.937
82.8822 1.302
82.9125 1.562
82.9427 1.146
82.9730 0.729
83.0033 1.250
83.0336 1.406
83.0639 2.187
83.0941 1.198
83.1244 1.094
83.1547 1.719
83.1850 1.510
83.2153 1.667
83.2455 1.302
83.2758 1.354
83.3061 1.406
83.3364 1.510
83.3666 1.510
83.3969 1.302
83.4272 1.823
83.4575 1.198
83.4878 1.302
83.5180 1.354
83.5483 1.302
83.5786 1.198
83.6089 1.354
83.6392 1.927
83.6694 0.990
83.6997 1.094
83.7300 1.250
83.7603 1.510
83.7905 1.354
83.8208 1.198
83.8511 1.927
83.8814 1.198
83.9117 1.615
83.9419 0.729
83.9722 1.354
84.0025 1.615
84.0328 1.354
84.0631 0.937
84.0933 1.250
84.1236 1.250
84.1539 1.146
84.1842 1.250
84.2144 1.146
84.2447 1.250
84.2750 1.094
84.3053 1.562
84.3356 1.198
84.3658 1.667
84.3961 1.615
84.4264 1.250
84.4567 1.354
84.4870 1.458
84.5172 1.562
84.5475 1.094
84.5778 1.458
84.6081 1.562
84.6383 1.250
84.6686 1.250
84.6989 1.406
84.7292 1.562
84.7595 1.250
84.7897 1.510
84.8200 1.875
84.8503 1.458
84.8806 1.562
84.9109 1.510
84.9411 1.510
84.9714 0.833
85.0017 1.042
85.0320 1.875
85.0623 1.042
85.0925 1.823
85.1228 1.667
85.1531 1.615
85.1834 1.510
85.2136 1.354
85.2439 1.302
85.2742 1.354
85.3045 1.354
85.3348 1.562
85.3650 1.094
85.3953 1.354
85.4256 1.250
85.4559 1.198
85.4862 1.042
85.5164 1.354
85.5467 1.406
85.5770 1.615
85.6073 0.990
85.6375 1.094
85.6678 0.937
85.6981 1.094
85.7284 1.094
85.7587 2.031
85.7889 1.458
85.8192 1.302
85.8495 1.615
85.8798 1.406
85.9101 1.146
85.9403 1.094
85.9706 0.990
86.0009 1.667
86.0312 1.198
86.0614 1.510
86.0917 1.198
86.1220 1.198
86.1523 0.625
86.1826 1.250
86.2128 1.198
86.2431 1.406
86.2734 1.146
86.3037 1.406
86.3340 0.677
86.3642 1.198
86.3945 2.135
86.4248 1.510
86.4551 1.354
86.4853 1.250
86.5156 1.458
86.5459 1.458
86.5762 0.885
86.6065 0.833
86.6367 1.302
86.6670 1.458
86.6973 1.667
86.7276 1.562
86.7579 1.458
86.7881 1.354
86.8184 1.667
86.8487 1.458
86.8790 1.771
86.9092 1.146
86.9395 1.250
86.9698 1.250
87.0001 1.198
87.0304 1.302
87.0606 2.031
87.0909 1.302
87.1212 1.562
87.1515 1.406
87.1818 1.510
87.2120 1.562
87.2423 0.990
87.2726 1.198
87.3029 1.458
87.3331 1.146
87.3634 1.250
87.3937 1.250
87.4240 1.615
87.4543 0.990
87.4845 1.042
87.5148 1.667
87.5451 1.094
87.5754 1.354
87.6057 1.146
87.6359 1.198
87.6662 1.510
87.6965 2.135
87.7268 1.771
87.7571 1.198
87.7873 1.250
87.8176 1.250
87.8479 1.562
87.8782 1.198
87.9084 0.990
87.9387 2.135
87.9690 1.875
87.9993 0.885
88.0296 1.146
88.0598 1.562
88.0901 1.302
88.1204 1.771
88.1507 1.771
88.1810 1.458
88.2112 1.562
88.2415 1.823
88.2718 1.198
88.3021 1.458
88.3323 1.667
88.3626 1.354
88.3929 1.667
88.4232 1.771
88.4535 1.927
88.4837 2.083
88.5140 1.458
88.5443 1.198
88.5746 1.719
88.6049 2.135
88.6351 1.094
88.6654 1.667
88.6957 1.302
88.7260 1.406
88.7562 1.771
88.7865 1.562
88.8168 2.135
88.8471 1.615
88.8774 1.875
88.9076 1.667
88.9379 2.604
88.9682 1.719
88.9985 1.719
89.0288 2.656
89.0590 2.396
89.0893 2.656
89.1196 2.031
89.1499 2.448
89.1801 2.344
89.2104 2.344
89.2407 2.031
89.2710 2.552
89.3013 1.615
89.3315 2.969
89.3618 2.083
89.3921 2.552
89.4224 2.917
89.4527 2.448
89.4829 2.604
89.5132 2.604
89.5435 2.083
89.5738 2.344
89.6040 2.656
89.6343 1.979
89.6646 2.396
89.6949 1.927
89.7252 2.396
89.7554 1.302
89.7857 2.552
89.8160 1.979
89.8463 1.927
89.8766 1.979
89.9068 2.187
89.9371 1.927
89.9674 1.562
89.9977 1.562
90.0279 1.667
90.0582 1.719
90.0885 1.771
90.1188 1.510
90.1491 1.146
90.1793 1.667
90.2096 1.615
90.2399 1.354
90.2702 1.198
90.3005 1.615
90.3307 1.302
90.3610 1.198
90.3913 1.719
90.4216 1.615
90.4518 1.510
90.4821 1.406
90.5124 1.771
90.5427 1.667
90.5730 1.146
90.6032 1.406
90.6335 1.146
90.6638 1.458
90.6941 1.458
90.7244 1.094
90.7546 1.562
90.7849 1.146
90.8152 1.562
90.8455 1.667
90.8758 1.771
90.9060 1.615
90.9363 1.510
90.9666 1.510
90.9969 1.198
91.0271 1.198
91.0574 1.823
91.0877 1.354
91.1180 1.250
91.1483 1.354
91.1785 1.198
91.2088 1.094
91.2391 1.302
91.2694 1.719
91.2997 1.146
91.3299 0.990
91.3602 1.667
91.3905 1.562
91.4208 1.510
91.4510 1.927
91.4813 1.562
91.5116 1.510
91.5419 1.667
91.5722 1.771
91.6024 1.562
91.6327 1.510
91.6630 1.198
91.6933 1.094
91.7236 1.562
91.7538 1.146
91.7841 1.198
91.8144 1.198
91.8447 1.302
91.8749 1.719
91.9052 1.458
91.9355 1.458
91.9658 1.250
91.9961 1.927
92.0263 1.458
92.0566 1.510
92.0869 0.885
92.1172 1.562
92.1475 1.667
92.1777 1.302
92.2080 1.302
92.2383 1.719
92.2686 1.146
92.2988 1.302
92.3291 2.187
92.3594 1.823
92.3897 1.771
92.4200 1.927
92.4502 1.719
92.4805 1.667
92.5108 2.187
92.5411 2.031
92.5714 2.135
92.6016 1.354
92.6319 2.135
92.6622 1.875
92.6925 2.292
92.7227 1.615
92.7530 2.135
92.7833 1.562
92.8136 1.302
92.8439 1.823
92.8741 1.354
92.9044 1.406
92.9347 1.875
92.9650 1.562
92.9953 1.458
93.0255 1.771
93.0558 1.354
93.0861 1.458
93.1164 1.458
93.1466 1.615
93.1769 1.302
93.2072 2.240
93.2375 1.979
93.2678 1.823
93.2980 0.990
93.3283 1.302
93.3586 1.458
93.3889 1.510
93.4192 1.198
93.4494 1.927
93.4797 0.990
93.5100 1.562
93.5403 1.406
93.5706 1.667
93.6008 1.250
93.6311 1.250
93.6614 1.250
93.6917 1.562
93.7219 1.823
93.7522 1.094
93.7825 1.250
93.8128 0.990
93.8431 1.562
93.8733 1.719
93.9036 1.354
93.9339 1.667
93.9642 1.354
93.9945 1.250
94.0247 1.927
94.0550 1.667
94.0853 1.250
94.1156 1.302
94.1458 1.198
94.1761 1.875
94.2064 1.979
94.2367 1.771
94.2670 1.510
94.2972 1.510
94.3275 2.083
94.3578 1.510
94.3881 1.250
94.4184 1.719
94.4486 1.562
94.4789 2.292
94.5092 1.510
94.5395 1.927
94.5697 1.354
94.6000 1.927
94.6303 1.719
94.6606 1.875
94.6909 1.615
94.7211 2.292
94.7514 2.031
94.7817 2.187
94.8120 2.500
94.8423 2.552
94.8725 2.760
94.9028 2.240
94.9331 2.656
94.9634 2.344
94.9936 2.708
95.0239 2.292
95.0542 2.708
95.0845 2.187
95.1148 2.448
95.1450 2.135
95.1753 2.500
95.2056 2.240
95.2359 2.187
95.2662 2.656
95.2964 2.292
95.3267 2.240
95.3570 2.240
95.3873 1.510
95.4175 2.240
95.4478 2.500
95.4781 2.240
95.5084 1.667
95.5387 1.875
95.5689 2.187
95.5992 1.458
95.6295 1.667
95.6598 1.823
95.6901 2.031
95.7203 1.510
95.7506 1.927
95.7809 1.562
95.8112 1.771
95.8414 1.562
95.8717 1.719
95.9020 1.667
95.9323 1.719
95.9626 1.250
95.9928 1.302
96.0231 1.406
96.0534 1.406
96.0837 1.198
96.1140 1.406
96.1442 0.937
96.1745 1.146
96.2048 1.042
96.2351 1.510
96.2653 1.667
96.2956 1.042
96.3259 1.562
96.3562 1.771
96.3865 1.198
96.4167 1.875
96.4470 1.302
96.4773 1.042
96.5076 1.510
96.5379 1.615
96.5681 1.510
96.5984 1.719
96.6287 1.771
96.6590 1.667
96.6893 1.771
96.7195 1.250
96.7498 1.042
96.7801 1.771
96.8104 1.719
96.8406 1.719
96.8709 1.146
96.9012 1.771
96.9315 2.031
96.9618 1.667
96.9920 1.458
97.0223 1.406
97.0526 1.719
97.0829 1.927
97.1132 1.250
97.1434 1.719
97.1737 1.458
97.2040 1.458
97.2343 1.146
97.2645 1.250
97.2948 1.719
97.3251 1.302
97.3554 1.146
97.3857 1.354
97.4159 1.354
97.4462 1.406
97.4765 2.187
97.5068 1.406
97.5371 1.250
97.5673 1.354
97.5976 1.354
97.6279 1.250
97.6582 2.031
97.6884 1.510
97.7187 1.406
97.7490 1.458
97.7793 1.979
97.8096 1.302
97.8398 1.250
97.8701 1.667
97.9004 1.354
97.9307 2.187
97.9610 1.771
97.9912 1.250
98.0215 2.292
98.0518 1.198
98.0821 1.562
98.1123 2.344
98.1426 1.823
98.1729 2.031
98.2032 1.406
98.2335 1.771
98.2637 1.875
98.2940 2.240
98.3243 1.510
98.3546 1.875
98.3849 1.562
98.4151 1.615
98.4454 1.615
98.4757 2.031
98.5060 1.615
98.5362 1.771
98.5665 1.719
98.5968 1.510
98.6271 1.510
98.6574 1.771
98.6876 2.031
98.7179 1.771
98.7482 1.823
98.7785 1.406
98.8088 1.823
98.8390 1.562
98.8693 1.510
98.8996 1.406
98.9299 1.302
98.9601 1.458
98.9904 1.771
99.0207 1.510
99.0510 1.875
99.0813 1.719
99.1115 1.198
99.1418 1.719
99.1721 1.094
99.2024 1.406
99.2327 1.458
99.2629 1.719
99.2932 1.719
99.3235 1.406
99.3538 1.667
99.3841 1.771
99.4143 1.146
99.4446 1.458
99.4749 1.667
99.5052 1.510
99.5354 1.146
99.5657 1.458
99.5960 1.198
99.6263 1.146
99.6566 1.094
99.6868 1.406
99.7171 1.042
99.7474 1.302
99.7777 1.406
99.8080 1.406
99.8382 1.510
99.8685 1.302
99.8988 1.094
99.9291 1.354
99.9593 0.937
99.9896 1.667
100.0199 1.719
100.0502 1.354
100.0805 1.250
100.1107 1.250
100.1410 1.042
100.1713 1.302
100.2016 1.302
100.2319 1.510
100.2621 1.094
100.2924 1.562
100.3227 1.250
100.3530 1.198
100.3832 1.406
100.4135 1.667
100.4438 1.406
100.4741 1.198
100.5044 1.979
100.5346 1.302
100.5649 1.250
100.5952 1.302
100.6255 1.406
100.6558 1.562
100.6860 1.354
100.7163 1.667
100.7466 1.927
100.7769 1.198
100.8071 1.719
100.8374 1.094
100.8677 1.823
100.8980 1.510
100.9283 1.302
100.9585 1.667
100.9888 1.458
101.0191 1.667
101.0494 1.094
101.0797 1.354
101.1099 1.302
101.1402 1.406
101.1705 1.302
101.2008 1.302
101.2310 1.615
101.2613 1.562
101.2916 1.198
101.3219 1.458
101.3522 1.302
101.3824 1.458
101.4127 1.094
101.4430 1.146
101.4733 1.510
101.5036 1.562
101.5338 0.781
101.5641 1.250
101.5944 1.719
101.6247 1.250
101.6549 1.302
101.6852 1.615
101.7155 1.667
101.7458 1.198
101.7761 1.562
101.8063 1.354
101.8366 1.771
101.8669 1.198
101.8972 1.198
101.9275 1.250
101.9577 2.187
101.9880 1.458
102.0183 1.198
102.0486 1.354
102.0788 1.875
102.1091 1.719
102.1394 1.146
102.1697 1.354
102.2000 1.667
102.2302 1.510
102.2605 1.562
102.2908 1.667
102.3211 1.406
102.3514 1.927
102.3816 1.771
102.4119 1.562
102.4422 1.354
102.4725 1.667
102.5028 1.979
102.5330 1.719
102.5633 1.719
102.5936 2.448
102.6239 1.354
102.6541 1.927
102.6844 1.875
102.7147 1.979
102.7450 2.083
102.7753 1.875
102.8055 1.302
102.8358 1.302
102.8661 1.875
102.8964 1.458
102.9267 1.562
102.9569 1.719
102.9872 2.083
103.0175 1.354
103.0478 1.979
103.0780 1.406
103.1083 1.562
103.1386 1.406
103.1689 1.667
103.1992 2.031
103.2294 2.135
103.2597 1.927
103.2900 2.187
103.3203 1.667
103.3506 2.448
103.3808 1.615
103.4111 2.396
103.4414 2.083
103.4717 2.083
103.5019 1.510
103.5322 1.771
103.5625 1.458
103.5928 1.875
103.6231 1.667
103.6533 1.771
103.6836 1.250
103.7139 1.927
103.7442 1.875
103.7745 1.979
103.8047 2.135
103.8350 1.406
103.8653 1.771
103.8956 2.031
103.9258 1.771
103.9561 1.615
103.9864 1.562
104.0167 1.667
104.0470 1.771
104.0772 1.771
104.1075 1.875
104.1378 1.458
104.1681 1.562
104.1984 1.406
104.2286 1.458
104.2589 1.927
104.2892 1.146
104.3195 1.719
104.3497 1.510
104.3800 1.406
104.4103 1.510
104.4406 1.667
104.4709 1.406
104.5011 1.823
104.5314 1.250
104.5617 1.510
104.5920 1.406
104.6223 1.406
104.6525 1.458
104.6828 1.406
104.7131 1.146
104.7434 1.510
104.7736 1.875
104.8039 1.250
104.8342 1.302
104.8645 1.250
104.8948 1.042
104.9250 1.354
104.9553 1.562
104.9856 1.406
105.0159 1.615
105.0462 1.146
105.0764 1.458
105.1067 1.250
105.1370 1.302
105.1673 0.990
105.1975 0.990
105.2278 1.250
105.2581 1.406
105.2884 1.510
105.3187 1.354
105.3489 1.823
105.3792 0.990
105.4095 1.458
105.4398 1.406
105.4701 1.406
105.5003 1.094
105.5306 1.042
105.5609 1.458
105.5912 1.250
105.6215 1.719
105.6517 1.406
105.6820 1.562
105.7123 1.406
105.7426 1.406
105.7728 1.354
105.8031 1.146
105.8334 1.458
105.8637 1.510
105.8940 1.562
105.9242 1.406
105.9545 1.250
105.9848 1.198
106.0151 1.302
106.0454 1.510
106.0756 1.615
106.1059 1.302
106.1362 1.198
106.1665 1.094
106.1967 1.198
106.2270 1.406
106.2573 1.406
106.2876 1.615
106.3179 1.719
106.3481 1.562
106.3784 1.354
106.4087 1.458
106.4390 1.146
106.4693 1.302
106.4995 1.198
106.5298 1.406
106.5601 1.510
106.5904 1.667
106.6206 1.458
106.6509 0.937
106.6812 1.250
106.7115 1.458
106.7418 1.250
106.7720 1.667
106.8023 1.146
106.8326 1.250
106.8629 1.250
106.8932 1.198
106.9234 1.406
106.9537 1.510
106.9840 1.823
107.0143 0.990
107.0445 1.458
107.0748 0.937
107.1051 1.302
107.1354 1.354
107.1657 1.198
107.1959 1.146
107.2262 1.458
107.2565 1.823
107.2868 1.146
107.3171 1.562
107.3473 1.458
107.3776 1.458
107.4079 1.510
107.4382 1.667
107.4684 1.198
107.4987 1.146
107.5290 1.719
107.5593 1.042
107.5896 1.510
107.6198 1.562
107.6501 1.510
107.6804 1.458
107.7107 1.354
107.7410 1.198
107.7712 1.667
107.8015 1.250
107.8318 0.781
107.8621 0.885
107.8923 1.094
107.9226 0.990
107.9529 1.510
107.9832 1.042
108.0135 1.562
108.0437 1.042
108.0740 1.094
108.1043 1.771
108.1346 1.510
108.1649 1.510
108.1951 1.198
108.2254 1.510
108.2557 0.885
108.2860 1.458
108.3163 1.302
108.3465 1.615
108.3768 1.250
108.4071 1.510
108.4374 1.250
108.4676 1.771
108.4979 1.250
108.5282 0.937
108.5585 1.406
108.5888 1.146
108.6190 1.823
108.6493 1.406
108.6796 0.990
108.7099 1.615
108.7402 1.354
108.7704 1.458
108.8007 1.250
108.8310 1.146
108.8613 1.146
108.8915 1.510
108.9218 1.615
108.9521 1.146
108.9824 0.937
109.0127 1.354
109.0429 1.927
109.0732 1.771
109.1035 1.458
109.1338 1.146
109.1641 1.615
109.1943 1.823
109.2246 1.615
109.2549 1.354
109.2852 1.667
109.3154 1.250
109.3457 1.458
109.3760 1.250
109.4063 1.771
109.4366 0.937
109.4668 1.354
109.4971 1.094
109.5274 1.562
109.5577 1.458
109.5880 1.510
109.6182 1.875
109.6485 1.510
109.6788 1.562
109.7091 1.562
109.7393 1.927
109.7696 1.927
109.7999 2.448
109.8302 1.875
109.8605 2.031
109.8907 1.823
109.9210 2.448
109.9513 1.458
109.9816 1.094
110.0119 1.458
110.0421 1.458
110.0724 1.771
110.1027 1.823
110.1330 1.667
110.1632 2.552
110.1935 1.667
110.2238 1.875
110.2541 1.562
110.2844 1.667
110.3146 1.562
110.3449 1.302
110.3752 1.719
110.4055 1.615
110.4358 1.562
110.4660 0.990
110.4963 1.615
110.5266 1.615
110.5569 1.146
110.5871 2.240
110.6174 2.292
110.6477 1.719
110.6780 1.250
110.7083 1.094
110.7385 2.083
110.7688 1.510
110.7991 1.250
110.8294 1.667
110.8597 1.198
110.8899 1.458
110.9202 1.198
110.9505 1.250
110.9808 1.406
111.0110 1.458
111.0413 1.719
111.0716 0.937
111.1019 1.615
111.1322 1.458
111.1624 1.510
111.1927 1.302
111.2230 1.406
111.2533 1.719
111.2836 1.146
111.3138 1.875
111.3441 1.198
111.3744 1.250
111.4047 1.667
111.4350 1.875
111.4652 1.510
111.4955 1.615
111.5258 1.510
111.5561 1.302
111.5863 1.823
111.6166 1.354
111.6469 0.990
111.6772 1.302
111.7075 1.562
111.7377 1.250
111.7680 1.354
111.7983 2.083
111.8286 1.771
111.8589 1.562
111.8891 1.146
111.9194 1.354
111.9497 1.458
111.9800 0.990
112.0102 1.354
112.0405 0.937
112.0708 1.562
112.1011 0.885
112.1314 1.406
112.1616 1.719
112.1919 1.146
112.2222 1.562
112.2525 1.562
112.2828 1.042
112.3130 1.927
112.3433 1.250
112.3736 0.833
112.4039 1.719
112.4341 1.302
112.4644 1.562
112.4947 1.250
112.5250 1.354
112.5553 1.615
112.5855 1.510
112.6158 1.042
112.6461 1.250
112.6764 1.302
112.7067 1.198
112.7369 1.667
112.7672 1.302
112.7975 1.042
112.8278 1.094
112.8580 1.719
112.8883 1.198
112.9186 1.562
112.9489 1.250
112.9792 1.615
113.0094 1.406
113.0397 1.146
113.0700 1.719
113.1003 1.562
113.1306 1.615
113.1608 1.667
113.1911 1.510
113.2214 1.458
113.2517 1.354
113.2819 1.667
113.3122 1.094
113.3425 1.198
113.3728 1.094
113.4031 1.198
113.4333 1.094
113.4636 1.562
113.4939 1.458
113.5242 1.354
113.5545 1.250
113.5847 1.510
113.6150 1.250
113.6453 1.562
113.6756 1.458
113.7058 1.042
113.7361 1.510
113.7664 1.458
113.7967 1.771
113.8270 1.094
113.8572 0.990
113.8875 1.146
113.9178 1.719
113.9481 1.458
113.9784 1.615
114.0086 1.615
114.0389 1.406
114.0692 0.990
114.0995 1.406
114.1298 1.823
114.1600 1.094
114.1903 0.990
114.2206 1.198
114.2509 0.990
114.2811 1.302
114.3114 1.094
114.3417 1.250
114.3720 0.833
114.4023 1.823
114.4325 0.990
114.4628 1.719
114.4931 1.875
114.5234 1.198
114.5537 1.302
114.5839 1.562
114.6142 1.458
114.6445 1.667
114.6748 1.562
114.7050 1.458
114.7353 1.354
114.7656 2.083
114.7959 1.615
114.8262 1.302
114.8564 1.510
114.8867 1.562
114.9170 1.458
114.9473 1.615
114.9776 1.458
115.0078 1.458
115.0381 1.667
115.0684 1.354
115.0987 1.406
115.1289 0.885
115.1592 2.031
115.1895 1.458
115.2198 1.510
115.2501 1.354
115.2803 1.094
115.3106 1.406
115.3409 1.562
115.3712 1.667
115.4015 2.448
115.4317 1.458
115.4620 1.927
115.4923 1.406
115.5226 1.354
115.5528 1.823
115.5831 1.823
115.6134 1.979
115.6437 2.031
115.6740 2.083
115.7042 1.667
115.7345 1.823
115.7648 1.354
115.7951 2.083
115.8254 2.500
115.8556 1.667
115.8859 2.552
115.9162 2.292
115.9465 2.083
115.9767 2.292
116.0070 2.604
116.0373 2.865
116.0676 2.083
116.0979 1.875
116.1281 2.187
116.1584 1.875
116.1887 1.615
116.2190 1.510
116.2493 1.719
116.2795 2.396
116.3098 1.979
116.3401 1.615
116.3704 2.500
116.4006 2.344
116.4309 2.083
116.4612 2.760
116.4915 1.927
116.5218 2.448
116.5520 2.448
116.5823 1.771
116.6126 1.979
116.6429 1.615
116.6732 1.719
116.7034 1.354
116.7337 1.927
116.7640 1.823
116.7943 1.875
116.8245 1.615
116.8548 1.510
116.8851 1.979
116.9154 1.510
116.9457 1.667
116.9759 1.719
117.0062 1.719
117.0365 2.292
117.0668 2.083
117.0971 1.302
117.1273 1.823
117.1576 1.667
117.1879 1.771
117.2182 1.302
117.2485 1.667
117.2787 1.406
117.3090 1.875
117.3393 1.875
117.3696 1.406
117.3998 1.354
117.4301 1.302
117.4604 1.562
117.4907 1.354
117.5210 1.406
117.5512 1.302
117.5815 1.042
117.6118 1.615
117.6421 1.823
117.6724 1.562
117.7026 1.562
117.7329 0.937
117.7632 2.240
117.7935 1.510
117.8237 1.615
117.8540 1.510
117.8843 1.927
117.9146 1.458
117.9449 1.510
117.9751 1.562
118.0054 1.354
118.0357 1.406
118.0660 1.875
118.0963 1.562
118.1265 1.354
118.1568 1.302
118.1871 1.667
118.2174 1.615
118.2476 1.615
118.2779 0.990
118.3082 1.823
118.3385 1.562
118.3688 1.510
118.3990 1.250
118.4293 1.719
118.4596 1.771
118.4899 1.146
118.5202 1.094
118.5504 1.250
118.5807 2.083
118.6110 1.562
118.6413 1.354
118.6715 1.406
118.7018 1.406
118.7321 1.302
118.7624 1.406
118.7927 1.510
118.8229 2.031
118.8532 1.302
118.8835 1.198
118.9138 1.615
118.9441 1.302
118.9743 1.562
119.0046 1.406
119.0349 1.823
119.0652 1.458
119.0954 1.562
119.1257 1.042
119.1560 1.198
119.1863 1.198
119.2166 1.302
119.2468 1.667
119.2771 1.042
119.3074 1.406
119.3377 1.250
119.3680 1.771
119.3982 0.937
119.4285 1.354
119.4588 1.198
119.4891 1.562
119.5193 1.510
119.5496 1.615
119.5799 1.354
119.6102 1.146
119.6405 1.510
119.6707 1.198
119.7010 1.458
119.7313 1.198
119.7616 1.354
119.7919 1.302
119.8221 1.354
119.8524 1.927
119.8827 1.510
119.9130 1.719
119.9433 1.823
119.9735 1.094
120.0038 1.198
