'Id: "" Comment: "" Operator: "Lab Manager" Anode: "Cu" Scantype: "Locked Coupled" TimePerStep: "19.2" X: "9999" Y: "9999" Z: "9999" 
10.0015 4.167
10.0318 3.958
10.0620 3.802
10.0923 3.958
10.1226 3.542
10.1529 3.490
10.1832 3.490
10.2134 4.115
10.2437 3.542
10.2740 3.437
10.3043 3.437
10.3346 3.750
10.3648 3.333
10.3951 3.594
10.4254 4.010
10.4557 3.646
10.4859 3.854
10.5162 3.802
10.5465 3.802
10.5768 4.792
10.6071 4.167
10.6373 3.281
10.6676 4.219
10.6979 3.177
10.7282 4.062
10.7585 4.375
10.7887 3.698
10.8190 4.010
10.8493 3.490
10.8796 4.010
10.9098 3.698
10.9401 4.115
10.9704 3.906
11.0007 3.542
11.0310 3.177
11.0612 4.479
11.0915 4.844
11.1218 2.812
11.1521 4.167
11.1824 3.906
11.2126 4.740
11.2429 3.490
11.2732 3.906
11.3035 2.865
11.3337 3.385
11.3640 3.802
11.3943 4.219
11.4246 3.646
11.4549 4.219
11.4851 4.167
11.5154 3.385
11.5457 3.490
11.5760 4.479
11.6063 3.437
11.6365 4.010
11.6668 3.437
11.6971 3.958
11.7274 3.698
11.7577 4.323
11.7879 3.906
11.8182 3.802
11.8485 4.844
11.8788 3.958
11.9090 2.656
11.9393 3.698
11.9696 3.594
11.9999 4.427
12.0302 4.531
12.0604 3.490
12.0907 4.375
12.1210 3.490
12.1513 4.062
12.1816 3.385
12.2118 3.385
12.2421 4.010
12.2724 4.323
12.3027 3.281
12.3329 3.177
12.3632 3.177
12.3935 4.010
12.4238 4.219
12.4541 3.021
12.4843 3.958
12.5146 3.542
12.5449 4.010
12.5752 2.969
12.6055 3.854
12.6357 3.229
12.6660 3.542
12.6963 3.125
12.7266 3.698
12.7568 3.698
12.7871 4.323
12.8174 3.385
12.8477 3.073
12.8780 2.604
12.9082 3.281
12.9385 2.865
12.9688 3.125
12.9991 3.646
13.0294 3.229
13.0596 3.542
13.0899 3.125
13.1202 3.802
13.1505 2.865
13.1807 3.125
13.2110 3.229
13.2413 3.177
13.2716 3.125
13.3019 2.656
13.3321 3.802
13.3624 2.708
13.3927 3.125
13.4230 3.229
13.4533 2.865
13.4835 2.604
13.5138 4.062
13.5441 3.802
13.5744 2.917
13.6046 3.229
13.6349 4.375
13.6652 3.021
13.6955 2.969
13.7258 3.021
13.7560 3.542
13.7863 3.281
13.8166 3.802
13.8469 2.760
13.8772 3.490
13.9074 3.750
13.9377 3.594
13.9680 3.490
13.9983 2.917
14.0285 3.021
14.0588 2.500
14.0891 2.500
14.1194 3.333
14.1497 2.760
14.1799 3.125
14.2102 3.958
14.2405 2.917
14.2708 2.969
14.3011 2.500
14.3313 2.865
14.3616 2.448
14.3919 2.969
14.4222 2.500
14.4524 2.969
14.4827 3.542
14.5130 3.021
14.5433 3.281
14.5736 3.073
14.6038 3.542
14.6341 2.448
14.6644 2.448
14.6947 3.125
14.7250 2.969
14.7552 4.062
14.7855 3.542
14.8158 3.021
14.8461 2.865
14.8764 3.177
14.9066 3.385
14.9369 3.385
14.9672 3.802
14.9975 2.760
15.0277 2.917
15.0580 3.073
15.0883 3.073
15.1186 3.281
15.1489 3.542
15.1791 2.917
15.2094 2.969
15.2397 3.490
15.2700 3.646
15.3003 2.865
15.3305 3.281
15.3608 2.760
15.3911 2.760
15.4214 3.490
15.4516 2.552
15.4819 2.656
15.5122 3.177
15.5425 3.958
15.5728 2.448
15.6030 3.281
15.6333 2.604
15.6636 3.750
15.6939 3.073
15.7242 3.698
15.7544 4.062
15.7847 3.698
15.8150 3.021
15.8453 3.177
15.8755 3.854
15.9058 2.396
15.9361 2.812
15.9664 3.333
15.9967 2.604
16.0269 2.604
16.0572 2.865
16.0875 2.448
16.1178 2.708
16.1481 2.917
16.1783 2.917
16.2086 2.812
16.2389 2.760
16.2692 2.812
16.2994 2.552
16.3297 3.854
16.3600 2.396
16.3903 3.385
16.4206 3.073
16.4508 2.396
16.4811 3.646
16.5114 2.552
16.5417 3.542
16.5720 2.865
16.6022 2.708
16.6325 2.187
16.6628 3.594
16.6931 2.240
16.7233 3.333
16.7536 2.760
16.7839 3.646
16.8142 3.281
16.8445 3.490
16.8747 3.073
16.9050 3.229
16.9353 3.281
16.9656 3.333
16.9959 3.281
17.0261 2.917
17.0564 2.760
17.0867 2.292
17.1170 2.969
17.1472 3.594
17.1775 3.229
17.2078 2.969
17.2381 3.073
17.2684 3.229
17.2986 3.125
17.3289 3.750
17.3592 2.865
17.3895 3.437
17.4198 2.917
17.4500 3.646
17.4803 3.073
17.5106 3.073
17.5409 3.073
17.5712 2.865
17.6014 2.240
17.6317 3.073
17.6620 2.656
17.6923 2.344
17.7225 3.542
17.7528 3.125
17.7831 2.708
17.8134 4.115
17.8437 3.385
17.8739 3.177
17.9042 3.854
17.9345 2.708
17.9648 2.708
17.9951 2.812
18.0253 3.177
18.0556 3.125
18.0859 2.812
18.1162 3.646
18.1464 3.229
18.1767 2.812
18.2070 3.177
18.2373 3.177
18.2676 2.969
18.2978 2.083
18.3281 2.344
18.3584 2.917
18.3887 2.135
18.4190 2.656
18.4492 3.073
18.4795 3.125
18.5098 2.969
18.5401 2.031
18.5703 2.604
18.6006 2.917
18.6309 2.656
18.6612 3.021
18.6915 3.333
18.7217 2.396
18.7520 3.125
18.7823 3.490
18.8126 2.448
18.8429 2.969
18.8731 3.437
18.9034 2.917
18.9337 2.292
18.9640 3.177
18.9942 2.760
19.0245 2.344
19.0548 3.333
19.0851 3.229
19.1154 3.333
19.1456 3.229
19.1759 2.500
19.2062 3.125
19.2365 3.021
19.2668 2.865
19.2970 2.656
19.3273 2.604
19.3576 2.500
19.3879 2.552
19.4181 2.708
19.4484 2.552
19.4787 2.500
19.5090 1.927
19.5393 2.292
19.5695 2.500
19.5998 2.292
19.6301 2.708
19.6604 2.656
19.6907 3.125
19.7209 2.865
19.7512 2.708
19.7815 4.010
19.8118 3.333
19.8420 2.604
19.8723 2.812
19.9026 2.135
19.9329 2.917
19.9632 3.281
19.9934 2.708
20.0237 2.448
20.0540 2.656
20.0843 2.552
20.1146 2.604
20.1448 2.969
20.1751 3.073
20.2054 2.865
20.2357 2.708
20.2659 2.604
20.2962 2.917
20.3265 2.552
20.3568 2.500
20.3871 2.812
20.4173 2.552
20.4476 2.604
20.4779 2.604
20.5082 2.812
20.5385 2.552
20.5687 2.448
20.5990 2.708
20.6293 2.917
20.6596 3.125
20.6899 2.292
20.7201 3.437
20.7504 2.500
20.7807 2.448
20.8110 2.448
20.8412 2.865
20.8715 2.812
20.9018 2.552
20.9321 2.760
20.9624 3.021
20.9926 2.708
21.0229 3.177
21.0532 3.177
21.0835 2.604
21.1138 3.073
21.1440 3.177
21.1743 3.125
21.2046 3.021
21.2349 2.344
21.2651 2.812
21.2954 2.969
21.3257 2.344
21.3560 2.396
21.3863 2.031
21.4165 2.396
21.4468 2.865
21.4771 2.917
21.5074 3.698
21.5377 2.448
21.5679 3.437
21.5982 1.927
21.6285 2.604
21.6588 3.125
21.6890 2.656
21.7193 2.760
21.7496 3.229
21.7799 3.177
21.8102 3.750
21.8404 2.708
21.8707 2.865
21.9010 1.823
21.9313 2.812
21.9616 2.917
21.9918 1.927
22.0221 2.500
22.0524 2.396
22.0827 3.021
22.1129 2.865
22.1432 2.448
22.1735 3.281
22.2038 2.917
22.2341 2.604
22.2643 1.979
22.2946 2.448
22.3249 2.917
22.3552 2.656
22.3855 2.500
22.4157 2.187
22.4460 2.240
22.4763 2.187
22.5066 2.344
22.5368 3.854
22.5671 2.500
22.5974 2.448
22.6277 2.812
22.6580 1.875
22.6882 2.344
22.7185 2.396
22.7488 2.500
22.7791 3.490
22.8094 2.031
22.8396 2.708
22.8699 2.760
22.9002 2.604
22.9305 2.552
22.9607 3.229
22.9910 2.187
23.0213 2.448
23.0516 3.125
23.0819 2.917
23.1121 2.708
23.1424 3.333
23.1727 2.812
23.2030 2.240
23.2333 2.240
23.2635 2.083
23.2938 3.021
23.3241 2.448
23.3544 2.396
23.3846 2.969
23.4149 3.229
23.4452 3.333
23.4755 2.135
23.5058 2.448
23.5360 2.031
23.5663 2.917
23.5966 2.812
23.6269 2.812
23.6572 3.125
23.6874 2.448
23.7177 3.437
23.7480 1.458
23.7783 3.333
23.8086 3.073
23.8388 2.656
23.8691 2.604
23.8994 3.125
23.9297 2.292
23.9599 2.865
23.9902 2.865
24.0205 2.448
24.0508 2.135
24.0811 2.552
24.1113 2.292
24.1416 2.292
24.1719 2.344
24.2022 2.083
24.2325 3.073
24.2627 3.073
24.2930 2.396
24.3233 2.031
24.3536 3.229
24.3838 2.865
24.4141 2.917
24.4444 2.656
24.4747 3.646
24.5050 2.604
24.5352 2.604
24.5655 2.760
24.5958 1.771
24.6261 2.812
24.6564 2.760
24.6866 1.979
24.7169 3.229
24.7472 2.396
24.7775 2.448
24.8077 3.594
24.8380 2.604
24.8683 2.292
24.8986 3.073
24.9289 2.448
24.9591 2.604
24.9894 3.437
25.0197 3.073
25.0500 3.229
25.0803 2.917
25.1105 3.125
25.1408 2.031
25.1711 3.125
25.2014 2.969
25.2316 2.187
25.2619 2.083
25.2922 3.125
25.3225 3.281
25.3528 2.865
25.3830 2.292
25.4133 3.021
25.4436 3.021
25.4739 3.594
25.5042 3.281
25.5344 2.604
25.5647 2.812
25.5950 2.552
25.6253 2.760
25.6555 2.865
25.6858 2.031
25.7161 2.448
25.7464 2.292
25.7767 2.396
25.8069 2.344
25.8372 2.135
25.8675 3.385
25.8978 2.344
25.9281 2.656
25.9583 3.021
25.9886 3.229
26.0189 2.187
26.0492 2.865
26.0794 2.708
26.1097 2.604
26.1400 2.812
26.1703 2.812
26.2006 2.917
26.2308 2.604
26.2611 2.917
26.2914 2.656
26.3217 2.865
26.3520 2.656
26.3822 2.969
26.4125 2.917
26.4428 2.604
26.4731 2.708
26.5034 2.448
26.5336 3.021
26.5639 2.344
26.5942 2.656
26.6245 3.177
26.6547 2.396
26.6850 3.437
26.7153 2.760
26.7456 2.604
26.7759 3.906
26.8061 2.292
26.8364 3.698
26.8667 2.760
26.8970 3.281
26.9273 3.490
26.9575 3.854
26.9878 3.437
27.0181 2.604
27.0484 3.698
27.0786 3.073
27.1089 2.656
27.1392 3.021
27.1695 2.500
27.1998 2.552
27.2300 2.031
27.2603 4.010
27.2906 3.698
27.3209 3.125
27.3512 2.708
27.3814 2.812
27.4117 3.177
27.4420 3.125
27.4723 2.812
27.5025 2.865
27.5328 2.656
27.5631 3.177
27.5934 2.812
27.6237 2.865
27.6539 2.344
27.6842 2.708
27.7145 3.750
27.7448 3.229
27.7751 3.229
27.8053 2.969
27.8356 3.229
27.8659 2.917
27.8962 3.281
27.9264 3.021
27.9567 3.542
27.9870 3.385
28.0173 4.010
28.0476 3.177
28.0778 4.115
28.1081 3.281
28.1384 3.229
28.1687 3.958
28.1990 3.646
28.2292 4.115
28.2595 4.271
28.2898 2.448
28.3201 3.177
28.3503 2.552
28.3806 4.010
28.4109 3.333
28.4412 3.750
28.4715 3.750
28.5017 3.385
28.5320 3.177
28.5623 2.708
28.5926 3.698
28.6229 3.177
28.6531 3.646
28.6834 3.750
28.7137 3.073
28.7440 4.531
28.7742 3.542
28.8045 4.219
28.8348 3.333
28.8651 4.167
28.8954 3.698
28.9256 2.812
28.9559 3.490
28.9862 3.385
29.0165 4.062
29.0468 3.490
29.0770 3.854
29.1073 3.021
29.1376 3.490
29.1679 3.073
29.1981 3.542
29.2284 3.698
29.2587 2.865
29.2890 2.865
29.3193 3.437
29.3495 3.958
29.3798 3.542
29.4101 3.490
29.4404 4.792
29.4707 3.490
29.5009 3.125
29.5312 3.281
29.5615 4.167
29.5918 3.385
29.6221 3.698
29.6523 4.062
29.6826 4.010
29.7129 3.906
29.7432 4.687
29.7734 4.479
29.8037 4.219
29.8340 4.062
29.8643 3.646
29.8946 4.479
29.9248 4.062
29.9551 4.948
29.9854 3.490
30.0157 4.323
30.0460 4.635
30.0762 4.844
30.1065 3.958
30.1368 5.052
30.1671 5.625
30.1973 4.844
30.2276 4.844
30.2579 4.010
30.2882 4.792
30.3185 4.375
30.3487 5.521
30.3790 6.094
30.4093 5.000
30.4396 5.885
30.4699 5.521
30.5001 4.948
30.5304 4.792
30.5607 4.792
30.5910 5.729
30.6212 6.146
30.6515 5.729
30.6818 6.146
30.7121 6.302
30.7424 6.510
30.7726 6.927
30.8029 6.354
30.8332 8.125
30.8635 8.333
30.8938 8.021
30.9240 7.083
30.9543 8.594
30.9846 9.531
31.0149 10.937
31.0451 9.427
31.0754 9.271
31.1057 10.729
31.1360 12.187
31.1663 13.177
31.1965 13.594
31.2268 16.042
31.2571 16.562
31.2874 18.802
31.3177 20.417
31.3479 22.344
31.3782 26.615
31.4085 29.948
31.4388 31.615
31.4690 38.594
31.4993 39.635
31.5296 48.281
31.5599 51.823
31.5902 57.083
31.6204 60.469
31.6507 62.448
31.6810 62.448
31.7113 64.323
31.7416 62.187
31.7718 52.552
31.8021 51.406
31.8324 46.458
31.8627 39.844
31.8929 35.677
31.9232 35.052
31.9535 29.531
31.9838 23.750
32.0141 24.062
32.0443 19.896
32.0746 18.021
32.1049 15.469
32.1352 15.365
32.1655 13.281
32.1957 12.552
32.2260 11.458
32.2563 10.469
32.2866 8.594
32.3169 10.104
32.3471 9.687
32.3774 8.594
32.4077 8.229
32.4380 8.125
32.4682 7.969
32.4985 7.344
32.5288 7.552
32.5591 8.021
32.5894 8.802
32.6196 6.927
32.6499 7.292
32.6802 8.698
32.7105 6.458
32.7408 6.875
32.7710 6.198
32.8013 6.198
32.8316 5.365
32.8619 6.562
32.8921 5.781
32.9224 6.406
32.9527 6.042
32.9830 5.937
33.0133 6.875
33.0435 5.781
33.0738 5.417
33.1041 5.417
33.1344 6.354
33.1647 5.260
33.1949 6.562
33.2252 6.354
33.2555 5.156
33.2858 5.469
33.3160 5.521
33.3463 6.250
33.3766 5.885
33.4069 5.781
33.4372 6.875
33.4674 5.937
33.4977 6.094
33.5280 5.573
33.5583 6.562
33.5886 6.094
33.6188 6.406
33.6491 6.250
33.6794 6.719
33.7097 6.146
33.7399 7.708
33.7702 8.437
33.8005 7.083
33.8308 8.125
33.8611 9.687
33.8913 9.167
33.9216 11.042
33.9519 11.667
33.9822 12.969
34.0125 14.427
34.0427 16.042
34.0730 16.719
34.1033 20.990
34.1336 24.010
34.1638 28.229
34.1941 33.125
34.2244 44.948
34.2547 53.646
34.2850 68.385
34.3152 75.625
34.3455 80.156
34.3758 77.344
34.4061 68.646
34.4364 57.969
34.4666 49.844
34.4969 37.812
34.5272 28.125
34.5575 26.146
34.5877 21.198
34.6180 18.333
34.6483 15.469
34.6786 15.365
34.7089 13.542
34.7391 13.646
34.7694 11.667
34.7997 9.792
34.8300 9.844
34.8603 9.844
34.8905 10.833
34.9208 8.490
34.9511 10.833
34.9814 8.906
35.0116 9.115
35.0419 10.260
35.0722 8.906
35.1025 9.740
35.1328 8.802
35.1630 8.750
35.1933 9.740
35.2236 8.542
35.2539 9.583
35.2842 11.146
35.3144 11.250
35.3447 11.094
35.3750 11.198
35.4053 11.302
35.4356 10.990
35.4658 11.979
35.4961 12.917
35.5264 15.573
35.5567 15.937
35.5869 16.250
35.6172 16.354
35.6475 17.969
35.6778 20.000
35.7081 22.969
35.7383 22.500
35.7686 26.667
35.7989 29.167
35.8292 32.083
35.8595 32.812
35.8897 40.052
35.9200 45.781
35.9503 52.031
35.9806 61.146
36.0108 69.219
36.0411 75.521
36.0714 84.323
36.1017 94.948
36.1320 96.562
36.1622 95.990
36.1925 98.177
36.2228 88.802
36.2531 91.250
36.2834 79.479
36.3136 76.250
36.3439 67.083
36.3742 57.187
36.4045 49.948
36.4347 44.375
36.4650 36.927
36.4953 35.729
36.5256 29.375
36.5559 25.781
36.5861 24.427
36.6164 21.354
36.6467 19.427
36.6770 18.333
36.7073 16.354
36.7375 14.010
36.7678 14.531
36.7981 12.969
36.8284 11.667
36.8586 11.615
36.8889 9.687
36.9192 9.844
36.9495 9.948
36.9798 9.635
37.0100 8.490
37.0403 8.906
37.0706 9.010
37.1009 6.875
37.1312 7.604
37.1614 5.885
37.1917 6.615
37.2220 6.406
37.2523 6.250
37.2825 5.104
37.3128 7.500
37.3431 5.990
37.3734 5.521
37.4037 4.792
37.4339 5.208
37.4642 5.469
37.4945 4.740
37.5248 5.156
37.5551 5.417
37.5853 6.458
37.6156 4.740
37.6459 5.365
37.6762 5.156
37.7064 5.260
37.7367 4.323
37.7670 5.000
37.7973 4.479
37.8276 4.323
37.8578 3.750
37.8881 3.750
37.9184 5.104
37.9487 3.437
37.9790 4.167
38.0092 4.219
38.0395 3.906
38.0698 4.479
38.1001 3.750
38.1304 4.167
38.1606 3.542
38.1909 3.906
38.2212 4.271
38.2515 2.552
38.2817 4.010
38.3120 4.062
38.3423 3.385
38.3726 3.125
38.4029 3.958
38.4331 3.437
38.4634 4.115
38.4937 3.021
38.5240 3.333
38.5543 3.177
38.5845 3.281
38.6148 4.167
38.6451 3.125
38.6754 2.917
38.7056 3.802
38.7359 3.958
38.7662 3.073
38.7965 3.385
38.8268 3.125
38.8570 3.177
38.8873 3.542
38.9176 3.542
38.9479 3.333
38.9782 3.125
39.0084 3.385
39.0387 3.177
39.0690 3.750
39.0993 2.708
39.1295 3.177
39.1598 3.073
39.1901 3.021
39.2204 3.073
39.2507 2.448
39.2809 2.865
39.3112 2.969
39.3415 2.917
39.3718 3.229
39.4021 2.500
39.4323 3.698
39.4626 3.229
39.4929 2.604
39.5232 2.865
39.5534 2.604
39.5837 3.177
39.6140 2.187
39.6443 2.969
39.6746 3.177
39.7048 2.604
39.7351 2.708
39.7654 2.812
39.7957 2.969
39.8260 2.344
39.8562 2.969
39.8865 2.708
39.9168 2.292
39.9471 2.604
39.9773 3.177
40.0076 2.708
40.0379 2.552
40.0682 2.552
40.0985 2.448
40.1287 1.979
40.1590 2.865
40.1893 2.604
40.2196 2.500
40.2499 1.927
40.2801 2.865
40.3104 2.031
40.3407 2.552
40.3710 2.552
40.4012 2.500
40.4315 2.083
40.4618 2.656
40.4921 2.396
40.5224 2.656
40.5526 2.760
40.5829 1.771
40.6132 1.562
40.6435 2.917
40.6738 2.083
40.7040 1.823
40.7343 2.292
40.7646 2.396
40.7949 2.656
40.8251 2.396
40.8554 2.396
40.8857 2.240
40.9160 2.865
40.9463 3.021
40.9765 2.344
41.0068 2.396
41.0371 3.125
41.0674 2.396
41.0977 2.344
41.1279 2.344
41.1582 2.292
41.1885 1.823
41.2188 2.292
41.2491 2.187
41.2793 2.760
41.3096 2.760
41.3399 2.187
41.3702 2.552
41.4004 1.927
41.4307 1.875
41.4610 1.823
41.4913 2.500
41.5216 3.073
41.5518 2.396
41.5821 1.719
41.6124 2.344
41.6427 2.083
41.6730 2.240
41.7032 2.396
41.7335 2.187
41.7638 2.917
41.7941 2.240
41.8243 2.344
41.8546 2.344
41.8849 2.448
41.9152 2.135
41.9455 2.344
41.9757 2.396
42.0060 2.760
42.0363 2.552
42.0666 2.187
42.0969 3.021
42.1271 2.240
42.1574 2.552
42.1877 2.031
42.2180 2.448
42.2482 2.500
42.2785 2.240
42.3088 1.927
42.3391 2.604
42.3694 2.083
42.3996 2.292
42.4299 2.083
42.4602 2.031
42.4905 2.135
42.5208 2.240
42.5510 2.083
42.5813 2.083
42.6116 2.187
42.6419 2.552
42.6721 2.240
42.7024 2.604
42.7327 2.500
42.7630 3.333
42.7933 2.552
42.8235 2.292
42.8538 2.187
42.8841 2.552
42.9144 3.385
42.9447 2.135
42.9749 2.135
43.0052 1.927
43.0355 2.135
43.0658 2.187
43.0960 2.604
43.1263 1.875
43.1566 1.510
43.1869 1.719
43.2172 2.135
43.2474 1.771
43.2777 3.177
43.3080 2.552
43.3383 2.865
43.3686 2.500
43.3988 2.031
43.4291 2.552
43.4594 2.500
43.4897 2.240
43.5199 2.760
43.5502 2.552
43.5805 2.604
43.6108 2.344
43.6411 2.500
43.6713 2.187
43.7016 2.708
43.7319 3.021
43.7622 2.448
43.7925 2.448
43.8227 2.396
43.8530 2.656
43.8833 1.771
43.9136 2.500
43.9439 1.979
43.9741 1.875
44.0044 1.823
44.0347 2.083
44.0650 2.917
44.0952 2.917
44.1255 2.917
44.1558 2.240
44.1861 2.448
44.2164 2.552
44.2466 2.500
44.2769 2.604
44.3072 2.552
44.3375 1.979
44.3678 2.240
44.3980 2.083
44.4283 2.396
44.4586 1.823
44.4889 2.917
44.5191 3.177
44.5494 2.500
44.5797 2.083
44.6100 2.969
44.6403 2.760
44.6705 3.021
44.7008 2.448
44.7311 1.927
44.7614 1.719
44.7917 3.021
44.8219 2.344
44.8522 2.031
44.8825 2.344
44.9128 1.927
44.9430 3.177
44.9733 3.385
45.0036 2.760
45.0339 2.656
45.0642 2.396
45.0944 2.969
45.1247 2.344
45.1550 2.448
45.1853 2.135
45.2156 2.708
45.2458 2.344
45.2761 2.187
45.3064 2.812
45.3367 2.760
45.3669 2.292
45.3972 1.927
45.4275 2.604
45.4578 1.771
45.4881 2.187
45.5183 2.448
45.5486 2.031
45.5789 2.708
45.6092 2.812
45.6395 2.865
45.6697 3.542
45.7000 2.760
45.7303 3.281
45.7606 3.177
45.7908 2.448
45.8211 3.073
45.8514 2.448
45.8817 2.552
45.9120 3.073
45.9422 3.073
45.9725 2.552
46.0028 3.177
46.0331 2.969
46.0634 3.229
46.0936 2.187
46.1239 2.604
46.1542 2.708
46.1845 3.333
46.2147 3.229
46.2450 3.021
46.2753 4.167
46.3056 3.437
46.3359 2.969
46.3661 3.490
46.3964 3.385
46.4267 3.229
46.4570 2.656
46.4873 3.698
46.5175 3.177
46.5478 2.760
46.5781 4.010
46.6084 3.750
46.6386 4.167
46.6689 3.750
46.6992 3.542
46.7295 4.687
46.7598 4.427
46.7900 4.583
46.8203 4.115
46.8506 4.167
46.8809 4.896
46.9112 4.531
46.9414 7.031
46.9717 6.458
47.0020 6.510
47.0323 6.302
47.0626 7.344
47.0928 9.010
47.1231 9.010
47.1534 10.365
47.1837 10.937
47.2139 12.292
47.2442 13.594
47.2745 14.219
47.3048 16.094
47.3351 17.917
47.3653 21.302
47.3956 20.573
47.4259 22.240
47.4562 23.646
47.4865 23.177
47.5167 24.219
47.5470 20.104
47.5773 21.094
47.6076 18.021
47.6378 16.354
47.6681 13.490
47.6984 13.281
47.7287 10.521
47.7590 8.542
47.7892 9.375
47.8195 8.229
47.8498 7.708
47.8801 7.604
47.9104 6.094
47.9406 6.146
47.9709 5.260
48.0012 5.052
48.0315 5.833
48.0617 4.219
48.0920 4.896
48.1223 4.062
48.1526 4.167
48.1829 3.437
48.2131 3.750
48.2434 3.542
48.2737 3.958
48.3040 2.552
48.3343 3.385
48.3645 3.229
48.3948 2.969
48.4251 2.812
48.4554 3.646
48.4856 3.125
48.5159 3.073
48.5462 3.021
48.5765 3.542
48.6068 2.187
48.6370 2.500
48.6673 3.125
48.6976 2.396
48.7279 2.812
48.7582 3.802
48.7884 2.187
48.8187 2.552
48.8490 2.969
48.8793 2.865
48.9095 2.292
48.9398 3.021
48.9701 2.969
49.0004 2.917
49.0307 2.448
49.0609 2.969
49.0912 2.344
49.1215 2.917
49.1518 2.240
49.1821 3.021
49.2123 2.552
49.2426 2.604
49.2729 2.656
49.3032 2.448
49.3334 2.344
49.3637 2.396
49.3940 2.865
49.4243 2.708
49.4546 2.760
49.4848 2.917
49.5151 2.292
49.5454 2.552
49.5757 2.865
49.6060 1.979
49.6362 2.969
49.6665 2.396
49.6968 2.344
49.7271 2.865
49.7574 2.396
49.7876 2.969
49.8179 2.344
49.8482 1.823
49.8785 2.604
49.9087 1.927
49.9390 2.656
49.9693 2.396
49.9996 2.865
50.0299 2.135
50.0601 2.604
50.0904 2.187
50.1207 2.083
50.1510 2.656
50.1813 1.927
50.2115 1.979
50.2418 2.240
50.2721 2.760
50.3024 2.083
50.3326 2.344
50.3629 2.240
50.3932 2.135
50.4235 1.458
50.4538 2.656
50.4840 2.344
50.5143 1.823
50.5446 1.927
50.5749 2.396
50.6052 2.552
50.6354 2.500
50.6657 2.292
50.6960 2.500
50.7263 2.292
50.7565 2.031
50.7868 1.771
50.8171 2.031
50.8474 2.708
50.8777 2.187
50.9079 2.135
50.9382 2.031
50.9685 1.979
50.9988 2.187
51.0291 2.240
51.0593 2.969
51.0896 1.458
51.1199 2.187
51.1502 1.823
51.1804 2.083
51.2107 2.812
51.2410 2.396
51.2713 1.927
51.3016 2.083
51.3318 2.187
51.3621 1.979
51.3924 1.771
51.4227 2.187
51.4530 2.448
51.4832 1.979
51.5135 2.031
51.5438 2.344
51.5741 2.708
51.6043 1.979
51.6346 2.187
51.6649 2.344
51.6952 2.760
51.7255 2.708
51.7557 2.135
51.7860 2.656
51.8163 1.927
51.8466 2.083
51.8769 2.604
51.9071 2.083
51.9374 2.240
51.9677 2.240
51.9980 2.656
52.0282 2.135
52.0585 1.562
52.0888 2.917
52.1191 2.760
52.1494 1.875
52.1796 2.396
52.2099 2.083
52.2402 1.719
52.2705 2.344
52.3008 2.240
52.3310 2.604
52.3613 1.979
52.3916 2.240
52.4219 2.396
52.4521 2.396
52.4824 2.031
52.5127 2.656
52.5430 1.979
52.5733 1.927
52.6035 1.875
52.6338 1.823
52.6641 2.448
52.6944 2.187
52.7247 2.187
52.7549 2.448
52.7852 2.448
52.8155 2.448
52.8458 1.927
52.8761 2.500
52.9063 2.396
52.9366 2.240
52.9669 2.083
52.9972 2.083
53.0274 2.969
53.0577 2.031
53.0880 2.865
53.1183 2.604
53.1486 2.135
53.1788 2.448
53.2091 2.865
53.2394 2.708
53.2697 2.656
53.3000 2.396
53.3302 1.875
53.3605 3.177
53.3908 2.552
53.4211 2.708
53.4513 2.604
53.4816 2.448
53.5119 2.708
53.5422 2.396
53.5725 2.396
53.6027 2.240
53.6330 2.396
53.6633 2.552
53.6936 2.917
53.7239 2.396
53.7541 2.448
53.7844 1.979
53.8147 2.500
53.8450 2.604
53.8752 2.552
53.9055 2.812
53.9358 3.333
53.9661 3.073
53.9964 3.125
54.0266 3.229
54.0569 2.500
54.0872 2.500
54.1175 2.448
54.1478 2.396
54.1780 2.969
54.2083 2.396
54.2386 2.500
54.2689 2.500
54.2991 2.865
54.3294 1.927
54.3597 2.344
54.3900 2.500
54.4203 2.604
54.4505 3.177
54.4808 2.969
54.5111 2.083
54.5414 2.969
54.5717 2.708
54.6019 2.135
54.6322 3.125
54.6625 3.177
54.6928 2.865
54.7230 2.500
54.7533 3.281
54.7836 2.448
54.8139 2.865
54.8442 3.802
54.8744 3.177
54.9047 2.656
54.9350 2.500
54.9653 3.542
54.9956 2.396
55.0258 2.812
55.0561 2.969
55.0864 2.865
55.1167 2.708
55.1469 3.385
55.1772 3.594
55.2075 3.021
55.2378 3.385
55.2681 3.333
55.2983 3.854
55.3286 4.115
55.3589 3.333
55.3892 3.385
55.4195 4.219
55.4497 3.958
55.4800 4.479
55.5103 3.177
55.5406 3.958
55.5709 4.531
55.6011 3.906
55.6314 4.583
55.6617 4.323
55.6920 5.052
55.7222 4.375
55.7525 4.687
55.7828 5.469
55.8131 5.677
55.8434 6.667
55.8736 5.833
55.9039 5.781
55.9342 7.396
55.9645 6.875
55.9948 6.823
56.0250 9.687
56.0553 8.646
56.0856 8.437
56.1159 9.948
56.1461 10.417
56.1764 14.062
56.2067 12.396
56.2370 13.333
56.2673 16.667
56.2975 18.802
56.3278 19.740
56.3581 22.344
56.3884 25.208
56.4187 28.125
56.4489 29.687
56.4792 28.385
56.5095 29.948
56.5398 28.958
56.5700 27.760
56.6003 29.062
56.6306 24.323
56.6609 21.719
56.6912 22.448
56.7214 17.708
56.7517 16.042
56.7820 15.052
56.8123 13.073
56.8426 13.437
56.8728 11.667
56.9031 11.510
56.9334 10.365
56.9637 8.958
56.9939 7.396
57.0242 9.271
57.0545 7.500
57.0848 7.083
57.1151 6.198
57.1453 6.198
57.1756 6.458
57.2059 6.198
57.2362 5.521
57.2665 4.271
57.2967 4.635
57.3270 4.792
57.3573 4.948
57.3876 4.896
57.4178 4.479
57.4481 4.323
57.4784 3.854
57.5087 3.958
57.5390 2.656
57.5692 4.271
57.5995 2.865
57.6298 3.542
57.6601 3.385
57.6904 3.802
57.7206 3.281
57.7509 3.385
57.7812 2.292
57.8115 2.760
57.8417 3.229
57.8720 3.177
57.9023 3.385
57.9326 3.385
57.9629 3.229
57.9931 2.135
58.0234 3.021
58.0537 2.917
58.0840 2.240
58.1143 3.333
58.1445 3.021
58.1748 2.812
58.2051 3.021
58.2354 3.021
58.2656 3.594
58.2959 2.760
58.3262 3.281
58.3565 2.656
58.3868 3.281
58.4170 3.021
58.4473 2.865
58.4776 1.927
58.5079 2.604
58.5382 2.708
58.5684 2.865
58.5987 3.542
58.6290 2.812
58.6593 2.500
58.6896 3.125
58.7198 2.865
58.7501 3.437
58.7804 1.667
58.8107 2.812
58.8409 1.979
58.8712 2.656
58.9015 2.500
58.9318 3.021
58.9621 2.552
58.9923 3.229
59.0226 2.187
59.0529 3.229
59.0832 2.135
59.1135 2.135
59.1437 3.542
59.1740 2.240
59.2043 2.240
59.2346 2.552
59.2648 3.177
59.2951 2.865
59.3254 2.604
59.3557 3.021
59.3860 2.812
59.4162 2.760
59.4465 2.135
59.4768 2.604
59.5071 2.760
59.5374 2.187
59.5676 2.604
59.5979 2.292
59.6282 3.385
59.6585 2.656
59.6887 2.135
59.7190 2.917
59.7493 2.604
59.7796 2.500
59.8099 3.125
59.8401 2.135
59.8704 2.760
59.9007 2.344
59.9310 2.240
59.9613 2.865
59.9915 3.021
60.0218 2.396
60.0521 2.135
60.0824 2.812
60.1126 2.656
60.1429 2.604
60.1732 2.812
60.2035 2.552
60.2338 2.344
60.2640 2.135
60.2943 3.021
60.3246 2.656
60.3549 2.708
60.3852 2.240
60.4154 2.344
60.4457 3.229
60.4760 3.177
60.5063 2.240
60.5365 1.927
60.5668 2.240
60.5971 3.281
60.6274 2.708
60.6577 2.969
60.6879 2.812
60.7182 2.552
60.7485 2.917
60.7788 2.708
60.8091 3.125
60.8393 2.760
60.8696 2.604
60.8999 2.604
60.9302 3.229
60.9604 2.240
60.9907 2.708
61.0210 2.865
61.0513 2.500
61.0816 2.604
61.1118 3.021
61.1421 3.125
61.1724 3.646
61.2027 3.281
61.2330 2.656
61.2632 3.177
61.2935 2.448
61.3238 2.292
61.3541 2.969
61.3844 2.969
61.4146 2.865
61.4449 3.854
61.4752 2.969
61.5055 3.073
61.5357 3.073
61.5660 3.437
61.5963 2.760
61.6266 3.698
61.6569 3.802
61.6871 3.854
61.7174 3.646
61.7477 3.646
61.7780 3.021
61.8083 4.687
61.8385 3.646
61.8688 3.698
61.8991 3.958
61.9294 4.583
61.9596 4.010
61.9899 4.062
62.0202 4.062
62.0505 4.792
62.0808 4.323
62.1110 4.896
62.1413 4.687
62.1716 5.469
62.2019 6.042
62.2322 6.042
62.2624 5.729
62.2927 6.250
62.3230 8.125
62.3533 7.500
62.3835 8.333
62.4138 11.042
62.4441 10.833
62.4744 11.823
62.5047 14.167
62.5349 13.750
62.5652 16.719
62.5955 16.771
62.6258 20.312
62.6561 22.917
62.6863 23.906
62.7166 24.844
62.7469 24.115
62.7772 25.104
62.8074 25.000
62.8377 23.281
62.8680 24.792
62.8983 23.177
62.9286 20.781
62.9588 18.750
62.9891 18.802
63.0194 15.521
63.0497 13.542
63.0800 13.281
63.1102 12.187
63.1405 11.146
63.1708 9.479
63.2011 9.062
63.2313 7.656
63.2616 7.656
63.2919 7.604
63.3222 7.292
63.3525 6.354
63.3827 5.312
63.4130 5.729
63.4433 5.365
63.4736 4.219
63.5039 6.146
63.5341 5.312
63.5644 4.687
63.5947 4.167
63.6250 4.010
63.6552 4.167
63.6855 3.646
63.7158 3.073
63.7461 4.271
63.7764 3.542
63.8066 4.062
63.8369 2.969
63.8672 2.917
63.8975 3.906
63.9278 2.604
63.9580 3.698
63.9883 2.917
64.0186 3.437
64.0489 3.229
64.0791 2.500
64.1094 2.969
64.1397 3.073
64.1700 2.812
64.2003 3.229
64.2305 3.594
64.2608 3.125
64.2911 3.698
64.3214 2.865
64.3517 2.865
64.3819 3.281
64.4122 3.125
64.4425 3.594
64.4728 2.448
64.5031 2.500
64.5333 2.969
64.5636 3.125
64.5939 3.333
64.6242 2.656
64.6544 3.542
64.6847 2.917
64.7150 2.448
64.7453 2.760
64.7756 3.333
64.8058 3.281
64.8361 2.396
64.8664 3.281
64.8967 2.969
64.9270 3.021
64.9572 2.396
64.9875 3.385
65.0178 2.448
65.0481 3.021
65.0783 3.021
65.1086 2.448
65.1389 2.604
65.1692 3.177
65.1995 3.177
65.2297 3.073
65.2600 2.865
65.2903 3.073
65.3206 3.542
65.3509 3.490
65.3811 2.448
65.4114 3.177
65.4417 3.542
65.4720 2.708
65.5022 2.708
65.5325 3.594
65.5628 2.708
65.5931 2.552
65.6234 3.177
65.6536 2.917
65.6839 3.073
65.7142 3.281
65.7445 3.281
65.7748 4.062
65.8050 3.125
65.8353 3.906
65.8656 3.385
65.8959 4.062
65.9261 4.010
65.9564 3.229
65.9867 4.896
66.0170 4.792
66.0473 4.635
66.0775 5.000
66.1078 4.740
66.1381 4.792
66.1684 4.948
66.1987 5.677
66.2289 6.302
66.2592 5.417
66.2895 6.719
66.3198 5.104
66.3500 6.615
66.3803 5.833
66.4106 6.823
66.4409 5.573
66.4712 6.146
66.5014 5.104
66.5317 5.469
66.5620 5.312
66.5923 4.792
66.6226 4.844
66.6528 4.896
66.6831 4.531
66.7134 4.115
66.7437 4.375
66.7739 4.271
66.8042 4.635
66.8345 3.385
66.8648 4.531
66.8951 4.375
66.9253 3.437
66.9556 4.323
66.9859 4.844
67.0162 4.062
67.0465 4.115
67.0767 4.792
67.1070 5.052
67.1373 4.740
67.1676 4.427
67.1978 4.740
67.2281 5.781
67.2584 5.781
67.2887 6.719
67.3190 6.823
67.3492 7.292
67.3795 7.135
67.4098 7.031
67.4401 8.542
67.4704 7.812
67.5006 9.323
67.5309 10.208
67.5612 9.896
67.5915 12.604
67.6218 11.823
67.6520 13.698
67.6823 14.479
67.7126 16.042
67.7429 16.719
67.7731 17.604
67.8034 16.458
67.8337 19.792
67.8640 19.635
67.8943 19.427
67.9245 18.073
67.9548 18.542
67.9851 17.552
68.0154 16.927
68.0457 16.198
68.0759 14.167
68.1062 13.906
68.1365 14.271
68.1668 11.146
68.1970 11.406
68.2273 10.885
68.2576 8.125
68.2879 8.906
68.3182 8.958
68.3484 8.281
68.3787 7.448
68.4090 8.125
68.4393 6.719
68.4696 5.469
68.4998 6.562
68.5301 6.146
68.5604 7.552
68.5907 6.562
68.6209 7.552
68.6512 6.823
68.6815 7.187
68.7118 8.073
68.7421 8.333
68.7723 7.656
68.8026 9.167
68.8329 9.479
68.8632 9.583
68.8935 10.573
68.9237 10.990
68.9540 10.312
68.9843 10.625
69.0146 10.365
69.0448 10.729
69.0751 10.729
69.1054 9.271
69.1357 10.000
69.1660 9.323
69.1962 9.167
69.2265 8.490
69.2568 8.021
69.2871 7.083
69.3174 6.927
69.3476 5.937
69.3779 5.417
69.4082 5.937
69.4385 5.417
69.4687 5.469
69.4990 4.896
69.5293 3.698
69.5596 3.594
69.5899 3.437
69.6201 3.750
69.6504 4.271
69.6807 3.125
69.7110 3.021
69.7413 3.854
69.7715 4.427
69.8018 3.594
69.8321 2.812
69.8624 3.333
69.8926 3.437
69.9229 3.021
69.9532 2.812
69.9835 3.437
70.0138 3.646
70.0440 2.292
70.0743 2.344
70.1046 3.385
70.1349 3.177
70.1652 2.396
70.1954 3.073
70.2257 2.760
70.2560 2.187
70.2863 3.281
70.3166 3.125
70.3468 2.656
70.3771 2.917
70.4074 3.125
70.4377 3.073
70.4679 2.812
70.4982 2.083
70.5285 2.812
70.5588 2.396
70.5891 2.500
70.6193 2.760
70.6496 2.292
70.6799 2.083
70.7102 1.615
70.7405 2.760
70.7707 2.187
70.8010 3.021
70.8313 2.500
70.8616 2.917
70.8918 2.083
70.9221 2.552
70.9524 2.031
70.9827 1.771
71.0130 2.865
71.0432 2.344
71.0735 1.979
71.1038 1.719
71.1341 2.240
71.1644 2.500
71.1946 2.500
71.2249 2.240
71.2552 2.292
71.2855 1.510
71.3157 2.396
71.3460 1.771
71.3763 1.927
71.4066 2.240
71.4369 1.979
71.4671 2.708
71.4974 2.187
71.5277 2.240
71.5580 2.240
71.5883 2.031
71.6185 2.031
71.6488 2.604
71.6791 2.031
71.7094 2.240
71.7396 2.240
71.7699 2.552
71.8002 2.240
71.8305 2.656
71.8608 2.292
71.8910 1.771
71.9213 1.771
71.9516 2.240
71.9819 1.927
72.0122 1.927
72.0424 2.240
72.0727 2.604
72.1030 1.875
72.1333 2.552
72.1635 2.292
72.1938 2.344
72.2241 2.812
72.2544 2.292
72.2847 2.865
72.3149 2.969
72.3452 2.708
72.3755 2.500
72.4058 3.073
72.4361 3.698
72.4663 2.969
72.4966 2.865
72.5269 3.802
72.5572 3.229
72.5874 3.385
72.6177 2.812
72.6480 2.656
72.6783 3.333
72.7086 2.917
72.7388 2.812
72.7691 2.500
72.7994 2.552
72.8297 2.552
72.8600 2.187
72.8902 2.240
72.9205 2.396
72.9508 2.396
72.9811 2.396
73.0113 2.083
73.0416 2.552
73.0719 1.771
73.1022 2.344
73.1325 2.187
73.1627 1.927
73.1930 1.927
73.2233 1.510
73.2536 2.500
73.2839 1.615
73.3141 1.927
73.3444 2.240
73.3747 2.031
73.4050 1.562
73.4353 1.771
73.4655 2.031
73.4958 1.510
73.5261 1.927
73.5564 1.719
73.5866 2.031
73.6169 1.771
73.6472 2.344
73.6775 1.667
73.7078 2.083
73.7380 1.615
73.7683 1.719
73.7986 1.719
73.8289 2.240
73.8592 1.719
73.8894 1.510
73.9197 1.458
73.9500 1.667
73.9803 2.031
74.0105 1.510
74.0408 2.240
74.0711 2.135
74.1014 1.771
74.1317 2.083
74.1619 1.875
74.1922 1.875
74.2225 1.667
74.2528 1.406
74.2831 1.875
74.3133 1.823
74.3436 1.719
74.3739 2.135
74.4042 2.240
74.4344 2.031
74.4647 1.823
74.4950 1.875
74.5253 1.406
74.5556 2.292
74.5858 1.354
74.6161 1.927
74.6464 1.354
74.6767 1.458
74.7070 1.354
74.7372 2.396
74.7675 1.823
74.7978 1.823
74.8281 1.719
74.8583 1.406
74.8886 1.250
74.9189 1.615
74.9492 1.927
74.9795 1.510
75.0097 1.615
75.0400 1.615
75.0703 2.344
75.1006 2.083
75.1309 1.667
75.1611 1.719
75.1914 1.823
75.2217 2.187
75.2520 2.187
75.2822 1.510
75.3125 2.083
75.3428 1.719
75.3731 2.187
75.4034 1.927
75.4336 2.708
75.4639 1.979
75.4942 1.927
75.5245 1.562
75.5548 2.083
75.5850 2.448
75.6153 2.135
75.6456 2.031
75.6759 1.771
75.7061 1.719
75.7364 2.135
75.7667 3.125
75.7970 1.875
75.8273 1.354
75.8575 1.719
75.8878 2.031
75.9181 1.771
75.9484 1.771
75.9787 1.667
76.0089 2.448
76.0392 2.135
76.0695 2.292
76.0998 1.667
76.1301 2.292
76.1603 1.667
76.1906 1.875
76.2209 2.604
76.2512 2.396
76.2814 2.448
76.3117 1.458
76.3420 1.771
76.3723 2.083
76.4026 1.927
76.4328 2.031
76.4631 2.552
76.4934 2.604
76.5237 2.760
76.5540 2.604
76.5842 3.542
76.6145 3.333
76.6448 3.229
76.6751 4.167
76.7053 4.219
76.7356 3.750
76.7659 4.323
76.7962 3.125
76.8265 3.646
76.8567 3.177
76.8870 3.125
76.9173 4.115
76.9476 3.229
76.9779 3.854
77.0081 3.229
77.0384 3.906
77.0687 3.646
77.0990 2.917
77.1292 3.594
77.1595 2.812
77.1898 2.656
77.2201 3.542
77.2504 2.760
77.2806 2.396
77.3109 2.760
77.3412 2.083
77.3715 3.021
77.4018 2.656
77.4320 2.865
77.4623 2.760
77.4926 2.031
77.5229 1.667
77.5531 1.250
77.5834 2.604
77.6137 2.135
77.6440 1.979
77.6743 2.656
77.7045 1.927
77.7348 1.562
77.7651 2.240
77.7954 1.667
77.8257 2.135
77.8559 1.771
77.8862 1.667
77.9165 1.823
77.9468 1.927
77.9770 1.667
78.0073 2.448
78.0376 1.615
78.0679 1.927
78.0982 1.562
78.1284 1.667
78.1587 2.135
78.1890 1.458
78.2193 1.406
78.2496 1.667
78.2798 1.771
78.3101 1.615
78.3404 1.250
78.3707 1.667
78.4009 1.667
78.4312 1.615
78.4615 1.250
78.4918 1.510
78.5221 1.771
78.5523 1.927
78.5826 1.615
78.6129 1.667
78.6432 0.990
78.6735 1.562
78.7037 1.510
78.7340 1.875
78.7643 2.135
78.7946 1.719
78.8248 1.562
78.8551 2.656
78.8854 1.927
78.9157 1.302
78.9460 1.719
78.9762 2.187
79.0065 1.875
79.0368 1.823
79.0671 0.990
79.0974 1.667
79.1276 1.979
79.1579 2.031
79.1882 1.823
79.2185 1.615
79.2488 2.083
79.2790 2.031
79.3093 1.771
79.3396 1.354
79.3699 1.823
79.4001 1.823
79.4304 1.927
79.4607 1.771
79.4910 1.615
79.5213 1.667
79.5515 1.875
79.5818 1.823
79.6121 1.667
79.6424 1.250
79.6727 1.510
79.7029 1.719
79.7332 1.667
79.7635 1.406
79.7938 1.667
79.8240 2.083
79.8543 1.354
79.8846 1.510
79.9149 2.083
79.9452 2.187
79.9754 1.719
80.0057 2.135
80.0360 1.719
80.0663 1.510
80.0966 1.875
80.1268 1.615
80.1571 1.458
80.1874 2.135
80.2177 2.187
80.2479 1.302
80.2782 1.667
80.3085 1.406
80.3388 1.458
80.3691 1.406
80.3993 2.031
80.4296 2.500
80.4599 1.823
80.4902 1.927
80.5205 2.083
80.5507 1.823
80.5810 1.771
80.6113 1.615
80.6416 1.823
80.6718 1.927
80.7021 2.031
80.7324 2.083
80.7627 1.667
80.7930 1.979
80.8232 2.135
80.8535 1.927
80.8838 2.448
80.9141 1.927
80.9444 2.500
80.9746 2.344
81.0049 1.927
81.0352 2.448
81.0655 2.552
81.0957 2.500
81.1260 2.656
81.1563 2.656
81.1866 2.500
81.2169 2.969
81.2471 2.656
81.2774 3.177
81.3077 3.333
81.3380 2.812
81.3683 3.073
81.3985 2.656
81.4288 2.292
81.4591 2.708
81.4894 3.229
81.5196 2.448
81.5499 2.135
81.5802 1.875
81.6105 2.292
81.6408 1.979
81.6710 2.083
81.7013 2.187
81.7316 2.135
81.7619 2.083
81.7922 2.083
81.8224 2.135
81.8527 1.719
81.8830 1.875
81.9133 1.354
81.9436 2.135
81.9738 1.146
82.0041 1.667
82.0344 2.812
82.0647 1.823
82.0949 2.083
82.1252 1.979
82.1555 1.667
82.1858 1.875
82.2161 1.510
82.2463 1.979
82.2766 2.135
82.3069 1.406
82.3372 2.292
82.3675 2.031
82.3977 1.719
82.4280 2.448
82.4583 2.187
82.4886 1.667
82.5188 1.562
82.5491 0.885
82.5794 1.094
82.6097 1.615
82.6400 2.135
82.6702 1.615
82.7005 2.083
82.7308 1.562
82.7611 1.562
82.7914 1.667
82.8216 1.562
82.8519 1.406
82.8822 1.719
82.9125 2.135
82.9427 2.135
82.9730 1.667
83.0033 1.354
83.0336 1.823
83.0639 1.615
83.0941 1.615
83.1244 2.135
83.1547 1.458
83.1850 1.719
83.2153 1.667
83.2455 1.354
83.2758 1.667
83.3061 1.354
83.3364 1.406
83.3666 1.354
83.3969 1.458
83.4272 1.979
83.4575 1.198
83.4878 1.771
83.5180 1.667
83.5483 2.448
83.5786 1.458
83.6089 1.562
83.6392 1.823
83.6694 1.510
83.6997 1.823
83.7300 2.031
83.7603 1.875
83.7905 1.562
83.8208 1.406
83.8511 1.875
83.8814 1.667
83.9117 1.771
83.9419 2.031
83.9722 1.562
84.0025 1.458
84.0328 1.927
84.0631 1.719
84.0933 2.083
84.1236 1.771
84.1539 1.667
84.1842 1.458
84.2144 1.719
84.2447 2.187
84.2750 1.979
84.3053 1.406
84.3356 1.719
84.3658 1.510
84.3961 1.823
84.4264 1.354
84.4567 1.771
84.4870 2.135
84.5172 1.719
84.5475 1.562
84.5778 1.562
84.6081 1.823
84.6383 1.875
84.6686 1.354
84.6989 1.771
84.7292 2.135
84.7595 1.562
84.7897 1.094
84.8200 1.667
84.8503 1.667
84.8806 2.344
84.9109 0.937
84.9411 1.875
84.9714 1.771
85.0017 1.198
85.0320 1.667
85.0623 1.458
85.0925 1.458
85.1228 1.719
85.1531 1.771
85.1834 1.667
85.2136 1.979
85.2439 1.927
85.2742 1.979
85.3045 1.198
85.3348 1.771
85.3650 1.302
85.3953 1.875
85.4256 1.406
85.4559 1.927
85.4862 1.719
85.5164 1.562
85.5467 1.562
85.5770 1.562
85.6073 1.719
85.6375 1.719
85.6678 1.823
85.6981 1.354
85.7284 1.927
85.7587 1.667
85.7889 1.927
85.8192 1.927
85.8495 1.615
85.8798 1.875
85.9101 1.562
85.9403 1.302
85.9706 1.458
86.0009 1.250
86.0312 2.604
86.0614 1.979
86.0917 1.667
86.1220 2.292
86.1523 1.615
86.1826 1.615
86.2128 1.615
86.2431 1.146
86.2734 1.510
86.3037 1.667
86.3340 1.667
86.3642 1.667
86.3945 2.187
86.4248 1.615
86.4551 2.135
86.4853 1.302
86.5156 1.667
86.5459 2.396
86.5762 1.719
86.6065 1.927
86.6367 1.719
86.6670 2.031
86.6973 1.250
86.7276 1.615
86.7579 1.458
86.7881 2.135
86.8184 1.667
86.8487 2.344
86.8790 1.823
86.9092 1.302
86.9395 1.562
86.9698 1.458
87.0001 2.187
87.0304 1.667
87.0606 2.187
87.0909 1.979
87.1212 1.354
87.1515 1.458
87.1818 1.354
87.2120 1.823
87.2423 2.135
87.2726 2.344
87.3029 1.771
87.3331 1.823
87.3634 1.875
87.3937 2.135
87.4240 2.500
87.4543 1.510
87.4845 1.823
87.5148 2.083
87.5451 1.823
87.5754 1.875
87.6057 1.667
87.6359 1.667
87.6662 2.083
87.6965 1.979
87.7268 2.448
87.7571 2.135
87.7873 1.667
87.8176 2.031
87.8479 1.406
87.8782 1.667
87.9084 1.719
87.9387 1.406
87.9690 1.302
87.9993 1.615
88.0296 2.187
88.0598 1.667
88.0901 1.302
88.1204 1.771
88.1507 1.927
88.1810 1.250
88.2112 1.771
88.2415 1.823
88.2718 1.979
88.3021 2.240
88.3323 1.927
88.3626 1.771
88.3929 2.135
88.4232 2.292
88.4535 1.927
88.4837 1.927
88.5140 2.031
88.5443 2.500
88.5746 1.927
88.6049 2.396
88.6351 2.292
88.6654 2.187
88.6957 1.667
88.7260 1.875
88.7562 2.344
88.7865 2.604
88.8168 2.448
88.8471 2.031
88.8774 3.021
88.9076 3.021
88.9379 3.490
88.9682 2.604
88.9985 3.229
89.0288 3.073
89.0590 3.073
89.0893 2.917
89.1196 3.437
89.1499 3.646
89.1801 4.167
89.2104 3.281
89.2407 4.062
89.2710 4.323
89.3013 3.906
89.3315 4.635
89.3618 5.104
89.3921 5.156
89.4224 5.469
89.4527 5.365
89.4829 4.844
89.5132 5.469
89.5435 5.156
89.5738 6.250
89.6040 5.521
89.6343 6.615
89.6646 5.833
89.6949 5.260
89.7252 5.052
89.7554 5.469
89.7857 4.167
89.8160 5.469
89.8463 4.687
89.8766 5.208
89.9068 4.219
89.9371 4.062
89.9674 4.010
89.9977 4.167
90.0279 3.021
90.0582 3.802
90.0885 3.906
90.1188 2.552
90.1491 3.698
90.1793 3.229
90.2096 3.073
90.2399 2.604
90.2702 3.125
90.3005 2.344
90.3307 2.135
90.3610 2.552
90.3913 2.135
90.4216 2.552
90.4518 1.719
90.4821 2.656
90.5124 2.396
90.5427 2.500
90.5730 2.448
90.6032 2.240
90.6335 2.865
90.6638 1.979
90.6941 2.708
90.7244 1.719
90.7546 1.771
90.7849 2.135
90.8152 1.771
90.8455 1.823
90.8758 2.552
90.9060 1.667
90.9363 2.187
90.9666 2.240
90.9969 2.760
91.0271 1.667
91.0574 2.344
91.0877 1.927
91.1180 2.656
91.1483 1.979
91.1785 1.198
91.2088 2.240
91.2391 1.771
91.2694 1.667
91.2997 1.771
91.3299 1.875
91.3602 1.927
91.3905 1.979
91.4208 2.292
91.4510 1.823
91.4813 2.500
91.5116 1.667
91.5419 1.875
91.5722 1.875
91.6024 1.406
91.6327 2.187
91.6630 1.823
91.6933 1.979
91.7236 2.187
91.7538 2.083
91.7841 2.187
91.8144 1.719
91.8447 2.083
91.8749 2.135
91.9052 1.875
91.9355 2.187
91.9658 2.083
91.9961 2.135
92.0263 2.240
92.0566 1.979
92.0869 2.500
92.1172 1.615
92.1475 2.187
92.1777 2.396
92.2080 2.344
92.2383 2.500
92.2686 2.187
92.2988 2.656
92.3291 1.823
92.3594 2.344
92.3897 2.917
92.4200 2.760
92.4502 2.292
92.4805 3.906
92.5108 2.240
92.5411 3.177
92.5714 3.281
92.6016 3.021
92.6319 2.344
92.6622 3.490
92.6925 2.917
92.7227 3.437
92.7530 2.448
92.7833 3.125
92.8136 3.542
92.8439 2.187
92.8741 3.281
92.9044 2.969
92.9347 2.969
92.9650 3.281
92.9953 3.333
93.0255 3.229
93.0558 2.500
93.0861 2.656
93.1164 2.187
93.1466 2.292
93.1769 3.021
93.2072 2.812
93.2375 2.396
93.2678 2.552
93.2980 2.292
93.3283 2.708
93.3586 2.448
93.3889 1.927
93.4192 2.448
93.4494 1.719
93.4797 2.240
93.5100 2.500
93.5403 2.448
93.5706 2.083
93.6008 2.552
93.6311 2.292
93.6614 1.875
93.6917 2.396
93.7219 1.823
93.7522 2.552
93.7825 2.448
93.8128 1.823
93.8431 1.979
93.8733 2.396
93.9036 1.562
93.9339 2.292
93.9642 2.552
93.9945 2.448
94.0247 2.083
94.0550 2.187
94.0853 2.083
94.1156 2.187
94.1458 2.083
94.1761 2.135
94.2064 2.396
94.2367 1.927
94.2670 2.396
94.2972 2.917
94.3275 2.760
94.3578 2.448
94.3881 2.396
94.4184 2.083
94.4486 2.187
94.4789 2.292
94.5092 3.021
94.5395 3.437
94.5697 3.125
94.6000 3.385
94.6303 3.281
94.6606 3.073
94.6909 3.229
94.7211 3.333
94.7514 3.594
94.7817 3.698
94.8120 3.750
94.8423 3.594
94.8725 4.010
94.9028 4.010
94.9331 4.323
94.9634 4.792
94.9936 5.625
95.0239 5.365
95.0542 5.156
95.0845 4.583
95.1148 4.687
95.1450 4.687
95.1753 5.208
95.2056 5.573
95.2359 4.583
95.2662 4.583
95.2964 5.156
95.3267 5.208
95.3570 5.208
95.3873 4.531
95.4175 4.948
95.4478 4.844
95.4781 4.583
95.5084 3.958
95.5387 4.010
95.5689 3.906
95.5992 3.854
95.6295 5.000
95.6598 4.427
95.6901 4.531
95.7203 3.802
95.7506 3.490
95.7809 2.500
95.8112 3.646
95.8414 3.542
95.8717 3.021
95.9020 3.542
95.9323 2.656
95.9626 2.708
95.9928 2.760
96.0231 2.500
96.0534 2.448
96.0837 2.969
96.1140 2.760
96.1442 2.292
96.1745 2.865
96.2048 2.500
96.2351 3.021
96.2653 2.187
96.2956 1.875
96.3259 2.135
96.3562 2.240
96.3865 1.771
96.4167 2.240
96.4470 1.875
96.4773 2.292
96.5076 2.240
96.5379 2.240
96.5681 2.187
96.5984 2.240
96.6287 2.187
96.6590 2.708
96.6893 2.187
96.7195 1.875
96.7498 2.031
96.7801 2.500
96.8104 2.240
96.8406 2.135
96.8709 2.344
96.9012 1.406
96.9315 2.135
96.9618 2.135
96.9920 2.187
97.0223 1.927
97.0526 1.667
97.0829 2.135
97.1132 2.240
97.1434 2.240
97.1737 2.031
97.2040 1.823
97.2343 1.979
97.2645 1.615
97.2948 1.719
97.3251 1.823
97.3554 1.927
97.3857 2.448
97.4159 1.875
97.4462 2.292
97.4765 1.927
97.5068 2.344
97.5371 1.823
97.5673 2.187
97.5976 1.771
97.6279 2.500
97.6582 2.292
97.6884 2.292
97.7187 2.083
97.7490 2.292
97.7793 2.031
97.8096 1.823
97.8398 2.135
97.8701 2.552
97.9004 2.187
97.9307 2.396
97.9610 2.760
97.9912 2.135
98.0215 2.917
98.0518 2.604
98.0821 2.448
98.1123 2.917
98.1426 2.708
98.1729 2.969
98.2032 3.646
98.2335 2.969
98.2637 3.490
98.2940 3.125
98.3243 3.021
98.3546 4.010
98.3849 3.594
98.4151 3.542
98.4454 4.427
98.4757 3.802
98.5060 3.594
98.5362 3.750
98.5665 3.958
98.5968 3.490
98.6271 3.073
98.6574 3.854
98.6876 4.062
98.7179 3.333
98.7482 4.740
98.7785 2.812
98.8088 2.760
98.8390 3.021
98.8693 2.760
98.8996 2.865
98.9299 3.229
98.9601 3.490
98.9904 1.927
99.0207 3.073
99.0510 3.177
99.0813 2.812
99.1115 3.646
99.1418 2.031
99.1721 2.240
99.2024 2.604
99.2327 2.812
99.2629 2.135
99.2932 2.448
99.3235 2.031
99.3538 2.083
99.3841 2.708
99.4143 2.083
99.4446 1.927
99.4749 1.927
99.5052 2.187
99.5354 1.979
99.5657 2.240
99.5960 1.979
99.6263 2.344
99.6566 1.719
99.6868 1.823
99.7171 1.667
99.7474 2.917
99.7777 1.927
99.8080 1.979
99.8382 1.823
99.8685 2.396
99.8988 1.823
99.9291 1.562
99.9593 1.823
99.9896 1.823
100.0199 1.875
100.0502 2.031
100.0805 1.458
100.1107 2.292
100.1410 1.354
100.1713 1.979
100.2016 1.823
100.2319 1.823
100.2621 2.760
100.2924 2.292
100.3227 2.031
100.3530 2.083
100.3832 1.979
100.4135 1.406
100.4438 2.083
100.4741 2.135
100.5044 1.979
100.5346 2.240
100.5649 1.771
100.5952 2.292
100.6255 1.875
100.6558 1.823
100.6860 1.771
100.7163 1.823
100.7466 1.458
100.7769 2.031
100.8071 1.719
100.8374 1.823
100.8677 1.250
100.8980 1.875
100.9283 1.823
100.9585 2.292
100.9888 1.823
101.0191 2.187
101.0494 2.187
101.0797 2.031
101.1099 1.667
101.1402 2.396
101.1705 1.823
101.2008 2.500
101.2310 1.771
101.2613 1.927
101.2916 2.083
101.3219 2.344
101.3522 1.979
101.3824 1.510
101.4127 2.292
101.4430 1.771
101.4733 2.240
101.5036 2.083
101.5338 2.240
101.5641 1.458
101.5944 1.875
101.6247 1.927
101.6549 1.875
101.6852 2.552
101.7155 2.292
101.7458 1.771
101.7761 2.292
101.8063 1.875
101.8366 1.771
101.8669 2.292
101.8972 2.240
101.9275 2.240
101.9577 2.031
101.9880 1.927
102.0183 2.187
102.0486 2.656
102.0788 1.979
102.1091 1.823
102.1394 1.719
102.1697 2.396
102.2000 2.656
102.2302 2.969
102.2605 2.448
102.2908 2.083
102.3211 2.135
102.3514 2.917
102.3816 2.604
102.4119 2.552
102.4422 2.448
102.4725 2.292
102.5028 2.552
102.5330 2.812
102.5633 2.344
102.5936 3.437
102.6239 2.708
102.6541 3.281
102.6844 2.500
102.7147 2.812
102.7450 2.917
102.7753 2.760
102.8055 3.490
102.8358 3.906
102.8661 3.437
102.8964 3.281
102.9267 3.229
102.9569 2.969
102.9872 3.698
103.0175 3.542
103.0478 2.917
103.0780 2.969
103.1083 2.812
103.1386 3.542
103.1689 3.281
103.1992 3.021
103.2294 2.760
103.2597 2.552
103.2900 2.760
103.3203 3.333
103.3506 3.281
103.3808 2.292
103.4111 3.021
103.4414 3.542
103.4717 3.125
103.5019 2.760
103.5322 3.073
103.5625 3.542
103.5928 3.333
103.6231 2.760
103.6533 3.646
103.6836 3.594
103.7139 3.854
103.7442 3.385
103.7745 3.542
103.8047 4.115
103.8350 3.698
103.8653 5.000
103.8956 4.167
103.9258 3.854
103.9561 4.583
103.9864 4.687
104.0167 4.687
104.0470 4.010
104.0772 4.271
104.1075 5.156
104.1378 4.635
104.1681 4.010
104.1984 4.740
104.2286 4.531
104.2589 4.687
104.2892 4.479
104.3195 4.062
104.3497 4.115
104.3800 4.375
104.4103 3.177
104.4406 4.167
104.4709 4.115
104.5011 3.073
104.5314 3.073
104.5617 2.917
104.5920 3.281
104.6223 3.021
104.6525 3.646
104.6828 3.229
104.7131 3.021
104.7434 3.229
104.7736 2.969
104.8039 1.979
104.8342 2.552
104.8645 2.604
104.8948 1.719
104.9250 2.708
104.9553 2.917
104.9856 2.292
105.0159 2.396
105.0462 2.656
105.0764 2.083
105.1067 2.187
105.1370 2.552
105.1673 2.187
105.1975 1.771
105.2278 2.187
105.2581 1.979
105.2884 2.865
105.3187 2.396
105.3489 1.510
105.3792 2.292
105.4095 1.510
105.4398 1.979
105.4701 2.083
105.5003 2.344
105.5306 1.615
105.5609 1.927
105.5912 2.031
105.6215 2.031
105.6517 2.552
105.6820 1.979
105.7123 2.292
105.7426 1.927
105.7728 1.927
105.8031 2.031
105.8334 2.292
105.8637 1.719
105.8940 2.240
105.9242 1.927
105.9545 1.615
105.9848 2.240
106.0151 2.240
106.0454 1.615
106.0756 1.719
106.1059 2.240
106.1362 1.979
106.1665 1.667
106.1967 1.042
106.2270 1.302
106.2573 1.406
106.2876 1.615
106.3179 1.406
106.3481 2.292
106.3784 1.771
106.4087 2.292
106.4390 1.823
106.4693 1.302
106.4995 1.771
106.5298 1.615
106.5601 1.927
106.5904 1.927
106.6206 1.875
106.6509 1.823
106.6812 1.354
106.7115 2.187
106.7418 2.031
106.7720 2.031
106.8023 2.135
106.8326 1.615
106.8629 1.875
106.8932 1.823
106.9234 1.719
106.9537 1.875
106.9840 2.083
107.0143 1.562
107.0445 1.875
107.0748 1.979
107.1051 1.875
107.1354 1.771
107.1657 2.448
107.1959 1.979
107.2262 1.354
107.2565 2.187
107.2868 2.031
107.3171 1.771
107.3473 1.510
107.3776 2.656
107.4079 2.083
107.4382 1.875
107.4684 2.240
107.4987 2.344
107.5290 2.708
107.5593 2.448
107.5896 1.875
107.6198 2.448
107.6501 2.604
107.6804 2.344
107.7107 1.406
107.7410 2.448
107.7712 2.187
107.8015 1.979
107.8318 2.292
107.8621 1.719
107.8923 2.031
107.9226 1.823
107.9529 2.083
107.9832 1.771
108.0135 2.292
108.0437 1.510
108.0740 1.875
108.1043 2.604
108.1346 1.927
108.1649 2.135
108.1951 2.083
108.2254 1.927
108.2557 2.240
108.2860 1.771
108.3163 1.927
108.3465 2.344
108.3768 1.771
108.4071 1.719
108.4374 2.083
108.4676 1.979
108.4979 2.500
108.5282 2.396
108.5585 1.823
108.5888 1.927
108.6190 2.187
108.6493 2.083
108.6796 1.771
108.7099 1.615
108.7402 2.083
108.7704 2.135
108.8007 1.719
108.8310 2.396
108.8613 1.615
108.8915 1.771
108.9218 2.344
108.9521 1.771
108.9824 1.979
109.0127 1.615
109.0429 1.979
109.0732 2.031
109.1035 2.240
109.1338 1.615
109.1641 1.615
109.1943 2.240
109.2246 1.510
109.2549 1.667
109.2852 1.979
109.3154 2.031
109.3457 2.344
109.3760 1.615
109.4063 2.396
109.4366 1.302
109.4668 1.771
109.4971 2.396
109.5274 2.187
109.5577 2.292
109.5880 2.604
109.6182 2.031
109.6485 2.187
109.6788 1.979
109.7091 2.135
109.7393 2.187
109.7696 3.281
109.7999 2.812
109.8302 2.187
109.8605 2.135
109.8907 2.396
109.9210 2.656
109.9513 2.604
109.9816 2.604
110.0119 2.865
110.0421 3.073
110.0724 3.437
110.1027 3.333
110.1330 2.240
110.1632 2.656
110.1935 3.125
110.2238 4.062
110.2541 2.292
110.2844 3.073
110.3146 3.125
110.3449 3.594
110.3752 2.344
110.4055 2.760
110.4358 3.073
110.4660 3.385
110.4963 2.865
110.5266 3.281
110.5569 2.865
110.5871 2.812
110.6174 2.812
110.6477 2.604
110.6780 2.917
110.7083 2.344
110.7385 2.917
110.7688 3.750
110.7991 3.021
110.8294 2.917
110.8597 2.083
110.8899 2.865
110.9202 2.240
110.9505 2.240
110.9808 2.656
111.0110 3.073
111.0413 2.604
111.0716 2.083
111.1019 2.656
111.1322 2.708
111.1624 2.292
111.1927 2.187
111.2230 2.656
111.2533 2.552
111.2836 2.292
111.3138 2.135
111.3441 1.823
111.3744 1.927
111.4047 2.031
111.4350 2.344
111.4652 1.667
111.4955 2.031
111.5258 1.927
111.5561 1.719
111.5863 2.083
111.6166 1.667
111.6469 1.927
111.6772 1.771
111.7075 1.354
111.7377 1.771
111.7680 1.667
111.7983 1.719
111.8286 1.927
111.8589 1.719
111.8891 1.771
111.9194 1.562
111.9497 2.604
111.9800 2.187
112.0102 1.406
112.0405 1.719
112.0708 1.979
112.1011 2.083
112.1314 2.135
112.1616 2.083
112.1919 2.031
112.2222 1.979
112.2525 1.562
112.2828 1.354
112.3130 2.292
112.3433 2.344
112.3736 2.240
112.4039 1.875
112.4341 1.979
112.4644 1.927
112.4947 1.719
112.5250 1.771
112.5553 1.458
112.5855 1.719
112.6158 1.979
112.6461 1.823
112.6764 1.719
112.7067 1.458
112.7369 1.771
112.7672 1.823
112.7975 1.667
112.8278 2.083
112.8580 1.406
112.8883 1.354
112.9186 1.562
112.9489 2.292
112.9792 1.771
113.0094 2.240
113.0397 1.771
113.0700 2.031
113.1003 2.240
113.1306 1.094
113.1608 1.719
113.1911 2.187
113.2214 1.875
113.2517 1.771
113.2819 2.031
113.3122 1.927
113.3425 1.979
113.3728 1.406
113.4031 2.448
113.4333 2.083
113.4636 1.458
113.4939 1.667
113.5242 1.823
113.5545 1.771
113.5847 1.875
113.6150 2.031
113.6453 2.500
113.6756 2.344
113.7058 1.875
113.7361 1.302
113.7664 1.927
113.7967 2.187
113.8270 1.667
113.8572 2.240
113.8875 1.302
113.9178 2.187
113.9481 1.510
113.9784 1.615
114.0086 1.979
114.0389 1.562
114.0692 1.823
114.0995 1.979
114.1298 2.344
114.1600 1.771
114.1903 1.875
114.2206 1.615
114.2509 2.500
114.2811 1.615
114.3114 1.615
114.3417 1.875
114.3720 1.823
114.4023 2.500
114.4325 2.344
114.4628 2.031
114.4931 1.406
114.5234 2.187
114.5537 2.240
114.5839 1.719
114.6142 1.927
114.6445 1.927
114.6748 1.719
114.7050 1.667
114.7353 2.031
114.7656 2.187
114.7959 2.031
114.8262 2.031
114.8564 2.187
114.8867 1.406
114.9170 2.187
114.9473 2.292
114.9776 2.083
115.0078 3.021
115.0381 2.500
115.0684 2.552
115.0987 2.396
115.1289 1.927
115.1592 2.187
115.1895 1.771
115.2198 2.604
115.2501 2.552
115.2803 2.187
115.3106 2.500
115.3409 2.812
115.3712 2.552
115.4015 2.760
115.4317 2.865
115.4620 3.385
115.4923 2.812
115.5226 3.802
115.5528 3.281
115.5831 3.698
115.6134 2.708
115.6437 2.812
115.6740 3.281
115.7042 3.490
115.7345 4.323
115.7648 3.333
115.7951 4.115
115.8254 4.167
115.8556 4.219
115.8859 4.531
115.9162 4.583
115.9465 4.896
115.9767 4.948
116.0070 4.531
116.0373 4.531
116.0676 4.219
116.0979 4.479
116.1281 4.948
116.1584 5.208
116.1887 4.271
116.2190 5.156
116.2493 5.729
116.2795 5.052
116.3098 4.740
116.3401 4.427
116.3704 5.208
116.4006 4.948
116.4309 4.531
116.4612 4.115
116.4915 4.740
116.5218 4.271
116.5520 4.062
116.5823 4.479
116.6126 5.052
116.6429 3.802
116.6732 3.698
116.7034 3.958
116.7337 4.740
116.7640 3.958
116.7943 4.115
116.8245 3.437
116.8548 3.073
116.8851 3.906
116.9154 3.229
116.9457 2.865
116.9759 3.177
117.0062 3.177
117.0365 2.604
117.0668 3.385
117.0971 3.073
117.1273 2.135
117.1576 2.708
117.1879 2.031
117.2182 2.917
117.2485 1.823
117.2787 2.656
117.3090 2.604
117.3393 2.604
117.3696 2.448
117.3998 2.396
117.4301 2.500
117.4604 2.448
117.4907 1.667
117.5210 1.979
117.5512 1.615
117.5815 2.240
117.6118 1.771
117.6421 2.344
117.6724 2.656
117.7026 2.500
117.7329 2.135
117.7632 1.302
117.7935 1.823
117.8237 2.240
117.8540 1.875
117.8843 2.083
117.9146 2.396
117.9449 2.344
117.9751 2.448
118.0054 2.187
118.0357 1.719
118.0660 1.979
118.0963 2.135
118.1265 1.875
118.1568 2.031
118.1871 2.344
118.2174 2.083
118.2476 2.240
118.2779 1.562
118.3082 2.604
118.3385 2.135
118.3688 2.812
118.3990 2.292
118.4293 2.187
118.4596 2.292
118.4899 1.510
118.5202 2.135
118.5504 2.187
118.5807 1.406
118.6110 1.979
118.6413 1.875
118.6715 2.448
118.7018 2.031
118.7321 1.719
118.7624 2.083
118.7927 2.552
118.8229 1.927
118.8532 1.719
118.8835 2.187
118.9138 1.823
118.9441 2.240
118.9743 2.344
119.0046 2.187
119.0349 1.875
119.0652 2.031
119.0954 2.552
119.1257 1.354
119.1560 1.667
119.1863 2.031
119.2166 1.823
119.2468 2.187
119.2771 1.823
119.3074 2.083
119.3377 1.823
119.3680 2.135
119.3982 1.510
119.4285 2.292
119.4588 1.927
119.4891 1.875
119.5193 1.875
119.5496 1.771
119.5799 2.396
119.6102 2.187
119.6405 1.406
119.6707 1.562
119.7010 1.719
119.7313 1.823
119.7616 1.354
119.7919 2.135
119.8221 2.083
119.8524 1.823
119.8827 2.187
119.9130 2.292
119.9433 2.083
119.9735 1.094
120.0038 2.083
