'Id: "" Comment: "" Operator: "Lab Manager" Anode: "Cu" Scantype: "Locked Coupled" TimePerStep: "19.2" X: "9999" Y: "9999" Z: "9999" 
10.0015 3.802
10.0318 3.958
10.0620 4.531
10.0923 4.427
10.1226 3.021
10.1529 4.115
10.1832 3.750
10.2134 4.167
10.2437 3.958
10.2740 5.417
10.3043 3.750
10.3346 3.594
10.3648 4.323
10.3951 3.698
10.4254 4.167
10.4557 4.167
10.4859 3.646
10.5162 5.156
10.5465 4.219
10.5768 5.573
10.6071 3.750
10.6373 3.802
10.6676 5.000
10.6979 5.052
10.7282 3.906
10.7585 4.740
10.7887 4.948
10.8190 4.479
10.8493 5.052
10.8796 6.042
10.9098 6.198
10.9401 6.562
10.9704 8.437
11.0007 8.646
11.0310 8.802
11.0612 10.521
11.0915 8.646
11.1218 8.385
11.1521 6.354
11.1824 6.198
11.2126 5.365
11.2429 4.167
11.2732 4.062
11.3035 4.219
11.3337 4.687
11.3640 4.896
11.3943 4.375
11.4246 4.375
11.4549 4.427
11.4851 5.052
11.5154 3.646
11.5457 4.115
11.5760 5.052
11.6063 3.698
11.6365 4.427
11.6668 4.583
11.6971 4.687
11.7274 4.635
11.7577 4.479
11.7879 3.802
11.8182 3.021
11.8485 3.073
11.8788 4.531
11.9090 4.323
11.9393 4.375
11.9696 4.271
11.9999 3.594
12.0302 3.594
12.0604 3.490
12.0907 2.917
12.1210 2.917
12.1513 3.073
12.1816 3.385
12.2118 3.958
12.2421 4.635
12.2724 3.906
12.3027 3.281
12.3329 3.542
12.3632 3.802
12.3935 2.708
12.4238 3.437
12.4541 3.333
12.4843 3.021
12.5146 3.854
12.5449 3.542
12.5752 3.177
12.6055 3.073
12.6357 4.635
12.6660 3.125
12.6963 4.010
12.7266 3.490
12.7568 3.646
12.7871 3.385
12.8174 4.271
12.8477 3.542
12.8780 3.854
12.9082 3.698
12.9385 3.542
12.9688 2.865
12.9991 3.229
13.0294 3.802
13.0596 4.167
13.0899 3.333
13.1202 3.229
13.1505 3.802
13.1807 3.802
13.2110 3.385
13.2413 3.281
13.2716 3.490
13.3019 3.594
13.3321 2.865
13.3624 3.750
13.3927 3.750
13.4230 3.906
13.4533 2.865
13.4835 3.125
13.5138 3.281
13.5441 3.385
13.5744 4.115
13.6046 2.708
13.6349 4.062
13.6652 3.281
13.6955 3.594
13.7258 4.896
13.7560 3.854
13.7863 3.437
13.8166 1.875
13.8469 2.760
13.8772 2.604
13.9074 3.021
13.9377 3.229
13.9680 2.656
13.9983 3.073
14.0285 3.229
14.0588 2.917
14.0891 3.073
14.1194 3.333
14.1497 3.490
14.1799 4.479
14.2102 2.448
14.2405 2.812
14.2708 4.062
14.3011 3.750
14.3313 2.865
14.3616 3.073
14.3919 3.177
14.4222 3.021
14.4524 3.177
14.4827 2.917
14.5130 3.437
14.5433 3.542
14.5736 3.594
14.6038 3.594
14.6341 2.760
14.6644 3.594
14.6947 3.542
14.7250 3.177
14.7552 2.865
14.7855 3.021
14.8158 3.021
14.8461 2.760
14.8764 3.594
14.9066 3.021
14.9369 3.490
14.9672 3.490
14.9975 2.500
15.0277 2.396
15.0580 3.177
15.0883 2.240
15.1186 3.281
15.1489 2.708
15.1791 3.177
15.2094 2.865
15.2397 2.969
15.2700 2.292
15.3003 2.656
15.3305 3.594
15.3608 3.229
15.3911 3.021
15.4214 2.344
15.4516 3.333
15.4819 3.021
15.5122 3.177
15.5425 3.698
15.5728 2.865
15.6030 3.073
15.6333 3.281
15.6636 3.594
15.6939 3.073
15.7242 2.656
15.7544 2.656
15.7847 2.708
15.8150 2.969
15.8453 3.281
15.8755 3.229
15.9058 2.865
15.9361 3.177
15.9664 3.385
15.9967 3.437
16.0269 2.812
16.0572 3.437
16.0875 3.437
16.1178 2.708
16.1481 2.865
16.1783 2.812
16.2086 2.396
16.2389 3.281
16.2692 2.500
16.2994 2.500
16.3297 3.125
16.3600 2.812
16.3903 3.073
16.4206 2.708
16.4508 3.125
16.4811 2.917
16.5114 2.656
16.5417 2.708
16.5720 3.542
16.6022 2.865
16.6325 2.552
16.6628 3.542
16.6931 2.760
16.7233 2.448
16.7536 3.542
16.7839 2.865
16.8142 2.708
16.8445 3.594
16.8747 3.385
16.9050 3.229
16.9353 3.385
16.9656 2.917
16.9959 3.021
17.0261 3.333
17.0564 3.021
17.0867 3.177
17.1170 3.750
17.1472 2.760
17.1775 3.229
17.2078 3.385
17.2381 2.865
17.2684 3.698
17.2986 2.604
17.3289 2.396
17.3592 2.604
17.3895 3.021
17.4198 2.812
17.4500 3.385
17.4803 2.552
17.5106 3.021
17.5409 3.333
17.5712 3.802
17.6014 2.760
17.6317 2.448
17.6620 2.396
17.6923 2.969
17.7225 3.385
17.7528 2.292
17.7831 2.240
17.8134 2.500
17.8437 2.240
17.8739 2.708
17.9042 2.656
17.9345 3.021
17.9648 2.812
17.9951 3.594
18.0253 4.010
18.0556 3.125
18.0859 2.708
18.1162 3.073
18.1464 2.865
18.1767 2.292
18.2070 3.125
18.2373 2.760
18.2676 3.125
18.2978 2.604
18.3281 2.292
18.3584 3.073
18.3887 2.969
18.4190 3.021
18.4492 2.083
18.4795 2.604
18.5098 2.552
18.5401 2.917
18.5703 2.656
18.6006 3.177
18.6309 2.656
18.6612 2.865
18.6915 1.927
18.7217 2.917
18.7520 2.865
18.7823 3.021
18.8126 2.917
18.8429 3.125
18.8731 2.552
18.9034 3.542
18.9337 2.760
18.9640 2.760
18.9942 3.073
19.0245 1.979
19.0548 2.760
19.0851 2.344
19.1154 2.760
19.1456 2.552
19.1759 2.812
19.2062 2.917
19.2365 2.917
19.2668 2.760
19.2970 2.031
19.3273 3.281
19.3576 2.812
19.3879 3.333
19.4181 2.240
19.4484 2.969
19.4787 2.344
19.5090 2.604
19.5393 2.656
19.5695 2.760
19.5998 2.760
19.6301 3.073
19.6604 2.708
19.6907 3.229
19.7209 2.500
19.7512 2.708
19.7815 3.073
19.8118 2.552
19.8420 2.135
19.8723 2.865
19.9026 2.604
19.9329 3.125
19.9632 2.969
19.9934 3.021
20.0237 1.927
20.0540 2.604
20.0843 2.396
20.1146 2.708
20.1448 2.917
20.1751 2.552
20.2054 2.552
20.2357 2.344
20.2659 3.281
20.2962 2.396
20.3265 2.812
20.3568 3.125
20.3871 2.187
20.4173 2.240
20.4476 2.240
20.4779 2.135
20.5082 2.187
20.5385 2.708
20.5687 2.500
20.5990 2.500
20.6293 2.500
20.6596 2.500
20.6899 2.448
20.7201 1.875
20.7504 2.552
20.7807 2.917
20.8110 2.135
20.8412 2.292
20.8715 2.500
20.9018 2.917
20.9321 1.875
20.9624 3.073
20.9926 1.927
21.0229 2.656
21.0532 1.927
21.0835 2.812
21.1138 2.344
21.1440 1.771
21.1743 1.875
21.2046 1.979
21.2349 2.604
21.2651 2.552
21.2954 2.292
21.3257 2.812
21.3560 2.656
21.3863 3.073
21.4165 2.760
21.4468 2.656
21.4771 2.917
21.5074 2.448
21.5377 2.187
21.5679 1.979
21.5982 1.823
21.6285 2.865
21.6588 2.135
21.6890 2.604
21.7193 2.865
21.7496 2.656
21.7799 2.760
21.8102 2.031
21.8404 2.187
21.8707 3.125
21.9010 3.229
21.9313 2.083
21.9616 3.333
21.9918 2.187
22.0221 2.448
22.0524 3.073
22.0827 2.708
22.1129 1.927
22.1432 2.500
22.1735 2.500
22.2038 2.396
22.2341 2.031
22.2643 2.292
22.2946 2.448
22.3249 1.771
22.3552 3.125
22.3855 2.187
22.4157 2.917
22.4460 2.552
22.4763 1.927
22.5066 2.708
22.5368 2.344
22.5671 2.604
22.5974 2.656
22.6277 2.187
22.6580 2.969
22.6882 1.875
22.7185 2.448
22.7488 2.344
22.7791 2.760
22.8094 2.812
22.8396 2.083
22.8699 2.240
22.9002 2.031
22.9305 2.292
22.9607 1.719
22.9910 2.344
23.0213 2.396
23.0516 2.552
23.0819 2.865
23.1121 2.656
23.1424 2.656
23.1727 2.083
23.2030 2.135
23.2333 2.865
23.2635 1.927
23.2938 2.500
23.3241 2.865
23.3544 2.604
23.3846 2.760
23.4149 2.552
23.4452 2.396
23.4755 2.604
23.5058 2.240
23.5360 2.812
23.5663 2.344
23.5966 2.812
23.6269 2.292
23.6572 2.604
23.6874 2.812
23.7177 2.708
23.7480 1.771
23.7783 2.083
23.8086 2.865
23.8388 2.083
23.8691 2.083
23.8994 2.500
23.9297 2.187
23.9599 2.969
23.9902 2.500
24.0205 2.135
24.0508 2.344
24.0811 2.187
24.1113 2.604
24.1416 2.500
24.1719 2.708
24.2022 2.656
24.2325 2.292
24.2627 2.031
24.2930 2.917
24.3233 1.927
24.3536 2.708
24.3838 2.344
24.4141 1.979
24.4444 2.292
24.4747 2.292
24.5050 2.604
24.5352 2.396
24.5655 2.760
24.5958 2.240
24.6261 1.927
24.6564 2.604
24.6866 2.031
24.7169 2.292
24.7472 2.760
24.7775 1.927
24.8077 1.979
24.8380 1.927
24.8683 2.292
24.8986 2.448
24.9289 2.969
24.9591 1.823
24.9894 2.708
25.0197 2.396
25.0500 2.656
25.0803 2.344
25.1105 2.187
25.1408 2.656
25.1711 2.969
25.2014 2.135
25.2316 2.708
25.2619 2.135
25.2922 1.823
25.3225 1.458
25.3528 2.865
25.3830 2.448
25.4133 2.083
25.4436 2.552
25.4739 2.760
25.5042 2.760
25.5344 3.021
25.5647 2.396
25.5950 3.021
25.6253 2.865
25.6555 2.708
25.6858 2.031
25.7161 2.292
25.7464 2.240
25.7767 3.437
25.8069 2.396
25.8372 3.229
25.8675 2.448
25.8978 2.760
25.9281 2.344
25.9583 2.292
25.9886 2.083
26.0189 2.396
26.0492 2.187
26.0794 2.448
26.1097 2.344
26.1400 2.187
26.1703 2.969
26.2006 2.292
26.2308 2.604
26.2611 3.437
26.2914 2.344
26.3217 2.344
26.3520 3.073
26.3822 2.344
26.4125 2.031
26.4428 2.448
26.4731 1.875
26.5034 2.552
26.5336 2.396
26.5639 2.656
26.5942 1.771
26.6245 2.396
26.6547 2.812
26.6850 2.552
26.7153 3.021
26.7456 2.760
26.7759 2.448
26.8061 2.708
26.8364 2.344
26.8667 3.698
26.8970 2.187
26.9273 1.979
26.9575 2.448
26.9878 2.240
27.0181 3.073
27.0484 2.344
27.0786 2.240
27.1089 2.917
27.1392 3.125
27.1695 2.812
27.1998 2.812
27.2300 3.542
27.2603 1.927
27.2906 2.969
27.3209 2.500
27.3512 2.812
27.3814 2.812
27.4117 2.812
27.4420 2.812
27.4723 2.760
27.5025 3.073
27.5328 2.500
27.5631 2.552
27.5934 2.760
27.6237 1.927
27.6539 2.708
27.6842 2.604
27.7145 3.437
27.7448 3.021
27.7751 3.125
27.8053 2.812
27.8356 2.708
27.8659 3.021
27.8962 2.760
27.9264 2.812
27.9567 2.604
27.9870 2.500
28.0173 2.135
28.0476 3.281
28.0778 1.979
28.1081 3.490
28.1384 2.656
28.1687 3.177
28.1990 2.396
28.2292 2.760
28.2595 3.125
28.2898 2.604
28.3201 2.708
28.3503 2.500
28.3806 3.125
28.4109 2.552
28.4412 2.708
28.4715 3.385
28.5017 2.708
28.5320 2.760
28.5623 2.969
28.5926 3.177
28.6229 2.865
28.6531 3.854
28.6834 3.490
28.7137 2.500
28.7440 2.708
28.7742 3.021
28.8045 3.437
28.8348 2.969
28.8651 2.396
28.8954 3.802
28.9256 2.760
28.9559 2.917
28.9862 2.812
29.0165 3.073
29.0468 3.490
29.0770 3.646
29.1073 3.594
29.1376 2.969
29.1679 3.021
29.1981 3.021
29.2284 2.656
29.2587 3.281
29.2890 2.708
29.3193 2.708
29.3495 3.229
29.3798 2.917
29.4101 3.854
29.4404 3.281
29.4707 3.750
29.5009 2.344
29.5312 3.021
29.5615 3.542
29.5918 3.073
29.6221 3.542
29.6523 3.177
29.6826 3.490
29.7129 4.167
29.7432 3.854
29.7734 3.542
29.8037 3.073
29.8340 4.740
29.8643 3.281
29.8946 3.750
29.9248 3.854
29.9551 4.844
29.9854 3.958
30.0157 4.010
30.0460 3.802
30.0762 3.281
30.1065 3.646
30.1368 3.437
30.1671 4.948
30.1973 4.219
30.2276 4.844
30.2579 3.906
30.2882 3.281
30.3185 4.792
30.3487 4.219
30.3790 3.906
30.4093 4.427
30.4396 5.104
30.4699 4.479
30.5001 4.531
30.5304 5.417
30.5607 4.792
30.5910 4.896
30.6212 4.687
30.6515 4.896
30.6818 4.583
30.7121 5.885
30.7424 5.469
30.7726 6.146
30.8029 5.312
30.8332 5.573
30.8635 5.937
30.8938 6.458
30.9240 6.510
30.9543 6.979
30.9846 7.292
31.0149 8.229
31.0451 8.177
31.0754 10.833
31.1057 9.948
31.1360 10.573
31.1663 10.937
31.1965 11.458
31.2268 12.448
31.2571 13.854
31.2874 15.052
31.3177 18.229
31.3479 18.594
31.3782 21.406
31.4085 25.521
31.4388 25.573
31.4690 29.427
31.4993 34.792
31.5296 37.656
31.5599 41.510
31.5902 43.594
31.6204 42.083
31.6507 44.219
31.6810 43.802
31.7113 40.677
31.7416 39.115
31.7718 30.677
31.8021 30.625
31.8324 25.625
31.8627 22.604
31.8929 20.104
31.9232 17.604
31.9535 15.729
31.9838 15.104
32.0141 14.375
32.0443 12.187
32.0746 11.875
32.1049 11.406
32.1352 9.583
32.1655 9.271
32.1957 8.594
32.2260 7.448
32.2563 9.271
32.2866 7.604
32.3169 6.198
32.3471 7.031
32.3774 6.823
32.4077 6.719
32.4380 6.302
32.4682 6.719
32.4985 6.771
32.5288 5.990
32.5591 3.906
32.5894 5.312
32.6196 6.458
32.6499 6.146
32.6802 5.000
32.7105 5.417
32.7408 4.844
32.7710 6.198
32.8013 5.729
32.8316 4.531
32.8619 4.479
32.8921 5.781
32.9224 4.740
32.9527 4.792
32.9830 4.583
33.0133 4.896
33.0435 4.896
33.0738 5.260
33.1041 5.208
33.1344 4.219
33.1647 5.677
33.1949 4.375
33.2252 4.583
33.2555 5.573
33.2858 4.740
33.3160 5.573
33.3463 4.531
33.3766 4.844
33.4069 5.104
33.4372 5.625
33.4674 4.896
33.4977 4.844
33.5280 6.406
33.5583 5.208
33.5886 6.250
33.6188 4.740
33.6491 5.729
33.6794 7.031
33.7097 6.042
33.7399 7.135
33.7702 7.135
33.8005 6.354
33.8308 6.823
33.8611 7.344
33.8913 9.687
33.9216 8.594
33.9519 10.312
33.9822 11.979
34.0125 12.760
34.0427 14.479
34.0730 16.823
34.1033 20.417
34.1336 22.604
34.1638 26.406
34.1941 35.156
34.2244 45.937
34.2547 56.667
34.2850 58.333
34.3152 56.094
34.3455 51.562
34.3758 45.000
34.4061 37.917
34.4364 30.365
34.4666 23.750
34.4969 19.427
34.5272 16.927
34.5575 13.750
34.5877 12.500
34.6180 10.990
34.6483 11.615
34.6786 10.573
34.7089 8.646
34.7391 8.906
34.7694 7.760
34.7997 7.448
34.8300 7.187
34.8603 7.500
34.8905 6.979
34.9208 5.990
34.9511 6.771
34.9814 7.500
35.0116 6.302
35.0419 6.823
35.0722 6.250
35.1025 7.292
35.1328 6.667
35.1630 7.396
35.1933 7.448
35.2236 7.552
35.2539 6.875
35.2842 9.479
35.3144 7.396
35.3447 9.115
35.3750 9.271
35.4053 9.323
35.4356 9.375
35.4658 9.948
35.4961 9.583
35.5264 12.187
35.5567 11.458
35.5869 13.490
35.6172 13.333
35.6475 14.271
35.6778 14.687
35.7081 15.469
35.7383 17.448
35.7686 20.104
35.7989 22.865
35.8292 22.187
35.8595 28.125
35.8897 29.896
35.9200 36.510
35.9503 42.604
35.9806 43.854
36.0108 48.542
36.0411 54.583
36.0714 56.094
36.1017 61.562
36.1320 63.646
36.1622 62.135
36.1925 59.375
36.2228 54.531
36.2531 47.240
36.2834 43.542
36.3136 39.062
36.3439 32.552
36.3742 30.677
36.4045 27.760
36.4347 24.167
36.4650 20.885
36.4953 18.698
36.5256 14.948
36.5559 14.479
36.5861 12.969
36.6164 13.646
36.6467 11.719
36.6770 10.781
36.7073 11.354
36.7375 9.167
36.7678 8.698
36.7981 9.219
36.8284 7.656
36.8586 6.615
36.8889 6.927
36.9192 7.917
36.9495 6.615
36.9798 6.302
37.0100 6.615
37.0403 5.625
37.0706 5.677
37.1009 4.115
37.1312 5.208
37.1614 4.062
37.1917 5.156
37.2220 3.854
37.2523 3.958
37.2825 4.375
37.3128 5.208
37.3431 4.479
37.3734 4.167
37.4037 4.062
37.4339 4.583
37.4642 4.740
37.4945 4.427
37.5248 4.115
37.5551 3.854
37.5853 3.750
37.6156 3.437
37.6459 3.958
37.6762 4.583
37.7064 3.281
37.7367 3.490
37.7670 3.802
37.7973 3.437
37.8276 2.865
37.8578 2.604
37.8881 4.115
37.9184 3.125
37.9487 3.281
37.9790 3.125
38.0092 3.385
38.0395 3.177
38.0698 2.917
38.1001 3.437
38.1304 3.125
38.1606 3.125
38.1909 2.917
38.2212 2.344
38.2515 3.385
38.2817 2.812
38.3120 2.708
38.3423 2.344
38.3726 3.437
38.4029 3.073
38.4331 2.344
38.4634 2.656
38.4937 3.177
38.5240 2.396
38.5543 3.125
38.5845 2.969
38.6148 2.292
38.6451 2.604
38.6754 3.229
38.7056 3.125
38.7359 2.812
38.7662 2.187
38.7965 1.927
38.8268 2.396
38.8570 3.333
38.8873 2.396
38.9176 1.979
38.9479 2.292
38.9782 2.396
39.0084 3.021
39.0387 1.979
39.0690 2.344
39.0993 2.865
39.1295 2.552
39.1598 1.719
39.1901 2.812
39.2204 2.187
39.2507 2.552
39.2809 1.771
39.3112 2.552
39.3415 2.917
39.3718 2.240
39.4021 2.448
39.4323 2.760
39.4626 2.448
39.4929 1.875
39.5232 2.187
39.5534 1.562
39.5837 2.031
39.6140 2.187
39.6443 2.812
39.6746 1.615
39.7048 1.979
39.7351 1.979
39.7654 2.031
39.7957 2.240
39.8260 2.448
39.8562 2.656
39.8865 2.187
39.9168 1.510
39.9471 1.927
39.9773 2.135
40.0076 2.812
40.0379 2.240
40.0682 2.396
40.0985 2.708
40.1287 2.083
40.1590 2.292
40.1893 2.604
40.2196 2.135
40.2499 2.760
40.2801 2.344
40.3104 1.667
40.3407 1.771
40.3710 1.927
40.4012 2.396
40.4315 2.500
40.4618 2.031
40.4921 1.771
40.5224 1.979
40.5526 2.135
40.5829 2.031
40.6132 1.927
40.6435 2.135
40.6738 2.135
40.7040 1.875
40.7343 2.031
40.7646 2.135
40.7949 1.927
40.8251 1.979
40.8554 1.823
40.8857 1.771
40.9160 1.458
40.9463 2.083
40.9765 1.771
41.0068 2.135
41.0371 1.146
41.0674 1.771
41.0977 1.510
41.1279 1.823
41.1582 1.771
41.1885 2.187
41.2188 1.562
41.2491 1.406
41.2793 1.510
41.3096 2.396
41.3399 2.031
41.3702 1.667
41.4004 2.031
41.4307 1.771
41.4610 1.771
41.4913 1.406
41.5216 1.927
41.5518 1.562
41.5821 2.083
41.6124 2.240
41.6427 1.719
41.6730 2.240
41.7032 1.771
41.7335 2.240
41.7638 1.667
41.7941 2.135
41.8243 1.875
41.8546 2.031
41.8849 2.031
41.9152 1.667
41.9455 1.823
41.9757 2.031
42.0060 1.927
42.0363 2.135
42.0666 1.667
42.0969 1.823
42.1271 1.771
42.1574 1.250
42.1877 2.031
42.2180 1.458
42.2482 2.135
42.2785 1.875
42.3088 2.031
42.3391 1.979
42.3694 1.719
42.3996 1.458
42.4299 1.719
42.4602 1.406
42.4905 2.292
42.5208 1.823
42.5510 2.135
42.5813 1.927
42.6116 2.031
42.6419 1.354
42.6721 2.083
42.7024 1.771
42.7327 2.031
42.7630 1.615
42.7933 1.615
42.8235 1.771
42.8538 1.458
42.8841 1.406
42.9144 2.135
42.9447 1.979
42.9749 1.719
43.0052 1.719
43.0355 1.615
43.0658 2.292
43.0960 1.719
43.1263 1.927
43.1566 1.458
43.1869 1.927
43.2172 1.562
43.2474 2.135
43.2777 1.927
43.3080 2.083
43.3383 2.031
43.3686 1.979
43.3988 1.771
43.4291 2.135
43.4594 1.927
43.4897 2.187
43.5199 2.240
43.5502 1.406
43.5805 2.083
43.6108 1.979
43.6411 2.344
43.6713 1.562
43.7016 1.719
43.7319 2.656
43.7622 1.875
43.7925 2.135
43.8227 2.031
43.8530 1.823
43.8833 2.187
43.9136 1.823
43.9439 1.406
43.9741 1.823
44.0044 1.615
44.0347 1.823
44.0650 1.823
44.0952 1.875
44.1255 2.187
44.1558 1.406
44.1861 1.458
44.2164 1.823
44.2466 1.458
44.2769 1.667
44.3072 2.083
44.3375 1.823
44.3678 2.240
44.3980 1.250
44.4283 1.458
44.4586 1.667
44.4889 1.875
44.5191 2.552
44.5494 1.615
44.5797 1.771
44.6100 1.823
44.6403 1.667
44.6705 2.031
44.7008 1.615
44.7311 1.562
44.7614 1.719
44.7917 1.458
44.8219 1.927
44.8522 2.292
44.8825 1.667
44.9128 1.875
44.9430 1.927
44.9733 2.187
45.0036 1.875
45.0339 1.771
45.0642 2.135
45.0944 1.562
45.1247 2.240
45.1550 2.500
45.1853 1.979
45.2156 1.615
45.2458 1.771
45.2761 2.031
45.3064 1.875
45.3367 2.396
45.3669 2.448
45.3972 2.187
45.4275 2.448
45.4578 1.979
45.4881 1.667
45.5183 1.823
45.5486 1.615
45.5789 2.135
45.6092 2.760
45.6395 2.135
45.6697 1.719
45.7000 1.927
45.7303 1.927
45.7606 1.562
45.7908 2.031
45.8211 1.771
45.8514 2.396
45.8817 2.083
45.9120 1.562
45.9422 1.927
45.9725 1.771
46.0028 1.979
46.0331 2.344
46.0634 1.927
46.0936 2.083
46.1239 2.604
46.1542 2.760
46.1845 1.719
46.2147 2.396
46.2450 2.135
46.2753 3.229
46.3056 2.240
46.3359 2.500
46.3661 2.240
46.3964 2.969
46.4267 1.667
46.4570 2.292
46.4873 2.552
46.5175 3.229
46.5478 1.719
46.5781 2.604
46.6084 2.552
46.6386 3.437
46.6689 2.760
46.6992 3.646
46.7295 3.437
46.7598 3.594
46.7900 3.490
46.8203 2.917
46.8506 3.177
46.8809 3.594
46.9112 3.958
46.9414 4.427
46.9717 5.260
47.0020 3.906
47.0323 4.583
47.0626 6.146
47.0928 6.302
47.1231 6.042
47.1534 6.979
47.1837 8.490
47.2139 8.490
47.2442 8.958
47.2745 11.094
47.3048 10.469
47.3351 12.135
47.3653 12.760
47.3956 14.687
47.4259 13.333
47.4562 13.229
47.4865 13.229
47.5167 11.771
47.5470 11.562
47.5773 9.792
47.6076 9.427
47.6378 8.437
47.6681 6.615
47.6984 7.135
47.7287 7.240
47.7590 6.042
47.7892 6.042
47.8195 4.375
47.8498 4.531
47.8801 5.312
47.9104 3.490
47.9406 3.125
47.9709 2.448
48.0012 2.865
48.0315 3.385
48.0617 2.656
48.0920 3.802
48.1223 2.760
48.1526 2.396
48.1829 2.292
48.2131 2.865
48.2434 2.344
48.2737 2.708
48.3040 2.292
48.3343 3.229
48.3645 1.979
48.3948 1.510
48.4251 2.552
48.4554 2.292
48.4856 2.500
48.5159 1.719
48.5462 2.448
48.5765 2.292
48.6068 2.448
48.6370 2.344
48.6673 2.240
48.6976 2.135
48.7279 2.448
48.7582 1.927
48.7884 2.708
48.8187 2.344
48.8490 1.979
48.8793 1.875
48.9095 1.562
48.9398 1.615
48.9701 2.292
49.0004 1.823
49.0307 2.187
49.0609 2.240
49.0912 2.448
49.1215 2.031
49.1518 2.135
49.1821 1.615
49.2123 1.615
49.2426 2.187
49.2729 1.875
49.3032 2.031
49.3334 1.771
49.3637 1.927
49.3940 2.292
49.4243 1.927
49.4546 1.562
49.4848 2.083
49.5151 2.344
49.5454 1.927
49.5757 1.719
49.6060 1.875
49.6362 1.719
49.6665 1.615
49.6968 2.031
49.7271 1.667
49.7574 1.979
49.7876 2.240
49.8179 2.448
49.8482 1.667
49.8785 2.031
49.9087 1.823
49.9390 2.135
49.9693 1.562
49.9996 1.875
50.0299 1.719
50.0601 1.354
50.0904 1.615
50.1207 1.510
50.1510 1.510
50.1813 2.135
50.2115 1.406
50.2418 1.771
50.2721 1.615
50.3024 1.979
50.3326 1.875
50.3629 1.771
50.3932 1.979
50.4235 1.510
50.4538 2.396
50.4840 1.771
50.5143 1.406
50.5446 2.396
50.5749 1.510
50.6052 2.083
50.6354 2.031
50.6657 2.031
50.6960 1.562
50.7263 2.969
50.7565 1.510
50.7868 1.458
50.8171 1.719
50.8474 1.875
50.8777 1.615
50.9079 1.250
50.9382 1.615
50.9685 1.562
50.9988 2.031
51.0291 2.031
51.0593 2.031
51.0896 1.510
51.1199 1.510
51.1502 2.135
51.1804 1.875
51.2107 1.719
51.2410 1.979
51.2713 1.875
51.3016 1.719
51.3318 2.083
51.3621 2.031
51.3924 2.031
51.4227 1.823
51.4530 1.719
51.4832 1.615
51.5135 1.458
51.5438 1.979
51.5741 1.979
51.6043 1.562
51.6346 2.396
51.6649 1.719
51.6952 1.719
51.7255 2.240
51.7557 1.823
51.7860 1.406
51.8163 1.979
51.8466 1.979
51.8769 1.406
51.9071 1.771
51.9374 1.771
51.9677 1.823
51.9980 2.240
52.0282 2.135
52.0585 1.823
52.0888 1.927
52.1191 1.875
52.1494 1.875
52.1796 1.771
52.2099 1.615
52.2402 1.146
52.2705 1.875
52.3008 1.458
52.3310 1.354
52.3613 1.979
52.3916 1.510
52.4219 2.083
52.4521 1.302
52.4824 1.771
52.5127 2.135
52.5430 1.875
52.5733 1.979
52.6035 1.927
52.6338 1.250
52.6641 2.448
52.6944 1.406
52.7247 1.979
52.7549 1.771
52.7852 1.979
52.8155 1.875
52.8458 1.510
52.8761 1.719
52.9063 2.031
52.9366 1.667
52.9669 1.979
52.9972 1.875
53.0274 1.510
53.0577 1.406
53.0880 1.458
53.1183 1.615
53.1486 1.823
53.1788 1.823
53.2091 1.510
53.2394 1.927
53.2697 1.615
53.3000 2.292
53.3302 2.083
53.3605 1.875
53.3908 2.187
53.4211 2.344
53.4513 1.875
53.4816 1.615
53.5119 1.823
53.5422 1.719
53.5725 1.927
53.6027 1.458
53.6330 1.458
53.6633 1.823
53.6936 2.031
53.7239 1.823
53.7541 2.031
53.7844 1.771
53.8147 1.562
53.8450 1.719
53.8752 1.927
53.9055 1.719
53.9358 1.823
53.9661 1.354
53.9964 1.875
54.0266 2.083
54.0569 1.719
54.0872 1.771
54.1175 1.979
54.1478 1.771
54.1780 2.083
54.2083 1.667
54.2386 1.771
54.2689 1.979
54.2991 2.500
54.3294 2.135
54.3597 1.823
54.3900 2.135
54.4203 1.719
54.4505 1.875
54.4808 2.083
54.5111 1.615
54.5414 1.823
54.5717 1.927
54.6019 2.292
54.6322 2.240
54.6625 2.135
54.6928 1.979
54.7230 2.708
54.7533 2.031
54.7836 1.979
54.8139 2.083
54.8442 1.979
54.8744 1.823
54.9047 1.979
54.9350 1.771
54.9653 2.187
54.9956 1.875
55.0258 2.135
55.0561 2.552
55.0864 2.552
55.1167 2.083
55.1469 1.979
55.1772 1.771
55.2075 2.135
55.2378 2.292
55.2681 2.500
55.2983 2.708
55.3286 2.240
55.3589 2.656
55.3892 2.135
55.4195 2.396
55.4497 3.073
55.4800 2.760
55.5103 2.656
55.5406 2.708
55.5709 2.500
55.6011 2.917
55.6314 2.187
55.6617 4.427
55.6920 3.073
55.7222 3.698
55.7525 2.760
55.7828 4.427
55.8131 3.750
55.8434 4.323
55.8736 4.115
55.9039 4.635
55.9342 4.167
55.9645 5.052
55.9948 5.417
56.0250 5.156
56.0553 5.156
56.0856 5.990
56.1159 6.562
56.1461 7.240
56.1764 7.812
56.2067 8.490
56.2370 10.937
56.2673 9.687
56.2975 11.198
56.3278 11.667
56.3581 12.708
56.3884 14.635
56.4187 13.854
56.4489 17.240
56.4792 14.896
56.5095 14.271
56.5398 15.312
56.5700 13.542
56.6003 13.229
56.6306 11.875
56.6609 11.562
56.6912 11.302
56.7214 11.250
56.7517 8.906
56.7820 7.760
56.8123 7.552
56.8426 5.937
56.8728 6.250
56.9031 5.260
56.9334 6.823
56.9637 4.583
56.9939 5.573
57.0242 4.427
57.0545 4.375
57.0848 3.958
57.1151 3.750
57.1453 3.750
57.1756 3.542
57.2059 3.281
57.2362 3.333
57.2665 3.385
57.2967 2.708
57.3270 2.604
57.3573 2.344
57.3876 2.500
57.4178 2.500
57.4481 2.760
57.4784 2.604
57.5087 2.500
57.5390 3.021
57.5692 1.979
57.5995 2.344
57.6298 2.292
57.6601 2.240
57.6904 2.187
57.7206 1.979
57.7509 2.344
57.7812 1.667
57.8115 2.083
57.8417 1.927
57.8720 1.406
57.9023 1.979
57.9326 2.500
57.9629 2.031
57.9931 1.771
58.0234 2.552
58.0537 1.875
58.0840 2.448
58.1143 2.604
58.1445 2.135
58.1748 1.562
58.2051 1.771
58.2354 2.292
58.2656 2.656
58.2959 2.292
58.3262 2.083
58.3565 1.979
58.3868 2.187
58.4170 2.187
58.4473 1.667
58.4776 2.135
58.5079 1.771
58.5382 1.927
58.5684 1.667
58.5987 1.250
58.6290 1.719
58.6593 2.031
58.6896 1.771
58.7198 2.187
58.7501 1.927
58.7804 1.771
58.8107 1.562
58.8409 1.562
58.8712 1.615
58.9015 1.510
58.9318 1.979
58.9621 2.187
58.9923 1.198
59.0226 1.719
59.0529 2.240
59.0832 2.135
59.1135 2.448
59.1437 2.031
59.1740 1.562
59.2043 2.292
59.2346 2.135
59.2648 1.875
59.2951 1.771
59.3254 1.719
59.3557 1.667
59.3860 2.240
59.4162 1.406
59.4465 2.135
59.4768 2.135
59.5071 2.187
59.5374 1.667
59.5676 1.406
59.5979 1.667
59.6282 1.302
59.6585 1.510
59.6887 1.823
59.7190 1.510
59.7493 2.396
59.7796 1.823
59.8099 1.823
59.8401 2.187
59.8704 1.510
59.9007 1.510
59.9310 2.344
59.9613 2.031
59.9915 1.771
60.0218 1.823
60.0521 2.344
60.0824 2.135
60.1126 2.135
60.1429 1.719
60.1732 2.135
60.2035 2.031
60.2338 2.083
60.2640 1.406
60.2943 1.823
60.3246 2.240
60.3549 1.562
60.3852 1.875
60.4154 1.458
60.4457 1.771
60.4760 1.146
60.5063 1.458
60.5365 1.458
60.5668 1.823
60.5971 1.510
60.6274 1.302
60.6577 2.500
60.6879 1.667
60.7182 2.500
60.7485 1.979
60.7788 2.083
60.8091 1.302
60.8393 1.979
60.8696 1.406
60.8999 2.135
60.9302 2.031
60.9604 1.823
60.9907 2.031
61.0210 2.031
61.0513 1.667
61.0816 1.771
61.1118 1.823
61.1421 2.135
61.1724 1.823
61.2027 1.927
61.2330 1.250
61.2632 1.667
61.2935 2.604
61.3238 1.510
61.3541 2.083
61.3844 2.344
61.4146 2.500
61.4449 1.771
61.4752 2.292
61.5055 1.927
61.5357 2.500
61.5660 2.552
61.5963 2.240
61.6266 1.927
61.6569 2.396
61.6871 2.292
61.7174 2.344
61.7477 2.500
61.7780 2.187
61.8083 2.240
61.8385 2.865
61.8688 2.240
61.8991 2.396
61.9294 2.500
61.9596 2.552
61.9899 2.760
62.0202 3.698
62.0505 3.177
62.0808 3.490
62.1110 3.229
62.1413 3.854
62.1716 3.542
62.2019 3.490
62.2322 4.427
62.2624 4.062
62.2927 4.896
62.3230 5.469
62.3533 4.740
62.3835 6.406
62.4138 5.625
62.4441 6.771
62.4744 7.604
62.5047 8.646
62.5349 10.000
62.5652 10.260
62.5955 10.521
62.6258 11.927
62.6561 12.917
62.6863 12.708
62.7166 15.104
62.7469 14.323
62.7772 14.427
62.8074 13.281
62.8377 12.865
62.8680 12.396
62.8983 9.896
62.9286 10.521
62.9588 9.740
62.9891 8.281
63.0194 8.073
63.0497 6.771
63.0800 6.615
63.1102 5.990
63.1405 6.302
63.1708 5.625
63.2011 5.885
63.2313 4.531
63.2616 3.854
63.2919 3.854
63.3222 3.177
63.3525 2.656
63.3827 3.125
63.4130 3.073
63.4433 3.125
63.4736 2.552
63.5039 3.073
63.5341 2.812
63.5644 3.281
63.5947 1.719
63.6250 2.083
63.6552 2.135
63.6855 2.917
63.7158 1.823
63.7461 1.927
63.7764 2.604
63.8066 2.031
63.8369 1.719
63.8672 2.396
63.8975 2.656
63.9278 2.187
63.9580 1.823
63.9883 1.406
64.0186 2.500
64.0489 2.083
64.0791 2.083
64.1094 1.875
64.1397 1.562
64.1700 1.510
64.2003 2.344
64.2305 2.031
64.2608 1.562
64.2911 1.615
64.3214 2.344
64.3517 2.135
64.3819 2.135
64.4122 1.927
64.4425 1.927
64.4728 2.187
64.5031 1.510
64.5333 1.979
64.5636 1.771
64.5939 1.927
64.6242 1.927
64.6544 1.823
64.6847 1.458
64.7150 2.552
64.7453 1.562
64.7756 1.927
64.8058 2.240
64.8361 1.875
64.8664 1.667
64.8967 1.979
64.9270 1.875
64.9572 1.562
64.9875 1.927
65.0178 1.458
65.0481 2.031
65.0783 1.406
65.1086 2.031
65.1389 1.927
65.1692 1.719
65.1995 2.604
65.2297 1.510
65.2600 2.448
65.2903 2.448
65.3206 2.083
65.3509 2.969
65.3811 1.719
65.4114 2.396
65.4417 2.187
65.4720 1.771
65.5022 2.187
65.5325 1.562
65.5628 1.875
65.5931 1.771
65.6234 1.615
65.6536 2.135
65.6839 2.135
65.7142 2.344
65.7445 2.396
65.7748 1.979
65.8050 1.875
65.8353 2.448
65.8656 2.656
65.8959 2.969
65.9261 2.187
65.9564 3.073
65.9867 2.240
66.0170 3.177
66.0473 2.760
66.0775 3.333
66.1078 3.646
66.1381 2.969
66.1684 2.969
66.1987 3.490
66.2289 3.750
66.2592 2.708
66.2895 3.542
66.3198 3.177
66.3500 2.969
66.3803 3.333
66.4106 3.385
66.4409 2.865
66.4712 3.646
66.5014 3.958
66.5317 2.240
66.5620 2.344
66.5923 2.396
66.6226 3.021
66.6528 2.292
66.6831 2.656
66.7134 3.125
66.7437 2.187
66.7739 2.552
66.8042 2.552
66.8345 2.448
66.8648 2.448
66.8951 3.177
66.9253 2.656
66.9556 2.917
66.9859 3.177
67.0162 3.177
67.0465 2.396
67.0767 2.969
67.1070 2.969
67.1373 3.229
67.1676 3.698
67.1978 3.125
67.2281 3.177
67.2584 3.490
67.2887 3.958
67.3190 4.375
67.3492 4.583
67.3795 4.323
67.4098 4.010
67.4401 5.260
67.4704 5.885
67.5006 5.677
67.5309 5.677
67.5612 6.458
67.5915 7.917
67.6218 7.604
67.6520 7.031
67.6823 9.427
67.7126 7.344
67.7429 9.740
67.7731 9.531
67.8034 10.208
67.8337 10.260
67.8640 9.740
67.8943 7.604
67.9245 9.740
67.9548 10.104
67.9851 8.125
68.0154 8.177
68.0457 8.125
68.0759 5.937
68.1062 6.510
68.1365 5.990
68.1668 6.875
68.1970 5.677
68.2273 5.000
68.2576 4.740
68.2879 5.833
68.3182 4.792
68.3484 5.104
68.3787 3.646
68.4090 3.802
68.4393 5.000
68.4696 3.594
68.4998 3.906
68.5301 3.698
68.5604 3.385
68.5907 3.854
68.6209 4.479
68.6512 4.115
68.6815 4.740
68.7118 5.312
68.7421 4.115
68.7723 4.844
68.8026 4.583
68.8329 5.052
68.8632 5.156
68.8935 5.833
68.9237 6.510
68.9540 5.365
68.9843 5.625
69.0146 5.156
69.0448 5.677
69.0751 5.885
69.1054 5.469
69.1357 4.583
69.1660 5.156
69.1962 3.854
69.2265 4.375
69.2568 3.333
69.2871 2.969
69.3174 2.865
69.3476 3.333
69.3779 2.865
69.4082 3.385
69.4385 2.135
69.4687 2.396
69.4990 2.448
69.5293 2.552
69.5596 2.604
69.5899 2.656
69.6201 1.823
69.6504 1.615
69.6807 1.771
69.7110 2.031
69.7413 1.302
69.7715 2.292
69.8018 2.135
69.8321 2.187
69.8624 1.771
69.8926 2.396
69.9229 1.771
69.9532 1.979
69.9835 1.250
70.0138 2.187
70.0440 1.927
70.0743 2.031
70.1046 1.250
70.1349 1.406
70.1652 1.510
70.1954 1.250
70.2257 1.771
70.2560 1.615
70.2863 1.406
70.3166 1.458
70.3468 1.667
70.3771 1.302
70.4074 1.042
70.4377 1.823
70.4679 1.771
70.4982 1.875
70.5285 1.510
70.5588 1.458
70.5891 1.510
70.6193 1.250
70.6496 1.562
70.6799 1.771
70.7102 1.198
70.7405 1.510
70.7707 1.719
70.8010 2.031
70.8313 1.771
70.8616 1.667
70.8918 2.500
70.9221 1.562
70.9524 1.615
70.9827 1.198
71.0130 1.250
71.0432 1.458
71.0735 1.094
71.1038 1.406
71.1341 1.562
71.1644 1.510
71.1946 1.719
71.2249 1.719
71.2552 1.615
71.2855 1.823
71.3157 1.198
71.3460 1.510
71.3763 1.406
71.4066 1.354
71.4369 1.771
71.4671 1.667
71.4974 0.729
71.5277 1.771
71.5580 1.406
71.5883 0.677
71.6185 1.250
71.6488 1.510
71.6791 1.562
71.7094 0.990
71.7396 1.302
71.7699 1.615
71.8002 1.667
71.8305 1.198
71.8608 1.198
71.8910 1.823
71.9213 1.615
71.9516 1.562
71.9819 1.667
72.0122 1.667
72.0424 1.250
72.0727 1.458
72.1030 1.667
72.1333 2.083
72.1635 2.552
72.1938 1.771
72.2241 1.146
72.2544 2.135
72.2847 2.031
72.3149 1.875
72.3452 2.344
72.3755 2.083
72.4058 1.927
72.4361 1.771
72.4663 2.344
72.4966 2.135
72.5269 1.875
72.5572 1.979
72.5874 1.979
72.6177 1.667
72.6480 1.719
72.6783 1.406
72.7086 1.250
72.7388 1.771
72.7691 2.135
72.7994 1.979
72.8297 1.719
72.8600 1.354
72.8902 1.406
72.9205 1.510
72.9508 1.667
72.9811 1.354
73.0113 1.042
73.0416 1.667
73.0719 1.615
73.1022 1.146
73.1325 1.302
73.1627 1.406
73.1930 1.198
73.2233 1.146
73.2536 1.146
73.2839 1.094
73.3141 1.719
73.3444 1.198
73.3747 1.354
73.4050 0.833
73.4353 1.094
73.4655 1.302
73.4958 0.990
73.5261 1.615
73.5564 0.990
73.5866 1.042
73.6169 1.094
73.6472 1.250
73.6775 1.146
73.7078 0.990
73.7380 1.406
73.7683 1.615
73.7986 1.406
73.8289 1.667
73.8592 1.250
73.8894 1.250
73.9197 1.250
73.9500 1.406
73.9803 1.250
74.0105 0.833
74.0408 0.729
74.0711 1.042
74.1014 1.250
74.1317 1.406
74.1619 1.562
74.1922 1.094
74.2225 1.354
74.2528 1.198
74.2831 0.729
74.3133 1.198
74.3436 1.198
74.3739 0.729
74.4042 1.198
74.4344 1.198
74.4647 1.198
74.4950 1.094
74.5253 1.198
74.5556 1.510
74.5858 1.667
74.6161 1.198
74.6464 1.198
74.6767 1.042
74.7070 1.042
74.7372 0.885
74.7675 1.198
74.7978 1.302
74.8281 1.146
74.8583 0.833
74.8886 0.781
74.9189 0.833
74.9492 1.250
74.9795 1.198
75.0097 0.729
75.0400 1.146
75.0703 1.458
75.1006 1.198
75.1309 1.250
75.1611 0.833
75.1914 1.354
75.2217 0.990
75.2520 0.885
75.2822 1.562
75.3125 0.990
75.3428 1.094
75.3731 1.042
75.4034 1.042
75.4336 0.885
75.4639 0.885
75.4942 1.146
75.5245 1.250
75.5548 0.781
75.5850 1.562
75.6153 1.198
75.6456 1.198
75.6759 1.250
75.7061 1.042
75.7364 1.406
75.7667 1.667
75.7970 1.094
75.8273 1.354
75.8575 1.302
75.8878 1.562
75.9181 1.458
75.9484 1.562
75.9787 1.198
76.0089 1.250
76.0392 1.094
76.0695 1.667
76.0998 1.094
76.1301 1.042
76.1603 1.302
76.1906 1.615
76.2209 1.354
76.2512 1.719
76.2814 1.250
76.3117 1.510
76.3420 1.146
76.3723 1.667
76.4026 1.719
76.4328 1.406
76.4631 1.406
76.4934 1.667
76.5237 2.135
76.5540 2.135
76.5842 1.823
76.6145 2.135
76.6448 1.406
76.6751 2.031
76.7053 2.500
76.7356 1.771
76.7659 1.719
76.7962 2.396
76.8265 2.344
76.8567 1.667
76.8870 2.552
76.9173 1.979
76.9476 2.760
76.9779 2.083
77.0081 1.875
77.0384 2.604
77.0687 1.510
77.0990 1.510
77.1292 1.458
77.1595 1.458
77.1898 1.562
77.2201 1.615
77.2504 1.198
77.2806 1.302
77.3109 1.250
77.3412 1.667
77.3715 1.719
77.4018 1.510
77.4320 2.083
77.4623 1.250
77.4926 1.458
77.5229 0.885
77.5531 0.937
77.5834 1.042
77.6137 1.354
77.6440 1.198
77.6743 1.042
77.7045 1.302
77.7348 1.198
77.7651 1.510
77.7954 1.771
77.8257 1.042
77.8559 1.354
77.8862 1.198
77.9165 1.667
77.9468 1.667
77.9770 1.510
78.0073 1.042
78.0376 1.406
78.0679 1.667
78.0982 1.719
78.1284 1.354
78.1587 0.990
78.1890 1.198
78.2193 1.302
78.2496 0.990
78.2798 1.198
78.3101 1.302
78.3404 0.990
78.3707 0.729
78.4009 1.406
78.4312 1.146
78.4615 1.094
78.4918 1.198
78.5221 1.094
78.5523 0.573
78.5826 1.146
78.6129 1.771
78.6432 1.458
78.6735 1.354
78.7037 0.833
78.7340 1.302
78.7643 1.354
78.7946 1.510
78.8248 1.302
78.8551 1.146
78.8854 1.042
78.9157 1.198
78.9460 1.406
78.9762 1.146
79.0065 0.990
79.0368 1.250
79.0671 1.146
79.0974 1.250
79.1276 1.042
79.1579 0.990
79.1882 1.354
79.2185 1.042
79.2488 0.833
79.2790 0.833
79.3093 1.302
79.3396 1.562
79.3699 0.781
79.4001 1.042
79.4304 1.198
79.4607 1.146
79.4910 1.510
79.5213 0.833
79.5515 1.198
79.5818 1.198
79.6121 0.885
79.6424 1.094
79.6727 0.990
79.7029 0.781
79.7332 1.615
79.7635 1.198
79.7938 1.094
79.8240 1.198
79.8543 1.302
79.8846 1.198
79.9149 1.250
79.9452 1.458
79.9754 0.937
80.0057 1.406
80.0360 1.042
80.0663 1.042
80.0966 1.302
80.1268 1.198
80.1571 1.198
80.1874 1.198
80.2177 1.198
80.2479 1.146
80.2782 0.937
80.3085 1.198
80.3388 1.146
80.3691 1.198
80.3993 1.615
80.4296 1.094
80.4599 1.250
80.4902 1.042
80.5205 1.354
80.5507 1.146
80.5810 0.677
80.6113 1.302
80.6416 1.510
80.6718 1.302
80.7021 1.562
80.7324 1.094
80.7627 1.667
80.7930 1.354
80.8232 1.354
80.8535 1.302
80.8838 1.510
80.9141 1.250
80.9444 1.302
80.9746 2.135
81.0049 1.458
81.0352 1.615
81.0655 1.198
81.0957 1.406
81.1260 1.458
81.1563 1.562
81.1866 2.083
81.2169 2.396
81.2471 1.198
81.2774 1.823
81.3077 2.083
81.3380 1.354
81.3683 1.198
81.3985 1.615
81.4288 1.250
81.4591 2.135
81.4894 0.833
81.5196 2.292
81.5499 1.875
81.5802 1.458
81.6105 1.250
81.6408 1.406
81.6710 1.146
81.7013 1.615
81.7316 0.729
81.7619 1.510
81.7922 1.146
81.8224 1.146
81.8527 1.354
81.8830 1.094
81.9133 1.198
81.9436 1.198
81.9738 1.562
82.0041 1.198
82.0344 1.198
82.0647 1.302
82.0949 1.094
82.1252 1.354
82.1555 1.458
82.1858 1.146
82.2161 1.510
82.2463 0.885
82.2766 0.677
82.3069 1.198
82.3372 1.250
82.3675 1.198
82.3977 1.042
82.4280 1.406
82.4583 1.510
82.4886 1.250
82.5188 1.823
82.5491 1.771
82.5794 0.833
82.6097 1.771
82.6400 1.510
82.6702 1.719
82.7005 1.406
82.7308 0.729
82.7611 0.781
82.7914 0.990
82.8216 0.833
82.8519 1.146
82.8822 0.729
82.9125 1.302
82.9427 0.781
82.9730 1.094
83.0033 1.354
83.0336 1.094
83.0639 1.146
83.0941 0.990
83.1244 1.510
83.1547 1.198
83.1850 1.354
83.2153 0.885
83.2455 1.406
83.2758 1.094
83.3061 0.833
83.3364 1.042
83.3666 1.354
83.3969 0.990
83.4272 0.937
83.4575 1.562
83.4878 1.354
83.5180 1.302
83.5483 0.885
83.5786 0.729
83.6089 1.042
83.6392 1.719
83.6694 1.146
83.6997 0.937
83.7300 1.302
83.7603 1.198
83.7905 1.042
83.8208 0.885
83.8511 1.406
83.8814 1.042
83.9117 0.729
83.9419 0.729
83.9722 0.990
84.0025 1.719
84.0328 1.198
84.0631 1.042
84.0933 1.406
84.1236 1.198
84.1539 0.990
84.1842 1.094
84.2144 1.615
84.2447 1.198
84.2750 0.833
84.3053 0.990
84.3356 0.990
84.3658 1.302
84.3961 0.990
84.4264 1.458
84.4567 1.198
84.4870 1.354
84.5172 1.042
84.5475 0.729
84.5778 1.042
84.6081 1.094
84.6383 1.198
84.6686 1.250
84.6989 1.667
84.7292 1.042
84.7595 1.458
84.7897 1.042
84.8200 1.667
84.8503 0.521
84.8806 0.677
84.9109 1.615
84.9411 0.990
84.9714 1.094
85.0017 0.729
85.0320 1.094
85.0623 0.937
85.0925 1.198
85.1228 1.146
85.1531 0.937
85.1834 1.667
85.2136 1.354
85.2439 1.094
85.2742 1.354
85.3045 0.885
85.3348 0.833
85.3650 1.198
85.3953 1.198
85.4256 1.458
85.4559 1.406
85.4862 1.198
85.5164 0.833
85.5467 1.094
85.5770 1.146
85.6073 0.677
85.6375 1.979
85.6678 1.094
85.6981 1.198
85.7284 1.146
85.7587 1.094
85.7889 1.146
85.8192 1.302
85.8495 1.458
85.8798 0.729
85.9101 1.562
85.9403 0.885
85.9706 0.833
86.0009 1.094
86.0312 0.781
86.0614 1.198
86.0917 1.042
86.1220 0.833
86.1523 1.250
86.1826 1.094
86.2128 1.406
86.2431 0.990
86.2734 1.302
86.3037 1.198
86.3340 0.885
86.3642 1.198
86.3945 1.042
86.4248 1.198
86.4551 1.042
86.4853 0.833
86.5156 1.094
86.5459 1.094
86.5762 1.042
86.6065 1.510
86.6367 1.667
86.6670 0.937
86.6973 0.937
86.7276 1.406
86.7579 1.094
86.7881 1.406
86.8184 1.302
86.8487 0.937
86.8790 1.406
86.9092 1.146
86.9395 1.042
86.9698 0.781
87.0001 1.667
87.0304 1.198
87.0606 1.146
87.0909 0.781
87.1212 1.198
87.1515 1.042
87.1818 0.729
87.2120 1.302
87.2423 1.510
87.2726 0.990
87.3029 1.250
87.3331 1.094
87.3634 1.354
87.3937 0.937
87.4240 1.198
87.4543 1.250
87.4845 1.250
87.5148 1.146
87.5451 1.406
87.5754 1.042
87.6057 1.250
87.6359 1.198
87.6662 1.042
87.6965 1.042
87.7268 1.042
87.7571 0.729
87.7873 1.198
87.8176 1.250
87.8479 1.094
87.8782 1.198
87.9084 1.302
87.9387 1.302
87.9690 0.937
87.9993 1.094
88.0296 1.094
88.0598 1.250
88.0901 1.198
88.1204 1.302
88.1507 1.667
88.1810 0.937
88.2112 1.042
88.2415 1.094
88.2718 1.250
88.3021 1.302
88.3323 1.302
88.3626 1.354
88.3929 1.354
88.4232 1.615
88.4535 1.198
88.4837 1.250
88.5140 1.562
88.5443 1.198
88.5746 1.094
88.6049 1.927
88.6351 1.615
88.6654 1.458
88.6957 1.510
88.7260 1.302
88.7562 1.458
88.7865 1.250
88.8168 1.354
88.8471 1.771
88.8774 2.187
88.9076 2.135
88.9379 1.719
88.9682 2.187
88.9985 2.135
89.0288 1.823
89.0590 1.458
89.0893 2.083
89.1196 1.875
89.1499 2.135
89.1801 2.187
89.2104 3.073
89.2407 2.292
89.2710 2.135
89.3013 1.875
89.3315 3.281
89.3618 2.604
89.3921 2.917
89.4224 2.187
89.4527 2.917
89.4829 3.021
89.5132 3.229
89.5435 2.812
89.5738 2.760
89.6040 3.073
89.6343 2.708
89.6646 2.760
89.6949 3.073
89.7252 2.708
89.7554 2.240
89.7857 3.021
89.8160 2.552
89.8463 2.656
89.8766 2.396
89.9068 2.240
89.9371 1.927
89.9674 2.240
89.9977 2.135
90.0279 1.875
90.0582 2.135
90.0885 1.979
90.1188 2.083
90.1491 1.562
90.1793 1.823
90.2096 1.719
90.2399 1.667
90.2702 1.979
90.3005 1.979
90.3307 1.302
90.3610 1.198
90.3913 1.823
90.4216 1.198
90.4518 1.667
90.4821 1.354
90.5124 0.990
90.5427 1.250
90.5730 1.198
90.6032 1.406
90.6335 1.823
90.6638 1.458
90.6941 1.458
90.7244 1.406
90.7546 1.250
90.7849 1.198
90.8152 1.667
90.8455 1.927
90.8758 1.615
90.9060 0.781
90.9363 0.729
90.9666 1.198
90.9969 1.042
91.0271 1.302
91.0574 1.667
91.0877 1.354
91.1180 0.729
91.1483 0.729
91.1785 1.354
91.2088 0.677
91.2391 0.937
91.2694 1.094
91.2997 1.146
91.3299 1.198
91.3602 0.937
91.3905 0.937
91.4208 1.875
91.4510 1.094
91.4813 0.990
91.5116 1.094
91.5419 1.094
91.5722 1.510
91.6024 1.354
91.6327 1.354
91.6630 1.250
91.6933 1.510
91.7236 1.198
91.7538 1.146
91.7841 0.990
91.8144 1.250
91.8447 1.198
91.8749 1.771
91.9052 1.458
91.9355 1.198
91.9658 1.823
91.9961 1.354
92.0263 1.250
92.0566 1.667
92.0869 1.562
92.1172 1.562
92.1475 1.198
92.1777 1.198
92.2080 1.406
92.2383 0.990
92.2686 1.719
92.2988 1.354
92.3291 1.302
92.3594 1.146
92.3897 1.510
92.4200 1.667
92.4502 1.458
92.4805 1.458
92.5108 1.198
92.5411 2.187
92.5714 1.406
92.6016 2.187
92.6319 1.719
92.6622 2.344
92.6925 1.771
92.7227 2.083
92.7530 2.031
92.7833 1.615
92.8136 2.031
92.8439 1.927
92.8741 2.135
92.9044 0.990
92.9347 1.875
92.9650 1.823
92.9953 1.510
93.0255 1.562
93.0558 1.146
93.0861 1.354
93.1164 1.042
93.1466 1.719
93.1769 1.510
93.2072 1.406
93.2375 1.042
93.2678 1.875
93.2980 1.354
93.3283 1.667
93.3586 1.875
93.3889 1.302
93.4192 0.885
93.4494 1.771
93.4797 1.406
93.5100 1.719
93.5403 1.510
93.5706 1.042
93.6008 1.823
93.6311 1.354
93.6614 0.885
93.6917 0.885
93.7219 1.250
93.7522 1.302
93.7825 1.406
93.8128 1.562
93.8431 1.094
93.8733 1.615
93.9036 1.562
93.9339 1.771
93.9642 1.458
93.9945 1.146
94.0247 1.562
94.0550 1.458
94.0853 1.615
94.1156 1.615
94.1458 1.094
94.1761 1.302
94.2064 1.458
94.2367 1.615
94.2670 1.198
94.2972 1.615
94.3275 1.302
94.3578 1.719
94.3881 1.250
94.4184 1.719
94.4486 1.562
94.4789 1.667
94.5092 2.344
94.5395 0.937
94.5697 1.250
94.6000 1.510
94.6303 1.875
94.6606 1.615
94.6909 1.094
94.7211 1.875
94.7514 1.927
94.7817 2.031
94.8120 1.823
94.8423 1.719
94.8725 2.500
94.9028 2.031
94.9331 1.719
94.9634 2.396
94.9936 2.708
95.0239 2.240
95.0542 2.604
95.0845 2.344
95.1148 2.240
95.1450 3.177
95.1753 2.708
95.2056 3.073
95.2359 2.292
95.2662 2.969
95.2964 2.240
95.3267 2.292
95.3570 2.240
95.3873 2.135
95.4175 3.177
95.4478 2.187
95.4781 2.240
95.5084 1.875
95.5387 2.187
95.5689 2.240
95.5992 2.240
95.6295 1.562
95.6598 1.927
95.6901 1.875
95.7203 2.187
95.7506 3.073
95.7809 2.240
95.8112 1.875
95.8414 1.458
95.8717 1.250
95.9020 1.719
95.9323 1.510
95.9626 1.667
95.9928 1.667
96.0231 1.510
96.0534 1.771
96.0837 1.615
96.1140 1.458
96.1442 1.562
96.1745 1.250
96.2048 1.615
96.2351 1.354
96.2653 1.406
96.2956 1.198
96.3259 1.667
96.3562 1.406
96.3865 1.302
96.4167 1.667
96.4470 1.042
96.4773 1.250
96.5076 1.667
96.5379 1.354
96.5681 1.458
96.5984 1.302
96.6287 1.250
96.6590 0.990
96.6893 1.302
96.7195 1.562
96.7498 1.771
96.7801 1.510
96.8104 1.458
96.8406 1.146
96.8709 1.094
96.9012 1.771
96.9315 0.833
96.9618 1.042
96.9920 0.990
97.0223 1.406
97.0526 1.146
97.0829 1.562
97.1132 1.302
97.1434 1.354
97.1737 1.667
97.2040 0.990
97.2343 1.354
97.2645 0.990
97.2948 1.562
97.3251 1.562
97.3554 1.198
97.3857 1.667
97.4159 0.990
97.4462 1.406
97.4765 1.094
97.5068 1.302
97.5371 1.562
97.5673 1.667
97.5976 1.146
97.6279 1.250
97.6582 0.937
97.6884 1.354
97.7187 1.146
97.7490 1.302
97.7793 1.771
97.8096 1.250
97.8398 1.354
97.8701 1.667
97.9004 1.667
97.9307 1.250
97.9610 1.250
97.9912 1.302
98.0215 0.781
98.0518 1.510
98.0821 1.458
98.1123 1.771
98.1426 1.146
98.1729 1.458
98.2032 1.406
98.2335 1.458
98.2637 1.562
98.2940 1.979
98.3243 1.927
98.3546 2.031
98.3849 1.823
98.4151 1.771
98.4454 2.292
98.4757 1.927
98.5060 2.135
98.5362 1.823
98.5665 1.615
98.5968 2.135
98.6271 2.865
98.6574 2.083
98.6876 2.292
98.7179 1.875
98.7482 1.927
98.7785 2.292
98.8088 1.719
98.8390 1.875
98.8693 1.667
98.8996 1.250
98.9299 1.615
98.9601 1.927
98.9904 1.094
99.0207 1.302
99.0510 1.667
99.0813 1.719
99.1115 1.406
99.1418 1.302
99.1721 1.510
99.2024 1.302
99.2327 1.302
99.2629 1.510
99.2932 1.406
99.3235 1.875
99.3538 1.562
99.3841 1.354
99.4143 1.458
99.4446 1.250
99.4749 0.990
99.5052 1.094
99.5354 1.146
99.5657 1.615
99.5960 1.042
99.6263 1.354
99.6566 1.458
99.6868 1.042
99.7171 1.354
99.7474 1.302
99.7777 1.250
99.8080 1.302
99.8382 0.833
99.8685 1.250
99.8988 1.354
99.9291 1.406
99.9593 1.250
99.9896 1.250
100.0199 1.354
100.0502 0.990
100.0805 1.302
100.1107 1.198
100.1410 1.198
100.1713 1.719
100.2016 1.250
100.2319 1.302
100.2621 1.042
100.2924 1.510
100.3227 1.198
100.3530 1.302
100.3832 1.094
100.4135 1.198
100.4438 1.198
100.4741 1.562
100.5044 1.042
100.5346 1.562
100.5649 1.510
100.5952 1.198
100.6255 0.781
100.6558 0.937
100.6860 1.302
100.7163 0.937
100.7466 1.302
100.7769 1.042
100.8071 1.510
100.8374 1.771
100.8677 1.250
100.8980 0.937
100.9283 0.781
100.9585 1.615
100.9888 1.302
101.0191 1.302
101.0494 1.354
101.0797 1.094
101.1099 0.990
101.1402 1.354
101.1705 1.146
101.2008 1.302
101.2310 0.729
101.2613 0.833
101.2916 1.562
101.3219 1.302
101.3522 1.354
101.3824 1.615
101.4127 1.562
101.4430 1.042
101.4733 1.667
101.5036 1.406
101.5338 1.354
101.5641 2.031
101.5944 1.510
101.6247 1.510
101.6549 1.094
101.6852 1.927
101.7155 2.135
101.7458 1.354
101.7761 1.042
101.8063 1.198
101.8366 1.458
101.8669 1.771
101.8972 1.146
101.9275 1.406
101.9577 1.354
101.9880 1.406
102.0183 1.406
102.0486 1.667
102.0788 1.510
102.1091 1.458
102.1394 0.937
102.1697 1.146
102.2000 1.562
102.2302 1.354
102.2605 1.406
102.2908 1.406
102.3211 0.833
102.3514 1.146
102.3816 1.875
102.4119 1.719
102.4422 1.979
102.4725 1.875
102.5028 1.771
102.5330 1.615
102.5633 1.667
102.5936 2.031
102.6239 1.927
102.6541 1.667
102.6844 1.719
102.7147 1.510
102.7450 1.979
102.7753 1.927
102.8055 1.458
102.8358 1.875
102.8661 1.771
102.8964 1.979
102.9267 1.667
102.9569 2.135
102.9872 2.448
103.0175 1.927
103.0478 1.823
103.0780 2.083
103.1083 1.875
103.1386 1.875
103.1689 1.667
103.1992 2.448
103.2294 1.979
103.2597 1.927
103.2900 1.458
103.3203 1.354
103.3506 1.927
103.3808 1.615
103.4111 1.979
103.4414 2.344
103.4717 1.615
103.5019 1.875
103.5322 1.875
103.5625 1.667
103.5928 1.771
103.6231 1.719
103.6533 2.031
103.6836 2.240
103.7139 2.240
103.7442 2.187
103.7745 2.240
103.8047 2.083
103.8350 2.604
103.8653 2.604
103.8956 2.344
103.9258 2.500
103.9561 2.396
103.9864 2.448
104.0167 2.865
104.0470 2.865
104.0772 2.500
104.1075 3.073
104.1378 3.073
104.1681 2.865
104.1984 2.240
104.2286 1.458
104.2589 2.917
104.2892 2.396
104.3195 2.292
104.3497 1.771
104.3800 2.396
104.4103 1.458
104.4406 2.552
104.4709 2.500
104.5011 2.344
104.5314 1.615
104.5617 1.719
104.5920 2.344
104.6223 2.292
104.6525 1.615
104.6828 2.083
104.7131 1.302
104.7434 1.198
104.7736 1.510
104.8039 1.302
104.8342 1.406
104.8645 1.875
104.8948 1.406
104.9250 1.562
104.9553 1.198
104.9856 1.198
105.0159 1.406
105.0462 1.302
105.0764 1.198
105.1067 1.094
105.1370 1.510
105.1673 1.250
105.1975 0.990
105.2278 1.615
105.2581 1.146
105.2884 1.198
105.3187 1.042
105.3489 1.354
105.3792 1.771
105.4095 1.406
105.4398 1.406
105.4701 1.042
105.5003 1.719
105.5306 1.406
105.5609 0.885
105.5912 1.406
105.6215 0.990
105.6517 1.302
105.6820 1.146
105.7123 1.875
105.7426 1.094
105.7728 0.833
105.8031 1.146
105.8334 1.302
105.8637 1.354
105.8940 1.458
105.9242 1.302
105.9545 1.615
105.9848 1.458
106.0151 0.937
106.0454 0.781
106.0756 1.458
106.1059 1.198
106.1362 1.094
106.1665 1.250
106.1967 1.198
106.2270 1.458
106.2573 1.771
106.2876 1.198
106.3179 1.458
106.3481 1.458
106.3784 1.094
106.4087 1.458
106.4390 1.146
106.4693 1.146
106.4995 1.094
106.5298 1.510
106.5601 0.885
106.5904 1.250
106.6206 1.458
106.6509 1.510
106.6812 1.719
106.7115 1.510
106.7418 1.667
106.7720 1.198
106.8023 1.406
106.8326 1.302
106.8629 0.833
106.8932 0.990
106.9234 1.354
106.9537 1.406
106.9840 1.198
107.0143 1.458
107.0445 1.458
107.0748 1.510
107.1051 1.875
107.1354 1.146
107.1657 0.781
107.1959 0.937
107.2262 1.615
107.2565 1.406
107.2868 1.250
107.3171 1.406
107.3473 0.781
107.3776 1.146
107.4079 1.823
107.4382 1.562
107.4684 0.990
107.4987 1.250
107.5290 0.885
107.5593 1.250
107.5896 1.615
107.6198 1.354
107.6501 1.510
107.6804 1.510
107.7107 0.937
107.7410 1.302
107.7712 1.146
107.8015 1.406
107.8318 1.198
107.8621 0.937
107.8923 0.885
107.9226 1.406
107.9529 1.771
107.9832 0.677
108.0135 1.302
108.0437 1.510
108.0740 1.406
108.1043 1.146
108.1346 1.510
108.1649 0.937
108.1951 1.510
108.2254 0.937
108.2557 1.198
108.2860 1.510
108.3163 1.510
108.3465 1.354
108.3768 1.094
108.4071 1.198
108.4374 1.510
108.4676 1.510
108.4979 1.302
108.5282 1.458
108.5585 1.354
108.5888 1.406
108.6190 1.510
108.6493 1.198
108.6796 1.510
108.7099 1.354
108.7402 1.042
108.7704 0.990
108.8007 1.615
108.8310 1.719
108.8613 1.406
108.8915 1.198
108.9218 1.354
108.9521 1.250
108.9824 1.250
109.0127 1.250
109.0429 1.042
109.0732 0.677
109.1035 1.562
109.1338 1.510
109.1641 1.510
109.1943 1.406
109.2246 1.198
109.2549 1.146
109.2852 1.302
109.3154 1.771
109.3457 1.823
109.3760 1.458
109.4063 0.833
109.4366 1.562
109.4668 0.677
109.4971 1.615
109.5274 0.990
109.5577 1.250
109.5880 1.146
109.6182 1.458
109.6485 1.562
109.6788 1.250
109.7091 1.510
109.7393 1.094
109.7696 1.615
109.7999 1.719
109.8302 0.990
109.8605 1.354
109.8907 1.458
109.9210 1.615
109.9513 1.615
109.9816 0.937
110.0119 1.615
110.0421 1.510
110.0724 1.458
110.1027 2.083
110.1330 2.031
110.1632 1.875
110.1935 1.719
110.2238 1.562
110.2541 1.510
110.2844 2.135
110.3146 1.875
110.3449 2.135
110.3752 1.823
110.4055 2.292
110.4358 1.927
110.4660 1.667
110.4963 1.719
110.5266 2.135
110.5569 2.135
110.5871 1.979
110.6174 2.240
110.6477 1.719
110.6780 2.187
110.7083 1.198
110.7385 1.615
110.7688 1.510
110.7991 1.354
110.8294 1.198
110.8597 1.562
110.8899 1.250
110.9202 1.771
110.9505 1.250
110.9808 1.823
111.0110 1.875
111.0413 1.615
111.0716 1.354
111.1019 0.990
111.1322 1.510
111.1624 1.458
111.1927 1.458
111.2230 1.823
111.2533 1.406
111.2836 1.667
111.3138 1.250
111.3441 0.937
111.3744 1.094
111.4047 1.146
111.4350 1.458
111.4652 1.667
111.4955 1.198
111.5258 1.198
111.5561 1.094
111.5863 0.833
111.6166 1.198
111.6469 1.302
111.6772 1.094
111.7075 1.406
111.7377 1.094
111.7680 1.094
111.7983 0.781
111.8286 0.885
111.8589 1.198
111.8891 0.729
111.9194 1.094
111.9497 0.990
111.9800 0.990
112.0102 0.885
112.0405 1.146
112.0708 1.458
112.1011 0.990
112.1314 1.406
112.1616 1.198
112.1919 1.615
112.2222 0.937
112.2525 1.198
112.2828 0.990
112.3130 1.302
112.3433 1.354
112.3736 1.250
112.4039 0.990
112.4341 1.250
112.4644 1.510
112.4947 1.354
112.5250 1.042
112.5553 1.302
112.5855 0.937
112.6158 0.729
112.6461 1.094
112.6764 1.042
112.7067 1.042
112.7369 1.302
112.7672 1.198
112.7975 1.250
112.8278 1.250
112.8580 1.458
112.8883 1.250
112.9186 0.937
112.9489 1.250
112.9792 1.146
113.0094 0.781
113.0397 0.990
113.0700 1.406
113.1003 1.146
113.1306 1.302
113.1608 1.094
113.1911 0.781
113.2214 1.042
113.2517 0.990
113.2819 0.833
113.3122 1.458
113.3425 0.833
113.3728 1.250
113.4031 1.042
113.4333 1.562
113.4636 0.573
113.4939 1.198
113.5242 1.146
113.5545 1.094
113.5847 1.250
113.6150 1.250
113.6453 1.042
113.6756 1.562
113.7058 1.302
113.7361 0.990
113.7664 1.458
113.7967 1.406
113.8270 1.354
113.8572 1.406
113.8875 1.094
113.9178 0.885
113.9481 1.198
113.9784 1.042
114.0086 1.250
114.0389 1.458
114.0692 0.990
114.0995 0.833
114.1298 0.990
114.1600 1.146
114.1903 1.302
114.2206 1.406
114.2509 1.146
114.2811 1.354
114.3114 1.562
114.3417 1.354
114.3720 1.406
114.4023 0.729
114.4325 0.990
114.4628 1.406
114.4931 1.146
114.5234 1.615
114.5537 1.094
114.5839 0.885
114.6142 1.198
114.6445 1.094
114.6748 1.406
114.7050 1.146
114.7353 1.875
114.7656 1.458
114.7959 1.458
114.8262 1.667
114.8564 1.771
114.8867 1.458
114.9170 1.042
114.9473 1.458
114.9776 1.042
115.0078 1.510
115.0381 1.458
115.0684 1.094
115.0987 1.823
115.1289 1.302
115.1592 1.510
115.1895 1.510
115.2198 1.198
115.2501 1.875
115.2803 1.771
115.3106 1.354
115.3409 1.406
115.3712 1.719
115.4015 1.354
115.4317 1.979
115.4620 1.615
115.4923 1.823
115.5226 1.667
115.5528 1.510
115.5831 1.719
115.6134 1.406
115.6437 2.083
115.6740 1.979
115.7042 1.979
115.7345 1.771
115.7648 2.708
115.7951 2.448
115.8254 2.240
115.8556 2.656
115.8859 2.656
115.9162 2.448
115.9465 1.823
115.9767 2.344
116.0070 3.021
116.0373 2.969
116.0676 1.823
116.0979 2.812
116.1281 1.979
116.1584 2.448
116.1887 3.021
116.2190 2.865
116.2493 2.344
116.2795 2.083
116.3098 2.969
116.3401 2.135
116.3704 2.604
116.4006 3.177
116.4309 2.448
116.4612 2.083
116.4915 2.969
116.5218 1.979
116.5520 2.240
116.5823 1.719
116.6126 2.604
116.6429 1.927
116.6732 2.448
116.7034 2.344
116.7337 2.135
116.7640 2.031
116.7943 2.187
116.8245 2.396
116.8548 1.771
116.8851 1.875
116.9154 1.927
116.9457 0.937
116.9759 1.354
117.0062 2.083
117.0365 1.302
117.0668 1.615
117.0971 1.719
117.1273 1.979
117.1576 1.875
117.1879 2.344
117.2182 1.615
117.2485 1.823
117.2787 1.562
117.3090 1.875
117.3393 1.667
117.3696 1.719
117.3998 1.458
117.4301 1.719
117.4604 1.406
117.4907 1.823
117.5210 1.146
117.5512 2.031
117.5815 1.198
117.6118 1.719
117.6421 0.781
117.6724 1.458
117.7026 1.354
117.7329 1.458
117.7632 1.354
117.7935 1.562
117.8237 1.042
117.8540 1.302
117.8843 1.406
117.9146 0.833
117.9449 1.042
117.9751 1.667
118.0054 1.198
118.0357 1.719
118.0660 1.250
118.0963 1.302
118.1265 1.406
118.1568 0.990
118.1871 1.146
118.2174 1.667
118.2476 1.250
118.2779 1.042
118.3082 1.302
118.3385 0.781
118.3688 1.042
118.3990 1.354
118.4293 1.250
118.4596 1.198
118.4899 1.823
118.5202 1.146
118.5504 1.302
118.5807 1.562
118.6110 1.667
118.6413 1.094
118.6715 1.562
118.7018 0.937
118.7321 1.094
118.7624 0.833
118.7927 1.562
118.8229 1.198
118.8532 1.510
118.8835 1.302
118.9138 0.937
118.9441 0.937
118.9743 1.250
119.0046 1.875
119.0349 0.990
119.0652 1.250
119.0954 1.094
119.1257 0.937
119.1560 1.250
119.1863 1.302
119.2166 1.302
119.2468 1.198
119.2771 0.573
119.3074 1.094
119.3377 1.042
119.3680 0.885
119.3982 1.042
119.4285 1.510
119.4588 1.354
119.4891 1.302
119.5193 1.146
119.5496 0.990
119.5799 1.146
119.6102 1.406
119.6405 1.406
119.6707 1.302
119.7010 1.354
119.7313 0.937
119.7616 1.198
119.7919 1.354
119.8221 1.198
119.8524 1.354
119.8827 1.146
119.9130 1.354
119.9433 1.042
119.9735 1.406
120.0038 0.990
