'Id: "" Comment: "" Operator: "Lab Manager" Anode: "Cu" Scantype: "Locked Coupled" TimePerStep: "19.2" X: "9999" Y: "9999" Z: "9999" 
10.0015 3.125
10.0318 4.010
10.0620 3.177
10.0923 3.646
10.1226 4.687
10.1529 4.687
10.1832 3.854
10.2134 3.854
10.2437 3.646
10.2740 4.115
10.3043 3.854
10.3346 3.750
10.3648 3.177
10.3951 4.115
10.4254 3.802
10.4557 4.115
10.4859 2.917
10.5162 3.854
10.5465 4.271
10.5768 3.750
10.6071 5.104
10.6373 3.646
10.6676 3.958
10.6979 3.802
10.7282 3.333
10.7585 3.490
10.7887 3.646
10.8190 3.542
10.8493 3.802
10.8796 4.479
10.9098 4.167
10.9401 4.219
10.9704 4.010
11.0007 4.427
11.0310 4.635
11.0612 5.469
11.0915 4.219
11.1218 3.854
11.1521 4.062
11.1824 5.312
11.2126 4.583
11.2429 3.542
11.2732 4.583
11.3035 3.490
11.3337 3.542
11.3640 4.375
11.3943 3.437
11.4246 3.750
11.4549 4.531
11.4851 3.021
11.5154 3.594
11.5457 4.323
11.5760 4.010
11.6063 3.854
11.6365 4.167
11.6668 3.073
11.6971 4.115
11.7274 3.177
11.7577 4.427
11.7879 3.698
11.8182 3.646
11.8485 4.219
11.8788 3.750
11.9090 4.062
11.9393 4.062
11.9696 4.010
11.9999 4.115
12.0302 3.333
12.0604 2.604
12.0907 3.542
12.1210 3.802
12.1513 4.479
12.1816 3.125
12.2118 3.021
12.2421 4.010
12.2724 3.125
12.3027 2.917
12.3329 3.333
12.3632 3.333
12.3935 3.281
12.4238 3.646
12.4541 3.854
12.4843 2.604
12.5146 3.542
12.5449 3.854
12.5752 2.917
12.6055 3.177
12.6357 4.635
12.6660 2.865
12.6963 3.542
12.7266 2.135
12.7568 3.021
12.7871 2.812
12.8174 3.177
12.8477 2.760
12.8780 3.125
12.9082 3.594
12.9385 2.292
12.9688 3.437
12.9991 3.073
13.0294 3.437
13.0596 3.594
13.0899 3.125
13.1202 3.437
13.1505 3.802
13.1807 3.750
13.2110 3.229
13.2413 3.437
13.2716 3.229
13.3019 2.917
13.3321 3.125
13.3624 2.812
13.3927 2.656
13.4230 3.229
13.4533 4.062
13.4835 3.750
13.5138 3.750
13.5441 3.333
13.5744 2.604
13.6046 3.385
13.6349 3.750
13.6652 3.229
13.6955 3.125
13.7258 3.333
13.7560 3.698
13.7863 3.750
13.8166 3.594
13.8469 3.177
13.8772 3.646
13.9074 3.646
13.9377 3.542
13.9680 3.490
13.9983 4.687
14.0285 3.229
14.0588 3.542
14.0891 3.437
14.1194 3.385
14.1497 3.073
14.1799 3.542
14.2102 3.073
14.2405 2.708
14.2708 2.917
14.3011 3.333
14.3313 2.760
14.3616 3.125
14.3919 2.552
14.4222 3.125
14.4524 4.062
14.4827 3.333
14.5130 3.437
14.5433 3.125
14.5736 3.177
14.6038 2.969
14.6341 2.969
14.6644 3.437
14.6947 2.708
14.7250 2.604
14.7552 2.760
14.7855 3.698
14.8158 3.021
14.8461 3.750
14.8764 3.698
14.9066 3.281
14.9369 3.125
14.9672 2.969
14.9975 3.542
15.0277 3.125
15.0580 2.656
15.0883 2.552
15.1186 3.437
15.1489 3.229
15.1791 3.177
15.2094 2.917
15.2397 3.333
15.2700 2.708
15.3003 3.854
15.3305 2.865
15.3608 3.698
15.3911 3.073
15.4214 2.969
15.4516 2.604
15.4819 2.760
15.5122 3.281
15.5425 3.021
15.5728 2.760
15.6030 3.594
15.6333 3.229
15.6636 3.281
15.6939 2.292
15.7242 3.021
15.7544 3.125
15.7847 3.177
15.8150 3.021
15.8453 3.854
15.8755 3.490
15.9058 2.969
15.9361 3.073
15.9664 3.646
15.9967 3.646
16.0269 3.281
16.0572 3.125
16.0875 3.333
16.1178 3.854
16.1481 2.656
16.1783 2.865
16.2086 2.187
16.2389 3.073
16.2692 3.177
16.2994 3.177
16.3297 3.125
16.3600 3.229
16.3903 3.229
16.4206 3.229
16.4508 3.802
16.4811 3.437
16.5114 3.490
16.5417 2.760
16.5720 2.969
16.6022 2.969
16.6325 3.646
16.6628 3.646
16.6931 2.604
16.7233 2.760
16.7536 3.698
16.7839 3.333
16.8142 3.125
16.8445 3.437
16.8747 3.594
16.9050 3.281
16.9353 3.542
16.9656 3.594
16.9959 4.375
17.0261 3.437
17.0564 3.542
17.0867 2.604
17.1170 3.125
17.1472 3.281
17.1775 3.437
17.2078 3.854
17.2381 3.437
17.2684 2.917
17.2986 2.552
17.3289 2.760
17.3592 3.021
17.3895 2.552
17.4198 3.854
17.4500 3.385
17.4803 3.073
17.5106 2.917
17.5409 2.969
17.5712 3.750
17.6014 3.021
17.6317 3.333
17.6620 2.812
17.6923 2.812
17.7225 3.490
17.7528 2.708
17.7831 2.812
17.8134 2.448
17.8437 2.969
17.8739 2.812
17.9042 2.344
17.9345 2.708
17.9648 3.073
17.9951 2.552
18.0253 2.396
18.0556 4.271
18.0859 2.344
18.1162 3.490
18.1464 3.177
18.1767 2.500
18.2070 3.802
18.2373 2.552
18.2676 3.073
18.2978 2.552
18.3281 2.865
18.3584 2.240
18.3887 2.448
18.4190 2.500
18.4492 3.177
18.4795 2.552
18.5098 2.865
18.5401 3.385
18.5703 2.812
18.6006 2.917
18.6309 2.448
18.6612 2.812
18.6915 2.917
18.7217 3.594
18.7520 3.073
18.7823 2.500
18.8126 2.917
18.8429 2.656
18.8731 2.917
18.9034 3.073
18.9337 2.708
18.9640 3.125
18.9942 3.542
19.0245 2.760
19.0548 3.125
19.0851 2.969
19.1154 2.656
19.1456 3.177
19.1759 2.760
19.2062 2.708
19.2365 2.917
19.2668 3.281
19.2970 2.969
19.3273 2.552
19.3576 3.385
19.3879 2.240
19.4181 3.281
19.4484 2.604
19.4787 3.021
19.5090 3.437
19.5393 2.344
19.5695 2.708
19.5998 2.812
19.6301 3.177
19.6604 3.177
19.6907 2.292
19.7209 2.760
19.7512 3.385
19.7815 2.500
19.8118 2.656
19.8420 2.708
19.8723 2.656
19.9026 2.708
19.9329 2.917
19.9632 2.760
19.9934 2.760
20.0237 3.802
20.0540 2.969
20.0843 2.656
20.1146 2.656
20.1448 3.385
20.1751 2.604
20.2054 2.760
20.2357 3.021
20.2659 3.073
20.2962 2.708
20.3265 2.708
20.3568 3.594
20.3871 2.500
20.4173 2.500
20.4476 2.552
20.4779 3.125
20.5082 2.604
20.5385 2.448
20.5687 2.969
20.5990 3.594
20.6293 2.396
20.6596 2.292
20.6899 3.437
20.7201 3.490
20.7504 3.333
20.7807 3.646
20.8110 2.656
20.8412 2.969
20.8715 3.281
20.9018 2.812
20.9321 3.021
20.9624 3.594
20.9926 2.500
21.0229 3.437
21.0532 1.927
21.0835 2.135
21.1138 2.865
21.1440 3.021
21.1743 2.917
21.2046 3.177
21.2349 2.812
21.2651 2.656
21.2954 3.073
21.3257 2.656
21.3560 3.021
21.3863 2.969
21.4165 3.229
21.4468 2.448
21.4771 3.021
21.5074 3.594
21.5377 3.750
21.5679 2.917
21.5982 2.396
21.6285 3.281
21.6588 2.656
21.6890 3.073
21.7193 2.656
21.7496 3.021
21.7799 2.448
21.8102 2.708
21.8404 2.865
21.8707 2.344
21.9010 2.552
21.9313 3.437
21.9616 2.969
21.9918 2.240
22.0221 2.917
22.0524 3.021
22.0827 2.396
22.1129 2.812
22.1432 2.656
22.1735 3.333
22.2038 2.448
22.2341 2.917
22.2643 2.552
22.2946 3.229
22.3249 2.865
22.3552 2.396
22.3855 2.656
22.4157 3.646
22.4460 2.708
22.4763 2.448
22.5066 2.969
22.5368 2.240
22.5671 2.292
22.5974 3.490
22.6277 3.229
22.6580 3.125
22.6882 2.396
22.7185 2.760
22.7488 2.292
22.7791 3.385
22.8094 2.292
22.8396 2.812
22.8699 3.021
22.9002 2.812
22.9305 2.552
22.9607 2.865
22.9910 2.865
23.0213 3.177
23.0516 3.385
23.0819 2.656
23.1121 3.542
23.1424 2.396
23.1727 3.177
23.2030 3.281
23.2333 2.604
23.2635 2.865
23.2938 2.396
23.3241 2.656
23.3544 3.281
23.3846 3.281
23.4149 3.229
23.4452 2.656
23.4755 2.344
23.5058 2.552
23.5360 3.542
23.5663 2.708
23.5966 2.865
23.6269 2.448
23.6572 3.333
23.6874 2.448
23.7177 2.083
23.7480 2.969
23.7783 3.021
23.8086 2.656
23.8388 3.333
23.8691 2.917
23.8994 2.083
23.9297 3.073
23.9599 3.125
23.9902 2.604
24.0205 3.646
24.0508 2.917
24.0811 2.604
24.1113 2.240
24.1416 3.437
24.1719 2.448
24.2022 2.760
24.2325 2.448
24.2627 3.021
24.2930 2.344
24.3233 2.396
24.3536 2.865
24.3838 3.073
24.4141 2.656
24.4444 2.760
24.4747 2.240
24.5050 2.917
24.5352 2.500
24.5655 2.187
24.5958 3.073
24.6261 3.229
24.6564 3.437
24.6866 3.437
24.7169 2.240
24.7472 2.708
24.7775 2.969
24.8077 2.865
24.8380 3.542
24.8683 3.021
24.8986 2.344
24.9289 3.021
24.9591 2.448
24.9894 3.021
25.0197 3.437
25.0500 3.333
25.0803 3.385
25.1105 3.073
25.1408 3.177
25.1711 2.917
25.2014 3.073
25.2316 3.021
25.2619 2.760
25.2922 3.125
25.3225 2.812
25.3528 3.125
25.3830 2.552
25.4133 2.344
25.4436 3.177
25.4739 3.177
25.5042 2.812
25.5344 3.437
25.5647 3.646
25.5950 2.708
25.6253 3.906
25.6555 3.437
25.6858 2.552
25.7161 2.760
25.7464 3.333
25.7767 2.917
25.8069 2.604
25.8372 2.448
25.8675 2.812
25.8978 2.760
25.9281 2.917
25.9583 2.812
25.9886 3.437
26.0189 2.448
26.0492 3.333
26.0794 2.865
26.1097 3.490
26.1400 2.604
26.1703 3.021
26.2006 4.271
26.2308 2.917
26.2611 3.021
26.2914 2.865
26.3217 3.229
26.3520 3.958
26.3822 2.604
26.4125 2.500
26.4428 2.708
26.4731 2.812
26.5034 3.125
26.5336 3.385
26.5639 2.292
26.5942 2.812
26.6245 2.656
26.6547 3.437
26.6850 2.500
26.7153 2.760
26.7456 2.865
26.7759 2.552
26.8061 3.385
26.8364 2.969
26.8667 3.229
26.8970 3.490
26.9273 3.229
26.9575 2.604
26.9878 3.854
27.0181 4.115
27.0484 2.969
27.0786 3.229
27.1089 3.333
27.1392 3.750
27.1695 3.490
27.1998 3.125
27.2300 2.760
27.2603 3.021
27.2906 3.802
27.3209 2.708
27.3512 3.229
27.3814 3.958
27.4117 3.854
27.4420 3.125
27.4723 3.125
27.5025 2.969
27.5328 3.177
27.5631 4.323
27.5934 2.552
27.6237 2.656
27.6539 3.854
27.6842 3.177
27.7145 4.115
27.7448 3.854
27.7751 2.865
27.8053 3.229
27.8356 3.385
27.8659 3.437
27.8962 3.542
27.9264 3.958
27.9567 3.646
27.9870 3.073
28.0173 2.604
28.0476 3.333
28.0778 2.865
28.1081 3.437
28.1384 3.229
28.1687 3.490
28.1990 4.010
28.2292 3.125
28.2595 3.698
28.2898 3.281
28.3201 2.917
28.3503 2.969
28.3806 3.594
28.4109 3.437
28.4412 3.958
28.4715 2.969
28.5017 3.542
28.5320 3.594
28.5623 3.854
28.5926 3.490
28.6229 4.687
28.6531 3.542
28.6834 3.021
28.7137 3.594
28.7440 4.219
28.7742 2.917
28.8045 3.125
28.8348 3.594
28.8651 3.073
28.8954 3.490
28.9256 3.125
28.9559 4.010
28.9862 3.594
29.0165 3.750
29.0468 3.385
29.0770 3.646
29.1073 4.010
29.1376 4.010
29.1679 4.271
29.1981 4.219
29.2284 4.635
29.2587 3.125
29.2890 4.115
29.3193 3.490
29.3495 3.177
29.3798 4.219
29.4101 4.219
29.4404 3.958
29.4707 4.167
29.5009 3.958
29.5312 4.062
29.5615 4.271
29.5918 4.479
29.6221 3.281
29.6523 4.219
29.6826 3.229
29.7129 4.479
29.7432 4.792
29.7734 3.646
29.8037 5.625
29.8340 4.687
29.8643 4.375
29.8946 4.115
29.9248 4.844
29.9551 4.583
29.9854 3.906
30.0157 4.271
30.0460 4.427
30.0762 4.635
30.1065 5.312
30.1368 4.323
30.1671 5.469
30.1973 5.208
30.2276 4.687
30.2579 4.271
30.2882 4.635
30.3185 5.156
30.3487 5.781
30.3790 5.260
30.4093 7.500
30.4396 5.990
30.4699 5.521
30.5001 5.260
30.5304 4.687
30.5607 6.146
30.5910 5.990
30.6212 5.625
30.6515 5.990
30.6818 6.719
30.7121 7.292
30.7424 7.240
30.7726 7.865
30.8029 7.292
30.8332 7.917
30.8635 8.281
30.8938 8.281
30.9240 9.740
30.9543 9.792
30.9846 10.365
31.0149 9.792
31.0451 11.510
31.0754 10.885
31.1057 12.865
31.1360 12.292
31.1663 13.125
31.1965 14.792
31.2268 15.677
31.2571 18.333
31.2874 19.010
31.3177 19.896
31.3479 24.583
31.3782 22.240
31.4085 28.333
31.4388 31.198
31.4690 34.583
31.4993 38.802
31.5296 45.000
31.5599 46.302
31.5902 52.917
31.6204 51.042
31.6507 53.229
31.6810 51.615
31.7113 50.260
31.7416 46.354
31.7718 41.354
31.8021 38.490
31.8324 34.010
31.8627 32.865
31.8929 26.771
31.9232 23.542
31.9535 21.979
31.9838 20.833
32.0141 16.250
32.0443 16.302
32.0746 13.958
32.1049 14.115
32.1352 12.708
32.1655 11.146
32.1957 10.625
32.2260 10.156
32.2563 8.906
32.2866 8.125
32.3169 9.115
32.3471 10.000
32.3774 8.594
32.4077 7.812
32.4380 8.125
32.4682 7.552
32.4985 6.875
32.5288 7.917
32.5591 7.187
32.5894 6.406
32.6196 6.458
32.6499 7.604
32.6802 6.927
32.7105 6.823
32.7408 7.396
32.7710 6.979
32.8013 6.979
32.8316 7.240
32.8619 7.292
32.8921 5.729
32.9224 6.562
32.9527 7.240
32.9830 6.146
33.0133 6.094
33.0435 6.927
33.0738 4.844
33.1041 6.406
33.1344 6.094
33.1647 6.302
33.1949 6.354
33.2252 6.042
33.2555 6.146
33.2858 7.135
33.3160 5.937
33.3463 6.510
33.3766 6.198
33.4069 6.250
33.4372 7.760
33.4674 6.458
33.4977 6.198
33.5280 7.292
33.5583 7.500
33.5886 7.187
33.6188 8.750
33.6491 8.073
33.6794 8.906
33.7097 6.562
33.7399 8.698
33.7702 7.865
33.8005 9.271
33.8308 9.948
33.8611 11.198
33.8913 10.833
33.9216 12.031
33.9519 12.031
33.9822 13.594
34.0125 15.417
34.0427 16.406
34.0730 20.417
34.1033 24.271
34.1336 25.990
34.1638 32.344
34.1941 37.604
34.2244 44.375
34.2547 55.937
34.2850 60.990
34.3152 59.844
34.3455 54.531
34.3758 53.437
34.4061 40.937
34.4364 35.573
34.4666 29.062
34.4969 24.583
34.5272 21.250
34.5575 18.854
34.5877 17.604
34.6180 15.156
34.6483 16.094
34.6786 13.229
34.7089 10.937
34.7391 11.771
34.7694 10.104
34.7997 10.573
34.8300 10.365
34.8603 10.260
34.8905 9.531
34.9208 8.750
34.9511 8.646
34.9814 9.948
35.0116 9.635
35.0419 8.906
35.0722 9.792
35.1025 9.844
35.1328 9.271
35.1630 9.792
35.1933 10.208
35.2236 10.156
35.2539 9.062
35.2842 10.833
35.3144 10.208
35.3447 11.198
35.3750 11.615
35.4053 11.198
35.4356 11.615
35.4658 12.656
35.4961 12.187
35.5264 12.969
35.5567 14.687
35.5869 14.531
35.6172 16.302
35.6475 19.844
35.6778 20.729
35.7081 21.927
35.7383 24.948
35.7686 25.417
35.7989 27.708
35.8292 31.875
35.8595 33.021
35.8897 38.125
35.9200 40.156
35.9503 47.917
35.9806 52.760
36.0108 59.271
36.0411 64.896
36.0714 65.469
36.1017 73.333
36.1320 76.823
36.1622 73.333
36.1925 73.906
36.2228 65.885
36.2531 60.104
36.2834 56.771
36.3136 52.448
36.3439 43.802
36.3742 41.875
36.4045 36.875
36.4347 30.729
36.4650 28.333
36.4953 24.115
36.5256 22.969
36.5559 20.104
36.5861 17.604
36.6164 15.469
36.6467 14.375
36.6770 14.062
36.7073 12.396
36.7375 12.396
36.7678 11.146
36.7981 10.781
36.8284 10.104
36.8586 9.427
36.8889 9.896
36.9192 8.958
36.9495 8.073
36.9798 8.177
37.0100 7.083
37.0403 7.240
37.0706 8.542
37.1009 7.656
37.1312 7.187
37.1614 7.344
37.1917 7.187
37.2220 5.260
37.2523 5.833
37.2825 6.562
37.3128 6.302
37.3431 4.635
37.3734 5.417
37.4037 5.312
37.4339 4.948
37.4642 5.573
37.4945 5.208
37.5248 4.844
37.5551 5.000
37.5853 5.000
37.6156 4.427
37.6459 5.260
37.6762 4.948
37.7064 5.104
37.7367 4.792
37.7670 5.000
37.7973 4.583
37.8276 4.323
37.8578 4.427
37.8881 4.427
37.9184 4.375
37.9487 3.802
37.9790 4.167
38.0092 3.802
38.0395 5.885
38.0698 2.865
38.1001 4.010
38.1304 4.531
38.1606 3.125
38.1909 4.323
38.2212 4.375
38.2515 3.958
38.2817 4.010
38.3120 3.229
38.3423 3.854
38.3726 3.854
38.4029 3.281
38.4331 3.646
38.4634 3.906
38.4937 3.125
38.5240 3.490
38.5543 3.698
38.5845 3.490
38.6148 3.750
38.6451 2.656
38.6754 2.917
38.7056 3.958
38.7359 3.594
38.7662 2.240
38.7965 2.969
38.8268 3.177
38.8570 2.760
38.8873 2.604
38.9176 3.229
38.9479 2.552
38.9782 3.073
39.0084 2.135
39.0387 3.177
39.0690 2.969
39.0993 2.656
39.1295 3.021
39.1598 3.229
39.1901 2.917
39.2204 3.854
39.2507 3.646
39.2809 2.917
39.3112 2.917
39.3415 2.812
39.3718 2.865
39.4021 2.656
39.4323 2.604
39.4626 2.708
39.4929 2.812
39.5232 2.240
39.5534 2.604
39.5837 2.344
39.6140 3.229
39.6443 2.812
39.6746 2.187
39.7048 3.281
39.7351 2.187
39.7654 2.344
39.7957 2.396
39.8260 2.812
39.8562 2.708
39.8865 2.969
39.9168 2.292
39.9471 2.240
39.9773 2.917
40.0076 3.125
40.0379 2.656
40.0682 2.969
40.0985 2.135
40.1287 2.552
40.1590 2.656
40.1893 2.500
40.2196 2.344
40.2499 2.187
40.2801 1.406
40.3104 2.396
40.3407 2.969
40.3710 2.292
40.4012 2.500
40.4315 2.396
40.4618 2.552
40.4921 2.708
40.5224 2.344
40.5526 2.500
40.5829 2.187
40.6132 2.500
40.6435 2.292
40.6738 2.708
40.7040 2.708
40.7343 2.083
40.7646 3.177
40.7949 2.344
40.8251 2.240
40.8554 2.031
40.8857 3.333
40.9160 2.500
40.9463 1.615
40.9765 2.396
41.0068 1.823
41.0371 2.396
41.0674 2.396
41.0977 2.031
41.1279 2.604
41.1582 2.552
41.1885 2.396
41.2188 2.344
41.2491 2.344
41.2793 2.396
41.3096 2.240
41.3399 1.875
41.3702 2.292
41.4004 2.604
41.4307 1.927
41.4610 1.823
41.4913 1.927
41.5216 2.812
41.5518 2.240
41.5821 2.083
41.6124 2.187
41.6427 2.135
41.6730 2.448
41.7032 2.656
41.7335 1.771
41.7638 2.083
41.7941 3.385
41.8243 2.344
41.8546 2.552
41.8849 2.292
41.9152 1.771
41.9455 1.927
41.9757 2.187
42.0060 1.719
42.0363 1.719
42.0666 2.031
42.0969 2.292
42.1271 2.240
42.1574 2.187
42.1877 2.448
42.2180 2.292
42.2482 2.396
42.2785 2.656
42.3088 2.083
42.3391 1.927
42.3694 2.552
42.3996 1.927
42.4299 1.615
42.4602 2.604
42.4905 2.135
42.5208 2.604
42.5510 2.344
42.5813 1.927
42.6116 2.604
42.6419 1.615
42.6721 1.615
42.7024 2.760
42.7327 2.448
42.7630 2.187
42.7933 2.917
42.8235 2.344
42.8538 2.448
42.8841 2.135
42.9144 2.500
42.9447 2.448
42.9749 1.875
43.0052 1.979
43.0355 2.240
43.0658 2.135
43.0960 2.552
43.1263 2.240
43.1566 2.031
43.1869 2.344
43.2172 1.927
43.2474 1.562
43.2777 1.771
43.3080 2.135
43.3383 2.240
43.3686 1.667
43.3988 2.135
43.4291 2.552
43.4594 2.240
43.4897 2.240
43.5199 2.187
43.5502 1.979
43.5805 2.604
43.6108 2.240
43.6411 2.240
43.6713 2.500
43.7016 2.917
43.7319 1.823
43.7622 2.187
43.7925 2.187
43.8227 2.552
43.8530 2.187
43.8833 2.135
43.9136 2.448
43.9439 2.708
43.9741 1.979
44.0044 1.406
44.0347 2.865
44.0650 2.656
44.0952 2.396
44.1255 2.760
44.1558 2.396
44.1861 2.344
44.2164 1.771
44.2466 2.292
44.2769 2.083
44.3072 2.656
44.3375 2.656
44.3678 2.240
44.3980 2.135
44.4283 1.771
44.4586 2.292
44.4889 1.927
44.5191 3.177
44.5494 2.917
44.5797 3.177
44.6100 3.073
44.6403 2.552
44.6705 2.031
44.7008 2.292
44.7311 2.344
44.7614 2.760
44.7917 2.344
44.8219 2.396
44.8522 2.865
44.8825 2.240
44.9128 2.292
44.9430 2.604
44.9733 2.292
45.0036 1.771
45.0339 2.812
45.0642 2.396
45.0944 2.187
45.1247 2.240
45.1550 1.719
45.1853 2.500
45.2156 2.812
45.2458 2.969
45.2761 2.396
45.3064 2.760
45.3367 2.448
45.3669 2.708
45.3972 2.083
45.4275 2.292
45.4578 2.500
45.4881 2.187
45.5183 2.396
45.5486 2.396
45.5789 2.292
45.6092 3.750
45.6395 1.927
45.6697 2.500
45.7000 2.917
45.7303 2.656
45.7606 3.125
45.7908 2.656
45.8211 2.812
45.8514 2.656
45.8817 2.240
45.9120 2.552
45.9422 2.292
45.9725 2.396
46.0028 3.177
46.0331 3.125
46.0634 2.708
46.0936 2.865
46.1239 3.125
46.1542 2.604
46.1845 3.125
46.2147 2.760
46.2450 3.281
46.2753 3.646
46.3056 2.760
46.3359 3.125
46.3661 2.656
46.3964 3.385
46.4267 3.281
46.4570 3.542
46.4873 3.698
46.5175 2.969
46.5478 3.385
46.5781 3.646
46.6084 3.490
46.6386 4.167
46.6689 3.542
46.6992 3.802
46.7295 3.750
46.7598 4.531
46.7900 3.594
46.8203 4.427
46.8506 4.062
46.8809 4.583
46.9112 5.312
46.9414 5.573
46.9717 5.156
47.0020 5.781
47.0323 6.406
47.0626 7.448
47.0928 6.823
47.1231 7.865
47.1534 10.208
47.1837 9.427
47.2139 10.833
47.2442 11.510
47.2745 12.083
47.3048 14.115
47.3351 14.740
47.3653 15.573
47.3956 15.365
47.4259 15.885
47.4562 15.312
47.4865 16.615
47.5167 15.781
47.5470 12.604
47.5773 12.031
47.6076 12.292
47.6378 10.521
47.6681 10.260
47.6984 10.104
47.7287 7.760
47.7590 7.448
47.7892 8.073
47.8195 6.510
47.8498 5.833
47.8801 5.677
47.9104 4.844
47.9406 4.375
47.9709 5.000
48.0012 3.854
48.0315 4.219
48.0617 4.010
48.0920 3.802
48.1223 3.437
48.1526 3.802
48.1829 3.437
48.2131 3.854
48.2434 3.385
48.2737 3.542
48.3040 3.281
48.3343 3.385
48.3645 3.229
48.3948 3.021
48.4251 2.448
48.4554 3.125
48.4856 2.812
48.5159 2.917
48.5462 2.656
48.5765 2.708
48.6068 2.448
48.6370 2.187
48.6673 2.240
48.6976 2.187
48.7279 3.125
48.7582 2.448
48.7884 2.604
48.8187 2.865
48.8490 2.240
48.8793 2.760
48.9095 2.812
48.9398 1.927
48.9701 2.708
49.0004 2.604
49.0307 2.344
49.0609 2.344
49.0912 2.708
49.1215 2.187
49.1518 2.708
49.1821 2.292
49.2123 2.344
49.2426 2.240
49.2729 2.135
49.3032 2.187
49.3334 2.604
49.3637 2.396
49.3940 2.604
49.4243 2.135
49.4546 2.500
49.4848 2.604
49.5151 2.083
49.5454 2.344
49.5757 1.927
49.6060 2.031
49.6362 1.979
49.6665 2.708
49.6968 1.927
49.7271 1.979
49.7574 1.927
49.7876 2.135
49.8179 2.240
49.8482 1.979
49.8785 2.500
49.9087 2.240
49.9390 2.292
49.9693 2.187
49.9996 2.552
50.0299 1.562
50.0601 2.969
50.0904 1.458
50.1207 2.240
50.1510 2.656
50.1813 2.396
50.2115 2.083
50.2418 2.344
50.2721 2.083
50.3024 2.187
50.3326 2.500
50.3629 2.083
50.3932 2.656
50.4235 2.604
50.4538 2.500
50.4840 1.875
50.5143 2.917
50.5446 2.500
50.5749 2.083
50.6052 2.292
50.6354 2.708
50.6657 1.823
50.6960 1.771
50.7263 2.187
50.7565 2.344
50.7868 1.615
50.8171 2.604
50.8474 2.812
50.8777 2.135
50.9079 2.240
50.9382 1.250
50.9685 2.708
50.9988 2.760
51.0291 2.187
51.0593 1.771
51.0896 2.604
51.1199 2.240
51.1502 1.615
51.1804 1.823
51.2107 2.552
51.2410 1.615
51.2713 2.187
51.3016 2.604
51.3318 1.875
51.3621 2.396
51.3924 2.135
51.4227 1.823
51.4530 1.823
51.4832 2.865
51.5135 2.344
51.5438 2.187
51.5741 2.396
51.6043 1.979
51.6346 2.760
51.6649 1.979
51.6952 1.719
51.7255 2.500
51.7557 2.240
51.7860 2.448
51.8163 1.979
51.8466 1.979
51.8769 2.708
51.9071 2.396
51.9374 2.292
51.9677 1.875
51.9980 2.448
52.0282 1.875
52.0585 1.927
52.0888 2.344
52.1191 1.823
52.1494 2.187
52.1796 2.448
52.2099 2.135
52.2402 2.396
52.2705 1.823
52.3008 2.969
52.3310 1.771
52.3613 2.604
52.3916 1.875
52.4219 2.708
52.4521 2.708
52.4824 2.292
52.5127 1.979
52.5430 2.083
52.5733 2.396
52.6035 1.875
52.6338 2.031
52.6641 2.448
52.6944 1.823
52.7247 2.135
52.7549 2.604
52.7852 2.240
52.8155 2.031
52.8458 1.979
52.8761 1.979
52.9063 1.302
52.9366 2.344
52.9669 2.031
52.9972 2.135
53.0274 2.083
53.0577 1.927
53.0880 2.604
53.1183 1.927
53.1486 1.615
53.1788 2.187
53.2091 1.562
53.2394 2.083
53.2697 2.344
53.3000 2.500
53.3302 2.396
53.3605 2.552
53.3908 1.927
53.4211 1.875
53.4513 1.927
53.4816 2.500
53.5119 2.812
53.5422 2.656
53.5725 2.760
53.6027 1.823
53.6330 1.823
53.6633 1.823
53.6936 2.240
53.7239 2.448
53.7541 2.031
53.7844 2.552
53.8147 1.927
53.8450 2.500
53.8752 2.344
53.9055 2.187
53.9358 1.875
53.9661 2.396
53.9964 2.344
54.0266 1.719
54.0569 2.500
54.0872 2.552
54.1175 2.500
54.1478 2.083
54.1780 2.656
54.2083 2.812
54.2386 1.823
54.2689 2.865
54.2991 2.240
54.3294 1.771
54.3597 2.500
54.3900 1.823
54.4203 2.500
54.4505 2.812
54.4808 2.552
54.5111 2.604
54.5414 2.552
54.5717 2.135
54.6019 2.812
54.6322 2.604
54.6625 2.135
54.6928 2.552
54.7230 2.448
54.7533 2.552
54.7836 3.021
54.8139 2.135
54.8442 3.229
54.8744 2.656
54.9047 2.760
54.9350 2.604
54.9653 3.229
54.9956 3.073
55.0258 2.396
55.0561 2.344
55.0864 2.656
55.1167 2.448
55.1469 3.281
55.1772 3.437
55.2075 2.708
55.2378 3.125
55.2681 3.333
55.2983 3.646
55.3286 2.865
55.3589 2.708
55.3892 4.010
55.4195 3.594
55.4497 2.969
55.4800 3.646
55.5103 3.646
55.5406 3.958
55.5709 3.073
55.6011 4.271
55.6314 3.646
55.6617 4.271
55.6920 4.792
55.7222 4.427
55.7525 4.167
55.7828 5.260
55.8131 3.750
55.8434 5.573
55.8736 4.844
55.9039 5.677
55.9342 5.156
55.9645 5.573
55.9948 6.406
56.0250 7.500
56.0553 7.396
56.0856 9.115
56.1159 9.271
56.1461 9.948
56.1764 10.833
56.2067 11.146
56.2370 12.760
56.2673 12.865
56.2975 13.906
56.3278 14.948
56.3581 17.031
56.3884 19.167
56.4187 20.208
56.4489 20.937
56.4792 21.146
56.5095 20.833
56.5398 19.844
56.5700 18.333
56.6003 18.906
56.6306 14.844
56.6609 17.031
56.6912 14.792
56.7214 14.323
56.7517 11.927
56.7820 11.198
56.8123 10.052
56.8426 8.906
56.8728 8.646
56.9031 8.177
56.9334 7.760
56.9637 7.500
56.9939 6.458
57.0242 5.937
57.0545 5.677
57.0848 5.625
57.1151 6.354
57.1453 5.312
57.1756 5.521
57.2059 4.375
57.2362 4.323
57.2665 5.625
57.2967 4.323
57.3270 4.583
57.3573 3.281
57.3876 3.802
57.4178 3.750
57.4481 3.542
57.4784 4.010
57.5087 3.906
57.5390 4.010
57.5692 3.490
57.5995 2.552
57.6298 3.490
57.6601 3.385
57.6904 2.708
57.7206 2.656
57.7509 2.969
57.7812 3.542
57.8115 2.760
57.8417 3.021
57.8720 2.396
57.9023 2.396
57.9326 2.812
57.9629 3.333
57.9931 2.812
58.0234 2.187
58.0537 2.656
58.0840 3.125
58.1143 2.396
58.1445 2.812
58.1748 2.552
58.2051 2.396
58.2354 3.021
58.2656 2.708
58.2959 1.979
58.3262 2.969
58.3565 2.187
58.3868 2.604
58.4170 2.187
58.4473 2.552
58.4776 2.031
58.5079 2.656
58.5382 2.656
58.5684 3.073
58.5987 2.135
58.6290 2.708
58.6593 2.760
58.6896 2.083
58.7198 2.396
58.7501 2.812
58.7804 2.604
58.8107 1.927
58.8409 2.552
58.8712 2.240
58.9015 2.656
58.9318 2.187
58.9621 2.187
58.9923 2.448
59.0226 2.760
59.0529 2.135
59.0832 2.031
59.1135 2.500
59.1437 2.292
59.1740 2.344
59.2043 1.719
59.2346 2.500
59.2648 1.979
59.2951 2.969
59.3254 2.344
59.3557 2.031
59.3860 1.875
59.4162 2.448
59.4465 2.187
59.4768 2.135
59.5071 2.500
59.5374 1.719
59.5676 2.500
59.5979 1.458
59.6282 2.135
59.6585 2.552
59.6887 1.927
59.7190 2.760
59.7493 1.406
59.7796 2.240
59.8099 2.135
59.8401 1.927
59.8704 2.500
59.9007 2.083
59.9310 1.979
59.9613 2.708
59.9915 2.135
60.0218 2.656
60.0521 2.812
60.0824 2.604
60.1126 2.396
60.1429 1.927
60.1732 3.281
60.2035 2.292
60.2338 2.500
60.2640 2.240
60.2943 1.927
60.3246 2.448
60.3549 2.760
60.3852 2.448
60.4154 2.708
60.4457 2.656
60.4760 2.396
60.5063 2.865
60.5365 2.969
60.5668 2.083
60.5971 3.281
60.6274 2.760
60.6577 2.708
60.6879 2.031
60.7182 3.177
60.7485 2.500
60.7788 2.917
60.8091 2.656
60.8393 2.500
60.8696 2.292
60.8999 1.979
60.9302 3.125
60.9604 2.969
60.9907 1.615
61.0210 2.448
61.0513 3.073
61.0816 3.021
61.1118 2.604
61.1421 2.865
61.1724 2.344
61.2027 2.708
61.2330 2.656
61.2632 2.552
61.2935 2.240
61.3238 2.760
61.3541 2.396
61.3844 2.448
61.4146 2.448
61.4449 3.229
61.4752 2.083
61.5055 2.917
61.5357 2.344
61.5660 2.656
61.5963 2.708
61.6266 2.917
61.6569 3.385
61.6871 3.021
61.7174 3.021
61.7477 3.646
61.7780 3.906
61.8083 3.594
61.8385 3.437
61.8688 4.323
61.8991 3.490
61.9294 3.802
61.9596 4.167
61.9899 4.531
62.0202 4.375
62.0505 3.958
62.0808 3.854
62.1110 4.167
62.1413 5.052
62.1716 5.104
62.2019 5.833
62.2322 5.417
62.2624 7.083
62.2927 6.146
62.3230 7.760
62.3533 6.667
62.3835 7.083
62.4138 8.958
62.4441 8.490
62.4744 9.479
62.5047 12.448
62.5349 10.833
62.5652 12.292
62.5955 13.437
62.6258 16.302
62.6561 14.323
62.6863 15.781
62.7166 15.417
62.7469 16.771
62.7772 15.677
62.8074 16.354
62.8377 17.604
62.8680 15.312
62.8983 13.854
62.9286 12.135
62.9588 10.937
62.9891 12.187
63.0194 12.292
63.0497 9.948
63.0800 9.479
63.1102 8.854
63.1405 8.073
63.1708 6.562
63.2011 6.302
63.2313 7.396
63.2616 5.469
63.2919 5.312
63.3222 5.573
63.3525 4.740
63.3827 5.000
63.4130 4.219
63.4433 4.479
63.4736 4.010
63.5039 3.906
63.5341 3.125
63.5644 4.010
63.5947 3.229
63.6250 3.698
63.6552 3.594
63.6855 3.646
63.7158 3.021
63.7461 3.021
63.7764 3.229
63.8066 3.281
63.8369 3.073
63.8672 2.604
63.8975 2.396
63.9278 3.073
63.9580 2.396
63.9883 3.281
64.0186 2.812
64.0489 3.542
64.0791 2.708
64.1094 2.448
64.1397 2.500
64.1700 3.177
64.2003 2.708
64.2305 3.073
64.2608 3.177
64.2911 2.031
64.3214 3.073
64.3517 3.177
64.3819 2.604
64.4122 2.865
64.4425 3.021
64.4728 2.812
64.5031 2.656
64.5333 2.396
64.5636 2.083
64.5939 2.812
64.6242 2.396
64.6544 2.292
64.6847 2.500
64.7150 2.865
64.7453 2.812
64.7756 2.448
64.8058 2.969
64.8361 2.708
64.8664 2.604
64.8967 2.344
64.9270 2.604
64.9572 2.500
64.9875 1.562
65.0178 2.812
65.0481 2.344
65.0783 2.812
65.1086 2.083
65.1389 2.708
65.1692 2.708
65.1995 3.125
65.2297 2.812
65.2600 2.604
65.2903 2.500
65.3206 2.135
65.3509 2.604
65.3811 2.865
65.4114 2.708
65.4417 2.760
65.4720 2.760
65.5022 3.229
65.5325 2.552
65.5628 2.656
65.5931 2.604
65.6234 2.969
65.6536 2.500
65.6839 2.656
65.7142 3.437
65.7445 2.969
65.7748 2.760
65.8050 2.812
65.8353 2.812
65.8656 2.917
65.8959 3.125
65.9261 2.969
65.9564 3.021
65.9867 3.906
66.0170 3.750
66.0473 3.854
66.0775 3.646
66.1078 3.906
66.1381 4.427
66.1684 4.531
66.1987 3.802
66.2289 4.844
66.2592 4.740
66.2895 3.802
66.3198 5.104
66.3500 4.687
66.3803 5.104
66.4106 3.802
66.4409 4.583
66.4712 4.635
66.5014 4.010
66.5317 4.167
66.5620 3.854
66.5923 3.542
66.6226 3.594
66.6528 3.437
66.6831 4.531
66.7134 4.115
66.7437 3.750
66.7739 3.542
66.8042 3.437
66.8345 3.698
66.8648 3.854
66.8951 3.958
66.9253 3.437
66.9556 4.167
66.9859 4.010
67.0162 4.531
67.0465 3.646
67.0767 4.010
67.1070 3.646
67.1373 4.010
67.1676 4.427
67.1978 4.062
67.2281 5.000
67.2584 4.948
67.2887 4.583
67.3190 5.312
67.3492 5.781
67.3795 6.042
67.4098 6.302
67.4401 6.771
67.4704 7.396
67.5006 7.135
67.5309 8.281
67.5612 8.125
67.5915 8.281
67.6218 10.521
67.6520 9.896
67.6823 10.260
67.7126 11.823
67.7429 9.844
67.7731 12.500
67.8034 12.812
67.8337 11.719
67.8640 12.969
67.8943 11.667
67.9245 11.875
67.9548 13.021
67.9851 10.625
68.0154 9.740
68.0457 11.094
68.0759 9.687
68.1062 9.427
68.1365 8.750
68.1668 8.385
68.1970 9.062
68.2273 7.240
68.2576 7.604
68.2879 5.833
68.3182 6.562
68.3484 6.042
68.3787 6.354
68.4090 5.833
68.4393 5.990
68.4696 5.625
68.4998 5.990
68.5301 5.781
68.5604 5.885
68.5907 5.469
68.6209 5.052
68.6512 5.260
68.6815 6.771
68.7118 4.635
68.7421 5.937
68.7723 5.937
68.8026 5.781
68.8329 7.135
68.8632 6.823
68.8935 7.812
68.9237 7.812
68.9540 7.344
68.9843 6.979
69.0146 7.240
69.0448 7.135
69.0751 6.406
69.1054 7.083
69.1357 7.240
69.1660 6.406
69.1962 6.042
69.2265 6.146
69.2568 4.531
69.2871 5.260
69.3174 5.052
69.3476 4.687
69.3779 3.281
69.4082 3.490
69.4385 3.281
69.4687 3.854
69.4990 3.854
69.5293 3.333
69.5596 3.073
69.5899 3.333
69.6201 3.437
69.6504 3.750
69.6807 3.229
69.7110 3.490
69.7413 2.031
69.7715 2.240
69.8018 2.187
69.8321 2.760
69.8624 3.229
69.8926 3.073
69.9229 2.656
69.9532 2.344
69.9835 3.229
70.0138 3.229
70.0440 2.135
70.0743 2.240
70.1046 2.344
70.1349 2.917
70.1652 2.031
70.1954 1.771
70.2257 2.135
70.2560 2.708
70.2863 2.135
70.3166 3.021
70.3468 2.656
70.3771 2.083
70.4074 2.135
70.4377 2.656
70.4679 1.875
70.4982 1.771
70.5285 1.979
70.5588 1.875
70.5891 2.031
70.6193 1.719
70.6496 1.719
70.6799 2.448
70.7102 1.927
70.7405 3.073
70.7707 2.135
70.8010 2.187
70.8313 1.615
70.8616 1.979
70.8918 2.344
70.9221 1.667
70.9524 1.354
70.9827 2.292
71.0130 1.771
71.0432 2.240
71.0735 1.771
71.1038 1.458
71.1341 1.875
71.1644 2.344
71.1946 2.240
71.2249 1.719
71.2552 1.823
71.2855 1.667
71.3157 1.562
71.3460 1.615
71.3763 2.031
71.4066 1.615
71.4369 1.927
71.4671 2.448
71.4974 1.927
71.5277 1.875
71.5580 1.823
71.5883 2.083
71.6185 1.927
71.6488 1.875
71.6791 2.292
71.7094 1.719
71.7396 1.458
71.7699 1.927
71.8002 1.771
71.8305 2.083
71.8608 1.771
71.8910 1.562
71.9213 1.979
71.9516 2.135
71.9819 2.187
72.0122 2.031
72.0424 1.250
72.0727 2.240
72.1030 1.510
72.1333 1.354
72.1635 1.458
72.1938 2.240
72.2241 1.927
72.2544 1.510
72.2847 1.979
72.3149 2.760
72.3452 2.292
72.3755 3.333
72.4058 1.875
72.4361 2.292
72.4663 2.500
72.4966 2.083
72.5269 3.229
72.5572 2.240
72.5874 2.135
72.6177 2.812
72.6480 2.240
72.6783 2.552
72.7086 2.292
72.7388 1.927
72.7691 2.344
72.7994 1.927
72.8297 2.135
72.8600 1.823
72.8902 1.927
72.9205 1.979
72.9508 1.354
72.9811 1.510
73.0113 2.135
73.0416 1.302
73.0719 1.823
73.1022 1.771
73.1325 1.927
73.1627 1.875
73.1930 1.458
73.2233 1.771
73.2536 1.406
73.2839 1.719
73.3141 1.354
73.3444 2.031
73.3747 1.615
73.4050 1.354
73.4353 2.187
73.4655 1.406
73.4958 1.302
73.5261 1.510
73.5564 1.615
73.5866 1.510
73.6169 1.302
73.6472 1.875
73.6775 1.458
73.7078 2.083
73.7380 2.135
73.7683 1.875
73.7986 1.250
73.8289 1.562
73.8592 1.406
73.8894 1.927
73.9197 1.719
73.9500 1.458
73.9803 1.719
74.0105 1.354
74.0408 1.302
74.0711 2.031
74.1014 1.719
74.1317 1.458
74.1619 1.094
74.1922 1.927
74.2225 2.135
74.2528 1.927
74.2831 1.510
74.3133 1.250
74.3436 1.458
74.3739 1.302
74.4042 1.302
74.4344 1.146
74.4647 2.083
74.4950 1.875
74.5253 1.562
74.5556 1.510
74.5858 1.354
74.6161 2.031
74.6464 1.510
74.6767 1.875
74.7070 1.771
74.7372 1.562
74.7675 1.823
74.7978 1.146
74.8281 1.875
74.8583 1.146
74.8886 1.771
74.9189 1.250
74.9492 1.354
74.9795 1.875
75.0097 1.667
75.0400 1.510
75.0703 1.354
75.1006 1.198
75.1309 1.771
75.1611 1.562
75.1914 1.615
75.2217 1.667
75.2520 1.406
75.2822 1.719
75.3125 1.979
75.3428 1.198
75.3731 0.990
75.4034 1.719
75.4336 1.302
75.4639 0.833
75.4942 1.510
75.5245 1.875
75.5548 1.510
75.5850 1.510
75.6153 1.562
75.6456 1.615
75.6759 1.875
75.7061 1.510
75.7364 1.615
75.7667 1.302
75.7970 1.615
75.8273 1.823
75.8575 1.823
75.8878 1.146
75.9181 1.406
75.9484 1.979
75.9787 2.031
76.0089 1.510
76.0392 1.562
76.0695 1.667
76.0998 1.562
76.1301 1.719
76.1603 1.562
76.1906 1.667
76.2209 1.719
76.2512 1.823
76.2814 1.562
76.3117 1.615
76.3420 1.823
76.3723 1.719
76.4026 1.927
76.4328 1.823
76.4631 2.083
76.4934 2.187
76.5237 2.344
76.5540 2.292
76.5842 2.500
76.6145 2.187
76.6448 2.344
76.6751 2.760
76.7053 3.021
76.7356 2.708
76.7659 2.448
76.7962 3.125
76.8265 2.760
76.8567 2.448
76.8870 3.021
76.9173 2.292
76.9476 2.135
76.9779 3.073
77.0081 2.500
77.0384 2.917
77.0687 1.823
77.0990 2.969
77.1292 3.385
77.1595 2.135
77.1898 1.719
77.2201 2.448
77.2504 2.604
77.2806 1.979
77.3109 2.292
77.3412 1.667
77.3715 1.823
77.4018 1.927
77.4320 2.083
77.4623 1.354
77.4926 1.615
77.5229 2.448
77.5531 1.719
77.5834 1.406
77.6137 2.031
77.6440 1.562
77.6743 2.083
77.7045 1.406
77.7348 2.135
77.7651 1.198
77.7954 1.562
77.8257 1.510
77.8559 1.562
77.8862 1.302
77.9165 1.250
77.9468 1.510
77.9770 1.562
78.0073 1.927
78.0376 1.667
78.0679 2.292
78.0982 1.562
78.1284 1.667
78.1587 0.990
78.1890 1.510
78.2193 1.458
78.2496 1.771
78.2798 1.927
78.3101 1.615
78.3404 1.875
78.3707 1.719
78.4009 2.135
78.4312 1.510
78.4615 1.354
78.4918 1.823
78.5221 1.719
78.5523 1.615
78.5826 1.823
78.6129 1.198
78.6432 1.719
78.6735 1.458
78.7037 1.667
78.7340 1.198
78.7643 1.823
78.7946 0.885
78.8248 1.615
78.8551 1.979
78.8854 1.667
78.9157 2.083
78.9460 1.562
78.9762 1.615
79.0065 1.927
79.0368 1.875
79.0671 1.823
79.0974 2.083
79.1276 1.562
79.1579 1.198
79.1882 1.302
79.2185 1.667
79.2488 1.615
79.2790 1.198
79.3093 1.354
79.3396 1.875
79.3699 1.562
79.4001 1.302
79.4304 1.250
79.4607 1.615
79.4910 1.667
79.5213 2.135
79.5515 1.615
79.5818 1.406
79.6121 1.406
79.6424 1.771
79.6727 1.094
79.7029 1.198
79.7332 1.094
79.7635 1.510
79.7938 1.562
79.8240 1.667
79.8543 1.771
79.8846 1.146
79.9149 1.510
79.9452 1.354
79.9754 1.094
80.0057 1.458
80.0360 1.250
80.0663 1.615
80.0966 1.198
80.1268 1.615
80.1571 1.250
80.1874 1.510
80.2177 1.406
80.2479 1.042
80.2782 1.406
80.3085 1.667
80.3388 1.667
80.3691 1.510
80.3993 1.562
80.4296 1.406
80.4599 1.615
80.4902 1.510
80.5205 1.458
80.5507 1.146
80.5810 1.875
80.6113 1.823
80.6416 1.979
80.6718 1.667
80.7021 1.979
80.7324 1.354
80.7627 1.042
80.7930 2.292
80.8232 1.927
80.8535 1.302
80.8838 1.354
80.9141 1.615
80.9444 1.719
80.9746 1.562
81.0049 2.187
81.0352 1.719
81.0655 1.458
81.0957 1.927
81.1260 1.979
81.1563 1.510
81.1866 2.135
81.2169 1.771
81.2471 1.667
81.2774 1.875
81.3077 3.229
81.3380 1.667
81.3683 1.927
81.3985 1.615
81.4288 2.135
81.4591 1.667
81.4894 2.083
81.5196 2.187
81.5499 1.667
81.5802 2.292
81.6105 2.083
81.6408 1.667
81.6710 1.979
81.7013 1.615
81.7316 1.875
81.7619 1.094
81.7922 1.771
81.8224 1.719
81.8527 1.458
81.8830 1.719
81.9133 1.615
81.9436 1.250
81.9738 1.198
82.0041 1.198
82.0344 1.667
82.0647 1.458
82.0949 1.719
82.1252 1.667
82.1555 1.354
82.1858 1.458
82.2161 1.510
82.2463 1.354
82.2766 1.354
82.3069 1.458
82.3372 1.615
82.3675 1.823
82.3977 2.031
82.4280 1.562
82.4583 1.562
82.4886 1.562
82.5188 1.771
82.5491 1.719
82.5794 1.510
82.6097 1.146
82.6400 1.198
82.6702 1.719
82.7005 1.667
82.7308 1.406
82.7611 1.354
82.7914 1.562
82.8216 0.990
82.8519 1.510
82.8822 1.510
82.9125 1.302
82.9427 2.031
82.9730 1.458
83.0033 1.406
83.0336 1.615
83.0639 1.458
83.0941 1.667
83.1244 1.406
83.1547 1.198
83.1850 1.562
83.2153 1.771
83.2455 1.250
83.2758 1.562
83.3061 1.094
83.3364 1.458
83.3666 1.823
83.3969 1.458
83.4272 1.771
83.4575 1.146
83.4878 0.729
83.5180 1.615
83.5483 1.667
83.5786 1.562
83.6089 0.937
83.6392 1.406
83.6694 1.198
83.6997 1.562
83.7300 1.458
83.7603 2.187
83.7905 1.667
83.8208 1.406
83.8511 1.510
83.8814 1.823
83.9117 1.198
83.9419 1.198
83.9722 1.302
84.0025 1.198
84.0328 1.198
84.0631 1.146
84.0933 1.198
84.1236 1.719
84.1539 1.510
84.1842 1.562
84.2144 1.042
84.2447 1.146
84.2750 1.823
84.3053 1.250
84.3356 1.510
84.3658 1.198
84.3961 1.250
84.4264 1.615
84.4567 1.667
84.4870 1.146
84.5172 1.615
84.5475 1.510
84.5778 1.510
84.6081 1.302
84.6383 1.615
84.6686 1.146
84.6989 0.885
84.7292 1.406
84.7595 1.354
84.7897 0.885
84.8200 1.458
84.8503 1.250
84.8806 1.406
84.9109 1.771
84.9411 1.510
84.9714 1.823
85.0017 1.562
85.0320 1.823
85.0623 1.302
85.0925 1.615
85.1228 1.250
85.1531 1.198
85.1834 2.031
85.2136 1.510
85.2439 0.990
85.2742 1.406
85.3045 1.146
85.3348 1.719
85.3650 1.979
85.3953 1.250
85.4256 1.198
85.4559 1.198
85.4862 1.458
85.5164 1.354
85.5467 0.885
85.5770 1.042
85.6073 1.510
85.6375 1.354
85.6678 1.354
85.6981 1.510
85.7284 1.510
85.7587 1.615
85.7889 1.198
85.8192 1.198
85.8495 1.406
85.8798 1.302
85.9101 1.667
85.9403 1.302
85.9706 1.562
86.0009 1.198
86.0312 1.510
86.0614 1.771
86.0917 1.875
86.1220 1.458
86.1523 1.302
86.1826 1.615
86.2128 1.302
86.2431 1.719
86.2734 1.250
86.3037 1.667
86.3340 1.458
86.3642 1.458
86.3945 1.562
86.4248 1.458
86.4551 1.823
86.4853 1.615
86.5156 1.198
86.5459 1.667
86.5762 1.615
86.6065 1.719
86.6367 1.719
86.6670 1.406
86.6973 1.146
86.7276 0.990
86.7579 1.823
86.7881 0.990
86.8184 1.823
86.8487 1.510
86.8790 1.667
86.9092 0.937
86.9395 1.719
86.9698 1.302
87.0001 1.302
87.0304 1.250
87.0606 1.615
87.0909 1.354
87.1212 1.406
87.1515 1.667
87.1818 1.250
87.2120 1.302
87.2423 1.667
87.2726 1.354
87.3029 1.615
87.3331 1.615
87.3634 1.979
87.3937 1.667
87.4240 0.781
87.4543 1.823
87.4845 1.719
87.5148 1.302
87.5451 1.458
87.5754 1.458
87.6057 1.406
87.6359 2.031
87.6662 1.458
87.6965 1.198
87.7268 1.719
87.7571 1.198
87.7873 2.135
87.8176 1.667
87.8479 1.719
87.8782 1.771
87.9084 1.719
87.9387 1.510
87.9690 1.406
87.9993 1.615
88.0296 1.406
88.0598 1.667
88.0901 1.875
88.1204 1.510
88.1507 1.302
88.1810 1.771
88.2112 1.667
88.2415 2.031
88.2718 1.458
88.3021 1.615
88.3323 1.615
88.3626 1.562
88.3929 1.979
88.4232 1.667
88.4535 1.719
88.4837 1.771
88.5140 1.771
88.5443 1.562
88.5746 2.344
88.6049 1.562
88.6351 1.667
88.6654 1.458
88.6957 2.031
88.7260 2.500
88.7562 2.135
88.7865 2.135
88.8168 2.396
88.8471 2.031
88.8774 1.927
88.9076 2.292
88.9379 1.667
88.9682 2.187
88.9985 2.187
89.0288 2.708
89.0590 2.604
89.0893 2.448
89.1196 2.396
89.1499 2.135
89.1801 3.437
89.2104 2.292
89.2407 2.396
89.2710 2.708
89.3013 2.656
89.3315 3.125
89.3618 2.812
89.3921 3.125
89.4224 4.271
89.4527 3.073
89.4829 4.167
89.5132 3.490
89.5435 3.802
89.5738 3.542
89.6040 3.698
89.6343 3.854
89.6646 3.125
89.6949 3.698
89.7252 3.854
89.7554 3.177
89.7857 3.177
89.8160 3.177
89.8463 3.281
89.8766 3.073
89.9068 2.604
89.9371 2.552
89.9674 2.708
89.9977 2.031
90.0279 2.760
90.0582 3.437
90.0885 1.771
90.1188 2.448
90.1491 2.292
90.1793 2.083
90.2096 2.187
90.2399 2.552
90.2702 1.354
90.3005 2.292
90.3307 1.875
90.3610 2.292
90.3913 2.135
90.4216 1.302
90.4518 2.083
90.4821 1.562
90.5124 2.344
90.5427 2.083
90.5730 1.979
90.6032 2.135
90.6335 1.042
90.6638 1.719
90.6941 1.458
90.7244 1.667
90.7546 1.875
90.7849 2.135
90.8152 1.875
90.8455 1.615
90.8758 1.771
90.9060 1.198
90.9363 1.667
90.9666 1.250
90.9969 1.458
91.0271 1.875
91.0574 1.510
91.0877 1.562
91.1180 2.083
91.1483 2.031
91.1785 2.344
91.2088 1.875
91.2391 2.187
91.2694 1.771
91.2997 1.406
91.3299 1.719
91.3602 1.771
91.3905 1.667
91.4208 1.927
91.4510 1.042
91.4813 1.927
91.5116 2.396
91.5419 1.615
91.5722 1.667
91.6024 1.667
91.6327 1.562
91.6630 1.979
91.6933 1.354
91.7236 1.354
91.7538 1.719
91.7841 1.354
91.8144 1.667
91.8447 1.615
91.8749 1.615
91.9052 1.719
91.9355 1.823
91.9658 1.667
91.9961 1.406
92.0263 1.562
92.0566 2.083
92.0869 1.667
92.1172 1.615
92.1475 2.135
92.1777 2.083
92.2080 1.406
92.2383 1.979
92.2686 1.667
92.2988 1.823
92.3291 1.823
92.3594 2.656
92.3897 1.719
92.4200 2.083
92.4502 2.760
92.4805 2.083
92.5108 1.927
92.5411 2.396
92.5714 2.187
92.6016 2.135
92.6319 2.187
92.6622 2.604
92.6925 2.552
92.7227 2.344
92.7530 2.500
92.7833 2.187
92.8136 2.500
92.8439 2.187
92.8741 2.083
92.9044 2.656
92.9347 2.448
92.9650 1.771
92.9953 1.719
93.0255 1.875
93.0558 2.187
93.0861 2.083
93.1164 2.031
93.1466 2.135
93.1769 1.927
93.2072 1.771
93.2375 1.302
93.2678 1.927
93.2980 1.979
93.3283 2.031
93.3586 1.458
93.3889 1.875
93.4192 1.510
93.4494 1.719
93.4797 1.823
93.5100 1.771
93.5403 2.135
93.5706 2.031
93.6008 1.719
93.6311 1.354
93.6614 1.979
93.6917 1.615
93.7219 1.927
93.7522 1.719
93.7825 1.719
93.8128 2.083
93.8431 1.875
93.8733 1.771
93.9036 1.667
93.9339 1.979
93.9642 1.510
93.9945 1.719
94.0247 1.458
94.0550 2.708
94.0853 2.135
94.1156 1.927
94.1458 1.771
94.1761 1.875
94.2064 2.187
94.2367 2.396
94.2670 1.823
94.2972 1.510
94.3275 1.979
94.3578 2.031
94.3881 1.719
94.4184 2.083
94.4486 2.187
94.4789 2.552
94.5092 2.552
94.5395 1.719
94.5697 1.875
94.6000 2.500
94.6303 1.667
94.6606 2.187
94.6909 2.760
94.7211 2.083
94.7514 2.448
94.7817 2.500
94.8120 3.073
94.8423 2.865
94.8725 2.760
94.9028 3.229
94.9331 2.969
94.9634 3.281
94.9936 3.177
95.0239 2.917
95.0542 2.969
95.0845 3.750
95.1148 3.542
95.1450 3.646
95.1753 3.646
95.2056 2.969
95.2359 3.906
95.2662 4.010
95.2964 3.802
95.3267 3.437
95.3570 3.229
95.3873 3.437
95.4175 3.698
95.4478 3.385
95.4781 3.490
95.5084 2.344
95.5387 2.500
95.5689 3.177
95.5992 3.385
95.6295 3.594
95.6598 2.917
95.6901 3.490
95.7203 2.708
95.7506 2.552
95.7809 2.708
95.8112 2.500
95.8414 2.240
95.8717 2.448
95.9020 1.771
95.9323 2.448
95.9626 2.812
95.9928 2.500
96.0231 1.771
96.0534 1.979
96.0837 1.510
96.1140 1.719
96.1442 2.240
96.1745 1.979
96.2048 1.927
96.2351 1.667
96.2653 1.719
96.2956 2.031
96.3259 2.031
96.3562 1.146
96.3865 1.615
96.4167 2.240
96.4470 2.031
96.4773 1.510
96.5076 1.719
96.5379 2.187
96.5681 1.667
96.5984 1.667
96.6287 1.771
96.6590 1.719
96.6893 1.667
96.7195 1.667
96.7498 1.302
96.7801 1.771
96.8104 1.771
96.8406 1.510
96.8709 1.458
96.9012 1.406
96.9315 1.302
96.9618 2.448
96.9920 1.302
97.0223 0.937
97.0526 2.031
97.0829 1.771
97.1132 2.083
97.1434 2.240
97.1737 1.667
97.2040 2.135
97.2343 1.771
97.2645 1.771
97.2948 1.667
97.3251 1.875
97.3554 2.708
97.3857 1.719
97.4159 1.771
97.4462 1.823
97.4765 1.510
97.5068 1.667
97.5371 1.302
97.5673 1.562
97.5976 1.875
97.6279 1.250
97.6582 2.240
97.6884 1.771
97.7187 2.292
97.7490 2.135
97.7793 1.719
97.8096 1.615
97.8398 2.031
97.8701 2.656
97.9004 1.667
97.9307 2.031
97.9610 2.187
97.9912 1.979
98.0215 2.135
98.0518 2.292
98.0821 2.292
98.1123 2.187
98.1426 2.708
98.1729 2.552
98.2032 1.771
98.2335 1.510
98.2637 1.927
98.2940 1.875
98.3243 2.031
98.3546 2.448
98.3849 2.396
98.4151 2.812
98.4454 2.760
98.4757 2.812
98.5060 2.656
98.5362 3.073
98.5665 2.656
98.5968 2.604
98.6271 2.396
98.6574 2.760
98.6876 3.073
98.7179 2.812
98.7482 2.396
98.7785 2.500
98.8088 1.979
98.8390 2.187
98.8693 2.604
98.8996 2.604
98.9299 2.500
98.9601 2.292
98.9904 1.823
99.0207 2.708
99.0510 1.823
99.0813 2.031
99.1115 2.135
99.1418 1.823
99.1721 2.031
99.2024 1.875
99.2327 1.927
99.2629 1.823
99.2932 1.875
99.3235 2.344
99.3538 1.146
99.3841 1.406
99.4143 1.875
99.4446 1.771
99.4749 1.302
99.5052 1.250
99.5354 1.771
99.5657 1.667
99.5960 1.562
99.6263 1.719
99.6566 1.979
99.6868 1.562
99.7171 2.031
99.7474 1.302
99.7777 1.615
99.8080 1.510
99.8382 1.302
99.8685 1.823
99.8988 1.667
99.9291 1.302
99.9593 1.562
99.9896 1.615
100.0199 1.302
100.0502 2.187
100.0805 1.771
100.1107 1.562
100.1410 1.771
100.1713 1.823
100.2016 1.510
100.2319 1.615
100.2621 1.823
100.2924 1.823
100.3227 1.875
100.3530 1.302
100.3832 1.875
100.4135 1.823
100.4438 1.302
100.4741 1.562
100.5044 1.719
100.5346 1.302
100.5649 1.094
100.5952 1.094
100.6255 1.615
100.6558 1.146
100.6860 1.354
100.7163 1.667
100.7466 1.562
100.7769 2.083
100.8071 1.823
100.8374 1.406
100.8677 1.458
100.8980 2.083
100.9283 1.562
100.9585 1.979
100.9888 1.719
101.0191 2.083
101.0494 1.406
101.0797 1.823
101.1099 1.927
101.1402 1.198
101.1705 1.562
101.2008 1.823
101.2310 1.250
101.2613 1.615
101.2916 1.615
101.3219 2.031
101.3522 1.719
101.3824 1.302
101.4127 1.354
101.4430 1.458
101.4733 2.031
101.5036 1.823
101.5338 1.510
101.5641 1.927
101.5944 1.042
101.6247 1.823
101.6549 1.615
101.6852 1.615
101.7155 1.510
101.7458 1.510
101.7761 2.083
101.8063 1.198
101.8366 2.187
101.8669 1.406
101.8972 1.458
101.9275 0.937
101.9577 2.448
101.9880 1.875
102.0183 1.719
102.0486 1.615
102.0788 1.927
102.1091 1.979
102.1394 1.979
102.1697 1.875
102.2000 1.094
102.2302 2.187
102.2605 1.458
102.2908 2.187
102.3211 1.510
102.3514 1.458
102.3816 2.031
102.4119 1.927
102.4422 1.979
102.4725 1.823
102.5028 1.979
102.5330 2.448
102.5633 2.448
102.5936 2.031
102.6239 2.448
102.6541 2.865
102.6844 1.875
102.7147 2.917
102.7450 2.604
102.7753 2.969
102.8055 1.927
102.8358 2.552
102.8661 2.396
102.8964 2.812
102.9267 2.187
102.9569 2.656
102.9872 2.083
103.0175 3.021
103.0478 2.187
103.0780 2.604
103.1083 2.656
103.1386 2.031
103.1689 2.969
103.1992 2.396
103.2294 2.396
103.2597 2.083
103.2900 2.292
103.3203 2.187
103.3506 1.927
103.3808 2.240
103.4111 2.500
103.4414 2.292
103.4717 2.708
103.5019 2.708
103.5322 2.708
103.5625 2.240
103.5928 2.656
103.6231 2.344
103.6533 2.812
103.6836 3.125
103.7139 2.240
103.7442 3.646
103.7745 3.229
103.8047 3.177
103.8350 2.135
103.8653 3.021
103.8956 3.594
103.9258 2.917
103.9561 2.812
103.9864 2.917
104.0167 3.281
104.0470 3.437
104.0772 2.812
104.1075 2.708
104.1378 3.021
104.1681 3.021
104.1984 3.229
104.2286 3.594
104.2589 2.865
104.2892 3.698
104.3195 2.656
104.3497 2.396
104.3800 2.448
104.4103 1.823
104.4406 2.240
104.4709 2.760
104.5011 2.135
104.5314 3.385
104.5617 3.125
104.5920 2.396
104.6223 1.979
104.6525 2.500
104.6828 3.021
104.7131 1.771
104.7434 2.396
104.7736 1.979
104.8039 2.344
104.8342 1.979
104.8645 2.031
104.8948 1.927
104.9250 1.719
104.9553 1.927
104.9856 1.667
105.0159 2.083
105.0462 1.979
105.0764 1.719
105.1067 1.771
105.1370 2.187
105.1673 1.979
105.1975 1.979
105.2278 1.562
105.2581 2.135
105.2884 1.562
105.3187 1.510
105.3489 1.562
105.3792 1.719
105.4095 2.031
105.4398 1.406
105.4701 1.979
105.5003 1.823
105.5306 2.187
105.5609 2.135
105.5912 1.562
105.6215 1.562
105.6517 1.667
105.6820 1.406
105.7123 1.406
105.7426 1.562
105.7728 1.927
105.8031 2.031
105.8334 1.823
105.8637 1.667
105.8940 1.615
105.9242 1.719
105.9545 1.667
105.9848 1.458
106.0151 1.458
106.0454 2.031
106.0756 1.823
106.1059 1.458
106.1362 1.302
106.1665 2.031
106.1967 1.927
106.2270 1.771
106.2573 2.031
106.2876 1.979
106.3179 1.406
106.3481 1.458
106.3784 1.771
106.4087 2.031
106.4390 2.031
106.4693 1.458
106.4995 1.615
106.5298 1.771
106.5601 1.458
106.5904 1.667
106.6206 1.458
106.6509 2.083
106.6812 1.562
106.7115 2.135
106.7418 1.458
106.7720 1.875
106.8023 1.667
106.8326 1.354
106.8629 1.823
106.8932 2.135
106.9234 1.510
106.9537 1.458
106.9840 2.292
107.0143 2.031
107.0445 1.510
107.0748 1.719
107.1051 1.667
107.1354 2.344
107.1657 1.823
107.1959 1.667
107.2262 1.042
107.2565 2.083
107.2868 1.458
107.3171 1.979
107.3473 1.823
107.3776 1.302
107.4079 2.187
107.4382 1.927
107.4684 2.500
107.4987 1.510
107.5290 1.094
107.5593 2.187
107.5896 1.875
107.6198 1.875
107.6501 1.458
107.6804 2.187
107.7107 1.510
107.7410 1.719
107.7712 1.458
107.8015 1.458
107.8318 1.510
107.8621 1.667
107.8923 1.354
107.9226 1.354
107.9529 1.615
107.9832 1.667
108.0135 1.667
108.0437 1.458
108.0740 1.562
108.1043 1.875
108.1346 1.458
108.1649 1.510
108.1951 1.406
108.2254 2.396
108.2557 1.823
108.2860 1.979
108.3163 1.354
108.3465 1.302
108.3768 1.562
108.4071 1.719
108.4374 1.406
108.4676 1.198
108.4979 1.771
108.5282 1.406
108.5585 1.510
108.5888 1.458
108.6190 1.458
108.6493 1.875
108.6796 1.406
108.7099 2.292
108.7402 1.302
108.7704 1.354
108.8007 1.667
108.8310 1.615
108.8613 1.250
108.8915 1.562
108.9218 1.615
108.9521 1.771
108.9824 1.719
109.0127 1.510
109.0429 1.510
109.0732 1.615
109.1035 1.562
109.1338 2.083
109.1641 1.042
109.1943 1.667
109.2246 1.562
109.2549 1.562
109.2852 1.510
109.3154 1.927
109.3457 1.562
109.3760 1.302
109.4063 1.875
109.4366 2.083
109.4668 1.562
109.4971 2.187
109.5274 2.344
109.5577 1.771
109.5880 1.562
109.6182 2.552
109.6485 1.615
109.6788 1.198
109.7091 2.187
109.7393 1.927
109.7696 1.354
109.7999 1.875
109.8302 2.240
109.8605 2.500
109.8907 1.354
109.9210 2.031
109.9513 1.302
109.9816 2.448
110.0119 1.875
110.0421 2.031
110.0724 2.344
110.1027 2.240
110.1330 2.448
110.1632 2.865
110.1935 2.656
110.2238 2.240
110.2541 2.031
110.2844 2.552
110.3146 2.292
110.3449 2.135
110.3752 1.979
110.4055 2.448
110.4358 2.292
110.4660 1.615
110.4963 2.604
110.5266 2.656
110.5569 2.240
110.5871 2.865
110.6174 1.979
110.6477 2.135
110.6780 2.240
110.7083 2.083
110.7385 1.823
110.7688 1.667
110.7991 2.604
110.8294 1.406
110.8597 2.187
110.8899 1.875
110.9202 1.562
110.9505 2.292
110.9808 1.823
111.0110 1.458
111.0413 2.604
111.0716 2.187
111.1019 1.979
111.1322 1.771
111.1624 1.667
111.1927 1.875
111.2230 2.135
111.2533 1.615
111.2836 2.031
111.3138 1.667
111.3441 1.875
111.3744 1.667
111.4047 2.083
111.4350 1.667
111.4652 1.510
111.4955 1.354
111.5258 1.875
111.5561 1.510
111.5863 1.406
111.6166 1.927
111.6469 1.510
111.6772 1.042
111.7075 2.083
111.7377 1.771
111.7680 1.667
111.7983 1.406
111.8286 1.146
111.8589 1.406
111.8891 1.771
111.9194 1.406
111.9497 2.031
111.9800 1.719
112.0102 1.927
112.0405 1.302
112.0708 1.719
112.1011 1.562
112.1314 0.990
112.1616 1.510
112.1919 1.615
112.2222 1.354
112.2525 1.615
112.2828 1.771
112.3130 0.937
112.3433 1.198
112.3736 1.250
112.4039 1.667
112.4341 1.510
112.4644 1.823
112.4947 2.031
112.5250 1.823
112.5553 1.250
112.5855 1.719
112.6158 1.510
112.6461 1.875
112.6764 1.146
112.7067 1.719
112.7369 1.146
112.7672 1.979
112.7975 1.615
112.8278 1.562
112.8580 1.198
112.8883 1.823
112.9186 1.094
112.9489 1.354
112.9792 1.875
113.0094 1.042
113.0397 1.302
113.0700 1.979
113.1003 1.510
113.1306 1.771
113.1608 1.875
113.1911 1.823
113.2214 1.667
113.2517 1.094
113.2819 1.250
113.3122 1.615
113.3425 1.719
113.3728 1.771
113.4031 2.292
113.4333 1.823
113.4636 1.719
113.4939 1.510
113.5242 1.875
113.5545 1.510
113.5847 1.302
113.6150 1.354
113.6453 2.135
113.6756 1.562
113.7058 1.615
113.7361 1.562
113.7664 1.771
113.7967 1.615
113.8270 1.562
113.8572 1.771
113.8875 1.771
113.9178 1.302
113.9481 1.458
113.9784 1.458
114.0086 1.927
114.0389 1.875
114.0692 1.510
114.0995 1.458
114.1298 2.031
114.1600 1.719
114.1903 1.354
114.2206 1.562
114.2509 1.510
114.2811 1.979
114.3114 1.458
114.3417 1.719
114.3720 1.458
114.4023 1.562
114.4325 1.094
114.4628 1.510
114.4931 1.719
114.5234 1.719
114.5537 1.562
114.5839 1.771
114.6142 1.510
114.6445 1.510
114.6748 2.135
114.7050 2.552
114.7353 1.406
114.7656 1.562
114.7959 2.604
114.8262 1.875
114.8564 1.615
114.8867 1.979
114.9170 2.396
114.9473 1.510
114.9776 2.187
115.0078 2.604
115.0381 2.292
115.0684 2.187
115.0987 1.823
115.1289 1.875
115.1592 1.719
115.1895 2.187
115.2198 1.823
115.2501 1.875
115.2803 2.552
115.3106 2.083
115.3409 2.917
115.3712 2.604
115.4015 1.927
115.4317 2.500
115.4620 2.396
115.4923 1.875
115.5226 2.292
115.5528 3.021
115.5831 2.240
115.6134 2.604
115.6437 2.656
115.6740 2.812
115.7042 2.760
115.7345 2.292
115.7648 2.448
115.7951 2.604
115.8254 3.490
115.8556 3.073
115.8859 2.656
115.9162 3.490
115.9465 3.646
115.9767 2.969
116.0070 3.542
116.0373 3.125
116.0676 2.552
116.0979 2.708
116.1281 2.865
116.1584 2.812
116.1887 3.021
116.2190 3.542
116.2493 3.281
116.2795 3.490
116.3098 2.760
116.3401 3.073
116.3704 2.917
116.4006 2.292
116.4309 2.604
116.4612 3.229
116.4915 2.917
116.5218 4.271
116.5520 3.698
116.5823 3.385
116.6126 3.125
116.6429 2.969
116.6732 2.760
116.7034 2.708
116.7337 2.812
116.7640 2.344
116.7943 2.292
116.8245 2.760
116.8548 2.083
116.8851 2.865
116.9154 3.125
116.9457 2.865
116.9759 2.292
117.0062 2.656
117.0365 2.448
117.0668 2.604
117.0971 2.656
117.1273 2.396
117.1576 2.500
117.1879 1.875
117.2182 2.604
117.2485 2.240
117.2787 3.177
117.3090 1.979
117.3393 1.771
117.3696 2.396
117.3998 2.396
117.4301 1.979
117.4604 2.448
117.4907 1.927
117.5210 1.615
117.5512 2.031
117.5815 1.771
117.6118 2.031
117.6421 2.083
117.6724 1.771
117.7026 1.875
117.7329 2.031
117.7632 1.302
117.7935 1.771
117.8237 1.823
117.8540 2.083
117.8843 2.083
117.9146 1.562
117.9449 2.448
117.9751 1.719
118.0054 1.302
118.0357 1.198
118.0660 1.771
118.0963 2.135
118.1265 1.406
118.1568 1.406
118.1871 1.615
118.2174 1.719
118.2476 1.667
118.2779 1.667
118.3082 1.771
118.3385 2.083
118.3688 1.250
118.3990 1.771
118.4293 1.146
118.4596 1.875
118.4899 1.302
118.5202 1.458
118.5504 1.302
118.5807 2.344
118.6110 1.615
118.6413 2.031
118.6715 2.135
118.7018 1.094
118.7321 1.719
118.7624 1.354
118.7927 1.615
118.8229 1.198
118.8532 1.198
118.8835 1.771
118.9138 1.250
118.9441 2.187
118.9743 1.302
119.0046 1.615
119.0349 2.187
119.0652 2.187
119.0954 1.667
119.1257 1.927
119.1560 1.510
119.1863 1.302
119.2166 1.927
119.2468 1.250
119.2771 1.615
119.3074 1.250
119.3377 1.458
119.3680 1.562
119.3982 1.042
119.4285 1.458
119.4588 1.562
119.4891 1.615
119.5193 1.458
119.5496 1.667
119.5799 1.615
119.6102 1.198
119.6405 1.823
119.6707 1.354
119.7010 1.615
119.7313 1.771
119.7616 2.240
119.7919 1.406
119.8221 1.927
119.8524 1.458
119.8827 1.667
119.9130 1.354
119.9433 1.354
119.9735 1.927
120.0038 1.719
