'Id: "" Comment: "" Operator: "Lab Manager" Anode: "Cu" Scantype: "Locked Coupled" TimePerStep: "19.2" X: "9999" Y: "9999" Z: "9999" 
10.0015 4.271
10.0318 3.490
10.0620 5.208
10.0923 4.479
10.1226 4.115
10.1529 4.635
10.1832 4.271
10.2134 4.167
10.2437 2.969
10.2740 3.646
10.3043 4.271
10.3346 3.854
10.3648 4.844
10.3951 4.271
10.4254 4.323
10.4557 4.687
10.4859 4.219
10.5162 3.854
10.5465 3.594
10.5768 4.687
10.6071 4.583
10.6373 3.854
10.6676 4.844
10.6979 3.594
10.7282 4.896
10.7585 3.333
10.7887 3.698
10.8190 3.854
10.8493 4.010
10.8796 3.698
10.9098 3.698
10.9401 2.969
10.9704 3.802
11.0007 4.635
11.0310 5.469
11.0612 4.375
11.0915 4.687
11.1218 4.740
11.1521 4.010
11.1824 4.219
11.2126 4.323
11.2429 3.594
11.2732 3.437
11.3035 3.542
11.3337 4.427
11.3640 3.646
11.3943 3.750
11.4246 4.010
11.4549 3.646
11.4851 3.333
11.5154 3.490
11.5457 3.854
11.5760 3.021
11.6063 4.271
11.6365 3.698
11.6668 3.854
11.6971 3.906
11.7274 3.021
11.7577 3.229
11.7879 3.594
11.8182 3.698
11.8485 3.542
11.8788 4.375
11.9090 4.010
11.9393 3.646
11.9696 3.594
11.9999 3.542
12.0302 3.490
12.0604 3.281
12.0907 3.437
12.1210 2.969
12.1513 4.323
12.1816 4.271
12.2118 3.750
12.2421 4.010
12.2724 3.490
12.3027 4.062
12.3329 2.708
12.3632 3.698
12.3935 3.437
12.4238 2.969
12.4541 3.021
12.4843 3.229
12.5146 3.281
12.5449 3.698
12.5752 3.542
12.6055 3.281
12.6357 2.812
12.6660 4.427
12.6963 3.385
12.7266 3.021
12.7568 3.646
12.7871 3.646
12.8174 4.271
12.8477 3.854
12.8780 3.281
12.9082 3.542
12.9385 2.760
12.9688 3.594
12.9991 3.594
13.0294 3.958
13.0596 3.437
13.0899 2.604
13.1202 3.385
13.1505 4.115
13.1807 2.135
13.2110 4.271
13.2413 3.073
13.2716 3.229
13.3019 3.229
13.3321 3.490
13.3624 2.969
13.3927 3.542
13.4230 3.646
13.4533 3.490
13.4835 3.125
13.5138 3.385
13.5441 2.917
13.5744 3.646
13.6046 3.385
13.6349 3.437
13.6652 3.281
13.6955 3.594
13.7258 2.604
13.7560 3.333
13.7863 4.427
13.8166 3.490
13.8469 2.656
13.8772 3.333
13.9074 2.500
13.9377 3.750
13.9680 3.177
13.9983 3.385
14.0285 3.490
14.0588 3.177
14.0891 2.865
14.1194 3.281
14.1497 3.333
14.1799 2.812
14.2102 3.333
14.2405 2.760
14.2708 4.062
14.3011 2.760
14.3313 3.281
14.3616 3.177
14.3919 3.437
14.4222 4.323
14.4524 3.750
14.4827 3.333
14.5130 2.760
14.5433 3.385
14.5736 2.344
14.6038 3.073
14.6341 3.229
14.6644 3.802
14.6947 3.802
14.7250 3.490
14.7552 3.594
14.7855 4.115
14.8158 3.646
14.8461 3.646
14.8764 2.969
14.9066 3.125
14.9369 2.760
14.9672 3.698
14.9975 3.177
15.0277 2.500
15.0580 3.490
15.0883 3.906
15.1186 2.969
15.1489 2.865
15.1791 3.542
15.2094 2.917
15.2397 2.292
15.2700 2.969
15.3003 2.500
15.3305 3.698
15.3608 2.708
15.3911 3.698
15.4214 3.490
15.4516 3.073
15.4819 2.760
15.5122 3.750
15.5425 3.125
15.5728 3.437
15.6030 3.385
15.6333 3.073
15.6636 3.385
15.6939 1.927
15.7242 3.177
15.7544 2.708
15.7847 2.708
15.8150 2.812
15.8453 3.698
15.8755 3.281
15.9058 2.656
15.9361 2.187
15.9664 3.333
15.9967 3.490
16.0269 2.500
16.0572 3.281
16.0875 2.708
16.1178 2.917
16.1481 3.125
16.1783 3.646
16.2086 3.125
16.2389 3.021
16.2692 3.698
16.2994 2.760
16.3297 3.125
16.3600 3.177
16.3903 2.552
16.4206 2.656
16.4508 2.396
16.4811 3.594
16.5114 2.969
16.5417 2.969
16.5720 3.385
16.6022 3.229
16.6325 2.865
16.6628 3.333
16.6931 2.760
16.7233 2.969
16.7536 3.281
16.7839 3.490
16.8142 3.542
16.8445 3.125
16.8747 3.229
16.9050 2.969
16.9353 4.010
16.9656 3.542
16.9959 3.333
17.0261 3.594
17.0564 3.542
17.0867 3.177
17.1170 2.760
17.1472 3.125
17.1775 2.969
17.2078 2.917
17.2381 2.292
17.2684 3.333
17.2986 2.292
17.3289 2.760
17.3592 2.969
17.3895 2.760
17.4198 2.396
17.4500 3.490
17.4803 2.396
17.5106 3.385
17.5409 2.292
17.5712 2.865
17.6014 3.490
17.6317 3.125
17.6620 3.802
17.6923 2.604
17.7225 2.656
17.7528 2.760
17.7831 3.385
17.8134 2.969
17.8437 3.281
17.8739 2.917
17.9042 3.177
17.9345 2.396
17.9648 2.760
17.9951 3.281
18.0253 2.969
18.0556 2.969
18.0859 2.552
18.1162 3.229
18.1464 3.333
18.1767 3.646
18.2070 2.708
18.2373 3.385
18.2676 2.865
18.2978 2.448
18.3281 3.594
18.3584 3.437
18.3887 2.604
18.4190 3.802
18.4492 3.385
18.4795 3.021
18.5098 2.917
18.5401 3.281
18.5703 4.219
18.6006 2.812
18.6309 2.708
18.6612 3.177
18.6915 3.281
18.7217 1.927
18.7520 3.281
18.7823 2.812
18.8126 3.073
18.8429 2.396
18.8731 3.490
18.9034 3.646
18.9337 2.448
18.9640 2.969
18.9942 3.073
19.0245 3.073
19.0548 2.917
19.0851 2.344
19.1154 3.177
19.1456 2.812
19.1759 2.500
19.2062 2.604
19.2365 2.708
19.2668 2.656
19.2970 2.396
19.3273 3.906
19.3576 2.604
19.3879 2.344
19.4181 2.344
19.4484 2.656
19.4787 3.177
19.5090 2.812
19.5393 2.812
19.5695 3.229
19.5998 2.604
19.6301 3.125
19.6604 3.385
19.6907 2.344
19.7209 3.229
19.7512 3.177
19.7815 2.760
19.8118 3.229
19.8420 2.812
19.8723 3.333
19.9026 2.344
19.9329 2.344
19.9632 3.594
19.9934 2.448
20.0237 2.865
20.0540 3.021
20.0843 3.073
20.1146 3.698
20.1448 3.281
20.1751 3.385
20.2054 2.812
20.2357 1.875
20.2659 2.865
20.2962 2.500
20.3265 2.865
20.3568 2.396
20.3871 3.385
20.4173 3.333
20.4476 3.281
20.4779 2.812
20.5082 3.490
20.5385 3.802
20.5687 2.240
20.5990 1.979
20.6293 2.187
20.6596 3.021
20.6899 2.083
20.7201 2.135
20.7504 1.823
20.7807 2.969
20.8110 2.656
20.8412 2.708
20.8715 2.708
20.9018 2.500
20.9321 3.125
20.9624 2.552
20.9926 2.760
21.0229 2.760
21.0532 2.031
21.0835 3.021
21.1138 3.333
21.1440 3.385
21.1743 2.708
21.2046 2.760
21.2349 2.344
21.2651 2.500
21.2954 2.448
21.3257 2.812
21.3560 3.125
21.3863 3.333
21.4165 2.969
21.4468 2.396
21.4771 2.865
21.5074 2.604
21.5377 2.187
21.5679 2.396
21.5982 2.031
21.6285 2.135
21.6588 1.979
21.6890 2.604
21.7193 2.396
21.7496 1.875
21.7799 3.021
21.8102 2.552
21.8404 2.552
21.8707 2.448
21.9010 2.865
21.9313 2.812
21.9616 2.135
21.9918 2.604
22.0221 2.500
22.0524 2.292
22.0827 2.917
22.1129 3.437
22.1432 3.542
22.1735 2.812
22.2038 2.500
22.2341 2.344
22.2643 2.917
22.2946 2.344
22.3249 2.604
22.3552 2.812
22.3855 2.656
22.4157 3.021
22.4460 2.292
22.4763 2.396
22.5066 2.969
22.5368 2.604
22.5671 2.135
22.5974 2.604
22.6277 2.240
22.6580 2.344
22.6882 2.604
22.7185 2.917
22.7488 2.031
22.7791 2.812
22.8094 2.396
22.8396 2.240
22.8699 2.448
22.9002 3.333
22.9305 2.292
22.9607 2.500
22.9910 2.865
23.0213 2.760
23.0516 3.594
23.0819 2.865
23.1121 2.917
23.1424 2.187
23.1727 2.396
23.2030 3.437
23.2333 2.760
23.2635 2.500
23.2938 2.396
23.3241 3.125
23.3544 2.552
23.3846 3.333
23.4149 2.083
23.4452 2.917
23.4755 2.448
23.5058 2.917
23.5360 2.656
23.5663 2.500
23.5966 2.396
23.6269 2.187
23.6572 2.812
23.6874 2.135
23.7177 2.969
23.7480 3.021
23.7783 2.500
23.8086 2.448
23.8388 2.500
23.8691 2.292
23.8994 2.552
23.9297 3.385
23.9599 2.604
23.9902 2.917
24.0205 2.500
24.0508 2.187
24.0811 2.292
24.1113 2.500
24.1416 2.552
24.1719 2.812
24.2022 2.865
24.2325 1.771
24.2627 2.969
24.2930 2.708
24.3233 2.344
24.3536 2.396
24.3838 2.448
24.4141 3.125
24.4444 3.125
24.4747 2.708
24.5050 3.073
24.5352 2.865
24.5655 2.292
24.5958 2.448
24.6261 2.969
24.6564 2.135
24.6866 2.604
24.7169 2.552
24.7472 2.083
24.7775 2.604
24.8077 2.708
24.8380 2.552
24.8683 2.344
24.8986 2.500
24.9289 2.083
24.9591 2.135
24.9894 2.760
25.0197 2.708
25.0500 2.760
25.0803 2.865
25.1105 2.604
25.1408 2.396
25.1711 2.708
25.2014 2.031
25.2316 2.812
25.2619 2.865
25.2922 2.187
25.3225 3.177
25.3528 2.865
25.3830 3.385
25.4133 2.969
25.4436 2.344
25.4739 2.396
25.5042 2.917
25.5344 3.021
25.5647 2.135
25.5950 2.344
25.6253 2.760
25.6555 2.292
25.6858 2.812
25.7161 2.083
25.7464 1.979
25.7767 3.073
25.8069 3.281
25.8372 2.917
25.8675 3.125
25.8978 2.187
25.9281 3.177
25.9583 3.698
25.9886 2.500
26.0189 1.875
26.0492 3.073
26.0794 3.021
26.1097 2.604
26.1400 2.552
26.1703 2.344
26.2006 2.604
26.2308 2.344
26.2611 3.229
26.2914 2.917
26.3217 3.073
26.3520 2.760
26.3822 2.552
26.4125 2.708
26.4428 3.542
26.4731 2.812
26.5034 3.333
26.5336 2.656
26.5639 2.500
26.5942 1.979
26.6245 2.760
26.6547 1.875
26.6850 2.917
26.7153 3.073
26.7456 2.292
26.7759 2.396
26.8061 3.281
26.8364 2.812
26.8667 3.333
26.8970 2.240
26.9273 3.021
26.9575 3.385
26.9878 2.500
27.0181 2.240
27.0484 2.656
27.0786 2.917
27.1089 2.344
27.1392 3.281
27.1695 2.708
27.1998 2.760
27.2300 3.125
27.2603 2.865
27.2906 2.448
27.3209 2.865
27.3512 2.969
27.3814 3.021
27.4117 3.490
27.4420 3.021
27.4723 2.448
27.5025 3.646
27.5328 3.437
27.5631 2.865
27.5934 3.177
27.6237 3.646
27.6539 2.448
27.6842 3.229
27.7145 3.125
27.7448 2.917
27.7751 3.021
27.8053 2.708
27.8356 3.177
27.8659 3.125
27.8962 3.229
27.9264 3.021
27.9567 3.281
27.9870 2.604
28.0173 3.646
28.0476 3.333
28.0778 4.271
28.1081 3.125
28.1384 3.125
28.1687 3.594
28.1990 3.542
28.2292 3.073
28.2595 3.021
28.2898 4.167
28.3201 3.333
28.3503 2.917
28.3806 2.760
28.4109 3.385
28.4412 4.010
28.4715 3.594
28.5017 3.229
28.5320 3.229
28.5623 3.125
28.5926 3.021
28.6229 3.437
28.6531 3.229
28.6834 2.917
28.7137 3.021
28.7440 3.437
28.7742 3.437
28.8045 3.594
28.8348 2.969
28.8651 3.542
28.8954 3.802
28.9256 3.229
28.9559 3.802
28.9862 3.490
29.0165 4.062
29.0468 4.115
29.0770 4.323
29.1073 3.906
29.1376 4.375
29.1679 4.010
29.1981 3.437
29.2284 3.437
29.2587 4.687
29.2890 4.219
29.3193 3.750
29.3495 3.854
29.3798 3.490
29.4101 3.333
29.4404 4.271
29.4707 3.958
29.5009 4.062
29.5312 3.177
29.5615 3.958
29.5918 3.385
29.6221 3.646
29.6523 4.375
29.6826 4.219
29.7129 3.437
29.7432 4.427
29.7734 4.167
29.8037 3.646
29.8340 4.271
29.8643 4.271
29.8946 3.229
29.9248 5.469
29.9551 3.802
29.9854 5.156
30.0157 4.427
30.0460 4.062
30.0762 5.365
30.1065 4.896
30.1368 5.312
30.1671 5.417
30.1973 4.948
30.2276 5.781
30.2579 3.958
30.2882 3.958
30.3185 5.156
30.3487 5.521
30.3790 6.094
30.4093 5.469
30.4396 6.042
30.4699 6.302
30.5001 6.042
30.5304 5.625
30.5607 5.937
30.5910 6.927
30.6212 6.250
30.6515 6.198
30.6818 6.406
30.7121 6.406
30.7424 6.979
30.7726 8.125
30.8029 7.031
30.8332 7.552
30.8635 9.427
30.8938 8.802
30.9240 8.490
30.9543 9.271
30.9846 10.365
31.0149 8.542
31.0451 10.469
31.0754 10.729
31.1057 12.552
31.1360 13.385
31.1663 13.750
31.1965 16.042
31.2268 16.979
31.2571 18.333
31.2874 20.990
31.3177 20.156
31.3479 23.906
31.3782 24.896
31.4085 27.344
31.4388 30.937
31.4690 34.167
31.4993 37.083
31.5296 41.146
31.5599 45.417
31.5902 49.635
31.6204 52.396
31.6507 53.385
31.6810 51.719
31.7113 49.844
31.7416 49.323
31.7718 43.437
31.8021 40.833
31.8324 38.490
31.8627 30.885
31.8929 30.104
31.9232 24.427
31.9535 23.750
31.9838 19.844
32.0141 19.167
32.0443 16.510
32.0746 15.417
32.1049 15.990
32.1352 14.531
32.1655 12.656
32.1957 11.927
32.2260 11.562
32.2563 10.312
32.2866 9.323
32.3169 9.375
32.3471 10.000
32.3774 7.500
32.4077 8.542
32.4380 8.125
32.4682 8.698
32.4985 7.187
32.5288 7.552
32.5591 8.333
32.5894 6.875
32.6196 7.031
32.6499 8.490
32.6802 8.698
32.7105 7.812
32.7408 6.823
32.7710 6.875
32.8013 7.135
32.8316 6.510
32.8619 5.990
32.8921 6.354
32.9224 5.677
32.9527 5.781
32.9830 6.302
33.0133 6.771
33.0435 5.833
33.0738 7.031
33.1041 6.302
33.1344 6.302
33.1647 5.781
33.1949 5.156
33.2252 5.729
33.2555 5.260
33.2858 5.677
33.3160 5.625
33.3463 7.292
33.3766 5.417
33.4069 6.146
33.4372 6.875
33.4674 7.240
33.4977 7.500
33.5280 5.521
33.5583 6.302
33.5886 6.615
33.6188 6.719
33.6491 6.875
33.6794 8.021
33.7097 7.396
33.7399 8.854
33.7702 8.958
33.8005 9.635
33.8308 10.156
33.8611 9.948
33.8913 12.969
33.9216 11.823
33.9519 13.437
33.9822 14.115
34.0125 15.365
34.0427 18.021
34.0730 19.531
34.1033 20.417
34.1336 26.719
34.1638 30.469
34.1941 35.052
34.2244 44.219
34.2547 47.865
34.2850 55.833
34.3152 60.885
34.3455 61.406
34.3758 59.740
34.4061 51.198
34.4364 42.708
34.4666 37.344
34.4969 28.385
34.5272 25.833
34.5575 22.708
34.5877 21.042
34.6180 17.656
34.6483 16.146
34.6786 13.333
34.7089 12.552
34.7391 12.708
34.7694 10.625
34.7997 12.083
34.8300 11.615
34.8603 9.427
34.8905 11.458
34.9208 10.417
34.9511 9.219
34.9814 10.104
35.0116 9.687
35.0419 9.583
35.0722 11.094
35.1025 9.375
35.1328 10.365
35.1630 12.240
35.1933 11.354
35.2236 10.729
35.2539 10.677
35.2842 10.937
35.3144 10.990
35.3447 12.396
35.3750 13.385
35.4053 13.021
35.4356 13.490
35.4658 12.604
35.4961 15.052
35.5264 14.167
35.5567 15.156
35.5869 15.469
35.6172 17.865
35.6475 19.167
35.6778 21.979
35.7081 22.292
35.7383 25.417
35.7686 27.396
35.7989 28.906
35.8292 29.271
35.8595 34.479
35.8897 39.427
35.9200 45.573
35.9503 47.031
35.9806 54.010
36.0108 56.146
36.0411 64.583
36.0714 70.781
36.1017 75.417
36.1320 76.510
36.1622 77.396
36.1925 79.740
36.2228 70.729
36.2531 67.812
36.2834 64.323
36.3136 54.740
36.3439 49.271
36.3742 45.677
36.4045 40.000
36.4347 36.979
36.4650 34.323
36.4953 30.469
36.5256 23.958
36.5559 23.906
36.5861 20.260
36.6164 19.323
36.6467 17.240
36.6770 15.000
36.7073 13.594
36.7375 12.187
36.7678 11.354
36.7981 11.354
36.8284 11.250
36.8586 10.365
36.8889 9.479
36.9192 8.073
36.9495 8.958
36.9798 9.062
37.0100 8.958
37.0403 8.281
37.0706 8.958
37.1009 6.667
37.1312 6.458
37.1614 6.458
37.1917 6.927
37.2220 6.458
37.2523 6.510
37.2825 6.198
37.3128 6.146
37.3431 5.365
37.3734 6.719
37.4037 6.354
37.4339 5.104
37.4642 6.250
37.4945 4.792
37.5248 5.052
37.5551 5.573
37.5853 4.583
37.6156 5.208
37.6459 5.625
37.6762 5.260
37.7064 4.896
37.7367 4.583
37.7670 4.583
37.7973 5.104
37.8276 4.271
37.8578 4.792
37.8881 3.854
37.9184 3.906
37.9487 4.479
37.9790 4.323
38.0092 3.906
38.0395 3.854
38.0698 4.010
38.1001 4.167
38.1304 4.062
38.1606 4.062
38.1909 3.437
38.2212 4.635
38.2515 4.062
38.2817 4.271
38.3120 3.698
38.3423 3.490
38.3726 3.125
38.4029 3.437
38.4331 2.656
38.4634 3.073
38.4937 3.385
38.5240 3.958
38.5543 3.177
38.5845 3.698
38.6148 2.708
38.6451 3.542
38.6754 3.177
38.7056 3.333
38.7359 3.698
38.7662 3.021
38.7965 2.812
38.8268 3.281
38.8570 2.552
38.8873 2.760
38.9176 2.552
38.9479 3.594
38.9782 2.865
39.0084 2.812
39.0387 2.760
39.0690 2.604
39.0993 2.969
39.1295 3.594
39.1598 2.552
39.1901 2.708
39.2204 2.292
39.2507 2.552
39.2809 2.708
39.3112 3.125
39.3415 2.344
39.3718 2.448
39.4021 2.396
39.4323 2.552
39.4626 2.969
39.4929 2.917
39.5232 2.604
39.5534 3.437
39.5837 2.708
39.6140 2.656
39.6443 2.344
39.6746 2.812
39.7048 2.292
39.7351 2.917
39.7654 2.552
39.7957 3.021
39.8260 2.760
39.8562 3.177
39.8865 2.448
39.9168 2.448
39.9471 3.177
39.9773 1.927
40.0076 2.812
40.0379 3.333
40.0682 2.135
40.0985 2.292
40.1287 1.667
40.1590 2.604
40.1893 2.187
40.2196 2.083
40.2499 1.927
40.2801 2.656
40.3104 2.656
40.3407 2.083
40.3710 2.656
40.4012 2.292
40.4315 1.979
40.4618 2.448
40.4921 2.292
40.5224 1.771
40.5526 2.500
40.5829 2.708
40.6132 1.875
40.6435 2.500
40.6738 2.604
40.7040 2.604
40.7343 2.240
40.7646 2.500
40.7949 2.344
40.8251 1.667
40.8554 2.240
40.8857 2.448
40.9160 1.771
40.9463 2.500
40.9765 2.917
41.0068 2.760
41.0371 2.187
41.0674 1.979
41.0977 1.302
41.1279 1.979
41.1582 2.500
41.1885 2.552
41.2188 2.031
41.2491 2.292
41.2793 2.240
41.3096 2.240
41.3399 2.344
41.3702 2.187
41.4004 2.656
41.4307 2.240
41.4610 1.875
41.4913 2.500
41.5216 2.083
41.5518 1.875
41.5821 1.719
41.6124 2.240
41.6427 2.135
41.6730 1.875
41.7032 2.552
41.7335 2.031
41.7638 2.083
41.7941 2.240
41.8243 2.448
41.8546 1.927
41.8849 2.552
41.9152 2.656
41.9455 2.187
41.9757 2.292
42.0060 2.292
42.0363 2.240
42.0666 2.240
42.0969 2.031
42.1271 2.135
42.1574 2.135
42.1877 2.135
42.2180 2.604
42.2482 2.135
42.2785 2.240
42.3088 2.031
42.3391 1.615
42.3694 2.396
42.3996 2.292
42.4299 2.187
42.4602 2.187
42.4905 2.083
42.5208 2.500
42.5510 2.135
42.5813 2.812
42.6116 2.292
42.6419 2.135
42.6721 2.500
42.7024 2.240
42.7327 2.083
42.7630 1.510
42.7933 1.927
42.8235 2.344
42.8538 2.292
42.8841 2.240
42.9144 2.708
42.9447 1.719
42.9749 2.187
43.0052 2.604
43.0355 2.344
43.0658 1.927
43.0960 2.135
43.1263 2.135
43.1566 2.344
43.1869 2.083
43.2172 2.135
43.2474 2.344
43.2777 2.083
43.3080 1.719
43.3383 2.135
43.3686 2.135
43.3988 1.667
43.4291 1.771
43.4594 1.927
43.4897 2.448
43.5199 2.135
43.5502 2.500
43.5805 2.344
43.6108 2.396
43.6411 2.812
43.6713 1.979
43.7016 1.667
43.7319 1.771
43.7622 2.760
43.7925 2.396
43.8227 2.292
43.8530 2.135
43.8833 2.552
43.9136 1.719
43.9439 1.667
43.9741 1.927
44.0044 1.927
44.0347 1.562
44.0650 2.031
44.0952 2.396
44.1255 2.083
44.1558 1.823
44.1861 2.187
44.2164 2.500
44.2466 2.240
44.2769 2.604
44.3072 2.135
44.3375 2.135
44.3678 2.552
44.3980 2.031
44.4283 2.448
44.4586 2.187
44.4889 2.500
44.5191 2.396
44.5494 2.760
44.5797 2.396
44.6100 2.240
44.6403 2.344
44.6705 2.187
44.7008 2.083
44.7311 2.604
44.7614 2.135
44.7917 2.917
44.8219 1.875
44.8522 2.500
44.8825 2.865
44.9128 3.073
44.9430 1.979
44.9733 2.812
45.0036 2.812
45.0339 1.927
45.0642 2.812
45.0944 2.396
45.1247 1.823
45.1550 2.187
45.1853 2.448
45.2156 2.760
45.2458 1.875
45.2761 2.448
45.3064 2.135
45.3367 2.552
45.3669 2.344
45.3972 2.240
45.4275 2.656
45.4578 2.760
45.4881 2.708
45.5183 2.604
45.5486 2.552
45.5789 2.500
45.6092 2.344
45.6395 2.604
45.6697 2.708
45.7000 2.708
45.7303 2.396
45.7606 2.708
45.7908 2.604
45.8211 2.292
45.8514 2.448
45.8817 2.396
45.9120 2.656
45.9422 3.229
45.9725 2.552
46.0028 2.969
46.0331 2.135
46.0634 2.292
46.0936 2.917
46.1239 2.865
46.1542 2.083
46.1845 3.385
46.2147 3.021
46.2450 3.021
46.2753 2.552
46.3056 2.760
46.3359 2.708
46.3661 3.073
46.3964 3.281
46.4267 2.917
46.4570 3.177
46.4873 3.177
46.5175 3.542
46.5478 4.323
46.5781 3.906
46.6084 2.604
46.6386 3.385
46.6689 3.490
46.6992 3.698
46.7295 4.271
46.7598 4.844
46.7900 4.167
46.8203 4.531
46.8506 5.000
46.8809 4.479
46.9112 5.052
46.9414 5.208
46.9717 5.208
47.0020 5.990
47.0323 6.094
47.0626 6.927
47.0928 8.177
47.1231 8.698
47.1534 9.844
47.1837 10.677
47.2139 10.000
47.2442 12.240
47.2745 11.979
47.3048 13.021
47.3351 14.844
47.3653 14.062
47.3956 15.104
47.4259 16.198
47.4562 15.625
47.4865 16.250
47.5167 15.885
47.5470 14.740
47.5773 12.969
47.6076 12.917
47.6378 11.562
47.6681 11.667
47.6984 9.792
47.7287 8.333
47.7590 7.812
47.7892 7.500
47.8195 7.083
47.8498 5.990
47.8801 5.625
47.9104 5.469
47.9406 5.573
47.9709 5.469
48.0012 5.937
48.0315 4.010
48.0617 4.219
48.0920 3.750
48.1223 3.750
48.1526 3.646
48.1829 3.490
48.2131 4.479
48.2434 3.021
48.2737 3.906
48.3040 3.073
48.3343 3.073
48.3645 3.698
48.3948 2.917
48.4251 2.292
48.4554 3.229
48.4856 2.969
48.5159 3.385
48.5462 3.073
48.5765 2.760
48.6068 2.812
48.6370 2.656
48.6673 2.396
48.6976 3.125
48.7279 2.240
48.7582 2.656
48.7884 2.865
48.8187 2.656
48.8490 2.344
48.8793 2.292
48.9095 2.500
48.9398 2.708
48.9701 2.708
49.0004 2.760
49.0307 2.604
49.0609 2.187
49.0912 2.917
49.1215 2.552
49.1518 2.760
49.1821 2.656
49.2123 2.552
49.2426 2.604
49.2729 1.771
49.3032 2.760
49.3334 2.292
49.3637 2.604
49.3940 2.448
49.4243 1.823
49.4546 2.031
49.4848 2.344
49.5151 2.135
49.5454 2.240
49.5757 2.448
49.6060 2.031
49.6362 1.875
49.6665 1.823
49.6968 2.135
49.7271 2.031
49.7574 2.240
49.7876 2.135
49.8179 2.500
49.8482 2.240
49.8785 1.562
49.9087 2.448
49.9390 2.187
49.9693 1.875
49.9996 1.927
50.0299 2.135
50.0601 2.187
50.0904 2.396
50.1207 2.917
50.1510 2.135
50.1813 2.135
50.2115 1.927
50.2418 1.510
50.2721 2.292
50.3024 2.083
50.3326 2.083
50.3629 2.292
50.3932 1.406
50.4235 2.083
50.4538 2.917
50.4840 2.083
50.5143 2.812
50.5446 1.979
50.5749 1.979
50.6052 2.448
50.6354 2.187
50.6657 2.031
50.6960 2.031
50.7263 2.344
50.7565 2.083
50.7868 2.240
50.8171 1.719
50.8474 1.354
50.8777 1.354
50.9079 2.292
50.9382 2.292
50.9685 2.448
50.9988 2.292
51.0291 1.667
51.0593 2.292
51.0896 2.552
51.1199 2.187
51.1502 1.771
51.1804 1.927
51.2107 1.458
51.2410 1.510
51.2713 2.187
51.3016 2.500
51.3318 2.396
51.3621 2.240
51.3924 2.083
51.4227 2.031
51.4530 1.615
51.4832 2.448
51.5135 2.240
51.5438 2.292
51.5741 1.667
51.6043 1.562
51.6346 1.875
51.6649 2.344
51.6952 1.406
51.7255 2.292
51.7557 2.708
51.7860 2.083
51.8163 2.552
51.8466 2.292
51.8769 1.719
51.9071 1.979
51.9374 2.240
51.9677 2.396
51.9980 1.927
52.0282 2.031
52.0585 1.719
52.0888 1.562
52.1191 2.135
52.1494 2.031
52.1796 2.187
52.2099 2.448
52.2402 2.135
52.2705 1.875
52.3008 2.812
52.3310 2.656
52.3613 1.927
52.3916 1.562
52.4219 1.823
52.4521 2.292
52.4824 2.240
52.5127 2.083
52.5430 1.979
52.5733 2.917
52.6035 1.979
52.6338 2.552
52.6641 2.031
52.6944 1.771
52.7247 2.344
52.7549 2.656
52.7852 2.083
52.8155 2.552
52.8458 1.771
52.8761 2.344
52.9063 2.292
52.9366 1.875
52.9669 2.031
52.9972 1.979
53.0274 1.979
53.0577 2.396
53.0880 2.187
53.1183 2.240
53.1486 2.083
53.1788 2.552
53.2091 1.875
53.2394 2.604
53.2697 2.240
53.3000 1.979
53.3302 2.083
53.3605 1.823
53.3908 1.927
53.4211 2.083
53.4513 2.552
53.4816 2.396
53.5119 2.083
53.5422 2.396
53.5725 2.240
53.6027 2.604
53.6330 2.604
53.6633 2.187
53.6936 2.187
53.7239 2.500
53.7541 1.823
53.7844 1.979
53.8147 2.135
53.8450 1.771
53.8752 1.719
53.9055 2.604
53.9358 2.917
53.9661 2.656
53.9964 2.396
54.0266 2.031
54.0569 2.292
54.0872 2.344
54.1175 2.656
54.1478 2.344
54.1780 2.760
54.2083 3.177
54.2386 2.396
54.2689 2.656
54.2991 2.708
54.3294 2.135
54.3597 3.125
54.3900 2.500
54.4203 2.292
54.4505 1.927
54.4808 2.552
54.5111 1.927
54.5414 2.552
54.5717 2.187
54.6019 2.865
54.6322 2.083
54.6625 2.656
54.6928 1.250
54.7230 2.812
54.7533 2.552
54.7836 3.177
54.8139 2.292
54.8442 2.865
54.8744 2.760
54.9047 2.865
54.9350 2.500
54.9653 3.177
54.9956 3.125
55.0258 2.760
55.0561 2.865
55.0864 2.708
55.1167 3.646
55.1469 3.281
55.1772 3.021
55.2075 2.812
55.2378 2.917
55.2681 3.750
55.2983 3.646
55.3286 3.125
55.3589 3.698
55.3892 4.844
55.4195 3.177
55.4497 3.125
55.4800 3.750
55.5103 3.281
55.5406 3.906
55.5709 4.062
55.6011 4.531
55.6314 3.646
55.6617 4.427
55.6920 4.375
55.7222 4.271
55.7525 5.417
55.7828 5.521
55.8131 4.844
55.8434 5.365
55.8736 5.990
55.9039 5.677
55.9342 6.406
55.9645 7.344
55.9948 7.917
56.0250 6.979
56.0553 7.865
56.0856 8.698
56.1159 10.365
56.1461 8.698
56.1764 11.615
56.2067 10.729
56.2370 12.708
56.2673 13.698
56.2975 16.406
56.3278 15.625
56.3581 16.042
56.3884 18.437
56.4187 21.094
56.4489 20.521
56.4792 22.396
56.5095 21.146
56.5398 22.292
56.5700 19.583
56.6003 19.687
56.6306 18.854
56.6609 18.333
56.6912 15.729
56.7214 14.427
56.7517 11.250
56.7820 11.875
56.8123 10.990
56.8426 10.365
56.8728 8.594
56.9031 8.698
56.9334 8.125
56.9637 7.812
56.9939 6.979
57.0242 6.198
57.0545 6.198
57.0848 6.198
57.1151 5.365
57.1453 4.844
57.1756 5.677
57.2059 4.583
57.2362 4.167
57.2665 3.021
57.2967 4.896
57.3270 3.646
57.3573 4.219
57.3876 3.698
57.4178 4.062
57.4481 3.021
57.4784 3.698
57.5087 4.115
57.5390 3.802
57.5692 3.385
57.5995 4.219
57.6298 3.542
57.6601 2.812
57.6904 3.177
57.7206 2.865
57.7509 2.396
57.7812 2.604
57.8115 3.281
57.8417 2.969
57.8720 2.344
57.9023 2.292
57.9326 3.177
57.9629 2.969
57.9931 2.865
58.0234 3.125
58.0537 3.229
58.0840 2.448
58.1143 3.229
58.1445 2.552
58.1748 2.083
58.2051 3.437
58.2354 2.812
58.2656 2.708
58.2959 2.292
58.3262 2.292
58.3565 2.500
58.3868 2.187
58.4170 2.135
58.4473 2.604
58.4776 3.490
58.5079 2.448
58.5382 2.760
58.5684 1.875
58.5987 3.490
58.6290 2.344
58.6593 2.552
58.6896 2.344
58.7198 2.865
58.7501 2.760
58.7804 1.667
58.8107 3.281
58.8409 2.552
58.8712 2.760
58.9015 2.552
58.9318 1.979
58.9621 2.448
58.9923 2.604
59.0226 3.177
59.0529 2.969
59.0832 1.823
59.1135 2.240
59.1437 2.240
59.1740 1.667
59.2043 1.979
59.2346 2.500
59.2648 2.969
59.2951 2.344
59.3254 3.177
59.3557 2.344
59.3860 2.344
59.4162 1.771
59.4465 2.500
59.4768 2.604
59.5071 1.771
59.5374 2.448
59.5676 2.708
59.5979 2.135
59.6282 2.760
59.6585 2.812
59.6887 2.812
59.7190 1.979
59.7493 2.240
59.7796 1.927
59.8099 2.552
59.8401 2.240
59.8704 2.135
59.9007 2.812
59.9310 2.031
59.9613 2.240
59.9915 2.083
60.0218 2.448
60.0521 1.667
60.0824 2.604
60.1126 2.083
60.1429 2.708
60.1732 2.448
60.2035 2.187
60.2338 2.344
60.2640 2.396
60.2943 2.656
60.3246 2.656
60.3549 3.021
60.3852 2.396
60.4154 2.083
60.4457 2.396
60.4760 2.865
60.5063 2.292
60.5365 3.177
60.5668 2.917
60.5971 2.396
60.6274 2.760
60.6577 2.865
60.6879 2.552
60.7182 2.135
60.7485 3.125
60.7788 2.448
60.8091 2.708
60.8393 2.500
60.8696 2.656
60.8999 2.604
60.9302 2.448
60.9604 2.708
60.9907 2.812
61.0210 2.969
61.0513 1.667
61.0816 2.708
61.1118 2.448
61.1421 2.656
61.1724 2.812
61.2027 2.240
61.2330 2.552
61.2632 2.344
61.2935 2.448
61.3238 2.969
61.3541 3.073
61.3844 2.344
61.4146 3.281
61.4449 2.969
61.4752 2.917
61.5055 2.708
61.5357 2.656
61.5660 2.500
61.5963 2.344
61.6266 3.229
61.6569 2.344
61.6871 2.604
61.7174 3.385
61.7477 3.333
61.7780 3.177
61.8083 3.854
61.8385 3.750
61.8688 3.177
61.8991 3.958
61.9294 3.854
61.9596 4.323
61.9899 3.854
62.0202 4.635
62.0505 4.687
62.0808 3.750
62.1110 4.792
62.1413 4.323
62.1716 5.781
62.2019 5.260
62.2322 5.417
62.2624 5.990
62.2927 7.187
62.3230 6.458
62.3533 7.396
62.3835 7.760
62.4138 8.646
62.4441 9.844
62.4744 11.719
62.5047 10.781
62.5349 11.302
62.5652 10.937
62.5955 11.667
62.6258 16.927
62.6561 16.823
62.6863 17.552
62.7166 17.292
62.7469 16.302
62.7772 17.708
62.8074 18.750
62.8377 16.250
62.8680 19.479
62.8983 17.552
62.9286 13.177
62.9588 14.479
62.9891 14.062
63.0194 12.187
63.0497 11.979
63.0800 10.573
63.1102 9.271
63.1405 9.687
63.1708 7.760
63.2011 7.917
63.2313 6.615
63.2616 6.094
63.2919 5.625
63.3222 4.792
63.3525 5.937
63.3827 5.208
63.4130 5.208
63.4433 4.583
63.4736 4.219
63.5039 4.219
63.5341 5.052
63.5644 3.490
63.5947 3.750
63.6250 3.177
63.6552 3.594
63.6855 3.333
63.7158 3.698
63.7461 3.646
63.7764 3.542
63.8066 2.865
63.8369 3.073
63.8672 3.073
63.8975 3.542
63.9278 3.229
63.9580 3.542
63.9883 2.865
64.0186 2.917
64.0489 2.292
64.0791 3.073
64.1094 2.760
64.1397 2.552
64.1700 2.656
64.2003 2.656
64.2305 2.031
64.2608 2.396
64.2911 3.281
64.3214 2.604
64.3517 2.708
64.3819 2.812
64.4122 3.281
64.4425 2.812
64.4728 2.812
64.5031 2.812
64.5333 2.969
64.5636 1.979
64.5939 2.396
64.6242 3.542
64.6544 3.177
64.6847 2.656
64.7150 2.083
64.7453 2.865
64.7756 2.865
64.8058 3.021
64.8361 3.229
64.8664 2.812
64.8967 3.385
64.9270 2.344
64.9572 3.021
64.9875 3.073
65.0178 2.865
65.0481 1.979
65.0783 2.552
65.1086 2.448
65.1389 2.135
65.1692 3.021
65.1995 3.125
65.2297 2.708
65.2600 2.135
65.2903 2.708
65.3206 2.500
65.3509 2.656
65.3811 3.021
65.4114 2.500
65.4417 2.760
65.4720 2.760
65.5022 2.969
65.5325 2.292
65.5628 3.281
65.5931 3.073
65.6234 2.500
65.6536 2.448
65.6839 3.437
65.7142 2.969
65.7445 3.542
65.7748 3.594
65.8050 3.073
65.8353 2.500
65.8656 3.490
65.8959 2.969
65.9261 3.490
65.9564 3.594
65.9867 3.958
66.0170 3.385
66.0473 4.115
66.0775 3.542
66.1078 4.792
66.1381 4.427
66.1684 5.052
66.1987 4.167
66.2289 4.479
66.2592 4.948
66.2895 4.583
66.3198 4.479
66.3500 4.167
66.3803 4.635
66.4106 4.687
66.4409 4.271
66.4712 4.115
66.5014 4.323
66.5317 4.375
66.5620 4.427
66.5923 4.531
66.6226 4.271
66.6528 4.219
66.6831 4.479
66.7134 4.740
66.7437 3.490
66.7739 4.167
66.8042 4.271
66.8345 3.385
66.8648 4.896
66.8951 4.948
66.9253 4.531
66.9556 3.906
66.9859 3.594
67.0162 3.854
67.0465 4.062
67.0767 4.323
67.1070 4.531
67.1373 4.792
67.1676 4.844
67.1978 3.542
67.2281 5.156
67.2584 5.000
67.2887 5.260
67.3190 5.573
67.3492 5.833
67.3795 6.406
67.4098 6.719
67.4401 7.760
67.4704 6.875
67.5006 8.385
67.5309 8.177
67.5612 8.229
67.5915 9.687
67.6218 10.677
67.6520 9.427
67.6823 11.771
67.7126 10.625
67.7429 13.125
67.7731 11.302
67.8034 13.177
67.8337 13.021
67.8640 11.875
67.8943 13.594
67.9245 14.062
67.9548 13.750
67.9851 12.604
68.0154 13.021
68.0457 10.781
68.0759 10.729
68.1062 11.302
68.1365 9.010
68.1668 9.844
68.1970 9.531
68.2273 8.490
68.2576 8.281
68.2879 7.500
68.3182 6.562
68.3484 7.031
68.3787 7.396
68.4090 6.927
68.4393 5.417
68.4696 6.927
68.4998 6.094
68.5301 5.937
68.5604 6.823
68.5907 6.042
68.6209 6.146
68.6512 5.729
68.6815 6.198
68.7118 6.615
68.7421 6.354
68.7723 6.458
68.8026 6.927
68.8329 7.135
68.8632 6.667
68.8935 6.615
68.9237 7.448
68.9540 7.031
68.9843 7.917
69.0146 7.500
69.0448 8.177
69.0751 6.979
69.1054 6.458
69.1357 7.344
69.1660 6.667
69.1962 6.615
69.2265 5.677
69.2568 6.146
69.2871 5.677
69.3174 4.271
69.3476 5.104
69.3779 4.687
69.4082 5.052
69.4385 4.375
69.4687 3.906
69.4990 3.750
69.5293 4.010
69.5596 3.698
69.5899 4.167
69.6201 3.281
69.6504 2.812
69.6807 3.333
69.7110 2.969
69.7413 3.333
69.7715 2.187
69.8018 3.021
69.8321 2.865
69.8624 2.969
69.8926 2.448
69.9229 2.344
69.9532 2.604
69.9835 3.021
70.0138 2.552
70.0440 2.240
70.0743 2.500
70.1046 2.552
70.1349 2.135
70.1652 2.344
70.1954 2.031
70.2257 2.083
70.2560 2.396
70.2863 2.240
70.3166 1.719
70.3468 2.292
70.3771 2.656
70.4074 1.719
70.4377 2.187
70.4679 2.552
70.4982 1.667
70.5285 2.604
70.5588 1.979
70.5891 1.979
70.6193 2.187
70.6496 2.292
70.6799 1.823
70.7102 2.292
70.7405 2.187
70.7707 1.615
70.8010 2.448
70.8313 1.875
70.8616 1.823
70.8918 1.562
70.9221 2.083
70.9524 2.292
70.9827 2.135
71.0130 1.823
71.0432 1.823
71.0735 2.240
71.1038 1.927
71.1341 1.719
71.1644 2.760
71.1946 1.875
71.2249 1.458
71.2552 2.344
71.2855 2.031
71.3157 2.396
71.3460 1.771
71.3763 2.031
71.4066 1.823
71.4369 1.771
71.4671 1.979
71.4974 2.083
71.5277 1.667
71.5580 2.292
71.5883 1.615
71.6185 1.979
71.6488 1.875
71.6791 1.250
71.7094 1.823
71.7396 1.823
71.7699 2.031
71.8002 2.083
71.8305 2.031
71.8608 1.979
71.8910 2.240
71.9213 1.771
71.9516 1.875
71.9819 1.927
72.0122 2.448
72.0424 1.719
72.0727 2.135
72.1030 2.240
72.1333 2.135
72.1635 1.979
72.1938 1.823
72.2241 2.760
72.2544 2.031
72.2847 2.292
72.3149 2.917
72.3452 2.708
72.3755 2.500
72.4058 2.865
72.4361 2.448
72.4663 2.760
72.4966 2.344
72.5269 2.708
72.5572 2.917
72.5874 2.656
72.6177 2.552
72.6480 2.031
72.6783 1.875
72.7086 2.656
72.7388 2.135
72.7691 1.823
72.7994 2.031
72.8297 2.083
72.8600 2.083
72.8902 2.396
72.9205 2.083
72.9508 2.292
72.9811 1.771
73.0113 1.719
73.0416 1.771
73.0719 1.875
73.1022 2.135
73.1325 2.135
73.1627 2.031
73.1930 1.771
73.2233 1.458
73.2536 1.615
73.2839 1.250
73.3141 1.510
73.3444 2.083
73.3747 2.240
73.4050 1.823
73.4353 1.198
73.4655 1.615
73.4958 2.240
73.5261 1.823
73.5564 2.083
73.5866 1.719
73.6169 1.510
73.6472 1.562
73.6775 2.448
73.7078 1.562
73.7380 1.875
73.7683 1.927
73.7986 1.406
73.8289 1.823
73.8592 2.187
73.8894 1.562
73.9197 1.198
73.9500 1.927
73.9803 1.719
74.0105 0.990
74.0408 1.354
74.0711 1.562
74.1014 1.146
74.1317 1.562
74.1619 1.458
74.1922 1.979
74.2225 1.719
74.2528 1.146
74.2831 1.406
74.3133 1.562
74.3436 1.927
74.3739 1.875
74.4042 1.667
74.4344 2.187
74.4647 1.562
74.4950 1.562
74.5253 1.562
74.5556 1.615
74.5858 1.354
74.6161 1.667
74.6464 1.875
74.6767 1.094
74.7070 1.771
74.7372 1.771
74.7675 1.406
74.7978 1.719
74.8281 1.667
74.8583 1.771
74.8886 1.667
74.9189 1.250
74.9492 1.667
74.9795 1.094
75.0097 1.719
75.0400 2.031
75.0703 1.510
75.1006 1.458
75.1309 1.458
75.1611 1.615
75.1914 2.031
75.2217 1.615
75.2520 1.823
75.2822 1.927
75.3125 1.667
75.3428 1.198
75.3731 1.667
75.4034 1.771
75.4336 1.510
75.4639 1.458
75.4942 1.302
75.5245 1.823
75.5548 1.510
75.5850 1.719
75.6153 1.927
75.6456 1.667
75.6759 1.146
75.7061 1.615
75.7364 1.615
75.7667 1.719
75.7970 1.875
75.8273 2.083
75.8575 1.562
75.8878 0.885
75.9181 1.667
75.9484 1.406
75.9787 1.615
76.0089 2.083
76.0392 1.719
76.0695 1.771
76.0998 1.667
76.1301 1.927
76.1603 1.771
76.1906 1.719
76.2209 1.198
76.2512 1.562
76.2814 1.771
76.3117 1.979
76.3420 2.083
76.3723 1.719
76.4026 1.875
76.4328 2.240
76.4631 2.240
76.4934 2.917
76.5237 2.344
76.5540 2.656
76.5842 2.917
76.6145 2.812
76.6448 2.344
76.6751 2.344
76.7053 2.448
76.7356 2.760
76.7659 2.500
76.7962 3.229
76.8265 2.604
76.8567 2.187
76.8870 2.656
76.9173 2.500
76.9476 2.344
76.9779 2.656
77.0081 1.823
77.0384 2.292
77.0687 2.396
77.0990 2.812
77.1292 2.656
77.1595 1.875
77.1898 1.667
77.2201 2.344
77.2504 2.552
77.2806 2.292
77.3109 1.823
77.3412 2.240
77.3715 1.667
77.4018 2.083
77.4320 1.719
77.4623 1.667
77.4926 1.875
77.5229 1.406
77.5531 2.031
77.5834 1.719
77.6137 2.135
77.6440 1.927
77.6743 1.042
77.7045 1.615
77.7348 1.094
77.7651 1.719
77.7954 2.083
77.8257 2.292
77.8559 1.927
77.8862 1.354
77.9165 1.927
77.9468 1.510
77.9770 1.667
78.0073 1.771
78.0376 1.615
78.0679 1.250
78.0982 1.354
78.1284 1.354
78.1587 1.823
78.1890 2.083
78.2193 1.927
78.2496 1.198
78.2798 1.875
78.3101 1.875
78.3404 1.302
78.3707 1.771
78.4009 1.667
78.4312 1.354
78.4615 1.771
78.4918 1.510
78.5221 1.562
78.5523 1.615
78.5826 1.458
78.6129 1.250
78.6432 1.667
78.6735 1.250
78.7037 1.354
78.7340 1.510
78.7643 1.198
78.7946 1.458
78.8248 1.771
78.8551 1.823
78.8854 1.927
78.9157 1.302
78.9460 1.615
78.9762 1.250
79.0065 1.667
79.0368 1.458
79.0671 1.667
79.0974 1.406
79.1276 1.198
79.1579 1.406
79.1882 1.458
79.2185 1.615
79.2488 1.615
79.2790 1.979
79.3093 1.927
79.3396 1.458
79.3699 1.823
79.4001 1.198
79.4304 1.510
79.4607 1.458
79.4910 1.042
79.5213 1.458
79.5515 1.875
79.5818 1.146
79.6121 1.615
79.6424 1.771
79.6727 1.510
79.7029 1.302
79.7332 1.615
79.7635 0.781
79.7938 1.771
79.8240 1.562
79.8543 1.875
79.8846 2.344
79.9149 1.667
79.9452 1.667
79.9754 1.302
80.0057 1.875
80.0360 1.667
80.0663 1.615
80.0966 1.667
80.1268 2.031
80.1571 1.198
80.1874 1.250
80.2177 1.719
80.2479 1.562
80.2782 1.771
80.3085 1.719
80.3388 1.615
80.3691 1.719
80.3993 1.771
80.4296 1.562
80.4599 1.615
80.4902 1.979
80.5205 2.135
80.5507 1.250
80.5810 1.875
80.6113 2.135
80.6416 2.083
80.6718 2.187
80.7021 1.302
80.7324 1.354
80.7627 2.135
80.7930 1.615
80.8232 1.562
80.8535 1.875
80.8838 1.719
80.9141 1.667
80.9444 2.292
80.9746 1.667
81.0049 1.667
81.0352 2.292
81.0655 1.667
81.0957 1.771
81.1260 2.396
81.1563 1.875
81.1866 1.927
81.2169 1.979
81.2471 2.448
81.2774 2.187
81.3077 2.292
81.3380 2.135
81.3683 2.187
81.3985 2.917
81.4288 2.187
81.4591 2.448
81.4894 1.927
81.5196 1.979
81.5499 2.187
81.5802 2.083
81.6105 1.875
81.6408 2.083
81.6710 1.458
81.7013 2.604
81.7316 2.135
81.7619 1.823
81.7922 1.719
81.8224 1.510
81.8527 2.135
81.8830 1.875
81.9133 1.615
81.9436 1.667
81.9738 2.604
82.0041 1.562
82.0344 1.875
82.0647 1.406
82.0949 1.823
82.1252 1.458
82.1555 1.875
82.1858 1.927
82.2161 1.042
82.2463 1.458
82.2766 1.667
82.3069 1.198
82.3372 1.615
82.3675 0.885
82.3977 1.406
82.4280 1.823
82.4583 1.198
82.4886 1.146
82.5188 1.406
82.5491 1.667
82.5794 1.146
82.6097 1.615
82.6400 1.979
82.6702 0.937
82.7005 1.354
82.7308 1.458
82.7611 1.146
82.7914 1.458
82.8216 1.510
82.8519 1.354
82.8822 1.094
82.9125 1.562
82.9427 1.094
82.9730 1.562
83.0033 1.198
83.0336 1.719
83.0639 1.250
83.0941 1.146
83.1244 1.615
83.1547 1.198
83.1850 1.771
83.2153 1.667
83.2455 1.979
83.2758 1.250
83.3061 1.667
83.3364 1.302
83.3666 1.302
83.3969 1.719
83.4272 1.302
83.4575 1.875
83.4878 1.250
83.5180 1.510
83.5483 1.094
83.5786 1.667
83.6089 1.562
83.6392 1.719
83.6694 1.250
83.6997 1.927
83.7300 1.458
83.7603 1.771
83.7905 1.094
83.8208 1.406
83.8511 0.833
83.8814 1.510
83.9117 1.615
83.9419 1.510
83.9722 1.094
84.0025 1.354
84.0328 1.198
84.0631 1.198
84.0933 1.302
84.1236 1.510
84.1539 1.667
84.1842 1.302
84.2144 1.302
84.2447 1.250
84.2750 1.094
84.3053 1.198
84.3356 1.094
84.3658 1.823
84.3961 1.458
84.4264 1.250
84.4567 0.729
84.4870 2.083
84.5172 1.667
84.5475 1.667
84.5778 1.250
84.6081 1.250
84.6383 1.719
84.6686 1.302
84.6989 1.667
84.7292 1.042
84.7595 1.042
84.7897 1.406
84.8200 1.406
84.8503 1.667
84.8806 1.250
84.9109 1.615
84.9411 1.406
84.9714 1.667
85.0017 1.875
85.0320 1.562
85.0623 1.667
85.0925 1.250
85.1228 1.458
85.1531 1.562
85.1834 1.406
85.2136 1.615
85.2439 1.562
85.2742 1.198
85.3045 1.510
85.3348 1.823
85.3650 1.719
85.3953 1.042
85.4256 1.875
85.4559 1.198
85.4862 1.302
85.5164 0.990
85.5467 1.615
85.5770 1.615
85.6073 1.562
85.6375 1.146
85.6678 1.667
85.6981 1.667
85.7284 1.667
85.7587 1.667
85.7889 1.562
85.8192 1.354
85.8495 1.198
85.8798 1.250
85.9101 1.510
85.9403 0.937
85.9706 1.302
86.0009 1.302
86.0312 1.979
86.0614 1.094
86.0917 1.042
86.1220 1.510
86.1523 0.885
86.1826 1.510
86.2128 1.719
86.2431 1.198
86.2734 1.719
86.3037 1.667
86.3340 1.667
86.3642 1.302
86.3945 1.354
86.4248 1.458
86.4551 0.885
86.4853 1.302
86.5156 1.250
86.5459 1.354
86.5762 1.406
86.6065 1.667
86.6367 1.250
86.6670 1.458
86.6973 1.042
86.7276 1.198
86.7579 1.719
86.7881 1.510
86.8184 1.667
86.8487 1.354
86.8790 1.615
86.9092 1.458
86.9395 1.094
86.9698 1.406
87.0001 1.406
87.0304 1.302
87.0606 1.198
87.0909 1.667
87.1212 1.458
87.1515 1.458
87.1818 1.615
87.2120 1.302
87.2423 1.927
87.2726 1.667
87.3029 1.719
87.3331 1.562
87.3634 1.302
87.3937 1.198
87.4240 2.031
87.4543 1.510
87.4845 1.250
87.5148 1.406
87.5451 1.927
87.5754 1.458
87.6057 1.771
87.6359 1.615
87.6662 1.927
87.6965 1.667
87.7268 1.771
87.7571 1.927
87.7873 1.771
87.8176 1.771
87.8479 1.719
87.8782 1.562
87.9084 1.250
87.9387 1.615
87.9690 1.458
87.9993 1.406
88.0296 1.354
88.0598 2.135
88.0901 2.396
88.1204 1.406
88.1507 1.823
88.1810 1.719
88.2112 1.667
88.2415 2.135
88.2718 1.250
88.3021 2.083
88.3323 1.406
88.3626 1.823
88.3929 1.562
88.4232 1.823
88.4535 1.979
88.4837 2.240
88.5140 2.552
88.5443 1.719
88.5746 1.979
88.6049 2.292
88.6351 1.562
88.6654 1.875
88.6957 2.448
88.7260 1.667
88.7562 2.552
88.7865 1.667
88.8168 1.667
88.8471 2.552
88.8774 2.656
88.9076 2.135
88.9379 2.292
88.9682 2.760
88.9985 2.604
89.0288 2.708
89.0590 2.396
89.0893 3.021
89.1196 3.125
89.1499 3.125
89.1801 3.177
89.2104 3.490
89.2407 3.229
89.2710 3.958
89.3013 2.969
89.3315 3.750
89.3618 3.698
89.3921 2.812
89.4224 3.958
89.4527 4.479
89.4829 3.542
89.5132 4.010
89.5435 4.323
89.5738 4.062
89.6040 4.062
89.6343 4.219
89.6646 3.646
89.6949 4.219
89.7252 3.698
89.7554 4.219
89.7857 3.021
89.8160 4.323
89.8463 3.698
89.8766 3.229
89.9068 2.917
89.9371 2.969
89.9674 3.490
89.9977 2.708
90.0279 2.812
90.0582 3.021
90.0885 1.979
90.1188 2.969
90.1491 2.135
90.1793 2.135
90.2096 1.771
90.2399 1.667
90.2702 2.135
90.3005 3.021
90.3307 2.240
90.3610 2.135
90.3913 1.875
90.4216 1.875
90.4518 2.396
90.4821 1.979
90.5124 1.979
90.5427 1.771
90.5730 2.240
90.6032 2.135
90.6335 2.187
90.6638 2.135
90.6941 2.292
90.7244 1.927
90.7546 2.135
90.7849 1.510
90.8152 1.562
90.8455 1.354
90.8758 1.406
90.9060 1.979
90.9363 1.667
90.9666 2.135
90.9969 2.135
91.0271 1.667
91.0574 2.135
91.0877 1.979
91.1180 1.354
91.1483 1.771
91.1785 1.979
91.2088 1.667
91.2391 1.979
91.2694 1.250
91.2997 1.510
91.3299 2.240
91.3602 1.615
91.3905 1.458
91.4208 1.771
91.4510 1.667
91.4813 1.198
91.5116 1.406
91.5419 1.354
91.5722 1.562
91.6024 1.510
91.6327 1.771
91.6630 2.031
91.6933 1.927
91.7236 2.187
91.7538 2.187
91.7841 1.823
91.8144 2.083
91.8447 2.292
91.8749 2.187
91.9052 2.083
91.9355 1.510
91.9658 1.667
91.9961 1.823
92.0263 1.667
92.0566 1.823
92.0869 1.979
92.1172 1.615
92.1475 1.875
92.1777 2.396
92.2080 2.396
92.2383 2.083
92.2686 2.135
92.2988 1.406
92.3291 2.187
92.3594 1.823
92.3897 1.406
92.4200 1.667
92.4502 1.823
92.4805 2.500
92.5108 2.292
92.5411 1.823
92.5714 2.396
92.6016 2.240
92.6319 2.552
92.6622 1.823
92.6925 1.562
92.7227 1.875
92.7530 2.969
92.7833 2.812
92.8136 1.615
92.8439 2.083
92.8741 2.604
92.9044 2.969
92.9347 2.187
92.9650 2.604
92.9953 2.344
93.0255 2.344
93.0558 2.396
93.0861 2.500
93.1164 2.969
93.1466 2.240
93.1769 2.240
93.2072 2.240
93.2375 1.979
93.2678 2.187
93.2980 1.719
93.3283 1.927
93.3586 1.927
93.3889 2.240
93.4192 1.667
93.4494 1.667
93.4797 1.823
93.5100 1.615
93.5403 1.719
93.5706 1.615
93.6008 2.031
93.6311 2.292
93.6614 2.135
93.6917 2.344
93.7219 1.719
93.7522 2.187
93.7825 1.406
93.8128 1.979
93.8431 1.562
93.8733 1.250
93.9036 1.562
93.9339 1.667
93.9642 2.708
93.9945 1.927
94.0247 2.344
94.0550 1.771
94.0853 1.667
94.1156 1.979
94.1458 1.615
94.1761 1.667
94.2064 1.823
94.2367 2.292
94.2670 1.875
94.2972 1.875
94.3275 2.396
94.3578 1.927
94.3881 2.187
94.4184 2.708
94.4486 1.875
94.4789 2.656
94.5092 2.083
94.5395 2.448
94.5697 2.396
94.6000 2.448
94.6303 2.656
94.6606 2.135
94.6909 2.812
94.7211 2.917
94.7514 2.604
94.7817 3.125
94.8120 2.812
94.8423 3.229
94.8725 3.594
94.9028 3.698
94.9331 2.708
94.9634 3.281
94.9936 3.437
95.0239 3.698
95.0542 3.021
95.0845 3.698
95.1148 3.229
95.1450 3.646
95.1753 4.427
95.2056 3.594
95.2359 3.802
95.2662 3.490
95.2964 3.646
95.3267 4.167
95.3570 3.698
95.3873 3.646
95.4175 4.219
95.4478 4.010
95.4781 3.854
95.5084 3.698
95.5387 3.281
95.5689 3.021
95.5992 3.802
95.6295 2.917
95.6598 3.281
95.6901 3.646
95.7203 3.177
95.7506 2.083
95.7809 2.344
95.8112 2.656
95.8414 2.812
95.8717 2.552
95.9020 2.917
95.9323 1.719
95.9626 2.292
95.9928 2.240
96.0231 2.604
96.0534 1.667
96.0837 2.656
96.1140 2.083
96.1442 2.865
96.1745 2.448
96.2048 2.500
96.2351 1.979
96.2653 2.083
96.2956 2.240
96.3259 1.667
96.3562 2.187
96.3865 1.875
96.4167 2.500
96.4470 1.406
96.4773 1.719
96.5076 1.771
96.5379 2.187
96.5681 1.979
96.5984 1.719
96.6287 1.406
96.6590 1.875
96.6893 1.615
96.7195 2.031
96.7498 1.615
96.7801 2.031
96.8104 2.187
96.8406 0.885
96.8709 1.302
96.9012 1.771
96.9315 1.354
96.9618 1.719
96.9920 1.771
97.0223 1.302
97.0526 1.823
97.0829 2.448
97.1132 1.458
97.1434 2.187
97.1737 1.458
97.2040 1.250
97.2343 1.250
97.2645 1.510
97.2948 1.198
97.3251 2.135
97.3554 2.135
97.3857 2.083
97.4159 1.719
97.4462 2.396
97.4765 2.292
97.5068 2.135
97.5371 1.198
97.5673 1.094
97.5976 1.823
97.6279 1.719
97.6582 1.406
97.6884 1.927
97.7187 2.083
97.7490 2.083
97.7793 1.771
97.8096 2.292
97.8398 1.667
97.8701 2.135
97.9004 1.979
97.9307 2.292
97.9610 1.667
97.9912 1.615
98.0215 2.604
98.0518 2.917
98.0821 2.344
98.1123 1.667
98.1426 1.927
98.1729 2.500
98.2032 1.875
98.2335 2.448
98.2637 2.812
98.2940 2.396
98.3243 2.344
98.3546 2.448
98.3849 2.812
98.4151 3.021
98.4454 3.385
98.4757 2.396
98.5060 2.448
98.5362 3.177
98.5665 2.656
98.5968 2.812
98.6271 2.083
98.6574 2.917
98.6876 2.865
98.7179 2.552
98.7482 2.292
98.7785 2.500
98.8088 2.812
98.8390 2.240
98.8693 1.979
98.8996 2.292
98.9299 2.292
98.9601 2.396
98.9904 2.292
99.0207 1.823
99.0510 2.135
99.0813 2.292
99.1115 2.031
99.1418 1.510
99.1721 2.292
99.2024 1.771
99.2327 2.240
99.2629 1.823
99.2932 1.979
99.3235 2.344
99.3538 1.406
99.3841 1.979
99.4143 1.771
99.4446 2.187
99.4749 2.031
99.5052 1.979
99.5354 1.146
99.5657 1.875
99.5960 1.823
99.6263 1.562
99.6566 1.927
99.6868 1.823
99.7171 1.771
99.7474 1.667
99.7777 1.615
99.8080 1.458
99.8382 1.562
99.8685 1.823
99.8988 1.562
99.9291 1.615
99.9593 2.031
99.9896 1.875
100.0199 1.771
100.0502 1.302
100.0805 1.302
100.1107 1.667
100.1410 1.719
100.1713 1.823
100.2016 1.823
100.2319 1.510
100.2621 1.719
100.2924 1.823
100.3227 1.458
100.3530 1.927
100.3832 1.615
100.4135 1.510
100.4438 1.146
100.4741 1.250
100.5044 1.719
100.5346 1.458
100.5649 1.198
100.5952 1.406
100.6255 2.187
100.6558 1.250
100.6860 1.771
100.7163 1.146
100.7466 1.250
100.7769 1.667
100.8071 1.510
100.8374 1.927
100.8677 1.719
100.8980 2.031
100.9283 2.344
100.9585 1.406
100.9888 1.406
101.0191 1.510
101.0494 1.667
101.0797 1.510
101.1099 1.562
101.1402 1.823
101.1705 1.719
101.2008 1.146
101.2310 1.354
101.2613 1.667
101.2916 1.927
101.3219 2.135
101.3522 2.083
101.3824 1.510
101.4127 1.667
101.4430 1.771
101.4733 1.927
101.5036 2.135
101.5338 1.927
101.5641 1.562
101.5944 1.927
101.6247 1.875
101.6549 1.875
101.6852 1.250
101.7155 1.458
101.7458 1.458
101.7761 1.250
101.8063 1.771
101.8366 1.302
101.8669 1.406
101.8972 1.875
101.9275 1.875
101.9577 1.458
101.9880 1.719
102.0183 2.083
102.0486 2.344
102.0788 1.562
102.1091 1.979
102.1394 1.823
102.1697 1.875
102.2000 1.875
102.2302 1.927
102.2605 1.979
102.2908 2.187
102.3211 2.344
102.3514 2.083
102.3816 2.135
102.4119 1.719
102.4422 2.448
102.4725 2.604
102.5028 2.396
102.5330 1.927
102.5633 1.927
102.5936 2.292
102.6239 1.875
102.6541 2.240
102.6844 2.969
102.7147 2.448
102.7450 2.656
102.7753 3.125
102.8055 2.552
102.8358 2.396
102.8661 2.552
102.8964 2.656
102.9267 2.812
102.9569 2.500
102.9872 2.604
103.0175 2.396
103.0478 2.656
103.0780 2.708
103.1083 2.500
103.1386 2.865
103.1689 2.031
103.1992 1.458
103.2294 3.177
103.2597 2.292
103.2900 2.812
103.3203 2.448
103.3506 2.448
103.3808 2.240
103.4111 3.385
103.4414 2.396
103.4717 2.396
103.5019 1.979
103.5322 3.073
103.5625 2.552
103.5928 2.708
103.6231 3.021
103.6533 2.604
103.6836 2.396
103.7139 2.552
103.7442 3.177
103.7745 2.812
103.8047 2.969
103.8350 2.448
103.8653 3.021
103.8956 3.229
103.9258 3.646
103.9561 3.281
103.9864 3.021
104.0167 3.281
104.0470 2.344
104.0772 3.073
104.1075 3.594
104.1378 3.437
104.1681 3.021
104.1984 3.490
104.2286 2.292
104.2589 2.552
104.2892 2.917
104.3195 3.802
104.3497 2.448
104.3800 2.760
104.4103 3.021
104.4406 2.969
104.4709 2.812
104.5011 2.760
104.5314 2.969
104.5617 2.552
104.5920 2.500
104.6223 2.708
104.6525 2.344
104.6828 2.135
104.7131 2.552
104.7434 2.083
104.7736 1.615
104.8039 2.083
104.8342 1.719
104.8645 1.823
104.8948 1.771
104.9250 1.615
104.9553 2.344
104.9856 2.135
105.0159 2.240
105.0462 1.823
105.0764 2.135
105.1067 1.719
105.1370 1.458
105.1673 1.510
105.1975 1.302
105.2278 1.406
105.2581 1.823
105.2884 1.406
105.3187 1.979
105.3489 2.031
105.3792 1.771
105.4095 1.823
105.4398 1.615
105.4701 1.667
105.5003 1.562
105.5306 2.552
105.5609 1.667
105.5912 2.500
105.6215 1.562
105.6517 2.396
105.6820 2.396
105.7123 1.302
105.7426 1.719
105.7728 1.406
105.8031 1.198
105.8334 1.458
105.8637 1.458
105.8940 1.667
105.9242 1.719
105.9545 1.771
105.9848 1.667
106.0151 1.510
106.0454 1.615
106.0756 1.875
106.1059 1.406
106.1362 1.927
106.1665 1.458
106.1967 1.979
106.2270 1.615
106.2573 2.031
106.2876 1.823
106.3179 1.771
106.3481 1.771
106.3784 1.406
106.4087 1.719
106.4390 1.771
106.4693 1.562
106.4995 1.458
106.5298 1.458
106.5601 1.406
106.5904 2.031
106.6206 1.458
106.6509 1.510
106.6812 1.458
106.7115 1.823
106.7418 1.979
106.7720 2.083
106.8023 1.250
106.8326 1.771
106.8629 2.031
106.8932 1.771
106.9234 1.198
106.9537 1.458
106.9840 1.823
107.0143 1.198
107.0445 1.354
107.0748 1.510
107.1051 1.771
107.1354 1.719
107.1657 1.510
107.1959 2.135
107.2262 1.562
107.2565 2.135
107.2868 1.823
107.3171 1.198
107.3473 1.927
107.3776 1.615
107.4079 1.406
107.4382 1.458
107.4684 1.094
107.4987 2.031
107.5290 2.396
107.5593 1.875
107.5896 1.823
107.6198 1.615
107.6501 1.406
107.6804 1.146
107.7107 1.406
107.7410 1.771
107.7712 1.667
107.8015 1.979
107.8318 1.615
107.8621 1.198
107.8923 1.198
107.9226 1.719
107.9529 1.510
107.9832 1.823
108.0135 1.354
108.0437 1.510
108.0740 1.250
108.1043 1.510
108.1346 1.875
108.1649 1.667
108.1951 1.771
108.2254 1.406
108.2557 1.354
108.2860 1.510
108.3163 1.510
108.3465 1.823
108.3768 1.510
108.4071 1.198
108.4374 1.771
108.4676 1.823
108.4979 1.406
108.5282 1.510
108.5585 2.396
108.5888 1.406
108.6190 1.458
108.6493 2.083
108.6796 1.510
108.7099 1.927
108.7402 1.667
108.7704 1.771
108.8007 1.510
108.8310 1.458
108.8613 1.562
108.8915 1.354
108.9218 1.458
108.9521 1.615
108.9824 2.031
109.0127 1.406
109.0429 1.875
109.0732 1.667
109.1035 1.615
109.1338 1.562
109.1641 2.083
109.1943 1.146
109.2246 2.135
109.2549 1.771
109.2852 1.510
109.3154 1.979
109.3457 1.875
109.3760 1.667
109.4063 1.875
109.4366 1.823
109.4668 2.396
109.4971 1.562
109.5274 1.562
109.5577 1.771
109.5880 2.135
109.6182 2.187
109.6485 2.187
109.6788 1.875
109.7091 1.823
109.7393 1.979
109.7696 1.615
109.7999 1.719
109.8302 2.187
109.8605 2.656
109.8907 1.562
109.9210 2.083
109.9513 2.135
109.9816 2.135
110.0119 2.240
110.0421 1.927
110.0724 1.562
110.1027 2.396
110.1330 2.135
110.1632 3.281
110.1935 3.021
110.2238 2.240
110.2541 2.187
110.2844 2.240
110.3146 2.552
110.3449 2.865
110.3752 2.240
110.4055 2.031
110.4358 2.292
110.4660 2.604
110.4963 2.500
110.5266 2.031
110.5569 2.448
110.5871 3.229
110.6174 2.135
110.6477 2.396
110.6780 2.135
110.7083 1.875
110.7385 2.292
110.7688 1.927
110.7991 2.031
110.8294 1.875
110.8597 1.562
110.8899 2.396
110.9202 2.135
110.9505 1.823
110.9808 2.448
111.0110 1.615
111.0413 2.865
111.0716 1.771
111.1019 2.292
111.1322 1.823
111.1624 2.344
111.1927 1.458
111.2230 2.135
111.2533 2.240
111.2836 2.135
111.3138 1.875
111.3441 2.135
111.3744 1.771
111.4047 1.354
111.4350 2.083
111.4652 1.615
111.4955 1.927
111.5258 1.458
111.5561 1.875
111.5863 1.198
111.6166 1.250
111.6469 1.615
111.6772 2.083
111.7075 1.198
111.7377 1.302
111.7680 1.510
111.7983 1.875
111.8286 1.615
111.8589 1.667
111.8891 1.615
111.9194 1.667
111.9497 1.927
111.9800 1.198
112.0102 1.927
112.0405 2.031
112.0708 1.823
112.1011 1.823
112.1314 1.667
112.1616 1.146
112.1919 1.510
112.2222 1.719
112.2525 1.667
112.2828 1.615
112.3130 0.990
112.3433 1.458
112.3736 1.510
112.4039 2.187
112.4341 2.135
112.4644 1.615
112.4947 1.667
112.5250 1.042
112.5553 1.354
112.5855 1.771
112.6158 1.719
112.6461 1.875
112.6764 1.719
112.7067 1.354
112.7369 1.615
112.7672 1.406
112.7975 1.719
112.8278 0.729
112.8580 1.302
112.8883 1.510
112.9186 1.771
112.9489 2.083
112.9792 2.240
113.0094 1.562
113.0397 1.771
113.0700 1.042
113.1003 1.354
113.1306 1.406
113.1608 1.719
113.1911 1.510
113.2214 1.198
113.2517 1.667
113.2819 1.458
113.3122 1.719
113.3425 1.510
113.3728 1.615
113.4031 1.562
113.4333 1.667
113.4636 1.406
113.4939 1.875
113.5242 1.510
113.5545 1.510
113.5847 1.771
113.6150 1.146
113.6453 1.510
113.6756 1.719
113.7058 1.354
113.7361 1.771
113.7664 1.042
113.7967 1.406
113.8270 1.667
113.8572 1.250
113.8875 2.240
113.9178 2.031
113.9481 1.406
113.9784 1.458
114.0086 1.406
114.0389 1.354
114.0692 1.771
114.0995 2.240
114.1298 1.510
114.1600 1.146
114.1903 1.198
114.2206 1.458
114.2509 1.615
114.2811 1.406
114.3114 1.615
114.3417 1.510
114.3720 1.667
114.4023 1.875
114.4325 1.823
114.4628 1.458
114.4931 1.354
114.5234 1.719
114.5537 1.927
114.5839 1.667
114.6142 1.927
114.6445 1.667
114.6748 1.823
114.7050 1.719
114.7353 2.135
114.7656 1.458
114.7959 1.875
114.8262 1.823
114.8564 1.667
114.8867 1.823
114.9170 2.292
114.9473 2.500
114.9776 2.240
115.0078 1.615
115.0381 2.292
115.0684 1.510
115.0987 1.771
115.1289 1.771
115.1592 1.979
115.1895 1.875
115.2198 1.875
115.2501 1.979
115.2803 1.979
115.3106 2.656
115.3409 2.969
115.3712 2.187
115.4015 2.031
115.4317 1.667
115.4620 2.292
115.4923 3.073
115.5226 2.187
115.5528 2.448
115.5831 2.865
115.6134 2.396
115.6437 2.917
115.6740 2.708
115.7042 3.281
115.7345 3.073
115.7648 2.760
115.7951 3.073
115.8254 2.656
115.8556 3.333
115.8859 3.281
115.9162 2.865
115.9465 2.865
115.9767 2.865
116.0070 2.969
116.0373 3.021
116.0676 3.281
116.0979 3.906
116.1281 4.479
116.1584 3.490
116.1887 3.542
116.2190 3.958
116.2493 4.323
116.2795 3.229
116.3098 3.750
116.3401 3.750
116.3704 3.333
116.4006 3.073
116.4309 3.854
116.4612 2.812
116.4915 2.552
116.5218 3.594
116.5520 3.490
116.5823 3.802
116.6126 2.760
116.6429 3.542
116.6732 2.708
116.7034 2.500
116.7337 2.812
116.7640 2.500
116.7943 2.917
116.8245 3.177
116.8548 2.656
116.8851 2.240
116.9154 2.708
116.9457 2.917
116.9759 2.708
117.0062 2.604
117.0365 2.187
117.0668 2.396
117.0971 2.656
117.1273 2.708
117.1576 2.187
117.1879 2.240
117.2182 2.187
117.2485 2.656
117.2787 1.615
117.3090 2.240
117.3393 2.187
117.3696 2.031
117.3998 2.552
117.4301 2.500
117.4604 2.083
117.4907 1.875
117.5210 2.240
117.5512 2.031
117.5815 2.240
117.6118 1.927
117.6421 2.031
117.6724 2.500
117.7026 2.708
117.7329 2.396
117.7632 1.667
117.7935 1.875
117.8237 1.875
117.8540 1.927
117.8843 1.302
117.9146 2.083
117.9449 1.771
117.9751 2.135
118.0054 1.875
118.0357 1.719
118.0660 1.406
118.0963 1.771
118.1265 1.979
118.1568 1.771
118.1871 1.615
118.2174 1.823
118.2476 2.083
118.2779 1.615
118.3082 1.667
118.3385 1.927
118.3688 2.135
118.3990 1.250
118.4293 1.667
118.4596 1.823
118.4899 1.302
118.5202 1.823
118.5504 1.615
118.5807 1.458
118.6110 1.250
118.6413 2.396
118.6715 1.406
118.7018 1.667
118.7321 1.458
118.7624 1.510
118.7927 1.719
118.8229 1.771
118.8532 2.187
118.8835 1.823
118.9138 2.083
118.9441 1.510
118.9743 1.823
119.0046 2.135
119.0349 1.302
119.0652 2.396
119.0954 1.615
119.1257 1.510
119.1560 1.458
119.1863 1.719
119.2166 1.615
119.2468 2.187
119.2771 1.302
119.3074 1.354
119.3377 1.146
119.3680 1.458
119.3982 1.719
119.4285 1.875
119.4588 1.667
119.4891 1.406
119.5193 2.344
119.5496 1.719
119.5799 1.510
119.6102 1.458
119.6405 1.927
119.6707 1.302
119.7010 1.875
119.7313 1.615
119.7616 1.719
119.7919 1.562
119.8221 1.927
119.8524 1.875
119.8827 1.875
119.9130 1.771
119.9433 1.667
119.9735 1.615
120.0038 2.031
