'Id: "" Comment: "" Operator: "Lab Manager" Anode: "Cu" Scantype: "Locked Coupled" TimePerStep: "19.2" X: "9999" Y: "9999" Z: "9999" 
10.0015 3.229
10.0318 4.219
10.0620 4.167
10.0923 4.062
10.1226 4.792
10.1529 4.531
10.1832 4.323
10.2134 3.958
10.2437 4.167
10.2740 4.167
10.3043 4.219
10.3346 4.635
10.3648 3.437
10.3951 4.115
10.4254 3.385
10.4557 4.167
10.4859 4.323
10.5162 3.333
10.5465 3.958
10.5768 3.594
10.6071 3.281
10.6373 3.490
10.6676 4.271
10.6979 3.698
10.7282 3.229
10.7585 3.646
10.7887 3.802
10.8190 3.802
10.8493 4.115
10.8796 4.167
10.9098 3.698
10.9401 4.010
10.9704 4.479
11.0007 5.312
11.0310 4.271
11.0612 5.312
11.0915 3.750
11.1218 3.750
11.1521 3.906
11.1824 3.594
11.2126 3.698
11.2429 3.437
11.2732 4.271
11.3035 4.323
11.3337 3.542
11.3640 3.333
11.3943 3.385
11.4246 3.073
11.4549 4.062
11.4851 3.542
11.5154 3.906
11.5457 4.271
11.5760 4.010
11.6063 3.177
11.6365 3.958
11.6668 4.427
11.6971 4.583
11.7274 4.531
11.7577 4.375
11.7879 3.385
11.8182 4.062
11.8485 3.854
11.8788 3.750
11.9090 4.375
11.9393 4.479
11.9696 3.854
11.9999 4.583
12.0302 3.333
12.0604 3.542
12.0907 4.635
12.1210 4.219
12.1513 4.479
12.1816 3.281
12.2118 4.167
12.2421 3.802
12.2724 3.490
12.3027 3.385
12.3329 3.281
12.3632 3.542
12.3935 3.802
12.4238 3.854
12.4541 3.802
12.4843 3.646
12.5146 3.490
12.5449 3.542
12.5752 3.125
12.6055 3.906
12.6357 2.969
12.6660 3.385
12.6963 3.490
12.7266 3.125
12.7568 3.281
12.7871 3.646
12.8174 2.708
12.8477 3.385
12.8780 3.906
12.9082 3.958
12.9385 3.750
12.9688 2.656
12.9991 4.271
13.0294 3.073
13.0596 3.958
13.0899 3.021
13.1202 3.698
13.1505 3.281
13.1807 3.073
13.2110 2.760
13.2413 2.865
13.2716 3.385
13.3019 4.427
13.3321 2.969
13.3624 3.229
13.3927 3.281
13.4230 2.865
13.4533 3.177
13.4835 3.333
13.5138 3.281
13.5441 2.812
13.5744 2.969
13.6046 3.229
13.6349 3.333
13.6652 3.333
13.6955 3.750
13.7258 3.281
13.7560 2.969
13.7863 3.437
13.8166 3.490
13.8469 3.906
13.8772 3.177
13.9074 3.229
13.9377 2.656
13.9680 2.917
13.9983 2.604
14.0285 3.021
14.0588 3.750
14.0891 3.698
14.1194 3.594
14.1497 2.812
14.1799 2.708
14.2102 2.969
14.2405 3.646
14.2708 3.854
14.3011 3.333
14.3313 3.229
14.3616 2.969
14.3919 2.552
14.4222 3.281
14.4524 3.073
14.4827 2.396
14.5130 3.490
14.5433 2.969
14.5736 3.281
14.6038 3.021
14.6341 2.760
14.6644 2.708
14.6947 3.073
14.7250 3.229
14.7552 4.219
14.7855 2.656
14.8158 4.115
14.8461 3.073
14.8764 2.969
14.9066 3.021
14.9369 2.812
14.9672 3.177
14.9975 3.229
15.0277 2.708
15.0580 2.604
15.0883 1.979
15.1186 3.333
15.1489 3.125
15.1791 2.708
15.2094 2.240
15.2397 3.490
15.2700 3.021
15.3003 3.437
15.3305 3.958
15.3608 2.917
15.3911 3.594
15.4214 3.542
15.4516 2.969
15.4819 3.750
15.5122 2.292
15.5425 3.333
15.5728 2.917
15.6030 3.385
15.6333 2.812
15.6636 2.448
15.6939 3.125
15.7242 3.437
15.7544 2.656
15.7847 3.437
15.8150 2.500
15.8453 2.552
15.8755 3.229
15.9058 3.125
15.9361 2.812
15.9664 3.646
15.9967 3.229
16.0269 2.344
16.0572 3.021
16.0875 2.656
16.1178 2.396
16.1481 2.865
16.1783 3.437
16.2086 3.385
16.2389 3.073
16.2692 3.281
16.2994 3.177
16.3297 2.604
16.3600 2.448
16.3903 2.760
16.4206 3.698
16.4508 2.656
16.4811 3.906
16.5114 2.656
16.5417 2.812
16.5720 3.281
16.6022 3.125
16.6325 2.969
16.6628 2.708
16.6931 3.333
16.7233 3.385
16.7536 4.167
16.7839 3.542
16.8142 2.812
16.8445 2.865
16.8747 2.760
16.9050 2.865
16.9353 3.281
16.9656 3.073
16.9959 2.917
17.0261 3.281
17.0564 4.323
17.0867 2.552
17.1170 3.594
17.1472 3.385
17.1775 3.333
17.2078 2.969
17.2381 3.385
17.2684 2.708
17.2986 3.437
17.3289 3.333
17.3592 2.448
17.3895 3.333
17.4198 2.760
17.4500 3.698
17.4803 3.437
17.5106 3.542
17.5409 2.812
17.5712 3.125
17.6014 3.385
17.6317 2.604
17.6620 2.604
17.6923 3.021
17.7225 2.865
17.7528 3.437
17.7831 3.177
17.8134 2.812
17.8437 2.917
17.8739 2.344
17.9042 3.073
17.9345 2.708
17.9648 3.229
17.9951 3.333
18.0253 2.760
18.0556 2.500
18.0859 2.396
18.1162 3.021
18.1464 2.448
18.1767 3.385
18.2070 3.646
18.2373 2.917
18.2676 2.969
18.2978 3.229
18.3281 2.604
18.3584 3.073
18.3887 3.281
18.4190 2.500
18.4492 3.229
18.4795 3.021
18.5098 2.656
18.5401 2.604
18.5703 2.656
18.6006 3.125
18.6309 2.500
18.6612 2.604
18.6915 2.708
18.7217 2.500
18.7520 3.073
18.7823 3.229
18.8126 2.760
18.8429 3.333
18.8731 2.865
18.9034 2.865
18.9337 2.865
18.9640 2.656
18.9942 3.021
19.0245 3.333
19.0548 3.125
19.0851 2.500
19.1154 2.292
19.1456 2.448
19.1759 2.552
19.2062 2.812
19.2365 2.396
19.2668 2.187
19.2970 3.385
19.3273 3.281
19.3576 3.698
19.3879 3.125
19.4181 2.187
19.4484 3.333
19.4787 1.927
19.5090 2.292
19.5393 2.292
19.5695 3.490
19.5998 2.187
19.6301 3.177
19.6604 2.292
19.6907 2.656
19.7209 3.490
19.7512 2.500
19.7815 3.177
19.8118 2.760
19.8420 3.333
19.8723 2.917
19.9026 3.542
19.9329 2.344
19.9632 3.021
19.9934 3.229
20.0237 2.604
20.0540 1.615
20.0843 2.604
20.1146 2.969
20.1448 3.229
20.1751 2.812
20.2054 2.812
20.2357 2.812
20.2659 2.656
20.2962 2.500
20.3265 2.552
20.3568 2.240
20.3871 2.240
20.4173 2.448
20.4476 3.073
20.4779 2.083
20.5082 2.760
20.5385 2.656
20.5687 2.917
20.5990 2.552
20.6293 2.656
20.6596 2.500
20.6899 2.812
20.7201 2.396
20.7504 2.448
20.7807 3.177
20.8110 2.969
20.8412 2.760
20.8715 3.906
20.9018 2.656
20.9321 2.760
20.9624 2.812
20.9926 2.760
21.0229 2.708
21.0532 1.562
21.0835 3.437
21.1138 2.969
21.1440 2.396
21.1743 3.281
21.2046 2.812
21.2349 2.656
21.2651 2.969
21.2954 2.917
21.3257 3.125
21.3560 2.865
21.3863 2.552
21.4165 2.396
21.4468 2.240
21.4771 3.281
21.5074 2.969
21.5377 1.823
21.5679 2.760
21.5982 2.344
21.6285 2.969
21.6588 3.125
21.6890 2.396
21.7193 2.760
21.7496 2.500
21.7799 1.927
21.8102 2.760
21.8404 2.917
21.8707 3.229
21.9010 2.187
21.9313 2.135
21.9616 2.812
21.9918 2.760
22.0221 2.344
22.0524 2.187
22.0827 2.396
22.1129 3.385
22.1432 2.969
22.1735 2.917
22.2038 2.240
22.2341 2.604
22.2643 2.448
22.2946 3.021
22.3249 2.240
22.3552 3.385
22.3855 2.656
22.4157 2.396
22.4460 2.552
22.4763 2.552
22.5066 1.823
22.5368 2.865
22.5671 2.240
22.5974 2.865
22.6277 2.292
22.6580 2.292
22.6882 2.708
22.7185 2.031
22.7488 2.552
22.7791 3.594
22.8094 2.708
22.8396 2.552
22.8699 2.240
22.9002 3.125
22.9305 2.396
22.9607 1.875
22.9910 2.708
23.0213 2.552
23.0516 2.292
23.0819 2.448
23.1121 2.552
23.1424 2.552
23.1727 2.812
23.2030 2.917
23.2333 2.448
23.2635 1.979
23.2938 2.187
23.3241 2.240
23.3544 2.865
23.3846 2.396
23.4149 2.448
23.4452 1.458
23.4755 3.021
23.5058 2.604
23.5360 2.604
23.5663 2.760
23.5966 3.333
23.6269 3.125
23.6572 2.344
23.6874 2.760
23.7177 1.979
23.7480 2.708
23.7783 2.187
23.8086 2.865
23.8388 2.760
23.8691 2.083
23.8994 1.615
23.9297 3.385
23.9599 2.760
23.9902 2.812
24.0205 2.708
24.0508 3.021
24.0811 2.604
24.1113 2.969
24.1416 2.344
24.1719 2.552
24.2022 2.604
24.2325 2.552
24.2627 2.604
24.2930 2.760
24.3233 2.656
24.3536 2.187
24.3838 2.917
24.4141 2.604
24.4444 2.708
24.4747 2.500
24.5050 2.240
24.5352 3.073
24.5655 2.760
24.5958 2.344
24.6261 2.708
24.6564 3.177
24.6866 2.708
24.7169 2.396
24.7472 2.969
24.7775 2.292
24.8077 2.396
24.8380 3.021
24.8683 2.760
24.8986 2.552
24.9289 3.333
24.9591 1.823
24.9894 2.760
25.0197 2.344
25.0500 2.500
25.0803 2.187
25.1105 2.708
25.1408 2.969
25.1711 2.969
25.2014 2.656
25.2316 2.187
25.2619 2.500
25.2922 2.187
25.3225 2.240
25.3528 3.698
25.3830 2.708
25.4133 2.969
25.4436 2.604
25.4739 2.812
25.5042 3.490
25.5344 2.708
25.5647 3.385
25.5950 3.281
25.6253 2.760
25.6555 2.604
25.6858 3.021
25.7161 3.021
25.7464 2.812
25.7767 2.240
25.8069 2.396
25.8372 2.083
25.8675 3.594
25.8978 2.396
25.9281 2.135
25.9583 3.281
25.9886 2.552
26.0189 3.437
26.0492 2.396
26.0794 2.917
26.1097 2.865
26.1400 2.396
26.1703 2.604
26.2006 3.021
26.2308 2.344
26.2611 2.083
26.2914 2.812
26.3217 3.125
26.3520 3.229
26.3822 2.969
26.4125 2.344
26.4428 3.125
26.4731 2.708
26.5034 2.917
26.5336 3.229
26.5639 2.969
26.5942 2.812
26.6245 2.135
26.6547 2.604
26.6850 3.542
26.7153 3.802
26.7456 3.177
26.7759 2.135
26.8061 3.073
26.8364 2.187
26.8667 2.760
26.8970 2.969
26.9273 3.177
26.9575 2.812
26.9878 2.604
27.0181 2.656
27.0484 3.021
27.0786 2.708
27.1089 2.448
27.1392 3.177
27.1695 3.021
27.1998 3.073
27.2300 3.177
27.2603 2.917
27.2906 2.604
27.3209 2.500
27.3512 3.490
27.3814 2.656
27.4117 2.917
27.4420 2.708
27.4723 3.594
27.5025 3.385
27.5328 3.385
27.5631 2.865
27.5934 3.333
27.6237 2.760
27.6539 3.437
27.6842 2.865
27.7145 3.021
27.7448 2.969
27.7751 3.281
27.8053 3.542
27.8356 2.604
27.8659 3.229
27.8962 3.542
27.9264 3.750
27.9567 3.281
27.9870 3.646
28.0173 3.125
28.0476 3.698
28.0778 2.708
28.1081 3.281
28.1384 4.115
28.1687 2.865
28.1990 3.073
28.2292 3.281
28.2595 3.177
28.2898 3.125
28.3201 3.281
28.3503 3.333
28.3806 3.021
28.4109 3.906
28.4412 3.229
28.4715 4.010
28.5017 3.437
28.5320 3.333
28.5623 3.281
28.5926 2.969
28.6229 3.385
28.6531 4.635
28.6834 3.906
28.7137 3.437
28.7440 3.281
28.7742 3.073
28.8045 3.698
28.8348 3.333
28.8651 3.437
28.8954 3.177
28.9256 2.917
28.9559 3.854
28.9862 3.490
29.0165 3.542
29.0468 4.687
29.0770 3.229
29.1073 3.281
29.1376 4.323
29.1679 3.177
29.1981 3.854
29.2284 4.792
29.2587 4.427
29.2890 4.062
29.3193 3.385
29.3495 4.792
29.3798 4.323
29.4101 3.646
29.4404 3.854
29.4707 3.333
29.5009 3.854
29.5312 4.062
29.5615 3.854
29.5918 4.583
29.6221 3.698
29.6523 4.531
29.6826 3.906
29.7129 3.958
29.7432 4.115
29.7734 5.104
29.8037 4.531
29.8340 5.052
29.8643 4.583
29.8946 4.271
29.9248 4.375
29.9551 4.115
29.9854 4.531
30.0157 4.896
30.0460 4.062
30.0762 5.260
30.1065 4.635
30.1368 4.792
30.1671 4.948
30.1973 5.417
30.2276 4.792
30.2579 4.687
30.2882 5.260
30.3185 4.792
30.3487 5.990
30.3790 5.469
30.4093 4.844
30.4396 6.198
30.4699 6.979
30.5001 5.521
30.5304 5.469
30.5607 5.781
30.5910 6.771
30.6212 6.354
30.6515 6.823
30.6818 6.823
30.7121 7.760
30.7424 6.771
30.7726 6.615
30.8029 9.167
30.8332 7.656
30.8635 8.646
30.8938 9.896
30.9240 9.792
30.9543 8.646
30.9846 10.625
31.0149 10.417
31.0451 9.896
31.0754 11.510
31.1057 12.500
31.1360 12.604
31.1663 14.219
31.1965 15.104
31.2268 15.937
31.2571 17.448
31.2874 19.844
31.3177 20.469
31.3479 22.500
31.3782 23.906
31.4085 28.177
31.4388 31.302
31.4690 33.490
31.4993 37.917
31.5296 39.062
31.5599 43.229
31.5902 47.240
31.6204 52.708
31.6507 51.719
31.6810 51.823
31.7113 49.271
31.7416 48.073
31.7718 40.781
31.8021 41.562
31.8324 33.906
31.8627 31.771
31.8929 31.562
31.9232 26.823
31.9535 22.604
31.9838 21.667
32.0141 19.062
32.0443 16.510
32.0746 17.240
32.1049 15.208
32.1352 13.854
32.1655 12.812
32.1957 12.448
32.2260 10.417
32.2563 12.448
32.2866 10.729
32.3169 10.052
32.3471 9.583
32.3774 8.698
32.4077 7.500
32.4380 8.750
32.4682 7.969
32.4985 8.542
32.5288 7.708
32.5591 7.187
32.5894 6.927
32.6196 6.406
32.6499 7.500
32.6802 7.292
32.7105 6.927
32.7408 5.990
32.7710 6.875
32.8013 6.823
32.8316 7.292
32.8619 5.469
32.8921 6.302
32.9224 6.927
32.9527 7.396
32.9830 6.927
33.0133 6.354
33.0435 6.875
33.0738 6.302
33.1041 6.615
33.1344 6.042
33.1647 7.083
33.1949 5.729
33.2252 6.094
33.2555 6.406
33.2858 6.562
33.3160 6.667
33.3463 5.990
33.3766 6.719
33.4069 6.771
33.4372 7.500
33.4674 6.771
33.4977 7.552
33.5280 6.927
33.5583 6.094
33.5886 8.073
33.6188 7.396
33.6491 7.917
33.6794 8.698
33.7097 7.760
33.7399 9.844
33.7702 8.333
33.8005 8.229
33.8308 9.792
33.8611 10.625
33.8913 11.146
33.9216 11.979
33.9519 12.396
33.9822 14.115
34.0125 15.677
34.0427 17.656
34.0730 19.479
34.1033 21.719
34.1336 24.896
34.1638 30.156
34.1941 33.229
34.2244 42.656
34.2547 51.823
34.2850 53.906
34.3152 65.000
34.3455 62.240
34.3758 60.573
34.4061 55.469
34.4364 44.010
34.4666 36.823
34.4969 31.667
34.5272 27.812
34.5575 21.875
34.5877 19.427
34.6180 17.344
34.6483 15.052
34.6786 14.115
34.7089 13.021
34.7391 12.812
34.7694 11.771
34.7997 10.312
34.8300 11.823
34.8603 9.635
34.8905 9.375
34.9208 9.844
34.9511 11.042
34.9814 10.573
35.0116 10.990
35.0419 10.625
35.0722 12.187
35.1025 9.531
35.1328 9.635
35.1630 10.156
35.1933 10.573
35.2236 8.646
35.2539 11.719
35.2842 10.729
35.3144 12.500
35.3447 12.031
35.3750 14.062
35.4053 12.604
35.4356 15.052
35.4658 14.115
35.4961 16.042
35.5264 15.156
35.5567 17.448
35.5869 14.844
35.6172 17.812
35.6475 19.062
35.6778 22.083
35.7081 22.656
35.7383 25.781
35.7686 26.406
35.7989 29.635
35.8292 32.240
35.8595 36.562
35.8897 38.229
35.9200 41.771
35.9503 48.281
35.9806 54.583
36.0108 57.396
36.0411 65.781
36.0714 68.594
36.1017 71.667
36.1320 74.219
36.1622 73.490
36.1925 74.635
36.2228 70.208
36.2531 67.552
36.2834 62.240
36.3136 54.479
36.3439 52.604
36.3742 46.406
36.4045 38.333
36.4347 36.094
36.4650 33.073
36.4953 28.281
36.5256 27.865
36.5559 23.229
36.5861 20.208
36.6164 19.635
36.6467 18.854
36.6770 17.031
36.7073 16.823
36.7375 14.427
36.7678 13.958
36.7981 12.760
36.8284 10.937
36.8586 10.937
36.8889 9.896
36.9192 9.792
36.9495 8.750
36.9798 9.271
37.0100 7.760
37.0403 8.021
37.0706 7.708
37.1009 8.281
37.1312 7.135
37.1614 6.771
37.1917 6.406
37.2220 6.823
37.2523 6.615
37.2825 6.615
37.3128 5.937
37.3431 6.302
37.3734 6.823
37.4037 4.896
37.4339 5.365
37.4642 6.354
37.4945 5.990
37.5248 4.948
37.5551 5.260
37.5853 3.906
37.6156 5.000
37.6459 5.156
37.6762 4.375
37.7064 4.792
37.7367 4.792
37.7670 5.052
37.7973 4.896
37.8276 5.000
37.8578 4.427
37.8881 4.479
37.9184 3.906
37.9487 4.062
37.9790 3.906
38.0092 3.437
38.0395 4.583
38.0698 4.167
38.1001 3.333
38.1304 3.594
38.1606 3.542
38.1909 3.750
38.2212 4.167
38.2515 3.281
38.2817 3.437
38.3120 3.802
38.3423 3.125
38.3726 4.219
38.4029 3.385
38.4331 3.437
38.4634 3.542
38.4937 3.542
38.5240 3.698
38.5543 3.281
38.5845 2.708
38.6148 2.917
38.6451 3.542
38.6754 3.385
38.7056 3.177
38.7359 3.542
38.7662 2.708
38.7965 3.281
38.8268 3.333
38.8570 3.073
38.8873 2.656
38.9176 2.240
38.9479 2.760
38.9782 2.708
39.0084 2.448
39.0387 2.240
39.0690 3.073
39.0993 2.292
39.1295 2.969
39.1598 2.917
39.1901 3.177
39.2204 3.333
39.2507 3.281
39.2809 2.708
39.3112 2.552
39.3415 2.708
39.3718 2.760
39.4021 2.292
39.4323 2.812
39.4626 2.708
39.4929 3.333
39.5232 2.448
39.5534 2.396
39.5837 2.135
39.6140 2.969
39.6443 2.812
39.6746 2.396
39.7048 2.604
39.7351 2.187
39.7654 2.708
39.7957 2.760
39.8260 2.135
39.8562 2.760
39.8865 2.135
39.9168 2.604
39.9471 2.240
39.9773 2.448
40.0076 2.292
40.0379 2.344
40.0682 2.865
40.0985 2.135
40.1287 2.500
40.1590 2.656
40.1893 2.708
40.2196 3.125
40.2499 2.240
40.2801 1.979
40.3104 1.979
40.3407 2.187
40.3710 2.135
40.4012 2.604
40.4315 1.927
40.4618 2.760
40.4921 1.979
40.5224 3.021
40.5526 2.240
40.5829 2.760
40.6132 2.656
40.6435 2.240
40.6738 2.500
40.7040 1.823
40.7343 1.615
40.7646 2.448
40.7949 1.562
40.8251 2.396
40.8554 2.187
40.8857 2.812
40.9160 2.083
40.9463 2.344
40.9765 2.344
41.0068 2.240
41.0371 2.708
41.0674 2.187
41.0977 2.187
41.1279 2.500
41.1582 2.344
41.1885 1.823
41.2188 2.135
41.2491 2.240
41.2793 1.875
41.3096 2.708
41.3399 2.812
41.3702 2.292
41.4004 2.708
41.4307 3.125
41.4610 2.292
41.4913 2.344
41.5216 2.135
41.5518 2.240
41.5821 2.240
41.6124 2.031
41.6427 2.031
41.6730 2.448
41.7032 2.292
41.7335 2.344
41.7638 2.240
41.7941 2.708
41.8243 2.292
41.8546 2.812
41.8849 2.604
41.9152 1.302
41.9455 2.396
41.9757 2.969
42.0060 2.083
42.0363 2.083
42.0666 2.135
42.0969 3.125
42.1271 2.083
42.1574 1.562
42.1877 1.823
42.2180 2.292
42.2482 2.031
42.2785 2.500
42.3088 2.292
42.3391 2.031
42.3694 2.135
42.3996 2.969
42.4299 1.510
42.4602 2.552
42.4905 2.500
42.5208 2.448
42.5510 2.604
42.5813 2.292
42.6116 2.604
42.6419 2.031
42.6721 2.135
42.7024 1.458
42.7327 2.344
42.7630 1.562
42.7933 1.927
42.8235 2.083
42.8538 2.396
42.8841 1.875
42.9144 2.031
42.9447 1.615
42.9749 2.187
43.0052 2.240
43.0355 1.823
43.0658 2.604
43.0960 2.656
43.1263 1.823
43.1566 1.927
43.1869 2.500
43.2172 2.396
43.2474 2.031
43.2777 2.135
43.3080 1.771
43.3383 2.187
43.3686 1.771
43.3988 2.083
43.4291 2.240
43.4594 2.187
43.4897 1.875
43.5199 2.552
43.5502 2.031
43.5805 1.927
43.6108 1.823
43.6411 2.187
43.6713 2.552
43.7016 2.969
43.7319 2.396
43.7622 1.823
43.7925 2.344
43.8227 2.500
43.8530 2.031
43.8833 1.406
43.9136 1.562
43.9439 2.344
43.9741 2.552
44.0044 2.448
44.0347 2.500
44.0650 2.240
44.0952 2.240
44.1255 2.135
44.1558 1.875
44.1861 2.031
44.2164 2.865
44.2466 2.500
44.2769 2.552
44.3072 2.396
44.3375 2.917
44.3678 2.083
44.3980 1.927
44.4283 1.927
44.4586 1.875
44.4889 2.865
44.5191 2.500
44.5494 2.240
44.5797 1.927
44.6100 2.083
44.6403 2.396
44.6705 2.344
44.7008 1.927
44.7311 2.865
44.7614 2.396
44.7917 2.031
44.8219 2.031
44.8522 2.031
44.8825 2.604
44.9128 2.917
44.9430 2.083
44.9733 2.135
45.0036 2.396
45.0339 2.552
45.0642 2.240
45.0944 2.448
45.1247 2.604
45.1550 2.865
45.1853 2.812
45.2156 1.979
45.2458 2.083
45.2761 2.812
45.3064 2.240
45.3367 2.604
45.3669 2.760
45.3972 1.562
45.4275 2.604
45.4578 2.500
45.4881 2.969
45.5183 2.604
45.5486 1.510
45.5789 2.812
45.6092 2.187
45.6395 2.135
45.6697 3.177
45.7000 2.708
45.7303 2.031
45.7606 2.344
45.7908 2.552
45.8211 2.708
45.8514 2.344
45.8817 2.083
45.9120 2.708
45.9422 2.760
45.9725 2.969
46.0028 2.500
46.0331 2.031
46.0634 3.073
46.0936 2.292
46.1239 2.917
46.1542 3.229
46.1845 3.698
46.2147 2.812
46.2450 2.708
46.2753 3.229
46.3056 2.344
46.3359 3.281
46.3661 2.656
46.3964 4.792
46.4267 3.229
46.4570 3.542
46.4873 3.021
46.5175 3.229
46.5478 3.906
46.5781 3.646
46.6084 3.385
46.6386 4.219
46.6689 4.427
46.6992 3.229
46.7295 4.479
46.7598 3.490
46.7900 4.740
46.8203 5.000
46.8506 4.167
46.8809 5.260
46.9112 5.208
46.9414 5.417
46.9717 5.990
47.0020 5.833
47.0323 7.240
47.0626 6.458
47.0928 7.812
47.1231 9.010
47.1534 8.177
47.1837 9.010
47.2139 11.458
47.2442 10.885
47.2745 12.656
47.3048 14.844
47.3351 15.469
47.3653 14.115
47.3956 16.458
47.4259 17.865
47.4562 16.094
47.4865 15.208
47.5167 13.958
47.5470 15.521
47.5773 14.427
47.6076 13.698
47.6378 13.177
47.6681 11.458
47.6984 10.729
47.7287 9.531
47.7590 8.594
47.7892 7.344
47.8195 7.760
47.8498 6.302
47.8801 6.042
47.9104 5.937
47.9406 4.896
47.9709 5.156
48.0012 5.000
48.0315 6.146
48.0617 4.635
48.0920 4.115
48.1223 4.271
48.1526 4.062
48.1829 3.646
48.2131 3.490
48.2434 3.698
48.2737 3.437
48.3040 3.021
48.3343 3.646
48.3645 3.333
48.3948 3.542
48.4251 3.281
48.4554 3.490
48.4856 2.865
48.5159 3.021
48.5462 2.344
48.5765 3.177
48.6068 2.344
48.6370 2.760
48.6673 2.969
48.6976 2.500
48.7279 2.760
48.7582 2.812
48.7884 2.760
48.8187 2.187
48.8490 2.708
48.8793 2.812
48.9095 2.344
48.9398 2.396
48.9701 3.021
49.0004 2.240
49.0307 2.604
49.0609 2.135
49.0912 2.240
49.1215 2.708
49.1518 3.073
49.1821 2.448
49.2123 2.500
49.2426 2.448
49.2729 2.031
49.3032 3.073
49.3334 2.031
49.3637 2.187
49.3940 1.823
49.4243 2.083
49.4546 2.031
49.4848 2.240
49.5151 2.604
49.5454 1.719
49.5757 2.500
49.6060 2.656
49.6362 1.927
49.6665 2.760
49.6968 1.823
49.7271 2.344
49.7574 1.875
49.7876 1.875
49.8179 2.396
49.8482 1.875
49.8785 2.708
49.9087 1.979
49.9390 1.615
49.9693 2.396
49.9996 2.083
50.0299 2.083
50.0601 1.406
50.0904 2.500
50.1207 2.187
50.1510 2.031
50.1813 2.031
50.2115 2.187
50.2418 2.656
50.2721 2.240
50.3024 1.615
50.3326 2.344
50.3629 1.927
50.3932 2.292
50.4235 2.344
50.4538 2.031
50.4840 2.760
50.5143 2.083
50.5446 2.187
50.5749 1.875
50.6052 1.823
50.6354 2.396
50.6657 2.135
50.6960 1.979
50.7263 2.240
50.7565 1.823
50.7868 1.719
50.8171 2.187
50.8474 2.500
50.8777 2.135
50.9079 2.031
50.9382 2.031
50.9685 2.083
50.9988 2.552
51.0291 2.500
51.0593 2.083
51.0896 1.510
51.1199 2.344
51.1502 2.031
51.1804 2.083
51.2107 1.510
51.2410 1.979
51.2713 2.187
51.3016 2.292
51.3318 2.135
51.3621 2.500
51.3924 1.875
51.4227 2.812
51.4530 1.406
51.4832 1.979
51.5135 2.500
51.5438 2.083
51.5741 2.708
51.6043 1.875
51.6346 1.562
51.6649 1.979
51.6952 2.135
51.7255 2.448
51.7557 1.354
51.7860 1.354
51.8163 1.771
51.8466 2.031
51.8769 2.500
51.9071 2.292
51.9374 2.031
51.9677 2.135
51.9980 2.031
52.0282 1.927
52.0585 2.240
52.0888 1.927
52.1191 2.812
52.1494 1.927
52.1796 2.344
52.2099 2.083
52.2402 1.615
52.2705 2.292
52.3008 1.927
52.3310 1.615
52.3613 1.406
52.3916 2.396
52.4219 2.396
52.4521 2.292
52.4824 2.604
52.5127 1.875
52.5430 2.656
52.5733 2.396
52.6035 2.448
52.6338 2.760
52.6641 2.240
52.6944 2.344
52.7247 2.344
52.7549 2.292
52.7852 2.500
52.8155 2.240
52.8458 2.135
52.8761 1.354
52.9063 1.875
52.9366 1.510
52.9669 1.875
52.9972 2.552
53.0274 2.344
53.0577 2.812
53.0880 1.979
53.1183 2.292
53.1486 2.187
53.1788 2.500
53.2091 1.615
53.2394 2.083
53.2697 2.552
53.3000 2.240
53.3302 2.604
53.3605 1.823
53.3908 1.927
53.4211 2.292
53.4513 1.354
53.4816 2.604
53.5119 2.812
53.5422 1.927
53.5725 2.292
53.6027 2.500
53.6330 1.875
53.6633 2.083
53.6936 2.552
53.7239 2.031
53.7541 2.604
53.7844 2.760
53.8147 1.927
53.8450 1.979
53.8752 2.396
53.9055 2.135
53.9358 1.979
53.9661 2.240
53.9964 1.979
54.0266 2.031
54.0569 2.604
54.0872 3.229
54.1175 1.979
54.1478 2.135
54.1780 1.562
54.2083 2.500
54.2386 2.344
54.2689 2.760
54.2991 2.917
54.3294 2.812
54.3597 2.031
54.3900 2.865
54.4203 2.500
54.4505 2.656
54.4808 2.187
54.5111 2.240
54.5414 2.500
54.5717 2.708
54.6019 2.448
54.6322 2.552
54.6625 3.333
54.6928 2.500
54.7230 2.917
54.7533 2.969
54.7836 3.073
54.8139 2.656
54.8442 2.344
54.8744 3.125
54.9047 3.125
54.9350 2.448
54.9653 2.760
54.9956 3.542
55.0258 2.448
55.0561 3.125
55.0864 3.073
55.1167 2.865
55.1469 3.490
55.1772 2.604
55.2075 2.656
55.2378 2.969
55.2681 3.437
55.2983 3.490
55.3286 3.073
55.3589 3.854
55.3892 3.906
55.4195 3.542
55.4497 3.854
55.4800 3.750
55.5103 4.062
55.5406 3.750
55.5709 3.594
55.6011 4.427
55.6314 3.750
55.6617 4.115
55.6920 3.698
55.7222 4.687
55.7525 4.896
55.7828 4.740
55.8131 5.052
55.8434 5.521
55.8736 5.000
55.9039 6.354
55.9342 6.719
55.9645 6.354
55.9948 7.552
56.0250 8.333
56.0553 6.979
56.0856 8.177
56.1159 9.062
56.1461 9.167
56.1764 9.635
56.2067 11.354
56.2370 12.708
56.2673 11.927
56.2975 12.396
56.3278 16.094
56.3581 16.042
56.3884 18.229
56.4187 19.323
56.4489 20.990
56.4792 21.458
56.5095 21.042
56.5398 19.062
56.5700 20.208
56.6003 18.854
56.6306 17.917
56.6609 16.615
56.6912 15.312
56.7214 14.219
56.7517 15.104
56.7820 11.823
56.8123 11.302
56.8426 10.781
56.8728 10.312
56.9031 10.156
56.9334 8.281
56.9637 8.177
56.9939 6.719
57.0242 6.823
57.0545 6.250
57.0848 5.208
57.1151 5.521
57.1453 5.156
57.1756 5.156
57.2059 3.906
57.2362 5.156
57.2665 4.167
57.2967 4.271
57.3270 4.479
57.3573 4.010
57.3876 4.219
57.4178 3.698
57.4481 2.448
57.4784 3.594
57.5087 3.542
57.5390 3.594
57.5692 3.229
57.5995 3.437
57.6298 3.177
57.6601 3.854
57.6904 3.437
57.7206 2.865
57.7509 2.917
57.7812 2.292
57.8115 2.969
57.8417 3.229
57.8720 2.969
57.9023 2.969
57.9326 2.083
57.9629 3.385
57.9931 2.240
58.0234 1.719
58.0537 2.865
58.0840 3.177
58.1143 2.708
58.1445 3.490
58.1748 2.760
58.2051 2.969
58.2354 2.500
58.2656 2.760
58.2959 2.760
58.3262 2.760
58.3565 2.604
58.3868 2.240
58.4170 2.552
58.4473 2.552
58.4776 2.552
58.5079 2.187
58.5382 2.708
58.5684 2.708
58.5987 2.448
58.6290 3.021
58.6593 3.490
58.6896 2.240
58.7198 2.396
58.7501 2.552
58.7804 2.292
58.8107 2.292
58.8409 2.812
58.8712 2.552
58.9015 2.344
58.9318 2.604
58.9621 2.708
58.9923 3.333
59.0226 1.823
59.0529 2.604
59.0832 2.812
59.1135 2.344
59.1437 2.344
59.1740 2.552
59.2043 3.125
59.2346 2.396
59.2648 2.865
59.2951 1.927
59.3254 2.552
59.3557 2.083
59.3860 1.562
59.4162 2.396
59.4465 2.604
59.4768 2.344
59.5071 2.031
59.5374 1.823
59.5676 1.823
59.5979 1.667
59.6282 2.760
59.6585 2.135
59.6887 1.771
59.7190 2.344
59.7493 2.500
59.7796 1.979
59.8099 1.667
59.8401 3.281
59.8704 2.500
59.9007 2.500
59.9310 2.292
59.9613 2.240
59.9915 2.344
60.0218 2.604
60.0521 2.448
60.0824 2.656
60.1126 2.552
60.1429 2.448
60.1732 2.135
60.2035 2.552
60.2338 2.500
60.2640 2.083
60.2943 2.135
60.3246 2.396
60.3549 1.615
60.3852 2.187
60.4154 2.604
60.4457 2.083
60.4760 2.500
60.5063 1.615
60.5365 2.917
60.5668 2.448
60.5971 2.812
60.6274 3.073
60.6577 2.135
60.6879 2.135
60.7182 2.708
60.7485 2.500
60.7788 3.177
60.8091 2.552
60.8393 2.500
60.8696 3.021
60.8999 2.708
60.9302 3.021
60.9604 2.552
60.9907 2.760
61.0210 2.083
61.0513 2.448
61.0816 2.656
61.1118 2.760
61.1421 2.656
61.1724 2.865
61.2027 2.812
61.2330 2.187
61.2632 2.292
61.2935 2.969
61.3238 2.083
61.3541 2.656
61.3844 2.708
61.4146 2.917
61.4449 3.333
61.4752 2.448
61.5055 2.604
61.5357 2.812
61.5660 3.177
61.5963 2.917
61.6266 3.750
61.6569 3.021
61.6871 3.385
61.7174 2.812
61.7477 3.385
61.7780 2.917
61.8083 3.437
61.8385 3.802
61.8688 4.271
61.8991 3.229
61.9294 3.125
61.9596 3.802
61.9899 3.542
62.0202 3.750
62.0505 3.594
62.0808 4.740
62.1110 4.167
62.1413 5.052
62.1716 5.833
62.2019 5.052
62.2322 6.042
62.2624 5.312
62.2927 5.833
62.3230 6.250
62.3533 6.875
62.3835 7.708
62.4138 7.604
62.4441 9.271
62.4744 8.906
62.5047 11.562
62.5349 12.187
62.5652 13.125
62.5955 12.708
62.6258 13.802
62.6561 14.896
62.6863 16.510
62.7166 17.031
62.7469 15.781
62.7772 18.177
62.8074 16.458
62.8377 18.333
62.8680 15.677
62.8983 15.677
62.9286 13.802
62.9588 16.042
62.9891 13.906
63.0194 14.115
63.0497 12.187
63.0800 10.729
63.1102 10.365
63.1405 10.417
63.1708 8.802
63.2011 8.750
63.2313 7.031
63.2616 7.344
63.2919 6.510
63.3222 6.302
63.3525 5.365
63.3827 5.260
63.4130 4.896
63.4433 5.312
63.4736 4.219
63.5039 4.740
63.5341 4.167
63.5644 3.750
63.5947 4.115
63.6250 4.219
63.6552 3.646
63.6855 4.010
63.7158 2.865
63.7461 2.760
63.7764 3.698
63.8066 3.021
63.8369 2.969
63.8672 3.177
63.8975 3.073
63.9278 2.917
63.9580 3.073
63.9883 3.021
64.0186 2.969
64.0489 3.073
64.0791 2.604
64.1094 2.812
64.1397 3.073
64.1700 3.281
64.2003 2.760
64.2305 2.708
64.2608 2.240
64.2911 3.021
64.3214 3.594
64.3517 2.812
64.3819 3.021
64.4122 2.500
64.4425 1.927
64.4728 1.875
64.5031 1.979
64.5333 2.500
64.5636 3.125
64.5939 2.031
64.6242 2.500
64.6544 2.448
64.6847 2.083
64.7150 2.292
64.7453 2.031
64.7756 2.396
64.8058 2.969
64.8361 2.760
64.8664 2.708
64.8967 2.344
64.9270 2.552
64.9572 2.135
64.9875 2.240
65.0178 3.021
65.0481 2.396
65.0783 3.021
65.1086 2.865
65.1389 3.490
65.1692 2.760
65.1995 3.177
65.2297 2.708
65.2600 3.021
65.2903 2.135
65.3206 2.135
65.3509 2.500
65.3811 2.500
65.4114 2.135
65.4417 2.552
65.4720 2.344
65.5022 3.073
65.5325 2.865
65.5628 3.698
65.5931 3.854
65.6234 2.812
65.6536 3.490
65.6839 2.344
65.7142 2.500
65.7445 3.229
65.7748 2.812
65.8050 2.969
65.8353 3.073
65.8656 2.865
65.8959 3.125
65.9261 3.490
65.9564 4.271
65.9867 4.323
66.0170 4.531
66.0473 4.635
66.0775 3.177
66.1078 4.583
66.1381 4.010
66.1684 4.479
66.1987 5.312
66.2289 4.531
66.2592 5.052
66.2895 4.687
66.3198 4.271
66.3500 4.375
66.3803 4.271
66.4106 4.375
66.4409 4.115
66.4712 4.531
66.5014 3.958
66.5317 4.844
66.5620 4.740
66.5923 4.115
66.6226 4.271
66.6528 4.635
66.6831 3.698
66.7134 4.010
66.7437 3.906
66.7739 3.333
66.8042 4.219
66.8345 3.229
66.8648 4.844
66.8951 3.750
66.9253 4.062
66.9556 4.115
66.9859 4.583
67.0162 3.958
67.0465 4.062
67.0767 4.531
67.1070 4.323
67.1373 4.531
67.1676 4.687
67.1978 5.729
67.2281 4.948
67.2584 5.000
67.2887 4.740
67.3190 5.885
67.3492 5.521
67.3795 6.146
67.4098 7.187
67.4401 7.500
67.4704 6.458
67.5006 8.281
67.5309 8.698
67.5612 7.448
67.5915 7.865
67.6218 8.906
67.6520 10.417
67.6823 9.844
67.7126 10.990
67.7429 10.990
67.7731 13.073
67.8034 12.760
67.8337 12.083
67.8640 13.385
67.8943 14.323
67.9245 11.667
67.9548 14.115
67.9851 11.354
68.0154 12.604
68.0457 12.500
68.0759 10.781
68.1062 10.260
68.1365 12.292
68.1668 9.740
68.1970 7.917
68.2273 8.385
68.2576 8.802
68.2879 6.875
68.3182 6.667
68.3484 7.031
68.3787 6.406
68.4090 7.604
68.4393 7.344
68.4696 6.667
68.4998 5.885
68.5301 5.104
68.5604 7.187
68.5907 6.146
68.6209 6.302
68.6512 6.615
68.6815 6.510
68.7118 6.458
68.7421 6.771
68.7723 6.667
68.8026 7.396
68.8329 6.667
68.8632 7.917
68.8935 7.240
68.9237 6.979
68.9540 7.396
68.9843 7.448
69.0146 7.500
69.0448 5.573
69.0751 8.021
69.1054 6.823
69.1357 7.135
69.1660 6.458
69.1962 6.510
69.2265 6.458
69.2568 5.000
69.2871 5.937
69.3174 5.521
69.3476 5.156
69.3779 4.740
69.4082 4.062
69.4385 5.417
69.4687 4.271
69.4990 2.969
69.5293 4.219
69.5596 4.271
69.5899 3.646
69.6201 3.021
69.6504 3.333
69.6807 3.854
69.7110 2.396
69.7413 2.552
69.7715 3.229
69.8018 2.656
69.8321 3.021
69.8624 2.812
69.8926 2.656
69.9229 2.812
69.9532 2.917
69.9835 2.448
70.0138 2.500
70.0440 2.969
70.0743 1.875
70.1046 2.396
70.1349 2.656
70.1652 2.552
70.1954 2.552
70.2257 2.240
70.2560 2.344
70.2863 2.135
70.3166 2.083
70.3468 1.927
70.3771 2.448
70.4074 2.656
70.4377 2.031
70.4679 1.615
70.4982 1.719
70.5285 2.708
70.5588 2.396
70.5891 1.927
70.6193 2.187
70.6496 1.927
70.6799 2.552
70.7102 1.979
70.7405 1.927
70.7707 1.771
70.8010 1.823
70.8313 1.719
70.8616 2.760
70.8918 1.562
70.9221 2.396
70.9524 2.135
70.9827 1.823
71.0130 1.823
71.0432 1.927
71.0735 1.875
71.1038 1.823
71.1341 1.562
71.1644 2.344
71.1946 1.771
71.2249 1.615
71.2552 1.719
71.2855 1.979
71.3157 2.344
71.3460 1.510
71.3763 1.615
71.4066 2.083
71.4369 2.083
71.4671 1.927
71.4974 1.562
71.5277 2.292
71.5580 2.083
71.5883 2.135
71.6185 1.875
71.6488 1.667
71.6791 2.187
71.7094 1.823
71.7396 1.302
71.7699 1.458
71.8002 1.875
71.8305 2.187
71.8608 1.719
71.8910 1.719
71.9213 1.979
71.9516 2.187
71.9819 2.187
72.0122 1.823
72.0424 1.719
72.0727 2.708
72.1030 2.031
72.1333 1.979
72.1635 2.031
72.1938 2.344
72.2241 2.708
72.2544 2.344
72.2847 2.240
72.3149 2.760
72.3452 3.333
72.3755 2.292
72.4058 2.500
72.4361 2.083
72.4663 2.604
72.4966 2.240
72.5269 2.865
72.5572 2.448
72.5874 2.448
72.6177 3.333
72.6480 2.187
72.6783 2.396
72.7086 2.552
72.7388 2.708
72.7691 2.708
72.7994 2.240
72.8297 2.708
72.8600 2.083
72.8902 1.875
72.9205 1.719
72.9508 1.823
72.9811 2.240
73.0113 1.823
73.0416 2.656
73.0719 1.667
73.1022 1.615
73.1325 1.667
73.1627 1.562
73.1930 1.771
73.2233 1.875
73.2536 1.771
73.2839 1.875
73.3141 1.302
73.3444 2.031
73.3747 1.354
73.4050 1.875
73.4353 1.615
73.4655 1.667
73.4958 1.302
73.5261 1.250
73.5564 1.458
73.5866 1.771
73.6169 1.667
73.6472 1.094
73.6775 1.354
73.7078 1.458
73.7380 1.302
73.7683 2.187
73.7986 2.031
73.8289 1.667
73.8592 1.562
73.8894 1.094
73.9197 1.875
73.9500 1.094
73.9803 2.292
74.0105 1.615
74.0408 1.771
74.0711 1.927
74.1014 2.135
74.1317 1.562
74.1619 1.250
74.1922 1.042
74.2225 2.031
74.2528 1.927
74.2831 2.187
74.3133 1.510
74.3436 2.083
74.3739 1.354
74.4042 1.667
74.4344 1.458
74.4647 0.990
74.4950 1.562
74.5253 1.927
74.5556 1.615
74.5858 1.406
74.6161 1.146
74.6464 1.719
74.6767 1.198
74.7070 1.615
74.7372 1.198
74.7675 1.719
74.7978 1.823
74.8281 1.823
74.8583 1.667
74.8886 1.562
74.9189 1.719
74.9492 1.458
74.9795 1.667
75.0097 1.458
75.0400 1.354
75.0703 1.354
75.1006 1.667
75.1309 1.719
75.1611 1.458
75.1914 2.135
75.2217 1.354
75.2520 1.458
75.2822 1.198
75.3125 1.615
75.3428 1.771
75.3731 1.458
75.4034 1.667
75.4336 1.094
75.4639 1.302
75.4942 1.302
75.5245 1.823
75.5548 1.406
75.5850 1.719
75.6153 1.719
75.6456 1.458
75.6759 1.771
75.7061 1.823
75.7364 1.458
75.7667 2.187
75.7970 1.406
75.8273 1.615
75.8575 1.354
75.8878 1.667
75.9181 1.562
75.9484 1.667
75.9787 1.667
76.0089 1.823
76.0392 2.031
76.0695 2.031
76.0998 1.823
76.1301 2.135
76.1603 1.979
76.1906 2.031
76.2209 1.458
76.2512 1.667
76.2814 1.615
76.3117 2.135
76.3420 1.510
76.3723 2.187
76.4026 2.604
76.4328 2.604
76.4631 1.979
76.4934 2.083
76.5237 2.812
76.5540 2.292
76.5842 2.187
76.6145 2.135
76.6448 2.969
76.6751 2.917
76.7053 2.760
76.7356 2.448
76.7659 2.708
76.7962 2.708
76.8265 3.021
76.8567 3.073
76.8870 2.135
76.9173 2.552
76.9476 3.125
76.9779 2.187
77.0081 2.760
77.0384 2.604
77.0687 2.969
77.0990 3.333
77.1292 2.656
77.1595 2.656
77.1898 2.500
77.2201 2.135
77.2504 2.031
77.2806 2.604
77.3109 1.927
77.3412 2.135
77.3715 1.875
77.4018 2.292
77.4320 1.406
77.4623 2.552
77.4926 2.135
77.5229 1.510
77.5531 1.250
77.5834 1.875
77.6137 2.187
77.6440 2.187
77.6743 2.240
77.7045 2.448
77.7348 1.823
77.7651 1.667
77.7954 1.771
77.8257 1.667
77.8559 2.135
77.8862 2.083
77.9165 1.094
77.9468 1.667
77.9770 1.667
78.0073 1.354
78.0376 1.771
78.0679 1.667
78.0982 1.823
78.1284 1.667
78.1587 1.458
78.1890 1.510
78.2193 1.875
78.2496 1.562
78.2798 1.562
78.3101 1.875
78.3404 1.250
78.3707 1.354
78.4009 1.562
78.4312 1.146
78.4615 1.354
78.4918 1.302
78.5221 1.562
78.5523 1.250
78.5826 1.667
78.6129 1.510
78.6432 1.198
78.6735 1.562
78.7037 1.615
78.7340 0.781
78.7643 1.198
78.7946 1.615
78.8248 1.406
78.8551 1.667
78.8854 1.302
78.9157 1.510
78.9460 1.354
78.9762 1.094
79.0065 1.302
79.0368 1.771
79.0671 1.510
79.0974 1.250
79.1276 1.823
79.1579 1.562
79.1882 1.562
79.2185 1.198
79.2488 1.510
79.2790 1.719
79.3093 1.146
79.3396 1.198
79.3699 1.146
79.4001 1.198
79.4304 1.875
79.4607 1.458
79.4910 1.667
79.5213 1.302
79.5515 1.719
79.5818 1.406
79.6121 1.667
79.6424 1.615
79.6727 2.135
79.7029 1.667
79.7332 1.302
79.7635 1.406
79.7938 1.875
79.8240 1.354
79.8543 1.354
79.8846 1.250
79.9149 1.719
79.9452 1.198
79.9754 1.719
80.0057 0.937
80.0360 1.406
80.0663 1.510
80.0966 1.198
80.1268 1.250
80.1571 1.667
80.1874 1.406
80.2177 1.458
80.2479 1.510
80.2782 1.406
80.3085 1.562
80.3388 0.990
80.3691 1.771
80.3993 1.667
80.4296 1.198
80.4599 1.302
80.4902 1.667
80.5205 2.031
80.5507 1.875
80.5810 1.667
80.6113 1.979
80.6416 1.823
80.6718 1.667
80.7021 1.562
80.7324 1.510
80.7627 1.562
80.7930 1.719
80.8232 1.250
80.8535 1.406
80.8838 2.135
80.9141 1.719
80.9444 1.927
80.9746 1.562
81.0049 1.458
81.0352 1.875
81.0655 2.031
81.0957 2.448
81.1260 1.719
81.1563 1.927
81.1866 2.500
81.2169 2.708
81.2471 1.979
81.2774 1.875
81.3077 2.240
81.3380 2.969
81.3683 1.667
81.3985 2.396
81.4288 2.187
81.4591 2.708
81.4894 2.448
81.5196 2.135
81.5499 1.719
81.5802 2.031
81.6105 2.344
81.6408 1.823
81.6710 2.135
81.7013 2.448
81.7316 2.917
81.7619 1.719
81.7922 2.031
81.8224 2.135
81.8527 1.771
81.8830 1.615
81.9133 1.198
81.9436 1.927
81.9738 2.187
82.0041 1.406
82.0344 1.510
82.0647 1.302
82.0949 1.979
82.1252 1.667
82.1555 1.615
82.1858 1.615
82.2161 1.771
82.2463 1.667
82.2766 1.562
82.3069 1.406
82.3372 0.885
82.3675 1.771
82.3977 1.250
82.4280 1.458
82.4583 2.031
82.4886 1.719
82.5188 1.667
82.5491 1.094
82.5794 1.198
82.6097 2.448
82.6400 1.719
82.6702 1.771
82.7005 1.510
82.7308 1.667
82.7611 1.562
82.7914 1.823
82.8216 1.406
82.8519 1.042
82.8822 1.510
82.9125 1.667
82.9427 1.458
82.9730 1.354
83.0033 1.510
83.0336 1.510
83.0639 1.458
83.0941 1.302
83.1244 1.406
83.1547 1.458
83.1850 1.458
83.2153 1.042
83.2455 1.667
83.2758 1.354
83.3061 1.406
83.3364 1.562
83.3666 1.302
83.3969 1.406
83.4272 1.406
83.4575 1.667
83.4878 1.302
83.5180 1.302
83.5483 1.146
83.5786 1.562
83.6089 1.354
83.6392 1.406
83.6694 1.302
83.6997 1.667
83.7300 1.458
83.7603 1.302
83.7905 1.302
83.8208 1.510
83.8511 1.406
83.8814 1.406
83.9117 1.198
83.9419 1.354
83.9722 1.719
84.0025 1.198
84.0328 1.458
84.0631 1.354
84.0933 1.979
84.1236 1.927
84.1539 1.302
84.1842 1.510
84.2144 1.719
84.2447 1.875
84.2750 1.250
84.3053 2.031
84.3356 1.094
84.3658 1.250
84.3961 1.302
84.4264 0.937
84.4567 1.406
84.4870 1.719
84.5172 1.406
84.5475 1.198
84.5778 1.667
84.6081 1.510
84.6383 1.510
84.6686 1.302
84.6989 1.198
84.7292 1.146
84.7595 1.406
84.7897 1.094
84.8200 1.458
84.8503 1.354
84.8806 1.354
84.9109 1.198
84.9411 1.042
84.9714 1.458
85.0017 1.146
85.0320 1.198
85.0623 1.875
85.0925 1.667
85.1228 1.719
85.1531 1.771
85.1834 1.354
85.2136 1.042
85.2439 1.198
85.2742 1.510
85.3045 1.562
85.3348 1.302
85.3650 1.667
85.3953 1.510
85.4256 1.406
85.4559 1.354
85.4862 1.146
85.5164 0.990
85.5467 1.354
85.5770 1.510
85.6073 1.719
85.6375 1.146
85.6678 1.615
85.6981 1.094
85.7284 1.302
85.7587 1.719
85.7889 1.354
85.8192 1.198
85.8495 1.510
85.8798 1.458
85.9101 1.667
85.9403 1.510
85.9706 1.875
86.0009 1.771
86.0312 1.198
86.0614 1.562
86.0917 2.031
86.1220 1.667
86.1523 1.458
86.1826 1.198
86.2128 1.875
86.2431 1.406
86.2734 2.031
86.3037 1.354
86.3340 1.562
86.3642 1.510
86.3945 1.458
86.4248 1.667
86.4551 0.990
86.4853 1.458
86.5156 1.458
86.5459 1.458
86.5762 1.198
86.6065 1.562
86.6367 1.927
86.6670 1.771
86.6973 1.354
86.7276 1.458
86.7579 1.406
86.7881 1.667
86.8184 1.406
86.8487 1.198
86.8790 1.875
86.9092 1.302
86.9395 1.667
86.9698 1.198
87.0001 1.615
87.0304 1.302
87.0606 1.615
87.0909 1.615
87.1212 1.406
87.1515 1.667
87.1818 1.198
87.2120 1.406
87.2423 1.719
87.2726 1.562
87.3029 1.042
87.3331 1.042
87.3634 1.458
87.3937 1.927
87.4240 1.302
87.4543 1.406
87.4845 1.667
87.5148 1.562
87.5451 1.562
87.5754 1.823
87.6057 1.562
87.6359 1.562
87.6662 1.510
87.6965 1.562
87.7268 1.250
87.7571 1.875
87.7873 1.562
87.8176 1.458
87.8479 1.510
87.8782 1.771
87.9084 1.979
87.9387 1.458
87.9690 1.667
87.9993 1.510
88.0296 1.667
88.0598 2.135
88.0901 1.927
88.1204 2.083
88.1507 1.615
88.1810 1.771
88.2112 1.667
88.2415 1.823
88.2718 1.875
88.3021 1.146
88.3323 0.990
88.3626 1.719
88.3929 1.823
88.4232 1.823
88.4535 2.344
88.4837 1.562
88.5140 1.719
88.5443 2.344
88.5746 1.510
88.6049 1.927
88.6351 2.240
88.6654 2.344
88.6957 1.719
88.7260 1.771
88.7562 1.510
88.7865 1.771
88.8168 2.031
88.8471 2.187
88.8774 2.240
88.9076 2.344
88.9379 2.708
88.9682 2.604
88.9985 2.552
89.0288 2.031
89.0590 2.760
89.0893 2.865
89.1196 3.229
89.1499 2.552
89.1801 2.760
89.2104 3.281
89.2407 3.177
89.2710 2.708
89.3013 3.958
89.3315 2.917
89.3618 3.750
89.3921 3.542
89.4224 4.115
89.4527 3.646
89.4829 4.062
89.5132 3.854
89.5435 3.854
89.5738 4.219
89.6040 4.271
89.6343 4.062
89.6646 4.167
89.6949 4.167
89.7252 4.219
89.7554 3.906
89.7857 2.865
89.8160 3.073
89.8463 3.177
89.8766 3.125
89.9068 4.062
89.9371 3.281
89.9674 2.812
89.9977 2.812
90.0279 3.333
90.0582 2.656
90.0885 2.552
90.1188 2.812
90.1491 2.396
90.1793 2.292
90.2096 2.031
90.2399 2.292
90.2702 2.760
90.3005 2.812
90.3307 2.135
90.3610 2.240
90.3913 2.604
90.4216 1.719
90.4518 1.979
90.4821 2.031
90.5124 2.240
90.5427 2.135
90.5730 2.031
90.6032 2.083
90.6335 1.562
90.6638 2.135
90.6941 2.187
90.7244 1.667
90.7546 1.875
90.7849 1.823
90.8152 1.562
90.8455 1.562
90.8758 1.771
90.9060 2.240
90.9363 1.562
90.9666 1.354
90.9969 2.135
91.0271 2.240
91.0574 1.823
91.0877 1.719
91.1180 1.562
91.1483 1.562
91.1785 1.875
91.2088 1.719
91.2391 1.146
91.2694 1.719
91.2997 1.823
91.3299 1.406
91.3602 1.667
91.3905 1.719
91.4208 1.562
91.4510 1.667
91.4813 2.083
91.5116 1.510
91.5419 1.667
91.5722 2.187
91.6024 1.250
91.6327 1.510
91.6630 1.771
91.6933 2.083
91.7236 1.510
91.7538 1.667
91.7841 2.187
91.8144 1.302
91.8447 1.979
91.8749 1.250
91.9052 2.187
91.9355 1.354
91.9658 1.771
91.9961 1.615
92.0263 2.240
92.0566 1.667
92.0869 1.406
92.1172 2.187
92.1475 1.771
92.1777 1.667
92.2080 1.771
92.2383 2.187
92.2686 2.031
92.2988 2.448
92.3291 2.135
92.3594 2.500
92.3897 2.031
92.4200 2.135
92.4502 1.667
92.4805 2.969
92.5108 1.823
92.5411 1.875
92.5714 1.927
92.6016 3.542
92.6319 1.979
92.6622 3.125
92.6925 2.240
92.7227 2.760
92.7530 2.865
92.7833 1.979
92.8136 2.187
92.8439 2.344
92.8741 1.719
92.9044 2.240
92.9347 1.875
92.9650 2.344
92.9953 2.656
93.0255 2.135
93.0558 1.979
93.0861 1.823
93.1164 2.135
93.1466 2.031
93.1769 1.562
93.2072 1.979
93.2375 1.719
93.2678 1.875
93.2980 2.448
93.3283 2.240
93.3586 1.667
93.3889 1.250
93.4192 2.135
93.4494 1.458
93.4797 1.979
93.5100 1.771
93.5403 1.667
93.5706 2.500
93.6008 1.667
93.6311 1.771
93.6614 1.719
93.6917 2.344
93.7219 1.771
93.7522 1.667
93.7825 1.719
93.8128 2.135
93.8431 1.510
93.8733 2.135
93.9036 1.667
93.9339 2.656
93.9642 2.448
93.9945 1.823
94.0247 2.187
94.0550 2.135
94.0853 2.083
94.1156 2.031
94.1458 1.927
94.1761 1.823
94.2064 2.292
94.2367 2.552
94.2670 2.292
94.2972 2.344
94.3275 2.240
94.3578 1.771
94.3881 2.292
94.4184 2.083
94.4486 1.510
94.4789 2.656
94.5092 2.552
94.5395 2.552
94.5697 2.865
94.6000 2.187
94.6303 2.917
94.6606 3.229
94.6909 2.344
94.7211 3.177
94.7514 3.021
94.7817 3.229
94.8120 2.604
94.8423 3.177
94.8725 3.073
94.9028 2.760
94.9331 3.594
94.9634 3.177
94.9936 3.229
95.0239 3.906
95.0542 4.167
95.0845 3.646
95.1148 3.542
95.1450 4.427
95.1753 2.812
95.2056 4.687
95.2359 4.219
95.2662 3.229
95.2964 3.958
95.3267 3.490
95.3570 4.219
95.3873 3.750
95.4175 3.281
95.4478 3.437
95.4781 3.594
95.5084 3.698
95.5387 3.437
95.5689 2.708
95.5992 3.021
95.6295 3.281
95.6598 2.969
95.6901 3.594
95.7203 3.125
95.7506 2.865
95.7809 2.969
95.8112 2.865
95.8414 2.708
95.8717 1.979
95.9020 2.708
95.9323 2.240
95.9626 2.240
95.9928 2.240
96.0231 2.344
96.0534 2.240
96.0837 1.615
96.1140 2.240
96.1442 2.135
96.1745 1.771
96.2048 1.979
96.2351 2.292
96.2653 2.240
96.2956 2.292
96.3259 1.562
96.3562 2.135
96.3865 2.135
96.4167 1.979
96.4470 1.823
96.4773 2.396
96.5076 2.448
96.5379 1.354
96.5681 1.771
96.5984 2.083
96.6287 2.604
96.6590 1.406
96.6893 2.448
96.7195 2.448
96.7498 1.771
96.7801 2.083
96.8104 1.771
96.8406 1.250
96.8709 2.396
96.9012 1.667
96.9315 1.771
96.9618 1.198
96.9920 1.979
97.0223 1.875
97.0526 1.354
97.0829 2.135
97.1132 1.458
97.1434 0.990
97.1737 2.083
97.2040 1.562
97.2343 1.667
97.2645 2.292
97.2948 1.979
97.3251 1.719
97.3554 1.979
97.3857 1.823
97.4159 1.771
97.4462 2.240
97.4765 1.406
97.5068 1.927
97.5371 1.979
97.5673 1.562
97.5976 1.406
97.6279 1.510
97.6582 2.240
97.6884 1.510
97.7187 2.083
97.7490 1.667
97.7793 2.448
97.8096 1.146
97.8398 2.500
97.8701 1.510
97.9004 2.135
97.9307 1.771
97.9610 2.292
97.9912 1.875
98.0215 2.135
98.0518 2.396
98.0821 2.292
98.1123 1.510
98.1426 2.344
98.1729 2.240
98.2032 1.875
98.2335 1.771
98.2637 2.656
98.2940 2.083
98.3243 2.656
98.3546 2.500
98.3849 2.344
98.4151 1.875
98.4454 2.604
98.4757 3.490
98.5060 2.500
98.5362 2.760
98.5665 2.760
98.5968 2.500
98.6271 3.385
98.6574 2.656
98.6876 3.177
98.7179 2.656
98.7482 2.240
98.7785 2.448
98.8088 2.969
98.8390 2.448
98.8693 2.604
98.8996 2.344
98.9299 2.135
98.9601 1.823
98.9904 2.292
99.0207 2.708
99.0510 2.500
99.0813 2.240
99.1115 2.240
99.1418 2.240
99.1721 2.135
99.2024 2.083
99.2327 2.031
99.2629 2.604
99.2932 2.344
99.3235 1.510
99.3538 1.771
99.3841 1.615
99.4143 2.187
99.4446 1.823
99.4749 1.719
99.5052 2.344
99.5354 1.771
99.5657 2.135
99.5960 1.979
99.6263 2.031
99.6566 1.354
99.6868 1.458
99.7171 1.615
99.7474 1.198
99.7777 1.146
99.8080 1.823
99.8382 2.135
99.8685 2.396
99.8988 1.302
99.9291 1.250
99.9593 2.240
99.9896 1.406
100.0199 1.875
100.0502 1.458
100.0805 2.031
100.1107 1.823
100.1410 1.562
100.1713 1.667
100.2016 1.615
100.2319 1.302
100.2621 1.927
100.2924 1.458
100.3227 1.458
100.3530 2.187
100.3832 1.250
100.4135 1.667
100.4438 1.510
100.4741 1.719
100.5044 1.406
100.5346 1.823
100.5649 1.458
100.5952 1.562
100.6255 1.875
100.6558 1.458
100.6860 1.302
100.7163 1.667
100.7466 1.667
100.7769 1.875
100.8071 1.719
100.8374 1.823
100.8677 1.302
100.8980 1.510
100.9283 1.250
100.9585 1.667
100.9888 2.031
101.0191 1.719
101.0494 1.562
101.0797 1.354
101.1099 1.458
101.1402 2.135
101.1705 1.146
101.2008 1.562
101.2310 1.979
101.2613 2.031
101.2916 1.875
101.3219 1.875
101.3522 2.344
101.3824 1.146
101.4127 1.875
101.4430 2.135
101.4733 1.354
101.5036 1.979
101.5338 1.354
101.5641 1.875
101.5944 1.771
101.6247 1.302
101.6549 1.875
101.6852 1.771
101.7155 1.979
101.7458 1.719
101.7761 1.146
101.8063 1.667
101.8366 1.667
101.8669 1.302
101.8972 2.344
101.9275 2.396
101.9577 1.615
101.9880 1.510
102.0183 2.760
102.0486 1.510
102.0788 1.354
102.1091 2.135
102.1394 1.510
102.1697 1.771
102.2000 1.510
102.2302 1.875
102.2605 2.187
102.2908 1.979
102.3211 2.396
102.3514 2.083
102.3816 1.875
102.4119 2.448
102.4422 2.396
102.4725 1.927
102.5028 1.562
102.5330 2.448
102.5633 2.187
102.5936 2.031
102.6239 2.396
102.6541 2.396
102.6844 2.552
102.7147 2.656
102.7450 2.396
102.7753 2.396
102.8055 2.760
102.8358 2.656
102.8661 2.656
102.8964 2.240
102.9267 2.448
102.9569 2.240
102.9872 3.125
103.0175 2.344
103.0478 2.500
103.0780 3.073
103.1083 3.021
103.1386 2.344
103.1689 3.021
103.1992 2.656
103.2294 2.292
103.2597 2.812
103.2900 2.135
103.3203 2.187
103.3506 2.500
103.3808 1.927
103.4111 2.344
103.4414 2.448
103.4717 2.396
103.5019 2.187
103.5322 2.552
103.5625 3.073
103.5928 1.927
103.6231 2.500
103.6533 2.396
103.6836 2.500
103.7139 2.448
103.7442 2.656
103.7745 2.969
103.8047 3.594
103.8350 2.656
103.8653 3.437
103.8956 3.177
103.9258 3.125
103.9561 2.500
103.9864 3.021
104.0167 3.229
104.0470 3.073
104.0772 3.437
104.1075 3.125
104.1378 2.760
104.1681 3.437
104.1984 3.750
104.2286 2.969
104.2589 4.115
104.2892 3.490
104.3195 2.865
104.3497 2.656
104.3800 3.073
104.4103 2.865
104.4406 2.917
104.4709 3.229
104.5011 2.812
104.5314 3.542
104.5617 3.437
104.5920 2.604
104.6223 2.500
104.6525 3.177
104.6828 2.187
104.7131 2.344
104.7434 1.979
104.7736 2.448
104.8039 1.667
104.8342 2.344
104.8645 2.240
104.8948 2.135
104.9250 1.875
104.9553 1.823
104.9856 1.458
105.0159 1.927
105.0462 1.771
105.0764 2.396
105.1067 1.927
105.1370 1.823
105.1673 1.406
105.1975 2.031
105.2278 2.031
105.2581 1.667
105.2884 1.667
105.3187 1.771
105.3489 1.979
105.3792 2.187
105.4095 2.031
105.4398 1.823
105.4701 1.250
105.5003 1.979
105.5306 1.667
105.5609 1.927
105.5912 1.302
105.6215 1.667
105.6517 1.615
105.6820 1.458
105.7123 1.823
105.7426 1.771
105.7728 1.198
105.8031 1.771
105.8334 1.979
105.8637 1.198
105.8940 1.667
105.9242 1.615
105.9545 1.615
105.9848 2.031
106.0151 1.615
106.0454 1.719
106.0756 1.771
106.1059 1.302
106.1362 1.615
106.1665 1.458
106.1967 2.031
106.2270 1.875
106.2573 1.979
106.2876 1.719
106.3179 1.615
106.3481 1.510
106.3784 1.719
106.4087 1.354
106.4390 1.875
106.4693 1.719
106.4995 1.562
106.5298 1.094
106.5601 1.406
106.5904 1.510
106.6206 1.510
106.6509 2.031
106.6812 1.198
106.7115 1.667
106.7418 1.510
106.7720 1.667
106.8023 1.719
106.8326 1.667
106.8629 1.406
106.8932 1.458
106.9234 1.458
106.9537 1.458
106.9840 1.667
107.0143 2.135
107.0445 1.667
107.0748 1.823
107.1051 1.927
107.1354 1.562
107.1657 1.979
107.1959 1.875
107.2262 1.875
107.2565 1.354
107.2868 1.667
107.3171 1.562
107.3473 1.771
107.3776 2.031
107.4079 1.302
107.4382 2.135
107.4684 2.031
107.4987 1.458
107.5290 1.510
107.5593 1.667
107.5896 1.510
107.6198 1.510
107.6501 2.031
107.6804 2.031
107.7107 1.667
107.7410 2.083
107.7712 1.406
107.8015 1.458
107.8318 2.031
107.8621 2.344
107.8923 1.510
107.9226 1.458
107.9529 0.885
107.9832 1.979
108.0135 2.083
108.0437 1.667
108.0740 2.031
108.1043 1.615
108.1346 2.292
108.1649 1.458
108.1951 1.615
108.2254 2.083
108.2557 1.979
108.2860 1.719
108.3163 2.135
108.3465 1.771
108.3768 1.771
108.4071 2.240
108.4374 1.615
108.4676 1.406
108.4979 1.615
108.5282 1.823
108.5585 1.510
108.5888 1.302
108.6190 2.031
108.6493 1.510
108.6796 1.562
108.7099 1.250
108.7402 1.406
108.7704 1.198
108.8007 1.771
108.8310 1.719
108.8613 1.875
108.8915 1.667
108.9218 2.135
108.9521 1.771
108.9824 1.927
109.0127 1.562
109.0429 1.562
109.0732 1.875
109.1035 1.667
109.1338 2.135
109.1641 1.042
109.1943 1.510
109.2246 1.354
109.2549 1.406
109.2852 2.031
109.3154 1.823
109.3457 1.458
109.3760 1.354
109.4063 1.927
109.4366 1.823
109.4668 1.771
109.4971 1.406
109.5274 2.187
109.5577 0.990
109.5880 1.823
109.6182 2.708
109.6485 2.031
109.6788 1.562
109.7091 2.031
109.7393 1.667
109.7696 2.083
109.7999 2.083
109.8302 1.771
109.8605 1.719
109.8907 1.667
109.9210 2.708
109.9513 2.083
109.9816 2.031
110.0119 2.187
110.0421 1.823
110.0724 1.562
110.1027 2.500
110.1330 2.656
110.1632 2.656
110.1935 1.927
110.2238 2.240
110.2541 2.292
110.2844 1.823
110.3146 3.281
110.3449 2.917
110.3752 1.771
110.4055 2.187
110.4358 2.708
110.4660 2.448
110.4963 2.552
110.5266 2.760
110.5569 1.927
110.5871 2.865
110.6174 1.875
110.6477 2.135
110.6780 2.083
110.7083 2.187
110.7385 2.292
110.7688 1.927
110.7991 2.083
110.8294 1.823
110.8597 1.979
110.8899 2.552
110.9202 1.927
110.9505 1.771
110.9808 1.406
111.0110 2.396
111.0413 2.083
111.0716 1.875
111.1019 1.771
111.1322 2.396
111.1624 1.615
111.1927 1.719
111.2230 1.979
111.2533 1.719
111.2836 1.615
111.3138 1.458
111.3441 1.719
111.3744 1.719
111.4047 2.187
111.4350 1.979
111.4652 1.823
111.4955 1.458
111.5258 1.875
111.5561 2.135
111.5863 1.302
111.6166 1.875
111.6469 2.031
111.6772 1.615
111.7075 2.031
111.7377 1.562
111.7680 1.771
111.7983 1.458
111.8286 2.292
111.8589 2.135
111.8891 1.198
111.9194 1.458
111.9497 1.458
111.9800 1.562
112.0102 1.458
112.0405 1.875
112.0708 1.771
112.1011 1.771
112.1314 1.458
112.1616 2.083
112.1919 1.719
112.2222 1.562
112.2525 1.354
112.2828 1.615
112.3130 1.719
112.3433 1.198
112.3736 1.458
112.4039 1.667
112.4341 1.667
112.4644 1.354
112.4947 1.823
112.5250 1.406
112.5553 2.240
112.5855 1.458
112.6158 1.771
112.6461 2.396
112.6764 1.250
112.7067 1.927
112.7369 1.719
112.7672 1.719
112.7975 1.719
112.8278 1.302
112.8580 1.719
112.8883 1.771
112.9186 2.292
112.9489 1.042
112.9792 1.458
113.0094 1.562
113.0397 1.927
113.0700 1.198
113.1003 1.510
113.1306 1.250
113.1608 1.406
113.1911 1.771
113.2214 1.719
113.2517 1.406
113.2819 1.927
113.3122 1.406
113.3425 1.875
113.3728 1.510
113.4031 1.510
113.4333 1.875
113.4636 1.354
113.4939 1.875
113.5242 1.771
113.5545 1.667
113.5847 1.458
113.6150 1.719
113.6453 1.615
113.6756 1.510
113.7058 1.354
113.7361 1.927
113.7664 1.406
113.7967 1.510
113.8270 2.552
113.8572 1.458
113.8875 1.979
113.9178 1.927
113.9481 1.875
113.9784 1.771
114.0086 1.823
114.0389 1.250
114.0692 1.667
114.0995 1.458
114.1298 1.719
114.1600 1.771
114.1903 1.927
114.2206 1.771
114.2509 2.031
114.2811 1.562
114.3114 1.823
114.3417 1.823
114.3720 1.875
114.4023 1.823
114.4325 1.719
114.4628 1.771
114.4931 1.615
114.5234 1.615
114.5537 1.927
114.5839 1.615
114.6142 1.823
114.6445 1.615
114.6748 2.240
114.7050 1.198
114.7353 2.292
114.7656 1.927
114.7959 1.094
114.8262 2.448
114.8564 1.927
114.8867 1.302
114.9170 2.500
114.9473 1.771
114.9776 1.823
115.0078 2.187
115.0381 2.083
115.0684 2.448
115.0987 2.083
115.1289 2.187
115.1592 2.187
115.1895 2.292
115.2198 1.875
115.2501 1.875
115.2803 2.187
115.3106 2.135
115.3409 2.500
115.3712 2.135
115.4015 2.240
115.4317 1.771
115.4620 2.708
115.4923 2.500
115.5226 2.083
115.5528 2.083
115.5831 2.292
115.6134 2.396
115.6437 3.177
115.6740 2.812
115.7042 2.500
115.7345 3.385
115.7648 2.396
115.7951 3.177
115.8254 3.385
115.8556 4.271
115.8859 3.333
115.9162 2.552
115.9465 3.750
115.9767 2.917
116.0070 2.552
116.0373 3.802
116.0676 3.437
116.0979 3.437
116.1281 3.750
116.1584 3.385
116.1887 3.281
116.2190 3.854
116.2493 2.969
116.2795 3.490
116.3098 3.281
116.3401 4.167
116.3704 3.854
116.4006 3.854
116.4309 3.333
116.4612 3.281
116.4915 3.021
116.5218 2.812
116.5520 4.010
116.5823 3.281
116.6126 3.594
116.6429 2.917
116.6732 3.333
116.7034 2.760
116.7337 2.396
116.7640 2.396
116.7943 3.281
116.8245 3.073
116.8548 3.073
116.8851 2.865
116.9154 3.333
116.9457 2.708
116.9759 2.292
117.0062 3.021
117.0365 3.490
117.0668 2.135
117.0971 2.604
117.1273 1.615
117.1576 2.448
117.1879 3.490
117.2182 2.448
117.2485 2.292
117.2787 1.615
117.3090 3.177
117.3393 2.448
117.3696 1.771
117.3998 2.240
117.4301 2.448
117.4604 1.771
117.4907 2.708
117.5210 2.187
117.5512 2.396
117.5815 2.083
117.6118 2.187
117.6421 2.240
117.6724 2.083
117.7026 2.187
117.7329 1.927
117.7632 2.187
117.7935 1.927
117.8237 2.135
117.8540 1.927
117.8843 1.823
117.9146 2.240
117.9449 2.240
117.9751 1.458
118.0054 1.615
118.0357 1.875
118.0660 1.823
118.0963 1.719
118.1265 1.562
118.1568 1.667
118.1871 1.615
118.2174 2.135
118.2476 1.094
118.2779 1.562
118.3082 1.667
118.3385 1.875
118.3688 1.927
118.3990 2.031
118.4293 1.667
118.4596 1.719
118.4899 1.667
118.5202 1.719
118.5504 2.448
118.5807 1.667
118.6110 1.719
118.6413 1.615
118.6715 1.562
118.7018 1.927
118.7321 1.302
118.7624 1.510
118.7927 2.292
118.8229 2.083
118.8532 1.927
118.8835 1.510
118.9138 1.354
118.9441 1.719
118.9743 1.562
119.0046 1.562
119.0349 1.771
119.0652 1.771
119.0954 2.135
119.1257 1.562
119.1560 1.719
119.1863 1.667
119.2166 1.510
119.2468 1.719
119.2771 1.562
119.3074 2.031
119.3377 1.406
119.3680 1.823
119.3982 1.667
119.4285 1.875
119.4588 1.250
119.4891 1.458
119.5193 2.031
119.5496 1.354
119.5799 2.135
119.6102 1.979
119.6405 1.510
119.6707 2.240
119.7010 2.135
119.7313 2.187
119.7616 1.771
119.7919 1.406
119.8221 1.719
119.8524 1.979
119.8827 1.927
119.9130 0.990
119.9433 1.823
119.9735 1.667
120.0038 2.135
