'Id: "" Comment: "" Operator: "Lab Manager" Anode: "Cu" Scantype: "Locked Coupled" TimePerStep: "19.2" X: "9999" Y: "9999" Z: "9999" 
10.0015 194.687
10.0318 186.979
10.0620 190.469
10.0923 173.490
10.1226 164.427
10.1529 148.646
10.1832 139.479
10.2134 135.937
10.2437 126.719
10.2740 121.198
10.3043 115.365
10.3346 110.573
10.3648 97.917
10.3951 96.979
10.4254 85.417
10.4557 84.531
10.4859 79.844
10.5162 72.292
10.5465 67.135
10.5768 64.427
10.6071 65.312
10.6373 57.604
10.6676 58.437
10.6979 53.437
10.7282 48.490
10.7585 49.635
10.7887 46.198
10.8190 45.052
10.8493 46.250
10.8796 39.687
10.9098 41.458
10.9401 41.771
10.9704 37.656
11.0007 40.573
11.0310 42.083
11.0612 37.083
11.0915 36.510
11.1218 34.427
11.1521 34.323
11.1824 33.854
11.2126 32.083
11.2429 31.250
11.2732 29.375
11.3035 32.240
11.3337 30.417
11.3640 30.937
11.3943 33.542
11.4246 35.104
11.4549 37.656
11.4851 36.510
11.5154 35.937
11.5457 30.885
11.5760 27.187
11.6063 24.271
11.6365 26.979
11.6668 23.854
11.6971 25.469
11.7274 23.177
11.7577 22.656
11.7879 21.146
11.8182 23.906
11.8485 20.312
11.8788 19.635
11.9090 21.510
11.9393 21.354
11.9696 19.115
11.9999 22.292
12.0302 22.031
12.0604 17.812
12.0907 19.740
12.1210 19.792
12.1513 20.156
12.1816 20.208
12.2118 18.021
12.2421 17.656
12.2724 16.510
12.3027 17.760
12.3329 18.333
12.3632 17.031
12.3935 16.042
12.4238 16.823
12.4541 17.500
12.4843 15.521
12.5146 15.000
12.5449 14.583
12.5752 15.885
12.6055 13.646
12.6357 13.802
12.6660 13.385
12.6963 15.104
12.7266 14.323
12.7568 14.115
12.7871 12.969
12.8174 13.750
12.8477 13.490
12.8780 11.354
12.9082 12.292
12.9385 12.656
12.9688 12.656
12.9991 12.917
13.0294 12.917
13.0596 11.562
13.0899 13.906
13.1202 12.344
13.1505 12.604
13.1807 11.510
13.2110 11.562
13.2413 11.406
13.2716 12.187
13.3019 12.917
13.3321 12.969
13.3624 11.094
13.3927 10.312
13.4230 11.719
13.4533 10.260
13.4835 11.667
13.5138 11.719
13.5441 10.469
13.5744 10.990
13.6046 11.667
13.6349 10.677
13.6652 11.198
13.6955 11.510
13.7258 11.250
13.7560 11.771
13.7863 12.552
13.8166 11.146
13.8469 12.292
13.8772 11.823
13.9074 10.833
13.9377 11.927
13.9680 10.729
13.9983 12.708
14.0285 11.667
14.0588 11.354
14.0891 10.833
14.1194 11.979
14.1497 11.615
14.1799 12.656
14.2102 13.385
14.2405 13.542
14.2708 13.594
14.3011 12.396
14.3313 13.437
14.3616 14.167
14.3919 13.802
14.4222 13.437
14.4524 12.500
14.4827 13.125
14.5130 13.125
14.5433 14.635
14.5736 14.219
14.6038 15.208
14.6341 13.177
14.6644 16.146
14.6947 14.896
14.7250 17.240
14.7552 15.937
14.7855 17.031
14.8158 16.927
14.8461 18.073
14.8764 17.292
14.9066 17.708
14.9369 18.073
14.9672 19.219
14.9975 19.375
15.0277 19.219
15.0580 20.312
15.0883 21.406
15.1186 20.990
15.1489 20.208
15.1791 19.062
15.2094 20.833
15.2397 19.792
15.2700 20.677
15.3003 21.562
15.3305 21.198
15.3608 20.469
15.3911 17.344
15.4214 19.531
15.4516 19.115
15.4819 19.062
15.5122 18.333
15.5425 19.896
15.5728 18.750
15.6030 18.594
15.6333 17.656
15.6636 20.781
15.6939 19.271
15.7242 19.896
15.7544 17.292
15.7847 19.115
15.8150 18.958
15.8453 18.021
15.8755 18.542
15.9058 18.333
15.9361 18.542
15.9664 18.333
15.9967 19.896
16.0269 17.448
16.0572 17.760
16.0875 19.479
16.1178 17.500
16.1481 16.823
16.1783 18.281
16.2086 17.083
16.2389 18.333
16.2692 17.656
16.2994 17.031
16.3297 16.719
16.3600 17.656
16.3903 17.448
16.4206 17.552
16.4508 16.927
16.4811 17.031
16.5114 17.187
16.5417 16.979
16.5720 16.979
16.6022 17.344
16.6325 15.677
16.6628 15.677
16.6931 15.260
16.7233 16.667
16.7536 15.052
16.7839 17.760
16.8142 16.302
16.8445 17.500
16.8747 18.229
16.9050 16.406
16.9353 16.823
16.9656 17.187
16.9959 17.083
17.0261 19.010
17.0564 17.344
17.0867 17.917
17.1170 18.177
17.1472 18.437
17.1775 16.927
17.2078 19.635
17.2381 15.729
17.2684 16.927
17.2986 15.417
17.3289 17.969
17.3592 15.833
17.3895 16.250
17.4198 15.156
17.4500 15.260
17.4803 14.948
17.5106 14.948
17.5409 13.906
17.5712 15.104
17.6014 14.115
17.6317 15.885
17.6620 13.021
17.6923 13.906
17.7225 16.042
17.7528 13.750
17.7831 13.177
17.8134 13.906
17.8437 12.865
17.8739 13.385
17.9042 13.854
17.9345 14.583
17.9648 13.490
17.9951 14.271
18.0253 14.115
18.0556 14.792
18.0859 12.604
18.1162 13.802
18.1464 13.646
18.1767 15.365
18.2070 14.948
18.2373 14.896
18.2676 14.271
18.2978 14.792
18.3281 13.906
18.3584 13.854
18.3887 14.635
18.4190 15.677
18.4492 15.365
18.4795 15.260
18.5098 15.365
18.5401 18.073
18.5703 15.781
18.6006 17.708
18.6309 18.958
18.6612 18.021
18.6915 15.833
18.7217 16.667
18.7520 16.042
18.7823 18.281
18.8126 18.802
18.8429 18.021
18.8731 17.500
18.9034 18.281
18.9337 18.333
18.9640 17.760
18.9942 17.344
19.0245 16.667
19.0548 17.031
19.0851 15.365
19.1154 16.354
19.1456 15.833
19.1759 15.573
19.2062 14.479
19.2365 14.844
19.2668 14.896
19.2970 15.208
19.3273 14.115
19.3576 12.812
19.3879 12.396
19.4181 11.562
19.4484 11.562
19.4787 12.396
19.5090 9.687
19.5393 10.833
19.5695 10.052
19.5998 12.031
19.6301 11.354
19.6604 9.583
19.6907 9.792
19.7209 10.052
19.7512 11.562
19.7815 10.052
19.8118 10.729
19.8420 8.594
19.8723 10.208
19.9026 9.583
19.9329 9.740
19.9632 9.740
19.9934 9.479
20.0237 10.417
20.0540 8.958
20.0843 9.219
20.1146 9.531
20.1448 8.385
20.1751 8.281
20.2054 9.531
20.2357 8.906
20.2659 8.750
20.2962 9.167
20.3265 8.385
20.3568 8.437
20.3871 9.219
20.4173 7.031
20.4476 7.240
20.4779 7.917
20.5082 7.552
20.5385 8.281
20.5687 7.604
20.5990 6.510
20.6293 6.823
20.6596 7.708
20.6899 7.604
20.7201 5.885
20.7504 6.927
20.7807 7.240
20.8110 6.250
20.8412 6.562
20.8715 6.823
20.9018 8.385
20.9321 8.333
20.9624 7.760
20.9926 7.812
21.0229 6.458
21.0532 7.865
21.0835 6.719
21.1138 8.073
21.1440 7.812
21.1743 7.865
21.2046 7.917
21.2349 7.500
21.2651 7.917
21.2954 6.823
21.3257 6.562
21.3560 6.823
21.3863 7.187
21.4165 6.562
21.4468 6.771
21.4771 5.833
21.5074 5.677
21.5377 5.365
21.5679 4.948
21.5982 7.031
21.6285 7.135
21.6588 6.250
21.6890 7.135
21.7193 6.198
21.7496 5.625
21.7799 5.677
21.8102 5.208
21.8404 6.406
21.8707 5.521
21.9010 4.948
21.9313 5.625
21.9616 5.937
21.9918 5.365
22.0221 5.521
22.0524 5.312
22.0827 5.573
22.1129 5.417
22.1432 5.781
22.1735 5.365
22.2038 5.104
22.2341 5.833
22.2643 7.344
22.2946 4.583
22.3249 5.625
22.3552 5.625
22.3855 6.198
22.4157 5.208
22.4460 5.885
22.4763 6.042
22.5066 5.833
22.5368 5.521
22.5671 5.729
22.5974 6.042
22.6277 6.562
22.6580 5.365
22.6882 5.990
22.7185 5.990
22.7488 5.990
22.7791 5.729
22.8094 5.104
22.8396 6.094
22.8699 5.469
22.9002 5.677
22.9305 6.771
22.9607 5.573
22.9910 6.771
23.0213 7.448
23.0516 6.406
23.0819 6.042
23.1121 8.281
23.1424 8.906
23.1727 8.750
23.2030 10.469
23.2333 8.177
23.2635 6.771
23.2938 8.021
23.3241 6.094
23.3544 7.448
23.3846 5.833
23.4149 6.250
23.4452 6.823
23.4755 7.708
23.5058 8.125
23.5360 7.344
23.5663 8.281
23.5966 6.406
23.6269 6.406
23.6572 7.135
23.6874 7.969
23.7177 6.146
23.7480 7.708
23.7783 6.823
23.8086 7.240
23.8388 8.229
23.8691 8.646
23.8994 7.656
23.9297 7.344
23.9599 8.125
23.9902 7.292
24.0205 8.281
24.0508 7.865
24.0811 9.583
24.1113 8.958
24.1416 8.958
24.1719 10.052
24.2022 8.542
24.2325 8.073
24.2627 9.375
24.2930 9.531
24.3233 8.229
24.3536 8.750
24.3838 10.885
24.4141 10.729
24.4444 10.000
24.4747 11.562
24.5050 10.417
24.5352 12.500
24.5655 10.677
24.5958 10.937
24.6261 10.469
24.6564 11.771
24.6866 12.344
24.7169 12.187
24.7472 12.552
24.7775 15.000
24.8077 13.073
24.8380 14.479
24.8683 14.792
24.8986 15.781
24.9289 13.854
24.9591 13.906
24.9894 13.906
25.0197 14.687
25.0500 15.833
25.0803 17.240
25.1105 17.552
25.1408 17.135
25.1711 19.323
25.2014 19.167
25.2316 19.687
25.2619 20.417
25.2922 20.469
25.3225 20.781
25.3528 21.510
25.3830 20.469
25.4133 20.833
25.4436 21.562
25.4739 22.865
25.5042 21.667
25.5344 22.240
25.5647 23.542
25.5950 23.281
25.6253 20.885
25.6555 22.083
25.6858 22.448
25.7161 22.812
25.7464 23.281
25.7767 21.562
25.8069 19.323
25.8372 24.479
25.8675 18.490
25.8978 18.385
25.9281 19.375
25.9583 17.344
25.9886 17.604
26.0189 20.260
26.0492 20.937
26.0794 17.552
26.1097 19.167
26.1400 17.396
26.1703 17.031
26.2006 16.875
26.2308 17.656
26.2611 18.073
26.2914 16.979
26.3217 18.750
26.3520 18.437
26.3822 18.333
26.4125 16.458
26.4428 15.156
26.4731 16.667
26.5034 18.542
26.5336 17.344
26.5639 17.656
26.5942 19.635
26.6245 17.552
26.6547 18.437
26.6850 18.542
26.7153 20.833
26.7456 21.458
26.7759 21.250
26.8061 22.031
26.8364 21.458
26.8667 25.417
26.8970 22.760
26.9273 25.208
26.9575 23.646
26.9878 24.740
27.0181 24.740
27.0484 23.229
27.0786 26.615
27.1089 26.458
27.1392 27.240
27.1695 23.906
27.1998 25.208
27.2300 25.521
27.2603 22.969
27.2906 23.646
27.3209 22.865
27.3512 23.698
27.3814 23.646
27.4117 24.479
27.4420 22.552
27.4723 22.344
27.5025 24.896
27.5328 25.312
27.5631 24.740
27.5934 22.760
27.6237 22.865
27.6539 20.729
27.6842 23.698
27.7145 22.344
27.7448 22.812
27.7751 22.500
27.8053 24.323
27.8356 22.656
27.8659 24.427
27.8962 22.865
27.9264 22.604
27.9567 24.375
27.9870 24.896
28.0173 22.083
28.0476 21.406
28.0778 23.750
28.1081 23.490
28.1384 23.802
28.1687 23.594
28.1990 23.281
28.2292 22.031
28.2595 23.542
28.2898 25.573
28.3201 25.312
28.3503 22.292
28.3806 24.271
28.4109 22.656
28.4412 25.000
28.4715 25.000
28.5017 22.292
28.5320 23.229
28.5623 23.229
28.5926 19.323
28.6229 21.927
28.6531 21.510
28.6834 23.125
28.7137 18.958
28.7440 16.927
28.7742 18.698
28.8045 16.875
28.8348 19.167
28.8651 19.115
28.8954 17.083
28.9256 14.427
28.9559 13.646
28.9862 15.521
29.0165 14.635
29.0468 13.906
29.0770 13.021
29.1073 11.875
29.1376 12.760
29.1679 11.250
29.1981 11.667
29.2284 10.729
29.2587 11.042
29.2890 10.000
29.3193 10.156
29.3495 8.750
29.3798 10.937
29.4101 9.323
29.4404 9.010
29.4707 7.865
29.5009 7.812
29.5312 9.375
29.5615 8.437
29.5918 8.542
29.6221 8.437
29.6523 7.031
29.6826 7.656
29.7129 8.594
29.7432 8.333
29.7734 7.135
29.8037 6.719
29.8340 7.708
29.8643 6.302
29.8946 7.500
29.9248 6.615
29.9551 6.771
29.9854 7.708
30.0157 7.344
30.0460 7.604
30.0762 5.990
30.1065 6.198
30.1368 6.719
30.1671 5.208
30.1973 7.240
30.2276 5.833
30.2579 7.135
30.2882 5.937
30.3185 7.187
30.3487 5.885
30.3790 6.094
30.4093 7.396
30.4396 6.771
30.4699 6.719
30.5001 5.573
30.5304 5.365
30.5607 5.573
30.5910 6.146
30.6212 6.510
30.6515 5.417
30.6818 5.573
30.7121 6.302
30.7424 6.198
30.7726 5.729
30.8029 6.406
30.8332 6.510
30.8635 6.562
30.8938 6.146
30.9240 5.885
30.9543 6.354
30.9846 6.302
31.0149 5.990
31.0451 7.552
31.0754 6.562
31.1057 7.448
31.1360 5.052
31.1663 5.833
31.1965 5.677
31.2268 6.458
31.2571 5.781
31.2874 5.208
31.3177 6.615
31.3479 5.365
31.3782 5.365
31.4085 6.146
31.4388 4.792
31.4690 4.792
31.4993 4.896
31.5296 4.167
31.5599 4.427
31.5902 4.792
31.6204 5.521
31.6507 5.990
31.6810 4.427
31.7113 5.312
31.7416 4.219
31.7718 5.000
31.8021 5.208
31.8324 4.583
31.8627 5.208
31.8929 4.896
31.9232 4.375
31.9535 4.479
31.9838 4.062
32.0141 5.156
32.0443 5.000
32.0746 5.469
32.1049 4.427
32.1352 4.115
32.1655 4.167
32.1957 5.156
32.2260 4.792
32.2563 4.167
32.2866 4.687
32.3169 5.677
32.3471 4.531
32.3774 4.740
32.4077 5.417
32.4380 5.000
32.4682 4.375
32.4985 4.896
32.5288 4.948
32.5591 6.302
32.5894 6.562
32.6196 7.031
32.6499 7.083
32.6802 7.656
32.7105 7.083
32.7408 6.927
32.7710 7.917
32.8013 7.135
32.8316 6.250
32.8619 5.469
32.8921 5.885
32.9224 6.615
32.9527 6.146
32.9830 5.000
33.0133 5.990
33.0435 5.937
33.0738 5.885
33.1041 5.937
33.1344 5.208
33.1647 4.896
33.1949 5.937
33.2252 6.094
33.2555 5.365
33.2858 4.583
33.3160 4.844
33.3463 5.937
33.3766 6.094
33.4069 5.312
33.4372 5.781
33.4674 5.833
33.4977 6.198
33.5280 5.052
33.5583 5.208
33.5886 4.271
33.6188 5.417
33.6491 4.792
33.6794 5.000
33.7097 4.792
33.7399 5.260
33.7702 5.677
33.8005 4.479
33.8308 6.562
33.8611 6.354
33.8913 5.573
33.9216 4.427
33.9519 5.990
33.9822 6.042
34.0125 5.937
34.0427 5.937
34.0730 5.573
34.1033 6.146
34.1336 5.365
34.1638 5.990
34.1941 5.469
34.2244 6.146
34.2547 4.896
34.2850 4.792
34.3152 5.208
34.3455 4.792
34.3758 3.854
34.4061 4.635
34.4364 4.323
34.4666 3.385
34.4969 4.479
34.5272 3.437
34.5575 4.010
34.5877 3.854
34.6180 3.958
34.6483 4.427
34.6786 4.219
34.7089 4.479
34.7391 4.792
34.7694 3.437
34.7997 5.000
34.8300 4.844
34.8603 5.000
34.8905 4.948
34.9208 4.062
34.9511 4.531
34.9814 3.750
35.0116 4.740
35.0419 3.958
35.0722 4.271
35.1025 3.958
35.1328 5.052
35.1630 4.375
35.1933 4.896
35.2236 3.698
35.2539 4.115
35.2842 4.740
35.3144 4.271
35.3447 5.208
35.3750 4.740
35.4053 4.635
35.4356 5.000
35.4658 5.104
35.4961 5.729
35.5264 5.208
35.5567 4.896
35.5869 6.094
35.6172 5.781
35.6475 6.458
35.6778 5.312
35.7081 7.187
35.7383 6.198
35.7686 6.719
35.7989 7.135
35.8292 6.042
35.8595 7.656
35.8897 7.292
35.9200 6.667
35.9503 6.615
35.9806 7.969
36.0108 7.448
36.0411 6.615
36.0714 8.021
36.1017 7.344
36.1320 6.667
36.1622 6.406
36.1925 6.667
36.2228 6.510
36.2531 6.875
36.2834 6.302
36.3136 7.500
36.3439 7.187
36.3742 7.865
36.4045 6.094
36.4347 7.344
36.4650 7.812
36.4953 6.823
36.5256 6.406
36.5559 6.458
36.5861 7.031
36.6164 5.156
36.6467 5.677
36.6770 6.667
36.7073 5.990
36.7375 5.781
36.7678 5.937
36.7981 7.240
36.8284 6.927
36.8586 5.885
36.8889 5.990
36.9192 6.719
36.9495 6.667
36.9798 7.240
37.0100 6.875
37.0403 6.719
37.0706 6.667
37.1009 7.031
37.1312 6.562
37.1614 6.875
37.1917 7.031
37.2220 6.510
37.2523 6.771
37.2825 5.937
37.3128 5.260
37.3431 7.708
37.3734 5.833
37.4037 5.417
37.4339 6.198
37.4642 5.052
37.4945 5.990
37.5248 5.833
37.5551 6.458
37.5853 6.458
37.6156 6.667
37.6459 6.458
37.6762 5.000
37.7064 5.937
37.7367 6.302
37.7670 6.510
37.7973 6.146
37.8276 5.781
37.8578 6.302
37.8881 5.260
37.9184 5.573
37.9487 5.677
37.9790 5.417
38.0092 4.948
38.0395 5.052
38.0698 4.896
38.1001 5.573
38.1304 4.948
38.1606 5.156
38.1909 5.937
38.2212 5.260
38.2515 5.104
38.2817 5.208
38.3120 4.792
38.3423 4.167
38.3726 4.062
38.4029 4.583
38.4331 4.167
38.4634 4.010
38.4937 4.115
38.5240 4.010
38.5543 4.115
38.5845 3.646
38.6148 3.802
38.6451 3.958
38.6754 3.385
38.7056 3.437
38.7359 4.427
38.7662 4.375
38.7965 3.958
38.8268 3.177
38.8570 3.750
38.8873 3.594
38.9176 3.333
38.9479 3.021
38.9782 2.917
39.0084 3.021
39.0387 2.969
39.0690 2.240
39.0993 3.490
39.1295 3.073
39.1598 3.385
39.1901 3.073
39.2204 2.917
39.2507 2.969
39.2809 4.687
39.3112 3.698
39.3415 3.594
39.3718 3.385
39.4021 2.604
39.4323 3.490
39.4626 3.229
39.4929 3.906
39.5232 3.958
39.5534 2.812
39.5837 2.552
39.6140 2.969
39.6443 3.437
39.6746 2.865
39.7048 2.812
39.7351 2.969
39.7654 2.708
39.7957 2.656
39.8260 2.917
39.8562 3.698
39.8865 2.917
39.9168 2.656
39.9471 2.917
39.9773 3.385
40.0076 2.812
40.0379 3.125
40.0682 3.542
40.0985 3.594
40.1287 4.687
40.1590 3.073
40.1893 4.010
40.2196 3.906
40.2499 3.906
40.2801 4.115
40.3104 3.281
40.3407 3.646
40.3710 3.594
40.4012 3.385
40.4315 4.010
40.4618 3.542
40.4921 4.062
40.5224 3.698
40.5526 4.531
40.5829 4.271
40.6132 3.490
40.6435 3.073
40.6738 3.542
40.7040 3.333
40.7343 4.115
40.7646 4.062
40.7949 4.375
40.8251 4.167
40.8554 4.531
40.8857 4.167
40.9160 4.271
40.9463 4.010
40.9765 3.958
41.0068 4.479
41.0371 4.115
41.0674 3.490
41.0977 4.635
41.1279 3.854
41.1582 4.687
41.1885 4.115
41.2188 3.229
41.2491 3.281
41.2793 5.260
41.3096 4.062
41.3399 3.750
41.3702 3.437
41.4004 4.896
41.4307 3.906
41.4610 4.948
41.4913 3.958
41.5216 4.115
41.5518 3.802
41.5821 3.750
41.6124 3.698
41.6427 4.844
41.6730 3.750
41.7032 3.802
41.7335 3.854
41.7638 3.698
41.7941 3.854
41.8243 3.906
41.8546 4.010
41.8849 3.854
41.9152 4.792
41.9455 3.698
41.9757 4.427
42.0060 3.750
42.0363 3.646
42.0666 4.583
42.0969 4.010
42.1271 4.583
42.1574 3.802
42.1877 4.271
42.2180 3.281
42.2482 3.802
42.2785 3.073
42.3088 3.229
42.3391 4.219
42.3694 3.802
42.3996 2.812
42.4299 3.281
42.4602 3.021
42.4905 3.073
42.5208 3.437
42.5510 4.115
42.5813 3.125
42.6116 2.500
42.6419 2.552
42.6721 2.344
42.7024 3.490
42.7327 3.229
42.7630 3.125
42.7933 2.448
42.8235 3.542
42.8538 3.229
42.8841 3.646
42.9144 2.344
42.9447 3.177
42.9749 2.604
43.0052 2.917
43.0355 2.969
43.0658 2.865
43.0960 2.812
43.1263 3.281
43.1566 2.448
43.1869 3.646
43.2172 3.229
43.2474 2.448
43.2777 3.490
43.3080 3.177
43.3383 3.177
43.3686 3.073
43.3988 3.229
43.4291 3.385
43.4594 3.021
43.4897 3.229
43.5199 3.125
43.5502 2.760
43.5805 3.177
43.6108 2.708
43.6411 1.979
43.6713 2.708
43.7016 2.969
43.7319 2.552
43.7622 2.604
43.7925 2.917
43.8227 2.396
43.8530 3.333
43.8833 2.500
43.9136 3.125
43.9439 3.073
43.9741 2.604
44.0044 3.333
44.0347 2.708
44.0650 3.542
44.0952 2.708
44.1255 2.396
44.1558 2.812
44.1861 3.073
44.2164 2.135
44.2466 2.812
44.2769 2.969
44.3072 4.375
44.3375 3.854
44.3678 3.281
44.3980 3.021
44.4283 3.437
44.4586 3.229
44.4889 3.385
44.5191 3.177
44.5494 3.333
44.5797 3.333
44.6100 3.750
44.6403 4.010
44.6705 3.542
44.7008 3.333
44.7311 2.865
44.7614 3.542
44.7917 2.604
44.8219 3.177
44.8522 3.490
44.8825 3.229
44.9128 3.333
44.9430 3.490
44.9733 3.594
45.0036 2.604
45.0339 2.865
45.0642 3.177
45.0944 2.865
45.1247 3.073
45.1550 4.271
45.1853 3.229
45.2156 3.333
45.2458 3.125
45.2761 2.969
45.3064 2.760
45.3367 3.073
45.3669 3.073
45.3972 3.177
45.4275 3.073
45.4578 2.865
45.4881 3.437
45.5183 2.969
45.5486 3.177
45.5789 3.490
45.6092 3.021
45.6395 3.333
45.6697 3.229
45.7000 3.333
45.7303 3.229
45.7606 4.271
45.7908 3.281
45.8211 2.552
45.8514 3.073
45.8817 3.125
45.9120 3.802
45.9422 3.802
45.9725 3.333
46.0028 2.969
46.0331 2.865
46.0634 3.177
46.0936 3.437
46.1239 3.646
46.1542 3.490
46.1845 3.281
46.2147 3.281
46.2450 3.437
46.2753 3.646
46.3056 3.021
46.3359 3.125
46.3661 3.594
46.3964 3.542
46.4267 2.812
46.4570 2.552
46.4873 3.854
46.5175 3.281
46.5478 2.396
46.5781 3.177
46.6084 3.490
46.6386 2.969
46.6689 3.229
46.6992 4.167
46.7295 3.542
46.7598 2.917
46.7900 4.167
46.8203 3.594
46.8506 3.490
46.8809 3.281
46.9112 2.604
46.9414 2.969
46.9717 2.917
47.0020 3.177
47.0323 3.333
47.0626 4.115
47.0928 3.021
47.1231 3.385
47.1534 3.021
47.1837 3.333
47.2139 2.865
47.2442 3.437
47.2745 3.594
47.3048 3.385
47.3351 4.167
47.3653 3.854
47.3956 3.385
47.4259 4.323
47.4562 4.271
47.4865 4.479
47.5167 3.542
47.5470 4.219
47.5773 5.052
47.6076 4.375
47.6378 4.583
47.6681 4.948
47.6984 3.854
47.7287 4.948
47.7590 4.062
47.7892 5.573
47.8195 4.427
47.8498 4.948
47.8801 5.104
47.9104 4.323
47.9406 4.375
47.9709 4.375
48.0012 5.052
48.0315 3.906
48.0617 3.542
48.0920 4.740
48.1223 4.427
48.1526 5.208
48.1829 5.208
48.2131 4.896
48.2434 5.052
48.2737 5.365
48.3040 5.365
48.3343 4.479
48.3645 5.677
48.3948 5.104
48.4251 4.635
48.4554 5.469
48.4856 5.469
48.5159 4.844
48.5462 5.417
48.5765 5.885
48.6068 4.948
48.6370 5.365
48.6673 6.667
48.6976 6.042
48.7279 5.573
48.7582 6.354
48.7884 6.510
48.8187 5.573
48.8490 6.302
48.8793 5.365
48.9095 5.781
48.9398 6.615
48.9701 5.260
49.0004 6.562
49.0307 5.521
49.0609 6.510
49.0912 5.833
49.1215 5.573
49.1518 5.312
49.1821 5.729
49.2123 5.677
49.2426 5.521
49.2729 5.469
49.3032 5.781
49.3334 5.625
49.3637 5.677
49.3940 5.417
49.4243 5.677
49.4546 5.208
49.4848 5.365
49.5151 5.000
49.5454 4.740
49.5757 5.260
49.6060 4.167
49.6362 5.312
49.6665 5.260
49.6968 5.000
49.7271 5.365
49.7574 5.312
49.7876 5.208
49.8179 4.687
49.8482 4.635
49.8785 5.521
49.9087 5.469
49.9390 4.010
49.9693 5.156
49.9996 4.583
50.0299 4.635
50.0601 4.427
50.0904 5.365
50.1207 5.208
50.1510 4.167
50.1813 5.469
50.2115 4.219
50.2418 5.156
50.2721 4.687
50.3024 4.062
50.3326 4.323
50.3629 5.208
50.3932 4.583
50.4235 5.052
50.4538 5.208
50.4840 5.000
50.5143 4.115
50.5446 4.115
50.5749 4.271
50.6052 5.104
50.6354 4.792
50.6657 5.104
50.6960 5.312
50.7263 5.000
50.7565 4.115
50.7868 5.573
50.8171 5.156
50.8474 5.417
50.8777 5.469
50.9079 4.531
50.9382 4.219
50.9685 4.844
50.9988 5.104
51.0291 5.677
51.0593 5.156
51.0896 5.417
51.1199 6.250
51.1502 4.740
51.1804 5.677
51.2107 4.635
51.2410 5.156
51.2713 4.844
51.3016 4.948
51.3318 5.729
51.3621 5.208
51.3924 5.573
51.4227 4.792
51.4530 5.469
51.4832 5.469
51.5135 5.729
51.5438 5.104
51.5741 5.104
51.6043 5.573
51.6346 5.469
51.6649 5.104
51.6952 4.427
51.7255 5.990
51.7557 5.729
51.7860 5.469
51.8163 5.000
51.8466 5.885
51.8769 5.000
51.9071 5.573
51.9374 5.833
51.9677 5.625
51.9980 5.156
52.0282 5.781
52.0585 4.167
52.0888 4.271
52.1191 4.792
52.1494 4.896
52.1796 5.000
52.2099 5.990
52.2402 4.219
52.2705 4.948
52.3008 5.000
52.3310 5.260
52.3613 5.000
52.3916 5.521
52.4219 4.167
52.4521 5.365
52.4824 4.583
52.5127 4.740
52.5430 3.698
52.5733 4.844
52.6035 4.479
52.6338 4.427
52.6641 4.792
52.6944 3.958
52.7247 4.375
52.7549 5.417
52.7852 4.427
52.8155 5.469
52.8458 4.792
52.8761 5.104
52.9063 5.573
52.9366 5.104
52.9669 4.062
52.9972 5.052
53.0274 4.531
53.0577 5.156
53.0880 3.750
53.1183 4.844
53.1486 5.104
53.1788 5.000
53.2091 5.000
53.2394 5.521
53.2697 4.792
53.3000 4.896
53.3302 4.219
53.3605 4.479
53.3908 4.948
53.4211 4.219
53.4513 4.531
53.4816 4.427
53.5119 5.521
53.5422 4.323
53.5725 4.531
53.6027 5.000
53.6330 5.104
53.6633 5.469
53.6936 4.740
53.7239 4.375
53.7541 4.583
53.7844 5.573
53.8147 5.260
53.8450 5.469
53.8752 4.062
53.9055 4.427
53.9358 5.937
53.9661 5.365
53.9964 4.531
54.0266 4.323
54.0569 5.156
54.0872 5.052
54.1175 4.115
54.1478 5.417
54.1780 5.312
54.2083 4.844
54.2386 5.990
54.2689 4.531
54.2991 6.979
54.3294 4.792
54.3597 4.635
54.3900 5.260
54.4203 5.417
54.4505 5.417
54.4808 5.312
54.5111 5.000
54.5414 5.208
54.5717 5.156
54.6019 4.740
54.6322 4.010
54.6625 4.844
54.6928 4.427
54.7230 4.531
54.7533 4.479
54.7836 5.417
54.8139 3.802
54.8442 5.312
54.8744 4.583
54.9047 6.094
54.9350 3.958
54.9653 5.417
54.9956 4.635
55.0258 5.104
55.0561 5.625
55.0864 5.625
55.1167 4.583
55.1469 5.625
55.1772 4.844
55.2075 5.208
55.2378 5.937
55.2681 3.802
55.2983 5.521
55.3286 5.573
55.3589 6.094
55.3892 5.833
55.4195 5.104
55.4497 5.729
55.4800 5.990
55.5103 5.521
55.5406 6.198
55.5709 5.781
55.6011 5.729
55.6314 5.469
55.6617 5.937
55.6920 5.104
55.7222 6.979
55.7525 5.781
55.7828 4.948
55.8131 5.365
55.8434 5.521
55.8736 5.521
55.9039 5.417
55.9342 5.885
55.9645 4.583
55.9948 4.010
56.0250 4.531
56.0553 4.792
56.0856 4.687
56.1159 4.479
56.1461 3.906
56.1764 5.000
56.2067 3.021
56.2370 4.479
56.2673 3.802
56.2975 4.062
56.3278 3.594
56.3581 3.229
56.3884 4.167
56.4187 3.750
56.4489 4.323
56.4792 4.740
56.5095 3.490
56.5398 4.115
56.5700 2.969
56.6003 4.323
56.6306 3.802
56.6609 3.281
56.6912 3.958
56.7214 3.333
56.7517 2.969
56.7820 3.958
56.8123 3.229
56.8426 3.229
56.8728 3.229
56.9031 3.177
56.9334 3.229
56.9637 3.229
56.9939 3.646
57.0242 2.969
57.0545 3.333
57.0848 2.969
57.1151 3.594
57.1453 3.333
57.1756 2.865
57.2059 3.125
57.2362 3.281
57.2665 3.437
57.2967 2.865
57.3270 3.490
57.3573 3.542
57.3876 3.385
57.4178 4.062
57.4481 2.969
57.4784 3.750
57.5087 4.323
57.5390 3.229
57.5692 3.490
57.5995 3.646
57.6298 3.125
57.6601 4.010
57.6904 3.542
57.7206 3.646
57.7509 2.969
57.7812 3.333
57.8115 3.281
57.8417 3.906
57.8720 2.760
57.9023 3.490
57.9326 3.333
57.9629 3.490
57.9931 3.490
58.0234 2.969
58.0537 3.542
58.0840 3.021
58.1143 3.698
58.1445 3.229
58.1748 4.062
58.2051 2.917
58.2354 4.323
58.2656 4.479
58.2959 3.854
58.3262 4.115
58.3565 3.802
58.3868 4.010
58.4170 3.906
58.4473 3.958
58.4776 3.698
58.5079 4.062
58.5382 3.802
58.5684 3.333
58.5987 2.969
58.6290 3.281
58.6593 3.698
58.6896 4.479
58.7198 4.062
58.7501 4.219
58.7804 3.698
58.8107 3.594
58.8409 3.125
58.8712 3.333
58.9015 4.427
58.9318 3.750
58.9621 3.490
58.9923 3.385
59.0226 3.594
59.0529 3.125
59.0832 3.229
59.1135 3.229
59.1437 3.906
59.1740 3.802
59.2043 4.375
59.2346 4.219
59.2648 3.333
59.2951 3.594
59.3254 3.594
59.3557 3.594
59.3860 3.698
59.4162 3.594
59.4465 3.229
59.4768 3.073
59.5071 3.437
59.5374 3.490
59.5676 3.229
59.5979 3.698
59.6282 2.865
59.6585 3.073
59.6887 3.281
59.7190 3.490
59.7493 3.437
59.7796 4.427
59.8099 2.969
59.8401 3.125
59.8704 3.437
59.9007 3.281
59.9310 2.760
59.9613 3.646
59.9915 3.490
60.0218 4.010
60.0521 3.542
60.0824 3.854
60.1126 3.177
60.1429 3.854
60.1732 4.062
60.2035 3.333
60.2338 3.385
60.2640 3.802
60.2943 3.229
60.3246 3.906
60.3549 3.437
60.3852 4.010
60.4154 2.708
60.4457 3.490
60.4760 3.021
60.5063 3.281
60.5365 3.906
60.5668 3.333
60.5971 3.125
60.6274 4.010
60.6577 3.333
60.6879 2.656
60.7182 3.437
60.7485 3.437
60.7788 3.177
60.8091 3.125
60.8393 3.594
60.8696 3.229
60.8999 2.760
60.9302 2.969
60.9604 3.490
60.9907 3.125
61.0210 3.281
61.0513 3.125
61.0816 3.229
61.1118 3.021
61.1421 3.177
61.1724 2.917
61.2027 3.229
61.2330 2.917
61.2632 3.802
61.2935 3.542
61.3238 2.865
61.3541 3.281
61.3844 3.698
61.4146 3.437
61.4449 3.021
61.4752 3.490
61.5055 3.906
61.5357 2.292
61.5660 2.344
61.5963 2.917
61.6266 2.552
61.6569 3.437
61.6871 2.656
61.7174 3.437
61.7477 3.229
61.7780 2.604
61.8083 3.229
61.8385 2.917
61.8688 3.073
61.8991 3.490
61.9294 3.854
61.9596 3.490
61.9899 3.437
62.0202 3.021
62.0505 3.281
62.0808 3.750
62.1110 3.281
62.1413 3.490
62.1716 3.854
62.2019 2.760
62.2322 3.125
62.2624 4.687
62.2927 3.125
62.3230 4.115
62.3533 3.646
62.3835 3.177
62.4138 3.542
62.4441 2.812
62.4744 3.646
62.5047 3.385
62.5349 3.594
62.5652 3.177
62.5955 4.271
62.6258 3.125
62.6561 3.177
62.6863 3.958
62.7166 4.531
62.7469 4.635
62.7772 3.750
62.8074 3.750
62.8377 3.698
62.8680 4.219
62.8983 4.792
62.9286 3.750
62.9588 4.167
62.9891 3.802
63.0194 3.958
63.0497 3.958
63.0800 4.062
63.1102 4.271
63.1405 3.750
63.1708 3.698
63.2011 4.531
63.2313 3.698
63.2616 4.792
63.2919 4.219
63.3222 3.437
63.3525 3.385
63.3827 4.792
63.4130 3.802
63.4433 4.167
63.4736 4.583
63.5039 5.000
63.5341 4.792
63.5644 3.854
63.5947 5.208
63.6250 4.792
63.6552 5.521
63.6855 4.583
63.7158 4.271
63.7461 4.687
63.7764 3.802
63.8066 5.312
63.8369 4.844
63.8672 5.052
63.8975 4.479
63.9278 5.312
63.9580 4.844
63.9883 5.781
64.0186 5.312
64.0489 4.583
64.0791 4.115
64.1094 4.271
64.1397 4.271
64.1700 4.792
64.2003 4.062
64.2305 4.427
64.2608 3.281
64.2911 4.896
64.3214 4.740
64.3517 3.802
64.3819 3.802
64.4122 4.323
64.4425 4.062
64.4728 4.948
64.5031 3.906
64.5333 4.531
64.5636 4.687
64.5939 3.333
64.6242 4.167
64.6544 3.750
64.6847 3.958
64.7150 3.385
64.7453 5.052
64.7756 3.281
64.8058 3.542
64.8361 3.854
64.8664 4.219
64.8967 3.802
64.9270 4.062
64.9572 3.333
64.9875 2.812
65.0178 2.760
65.0481 2.865
65.0783 3.073
65.1086 2.760
65.1389 2.396
65.1692 2.708
65.1995 3.490
65.2297 3.021
65.2600 2.917
65.2903 2.500
65.3206 2.917
65.3509 2.500
65.3811 3.177
65.4114 3.281
65.4417 2.083
65.4720 2.031
65.5022 2.656
65.5325 2.187
65.5628 2.292
65.5931 2.135
65.6234 3.073
65.6536 1.875
65.6839 2.448
65.7142 2.865
65.7445 2.344
65.7748 2.812
65.8050 2.448
65.8353 2.240
65.8656 2.552
65.8959 2.031
65.9261 2.083
65.9564 2.135
65.9867 2.500
66.0170 2.031
66.0473 2.187
66.0775 2.604
66.1078 1.771
66.1381 2.083
66.1684 1.875
66.1987 2.240
66.2289 2.396
66.2592 1.771
66.2895 2.448
66.3198 2.760
66.3500 2.552
66.3803 2.552
66.4106 2.240
66.4409 2.812
66.4712 2.656
66.5014 2.396
66.5317 1.875
66.5620 2.552
66.5923 2.500
66.6226 2.031
66.6528 2.396
66.6831 2.292
66.7134 2.187
66.7437 2.396
66.7739 2.135
66.8042 2.135
66.8345 2.187
66.8648 1.979
66.8951 1.875
66.9253 1.979
66.9556 2.292
66.9859 2.500
67.0162 1.719
67.0465 2.656
67.0767 2.552
67.1070 2.187
67.1373 2.448
67.1676 2.812
67.1978 1.875
67.2281 1.719
67.2584 3.125
67.2887 2.396
67.3190 1.562
67.3492 2.240
67.3795 2.240
67.4098 2.292
67.4401 2.135
67.4704 3.125
67.5006 1.719
67.5309 2.240
67.5612 2.031
67.5915 2.448
67.6218 1.823
67.6520 2.812
67.6823 2.500
67.7126 1.979
67.7429 2.083
67.7731 2.344
67.8034 2.708
67.8337 1.823
67.8640 1.875
67.8943 1.875
67.9245 1.875
67.9548 2.344
67.9851 2.448
68.0154 1.771
68.0457 2.396
68.0759 2.187
68.1062 1.771
68.1365 2.344
68.1668 1.667
68.1970 2.240
68.2273 1.979
68.2576 2.292
68.2879 2.865
68.3182 1.823
68.3484 1.979
68.3787 1.875
68.4090 2.396
68.4393 1.667
68.4696 2.031
68.4998 2.604
68.5301 3.021
68.5604 1.979
68.5907 2.083
68.6209 2.344
68.6512 2.760
68.6815 2.083
68.7118 1.927
68.7421 2.031
68.7723 1.771
68.8026 1.927
68.8329 2.240
68.8632 2.656
68.8935 2.240
68.9237 2.552
68.9540 2.656
68.9843 2.708
69.0146 1.875
69.0448 2.240
69.0751 2.656
69.1054 2.292
69.1357 2.760
69.1660 2.396
69.1962 2.344
69.2265 2.292
69.2568 1.823
69.2871 2.708
69.3174 2.396
69.3476 2.292
69.3779 2.083
69.4082 2.500
69.4385 2.344
69.4687 2.187
69.4990 2.500
69.5293 2.292
69.5596 2.500
69.5899 2.500
69.6201 1.927
69.6504 2.760
69.6807 2.240
69.7110 2.448
69.7413 2.396
69.7715 2.292
69.8018 2.240
69.8321 2.292
69.8624 2.031
69.8926 2.760
69.9229 1.667
69.9532 2.344
69.9835 2.656
70.0138 2.031
70.0440 1.979
70.0743 2.083
70.1046 2.812
70.1349 2.292
70.1652 3.021
70.1954 2.083
70.2257 1.823
70.2560 1.979
70.2863 2.344
70.3166 2.135
70.3468 1.771
70.3771 2.604
70.4074 2.552
70.4377 2.396
70.4679 2.396
70.4982 1.875
70.5285 2.552
70.5588 1.927
70.5891 2.500
70.6193 2.604
70.6496 2.187
70.6799 2.552
70.7102 2.135
70.7405 2.448
70.7707 2.344
70.8010 2.760
70.8313 2.500
70.8616 2.031
70.8918 2.396
70.9221 2.083
70.9524 2.292
70.9827 1.927
71.0130 2.083
71.0432 2.760
71.0735 2.604
71.1038 2.604
71.1341 1.771
71.1644 1.771
71.1946 1.979
71.2249 2.396
71.2552 2.187
71.2855 2.187
71.3157 1.562
71.3460 2.187
71.3763 2.292
71.4066 1.771
71.4369 2.083
71.4671 2.292
71.4974 1.875
71.5277 1.719
71.5580 2.604
71.5883 1.927
71.6185 2.031
71.6488 2.604
71.6791 2.917
71.7094 2.083
71.7396 1.771
71.7699 2.240
71.8002 2.344
71.8305 2.656
71.8608 2.240
71.8910 2.396
71.9213 2.552
71.9516 2.448
71.9819 1.771
72.0122 2.292
72.0424 2.135
72.0727 2.500
72.1030 2.708
72.1333 2.135
72.1635 1.979
72.1938 2.240
72.2241 2.240
72.2544 2.083
72.2847 2.031
72.3149 2.292
72.3452 2.292
72.3755 2.240
72.4058 2.500
72.4361 2.604
72.4663 2.292
72.4966 2.604
72.5269 1.927
72.5572 2.500
72.5874 2.500
72.6177 3.333
72.6480 2.865
72.6783 2.865
72.7086 1.927
72.7388 2.135
72.7691 2.135
72.7994 3.021
72.8297 2.344
72.8600 2.760
72.8902 2.708
72.9205 2.656
72.9508 2.969
72.9811 2.396
73.0113 2.604
73.0416 2.500
73.0719 2.240
73.1022 1.979
73.1325 2.552
73.1627 2.812
73.1930 3.229
73.2233 2.396
73.2536 2.031
73.2839 2.656
73.3141 2.760
73.3444 2.135
73.3747 3.021
73.4050 2.240
73.4353 2.760
73.4655 2.344
73.4958 2.292
73.5261 2.812
73.5564 3.125
73.5866 1.562
73.6169 1.719
73.6472 2.708
73.6775 2.448
73.7078 2.187
73.7380 2.240
73.7683 1.979
73.7986 2.604
73.8289 2.500
73.8592 2.812
73.8894 2.500
73.9197 2.969
73.9500 2.187
73.9803 2.396
74.0105 2.604
74.0408 2.135
74.0711 2.969
74.1014 2.344
74.1317 2.448
74.1619 2.760
74.1922 2.708
74.2225 3.333
74.2528 2.604
74.2831 2.708
74.3133 2.708
74.3436 2.344
74.3739 3.177
74.4042 2.344
74.4344 2.396
74.4647 2.500
74.4950 1.927
74.5253 1.823
74.5556 2.865
74.5858 2.344
74.6161 2.187
74.6464 2.865
74.6767 2.969
74.7070 1.771
74.7372 2.135
74.7675 2.031
74.7978 3.281
74.8281 2.656
74.8583 2.187
74.8886 2.500
74.9189 1.875
74.9492 1.979
74.9795 3.333
75.0097 2.552
75.0400 2.760
75.0703 2.656
75.1006 2.604
75.1309 2.760
75.1611 1.927
75.1914 1.771
75.2217 2.292
75.2520 2.812
75.2822 2.187
75.3125 2.031
75.3428 2.135
75.3731 2.656
75.4034 2.031
75.4336 3.073
75.4639 2.187
75.4942 2.552
75.5245 1.979
75.5548 2.448
75.5850 2.292
75.6153 2.187
75.6456 1.667
75.6759 2.187
75.7061 2.396
75.7364 1.771
75.7667 2.344
75.7970 2.292
75.8273 1.927
75.8575 2.135
75.8878 2.031
75.9181 2.240
75.9484 1.875
75.9787 1.667
76.0089 1.667
76.0392 2.187
76.0695 2.604
76.0998 1.771
76.1301 2.083
76.1603 1.927
76.1906 2.187
76.2209 2.812
76.2512 2.083
76.2814 2.292
76.3117 1.979
76.3420 2.083
76.3723 2.083
76.4026 1.719
76.4328 2.292
76.4631 1.823
76.4934 2.135
76.5237 2.969
76.5540 2.135
76.5842 2.135
76.6145 1.250
76.6448 1.667
76.6751 1.510
76.7053 2.187
76.7356 2.187
76.7659 1.667
76.7962 1.615
76.8265 1.615
76.8567 2.135
76.8870 1.458
76.9173 1.875
76.9476 2.656
76.9779 2.865
77.0081 2.083
77.0384 2.135
77.0687 1.562
77.0990 2.083
77.1292 1.927
77.1595 1.667
77.1898 2.344
77.2201 1.719
77.2504 1.354
77.2806 1.979
77.3109 1.875
77.3412 2.135
77.3715 1.615
77.4018 2.240
77.4320 1.562
77.4623 1.771
77.4926 1.979
77.5229 2.135
77.5531 2.083
77.5834 2.344
77.6137 1.979
77.6440 1.667
77.6743 1.719
77.7045 1.927
77.7348 1.927
77.7651 2.083
77.7954 2.240
77.8257 1.875
77.8559 2.135
77.8862 1.406
77.9165 2.135
77.9468 2.031
77.9770 1.771
78.0073 2.031
78.0376 2.083
78.0679 2.135
78.0982 1.562
78.1284 1.927
78.1587 1.823
78.1890 2.031
78.2193 1.927
78.2496 1.667
78.2798 2.656
78.3101 2.604
78.3404 2.031
78.3707 2.552
78.4009 2.187
78.4312 1.927
78.4615 1.771
78.4918 1.667
78.5221 2.135
78.5523 1.562
78.5826 2.031
78.6129 2.031
78.6432 2.604
78.6735 2.240
78.7037 1.979
78.7340 1.927
78.7643 2.083
78.7946 2.656
78.8248 2.135
78.8551 2.292
78.8854 1.875
78.9157 1.823
78.9460 2.552
78.9762 1.771
79.0065 2.396
79.0368 1.771
79.0671 2.083
79.0974 1.562
79.1276 2.135
79.1579 1.771
79.1882 2.760
79.2185 1.823
79.2488 1.927
79.2790 1.979
79.3093 2.083
79.3396 1.823
79.3699 1.667
79.4001 2.135
79.4304 1.875
79.4607 2.083
79.4910 2.500
79.5213 1.927
79.5515 1.771
79.5818 1.875
79.6121 1.927
79.6424 2.552
79.6727 2.448
79.7029 1.927
79.7332 1.927
79.7635 1.823
79.7938 1.719
79.8240 1.406
79.8543 1.927
79.8846 1.927
79.9149 2.240
79.9452 2.031
79.9754 1.875
80.0057 1.198
80.0360 2.135
80.0663 2.344
80.0966 1.719
80.1268 2.292
80.1571 2.187
80.1874 2.292
80.2177 2.500
80.2479 2.135
80.2782 1.927
80.3085 2.552
80.3388 2.187
80.3691 2.396
80.3993 2.396
80.4296 2.083
80.4599 1.979
80.4902 2.135
80.5205 1.823
80.5507 2.344
80.5810 2.083
80.6113 1.562
80.6416 2.344
80.6718 2.135
80.7021 1.927
80.7324 1.823
80.7627 1.667
80.7930 1.667
80.8232 1.719
80.8535 1.719
80.8838 2.135
80.9141 1.510
80.9444 1.771
80.9746 2.240
81.0049 2.448
81.0352 1.927
81.0655 1.771
81.0957 1.979
81.1260 1.823
81.1563 2.240
81.1866 2.083
81.2169 2.292
81.2471 2.031
81.2774 2.031
81.3077 2.135
81.3380 2.187
81.3683 2.500
81.3985 1.667
81.4288 2.135
81.4591 2.344
81.4894 1.927
81.5196 2.031
81.5499 1.823
81.5802 2.240
81.6105 1.875
81.6408 1.302
81.6710 1.615
81.7013 1.458
81.7316 1.823
81.7619 2.292
81.7922 2.135
81.8224 1.927
81.8527 2.448
81.8830 2.292
81.9133 2.135
81.9436 1.875
81.9738 2.448
82.0041 1.979
82.0344 2.031
82.0647 2.031
82.0949 2.552
82.1252 1.823
82.1555 2.187
82.1858 2.135
82.2161 1.510
82.2463 1.719
82.2766 1.771
82.3069 2.812
82.3372 2.187
82.3675 1.615
82.3977 1.667
82.4280 2.083
82.4583 1.875
82.4886 1.979
82.5188 2.500
82.5491 1.667
82.5794 1.771
82.6097 2.344
82.6400 2.135
82.6702 1.667
82.7005 2.187
82.7308 1.979
82.7611 2.604
82.7914 2.344
82.8216 1.667
82.8519 2.083
82.8822 2.448
82.9125 1.719
82.9427 2.031
82.9730 2.604
83.0033 1.823
83.0336 1.719
83.0639 1.615
83.0941 2.500
83.1244 2.083
83.1547 3.073
83.1850 1.771
83.2153 1.979
83.2455 2.396
83.2758 2.604
83.3061 2.760
83.3364 2.240
83.3666 1.667
83.3969 1.875
83.4272 2.500
83.4575 2.031
83.4878 2.135
83.5180 2.135
83.5483 2.135
83.5786 1.927
83.6089 2.083
83.6392 1.927
83.6694 2.135
83.6997 1.875
83.7300 2.500
83.7603 2.240
83.7905 1.562
83.8208 2.604
83.8511 2.240
83.8814 1.927
83.9117 1.823
83.9419 1.719
83.9722 2.240
84.0025 1.510
84.0328 2.135
84.0631 1.615
84.0933 2.135
84.1236 2.083
84.1539 2.135
84.1842 1.875
84.2144 1.615
84.2447 2.135
84.2750 1.979
84.3053 2.292
84.3356 2.135
84.3658 2.083
84.3961 1.615
84.4264 1.771
84.4567 2.187
84.4870 2.135
84.5172 2.344
84.5475 2.031
84.5778 1.927
84.6081 2.135
84.6383 1.198
84.6686 2.031
84.6989 2.083
84.7292 2.656
84.7595 2.344
84.7897 1.510
84.8200 2.187
84.8503 2.344
84.8806 2.292
84.9109 2.083
84.9411 1.875
84.9714 1.979
85.0017 1.719
85.0320 2.812
85.0623 1.771
85.0925 1.979
85.1228 1.875
85.1531 1.719
85.1834 1.875
85.2136 1.719
85.2439 1.771
85.2742 1.719
85.3045 2.187
85.3348 2.187
85.3650 1.979
85.3953 2.083
85.4256 1.719
85.4559 2.135
85.4862 1.979
85.5164 2.604
85.5467 2.552
85.5770 2.031
85.6073 2.552
85.6375 1.979
85.6678 2.135
85.6981 2.135
85.7284 2.187
85.7587 2.344
85.7889 2.135
85.8192 2.187
85.8495 2.240
85.8798 2.344
85.9101 2.344
85.9403 2.292
85.9706 2.031
86.0009 2.187
86.0312 1.667
86.0614 1.875
86.0917 2.760
86.1220 1.823
86.1523 2.083
86.1826 2.292
86.2128 2.187
86.2431 2.292
86.2734 2.708
86.3037 2.031
86.3340 2.865
86.3642 2.448
86.3945 2.240
86.4248 2.396
86.4551 2.031
86.4853 2.083
86.5156 2.292
86.5459 2.292
86.5762 2.187
86.6065 2.292
86.6367 1.615
86.6670 2.135
86.6973 1.719
86.7276 1.719
86.7579 2.344
86.7881 2.240
86.8184 2.135
86.8487 2.344
86.8790 2.031
86.9092 2.240
86.9395 1.927
86.9698 2.240
87.0001 1.667
87.0304 1.719
87.0606 2.292
87.0909 2.292
87.1212 2.292
87.1515 2.135
87.1818 1.823
87.2120 2.396
87.2423 2.344
87.2726 2.135
87.3029 2.135
87.3331 1.823
87.3634 1.979
87.3937 2.865
87.4240 1.771
87.4543 1.927
87.4845 1.875
87.5148 1.823
87.5451 1.562
87.5754 2.292
87.6057 2.344
87.6359 1.927
87.6662 2.604
87.6965 2.187
87.7268 1.510
87.7571 2.031
87.7873 1.719
87.8176 2.448
87.8479 1.927
87.8782 1.979
87.9084 2.187
87.9387 2.135
87.9690 2.552
87.9993 2.135
88.0296 2.448
88.0598 2.135
88.0901 1.823
88.1204 1.927
88.1507 2.396
88.1810 2.448
88.2112 1.771
88.2415 2.396
88.2718 2.135
88.3021 2.083
88.3323 2.240
88.3626 2.135
88.3929 2.240
88.4232 1.615
88.4535 2.135
88.4837 2.292
88.5140 1.927
88.5443 2.500
88.5746 1.615
88.6049 2.135
88.6351 2.344
88.6654 1.875
88.6957 2.031
88.7260 2.552
88.7562 2.292
88.7865 2.135
88.8168 1.979
88.8471 2.135
88.8774 2.604
88.9076 1.927
88.9379 2.187
88.9682 2.396
88.9985 1.979
89.0288 1.667
89.0590 1.562
89.0893 1.771
89.1196 2.448
89.1499 2.187
89.1801 2.812
89.2104 1.771
89.2407 2.135
89.2710 1.667
89.3013 1.771
89.3315 1.250
89.3618 2.396
89.3921 1.927
89.4224 2.604
89.4527 1.094
89.4829 2.083
89.5132 1.979
89.5435 1.927
89.5738 2.187
89.6040 2.187
89.6343 2.240
89.6646 1.823
89.6949 1.875
89.7252 2.135
89.7554 1.823
89.7857 1.771
89.8160 2.083
89.8463 1.875
89.8766 2.031
89.9068 1.875
89.9371 1.719
89.9674 2.031
89.9977 1.979
90.0279 1.510
90.0582 2.031
90.0885 2.344
90.1188 1.354
90.1491 1.667
90.1793 2.135
90.2096 1.615
90.2399 1.823
90.2702 2.292
90.3005 1.458
90.3307 1.927
90.3610 1.719
90.3913 1.510
90.4216 1.719
90.4518 1.719
90.4821 1.875
90.5124 2.031
90.5427 2.135
90.5730 1.719
90.6032 1.719
90.6335 1.667
90.6638 2.135
90.6941 1.667
90.7244 2.292
90.7546 2.031
90.7849 2.135
90.8152 2.500
90.8455 1.927
90.8758 2.187
90.9060 1.771
90.9363 1.667
90.9666 1.719
90.9969 1.510
91.0271 1.250
91.0574 1.927
91.0877 1.667
91.1180 1.667
91.1483 1.823
91.1785 1.927
91.2088 1.458
91.2391 1.354
91.2694 2.083
91.2997 2.187
91.3299 2.031
91.3602 1.875
91.3905 1.875
91.4208 1.667
91.4510 2.083
91.4813 1.615
91.5116 2.083
91.5419 1.823
91.5722 2.240
91.6024 1.354
91.6327 1.406
91.6630 2.031
91.6933 1.875
91.7236 1.719
91.7538 1.510
91.7841 1.667
91.8144 2.083
91.8447 1.667
91.8749 1.667
91.9052 1.719
91.9355 1.615
91.9658 1.354
91.9961 1.875
92.0263 2.031
92.0566 2.083
92.0869 2.187
92.1172 1.875
92.1475 2.552
92.1777 1.719
92.2080 1.771
92.2383 1.406
92.2686 1.823
92.2988 2.448
92.3291 1.823
92.3594 1.719
92.3897 1.823
92.4200 1.667
92.4502 2.135
92.4805 1.458
92.5108 1.875
92.5411 1.510
92.5714 1.823
92.6016 1.719
92.6319 2.708
92.6622 2.292
92.6925 1.927
92.7227 2.187
92.7530 1.927
92.7833 1.615
92.8136 1.562
92.8439 2.187
92.8741 2.240
92.9044 1.823
92.9347 1.979
92.9650 1.615
92.9953 1.198
93.0255 1.927
93.0558 1.771
93.0861 1.719
93.1164 1.719
93.1466 1.875
93.1769 1.615
93.2072 2.083
93.2375 1.719
93.2678 1.615
93.2980 1.354
93.3283 1.458
93.3586 1.771
93.3889 2.187
93.4192 1.719
93.4494 1.562
93.4797 1.823
93.5100 1.927
93.5403 1.719
93.5706 1.198
93.6008 1.354
93.6311 1.667
93.6614 1.979
93.6917 1.875
93.7219 1.719
93.7522 1.719
93.7825 1.719
93.8128 1.875
93.8431 1.771
93.8733 1.302
93.9036 1.979
93.9339 2.135
93.9642 1.771
93.9945 1.406
94.0247 1.510
94.0550 1.771
94.0853 1.979
94.1156 1.719
94.1458 1.719
94.1761 1.406
94.2064 1.562
94.2367 2.083
94.2670 2.031
94.2972 1.250
94.3275 1.927
94.3578 1.667
94.3881 1.354
94.4184 1.823
94.4486 2.187
94.4789 1.458
94.5092 2.083
94.5395 1.823
94.5697 1.927
94.6000 1.771
94.6303 1.406
94.6606 1.458
94.6909 2.135
94.7211 1.302
94.7514 1.562
94.7817 1.719
94.8120 2.500
94.8423 1.354
94.8725 1.771
94.9028 1.458
94.9331 1.719
94.9634 2.031
94.9936 1.719
95.0239 1.406
95.0542 1.823
95.0845 2.135
95.1148 1.823
95.1450 1.719
95.1753 1.510
95.2056 1.250
95.2359 1.250
95.2662 1.562
95.2964 1.615
95.3267 1.510
95.3570 2.031
95.3873 1.615
95.4175 1.823
95.4478 1.302
95.4781 1.510
95.5084 1.771
95.5387 1.719
95.5689 1.250
95.5992 1.458
95.6295 0.781
95.6598 1.719
95.6901 1.979
95.7203 1.823
95.7506 1.719
95.7809 1.094
95.8112 1.771
95.8414 1.302
95.8717 1.354
95.9020 1.615
95.9323 1.979
95.9626 1.771
95.9928 1.719
96.0231 1.302
96.0534 1.406
96.0837 2.031
96.1140 1.823
96.1442 1.875
96.1745 1.823
96.2048 0.937
96.2351 1.927
96.2653 1.823
96.2956 2.448
96.3259 1.875
96.3562 1.510
96.3865 1.615
96.4167 1.771
96.4470 1.354
96.4773 2.396
96.5076 1.823
96.5379 1.667
96.5681 2.031
96.5984 1.875
96.6287 1.771
96.6590 1.875
96.6893 1.562
96.7195 2.083
96.7498 2.187
96.7801 1.667
96.8104 1.719
96.8406 1.875
96.8709 1.979
96.9012 1.771
96.9315 1.615
96.9618 1.823
96.9920 1.823
97.0223 1.510
97.0526 1.927
97.0829 1.615
97.1132 1.458
97.1434 2.656
97.1737 1.823
97.2040 1.615
97.2343 2.396
97.2645 1.771
97.2948 1.719
97.3251 1.719
97.3554 2.240
97.3857 1.354
97.4159 2.135
97.4462 2.187
97.4765 1.719
97.5068 1.667
97.5371 1.562
97.5673 1.771
97.5976 2.031
97.6279 2.083
97.6582 1.875
97.6884 1.771
97.7187 1.562
97.7490 1.771
97.7793 2.344
97.8096 2.240
97.8398 1.250
97.8701 1.823
97.9004 2.135
97.9307 1.875
97.9610 2.292
97.9912 1.719
98.0215 2.240
98.0518 1.510
98.0821 1.615
98.1123 1.875
98.1426 1.667
98.1729 1.771
98.2032 1.250
98.2335 1.562
98.2637 2.031
98.2940 1.875
98.3243 2.708
98.3546 1.927
98.3849 1.198
98.4151 1.719
98.4454 2.031
98.4757 2.083
98.5060 1.458
98.5362 1.875
98.5665 1.823
98.5968 1.719
98.6271 1.510
98.6574 1.510
98.6876 1.823
98.7179 1.771
98.7482 1.667
98.7785 1.979
98.8088 1.927
98.8390 1.771
98.8693 1.823
98.8996 1.615
98.9299 1.927
98.9601 2.031
98.9904 2.083
99.0207 1.927
99.0510 1.823
99.0813 2.083
99.1115 1.823
99.1418 1.771
99.1721 1.562
99.2024 1.823
99.2327 1.719
99.2629 2.344
99.2932 1.615
99.3235 1.875
99.3538 1.823
99.3841 1.354
99.4143 1.719
99.4446 1.771
99.4749 1.615
99.5052 1.302
99.5354 2.344
99.5657 1.875
99.5960 2.135
99.6263 2.031
99.6566 1.823
99.6868 1.771
99.7171 1.562
99.7474 1.927
99.7777 2.187
99.8080 1.615
99.8382 1.302
99.8685 1.719
99.8988 1.458
99.9291 1.771
99.9593 1.042
99.9896 1.667
100.0199 2.292
100.0502 2.083
100.0805 1.771
100.1107 1.667
100.1410 1.771
100.1713 1.875
100.2016 1.615
100.2319 2.083
100.2621 2.552
100.2924 1.979
100.3227 2.292
100.3530 1.354
100.3832 2.448
100.4135 1.667
100.4438 1.823
100.4741 2.292
100.5044 1.719
100.5346 1.719
100.5649 1.458
100.5952 2.187
100.6255 1.979
100.6558 1.458
100.6860 2.135
100.7163 1.771
100.7466 1.458
100.7769 2.240
100.8071 1.562
100.8374 1.354
100.8677 1.302
100.8980 0.885
100.9283 1.667
100.9585 1.198
100.9888 1.823
101.0191 1.823
101.0494 2.031
101.0797 1.458
101.1099 1.250
101.1402 1.719
101.1705 2.083
101.2008 1.875
101.2310 2.031
101.2613 1.719
101.2916 2.292
101.3219 1.771
101.3522 1.771
101.3824 1.719
101.4127 2.187
101.4430 1.510
101.4733 2.396
101.5036 1.406
101.5338 1.562
101.5641 2.031
101.5944 1.927
101.6247 1.823
101.6549 1.667
101.6852 1.875
101.7155 1.875
101.7458 1.875
101.7761 1.979
101.8063 1.510
101.8366 1.354
101.8669 1.615
101.8972 1.667
101.9275 1.771
101.9577 1.979
101.9880 1.979
102.0183 1.146
102.0486 2.448
102.0788 1.719
102.1091 2.187
102.1394 2.187
102.1697 1.198
102.2000 1.667
102.2302 1.354
102.2605 1.354
102.2908 1.302
102.3211 1.510
102.3514 1.615
102.3816 1.771
102.4119 1.406
102.4422 1.510
102.4725 1.615
102.5028 1.250
102.5330 1.354
102.5633 1.927
102.5936 1.875
102.6239 1.823
102.6541 1.823
102.6844 1.719
102.7147 1.823
102.7450 2.031
102.7753 1.615
102.8055 1.042
102.8358 1.927
102.8661 1.615
102.8964 1.771
102.9267 1.615
102.9569 1.719
102.9872 1.615
103.0175 1.771
103.0478 1.875
103.0780 1.458
103.1083 1.719
103.1386 1.146
103.1689 1.302
103.1992 1.302
103.2294 1.354
103.2597 1.458
103.2900 0.885
103.3203 1.458
103.3506 1.094
103.3808 1.927
103.4111 1.562
103.4414 1.510
103.4717 0.937
103.5019 1.615
103.5322 1.354
103.5625 1.406
103.5928 1.667
103.6231 1.562
103.6533 1.302
103.6836 1.510
103.7139 1.771
103.7442 1.406
103.7745 1.562
103.8047 1.458
103.8350 1.354
103.8653 1.927
103.8956 1.510
103.9258 1.771
103.9561 1.562
103.9864 1.198
104.0167 1.771
104.0470 1.927
104.0772 1.406
104.1075 2.135
104.1378 1.302
104.1681 1.406
104.1984 1.406
104.2286 1.354
104.2589 1.250
104.2892 1.510
104.3195 1.510
104.3497 1.875
104.3800 0.990
104.4103 1.875
104.4406 1.771
104.4709 1.979
104.5011 1.667
104.5314 1.406
104.5617 1.406
104.5920 1.302
104.6223 1.667
104.6525 1.406
104.6828 1.719
104.7131 1.354
104.7434 1.823
104.7736 0.990
104.8039 2.031
104.8342 1.198
104.8645 1.562
104.8948 1.562
104.9250 1.771
104.9553 0.833
104.9856 1.667
105.0159 1.823
105.0462 1.406
105.0764 1.302
105.1067 1.458
105.1370 1.771
105.1673 1.302
105.1975 1.458
105.2278 1.354
105.2581 1.771
105.2884 1.927
105.3187 1.510
105.3489 1.667
105.3792 1.979
105.4095 1.458
105.4398 2.187
105.4701 1.406
105.5003 1.927
105.5306 1.406
105.5609 1.406
105.5912 1.198
105.6215 1.354
105.6517 1.719
105.6820 2.396
105.7123 1.406
105.7426 2.031
105.7728 1.667
105.8031 1.667
105.8334 1.458
105.8637 1.302
105.8940 1.927
105.9242 1.875
105.9545 2.083
105.9848 1.406
106.0151 1.510
106.0454 2.448
106.0756 1.510
106.1059 1.823
106.1362 1.510
106.1665 2.031
106.1967 1.615
106.2270 2.031
106.2573 1.719
106.2876 1.979
106.3179 1.510
106.3481 1.458
106.3784 1.458
106.4087 1.406
106.4390 1.615
106.4693 1.094
106.4995 1.146
106.5298 1.510
106.5601 1.562
106.5904 1.823
106.6206 0.990
106.6509 1.354
106.6812 1.406
106.7115 1.094
106.7418 1.458
106.7720 1.719
106.8023 1.979
106.8326 1.354
106.8629 1.458
106.8932 0.937
106.9234 1.302
106.9537 1.510
106.9840 2.187
107.0143 2.135
107.0445 1.823
107.0748 1.823
107.1051 1.458
107.1354 1.250
107.1657 1.823
107.1959 1.562
107.2262 1.302
107.2565 1.198
107.2868 1.458
107.3171 1.094
107.3473 1.667
107.3776 1.719
107.4079 1.823
107.4382 2.031
107.4684 1.927
107.4987 1.510
107.5290 1.771
107.5593 1.354
107.5896 1.562
107.6198 2.083
107.6501 1.458
107.6804 1.458
107.7107 1.510
107.7410 1.771
107.7712 1.667
107.8015 2.083
107.8318 1.510
107.8621 1.406
107.8923 1.667
107.9226 1.406
107.9529 2.031
107.9832 1.979
108.0135 2.396
108.0437 1.562
108.0740 1.771
108.1043 1.719
108.1346 1.354
108.1649 1.354
108.1951 1.823
108.2254 1.510
108.2557 1.979
108.2860 1.510
108.3163 1.458
108.3465 1.198
108.3768 1.302
108.4071 1.302
108.4374 1.250
108.4676 1.354
108.4979 1.771
108.5282 1.719
108.5585 1.667
108.5888 2.031
108.6190 1.406
108.6493 1.406
108.6796 1.510
108.7099 1.510
108.7402 2.031
108.7704 1.927
108.8007 1.458
108.8310 1.823
108.8613 1.979
108.8915 1.771
108.9218 1.667
108.9521 1.510
108.9824 1.510
109.0127 1.302
109.0429 1.406
109.0732 1.458
109.1035 1.615
109.1338 1.510
109.1641 1.458
109.1943 1.875
109.2246 1.719
109.2549 1.875
109.2852 2.187
109.3154 1.458
109.3457 1.719
109.3760 1.823
109.4063 1.510
109.4366 1.875
109.4668 1.615
109.4971 1.198
109.5274 1.510
109.5577 1.875
109.5880 1.719
109.6182 1.719
109.6485 1.875
109.6788 1.458
109.7091 1.615
109.7393 1.302
109.7696 1.354
109.7999 1.458
109.8302 1.406
109.8605 1.406
109.8907 2.240
109.9210 1.302
109.9513 1.667
109.9816 1.510
110.0119 1.667
110.0421 2.292
110.0724 1.615
110.1027 0.937
110.1330 1.562
110.1632 1.615
110.1935 1.719
110.2238 1.250
110.2541 1.875
110.2844 1.146
110.3146 0.937
110.3449 1.875
110.3752 1.406
110.4055 2.135
110.4358 1.667
110.4660 1.250
110.4963 1.823
110.5266 1.771
110.5569 1.510
110.5871 1.198
110.6174 1.458
110.6477 1.615
110.6780 1.615
110.7083 1.875
110.7385 1.406
110.7688 1.615
110.7991 1.562
110.8294 1.615
110.8597 1.354
110.8899 1.615
110.9202 1.562
110.9505 1.042
110.9808 1.146
111.0110 1.927
111.0413 1.458
111.0716 1.927
111.1019 1.615
111.1322 1.719
111.1624 1.406
111.1927 1.250
111.2230 1.667
111.2533 1.615
111.2836 1.198
111.3138 1.771
111.3441 1.302
111.3744 2.031
111.4047 2.135
111.4350 1.771
111.4652 1.927
111.4955 0.937
111.5258 1.562
111.5561 1.615
111.5863 1.198
111.6166 1.042
111.6469 1.250
111.6772 1.771
111.7075 1.406
111.7377 1.615
111.7680 1.562
111.7983 2.031
111.8286 1.667
111.8589 1.667
111.8891 1.667
111.9194 1.875
111.9497 1.667
111.9800 2.448
112.0102 1.094
112.0405 1.771
112.0708 1.198
112.1011 1.771
112.1314 1.510
112.1616 1.875
112.1919 1.771
112.2222 1.771
112.2525 1.667
112.2828 2.344
112.3130 1.250
112.3433 1.875
112.3736 1.771
112.4039 2.344
112.4341 1.198
112.4644 1.667
112.4947 2.344
112.5250 1.354
112.5553 1.823
112.5855 1.927
112.6158 1.927
112.6461 1.667
112.6764 1.875
112.7067 1.771
112.7369 1.250
112.7672 1.562
112.7975 1.667
112.8278 1.771
112.8580 1.458
112.8883 1.719
112.9186 1.719
112.9489 1.771
112.9792 1.771
113.0094 1.823
113.0397 1.719
113.0700 1.615
113.1003 1.719
113.1306 1.875
113.1608 2.135
113.1911 1.719
113.2214 1.562
113.2517 1.250
113.2819 1.562
113.3122 1.719
113.3425 1.719
113.3728 1.875
113.4031 1.562
113.4333 2.187
113.4636 1.667
113.4939 1.771
113.5242 2.135
113.5545 1.927
113.5847 1.354
113.6150 1.458
113.6453 2.083
113.6756 1.979
113.7058 1.094
113.7361 1.667
113.7664 1.510
113.7967 1.823
113.8270 1.979
113.8572 1.458
113.8875 1.823
113.9178 1.719
113.9481 1.615
113.9784 2.083
114.0086 1.302
114.0389 2.031
114.0692 1.250
114.0995 1.615
114.1298 1.823
114.1600 1.510
114.1903 1.562
114.2206 1.250
114.2509 1.562
114.2811 1.615
114.3114 1.406
114.3417 1.562
114.3720 1.823
114.4023 1.823
114.4325 1.562
114.4628 1.615
114.4931 1.719
114.5234 1.875
114.5537 1.667
114.5839 1.667
114.6142 1.667
114.6445 2.031
114.6748 2.187
114.7050 1.771
114.7353 1.771
114.7656 2.083
114.7959 2.187
114.8262 2.135
114.8564 1.510
114.8867 1.719
114.9170 2.187
114.9473 1.667
114.9776 0.885
115.0078 1.823
115.0381 2.083
115.0684 1.562
115.0987 1.406
115.1289 1.667
115.1592 2.031
115.1895 1.198
115.2198 1.198
115.2501 1.771
115.2803 1.562
115.3106 2.083
115.3409 1.979
115.3712 1.875
115.4015 1.146
115.4317 1.615
115.4620 1.719
115.4923 2.031
115.5226 1.771
115.5528 1.250
115.5831 1.615
115.6134 1.406
115.6437 1.094
115.6740 1.458
115.7042 1.250
115.7345 2.187
115.7648 1.615
115.7951 1.667
115.8254 1.406
115.8556 1.406
115.8859 1.198
115.9162 2.135
115.9465 1.458
115.9767 1.198
116.0070 2.031
116.0373 1.146
116.0676 1.562
116.0979 1.875
116.1281 1.771
116.1584 1.615
116.1887 1.927
116.2190 1.562
116.2493 1.927
116.2795 1.771
116.3098 1.667
116.3401 1.771
116.3704 1.823
116.4006 1.562
116.4309 1.562
116.4612 1.927
116.4915 1.458
116.5218 1.510
116.5520 1.979
116.5823 1.979
116.6126 1.094
116.6429 1.406
116.6732 1.927
116.7034 1.354
116.7337 1.510
116.7640 1.094
116.7943 1.823
116.8245 1.771
116.8548 1.719
116.8851 2.187
116.9154 1.979
116.9457 1.719
116.9759 1.979
117.0062 1.562
117.0365 1.667
117.0668 2.031
117.0971 1.250
117.1273 1.615
117.1576 1.927
117.1879 1.875
117.2182 1.823
117.2485 1.510
117.2787 1.615
117.3090 1.562
117.3393 1.562
117.3696 1.250
117.3998 1.094
117.4301 2.031
117.4604 1.823
117.4907 1.562
117.5210 1.406
117.5512 2.083
117.5815 1.354
117.6118 1.510
117.6421 1.562
117.6724 2.031
117.7026 1.719
117.7329 1.510
117.7632 1.094
117.7935 2.187
117.8237 1.979
117.8540 1.562
117.8843 1.406
117.9146 1.250
117.9449 1.562
117.9751 1.198
118.0054 1.771
118.0357 1.719
118.0660 1.667
118.0963 1.667
118.1265 1.927
118.1568 1.927
118.1871 2.083
118.2174 1.406
118.2476 1.615
118.2779 1.927
118.3082 1.354
118.3385 1.406
118.3688 1.562
118.3990 1.979
118.4293 1.875
118.4596 1.771
118.4899 1.771
118.5202 1.562
118.5504 2.187
118.5807 1.250
118.6110 1.667
118.6413 1.667
118.6715 1.510
118.7018 1.562
118.7321 1.875
118.7624 1.510
118.7927 1.562
118.8229 1.510
118.8532 1.615
118.8835 1.562
118.9138 1.771
118.9441 1.094
118.9743 1.354
119.0046 1.354
119.0349 1.615
119.0652 1.719
119.0954 1.458
119.1257 1.927
119.1560 1.250
119.1863 1.771
119.2166 1.771
119.2468 1.510
119.2771 1.667
119.3074 2.344
119.3377 1.458
119.3680 1.510
119.3982 1.667
119.4285 1.667
119.4588 1.510
119.4891 1.719
119.5193 1.875
119.5496 1.771
119.5799 1.458
119.6102 1.719
119.6405 1.875
119.6707 1.198
119.7010 1.615
119.7313 1.875
119.7616 2.083
119.7919 1.562
119.8221 1.562
119.8524 1.823
119.8827 1.719
119.9130 1.406
119.9433 1.667
119.9735 1.719
120.0038 1.406
