'Id: "" Comment: "" Operator: "Lab Manager" Anode: "Cu" Scantype: "Locked Coupled" TimePerStep: "19.2" X: "9999" Y: "9999" Z: "9999" 
10.0015 3.229
10.0318 3.594
10.0620 3.958
10.0923 1.719
10.1226 3.333
10.1529 3.698
10.1832 3.385
10.2134 3.542
10.2437 3.698
10.2740 3.281
10.3043 2.708
10.3346 3.542
10.3648 3.177
10.3951 4.062
10.4254 3.281
10.4557 2.708
10.4859 4.167
10.5162 2.604
10.5465 2.812
10.5768 3.437
10.6071 3.490
10.6373 2.448
10.6676 3.646
10.6979 3.177
10.7282 2.969
10.7585 3.333
10.7887 4.219
10.8190 3.229
10.8493 3.437
10.8796 3.750
10.9098 3.385
10.9401 2.865
10.9704 3.750
11.0007 3.333
11.0310 3.073
11.0612 3.385
11.0915 2.344
11.1218 3.021
11.1521 3.229
11.1824 2.708
11.2126 2.344
11.2429 3.229
11.2732 3.542
11.3035 3.229
11.3337 2.656
11.3640 2.812
11.3943 3.125
11.4246 3.229
11.4549 3.594
11.4851 3.646
11.5154 3.490
11.5457 3.646
11.5760 3.073
11.6063 2.135
11.6365 2.135
11.6668 2.552
11.6971 3.073
11.7274 3.698
11.7577 3.073
11.7879 3.177
11.8182 2.812
11.8485 2.865
11.8788 2.812
11.9090 3.125
11.9393 2.656
11.9696 2.969
11.9999 2.969
12.0302 3.229
12.0604 2.760
12.0907 2.917
12.1210 2.500
12.1513 3.073
12.1816 2.708
12.2118 2.604
12.2421 2.656
12.2724 3.750
12.3027 3.437
12.3329 2.500
12.3632 2.812
12.3935 2.240
12.4238 2.656
12.4541 2.708
12.4843 2.604
12.5146 2.708
12.5449 2.500
12.5752 2.969
12.6055 3.281
12.6357 3.542
12.6660 2.344
12.6963 3.073
12.7266 3.021
12.7568 2.865
12.7871 3.125
12.8174 3.021
12.8477 3.177
12.8780 1.979
12.9082 2.135
12.9385 2.135
12.9688 3.073
12.9991 3.333
13.0294 2.760
13.0596 2.240
13.0899 2.812
13.1202 2.292
13.1505 1.927
13.1807 2.552
13.2110 2.552
13.2413 2.760
13.2716 2.604
13.3019 2.604
13.3321 2.708
13.3624 2.812
13.3927 1.771
13.4230 2.917
13.4533 1.979
13.4835 2.344
13.5138 1.771
13.5441 2.917
13.5744 2.969
13.6046 2.865
13.6349 2.448
13.6652 2.708
13.6955 2.708
13.7258 2.656
13.7560 2.240
13.7863 2.448
13.8166 2.187
13.8469 1.771
13.8772 2.292
13.9074 2.240
13.9377 2.500
13.9680 2.500
13.9983 1.615
14.0285 2.031
14.0588 2.969
14.0891 2.135
14.1194 2.292
14.1497 2.396
14.1799 2.448
14.2102 2.812
14.2405 2.708
14.2708 1.719
14.3011 2.552
14.3313 2.656
14.3616 1.927
14.3919 1.562
14.4222 2.292
14.4524 2.240
14.4827 2.396
14.5130 2.031
14.5433 1.615
14.5736 2.240
14.6038 3.021
14.6341 2.292
14.6644 2.604
14.6947 2.760
14.7250 2.031
14.7552 1.979
14.7855 1.771
14.8158 2.292
14.8461 2.448
14.8764 2.396
14.9066 1.927
14.9369 1.719
14.9672 1.979
14.9975 2.031
15.0277 2.448
15.0580 2.396
15.0883 2.187
15.1186 2.031
15.1489 1.667
15.1791 2.187
15.2094 2.396
15.2397 2.708
15.2700 1.979
15.3003 2.604
15.3305 2.240
15.3608 2.083
15.3911 2.292
15.4214 2.969
15.4516 1.719
15.4819 2.240
15.5122 2.604
15.5425 1.979
15.5728 1.354
15.6030 2.344
15.6333 1.927
15.6636 2.500
15.6939 2.135
15.7242 2.083
15.7544 2.760
15.7847 2.031
15.8150 2.500
15.8453 2.292
15.8755 1.979
15.9058 2.448
15.9361 2.656
15.9664 2.396
15.9967 2.552
16.0269 2.240
16.0572 1.667
16.0875 2.187
16.1178 2.083
16.1481 2.396
16.1783 2.344
16.2086 2.187
16.2389 2.865
16.2692 2.187
16.2994 1.354
16.3297 2.708
16.3600 2.448
16.3903 2.135
16.4206 1.458
16.4508 2.500
16.4811 2.083
16.5114 2.396
16.5417 2.604
16.5720 1.979
16.6022 1.458
16.6325 1.458
16.6628 2.187
16.6931 2.240
16.7233 2.604
16.7536 2.448
16.7839 1.927
16.8142 1.823
16.8445 2.292
16.8747 1.771
16.9050 2.708
16.9353 2.760
16.9656 2.292
16.9959 2.187
17.0261 1.562
17.0564 1.615
17.0867 1.875
17.1170 2.708
17.1472 2.396
17.1775 3.229
17.2078 2.500
17.2381 1.979
17.2684 2.187
17.2986 2.135
17.3289 2.135
17.3592 2.344
17.3895 2.135
17.4198 2.708
17.4500 1.667
17.4803 2.031
17.5106 1.719
17.5409 1.615
17.5712 2.344
17.6014 1.927
17.6317 2.187
17.6620 2.083
17.6923 2.240
17.7225 1.719
17.7528 1.927
17.7831 2.031
17.8134 2.240
17.8437 1.667
17.8739 1.615
17.9042 2.292
17.9345 2.187
17.9648 1.354
17.9951 1.667
18.0253 1.615
18.0556 2.083
18.0859 2.552
18.1162 2.292
18.1464 2.031
18.1767 2.083
18.2070 2.448
18.2373 1.979
18.2676 2.865
18.2978 1.979
18.3281 1.667
18.3584 1.719
18.3887 1.615
18.4190 1.979
18.4492 1.667
18.4795 1.094
18.5098 2.083
18.5401 2.135
18.5703 2.031
18.6006 1.927
18.6309 1.771
18.6612 1.823
18.6915 1.823
18.7217 2.344
18.7520 1.615
18.7823 1.458
18.8126 2.135
18.8429 1.667
18.8731 1.823
18.9034 1.562
18.9337 2.604
18.9640 1.823
18.9942 1.667
19.0245 1.771
19.0548 1.354
19.0851 2.083
19.1154 1.667
19.1456 2.500
19.1759 2.500
19.2062 1.823
19.2365 2.292
19.2668 2.135
19.2970 1.875
19.3273 1.302
19.3576 1.510
19.3879 1.406
19.4181 1.771
19.4484 1.927
19.4787 1.823
19.5090 1.667
19.5393 2.240
19.5695 2.500
19.5998 2.240
19.6301 1.927
19.6604 1.771
19.6907 1.667
19.7209 1.615
19.7512 1.667
19.7815 1.979
19.8118 1.979
19.8420 1.823
19.8723 1.771
19.9026 1.719
19.9329 1.927
19.9632 1.510
19.9934 1.927
20.0237 1.719
20.0540 1.146
20.0843 1.458
20.1146 1.875
20.1448 1.302
20.1751 1.927
20.2054 1.510
20.2357 1.146
20.2659 1.562
20.2962 1.667
20.3265 1.771
20.3568 1.667
20.3871 1.927
20.4173 1.875
20.4476 2.187
20.4779 1.719
20.5082 1.458
20.5385 2.031
20.5687 2.083
20.5990 1.927
20.6293 2.604
20.6596 1.823
20.6899 2.135
20.7201 1.719
20.7504 2.240
20.7807 2.240
20.8110 1.823
20.8412 2.135
20.8715 1.823
20.9018 1.927
20.9321 1.823
20.9624 1.615
20.9926 1.771
21.0229 1.875
21.0532 1.510
21.0835 1.354
21.1138 1.562
21.1440 1.719
21.1743 1.562
21.2046 1.562
21.2349 2.031
21.2651 2.240
21.2954 1.406
21.3257 1.823
21.3560 1.875
21.3863 1.823
21.4165 2.031
21.4468 1.979
21.4771 1.823
21.5074 1.615
21.5377 1.562
21.5679 1.406
21.5982 1.615
21.6285 1.615
21.6588 1.406
21.6890 1.719
21.7193 2.031
21.7496 1.615
21.7799 1.823
21.8102 1.823
21.8404 1.875
21.8707 1.771
21.9010 1.875
21.9313 1.823
21.9616 1.406
21.9918 1.146
22.0221 1.823
22.0524 2.031
22.0827 1.458
22.1129 1.771
22.1432 1.719
22.1735 1.719
22.2038 1.771
22.2341 2.031
22.2643 2.135
22.2946 1.823
22.3249 1.823
22.3552 1.094
22.3855 1.719
22.4157 2.187
22.4460 1.302
22.4763 1.562
22.5066 1.510
22.5368 2.135
22.5671 1.406
22.5974 2.344
22.6277 2.135
22.6580 2.083
22.6882 2.031
22.7185 1.979
22.7488 2.031
22.7791 2.240
22.8094 1.615
22.8396 1.146
22.8699 2.187
22.9002 1.510
22.9305 1.667
22.9607 1.146
22.9910 1.146
23.0213 1.719
23.0516 1.875
23.0819 2.187
23.1121 2.031
23.1424 1.354
23.1727 1.406
23.2030 0.990
23.2333 1.667
23.2635 1.198
23.2938 1.562
23.3241 1.146
23.3544 1.302
23.3846 1.458
23.4149 1.562
23.4452 1.615
23.4755 1.771
23.5058 1.302
23.5360 1.823
23.5663 1.198
23.5966 1.771
23.6269 1.562
23.6572 1.719
23.6874 1.406
23.7177 1.458
23.7480 1.302
23.7783 1.979
23.8086 1.823
23.8388 1.771
23.8691 1.719
23.8994 1.354
23.9297 1.562
23.9599 1.875
23.9902 1.510
24.0205 1.719
24.0508 1.823
24.0811 1.510
24.1113 1.562
24.1416 1.667
24.1719 1.771
24.2022 1.875
24.2325 1.302
24.2627 1.615
24.2930 1.146
24.3233 1.458
24.3536 1.562
24.3838 1.146
24.4141 1.458
24.4444 1.302
24.4747 1.510
24.5050 1.406
24.5352 1.250
24.5655 1.667
24.5958 1.615
24.6261 1.510
24.6564 1.354
24.6866 2.083
24.7169 1.406
24.7472 1.562
24.7775 1.354
24.8077 1.406
24.8380 1.667
24.8683 1.562
24.8986 1.562
24.9289 1.510
24.9591 1.354
24.9894 2.031
25.0197 1.458
25.0500 1.406
25.0803 1.667
25.1105 1.354
25.1408 1.094
25.1711 1.354
25.2014 1.354
25.2316 1.667
25.2619 1.667
25.2922 1.875
25.3225 1.458
25.3528 1.406
25.3830 1.094
25.4133 2.083
25.4436 1.510
25.4739 1.354
25.5042 1.667
25.5344 1.406
25.5647 1.719
25.5950 1.927
25.6253 1.667
25.6555 1.510
25.6858 1.458
25.7161 1.615
25.7464 1.823
25.7767 1.146
25.8069 1.719
25.8372 1.302
25.8675 1.719
25.8978 1.510
25.9281 1.927
25.9583 1.615
25.9886 1.094
26.0189 1.250
26.0492 1.771
26.0794 1.771
26.1097 1.667
26.1400 1.510
26.1703 1.406
26.2006 1.458
26.2308 1.562
26.2611 1.302
26.2914 1.302
26.3217 1.667
26.3520 1.094
26.3822 1.771
26.4125 1.875
26.4428 1.458
26.4731 1.198
26.5034 1.354
26.5336 1.510
26.5639 2.187
26.5942 1.667
26.6245 1.875
26.6547 1.510
26.6850 1.719
26.7153 1.406
26.7456 1.719
26.7759 1.406
26.8061 1.510
26.8364 1.406
26.8667 1.250
26.8970 1.719
26.9273 1.823
26.9575 1.719
26.9878 1.458
27.0181 1.667
27.0484 1.354
27.0786 1.406
27.1089 1.875
27.1392 2.187
27.1695 1.771
27.1998 1.354
27.2300 1.198
27.2603 1.719
27.2906 1.719
27.3209 1.719
27.3512 1.458
27.3814 1.875
27.4117 1.875
27.4420 1.875
27.4723 1.615
27.5025 1.354
27.5328 1.927
27.5631 1.927
27.5934 1.667
27.6237 1.927
27.6539 2.083
27.6842 1.979
27.7145 1.615
27.7448 1.406
27.7751 1.615
27.8053 1.875
27.8356 1.615
27.8659 2.240
27.8962 1.719
27.9264 2.031
27.9567 1.302
27.9870 1.927
28.0173 2.031
28.0476 1.823
28.0778 1.458
28.1081 1.719
28.1384 1.771
28.1687 1.406
28.1990 1.771
28.2292 1.771
28.2595 1.719
28.2898 1.562
28.3201 1.458
28.3503 1.771
28.3806 2.031
28.4109 1.875
28.4412 1.979
28.4715 1.562
28.5017 2.187
28.5320 1.667
28.5623 2.344
28.5926 1.823
28.6229 1.302
28.6531 1.615
28.6834 1.823
28.7137 1.615
28.7440 2.187
28.7742 1.354
28.8045 1.302
28.8348 1.979
28.8651 1.458
28.8954 1.823
28.9256 1.667
28.9559 1.667
28.9862 1.979
29.0165 2.344
29.0468 1.771
29.0770 1.875
29.1073 1.094
29.1376 2.083
29.1679 1.302
29.1981 1.979
29.2284 1.823
29.2587 1.875
29.2890 1.927
29.3193 2.187
29.3495 1.875
29.3798 2.760
29.4101 1.510
29.4404 1.771
29.4707 2.187
29.5009 2.031
29.5312 1.510
29.5615 2.240
29.5918 2.240
29.6221 2.500
29.6523 2.292
29.6826 2.135
29.7129 2.448
29.7432 1.615
29.7734 2.396
29.8037 1.458
29.8340 2.396
29.8643 1.719
29.8946 2.187
29.9248 2.448
29.9551 2.083
29.9854 1.875
30.0157 1.302
30.0460 2.552
30.0762 1.771
30.1065 2.135
30.1368 2.552
30.1671 2.187
30.1973 2.187
30.2276 2.396
30.2579 1.823
30.2882 2.292
30.3185 2.187
30.3487 3.021
30.3790 2.448
30.4093 2.292
30.4396 2.240
30.4699 2.448
30.5001 2.396
30.5304 2.083
30.5607 3.281
30.5910 2.969
30.6212 2.187
30.6515 2.656
30.6818 2.604
30.7121 3.646
30.7424 2.917
30.7726 3.229
30.8029 3.490
30.8332 4.635
30.8635 3.333
30.8938 3.177
30.9240 4.167
30.9543 3.281
30.9846 4.427
31.0149 4.010
31.0451 4.740
31.0754 5.781
31.1057 4.115
31.1360 4.948
31.1663 5.781
31.1965 6.250
31.2268 6.979
31.2571 7.917
31.2874 7.344
31.3177 8.229
31.3479 10.781
31.3782 11.510
31.4085 11.302
31.4388 14.896
31.4690 16.094
31.4993 18.542
31.5296 16.719
31.5599 20.833
31.5902 23.073
31.6204 22.396
31.6507 22.500
31.6810 22.656
31.7113 18.854
31.7416 18.073
31.7718 17.083
31.8021 14.323
31.8324 13.385
31.8627 10.937
31.8929 10.104
31.9232 8.958
31.9535 8.802
31.9838 7.865
32.0141 5.677
32.0443 6.458
32.0746 6.146
32.1049 5.781
32.1352 4.010
32.1655 4.948
32.1957 4.271
32.2260 4.167
32.2563 4.010
32.2866 3.594
32.3169 3.437
32.3471 4.062
32.3774 4.479
32.4077 3.490
32.4380 3.646
32.4682 3.698
32.4985 3.385
32.5288 3.125
32.5591 3.333
32.5894 3.594
32.6196 2.812
32.6499 3.125
32.6802 2.917
32.7105 3.073
32.7408 3.333
32.7710 2.812
32.8013 2.448
32.8316 2.396
32.8619 3.333
32.8921 2.708
32.9224 2.500
32.9527 3.021
32.9830 2.292
33.0133 2.969
33.0435 2.396
33.0738 2.812
33.1041 3.021
33.1344 2.865
33.1647 2.396
33.1949 2.656
33.2252 2.396
33.2555 2.500
33.2858 2.708
33.3160 2.500
33.3463 2.656
33.3766 2.448
33.4069 2.708
33.4372 3.021
33.4674 2.656
33.4977 2.396
33.5280 3.125
33.5583 3.490
33.5886 2.760
33.6188 2.708
33.6491 3.437
33.6794 2.656
33.7097 3.125
33.7399 3.073
33.7702 4.010
33.8005 4.792
33.8308 3.698
33.8611 4.427
33.8913 4.271
33.9216 5.729
33.9519 5.521
33.9822 6.354
34.0125 5.573
34.0427 7.656
34.0730 8.594
34.1033 10.365
34.1336 11.771
34.1638 13.906
34.1941 19.635
34.2244 21.719
34.2547 23.229
34.2850 25.052
34.3152 24.115
34.3455 21.719
34.3758 19.635
34.4061 16.562
34.4364 11.979
34.4666 8.958
34.4969 8.385
34.5272 7.656
34.5575 6.615
34.5877 5.625
34.6180 4.375
34.6483 4.271
34.6786 4.010
34.7089 4.219
34.7391 4.062
34.7694 3.333
34.7997 3.177
34.8300 4.115
34.8603 4.219
34.8905 3.958
34.9208 3.750
34.9511 4.375
34.9814 4.375
35.0116 4.010
35.0419 2.969
35.0722 3.698
35.1025 3.333
35.1328 3.229
35.1630 3.333
35.1933 3.542
35.2236 3.281
35.2539 3.646
35.2842 4.531
35.3144 5.052
35.3447 4.740
35.3750 4.167
35.4053 4.687
35.4356 5.208
35.4658 4.531
35.4961 4.271
35.5264 5.312
35.5567 5.521
35.5869 6.250
35.6172 5.417
35.6475 6.979
35.6778 8.385
35.7081 7.708
35.7383 9.792
35.7686 9.219
35.7989 11.667
35.8292 10.677
35.8595 13.333
35.8897 14.635
35.9200 16.198
35.9503 19.635
35.9806 23.385
36.0108 22.552
36.0411 25.625
36.0714 27.083
36.1017 30.990
36.1320 26.927
36.1622 29.583
36.1925 27.552
36.2228 23.437
36.2531 22.812
36.2834 19.167
36.3136 18.021
36.3439 15.833
36.3742 10.937
36.4045 11.250
36.4347 11.146
36.4650 8.021
36.4953 7.292
36.5256 6.406
36.5559 7.292
36.5861 6.875
36.6164 4.844
36.6467 5.833
36.6770 4.687
36.7073 3.854
36.7375 3.646
36.7678 3.958
36.7981 3.750
36.8284 3.958
36.8586 3.490
36.8889 3.385
36.9192 3.906
36.9495 2.604
36.9798 3.021
37.0100 3.385
37.0403 3.646
37.0706 2.292
37.1009 3.125
37.1312 1.927
37.1614 2.292
37.1917 2.552
37.2220 3.021
37.2523 2.083
37.2825 2.604
37.3128 2.135
37.3431 1.667
37.3734 1.719
37.4037 1.615
37.4339 1.458
37.4642 2.500
37.4945 2.135
37.5248 1.875
37.5551 1.771
37.5853 2.240
37.6156 1.562
37.6459 1.875
37.6762 1.979
37.7064 1.510
37.7367 1.979
37.7670 1.562
37.7973 1.562
37.8276 1.979
37.8578 1.667
37.8881 1.615
37.9184 2.083
37.9487 1.719
37.9790 1.198
38.0092 1.354
38.0395 1.771
38.0698 1.771
38.1001 1.510
38.1304 1.510
38.1606 1.562
38.1909 1.562
38.2212 1.406
38.2515 1.667
38.2817 1.146
38.3120 1.094
38.3423 1.406
38.3726 1.302
38.4029 1.458
38.4331 1.927
38.4634 1.146
38.4937 1.562
38.5240 1.146
38.5543 1.458
38.5845 1.250
38.6148 1.510
38.6451 1.302
38.6754 1.510
38.7056 1.719
38.7359 1.458
38.7662 1.562
38.7965 1.406
38.8268 1.094
38.8570 1.250
38.8873 1.354
38.9176 1.042
38.9479 0.729
38.9782 1.562
39.0084 1.667
39.0387 0.677
39.0690 1.042
39.0993 1.354
39.1295 1.406
39.1598 1.562
39.1901 1.042
39.2204 1.250
39.2507 1.198
39.2809 1.927
39.3112 1.146
39.3415 1.042
39.3718 1.198
39.4021 1.771
39.4323 1.146
39.4626 0.937
39.4929 0.833
39.5232 1.354
39.5534 0.833
39.5837 1.250
39.6140 0.990
39.6443 1.094
39.6746 0.990
39.7048 1.406
39.7351 1.042
39.7654 1.458
39.7957 1.198
39.8260 0.833
39.8562 1.302
39.8865 0.833
39.9168 1.302
39.9471 1.354
39.9773 0.885
40.0076 1.146
40.0379 1.146
40.0682 1.198
40.0985 1.094
40.1287 0.990
40.1590 0.937
40.1893 0.781
40.2196 0.990
40.2499 0.885
40.2801 1.458
40.3104 0.729
40.3407 0.937
40.3710 0.781
40.4012 0.885
40.4315 0.885
40.4618 1.458
40.4921 0.990
40.5224 0.937
40.5526 1.250
40.5829 0.990
40.6132 0.781
40.6435 1.094
40.6738 0.833
40.7040 0.781
40.7343 0.990
40.7646 0.833
40.7949 1.510
40.8251 1.354
40.8554 0.937
40.8857 0.833
40.9160 0.781
40.9463 0.990
40.9765 1.146
41.0068 1.771
41.0371 0.833
41.0674 0.781
41.0977 1.198
41.1279 0.990
41.1582 0.781
41.1885 0.885
41.2188 1.354
41.2491 1.094
41.2793 1.406
41.3096 1.198
41.3399 0.990
41.3702 0.625
41.4004 0.781
41.4307 0.833
41.4610 1.094
41.4913 0.365
41.5216 1.406
41.5518 1.042
41.5821 1.042
41.6124 0.677
41.6427 0.990
41.6730 0.990
41.7032 0.729
41.7335 0.729
41.7638 1.406
41.7941 1.094
41.8243 1.250
41.8546 1.354
41.8849 1.094
41.9152 0.729
41.9455 1.146
41.9757 0.937
42.0060 1.198
42.0363 0.885
42.0666 1.042
42.0969 1.042
42.1271 1.042
42.1574 1.042
42.1877 1.146
42.2180 1.667
42.2482 0.729
42.2785 1.146
42.3088 1.354
42.3391 0.833
42.3694 0.573
42.3996 0.625
42.4299 1.406
42.4602 0.990
42.4905 1.406
42.5208 1.198
42.5510 0.990
42.5813 0.573
42.6116 0.885
42.6419 0.729
42.6721 0.885
42.7024 1.146
42.7327 1.094
42.7630 0.781
42.7933 0.990
42.8235 1.146
42.8538 0.729
42.8841 0.625
42.9144 1.198
42.9447 0.990
42.9749 0.833
43.0052 1.354
43.0355 0.781
43.0658 1.042
43.0960 0.937
43.1263 1.094
43.1566 0.885
43.1869 1.302
43.2172 0.833
43.2474 1.250
43.2777 0.937
43.3080 0.990
43.3383 0.781
43.3686 0.937
43.3988 1.198
43.4291 0.781
43.4594 0.885
43.4897 0.990
43.5199 0.937
43.5502 0.781
43.5805 1.354
43.6108 1.250
43.6411 1.406
43.6713 1.198
43.7016 0.937
43.7319 0.885
43.7622 1.198
43.7925 0.937
43.8227 1.302
43.8530 0.990
43.8833 1.458
43.9136 1.198
43.9439 1.094
43.9741 0.885
44.0044 0.625
44.0347 0.729
44.0650 1.042
44.0952 0.990
44.1255 0.729
44.1558 0.729
44.1861 1.302
44.2164 1.042
44.2466 1.667
44.2769 1.250
44.3072 1.042
44.3375 0.885
44.3678 0.990
44.3980 1.406
44.4283 1.146
44.4586 0.885
44.4889 1.510
44.5191 1.094
44.5494 0.781
44.5797 1.406
44.6100 1.354
44.6403 1.354
44.6705 0.677
44.7008 0.833
44.7311 1.458
44.7614 1.406
44.7917 1.406
44.8219 1.354
44.8522 0.625
44.8825 1.198
44.9128 0.885
44.9430 1.615
44.9733 1.354
45.0036 1.302
45.0339 0.729
45.0642 0.833
45.0944 0.729
45.1247 0.729
45.1550 0.729
45.1853 1.198
45.2156 0.729
45.2458 1.354
45.2761 1.562
45.3064 0.729
45.3367 0.990
45.3669 1.458
45.3972 1.094
45.4275 1.198
45.4578 1.562
45.4881 1.146
45.5183 0.521
45.5486 1.354
45.5789 1.198
45.6092 1.198
45.6395 1.458
45.6697 1.094
45.7000 1.250
45.7303 1.250
45.7606 1.250
45.7908 1.198
45.8211 1.094
45.8514 1.510
45.8817 0.990
45.9120 0.990
45.9422 1.146
45.9725 1.667
46.0028 1.198
46.0331 1.562
46.0634 1.667
46.0936 1.510
46.1239 1.510
46.1542 0.990
46.1845 1.042
46.2147 1.042
46.2450 0.937
46.2753 1.250
46.3056 1.146
46.3359 1.302
46.3661 0.833
46.3964 1.510
46.4267 1.302
46.4570 1.198
46.4873 1.510
46.5175 1.042
46.5478 1.302
46.5781 1.510
46.6084 1.250
46.6386 1.979
46.6689 1.510
46.6992 1.771
46.7295 1.823
46.7598 2.604
46.7900 1.562
46.8203 1.823
46.8506 2.292
46.8809 1.719
46.9112 2.031
46.9414 2.031
46.9717 2.031
47.0020 2.344
47.0323 2.187
47.0626 2.448
47.0928 3.177
47.1231 2.760
47.1534 4.010
47.1837 3.698
47.2139 4.479
47.2442 4.844
47.2745 5.260
47.3048 5.417
47.3351 4.948
47.3653 6.667
47.3956 6.354
47.4259 5.000
47.4562 5.937
47.4865 4.583
47.5167 6.146
47.5470 5.677
47.5773 4.062
47.6076 4.115
47.6378 3.229
47.6681 2.917
47.6984 2.917
47.7287 2.812
47.7590 2.083
47.7892 1.771
47.8195 2.135
47.8498 2.031
47.8801 2.344
47.9104 1.667
47.9406 1.562
47.9709 1.771
48.0012 2.344
48.0315 1.250
48.0617 1.771
48.0920 1.719
48.1223 0.990
48.1526 1.458
48.1829 1.198
48.2131 1.042
48.2434 1.406
48.2737 1.875
48.3040 1.615
48.3343 1.250
48.3645 1.094
48.3948 1.250
48.4251 2.031
48.4554 0.781
48.4856 0.937
48.5159 1.042
48.5462 1.510
48.5765 1.250
48.6068 0.677
48.6370 1.354
48.6673 1.354
48.6976 1.354
48.7279 1.250
48.7582 1.094
48.7884 1.146
48.8187 1.042
48.8490 1.406
48.8793 0.990
48.9095 1.042
48.9398 1.198
48.9701 0.885
49.0004 0.990
49.0307 1.354
49.0609 1.302
49.0912 1.042
49.1215 0.990
49.1518 1.458
49.1821 1.146
49.2123 1.146
49.2426 0.990
49.2729 1.458
49.3032 0.937
49.3334 0.885
49.3637 1.250
49.3940 1.198
49.4243 1.094
49.4546 1.510
49.4848 0.885
49.5151 0.885
49.5454 1.302
49.5757 1.250
49.6060 1.302
49.6362 0.781
49.6665 0.885
49.6968 0.937
49.7271 1.042
49.7574 0.833
49.7876 1.302
49.8179 1.042
49.8482 1.146
49.8785 1.302
49.9087 1.198
49.9390 1.302
49.9693 0.885
49.9996 0.677
50.0299 0.885
50.0601 1.250
50.0904 0.729
50.1207 0.729
50.1510 1.146
50.1813 1.250
50.2115 0.729
50.2418 1.094
50.2721 1.198
50.3024 1.094
50.3326 1.198
50.3629 0.990
50.3932 1.094
50.4235 1.250
50.4538 0.677
50.4840 0.937
50.5143 0.885
50.5446 1.615
50.5749 0.677
50.6052 1.302
50.6354 0.781
50.6657 1.146
50.6960 1.198
50.7263 0.833
50.7565 1.042
50.7868 1.094
50.8171 1.094
50.8474 1.250
50.8777 0.885
50.9079 0.990
50.9382 1.042
50.9685 1.094
50.9988 1.198
51.0291 0.833
51.0593 1.198
51.0896 1.250
51.1199 1.042
51.1502 1.198
51.1804 1.042
51.2107 1.406
51.2410 1.510
51.2713 1.146
51.3016 0.990
51.3318 1.302
51.3621 1.198
51.3924 0.677
51.4227 1.042
51.4530 1.198
51.4832 1.198
51.5135 1.198
51.5438 1.354
51.5741 0.781
51.6043 1.198
51.6346 1.615
51.6649 1.146
51.6952 0.833
51.7255 0.885
51.7557 1.510
51.7860 1.198
51.8163 0.521
51.8466 1.458
51.8769 0.729
51.9071 0.781
51.9374 1.146
51.9677 1.250
51.9980 1.198
52.0282 1.042
52.0585 0.781
52.0888 1.198
52.1191 0.885
52.1494 0.677
52.1796 1.146
52.2099 1.146
52.2402 1.146
52.2705 1.510
52.3008 0.573
52.3310 0.885
52.3613 0.937
52.3916 0.885
52.4219 0.833
52.4521 1.146
52.4824 1.302
52.5127 1.302
52.5430 0.937
52.5733 0.937
52.6035 0.990
52.6338 1.042
52.6641 1.146
52.6944 1.302
52.7247 1.250
52.7549 1.094
52.7852 1.146
52.8155 1.042
52.8458 1.302
52.8761 1.146
52.9063 1.146
52.9366 1.094
52.9669 1.146
52.9972 1.250
53.0274 1.146
53.0577 1.146
53.0880 1.302
53.1183 0.677
53.1486 1.406
53.1788 1.667
53.2091 1.042
53.2394 1.198
53.2697 1.146
53.3000 0.729
53.3302 1.250
53.3605 1.146
53.3908 0.885
53.4211 1.302
53.4513 1.198
53.4816 1.458
53.5119 1.094
53.5422 0.729
53.5725 0.885
53.6027 0.729
53.6330 1.146
53.6633 1.042
53.6936 1.562
53.7239 0.885
53.7541 1.458
53.7844 1.562
53.8147 1.042
53.8450 0.937
53.8752 1.042
53.9055 0.885
53.9358 1.302
53.9661 1.094
53.9964 1.042
54.0266 1.510
54.0569 0.885
54.0872 1.458
54.1175 0.885
54.1478 0.833
54.1780 0.990
54.2083 0.885
54.2386 0.885
54.2689 0.885
54.2991 1.198
54.3294 0.990
54.3597 0.677
54.3900 1.146
54.4203 1.458
54.4505 1.302
54.4808 0.937
54.5111 1.667
54.5414 1.042
54.5717 1.146
54.6019 0.833
54.6322 0.990
54.6625 1.042
54.6928 1.042
54.7230 1.198
54.7533 0.833
54.7836 0.937
54.8139 0.885
54.8442 1.302
54.8744 1.094
54.9047 0.990
54.9350 1.094
54.9653 0.990
54.9956 1.094
55.0258 0.885
55.0561 1.250
55.0864 1.354
55.1167 0.937
55.1469 1.250
55.1772 1.458
55.2075 1.562
55.2378 1.302
55.2681 1.042
55.2983 0.990
55.3286 1.198
55.3589 0.781
55.3892 1.615
55.4195 1.354
55.4497 1.094
55.4800 1.250
55.5103 1.562
55.5406 1.615
55.5709 1.667
55.6011 1.094
55.6314 1.406
55.6617 1.302
55.6920 1.615
55.7222 1.510
55.7525 1.615
55.7828 1.562
55.8131 1.719
55.8434 1.667
55.8736 2.656
55.9039 1.927
55.9342 2.187
55.9645 2.083
55.9948 2.187
56.0250 2.135
56.0553 2.812
56.0856 3.021
56.1159 2.552
56.1461 3.750
56.1764 3.802
56.2067 3.177
56.2370 4.896
56.2673 5.000
56.2975 5.000
56.3278 5.833
56.3581 5.208
56.3884 6.354
56.4187 6.719
56.4489 7.760
56.4792 6.146
56.5095 6.979
56.5398 5.469
56.5700 6.146
56.6003 4.635
56.6306 5.312
56.6609 5.312
56.6912 4.479
56.7214 4.635
56.7517 4.219
56.7820 3.229
56.8123 3.802
56.8426 3.281
56.8728 2.760
56.9031 2.656
56.9334 2.187
56.9637 2.604
56.9939 2.240
57.0242 1.927
57.0545 2.135
57.0848 1.510
57.1151 1.875
57.1453 1.615
57.1756 1.979
57.2059 1.562
57.2362 1.354
57.2665 1.406
57.2967 1.875
57.3270 1.510
57.3573 1.562
57.3876 1.510
57.4178 1.562
57.4481 1.198
57.4784 1.146
57.5087 1.771
57.5390 0.990
57.5692 0.833
57.5995 1.198
57.6298 1.042
57.6601 1.094
57.6904 1.406
57.7206 1.562
57.7509 0.885
57.7812 1.250
57.8115 1.042
57.8417 1.198
57.8720 1.250
57.9023 1.406
57.9326 0.937
57.9629 1.562
57.9931 1.250
58.0234 1.094
58.0537 0.937
58.0840 0.937
58.1143 1.198
58.1445 0.937
58.1748 1.562
58.2051 0.937
58.2354 0.833
58.2656 1.094
58.2959 0.729
58.3262 0.937
58.3565 1.042
58.3868 0.521
58.4170 0.937
58.4473 1.146
58.4776 0.937
58.5079 0.990
58.5382 1.094
58.5684 0.937
58.5987 0.990
58.6290 1.094
58.6593 1.198
58.6896 1.094
58.7198 0.729
58.7501 0.625
58.7804 0.833
58.8107 0.885
58.8409 1.094
58.8712 0.677
58.9015 0.781
58.9318 0.885
58.9621 0.573
58.9923 0.885
59.0226 1.042
59.0529 1.042
59.0832 1.354
59.1135 1.042
59.1437 0.781
59.1740 0.885
59.2043 1.146
59.2346 0.625
59.2648 0.781
59.2951 0.833
59.3254 0.781
59.3557 0.833
59.3860 0.937
59.4162 0.990
59.4465 0.990
59.4768 0.573
59.5071 0.521
59.5374 0.885
59.5676 0.937
59.5979 0.365
59.6282 0.677
59.6585 0.625
59.6887 0.729
59.7190 0.833
59.7493 0.990
59.7796 1.042
59.8099 0.990
59.8401 0.937
59.8704 0.833
59.9007 1.094
59.9310 0.625
59.9613 0.990
59.9915 1.198
60.0218 1.042
60.0521 1.406
60.0824 0.833
60.1126 0.885
60.1429 0.677
60.1732 0.781
60.2035 0.885
60.2338 0.937
60.2640 0.729
60.2943 0.885
60.3246 0.677
60.3549 1.719
60.3852 0.677
60.4154 0.781
60.4457 0.521
60.4760 0.885
60.5063 0.677
60.5365 0.937
60.5668 0.833
60.5971 1.198
60.6274 1.250
60.6577 0.885
60.6879 0.781
60.7182 0.625
60.7485 0.885
60.7788 0.833
60.8091 0.885
60.8393 1.094
60.8696 0.677
60.8999 1.042
60.9302 0.781
60.9604 1.146
60.9907 0.833
61.0210 0.937
61.0513 0.781
61.0816 0.573
61.1118 0.573
61.1421 1.042
61.1724 1.146
61.2027 0.885
61.2330 1.354
61.2632 0.990
61.2935 1.094
61.3238 0.729
61.3541 1.198
61.3844 1.198
61.4146 1.042
61.4449 0.781
61.4752 0.990
61.5055 0.885
61.5357 1.094
61.5660 0.990
61.5963 1.146
61.6266 1.302
61.6569 1.042
61.6871 1.250
61.7174 1.146
61.7477 1.042
61.7780 0.781
61.8083 1.406
61.8385 0.781
61.8688 1.458
61.8991 1.042
61.9294 1.354
61.9596 0.990
61.9899 0.990
62.0202 1.250
62.0505 1.875
62.0808 1.667
62.1110 1.458
62.1413 1.198
62.1716 1.562
62.2019 1.354
62.2322 2.031
62.2624 1.771
62.2927 1.562
62.3230 2.448
62.3533 2.396
62.3835 2.656
62.4138 2.708
62.4441 2.240
62.4744 3.385
62.5047 3.854
62.5349 4.479
62.5652 4.010
62.5955 4.792
62.6258 5.208
62.6561 5.312
62.6863 5.990
62.7166 5.469
62.7469 5.156
62.7772 5.729
62.8074 3.906
62.8377 4.792
62.8680 4.115
62.8983 4.427
62.9286 3.698
62.9588 4.010
62.9891 3.177
63.0194 3.854
63.0497 3.125
63.0800 3.021
63.1102 2.969
63.1405 2.552
63.1708 2.083
63.2011 2.552
63.2313 1.875
63.2616 2.187
63.2919 1.979
63.3222 1.354
63.3525 1.406
63.3827 0.990
63.4130 1.823
63.4433 1.875
63.4736 1.146
63.5039 1.042
63.5341 1.198
63.5644 0.677
63.5947 0.833
63.6250 1.302
63.6552 1.510
63.6855 1.354
63.7158 1.042
63.7461 1.406
63.7764 1.615
63.8066 1.354
63.8369 0.781
63.8672 1.354
63.8975 1.094
63.9278 1.302
63.9580 0.937
63.9883 1.198
64.0186 1.042
64.0489 0.937
64.0791 0.833
64.1094 0.677
64.1397 1.198
64.1700 0.833
64.2003 1.042
64.2305 0.885
64.2608 1.146
64.2911 1.042
64.3214 0.833
64.3517 1.042
64.3819 1.146
64.4122 0.469
64.4425 0.781
64.4728 0.833
64.5031 0.729
64.5333 1.042
64.5636 0.781
64.5939 0.781
64.6242 1.302
64.6544 1.198
64.6847 0.833
64.7150 0.990
64.7453 0.885
64.7756 0.729
64.8058 0.573
64.8361 0.469
64.8664 0.885
64.8967 0.625
64.9270 0.625
64.9572 1.042
64.9875 0.833
65.0178 0.781
65.0481 0.937
65.0783 0.677
65.1086 0.781
65.1389 1.094
65.1692 0.573
65.1995 0.833
65.2297 0.885
65.2600 0.625
65.2903 1.146
65.3206 1.042
65.3509 0.990
65.3811 0.990
65.4114 1.198
65.4417 0.781
65.4720 0.990
65.5022 0.833
65.5325 0.677
65.5628 1.354
65.5931 1.146
65.6234 1.042
65.6536 0.729
65.6839 1.354
65.7142 0.990
65.7445 0.729
65.7748 0.833
65.8050 1.198
65.8353 1.042
65.8656 0.937
65.8959 1.198
65.9261 1.302
65.9564 1.198
65.9867 0.833
66.0170 1.562
66.0473 1.562
66.0775 0.990
66.1078 1.354
66.1381 1.719
66.1684 1.302
66.1987 1.875
66.2289 1.771
66.2592 1.562
66.2895 1.354
66.3198 1.979
66.3500 1.875
66.3803 1.823
66.4106 1.354
66.4409 1.562
66.4712 1.719
66.5014 1.875
66.5317 1.406
66.5620 1.354
66.5923 1.458
66.6226 1.302
66.6528 1.042
66.6831 0.781
66.7134 1.094
66.7437 1.875
66.7739 1.302
66.8042 1.042
66.8345 1.354
66.8648 0.833
66.8951 1.302
66.9253 0.781
66.9556 1.302
66.9859 1.302
67.0162 1.719
67.0465 1.823
67.0767 0.990
67.1070 1.927
67.1373 1.094
67.1676 1.458
67.1978 1.615
67.2281 1.562
67.2584 1.302
67.2887 1.979
67.3190 1.406
67.3492 2.552
67.3795 2.240
67.4098 2.135
67.4401 1.510
67.4704 1.927
67.5006 2.708
67.5309 2.656
67.5612 2.865
67.5915 2.969
67.6218 3.333
67.6520 3.594
67.6823 4.115
67.7126 3.698
67.7429 3.021
67.7731 4.479
67.8034 3.958
67.8337 3.906
67.8640 3.802
67.8943 3.646
67.9245 3.437
67.9548 3.281
67.9851 3.802
68.0154 4.427
68.0457 2.760
68.0759 3.177
68.1062 2.917
68.1365 3.021
68.1668 2.135
68.1970 2.344
68.2273 2.083
68.2576 1.823
68.2879 2.344
68.3182 2.031
68.3484 2.344
68.3787 2.031
68.4090 1.719
68.4393 1.927
68.4696 1.667
68.4998 2.031
68.5301 1.562
68.5604 1.979
68.5907 1.719
68.6209 1.458
68.6512 1.667
68.6815 1.875
68.7118 1.562
68.7421 1.771
68.7723 2.187
68.8026 2.344
68.8329 2.240
68.8632 2.292
68.8935 2.031
68.9237 2.656
68.9540 2.031
68.9843 2.292
69.0146 2.240
69.0448 1.979
69.0751 2.344
69.1054 1.979
69.1357 2.135
69.1660 1.719
69.1962 2.500
69.2265 1.719
69.2568 2.083
69.2871 1.354
69.3174 1.719
69.3476 1.302
69.3779 1.406
69.4082 1.458
69.4385 0.781
69.4687 1.042
69.4990 1.354
69.5293 1.094
69.5596 0.833
69.5899 0.937
69.6201 1.094
69.6504 1.302
69.6807 0.833
69.7110 1.094
69.7413 0.729
69.7715 1.198
69.8018 0.937
69.8321 0.729
69.8624 0.677
69.8926 1.302
69.9229 0.990
69.9532 0.833
69.9835 1.146
70.0138 1.042
70.0440 0.990
70.0743 0.625
70.1046 0.729
70.1349 0.937
70.1652 0.781
70.1954 0.833
70.2257 0.833
70.2560 0.625
70.2863 0.990
70.3166 0.781
70.3468 0.729
70.3771 0.521
70.4074 0.573
70.4377 0.990
70.4679 0.781
70.4982 0.990
70.5285 1.094
70.5588 0.677
70.5891 0.781
70.6193 0.833
70.6496 0.833
70.6799 0.781
70.7102 0.677
70.7405 0.469
70.7707 0.781
70.8010 0.573
70.8313 0.729
70.8616 0.625
70.8918 0.781
70.9221 0.625
70.9524 0.937
70.9827 1.250
71.0130 0.781
71.0432 0.625
71.0735 0.521
71.1038 0.573
71.1341 0.677
71.1644 0.833
71.1946 0.729
71.2249 0.781
71.2552 0.625
71.2855 0.573
71.3157 0.990
71.3460 0.521
71.3763 0.677
71.4066 0.729
71.4369 0.729
71.4671 0.937
71.4974 0.781
71.5277 0.833
71.5580 0.781
71.5883 0.937
71.6185 0.729
71.6488 0.625
71.6791 0.677
71.7094 0.729
71.7396 0.365
71.7699 0.625
71.8002 0.625
71.8305 0.781
71.8608 0.625
71.8910 0.677
71.9213 0.469
71.9516 0.833
71.9819 0.625
72.0122 0.781
72.0424 0.833
72.0727 0.885
72.1030 1.042
72.1333 0.729
72.1635 0.990
72.1938 0.312
72.2241 1.042
72.2544 0.781
72.2847 0.833
72.3149 1.250
72.3452 1.094
72.3755 0.729
72.4058 1.042
72.4361 0.781
72.4663 1.250
72.4966 0.885
72.5269 0.990
72.5572 0.625
72.5874 1.198
72.6177 0.885
72.6480 0.833
72.6783 0.885
72.7086 1.302
72.7388 0.417
72.7691 0.781
72.7994 0.729
72.8297 0.885
72.8600 0.677
72.8902 0.677
72.9205 0.885
72.9508 0.677
72.9811 0.729
73.0113 0.625
73.0416 1.042
73.0719 0.729
73.1022 0.781
73.1325 0.990
73.1627 0.833
73.1930 0.729
73.2233 0.781
73.2536 0.833
73.2839 0.677
73.3141 0.677
73.3444 0.365
73.3747 0.729
73.4050 0.521
73.4353 0.625
73.4655 0.729
73.4958 0.729
73.5261 0.729
73.5564 0.625
73.5866 0.885
73.6169 0.937
73.6472 0.677
73.6775 0.677
73.7078 0.677
73.7380 0.729
73.7683 0.833
73.7986 0.677
73.8289 0.625
73.8592 0.625
73.8894 0.885
73.9197 0.729
73.9500 0.729
73.9803 0.469
74.0105 0.573
74.0408 0.365
74.0711 0.573
74.1014 0.573
74.1317 0.781
74.1619 0.521
74.1922 0.521
74.2225 0.573
74.2528 0.521
74.2831 0.417
74.3133 0.573
74.3436 0.365
74.3739 0.260
74.4042 0.729
74.4344 0.312
74.4647 0.833
74.4950 0.417
74.5253 0.677
74.5556 0.729
74.5858 0.937
74.6161 0.573
74.6464 0.677
74.6767 0.781
74.7070 0.573
74.7372 0.677
74.7675 0.677
74.7978 0.781
74.8281 0.937
74.8583 0.781
74.8886 0.521
74.9189 0.937
74.9492 0.625
74.9795 0.573
75.0097 0.573
75.0400 0.729
75.0703 0.781
75.1006 0.417
75.1309 0.990
75.1611 0.469
75.1914 0.625
75.2217 0.729
75.2520 0.729
75.2822 0.781
75.3125 0.573
75.3428 0.573
75.3731 0.833
75.4034 0.625
75.4336 0.469
75.4639 0.781
75.4942 0.729
75.5245 0.885
75.5548 0.469
75.5850 0.729
75.6153 0.677
75.6456 0.625
75.6759 0.260
75.7061 0.729
75.7364 0.573
75.7667 0.937
75.7970 0.781
75.8273 0.365
75.8575 0.885
75.8878 0.937
75.9181 0.937
75.9484 0.625
75.9787 0.365
76.0089 0.625
76.0392 0.729
76.0695 0.781
76.0998 0.885
76.1301 0.885
76.1603 0.833
76.1906 0.677
76.2209 0.937
76.2512 0.937
76.2814 0.937
76.3117 0.937
76.3420 0.729
76.3723 0.417
76.4026 0.781
76.4328 1.250
76.4631 0.781
76.4934 0.729
76.5237 0.885
76.5540 0.885
76.5842 1.198
76.6145 0.833
76.6448 0.729
76.6751 0.990
76.7053 0.833
76.7356 1.094
76.7659 1.354
76.7962 0.990
76.8265 1.146
76.8567 0.729
76.8870 1.042
76.9173 0.885
76.9476 0.729
76.9779 0.885
77.0081 0.885
77.0384 0.833
77.0687 0.677
77.0990 0.833
77.1292 0.781
77.1595 1.146
77.1898 0.833
77.2201 0.885
77.2504 0.833
77.2806 0.781
77.3109 0.625
77.3412 0.781
77.3715 0.417
77.4018 0.729
77.4320 0.885
77.4623 0.885
77.4926 0.885
77.5229 0.833
77.5531 0.625
77.5834 0.990
77.6137 0.417
77.6440 0.521
77.6743 0.469
77.7045 0.625
77.7348 0.885
77.7651 0.729
77.7954 0.521
77.8257 0.781
77.8559 0.417
77.8862 0.677
77.9165 0.729
77.9468 0.573
77.9770 0.729
78.0073 0.469
78.0376 0.625
78.0679 0.729
78.0982 0.781
78.1284 0.729
78.1587 0.677
78.1890 0.625
78.2193 0.833
78.2496 0.625
78.2798 0.260
78.3101 0.573
78.3404 0.833
78.3707 0.625
78.4009 0.677
78.4312 0.573
78.4615 0.677
78.4918 0.885
78.5221 0.521
78.5523 0.781
78.5826 0.677
78.6129 0.625
78.6432 0.625
78.6735 0.781
78.7037 0.729
78.7340 0.885
78.7643 0.729
78.7946 0.729
78.8248 0.625
78.8551 0.729
78.8854 0.417
78.9157 0.469
78.9460 0.781
78.9762 0.729
79.0065 0.729
79.0368 0.469
79.0671 0.625
79.0974 0.521
79.1276 0.781
79.1579 0.625
79.1882 0.677
79.2185 0.469
79.2488 0.573
79.2790 0.833
79.3093 0.833
79.3396 0.885
79.3699 1.042
79.4001 0.677
79.4304 0.469
79.4607 0.677
79.4910 0.573
79.5213 0.729
79.5515 0.365
79.5818 0.365
79.6121 0.625
79.6424 0.469
79.6727 0.573
79.7029 0.729
79.7332 0.729
79.7635 0.937
79.7938 0.573
79.8240 0.729
79.8543 0.677
79.8846 0.521
79.9149 0.833
79.9452 0.781
79.9754 0.729
80.0057 0.781
80.0360 0.521
80.0663 0.729
80.0966 0.885
80.1268 0.833
80.1571 0.573
80.1874 0.833
80.2177 0.625
80.2479 0.937
80.2782 0.885
80.3085 0.937
80.3388 0.625
80.3691 0.781
80.3993 0.625
80.4296 0.677
80.4599 0.833
80.4902 0.677
80.5205 0.573
80.5507 0.625
80.5810 0.937
80.6113 0.729
80.6416 0.625
80.6718 0.521
80.7021 0.729
80.7324 0.573
80.7627 0.729
80.7930 0.417
80.8232 0.312
80.8535 0.417
80.8838 0.781
80.9141 0.625
80.9444 0.625
80.9746 0.573
81.0049 0.677
81.0352 0.729
81.0655 0.833
81.0957 0.677
81.1260 0.729
81.1563 0.990
81.1866 0.781
81.2169 1.250
81.2471 0.937
81.2774 0.729
81.3077 0.937
81.3380 0.729
81.3683 0.729
81.3985 1.094
81.4288 0.937
81.4591 0.781
81.4894 0.365
81.5196 0.677
81.5499 1.198
81.5802 0.781
81.6105 0.469
81.6408 0.677
81.6710 0.729
81.7013 0.625
81.7316 0.677
81.7619 0.781
81.7922 0.833
81.8224 0.937
81.8527 1.250
81.8830 1.302
81.9133 0.677
81.9436 1.146
81.9738 0.260
82.0041 0.573
82.0344 0.677
82.0647 0.833
82.0949 0.677
82.1252 0.625
82.1555 0.781
82.1858 0.365
82.2161 0.677
82.2463 0.729
82.2766 0.521
82.3069 0.990
82.3372 0.417
82.3675 0.729
82.3977 0.729
82.4280 0.573
82.4583 0.521
82.4886 0.365
82.5188 0.729
82.5491 0.521
82.5794 0.469
82.6097 0.521
82.6400 0.781
82.6702 0.729
82.7005 0.573
82.7308 0.781
82.7611 0.312
82.7914 0.677
82.8216 0.677
82.8519 0.365
82.8822 0.365
82.9125 0.365
82.9427 0.521
82.9730 0.573
83.0033 0.365
83.0336 0.677
83.0639 0.677
83.0941 0.625
83.1244 0.677
83.1547 0.729
83.1850 0.521
83.2153 0.573
83.2455 0.833
83.2758 0.365
83.3061 0.521
83.3364 0.417
83.3666 0.625
83.3969 0.729
83.4272 0.417
83.4575 0.781
83.4878 0.312
83.5180 0.521
83.5483 0.833
83.5786 0.312
83.6089 0.521
83.6392 0.729
83.6694 0.521
83.6997 0.417
83.7300 0.885
83.7603 0.573
83.7905 0.365
83.8208 0.208
83.8511 0.469
83.8814 0.677
83.9117 0.885
83.9419 0.417
83.9722 0.521
84.0025 0.677
84.0328 0.469
84.0631 0.729
84.0933 0.469
84.1236 0.521
84.1539 0.469
84.1842 0.417
84.2144 0.625
84.2447 0.521
84.2750 0.469
84.3053 0.729
84.3356 0.469
84.3658 0.312
84.3961 0.729
84.4264 0.729
84.4567 0.625
84.4870 0.729
84.5172 0.625
84.5475 0.469
84.5778 0.677
84.6081 0.573
84.6383 0.677
84.6686 0.469
84.6989 0.937
84.7292 0.521
84.7595 0.677
84.7897 0.417
84.8200 0.625
84.8503 0.521
84.8806 0.521
84.9109 0.417
84.9411 0.729
84.9714 0.729
85.0017 0.469
85.0320 0.990
85.0623 0.885
85.0925 0.469
85.1228 0.469
85.1531 0.469
85.1834 0.417
85.2136 0.521
85.2439 0.312
85.2742 0.625
85.3045 1.042
85.3348 0.573
85.3650 0.677
85.3953 0.365
85.4256 0.729
85.4559 0.469
85.4862 0.625
85.5164 0.625
85.5467 0.677
85.5770 0.677
85.6073 0.573
85.6375 0.625
85.6678 0.573
85.6981 0.885
85.7284 0.625
85.7587 0.729
85.7889 0.521
85.8192 0.833
85.8495 0.625
85.8798 0.469
85.9101 0.469
85.9403 0.677
85.9706 0.417
86.0009 0.469
86.0312 0.625
86.0614 0.677
86.0917 0.625
86.1220 0.781
86.1523 0.469
86.1826 0.573
86.2128 0.469
86.2431 0.833
86.2734 0.729
86.3037 0.677
86.3340 0.469
86.3642 0.469
86.3945 0.469
86.4248 0.469
86.4551 0.521
86.4853 0.625
86.5156 0.573
86.5459 0.469
86.5762 0.573
86.6065 0.417
86.6367 0.417
86.6670 0.573
86.6973 0.677
86.7276 0.365
86.7579 0.573
86.7881 0.573
86.8184 0.833
86.8487 0.573
86.8790 0.469
86.9092 0.573
86.9395 0.521
86.9698 0.260
87.0001 0.469
87.0304 0.781
87.0606 0.729
87.0909 0.521
87.1212 0.990
87.1515 0.312
87.1818 0.625
87.2120 0.573
87.2423 0.625
87.2726 0.677
87.3029 0.365
87.3331 0.469
87.3634 0.469
87.3937 0.729
87.4240 0.937
87.4543 0.625
87.4845 0.469
87.5148 0.260
87.5451 0.469
87.5754 0.937
87.6057 0.729
87.6359 0.677
87.6662 0.885
87.6965 0.573
87.7268 0.469
87.7571 1.042
87.7873 0.833
87.8176 0.573
87.8479 0.990
87.8782 0.469
87.9084 0.677
87.9387 0.260
87.9690 0.937
87.9993 0.625
88.0296 0.417
88.0598 0.677
88.0901 0.833
88.1204 0.469
88.1507 0.417
88.1810 0.208
88.2112 0.781
88.2415 0.625
88.2718 0.677
88.3021 0.365
88.3323 0.469
88.3626 0.937
88.3929 0.677
88.4232 0.729
88.4535 0.625
88.4837 0.625
88.5140 0.885
88.5443 0.365
88.5746 0.729
88.6049 1.042
88.6351 0.729
88.6654 0.937
88.6957 0.885
88.7260 0.937
88.7562 0.521
88.7865 0.833
88.8168 0.833
88.8471 1.302
88.8774 0.781
88.9076 0.677
88.9379 0.937
88.9682 0.937
88.9985 0.625
89.0288 0.729
89.0590 0.990
89.0893 1.094
89.1196 1.146
89.1499 1.198
89.1801 1.146
89.2104 1.094
89.2407 1.458
89.2710 0.729
89.3013 1.406
89.3315 1.302
89.3618 1.354
89.3921 0.990
89.4224 1.302
89.4527 1.198
89.4829 1.198
89.5132 1.302
89.5435 1.510
89.5738 0.833
89.6040 1.250
89.6343 1.562
89.6646 1.198
89.6949 1.615
89.7252 1.198
89.7554 1.302
89.7857 0.729
89.8160 1.198
89.8463 1.198
89.8766 1.562
89.9068 0.729
89.9371 0.937
89.9674 1.042
89.9977 0.833
90.0279 0.937
90.0582 0.417
90.0885 0.990
90.1188 0.729
90.1491 0.833
90.1793 0.885
90.2096 0.885
90.2399 0.573
90.2702 0.573
90.3005 0.677
90.3307 0.781
90.3610 0.417
90.3913 1.250
90.4216 0.312
90.4518 0.677
90.4821 0.729
90.5124 0.625
90.5427 0.833
90.5730 0.937
90.6032 0.885
90.6335 0.625
90.6638 0.625
90.6941 0.521
90.7244 0.833
90.7546 0.729
90.7849 0.729
90.8152 0.781
90.8455 0.625
90.8758 0.573
90.9060 0.990
90.9363 0.729
90.9666 0.833
90.9969 0.521
91.0271 0.677
91.0574 0.781
91.0877 0.729
91.1180 0.833
91.1483 0.625
91.1785 0.677
91.2088 0.312
91.2391 0.729
91.2694 0.625
91.2997 0.469
91.3299 0.573
91.3602 0.417
91.3905 0.729
91.4208 0.469
91.4510 0.781
91.4813 0.885
91.5116 0.937
91.5419 0.521
91.5722 0.677
91.6024 0.521
91.6327 0.729
91.6630 0.469
91.6933 0.781
91.7236 0.573
91.7538 0.312
91.7841 0.365
91.8144 0.833
91.8447 0.729
91.8749 0.833
91.9052 0.729
91.9355 0.469
91.9658 0.729
91.9961 0.781
92.0263 0.833
92.0566 0.729
92.0869 0.365
92.1172 0.833
92.1475 0.625
92.1777 0.833
92.2080 0.625
92.2383 0.729
92.2686 0.625
92.2988 0.469
92.3291 0.677
92.3594 0.833
92.3897 0.469
92.4200 0.729
92.4502 0.729
92.4805 1.198
92.5108 0.781
92.5411 0.729
92.5714 0.729
92.6016 0.990
92.6319 0.625
92.6622 0.625
92.6925 0.781
92.7227 0.573
92.7530 0.573
92.7833 0.573
92.8136 0.625
92.8439 0.729
92.8741 0.729
92.9044 0.677
92.9347 0.937
92.9650 0.729
92.9953 0.833
93.0255 0.625
93.0558 0.781
93.0861 0.937
93.1164 0.625
93.1466 0.469
93.1769 0.417
93.2072 0.625
93.2375 0.625
93.2678 1.042
93.2980 0.677
93.3283 0.677
93.3586 0.833
93.3889 0.833
93.4192 0.729
93.4494 0.677
93.4797 0.573
93.5100 0.833
93.5403 0.885
93.5706 0.833
93.6008 0.573
93.6311 0.625
93.6614 0.729
93.6917 0.729
93.7219 0.729
93.7522 0.781
93.7825 1.042
93.8128 0.885
93.8431 0.729
93.8733 0.573
93.9036 0.729
93.9339 0.469
93.9642 0.885
93.9945 0.781
94.0247 0.469
94.0550 0.781
94.0853 1.042
94.1156 0.625
94.1458 0.833
94.1761 0.729
94.2064 0.521
94.2367 0.729
94.2670 0.729
94.2972 1.250
94.3275 0.781
94.3578 0.937
94.3881 0.729
94.4184 0.781
94.4486 0.677
94.4789 0.833
94.5092 0.885
94.5395 0.729
94.5697 0.729
94.6000 0.833
94.6303 0.937
94.6606 0.677
94.6909 0.469
94.7211 1.094
94.7514 0.677
94.7817 1.146
94.8120 0.885
94.8423 0.573
94.8725 1.146
94.9028 0.937
94.9331 1.198
94.9634 1.406
94.9936 1.250
95.0239 1.250
95.0542 1.250
95.0845 0.729
95.1148 1.042
95.1450 1.250
95.1753 1.094
95.2056 1.302
95.2359 1.094
95.2662 1.146
95.2964 1.406
95.3267 0.885
95.3570 1.042
95.3873 1.094
95.4175 1.146
95.4478 1.198
95.4781 0.937
95.5084 1.354
95.5387 1.198
95.5689 1.354
95.5992 1.094
95.6295 0.990
95.6598 1.250
95.6901 1.042
95.7203 1.406
95.7506 0.729
95.7809 0.885
95.8112 1.042
95.8414 0.990
95.8717 0.937
95.9020 1.094
95.9323 0.937
95.9626 0.573
95.9928 0.729
96.0231 0.833
96.0534 0.521
96.0837 1.042
96.1140 0.729
96.1442 0.521
96.1745 0.625
96.2048 0.937
96.2351 0.729
96.2653 0.885
96.2956 0.677
96.3259 1.198
96.3562 0.625
96.3865 0.469
96.4167 0.521
96.4470 0.365
96.4773 0.573
96.5076 0.625
96.5379 0.417
96.5681 0.469
96.5984 0.729
96.6287 0.937
96.6590 0.625
96.6893 0.573
96.7195 0.469
96.7498 1.250
96.7801 0.417
96.8104 0.729
96.8406 0.781
96.8709 0.521
96.9012 0.937
96.9315 0.365
96.9618 0.469
96.9920 1.094
97.0223 0.781
97.0526 0.729
97.0829 0.885
97.1132 0.573
97.1434 0.781
97.1737 0.729
97.2040 0.677
97.2343 0.677
97.2645 0.365
97.2948 0.729
97.3251 0.729
97.3554 0.990
97.3857 0.521
97.4159 1.094
97.4462 0.990
97.4765 0.625
97.5068 0.885
97.5371 0.729
97.5673 0.833
97.5976 0.625
97.6279 0.781
97.6582 0.937
97.6884 0.885
97.7187 0.833
97.7490 0.625
97.7793 0.885
97.8096 0.625
97.8398 1.250
97.8701 0.677
97.9004 0.677
97.9307 0.625
97.9610 0.990
97.9912 0.729
98.0215 0.990
98.0518 0.781
98.0821 0.781
98.1123 0.937
98.1426 1.146
98.1729 0.885
98.2032 1.094
98.2335 1.094
98.2637 0.990
98.2940 1.146
98.3243 0.781
98.3546 1.146
98.3849 0.833
98.4151 0.729
98.4454 1.094
98.4757 0.781
98.5060 0.729
98.5362 1.302
98.5665 1.146
98.5968 1.094
98.6271 0.990
98.6574 0.937
98.6876 0.937
98.7179 0.885
98.7482 1.042
98.7785 0.781
98.8088 0.937
98.8390 0.729
98.8693 0.990
98.8996 1.146
98.9299 0.833
98.9601 0.625
98.9904 0.677
99.0207 1.094
99.0510 0.937
99.0813 0.729
99.1115 0.885
99.1418 0.885
99.1721 0.677
99.2024 0.729
99.2327 0.417
99.2629 1.042
99.2932 0.781
99.3235 0.625
99.3538 0.781
99.3841 0.729
99.4143 0.833
99.4446 0.937
99.4749 0.781
99.5052 0.573
99.5354 0.885
99.5657 0.573
99.5960 0.677
99.6263 0.625
99.6566 0.677
99.6868 0.781
99.7171 0.833
99.7474 0.729
99.7777 0.729
99.8080 0.625
99.8382 0.677
99.8685 0.781
99.8988 0.521
99.9291 0.833
99.9593 0.885
99.9896 0.312
100.0199 0.469
100.0502 0.885
100.0805 0.677
100.1107 0.937
100.1410 0.677
100.1713 0.781
100.2016 0.521
100.2319 0.625
100.2621 0.781
100.2924 0.573
100.3227 0.990
100.3530 0.573
100.3832 0.729
100.4135 0.573
100.4438 0.677
100.4741 0.625
100.5044 0.312
100.5346 0.469
100.5649 0.573
100.5952 0.885
100.6255 0.677
100.6558 0.781
100.6860 0.625
100.7163 0.833
100.7466 0.781
100.7769 0.469
100.8071 1.094
100.8374 0.625
100.8677 0.781
100.8980 0.521
100.9283 0.573
100.9585 0.781
100.9888 0.781
101.0191 0.833
101.0494 0.781
101.0797 0.833
101.1099 0.469
101.1402 0.625
101.1705 0.990
101.2008 0.781
101.2310 1.198
101.2613 0.781
101.2916 0.521
101.3219 0.677
101.3522 0.573
101.3824 0.417
101.4127 0.677
101.4430 0.677
101.4733 0.677
101.5036 0.312
101.5338 0.781
101.5641 0.781
101.5944 0.677
101.6247 0.365
101.6549 0.729
101.6852 0.937
101.7155 0.833
101.7458 0.781
101.7761 0.417
101.8063 0.729
101.8366 0.885
101.8669 0.781
101.8972 0.677
101.9275 0.990
101.9577 0.677
101.9880 1.094
102.0183 0.677
102.0486 0.573
102.0788 0.885
102.1091 0.781
102.1394 0.781
102.1697 0.573
102.2000 0.573
102.2302 0.781
102.2605 0.573
102.2908 0.521
102.3211 0.885
102.3514 1.146
102.3816 1.146
102.4119 0.521
102.4422 0.885
102.4725 1.146
102.5028 0.833
102.5330 0.781
102.5633 0.625
102.5936 0.781
102.6239 0.885
102.6541 0.885
102.6844 0.677
102.7147 1.094
102.7450 1.146
102.7753 0.990
102.8055 0.625
102.8358 1.042
102.8661 0.833
102.8964 0.937
102.9267 1.094
102.9569 1.250
102.9872 1.354
103.0175 0.781
103.0478 0.937
103.0780 0.937
103.1083 0.729
103.1386 1.042
103.1689 0.573
103.1992 0.781
103.2294 1.146
103.2597 0.990
103.2900 1.042
103.3203 1.250
103.3506 1.250
103.3808 1.094
103.4111 0.833
103.4414 0.885
103.4717 0.885
103.5019 0.729
103.5322 0.833
103.5625 0.937
103.5928 1.094
103.6231 1.406
103.6533 1.094
103.6836 1.302
103.7139 0.885
103.7442 0.625
103.7745 1.250
103.8047 1.406
103.8350 1.042
103.8653 1.250
103.8956 1.250
103.9258 1.198
103.9561 1.094
103.9864 1.458
104.0167 1.354
104.0470 1.250
104.0772 1.302
104.1075 0.833
104.1378 0.833
104.1681 1.510
104.1984 1.562
104.2286 0.885
104.2589 1.302
104.2892 1.406
104.3195 0.781
104.3497 0.885
104.3800 0.833
104.4103 0.833
104.4406 0.781
104.4709 1.198
104.5011 0.625
104.5314 0.990
104.5617 0.990
104.5920 0.937
104.6223 0.677
104.6525 0.833
104.6828 0.729
104.7131 0.833
104.7434 0.781
104.7736 1.042
104.8039 0.937
104.8342 0.833
104.8645 1.146
104.8948 0.781
104.9250 0.417
104.9553 1.042
104.9856 0.885
105.0159 1.146
105.0462 0.990
105.0764 0.729
105.1067 0.625
105.1370 0.885
105.1673 0.729
105.1975 0.990
105.2278 0.729
105.2581 0.781
105.2884 0.885
105.3187 0.521
105.3489 0.833
105.3792 0.260
105.4095 0.469
105.4398 0.833
105.4701 0.833
105.5003 0.677
105.5306 0.625
105.5609 0.729
105.5912 0.625
105.6215 0.729
105.6517 1.042
105.6820 0.469
105.7123 0.677
105.7426 0.833
105.7728 0.937
105.8031 1.042
105.8334 0.625
105.8637 0.573
105.8940 0.625
105.9242 0.677
105.9545 0.885
105.9848 0.573
106.0151 0.885
106.0454 0.990
106.0756 0.729
106.1059 0.729
106.1362 0.573
106.1665 0.312
106.1967 0.573
106.2270 0.833
106.2573 0.573
106.2876 0.885
106.3179 0.365
106.3481 0.833
106.3784 0.365
106.4087 0.573
106.4390 0.729
106.4693 0.885
106.4995 0.573
106.5298 0.885
106.5601 0.625
106.5904 0.625
106.6206 0.937
106.6509 1.042
106.6812 0.781
106.7115 0.521
106.7418 0.417
106.7720 0.573
106.8023 0.417
106.8326 0.677
106.8629 0.573
106.8932 0.833
106.9234 0.885
106.9537 0.573
106.9840 0.885
107.0143 0.729
107.0445 0.833
107.0748 0.312
107.1051 0.937
107.1354 0.521
107.1657 1.146
107.1959 0.521
107.2262 0.885
107.2565 0.677
107.2868 0.677
107.3171 0.729
107.3473 0.677
107.3776 0.573
107.4079 0.885
107.4382 0.885
107.4684 0.781
107.4987 0.833
107.5290 0.885
107.5593 0.677
107.5896 0.885
107.6198 0.729
107.6501 0.885
107.6804 0.937
107.7107 0.885
107.7410 0.677
107.7712 0.625
107.8015 0.781
107.8318 0.625
107.8621 0.781
107.8923 0.885
107.9226 0.208
107.9529 0.677
107.9832 0.625
108.0135 0.729
108.0437 0.677
108.0740 0.573
108.1043 0.729
108.1346 0.781
108.1649 1.094
108.1951 0.885
108.2254 0.781
108.2557 0.885
108.2860 0.729
108.3163 0.781
108.3465 0.885
108.3768 0.885
108.4071 0.573
108.4374 0.573
108.4676 0.677
108.4979 0.729
108.5282 0.937
108.5585 0.625
108.5888 0.469
108.6190 0.677
108.6493 0.677
108.6796 0.312
108.7099 0.677
108.7402 0.990
108.7704 0.885
108.8007 0.885
108.8310 0.312
108.8613 0.417
108.8915 0.625
108.9218 0.365
108.9521 0.625
108.9824 0.937
109.0127 0.677
109.0429 0.729
109.0732 1.094
109.1035 1.042
109.1338 0.781
109.1641 0.729
109.1943 0.937
109.2246 0.625
109.2549 0.469
109.2852 0.417
109.3154 0.885
109.3457 0.521
109.3760 1.198
109.4063 0.833
109.4366 0.417
109.4668 1.146
109.4971 0.625
109.5274 0.885
109.5577 0.521
109.5880 1.094
109.6182 1.354
109.6485 0.781
109.6788 1.094
109.7091 1.094
109.7393 0.573
109.7696 1.094
109.7999 0.677
109.8302 0.573
109.8605 0.990
109.8907 0.729
109.9210 0.573
109.9513 0.885
109.9816 0.625
110.0119 1.094
110.0421 1.094
110.0724 0.729
110.1027 0.833
110.1330 0.937
110.1632 0.990
110.1935 1.146
110.2238 1.094
110.2541 1.354
110.2844 0.990
110.3146 0.833
110.3449 0.937
110.3752 0.729
110.4055 1.042
110.4358 0.937
110.4660 0.885
110.4963 1.146
110.5266 0.937
110.5569 1.094
110.5871 0.677
110.6174 1.042
110.6477 0.885
110.6780 0.312
110.7083 0.781
110.7385 0.937
110.7688 0.990
110.7991 0.990
110.8294 0.990
110.8597 0.677
110.8899 0.573
110.9202 0.573
110.9505 1.094
110.9808 0.833
111.0110 0.677
111.0413 0.469
111.0716 0.937
111.1019 0.521
111.1322 0.885
111.1624 0.990
111.1927 0.885
111.2230 0.625
111.2533 0.729
111.2836 0.521
111.3138 0.781
111.3441 0.833
111.3744 0.625
111.4047 0.990
111.4350 1.302
111.4652 0.781
111.4955 0.521
111.5258 0.729
111.5561 0.625
111.5863 0.469
111.6166 0.833
111.6469 0.729
111.6772 0.677
111.7075 0.625
111.7377 0.729
111.7680 0.312
111.7983 0.937
111.8286 0.677
111.8589 0.625
111.8891 0.677
111.9194 0.885
111.9497 0.885
111.9800 0.729
112.0102 1.042
112.0405 0.937
112.0708 0.885
112.1011 0.365
112.1314 0.365
112.1616 0.469
112.1919 0.729
112.2222 0.885
112.2525 0.833
112.2828 0.781
112.3130 0.990
112.3433 0.677
112.3736 0.937
112.4039 0.677
112.4341 0.781
112.4644 0.573
112.4947 0.781
112.5250 0.417
112.5553 0.625
112.5855 0.573
112.6158 0.417
112.6461 0.990
112.6764 1.094
112.7067 0.833
112.7369 0.833
112.7672 0.833
112.7975 0.469
112.8278 0.729
112.8580 0.729
112.8883 0.781
112.9186 0.729
112.9489 0.521
112.9792 0.521
113.0094 0.625
113.0397 0.625
113.0700 0.729
113.1003 0.521
113.1306 0.833
113.1608 0.677
113.1911 0.729
113.2214 0.833
113.2517 0.521
113.2819 0.781
113.3122 0.885
113.3425 0.573
113.3728 0.573
113.4031 0.937
113.4333 0.781
113.4636 0.625
113.4939 0.729
113.5242 0.469
113.5545 0.417
113.5847 1.042
113.6150 0.885
113.6453 0.469
113.6756 0.625
113.7058 0.625
113.7361 0.573
113.7664 0.573
113.7967 0.573
113.8270 0.781
113.8572 0.729
113.8875 0.781
113.9178 0.833
113.9481 0.885
113.9784 0.729
114.0086 0.625
114.0389 0.990
114.0692 0.365
114.0995 0.625
114.1298 0.469
114.1600 0.625
114.1903 0.625
114.2206 0.469
114.2509 1.094
114.2811 0.885
114.3114 0.833
114.3417 0.365
114.3720 0.833
114.4023 0.833
114.4325 0.677
114.4628 0.729
114.4931 1.094
114.5234 0.729
114.5537 0.833
114.5839 0.990
114.6142 0.573
114.6445 0.729
114.6748 0.729
114.7050 1.042
114.7353 0.833
114.7656 0.781
114.7959 0.729
114.8262 0.625
114.8564 1.042
114.8867 1.250
114.9170 0.677
114.9473 1.042
114.9776 1.250
115.0078 0.677
115.0381 0.781
115.0684 0.677
115.0987 0.990
115.1289 0.625
115.1592 0.781
115.1895 0.677
115.2198 0.833
115.2501 1.094
115.2803 0.677
115.3106 0.677
115.3409 1.042
115.3712 1.094
115.4015 0.833
115.4317 1.042
115.4620 1.042
115.4923 0.781
115.5226 0.625
115.5528 0.833
115.5831 0.625
115.6134 1.094
115.6437 1.042
115.6740 1.198
115.7042 1.146
115.7345 1.562
115.7648 1.406
115.7951 1.146
115.8254 1.406
115.8556 1.146
115.8859 1.094
115.9162 1.302
115.9465 1.250
115.9767 1.302
116.0070 1.719
116.0373 1.615
116.0676 1.771
116.0979 1.458
116.1281 1.250
116.1584 1.406
116.1887 1.458
116.2190 1.719
116.2493 1.302
116.2795 1.250
116.3098 0.781
116.3401 0.677
116.3704 1.302
116.4006 0.937
116.4309 1.875
116.4612 1.458
116.4915 0.833
116.5218 1.042
116.5520 1.302
116.5823 1.250
116.6126 1.510
116.6429 0.885
116.6732 1.094
116.7034 1.094
116.7337 0.937
116.7640 1.667
116.7943 1.302
116.8245 0.990
116.8548 1.094
116.8851 0.885
116.9154 0.781
116.9457 1.198
116.9759 0.625
117.0062 0.677
117.0365 1.146
117.0668 0.990
117.0971 1.146
117.1273 1.094
117.1576 0.625
117.1879 0.990
117.2182 0.885
117.2485 1.146
117.2787 1.146
117.3090 0.521
117.3393 0.729
117.3696 1.250
117.3998 1.042
117.4301 0.625
117.4604 1.042
117.4907 1.042
117.5210 0.677
117.5512 0.625
117.5815 0.885
117.6118 0.469
117.6421 0.990
117.6724 1.250
117.7026 0.625
117.7329 0.781
117.7632 1.042
117.7935 0.937
117.8237 0.833
117.8540 1.146
117.8843 0.677
117.9146 0.729
117.9449 0.573
117.9751 0.885
118.0054 0.469
118.0357 0.833
118.0660 0.990
118.0963 0.885
118.1265 0.625
118.1568 0.677
118.1871 1.042
118.2174 0.833
118.2476 0.677
118.2779 0.677
118.3082 0.677
118.3385 0.990
118.3688 0.677
118.3990 0.677
118.4293 0.833
118.4596 0.469
118.4899 0.885
118.5202 0.833
118.5504 0.781
118.5807 0.885
118.6110 0.990
118.6413 0.833
118.6715 0.469
118.7018 0.573
118.7321 0.885
118.7624 1.042
118.7927 0.729
118.8229 1.094
118.8532 0.677
118.8835 0.729
118.9138 0.312
118.9441 0.521
118.9743 0.885
119.0046 0.417
119.0349 0.885
119.0652 0.781
119.0954 1.094
119.1257 1.094
119.1560 0.677
119.1863 0.625
119.2166 0.885
119.2468 0.625
119.2771 0.781
119.3074 0.833
119.3377 0.781
119.3680 0.885
119.3982 0.625
119.4285 0.833
119.4588 1.094
119.4891 0.729
119.5193 0.729
119.5496 1.146
119.5799 0.677
119.6102 0.677
119.6405 0.781
119.6707 1.094
119.7010 0.521
119.7313 0.833
119.7616 0.521
119.7919 0.833
119.8221 1.042
119.8524 0.729
119.8827 0.469
119.9130 0.521
119.9433 0.833
119.9735 0.781
120.0038 0.990
