'Id: "" Comment: "" Operator: "Lab Manager" Anode: "Cu" Scantype: "Locked Coupled" TimePerStep: "19.2" X: "9999" Y: "9999" Z: "9999" 
10.0015 3.125
10.0318 2.448
10.0620 2.604
10.0923 2.552
10.1226 3.490
10.1529 3.333
10.1832 2.396
10.2134 2.708
10.2437 2.448
10.2740 2.500
10.3043 2.344
10.3346 2.448
10.3648 3.281
10.3951 2.969
10.4254 2.500
10.4557 2.917
10.4859 3.542
10.5162 2.604
10.5465 3.125
10.5768 2.552
10.6071 3.594
10.6373 3.802
10.6676 3.385
10.6979 3.958
10.7282 2.969
10.7585 2.656
10.7887 3.229
10.8190 2.917
10.8493 3.177
10.8796 2.812
10.9098 3.281
10.9401 4.115
10.9704 4.010
11.0007 4.323
11.0310 3.646
11.0612 3.906
11.0915 3.750
11.1218 2.917
11.1521 3.594
11.1824 3.073
11.2126 3.281
11.2429 3.229
11.2732 2.344
11.3035 3.594
11.3337 3.229
11.3640 2.917
11.3943 3.906
11.4246 2.552
11.4549 2.448
11.4851 3.281
11.5154 3.177
11.5457 3.125
11.5760 2.344
11.6063 2.812
11.6365 2.865
11.6668 2.292
11.6971 3.125
11.7274 2.865
11.7577 1.979
11.7879 2.135
11.8182 2.552
11.8485 2.812
11.8788 2.812
11.9090 3.490
11.9393 2.552
11.9696 1.875
11.9999 2.344
12.0302 3.333
12.0604 2.500
12.0907 2.396
12.1210 3.073
12.1513 1.979
12.1816 2.135
12.2118 2.708
12.2421 2.969
12.2724 3.229
12.3027 2.292
12.3329 2.135
12.3632 2.240
12.3935 3.229
12.4238 2.708
12.4541 2.604
12.4843 2.708
12.5146 3.177
12.5449 3.073
12.5752 3.125
12.6055 2.708
12.6357 2.500
12.6660 2.604
12.6963 2.708
12.7266 2.448
12.7568 2.708
12.7871 2.135
12.8174 3.021
12.8477 1.927
12.8780 2.760
12.9082 1.979
12.9385 2.344
12.9688 2.812
12.9991 2.448
13.0294 2.604
13.0596 2.656
13.0899 2.292
13.1202 2.552
13.1505 1.771
13.1807 2.604
13.2110 2.083
13.2413 1.458
13.2716 2.500
13.3019 2.656
13.3321 2.031
13.3624 2.292
13.3927 1.875
13.4230 2.135
13.4533 2.760
13.4835 1.979
13.5138 2.292
13.5441 2.708
13.5744 2.604
13.6046 2.552
13.6349 2.344
13.6652 2.552
13.6955 3.437
13.7258 2.240
13.7560 2.917
13.7863 2.760
13.8166 1.562
13.8469 2.031
13.8772 2.083
13.9074 2.917
13.9377 2.292
13.9680 2.344
13.9983 2.812
14.0285 2.240
14.0588 2.292
14.0891 1.771
14.1194 2.708
14.1497 2.187
14.1799 2.083
14.2102 2.292
14.2405 2.344
14.2708 2.969
14.3011 1.667
14.3313 2.656
14.3616 2.135
14.3919 1.562
14.4222 2.240
14.4524 2.135
14.4827 2.917
14.5130 2.292
14.5433 1.771
14.5736 2.187
14.6038 2.240
14.6341 1.823
14.6644 2.031
14.6947 1.667
14.7250 1.719
14.7552 1.927
14.7855 2.604
14.8158 1.719
14.8461 1.458
14.8764 1.875
14.9066 1.406
14.9369 2.292
14.9672 2.083
14.9975 2.344
15.0277 2.031
15.0580 1.979
15.0883 1.823
15.1186 1.615
15.1489 1.875
15.1791 2.187
15.2094 2.083
15.2397 2.448
15.2700 1.875
15.3003 2.396
15.3305 1.927
15.3608 1.927
15.3911 2.292
15.4214 1.823
15.4516 1.719
15.4819 2.031
15.5122 2.344
15.5425 2.448
15.5728 2.344
15.6030 1.979
15.6333 2.396
15.6636 1.719
15.6939 1.771
15.7242 2.292
15.7544 1.979
15.7847 1.458
15.8150 2.083
15.8453 2.031
15.8755 2.031
15.9058 2.187
15.9361 1.771
15.9664 2.344
15.9967 1.667
16.0269 1.198
16.0572 3.177
16.0875 1.927
16.1178 1.458
16.1481 2.344
16.1783 2.083
16.2086 2.187
16.2389 1.510
16.2692 2.240
16.2994 2.344
16.3297 1.562
16.3600 2.031
16.3903 2.031
16.4206 1.823
16.4508 2.552
16.4811 1.354
16.5114 2.552
16.5417 1.927
16.5720 2.500
16.6022 2.031
16.6325 2.135
16.6628 2.240
16.6931 1.562
16.7233 1.354
16.7536 2.135
16.7839 1.771
16.8142 1.979
16.8445 1.562
16.8747 1.615
16.9050 2.448
16.9353 2.083
16.9656 1.823
16.9959 1.615
17.0261 1.875
17.0564 1.354
17.0867 2.031
17.1170 1.927
17.1472 1.562
17.1775 1.510
17.2078 1.979
17.2381 1.979
17.2684 2.344
17.2986 1.406
17.3289 1.875
17.3592 1.927
17.3895 1.823
17.4198 1.354
17.4500 1.927
17.4803 2.344
17.5106 1.979
17.5409 1.771
17.5712 2.240
17.6014 1.615
17.6317 1.406
17.6620 1.771
17.6923 2.083
17.7225 1.927
17.7528 1.771
17.7831 1.875
17.8134 2.031
17.8437 1.979
17.8739 1.771
17.9042 1.667
17.9345 1.979
17.9648 2.656
17.9951 1.979
18.0253 1.667
18.0556 1.354
18.0859 1.979
18.1162 1.719
18.1464 1.771
18.1767 1.927
18.2070 1.250
18.2373 1.510
18.2676 2.083
18.2978 1.562
18.3281 1.615
18.3584 1.302
18.3887 1.979
18.4190 1.979
18.4492 1.510
18.4795 1.719
18.5098 1.458
18.5401 2.031
18.5703 1.875
18.6006 2.240
18.6309 1.354
18.6612 1.302
18.6915 1.562
18.7217 1.667
18.7520 2.031
18.7823 2.135
18.8126 1.146
18.8429 1.302
18.8731 2.135
18.9034 1.510
18.9337 1.302
18.9640 1.927
18.9942 1.667
19.0245 2.240
19.0548 2.396
19.0851 1.875
19.1154 2.083
19.1456 1.562
19.1759 1.562
19.2062 1.875
19.2365 1.615
19.2668 1.771
19.2970 1.146
19.3273 1.458
19.3576 1.615
19.3879 1.927
19.4181 1.510
19.4484 0.781
19.4787 1.302
19.5090 2.031
19.5393 2.448
19.5695 1.302
19.5998 2.240
19.6301 1.354
19.6604 1.562
19.6907 1.615
19.7209 2.292
19.7512 1.823
19.7815 1.406
19.8118 1.562
19.8420 1.823
19.8723 1.250
19.9026 1.875
19.9329 1.510
19.9632 1.615
19.9934 1.458
20.0237 1.875
20.0540 1.562
20.0843 1.562
20.1146 1.979
20.1448 1.302
20.1751 1.458
20.2054 1.042
20.2357 1.250
20.2659 2.031
20.2962 1.198
20.3265 1.406
20.3568 1.667
20.3871 1.250
20.4173 1.615
20.4476 1.198
20.4779 1.771
20.5082 1.198
20.5385 1.927
20.5687 1.510
20.5990 1.771
20.6293 1.302
20.6596 2.031
20.6899 1.875
20.7201 1.198
20.7504 1.615
20.7807 2.031
20.8110 0.990
20.8412 1.562
20.8715 1.562
20.9018 1.094
20.9321 1.927
20.9624 1.875
20.9926 0.990
21.0229 2.240
21.0532 1.406
21.0835 1.510
21.1138 1.354
21.1440 1.354
21.1743 1.615
21.2046 1.094
21.2349 1.302
21.2651 1.146
21.2954 1.719
21.3257 1.094
21.3560 1.250
21.3863 1.823
21.4165 1.458
21.4468 1.198
21.4771 1.198
21.5074 1.146
21.5377 1.771
21.5679 1.875
21.5982 1.250
21.6285 1.615
21.6588 1.823
21.6890 1.250
21.7193 1.406
21.7496 1.146
21.7799 1.094
21.8102 1.719
21.8404 1.667
21.8707 1.458
21.9010 2.031
21.9313 1.458
21.9616 1.198
21.9918 1.667
22.0221 1.667
22.0524 0.937
22.0827 1.250
22.1129 1.146
22.1432 1.406
22.1735 1.719
22.2038 1.719
22.2341 1.146
22.2643 1.667
22.2946 1.302
22.3249 1.250
22.3552 1.354
22.3855 2.240
22.4157 1.406
22.4460 1.354
22.4763 1.458
22.5066 1.250
22.5368 1.510
22.5671 1.667
22.5974 1.198
22.6277 1.042
22.6580 2.031
22.6882 1.146
22.7185 1.458
22.7488 1.302
22.7791 1.875
22.8094 1.302
22.8396 0.781
22.8699 1.250
22.9002 1.667
22.9305 1.510
22.9607 1.667
22.9910 0.990
23.0213 1.615
23.0516 1.510
23.0819 1.146
23.1121 1.562
23.1424 1.198
23.1727 1.927
23.2030 1.406
23.2333 1.250
23.2635 1.562
23.2938 1.615
23.3241 1.042
23.3544 0.833
23.3846 1.771
23.4149 1.302
23.4452 1.198
23.4755 1.198
23.5058 1.510
23.5360 2.135
23.5663 1.615
23.5966 1.458
23.6269 1.354
23.6572 1.198
23.6874 1.510
23.7177 1.198
23.7480 0.885
23.7783 1.562
23.8086 1.406
23.8388 1.042
23.8691 1.510
23.8994 1.250
23.9297 1.458
23.9599 1.354
23.9902 1.667
24.0205 1.198
24.0508 0.937
24.0811 1.406
24.1113 1.823
24.1416 1.354
24.1719 1.458
24.2022 1.510
24.2325 1.510
24.2627 1.406
24.2930 0.833
24.3233 1.354
24.3536 1.302
24.3838 0.990
24.4141 1.094
24.4444 1.354
24.4747 1.094
24.5050 0.885
24.5352 1.198
24.5655 0.990
24.5958 0.625
24.6261 1.562
24.6564 1.302
24.6866 1.146
24.7169 0.990
24.7472 1.146
24.7775 1.458
24.8077 1.458
24.8380 1.094
24.8683 1.406
24.8986 1.146
24.9289 1.510
24.9591 1.510
24.9894 1.094
25.0197 1.406
25.0500 1.302
25.0803 0.937
25.1105 2.083
25.1408 1.667
25.1711 1.667
25.2014 1.302
25.2316 1.146
25.2619 1.250
25.2922 1.302
25.3225 2.135
25.3528 1.510
25.3830 1.146
25.4133 1.354
25.4436 0.885
25.4739 1.667
25.5042 1.302
25.5344 1.250
25.5647 1.250
25.5950 1.198
25.6253 1.667
25.6555 1.198
25.6858 1.250
25.7161 1.510
25.7464 1.667
25.7767 1.510
25.8069 1.719
25.8372 1.615
25.8675 1.146
25.8978 1.354
25.9281 1.042
25.9583 1.458
25.9886 1.250
26.0189 1.875
26.0492 1.250
26.0794 0.990
26.1097 1.510
26.1400 1.823
26.1703 1.094
26.2006 1.146
26.2308 1.042
26.2611 0.729
26.2914 1.615
26.3217 1.354
26.3520 1.823
26.3822 1.562
26.4125 0.990
26.4428 1.094
26.4731 1.094
26.5034 0.833
26.5336 1.094
26.5639 1.510
26.5942 1.615
26.6245 1.823
26.6547 1.562
26.6850 0.781
26.7153 1.823
26.7456 1.719
26.7759 1.510
26.8061 1.094
26.8364 0.781
26.8667 1.667
26.8970 1.562
26.9273 1.302
26.9575 1.302
26.9878 1.146
27.0181 1.562
27.0484 1.250
27.0786 1.198
27.1089 1.719
27.1392 1.406
27.1695 1.406
27.1998 1.823
27.2300 1.615
27.2603 1.406
27.2906 1.354
27.3209 1.198
27.3512 1.562
27.3814 1.354
27.4117 1.302
27.4420 1.562
27.4723 1.667
27.5025 1.562
27.5328 1.198
27.5631 1.979
27.5934 2.187
27.6237 1.719
27.6539 1.042
27.6842 1.302
27.7145 1.719
27.7448 1.719
27.7751 1.146
27.8053 1.094
27.8356 1.146
27.8659 1.094
27.8962 1.302
27.9264 1.094
27.9567 1.094
27.9870 1.615
28.0173 2.031
28.0476 1.719
28.0778 1.615
28.1081 1.927
28.1384 1.146
28.1687 1.823
28.1990 1.406
28.2292 1.250
28.2595 1.250
28.2898 1.198
28.3201 1.458
28.3503 1.354
28.3806 1.719
28.4109 1.198
28.4412 1.354
28.4715 1.198
28.5017 1.198
28.5320 1.406
28.5623 1.562
28.5926 1.875
28.6229 1.615
28.6531 1.198
28.6834 1.354
28.7137 1.719
28.7440 1.406
28.7742 1.458
28.8045 1.146
28.8348 1.354
28.8651 1.094
28.8954 1.250
28.9256 1.250
28.9559 1.354
28.9862 1.458
29.0165 1.719
29.0468 1.406
29.0770 1.302
29.1073 1.094
29.1376 1.354
29.1679 1.198
29.1981 1.354
29.2284 1.667
29.2587 1.458
29.2890 1.458
29.3193 1.406
29.3495 1.458
29.3798 1.458
29.4101 1.510
29.4404 1.302
29.4707 1.406
29.5009 1.406
29.5312 1.354
29.5615 1.771
29.5918 1.146
29.6221 1.562
29.6523 1.667
29.6826 1.198
29.7129 1.719
29.7432 1.302
29.7734 1.979
29.8037 1.719
29.8340 1.615
29.8643 1.198
29.8946 2.135
29.9248 1.562
29.9551 1.354
29.9854 1.562
30.0157 1.615
30.0460 1.927
30.0762 1.719
30.1065 1.510
30.1368 0.781
30.1671 1.354
30.1973 1.667
30.2276 1.771
30.2579 1.406
30.2882 1.562
30.3185 1.927
30.3487 1.823
30.3790 1.198
30.4093 1.927
30.4396 2.031
30.4699 1.562
30.5001 1.510
30.5304 2.812
30.5607 1.615
30.5910 2.448
30.6212 2.760
30.6515 1.979
30.6818 2.135
30.7121 2.812
30.7424 2.396
30.7726 2.083
30.8029 1.979
30.8332 2.240
30.8635 3.229
30.8938 2.135
30.9240 2.708
30.9543 3.490
30.9846 3.073
31.0149 3.385
31.0451 3.698
31.0754 3.437
31.1057 4.167
31.1360 4.219
31.1663 4.115
31.1965 4.792
31.2268 5.885
31.2571 4.687
31.2874 5.937
31.3177 6.198
31.3479 8.125
31.3782 7.604
31.4085 10.312
31.4388 9.583
31.4690 11.615
31.4993 14.167
31.5296 17.344
31.5599 18.021
31.5902 20.208
31.6204 22.448
31.6507 21.667
31.6810 20.260
31.7113 18.125
31.7416 15.052
31.7718 12.656
31.8021 11.406
31.8324 9.792
31.8627 9.010
31.8929 6.875
31.9232 5.573
31.9535 5.312
31.9838 5.000
32.0141 4.948
32.0443 4.219
32.0746 4.271
32.1049 4.219
32.1352 2.865
32.1655 3.854
32.1957 3.333
32.2260 3.021
32.2563 2.917
32.2866 3.437
32.3169 2.969
32.3471 2.969
32.3774 2.552
32.4077 2.292
32.4380 3.229
32.4682 2.656
32.4985 2.552
32.5288 2.292
32.5591 1.615
32.5894 2.656
32.6196 1.875
32.6499 2.760
32.6802 1.823
32.7105 2.396
32.7408 2.396
32.7710 1.979
32.8013 2.396
32.8316 2.917
32.8619 2.448
32.8921 2.500
32.9224 2.500
32.9527 2.031
32.9830 2.083
33.0133 1.771
33.0435 2.292
33.0738 2.552
33.1041 2.187
33.1344 1.406
33.1647 2.656
33.1949 2.448
33.2252 2.083
33.2555 2.240
33.2858 2.187
33.3160 2.187
33.3463 1.823
33.3766 2.500
33.4069 2.396
33.4372 1.927
33.4674 1.927
33.4977 2.292
33.5280 2.708
33.5583 2.448
33.5886 2.604
33.6188 2.500
33.6491 1.979
33.6794 2.344
33.7097 3.177
33.7399 2.292
33.7702 2.500
33.8005 3.229
33.8308 3.542
33.8611 3.229
33.8913 3.750
33.9216 4.531
33.9519 5.417
33.9822 5.052
34.0125 4.427
34.0427 6.823
34.0730 6.302
34.1033 8.542
34.1336 10.677
34.1638 13.802
34.1941 15.885
34.2244 19.896
34.2547 24.583
34.2850 22.656
34.3152 19.740
34.3455 18.073
34.3758 15.469
34.4061 11.719
34.4364 8.802
34.4666 8.125
34.4969 6.250
34.5272 5.000
34.5575 4.167
34.5877 4.844
34.6180 3.594
34.6483 4.010
34.6786 3.854
34.7089 4.375
34.7391 2.865
34.7694 3.646
34.7997 2.865
34.8300 2.240
34.8603 2.708
34.8905 2.865
34.9208 3.385
34.9511 2.969
34.9814 2.708
35.0116 2.656
35.0419 2.344
35.0722 3.177
35.1025 2.656
35.1328 2.865
35.1630 2.917
35.1933 2.917
35.2236 2.760
35.2539 2.865
35.2842 2.500
35.3144 3.073
35.3447 3.385
35.3750 3.073
35.4053 2.656
35.4356 3.385
35.4658 2.917
35.4961 3.385
35.5264 5.208
35.5567 3.802
35.5869 4.219
35.6172 5.521
35.6475 5.052
35.6778 6.198
35.7081 6.510
35.7383 6.562
35.7686 7.500
35.7989 7.969
35.8292 8.542
35.8595 9.635
35.8897 11.927
35.9200 12.812
35.9503 16.302
35.9806 15.781
36.0108 20.260
36.0411 23.490
36.0714 26.927
36.1017 28.646
36.1320 25.833
36.1622 28.437
36.1925 25.208
36.2228 22.552
36.2531 18.646
36.2834 15.677
36.3136 12.396
36.3439 10.312
36.3742 9.479
36.4045 8.281
36.4347 7.187
36.4650 6.406
36.4953 5.625
36.5256 4.687
36.5559 4.635
36.5861 4.844
36.6164 2.708
36.6467 4.062
36.6770 3.490
36.7073 3.646
36.7375 2.135
36.7678 2.500
36.7981 1.875
36.8284 2.656
36.8586 2.604
36.8889 2.604
36.9192 2.448
36.9495 1.875
36.9798 2.865
37.0100 2.292
37.0403 2.500
37.0706 1.979
37.1009 1.667
37.1312 1.615
37.1614 1.927
37.1917 2.135
37.2220 2.240
37.2523 1.823
37.2825 1.562
37.3128 2.031
37.3431 1.771
37.3734 2.344
37.4037 1.719
37.4339 0.729
37.4642 1.771
37.4945 1.354
37.5248 1.719
37.5551 1.250
37.5853 1.875
37.6156 1.562
37.6459 1.198
37.6762 1.510
37.7064 1.667
37.7367 1.719
37.7670 2.135
37.7973 1.250
37.8276 1.562
37.8578 0.885
37.8881 1.302
37.9184 1.094
37.9487 2.135
37.9790 1.354
38.0092 1.042
38.0395 1.250
38.0698 1.875
38.1001 0.833
38.1304 1.146
38.1606 1.510
38.1909 1.146
38.2212 1.094
38.2515 1.198
38.2817 1.146
38.3120 1.146
38.3423 1.094
38.3726 2.031
38.4029 1.667
38.4331 1.146
38.4634 1.250
38.4937 1.146
38.5240 1.302
38.5543 1.146
38.5845 1.198
38.6148 1.458
38.6451 0.833
38.6754 1.458
38.7056 0.729
38.7359 1.198
38.7662 1.198
38.7965 0.990
38.8268 1.094
38.8570 1.250
38.8873 1.719
38.9176 1.198
38.9479 1.042
38.9782 0.937
39.0084 1.094
39.0387 1.042
39.0690 0.833
39.0993 1.198
39.1295 0.937
39.1598 1.302
39.1901 0.885
39.2204 0.990
39.2507 1.458
39.2809 1.250
39.3112 1.094
39.3415 1.042
39.3718 0.990
39.4021 0.990
39.4323 1.094
39.4626 1.042
39.4929 0.937
39.5232 0.990
39.5534 1.042
39.5837 0.937
39.6140 1.094
39.6443 0.937
39.6746 0.833
39.7048 0.781
39.7351 0.521
39.7654 1.146
39.7957 0.469
39.8260 0.990
39.8562 0.573
39.8865 0.885
39.9168 0.885
39.9471 0.885
39.9773 0.990
40.0076 1.198
40.0379 0.885
40.0682 0.833
40.0985 0.990
40.1287 0.677
40.1590 0.990
40.1893 0.625
40.2196 0.885
40.2499 0.990
40.2801 0.990
40.3104 1.042
40.3407 1.198
40.3710 1.302
40.4012 0.677
40.4315 0.677
40.4618 0.833
40.4921 0.677
40.5224 0.781
40.5526 1.094
40.5829 0.677
40.6132 0.781
40.6435 1.094
40.6738 1.146
40.7040 1.094
40.7343 0.781
40.7646 1.042
40.7949 0.625
40.8251 0.885
40.8554 1.094
40.8857 1.094
40.9160 1.094
40.9463 1.094
40.9765 0.885
41.0068 1.094
41.0371 0.833
41.0674 1.146
41.0977 1.146
41.1279 0.833
41.1582 0.729
41.1885 1.094
41.2188 0.885
41.2491 0.677
41.2793 1.042
41.3096 0.885
41.3399 0.781
41.3702 0.573
41.4004 0.781
41.4307 0.573
41.4610 1.250
41.4913 0.729
41.5216 0.885
41.5518 1.198
41.5821 0.937
41.6124 1.146
41.6427 0.677
41.6730 1.094
41.7032 1.094
41.7335 0.833
41.7638 1.042
41.7941 0.885
41.8243 0.937
41.8546 0.729
41.8849 0.990
41.9152 0.469
41.9455 0.729
41.9757 0.781
42.0060 0.729
42.0363 1.250
42.0666 1.042
42.0969 1.146
42.1271 0.781
42.1574 0.885
42.1877 0.781
42.2180 0.833
42.2482 0.677
42.2785 1.146
42.3088 0.885
42.3391 0.521
42.3694 0.521
42.3996 0.833
42.4299 1.354
42.4602 0.677
42.4905 0.833
42.5208 1.094
42.5510 1.354
42.5813 0.833
42.6116 0.885
42.6419 0.677
42.6721 0.833
42.7024 0.781
42.7327 0.990
42.7630 0.625
42.7933 0.781
42.8235 1.042
42.8538 1.250
42.8841 1.198
42.9144 0.677
42.9447 0.677
42.9749 0.833
43.0052 1.042
43.0355 1.042
43.0658 0.729
43.0960 1.042
43.1263 0.937
43.1566 0.729
43.1869 0.573
43.2172 0.781
43.2474 0.729
43.2777 0.729
43.3080 0.521
43.3383 0.625
43.3686 1.406
43.3988 0.833
43.4291 0.781
43.4594 1.146
43.4897 0.990
43.5199 1.146
43.5502 0.781
43.5805 0.781
43.6108 0.625
43.6411 1.042
43.6713 1.042
43.7016 1.354
43.7319 0.833
43.7622 0.625
43.7925 0.625
43.8227 1.146
43.8530 0.781
43.8833 0.833
43.9136 0.937
43.9439 0.781
43.9741 1.042
44.0044 1.042
44.0347 0.781
44.0650 0.833
44.0952 0.833
44.1255 0.677
44.1558 1.302
44.1861 0.990
44.2164 0.729
44.2466 0.729
44.2769 0.937
44.3072 0.781
44.3375 0.677
44.3678 1.042
44.3980 1.094
44.4283 1.042
44.4586 0.781
44.4889 0.677
44.5191 0.625
44.5494 1.146
44.5797 0.521
44.6100 0.729
44.6403 1.094
44.6705 0.781
44.7008 0.729
44.7311 0.781
44.7614 1.302
44.7917 1.042
44.8219 0.990
44.8522 0.937
44.8825 0.937
44.9128 0.885
44.9430 0.729
44.9733 0.833
45.0036 0.937
45.0339 0.990
45.0642 0.937
45.0944 0.833
45.1247 0.781
45.1550 0.885
45.1853 0.625
45.2156 1.146
45.2458 0.781
45.2761 0.781
45.3064 0.677
45.3367 0.781
45.3669 0.573
45.3972 0.677
45.4275 0.833
45.4578 1.042
45.4881 1.146
45.5183 1.198
45.5486 0.625
45.5789 0.833
45.6092 1.094
45.6395 1.302
45.6697 0.885
45.7000 1.198
45.7303 1.094
45.7606 0.677
45.7908 1.094
45.8211 0.990
45.8514 1.146
45.8817 1.302
45.9120 1.406
45.9422 0.781
45.9725 0.781
46.0028 1.042
46.0331 0.990
46.0634 1.042
46.0936 1.562
46.1239 0.833
46.1542 0.937
46.1845 1.198
46.2147 1.615
46.2450 0.677
46.2753 1.250
46.3056 0.885
46.3359 1.250
46.3661 1.198
46.3964 1.146
46.4267 1.094
46.4570 0.937
46.4873 1.719
46.5175 1.146
46.5478 1.302
46.5781 1.042
46.6084 1.146
46.6386 0.625
46.6689 1.146
46.6992 1.198
46.7295 1.354
46.7598 1.198
46.7900 1.198
46.8203 1.667
46.8506 1.250
46.8809 1.719
46.9112 1.719
46.9414 2.031
46.9717 1.823
47.0020 1.458
47.0323 2.240
47.0626 2.448
47.0928 2.344
47.1231 1.458
47.1534 2.552
47.1837 2.865
47.2139 3.385
47.2442 2.708
47.2745 3.437
47.3048 3.594
47.3351 5.000
47.3653 4.375
47.3956 5.469
47.4259 5.052
47.4562 5.833
47.4865 3.958
47.5167 4.167
47.5470 4.479
47.5773 3.594
47.6076 3.229
47.6378 3.385
47.6681 2.500
47.6984 2.187
47.7287 1.823
47.7590 1.719
47.7892 2.031
47.8195 1.771
47.8498 1.510
47.8801 2.083
47.9104 1.458
47.9406 2.083
47.9709 1.406
48.0012 1.510
48.0315 1.458
48.0617 0.937
48.0920 1.406
48.1223 1.302
48.1526 1.250
48.1829 1.562
48.2131 1.302
48.2434 1.198
48.2737 1.406
48.3040 1.146
48.3343 1.250
48.3645 1.042
48.3948 0.937
48.4251 1.354
48.4554 1.354
48.4856 0.729
48.5159 0.729
48.5462 1.146
48.5765 1.354
48.6068 1.094
48.6370 1.510
48.6673 1.198
48.6976 1.094
48.7279 0.625
48.7582 1.146
48.7884 0.781
48.8187 1.042
48.8490 1.198
48.8793 1.042
48.9095 1.094
48.9398 1.094
48.9701 1.042
49.0004 1.042
49.0307 1.042
49.0609 1.042
49.0912 0.885
49.1215 0.625
49.1518 1.146
49.1821 1.302
49.2123 1.146
49.2426 1.354
49.2729 1.094
49.3032 1.354
49.3334 0.990
49.3637 0.781
49.3940 1.302
49.4243 0.937
49.4546 0.781
49.4848 0.677
49.5151 0.833
49.5454 1.302
49.5757 1.198
49.6060 0.937
49.6362 0.937
49.6665 1.250
49.6968 0.990
49.7271 0.625
49.7574 1.302
49.7876 0.990
49.8179 1.250
49.8482 0.937
49.8785 0.990
49.9087 1.042
49.9390 1.250
49.9693 1.250
49.9996 1.094
50.0299 0.677
50.0601 0.885
50.0904 0.677
50.1207 0.885
50.1510 0.990
50.1813 1.042
50.2115 1.094
50.2418 1.458
50.2721 1.146
50.3024 0.417
50.3326 1.198
50.3629 0.781
50.3932 0.990
50.4235 0.885
50.4538 1.198
50.4840 0.729
50.5143 0.937
50.5446 0.781
50.5749 1.198
50.6052 0.990
50.6354 0.365
50.6657 0.990
50.6960 0.937
50.7263 0.729
50.7565 0.833
50.7868 1.042
50.8171 1.198
50.8474 1.094
50.8777 1.146
50.9079 1.094
50.9382 1.042
50.9685 0.833
50.9988 0.937
51.0291 0.937
51.0593 0.937
51.0896 1.094
51.1199 1.198
51.1502 0.625
51.1804 1.198
51.2107 0.885
51.2410 0.677
51.2713 0.937
51.3016 0.990
51.3318 0.729
51.3621 1.094
51.3924 0.990
51.4227 0.781
51.4530 0.781
51.4832 0.937
51.5135 1.302
51.5438 0.990
51.5741 0.833
51.6043 0.990
51.6346 0.937
51.6649 1.042
51.6952 1.094
51.7255 0.885
51.7557 1.250
51.7860 0.729
51.8163 1.094
51.8466 0.833
51.8769 0.729
51.9071 0.573
51.9374 0.937
51.9677 0.677
51.9980 1.302
52.0282 1.094
52.0585 1.250
52.0888 0.885
52.1191 0.781
52.1494 1.042
52.1796 0.937
52.2099 1.146
52.2402 0.990
52.2705 0.990
52.3008 0.937
52.3310 0.833
52.3613 0.990
52.3916 1.146
52.4219 0.781
52.4521 0.781
52.4824 0.833
52.5127 1.042
52.5430 1.094
52.5733 1.250
52.6035 0.990
52.6338 0.990
52.6641 0.521
52.6944 1.250
52.7247 1.094
52.7549 0.677
52.7852 1.146
52.8155 0.781
52.8458 1.094
52.8761 0.625
52.9063 0.885
52.9366 0.833
52.9669 0.833
52.9972 0.573
53.0274 0.521
53.0577 0.833
53.0880 0.833
53.1183 1.094
53.1486 0.937
53.1788 1.094
53.2091 0.885
53.2394 0.885
53.2697 0.781
53.3000 1.094
53.3302 0.729
53.3605 0.729
53.3908 1.510
53.4211 1.250
53.4513 0.781
53.4816 0.833
53.5119 0.885
53.5422 0.937
53.5725 1.094
53.6027 0.781
53.6330 0.625
53.6633 0.990
53.6936 0.937
53.7239 0.677
53.7541 1.146
53.7844 0.521
53.8147 0.469
53.8450 0.833
53.8752 0.833
53.9055 1.042
53.9358 1.198
53.9661 0.937
53.9964 1.094
54.0266 0.625
54.0569 0.990
54.0872 1.146
54.1175 0.781
54.1478 1.250
54.1780 0.625
54.2083 0.885
54.2386 1.094
54.2689 0.833
54.2991 0.781
54.3294 0.729
54.3597 0.885
54.3900 0.885
54.4203 0.677
54.4505 0.885
54.4808 1.250
54.5111 0.937
54.5414 0.677
54.5717 0.833
54.6019 0.729
54.6322 1.094
54.6625 0.833
54.6928 0.990
54.7230 0.833
54.7533 0.885
54.7836 1.146
54.8139 1.250
54.8442 1.198
54.8744 1.302
54.9047 1.042
54.9350 1.042
54.9653 0.729
54.9956 0.990
55.0258 1.042
55.0561 0.729
55.0864 1.042
55.1167 0.833
55.1469 0.781
55.1772 0.937
55.2075 1.250
55.2378 1.146
55.2681 1.458
55.2983 1.042
55.3286 1.302
55.3589 1.198
55.3892 1.302
55.4195 1.042
55.4497 1.042
55.4800 1.302
55.5103 1.302
55.5406 1.094
55.5709 1.042
55.6011 1.354
55.6314 1.510
55.6617 1.146
55.6920 1.458
55.7222 1.562
55.7525 1.458
55.7828 1.146
55.8131 1.719
55.8434 1.146
55.8736 1.198
55.9039 1.562
55.9342 1.719
55.9645 1.667
55.9948 1.771
56.0250 1.875
56.0553 2.448
56.0856 2.396
56.1159 3.021
56.1461 2.604
56.1764 2.500
56.2067 2.240
56.2370 2.812
56.2673 3.437
56.2975 4.323
56.3278 5.521
56.3581 5.052
56.3884 5.312
56.4187 5.417
56.4489 6.927
56.4792 6.458
56.5095 6.562
56.5398 5.833
56.5700 5.365
56.6003 5.625
56.6306 3.854
56.6609 4.271
56.6912 4.271
56.7214 4.010
56.7517 3.646
56.7820 2.500
56.8123 2.448
56.8426 2.083
56.8728 2.656
56.9031 2.760
56.9334 2.187
56.9637 1.615
56.9939 1.510
57.0242 1.719
57.0545 1.562
57.0848 1.510
57.1151 1.615
57.1453 1.458
57.1756 1.719
57.2059 0.990
57.2362 0.937
57.2665 1.042
57.2967 1.458
57.3270 1.146
57.3573 1.042
57.3876 1.198
57.4178 0.885
57.4481 0.990
57.4784 0.885
57.5087 1.302
57.5390 1.354
57.5692 0.990
57.5995 1.198
57.6298 1.250
57.6601 0.729
57.6904 0.833
57.7206 1.042
57.7509 0.677
57.7812 0.573
57.8115 0.833
57.8417 0.729
57.8720 1.094
57.9023 1.146
57.9326 0.833
57.9629 0.781
57.9931 1.198
58.0234 0.885
58.0537 1.250
58.0840 0.937
58.1143 0.677
58.1445 0.833
58.1748 0.833
58.2051 0.729
58.2354 0.885
58.2656 0.573
58.2959 0.990
58.3262 0.885
58.3565 0.677
58.3868 0.729
58.4170 0.677
58.4473 0.729
58.4776 0.625
58.5079 0.885
58.5382 0.729
58.5684 0.937
58.5987 0.729
58.6290 0.677
58.6593 1.094
58.6896 0.781
58.7198 1.094
58.7501 0.729
58.7804 0.469
58.8107 0.833
58.8409 0.677
58.8712 1.146
58.9015 0.573
58.9318 0.885
58.9621 0.781
58.9923 1.042
59.0226 0.677
59.0529 0.781
59.0832 1.042
59.1135 0.833
59.1437 0.885
59.1740 0.677
59.2043 0.937
59.2346 0.937
59.2648 0.521
59.2951 0.937
59.3254 0.521
59.3557 0.677
59.3860 0.833
59.4162 1.146
59.4465 0.729
59.4768 0.885
59.5071 0.990
59.5374 0.937
59.5676 0.885
59.5979 0.729
59.6282 1.146
59.6585 0.729
59.6887 0.677
59.7190 0.937
59.7493 0.573
59.7796 0.781
59.8099 0.729
59.8401 0.573
59.8704 0.677
59.9007 0.677
59.9310 1.042
59.9613 0.781
59.9915 0.781
60.0218 0.885
60.0521 0.469
60.0824 0.990
60.1126 0.885
60.1429 0.833
60.1732 0.625
60.2035 0.885
60.2338 0.833
60.2640 0.469
60.2943 0.677
60.3246 1.406
60.3549 0.937
60.3852 1.250
60.4154 0.937
60.4457 0.885
60.4760 0.885
60.5063 0.781
60.5365 0.729
60.5668 0.677
60.5971 0.729
60.6274 0.937
60.6577 0.625
60.6879 0.625
60.7182 0.729
60.7485 0.573
60.7788 0.990
60.8091 0.990
60.8393 0.729
60.8696 0.885
60.8999 0.885
60.9302 0.833
60.9604 0.781
60.9907 0.990
61.0210 1.146
61.0513 0.885
61.0816 0.833
61.1118 1.146
61.1421 0.990
61.1724 0.469
61.2027 0.937
61.2330 0.885
61.2632 1.042
61.2935 0.729
61.3238 0.937
61.3541 0.990
61.3844 1.094
61.4146 0.677
61.4449 0.729
61.4752 0.781
61.5055 0.729
61.5357 0.573
61.5660 1.302
61.5963 1.406
61.6266 0.833
61.6569 0.781
61.6871 1.042
61.7174 0.885
61.7477 0.885
61.7780 0.885
61.8083 0.937
61.8385 0.990
61.8688 1.667
61.8991 0.885
61.9294 1.146
61.9596 0.990
61.9899 1.042
62.0202 1.771
62.0505 1.094
62.0808 1.198
62.1110 1.094
62.1413 1.146
62.1716 1.667
62.2019 1.458
62.2322 2.031
62.2624 1.458
62.2927 1.979
62.3230 1.667
62.3533 1.562
62.3835 1.615
62.4138 2.604
62.4441 3.073
62.4744 3.333
62.5047 2.344
62.5349 3.333
62.5652 3.854
62.5955 3.542
62.6258 3.490
62.6561 3.854
62.6863 4.740
62.7166 5.469
62.7469 5.156
62.7772 4.740
62.8074 4.375
62.8377 4.167
62.8680 5.208
62.8983 3.854
62.9286 3.698
62.9588 3.177
62.9891 2.448
63.0194 2.344
63.0497 1.719
63.0800 2.344
63.1102 2.135
63.1405 1.354
63.1708 2.604
63.2011 1.927
63.2313 1.615
63.2616 1.406
63.2919 0.937
63.3222 1.719
63.3525 0.885
63.3827 0.729
63.4130 1.510
63.4433 0.990
63.4736 1.198
63.5039 0.937
63.5341 1.406
63.5644 0.781
63.5947 0.677
63.6250 1.094
63.6552 1.198
63.6855 0.625
63.7158 0.781
63.7461 1.406
63.7764 0.937
63.8066 0.833
63.8369 0.781
63.8672 1.146
63.8975 0.937
63.9278 0.833
63.9580 1.146
63.9883 0.833
64.0186 0.521
64.0489 1.302
64.0791 0.781
64.1094 0.885
64.1397 0.833
64.1700 0.937
64.2003 0.885
64.2305 0.781
64.2608 0.729
64.2911 0.833
64.3214 0.729
64.3517 1.042
64.3819 0.833
64.4122 0.573
64.4425 1.094
64.4728 1.562
64.5031 0.625
64.5333 0.729
64.5636 0.573
64.5939 0.625
64.6242 0.833
64.6544 0.573
64.6847 1.042
64.7150 0.937
64.7453 0.573
64.7756 0.677
64.8058 0.833
64.8361 0.417
64.8664 0.990
64.8967 0.781
64.9270 1.042
64.9572 0.781
64.9875 0.729
65.0178 0.729
65.0481 0.781
65.0783 0.833
65.1086 0.625
65.1389 0.833
65.1692 0.833
65.1995 0.677
65.2297 0.625
65.2600 0.885
65.2903 0.833
65.3206 0.833
65.3509 0.937
65.3811 0.521
65.4114 1.094
65.4417 0.729
65.4720 0.833
65.5022 0.833
65.5325 0.781
65.5628 0.677
65.5931 0.885
65.6234 0.312
65.6536 1.250
65.6839 1.042
65.7142 0.781
65.7445 0.833
65.7748 0.833
65.8050 1.146
65.8353 1.302
65.8656 0.781
65.8959 1.250
65.9261 1.042
65.9564 0.990
65.9867 0.885
66.0170 1.094
66.0473 1.094
66.0775 0.990
66.1078 1.250
66.1381 1.250
66.1684 1.406
66.1987 1.615
66.2289 1.927
66.2592 1.615
66.2895 1.042
66.3198 1.146
66.3500 1.302
66.3803 0.937
66.4106 1.094
66.4409 1.354
66.4712 1.302
66.5014 1.510
66.5317 1.250
66.5620 0.781
66.5923 1.250
66.6226 0.781
66.6528 1.250
66.6831 0.937
66.7134 1.146
66.7437 0.990
66.7739 1.406
66.8042 1.354
66.8345 1.094
66.8648 0.937
66.8951 1.250
66.9253 0.781
66.9556 0.990
66.9859 0.781
67.0162 0.937
67.0465 0.885
67.0767 1.302
67.1070 0.677
67.1373 0.937
67.1676 1.302
67.1978 0.833
67.2281 0.833
67.2584 1.354
67.2887 1.302
67.3190 1.458
67.3492 1.927
67.3795 1.302
67.4098 1.823
67.4401 1.979
67.4704 2.083
67.5006 3.125
67.5309 2.031
67.5612 2.083
67.5915 2.083
67.6218 2.292
67.6520 2.500
67.6823 2.708
67.7126 3.437
67.7429 2.865
67.7731 4.115
67.8034 3.594
67.8337 3.125
67.8640 3.281
67.8943 3.854
67.9245 3.490
67.9548 3.542
67.9851 3.698
68.0154 3.698
68.0457 2.396
68.0759 2.917
68.1062 2.292
68.1365 2.344
68.1668 1.615
68.1970 2.240
68.2273 1.875
68.2576 1.615
68.2879 2.292
68.3182 1.719
68.3484 1.354
68.3787 1.094
68.4090 1.354
68.4393 1.615
68.4696 1.146
68.4998 1.615
68.5301 1.510
68.5604 1.094
68.5907 1.354
68.6209 1.719
68.6512 1.406
68.6815 1.667
68.7118 1.302
68.7421 1.667
68.7723 1.719
68.8026 1.302
68.8329 1.354
68.8632 1.406
68.8935 2.448
68.9237 2.344
68.9540 1.510
68.9843 2.604
69.0146 2.344
69.0448 1.510
69.0751 1.823
69.1054 1.667
69.1357 1.354
69.1660 1.302
69.1962 1.979
69.2265 1.406
69.2568 0.729
69.2871 1.667
69.3174 1.146
69.3476 0.937
69.3779 0.990
69.4082 1.302
69.4385 1.146
69.4687 0.833
69.4990 1.042
69.5293 1.146
69.5596 0.677
69.5899 1.094
69.6201 0.990
69.6504 0.729
69.6807 0.937
69.7110 0.937
69.7413 1.042
69.7715 0.573
69.8018 0.781
69.8321 1.094
69.8624 0.729
69.8926 0.937
69.9229 0.521
69.9532 0.573
69.9835 0.833
70.0138 0.885
70.0440 0.729
70.0743 0.781
70.1046 0.365
70.1349 0.677
70.1652 0.625
70.1954 0.469
70.2257 0.521
70.2560 0.625
70.2863 0.365
70.3166 0.781
70.3468 0.781
70.3771 0.781
70.4074 0.781
70.4377 0.937
70.4679 0.521
70.4982 0.625
70.5285 0.521
70.5588 0.885
70.5891 0.677
70.6193 0.521
70.6496 0.625
70.6799 0.677
70.7102 0.677
70.7405 0.365
70.7707 0.417
70.8010 0.625
70.8313 0.625
70.8616 0.312
70.8918 0.937
70.9221 0.729
70.9524 0.729
70.9827 0.469
71.0130 0.729
71.0432 0.573
71.0735 0.521
71.1038 0.781
71.1341 0.781
71.1644 0.677
71.1946 0.365
71.2249 0.729
71.2552 0.937
71.2855 0.729
71.3157 0.781
71.3460 0.365
71.3763 0.625
71.4066 0.365
71.4369 0.521
71.4671 0.677
71.4974 0.781
71.5277 0.625
71.5580 0.729
71.5883 0.625
71.6185 0.521
71.6488 0.833
71.6791 0.885
71.7094 0.417
71.7396 0.365
71.7699 0.625
71.8002 0.521
71.8305 0.625
71.8608 0.729
71.8910 0.573
71.9213 0.729
71.9516 0.625
71.9819 0.781
72.0122 0.625
72.0424 0.625
72.0727 0.417
72.1030 0.833
72.1333 0.573
72.1635 0.729
72.1938 0.260
72.2241 0.937
72.2544 0.885
72.2847 0.729
72.3149 0.677
72.3452 0.729
72.3755 0.781
72.4058 0.833
72.4361 0.573
72.4663 0.729
72.4966 0.573
72.5269 1.094
72.5572 1.094
72.5874 0.937
72.6177 1.198
72.6480 1.198
72.6783 0.417
72.7086 0.729
72.7388 0.729
72.7691 0.625
72.7994 0.677
72.8297 0.781
72.8600 0.729
72.8902 0.625
72.9205 0.312
72.9508 0.156
72.9811 0.521
73.0113 0.625
73.0416 0.365
73.0719 0.625
73.1022 0.521
73.1325 0.573
73.1627 0.677
73.1930 0.781
73.2233 0.417
73.2536 0.312
73.2839 0.521
73.3141 0.833
73.3444 0.625
73.3747 0.677
73.4050 0.625
73.4353 0.260
73.4655 0.729
73.4958 0.365
73.5261 0.417
73.5564 0.677
73.5866 0.885
73.6169 0.260
73.6472 0.521
73.6775 0.677
73.7078 0.833
73.7380 0.573
73.7683 0.885
73.7986 0.312
73.8289 0.677
73.8592 0.573
73.8894 0.312
73.9197 0.365
73.9500 0.417
73.9803 0.729
74.0105 0.625
74.0408 0.417
74.0711 0.885
74.1014 0.833
74.1317 0.573
74.1619 0.573
74.1922 0.365
74.2225 0.573
74.2528 0.625
74.2831 0.312
74.3133 0.260
74.3436 0.677
74.3739 0.365
74.4042 1.198
74.4344 0.521
74.4647 0.469
74.4950 0.625
74.5253 0.729
74.5556 0.833
74.5858 0.729
74.6161 0.469
74.6464 0.729
74.6767 0.417
74.7070 0.469
74.7372 0.521
74.7675 0.417
74.7978 0.573
74.8281 0.729
74.8583 0.573
74.8886 0.469
74.9189 0.521
74.9492 0.417
74.9795 0.729
75.0097 0.521
75.0400 0.521
75.0703 0.469
75.1006 0.417
75.1309 0.677
75.1611 0.625
75.1914 0.417
75.2217 0.469
75.2520 0.990
75.2822 0.417
75.3125 0.521
75.3428 0.729
75.3731 0.625
75.4034 0.729
75.4336 0.521
75.4639 0.469
75.4942 0.521
75.5245 0.729
75.5548 0.573
75.5850 0.417
75.6153 0.937
75.6456 0.573
75.6759 0.312
75.7061 0.417
75.7364 0.469
75.7667 0.365
75.7970 0.885
75.8273 0.521
75.8575 0.365
75.8878 0.521
75.9181 0.260
75.9484 0.469
75.9787 1.146
76.0089 0.521
76.0392 0.729
76.0695 0.729
76.0998 0.729
76.1301 0.729
76.1603 0.260
76.1906 0.469
76.2209 0.521
76.2512 0.521
76.2814 0.521
76.3117 0.833
76.3420 0.990
76.3723 0.729
76.4026 0.365
76.4328 0.677
76.4631 0.729
76.4934 0.573
76.5237 0.781
76.5540 0.781
76.5842 0.990
76.6145 0.729
76.6448 0.833
76.6751 0.833
76.7053 0.573
76.7356 0.729
76.7659 0.781
76.7962 0.677
76.8265 1.198
76.8567 0.625
76.8870 0.937
76.9173 0.781
76.9476 0.729
76.9779 0.625
77.0081 1.042
77.0384 0.729
77.0687 0.990
77.0990 1.094
77.1292 0.625
77.1595 0.937
77.1898 0.573
77.2201 0.937
77.2504 0.729
77.2806 0.781
77.3109 0.833
77.3412 0.885
77.3715 0.573
77.4018 0.521
77.4320 0.625
77.4623 0.677
77.4926 0.573
77.5229 0.469
77.5531 0.885
77.5834 0.729
77.6137 0.573
77.6440 0.417
77.6743 0.729
77.7045 0.521
77.7348 0.625
77.7651 0.729
77.7954 0.885
77.8257 0.625
77.8559 0.312
77.8862 0.521
77.9165 0.625
77.9468 0.729
77.9770 0.729
78.0073 0.729
78.0376 0.312
78.0679 0.521
78.0982 0.469
78.1284 0.469
78.1587 0.625
78.1890 0.573
78.2193 0.625
78.2496 0.729
78.2798 0.625
78.3101 0.365
78.3404 0.365
78.3707 0.312
78.4009 0.937
78.4312 0.781
78.4615 0.521
78.4918 0.729
78.5221 0.677
78.5523 0.521
78.5826 0.781
78.6129 0.625
78.6432 0.781
78.6735 0.469
78.7037 0.312
78.7340 0.729
78.7643 0.469
78.7946 0.469
78.8248 0.625
78.8551 0.677
78.8854 0.365
78.9157 0.833
78.9460 0.417
78.9762 0.469
79.0065 0.260
79.0368 0.729
79.0671 0.521
79.0974 0.573
79.1276 0.365
79.1579 0.469
79.1882 0.260
79.2185 0.417
79.2488 0.312
79.2790 0.729
79.3093 0.781
79.3396 0.365
79.3699 0.521
79.4001 0.417
79.4304 0.417
79.4607 0.469
79.4910 0.521
79.5213 0.625
79.5515 0.417
79.5818 0.937
79.6121 0.365
79.6424 1.146
79.6727 0.365
79.7029 0.677
79.7332 0.469
79.7635 0.885
79.7938 0.729
79.8240 0.469
79.8543 0.312
79.8846 0.521
79.9149 0.573
79.9452 0.781
79.9754 0.365
80.0057 0.573
80.0360 0.625
80.0663 0.625
80.0966 0.312
80.1268 0.833
80.1571 0.729
80.1874 0.521
80.2177 0.729
80.2479 0.729
80.2782 0.469
80.3085 0.781
80.3388 0.521
80.3691 0.729
80.3993 0.260
80.4296 0.833
80.4599 0.625
80.4902 0.469
80.5205 0.521
80.5507 0.521
80.5810 0.677
80.6113 0.573
80.6416 0.521
80.6718 0.781
80.7021 0.469
80.7324 0.573
80.7627 0.208
80.7930 0.417
80.8232 0.573
80.8535 0.469
80.8838 0.521
80.9141 0.521
80.9444 0.469
80.9746 0.625
81.0049 0.729
81.0352 0.625
81.0655 0.521
81.0957 0.677
81.1260 0.677
81.1563 0.469
81.1866 0.729
81.2169 0.833
81.2471 0.781
81.2774 0.521
81.3077 1.146
81.3380 0.573
81.3683 0.469
81.3985 0.781
81.4288 0.625
81.4591 0.729
81.4894 0.365
81.5196 0.729
81.5499 0.625
81.5802 0.625
81.6105 0.729
81.6408 0.937
81.6710 0.625
81.7013 0.417
81.7316 0.521
81.7619 0.469
81.7922 0.625
81.8224 0.260
81.8527 0.781
81.8830 0.729
81.9133 0.521
81.9436 0.469
81.9738 0.833
82.0041 0.312
82.0344 0.677
82.0647 0.677
82.0949 0.625
82.1252 0.833
82.1555 0.573
82.1858 0.469
82.2161 0.573
82.2463 0.521
82.2766 0.365
82.3069 0.625
82.3372 0.729
82.3675 0.833
82.3977 0.469
82.4280 0.417
82.4583 0.312
82.4886 0.521
82.5188 0.312
82.5491 0.677
82.5794 0.417
82.6097 0.521
82.6400 0.729
82.6702 0.521
82.7005 0.729
82.7308 0.469
82.7611 0.677
82.7914 0.521
82.8216 0.625
82.8519 0.573
82.8822 0.469
82.9125 0.729
82.9427 0.729
82.9730 0.521
83.0033 0.729
83.0336 0.625
83.0639 0.729
83.0941 0.729
83.1244 0.365
83.1547 0.677
83.1850 0.573
83.2153 0.469
83.2455 0.365
83.2758 0.625
83.3061 0.677
83.3364 0.625
83.3666 0.365
83.3969 0.260
83.4272 0.677
83.4575 0.677
83.4878 0.573
83.5180 0.573
83.5483 0.729
83.5786 0.729
83.6089 0.573
83.6392 0.260
83.6694 0.573
83.6997 0.260
83.7300 0.260
83.7603 0.729
83.7905 0.625
83.8208 0.521
83.8511 0.521
83.8814 0.260
83.9117 0.365
83.9419 0.521
83.9722 0.885
84.0025 0.260
84.0328 0.365
84.0631 0.625
84.0933 0.625
84.1236 0.625
84.1539 0.625
84.1842 0.625
84.2144 0.833
84.2447 0.573
84.2750 0.781
84.3053 0.365
84.3356 0.521
84.3658 0.729
84.3961 0.729
84.4264 0.573
84.4567 0.729
84.4870 0.990
84.5172 0.729
84.5475 0.573
84.5778 0.573
84.6081 0.573
84.6383 0.365
84.6686 0.729
84.6989 0.625
84.7292 0.729
84.7595 0.781
84.7897 0.573
84.8200 0.104
84.8503 0.677
84.8806 0.729
84.9109 0.573
84.9411 0.417
84.9714 0.729
85.0017 0.417
85.0320 0.260
85.0623 0.729
85.0925 0.365
85.1228 0.521
85.1531 0.521
85.1834 0.729
85.2136 0.833
85.2439 0.781
85.2742 0.469
85.3045 0.625
85.3348 0.833
85.3650 1.042
85.3953 0.937
85.4256 0.573
85.4559 0.417
85.4862 0.469
85.5164 0.573
85.5467 0.521
85.5770 0.573
85.6073 0.729
85.6375 0.729
85.6678 0.833
85.6981 0.365
85.7284 0.365
85.7587 0.417
85.7889 0.260
85.8192 0.417
85.8495 0.729
85.8798 0.677
85.9101 0.677
85.9403 0.625
85.9706 0.729
86.0009 0.365
86.0312 0.521
86.0614 0.521
86.0917 0.781
86.1220 0.573
86.1523 0.625
86.1826 0.573
86.2128 0.260
86.2431 0.521
86.2734 0.365
86.3037 0.625
86.3340 0.417
86.3642 0.729
86.3945 0.729
86.4248 0.469
86.4551 0.312
86.4853 0.417
86.5156 0.885
86.5459 0.625
86.5762 0.781
86.6065 0.312
86.6367 0.469
86.6670 0.729
86.6973 0.729
86.7276 0.521
86.7579 0.781
86.7881 0.521
86.8184 0.365
86.8487 0.677
86.8790 0.469
86.9092 0.573
86.9395 0.312
86.9698 0.469
87.0001 0.365
87.0304 0.469
87.0606 0.521
87.0909 0.312
87.1212 0.625
87.1515 0.573
87.1818 0.625
87.2120 0.781
87.2423 0.469
87.2726 0.729
87.3029 0.625
87.3331 0.417
87.3634 0.260
87.3937 0.625
87.4240 0.625
87.4543 0.625
87.4845 0.729
87.5148 0.625
87.5451 0.521
87.5754 0.729
87.6057 0.312
87.6359 0.729
87.6662 0.573
87.6965 0.260
87.7268 0.729
87.7571 0.312
87.7873 0.469
87.8176 0.521
87.8479 0.573
87.8782 0.365
87.9084 1.042
87.9387 0.417
87.9690 0.625
87.9993 0.365
88.0296 0.573
88.0598 0.885
88.0901 0.521
88.1204 0.625
88.1507 0.521
88.1810 0.417
88.2112 0.573
88.2415 0.729
88.2718 0.312
88.3021 0.469
88.3323 0.625
88.3626 0.573
88.3929 0.365
88.4232 0.625
88.4535 0.521
88.4837 0.729
88.5140 0.625
88.5443 0.781
88.5746 0.781
88.6049 0.990
88.6351 0.833
88.6654 0.729
88.6957 0.312
88.7260 0.729
88.7562 0.573
88.7865 0.781
88.8168 0.781
88.8471 0.781
88.8774 0.625
88.9076 0.417
88.9379 0.625
88.9682 0.417
88.9985 0.625
89.0288 0.781
89.0590 0.677
89.0893 0.937
89.1196 0.573
89.1499 1.146
89.1801 0.833
89.2104 0.885
89.2407 0.781
89.2710 1.042
89.3013 1.198
89.3315 1.354
89.3618 1.042
89.3921 1.198
89.4224 1.198
89.4527 1.302
89.4829 1.302
89.5132 0.833
89.5435 1.198
89.5738 1.354
89.6040 1.094
89.6343 1.458
89.6646 1.146
89.6949 0.729
89.7252 1.146
89.7554 0.781
89.7857 0.833
89.8160 0.885
89.8463 1.094
89.8766 0.781
89.9068 0.729
89.9371 0.365
89.9674 0.729
89.9977 1.146
90.0279 0.990
90.0582 0.729
90.0885 0.625
90.1188 0.885
90.1491 0.833
90.1793 0.729
90.2096 0.677
90.2399 0.365
90.2702 0.469
90.3005 0.729
90.3307 0.729
90.3610 0.677
90.3913 0.521
90.4216 0.469
90.4518 0.260
90.4821 0.417
90.5124 0.521
90.5427 0.677
90.5730 0.312
90.6032 0.625
90.6335 0.625
90.6638 0.417
90.6941 0.677
90.7244 0.729
90.7546 0.417
90.7849 0.469
90.8152 0.417
90.8455 0.885
90.8758 0.573
90.9060 0.625
90.9363 0.833
90.9666 0.365
90.9969 0.833
91.0271 0.573
91.0574 0.729
91.0877 0.521
91.1180 0.625
91.1483 0.469
91.1785 0.625
91.2088 0.469
91.2391 0.417
91.2694 0.521
91.2997 0.885
91.3299 0.729
91.3602 0.729
91.3905 0.260
91.4208 0.677
91.4510 0.521
91.4813 0.677
91.5116 0.781
91.5419 0.521
91.5722 0.260
91.6024 0.625
91.6327 0.677
91.6630 0.521
91.6933 0.573
91.7236 0.573
91.7538 0.625
91.7841 0.625
91.8144 0.625
91.8447 0.417
91.8749 0.625
91.9052 0.729
91.9355 0.521
91.9658 0.521
91.9961 0.833
92.0263 0.781
92.0566 0.312
92.0869 0.521
92.1172 0.729
92.1475 0.833
92.1777 0.729
92.2080 0.729
92.2383 0.260
92.2686 0.677
92.2988 0.625
92.3291 0.729
92.3594 0.573
92.3897 0.625
92.4200 0.677
92.4502 0.521
92.4805 0.833
92.5108 0.625
92.5411 0.885
92.5714 0.729
92.6016 0.521
92.6319 0.729
92.6622 1.198
92.6925 0.885
92.7227 1.042
92.7530 1.094
92.7833 0.781
92.8136 0.781
92.8439 0.625
92.8741 0.781
92.9044 0.729
92.9347 0.937
92.9650 0.729
92.9953 0.625
93.0255 0.833
93.0558 0.521
93.0861 0.781
93.1164 0.729
93.1466 0.625
93.1769 0.417
93.2072 0.781
93.2375 0.729
93.2678 0.312
93.2980 0.781
93.3283 0.729
93.3586 0.833
93.3889 0.677
93.4192 0.417
93.4494 0.625
93.4797 0.469
93.5100 0.833
93.5403 0.885
93.5706 0.260
93.6008 0.521
93.6311 0.573
93.6614 0.417
93.6917 0.521
93.7219 0.729
93.7522 0.677
93.7825 0.625
93.8128 0.417
93.8431 0.573
93.8733 0.573
93.9036 0.417
93.9339 0.729
93.9642 0.625
93.9945 0.312
94.0247 0.729
94.0550 0.521
94.0853 0.729
94.1156 0.729
94.1458 0.625
94.1761 0.521
94.2064 0.573
94.2367 0.469
94.2670 0.729
94.2972 0.417
94.3275 0.781
94.3578 0.781
94.3881 0.260
94.4184 0.885
94.4486 0.729
94.4789 0.677
94.5092 0.729
94.5395 0.833
94.5697 0.729
94.6000 0.885
94.6303 0.260
94.6606 0.729
94.6909 0.677
94.7211 0.937
94.7514 0.521
94.7817 0.729
94.8120 1.146
94.8423 0.833
94.8725 1.198
94.9028 0.625
94.9331 0.937
94.9634 0.781
94.9936 0.990
95.0239 1.406
95.0542 1.250
95.0845 1.250
95.1148 1.094
95.1450 1.406
95.1753 1.146
95.2056 1.094
95.2359 1.250
95.2662 1.198
95.2964 0.937
95.3267 1.198
95.3570 1.198
95.3873 1.146
95.4175 1.250
95.4478 1.146
95.4781 0.990
95.5084 1.146
95.5387 0.885
95.5689 1.042
95.5992 0.833
95.6295 0.990
95.6598 0.885
95.6901 0.781
95.7203 0.729
95.7506 0.833
95.7809 0.677
95.8112 0.833
95.8414 0.729
95.8717 0.781
95.9020 0.625
95.9323 0.885
95.9626 0.729
95.9928 0.625
96.0231 0.573
96.0534 0.521
96.0837 0.885
96.1140 0.521
96.1442 0.625
96.1745 0.521
96.2048 0.729
96.2351 0.729
96.2653 0.885
96.2956 0.729
96.3259 0.729
96.3562 0.833
96.3865 0.625
96.4167 0.677
96.4470 0.469
96.4773 0.833
96.5076 0.729
96.5379 0.417
96.5681 0.625
96.5984 0.469
96.6287 0.729
96.6590 0.677
96.6893 0.260
96.7195 0.625
96.7498 0.625
96.7801 0.729
96.8104 0.573
96.8406 0.469
96.8709 0.729
96.9012 0.729
96.9315 0.417
96.9618 0.781
96.9920 0.781
97.0223 0.729
97.0526 0.521
97.0829 0.729
97.1132 0.677
97.1434 0.625
97.1737 0.781
97.2040 0.729
97.2343 0.625
97.2645 0.781
97.2948 0.573
97.3251 0.469
97.3554 0.417
97.3857 0.417
97.4159 0.781
97.4462 0.573
97.4765 0.781
97.5068 0.521
97.5371 0.573
97.5673 0.365
97.5976 0.417
97.6279 0.573
97.6582 0.729
97.6884 0.417
97.7187 0.677
97.7490 0.469
97.7793 0.990
97.8096 0.937
97.8398 0.833
97.8701 0.885
97.9004 0.781
97.9307 0.625
97.9610 0.937
97.9912 0.677
98.0215 0.417
98.0518 0.469
98.0821 1.250
98.1123 0.781
98.1426 1.094
98.1729 0.833
98.2032 0.937
98.2335 1.042
98.2637 0.781
98.2940 0.781
98.3243 0.521
98.3546 0.677
98.3849 0.937
98.4151 0.937
98.4454 0.937
98.4757 1.302
98.5060 0.677
98.5362 0.781
98.5665 0.781
98.5968 0.781
98.6271 0.833
98.6574 0.781
98.6876 1.094
98.7179 0.937
98.7482 0.990
98.7785 0.417
98.8088 0.833
98.8390 0.573
98.8693 1.042
98.8996 1.042
98.9299 0.833
98.9601 0.469
98.9904 0.625
99.0207 0.677
99.0510 0.625
99.0813 0.781
99.1115 0.937
99.1418 0.937
99.1721 0.990
99.2024 0.573
99.2327 0.781
99.2629 0.469
99.2932 0.937
99.3235 0.573
99.3538 0.625
99.3841 0.833
99.4143 0.729
99.4446 0.469
99.4749 0.521
99.5052 0.781
99.5354 0.625
99.5657 0.781
99.5960 0.521
99.6263 0.625
99.6566 0.677
99.6868 0.521
99.7171 0.469
99.7474 0.729
99.7777 0.573
99.8080 0.625
99.8382 0.625
99.8685 0.469
99.8988 0.781
99.9291 0.677
99.9593 0.417
99.9896 0.521
100.0199 0.521
100.0502 0.469
100.0805 0.781
100.1107 0.833
100.1410 0.521
100.1713 0.469
100.2016 0.937
100.2319 0.521
100.2621 0.625
100.2924 0.521
100.3227 0.573
100.3530 0.521
100.3832 0.937
100.4135 0.573
100.4438 0.833
100.4741 0.729
100.5044 0.781
100.5346 0.260
100.5649 0.573
100.5952 0.625
100.6255 0.521
100.6558 0.417
100.6860 0.573
100.7163 0.729
100.7466 0.729
100.7769 0.625
100.8071 0.885
100.8374 0.833
100.8677 0.729
100.8980 0.885
100.9283 0.729
100.9585 0.417
100.9888 0.521
101.0191 0.781
101.0494 0.625
101.0797 0.469
101.1099 1.146
101.1402 0.677
101.1705 0.729
101.2008 0.573
101.2310 0.677
101.2613 0.677
101.2916 0.521
101.3219 0.521
101.3522 0.781
101.3824 0.573
101.4127 0.677
101.4430 0.729
101.4733 0.417
101.5036 0.990
101.5338 0.781
101.5641 0.521
101.5944 0.469
101.6247 0.833
101.6549 0.729
101.6852 0.781
101.7155 0.781
101.7458 0.781
101.7761 0.625
101.8063 0.469
101.8366 0.833
101.8669 0.833
101.8972 0.417
101.9275 0.469
101.9577 0.365
101.9880 0.729
102.0183 0.781
102.0486 0.417
102.0788 0.781
102.1091 0.937
102.1394 0.781
102.1697 1.094
102.2000 0.677
102.2302 0.677
102.2605 1.094
102.2908 0.885
102.3211 0.625
102.3514 0.781
102.3816 0.990
102.4119 1.146
102.4422 0.625
102.4725 0.677
102.5028 0.833
102.5330 0.625
102.5633 0.521
102.5936 0.885
102.6239 0.729
102.6541 1.042
102.6844 0.937
102.7147 0.625
102.7450 0.625
102.7753 0.833
102.8055 0.573
102.8358 0.990
102.8661 1.094
102.8964 1.094
102.9267 1.302
102.9569 0.833
102.9872 0.677
103.0175 0.729
103.0478 0.833
103.0780 0.833
103.1083 0.625
103.1386 0.833
103.1689 0.625
103.1992 0.521
103.2294 0.885
103.2597 0.990
103.2900 0.990
103.3203 0.573
103.3506 0.781
103.3808 1.094
103.4111 0.729
103.4414 1.146
103.4717 1.042
103.5019 1.042
103.5322 1.042
103.5625 0.677
103.5928 0.990
103.6231 0.937
103.6533 0.937
103.6836 1.094
103.7139 0.885
103.7442 0.677
103.7745 1.146
103.8047 0.833
103.8350 1.458
103.8653 1.198
103.8956 1.250
103.9258 0.885
103.9561 0.990
103.9864 0.833
104.0167 0.677
104.0470 1.094
104.0772 1.302
104.1075 1.198
104.1378 0.885
104.1681 0.885
104.1984 1.094
104.2286 0.833
104.2589 0.885
104.2892 0.885
104.3195 1.094
104.3497 0.625
104.3800 1.146
104.4103 0.625
104.4406 0.885
104.4709 0.573
104.5011 1.354
104.5314 0.833
104.5617 0.990
104.5920 1.094
104.6223 0.833
104.6525 0.677
104.6828 0.625
104.7131 0.729
104.7434 0.833
104.7736 0.781
104.8039 0.677
104.8342 0.885
104.8645 0.990
104.8948 0.833
104.9250 0.833
104.9553 0.833
104.9856 0.833
105.0159 0.833
105.0462 0.729
105.0764 0.937
105.1067 0.260
105.1370 0.469
105.1673 0.521
105.1975 0.208
105.2278 0.573
105.2581 0.781
105.2884 0.521
105.3187 0.677
105.3489 0.729
105.3792 0.677
105.4095 0.521
105.4398 0.833
105.4701 0.937
105.5003 0.833
105.5306 0.573
105.5609 0.573
105.5912 0.677
105.6215 0.677
105.6517 0.365
105.6820 0.625
105.7123 0.521
105.7426 0.729
105.7728 0.677
105.8031 0.417
105.8334 0.573
105.8637 0.573
105.8940 0.469
105.9242 0.573
105.9545 0.625
105.9848 0.625
106.0151 1.094
106.0454 0.417
106.0756 0.990
106.1059 0.833
106.1362 0.469
106.1665 0.885
106.1967 0.625
106.2270 0.729
106.2573 0.990
106.2876 0.573
106.3179 0.729
106.3481 0.625
106.3784 0.729
106.4087 0.937
106.4390 0.625
106.4693 0.312
106.4995 0.625
106.5298 0.625
106.5601 0.521
106.5904 0.729
106.6206 0.469
106.6509 0.937
106.6812 0.937
106.7115 0.937
106.7418 0.885
106.7720 0.677
106.8023 0.833
106.8326 0.469
106.8629 0.677
106.8932 0.677
106.9234 0.521
106.9537 0.312
106.9840 0.885
107.0143 0.729
107.0445 0.573
107.0748 0.885
107.1051 0.677
107.1354 0.677
107.1657 0.573
107.1959 0.885
107.2262 0.937
107.2565 0.885
107.2868 0.885
107.3171 0.677
107.3473 0.937
107.3776 0.833
107.4079 0.833
107.4382 0.937
107.4684 0.312
107.4987 0.833
107.5290 0.469
107.5593 0.521
107.5896 0.677
107.6198 0.417
107.6501 0.885
107.6804 0.573
107.7107 0.625
107.7410 0.729
107.7712 0.885
107.8015 0.781
107.8318 0.781
107.8621 0.469
107.8923 0.573
107.9226 0.677
107.9529 0.729
107.9832 0.885
108.0135 0.885
108.0437 0.625
108.0740 0.469
108.1043 0.312
108.1346 0.677
108.1649 0.573
108.1951 0.885
108.2254 0.677
108.2557 0.573
108.2860 0.885
108.3163 0.781
108.3465 0.833
108.3768 0.521
108.4071 0.781
108.4374 0.885
108.4676 0.312
108.4979 0.521
108.5282 0.573
108.5585 0.469
108.5888 0.521
108.6190 0.885
108.6493 0.521
108.6796 0.885
108.7099 0.729
108.7402 0.469
108.7704 0.833
108.8007 0.573
108.8310 0.469
108.8613 0.937
108.8915 0.521
108.9218 0.365
108.9521 0.781
108.9824 0.625
109.0127 0.677
109.0429 0.625
109.0732 0.521
109.1035 0.885
109.1338 0.833
109.1641 0.417
109.1943 0.729
109.2246 0.781
109.2549 0.937
109.2852 0.521
109.3154 0.677
109.3457 0.365
109.3760 0.469
109.4063 0.781
109.4366 0.729
109.4668 1.042
109.4971 0.573
109.5274 0.833
109.5577 0.781
109.5880 0.885
109.6182 0.729
109.6485 0.625
109.6788 0.469
109.7091 0.990
109.7393 0.885
109.7696 0.729
109.7999 0.833
109.8302 1.302
109.8605 0.573
109.8907 0.521
109.9210 0.729
109.9513 0.937
109.9816 0.937
110.0119 0.937
110.0421 0.885
110.0724 0.781
110.1027 1.406
110.1330 0.781
110.1632 0.729
110.1935 1.094
110.2238 1.094
110.2541 0.625
110.2844 0.990
110.3146 0.885
110.3449 0.781
110.3752 0.885
110.4055 1.094
110.4358 0.885
110.4660 0.937
110.4963 0.885
110.5266 0.573
110.5569 1.146
110.5871 0.677
110.6174 0.937
110.6477 0.729
110.6780 0.937
110.7083 0.937
110.7385 0.625
110.7688 0.729
110.7991 0.833
110.8294 0.885
110.8597 0.469
110.8899 0.781
110.9202 0.625
110.9505 0.729
110.9808 0.729
111.0110 0.781
111.0413 0.885
111.0716 0.833
111.1019 0.625
111.1322 0.990
111.1624 0.833
111.1927 0.625
111.2230 0.260
111.2533 0.521
111.2836 0.833
111.3138 0.625
111.3441 0.677
111.3744 0.365
111.4047 0.417
111.4350 0.833
111.4652 0.885
111.4955 0.625
111.5258 0.729
111.5561 0.990
111.5863 0.521
111.6166 0.833
111.6469 0.573
111.6772 0.625
111.7075 0.573
111.7377 0.677
111.7680 0.937
111.7983 0.937
111.8286 0.729
111.8589 1.042
111.8891 0.990
111.9194 0.885
111.9497 0.573
111.9800 0.729
112.0102 0.677
112.0405 0.677
112.0708 0.990
112.1011 0.365
112.1314 0.781
112.1616 0.677
112.1919 0.469
112.2222 0.573
112.2525 0.625
112.2828 0.312
112.3130 0.677
112.3433 0.781
112.3736 0.625
112.4039 0.625
112.4341 0.625
112.4644 0.521
112.4947 0.729
112.5250 0.833
112.5553 0.625
112.5855 0.729
112.6158 0.573
112.6461 0.729
112.6764 0.833
112.7067 0.677
112.7369 1.042
112.7672 0.677
112.7975 0.885
112.8278 1.042
112.8580 0.365
112.8883 1.042
112.9186 0.729
112.9489 1.042
112.9792 0.677
113.0094 0.729
113.0397 0.885
113.0700 0.885
113.1003 0.417
113.1306 0.365
113.1608 0.625
113.1911 0.521
113.2214 0.729
113.2517 0.781
113.2819 0.781
113.3122 0.521
113.3425 0.469
113.3728 0.885
113.4031 0.729
113.4333 0.677
113.4636 0.781
113.4939 0.365
113.5242 0.885
113.5545 0.833
113.5847 0.781
113.6150 0.521
113.6453 0.833
113.6756 0.937
113.7058 0.417
113.7361 0.885
113.7664 0.365
113.7967 0.625
113.8270 0.937
113.8572 0.521
113.8875 0.573
113.9178 0.833
113.9481 0.833
113.9784 0.729
114.0086 0.365
114.0389 0.469
114.0692 1.146
114.0995 0.625
114.1298 0.885
114.1600 0.833
114.1903 0.417
114.2206 0.677
114.2509 0.365
114.2811 0.729
114.3114 0.833
114.3417 0.990
114.3720 0.312
114.4023 0.573
114.4325 0.937
114.4628 0.885
114.4931 0.781
114.5234 0.417
114.5537 0.625
114.5839 0.469
114.6142 0.781
114.6445 0.573
114.6748 0.677
114.7050 0.573
114.7353 0.781
114.7656 1.042
114.7959 0.885
114.8262 0.937
114.8564 0.625
114.8867 0.573
114.9170 0.521
114.9473 0.781
114.9776 0.781
115.0078 0.885
115.0381 0.573
115.0684 0.990
115.0987 0.417
115.1289 0.729
115.1592 0.625
115.1895 0.937
115.2198 0.312
115.2501 0.885
115.2803 0.521
115.3106 0.885
115.3409 0.833
115.3712 0.781
115.4015 0.625
115.4317 0.677
115.4620 0.729
115.4923 1.094
115.5226 0.833
115.5528 0.677
115.5831 0.990
115.6134 0.625
115.6437 1.250
115.6740 0.729
115.7042 0.729
115.7345 1.250
115.7648 1.302
115.7951 1.198
115.8254 1.146
115.8556 1.250
115.8859 1.146
115.9162 1.302
115.9465 1.354
115.9767 1.302
116.0070 1.198
116.0373 1.042
116.0676 1.562
116.0979 1.146
116.1281 1.094
116.1584 1.458
116.1887 1.354
116.2190 0.885
116.2493 1.458
116.2795 1.562
116.3098 0.729
116.3401 0.833
116.3704 0.729
116.4006 1.250
116.4309 0.937
116.4612 1.146
116.4915 1.198
116.5218 1.198
116.5520 0.885
116.5823 0.781
116.6126 1.198
116.6429 0.625
116.6732 1.302
116.7034 1.146
116.7337 0.990
116.7640 1.042
116.7943 0.677
116.8245 0.990
116.8548 0.937
116.8851 0.625
116.9154 0.937
116.9457 0.781
116.9759 0.677
117.0062 1.146
117.0365 0.625
117.0668 0.885
117.0971 1.042
117.1273 0.781
117.1576 1.094
117.1879 0.990
117.2182 0.937
117.2485 0.677
117.2787 0.573
117.3090 0.573
117.3393 0.417
117.3696 0.573
117.3998 0.677
117.4301 0.833
117.4604 0.833
117.4907 1.146
117.5210 0.833
117.5512 1.146
117.5815 0.677
117.6118 0.417
117.6421 0.833
117.6724 0.573
117.7026 0.625
117.7329 0.573
117.7632 0.521
117.7935 0.990
117.8237 0.677
117.8540 0.677
117.8843 0.781
117.9146 0.625
117.9449 0.729
117.9751 0.521
118.0054 0.781
118.0357 0.521
118.0660 0.885
118.0963 0.677
118.1265 0.312
118.1568 0.573
118.1871 0.469
118.2174 0.781
118.2476 0.677
118.2779 0.781
118.3082 0.729
118.3385 0.729
118.3688 0.729
118.3990 0.521
118.4293 0.729
118.4596 0.312
118.4899 0.625
118.5202 0.729
118.5504 0.677
118.5807 1.146
118.6110 0.781
118.6413 0.990
118.6715 0.937
118.7018 0.885
118.7321 0.625
118.7624 0.781
118.7927 0.677
118.8229 0.625
118.8532 0.677
118.8835 0.469
118.9138 0.625
118.9441 0.729
118.9743 0.417
119.0046 1.042
119.0349 0.937
119.0652 0.937
119.0954 0.885
119.1257 0.677
119.1560 0.625
119.1863 0.833
119.2166 0.885
119.2468 0.937
119.2771 0.417
119.3074 0.625
119.3377 0.469
119.3680 0.781
119.3982 0.729
119.4285 0.573
119.4588 0.521
119.4891 0.625
119.5193 0.677
119.5496 0.781
119.5799 0.729
119.6102 0.625
119.6405 0.781
119.6707 0.729
119.7010 0.469
119.7313 0.521
119.7616 0.677
119.7919 1.042
119.8221 0.677
119.8524 0.521
119.8827 0.781
119.9130 0.885
119.9433 1.042
119.9735 0.729
120.0038 0.833
