'Id: "" Comment: "" Operator: "Lab Manager" Anode: "Cu" Scantype: "Locked Coupled" TimePerStep: "19.2" X: "9999" Y: "9999" Z: "9999" 
10.0015 2.865
10.0318 4.062
10.0620 3.750
10.0923 4.531
10.1226 3.958
10.1529 3.646
10.1832 2.812
10.2134 3.646
10.2437 3.594
10.2740 3.854
10.3043 4.010
10.3346 3.229
10.3648 3.177
10.3951 3.802
10.4254 4.167
10.4557 3.906
10.4859 3.437
10.5162 4.323
10.5465 3.229
10.5768 4.062
10.6071 3.125
10.6373 3.854
10.6676 3.437
10.6979 2.812
10.7282 3.385
10.7585 4.375
10.7887 4.010
10.8190 2.760
10.8493 3.229
10.8796 4.115
10.9098 3.542
10.9401 3.750
10.9704 3.177
11.0007 4.271
11.0310 4.531
11.0612 4.271
11.0915 3.021
11.1218 3.958
11.1521 4.479
11.1824 3.021
11.2126 3.490
11.2429 3.958
11.2732 3.490
11.3035 3.542
11.3337 3.542
11.3640 4.062
11.3943 4.219
11.4246 3.802
11.4549 3.802
11.4851 3.385
11.5154 3.490
11.5457 2.865
11.5760 2.760
11.6063 3.958
11.6365 3.698
11.6668 3.437
11.6971 4.167
11.7274 2.969
11.7577 3.177
11.7879 3.958
11.8182 3.229
11.8485 2.917
11.8788 3.333
11.9090 3.229
11.9393 3.333
11.9696 4.167
11.9999 3.958
12.0302 3.177
12.0604 3.646
12.0907 3.125
12.1210 3.646
12.1513 3.281
12.1816 4.427
12.2118 3.177
12.2421 3.281
12.2724 2.969
12.3027 3.125
12.3329 3.229
12.3632 3.333
12.3935 2.448
12.4238 3.437
12.4541 2.500
12.4843 2.760
12.5146 2.969
12.5449 4.010
12.5752 2.708
12.6055 3.906
12.6357 3.385
12.6660 2.812
12.6963 2.344
12.7266 4.427
12.7568 2.760
12.7871 3.490
12.8174 3.281
12.8477 3.021
12.8780 3.958
12.9082 3.906
12.9385 3.333
12.9688 3.542
12.9991 2.500
13.0294 2.604
13.0596 3.594
13.0899 3.854
13.1202 3.854
13.1505 2.812
13.1807 3.333
13.2110 3.229
13.2413 2.708
13.2716 2.760
13.3019 3.854
13.3321 3.646
13.3624 4.062
13.3927 2.344
13.4230 3.229
13.4533 4.010
13.4835 3.490
13.5138 2.969
13.5441 2.917
13.5744 2.708
13.6046 3.177
13.6349 3.437
13.6652 2.135
13.6955 3.333
13.7258 3.333
13.7560 3.437
13.7863 2.969
13.8166 3.750
13.8469 3.437
13.8772 3.229
13.9074 4.323
13.9377 2.500
13.9680 2.708
13.9983 3.385
14.0285 3.021
14.0588 3.437
14.0891 3.698
14.1194 3.385
14.1497 2.552
14.1799 2.500
14.2102 2.865
14.2405 2.865
14.2708 4.167
14.3011 2.656
14.3313 2.240
14.3616 3.281
14.3919 3.073
14.4222 3.333
14.4524 2.760
14.4827 3.177
14.5130 2.500
14.5433 3.385
14.5736 3.125
14.6038 3.542
14.6341 4.323
14.6644 3.125
14.6947 2.760
14.7250 3.750
14.7552 2.656
14.7855 2.344
14.8158 2.917
14.8461 2.969
14.8764 2.917
14.9066 3.490
14.9369 3.177
14.9672 3.073
14.9975 2.812
15.0277 1.979
15.0580 3.021
15.0883 2.865
15.1186 3.437
15.1489 2.240
15.1791 2.708
15.2094 3.750
15.2397 1.771
15.2700 2.969
15.3003 2.240
15.3305 2.969
15.3608 3.281
15.3911 2.552
15.4214 2.396
15.4516 3.073
15.4819 3.490
15.5122 2.708
15.5425 2.135
15.5728 3.854
15.6030 3.021
15.6333 3.281
15.6636 3.125
15.6939 2.552
15.7242 3.437
15.7544 3.177
15.7847 3.802
15.8150 3.177
15.8453 4.219
15.8755 3.021
15.9058 2.292
15.9361 3.229
15.9664 3.073
15.9967 2.656
16.0269 2.969
16.0572 2.552
16.0875 3.177
16.1178 3.437
16.1481 2.760
16.1783 2.604
16.2086 2.552
16.2389 2.760
16.2692 2.812
16.2994 3.333
16.3297 2.865
16.3600 3.177
16.3903 2.604
16.4206 3.125
16.4508 2.760
16.4811 3.594
16.5114 2.240
16.5417 3.437
16.5720 3.125
16.6022 2.552
16.6325 2.917
16.6628 2.292
16.6931 3.594
16.7233 2.552
16.7536 2.708
16.7839 2.760
16.8142 2.448
16.8445 3.594
16.8747 2.969
16.9050 3.594
16.9353 4.115
16.9656 3.385
16.9959 2.552
17.0261 2.344
17.0564 2.917
17.0867 3.333
17.1170 3.333
17.1472 3.229
17.1775 2.708
17.2078 2.865
17.2381 2.812
17.2684 2.917
17.2986 3.385
17.3289 2.812
17.3592 3.177
17.3895 3.125
17.4198 2.865
17.4500 3.177
17.4803 3.333
17.5106 2.448
17.5409 3.802
17.5712 3.177
17.6014 3.333
17.6317 3.594
17.6620 3.542
17.6923 2.760
17.7225 2.500
17.7528 2.240
17.7831 3.177
17.8134 3.385
17.8437 2.917
17.8739 3.073
17.9042 3.281
17.9345 3.281
17.9648 2.865
17.9951 2.396
18.0253 2.500
18.0556 3.698
18.0859 2.604
18.1162 3.177
18.1464 2.865
18.1767 2.812
18.2070 2.917
18.2373 3.125
18.2676 3.021
18.2978 3.125
18.3281 3.073
18.3584 3.281
18.3887 2.969
18.4190 2.396
18.4492 3.281
18.4795 2.448
18.5098 3.281
18.5401 2.812
18.5703 2.604
18.6006 3.229
18.6309 2.552
18.6612 3.281
18.6915 2.031
18.7217 2.552
18.7520 2.917
18.7823 2.344
18.8126 3.125
18.8429 2.604
18.8731 2.708
18.9034 3.437
18.9337 3.021
18.9640 2.604
18.9942 3.177
19.0245 2.656
19.0548 2.917
19.0851 2.917
19.1154 2.500
19.1456 2.708
19.1759 2.292
19.2062 2.187
19.2365 2.552
19.2668 3.229
19.2970 3.073
19.3273 2.760
19.3576 2.240
19.3879 2.448
19.4181 3.021
19.4484 2.604
19.4787 2.917
19.5090 1.979
19.5393 2.812
19.5695 2.656
19.5998 2.812
19.6301 2.656
19.6604 1.823
19.6907 3.177
19.7209 2.760
19.7512 2.240
19.7815 3.281
19.8118 2.656
19.8420 2.448
19.8723 2.292
19.9026 3.229
19.9329 2.604
19.9632 2.135
19.9934 3.333
20.0237 2.240
20.0540 2.760
20.0843 1.719
20.1146 2.760
20.1448 3.385
20.1751 2.552
20.2054 3.646
20.2357 2.135
20.2659 2.448
20.2962 2.396
20.3265 2.812
20.3568 2.865
20.3871 2.500
20.4173 1.667
20.4476 2.552
20.4779 2.344
20.5082 2.865
20.5385 2.812
20.5687 2.656
20.5990 1.719
20.6293 2.969
20.6596 3.073
20.6899 2.865
20.7201 2.083
20.7504 3.021
20.7807 2.135
20.8110 2.812
20.8412 2.083
20.8715 3.229
20.9018 3.229
20.9321 2.031
20.9624 2.031
20.9926 3.906
21.0229 3.802
21.0532 2.292
21.0835 3.177
21.1138 3.229
21.1440 2.396
21.1743 2.552
21.2046 3.490
21.2349 2.135
21.2651 2.552
21.2954 2.135
21.3257 2.396
21.3560 2.344
21.3863 2.865
21.4165 1.927
21.4468 2.656
21.4771 1.979
21.5074 3.021
21.5377 2.240
21.5679 1.771
21.5982 2.760
21.6285 2.604
21.6588 2.396
21.6890 2.448
21.7193 2.240
21.7496 1.875
21.7799 2.656
21.8102 2.812
21.8404 2.344
21.8707 1.979
21.9010 2.240
21.9313 2.135
21.9616 2.240
21.9918 2.344
22.0221 2.865
22.0524 2.812
22.0827 3.125
22.1129 2.656
22.1432 2.865
22.1735 3.021
22.2038 2.292
22.2341 3.281
22.2643 2.396
22.2946 2.812
22.3249 2.448
22.3552 3.125
22.3855 2.135
22.4157 2.135
22.4460 2.187
22.4763 2.292
22.5066 3.021
22.5368 2.552
22.5671 2.187
22.5974 2.656
22.6277 2.292
22.6580 2.187
22.6882 2.812
22.7185 2.760
22.7488 2.760
22.7791 2.812
22.8094 2.292
22.8396 2.396
22.8699 2.865
22.9002 2.500
22.9305 2.708
22.9607 3.125
22.9910 1.719
23.0213 2.344
23.0516 2.812
23.0819 2.187
23.1121 2.187
23.1424 2.708
23.1727 2.396
23.2030 2.604
23.2333 2.344
23.2635 3.125
23.2938 2.812
23.3241 2.500
23.3544 1.667
23.3846 2.708
23.4149 2.656
23.4452 2.760
23.4755 2.865
23.5058 2.604
23.5360 2.656
23.5663 1.979
23.5966 3.073
23.6269 2.865
23.6572 2.187
23.6874 2.344
23.7177 2.552
23.7480 2.552
23.7783 3.073
23.8086 1.771
23.8388 2.240
23.8691 2.240
23.8994 2.135
23.9297 3.229
23.9599 2.344
23.9902 2.552
24.0205 2.865
24.0508 2.448
24.0811 1.719
24.1113 2.604
24.1416 2.812
24.1719 2.396
24.2022 2.708
24.2325 3.073
24.2627 2.760
24.2930 2.344
24.3233 2.240
24.3536 2.187
24.3838 2.187
24.4141 2.396
24.4444 3.125
24.4747 2.708
24.5050 1.771
24.5352 2.656
24.5655 2.865
24.5958 2.917
24.6261 2.969
24.6564 1.927
24.6866 2.500
24.7169 2.240
24.7472 2.604
24.7775 2.344
24.8077 2.604
24.8380 2.500
24.8683 2.969
24.8986 3.021
24.9289 2.604
24.9591 2.552
24.9894 2.344
25.0197 2.135
25.0500 1.927
25.0803 2.760
25.1105 2.187
25.1408 2.708
25.1711 2.552
25.2014 1.979
25.2316 2.604
25.2619 2.656
25.2922 2.656
25.3225 2.187
25.3528 2.604
25.3830 2.187
25.4133 2.760
25.4436 2.396
25.4739 2.292
25.5042 2.656
25.5344 2.760
25.5647 2.240
25.5950 2.135
25.6253 2.083
25.6555 2.812
25.6858 2.187
25.7161 2.344
25.7464 2.448
25.7767 2.396
25.8069 3.177
25.8372 2.500
25.8675 2.187
25.8978 2.448
25.9281 1.979
25.9583 2.969
25.9886 2.604
26.0189 2.917
26.0492 2.917
26.0794 2.760
26.1097 3.125
26.1400 2.396
26.1703 2.500
26.2006 3.437
26.2308 2.812
26.2611 1.875
26.2914 2.969
26.3217 2.240
26.3520 2.187
26.3822 2.135
26.4125 2.604
26.4428 3.125
26.4731 2.135
26.5034 2.969
26.5336 2.500
26.5639 2.240
26.5942 2.240
26.6245 3.281
26.6547 3.125
26.6850 2.708
26.7153 2.656
26.7456 2.656
26.7759 2.865
26.8061 2.240
26.8364 3.281
26.8667 3.229
26.8970 2.448
26.9273 3.385
26.9575 3.437
26.9878 2.865
27.0181 2.969
27.0484 3.698
27.0786 2.760
27.1089 3.281
27.1392 2.917
27.1695 3.125
27.1998 3.333
27.2300 2.135
27.2603 2.969
27.2906 2.917
27.3209 2.240
27.3512 2.708
27.3814 3.490
27.4117 2.812
27.4420 3.021
27.4723 2.708
27.5025 3.021
27.5328 4.010
27.5631 2.396
27.5934 2.865
27.6237 1.979
27.6539 2.292
27.6842 3.698
27.7145 3.125
27.7448 3.177
27.7751 2.917
27.8053 3.542
27.8356 2.656
27.8659 2.865
27.8962 2.969
27.9264 2.656
27.9567 2.812
27.9870 3.542
28.0173 2.812
28.0476 3.698
28.0778 3.385
28.1081 3.073
28.1384 2.917
28.1687 2.552
28.1990 2.500
28.2292 3.125
28.2595 3.021
28.2898 3.542
28.3201 3.594
28.3503 2.500
28.3806 3.542
28.4109 3.385
28.4412 3.177
28.4715 3.125
28.5017 3.854
28.5320 3.021
28.5623 2.500
28.5926 3.646
28.6229 3.385
28.6531 2.656
28.6834 3.021
28.7137 3.073
28.7440 3.490
28.7742 3.542
28.8045 3.073
28.8348 3.750
28.8651 2.917
28.8954 3.802
28.9256 3.906
28.9559 3.906
28.9862 3.490
29.0165 3.281
29.0468 3.698
29.0770 3.802
29.1073 2.969
29.1376 3.542
29.1679 3.490
29.1981 3.854
29.2284 3.594
29.2587 4.323
29.2890 3.437
29.3193 3.385
29.3495 3.229
29.3798 3.385
29.4101 4.844
29.4404 3.542
29.4707 3.281
29.5009 3.333
29.5312 4.062
29.5615 3.490
29.5918 4.219
29.6221 4.531
29.6523 4.740
29.6826 4.167
29.7129 4.219
29.7432 3.437
29.7734 4.479
29.8037 5.000
29.8340 5.000
29.8643 5.625
29.8946 4.323
29.9248 4.687
29.9551 4.115
29.9854 5.156
30.0157 4.635
30.0460 3.490
30.0762 4.792
30.1065 4.531
30.1368 4.896
30.1671 4.479
30.1973 5.312
30.2276 4.219
30.2579 5.000
30.2882 5.990
30.3185 5.260
30.3487 6.510
30.3790 5.208
30.4093 5.208
30.4396 6.042
30.4699 5.625
30.5001 6.406
30.5304 5.104
30.5607 6.354
30.5910 5.990
30.6212 7.083
30.6515 6.562
30.6818 6.198
30.7121 7.760
30.7424 7.552
30.7726 7.344
30.8029 9.010
30.8332 8.021
30.8635 8.385
30.8938 9.062
30.9240 9.167
30.9543 8.646
30.9846 10.573
31.0149 8.906
31.0451 11.406
31.0754 12.448
31.1057 12.500
31.1360 10.833
31.1663 13.542
31.1965 15.000
31.2268 16.719
31.2571 19.687
31.2874 19.010
31.3177 22.552
31.3479 21.667
31.3782 25.521
31.4085 28.229
31.4388 29.375
31.4690 33.281
31.4993 39.323
31.5296 41.510
31.5599 43.594
31.5902 44.167
31.6204 45.052
31.6507 48.125
31.6810 46.771
31.7113 44.635
31.7416 42.500
31.7718 40.208
31.8021 35.625
31.8324 34.219
31.8627 27.917
31.8929 25.365
31.9232 23.750
31.9535 22.552
31.9838 18.281
32.0141 19.062
32.0443 15.781
32.0746 15.990
32.1049 14.062
32.1352 13.437
32.1655 13.229
32.1957 11.562
32.2260 9.896
32.2563 10.625
32.2866 9.479
32.3169 9.323
32.3471 8.437
32.3774 7.396
32.4077 8.021
32.4380 7.708
32.4682 6.458
32.4985 6.510
32.5288 7.031
32.5591 8.177
32.5894 6.406
32.6196 6.250
32.6499 6.615
32.6802 5.365
32.7105 6.458
32.7408 7.969
32.7710 6.510
32.8013 5.990
32.8316 7.083
32.8619 6.406
32.8921 6.250
32.9224 4.740
32.9527 6.771
32.9830 5.469
33.0133 4.948
33.0435 5.833
33.0738 6.771
33.1041 6.146
33.1344 6.094
33.1647 5.469
33.1949 6.406
33.2252 5.469
33.2555 5.677
33.2858 6.250
33.3160 6.562
33.3463 6.823
33.3766 6.406
33.4069 6.406
33.4372 6.094
33.4674 5.625
33.4977 7.344
33.5280 5.365
33.5583 6.615
33.5886 8.021
33.6188 6.875
33.6491 7.500
33.6794 6.562
33.7097 8.281
33.7399 7.240
33.7702 8.490
33.8005 8.646
33.8308 10.156
33.8611 9.323
33.8913 12.187
33.9216 12.135
33.9519 13.906
33.9822 13.542
34.0125 17.240
34.0427 17.187
34.0730 19.479
34.1033 22.448
34.1336 26.406
34.1638 31.094
34.1941 37.865
34.2244 42.031
34.2547 51.771
34.2850 57.344
34.3152 58.385
34.3455 53.437
34.3758 50.521
34.4061 44.687
34.4364 36.146
34.4666 32.344
34.4969 24.375
34.5272 22.344
34.5575 19.583
34.5877 17.917
34.6180 13.646
34.6483 14.896
34.6786 11.823
34.7089 12.969
34.7391 11.406
34.7694 11.927
34.7997 9.531
34.8300 9.062
34.8603 10.677
34.8905 9.948
34.9208 9.844
34.9511 9.115
34.9814 8.698
35.0116 10.469
35.0419 9.010
35.0722 10.000
35.1025 8.802
35.1328 10.104
35.1630 9.010
35.1933 10.312
35.2236 10.469
35.2539 9.635
35.2842 11.615
35.3144 10.677
35.3447 11.406
35.3750 10.052
35.4053 11.719
35.4356 12.083
35.4658 13.281
35.4961 14.375
35.5264 14.479
35.5567 14.167
35.5869 18.073
35.6172 18.333
35.6475 18.802
35.6778 20.417
35.7081 21.719
35.7383 22.187
35.7686 25.781
35.7989 29.062
35.8292 31.771
35.8595 37.708
35.8897 39.062
35.9200 44.010
35.9503 49.062
35.9806 53.125
36.0108 59.219
36.0411 62.240
36.0714 63.802
36.1017 68.385
36.1320 66.562
36.1622 73.333
36.1925 63.490
36.2228 63.750
36.2531 62.812
36.2834 56.615
36.3136 48.698
36.3439 46.927
36.3742 36.406
36.4045 33.385
36.4347 29.531
36.4650 26.562
36.4953 26.562
36.5256 23.177
36.5559 22.135
36.5861 18.021
36.6164 16.875
36.6467 15.937
36.6770 15.937
36.7073 13.542
36.7375 13.177
36.7678 12.135
36.7981 11.510
36.8284 10.833
36.8586 9.531
36.8889 10.104
36.9192 10.625
36.9495 8.698
36.9798 7.917
37.0100 8.333
37.0403 7.031
37.0706 6.458
37.1009 6.302
37.1312 6.615
37.1614 7.552
37.1917 7.031
37.2220 6.354
37.2523 7.604
37.2825 6.771
37.3128 6.042
37.3431 6.458
37.3734 5.573
37.4037 5.521
37.4339 4.531
37.4642 5.573
37.4945 5.208
37.5248 4.948
37.5551 5.573
37.5853 5.000
37.6156 3.958
37.6459 4.323
37.6762 3.646
37.7064 4.635
37.7367 4.844
37.7670 4.844
37.7973 4.115
37.8276 4.583
37.8578 4.219
37.8881 5.000
37.9184 4.479
37.9487 3.802
37.9790 4.271
38.0092 4.479
38.0395 3.750
38.0698 3.698
38.1001 3.854
38.1304 3.854
38.1606 3.437
38.1909 2.812
38.2212 3.490
38.2515 3.490
38.2817 3.437
38.3120 3.542
38.3423 3.021
38.3726 3.542
38.4029 2.969
38.4331 3.021
38.4634 2.604
38.4937 2.969
38.5240 2.969
38.5543 3.125
38.5845 3.854
38.6148 2.552
38.6451 3.594
38.6754 2.656
38.7056 3.437
38.7359 3.281
38.7662 3.490
38.7965 3.073
38.8268 2.760
38.8570 2.083
38.8873 2.760
38.9176 3.177
38.9479 3.177
38.9782 3.073
39.0084 3.021
39.0387 1.979
39.0690 2.969
39.0993 2.917
39.1295 2.604
39.1598 2.552
39.1901 2.396
39.2204 2.708
39.2507 2.500
39.2809 2.604
39.3112 2.500
39.3415 2.917
39.3718 2.760
39.4021 2.344
39.4323 2.396
39.4626 3.281
39.4929 2.656
39.5232 2.812
39.5534 1.927
39.5837 2.812
39.6140 2.500
39.6443 2.396
39.6746 1.771
39.7048 2.917
39.7351 2.708
39.7654 3.385
39.7957 2.656
39.8260 2.396
39.8562 2.344
39.8865 2.708
39.9168 2.031
39.9471 2.135
39.9773 2.865
40.0076 2.552
40.0379 1.771
40.0682 2.604
40.0985 1.979
40.1287 2.135
40.1590 1.823
40.1893 2.187
40.2196 1.771
40.2499 2.396
40.2801 2.604
40.3104 1.979
40.3407 1.562
40.3710 2.135
40.4012 2.344
40.4315 1.823
40.4618 2.240
40.4921 2.344
40.5224 2.917
40.5526 1.927
40.5829 2.187
40.6132 1.510
40.6435 2.500
40.6738 1.979
40.7040 1.927
40.7343 2.708
40.7646 2.240
40.7949 2.448
40.8251 2.656
40.8554 2.500
40.8857 2.552
40.9160 2.031
40.9463 1.823
40.9765 2.812
41.0068 2.396
41.0371 2.552
41.0674 1.875
41.0977 2.083
41.1279 2.500
41.1582 2.083
41.1885 1.927
41.2188 2.969
41.2491 2.656
41.2793 2.396
41.3096 2.083
41.3399 2.500
41.3702 2.240
41.4004 1.875
41.4307 1.979
41.4610 1.615
41.4913 2.240
41.5216 2.083
41.5518 1.510
41.5821 1.667
41.6124 2.292
41.6427 2.292
41.6730 2.552
41.7032 2.135
41.7335 2.448
41.7638 2.031
41.7941 2.187
41.8243 2.187
41.8546 1.875
41.8849 2.396
41.9152 1.927
41.9455 1.979
41.9757 1.510
42.0060 1.615
42.0363 1.979
42.0666 1.667
42.0969 2.135
42.1271 1.979
42.1574 1.562
42.1877 1.979
42.2180 2.292
42.2482 2.656
42.2785 2.031
42.3088 2.708
42.3391 1.250
42.3694 2.604
42.3996 2.083
42.4299 1.771
42.4602 1.823
42.4905 1.979
42.5208 1.979
42.5510 2.604
42.5813 2.031
42.6116 2.552
42.6419 1.667
42.6721 2.344
42.7024 2.135
42.7327 1.562
42.7630 2.396
42.7933 2.031
42.8235 1.823
42.8538 2.344
42.8841 2.240
42.9144 2.344
42.9447 1.719
42.9749 2.344
43.0052 1.562
43.0355 2.135
43.0658 1.719
43.0960 2.187
43.1263 1.615
43.1566 2.500
43.1869 2.240
43.2172 2.187
43.2474 1.615
43.2777 2.552
43.3080 2.240
43.3383 2.135
43.3686 2.396
43.3988 1.979
43.4291 1.771
43.4594 2.344
43.4897 2.396
43.5199 1.562
43.5502 2.292
43.5805 2.031
43.6108 1.823
43.6411 2.344
43.6713 1.719
43.7016 2.812
43.7319 1.823
43.7622 2.240
43.7925 1.927
43.8227 2.292
43.8530 1.719
43.8833 1.823
43.9136 1.875
43.9439 1.979
43.9741 1.927
44.0044 1.510
44.0347 1.771
44.0650 1.458
44.0952 2.396
44.1255 2.135
44.1558 1.771
44.1861 2.292
44.2164 2.969
44.2466 2.031
44.2769 2.656
44.3072 2.135
44.3375 1.979
44.3678 2.448
44.3980 2.500
44.4283 1.771
44.4586 2.187
44.4889 3.073
44.5191 2.031
44.5494 2.917
44.5797 2.187
44.6100 1.927
44.6403 1.823
44.6705 1.927
44.7008 2.396
44.7311 2.240
44.7614 1.823
44.7917 2.448
44.8219 2.396
44.8522 2.448
44.8825 1.823
44.9128 1.875
44.9430 2.083
44.9733 1.771
45.0036 2.448
45.0339 1.667
45.0642 2.135
45.0944 2.187
45.1247 2.344
45.1550 1.562
45.1853 2.448
45.2156 2.500
45.2458 2.292
45.2761 2.240
45.3064 2.396
45.3367 2.187
45.3669 2.552
45.3972 2.500
45.4275 2.344
45.4578 1.927
45.4881 2.500
45.5183 2.187
45.5486 2.448
45.5789 2.708
45.6092 1.927
45.6395 1.979
45.6697 2.396
45.7000 2.656
45.7303 2.344
45.7606 2.240
45.7908 2.656
45.8211 2.187
45.8514 2.969
45.8817 3.073
45.9120 2.865
45.9422 2.656
45.9725 2.656
46.0028 2.656
46.0331 2.604
46.0634 2.292
46.0936 1.927
46.1239 2.240
46.1542 2.604
46.1845 2.500
46.2147 2.604
46.2450 2.604
46.2753 3.125
46.3056 3.021
46.3359 2.917
46.3661 3.073
46.3964 2.969
46.4267 2.396
46.4570 3.229
46.4873 3.073
46.5175 3.177
46.5478 3.333
46.5781 3.437
46.6084 3.021
46.6386 3.281
46.6689 3.333
46.6992 4.375
46.7295 4.635
46.7598 4.375
46.7900 4.427
46.8203 4.792
46.8506 4.687
46.8809 5.208
46.9112 4.844
46.9414 6.615
46.9717 5.260
47.0020 5.781
47.0323 6.927
47.0626 7.865
47.0928 6.979
47.1231 8.594
47.1534 8.229
47.1837 9.687
47.2139 9.844
47.2442 11.354
47.2745 12.812
47.3048 13.021
47.3351 13.958
47.3653 14.844
47.3956 15.469
47.4259 14.740
47.4562 15.156
47.4865 13.906
47.5167 14.427
47.5470 13.073
47.5773 11.771
47.6076 10.417
47.6378 11.198
47.6681 9.687
47.6984 7.917
47.7287 8.177
47.7590 7.240
47.7892 6.719
47.8195 6.562
47.8498 4.896
47.8801 4.844
47.9104 4.531
47.9406 5.521
47.9709 4.635
48.0012 4.062
48.0315 3.542
48.0617 3.750
48.0920 3.906
48.1223 4.219
48.1526 3.750
48.1829 3.594
48.2131 3.542
48.2434 3.594
48.2737 2.396
48.3040 2.812
48.3343 2.760
48.3645 2.344
48.3948 2.812
48.4251 3.802
48.4554 2.552
48.4856 3.437
48.5159 3.073
48.5462 2.344
48.5765 2.448
48.6068 2.448
48.6370 3.021
48.6673 1.927
48.6976 1.562
48.7279 2.240
48.7582 1.927
48.7884 2.708
48.8187 2.187
48.8490 2.240
48.8793 2.396
48.9095 2.656
48.9398 2.031
48.9701 2.396
49.0004 1.667
49.0307 2.448
49.0609 2.604
49.0912 1.979
49.1215 2.760
49.1518 2.240
49.1821 2.240
49.2123 1.875
49.2426 2.344
49.2729 1.979
49.3032 2.344
49.3334 2.500
49.3637 1.823
49.3940 2.292
49.4243 2.292
49.4546 1.615
49.4848 2.396
49.5151 1.979
49.5454 2.292
49.5757 1.979
49.6060 2.083
49.6362 2.969
49.6665 1.875
49.6968 2.500
49.7271 1.875
49.7574 1.927
49.7876 1.302
49.8179 2.344
49.8482 1.875
49.8785 1.667
49.9087 2.135
49.9390 2.604
49.9693 2.396
49.9996 1.979
50.0299 2.500
50.0601 2.344
50.0904 2.396
50.1207 1.823
50.1510 1.823
50.1813 2.344
50.2115 1.771
50.2418 2.083
50.2721 1.354
50.3024 2.240
50.3326 1.771
50.3629 2.917
50.3932 2.344
50.4235 2.031
50.4538 1.771
50.4840 1.927
50.5143 1.823
50.5446 2.031
50.5749 1.927
50.6052 1.667
50.6354 2.031
50.6657 2.135
50.6960 2.240
50.7263 1.667
50.7565 1.719
50.7868 2.240
50.8171 2.865
50.8474 2.292
50.8777 2.083
50.9079 1.979
50.9382 2.292
50.9685 2.344
50.9988 1.875
51.0291 1.875
51.0593 2.031
51.0896 2.292
51.1199 1.771
51.1502 2.552
51.1804 1.667
51.2107 1.979
51.2410 2.552
51.2713 2.448
51.3016 2.552
51.3318 1.615
51.3621 2.240
51.3924 2.240
51.4227 2.187
51.4530 1.875
51.4832 2.240
51.5135 1.875
51.5438 2.031
51.5741 1.719
51.6043 2.187
51.6346 1.979
51.6649 2.187
51.6952 1.823
51.7255 1.302
51.7557 2.083
51.7860 1.719
51.8163 2.240
51.8466 1.615
51.8769 2.083
51.9071 2.448
51.9374 1.927
51.9677 2.240
51.9980 2.135
52.0282 1.562
52.0585 1.927
52.0888 2.448
52.1191 1.927
52.1494 2.135
52.1796 2.552
52.2099 2.292
52.2402 2.240
52.2705 1.458
52.3008 1.354
52.3310 2.292
52.3613 1.771
52.3916 2.448
52.4219 2.292
52.4521 1.510
52.4824 1.875
52.5127 1.771
52.5430 2.240
52.5733 2.083
52.6035 2.344
52.6338 2.396
52.6641 1.979
52.6944 1.771
52.7247 2.031
52.7549 1.562
52.7852 1.875
52.8155 2.135
52.8458 2.135
52.8761 2.031
52.9063 2.031
52.9366 2.448
52.9669 2.031
52.9972 2.083
53.0274 1.458
53.0577 1.875
53.0880 2.187
53.1183 1.927
53.1486 1.927
53.1788 2.708
53.2091 1.823
53.2394 2.031
53.2697 1.875
53.3000 2.135
53.3302 2.292
53.3605 2.396
53.3908 2.396
53.4211 1.719
53.4513 2.500
53.4816 2.760
53.5119 2.135
53.5422 2.135
53.5725 1.979
53.6027 2.500
53.6330 1.719
53.6633 2.552
53.6936 2.135
53.7239 2.292
53.7541 2.344
53.7844 2.187
53.8147 2.344
53.8450 2.083
53.8752 2.135
53.9055 2.500
53.9358 2.240
53.9661 1.823
53.9964 2.240
54.0266 2.031
54.0569 2.187
54.0872 2.240
54.1175 2.917
54.1478 2.135
54.1780 2.500
54.2083 1.979
54.2386 2.240
54.2689 2.135
54.2991 2.083
54.3294 2.812
54.3597 2.396
54.3900 2.396
54.4203 2.135
54.4505 2.240
54.4808 3.177
54.5111 2.552
54.5414 2.240
54.5717 2.240
54.6019 1.562
54.6322 1.927
54.6625 2.292
54.6928 2.448
54.7230 2.344
54.7533 2.240
54.7836 2.760
54.8139 2.240
54.8442 2.708
54.8744 3.490
54.9047 2.448
54.9350 3.177
54.9653 2.448
54.9956 2.448
55.0258 2.344
55.0561 3.073
55.0864 3.177
55.1167 3.021
55.1469 3.385
55.1772 3.125
55.2075 3.073
55.2378 2.812
55.2681 2.396
55.2983 2.917
55.3286 3.125
55.3589 3.490
55.3892 3.490
55.4195 3.333
55.4497 3.229
55.4800 3.490
55.5103 3.594
55.5406 4.167
55.5709 4.062
55.6011 3.490
55.6314 3.958
55.6617 3.437
55.6920 3.802
55.7222 4.635
55.7525 4.844
55.7828 5.573
55.8131 5.104
55.8434 5.521
55.8736 6.719
55.9039 4.948
55.9342 5.781
55.9645 6.771
55.9948 6.458
56.0250 6.458
56.0553 8.542
56.0856 8.281
56.1159 8.958
56.1461 9.271
56.1764 11.094
56.2067 10.312
56.2370 12.135
56.2673 13.750
56.2975 14.531
56.3278 15.729
56.3581 15.208
56.3884 17.031
56.4187 20.365
56.4489 19.635
56.4792 20.312
56.5095 19.479
56.5398 16.771
56.5700 19.167
56.6003 16.250
56.6306 16.198
56.6609 13.750
56.6912 13.125
56.7214 12.031
56.7517 12.448
56.7820 10.729
56.8123 9.479
56.8426 9.479
56.8728 9.479
56.9031 8.490
56.9334 6.562
56.9637 6.823
56.9939 7.448
57.0242 5.885
57.0545 6.458
57.0848 5.677
57.1151 5.833
57.1453 5.156
57.1756 4.844
57.2059 4.583
57.2362 5.104
57.2665 4.323
57.2967 4.740
57.3270 3.333
57.3573 2.865
57.3876 4.010
57.4178 3.646
57.4481 4.062
57.4784 3.385
57.5087 3.750
57.5390 3.281
57.5692 3.125
57.5995 3.490
57.6298 2.917
57.6601 3.177
57.6904 2.969
57.7206 3.125
57.7509 3.021
57.7812 2.292
57.8115 2.500
57.8417 3.177
57.8720 2.969
57.9023 2.604
57.9326 3.125
57.9629 3.125
57.9931 2.292
58.0234 2.708
58.0537 1.979
58.0840 2.865
58.1143 2.031
58.1445 2.240
58.1748 3.229
58.2051 2.656
58.2354 2.552
58.2656 2.708
58.2959 2.500
58.3262 2.865
58.3565 2.396
58.3868 2.135
58.4170 2.552
58.4473 2.812
58.4776 2.240
58.5079 1.927
58.5382 1.927
58.5684 2.240
58.5987 2.240
58.6290 2.500
58.6593 2.292
58.6896 2.760
58.7198 2.031
58.7501 2.292
58.7804 2.240
58.8107 2.344
58.8409 2.344
58.8712 2.240
58.9015 2.552
58.9318 2.500
58.9621 2.187
58.9923 2.083
59.0226 2.344
59.0529 1.771
59.0832 2.031
59.1135 2.031
59.1437 1.823
59.1740 2.292
59.2043 2.240
59.2346 1.875
59.2648 2.760
59.2951 1.562
59.3254 1.771
59.3557 2.135
59.3860 1.667
59.4162 1.771
59.4465 1.823
59.4768 1.927
59.5071 1.927
59.5374 1.927
59.5676 2.604
59.5979 2.240
59.6282 2.344
59.6585 1.979
59.6887 1.667
59.7190 2.448
59.7493 2.135
59.7796 2.552
59.8099 2.031
59.8401 2.396
59.8704 1.979
59.9007 2.292
59.9310 2.344
59.9613 2.344
59.9915 2.187
60.0218 2.344
60.0521 2.396
60.0824 2.240
60.1126 1.927
60.1429 2.083
60.1732 2.031
60.2035 2.135
60.2338 2.135
60.2640 2.708
60.2943 1.875
60.3246 2.031
60.3549 2.031
60.3852 2.135
60.4154 2.292
60.4457 2.240
60.4760 2.187
60.5063 2.292
60.5365 1.875
60.5668 2.292
60.5971 2.500
60.6274 2.292
60.6577 2.240
60.6879 2.083
60.7182 2.396
60.7485 2.708
60.7788 2.187
60.8091 2.448
60.8393 1.927
60.8696 2.552
60.8999 2.812
60.9302 3.125
60.9604 2.812
60.9907 2.448
61.0210 2.292
61.0513 2.083
61.0816 2.031
61.1118 2.865
61.1421 1.927
61.1724 2.448
61.2027 1.719
61.2330 2.865
61.2632 2.604
61.2935 3.229
61.3238 2.500
61.3541 1.615
61.3844 2.812
61.4146 2.031
61.4449 2.604
61.4752 2.708
61.5055 2.708
61.5357 2.448
61.5660 2.344
61.5963 3.490
61.6266 3.177
61.6569 3.073
61.6871 2.812
61.7174 3.021
61.7477 2.917
61.7780 3.698
61.8083 4.271
61.8385 2.812
61.8688 3.750
61.8991 4.219
61.9294 4.479
61.9596 3.750
61.9899 3.385
62.0202 4.010
62.0505 4.740
62.0808 4.010
62.1110 4.531
62.1413 5.365
62.1716 4.792
62.2019 5.365
62.2322 6.042
62.2624 5.990
62.2927 5.729
62.3230 6.458
62.3533 7.083
62.3835 7.187
62.4138 9.167
62.4441 9.062
62.4744 10.208
62.5047 11.354
62.5349 11.146
62.5652 11.719
62.5955 13.021
62.6258 13.698
62.6561 15.625
62.6863 16.562
62.7166 15.156
62.7469 16.510
62.7772 13.958
62.8074 16.823
62.8377 17.031
62.8680 15.990
62.8983 14.271
62.9286 13.437
62.9588 11.667
62.9891 11.302
63.0194 9.948
63.0497 10.521
63.0800 8.385
63.1102 9.479
63.1405 8.490
63.1708 7.187
63.2011 6.719
63.2313 6.354
63.2616 5.312
63.2919 5.365
63.3222 5.260
63.3525 5.469
63.3827 4.427
63.4130 4.167
63.4433 4.427
63.4736 3.750
63.5039 4.687
63.5341 2.656
63.5644 2.760
63.5947 3.177
63.6250 3.594
63.6552 3.542
63.6855 3.958
63.7158 3.073
63.7461 2.760
63.7764 3.281
63.8066 3.177
63.8369 2.656
63.8672 2.865
63.8975 3.333
63.9278 1.979
63.9580 2.656
63.9883 2.500
64.0186 2.500
64.0489 3.333
64.0791 2.500
64.1094 2.812
64.1397 2.344
64.1700 3.125
64.2003 2.760
64.2305 2.604
64.2608 2.604
64.2911 2.708
64.3214 2.656
64.3517 2.760
64.3819 2.708
64.4122 2.396
64.4425 2.500
64.4728 2.500
64.5031 2.656
64.5333 1.927
64.5636 3.073
64.5939 2.708
64.6242 1.823
64.6544 2.500
64.6847 2.812
64.7150 2.240
64.7453 1.719
64.7756 2.656
64.8058 2.552
64.8361 3.177
64.8664 2.500
64.8967 3.021
64.9270 1.719
64.9572 2.031
64.9875 2.500
65.0178 2.552
65.0481 3.073
65.0783 2.656
65.1086 2.865
65.1389 3.125
65.1692 2.812
65.1995 2.448
65.2297 2.552
65.2600 2.135
65.2903 2.187
65.3206 2.187
65.3509 2.448
65.3811 2.292
65.4114 2.552
65.4417 2.344
65.4720 2.500
65.5022 3.021
65.5325 2.604
65.5628 2.552
65.5931 3.125
65.6234 3.177
65.6536 3.125
65.6839 2.917
65.7142 2.917
65.7445 3.385
65.7748 2.656
65.8050 3.646
65.8353 3.177
65.8656 2.292
65.8959 3.594
65.9261 2.969
65.9564 3.125
65.9867 3.177
66.0170 3.958
66.0473 3.750
66.0775 4.375
66.1078 3.021
66.1381 3.750
66.1684 4.271
66.1987 4.427
66.2289 4.271
66.2592 4.687
66.2895 3.906
66.3198 4.531
66.3500 4.375
66.3803 3.385
66.4106 4.271
66.4409 4.375
66.4712 4.062
66.5014 4.219
66.5317 4.010
66.5620 3.854
66.5923 3.542
66.6226 3.802
66.6528 4.010
66.6831 3.698
66.7134 3.750
66.7437 4.219
66.7739 2.760
66.8042 3.802
66.8345 3.542
66.8648 3.437
66.8951 3.646
66.9253 3.698
66.9556 4.115
66.9859 3.385
67.0162 4.687
67.0465 4.427
67.0767 3.385
67.1070 4.062
67.1373 3.958
67.1676 3.958
67.1978 4.583
67.2281 5.417
67.2584 4.531
67.2887 4.323
67.3190 5.781
67.3492 5.937
67.3795 7.135
67.4098 6.198
67.4401 7.396
67.4704 7.187
67.5006 7.240
67.5309 7.240
67.5612 7.187
67.5915 9.427
67.6218 9.792
67.6520 9.635
67.6823 10.625
67.7126 11.198
67.7429 11.510
67.7731 12.031
67.8034 11.146
67.8337 13.229
67.8640 12.083
67.8943 12.812
67.9245 12.865
67.9548 10.312
67.9851 12.083
68.0154 11.146
68.0457 10.156
68.0759 10.729
68.1062 10.052
68.1365 9.531
68.1668 8.021
68.1970 8.281
68.2273 7.031
68.2576 8.333
68.2879 7.031
68.3182 6.510
68.3484 7.187
68.3787 6.354
68.4090 5.417
68.4393 5.990
68.4696 5.729
68.4998 5.573
68.5301 5.885
68.5604 5.469
68.5907 6.875
68.6209 5.260
68.6512 5.469
68.6815 5.469
68.7118 5.469
68.7421 7.760
68.7723 6.146
68.8026 6.719
68.8329 6.302
68.8632 7.187
68.8935 6.146
68.9237 7.708
68.9540 7.500
68.9843 5.937
69.0146 6.875
69.0448 7.187
69.0751 6.615
69.1054 5.937
69.1357 6.354
69.1660 5.417
69.1962 5.625
69.2265 6.354
69.2568 5.365
69.2871 4.792
69.3174 4.896
69.3476 4.896
69.3779 4.479
69.4082 3.750
69.4385 4.531
69.4687 2.917
69.4990 3.698
69.5293 3.542
69.5596 2.448
69.5899 3.125
69.6201 2.969
69.6504 2.812
69.6807 2.396
69.7110 3.646
69.7413 3.073
69.7715 3.021
69.8018 2.760
69.8321 1.979
69.8624 2.969
69.8926 2.812
69.9229 2.240
69.9532 2.656
69.9835 2.656
70.0138 1.875
70.0440 2.292
70.0743 2.552
70.1046 2.917
70.1349 1.979
70.1652 1.979
70.1954 2.656
70.2257 1.823
70.2560 2.135
70.2863 2.552
70.3166 2.708
70.3468 2.448
70.3771 1.719
70.4074 1.927
70.4377 1.667
70.4679 2.083
70.4982 1.667
70.5285 1.667
70.5588 2.031
70.5891 2.344
70.6193 1.667
70.6496 1.198
70.6799 2.031
70.7102 1.719
70.7405 1.927
70.7707 2.240
70.8010 1.719
70.8313 1.979
70.8616 2.083
70.8918 2.396
70.9221 2.292
70.9524 2.031
70.9827 2.083
71.0130 1.615
71.0432 1.979
71.0735 1.406
71.1038 1.562
71.1341 1.250
71.1644 1.302
71.1946 1.979
71.2249 1.771
71.2552 1.927
71.2855 1.719
71.3157 1.823
71.3460 1.146
71.3763 1.979
71.4066 1.771
71.4369 1.667
71.4671 1.771
71.4974 2.396
71.5277 1.979
71.5580 1.771
71.5883 1.823
71.6185 1.615
71.6488 1.979
71.6791 1.979
71.7094 1.823
71.7396 2.240
71.7699 1.406
71.8002 1.771
71.8305 1.979
71.8608 1.458
71.8910 1.875
71.9213 2.135
71.9516 1.458
71.9819 1.615
72.0122 1.510
72.0424 2.135
72.0727 1.823
72.1030 1.771
72.1333 2.031
72.1635 1.875
72.1938 1.615
72.2241 2.240
72.2544 1.979
72.2847 2.344
72.3149 2.604
72.3452 2.344
72.3755 2.448
72.4058 3.021
72.4361 2.708
72.4663 3.125
72.4966 2.240
72.5269 2.240
72.5572 2.656
72.5874 1.979
72.6177 2.240
72.6480 2.240
72.6783 2.708
72.7086 2.344
72.7388 2.135
72.7691 1.771
72.7994 2.552
72.8297 2.187
72.8600 1.875
72.8902 1.927
72.9205 1.771
72.9508 2.292
72.9811 1.719
73.0113 1.771
73.0416 1.667
73.0719 1.667
73.1022 1.562
73.1325 1.823
73.1627 1.875
73.1930 1.719
73.2233 1.615
73.2536 1.823
73.2839 1.979
73.3141 1.771
73.3444 1.823
73.3747 1.719
73.4050 1.458
73.4353 1.302
73.4655 1.458
73.4958 1.250
73.5261 1.458
73.5564 1.406
73.5866 1.406
73.6169 1.719
73.6472 1.823
73.6775 0.781
73.7078 1.354
73.7380 1.667
73.7683 1.719
73.7986 1.562
73.8289 1.250
73.8592 1.979
73.8894 1.510
73.9197 1.146
73.9500 1.198
73.9803 1.719
74.0105 1.875
74.0408 1.302
74.0711 1.406
74.1014 1.615
74.1317 1.354
74.1619 1.458
74.1922 1.302
74.2225 1.875
74.2528 1.198
74.2831 1.771
74.3133 2.031
74.3436 1.458
74.3739 1.406
74.4042 1.979
74.4344 1.146
74.4647 1.406
74.4950 1.823
74.5253 1.667
74.5556 1.354
74.5858 1.354
74.6161 1.302
74.6464 1.146
74.6767 1.198
74.7070 1.354
74.7372 1.458
74.7675 1.667
74.7978 1.510
74.8281 1.510
74.8583 1.927
74.8886 1.354
74.9189 1.042
74.9492 1.615
74.9795 1.510
75.0097 1.406
75.0400 1.979
75.0703 1.719
75.1006 1.562
75.1309 1.302
75.1611 1.615
75.1914 1.198
75.2217 1.354
75.2520 1.510
75.2822 1.927
75.3125 1.198
75.3428 1.250
75.3731 1.510
75.4034 1.771
75.4336 1.198
75.4639 1.615
75.4942 2.396
75.5245 1.302
75.5548 1.615
75.5850 1.406
75.6153 1.771
75.6456 1.979
75.6759 1.458
75.7061 1.510
75.7364 1.302
75.7667 1.667
75.7970 1.823
75.8273 1.615
75.8575 1.875
75.8878 1.615
75.9181 1.250
75.9484 1.510
75.9787 1.667
76.0089 2.240
76.0392 1.667
76.0695 2.240
76.0998 1.667
76.1301 2.240
76.1603 1.875
76.1906 2.135
76.2209 1.458
76.2512 1.667
76.2814 1.823
76.3117 2.240
76.3420 2.187
76.3723 1.875
76.4026 1.823
76.4328 2.187
76.4631 1.667
76.4934 1.562
76.5237 2.240
76.5540 1.979
76.5842 2.083
76.6145 2.656
76.6448 2.344
76.6751 2.292
76.7053 2.604
76.7356 2.083
76.7659 2.500
76.7962 2.656
76.8265 3.281
76.8567 2.552
76.8870 2.240
76.9173 3.229
76.9476 2.187
76.9779 2.135
77.0081 2.240
77.0384 2.344
77.0687 1.927
77.0990 2.344
77.1292 2.396
77.1595 1.667
77.1898 2.031
77.2201 1.406
77.2504 2.083
77.2806 1.927
77.3109 1.927
77.3412 1.823
77.3715 2.135
77.4018 1.458
77.4320 1.458
77.4623 1.875
77.4926 1.979
77.5229 2.031
77.5531 2.135
77.5834 1.510
77.6137 1.771
77.6440 1.771
77.6743 2.292
77.7045 1.510
77.7348 1.302
77.7651 1.562
77.7954 1.250
77.8257 1.562
77.8559 1.615
77.8862 1.615
77.9165 1.667
77.9468 1.615
77.9770 1.458
78.0073 1.198
78.0376 1.458
78.0679 1.198
78.0982 1.562
78.1284 1.302
78.1587 1.458
78.1890 1.823
78.2193 1.458
78.2496 1.354
78.2798 1.406
78.3101 2.187
78.3404 1.823
78.3707 1.667
78.4009 1.302
78.4312 1.562
78.4615 1.406
78.4918 1.667
78.5221 0.885
78.5523 1.562
78.5826 1.615
78.6129 1.458
78.6432 1.094
78.6735 1.927
78.7037 1.615
78.7340 1.198
78.7643 1.250
78.7946 1.562
78.8248 1.354
78.8551 1.823
78.8854 1.198
78.9157 1.354
78.9460 1.250
78.9762 1.667
79.0065 1.302
79.0368 1.562
79.0671 1.094
79.0974 0.833
79.1276 1.406
79.1579 1.094
79.1882 1.667
79.2185 1.198
79.2488 1.146
79.2790 1.302
79.3093 1.302
79.3396 0.677
79.3699 1.042
79.4001 1.510
79.4304 1.146
79.4607 1.875
79.4910 1.458
79.5213 1.406
79.5515 1.406
79.5818 1.458
79.6121 0.990
79.6424 1.406
79.6727 1.615
79.7029 1.302
79.7332 1.354
79.7635 1.146
79.7938 1.354
79.8240 1.458
79.8543 1.719
79.8846 1.354
79.9149 1.198
79.9452 1.354
79.9754 1.406
80.0057 0.729
80.0360 1.667
80.0663 1.354
80.0966 1.406
80.1268 1.458
80.1571 1.458
80.1874 1.302
80.2177 1.302
80.2479 1.146
80.2782 1.302
80.3085 1.458
80.3388 1.667
80.3691 1.406
80.3993 1.354
80.4296 0.937
80.4599 1.458
80.4902 1.042
80.5205 1.719
80.5507 1.250
80.5810 1.198
80.6113 1.510
80.6416 1.615
80.6718 1.771
80.7021 1.510
80.7324 1.719
80.7627 1.927
80.7930 1.927
80.8232 2.135
80.8535 1.771
80.8838 2.031
80.9141 2.135
80.9444 1.823
80.9746 1.823
81.0049 1.823
81.0352 1.406
81.0655 1.823
81.0957 1.771
81.1260 2.083
81.1563 1.771
81.1866 2.396
81.2169 1.927
81.2471 2.135
81.2774 1.979
81.3077 2.135
81.3380 2.344
81.3683 1.979
81.3985 1.979
81.4288 2.083
81.4591 1.198
81.4894 2.396
81.5196 1.719
81.5499 1.771
81.5802 1.719
81.6105 2.031
81.6408 1.302
81.6710 1.302
81.7013 1.615
81.7316 1.927
81.7619 1.615
81.7922 1.458
81.8224 1.562
81.8527 1.719
81.8830 1.823
81.9133 1.042
81.9436 1.510
81.9738 1.354
82.0041 1.406
82.0344 1.667
82.0647 1.302
82.0949 1.198
82.1252 1.302
82.1555 1.510
82.1858 1.354
82.2161 1.823
82.2463 1.354
82.2766 1.458
82.3069 1.510
82.3372 1.250
82.3675 1.719
82.3977 1.927
82.4280 1.198
82.4583 1.250
82.4886 1.667
82.5188 0.990
82.5491 1.198
82.5794 1.198
82.6097 1.042
82.6400 1.250
82.6702 1.302
82.7005 1.667
82.7308 1.562
82.7611 1.562
82.7914 1.250
82.8216 1.250
82.8519 1.562
82.8822 1.302
82.9125 1.562
82.9427 1.042
82.9730 1.354
83.0033 1.250
83.0336 1.198
83.0639 1.354
83.0941 1.302
83.1244 1.250
83.1547 1.198
83.1850 1.458
83.2153 1.458
83.2455 1.354
83.2758 1.823
83.3061 1.302
83.3364 1.615
83.3666 1.146
83.3969 1.250
83.4272 1.146
83.4575 1.562
83.4878 1.042
83.5180 1.719
83.5483 1.354
83.5786 1.979
83.6089 1.146
83.6392 1.458
83.6694 1.042
83.6997 0.833
83.7300 1.510
83.7603 1.458
83.7905 1.042
83.8208 1.250
83.8511 1.615
83.8814 1.146
83.9117 1.094
83.9419 1.510
83.9722 1.250
84.0025 1.198
84.0328 1.354
84.0631 1.146
84.0933 1.458
84.1236 1.198
84.1539 1.094
84.1842 1.198
84.2144 2.083
84.2447 1.458
84.2750 0.937
84.3053 0.937
84.3356 1.667
84.3658 1.406
84.3961 1.979
84.4264 1.250
84.4567 1.667
84.4870 1.458
84.5172 1.667
84.5475 1.094
84.5778 1.354
84.6081 1.302
84.6383 1.458
84.6686 1.979
84.6989 1.615
84.7292 1.458
84.7595 1.562
84.7897 1.302
84.8200 1.198
84.8503 0.937
84.8806 1.667
84.9109 1.198
84.9411 1.198
84.9714 1.406
85.0017 1.458
85.0320 1.510
85.0623 1.354
85.0925 1.406
85.1228 1.094
85.1531 1.198
85.1834 1.302
85.2136 1.302
85.2439 1.302
85.2742 1.250
85.3045 1.510
85.3348 1.615
85.3650 1.094
85.3953 1.510
85.4256 1.510
85.4559 1.354
85.4862 1.510
85.5164 1.510
85.5467 1.510
85.5770 1.510
85.6073 1.354
85.6375 1.615
85.6678 1.510
85.6981 1.146
85.7284 1.615
85.7587 1.354
85.7889 0.990
85.8192 1.562
85.8495 1.458
85.8798 1.354
85.9101 1.198
85.9403 1.146
85.9706 1.042
86.0009 1.406
86.0312 1.667
86.0614 1.406
86.0917 1.198
86.1220 1.198
86.1523 0.885
86.1826 1.250
86.2128 1.198
86.2431 1.667
86.2734 1.354
86.3037 1.250
86.3340 1.562
86.3642 1.198
86.3945 1.354
86.4248 1.562
86.4551 1.667
86.4853 1.146
86.5156 1.250
86.5459 1.042
86.5762 1.198
86.6065 1.198
86.6367 1.510
86.6670 1.250
86.6973 1.302
86.7276 1.458
86.7579 1.198
86.7881 1.562
86.8184 1.615
86.8487 1.979
86.8790 1.354
86.9092 1.146
86.9395 1.615
86.9698 1.198
87.0001 1.198
87.0304 1.042
87.0606 1.979
87.0909 1.667
87.1212 1.354
87.1515 1.406
87.1818 1.354
87.2120 1.562
87.2423 1.667
87.2726 1.250
87.3029 1.615
87.3331 1.250
87.3634 1.510
87.3937 1.458
87.4240 1.458
87.4543 1.406
87.4845 1.302
87.5148 1.510
87.5451 1.198
87.5754 1.406
87.6057 1.302
87.6359 1.146
87.6662 1.667
87.6965 1.458
87.7268 1.198
87.7571 1.771
87.7873 1.667
87.8176 2.135
87.8479 1.510
87.8782 1.667
87.9084 1.667
87.9387 1.562
87.9690 1.250
87.9993 1.510
88.0296 1.250
88.0598 1.302
88.0901 0.990
88.1204 2.083
88.1507 1.406
88.1810 1.354
88.2112 1.458
88.2415 1.719
88.2718 1.667
88.3021 1.615
88.3323 1.615
88.3626 2.240
88.3929 1.979
88.4232 1.510
88.4535 1.615
88.4837 1.458
88.5140 1.562
88.5443 2.344
88.5746 1.667
88.6049 1.771
88.6351 2.135
88.6654 1.667
88.6957 2.292
88.7260 1.875
88.7562 1.979
88.7865 1.823
88.8168 2.760
88.8471 2.135
88.8774 1.927
88.9076 2.135
88.9379 1.875
88.9682 2.135
88.9985 2.812
89.0288 2.604
89.0590 2.344
89.0893 3.333
89.1196 2.656
89.1499 2.969
89.1801 3.177
89.2104 2.969
89.2407 3.594
89.2710 3.021
89.3013 3.958
89.3315 2.083
89.3618 4.010
89.3921 4.167
89.4224 3.802
89.4527 3.385
89.4829 3.125
89.5132 3.229
89.5435 3.750
89.5738 3.177
89.6040 3.646
89.6343 3.073
89.6646 3.281
89.6949 3.698
89.7252 3.802
89.7554 2.760
89.7857 3.542
89.8160 4.062
89.8463 3.021
89.8766 4.010
89.9068 2.708
89.9371 2.604
89.9674 2.604
89.9977 2.240
90.0279 2.240
90.0582 2.552
90.0885 2.552
90.1188 2.083
90.1491 1.615
90.1793 2.708
90.2096 2.240
90.2399 2.135
90.2702 1.823
90.3005 2.812
90.3307 1.979
90.3610 1.667
90.3913 1.927
90.4216 1.927
90.4518 2.187
90.4821 1.667
90.5124 2.031
90.5427 1.406
90.5730 1.719
90.6032 1.354
90.6335 2.031
90.6638 1.719
90.6941 1.354
90.7244 1.615
90.7546 1.302
90.7849 0.937
90.8152 1.823
90.8455 1.250
90.8758 1.823
90.9060 1.406
90.9363 2.031
90.9666 1.146
90.9969 1.667
91.0271 1.302
91.0574 1.302
91.0877 2.187
91.1180 1.667
91.1483 1.667
91.1785 2.135
91.2088 1.667
91.2391 1.458
91.2694 1.406
91.2997 1.667
91.3299 1.354
91.3602 1.615
91.3905 1.458
91.4208 1.771
91.4510 2.292
91.4813 1.771
91.5116 2.187
91.5419 1.979
91.5722 1.458
91.6024 1.667
91.6327 1.719
91.6630 1.875
91.6933 1.354
91.7236 1.823
91.7538 2.031
91.7841 1.771
91.8144 1.250
91.8447 1.667
91.8749 1.667
91.9052 1.667
91.9355 1.667
91.9658 1.667
91.9961 1.562
92.0263 1.615
92.0566 1.979
92.0869 1.615
92.1172 1.979
92.1475 1.979
92.1777 1.615
92.2080 1.562
92.2383 1.823
92.2686 2.187
92.2988 1.667
92.3291 2.448
92.3594 1.667
92.3897 2.187
92.4200 2.083
92.4502 2.448
92.4805 1.979
92.5108 2.292
92.5411 2.292
92.5714 2.656
92.6016 2.083
92.6319 2.031
92.6622 2.187
92.6925 2.708
92.7227 1.823
92.7530 2.708
92.7833 2.240
92.8136 2.344
92.8439 2.083
92.8741 2.292
92.9044 2.031
92.9347 2.552
92.9650 1.823
92.9953 2.448
93.0255 1.719
93.0558 1.719
93.0861 2.187
93.1164 2.031
93.1466 2.083
93.1769 1.771
93.2072 1.875
93.2375 1.562
93.2678 1.510
93.2980 2.187
93.3283 2.344
93.3586 1.979
93.3889 1.719
93.4192 2.083
93.4494 1.823
93.4797 2.031
93.5100 1.875
93.5403 2.396
93.5706 1.302
93.6008 1.927
93.6311 2.187
93.6614 2.135
93.6917 1.719
93.7219 1.667
93.7522 1.510
93.7825 1.979
93.8128 2.031
93.8431 1.667
93.8733 1.979
93.9036 1.823
93.9339 1.875
93.9642 1.875
93.9945 1.875
94.0247 1.823
94.0550 1.302
94.0853 2.187
94.1156 2.083
94.1458 1.979
94.1761 1.719
94.2064 1.562
94.2367 1.875
94.2670 1.719
94.2972 1.719
94.3275 2.604
94.3578 1.667
94.3881 1.823
94.4184 2.187
94.4486 1.979
94.4789 2.552
94.5092 1.302
94.5395 1.927
94.5697 2.448
94.6000 2.187
94.6303 3.385
94.6606 2.187
94.6909 2.344
94.7211 2.292
94.7514 2.656
94.7817 2.240
94.8120 2.396
94.8423 3.073
94.8725 3.229
94.9028 3.385
94.9331 2.760
94.9634 3.385
94.9936 3.125
95.0239 3.750
95.0542 3.490
95.0845 3.385
95.1148 3.437
95.1450 3.281
95.1753 3.490
95.2056 3.750
95.2359 3.646
95.2662 3.021
95.2964 3.854
95.3267 3.073
95.3570 3.125
95.3873 3.750
95.4175 3.646
95.4478 2.969
95.4781 3.229
95.5084 2.969
95.5387 3.229
95.5689 2.969
95.5992 3.385
95.6295 3.385
95.6598 2.812
95.6901 2.969
95.7203 2.865
95.7506 2.240
95.7809 1.719
95.8112 2.656
95.8414 2.656
95.8717 2.500
95.9020 2.240
95.9323 2.448
95.9626 2.552
95.9928 2.240
96.0231 2.135
96.0534 2.396
96.0837 1.302
96.1140 1.875
96.1442 1.979
96.1745 2.083
96.2048 1.771
96.2351 1.510
96.2653 1.302
96.2956 1.406
96.3259 2.031
96.3562 1.406
96.3865 1.771
96.4167 1.250
96.4470 1.510
96.4773 1.771
96.5076 1.771
96.5379 1.458
96.5681 0.937
96.5984 1.719
96.6287 2.031
96.6590 1.771
96.6893 2.396
96.7195 1.510
96.7498 1.510
96.7801 1.510
96.8104 1.354
96.8406 1.979
96.8709 1.198
96.9012 1.667
96.9315 1.667
96.9618 1.615
96.9920 1.823
97.0223 2.083
97.0526 1.771
97.0829 1.302
97.1132 2.031
97.1434 1.771
97.1737 1.771
97.2040 1.771
97.2343 1.823
97.2645 1.823
97.2948 1.719
97.3251 1.406
97.3554 1.458
97.3857 1.562
97.4159 1.302
97.4462 1.979
97.4765 1.927
97.5068 1.615
97.5371 1.719
97.5673 1.562
97.5976 1.562
97.6279 1.667
97.6582 1.823
97.6884 1.354
97.7187 1.354
97.7490 1.615
97.7793 1.771
97.8096 1.771
97.8398 1.719
97.8701 2.135
97.9004 1.458
97.9307 2.812
97.9610 1.927
97.9912 2.031
98.0215 1.615
98.0518 2.292
98.0821 2.656
98.1123 2.708
98.1426 2.240
98.1729 2.344
98.2032 3.125
98.2335 1.927
98.2637 2.187
98.2940 2.292
98.3243 2.292
98.3546 2.500
98.3849 2.344
98.4151 2.604
98.4454 1.979
98.4757 2.656
98.5060 2.344
98.5362 3.021
98.5665 3.177
98.5968 2.760
98.6271 2.708
98.6574 2.292
98.6876 2.083
98.7179 2.292
98.7482 1.823
98.7785 2.083
98.8088 1.979
98.8390 2.396
98.8693 2.292
98.8996 1.823
98.9299 1.354
98.9601 2.083
98.9904 1.771
99.0207 2.240
99.0510 2.031
99.0813 2.240
99.1115 1.510
99.1418 2.552
99.1721 1.823
99.2024 1.719
99.2327 2.344
99.2629 1.771
99.2932 1.302
99.3235 1.823
99.3538 1.354
99.3841 1.406
99.4143 1.719
99.4446 1.667
99.4749 1.562
99.5052 1.510
99.5354 1.458
99.5657 1.510
99.5960 1.354
99.6263 1.146
99.6566 2.031
99.6868 1.406
99.7171 1.042
99.7474 1.302
99.7777 1.667
99.8080 2.448
99.8382 1.927
99.8685 1.302
99.8988 1.198
99.9291 1.771
99.9593 1.510
99.9896 1.719
100.0199 1.979
100.0502 1.823
100.0805 1.250
100.1107 1.875
100.1410 1.927
100.1713 1.510
100.2016 1.562
100.2319 1.302
100.2621 1.302
100.2924 0.781
100.3227 1.667
100.3530 1.250
100.3832 1.719
100.4135 1.250
100.4438 2.344
100.4741 1.458
100.5044 1.406
100.5346 1.719
100.5649 1.146
100.5952 1.667
100.6255 1.615
100.6558 1.510
100.6860 0.990
100.7163 1.406
100.7466 1.406
100.7769 1.771
100.8071 1.823
100.8374 1.250
100.8677 0.885
100.8980 1.458
100.9283 1.615
100.9585 1.771
100.9888 1.667
101.0191 1.094
101.0494 1.458
101.0797 1.406
101.1099 1.406
101.1402 1.302
101.1705 1.302
101.2008 1.302
101.2310 1.771
101.2613 1.771
101.2916 1.562
101.3219 1.458
101.3522 1.771
101.3824 1.771
101.4127 2.344
101.4430 1.927
101.4733 1.406
101.5036 1.458
101.5338 2.031
101.5641 1.875
101.5944 1.458
101.6247 1.354
101.6549 1.875
101.6852 1.406
101.7155 1.823
101.7458 1.927
101.7761 2.292
101.8063 1.562
101.8366 1.719
101.8669 2.083
101.8972 1.719
101.9275 1.771
101.9577 1.094
101.9880 1.667
102.0183 1.562
102.0486 1.458
102.0788 1.406
102.1091 1.823
102.1394 1.406
102.1697 1.510
102.2000 1.979
102.2302 2.135
102.2605 1.771
102.2908 2.083
102.3211 2.083
102.3514 2.083
102.3816 1.771
102.4119 2.083
102.4422 1.615
102.4725 2.500
102.5028 2.344
102.5330 2.292
102.5633 2.187
102.5936 2.812
102.6239 2.083
102.6541 2.031
102.6844 1.510
102.7147 2.500
102.7450 2.344
102.7753 2.448
102.8055 1.927
102.8358 1.927
102.8661 2.708
102.8964 1.875
102.9267 2.500
102.9569 2.448
102.9872 1.354
103.0175 2.240
103.0478 2.240
103.0780 3.021
103.1083 3.229
103.1386 3.437
103.1689 2.552
103.1992 2.135
103.2294 1.823
103.2597 2.917
103.2900 1.927
103.3203 1.875
103.3506 1.979
103.3808 2.552
103.4111 2.292
103.4414 2.448
103.4717 2.292
103.5019 2.292
103.5322 2.240
103.5625 2.500
103.5928 2.917
103.6231 2.656
103.6533 3.385
103.6836 2.240
103.7139 2.240
103.7442 2.500
103.7745 2.344
103.8047 2.552
103.8350 2.396
103.8653 3.437
103.8956 2.656
103.9258 3.073
103.9561 2.969
103.9864 2.917
104.0167 3.698
104.0470 2.344
104.0772 3.021
104.1075 3.594
104.1378 3.125
104.1681 3.229
104.1984 3.021
104.2286 2.604
104.2589 2.760
104.2892 2.656
104.3195 2.812
104.3497 1.823
104.3800 3.437
104.4103 3.177
104.4406 3.281
104.4709 2.917
104.5011 2.812
104.5314 2.500
104.5617 2.604
104.5920 2.552
104.6223 1.823
104.6525 2.500
104.6828 2.708
104.7131 1.979
104.7434 2.969
104.7736 2.031
104.8039 1.562
104.8342 1.927
104.8645 2.031
104.8948 1.771
104.9250 1.615
104.9553 2.031
104.9856 1.250
105.0159 1.510
105.0462 1.875
105.0764 1.562
105.1067 2.031
105.1370 1.875
105.1673 1.042
105.1975 1.875
105.2278 1.667
105.2581 1.823
105.2884 1.875
105.3187 1.615
105.3489 1.615
105.3792 1.510
105.4095 1.823
105.4398 1.771
105.4701 1.562
105.5003 1.979
105.5306 1.719
105.5609 2.187
105.5912 1.667
105.6215 1.979
105.6517 1.875
105.6820 1.562
105.7123 1.406
105.7426 0.990
105.7728 1.615
105.8031 1.094
105.8334 0.990
105.8637 1.771
105.8940 1.406
105.9242 1.719
105.9545 1.250
105.9848 1.146
106.0151 1.458
106.0454 1.458
106.0756 1.510
106.1059 1.771
106.1362 2.031
106.1665 1.823
106.1967 1.406
106.2270 1.458
106.2573 1.510
106.2876 1.875
106.3179 1.927
106.3481 0.990
106.3784 1.719
106.4087 1.146
106.4390 1.510
106.4693 1.875
106.4995 1.458
106.5298 1.667
106.5601 1.458
106.5904 1.510
106.6206 1.823
106.6509 1.615
106.6812 1.510
106.7115 1.615
106.7418 1.094
106.7720 1.250
106.8023 1.302
106.8326 1.510
106.8629 1.042
106.8932 1.302
106.9234 1.562
106.9537 1.562
106.9840 2.187
107.0143 1.719
107.0445 2.083
107.0748 1.094
107.1051 1.562
107.1354 1.719
107.1657 1.458
107.1959 1.250
107.2262 1.354
107.2565 1.771
107.2868 2.135
107.3171 1.302
107.3473 1.562
107.3776 1.823
107.4079 1.667
107.4382 1.458
107.4684 1.823
107.4987 1.458
107.5290 1.562
107.5593 1.510
107.5896 1.823
107.6198 1.615
107.6501 1.198
107.6804 1.562
107.7107 1.823
107.7410 1.875
107.7712 1.615
107.8015 1.562
107.8318 1.615
107.8621 1.198
107.8923 1.719
107.9226 1.667
107.9529 1.823
107.9832 1.927
108.0135 1.198
108.0437 2.187
108.0740 1.927
108.1043 1.302
108.1346 1.406
108.1649 2.031
108.1951 1.510
108.2254 1.562
108.2557 1.927
108.2860 1.458
108.3163 1.719
108.3465 1.198
108.3768 1.042
108.4071 1.510
108.4374 1.198
108.4676 1.094
108.4979 1.510
108.5282 1.875
108.5585 1.302
108.5888 1.406
108.6190 1.562
108.6493 1.198
108.6796 1.250
108.7099 1.510
108.7402 1.354
108.7704 1.615
108.8007 1.250
108.8310 1.406
108.8613 1.667
108.8915 1.250
108.9218 1.094
108.9521 1.615
108.9824 1.719
109.0127 1.510
109.0429 1.458
109.0732 1.510
109.1035 1.562
109.1338 1.198
109.1641 1.771
109.1943 1.562
109.2246 1.875
109.2549 1.615
109.2852 1.667
109.3154 1.771
109.3457 1.354
109.3760 1.406
109.4063 1.510
109.4366 1.406
109.4668 1.875
109.4971 1.562
109.5274 2.344
109.5577 1.719
109.5880 1.354
109.6182 1.875
109.6485 2.500
109.6788 1.719
109.7091 1.823
109.7393 1.562
109.7696 1.979
109.7999 1.979
109.8302 1.667
109.8605 1.562
109.8907 1.979
109.9210 2.396
109.9513 1.823
109.9816 1.979
110.0119 2.031
110.0421 1.719
110.0724 2.083
110.1027 2.083
110.1330 2.865
110.1632 1.562
110.1935 2.135
110.2238 2.969
110.2541 1.615
110.2844 2.240
110.3146 2.240
110.3449 1.615
110.3752 2.240
110.4055 2.552
110.4358 2.344
110.4660 2.865
110.4963 2.240
110.5266 1.719
110.5569 1.615
110.5871 1.562
110.6174 2.187
110.6477 2.448
110.6780 2.396
110.7083 1.615
110.7385 1.927
110.7688 2.240
110.7991 2.500
110.8294 1.771
110.8597 1.927
110.8899 1.719
110.9202 1.875
110.9505 1.979
110.9808 1.875
111.0110 1.823
111.0413 1.146
111.0716 1.875
111.1019 1.615
111.1322 1.823
111.1624 1.979
111.1927 2.500
111.2230 2.083
111.2533 1.875
111.2836 1.667
111.3138 1.615
111.3441 2.292
111.3744 1.979
111.4047 1.615
111.4350 1.458
111.4652 1.458
111.4955 1.615
111.5258 1.562
111.5561 0.937
111.5863 1.823
111.6166 1.406
111.6469 1.615
111.6772 2.292
111.7075 1.771
111.7377 1.250
111.7680 1.771
111.7983 1.823
111.8286 1.354
111.8589 1.823
111.8891 1.875
111.9194 1.615
111.9497 1.562
111.9800 1.667
112.0102 1.562
112.0405 1.771
112.0708 1.458
112.1011 1.406
112.1314 1.146
112.1616 1.146
112.1919 2.135
112.2222 2.083
112.2525 1.927
112.2828 1.562
112.3130 1.302
112.3433 1.615
112.3736 1.667
112.4039 1.094
112.4341 1.198
112.4644 1.562
112.4947 1.510
112.5250 1.667
112.5553 2.083
112.5855 1.771
112.6158 1.146
112.6461 1.667
112.6764 1.719
112.7067 1.719
112.7369 1.458
112.7672 1.198
112.7975 1.667
112.8278 1.094
112.8580 1.198
112.8883 1.927
112.9186 1.510
112.9489 1.719
112.9792 1.771
113.0094 1.302
113.0397 1.823
113.0700 1.458
113.1003 2.396
113.1306 1.146
113.1608 1.510
113.1911 1.875
113.2214 1.406
113.2517 1.458
113.2819 1.979
113.3122 1.719
113.3425 1.667
113.3728 1.406
113.4031 1.667
113.4333 1.458
113.4636 1.667
113.4939 1.510
113.5242 1.042
113.5545 1.354
113.5847 1.302
113.6150 1.198
113.6453 1.771
113.6756 1.302
113.7058 1.354
113.7361 1.562
113.7664 1.771
113.7967 1.094
113.8270 1.406
113.8572 0.885
113.8875 1.667
113.9178 1.979
113.9481 1.927
113.9784 1.771
114.0086 1.198
114.0389 1.042
114.0692 1.719
114.0995 1.198
114.1298 1.094
114.1600 1.250
114.1903 1.719
114.2206 1.719
114.2509 1.510
114.2811 1.771
114.3114 1.406
114.3417 1.458
114.3720 1.510
114.4023 1.771
114.4325 1.719
114.4628 1.719
114.4931 1.354
114.5234 1.510
114.5537 0.937
114.5839 1.719
114.6142 1.667
114.6445 1.771
114.6748 1.771
114.7050 1.562
114.7353 2.031
114.7656 1.979
114.7959 1.719
114.8262 1.823
114.8564 2.187
114.8867 2.448
114.9170 1.823
114.9473 1.719
114.9776 1.406
115.0078 1.667
115.0381 1.458
115.0684 1.562
115.0987 2.083
115.1289 1.667
115.1592 2.031
115.1895 1.875
115.2198 1.875
115.2501 1.823
115.2803 2.344
115.3106 1.979
115.3409 1.719
115.3712 2.031
115.4015 2.292
115.4317 2.500
115.4620 1.719
115.4923 1.510
115.5226 2.240
115.5528 2.865
115.5831 2.812
115.6134 2.187
115.6437 2.292
115.6740 1.875
115.7042 2.187
115.7345 2.656
115.7648 2.500
115.7951 3.281
115.8254 2.083
115.8556 3.125
115.8859 3.125
115.9162 2.708
115.9465 2.500
115.9767 3.073
116.0070 3.125
116.0373 2.969
116.0676 3.437
116.0979 2.812
116.1281 2.865
116.1584 3.594
116.1887 3.177
116.2190 2.917
116.2493 3.125
116.2795 3.542
116.3098 3.021
116.3401 2.917
116.3704 3.229
116.4006 3.490
116.4309 3.281
116.4612 3.646
116.4915 2.760
116.5218 3.177
116.5520 2.760
116.5823 3.333
116.6126 3.073
116.6429 2.656
116.6732 3.281
116.7034 3.073
116.7337 2.969
116.7640 2.135
116.7943 2.865
116.8245 2.656
116.8548 2.135
116.8851 2.031
116.9154 2.396
116.9457 2.448
116.9759 2.760
117.0062 2.396
117.0365 2.500
117.0668 1.823
117.0971 1.979
117.1273 1.771
117.1576 1.562
117.1879 2.187
117.2182 2.396
117.2485 2.083
117.2787 2.135
117.3090 1.667
117.3393 1.562
117.3696 2.656
117.3998 1.719
117.4301 1.667
117.4604 1.927
117.4907 1.510
117.5210 1.927
117.5512 1.510
117.5815 2.031
117.6118 2.083
117.6421 1.615
117.6724 1.302
117.7026 1.719
117.7329 1.875
117.7632 1.562
117.7935 1.302
117.8237 2.135
117.8540 1.615
117.8843 1.302
117.9146 1.667
117.9449 1.250
117.9751 1.562
118.0054 1.667
118.0357 1.354
118.0660 1.302
118.0963 1.823
118.1265 2.083
118.1568 1.771
118.1871 1.823
118.2174 1.771
118.2476 1.354
118.2779 1.458
118.3082 1.406
118.3385 1.823
118.3688 2.083
118.3990 1.562
118.4293 1.510
118.4596 1.771
118.4899 1.615
118.5202 1.823
118.5504 1.510
118.5807 1.458
118.6110 1.615
118.6413 1.510
118.6715 1.458
118.7018 1.562
118.7321 1.510
118.7624 2.083
118.7927 1.823
118.8229 1.458
118.8532 1.927
118.8835 1.562
118.9138 1.302
118.9441 1.302
118.9743 1.927
119.0046 1.562
119.0349 1.198
119.0652 1.094
119.0954 1.458
119.1257 1.354
119.1560 1.198
119.1863 1.562
119.2166 1.458
119.2468 1.354
119.2771 1.615
119.3074 1.198
119.3377 1.562
119.3680 2.031
119.3982 2.240
119.4285 1.302
119.4588 1.354
119.4891 1.927
119.5193 1.615
119.5496 1.719
119.5799 1.562
119.6102 1.667
119.6405 1.354
119.6707 2.187
119.7010 1.354
119.7313 1.250
119.7616 1.354
119.7919 1.146
119.8221 1.354
119.8524 1.719
119.8827 1.406
119.9130 1.979
119.9433 1.302
119.9735 1.354
120.0038 2.135
