'Id: "" Comment: "" Operator: "Lab Manager" Anode: "Cu" Scantype: "Locked Coupled" TimePerStep: "19.2" X: "9999" Y: "9999" Z: "9999" 
10.0015 3.490
10.0318 4.479
10.0620 4.427
10.0923 3.854
10.1226 3.229
10.1529 3.646
10.1832 3.958
10.2134 5.052
10.2437 3.958
10.2740 3.281
10.3043 4.375
10.3346 3.542
10.3648 4.271
10.3951 5.156
10.4254 4.635
10.4557 4.167
10.4859 4.844
10.5162 4.271
10.5465 4.115
10.5768 3.802
10.6071 4.583
10.6373 4.583
10.6676 4.635
10.6979 4.062
10.7282 4.896
10.7585 5.312
10.7887 4.687
10.8190 5.208
10.8493 5.260
10.8796 5.885
10.9098 6.979
10.9401 6.823
10.9704 8.698
11.0007 10.104
11.0310 9.687
11.0612 9.219
11.0915 10.052
11.1218 8.750
11.1521 6.771
11.1824 7.083
11.2126 6.250
11.2429 4.479
11.2732 4.427
11.3035 5.000
11.3337 4.531
11.3640 5.104
11.3943 4.271
11.4246 5.365
11.4549 3.646
11.4851 4.167
11.5154 4.375
11.5457 4.896
11.5760 2.969
11.6063 4.844
11.6365 5.000
11.6668 3.698
11.6971 5.469
11.7274 4.427
11.7577 4.531
11.7879 4.062
11.8182 4.375
11.8485 2.448
11.8788 3.229
11.9090 3.906
11.9393 3.698
11.9696 4.427
11.9999 3.021
12.0302 3.854
12.0604 4.271
12.0907 2.760
12.1210 3.437
12.1513 2.969
12.1816 3.125
12.2118 4.427
12.2421 4.219
12.2724 3.698
12.3027 4.271
12.3329 4.531
12.3632 3.229
12.3935 3.125
12.4238 2.760
12.4541 4.479
12.4843 3.333
12.5146 3.073
12.5449 3.125
12.5752 2.969
12.6055 3.333
12.6357 3.073
12.6660 2.812
12.6963 3.229
12.7266 4.583
12.7568 3.177
12.7871 3.854
12.8174 3.646
12.8477 3.698
12.8780 3.073
12.9082 3.437
12.9385 3.021
12.9688 3.073
12.9991 3.437
13.0294 2.552
13.0596 3.646
13.0899 3.333
13.1202 3.333
13.1505 3.177
13.1807 3.125
13.2110 2.500
13.2413 3.958
13.2716 3.333
13.3019 2.865
13.3321 3.333
13.3624 2.969
13.3927 2.760
13.4230 3.854
13.4533 3.854
13.4835 3.281
13.5138 4.323
13.5441 2.969
13.5744 4.219
13.6046 3.281
13.6349 2.187
13.6652 2.969
13.6955 2.604
13.7258 3.021
13.7560 3.542
13.7863 3.437
13.8166 2.604
13.8469 3.490
13.8772 2.760
13.9074 2.708
13.9377 2.917
13.9680 2.917
13.9983 2.500
14.0285 3.229
14.0588 3.542
14.0891 2.969
14.1194 2.917
14.1497 2.083
14.1799 3.333
14.2102 3.021
14.2405 3.906
14.2708 4.010
14.3011 3.854
14.3313 2.917
14.3616 2.656
14.3919 3.333
14.4222 2.969
14.4524 2.917
14.4827 2.344
14.5130 3.906
14.5433 3.958
14.5736 3.594
14.6038 3.490
14.6341 3.542
14.6644 3.646
14.6947 3.385
14.7250 3.333
14.7552 3.750
14.7855 2.969
14.8158 2.760
14.8461 3.437
14.8764 3.385
14.9066 3.073
14.9369 1.771
14.9672 3.385
14.9975 2.656
15.0277 3.646
15.0580 3.698
15.0883 2.969
15.1186 3.542
15.1489 2.812
15.1791 2.708
15.2094 2.396
15.2397 2.656
15.2700 1.927
15.3003 3.750
15.3305 2.500
15.3608 3.698
15.3911 2.760
15.4214 3.333
15.4516 2.656
15.4819 2.708
15.5122 2.396
15.5425 3.698
15.5728 3.333
15.6030 3.021
15.6333 2.708
15.6636 2.760
15.6939 2.917
15.7242 3.125
15.7544 3.229
15.7847 3.125
15.8150 2.917
15.8453 3.802
15.8755 3.229
15.9058 2.865
15.9361 2.865
15.9664 2.500
15.9967 3.802
16.0269 3.750
16.0572 3.125
16.0875 2.969
16.1178 3.229
16.1481 2.865
16.1783 2.656
16.2086 3.698
16.2389 2.708
16.2692 2.396
16.2994 3.594
16.3297 2.292
16.3600 2.865
16.3903 2.656
16.4206 3.490
16.4508 2.969
16.4811 2.708
16.5114 3.333
16.5417 2.708
16.5720 2.708
16.6022 3.229
16.6325 3.281
16.6628 2.656
16.6931 2.552
16.7233 2.448
16.7536 2.500
16.7839 3.125
16.8142 3.229
16.8445 3.437
16.8747 4.010
16.9050 3.385
16.9353 3.698
16.9656 2.865
16.9959 3.177
17.0261 3.073
17.0564 2.865
17.0867 2.812
17.1170 3.073
17.1472 2.604
17.1775 4.010
17.2078 2.240
17.2381 2.396
17.2684 2.917
17.2986 2.031
17.3289 2.552
17.3592 3.021
17.3895 3.073
17.4198 2.448
17.4500 2.187
17.4803 2.865
17.5106 3.281
17.5409 3.125
17.5712 3.542
17.6014 3.073
17.6317 3.021
17.6620 3.490
17.6923 2.969
17.7225 2.708
17.7528 3.125
17.7831 2.396
17.8134 2.240
17.8437 3.802
17.8739 2.344
17.9042 4.219
17.9345 2.135
17.9648 2.812
17.9951 2.187
18.0253 3.177
18.0556 2.917
18.0859 2.344
18.1162 2.552
18.1464 2.969
18.1767 2.969
18.2070 2.552
18.2373 3.125
18.2676 3.594
18.2978 3.073
18.3281 3.385
18.3584 2.865
18.3887 2.083
18.4190 3.177
18.4492 3.281
18.4795 3.333
18.5098 3.750
18.5401 2.500
18.5703 3.229
18.6006 3.125
18.6309 2.344
18.6612 2.448
18.6915 3.281
18.7217 2.708
18.7520 2.344
18.7823 3.021
18.8126 3.177
18.8429 3.073
18.8731 2.604
18.9034 3.281
18.9337 2.656
18.9640 2.552
18.9942 2.969
19.0245 3.437
19.0548 3.698
19.0851 2.708
19.1154 3.021
19.1456 1.823
19.1759 2.448
19.2062 3.125
19.2365 3.021
19.2668 2.656
19.2970 1.979
19.3273 2.760
19.3576 2.656
19.3879 2.344
19.4181 2.240
19.4484 2.604
19.4787 2.656
19.5090 2.031
19.5393 3.125
19.5695 2.760
19.5998 3.229
19.6301 3.542
19.6604 3.229
19.6907 2.656
19.7209 2.969
19.7512 3.229
19.7815 2.448
19.8118 2.500
19.8420 3.177
19.8723 3.229
19.9026 3.125
19.9329 2.344
19.9632 2.500
19.9934 2.969
20.0237 2.656
20.0540 2.604
20.0843 2.812
20.1146 3.437
20.1448 2.656
20.1751 3.021
20.2054 2.448
20.2357 2.500
20.2659 2.708
20.2962 2.760
20.3265 3.281
20.3568 3.229
20.3871 2.604
20.4173 2.917
20.4476 3.281
20.4779 2.396
20.5082 2.812
20.5385 2.708
20.5687 2.604
20.5990 3.854
20.6293 2.240
20.6596 2.812
20.6899 2.656
20.7201 3.490
20.7504 3.021
20.7807 2.969
20.8110 3.229
20.8412 2.344
20.8715 2.500
20.9018 2.500
20.9321 2.552
20.9624 2.500
20.9926 3.125
21.0229 2.969
21.0532 3.490
21.0835 2.656
21.1138 3.073
21.1440 3.333
21.1743 2.604
21.2046 2.396
21.2349 3.281
21.2651 2.760
21.2954 2.031
21.3257 3.021
21.3560 2.396
21.3863 2.656
21.4165 3.229
21.4468 2.135
21.4771 2.865
21.5074 2.604
21.5377 2.812
21.5679 2.656
21.5982 3.542
21.6285 3.177
21.6588 2.865
21.6890 2.240
21.7193 2.187
21.7496 2.292
21.7799 1.979
21.8102 2.552
21.8404 2.865
21.8707 2.344
21.9010 2.812
21.9313 2.865
21.9616 2.812
21.9918 2.396
22.0221 2.240
22.0524 3.073
22.0827 2.344
22.1129 3.073
22.1432 2.656
22.1735 2.604
22.2038 3.021
22.2341 3.021
22.2643 3.073
22.2946 2.865
22.3249 2.031
22.3552 2.187
22.3855 2.604
22.4157 2.448
22.4460 2.656
22.4763 2.865
22.5066 2.240
22.5368 3.385
22.5671 2.448
22.5974 3.125
22.6277 2.187
22.6580 2.500
22.6882 2.344
22.7185 2.344
22.7488 2.240
22.7791 2.969
22.8094 3.281
22.8396 2.656
22.8699 2.396
22.9002 2.760
22.9305 2.344
22.9607 3.490
22.9910 2.604
23.0213 2.500
23.0516 2.396
23.0819 2.604
23.1121 3.229
23.1424 2.500
23.1727 2.812
23.2030 2.448
23.2333 3.281
23.2635 2.083
23.2938 3.854
23.3241 3.229
23.3544 2.292
23.3846 3.125
23.4149 2.187
23.4452 2.344
23.4755 2.917
23.5058 2.760
23.5360 2.240
23.5663 3.281
23.5966 2.604
23.6269 3.125
23.6572 2.552
23.6874 2.812
23.7177 2.344
23.7480 2.240
23.7783 2.396
23.8086 2.552
23.8388 2.812
23.8691 2.031
23.8994 3.125
23.9297 2.969
23.9599 2.292
23.9902 2.760
24.0205 2.865
24.0508 2.708
24.0811 3.021
24.1113 2.135
24.1416 3.073
24.1719 2.187
24.2022 2.917
24.2325 2.917
24.2627 2.969
24.2930 2.552
24.3233 3.333
24.3536 2.448
24.3838 2.656
24.4141 2.396
24.4444 2.500
24.4747 3.229
24.5050 2.812
24.5352 2.083
24.5655 2.760
24.5958 2.344
24.6261 3.333
24.6564 3.229
24.6866 2.656
24.7169 2.396
24.7472 2.031
24.7775 2.656
24.8077 2.135
24.8380 2.552
24.8683 3.229
24.8986 2.344
24.9289 2.917
24.9591 2.760
24.9894 2.708
25.0197 2.448
25.0500 2.604
25.0803 2.708
25.1105 2.604
25.1408 2.187
25.1711 2.865
25.2014 2.240
25.2316 2.917
25.2619 2.448
25.2922 2.812
25.3225 2.500
25.3528 2.031
25.3830 3.021
25.4133 3.281
25.4436 2.969
25.4739 2.969
25.5042 2.396
25.5344 2.604
25.5647 2.292
25.5950 2.865
25.6253 2.292
25.6555 1.927
25.6858 2.708
25.7161 3.177
25.7464 2.448
25.7767 2.969
25.8069 2.135
25.8372 2.396
25.8675 2.812
25.8978 2.396
25.9281 2.292
25.9583 2.083
25.9886 3.385
26.0189 2.812
26.0492 3.385
26.0794 3.281
26.1097 2.240
26.1400 2.812
26.1703 2.760
26.2006 2.656
26.2308 2.708
26.2611 2.656
26.2914 3.125
26.3217 2.760
26.3520 3.229
26.3822 3.542
26.4125 3.177
26.4428 2.500
26.4731 2.760
26.5034 2.448
26.5336 2.812
26.5639 2.396
26.5942 3.281
26.6245 3.854
26.6547 2.708
26.6850 2.760
26.7153 2.760
26.7456 2.552
26.7759 2.969
26.8061 3.333
26.8364 2.708
26.8667 2.812
26.8970 3.021
26.9273 2.135
26.9575 2.760
26.9878 3.542
27.0181 3.333
27.0484 2.448
27.0786 2.865
27.1089 2.344
27.1392 2.812
27.1695 3.177
27.1998 2.396
27.2300 3.177
27.2603 2.708
27.2906 2.500
27.3209 3.073
27.3512 2.812
27.3814 2.708
27.4117 3.177
27.4420 3.229
27.4723 3.854
27.5025 3.125
27.5328 3.229
27.5631 3.229
27.5934 2.917
27.6237 1.979
27.6539 3.229
27.6842 3.021
27.7145 2.448
27.7448 3.385
27.7751 3.125
27.8053 2.865
27.8356 2.969
27.8659 3.073
27.8962 2.917
27.9264 2.865
27.9567 3.958
27.9870 3.229
28.0173 3.906
28.0476 3.698
28.0778 2.500
28.1081 2.708
28.1384 3.229
28.1687 2.604
28.1990 3.073
28.2292 3.125
28.2595 4.167
28.2898 3.073
28.3201 3.542
28.3503 2.760
28.3806 3.594
28.4109 2.448
28.4412 3.229
28.4715 3.385
28.5017 2.969
28.5320 3.594
28.5623 3.021
28.5926 2.865
28.6229 2.812
28.6531 2.969
28.6834 3.698
28.7137 2.656
28.7440 3.750
28.7742 4.062
28.8045 3.177
28.8348 3.229
28.8651 3.021
28.8954 3.854
28.9256 3.229
28.9559 3.542
28.9862 2.865
29.0165 4.219
29.0468 3.542
29.0770 3.437
29.1073 3.333
29.1376 3.281
29.1679 3.490
29.1981 4.531
29.2284 3.854
29.2587 3.802
29.2890 3.542
29.3193 4.583
29.3495 3.177
29.3798 3.594
29.4101 3.802
29.4404 3.750
29.4707 3.177
29.5009 3.542
29.5312 3.281
29.5615 3.646
29.5918 4.271
29.6221 3.854
29.6523 3.594
29.6826 3.802
29.7129 3.750
29.7432 3.437
29.7734 3.542
29.8037 3.073
29.8340 3.958
29.8643 3.698
29.8946 4.792
29.9248 4.427
29.9551 4.323
29.9854 4.531
30.0157 3.229
30.0460 4.531
30.0762 4.323
30.1065 4.948
30.1368 3.906
30.1671 4.323
30.1973 4.948
30.2276 4.583
30.2579 5.312
30.2882 4.844
30.3185 5.312
30.3487 5.104
30.3790 5.781
30.4093 5.521
30.4396 5.573
30.4699 4.687
30.5001 5.729
30.5304 5.677
30.5607 5.521
30.5910 6.302
30.6212 5.417
30.6515 6.250
30.6818 5.990
30.7121 6.250
30.7424 7.552
30.7726 6.667
30.8029 6.406
30.8332 8.229
30.8635 7.708
30.8938 8.854
30.9240 9.271
30.9543 9.010
30.9846 8.750
31.0149 9.271
31.0451 8.802
31.0754 11.250
31.1057 11.719
31.1360 12.969
31.1663 13.802
31.1965 14.479
31.2268 15.052
31.2571 16.458
31.2874 16.771
31.3177 19.375
31.3479 23.021
31.3782 24.271
31.4085 25.625
31.4388 28.646
31.4690 30.417
31.4993 34.323
31.5296 38.125
31.5599 42.917
31.5902 42.812
31.6204 45.521
31.6507 44.115
31.6810 44.427
31.7113 44.635
31.7416 39.687
31.7718 36.823
31.8021 34.687
31.8324 29.896
31.8627 26.875
31.8929 26.927
31.9232 23.385
31.9535 19.219
31.9838 19.844
32.0141 16.406
32.0443 15.833
32.0746 14.427
32.1049 12.500
32.1352 12.187
32.1655 10.729
32.1957 8.750
32.2260 9.896
32.2563 9.219
32.2866 8.542
32.3169 7.812
32.3471 8.125
32.3774 8.490
32.4077 7.396
32.4380 7.812
32.4682 7.187
32.4985 8.177
32.5288 6.458
32.5591 7.031
32.5894 6.094
32.6196 6.615
32.6499 6.823
32.6802 6.406
32.7105 6.094
32.7408 6.406
32.7710 7.031
32.8013 6.146
32.8316 6.562
32.8619 5.937
32.8921 5.833
32.9224 6.094
32.9527 6.302
32.9830 6.354
33.0133 5.573
33.0435 4.792
33.0738 5.521
33.1041 5.573
33.1344 5.833
33.1647 5.000
33.1949 4.583
33.2252 5.573
33.2555 7.604
33.2858 6.354
33.3160 6.458
33.3463 5.781
33.3766 5.573
33.4069 4.792
33.4372 6.354
33.4674 5.156
33.4977 5.312
33.5280 5.208
33.5583 5.937
33.5886 6.771
33.6188 6.458
33.6491 6.927
33.6794 6.406
33.7097 7.135
33.7399 8.750
33.7702 7.812
33.8005 8.542
33.8308 8.385
33.8611 9.115
33.8913 9.531
33.9216 11.458
33.9519 11.146
33.9822 11.823
34.0125 13.646
34.0427 16.823
34.0730 16.615
34.1033 19.219
34.1336 24.583
34.1638 26.302
34.1941 31.771
34.2244 42.187
34.2547 46.302
34.2850 53.437
34.3152 53.385
34.3455 51.667
34.3758 46.198
34.4061 40.729
34.4364 33.854
34.4666 27.500
34.4969 23.698
34.5272 18.437
34.5575 16.719
34.5877 14.375
34.6180 14.062
34.6483 12.031
34.6786 11.354
34.7089 10.990
34.7391 11.719
34.7694 9.115
34.7997 9.792
34.8300 9.167
34.8603 9.323
34.8905 7.604
34.9208 8.594
34.9511 9.167
34.9814 8.229
35.0116 8.385
35.0419 8.229
35.0722 9.062
35.1025 7.604
35.1328 9.844
35.1630 9.167
35.1933 9.219
35.2236 9.323
35.2539 9.479
35.2842 9.740
35.3144 10.000
35.3447 8.125
35.3750 10.365
35.4053 11.094
35.4356 12.865
35.4658 12.344
35.4961 11.875
35.5264 13.021
35.5567 14.062
35.5869 16.146
35.6172 16.458
35.6475 16.354
35.6778 18.698
35.7081 20.104
35.7383 22.135
35.7686 23.958
35.7989 25.104
35.8292 26.719
35.8595 32.083
35.8897 36.979
35.9200 38.125
35.9503 43.906
35.9806 46.562
36.0108 50.573
36.0411 58.958
36.0714 62.708
36.1017 60.677
36.1320 61.667
36.1622 62.760
36.1925 61.667
36.2228 58.542
36.2531 53.281
36.2834 49.323
36.3136 45.104
36.3439 40.417
36.3742 38.385
36.4045 31.615
36.4347 30.000
36.4650 24.531
36.4953 23.333
36.5256 21.667
36.5559 17.917
36.5861 17.760
36.6164 15.417
36.6467 13.229
36.6770 13.490
36.7073 12.604
36.7375 11.823
36.7678 11.458
36.7981 10.052
36.8284 8.906
36.8586 9.271
36.8889 9.948
36.9192 8.125
36.9495 8.958
36.9798 7.760
37.0100 6.823
37.0403 6.875
37.0706 7.240
37.1009 7.031
37.1312 6.250
37.1614 6.562
37.1917 5.156
37.2220 5.573
37.2523 5.208
37.2825 4.792
37.3128 5.573
37.3431 4.219
37.3734 5.104
37.4037 5.260
37.4339 4.948
37.4642 4.948
37.4945 4.583
37.5248 5.677
37.5551 4.948
37.5853 3.750
37.6156 5.000
37.6459 5.000
37.6762 4.844
37.7064 4.948
37.7367 4.167
37.7670 3.958
37.7973 3.854
37.8276 3.073
37.8578 3.854
37.8881 3.906
37.9184 2.812
37.9487 3.906
37.9790 3.437
38.0092 3.698
38.0395 4.323
38.0698 3.385
38.1001 3.490
38.1304 3.385
38.1606 3.906
38.1909 3.854
38.2212 3.437
38.2515 2.500
38.2817 3.229
38.3120 2.812
38.3423 3.542
38.3726 2.865
38.4029 3.281
38.4331 2.917
38.4634 2.708
38.4937 3.437
38.5240 3.750
38.5543 3.646
38.5845 3.073
38.6148 2.708
38.6451 3.125
38.6754 3.333
38.7056 3.333
38.7359 3.073
38.7662 3.125
38.7965 2.552
38.8268 3.073
38.8570 2.656
38.8873 2.760
38.9176 2.344
38.9479 2.865
38.9782 2.865
39.0084 2.812
39.0387 3.177
39.0690 2.708
39.0993 3.073
39.1295 2.865
39.1598 2.812
39.1901 2.760
39.2204 2.760
39.2507 3.021
39.2809 2.240
39.3112 2.656
39.3415 2.552
39.3718 2.760
39.4021 2.344
39.4323 2.396
39.4626 2.240
39.4929 2.240
39.5232 2.292
39.5534 2.708
39.5837 1.719
39.6140 3.542
39.6443 2.396
39.6746 2.344
39.7048 2.604
39.7351 2.083
39.7654 2.240
39.7957 2.760
39.8260 2.552
39.8562 2.448
39.8865 1.979
39.9168 2.656
39.9471 2.656
39.9773 2.240
40.0076 2.708
40.0379 2.292
40.0682 2.031
40.0985 1.979
40.1287 2.396
40.1590 1.719
40.1893 2.344
40.2196 2.344
40.2499 2.187
40.2801 2.031
40.3104 2.604
40.3407 2.135
40.3710 2.031
40.4012 2.552
40.4315 1.927
40.4618 1.979
40.4921 2.292
40.5224 2.500
40.5526 2.187
40.5829 2.031
40.6132 2.344
40.6435 1.979
40.6738 2.708
40.7040 1.927
40.7343 2.396
40.7646 2.240
40.7949 2.344
40.8251 2.396
40.8554 2.240
40.8857 2.552
40.9160 1.771
40.9463 2.604
40.9765 1.562
41.0068 2.552
41.0371 2.344
41.0674 1.354
41.0977 2.396
41.1279 1.927
41.1582 2.187
41.1885 1.979
41.2188 1.927
41.2491 2.240
41.2793 1.719
41.3096 2.292
41.3399 2.292
41.3702 1.979
41.4004 1.510
41.4307 2.344
41.4610 2.292
41.4913 2.500
41.5216 2.083
41.5518 2.240
41.5821 1.302
41.6124 2.344
41.6427 2.240
41.6730 1.615
41.7032 2.292
41.7335 2.031
41.7638 1.667
41.7941 1.875
41.8243 1.250
41.8546 2.812
41.8849 2.604
41.9152 1.875
41.9455 2.812
41.9757 2.448
42.0060 2.135
42.0363 2.083
42.0666 2.344
42.0969 2.135
42.1271 2.031
42.1574 1.771
42.1877 1.823
42.2180 2.240
42.2482 1.927
42.2785 2.083
42.3088 2.240
42.3391 1.875
42.3694 2.344
42.3996 2.240
42.4299 1.927
42.4602 1.927
42.4905 2.187
42.5208 1.771
42.5510 1.562
42.5813 2.135
42.6116 1.719
42.6419 2.760
42.6721 2.396
42.7024 1.771
42.7327 1.979
42.7630 1.354
42.7933 1.979
42.8235 2.240
42.8538 2.135
42.8841 1.771
42.9144 1.979
42.9447 2.292
42.9749 1.927
43.0052 2.552
43.0355 1.979
43.0658 2.240
43.0960 1.771
43.1263 1.823
43.1566 2.552
43.1869 1.979
43.2172 1.927
43.2474 1.823
43.2777 1.927
43.3080 2.135
43.3383 2.031
43.3686 2.708
43.3988 2.396
43.4291 2.344
43.4594 1.875
43.4897 2.292
43.5199 1.667
43.5502 2.135
43.5805 2.604
43.6108 2.344
43.6411 2.135
43.6713 2.031
43.7016 1.927
43.7319 1.719
43.7622 2.240
43.7925 1.875
43.8227 1.875
43.8530 1.875
43.8833 2.448
43.9136 2.448
43.9439 2.135
43.9741 2.083
44.0044 2.760
44.0347 1.823
44.0650 2.083
44.0952 2.448
44.1255 1.875
44.1558 2.135
44.1861 1.562
44.2164 2.292
44.2466 2.656
44.2769 1.875
44.3072 1.823
44.3375 1.875
44.3678 2.604
44.3980 1.875
44.4283 1.823
44.4586 2.292
44.4889 2.604
44.5191 2.083
44.5494 1.771
44.5797 2.292
44.6100 1.979
44.6403 2.292
44.6705 2.135
44.7008 1.979
44.7311 2.760
44.7614 2.031
44.7917 1.927
44.8219 1.615
44.8522 1.823
44.8825 1.667
44.9128 1.771
44.9430 2.552
44.9733 2.344
45.0036 2.240
45.0339 2.604
45.0642 2.396
45.0944 2.083
45.1247 2.187
45.1550 2.448
45.1853 2.083
45.2156 1.615
45.2458 2.292
45.2761 2.135
45.3064 2.552
45.3367 2.135
45.3669 2.448
45.3972 2.083
45.4275 2.083
45.4578 2.344
45.4881 2.031
45.5183 2.031
45.5486 2.187
45.5789 1.719
45.6092 2.240
45.6395 2.604
45.6697 2.292
45.7000 2.083
45.7303 1.823
45.7606 1.927
45.7908 2.656
45.8211 2.292
45.8514 2.396
45.8817 2.500
45.9120 1.823
45.9422 2.656
45.9725 2.656
46.0028 2.135
46.0331 2.552
46.0634 2.917
46.0936 2.292
46.1239 2.604
46.1542 3.073
46.1845 3.073
46.2147 3.125
46.2450 2.656
46.2753 2.969
46.3056 3.385
46.3359 2.552
46.3661 2.812
46.3964 3.021
46.4267 3.437
46.4570 3.021
46.4873 3.542
46.5175 2.396
46.5478 3.021
46.5781 2.344
46.6084 2.917
46.6386 2.396
46.6689 3.281
46.6992 3.646
46.7295 3.385
46.7598 4.062
46.7900 3.802
46.8203 3.958
46.8506 4.219
46.8809 3.906
46.9112 4.635
46.9414 5.469
46.9717 3.854
47.0020 5.990
47.0323 4.635
47.0626 6.458
47.0928 5.990
47.1231 8.125
47.1534 8.021
47.1837 8.333
47.2139 9.427
47.2442 10.625
47.2745 12.031
47.3048 12.500
47.3351 12.500
47.3653 13.333
47.3956 13.177
47.4259 13.073
47.4562 12.708
47.4865 12.708
47.5167 13.125
47.5470 13.906
47.5773 11.927
47.6076 11.823
47.6378 10.052
47.6681 10.625
47.6984 8.854
47.7287 7.083
47.7590 6.250
47.7892 5.521
47.8195 6.094
47.8498 5.156
47.8801 5.260
47.9104 4.687
47.9406 5.208
47.9709 4.948
48.0012 4.167
48.0315 3.698
48.0617 3.750
48.0920 3.906
48.1223 4.010
48.1526 2.708
48.1829 3.385
48.2131 2.604
48.2434 2.604
48.2737 2.552
48.3040 2.760
48.3343 2.292
48.3645 2.083
48.3948 2.604
48.4251 1.927
48.4554 2.760
48.4856 2.708
48.5159 3.073
48.5462 2.448
48.5765 2.656
48.6068 3.125
48.6370 1.979
48.6673 2.083
48.6976 2.344
48.7279 2.135
48.7582 2.656
48.7884 2.083
48.8187 1.979
48.8490 1.927
48.8793 1.719
48.9095 2.083
48.9398 2.969
48.9701 1.875
49.0004 1.979
49.0307 2.552
49.0609 1.979
49.0912 1.771
49.1215 2.187
49.1518 1.771
49.1821 2.396
49.2123 2.240
49.2426 1.927
49.2729 2.135
49.3032 2.135
49.3334 2.083
49.3637 2.031
49.3940 2.135
49.4243 1.979
49.4546 1.719
49.4848 2.292
49.5151 1.823
49.5454 2.083
49.5757 2.187
49.6060 1.406
49.6362 1.979
49.6665 2.760
49.6968 1.667
49.7271 2.083
49.7574 2.292
49.7876 1.823
49.8179 2.187
49.8482 1.823
49.8785 2.031
49.9087 1.354
49.9390 1.719
49.9693 2.187
49.9996 1.927
50.0299 1.250
50.0601 2.135
50.0904 1.823
50.1207 1.979
50.1510 1.979
50.1813 2.083
50.2115 2.031
50.2418 2.135
50.2721 2.240
50.3024 2.552
50.3326 1.875
50.3629 2.917
50.3932 2.083
50.4235 2.083
50.4538 2.135
50.4840 1.615
50.5143 1.979
50.5446 1.458
50.5749 2.083
50.6052 2.917
50.6354 2.500
50.6657 1.354
50.6960 1.667
50.7263 1.927
50.7565 1.406
50.7868 2.396
50.8171 2.604
50.8474 2.656
50.8777 1.771
50.9079 2.344
50.9382 2.500
50.9685 2.708
50.9988 2.135
51.0291 1.510
51.0593 2.344
51.0896 1.458
51.1199 2.344
51.1502 1.875
51.1804 1.979
51.2107 2.083
51.2410 1.615
51.2713 1.667
51.3016 2.083
51.3318 2.240
51.3621 2.031
51.3924 2.396
51.4227 2.396
51.4530 2.187
51.4832 1.615
51.5135 1.875
51.5438 1.979
51.5741 1.823
51.6043 1.771
51.6346 2.031
51.6649 1.458
51.6952 1.927
51.7255 1.927
51.7557 2.135
51.7860 2.031
51.8163 1.562
51.8466 2.292
51.8769 1.458
51.9071 2.135
51.9374 2.031
51.9677 2.396
51.9980 1.927
52.0282 2.031
52.0585 1.927
52.0888 2.604
52.1191 1.667
52.1494 2.187
52.1796 1.667
52.2099 1.927
52.2402 2.187
52.2705 2.187
52.3008 2.135
52.3310 1.719
52.3613 1.875
52.3916 2.500
52.4219 1.823
52.4521 1.615
52.4824 2.240
52.5127 1.927
52.5430 2.396
52.5733 2.500
52.6035 2.031
52.6338 1.771
52.6641 1.615
52.6944 2.344
52.7247 2.031
52.7549 1.875
52.7852 1.510
52.8155 1.875
52.8458 1.719
52.8761 1.615
52.9063 1.719
52.9366 2.344
52.9669 2.448
52.9972 1.927
53.0274 2.448
53.0577 1.615
53.0880 1.979
53.1183 2.240
53.1486 2.969
53.1788 2.083
53.2091 1.667
53.2394 1.823
53.2697 2.865
53.3000 2.292
53.3302 1.615
53.3605 1.979
53.3908 1.406
53.4211 2.552
53.4513 2.552
53.4816 2.083
53.5119 2.083
53.5422 1.875
53.5725 1.979
53.6027 2.292
53.6330 2.500
53.6633 2.604
53.6936 2.500
53.7239 2.031
53.7541 2.396
53.7844 2.031
53.8147 2.135
53.8450 1.823
53.8752 2.344
53.9055 1.979
53.9358 1.562
53.9661 1.927
53.9964 2.031
54.0266 2.031
54.0569 1.823
54.0872 2.240
54.1175 1.458
54.1478 1.510
54.1780 2.604
54.2083 2.083
54.2386 2.083
54.2689 1.875
54.2991 2.135
54.3294 2.448
54.3597 2.187
54.3900 2.135
54.4203 2.396
54.4505 2.812
54.4808 2.500
54.5111 1.979
54.5414 2.240
54.5717 2.031
54.6019 2.292
54.6322 2.760
54.6625 2.604
54.6928 1.875
54.7230 3.177
54.7533 2.292
54.7836 2.448
54.8139 1.719
54.8442 3.125
54.8744 2.344
54.9047 3.177
54.9350 2.812
54.9653 2.292
54.9956 2.448
55.0258 2.240
55.0561 2.917
55.0864 3.021
55.1167 2.812
55.1469 2.656
55.1772 2.240
55.2075 2.604
55.2378 2.552
55.2681 2.865
55.2983 2.500
55.3286 2.917
55.3589 2.448
55.3892 3.177
55.4195 3.125
55.4497 2.865
55.4800 3.125
55.5103 3.333
55.5406 2.969
55.5709 3.073
55.6011 3.437
55.6314 3.958
55.6617 3.958
55.6920 3.594
55.7222 4.427
55.7525 4.167
55.7828 4.115
55.8131 5.000
55.8434 4.375
55.8736 4.948
55.9039 5.885
55.9342 5.781
55.9645 6.302
55.9948 7.083
56.0250 7.031
56.0553 5.885
56.0856 8.906
56.1159 7.344
56.1461 8.750
56.1764 9.062
56.2067 10.260
56.2370 9.844
56.2673 11.510
56.2975 12.187
56.3278 13.333
56.3581 14.323
56.3884 17.552
56.4187 17.708
56.4489 17.500
56.4792 17.187
56.5095 17.604
56.5398 17.187
56.5700 17.240
56.6003 16.094
56.6306 16.094
56.6609 13.854
56.6912 12.656
56.7214 11.719
56.7517 10.208
56.7820 10.156
56.8123 8.125
56.8426 8.021
56.8728 7.865
56.9031 6.875
56.9334 7.292
56.9637 5.885
56.9939 5.156
57.0242 5.885
57.0545 4.740
57.0848 5.000
57.1151 4.271
57.1453 4.427
57.1756 4.219
57.2059 4.792
57.2362 3.594
57.2665 3.437
57.2967 3.854
57.3270 3.802
57.3573 3.385
57.3876 3.958
57.4178 3.281
57.4481 3.281
57.4784 2.865
57.5087 2.917
57.5390 2.812
57.5692 2.604
57.5995 3.073
57.6298 3.490
57.6601 2.135
57.6904 3.437
57.7206 2.552
57.7509 2.240
57.7812 2.865
57.8115 2.812
57.8417 3.802
57.8720 2.396
57.9023 2.708
57.9326 2.604
57.9629 2.344
57.9931 2.656
58.0234 3.385
58.0537 2.448
58.0840 2.448
58.1143 2.500
58.1445 2.083
58.1748 2.240
58.2051 2.344
58.2354 2.187
58.2656 1.562
58.2959 2.240
58.3262 2.344
58.3565 1.875
58.3868 2.448
58.4170 1.979
58.4473 2.135
58.4776 2.344
58.5079 2.396
58.5382 2.865
58.5684 2.031
58.5987 2.187
58.6290 2.187
58.6593 2.396
58.6896 1.823
58.7198 1.875
58.7501 2.240
58.7804 1.823
58.8107 2.604
58.8409 2.031
58.8712 1.562
58.9015 2.240
58.9318 1.979
58.9621 2.552
58.9923 2.135
59.0226 1.823
59.0529 2.292
59.0832 2.344
59.1135 1.927
59.1437 2.708
59.1740 2.187
59.2043 1.875
59.2346 1.667
59.2648 2.240
59.2951 2.604
59.3254 1.562
59.3557 1.927
59.3860 1.979
59.4162 2.292
59.4465 1.823
59.4768 2.812
59.5071 2.292
59.5374 2.240
59.5676 2.083
59.5979 1.979
59.6282 1.979
59.6585 2.083
59.6887 2.135
59.7190 1.771
59.7493 1.927
59.7796 2.083
59.8099 2.135
59.8401 2.292
59.8704 2.344
59.9007 2.187
59.9310 2.135
59.9613 1.927
59.9915 2.292
60.0218 2.292
60.0521 2.187
60.0824 1.510
60.1126 2.240
60.1429 2.292
60.1732 1.979
60.2035 2.292
60.2338 2.187
60.2640 1.562
60.2943 2.552
60.3246 1.979
60.3549 2.135
60.3852 2.344
60.4154 2.344
60.4457 1.719
60.4760 2.187
60.5063 2.344
60.5365 2.396
60.5668 1.927
60.5971 2.187
60.6274 2.083
60.6577 2.135
60.6879 2.083
60.7182 2.292
60.7485 2.240
60.7788 2.292
60.8091 2.344
60.8393 2.083
60.8696 2.812
60.8999 1.823
60.9302 2.917
60.9604 2.083
60.9907 1.875
61.0210 2.812
61.0513 2.552
61.0816 2.708
61.1118 2.240
61.1421 2.344
61.1724 2.604
61.2027 2.187
61.2330 2.656
61.2632 2.500
61.2935 2.135
61.3238 2.552
61.3541 2.604
61.3844 2.135
61.4146 2.083
61.4449 2.500
61.4752 2.500
61.5055 2.760
61.5357 2.865
61.5660 2.292
61.5963 1.667
61.6266 2.396
61.6569 2.292
61.6871 2.760
61.7174 3.229
61.7477 3.125
61.7780 3.021
61.8083 3.385
61.8385 2.812
61.8688 2.969
61.8991 3.333
61.9294 3.177
61.9596 3.646
61.9899 4.062
62.0202 3.177
62.0505 3.490
62.0808 3.229
62.1110 4.167
62.1413 4.010
62.1716 3.802
62.2019 5.312
62.2322 5.000
62.2624 6.094
62.2927 4.427
62.3230 6.042
62.3533 6.354
62.3835 6.875
62.4138 8.125
62.4441 9.219
62.4744 7.240
62.5047 9.167
62.5349 10.521
62.5652 10.312
62.5955 11.094
62.6258 12.969
62.6561 13.437
62.6863 14.531
62.7166 13.958
62.7469 13.542
62.7772 14.010
62.8074 14.479
62.8377 14.531
62.8680 12.812
62.8983 11.823
62.9286 12.344
62.9588 11.354
62.9891 11.042
63.0194 9.844
63.0497 9.896
63.0800 8.542
63.1102 7.812
63.1405 5.781
63.1708 6.979
63.2011 5.937
63.2313 5.573
63.2616 4.948
63.2919 5.208
63.3222 4.219
63.3525 4.323
63.3827 4.219
63.4130 4.323
63.4433 3.958
63.4736 3.437
63.5039 3.646
63.5341 3.229
63.5644 2.552
63.5947 3.594
63.6250 3.229
63.6552 3.177
63.6855 2.760
63.7158 2.656
63.7461 2.708
63.7764 2.552
63.8066 2.812
63.8369 1.719
63.8672 3.177
63.8975 2.135
63.9278 2.604
63.9580 2.708
63.9883 2.656
64.0186 2.552
64.0489 3.073
64.0791 2.656
64.1094 2.344
64.1397 1.875
64.1700 2.344
64.2003 2.760
64.2305 2.500
64.2608 2.500
64.2911 1.979
64.3214 2.344
64.3517 3.229
64.3819 2.396
64.4122 2.396
64.4425 2.083
64.4728 2.083
64.5031 2.917
64.5333 1.927
64.5636 2.448
64.5939 2.187
64.6242 2.187
64.6544 2.552
64.6847 2.031
64.7150 2.917
64.7453 2.135
64.7756 2.292
64.8058 1.927
64.8361 2.448
64.8664 2.292
64.8967 2.448
64.9270 2.187
64.9572 1.927
64.9875 2.344
65.0178 1.823
65.0481 1.875
65.0783 2.031
65.1086 2.552
65.1389 2.083
65.1692 2.448
65.1995 2.344
65.2297 2.708
65.2600 2.552
65.2903 2.448
65.3206 2.708
65.3509 2.344
65.3811 2.604
65.4114 2.656
65.4417 2.500
65.4720 2.500
65.5022 2.083
65.5325 2.187
65.5628 2.552
65.5931 2.448
65.6234 2.240
65.6536 1.979
65.6839 2.448
65.7142 2.448
65.7445 2.656
65.7748 2.656
65.8050 2.396
65.8353 2.604
65.8656 3.125
65.8959 2.917
65.9261 3.073
65.9564 3.437
65.9867 3.073
66.0170 3.802
66.0473 3.021
66.0775 4.010
66.1078 4.010
66.1381 4.062
66.1684 3.490
66.1987 3.542
66.2289 3.646
66.2592 4.062
66.2895 4.062
66.3198 3.594
66.3500 4.687
66.3803 3.385
66.4106 4.531
66.4409 3.906
66.4712 2.865
66.5014 3.542
66.5317 3.490
66.5620 3.333
66.5923 3.750
66.6226 3.490
66.6528 3.594
66.6831 3.073
66.7134 4.010
66.7437 3.802
66.7739 3.906
66.8042 3.125
66.8345 3.021
66.8648 2.917
66.8951 3.437
66.9253 4.010
66.9556 3.385
66.9859 3.594
67.0162 2.917
67.0465 3.229
67.0767 3.542
67.1070 4.062
67.1373 3.958
67.1676 4.010
67.1978 4.479
67.2281 4.219
67.2584 4.219
67.2887 4.427
67.3190 4.948
67.3492 5.260
67.3795 5.469
67.4098 5.833
67.4401 6.354
67.4704 6.198
67.5006 6.562
67.5309 6.875
67.5612 7.396
67.5915 8.281
67.6218 8.073
67.6520 8.125
67.6823 10.521
67.7126 10.260
67.7429 9.479
67.7731 9.948
67.8034 11.510
67.8337 11.094
67.8640 11.250
67.8943 10.833
67.9245 9.896
67.9548 10.833
67.9851 12.448
68.0154 9.427
68.0457 9.167
68.0759 8.750
68.1062 8.490
68.1365 7.031
68.1668 8.073
68.1970 6.458
68.2273 6.458
68.2576 6.354
68.2879 5.990
68.3182 6.510
68.3484 6.250
68.3787 5.885
68.4090 5.312
68.4393 4.948
68.4696 5.781
68.4998 5.104
68.5301 6.302
68.5604 5.000
68.5907 5.052
68.6209 4.948
68.6512 5.365
68.6815 5.469
68.7118 6.823
68.7421 5.156
68.7723 5.469
68.8026 6.198
68.8329 5.052
68.8632 5.937
68.8935 7.187
68.9237 6.615
68.9540 6.250
68.9843 5.677
69.0146 6.875
69.0448 5.885
69.0751 5.312
69.1054 6.562
69.1357 5.625
69.1660 5.521
69.1962 5.156
69.2265 4.896
69.2568 4.219
69.2871 4.896
69.3174 3.854
69.3476 3.333
69.3779 4.219
69.4082 3.229
69.4385 2.969
69.4687 3.698
69.4990 3.229
69.5293 3.073
69.5596 3.490
69.5899 2.969
69.6201 2.812
69.6504 3.333
69.6807 2.187
69.7110 2.500
69.7413 2.604
69.7715 1.771
69.8018 2.760
69.8321 2.604
69.8624 2.240
69.8926 1.875
69.9229 1.875
69.9532 1.823
69.9835 2.448
70.0138 2.500
70.0440 1.719
70.0743 2.292
70.1046 1.667
70.1349 1.823
70.1652 2.448
70.1954 1.927
70.2257 2.031
70.2560 2.031
70.2863 2.031
70.3166 2.031
70.3468 1.615
70.3771 1.823
70.4074 1.875
70.4377 1.615
70.4679 1.250
70.4982 1.406
70.5285 2.292
70.5588 1.927
70.5891 1.979
70.6193 1.927
70.6496 1.823
70.6799 2.083
70.7102 1.927
70.7405 2.135
70.7707 1.719
70.8010 1.771
70.8313 2.135
70.8616 1.823
70.8918 1.875
70.9221 1.719
70.9524 1.667
70.9827 1.406
71.0130 1.562
71.0432 2.187
71.0735 1.615
71.1038 1.354
71.1341 1.302
71.1644 2.135
71.1946 1.615
71.2249 1.719
71.2552 1.667
71.2855 1.771
71.3157 1.458
71.3460 2.135
71.3763 1.615
71.4066 1.719
71.4369 1.927
71.4671 1.250
71.4974 1.458
71.5277 1.458
71.5580 1.667
71.5883 1.562
71.6185 1.771
71.6488 1.667
71.6791 1.927
71.7094 2.083
71.7396 1.771
71.7699 1.927
71.8002 1.771
71.8305 0.990
71.8608 2.396
71.8910 1.927
71.9213 1.458
71.9516 1.354
71.9819 2.135
72.0122 1.510
72.0424 2.240
72.0727 1.406
72.1030 1.406
72.1333 2.187
72.1635 1.615
72.1938 2.292
72.2241 1.354
72.2544 1.875
72.2847 2.240
72.3149 1.875
72.3452 2.448
72.3755 2.396
72.4058 2.500
72.4361 2.448
72.4663 2.292
72.4966 2.500
72.5269 2.917
72.5572 2.083
72.5874 2.344
72.6177 2.031
72.6480 2.240
72.6783 1.979
72.7086 1.927
72.7388 1.771
72.7691 1.771
72.7994 1.719
72.8297 1.354
72.8600 1.562
72.8902 1.927
72.9205 1.562
72.9508 1.615
72.9811 1.719
73.0113 1.719
73.0416 1.719
73.0719 2.031
73.1022 1.354
73.1325 1.042
73.1627 1.302
73.1930 1.771
73.2233 1.875
73.2536 1.302
73.2839 1.406
73.3141 1.250
73.3444 1.771
73.3747 1.354
73.4050 1.719
73.4353 1.354
73.4655 1.198
73.4958 1.042
73.5261 1.406
73.5564 1.510
73.5866 1.510
73.6169 1.302
73.6472 1.406
73.6775 1.198
73.7078 1.250
73.7380 0.990
73.7683 1.198
73.7986 1.354
73.8289 1.510
73.8592 1.250
73.8894 1.042
73.9197 1.250
73.9500 1.302
73.9803 1.771
74.0105 1.094
74.0408 1.510
74.0711 1.354
74.1014 1.719
74.1317 1.198
74.1619 1.510
74.1922 1.667
74.2225 1.667
74.2528 1.354
74.2831 1.562
74.3133 1.719
74.3436 1.562
74.3739 1.354
74.4042 1.719
74.4344 1.094
74.4647 1.406
74.4950 1.198
74.5253 1.927
74.5556 1.615
74.5858 1.302
74.6161 1.615
74.6464 1.719
74.6767 1.667
74.7070 1.302
74.7372 1.042
74.7675 0.833
74.7978 1.198
74.8281 1.198
74.8583 1.354
74.8886 1.354
74.9189 1.354
74.9492 1.510
74.9795 1.354
75.0097 2.187
75.0400 1.406
75.0703 0.885
75.1006 1.562
75.1309 1.406
75.1611 1.198
75.1914 1.615
75.2217 1.615
75.2520 1.667
75.2822 1.250
75.3125 1.198
75.3428 1.979
75.3731 1.094
75.4034 1.719
75.4336 1.562
75.4639 1.719
75.4942 1.667
75.5245 1.250
75.5548 1.302
75.5850 1.406
75.6153 1.250
75.6456 1.562
75.6759 1.406
75.7061 1.406
75.7364 1.510
75.7667 1.615
75.7970 1.354
75.8273 1.406
75.8575 1.927
75.8878 1.458
75.9181 1.406
75.9484 1.771
75.9787 1.458
76.0089 2.031
76.0392 1.198
76.0695 1.562
76.0998 1.719
76.1301 1.719
76.1603 1.823
76.1906 1.875
76.2209 1.823
76.2512 1.667
76.2814 1.719
76.3117 1.927
76.3420 1.667
76.3723 1.875
76.4026 1.406
76.4328 1.667
76.4631 1.667
76.4934 2.656
76.5237 1.562
76.5540 2.187
76.5842 1.719
76.6145 2.240
76.6448 1.823
76.6751 1.458
76.7053 2.031
76.7356 2.031
76.7659 2.500
76.7962 2.187
76.8265 2.292
76.8567 2.396
76.8870 2.240
76.9173 2.240
76.9476 2.292
76.9779 2.031
77.0081 2.135
77.0384 1.927
77.0687 2.031
77.0990 2.083
77.1292 2.187
77.1595 2.031
77.1898 1.771
77.2201 2.552
77.2504 1.823
77.2806 1.875
77.3109 1.667
77.3412 1.823
77.3715 2.500
77.4018 1.771
77.4320 2.031
77.4623 1.667
77.4926 1.823
77.5229 1.667
77.5531 1.406
77.5834 1.094
77.6137 1.094
77.6440 1.667
77.6743 1.146
77.7045 1.875
77.7348 0.990
77.7651 1.094
77.7954 1.302
77.8257 1.406
77.8559 1.302
77.8862 1.510
77.9165 1.875
77.9468 1.458
77.9770 1.562
78.0073 1.667
78.0376 1.198
78.0679 1.198
78.0982 1.198
78.1284 1.458
78.1587 1.458
78.1890 1.823
78.2193 1.354
78.2496 1.354
78.2798 1.510
78.3101 1.354
78.3404 1.927
78.3707 1.042
78.4009 0.937
78.4312 1.615
78.4615 1.667
78.4918 1.250
78.5221 1.562
78.5523 1.562
78.5826 1.667
78.6129 0.833
78.6432 1.458
78.6735 1.198
78.7037 1.406
78.7340 1.198
78.7643 1.510
78.7946 1.198
78.8248 1.354
78.8551 0.990
78.8854 1.198
78.9157 0.885
78.9460 1.198
78.9762 1.875
79.0065 1.354
79.0368 1.562
79.0671 1.719
79.0974 2.135
79.1276 1.510
79.1579 0.729
79.1882 1.198
79.2185 1.354
79.2488 0.937
79.2790 1.302
79.3093 0.885
79.3396 1.302
79.3699 1.146
79.4001 1.458
79.4304 0.729
79.4607 1.510
79.4910 1.354
79.5213 1.562
79.5515 0.937
79.5818 1.302
79.6121 1.458
79.6424 1.198
79.6727 1.615
79.7029 1.250
79.7332 0.833
79.7635 1.354
79.7938 1.354
79.8240 1.562
79.8543 1.875
79.8846 1.406
79.9149 1.198
79.9452 1.198
79.9754 1.510
80.0057 1.615
80.0360 1.875
80.0663 1.146
80.0966 1.458
80.1268 1.406
80.1571 1.667
80.1874 1.198
80.2177 1.719
80.2479 0.990
80.2782 0.781
80.3085 1.458
80.3388 1.927
80.3691 1.510
80.3993 1.250
80.4296 1.406
80.4599 1.250
80.4902 1.198
80.5205 1.615
80.5507 1.927
80.5810 1.615
80.6113 1.198
80.6416 1.823
80.6718 1.406
80.7021 1.771
80.7324 1.667
80.7627 1.875
80.7930 1.042
80.8232 1.042
80.8535 1.354
80.8838 1.458
80.9141 1.667
80.9444 1.667
80.9746 1.354
81.0049 1.562
81.0352 2.135
81.0655 1.719
81.0957 1.458
81.1260 1.302
81.1563 1.458
81.1866 2.083
81.2169 2.135
81.2471 1.667
81.2774 2.083
81.3077 1.510
81.3380 2.187
81.3683 1.667
81.3985 2.031
81.4288 2.031
81.4591 1.771
81.4894 1.771
81.5196 1.719
81.5499 1.615
81.5802 1.302
81.6105 1.510
81.6408 1.198
81.6710 1.302
81.7013 1.667
81.7316 1.042
81.7619 1.406
81.7922 1.094
81.8224 1.406
81.8527 1.458
81.8830 1.458
81.9133 1.250
81.9436 1.562
81.9738 1.562
82.0041 1.042
82.0344 0.885
82.0647 0.937
82.0949 1.094
82.1252 1.354
82.1555 1.823
82.1858 1.458
82.2161 1.198
82.2463 1.198
82.2766 1.302
82.3069 1.198
82.3372 1.562
82.3675 1.198
82.3977 1.458
82.4280 1.354
82.4583 1.146
82.4886 0.885
82.5188 0.937
82.5491 1.094
82.5794 1.667
82.6097 0.885
82.6400 1.510
82.6702 1.406
82.7005 1.302
82.7308 1.302
82.7611 1.302
82.7914 1.250
82.8216 1.406
82.8519 1.146
82.8822 1.250
82.9125 1.406
82.9427 1.406
82.9730 0.937
83.0033 1.042
83.0336 1.250
83.0639 1.354
83.0941 0.990
83.1244 1.146
83.1547 0.990
83.1850 1.198
83.2153 2.031
83.2455 1.146
83.2758 1.042
83.3061 1.250
83.3364 1.354
83.3666 0.990
83.3969 0.677
83.4272 1.198
83.4575 1.146
83.4878 1.146
83.5180 1.250
83.5483 0.729
83.5786 1.250
83.6089 1.198
83.6392 1.042
83.6694 1.094
83.6997 1.250
83.7300 1.667
83.7603 1.562
83.7905 1.094
83.8208 1.562
83.8511 1.354
83.8814 1.146
83.9117 0.937
83.9419 1.198
83.9722 1.302
84.0025 1.198
84.0328 1.302
84.0631 0.990
84.0933 1.302
84.1236 1.354
84.1539 1.198
84.1842 1.198
84.2144 1.406
84.2447 1.250
84.2750 1.562
84.3053 1.667
84.3356 1.354
84.3658 1.458
84.3961 1.198
84.4264 1.198
84.4567 1.146
84.4870 1.458
84.5172 1.510
84.5475 1.094
84.5778 1.927
84.6081 1.302
84.6383 1.667
84.6686 0.729
84.6989 1.094
84.7292 0.990
84.7595 1.562
84.7897 1.146
84.8200 1.458
84.8503 1.562
84.8806 0.833
84.9109 0.990
84.9411 1.562
84.9714 0.937
85.0017 1.406
85.0320 1.771
85.0623 1.510
85.0925 1.406
85.1228 1.302
85.1531 1.667
85.1834 1.406
85.2136 0.833
85.2439 1.198
85.2742 0.677
85.3045 1.667
85.3348 1.198
85.3650 1.562
85.3953 1.354
85.4256 1.094
85.4559 1.198
85.4862 1.562
85.5164 1.042
85.5467 1.667
85.5770 1.042
85.6073 1.042
85.6375 1.458
85.6678 1.250
85.6981 1.562
85.7284 1.198
85.7587 1.302
85.7889 1.667
85.8192 1.198
85.8495 1.198
85.8798 1.406
85.9101 1.146
85.9403 1.667
85.9706 1.562
86.0009 1.094
86.0312 1.510
86.0614 1.510
86.0917 1.198
86.1220 1.562
86.1523 1.406
86.1826 1.458
86.2128 1.458
86.2431 0.885
86.2734 1.094
86.3037 1.198
86.3340 1.562
86.3642 1.198
86.3945 1.562
86.4248 1.250
86.4551 1.719
86.4853 1.510
86.5156 1.615
86.5459 0.990
86.5762 1.458
86.6065 1.406
86.6367 1.354
86.6670 1.146
86.6973 1.667
86.7276 1.250
86.7579 1.667
86.7881 1.510
86.8184 1.250
86.8487 1.458
86.8790 1.562
86.9092 0.937
86.9395 1.667
86.9698 1.406
87.0001 1.354
87.0304 0.885
87.0606 1.667
87.0909 1.250
87.1212 1.198
87.1515 1.250
87.1818 1.354
87.2120 1.198
87.2423 1.667
87.2726 1.094
87.3029 1.667
87.3331 1.094
87.3634 1.250
87.3937 1.667
87.4240 1.510
87.4543 1.667
87.4845 1.146
87.5148 1.354
87.5451 1.146
87.5754 1.094
87.6057 1.094
87.6359 1.615
87.6662 1.615
87.6965 1.302
87.7268 1.250
87.7571 1.250
87.7873 1.198
87.8176 1.510
87.8479 1.146
87.8782 1.615
87.9084 1.198
87.9387 0.990
87.9690 1.406
87.9993 1.406
88.0296 1.302
88.0598 1.406
88.0901 1.354
88.1204 1.771
88.1507 1.458
88.1810 1.667
88.2112 1.302
88.2415 1.250
88.2718 1.615
88.3021 1.562
88.3323 1.615
88.3626 1.354
88.3929 1.979
88.4232 1.562
88.4535 1.875
88.4837 1.823
88.5140 1.406
88.5443 1.354
88.5746 1.458
88.6049 1.875
88.6351 1.875
88.6654 1.458
88.6957 1.927
88.7260 1.667
88.7562 1.667
88.7865 1.667
88.8168 1.458
88.8471 2.135
88.8774 1.927
88.9076 1.667
88.9379 2.396
88.9682 2.135
88.9985 2.187
89.0288 1.823
89.0590 2.448
89.0893 2.552
89.1196 2.656
89.1499 2.292
89.1801 2.448
89.2104 2.865
89.2407 2.604
89.2710 2.656
89.3013 3.437
89.3315 2.396
89.3618 3.646
89.3921 3.490
89.4224 2.917
89.4527 3.490
89.4829 2.917
89.5132 3.906
89.5435 2.969
89.5738 3.542
89.6040 3.021
89.6343 2.760
89.6646 3.021
89.6949 3.333
89.7252 2.865
89.7554 2.812
89.7857 3.802
89.8160 2.656
89.8463 2.969
89.8766 2.448
89.9068 2.292
89.9371 3.021
89.9674 1.979
89.9977 2.708
90.0279 2.604
90.0582 2.552
90.0885 2.135
90.1188 1.667
90.1491 2.552
90.1793 2.135
90.2096 2.135
90.2399 1.979
90.2702 1.771
90.3005 2.083
90.3307 1.562
90.3610 1.823
90.3913 1.510
90.4216 1.875
90.4518 1.406
90.4821 1.667
90.5124 1.562
90.5427 1.927
90.5730 2.135
90.6032 1.823
90.6335 1.302
90.6638 1.458
90.6941 1.510
90.7244 0.937
90.7546 1.771
90.7849 1.615
90.8152 1.667
90.8455 1.823
90.8758 1.979
90.9060 1.510
90.9363 1.562
90.9666 1.094
90.9969 0.990
91.0271 1.667
91.0574 1.771
91.0877 1.042
91.1180 1.875
91.1483 1.562
91.1785 1.406
91.2088 1.823
91.2391 1.510
91.2694 1.042
91.2997 1.146
91.3299 1.771
91.3602 1.510
91.3905 0.625
91.4208 1.510
91.4510 1.667
91.4813 1.406
91.5116 1.406
91.5419 1.719
91.5722 1.510
91.6024 1.354
91.6327 1.875
91.6630 1.562
91.6933 1.562
91.7236 1.406
91.7538 1.146
91.7841 1.510
91.8144 1.458
91.8447 1.615
91.8749 1.302
91.9052 1.406
91.9355 1.615
91.9658 1.146
91.9961 2.187
92.0263 0.990
92.0566 1.406
92.0869 1.719
92.1172 1.458
92.1475 1.771
92.1777 1.562
92.2080 1.719
92.2383 1.562
92.2686 1.198
92.2988 1.719
92.3291 1.667
92.3594 1.562
92.3897 1.771
92.4200 1.458
92.4502 1.823
92.4805 2.292
92.5108 1.927
92.5411 2.083
92.5714 1.667
92.6016 1.719
92.6319 1.875
92.6622 1.406
92.6925 2.500
92.7227 2.187
92.7530 2.083
92.7833 2.135
92.8136 1.719
92.8439 1.875
92.8741 1.302
92.9044 1.562
92.9347 1.771
92.9650 2.031
92.9953 2.240
93.0255 2.083
93.0558 2.031
93.0861 1.719
93.1164 1.510
93.1466 1.875
93.1769 2.135
93.2072 1.250
93.2375 1.719
93.2678 1.667
93.2980 1.354
93.3283 1.354
93.3586 1.719
93.3889 1.198
93.4192 1.354
93.4494 1.198
93.4797 1.719
93.5100 1.823
93.5403 1.719
93.5706 1.667
93.6008 1.562
93.6311 1.198
93.6614 1.510
93.6917 1.042
93.7219 1.719
93.7522 1.562
93.7825 1.302
93.8128 1.719
93.8431 1.302
93.8733 1.562
93.9036 2.135
93.9339 2.240
93.9642 1.667
93.9945 2.031
94.0247 1.458
94.0550 1.510
94.0853 1.354
94.1156 2.083
94.1458 1.354
94.1761 1.354
94.2064 1.771
94.2367 1.510
94.2670 2.031
94.2972 1.510
94.3275 1.615
94.3578 2.448
94.3881 1.667
94.4184 1.927
94.4486 1.979
94.4789 1.927
94.5092 1.719
94.5395 1.823
94.5697 1.823
94.6000 1.979
94.6303 2.292
94.6606 1.927
94.6909 1.927
94.7211 2.917
94.7514 2.604
94.7817 2.031
94.8120 2.708
94.8423 2.500
94.8725 2.344
94.9028 3.125
94.9331 2.500
94.9634 3.698
94.9936 2.552
95.0239 3.281
95.0542 2.760
95.0845 3.125
95.1148 2.604
95.1450 2.552
95.1753 2.396
95.2056 2.708
95.2359 3.281
95.2662 3.490
95.2964 3.229
95.3267 3.229
95.3570 2.656
95.3873 3.594
95.4175 2.344
95.4478 3.229
95.4781 2.604
95.5084 2.552
95.5387 2.552
95.5689 2.240
95.5992 1.927
95.6295 2.656
95.6598 2.500
95.6901 2.031
95.7203 2.292
95.7506 2.344
95.7809 1.927
95.8112 2.500
95.8414 2.031
95.8717 2.240
95.9020 2.292
95.9323 1.823
95.9626 1.719
95.9928 2.240
96.0231 2.083
96.0534 2.240
96.0837 2.083
96.1140 1.875
96.1442 1.771
96.1745 1.406
96.2048 1.458
96.2351 1.562
96.2653 2.500
96.2956 1.458
96.3259 2.240
96.3562 1.354
96.3865 1.354
96.4167 1.771
96.4470 1.354
96.4773 1.615
96.5076 1.615
96.5379 1.458
96.5681 1.510
96.5984 1.615
96.6287 1.823
96.6590 1.250
96.6893 1.302
96.7195 1.458
96.7498 1.198
96.7801 1.771
96.8104 1.771
96.8406 1.198
96.8709 1.771
96.9012 2.031
96.9315 1.719
96.9618 1.458
96.9920 1.510
97.0223 1.198
97.0526 1.823
97.0829 1.250
97.1132 1.406
97.1434 1.354
97.1737 1.771
97.2040 1.458
97.2343 1.250
97.2645 2.031
97.2948 1.250
97.3251 1.510
97.3554 1.927
97.3857 1.771
97.4159 1.771
97.4462 1.250
97.4765 0.990
97.5068 1.250
97.5371 1.302
97.5673 1.250
97.5976 1.406
97.6279 1.094
97.6582 0.937
97.6884 1.562
97.7187 1.510
97.7490 1.458
97.7793 1.771
97.8096 1.771
97.8398 1.667
97.8701 1.667
97.9004 1.719
97.9307 2.292
97.9610 2.031
97.9912 1.406
98.0215 1.667
98.0518 1.875
98.0821 1.771
98.1123 1.562
98.1426 2.604
98.1729 1.719
98.2032 2.135
98.2335 2.031
98.2637 1.458
98.2940 2.656
98.3243 2.552
98.3546 2.187
98.3849 1.771
98.4151 2.552
98.4454 2.031
98.4757 2.292
98.5060 2.292
98.5362 2.187
98.5665 2.917
98.5968 1.823
98.6271 2.292
98.6574 1.979
98.6876 2.292
98.7179 2.604
98.7482 2.083
98.7785 1.667
98.8088 2.240
98.8390 2.135
98.8693 2.292
98.8996 1.771
98.9299 2.448
98.9601 1.510
98.9904 1.302
99.0207 2.083
99.0510 1.510
99.0813 1.927
99.1115 1.406
99.1418 1.562
99.1721 1.875
99.2024 1.927
99.2327 1.510
99.2629 1.823
99.2932 2.135
99.3235 1.562
99.3538 1.562
99.3841 1.458
99.4143 1.094
99.4446 1.823
99.4749 1.667
99.5052 1.562
99.5354 1.979
99.5657 1.250
99.5960 1.562
99.6263 1.250
99.6566 1.302
99.6868 1.719
99.7171 1.406
99.7474 1.406
99.7777 1.719
99.8080 1.146
99.8382 2.031
99.8685 1.302
99.8988 1.510
99.9291 1.667
99.9593 1.146
99.9896 1.250
100.0199 1.510
100.0502 1.458
100.0805 1.250
100.1107 1.458
100.1410 1.146
100.1713 1.302
100.2016 1.562
100.2319 1.719
100.2621 1.510
100.2924 1.719
100.3227 1.562
100.3530 1.354
100.3832 1.198
100.4135 1.406
100.4438 1.354
100.4741 0.833
100.5044 1.562
100.5346 1.250
100.5649 1.667
100.5952 1.979
100.6255 1.562
100.6558 1.562
100.6860 1.354
100.7163 1.302
100.7466 1.510
100.7769 1.719
100.8071 1.615
100.8374 1.146
100.8677 1.458
100.8980 1.510
100.9283 1.354
100.9585 1.302
100.9888 1.302
101.0191 1.354
101.0494 1.354
101.0797 1.354
101.1099 1.406
101.1402 1.562
101.1705 1.562
101.2008 1.198
101.2310 1.250
101.2613 1.510
101.2916 1.146
101.3219 1.771
101.3522 1.667
101.3824 1.979
101.4127 1.615
101.4430 1.615
101.4733 1.146
101.5036 1.562
101.5338 1.510
101.5641 2.031
101.5944 1.562
101.6247 1.719
101.6549 1.354
101.6852 1.354
101.7155 2.187
101.7458 1.354
101.7761 1.719
101.8063 1.406
101.8366 1.302
101.8669 1.302
101.8972 1.042
101.9275 1.875
101.9577 1.562
101.9880 1.094
102.0183 1.458
102.0486 1.719
102.0788 1.354
102.1091 2.083
102.1394 1.458
102.1697 1.198
102.2000 1.823
102.2302 1.771
102.2605 1.823
102.2908 1.250
102.3211 1.667
102.3514 1.979
102.3816 2.396
102.4119 1.562
102.4422 2.083
102.4725 2.187
102.5028 1.979
102.5330 1.719
102.5633 2.083
102.5936 1.510
102.6239 1.771
102.6541 2.031
102.6844 1.615
102.7147 1.719
102.7450 1.979
102.7753 2.760
102.8055 1.615
102.8358 1.875
102.8661 1.979
102.8964 2.604
102.9267 1.823
102.9569 1.979
102.9872 2.500
103.0175 2.292
103.0478 2.448
103.0780 1.823
103.1083 1.615
103.1386 2.135
103.1689 2.812
103.1992 2.083
103.2294 2.448
103.2597 1.979
103.2900 2.031
103.3203 2.344
103.3506 2.031
103.3808 2.344
103.4111 2.812
103.4414 2.708
103.4717 2.552
103.5019 1.771
103.5322 2.344
103.5625 1.927
103.5928 2.135
103.6231 2.187
103.6533 1.458
103.6836 2.917
103.7139 2.969
103.7442 2.448
103.7745 2.708
103.8047 2.604
103.8350 2.396
103.8653 2.969
103.8956 2.656
103.9258 2.760
103.9561 2.917
103.9864 1.667
104.0167 2.448
104.0470 3.229
104.0772 2.708
104.1075 3.021
104.1378 2.708
104.1681 2.656
104.1984 2.448
104.2286 2.344
104.2589 2.500
104.2892 2.500
104.3195 2.500
104.3497 2.344
104.3800 2.292
104.4103 2.240
104.4406 2.187
104.4709 2.969
104.5011 2.656
104.5314 1.927
104.5617 1.719
104.5920 2.344
104.6223 2.135
104.6525 1.979
104.6828 1.979
104.7131 1.823
104.7434 1.562
104.7736 1.979
104.8039 1.927
104.8342 1.458
104.8645 2.500
104.8948 1.458
104.9250 1.458
104.9553 1.875
104.9856 1.979
105.0159 1.771
105.0462 1.771
105.0764 1.771
105.1067 1.458
105.1370 1.406
105.1673 1.406
105.1975 1.615
105.2278 1.667
105.2581 1.615
105.2884 1.354
105.3187 1.771
105.3489 1.406
105.3792 0.937
105.4095 1.406
105.4398 1.771
105.4701 1.719
105.5003 1.302
105.5306 1.719
105.5609 0.833
105.5912 1.615
105.6215 1.406
105.6517 1.979
105.6820 1.406
105.7123 1.875
105.7426 1.562
105.7728 1.302
105.8031 1.823
105.8334 1.510
105.8637 1.719
105.8940 1.406
105.9242 1.510
105.9545 1.042
105.9848 1.510
106.0151 1.094
106.0454 1.198
106.0756 1.667
106.1059 1.406
106.1362 1.146
106.1665 1.562
106.1967 1.719
106.2270 1.198
106.2573 1.406
106.2876 1.146
106.3179 1.458
106.3481 1.458
106.3784 1.823
106.4087 0.990
106.4390 1.719
106.4693 1.562
106.4995 1.562
106.5298 1.615
106.5601 1.198
106.5904 1.615
106.6206 1.250
106.6509 1.458
106.6812 1.510
106.7115 1.302
106.7418 1.875
106.7720 1.458
106.8023 1.198
106.8326 1.302
106.8629 1.875
106.8932 1.719
106.9234 1.562
106.9537 1.719
106.9840 1.615
107.0143 1.198
107.0445 1.510
107.0748 1.719
107.1051 1.771
107.1354 1.510
107.1657 1.927
107.1959 1.302
107.2262 2.083
107.2565 1.146
107.2868 1.823
107.3171 1.719
107.3473 1.146
107.3776 1.562
107.4079 1.458
107.4382 1.094
107.4684 0.885
107.4987 2.031
107.5290 0.990
107.5593 1.302
107.5896 1.979
107.6198 1.719
107.6501 2.396
107.6804 1.042
107.7107 1.615
107.7410 2.031
107.7712 1.406
107.8015 1.667
107.8318 1.510
107.8621 0.885
107.8923 1.458
107.9226 1.510
107.9529 1.771
107.9832 1.354
108.0135 1.667
108.0437 1.250
108.0740 1.302
108.1043 0.625
108.1346 1.875
108.1649 1.302
108.1951 1.302
108.2254 2.083
108.2557 1.979
108.2860 1.458
108.3163 2.031
108.3465 1.250
108.3768 1.458
108.4071 1.354
108.4374 1.823
108.4676 1.250
108.4979 1.302
108.5282 1.094
108.5585 1.458
108.5888 1.510
108.6190 1.198
108.6493 1.250
108.6796 1.250
108.7099 1.302
108.7402 1.406
108.7704 1.146
108.8007 1.562
108.8310 1.458
108.8613 1.042
108.8915 1.354
108.9218 1.094
108.9521 1.927
108.9824 1.250
109.0127 1.302
109.0429 1.302
109.0732 0.937
109.1035 1.250
109.1338 2.031
109.1641 1.042
109.1943 1.562
109.2246 1.458
109.2549 1.510
109.2852 1.406
109.3154 0.937
109.3457 2.187
109.3760 1.042
109.4063 2.187
109.4366 0.937
109.4668 1.458
109.4971 1.458
109.5274 1.094
109.5577 2.187
109.5880 1.927
109.6182 1.667
109.6485 1.406
109.6788 1.406
109.7091 1.458
109.7393 1.562
109.7696 1.042
109.7999 1.458
109.8302 1.667
109.8605 2.083
109.8907 1.771
109.9210 1.562
109.9513 1.562
109.9816 1.198
110.0119 1.562
110.0421 1.875
110.0724 1.979
110.1027 1.875
110.1330 1.875
110.1632 2.187
110.1935 2.240
110.2238 1.823
110.2541 2.135
110.2844 2.135
110.3146 2.240
110.3449 1.927
110.3752 2.135
110.4055 1.719
110.4358 1.667
110.4660 1.354
110.4963 2.031
110.5266 1.927
110.5569 2.240
110.5871 2.500
110.6174 2.031
110.6477 2.083
110.6780 2.240
110.7083 1.667
110.7385 1.875
110.7688 1.875
110.7991 2.448
110.8294 1.875
110.8597 1.875
110.8899 1.615
110.9202 2.031
110.9505 1.823
110.9808 2.083
111.0110 1.667
111.0413 1.562
111.0716 1.667
111.1019 1.094
111.1322 1.615
111.1624 1.354
111.1927 1.510
111.2230 1.510
111.2533 1.458
111.2836 1.094
111.3138 1.458
111.3441 1.615
111.3744 1.094
111.4047 1.042
111.4350 1.667
111.4652 1.354
111.4955 1.771
111.5258 1.823
111.5561 1.771
111.5863 1.458
111.6166 1.615
111.6469 1.771
111.6772 1.146
111.7075 1.354
111.7377 0.937
111.7680 1.458
111.7983 1.562
111.8286 1.719
111.8589 1.458
111.8891 1.510
111.9194 1.302
111.9497 1.146
111.9800 1.510
112.0102 1.823
112.0405 1.250
112.0708 1.458
112.1011 1.042
112.1314 1.615
112.1616 1.979
112.1919 1.667
112.2222 1.823
112.2525 1.458
112.2828 1.510
112.3130 1.198
112.3433 1.875
112.3736 1.042
112.4039 1.562
112.4341 1.302
112.4644 1.354
112.4947 1.354
112.5250 1.302
112.5553 1.354
112.5855 1.094
112.6158 1.302
112.6461 0.937
112.6764 1.250
112.7067 1.719
112.7369 1.094
112.7672 1.719
112.7975 1.458
112.8278 1.979
112.8580 0.677
112.8883 1.510
112.9186 1.562
112.9489 1.354
112.9792 1.250
113.0094 1.875
113.0397 0.781
113.0700 1.562
113.1003 1.042
113.1306 0.937
113.1608 1.146
113.1911 1.094
113.2214 1.302
113.2517 1.719
113.2819 1.719
113.3122 1.302
113.3425 1.406
113.3728 1.667
113.4031 0.781
113.4333 1.562
113.4636 1.927
113.4939 0.990
113.5242 1.042
113.5545 1.198
113.5847 1.354
113.6150 1.510
113.6453 1.198
113.6756 1.250
113.7058 1.719
113.7361 1.198
113.7664 1.198
113.7967 1.406
113.8270 1.510
113.8572 1.719
113.8875 1.667
113.9178 1.823
113.9481 1.250
113.9784 1.250
114.0086 1.146
114.0389 1.354
114.0692 1.094
114.0995 1.302
114.1298 1.094
114.1600 1.458
114.1903 1.302
114.2206 1.562
114.2509 1.510
114.2811 1.198
114.3114 1.667
114.3417 1.823
114.3720 1.667
114.4023 1.198
114.4325 1.354
114.4628 1.042
114.4931 1.510
114.5234 1.302
114.5537 1.406
114.5839 1.458
114.6142 1.615
114.6445 1.354
114.6748 1.458
114.7050 1.458
114.7353 1.146
114.7656 1.979
114.7959 1.510
114.8262 1.927
114.8564 1.719
114.8867 1.562
114.9170 1.667
114.9473 1.823
114.9776 1.719
115.0078 2.083
115.0381 2.292
115.0684 1.302
115.0987 1.719
115.1289 1.875
115.1592 1.719
115.1895 1.354
115.2198 1.771
115.2501 1.667
115.2803 1.823
115.3106 1.562
115.3409 1.562
115.3712 1.823
115.4015 1.875
115.4317 1.458
115.4620 1.927
115.4923 2.031
115.5226 1.979
115.5528 1.979
115.5831 1.875
115.6134 2.031
115.6437 1.875
115.6740 2.656
115.7042 2.760
115.7345 2.969
115.7648 2.604
115.7951 2.448
115.8254 3.021
115.8556 2.292
115.8859 3.125
115.9162 2.865
115.9465 2.448
115.9767 3.125
116.0070 3.125
116.0373 2.448
116.0676 3.177
116.0979 3.125
116.1281 2.708
116.1584 3.490
116.1887 2.708
116.2190 2.708
116.2493 3.021
116.2795 2.187
116.3098 2.604
116.3401 2.708
116.3704 3.021
116.4006 2.917
116.4309 2.135
116.4612 2.708
116.4915 2.760
116.5218 2.344
116.5520 3.177
116.5823 2.917
116.6126 2.552
116.6429 2.812
116.6732 3.229
116.7034 2.344
116.7337 3.385
116.7640 2.240
116.7943 1.979
116.8245 2.240
116.8548 1.927
116.8851 2.500
116.9154 2.031
116.9457 2.240
116.9759 2.187
117.0062 2.969
117.0365 1.562
117.0668 2.396
117.0971 2.240
117.1273 1.615
117.1576 1.510
117.1879 2.031
117.2182 2.083
117.2485 1.979
117.2787 1.875
117.3090 1.875
117.3393 1.562
117.3696 1.719
117.3998 1.875
117.4301 1.510
117.4604 1.875
117.4907 1.354
117.5210 1.146
117.5512 1.615
117.5815 1.250
117.6118 2.031
117.6421 1.667
117.6724 1.979
117.7026 2.031
117.7329 1.562
117.7632 1.719
117.7935 1.771
117.8237 1.875
117.8540 1.979
117.8843 1.719
117.9146 1.406
117.9449 1.875
117.9751 1.250
118.0054 1.562
118.0357 1.094
118.0660 1.198
118.0963 1.458
118.1265 1.250
118.1568 1.927
118.1871 1.510
118.2174 1.615
118.2476 1.198
118.2779 1.458
118.3082 1.667
118.3385 1.771
118.3688 1.510
118.3990 1.615
118.4293 2.031
118.4596 0.885
118.4899 1.771
118.5202 1.615
118.5504 0.833
118.5807 1.146
118.6110 1.250
118.6413 1.302
118.6715 1.562
118.7018 1.615
118.7321 1.771
118.7624 1.823
118.7927 1.146
118.8229 1.927
118.8532 1.146
118.8835 0.990
118.9138 1.719
118.9441 1.146
118.9743 1.615
119.0046 1.458
119.0349 1.615
119.0652 1.510
119.0954 1.250
119.1257 1.458
119.1560 1.302
119.1863 1.562
119.2166 1.510
119.2468 1.667
119.2771 1.198
119.3074 1.198
119.3377 1.510
119.3680 2.083
119.3982 1.354
119.4285 1.198
119.4588 1.198
119.4891 1.146
119.5193 1.250
119.5496 1.719
119.5799 1.302
119.6102 1.667
119.6405 1.250
119.6707 1.562
119.7010 1.354
119.7313 1.667
119.7616 1.354
119.7919 1.406
119.8221 1.458
119.8524 2.135
119.8827 1.406
119.9130 1.771
119.9433 1.510
119.9735 1.302
120.0038 1.250
