'Id: "" Comment: "" Operator: "Lab Manager" Anode: "Cu" Scantype: "Locked Coupled" TimePerStep: "19.2" X: "9999" Y: "9999" Z: "9999" 
10.0015 4.427
10.0318 3.802
10.0620 3.646
10.0923 3.958
10.1226 3.958
10.1529 4.115
10.1832 3.750
10.2134 3.490
10.2437 3.333
10.2740 3.437
10.3043 4.219
10.3346 3.594
10.3648 3.229
10.3951 4.531
10.4254 3.542
10.4557 3.594
10.4859 3.385
10.5162 5.312
10.5465 3.437
10.5768 4.062
10.6071 3.333
10.6373 3.646
10.6676 4.219
10.6979 3.750
10.7282 4.844
10.7585 4.427
10.7887 5.312
10.8190 4.583
10.8493 5.104
10.8796 5.208
10.9098 5.104
10.9401 6.354
10.9704 7.500
11.0007 8.229
11.0310 9.271
11.0612 11.042
11.0915 9.948
11.1218 11.198
11.1521 10.573
11.1824 9.323
11.2126 8.177
11.2429 6.354
11.2732 5.260
11.3035 5.208
11.3337 4.687
11.3640 4.583
11.3943 3.906
11.4246 4.062
11.4549 4.323
11.4851 4.844
11.5154 4.427
11.5457 3.281
11.5760 3.958
11.6063 3.854
11.6365 2.708
11.6668 4.010
11.6971 4.167
11.7274 3.281
11.7577 4.167
11.7879 4.531
11.8182 3.229
11.8485 3.490
11.8788 3.854
11.9090 2.969
11.9393 3.958
11.9696 3.385
11.9999 3.750
12.0302 3.854
12.0604 3.385
12.0907 3.177
12.1210 2.969
12.1513 3.542
12.1816 2.969
12.2118 3.542
12.2421 3.437
12.2724 4.010
12.3027 3.698
12.3329 3.750
12.3632 2.969
12.3935 3.125
12.4238 3.437
12.4541 2.760
12.4843 3.125
12.5146 4.115
12.5449 2.656
12.5752 3.490
12.6055 2.969
12.6357 4.062
12.6660 3.333
12.6963 4.531
12.7266 3.646
12.7568 3.333
12.7871 3.021
12.8174 3.802
12.8477 3.802
12.8780 3.802
12.9082 3.437
12.9385 3.854
12.9688 3.854
12.9991 4.271
13.0294 3.802
13.0596 3.958
13.0899 2.865
13.1202 3.229
13.1505 2.812
13.1807 2.865
13.2110 3.385
13.2413 3.594
13.2716 3.490
13.3019 3.385
13.3321 2.917
13.3624 3.437
13.3927 3.646
13.4230 3.073
13.4533 2.969
13.4835 3.542
13.5138 3.646
13.5441 2.604
13.5744 2.917
13.6046 3.750
13.6349 2.187
13.6652 3.698
13.6955 2.865
13.7258 3.437
13.7560 3.490
13.7863 2.240
13.8166 2.812
13.8469 3.437
13.8772 3.073
13.9074 2.500
13.9377 3.073
13.9680 2.812
13.9983 2.708
14.0285 2.917
14.0588 3.177
14.0891 3.385
14.1194 2.969
14.1497 3.385
14.1799 3.542
14.2102 2.656
14.2405 3.021
14.2708 3.437
14.3011 2.396
14.3313 2.865
14.3616 2.969
14.3919 3.385
14.4222 2.917
14.4524 2.292
14.4827 2.292
14.5130 3.125
14.5433 3.437
14.5736 2.708
14.6038 2.708
14.6341 2.292
14.6644 2.604
14.6947 2.969
14.7250 3.125
14.7552 3.229
14.7855 2.552
14.8158 3.125
14.8461 2.604
14.8764 2.812
14.9066 2.083
14.9369 2.969
14.9672 2.344
14.9975 3.490
15.0277 2.969
15.0580 2.865
15.0883 2.708
15.1186 2.083
15.1489 3.125
15.1791 3.177
15.2094 2.031
15.2397 3.333
15.2700 2.969
15.3003 3.177
15.3305 2.865
15.3608 2.917
15.3911 2.344
15.4214 3.281
15.4516 3.229
15.4819 3.490
15.5122 3.021
15.5425 2.135
15.5728 3.281
15.6030 2.604
15.6333 2.760
15.6636 3.021
15.6939 2.969
15.7242 2.187
15.7544 2.760
15.7847 3.958
15.8150 3.333
15.8453 3.021
15.8755 1.823
15.9058 2.969
15.9361 2.083
15.9664 2.969
15.9967 1.927
16.0269 2.760
16.0572 3.125
16.0875 3.646
16.1178 2.187
16.1481 2.396
16.1783 2.812
16.2086 2.760
16.2389 3.542
16.2692 2.448
16.2994 2.552
16.3297 2.552
16.3600 2.396
16.3903 2.760
16.4206 2.083
16.4508 2.500
16.4811 2.500
16.5114 2.448
16.5417 2.187
16.5720 2.656
16.6022 2.917
16.6325 3.229
16.6628 3.594
16.6931 3.958
16.7233 3.177
16.7536 2.135
16.7839 3.125
16.8142 2.135
16.8445 3.542
16.8747 2.865
16.9050 2.500
16.9353 2.292
16.9656 2.552
16.9959 2.969
17.0261 2.865
17.0564 2.969
17.0867 3.177
17.1170 3.229
17.1472 2.135
17.1775 2.240
17.2078 2.656
17.2381 2.812
17.2684 3.229
17.2986 3.229
17.3289 2.552
17.3592 3.073
17.3895 2.812
17.4198 2.552
17.4500 2.917
17.4803 2.812
17.5106 3.125
17.5409 2.865
17.5712 2.344
17.6014 2.969
17.6317 2.187
17.6620 2.917
17.6923 2.656
17.7225 1.667
17.7528 2.500
17.7831 2.292
17.8134 2.969
17.8437 2.812
17.8739 2.083
17.9042 3.021
17.9345 3.490
17.9648 3.125
17.9951 2.708
18.0253 2.187
18.0556 3.229
18.0859 3.021
18.1162 3.333
18.1464 2.083
18.1767 3.021
18.2070 3.021
18.2373 3.021
18.2676 2.812
18.2978 3.073
18.3281 2.396
18.3584 3.281
18.3887 2.135
18.4190 2.344
18.4492 2.604
18.4795 2.396
18.5098 2.500
18.5401 2.240
18.5703 3.281
18.6006 1.667
18.6309 2.656
18.6612 2.969
18.6915 2.969
18.7217 2.917
18.7520 2.500
18.7823 2.292
18.8126 2.240
18.8429 1.823
18.8731 2.344
18.9034 1.719
18.9337 3.021
18.9640 2.292
18.9942 2.240
19.0245 2.396
19.0548 2.604
19.0851 2.552
19.1154 2.292
19.1456 2.604
19.1759 2.604
19.2062 2.500
19.2365 2.448
19.2668 2.448
19.2970 2.604
19.3273 2.396
19.3576 2.552
19.3879 1.875
19.4181 3.021
19.4484 2.396
19.4787 1.823
19.5090 2.604
19.5393 2.812
19.5695 2.448
19.5998 3.177
19.6301 1.875
19.6604 3.229
19.6907 1.719
19.7209 2.083
19.7512 1.927
19.7815 2.917
19.8118 2.448
19.8420 2.083
19.8723 3.333
19.9026 2.760
19.9329 2.812
19.9632 2.917
19.9934 2.969
20.0237 2.031
20.0540 3.177
20.0843 2.448
20.1146 2.708
20.1448 2.656
20.1751 2.865
20.2054 1.875
20.2357 2.865
20.2659 2.135
20.2962 2.031
20.3265 2.083
20.3568 2.969
20.3871 2.812
20.4173 3.021
20.4476 2.031
20.4779 2.708
20.5082 2.083
20.5385 2.552
20.5687 2.031
20.5990 2.135
20.6293 2.083
20.6596 2.500
20.6899 3.021
20.7201 2.917
20.7504 2.396
20.7807 2.083
20.8110 2.500
20.8412 2.500
20.8715 2.187
20.9018 2.500
20.9321 2.812
20.9624 1.979
20.9926 2.500
21.0229 2.031
21.0532 2.656
21.0835 2.604
21.1138 1.979
21.1440 1.927
21.1743 2.031
21.2046 1.979
21.2349 2.240
21.2651 2.292
21.2954 1.562
21.3257 1.927
21.3560 2.187
21.3863 2.448
21.4165 2.760
21.4468 1.562
21.4771 2.708
21.5074 2.187
21.5377 2.135
21.5679 2.187
21.5982 2.083
21.6285 2.135
21.6588 2.083
21.6890 2.604
21.7193 2.135
21.7496 2.656
21.7799 2.708
21.8102 2.656
21.8404 2.187
21.8707 2.083
21.9010 1.875
21.9313 2.031
21.9616 2.240
21.9918 1.979
22.0221 1.875
22.0524 2.292
22.0827 2.292
22.1129 2.396
22.1432 2.083
22.1735 1.979
22.2038 1.875
22.2341 2.083
22.2643 2.396
22.2946 1.979
22.3249 1.927
22.3552 2.552
22.3855 2.031
22.4157 2.500
22.4460 2.865
22.4763 2.396
22.5066 2.396
22.5368 1.719
22.5671 2.396
22.5974 2.552
22.6277 2.083
22.6580 2.500
22.6882 1.875
22.7185 2.917
22.7488 2.344
22.7791 2.344
22.8094 2.135
22.8396 2.708
22.8699 1.615
22.9002 1.823
22.9305 2.448
22.9607 2.187
22.9910 3.021
23.0213 2.344
23.0516 2.760
23.0819 2.604
23.1121 2.240
23.1424 2.344
23.1727 2.552
23.2030 2.604
23.2333 1.927
23.2635 2.812
23.2938 2.865
23.3241 2.187
23.3544 2.865
23.3846 2.552
23.4149 3.073
23.4452 2.240
23.4755 2.031
23.5058 2.552
23.5360 2.031
23.5663 2.552
23.5966 1.771
23.6269 2.187
23.6572 1.875
23.6874 1.771
23.7177 2.135
23.7480 2.135
23.7783 2.344
23.8086 1.823
23.8388 2.812
23.8691 2.396
23.8994 2.396
23.9297 2.344
23.9599 2.292
23.9902 2.448
24.0205 1.875
24.0508 2.240
24.0811 2.240
24.1113 2.552
24.1416 2.552
24.1719 2.500
24.2022 0.885
24.2325 2.031
24.2627 2.552
24.2930 1.875
24.3233 1.615
24.3536 1.562
24.3838 2.917
24.4141 2.135
24.4444 2.344
24.4747 2.448
24.5050 2.604
24.5352 2.240
24.5655 2.500
24.5958 2.448
24.6261 1.771
24.6564 2.917
24.6866 2.240
24.7169 1.823
24.7472 1.875
24.7775 2.083
24.8077 1.302
24.8380 1.875
24.8683 1.667
24.8986 1.615
24.9289 1.979
24.9591 1.979
24.9894 1.875
25.0197 1.667
25.0500 2.448
25.0803 2.240
25.1105 2.135
25.1408 2.292
25.1711 2.187
25.2014 2.031
25.2316 2.031
25.2619 2.708
25.2922 2.708
25.3225 1.927
25.3528 2.187
25.3830 2.240
25.4133 3.177
25.4436 2.604
25.4739 1.927
25.5042 2.187
25.5344 2.344
25.5647 2.187
25.5950 1.927
25.6253 3.177
25.6555 2.031
25.6858 2.135
25.7161 1.979
25.7464 2.760
25.7767 2.240
25.8069 1.927
25.8372 2.031
25.8675 2.344
25.8978 2.240
25.9281 1.719
25.9583 2.031
25.9886 2.500
26.0189 2.448
26.0492 2.135
26.0794 1.875
26.1097 2.552
26.1400 2.396
26.1703 1.510
26.2006 2.396
26.2308 2.240
26.2611 2.083
26.2914 2.135
26.3217 2.240
26.3520 2.031
26.3822 2.552
26.4125 2.604
26.4428 2.552
26.4731 2.344
26.5034 2.396
26.5336 2.396
26.5639 2.396
26.5942 2.031
26.6245 2.187
26.6547 2.604
26.6850 2.031
26.7153 2.552
26.7456 2.083
26.7759 2.344
26.8061 1.771
26.8364 2.448
26.8667 2.500
26.8970 2.344
26.9273 2.448
26.9575 2.083
26.9878 2.240
27.0181 2.448
27.0484 2.292
27.0786 2.396
27.1089 3.073
27.1392 2.344
27.1695 2.500
27.1998 2.552
27.2300 2.344
27.2603 2.708
27.2906 2.135
27.3209 2.865
27.3512 2.812
27.3814 2.969
27.4117 2.604
27.4420 2.604
27.4723 2.396
27.5025 3.073
27.5328 3.281
27.5631 2.552
27.5934 2.292
27.6237 2.552
27.6539 2.448
27.6842 2.344
27.7145 2.812
27.7448 2.812
27.7751 2.604
27.8053 2.552
27.8356 2.083
27.8659 3.333
27.8962 2.812
27.9264 2.083
27.9567 2.604
27.9870 2.240
28.0173 2.760
28.0476 2.396
28.0778 2.656
28.1081 2.760
28.1384 1.927
28.1687 2.604
28.1990 3.125
28.2292 2.135
28.2595 2.760
28.2898 2.917
28.3201 2.135
28.3503 3.125
28.3806 3.437
28.4109 2.760
28.4412 2.760
28.4715 2.656
28.5017 2.552
28.5320 3.542
28.5623 2.760
28.5926 3.125
28.6229 3.021
28.6531 2.812
28.6834 2.396
28.7137 2.240
28.7440 2.708
28.7742 1.771
28.8045 2.917
28.8348 3.333
28.8651 2.552
28.8954 2.865
28.9256 1.979
28.9559 2.448
28.9862 2.969
29.0165 2.396
29.0468 3.073
29.0770 2.969
29.1073 2.187
29.1376 2.969
29.1679 2.656
29.1981 2.760
29.2284 2.500
29.2587 2.187
29.2890 3.177
29.3193 2.708
29.3495 2.865
29.3798 2.344
29.4101 3.073
29.4404 2.656
29.4707 2.552
29.5009 3.177
29.5312 2.812
29.5615 2.656
29.5918 3.177
29.6221 2.969
29.6523 4.062
29.6826 2.604
29.7129 3.333
29.7432 3.229
29.7734 2.708
29.8037 3.750
29.8340 3.542
29.8643 2.500
29.8946 3.490
29.9248 3.854
29.9551 3.333
29.9854 3.125
30.0157 4.167
30.0460 3.333
30.0762 4.010
30.1065 4.062
30.1368 3.906
30.1671 3.854
30.1973 4.167
30.2276 3.906
30.2579 3.854
30.2882 4.010
30.3185 3.750
30.3487 3.906
30.3790 3.646
30.4093 4.219
30.4396 4.375
30.4699 3.542
30.5001 4.271
30.5304 4.427
30.5607 4.323
30.5910 4.167
30.6212 5.312
30.6515 5.208
30.6818 5.156
30.7121 5.573
30.7424 5.312
30.7726 4.896
30.8029 4.531
30.8332 5.885
30.8635 6.719
30.8938 6.354
30.9240 6.823
30.9543 7.292
30.9846 7.708
31.0149 8.333
31.0451 8.802
31.0754 9.167
31.1057 10.521
31.1360 9.375
31.1663 10.677
31.1965 11.458
31.2268 12.083
31.2571 13.594
31.2874 15.729
31.3177 15.365
31.3479 18.594
31.3782 20.781
31.4085 21.198
31.4388 24.687
31.4690 25.104
31.4993 29.010
31.5296 31.146
31.5599 30.990
31.5902 32.552
31.6204 34.375
31.6507 35.469
31.6810 32.344
31.7113 30.052
31.7416 27.187
31.7718 26.146
31.8021 23.229
31.8324 22.083
31.8627 20.208
31.8929 17.500
31.9232 14.844
31.9535 14.583
31.9838 12.240
32.0141 12.135
32.0443 12.396
32.0746 8.594
32.1049 8.594
32.1352 8.542
32.1655 9.271
32.1957 9.219
32.2260 7.656
32.2563 7.187
32.2866 7.500
32.3169 6.979
32.3471 6.510
32.3774 5.781
32.4077 5.469
32.4380 5.208
32.4682 5.312
32.4985 5.208
32.5288 5.312
32.5591 5.833
32.5894 4.792
32.6196 5.156
32.6499 4.427
32.6802 4.792
32.7105 3.490
32.7408 4.271
32.7710 5.000
32.8013 5.156
32.8316 5.885
32.8619 4.740
32.8921 5.052
32.9224 4.375
32.9527 4.687
32.9830 4.531
33.0133 4.115
33.0435 4.062
33.0738 4.219
33.1041 4.062
33.1344 4.479
33.1647 4.062
33.1949 3.958
33.2252 3.802
33.2555 4.427
33.2858 4.167
33.3160 5.052
33.3463 4.062
33.3766 5.104
33.4069 4.531
33.4372 4.427
33.4674 4.375
33.4977 3.906
33.5280 4.687
33.5583 4.635
33.5886 5.469
33.6188 4.740
33.6491 5.156
33.6794 5.625
33.7097 5.000
33.7399 6.146
33.7702 5.885
33.8005 6.042
33.8308 6.250
33.8611 7.448
33.8913 8.958
33.9216 7.604
33.9519 8.125
33.9822 9.583
34.0125 12.031
34.0427 11.979
34.0730 14.323
34.1033 17.812
34.1336 20.417
34.1638 24.115
34.1941 28.906
34.2244 35.625
34.2547 39.271
34.2850 44.219
34.3152 40.521
34.3455 39.115
34.3758 32.240
34.4061 28.177
34.4364 20.156
34.4666 17.344
34.4969 16.250
34.5272 12.344
34.5575 11.875
34.5877 10.156
34.6180 10.104
34.6483 9.583
34.6786 9.115
34.7089 7.344
34.7391 7.031
34.7694 8.490
34.7997 7.656
34.8300 7.083
34.8603 7.135
34.8905 7.240
34.9208 7.812
34.9511 6.823
34.9814 5.937
35.0116 6.406
35.0419 6.302
35.0722 6.927
35.1025 6.354
35.1328 6.771
35.1630 7.187
35.1933 6.823
35.2236 7.396
35.2539 7.292
35.2842 7.292
35.3144 7.708
35.3447 7.240
35.3750 6.875
35.4053 9.323
35.4356 8.542
35.4658 9.062
35.4961 8.594
35.5264 10.312
35.5567 10.781
35.5869 11.667
35.6172 12.812
35.6475 13.958
35.6778 13.229
35.7081 16.198
35.7383 17.135
35.7686 16.510
35.7989 20.312
35.8292 21.927
35.8595 25.417
35.8897 25.625
35.9200 28.750
35.9503 32.500
35.9806 36.927
36.0108 39.375
36.0411 43.385
36.0714 43.802
36.1017 44.583
36.1320 49.062
36.1622 45.937
36.1925 44.896
36.2228 40.781
36.2531 37.448
36.2834 32.969
36.3136 28.958
36.3439 25.677
36.3742 25.312
36.4045 22.083
36.4347 20.521
36.4650 18.073
36.4953 16.198
36.5256 14.792
36.5559 12.708
36.5861 12.969
36.6164 11.094
36.6467 9.427
36.6770 9.062
36.7073 10.260
36.7375 8.750
36.7678 8.542
36.7981 7.292
36.8284 6.615
36.8586 6.250
36.8889 6.458
36.9192 5.781
36.9495 5.781
36.9798 5.833
37.0100 4.271
37.0403 4.583
37.0706 4.427
37.1009 4.948
37.1312 4.115
37.1614 4.531
37.1917 4.062
37.2220 4.740
37.2523 4.635
37.2825 4.219
37.3128 4.323
37.3431 4.167
37.3734 4.219
37.4037 3.958
37.4339 3.906
37.4642 3.177
37.4945 3.490
37.5248 3.906
37.5551 3.646
37.5853 2.917
37.6156 2.865
37.6459 3.437
37.6762 3.333
37.7064 3.802
37.7367 3.385
37.7670 3.281
37.7973 2.760
37.8276 2.656
37.8578 2.969
37.8881 2.292
37.9184 3.542
37.9487 3.594
37.9790 2.240
38.0092 2.656
38.0395 2.500
38.0698 2.292
38.1001 3.073
38.1304 2.865
38.1606 2.135
38.1909 2.448
38.2212 2.135
38.2515 2.448
38.2817 2.552
38.3120 2.396
38.3423 2.240
38.3726 1.979
38.4029 2.083
38.4331 3.021
38.4634 2.448
38.4937 1.979
38.5240 2.292
38.5543 2.135
38.5845 2.656
38.6148 2.187
38.6451 2.344
38.6754 1.771
38.7056 2.292
38.7359 2.083
38.7662 1.979
38.7965 1.927
38.8268 2.344
38.8570 2.031
38.8873 1.979
38.9176 1.979
38.9479 1.823
38.9782 2.240
39.0084 2.083
39.0387 2.240
39.0690 2.448
39.0993 2.031
39.1295 2.552
39.1598 2.292
39.1901 2.240
39.2204 2.240
39.2507 2.083
39.2809 1.823
39.3112 1.823
39.3415 2.240
39.3718 1.667
39.4021 2.500
39.4323 1.510
39.4626 2.135
39.4929 2.083
39.5232 2.552
39.5534 2.292
39.5837 1.823
39.6140 1.458
39.6443 1.875
39.6746 1.667
39.7048 1.615
39.7351 1.719
39.7654 1.875
39.7957 1.719
39.8260 2.031
39.8562 2.187
39.8865 1.823
39.9168 1.510
39.9471 1.823
39.9773 1.875
40.0076 1.823
40.0379 1.823
40.0682 1.667
40.0985 2.135
40.1287 1.302
40.1590 2.031
40.1893 2.135
40.2196 1.615
40.2499 1.562
40.2801 1.875
40.3104 1.302
40.3407 2.135
40.3710 1.875
40.4012 1.406
40.4315 1.719
40.4618 1.354
40.4921 1.510
40.5224 1.615
40.5526 1.667
40.5829 1.562
40.6132 1.458
40.6435 1.823
40.6738 2.240
40.7040 2.031
40.7343 1.250
40.7646 1.615
40.7949 1.354
40.8251 1.354
40.8554 1.875
40.8857 1.406
40.9160 1.615
40.9463 1.667
40.9765 1.875
41.0068 1.562
41.0371 1.875
41.0674 2.031
41.0977 1.667
41.1279 1.667
41.1582 2.083
41.1885 1.615
41.2188 1.927
41.2491 1.927
41.2793 1.927
41.3096 1.927
41.3399 1.823
41.3702 1.406
41.4004 1.302
41.4307 1.615
41.4610 0.781
41.4913 1.823
41.5216 1.927
41.5518 1.771
41.5821 1.823
41.6124 1.771
41.6427 1.719
41.6730 1.510
41.7032 1.510
41.7335 1.771
41.7638 1.510
41.7941 1.562
41.8243 1.406
41.8546 1.927
41.8849 1.354
41.9152 2.031
41.9455 1.771
41.9757 1.823
42.0060 1.458
42.0363 1.562
42.0666 1.354
42.0969 2.135
42.1271 1.823
42.1574 1.094
42.1877 1.979
42.2180 1.875
42.2482 1.250
42.2785 2.240
42.3088 1.302
42.3391 1.094
42.3694 1.562
42.3996 1.302
42.4299 1.667
42.4602 1.354
42.4905 0.885
42.5208 1.562
42.5510 1.458
42.5813 1.198
42.6116 1.615
42.6419 1.354
42.6721 1.510
42.7024 1.615
42.7327 2.031
42.7630 1.302
42.7933 1.250
42.8235 1.823
42.8538 1.510
42.8841 1.719
42.9144 1.979
42.9447 1.146
42.9749 1.198
43.0052 1.354
43.0355 1.875
43.0658 1.615
43.0960 2.031
43.1263 1.510
43.1566 1.042
43.1869 1.354
43.2172 1.562
43.2474 1.302
43.2777 1.927
43.3080 1.979
43.3383 1.146
43.3686 1.927
43.3988 1.250
43.4291 1.927
43.4594 1.823
43.4897 1.510
43.5199 1.510
43.5502 1.354
43.5805 1.771
43.6108 2.031
43.6411 1.354
43.6713 1.823
43.7016 1.406
43.7319 1.302
43.7622 1.042
43.7925 1.771
43.8227 1.562
43.8530 1.458
43.8833 1.562
43.9136 1.719
43.9439 1.510
43.9741 1.302
44.0044 1.823
44.0347 1.979
44.0650 1.771
44.0952 1.771
44.1255 1.354
44.1558 1.250
44.1861 1.406
44.2164 1.667
44.2466 1.458
44.2769 1.719
44.3072 1.771
44.3375 1.458
44.3678 1.719
44.3980 1.875
44.4283 1.719
44.4586 1.354
44.4889 1.198
44.5191 1.719
44.5494 1.146
44.5797 1.927
44.6100 1.510
44.6403 1.615
44.6705 1.615
44.7008 1.250
44.7311 1.719
44.7614 0.937
44.7917 1.719
44.8219 1.719
44.8522 1.458
44.8825 1.510
44.9128 1.823
44.9430 1.458
44.9733 1.927
45.0036 1.667
45.0339 1.354
45.0642 1.719
45.0944 1.094
45.1247 1.875
45.1550 1.667
45.1853 1.875
45.2156 1.198
45.2458 1.615
45.2761 1.667
45.3064 1.771
45.3367 1.823
45.3669 1.510
45.3972 1.458
45.4275 1.615
45.4578 1.615
45.4881 1.823
45.5183 1.562
45.5486 1.823
45.5789 1.667
45.6092 2.135
45.6395 2.240
45.6697 2.292
45.7000 1.927
45.7303 2.135
45.7606 2.031
45.7908 2.031
45.8211 1.719
45.8514 2.187
45.8817 2.448
45.9120 1.719
45.9422 1.875
45.9725 1.406
46.0028 1.667
46.0331 2.552
46.0634 1.510
46.0936 1.615
46.1239 2.292
46.1542 1.927
46.1845 1.458
46.2147 1.875
46.2450 2.083
46.2753 1.979
46.3056 1.771
46.3359 2.240
46.3661 2.552
46.3964 2.500
46.4267 1.823
46.4570 1.823
46.4873 1.875
46.5175 1.927
46.5478 1.979
46.5781 2.292
46.6084 2.552
46.6386 2.500
46.6689 2.396
46.6992 2.135
46.7295 2.708
46.7598 2.500
46.7900 3.073
46.8203 3.490
46.8506 2.604
46.8809 3.437
46.9112 4.010
46.9414 4.115
46.9717 3.125
47.0020 4.115
47.0323 4.323
47.0626 3.750
47.0928 4.271
47.1231 6.406
47.1534 6.354
47.1837 6.354
47.2139 7.500
47.2442 7.240
47.2745 9.271
47.3048 8.802
47.3351 9.531
47.3653 9.323
47.3956 9.167
47.4259 8.906
47.4562 8.229
47.4865 8.490
47.5167 9.323
47.5470 7.760
47.5773 8.125
47.6076 7.917
47.6378 7.396
47.6681 6.771
47.6984 5.833
47.7287 4.896
47.7590 4.635
47.7892 4.010
47.8195 3.802
47.8498 4.479
47.8801 4.062
47.9104 4.010
47.9406 2.760
47.9709 2.865
48.0012 2.344
48.0315 2.760
48.0617 3.281
48.0920 2.344
48.1223 2.552
48.1526 2.083
48.1829 1.771
48.2131 2.187
48.2434 1.562
48.2737 2.396
48.3040 2.917
48.3343 2.396
48.3645 1.927
48.3948 1.562
48.4251 1.927
48.4554 2.083
48.4856 1.354
48.5159 1.979
48.5462 1.927
48.5765 1.979
48.6068 1.354
48.6370 1.875
48.6673 1.562
48.6976 1.562
48.7279 1.719
48.7582 1.719
48.7884 1.823
48.8187 2.083
48.8490 1.875
48.8793 1.458
48.9095 1.823
48.9398 1.875
48.9701 2.031
49.0004 1.250
49.0307 1.719
49.0609 1.354
49.0912 1.667
49.1215 1.667
49.1518 2.396
49.1821 1.198
49.2123 1.615
49.2426 1.615
49.2729 1.510
49.3032 1.823
49.3334 1.927
49.3637 1.562
49.3940 1.667
49.4243 1.927
49.4546 1.615
49.4848 1.406
49.5151 1.823
49.5454 1.771
49.5757 1.562
49.6060 1.719
49.6362 1.406
49.6665 0.937
49.6968 1.302
49.7271 1.667
49.7574 1.719
49.7876 1.979
49.8179 1.302
49.8482 1.562
49.8785 1.250
49.9087 1.667
49.9390 1.771
49.9693 1.615
49.9996 1.875
50.0299 1.406
50.0601 1.458
50.0904 1.979
50.1207 1.198
50.1510 1.250
50.1813 1.667
50.2115 1.354
50.2418 1.250
50.2721 1.719
50.3024 1.406
50.3326 1.354
50.3629 1.458
50.3932 1.562
50.4235 1.562
50.4538 1.510
50.4840 1.354
50.5143 1.510
50.5446 1.250
50.5749 1.406
50.6052 1.354
50.6354 1.198
50.6657 1.667
50.6960 1.302
50.7263 1.719
50.7565 1.615
50.7868 2.031
50.8171 1.719
50.8474 1.823
50.8777 1.302
50.9079 1.250
50.9382 1.667
50.9685 1.615
50.9988 1.875
51.0291 1.562
51.0593 1.458
51.0896 1.354
51.1199 1.927
51.1502 1.719
51.1804 1.250
51.2107 1.562
51.2410 1.198
51.2713 1.875
51.3016 1.979
51.3318 1.562
51.3621 2.344
51.3924 1.354
51.4227 1.302
51.4530 1.042
51.4832 1.979
51.5135 1.354
51.5438 1.719
51.5741 1.406
51.6043 1.406
51.6346 1.354
51.6649 1.302
51.6952 1.406
51.7255 1.719
51.7557 1.198
51.7860 1.510
51.8163 1.771
51.8466 1.250
51.8769 1.406
51.9071 1.354
51.9374 1.771
51.9677 1.927
51.9980 1.979
52.0282 1.667
52.0585 1.146
52.0888 1.562
52.1191 1.562
52.1494 1.146
52.1796 1.771
52.2099 1.146
52.2402 1.667
52.2705 0.990
52.3008 1.458
52.3310 1.458
52.3613 1.927
52.3916 1.458
52.4219 1.875
52.4521 0.990
52.4824 1.667
52.5127 1.250
52.5430 1.146
52.5733 1.198
52.6035 1.406
52.6338 1.615
52.6641 1.354
52.6944 1.094
52.7247 1.198
52.7549 1.719
52.7852 1.615
52.8155 1.042
52.8458 1.406
52.8761 1.146
52.9063 1.875
52.9366 1.510
52.9669 1.615
52.9972 1.354
53.0274 1.823
53.0577 1.354
53.0880 1.615
53.1183 0.937
53.1486 1.198
53.1788 1.615
53.2091 1.406
53.2394 1.458
53.2697 1.302
53.3000 1.354
53.3302 1.510
53.3605 1.198
53.3908 1.562
53.4211 1.667
53.4513 1.354
53.4816 1.667
53.5119 1.823
53.5422 2.083
53.5725 1.771
53.6027 1.406
53.6330 1.562
53.6633 1.354
53.6936 1.562
53.7239 1.510
53.7541 1.510
53.7844 1.562
53.8147 1.354
53.8450 1.406
53.8752 1.667
53.9055 1.094
53.9358 1.510
53.9661 1.615
53.9964 1.406
54.0266 1.667
54.0569 1.458
54.0872 1.719
54.1175 1.406
54.1478 1.927
54.1780 1.510
54.2083 1.562
54.2386 1.458
54.2689 1.979
54.2991 2.083
54.3294 1.771
54.3597 1.771
54.3900 1.979
54.4203 1.927
54.4505 2.187
54.4808 1.354
54.5111 1.771
54.5414 1.979
54.5717 1.771
54.6019 1.927
54.6322 1.771
54.6625 1.875
54.6928 1.823
54.7230 1.510
54.7533 1.823
54.7836 1.458
54.8139 1.771
54.8442 1.615
54.8744 2.240
54.9047 1.771
54.9350 1.771
54.9653 1.510
54.9956 1.719
55.0258 1.927
55.0561 2.187
55.0864 1.979
55.1167 2.031
55.1469 1.719
55.1772 1.823
55.2075 2.187
55.2378 1.927
55.2681 1.719
55.2983 2.031
55.3286 2.344
55.3589 2.344
55.3892 1.979
55.4195 1.667
55.4497 2.396
55.4800 1.875
55.5103 3.073
55.5406 2.500
55.5709 2.292
55.6011 2.812
55.6314 3.698
55.6617 2.708
55.6920 2.500
55.7222 3.229
55.7525 2.552
55.7828 3.281
55.8131 2.604
55.8434 3.698
55.8736 3.750
55.9039 3.437
55.9342 4.010
55.9645 4.115
55.9948 4.583
56.0250 3.854
56.0553 4.219
56.0856 6.302
56.1159 5.521
56.1461 6.875
56.1764 6.667
56.2067 7.187
56.2370 7.604
56.2673 9.687
56.2975 8.542
56.3278 11.302
56.3581 12.031
56.3884 13.281
56.4187 11.823
56.4489 12.708
56.4792 12.292
56.5095 9.375
56.5398 10.312
56.5700 10.990
56.6003 9.010
56.6306 8.385
56.6609 8.021
56.6912 7.448
56.7214 6.771
56.7517 6.510
56.7820 5.260
56.8123 5.990
56.8426 5.573
56.8728 5.260
56.9031 4.896
56.9334 4.271
56.9637 4.323
56.9939 4.219
57.0242 4.167
57.0545 2.969
57.0848 3.490
57.1151 3.177
57.1453 2.865
57.1756 2.604
57.2059 3.125
57.2362 2.396
57.2665 3.542
57.2967 2.604
57.3270 3.073
57.3573 1.875
57.3876 1.771
57.4178 2.656
57.4481 2.396
57.4784 1.667
57.5087 2.396
57.5390 1.875
57.5692 2.187
57.5995 2.187
57.6298 1.823
57.6601 1.615
57.6904 1.875
57.7206 2.031
57.7509 2.552
57.7812 2.083
57.8115 1.875
57.8417 1.823
57.8720 1.250
57.9023 2.187
57.9326 2.135
57.9629 1.979
57.9931 1.719
58.0234 2.031
58.0537 1.510
58.0840 1.562
58.1143 1.562
58.1445 1.979
58.1748 2.031
58.2051 1.510
58.2354 1.458
58.2656 1.615
58.2959 1.615
58.3262 2.083
58.3565 1.510
58.3868 1.875
58.4170 1.458
58.4473 0.937
58.4776 1.823
58.5079 1.406
58.5382 1.510
58.5684 1.510
58.5987 1.458
58.6290 1.615
58.6593 1.562
58.6896 1.667
58.7198 1.667
58.7501 1.615
58.7804 1.354
58.8107 2.031
58.8409 1.875
58.8712 1.354
58.9015 1.354
58.9318 1.615
58.9621 1.875
58.9923 1.562
59.0226 1.667
59.0529 1.562
59.0832 1.302
59.1135 1.667
59.1437 1.458
59.1740 1.562
59.2043 1.823
59.2346 1.562
59.2648 0.990
59.2951 1.458
59.3254 1.146
59.3557 1.146
59.3860 1.667
59.4162 2.135
59.4465 1.771
59.4768 1.510
59.5071 1.354
59.5374 1.667
59.5676 1.354
59.5979 0.990
59.6282 0.990
59.6585 1.823
59.6887 1.719
59.7190 1.667
59.7493 1.458
59.7796 1.510
59.8099 1.302
59.8401 1.354
59.8704 1.458
59.9007 1.719
59.9310 1.510
59.9613 1.562
59.9915 1.354
60.0218 1.458
60.0521 1.458
60.0824 1.562
60.1126 2.031
60.1429 1.510
60.1732 1.302
60.2035 1.615
60.2338 1.719
60.2640 1.302
60.2943 1.250
60.3246 1.667
60.3549 0.990
60.3852 1.979
60.4154 1.510
60.4457 1.719
60.4760 1.146
60.5063 1.354
60.5365 1.510
60.5668 1.771
60.5971 1.354
60.6274 1.146
60.6577 1.667
60.6879 1.562
60.7182 1.510
60.7485 1.198
60.7788 1.354
60.8091 1.562
60.8393 1.250
60.8696 1.510
60.8999 1.823
60.9302 1.615
60.9604 1.458
60.9907 1.406
61.0210 1.510
61.0513 1.615
61.0816 1.458
61.1118 1.875
61.1421 1.146
61.1724 1.823
61.2027 2.083
61.2330 1.979
61.2632 1.458
61.2935 1.667
61.3238 1.719
61.3541 1.615
61.3844 1.875
61.4146 2.031
61.4449 1.458
61.4752 2.135
61.5055 2.135
61.5357 2.031
61.5660 1.771
61.5963 1.927
61.6266 1.406
61.6569 1.927
61.6871 2.083
61.7174 1.615
61.7477 1.979
61.7780 2.604
61.8083 2.031
61.8385 1.719
61.8688 2.083
61.8991 2.187
61.9294 2.396
61.9596 2.708
61.9899 2.552
62.0202 2.760
62.0505 2.448
62.0808 2.656
62.1110 3.177
62.1413 2.865
62.1716 3.437
62.2019 3.594
62.2322 3.594
62.2624 3.750
62.2927 4.687
62.3230 4.323
62.3533 4.167
62.3835 4.635
62.4138 5.573
62.4441 6.458
62.4744 7.187
62.5047 6.823
62.5349 7.135
62.5652 8.854
62.5955 7.292
62.6258 7.969
62.6561 9.323
62.6863 8.802
62.7166 10.625
62.7469 11.510
62.7772 9.427
62.8074 8.698
62.8377 8.333
62.8680 8.698
62.8983 8.333
62.9286 8.229
62.9588 6.771
62.9891 5.781
63.0194 6.562
63.0497 5.885
63.0800 4.375
63.1102 4.531
63.1405 3.229
63.1708 4.167
63.2011 3.646
63.2313 4.115
63.2616 2.500
63.2919 2.917
63.3222 2.552
63.3525 2.917
63.3827 2.552
63.4130 2.083
63.4433 2.083
63.4736 2.344
63.5039 2.344
63.5341 2.292
63.5644 2.812
63.5947 1.667
63.6250 1.979
63.6552 1.771
63.6855 2.552
63.7158 2.031
63.7461 2.604
63.7764 2.031
63.8066 2.187
63.8369 1.927
63.8672 1.354
63.8975 2.031
63.9278 1.302
63.9580 2.500
63.9883 1.406
64.0186 1.667
64.0489 1.458
64.0791 1.510
64.1094 2.187
64.1397 2.083
64.1700 1.771
64.2003 1.406
64.2305 1.927
64.2608 1.302
64.2911 2.083
64.3214 1.667
64.3517 1.354
64.3819 1.042
64.4122 1.458
64.4425 1.406
64.4728 1.771
64.5031 1.927
64.5333 1.667
64.5636 1.979
64.5939 1.458
64.6242 1.406
64.6544 1.510
64.6847 1.823
64.7150 1.562
64.7453 1.562
64.7756 1.354
64.8058 1.615
64.8361 1.510
64.8664 1.615
64.8967 1.823
64.9270 1.615
64.9572 1.406
64.9875 1.771
65.0178 1.667
65.0481 1.510
65.0783 1.094
65.1086 1.562
65.1389 2.552
65.1692 1.875
65.1995 1.719
65.2297 1.927
65.2600 1.458
65.2903 1.719
65.3206 1.927
65.3509 1.406
65.3811 2.031
65.4114 1.615
65.4417 1.302
65.4720 1.458
65.5022 1.458
65.5325 1.719
65.5628 1.823
65.5931 1.771
65.6234 1.771
65.6536 1.615
65.6839 1.719
65.7142 1.406
65.7445 1.823
65.7748 1.667
65.8050 2.708
65.8353 1.406
65.8656 2.187
65.8959 1.458
65.9261 2.187
65.9564 2.292
65.9867 2.083
66.0170 2.812
66.0473 2.240
66.0775 2.760
66.1078 2.604
66.1381 2.656
66.1684 3.021
66.1987 2.396
66.2289 2.187
66.2592 2.500
66.2895 2.760
66.3198 3.333
66.3500 2.448
66.3803 2.812
66.4106 1.979
66.4409 2.969
66.4712 2.344
66.5014 2.552
66.5317 2.865
66.5620 2.031
66.5923 2.292
66.6226 2.656
66.6528 2.448
66.6831 2.396
66.7134 2.135
66.7437 2.240
66.7739 2.500
66.8042 2.917
66.8345 2.396
66.8648 2.292
66.8951 2.292
66.9253 1.979
66.9556 2.708
66.9859 2.396
67.0162 2.292
67.0465 2.708
67.0767 2.552
67.1070 2.500
67.1373 2.969
67.1676 3.333
67.1978 3.125
67.2281 2.292
67.2584 4.115
67.2887 2.656
67.3190 3.490
67.3492 3.594
67.3795 4.896
67.4098 3.490
67.4401 3.906
67.4704 4.792
67.5006 4.792
67.5309 4.687
67.5612 5.312
67.5915 5.521
67.6218 5.104
67.6520 5.781
67.6823 6.354
67.7126 6.927
67.7429 7.812
67.7731 7.969
67.8034 6.510
67.8337 6.250
67.8640 6.406
67.8943 6.771
67.9245 7.344
67.9548 6.823
67.9851 7.396
68.0154 6.719
68.0457 6.302
68.0759 5.625
68.1062 5.104
68.1365 5.000
68.1668 4.219
68.1970 4.896
68.2273 4.479
68.2576 4.635
68.2879 3.958
68.3182 4.167
68.3484 4.115
68.3787 3.698
68.4090 3.281
68.4393 2.760
68.4696 3.177
68.4998 3.177
68.5301 2.500
68.5604 3.021
68.5907 3.542
68.6209 4.219
68.6512 3.281
68.6815 3.646
68.7118 3.385
68.7421 3.333
68.7723 3.698
68.8026 3.385
68.8329 4.271
68.8632 3.854
68.8935 3.437
68.9237 3.906
68.9540 4.010
68.9843 3.594
69.0146 4.635
69.0448 4.062
69.0751 4.010
69.1054 3.594
69.1357 3.854
69.1660 2.865
69.1962 3.490
69.2265 3.594
69.2568 3.177
69.2871 2.969
69.3174 3.333
69.3476 2.292
69.3779 2.500
69.4082 2.396
69.4385 2.240
69.4687 2.604
69.4990 2.031
69.5293 2.344
69.5596 2.083
69.5899 1.771
69.6201 1.302
69.6504 1.875
69.6807 1.667
69.7110 1.771
69.7413 1.771
69.7715 1.406
69.8018 1.354
69.8321 1.458
69.8624 1.406
69.8926 1.250
69.9229 1.510
69.9532 1.771
69.9835 1.406
70.0138 1.615
70.0440 1.406
70.0743 1.667
70.1046 1.823
70.1349 0.990
70.1652 1.562
70.1954 1.458
70.2257 1.719
70.2560 0.937
70.2863 1.302
70.3166 1.354
70.3468 1.042
70.3771 1.250
70.4074 1.510
70.4377 1.562
70.4679 1.250
70.4982 1.302
70.5285 1.198
70.5588 1.094
70.5891 1.042
70.6193 1.250
70.6496 1.302
70.6799 0.885
70.7102 1.250
70.7405 1.250
70.7707 0.937
70.8010 0.990
70.8313 1.354
70.8616 1.510
70.8918 1.719
70.9221 1.302
70.9524 0.937
70.9827 1.042
71.0130 1.042
71.0432 1.250
71.0735 0.469
71.1038 1.250
71.1341 1.458
71.1644 1.667
71.1946 0.885
71.2249 1.094
71.2552 0.729
71.2855 1.302
71.3157 0.885
71.3460 1.458
71.3763 1.250
71.4066 0.990
71.4369 1.719
71.4671 1.146
71.4974 1.146
71.5277 1.042
71.5580 1.510
71.5883 1.146
71.6185 0.729
71.6488 1.146
71.6791 1.094
71.7094 1.250
71.7396 1.302
71.7699 1.250
71.8002 1.094
71.8305 0.833
71.8608 1.146
71.8910 1.250
71.9213 1.615
71.9516 1.354
71.9819 1.250
72.0122 1.094
72.0424 1.302
72.0727 1.094
72.1030 0.833
72.1333 1.458
72.1635 1.198
72.1938 1.198
72.2241 1.354
72.2544 1.198
72.2847 2.031
72.3149 1.354
72.3452 1.458
72.3755 1.510
72.4058 1.562
72.4361 1.510
72.4663 1.667
72.4966 1.979
72.5269 1.458
72.5572 1.875
72.5874 1.302
72.6177 1.510
72.6480 1.302
72.6783 1.250
72.7086 1.615
72.7388 1.146
72.7691 1.458
72.7994 1.406
72.8297 1.458
72.8600 0.833
72.8902 1.250
72.9205 1.198
72.9508 1.302
72.9811 1.042
73.0113 1.510
73.0416 1.302
73.0719 0.937
73.1022 1.250
73.1325 1.146
73.1627 0.833
73.1930 1.302
73.2233 0.885
73.2536 1.094
73.2839 0.990
73.3141 0.833
73.3444 0.885
73.3747 1.406
73.4050 0.781
73.4353 0.937
73.4655 0.781
73.4958 1.146
73.5261 1.250
73.5564 1.302
73.5866 0.729
73.6169 1.198
73.6472 0.990
73.6775 1.094
73.7078 0.781
73.7380 0.990
73.7683 0.990
73.7986 0.990
73.8289 1.146
73.8592 1.094
73.8894 1.146
73.9197 0.885
73.9500 1.094
73.9803 0.990
74.0105 1.042
74.0408 1.302
74.0711 1.094
74.1014 0.937
74.1317 1.510
74.1619 1.146
74.1922 0.885
74.2225 0.729
74.2528 0.677
74.2831 0.990
74.3133 0.937
74.3436 1.198
74.3739 0.990
74.4042 0.990
74.4344 0.990
74.4647 0.833
74.4950 1.250
74.5253 0.990
74.5556 0.781
74.5858 0.833
74.6161 0.677
74.6464 1.354
74.6767 1.302
74.7070 0.573
74.7372 0.833
74.7675 0.729
74.7978 1.042
74.8281 1.302
74.8583 0.885
74.8886 0.885
74.9189 1.198
74.9492 0.885
74.9795 1.146
75.0097 0.937
75.0400 0.937
75.0703 0.937
75.1006 1.302
75.1309 0.781
75.1611 0.781
75.1914 1.250
75.2217 1.146
75.2520 1.250
75.2822 0.990
75.3125 1.198
75.3428 0.937
75.3731 0.885
75.4034 0.729
75.4336 1.198
75.4639 0.990
75.4942 1.302
75.5245 1.146
75.5548 0.885
75.5850 0.937
75.6153 1.198
75.6456 0.990
75.6759 1.198
75.7061 1.094
75.7364 1.250
75.7667 1.198
75.7970 1.250
75.8273 1.094
75.8575 0.573
75.8878 1.198
75.9181 0.990
75.9484 1.146
75.9787 1.562
76.0089 0.833
76.0392 0.885
76.0695 0.833
76.0998 1.458
76.1301 1.198
76.1603 1.354
76.1906 0.885
76.2209 0.833
76.2512 1.198
76.2814 1.250
76.3117 1.198
76.3420 1.250
76.3723 1.198
76.4026 1.198
76.4328 1.719
76.4631 0.937
76.4934 1.458
76.5237 1.198
76.5540 1.562
76.5842 1.250
76.6145 1.458
76.6448 1.458
76.6751 1.250
76.7053 2.135
76.7356 1.719
76.7659 1.667
76.7962 2.031
76.8265 1.719
76.8567 1.302
76.8870 1.771
76.9173 1.562
76.9476 1.875
76.9779 1.719
77.0081 1.667
77.0384 1.458
77.0687 1.198
77.0990 1.562
77.1292 1.510
77.1595 1.094
77.1898 1.562
77.2201 1.458
77.2504 0.937
77.2806 1.406
77.3109 1.042
77.3412 1.302
77.3715 1.094
77.4018 1.302
77.4320 1.510
77.4623 1.042
77.4926 1.354
77.5229 1.146
77.5531 1.042
77.5834 1.198
77.6137 1.146
77.6440 1.146
77.6743 1.302
77.7045 0.937
77.7348 0.885
77.7651 1.042
77.7954 0.833
77.8257 1.198
77.8559 0.625
77.8862 0.729
77.9165 0.937
77.9468 1.198
77.9770 0.990
78.0073 1.198
78.0376 0.833
78.0679 1.198
78.0982 0.833
78.1284 1.198
78.1587 0.990
78.1890 0.729
78.2193 1.198
78.2496 1.146
78.2798 1.198
78.3101 0.937
78.3404 1.198
78.3707 0.781
78.4009 0.990
78.4312 0.990
78.4615 1.198
78.4918 0.729
78.5221 0.885
78.5523 0.990
78.5826 1.354
78.6129 1.094
78.6432 0.729
78.6735 1.042
78.7037 1.146
78.7340 1.458
78.7643 0.937
78.7946 1.146
78.8248 0.990
78.8551 0.833
78.8854 0.625
78.9157 0.729
78.9460 1.146
78.9762 1.250
79.0065 0.729
79.0368 0.990
79.0671 0.729
79.0974 0.885
79.1276 1.198
79.1579 0.885
79.1882 0.833
79.2185 0.781
79.2488 0.677
79.2790 1.042
79.3093 1.302
79.3396 1.042
79.3699 0.729
79.4001 0.833
79.4304 0.781
79.4607 1.198
79.4910 0.781
79.5213 1.198
79.5515 1.198
79.5818 1.094
79.6121 1.146
79.6424 1.146
79.6727 0.625
79.7029 0.885
79.7332 1.146
79.7635 0.625
79.7938 0.833
79.8240 0.729
79.8543 1.146
79.8846 0.937
79.9149 1.094
79.9452 1.146
79.9754 0.937
80.0057 0.573
80.0360 0.990
80.0663 0.729
80.0966 1.042
80.1268 1.042
80.1571 1.615
80.1874 1.250
80.2177 1.250
80.2479 0.937
80.2782 0.885
80.3085 0.469
80.3388 1.198
80.3691 1.198
80.3993 0.937
80.4296 0.937
80.4599 0.990
80.4902 1.146
80.5205 0.729
80.5507 1.042
80.5810 1.042
80.6113 0.625
80.6416 1.510
80.6718 1.198
80.7021 1.198
80.7324 0.781
80.7627 1.146
80.7930 1.406
80.8232 0.885
80.8535 1.198
80.8838 0.729
80.9141 1.198
80.9444 1.198
80.9746 1.198
81.0049 1.198
81.0352 1.406
81.0655 1.250
81.0957 1.562
81.1260 1.354
81.1563 1.146
81.1866 1.562
81.2169 1.250
81.2471 1.198
81.2774 1.198
81.3077 1.198
81.3380 1.146
81.3683 0.833
81.3985 1.302
81.4288 1.823
81.4591 1.146
81.4894 1.198
81.5196 1.615
81.5499 1.250
81.5802 0.781
81.6105 1.250
81.6408 1.042
81.6710 1.458
81.7013 1.302
81.7316 1.146
81.7619 0.781
81.7922 1.198
81.8224 1.250
81.8527 0.885
81.8830 0.885
81.9133 0.937
81.9436 1.250
81.9738 1.094
82.0041 1.406
82.0344 1.198
82.0647 1.094
82.0949 0.885
82.1252 0.937
82.1555 1.667
82.1858 0.990
82.2161 1.042
82.2463 0.937
82.2766 1.146
82.3069 0.625
82.3372 0.885
82.3675 0.781
82.3977 0.677
82.4280 1.198
82.4583 0.729
82.4886 1.198
82.5188 1.094
82.5491 1.146
82.5794 0.885
82.6097 0.729
82.6400 1.198
82.6702 0.990
82.7005 0.677
82.7308 1.042
82.7611 0.833
82.7914 0.729
82.8216 1.146
82.8519 0.781
82.8822 0.625
82.9125 0.729
82.9427 0.833
82.9730 0.990
83.0033 0.990
83.0336 0.781
83.0639 0.885
83.0941 1.094
83.1244 1.198
83.1547 1.250
83.1850 1.146
83.2153 1.146
83.2455 0.833
83.2758 0.990
83.3061 0.990
83.3364 0.885
83.3666 1.198
83.3969 0.729
83.4272 0.833
83.4575 1.198
83.4878 0.990
83.5180 1.042
83.5483 1.094
83.5786 0.990
83.6089 0.990
83.6392 0.990
83.6694 0.625
83.6997 0.937
83.7300 0.729
83.7603 0.677
83.7905 1.198
83.8208 0.990
83.8511 0.729
83.8814 0.937
83.9117 0.729
83.9419 0.781
83.9722 0.833
84.0025 0.729
84.0328 0.833
84.0631 0.573
84.0933 0.625
84.1236 0.729
84.1539 0.990
84.1842 1.198
84.2144 0.990
84.2447 1.042
84.2750 1.146
84.3053 0.937
84.3356 1.094
84.3658 1.198
84.3961 0.937
84.4264 0.521
84.4567 1.198
84.4870 1.146
84.5172 0.729
84.5475 0.937
84.5778 0.885
84.6081 0.625
84.6383 1.146
84.6686 1.146
84.6989 1.042
84.7292 0.937
84.7595 0.729
84.7897 0.833
84.8200 1.042
84.8503 0.729
84.8806 1.198
84.9109 0.885
84.9411 1.094
84.9714 0.885
85.0017 0.729
85.0320 0.885
85.0623 1.198
85.0925 1.406
85.1228 1.250
85.1531 0.990
85.1834 0.573
85.2136 0.937
85.2439 0.729
85.2742 0.937
85.3045 0.729
85.3348 0.573
85.3650 0.625
85.3953 0.677
85.4256 1.302
85.4559 0.885
85.4862 0.937
85.5164 0.781
85.5467 0.885
85.5770 1.146
85.6073 0.625
85.6375 1.198
85.6678 1.042
85.6981 1.094
85.7284 0.885
85.7587 0.677
85.7889 0.729
85.8192 0.781
85.8495 0.781
85.8798 0.781
85.9101 0.937
85.9403 0.990
85.9706 0.469
86.0009 1.094
86.0312 1.042
86.0614 1.146
86.0917 1.250
86.1220 0.885
86.1523 1.198
86.1826 0.625
86.2128 1.302
86.2431 0.937
86.2734 1.302
86.3037 0.833
86.3340 0.677
86.3642 1.250
86.3945 0.781
86.4248 0.729
86.4551 1.198
86.4853 1.094
86.5156 0.729
86.5459 1.198
86.5762 1.302
86.6065 0.781
86.6367 0.573
86.6670 0.990
86.6973 1.198
86.7276 1.354
86.7579 0.885
86.7881 0.781
86.8184 0.521
86.8487 1.146
86.8790 1.094
86.9092 0.781
86.9395 0.990
86.9698 1.250
87.0001 0.729
87.0304 0.833
87.0606 0.990
87.0909 0.833
87.1212 0.833
87.1515 0.729
87.1818 0.937
87.2120 1.042
87.2423 0.990
87.2726 1.094
87.3029 0.573
87.3331 0.885
87.3634 0.937
87.3937 1.094
87.4240 0.729
87.4543 0.729
87.4845 1.042
87.5148 0.625
87.5451 0.937
87.5754 0.937
87.6057 1.406
87.6359 0.990
87.6662 0.885
87.6965 0.990
87.7268 0.937
87.7571 1.094
87.7873 1.146
87.8176 1.094
87.8479 0.990
87.8782 0.833
87.9084 0.729
87.9387 0.781
87.9690 1.406
87.9993 1.094
88.0296 0.990
88.0598 1.250
88.0901 0.990
88.1204 0.937
88.1507 0.937
88.1810 1.198
88.2112 1.198
88.2415 1.302
88.2718 1.146
88.3021 1.146
88.3323 0.781
88.3626 0.937
88.3929 0.781
88.4232 1.198
88.4535 1.562
88.4837 1.250
88.5140 1.198
88.5443 1.146
88.5746 0.781
88.6049 0.781
88.6351 1.146
88.6654 1.615
88.6957 0.990
88.7260 1.510
88.7562 1.250
88.7865 1.667
88.8168 1.302
88.8471 1.146
88.8774 0.937
88.9076 1.198
88.9379 1.875
88.9682 1.250
88.9985 1.979
89.0288 1.927
89.0590 1.667
89.0893 1.562
89.1196 1.719
89.1499 1.615
89.1801 1.719
89.2104 1.875
89.2407 1.875
89.2710 1.927
89.3013 2.135
89.3315 1.510
89.3618 1.667
89.3921 2.604
89.4224 1.615
89.4527 1.771
89.4829 2.344
89.5132 2.135
89.5435 1.667
89.5738 1.406
89.6040 1.823
89.6343 1.927
89.6646 1.875
89.6949 2.448
89.7252 2.135
89.7554 2.604
89.7857 1.510
89.8160 1.667
89.8463 1.354
89.8766 1.927
89.9068 2.031
89.9371 1.979
89.9674 1.667
89.9977 1.719
90.0279 1.823
90.0582 1.823
90.0885 1.771
90.1188 1.667
90.1491 1.198
90.1793 1.458
90.2096 1.146
90.2399 1.146
90.2702 1.198
90.3005 1.094
90.3307 0.990
90.3610 1.667
90.3913 1.042
90.4216 0.833
90.4518 0.729
90.4821 1.042
90.5124 1.198
90.5427 0.885
90.5730 0.885
90.6032 1.354
90.6335 1.198
90.6638 1.302
90.6941 1.771
90.7244 0.677
90.7546 1.146
90.7849 1.042
90.8152 1.198
90.8455 0.937
90.8758 1.146
90.9060 0.885
90.9363 1.250
90.9666 1.302
90.9969 0.729
91.0271 1.198
91.0574 1.094
91.0877 0.729
91.1180 1.094
91.1483 0.833
91.1785 1.302
91.2088 0.937
91.2391 1.042
91.2694 1.198
91.2997 0.990
91.3299 1.406
91.3602 0.990
91.3905 1.198
91.4208 0.990
91.4510 1.146
91.4813 0.729
91.5116 1.406
91.5419 0.885
91.5722 0.937
91.6024 1.615
91.6327 1.146
91.6630 1.406
91.6933 1.250
91.7236 0.833
91.7538 1.198
91.7841 1.094
91.8144 1.094
91.8447 1.198
91.8749 1.042
91.9052 0.729
91.9355 1.198
91.9658 0.937
91.9961 0.833
92.0263 1.354
92.0566 0.625
92.0869 1.146
92.1172 1.458
92.1475 1.094
92.1777 0.990
92.2080 0.990
92.2383 1.146
92.2686 0.990
92.2988 1.302
92.3291 0.990
92.3594 1.667
92.3897 0.990
92.4200 1.667
92.4502 0.990
92.4805 0.990
92.5108 1.562
92.5411 0.990
92.5714 1.198
92.6016 1.250
92.6319 1.146
92.6622 1.510
92.6925 0.937
92.7227 2.031
92.7530 1.406
92.7833 1.094
92.8136 1.615
92.8439 0.937
92.8741 1.927
92.9044 0.833
92.9347 1.354
92.9650 1.615
92.9953 1.250
93.0255 1.302
93.0558 1.510
93.0861 0.937
93.1164 0.990
93.1466 1.406
93.1769 1.406
93.2072 1.250
93.2375 1.198
93.2678 0.990
93.2980 1.094
93.3283 1.042
93.3586 1.146
93.3889 1.198
93.4192 1.198
93.4494 1.458
93.4797 1.146
93.5100 0.729
93.5403 0.937
93.5706 1.042
93.6008 0.729
93.6311 0.781
93.6614 0.937
93.6917 1.458
93.7219 0.781
93.7522 0.990
93.7825 1.198
93.8128 1.406
93.8431 0.937
93.8733 1.250
93.9036 1.094
93.9339 0.990
93.9642 1.719
93.9945 1.198
94.0247 1.302
94.0550 1.406
94.0853 1.198
94.1156 0.833
94.1458 1.094
94.1761 0.990
94.2064 1.250
94.2367 0.833
94.2670 1.042
94.2972 0.937
94.3275 1.198
94.3578 0.990
94.3881 1.667
94.4184 1.094
94.4486 1.094
94.4789 1.458
94.5092 0.781
94.5395 0.833
94.5697 1.094
94.6000 1.250
94.6303 1.615
94.6606 1.875
94.6909 1.406
94.7211 1.302
94.7514 1.823
94.7817 1.562
94.8120 1.719
94.8423 1.719
94.8725 1.771
94.9028 1.719
94.9331 1.667
94.9634 1.719
94.9936 1.719
95.0239 1.927
95.0542 1.823
95.0845 1.667
95.1148 2.187
95.1450 2.396
95.1753 2.292
95.2056 2.292
95.2359 1.823
95.2662 2.240
95.2964 2.240
95.3267 2.187
95.3570 1.667
95.3873 1.823
95.4175 1.719
95.4478 2.135
95.4781 1.979
95.5084 1.042
95.5387 2.083
95.5689 1.771
95.5992 1.615
95.6295 1.667
95.6598 1.719
95.6901 1.719
95.7203 2.031
95.7506 1.198
95.7809 1.198
95.8112 1.198
95.8414 1.354
95.8717 1.667
95.9020 1.198
95.9323 0.729
95.9626 1.146
95.9928 1.562
96.0231 1.198
96.0534 1.927
96.0837 1.354
96.1140 1.458
96.1442 1.146
96.1745 1.562
96.2048 1.094
96.2351 1.146
96.2653 1.302
96.2956 1.094
96.3259 0.781
96.3562 1.302
96.3865 1.250
96.4167 1.354
96.4470 0.937
96.4773 1.250
96.5076 1.094
96.5379 1.198
96.5681 1.198
96.5984 0.833
96.6287 1.250
96.6590 0.729
96.6893 1.198
96.7195 1.042
96.7498 1.198
96.7801 1.250
96.8104 0.781
96.8406 1.250
96.8709 1.094
96.9012 1.146
96.9315 1.042
96.9618 0.937
96.9920 1.250
97.0223 1.146
97.0526 0.937
97.0829 0.885
97.1132 1.250
97.1434 1.250
97.1737 1.094
97.2040 0.990
97.2343 0.833
97.2645 1.146
97.2948 1.302
97.3251 0.781
97.3554 1.042
97.3857 0.729
97.4159 0.937
97.4462 1.250
97.4765 1.458
97.5068 1.250
97.5371 1.146
97.5673 1.146
97.5976 0.885
97.6279 1.250
97.6582 0.833
97.6884 1.771
97.7187 0.885
97.7490 1.198
97.7793 0.573
97.8096 0.573
97.8398 1.094
97.8701 1.302
97.9004 1.094
97.9307 1.198
97.9610 1.042
97.9912 0.990
98.0215 1.302
98.0518 1.302
98.0821 1.250
98.1123 1.250
98.1426 1.667
98.1729 1.198
98.2032 1.510
98.2335 1.667
98.2637 1.771
98.2940 1.667
98.3243 1.927
98.3546 1.354
98.3849 1.406
98.4151 1.250
98.4454 1.354
98.4757 1.719
98.5060 1.198
98.5362 1.250
98.5665 1.458
98.5968 2.135
98.6271 1.615
98.6574 1.354
98.6876 1.615
98.7179 1.771
98.7482 1.927
98.7785 1.562
98.8088 1.094
98.8390 1.719
98.8693 1.406
98.8996 1.198
98.9299 1.406
98.9601 0.990
98.9904 1.719
99.0207 1.042
99.0510 1.615
99.0813 1.302
99.1115 1.042
99.1418 1.094
99.1721 1.510
99.2024 1.042
99.2327 1.562
99.2629 1.354
99.2932 1.354
99.3235 1.354
99.3538 1.719
99.3841 1.510
99.4143 0.990
99.4446 1.354
99.4749 1.354
99.5052 1.094
99.5354 0.937
99.5657 1.510
99.5960 1.719
99.6263 0.833
99.6566 0.990
99.6868 1.302
99.7171 0.781
99.7474 1.302
99.7777 1.615
99.8080 1.302
99.8382 1.146
99.8685 0.885
99.8988 1.406
99.9291 0.937
99.9593 0.833
99.9896 0.781
100.0199 0.781
100.0502 1.406
100.0805 1.198
100.1107 1.146
100.1410 0.677
100.1713 1.302
100.2016 1.094
100.2319 1.042
100.2621 1.302
100.2924 0.937
100.3227 1.302
100.3530 1.354
100.3832 1.198
100.4135 1.094
100.4438 0.573
100.4741 1.094
100.5044 0.990
100.5346 0.937
100.5649 0.990
100.5952 0.885
100.6255 0.990
100.6558 1.198
100.6860 0.937
100.7163 1.146
100.7466 0.937
100.7769 1.094
100.8071 1.354
100.8374 1.094
100.8677 0.990
100.8980 0.625
100.9283 1.094
100.9585 0.990
100.9888 0.781
101.0191 1.302
101.0494 0.833
101.0797 1.094
101.1099 1.198
101.1402 1.510
101.1705 1.198
101.2008 1.198
101.2310 0.677
101.2613 0.781
101.2916 1.146
101.3219 0.729
101.3522 0.937
101.3824 1.354
101.4127 1.146
101.4430 1.094
101.4733 0.885
101.5036 0.937
101.5338 0.990
101.5641 1.354
101.5944 0.833
101.6247 1.146
101.6549 1.250
101.6852 1.250
101.7155 0.885
101.7458 1.094
101.7761 1.042
101.8063 0.937
101.8366 1.042
101.8669 1.875
101.8972 1.354
101.9275 1.042
101.9577 0.990
101.9880 1.667
102.0183 0.833
102.0486 0.833
102.0788 1.094
102.1091 1.198
102.1394 1.146
102.1697 0.833
102.2000 1.562
102.2302 1.562
102.2605 1.146
102.2908 1.615
102.3211 1.719
102.3514 1.042
102.3816 1.146
102.4119 1.146
102.4422 1.146
102.4725 1.354
102.5028 1.458
102.5330 1.302
102.5633 1.615
102.5936 1.250
102.6239 1.615
102.6541 0.885
102.6844 0.885
102.7147 1.615
102.7450 1.146
102.7753 1.042
102.8055 1.562
102.8358 1.615
102.8661 1.302
102.8964 1.406
102.9267 1.510
102.9569 1.354
102.9872 1.823
103.0175 1.562
103.0478 1.510
103.0780 1.458
103.1083 1.458
103.1386 1.354
103.1689 1.667
103.1992 0.937
103.2294 1.042
103.2597 1.875
103.2900 1.458
103.3203 1.406
103.3506 1.302
103.3808 1.719
103.4111 1.458
103.4414 1.510
103.4717 1.615
103.5019 1.094
103.5322 1.458
103.5625 1.354
103.5928 1.615
103.6231 1.719
103.6533 1.250
103.6836 1.354
103.7139 1.979
103.7442 1.458
103.7745 1.667
103.8047 1.719
103.8350 1.562
103.8653 1.615
103.8956 1.927
103.9258 1.823
103.9561 2.240
103.9864 2.031
104.0167 1.875
104.0470 1.510
104.0772 2.240
104.1075 1.979
104.1378 2.396
104.1681 1.979
104.1984 1.406
104.2286 2.500
104.2589 1.979
104.2892 1.927
104.3195 1.823
104.3497 1.458
104.3800 1.771
104.4103 2.083
104.4406 1.198
104.4709 1.354
104.5011 1.823
104.5314 2.240
104.5617 1.510
104.5920 1.510
104.6223 1.458
104.6525 1.250
104.6828 1.615
104.7131 1.562
104.7434 1.615
104.7736 1.042
104.8039 1.406
104.8342 1.198
104.8645 1.406
104.8948 1.146
104.9250 1.406
104.9553 1.406
104.9856 0.937
105.0159 0.833
105.0462 1.354
105.0764 0.677
105.1067 1.250
105.1370 0.833
105.1673 0.833
105.1975 0.833
105.2278 1.354
105.2581 0.990
105.2884 1.302
105.3187 0.990
105.3489 1.250
105.3792 1.042
105.4095 1.094
105.4398 1.198
105.4701 1.406
105.5003 0.885
105.5306 0.833
105.5609 1.146
105.5912 0.990
105.6215 1.458
105.6517 1.354
105.6820 1.250
105.7123 0.885
105.7426 1.094
105.7728 0.885
105.8031 1.042
105.8334 0.937
105.8637 1.406
105.8940 1.250
105.9242 1.302
105.9545 1.250
105.9848 0.833
106.0151 0.937
106.0454 1.302
106.0756 1.094
106.1059 0.781
106.1362 1.146
106.1665 0.729
106.1967 0.729
106.2270 0.990
106.2573 1.250
106.2876 1.250
106.3179 1.667
106.3481 1.198
106.3784 1.250
106.4087 1.406
106.4390 1.042
106.4693 1.458
106.4995 0.885
106.5298 0.885
106.5601 1.979
106.5904 1.094
106.6206 0.781
106.6509 1.094
106.6812 1.406
106.7115 0.729
106.7418 1.042
106.7720 1.406
106.8023 0.833
106.8326 0.885
106.8629 0.937
106.8932 0.990
106.9234 0.833
106.9537 1.146
106.9840 1.094
107.0143 0.885
107.0445 0.937
107.0748 0.990
107.1051 1.146
107.1354 0.937
107.1657 0.937
107.1959 0.781
107.2262 0.885
107.2565 1.042
107.2868 1.198
107.3171 0.990
107.3473 1.094
107.3776 0.833
107.4079 1.510
107.4382 1.823
107.4684 1.302
107.4987 1.042
107.5290 1.302
107.5593 0.729
107.5896 1.302
107.6198 1.354
107.6501 1.094
107.6804 1.250
107.7107 1.406
107.7410 1.146
107.7712 1.406
107.8015 1.094
107.8318 1.146
107.8621 0.885
107.8923 0.937
107.9226 1.354
107.9529 0.885
107.9832 1.042
108.0135 0.990
108.0437 1.302
108.0740 0.937
108.1043 0.885
108.1346 0.885
108.1649 0.990
108.1951 1.354
108.2254 0.885
108.2557 0.885
108.2860 1.354
108.3163 1.094
108.3465 0.885
108.3768 1.198
108.4071 1.354
108.4374 1.250
108.4676 0.885
108.4979 0.677
108.5282 1.042
108.5585 1.406
108.5888 1.615
108.6190 1.510
108.6493 0.937
108.6796 0.937
108.7099 1.198
108.7402 0.677
108.7704 1.198
108.8007 1.354
108.8310 0.990
108.8613 0.781
108.8915 0.885
108.9218 1.250
108.9521 1.146
108.9824 0.990
109.0127 1.198
109.0429 1.198
109.0732 0.990
109.1035 0.417
109.1338 0.885
109.1641 0.677
109.1943 0.885
109.2246 0.729
109.2549 0.937
109.2852 1.458
109.3154 1.250
109.3457 1.354
109.3760 1.302
109.4063 0.990
109.4366 0.990
109.4668 0.885
109.4971 1.354
109.5274 1.302
109.5577 0.937
109.5880 0.937
109.6182 1.562
109.6485 0.937
109.6788 1.302
109.7091 0.885
109.7393 0.833
109.7696 0.937
109.7999 1.198
109.8302 1.406
109.8605 1.354
109.8907 1.562
109.9210 1.302
109.9513 1.146
109.9816 2.083
110.0119 1.094
110.0421 1.042
110.0724 1.562
110.1027 1.042
110.1330 0.990
110.1632 1.562
110.1935 1.094
110.2238 1.094
110.2541 1.927
110.2844 2.083
110.3146 1.146
110.3449 1.615
110.3752 1.302
110.4055 1.615
110.4358 1.510
110.4660 1.615
110.4963 1.406
110.5266 1.250
110.5569 1.667
110.5871 1.354
110.6174 1.250
110.6477 1.354
110.6780 1.979
110.7083 1.250
110.7385 1.615
110.7688 1.719
110.7991 1.146
110.8294 1.094
110.8597 1.510
110.8899 1.042
110.9202 1.094
110.9505 1.198
110.9808 1.354
111.0110 1.458
111.0413 1.250
111.0716 1.094
111.1019 0.885
111.1322 1.146
111.1624 0.937
111.1927 0.990
111.2230 1.146
111.2533 1.354
111.2836 0.885
111.3138 0.885
111.3441 1.510
111.3744 1.198
111.4047 1.094
111.4350 0.833
111.4652 1.094
111.4955 0.990
111.5258 1.354
111.5561 1.146
111.5863 1.042
111.6166 0.729
111.6469 1.146
111.6772 1.302
111.7075 1.250
111.7377 0.573
111.7680 0.990
111.7983 0.990
111.8286 0.885
111.8589 1.250
111.8891 0.937
111.9194 1.146
111.9497 0.781
111.9800 0.729
112.0102 0.937
112.0405 0.990
112.0708 1.198
112.1011 0.625
112.1314 1.042
112.1616 0.937
112.1919 0.885
112.2222 0.521
112.2525 1.198
112.2828 1.094
112.3130 1.042
112.3433 1.458
112.3736 0.937
112.4039 1.146
112.4341 0.990
112.4644 0.833
112.4947 0.990
112.5250 0.781
112.5553 1.198
112.5855 1.094
112.6158 0.990
112.6461 1.250
112.6764 0.937
112.7067 0.937
112.7369 0.729
112.7672 1.406
112.7975 1.094
112.8278 1.302
112.8580 1.042
112.8883 1.042
112.9186 0.625
112.9489 0.990
112.9792 0.833
113.0094 1.042
113.0397 1.042
113.0700 1.094
113.1003 1.042
113.1306 1.146
113.1608 1.354
113.1911 0.729
113.2214 1.302
113.2517 0.781
113.2819 1.042
113.3122 0.937
113.3425 0.417
113.3728 1.250
113.4031 0.885
113.4333 1.250
113.4636 1.302
113.4939 0.885
113.5242 0.781
113.5545 1.094
113.5847 0.833
113.6150 1.198
113.6453 0.937
113.6756 1.042
113.7058 0.937
113.7361 1.198
113.7664 1.250
113.7967 1.354
113.8270 0.937
113.8572 1.146
113.8875 1.250
113.9178 1.042
113.9481 0.729
113.9784 0.990
114.0086 1.458
114.0389 1.250
114.0692 1.094
114.0995 0.990
114.1298 1.094
114.1600 0.937
114.1903 1.406
114.2206 1.354
114.2509 1.042
114.2811 1.146
114.3114 0.885
114.3417 0.990
114.3720 0.937
114.4023 0.573
114.4325 0.990
114.4628 1.146
114.4931 1.198
114.5234 0.781
114.5537 1.094
114.5839 1.094
114.6142 1.146
114.6445 1.094
114.6748 1.302
114.7050 1.042
114.7353 0.990
114.7656 1.146
114.7959 1.510
114.8262 1.458
114.8564 1.250
114.8867 0.833
114.9170 1.302
114.9473 1.354
114.9776 1.094
115.0078 1.250
115.0381 1.042
115.0684 1.042
115.0987 1.458
115.1289 1.406
115.1592 1.094
115.1895 1.771
115.2198 0.885
115.2501 1.667
115.2803 1.198
115.3106 1.042
115.3409 1.094
115.3712 1.302
115.4015 1.615
115.4317 1.510
115.4620 1.198
115.4923 1.198
115.5226 1.146
115.5528 1.406
115.5831 1.406
115.6134 1.042
115.6437 1.875
115.6740 2.031
115.7042 1.302
115.7345 1.562
115.7648 1.406
115.7951 1.719
115.8254 1.667
115.8556 1.823
115.8859 1.510
115.9162 2.500
115.9465 2.187
115.9767 2.135
116.0070 1.875
116.0373 1.875
116.0676 1.615
116.0979 1.562
116.1281 2.240
116.1584 1.615
116.1887 1.875
116.2190 1.823
116.2493 1.927
116.2795 1.979
116.3098 2.708
116.3401 2.500
116.3704 1.927
116.4006 2.552
116.4309 1.979
116.4612 2.500
116.4915 2.344
116.5218 1.823
116.5520 1.979
116.5823 1.771
116.6126 1.615
116.6429 1.562
116.6732 1.979
116.7034 1.875
116.7337 1.667
116.7640 1.719
116.7943 1.875
116.8245 2.135
116.8548 1.667
116.8851 1.771
116.9154 1.719
116.9457 1.354
116.9759 1.562
117.0062 1.302
117.0365 1.198
117.0668 1.354
117.0971 1.719
117.1273 1.198
117.1576 0.677
117.1879 1.458
117.2182 1.302
117.2485 1.562
117.2787 0.990
117.3090 1.198
117.3393 1.146
117.3696 1.094
117.3998 1.094
117.4301 1.146
117.4604 1.094
117.4907 1.146
117.5210 1.042
117.5512 1.406
117.5815 1.302
117.6118 1.354
117.6421 1.250
117.6724 1.302
117.7026 1.875
117.7329 1.354
117.7632 1.510
117.7935 0.729
117.8237 1.510
117.8540 1.250
117.8843 1.250
117.9146 1.250
117.9449 0.885
117.9751 1.302
118.0054 0.729
118.0357 1.302
118.0660 1.250
118.0963 1.354
118.1265 1.406
118.1568 1.198
118.1871 0.937
118.2174 0.937
118.2476 1.250
118.2779 1.198
118.3082 1.250
118.3385 1.302
118.3688 1.250
118.3990 0.833
118.4293 0.990
118.4596 0.990
118.4899 0.625
118.5202 1.198
118.5504 1.094
118.5807 1.458
118.6110 0.937
118.6413 0.937
118.6715 0.990
118.7018 1.094
118.7321 1.302
118.7624 1.146
118.7927 0.990
118.8229 1.250
118.8532 0.781
118.8835 0.990
118.9138 0.833
118.9441 1.250
118.9743 1.146
119.0046 0.990
119.0349 0.833
119.0652 0.937
119.0954 1.146
119.1257 1.302
119.1560 0.885
119.1863 1.302
119.2166 1.406
119.2468 0.885
119.2771 0.833
119.3074 1.406
119.3377 1.406
119.3680 1.354
119.3982 1.042
119.4285 0.990
119.4588 1.146
119.4891 0.729
119.5193 1.042
119.5496 1.198
119.5799 0.573
119.6102 1.198
119.6405 0.937
119.6707 1.354
119.7010 1.406
119.7313 1.146
119.7616 1.302
119.7919 0.781
119.8221 1.302
119.8524 1.354
119.8827 1.562
119.9130 0.781
119.9433 1.354
119.9735 1.458
120.0038 0.521
