'Id: "" Comment: "" Operator: "Lab Manager" Anode: "Cu" Scantype: "Locked Coupled" TimePerStep: "19.2" X: "9999" Y: "9999" Z: "9999" 
10.0015 3.802
10.0318 3.177
10.0620 4.115
10.0923 3.750
10.1226 3.385
10.1529 3.490
10.1832 3.802
10.2134 3.073
10.2437 3.333
10.2740 4.167
10.3043 3.698
10.3346 3.333
10.3648 3.802
10.3951 2.865
10.4254 3.437
10.4557 2.969
10.4859 3.854
10.5162 3.437
10.5465 3.437
10.5768 3.177
10.6071 3.490
10.6373 3.125
10.6676 4.323
10.6979 3.958
10.7282 3.698
10.7585 3.698
10.7887 4.479
10.8190 4.687
10.8493 6.250
10.8796 5.156
10.9098 5.677
10.9401 7.292
10.9704 8.490
11.0007 7.500
11.0310 8.281
11.0612 9.948
11.0915 12.708
11.1218 12.656
11.1521 11.615
11.1824 10.833
11.2126 7.865
11.2429 7.344
11.2732 5.260
11.3035 4.740
11.3337 5.000
11.3640 4.323
11.3943 5.260
11.4246 3.958
11.4549 3.854
11.4851 3.802
11.5154 3.281
11.5457 4.010
11.5760 3.437
11.6063 3.281
11.6365 3.437
11.6668 3.854
11.6971 2.969
11.7274 3.125
11.7577 3.490
11.7879 3.698
11.8182 4.219
11.8485 4.010
11.8788 3.698
11.9090 3.594
11.9393 3.073
11.9696 3.073
11.9999 3.490
12.0302 3.698
12.0604 3.073
12.0907 3.958
12.1210 3.906
12.1513 3.958
12.1816 4.115
12.2118 3.073
12.2421 3.177
12.2724 3.542
12.3027 3.229
12.3329 3.125
12.3632 3.542
12.3935 3.542
12.4238 3.698
12.4541 3.333
12.4843 4.062
12.5146 2.760
12.5449 2.656
12.5752 3.437
12.6055 3.125
12.6357 3.802
12.6660 3.490
12.6963 3.333
12.7266 3.750
12.7568 3.229
12.7871 3.750
12.8174 3.385
12.8477 3.333
12.8780 3.802
12.9082 3.958
12.9385 3.177
12.9688 3.594
12.9991 3.698
13.0294 3.177
13.0596 3.437
13.0899 3.333
13.1202 3.125
13.1505 2.760
13.1807 2.812
13.2110 2.604
13.2413 3.906
13.2716 2.969
13.3019 2.812
13.3321 2.760
13.3624 3.073
13.3927 2.656
13.4230 3.958
13.4533 2.917
13.4835 3.542
13.5138 2.344
13.5441 2.865
13.5744 2.812
13.6046 3.021
13.6349 2.187
13.6652 3.333
13.6955 3.177
13.7258 3.698
13.7560 3.125
13.7863 2.969
13.8166 3.385
13.8469 3.021
13.8772 3.333
13.9074 2.969
13.9377 2.187
13.9680 3.073
13.9983 2.500
14.0285 3.281
14.0588 2.865
14.0891 2.865
14.1194 2.500
14.1497 2.865
14.1799 3.333
14.2102 2.396
14.2405 3.542
14.2708 2.708
14.3011 3.385
14.3313 3.125
14.3616 3.073
14.3919 3.021
14.4222 3.490
14.4524 3.021
14.4827 3.021
14.5130 3.490
14.5433 2.917
14.5736 3.125
14.6038 2.448
14.6341 3.073
14.6644 2.500
14.6947 2.760
14.7250 3.021
14.7552 2.448
14.7855 2.969
14.8158 2.604
14.8461 3.802
14.8764 3.750
14.9066 3.021
14.9369 2.448
14.9672 3.073
14.9975 2.552
15.0277 3.021
15.0580 3.177
15.0883 2.917
15.1186 2.917
15.1489 1.875
15.1791 2.656
15.2094 2.604
15.2397 2.240
15.2700 3.229
15.3003 2.083
15.3305 3.698
15.3608 2.917
15.3911 3.594
15.4214 3.073
15.4516 3.073
15.4819 2.604
15.5122 2.135
15.5425 3.177
15.5728 2.344
15.6030 2.396
15.6333 1.875
15.6636 2.812
15.6939 3.125
15.7242 2.917
15.7544 2.500
15.7847 3.906
15.8150 2.917
15.8453 2.292
15.8755 3.594
15.9058 2.552
15.9361 3.437
15.9664 3.333
15.9967 2.708
16.0269 2.656
16.0572 3.021
16.0875 3.177
16.1178 3.021
16.1481 2.083
16.1783 2.083
16.2086 2.708
16.2389 2.865
16.2692 2.552
16.2994 2.708
16.3297 2.292
16.3600 2.135
16.3903 3.437
16.4206 2.552
16.4508 3.542
16.4811 3.490
16.5114 2.917
16.5417 2.135
16.5720 2.812
16.6022 2.604
16.6325 2.604
16.6628 2.917
16.6931 3.333
16.7233 2.656
16.7536 3.229
16.7839 3.229
16.8142 2.865
16.8445 2.708
16.8747 2.969
16.9050 3.750
16.9353 2.344
16.9656 3.333
16.9959 3.021
17.0261 2.500
17.0564 3.333
17.0867 3.542
17.1170 2.969
17.1472 3.385
17.1775 2.552
17.2078 2.500
17.2381 2.969
17.2684 2.135
17.2986 2.969
17.3289 2.969
17.3592 2.240
17.3895 3.177
17.4198 2.135
17.4500 3.177
17.4803 2.760
17.5106 2.865
17.5409 2.031
17.5712 3.073
17.6014 2.656
17.6317 2.812
17.6620 2.292
17.6923 2.344
17.7225 2.969
17.7528 2.448
17.7831 3.385
17.8134 2.865
17.8437 3.073
17.8739 2.396
17.9042 2.812
17.9345 2.396
17.9648 2.552
17.9951 2.031
18.0253 2.552
18.0556 3.229
18.0859 2.396
18.1162 2.865
18.1464 2.708
18.1767 2.500
18.2070 3.177
18.2373 2.500
18.2676 3.333
18.2978 2.604
18.3281 2.292
18.3584 2.344
18.3887 3.177
18.4190 2.031
18.4492 3.177
18.4795 2.812
18.5098 2.760
18.5401 2.292
18.5703 3.281
18.6006 3.177
18.6309 2.292
18.6612 2.656
18.6915 3.125
18.7217 3.021
18.7520 2.292
18.7823 2.969
18.8126 2.917
18.8429 2.500
18.8731 2.083
18.9034 2.760
18.9337 2.448
18.9640 2.500
18.9942 2.135
19.0245 2.604
19.0548 1.979
19.0851 2.187
19.1154 2.760
19.1456 3.073
19.1759 2.500
19.2062 2.969
19.2365 2.292
19.2668 2.760
19.2970 2.187
19.3273 2.448
19.3576 2.292
19.3879 2.969
19.4181 1.927
19.4484 2.760
19.4787 2.917
19.5090 3.073
19.5393 2.344
19.5695 2.865
19.5998 3.906
19.6301 2.187
19.6604 2.240
19.6907 2.604
19.7209 1.719
19.7512 2.656
19.7815 2.865
19.8118 1.771
19.8420 2.760
19.8723 2.083
19.9026 2.865
19.9329 2.552
19.9632 1.979
19.9934 1.927
20.0237 2.708
20.0540 2.708
20.0843 2.656
20.1146 2.656
20.1448 2.552
20.1751 2.083
20.2054 2.187
20.2357 2.760
20.2659 2.344
20.2962 2.708
20.3265 2.552
20.3568 2.135
20.3871 2.135
20.4173 2.552
20.4476 1.875
20.4779 2.344
20.5082 2.344
20.5385 2.656
20.5687 2.240
20.5990 1.927
20.6293 1.771
20.6596 2.656
20.6899 2.500
20.7201 2.292
20.7504 1.719
20.7807 2.240
20.8110 2.448
20.8412 2.865
20.8715 2.656
20.9018 2.656
20.9321 2.500
20.9624 2.865
20.9926 2.135
21.0229 2.865
21.0532 1.875
21.0835 2.240
21.1138 2.083
21.1440 2.760
21.1743 2.604
21.2046 2.552
21.2349 1.927
21.2651 2.500
21.2954 2.031
21.3257 3.073
21.3560 2.604
21.3863 1.771
21.4165 2.656
21.4468 3.333
21.4771 2.448
21.5074 2.240
21.5377 2.083
21.5679 2.500
21.5982 1.823
21.6285 2.083
21.6588 2.812
21.6890 2.812
21.7193 2.240
21.7496 2.031
21.7799 2.448
21.8102 2.240
21.8404 2.812
21.8707 2.865
21.9010 2.344
21.9313 2.604
21.9616 2.865
21.9918 2.448
22.0221 2.344
22.0524 1.771
22.0827 1.927
22.1129 2.604
22.1432 2.500
22.1735 2.344
22.2038 2.344
22.2341 2.656
22.2643 2.448
22.2946 2.135
22.3249 2.448
22.3552 2.240
22.3855 1.562
22.4157 2.187
22.4460 2.812
22.4763 2.708
22.5066 2.917
22.5368 2.865
22.5671 2.604
22.5974 3.281
22.6277 1.927
22.6580 2.083
22.6882 2.187
22.7185 2.448
22.7488 2.969
22.7791 2.187
22.8094 2.083
22.8396 2.500
22.8699 2.344
22.9002 2.708
22.9305 2.604
22.9607 2.552
22.9910 2.812
23.0213 2.708
23.0516 2.031
23.0819 2.656
23.1121 2.396
23.1424 2.552
23.1727 2.865
23.2030 2.812
23.2333 2.292
23.2635 3.229
23.2938 3.125
23.3241 2.552
23.3544 2.396
23.3846 2.604
23.4149 2.500
23.4452 2.604
23.4755 1.510
23.5058 2.240
23.5360 2.292
23.5663 2.240
23.5966 2.135
23.6269 2.292
23.6572 2.396
23.6874 2.969
23.7177 3.177
23.7480 2.344
23.7783 2.083
23.8086 2.760
23.8388 1.875
23.8691 2.344
23.8994 2.344
23.9297 2.604
23.9599 2.708
23.9902 1.771
24.0205 1.875
24.0508 1.875
24.0811 2.344
24.1113 2.552
24.1416 2.344
24.1719 3.177
24.2022 1.458
24.2325 1.979
24.2627 2.187
24.2930 2.187
24.3233 2.448
24.3536 2.656
24.3838 2.656
24.4141 2.500
24.4444 2.396
24.4747 1.771
24.5050 1.927
24.5352 1.979
24.5655 1.875
24.5958 2.031
24.6261 2.344
24.6564 2.552
24.6866 1.667
24.7169 2.448
24.7472 1.927
24.7775 2.083
24.8077 2.604
24.8380 2.760
24.8683 2.917
24.8986 2.865
24.9289 2.396
24.9591 2.500
24.9894 1.875
25.0197 2.240
25.0500 1.875
25.0803 2.656
25.1105 1.667
25.1408 2.031
25.1711 1.927
25.2014 1.927
25.2316 2.656
25.2619 1.979
25.2922 2.865
25.3225 2.656
25.3528 2.760
25.3830 2.135
25.4133 2.135
25.4436 2.135
25.4739 2.760
25.5042 2.344
25.5344 2.292
25.5647 1.927
25.5950 2.344
25.6253 3.125
25.6555 2.656
25.6858 3.490
25.7161 1.875
25.7464 2.292
25.7767 2.083
25.8069 2.187
25.8372 2.083
25.8675 2.292
25.8978 2.187
25.9281 2.240
25.9583 2.656
25.9886 2.396
26.0189 2.604
26.0492 2.448
26.0794 2.292
26.1097 2.812
26.1400 2.187
26.1703 2.344
26.2006 2.240
26.2308 2.083
26.2611 2.448
26.2914 2.187
26.3217 2.656
26.3520 2.656
26.3822 2.292
26.4125 2.083
26.4428 1.562
26.4731 3.073
26.5034 1.875
26.5336 2.552
26.5639 2.552
26.5942 2.187
26.6245 2.083
26.6547 2.240
26.6850 2.500
26.7153 2.604
26.7456 1.927
26.7759 2.865
26.8061 1.979
26.8364 2.552
26.8667 2.812
26.8970 3.021
26.9273 2.448
26.9575 2.448
26.9878 2.552
27.0181 2.135
27.0484 2.604
27.0786 2.500
27.1089 2.865
27.1392 2.760
27.1695 2.500
27.1998 2.865
27.2300 2.135
27.2603 2.656
27.2906 2.917
27.3209 2.500
27.3512 2.812
27.3814 3.073
27.4117 2.135
27.4420 2.760
27.4723 2.656
27.5025 3.698
27.5328 2.396
27.5631 2.448
27.5934 2.917
27.6237 2.448
27.6539 3.281
27.6842 2.708
27.7145 2.396
27.7448 2.187
27.7751 3.021
27.8053 2.240
27.8356 2.604
27.8659 2.604
27.8962 2.708
27.9264 2.448
27.9567 2.865
27.9870 2.604
28.0173 2.552
28.0476 2.760
28.0778 2.865
28.1081 3.437
28.1384 2.240
28.1687 2.448
28.1990 2.240
28.2292 3.333
28.2595 2.865
28.2898 2.552
28.3201 2.552
28.3503 3.594
28.3806 2.917
28.4109 2.500
28.4412 3.125
28.4715 2.969
28.5017 3.490
28.5320 3.646
28.5623 3.073
28.5926 2.656
28.6229 3.594
28.6531 3.229
28.6834 3.177
28.7137 2.708
28.7440 2.500
28.7742 2.708
28.8045 3.021
28.8348 2.865
28.8651 3.281
28.8954 2.708
28.9256 3.229
28.9559 2.812
28.9862 3.125
29.0165 2.448
29.0468 3.125
29.0770 2.865
29.1073 2.292
29.1376 2.812
29.1679 3.281
29.1981 2.812
29.2284 3.437
29.2587 3.073
29.2890 3.281
29.3193 2.812
29.3495 3.073
29.3798 3.021
29.4101 3.333
29.4404 2.135
29.4707 3.437
29.5009 3.750
29.5312 3.594
29.5615 3.854
29.5918 3.698
29.6221 3.437
29.6523 3.698
29.6826 2.656
29.7129 3.385
29.7432 3.385
29.7734 3.802
29.8037 3.125
29.8340 3.698
29.8643 3.646
29.8946 4.115
29.9248 3.490
29.9551 4.375
29.9854 3.542
30.0157 3.385
30.0460 3.385
30.0762 4.115
30.1065 4.115
30.1368 4.375
30.1671 4.271
30.1973 4.479
30.2276 5.208
30.2579 4.271
30.2882 4.531
30.3185 3.854
30.3487 4.062
30.3790 4.479
30.4093 4.479
30.4396 5.000
30.4699 4.844
30.5001 4.948
30.5304 4.948
30.5607 6.667
30.5910 5.365
30.6212 6.510
30.6515 5.052
30.6818 6.927
30.7121 6.667
30.7424 6.146
30.7726 7.240
30.8029 7.604
30.8332 7.656
30.8635 7.135
30.8938 7.917
30.9240 8.490
30.9543 9.375
30.9846 8.698
31.0149 9.427
31.0451 9.792
31.0754 12.500
31.1057 11.979
31.1360 13.177
31.1663 12.187
31.1965 15.469
31.2268 14.948
31.2571 17.500
31.2874 16.875
31.3177 19.479
31.3479 22.552
31.3782 25.052
31.4085 28.437
31.4388 28.490
31.4690 31.510
31.4993 32.500
31.5296 37.812
31.5599 40.833
31.5902 39.583
31.6204 43.021
31.6507 40.833
31.6810 41.719
31.7113 40.365
31.7416 36.562
31.7718 31.146
31.8021 29.167
31.8324 29.635
31.8627 23.594
31.8929 22.760
31.9232 19.948
31.9535 17.031
31.9838 16.771
32.0141 15.000
32.0443 13.490
32.0746 13.594
32.1049 10.052
32.1352 12.031
32.1655 9.687
32.1957 8.385
32.2260 9.844
32.2563 8.437
32.2866 8.646
32.3169 7.760
32.3471 7.865
32.3774 6.823
32.4077 8.698
32.4380 6.927
32.4682 6.667
32.4985 6.302
32.5288 5.885
32.5591 6.823
32.5894 6.458
32.6196 6.406
32.6499 6.146
32.6802 6.302
32.7105 6.042
32.7408 6.094
32.7710 5.781
32.8013 4.583
32.8316 4.948
32.8619 5.312
32.8921 5.573
32.9224 5.417
32.9527 4.792
32.9830 5.573
33.0133 5.312
33.0435 4.687
33.0738 4.948
33.1041 4.687
33.1344 4.896
33.1647 5.260
33.1949 4.062
33.2252 5.156
33.2555 5.104
33.2858 5.000
33.3160 5.729
33.3463 5.417
33.3766 5.729
33.4069 4.740
33.4372 4.219
33.4674 4.792
33.4977 5.000
33.5280 5.625
33.5583 5.312
33.5886 5.885
33.6188 5.677
33.6491 5.677
33.6794 6.615
33.7097 7.552
33.7399 5.885
33.7702 7.708
33.8005 8.437
33.8308 8.385
33.8611 9.062
33.8913 8.802
33.9216 10.625
33.9519 12.240
33.9822 12.135
34.0125 13.698
34.0427 16.354
34.0730 18.073
34.1033 19.948
34.1336 23.125
34.1638 28.490
34.1941 33.437
34.2244 43.385
34.2547 49.792
34.2850 51.615
34.3152 49.531
34.3455 49.219
34.3758 42.240
34.4061 34.948
34.4364 27.812
34.4666 25.521
34.4969 20.781
34.5272 17.656
34.5575 14.740
34.5877 11.719
34.6180 11.979
34.6483 10.156
34.6786 11.198
34.7089 9.792
34.7391 8.646
34.7694 9.687
34.7997 8.385
34.8300 8.125
34.8603 9.219
34.8905 8.646
34.9208 8.854
34.9511 7.812
34.9814 7.865
35.0116 7.604
35.0419 6.927
35.0722 8.385
35.1025 9.375
35.1328 7.292
35.1630 9.219
35.1933 9.323
35.2236 9.062
35.2539 9.844
35.2842 8.385
35.3144 10.000
35.3447 9.479
35.3750 9.583
35.4053 10.521
35.4356 12.187
35.4658 11.875
35.4961 12.656
35.5264 12.812
35.5567 12.656
35.5869 14.740
35.6172 15.365
35.6475 15.833
35.6778 20.885
35.7081 20.833
35.7383 23.177
35.7686 24.583
35.7989 24.896
35.8292 29.792
35.8595 33.437
35.8897 37.240
35.9200 39.740
35.9503 41.302
35.9806 44.583
36.0108 52.187
36.0411 51.615
36.0714 56.771
36.1017 57.500
36.1320 57.187
36.1622 57.396
36.1925 54.896
36.2228 51.823
36.2531 49.531
36.2834 46.562
36.3136 43.542
36.3439 37.448
36.3742 33.281
36.4045 29.740
36.4347 25.365
36.4650 22.760
36.4953 21.875
36.5256 19.740
36.5559 17.604
36.5861 15.573
36.6164 14.583
36.6467 13.333
36.6770 10.781
36.7073 12.240
36.7375 10.885
36.7678 10.573
36.7981 11.562
36.8284 9.948
36.8586 8.229
36.8889 7.656
36.9192 8.385
36.9495 6.979
36.9798 7.760
37.0100 6.875
37.0403 6.406
37.0706 6.667
37.1009 6.823
37.1312 6.406
37.1614 5.104
37.1917 5.677
37.2220 5.260
37.2523 5.625
37.2825 5.365
37.3128 4.896
37.3431 6.198
37.3734 4.219
37.4037 4.792
37.4339 3.646
37.4642 5.521
37.4945 4.479
37.5248 4.010
37.5551 5.052
37.5853 4.479
37.6156 3.385
37.6459 3.437
37.6762 4.062
37.7064 4.375
37.7367 3.750
37.7670 3.073
37.7973 3.802
37.8276 4.062
37.8578 4.271
37.8881 3.490
37.9184 3.229
37.9487 3.385
37.9790 2.969
38.0092 3.229
38.0395 2.969
38.0698 3.073
38.1001 3.542
38.1304 3.333
38.1606 2.865
38.1909 3.229
38.2212 2.969
38.2515 2.448
38.2817 3.333
38.3120 2.760
38.3423 2.240
38.3726 3.229
38.4029 2.812
38.4331 2.708
38.4634 2.500
38.4937 2.708
38.5240 3.073
38.5543 2.344
38.5845 3.229
38.6148 2.917
38.6451 2.604
38.6754 2.344
38.7056 2.448
38.7359 2.865
38.7662 2.656
38.7965 2.344
38.8268 2.552
38.8570 2.500
38.8873 2.240
38.9176 2.604
38.9479 2.552
38.9782 2.083
39.0084 3.073
39.0387 2.552
39.0690 2.552
39.0993 3.073
39.1295 2.135
39.1598 2.448
39.1901 2.240
39.2204 2.760
39.2507 2.760
39.2809 2.135
39.3112 1.615
39.3415 1.927
39.3718 1.875
39.4021 1.771
39.4323 2.708
39.4626 2.187
39.4929 1.719
39.5232 2.031
39.5534 1.927
39.5837 2.083
39.6140 2.292
39.6443 2.292
39.6746 1.510
39.7048 2.187
39.7351 2.448
39.7654 2.552
39.7957 1.927
39.8260 2.031
39.8562 1.875
39.8865 2.344
39.9168 1.875
39.9471 2.187
39.9773 2.240
40.0076 1.823
40.0379 2.187
40.0682 2.656
40.0985 2.656
40.1287 2.552
40.1590 1.875
40.1893 1.615
40.2196 1.615
40.2499 1.719
40.2801 1.458
40.3104 1.771
40.3407 1.823
40.3710 1.771
40.4012 1.875
40.4315 2.656
40.4618 1.354
40.4921 2.448
40.5224 2.500
40.5526 2.500
40.5829 1.823
40.6132 1.198
40.6435 1.875
40.6738 1.875
40.7040 1.875
40.7343 2.708
40.7646 1.875
40.7949 1.667
40.8251 1.823
40.8554 1.406
40.8857 1.719
40.9160 1.771
40.9463 2.187
40.9765 1.927
41.0068 2.187
41.0371 2.187
41.0674 2.292
41.0977 1.719
41.1279 1.823
41.1582 1.510
41.1885 2.344
41.2188 2.344
41.2491 1.823
41.2793 2.135
41.3096 1.615
41.3399 1.771
41.3702 2.396
41.4004 1.823
41.4307 1.979
41.4610 1.510
41.4913 1.406
41.5216 2.135
41.5518 2.396
41.5821 1.458
41.6124 1.927
41.6427 2.187
41.6730 1.615
41.7032 1.354
41.7335 2.031
41.7638 2.187
41.7941 1.562
41.8243 1.875
41.8546 2.760
41.8849 2.240
41.9152 1.458
41.9455 1.719
41.9757 2.187
42.0060 1.771
42.0363 1.458
42.0666 2.083
42.0969 1.719
42.1271 1.615
42.1574 2.031
42.1877 1.771
42.2180 1.771
42.2482 1.823
42.2785 1.667
42.3088 2.187
42.3391 1.927
42.3694 1.667
42.3996 1.198
42.4299 1.823
42.4602 1.875
42.4905 1.875
42.5208 2.240
42.5510 2.135
42.5813 1.562
42.6116 1.979
42.6419 1.667
42.6721 1.719
42.7024 2.187
42.7327 2.031
42.7630 1.927
42.7933 2.135
42.8235 2.448
42.8538 1.562
42.8841 1.667
42.9144 1.875
42.9447 2.083
42.9749 2.344
43.0052 1.406
43.0355 1.562
43.0658 1.562
43.0960 1.875
43.1263 1.875
43.1566 1.823
43.1869 1.094
43.2172 1.458
43.2474 2.083
43.2777 1.719
43.3080 2.344
43.3383 1.979
43.3686 2.031
43.3988 1.979
43.4291 1.302
43.4594 1.615
43.4897 1.406
43.5199 2.031
43.5502 2.240
43.5805 2.292
43.6108 2.240
43.6411 1.771
43.6713 1.406
43.7016 2.031
43.7319 1.875
43.7622 2.292
43.7925 1.979
43.8227 1.667
43.8530 1.823
43.8833 2.083
43.9136 2.240
43.9439 2.083
43.9741 1.875
44.0044 1.406
44.0347 1.771
44.0650 2.292
44.0952 1.667
44.1255 1.719
44.1558 1.771
44.1861 1.927
44.2164 1.823
44.2466 1.927
44.2769 1.406
44.3072 1.667
44.3375 1.719
44.3678 1.823
44.3980 1.719
44.4283 1.719
44.4586 1.510
44.4889 1.458
44.5191 2.500
44.5494 1.719
44.5797 1.771
44.6100 1.771
44.6403 1.302
44.6705 2.187
44.7008 1.979
44.7311 2.083
44.7614 1.719
44.7917 2.240
44.8219 2.031
44.8522 1.458
44.8825 2.187
44.9128 1.719
44.9430 2.500
44.9733 2.031
45.0036 1.667
45.0339 1.875
45.0642 1.562
45.0944 1.979
45.1247 1.719
45.1550 1.927
45.1853 1.562
45.2156 2.031
45.2458 2.187
45.2761 1.771
45.3064 1.667
45.3367 1.667
45.3669 2.135
45.3972 2.292
45.4275 1.979
45.4578 1.615
45.4881 2.760
45.5183 2.604
45.5486 2.187
45.5789 1.615
45.6092 1.719
45.6395 2.031
45.6697 1.979
45.7000 2.708
45.7303 1.823
45.7606 1.615
45.7908 1.823
45.8211 1.562
45.8514 2.135
45.8817 1.667
45.9120 2.708
45.9422 1.771
45.9725 1.927
46.0028 1.979
46.0331 2.448
46.0634 1.875
46.0936 2.187
46.1239 2.396
46.1542 1.875
46.1845 2.396
46.2147 2.969
46.2450 1.927
46.2753 2.240
46.3056 2.396
46.3359 2.240
46.3661 2.604
46.3964 2.865
46.4267 2.292
46.4570 2.552
46.4873 1.979
46.5175 2.865
46.5478 3.177
46.5781 3.281
46.6084 2.917
46.6386 3.021
46.6689 3.385
46.6992 2.969
46.7295 3.594
46.7598 3.333
46.7900 3.698
46.8203 4.271
46.8506 4.479
46.8809 4.323
46.9112 4.010
46.9414 4.323
46.9717 4.635
47.0020 5.937
47.0323 5.990
47.0626 4.740
47.0928 6.302
47.1231 7.552
47.1534 8.125
47.1837 10.104
47.2139 9.010
47.2442 11.250
47.2745 10.625
47.3048 10.937
47.3351 12.292
47.3653 12.240
47.3956 13.750
47.4259 13.698
47.4562 13.333
47.4865 12.812
47.5167 10.885
47.5470 10.365
47.5773 10.990
47.6076 8.281
47.6378 7.656
47.6681 8.073
47.6984 7.969
47.7287 6.354
47.7590 6.042
47.7892 5.729
47.8195 5.208
47.8498 5.417
47.8801 4.375
47.9104 4.167
47.9406 3.698
47.9709 4.062
48.0012 2.969
48.0315 2.708
48.0617 2.865
48.0920 2.969
48.1223 3.177
48.1526 3.125
48.1829 2.917
48.2131 3.385
48.2434 2.552
48.2737 1.927
48.3040 2.917
48.3343 2.292
48.3645 2.344
48.3948 2.240
48.4251 2.031
48.4554 2.292
48.4856 2.187
48.5159 2.187
48.5462 2.292
48.5765 2.187
48.6068 2.187
48.6370 1.823
48.6673 1.875
48.6976 1.979
48.7279 2.292
48.7582 2.344
48.7884 1.875
48.8187 2.240
48.8490 2.187
48.8793 1.615
48.9095 1.667
48.9398 2.135
48.9701 2.500
49.0004 1.771
49.0307 1.823
49.0609 2.083
49.0912 1.667
49.1215 1.927
49.1518 2.031
49.1821 1.615
49.2123 1.719
49.2426 1.615
49.2729 1.615
49.3032 1.771
49.3334 1.927
49.3637 1.510
49.3940 1.719
49.4243 2.187
49.4546 2.448
49.4848 1.615
49.5151 1.719
49.5454 1.927
49.5757 1.979
49.6060 2.135
49.6362 2.083
49.6665 1.927
49.6968 1.562
49.7271 1.719
49.7574 2.292
49.7876 1.823
49.8179 2.135
49.8482 1.979
49.8785 1.302
49.9087 1.250
49.9390 1.667
49.9693 2.604
49.9996 2.083
50.0299 1.823
50.0601 1.615
50.0904 1.927
50.1207 1.875
50.1510 1.667
50.1813 1.875
50.2115 1.615
50.2418 1.875
50.2721 1.875
50.3024 1.667
50.3326 1.302
50.3629 1.667
50.3932 2.031
50.4235 1.615
50.4538 1.875
50.4840 1.979
50.5143 1.979
50.5446 1.406
50.5749 2.083
50.6052 1.979
50.6354 1.875
50.6657 1.823
50.6960 1.562
50.7263 1.354
50.7565 1.667
50.7868 1.875
50.8171 1.510
50.8474 2.031
50.8777 1.406
50.9079 2.031
50.9382 1.458
50.9685 1.562
50.9988 1.979
51.0291 1.458
51.0593 1.302
51.0896 1.771
51.1199 1.667
51.1502 1.562
51.1804 1.875
51.2107 1.615
51.2410 1.562
51.2713 1.927
51.3016 2.656
51.3318 1.771
51.3621 2.031
51.3924 1.771
51.4227 1.667
51.4530 1.458
51.4832 1.042
51.5135 1.458
51.5438 2.135
51.5741 1.615
51.6043 1.615
51.6346 1.771
51.6649 1.615
51.6952 1.719
51.7255 1.719
51.7557 1.458
51.7860 1.406
51.8163 1.719
51.8466 2.083
51.8769 2.187
51.9071 1.927
51.9374 1.146
51.9677 1.875
51.9980 1.771
52.0282 1.771
52.0585 2.187
52.0888 1.927
52.1191 1.406
52.1494 2.187
52.1796 1.927
52.2099 1.771
52.2402 2.448
52.2705 1.823
52.3008 1.823
52.3310 1.458
52.3613 1.719
52.3916 2.031
52.4219 1.719
52.4521 1.927
52.4824 1.875
52.5127 1.927
52.5430 1.562
52.5733 1.354
52.6035 1.823
52.6338 2.135
52.6641 1.250
52.6944 1.562
52.7247 1.302
52.7549 1.875
52.7852 2.083
52.8155 1.615
52.8458 1.458
52.8761 1.615
52.9063 1.667
52.9366 2.344
52.9669 1.146
52.9972 1.823
53.0274 1.667
53.0577 1.979
53.0880 1.771
53.1183 1.927
53.1486 2.292
53.1788 1.302
53.2091 2.083
53.2394 2.083
53.2697 2.552
53.3000 1.354
53.3302 1.823
53.3605 1.302
53.3908 2.344
53.4211 1.979
53.4513 1.615
53.4816 2.135
53.5119 1.771
53.5422 2.083
53.5725 1.771
53.6027 1.771
53.6330 1.719
53.6633 1.667
53.6936 2.135
53.7239 1.927
53.7541 2.187
53.7844 2.240
53.8147 2.083
53.8450 2.083
53.8752 1.771
53.9055 1.771
53.9358 1.667
53.9661 2.500
53.9964 1.823
54.0266 1.719
54.0569 1.979
54.0872 1.771
54.1175 1.979
54.1478 2.292
54.1780 1.719
54.2083 1.667
54.2386 2.240
54.2689 1.823
54.2991 2.865
54.3294 1.771
54.3597 1.927
54.3900 2.656
54.4203 2.135
54.4505 1.302
54.4808 1.562
54.5111 2.083
54.5414 1.771
54.5717 2.240
54.6019 1.719
54.6322 1.823
54.6625 1.458
54.6928 1.510
54.7230 1.875
54.7533 1.615
54.7836 1.562
54.8139 2.448
54.8442 2.969
54.8744 1.823
54.9047 1.823
54.9350 3.021
54.9653 1.927
54.9956 2.083
55.0258 1.875
55.0561 2.187
55.0864 2.396
55.1167 2.656
55.1469 2.448
55.1772 2.135
55.2075 2.135
55.2378 2.292
55.2681 2.656
55.2983 2.187
55.3286 2.708
55.3589 2.187
55.3892 3.021
55.4195 2.083
55.4497 2.760
55.4800 3.333
55.5103 3.021
55.5406 3.854
55.5709 4.062
55.6011 3.490
55.6314 3.385
55.6617 3.594
55.6920 3.646
55.7222 3.854
55.7525 4.323
55.7828 4.219
55.8131 4.792
55.8434 5.625
55.8736 4.271
55.9039 5.000
55.9342 5.573
55.9645 4.687
55.9948 6.198
56.0250 5.781
56.0553 7.083
56.0856 6.875
56.1159 7.083
56.1461 9.062
56.1764 9.010
56.2067 8.698
56.2370 11.667
56.2673 11.198
56.2975 12.135
56.3278 13.229
56.3581 14.427
56.3884 12.708
56.4187 16.823
56.4489 16.562
56.4792 16.667
56.5095 14.635
56.5398 15.156
56.5700 15.573
56.6003 14.167
56.6306 12.917
56.6609 11.979
56.6912 10.104
56.7214 9.583
56.7517 9.219
56.7820 8.229
56.8123 7.656
56.8426 6.458
56.8728 7.135
56.9031 5.833
56.9334 6.615
56.9637 5.521
56.9939 4.896
57.0242 5.885
57.0545 4.375
57.0848 4.375
57.1151 4.010
57.1453 3.958
57.1756 4.323
57.2059 3.281
57.2362 3.073
57.2665 2.708
57.2967 3.698
57.3270 3.229
57.3573 2.708
57.3876 2.552
57.4178 2.812
57.4481 2.760
57.4784 2.187
57.5087 2.187
57.5390 3.333
57.5692 2.344
57.5995 2.604
57.6298 2.240
57.6601 2.187
57.6904 1.979
57.7206 2.865
57.7509 2.240
57.7812 2.708
57.8115 2.240
57.8417 2.656
57.8720 1.927
57.9023 2.187
57.9326 1.875
57.9629 2.708
57.9931 1.302
58.0234 2.031
58.0537 2.604
58.0840 1.615
58.1143 2.031
58.1445 2.240
58.1748 1.823
58.2051 2.292
58.2354 2.448
58.2656 2.135
58.2959 1.719
58.3262 2.240
58.3565 1.667
58.3868 2.292
58.4170 2.135
58.4473 2.135
58.4776 1.562
58.5079 2.031
58.5382 1.823
58.5684 1.667
58.5987 1.875
58.6290 2.396
58.6593 1.667
58.6896 2.135
58.7198 1.562
58.7501 1.927
58.7804 2.240
58.8107 2.187
58.8409 1.927
58.8712 1.771
58.9015 2.187
58.9318 2.135
58.9621 1.875
58.9923 2.292
59.0226 1.823
59.0529 1.771
59.0832 1.823
59.1135 1.562
59.1437 1.927
59.1740 1.979
59.2043 2.344
59.2346 1.562
59.2648 1.510
59.2951 1.771
59.3254 1.510
59.3557 2.083
59.3860 1.979
59.4162 1.667
59.4465 2.031
59.4768 1.771
59.5071 1.771
59.5374 1.562
59.5676 1.458
59.5979 2.031
59.6282 1.250
59.6585 2.135
59.6887 1.406
59.7190 1.458
59.7493 2.344
59.7796 1.771
59.8099 1.354
59.8401 1.406
59.8704 2.135
59.9007 1.875
59.9310 1.198
59.9613 1.823
59.9915 2.031
60.0218 1.510
60.0521 1.406
60.0824 1.615
60.1126 1.667
60.1429 1.562
60.1732 2.135
60.2035 1.354
60.2338 1.771
60.2640 1.510
60.2943 2.344
60.3246 1.823
60.3549 2.240
60.3852 1.771
60.4154 2.031
60.4457 2.083
60.4760 1.979
60.5063 1.302
60.5365 2.187
60.5668 1.667
60.5971 2.344
60.6274 2.031
60.6577 1.562
60.6879 1.615
60.7182 2.344
60.7485 1.771
60.7788 1.562
60.8091 2.083
60.8393 2.708
60.8696 2.187
60.8999 1.927
60.9302 1.302
60.9604 1.823
60.9907 2.240
61.0210 2.292
61.0513 2.083
61.0816 1.875
61.1118 2.344
61.1421 1.719
61.1724 2.083
61.2027 2.135
61.2330 2.083
61.2632 2.865
61.2935 2.135
61.3238 1.615
61.3541 1.979
61.3844 2.031
61.4146 2.031
61.4449 2.083
61.4752 2.292
61.5055 2.760
61.5357 2.083
61.5660 2.604
61.5963 2.656
61.6266 2.604
61.6569 2.500
61.6871 2.448
61.7174 2.396
61.7477 2.656
61.7780 2.865
61.8083 2.812
61.8385 3.177
61.8688 2.448
61.8991 3.125
61.9294 2.500
61.9596 3.802
61.9899 3.021
62.0202 3.125
62.0505 4.583
62.0808 4.479
62.1110 3.542
62.1413 4.896
62.1716 4.323
62.2019 3.281
62.2322 4.687
62.2624 4.010
62.2927 4.427
62.3230 4.896
62.3533 6.719
62.3835 7.448
62.4138 6.979
62.4441 7.344
62.4744 8.594
62.5047 9.010
62.5349 10.677
62.5652 10.625
62.5955 12.969
62.6258 12.604
62.6561 10.417
62.6863 13.021
62.7166 12.552
62.7469 13.958
62.7772 13.125
62.8074 13.802
62.8377 11.719
62.8680 12.552
62.8983 11.979
62.9286 13.177
62.9588 9.948
62.9891 8.698
63.0194 8.125
63.0497 7.969
63.0800 7.083
63.1102 7.552
63.1405 5.885
63.1708 5.365
63.2011 6.719
63.2313 4.427
63.2616 5.365
63.2919 4.479
63.3222 3.646
63.3525 3.802
63.3827 4.062
63.4130 3.333
63.4433 3.906
63.4736 2.812
63.5039 3.229
63.5341 3.125
63.5644 3.021
63.5947 2.917
63.6250 2.500
63.6552 2.604
63.6855 2.552
63.7158 2.448
63.7461 2.187
63.7764 2.656
63.8066 2.656
63.8369 2.865
63.8672 2.656
63.8975 2.396
63.9278 2.187
63.9580 2.135
63.9883 2.083
64.0186 2.708
64.0489 2.083
64.0791 1.875
64.1094 1.771
64.1397 2.135
64.1700 2.292
64.2003 2.135
64.2305 2.500
64.2608 1.667
64.2911 1.823
64.3214 2.344
64.3517 1.927
64.3819 1.406
64.4122 2.083
64.4425 2.500
64.4728 1.354
64.5031 1.927
64.5333 2.187
64.5636 1.927
64.5939 2.187
64.6242 1.927
64.6544 2.396
64.6847 2.500
64.7150 1.979
64.7453 2.083
64.7756 1.719
64.8058 2.031
64.8361 2.812
64.8664 2.083
64.8967 1.562
64.9270 2.552
64.9572 2.031
64.9875 2.396
65.0178 2.292
65.0481 1.823
65.0783 2.135
65.1086 1.615
65.1389 1.719
65.1692 1.615
65.1995 2.031
65.2297 1.719
65.2600 2.448
65.2903 2.135
65.3206 2.448
65.3509 2.031
65.3811 2.031
65.4114 2.396
65.4417 1.927
65.4720 2.135
65.5022 2.708
65.5325 2.344
65.5628 2.292
65.5931 1.615
65.6234 2.760
65.6536 2.187
65.6839 2.448
65.7142 2.292
65.7445 2.604
65.7748 2.448
65.8050 2.500
65.8353 2.656
65.8656 2.448
65.8959 2.396
65.9261 2.083
65.9564 2.969
65.9867 2.448
66.0170 2.604
66.0473 3.802
66.0775 2.448
66.1078 2.396
66.1381 3.490
66.1684 4.167
66.1987 3.646
66.2289 3.073
66.2592 3.385
66.2895 3.490
66.3198 3.125
66.3500 3.646
66.3803 3.229
66.4106 3.490
66.4409 2.865
66.4712 3.750
66.5014 3.646
66.5317 3.594
66.5620 3.073
66.5923 3.958
66.6226 3.281
66.6528 2.917
66.6831 2.396
66.7134 2.604
66.7437 2.708
66.7739 2.812
66.8042 2.969
66.8345 2.917
66.8648 3.177
66.8951 2.760
66.9253 3.750
66.9556 3.542
66.9859 3.906
67.0162 3.385
67.0465 4.219
67.0767 3.594
67.1070 3.333
67.1373 3.542
67.1676 4.062
67.1978 4.896
67.2281 3.958
67.2584 3.542
67.2887 4.115
67.3190 3.958
67.3492 4.167
67.3795 5.156
67.4098 5.625
67.4401 6.042
67.4704 5.990
67.5006 6.354
67.5309 6.562
67.5612 6.250
67.5915 6.979
67.6218 7.396
67.6520 7.760
67.6823 8.542
67.7126 8.333
67.7429 8.437
67.7731 10.677
67.8034 10.156
67.8337 10.260
67.8640 9.427
67.8943 10.417
67.9245 9.531
67.9548 9.167
67.9851 9.583
68.0154 9.167
68.0457 9.531
68.0759 8.073
68.1062 7.031
68.1365 7.552
68.1668 6.042
68.1970 5.625
68.2273 5.677
68.2576 6.198
68.2879 6.042
68.3182 5.781
68.3484 5.469
68.3787 4.948
68.4090 4.531
68.4393 5.729
68.4696 5.104
68.4998 4.792
68.5301 4.167
68.5604 4.427
68.5907 5.052
68.6209 4.948
68.6512 5.625
68.6815 5.573
68.7118 4.948
68.7421 6.406
68.7723 5.417
68.8026 5.417
68.8329 5.417
68.8632 5.885
68.8935 4.635
68.9237 5.937
68.9540 4.896
68.9843 6.510
69.0146 6.354
69.0448 5.937
69.0751 5.104
69.1054 5.052
69.1357 4.896
69.1660 4.427
69.1962 4.323
69.2265 4.687
69.2568 4.635
69.2871 3.906
69.3174 3.437
69.3476 4.062
69.3779 3.385
69.4082 3.281
69.4385 3.125
69.4687 3.333
69.4990 2.656
69.5293 2.292
69.5596 2.448
69.5899 2.760
69.6201 2.240
69.6504 2.292
69.6807 2.812
69.7110 2.500
69.7413 1.719
69.7715 2.031
69.8018 2.135
69.8321 2.240
69.8624 1.771
69.8926 1.771
69.9229 1.354
69.9532 2.031
69.9835 1.979
70.0138 1.927
70.0440 2.031
70.0743 1.875
70.1046 1.927
70.1349 1.719
70.1652 1.406
70.1954 2.187
70.2257 1.927
70.2560 1.719
70.2863 1.302
70.3166 1.927
70.3468 1.719
70.3771 1.771
70.4074 1.979
70.4377 1.979
70.4679 1.510
70.4982 2.083
70.5285 1.562
70.5588 1.615
70.5891 1.458
70.6193 1.771
70.6496 1.146
70.6799 1.667
70.7102 1.667
70.7405 1.250
70.7707 1.615
70.8010 1.562
70.8313 1.667
70.8616 1.250
70.8918 1.615
70.9221 1.771
70.9524 1.458
70.9827 2.031
71.0130 1.771
71.0432 1.198
71.0735 1.823
71.1038 1.302
71.1341 1.458
71.1644 1.250
71.1946 1.198
71.2249 1.615
71.2552 1.771
71.2855 1.458
71.3157 1.615
71.3460 1.667
71.3763 1.562
71.4066 0.990
71.4369 1.250
71.4671 1.927
71.4974 1.406
71.5277 1.458
71.5580 1.406
71.5883 1.354
71.6185 1.458
71.6488 1.146
71.6791 1.406
71.7094 0.937
71.7396 1.771
71.7699 1.615
71.8002 1.927
71.8305 1.667
71.8608 1.406
71.8910 1.615
71.9213 1.198
71.9516 1.667
71.9819 1.719
72.0122 2.083
72.0424 1.458
72.0727 1.510
72.1030 1.667
72.1333 2.500
72.1635 1.458
72.1938 1.667
72.2241 2.187
72.2544 1.719
72.2847 2.187
72.3149 1.979
72.3452 1.719
72.3755 2.604
72.4058 2.292
72.4361 2.708
72.4663 2.240
72.4966 2.292
72.5269 1.927
72.5572 2.292
72.5874 1.979
72.6177 2.031
72.6480 1.771
72.6783 2.240
72.7086 1.823
72.7388 2.396
72.7691 1.875
72.7994 1.406
72.8297 1.302
72.8600 1.927
72.8902 1.354
72.9205 1.302
72.9508 1.198
72.9811 1.667
73.0113 1.615
73.0416 0.990
73.0719 1.406
73.1022 1.667
73.1325 1.615
73.1627 1.719
73.1930 1.250
73.2233 1.198
73.2536 0.990
73.2839 1.250
73.3141 1.510
73.3444 0.729
73.3747 0.833
73.4050 1.146
73.4353 1.250
73.4655 1.042
73.4958 0.990
73.5261 1.250
73.5564 1.250
73.5866 0.937
73.6169 1.250
73.6472 1.771
73.6775 0.781
73.7078 0.990
73.7380 1.146
73.7683 1.615
73.7986 1.146
73.8289 1.094
73.8592 1.042
73.8894 1.562
73.9197 1.250
73.9500 1.042
73.9803 1.406
74.0105 0.833
74.0408 1.406
74.0711 0.990
74.1014 1.042
74.1317 1.615
74.1619 1.406
74.1922 1.198
74.2225 1.250
74.2528 0.990
74.2831 1.562
74.3133 1.719
74.3436 1.198
74.3739 1.198
74.4042 1.198
74.4344 1.042
74.4647 1.094
74.4950 0.833
74.5253 1.146
74.5556 1.198
74.5858 0.937
74.6161 0.937
74.6464 0.781
74.6767 1.250
74.7070 1.094
74.7372 1.510
74.7675 1.354
74.7978 1.510
74.8281 0.937
74.8583 1.198
74.8886 1.458
74.9189 1.406
74.9492 0.885
74.9795 1.458
75.0097 1.719
75.0400 1.094
75.0703 1.146
75.1006 1.250
75.1309 0.885
75.1611 1.615
75.1914 1.198
75.2217 1.406
75.2520 1.146
75.2822 1.198
75.3125 1.354
75.3428 1.302
75.3731 0.937
75.4034 1.146
75.4336 0.937
75.4639 0.833
75.4942 1.146
75.5245 1.458
75.5548 1.615
75.5850 1.198
75.6153 1.458
75.6456 1.198
75.6759 0.990
75.7061 1.250
75.7364 0.729
75.7667 1.198
75.7970 1.042
75.8273 1.198
75.8575 1.198
75.8878 1.458
75.9181 1.615
75.9484 1.146
75.9787 1.927
76.0089 1.406
76.0392 1.719
76.0695 1.719
76.0998 1.719
76.1301 1.667
76.1603 1.302
76.1906 1.562
76.2209 1.146
76.2512 1.667
76.2814 1.615
76.3117 1.562
76.3420 1.562
76.3723 1.927
76.4026 1.458
76.4328 1.354
76.4631 1.771
76.4934 2.135
76.5237 2.135
76.5540 1.719
76.5842 2.083
76.6145 2.240
76.6448 1.719
76.6751 1.719
76.7053 2.500
76.7356 2.135
76.7659 2.187
76.7962 1.979
76.8265 1.979
76.8567 1.823
76.8870 2.083
76.9173 2.135
76.9476 2.135
76.9779 2.240
77.0081 1.875
77.0384 1.719
77.0687 2.135
77.0990 2.604
77.1292 1.979
77.1595 1.458
77.1898 1.771
77.2201 1.458
77.2504 1.406
77.2806 1.615
77.3109 2.240
77.3412 1.250
77.3715 1.198
77.4018 1.667
77.4320 1.198
77.4623 2.135
77.4926 1.562
77.5229 1.562
77.5531 1.094
77.5834 1.094
77.6137 1.823
77.6440 1.198
77.6743 1.302
77.7045 1.250
77.7348 1.146
77.7651 1.198
77.7954 1.198
77.8257 1.562
77.8559 1.354
77.8862 1.458
77.9165 1.458
77.9468 1.354
77.9770 0.937
78.0073 0.885
78.0376 1.562
78.0679 1.615
78.0982 1.198
78.1284 0.885
78.1587 1.250
78.1890 1.250
78.2193 1.198
78.2496 0.990
78.2798 1.510
78.3101 1.458
78.3404 1.302
78.3707 0.990
78.4009 1.354
78.4312 1.198
78.4615 1.198
78.4918 1.615
78.5221 1.458
78.5523 1.354
78.5826 1.406
78.6129 0.833
78.6432 1.354
78.6735 1.458
78.7037 0.990
78.7340 1.302
78.7643 1.250
78.7946 1.146
78.8248 1.094
78.8551 1.198
78.8854 1.198
78.9157 1.198
78.9460 1.198
78.9762 1.302
79.0065 1.042
79.0368 1.510
79.0671 1.354
79.0974 1.146
79.1276 1.354
79.1579 1.094
79.1882 0.990
79.2185 1.042
79.2488 1.354
79.2790 0.781
79.3093 1.302
79.3396 0.937
79.3699 1.198
79.4001 1.146
79.4304 0.937
79.4607 1.146
79.4910 1.302
79.5213 0.729
79.5515 0.990
79.5818 1.562
79.6121 1.979
79.6424 1.146
79.6727 1.562
79.7029 1.146
79.7332 1.146
79.7635 1.406
79.7938 0.885
79.8240 1.094
79.8543 1.198
79.8846 1.094
79.9149 0.885
79.9452 1.094
79.9754 0.729
80.0057 1.458
80.0360 1.094
80.0663 1.146
80.0966 1.250
80.1268 1.146
80.1571 1.042
80.1874 1.667
80.2177 1.458
80.2479 1.094
80.2782 1.562
80.3085 1.094
80.3388 1.094
80.3691 1.042
80.3993 1.250
80.4296 1.042
80.4599 1.198
80.4902 1.406
80.5205 1.250
80.5507 1.302
80.5810 1.562
80.6113 1.354
80.6416 1.198
80.6718 1.198
80.7021 1.094
80.7324 1.250
80.7627 1.875
80.7930 1.198
80.8232 1.094
80.8535 1.458
80.8838 1.458
80.9141 1.615
80.9444 1.615
80.9746 1.458
81.0049 2.135
81.0352 1.562
81.0655 1.823
81.0957 1.354
81.1260 1.562
81.1563 1.823
81.1866 1.667
81.2169 2.083
81.2471 1.354
81.2774 1.198
81.3077 2.448
81.3380 1.771
81.3683 1.823
81.3985 1.562
81.4288 1.667
81.4591 1.927
81.4894 1.562
81.5196 1.354
81.5499 1.302
81.5802 1.510
81.6105 1.562
81.6408 1.562
81.6710 1.354
81.7013 1.354
81.7316 1.198
81.7619 1.198
81.7922 1.615
81.8224 1.667
81.8527 1.667
81.8830 1.510
81.9133 1.354
81.9436 1.354
81.9738 1.198
82.0041 1.094
82.0344 1.146
82.0647 0.937
82.0949 1.562
82.1252 1.562
82.1555 0.937
82.1858 1.562
82.2161 1.302
82.2463 0.990
82.2766 1.198
82.3069 1.510
82.3372 1.198
82.3675 1.562
82.3977 1.146
82.4280 1.458
82.4583 1.146
82.4886 1.458
82.5188 0.937
82.5491 1.406
82.5794 1.198
82.6097 1.458
82.6400 1.250
82.6702 1.198
82.7005 1.094
82.7308 1.198
82.7611 1.198
82.7914 1.562
82.8216 1.302
82.8519 0.833
82.8822 1.354
82.9125 1.094
82.9427 1.406
82.9730 0.990
83.0033 1.094
83.0336 1.094
83.0639 1.198
83.0941 1.354
83.1244 0.990
83.1547 0.990
83.1850 1.042
83.2153 1.094
83.2455 1.198
83.2758 1.458
83.3061 1.302
83.3364 1.042
83.3666 0.729
83.3969 1.094
83.4272 1.198
83.4575 1.302
83.4878 1.302
83.5180 0.885
83.5483 1.615
83.5786 0.937
83.6089 1.198
83.6392 0.937
83.6694 0.781
83.6997 1.198
83.7300 1.302
83.7603 1.146
83.7905 1.094
83.8208 1.302
83.8511 0.885
83.8814 0.937
83.9117 1.302
83.9419 1.406
83.9722 1.042
84.0025 1.042
84.0328 0.885
84.0631 1.094
84.0933 0.990
84.1236 0.937
84.1539 1.198
84.1842 1.510
84.2144 1.198
84.2447 1.250
84.2750 1.198
84.3053 1.146
84.3356 1.042
84.3658 1.198
84.3961 1.250
84.4264 1.042
84.4567 1.354
84.4870 1.615
84.5172 0.990
84.5475 0.885
84.5778 1.094
84.6081 1.198
84.6383 1.302
84.6686 1.146
84.6989 1.302
84.7292 1.042
84.7595 0.937
84.7897 1.198
84.8200 0.990
84.8503 1.146
84.8806 1.198
84.9109 0.885
84.9411 1.562
84.9714 1.302
85.0017 1.302
85.0320 0.833
85.0623 1.250
85.0925 1.302
85.1228 1.094
85.1531 1.094
85.1834 0.521
85.2136 0.990
85.2439 1.198
85.2742 1.250
85.3045 1.094
85.3348 0.729
85.3650 1.198
85.3953 1.354
85.4256 0.990
85.4559 0.990
85.4862 1.302
85.5164 1.510
85.5467 1.562
85.5770 1.146
85.6073 1.510
85.6375 1.146
85.6678 1.198
85.6981 0.937
85.7284 0.937
85.7587 1.094
85.7889 1.094
85.8192 1.510
85.8495 0.937
85.8798 1.250
85.9101 1.302
85.9403 1.510
85.9706 1.146
86.0009 1.042
86.0312 0.990
86.0614 0.885
86.0917 1.406
86.1220 1.042
86.1523 1.354
86.1826 1.094
86.2128 1.250
86.2431 1.198
86.2734 1.198
86.3037 1.198
86.3340 1.042
86.3642 1.250
86.3945 0.729
86.4248 1.302
86.4551 1.406
86.4853 1.406
86.5156 1.927
86.5459 1.302
86.5762 1.354
86.6065 1.198
86.6367 1.354
86.6670 1.354
86.6973 1.667
86.7276 1.094
86.7579 1.042
86.7881 1.042
86.8184 1.510
86.8487 1.198
86.8790 1.198
86.9092 1.406
86.9395 1.250
86.9698 1.094
87.0001 1.094
87.0304 1.146
87.0606 1.354
87.0909 1.354
87.1212 1.250
87.1515 1.146
87.1818 1.198
87.2120 1.198
87.2423 1.198
87.2726 1.094
87.3029 1.198
87.3331 1.042
87.3634 1.823
87.3937 0.781
87.4240 1.302
87.4543 1.406
87.4845 0.937
87.5148 0.937
87.5451 0.937
87.5754 1.354
87.6057 0.937
87.6359 1.302
87.6662 0.833
87.6965 1.094
87.7268 0.937
87.7571 1.042
87.7873 1.094
87.8176 1.615
87.8479 0.833
87.8782 1.250
87.9084 1.615
87.9387 1.198
87.9690 0.990
87.9993 1.406
88.0296 1.562
88.0598 1.198
88.0901 1.198
88.1204 0.781
88.1507 1.042
88.1810 1.250
88.2112 1.198
88.2415 1.406
88.2718 1.406
88.3021 0.729
88.3323 1.406
88.3626 1.198
88.3929 1.667
88.4232 1.510
88.4535 1.719
88.4837 1.406
88.5140 1.667
88.5443 1.510
88.5746 1.719
88.6049 1.719
88.6351 1.406
88.6654 1.094
88.6957 1.667
88.7260 1.667
88.7562 1.354
88.7865 1.406
88.8168 1.979
88.8471 1.615
88.8774 1.875
88.9076 1.979
88.9379 2.135
88.9682 1.979
88.9985 2.187
89.0288 1.979
89.0590 1.771
89.0893 2.240
89.1196 1.979
89.1499 2.187
89.1801 2.604
89.2104 2.240
89.2407 2.448
89.2710 2.187
89.3013 2.396
89.3315 3.125
89.3618 2.135
89.3921 1.771
89.4224 3.385
89.4527 2.760
89.4829 3.073
89.5132 2.708
89.5435 3.333
89.5738 2.604
89.6040 2.969
89.6343 3.125
89.6646 3.021
89.6949 3.281
89.7252 2.552
89.7554 2.552
89.7857 2.552
89.8160 2.135
89.8463 2.187
89.8766 1.823
89.9068 2.552
89.9371 2.448
89.9674 2.187
89.9977 2.187
90.0279 2.240
90.0582 1.823
90.0885 2.187
90.1188 1.510
90.1491 2.240
90.1793 1.667
90.2096 2.135
90.2399 1.719
90.2702 1.406
90.3005 2.135
90.3307 1.562
90.3610 1.250
90.3913 1.823
90.4216 1.198
90.4518 1.302
90.4821 1.094
90.5124 1.875
90.5427 1.771
90.5730 1.198
90.6032 1.510
90.6335 1.146
90.6638 1.406
90.6941 1.198
90.7244 1.927
90.7546 1.250
90.7849 1.354
90.8152 1.354
90.8455 1.146
90.8758 1.094
90.9060 1.562
90.9363 1.458
90.9666 1.094
90.9969 1.198
91.0271 1.875
91.0574 1.094
91.0877 1.667
91.1180 1.771
91.1483 1.823
91.1785 1.198
91.2088 1.458
91.2391 0.885
91.2694 1.406
91.2997 1.250
91.3299 1.146
91.3602 1.406
91.3905 1.562
91.4208 1.667
91.4510 1.198
91.4813 1.198
91.5116 1.094
91.5419 1.250
91.5722 1.615
91.6024 1.771
91.6327 1.667
91.6630 1.198
91.6933 1.250
91.7236 1.094
91.7538 1.146
91.7841 0.937
91.8144 1.302
91.8447 1.094
91.8749 1.562
91.9052 1.406
91.9355 1.458
91.9658 1.094
91.9961 1.458
92.0263 1.510
92.0566 1.458
92.0869 1.458
92.1172 1.667
92.1475 1.198
92.1777 1.302
92.2080 1.771
92.2383 1.198
92.2686 1.562
92.2988 1.562
92.3291 1.510
92.3594 1.823
92.3897 1.354
92.4200 2.187
92.4502 1.927
92.4805 1.667
92.5108 1.510
92.5411 2.292
92.5714 2.187
92.6016 1.510
92.6319 1.823
92.6622 1.406
92.6925 1.771
92.7227 1.719
92.7530 1.667
92.7833 1.146
92.8136 1.406
92.8439 1.875
92.8741 2.031
92.9044 1.719
92.9347 2.344
92.9650 1.302
92.9953 1.979
93.0255 1.406
93.0558 1.406
93.0861 2.240
93.1164 1.094
93.1466 1.615
93.1769 1.458
93.2072 1.250
93.2375 1.719
93.2678 1.250
93.2980 0.990
93.3283 1.719
93.3586 1.719
93.3889 1.719
93.4192 1.458
93.4494 1.406
93.4797 1.198
93.5100 1.302
93.5403 1.198
93.5706 1.823
93.6008 1.302
93.6311 0.937
93.6614 1.979
93.6917 1.146
93.7219 1.198
93.7522 1.927
93.7825 1.615
93.8128 1.198
93.8431 1.719
93.8733 1.927
93.9036 1.562
93.9339 1.771
93.9642 1.302
93.9945 1.042
94.0247 1.354
94.0550 1.458
94.0853 1.406
94.1156 1.250
94.1458 2.083
94.1761 1.250
94.2064 1.615
94.2367 1.250
94.2670 1.458
94.2972 1.562
94.3275 1.250
94.3578 1.667
94.3881 1.458
94.4184 1.250
94.4486 1.771
94.4789 1.667
94.5092 2.031
94.5395 2.031
94.5697 1.771
94.6000 1.510
94.6303 1.927
94.6606 1.823
94.6909 1.875
94.7211 1.719
94.7514 1.719
94.7817 1.562
94.8120 1.667
94.8423 2.448
94.8725 2.240
94.9028 2.500
94.9331 2.240
94.9634 2.240
94.9936 2.760
95.0239 2.708
95.0542 3.177
95.0845 2.812
95.1148 3.333
95.1450 2.656
95.1753 2.760
95.2056 3.125
95.2359 2.969
95.2662 2.708
95.2964 2.969
95.3267 3.073
95.3570 2.812
95.3873 2.292
95.4175 2.604
95.4478 2.865
95.4781 2.240
95.5084 2.396
95.5387 2.396
95.5689 2.135
95.5992 2.396
95.6295 2.031
95.6598 1.771
95.6901 1.562
95.7203 1.875
95.7506 2.552
95.7809 2.187
95.8112 2.135
95.8414 1.927
95.8717 2.083
95.9020 2.292
95.9323 1.875
95.9626 1.927
95.9928 1.354
96.0231 1.510
96.0534 1.667
96.0837 1.510
96.1140 2.031
96.1442 1.927
96.1745 1.458
96.2048 1.146
96.2351 1.667
96.2653 1.250
96.2956 1.510
96.3259 1.667
96.3562 1.615
96.3865 1.250
96.4167 1.250
96.4470 1.302
96.4773 1.615
96.5076 1.510
96.5379 1.406
96.5681 1.250
96.5984 1.302
96.6287 1.146
96.6590 1.875
96.6893 1.719
96.7195 1.458
96.7498 1.823
96.7801 1.823
96.8104 1.198
96.8406 1.875
96.8709 1.562
96.9012 1.458
96.9315 1.510
96.9618 1.250
96.9920 1.771
97.0223 1.042
97.0526 1.198
97.0829 1.510
97.1132 1.771
97.1434 1.198
97.1737 1.042
97.2040 1.562
97.2343 1.250
97.2645 1.198
97.2948 1.094
97.3251 1.146
97.3554 1.823
97.3857 1.615
97.4159 1.719
97.4462 1.094
97.4765 1.250
97.5068 1.458
97.5371 1.458
97.5673 1.302
97.5976 1.250
97.6279 1.250
97.6582 0.990
97.6884 1.406
97.7187 1.562
97.7490 1.094
97.7793 1.823
97.8096 1.458
97.8398 0.677
97.8701 1.198
97.9004 1.771
97.9307 1.406
97.9610 1.146
97.9912 1.615
98.0215 1.927
98.0518 1.771
98.0821 1.198
98.1123 1.354
98.1426 1.458
98.1729 2.135
98.2032 1.562
98.2335 1.198
98.2637 2.396
98.2940 2.083
98.3243 2.083
98.3546 1.667
98.3849 2.187
98.4151 1.667
98.4454 1.615
98.4757 2.187
98.5060 2.240
98.5362 2.760
98.5665 1.719
98.5968 1.927
98.6271 2.240
98.6574 1.823
98.6876 2.500
98.7179 1.510
98.7482 1.979
98.7785 2.083
98.8088 2.031
98.8390 2.292
98.8693 2.292
98.8996 1.875
98.9299 1.510
98.9601 1.979
98.9904 1.302
99.0207 1.510
99.0510 1.615
99.0813 1.875
99.1115 1.302
99.1418 1.250
99.1721 1.302
99.2024 1.510
99.2327 1.823
99.2629 1.198
99.2932 1.719
99.3235 1.458
99.3538 1.406
99.3841 1.354
99.4143 1.406
99.4446 1.771
99.4749 1.250
99.5052 1.354
99.5354 1.302
99.5657 0.990
99.5960 1.458
99.6263 1.198
99.6566 1.458
99.6868 0.885
99.7171 1.198
99.7474 1.771
99.7777 1.302
99.8080 1.198
99.8382 1.354
99.8685 1.354
99.8988 1.406
99.9291 1.094
99.9593 1.250
99.9896 1.771
100.0199 1.250
100.0502 1.406
100.0805 1.302
100.1107 1.198
100.1410 1.458
100.1713 1.615
100.2016 1.250
100.2319 1.406
100.2621 1.146
100.2924 1.146
100.3227 1.354
100.3530 1.354
100.3832 1.302
100.4135 0.937
100.4438 1.042
100.4741 1.094
100.5044 1.250
100.5346 0.937
100.5649 1.146
100.5952 1.198
100.6255 1.250
100.6558 0.990
100.6860 1.042
100.7163 1.198
100.7466 1.406
100.7769 1.615
100.8071 1.250
100.8374 0.990
100.8677 1.198
100.8980 1.510
100.9283 1.302
100.9585 1.302
100.9888 1.667
101.0191 1.354
101.0494 1.250
101.0797 1.302
101.1099 1.406
101.1402 0.990
101.1705 1.406
101.2008 1.302
101.2310 1.198
101.2613 1.146
101.2916 0.885
101.3219 1.250
101.3522 0.937
101.3824 1.042
101.4127 1.667
101.4430 1.094
101.4733 1.406
101.5036 1.615
101.5338 1.094
101.5641 1.771
101.5944 1.094
101.6247 1.354
101.6549 2.187
101.6852 1.719
101.7155 0.781
101.7458 1.198
101.7761 1.354
101.8063 1.562
101.8366 1.406
101.8669 1.354
101.8972 1.615
101.9275 1.094
101.9577 1.667
101.9880 1.198
102.0183 1.042
102.0486 1.510
102.0788 1.354
102.1091 1.667
102.1394 1.875
102.1697 1.250
102.2000 1.719
102.2302 1.354
102.2605 1.510
102.2908 1.615
102.3211 1.302
102.3514 1.510
102.3816 1.354
102.4119 1.927
102.4422 1.510
102.4725 1.354
102.5028 1.354
102.5330 1.875
102.5633 1.458
102.5936 1.875
102.6239 1.927
102.6541 1.875
102.6844 1.354
102.7147 1.510
102.7450 1.406
102.7753 1.771
102.8055 1.823
102.8358 1.875
102.8661 2.448
102.8964 1.719
102.9267 1.823
102.9569 2.083
102.9872 2.031
103.0175 2.500
103.0478 1.875
103.0780 2.240
103.1083 1.719
103.1386 1.719
103.1689 2.187
103.1992 1.562
103.2294 2.135
103.2597 1.927
103.2900 1.771
103.3203 1.979
103.3506 1.823
103.3808 2.552
103.4111 2.344
103.4414 2.604
103.4717 2.135
103.5019 2.396
103.5322 2.292
103.5625 1.927
103.5928 2.031
103.6231 1.927
103.6533 1.927
103.6836 1.771
103.7139 1.927
103.7442 1.927
103.7745 3.021
103.8047 2.135
103.8350 2.344
103.8653 1.875
103.8956 2.448
103.9258 2.135
103.9561 3.229
103.9864 2.969
104.0167 2.344
104.0470 1.927
104.0772 2.448
104.1075 2.865
104.1378 2.812
104.1681 2.552
104.1984 2.187
104.2286 2.031
104.2589 2.031
104.2892 2.031
104.3195 2.344
104.3497 2.240
104.3800 2.344
104.4103 2.240
104.4406 2.500
104.4709 2.135
104.5011 2.292
104.5314 2.083
104.5617 1.719
104.5920 1.875
104.6223 1.615
104.6525 1.927
104.6828 1.510
104.7131 1.406
104.7434 1.719
104.7736 2.187
104.8039 1.667
104.8342 1.771
104.8645 1.562
104.8948 2.135
104.9250 1.615
104.9553 1.250
104.9856 1.406
105.0159 1.562
105.0462 1.510
105.0764 1.458
105.1067 1.250
105.1370 1.927
105.1673 1.927
105.1975 1.562
105.2278 1.562
105.2581 0.990
105.2884 1.562
105.3187 1.927
105.3489 1.615
105.3792 1.458
105.4095 1.302
105.4398 1.510
105.4701 1.198
105.5003 1.615
105.5306 1.146
105.5609 1.406
105.5912 1.615
105.6215 1.667
105.6517 1.042
105.6820 0.990
105.7123 1.406
105.7426 0.990
105.7728 0.781
105.8031 1.458
105.8334 1.250
105.8637 1.198
105.8940 1.094
105.9242 2.031
105.9545 1.615
105.9848 1.406
106.0151 1.198
106.0454 1.406
106.0756 1.302
106.1059 1.250
106.1362 1.406
106.1665 1.354
106.1967 1.458
106.2270 1.615
106.2573 1.146
106.2876 1.615
106.3179 0.885
106.3481 1.042
106.3784 1.719
106.4087 0.573
106.4390 0.885
106.4693 1.198
106.4995 1.250
106.5298 1.146
106.5601 1.354
106.5904 1.250
106.6206 1.198
106.6509 0.990
106.6812 1.615
106.7115 1.302
106.7418 1.250
106.7720 1.198
106.8023 1.302
106.8326 1.458
106.8629 1.042
106.8932 1.198
106.9234 1.510
106.9537 1.250
106.9840 1.458
107.0143 1.406
107.0445 1.510
107.0748 1.458
107.1051 1.667
107.1354 0.990
107.1657 1.719
107.1959 1.615
107.2262 2.083
107.2565 1.146
107.2868 1.094
107.3171 1.094
107.3473 1.250
107.3776 1.823
107.4079 1.458
107.4382 1.146
107.4684 1.406
107.4987 1.510
107.5290 1.042
107.5593 0.990
107.5896 1.094
107.6198 1.042
107.6501 1.094
107.6804 1.406
107.7107 1.667
107.7410 0.990
107.7712 1.094
107.8015 1.146
107.8318 0.885
107.8621 1.615
107.8923 1.458
107.9226 1.042
107.9529 1.562
107.9832 1.771
108.0135 0.990
108.0437 1.406
108.0740 1.302
108.1043 0.885
108.1346 0.885
108.1649 0.885
108.1951 1.354
108.2254 1.510
108.2557 1.198
108.2860 1.146
108.3163 1.510
108.3465 1.302
108.3768 1.250
108.4071 1.042
108.4374 1.562
108.4676 1.406
108.4979 1.562
108.5282 0.990
108.5585 1.042
108.5888 1.302
108.6190 1.406
108.6493 0.990
108.6796 1.562
108.7099 1.094
108.7402 0.937
108.7704 1.198
108.8007 1.458
108.8310 1.042
108.8613 1.354
108.8915 1.510
108.9218 1.667
108.9521 1.667
108.9824 1.510
109.0127 1.406
109.0429 1.406
109.0732 1.250
109.1035 1.667
109.1338 1.354
109.1641 1.458
109.1943 1.146
109.2246 1.198
109.2549 0.885
109.2852 1.979
109.3154 1.719
109.3457 1.406
109.3760 1.719
109.4063 1.667
109.4366 1.562
109.4668 2.083
109.4971 1.719
109.5274 1.615
109.5577 1.302
109.5880 1.094
109.6182 1.927
109.6485 1.302
109.6788 1.406
109.7091 1.615
109.7393 1.406
109.7696 1.406
109.7999 1.875
109.8302 1.458
109.8605 1.406
109.8907 1.406
109.9210 1.927
109.9513 1.302
109.9816 2.344
110.0119 2.240
110.0421 1.406
110.0724 1.615
110.1027 1.510
110.1330 1.823
110.1632 2.135
110.1935 1.510
110.2238 1.823
110.2541 1.562
110.2844 2.448
110.3146 1.615
110.3449 2.187
110.3752 1.927
110.4055 2.031
110.4358 1.823
110.4660 1.094
110.4963 2.135
110.5266 1.719
110.5569 1.927
110.5871 1.615
110.6174 1.198
110.6477 1.875
110.6780 1.823
110.7083 1.979
110.7385 1.562
110.7688 1.615
110.7991 1.667
110.8294 1.823
110.8597 1.562
110.8899 1.562
110.9202 1.146
110.9505 2.031
110.9808 1.198
111.0110 1.615
111.0413 1.302
111.0716 1.719
111.1019 1.458
111.1322 1.667
111.1624 1.302
111.1927 1.823
111.2230 1.302
111.2533 1.979
111.2836 0.833
111.3138 1.302
111.3441 1.354
111.3744 1.510
111.4047 1.042
111.4350 1.615
111.4652 1.458
111.4955 1.302
111.5258 1.458
111.5561 1.771
111.5863 1.667
111.6166 1.927
111.6469 0.990
111.6772 1.302
111.7075 1.562
111.7377 1.354
111.7680 1.615
111.7983 1.198
111.8286 1.042
111.8589 1.094
111.8891 1.042
111.9194 1.094
111.9497 1.354
111.9800 0.990
112.0102 1.146
112.0405 1.094
112.0708 0.885
112.1011 1.146
112.1314 1.354
112.1616 1.250
112.1919 1.302
112.2222 1.146
112.2525 1.406
112.2828 0.990
112.3130 0.781
112.3433 0.990
112.3736 0.833
112.4039 1.042
112.4341 1.458
112.4644 1.510
112.4947 1.042
112.5250 1.042
112.5553 1.458
112.5855 1.250
112.6158 1.302
112.6461 0.885
112.6764 1.042
112.7067 1.250
112.7369 1.302
112.7672 1.354
112.7975 1.094
112.8278 1.146
112.8580 1.146
112.8883 1.042
112.9186 1.250
112.9489 1.198
112.9792 1.042
113.0094 1.042
113.0397 1.302
113.0700 1.094
113.1003 1.198
113.1306 1.042
113.1608 1.250
113.1911 1.354
113.2214 1.302
113.2517 0.937
113.2819 1.406
113.3122 0.937
113.3425 0.885
113.3728 0.990
113.4031 1.042
113.4333 1.146
113.4636 0.937
113.4939 1.250
113.5242 1.667
113.5545 1.302
113.5847 1.042
113.6150 1.302
113.6453 1.198
113.6756 1.146
113.7058 1.875
113.7361 1.562
113.7664 0.677
113.7967 1.198
113.8270 1.146
113.8572 1.302
113.8875 1.146
113.9178 1.562
113.9481 1.042
113.9784 1.042
114.0086 1.198
114.0389 2.031
114.0692 1.458
114.0995 1.510
114.1298 1.875
114.1600 1.458
114.1903 1.094
114.2206 1.146
114.2509 1.667
114.2811 1.146
114.3114 1.302
114.3417 1.302
114.3720 1.406
114.4023 1.302
114.4325 1.771
114.4628 1.146
114.4931 1.615
114.5234 1.510
114.5537 1.250
114.5839 1.250
114.6142 2.083
114.6445 1.615
114.6748 1.458
114.7050 1.458
114.7353 1.146
114.7656 1.667
114.7959 1.094
114.8262 1.667
114.8564 1.458
114.8867 1.562
114.9170 1.146
114.9473 1.667
114.9776 1.562
115.0078 1.042
115.0381 1.823
115.0684 1.875
115.0987 1.094
115.1289 1.615
115.1592 1.615
115.1895 1.354
115.2198 1.719
115.2501 1.927
115.2803 1.458
115.3106 1.406
115.3409 1.823
115.3712 1.771
115.4015 1.875
115.4317 2.240
115.4620 2.396
115.4923 1.771
115.5226 1.615
115.5528 1.510
115.5831 1.302
115.6134 1.875
115.6437 1.979
115.6740 1.875
115.7042 2.083
115.7345 2.448
115.7648 1.719
115.7951 2.344
115.8254 2.292
115.8556 2.500
115.8859 2.240
115.9162 2.604
115.9465 2.240
115.9767 2.656
116.0070 2.656
116.0373 2.552
116.0676 2.396
116.0979 2.344
116.1281 2.135
116.1584 2.604
116.1887 2.708
116.2190 2.865
116.2493 2.187
116.2795 2.500
116.3098 3.385
116.3401 2.708
116.3704 3.125
116.4006 1.927
116.4309 2.135
116.4612 2.760
116.4915 2.240
116.5218 2.708
116.5520 2.917
116.5823 2.656
116.6126 2.292
116.6429 3.021
116.6732 2.552
116.7034 2.344
116.7337 1.927
116.7640 2.031
116.7943 2.240
116.8245 2.604
116.8548 2.500
116.8851 1.875
116.9154 2.760
116.9457 1.979
116.9759 2.240
117.0062 1.719
117.0365 2.031
117.0668 1.719
117.0971 1.198
117.1273 1.719
117.1576 1.927
117.1879 1.615
117.2182 1.823
117.2485 2.135
117.2787 1.667
117.3090 2.240
117.3393 1.719
117.3696 1.667
117.3998 1.615
117.4301 1.927
117.4604 1.823
117.4907 1.667
117.5210 1.615
117.5512 1.354
117.5815 1.094
117.6118 1.042
117.6421 1.979
117.6724 1.198
117.7026 1.250
117.7329 1.458
117.7632 1.302
117.7935 1.354
117.8237 1.667
117.8540 1.719
117.8843 2.240
117.9146 1.198
117.9449 0.885
117.9751 1.667
118.0054 0.990
118.0357 1.250
118.0660 1.354
118.0963 1.667
118.1265 1.250
118.1568 1.927
118.1871 1.354
118.2174 1.250
118.2476 1.146
118.2779 1.406
118.3082 1.250
118.3385 1.354
118.3688 1.302
118.3990 1.406
118.4293 1.302
118.4596 1.823
118.4899 1.250
118.5202 1.146
118.5504 1.458
118.5807 1.302
118.6110 0.990
118.6413 1.823
118.6715 0.990
118.7018 1.719
118.7321 1.823
118.7624 1.302
118.7927 1.302
118.8229 1.667
118.8532 1.302
118.8835 1.094
118.9138 1.458
118.9441 1.302
118.9743 1.094
119.0046 1.250
119.0349 0.990
119.0652 1.354
119.0954 0.990
119.1257 1.042
119.1560 0.885
119.1863 1.406
119.2166 1.250
119.2468 0.937
119.2771 0.990
119.3074 1.302
119.3377 1.354
119.3680 1.562
119.3982 1.042
119.4285 1.406
119.4588 1.354
119.4891 1.198
119.5193 1.302
119.5496 0.677
119.5799 1.250
119.6102 1.250
119.6405 1.302
119.6707 1.458
119.7010 1.510
119.7313 1.562
119.7616 1.875
119.7919 0.990
119.8221 1.250
119.8524 1.042
119.8827 1.198
119.9130 1.250
119.9433 1.562
119.9735 1.198
120.0038 1.198
