'Id: "" Comment: "" Operator: "Lab Manager" Anode: "Cu" Scantype: "Locked Coupled" TimePerStep: "19.2" X: "9999" Y: "9999" Z: "9999" 
10.0015 3.542
10.0318 3.490
10.0620 4.115
10.0923 3.594
10.1226 4.531
10.1529 4.115
10.1832 3.542
10.2134 4.635
10.2437 4.219
10.2740 4.219
10.3043 3.542
10.3346 4.323
10.3648 4.375
10.3951 3.542
10.4254 4.062
10.4557 3.646
10.4859 4.271
10.5162 4.375
10.5465 4.844
10.5768 4.062
10.6071 4.271
10.6373 4.062
10.6676 4.844
10.6979 3.646
10.7282 3.333
10.7585 5.677
10.7887 4.219
10.8190 4.375
10.8493 3.646
10.8796 4.792
10.9098 3.802
10.9401 4.896
10.9704 4.010
11.0007 4.740
11.0310 5.573
11.0612 4.271
11.0915 4.531
11.1218 4.792
11.1521 4.479
11.1824 4.427
11.2126 4.479
11.2429 5.729
11.2732 4.792
11.3035 5.052
11.3337 4.323
11.3640 4.531
11.3943 4.740
11.4246 4.115
11.4549 4.427
11.4851 4.896
11.5154 3.802
11.5457 4.323
11.5760 4.792
11.6063 4.271
11.6365 4.479
11.6668 4.271
11.6971 4.323
11.7274 4.844
11.7577 4.687
11.7879 4.531
11.8182 4.896
11.8485 4.479
11.8788 4.583
11.9090 3.750
11.9393 3.542
11.9696 4.479
11.9999 4.375
12.0302 4.635
12.0604 4.687
12.0907 4.219
12.1210 5.260
12.1513 4.271
12.1816 3.125
12.2118 4.271
12.2421 3.802
12.2724 4.635
12.3027 4.062
12.3329 4.687
12.3632 3.854
12.3935 3.958
12.4238 4.062
12.4541 3.437
12.4843 3.802
12.5146 4.167
12.5449 4.271
12.5752 3.021
12.6055 4.010
12.6357 3.229
12.6660 3.542
12.6963 4.010
12.7266 4.323
12.7568 3.594
12.7871 3.906
12.8174 4.167
12.8477 4.271
12.8780 3.333
12.9082 4.219
12.9385 3.542
12.9688 3.385
12.9991 3.750
13.0294 3.906
13.0596 3.594
13.0899 4.323
13.1202 3.437
13.1505 4.896
13.1807 3.281
13.2110 2.760
13.2413 4.271
13.2716 3.229
13.3019 3.281
13.3321 3.333
13.3624 3.958
13.3927 3.698
13.4230 3.073
13.4533 3.437
13.4835 3.073
13.5138 2.969
13.5441 3.802
13.5744 3.750
13.6046 4.062
13.6349 3.542
13.6652 3.385
13.6955 3.125
13.7258 3.437
13.7560 3.750
13.7863 3.177
13.8166 3.385
13.8469 3.073
13.8772 2.500
13.9074 3.073
13.9377 3.385
13.9680 3.385
13.9983 3.021
14.0285 3.490
14.0588 3.177
14.0891 3.542
14.1194 3.229
14.1497 2.240
14.1799 2.656
14.2102 3.958
14.2405 3.333
14.2708 2.865
14.3011 3.333
14.3313 3.125
14.3616 3.490
14.3919 2.500
14.4222 2.448
14.4524 3.698
14.4827 3.542
14.5130 4.062
14.5433 3.542
14.5736 2.604
14.6038 3.437
14.6341 3.125
14.6644 3.333
14.6947 3.750
14.7250 3.490
14.7552 2.917
14.7855 3.490
14.8158 3.021
14.8461 3.385
14.8764 2.240
14.9066 3.021
14.9369 3.385
14.9672 3.021
14.9975 3.802
15.0277 3.281
15.0580 3.437
15.0883 3.281
15.1186 2.083
15.1489 3.125
15.1791 3.229
15.2094 3.750
15.2397 3.594
15.2700 3.177
15.3003 2.760
15.3305 3.125
15.3608 2.917
15.3911 3.490
15.4214 3.646
15.4516 4.010
15.4819 2.865
15.5122 3.385
15.5425 3.125
15.5728 3.333
15.6030 2.969
15.6333 3.125
15.6636 3.333
15.6939 3.177
15.7242 2.969
15.7544 3.385
15.7847 3.385
15.8150 3.073
15.8453 2.448
15.8755 3.177
15.9058 2.812
15.9361 2.708
15.9664 2.708
15.9967 2.865
16.0269 3.646
16.0572 2.969
16.0875 2.135
16.1178 3.229
16.1481 3.125
16.1783 2.917
16.2086 2.917
16.2389 3.437
16.2692 3.073
16.2994 2.500
16.3297 2.500
16.3600 3.125
16.3903 3.177
16.4206 2.552
16.4508 3.073
16.4811 3.854
16.5114 2.552
16.5417 3.437
16.5720 2.604
16.6022 3.906
16.6325 3.542
16.6628 3.333
16.6931 3.229
16.7233 2.865
16.7536 2.969
16.7839 3.177
16.8142 3.646
16.8445 2.760
16.8747 4.010
16.9050 3.385
16.9353 2.969
16.9656 2.917
16.9959 3.073
17.0261 2.500
17.0564 2.552
17.0867 3.281
17.1170 3.437
17.1472 2.656
17.1775 2.552
17.2078 2.969
17.2381 2.344
17.2684 3.229
17.2986 3.437
17.3289 3.021
17.3592 3.177
17.3895 3.021
17.4198 2.865
17.4500 2.917
17.4803 3.542
17.5106 2.917
17.5409 2.865
17.5712 2.604
17.6014 2.969
17.6317 3.750
17.6620 2.031
17.6923 2.760
17.7225 3.542
17.7528 2.240
17.7831 2.500
17.8134 3.073
17.8437 3.490
17.8739 3.177
17.9042 2.448
17.9345 3.385
17.9648 2.448
17.9951 3.281
18.0253 3.125
18.0556 2.917
18.0859 3.594
18.1162 3.906
18.1464 3.073
18.1767 2.917
18.2070 2.865
18.2373 2.760
18.2676 3.021
18.2978 2.812
18.3281 3.021
18.3584 3.177
18.3887 2.292
18.4190 2.500
18.4492 3.229
18.4795 3.229
18.5098 3.229
18.5401 2.812
18.5703 3.385
18.6006 3.177
18.6309 2.708
18.6612 2.865
18.6915 3.437
18.7217 3.333
18.7520 3.281
18.7823 2.292
18.8126 2.240
18.8429 2.656
18.8731 2.760
18.9034 1.667
18.9337 2.760
18.9640 2.708
18.9942 3.021
19.0245 2.656
19.0548 2.240
19.0851 2.135
19.1154 3.073
19.1456 2.396
19.1759 2.969
19.2062 2.344
19.2365 2.760
19.2668 2.812
19.2970 2.396
19.3273 2.708
19.3576 2.344
19.3879 2.760
19.4181 2.448
19.4484 2.240
19.4787 2.448
19.5090 2.656
19.5393 2.708
19.5695 2.187
19.5998 2.812
19.6301 2.917
19.6604 2.812
19.6907 2.812
19.7209 2.604
19.7512 2.240
19.7815 2.760
19.8118 2.604
19.8420 3.281
19.8723 2.917
19.9026 2.292
19.9329 2.708
19.9632 2.656
19.9934 2.917
20.0237 2.812
20.0540 2.656
20.0843 2.344
20.1146 2.500
20.1448 2.135
20.1751 2.031
20.2054 3.437
20.2357 2.396
20.2659 2.865
20.2962 2.448
20.3265 3.229
20.3568 2.708
20.3871 3.437
20.4173 2.760
20.4476 2.656
20.4779 2.865
20.5082 2.500
20.5385 2.448
20.5687 2.812
20.5990 2.187
20.6293 2.500
20.6596 2.812
20.6899 2.500
20.7201 2.292
20.7504 2.812
20.7807 3.490
20.8110 2.396
20.8412 3.021
20.8715 2.708
20.9018 2.240
20.9321 2.344
20.9624 2.552
20.9926 2.812
21.0229 2.969
21.0532 2.604
21.0835 2.500
21.1138 2.917
21.1440 2.083
21.1743 2.969
21.2046 2.604
21.2349 2.917
21.2651 2.708
21.2954 2.396
21.3257 2.448
21.3560 3.229
21.3863 2.448
21.4165 2.292
21.4468 2.292
21.4771 2.969
21.5074 2.969
21.5377 3.177
21.5679 2.708
21.5982 2.187
21.6285 2.083
21.6588 3.177
21.6890 2.292
21.7193 2.917
21.7496 2.656
21.7799 2.552
21.8102 2.344
21.8404 2.448
21.8707 2.865
21.9010 2.500
21.9313 3.958
21.9616 2.344
21.9918 3.437
22.0221 3.125
22.0524 2.708
22.0827 2.187
22.1129 2.031
22.1432 3.750
22.1735 2.760
22.2038 3.125
22.2341 3.229
22.2643 2.604
22.2946 2.552
22.3249 1.771
22.3552 2.865
22.3855 3.229
22.4157 2.969
22.4460 2.604
22.4763 2.396
22.5066 2.448
22.5368 3.177
22.5671 2.448
22.5974 2.760
22.6277 2.812
22.6580 2.500
22.6882 2.083
22.7185 3.125
22.7488 2.969
22.7791 3.490
22.8094 3.021
22.8396 1.719
22.8699 2.187
22.9002 3.854
22.9305 2.969
22.9607 2.344
22.9910 2.917
23.0213 2.708
23.0516 3.281
23.0819 2.448
23.1121 2.917
23.1424 2.292
23.1727 2.708
23.2030 2.552
23.2333 1.927
23.2635 2.760
23.2938 2.240
23.3241 2.187
23.3544 2.552
23.3846 2.292
23.4149 2.760
23.4452 2.969
23.4755 2.292
23.5058 2.448
23.5360 2.448
23.5663 2.917
23.5966 2.656
23.6269 2.292
23.6572 2.500
23.6874 2.865
23.7177 2.344
23.7480 3.542
23.7783 2.656
23.8086 2.344
23.8388 2.292
23.8691 2.396
23.8994 2.187
23.9297 2.656
23.9599 3.021
23.9902 1.875
24.0205 2.708
24.0508 3.125
24.0811 1.875
24.1113 2.083
24.1416 2.500
24.1719 2.292
24.2022 2.812
24.2325 2.760
24.2627 2.708
24.2930 2.500
24.3233 2.656
24.3536 2.500
24.3838 2.604
24.4141 1.979
24.4444 2.708
24.4747 2.604
24.5050 3.333
24.5352 2.292
24.5655 2.292
24.5958 2.760
24.6261 2.812
24.6564 2.917
24.6866 3.125
24.7169 2.865
24.7472 2.917
24.7775 2.448
24.8077 3.125
24.8380 2.760
24.8683 3.333
24.8986 2.500
24.9289 3.177
24.9591 3.021
24.9894 2.448
25.0197 3.229
25.0500 2.240
25.0803 2.656
25.1105 2.448
25.1408 2.552
25.1711 2.812
25.2014 2.604
25.2316 2.292
25.2619 2.656
25.2922 2.292
25.3225 2.760
25.3528 2.240
25.3830 3.437
25.4133 2.552
25.4436 2.656
25.4739 2.552
25.5042 2.552
25.5344 2.708
25.5647 3.177
25.5950 2.187
25.6253 2.292
25.6555 2.344
25.6858 3.281
25.7161 2.656
25.7464 2.708
25.7767 3.281
25.8069 2.448
25.8372 2.500
25.8675 2.292
25.8978 2.500
25.9281 2.448
25.9583 1.979
25.9886 2.031
26.0189 2.187
26.0492 2.812
26.0794 2.812
26.1097 2.448
26.1400 3.125
26.1703 2.604
26.2006 2.604
26.2308 2.552
26.2611 2.448
26.2914 3.021
26.3217 2.865
26.3520 2.187
26.3822 2.656
26.4125 2.240
26.4428 2.760
26.4731 2.292
26.5034 3.021
26.5336 2.396
26.5639 2.292
26.5942 2.187
26.6245 2.812
26.6547 2.708
26.6850 2.292
26.7153 2.812
26.7456 3.125
26.7759 2.812
26.8061 3.490
26.8364 3.281
26.8667 3.646
26.8970 2.240
26.9273 2.396
26.9575 3.021
26.9878 3.698
27.0181 1.823
27.0484 3.490
27.0786 3.125
27.1089 2.552
27.1392 2.760
27.1695 3.177
27.1998 2.708
27.2300 3.333
27.2603 3.073
27.2906 3.021
27.3209 2.448
27.3512 3.125
27.3814 2.969
27.4117 3.490
27.4420 3.229
27.4723 3.281
27.5025 2.760
27.5328 3.229
27.5631 3.646
27.5934 3.125
27.6237 3.073
27.6539 2.708
27.6842 3.854
27.7145 3.021
27.7448 3.229
27.7751 3.854
27.8053 3.281
27.8356 2.500
27.8659 2.760
27.8962 3.021
27.9264 2.865
27.9567 3.177
27.9870 2.917
28.0173 4.219
28.0476 2.656
28.0778 2.812
28.1081 2.552
28.1384 2.552
28.1687 3.437
28.1990 3.333
28.2292 2.708
28.2595 3.333
28.2898 3.490
28.3201 3.177
28.3503 3.177
28.3806 3.333
28.4109 3.333
28.4412 3.542
28.4715 2.865
28.5017 3.385
28.5320 3.125
28.5623 3.073
28.5926 2.917
28.6229 3.542
28.6531 3.437
28.6834 2.760
28.7137 2.917
28.7440 2.969
28.7742 3.594
28.8045 2.917
28.8348 3.437
28.8651 2.917
28.8954 3.125
28.9256 3.594
28.9559 3.594
28.9862 2.760
29.0165 3.177
29.0468 3.646
29.0770 3.177
29.1073 2.969
29.1376 3.542
29.1679 3.646
29.1981 2.865
29.2284 2.656
29.2587 3.177
29.2890 3.906
29.3193 3.958
29.3495 3.073
29.3798 3.437
29.4101 3.750
29.4404 2.604
29.4707 3.437
29.5009 3.750
29.5312 3.802
29.5615 3.385
29.5918 3.177
29.6221 3.958
29.6523 3.698
29.6826 3.177
29.7129 3.021
29.7432 2.865
29.7734 3.229
29.8037 2.917
29.8340 4.271
29.8643 4.323
29.8946 3.958
29.9248 4.635
29.9551 2.969
29.9854 4.167
30.0157 3.437
30.0460 4.219
30.0762 4.583
30.1065 3.958
30.1368 4.844
30.1671 4.271
30.1973 4.323
30.2276 4.583
30.2579 5.260
30.2882 4.271
30.3185 4.219
30.3487 4.375
30.3790 5.260
30.4093 4.583
30.4396 5.000
30.4699 4.219
30.5001 4.948
30.5304 4.427
30.5607 5.312
30.5910 4.948
30.6212 5.937
30.6515 5.260
30.6818 5.990
30.7121 6.250
30.7424 7.604
30.7726 6.875
30.8029 6.198
30.8332 7.604
30.8635 6.615
30.8938 7.865
30.9240 7.917
30.9543 8.437
30.9846 8.958
31.0149 8.437
31.0451 8.542
31.0754 10.000
31.1057 9.792
31.1360 11.875
31.1663 13.021
31.1965 13.906
31.2268 14.427
31.2571 14.896
31.2874 17.031
31.3177 19.635
31.3479 23.490
31.3782 22.656
31.4085 26.406
31.4388 31.302
31.4690 34.323
31.4993 39.167
31.5296 45.156
31.5599 47.760
31.5902 47.031
31.6204 53.958
31.6507 54.948
31.6810 51.510
31.7113 49.531
31.7416 49.531
31.7718 43.802
31.8021 39.427
31.8324 32.969
31.8627 30.156
31.8929 23.229
31.9232 24.479
31.9535 21.146
31.9838 18.437
32.0141 16.562
32.0443 15.677
32.0746 13.437
32.1049 12.135
32.1352 12.240
32.1655 10.677
32.1957 10.312
32.2260 8.854
32.2563 9.375
32.2866 8.594
32.3169 8.958
32.3471 7.448
32.3774 7.344
32.4077 7.083
32.4380 6.771
32.4682 7.187
32.4985 6.198
32.5288 7.031
32.5591 6.250
32.5894 5.521
32.6196 7.344
32.6499 6.250
32.6802 6.823
32.7105 5.521
32.7408 5.885
32.7710 5.365
32.8013 5.729
32.8316 5.677
32.8619 5.365
32.8921 5.000
32.9224 5.469
32.9527 5.937
32.9830 5.573
33.0133 5.625
33.0435 6.458
33.0738 5.417
33.1041 5.781
33.1344 5.469
33.1647 6.094
33.1949 5.469
33.2252 5.677
33.2555 5.208
33.2858 6.198
33.3160 5.260
33.3463 6.875
33.3766 6.406
33.4069 7.552
33.4372 6.042
33.4674 5.885
33.4977 5.990
33.5280 5.833
33.5583 7.240
33.5886 6.094
33.6188 6.771
33.6491 6.927
33.6794 7.187
33.7097 7.240
33.7399 6.250
33.7702 7.656
33.8005 8.958
33.8308 7.344
33.8611 7.760
33.8913 9.896
33.9216 10.469
33.9519 10.521
33.9822 12.396
34.0125 14.271
34.0427 14.844
34.0730 18.437
34.1033 20.885
34.1336 24.479
34.1638 26.823
34.1941 36.458
34.2244 46.562
34.2547 57.292
34.2850 66.146
34.3152 64.687
34.3455 61.198
34.3758 53.698
34.4061 46.719
34.4364 37.760
34.4666 28.698
34.4969 24.635
34.5272 20.469
34.5575 17.396
34.5877 17.292
34.6180 14.896
34.6483 14.323
34.6786 11.354
34.7089 12.240
34.7391 9.792
34.7694 9.323
34.7997 9.323
34.8300 8.385
34.8603 9.792
34.8905 9.323
34.9208 7.396
34.9511 8.177
34.9814 9.062
35.0116 9.167
35.0419 8.646
35.0722 9.375
35.1025 7.500
35.1328 8.125
35.1630 9.635
35.1933 7.812
35.2236 9.896
35.2539 9.948
35.2842 7.969
35.3144 8.385
35.3447 10.156
35.3750 10.417
35.4053 10.833
35.4356 10.833
35.4658 10.833
35.4961 11.719
35.5264 12.708
35.5567 12.500
35.5869 14.271
35.6172 14.635
35.6475 17.031
35.6778 16.719
35.7081 19.115
35.7383 20.000
35.7686 23.229
35.7989 23.854
35.8292 28.802
35.8595 34.167
35.8897 36.042
35.9200 41.875
35.9503 46.146
35.9806 52.812
36.0108 63.073
36.0411 65.729
36.0714 72.865
36.1017 79.219
36.1320 80.625
36.1622 79.948
36.1925 75.052
36.2228 73.958
36.2531 65.521
36.2834 60.521
36.3136 51.042
36.3439 47.708
36.3742 42.135
36.4045 35.521
36.4347 30.469
36.4650 27.812
36.4953 25.677
36.5256 22.865
36.5559 20.833
36.5861 17.760
36.6164 15.521
36.6467 15.521
36.6770 13.646
36.7073 10.469
36.7375 11.146
36.7678 10.625
36.7981 11.146
36.8284 9.271
36.8586 9.583
36.8889 8.958
36.9192 7.500
36.9495 6.979
36.9798 8.125
37.0100 6.771
37.0403 7.865
37.0706 7.135
37.1009 6.458
37.1312 5.781
37.1614 5.625
37.1917 5.729
37.2220 6.562
37.2523 6.198
37.2825 4.375
37.3128 5.677
37.3431 5.833
37.3734 6.302
37.4037 3.698
37.4339 4.375
37.4642 4.583
37.4945 4.896
37.5248 4.792
37.5551 4.479
37.5853 4.115
37.6156 5.365
37.6459 4.167
37.6762 3.854
37.7064 4.167
37.7367 4.323
37.7670 3.750
37.7973 4.427
37.8276 5.260
37.8578 3.906
37.8881 4.687
37.9184 3.177
37.9487 3.229
37.9790 3.594
38.0092 3.594
38.0395 4.167
38.0698 3.542
38.1001 4.583
38.1304 3.333
38.1606 3.229
38.1909 3.385
38.2212 3.542
38.2515 3.594
38.2817 3.021
38.3120 3.073
38.3423 3.073
38.3726 3.698
38.4029 3.229
38.4331 3.437
38.4634 3.333
38.4937 2.708
38.5240 3.333
38.5543 3.385
38.5845 3.021
38.6148 2.812
38.6451 3.437
38.6754 2.656
38.7056 3.542
38.7359 3.437
38.7662 2.812
38.7965 2.552
38.8268 3.125
38.8570 3.125
38.8873 2.969
38.9176 3.125
38.9479 2.604
38.9782 2.708
39.0084 2.448
39.0387 2.812
39.0690 2.240
39.0993 3.125
39.1295 3.021
39.1598 2.448
39.1901 2.604
39.2204 2.344
39.2507 2.656
39.2809 2.552
39.3112 3.177
39.3415 2.604
39.3718 2.344
39.4021 2.760
39.4323 3.281
39.4626 2.448
39.4929 2.344
39.5232 2.604
39.5534 2.552
39.5837 1.771
39.6140 1.927
39.6443 2.604
39.6746 2.344
39.7048 2.604
39.7351 2.604
39.7654 2.760
39.7957 2.292
39.8260 2.187
39.8562 2.396
39.8865 3.073
39.9168 2.708
39.9471 2.396
39.9773 2.552
40.0076 3.177
40.0379 2.448
40.0682 2.552
40.0985 2.760
40.1287 3.073
40.1590 2.812
40.1893 2.604
40.2196 2.344
40.2499 1.510
40.2801 2.812
40.3104 2.448
40.3407 2.656
40.3710 2.500
40.4012 2.708
40.4315 2.135
40.4618 1.875
40.4921 2.135
40.5224 2.292
40.5526 2.396
40.5829 2.604
40.6132 3.125
40.6435 2.240
40.6738 2.865
40.7040 2.135
40.7343 2.552
40.7646 2.812
40.7949 1.979
40.8251 2.604
40.8554 2.135
40.8857 2.031
40.9160 1.771
40.9463 2.396
40.9765 2.708
41.0068 2.396
41.0371 2.344
41.0674 1.979
41.0977 2.240
41.1279 1.615
41.1582 2.135
41.1885 1.875
41.2188 1.823
41.2491 1.823
41.2793 2.656
41.3096 2.344
41.3399 2.135
41.3702 2.240
41.4004 2.396
41.4307 2.656
41.4610 2.292
41.4913 2.083
41.5216 1.823
41.5518 2.292
41.5821 2.917
41.6124 2.396
41.6427 2.031
41.6730 0.937
41.7032 2.448
41.7335 1.771
41.7638 1.979
41.7941 2.083
41.8243 2.865
41.8546 1.875
41.8849 2.083
41.9152 2.187
41.9455 2.344
41.9757 2.083
42.0060 2.187
42.0363 1.979
42.0666 2.240
42.0969 1.875
42.1271 2.031
42.1574 2.135
42.1877 2.031
42.2180 2.292
42.2482 1.562
42.2785 2.187
42.3088 2.135
42.3391 2.812
42.3694 2.083
42.3996 2.083
42.4299 1.615
42.4602 2.083
42.4905 1.979
42.5208 2.031
42.5510 2.552
42.5813 1.927
42.6116 2.396
42.6419 2.760
42.6721 1.823
42.7024 2.031
42.7327 1.875
42.7630 1.406
42.7933 1.562
42.8235 2.396
42.8538 2.344
42.8841 1.979
42.9144 2.187
42.9447 2.448
42.9749 2.187
43.0052 1.823
43.0355 1.875
43.0658 2.448
43.0960 2.396
43.1263 1.719
43.1566 1.771
43.1869 1.615
43.2172 2.760
43.2474 1.875
43.2777 2.135
43.3080 2.187
43.3383 2.396
43.3686 2.187
43.3988 1.875
43.4291 1.667
43.4594 2.656
43.4897 2.240
43.5199 1.875
43.5502 1.771
43.5805 1.615
43.6108 2.083
43.6411 1.927
43.6713 2.083
43.7016 1.615
43.7319 1.354
43.7622 1.979
43.7925 2.083
43.8227 2.031
43.8530 2.292
43.8833 2.396
43.9136 1.562
43.9439 2.240
43.9741 2.448
44.0044 2.448
44.0347 1.823
44.0650 1.562
44.0952 2.292
44.1255 2.240
44.1558 1.875
44.1861 2.240
44.2164 2.604
44.2466 1.979
44.2769 2.031
44.3072 2.187
44.3375 2.292
44.3678 1.615
44.3980 1.823
44.4283 2.292
44.4586 1.979
44.4889 1.771
44.5191 2.031
44.5494 1.667
44.5797 2.135
44.6100 1.823
44.6403 1.979
44.6705 2.500
44.7008 1.771
44.7311 2.135
44.7614 2.031
44.7917 1.771
44.8219 1.927
44.8522 3.073
44.8825 2.448
44.9128 1.875
44.9430 1.875
44.9733 2.292
45.0036 2.240
45.0339 1.927
45.0642 2.187
45.0944 2.344
45.1247 1.719
45.1550 1.979
45.1853 1.771
45.2156 1.667
45.2458 2.031
45.2761 2.187
45.3064 1.927
45.3367 2.708
45.3669 2.500
45.3972 1.771
45.4275 1.875
45.4578 2.031
45.4881 2.344
45.5183 1.771
45.5486 2.240
45.5789 2.187
45.6092 1.719
45.6395 2.552
45.6697 1.875
45.7000 2.083
45.7303 2.760
45.7606 2.812
45.7908 2.187
45.8211 2.083
45.8514 3.021
45.8817 2.031
45.9120 2.083
45.9422 2.552
45.9725 2.656
46.0028 1.979
46.0331 1.979
46.0634 2.135
46.0936 1.927
46.1239 2.604
46.1542 2.604
46.1845 2.240
46.2147 2.500
46.2450 3.073
46.2753 2.083
46.3056 3.385
46.3359 2.656
46.3661 2.604
46.3964 2.969
46.4267 2.865
46.4570 3.125
46.4873 2.812
46.5175 2.656
46.5478 3.385
46.5781 2.604
46.6084 3.281
46.6386 3.385
46.6689 4.375
46.6992 3.542
46.7295 3.958
46.7598 3.490
46.7900 3.854
46.8203 4.219
46.8506 4.740
46.8809 4.792
46.9112 4.583
46.9414 4.531
46.9717 6.250
47.0020 6.302
47.0323 6.302
47.0626 4.896
47.0928 7.240
47.1231 7.865
47.1534 9.740
47.1837 8.854
47.2139 9.271
47.2442 11.354
47.2745 13.958
47.3048 13.958
47.3351 15.937
47.3653 15.729
47.3956 16.979
47.4259 17.708
47.4562 16.823
47.4865 17.187
47.5167 17.240
47.5470 15.312
47.5773 12.917
47.6076 11.198
47.6378 12.135
47.6681 8.854
47.6984 8.073
47.7287 8.021
47.7590 6.875
47.7892 6.719
47.8195 6.406
47.8498 5.104
47.8801 5.156
47.9104 4.635
47.9406 4.896
47.9709 4.375
48.0012 4.062
48.0315 5.000
48.0617 3.490
48.0920 3.802
48.1223 3.906
48.1526 3.437
48.1829 3.385
48.2131 3.021
48.2434 3.229
48.2737 3.177
48.3040 3.229
48.3343 3.802
48.3645 2.865
48.3948 2.187
48.4251 2.708
48.4554 2.187
48.4856 2.292
48.5159 2.604
48.5462 2.396
48.5765 2.187
48.6068 2.812
48.6370 4.115
48.6673 2.552
48.6976 2.969
48.7279 2.240
48.7582 2.240
48.7884 2.604
48.8187 2.708
48.8490 2.187
48.8793 3.125
48.9095 3.073
48.9398 2.448
48.9701 1.823
49.0004 2.708
49.0307 2.031
49.0609 2.083
49.0912 2.500
49.1215 1.979
49.1518 2.187
49.1821 2.448
49.2123 2.031
49.2426 2.604
49.2729 2.656
49.3032 2.187
49.3334 2.500
49.3637 2.292
49.3940 3.073
49.4243 2.187
49.4546 2.344
49.4848 1.823
49.5151 2.031
49.5454 2.031
49.5757 2.187
49.6060 2.292
49.6362 2.031
49.6665 1.979
49.6968 2.552
49.7271 2.396
49.7574 2.135
49.7876 1.979
49.8179 2.240
49.8482 1.823
49.8785 2.292
49.9087 2.344
49.9390 2.135
49.9693 2.135
49.9996 2.135
50.0299 2.187
50.0601 1.771
50.0904 1.667
50.1207 2.344
50.1510 2.552
50.1813 2.292
50.2115 1.458
50.2418 2.500
50.2721 2.656
50.3024 1.875
50.3326 1.771
50.3629 2.135
50.3932 2.031
50.4235 2.448
50.4538 2.083
50.4840 2.292
50.5143 2.292
50.5446 2.135
50.5749 2.292
50.6052 1.562
50.6354 2.292
50.6657 2.031
50.6960 1.979
50.7263 1.979
50.7565 2.083
50.7868 1.823
50.8171 2.187
50.8474 1.875
50.8777 1.875
50.9079 2.240
50.9382 1.771
50.9685 2.396
50.9988 2.708
51.0291 1.823
51.0593 1.875
51.0896 2.708
51.1199 2.500
51.1502 1.927
51.1804 2.292
51.2107 1.406
51.2410 1.667
51.2713 1.823
51.3016 1.927
51.3318 2.604
51.3621 1.979
51.3924 1.771
51.4227 2.135
51.4530 2.917
51.4832 1.927
51.5135 2.135
51.5438 1.771
51.5741 2.552
51.6043 1.927
51.6346 2.187
51.6649 2.656
51.6952 1.979
51.7255 1.719
51.7557 1.979
51.7860 2.031
51.8163 1.979
51.8466 2.187
51.8769 2.187
51.9071 1.719
51.9374 1.927
51.9677 1.927
51.9980 2.083
52.0282 1.458
52.0585 2.240
52.0888 1.823
52.1191 2.604
52.1494 2.292
52.1796 1.615
52.2099 1.927
52.2402 1.927
52.2705 1.823
52.3008 2.031
52.3310 1.875
52.3613 2.031
52.3916 2.500
52.4219 1.823
52.4521 2.812
52.4824 2.031
52.5127 1.771
52.5430 1.719
52.5733 1.458
52.6035 2.240
52.6338 2.448
52.6641 1.719
52.6944 2.448
52.7247 1.771
52.7549 1.667
52.7852 2.500
52.8155 1.562
52.8458 2.135
52.8761 2.865
52.9063 1.979
52.9366 2.187
52.9669 1.615
52.9972 2.031
53.0274 2.031
53.0577 1.458
53.0880 2.448
53.1183 1.771
53.1486 1.667
53.1788 2.396
53.2091 2.135
53.2394 2.448
53.2697 2.552
53.3000 2.031
53.3302 2.135
53.3605 2.083
53.3908 2.448
53.4211 1.615
53.4513 1.458
53.4816 2.396
53.5119 1.979
53.5422 2.083
53.5725 2.552
53.6027 2.292
53.6330 2.240
53.6633 2.396
53.6936 1.615
53.7239 2.292
53.7541 2.344
53.7844 2.604
53.8147 2.396
53.8450 2.396
53.8752 2.187
53.9055 1.771
53.9358 2.396
53.9661 2.760
53.9964 2.396
54.0266 2.500
54.0569 1.979
54.0872 1.979
54.1175 2.656
54.1478 2.656
54.1780 1.771
54.2083 2.240
54.2386 1.927
54.2689 2.396
54.2991 2.500
54.3294 1.927
54.3597 2.031
54.3900 2.344
54.4203 2.500
54.4505 2.448
54.4808 2.760
54.5111 2.240
54.5414 2.552
54.5717 2.083
54.6019 2.448
54.6322 3.281
54.6625 1.875
54.6928 2.708
54.7230 3.229
54.7533 2.083
54.7836 2.344
54.8139 2.865
54.8442 2.865
54.8744 2.448
54.9047 2.500
54.9350 2.865
54.9653 2.917
54.9956 1.927
55.0258 2.917
55.0561 2.187
55.0864 2.344
55.1167 2.865
55.1469 2.760
55.1772 3.333
55.2075 2.396
55.2378 2.292
55.2681 2.396
55.2983 3.385
55.3286 3.125
55.3589 2.396
55.3892 3.333
55.4195 3.021
55.4497 3.125
55.4800 3.073
55.5103 3.125
55.5406 2.812
55.5709 2.552
55.6011 3.229
55.6314 3.437
55.6617 4.323
55.6920 3.437
55.7222 4.010
55.7525 3.646
55.7828 3.437
55.8131 3.958
55.8434 4.375
55.8736 4.115
55.9039 5.156
55.9342 5.312
55.9645 5.052
55.9948 6.406
56.0250 6.406
56.0553 7.292
56.0856 8.125
56.1159 8.594
56.1461 8.333
56.1764 8.802
56.2067 11.146
56.2370 12.656
56.2673 12.969
56.2975 15.156
56.3278 16.562
56.3581 16.354
56.3884 20.469
56.4187 20.677
56.4489 21.719
56.4792 21.719
56.5095 21.875
56.5398 20.156
56.5700 20.625
56.6003 18.802
56.6306 18.125
56.6609 14.896
56.6912 14.427
56.7214 12.917
56.7517 12.292
56.7820 10.937
56.8123 10.365
56.8426 9.010
56.8728 7.865
56.9031 7.135
56.9334 6.302
56.9637 6.562
56.9939 5.104
57.0242 6.875
57.0545 4.583
57.0848 5.885
57.1151 4.271
57.1453 4.740
57.1756 4.115
57.2059 3.594
57.2362 3.594
57.2665 3.281
57.2967 3.229
57.3270 3.958
57.3573 2.812
57.3876 3.750
57.4178 3.281
57.4481 3.542
57.4784 2.969
57.5087 2.969
57.5390 2.969
57.5692 2.396
57.5995 2.604
57.6298 2.865
57.6601 2.656
57.6904 2.708
57.7206 2.812
57.7509 2.240
57.7812 2.812
57.8115 2.708
57.8417 2.344
57.8720 2.552
57.9023 2.396
57.9326 2.240
57.9629 2.656
57.9931 2.292
58.0234 2.240
58.0537 2.135
58.0840 1.615
58.1143 2.396
58.1445 2.500
58.1748 2.083
58.2051 1.927
58.2354 2.083
58.2656 2.656
58.2959 2.812
58.3262 2.760
58.3565 2.187
58.3868 2.187
58.4170 2.396
58.4473 1.875
58.4776 2.240
58.5079 2.240
58.5382 2.917
58.5684 2.552
58.5987 2.031
58.6290 2.187
58.6593 2.187
58.6896 2.500
58.7198 2.552
58.7501 2.240
58.7804 1.927
58.8107 2.344
58.8409 1.875
58.8712 2.292
58.9015 1.771
58.9318 1.667
58.9621 2.448
58.9923 2.083
59.0226 1.979
59.0529 2.448
59.0832 1.562
59.1135 2.500
59.1437 2.187
59.1740 2.031
59.2043 2.656
59.2346 1.510
59.2648 1.823
59.2951 2.135
59.3254 1.927
59.3557 2.135
59.3860 2.656
59.4162 2.031
59.4465 2.396
59.4768 2.396
59.5071 2.031
59.5374 1.823
59.5676 2.344
59.5979 2.292
59.6282 2.083
59.6585 1.927
59.6887 1.927
59.7190 2.552
59.7493 2.344
59.7796 2.187
59.8099 1.510
59.8401 1.510
59.8704 2.396
59.9007 2.396
59.9310 2.292
59.9613 2.031
59.9915 2.135
60.0218 2.083
60.0521 2.969
60.0824 2.031
60.1126 1.927
60.1429 2.240
60.1732 2.135
60.2035 2.344
60.2338 2.448
60.2640 2.135
60.2943 2.708
60.3246 2.500
60.3549 2.083
60.3852 2.187
60.4154 1.875
60.4457 1.979
60.4760 2.812
60.5063 2.344
60.5365 2.135
60.5668 2.292
60.5971 2.135
60.6274 2.292
60.6577 2.187
60.6879 2.604
60.7182 2.448
60.7485 2.917
60.7788 2.031
60.8091 2.656
60.8393 2.656
60.8696 2.396
60.8999 2.187
60.9302 1.875
60.9604 2.500
60.9907 2.083
61.0210 2.552
61.0513 2.448
61.0816 2.396
61.1118 3.177
61.1421 2.448
61.1724 2.812
61.2027 3.229
61.2330 2.135
61.2632 2.083
61.2935 2.969
61.3238 2.708
61.3541 2.656
61.3844 2.396
61.4146 2.083
61.4449 3.125
61.4752 2.656
61.5055 3.333
61.5357 2.656
61.5660 2.760
61.5963 2.396
61.6266 2.344
61.6569 2.500
61.6871 2.292
61.7174 2.604
61.7477 3.177
61.7780 3.698
61.8083 2.708
61.8385 3.646
61.8688 3.177
61.8991 2.865
61.9294 3.177
61.9596 2.656
61.9899 3.802
62.0202 3.802
62.0505 4.323
62.0808 3.802
62.1110 3.333
62.1413 4.271
62.1716 4.427
62.2019 4.062
62.2322 4.323
62.2624 5.677
62.2927 6.094
62.3230 6.198
62.3533 6.406
62.3835 6.615
62.4138 8.385
62.4441 7.760
62.4744 8.906
62.5047 10.312
62.5349 10.885
62.5652 11.042
62.5955 13.125
62.6258 14.844
62.6561 15.729
62.6863 18.333
62.7166 18.229
62.7469 16.667
62.7772 18.542
62.8074 18.021
62.8377 17.500
62.8680 17.031
62.8983 16.667
62.9286 13.906
62.9588 12.812
62.9891 10.365
63.0194 9.635
63.0497 9.792
63.0800 8.646
63.1102 8.437
63.1405 7.031
63.1708 6.406
63.2011 7.083
63.2313 5.937
63.2616 5.104
63.2919 4.531
63.3222 4.427
63.3525 4.219
63.3827 4.271
63.4130 3.281
63.4433 3.646
63.4736 3.229
63.5039 3.333
63.5341 3.542
63.5644 3.385
63.5947 3.333
63.6250 3.281
63.6552 3.229
63.6855 2.448
63.7158 2.708
63.7461 2.604
63.7764 2.969
63.8066 2.135
63.8369 2.969
63.8672 2.865
63.8975 3.698
63.9278 2.344
63.9580 3.125
63.9883 2.448
64.0186 3.177
64.0489 2.656
64.0791 2.448
64.1094 2.708
64.1397 3.021
64.1700 2.500
64.2003 1.979
64.2305 1.771
64.2608 2.552
64.2911 2.083
64.3214 2.396
64.3517 2.656
64.3819 1.875
64.4122 2.500
64.4425 2.292
64.4728 2.292
64.5031 2.448
64.5333 1.615
64.5636 1.927
64.5939 2.292
64.6242 1.354
64.6544 2.500
64.6847 1.875
64.7150 2.500
64.7453 2.083
64.7756 2.656
64.8058 2.448
64.8361 1.927
64.8664 2.448
64.8967 2.865
64.9270 2.552
64.9572 2.240
64.9875 2.031
65.0178 2.604
65.0481 2.500
65.0783 2.500
65.1086 2.083
65.1389 1.979
65.1692 2.708
65.1995 1.875
65.2297 2.448
65.2600 1.875
65.2903 2.187
65.3206 2.760
65.3509 1.875
65.3811 2.604
65.4114 2.083
65.4417 2.448
65.4720 2.396
65.5022 2.656
65.5325 2.344
65.5628 2.396
65.5931 2.604
65.6234 2.344
65.6536 2.917
65.6839 2.448
65.7142 2.552
65.7445 2.917
65.7748 2.969
65.8050 3.125
65.8353 2.448
65.8656 2.812
65.8959 2.865
65.9261 3.073
65.9564 2.448
65.9867 3.646
66.0170 3.229
66.0473 4.375
66.0775 3.281
66.1078 3.594
66.1381 4.583
66.1684 3.750
66.1987 4.167
66.2289 4.583
66.2592 4.635
66.2895 4.583
66.3198 3.229
66.3500 4.323
66.3803 3.906
66.4106 4.479
66.4409 3.229
66.4712 3.958
66.5014 4.740
66.5317 3.385
66.5620 3.646
66.5923 2.500
66.6226 3.594
66.6528 3.490
66.6831 3.802
66.7134 3.854
66.7437 2.708
66.7739 3.542
66.8042 3.594
66.8345 2.760
66.8648 3.385
66.8951 3.958
66.9253 3.021
66.9556 3.490
66.9859 3.021
67.0162 3.437
67.0465 3.333
67.0767 3.437
67.1070 3.281
67.1373 4.010
67.1676 4.219
67.1978 4.583
67.2281 3.958
67.2584 4.896
67.2887 4.531
67.3190 5.469
67.3492 4.844
67.3795 5.260
67.4098 5.260
67.4401 5.208
67.4704 6.562
67.5006 6.458
67.5309 8.490
67.5612 8.281
67.5915 9.219
67.6218 8.906
67.6520 10.052
67.6823 10.469
67.7126 12.865
67.7429 12.135
67.7731 13.437
67.8034 15.156
67.8337 14.323
67.8640 13.385
67.8943 13.281
67.9245 14.115
67.9548 13.333
67.9851 11.354
68.0154 10.417
68.0457 11.458
68.0759 9.271
68.1062 8.958
68.1365 9.271
68.1668 7.344
68.1970 8.490
68.2273 7.344
68.2576 6.823
68.2879 6.250
68.3182 7.031
68.3484 6.667
68.3787 5.781
68.4090 5.469
68.4393 5.573
68.4696 4.323
68.4998 5.208
68.5301 4.583
68.5604 4.583
68.5907 5.625
68.6209 4.219
68.6512 4.635
68.6815 5.469
68.7118 4.687
68.7421 4.896
68.7723 5.990
68.8026 6.771
68.8329 5.990
68.8632 7.760
68.8935 7.135
68.9237 7.865
68.9540 6.823
68.9843 6.771
69.0146 8.437
69.0448 6.719
69.0751 6.667
69.1054 6.302
69.1357 5.885
69.1660 5.833
69.1962 5.677
69.2265 6.250
69.2568 4.687
69.2871 5.833
69.3174 4.531
69.3476 4.271
69.3779 4.583
69.4082 3.854
69.4385 3.542
69.4687 3.229
69.4990 3.333
69.5293 3.646
69.5596 3.750
69.5899 3.125
69.6201 3.333
69.6504 2.604
69.6807 2.552
69.7110 3.021
69.7413 2.760
69.7715 2.812
69.8018 2.344
69.8321 2.917
69.8624 1.875
69.8926 1.719
69.9229 2.604
69.9532 2.656
69.9835 2.187
70.0138 2.552
70.0440 2.292
70.0743 1.927
70.1046 2.344
70.1349 2.656
70.1652 1.719
70.1954 1.771
70.2257 2.240
70.2560 1.875
70.2863 1.875
70.3166 2.344
70.3468 1.719
70.3771 1.771
70.4074 2.240
70.4377 2.031
70.4679 1.250
70.4982 2.135
70.5285 1.875
70.5588 1.042
70.5891 1.719
70.6193 1.771
70.6496 2.292
70.6799 1.458
70.7102 2.083
70.7405 1.979
70.7707 1.458
70.8010 1.406
70.8313 1.875
70.8616 1.771
70.8918 1.875
70.9221 1.667
70.9524 2.552
70.9827 1.771
71.0130 1.615
71.0432 1.771
71.0735 1.719
71.1038 1.771
71.1341 1.875
71.1644 1.562
71.1946 1.250
71.2249 1.458
71.2552 1.927
71.2855 1.510
71.3157 1.771
71.3460 1.823
71.3763 1.562
71.4066 1.615
71.4369 1.250
71.4671 1.510
71.4974 1.615
71.5277 1.250
71.5580 1.875
71.5883 1.927
71.6185 1.875
71.6488 1.667
71.6791 1.250
71.7094 1.562
71.7396 1.927
71.7699 1.875
71.8002 1.771
71.8305 1.771
71.8608 2.083
71.8910 1.771
71.9213 1.562
71.9516 1.875
71.9819 1.667
72.0122 1.979
72.0424 2.344
72.0727 1.667
72.1030 1.615
72.1333 1.771
72.1635 2.396
72.1938 2.240
72.2241 2.396
72.2544 1.979
72.2847 2.240
72.3149 2.135
72.3452 2.604
72.3755 3.229
72.4058 2.448
72.4361 2.708
72.4663 2.604
72.4966 2.865
72.5269 2.187
72.5572 2.865
72.5874 1.719
72.6177 3.073
72.6480 2.708
72.6783 1.927
72.7086 2.083
72.7388 1.875
72.7691 2.187
72.7994 1.875
72.8297 1.719
72.8600 1.771
72.8902 2.083
72.9205 1.406
72.9508 2.083
72.9811 1.979
73.0113 2.135
73.0416 1.979
73.0719 1.875
73.1022 1.615
73.1325 2.031
73.1627 2.031
73.1930 1.406
73.2233 1.875
73.2536 1.979
73.2839 1.510
73.3141 1.458
73.3444 1.927
73.3747 1.719
73.4050 2.031
73.4353 1.302
73.4655 1.406
73.4958 1.406
73.5261 1.667
73.5564 1.250
73.5866 1.771
73.6169 1.354
73.6472 2.031
73.6775 1.510
73.7078 1.875
73.7380 1.615
73.7683 0.677
73.7986 1.562
73.8289 1.354
73.8592 1.406
73.8894 1.719
73.9197 1.927
73.9500 1.406
73.9803 1.042
74.0105 1.354
74.0408 1.250
74.0711 1.406
74.1014 1.302
74.1317 1.510
74.1619 1.510
74.1922 1.406
74.2225 1.458
74.2528 0.990
74.2831 0.885
74.3133 1.146
74.3436 1.198
74.3739 1.719
74.4042 1.198
74.4344 0.885
74.4647 1.042
74.4950 1.198
74.5253 1.250
74.5556 1.667
74.5858 1.302
74.6161 1.250
74.6464 1.510
74.6767 1.615
74.7070 1.562
74.7372 1.302
74.7675 1.094
74.7978 1.510
74.8281 1.719
74.8583 1.094
74.8886 1.615
74.9189 1.146
74.9492 1.406
74.9795 1.979
75.0097 1.823
75.0400 1.771
75.0703 1.667
75.1006 1.406
75.1309 1.354
75.1611 1.823
75.1914 1.979
75.2217 1.458
75.2520 1.302
75.2822 1.354
75.3125 1.094
75.3428 1.510
75.3731 0.937
75.4034 1.719
75.4336 1.719
75.4639 1.979
75.4942 1.667
75.5245 1.667
75.5548 1.510
75.5850 1.719
75.6153 1.510
75.6456 2.187
75.6759 1.510
75.7061 1.667
75.7364 1.354
75.7667 1.406
75.7970 1.146
75.8273 1.458
75.8575 1.042
75.8878 1.354
75.9181 1.979
75.9484 1.667
75.9787 2.187
76.0089 1.510
76.0392 1.615
76.0695 1.198
76.0998 1.406
76.1301 1.719
76.1603 1.667
76.1906 1.875
76.2209 1.146
76.2512 1.354
76.2814 1.667
76.3117 1.719
76.3420 2.240
76.3723 2.135
76.4026 2.448
76.4328 2.083
76.4631 1.823
76.4934 2.031
76.5237 2.083
76.5540 2.031
76.5842 1.406
76.6145 2.292
76.6448 1.875
76.6751 3.437
76.7053 2.396
76.7356 3.385
76.7659 2.708
76.7962 2.812
76.8265 2.656
76.8567 3.177
76.8870 2.865
76.9173 3.333
76.9476 2.500
76.9779 2.500
77.0081 2.552
77.0384 2.552
77.0687 1.979
77.0990 2.500
77.1292 1.875
77.1595 1.979
77.1898 1.927
77.2201 1.927
77.2504 2.448
77.2806 2.240
77.3109 1.875
77.3412 1.510
77.3715 1.667
77.4018 2.083
77.4320 2.135
77.4623 1.875
77.4926 2.083
77.5229 1.458
77.5531 1.562
77.5834 1.719
77.6137 1.354
77.6440 1.875
77.6743 1.771
77.7045 0.937
77.7348 1.719
77.7651 1.667
77.7954 1.823
77.8257 1.354
77.8559 1.562
77.8862 1.250
77.9165 1.927
77.9468 1.562
77.9770 0.885
78.0073 1.302
78.0376 1.458
78.0679 1.562
78.0982 1.667
78.1284 1.042
78.1587 1.198
78.1890 1.719
78.2193 1.823
78.2496 1.562
78.2798 0.990
78.3101 1.198
78.3404 1.198
78.3707 1.875
78.4009 1.771
78.4312 1.354
78.4615 1.406
78.4918 0.937
78.5221 1.146
78.5523 1.667
78.5826 1.667
78.6129 1.146
78.6432 1.667
78.6735 1.771
78.7037 1.615
78.7340 1.146
78.7643 0.885
78.7946 1.198
78.8248 1.198
78.8551 1.562
78.8854 2.031
78.9157 1.198
78.9460 1.562
78.9762 1.042
79.0065 1.510
79.0368 1.615
79.0671 1.198
79.0974 1.198
79.1276 1.406
79.1579 1.302
79.1882 1.250
79.2185 1.354
79.2488 1.771
79.2790 1.510
79.3093 1.667
79.3396 1.250
79.3699 1.562
79.4001 1.458
79.4304 1.094
79.4607 0.885
79.4910 1.198
79.5213 1.667
79.5515 1.719
79.5818 1.667
79.6121 1.615
79.6424 1.458
79.6727 1.302
79.7029 1.562
79.7332 1.302
79.7635 1.510
79.7938 1.354
79.8240 1.615
79.8543 1.406
79.8846 1.667
79.9149 1.354
79.9452 0.937
79.9754 1.406
80.0057 1.406
80.0360 1.458
80.0663 1.719
80.0966 1.458
80.1268 1.042
80.1571 1.615
80.1874 1.406
80.2177 1.042
80.2479 1.198
80.2782 1.198
80.3085 1.094
80.3388 1.354
80.3691 1.250
80.3993 1.562
80.4296 1.198
80.4599 1.354
80.4902 1.458
80.5205 1.510
80.5507 1.354
80.5810 1.667
80.6113 1.042
80.6416 1.250
80.6718 1.354
80.7021 1.667
80.7324 1.562
80.7627 1.094
80.7930 1.354
80.8232 1.667
80.8535 1.667
80.8838 2.292
80.9141 2.292
80.9444 2.135
80.9746 1.562
81.0049 1.198
81.0352 1.927
81.0655 1.927
81.0957 1.719
81.1260 1.562
81.1563 2.031
81.1866 2.656
81.2169 2.187
81.2471 2.240
81.2774 2.344
81.3077 1.615
81.3380 1.875
81.3683 1.823
81.3985 1.823
81.4288 2.344
81.4591 2.031
81.4894 1.562
81.5196 1.823
81.5499 1.354
81.5802 1.667
81.6105 1.667
81.6408 1.406
81.6710 1.562
81.7013 1.771
81.7316 1.354
81.7619 1.406
81.7922 1.146
81.8224 1.615
81.8527 1.615
81.8830 1.458
81.9133 1.927
81.9436 1.302
81.9738 1.719
82.0041 1.146
82.0344 1.927
82.0647 1.667
82.0949 1.354
82.1252 1.354
82.1555 1.406
82.1858 1.354
82.2161 0.990
82.2463 1.562
82.2766 1.510
82.3069 1.250
82.3372 1.302
82.3675 1.146
82.3977 1.146
82.4280 1.250
82.4583 1.667
82.4886 1.042
82.5188 1.250
82.5491 1.250
82.5794 1.615
82.6097 1.667
82.6400 1.250
82.6702 1.458
82.7005 1.615
82.7308 1.615
82.7611 1.302
82.7914 1.042
82.8216 1.510
82.8519 1.146
82.8822 1.719
82.9125 1.458
82.9427 1.771
82.9730 1.615
83.0033 1.510
83.0336 1.198
83.0639 1.198
83.0941 1.719
83.1244 1.510
83.1547 1.250
83.1850 1.510
83.2153 1.354
83.2455 1.146
83.2758 1.667
83.3061 2.240
83.3364 1.354
83.3666 0.937
83.3969 1.667
83.4272 1.198
83.4575 1.250
83.4878 1.562
83.5180 1.198
83.5483 0.781
83.5786 1.302
83.6089 1.615
83.6392 1.146
83.6694 2.031
83.6997 1.302
83.7300 1.615
83.7603 1.354
83.7905 1.458
83.8208 1.302
83.8511 1.302
83.8814 1.562
83.9117 1.458
83.9419 1.042
83.9722 1.667
84.0025 1.146
84.0328 1.354
84.0631 1.615
84.0933 1.615
84.1236 1.198
84.1539 1.146
84.1842 0.937
84.2144 1.615
84.2447 1.406
84.2750 1.354
84.3053 1.406
84.3356 0.990
84.3658 1.198
84.3961 0.833
84.4264 1.302
84.4567 1.562
84.4870 1.354
84.5172 1.198
84.5475 1.198
84.5778 1.406
84.6081 1.406
84.6383 1.094
84.6686 1.510
84.6989 0.990
84.7292 1.354
84.7595 0.990
84.7897 1.875
84.8200 1.250
84.8503 2.135
84.8806 1.198
84.9109 0.781
84.9411 1.094
84.9714 1.667
85.0017 1.562
85.0320 1.406
85.0623 0.990
85.0925 1.198
85.1228 1.198
85.1531 1.562
85.1834 1.042
85.2136 1.198
85.2439 1.562
85.2742 1.302
85.3045 0.729
85.3348 1.198
85.3650 1.406
85.3953 1.458
85.4256 1.823
85.4559 1.562
85.4862 2.135
85.5164 1.198
85.5467 1.667
85.5770 1.510
85.6073 1.198
85.6375 0.781
85.6678 1.094
85.6981 1.719
85.7284 0.990
85.7587 1.198
85.7889 1.667
85.8192 1.250
85.8495 1.302
85.8798 1.198
85.9101 1.406
85.9403 1.562
85.9706 1.510
86.0009 1.667
86.0312 1.302
86.0614 1.458
86.0917 1.615
86.1220 1.667
86.1523 1.250
86.1826 1.198
86.2128 1.094
86.2431 1.302
86.2734 1.354
86.3037 1.354
86.3340 1.458
86.3642 1.458
86.3945 1.302
86.4248 0.729
86.4551 1.615
86.4853 1.146
86.5156 1.667
86.5459 1.146
86.5762 1.458
86.6065 1.042
86.6367 1.406
86.6670 1.823
86.6973 0.729
86.7276 1.771
86.7579 1.198
86.7881 1.198
86.8184 1.615
86.8487 1.354
86.8790 0.573
86.9092 1.354
86.9395 1.042
86.9698 0.885
87.0001 1.927
87.0304 1.562
87.0606 1.146
87.0909 0.990
87.1212 1.250
87.1515 1.510
87.1818 1.042
87.2120 1.458
87.2423 1.302
87.2726 1.198
87.3029 1.823
87.3331 1.146
87.3634 1.667
87.3937 1.615
87.4240 1.771
87.4543 0.990
87.4845 1.354
87.5148 1.302
87.5451 1.406
87.5754 1.562
87.6057 0.937
87.6359 1.354
87.6662 2.135
87.6965 1.927
87.7268 1.771
87.7571 0.729
87.7873 1.146
87.8176 1.302
87.8479 1.406
87.8782 1.146
87.9084 1.458
87.9387 1.198
87.9690 1.094
87.9993 1.562
88.0296 1.458
88.0598 1.250
88.0901 1.094
88.1204 1.510
88.1507 1.875
88.1810 1.719
88.2112 1.250
88.2415 1.458
88.2718 1.667
88.3021 1.667
88.3323 1.771
88.3626 1.562
88.3929 1.302
88.4232 1.510
88.4535 1.562
88.4837 1.979
88.5140 1.823
88.5443 1.354
88.5746 1.302
88.6049 1.198
88.6351 1.198
88.6654 1.667
88.6957 1.875
88.7260 2.031
88.7562 1.562
88.7865 2.031
88.8168 2.083
88.8471 2.135
88.8774 1.302
88.9076 2.708
88.9379 2.187
88.9682 1.823
88.9985 1.771
89.0288 2.917
89.0590 2.396
89.0893 2.240
89.1196 2.187
89.1499 3.385
89.1801 2.344
89.2104 3.177
89.2407 2.396
89.2710 3.594
89.3013 3.177
89.3315 3.646
89.3618 3.698
89.3921 3.177
89.4224 4.062
89.4527 3.646
89.4829 3.490
89.5132 4.583
89.5435 3.958
89.5738 3.750
89.6040 4.948
89.6343 3.698
89.6646 4.167
89.6949 4.375
89.7252 3.073
89.7554 2.969
89.7857 4.062
89.8160 4.062
89.8463 2.448
89.8766 3.281
89.9068 2.656
89.9371 3.177
89.9674 2.344
89.9977 2.552
90.0279 1.875
90.0582 2.604
90.0885 2.292
90.1188 2.500
90.1491 1.979
90.1793 1.667
90.2096 1.562
90.2399 1.771
90.2702 2.135
90.3005 1.406
90.3307 1.719
90.3610 2.083
90.3913 1.354
90.4216 1.927
90.4518 1.667
90.4821 1.458
90.5124 1.667
90.5427 1.458
90.5730 1.719
90.6032 2.240
90.6335 1.927
90.6638 1.719
90.6941 1.927
90.7244 1.510
90.7546 1.615
90.7849 1.406
90.8152 1.302
90.8455 1.667
90.8758 1.615
90.9060 1.562
90.9363 1.562
90.9666 1.667
90.9969 1.510
91.0271 1.198
91.0574 1.354
91.0877 1.823
91.1180 1.771
91.1483 1.562
91.1785 1.562
91.2088 1.667
91.2391 1.615
91.2694 1.198
91.2997 1.510
91.3299 1.510
91.3602 0.990
91.3905 1.510
91.4208 1.354
91.4510 1.510
91.4813 2.656
91.5116 1.354
91.5419 1.510
91.5722 1.042
91.6024 1.302
91.6327 1.667
91.6630 1.042
91.6933 1.302
91.7236 1.458
91.7538 1.562
91.7841 1.823
91.8144 1.771
91.8447 1.771
91.8749 1.302
91.9052 1.667
91.9355 1.250
91.9658 1.719
91.9961 1.302
92.0263 1.458
92.0566 1.250
92.0869 1.250
92.1172 1.094
92.1475 2.187
92.1777 1.250
92.2080 2.187
92.2383 1.719
92.2686 2.083
92.2988 1.927
92.3291 2.135
92.3594 2.187
92.3897 1.719
92.4200 2.187
92.4502 1.771
92.4805 1.927
92.5108 2.396
92.5411 1.719
92.5714 1.979
92.6016 2.344
92.6319 2.917
92.6622 2.187
92.6925 2.448
92.7227 2.656
92.7530 2.448
92.7833 2.500
92.8136 2.083
92.8439 2.187
92.8741 1.979
92.9044 1.979
92.9347 2.396
92.9650 2.031
92.9953 2.396
93.0255 2.135
93.0558 2.240
93.0861 1.198
93.1164 1.354
93.1466 1.875
93.1769 1.719
93.2072 2.344
93.2375 1.667
93.2678 2.448
93.2980 1.823
93.3283 1.615
93.3586 1.562
93.3889 1.562
93.4192 1.146
93.4494 1.458
93.4797 1.719
93.5100 1.302
93.5403 1.667
93.5706 1.667
93.6008 1.927
93.6311 1.771
93.6614 1.406
93.6917 1.927
93.7219 1.615
93.7522 1.615
93.7825 1.406
93.8128 1.979
93.8431 2.135
93.8733 1.875
93.9036 2.187
93.9339 1.719
93.9642 1.927
93.9945 1.250
94.0247 1.667
94.0550 1.042
94.0853 1.771
94.1156 1.771
94.1458 1.979
94.1761 1.458
94.2064 2.031
94.2367 1.562
94.2670 1.510
94.2972 2.187
94.3275 1.250
94.3578 1.667
94.3881 1.667
94.4184 1.979
94.4486 2.083
94.4789 1.615
94.5092 1.875
94.5395 2.083
94.5697 2.344
94.6000 1.667
94.6303 2.552
94.6606 2.552
94.6909 2.604
94.7211 2.448
94.7514 1.927
94.7817 2.240
94.8120 2.344
94.8423 3.125
94.8725 3.177
94.9028 2.083
94.9331 2.708
94.9634 3.490
94.9936 2.604
95.0239 3.385
95.0542 3.594
95.0845 3.177
95.1148 3.750
95.1450 3.021
95.1753 3.073
95.2056 3.646
95.2359 3.906
95.2662 4.167
95.2964 3.646
95.3267 3.333
95.3570 4.062
95.3873 3.229
95.4175 3.073
95.4478 3.333
95.4781 3.125
95.5084 3.542
95.5387 3.177
95.5689 3.281
95.5992 2.448
95.6295 2.292
95.6598 2.708
95.6901 2.396
95.7203 2.292
95.7506 2.344
95.7809 2.760
95.8112 2.083
95.8414 1.979
95.8717 2.448
95.9020 2.292
95.9323 1.875
95.9626 2.187
95.9928 1.927
96.0231 2.031
96.0534 2.135
96.0837 2.344
96.1140 1.823
96.1442 1.719
96.1745 1.615
96.2048 1.927
96.2351 1.615
96.2653 1.458
96.2956 1.458
96.3259 1.875
96.3562 1.302
96.3865 2.135
96.4167 1.719
96.4470 1.406
96.4773 2.135
96.5076 1.719
96.5379 1.406
96.5681 1.510
96.5984 1.615
96.6287 1.719
96.6590 1.094
96.6893 1.458
96.7195 1.250
96.7498 1.615
96.7801 1.094
96.8104 1.406
96.8406 1.458
96.8709 1.458
96.9012 1.823
96.9315 1.979
96.9618 1.458
96.9920 1.615
97.0223 1.667
97.0526 1.562
97.0829 1.562
97.1132 1.771
97.1434 1.719
97.1737 1.562
97.2040 1.875
97.2343 1.719
97.2645 1.458
97.2948 1.510
97.3251 1.771
97.3554 2.031
97.3857 1.250
97.4159 1.250
97.4462 1.250
97.4765 1.458
97.5068 1.979
97.5371 2.031
97.5673 1.198
97.5976 1.771
97.6279 1.875
97.6582 1.823
97.6884 1.562
97.7187 1.823
97.7490 2.083
97.7793 1.458
97.8096 1.354
97.8398 1.771
97.8701 1.510
97.9004 1.458
97.9307 1.719
97.9610 1.615
97.9912 1.458
98.0215 1.719
98.0518 1.771
98.0821 2.240
98.1123 1.771
98.1426 2.083
98.1729 2.083
98.2032 1.927
98.2335 2.240
98.2637 2.135
98.2940 2.812
98.3243 2.604
98.3546 1.927
98.3849 2.812
98.4151 2.292
98.4454 2.344
98.4757 3.594
98.5060 2.240
98.5362 2.812
98.5665 2.240
98.5968 2.344
98.6271 2.500
98.6574 2.604
98.6876 2.240
98.7179 2.396
98.7482 2.031
98.7785 2.292
98.8088 2.292
98.8390 2.292
98.8693 2.552
98.8996 2.240
98.9299 2.083
98.9601 2.448
98.9904 1.927
99.0207 1.875
99.0510 1.979
99.0813 1.615
99.1115 1.875
99.1418 2.187
99.1721 2.083
99.2024 1.823
99.2327 2.083
99.2629 1.146
99.2932 1.615
99.3235 2.187
99.3538 1.719
99.3841 1.458
99.4143 1.510
99.4446 1.406
99.4749 1.823
99.5052 1.562
99.5354 1.510
99.5657 1.458
99.5960 1.615
99.6263 1.667
99.6566 1.406
99.6868 1.302
99.7171 1.302
99.7474 1.562
99.7777 1.562
99.8080 1.823
99.8382 1.354
99.8685 1.406
99.8988 1.927
99.9291 1.302
99.9593 1.615
99.9896 1.771
100.0199 0.990
100.0502 1.771
100.0805 1.719
100.1107 1.719
100.1410 1.354
100.1713 1.146
100.2016 1.406
100.2319 1.146
100.2621 1.094
100.2924 1.615
100.3227 1.458
100.3530 1.719
100.3832 1.094
100.4135 1.667
100.4438 1.719
100.4741 1.094
100.5044 1.146
100.5346 1.146
100.5649 1.458
100.5952 2.083
100.6255 1.302
100.6558 1.354
100.6860 1.198
100.7163 1.719
100.7466 1.094
100.7769 1.562
100.8071 1.562
100.8374 1.771
100.8677 1.406
100.8980 1.510
100.9283 1.562
100.9585 1.562
100.9888 1.354
101.0191 1.406
101.0494 1.823
101.0797 1.302
101.1099 1.406
101.1402 1.823
101.1705 2.031
101.2008 1.354
101.2310 1.562
101.2613 1.510
101.2916 1.562
101.3219 1.875
101.3522 1.562
101.3824 1.719
101.4127 1.562
101.4430 1.302
101.4733 1.771
101.5036 1.458
101.5338 1.771
101.5641 1.615
101.5944 1.927
101.6247 1.823
101.6549 1.406
101.6852 1.667
101.7155 1.510
101.7458 1.302
101.7761 1.250
101.8063 1.719
101.8366 1.354
101.8669 1.615
101.8972 1.302
101.9275 1.406
101.9577 1.562
101.9880 1.562
102.0183 1.302
102.0486 1.094
102.0788 1.823
102.1091 1.198
102.1394 1.823
102.1697 1.458
102.2000 1.719
102.2302 1.510
102.2605 1.458
102.2908 1.510
102.3211 1.615
102.3514 2.031
102.3816 2.083
102.4119 1.667
102.4422 1.406
102.4725 2.344
102.5028 1.823
102.5330 2.292
102.5633 2.240
102.5936 1.667
102.6239 1.875
102.6541 2.448
102.6844 1.979
102.7147 2.656
102.7450 2.552
102.7753 2.708
102.8055 3.281
102.8358 2.083
102.8661 2.396
102.8964 2.292
102.9267 2.292
102.9569 2.604
102.9872 2.708
103.0175 2.187
103.0478 1.823
103.0780 2.604
103.1083 1.510
103.1386 2.396
103.1689 2.448
103.1992 2.240
103.2294 1.667
103.2597 2.031
103.2900 2.187
103.3203 1.875
103.3506 2.292
103.3808 2.708
103.4111 2.448
103.4414 2.448
103.4717 2.240
103.5019 1.667
103.5322 2.656
103.5625 2.083
103.5928 2.448
103.6231 2.448
103.6533 1.927
103.6836 2.500
103.7139 2.812
103.7442 2.760
103.7745 2.708
103.8047 2.500
103.8350 3.229
103.8653 3.177
103.8956 2.604
103.9258 3.021
103.9561 3.333
103.9864 3.385
104.0167 3.073
104.0470 2.448
104.0772 2.812
104.1075 2.812
104.1378 1.927
104.1681 3.333
104.1984 3.437
104.2286 2.552
104.2589 2.604
104.2892 2.500
104.3195 3.125
104.3497 2.708
104.3800 2.292
104.4103 3.073
104.4406 2.500
104.4709 3.073
104.5011 2.083
104.5314 2.760
104.5617 2.292
104.5920 1.875
104.6223 2.760
104.6525 1.510
104.6828 2.500
104.7131 2.604
104.7434 2.031
104.7736 1.667
104.8039 2.083
104.8342 1.823
104.8645 2.344
104.8948 1.094
104.9250 2.135
104.9553 1.667
104.9856 2.083
105.0159 2.135
105.0462 2.031
105.0764 1.406
105.1067 1.667
105.1370 0.885
105.1673 2.292
105.1975 1.354
105.2278 1.562
105.2581 1.562
105.2884 1.719
105.3187 2.552
105.3489 1.302
105.3792 1.406
105.4095 2.135
105.4398 1.302
105.4701 1.823
105.5003 1.406
105.5306 1.458
105.5609 1.719
105.5912 1.562
105.6215 1.875
105.6517 2.292
105.6820 2.083
105.7123 1.615
105.7426 1.667
105.7728 1.562
105.8031 1.250
105.8334 1.198
105.8637 1.615
105.8940 0.937
105.9242 1.458
105.9545 1.979
105.9848 0.990
106.0151 1.562
106.0454 1.615
106.0756 1.406
106.1059 1.719
106.1362 1.458
106.1665 1.562
106.1967 1.302
106.2270 1.510
106.2573 1.458
106.2876 1.510
106.3179 1.510
106.3481 1.250
106.3784 1.771
106.4087 1.823
106.4390 1.979
106.4693 1.615
106.4995 0.990
106.5298 0.833
106.5601 1.094
106.5904 1.354
106.6206 1.823
106.6509 1.354
106.6812 1.510
106.7115 1.562
106.7418 1.719
106.7720 1.875
106.8023 1.406
106.8326 1.615
106.8629 1.302
106.8932 1.354
106.9234 1.250
106.9537 1.302
106.9840 1.979
107.0143 1.771
107.0445 1.771
107.0748 1.823
107.1051 1.615
107.1354 1.354
107.1657 2.135
107.1959 1.667
107.2262 1.615
107.2565 1.458
107.2868 1.667
107.3171 1.198
107.3473 1.667
107.3776 1.615
107.4079 1.719
107.4382 1.250
107.4684 1.927
107.4987 1.562
107.5290 1.771
107.5593 1.875
107.5896 1.875
107.6198 1.406
107.6501 1.927
107.6804 1.719
107.7107 1.875
107.7410 1.094
107.7712 1.615
107.8015 2.500
107.8318 1.094
107.8621 1.771
107.8923 1.406
107.9226 1.927
107.9529 1.094
107.9832 1.562
108.0135 2.083
108.0437 1.406
108.0740 1.510
108.1043 1.823
108.1346 1.510
108.1649 1.354
108.1951 1.875
108.2254 1.667
108.2557 1.667
108.2860 1.406
108.3163 2.135
108.3465 0.885
108.3768 2.083
108.4071 1.562
108.4374 1.042
108.4676 1.979
108.4979 0.990
108.5282 1.719
108.5585 1.458
108.5888 1.458
108.6190 1.875
108.6493 1.667
108.6796 2.344
108.7099 1.302
108.7402 1.458
108.7704 1.250
108.8007 1.667
108.8310 1.302
108.8613 1.875
108.8915 1.458
108.9218 1.510
108.9521 1.406
108.9824 1.510
109.0127 2.240
109.0429 1.458
109.0732 1.354
109.1035 1.302
109.1338 1.198
109.1641 1.406
109.1943 1.458
109.2246 2.135
109.2549 1.562
109.2852 1.667
109.3154 1.562
109.3457 1.250
109.3760 1.406
109.4063 1.250
109.4366 1.510
109.4668 1.562
109.4971 1.354
109.5274 1.198
109.5577 1.146
109.5880 1.562
109.6182 1.667
109.6485 1.719
109.6788 1.615
109.7091 1.250
109.7393 1.927
109.7696 1.562
109.7999 2.187
109.8302 1.979
109.8605 1.979
109.8907 2.031
109.9210 1.823
109.9513 2.708
109.9816 2.135
110.0119 1.615
110.0421 2.187
110.0724 2.083
110.1027 2.396
110.1330 1.979
110.1632 2.448
110.1935 2.396
110.2238 2.448
110.2541 2.396
110.2844 2.031
110.3146 1.667
110.3449 2.500
110.3752 1.510
110.4055 2.604
110.4358 2.240
110.4660 2.344
110.4963 2.083
110.5266 2.448
110.5569 1.823
110.5871 1.927
110.6174 2.552
110.6477 2.344
110.6780 2.865
110.7083 2.292
110.7385 2.396
110.7688 1.823
110.7991 1.823
110.8294 1.927
110.8597 1.875
110.8899 2.083
110.9202 2.031
110.9505 1.458
110.9808 1.927
111.0110 1.979
111.0413 1.927
111.0716 1.615
111.1019 2.083
111.1322 1.354
111.1624 1.771
111.1927 1.510
111.2230 2.083
111.2533 1.458
111.2836 1.979
111.3138 1.979
111.3441 1.719
111.3744 1.823
111.4047 1.458
111.4350 1.719
111.4652 1.875
111.4955 1.198
111.5258 1.823
111.5561 1.667
111.5863 1.615
111.6166 1.562
111.6469 1.927
111.6772 1.667
111.7075 1.302
111.7377 1.562
111.7680 1.406
111.7983 1.667
111.8286 1.875
111.8589 1.510
111.8891 1.510
111.9194 1.875
111.9497 1.875
111.9800 1.458
112.0102 1.354
112.0405 1.094
112.0708 1.667
112.1011 1.719
112.1314 1.198
112.1616 1.667
112.1919 1.771
112.2222 1.615
112.2525 1.042
112.2828 1.406
112.3130 1.302
112.3433 1.510
112.3736 1.406
112.4039 1.042
112.4341 1.094
112.4644 1.667
112.4947 1.250
112.5250 1.562
112.5553 1.250
112.5855 1.198
112.6158 1.302
112.6461 1.719
112.6764 1.146
112.7067 1.979
112.7369 1.042
112.7672 1.979
112.7975 1.406
112.8278 1.250
112.8580 1.510
112.8883 1.458
112.9186 1.667
112.9489 1.562
112.9792 1.458
113.0094 1.406
113.0397 1.250
113.0700 1.146
113.1003 1.458
113.1306 1.719
113.1608 1.042
113.1911 1.354
113.2214 1.510
113.2517 1.042
113.2819 1.042
113.3122 1.094
113.3425 1.094
113.3728 1.302
113.4031 1.458
113.4333 1.146
113.4636 1.250
113.4939 0.781
113.5242 1.823
113.5545 1.458
113.5847 1.146
113.6150 1.042
113.6453 1.458
113.6756 1.250
113.7058 1.198
113.7361 1.771
113.7664 1.198
113.7967 1.510
113.8270 1.250
113.8572 1.615
113.8875 1.510
113.9178 1.771
113.9481 1.771
113.9784 1.458
114.0086 1.562
114.0389 1.458
114.0692 1.094
114.0995 1.198
114.1298 1.510
114.1600 1.250
114.1903 1.406
114.2206 1.354
114.2509 1.406
114.2811 1.354
114.3114 1.250
114.3417 2.083
114.3720 1.615
114.4023 1.250
114.4325 1.198
114.4628 1.615
114.4931 1.875
114.5234 1.823
114.5537 1.667
114.5839 1.198
114.6142 1.771
114.6445 1.406
114.6748 1.250
114.7050 1.458
114.7353 1.823
114.7656 1.094
114.7959 1.510
114.8262 1.250
114.8564 1.771
114.8867 1.250
114.9170 1.615
114.9473 1.771
114.9776 1.875
115.0078 1.354
115.0381 1.510
115.0684 1.823
115.0987 1.510
115.1289 1.562
115.1592 2.031
115.1895 1.875
115.2198 1.875
115.2501 1.875
115.2803 1.823
115.3106 1.823
115.3409 2.240
115.3712 1.823
115.4015 1.875
115.4317 2.344
115.4620 1.875
115.4923 1.875
115.5226 2.083
115.5528 1.927
115.5831 2.135
115.6134 2.500
115.6437 2.656
115.6740 2.396
115.7042 2.552
115.7345 2.656
115.7648 2.552
115.7951 3.594
115.8254 3.385
115.8556 3.802
115.8859 2.865
115.9162 3.437
115.9465 3.437
115.9767 3.073
116.0070 3.229
116.0373 4.531
116.0676 2.865
116.0979 3.490
116.1281 3.333
116.1584 3.698
116.1887 4.583
116.2190 3.125
116.2493 3.437
116.2795 2.865
116.3098 3.229
116.3401 3.229
116.3704 2.760
116.4006 2.969
116.4309 2.708
116.4612 3.333
116.4915 2.344
116.5218 3.229
116.5520 3.698
116.5823 3.490
116.6126 3.333
116.6429 2.812
116.6732 3.281
116.7034 2.240
116.7337 2.500
116.7640 2.917
116.7943 2.135
116.8245 2.969
116.8548 1.823
116.8851 2.552
116.9154 1.979
116.9457 2.135
116.9759 2.708
117.0062 2.656
117.0365 2.448
117.0668 2.344
117.0971 2.031
117.1273 2.187
117.1576 2.135
117.1879 2.240
117.2182 2.031
117.2485 1.823
117.2787 2.292
117.3090 1.823
117.3393 1.406
117.3696 1.927
117.3998 2.031
117.4301 1.615
117.4604 1.458
117.4907 1.927
117.5210 1.406
117.5512 1.719
117.5815 1.875
117.6118 1.615
117.6421 1.979
117.6724 2.396
117.7026 1.875
117.7329 1.250
117.7632 2.135
117.7935 1.667
117.8237 1.458
117.8540 1.771
117.8843 1.667
117.9146 1.875
117.9449 1.458
117.9751 1.562
118.0054 1.823
118.0357 2.083
118.0660 1.719
118.0963 1.510
118.1265 1.615
118.1568 1.302
118.1871 1.302
118.2174 2.135
118.2476 1.875
118.2779 1.198
118.3082 2.083
118.3385 1.354
118.3688 1.719
118.3990 1.354
118.4293 1.771
118.4596 1.562
118.4899 1.823
118.5202 1.198
118.5504 1.667
118.5807 1.094
118.6110 1.146
118.6413 1.302
118.6715 1.615
118.7018 1.458
118.7321 1.562
118.7624 1.510
118.7927 1.615
118.8229 1.094
118.8532 1.562
118.8835 1.458
118.9138 1.250
118.9441 1.458
118.9743 1.354
119.0046 1.302
119.0349 1.562
119.0652 1.406
119.0954 1.354
119.1257 1.823
119.1560 1.458
119.1863 1.302
119.2166 1.354
119.2468 1.823
119.2771 1.302
119.3074 1.667
119.3377 1.406
119.3680 2.083
119.3982 1.979
119.4285 1.250
119.4588 1.354
119.4891 1.250
119.5193 1.667
119.5496 1.667
119.5799 1.302
119.6102 1.719
119.6405 1.510
119.6707 1.458
119.7010 1.354
119.7313 1.667
119.7616 1.354
119.7919 1.562
119.8221 1.458
119.8524 1.510
119.8827 1.927
119.9130 1.146
119.9433 1.667
119.9735 1.562
120.0038 1.354
