'Id: "" Comment: "" Operator: "Lab Manager" Anode: "Cu" Scantype: "Locked Coupled" TimePerStep: "19.2" X: "9999" Y: "9999" Z: "9999" 
10.0015 4.375
10.0318 3.594
10.0620 2.604
10.0923 4.167
10.1226 2.760
10.1529 3.542
10.1832 3.958
10.2134 3.750
10.2437 3.646
10.2740 3.594
10.3043 3.333
10.3346 4.167
10.3648 3.542
10.3951 3.281
10.4254 3.437
10.4557 3.750
10.4859 4.271
10.5162 4.010
10.5465 4.687
10.5768 3.437
10.6071 3.698
10.6373 2.969
10.6676 3.750
10.6979 4.219
10.7282 3.229
10.7585 3.802
10.7887 4.010
10.8190 3.490
10.8493 2.344
10.8796 4.010
10.9098 3.021
10.9401 4.115
10.9704 4.323
11.0007 3.854
11.0310 3.437
11.0612 5.000
11.0915 3.854
11.1218 3.594
11.1521 3.750
11.1824 3.750
11.2126 3.125
11.2429 4.479
11.2732 3.437
11.3035 3.437
11.3337 3.490
11.3640 4.115
11.3943 3.385
11.4246 3.490
11.4549 4.792
11.4851 3.021
11.5154 3.125
11.5457 3.385
11.5760 2.656
11.6063 3.021
11.6365 2.812
11.6668 2.656
11.6971 3.177
11.7274 2.917
11.7577 2.708
11.7879 3.021
11.8182 3.437
11.8485 3.333
11.8788 2.656
11.9090 3.854
11.9393 2.552
11.9696 4.010
11.9999 2.552
12.0302 3.750
12.0604 3.385
12.0907 3.229
12.1210 3.281
12.1513 3.437
12.1816 3.542
12.2118 3.177
12.2421 3.021
12.2724 2.917
12.3027 2.500
12.3329 3.281
12.3632 3.646
12.3935 3.333
12.4238 3.437
12.4541 2.812
12.4843 3.750
12.5146 3.437
12.5449 4.062
12.5752 2.187
12.6055 2.812
12.6357 3.073
12.6660 2.760
12.6963 2.812
12.7266 3.750
12.7568 2.552
12.7871 3.073
12.8174 3.073
12.8477 3.281
12.8780 2.969
12.9082 2.240
12.9385 2.344
12.9688 2.500
12.9991 3.177
13.0294 2.604
13.0596 2.917
13.0899 2.083
13.1202 2.917
13.1505 3.490
13.1807 3.698
13.2110 3.490
13.2413 2.552
13.2716 3.281
13.3019 2.656
13.3321 2.344
13.3624 2.500
13.3927 2.448
13.4230 2.812
13.4533 3.385
13.4835 3.281
13.5138 3.646
13.5441 2.969
13.5744 2.865
13.6046 3.542
13.6349 2.865
13.6652 3.177
13.6955 2.969
13.7258 2.344
13.7560 2.760
13.7863 2.344
13.8166 3.437
13.8469 2.760
13.8772 2.969
13.9074 3.177
13.9377 2.760
13.9680 2.865
13.9983 2.604
14.0285 2.708
14.0588 3.854
14.0891 2.760
14.1194 2.552
14.1497 2.240
14.1799 2.865
14.2102 2.448
14.2405 2.917
14.2708 3.542
14.3011 2.344
14.3313 2.917
14.3616 4.115
14.3919 2.708
14.4222 3.021
14.4524 2.812
14.4827 3.750
14.5130 3.125
14.5433 2.604
14.5736 4.219
14.6038 3.333
14.6341 2.500
14.6644 2.969
14.6947 2.812
14.7250 3.073
14.7552 2.969
14.7855 2.656
14.8158 2.656
14.8461 2.396
14.8764 3.125
14.9066 2.292
14.9369 3.073
14.9672 2.031
14.9975 2.292
15.0277 2.083
15.0580 2.708
15.0883 2.812
15.1186 3.125
15.1489 2.396
15.1791 2.500
15.2094 2.812
15.2397 2.917
15.2700 3.490
15.3003 2.812
15.3305 3.021
15.3608 3.333
15.3911 3.333
15.4214 3.281
15.4516 1.979
15.4819 2.760
15.5122 3.490
15.5425 1.979
15.5728 2.708
15.6030 3.594
15.6333 2.708
15.6636 2.396
15.6939 2.969
15.7242 2.344
15.7544 2.552
15.7847 3.125
15.8150 2.552
15.8453 2.812
15.8755 2.812
15.9058 2.865
15.9361 2.135
15.9664 2.187
15.9967 2.812
16.0269 2.708
16.0572 2.604
16.0875 2.760
16.1178 3.385
16.1481 2.760
16.1783 3.021
16.2086 2.500
16.2389 2.604
16.2692 2.865
16.2994 2.552
16.3297 2.917
16.3600 2.812
16.3903 2.656
16.4206 3.281
16.4508 3.333
16.4811 2.031
16.5114 2.031
16.5417 2.135
16.5720 2.760
16.6022 2.917
16.6325 2.292
16.6628 2.708
16.6931 2.708
16.7233 2.865
16.7536 2.708
16.7839 2.344
16.8142 2.552
16.8445 2.865
16.8747 2.865
16.9050 3.490
16.9353 2.292
16.9656 3.177
16.9959 2.708
17.0261 1.979
17.0564 3.542
17.0867 2.917
17.1170 2.552
17.1472 3.021
17.1775 2.240
17.2078 3.125
17.2381 3.490
17.2684 3.333
17.2986 2.812
17.3289 3.437
17.3592 2.396
17.3895 2.969
17.4198 2.083
17.4500 2.604
17.4803 2.135
17.5106 3.073
17.5409 2.396
17.5712 3.021
17.6014 2.917
17.6317 2.708
17.6620 2.865
17.6923 2.760
17.7225 3.229
17.7528 3.073
17.7831 2.604
17.8134 2.656
17.8437 2.396
17.8739 2.500
17.9042 2.240
17.9345 3.125
17.9648 3.021
17.9951 2.917
18.0253 2.240
18.0556 2.500
18.0859 3.542
18.1162 2.187
18.1464 2.708
18.1767 2.708
18.2070 2.552
18.2373 2.812
18.2676 2.760
18.2978 2.812
18.3281 2.292
18.3584 1.823
18.3887 2.760
18.4190 3.125
18.4492 2.604
18.4795 1.823
18.5098 3.281
18.5401 2.135
18.5703 3.073
18.6006 2.135
18.6309 2.240
18.6612 2.344
18.6915 1.927
18.7217 2.708
18.7520 2.708
18.7823 2.604
18.8126 2.135
18.8429 2.240
18.8731 2.708
18.9034 2.135
18.9337 2.604
18.9640 2.865
18.9942 2.292
19.0245 1.927
19.0548 2.240
19.0851 1.823
19.1154 2.135
19.1456 2.500
19.1759 2.083
19.2062 2.656
19.2365 2.135
19.2668 2.500
19.2970 1.979
19.3273 2.656
19.3576 2.135
19.3879 1.823
19.4181 3.073
19.4484 3.073
19.4787 1.458
19.5090 2.187
19.5393 2.083
19.5695 1.927
19.5998 1.667
19.6301 2.344
19.6604 2.240
19.6907 2.292
19.7209 2.708
19.7512 3.073
19.7815 2.500
19.8118 1.875
19.8420 2.708
19.8723 2.708
19.9026 2.135
19.9329 3.542
19.9632 2.917
19.9934 2.708
20.0237 2.083
20.0540 1.615
20.0843 2.344
20.1146 2.552
20.1448 2.500
20.1751 1.927
20.2054 2.552
20.2357 2.135
20.2659 2.396
20.2962 2.604
20.3265 2.031
20.3568 2.344
20.3871 2.812
20.4173 2.812
20.4476 2.240
20.4779 1.875
20.5082 2.656
20.5385 2.396
20.5687 2.969
20.5990 1.979
20.6293 1.823
20.6596 2.083
20.6899 2.292
20.7201 1.979
20.7504 2.604
20.7807 1.771
20.8110 2.396
20.8412 2.865
20.8715 2.500
20.9018 2.240
20.9321 1.562
20.9624 1.927
20.9926 2.135
21.0229 2.187
21.0532 2.135
21.0835 1.979
21.1138 2.708
21.1440 2.500
21.1743 2.292
21.2046 2.500
21.2349 1.979
21.2651 2.292
21.2954 1.823
21.3257 2.292
21.3560 2.865
21.3863 1.927
21.4165 1.823
21.4468 2.396
21.4771 2.292
21.5074 1.875
21.5377 2.604
21.5679 2.344
21.5982 1.875
21.6285 2.708
21.6588 1.927
21.6890 2.604
21.7193 2.240
21.7496 2.396
21.7799 2.083
21.8102 1.979
21.8404 2.708
21.8707 1.927
21.9010 2.448
21.9313 2.448
21.9616 1.823
21.9918 1.354
22.0221 2.083
22.0524 2.500
22.0827 2.083
22.1129 2.396
22.1432 2.187
22.1735 2.083
22.2038 2.552
22.2341 2.083
22.2643 2.760
22.2946 2.135
22.3249 2.292
22.3552 2.344
22.3855 2.552
22.4157 2.396
22.4460 1.875
22.4763 1.979
22.5066 2.396
22.5368 1.979
22.5671 2.187
22.5974 2.396
22.6277 2.552
22.6580 2.448
22.6882 2.083
22.7185 2.396
22.7488 1.771
22.7791 2.292
22.8094 1.823
22.8396 2.135
22.8699 2.292
22.9002 2.396
22.9305 2.292
22.9607 2.448
22.9910 1.927
23.0213 2.604
23.0516 2.135
23.0819 2.240
23.1121 1.979
23.1424 2.135
23.1727 2.083
23.2030 2.031
23.2333 2.396
23.2635 1.979
23.2938 2.500
23.3241 2.656
23.3544 1.615
23.3846 2.031
23.4149 2.135
23.4452 2.604
23.4755 1.719
23.5058 2.344
23.5360 2.187
23.5663 2.083
23.5966 2.083
23.6269 2.083
23.6572 2.135
23.6874 2.448
23.7177 1.979
23.7480 2.292
23.7783 1.667
23.8086 1.458
23.8388 2.448
23.8691 1.875
23.8994 2.187
23.9297 1.875
23.9599 2.292
23.9902 2.187
24.0205 1.823
24.0508 1.771
24.0811 1.823
24.1113 2.187
24.1416 2.083
24.1719 2.344
24.2022 1.927
24.2325 1.667
24.2627 3.021
24.2930 1.875
24.3233 1.875
24.3536 1.458
24.3838 2.448
24.4141 2.448
24.4444 2.187
24.4747 1.719
24.5050 1.667
24.5352 2.448
24.5655 2.448
24.5958 1.927
24.6261 1.875
24.6564 2.708
24.6866 2.083
24.7169 2.396
24.7472 1.875
24.7775 1.562
24.8077 1.667
24.8380 2.448
24.8683 1.979
24.8986 1.250
24.9289 1.875
24.9591 2.135
24.9894 2.396
25.0197 2.240
25.0500 3.021
25.0803 2.344
25.1105 2.344
25.1408 1.875
25.1711 2.708
25.2014 1.875
25.2316 2.187
25.2619 1.927
25.2922 2.240
25.3225 2.552
25.3528 1.406
25.3830 1.875
25.4133 2.031
25.4436 1.719
25.4739 2.187
25.5042 2.135
25.5344 1.823
25.5647 3.073
25.5950 2.187
25.6253 2.552
25.6555 1.875
25.6858 2.448
25.7161 2.292
25.7464 2.656
25.7767 1.823
25.8069 1.979
25.8372 2.500
25.8675 1.615
25.8978 2.031
25.9281 1.979
25.9583 2.760
25.9886 1.771
26.0189 2.292
26.0492 1.875
26.0794 1.823
26.1097 2.344
26.1400 2.240
26.1703 1.771
26.2006 2.760
26.2308 2.083
26.2611 2.448
26.2914 2.292
26.3217 2.292
26.3520 2.656
26.3822 2.396
26.4125 1.823
26.4428 1.302
26.4731 2.604
26.5034 1.927
26.5336 2.500
26.5639 2.344
26.5942 1.771
26.6245 2.760
26.6547 2.708
26.6850 2.396
26.7153 2.344
26.7456 1.979
26.7759 2.240
26.8061 2.760
26.8364 1.667
26.8667 1.927
26.8970 2.135
26.9273 2.865
26.9575 2.917
26.9878 2.604
27.0181 2.396
27.0484 2.448
27.0786 2.969
27.1089 2.292
27.1392 2.292
27.1695 2.500
27.1998 2.500
27.2300 1.510
27.2603 1.979
27.2906 2.604
27.3209 1.875
27.3512 2.396
27.3814 1.927
27.4117 2.187
27.4420 2.708
27.4723 2.760
27.5025 2.552
27.5328 1.667
27.5631 2.760
27.5934 2.240
27.6237 2.396
27.6539 1.667
27.6842 2.344
27.7145 2.135
27.7448 3.490
27.7751 2.604
27.8053 1.562
27.8356 2.396
27.8659 2.552
27.8962 2.760
27.9264 2.448
27.9567 2.240
27.9870 2.448
28.0173 2.969
28.0476 2.969
28.0778 2.448
28.1081 2.656
28.1384 2.969
28.1687 2.500
28.1990 2.135
28.2292 2.292
28.2595 2.292
28.2898 2.604
28.3201 2.448
28.3503 2.292
28.3806 1.979
28.4109 2.344
28.4412 2.135
28.4715 2.448
28.5017 3.177
28.5320 2.396
28.5623 2.708
28.5926 2.031
28.6229 2.604
28.6531 2.917
28.6834 2.344
28.7137 2.500
28.7440 2.135
28.7742 2.760
28.8045 2.760
28.8348 3.594
28.8651 3.125
28.8954 2.448
28.9256 3.177
28.9559 2.760
28.9862 2.396
29.0165 3.229
29.0468 2.292
29.0770 2.552
29.1073 2.708
29.1376 3.385
29.1679 2.865
29.1981 2.396
29.2284 3.021
29.2587 2.656
29.2890 2.708
29.3193 2.604
29.3495 3.385
29.3798 2.865
29.4101 2.865
29.4404 3.229
29.4707 3.333
29.5009 3.802
29.5312 2.812
29.5615 2.396
29.5918 3.333
29.6221 2.760
29.6523 2.760
29.6826 2.865
29.7129 2.760
29.7432 3.385
29.7734 3.594
29.8037 3.646
29.8340 2.604
29.8643 3.698
29.8946 3.542
29.9248 3.385
29.9551 3.073
29.9854 4.010
30.0157 3.646
30.0460 3.229
30.0762 3.594
30.1065 3.177
30.1368 2.917
30.1671 4.167
30.1973 3.542
30.2276 4.427
30.2579 3.385
30.2882 4.062
30.3185 4.219
30.3487 4.010
30.3790 3.906
30.4093 3.385
30.4396 4.635
30.4699 4.115
30.5001 5.156
30.5304 4.479
30.5607 4.427
30.5910 4.844
30.6212 3.854
30.6515 4.583
30.6818 3.802
30.7121 4.115
30.7424 4.948
30.7726 5.469
30.8029 5.208
30.8332 5.365
30.8635 6.667
30.8938 6.771
30.9240 6.562
30.9543 7.135
30.9846 6.406
31.0149 7.448
31.0451 8.542
31.0754 7.865
31.1057 9.167
31.1360 11.406
31.1663 11.094
31.1965 11.979
31.2268 12.135
31.2571 12.604
31.2874 13.177
31.3177 15.469
31.3479 17.760
31.3782 22.240
31.4085 22.500
31.4388 22.448
31.4690 28.021
31.4993 31.094
31.5296 33.854
31.5599 35.833
31.5902 37.240
31.6204 37.240
31.6507 40.208
31.6810 35.156
31.7113 32.604
31.7416 31.823
31.7718 29.740
31.8021 25.417
31.8324 22.865
31.8627 19.792
31.8929 19.740
31.9232 16.406
31.9535 15.833
31.9838 12.760
32.0141 12.031
32.0443 9.375
32.0746 9.792
32.1049 11.094
32.1352 9.844
32.1655 9.531
32.1957 7.812
32.2260 7.396
32.2563 7.187
32.2866 6.198
32.3169 6.458
32.3471 6.615
32.3774 6.042
32.4077 6.302
32.4380 5.521
32.4682 5.833
32.4985 5.208
32.5288 4.792
32.5591 5.885
32.5894 4.896
32.6196 5.365
32.6499 4.740
32.6802 5.156
32.7105 4.479
32.7408 4.271
32.7710 6.406
32.8013 4.635
32.8316 4.271
32.8619 5.312
32.8921 4.271
32.9224 4.740
32.9527 5.156
32.9830 4.167
33.0133 4.167
33.0435 3.542
33.0738 3.542
33.1041 4.531
33.1344 4.427
33.1647 5.469
33.1949 4.948
33.2252 3.958
33.2555 3.906
33.2858 5.312
33.3160 4.271
33.3463 4.427
33.3766 4.948
33.4069 4.115
33.4372 4.271
33.4674 5.104
33.4977 4.479
33.5280 4.896
33.5583 4.740
33.5886 5.833
33.6188 5.937
33.6491 4.948
33.6794 4.740
33.7097 5.937
33.7399 6.562
33.7702 5.833
33.8005 6.302
33.8308 6.771
33.8611 8.385
33.8913 6.719
33.9216 9.271
33.9519 11.042
33.9822 10.677
34.0125 11.302
34.0427 14.531
34.0730 13.802
34.1033 16.562
34.1336 16.771
34.1638 24.687
34.1941 28.906
34.2244 35.312
34.2547 40.000
34.2850 40.781
34.3152 42.344
34.3455 39.635
34.3758 33.854
34.4061 31.927
34.4364 22.760
34.4666 19.219
34.4969 15.885
34.5272 14.635
34.5575 11.823
34.5877 11.042
34.6180 9.219
34.6483 9.271
34.6786 7.969
34.7089 9.167
34.7391 9.062
34.7694 8.073
34.7997 6.719
34.8300 7.083
34.8603 6.562
34.8905 7.031
34.9208 6.927
34.9511 6.198
34.9814 6.719
35.0116 6.927
35.0419 7.031
35.0722 6.823
35.1025 7.083
35.1328 6.719
35.1630 6.771
35.1933 6.823
35.2236 8.125
35.2539 8.490
35.2842 8.125
35.3144 7.500
35.3447 8.594
35.3750 8.177
35.4053 8.698
35.4356 10.052
35.4658 10.208
35.4961 9.323
35.5264 11.094
35.5567 10.990
35.5869 11.927
35.6172 12.812
35.6475 12.240
35.6778 15.417
35.7081 17.604
35.7383 17.656
35.7686 21.146
35.7989 23.125
35.8292 23.281
35.8595 25.469
35.8897 31.771
35.9200 32.396
35.9503 36.146
35.9806 40.625
36.0108 41.823
36.0411 47.812
36.0714 49.687
36.1017 51.146
36.1320 54.427
36.1622 49.687
36.1925 49.948
36.2228 45.625
36.2531 40.312
36.2834 37.552
36.3136 34.427
36.3439 30.625
36.3742 24.583
36.4045 23.125
36.4347 21.198
36.4650 20.000
36.4953 16.354
36.5256 15.052
36.5559 12.240
36.5861 12.240
36.6164 10.937
36.6467 10.312
36.6770 10.260
36.7073 9.375
36.7375 8.021
36.7678 8.333
36.7981 6.979
36.8284 6.042
36.8586 6.406
36.8889 7.031
36.9192 5.573
36.9495 4.792
36.9798 5.625
37.0100 6.250
37.0403 5.573
37.0706 4.531
37.1009 5.260
37.1312 4.687
37.1614 5.260
37.1917 4.583
37.2220 4.844
37.2523 4.115
37.2825 4.896
37.3128 4.792
37.3431 4.010
37.3734 4.062
37.4037 4.062
37.4339 3.646
37.4642 3.281
37.4945 3.906
37.5248 3.594
37.5551 4.010
37.5853 3.281
37.6156 4.010
37.6459 2.812
37.6762 3.906
37.7064 3.698
37.7367 3.021
37.7670 3.385
37.7973 2.760
37.8276 3.490
37.8578 3.125
37.8881 3.385
37.9184 2.448
37.9487 3.125
37.9790 2.656
38.0092 3.073
38.0395 2.604
38.0698 2.448
38.1001 2.396
38.1304 1.771
38.1606 2.240
38.1909 1.719
38.2212 3.542
38.2515 2.760
38.2817 2.187
38.3120 2.187
38.3423 2.396
38.3726 1.719
38.4029 2.865
38.4331 2.083
38.4634 2.604
38.4937 1.615
38.5240 2.187
38.5543 2.552
38.5845 2.240
38.6148 2.396
38.6451 2.708
38.6754 2.135
38.7056 2.135
38.7359 2.083
38.7662 2.292
38.7965 2.240
38.8268 2.083
38.8570 2.240
38.8873 2.500
38.9176 2.135
38.9479 2.083
38.9782 2.240
39.0084 1.667
39.0387 2.292
39.0690 1.979
39.0993 1.771
39.1295 2.135
39.1598 2.240
39.1901 2.031
39.2204 2.187
39.2507 1.875
39.2809 2.187
39.3112 1.458
39.3415 2.135
39.3718 2.240
39.4021 2.135
39.4323 1.667
39.4626 1.667
39.4929 2.187
39.5232 2.292
39.5534 2.604
39.5837 1.719
39.6140 1.771
39.6443 1.667
39.6746 2.240
39.7048 1.667
39.7351 1.615
39.7654 1.562
39.7957 2.031
39.8260 2.031
39.8562 2.187
39.8865 1.250
39.9168 1.302
39.9471 2.083
39.9773 1.927
40.0076 1.562
40.0379 1.406
40.0682 1.615
40.0985 1.771
40.1287 1.979
40.1590 1.510
40.1893 2.031
40.2196 1.771
40.2499 2.187
40.2801 1.823
40.3104 1.927
40.3407 1.823
40.3710 1.406
40.4012 1.562
40.4315 2.292
40.4618 1.615
40.4921 1.458
40.5224 1.198
40.5526 1.562
40.5829 1.562
40.6132 1.771
40.6435 1.198
40.6738 1.406
40.7040 1.667
40.7343 1.562
40.7646 1.771
40.7949 1.510
40.8251 1.979
40.8554 1.667
40.8857 1.719
40.9160 1.250
40.9463 1.406
40.9765 1.250
41.0068 1.146
41.0371 1.771
41.0674 1.771
41.0977 1.406
41.1279 1.875
41.1582 1.667
41.1885 2.083
41.2188 1.615
41.2491 2.448
41.2793 2.083
41.3096 1.927
41.3399 1.719
41.3702 1.406
41.4004 1.771
41.4307 1.562
41.4610 1.979
41.4913 1.458
41.5216 1.823
41.5518 2.135
41.5821 1.562
41.6124 1.510
41.6427 1.719
41.6730 1.198
41.7032 1.771
41.7335 1.719
41.7638 1.771
41.7941 2.031
41.8243 1.667
41.8546 1.510
41.8849 2.031
41.9152 1.510
41.9455 2.240
41.9757 1.510
42.0060 1.823
42.0363 1.510
42.0666 1.302
42.0969 2.135
42.1271 1.510
42.1574 1.615
42.1877 1.354
42.2180 1.302
42.2482 1.927
42.2785 1.667
42.3088 1.823
42.3391 1.510
42.3694 1.354
42.3996 2.083
42.4299 1.458
42.4602 1.562
42.4905 1.354
42.5208 1.042
42.5510 1.510
42.5813 1.823
42.6116 1.354
42.6419 1.823
42.6721 1.562
42.7024 2.083
42.7327 1.667
42.7630 1.719
42.7933 1.719
42.8235 1.719
42.8538 1.406
42.8841 1.615
42.9144 1.615
42.9447 0.937
42.9749 1.562
43.0052 1.354
43.0355 1.667
43.0658 1.094
43.0960 1.927
43.1263 1.250
43.1566 1.927
43.1869 1.719
43.2172 1.771
43.2474 1.510
43.2777 1.198
43.3080 2.292
43.3383 1.094
43.3686 1.302
43.3988 1.875
43.4291 1.719
43.4594 1.823
43.4897 1.719
43.5199 1.406
43.5502 1.562
43.5805 1.510
43.6108 1.458
43.6411 1.823
43.6713 1.094
43.7016 1.875
43.7319 1.406
43.7622 1.771
43.7925 1.302
43.8227 1.615
43.8530 1.510
43.8833 1.458
43.9136 1.146
43.9439 1.302
43.9741 1.562
44.0044 1.823
44.0347 1.719
44.0650 1.458
44.0952 1.562
44.1255 1.615
44.1558 1.354
44.1861 1.510
44.2164 1.875
44.2466 1.562
44.2769 1.771
44.3072 1.406
44.3375 1.719
44.3678 1.667
44.3980 1.719
44.4283 1.771
44.4586 1.875
44.4889 1.719
44.5191 1.771
44.5494 1.302
44.5797 1.667
44.6100 1.250
44.6403 1.719
44.6705 1.510
44.7008 1.875
44.7311 1.927
44.7614 1.719
44.7917 1.302
44.8219 1.927
44.8522 2.031
44.8825 1.406
44.9128 1.510
44.9430 1.875
44.9733 2.031
45.0036 1.875
45.0339 1.823
45.0642 1.927
45.0944 1.667
45.1247 1.510
45.1550 1.719
45.1853 1.667
45.2156 1.927
45.2458 1.615
45.2761 1.198
45.3064 1.771
45.3367 1.094
45.3669 1.719
45.3972 1.667
45.4275 1.458
45.4578 2.031
45.4881 1.615
45.5183 1.771
45.5486 1.979
45.5789 1.562
45.6092 1.458
45.6395 1.458
45.6697 1.979
45.7000 1.771
45.7303 1.875
45.7606 2.292
45.7908 1.927
45.8211 1.719
45.8514 2.240
45.8817 1.979
45.9120 2.031
45.9422 1.927
45.9725 2.031
46.0028 1.562
46.0331 1.510
46.0634 2.187
46.0936 2.187
46.1239 2.083
46.1542 1.823
46.1845 1.823
46.2147 1.927
46.2450 1.771
46.2753 2.344
46.3056 1.615
46.3359 2.552
46.3661 1.823
46.3964 2.760
46.4267 2.240
46.4570 2.396
46.4873 2.031
46.5175 2.344
46.5478 2.292
46.5781 2.292
46.6084 2.344
46.6386 2.083
46.6689 2.760
46.6992 1.979
46.7295 2.812
46.7598 3.385
46.7900 2.812
46.8203 2.760
46.8506 2.812
46.8809 3.490
46.9112 3.437
46.9414 4.271
46.9717 3.750
47.0020 4.115
47.0323 4.427
47.0626 4.583
47.0928 5.208
47.1231 5.417
47.1534 6.458
47.1837 6.667
47.2139 6.771
47.2442 8.281
47.2745 7.969
47.3048 9.583
47.3351 9.844
47.3653 12.240
47.3956 10.573
47.4259 11.719
47.4562 11.250
47.4865 10.104
47.5167 9.115
47.5470 9.167
47.5773 8.073
47.6076 6.823
47.6378 7.448
47.6681 6.302
47.6984 6.042
47.7287 5.260
47.7590 4.740
47.7892 3.958
47.8195 4.740
47.8498 3.542
47.8801 3.490
47.9104 3.437
47.9406 3.594
47.9709 2.396
48.0012 2.812
48.0315 3.021
48.0617 2.969
48.0920 2.708
48.1223 1.927
48.1526 2.135
48.1829 2.187
48.2131 2.604
48.2434 2.865
48.2737 1.771
48.3040 2.292
48.3343 1.875
48.3645 2.292
48.3948 1.927
48.4251 2.083
48.4554 1.771
48.4856 2.135
48.5159 2.917
48.5462 1.875
48.5765 1.562
48.6068 2.083
48.6370 1.875
48.6673 1.979
48.6976 2.187
48.7279 2.135
48.7582 1.354
48.7884 1.458
48.8187 1.615
48.8490 1.875
48.8793 1.354
48.9095 1.667
48.9398 2.083
48.9701 1.250
49.0004 1.927
49.0307 1.146
49.0609 1.510
49.0912 1.562
49.1215 1.562
49.1518 2.240
49.1821 1.354
49.2123 2.187
49.2426 1.771
49.2729 1.094
49.3032 2.083
49.3334 1.667
49.3637 2.135
49.3940 1.979
49.4243 1.875
49.4546 0.937
49.4848 1.719
49.5151 1.667
49.5454 1.667
49.5757 1.615
49.6060 1.562
49.6362 1.562
49.6665 1.302
49.6968 1.771
49.7271 1.615
49.7574 1.510
49.7876 1.406
49.8179 1.458
49.8482 1.302
49.8785 1.302
49.9087 1.406
49.9390 1.458
49.9693 1.667
49.9996 1.250
50.0299 1.146
50.0601 0.833
50.0904 1.771
50.1207 1.562
50.1510 1.354
50.1813 1.458
50.2115 1.250
50.2418 2.031
50.2721 2.031
50.3024 1.198
50.3326 1.250
50.3629 1.875
50.3932 1.406
50.4235 2.135
50.4538 1.198
50.4840 1.250
50.5143 1.198
50.5446 1.667
50.5749 1.458
50.6052 1.823
50.6354 1.979
50.6657 1.198
50.6960 1.198
50.7263 1.667
50.7565 1.250
50.7868 1.510
50.8171 1.719
50.8474 1.562
50.8777 1.562
50.9079 1.667
50.9382 1.510
50.9685 1.094
50.9988 2.344
51.0291 1.771
51.0593 1.302
51.0896 1.667
51.1199 1.302
51.1502 1.823
51.1804 1.250
51.2107 1.875
51.2410 1.979
51.2713 1.823
51.3016 1.510
51.3318 1.198
51.3621 1.979
51.3924 1.250
51.4227 1.875
51.4530 1.510
51.4832 1.875
51.5135 1.458
51.5438 2.031
51.5741 1.146
51.6043 1.719
51.6346 1.406
51.6649 1.771
51.6952 1.406
51.7255 1.198
51.7557 1.354
51.7860 2.240
51.8163 1.823
51.8466 1.719
51.8769 1.615
51.9071 1.823
51.9374 1.146
51.9677 1.354
51.9980 1.458
52.0282 1.354
52.0585 1.615
52.0888 1.979
52.1191 1.927
52.1494 1.302
52.1796 1.198
52.2099 1.719
52.2402 1.667
52.2705 1.875
52.3008 1.302
52.3310 1.406
52.3613 1.771
52.3916 0.937
52.4219 1.458
52.4521 1.562
52.4824 1.510
52.5127 1.719
52.5430 1.146
52.5733 1.458
52.6035 1.458
52.6338 1.510
52.6641 1.302
52.6944 1.875
52.7247 1.510
52.7549 1.719
52.7852 1.302
52.8155 1.667
52.8458 1.927
52.8761 1.302
52.9063 1.979
52.9366 1.250
52.9669 1.406
52.9972 1.042
53.0274 1.615
53.0577 1.615
53.0880 1.146
53.1183 1.458
53.1486 1.823
53.1788 1.458
53.2091 1.979
53.2394 1.094
53.2697 1.406
53.3000 1.146
53.3302 1.771
53.3605 1.458
53.3908 1.250
53.4211 1.979
53.4513 1.562
53.4816 1.667
53.5119 1.979
53.5422 1.458
53.5725 1.875
53.6027 1.562
53.6330 1.302
53.6633 1.823
53.6936 1.823
53.7239 1.042
53.7541 1.510
53.7844 1.615
53.8147 1.667
53.8450 1.562
53.8752 1.198
53.9055 1.302
53.9358 1.458
53.9661 1.354
53.9964 1.458
54.0266 0.990
54.0569 1.875
54.0872 1.719
54.1175 1.510
54.1478 1.562
54.1780 1.771
54.2083 1.094
54.2386 1.406
54.2689 1.771
54.2991 1.615
54.3294 1.771
54.3597 1.927
54.3900 1.510
54.4203 1.771
54.4505 1.510
54.4808 1.562
54.5111 1.823
54.5414 1.510
54.5717 1.667
54.6019 1.875
54.6322 1.354
54.6625 1.979
54.6928 1.771
54.7230 2.240
54.7533 1.771
54.7836 1.927
54.8139 1.458
54.8442 2.292
54.8744 2.083
54.9047 1.823
54.9350 1.771
54.9653 1.719
54.9956 1.823
55.0258 1.562
55.0561 1.667
55.0864 1.875
55.1167 2.031
55.1469 2.812
55.1772 2.708
55.2075 2.187
55.2378 2.917
55.2681 1.823
55.2983 2.292
55.3286 2.031
55.3589 2.344
55.3892 2.448
55.4195 2.344
55.4497 2.448
55.4800 3.021
55.5103 2.969
55.5406 3.177
55.5709 2.708
55.6011 3.646
55.6314 2.552
55.6617 2.969
55.6920 3.073
55.7222 2.604
55.7525 2.760
55.7828 3.594
55.8131 2.552
55.8434 2.969
55.8736 3.385
55.9039 3.698
55.9342 3.802
55.9645 4.583
55.9948 5.104
56.0250 4.115
56.0553 4.375
56.0856 6.406
56.1159 5.833
56.1461 6.875
56.1764 6.719
56.2067 7.031
56.2370 8.073
56.2673 9.115
56.2975 10.729
56.3278 10.365
56.3581 11.667
56.3884 11.354
56.4187 12.969
56.4489 13.385
56.4792 14.271
56.5095 12.812
56.5398 12.240
56.5700 13.385
56.6003 10.990
56.6306 10.156
56.6609 9.427
56.6912 8.125
56.7214 9.375
56.7517 8.125
56.7820 6.719
56.8123 5.625
56.8426 5.365
56.8728 5.573
56.9031 5.573
56.9334 4.792
56.9637 4.271
56.9939 3.958
57.0242 4.740
57.0545 4.219
57.0848 4.271
57.1151 4.219
57.1453 3.385
57.1756 3.177
57.2059 3.073
57.2362 2.396
57.2665 2.240
57.2967 2.187
57.3270 2.292
57.3573 1.927
57.3876 2.135
57.4178 2.083
57.4481 2.187
57.4784 2.708
57.5087 2.187
57.5390 2.500
57.5692 2.500
57.5995 2.552
57.6298 1.562
57.6601 2.135
57.6904 2.500
57.7206 2.135
57.7509 1.875
57.7812 1.823
57.8115 2.292
57.8417 1.927
57.8720 2.240
57.9023 1.823
57.9326 1.562
57.9629 1.615
57.9931 1.615
58.0234 1.719
58.0537 1.823
58.0840 2.240
58.1143 1.458
58.1445 1.615
58.1748 1.562
58.2051 1.198
58.2354 1.875
58.2656 1.510
58.2959 1.719
58.3262 1.510
58.3565 1.615
58.3868 1.927
58.4170 1.354
58.4473 1.250
58.4776 1.615
58.5079 1.771
58.5382 1.823
58.5684 1.406
58.5987 1.615
58.6290 1.667
58.6593 1.771
58.6896 1.562
58.7198 1.562
58.7501 1.927
58.7804 1.458
58.8107 2.135
58.8409 1.667
58.8712 1.979
58.9015 1.562
58.9318 1.562
58.9621 1.250
58.9923 1.094
59.0226 1.927
59.0529 1.146
59.0832 1.615
59.1135 1.458
59.1437 1.146
59.1740 1.354
59.2043 1.771
59.2346 2.135
59.2648 1.771
59.2951 1.719
59.3254 1.562
59.3557 1.562
59.3860 0.990
59.4162 1.510
59.4465 2.031
59.4768 0.937
59.5071 1.250
59.5374 1.927
59.5676 2.083
59.5979 1.406
59.6282 1.927
59.6585 1.458
59.6887 1.875
59.7190 2.135
59.7493 1.458
59.7796 1.198
59.8099 1.458
59.8401 1.719
59.8704 1.302
59.9007 1.198
59.9310 1.510
59.9613 1.354
59.9915 1.771
60.0218 1.198
60.0521 1.615
60.0824 0.990
60.1126 1.406
60.1429 2.083
60.1732 1.510
60.2035 1.302
60.2338 1.250
60.2640 2.031
60.2943 1.667
60.3246 1.198
60.3549 1.719
60.3852 1.406
60.4154 1.458
60.4457 2.135
60.4760 1.615
60.5063 1.979
60.5365 1.667
60.5668 2.031
60.5971 1.562
60.6274 1.510
60.6577 1.719
60.6879 1.250
60.7182 1.562
60.7485 1.562
60.7788 2.500
60.8091 1.771
60.8393 1.719
60.8696 1.510
60.8999 1.719
60.9302 1.510
60.9604 1.302
60.9907 1.667
61.0210 1.458
61.0513 1.615
61.0816 1.927
61.1118 1.198
61.1421 1.979
61.1724 1.719
61.2027 1.615
61.2330 1.458
61.2632 2.135
61.2935 2.083
61.3238 1.979
61.3541 1.510
61.3844 1.823
61.4146 2.031
61.4449 1.510
61.4752 1.667
61.5055 1.823
61.5357 2.760
61.5660 2.083
61.5963 2.135
61.6266 1.667
61.6569 1.667
61.6871 2.135
61.7174 1.979
61.7477 2.031
61.7780 2.448
61.8083 2.292
61.8385 2.135
61.8688 2.135
61.8991 2.604
61.9294 2.865
61.9596 1.875
61.9899 2.604
62.0202 3.073
62.0505 2.865
62.0808 3.229
62.1110 2.656
62.1413 2.656
62.1716 3.490
62.2019 3.490
62.2322 4.323
62.2624 3.750
62.2927 4.323
62.3230 3.750
62.3533 5.625
62.3835 4.896
62.4138 4.687
62.4441 6.302
62.4744 7.604
62.5047 6.302
62.5349 6.719
62.5652 9.167
62.5955 8.490
62.6258 8.646
62.6561 9.635
62.6863 10.052
62.7166 10.260
62.7469 10.573
62.7772 11.562
62.8074 11.667
62.8377 10.625
62.8680 8.490
62.8983 9.271
62.9286 9.427
62.9588 8.490
62.9891 8.229
63.0194 6.719
63.0497 6.250
63.0800 5.885
63.1102 5.104
63.1405 5.677
63.1708 4.792
63.2011 3.750
63.2313 3.802
63.2616 4.687
63.2919 3.646
63.3222 3.177
63.3525 2.656
63.3827 2.969
63.4130 3.021
63.4433 3.229
63.4736 2.500
63.5039 2.031
63.5341 2.135
63.5644 1.562
63.5947 2.135
63.6250 1.979
63.6552 2.240
63.6855 1.562
63.7158 1.927
63.7461 1.927
63.7764 1.979
63.8066 2.500
63.8369 2.552
63.8672 1.823
63.8975 2.292
63.9278 1.406
63.9580 1.771
63.9883 1.667
64.0186 2.187
64.0489 1.823
64.0791 1.667
64.1094 1.354
64.1397 2.031
64.1700 1.875
64.2003 1.302
64.2305 1.510
64.2608 1.562
64.2911 1.823
64.3214 1.510
64.3517 1.615
64.3819 1.458
64.4122 1.562
64.4425 2.031
64.4728 1.875
64.5031 1.927
64.5333 1.719
64.5636 1.771
64.5939 1.354
64.6242 1.615
64.6544 1.927
64.6847 1.406
64.7150 1.979
64.7453 1.615
64.7756 1.667
64.8058 1.042
64.8361 1.927
64.8664 1.354
64.8967 1.667
64.9270 1.302
64.9572 2.083
64.9875 1.771
65.0178 0.833
65.0481 1.562
65.0783 1.927
65.1086 1.615
65.1389 1.667
65.1692 1.510
65.1995 1.719
65.2297 2.083
65.2600 1.354
65.2903 2.031
65.3206 1.615
65.3509 1.354
65.3811 1.875
65.4114 2.135
65.4417 1.615
65.4720 1.875
65.5022 1.302
65.5325 1.823
65.5628 1.406
65.5931 2.031
65.6234 1.510
65.6536 1.406
65.6839 2.396
65.7142 1.667
65.7445 2.135
65.7748 1.875
65.8050 2.500
65.8353 1.875
65.8656 1.771
65.8959 2.292
65.9261 2.031
65.9564 1.979
65.9867 1.927
66.0170 2.708
66.0473 2.812
66.0775 2.031
66.1078 2.969
66.1381 2.865
66.1684 2.448
66.1987 2.500
66.2289 3.177
66.2592 3.073
66.2895 2.552
66.3198 3.385
66.3500 2.448
66.3803 2.448
66.4106 2.969
66.4409 3.229
66.4712 2.500
66.5014 2.812
66.5317 2.500
66.5620 2.865
66.5923 2.187
66.6226 2.187
66.6528 2.187
66.6831 2.917
66.7134 2.344
66.7437 2.812
66.7739 1.823
66.8042 2.187
66.8345 2.083
66.8648 2.240
66.8951 2.500
66.9253 2.917
66.9556 2.396
66.9859 2.240
67.0162 2.396
67.0465 2.500
67.0767 3.073
67.1070 2.187
67.1373 2.760
67.1676 2.917
67.1978 2.760
67.2281 3.021
67.2584 3.333
67.2887 3.490
67.3190 3.125
67.3492 3.750
67.3795 3.385
67.4098 3.958
67.4401 3.437
67.4704 4.323
67.5006 5.365
67.5309 5.156
67.5612 5.677
67.5915 5.729
67.6218 5.312
67.6520 6.094
67.6823 5.625
67.7126 7.656
67.7429 7.500
67.7731 9.167
67.8034 8.073
67.8337 7.917
67.8640 8.490
67.8943 7.708
67.9245 7.500
67.9548 8.229
67.9851 7.135
68.0154 8.073
68.0457 5.833
68.0759 6.406
68.1062 5.729
68.1365 5.260
68.1668 4.948
68.1970 5.052
68.2273 4.687
68.2576 3.385
68.2879 3.437
68.3182 4.427
68.3484 4.323
68.3787 3.385
68.4090 3.646
68.4393 3.906
68.4696 3.594
68.4998 3.437
68.5301 2.865
68.5604 2.812
68.5907 3.802
68.6209 3.698
68.6512 3.854
68.6815 3.750
68.7118 3.906
68.7421 4.792
68.7723 3.698
68.8026 3.906
68.8329 4.010
68.8632 4.271
68.8935 4.062
68.9237 4.115
68.9540 5.417
68.9843 3.854
69.0146 5.000
69.0448 4.896
69.0751 4.115
69.1054 5.260
69.1357 3.854
69.1660 2.812
69.1962 3.333
69.2265 3.542
69.2568 4.427
69.2871 3.177
69.3174 3.021
69.3476 2.812
69.3779 2.552
69.4082 2.812
69.4385 2.396
69.4687 2.396
69.4990 2.969
69.5293 2.812
69.5596 1.562
69.5899 2.812
69.6201 2.031
69.6504 2.344
69.6807 1.771
69.7110 2.292
69.7413 1.458
69.7715 2.240
69.8018 1.979
69.8321 1.562
69.8624 1.667
69.8926 1.667
69.9229 1.667
69.9532 1.562
69.9835 1.562
70.0138 1.302
70.0440 1.458
70.0743 1.667
70.1046 1.875
70.1349 1.719
70.1652 1.250
70.1954 1.198
70.2257 1.406
70.2560 1.406
70.2863 1.250
70.3166 0.937
70.3468 1.458
70.3771 1.406
70.4074 1.771
70.4377 1.562
70.4679 1.146
70.4982 1.615
70.5285 1.406
70.5588 2.031
70.5891 1.198
70.6193 1.510
70.6496 1.250
70.6799 1.510
70.7102 1.771
70.7405 1.667
70.7707 1.562
70.8010 0.937
70.8313 1.094
70.8616 1.302
70.8918 1.302
70.9221 1.406
70.9524 0.885
70.9827 0.990
71.0130 1.510
71.0432 1.615
71.0735 1.198
71.1038 0.990
71.1341 0.833
71.1644 1.562
71.1946 1.250
71.2249 1.302
71.2552 1.354
71.2855 1.667
71.3157 1.250
71.3460 1.615
71.3763 0.781
71.4066 1.250
71.4369 1.198
71.4671 0.885
71.4974 1.198
71.5277 1.302
71.5580 0.833
71.5883 1.302
71.6185 1.406
71.6488 1.354
71.6791 0.990
71.7094 1.562
71.7396 1.198
71.7699 1.615
71.8002 1.146
71.8305 0.729
71.8608 1.458
71.8910 1.615
71.9213 1.354
71.9516 1.302
71.9819 0.937
72.0122 1.510
72.0424 1.562
72.0727 0.885
72.1030 1.510
72.1333 0.937
72.1635 1.719
72.1938 0.781
72.2241 1.354
72.2544 1.510
72.2847 1.510
72.3149 1.719
72.3452 1.510
72.3755 1.719
72.4058 1.562
72.4361 1.250
72.4663 1.771
72.4966 2.187
72.5269 1.719
72.5572 1.458
72.5874 1.615
72.6177 1.615
72.6480 1.406
72.6783 1.667
72.7086 1.667
72.7388 1.406
72.7691 1.354
72.7994 1.510
72.8297 1.406
72.8600 1.458
72.8902 0.833
72.9205 1.198
72.9508 1.302
72.9811 1.094
73.0113 1.198
73.0416 1.354
73.0719 1.562
73.1022 1.198
73.1325 0.937
73.1627 0.885
73.1930 1.354
73.2233 1.406
73.2536 1.302
73.2839 1.250
73.3141 0.990
73.3444 1.458
73.3747 1.198
73.4050 1.146
73.4353 0.729
73.4655 0.937
73.4958 1.250
73.5261 0.937
73.5564 1.354
73.5866 1.406
73.6169 0.781
73.6472 1.250
73.6775 0.729
73.7078 0.937
73.7380 1.250
73.7683 0.521
73.7986 0.781
73.8289 1.094
73.8592 0.990
73.8894 0.990
73.9197 1.198
73.9500 0.990
73.9803 0.885
74.0105 1.250
74.0408 0.990
74.0711 0.729
74.1014 0.990
74.1317 1.302
74.1619 0.573
74.1922 0.937
74.2225 1.406
74.2528 0.937
74.2831 1.094
74.3133 1.094
74.3436 0.937
74.3739 0.833
74.4042 1.198
74.4344 0.937
74.4647 0.885
74.4950 0.833
74.5253 0.937
74.5556 1.510
74.5858 0.937
74.6161 0.781
74.6464 1.042
74.6767 0.833
74.7070 1.094
74.7372 0.885
74.7675 1.146
74.7978 0.937
74.8281 0.990
74.8583 1.198
74.8886 0.729
74.9189 0.990
74.9492 0.990
74.9795 0.833
75.0097 1.146
75.0400 0.990
75.0703 1.094
75.1006 0.833
75.1309 1.198
75.1611 0.990
75.1914 0.990
75.2217 1.094
75.2520 0.885
75.2822 0.885
75.3125 1.354
75.3428 1.562
75.3731 0.781
75.4034 0.937
75.4336 1.250
75.4639 1.406
75.4942 1.094
75.5245 1.250
75.5548 0.990
75.5850 0.937
75.6153 0.937
75.6456 1.250
75.6759 1.198
75.7061 0.937
75.7364 1.198
75.7667 0.937
75.7970 1.354
75.8273 1.094
75.8575 0.729
75.8878 1.719
75.9181 1.250
75.9484 1.354
75.9787 1.198
76.0089 0.990
76.0392 1.458
76.0695 0.937
76.0998 0.833
76.1301 1.198
76.1603 1.146
76.1906 1.146
76.2209 0.885
76.2512 0.937
76.2814 1.042
76.3117 1.510
76.3420 1.823
76.3723 1.562
76.4026 1.094
76.4328 1.719
76.4631 1.615
76.4934 2.240
76.5237 1.302
76.5540 1.354
76.5842 2.135
76.6145 1.719
76.6448 2.187
76.6751 1.667
76.7053 1.562
76.7356 1.927
76.7659 1.979
76.7962 1.927
76.8265 1.771
76.8567 1.667
76.8870 1.354
76.9173 1.823
76.9476 1.615
76.9779 1.927
77.0081 0.937
77.0384 1.927
77.0687 1.615
77.0990 1.615
77.1292 1.354
77.1595 1.667
77.1898 1.667
77.2201 1.250
77.2504 1.406
77.2806 1.302
77.3109 1.510
77.3412 1.406
77.3715 1.354
77.4018 1.198
77.4320 1.406
77.4623 1.302
77.4926 1.510
77.5229 1.198
77.5531 0.885
77.5834 1.302
77.6137 1.094
77.6440 1.146
77.6743 1.354
77.7045 1.354
77.7348 1.354
77.7651 0.885
77.7954 1.146
77.8257 1.250
77.8559 0.937
77.8862 0.833
77.9165 1.146
77.9468 1.250
77.9770 1.146
78.0073 1.354
78.0376 0.885
78.0679 0.990
78.0982 0.990
78.1284 1.510
78.1587 1.094
78.1890 0.990
78.2193 1.302
78.2496 1.250
78.2798 1.198
78.3101 1.094
78.3404 1.146
78.3707 1.042
78.4009 0.885
78.4312 1.354
78.4615 1.302
78.4918 1.354
78.5221 0.885
78.5523 0.990
78.5826 0.833
78.6129 1.094
78.6432 1.146
78.6735 0.990
78.7037 0.521
78.7340 1.042
78.7643 0.677
78.7946 0.937
78.8248 1.198
78.8551 0.729
78.8854 1.198
78.9157 0.729
78.9460 1.354
78.9762 1.198
79.0065 1.302
79.0368 1.198
79.0671 1.198
79.0974 0.833
79.1276 0.937
79.1579 0.625
79.1882 1.042
79.2185 0.677
79.2488 1.354
79.2790 1.302
79.3093 0.990
79.3396 1.146
79.3699 1.146
79.4001 1.042
79.4304 1.198
79.4607 0.833
79.4910 1.094
79.5213 0.990
79.5515 0.833
79.5818 0.781
79.6121 0.990
79.6424 0.781
79.6727 1.094
79.7029 1.146
79.7332 1.146
79.7635 0.729
79.7938 1.094
79.8240 1.302
79.8543 0.781
79.8846 1.094
79.9149 0.729
79.9452 0.885
79.9754 1.146
80.0057 0.833
80.0360 1.302
80.0663 1.094
80.0966 1.354
80.1268 1.094
80.1571 1.198
80.1874 0.729
80.2177 1.198
80.2479 1.146
80.2782 1.042
80.3085 0.885
80.3388 0.885
80.3691 0.573
80.3993 0.990
80.4296 0.781
80.4599 0.937
80.4902 0.729
80.5205 1.094
80.5507 0.937
80.5810 1.198
80.6113 1.198
80.6416 1.198
80.6718 1.198
80.7021 1.198
80.7324 1.562
80.7627 1.198
80.7930 1.146
80.8232 1.198
80.8535 0.990
80.8838 1.302
80.9141 1.250
80.9444 1.615
80.9746 1.302
81.0049 1.302
81.0352 1.042
81.0655 1.094
81.0957 1.250
81.1260 0.937
81.1563 1.667
81.1866 1.094
81.2169 1.406
81.2471 0.937
81.2774 0.990
81.3077 1.198
81.3380 1.198
81.3683 1.250
81.3985 1.094
81.4288 1.094
81.4591 0.885
81.4894 1.198
81.5196 2.396
81.5499 1.198
81.5802 0.937
81.6105 0.625
81.6408 1.094
81.6710 1.042
81.7013 1.198
81.7316 1.302
81.7619 0.937
81.7922 0.937
81.8224 1.042
81.8527 1.198
81.8830 1.146
81.9133 1.458
81.9436 0.937
81.9738 1.250
82.0041 0.729
82.0344 0.729
82.0647 0.781
82.0949 1.406
82.1252 1.146
82.1555 1.198
82.1858 0.729
82.2161 1.146
82.2463 0.885
82.2766 0.625
82.3069 0.573
82.3372 0.677
82.3675 1.406
82.3977 1.198
82.4280 0.937
82.4583 1.406
82.4886 0.990
82.5188 1.042
82.5491 1.042
82.5794 0.729
82.6097 0.729
82.6400 0.781
82.6702 0.729
82.7005 1.094
82.7308 0.885
82.7611 1.094
82.7914 0.937
82.8216 1.146
82.8519 1.094
82.8822 0.937
82.9125 0.729
82.9427 0.833
82.9730 0.937
83.0033 1.094
83.0336 1.667
83.0639 0.729
83.0941 1.042
83.1244 1.302
83.1547 0.885
83.1850 1.146
83.2153 0.990
83.2455 0.781
83.2758 1.042
83.3061 0.729
83.3364 0.729
83.3666 0.885
83.3969 0.677
83.4272 0.990
83.4575 1.146
83.4878 0.937
83.5180 1.198
83.5483 0.625
83.5786 0.781
83.6089 0.937
83.6392 0.833
83.6694 0.937
83.6997 0.833
83.7300 0.729
83.7603 1.042
83.7905 1.094
83.8208 1.146
83.8511 0.937
83.8814 0.729
83.9117 0.729
83.9419 0.885
83.9722 0.729
84.0025 0.885
84.0328 1.094
84.0631 0.990
84.0933 0.990
84.1236 1.042
84.1539 0.781
84.1842 0.729
84.2144 1.354
84.2447 0.833
84.2750 1.146
84.3053 0.521
84.3356 1.198
84.3658 0.937
84.3961 0.937
84.4264 0.885
84.4567 0.729
84.4870 0.781
84.5172 1.146
84.5475 0.885
84.5778 1.094
84.6081 1.042
84.6383 0.937
84.6686 0.885
84.6989 0.937
84.7292 0.729
84.7595 0.937
84.7897 1.198
84.8200 0.833
84.8503 0.885
84.8806 1.250
84.9109 0.937
84.9411 0.781
84.9714 1.458
85.0017 0.781
85.0320 1.198
85.0623 0.729
85.0925 0.885
85.1228 1.094
85.1531 0.833
85.1834 1.198
85.2136 1.198
85.2439 0.833
85.2742 1.198
85.3045 1.146
85.3348 1.094
85.3650 0.833
85.3953 0.521
85.4256 1.250
85.4559 0.833
85.4862 0.937
85.5164 0.885
85.5467 0.833
85.5770 0.781
85.6073 0.885
85.6375 1.458
85.6678 0.677
85.6981 0.677
85.7284 1.042
85.7587 1.094
85.7889 0.937
85.8192 1.042
85.8495 0.885
85.8798 1.094
85.9101 0.833
85.9403 0.937
85.9706 0.885
86.0009 1.302
86.0312 0.729
86.0614 0.781
86.0917 0.729
86.1220 1.094
86.1523 1.146
86.1826 1.042
86.2128 1.302
86.2431 1.042
86.2734 0.990
86.3037 0.781
86.3340 0.885
86.3642 1.198
86.3945 1.354
86.4248 1.198
86.4551 1.250
86.4853 0.729
86.5156 1.198
86.5459 0.990
86.5762 0.729
86.6065 0.990
86.6367 1.198
86.6670 0.781
86.6973 0.885
86.7276 0.990
86.7579 0.937
86.7881 1.198
86.8184 0.677
86.8487 0.521
86.8790 1.198
86.9092 1.042
86.9395 1.146
86.9698 1.042
87.0001 0.885
87.0304 1.094
87.0606 0.729
87.0909 0.729
87.1212 0.990
87.1515 0.729
87.1818 0.729
87.2120 1.094
87.2423 0.781
87.2726 1.198
87.3029 1.146
87.3331 1.094
87.3634 1.354
87.3937 0.625
87.4240 0.990
87.4543 0.833
87.4845 1.198
87.5148 1.094
87.5451 1.146
87.5754 1.042
87.6057 0.885
87.6359 1.146
87.6662 1.146
87.6965 0.937
87.7268 1.198
87.7571 0.833
87.7873 0.885
87.8176 0.417
87.8479 0.990
87.8782 0.885
87.9084 0.990
87.9387 1.354
87.9690 0.990
87.9993 1.615
88.0296 0.885
88.0598 1.198
88.0901 0.833
88.1204 1.146
88.1507 0.937
88.1810 1.042
88.2112 0.885
88.2415 0.677
88.2718 0.833
88.3021 0.937
88.3323 0.937
88.3626 1.458
88.3929 1.042
88.4232 1.354
88.4535 1.302
88.4837 0.937
88.5140 0.885
88.5443 1.458
88.5746 1.302
88.6049 1.094
88.6351 1.302
88.6654 1.250
88.6957 1.458
88.7260 1.198
88.7562 1.667
88.7865 1.042
88.8168 1.667
88.8471 1.615
88.8774 1.094
88.9076 1.719
88.9379 1.198
88.9682 1.771
88.9985 1.667
89.0288 1.875
89.0590 1.458
89.0893 1.406
89.1196 1.667
89.1499 1.771
89.1801 2.135
89.2104 2.135
89.2407 1.875
89.2710 2.448
89.3013 2.135
89.3315 2.344
89.3618 1.250
89.3921 2.135
89.4224 1.927
89.4527 2.604
89.4829 2.656
89.5132 2.760
89.5435 2.396
89.5738 2.187
89.6040 2.083
89.6343 1.979
89.6646 2.500
89.6949 2.240
89.7252 2.604
89.7554 2.031
89.7857 2.500
89.8160 1.719
89.8463 2.187
89.8766 2.187
89.9068 2.292
89.9371 2.500
89.9674 1.302
89.9977 1.615
90.0279 1.406
90.0582 1.250
90.0885 1.198
90.1188 1.458
90.1491 1.354
90.1793 1.146
90.2096 1.302
90.2399 1.510
90.2702 1.667
90.3005 1.250
90.3307 1.615
90.3610 1.615
90.3913 1.615
90.4216 1.146
90.4518 1.198
90.4821 1.198
90.5124 1.823
90.5427 1.042
90.5730 1.406
90.6032 0.990
90.6335 1.354
90.6638 1.198
90.6941 0.885
90.7244 0.937
90.7546 1.042
90.7849 1.042
90.8152 1.042
90.8455 0.990
90.8758 1.198
90.9060 1.146
90.9363 1.198
90.9666 1.094
90.9969 1.198
91.0271 1.094
91.0574 1.927
91.0877 1.198
91.1180 1.510
91.1483 1.042
91.1785 1.250
91.2088 1.302
91.2391 1.302
91.2694 1.354
91.2997 1.198
91.3299 0.937
91.3602 1.146
91.3905 1.042
91.4208 1.198
91.4510 1.146
91.4813 0.990
91.5116 0.990
91.5419 0.937
91.5722 0.937
91.6024 1.302
91.6327 0.833
91.6630 1.094
91.6933 1.094
91.7236 1.406
91.7538 0.990
91.7841 1.094
91.8144 1.094
91.8447 1.354
91.8749 1.510
91.9052 1.198
91.9355 1.198
91.9658 0.990
91.9961 0.990
92.0263 1.042
92.0566 1.198
92.0869 1.250
92.1172 1.979
92.1475 1.198
92.1777 0.781
92.2080 1.458
92.2383 0.885
92.2686 0.990
92.2988 1.667
92.3291 1.719
92.3594 1.198
92.3897 1.406
92.4200 1.198
92.4502 1.146
92.4805 1.250
92.5108 1.406
92.5411 1.510
92.5714 1.719
92.6016 1.406
92.6319 1.823
92.6622 1.719
92.6925 1.042
92.7227 1.562
92.7530 1.406
92.7833 1.771
92.8136 1.198
92.8439 1.562
92.8741 1.562
92.9044 1.719
92.9347 1.719
92.9650 1.823
92.9953 1.354
93.0255 1.198
93.0558 1.406
93.0861 1.302
93.1164 1.719
93.1466 1.406
93.1769 0.833
93.2072 1.250
93.2375 1.146
93.2678 1.198
93.2980 1.094
93.3283 1.302
93.3586 1.198
93.3889 0.885
93.4192 0.781
93.4494 0.990
93.4797 1.146
93.5100 1.094
93.5403 1.250
93.5706 1.250
93.6008 0.937
93.6311 0.781
93.6614 0.729
93.6917 1.042
93.7219 1.042
93.7522 1.250
93.7825 0.885
93.8128 1.250
93.8431 0.990
93.8733 1.458
93.9036 0.781
93.9339 1.250
93.9642 1.146
93.9945 1.302
94.0247 0.937
94.0550 1.042
94.0853 1.146
94.1156 1.510
94.1458 1.146
94.1761 1.302
94.2064 1.250
94.2367 1.250
94.2670 1.458
94.2972 1.250
94.3275 1.354
94.3578 1.250
94.3881 1.302
94.4184 1.406
94.4486 1.250
94.4789 0.833
94.5092 1.198
94.5395 1.146
94.5697 1.458
94.6000 1.615
94.6303 1.354
94.6606 1.719
94.6909 1.406
94.7211 1.562
94.7514 1.562
94.7817 2.031
94.8120 2.240
94.8423 1.979
94.8725 2.344
94.9028 1.562
94.9331 2.083
94.9634 2.708
94.9936 1.458
95.0239 2.552
95.0542 2.240
95.0845 2.031
95.1148 2.240
95.1450 2.396
95.1753 2.969
95.2056 2.552
95.2359 2.708
95.2662 1.510
95.2964 2.135
95.3267 2.240
95.3570 2.500
95.3873 2.083
95.4175 3.073
95.4478 2.083
95.4781 1.302
95.5084 2.396
95.5387 1.771
95.5689 2.500
95.5992 1.771
95.6295 1.927
95.6598 1.875
95.6901 1.406
95.7203 1.927
95.7506 1.979
95.7809 1.927
95.8112 1.771
95.8414 1.354
95.8717 1.250
95.9020 1.406
95.9323 1.250
95.9626 1.198
95.9928 1.094
96.0231 1.458
96.0534 1.458
96.0837 1.250
96.1140 1.458
96.1442 0.885
96.1745 1.510
96.2048 1.250
96.2351 1.562
96.2653 1.198
96.2956 1.458
96.3259 1.146
96.3562 1.302
96.3865 0.990
96.4167 1.198
96.4470 1.302
96.4773 1.042
96.5076 0.885
96.5379 1.510
96.5681 0.990
96.5984 1.042
96.6287 1.354
96.6590 1.146
96.6893 0.937
96.7195 1.094
96.7498 1.198
96.7801 0.885
96.8104 1.094
96.8406 1.458
96.8709 1.354
96.9012 1.250
96.9315 1.094
96.9618 1.458
96.9920 0.729
97.0223 1.042
97.0526 1.146
97.0829 0.729
97.1132 0.885
97.1434 0.885
97.1737 0.937
97.2040 1.510
97.2343 0.833
97.2645 1.094
97.2948 1.250
97.3251 1.302
97.3554 1.042
97.3857 0.885
97.4159 1.146
97.4462 1.198
97.4765 1.250
97.5068 1.198
97.5371 0.781
97.5673 0.885
97.5976 1.458
97.6279 1.302
97.6582 1.250
97.6884 1.042
97.7187 1.562
97.7490 0.990
97.7793 1.458
97.8096 1.042
97.8398 1.354
97.8701 1.094
97.9004 1.302
97.9307 1.354
97.9610 1.198
97.9912 1.406
98.0215 1.250
98.0518 1.250
98.0821 1.198
98.1123 1.406
98.1426 1.198
98.1729 1.719
98.2032 1.146
98.2335 1.146
98.2637 1.146
98.2940 1.823
98.3243 1.354
98.3546 1.615
98.3849 1.771
98.4151 1.771
98.4454 1.823
98.4757 1.354
98.5060 1.823
98.5362 1.719
98.5665 1.615
98.5968 1.562
98.6271 1.406
98.6574 2.135
98.6876 1.823
98.7179 1.510
98.7482 1.875
98.7785 1.875
98.8088 1.510
98.8390 1.198
98.8693 1.354
98.8996 2.396
98.9299 1.823
98.9601 1.667
98.9904 1.719
99.0207 0.990
99.0510 1.510
99.0813 1.146
99.1115 1.146
99.1418 0.729
99.1721 1.146
99.2024 0.781
99.2327 1.250
99.2629 0.729
99.2932 1.615
99.3235 1.146
99.3538 1.302
99.3841 0.937
99.4143 0.990
99.4446 1.302
99.4749 0.990
99.5052 0.990
99.5354 1.250
99.5657 1.042
99.5960 1.458
99.6263 0.781
99.6566 1.406
99.6868 1.198
99.7171 0.781
99.7474 1.042
99.7777 0.990
99.8080 0.521
99.8382 1.302
99.8685 0.990
99.8988 0.781
99.9291 0.937
99.9593 1.406
99.9896 0.729
100.0199 1.094
100.0502 1.250
100.0805 0.781
100.1107 1.094
100.1410 0.937
100.1713 0.781
100.2016 0.781
100.2319 1.458
100.2621 1.458
100.2924 0.781
100.3227 0.937
100.3530 1.094
100.3832 1.354
100.4135 1.094
100.4438 1.406
100.4741 0.990
100.5044 1.094
100.5346 0.990
100.5649 0.937
100.5952 0.937
100.6255 0.833
100.6558 0.937
100.6860 1.042
100.7163 0.781
100.7466 0.885
100.7769 0.937
100.8071 1.146
100.8374 0.781
100.8677 1.042
100.8980 1.042
100.9283 1.354
100.9585 0.990
100.9888 0.833
101.0191 0.937
101.0494 0.937
101.0797 1.146
101.1099 0.781
101.1402 1.042
101.1705 1.094
101.2008 1.146
101.2310 1.302
101.2613 0.729
101.2916 1.198
101.3219 0.990
101.3522 1.406
101.3824 1.250
101.4127 1.250
101.4430 1.354
101.4733 1.042
101.5036 1.510
101.5338 1.042
101.5641 1.146
101.5944 1.198
101.6247 1.354
101.6549 0.937
101.6852 0.885
101.7155 1.458
101.7458 1.354
101.7761 1.198
101.8063 1.094
101.8366 1.250
101.8669 1.250
101.8972 1.042
101.9275 1.198
101.9577 1.146
101.9880 1.042
102.0183 0.885
102.0486 1.562
102.0788 0.990
102.1091 1.562
102.1394 1.198
102.1697 1.094
102.2000 1.562
102.2302 0.833
102.2605 1.354
102.2908 0.937
102.3211 1.146
102.3514 1.042
102.3816 1.146
102.4119 1.562
102.4422 1.198
102.4725 1.354
102.5028 1.510
102.5330 1.354
102.5633 1.615
102.5936 1.875
102.6239 1.302
102.6541 1.146
102.6844 1.615
102.7147 1.406
102.7450 1.719
102.7753 1.510
102.8055 1.354
102.8358 1.927
102.8661 1.927
102.8964 1.667
102.9267 1.406
102.9569 1.406
102.9872 1.615
103.0175 1.458
103.0478 2.031
103.0780 1.823
103.1083 1.458
103.1386 2.031
103.1689 1.354
103.1992 1.667
103.2294 1.979
103.2597 2.344
103.2900 1.562
103.3203 1.927
103.3506 1.406
103.3808 1.615
103.4111 1.458
103.4414 2.031
103.4717 1.667
103.5019 1.927
103.5322 1.667
103.5625 1.406
103.5928 1.927
103.6231 1.406
103.6533 1.354
103.6836 1.406
103.7139 1.354
103.7442 1.354
103.7745 1.667
103.8047 1.719
103.8350 1.719
103.8653 1.979
103.8956 2.344
103.9258 2.083
103.9561 2.917
103.9864 2.135
104.0167 2.187
104.0470 1.406
104.0772 2.448
104.1075 2.031
104.1378 2.240
104.1681 1.771
104.1984 2.500
104.2286 2.083
104.2589 1.562
104.2892 2.292
104.3195 2.448
104.3497 2.083
104.3800 1.406
104.4103 1.927
104.4406 1.667
104.4709 1.615
104.5011 2.031
104.5314 1.979
104.5617 2.135
104.5920 1.510
104.6223 1.875
104.6525 2.031
104.6828 1.562
104.7131 1.250
104.7434 1.875
104.7736 1.510
104.8039 1.771
104.8342 1.302
104.8645 1.198
104.8948 1.250
104.9250 1.875
104.9553 1.562
104.9856 0.885
105.0159 1.354
105.0462 0.937
105.0764 1.458
105.1067 1.094
105.1370 1.927
105.1673 0.990
105.1975 1.719
105.2278 1.510
105.2581 1.146
105.2884 1.198
105.3187 1.615
105.3489 1.094
105.3792 0.990
105.4095 1.094
105.4398 0.937
105.4701 1.146
105.5003 0.990
105.5306 0.729
105.5609 1.094
105.5912 0.833
105.6215 1.094
105.6517 0.781
105.6820 1.458
105.7123 0.885
105.7426 1.146
105.7728 0.990
105.8031 1.094
105.8334 0.990
105.8637 0.833
105.8940 1.042
105.9242 1.354
105.9545 0.990
105.9848 0.677
106.0151 1.146
106.0454 0.990
106.0756 1.094
106.1059 1.146
106.1362 1.354
106.1665 0.885
106.1967 1.302
106.2270 1.562
106.2573 1.250
106.2876 1.094
106.3179 1.302
106.3481 0.885
106.3784 1.458
106.4087 0.937
106.4390 1.198
106.4693 1.354
106.4995 1.198
106.5298 0.990
106.5601 1.042
106.5904 1.771
106.6206 0.990
106.6509 1.771
106.6812 0.885
106.7115 1.250
106.7418 1.146
106.7720 1.146
106.8023 0.937
106.8326 0.677
106.8629 1.562
106.8932 1.354
106.9234 1.302
106.9537 1.354
106.9840 1.146
107.0143 1.458
107.0445 0.625
107.0748 0.677
107.1051 0.885
107.1354 1.042
107.1657 0.937
107.1959 0.677
107.2262 1.562
107.2565 1.771
107.2868 1.458
107.3171 1.198
107.3473 1.771
107.3776 1.146
107.4079 0.937
107.4382 1.146
107.4684 1.094
107.4987 1.250
107.5290 1.406
107.5593 1.510
107.5896 1.354
107.6198 1.094
107.6501 1.458
107.6804 1.042
107.7107 1.094
107.7410 0.990
107.7712 0.990
107.8015 0.885
107.8318 1.562
107.8621 1.354
107.8923 1.406
107.9226 1.094
107.9529 1.146
107.9832 1.302
108.0135 1.302
108.0437 0.885
108.0740 1.354
108.1043 1.146
108.1346 1.302
108.1649 1.198
108.1951 1.302
108.2254 1.250
108.2557 1.042
108.2860 1.406
108.3163 1.042
108.3465 1.042
108.3768 1.042
108.4071 0.833
108.4374 1.198
108.4676 1.354
108.4979 1.042
108.5282 0.885
108.5585 0.781
108.5888 1.354
108.6190 0.937
108.6493 0.937
108.6796 1.406
108.7099 0.833
108.7402 1.094
108.7704 0.677
108.8007 1.042
108.8310 0.885
108.8613 1.146
108.8915 1.146
108.9218 1.198
108.9521 0.937
108.9824 1.458
109.0127 0.781
109.0429 1.250
109.0732 0.937
109.1035 1.094
109.1338 1.615
109.1641 0.937
109.1943 1.406
109.2246 1.250
109.2549 1.042
109.2852 0.990
109.3154 1.719
109.3457 1.042
109.3760 1.146
109.4063 1.354
109.4366 1.719
109.4668 1.510
109.4971 1.406
109.5274 1.042
109.5577 0.937
109.5880 1.094
109.6182 1.198
109.6485 1.042
109.6788 1.458
109.7091 1.094
109.7393 1.250
109.7696 1.562
109.7999 1.458
109.8302 1.354
109.8605 1.250
109.8907 1.562
109.9210 1.406
109.9513 1.354
109.9816 1.615
110.0119 1.823
110.0421 1.042
110.0724 1.302
110.1027 1.302
110.1330 2.031
110.1632 1.562
110.1935 1.979
110.2238 1.302
110.2541 1.510
110.2844 1.458
110.3146 1.302
110.3449 1.510
110.3752 1.979
110.4055 1.771
110.4358 2.031
110.4660 1.615
110.4963 0.885
110.5266 1.615
110.5569 1.667
110.5871 1.615
110.6174 1.771
110.6477 0.990
110.6780 1.146
110.7083 1.458
110.7385 1.250
110.7688 1.354
110.7991 1.615
110.8294 1.042
110.8597 0.677
110.8899 1.562
110.9202 1.042
110.9505 1.250
110.9808 1.719
111.0110 1.510
111.0413 0.781
111.0716 1.406
111.1019 0.990
111.1322 1.094
111.1624 1.302
111.1927 1.302
111.2230 1.302
111.2533 0.937
111.2836 0.573
111.3138 1.094
111.3441 1.042
111.3744 0.990
111.4047 0.937
111.4350 1.406
111.4652 1.302
111.4955 0.781
111.5258 0.729
111.5561 1.094
111.5863 1.042
111.6166 1.198
111.6469 1.510
111.6772 1.094
111.7075 0.990
111.7377 0.990
111.7680 0.885
111.7983 1.198
111.8286 1.250
111.8589 1.146
111.8891 0.990
111.9194 1.667
111.9497 1.302
111.9800 1.094
112.0102 0.937
112.0405 1.302
112.0708 0.833
112.1011 0.833
112.1314 0.990
112.1616 0.833
112.1919 1.146
112.2222 0.990
112.2525 0.833
112.2828 1.146
112.3130 1.354
112.3433 0.677
112.3736 1.406
112.4039 0.990
112.4341 0.833
112.4644 1.146
112.4947 1.042
112.5250 1.198
112.5553 1.042
112.5855 0.990
112.6158 1.458
112.6461 1.198
112.6764 1.406
112.7067 1.042
112.7369 1.458
112.7672 0.937
112.7975 1.042
112.8278 0.990
112.8580 0.885
112.8883 0.990
112.9186 1.146
112.9489 1.354
112.9792 1.719
113.0094 1.042
113.0397 1.094
113.0700 1.302
113.1003 1.250
113.1306 1.354
113.1608 0.833
113.1911 1.198
113.2214 1.094
113.2517 1.250
113.2819 1.094
113.3122 1.302
113.3425 1.198
113.3728 0.833
113.4031 0.833
113.4333 1.146
113.4636 1.042
113.4939 1.094
113.5242 1.198
113.5545 0.677
113.5847 0.781
113.6150 1.250
113.6453 1.198
113.6756 0.885
113.7058 1.146
113.7361 1.042
113.7664 1.042
113.7967 0.937
113.8270 0.885
113.8572 1.094
113.8875 1.302
113.9178 0.885
113.9481 0.990
113.9784 1.458
114.0086 0.990
114.0389 1.250
114.0692 1.042
114.0995 0.885
114.1298 1.250
114.1600 0.833
114.1903 1.042
114.2206 1.354
114.2509 0.937
114.2811 1.094
114.3114 1.510
114.3417 1.042
114.3720 1.146
114.4023 0.937
114.4325 1.094
114.4628 1.458
114.4931 0.937
114.5234 0.885
114.5537 1.302
114.5839 1.458
114.6142 1.458
114.6445 0.990
114.6748 1.042
114.7050 1.094
114.7353 1.406
114.7656 1.094
114.7959 1.458
114.8262 1.250
114.8564 1.354
114.8867 0.990
114.9170 1.250
114.9473 1.458
114.9776 1.354
115.0078 1.458
115.0381 1.302
115.0684 1.094
115.0987 1.094
115.1289 0.885
115.1592 1.406
115.1895 1.094
115.2198 1.458
115.2501 1.458
115.2803 1.094
115.3106 1.458
115.3409 1.198
115.3712 1.458
115.4015 1.354
115.4317 1.146
115.4620 1.875
115.4923 1.406
115.5226 1.562
115.5528 0.990
115.5831 1.406
115.6134 1.875
115.6437 1.875
115.6740 1.354
115.7042 1.250
115.7345 1.875
115.7648 1.510
115.7951 2.187
115.8254 1.875
115.8556 1.302
115.8859 2.240
115.9162 1.875
115.9465 1.979
115.9767 2.083
116.0070 2.187
116.0373 2.448
116.0676 1.927
116.0979 2.240
116.1281 1.667
116.1584 2.448
116.1887 1.927
116.2190 2.135
116.2493 2.292
116.2795 2.552
116.3098 2.135
116.3401 1.771
116.3704 2.500
116.4006 2.031
116.4309 2.135
116.4612 2.760
116.4915 1.979
116.5218 1.927
116.5520 3.021
116.5823 2.240
116.6126 2.344
116.6429 1.979
116.6732 2.135
116.7034 1.094
116.7337 1.771
116.7640 1.771
116.7943 1.771
116.8245 1.771
116.8548 1.458
116.8851 1.823
116.9154 1.198
116.9457 1.198
116.9759 1.875
117.0062 1.302
117.0365 1.615
117.0668 1.146
117.0971 1.615
117.1273 1.510
117.1576 1.250
117.1879 1.458
117.2182 1.354
117.2485 1.198
117.2787 0.833
117.3090 1.510
117.3393 1.198
117.3696 1.458
117.3998 1.198
117.4301 0.937
117.4604 1.458
117.4907 1.562
117.5210 1.146
117.5512 1.198
117.5815 1.094
117.6118 1.250
117.6421 0.990
117.6724 1.198
117.7026 1.042
117.7329 2.031
117.7632 0.885
117.7935 1.250
117.8237 0.885
117.8540 1.094
117.8843 1.615
117.9146 0.573
117.9449 0.885
117.9751 1.198
118.0054 1.146
118.0357 1.250
118.0660 1.354
118.0963 1.250
118.1265 1.146
118.1568 0.781
118.1871 0.990
118.2174 1.302
118.2476 1.823
118.2779 1.302
118.3082 1.510
118.3385 1.354
118.3688 1.146
118.3990 0.833
118.4293 1.198
118.4596 0.833
118.4899 1.094
118.5202 1.302
118.5504 1.458
118.5807 1.354
118.6110 1.042
118.6413 0.990
118.6715 1.302
118.7018 0.469
118.7321 0.729
118.7624 0.833
118.7927 1.302
118.8229 0.885
118.8532 0.833
118.8835 1.302
118.9138 0.937
118.9441 1.250
118.9743 1.302
119.0046 0.990
119.0349 1.094
119.0652 1.302
119.0954 0.990
119.1257 0.885
119.1560 0.990
119.1863 0.885
119.2166 1.510
119.2468 0.833
119.2771 1.146
119.3074 1.562
119.3377 1.302
119.3680 0.885
119.3982 1.302
119.4285 1.510
119.4588 1.302
119.4891 1.094
119.5193 0.937
119.5496 0.625
119.5799 0.573
119.6102 0.937
119.6405 1.146
119.6707 1.042
119.7010 1.042
119.7313 0.469
119.7616 0.781
119.7919 1.406
119.8221 1.667
119.8524 1.094
119.8827 0.885
119.9130 1.354
119.9433 0.729
119.9735 1.042
120.0038 0.937
