'Id: "" Comment: "" Operator: "Lab Manager" Anode: "Cu" Scantype: "Locked Coupled" TimePerStep: "19.2" X: "9999" Y: "9999" Z: "9999" 
10.0015 3.750
10.0318 4.062
10.0620 4.062
10.0923 4.844
10.1226 3.750
10.1529 3.333
10.1832 4.219
10.2134 3.646
10.2437 4.271
10.2740 4.115
10.3043 3.906
10.3346 3.802
10.3648 4.219
10.3951 4.323
10.4254 3.854
10.4557 5.000
10.4859 3.594
10.5162 3.906
10.5465 4.115
10.5768 4.115
10.6071 4.583
10.6373 2.917
10.6676 2.865
10.6979 3.437
10.7282 4.687
10.7585 3.802
10.7887 4.635
10.8190 3.646
10.8493 3.802
10.8796 3.646
10.9098 4.375
10.9401 4.740
10.9704 3.333
11.0007 5.260
11.0310 4.271
11.0612 4.740
11.0915 3.958
11.1218 5.312
11.1521 4.427
11.1824 3.802
11.2126 3.854
11.2429 4.844
11.2732 3.698
11.3035 3.906
11.3337 4.896
11.3640 3.802
11.3943 3.646
11.4246 3.385
11.4549 3.385
11.4851 4.427
11.5154 4.115
11.5457 4.323
11.5760 4.635
11.6063 2.865
11.6365 3.542
11.6668 3.437
11.6971 3.802
11.7274 3.698
11.7577 4.531
11.7879 3.385
11.8182 4.323
11.8485 4.375
11.8788 2.865
11.9090 3.125
11.9393 3.542
11.9696 2.760
11.9999 4.167
12.0302 4.010
12.0604 3.750
12.0907 3.646
12.1210 2.760
12.1513 4.687
12.1816 4.531
12.2118 3.073
12.2421 2.917
12.2724 4.167
12.3027 3.542
12.3329 4.010
12.3632 4.635
12.3935 4.167
12.4238 3.229
12.4541 3.437
12.4843 3.698
12.5146 2.917
12.5449 4.167
12.5752 3.646
12.6055 4.010
12.6357 3.073
12.6660 3.385
12.6963 3.281
12.7266 3.802
12.7568 3.542
12.7871 2.760
12.8174 3.594
12.8477 2.656
12.8780 3.333
12.9082 4.479
12.9385 3.542
12.9688 3.177
12.9991 3.958
13.0294 3.802
13.0596 3.750
13.0899 3.021
13.1202 3.177
13.1505 3.229
13.1807 3.281
13.2110 3.229
13.2413 3.802
13.2716 2.865
13.3019 3.646
13.3321 3.177
13.3624 3.125
13.3927 3.542
13.4230 3.073
13.4533 3.646
13.4835 3.958
13.5138 2.604
13.5441 3.177
13.5744 2.969
13.6046 3.802
13.6349 3.698
13.6652 3.333
13.6955 3.750
13.7258 2.812
13.7560 3.490
13.7863 4.896
13.8166 2.604
13.8469 3.854
13.8772 2.812
13.9074 3.333
13.9377 2.708
13.9680 3.542
13.9983 2.969
14.0285 3.021
14.0588 3.646
14.0891 3.958
14.1194 3.437
14.1497 3.229
14.1799 2.812
14.2102 3.229
14.2405 3.385
14.2708 3.281
14.3011 2.969
14.3313 2.865
14.3616 3.073
14.3919 3.281
14.4222 2.812
14.4524 4.010
14.4827 2.917
14.5130 3.646
14.5433 3.125
14.5736 3.958
14.6038 3.125
14.6341 3.698
14.6644 2.708
14.6947 3.750
14.7250 3.698
14.7552 2.552
14.7855 3.073
14.8158 3.542
14.8461 2.812
14.8764 3.281
14.9066 3.177
14.9369 3.229
14.9672 3.490
14.9975 3.698
15.0277 3.021
15.0580 2.969
15.0883 2.344
15.1186 3.125
15.1489 3.125
15.1791 3.021
15.2094 3.698
15.2397 3.229
15.2700 2.969
15.3003 3.281
15.3305 2.865
15.3608 3.958
15.3911 3.542
15.4214 3.385
15.4516 3.177
15.4819 2.708
15.5122 3.385
15.5425 2.500
15.5728 2.448
15.6030 2.812
15.6333 3.281
15.6636 3.437
15.6939 3.333
15.7242 3.281
15.7544 2.812
15.7847 3.490
15.8150 2.760
15.8453 3.177
15.8755 3.021
15.9058 3.333
15.9361 2.708
15.9664 3.229
15.9967 3.229
16.0269 2.969
16.0572 3.542
16.0875 2.500
16.1178 3.229
16.1481 3.073
16.1783 2.865
16.2086 4.010
16.2389 3.281
16.2692 2.865
16.2994 2.865
16.3297 3.229
16.3600 3.125
16.3903 3.385
16.4206 3.437
16.4508 3.490
16.4811 2.812
16.5114 3.333
16.5417 3.177
16.5720 2.969
16.6022 2.552
16.6325 3.854
16.6628 3.333
16.6931 3.594
16.7233 3.229
16.7536 2.917
16.7839 2.500
16.8142 4.010
16.8445 3.385
16.8747 3.646
16.9050 2.917
16.9353 3.958
16.9656 3.073
16.9959 3.542
17.0261 3.437
17.0564 3.177
17.0867 3.646
17.1170 2.917
17.1472 2.760
17.1775 2.708
17.2078 2.552
17.2381 3.750
17.2684 2.917
17.2986 3.437
17.3289 3.073
17.3592 3.490
17.3895 2.656
17.4198 3.073
17.4500 2.812
17.4803 3.802
17.5106 2.448
17.5409 3.333
17.5712 4.062
17.6014 2.917
17.6317 2.812
17.6620 3.073
17.6923 2.500
17.7225 2.292
17.7528 2.917
17.7831 2.500
17.8134 3.177
17.8437 2.969
17.8739 2.865
17.9042 2.500
17.9345 2.812
17.9648 3.125
17.9951 3.073
18.0253 3.594
18.0556 2.500
18.0859 2.552
18.1162 2.760
18.1464 3.125
18.1767 2.917
18.2070 3.333
18.2373 3.125
18.2676 2.448
18.2978 3.646
18.3281 2.656
18.3584 3.750
18.3887 3.125
18.4190 2.812
18.4492 2.969
18.4795 3.385
18.5098 2.969
18.5401 2.865
18.5703 2.865
18.6006 3.490
18.6309 3.177
18.6612 2.292
18.6915 2.396
18.7217 3.281
18.7520 2.552
18.7823 2.917
18.8126 3.281
18.8429 3.125
18.8731 2.656
18.9034 3.437
18.9337 2.969
18.9640 3.229
18.9942 2.396
19.0245 3.073
19.0548 2.812
19.0851 3.385
19.1154 3.177
19.1456 2.500
19.1759 3.177
19.2062 3.125
19.2365 2.812
19.2668 2.812
19.2970 2.240
19.3273 3.385
19.3576 3.073
19.3879 3.073
19.4181 2.760
19.4484 3.177
19.4787 3.542
19.5090 2.552
19.5393 3.281
19.5695 2.708
19.5998 2.917
19.6301 2.812
19.6604 3.281
19.6907 3.177
19.7209 2.708
19.7512 2.448
19.7815 2.656
19.8118 3.177
19.8420 2.969
19.8723 2.500
19.9026 2.604
19.9329 2.812
19.9632 3.125
19.9934 2.448
20.0237 2.708
20.0540 2.760
20.0843 3.333
20.1146 2.812
20.1448 2.135
20.1751 2.656
20.2054 3.073
20.2357 3.021
20.2659 2.812
20.2962 2.292
20.3265 2.552
20.3568 2.812
20.3871 2.656
20.4173 2.708
20.4476 3.385
20.4779 3.021
20.5082 2.812
20.5385 3.073
20.5687 2.708
20.5990 2.604
20.6293 3.125
20.6596 1.979
20.6899 3.021
20.7201 2.396
20.7504 2.865
20.7807 2.552
20.8110 3.021
20.8412 2.083
20.8715 1.927
20.9018 2.708
20.9321 3.906
20.9624 3.125
20.9926 2.865
21.0229 2.500
21.0532 3.177
21.0835 3.021
21.1138 3.490
21.1440 3.281
21.1743 2.812
21.2046 2.187
21.2349 3.281
21.2651 2.552
21.2954 2.812
21.3257 2.448
21.3560 2.708
21.3863 3.125
21.4165 3.437
21.4468 2.135
21.4771 3.229
21.5074 3.490
21.5377 3.437
21.5679 2.812
21.5982 2.708
21.6285 3.021
21.6588 2.292
21.6890 2.604
21.7193 2.865
21.7496 2.969
21.7799 2.708
21.8102 2.656
21.8404 2.500
21.8707 2.135
21.9010 3.281
21.9313 3.229
21.9616 2.865
21.9918 2.969
22.0221 2.604
22.0524 2.500
22.0827 2.760
22.1129 2.917
22.1432 2.344
22.1735 3.854
22.2038 2.812
22.2341 3.437
22.2643 3.021
22.2946 2.604
22.3249 2.917
22.3552 2.552
22.3855 3.385
22.4157 2.708
22.4460 2.865
22.4763 1.875
22.5066 2.917
22.5368 2.708
22.5671 3.281
22.5974 2.917
22.6277 2.917
22.6580 2.292
22.6882 3.594
22.7185 2.708
22.7488 2.448
22.7791 2.917
22.8094 2.552
22.8396 3.490
22.8699 2.500
22.9002 2.396
22.9305 2.812
22.9607 2.604
22.9910 2.552
23.0213 1.927
23.0516 2.812
23.0819 3.229
23.1121 2.708
23.1424 3.281
23.1727 2.917
23.2030 3.177
23.2333 2.500
23.2635 3.437
23.2938 1.979
23.3241 2.760
23.3544 2.552
23.3846 2.344
23.4149 2.656
23.4452 2.812
23.4755 2.344
23.5058 3.073
23.5360 2.708
23.5663 3.073
23.5966 2.865
23.6269 2.396
23.6572 2.969
23.6874 2.865
23.7177 3.281
23.7480 2.604
23.7783 3.385
23.8086 3.073
23.8388 1.771
23.8691 3.333
23.8994 2.812
23.9297 2.552
23.9599 2.604
23.9902 2.500
24.0205 1.823
24.0508 2.708
24.0811 2.344
24.1113 2.344
24.1416 2.656
24.1719 2.240
24.2022 2.917
24.2325 2.187
24.2627 2.812
24.2930 3.229
24.3233 2.917
24.3536 2.344
24.3838 2.969
24.4141 3.073
24.4444 1.979
24.4747 2.760
24.5050 2.552
24.5352 3.177
24.5655 2.396
24.5958 2.969
24.6261 2.969
24.6564 2.708
24.6866 2.448
24.7169 2.031
24.7472 2.604
24.7775 2.135
24.8077 2.083
24.8380 2.083
24.8683 2.708
24.8986 3.385
24.9289 2.187
24.9591 3.021
24.9894 2.344
25.0197 2.656
25.0500 2.448
25.0803 3.437
25.1105 2.396
25.1408 2.604
25.1711 2.135
25.2014 2.865
25.2316 2.187
25.2619 2.865
25.2922 2.917
25.3225 2.917
25.3528 3.177
25.3830 2.604
25.4133 3.073
25.4436 2.344
25.4739 2.187
25.5042 3.021
25.5344 3.021
25.5647 2.865
25.5950 3.125
25.6253 3.490
25.6555 2.917
25.6858 2.187
25.7161 2.656
25.7464 2.031
25.7767 2.708
25.8069 2.656
25.8372 2.708
25.8675 2.292
25.8978 3.281
25.9281 3.333
25.9583 3.281
25.9886 3.594
26.0189 1.823
26.0492 2.604
26.0794 2.604
26.1097 2.812
26.1400 2.865
26.1703 3.073
26.2006 3.073
26.2308 1.927
26.2611 2.240
26.2914 3.177
26.3217 2.500
26.3520 2.396
26.3822 2.500
26.4125 3.542
26.4428 2.812
26.4731 3.281
26.5034 2.396
26.5336 3.229
26.5639 2.604
26.5942 3.229
26.6245 3.021
26.6547 2.552
26.6850 2.552
26.7153 3.698
26.7456 2.760
26.7759 2.812
26.8061 2.396
26.8364 2.448
26.8667 2.760
26.8970 2.917
26.9273 4.062
26.9575 3.437
26.9878 2.604
27.0181 2.552
27.0484 3.021
27.0786 3.125
27.1089 2.812
27.1392 2.969
27.1695 3.281
27.1998 2.812
27.2300 3.542
27.2603 3.385
27.2906 3.073
27.3209 3.906
27.3512 3.542
27.3814 3.542
27.4117 3.490
27.4420 3.542
27.4723 3.125
27.5025 3.802
27.5328 2.760
27.5631 3.906
27.5934 3.437
27.6237 2.917
27.6539 2.865
27.6842 3.906
27.7145 3.281
27.7448 3.490
27.7751 3.542
27.8053 3.542
27.8356 3.437
27.8659 2.969
27.8962 2.760
27.9264 2.448
27.9567 3.698
27.9870 3.750
28.0173 4.010
28.0476 3.073
28.0778 2.812
28.1081 3.750
28.1384 3.177
28.1687 2.917
28.1990 4.010
28.2292 3.229
28.2595 3.177
28.2898 3.229
28.3201 3.698
28.3503 3.177
28.3806 3.542
28.4109 3.698
28.4412 2.552
28.4715 3.437
28.5017 3.437
28.5320 3.281
28.5623 3.229
28.5926 3.490
28.6229 4.167
28.6531 3.750
28.6834 3.542
28.7137 3.906
28.7440 3.906
28.7742 3.490
28.8045 3.542
28.8348 3.229
28.8651 3.594
28.8954 3.490
28.9256 3.385
28.9559 3.333
28.9862 3.646
29.0165 3.698
29.0468 2.917
29.0770 2.917
29.1073 4.219
29.1376 3.958
29.1679 2.604
29.1981 3.490
29.2284 4.323
29.2587 3.958
29.2890 3.698
29.3193 4.323
29.3495 3.958
29.3798 3.646
29.4101 3.646
29.4404 3.750
29.4707 3.281
29.5009 4.115
29.5312 3.281
29.5615 4.219
29.5918 3.437
29.6221 4.948
29.6523 4.375
29.6826 3.750
29.7129 3.854
29.7432 4.740
29.7734 4.219
29.8037 4.740
29.8340 5.156
29.8643 4.531
29.8946 4.635
29.9248 4.427
29.9551 4.167
29.9854 4.062
30.0157 4.375
30.0460 4.792
30.0762 4.427
30.1065 5.573
30.1368 4.635
30.1671 5.052
30.1973 4.531
30.2276 5.521
30.2579 5.781
30.2882 4.948
30.3185 5.052
30.3487 5.677
30.3790 5.937
30.4093 5.573
30.4396 6.458
30.4699 5.833
30.5001 6.094
30.5304 5.365
30.5607 5.312
30.5910 5.208
30.6212 6.667
30.6515 6.406
30.6818 7.083
30.7121 7.812
30.7424 7.396
30.7726 7.812
30.8029 7.240
30.8332 8.437
30.8635 8.490
30.8938 8.333
30.9240 10.312
30.9543 8.542
30.9846 9.687
31.0149 10.937
31.0451 11.042
31.0754 11.406
31.1057 14.271
31.1360 11.823
31.1663 13.437
31.1965 15.312
31.2268 17.083
31.2571 19.635
31.2874 20.833
31.3177 22.812
31.3479 23.906
31.3782 27.917
31.4085 32.708
31.4388 36.146
31.4690 39.010
31.4993 44.687
31.5296 45.625
31.5599 52.031
31.5902 53.958
31.6204 54.167
31.6507 53.646
31.6810 55.156
31.7113 54.375
31.7416 48.177
31.7718 44.219
31.8021 39.167
31.8324 32.969
31.8627 27.240
31.8929 26.146
31.9232 25.156
31.9535 23.490
31.9838 20.469
32.0141 18.437
32.0443 15.677
32.0746 14.583
32.1049 15.833
32.1352 13.073
32.1655 11.719
32.1957 11.406
32.2260 10.729
32.2563 11.458
32.2866 10.312
32.3169 8.177
32.3471 9.062
32.3774 7.865
32.4077 9.687
32.4380 8.385
32.4682 7.708
32.4985 7.344
32.5288 7.292
32.5591 7.240
32.5894 7.083
32.6196 7.083
32.6499 7.344
32.6802 6.354
32.7105 6.302
32.7408 5.625
32.7710 6.719
32.8013 6.302
32.8316 6.615
32.8619 7.604
32.8921 5.990
32.9224 6.823
32.9527 6.875
32.9830 5.573
33.0133 6.094
33.0435 6.042
33.0738 6.458
33.1041 5.990
33.1344 5.521
33.1647 5.521
33.1949 4.896
33.2252 6.042
33.2555 5.990
33.2858 5.521
33.3160 5.885
33.3463 6.771
33.3766 6.406
33.4069 5.573
33.4372 6.042
33.4674 6.823
33.4977 6.979
33.5280 6.875
33.5583 7.083
33.5886 6.927
33.6188 6.719
33.6491 8.229
33.6794 7.187
33.7097 7.812
33.7399 8.333
33.7702 7.708
33.8005 8.906
33.8308 8.750
33.8611 11.146
33.8913 10.573
33.9216 11.250
33.9519 12.187
33.9822 13.594
34.0125 15.417
34.0427 18.229
34.0730 20.208
34.1033 22.917
34.1336 28.958
34.1638 33.646
34.1941 42.500
34.2244 50.833
34.2547 63.177
34.2850 69.271
34.3152 63.854
34.3455 61.823
34.3758 53.177
34.4061 42.448
34.4364 35.990
34.4666 29.010
34.4969 24.167
34.5272 19.375
34.5575 19.115
34.5877 15.260
34.6180 13.542
34.6483 10.990
34.6786 11.146
34.7089 13.333
34.7391 11.094
34.7694 10.573
34.7997 9.635
34.8300 9.062
34.8603 10.833
34.8905 9.062
34.9208 10.312
34.9511 8.594
34.9814 10.104
35.0116 9.323
35.0419 8.177
35.0722 8.646
35.1025 10.677
35.1328 9.635
35.1630 7.604
35.1933 10.052
35.2236 10.156
35.2539 9.896
35.2842 10.885
35.3144 9.792
35.3447 10.573
35.3750 10.937
35.4053 11.823
35.4356 14.010
35.4658 13.125
35.4961 14.583
35.5264 14.010
35.5567 15.781
35.5869 16.719
35.6172 18.490
35.6475 18.802
35.6778 21.823
35.7081 22.396
35.7383 26.771
35.7686 27.135
35.7989 30.469
35.8292 35.469
35.8595 35.312
35.8897 40.417
35.9200 48.385
35.9503 52.448
35.9806 62.500
36.0108 66.927
36.0411 74.531
36.0714 76.250
36.1017 79.583
36.1320 78.958
36.1622 78.594
36.1925 77.292
36.2228 67.969
36.2531 64.062
36.2834 57.083
36.3136 52.292
36.3439 45.365
36.3742 40.781
36.4045 34.792
36.4347 33.229
36.4650 28.698
36.4953 25.156
36.5256 22.083
36.5559 19.687
36.5861 19.062
36.6164 17.812
36.6467 16.094
36.6770 14.219
36.7073 13.021
36.7375 11.510
36.7678 11.875
36.7981 10.677
36.8284 10.417
36.8586 10.625
36.8889 8.385
36.9192 9.896
36.9495 8.594
36.9798 8.177
37.0100 8.385
37.0403 7.292
37.0706 7.500
37.1009 6.406
37.1312 7.031
37.1614 6.250
37.1917 6.146
37.2220 6.198
37.2523 6.354
37.2825 6.094
37.3128 5.833
37.3431 5.937
37.3734 5.312
37.4037 5.469
37.4339 5.781
37.4642 5.469
37.4945 5.156
37.5248 5.417
37.5551 4.792
37.5853 4.635
37.6156 4.948
37.6459 4.167
37.6762 4.740
37.7064 4.948
37.7367 3.646
37.7670 5.573
37.7973 4.583
37.8276 4.271
37.8578 3.021
37.8881 3.802
37.9184 4.427
37.9487 3.802
37.9790 3.698
38.0092 4.948
38.0395 4.427
38.0698 3.906
38.1001 3.333
38.1304 4.427
38.1606 3.646
38.1909 3.750
38.2212 3.490
38.2515 3.906
38.2817 3.854
38.3120 3.490
38.3423 3.125
38.3726 4.427
38.4029 3.229
38.4331 3.385
38.4634 4.427
38.4937 3.646
38.5240 3.333
38.5543 3.594
38.5845 3.125
38.6148 2.292
38.6451 2.708
38.6754 2.708
38.7056 3.021
38.7359 3.177
38.7662 4.010
38.7965 3.750
38.8268 3.437
38.8570 3.281
38.8873 2.812
38.9176 3.385
38.9479 2.812
38.9782 3.281
39.0084 3.073
39.0387 2.760
39.0690 2.917
39.0993 3.385
39.1295 2.396
39.1598 2.292
39.1901 3.073
39.2204 3.281
39.2507 2.760
39.2809 2.240
39.3112 2.969
39.3415 2.812
39.3718 2.917
39.4021 2.760
39.4323 2.656
39.4626 2.656
39.4929 3.073
39.5232 2.865
39.5534 2.344
39.5837 3.021
39.6140 2.656
39.6443 2.760
39.6746 2.344
39.7048 2.448
39.7351 2.187
39.7654 2.552
39.7957 3.281
39.8260 2.865
39.8562 2.500
39.8865 3.281
39.9168 2.500
39.9471 3.281
39.9773 2.292
40.0076 2.969
40.0379 2.760
40.0682 2.187
40.0985 3.021
40.1287 2.604
40.1590 2.656
40.1893 2.187
40.2196 2.708
40.2499 1.771
40.2801 1.719
40.3104 1.771
40.3407 2.865
40.3710 2.240
40.4012 2.448
40.4315 2.135
40.4618 2.656
40.4921 2.344
40.5224 2.448
40.5526 2.344
40.5829 2.240
40.6132 2.396
40.6435 2.604
40.6738 2.865
40.7040 2.812
40.7343 2.448
40.7646 2.448
40.7949 2.656
40.8251 2.500
40.8554 2.500
40.8857 1.927
40.9160 2.292
40.9463 2.135
40.9765 2.760
41.0068 2.552
41.0371 1.927
41.0674 2.240
41.0977 2.135
41.1279 2.708
41.1582 2.500
41.1885 1.771
41.2188 1.979
41.2491 2.187
41.2793 2.760
41.3096 2.292
41.3399 2.344
41.3702 2.292
41.4004 2.187
41.4307 2.448
41.4610 2.760
41.4913 1.302
41.5216 1.719
41.5518 2.500
41.5821 2.240
41.6124 2.187
41.6427 2.344
41.6730 1.615
41.7032 2.344
41.7335 1.927
41.7638 1.771
41.7941 2.187
41.8243 2.500
41.8546 2.031
41.8849 2.083
41.9152 1.979
41.9455 2.187
41.9757 2.135
42.0060 2.760
42.0363 2.083
42.0666 2.031
42.0969 1.771
42.1271 2.396
42.1574 2.031
42.1877 2.604
42.2180 2.135
42.2482 1.979
42.2785 1.823
42.3088 2.031
42.3391 2.552
42.3694 2.292
42.3996 1.875
42.4299 2.240
42.4602 1.562
42.4905 2.708
42.5208 1.927
42.5510 2.240
42.5813 2.500
42.6116 2.240
42.6419 1.771
42.6721 2.083
42.7024 1.823
42.7327 2.083
42.7630 1.823
42.7933 1.927
42.8235 1.927
42.8538 2.396
42.8841 2.187
42.9144 1.979
42.9447 2.448
42.9749 2.187
43.0052 2.552
43.0355 2.292
43.0658 2.865
43.0960 2.135
43.1263 2.240
43.1566 1.875
43.1869 1.510
43.2172 1.927
43.2474 2.292
43.2777 2.031
43.3080 2.031
43.3383 2.552
43.3686 2.292
43.3988 1.927
43.4291 2.656
43.4594 2.552
43.4897 1.771
43.5199 2.135
43.5502 2.240
43.5805 1.979
43.6108 1.771
43.6411 2.865
43.6713 2.240
43.7016 2.604
43.7319 1.927
43.7622 2.500
43.7925 2.083
43.8227 2.135
43.8530 3.073
43.8833 2.500
43.9136 2.604
43.9439 1.875
43.9741 2.292
44.0044 2.656
44.0347 2.083
44.0650 2.396
44.0952 2.396
44.1255 2.500
44.1558 2.656
44.1861 2.031
44.2164 1.719
44.2466 1.875
44.2769 2.500
44.3072 1.979
44.3375 2.604
44.3678 2.031
44.3980 2.448
44.4283 2.344
44.4586 2.448
44.4889 2.969
44.5191 2.187
44.5494 2.240
44.5797 2.656
44.6100 2.500
44.6403 2.448
44.6705 2.292
44.7008 2.917
44.7311 2.083
44.7614 1.979
44.7917 2.396
44.8219 2.812
44.8522 2.917
44.8825 2.187
44.9128 2.917
44.9430 2.760
44.9733 2.812
45.0036 2.448
45.0339 2.604
45.0642 2.083
45.0944 3.281
45.1247 2.865
45.1550 2.656
45.1853 2.240
45.2156 2.656
45.2458 3.021
45.2761 2.292
45.3064 2.292
45.3367 2.292
45.3669 2.604
45.3972 2.552
45.4275 1.927
45.4578 3.125
45.4881 2.708
45.5183 2.031
45.5486 2.135
45.5789 2.448
45.6092 2.083
45.6395 2.344
45.6697 2.448
45.7000 2.292
45.7303 2.396
45.7606 2.500
45.7908 2.344
45.8211 2.448
45.8514 2.031
45.8817 2.760
45.9120 3.021
45.9422 3.594
45.9725 2.500
46.0028 2.396
46.0331 3.490
46.0634 2.187
46.0936 2.969
46.1239 3.177
46.1542 2.292
46.1845 3.125
46.2147 2.604
46.2450 3.646
46.2753 2.292
46.3056 3.229
46.3359 2.656
46.3661 2.396
46.3964 4.167
46.4267 2.448
46.4570 2.708
46.4873 2.604
46.5175 2.969
46.5478 3.177
46.5781 2.812
46.6084 3.125
46.6386 3.229
46.6689 3.385
46.6992 3.646
46.7295 3.437
46.7598 4.115
46.7900 4.271
46.8203 4.323
46.8506 4.271
46.8809 4.896
46.9112 4.479
46.9414 4.844
46.9717 6.406
47.0020 6.823
47.0323 7.396
47.0626 8.646
47.0928 7.708
47.1231 9.896
47.1534 9.375
47.1837 10.208
47.2139 12.760
47.2442 14.375
47.2745 16.302
47.3048 18.177
47.3351 16.042
47.3653 17.292
47.3956 18.958
47.4259 16.823
47.4562 16.302
47.4865 17.396
47.5167 14.687
47.5470 14.792
47.5773 14.010
47.6076 13.437
47.6378 10.208
47.6681 9.740
47.6984 7.760
47.7287 8.021
47.7590 7.708
47.7892 6.979
47.8195 7.135
47.8498 5.677
47.8801 5.573
47.9104 5.417
47.9406 4.531
47.9709 4.375
48.0012 4.844
48.0315 4.219
48.0617 3.802
48.0920 4.479
48.1223 4.062
48.1526 3.906
48.1829 4.479
48.2131 3.229
48.2434 3.021
48.2737 3.698
48.3040 2.812
48.3343 2.708
48.3645 4.167
48.3948 2.396
48.4251 2.708
48.4554 2.865
48.4856 2.500
48.5159 2.187
48.5462 2.344
48.5765 2.708
48.6068 1.979
48.6370 2.708
48.6673 2.656
48.6976 3.021
48.7279 2.344
48.7582 2.552
48.7884 2.135
48.8187 2.656
48.8490 2.500
48.8793 1.875
48.9095 1.771
48.9398 2.083
48.9701 2.240
49.0004 1.979
49.0307 2.344
49.0609 2.760
49.0912 2.240
49.1215 2.135
49.1518 2.500
49.1821 1.823
49.2123 2.344
49.2426 2.135
49.2729 2.500
49.3032 2.396
49.3334 1.927
49.3637 2.396
49.3940 2.240
49.4243 2.187
49.4546 3.177
49.4848 2.760
49.5151 2.083
49.5454 2.240
49.5757 2.708
49.6060 1.823
49.6362 2.448
49.6665 1.979
49.6968 2.135
49.7271 3.021
49.7574 2.656
49.7876 1.875
49.8179 2.135
49.8482 2.500
49.8785 2.187
49.9087 1.771
49.9390 1.667
49.9693 2.292
49.9996 2.187
50.0299 2.292
50.0601 2.135
50.0904 2.083
50.1207 2.187
50.1510 2.083
50.1813 2.135
50.2115 1.823
50.2418 1.875
50.2721 2.292
50.3024 2.083
50.3326 2.135
50.3629 2.031
50.3932 2.344
50.4235 2.865
50.4538 2.552
50.4840 2.292
50.5143 2.083
50.5446 2.083
50.5749 2.292
50.6052 1.406
50.6354 2.396
50.6657 2.292
50.6960 2.656
50.7263 2.344
50.7565 2.604
50.7868 2.292
50.8171 1.979
50.8474 2.292
50.8777 2.187
50.9079 1.979
50.9382 2.604
50.9685 2.344
50.9988 1.979
51.0291 2.396
51.0593 2.344
51.0896 1.927
51.1199 1.771
51.1502 1.719
51.1804 2.031
51.2107 1.771
51.2410 2.135
51.2713 2.500
51.3016 2.031
51.3318 2.240
51.3621 2.552
51.3924 1.615
51.4227 1.875
51.4530 2.448
51.4832 1.979
51.5135 2.448
51.5438 2.292
51.5741 1.719
51.6043 1.979
51.6346 2.708
51.6649 2.187
51.6952 1.823
51.7255 2.135
51.7557 2.031
51.7860 1.562
51.8163 2.604
51.8466 2.760
51.8769 2.031
51.9071 1.979
51.9374 1.458
51.9677 2.240
51.9980 1.875
52.0282 2.500
52.0585 2.552
52.0888 2.135
52.1191 1.823
52.1494 1.667
52.1796 1.927
52.2099 1.927
52.2402 2.448
52.2705 1.927
52.3008 2.135
52.3310 1.615
52.3613 1.719
52.3916 2.344
52.4219 2.344
52.4521 2.604
52.4824 2.135
52.5127 1.771
52.5430 2.448
52.5733 2.031
52.6035 2.344
52.6338 1.927
52.6641 2.708
52.6944 2.187
52.7247 2.604
52.7549 2.135
52.7852 2.031
52.8155 2.135
52.8458 2.292
52.8761 2.083
52.9063 1.875
52.9366 1.823
52.9669 2.656
52.9972 2.865
53.0274 2.760
53.0577 2.917
53.0880 2.187
53.1183 2.500
53.1486 2.865
53.1788 2.448
53.2091 1.875
53.2394 1.771
53.2697 2.448
53.3000 2.604
53.3302 2.448
53.3605 2.708
53.3908 2.448
53.4211 1.823
53.4513 2.292
53.4816 2.604
53.5119 2.500
53.5422 2.031
53.5725 2.083
53.6027 3.021
53.6330 1.823
53.6633 2.187
53.6936 2.344
53.7239 2.240
53.7541 2.448
53.7844 2.396
53.8147 2.344
53.8450 2.604
53.8752 2.292
53.9055 2.708
53.9358 1.927
53.9661 2.187
53.9964 2.812
54.0266 1.823
54.0569 2.187
54.0872 2.448
54.1175 2.500
54.1478 1.667
54.1780 2.344
54.2083 2.865
54.2386 2.187
54.2689 2.708
54.2991 2.500
54.3294 2.187
54.3597 2.031
54.3900 1.927
54.4203 2.448
54.4505 2.135
54.4808 2.917
54.5111 3.177
54.5414 2.396
54.5717 2.708
54.6019 2.292
54.6322 2.448
54.6625 2.448
54.6928 2.708
54.7230 2.448
54.7533 2.969
54.7836 2.760
54.8139 2.240
54.8442 2.708
54.8744 2.500
54.9047 2.604
54.9350 2.917
54.9653 3.594
54.9956 2.500
55.0258 3.385
55.0561 3.385
55.0864 2.969
55.1167 3.073
55.1469 2.500
55.1772 3.073
55.2075 2.344
55.2378 3.177
55.2681 3.281
55.2983 3.437
55.3286 3.542
55.3589 3.906
55.3892 3.594
55.4195 3.646
55.4497 3.750
55.4800 3.437
55.5103 3.021
55.5406 3.698
55.5709 3.698
55.6011 3.698
55.6314 3.802
55.6617 3.906
55.6920 5.000
55.7222 4.792
55.7525 5.052
55.7828 4.583
55.8131 5.000
55.8434 5.781
55.8736 5.573
55.9039 6.042
55.9342 6.875
55.9645 6.458
55.9948 7.812
56.0250 8.125
56.0553 7.448
56.0856 7.500
56.1159 10.104
56.1461 10.521
56.1764 11.094
56.2067 11.979
56.2370 15.208
56.2673 15.625
56.2975 16.719
56.3278 18.646
56.3581 19.323
56.3884 21.927
56.4187 22.865
56.4489 23.802
56.4792 22.135
56.5095 22.187
56.5398 21.823
56.5700 20.729
56.6003 20.937
56.6306 17.448
56.6609 16.406
56.6912 14.531
56.7214 13.594
56.7517 12.917
56.7820 12.083
56.8123 10.937
56.8426 9.844
56.8728 8.125
56.9031 8.333
56.9334 7.865
56.9637 7.865
56.9939 6.354
57.0242 6.302
57.0545 5.990
57.0848 6.719
57.1151 5.573
57.1453 5.000
57.1756 4.323
57.2059 4.375
57.2362 4.896
57.2665 4.583
57.2967 4.687
57.3270 4.115
57.3573 4.635
57.3876 2.917
57.4178 3.125
57.4481 3.333
57.4784 4.115
57.5087 3.333
57.5390 3.490
57.5692 3.542
57.5995 2.865
57.6298 2.812
57.6601 3.333
57.6904 2.865
57.7206 2.500
57.7509 2.917
57.7812 2.812
57.8115 3.385
57.8417 2.240
57.8720 3.333
57.9023 2.969
57.9326 2.448
57.9629 2.760
57.9931 3.385
58.0234 2.552
58.0537 2.187
58.0840 2.552
58.1143 2.396
58.1445 2.240
58.1748 2.396
58.2051 2.292
58.2354 2.500
58.2656 3.177
58.2959 2.292
58.3262 2.135
58.3565 3.125
58.3868 2.187
58.4170 2.760
58.4473 2.031
58.4776 2.760
58.5079 3.229
58.5382 2.917
58.5684 2.552
58.5987 2.500
58.6290 2.135
58.6593 2.344
58.6896 2.448
58.7198 2.344
58.7501 2.552
58.7804 2.135
58.8107 1.927
58.8409 2.812
58.8712 2.917
58.9015 2.344
58.9318 2.135
58.9621 2.708
58.9923 3.073
59.0226 2.552
59.0529 1.510
59.0832 2.500
59.1135 2.396
59.1437 2.031
59.1740 2.240
59.2043 2.552
59.2346 2.292
59.2648 1.875
59.2951 2.500
59.3254 2.135
59.3557 2.760
59.3860 2.448
59.4162 2.448
59.4465 2.396
59.4768 2.344
59.5071 2.344
59.5374 2.656
59.5676 2.448
59.5979 2.031
59.6282 1.875
59.6585 2.083
59.6887 2.292
59.7190 2.396
59.7493 2.240
59.7796 2.500
59.8099 1.667
59.8401 2.500
59.8704 1.771
59.9007 2.604
59.9310 3.021
59.9613 2.396
59.9915 2.760
60.0218 2.344
60.0521 2.500
60.0824 1.875
60.1126 2.031
60.1429 2.500
60.1732 2.292
60.2035 2.240
60.2338 2.396
60.2640 2.917
60.2943 2.552
60.3246 2.500
60.3549 2.448
60.3852 2.031
60.4154 2.708
60.4457 2.448
60.4760 2.396
60.5063 2.708
60.5365 1.823
60.5668 2.135
60.5971 2.448
60.6274 2.135
60.6577 2.656
60.6879 2.083
60.7182 2.135
60.7485 2.552
60.7788 2.292
60.8091 2.031
60.8393 2.917
60.8696 2.969
60.8999 2.969
60.9302 2.865
60.9604 2.656
60.9907 2.396
61.0210 2.604
61.0513 2.708
61.0816 2.760
61.1118 2.708
61.1421 2.292
61.1724 2.917
61.2027 2.604
61.2330 2.135
61.2632 2.656
61.2935 2.292
61.3238 3.229
61.3541 2.135
61.3844 2.760
61.4146 3.021
61.4449 2.708
61.4752 3.437
61.5055 2.969
61.5357 3.229
61.5660 3.646
61.5963 2.500
61.6266 3.073
61.6569 3.437
61.6871 3.021
61.7174 3.073
61.7477 3.125
61.7780 2.812
61.8083 3.125
61.8385 3.437
61.8688 3.594
61.8991 4.010
61.9294 3.594
61.9596 3.802
61.9899 3.437
62.0202 4.323
62.0505 4.531
62.0808 4.531
62.1110 4.948
62.1413 4.583
62.1716 3.646
62.2019 4.844
62.2322 5.781
62.2624 5.937
62.2927 6.615
62.3230 6.823
62.3533 8.125
62.3835 8.333
62.4138 9.687
62.4441 9.427
62.4744 11.719
62.5047 11.250
62.5349 12.500
62.5652 15.573
62.5955 14.479
62.6258 16.302
62.6561 18.281
62.6863 19.740
62.7166 17.708
62.7469 20.365
62.7772 18.333
62.8074 20.885
62.8377 15.990
62.8680 15.469
62.8983 15.677
62.9286 14.115
62.9588 13.385
62.9891 13.385
63.0194 11.094
63.0497 10.417
63.0800 8.646
63.1102 8.750
63.1405 8.385
63.1708 7.083
63.2011 5.937
63.2313 5.937
63.2616 5.469
63.2919 6.198
63.3222 5.625
63.3525 4.271
63.3827 4.219
63.4130 4.219
63.4433 3.958
63.4736 5.521
63.5039 3.958
63.5341 4.479
63.5644 3.385
63.5947 3.437
63.6250 3.021
63.6552 3.021
63.6855 3.125
63.7158 2.865
63.7461 2.812
63.7764 3.490
63.8066 3.073
63.8369 3.385
63.8672 3.125
63.8975 2.656
63.9278 3.125
63.9580 2.760
63.9883 3.385
64.0186 2.344
64.0489 3.073
64.0791 2.500
64.1094 3.229
64.1397 2.708
64.1700 3.073
64.2003 2.865
64.2305 2.292
64.2608 2.656
64.2911 2.760
64.3214 3.073
64.3517 2.344
64.3819 2.031
64.4122 2.448
64.4425 3.125
64.4728 2.552
64.5031 2.500
64.5333 2.604
64.5636 2.292
64.5939 2.865
64.6242 2.448
64.6544 2.656
64.6847 2.552
64.7150 3.021
64.7453 2.083
64.7756 2.500
64.8058 2.031
64.8361 3.021
64.8664 2.292
64.8967 2.448
64.9270 2.031
64.9572 1.927
64.9875 2.135
65.0178 2.812
65.0481 2.604
65.0783 2.969
65.1086 2.812
65.1389 2.135
65.1692 2.917
65.1995 2.604
65.2297 2.448
65.2600 3.073
65.2903 2.135
65.3206 2.656
65.3509 2.865
65.3811 2.448
65.4114 1.562
65.4417 3.021
65.4720 2.604
65.5022 3.594
65.5325 3.333
65.5628 2.448
65.5931 2.448
65.6234 3.125
65.6536 2.865
65.6839 3.698
65.7142 3.073
65.7445 3.646
65.7748 2.865
65.8050 3.542
65.8353 3.906
65.8656 3.021
65.8959 3.750
65.9261 3.490
65.9564 3.750
65.9867 3.750
66.0170 3.542
66.0473 3.906
66.0775 4.062
66.1078 4.635
66.1381 4.635
66.1684 3.854
66.1987 4.271
66.2289 5.521
66.2592 4.167
66.2895 3.854
66.3198 5.000
66.3500 4.635
66.3803 5.104
66.4106 5.052
66.4409 4.427
66.4712 4.010
66.5014 4.167
66.5317 4.844
66.5620 4.115
66.5923 3.646
66.6226 3.177
66.6528 3.021
66.6831 4.010
66.7134 4.010
66.7437 3.750
66.7739 3.802
66.8042 3.281
66.8345 3.542
66.8648 3.802
66.8951 2.917
66.9253 3.646
66.9556 4.271
66.9859 3.802
67.0162 4.375
67.0465 3.958
67.0767 4.271
67.1070 4.479
67.1373 4.740
67.1676 4.792
67.1978 4.375
67.2281 3.958
67.2584 3.906
67.2887 4.375
67.3190 5.573
67.3492 5.260
67.3795 6.875
67.4098 6.042
67.4401 7.083
67.4704 7.292
67.5006 8.177
67.5309 8.281
67.5612 9.115
67.5915 9.635
67.6218 10.833
67.6520 11.771
67.6823 12.760
67.7126 13.906
67.7429 13.646
67.7731 13.281
67.8034 13.698
67.8337 14.271
67.8640 14.948
67.8943 13.021
67.9245 13.958
67.9548 12.448
67.9851 13.177
68.0154 10.729
68.0457 11.615
68.0759 10.625
68.1062 9.323
68.1365 9.687
68.1668 10.000
68.1970 7.240
68.2273 8.333
68.2576 6.510
68.2879 6.979
68.3182 7.135
68.3484 6.458
68.3787 7.031
68.4090 7.031
68.4393 6.042
68.4696 7.552
68.4998 6.042
68.5301 5.781
68.5604 5.521
68.5907 5.833
68.6209 5.990
68.6512 5.781
68.6815 6.354
68.7118 6.458
68.7421 6.146
68.7723 6.719
68.8026 7.917
68.8329 8.177
68.8632 8.073
68.8935 7.396
68.9237 7.812
68.9540 8.177
68.9843 9.010
69.0146 8.021
69.0448 8.281
69.0751 6.979
69.1054 7.812
69.1357 7.500
69.1660 5.573
69.1962 6.615
69.2265 5.781
69.2568 5.208
69.2871 5.469
69.3174 5.521
69.3476 4.531
69.3779 3.854
69.4082 4.740
69.4385 3.021
69.4687 3.750
69.4990 4.219
69.5293 3.750
69.5596 3.437
69.5899 3.177
69.6201 2.917
69.6504 3.490
69.6807 3.125
69.7110 3.281
69.7413 2.760
69.7715 2.448
69.8018 2.760
69.8321 2.708
69.8624 2.812
69.8926 2.656
69.9229 2.448
69.9532 2.552
69.9835 2.240
70.0138 2.292
70.0440 2.292
70.0743 2.604
70.1046 2.240
70.1349 2.292
70.1652 2.760
70.1954 2.187
70.2257 2.292
70.2560 1.667
70.2863 2.500
70.3166 2.240
70.3468 1.979
70.3771 2.083
70.4074 2.240
70.4377 2.031
70.4679 1.771
70.4982 2.760
70.5285 1.406
70.5588 2.135
70.5891 2.083
70.6193 1.771
70.6496 1.719
70.6799 2.552
70.7102 1.771
70.7405 2.292
70.7707 1.771
70.8010 2.083
70.8313 2.187
70.8616 2.031
70.8918 1.458
70.9221 2.396
70.9524 1.667
70.9827 1.354
71.0130 1.823
71.0432 1.771
71.0735 1.771
71.1038 2.292
71.1341 1.771
71.1644 1.615
71.1946 1.615
71.2249 2.083
71.2552 1.719
71.2855 1.667
71.3157 1.771
71.3460 2.344
71.3763 1.667
71.4066 1.458
71.4369 1.667
71.4671 1.719
71.4974 1.667
71.5277 1.875
71.5580 1.719
71.5883 1.823
71.6185 1.406
71.6488 2.396
71.6791 2.031
71.7094 1.510
71.7396 1.719
71.7699 1.927
71.8002 1.771
71.8305 2.135
71.8608 1.510
71.8910 1.771
71.9213 2.083
71.9516 2.031
71.9819 1.458
72.0122 2.344
72.0424 1.979
72.0727 1.562
72.1030 2.187
72.1333 1.562
72.1635 2.187
72.1938 2.187
72.2241 2.448
72.2544 2.708
72.2847 2.240
72.3149 2.083
72.3452 2.760
72.3755 2.812
72.4058 2.500
72.4361 3.229
72.4663 2.240
72.4966 2.708
72.5269 3.073
72.5572 2.656
72.5874 2.552
72.6177 2.083
72.6480 2.396
72.6783 2.396
72.7086 2.552
72.7388 2.292
72.7691 2.448
72.7994 1.875
72.8297 2.135
72.8600 2.656
72.8902 1.771
72.9205 1.354
72.9508 1.406
72.9811 2.240
73.0113 1.771
73.0416 2.240
73.0719 2.031
73.1022 1.562
73.1325 1.250
73.1627 2.083
73.1930 1.458
73.2233 1.979
73.2536 1.719
73.2839 1.354
73.3141 1.667
73.3444 1.250
73.3747 1.094
73.4050 1.458
73.4353 1.719
73.4655 1.406
73.4958 1.927
73.5261 1.198
73.5564 1.667
73.5866 1.562
73.6169 2.083
73.6472 2.135
73.6775 1.719
73.7078 1.771
73.7380 1.146
73.7683 1.615
73.7986 1.406
73.8289 1.771
73.8592 1.667
73.8894 1.458
73.9197 1.719
73.9500 1.458
73.9803 1.406
74.0105 1.719
74.0408 2.135
74.0711 1.250
74.1014 1.510
74.1317 1.667
74.1619 1.250
74.1922 1.250
74.2225 1.354
74.2528 1.615
74.2831 1.667
74.3133 1.302
74.3436 1.823
74.3739 1.823
74.4042 1.510
74.4344 1.406
74.4647 1.615
74.4950 1.406
74.5253 1.250
74.5556 1.615
74.5858 1.510
74.6161 1.406
74.6464 2.552
74.6767 1.823
74.7070 1.146
74.7372 1.927
74.7675 2.031
74.7978 1.302
74.8281 1.979
74.8583 1.354
74.8886 1.667
74.9189 1.771
74.9492 1.719
74.9795 1.927
75.0097 1.667
75.0400 1.875
75.0703 1.406
75.1006 1.615
75.1309 2.240
75.1611 1.927
75.1914 1.510
75.2217 1.458
75.2520 1.302
75.2822 1.719
75.3125 1.510
75.3428 1.250
75.3731 1.250
75.4034 1.667
75.4336 1.562
75.4639 1.667
75.4942 1.927
75.5245 1.458
75.5548 1.458
75.5850 1.510
75.6153 1.667
75.6456 1.250
75.6759 1.615
75.7061 1.615
75.7364 1.562
75.7667 1.406
75.7970 1.562
75.8273 1.927
75.8575 1.719
75.8878 1.823
75.9181 1.250
75.9484 1.875
75.9787 1.979
76.0089 1.354
76.0392 1.406
76.0695 1.510
76.0998 2.031
76.1301 1.458
76.1603 2.187
76.1906 1.979
76.2209 1.875
76.2512 1.667
76.2814 1.198
76.3117 1.979
76.3420 1.979
76.3723 2.031
76.4026 2.240
76.4328 2.135
76.4631 1.250
76.4934 2.344
76.5237 2.552
76.5540 1.823
76.5842 1.927
76.6145 2.396
76.6448 3.021
76.6751 3.073
76.7053 2.917
76.7356 3.281
76.7659 2.865
76.7962 4.167
76.8265 3.073
76.8567 2.604
76.8870 2.604
76.9173 3.125
76.9476 2.448
76.9779 2.812
77.0081 2.552
77.0384 2.969
77.0687 2.500
77.0990 2.500
77.1292 2.396
77.1595 2.760
77.1898 2.344
77.2201 2.708
77.2504 2.396
77.2806 2.135
77.3109 1.667
77.3412 2.500
77.3715 2.500
77.4018 1.823
77.4320 1.979
77.4623 1.979
77.4926 1.823
77.5229 1.354
77.5531 1.979
77.5834 1.979
77.6137 1.510
77.6440 1.198
77.6743 1.927
77.7045 2.448
77.7348 2.135
77.7651 2.135
77.7954 1.354
77.8257 1.719
77.8559 1.875
77.8862 1.354
77.9165 1.615
77.9468 1.354
77.9770 1.302
78.0073 1.302
78.0376 1.823
78.0679 1.719
78.0982 1.302
78.1284 1.823
78.1587 2.083
78.1890 1.927
78.2193 1.198
78.2496 1.875
78.2798 1.927
78.3101 1.510
78.3404 1.615
78.3707 1.302
78.4009 1.615
78.4312 2.187
78.4615 1.771
78.4918 1.719
78.5221 1.562
78.5523 1.458
78.5826 1.719
78.6129 1.615
78.6432 1.510
78.6735 1.458
78.7037 1.615
78.7340 1.615
78.7643 1.510
78.7946 1.510
78.8248 1.510
78.8551 1.667
78.8854 1.667
78.9157 1.250
78.9460 1.458
78.9762 1.458
79.0065 1.042
79.0368 1.198
79.0671 0.833
79.0974 1.406
79.1276 1.562
79.1579 1.615
79.1882 1.354
79.2185 1.510
79.2488 1.823
79.2790 1.667
79.3093 1.562
79.3396 1.458
79.3699 1.302
79.4001 1.719
79.4304 1.615
79.4607 1.667
79.4910 1.406
79.5213 1.562
79.5515 1.198
79.5818 1.198
79.6121 1.354
79.6424 1.510
79.6727 1.615
79.7029 1.406
79.7332 1.667
79.7635 1.510
79.7938 1.250
79.8240 1.875
79.8543 1.875
79.8846 1.615
79.9149 1.719
79.9452 0.937
79.9754 1.667
80.0057 1.198
80.0360 1.510
80.0663 1.354
80.0966 1.302
80.1268 1.667
80.1571 1.510
80.1874 1.406
80.2177 1.667
80.2479 1.719
80.2782 1.771
80.3085 1.562
80.3388 1.667
80.3691 1.875
80.3993 1.250
80.4296 1.979
80.4599 1.562
80.4902 1.354
80.5205 1.927
80.5507 1.458
80.5810 1.562
80.6113 1.771
80.6416 1.667
80.6718 1.875
80.7021 1.354
80.7324 1.667
80.7627 1.667
80.7930 1.615
80.8232 2.187
80.8535 1.667
80.8838 1.667
80.9141 1.615
80.9444 1.823
80.9746 1.615
81.0049 1.615
81.0352 1.875
81.0655 2.083
81.0957 1.667
81.1260 2.552
81.1563 2.448
81.1866 2.083
81.2169 2.500
81.2471 2.656
81.2774 2.240
81.3077 2.656
81.3380 2.187
81.3683 2.240
81.3985 2.604
81.4288 2.083
81.4591 1.875
81.4894 1.823
81.5196 1.927
81.5499 2.396
81.5802 2.135
81.6105 2.344
81.6408 2.135
81.6710 1.927
81.7013 1.667
81.7316 1.927
81.7619 2.135
81.7922 1.771
81.8224 1.458
81.8527 1.927
81.8830 1.771
81.9133 1.458
81.9436 1.354
81.9738 1.510
82.0041 1.458
82.0344 1.771
82.0647 1.458
82.0949 1.354
82.1252 1.302
82.1555 1.250
82.1858 1.719
82.2161 1.406
82.2463 2.031
82.2766 1.875
82.3069 1.875
82.3372 1.198
82.3675 1.979
82.3977 1.615
82.4280 1.250
82.4583 1.667
82.4886 1.406
82.5188 1.771
82.5491 1.615
82.5794 1.250
82.6097 1.719
82.6400 1.615
82.6702 0.781
82.7005 1.458
82.7308 1.250
82.7611 1.667
82.7914 1.198
82.8216 1.615
82.8519 1.354
82.8822 1.198
82.9125 1.406
82.9427 1.510
82.9730 1.146
83.0033 1.667
83.0336 1.042
83.0639 1.719
83.0941 1.042
83.1244 1.354
83.1547 1.198
83.1850 1.615
83.2153 2.083
83.2455 1.094
83.2758 1.354
83.3061 1.250
83.3364 1.719
83.3666 1.302
83.3969 1.562
83.4272 1.667
83.4575 0.990
83.4878 1.250
83.5180 1.198
83.5483 1.615
83.5786 1.146
83.6089 1.615
83.6392 1.302
83.6694 1.302
83.6997 1.615
83.7300 1.771
83.7603 1.302
83.7905 0.990
83.8208 1.927
83.8511 1.198
83.8814 1.146
83.9117 1.510
83.9419 1.458
83.9722 0.885
84.0025 1.458
84.0328 1.510
84.0631 2.031
84.0933 1.615
84.1236 1.719
84.1539 1.250
84.1842 1.719
84.2144 1.823
84.2447 0.781
84.2750 1.094
84.3053 1.198
84.3356 1.510
84.3658 1.667
84.3961 1.615
84.4264 2.031
84.4567 1.615
84.4870 1.146
84.5172 1.094
84.5475 1.198
84.5778 1.354
84.6081 1.562
84.6383 1.198
84.6686 1.510
84.6989 1.198
84.7292 1.458
84.7595 1.562
84.7897 0.990
84.8200 0.833
84.8503 1.771
84.8806 1.302
84.9109 1.406
84.9411 1.979
84.9714 2.135
85.0017 1.406
85.0320 1.927
85.0623 1.562
85.0925 0.990
85.1228 0.990
85.1531 1.615
85.1834 1.823
85.2136 1.562
85.2439 1.198
85.2742 1.146
85.3045 1.510
85.3348 1.198
85.3650 1.562
85.3953 1.250
85.4256 1.406
85.4559 1.927
85.4862 1.250
85.5164 1.510
85.5467 1.354
85.5770 1.198
85.6073 1.042
85.6375 1.198
85.6678 1.510
85.6981 1.510
85.7284 0.885
85.7587 1.458
85.7889 1.250
85.8192 1.250
85.8495 1.667
85.8798 1.667
85.9101 1.615
85.9403 1.250
85.9706 1.875
86.0009 1.875
86.0312 1.562
86.0614 1.354
86.0917 1.615
86.1220 1.250
86.1523 1.198
86.1826 1.615
86.2128 1.198
86.2431 1.510
86.2734 1.562
86.3037 1.250
86.3340 1.458
86.3642 1.250
86.3945 1.250
86.4248 1.510
86.4551 1.562
86.4853 1.302
86.5156 1.302
86.5459 1.250
86.5762 1.719
86.6065 1.667
86.6367 1.406
86.6670 1.198
86.6973 1.354
86.7276 1.667
86.7579 1.250
86.7881 1.146
86.8184 1.198
86.8487 1.354
86.8790 1.823
86.9092 1.458
86.9395 1.823
86.9698 1.354
87.0001 1.250
87.0304 1.927
87.0606 1.250
87.0909 1.615
87.1212 1.302
87.1515 1.771
87.1818 1.667
87.2120 1.198
87.2423 1.198
87.2726 1.198
87.3029 1.406
87.3331 1.406
87.3634 1.771
87.3937 1.667
87.4240 1.458
87.4543 1.667
87.4845 1.406
87.5148 1.406
87.5451 1.250
87.5754 1.198
87.6057 1.198
87.6359 1.719
87.6662 1.510
87.6965 1.094
87.7268 2.240
87.7571 1.771
87.7873 1.302
87.8176 1.406
87.8479 1.615
87.8782 1.406
87.9084 1.562
87.9387 1.354
87.9690 1.406
87.9993 1.823
88.0296 1.667
88.0598 1.354
88.0901 2.135
88.1204 1.823
88.1507 1.667
88.1810 1.979
88.2112 1.667
88.2415 1.771
88.2718 1.823
88.3021 1.302
88.3323 1.771
88.3626 1.823
88.3929 1.615
88.4232 1.979
88.4535 1.510
88.4837 1.927
88.5140 1.719
88.5443 2.344
88.5746 1.667
88.6049 2.135
88.6351 2.083
88.6654 2.396
88.6957 1.719
88.7260 2.031
88.7562 1.719
88.7865 2.031
88.8168 2.708
88.8471 2.292
88.8774 2.083
88.9076 2.656
88.9379 2.135
88.9682 1.927
88.9985 1.979
89.0288 2.500
89.0590 3.073
89.0893 3.021
89.1196 3.646
89.1499 3.542
89.1801 3.542
89.2104 2.812
89.2407 3.073
89.2710 3.177
89.3013 3.750
89.3315 3.802
89.3618 4.531
89.3921 5.156
89.4224 3.906
89.4527 3.802
89.4829 4.740
89.5132 4.167
89.5435 4.167
89.5738 4.010
89.6040 3.646
89.6343 4.323
89.6646 3.646
89.6949 4.635
89.7252 3.594
89.7554 3.698
89.7857 3.854
89.8160 4.062
89.8463 3.125
89.8766 2.812
89.9068 2.865
89.9371 2.760
89.9674 2.708
89.9977 2.604
90.0279 2.448
90.0582 2.448
90.0885 1.823
90.1188 2.708
90.1491 2.083
90.1793 2.292
90.2096 2.187
90.2399 2.500
90.2702 1.771
90.3005 1.615
90.3307 1.823
90.3610 2.135
90.3913 2.240
90.4216 1.667
90.4518 2.240
90.4821 1.823
90.5124 2.240
90.5427 1.979
90.5730 1.510
90.6032 1.875
90.6335 1.823
90.6638 1.667
90.6941 1.875
90.7244 1.667
90.7546 1.667
90.7849 1.875
90.8152 1.823
90.8455 1.875
90.8758 1.927
90.9060 1.198
90.9363 1.719
90.9666 1.823
90.9969 1.719
91.0271 1.771
91.0574 1.667
91.0877 1.823
91.1180 1.406
91.1483 1.562
91.1785 1.510
91.2088 1.615
91.2391 1.615
91.2694 1.927
91.2997 1.510
91.3299 1.927
91.3602 2.292
91.3905 1.979
91.4208 1.719
91.4510 1.771
91.4813 1.562
91.5116 1.875
91.5419 1.875
91.5722 1.458
91.6024 1.094
91.6327 1.406
91.6630 1.979
91.6933 1.458
91.7236 1.667
91.7538 1.719
91.7841 1.250
91.8144 1.406
91.8447 1.510
91.8749 2.031
91.9052 1.354
91.9355 1.979
91.9658 1.979
91.9961 2.135
92.0263 1.510
92.0566 1.667
92.0869 1.719
92.1172 1.875
92.1475 1.823
92.1777 1.823
92.2080 1.875
92.2383 2.187
92.2686 2.031
92.2988 2.083
92.3291 2.292
92.3594 2.552
92.3897 1.771
92.4200 2.187
92.4502 3.021
92.4805 1.875
92.5108 2.031
92.5411 2.396
92.5714 2.917
92.6016 2.344
92.6319 1.979
92.6622 2.656
92.6925 1.927
92.7227 3.333
92.7530 2.292
92.7833 2.604
92.8136 2.292
92.8439 3.125
92.8741 2.708
92.9044 2.917
92.9347 1.927
92.9650 2.240
92.9953 2.083
93.0255 1.719
93.0558 1.719
93.0861 2.031
93.1164 1.927
93.1466 1.719
93.1769 2.292
93.2072 2.240
93.2375 2.396
93.2678 2.292
93.2980 1.719
93.3283 1.510
93.3586 2.187
93.3889 1.771
93.4192 1.719
93.4494 1.458
93.4797 1.875
93.5100 1.719
93.5403 1.667
93.5706 2.083
93.6008 1.458
93.6311 2.135
93.6614 2.083
93.6917 1.771
93.7219 1.406
93.7522 1.979
93.7825 1.510
93.8128 2.292
93.8431 1.875
93.8733 1.927
93.9036 1.979
93.9339 1.823
93.9642 1.823
93.9945 1.354
94.0247 1.927
94.0550 2.083
94.0853 1.927
94.1156 2.083
94.1458 2.031
94.1761 2.031
94.2064 1.927
94.2367 2.135
94.2670 2.083
94.2972 2.083
94.3275 2.083
94.3578 2.396
94.3881 2.135
94.4184 2.240
94.4486 2.448
94.4789 2.760
94.5092 2.708
94.5395 2.135
94.5697 2.552
94.6000 2.240
94.6303 2.656
94.6606 2.552
94.6909 2.812
94.7211 3.073
94.7514 3.281
94.7817 2.865
94.8120 2.240
94.8423 2.656
94.8725 3.177
94.9028 3.594
94.9331 3.177
94.9634 3.125
94.9936 2.708
95.0239 3.958
95.0542 3.594
95.0845 4.271
95.1148 4.792
95.1450 4.219
95.1753 3.333
95.2056 3.802
95.2359 4.062
95.2662 3.906
95.2964 3.437
95.3267 3.177
95.3570 2.865
95.3873 3.958
95.4175 3.594
95.4478 3.594
95.4781 3.594
95.5084 3.750
95.5387 3.333
95.5689 3.385
95.5992 4.167
95.6295 2.969
95.6598 3.385
95.6901 3.281
95.7203 2.135
95.7506 3.385
95.7809 2.708
95.8112 2.448
95.8414 2.552
95.8717 2.448
95.9020 2.344
95.9323 2.396
95.9626 2.500
95.9928 2.760
96.0231 2.240
96.0534 2.396
96.0837 2.240
96.1140 2.344
96.1442 2.240
96.1745 2.240
96.2048 1.562
96.2351 1.771
96.2653 2.031
96.2956 1.719
96.3259 1.615
96.3562 2.240
96.3865 1.771
96.4167 1.927
96.4470 1.771
96.4773 1.719
96.5076 1.354
96.5379 1.979
96.5681 1.823
96.5984 2.083
96.6287 1.771
96.6590 2.240
96.6893 1.875
96.7195 2.500
96.7498 1.615
96.7801 1.458
96.8104 2.031
96.8406 1.771
96.8709 2.083
96.9012 1.719
96.9315 2.135
96.9618 1.094
96.9920 1.615
97.0223 2.031
97.0526 1.979
97.0829 1.458
97.1132 1.562
97.1434 1.771
97.1737 1.302
97.2040 1.667
97.2343 1.458
97.2645 1.458
97.2948 1.927
97.3251 2.240
97.3554 1.562
97.3857 1.719
97.4159 1.198
97.4462 2.135
97.4765 1.719
97.5068 1.667
97.5371 2.396
97.5673 1.719
97.5976 1.719
97.6279 1.927
97.6582 1.979
97.6884 2.344
97.7187 1.771
97.7490 2.240
97.7793 2.396
97.8096 1.510
97.8398 1.615
97.8701 2.135
97.9004 2.187
97.9307 1.875
97.9610 2.031
97.9912 2.344
98.0215 1.302
98.0518 2.083
98.0821 2.396
98.1123 2.240
98.1426 2.187
98.1729 2.135
98.2032 3.177
98.2335 2.031
98.2637 2.552
98.2940 2.448
98.3243 2.812
98.3546 2.500
98.3849 2.865
98.4151 2.604
98.4454 3.229
98.4757 3.437
98.5060 2.344
98.5362 3.021
98.5665 2.240
98.5968 2.448
98.6271 2.812
98.6574 2.604
98.6876 2.708
98.7179 2.552
98.7482 3.125
98.7785 2.708
98.8088 2.552
98.8390 2.552
98.8693 1.875
98.8996 2.240
98.9299 2.760
98.9601 2.448
98.9904 1.562
99.0207 2.500
99.0510 2.344
99.0813 2.344
99.1115 1.406
99.1418 2.604
99.1721 2.344
99.2024 1.667
99.2327 1.771
99.2629 1.198
99.2932 2.448
99.3235 1.771
99.3538 1.875
99.3841 1.823
99.4143 1.875
99.4446 1.667
99.4749 1.458
99.5052 2.292
99.5354 1.823
99.5657 1.927
99.5960 1.875
99.6263 1.667
99.6566 2.031
99.6868 1.771
99.7171 1.719
99.7474 2.240
99.7777 2.031
99.8080 1.302
99.8382 1.562
99.8685 2.292
99.8988 1.823
99.9291 1.615
99.9593 1.250
99.9896 1.771
100.0199 1.823
100.0502 1.875
100.0805 1.979
100.1107 1.198
100.1410 1.875
100.1713 1.094
100.2016 1.510
100.2319 1.406
100.2621 1.667
100.2924 1.510
100.3227 1.146
100.3530 1.615
100.3832 1.927
100.4135 0.990
100.4438 1.302
100.4741 1.719
100.5044 1.875
100.5346 1.562
100.5649 1.562
100.5952 1.458
100.6255 1.823
100.6558 1.771
100.6860 1.823
100.7163 2.135
100.7466 1.094
100.7769 1.562
100.8071 1.667
100.8374 1.302
100.8677 1.667
100.8980 1.406
100.9283 1.667
100.9585 1.562
100.9888 2.083
101.0191 1.927
101.0494 1.562
101.0797 1.979
101.1099 1.562
101.1402 1.979
101.1705 1.615
101.2008 2.187
101.2310 1.094
101.2613 1.875
101.2916 1.510
101.3219 1.562
101.3522 1.458
101.3824 2.240
101.4127 1.562
101.4430 1.615
101.4733 2.292
101.5036 1.823
101.5338 1.875
101.5641 1.667
101.5944 1.615
101.6247 1.875
101.6549 1.927
101.6852 1.615
101.7155 1.094
101.7458 1.510
101.7761 1.458
101.8063 1.719
101.8366 1.875
101.8669 1.875
101.8972 2.396
101.9275 1.823
101.9577 1.771
101.9880 1.719
102.0183 2.083
102.0486 2.031
102.0788 2.344
102.1091 1.719
102.1394 2.187
102.1697 1.719
102.2000 2.552
102.2302 1.823
102.2605 2.031
102.2908 1.562
102.3211 2.396
102.3514 1.823
102.3816 2.083
102.4119 2.083
102.4422 2.448
102.4725 1.927
102.5028 2.344
102.5330 2.656
102.5633 2.135
102.5936 2.083
102.6239 2.500
102.6541 2.292
102.6844 2.135
102.7147 2.344
102.7450 2.865
102.7753 2.396
102.8055 1.927
102.8358 2.552
102.8661 2.448
102.8964 2.396
102.9267 1.979
102.9569 2.969
102.9872 2.396
103.0175 2.396
103.0478 2.448
103.0780 2.396
103.1083 2.448
103.1386 2.344
103.1689 2.760
103.1992 2.448
103.2294 2.552
103.2597 2.604
103.2900 2.760
103.3203 2.552
103.3506 2.031
103.3808 2.865
103.4111 2.552
103.4414 2.135
103.4717 2.396
103.5019 1.927
103.5322 2.448
103.5625 2.552
103.5928 2.187
103.6231 2.760
103.6533 3.125
103.6836 2.865
103.7139 3.385
103.7442 2.708
103.7745 2.865
103.8047 2.552
103.8350 3.073
103.8653 3.229
103.8956 4.010
103.9258 3.490
103.9561 3.594
103.9864 3.646
104.0167 4.167
104.0470 3.750
104.0772 3.229
104.1075 4.323
104.1378 3.594
104.1681 3.542
104.1984 4.271
104.2286 3.750
104.2589 3.594
104.2892 2.656
104.3195 2.448
104.3497 2.865
104.3800 3.542
104.4103 2.344
104.4406 3.073
104.4709 2.187
104.5011 2.760
104.5314 2.500
104.5617 2.500
104.5920 2.969
104.6223 2.396
104.6525 3.073
104.6828 2.083
104.7131 2.292
104.7434 2.500
104.7736 1.875
104.8039 2.604
104.8342 2.500
104.8645 2.292
104.8948 1.719
104.9250 1.667
104.9553 2.448
104.9856 2.135
105.0159 1.719
105.0462 1.562
105.0764 2.187
105.1067 1.927
105.1370 2.292
105.1673 2.187
105.1975 1.406
105.2278 2.135
105.2581 1.562
105.2884 2.135
105.3187 2.240
105.3489 2.500
105.3792 1.406
105.4095 1.510
105.4398 2.083
105.4701 1.771
105.5003 1.406
105.5306 1.771
105.5609 2.396
105.5912 1.927
105.6215 1.406
105.6517 1.615
105.6820 1.510
105.7123 1.823
105.7426 1.458
105.7728 1.354
105.8031 1.823
105.8334 2.031
105.8637 2.187
105.8940 1.458
105.9242 1.510
105.9545 1.250
105.9848 1.615
106.0151 1.250
106.0454 1.615
106.0756 1.562
106.1059 1.458
106.1362 2.187
106.1665 1.354
106.1967 1.458
106.2270 1.406
106.2573 1.979
106.2876 1.875
106.3179 2.135
106.3481 1.771
106.3784 1.406
106.4087 1.667
106.4390 1.406
106.4693 1.146
106.4995 1.354
106.5298 1.458
106.5601 1.979
106.5904 1.615
106.6206 1.615
106.6509 2.448
106.6812 1.615
106.7115 1.458
106.7418 2.083
106.7720 2.187
106.8023 1.719
106.8326 1.562
106.8629 2.083
106.8932 2.083
106.9234 1.354
106.9537 1.979
106.9840 1.823
107.0143 1.458
107.0445 1.927
107.0748 1.615
107.1051 1.458
107.1354 1.406
107.1657 2.083
107.1959 1.667
107.2262 1.510
107.2565 1.875
107.2868 1.667
107.3171 1.875
107.3473 1.302
107.3776 2.240
107.4079 1.615
107.4382 1.667
107.4684 1.458
107.4987 1.615
107.5290 1.823
107.5593 1.510
107.5896 2.187
107.6198 2.396
107.6501 2.292
107.6804 2.604
107.7107 1.667
107.7410 2.083
107.7712 1.458
107.8015 1.667
107.8318 1.875
107.8621 2.083
107.8923 1.510
107.9226 1.562
107.9529 1.250
107.9832 1.562
108.0135 2.083
108.0437 1.042
108.0740 1.823
108.1043 1.823
108.1346 1.667
108.1649 1.667
108.1951 1.510
108.2254 1.250
108.2557 1.302
108.2860 1.875
108.3163 1.927
108.3465 1.458
108.3768 1.510
108.4071 1.875
108.4374 1.615
108.4676 1.510
108.4979 1.667
108.5282 1.458
108.5585 1.198
108.5888 2.031
108.6190 1.510
108.6493 1.615
108.6796 1.562
108.7099 1.667
108.7402 2.083
108.7704 2.031
108.8007 1.562
108.8310 1.719
108.8613 1.510
108.8915 1.146
108.9218 1.979
108.9521 1.354
108.9824 1.823
109.0127 2.031
109.0429 1.406
109.0732 1.562
109.1035 2.240
109.1338 1.562
109.1641 1.615
109.1943 2.187
109.2246 2.083
109.2549 1.042
109.2852 2.031
109.3154 1.250
109.3457 1.562
109.3760 1.615
109.4063 2.292
109.4366 1.510
109.4668 1.458
109.4971 1.562
109.5274 1.771
109.5577 1.875
109.5880 1.771
109.6182 2.135
109.6485 2.500
109.6788 1.510
109.7091 1.615
109.7393 1.823
109.7696 1.823
109.7999 2.187
109.8302 1.719
109.8605 2.240
109.8907 1.823
109.9210 2.604
109.9513 2.344
109.9816 2.396
110.0119 2.292
110.0421 2.552
110.0724 2.031
110.1027 2.083
110.1330 2.708
110.1632 2.552
110.1935 2.292
110.2238 1.979
110.2541 2.604
110.2844 2.656
110.3146 2.344
110.3449 2.031
110.3752 2.760
110.4055 2.292
110.4358 2.240
110.4660 2.760
110.4963 2.083
110.5266 1.458
110.5569 2.396
110.5871 1.875
110.6174 1.875
110.6477 2.448
110.6780 1.927
110.7083 2.187
110.7385 2.656
110.7688 1.719
110.7991 2.344
110.8294 1.927
110.8597 1.875
110.8899 2.083
110.9202 2.240
110.9505 1.562
110.9808 1.875
111.0110 1.875
111.0413 1.302
111.0716 1.458
111.1019 1.771
111.1322 2.031
111.1624 2.448
111.1927 1.875
111.2230 2.135
111.2533 2.083
111.2836 2.031
111.3138 1.615
111.3441 1.719
111.3744 2.083
111.4047 1.615
111.4350 1.667
111.4652 2.083
111.4955 1.615
111.5258 1.771
111.5561 1.667
111.5863 2.500
111.6166 1.458
111.6469 1.979
111.6772 2.187
111.7075 1.823
111.7377 1.302
111.7680 1.562
111.7983 1.510
111.8286 1.667
111.8589 1.510
111.8891 1.562
111.9194 2.187
111.9497 1.667
111.9800 1.458
112.0102 1.875
112.0405 1.979
112.0708 1.667
112.1011 1.510
112.1314 1.094
112.1616 1.562
112.1919 0.885
112.2222 1.562
112.2525 1.823
112.2828 1.198
112.3130 1.562
112.3433 2.031
112.3736 1.250
112.4039 1.771
112.4341 1.823
112.4644 1.510
112.4947 1.667
112.5250 1.302
112.5553 1.354
112.5855 2.031
112.6158 1.615
112.6461 1.979
112.6764 1.927
112.7067 1.823
112.7369 1.510
112.7672 1.823
112.7975 1.198
112.8278 1.146
112.8580 1.875
112.8883 1.510
112.9186 1.354
112.9489 1.042
112.9792 1.250
113.0094 1.354
113.0397 0.990
113.0700 1.250
113.1003 2.187
113.1306 1.302
113.1608 1.927
113.1911 1.667
113.2214 1.615
113.2517 1.927
113.2819 1.302
113.3122 1.510
113.3425 0.937
113.3728 1.979
113.4031 1.771
113.4333 1.667
113.4636 1.302
113.4939 1.510
113.5242 1.562
113.5545 1.667
113.5847 1.250
113.6150 1.875
113.6453 1.667
113.6756 1.562
113.7058 2.031
113.7361 1.406
113.7664 1.302
113.7967 1.823
113.8270 1.562
113.8572 1.771
113.8875 1.927
113.9178 1.771
113.9481 1.771
113.9784 1.042
114.0086 1.771
114.0389 1.562
114.0692 1.771
114.0995 1.771
114.1298 1.146
114.1600 1.771
114.1903 1.510
114.2206 1.979
114.2509 1.094
114.2811 1.510
114.3114 1.615
114.3417 1.198
114.3720 1.823
114.4023 1.771
114.4325 1.562
114.4628 1.823
114.4931 2.031
114.5234 1.354
114.5537 1.823
114.5839 1.823
114.6142 2.031
114.6445 1.562
114.6748 1.354
114.7050 1.510
114.7353 1.615
114.7656 1.771
114.7959 2.187
114.8262 1.823
114.8564 1.562
114.8867 1.719
114.9170 1.719
114.9473 1.927
114.9776 1.406
115.0078 1.875
115.0381 1.667
115.0684 1.719
115.0987 2.500
115.1289 1.927
115.1592 1.927
115.1895 1.771
115.2198 1.823
115.2501 2.865
115.2803 2.448
115.3106 2.083
115.3409 2.344
115.3712 2.083
115.4015 2.344
115.4317 2.240
115.4620 2.240
115.4923 2.344
115.5226 3.229
115.5528 2.604
115.5831 1.875
115.6134 2.969
115.6437 2.552
115.6740 2.708
115.7042 2.656
115.7345 2.917
115.7648 2.760
115.7951 2.604
115.8254 3.281
115.8556 3.854
115.8859 3.021
115.9162 3.333
115.9465 3.281
115.9767 3.594
116.0070 3.281
116.0373 2.708
116.0676 3.594
116.0979 3.490
116.1281 3.542
116.1584 3.698
116.1887 3.802
116.2190 3.229
116.2493 3.490
116.2795 3.177
116.3098 3.594
116.3401 2.917
116.3704 4.271
116.4006 4.115
116.4309 3.073
116.4612 3.385
116.4915 3.646
116.5218 3.958
116.5520 3.177
116.5823 3.177
116.6126 2.292
116.6429 3.542
116.6732 3.542
116.7034 3.021
116.7337 2.604
116.7640 2.917
116.7943 2.187
116.8245 3.281
116.8548 2.292
116.8851 2.292
116.9154 2.396
116.9457 2.604
116.9759 2.135
117.0062 2.448
117.0365 2.396
117.0668 2.448
117.0971 1.979
117.1273 2.292
117.1576 2.187
117.1879 2.187
117.2182 1.875
117.2485 3.177
117.2787 2.240
117.3090 2.240
117.3393 1.823
117.3696 1.354
117.3998 1.927
117.4301 2.031
117.4604 1.927
117.4907 2.031
117.5210 2.344
117.5512 1.875
117.5815 2.083
117.6118 1.667
117.6421 2.031
117.6724 1.250
117.7026 1.562
117.7329 1.562
117.7632 1.615
117.7935 1.719
117.8237 1.562
117.8540 1.667
117.8843 1.927
117.9146 1.927
117.9449 1.771
117.9751 1.094
118.0054 1.875
118.0357 1.667
118.0660 1.875
118.0963 1.823
118.1265 1.719
118.1568 1.302
118.1871 1.615
118.2174 1.719
118.2476 1.823
118.2779 1.771
118.3082 1.823
118.3385 1.146
118.3688 2.083
118.3990 1.458
118.4293 2.083
118.4596 1.719
118.4899 1.458
118.5202 1.302
118.5504 1.510
118.5807 1.927
118.6110 1.302
118.6413 1.667
118.6715 2.240
118.7018 1.875
118.7321 1.719
118.7624 1.510
118.7927 1.458
118.8229 1.875
118.8532 1.823
118.8835 1.719
118.9138 1.667
118.9441 2.187
118.9743 2.344
119.0046 1.302
119.0349 1.615
119.0652 2.083
119.0954 1.406
119.1257 1.615
119.1560 1.354
119.1863 1.354
119.2166 1.667
119.2468 1.302
119.2771 1.719
119.3074 2.083
119.3377 1.875
119.3680 1.458
119.3982 1.667
119.4285 1.719
119.4588 1.146
119.4891 1.458
119.5193 1.979
119.5496 1.979
119.5799 1.354
119.6102 1.667
119.6405 1.615
119.6707 1.354
119.7010 1.562
119.7313 1.562
119.7616 1.562
119.7919 1.562
119.8221 1.042
119.8524 1.771
119.8827 2.083
119.9130 1.823
119.9433 1.615
119.9735 1.927
120.0038 1.979
