'Id: "" Comment: "" Operator: "Lab Manager" Anode: "Cu" Scantype: "Locked Coupled" TimePerStep: "19.2" X: "9999" Y: "9999" Z: "9999" 
10.0015 3.073
10.0318 4.271
10.0620 4.740
10.0923 3.281
10.1226 4.167
10.1529 3.646
10.1832 3.490
10.2134 4.010
10.2437 4.167
10.2740 3.646
10.3043 3.333
10.3346 3.542
10.3648 3.646
10.3951 3.854
10.4254 3.281
10.4557 4.010
10.4859 3.906
10.5162 3.437
10.5465 3.802
10.5768 3.958
10.6071 3.385
10.6373 3.750
10.6676 3.802
10.6979 3.385
10.7282 3.594
10.7585 4.115
10.7887 4.323
10.8190 3.385
10.8493 3.750
10.8796 3.646
10.9098 3.958
10.9401 3.854
10.9704 3.490
11.0007 3.646
11.0310 2.760
11.0612 3.958
11.0915 3.802
11.1218 4.479
11.1521 3.542
11.1824 3.021
11.2126 3.385
11.2429 4.375
11.2732 3.125
11.3035 3.854
11.3337 2.656
11.3640 4.323
11.3943 3.385
11.4246 3.073
11.4549 4.010
11.4851 3.646
11.5154 3.333
11.5457 2.917
11.5760 3.437
11.6063 4.167
11.6365 3.802
11.6668 2.708
11.6971 2.969
11.7274 3.281
11.7577 3.177
11.7879 3.437
11.8182 2.917
11.8485 3.073
11.8788 3.542
11.9090 3.125
11.9393 4.062
11.9696 3.750
11.9999 3.385
12.0302 3.125
12.0604 3.229
12.0907 2.656
12.1210 3.021
12.1513 3.021
12.1816 3.750
12.2118 3.385
12.2421 3.385
12.2724 3.073
12.3027 2.292
12.3329 2.969
12.3632 3.177
12.3935 3.177
12.4238 3.333
12.4541 3.854
12.4843 4.115
12.5146 3.854
12.5449 3.542
12.5752 2.812
12.6055 2.708
12.6357 3.333
12.6660 2.865
12.6963 3.854
12.7266 3.333
12.7568 2.812
12.7871 3.333
12.8174 2.865
12.8477 3.021
12.8780 3.125
12.9082 2.760
12.9385 2.760
12.9688 3.177
12.9991 3.385
13.0294 3.542
13.0596 3.125
13.0899 3.385
13.1202 2.396
13.1505 2.760
13.1807 2.760
13.2110 2.865
13.2413 3.125
13.2716 3.594
13.3019 3.229
13.3321 2.969
13.3624 2.812
13.3927 2.969
13.4230 3.437
13.4533 2.396
13.4835 2.812
13.5138 2.865
13.5441 3.333
13.5744 3.542
13.6046 3.698
13.6349 2.760
13.6652 2.969
13.6955 2.604
13.7258 2.969
13.7560 2.708
13.7863 2.500
13.8166 3.073
13.8469 3.177
13.8772 3.437
13.9074 3.073
13.9377 3.490
13.9680 3.333
13.9983 2.708
14.0285 4.062
14.0588 3.229
14.0891 2.552
14.1194 2.760
14.1497 2.135
14.1799 2.448
14.2102 2.292
14.2405 3.125
14.2708 3.021
14.3011 3.542
14.3313 2.708
14.3616 3.594
14.3919 2.969
14.4222 3.333
14.4524 1.927
14.4827 2.917
14.5130 2.760
14.5433 3.802
14.5736 3.490
14.6038 3.021
14.6341 3.021
14.6644 2.969
14.6947 3.021
14.7250 3.385
14.7552 3.490
14.7855 3.021
14.8158 2.865
14.8461 2.917
14.8764 3.490
14.9066 2.604
14.9369 3.021
14.9672 2.500
14.9975 2.396
15.0277 3.281
15.0580 2.604
15.0883 2.812
15.1186 2.708
15.1489 3.125
15.1791 3.281
15.2094 2.656
15.2397 3.229
15.2700 1.979
15.3003 3.021
15.3305 2.708
15.3608 2.865
15.3911 2.760
15.4214 2.500
15.4516 2.656
15.4819 3.281
15.5122 4.115
15.5425 2.760
15.5728 1.927
15.6030 2.760
15.6333 3.177
15.6636 3.698
15.6939 2.917
15.7242 2.552
15.7544 2.708
15.7847 2.917
15.8150 3.802
15.8453 3.021
15.8755 3.698
15.9058 2.812
15.9361 2.344
15.9664 2.760
15.9967 2.812
16.0269 3.854
16.0572 3.021
16.0875 2.552
16.1178 2.760
16.1481 2.865
16.1783 3.021
16.2086 2.656
16.2389 3.333
16.2692 3.021
16.2994 2.865
16.3297 2.760
16.3600 3.125
16.3903 2.240
16.4206 3.073
16.4508 3.490
16.4811 2.760
16.5114 2.240
16.5417 2.083
16.5720 2.917
16.6022 2.812
16.6325 3.229
16.6628 2.812
16.6931 3.490
16.7233 2.656
16.7536 3.021
16.7839 3.125
16.8142 2.760
16.8445 2.292
16.8747 2.917
16.9050 2.604
16.9353 2.865
16.9656 3.490
16.9959 3.490
17.0261 3.177
17.0564 2.969
17.0867 3.021
17.1170 3.542
17.1472 3.281
17.1775 2.552
17.2078 3.229
17.2381 2.656
17.2684 2.812
17.2986 3.802
17.3289 2.917
17.3592 2.448
17.3895 2.240
17.4198 2.917
17.4500 2.240
17.4803 3.021
17.5106 2.396
17.5409 3.125
17.5712 2.760
17.6014 2.187
17.6317 2.865
17.6620 2.187
17.6923 2.500
17.7225 3.177
17.7528 2.760
17.7831 2.604
17.8134 2.396
17.8437 2.865
17.8739 2.656
17.9042 2.969
17.9345 2.396
17.9648 3.698
17.9951 2.917
18.0253 2.292
18.0556 2.865
18.0859 2.448
18.1162 2.708
18.1464 2.812
18.1767 3.073
18.2070 3.177
18.2373 3.073
18.2676 2.552
18.2978 2.448
18.3281 2.969
18.3584 2.552
18.3887 3.177
18.4190 2.604
18.4492 2.292
18.4795 2.448
18.5098 2.656
18.5401 2.187
18.5703 2.708
18.6006 3.125
18.6309 2.917
18.6612 2.552
18.6915 2.500
18.7217 2.708
18.7520 2.135
18.7823 2.917
18.8126 2.240
18.8429 2.292
18.8731 2.604
18.9034 2.656
18.9337 2.396
18.9640 3.281
18.9942 3.125
19.0245 2.344
19.0548 2.292
19.0851 2.552
19.1154 3.542
19.1456 2.448
19.1759 2.500
19.2062 2.396
19.2365 2.344
19.2668 2.969
19.2970 2.552
19.3273 3.281
19.3576 2.865
19.3879 2.656
19.4181 2.552
19.4484 2.240
19.4787 2.708
19.5090 2.865
19.5393 3.177
19.5695 2.292
19.5998 2.865
19.6301 2.292
19.6604 2.917
19.6907 3.281
19.7209 2.708
19.7512 2.917
19.7815 2.500
19.8118 2.917
19.8420 2.135
19.8723 2.448
19.9026 2.969
19.9329 2.292
19.9632 2.500
19.9934 2.448
20.0237 2.604
20.0540 2.396
20.0843 2.656
20.1146 2.135
20.1448 2.396
20.1751 2.552
20.2054 3.021
20.2357 2.604
20.2659 2.396
20.2962 2.500
20.3265 2.969
20.3568 2.812
20.3871 2.812
20.4173 2.031
20.4476 2.812
20.4779 2.812
20.5082 2.448
20.5385 2.812
20.5687 2.552
20.5990 2.812
20.6293 1.823
20.6596 2.656
20.6899 3.021
20.7201 2.135
20.7504 2.656
20.7807 2.708
20.8110 2.708
20.8412 2.292
20.8715 1.667
20.9018 2.656
20.9321 2.760
20.9624 3.437
20.9926 2.969
21.0229 2.083
21.0532 2.344
21.0835 2.083
21.1138 2.604
21.1440 3.073
21.1743 2.656
21.2046 2.760
21.2349 1.927
21.2651 2.969
21.2954 2.865
21.3257 2.604
21.3560 2.187
21.3863 2.344
21.4165 2.708
21.4468 3.021
21.4771 2.708
21.5074 2.656
21.5377 2.760
21.5679 2.083
21.5982 2.448
21.6285 2.656
21.6588 2.656
21.6890 2.187
21.7193 2.708
21.7496 2.187
21.7799 2.865
21.8102 2.344
21.8404 2.292
21.8707 3.125
21.9010 2.865
21.9313 3.125
21.9616 2.396
21.9918 2.917
22.0221 2.031
22.0524 2.448
22.0827 2.292
22.1129 1.875
22.1432 2.656
22.1735 2.969
22.2038 2.344
22.2341 2.812
22.2643 2.031
22.2946 1.771
22.3249 2.448
22.3552 2.396
22.3855 2.083
22.4157 2.604
22.4460 1.615
22.4763 1.927
22.5066 3.177
22.5368 2.604
22.5671 2.135
22.5974 1.771
22.6277 2.292
22.6580 2.187
22.6882 2.812
22.7185 2.760
22.7488 2.448
22.7791 2.135
22.8094 2.396
22.8396 1.927
22.8699 2.344
22.9002 2.604
22.9305 2.500
22.9607 2.917
22.9910 2.552
23.0213 2.292
23.0516 2.031
23.0819 2.760
23.1121 2.344
23.1424 2.292
23.1727 2.448
23.2030 2.292
23.2333 2.083
23.2635 2.604
23.2938 2.031
23.3241 2.708
23.3544 2.083
23.3846 2.344
23.4149 2.552
23.4452 3.229
23.4755 3.073
23.5058 2.656
23.5360 2.500
23.5663 2.240
23.5966 2.031
23.6269 2.812
23.6572 2.240
23.6874 2.344
23.7177 2.344
23.7480 2.812
23.7783 2.344
23.8086 2.708
23.8388 2.344
23.8691 2.344
23.8994 2.292
23.9297 2.187
23.9599 1.615
23.9902 2.760
24.0205 2.031
24.0508 2.708
24.0811 3.125
24.1113 2.812
24.1416 2.604
24.1719 2.500
24.2022 1.927
24.2325 2.240
24.2627 2.396
24.2930 2.552
24.3233 2.448
24.3536 1.510
24.3838 3.177
24.4141 2.187
24.4444 2.396
24.4747 2.865
24.5050 1.719
24.5352 2.500
24.5655 2.656
24.5958 2.031
24.6261 2.083
24.6564 2.552
24.6866 2.135
24.7169 1.823
24.7472 2.552
24.7775 3.177
24.8077 2.083
24.8380 2.135
24.8683 1.927
24.8986 2.552
24.9289 2.969
24.9591 2.083
24.9894 2.812
25.0197 1.719
25.0500 2.396
25.0803 2.760
25.1105 1.875
25.1408 2.083
25.1711 2.135
25.2014 2.812
25.2316 2.448
25.2619 2.760
25.2922 2.656
25.3225 2.604
25.3528 2.135
25.3830 2.760
25.4133 2.604
25.4436 2.344
25.4739 2.240
25.5042 3.021
25.5344 3.021
25.5647 2.240
25.5950 2.240
25.6253 2.760
25.6555 2.240
25.6858 2.396
25.7161 2.083
25.7464 2.448
25.7767 2.812
25.8069 2.604
25.8372 2.031
25.8675 2.448
25.8978 2.083
25.9281 3.021
25.9583 1.510
25.9886 2.552
26.0189 2.448
26.0492 2.500
26.0794 2.812
26.1097 2.187
26.1400 2.292
26.1703 2.917
26.2006 2.552
26.2308 2.500
26.2611 2.865
26.2914 3.021
26.3217 1.823
26.3520 2.292
26.3822 2.083
26.4125 2.969
26.4428 2.240
26.4731 2.708
26.5034 1.927
26.5336 2.344
26.5639 2.552
26.5942 3.281
26.6245 1.927
26.6547 2.031
26.6850 2.396
26.7153 2.448
26.7456 2.344
26.7759 2.812
26.8061 2.187
26.8364 3.125
26.8667 2.552
26.8970 2.500
26.9273 2.865
26.9575 2.604
26.9878 2.135
27.0181 3.281
27.0484 2.604
27.0786 2.240
27.1089 2.760
27.1392 3.542
27.1695 2.552
27.1998 2.917
27.2300 3.073
27.2603 3.021
27.2906 2.396
27.3209 2.552
27.3512 2.448
27.3814 2.396
27.4117 2.448
27.4420 2.344
27.4723 3.073
27.5025 2.240
27.5328 2.031
27.5631 2.500
27.5934 2.396
27.6237 2.917
27.6539 3.021
27.6842 3.385
27.7145 2.760
27.7448 2.708
27.7751 2.396
27.8053 2.656
27.8356 2.812
27.8659 3.333
27.8962 3.073
27.9264 2.187
27.9567 2.812
27.9870 2.344
28.0173 2.135
28.0476 3.698
28.0778 3.229
28.1081 2.917
28.1384 2.656
28.1687 3.281
28.1990 2.552
28.2292 2.500
28.2595 3.125
28.2898 3.125
28.3201 3.021
28.3503 1.875
28.3806 2.604
28.4109 3.229
28.4412 2.708
28.4715 3.385
28.5017 2.917
28.5320 3.125
28.5623 2.083
28.5926 3.177
28.6229 2.396
28.6531 2.344
28.6834 2.448
28.7137 2.969
28.7440 3.177
28.7742 2.552
28.8045 2.396
28.8348 2.969
28.8651 2.917
28.8954 3.177
28.9256 2.812
28.9559 2.812
28.9862 3.125
29.0165 4.271
29.0468 2.969
29.0770 3.281
29.1073 3.021
29.1376 3.125
29.1679 2.760
29.1981 3.854
29.2284 2.865
29.2587 3.281
29.2890 3.177
29.3193 3.021
29.3495 2.708
29.3798 3.229
29.4101 2.500
29.4404 2.708
29.4707 3.594
29.5009 2.917
29.5312 3.698
29.5615 3.021
29.5918 3.177
29.6221 3.177
29.6523 3.958
29.6826 3.698
29.7129 3.073
29.7432 4.583
29.7734 3.437
29.8037 4.323
29.8340 4.062
29.8643 4.010
29.8946 4.010
29.9248 4.375
29.9551 3.750
29.9854 3.906
30.0157 4.271
30.0460 3.698
30.0762 4.479
30.1065 3.073
30.1368 3.333
30.1671 4.583
30.1973 4.375
30.2276 3.958
30.2579 3.750
30.2882 4.219
30.3185 3.437
30.3487 4.687
30.3790 3.854
30.4093 4.323
30.4396 5.000
30.4699 4.062
30.5001 4.844
30.5304 4.740
30.5607 5.052
30.5910 6.875
30.6212 5.781
30.6515 6.146
30.6818 5.885
30.7121 5.208
30.7424 5.156
30.7726 5.573
30.8029 6.198
30.8332 5.208
30.8635 6.562
30.8938 6.979
30.9240 7.031
30.9543 7.865
30.9846 7.552
31.0149 9.583
31.0451 9.062
31.0754 9.375
31.1057 9.844
31.1360 9.271
31.1663 10.521
31.1965 10.937
31.2268 11.406
31.2571 15.000
31.2874 15.573
31.3177 16.562
31.3479 19.375
31.3782 19.740
31.4085 22.865
31.4388 25.156
31.4690 29.323
31.4993 31.927
31.5296 35.990
31.5599 38.125
31.5902 42.031
31.6204 44.271
31.6507 43.698
31.6810 41.250
31.7113 41.875
31.7416 35.260
31.7718 33.333
31.8021 30.052
31.8324 25.677
31.8627 22.865
31.8929 22.396
31.9232 18.958
31.9535 17.604
31.9838 13.229
32.0141 14.479
32.0443 12.969
32.0746 12.708
32.1049 10.573
32.1352 10.833
32.1655 10.312
32.1957 10.312
32.2260 7.812
32.2563 8.906
32.2866 8.385
32.3169 8.177
32.3471 7.135
32.3774 7.500
32.4077 6.354
32.4380 6.771
32.4682 6.875
32.4985 6.719
32.5288 6.094
32.5591 5.052
32.5894 5.729
32.6196 5.312
32.6499 5.260
32.6802 5.312
32.7105 5.625
32.7408 4.792
32.7710 6.042
32.8013 5.208
32.8316 5.417
32.8619 6.250
32.8921 5.417
32.9224 5.156
32.9527 3.594
32.9830 5.677
33.0133 5.990
33.0435 6.302
33.0738 4.635
33.1041 4.792
33.1344 4.531
33.1647 5.156
33.1949 5.573
33.2252 5.417
33.2555 4.323
33.2858 5.312
33.3160 5.417
33.3463 5.156
33.3766 5.625
33.4069 5.000
33.4372 5.208
33.4674 4.792
33.4977 5.208
33.5280 4.896
33.5583 6.875
33.5886 6.406
33.6188 5.990
33.6491 6.198
33.6794 6.458
33.7097 6.667
33.7399 6.979
33.7702 7.448
33.8005 7.917
33.8308 8.490
33.8611 8.073
33.8913 8.802
33.9216 8.490
33.9519 10.573
33.9822 11.667
34.0125 12.396
34.0427 15.052
34.0730 15.677
34.1033 19.167
34.1336 19.323
34.1638 28.854
34.1941 32.969
34.2244 41.250
34.2547 51.667
34.2850 56.094
34.3152 58.437
34.3455 50.990
34.3758 42.344
34.4061 36.458
34.4364 30.052
34.4666 23.437
34.4969 23.437
34.5272 16.302
34.5575 13.750
34.5877 13.333
34.6180 11.875
34.6483 11.198
34.6786 10.677
34.7089 8.385
34.7391 7.917
34.7694 9.375
34.7997 9.167
34.8300 8.333
34.8603 7.344
34.8905 7.969
34.9208 7.031
34.9511 6.354
34.9814 8.125
35.0116 8.594
35.0419 7.292
35.0722 7.708
35.1025 7.292
35.1328 7.917
35.1630 7.969
35.1933 8.437
35.2236 7.083
35.2539 8.490
35.2842 8.177
35.3144 8.073
35.3447 9.271
35.3750 8.385
35.4053 10.208
35.4356 10.000
35.4658 10.365
35.4961 9.635
35.5264 12.656
35.5567 12.448
35.5869 12.760
35.6172 12.917
35.6475 16.042
35.6778 16.302
35.7081 16.406
35.7383 18.437
35.7686 20.469
35.7989 20.469
35.8292 23.750
35.8595 25.521
35.8897 30.729
35.9200 30.521
35.9503 39.062
35.9806 41.042
36.0108 44.167
36.0411 52.656
36.0714 53.594
36.1017 59.375
36.1320 60.208
36.1622 60.000
36.1925 57.500
36.2228 54.115
36.2531 53.906
36.2834 44.062
36.3136 43.073
36.3439 35.573
36.3742 32.708
36.4045 26.302
36.4347 23.073
36.4650 21.615
36.4953 17.708
36.5256 18.281
36.5559 17.031
36.5861 16.042
36.6164 13.802
36.6467 12.552
36.6770 10.781
36.7073 11.615
36.7375 10.000
36.7678 9.375
36.7981 9.531
36.8284 9.062
36.8586 8.073
36.8889 7.604
36.9192 6.615
36.9495 6.823
36.9798 6.406
37.0100 4.740
37.0403 5.781
37.0706 6.302
37.1009 5.990
37.1312 4.323
37.1614 5.417
37.1917 5.260
37.2220 5.052
37.2523 4.896
37.2825 5.729
37.3128 4.948
37.3431 4.427
37.3734 4.115
37.4037 3.594
37.4339 3.854
37.4642 3.594
37.4945 5.000
37.5248 4.010
37.5551 4.062
37.5853 3.906
37.6156 3.281
37.6459 4.115
37.6762 3.750
37.7064 3.177
37.7367 3.229
37.7670 4.479
37.7973 4.010
37.8276 4.219
37.8578 3.385
37.8881 4.323
37.9184 2.917
37.9487 2.552
37.9790 2.865
38.0092 3.333
38.0395 3.177
38.0698 3.281
38.1001 3.646
38.1304 2.917
38.1606 2.552
38.1909 2.969
38.2212 3.125
38.2515 2.500
38.2817 3.698
38.3120 3.281
38.3423 2.760
38.3726 3.594
38.4029 2.969
38.4331 3.073
38.4634 2.448
38.4937 2.292
38.5240 1.979
38.5543 2.500
38.5845 2.396
38.6148 2.292
38.6451 2.760
38.6754 2.552
38.7056 1.979
38.7359 3.542
38.7662 2.865
38.7965 2.552
38.8268 2.760
38.8570 2.969
38.8873 1.719
38.9176 2.552
38.9479 2.292
38.9782 2.240
39.0084 2.604
39.0387 2.969
39.0690 2.187
39.0993 2.396
39.1295 2.812
39.1598 2.344
39.1901 2.812
39.2204 2.240
39.2507 2.552
39.2809 3.437
39.3112 1.719
39.3415 1.771
39.3718 1.823
39.4021 2.552
39.4323 2.917
39.4626 2.240
39.4929 2.500
39.5232 2.292
39.5534 2.604
39.5837 1.302
39.6140 2.708
39.6443 2.083
39.6746 2.344
39.7048 2.292
39.7351 2.187
39.7654 2.187
39.7957 2.083
39.8260 2.448
39.8562 1.875
39.8865 2.031
39.9168 2.031
39.9471 2.396
39.9773 2.135
40.0076 1.823
40.0379 1.615
40.0682 2.344
40.0985 2.240
40.1287 1.875
40.1590 2.135
40.1893 2.344
40.2196 2.292
40.2499 2.187
40.2801 1.875
40.3104 1.823
40.3407 2.083
40.3710 2.240
40.4012 2.135
40.4315 1.771
40.4618 1.094
40.4921 1.979
40.5224 1.823
40.5526 1.979
40.5829 2.083
40.6132 1.875
40.6435 1.719
40.6738 2.344
40.7040 1.458
40.7343 1.615
40.7646 2.292
40.7949 1.250
40.8251 2.708
40.8554 2.396
40.8857 2.292
40.9160 1.875
40.9463 2.083
40.9765 2.656
41.0068 2.031
41.0371 2.135
41.0674 2.135
41.0977 1.823
41.1279 1.927
41.1582 2.187
41.1885 2.135
41.2188 2.083
41.2491 2.396
41.2793 2.344
41.3096 2.240
41.3399 1.458
41.3702 1.875
41.4004 2.187
41.4307 1.354
41.4610 1.719
41.4913 1.354
41.5216 1.510
41.5518 1.615
41.5821 1.719
41.6124 1.771
41.6427 2.500
41.6730 2.135
41.7032 1.667
41.7335 1.771
41.7638 1.875
41.7941 1.823
41.8243 1.927
41.8546 2.031
41.8849 1.979
41.9152 1.615
41.9455 1.562
41.9757 2.187
42.0060 1.094
42.0363 1.667
42.0666 2.448
42.0969 1.927
42.1271 2.031
42.1574 1.406
42.1877 2.135
42.2180 1.406
42.2482 1.562
42.2785 1.458
42.3088 1.667
42.3391 1.562
42.3694 1.927
42.3996 1.615
42.4299 2.240
42.4602 1.823
42.4905 1.875
42.5208 2.240
42.5510 2.031
42.5813 2.083
42.6116 1.875
42.6419 1.510
42.6721 1.875
42.7024 1.198
42.7327 1.823
42.7630 1.562
42.7933 1.979
42.8235 1.719
42.8538 1.771
42.8841 1.615
42.9144 1.979
42.9447 1.615
42.9749 2.187
43.0052 2.031
43.0355 1.771
43.0658 1.510
43.0960 2.344
43.1263 1.719
43.1566 2.656
43.1869 1.615
43.2172 1.667
43.2474 1.354
43.2777 2.552
43.3080 1.510
43.3383 1.927
43.3686 2.135
43.3988 1.823
43.4291 1.354
43.4594 2.031
43.4897 2.031
43.5199 2.135
43.5502 1.198
43.5805 2.604
43.6108 1.302
43.6411 1.615
43.6713 1.510
43.7016 2.031
43.7319 1.927
43.7622 2.083
43.7925 2.083
43.8227 1.927
43.8530 1.823
43.8833 1.562
43.9136 1.979
43.9439 1.875
43.9741 1.823
44.0044 2.031
44.0347 1.667
44.0650 1.667
44.0952 1.406
44.1255 2.083
44.1558 1.250
44.1861 1.979
44.2164 1.823
44.2466 1.146
44.2769 2.448
44.3072 1.823
44.3375 1.771
44.3678 1.927
44.3980 1.979
44.4283 2.396
44.4586 2.552
44.4889 2.031
44.5191 1.719
44.5494 2.083
44.5797 2.135
44.6100 1.719
44.6403 1.823
44.6705 2.135
44.7008 1.875
44.7311 2.031
44.7614 1.875
44.7917 2.031
44.8219 1.823
44.8522 2.031
44.8825 2.187
44.9128 1.771
44.9430 2.448
44.9733 1.771
45.0036 1.875
45.0339 1.823
45.0642 2.083
45.0944 1.615
45.1247 1.823
45.1550 2.135
45.1853 1.771
45.2156 2.031
45.2458 2.240
45.2761 2.083
45.3064 1.927
45.3367 1.875
45.3669 2.396
45.3972 2.396
45.4275 2.396
45.4578 1.719
45.4881 1.562
45.5183 2.240
45.5486 1.927
45.5789 2.031
45.6092 2.292
45.6395 2.031
45.6697 2.240
45.7000 2.500
45.7303 2.031
45.7606 1.719
45.7908 2.656
45.8211 2.552
45.8514 1.875
45.8817 2.187
45.9120 2.187
45.9422 2.083
45.9725 2.135
46.0028 2.708
46.0331 1.927
46.0634 2.396
46.0936 2.396
46.1239 2.240
46.1542 2.240
46.1845 2.656
46.2147 2.031
46.2450 2.031
46.2753 2.240
46.3056 2.604
46.3359 2.448
46.3661 1.875
46.3964 2.500
46.4267 1.875
46.4570 2.083
46.4873 2.708
46.5175 2.292
46.5478 3.073
46.5781 1.719
46.6084 2.292
46.6386 2.760
46.6689 2.552
46.6992 2.917
46.7295 2.917
46.7598 2.865
46.7900 3.229
46.8203 3.490
46.8506 3.698
46.8809 4.271
46.9112 3.385
46.9414 4.062
46.9717 3.750
47.0020 4.948
47.0323 5.104
47.0626 5.000
47.0928 6.458
47.1231 7.187
47.1534 6.562
47.1837 7.448
47.2139 9.531
47.2442 11.198
47.2745 9.427
47.3048 10.469
47.3351 11.042
47.3653 14.271
47.3956 13.958
47.4259 13.021
47.4562 12.031
47.4865 12.812
47.5167 11.615
47.5470 12.187
47.5773 11.042
47.6076 9.167
47.6378 8.854
47.6681 7.083
47.6984 7.083
47.7287 6.667
47.7590 4.948
47.7892 5.573
47.8195 5.104
47.8498 4.531
47.8801 4.740
47.9104 3.698
47.9406 3.698
47.9709 3.229
48.0012 3.698
48.0315 3.281
48.0617 2.396
48.0920 3.542
48.1223 2.917
48.1526 2.760
48.1829 3.333
48.2131 1.979
48.2434 2.760
48.2737 2.708
48.3040 2.187
48.3343 2.708
48.3645 1.562
48.3948 2.448
48.4251 1.875
48.4554 2.240
48.4856 2.656
48.5159 2.187
48.5462 2.292
48.5765 2.240
48.6068 2.240
48.6370 2.292
48.6673 2.240
48.6976 1.875
48.7279 2.448
48.7582 2.031
48.7884 1.615
48.8187 2.292
48.8490 2.448
48.8793 1.979
48.9095 2.500
48.9398 2.552
48.9701 1.719
49.0004 2.187
49.0307 1.562
49.0609 1.979
49.0912 1.406
49.1215 1.667
49.1518 1.667
49.1821 2.031
49.2123 2.187
49.2426 1.927
49.2729 2.083
49.3032 1.615
49.3334 1.979
49.3637 1.615
49.3940 2.135
49.4243 2.240
49.4546 1.927
49.4848 2.187
49.5151 1.875
49.5454 2.187
49.5757 2.187
49.6060 2.135
49.6362 1.927
49.6665 1.562
49.6968 1.927
49.7271 1.927
49.7574 1.719
49.7876 1.354
49.8179 1.771
49.8482 1.510
49.8785 1.771
49.9087 2.292
49.9390 2.187
49.9693 1.302
49.9996 2.135
50.0299 1.771
50.0601 1.823
50.0904 1.927
50.1207 1.927
50.1510 1.771
50.1813 2.083
50.2115 2.187
50.2418 1.719
50.2721 2.083
50.3024 2.292
50.3326 1.823
50.3629 2.083
50.3932 1.615
50.4235 1.875
50.4538 1.510
50.4840 1.927
50.5143 1.510
50.5446 1.354
50.5749 2.240
50.6052 2.083
50.6354 2.500
50.6657 1.979
50.6960 1.927
50.7263 1.719
50.7565 1.979
50.7868 1.562
50.8171 1.667
50.8474 1.719
50.8777 1.875
50.9079 2.031
50.9382 1.562
50.9685 1.406
50.9988 1.927
51.0291 1.979
51.0593 1.562
51.0896 2.031
51.1199 1.823
51.1502 1.458
51.1804 1.979
51.2107 1.667
51.2410 2.135
51.2713 1.406
51.3016 2.240
51.3318 1.406
51.3621 1.823
51.3924 1.823
51.4227 1.875
51.4530 1.354
51.4832 1.510
51.5135 1.771
51.5438 1.979
51.5741 1.719
51.6043 1.979
51.6346 1.771
51.6649 2.083
51.6952 1.719
51.7255 1.823
51.7557 1.823
51.7860 1.719
51.8163 1.302
51.8466 1.667
51.8769 1.927
51.9071 1.250
51.9374 2.083
51.9677 2.135
51.9980 2.083
52.0282 2.240
52.0585 1.927
52.0888 1.406
52.1191 1.927
52.1494 1.615
52.1796 2.083
52.2099 1.667
52.2402 2.240
52.2705 2.187
52.3008 1.875
52.3310 1.927
52.3613 1.562
52.3916 1.250
52.4219 1.458
52.4521 1.927
52.4824 1.354
52.5127 1.927
52.5430 1.510
52.5733 1.615
52.6035 2.083
52.6338 1.875
52.6641 1.875
52.6944 1.875
52.7247 2.187
52.7549 1.771
52.7852 1.771
52.8155 1.771
52.8458 2.240
52.8761 1.615
52.9063 1.667
52.9366 1.875
52.9669 1.875
52.9972 1.719
53.0274 2.240
53.0577 2.187
53.0880 2.292
53.1183 1.979
53.1486 1.875
53.1788 1.406
53.2091 2.240
53.2394 1.771
53.2697 1.771
53.3000 1.615
53.3302 2.135
53.3605 1.719
53.3908 2.135
53.4211 1.771
53.4513 1.354
53.4816 1.719
53.5119 2.135
53.5422 1.615
53.5725 1.771
53.6027 1.615
53.6330 2.031
53.6633 1.510
53.6936 1.875
53.7239 1.510
53.7541 1.823
53.7844 1.562
53.8147 1.927
53.8450 1.771
53.8752 1.667
53.9055 2.083
53.9358 1.979
53.9661 1.510
53.9964 2.344
54.0266 2.187
54.0569 2.500
54.0872 2.292
54.1175 1.771
54.1478 1.510
54.1780 1.823
54.2083 1.979
54.2386 1.823
54.2689 1.615
54.2991 1.979
54.3294 1.771
54.3597 2.083
54.3900 1.823
54.4203 2.135
54.4505 1.979
54.4808 1.719
54.5111 1.562
54.5414 1.979
54.5717 1.042
54.6019 1.927
54.6322 2.812
54.6625 1.562
54.6928 1.979
54.7230 1.927
54.7533 1.979
54.7836 1.979
54.8139 1.667
54.8442 1.771
54.8744 2.396
54.9047 2.448
54.9350 2.031
54.9653 2.396
54.9956 3.125
55.0258 1.823
55.0561 2.240
55.0864 2.760
55.1167 2.969
55.1469 2.135
55.1772 2.344
55.2075 2.396
55.2378 2.031
55.2681 2.812
55.2983 2.396
55.3286 3.125
55.3589 2.812
55.3892 2.969
55.4195 2.812
55.4497 2.292
55.4800 2.812
55.5103 3.229
55.5406 3.177
55.5709 3.698
55.6011 3.854
55.6314 2.187
55.6617 3.802
55.6920 3.281
55.7222 2.917
55.7525 3.750
55.7828 3.958
55.8131 3.646
55.8434 3.229
55.8736 3.698
55.9039 4.010
55.9342 4.167
55.9645 4.115
55.9948 5.625
56.0250 5.000
56.0553 6.406
56.0856 6.510
56.1159 6.562
56.1461 8.125
56.1764 7.708
56.2067 8.542
56.2370 8.698
56.2673 10.365
56.2975 12.083
56.3278 11.510
56.3581 13.281
56.3884 14.323
56.4187 15.417
56.4489 14.323
56.4792 14.687
56.5095 17.292
56.5398 14.844
56.5700 15.573
56.6003 14.687
56.6306 11.615
56.6609 12.448
56.6912 10.990
56.7214 9.844
56.7517 9.062
56.7820 7.135
56.8123 7.292
56.8426 7.344
56.8728 6.354
56.9031 5.729
56.9334 4.844
56.9637 5.104
56.9939 4.479
57.0242 4.635
57.0545 4.323
57.0848 4.219
57.1151 4.010
57.1453 4.219
57.1756 3.594
57.2059 3.958
57.2362 3.906
57.2665 3.750
57.2967 2.656
57.3270 3.333
57.3573 2.969
57.3876 3.073
57.4178 2.917
57.4481 2.656
57.4784 2.656
57.5087 2.552
57.5390 2.656
57.5692 2.760
57.5995 2.812
57.6298 2.083
57.6601 2.865
57.6904 2.917
57.7206 2.708
57.7509 2.240
57.7812 2.083
57.8115 2.396
57.8417 2.240
57.8720 1.979
57.9023 2.187
57.9326 2.031
57.9629 1.615
57.9931 1.979
58.0234 1.771
58.0537 2.240
58.0840 2.656
58.1143 2.240
58.1445 1.875
58.1748 2.240
58.2051 2.031
58.2354 2.240
58.2656 2.292
58.2959 2.240
58.3262 1.719
58.3565 2.083
58.3868 1.458
58.4170 2.031
58.4473 2.083
58.4776 2.031
58.5079 2.240
58.5382 1.979
58.5684 2.240
58.5987 2.031
58.6290 1.510
58.6593 1.875
58.6896 1.823
58.7198 1.927
58.7501 1.927
58.7804 1.562
58.8107 2.083
58.8409 1.979
58.8712 1.615
58.9015 1.510
58.9318 1.667
58.9621 1.771
58.9923 1.719
59.0226 2.344
59.0529 1.562
59.0832 1.562
59.1135 1.615
59.1437 1.719
59.1740 1.615
59.2043 2.500
59.2346 2.083
59.2648 1.771
59.2951 1.979
59.3254 1.979
59.3557 1.458
59.3860 1.823
59.4162 1.510
59.4465 1.562
59.4768 1.875
59.5071 2.083
59.5374 2.187
59.5676 1.510
59.5979 1.719
59.6282 1.979
59.6585 1.927
59.6887 1.719
59.7190 1.250
59.7493 1.667
59.7796 1.510
59.8099 1.823
59.8401 2.240
59.8704 1.510
59.9007 1.875
59.9310 1.771
59.9613 2.187
59.9915 1.823
60.0218 2.031
60.0521 2.187
60.0824 1.667
60.1126 1.406
60.1429 1.510
60.1732 2.135
60.2035 2.135
60.2338 1.771
60.2640 1.510
60.2943 2.240
60.3246 2.240
60.3549 2.708
60.3852 2.344
60.4154 2.135
60.4457 2.344
60.4760 2.187
60.5063 2.240
60.5365 2.083
60.5668 1.927
60.5971 1.823
60.6274 1.510
60.6577 2.344
60.6879 1.562
60.7182 1.979
60.7485 2.083
60.7788 1.146
60.8091 2.135
60.8393 1.667
60.8696 1.667
60.8999 1.979
60.9302 1.458
60.9604 1.719
60.9907 1.875
61.0210 1.719
61.0513 1.927
61.0816 1.615
61.1118 1.146
61.1421 2.448
61.1724 1.719
61.2027 2.083
61.2330 2.031
61.2632 2.083
61.2935 2.187
61.3238 1.510
61.3541 2.240
61.3844 2.396
61.4146 1.771
61.4449 2.187
61.4752 2.292
61.5055 1.823
61.5357 2.917
61.5660 2.083
61.5963 2.135
61.6266 2.187
61.6569 2.448
61.6871 2.604
61.7174 2.448
61.7477 2.500
61.7780 2.396
61.8083 2.552
61.8385 3.073
61.8688 2.448
61.8991 3.177
61.9294 2.396
61.9596 3.281
61.9899 3.229
62.0202 2.656
62.0505 3.437
62.0808 3.698
62.1110 4.583
62.1413 4.167
62.1716 3.437
62.2019 3.594
62.2322 4.531
62.2624 4.375
62.2927 4.948
62.3230 4.740
62.3533 6.042
62.3835 5.052
62.4138 6.823
62.4441 7.760
62.4744 7.865
62.5047 8.073
62.5349 10.156
62.5652 10.365
62.5955 11.823
62.6258 11.771
62.6561 12.969
62.6863 13.333
62.7166 14.271
62.7469 11.458
62.7772 13.333
62.8074 12.812
62.8377 12.031
62.8680 12.344
62.8983 12.500
62.9286 10.937
62.9588 9.948
62.9891 9.531
63.0194 8.542
63.0497 6.562
63.0800 5.937
63.1102 6.771
63.1405 5.521
63.1708 5.365
63.2011 4.844
63.2313 4.219
63.2616 4.115
63.2919 4.375
63.3222 5.208
63.3525 4.115
63.3827 4.219
63.4130 4.219
63.4433 2.917
63.4736 3.698
63.5039 3.802
63.5341 2.760
63.5644 2.865
63.5947 3.958
63.6250 2.552
63.6552 2.812
63.6855 2.448
63.7158 2.552
63.7461 2.760
63.7764 2.292
63.8066 2.760
63.8369 1.875
63.8672 1.875
63.8975 1.979
63.9278 2.187
63.9580 2.083
63.9883 1.979
64.0186 2.552
64.0489 2.031
64.0791 1.875
64.1094 2.448
64.1397 2.865
64.1700 2.187
64.2003 1.927
64.2305 2.031
64.2608 2.031
64.2911 2.240
64.3214 2.500
64.3517 2.500
64.3819 2.083
64.4122 2.552
64.4425 2.500
64.4728 2.865
64.5031 1.719
64.5333 1.667
64.5636 2.240
64.5939 1.719
64.6242 1.927
64.6544 1.927
64.6847 1.875
64.7150 1.667
64.7453 2.500
64.7756 1.562
64.8058 1.927
64.8361 1.406
64.8664 2.448
64.8967 1.927
64.9270 1.458
64.9572 2.083
64.9875 2.552
65.0178 1.927
65.0481 1.406
65.0783 2.135
65.1086 2.083
65.1389 2.708
65.1692 2.292
65.1995 2.448
65.2297 1.823
65.2600 2.344
65.2903 2.135
65.3206 1.771
65.3509 2.240
65.3811 1.354
65.4114 2.083
65.4417 1.667
65.4720 2.135
65.5022 2.135
65.5325 2.187
65.5628 2.708
65.5931 1.875
65.6234 2.135
65.6536 2.292
65.6839 2.187
65.7142 2.083
65.7445 2.083
65.7748 2.448
65.8050 1.823
65.8353 2.083
65.8656 2.604
65.8959 2.760
65.9261 2.448
65.9564 2.240
65.9867 2.656
66.0170 3.229
66.0473 2.917
66.0775 2.917
66.1078 3.490
66.1381 3.281
66.1684 3.490
66.1987 2.917
66.2289 3.437
66.2592 3.490
66.2895 3.281
66.3198 3.750
66.3500 3.542
66.3803 3.698
66.4106 2.500
66.4409 2.760
66.4712 2.708
66.5014 3.281
66.5317 2.917
66.5620 2.604
66.5923 2.344
66.6226 3.594
66.6528 2.656
66.6831 2.760
66.7134 3.177
66.7437 2.552
66.7739 2.240
66.8042 2.917
66.8345 2.917
66.8648 3.229
66.8951 2.865
66.9253 2.917
66.9556 2.760
66.9859 2.969
67.0162 3.021
67.0465 2.552
67.0767 3.125
67.1070 2.917
67.1373 3.437
67.1676 3.646
67.1978 3.333
67.2281 3.646
67.2584 3.333
67.2887 4.167
67.3190 3.437
67.3492 4.375
67.3795 4.375
67.4098 5.365
67.4401 5.469
67.4704 5.729
67.5006 5.000
67.5309 5.990
67.5612 6.146
67.5915 7.187
67.6218 7.500
67.6520 7.031
67.6823 8.490
67.7126 8.281
67.7429 8.906
67.7731 9.010
67.8034 9.583
67.8337 9.583
67.8640 9.635
67.8943 10.625
67.9245 9.635
67.9548 10.208
67.9851 8.542
68.0154 9.010
68.0457 9.740
68.0759 7.500
68.1062 7.708
68.1365 5.729
68.1668 5.990
68.1970 5.885
68.2273 5.312
68.2576 5.052
68.2879 4.948
68.3182 5.052
68.3484 4.792
68.3787 3.906
68.4090 4.115
68.4393 4.010
68.4696 4.479
68.4998 3.698
68.5301 4.844
68.5604 4.375
68.5907 3.281
68.6209 4.062
68.6512 4.427
68.6815 3.906
68.7118 4.115
68.7421 4.948
68.7723 5.000
68.8026 4.479
68.8329 4.375
68.8632 5.417
68.8935 5.521
68.9237 4.375
68.9540 4.896
68.9843 6.042
69.0146 5.885
69.0448 4.635
69.0751 5.260
69.1054 5.208
69.1357 4.635
69.1660 4.896
69.1962 3.385
69.2265 3.385
69.2568 3.750
69.2871 3.125
69.3174 3.385
69.3476 3.594
69.3779 3.542
69.4082 3.125
69.4385 2.240
69.4687 2.708
69.4990 3.333
69.5293 2.396
69.5596 1.875
69.5899 2.187
69.6201 2.448
69.6504 2.292
69.6807 1.562
69.7110 2.552
69.7413 2.292
69.7715 2.031
69.8018 1.927
69.8321 2.292
69.8624 1.771
69.8926 1.875
69.9229 1.979
69.9532 2.083
69.9835 1.771
70.0138 1.771
70.0440 1.927
70.0743 1.250
70.1046 1.302
70.1349 1.771
70.1652 1.875
70.1954 2.031
70.2257 1.719
70.2560 1.354
70.2863 1.458
70.3166 1.667
70.3468 1.771
70.3771 1.771
70.4074 1.771
70.4377 2.292
70.4679 1.771
70.4982 1.406
70.5285 1.406
70.5588 1.823
70.5891 1.250
70.6193 1.146
70.6496 2.083
70.6799 1.042
70.7102 1.458
70.7405 1.354
70.7707 1.198
70.8010 1.562
70.8313 1.510
70.8616 1.823
70.8918 1.510
70.9221 1.771
70.9524 1.667
70.9827 1.458
71.0130 1.562
71.0432 1.667
71.0735 1.927
71.1038 1.667
71.1341 0.937
71.1644 1.250
71.1946 1.719
71.2249 1.927
71.2552 1.302
71.2855 1.198
71.3157 1.302
71.3460 1.719
71.3763 1.354
71.4066 1.615
71.4369 1.615
71.4671 1.406
71.4974 1.302
71.5277 1.771
71.5580 1.198
71.5883 1.250
71.6185 1.406
71.6488 1.250
71.6791 1.927
71.7094 2.135
71.7396 1.406
71.7699 1.615
71.8002 1.302
71.8305 1.615
71.8608 1.406
71.8910 1.562
71.9213 1.667
71.9516 1.510
71.9819 1.250
72.0122 1.510
72.0424 1.771
72.0727 1.406
72.1030 1.719
72.1333 1.406
72.1635 1.719
72.1938 1.667
72.2241 1.771
72.2544 1.406
72.2847 2.083
72.3149 2.031
72.3452 2.083
72.3755 2.656
72.4058 2.240
72.4361 1.927
72.4663 2.240
72.4966 2.187
72.5269 1.875
72.5572 1.979
72.5874 1.458
72.6177 1.458
72.6480 2.031
72.6783 1.302
72.7086 1.771
72.7388 1.927
72.7691 1.667
72.7994 1.406
72.8297 1.250
72.8600 1.302
72.8902 1.354
72.9205 1.198
72.9508 1.771
72.9811 1.198
73.0113 1.562
73.0416 1.667
73.0719 0.625
73.1022 1.667
73.1325 1.094
73.1627 1.458
73.1930 1.302
73.2233 1.615
73.2536 1.302
73.2839 1.094
73.3141 1.458
73.3444 1.562
73.3747 1.094
73.4050 1.198
73.4353 1.094
73.4655 1.302
73.4958 1.146
73.5261 1.354
73.5564 1.094
73.5866 1.250
73.6169 0.937
73.6472 1.302
73.6775 1.562
73.7078 1.510
73.7380 1.458
73.7683 1.146
73.7986 1.146
73.8289 1.146
73.8592 1.510
73.8894 1.146
73.9197 1.615
73.9500 1.667
73.9803 0.990
74.0105 1.771
74.0408 1.250
74.0711 1.354
74.1014 1.458
74.1317 0.833
74.1619 1.250
74.1922 1.094
74.2225 1.406
74.2528 1.667
74.2831 1.042
74.3133 1.198
74.3436 0.781
74.3739 0.833
74.4042 1.823
74.4344 1.510
74.4647 1.094
74.4950 1.094
74.5253 1.406
74.5556 1.250
74.5858 1.250
74.6161 1.719
74.6464 1.406
74.6767 1.250
74.7070 1.198
74.7372 1.250
74.7675 1.094
74.7978 1.042
74.8281 0.885
74.8583 1.354
74.8886 1.146
74.9189 0.937
74.9492 0.885
74.9795 1.094
75.0097 1.042
75.0400 1.406
75.0703 1.146
75.1006 1.198
75.1309 0.937
75.1611 1.042
75.1914 0.990
75.2217 1.354
75.2520 1.146
75.2822 1.146
75.3125 1.250
75.3428 1.458
75.3731 1.094
75.4034 1.875
75.4336 1.198
75.4639 1.250
75.4942 1.562
75.5245 1.562
75.5548 1.562
75.5850 1.042
75.6153 1.198
75.6456 1.302
75.6759 1.198
75.7061 1.406
75.7364 0.990
75.7667 1.198
75.7970 1.302
75.8273 1.146
75.8575 1.302
75.8878 1.458
75.9181 1.354
75.9484 1.250
75.9787 1.354
76.0089 1.354
76.0392 0.937
76.0695 1.510
76.0998 1.562
76.1301 1.094
76.1603 1.198
76.1906 1.302
76.2209 1.562
76.2512 1.406
76.2814 1.615
76.3117 1.198
76.3420 1.875
76.3723 1.458
76.4026 1.354
76.4328 1.667
76.4631 1.510
76.4934 1.562
76.5237 2.083
76.5540 1.354
76.5842 1.562
76.6145 1.979
76.6448 1.510
76.6751 1.823
76.7053 1.667
76.7356 2.760
76.7659 1.927
76.7962 2.083
76.8265 2.187
76.8567 2.240
76.8870 2.500
76.9173 1.823
76.9476 2.656
76.9779 2.344
77.0081 2.292
77.0384 2.187
77.0687 1.979
77.0990 1.719
77.1292 1.302
77.1595 1.615
77.1898 2.292
77.2201 1.875
77.2504 1.823
77.2806 1.406
77.3109 1.510
77.3412 1.406
77.3715 2.083
77.4018 1.198
77.4320 1.979
77.4623 0.990
77.4926 1.458
77.5229 1.146
77.5531 1.302
77.5834 1.562
77.6137 1.094
77.6440 1.667
77.6743 1.406
77.7045 1.354
77.7348 1.562
77.7651 1.094
77.7954 1.615
77.8257 1.875
77.8559 1.250
77.8862 1.198
77.9165 1.406
77.9468 1.146
77.9770 1.510
78.0073 1.250
78.0376 0.885
78.0679 1.354
78.0982 1.406
78.1284 1.354
78.1587 1.198
78.1890 1.198
78.2193 1.250
78.2496 1.250
78.2798 1.146
78.3101 0.885
78.3404 1.198
78.3707 0.833
78.4009 1.042
78.4312 1.510
78.4615 1.406
78.4918 1.250
78.5221 1.250
78.5523 1.302
78.5826 1.250
78.6129 0.937
78.6432 1.198
78.6735 1.198
78.7037 1.406
78.7340 1.458
78.7643 1.510
78.7946 1.302
78.8248 1.354
78.8551 0.885
78.8854 1.250
78.9157 1.094
78.9460 0.781
78.9762 0.990
79.0065 0.729
79.0368 1.042
79.0671 0.833
79.0974 1.667
79.1276 1.094
79.1579 0.937
79.1882 1.354
79.2185 1.562
79.2488 0.937
79.2790 1.198
79.3093 1.667
79.3396 1.771
79.3699 1.667
79.4001 1.146
79.4304 1.042
79.4607 1.667
79.4910 1.094
79.5213 1.146
79.5515 0.885
79.5818 1.198
79.6121 1.458
79.6424 1.042
79.6727 1.250
79.7029 1.094
79.7332 1.198
79.7635 1.250
79.7938 0.625
79.8240 1.094
79.8543 1.094
79.8846 0.990
79.9149 1.042
79.9452 1.042
79.9754 0.833
80.0057 1.458
80.0360 0.885
80.0663 1.406
80.0966 1.354
80.1268 1.146
80.1571 1.198
80.1874 1.146
80.2177 0.937
80.2479 1.250
80.2782 1.198
80.3085 0.833
80.3388 0.937
80.3691 1.354
80.3993 1.042
80.4296 1.354
80.4599 1.198
80.4902 1.406
80.5205 1.198
80.5507 1.667
80.5810 0.937
80.6113 1.146
80.6416 1.354
80.6718 1.667
80.7021 1.146
80.7324 1.094
80.7627 1.458
80.7930 1.094
80.8232 0.937
80.8535 1.198
80.8838 1.042
80.9141 1.146
80.9444 1.250
80.9746 1.510
81.0049 1.146
81.0352 1.354
81.0655 1.562
81.0957 1.146
81.1260 1.875
81.1563 1.615
81.1866 1.146
81.2169 1.875
81.2471 1.771
81.2774 1.562
81.3077 1.302
81.3380 2.083
81.3683 1.771
81.3985 1.302
81.4288 1.510
81.4591 1.667
81.4894 1.354
81.5196 1.667
81.5499 1.510
81.5802 2.031
81.6105 1.302
81.6408 1.667
81.6710 0.729
81.7013 1.615
81.7316 1.823
81.7619 1.250
81.7922 1.458
81.8224 1.302
81.8527 0.885
81.8830 1.302
81.9133 1.302
81.9436 1.406
81.9738 1.562
82.0041 1.354
82.0344 1.458
82.0647 1.042
82.0949 1.458
82.1252 1.094
82.1555 1.406
82.1858 0.937
82.2161 1.562
82.2463 0.937
82.2766 1.562
82.3069 0.990
82.3372 1.198
82.3675 1.458
82.3977 1.146
82.4280 1.562
82.4583 1.406
82.4886 1.146
82.5188 0.781
82.5491 0.729
82.5794 1.042
82.6097 1.302
82.6400 0.990
82.6702 1.042
82.7005 1.198
82.7308 1.198
82.7611 1.042
82.7914 1.198
82.8216 0.990
82.8519 1.250
82.8822 0.677
82.9125 0.729
82.9427 0.937
82.9730 1.094
83.0033 1.198
83.0336 1.042
83.0639 0.833
83.0941 0.781
83.1244 0.885
83.1547 1.615
83.1850 1.458
83.2153 1.667
83.2455 0.990
83.2758 0.885
83.3061 1.198
83.3364 1.042
83.3666 1.146
83.3969 1.198
83.4272 1.146
83.4575 1.146
83.4878 0.729
83.5180 1.094
83.5483 1.250
83.5786 1.302
83.6089 0.937
83.6392 0.677
83.6694 1.146
83.6997 1.198
83.7300 0.990
83.7603 1.146
83.7905 0.729
83.8208 1.458
83.8511 0.781
83.8814 1.354
83.9117 1.250
83.9419 0.990
83.9722 1.198
84.0025 1.042
84.0328 0.937
84.0631 1.198
84.0933 1.042
84.1236 1.042
84.1539 1.146
84.1842 0.885
84.2144 0.781
84.2447 0.781
84.2750 1.198
84.3053 0.625
84.3356 0.677
84.3658 0.885
84.3961 0.833
84.4264 0.937
84.4567 0.781
84.4870 0.937
84.5172 0.937
84.5475 1.042
84.5778 1.354
84.6081 0.937
84.6383 1.094
84.6686 1.406
84.6989 0.885
84.7292 1.302
84.7595 1.406
84.7897 1.042
84.8200 1.250
84.8503 1.615
84.8806 1.302
84.9109 1.198
84.9411 1.146
84.9714 0.990
85.0017 0.990
85.0320 1.458
85.0623 1.042
85.0925 0.833
85.1228 1.198
85.1531 0.833
85.1834 1.198
85.2136 1.042
85.2439 1.302
85.2742 1.615
85.3045 0.937
85.3348 0.833
85.3650 0.781
85.3953 1.146
85.4256 0.937
85.4559 1.094
85.4862 1.042
85.5164 0.990
85.5467 1.094
85.5770 1.146
85.6073 1.302
85.6375 1.250
85.6678 1.198
85.6981 1.198
85.7284 1.094
85.7587 1.042
85.7889 1.354
85.8192 1.250
85.8495 1.146
85.8798 1.510
85.9101 0.885
85.9403 0.990
85.9706 0.729
86.0009 0.833
86.0312 1.250
86.0614 1.042
86.0917 0.885
86.1220 1.406
86.1523 1.094
86.1826 1.458
86.2128 0.833
86.2431 1.146
86.2734 1.198
86.3037 1.250
86.3340 1.146
86.3642 1.354
86.3945 0.885
86.4248 0.781
86.4551 0.729
86.4853 0.833
86.5156 1.094
86.5459 0.990
86.5762 0.885
86.6065 1.719
86.6367 1.615
86.6670 1.094
86.6973 1.198
86.7276 1.198
86.7579 0.781
86.7881 1.198
86.8184 1.510
86.8487 1.302
86.8790 1.302
86.9092 0.937
86.9395 1.250
86.9698 0.937
87.0001 0.677
87.0304 1.198
87.0606 1.354
87.0909 1.406
87.1212 1.719
87.1515 1.094
87.1818 1.302
87.2120 1.458
87.2423 1.406
87.2726 0.990
87.3029 1.198
87.3331 0.781
87.3634 0.990
87.3937 1.094
87.4240 1.146
87.4543 1.302
87.4845 1.562
87.5148 1.198
87.5451 1.250
87.5754 1.094
87.6057 1.250
87.6359 1.094
87.6662 0.990
87.6965 0.625
87.7268 1.302
87.7571 1.458
87.7873 1.146
87.8176 1.458
87.8479 1.094
87.8782 1.719
87.9084 0.937
87.9387 1.615
87.9690 1.250
87.9993 1.146
88.0296 1.667
88.0598 1.458
88.0901 1.354
88.1204 1.615
88.1507 1.146
88.1810 0.937
88.2112 1.354
88.2415 1.250
88.2718 1.615
88.3021 1.771
88.3323 1.354
88.3626 1.823
88.3929 1.146
88.4232 1.615
88.4535 1.667
88.4837 1.562
88.5140 1.146
88.5443 1.510
88.5746 1.458
88.6049 0.885
88.6351 1.719
88.6654 1.198
88.6957 1.562
88.7260 1.198
88.7562 1.719
88.7865 1.458
88.8168 1.615
88.8471 1.875
88.8774 1.771
88.9076 1.562
88.9379 1.823
88.9682 1.042
88.9985 1.354
89.0288 1.719
89.0590 1.875
89.0893 2.552
89.1196 2.552
89.1499 2.240
89.1801 1.823
89.2104 2.604
89.2407 2.865
89.2710 2.500
89.3013 2.083
89.3315 2.604
89.3618 2.656
89.3921 2.656
89.4224 2.500
89.4527 2.917
89.4829 2.865
89.5132 2.812
89.5435 2.552
89.5738 2.448
89.6040 3.021
89.6343 3.490
89.6646 3.490
89.6949 3.021
89.7252 2.969
89.7554 2.187
89.7857 2.448
89.8160 2.396
89.8463 2.240
89.8766 2.708
89.9068 2.708
89.9371 2.448
89.9674 1.979
89.9977 2.344
90.0279 1.667
90.0582 1.406
90.0885 2.031
90.1188 1.667
90.1491 1.406
90.1793 2.240
90.2096 2.135
90.2399 1.562
90.2702 1.667
90.3005 1.562
90.3307 1.510
90.3610 1.458
90.3913 1.667
90.4216 1.875
90.4518 1.406
90.4821 1.458
90.5124 1.302
90.5427 1.510
90.5730 1.667
90.6032 1.562
90.6335 1.042
90.6638 1.667
90.6941 1.302
90.7244 1.146
90.7546 1.198
90.7849 1.250
90.8152 1.198
90.8455 1.198
90.8758 1.198
90.9060 1.042
90.9363 1.354
90.9666 1.615
90.9969 1.302
91.0271 0.990
91.0574 0.937
91.0877 1.354
91.1180 1.094
91.1483 1.042
91.1785 0.885
91.2088 1.458
91.2391 1.667
91.2694 1.042
91.2997 1.615
91.3299 1.198
91.3602 1.406
91.3905 1.354
91.4208 1.667
91.4510 1.198
91.4813 1.042
91.5116 0.990
91.5419 1.042
91.5722 1.615
91.6024 0.937
91.6327 1.406
91.6630 1.354
91.6933 0.885
91.7236 1.406
91.7538 1.406
91.7841 1.302
91.8144 1.042
91.8447 1.250
91.8749 1.406
91.9052 0.885
91.9355 1.458
91.9658 1.771
91.9961 1.667
92.0263 1.823
92.0566 1.510
92.0869 1.615
92.1172 1.667
92.1475 1.406
92.1777 1.146
92.2080 1.562
92.2383 1.406
92.2686 1.875
92.2988 1.771
92.3291 1.875
92.3594 1.146
92.3897 1.250
92.4200 1.771
92.4502 2.292
92.4805 1.615
92.5108 1.615
92.5411 1.354
92.5714 2.083
92.6016 2.031
92.6319 1.458
92.6622 2.083
92.6925 1.562
92.7227 1.615
92.7530 1.979
92.7833 1.719
92.8136 1.198
92.8439 1.875
92.8741 2.187
92.9044 1.875
92.9347 1.354
92.9650 1.562
92.9953 1.719
93.0255 1.458
93.0558 1.719
93.0861 1.719
93.1164 1.354
93.1466 1.927
93.1769 1.146
93.2072 1.823
93.2375 1.719
93.2678 1.510
93.2980 0.833
93.3283 1.562
93.3586 1.875
93.3889 1.146
93.4192 1.510
93.4494 1.302
93.4797 2.135
93.5100 1.667
93.5403 1.875
93.5706 1.250
93.6008 1.198
93.6311 1.510
93.6614 1.615
93.6917 1.927
93.7219 0.781
93.7522 0.990
93.7825 0.781
93.8128 1.510
93.8431 1.458
93.8733 1.250
93.9036 0.781
93.9339 1.458
93.9642 1.406
93.9945 1.719
94.0247 1.250
94.0550 0.990
94.0853 1.406
94.1156 1.406
94.1458 1.354
94.1761 0.833
94.2064 1.198
94.2367 1.198
94.2670 1.250
94.2972 1.615
94.3275 1.667
94.3578 1.771
94.3881 1.042
94.4184 2.083
94.4486 1.458
94.4789 1.875
94.5092 1.510
94.5395 1.927
94.5697 2.083
94.6000 2.448
94.6303 1.562
94.6606 1.979
94.6909 1.667
94.7211 2.500
94.7514 1.510
94.7817 1.823
94.8120 2.240
94.8423 2.448
94.8725 2.240
94.9028 2.187
94.9331 2.396
94.9634 2.187
94.9936 2.396
95.0239 2.708
95.0542 2.604
95.0845 3.125
95.1148 2.552
95.1450 3.385
95.1753 2.656
95.2056 2.552
95.2359 2.708
95.2662 2.865
95.2964 2.969
95.3267 2.552
95.3570 2.448
95.3873 2.708
95.4175 2.604
95.4478 2.708
95.4781 1.771
95.5084 1.719
95.5387 2.708
95.5689 1.719
95.5992 2.187
95.6295 1.771
95.6598 2.344
95.6901 1.667
95.7203 1.927
95.7506 2.240
95.7809 1.823
95.8112 1.562
95.8414 1.458
95.8717 1.823
95.9020 1.302
95.9323 1.719
95.9626 1.354
95.9928 1.406
96.0231 1.042
96.0534 1.719
96.0837 1.875
96.1140 1.406
96.1442 1.250
96.1745 1.562
96.2048 1.771
96.2351 1.354
96.2653 1.615
96.2956 1.302
96.3259 1.562
96.3562 1.458
96.3865 0.990
96.4167 1.510
96.4470 1.250
96.4773 1.354
96.5076 1.094
96.5379 1.042
96.5681 1.146
96.5984 1.250
96.6287 1.562
96.6590 1.094
96.6893 1.146
96.7195 1.198
96.7498 1.302
96.7801 1.510
96.8104 1.615
96.8406 1.094
96.8709 1.667
96.9012 0.990
96.9315 1.094
96.9618 1.667
96.9920 1.146
97.0223 0.990
97.0526 1.250
97.0829 1.354
97.1132 0.781
97.1434 1.406
97.1737 1.458
97.2040 1.146
97.2343 1.250
97.2645 1.094
97.2948 1.615
97.3251 1.250
97.3554 1.250
97.3857 1.562
97.4159 1.250
97.4462 0.885
97.4765 1.250
97.5068 1.510
97.5371 1.250
97.5673 1.302
97.5976 1.250
97.6279 1.615
97.6582 1.354
97.6884 1.354
97.7187 2.083
97.7490 1.875
97.7793 1.458
97.8096 1.250
97.8398 1.094
97.8701 1.250
97.9004 2.240
97.9307 1.094
97.9610 1.042
97.9912 0.885
98.0215 1.719
98.0518 1.458
98.0821 1.458
98.1123 1.771
98.1426 1.667
98.1729 1.719
98.2032 1.615
98.2335 1.875
98.2637 1.615
98.2940 2.240
98.3243 2.292
98.3546 2.031
98.3849 2.187
98.4151 1.354
98.4454 1.667
98.4757 2.135
98.5060 2.240
98.5362 2.448
98.5665 1.927
98.5968 2.396
98.6271 2.031
98.6574 1.094
98.6876 1.510
98.7179 2.135
98.7482 1.771
98.7785 1.823
98.8088 1.979
98.8390 2.135
98.8693 1.979
98.8996 1.615
98.9299 1.667
98.9601 2.604
98.9904 1.823
99.0207 1.615
99.0510 1.354
99.0813 1.667
99.1115 1.615
99.1418 1.562
99.1721 1.510
99.2024 1.354
99.2327 1.094
99.2629 1.823
99.2932 1.146
99.3235 1.302
99.3538 1.354
99.3841 1.406
99.4143 1.406
99.4446 0.990
99.4749 1.719
99.5052 1.250
99.5354 1.250
99.5657 1.042
99.5960 1.302
99.6263 0.937
99.6566 1.042
99.6868 1.354
99.7171 1.042
99.7474 1.562
99.7777 1.146
99.8080 1.458
99.8382 1.302
99.8685 1.302
99.8988 0.937
99.9291 1.302
99.9593 1.042
99.9896 1.562
100.0199 1.667
100.0502 1.250
100.0805 0.885
100.1107 1.198
100.1410 1.406
100.1713 1.823
100.2016 1.302
100.2319 1.146
100.2621 1.615
100.2924 0.990
100.3227 1.250
100.3530 1.198
100.3832 1.302
100.4135 1.510
100.4438 1.354
100.4741 1.198
100.5044 1.094
100.5346 1.354
100.5649 1.302
100.5952 0.781
100.6255 1.198
100.6558 1.406
100.6860 1.354
100.7163 1.354
100.7466 1.302
100.7769 1.354
100.8071 1.406
100.8374 1.250
100.8677 0.990
100.8980 1.406
100.9283 1.094
100.9585 1.198
100.9888 1.146
101.0191 1.302
101.0494 1.562
101.0797 1.198
101.1099 1.198
101.1402 1.354
101.1705 0.990
101.2008 1.354
101.2310 1.250
101.2613 1.146
101.2916 1.354
101.3219 1.198
101.3522 1.094
101.3824 1.198
101.4127 1.250
101.4430 1.042
101.4733 1.354
101.5036 0.885
101.5338 1.250
101.5641 1.094
101.5944 1.302
101.6247 2.500
101.6549 0.937
101.6852 1.042
101.7155 1.198
101.7458 1.302
101.7761 1.875
101.8063 1.458
101.8366 1.510
101.8669 1.562
101.8972 0.521
101.9275 1.615
101.9577 0.990
101.9880 1.302
102.0183 1.042
102.0486 1.615
102.0788 0.937
102.1091 1.615
102.1394 1.667
102.1697 1.146
102.2000 1.354
102.2302 1.042
102.2605 1.406
102.2908 1.406
102.3211 2.031
102.3514 2.292
102.3816 1.771
102.4119 1.510
102.4422 1.354
102.4725 1.667
102.5028 1.562
102.5330 2.083
102.5633 1.406
102.5936 1.354
102.6239 1.771
102.6541 1.667
102.6844 1.667
102.7147 1.927
102.7450 1.823
102.7753 1.719
102.8055 2.135
102.8358 1.667
102.8661 2.656
102.8964 1.875
102.9267 1.823
102.9569 1.354
102.9872 2.344
103.0175 1.823
103.0478 1.927
103.0780 2.031
103.1083 1.875
103.1386 1.927
103.1689 1.979
103.1992 2.396
103.2294 1.979
103.2597 1.510
103.2900 1.927
103.3203 1.771
103.3506 1.354
103.3808 1.823
103.4111 1.510
103.4414 1.771
103.4717 1.823
103.5019 1.927
103.5322 2.135
103.5625 2.135
103.5928 2.031
103.6231 2.396
103.6533 1.979
103.6836 1.927
103.7139 1.406
103.7442 2.448
103.7745 2.135
103.8047 1.615
103.8350 2.031
103.8653 1.823
103.8956 2.031
103.9258 2.396
103.9561 2.500
103.9864 2.500
104.0167 2.760
104.0470 2.812
104.0772 2.083
104.1075 3.229
104.1378 2.812
104.1681 2.292
104.1984 2.344
104.2286 2.656
104.2589 2.812
104.2892 1.719
104.3195 3.073
104.3497 2.187
104.3800 2.135
104.4103 2.187
104.4406 1.771
104.4709 1.823
104.5011 1.875
104.5314 1.771
104.5617 2.292
104.5920 2.135
104.6223 2.083
104.6525 1.823
104.6828 1.719
104.7131 1.302
104.7434 1.979
104.7736 1.094
104.8039 1.771
104.8342 1.667
104.8645 1.354
104.8948 1.979
104.9250 1.562
104.9553 1.562
104.9856 1.406
105.0159 1.562
105.0462 0.990
105.0764 1.406
105.1067 1.562
105.1370 1.094
105.1673 1.771
105.1975 1.042
105.2278 1.406
105.2581 1.302
105.2884 1.250
105.3187 1.406
105.3489 1.406
105.3792 1.250
105.4095 1.094
105.4398 0.990
105.4701 1.615
105.5003 1.458
105.5306 1.042
105.5609 1.198
105.5912 0.937
105.6215 1.042
105.6517 0.833
105.6820 1.302
105.7123 1.094
105.7426 1.250
105.7728 1.510
105.8031 0.990
105.8334 1.458
105.8637 1.146
105.8940 1.354
105.9242 1.979
105.9545 1.458
105.9848 1.198
106.0151 1.562
106.0454 1.406
106.0756 1.406
106.1059 1.562
106.1362 1.146
106.1665 0.729
106.1967 1.094
106.2270 1.094
106.2573 1.615
106.2876 1.562
106.3179 1.250
106.3481 1.458
106.3784 1.250
106.4087 1.250
106.4390 0.990
106.4693 1.823
106.4995 1.562
106.5298 0.677
106.5601 1.094
106.5904 1.667
106.6206 0.937
106.6509 1.354
106.6812 1.094
106.7115 1.094
106.7418 0.885
106.7720 1.146
106.8023 1.042
106.8326 1.198
106.8629 0.729
106.8932 0.990
106.9234 1.354
106.9537 0.990
106.9840 1.458
107.0143 1.458
107.0445 1.146
107.0748 0.990
107.1051 1.458
107.1354 1.146
107.1657 1.458
107.1959 0.885
107.2262 0.990
107.2565 1.354
107.2868 1.510
107.3171 1.354
107.3473 1.354
107.3776 1.302
107.4079 1.302
107.4382 0.990
107.4684 1.094
107.4987 1.042
107.5290 1.302
107.5593 0.990
107.5896 1.562
107.6198 1.198
107.6501 1.458
107.6804 1.771
107.7107 1.510
107.7410 1.354
107.7712 1.615
107.8015 1.406
107.8318 1.302
107.8621 1.354
107.8923 1.094
107.9226 1.094
107.9529 1.094
107.9832 1.042
108.0135 1.094
108.0437 1.562
108.0740 1.042
108.1043 1.406
108.1346 1.198
108.1649 1.458
108.1951 1.042
108.2254 1.823
108.2557 1.510
108.2860 1.458
108.3163 1.406
108.3465 1.198
108.3768 0.885
108.4071 1.146
108.4374 1.615
108.4676 0.885
108.4979 1.146
108.5282 1.146
108.5585 1.094
108.5888 0.937
108.6190 1.771
108.6493 1.198
108.6796 0.781
108.7099 1.094
108.7402 0.990
108.7704 1.510
108.8007 1.094
108.8310 1.250
108.8613 1.406
108.8915 1.250
108.9218 1.510
108.9521 1.406
108.9824 1.198
109.0127 1.406
109.0429 1.094
109.0732 1.458
109.1035 1.458
109.1338 1.458
109.1641 1.250
109.1943 1.250
109.2246 1.146
109.2549 1.146
109.2852 1.094
109.3154 0.937
109.3457 1.198
109.3760 1.667
109.4063 1.406
109.4366 1.510
109.4668 1.458
109.4971 1.094
109.5274 1.250
109.5577 1.354
109.5880 1.146
109.6182 1.094
109.6485 1.250
109.6788 1.354
109.7091 1.354
109.7393 1.562
109.7696 1.927
109.7999 1.823
109.8302 2.240
109.8605 1.406
109.8907 1.458
109.9210 1.562
109.9513 1.406
109.9816 1.354
110.0119 1.146
110.0421 1.562
110.0724 2.083
110.1027 2.240
110.1330 1.458
110.1632 1.667
110.1935 1.927
110.2238 1.823
110.2541 1.615
110.2844 1.979
110.3146 1.875
110.3449 1.771
110.3752 1.927
110.4055 1.510
110.4358 1.823
110.4660 1.979
110.4963 1.719
110.5266 1.458
110.5569 2.448
110.5871 1.615
110.6174 1.875
110.6477 1.042
110.6780 2.135
110.7083 1.979
110.7385 1.823
110.7688 1.562
110.7991 1.406
110.8294 1.615
110.8597 1.771
110.8899 1.823
110.9202 1.510
110.9505 1.875
110.9808 1.927
111.0110 1.510
111.0413 1.927
111.0716 1.615
111.1019 0.990
111.1322 1.250
111.1624 1.823
111.1927 1.615
111.2230 2.083
111.2533 1.354
111.2836 0.990
111.3138 1.250
111.3441 1.250
111.3744 1.198
111.4047 1.354
111.4350 1.406
111.4652 1.198
111.4955 1.667
111.5258 1.406
111.5561 1.250
111.5863 1.198
111.6166 0.990
111.6469 1.198
111.6772 1.042
111.7075 0.885
111.7377 0.937
111.7680 1.146
111.7983 1.146
111.8286 0.990
111.8589 1.510
111.8891 0.990
111.9194 1.094
111.9497 1.198
111.9800 1.146
112.0102 1.302
112.0405 1.302
112.0708 1.406
112.1011 1.771
112.1314 1.458
112.1616 1.406
112.1919 1.198
112.2222 1.406
112.2525 1.302
112.2828 1.302
112.3130 1.146
112.3433 0.990
112.3736 1.094
112.4039 1.146
112.4341 1.302
112.4644 0.990
112.4947 1.042
112.5250 1.510
112.5553 1.146
112.5855 1.250
112.6158 1.198
112.6461 1.302
112.6764 1.406
112.7067 1.719
112.7369 1.562
112.7672 1.042
112.7975 1.042
112.8278 1.042
112.8580 1.146
112.8883 1.302
112.9186 1.354
112.9489 1.250
112.9792 1.094
113.0094 1.042
113.0397 1.146
113.0700 1.094
113.1003 1.146
113.1306 1.406
113.1608 1.458
113.1911 0.781
113.2214 1.562
113.2517 1.042
113.2819 1.094
113.3122 1.250
113.3425 1.146
113.3728 1.198
113.4031 1.146
113.4333 0.885
113.4636 1.198
113.4939 1.094
113.5242 1.458
113.5545 1.510
113.5847 1.510
113.6150 1.250
113.6453 1.615
113.6756 1.615
113.7058 0.833
113.7361 0.937
113.7664 1.146
113.7967 1.146
113.8270 1.146
113.8572 1.771
113.8875 1.458
113.9178 1.146
113.9481 1.198
113.9784 1.146
114.0086 1.823
114.0389 1.250
114.0692 1.250
114.0995 1.094
114.1298 1.146
114.1600 1.094
114.1903 0.885
114.2206 1.302
114.2509 0.885
114.2811 1.458
114.3114 1.198
114.3417 1.094
114.3720 0.885
114.4023 1.198
114.4325 1.562
114.4628 1.146
114.4931 1.562
114.5234 1.042
114.5537 1.771
114.5839 2.083
114.6142 1.146
114.6445 1.615
114.6748 1.302
114.7050 1.354
114.7353 1.719
114.7656 1.458
114.7959 1.198
114.8262 1.198
114.8564 1.198
114.8867 1.562
114.9170 1.354
114.9473 1.458
114.9776 1.667
115.0078 1.458
115.0381 1.615
115.0684 1.615
115.0987 1.615
115.1289 1.510
115.1592 1.354
115.1895 1.979
115.2198 1.562
115.2501 1.406
115.2803 1.146
115.3106 0.990
115.3409 2.083
115.3712 1.875
115.4015 1.719
115.4317 1.979
115.4620 1.771
115.4923 2.135
115.5226 2.083
115.5528 1.875
115.5831 1.823
115.6134 1.979
115.6437 2.187
115.6740 2.292
115.7042 2.083
115.7345 1.823
115.7648 2.500
115.7951 2.656
115.8254 2.187
115.8556 2.448
115.8859 2.552
115.9162 2.083
115.9465 1.823
115.9767 2.708
116.0070 3.125
116.0373 1.615
116.0676 2.708
116.0979 2.917
116.1281 2.708
116.1584 2.448
116.1887 2.396
116.2190 2.083
116.2493 2.812
116.2795 1.927
116.3098 1.927
116.3401 2.552
116.3704 2.865
116.4006 2.604
116.4309 2.500
116.4612 1.927
116.4915 2.187
116.5218 2.500
116.5520 3.229
116.5823 2.500
116.6126 2.604
116.6429 2.292
116.6732 1.979
116.7034 2.292
116.7337 2.083
116.7640 2.083
116.7943 2.083
116.8245 2.552
116.8548 2.187
116.8851 2.187
116.9154 1.719
116.9457 1.458
116.9759 1.719
117.0062 1.615
117.0365 1.875
117.0668 1.354
117.0971 1.615
117.1273 1.458
117.1576 1.823
117.1879 1.406
117.2182 2.187
117.2485 1.823
117.2787 1.302
117.3090 2.083
117.3393 1.771
117.3696 1.562
117.3998 1.406
117.4301 1.562
117.4604 1.667
117.4907 1.094
117.5210 1.823
117.5512 1.667
117.5815 1.615
117.6118 1.615
117.6421 1.615
117.6724 1.250
117.7026 1.875
117.7329 1.198
117.7632 1.719
117.7935 1.406
117.8237 1.302
117.8540 1.927
117.8843 1.615
117.9146 1.146
117.9449 1.354
117.9751 1.146
118.0054 1.615
118.0357 1.406
118.0660 1.615
118.0963 1.250
118.1265 1.094
118.1568 0.937
118.1871 1.458
118.2174 0.990
118.2476 1.250
118.2779 1.250
118.3082 1.615
118.3385 0.833
118.3688 1.458
118.3990 1.406
118.4293 1.510
118.4596 1.719
118.4899 1.927
118.5202 1.198
118.5504 1.250
118.5807 1.406
118.6110 1.302
118.6413 1.458
118.6715 1.406
118.7018 1.302
118.7321 1.615
118.7624 1.250
118.7927 1.250
118.8229 1.354
118.8532 1.146
118.8835 1.042
118.9138 1.042
118.9441 1.562
118.9743 1.510
119.0046 1.250
119.0349 1.146
119.0652 1.302
119.0954 0.833
119.1257 1.458
119.1560 1.354
119.1863 1.406
119.2166 1.875
119.2468 1.146
119.2771 1.406
119.3074 1.198
119.3377 1.198
119.3680 0.937
119.3982 1.146
119.4285 1.198
119.4588 0.833
119.4891 2.083
119.5193 1.302
119.5496 0.937
119.5799 1.510
119.6102 1.354
119.6405 1.094
119.6707 1.510
119.7010 1.354
119.7313 1.094
119.7616 1.302
119.7919 1.354
119.8221 1.302
119.8524 1.615
119.8827 1.302
119.9130 1.094
119.9433 1.094
119.9735 1.302
120.0038 1.875
