'Id: "" Comment: "" Operator: "Lab Manager" Anode: "Cu" Scantype: "Locked Coupled" TimePerStep: "19.2" X: "9999" Y: "9999" Z: "9999" 
10.0015 4.010
10.0318 2.552
10.0620 3.854
10.0923 4.115
10.1226 4.062
10.1529 3.646
10.1832 4.531
10.2134 4.687
10.2437 4.010
10.2740 4.531
10.3043 4.167
10.3346 3.125
10.3648 4.844
10.3951 3.750
10.4254 4.479
10.4557 3.906
10.4859 3.750
10.5162 3.698
10.5465 3.490
10.5768 3.437
10.6071 3.802
10.6373 4.062
10.6676 4.167
10.6979 4.687
10.7282 3.906
10.7585 4.687
10.7887 4.740
10.8190 4.583
10.8493 5.417
10.8796 5.781
10.9098 7.448
10.9401 7.708
10.9704 8.958
11.0007 9.583
11.0310 10.729
11.0612 11.927
11.0915 11.615
11.1218 11.406
11.1521 10.573
11.1824 9.792
11.2126 9.219
11.2429 6.406
11.2732 5.365
11.3035 5.885
11.3337 4.271
11.3640 4.219
11.3943 4.427
11.4246 3.854
11.4549 4.948
11.4851 3.125
11.5154 4.062
11.5457 3.802
11.5760 3.490
11.6063 4.948
11.6365 3.385
11.6668 3.906
11.6971 4.531
11.7274 4.115
11.7577 5.000
11.7879 3.854
11.8182 3.333
11.8485 3.906
11.8788 4.010
11.9090 3.437
11.9393 4.427
11.9696 2.760
11.9999 4.167
12.0302 3.333
12.0604 3.490
12.0907 2.240
12.1210 3.750
12.1513 3.437
12.1816 3.542
12.2118 3.177
12.2421 3.906
12.2724 3.177
12.3027 2.969
12.3329 4.323
12.3632 3.437
12.3935 3.281
12.4238 3.333
12.4541 3.854
12.4843 3.802
12.5146 2.812
12.5449 3.229
12.5752 3.177
12.6055 3.594
12.6357 3.333
12.6660 3.385
12.6963 4.010
12.7266 2.812
12.7568 3.594
12.7871 3.594
12.8174 3.385
12.8477 2.969
12.8780 3.750
12.9082 3.698
12.9385 3.385
12.9688 4.062
12.9991 3.750
13.0294 3.021
13.0596 3.802
13.0899 2.865
13.1202 3.646
13.1505 3.385
13.1807 3.854
13.2110 3.281
13.2413 3.125
13.2716 3.333
13.3019 2.812
13.3321 3.958
13.3624 2.656
13.3927 2.969
13.4230 3.125
13.4533 3.177
13.4835 2.760
13.5138 2.760
13.5441 3.021
13.5744 3.229
13.6046 2.969
13.6349 2.552
13.6652 3.021
13.6955 2.604
13.7258 2.865
13.7560 3.437
13.7863 3.385
13.8166 3.177
13.8469 2.708
13.8772 3.437
13.9074 2.292
13.9377 3.750
13.9680 3.490
13.9983 3.437
14.0285 2.760
14.0588 3.281
14.0891 3.073
14.1194 2.917
14.1497 2.812
14.1799 3.021
14.2102 2.812
14.2405 3.281
14.2708 2.865
14.3011 2.344
14.3313 3.281
14.3616 2.500
14.3919 3.125
14.4222 2.969
14.4524 2.865
14.4827 2.604
14.5130 2.344
14.5433 3.177
14.5736 3.490
14.6038 2.552
14.6341 2.604
14.6644 3.594
14.6947 2.344
14.7250 1.979
14.7552 2.292
14.7855 2.969
14.8158 3.021
14.8461 2.344
14.8764 2.865
14.9066 2.760
14.9369 2.552
14.9672 2.552
14.9975 2.552
15.0277 3.177
15.0580 2.656
15.0883 2.500
15.1186 2.448
15.1489 3.177
15.1791 2.448
15.2094 3.698
15.2397 2.969
15.2700 2.604
15.3003 2.240
15.3305 2.552
15.3608 2.135
15.3911 3.646
15.4214 2.917
15.4516 2.135
15.4819 2.760
15.5122 2.552
15.5425 3.385
15.5728 3.750
15.6030 2.500
15.6333 3.177
15.6636 3.021
15.6939 2.708
15.7242 3.177
15.7544 2.135
15.7847 2.812
15.8150 2.969
15.8453 2.552
15.8755 2.708
15.9058 2.969
15.9361 2.969
15.9664 2.760
15.9967 2.448
16.0269 2.969
16.0572 2.760
16.0875 2.552
16.1178 2.552
16.1481 2.917
16.1783 2.552
16.2086 3.229
16.2389 2.656
16.2692 1.875
16.2994 3.021
16.3297 2.240
16.3600 3.125
16.3903 2.917
16.4206 2.760
16.4508 2.917
16.4811 2.760
16.5114 2.500
16.5417 2.917
16.5720 2.708
16.6022 2.865
16.6325 3.437
16.6628 3.177
16.6931 2.760
16.7233 2.865
16.7536 2.812
16.7839 2.865
16.8142 2.552
16.8445 2.448
16.8747 3.437
16.9050 2.552
16.9353 2.760
16.9656 2.865
16.9959 2.240
17.0261 3.333
17.0564 1.615
17.0867 2.760
17.1170 2.760
17.1472 2.969
17.1775 2.031
17.2078 2.187
17.2381 2.031
17.2684 3.021
17.2986 2.187
17.3289 2.969
17.3592 2.917
17.3895 2.135
17.4198 2.552
17.4500 2.292
17.4803 2.865
17.5106 2.604
17.5409 2.344
17.5712 2.656
17.6014 2.917
17.6317 2.604
17.6620 2.344
17.6923 2.708
17.7225 2.760
17.7528 2.917
17.7831 2.292
17.8134 2.344
17.8437 2.865
17.8739 2.031
17.9042 1.979
17.9345 2.708
17.9648 2.865
17.9951 2.292
18.0253 2.344
18.0556 2.396
18.0859 2.292
18.1162 3.125
18.1464 2.708
18.1767 1.979
18.2070 2.292
18.2373 2.604
18.2676 2.760
18.2978 2.552
18.3281 1.771
18.3584 2.917
18.3887 2.917
18.4190 2.187
18.4492 1.771
18.4795 2.656
18.5098 2.240
18.5401 2.552
18.5703 2.708
18.6006 1.823
18.6309 3.021
18.6612 1.615
18.6915 2.552
18.7217 2.187
18.7520 2.812
18.7823 1.615
18.8126 3.125
18.8429 1.927
18.8731 3.021
18.9034 2.760
18.9337 2.552
18.9640 2.969
18.9942 2.552
19.0245 2.240
19.0548 1.771
19.0851 2.344
19.1154 2.292
19.1456 2.969
19.1759 2.240
19.2062 2.292
19.2365 2.135
19.2668 2.344
19.2970 1.875
19.3273 1.667
19.3576 2.240
19.3879 1.823
19.4181 2.240
19.4484 2.760
19.4787 2.187
19.5090 2.396
19.5393 2.552
19.5695 2.344
19.5998 1.615
19.6301 2.865
19.6604 3.281
19.6907 2.031
19.7209 2.187
19.7512 2.240
19.7815 2.292
19.8118 2.500
19.8420 1.667
19.8723 2.917
19.9026 2.396
19.9329 2.656
19.9632 2.552
19.9934 2.031
20.0237 2.292
20.0540 2.396
20.0843 2.552
20.1146 2.708
20.1448 2.500
20.1751 2.344
20.2054 2.344
20.2357 2.292
20.2659 2.135
20.2962 2.552
20.3265 2.552
20.3568 2.031
20.3871 2.031
20.4173 2.500
20.4476 1.927
20.4779 2.083
20.5082 1.823
20.5385 1.562
20.5687 2.187
20.5990 1.771
20.6293 2.292
20.6596 2.240
20.6899 2.031
20.7201 2.396
20.7504 2.812
20.7807 1.875
20.8110 1.875
20.8412 2.135
20.8715 2.500
20.9018 2.135
20.9321 2.031
20.9624 1.667
20.9926 2.448
21.0229 2.135
21.0532 2.292
21.0835 1.875
21.1138 2.187
21.1440 2.135
21.1743 2.500
21.2046 2.083
21.2349 2.552
21.2651 2.292
21.2954 1.875
21.3257 1.979
21.3560 2.240
21.3863 2.240
21.4165 2.240
21.4468 2.187
21.4771 2.083
21.5074 2.500
21.5377 2.500
21.5679 1.406
21.5982 2.760
21.6285 2.604
21.6588 2.344
21.6890 1.510
21.7193 1.927
21.7496 2.396
21.7799 1.823
21.8102 2.344
21.8404 2.292
21.8707 2.500
21.9010 2.083
21.9313 2.760
21.9616 1.927
21.9918 2.552
22.0221 1.771
22.0524 2.187
22.0827 1.979
22.1129 2.187
22.1432 2.187
22.1735 2.344
22.2038 2.344
22.2341 2.552
22.2643 2.812
22.2946 3.229
22.3249 2.500
22.3552 1.979
22.3855 2.292
22.4157 2.865
22.4460 1.979
22.4763 2.240
22.5066 2.187
22.5368 2.031
22.5671 3.021
22.5974 2.344
22.6277 2.448
22.6580 1.979
22.6882 2.292
22.7185 2.656
22.7488 1.823
22.7791 2.448
22.8094 1.823
22.8396 2.083
22.8699 2.344
22.9002 2.031
22.9305 2.448
22.9607 2.187
22.9910 2.344
23.0213 2.448
23.0516 2.396
23.0819 2.917
23.1121 2.760
23.1424 2.344
23.1727 2.135
23.2030 3.073
23.2333 2.135
23.2635 2.396
23.2938 2.448
23.3241 2.448
23.3544 2.083
23.3846 1.719
23.4149 2.187
23.4452 2.604
23.4755 2.448
23.5058 1.979
23.5360 1.719
23.5663 2.604
23.5966 2.396
23.6269 1.823
23.6572 2.292
23.6874 2.500
23.7177 2.187
23.7480 2.760
23.7783 1.667
23.8086 1.823
23.8388 2.187
23.8691 2.500
23.8994 2.083
23.9297 2.396
23.9599 2.135
23.9902 2.500
24.0205 2.604
24.0508 2.083
24.0811 1.927
24.1113 2.917
24.1416 2.708
24.1719 1.615
24.2022 1.979
24.2325 2.344
24.2627 2.031
24.2930 1.823
24.3233 1.719
24.3536 1.979
24.3838 2.344
24.4141 2.500
24.4444 2.083
24.4747 2.240
24.5050 2.708
24.5352 2.865
24.5655 1.719
24.5958 1.823
24.6261 1.719
24.6564 2.708
24.6866 2.604
24.7169 2.031
24.7472 2.396
24.7775 2.083
24.8077 1.927
24.8380 1.667
24.8683 2.344
24.8986 1.979
24.9289 1.510
24.9591 2.240
24.9894 1.927
25.0197 1.927
25.0500 2.135
25.0803 2.552
25.1105 2.552
25.1408 2.396
25.1711 1.927
25.2014 1.562
25.2316 1.562
25.2619 2.083
25.2922 2.083
25.3225 1.719
25.3528 2.552
25.3830 2.240
25.4133 2.187
25.4436 2.917
25.4739 2.240
25.5042 2.500
25.5344 2.031
25.5647 2.135
25.5950 2.292
25.6253 2.031
25.6555 2.187
25.6858 2.031
25.7161 1.823
25.7464 2.396
25.7767 2.760
25.8069 2.135
25.8372 2.240
25.8675 2.083
25.8978 1.719
25.9281 2.083
25.9583 2.865
25.9886 1.615
26.0189 1.875
26.0492 1.823
26.0794 2.135
26.1097 1.823
26.1400 2.552
26.1703 2.083
26.2006 2.969
26.2308 2.135
26.2611 1.771
26.2914 1.979
26.3217 2.083
26.3520 1.562
26.3822 1.979
26.4125 2.344
26.4428 1.719
26.4731 2.292
26.5034 1.927
26.5336 2.396
26.5639 1.562
26.5942 2.448
26.6245 2.292
26.6547 2.135
26.6850 2.031
26.7153 2.448
26.7456 1.615
26.7759 2.344
26.8061 2.396
26.8364 2.708
26.8667 2.083
26.8970 2.292
26.9273 2.240
26.9575 2.656
26.9878 1.927
27.0181 1.927
27.0484 2.187
27.0786 2.292
27.1089 1.667
27.1392 2.187
27.1695 1.927
27.1998 2.448
27.2300 2.552
27.2603 2.969
27.2906 2.552
27.3209 2.344
27.3512 2.344
27.3814 2.396
27.4117 2.292
27.4420 2.812
27.4723 2.969
27.5025 2.396
27.5328 2.187
27.5631 2.552
27.5934 2.448
27.6237 2.396
27.6539 2.292
27.6842 2.760
27.7145 1.875
27.7448 2.292
27.7751 2.240
27.8053 2.500
27.8356 2.240
27.8659 2.656
27.8962 2.760
27.9264 2.448
27.9567 1.615
27.9870 2.344
28.0173 2.031
28.0476 2.708
28.0778 2.396
28.1081 2.396
28.1384 2.135
28.1687 2.865
28.1990 2.240
28.2292 2.604
28.2595 2.396
28.2898 1.875
28.3201 1.875
28.3503 2.865
28.3806 2.708
28.4109 2.760
28.4412 2.604
28.4715 3.177
28.5017 2.604
28.5320 2.292
28.5623 2.604
28.5926 2.604
28.6229 2.083
28.6531 2.135
28.6834 2.292
28.7137 2.708
28.7440 2.187
28.7742 2.500
28.8045 2.604
28.8348 2.552
28.8651 2.812
28.8954 2.396
28.9256 1.979
28.9559 2.760
28.9862 1.979
29.0165 2.083
29.0468 2.812
29.0770 2.344
29.1073 2.552
29.1376 2.396
29.1679 3.177
29.1981 2.344
29.2284 2.344
29.2587 2.604
29.2890 2.708
29.3193 2.917
29.3495 1.979
29.3798 2.604
29.4101 2.448
29.4404 2.708
29.4707 2.760
29.5009 2.552
29.5312 3.542
29.5615 2.344
29.5918 3.437
29.6221 3.177
29.6523 2.760
29.6826 2.812
29.7129 2.292
29.7432 2.396
29.7734 2.865
29.8037 2.760
29.8340 3.073
29.8643 2.708
29.8946 2.760
29.9248 3.490
29.9551 3.542
29.9854 2.552
30.0157 3.021
30.0460 3.542
30.0762 2.448
30.1065 3.698
30.1368 3.177
30.1671 3.125
30.1973 3.542
30.2276 3.229
30.2579 3.750
30.2882 3.073
30.3185 3.333
30.3487 3.281
30.3790 3.594
30.4093 3.490
30.4396 3.906
30.4699 4.115
30.5001 3.385
30.5304 4.583
30.5607 4.271
30.5910 3.281
30.6212 3.958
30.6515 4.427
30.6818 4.323
30.7121 4.948
30.7424 4.687
30.7726 4.167
30.8029 4.792
30.8332 4.323
30.8635 5.729
30.8938 5.104
30.9240 5.573
30.9543 5.312
30.9846 6.979
31.0149 6.979
31.0451 7.083
31.0754 7.656
31.1057 7.292
31.1360 8.750
31.1663 8.281
31.1965 8.906
31.2268 9.687
31.2571 10.937
31.2874 12.760
31.3177 13.542
31.3479 15.625
31.3782 18.646
31.4085 19.115
31.4388 22.708
31.4690 24.167
31.4993 28.073
31.5296 29.323
31.5599 32.240
31.5902 34.844
31.6204 36.667
31.6507 33.854
31.6810 29.896
31.7113 31.823
31.7416 29.792
31.7718 23.906
31.8021 23.177
31.8324 18.594
31.8627 18.281
31.8929 17.396
31.9232 15.260
31.9535 11.198
31.9838 12.656
32.0141 9.531
32.0443 9.687
32.0746 10.365
32.1049 8.021
32.1352 8.021
32.1655 7.917
32.1957 7.760
32.2260 6.354
32.2563 7.187
32.2866 6.250
32.3169 5.781
32.3471 4.896
32.3774 4.896
32.4077 6.406
32.4380 6.146
32.4682 3.646
32.4985 4.062
32.5288 5.260
32.5591 4.844
32.5894 5.052
32.6196 4.271
32.6499 4.740
32.6802 4.479
32.7105 4.427
32.7408 4.531
32.7710 4.740
32.8013 5.417
32.8316 4.010
32.8619 4.531
32.8921 4.219
32.9224 3.333
32.9527 3.802
32.9830 4.062
33.0133 4.792
33.0435 4.062
33.0738 3.490
33.1041 3.385
33.1344 4.219
33.1647 3.906
33.1949 3.490
33.2252 4.271
33.2555 4.062
33.2858 4.219
33.3160 4.115
33.3463 4.062
33.3766 4.115
33.4069 4.740
33.4372 4.427
33.4674 5.000
33.4977 4.583
33.5280 4.271
33.5583 4.323
33.5886 4.687
33.6188 3.594
33.6491 4.948
33.6794 4.740
33.7097 4.792
33.7399 6.094
33.7702 6.510
33.8005 5.573
33.8308 5.729
33.8611 6.302
33.8913 6.354
33.9216 8.385
33.9519 7.865
33.9822 8.854
34.0125 9.844
34.0427 10.885
34.0730 12.604
34.1033 14.635
34.1336 18.229
34.1638 23.125
34.1941 27.187
34.2244 35.990
34.2547 43.073
34.2850 42.292
34.3152 40.677
34.3455 38.750
34.3758 32.292
34.4061 24.635
34.4364 18.750
34.4666 16.354
34.4969 13.854
34.5272 12.708
34.5575 11.146
34.5877 9.687
34.6180 7.708
34.6483 8.490
34.6786 6.302
34.7089 5.833
34.7391 7.708
34.7694 5.885
34.7997 5.781
34.8300 6.042
34.8603 5.990
34.8905 6.771
34.9208 5.937
34.9511 5.625
34.9814 7.031
35.0116 5.833
35.0419 6.458
35.0722 5.729
35.1025 5.104
35.1328 5.417
35.1630 6.510
35.1933 4.896
35.2236 6.354
35.2539 6.302
35.2842 6.510
35.3144 6.250
35.3447 6.302
35.3750 6.406
35.4053 6.562
35.4356 7.344
35.4658 6.719
35.4961 7.917
35.5264 8.229
35.5567 8.698
35.5869 10.104
35.6172 10.833
35.6475 12.448
35.6778 11.979
35.7081 11.771
35.7383 13.021
35.7686 15.052
35.7989 17.708
35.8292 20.625
35.8595 21.927
35.8897 23.854
35.9200 26.927
35.9503 31.510
35.9806 32.396
36.0108 39.323
36.0411 43.281
36.0714 45.052
36.1017 50.052
36.1320 50.990
36.1622 43.594
36.1925 43.177
36.2228 42.187
36.2531 38.594
36.2834 33.021
36.3136 29.635
36.3439 24.635
36.3742 20.990
36.4045 18.646
36.4347 17.292
36.4650 15.417
36.4953 13.802
36.5256 12.187
36.5559 11.927
36.5861 10.781
36.6164 10.052
36.6467 8.073
36.6770 9.219
36.7073 7.135
36.7375 7.500
36.7678 6.823
36.7981 6.406
36.8284 6.094
36.8586 5.729
36.8889 5.521
36.9192 6.042
36.9495 4.792
36.9798 4.062
37.0100 4.844
37.0403 4.375
37.0706 4.062
37.1009 3.437
37.1312 4.062
37.1614 4.115
37.1917 3.333
37.2220 3.281
37.2523 3.750
37.2825 4.271
37.3128 3.229
37.3431 3.437
37.3734 3.958
37.4037 3.490
37.4339 3.437
37.4642 2.604
37.4945 2.812
37.5248 3.906
37.5551 2.917
37.5853 2.865
37.6156 2.396
37.6459 2.292
37.6762 3.021
37.7064 3.073
37.7367 2.708
37.7670 2.292
37.7973 2.812
37.8276 3.125
37.8578 3.021
37.8881 3.333
37.9184 3.385
37.9487 2.240
37.9790 1.927
38.0092 2.708
38.0395 2.396
38.0698 3.594
38.1001 2.552
38.1304 2.240
38.1606 2.604
38.1909 3.333
38.2212 1.771
38.2515 2.292
38.2817 2.396
38.3120 1.667
38.3423 1.250
38.3726 2.083
38.4029 1.927
38.4331 1.719
38.4634 2.031
38.4937 2.240
38.5240 2.031
38.5543 2.708
38.5845 2.135
38.6148 2.292
38.6451 2.656
38.6754 2.292
38.7056 2.448
38.7359 1.979
38.7662 2.396
38.7965 1.979
38.8268 1.406
38.8570 1.823
38.8873 1.667
38.9176 2.292
38.9479 1.979
38.9782 1.615
39.0084 2.083
39.0387 1.979
39.0690 2.135
39.0993 1.823
39.1295 1.771
39.1598 1.719
39.1901 2.031
39.2204 1.719
39.2507 1.927
39.2809 2.344
39.3112 1.771
39.3415 1.458
39.3718 1.042
39.4021 1.615
39.4323 1.927
39.4626 1.979
39.4929 1.354
39.5232 2.083
39.5534 2.083
39.5837 1.979
39.6140 2.292
39.6443 1.719
39.6746 1.198
39.7048 1.771
39.7351 1.771
39.7654 1.354
39.7957 1.823
39.8260 1.458
39.8562 1.562
39.8865 1.719
39.9168 1.667
39.9471 2.083
39.9773 1.510
40.0076 2.344
40.0379 1.615
40.0682 0.833
40.0985 1.823
40.1287 1.562
40.1590 1.927
40.1893 1.719
40.2196 1.823
40.2499 1.458
40.2801 1.354
40.3104 1.927
40.3407 1.875
40.3710 1.875
40.4012 1.927
40.4315 1.979
40.4618 1.094
40.4921 1.510
40.5224 1.458
40.5526 1.198
40.5829 1.562
40.6132 1.927
40.6435 1.302
40.6738 1.875
40.7040 1.719
40.7343 1.615
40.7646 1.615
40.7949 1.875
40.8251 1.875
40.8554 1.667
40.8857 2.031
40.9160 1.562
40.9463 1.667
40.9765 1.771
41.0068 1.406
41.0371 1.771
41.0674 1.823
41.0977 1.198
41.1279 1.302
41.1582 1.719
41.1885 1.615
41.2188 1.198
41.2491 1.667
41.2793 1.354
41.3096 1.354
41.3399 1.927
41.3702 1.250
41.4004 1.510
41.4307 1.510
41.4610 1.615
41.4913 1.458
41.5216 1.458
41.5518 1.094
41.5821 1.042
41.6124 0.937
41.6427 1.771
41.6730 1.302
41.7032 1.406
41.7335 2.187
41.7638 1.458
41.7941 1.250
41.8243 1.667
41.8546 1.354
41.8849 0.885
41.9152 2.083
41.9455 1.771
41.9757 1.510
42.0060 1.823
42.0363 1.406
42.0666 1.406
42.0969 1.615
42.1271 1.250
42.1574 1.719
42.1877 1.458
42.2180 1.615
42.2482 1.250
42.2785 1.615
42.3088 1.562
42.3391 0.885
42.3694 1.510
42.3996 1.406
42.4299 1.562
42.4602 1.510
42.4905 1.250
42.5208 2.031
42.5510 1.354
42.5813 0.729
42.6116 1.354
42.6419 1.406
42.6721 1.354
42.7024 1.667
42.7327 1.615
42.7630 1.823
42.7933 2.031
42.8235 1.510
42.8538 1.615
42.8841 1.458
42.9144 1.302
42.9447 1.771
42.9749 2.240
43.0052 1.510
43.0355 1.198
43.0658 1.510
43.0960 1.510
43.1263 1.771
43.1566 1.510
43.1869 1.510
43.2172 1.198
43.2474 1.615
43.2777 1.510
43.3080 1.302
43.3383 1.667
43.3686 1.615
43.3988 1.146
43.4291 1.198
43.4594 1.354
43.4897 1.562
43.5199 1.406
43.5502 1.927
43.5805 1.771
43.6108 1.250
43.6411 1.719
43.6713 1.198
43.7016 1.458
43.7319 0.990
43.7622 1.458
43.7925 1.458
43.8227 1.615
43.8530 1.823
43.8833 1.406
43.9136 1.354
43.9439 1.406
43.9741 2.135
44.0044 1.823
44.0347 1.042
44.0650 1.510
44.0952 1.615
44.1255 1.510
44.1558 1.771
44.1861 1.354
44.2164 1.094
44.2466 1.562
44.2769 1.771
44.3072 1.719
44.3375 1.458
44.3678 1.667
44.3980 1.771
44.4283 1.615
44.4586 1.510
44.4889 0.937
44.5191 1.667
44.5494 1.302
44.5797 1.354
44.6100 1.146
44.6403 1.615
44.6705 1.354
44.7008 1.562
44.7311 1.250
44.7614 1.354
44.7917 1.406
44.8219 1.510
44.8522 1.562
44.8825 1.302
44.9128 1.146
44.9430 1.146
44.9733 1.302
45.0036 1.458
45.0339 2.344
45.0642 1.979
45.0944 1.667
45.1247 1.667
45.1550 1.562
45.1853 1.302
45.2156 1.510
45.2458 1.927
45.2761 1.667
45.3064 1.823
45.3367 2.083
45.3669 1.458
45.3972 1.667
45.4275 1.875
45.4578 2.083
45.4881 1.667
45.5183 1.042
45.5486 1.667
45.5789 1.302
45.6092 1.458
45.6395 1.198
45.6697 2.135
45.7000 1.927
45.7303 1.406
45.7606 1.354
45.7908 1.615
45.8211 1.719
45.8514 1.406
45.8817 1.719
45.9120 1.875
45.9422 1.562
45.9725 1.615
46.0028 1.302
46.0331 1.719
46.0634 1.458
46.0936 1.562
46.1239 1.979
46.1542 1.875
46.1845 1.979
46.2147 2.187
46.2450 1.979
46.2753 1.458
46.3056 1.823
46.3359 1.719
46.3661 1.562
46.3964 2.656
46.4267 1.615
46.4570 1.875
46.4873 2.344
46.5175 1.979
46.5478 1.927
46.5781 2.083
46.6084 2.448
46.6386 2.396
46.6689 2.760
46.6992 2.396
46.7295 2.552
46.7598 2.708
46.7900 2.708
46.8203 2.344
46.8506 2.552
46.8809 2.500
46.9112 3.281
46.9414 2.760
46.9717 3.437
47.0020 4.427
47.0323 3.958
47.0626 4.479
47.0928 4.792
47.1231 5.521
47.1534 5.990
47.1837 6.406
47.2139 6.354
47.2442 7.292
47.2745 7.552
47.3048 8.906
47.3351 9.271
47.3653 9.687
47.3956 9.687
47.4259 11.146
47.4562 9.271
47.4865 9.219
47.5167 9.115
47.5470 9.115
47.5773 7.448
47.6076 6.875
47.6378 6.823
47.6681 5.521
47.6984 4.167
47.7287 5.156
47.7590 4.479
47.7892 4.219
47.8195 3.281
47.8498 3.750
47.8801 2.865
47.9104 3.125
47.9406 2.865
47.9709 2.917
48.0012 2.448
48.0315 2.604
48.0617 2.344
48.0920 2.031
48.1223 2.135
48.1526 2.552
48.1829 1.979
48.2131 2.344
48.2434 1.510
48.2737 1.823
48.3040 1.823
48.3343 1.875
48.3645 1.875
48.3948 1.406
48.4251 1.927
48.4554 2.031
48.4856 1.771
48.5159 1.562
48.5462 1.354
48.5765 1.615
48.6068 2.240
48.6370 2.031
48.6673 1.771
48.6976 1.354
48.7279 1.927
48.7582 2.031
48.7884 1.406
48.8187 1.510
48.8490 1.615
48.8793 1.823
48.9095 1.458
48.9398 1.771
48.9701 1.146
49.0004 1.875
49.0307 1.719
49.0609 1.354
49.0912 1.302
49.1215 1.198
49.1518 1.354
49.1821 1.771
49.2123 1.302
49.2426 1.406
49.2729 1.615
49.3032 1.562
49.3334 1.458
49.3637 1.875
49.3940 1.458
49.4243 0.937
49.4546 2.031
49.4848 2.187
49.5151 1.719
49.5454 1.510
49.5757 1.354
49.6060 1.927
49.6362 1.615
49.6665 1.667
49.6968 1.562
49.7271 1.406
49.7574 1.771
49.7876 1.927
49.8179 1.771
49.8482 1.927
49.8785 1.719
49.9087 1.094
49.9390 1.302
49.9693 2.344
49.9996 1.458
50.0299 1.823
50.0601 1.562
50.0904 2.031
50.1207 1.042
50.1510 1.719
50.1813 1.406
50.2115 1.302
50.2418 0.885
50.2721 1.406
50.3024 1.250
50.3326 1.771
50.3629 1.458
50.3932 1.250
50.4235 1.771
50.4538 0.990
50.4840 1.562
50.5143 1.667
50.5446 1.719
50.5749 1.667
50.6052 1.615
50.6354 1.042
50.6657 1.927
50.6960 1.771
50.7263 1.250
50.7565 1.667
50.7868 1.458
50.8171 2.083
50.8474 1.458
50.8777 1.562
50.9079 1.458
50.9382 1.406
50.9685 1.250
50.9988 1.927
51.0291 0.990
51.0593 1.458
51.0896 1.562
51.1199 1.406
51.1502 1.562
51.1804 2.031
51.2107 1.094
51.2410 1.354
51.2713 1.406
51.3016 1.510
51.3318 1.406
51.3621 1.146
51.3924 1.771
51.4227 1.406
51.4530 1.042
51.4832 1.406
51.5135 1.823
51.5438 1.875
51.5741 1.510
51.6043 1.146
51.6346 1.250
51.6649 1.719
51.6952 1.771
51.7255 1.615
51.7557 1.198
51.7860 1.354
51.8163 1.198
51.8466 1.146
51.8769 1.823
51.9071 1.615
51.9374 1.354
51.9677 1.875
51.9980 1.510
52.0282 1.823
52.0585 1.146
52.0888 1.719
52.1191 1.719
52.1494 1.250
52.1796 1.771
52.2099 1.667
52.2402 1.354
52.2705 1.302
52.3008 1.250
52.3310 1.146
52.3613 1.198
52.3916 1.667
52.4219 1.354
52.4521 1.354
52.4824 1.667
52.5127 1.458
52.5430 1.562
52.5733 2.031
52.6035 1.562
52.6338 1.458
52.6641 1.510
52.6944 0.885
52.7247 0.833
52.7549 1.823
52.7852 1.719
52.8155 1.146
52.8458 1.198
52.8761 1.562
52.9063 1.146
52.9366 1.250
52.9669 1.146
52.9972 1.771
53.0274 1.719
53.0577 1.406
53.0880 1.406
53.1183 1.562
53.1486 1.146
53.1788 0.990
53.2091 1.562
53.2394 1.250
53.2697 1.667
53.3000 1.562
53.3302 1.406
53.3605 1.302
53.3908 1.771
53.4211 1.823
53.4513 1.458
53.4816 0.990
53.5119 1.094
53.5422 1.615
53.5725 1.198
53.6027 1.042
53.6330 1.562
53.6633 1.094
53.6936 1.667
53.7239 2.292
53.7541 1.615
53.7844 1.354
53.8147 1.615
53.8450 1.562
53.8752 1.354
53.9055 1.823
53.9358 1.250
53.9661 1.510
53.9964 1.510
54.0266 1.458
54.0569 1.771
54.0872 1.094
54.1175 1.406
54.1478 1.458
54.1780 1.094
54.2083 1.771
54.2386 1.302
54.2689 1.927
54.2991 1.510
54.3294 1.510
54.3597 1.719
54.3900 1.406
54.4203 1.458
54.4505 1.562
54.4808 1.823
54.5111 1.562
54.5414 1.510
54.5717 2.135
54.6019 1.979
54.6322 1.615
54.6625 1.667
54.6928 1.875
54.7230 1.667
54.7533 1.667
54.7836 1.458
54.8139 1.458
54.8442 2.500
54.8744 1.771
54.9047 1.927
54.9350 1.823
54.9653 1.719
54.9956 1.302
55.0258 2.083
55.0561 1.458
55.0864 1.823
55.1167 1.667
55.1469 1.823
55.1772 1.771
55.2075 1.823
55.2378 1.927
55.2681 1.719
55.2983 2.448
55.3286 1.615
55.3589 1.562
55.3892 1.771
55.4195 1.510
55.4497 2.083
55.4800 1.979
55.5103 1.771
55.5406 2.240
55.5709 2.187
55.6011 2.240
55.6314 2.396
55.6617 2.656
55.6920 2.396
55.7222 2.240
55.7525 2.344
55.7828 2.656
55.8131 2.552
55.8434 2.448
55.8736 2.500
55.9039 3.333
55.9342 3.021
55.9645 3.333
55.9948 3.229
56.0250 4.167
56.0553 4.375
56.0856 4.687
56.1159 5.625
56.1461 5.104
56.1764 6.354
56.2067 5.885
56.2370 5.990
56.2673 7.760
56.2975 9.062
56.3278 9.115
56.3581 10.625
56.3884 11.042
56.4187 11.042
56.4489 11.719
56.4792 11.875
56.5095 10.833
56.5398 10.833
56.5700 10.937
56.6003 10.052
56.6306 9.115
56.6609 8.021
56.6912 6.823
56.7214 6.615
56.7517 6.771
56.7820 5.781
56.8123 5.312
56.8426 4.844
56.8728 4.271
56.9031 4.792
56.9334 3.594
56.9637 3.906
56.9939 3.437
57.0242 2.969
57.0545 2.917
57.0848 2.604
57.1151 2.344
57.1453 2.656
57.1756 2.604
57.2059 2.969
57.2362 2.656
57.2665 2.500
57.2967 2.187
57.3270 2.292
57.3573 2.396
57.3876 2.031
57.4178 1.875
57.4481 2.604
57.4784 1.615
57.5087 1.719
57.5390 2.031
57.5692 1.719
57.5995 1.615
57.6298 2.344
57.6601 1.510
57.6904 1.719
57.7206 1.667
57.7509 1.927
57.7812 1.771
57.8115 1.719
57.8417 1.875
57.8720 1.719
57.9023 1.719
57.9326 1.667
57.9629 1.667
57.9931 1.510
58.0234 1.927
58.0537 1.615
58.0840 1.562
58.1143 1.510
58.1445 1.667
58.1748 1.667
58.2051 1.562
58.2354 1.094
58.2656 1.667
58.2959 1.823
58.3262 1.562
58.3565 1.562
58.3868 1.146
58.4170 2.031
58.4473 1.562
58.4776 1.562
58.5079 1.979
58.5382 0.937
58.5684 1.771
58.5987 1.146
58.6290 1.458
58.6593 1.406
58.6896 1.510
58.7198 1.562
58.7501 1.458
58.7804 1.406
58.8107 1.510
58.8409 1.927
58.8712 1.406
58.9015 1.406
58.9318 1.406
58.9621 1.250
58.9923 1.146
59.0226 1.354
59.0529 1.094
59.0832 1.146
59.1135 1.562
59.1437 1.302
59.1740 1.198
59.2043 1.146
59.2346 2.135
59.2648 0.885
59.2951 1.927
59.3254 2.031
59.3557 1.042
59.3860 1.302
59.4162 1.510
59.4465 1.094
59.4768 1.510
59.5071 0.990
59.5374 1.250
59.5676 1.198
59.5979 1.146
59.6282 1.719
59.6585 1.510
59.6887 1.354
59.7190 0.885
59.7493 1.458
59.7796 1.562
59.8099 1.510
59.8401 1.719
59.8704 1.354
59.9007 1.250
59.9310 1.354
59.9613 1.302
59.9915 1.250
60.0218 1.250
60.0521 1.094
60.0824 1.510
60.1126 1.198
60.1429 1.250
60.1732 1.146
60.2035 1.406
60.2338 1.510
60.2640 1.354
60.2943 1.302
60.3246 1.615
60.3549 0.885
60.3852 1.302
60.4154 0.990
60.4457 1.458
60.4760 1.458
60.5063 1.667
60.5365 1.562
60.5668 1.302
60.5971 1.771
60.6274 1.771
60.6577 1.719
60.6879 2.031
60.7182 1.667
60.7485 1.719
60.7788 1.615
60.8091 1.146
60.8393 2.083
60.8696 1.510
60.8999 1.198
60.9302 1.510
60.9604 1.250
60.9907 1.458
61.0210 1.771
61.0513 1.302
61.0816 1.094
61.1118 1.510
61.1421 1.875
61.1724 1.302
61.2027 1.615
61.2330 1.198
61.2632 1.927
61.2935 2.083
61.3238 1.771
61.3541 1.302
61.3844 1.719
61.4146 2.292
61.4449 1.771
61.4752 1.198
61.5055 1.667
61.5357 1.562
61.5660 1.823
61.5963 2.031
61.6266 2.031
61.6569 2.031
61.6871 1.615
61.7174 1.823
61.7477 1.458
61.7780 2.083
61.8083 2.031
61.8385 1.771
61.8688 2.031
61.8991 2.708
61.9294 2.031
61.9596 2.240
61.9899 2.344
62.0202 1.562
62.0505 2.031
62.0808 2.604
62.1110 3.073
62.1413 2.240
62.1716 2.708
62.2019 2.812
62.2322 3.177
62.2624 3.229
62.2927 4.167
62.3230 4.167
62.3533 3.646
62.3835 4.323
62.4138 4.583
62.4441 5.677
62.4744 6.198
62.5047 4.844
62.5349 7.292
62.5652 7.292
62.5955 8.229
62.6258 9.010
62.6561 9.479
62.6863 10.625
62.7166 10.729
62.7469 11.146
62.7772 9.427
62.8074 10.000
62.8377 8.646
62.8680 9.115
62.8983 7.760
62.9286 8.177
62.9588 6.719
62.9891 6.510
63.0194 5.521
63.0497 5.000
63.0800 4.062
63.1102 3.542
63.1405 3.854
63.1708 4.219
63.2011 4.531
63.2313 3.385
63.2616 2.760
63.2919 3.125
63.3222 2.604
63.3525 2.708
63.3827 2.135
63.4130 2.552
63.4433 2.760
63.4736 2.708
63.5039 2.031
63.5341 1.927
63.5644 2.083
63.5947 1.562
63.6250 1.823
63.6552 2.604
63.6855 1.719
63.7158 1.562
63.7461 1.458
63.7764 1.719
63.8066 1.823
63.8369 2.083
63.8672 1.562
63.8975 1.979
63.9278 1.406
63.9580 1.927
63.9883 1.667
64.0186 1.615
64.0489 1.875
64.0791 1.354
64.1094 1.406
64.1397 1.406
64.1700 1.406
64.2003 1.354
64.2305 1.667
64.2608 1.458
64.2911 1.719
64.3214 1.510
64.3517 2.396
64.3819 1.875
64.4122 2.031
64.4425 1.458
64.4728 1.250
64.5031 1.146
64.5333 1.458
64.5636 1.927
64.5939 1.354
64.6242 1.875
64.6544 1.250
64.6847 1.146
64.7150 1.979
64.7453 1.302
64.7756 1.823
64.8058 1.302
64.8361 1.198
64.8664 0.990
64.8967 1.146
64.9270 1.250
64.9572 1.562
64.9875 1.927
65.0178 1.354
65.0481 1.302
65.0783 1.979
65.1086 1.354
65.1389 1.302
65.1692 1.562
65.1995 1.771
65.2297 1.354
65.2600 1.927
65.2903 1.302
65.3206 1.719
65.3509 1.667
65.3811 1.302
65.4114 1.458
65.4417 1.510
65.4720 1.667
65.5022 1.719
65.5325 1.458
65.5628 1.979
65.5931 1.562
65.6234 2.083
65.6536 1.979
65.6839 2.344
65.7142 1.458
65.7445 1.875
65.7748 1.042
65.8050 1.354
65.8353 2.396
65.8656 2.292
65.8959 1.771
65.9261 1.719
65.9564 2.031
65.9867 1.771
66.0170 1.823
66.0473 2.292
66.0775 2.083
66.1078 2.396
66.1381 2.344
66.1684 2.760
66.1987 1.875
66.2289 2.500
66.2592 2.760
66.2895 2.292
66.3198 2.656
66.3500 2.865
66.3803 2.240
66.4106 2.812
66.4409 1.875
66.4712 2.917
66.5014 2.135
66.5317 2.656
66.5620 2.292
66.5923 1.771
66.6226 1.927
66.6528 1.615
66.6831 2.031
66.7134 1.875
66.7437 1.771
66.7739 2.396
66.8042 2.656
66.8345 1.979
66.8648 2.083
66.8951 1.875
66.9253 2.292
66.9556 1.771
66.9859 2.969
67.0162 1.875
67.0465 2.292
67.0767 2.135
67.1070 2.344
67.1373 1.875
67.1676 2.500
67.1978 2.917
67.2281 2.500
67.2584 2.552
67.2887 2.604
67.3190 2.969
67.3492 2.812
67.3795 3.021
67.4098 3.073
67.4401 3.646
67.4704 3.333
67.5006 3.490
67.5309 4.375
67.5612 4.687
67.5915 4.479
67.6218 4.948
67.6520 4.948
67.6823 6.562
67.7126 7.500
67.7429 6.458
67.7731 8.177
67.8034 7.292
67.8337 6.875
67.8640 6.510
67.8943 7.760
67.9245 7.396
67.9548 7.187
67.9851 6.979
68.0154 5.781
68.0457 5.937
68.0759 5.417
68.1062 5.625
68.1365 3.646
68.1668 4.010
68.1970 3.698
68.2273 4.948
68.2576 3.437
68.2879 3.333
68.3182 3.750
68.3484 2.708
68.3787 3.281
68.4090 2.031
68.4393 3.333
68.4696 2.969
68.4998 2.552
68.5301 3.073
68.5604 3.177
68.5907 3.073
68.6209 2.917
68.6512 2.396
68.6815 3.229
68.7118 3.385
68.7421 4.323
68.7723 2.865
68.8026 3.385
68.8329 3.906
68.8632 3.437
68.8935 5.052
68.9237 4.062
68.9540 3.802
68.9843 4.948
69.0146 3.490
69.0448 3.750
69.0751 4.062
69.1054 3.750
69.1357 3.281
69.1660 3.125
69.1962 2.865
69.2265 2.604
69.2568 2.708
69.2871 2.396
69.3174 2.656
69.3476 3.125
69.3779 2.135
69.4082 2.135
69.4385 2.083
69.4687 1.927
69.4990 1.771
69.5293 1.927
69.5596 1.250
69.5899 1.771
69.6201 1.406
69.6504 1.927
69.6807 1.615
69.7110 0.990
69.7413 1.406
69.7715 1.302
69.8018 1.615
69.8321 1.719
69.8624 1.979
69.8926 1.719
69.9229 1.302
69.9532 1.615
69.9835 1.615
70.0138 1.771
70.0440 1.146
70.0743 1.250
70.1046 1.094
70.1349 1.094
70.1652 0.781
70.1954 1.146
70.2257 1.094
70.2560 1.510
70.2863 0.937
70.3166 1.458
70.3468 1.927
70.3771 1.354
70.4074 1.406
70.4377 1.406
70.4679 0.937
70.4982 1.042
70.5285 0.990
70.5588 1.406
70.5891 1.042
70.6193 1.510
70.6496 1.250
70.6799 1.615
70.7102 1.250
70.7405 0.937
70.7707 1.146
70.8010 1.042
70.8313 1.354
70.8616 0.729
70.8918 1.406
70.9221 0.937
70.9524 1.094
70.9827 1.250
71.0130 1.667
71.0432 1.719
71.0735 1.094
71.1038 0.781
71.1341 0.885
71.1644 0.937
71.1946 1.302
71.2249 1.250
71.2552 1.354
71.2855 1.406
71.3157 0.833
71.3460 1.250
71.3763 1.042
71.4066 1.146
71.4369 1.250
71.4671 1.250
71.4974 1.198
71.5277 0.833
71.5580 0.885
71.5883 1.250
71.6185 0.833
71.6488 0.937
71.6791 1.250
71.7094 1.250
71.7396 0.990
71.7699 1.146
71.8002 1.042
71.8305 1.042
71.8608 0.885
71.8910 1.250
71.9213 0.833
71.9516 1.406
71.9819 1.354
72.0122 1.250
72.0424 1.094
72.0727 1.250
72.1030 0.990
72.1333 1.198
72.1635 0.781
72.1938 1.875
72.2241 1.562
72.2544 1.250
72.2847 1.667
72.3149 1.250
72.3452 1.719
72.3755 1.615
72.4058 1.927
72.4361 1.510
72.4663 1.771
72.4966 1.094
72.5269 1.771
72.5572 1.771
72.5874 1.458
72.6177 1.146
72.6480 1.198
72.6783 1.719
72.7086 1.510
72.7388 1.250
72.7691 1.719
72.7994 1.146
72.8297 1.042
72.8600 0.990
72.8902 0.833
72.9205 1.250
72.9508 0.990
72.9811 0.677
73.0113 1.562
73.0416 0.729
73.0719 0.990
73.1022 1.094
73.1325 0.729
73.1627 1.042
73.1930 0.729
73.2233 0.729
73.2536 0.937
73.2839 1.094
73.3141 1.146
73.3444 0.885
73.3747 0.885
73.4050 0.990
73.4353 0.781
73.4655 0.885
73.4958 0.937
73.5261 0.937
73.5564 1.094
73.5866 0.729
73.6169 0.573
73.6472 1.042
73.6775 1.094
73.7078 1.042
73.7380 1.146
73.7683 0.937
73.7986 0.781
73.8289 0.937
73.8592 1.094
73.8894 0.729
73.9197 1.094
73.9500 1.094
73.9803 0.885
74.0105 0.729
74.0408 0.833
74.0711 0.781
74.1014 1.198
74.1317 1.094
74.1619 0.937
74.1922 0.990
74.2225 1.146
74.2528 0.729
74.2831 0.990
74.3133 1.146
74.3436 0.469
74.3739 0.885
74.4042 0.885
74.4344 0.833
74.4647 0.833
74.4950 0.729
74.5253 0.729
74.5556 0.625
74.5858 1.042
74.6161 0.833
74.6464 1.198
74.6767 0.885
74.7070 0.885
74.7372 1.458
74.7675 0.937
74.7978 0.885
74.8281 1.042
74.8583 0.729
74.8886 0.990
74.9189 0.417
74.9492 0.729
74.9795 1.094
75.0097 0.729
75.0400 0.729
75.0703 1.094
75.1006 1.042
75.1309 0.469
75.1611 0.677
75.1914 1.146
75.2217 0.729
75.2520 0.937
75.2822 0.990
75.3125 0.781
75.3428 0.729
75.3731 0.833
75.4034 0.677
75.4336 1.146
75.4639 0.781
75.4942 0.781
75.5245 1.198
75.5548 1.042
75.5850 0.781
75.6153 1.094
75.6456 1.510
75.6759 0.729
75.7061 0.781
75.7364 1.042
75.7667 0.573
75.7970 0.885
75.8273 0.729
75.8575 1.302
75.8878 1.198
75.9181 1.094
75.9484 1.146
75.9787 1.250
76.0089 0.885
76.0392 1.198
76.0695 0.937
76.0998 1.198
76.1301 0.729
76.1603 1.302
76.1906 0.729
76.2209 0.729
76.2512 1.094
76.2814 1.354
76.3117 0.833
76.3420 0.937
76.3723 1.146
76.4026 1.094
76.4328 0.885
76.4631 0.990
76.4934 1.094
76.5237 1.198
76.5540 1.146
76.5842 1.146
76.6145 1.042
76.6448 0.833
76.6751 1.302
76.7053 2.031
76.7356 1.562
76.7659 1.042
76.7962 1.615
76.8265 1.667
76.8567 1.823
76.8870 1.667
76.9173 1.094
76.9476 1.719
76.9779 1.719
77.0081 1.719
77.0384 1.302
77.0687 1.354
77.0990 1.667
77.1292 1.406
77.1595 1.458
77.1898 1.302
77.2201 1.094
77.2504 1.771
77.2806 1.458
77.3109 1.198
77.3412 1.198
77.3715 0.729
77.4018 0.833
77.4320 0.677
77.4623 0.885
77.4926 0.833
77.5229 1.042
77.5531 0.937
77.5834 0.625
77.6137 1.146
77.6440 1.094
77.6743 1.198
77.7045 1.302
77.7348 0.833
77.7651 1.094
77.7954 1.302
77.8257 0.833
77.8559 0.885
77.8862 0.833
77.9165 0.937
77.9468 0.729
77.9770 0.937
78.0073 0.833
78.0376 0.573
78.0679 0.937
78.0982 0.885
78.1284 1.615
78.1587 0.990
78.1890 0.885
78.2193 1.250
78.2496 1.094
78.2798 0.937
78.3101 1.146
78.3404 1.198
78.3707 0.990
78.4009 1.146
78.4312 0.521
78.4615 0.625
78.4918 1.510
78.5221 0.990
78.5523 0.833
78.5826 1.146
78.6129 0.833
78.6432 0.937
78.6735 0.677
78.7037 0.885
78.7340 0.781
78.7643 0.990
78.7946 1.146
78.8248 0.729
78.8551 0.833
78.8854 1.042
78.9157 0.781
78.9460 0.573
78.9762 0.729
79.0065 1.042
79.0368 0.677
79.0671 1.146
79.0974 1.094
79.1276 0.781
79.1579 1.094
79.1882 0.729
79.2185 0.885
79.2488 1.042
79.2790 1.198
79.3093 0.833
79.3396 0.937
79.3699 1.198
79.4001 1.042
79.4304 0.937
79.4607 1.042
79.4910 0.990
79.5213 1.042
79.5515 1.094
79.5818 0.729
79.6121 0.937
79.6424 1.094
79.6727 0.937
79.7029 0.885
79.7332 1.094
79.7635 0.729
79.7938 0.729
79.8240 0.833
79.8543 1.198
79.8846 0.937
79.9149 0.729
79.9452 1.198
79.9754 0.937
80.0057 1.146
80.0360 0.625
80.0663 0.885
80.0966 0.729
80.1268 1.146
80.1571 1.094
80.1874 1.094
80.2177 0.937
80.2479 0.312
80.2782 1.198
80.3085 1.198
80.3388 0.990
80.3691 0.937
80.3993 0.677
80.4296 0.937
80.4599 0.521
80.4902 0.885
80.5205 1.198
80.5507 0.990
80.5810 0.729
80.6113 0.625
80.6416 0.885
80.6718 1.042
80.7021 1.094
80.7324 1.250
80.7627 0.781
80.7930 0.990
80.8232 0.781
80.8535 0.833
80.8838 1.198
80.9141 1.042
80.9444 0.781
80.9746 1.875
81.0049 0.990
81.0352 1.146
81.0655 1.562
81.0957 1.406
81.1260 0.990
81.1563 0.885
81.1866 1.198
81.2169 1.198
81.2471 1.354
81.2774 1.406
81.3077 1.458
81.3380 1.146
81.3683 1.302
81.3985 1.198
81.4288 1.354
81.4591 1.458
81.4894 1.198
81.5196 1.510
81.5499 1.458
81.5802 1.146
81.6105 1.354
81.6408 0.781
81.6710 1.250
81.7013 1.198
81.7316 1.146
81.7619 1.302
81.7922 1.458
81.8224 0.885
81.8527 1.198
81.8830 0.781
81.9133 1.198
81.9436 0.990
81.9738 1.302
82.0041 1.042
82.0344 1.094
82.0647 1.302
82.0949 1.198
82.1252 0.885
82.1555 0.729
82.1858 0.885
82.2161 1.146
82.2463 1.198
82.2766 0.469
82.3069 0.833
82.3372 0.469
82.3675 0.573
82.3977 1.198
82.4280 0.885
82.4583 1.042
82.4886 0.937
82.5188 0.990
82.5491 1.042
82.5794 1.354
82.6097 0.990
82.6400 0.729
82.6702 0.729
82.7005 0.677
82.7308 1.198
82.7611 1.042
82.7914 0.781
82.8216 0.729
82.8519 0.573
82.8822 0.729
82.9125 1.198
82.9427 0.937
82.9730 0.781
83.0033 1.094
83.0336 1.094
83.0639 1.042
83.0941 1.042
83.1244 0.781
83.1547 0.729
83.1850 1.094
83.2153 0.781
83.2455 1.042
83.2758 0.885
83.3061 0.781
83.3364 0.885
83.3666 0.625
83.3969 0.729
83.4272 1.042
83.4575 0.885
83.4878 0.937
83.5180 1.146
83.5483 0.885
83.5786 0.990
83.6089 0.990
83.6392 0.365
83.6694 0.990
83.6997 1.094
83.7300 0.781
83.7603 1.042
83.7905 0.937
83.8208 1.094
83.8511 1.302
83.8814 1.302
83.9117 0.573
83.9419 1.302
83.9722 0.833
84.0025 1.198
84.0328 0.990
84.0631 0.625
84.0933 0.729
84.1236 0.833
84.1539 0.573
84.1842 1.198
84.2144 1.042
84.2447 0.729
84.2750 0.573
84.3053 0.937
84.3356 1.094
84.3658 1.042
84.3961 1.146
84.4264 0.937
84.4567 0.833
84.4870 1.250
84.5172 0.781
84.5475 0.990
84.5778 0.833
84.6081 0.990
84.6383 0.521
84.6686 0.729
84.6989 0.625
84.7292 0.937
84.7595 1.198
84.7897 0.677
84.8200 0.885
84.8503 0.990
84.8806 0.677
84.9109 1.094
84.9411 0.937
84.9714 0.729
85.0017 0.781
85.0320 1.302
85.0623 0.990
85.0925 1.198
85.1228 0.990
85.1531 0.677
85.1834 0.937
85.2136 0.781
85.2439 0.677
85.2742 0.781
85.3045 0.729
85.3348 0.677
85.3650 0.781
85.3953 1.042
85.4256 1.146
85.4559 0.573
85.4862 1.042
85.5164 0.990
85.5467 1.094
85.5770 1.146
85.6073 1.094
85.6375 1.146
85.6678 0.729
85.6981 1.250
85.7284 0.781
85.7587 0.885
85.7889 1.042
85.8192 0.781
85.8495 1.198
85.8798 1.094
85.9101 0.990
85.9403 0.729
85.9706 1.042
86.0009 0.885
86.0312 0.677
86.0614 0.521
86.0917 1.042
86.1220 0.885
86.1523 0.781
86.1826 0.729
86.2128 1.198
86.2431 0.990
86.2734 0.729
86.3037 0.990
86.3340 0.729
86.3642 0.729
86.3945 0.677
86.4248 0.677
86.4551 0.833
86.4853 0.625
86.5156 0.885
86.5459 1.198
86.5762 0.625
86.6065 0.781
86.6367 1.302
86.6670 0.729
86.6973 0.990
86.7276 1.094
86.7579 0.937
86.7881 0.937
86.8184 0.833
86.8487 0.990
86.8790 0.729
86.9092 1.094
86.9395 1.406
86.9698 0.937
87.0001 1.094
87.0304 0.729
87.0606 0.729
87.0909 0.937
87.1212 1.042
87.1515 0.885
87.1818 0.729
87.2120 1.198
87.2423 1.250
87.2726 0.729
87.3029 0.833
87.3331 1.198
87.3634 1.146
87.3937 1.094
87.4240 0.729
87.4543 1.146
87.4845 0.521
87.5148 0.937
87.5451 1.198
87.5754 0.833
87.6057 0.885
87.6359 1.042
87.6662 0.885
87.6965 1.354
87.7268 0.521
87.7571 1.198
87.7873 0.573
87.8176 0.885
87.8479 0.573
87.8782 0.833
87.9084 1.198
87.9387 0.885
87.9690 0.781
87.9993 0.729
88.0296 0.885
88.0598 0.833
88.0901 1.042
88.1204 1.042
88.1507 0.781
88.1810 0.885
88.2112 0.885
88.2415 0.990
88.2718 1.250
88.3021 1.198
88.3323 1.302
88.3626 1.042
88.3929 0.937
88.4232 1.198
88.4535 1.146
88.4837 0.781
88.5140 0.833
88.5443 0.729
88.5746 1.094
88.6049 0.885
88.6351 0.885
88.6654 0.990
88.6957 1.042
88.7260 0.885
88.7562 0.937
88.7865 0.937
88.8168 0.990
88.8471 1.302
88.8774 1.562
88.9076 0.885
88.9379 1.042
88.9682 0.937
88.9985 1.875
89.0288 1.719
89.0590 1.458
89.0893 1.979
89.1196 1.250
89.1499 1.771
89.1801 1.094
89.2104 1.823
89.2407 2.083
89.2710 1.771
89.3013 1.823
89.3315 2.031
89.3618 1.615
89.3921 2.396
89.4224 2.135
89.4527 2.135
89.4829 2.656
89.5132 1.562
89.5435 2.812
89.5738 2.292
89.6040 2.500
89.6343 2.135
89.6646 1.927
89.6949 1.823
89.7252 2.187
89.7554 2.135
89.7857 1.875
89.8160 1.771
89.8463 1.823
89.8766 1.927
89.9068 1.562
89.9371 1.667
89.9674 1.771
89.9977 1.250
90.0279 1.198
90.0582 1.302
90.0885 1.250
90.1188 1.198
90.1491 1.146
90.1793 1.250
90.2096 1.198
90.2399 0.729
90.2702 1.250
90.3005 1.198
90.3307 1.250
90.3610 1.198
90.3913 1.094
90.4216 1.458
90.4518 1.458
90.4821 1.094
90.5124 0.833
90.5427 1.510
90.5730 1.042
90.6032 1.094
90.6335 1.042
90.6638 0.885
90.6941 1.094
90.7244 0.885
90.7546 0.990
90.7849 0.990
90.8152 0.833
90.8455 0.729
90.8758 1.042
90.9060 1.458
90.9363 1.406
90.9666 1.042
90.9969 0.937
91.0271 1.094
91.0574 1.198
91.0877 1.042
91.1180 1.042
91.1483 0.677
91.1785 1.042
91.2088 0.990
91.2391 0.365
91.2694 1.302
91.2997 0.677
91.3299 0.729
91.3602 0.990
91.3905 0.729
91.4208 1.354
91.4510 0.781
91.4813 0.833
91.5116 1.094
91.5419 0.990
91.5722 0.833
91.6024 0.781
91.6327 0.937
91.6630 0.781
91.6933 1.302
91.7236 0.885
91.7538 1.146
91.7841 0.937
91.8144 0.885
91.8447 1.198
91.8749 0.937
91.9052 0.781
91.9355 0.990
91.9658 0.417
91.9961 1.198
92.0263 1.146
92.0566 0.990
92.0869 0.833
92.1172 1.406
92.1475 1.042
92.1777 1.198
92.2080 0.781
92.2383 1.042
92.2686 1.302
92.2988 1.354
92.3291 1.250
92.3594 0.833
92.3897 1.042
92.4200 1.406
92.4502 1.354
92.4805 1.406
92.5108 1.198
92.5411 1.042
92.5714 1.979
92.6016 1.302
92.6319 0.937
92.6622 1.510
92.6925 1.302
92.7227 1.250
92.7530 1.198
92.7833 1.042
92.8136 1.198
92.8439 1.146
92.8741 1.094
92.9044 1.198
92.9347 1.302
92.9650 0.781
92.9953 1.250
93.0255 0.729
93.0558 1.146
93.0861 1.302
93.1164 1.198
93.1466 1.146
93.1769 0.937
93.2072 0.990
93.2375 0.781
93.2678 1.250
93.2980 0.833
93.3283 0.781
93.3586 1.094
93.3889 1.458
93.4192 1.250
93.4494 1.250
93.4797 1.042
93.5100 1.406
93.5403 1.146
93.5706 1.250
93.6008 0.937
93.6311 1.302
93.6614 1.042
93.6917 0.990
93.7219 1.042
93.7522 1.198
93.7825 1.198
93.8128 1.406
93.8431 0.781
93.8733 0.781
93.9036 1.146
93.9339 0.833
93.9642 0.729
93.9945 0.781
94.0247 0.937
94.0550 0.937
94.0853 1.094
94.1156 1.042
94.1458 1.510
94.1761 1.094
94.2064 1.094
94.2367 0.937
94.2670 1.354
94.2972 1.042
94.3275 1.146
94.3578 1.302
94.3881 1.198
94.4184 1.094
94.4486 1.146
94.4789 1.146
94.5092 1.146
94.5395 0.937
94.5697 1.042
94.6000 1.250
94.6303 1.354
94.6606 0.990
94.6909 1.146
94.7211 1.250
94.7514 0.937
94.7817 1.354
94.8120 1.719
94.8423 1.771
94.8725 1.354
94.9028 1.823
94.9331 1.406
94.9634 2.552
94.9936 1.719
95.0239 2.031
95.0542 2.604
95.0845 1.667
95.1148 1.771
95.1450 1.562
95.1753 1.615
95.2056 2.031
95.2359 2.292
95.2662 2.708
95.2964 2.292
95.3267 1.979
95.3570 1.927
95.3873 1.250
95.4175 1.823
95.4478 2.031
95.4781 1.406
95.5084 1.719
95.5387 1.510
95.5689 1.771
95.5992 1.458
95.6295 1.979
95.6598 1.354
95.6901 1.146
95.7203 1.458
95.7506 1.250
95.7809 1.198
95.8112 1.250
95.8414 1.250
95.8717 1.198
95.9020 0.937
95.9323 1.094
95.9626 1.094
95.9928 1.250
96.0231 1.198
96.0534 1.510
96.0837 1.146
96.1140 1.719
96.1442 1.198
96.1745 1.458
96.2048 1.510
96.2351 1.354
96.2653 0.781
96.2956 0.885
96.3259 1.042
96.3562 1.146
96.3865 1.250
96.4167 1.146
96.4470 1.198
96.4773 1.042
96.5076 1.250
96.5379 0.625
96.5681 0.990
96.5984 0.781
96.6287 0.833
96.6590 0.781
96.6893 0.885
96.7195 0.937
96.7498 1.198
96.7801 1.146
96.8104 0.781
96.8406 1.094
96.8709 1.771
96.9012 1.458
96.9315 1.250
96.9618 1.406
96.9920 1.250
97.0223 0.885
97.0526 0.833
97.0829 1.094
97.1132 0.729
97.1434 0.677
97.1737 0.990
97.2040 0.885
97.2343 1.094
97.2645 1.510
97.2948 1.042
97.3251 0.833
97.3554 0.990
97.3857 0.729
97.4159 1.042
97.4462 0.833
97.4765 0.781
97.5068 1.354
97.5371 1.250
97.5673 1.250
97.5976 1.406
97.6279 0.990
97.6582 0.833
97.6884 0.990
97.7187 1.146
97.7490 0.833
97.7793 1.250
97.8096 1.250
97.8398 0.833
97.8701 1.094
97.9004 1.094
97.9307 1.354
97.9610 1.354
97.9912 1.094
98.0215 1.510
98.0518 1.615
98.0821 1.354
98.1123 1.250
98.1426 1.250
98.1729 1.250
98.2032 1.250
98.2335 0.937
98.2637 1.406
98.2940 1.250
98.3243 1.562
98.3546 1.458
98.3849 1.771
98.4151 1.823
98.4454 1.406
98.4757 1.042
98.5060 1.562
98.5362 1.510
98.5665 1.042
98.5968 1.719
98.6271 1.927
98.6574 1.146
98.6876 1.302
98.7179 1.302
98.7482 1.562
98.7785 1.354
98.8088 1.562
98.8390 1.302
98.8693 0.885
98.8996 1.146
98.9299 1.042
98.9601 1.510
98.9904 1.042
99.0207 1.406
99.0510 0.781
99.0813 0.677
99.1115 1.302
99.1418 1.146
99.1721 1.094
99.2024 0.833
99.2327 0.937
99.2629 0.990
99.2932 0.729
99.3235 1.510
99.3538 1.198
99.3841 1.615
99.4143 0.729
99.4446 0.677
99.4749 1.146
99.5052 1.302
99.5354 1.146
99.5657 1.094
99.5960 1.250
99.6263 1.042
99.6566 1.146
99.6868 1.094
99.7171 0.937
99.7474 0.833
99.7777 0.781
99.8080 0.937
99.8382 1.094
99.8685 0.990
99.8988 0.781
99.9291 0.677
99.9593 1.146
99.9896 0.781
100.0199 1.146
100.0502 0.469
100.0805 0.781
100.1107 0.781
100.1410 0.937
100.1713 1.198
100.2016 0.990
100.2319 1.094
100.2621 0.937
100.2924 1.250
100.3227 1.302
100.3530 0.677
100.3832 0.677
100.4135 1.146
100.4438 0.833
100.4741 0.990
100.5044 1.146
100.5346 1.146
100.5649 0.833
100.5952 1.094
100.6255 0.729
100.6558 1.354
100.6860 1.302
100.7163 1.250
100.7466 0.833
100.7769 1.302
100.8071 1.042
100.8374 0.937
100.8677 1.042
100.8980 0.885
100.9283 1.094
100.9585 1.042
100.9888 0.729
101.0191 0.990
101.0494 0.833
101.0797 0.729
101.1099 0.885
101.1402 1.094
101.1705 0.781
101.2008 1.042
101.2310 0.833
101.2613 0.937
101.2916 1.875
101.3219 0.990
101.3522 0.833
101.3824 1.146
101.4127 0.937
101.4430 1.146
101.4733 0.937
101.5036 0.990
101.5338 0.990
101.5641 0.990
101.5944 1.250
101.6247 0.833
101.6549 0.990
101.6852 0.885
101.7155 0.990
101.7458 1.302
101.7761 0.833
101.8063 0.729
101.8366 1.406
101.8669 1.406
101.8972 1.354
101.9275 0.937
101.9577 0.573
101.9880 1.094
102.0183 1.250
102.0486 1.094
102.0788 1.094
102.1091 0.781
102.1394 1.198
102.1697 1.042
102.2000 0.885
102.2302 0.937
102.2605 0.990
102.2908 0.781
102.3211 0.885
102.3514 0.937
102.3816 1.094
102.4119 1.458
102.4422 1.562
102.4725 1.198
102.5028 1.510
102.5330 0.885
102.5633 1.250
102.5936 1.458
102.6239 1.510
102.6541 1.094
102.6844 1.198
102.7147 1.094
102.7450 1.094
102.7753 1.354
102.8055 1.615
102.8358 1.406
102.8661 1.146
102.8964 1.302
102.9267 1.562
102.9569 1.719
102.9872 1.406
103.0175 1.719
103.0478 1.927
103.0780 1.198
103.1083 0.729
103.1386 0.937
103.1689 1.302
103.1992 1.927
103.2294 1.354
103.2597 1.615
103.2900 1.302
103.3203 1.510
103.3506 1.250
103.3808 1.615
103.4111 1.719
103.4414 1.146
103.4717 1.094
103.5019 1.615
103.5322 1.979
103.5625 1.510
103.5928 1.458
103.6231 1.302
103.6533 1.667
103.6836 1.406
103.7139 1.979
103.7442 2.031
103.7745 1.562
103.8047 1.198
103.8350 1.615
103.8653 1.927
103.8956 1.771
103.9258 1.719
103.9561 2.656
103.9864 1.927
104.0167 2.187
104.0470 1.771
104.0772 1.771
104.1075 1.302
104.1378 2.135
104.1681 2.083
104.1984 2.344
104.2286 1.719
104.2589 1.510
104.2892 1.562
104.3195 2.083
104.3497 1.406
104.3800 1.406
104.4103 1.667
104.4406 1.146
104.4709 1.615
104.5011 1.562
104.5314 1.302
104.5617 1.458
104.5920 1.250
104.6223 1.198
104.6525 1.250
104.6828 1.302
104.7131 1.406
104.7434 0.781
104.7736 1.719
104.8039 1.615
104.8342 1.250
104.8645 0.990
104.8948 0.990
104.9250 1.198
104.9553 1.094
104.9856 1.354
105.0159 1.458
105.0462 1.354
105.0764 0.625
105.1067 0.937
105.1370 1.146
105.1673 1.354
105.1975 0.990
105.2278 0.885
105.2581 1.146
105.2884 1.302
105.3187 1.094
105.3489 0.833
105.3792 0.833
105.4095 1.198
105.4398 1.094
105.4701 1.042
105.5003 1.406
105.5306 0.937
105.5609 0.990
105.5912 0.990
105.6215 0.937
105.6517 0.990
105.6820 1.250
105.7123 1.198
105.7426 0.781
105.7728 1.250
105.8031 0.937
105.8334 0.990
105.8637 1.250
105.8940 0.781
105.9242 0.729
105.9545 1.250
105.9848 1.458
106.0151 1.094
106.0454 0.625
106.0756 1.198
106.1059 0.781
106.1362 0.990
106.1665 0.677
106.1967 1.250
106.2270 1.042
106.2573 0.885
106.2876 0.990
106.3179 1.042
106.3481 0.885
106.3784 1.198
106.4087 0.781
106.4390 0.937
106.4693 1.042
106.4995 1.042
106.5298 0.885
106.5601 0.937
106.5904 1.042
106.6206 1.198
106.6509 0.521
106.6812 1.094
106.7115 0.990
106.7418 1.042
106.7720 0.990
106.8023 1.042
106.8326 1.198
106.8629 0.990
106.8932 0.365
106.9234 1.250
106.9537 1.250
106.9840 0.937
107.0143 0.990
107.0445 0.781
107.0748 1.250
107.1051 0.833
107.1354 0.833
107.1657 1.198
107.1959 0.885
107.2262 1.198
107.2565 1.094
107.2868 0.990
107.3171 1.042
107.3473 0.885
107.3776 1.458
107.4079 1.354
107.4382 0.781
107.4684 0.885
107.4987 1.458
107.5290 0.677
107.5593 1.042
107.5896 0.833
107.6198 1.406
107.6501 1.094
107.6804 1.198
107.7107 0.937
107.7410 0.885
107.7712 1.198
107.8015 1.094
107.8318 0.885
107.8621 0.677
107.8923 0.937
107.9226 1.302
107.9529 1.094
107.9832 1.042
108.0135 1.146
108.0437 0.937
108.0740 0.729
108.1043 0.937
108.1346 0.729
108.1649 0.885
108.1951 1.198
108.2254 1.094
108.2557 1.146
108.2860 1.146
108.3163 0.885
108.3465 1.250
108.3768 0.833
108.4071 0.885
108.4374 1.094
108.4676 0.833
108.4979 1.094
108.5282 0.833
108.5585 0.885
108.5888 1.198
108.6190 1.354
108.6493 0.990
108.6796 1.198
108.7099 1.042
108.7402 0.833
108.7704 0.990
108.8007 0.937
108.8310 1.198
108.8613 0.469
108.8915 0.677
108.9218 0.781
108.9521 1.042
108.9824 1.250
109.0127 1.302
109.0429 0.885
109.0732 1.042
109.1035 0.990
109.1338 0.625
109.1641 0.729
109.1943 0.937
109.2246 0.885
109.2549 0.781
109.2852 1.302
109.3154 1.146
109.3457 1.510
109.3760 1.302
109.4063 0.990
109.4366 1.094
109.4668 0.937
109.4971 0.937
109.5274 1.094
109.5577 0.990
109.5880 1.615
109.6182 1.042
109.6485 0.937
109.6788 1.198
109.7091 0.990
109.7393 0.990
109.7696 0.885
109.7999 1.250
109.8302 1.302
109.8605 0.990
109.8907 1.042
109.9210 0.833
109.9513 1.198
109.9816 1.146
110.0119 1.250
110.0421 0.729
110.0724 1.406
110.1027 1.458
110.1330 1.354
110.1632 1.302
110.1935 1.042
110.2238 1.458
110.2541 1.250
110.2844 1.615
110.3146 0.885
110.3449 0.833
110.3752 1.094
110.4055 1.094
110.4358 1.094
110.4660 1.667
110.4963 1.458
110.5266 1.615
110.5569 1.302
110.5871 1.354
110.6174 1.146
110.6477 1.250
110.6780 1.250
110.7083 1.250
110.7385 1.042
110.7688 1.562
110.7991 1.354
110.8294 0.990
110.8597 1.146
110.8899 1.510
110.9202 1.510
110.9505 1.094
110.9808 1.198
111.0110 1.094
111.0413 1.354
111.0716 1.510
111.1019 1.510
111.1322 0.990
111.1624 1.146
111.1927 1.146
111.2230 1.146
111.2533 0.937
111.2836 0.781
111.3138 1.146
111.3441 0.573
111.3744 0.937
111.4047 0.573
111.4350 1.510
111.4652 1.302
111.4955 1.250
111.5258 0.677
111.5561 1.042
111.5863 1.146
111.6166 0.990
111.6469 1.562
111.6772 0.729
111.7075 1.302
111.7377 0.885
111.7680 1.094
111.7983 0.937
111.8286 0.625
111.8589 1.302
111.8891 1.302
111.9194 0.937
111.9497 0.885
111.9800 1.094
112.0102 0.729
112.0405 1.354
112.0708 0.990
112.1011 0.677
112.1314 0.990
112.1616 0.781
112.1919 1.250
112.2222 0.937
112.2525 0.885
112.2828 1.198
112.3130 1.302
112.3433 0.990
112.3736 1.146
112.4039 0.990
112.4341 0.833
112.4644 0.990
112.4947 0.937
112.5250 1.406
112.5553 1.042
112.5855 0.781
112.6158 1.042
112.6461 0.833
112.6764 1.198
112.7067 0.990
112.7369 1.667
112.7672 1.094
112.7975 0.729
112.8278 0.625
112.8580 0.729
112.8883 0.677
112.9186 0.990
112.9489 0.937
112.9792 1.094
113.0094 0.781
113.0397 1.146
113.0700 1.198
113.1003 1.042
113.1306 1.094
113.1608 0.990
113.1911 0.990
113.2214 1.250
113.2517 1.198
113.2819 0.937
113.3122 0.885
113.3425 0.729
113.3728 1.302
113.4031 0.990
113.4333 0.625
113.4636 1.146
113.4939 1.146
113.5242 0.885
113.5545 1.042
113.5847 0.937
113.6150 1.198
113.6453 0.833
113.6756 1.146
113.7058 0.937
113.7361 1.302
113.7664 1.302
113.7967 0.937
113.8270 0.937
113.8572 0.729
113.8875 1.146
113.9178 0.937
113.9481 1.146
113.9784 1.094
114.0086 0.677
114.0389 1.094
114.0692 1.094
114.0995 1.042
114.1298 0.573
114.1600 0.885
114.1903 1.146
114.2206 0.729
114.2509 1.042
114.2811 1.146
114.3114 1.094
114.3417 1.198
114.3720 0.521
114.4023 0.885
114.4325 0.781
114.4628 1.094
114.4931 1.458
114.5234 1.094
114.5537 1.042
114.5839 1.094
114.6142 1.094
114.6445 0.729
114.6748 1.719
114.7050 1.146
114.7353 0.990
114.7656 0.781
114.7959 0.990
114.8262 1.354
114.8564 1.406
114.8867 1.094
114.9170 0.990
114.9473 1.406
114.9776 1.771
115.0078 1.198
115.0381 1.094
115.0684 0.937
115.0987 1.250
115.1289 0.833
115.1592 0.833
115.1895 1.458
115.2198 1.719
115.2501 1.458
115.2803 1.302
115.3106 1.406
115.3409 1.615
115.3712 1.302
115.4015 1.562
115.4317 0.885
115.4620 1.562
115.4923 1.302
115.5226 1.198
115.5528 1.510
115.5831 1.354
115.6134 1.667
115.6437 1.354
115.6740 1.510
115.7042 1.719
115.7345 1.875
115.7648 1.302
115.7951 1.875
115.8254 1.354
115.8556 1.406
115.8859 1.927
115.9162 2.396
115.9465 1.823
115.9767 2.031
116.0070 2.135
116.0373 1.927
116.0676 2.031
116.0979 1.823
116.1281 2.135
116.1584 1.667
116.1887 1.875
116.2190 1.979
116.2493 1.562
116.2795 1.927
116.3098 1.719
116.3401 2.031
116.3704 1.771
116.4006 1.927
116.4309 1.615
116.4612 1.875
116.4915 2.031
116.5218 1.823
116.5520 1.615
116.5823 1.354
116.6126 1.510
116.6429 1.406
116.6732 1.979
116.7034 0.937
116.7337 1.458
116.7640 1.146
116.7943 1.771
116.8245 1.562
116.8548 1.667
116.8851 1.250
116.9154 1.510
116.9457 1.198
116.9759 1.979
117.0062 1.510
117.0365 1.667
117.0668 1.562
117.0971 1.667
117.1273 1.146
117.1576 1.198
117.1879 1.406
117.2182 1.198
117.2485 1.354
117.2787 1.094
117.3090 1.302
117.3393 1.198
117.3696 1.198
117.3998 1.042
117.4301 0.781
117.4604 1.198
117.4907 1.406
117.5210 1.562
117.5512 1.354
117.5815 1.406
117.6118 1.042
117.6421 1.354
117.6724 1.250
117.7026 1.094
117.7329 1.510
117.7632 0.781
117.7935 0.833
117.8237 1.146
117.8540 1.042
117.8843 1.198
117.9146 1.042
117.9449 1.198
117.9751 1.250
118.0054 1.146
118.0357 0.781
118.0660 1.198
118.0963 1.250
118.1265 0.781
118.1568 0.729
118.1871 1.198
118.2174 0.781
118.2476 0.990
118.2779 1.042
118.3082 0.885
118.3385 1.458
118.3688 1.458
118.3990 1.146
118.4293 1.146
118.4596 1.146
118.4899 0.990
118.5202 0.781
118.5504 1.198
118.5807 0.885
118.6110 0.937
118.6413 1.302
118.6715 1.146
118.7018 1.198
118.7321 0.937
118.7624 0.833
118.7927 0.625
118.8229 0.990
118.8532 1.302
118.8835 0.677
118.9138 1.250
118.9441 1.198
118.9743 1.354
119.0046 1.094
119.0349 0.885
119.0652 0.990
119.0954 0.990
119.1257 0.833
119.1560 0.990
119.1863 0.833
119.2166 0.990
119.2468 1.094
119.2771 0.833
119.3074 0.937
119.3377 0.990
119.3680 1.302
119.3982 0.729
119.4285 1.354
119.4588 1.042
119.4891 0.625
119.5193 1.562
119.5496 0.469
119.5799 0.781
119.6102 0.781
119.6405 0.521
119.6707 1.354
119.7010 1.302
119.7313 1.042
119.7616 1.146
119.7919 1.146
119.8221 1.042
119.8524 0.937
119.8827 1.094
119.9130 0.937
119.9433 1.042
119.9735 1.250
120.0038 0.937
