'Id: "" Comment: "" Operator: "Lab Manager" Anode: "Cu" Scantype: "Locked Coupled" TimePerStep: "19.2" X: "9999" Y: "9999" Z: "9999" 
10.0015 3.750
10.0318 3.385
10.0620 3.125
10.0923 3.385
10.1226 2.760
10.1529 3.698
10.1832 3.333
10.2134 2.969
10.2437 4.010
10.2740 4.635
10.3043 3.854
10.3346 3.542
10.3648 3.229
10.3951 3.229
10.4254 3.854
10.4557 4.167
10.4859 4.062
10.5162 3.229
10.5465 3.490
10.5768 3.437
10.6071 3.750
10.6373 3.698
10.6676 3.854
10.6979 3.646
10.7282 4.375
10.7585 3.281
10.7887 3.594
10.8190 3.177
10.8493 3.021
10.8796 3.906
10.9098 3.177
10.9401 3.750
10.9704 3.750
11.0007 3.333
11.0310 3.802
11.0612 2.604
11.0915 3.229
11.1218 3.021
11.1521 3.854
11.1824 3.229
11.2126 3.385
11.2429 3.490
11.2732 2.552
11.3035 2.812
11.3337 2.865
11.3640 2.812
11.3943 3.802
11.4246 4.323
11.4549 2.812
11.4851 3.281
11.5154 2.865
11.5457 4.271
11.5760 3.021
11.6063 3.385
11.6365 2.656
11.6668 4.271
11.6971 3.646
11.7274 3.021
11.7577 3.177
11.7879 3.073
11.8182 2.969
11.8485 3.333
11.8788 2.552
11.9090 3.333
11.9393 3.229
11.9696 3.125
11.9999 2.760
12.0302 2.448
12.0604 3.385
12.0907 3.177
12.1210 2.760
12.1513 3.646
12.1816 3.646
12.2118 3.698
12.2421 3.177
12.2724 3.385
12.3027 3.281
12.3329 3.646
12.3632 3.073
12.3935 3.646
12.4238 4.010
12.4541 3.646
12.4843 2.812
12.5146 2.448
12.5449 3.490
12.5752 2.917
12.6055 3.490
12.6357 3.333
12.6660 3.021
12.6963 2.865
12.7266 3.073
12.7568 4.219
12.7871 2.552
12.8174 3.385
12.8477 3.021
12.8780 4.167
12.9082 3.385
12.9385 2.812
12.9688 2.760
12.9991 4.115
13.0294 3.073
13.0596 3.594
13.0899 2.865
13.1202 2.708
13.1505 2.552
13.1807 3.021
13.2110 3.229
13.2413 3.698
13.2716 2.135
13.3019 2.812
13.3321 2.344
13.3624 3.854
13.3927 2.552
13.4230 2.969
13.4533 2.604
13.4835 2.760
13.5138 4.010
13.5441 2.760
13.5744 2.865
13.6046 3.333
13.6349 3.698
13.6652 3.229
13.6955 4.010
13.7258 2.969
13.7560 3.229
13.7863 2.187
13.8166 2.292
13.8469 2.812
13.8772 3.490
13.9074 3.021
13.9377 3.750
13.9680 2.604
13.9983 3.385
14.0285 2.917
14.0588 2.812
14.0891 3.802
14.1194 2.760
14.1497 3.437
14.1799 2.344
14.2102 3.437
14.2405 3.281
14.2708 3.490
14.3011 3.385
14.3313 2.656
14.3616 3.437
14.3919 2.344
14.4222 3.281
14.4524 3.281
14.4827 3.594
14.5130 3.073
14.5433 3.281
14.5736 3.177
14.6038 3.229
14.6341 2.969
14.6644 2.917
14.6947 2.812
14.7250 3.333
14.7552 3.333
14.7855 2.812
14.8158 3.125
14.8461 3.125
14.8764 3.281
14.9066 3.021
14.9369 2.500
14.9672 2.917
14.9975 3.281
15.0277 2.917
15.0580 2.292
15.0883 3.073
15.1186 3.073
15.1489 2.969
15.1791 2.448
15.2094 2.448
15.2397 2.500
15.2700 3.698
15.3003 2.552
15.3305 2.708
15.3608 2.708
15.3911 2.969
15.4214 3.281
15.4516 3.281
15.4819 3.802
15.5122 2.292
15.5425 2.760
15.5728 2.917
15.6030 3.385
15.6333 2.969
15.6636 2.031
15.6939 3.437
15.7242 2.917
15.7544 2.969
15.7847 2.031
15.8150 3.073
15.8453 2.344
15.8755 3.281
15.9058 2.969
15.9361 3.073
15.9664 2.344
15.9967 2.656
16.0269 2.865
16.0572 3.750
16.0875 3.177
16.1178 2.760
16.1481 3.646
16.1783 3.177
16.2086 2.448
16.2389 3.073
16.2692 3.073
16.2994 2.500
16.3297 2.031
16.3600 2.760
16.3903 2.812
16.4206 2.969
16.4508 2.812
16.4811 3.229
16.5114 3.073
16.5417 1.875
16.5720 2.083
16.6022 2.604
16.6325 3.333
16.6628 2.969
16.6931 2.969
16.7233 2.917
16.7536 2.969
16.7839 2.240
16.8142 2.656
16.8445 2.552
16.8747 2.812
16.9050 3.281
16.9353 3.385
16.9656 3.281
16.9959 2.708
17.0261 2.969
17.0564 3.021
17.0867 2.865
17.1170 3.802
17.1472 2.760
17.1775 2.500
17.2078 2.865
17.2381 2.396
17.2684 2.969
17.2986 2.344
17.3289 3.125
17.3592 2.760
17.3895 3.125
17.4198 3.177
17.4500 2.812
17.4803 2.917
17.5106 2.500
17.5409 3.125
17.5712 2.292
17.6014 2.448
17.6317 2.187
17.6620 2.135
17.6923 2.656
17.7225 2.812
17.7528 3.177
17.7831 3.490
17.8134 2.500
17.8437 2.917
17.8739 3.125
17.9042 2.708
17.9345 2.656
17.9648 2.969
17.9951 2.865
18.0253 2.656
18.0556 2.760
18.0859 3.021
18.1162 2.240
18.1464 2.917
18.1767 2.500
18.2070 3.073
18.2373 2.083
18.2676 2.448
18.2978 2.240
18.3281 2.344
18.3584 3.125
18.3887 2.812
18.4190 2.656
18.4492 3.021
18.4795 2.552
18.5098 2.448
18.5401 2.031
18.5703 2.135
18.6006 2.344
18.6309 2.552
18.6612 2.708
18.6915 2.865
18.7217 2.500
18.7520 2.448
18.7823 3.490
18.8126 1.615
18.8429 2.240
18.8731 2.552
18.9034 2.917
18.9337 2.604
18.9640 2.500
18.9942 2.344
19.0245 1.875
19.0548 2.083
19.0851 3.229
19.1154 2.396
19.1456 3.177
19.1759 3.021
19.2062 2.240
19.2365 2.500
19.2668 3.646
19.2970 2.344
19.3273 2.604
19.3576 3.021
19.3879 2.292
19.4181 2.240
19.4484 2.448
19.4787 2.240
19.5090 2.708
19.5393 2.292
19.5695 2.396
19.5998 2.187
19.6301 2.917
19.6604 2.187
19.6907 2.240
19.7209 1.875
19.7512 2.031
19.7815 2.292
19.8118 2.344
19.8420 2.344
19.8723 2.448
19.9026 2.135
19.9329 2.969
19.9632 2.344
19.9934 2.500
20.0237 2.344
20.0540 2.396
20.0843 2.448
20.1146 3.281
20.1448 2.448
20.1751 1.979
20.2054 2.865
20.2357 2.552
20.2659 2.708
20.2962 2.344
20.3265 1.719
20.3568 2.083
20.3871 3.021
20.4173 2.812
20.4476 1.771
20.4779 2.760
20.5082 2.812
20.5385 1.927
20.5687 3.021
20.5990 1.771
20.6293 2.604
20.6596 1.927
20.6899 2.083
20.7201 2.552
20.7504 2.396
20.7807 2.135
20.8110 2.656
20.8412 2.604
20.8715 1.771
20.9018 2.552
20.9321 2.500
20.9624 2.344
20.9926 2.552
21.0229 1.875
21.0532 2.865
21.0835 2.500
21.1138 2.240
21.1440 1.875
21.1743 2.187
21.2046 1.719
21.2349 1.250
21.2651 3.125
21.2954 2.083
21.3257 2.292
21.3560 2.760
21.3863 2.760
21.4165 1.771
21.4468 1.875
21.4771 2.396
21.5074 2.240
21.5377 2.135
21.5679 1.615
21.5982 2.500
21.6285 2.396
21.6588 2.500
21.6890 2.500
21.7193 2.708
21.7496 1.458
21.7799 2.969
21.8102 2.083
21.8404 2.240
21.8707 2.344
21.9010 2.292
21.9313 2.240
21.9616 2.500
21.9918 2.865
22.0221 2.396
22.0524 2.135
22.0827 2.292
22.1129 2.292
22.1432 2.656
22.1735 2.969
22.2038 2.969
22.2341 2.656
22.2643 2.812
22.2946 2.500
22.3249 2.344
22.3552 2.448
22.3855 2.552
22.4157 2.396
22.4460 2.240
22.4763 2.396
22.5066 2.396
22.5368 2.448
22.5671 2.292
22.5974 2.187
22.6277 1.927
22.6580 2.812
22.6882 2.031
22.7185 1.979
22.7488 2.135
22.7791 2.187
22.8094 2.708
22.8396 2.292
22.8699 2.344
22.9002 2.344
22.9305 2.552
22.9607 2.344
22.9910 2.448
23.0213 2.187
23.0516 2.656
23.0819 1.927
23.1121 2.031
23.1424 2.135
23.1727 2.448
23.2030 1.927
23.2333 2.500
23.2635 2.552
23.2938 2.708
23.3241 2.552
23.3544 2.552
23.3846 2.448
23.4149 2.448
23.4452 3.281
23.4755 2.396
23.5058 1.510
23.5360 2.865
23.5663 2.292
23.5966 3.385
23.6269 2.187
23.6572 2.344
23.6874 2.500
23.7177 2.448
23.7480 2.083
23.7783 2.187
23.8086 1.823
23.8388 1.823
23.8691 1.667
23.8994 2.500
23.9297 2.396
23.9599 3.125
23.9902 1.771
24.0205 2.448
24.0508 2.083
24.0811 2.656
24.1113 2.344
24.1416 2.135
24.1719 1.927
24.2022 2.344
24.2325 1.979
24.2627 2.135
24.2930 1.823
24.3233 2.552
24.3536 1.823
24.3838 1.875
24.4141 1.875
24.4444 1.406
24.4747 2.396
24.5050 2.344
24.5352 3.021
24.5655 2.031
24.5958 2.187
24.6261 2.292
24.6564 2.135
24.6866 2.448
24.7169 2.812
24.7472 2.552
24.7775 1.667
24.8077 2.135
24.8380 1.979
24.8683 2.552
24.8986 1.979
24.9289 2.917
24.9591 2.344
24.9894 2.187
25.0197 1.667
25.0500 2.187
25.0803 1.823
25.1105 2.396
25.1408 1.927
25.1711 1.771
25.2014 2.500
25.2316 2.656
25.2619 2.500
25.2922 2.708
25.3225 2.812
25.3528 1.771
25.3830 1.562
25.4133 1.458
25.4436 2.500
25.4739 2.187
25.5042 2.187
25.5344 2.708
25.5647 2.292
25.5950 1.979
25.6253 2.552
25.6555 2.604
25.6858 1.927
25.7161 1.979
25.7464 1.667
25.7767 2.604
25.8069 2.031
25.8372 2.552
25.8675 2.448
25.8978 2.396
25.9281 2.240
25.9583 2.344
25.9886 2.187
26.0189 2.187
26.0492 2.917
26.0794 2.760
26.1097 2.135
26.1400 2.135
26.1703 2.448
26.2006 2.344
26.2308 1.979
26.2611 2.187
26.2914 2.604
26.3217 2.448
26.3520 2.604
26.3822 2.031
26.4125 2.708
26.4428 2.760
26.4731 1.979
26.5034 2.240
26.5336 2.292
26.5639 2.031
26.5942 2.865
26.6245 2.135
26.6547 1.979
26.6850 1.927
26.7153 1.823
26.7456 2.240
26.7759 2.448
26.8061 2.500
26.8364 2.344
26.8667 2.187
26.8970 2.031
26.9273 1.979
26.9575 2.917
26.9878 2.708
27.0181 2.292
27.0484 2.760
27.0786 2.604
27.1089 2.812
27.1392 2.292
27.1695 2.708
27.1998 2.135
27.2300 2.917
27.2603 2.396
27.2906 2.552
27.3209 2.656
27.3512 2.969
27.3814 2.500
27.4117 2.656
27.4420 2.604
27.4723 2.344
27.5025 3.073
27.5328 2.760
27.5631 2.812
27.5934 2.552
27.6237 2.500
27.6539 2.187
27.6842 2.500
27.7145 3.802
27.7448 2.187
27.7751 2.656
27.8053 2.708
27.8356 3.021
27.8659 3.177
27.8962 2.552
27.9264 2.500
27.9567 2.604
27.9870 3.073
28.0173 2.604
28.0476 2.344
28.0778 2.552
28.1081 3.594
28.1384 2.083
28.1687 2.500
28.1990 2.917
28.2292 2.708
28.2595 2.969
28.2898 2.604
28.3201 2.656
28.3503 3.229
28.3806 2.656
28.4109 3.698
28.4412 2.708
28.4715 2.917
28.5017 3.646
28.5320 3.542
28.5623 3.698
28.5926 2.917
28.6229 3.177
28.6531 2.917
28.6834 3.490
28.7137 3.125
28.7440 2.604
28.7742 2.604
28.8045 3.073
28.8348 2.865
28.8651 2.604
28.8954 2.344
28.9256 3.333
28.9559 2.812
28.9862 3.073
29.0165 3.958
29.0468 3.594
29.0770 2.448
29.1073 2.969
29.1376 2.552
29.1679 2.865
29.1981 3.281
29.2284 3.073
29.2587 2.760
29.2890 3.437
29.3193 3.437
29.3495 3.490
29.3798 3.750
29.4101 2.812
29.4404 2.656
29.4707 3.229
29.5009 2.187
29.5312 3.542
29.5615 2.708
29.5918 3.333
29.6221 3.177
29.6523 3.437
29.6826 4.167
29.7129 3.125
29.7432 3.646
29.7734 4.062
29.8037 3.385
29.8340 3.854
29.8643 3.854
29.8946 3.542
29.9248 3.073
29.9551 4.219
29.9854 3.802
30.0157 4.427
30.0460 4.896
30.0762 3.906
30.1065 4.062
30.1368 3.281
30.1671 4.687
30.1973 4.271
30.2276 4.792
30.2579 5.208
30.2882 4.740
30.3185 4.687
30.3487 4.740
30.3790 4.479
30.4093 4.948
30.4396 4.740
30.4699 5.521
30.5001 5.260
30.5304 4.323
30.5607 5.000
30.5910 6.198
30.6212 5.885
30.6515 5.365
30.6818 6.094
30.7121 5.365
30.7424 7.031
30.7726 6.719
30.8029 6.979
30.8332 6.719
30.8635 8.021
30.8938 7.760
30.9240 7.760
30.9543 7.396
30.9846 9.323
31.0149 8.437
31.0451 9.010
31.0754 10.365
31.1057 11.250
31.1360 12.708
31.1663 11.094
31.1965 14.687
31.2268 14.219
31.2571 14.271
31.2874 16.615
31.3177 18.437
31.3479 20.052
31.3782 21.458
31.4085 23.646
31.4388 27.135
31.4690 27.604
31.4993 33.490
31.5296 36.042
31.5599 36.771
31.5902 39.427
31.6204 44.115
31.6507 41.510
31.6810 42.448
31.7113 41.771
31.7416 39.219
31.7718 34.948
31.8021 30.990
31.8324 30.417
31.8627 26.094
31.8929 22.656
31.9232 18.802
31.9535 17.083
31.9838 16.302
32.0141 13.594
32.0443 14.635
32.0746 13.385
32.1049 12.604
32.1352 10.625
32.1655 10.469
32.1957 10.260
32.2260 10.156
32.2563 9.115
32.2866 7.917
32.3169 7.187
32.3471 6.667
32.3774 8.437
32.4077 6.875
32.4380 7.135
32.4682 7.292
32.4985 6.406
32.5288 6.094
32.5591 5.729
32.5894 5.521
32.6196 6.510
32.6499 6.302
32.6802 5.521
32.7105 5.469
32.7408 4.687
32.7710 6.042
32.8013 4.896
32.8316 5.625
32.8619 4.792
32.8921 4.479
32.9224 5.260
32.9527 3.958
32.9830 5.208
33.0133 4.271
33.0435 5.000
33.0738 5.312
33.1041 4.427
33.1344 4.167
33.1647 5.104
33.1949 6.146
33.2252 5.156
33.2555 4.687
33.2858 5.573
33.3160 5.469
33.3463 5.885
33.3766 6.562
33.4069 5.573
33.4372 5.000
33.4674 6.042
33.4977 6.823
33.5280 5.260
33.5583 5.417
33.5886 5.937
33.6188 6.198
33.6491 5.833
33.6794 5.625
33.7097 6.615
33.7399 6.562
33.7702 7.031
33.8005 7.969
33.8308 9.167
33.8611 9.635
33.8913 8.229
33.9216 10.729
33.9519 10.677
33.9822 10.833
34.0125 14.948
34.0427 13.594
34.0730 16.458
34.1033 20.000
34.1336 21.562
34.1638 25.469
34.1941 30.469
34.2244 37.812
34.2547 46.510
34.2850 52.500
34.3152 49.167
34.3455 45.573
34.3758 42.292
34.4061 38.802
34.4364 32.500
34.4666 23.646
34.4969 20.208
34.5272 19.531
34.5575 16.927
34.5877 14.062
34.6180 12.969
34.6483 10.781
34.6786 11.354
34.7089 10.833
34.7391 8.854
34.7694 8.958
34.7997 9.219
34.8300 8.333
34.8603 9.375
34.8905 8.125
34.9208 7.708
34.9511 8.490
34.9814 8.437
35.0116 8.906
35.0419 7.969
35.0722 6.510
35.1025 8.698
35.1328 9.010
35.1630 8.385
35.1933 8.229
35.2236 8.750
35.2539 9.167
35.2842 8.385
35.3144 8.073
35.3447 9.427
35.3750 9.844
35.4053 9.948
35.4356 11.302
35.4658 10.573
35.4961 12.396
35.5264 12.812
35.5567 11.042
35.5869 13.906
35.6172 16.042
35.6475 17.031
35.6778 17.396
35.7081 18.385
35.7383 21.719
35.7686 21.458
35.7989 23.750
35.8292 26.406
35.8595 30.417
35.8897 32.969
35.9200 34.583
35.9503 43.958
35.9806 44.427
36.0108 49.896
36.0411 52.917
36.0714 56.250
36.1017 60.625
36.1320 58.021
36.1622 61.094
36.1925 56.875
36.2228 57.708
36.2531 51.042
36.2834 45.885
36.3136 42.396
36.3439 37.500
36.3742 32.708
36.4045 29.375
36.4347 25.990
36.4650 23.125
36.4953 20.781
36.5256 20.156
36.5559 17.083
36.5861 15.312
36.6164 15.365
36.6467 14.479
36.6770 13.958
36.7073 10.937
36.7375 10.469
36.7678 10.990
36.7981 9.740
36.8284 9.271
36.8586 8.021
36.8889 8.281
36.9192 7.812
36.9495 6.562
36.9798 7.396
37.0100 7.344
37.0403 6.719
37.0706 6.458
37.1009 5.312
37.1312 7.135
37.1614 6.094
37.1917 4.948
37.2220 5.833
37.2523 5.625
37.2825 5.365
37.3128 5.052
37.3431 4.115
37.3734 4.948
37.4037 3.906
37.4339 4.427
37.4642 4.792
37.4945 4.375
37.5248 3.177
37.5551 4.427
37.5853 4.219
37.6156 4.427
37.6459 3.854
37.6762 3.698
37.7064 3.542
37.7367 3.802
37.7670 3.802
37.7973 4.115
37.8276 3.906
37.8578 3.125
37.8881 3.229
37.9184 2.760
37.9487 3.281
37.9790 2.917
38.0092 3.281
38.0395 2.240
38.0698 3.229
38.1001 2.917
38.1304 2.865
38.1606 3.490
38.1909 3.646
38.2212 3.229
38.2515 3.333
38.2817 2.760
38.3120 3.333
38.3423 2.656
38.3726 2.760
38.4029 2.760
38.4331 2.240
38.4634 2.812
38.4937 3.177
38.5240 3.021
38.5543 2.656
38.5845 3.333
38.6148 3.229
38.6451 2.240
38.6754 1.875
38.7056 2.760
38.7359 2.083
38.7662 2.344
38.7965 3.229
38.8268 2.760
38.8570 2.917
38.8873 2.865
38.9176 2.292
38.9479 2.031
38.9782 2.344
39.0084 2.187
39.0387 2.917
39.0690 1.927
39.0993 2.812
39.1295 1.823
39.1598 1.979
39.1901 2.448
39.2204 2.344
39.2507 2.031
39.2809 1.198
39.3112 2.031
39.3415 2.187
39.3718 1.979
39.4021 1.927
39.4323 1.875
39.4626 2.604
39.4929 1.979
39.5232 1.615
39.5534 2.604
39.5837 2.135
39.6140 2.083
39.6443 2.344
39.6746 2.083
39.7048 2.187
39.7351 2.656
39.7654 2.396
39.7957 2.865
39.8260 1.875
39.8562 2.135
39.8865 1.823
39.9168 2.344
39.9471 2.292
39.9773 2.031
40.0076 2.240
40.0379 2.448
40.0682 1.927
40.0985 2.448
40.1287 2.135
40.1590 2.240
40.1893 2.187
40.2196 2.083
40.2499 2.135
40.2801 2.187
40.3104 1.927
40.3407 1.875
40.3710 1.302
40.4012 1.719
40.4315 1.510
40.4618 1.302
40.4921 1.458
40.5224 1.406
40.5526 2.448
40.5829 1.302
40.6132 1.875
40.6435 1.719
40.6738 1.615
40.7040 2.031
40.7343 1.771
40.7646 2.292
40.7949 1.667
40.8251 2.135
40.8554 2.083
40.8857 1.927
40.9160 2.031
40.9463 2.292
40.9765 1.823
41.0068 2.031
41.0371 1.927
41.0674 1.510
41.0977 1.406
41.1279 1.875
41.1582 2.292
41.1885 1.875
41.2188 1.927
41.2491 2.292
41.2793 2.083
41.3096 2.240
41.3399 2.083
41.3702 1.146
41.4004 1.510
41.4307 2.135
41.4610 1.771
41.4913 2.083
41.5216 1.875
41.5518 2.083
41.5821 2.344
41.6124 1.823
41.6427 1.458
41.6730 1.927
41.7032 1.354
41.7335 1.719
41.7638 1.823
41.7941 2.344
41.8243 1.927
41.8546 2.083
41.8849 1.771
41.9152 1.458
41.9455 1.979
41.9757 2.083
42.0060 2.135
42.0363 1.771
42.0666 2.135
42.0969 1.719
42.1271 1.406
42.1574 2.604
42.1877 1.875
42.2180 2.031
42.2482 1.562
42.2785 1.615
42.3088 1.719
42.3391 2.448
42.3694 1.771
42.3996 2.396
42.4299 2.083
42.4602 2.135
42.4905 1.458
42.5208 1.771
42.5510 1.927
42.5813 1.458
42.6116 1.510
42.6419 1.667
42.6721 2.187
42.7024 1.823
42.7327 1.719
42.7630 2.031
42.7933 1.875
42.8235 1.719
42.8538 1.979
42.8841 1.719
42.9144 1.406
42.9447 1.979
42.9749 1.719
43.0052 1.406
43.0355 2.240
43.0658 1.615
43.0960 2.240
43.1263 1.510
43.1566 1.667
43.1869 1.823
43.2172 1.875
43.2474 1.771
43.2777 2.292
43.3080 1.771
43.3383 1.667
43.3686 1.927
43.3988 1.510
43.4291 1.771
43.4594 1.562
43.4897 1.771
43.5199 1.615
43.5502 2.031
43.5805 2.135
43.6108 2.135
43.6411 1.615
43.6713 1.875
43.7016 2.187
43.7319 1.615
43.7622 1.823
43.7925 1.823
43.8227 1.979
43.8530 2.031
43.8833 1.823
43.9136 1.823
43.9439 1.979
43.9741 1.979
44.0044 1.927
44.0347 2.031
44.0650 1.823
44.0952 2.656
44.1255 1.458
44.1558 1.823
44.1861 1.927
44.2164 1.927
44.2466 1.771
44.2769 1.615
44.3072 2.135
44.3375 1.771
44.3678 1.562
44.3980 2.500
44.4283 1.510
44.4586 1.927
44.4889 2.031
44.5191 1.979
44.5494 2.083
44.5797 1.771
44.6100 1.458
44.6403 2.083
44.6705 1.771
44.7008 2.031
44.7311 1.719
44.7614 2.083
44.7917 2.500
44.8219 2.292
44.8522 1.667
44.8825 2.865
44.9128 2.187
44.9430 1.875
44.9733 2.083
45.0036 1.615
45.0339 1.562
45.0642 1.979
45.0944 2.396
45.1247 2.187
45.1550 1.823
45.1853 2.031
45.2156 1.979
45.2458 2.396
45.2761 1.979
45.3064 2.083
45.3367 1.406
45.3669 2.083
45.3972 1.719
45.4275 2.083
45.4578 2.344
45.4881 2.083
45.5183 1.927
45.5486 2.135
45.5789 2.135
45.6092 2.292
45.6395 2.031
45.6697 2.135
45.7000 2.604
45.7303 1.719
45.7606 1.615
45.7908 1.875
45.8211 2.292
45.8514 2.187
45.8817 2.448
45.9120 2.031
45.9422 2.031
45.9725 1.979
46.0028 1.667
46.0331 1.927
46.0634 2.500
46.0936 2.604
46.1239 2.552
46.1542 2.031
46.1845 2.552
46.2147 2.604
46.2450 2.187
46.2753 2.656
46.3056 2.552
46.3359 2.083
46.3661 2.552
46.3964 2.500
46.4267 2.135
46.4570 2.917
46.4873 2.604
46.5175 2.552
46.5478 2.917
46.5781 2.083
46.6084 2.917
46.6386 3.073
46.6689 3.177
46.6992 3.073
46.7295 2.812
46.7598 3.594
46.7900 2.812
46.8203 2.917
46.8506 3.854
46.8809 4.583
46.9112 5.260
46.9414 5.104
46.9717 4.792
47.0020 4.844
47.0323 4.792
47.0626 5.312
47.0928 5.990
47.1231 7.448
47.1534 7.344
47.1837 7.969
47.2139 8.854
47.2442 10.521
47.2745 9.792
47.3048 10.312
47.3351 12.187
47.3653 12.240
47.3956 13.333
47.4259 12.448
47.4562 11.771
47.4865 12.448
47.5167 11.719
47.5470 11.823
47.5773 9.792
47.6076 10.208
47.6378 9.167
47.6681 7.031
47.6984 7.448
47.7287 6.302
47.7590 4.948
47.7892 4.896
47.8195 4.844
47.8498 4.167
47.8801 3.906
47.9104 3.906
47.9406 3.646
47.9709 4.271
48.0012 3.698
48.0315 3.385
48.0617 3.385
48.0920 3.490
48.1223 3.698
48.1526 2.760
48.1829 2.917
48.2131 2.552
48.2434 3.021
48.2737 2.760
48.3040 2.240
48.3343 1.927
48.3645 2.031
48.3948 2.396
48.4251 2.292
48.4554 2.396
48.4856 1.927
48.5159 2.135
48.5462 3.021
48.5765 2.187
48.6068 2.240
48.6370 2.240
48.6673 2.344
48.6976 1.615
48.7279 1.927
48.7582 2.083
48.7884 1.615
48.8187 2.760
48.8490 2.344
48.8793 1.979
48.9095 2.604
48.9398 1.823
48.9701 1.719
49.0004 1.823
49.0307 1.719
49.0609 2.292
49.0912 1.719
49.1215 2.240
49.1518 2.344
49.1821 1.719
49.2123 1.510
49.2426 1.250
49.2729 1.302
49.3032 1.979
49.3334 1.875
49.3637 2.240
49.3940 1.979
49.4243 1.979
49.4546 1.250
49.4848 1.771
49.5151 1.979
49.5454 1.979
49.5757 1.615
49.6060 1.927
49.6362 1.875
49.6665 2.031
49.6968 1.927
49.7271 2.500
49.7574 2.135
49.7876 2.083
49.8179 2.083
49.8482 1.562
49.8785 2.031
49.9087 1.250
49.9390 1.719
49.9693 1.979
49.9996 1.302
50.0299 1.823
50.0601 1.302
50.0904 1.771
50.1207 1.615
50.1510 1.406
50.1813 1.771
50.2115 2.031
50.2418 1.562
50.2721 2.187
50.3024 2.240
50.3326 2.083
50.3629 1.667
50.3932 1.667
50.4235 2.396
50.4538 2.708
50.4840 1.979
50.5143 1.458
50.5446 1.615
50.5749 1.406
50.6052 1.979
50.6354 1.458
50.6657 1.615
50.6960 1.250
50.7263 1.823
50.7565 1.615
50.7868 1.458
50.8171 1.250
50.8474 1.719
50.8777 1.562
50.9079 1.927
50.9382 1.615
50.9685 1.562
50.9988 1.927
51.0291 1.615
51.0593 1.198
51.0896 2.031
51.1199 2.031
51.1502 2.031
51.1804 2.031
51.2107 2.240
51.2410 1.302
51.2713 1.719
51.3016 2.240
51.3318 1.979
51.3621 1.250
51.3924 2.135
51.4227 1.458
51.4530 1.615
51.4832 1.354
51.5135 1.146
51.5438 1.458
51.5741 1.719
51.6043 2.240
51.6346 1.458
51.6649 1.458
51.6952 1.458
51.7255 1.510
51.7557 1.875
51.7860 1.875
51.8163 1.667
51.8466 1.823
51.8769 1.458
51.9071 1.458
51.9374 1.667
51.9677 1.146
51.9980 2.448
52.0282 1.250
52.0585 1.979
52.0888 1.510
52.1191 1.823
52.1494 1.615
52.1796 1.719
52.2099 1.250
52.2402 1.562
52.2705 2.031
52.3008 1.406
52.3310 1.615
52.3613 1.510
52.3916 1.667
52.4219 1.667
52.4521 1.771
52.4824 1.875
52.5127 1.615
52.5430 2.031
52.5733 1.771
52.6035 1.823
52.6338 1.302
52.6641 1.719
52.6944 1.875
52.7247 1.562
52.7549 1.562
52.7852 1.562
52.8155 1.927
52.8458 1.771
52.8761 1.771
52.9063 1.615
52.9366 1.615
52.9669 1.979
52.9972 1.250
53.0274 1.562
53.0577 1.562
53.0880 1.823
53.1183 1.979
53.1486 1.771
53.1788 2.187
53.2091 2.031
53.2394 1.406
53.2697 1.823
53.3000 1.354
53.3302 1.875
53.3605 1.250
53.3908 2.396
53.4211 1.094
53.4513 1.927
53.4816 1.458
53.5119 1.719
53.5422 1.510
53.5725 2.187
53.6027 1.823
53.6330 1.823
53.6633 1.667
53.6936 1.823
53.7239 1.771
53.7541 1.458
53.7844 1.354
53.8147 1.823
53.8450 1.667
53.8752 1.510
53.9055 1.823
53.9358 1.615
53.9661 1.615
53.9964 1.771
54.0266 1.146
54.0569 1.927
54.0872 1.771
54.1175 1.771
54.1478 2.187
54.1780 1.979
54.2083 1.771
54.2386 1.823
54.2689 2.083
54.2991 1.771
54.3294 1.615
54.3597 1.979
54.3900 2.448
54.4203 2.240
54.4505 1.875
54.4808 1.927
54.5111 2.448
54.5414 1.823
54.5717 1.719
54.6019 1.771
54.6322 1.979
54.6625 2.135
54.6928 2.031
54.7230 2.344
54.7533 1.771
54.7836 1.979
54.8139 2.344
54.8442 2.135
54.8744 1.823
54.9047 1.823
54.9350 2.448
54.9653 1.979
54.9956 2.292
55.0258 2.760
55.0561 2.396
55.0864 2.187
55.1167 2.135
55.1469 2.396
55.1772 2.240
55.2075 3.229
55.2378 2.448
55.2681 3.125
55.2983 2.083
55.3286 2.292
55.3589 2.292
55.3892 2.969
55.4195 2.760
55.4497 2.448
55.4800 3.646
55.5103 2.604
55.5406 3.125
55.5709 3.177
55.6011 2.969
55.6314 3.802
55.6617 3.385
55.6920 3.750
55.7222 3.385
55.7525 3.854
55.7828 3.281
55.8131 3.646
55.8434 3.698
55.8736 3.854
55.9039 5.469
55.9342 4.635
55.9645 5.000
55.9948 5.365
56.0250 5.833
56.0553 7.135
56.0856 6.719
56.1159 7.396
56.1461 8.542
56.1764 7.865
56.2067 8.125
56.2370 9.583
56.2673 10.260
56.2975 11.979
56.3278 12.448
56.3581 13.073
56.3884 14.844
56.4187 14.531
56.4489 16.146
56.4792 14.948
56.5095 14.479
56.5398 14.583
56.5700 15.260
56.6003 13.385
56.6306 11.979
56.6609 12.292
56.6912 11.094
56.7214 9.740
56.7517 9.844
56.7820 9.531
56.8123 7.656
56.8426 7.552
56.8728 7.083
56.9031 6.198
56.9334 6.094
56.9637 5.521
56.9939 5.312
57.0242 4.479
57.0545 5.312
57.0848 4.167
57.1151 4.219
57.1453 4.115
57.1756 3.854
57.2059 3.229
57.2362 3.594
57.2665 3.490
57.2967 2.865
57.3270 3.333
57.3573 3.073
57.3876 3.542
57.4178 2.552
57.4481 2.969
57.4784 2.969
57.5087 2.812
57.5390 2.708
57.5692 3.854
57.5995 3.437
57.6298 2.344
57.6601 2.708
57.6904 2.760
57.7206 2.604
57.7509 2.292
57.7812 2.344
57.8115 2.500
57.8417 1.875
57.8720 1.615
57.9023 3.333
57.9326 1.719
57.9629 1.875
57.9931 2.448
58.0234 1.823
58.0537 2.240
58.0840 2.344
58.1143 1.979
58.1445 1.927
58.1748 2.031
58.2051 1.979
58.2354 2.135
58.2656 2.187
58.2959 1.979
58.3262 1.771
58.3565 2.083
58.3868 2.031
58.4170 2.187
58.4473 1.927
58.4776 1.406
58.5079 2.292
58.5382 1.823
58.5684 1.719
58.5987 1.667
58.6290 2.396
58.6593 1.615
58.6896 1.510
58.7198 1.823
58.7501 1.719
58.7804 2.031
58.8107 1.562
58.8409 2.292
58.8712 1.771
58.9015 2.240
58.9318 1.771
58.9621 2.083
58.9923 1.719
59.0226 2.344
59.0529 2.292
59.0832 1.302
59.1135 1.562
59.1437 1.302
59.1740 1.927
59.2043 1.667
59.2346 1.823
59.2648 1.719
59.2951 1.823
59.3254 2.031
59.3557 1.927
59.3860 1.562
59.4162 1.667
59.4465 2.187
59.4768 1.510
59.5071 1.823
59.5374 2.083
59.5676 1.562
59.5979 1.823
59.6282 1.667
59.6585 2.135
59.6887 1.510
59.7190 1.042
59.7493 2.240
59.7796 1.771
59.8099 1.927
59.8401 2.083
59.8704 1.250
59.9007 1.615
59.9310 2.396
59.9613 1.927
59.9915 2.292
60.0218 1.771
60.0521 1.667
60.0824 1.406
60.1126 2.083
60.1429 1.927
60.1732 2.083
60.2035 1.510
60.2338 1.458
60.2640 1.823
60.2943 1.458
60.3246 1.875
60.3549 2.187
60.3852 1.042
60.4154 1.615
60.4457 1.771
60.4760 2.083
60.5063 2.083
60.5365 1.667
60.5668 2.292
60.5971 1.927
60.6274 1.771
60.6577 1.823
60.6879 1.927
60.7182 1.510
60.7485 1.875
60.7788 2.083
60.8091 1.719
60.8393 1.823
60.8696 1.875
60.8999 2.552
60.9302 1.979
60.9604 2.292
60.9907 1.406
61.0210 1.979
61.0513 1.771
61.0816 2.396
61.1118 1.927
61.1421 2.083
61.1724 2.031
61.2027 2.344
61.2330 1.615
61.2632 1.823
61.2935 2.656
61.3238 1.615
61.3541 1.823
61.3844 2.656
61.4146 1.771
61.4449 2.552
61.4752 2.396
61.5055 2.656
61.5357 1.979
61.5660 2.187
61.5963 1.979
61.6266 2.344
61.6569 2.240
61.6871 2.083
61.7174 2.448
61.7477 2.812
61.7780 2.396
61.8083 2.552
61.8385 2.969
61.8688 2.500
61.8991 2.865
61.9294 2.500
61.9596 2.917
61.9899 3.177
62.0202 2.969
62.0505 3.073
62.0808 3.802
62.1110 3.750
62.1413 3.698
62.1716 4.115
62.2019 4.375
62.2322 4.271
62.2624 4.531
62.2927 4.740
62.3230 5.208
62.3533 5.885
62.3835 6.250
62.4138 6.042
62.4441 7.344
62.4744 8.385
62.5047 8.385
62.5349 10.052
62.5652 10.000
62.5955 10.260
62.6258 10.000
62.6561 12.031
62.6863 11.667
62.7166 12.865
62.7469 12.865
62.7772 14.375
62.8074 15.469
62.8377 13.750
62.8680 14.219
62.8983 11.042
62.9286 10.052
62.9588 10.521
62.9891 8.021
63.0194 8.385
63.0497 8.385
63.0800 7.604
63.1102 6.458
63.1405 7.240
63.1708 5.156
63.2011 5.104
63.2313 6.146
63.2616 4.948
63.2919 4.792
63.3222 4.167
63.3525 3.073
63.3827 3.333
63.4130 3.229
63.4433 3.021
63.4736 3.073
63.5039 2.552
63.5341 3.177
63.5644 3.594
63.5947 3.073
63.6250 2.344
63.6552 2.865
63.6855 2.344
63.7158 2.865
63.7461 1.927
63.7764 1.979
63.8066 2.865
63.8369 2.552
63.8672 2.812
63.8975 2.552
63.9278 2.500
63.9580 2.448
63.9883 2.187
64.0186 2.083
64.0489 2.292
64.0791 2.500
64.1094 2.292
64.1397 2.083
64.1700 1.927
64.2003 2.292
64.2305 2.500
64.2608 2.500
64.2911 2.083
64.3214 1.823
64.3517 2.187
64.3819 2.031
64.4122 2.396
64.4425 2.135
64.4728 1.406
64.5031 2.344
64.5333 2.552
64.5636 2.500
64.5939 2.135
64.6242 2.083
64.6544 1.562
64.6847 1.458
64.7150 2.396
64.7453 1.927
64.7756 1.875
64.8058 1.771
64.8361 1.562
64.8664 2.292
64.8967 1.771
64.9270 1.667
64.9572 1.979
64.9875 1.562
65.0178 2.031
65.0481 2.187
65.0783 1.771
65.1086 1.927
65.1389 2.292
65.1692 1.927
65.1995 1.875
65.2297 2.135
65.2600 1.719
65.2903 1.510
65.3206 1.354
65.3509 1.927
65.3811 1.823
65.4114 2.292
65.4417 2.083
65.4720 1.198
65.5022 2.344
65.5325 1.719
65.5628 2.187
65.5931 2.396
65.6234 2.500
65.6536 2.604
65.6839 2.344
65.7142 2.396
65.7445 1.875
65.7748 1.510
65.8050 3.281
65.8353 2.292
65.8656 2.292
65.8959 2.292
65.9261 2.969
65.9564 3.542
65.9867 2.500
66.0170 3.594
66.0473 3.802
66.0775 2.604
66.1078 3.490
66.1381 3.906
66.1684 3.437
66.1987 3.125
66.2289 3.021
66.2592 3.542
66.2895 3.958
66.3198 3.073
66.3500 3.646
66.3803 3.698
66.4106 3.490
66.4409 3.437
66.4712 3.229
66.5014 3.021
66.5317 2.604
66.5620 3.437
66.5923 3.125
66.6226 4.323
66.6528 3.021
66.6831 2.812
66.7134 2.708
66.7437 2.917
66.7739 3.385
66.8042 2.448
66.8345 2.500
66.8648 2.396
66.8951 2.917
66.9253 3.385
66.9556 3.021
66.9859 3.385
67.0162 2.865
67.0465 3.281
67.0767 3.437
67.1070 3.490
67.1373 3.698
67.1676 3.385
67.1978 3.958
67.2281 4.219
67.2584 4.323
67.2887 3.437
67.3190 4.167
67.3492 5.521
67.3795 4.479
67.4098 4.479
67.4401 4.844
67.4704 5.000
67.5006 6.510
67.5309 6.042
67.5612 6.823
67.5915 7.292
67.6218 8.021
67.6520 6.562
67.6823 9.323
67.7126 8.125
67.7429 9.635
67.7731 8.490
67.8034 10.521
67.8337 10.625
67.8640 10.469
67.8943 8.594
67.9245 8.750
67.9548 9.271
67.9851 9.687
68.0154 7.865
68.0457 7.812
68.0759 6.771
68.1062 6.771
68.1365 6.875
68.1668 5.729
68.1970 6.406
68.2273 5.937
68.2576 5.885
68.2879 5.833
68.3182 6.823
68.3484 4.635
68.3787 4.896
68.4090 5.312
68.4393 4.844
68.4696 4.948
68.4998 4.740
68.5301 4.427
68.5604 4.896
68.5907 5.104
68.6209 4.323
68.6512 4.375
68.6815 5.312
68.7118 4.844
68.7421 4.271
68.7723 5.156
68.8026 4.271
68.8329 6.198
68.8632 5.208
68.8935 5.990
68.9237 5.677
68.9540 6.094
68.9843 5.937
69.0146 5.260
69.0448 5.260
69.0751 5.260
69.1054 5.521
69.1357 5.677
69.1660 4.740
69.1962 5.104
69.2265 4.531
69.2568 4.844
69.2871 4.219
69.3174 3.854
69.3476 3.594
69.3779 3.021
69.4082 3.958
69.4385 3.021
69.4687 2.292
69.4990 3.385
69.5293 2.708
69.5596 2.865
69.5899 2.500
69.6201 1.979
69.6504 2.240
69.6807 2.552
69.7110 2.448
69.7413 1.771
69.7715 2.656
69.8018 2.083
69.8321 2.031
69.8624 2.083
69.8926 2.656
69.9229 1.875
69.9532 2.240
69.9835 1.979
70.0138 1.927
70.0440 1.771
70.0743 1.875
70.1046 2.083
70.1349 1.562
70.1652 1.667
70.1954 2.031
70.2257 1.771
70.2560 2.187
70.2863 1.927
70.3166 1.875
70.3468 2.083
70.3771 1.042
70.4074 1.927
70.4377 1.562
70.4679 1.615
70.4982 1.302
70.5285 1.615
70.5588 1.823
70.5891 1.562
70.6193 1.615
70.6496 1.250
70.6799 1.719
70.7102 1.354
70.7405 1.719
70.7707 1.042
70.8010 1.823
70.8313 1.094
70.8616 1.458
70.8918 1.198
70.9221 1.458
70.9524 1.250
70.9827 1.719
71.0130 1.667
71.0432 1.354
71.0735 1.510
71.1038 1.771
71.1341 1.302
71.1644 1.250
71.1946 1.250
71.2249 1.771
71.2552 1.667
71.2855 1.562
71.3157 0.677
71.3460 1.823
71.3763 1.562
71.4066 1.354
71.4369 1.510
71.4671 1.146
71.4974 1.875
71.5277 1.458
71.5580 1.250
71.5883 1.510
71.6185 1.458
71.6488 0.937
71.6791 1.562
71.7094 1.094
71.7396 2.240
71.7699 1.667
71.8002 1.302
71.8305 1.719
71.8608 2.031
71.8910 1.927
71.9213 1.250
71.9516 1.615
71.9819 1.771
72.0122 1.615
72.0424 1.458
72.0727 1.562
72.1030 1.302
72.1333 1.458
72.1635 1.354
72.1938 2.083
72.2241 1.302
72.2544 1.458
72.2847 1.823
72.3149 2.031
72.3452 2.031
72.3755 1.719
72.4058 2.031
72.4361 2.031
72.4663 2.135
72.4966 2.240
72.5269 2.240
72.5572 2.031
72.5874 2.292
72.6177 1.458
72.6480 2.135
72.6783 1.927
72.7086 1.979
72.7388 1.667
72.7691 1.719
72.7994 1.615
72.8297 1.198
72.8600 1.094
72.8902 1.615
72.9205 1.458
72.9508 1.875
72.9811 1.406
73.0113 1.198
73.0416 1.198
73.0719 1.250
73.1022 1.094
73.1325 1.510
73.1627 1.302
73.1930 0.990
73.2233 1.302
73.2536 1.250
73.2839 1.510
73.3141 1.146
73.3444 1.510
73.3747 1.094
73.4050 0.885
73.4353 1.250
73.4655 0.781
73.4958 1.250
73.5261 1.250
73.5564 1.667
73.5866 1.302
73.6169 0.833
73.6472 0.729
73.6775 1.667
73.7078 1.250
73.7380 1.458
73.7683 1.198
73.7986 1.771
73.8289 1.198
73.8592 1.146
73.8894 1.771
73.9197 0.885
73.9500 1.302
73.9803 1.198
74.0105 1.615
74.0408 1.406
74.0711 1.354
74.1014 0.990
74.1317 1.042
74.1619 1.094
74.1922 1.250
74.2225 1.146
74.2528 1.198
74.2831 1.354
74.3133 0.885
74.3436 1.406
74.3739 0.781
74.4042 0.833
74.4344 1.146
74.4647 0.885
74.4950 1.615
74.5253 1.146
74.5556 1.146
74.5858 1.146
74.6161 1.458
74.6464 1.094
74.6767 1.250
74.7070 0.729
74.7372 1.042
74.7675 1.094
74.7978 1.250
74.8281 1.458
74.8583 1.094
74.8886 1.302
74.9189 1.458
74.9492 1.146
74.9795 0.937
75.0097 1.198
75.0400 1.094
75.0703 1.094
75.1006 1.198
75.1309 1.667
75.1611 1.042
75.1914 1.250
75.2217 1.458
75.2520 1.302
75.2822 0.990
75.3125 1.094
75.3428 1.042
75.3731 0.781
75.4034 1.250
75.4336 1.302
75.4639 0.990
75.4942 0.885
75.5245 1.719
75.5548 0.729
75.5850 1.198
75.6153 1.250
75.6456 1.354
75.6759 1.458
75.7061 1.198
75.7364 1.302
75.7667 1.198
75.7970 1.198
75.8273 1.198
75.8575 1.302
75.8878 1.302
75.9181 1.406
75.9484 1.354
75.9787 1.927
76.0089 1.615
76.0392 1.198
76.0695 1.250
76.0998 1.510
76.1301 1.823
76.1603 1.615
76.1906 1.406
76.2209 1.458
76.2512 1.771
76.2814 1.615
76.3117 1.406
76.3420 1.667
76.3723 1.198
76.4026 1.875
76.4328 1.302
76.4631 1.406
76.4934 1.354
76.5237 1.823
76.5540 1.927
76.5842 1.875
76.6145 1.927
76.6448 2.135
76.6751 2.240
76.7053 2.187
76.7356 2.083
76.7659 1.562
76.7962 1.302
76.8265 1.979
76.8567 2.083
76.8870 2.708
76.9173 2.240
76.9476 2.187
76.9779 1.875
77.0081 2.292
77.0384 1.667
77.0687 2.292
77.0990 1.875
77.1292 1.667
77.1595 1.875
77.1898 1.719
77.2201 1.667
77.2504 1.510
77.2806 2.135
77.3109 1.198
77.3412 2.083
77.3715 1.354
77.4018 1.771
77.4320 1.302
77.4623 1.615
77.4926 1.562
77.5229 1.146
77.5531 1.875
77.5834 1.823
77.6137 1.562
77.6440 1.615
77.6743 1.198
77.7045 1.354
77.7348 1.146
77.7651 1.562
77.7954 1.562
77.8257 1.198
77.8559 1.250
77.8862 0.677
77.9165 1.094
77.9468 1.510
77.9770 1.354
78.0073 1.198
78.0376 1.094
78.0679 1.198
78.0982 1.510
78.1284 0.990
78.1587 1.667
78.1890 1.146
78.2193 1.354
78.2496 1.042
78.2798 0.990
78.3101 1.302
78.3404 1.354
78.3707 1.198
78.4009 1.667
78.4312 1.354
78.4615 1.042
78.4918 1.198
78.5221 1.146
78.5523 1.615
78.5826 0.885
78.6129 1.198
78.6432 1.406
78.6735 1.354
78.7037 0.781
78.7340 0.885
78.7643 1.198
78.7946 1.406
78.8248 0.781
78.8551 0.729
78.8854 1.198
78.9157 1.354
78.9460 0.833
78.9762 0.937
79.0065 1.042
79.0368 1.146
79.0671 1.094
79.0974 1.302
79.1276 0.937
79.1579 1.146
79.1882 0.937
79.2185 1.823
79.2488 0.990
79.2790 1.198
79.3093 1.146
79.3396 1.458
79.3699 1.250
79.4001 1.042
79.4304 0.937
79.4607 0.990
79.4910 1.250
79.5213 1.146
79.5515 1.458
79.5818 1.667
79.6121 1.458
79.6424 1.302
79.6727 1.094
79.7029 0.625
79.7332 0.833
79.7635 1.042
79.7938 1.250
79.8240 1.198
79.8543 1.406
79.8846 1.458
79.9149 1.302
79.9452 1.302
79.9754 1.458
80.0057 1.406
80.0360 1.354
80.0663 1.354
80.0966 0.677
80.1268 1.510
80.1571 0.990
80.1874 1.146
80.2177 1.302
80.2479 0.937
80.2782 0.937
80.3085 1.406
80.3388 0.781
80.3691 0.833
80.3993 1.354
80.4296 1.146
80.4599 1.562
80.4902 0.885
80.5205 1.250
80.5507 0.937
80.5810 1.198
80.6113 1.406
80.6416 1.250
80.6718 1.094
80.7021 0.885
80.7324 1.302
80.7627 1.771
80.7930 1.198
80.8232 1.250
80.8535 1.615
80.8838 1.094
80.9141 1.615
80.9444 1.302
80.9746 1.250
81.0049 1.771
81.0352 1.146
81.0655 1.562
81.0957 1.510
81.1260 1.302
81.1563 1.562
81.1866 1.615
81.2169 1.667
81.2471 1.979
81.2774 1.198
81.3077 1.667
81.3380 1.615
81.3683 2.448
81.3985 1.354
81.4288 1.458
81.4591 1.198
81.4894 1.302
81.5196 0.990
81.5499 0.937
81.5802 1.146
81.6105 1.771
81.6408 2.135
81.6710 1.406
81.7013 1.250
81.7316 1.250
81.7619 1.458
81.7922 1.406
81.8224 1.406
81.8527 1.406
81.8830 0.781
81.9133 1.250
81.9436 1.094
81.9738 0.781
82.0041 1.198
82.0344 1.146
82.0647 1.458
82.0949 1.146
82.1252 1.198
82.1555 1.042
82.1858 1.042
82.2161 1.042
82.2463 0.990
82.2766 1.406
82.3069 1.250
82.3372 1.250
82.3675 0.781
82.3977 0.729
82.4280 1.250
82.4583 1.198
82.4886 1.198
82.5188 1.042
82.5491 1.094
82.5794 0.781
82.6097 1.250
82.6400 1.198
82.6702 1.510
82.7005 1.042
82.7308 0.521
82.7611 0.729
82.7914 1.250
82.8216 1.042
82.8519 1.198
82.8822 1.198
82.9125 0.729
82.9427 0.729
82.9730 1.198
83.0033 1.094
83.0336 1.094
83.0639 1.042
83.0941 1.094
83.1244 0.937
83.1547 1.302
83.1850 1.354
83.2153 1.094
83.2455 1.094
83.2758 1.406
83.3061 0.833
83.3364 1.198
83.3666 0.990
83.3969 1.198
83.4272 1.198
83.4575 0.677
83.4878 0.990
83.5180 0.729
83.5483 1.198
83.5786 0.729
83.6089 0.990
83.6392 1.458
83.6694 0.625
83.6997 1.354
83.7300 1.198
83.7603 1.302
83.7905 1.146
83.8208 1.198
83.8511 0.990
83.8814 0.937
83.9117 1.146
83.9419 1.615
83.9722 0.885
84.0025 1.510
84.0328 0.781
84.0631 1.354
84.0933 0.990
84.1236 0.833
84.1539 0.885
84.1842 1.094
84.2144 1.719
84.2447 0.885
84.2750 1.250
84.3053 1.198
84.3356 0.729
84.3658 0.937
84.3961 0.625
84.4264 1.406
84.4567 1.458
84.4870 1.042
84.5172 1.562
84.5475 1.198
84.5778 0.781
84.6081 0.990
84.6383 1.198
84.6686 0.729
84.6989 1.094
84.7292 1.198
84.7595 1.198
84.7897 1.406
84.8200 1.094
84.8503 0.833
84.8806 1.302
84.9109 1.146
84.9411 0.937
84.9714 0.937
85.0017 1.354
85.0320 1.302
85.0623 1.198
85.0925 0.937
85.1228 1.146
85.1531 1.354
85.1834 1.042
85.2136 0.990
85.2439 0.625
85.2742 1.042
85.3045 1.146
85.3348 1.146
85.3650 0.781
85.3953 1.042
85.4256 1.042
85.4559 1.406
85.4862 0.937
85.5164 1.198
85.5467 1.094
85.5770 1.302
85.6073 1.094
85.6375 0.990
85.6678 1.562
85.6981 1.146
85.7284 0.781
85.7587 0.990
85.7889 1.250
85.8192 1.354
85.8495 1.094
85.8798 1.198
85.9101 0.833
85.9403 0.469
85.9706 1.198
86.0009 1.198
86.0312 1.094
86.0614 0.729
86.0917 0.990
86.1220 0.833
86.1523 1.198
86.1826 1.146
86.2128 0.469
86.2431 1.250
86.2734 1.198
86.3037 1.094
86.3340 1.042
86.3642 0.990
86.3945 0.885
86.4248 0.833
86.4551 0.937
86.4853 1.198
86.5156 1.042
86.5459 0.885
86.5762 1.198
86.6065 1.094
86.6367 0.729
86.6670 0.885
86.6973 0.729
86.7276 0.937
86.7579 0.729
86.7881 1.198
86.8184 0.990
86.8487 1.510
86.8790 1.198
86.9092 0.937
86.9395 1.198
86.9698 1.354
87.0001 0.833
87.0304 1.042
87.0606 1.250
87.0909 1.198
87.1212 0.729
87.1515 1.094
87.1818 0.781
87.2120 1.198
87.2423 1.094
87.2726 1.979
87.3029 0.729
87.3331 0.937
87.3634 1.042
87.3937 1.146
87.4240 1.302
87.4543 1.198
87.4845 1.198
87.5148 1.094
87.5451 1.510
87.5754 1.094
87.6057 0.833
87.6359 1.146
87.6662 1.250
87.6965 1.198
87.7268 1.198
87.7571 0.885
87.7873 1.510
87.8176 1.146
87.8479 1.146
87.8782 1.354
87.9084 1.250
87.9387 1.198
87.9690 1.250
87.9993 1.146
88.0296 0.833
88.0598 0.729
88.0901 1.406
88.1204 1.094
88.1507 1.719
88.1810 1.198
88.2112 1.510
88.2415 1.667
88.2718 0.990
88.3021 1.615
88.3323 0.885
88.3626 1.198
88.3929 1.146
88.4232 1.458
88.4535 1.667
88.4837 1.042
88.5140 1.198
88.5443 1.250
88.5746 1.667
88.6049 1.510
88.6351 1.146
88.6654 1.667
88.6957 1.667
88.7260 1.667
88.7562 1.771
88.7865 1.719
88.8168 2.031
88.8471 1.302
88.8774 1.406
88.9076 2.135
88.9379 1.823
88.9682 1.979
88.9985 1.823
89.0288 2.187
89.0590 2.448
89.0893 1.510
89.1196 1.354
89.1499 2.708
89.1801 2.812
89.2104 2.292
89.2407 1.667
89.2710 2.500
89.3013 2.760
89.3315 2.604
89.3618 2.292
89.3921 3.073
89.4224 2.708
89.4527 3.021
89.4829 2.708
89.5132 3.073
89.5435 3.021
89.5738 2.604
89.6040 2.135
89.6343 2.292
89.6646 2.865
89.6949 3.281
89.7252 3.281
89.7554 2.604
89.7857 2.760
89.8160 2.344
89.8463 2.187
89.8766 2.135
89.9068 2.604
89.9371 1.615
89.9674 1.979
89.9977 1.979
90.0279 2.187
90.0582 1.719
90.0885 1.667
90.1188 1.823
90.1491 1.458
90.1793 1.615
90.2096 1.979
90.2399 1.302
90.2702 1.042
90.3005 2.031
90.3307 1.562
90.3610 1.667
90.3913 1.510
90.4216 1.406
90.4518 1.510
90.4821 1.094
90.5124 1.667
90.5427 1.198
90.5730 1.667
90.6032 1.562
90.6335 1.094
90.6638 1.615
90.6941 1.198
90.7244 1.094
90.7546 1.250
90.7849 1.302
90.8152 0.937
90.8455 1.562
90.8758 1.250
90.9060 1.562
90.9363 1.510
90.9666 1.250
90.9969 1.302
91.0271 1.198
91.0574 1.667
91.0877 1.094
91.1180 1.667
91.1483 0.885
91.1785 1.198
91.2088 0.937
91.2391 0.990
91.2694 1.146
91.2997 1.458
91.3299 1.510
91.3602 1.042
91.3905 1.406
91.4208 0.990
91.4510 1.667
91.4813 1.094
91.5116 1.406
91.5419 1.198
91.5722 1.562
91.6024 1.562
91.6327 1.042
91.6630 1.406
91.6933 1.146
91.7236 1.615
91.7538 1.354
91.7841 1.198
91.8144 1.250
91.8447 1.146
91.8749 1.146
91.9052 1.354
91.9355 1.562
91.9658 1.510
91.9961 1.667
92.0263 0.990
92.0566 1.875
92.0869 1.354
92.1172 1.406
92.1475 0.990
92.1777 1.458
92.2080 1.250
92.2383 1.354
92.2686 1.823
92.2988 0.990
92.3291 1.198
92.3594 1.094
92.3897 1.510
92.4200 1.354
92.4502 1.667
92.4805 1.406
92.5108 1.406
92.5411 1.771
92.5714 2.031
92.6016 1.615
92.6319 1.562
92.6622 1.719
92.6925 1.667
92.7227 1.823
92.7530 1.406
92.7833 1.979
92.8136 1.354
92.8439 1.458
92.8741 1.927
92.9044 1.562
92.9347 2.187
92.9650 1.875
92.9953 1.406
93.0255 1.979
93.0558 1.719
93.0861 1.302
93.1164 1.719
93.1466 2.187
93.1769 1.198
93.2072 1.771
93.2375 1.510
93.2678 1.094
93.2980 1.615
93.3283 1.302
93.3586 1.719
93.3889 1.302
93.4192 1.823
93.4494 1.979
93.4797 1.302
93.5100 1.198
93.5403 1.719
93.5706 1.146
93.6008 1.615
93.6311 1.354
93.6614 1.615
93.6917 1.198
93.7219 1.146
93.7522 1.562
93.7825 1.406
93.8128 1.094
93.8431 1.198
93.8733 0.729
93.9036 1.510
93.9339 1.771
93.9642 1.719
93.9945 1.302
94.0247 1.458
94.0550 1.823
94.0853 1.250
94.1156 1.667
94.1458 1.042
94.1761 1.510
94.2064 1.250
94.2367 1.302
94.2670 1.458
94.2972 1.667
94.3275 1.562
94.3578 1.927
94.3881 1.250
94.4184 1.979
94.4486 1.875
94.4789 1.458
94.5092 1.719
94.5395 1.406
94.5697 1.615
94.6000 2.083
94.6303 2.083
94.6606 2.083
94.6909 1.667
94.7211 1.615
94.7514 2.135
94.7817 2.135
94.8120 1.719
94.8423 2.396
94.8725 2.500
94.9028 2.031
94.9331 2.292
94.9634 1.458
94.9936 3.073
95.0239 2.344
95.0542 2.708
95.0845 2.656
95.1148 2.812
95.1450 2.344
95.1753 2.344
95.2056 2.969
95.2359 2.708
95.2662 3.021
95.2964 2.344
95.3267 2.083
95.3570 2.812
95.3873 2.500
95.4175 1.875
95.4478 2.708
95.4781 2.344
95.5084 3.385
95.5387 2.240
95.5689 2.396
95.5992 1.667
95.6295 2.083
95.6598 2.292
95.6901 1.875
95.7203 1.979
95.7506 1.667
95.7809 1.719
95.8112 2.656
95.8414 1.615
95.8717 1.667
95.9020 1.823
95.9323 1.562
95.9626 1.719
95.9928 1.719
96.0231 1.250
96.0534 1.354
96.0837 1.510
96.1140 1.250
96.1442 1.354
96.1745 1.719
96.2048 1.458
96.2351 2.500
96.2653 1.406
96.2956 1.771
96.3259 1.719
96.3562 1.771
96.3865 1.302
96.4167 1.562
96.4470 1.458
96.4773 1.354
96.5076 1.562
96.5379 1.250
96.5681 1.823
96.5984 1.094
96.6287 1.250
96.6590 1.094
96.6893 1.771
96.7195 1.250
96.7498 1.042
96.7801 1.250
96.8104 0.729
96.8406 1.198
96.8709 1.250
96.9012 1.406
96.9315 1.510
96.9618 1.250
96.9920 1.667
97.0223 1.302
97.0526 1.615
97.0829 0.937
97.1132 2.344
97.1434 1.875
97.1737 1.615
97.2040 1.562
97.2343 1.250
97.2645 0.833
97.2948 1.250
97.3251 1.354
97.3554 0.729
97.3857 1.250
97.4159 1.094
97.4462 1.406
97.4765 1.354
97.5068 1.771
97.5371 1.042
97.5673 1.146
97.5976 1.094
97.6279 1.458
97.6582 1.198
97.6884 1.302
97.7187 1.302
97.7490 1.406
97.7793 1.302
97.8096 1.094
97.8398 1.510
97.8701 1.250
97.9004 2.031
97.9307 1.094
97.9610 1.458
97.9912 1.667
98.0215 1.979
98.0518 1.094
98.0821 1.719
98.1123 1.562
98.1426 1.250
98.1729 1.927
98.2032 1.458
98.2335 1.719
98.2637 1.302
98.2940 1.510
98.3243 1.771
98.3546 1.250
98.3849 1.823
98.4151 1.094
98.4454 2.187
98.4757 2.240
98.5060 2.396
98.5362 2.656
98.5665 1.979
98.5968 1.927
98.6271 2.240
98.6574 1.875
98.6876 2.344
98.7179 1.458
98.7482 1.979
98.7785 1.615
98.8088 2.135
98.8390 1.615
98.8693 1.562
98.8996 1.719
98.9299 1.406
98.9601 2.292
98.9904 1.615
99.0207 1.562
99.0510 2.083
99.0813 2.083
99.1115 1.302
99.1418 1.302
99.1721 1.615
99.2024 1.667
99.2327 1.510
99.2629 1.302
99.2932 0.833
99.3235 1.823
99.3538 1.510
99.3841 1.302
99.4143 0.885
99.4446 2.031
99.4749 1.198
99.5052 1.667
99.5354 0.990
99.5657 1.354
99.5960 1.042
99.6263 1.719
99.6566 1.406
99.6868 1.667
99.7171 1.667
99.7474 1.406
99.7777 1.302
99.8080 1.562
99.8382 1.667
99.8685 0.833
99.8988 1.250
99.9291 0.833
99.9593 1.094
99.9896 0.937
100.0199 1.510
100.0502 1.302
100.0805 1.146
100.1107 1.354
100.1410 0.990
100.1713 1.146
100.2016 1.562
100.2319 0.990
100.2621 1.146
100.2924 1.198
100.3227 1.146
100.3530 1.146
100.3832 1.146
100.4135 1.198
100.4438 1.302
100.4741 1.302
100.5044 1.458
100.5346 0.990
100.5649 0.833
100.5952 1.302
100.6255 1.302
100.6558 1.302
100.6860 0.833
100.7163 1.458
100.7466 0.990
100.7769 1.302
100.8071 0.885
100.8374 1.094
100.8677 1.458
100.8980 0.781
100.9283 0.885
100.9585 1.302
100.9888 1.042
101.0191 1.771
101.0494 0.990
101.0797 1.406
101.1099 0.990
101.1402 0.729
101.1705 1.510
101.2008 1.198
101.2310 1.562
101.2613 1.458
101.2916 1.146
101.3219 1.302
101.3522 1.719
101.3824 1.146
101.4127 1.094
101.4430 1.302
101.4733 1.354
101.5036 1.458
101.5338 1.354
101.5641 1.042
101.5944 1.354
101.6247 1.458
101.6549 1.354
101.6852 0.990
101.7155 1.406
101.7458 1.302
101.7761 1.198
101.8063 1.198
101.8366 1.406
101.8669 1.562
101.8972 0.990
101.9275 1.042
101.9577 1.094
101.9880 1.510
102.0183 1.198
102.0486 1.875
102.0788 1.354
102.1091 1.042
102.1394 1.354
102.1697 1.250
102.2000 1.354
102.2302 1.510
102.2605 1.823
102.2908 1.354
102.3211 1.094
102.3514 1.771
102.3816 1.250
102.4119 1.146
102.4422 1.198
102.4725 1.510
102.5028 1.615
102.5330 1.979
102.5633 1.458
102.5936 1.875
102.6239 1.719
102.6541 1.875
102.6844 1.771
102.7147 1.875
102.7450 1.719
102.7753 1.302
102.8055 1.979
102.8358 2.083
102.8661 2.031
102.8964 2.552
102.9267 2.448
102.9569 1.615
102.9872 2.083
103.0175 2.240
103.0478 2.344
103.0780 1.823
103.1083 2.292
103.1386 1.771
103.1689 1.406
103.1992 1.979
103.2294 1.667
103.2597 1.771
103.2900 1.875
103.3203 1.094
103.3506 2.031
103.3808 1.927
103.4111 1.771
103.4414 1.667
103.4717 2.292
103.5019 1.927
103.5322 2.083
103.5625 2.187
103.5928 1.406
103.6231 1.823
103.6533 1.875
103.6836 2.500
103.7139 1.354
103.7442 1.927
103.7745 2.344
103.8047 2.031
103.8350 2.500
103.8653 1.927
103.8956 2.969
103.9258 1.562
103.9561 1.927
103.9864 2.552
104.0167 2.396
104.0470 2.500
104.0772 2.292
104.1075 2.500
104.1378 2.604
104.1681 2.031
104.1984 2.135
104.2286 2.292
104.2589 2.396
104.2892 1.823
104.3195 2.240
104.3497 2.083
104.3800 2.448
104.4103 2.292
104.4406 2.344
104.4709 1.875
104.5011 2.083
104.5314 1.510
104.5617 2.083
104.5920 1.667
104.6223 1.875
104.6525 1.719
104.6828 2.865
104.7131 1.562
104.7434 1.354
104.7736 1.406
104.8039 1.667
104.8342 1.719
104.8645 1.719
104.8948 1.354
104.9250 1.250
104.9553 1.198
104.9856 1.406
105.0159 1.302
105.0462 1.406
105.0764 0.833
105.1067 1.719
105.1370 1.198
105.1673 1.354
105.1975 1.302
105.2278 1.406
105.2581 1.250
105.2884 1.510
105.3187 1.094
105.3489 1.250
105.3792 1.771
105.4095 1.354
105.4398 1.458
105.4701 1.146
105.5003 1.146
105.5306 0.937
105.5609 1.042
105.5912 1.094
105.6215 1.354
105.6517 1.198
105.6820 1.667
105.7123 1.510
105.7426 0.885
105.7728 1.094
105.8031 1.406
105.8334 1.198
105.8637 1.406
105.8940 0.990
105.9242 1.406
105.9545 1.406
105.9848 1.667
106.0151 1.302
106.0454 1.042
106.0756 1.615
106.1059 1.354
106.1362 0.937
106.1665 1.615
106.1967 0.885
106.2270 0.625
106.2573 1.458
106.2876 1.250
106.3179 1.406
106.3481 1.406
106.3784 1.302
106.4087 1.458
106.4390 1.198
106.4693 0.990
106.4995 1.198
106.5298 1.354
106.5601 1.042
106.5904 1.458
106.6206 1.719
106.6509 1.094
106.6812 1.146
106.7115 0.781
106.7418 1.302
106.7720 1.354
106.8023 1.250
106.8326 1.042
106.8629 1.302
106.8932 1.615
106.9234 1.042
106.9537 1.302
106.9840 1.302
107.0143 0.990
107.0445 1.198
107.0748 0.990
107.1051 0.885
107.1354 1.510
107.1657 1.823
107.1959 1.042
107.2262 1.302
107.2565 1.458
107.2868 1.250
107.3171 1.042
107.3473 1.510
107.3776 1.406
107.4079 1.250
107.4382 0.833
107.4684 1.354
107.4987 1.146
107.5290 2.031
107.5593 1.562
107.5896 1.354
107.6198 1.094
107.6501 1.302
107.6804 1.198
107.7107 1.510
107.7410 1.510
107.7712 1.146
107.8015 1.406
107.8318 1.146
107.8621 1.354
107.8923 1.198
107.9226 1.198
107.9529 1.406
107.9832 1.458
108.0135 2.031
108.0437 1.094
108.0740 1.042
108.1043 1.510
108.1346 2.083
108.1649 1.146
108.1951 1.146
108.2254 0.885
108.2557 1.354
108.2860 1.615
108.3163 1.615
108.3465 1.094
108.3768 0.833
108.4071 1.458
108.4374 1.146
108.4676 1.458
108.4979 1.250
108.5282 1.615
108.5585 1.406
108.5888 1.510
108.6190 1.302
108.6493 1.250
108.6796 0.990
108.7099 0.885
108.7402 1.510
108.7704 1.094
108.8007 1.510
108.8310 0.885
108.8613 1.406
108.8915 1.354
108.9218 1.250
108.9521 1.458
108.9824 1.406
109.0127 0.937
109.0429 1.302
109.0732 1.406
109.1035 0.781
109.1338 1.406
109.1641 1.510
109.1943 1.458
109.2246 1.198
109.2549 1.458
109.2852 1.354
109.3154 1.198
109.3457 1.250
109.3760 1.042
109.4063 1.406
109.4366 1.302
109.4668 2.083
109.4971 1.615
109.5274 1.823
109.5577 1.458
109.5880 1.667
109.6182 1.250
109.6485 1.302
109.6788 1.406
109.7091 1.771
109.7393 1.562
109.7696 1.771
109.7999 2.240
109.8302 1.771
109.8605 1.615
109.8907 1.875
109.9210 1.823
109.9513 2.135
109.9816 1.615
110.0119 1.510
110.0421 1.667
110.0724 1.406
110.1027 1.771
110.1330 1.979
110.1632 1.562
110.1935 2.031
110.2238 2.031
110.2541 1.458
110.2844 1.562
110.3146 2.812
110.3449 1.771
110.3752 2.396
110.4055 1.615
110.4358 1.927
110.4660 1.510
110.4963 2.083
110.5266 1.562
110.5569 2.396
110.5871 2.240
110.6174 1.667
110.6477 1.302
110.6780 1.979
110.7083 1.771
110.7385 1.979
110.7688 1.615
110.7991 1.458
110.8294 1.823
110.8597 1.667
110.8899 1.406
110.9202 1.719
110.9505 1.615
110.9808 2.083
111.0110 1.146
111.0413 1.146
111.0716 1.615
111.1019 1.667
111.1322 1.354
111.1624 1.302
111.1927 1.510
111.2230 2.083
111.2533 0.990
111.2836 1.042
111.3138 1.510
111.3441 1.146
111.3744 1.406
111.4047 1.823
111.4350 1.823
111.4652 1.719
111.4955 1.823
111.5258 1.510
111.5561 0.885
111.5863 1.406
111.6166 0.990
111.6469 1.354
111.6772 1.302
111.7075 1.250
111.7377 0.990
111.7680 0.990
111.7983 1.667
111.8286 1.146
111.8589 0.990
111.8891 1.562
111.9194 1.667
111.9497 1.615
111.9800 1.302
112.0102 1.302
112.0405 1.302
112.0708 1.510
112.1011 1.250
112.1314 1.406
112.1616 1.302
112.1919 1.719
112.2222 1.042
112.2525 1.510
112.2828 1.146
112.3130 1.354
112.3433 1.510
112.3736 1.302
112.4039 1.615
112.4341 0.990
112.4644 0.990
112.4947 1.302
112.5250 1.875
112.5553 1.354
112.5855 1.458
112.6158 1.146
112.6461 1.354
112.6764 0.990
112.7067 1.510
112.7369 1.719
112.7672 1.562
112.7975 1.354
112.8278 1.406
112.8580 1.042
112.8883 1.250
112.9186 2.031
112.9489 1.667
112.9792 1.302
113.0094 1.354
113.0397 1.094
113.0700 1.667
113.1003 1.094
113.1306 1.198
113.1608 1.667
113.1911 1.250
113.2214 1.302
113.2517 1.302
113.2819 1.719
113.3122 1.302
113.3425 1.302
113.3728 1.198
113.4031 1.562
113.4333 1.667
113.4636 1.406
113.4939 0.625
113.5242 1.719
113.5545 1.354
113.5847 1.510
113.6150 1.250
113.6453 1.771
113.6756 0.937
113.7058 1.354
113.7361 1.667
113.7664 1.979
113.7967 1.979
113.8270 1.406
113.8572 1.615
113.8875 1.250
113.9178 1.250
113.9481 1.771
113.9784 1.615
114.0086 1.719
114.0389 1.354
114.0692 1.250
114.0995 1.615
114.1298 1.146
114.1600 1.198
114.1903 0.990
114.2206 1.302
114.2509 1.354
114.2811 1.510
114.3114 1.458
114.3417 1.406
114.3720 1.406
114.4023 0.937
114.4325 1.562
114.4628 1.146
114.4931 1.510
114.5234 1.510
114.5537 1.458
114.5839 1.198
114.6142 2.083
114.6445 1.667
114.6748 1.562
114.7050 1.406
114.7353 1.406
114.7656 1.979
114.7959 1.615
114.8262 1.510
114.8564 1.771
114.8867 1.562
114.9170 1.615
114.9473 1.510
114.9776 1.198
115.0078 1.719
115.0381 1.458
115.0684 1.927
115.0987 1.458
115.1289 1.771
115.1592 2.187
115.1895 1.823
115.2198 1.719
115.2501 1.719
115.2803 1.875
115.3106 2.292
115.3409 1.302
115.3712 1.354
115.4015 1.771
115.4317 2.135
115.4620 2.187
115.4923 1.771
115.5226 1.927
115.5528 2.656
115.5831 2.135
115.6134 1.510
115.6437 2.917
115.6740 1.823
115.7042 2.292
115.7345 2.135
115.7648 2.760
115.7951 1.875
115.8254 2.292
115.8556 2.240
115.8859 2.031
115.9162 2.500
115.9465 2.187
115.9767 2.604
116.0070 2.135
116.0373 3.125
116.0676 3.437
116.0979 2.917
116.1281 2.865
116.1584 2.865
116.1887 2.552
116.2190 3.333
116.2493 2.500
116.2795 2.708
116.3098 2.708
116.3401 3.073
116.3704 2.344
116.4006 2.760
116.4309 2.708
116.4612 2.292
116.4915 3.125
116.5218 2.344
116.5520 2.344
116.5823 1.979
116.6126 2.656
116.6429 2.344
116.6732 2.083
116.7034 1.771
116.7337 2.187
116.7640 2.031
116.7943 2.396
116.8245 2.760
116.8548 2.135
116.8851 2.708
116.9154 1.458
116.9457 2.552
116.9759 1.458
117.0062 1.979
117.0365 2.292
117.0668 2.812
117.0971 2.135
117.1273 1.979
117.1576 2.500
117.1879 1.823
117.2182 1.458
117.2485 1.667
117.2787 2.760
117.3090 1.667
117.3393 1.927
117.3696 1.562
117.3998 2.187
117.4301 1.771
117.4604 1.667
117.4907 1.562
117.5210 1.198
117.5512 1.615
117.5815 1.458
117.6118 1.719
117.6421 1.510
117.6724 1.823
117.7026 1.562
117.7329 1.823
117.7632 1.562
117.7935 1.302
117.8237 1.354
117.8540 2.083
117.8843 1.354
117.9146 1.198
117.9449 1.302
117.9751 1.875
118.0054 1.562
118.0357 1.667
118.0660 1.146
118.0963 1.250
118.1265 1.354
118.1568 1.510
118.1871 1.510
118.2174 1.667
118.2476 1.146
118.2779 1.510
118.3082 1.562
118.3385 0.937
118.3688 1.042
118.3990 1.458
118.4293 1.250
118.4596 1.302
118.4899 1.406
118.5202 1.562
118.5504 1.302
118.5807 1.615
118.6110 1.562
118.6413 1.250
118.6715 1.927
118.7018 1.198
118.7321 1.198
118.7624 1.354
118.7927 1.458
118.8229 1.667
118.8532 1.615
118.8835 1.354
118.9138 1.615
118.9441 0.885
118.9743 0.937
119.0046 1.250
119.0349 1.979
119.0652 0.990
119.0954 1.771
119.1257 0.937
119.1560 1.302
119.1863 1.667
119.2166 1.510
119.2468 1.562
119.2771 1.250
119.3074 1.146
119.3377 0.990
119.3680 1.302
119.3982 1.302
119.4285 1.354
119.4588 1.198
119.4891 1.823
119.5193 0.990
119.5496 1.354
119.5799 1.927
119.6102 0.677
119.6405 1.875
119.6707 1.719
119.7010 1.042
119.7313 1.979
119.7616 1.667
119.7919 1.771
119.8221 1.771
119.8524 1.667
119.8827 1.198
119.9130 1.354
119.9433 1.094
119.9735 1.562
120.0038 1.719
