'Id: "" Comment: "" Operator: "Lab Manager" Anode: "Cu" Scantype: "Locked Coupled" TimePerStep: "19.2" X: "9999" Y: "9999" Z: "9999" 
10.0015 4.427
10.0318 3.750
10.0620 4.531
10.0923 3.802
10.1226 3.698
10.1529 4.062
10.1832 4.010
10.2134 3.958
10.2437 4.948
10.2740 3.906
10.3043 4.687
10.3346 3.125
10.3648 4.219
10.3951 3.281
10.4254 4.531
10.4557 3.281
10.4859 3.437
10.5162 4.687
10.5465 3.281
10.5768 4.115
10.6071 4.271
10.6373 3.698
10.6676 4.635
10.6979 3.958
10.7282 3.906
10.7585 3.437
10.7887 3.906
10.8190 4.219
10.8493 3.437
10.8796 3.333
10.9098 3.542
10.9401 4.740
10.9704 4.167
11.0007 4.375
11.0310 4.896
11.0612 4.635
11.0915 3.854
11.1218 4.323
11.1521 3.333
11.1824 4.583
11.2126 4.062
11.2429 4.583
11.2732 3.542
11.3035 3.437
11.3337 3.958
11.3640 3.594
11.3943 3.021
11.4246 2.656
11.4549 3.177
11.4851 4.062
11.5154 3.073
11.5457 4.115
11.5760 3.646
11.6063 3.906
11.6365 3.281
11.6668 4.167
11.6971 3.594
11.7274 3.802
11.7577 3.385
11.7879 3.177
11.8182 3.490
11.8485 3.333
11.8788 3.594
11.9090 3.646
11.9393 3.333
11.9696 3.333
11.9999 2.917
12.0302 2.760
12.0604 2.969
12.0907 3.177
12.1210 3.542
12.1513 4.219
12.1816 3.906
12.2118 3.281
12.2421 3.073
12.2724 3.229
12.3027 2.969
12.3329 3.698
12.3632 3.229
12.3935 3.490
12.4238 3.073
12.4541 3.073
12.4843 3.698
12.5146 3.698
12.5449 2.969
12.5752 3.229
12.6055 2.917
12.6357 3.125
12.6660 3.490
12.6963 3.698
12.7266 3.698
12.7568 3.750
12.7871 3.177
12.8174 3.125
12.8477 3.750
12.8780 3.437
12.9082 3.229
12.9385 3.802
12.9688 2.812
12.9991 2.865
13.0294 3.802
13.0596 3.646
13.0899 3.542
13.1202 3.646
13.1505 3.750
13.1807 2.865
13.2110 2.812
13.2413 2.552
13.2716 2.656
13.3019 3.750
13.3321 3.281
13.3624 3.958
13.3927 3.646
13.4230 3.333
13.4533 3.177
13.4835 2.760
13.5138 3.177
13.5441 2.812
13.5744 4.219
13.6046 3.125
13.6349 4.271
13.6652 2.656
13.6955 3.281
13.7258 2.708
13.7560 3.177
13.7863 3.281
13.8166 3.594
13.8469 2.500
13.8772 4.115
13.9074 2.969
13.9377 3.229
13.9680 2.969
13.9983 2.344
14.0285 3.073
14.0588 2.656
14.0891 2.292
14.1194 2.812
14.1497 3.021
14.1799 2.708
14.2102 3.385
14.2405 2.500
14.2708 3.437
14.3011 2.708
14.3313 3.229
14.3616 3.906
14.3919 3.542
14.4222 3.281
14.4524 2.865
14.4827 3.437
14.5130 3.177
14.5433 3.333
14.5736 2.917
14.6038 3.125
14.6341 4.219
14.6644 2.708
14.6947 2.396
14.7250 2.917
14.7552 2.344
14.7855 3.802
14.8158 3.125
14.8461 3.281
14.8764 2.604
14.9066 2.552
14.9369 3.281
14.9672 2.396
14.9975 2.604
15.0277 3.125
15.0580 2.292
15.0883 2.969
15.1186 2.812
15.1489 3.125
15.1791 2.083
15.2094 3.698
15.2397 3.281
15.2700 2.656
15.3003 3.021
15.3305 3.281
15.3608 3.542
15.3911 2.656
15.4214 3.281
15.4516 3.177
15.4819 2.865
15.5122 3.646
15.5425 2.969
15.5728 3.177
15.6030 3.385
15.6333 3.802
15.6636 2.917
15.6939 3.229
15.7242 3.021
15.7544 2.812
15.7847 2.969
15.8150 4.583
15.8453 2.917
15.8755 2.656
15.9058 2.552
15.9361 3.437
15.9664 3.594
15.9967 3.229
16.0269 2.969
16.0572 2.708
16.0875 3.125
16.1178 3.177
16.1481 3.542
16.1783 3.385
16.2086 2.760
16.2389 2.656
16.2692 2.448
16.2994 3.437
16.3297 2.448
16.3600 3.229
16.3903 2.969
16.4206 2.865
16.4508 3.490
16.4811 2.031
16.5114 3.646
16.5417 2.240
16.5720 2.969
16.6022 2.760
16.6325 2.604
16.6628 2.969
16.6931 2.917
16.7233 3.437
16.7536 3.281
16.7839 3.229
16.8142 3.333
16.8445 3.542
16.8747 2.865
16.9050 2.917
16.9353 3.177
16.9656 3.021
16.9959 3.021
17.0261 2.969
17.0564 2.917
17.0867 3.385
17.1170 2.865
17.1472 4.115
17.1775 3.281
17.2078 2.344
17.2381 2.344
17.2684 3.698
17.2986 2.917
17.3289 2.604
17.3592 3.021
17.3895 2.708
17.4198 3.385
17.4500 2.865
17.4803 3.594
17.5106 2.760
17.5409 3.385
17.5712 3.490
17.6014 3.750
17.6317 2.448
17.6620 3.594
17.6923 3.594
17.7225 2.969
17.7528 3.125
17.7831 3.021
17.8134 2.552
17.8437 2.656
17.8739 2.292
17.9042 2.552
17.9345 3.281
17.9648 3.542
17.9951 2.344
18.0253 3.229
18.0556 2.708
18.0859 2.917
18.1162 3.021
18.1464 3.073
18.1767 3.125
18.2070 2.969
18.2373 2.865
18.2676 2.448
18.2978 3.281
18.3281 2.135
18.3584 2.760
18.3887 2.760
18.4190 3.073
18.4492 2.396
18.4795 2.344
18.5098 2.344
18.5401 2.656
18.5703 2.917
18.6006 2.448
18.6309 2.917
18.6612 2.812
18.6915 2.656
18.7217 2.448
18.7520 2.917
18.7823 2.448
18.8126 3.073
18.8429 2.969
18.8731 3.229
18.9034 2.187
18.9337 2.708
18.9640 2.552
18.9942 3.073
19.0245 2.604
19.0548 2.760
19.0851 3.333
19.1154 2.917
19.1456 2.812
19.1759 2.760
19.2062 2.448
19.2365 3.229
19.2668 3.021
19.2970 3.073
19.3273 2.969
19.3576 2.865
19.3879 2.969
19.4181 2.604
19.4484 2.240
19.4787 3.073
19.5090 2.292
19.5393 2.240
19.5695 3.073
19.5998 3.021
19.6301 3.229
19.6604 2.760
19.6907 2.187
19.7209 2.969
19.7512 2.917
19.7815 2.344
19.8118 3.281
19.8420 2.500
19.8723 2.760
19.9026 2.031
19.9329 3.594
19.9632 2.812
19.9934 3.021
20.0237 2.604
20.0540 2.500
20.0843 2.917
20.1146 2.396
20.1448 2.500
20.1751 2.812
20.2054 2.865
20.2357 3.177
20.2659 2.448
20.2962 2.031
20.3265 2.448
20.3568 2.344
20.3871 2.812
20.4173 2.604
20.4476 2.031
20.4779 3.125
20.5082 2.135
20.5385 2.604
20.5687 2.969
20.5990 2.760
20.6293 2.604
20.6596 2.760
20.6899 2.708
20.7201 1.771
20.7504 2.604
20.7807 2.396
20.8110 2.604
20.8412 2.604
20.8715 2.760
20.9018 2.760
20.9321 2.917
20.9624 2.917
20.9926 3.333
21.0229 2.187
21.0532 2.292
21.0835 2.500
21.1138 2.240
21.1440 2.865
21.1743 3.021
21.2046 2.240
21.2349 2.240
21.2651 2.500
21.2954 2.969
21.3257 2.344
21.3560 3.177
21.3863 1.823
21.4165 2.292
21.4468 2.708
21.4771 2.396
21.5074 3.177
21.5377 2.604
21.5679 2.812
21.5982 2.656
21.6285 2.708
21.6588 2.500
21.6890 2.656
21.7193 2.969
21.7496 2.135
21.7799 2.448
21.8102 2.083
21.8404 2.552
21.8707 2.656
21.9010 2.552
21.9313 2.292
21.9616 3.125
21.9918 2.135
22.0221 2.396
22.0524 3.177
22.0827 3.177
22.1129 3.177
22.1432 2.656
22.1735 3.177
22.2038 2.500
22.2341 2.812
22.2643 2.500
22.2946 2.865
22.3249 2.396
22.3552 2.240
22.3855 3.229
22.4157 3.281
22.4460 1.875
22.4763 2.083
22.5066 2.500
22.5368 2.708
22.5671 2.396
22.5974 2.396
22.6277 2.240
22.6580 3.073
22.6882 2.344
22.7185 2.031
22.7488 1.927
22.7791 1.979
22.8094 2.656
22.8396 2.604
22.8699 2.604
22.9002 2.031
22.9305 2.708
22.9607 2.917
22.9910 2.865
23.0213 2.396
23.0516 2.448
23.0819 2.031
23.1121 2.135
23.1424 2.656
23.1727 2.604
23.2030 2.396
23.2333 2.552
23.2635 1.615
23.2938 2.708
23.3241 2.760
23.3544 3.333
23.3846 2.656
23.4149 2.552
23.4452 3.333
23.4755 2.708
23.5058 2.031
23.5360 2.708
23.5663 2.708
23.5966 2.656
23.6269 2.865
23.6572 2.187
23.6874 2.604
23.7177 3.177
23.7480 3.177
23.7783 2.552
23.8086 2.500
23.8388 2.604
23.8691 2.760
23.8994 2.396
23.9297 2.760
23.9599 3.021
23.9902 2.135
24.0205 2.604
24.0508 2.292
24.0811 2.344
24.1113 1.771
24.1416 2.552
24.1719 3.125
24.2022 2.396
24.2325 2.500
24.2627 2.812
24.2930 2.187
24.3233 2.604
24.3536 2.187
24.3838 2.500
24.4141 2.292
24.4444 2.448
24.4747 2.604
24.5050 2.240
24.5352 2.083
24.5655 2.500
24.5958 2.292
24.6261 2.240
24.6564 2.865
24.6866 2.917
24.7169 2.865
24.7472 2.448
24.7775 2.448
24.8077 2.760
24.8380 2.656
24.8683 2.187
24.8986 2.604
24.9289 2.812
24.9591 2.187
24.9894 2.500
25.0197 2.656
25.0500 3.073
25.0803 2.760
25.1105 2.031
25.1408 2.865
25.1711 2.708
25.2014 2.604
25.2316 2.708
25.2619 2.396
25.2922 2.187
25.3225 3.021
25.3528 2.708
25.3830 2.552
25.4133 2.812
25.4436 2.604
25.4739 2.396
25.5042 2.031
25.5344 2.812
25.5647 2.500
25.5950 2.448
25.6253 1.875
25.6555 2.812
25.6858 2.292
25.7161 2.604
25.7464 2.604
25.7767 2.240
25.8069 2.656
25.8372 2.656
25.8675 2.917
25.8978 2.396
25.9281 2.917
25.9583 2.448
25.9886 2.135
26.0189 2.812
26.0492 2.292
26.0794 3.073
26.1097 2.760
26.1400 2.812
26.1703 3.021
26.2006 2.917
26.2308 2.812
26.2611 2.344
26.2914 2.344
26.3217 2.865
26.3520 2.187
26.3822 2.656
26.4125 2.604
26.4428 2.604
26.4731 3.177
26.5034 3.229
26.5336 2.448
26.5639 2.656
26.5942 2.760
26.6245 2.240
26.6547 2.604
26.6850 2.396
26.7153 2.344
26.7456 2.187
26.7759 2.396
26.8061 2.500
26.8364 2.552
26.8667 2.865
26.8970 2.708
26.9273 2.656
26.9575 2.969
26.9878 2.708
27.0181 3.125
27.0484 3.021
27.0786 2.760
27.1089 2.812
27.1392 1.979
27.1695 2.292
27.1998 2.812
27.2300 3.594
27.2603 2.552
27.2906 3.594
27.3209 3.021
27.3512 2.604
27.3814 2.708
27.4117 2.812
27.4420 2.604
27.4723 3.073
27.5025 2.500
27.5328 3.021
27.5631 3.229
27.5934 3.125
27.6237 2.708
27.6539 2.969
27.6842 2.448
27.7145 2.552
27.7448 3.021
27.7751 2.031
27.8053 2.917
27.8356 2.760
27.8659 2.187
27.8962 3.073
27.9264 3.177
27.9567 3.229
27.9870 2.708
28.0173 3.229
28.0476 3.542
28.0778 2.969
28.1081 3.490
28.1384 3.385
28.1687 3.281
28.1990 3.073
28.2292 3.802
28.2595 3.437
28.2898 2.500
28.3201 4.115
28.3503 2.708
28.3806 3.698
28.4109 3.594
28.4412 2.708
28.4715 2.604
28.5017 3.229
28.5320 3.073
28.5623 3.385
28.5926 3.542
28.6229 3.437
28.6531 3.073
28.6834 3.594
28.7137 3.802
28.7440 3.594
28.7742 3.333
28.8045 3.333
28.8348 3.177
28.8651 4.062
28.8954 2.917
28.9256 2.760
28.9559 3.281
28.9862 3.021
29.0165 2.865
29.0468 2.865
29.0770 3.385
29.1073 3.698
29.1376 3.542
29.1679 3.229
29.1981 3.802
29.2284 3.802
29.2587 3.021
29.2890 2.500
29.3193 3.802
29.3495 4.115
29.3798 3.594
29.4101 3.854
29.4404 2.865
29.4707 3.385
29.5009 3.542
29.5312 3.385
29.5615 3.542
29.5918 3.958
29.6221 4.219
29.6523 3.646
29.6826 4.167
29.7129 4.115
29.7432 3.385
29.7734 3.646
29.8037 4.896
29.8340 4.219
29.8643 4.219
29.8946 3.125
29.9248 3.854
29.9551 4.323
29.9854 4.115
30.0157 4.271
30.0460 3.958
30.0762 4.167
30.1065 3.229
30.1368 4.740
30.1671 5.417
30.1973 4.531
30.2276 4.948
30.2579 5.052
30.2882 4.844
30.3185 5.000
30.3487 4.844
30.3790 4.427
30.4093 4.531
30.4396 5.573
30.4699 6.302
30.5001 4.948
30.5304 4.792
30.5607 5.625
30.5910 5.052
30.6212 4.531
30.6515 6.667
30.6818 7.604
30.7121 5.625
30.7424 6.823
30.7726 7.344
30.8029 7.135
30.8332 6.719
30.8635 8.177
30.8938 9.531
30.9240 8.594
30.9543 9.583
30.9846 8.906
31.0149 9.323
31.0451 8.802
31.0754 12.292
31.1057 11.510
31.1360 12.604
31.1663 13.229
31.1965 14.792
31.2268 13.958
31.2571 17.083
31.2874 19.167
31.3177 20.833
31.3479 21.667
31.3782 26.458
31.4085 28.021
31.4388 32.708
31.4690 33.281
31.4993 39.271
31.5296 40.729
31.5599 44.792
31.5902 47.865
31.6204 53.229
31.6507 50.260
31.6810 47.187
31.7113 48.854
31.7416 43.906
31.7718 40.521
31.8021 35.000
31.8324 29.896
31.8627 28.333
31.8929 25.625
31.9232 25.260
31.9535 19.687
31.9838 17.917
32.0141 17.760
32.0443 13.542
32.0746 13.958
32.1049 12.448
32.1352 10.729
32.1655 10.990
32.1957 10.937
32.2260 10.729
32.2563 9.531
32.2866 8.437
32.3169 8.073
32.3471 7.917
32.3774 8.750
32.4077 7.396
32.4380 9.323
32.4682 7.187
32.4985 6.979
32.5288 7.187
32.5591 7.031
32.5894 6.146
32.6196 5.260
32.6499 6.354
32.6802 5.885
32.7105 6.615
32.7408 6.406
32.7710 5.937
32.8013 6.406
32.8316 5.365
32.8619 6.146
32.8921 5.781
32.9224 4.687
32.9527 5.521
32.9830 5.052
33.0133 6.771
33.0435 5.156
33.0738 5.625
33.1041 4.948
33.1344 5.521
33.1647 5.521
33.1949 5.625
33.2252 6.302
33.2555 5.781
33.2858 6.042
33.3160 6.979
33.3463 6.458
33.3766 6.198
33.4069 6.198
33.4372 5.833
33.4674 5.573
33.4977 6.771
33.5280 7.083
33.5583 6.146
33.5886 6.406
33.6188 5.625
33.6491 7.083
33.6794 7.396
33.7097 7.708
33.7399 7.604
33.7702 7.656
33.8005 8.333
33.8308 10.625
33.8611 10.365
33.8913 10.104
33.9216 12.187
33.9519 13.333
33.9822 14.375
34.0125 14.010
34.0427 16.615
34.0730 20.208
34.1033 25.208
34.1336 25.417
34.1638 30.312
34.1941 39.010
34.2244 44.323
34.2547 55.052
34.2850 65.365
34.3152 61.510
34.3455 57.344
34.3758 48.906
34.4061 45.677
34.4364 37.865
34.4666 28.333
34.4969 24.687
34.5272 20.312
34.5575 16.094
34.5877 15.677
34.6180 13.906
34.6483 15.000
34.6786 11.510
34.7089 10.833
34.7391 12.083
34.7694 9.635
34.7997 10.156
34.8300 10.781
34.8603 9.167
34.8905 8.646
34.9208 8.854
34.9511 8.385
34.9814 10.000
35.0116 8.646
35.0419 10.052
35.0722 8.229
35.1025 8.906
35.1328 10.000
35.1630 9.427
35.1933 9.531
35.2236 9.844
35.2539 8.802
35.2842 8.958
35.3144 9.844
35.3447 9.844
35.3750 10.937
35.4053 12.031
35.4356 11.406
35.4658 10.365
35.4961 13.125
35.5264 12.344
35.5567 15.573
35.5869 15.104
35.6172 17.812
35.6475 18.437
35.6778 19.062
35.7081 20.833
35.7383 21.510
35.7686 25.469
35.7989 25.677
35.8292 32.604
35.8595 35.208
35.8897 37.396
35.9200 41.875
35.9503 45.781
35.9806 56.250
36.0108 58.750
36.0411 66.875
36.0714 72.083
36.1017 75.833
36.1320 74.323
36.1622 75.052
36.1925 73.646
36.2228 65.417
36.2531 62.969
36.2834 55.833
36.3136 48.802
36.3439 43.229
36.3742 38.073
36.4045 33.333
36.4347 30.260
36.4650 25.990
36.4953 22.187
36.5256 21.562
36.5559 18.385
36.5861 16.406
36.6164 16.458
36.6467 15.625
36.6770 14.062
36.7073 13.698
36.7375 13.125
36.7678 10.677
36.7981 11.094
36.8284 10.260
36.8586 10.104
36.8889 8.958
36.9192 8.542
36.9495 7.760
36.9798 8.333
37.0100 6.823
37.0403 6.146
37.0706 6.250
37.1009 5.469
37.1312 6.562
37.1614 7.083
37.1917 5.833
37.2220 6.510
37.2523 6.094
37.2825 5.677
37.3128 6.302
37.3431 5.365
37.3734 4.740
37.4037 5.156
37.4339 5.990
37.4642 4.479
37.4945 4.583
37.5248 5.573
37.5551 4.062
37.5853 5.000
37.6156 4.479
37.6459 5.833
37.6762 4.323
37.7064 4.896
37.7367 4.479
37.7670 4.167
37.7973 4.479
37.8276 4.740
37.8578 3.802
37.8881 4.219
37.9184 2.969
37.9487 3.646
37.9790 3.802
38.0092 3.802
38.0395 3.594
38.0698 4.010
38.1001 4.583
38.1304 3.021
38.1606 3.802
38.1909 3.750
38.2212 3.229
38.2515 3.229
38.2817 3.490
38.3120 3.437
38.3423 3.594
38.3726 3.698
38.4029 2.917
38.4331 2.760
38.4634 3.333
38.4937 3.698
38.5240 2.500
38.5543 2.656
38.5845 3.281
38.6148 2.656
38.6451 3.125
38.6754 2.760
38.7056 2.812
38.7359 3.177
38.7662 2.812
38.7965 2.552
38.8268 3.021
38.8570 2.812
38.8873 2.812
38.9176 3.177
38.9479 2.135
38.9782 2.917
39.0084 2.604
39.0387 3.021
39.0690 2.708
39.0993 2.865
39.1295 3.594
39.1598 2.292
39.1901 3.125
39.2204 2.031
39.2507 2.969
39.2809 2.708
39.3112 2.969
39.3415 2.240
39.3718 2.448
39.4021 2.969
39.4323 1.719
39.4626 2.500
39.4929 2.448
39.5232 2.187
39.5534 2.396
39.5837 2.604
39.6140 2.865
39.6443 3.437
39.6746 2.656
39.7048 2.187
39.7351 1.875
39.7654 1.875
39.7957 2.865
39.8260 2.292
39.8562 2.500
39.8865 2.708
39.9168 2.604
39.9471 1.875
39.9773 2.760
40.0076 2.865
40.0379 2.552
40.0682 2.708
40.0985 2.187
40.1287 1.667
40.1590 2.604
40.1893 2.135
40.2196 2.604
40.2499 2.708
40.2801 2.083
40.3104 1.510
40.3407 2.500
40.3710 2.448
40.4012 2.083
40.4315 2.448
40.4618 2.500
40.4921 2.292
40.5224 1.979
40.5526 2.448
40.5829 1.823
40.6132 1.771
40.6435 1.771
40.6738 2.031
40.7040 1.979
40.7343 2.135
40.7646 2.031
40.7949 2.448
40.8251 2.292
40.8554 2.344
40.8857 1.979
40.9160 1.510
40.9463 1.771
40.9765 1.250
41.0068 2.135
41.0371 2.187
41.0674 1.615
41.0977 1.979
41.1279 1.771
41.1582 1.771
41.1885 1.667
41.2188 1.979
41.2491 1.771
41.2793 1.927
41.3096 2.083
41.3399 2.240
41.3702 1.771
41.4004 2.344
41.4307 1.771
41.4610 1.615
41.4913 2.031
41.5216 2.135
41.5518 1.562
41.5821 2.552
41.6124 1.823
41.6427 1.719
41.6730 1.823
41.7032 1.927
41.7335 1.823
41.7638 2.031
41.7941 2.344
41.8243 2.083
41.8546 2.396
41.8849 1.979
41.9152 2.031
41.9455 1.927
41.9757 1.771
42.0060 2.083
42.0363 2.083
42.0666 2.031
42.0969 1.979
42.1271 2.031
42.1574 2.031
42.1877 2.604
42.2180 2.500
42.2482 2.187
42.2785 2.240
42.3088 1.510
42.3391 1.979
42.3694 1.458
42.3996 1.823
42.4299 2.031
42.4602 2.135
42.4905 2.500
42.5208 1.771
42.5510 1.927
42.5813 2.031
42.6116 2.760
42.6419 1.667
42.6721 2.083
42.7024 2.083
42.7327 1.615
42.7630 1.510
42.7933 1.823
42.8235 2.292
42.8538 1.771
42.8841 2.448
42.9144 1.615
42.9447 2.135
42.9749 1.979
43.0052 1.771
43.0355 2.604
43.0658 1.667
43.0960 2.031
43.1263 2.344
43.1566 2.187
43.1869 1.615
43.2172 1.979
43.2474 1.354
43.2777 2.135
43.3080 2.083
43.3383 1.406
43.3686 2.135
43.3988 2.031
43.4291 2.031
43.4594 2.448
43.4897 1.719
43.5199 2.240
43.5502 2.292
43.5805 2.656
43.6108 1.771
43.6411 1.927
43.6713 1.875
43.7016 2.240
43.7319 1.875
43.7622 1.927
43.7925 1.615
43.8227 2.187
43.8530 2.083
43.8833 2.396
43.9136 2.604
43.9439 2.865
43.9741 2.292
44.0044 2.292
44.0347 2.187
44.0650 1.510
44.0952 2.604
44.1255 2.031
44.1558 1.719
44.1861 2.187
44.2164 1.927
44.2466 2.240
44.2769 1.979
44.3072 2.396
44.3375 1.771
44.3678 2.031
44.3980 2.083
44.4283 2.031
44.4586 1.927
44.4889 2.656
44.5191 2.240
44.5494 2.135
44.5797 1.979
44.6100 2.344
44.6403 1.927
44.6705 1.562
44.7008 1.823
44.7311 2.500
44.7614 2.083
44.7917 2.135
44.8219 2.708
44.8522 2.240
44.8825 2.396
44.9128 1.927
44.9430 1.667
44.9733 2.031
45.0036 1.979
45.0339 2.031
45.0642 2.135
45.0944 1.615
45.1247 2.240
45.1550 1.927
45.1853 2.135
45.2156 2.708
45.2458 2.396
45.2761 1.562
45.3064 2.083
45.3367 2.760
45.3669 2.083
45.3972 2.135
45.4275 1.771
45.4578 2.396
45.4881 2.448
45.5183 1.927
45.5486 1.562
45.5789 1.979
45.6092 2.708
45.6395 3.333
45.6697 2.656
45.7000 2.604
45.7303 2.604
45.7606 2.500
45.7908 2.865
45.8211 1.823
45.8514 1.875
45.8817 2.396
45.9120 1.979
45.9422 2.396
45.9725 2.448
46.0028 2.812
46.0331 2.187
46.0634 2.187
46.0936 2.344
46.1239 3.021
46.1542 2.708
46.1845 2.969
46.2147 2.604
46.2450 2.812
46.2753 2.708
46.3056 2.187
46.3359 2.240
46.3661 2.240
46.3964 3.229
46.4267 3.021
46.4570 2.656
46.4873 3.542
46.5175 3.281
46.5478 3.021
46.5781 2.604
46.6084 3.177
46.6386 3.750
46.6689 3.750
46.6992 4.115
46.7295 4.271
46.7598 4.583
46.7900 4.375
46.8203 4.323
46.8506 3.958
46.8809 4.479
46.9112 5.156
46.9414 4.583
46.9717 5.365
47.0020 6.198
47.0323 5.573
47.0626 7.240
47.0928 7.865
47.1231 7.187
47.1534 8.854
47.1837 9.896
47.2139 10.833
47.2442 11.458
47.2745 11.302
47.3048 15.677
47.3351 16.562
47.3653 14.375
47.3956 16.927
47.4259 16.979
47.4562 15.990
47.4865 17.344
47.5167 15.260
47.5470 13.177
47.5773 13.594
47.6076 10.990
47.6378 9.687
47.6681 8.854
47.6984 7.500
47.7287 7.135
47.7590 7.344
47.7892 6.510
47.8195 5.990
47.8498 5.885
47.8801 5.729
47.9104 4.740
47.9406 4.479
47.9709 4.323
48.0012 3.802
48.0315 4.323
48.0617 3.177
48.0920 3.229
48.1223 3.958
48.1526 2.604
48.1829 3.802
48.2131 3.385
48.2434 2.344
48.2737 3.021
48.3040 2.969
48.3343 2.604
48.3645 2.865
48.3948 2.344
48.4251 2.656
48.4554 3.073
48.4856 2.448
48.5159 2.448
48.5462 2.292
48.5765 2.448
48.6068 1.875
48.6370 2.656
48.6673 2.865
48.6976 1.875
48.7279 2.135
48.7582 2.344
48.7884 2.396
48.8187 2.812
48.8490 2.708
48.8793 2.240
48.9095 2.448
48.9398 1.354
48.9701 2.240
49.0004 2.448
49.0307 2.344
49.0609 1.979
49.0912 1.979
49.1215 1.667
49.1518 2.448
49.1821 2.187
49.2123 2.917
49.2426 3.125
49.2729 1.979
49.3032 2.187
49.3334 1.823
49.3637 2.083
49.3940 1.510
49.4243 2.135
49.4546 2.292
49.4848 1.771
49.5151 2.656
49.5454 2.344
49.5757 2.083
49.6060 2.083
49.6362 1.823
49.6665 2.187
49.6968 1.562
49.7271 1.927
49.7574 0.833
49.7876 1.823
49.8179 2.500
49.8482 1.823
49.8785 1.927
49.9087 1.719
49.9390 2.292
49.9693 1.927
49.9996 2.240
50.0299 2.812
50.0601 2.396
50.0904 1.875
50.1207 1.875
50.1510 2.083
50.1813 1.510
50.2115 1.719
50.2418 1.562
50.2721 2.396
50.3024 1.927
50.3326 1.823
50.3629 2.344
50.3932 2.604
50.4235 1.823
50.4538 1.615
50.4840 1.615
50.5143 1.979
50.5446 1.979
50.5749 2.135
50.6052 2.135
50.6354 2.135
50.6657 1.927
50.6960 1.927
50.7263 2.500
50.7565 2.500
50.7868 1.771
50.8171 2.135
50.8474 2.031
50.8777 2.865
50.9079 2.396
50.9382 2.552
50.9685 1.198
50.9988 1.406
51.0291 1.875
51.0593 1.667
51.0896 1.771
51.1199 2.135
51.1502 2.031
51.1804 2.292
51.2107 2.187
51.2410 2.083
51.2713 1.771
51.3016 2.396
51.3318 1.562
51.3621 1.510
51.3924 2.135
51.4227 2.031
51.4530 1.615
51.4832 2.500
51.5135 2.292
51.5438 1.250
51.5741 1.927
51.6043 2.031
51.6346 1.510
51.6649 1.615
51.6952 2.031
51.7255 1.198
51.7557 1.510
51.7860 1.771
51.8163 1.771
51.8466 1.250
51.8769 2.083
51.9071 2.187
51.9374 1.875
51.9677 2.292
51.9980 2.083
52.0282 2.292
52.0585 2.344
52.0888 1.302
52.1191 1.771
52.1494 1.719
52.1796 2.448
52.2099 2.240
52.2402 1.667
52.2705 1.927
52.3008 2.448
52.3310 1.719
52.3613 2.031
52.3916 2.135
52.4219 1.927
52.4521 1.250
52.4824 1.667
52.5127 2.135
52.5430 2.083
52.5733 1.562
52.6035 1.875
52.6338 1.562
52.6641 2.187
52.6944 2.552
52.7247 1.875
52.7549 2.187
52.7852 1.667
52.8155 1.823
52.8458 2.135
52.8761 2.917
52.9063 2.552
52.9366 1.667
52.9669 2.292
52.9972 1.354
53.0274 1.719
53.0577 1.927
53.0880 2.187
53.1183 1.667
53.1486 2.240
53.1788 2.865
53.2091 1.667
53.2394 1.302
53.2697 2.187
53.3000 2.187
53.3302 2.240
53.3605 1.875
53.3908 1.979
53.4211 2.448
53.4513 1.927
53.4816 1.823
53.5119 1.458
53.5422 2.083
53.5725 2.135
53.6027 2.292
53.6330 2.083
53.6633 1.927
53.6936 2.396
53.7239 1.979
53.7541 1.771
53.7844 1.510
53.8147 2.031
53.8450 2.552
53.8752 1.979
53.9055 2.448
53.9358 3.073
53.9661 2.656
53.9964 1.823
54.0266 2.500
54.0569 1.927
54.0872 2.500
54.1175 2.031
54.1478 2.500
54.1780 1.979
54.2083 1.667
54.2386 2.083
54.2689 2.500
54.2991 2.552
54.3294 2.656
54.3597 2.240
54.3900 2.187
54.4203 2.448
54.4505 1.927
54.4808 1.927
54.5111 2.135
54.5414 2.656
54.5717 1.875
54.6019 2.656
54.6322 2.656
54.6625 2.552
54.6928 1.667
54.7230 2.396
54.7533 2.448
54.7836 3.021
54.8139 2.708
54.8442 2.292
54.8744 2.656
54.9047 2.812
54.9350 2.917
54.9653 1.979
54.9956 1.823
55.0258 3.229
55.0561 2.448
55.0864 2.240
55.1167 2.448
55.1469 2.448
55.1772 1.979
55.2075 3.229
55.2378 2.969
55.2681 2.500
55.2983 2.760
55.3286 2.448
55.3589 2.552
55.3892 3.021
55.4195 3.125
55.4497 2.917
55.4800 3.333
55.5103 3.177
55.5406 3.073
55.5709 3.594
55.6011 3.333
55.6314 3.385
55.6617 3.958
55.6920 4.583
55.7222 3.750
55.7525 5.260
55.7828 4.271
55.8131 3.698
55.8434 4.896
55.8736 5.104
55.9039 5.469
55.9342 5.833
55.9645 6.510
55.9948 7.083
56.0250 6.667
56.0553 7.344
56.0856 8.073
56.1159 8.906
56.1461 8.906
56.1764 9.323
56.2067 9.583
56.2370 12.083
56.2673 13.698
56.2975 12.760
56.3278 14.844
56.3581 16.094
56.3884 19.219
56.4187 20.417
56.4489 19.583
56.4792 20.781
56.5095 19.531
56.5398 17.292
56.5700 17.448
56.6003 15.208
56.6306 14.167
56.6609 15.521
56.6912 11.667
56.7214 10.885
56.7517 10.521
56.7820 10.000
56.8123 10.625
56.8426 7.656
56.8728 6.927
56.9031 8.229
56.9334 7.083
56.9637 6.875
56.9939 5.573
57.0242 5.729
57.0545 5.052
57.0848 4.896
57.1151 3.750
57.1453 4.792
57.1756 4.896
57.2059 3.437
57.2362 4.167
57.2665 3.437
57.2967 4.010
57.3270 3.594
57.3573 3.594
57.3876 3.333
57.4178 3.646
57.4481 3.542
57.4784 3.229
57.5087 2.448
57.5390 3.490
57.5692 3.333
57.5995 2.656
57.6298 2.812
57.6601 2.917
57.6904 2.917
57.7206 3.125
57.7509 3.229
57.7812 1.875
57.8115 2.292
57.8417 2.344
57.8720 2.292
57.9023 2.604
57.9326 2.448
57.9629 2.656
57.9931 2.552
58.0234 2.396
58.0537 2.656
58.0840 2.656
58.1143 1.979
58.1445 2.760
58.1748 2.135
58.2051 2.552
58.2354 2.396
58.2656 1.771
58.2959 2.187
58.3262 2.396
58.3565 2.396
58.3868 2.552
58.4170 1.719
58.4473 2.135
58.4776 1.875
58.5079 2.344
58.5382 2.292
58.5684 2.031
58.5987 2.396
58.6290 1.927
58.6593 2.083
58.6896 1.667
58.7198 2.187
58.7501 2.344
58.7804 2.396
58.8107 2.292
58.8409 2.187
58.8712 2.187
58.9015 2.812
58.9318 2.083
58.9621 2.812
58.9923 2.031
59.0226 2.448
59.0529 2.292
59.0832 2.187
59.1135 3.021
59.1437 2.656
59.1740 1.510
59.2043 2.240
59.2346 2.135
59.2648 2.187
59.2951 1.667
59.3254 1.979
59.3557 2.135
59.3860 1.615
59.4162 2.135
59.4465 1.979
59.4768 2.083
59.5071 2.031
59.5374 2.292
59.5676 1.979
59.5979 2.396
59.6282 2.500
59.6585 2.135
59.6887 1.510
59.7190 1.875
59.7493 2.240
59.7796 1.875
59.8099 2.031
59.8401 2.135
59.8704 2.396
59.9007 2.083
59.9310 2.604
59.9613 2.344
59.9915 2.135
60.0218 2.240
60.0521 1.562
60.0824 2.135
60.1126 2.500
60.1429 2.240
60.1732 1.719
60.2035 2.083
60.2338 2.240
60.2640 2.292
60.2943 2.187
60.3246 1.771
60.3549 2.292
60.3852 2.187
60.4154 2.135
60.4457 2.708
60.4760 1.719
60.5063 2.031
60.5365 1.510
60.5668 2.552
60.5971 2.083
60.6274 2.083
60.6577 1.875
60.6879 1.823
60.7182 2.187
60.7485 2.552
60.7788 2.552
60.8091 1.927
60.8393 1.667
60.8696 2.187
60.8999 1.875
60.9302 2.500
60.9604 2.031
60.9907 2.448
61.0210 2.083
61.0513 3.229
61.0816 3.073
61.1118 2.500
61.1421 2.760
61.1724 2.969
61.2027 2.604
61.2330 2.656
61.2632 2.187
61.2935 2.240
61.3238 3.281
61.3541 2.500
61.3844 2.865
61.4146 2.135
61.4449 2.500
61.4752 2.344
61.5055 2.500
61.5357 2.969
61.5660 3.073
61.5963 2.917
61.6266 2.969
61.6569 3.385
61.6871 2.604
61.7174 2.500
61.7477 3.698
61.7780 3.177
61.8083 2.865
61.8385 3.229
61.8688 2.865
61.8991 3.229
61.9294 3.385
61.9596 3.281
61.9899 3.437
62.0202 3.802
62.0505 3.750
62.0808 4.323
62.1110 4.323
62.1413 4.323
62.1716 4.323
62.2019 5.208
62.2322 5.052
62.2624 5.469
62.2927 6.042
62.3230 6.979
62.3533 6.823
62.3835 7.292
62.4138 7.396
62.4441 8.802
62.4744 8.594
62.5047 10.625
62.5349 10.885
62.5652 12.552
62.5955 14.167
62.6258 13.802
62.6561 16.042
62.6863 15.260
62.7166 16.719
62.7469 18.281
62.7772 17.500
62.8074 15.833
62.8377 18.229
62.8680 15.625
62.8983 14.271
62.9286 12.812
62.9588 11.354
62.9891 11.667
63.0194 10.885
63.0497 8.333
63.0800 8.646
63.1102 7.240
63.1405 6.458
63.1708 6.458
63.2011 6.042
63.2313 5.260
63.2616 4.687
63.2919 5.625
63.3222 4.844
63.3525 4.479
63.3827 4.427
63.4130 4.427
63.4433 3.854
63.4736 3.958
63.5039 4.115
63.5341 3.385
63.5644 3.698
63.5947 3.646
63.6250 3.281
63.6552 2.656
63.6855 3.646
63.7158 2.604
63.7461 3.073
63.7764 3.021
63.8066 2.917
63.8369 2.604
63.8672 2.708
63.8975 2.500
63.9278 2.292
63.9580 2.865
63.9883 2.187
64.0186 2.708
64.0489 2.031
64.0791 2.760
64.1094 3.385
64.1397 2.708
64.1700 2.396
64.2003 2.708
64.2305 1.979
64.2608 2.917
64.2911 1.667
64.3214 2.083
64.3517 1.823
64.3819 2.500
64.4122 2.500
64.4425 2.500
64.4728 2.448
64.5031 2.083
64.5333 2.500
64.5636 2.708
64.5939 2.240
64.6242 2.031
64.6544 1.979
64.6847 2.083
64.7150 1.927
64.7453 2.187
64.7756 2.656
64.8058 2.656
64.8361 2.448
64.8664 2.240
64.8967 2.656
64.9270 2.656
64.9572 2.708
64.9875 1.979
65.0178 2.344
65.0481 2.292
65.0783 2.396
65.1086 2.187
65.1389 3.021
65.1692 2.344
65.1995 2.396
65.2297 2.604
65.2600 2.500
65.2903 2.656
65.3206 2.604
65.3509 2.396
65.3811 2.292
65.4114 1.719
65.4417 2.865
65.4720 2.187
65.5022 2.552
65.5325 2.812
65.5628 3.021
65.5931 2.292
65.6234 2.708
65.6536 2.656
65.6839 2.448
65.7142 2.812
65.7445 2.448
65.7748 3.021
65.8050 2.812
65.8353 3.177
65.8656 3.073
65.8959 3.229
65.9261 3.802
65.9564 3.125
65.9867 3.490
66.0170 3.437
66.0473 3.594
66.0775 3.385
66.1078 5.260
66.1381 4.167
66.1684 3.542
66.1987 3.906
66.2289 4.167
66.2592 4.115
66.2895 4.167
66.3198 4.792
66.3500 5.729
66.3803 4.635
66.4106 3.229
66.4409 3.906
66.4712 4.583
66.5014 3.542
66.5317 4.167
66.5620 3.437
66.5923 3.542
66.6226 3.698
66.6528 3.333
66.6831 2.448
66.7134 2.969
66.7437 3.125
66.7739 3.385
66.8042 3.437
66.8345 4.219
66.8648 3.437
66.8951 2.917
66.9253 3.177
66.9556 3.646
66.9859 4.062
67.0162 3.437
67.0465 3.437
67.0767 3.906
67.1070 3.958
67.1373 4.167
67.1676 4.531
67.1978 3.750
67.2281 4.479
67.2584 3.490
67.2887 4.948
67.3190 5.781
67.3492 4.323
67.3795 5.260
67.4098 5.833
67.4401 6.510
67.4704 6.667
67.5006 7.448
67.5309 7.708
67.5612 8.333
67.5915 8.490
67.6218 8.854
67.6520 9.323
67.6823 9.583
67.7126 11.302
67.7429 11.771
67.7731 10.885
67.8034 12.865
67.8337 12.969
67.8640 12.708
67.8943 13.073
67.9245 11.771
67.9548 11.719
67.9851 9.687
68.0154 10.677
68.0457 10.469
68.0759 9.740
68.1062 9.167
68.1365 8.854
68.1668 8.385
68.1970 7.292
68.2273 7.604
68.2576 6.667
68.2879 5.677
68.3182 6.094
68.3484 4.948
68.3787 5.417
68.4090 5.469
68.4393 5.312
68.4696 5.208
68.4998 5.052
68.5301 5.000
68.5604 5.312
68.5907 5.729
68.6209 4.792
68.6512 4.740
68.6815 6.354
68.7118 5.417
68.7421 5.417
68.7723 5.937
68.8026 6.250
68.8329 5.573
68.8632 7.240
68.8935 6.250
68.9237 6.094
68.9540 7.031
68.9843 7.656
69.0146 7.448
69.0448 6.146
69.0751 6.927
69.1054 6.719
69.1357 6.354
69.1660 6.354
69.1962 5.521
69.2265 6.094
69.2568 3.802
69.2871 5.781
69.3174 4.687
69.3476 4.635
69.3779 3.490
69.4082 4.167
69.4385 3.021
69.4687 3.646
69.4990 3.490
69.5293 3.646
69.5596 3.437
69.5899 2.917
69.6201 3.073
69.6504 2.865
69.6807 2.135
69.7110 3.490
69.7413 3.177
69.7715 2.760
69.8018 3.021
69.8321 2.292
69.8624 2.240
69.8926 2.552
69.9229 1.875
69.9532 3.125
69.9835 2.083
70.0138 1.823
70.0440 1.510
70.0743 1.927
70.1046 1.771
70.1349 1.771
70.1652 1.875
70.1954 1.979
70.2257 2.812
70.2560 1.771
70.2863 2.396
70.3166 2.135
70.3468 2.292
70.3771 2.031
70.4074 1.510
70.4377 1.771
70.4679 2.187
70.4982 1.927
70.5285 1.823
70.5588 1.667
70.5891 2.292
70.6193 2.083
70.6496 2.292
70.6799 1.510
70.7102 1.458
70.7405 1.771
70.7707 1.719
70.8010 1.615
70.8313 1.615
70.8616 1.562
70.8918 1.250
70.9221 1.719
70.9524 2.135
70.9827 1.979
71.0130 1.771
71.0432 1.667
71.0735 1.667
71.1038 2.083
71.1341 1.771
71.1644 2.135
71.1946 2.292
71.2249 1.875
71.2552 1.302
71.2855 1.667
71.3157 1.562
71.3460 1.875
71.3763 1.927
71.4066 1.510
71.4369 2.292
71.4671 1.562
71.4974 2.187
71.5277 1.823
71.5580 2.500
71.5883 2.031
71.6185 1.406
71.6488 1.927
71.6791 1.875
71.7094 1.510
71.7396 1.719
71.7699 1.354
71.8002 1.771
71.8305 1.406
71.8608 2.448
71.8910 1.667
71.9213 1.979
71.9516 1.667
71.9819 1.771
72.0122 1.562
72.0424 1.719
72.0727 2.240
72.1030 2.187
72.1333 2.083
72.1635 2.135
72.1938 1.979
72.2241 2.604
72.2544 1.927
72.2847 2.917
72.3149 2.760
72.3452 2.448
72.3755 1.875
72.4058 2.292
72.4361 2.344
72.4663 3.281
72.4966 2.135
72.5269 2.760
72.5572 1.927
72.5874 1.927
72.6177 2.604
72.6480 1.823
72.6783 1.823
72.7086 2.240
72.7388 2.031
72.7691 1.927
72.7994 1.823
72.8297 1.302
72.8600 1.562
72.8902 1.875
72.9205 1.406
72.9508 1.354
72.9811 2.031
73.0113 1.875
73.0416 1.771
73.0719 1.354
73.1022 1.510
73.1325 1.510
73.1627 1.615
73.1930 1.406
73.2233 1.615
73.2536 1.562
73.2839 1.562
73.3141 2.083
73.3444 1.562
73.3747 1.250
73.4050 1.719
73.4353 1.302
73.4655 1.354
73.4958 1.250
73.5261 1.510
73.5564 1.771
73.5866 1.719
73.6169 1.146
73.6472 1.406
73.6775 1.562
73.7078 1.250
73.7380 1.250
73.7683 1.406
73.7986 1.458
73.8289 1.302
73.8592 1.719
73.8894 1.875
73.9197 1.250
73.9500 1.250
73.9803 1.562
74.0105 1.302
74.0408 1.458
74.0711 1.719
74.1014 1.927
74.1317 1.562
74.1619 1.146
74.1922 1.615
74.2225 1.615
74.2528 1.198
74.2831 1.667
74.3133 1.146
74.3436 1.250
74.3739 1.094
74.4042 1.458
74.4344 0.990
74.4647 1.354
74.4950 1.719
74.5253 1.354
74.5556 1.615
74.5858 1.562
74.6161 1.198
74.6464 1.510
74.6767 1.250
74.7070 1.302
74.7372 1.198
74.7675 1.667
74.7978 1.302
74.8281 1.562
74.8583 1.667
74.8886 1.615
74.9189 1.458
74.9492 1.042
74.9795 1.719
75.0097 1.562
75.0400 1.198
75.0703 1.562
75.1006 1.510
75.1309 1.354
75.1611 1.510
75.1914 1.823
75.2217 1.198
75.2520 2.083
75.2822 1.719
75.3125 1.667
75.3428 1.562
75.3731 1.406
75.4034 1.406
75.4336 1.250
75.4639 1.198
75.4942 1.354
75.5245 1.875
75.5548 1.615
75.5850 1.042
75.6153 1.198
75.6456 1.354
75.6759 1.354
75.7061 1.875
75.7364 1.667
75.7667 1.823
75.7970 1.562
75.8273 1.823
75.8575 1.510
75.8878 1.406
75.9181 1.250
75.9484 1.979
75.9787 1.354
76.0089 1.875
76.0392 1.250
76.0695 1.458
76.0998 1.927
76.1301 1.354
76.1603 2.187
76.1906 1.823
76.2209 1.667
76.2512 1.667
76.2814 1.771
76.3117 1.146
76.3420 1.146
76.3723 1.406
76.4026 1.667
76.4328 1.875
76.4631 1.719
76.4934 2.396
76.5237 1.927
76.5540 2.292
76.5842 2.187
76.6145 1.667
76.6448 1.667
76.6751 2.292
76.7053 2.135
76.7356 2.292
76.7659 2.969
76.7962 2.812
76.8265 2.656
76.8567 2.240
76.8870 1.979
76.9173 2.552
76.9476 2.292
76.9779 2.604
77.0081 2.500
77.0384 2.083
77.0687 2.240
77.0990 2.135
77.1292 2.396
77.1595 1.875
77.1898 1.823
77.2201 1.823
77.2504 2.396
77.2806 1.979
77.3109 2.396
77.3412 1.927
77.3715 1.927
77.4018 1.615
77.4320 2.292
77.4623 1.667
77.4926 1.146
77.5229 1.875
77.5531 1.198
77.5834 1.354
77.6137 1.667
77.6440 1.979
77.6743 1.250
77.7045 1.406
77.7348 1.146
77.7651 2.135
77.7954 1.406
77.8257 1.250
77.8559 0.937
77.8862 1.615
77.9165 1.875
77.9468 1.198
77.9770 1.250
78.0073 0.937
78.0376 1.146
78.0679 1.302
78.0982 1.302
78.1284 1.823
78.1587 1.198
78.1890 1.250
78.2193 1.823
78.2496 1.771
78.2798 1.042
78.3101 1.510
78.3404 1.302
78.3707 1.510
78.4009 0.781
78.4312 1.198
78.4615 1.719
78.4918 1.354
78.5221 1.250
78.5523 0.990
78.5826 1.198
78.6129 1.250
78.6432 1.615
78.6735 1.354
78.7037 1.510
78.7340 1.198
78.7643 1.094
78.7946 1.875
78.8248 1.250
78.8551 1.562
78.8854 2.083
78.9157 1.094
78.9460 1.302
78.9762 1.198
79.0065 1.302
79.0368 1.302
79.0671 1.458
79.0974 1.771
79.1276 1.667
79.1579 1.667
79.1882 1.771
79.2185 1.458
79.2488 1.875
79.2790 1.250
79.3093 1.406
79.3396 1.198
79.3699 1.406
79.4001 1.354
79.4304 1.250
79.4607 1.406
79.4910 1.198
79.5213 1.406
79.5515 1.406
79.5818 1.562
79.6121 1.406
79.6424 1.458
79.6727 1.771
79.7029 1.146
79.7332 1.406
79.7635 1.042
79.7938 1.562
79.8240 1.615
79.8543 1.250
79.8846 1.250
79.9149 1.719
79.9452 1.354
79.9754 1.094
80.0057 0.937
80.0360 1.510
80.0663 1.198
80.0966 1.354
80.1268 1.146
80.1571 1.667
80.1874 1.510
80.2177 1.302
80.2479 1.979
80.2782 1.406
80.3085 1.562
80.3388 1.562
80.3691 1.719
80.3993 1.146
80.4296 1.198
80.4599 1.615
80.4902 1.302
80.5205 1.719
80.5507 1.771
80.5810 1.250
80.6113 1.354
80.6416 1.615
80.6718 1.667
80.7021 1.302
80.7324 1.250
80.7627 1.875
80.7930 1.302
80.8232 1.198
80.8535 1.875
80.8838 2.031
80.9141 1.250
80.9444 1.719
80.9746 1.458
81.0049 1.198
81.0352 2.083
81.0655 1.771
81.0957 2.083
81.1260 1.667
81.1563 1.927
81.1866 1.927
81.2169 2.083
81.2471 1.510
81.2774 3.177
81.3077 2.292
81.3380 1.562
81.3683 2.292
81.3985 2.187
81.4288 1.927
81.4591 1.458
81.4894 1.510
81.5196 1.927
81.5499 1.354
81.5802 2.396
81.6105 1.302
81.6408 2.292
81.6710 1.719
81.7013 1.667
81.7316 1.094
81.7619 1.823
81.7922 1.198
81.8224 1.406
81.8527 1.562
81.8830 1.302
81.9133 1.302
81.9436 1.406
81.9738 1.406
82.0041 1.146
82.0344 1.615
82.0647 1.302
82.0949 1.354
82.1252 1.823
82.1555 1.198
82.1858 1.406
82.2161 1.198
82.2463 0.833
82.2766 1.667
82.3069 1.250
82.3372 0.990
82.3675 1.146
82.3977 1.354
82.4280 1.146
82.4583 1.198
82.4886 1.458
82.5188 1.406
82.5491 1.146
82.5794 1.198
82.6097 1.146
82.6400 1.094
82.6702 1.146
82.7005 1.458
82.7308 0.833
82.7611 1.198
82.7914 1.250
82.8216 1.458
82.8519 1.510
82.8822 1.615
82.9125 0.937
82.9427 1.250
82.9730 1.510
83.0033 1.458
83.0336 1.927
83.0639 1.094
83.0941 1.042
83.1244 1.667
83.1547 1.562
83.1850 1.302
83.2153 1.406
83.2455 1.198
83.2758 1.042
83.3061 1.875
83.3364 1.458
83.3666 1.094
83.3969 1.094
83.4272 1.042
83.4575 1.354
83.4878 0.990
83.5180 1.198
83.5483 1.198
83.5786 1.146
83.6089 1.146
83.6392 1.562
83.6694 1.198
83.6997 1.146
83.7300 1.198
83.7603 1.406
83.7905 1.406
83.8208 0.937
83.8511 1.406
83.8814 1.198
83.9117 1.302
83.9419 0.677
83.9722 0.781
84.0025 1.198
84.0328 0.781
84.0631 1.250
84.0933 1.198
84.1236 1.250
84.1539 0.990
84.1842 1.198
84.2144 1.198
84.2447 1.198
84.2750 1.667
84.3053 1.667
84.3356 1.771
84.3658 0.885
84.3961 1.042
84.4264 1.562
84.4567 1.042
84.4870 1.354
84.5172 1.146
84.5475 1.510
84.5778 1.354
84.6081 1.198
84.6383 1.302
84.6686 1.250
84.6989 1.458
84.7292 0.937
84.7595 0.990
84.7897 1.667
84.8200 1.198
84.8503 1.146
84.8806 1.198
84.9109 1.771
84.9411 1.198
84.9714 1.198
85.0017 1.510
85.0320 1.198
85.0623 1.771
85.0925 0.729
85.1228 1.562
85.1531 1.406
85.1834 1.250
85.2136 1.042
85.2439 1.458
85.2742 1.146
85.3045 1.562
85.3348 1.198
85.3650 0.781
85.3953 1.302
85.4256 1.406
85.4559 0.990
85.4862 1.615
85.5164 1.615
85.5467 1.615
85.5770 1.198
85.6073 1.719
85.6375 1.354
85.6678 1.198
85.6981 1.354
85.7284 1.510
85.7587 0.781
85.7889 1.406
85.8192 1.250
85.8495 1.719
85.8798 1.198
85.9101 1.667
85.9403 1.302
85.9706 1.250
86.0009 1.250
86.0312 1.250
86.0614 1.250
86.0917 1.354
86.1220 1.615
86.1523 1.354
86.1826 1.510
86.2128 1.667
86.2431 1.250
86.2734 1.198
86.3037 0.781
86.3340 1.354
86.3642 1.198
86.3945 1.146
86.4248 1.667
86.4551 1.302
86.4853 1.250
86.5156 1.094
86.5459 1.458
86.5762 1.510
86.6065 1.615
86.6367 1.198
86.6670 1.667
86.6973 1.458
86.7276 1.615
86.7579 1.406
86.7881 1.458
86.8184 1.458
86.8487 1.458
86.8790 1.198
86.9092 1.198
86.9395 1.094
86.9698 1.094
87.0001 1.354
87.0304 1.562
87.0606 0.885
87.0909 1.042
87.1212 1.667
87.1515 1.302
87.1818 1.198
87.2120 0.833
87.2423 1.354
87.2726 1.406
87.3029 1.094
87.3331 1.458
87.3634 1.510
87.3937 1.302
87.4240 1.406
87.4543 1.146
87.4845 1.250
87.5148 1.510
87.5451 1.406
87.5754 1.667
87.6057 1.198
87.6359 1.198
87.6662 1.302
87.6965 1.406
87.7268 1.562
87.7571 1.198
87.7873 2.031
87.8176 1.094
87.8479 1.094
87.8782 1.823
87.9084 1.250
87.9387 2.135
87.9690 1.302
87.9993 1.406
88.0296 1.250
88.0598 1.510
88.0901 1.094
88.1204 1.406
88.1507 1.927
88.1810 1.302
88.2112 1.354
88.2415 1.615
88.2718 1.719
88.3021 1.302
88.3323 1.823
88.3626 1.667
88.3929 1.042
88.4232 1.667
88.4535 1.562
88.4837 1.667
88.5140 1.719
88.5443 1.510
88.5746 1.719
88.6049 1.615
88.6351 1.615
88.6654 1.875
88.6957 2.552
88.7260 1.458
88.7562 1.823
88.7865 1.510
88.8168 2.396
88.8471 1.667
88.8774 1.615
88.9076 2.240
88.9379 2.187
88.9682 2.135
88.9985 2.552
89.0288 2.083
89.0590 1.927
89.0893 2.396
89.1196 2.708
89.1499 2.604
89.1801 2.396
89.2104 2.604
89.2407 3.125
89.2710 3.073
89.3013 2.604
89.3315 3.698
89.3618 2.917
89.3921 3.854
89.4224 2.917
89.4527 3.594
89.4829 3.281
89.5132 4.010
89.5435 3.594
89.5738 3.542
89.6040 2.969
89.6343 3.542
89.6646 3.750
89.6949 3.594
89.7252 3.281
89.7554 3.021
89.7857 3.490
89.8160 2.604
89.8463 2.708
89.8766 2.969
89.9068 3.125
89.9371 3.125
89.9674 2.552
89.9977 3.333
90.0279 2.604
90.0582 1.719
90.0885 2.708
90.1188 2.292
90.1491 2.552
90.1793 1.771
90.2096 1.562
90.2399 2.135
90.2702 2.031
90.3005 1.771
90.3307 2.187
90.3610 2.135
90.3913 1.927
90.4216 1.667
90.4518 1.615
90.4821 1.875
90.5124 1.719
90.5427 1.302
90.5730 1.615
90.6032 1.250
90.6335 1.042
90.6638 1.510
90.6941 1.198
90.7244 1.198
90.7546 1.823
90.7849 2.187
90.8152 1.615
90.8455 1.302
90.8758 1.302
90.9060 1.302
90.9363 1.354
90.9666 1.094
90.9969 1.979
91.0271 1.302
91.0574 1.823
91.0877 1.719
91.1180 1.146
91.1483 1.719
91.1785 0.990
91.2088 0.937
91.2391 1.510
91.2694 1.823
91.2997 1.354
91.3299 2.552
91.3602 1.615
91.3905 1.667
91.4208 1.458
91.4510 1.458
91.4813 1.250
91.5116 1.719
91.5419 1.302
91.5722 1.198
91.6024 1.146
91.6327 1.719
91.6630 1.042
91.6933 0.990
91.7236 1.146
91.7538 1.562
91.7841 1.458
91.8144 1.354
91.8447 1.354
91.8749 1.875
91.9052 1.458
91.9355 1.406
91.9658 1.354
91.9961 1.250
92.0263 1.615
92.0566 2.031
92.0869 1.667
92.1172 1.667
92.1475 1.875
92.1777 1.719
92.2080 1.927
92.2383 2.083
92.2686 2.187
92.2988 1.719
92.3291 2.500
92.3594 2.187
92.3897 1.875
92.4200 2.083
92.4502 1.354
92.4805 2.187
92.5108 2.083
92.5411 2.187
92.5714 1.719
92.6016 1.458
92.6319 2.240
92.6622 1.823
92.6925 1.667
92.7227 1.875
92.7530 2.240
92.7833 1.875
92.8136 2.344
92.8439 1.823
92.8741 2.396
92.9044 2.187
92.9347 1.823
92.9650 2.187
92.9953 1.719
93.0255 1.615
93.0558 2.083
93.0861 2.031
93.1164 1.562
93.1466 1.406
93.1769 1.667
93.2072 1.719
93.2375 1.823
93.2678 2.187
93.2980 1.615
93.3283 1.562
93.3586 1.979
93.3889 1.719
93.4192 1.875
93.4494 1.823
93.4797 1.667
93.5100 1.302
93.5403 1.458
93.5706 1.615
93.6008 1.719
93.6311 1.615
93.6614 1.615
93.6917 1.615
93.7219 1.510
93.7522 1.615
93.7825 1.719
93.8128 1.198
93.8431 1.875
93.8733 2.135
93.9036 1.458
93.9339 1.875
93.9642 1.667
93.9945 2.031
94.0247 1.719
94.0550 1.667
94.0853 1.719
94.1156 1.979
94.1458 1.615
94.1761 1.771
94.2064 1.615
94.2367 1.719
94.2670 1.562
94.2972 1.615
94.3275 2.187
94.3578 1.510
94.3881 1.250
94.4184 1.771
94.4486 1.719
94.4789 1.719
94.5092 2.083
94.5395 2.135
94.5697 1.875
94.6000 2.552
94.6303 2.396
94.6606 2.187
94.6909 2.396
94.7211 2.500
94.7514 2.604
94.7817 2.448
94.8120 2.396
94.8423 2.292
94.8725 2.448
94.9028 2.656
94.9331 3.125
94.9634 3.437
94.9936 2.865
95.0239 3.021
95.0542 3.646
95.0845 2.708
95.1148 2.812
95.1450 3.021
95.1753 3.594
95.2056 3.177
95.2359 3.125
95.2662 3.281
95.2964 3.229
95.3267 3.542
95.3570 2.917
95.3873 3.125
95.4175 2.500
95.4478 3.021
95.4781 3.177
95.5084 2.604
95.5387 2.865
95.5689 2.917
95.5992 2.917
95.6295 3.073
95.6598 3.281
95.6901 2.865
95.7203 2.135
95.7506 1.979
95.7809 1.719
95.8112 2.656
95.8414 2.344
95.8717 2.292
95.9020 1.927
95.9323 1.667
95.9626 1.927
95.9928 2.240
96.0231 1.354
96.0534 1.458
96.0837 1.927
96.1140 1.979
96.1442 1.771
96.1745 1.667
96.2048 2.292
96.2351 1.615
96.2653 2.344
96.2956 1.458
96.3259 1.510
96.3562 1.667
96.3865 1.302
96.4167 1.562
96.4470 2.552
96.4773 1.562
96.5076 1.302
96.5379 2.083
96.5681 1.510
96.5984 1.667
96.6287 1.302
96.6590 1.562
96.6893 1.719
96.7195 1.771
96.7498 2.031
96.7801 1.458
96.8104 1.406
96.8406 1.354
96.8709 1.250
96.9012 1.250
96.9315 1.250
96.9618 1.667
96.9920 1.927
97.0223 1.510
97.0526 1.250
97.0829 1.354
97.1132 1.510
97.1434 1.458
97.1737 1.458
97.2040 1.979
97.2343 0.781
97.2645 1.562
97.2948 1.302
97.3251 1.354
97.3554 1.771
97.3857 1.406
97.4159 1.354
97.4462 1.719
97.4765 1.458
97.5068 1.250
97.5371 1.667
97.5673 1.250
97.5976 2.031
97.6279 1.510
97.6582 1.354
97.6884 1.927
97.7187 1.510
97.7490 1.875
97.7793 1.875
97.8096 1.615
97.8398 1.562
97.8701 1.771
97.9004 1.979
97.9307 2.031
97.9610 1.458
97.9912 2.083
98.0215 1.875
98.0518 1.615
98.0821 1.510
98.1123 2.292
98.1426 2.292
98.1729 2.083
98.2032 2.187
98.2335 2.031
98.2637 2.187
98.2940 2.396
98.3243 2.500
98.3546 1.927
98.3849 2.396
98.4151 2.812
98.4454 2.865
98.4757 2.292
98.5060 2.448
98.5362 3.333
98.5665 2.656
98.5968 2.031
98.6271 2.292
98.6574 2.500
98.6876 2.031
98.7179 1.771
98.7482 2.656
98.7785 2.708
98.8088 2.656
98.8390 1.406
98.8693 2.396
98.8996 2.500
98.9299 2.396
98.9601 1.823
98.9904 2.031
99.0207 1.719
99.0510 2.187
99.0813 1.719
99.1115 1.615
99.1418 2.187
99.1721 2.187
99.2024 1.146
99.2327 1.875
99.2629 2.240
99.2932 2.031
99.3235 1.406
99.3538 2.031
99.3841 1.875
99.4143 1.354
99.4446 1.354
99.4749 1.615
99.5052 1.510
99.5354 1.667
99.5657 1.198
99.5960 1.823
99.6263 1.615
99.6566 2.240
99.6868 1.927
99.7171 1.146
99.7474 1.510
99.7777 2.187
99.8080 1.823
99.8382 1.823
99.8685 1.198
99.8988 1.927
99.9291 0.781
99.9593 1.979
99.9896 1.771
100.0199 1.198
100.0502 1.875
100.0805 2.344
100.1107 1.719
100.1410 1.302
100.1713 1.562
100.2016 1.302
100.2319 1.406
100.2621 1.875
100.2924 1.510
100.3227 1.823
100.3530 1.250
100.3832 1.510
100.4135 1.562
100.4438 1.198
100.4741 1.406
100.5044 1.302
100.5346 1.250
100.5649 1.042
100.5952 1.458
100.6255 1.250
100.6558 1.562
100.6860 1.250
100.7163 1.302
100.7466 1.250
100.7769 1.458
100.8071 1.302
100.8374 0.833
100.8677 1.354
100.8980 1.458
100.9283 1.510
100.9585 1.562
100.9888 1.250
101.0191 0.833
101.0494 1.354
101.0797 1.615
101.1099 1.302
101.1402 1.562
101.1705 0.937
101.2008 1.458
101.2310 1.198
101.2613 1.719
101.2916 1.198
101.3219 1.615
101.3522 1.510
101.3824 1.198
101.4127 1.250
101.4430 2.240
101.4733 1.198
101.5036 1.667
101.5338 1.458
101.5641 1.406
101.5944 1.875
101.6247 1.510
101.6549 1.354
101.6852 1.875
101.7155 1.146
101.7458 1.354
101.7761 1.510
101.8063 2.031
101.8366 1.562
101.8669 2.135
101.8972 1.146
101.9275 1.042
101.9577 1.406
101.9880 1.875
102.0183 1.615
102.0486 1.562
102.0788 1.510
102.1091 1.354
102.1394 1.927
102.1697 1.875
102.2000 1.615
102.2302 1.875
102.2605 1.458
102.2908 1.823
102.3211 2.031
102.3514 2.187
102.3816 1.823
102.4119 2.031
102.4422 1.667
102.4725 1.667
102.5028 2.448
102.5330 2.135
102.5633 2.292
102.5936 1.771
102.6239 1.823
102.6541 2.292
102.6844 2.552
102.7147 2.448
102.7450 2.448
102.7753 2.812
102.8055 1.771
102.8358 2.135
102.8661 1.875
102.8964 2.187
102.9267 3.021
102.9569 1.771
102.9872 1.823
103.0175 2.292
103.0478 1.979
103.0780 2.917
103.1083 2.448
103.1386 2.292
103.1689 1.771
103.1992 2.448
103.2294 1.927
103.2597 1.771
103.2900 2.448
103.3203 2.292
103.3506 1.979
103.3808 2.344
103.4111 2.448
103.4414 2.604
103.4717 2.344
103.5019 2.448
103.5322 2.083
103.5625 2.448
103.5928 1.823
103.6231 2.552
103.6533 2.396
103.6836 2.708
103.7139 2.187
103.7442 3.490
103.7745 2.135
103.8047 2.917
103.8350 2.344
103.8653 2.760
103.8956 3.177
103.9258 2.604
103.9561 3.021
103.9864 2.760
104.0167 3.229
104.0470 2.812
104.0772 2.917
104.1075 3.229
104.1378 3.177
104.1681 2.865
104.1984 2.240
104.2286 2.604
104.2589 2.812
104.2892 3.281
104.3195 2.656
104.3497 2.708
104.3800 2.500
104.4103 2.292
104.4406 2.708
104.4709 2.969
104.5011 2.552
104.5314 2.396
104.5617 1.927
104.5920 2.500
104.6223 1.927
104.6525 2.344
104.6828 1.927
104.7131 1.823
104.7434 2.031
104.7736 1.927
104.8039 1.771
104.8342 1.979
104.8645 1.927
104.8948 2.135
104.9250 1.823
104.9553 2.344
104.9856 1.615
105.0159 2.135
105.0462 1.458
105.0764 2.083
105.1067 0.885
105.1370 1.458
105.1673 1.927
105.1975 1.302
105.2278 1.302
105.2581 0.833
105.2884 1.771
105.3187 1.146
105.3489 1.406
105.3792 1.615
105.4095 1.562
105.4398 1.615
105.4701 1.615
105.5003 1.354
105.5306 1.302
105.5609 1.042
105.5912 1.615
105.6215 1.458
105.6517 1.458
105.6820 1.875
105.7123 0.677
105.7426 1.719
105.7728 1.510
105.8031 1.406
105.8334 1.458
105.8637 2.135
105.8940 1.042
105.9242 1.562
105.9545 1.198
105.9848 1.198
106.0151 1.458
106.0454 1.562
106.0756 1.615
106.1059 1.667
106.1362 1.667
106.1665 1.250
106.1967 1.042
106.2270 1.615
106.2573 0.937
106.2876 1.250
106.3179 0.937
106.3481 1.302
106.3784 1.406
106.4087 1.354
106.4390 1.667
106.4693 1.250
106.4995 1.719
106.5298 1.667
106.5601 1.406
106.5904 1.510
106.6206 1.771
106.6509 1.198
106.6812 1.094
106.7115 1.510
106.7418 1.719
106.7720 1.354
106.8023 1.302
106.8326 1.406
106.8629 1.198
106.8932 1.302
106.9234 1.406
106.9537 1.458
106.9840 1.458
107.0143 1.250
107.0445 1.875
107.0748 1.198
107.1051 1.875
107.1354 1.823
107.1657 1.875
107.1959 1.510
107.2262 1.667
107.2565 1.302
107.2868 1.927
107.3171 2.083
107.3473 1.823
107.3776 1.302
107.4079 1.562
107.4382 1.823
107.4684 1.354
107.4987 1.458
107.5290 1.406
107.5593 1.250
107.5896 1.719
107.6198 1.667
107.6501 1.250
107.6804 1.719
107.7107 1.615
107.7410 1.719
107.7712 1.615
107.8015 1.406
107.8318 1.562
107.8621 1.042
107.8923 1.458
107.9226 1.719
107.9529 1.198
107.9832 1.510
108.0135 1.250
108.0437 1.354
108.0740 1.094
108.1043 1.406
108.1346 1.406
108.1649 1.302
108.1951 1.406
108.2254 1.250
108.2557 1.667
108.2860 1.458
108.3163 1.302
108.3465 1.198
108.3768 1.615
108.4071 1.562
108.4374 0.937
108.4676 1.458
108.4979 1.354
108.5282 1.823
108.5585 1.510
108.5888 1.510
108.6190 1.615
108.6493 0.937
108.6796 1.615
108.7099 1.198
108.7402 1.562
108.7704 1.406
108.8007 1.510
108.8310 1.406
108.8613 1.667
108.8915 1.302
108.9218 1.042
108.9521 1.354
108.9824 1.562
109.0127 1.667
109.0429 1.458
109.0732 1.094
109.1035 1.094
109.1338 1.615
109.1641 1.354
109.1943 1.354
109.2246 1.510
109.2549 1.302
109.2852 1.719
109.3154 1.510
109.3457 1.562
109.3760 1.562
109.4063 1.458
109.4366 1.719
109.4668 1.979
109.4971 1.146
109.5274 1.458
109.5577 1.979
109.5880 1.667
109.6182 2.135
109.6485 1.719
109.6788 1.927
109.7091 1.875
109.7393 1.250
109.7696 0.990
109.7999 1.458
109.8302 2.344
109.8605 1.562
109.8907 1.719
109.9210 1.823
109.9513 1.823
109.9816 1.667
110.0119 1.771
110.0421 1.667
110.0724 2.865
110.1027 2.240
110.1330 2.292
110.1632 2.760
110.1935 1.979
110.2238 2.292
110.2541 2.135
110.2844 2.760
110.3146 2.187
110.3449 2.240
110.3752 2.292
110.4055 2.448
110.4358 2.292
110.4660 1.615
110.4963 2.292
110.5266 2.031
110.5569 3.125
110.5871 1.823
110.6174 1.562
110.6477 1.719
110.6780 2.552
110.7083 1.875
110.7385 1.927
110.7688 1.667
110.7991 2.552
110.8294 1.250
110.8597 1.771
110.8899 1.562
110.9202 1.302
110.9505 1.875
110.9808 2.031
111.0110 1.719
111.0413 1.510
111.0716 1.615
111.1019 2.292
111.1322 2.031
111.1624 1.615
111.1927 1.771
111.2230 1.615
111.2533 1.823
111.2836 1.927
111.3138 1.198
111.3441 1.406
111.3744 1.094
111.4047 1.198
111.4350 1.875
111.4652 1.719
111.4955 0.990
111.5258 1.198
111.5561 2.031
111.5863 1.875
111.6166 1.146
111.6469 1.250
111.6772 1.302
111.7075 1.771
111.7377 1.354
111.7680 1.562
111.7983 1.667
111.8286 1.302
111.8589 1.458
111.8891 1.146
111.9194 1.667
111.9497 1.406
111.9800 1.406
112.0102 1.458
112.0405 1.250
112.0708 1.615
112.1011 1.458
112.1314 1.562
112.1616 1.510
112.1919 1.406
112.2222 1.302
112.2525 2.187
112.2828 1.354
112.3130 1.510
112.3433 1.510
112.3736 1.146
112.4039 1.354
112.4341 1.198
112.4644 1.823
112.4947 1.458
112.5250 1.875
112.5553 1.510
112.5855 1.875
112.6158 1.354
112.6461 1.458
112.6764 1.354
112.7067 1.458
112.7369 1.146
112.7672 1.146
112.7975 1.615
112.8278 1.406
112.8580 0.937
112.8883 1.354
112.9186 1.094
112.9489 1.354
112.9792 1.562
113.0094 1.615
113.0397 1.667
113.0700 1.719
113.1003 1.094
113.1306 1.406
113.1608 1.615
113.1911 1.406
113.2214 1.302
113.2517 1.042
113.2819 1.667
113.3122 1.042
113.3425 1.823
113.3728 1.042
113.4031 1.719
113.4333 1.406
113.4636 1.562
113.4939 1.406
113.5242 1.094
113.5545 1.510
113.5847 1.146
113.6150 1.042
113.6453 1.458
113.6756 1.927
113.7058 1.875
113.7361 1.823
113.7664 1.458
113.7967 1.146
113.8270 1.667
113.8572 1.406
113.8875 0.990
113.9178 1.354
113.9481 1.250
113.9784 1.146
114.0086 1.198
114.0389 1.302
114.0692 1.302
114.0995 1.094
114.1298 1.458
114.1600 1.250
114.1903 1.302
114.2206 1.510
114.2509 1.667
114.2811 1.458
114.3114 2.135
114.3417 1.615
114.3720 1.979
114.4023 1.406
114.4325 1.302
114.4628 1.562
114.4931 1.146
114.5234 1.615
114.5537 1.198
114.5839 1.302
114.6142 1.354
114.6445 1.562
114.6748 1.562
114.7050 1.354
114.7353 1.771
114.7656 2.031
114.7959 1.562
114.8262 2.187
114.8564 1.406
114.8867 1.823
114.9170 1.510
114.9473 1.823
114.9776 1.562
115.0078 1.719
115.0381 1.406
115.0684 1.562
115.0987 2.135
115.1289 2.396
115.1592 1.771
115.1895 1.875
115.2198 2.240
115.2501 1.302
115.2803 2.187
115.3106 2.292
115.3409 1.927
115.3712 1.875
115.4015 2.187
115.4317 2.240
115.4620 1.979
115.4923 1.927
115.5226 2.187
115.5528 2.448
115.5831 2.187
115.6134 2.552
115.6437 2.135
115.6740 2.448
115.7042 2.656
115.7345 1.927
115.7648 2.812
115.7951 2.865
115.8254 3.333
115.8556 2.552
115.8859 3.281
115.9162 4.010
115.9465 2.448
115.9767 2.240
116.0070 2.708
116.0373 2.865
116.0676 3.021
116.0979 3.177
116.1281 3.021
116.1584 3.229
116.1887 4.219
116.2190 2.760
116.2493 2.969
116.2795 3.177
116.3098 3.490
116.3401 3.281
116.3704 3.125
116.4006 2.865
116.4309 3.490
116.4612 2.708
116.4915 2.708
116.5218 2.240
116.5520 2.135
116.5823 2.865
116.6126 2.604
116.6429 2.969
116.6732 2.448
116.7034 2.500
116.7337 3.021
116.7640 2.604
116.7943 2.083
116.8245 2.344
116.8548 2.448
116.8851 2.917
116.9154 2.031
116.9457 2.448
116.9759 1.979
117.0062 2.083
117.0365 1.719
117.0668 1.979
117.0971 1.875
117.1273 1.875
117.1576 1.719
117.1879 1.771
117.2182 2.187
117.2485 1.979
117.2787 2.240
117.3090 1.719
117.3393 1.615
117.3696 1.615
117.3998 2.135
117.4301 1.875
117.4604 1.042
117.4907 1.302
117.5210 1.979
117.5512 2.031
117.5815 1.667
117.6118 1.979
117.6421 1.458
117.6724 1.302
117.7026 1.719
117.7329 1.927
117.7632 1.875
117.7935 1.198
117.8237 2.031
117.8540 2.031
117.8843 1.979
117.9146 1.875
117.9449 1.510
117.9751 1.615
118.0054 1.302
118.0357 1.823
118.0660 1.667
118.0963 1.562
118.1265 1.771
118.1568 1.667
118.1871 1.406
118.2174 1.719
118.2476 1.510
118.2779 1.458
118.3082 1.354
118.3385 1.927
118.3688 1.094
118.3990 1.615
118.4293 1.302
118.4596 1.823
118.4899 1.250
118.5202 0.781
118.5504 1.302
118.5807 1.771
118.6110 1.771
118.6413 1.562
118.6715 1.354
118.7018 1.615
118.7321 1.094
118.7624 1.510
118.7927 1.406
118.8229 1.250
118.8532 1.146
118.8835 1.302
118.9138 1.979
118.9441 1.823
118.9743 1.250
119.0046 1.667
119.0349 1.094
119.0652 1.302
119.0954 1.146
119.1257 1.510
119.1560 1.510
119.1863 1.823
119.2166 2.083
119.2468 1.458
119.2771 1.458
119.3074 2.031
119.3377 0.990
119.3680 1.406
119.3982 1.562
119.4285 1.146
119.4588 1.927
119.4891 1.667
119.5193 0.990
119.5496 1.354
119.5799 1.615
119.6102 2.240
119.6405 1.667
119.6707 1.927
119.7010 1.198
119.7313 0.990
119.7616 1.302
119.7919 1.094
119.8221 1.198
119.8524 1.302
119.8827 1.562
119.9130 1.875
119.9433 1.250
119.9735 1.354
120.0038 2.448
