'Id: "" Comment: "" Operator: "Lab Manager" Anode: "Cu" Scantype: "Locked Coupled" TimePerStep: "19.2" X: "9999" Y: "9999" Z: "9999" 
10.0015 3.750
10.0318 3.958
10.0620 4.167
10.0923 4.062
10.1226 2.917
10.1529 3.958
10.1832 4.167
10.2134 3.854
10.2437 3.802
10.2740 3.281
10.3043 3.385
10.3346 3.542
10.3648 4.323
10.3951 3.333
10.4254 3.906
10.4557 4.323
10.4859 3.698
10.5162 2.917
10.5465 3.594
10.5768 3.750
10.6071 3.177
10.6373 3.333
10.6676 4.792
10.6979 3.958
10.7282 4.062
10.7585 3.490
10.7887 3.333
10.8190 4.427
10.8493 4.010
10.8796 3.854
10.9098 4.844
10.9401 3.698
10.9704 3.490
11.0007 3.698
11.0310 3.073
11.0612 4.219
11.0915 3.854
11.1218 4.219
11.1521 3.177
11.1824 3.281
11.2126 4.323
11.2429 2.500
11.2732 2.604
11.3035 3.802
11.3337 4.531
11.3640 3.906
11.3943 3.385
11.4246 3.750
11.4549 3.802
11.4851 3.542
11.5154 3.802
11.5457 2.500
11.5760 4.010
11.6063 3.698
11.6365 2.969
11.6668 3.490
11.6971 4.062
11.7274 3.073
11.7577 3.385
11.7879 4.010
11.8182 3.958
11.8485 3.073
11.8788 3.229
11.9090 3.594
11.9393 4.062
11.9696 3.437
11.9999 3.437
12.0302 3.854
12.0604 3.281
12.0907 2.656
12.1210 3.802
12.1513 3.437
12.1816 3.958
12.2118 3.542
12.2421 3.021
12.2724 3.490
12.3027 3.646
12.3329 3.958
12.3632 3.229
12.3935 3.698
12.4238 4.479
12.4541 2.917
12.4843 3.281
12.5146 2.812
12.5449 3.229
12.5752 2.917
12.6055 2.760
12.6357 3.594
12.6660 4.010
12.6963 3.646
12.7266 3.698
12.7568 2.969
12.7871 4.062
12.8174 3.177
12.8477 3.698
12.8780 3.750
12.9082 3.073
12.9385 3.594
12.9688 3.854
12.9991 2.448
13.0294 4.219
13.0596 3.594
13.0899 3.594
13.1202 2.812
13.1505 3.333
13.1807 3.281
13.2110 4.375
13.2413 3.490
13.2716 2.552
13.3019 3.490
13.3321 4.062
13.3624 3.437
13.3927 2.917
13.4230 3.854
13.4533 3.906
13.4835 2.917
13.5138 3.958
13.5441 3.802
13.5744 3.281
13.6046 2.917
13.6349 4.062
13.6652 2.448
13.6955 3.750
13.7258 3.177
13.7560 3.437
13.7863 3.490
13.8166 4.010
13.8469 2.292
13.8772 3.073
13.9074 2.760
13.9377 3.646
13.9680 3.594
13.9983 3.073
14.0285 2.865
14.0588 3.854
14.0891 3.281
14.1194 3.125
14.1497 3.698
14.1799 3.385
14.2102 2.812
14.2405 3.073
14.2708 3.854
14.3011 3.698
14.3313 3.125
14.3616 3.177
14.3919 3.333
14.4222 3.542
14.4524 3.125
14.4827 3.542
14.5130 3.437
14.5433 2.865
14.5736 3.646
14.6038 3.437
14.6341 3.177
14.6644 3.229
14.6947 2.552
14.7250 3.177
14.7552 3.385
14.7855 2.917
14.8158 2.760
14.8461 2.396
14.8764 3.490
14.9066 4.062
14.9369 3.542
14.9672 3.021
14.9975 3.281
15.0277 3.229
15.0580 2.656
15.0883 3.177
15.1186 3.490
15.1489 3.854
15.1791 2.969
15.2094 3.490
15.2397 2.187
15.2700 3.073
15.3003 4.271
15.3305 3.698
15.3608 2.917
15.3911 3.542
15.4214 2.865
15.4516 3.229
15.4819 3.490
15.5122 2.656
15.5425 3.802
15.5728 3.698
15.6030 3.542
15.6333 3.385
15.6636 2.083
15.6939 3.073
15.7242 4.323
15.7544 3.125
15.7847 2.812
15.8150 3.073
15.8453 3.177
15.8755 2.656
15.9058 3.125
15.9361 2.708
15.9664 3.229
15.9967 3.437
16.0269 2.344
16.0572 2.865
16.0875 3.177
16.1178 2.448
16.1481 2.552
16.1783 2.396
16.2086 2.708
16.2389 3.542
16.2692 2.812
16.2994 2.240
16.3297 3.125
16.3600 2.552
16.3903 3.073
16.4206 2.865
16.4508 3.229
16.4811 2.500
16.5114 2.969
16.5417 2.969
16.5720 3.802
16.6022 2.708
16.6325 3.542
16.6628 3.281
16.6931 3.333
16.7233 2.708
16.7536 2.500
16.7839 4.010
16.8142 4.115
16.8445 2.969
16.8747 3.281
16.9050 3.437
16.9353 2.552
16.9656 2.135
16.9959 3.281
17.0261 2.812
17.0564 3.490
17.0867 2.396
17.1170 3.490
17.1472 3.073
17.1775 2.656
17.2078 2.865
17.2381 3.385
17.2684 4.479
17.2986 3.646
17.3289 3.385
17.3592 3.021
17.3895 2.708
17.4198 3.698
17.4500 2.604
17.4803 2.760
17.5106 3.490
17.5409 3.073
17.5712 3.333
17.6014 3.333
17.6317 3.646
17.6620 3.854
17.6923 2.708
17.7225 2.448
17.7528 2.760
17.7831 2.656
17.8134 3.021
17.8437 3.073
17.8739 3.021
17.9042 2.240
17.9345 2.865
17.9648 2.917
17.9951 3.906
18.0253 2.865
18.0556 2.552
18.0859 2.083
18.1162 3.229
18.1464 3.021
18.1767 2.708
18.2070 3.125
18.2373 3.490
18.2676 3.281
18.2978 3.177
18.3281 3.646
18.3584 3.073
18.3887 2.865
18.4190 3.646
18.4492 2.969
18.4795 3.281
18.5098 2.812
18.5401 3.021
18.5703 3.073
18.6006 2.812
18.6309 3.177
18.6612 3.385
18.6915 2.292
18.7217 2.969
18.7520 3.490
18.7823 2.344
18.8126 2.969
18.8429 3.906
18.8731 3.125
18.9034 2.969
18.9337 3.073
18.9640 3.073
18.9942 2.604
19.0245 3.021
19.0548 3.073
19.0851 3.385
19.1154 3.177
19.1456 2.292
19.1759 2.969
19.2062 3.125
19.2365 2.500
19.2668 3.958
19.2970 2.760
19.3273 2.656
19.3576 3.854
19.3879 2.500
19.4181 2.865
19.4484 3.125
19.4787 3.490
19.5090 2.917
19.5393 2.656
19.5695 2.760
19.5998 2.708
19.6301 1.823
19.6604 3.698
19.6907 2.760
19.7209 3.750
19.7512 2.552
19.7815 3.333
19.8118 2.917
19.8420 2.708
19.8723 2.708
19.9026 2.656
19.9329 3.229
19.9632 3.125
19.9934 3.281
20.0237 4.062
20.0540 2.448
20.0843 2.917
20.1146 3.177
20.1448 3.594
20.1751 2.656
20.2054 2.604
20.2357 2.552
20.2659 2.760
20.2962 2.552
20.3265 3.021
20.3568 2.812
20.3871 2.969
20.4173 2.812
20.4476 3.750
20.4779 2.865
20.5082 2.760
20.5385 2.656
20.5687 2.917
20.5990 3.177
20.6293 2.604
20.6596 3.177
20.6899 2.292
20.7201 2.812
20.7504 3.229
20.7807 2.500
20.8110 2.708
20.8412 2.760
20.8715 2.656
20.9018 2.187
20.9321 2.969
20.9624 2.708
20.9926 2.708
21.0229 3.177
21.0532 2.656
21.0835 2.865
21.1138 2.865
21.1440 3.073
21.1743 2.760
21.2046 3.490
21.2349 3.125
21.2651 3.281
21.2954 3.021
21.3257 3.281
21.3560 3.542
21.3863 3.177
21.4165 3.021
21.4468 2.917
21.4771 3.229
21.5074 3.021
21.5377 2.604
21.5679 2.760
21.5982 2.865
21.6285 2.656
21.6588 2.760
21.6890 2.500
21.7193 3.177
21.7496 3.125
21.7799 3.021
21.8102 3.490
21.8404 2.187
21.8707 2.812
21.9010 3.125
21.9313 2.552
21.9616 3.437
21.9918 3.229
22.0221 2.760
22.0524 2.552
22.0827 2.708
22.1129 2.812
22.1432 2.344
22.1735 2.552
22.2038 2.292
22.2341 3.073
22.2643 2.969
22.2946 2.969
22.3249 2.708
22.3552 2.708
22.3855 3.125
22.4157 2.656
22.4460 2.187
22.4763 3.125
22.5066 3.125
22.5368 3.021
22.5671 2.604
22.5974 2.865
22.6277 2.448
22.6580 2.604
22.6882 2.552
22.7185 2.604
22.7488 2.500
22.7791 3.073
22.8094 2.865
22.8396 2.396
22.8699 2.083
22.9002 2.448
22.9305 3.073
22.9607 3.177
22.9910 2.865
23.0213 2.708
23.0516 2.760
23.0819 2.500
23.1121 2.448
23.1424 2.969
23.1727 3.385
23.2030 3.177
23.2333 2.760
23.2635 2.760
23.2938 3.281
23.3241 3.021
23.3544 2.708
23.3846 2.917
23.4149 2.187
23.4452 2.448
23.4755 2.969
23.5058 2.344
23.5360 2.552
23.5663 2.344
23.5966 2.187
23.6269 3.750
23.6572 2.448
23.6874 2.344
23.7177 2.604
23.7480 2.812
23.7783 2.760
23.8086 2.969
23.8388 2.708
23.8691 2.344
23.8994 2.083
23.9297 3.021
23.9599 2.969
23.9902 2.187
24.0205 2.552
24.0508 3.073
24.0811 2.396
24.1113 2.969
24.1416 2.760
24.1719 2.708
24.2022 3.958
24.2325 1.927
24.2627 2.240
24.2930 2.187
24.3233 3.177
24.3536 2.344
24.3838 2.917
24.4141 3.177
24.4444 2.292
24.4747 2.865
24.5050 2.448
24.5352 2.969
24.5655 2.656
24.5958 3.490
24.6261 2.135
24.6564 3.437
24.6866 1.927
24.7169 3.177
24.7472 2.552
24.7775 2.708
24.8077 3.229
24.8380 3.073
24.8683 2.865
24.8986 3.177
24.9289 3.281
24.9591 3.333
24.9894 2.656
25.0197 2.500
25.0500 2.500
25.0803 2.031
25.1105 2.240
25.1408 2.604
25.1711 2.448
25.2014 2.760
25.2316 3.125
25.2619 2.500
25.2922 3.177
25.3225 3.073
25.3528 2.812
25.3830 2.500
25.4133 2.917
25.4436 2.500
25.4739 3.229
25.5042 2.656
25.5344 3.073
25.5647 2.031
25.5950 2.708
25.6253 2.656
25.6555 3.021
25.6858 3.385
25.7161 2.708
25.7464 2.760
25.7767 3.281
25.8069 2.031
25.8372 2.812
25.8675 2.240
25.8978 3.854
25.9281 2.240
25.9583 2.187
25.9886 3.177
26.0189 3.125
26.0492 3.177
26.0794 3.958
26.1097 3.750
26.1400 2.031
26.1703 3.021
26.2006 2.552
26.2308 3.542
26.2611 2.969
26.2914 2.604
26.3217 3.333
26.3520 2.865
26.3822 2.083
26.4125 3.125
26.4428 2.708
26.4731 3.021
26.5034 3.646
26.5336 3.177
26.5639 3.125
26.5942 2.760
26.6245 2.812
26.6547 3.229
26.6850 2.865
26.7153 2.448
26.7456 2.448
26.7759 3.490
26.8061 3.906
26.8364 2.917
26.8667 3.229
26.8970 2.552
26.9273 2.969
26.9575 2.917
26.9878 2.552
27.0181 2.812
27.0484 2.240
27.0786 2.917
27.1089 3.490
27.1392 3.333
27.1695 3.333
27.1998 2.708
27.2300 3.750
27.2603 2.917
27.2906 4.115
27.3209 3.750
27.3512 3.021
27.3814 3.437
27.4117 2.969
27.4420 3.125
27.4723 3.490
27.5025 3.125
27.5328 3.594
27.5631 2.656
27.5934 3.646
27.6237 3.646
27.6539 3.333
27.6842 2.708
27.7145 4.271
27.7448 3.698
27.7751 2.604
27.8053 3.385
27.8356 3.385
27.8659 3.073
27.8962 3.229
27.9264 3.958
27.9567 3.542
27.9870 2.708
28.0173 3.333
28.0476 2.760
28.0778 2.760
28.1081 4.062
28.1384 2.344
28.1687 2.969
28.1990 3.177
28.2292 3.854
28.2595 3.698
28.2898 3.385
28.3201 2.917
28.3503 3.490
28.3806 3.594
28.4109 2.812
28.4412 3.594
28.4715 4.531
28.5017 4.010
28.5320 3.750
28.5623 3.229
28.5926 3.073
28.6229 3.490
28.6531 3.281
28.6834 3.802
28.7137 3.385
28.7440 3.698
28.7742 3.750
28.8045 2.656
28.8348 2.552
28.8651 4.219
28.8954 3.490
28.9256 3.437
28.9559 3.125
28.9862 3.958
29.0165 3.125
29.0468 3.385
29.0770 4.062
29.1073 3.333
29.1376 3.854
29.1679 3.646
29.1981 4.479
29.2284 4.479
29.2587 3.906
29.2890 3.958
29.3193 4.167
29.3495 4.896
29.3798 3.333
29.4101 3.750
29.4404 3.750
29.4707 3.698
29.5009 4.010
29.5312 3.854
29.5615 3.854
29.5918 4.062
29.6221 4.323
29.6523 3.698
29.6826 4.583
29.7129 4.427
29.7432 4.167
29.7734 4.479
29.8037 4.792
29.8340 4.479
29.8643 4.062
29.8946 4.271
29.9248 4.271
29.9551 4.479
29.9854 4.271
30.0157 4.635
30.0460 6.458
30.0762 4.531
30.1065 4.687
30.1368 4.531
30.1671 3.854
30.1973 4.427
30.2276 4.115
30.2579 4.583
30.2882 4.740
30.3185 5.469
30.3487 5.729
30.3790 5.365
30.4093 5.625
30.4396 5.990
30.4699 5.573
30.5001 5.677
30.5304 7.344
30.5607 5.781
30.5910 6.562
30.6212 6.406
30.6515 4.948
30.6818 6.823
30.7121 6.302
30.7424 6.250
30.7726 7.344
30.8029 7.969
30.8332 7.240
30.8635 8.750
30.8938 9.323
30.9240 6.979
30.9543 9.896
30.9846 10.104
31.0149 10.000
31.0451 9.948
31.0754 12.708
31.1057 11.875
31.1360 12.344
31.1663 11.615
31.1965 15.260
31.2268 15.052
31.2571 18.594
31.2874 18.281
31.3177 23.021
31.3479 21.615
31.3782 26.042
31.4085 27.396
31.4388 32.812
31.4690 33.906
31.4993 41.406
31.5296 42.656
31.5599 48.437
31.5902 49.375
31.6204 52.448
31.6507 51.406
31.6810 55.104
31.7113 50.000
31.7416 48.750
31.7718 46.042
31.8021 41.615
31.8324 37.448
31.8627 32.604
31.8929 29.792
31.9232 27.187
31.9535 24.115
31.9838 19.531
32.0141 20.625
32.0443 17.344
32.0746 15.729
32.1049 13.542
32.1352 15.104
32.1655 14.167
32.1957 10.469
32.2260 10.260
32.2563 9.375
32.2866 9.479
32.3169 9.115
32.3471 9.167
32.3774 7.969
32.4077 8.594
32.4380 8.385
32.4682 7.917
32.4985 6.979
32.5288 6.667
32.5591 7.865
32.5894 6.615
32.6196 6.198
32.6499 7.969
32.6802 6.615
32.7105 6.250
32.7408 6.615
32.7710 6.250
32.8013 7.708
32.8316 6.875
32.8619 6.302
32.8921 5.417
32.9224 6.771
32.9527 6.510
32.9830 6.146
33.0133 5.833
33.0435 5.521
33.0738 7.135
33.1041 6.562
33.1344 5.000
33.1647 6.198
33.1949 6.458
33.2252 5.885
33.2555 6.510
33.2858 6.771
33.3160 5.885
33.3463 6.354
33.3766 6.250
33.4069 5.625
33.4372 6.771
33.4674 6.823
33.4977 6.354
33.5280 6.198
33.5583 6.667
33.5886 6.302
33.6188 6.771
33.6491 6.667
33.6794 6.458
33.7097 8.125
33.7399 7.604
33.7702 8.021
33.8005 8.542
33.8308 10.208
33.8611 10.677
33.8913 9.948
33.9216 10.937
33.9519 14.010
33.9822 13.750
34.0125 13.906
34.0427 15.000
34.0730 18.281
34.1033 22.656
34.1336 24.010
34.1638 29.583
34.1941 33.750
34.2244 45.937
34.2547 54.844
34.2850 61.198
34.3152 66.927
34.3455 63.437
34.3758 56.354
34.4061 51.094
34.4364 41.302
34.4666 35.573
34.4969 29.375
34.5272 22.604
34.5575 19.062
34.5877 16.042
34.6180 16.562
34.6483 13.646
34.6786 13.906
34.7089 13.490
34.7391 10.417
34.7694 11.250
34.7997 8.646
34.8300 9.687
34.8603 9.219
34.8905 9.687
34.9208 10.260
34.9511 10.208
34.9814 9.687
35.0116 11.042
35.0419 8.490
35.0722 10.208
35.1025 10.625
35.1328 9.740
35.1630 7.552
35.1933 9.531
35.2236 10.573
35.2539 9.219
35.2842 10.208
35.3144 10.365
35.3447 10.417
35.3750 11.354
35.4053 11.458
35.4356 12.292
35.4658 12.187
35.4961 14.583
35.5264 13.646
35.5567 14.375
35.5869 17.448
35.6172 17.865
35.6475 17.708
35.6778 18.021
35.7081 19.531
35.7383 22.240
35.7686 25.104
35.7989 27.604
35.8292 29.062
35.8595 33.385
35.8897 38.177
35.9200 42.240
35.9503 48.333
35.9806 54.792
36.0108 59.271
36.0411 67.812
36.0714 68.906
36.1017 75.104
36.1320 73.594
36.1622 77.969
36.1925 76.875
36.2228 77.240
36.2531 68.594
36.2834 65.365
36.3136 56.719
36.3439 51.927
36.3742 43.542
36.4045 39.167
36.4347 36.562
36.4650 31.198
36.4953 27.865
36.5256 24.062
36.5559 22.604
36.5861 20.052
36.6164 17.708
36.6467 15.469
36.6770 16.615
36.7073 14.219
36.7375 12.344
36.7678 12.656
36.7981 11.250
36.8284 11.094
36.8586 10.573
36.8889 9.687
36.9192 8.698
36.9495 8.021
36.9798 10.104
37.0100 6.458
37.0403 7.656
37.0706 6.979
37.1009 7.552
37.1312 7.708
37.1614 8.594
37.1917 5.625
37.2220 6.510
37.2523 6.510
37.2825 6.250
37.3128 6.094
37.3431 5.833
37.3734 5.885
37.4037 5.990
37.4339 6.719
37.4642 4.896
37.4945 4.375
37.5248 4.740
37.5551 4.167
37.5853 4.583
37.6156 4.323
37.6459 4.531
37.6762 4.844
37.7064 4.583
37.7367 5.469
37.7670 4.687
37.7973 4.583
37.8276 4.323
37.8578 4.010
37.8881 4.479
37.9184 4.219
37.9487 4.427
37.9790 3.594
38.0092 4.531
38.0395 4.115
38.0698 3.437
38.1001 3.490
38.1304 3.802
38.1606 3.490
38.1909 4.323
38.2212 3.958
38.2515 3.802
38.2817 2.865
38.3120 3.333
38.3423 3.385
38.3726 3.542
38.4029 3.802
38.4331 4.115
38.4634 3.437
38.4937 3.490
38.5240 3.229
38.5543 3.594
38.5845 3.229
38.6148 3.073
38.6451 3.177
38.6754 3.385
38.7056 2.865
38.7359 3.281
38.7662 3.073
38.7965 3.021
38.8268 3.125
38.8570 2.865
38.8873 2.292
38.9176 3.021
38.9479 3.073
38.9782 2.969
39.0084 3.698
39.0387 2.812
39.0690 2.917
39.0993 2.812
39.1295 3.385
39.1598 3.229
39.1901 3.125
39.2204 2.240
39.2507 2.604
39.2809 2.760
39.3112 3.073
39.3415 3.490
39.3718 2.552
39.4021 2.760
39.4323 2.917
39.4626 2.760
39.4929 2.969
39.5232 3.177
39.5534 2.344
39.5837 3.177
39.6140 2.448
39.6443 2.969
39.6746 2.135
39.7048 2.448
39.7351 2.760
39.7654 2.812
39.7957 2.344
39.8260 1.927
39.8562 2.500
39.8865 2.917
39.9168 2.083
39.9471 1.927
39.9773 3.542
40.0076 2.760
40.0379 2.344
40.0682 2.500
40.0985 2.656
40.1287 2.500
40.1590 2.552
40.1893 3.125
40.2196 2.292
40.2499 2.500
40.2801 2.604
40.3104 2.031
40.3407 2.240
40.3710 2.292
40.4012 2.187
40.4315 1.875
40.4618 2.344
40.4921 2.812
40.5224 2.031
40.5526 2.500
40.5829 2.292
40.6132 1.875
40.6435 3.021
40.6738 2.865
40.7040 2.865
40.7343 1.562
40.7646 2.760
40.7949 2.760
40.8251 2.396
40.8554 2.760
40.8857 2.031
40.9160 3.021
40.9463 2.396
40.9765 2.396
41.0068 2.865
41.0371 2.969
41.0674 2.656
41.0977 2.552
41.1279 3.437
41.1582 2.708
41.1885 2.344
41.2188 2.448
41.2491 2.656
41.2793 1.927
41.3096 2.656
41.3399 2.083
41.3702 2.031
41.4004 2.187
41.4307 2.865
41.4610 1.875
41.4913 2.448
41.5216 2.500
41.5518 2.344
41.5821 2.604
41.6124 2.396
41.6427 1.927
41.6730 2.083
41.7032 2.344
41.7335 2.083
41.7638 2.708
41.7941 2.812
41.8243 2.604
41.8546 2.448
41.8849 2.760
41.9152 1.927
41.9455 3.333
41.9757 2.292
42.0060 2.292
42.0363 2.917
42.0666 1.719
42.0969 2.031
42.1271 2.292
42.1574 2.656
42.1877 2.812
42.2180 2.656
42.2482 2.500
42.2785 1.823
42.3088 2.187
42.3391 2.292
42.3694 2.396
42.3996 2.448
42.4299 2.448
42.4602 2.656
42.4905 2.083
42.5208 2.760
42.5510 2.865
42.5813 2.604
42.6116 2.500
42.6419 2.031
42.6721 2.708
42.7024 2.760
42.7327 2.448
42.7630 2.656
42.7933 1.875
42.8235 2.448
42.8538 2.604
42.8841 2.812
42.9144 2.969
42.9447 2.760
42.9749 2.083
43.0052 2.292
43.0355 2.187
43.0658 2.187
43.0960 2.135
43.1263 1.927
43.1566 1.979
43.1869 1.719
43.2172 1.875
43.2474 2.500
43.2777 1.979
43.3080 2.083
43.3383 2.187
43.3686 2.604
43.3988 2.656
43.4291 2.240
43.4594 2.604
43.4897 2.448
43.5199 2.812
43.5502 2.708
43.5805 2.656
43.6108 2.240
43.6411 2.396
43.6713 1.979
43.7016 2.344
43.7319 1.979
43.7622 2.240
43.7925 2.656
43.8227 2.187
43.8530 2.552
43.8833 1.615
43.9136 2.344
43.9439 1.510
43.9741 2.187
44.0044 2.552
44.0347 2.031
44.0650 2.917
44.0952 2.031
44.1255 2.083
44.1558 2.969
44.1861 2.240
44.2164 2.500
44.2466 1.875
44.2769 2.604
44.3072 2.448
44.3375 2.969
44.3678 2.396
44.3980 2.448
44.4283 2.083
44.4586 1.823
44.4889 2.292
44.5191 3.125
44.5494 2.344
44.5797 2.760
44.6100 2.708
44.6403 1.927
44.6705 2.135
44.7008 2.187
44.7311 2.604
44.7614 2.656
44.7917 2.396
44.8219 1.771
44.8522 1.771
44.8825 2.344
44.9128 2.812
44.9430 2.917
44.9733 2.500
45.0036 2.240
45.0339 2.396
45.0642 2.031
45.0944 2.604
45.1247 2.396
45.1550 1.927
45.1853 2.812
45.2156 1.667
45.2458 2.135
45.2761 2.031
45.3064 1.875
45.3367 1.823
45.3669 1.823
45.3972 2.083
45.4275 2.969
45.4578 1.979
45.4881 2.500
45.5183 3.333
45.5486 2.917
45.5789 2.969
45.6092 2.708
45.6395 2.500
45.6697 2.396
45.7000 2.031
45.7303 3.281
45.7606 2.552
45.7908 2.135
45.8211 2.344
45.8514 3.177
45.8817 2.031
45.9120 3.021
45.9422 2.708
45.9725 2.656
46.0028 2.604
46.0331 2.448
46.0634 2.865
46.0936 2.760
46.1239 3.229
46.1542 2.812
46.1845 2.292
46.2147 2.552
46.2450 3.542
46.2753 2.604
46.3056 3.073
46.3359 2.448
46.3661 2.865
46.3964 4.115
46.4267 2.552
46.4570 2.812
46.4873 3.854
46.5175 3.229
46.5478 2.604
46.5781 3.490
46.6084 3.542
46.6386 3.698
46.6689 4.271
46.6992 3.698
46.7295 4.531
46.7598 4.271
46.7900 3.542
46.8203 4.167
46.8506 4.271
46.8809 5.469
46.9112 4.635
46.9414 5.208
46.9717 5.521
47.0020 6.250
47.0323 6.198
47.0626 7.396
47.0928 7.865
47.1231 7.604
47.1534 9.219
47.1837 10.000
47.2139 10.417
47.2442 11.823
47.2745 11.146
47.3048 13.229
47.3351 15.833
47.3653 16.042
47.3956 18.177
47.4259 16.146
47.4562 17.708
47.4865 17.760
47.5167 15.000
47.5470 16.198
47.5773 15.104
47.6076 11.719
47.6378 11.667
47.6681 11.406
47.6984 10.104
47.7287 8.958
47.7590 8.490
47.7892 8.333
47.8195 5.365
47.8498 5.990
47.8801 5.937
47.9104 5.156
47.9406 5.677
47.9709 4.583
48.0012 4.844
48.0315 4.219
48.0617 4.010
48.0920 3.958
48.1223 4.010
48.1526 4.583
48.1829 3.906
48.2131 3.490
48.2434 3.542
48.2737 3.073
48.3040 3.802
48.3343 3.073
48.3645 3.437
48.3948 3.229
48.4251 2.396
48.4554 3.281
48.4856 2.656
48.5159 2.187
48.5462 3.333
48.5765 3.229
48.6068 3.385
48.6370 2.552
48.6673 3.281
48.6976 1.927
48.7279 3.177
48.7582 2.500
48.7884 2.760
48.8187 2.604
48.8490 2.604
48.8793 2.552
48.9095 2.135
48.9398 3.073
48.9701 1.979
49.0004 2.187
49.0307 2.604
49.0609 1.875
49.0912 2.865
49.1215 2.240
49.1518 2.240
49.1821 1.979
49.2123 2.083
49.2426 1.875
49.2729 2.812
49.3032 2.396
49.3334 2.292
49.3637 1.927
49.3940 2.083
49.4243 2.240
49.4546 2.552
49.4848 2.344
49.5151 2.604
49.5454 2.292
49.5757 1.927
49.6060 2.135
49.6362 2.656
49.6665 2.708
49.6968 2.552
49.7271 1.771
49.7574 2.240
49.7876 1.823
49.8179 2.083
49.8482 1.875
49.8785 2.031
49.9087 2.292
49.9390 2.448
49.9693 2.292
49.9996 2.031
50.0299 1.719
50.0601 2.240
50.0904 1.979
50.1207 2.344
50.1510 2.031
50.1813 1.823
50.2115 2.448
50.2418 2.083
50.2721 1.927
50.3024 2.448
50.3326 2.604
50.3629 2.083
50.3932 2.344
50.4235 2.240
50.4538 2.135
50.4840 1.979
50.5143 1.354
50.5446 2.917
50.5749 2.240
50.6052 2.135
50.6354 2.396
50.6657 2.344
50.6960 2.448
50.7263 1.979
50.7565 2.292
50.7868 2.031
50.8171 1.927
50.8474 2.292
50.8777 2.865
50.9079 2.135
50.9382 2.031
50.9685 2.500
50.9988 1.771
51.0291 2.083
51.0593 2.448
51.0896 1.823
51.1199 1.615
51.1502 1.615
51.1804 2.396
51.2107 1.875
51.2410 2.187
51.2713 1.615
51.3016 2.031
51.3318 2.187
51.3621 2.240
51.3924 2.135
51.4227 2.031
51.4530 2.344
51.4832 2.396
51.5135 2.656
51.5438 1.615
51.5741 2.708
51.6043 1.979
51.6346 2.292
51.6649 1.875
51.6952 1.875
51.7255 2.031
51.7557 1.667
51.7860 1.719
51.8163 2.135
51.8466 2.396
51.8769 2.500
51.9071 2.344
51.9374 1.979
51.9677 2.344
51.9980 2.083
52.0282 2.292
52.0585 2.500
52.0888 1.927
52.1191 2.396
52.1494 1.771
52.1796 2.083
52.2099 2.500
52.2402 2.396
52.2705 1.719
52.3008 1.979
52.3310 1.771
52.3613 2.552
52.3916 1.875
52.4219 2.083
52.4521 2.292
52.4824 1.771
52.5127 2.031
52.5430 2.240
52.5733 2.448
52.6035 1.875
52.6338 2.812
52.6641 2.604
52.6944 2.135
52.7247 2.292
52.7549 1.979
52.7852 2.083
52.8155 3.385
52.8458 2.604
52.8761 1.562
52.9063 2.240
52.9366 1.667
52.9669 2.500
52.9972 2.031
53.0274 2.187
53.0577 2.292
53.0880 1.615
53.1183 2.240
53.1486 2.812
53.1788 2.292
53.2091 2.656
53.2394 1.510
53.2697 2.135
53.3000 2.604
53.3302 1.615
53.3605 2.292
53.3908 2.552
53.4211 2.031
53.4513 1.875
53.4816 1.823
53.5119 2.292
53.5422 1.927
53.5725 2.031
53.6027 2.083
53.6330 3.229
53.6633 1.823
53.6936 2.187
53.7239 1.823
53.7541 2.812
53.7844 1.823
53.8147 2.917
53.8450 2.917
53.8752 2.552
53.9055 2.708
53.9358 2.552
53.9661 1.719
53.9964 2.344
54.0266 2.292
54.0569 1.667
54.0872 1.823
54.1175 2.500
54.1478 1.875
54.1780 2.083
54.2083 1.667
54.2386 2.187
54.2689 2.604
54.2991 2.500
54.3294 2.552
54.3597 2.917
54.3900 2.344
54.4203 2.969
54.4505 3.125
54.4808 2.448
54.5111 2.083
54.5414 1.979
54.5717 2.708
54.6019 2.865
54.6322 2.917
54.6625 2.865
54.6928 3.177
54.7230 2.708
54.7533 2.760
54.7836 3.437
54.8139 3.073
54.8442 2.396
54.8744 2.396
54.9047 2.760
54.9350 2.500
54.9653 2.604
54.9956 3.073
55.0258 2.812
55.0561 3.385
55.0864 3.490
55.1167 3.125
55.1469 3.021
55.1772 2.604
55.2075 3.177
55.2378 3.854
55.2681 2.448
55.2983 3.333
55.3286 3.333
55.3589 3.333
55.3892 3.333
55.4195 2.865
55.4497 3.333
55.4800 3.333
55.5103 3.281
55.5406 3.229
55.5709 3.750
55.6011 4.375
55.6314 4.167
55.6617 5.156
55.6920 4.635
55.7222 5.104
55.7525 5.104
55.7828 4.844
55.8131 4.948
55.8434 5.052
55.8736 5.573
55.9039 6.510
55.9342 6.406
55.9645 5.781
55.9948 6.615
56.0250 7.448
56.0553 7.656
56.0856 7.083
56.1159 9.740
56.1461 9.792
56.1764 10.417
56.2067 11.719
56.2370 12.135
56.2673 14.792
56.2975 16.146
56.3278 16.354
56.3581 18.385
56.3884 18.490
56.4187 20.677
56.4489 20.417
56.4792 21.875
56.5095 21.667
56.5398 20.885
56.5700 18.906
56.6003 19.479
56.6306 19.271
56.6609 18.906
56.6912 15.990
56.7214 14.167
56.7517 12.396
56.7820 13.021
56.8123 11.250
56.8426 10.833
56.8728 10.156
56.9031 8.281
56.9334 8.490
56.9637 7.969
56.9939 7.083
57.0242 6.406
57.0545 6.094
57.0848 7.135
57.1151 5.312
57.1453 5.365
57.1756 4.687
57.2059 5.625
57.2362 4.479
57.2665 4.323
57.2967 3.333
57.3270 3.958
57.3573 3.229
57.3876 3.854
57.4178 3.281
57.4481 3.021
57.4784 3.021
57.5087 3.490
57.5390 3.229
57.5692 3.177
57.5995 3.698
57.6298 2.865
57.6601 3.750
57.6904 2.552
57.7206 2.552
57.7509 3.177
57.7812 2.240
57.8115 3.073
57.8417 3.594
57.8720 2.917
57.9023 2.865
57.9326 2.292
57.9629 2.604
57.9931 2.812
58.0234 3.281
58.0537 3.021
58.0840 2.187
58.1143 2.604
58.1445 2.396
58.1748 2.500
58.2051 2.760
58.2354 3.333
58.2656 2.969
58.2959 2.135
58.3262 2.031
58.3565 3.021
58.3868 2.604
58.4170 2.187
58.4473 2.448
58.4776 2.292
58.5079 2.604
58.5382 2.552
58.5684 2.552
58.5987 2.292
58.6290 2.448
58.6593 2.396
58.6896 2.448
58.7198 2.240
58.7501 2.917
58.7804 1.823
58.8107 2.448
58.8409 2.292
58.8712 2.500
58.9015 2.865
58.9318 2.187
58.9621 2.240
58.9923 1.719
59.0226 3.125
59.0529 2.917
59.0832 2.656
59.1135 2.760
59.1437 2.656
59.1740 1.823
59.2043 2.344
59.2346 1.979
59.2648 2.135
59.2951 3.385
59.3254 2.656
59.3557 2.708
59.3860 2.708
59.4162 2.604
59.4465 2.135
59.4768 2.812
59.5071 2.760
59.5374 2.812
59.5676 1.875
59.5979 2.760
59.6282 2.135
59.6585 3.021
59.6887 2.656
59.7190 2.708
59.7493 3.333
59.7796 2.448
59.8099 2.396
59.8401 2.240
59.8704 2.396
59.9007 2.292
59.9310 2.656
59.9613 2.604
59.9915 2.344
60.0218 2.552
60.0521 2.708
60.0824 2.396
60.1126 2.083
60.1429 2.604
60.1732 2.708
60.2035 2.760
60.2338 3.125
60.2640 2.396
60.2943 2.812
60.3246 2.448
60.3549 2.448
60.3852 2.292
60.4154 2.031
60.4457 2.604
60.4760 2.500
60.5063 2.344
60.5365 2.292
60.5668 1.927
60.5971 2.135
60.6274 2.552
60.6577 2.031
60.6879 2.135
60.7182 2.240
60.7485 2.187
60.7788 2.708
60.8091 2.240
60.8393 2.187
60.8696 2.708
60.8999 2.448
60.9302 2.500
60.9604 3.177
60.9907 2.552
61.0210 2.656
61.0513 2.083
61.0816 2.656
61.1118 2.708
61.1421 3.229
61.1724 2.656
61.2027 2.812
61.2330 1.927
61.2632 2.969
61.2935 2.760
61.3238 2.656
61.3541 2.448
61.3844 3.229
61.4146 3.125
61.4449 2.708
61.4752 2.500
61.5055 3.333
61.5357 3.073
61.5660 2.604
61.5963 2.656
61.6266 2.812
61.6569 3.177
61.6871 2.760
61.7174 3.490
61.7477 2.865
61.7780 2.917
61.8083 4.062
61.8385 3.802
61.8688 3.802
61.8991 2.969
61.9294 4.219
61.9596 3.750
61.9899 4.635
62.0202 4.115
62.0505 3.594
62.0808 4.479
62.1110 4.896
62.1413 5.260
62.1716 5.833
62.2019 5.208
62.2322 5.260
62.2624 5.052
62.2927 5.833
62.3230 7.187
62.3533 8.542
62.3835 7.865
62.4138 7.187
62.4441 9.479
62.4744 10.625
62.5047 10.104
62.5349 12.240
62.5652 13.281
62.5955 14.792
62.6258 13.073
62.6561 16.615
62.6863 15.833
62.7166 17.448
62.7469 18.698
62.7772 17.969
62.8074 18.698
62.8377 17.969
62.8680 16.771
62.8983 16.510
62.9286 15.833
62.9588 12.812
62.9891 13.594
63.0194 11.094
63.0497 11.354
63.0800 10.625
63.1102 9.687
63.1405 7.292
63.1708 7.240
63.2011 7.240
63.2313 6.771
63.2616 7.083
63.2919 6.250
63.3222 4.844
63.3525 5.052
63.3827 5.312
63.4130 4.896
63.4433 4.375
63.4736 4.219
63.5039 4.427
63.5341 3.646
63.5644 3.646
63.5947 3.490
63.6250 3.750
63.6552 3.229
63.6855 3.281
63.7158 3.073
63.7461 2.656
63.7764 3.490
63.8066 2.760
63.8369 3.542
63.8672 3.073
63.8975 3.021
63.9278 3.385
63.9580 2.604
63.9883 3.073
64.0186 3.437
64.0489 2.344
64.0791 2.969
64.1094 3.177
64.1397 3.073
64.1700 2.760
64.2003 2.344
64.2305 2.760
64.2608 2.917
64.2911 2.917
64.3214 3.177
64.3517 2.812
64.3819 2.552
64.4122 2.917
64.4425 2.552
64.4728 2.292
64.5031 2.240
64.5333 2.187
64.5636 3.021
64.5939 2.344
64.6242 2.969
64.6544 3.073
64.6847 3.021
64.7150 3.125
64.7453 3.021
64.7756 2.917
64.8058 3.021
64.8361 3.594
64.8664 2.552
64.8967 2.917
64.9270 3.229
64.9572 3.125
64.9875 2.344
65.0178 2.396
65.0481 2.292
65.0783 2.969
65.1086 2.812
65.1389 3.385
65.1692 3.021
65.1995 2.187
65.2297 2.917
65.2600 2.448
65.2903 3.542
65.3206 2.865
65.3509 2.969
65.3811 2.344
65.4114 2.396
65.4417 2.396
65.4720 2.500
65.5022 3.333
65.5325 3.437
65.5628 3.333
65.5931 2.500
65.6234 2.396
65.6536 3.229
65.6839 2.812
65.7142 3.073
65.7445 3.177
65.7748 4.219
65.8050 2.969
65.8353 3.802
65.8656 4.010
65.8959 3.125
65.9261 3.385
65.9564 3.021
65.9867 4.115
66.0170 3.750
66.0473 3.750
66.0775 3.490
66.1078 4.375
66.1381 3.958
66.1684 5.208
66.1987 4.219
66.2289 4.479
66.2592 4.010
66.2895 4.375
66.3198 5.417
66.3500 5.104
66.3803 4.948
66.4106 4.792
66.4409 4.323
66.4712 5.104
66.5014 5.104
66.5317 4.271
66.5620 4.375
66.5923 3.906
66.6226 3.229
66.6528 4.427
66.6831 4.375
66.7134 3.542
66.7437 3.854
66.7739 4.010
66.8042 4.479
66.8345 3.698
66.8648 4.010
66.8951 4.427
66.9253 4.323
66.9556 3.958
66.9859 4.219
67.0162 4.062
67.0465 3.698
67.0767 4.062
67.1070 4.010
67.1373 4.115
67.1676 4.531
67.1978 4.323
67.2281 4.792
67.2584 4.427
67.2887 4.583
67.3190 4.792
67.3492 5.469
67.3795 5.625
67.4098 7.344
67.4401 7.135
67.4704 7.135
67.5006 7.500
67.5309 8.542
67.5612 7.552
67.5915 7.240
67.6218 9.896
67.6520 10.573
67.6823 10.937
67.7126 12.083
67.7429 12.292
67.7731 14.219
67.8034 13.281
67.8337 13.646
67.8640 13.906
67.8943 12.604
67.9245 12.187
67.9548 13.437
67.9851 12.812
68.0154 11.354
68.0457 12.865
68.0759 11.510
68.1062 10.521
68.1365 9.687
68.1668 9.635
68.1970 8.490
68.2273 7.031
68.2576 7.083
68.2879 7.604
68.3182 6.302
68.3484 6.406
68.3787 6.667
68.4090 6.823
68.4393 6.198
68.4696 6.510
68.4998 7.135
68.5301 5.417
68.5604 6.146
68.5907 5.885
68.6209 6.510
68.6512 6.406
68.6815 6.667
68.7118 6.042
68.7421 7.292
68.7723 7.396
68.8026 6.198
68.8329 6.042
68.8632 7.083
68.8935 7.031
68.9237 7.500
68.9540 7.708
68.9843 7.552
69.0146 7.448
69.0448 7.708
69.0751 7.865
69.1054 7.396
69.1357 6.979
69.1660 6.667
69.1962 6.458
69.2265 6.719
69.2568 5.312
69.2871 5.417
69.3174 5.052
69.3476 4.844
69.3779 4.896
69.4082 4.167
69.4385 4.948
69.4687 3.437
69.4990 3.854
69.5293 3.646
69.5596 3.021
69.5899 4.167
69.6201 3.750
69.6504 3.750
69.6807 2.917
69.7110 2.865
69.7413 2.865
69.7715 3.333
69.8018 2.812
69.8321 2.292
69.8624 2.812
69.8926 2.865
69.9229 2.292
69.9532 2.500
69.9835 2.187
70.0138 2.708
70.0440 2.448
70.0743 3.385
70.1046 2.812
70.1349 2.344
70.1652 2.187
70.1954 2.812
70.2257 2.292
70.2560 2.292
70.2863 2.135
70.3166 2.500
70.3468 2.604
70.3771 1.771
70.4074 2.344
70.4377 2.292
70.4679 2.344
70.4982 1.979
70.5285 2.083
70.5588 2.083
70.5891 2.396
70.6193 2.344
70.6496 2.292
70.6799 1.719
70.7102 1.875
70.7405 2.396
70.7707 1.875
70.8010 1.562
70.8313 2.031
70.8616 1.719
70.8918 2.031
70.9221 1.771
70.9524 1.562
70.9827 2.083
71.0130 1.823
71.0432 1.771
71.0735 2.604
71.1038 1.458
71.1341 2.031
71.1644 1.667
71.1946 2.240
71.2249 1.927
71.2552 2.083
71.2855 1.771
71.3157 1.771
71.3460 1.667
71.3763 1.458
71.4066 2.187
71.4369 2.187
71.4671 1.979
71.4974 2.135
71.5277 1.406
71.5580 1.615
71.5883 1.823
71.6185 1.771
71.6488 2.344
71.6791 1.979
71.7094 1.615
71.7396 1.354
71.7699 2.292
71.8002 1.979
71.8305 1.562
71.8608 1.458
71.8910 1.979
71.9213 2.240
71.9516 2.083
71.9819 1.562
72.0122 2.187
72.0424 2.240
72.0727 2.344
72.1030 1.771
72.1333 2.396
72.1635 2.917
72.1938 2.031
72.2241 1.979
72.2544 2.760
72.2847 2.708
72.3149 2.396
72.3452 2.812
72.3755 2.812
72.4058 2.604
72.4361 3.021
72.4663 1.979
72.4966 2.969
72.5269 2.656
72.5572 2.344
72.5874 2.396
72.6177 2.396
72.6480 2.865
72.6783 2.344
72.7086 3.177
72.7388 2.552
72.7691 2.448
72.7994 2.135
72.8297 2.083
72.8600 2.240
72.8902 2.031
72.9205 1.667
72.9508 2.083
72.9811 2.604
73.0113 1.667
73.0416 1.979
73.0719 2.135
73.1022 2.187
73.1325 1.719
73.1627 1.875
73.1930 1.667
73.2233 1.823
73.2536 2.083
73.2839 1.510
73.3141 1.562
73.3444 1.406
73.3747 2.083
73.4050 1.719
73.4353 1.510
73.4655 1.667
73.4958 1.823
73.5261 1.562
73.5564 1.354
73.5866 1.250
73.6169 1.562
73.6472 1.302
73.6775 1.719
73.7078 1.927
73.7380 1.719
73.7683 1.771
73.7986 1.354
73.8289 1.823
73.8592 1.719
73.8894 1.771
73.9197 1.719
73.9500 1.979
73.9803 1.458
74.0105 1.875
74.0408 1.615
74.0711 1.875
74.1014 1.406
74.1317 1.510
74.1619 1.562
74.1922 1.562
74.2225 1.823
74.2528 1.458
74.2831 1.979
74.3133 1.562
74.3436 1.406
74.3739 1.771
74.4042 1.302
74.4344 1.667
74.4647 1.771
74.4950 1.250
74.5253 1.667
74.5556 1.719
74.5858 1.719
74.6161 0.937
74.6464 1.302
74.6767 1.302
74.7070 1.406
74.7372 0.885
74.7675 1.719
74.7978 2.135
74.8281 1.719
74.8583 1.875
74.8886 1.250
74.9189 1.823
74.9492 1.562
74.9795 1.771
75.0097 1.302
75.0400 1.250
75.0703 1.250
75.1006 1.562
75.1309 1.719
75.1611 1.719
75.1914 1.562
75.2217 1.875
75.2520 1.458
75.2822 1.771
75.3125 1.823
75.3428 1.198
75.3731 2.083
75.4034 1.875
75.4336 1.875
75.4639 1.875
75.4942 2.031
75.5245 1.771
75.5548 1.615
75.5850 1.719
75.6153 1.458
75.6456 1.719
75.6759 1.458
75.7061 1.510
75.7364 1.667
75.7667 1.719
75.7970 1.198
75.8273 2.135
75.8575 2.031
75.8878 1.667
75.9181 1.250
75.9484 1.406
75.9787 1.719
76.0089 1.875
76.0392 1.719
76.0695 1.667
76.0998 1.979
76.1301 1.562
76.1603 2.083
76.1906 1.719
76.2209 2.240
76.2512 1.875
76.2814 2.448
76.3117 2.083
76.3420 1.927
76.3723 1.771
76.4026 1.875
76.4328 2.187
76.4631 2.083
76.4934 2.448
76.5237 2.031
76.5540 1.979
76.5842 1.979
76.6145 2.292
76.6448 2.292
76.6751 2.865
76.7053 3.021
76.7356 2.708
76.7659 2.552
76.7962 2.917
76.8265 2.917
76.8567 2.760
76.8870 3.125
76.9173 2.292
76.9476 2.812
76.9779 2.552
77.0081 2.240
77.0384 2.396
77.0687 2.135
77.0990 2.500
77.1292 2.604
77.1595 2.344
77.1898 2.344
77.2201 1.875
77.2504 1.615
77.2806 2.656
77.3109 2.448
77.3412 1.719
77.3715 1.458
77.4018 2.135
77.4320 1.562
77.4623 1.615
77.4926 1.719
77.5229 2.135
77.5531 2.031
77.5834 2.083
77.6137 1.823
77.6440 1.510
77.6743 2.135
77.7045 1.823
77.7348 1.510
77.7651 2.240
77.7954 1.302
77.8257 2.135
77.8559 1.406
77.8862 1.875
77.9165 2.031
77.9468 1.667
77.9770 1.302
78.0073 1.667
78.0376 1.302
78.0679 0.729
78.0982 1.250
78.1284 1.562
78.1587 1.875
78.1890 1.406
78.2193 1.406
78.2496 1.667
78.2798 1.458
78.3101 1.615
78.3404 1.250
78.3707 1.250
78.4009 1.615
78.4312 1.667
78.4615 1.771
78.4918 1.510
78.5221 1.875
78.5523 1.458
78.5826 1.198
78.6129 1.302
78.6432 1.667
78.6735 1.302
78.7037 1.198
78.7340 1.198
78.7643 1.875
78.7946 1.510
78.8248 1.719
78.8551 1.510
78.8854 1.510
78.9157 0.990
78.9460 1.667
78.9762 2.240
79.0065 1.406
79.0368 1.510
79.0671 1.562
79.0974 1.771
79.1276 1.562
79.1579 1.927
79.1882 1.146
79.2185 1.354
79.2488 1.667
79.2790 1.406
79.3093 1.927
79.3396 2.344
79.3699 1.615
79.4001 1.667
79.4304 1.094
79.4607 1.510
79.4910 1.042
79.5213 1.615
79.5515 1.458
79.5818 1.042
79.6121 1.510
79.6424 1.146
79.6727 1.354
79.7029 1.146
79.7332 1.667
79.7635 1.562
79.7938 1.667
79.8240 1.615
79.8543 1.198
79.8846 1.042
79.9149 1.406
79.9452 1.458
79.9754 1.198
80.0057 1.615
80.0360 2.083
80.0663 1.146
80.0966 1.927
80.1268 1.562
80.1571 1.198
80.1874 1.302
80.2177 1.719
80.2479 1.406
80.2782 1.042
80.3085 1.198
80.3388 1.458
80.3691 1.094
80.3993 1.615
80.4296 1.198
80.4599 1.771
80.4902 1.406
80.5205 1.146
80.5507 1.719
80.5810 1.250
80.6113 1.771
80.6416 1.510
80.6718 1.198
80.7021 1.667
80.7324 1.771
80.7627 1.875
80.7930 1.667
80.8232 1.823
80.8535 1.615
80.8838 1.667
80.9141 1.979
80.9444 1.927
80.9746 1.823
81.0049 1.510
81.0352 2.135
81.0655 1.823
81.0957 2.083
81.1260 1.667
81.1563 2.552
81.1866 2.031
81.2169 1.823
81.2471 2.031
81.2774 1.667
81.3077 2.135
81.3380 2.448
81.3683 2.500
81.3985 1.667
81.4288 1.927
81.4591 1.979
81.4894 1.771
81.5196 2.240
81.5499 1.719
81.5802 1.823
81.6105 2.135
81.6408 1.667
81.6710 1.875
81.7013 1.667
81.7316 1.667
81.7619 1.667
81.7922 2.083
81.8224 1.510
81.8527 1.406
81.8830 2.031
81.9133 1.927
81.9436 2.135
81.9738 1.458
82.0041 1.458
82.0344 1.406
82.0647 1.667
82.0949 1.562
82.1252 1.823
82.1555 1.615
82.1858 1.406
82.2161 1.615
82.2463 1.667
82.2766 1.510
82.3069 1.667
82.3372 1.510
82.3675 1.667
82.3977 1.302
82.4280 1.510
82.4583 1.146
82.4886 1.406
82.5188 1.094
82.5491 1.250
82.5794 0.937
82.6097 1.302
82.6400 1.510
82.6702 1.302
82.7005 1.458
82.7308 1.615
82.7611 1.510
82.7914 1.927
82.8216 1.302
82.8519 1.198
82.8822 1.354
82.9125 1.510
82.9427 1.719
82.9730 1.198
83.0033 1.354
83.0336 0.885
83.0639 1.458
83.0941 1.719
83.1244 1.146
83.1547 1.302
83.1850 1.510
83.2153 1.250
83.2455 1.458
83.2758 1.615
83.3061 1.615
83.3364 1.458
83.3666 1.302
83.3969 1.719
83.4272 1.198
83.4575 1.562
83.4878 1.823
83.5180 1.875
83.5483 1.406
83.5786 1.458
83.6089 1.302
83.6392 1.458
83.6694 1.354
83.6997 1.250
83.7300 1.198
83.7603 1.615
83.7905 2.031
83.8208 1.667
83.8511 1.927
83.8814 0.990
83.9117 1.406
83.9419 1.615
83.9722 0.937
84.0025 1.198
84.0328 1.302
84.0631 1.510
84.0933 1.198
84.1236 1.198
84.1539 1.927
84.1842 1.667
84.2144 1.927
84.2447 1.719
84.2750 1.510
84.3053 1.927
84.3356 1.302
84.3658 1.146
84.3961 1.146
84.4264 1.198
84.4567 1.458
84.4870 0.885
84.5172 1.250
84.5475 0.833
84.5778 1.406
84.6081 1.198
84.6383 1.719
84.6686 0.937
84.6989 1.667
84.7292 1.354
84.7595 1.354
84.7897 1.667
84.8200 1.562
84.8503 1.458
84.8806 1.302
84.9109 2.344
84.9411 1.615
84.9714 1.458
85.0017 1.979
85.0320 1.094
85.0623 1.302
85.0925 1.302
85.1228 1.146
85.1531 1.094
85.1834 1.510
85.2136 1.667
85.2439 1.354
85.2742 1.406
85.3045 1.146
85.3348 1.302
85.3650 1.406
85.3953 1.719
85.4256 1.458
85.4559 2.031
85.4862 1.198
85.5164 1.562
85.5467 1.198
85.5770 1.458
85.6073 1.406
85.6375 1.198
85.6678 1.198
85.6981 1.927
85.7284 1.198
85.7587 1.250
85.7889 1.667
85.8192 1.406
85.8495 1.875
85.8798 1.250
85.9101 1.198
85.9403 1.719
85.9706 1.302
86.0009 1.354
86.0312 1.615
86.0614 1.250
86.0917 1.927
86.1220 1.146
86.1523 1.875
86.1826 1.198
86.2128 1.875
86.2431 1.823
86.2734 1.719
86.3037 1.250
86.3340 1.615
86.3642 1.667
86.3945 1.458
86.4248 1.146
86.4551 1.146
86.4853 1.458
86.5156 1.667
86.5459 0.937
86.5762 1.562
86.6065 1.979
86.6367 1.406
86.6670 1.094
86.6973 1.719
86.7276 1.927
86.7579 1.198
86.7881 1.406
86.8184 1.562
86.8487 1.250
86.8790 1.042
86.9092 1.406
86.9395 1.458
86.9698 1.302
87.0001 1.562
87.0304 1.615
87.0606 0.937
87.0909 1.302
87.1212 1.719
87.1515 1.667
87.1818 1.458
87.2120 1.302
87.2423 1.562
87.2726 2.135
87.3029 1.823
87.3331 1.667
87.3634 1.875
87.3937 1.875
87.4240 1.302
87.4543 1.458
87.4845 1.927
87.5148 1.458
87.5451 1.875
87.5754 1.667
87.6057 1.406
87.6359 1.979
87.6662 1.667
87.6965 1.198
87.7268 1.615
87.7571 1.615
87.7873 1.771
87.8176 1.354
87.8479 0.781
87.8782 1.406
87.9084 1.302
87.9387 1.198
87.9690 1.406
87.9993 1.667
88.0296 1.719
88.0598 1.823
88.0901 2.135
88.1204 1.250
88.1507 1.302
88.1810 1.458
88.2112 1.667
88.2415 1.875
88.2718 1.615
88.3021 1.667
88.3323 1.719
88.3626 1.354
88.3929 1.667
88.4232 1.615
88.4535 1.667
88.4837 1.354
88.5140 2.031
88.5443 1.875
88.5746 1.979
88.6049 1.250
88.6351 2.135
88.6654 2.448
88.6957 1.302
88.7260 1.927
88.7562 1.823
88.7865 2.292
88.8168 2.708
88.8471 1.875
88.8774 2.187
88.9076 2.135
88.9379 2.448
88.9682 2.135
88.9985 1.875
89.0288 2.604
89.0590 3.437
89.0893 2.760
89.1196 2.708
89.1499 2.708
89.1801 3.073
89.2104 2.865
89.2407 3.281
89.2710 3.281
89.3013 3.542
89.3315 2.917
89.3618 3.594
89.3921 4.115
89.4224 3.229
89.4527 3.021
89.4829 3.958
89.5132 4.271
89.5435 4.115
89.5738 3.750
89.6040 3.906
89.6343 3.854
89.6646 4.115
89.6949 3.646
89.7252 3.594
89.7554 3.542
89.7857 4.427
89.8160 3.698
89.8463 3.594
89.8766 3.646
89.9068 3.177
89.9371 3.594
89.9674 2.865
89.9977 3.073
90.0279 2.396
90.0582 2.917
90.0885 2.865
90.1188 2.708
90.1491 2.292
90.1793 2.604
90.2096 2.656
90.2399 2.135
90.2702 2.292
90.3005 2.031
90.3307 2.604
90.3610 1.823
90.3913 2.344
90.4216 1.562
90.4518 1.667
90.4821 1.875
90.5124 1.979
90.5427 2.031
90.5730 1.354
90.6032 1.510
90.6335 2.240
90.6638 2.344
90.6941 1.771
90.7244 1.823
90.7546 1.302
90.7849 1.510
90.8152 1.719
90.8455 1.667
90.8758 2.500
90.9060 1.198
90.9363 1.562
90.9666 1.875
90.9969 1.667
91.0271 1.354
91.0574 1.875
91.0877 1.250
91.1180 2.240
91.1483 1.510
91.1785 1.927
91.2088 1.198
91.2391 1.875
91.2694 1.354
91.2997 1.562
91.3299 1.667
91.3602 1.667
91.3905 1.458
91.4208 1.510
91.4510 1.927
91.4813 1.875
91.5116 2.031
91.5419 2.031
91.5722 1.094
91.6024 1.562
91.6327 1.354
91.6630 1.510
91.6933 2.292
91.7236 1.458
91.7538 1.771
91.7841 1.875
91.8144 1.250
91.8447 1.979
91.8749 1.406
91.9052 1.406
91.9355 1.667
91.9658 2.083
91.9961 2.031
92.0263 1.458
92.0566 2.500
92.0869 1.875
92.1172 2.187
92.1475 2.292
92.1777 1.094
92.2080 2.031
92.2383 2.292
92.2686 1.979
92.2988 1.823
92.3291 1.927
92.3594 2.396
92.3897 1.979
92.4200 2.187
92.4502 2.344
92.4805 2.187
92.5108 2.135
92.5411 2.396
92.5714 1.927
92.6016 2.187
92.6319 2.344
92.6622 2.396
92.6925 2.292
92.7227 2.969
92.7530 2.083
92.7833 2.552
92.8136 2.396
92.8439 3.281
92.8741 2.344
92.9044 1.667
92.9347 1.979
92.9650 2.292
92.9953 2.083
93.0255 2.240
93.0558 1.927
93.0861 2.187
93.1164 2.031
93.1466 2.344
93.1769 2.448
93.2072 2.083
93.2375 2.187
93.2678 1.719
93.2980 2.083
93.3283 1.615
93.3586 1.719
93.3889 1.875
93.4192 1.667
93.4494 2.552
93.4797 2.031
93.5100 2.083
93.5403 2.344
93.5706 1.771
93.6008 1.354
93.6311 1.302
93.6614 1.979
93.6917 1.562
93.7219 1.302
93.7522 1.927
93.7825 2.135
93.8128 1.875
93.8431 1.823
93.8733 2.031
93.9036 1.198
93.9339 2.187
93.9642 2.135
93.9945 1.771
94.0247 1.615
94.0550 1.615
94.0853 1.719
94.1156 1.875
94.1458 1.615
94.1761 2.187
94.2064 1.771
94.2367 2.500
94.2670 1.719
94.2972 2.031
94.3275 2.187
94.3578 1.823
94.3881 1.771
94.4184 2.031
94.4486 2.187
94.4789 2.708
94.5092 2.187
94.5395 2.448
94.5697 2.135
94.6000 2.396
94.6303 2.708
94.6606 2.396
94.6909 2.917
94.7211 2.969
94.7514 2.708
94.7817 2.812
94.8120 2.500
94.8423 3.229
94.8725 2.812
94.9028 2.917
94.9331 3.021
94.9634 3.385
94.9936 2.500
95.0239 3.542
95.0542 3.385
95.0845 3.021
95.1148 3.073
95.1450 3.437
95.1753 4.219
95.2056 4.167
95.2359 3.906
95.2662 3.646
95.2964 3.958
95.3267 3.437
95.3570 3.437
95.3873 4.375
95.4175 3.177
95.4478 3.750
95.4781 3.333
95.5084 3.385
95.5387 3.385
95.5689 2.812
95.5992 2.917
95.6295 2.969
95.6598 2.552
95.6901 2.656
95.7203 1.719
95.7506 2.344
95.7809 3.021
95.8112 3.073
95.8414 2.552
95.8717 2.396
95.9020 2.604
95.9323 2.604
95.9626 2.187
95.9928 2.448
96.0231 1.927
96.0534 1.667
96.0837 2.292
96.1140 2.083
96.1442 2.187
96.1745 1.927
96.2048 1.823
96.2351 1.458
96.2653 2.552
96.2956 1.719
96.3259 2.240
96.3562 2.448
96.3865 2.187
96.4167 1.458
96.4470 1.406
96.4773 1.823
96.5076 1.302
96.5379 1.354
96.5681 1.875
96.5984 1.771
96.6287 1.250
96.6590 1.927
96.6893 1.771
96.7195 1.823
96.7498 1.406
96.7801 1.927
96.8104 1.667
96.8406 1.927
96.8709 1.458
96.9012 1.406
96.9315 1.354
96.9618 1.771
96.9920 1.771
97.0223 1.406
97.0526 1.250
97.0829 1.823
97.1132 1.771
97.1434 2.240
97.1737 1.250
97.2040 1.615
97.2343 1.615
97.2645 1.302
97.2948 1.250
97.3251 1.406
97.3554 1.927
97.3857 1.562
97.4159 1.927
97.4462 2.500
97.4765 1.667
97.5068 1.771
97.5371 1.875
97.5673 1.615
97.5976 1.771
97.6279 2.292
97.6582 2.187
97.6884 1.302
97.7187 1.719
97.7490 2.344
97.7793 1.875
97.8096 2.344
97.8398 2.656
97.8701 2.135
97.9004 2.240
97.9307 1.615
97.9610 2.031
97.9912 1.927
98.0215 1.354
98.0518 2.031
98.0821 1.823
98.1123 1.927
98.1426 1.771
98.1729 1.562
98.2032 1.823
98.2335 2.292
98.2637 2.656
98.2940 3.333
98.3243 2.708
98.3546 2.865
98.3849 2.031
98.4151 3.125
98.4454 2.656
98.4757 3.437
98.5060 2.604
98.5362 2.396
98.5665 2.396
98.5968 2.656
98.6271 2.969
98.6574 2.396
98.6876 2.812
98.7179 2.708
98.7482 2.396
98.7785 2.604
98.8088 3.021
98.8390 2.760
98.8693 2.448
98.8996 2.396
98.9299 2.135
98.9601 2.969
98.9904 2.448
99.0207 1.979
99.0510 2.292
99.0813 1.719
99.1115 2.448
99.1418 2.031
99.1721 1.927
99.2024 2.083
99.2327 1.979
99.2629 1.927
99.2932 1.667
99.3235 2.292
99.3538 1.562
99.3841 1.979
99.4143 1.615
99.4446 1.823
99.4749 1.719
99.5052 1.823
99.5354 1.198
99.5657 1.875
99.5960 1.458
99.6263 1.771
99.6566 1.875
99.6868 1.875
99.7171 1.406
99.7474 1.615
99.7777 1.302
99.8080 1.562
99.8382 1.510
99.8685 1.510
99.8988 1.875
99.9291 1.042
99.9593 1.302
99.9896 1.823
100.0199 1.562
100.0502 1.510
100.0805 1.927
100.1107 1.823
100.1410 1.302
100.1713 1.771
100.2016 1.927
100.2319 1.510
100.2621 1.667
100.2924 1.667
100.3227 1.250
100.3530 1.354
100.3832 1.198
100.4135 1.510
100.4438 1.823
100.4741 1.615
100.5044 1.667
100.5346 1.823
100.5649 1.562
100.5952 1.094
100.6255 1.615
100.6558 1.615
100.6860 2.031
100.7163 1.562
100.7466 1.146
100.7769 1.458
100.8071 1.198
100.8374 1.562
100.8677 1.823
100.8980 1.615
100.9283 1.719
100.9585 1.771
100.9888 1.146
101.0191 0.990
101.0494 1.302
101.0797 1.875
101.1099 1.927
101.1402 1.823
101.1705 1.510
101.2008 1.302
101.2310 1.458
101.2613 1.875
101.2916 1.875
101.3219 1.562
101.3522 1.927
101.3824 1.615
101.4127 2.240
101.4430 2.396
101.4733 1.354
101.5036 1.667
101.5338 1.615
101.5641 2.344
101.5944 1.510
101.6247 1.979
101.6549 1.354
101.6852 1.354
101.7155 1.823
101.7458 1.823
101.7761 1.667
101.8063 1.615
101.8366 1.354
101.8669 1.354
101.8972 1.615
101.9275 1.667
101.9577 1.562
101.9880 1.354
102.0183 2.031
102.0486 1.042
102.0788 1.979
102.1091 1.250
102.1394 1.719
102.1697 1.250
102.2000 1.719
102.2302 1.719
102.2605 1.615
102.2908 1.458
102.3211 2.240
102.3514 2.083
102.3816 1.458
102.4119 2.240
102.4422 1.875
102.4725 1.979
102.5028 1.927
102.5330 2.708
102.5633 1.979
102.5936 2.187
102.6239 1.875
102.6541 2.396
102.6844 2.448
102.7147 2.083
102.7450 2.187
102.7753 1.875
102.8055 2.552
102.8358 2.240
102.8661 2.917
102.8964 2.604
102.9267 1.562
102.9569 2.448
102.9872 2.865
103.0175 1.875
103.0478 2.448
103.0780 3.021
103.1083 2.344
103.1386 2.396
103.1689 2.083
103.1992 2.396
103.2294 2.344
103.2597 2.552
103.2900 2.448
103.3203 2.240
103.3506 3.125
103.3808 2.240
103.4111 2.448
103.4414 2.448
103.4717 2.344
103.5019 2.552
103.5322 2.500
103.5625 2.135
103.5928 2.448
103.6231 2.812
103.6533 2.708
103.6836 2.604
103.7139 2.708
103.7442 3.021
103.7745 3.125
103.8047 3.021
103.8350 3.646
103.8653 2.500
103.8956 3.281
103.9258 2.552
103.9561 3.021
103.9864 3.073
104.0167 2.760
104.0470 3.906
104.0772 3.333
104.1075 4.531
104.1378 3.229
104.1681 2.760
104.1984 3.229
104.2286 3.229
104.2589 3.490
104.2892 3.698
104.3195 2.708
104.3497 2.865
104.3800 2.604
104.4103 3.229
104.4406 3.021
104.4709 2.917
104.5011 2.760
104.5314 2.187
104.5617 2.708
104.5920 2.187
104.6223 2.344
104.6525 2.344
104.6828 2.604
104.7131 2.396
104.7434 2.969
104.7736 2.292
104.8039 1.823
104.8342 1.771
104.8645 2.344
104.8948 1.927
104.9250 1.771
104.9553 2.396
104.9856 1.875
105.0159 2.448
105.0462 2.187
105.0764 2.135
105.1067 1.719
105.1370 1.719
105.1673 2.292
105.1975 1.771
105.2278 1.354
105.2581 1.771
105.2884 2.344
105.3187 1.146
105.3489 1.406
105.3792 1.562
105.4095 2.031
105.4398 1.406
105.4701 1.979
105.5003 1.562
105.5306 1.667
105.5609 1.562
105.5912 1.406
105.6215 1.406
105.6517 1.823
105.6820 1.667
105.7123 1.458
105.7426 1.927
105.7728 1.146
105.8031 1.771
105.8334 1.562
105.8637 1.094
105.8940 1.458
105.9242 1.667
105.9545 1.562
105.9848 1.458
106.0151 1.771
106.0454 1.823
106.0756 1.615
106.1059 1.510
106.1362 1.667
106.1665 1.667
106.1967 1.927
106.2270 1.562
106.2573 1.094
106.2876 1.667
106.3179 1.979
106.3481 1.719
106.3784 1.354
106.4087 1.927
106.4390 1.823
106.4693 1.250
106.4995 1.146
106.5298 1.927
106.5601 1.875
106.5904 2.552
106.6206 1.510
106.6509 1.458
106.6812 1.510
106.7115 1.719
106.7418 1.458
106.7720 1.354
106.8023 1.562
106.8326 1.771
106.8629 1.771
106.8932 1.198
106.9234 1.510
106.9537 2.083
106.9840 1.198
107.0143 2.031
107.0445 1.719
107.0748 2.083
107.1051 1.823
107.1354 1.510
107.1657 1.771
107.1959 1.354
107.2262 2.083
107.2565 1.510
107.2868 1.771
107.3171 1.719
107.3473 2.083
107.3776 1.771
107.4079 1.719
107.4382 1.927
107.4684 2.031
107.4987 1.562
107.5290 1.562
107.5593 1.510
107.5896 1.615
107.6198 1.406
107.6501 2.083
107.6804 1.719
107.7107 1.458
107.7410 1.615
107.7712 1.719
107.8015 2.031
107.8318 1.823
107.8621 1.875
107.8923 1.667
107.9226 1.562
107.9529 1.979
107.9832 1.771
108.0135 1.250
108.0437 1.719
108.0740 1.510
108.1043 1.250
108.1346 1.094
108.1649 1.771
108.1951 1.771
108.2254 1.354
108.2557 1.615
108.2860 1.510
108.3163 1.771
108.3465 1.406
108.3768 0.937
108.4071 2.031
108.4374 1.823
108.4676 2.031
108.4979 1.562
108.5282 1.146
108.5585 1.719
108.5888 1.354
108.6190 1.719
108.6493 1.875
108.6796 1.562
108.7099 2.031
108.7402 1.302
108.7704 1.562
108.8007 1.979
108.8310 1.146
108.8613 1.823
108.8915 1.719
108.9218 1.510
108.9521 1.927
108.9824 1.875
109.0127 1.354
109.0429 2.135
109.0732 1.458
109.1035 1.198
109.1338 1.927
109.1641 1.615
109.1943 1.562
109.2246 1.875
109.2549 1.771
109.2852 1.250
109.3154 1.719
109.3457 1.823
109.3760 1.510
109.4063 1.823
109.4366 1.719
109.4668 1.667
109.4971 2.500
109.5274 1.667
109.5577 2.396
109.5880 1.771
109.6182 1.979
109.6485 1.510
109.6788 1.927
109.7091 1.667
109.7393 2.448
109.7696 1.667
109.7999 2.135
109.8302 1.667
109.8605 2.240
109.8907 2.187
109.9210 1.354
109.9513 2.292
109.9816 2.292
110.0119 2.292
110.0421 2.448
110.0724 2.448
110.1027 2.396
110.1330 2.396
110.1632 1.927
110.1935 2.240
110.2238 1.927
110.2541 2.708
110.2844 2.240
110.3146 2.812
110.3449 2.344
110.3752 2.969
110.4055 2.083
110.4358 1.719
110.4660 2.344
110.4963 1.927
110.5266 2.135
110.5569 2.604
110.5871 2.604
110.6174 2.187
110.6477 2.500
110.6780 1.875
110.7083 2.031
110.7385 2.604
110.7688 2.187
110.7991 2.604
110.8294 1.615
110.8597 1.615
110.8899 2.135
110.9202 2.240
110.9505 2.500
110.9808 2.292
111.0110 2.500
111.0413 2.812
111.0716 1.510
111.1019 1.406
111.1322 2.083
111.1624 2.292
111.1927 1.823
111.2230 2.083
111.2533 1.406
111.2836 1.875
111.3138 1.510
111.3441 1.667
111.3744 1.615
111.4047 1.406
111.4350 1.979
111.4652 1.823
111.4955 1.667
111.5258 1.771
111.5561 1.667
111.5863 2.187
111.6166 1.771
111.6469 1.719
111.6772 2.500
111.7075 1.562
111.7377 1.823
111.7680 0.885
111.7983 1.719
111.8286 1.615
111.8589 1.406
111.8891 1.510
111.9194 1.875
111.9497 1.667
111.9800 1.875
112.0102 1.667
112.0405 1.719
112.0708 1.927
112.1011 2.344
112.1314 2.083
112.1616 1.719
112.1919 1.875
112.2222 1.719
112.2525 1.667
112.2828 1.771
112.3130 1.719
112.3433 1.875
112.3736 1.771
112.4039 1.719
112.4341 1.667
112.4644 1.562
112.4947 1.667
112.5250 1.719
112.5553 1.198
112.5855 1.875
112.6158 1.562
112.6461 1.875
112.6764 1.042
112.7067 1.667
112.7369 1.719
112.7672 1.458
112.7975 1.406
112.8278 1.667
112.8580 1.354
112.8883 1.250
112.9186 1.719
112.9489 1.875
112.9792 1.667
113.0094 1.667
113.0397 1.875
113.0700 1.562
113.1003 1.510
113.1306 1.979
113.1608 1.667
113.1911 1.667
113.2214 1.875
113.2517 1.979
113.2819 1.042
113.3122 1.250
113.3425 1.354
113.3728 2.031
113.4031 1.979
113.4333 1.458
113.4636 1.823
113.4939 1.302
113.5242 1.302
113.5545 1.875
113.5847 1.771
113.6150 1.719
113.6453 1.771
113.6756 1.979
113.7058 1.667
113.7361 1.875
113.7664 1.823
113.7967 1.771
113.8270 1.562
113.8572 1.771
113.8875 1.562
113.9178 1.562
113.9481 1.823
113.9784 1.719
114.0086 2.292
114.0389 1.771
114.0692 1.094
114.0995 1.771
114.1298 2.135
114.1600 1.562
114.1903 1.771
114.2206 2.187
114.2509 1.979
114.2811 1.875
114.3114 1.562
114.3417 1.771
114.3720 1.510
114.4023 1.562
114.4325 2.240
114.4628 1.823
114.4931 1.875
114.5234 1.979
114.5537 1.667
114.5839 2.292
114.6142 1.823
114.6445 2.083
114.6748 1.823
114.7050 2.187
114.7353 1.927
114.7656 2.031
114.7959 1.510
114.8262 1.771
114.8564 2.083
114.8867 1.979
114.9170 2.031
114.9473 1.406
114.9776 1.979
115.0078 1.510
115.0381 1.823
115.0684 2.708
115.0987 1.927
115.1289 1.615
115.1592 2.344
115.1895 1.979
115.2198 1.927
115.2501 2.292
115.2803 2.396
115.3106 2.083
115.3409 2.448
115.3712 2.187
115.4015 2.135
115.4317 2.292
115.4620 2.396
115.4923 2.917
115.5226 2.135
115.5528 3.542
115.5831 2.448
115.6134 2.812
115.6437 3.958
115.6740 2.552
115.7042 2.917
115.7345 3.542
115.7648 3.021
115.7951 2.500
115.8254 2.396
115.8556 2.917
115.8859 2.969
115.9162 3.490
115.9465 3.125
115.9767 3.073
116.0070 3.177
116.0373 3.542
116.0676 3.646
116.0979 3.958
116.1281 2.812
116.1584 3.958
116.1887 3.698
116.2190 3.594
116.2493 4.271
116.2795 3.594
116.3098 4.271
116.3401 3.073
116.3704 3.854
116.4006 3.490
116.4309 3.490
116.4612 3.698
116.4915 3.125
116.5218 3.854
116.5520 3.385
116.5823 3.229
116.6126 2.812
116.6429 3.646
116.6732 2.708
116.7034 3.802
116.7337 3.750
116.7640 3.177
116.7943 2.708
116.8245 2.396
116.8548 3.021
116.8851 3.125
116.9154 2.812
116.9457 3.490
116.9759 3.021
117.0062 2.969
117.0365 2.917
117.0668 3.229
117.0971 2.812
117.1273 2.656
117.1576 2.448
117.1879 2.448
117.2182 1.875
117.2485 2.656
117.2787 2.187
117.3090 1.875
117.3393 1.979
117.3696 2.552
117.3998 2.708
117.4301 2.552
117.4604 2.031
117.4907 2.031
117.5210 1.458
117.5512 2.031
117.5815 1.719
117.6118 2.083
117.6421 1.823
117.6724 2.031
117.7026 1.823
117.7329 1.406
117.7632 2.031
117.7935 1.510
117.8237 1.927
117.8540 2.031
117.8843 1.823
117.9146 1.719
117.9449 1.562
117.9751 1.979
118.0054 1.771
118.0357 1.615
118.0660 1.979
118.0963 1.562
118.1265 1.719
118.1568 2.083
118.1871 2.135
118.2174 1.250
118.2476 1.823
118.2779 1.771
118.3082 2.135
118.3385 1.562
118.3688 1.771
118.3990 1.771
118.4293 1.927
118.4596 1.406
118.4899 2.083
118.5202 1.302
118.5504 1.719
118.5807 2.083
118.6110 1.979
118.6413 1.615
118.6715 1.927
118.7018 1.667
118.7321 0.833
118.7624 2.187
118.7927 1.198
118.8229 1.406
118.8532 1.510
118.8835 2.135
118.9138 1.302
118.9441 1.927
118.9743 1.510
119.0046 1.615
119.0349 2.083
119.0652 1.667
119.0954 1.719
119.1257 1.719
119.1560 1.771
119.1863 1.771
119.2166 1.667
119.2468 2.187
119.2771 1.406
119.3074 1.615
119.3377 1.875
119.3680 2.031
119.3982 1.771
119.4285 1.510
119.4588 1.354
119.4891 1.354
119.5193 2.396
119.5496 2.240
119.5799 1.458
119.6102 1.354
119.6405 1.458
119.6707 1.667
119.7010 1.875
119.7313 1.354
119.7616 1.719
119.7919 1.719
119.8221 1.771
119.8524 1.771
119.8827 1.875
119.9130 1.979
119.9433 2.135
119.9735 1.354
120.0038 0.781
