'Id: "" Comment: "" Operator: "Lab Manager" Anode: "Cu" Scantype: "Locked Coupled" TimePerStep: "19.2" X: "9999" Y: "9999" Z: "9999" 
10.0015 3.542
10.0318 4.167
10.0620 3.385
10.0923 3.542
10.1226 4.062
10.1529 3.229
10.1832 3.854
10.2134 4.271
10.2437 4.062
10.2740 4.687
10.3043 3.698
10.3346 3.385
10.3648 2.865
10.3951 4.062
10.4254 4.740
10.4557 3.437
10.4859 4.948
10.5162 4.271
10.5465 4.115
10.5768 4.271
10.6071 4.115
10.6373 4.531
10.6676 4.375
10.6979 4.115
10.7282 4.115
10.7585 4.167
10.7887 3.958
10.8190 5.052
10.8493 4.167
10.8796 4.271
10.9098 4.740
10.9401 6.146
10.9704 7.031
11.0007 8.385
11.0310 9.062
11.0612 10.417
11.0915 8.333
11.1218 8.073
11.1521 6.927
11.1824 6.510
11.2126 6.510
11.2429 5.521
11.2732 5.156
11.3035 4.271
11.3337 3.958
11.3640 4.115
11.3943 3.437
11.4246 5.000
11.4549 3.594
11.4851 4.271
11.5154 3.854
11.5457 4.271
11.5760 4.323
11.6063 3.958
11.6365 4.375
11.6668 3.125
11.6971 3.542
11.7274 3.906
11.7577 4.062
11.7879 3.333
11.8182 2.812
11.8485 3.490
11.8788 2.656
11.9090 3.385
11.9393 4.427
11.9696 3.854
11.9999 3.542
12.0302 3.854
12.0604 3.437
12.0907 3.594
12.1210 3.542
12.1513 2.656
12.1816 3.437
12.2118 3.802
12.2421 2.708
12.2724 3.021
12.3027 2.917
12.3329 4.531
12.3632 3.490
12.3935 2.500
12.4238 3.333
12.4541 3.437
12.4843 2.969
12.5146 2.656
12.5449 2.240
12.5752 2.812
12.6055 3.281
12.6357 2.969
12.6660 3.021
12.6963 2.448
12.7266 3.646
12.7568 3.646
12.7871 2.760
12.8174 3.594
12.8477 3.177
12.8780 3.437
12.9082 3.802
12.9385 3.229
12.9688 3.594
12.9991 2.917
13.0294 3.698
13.0596 3.281
13.0899 2.708
13.1202 1.823
13.1505 2.240
13.1807 3.021
13.2110 3.229
13.2413 2.344
13.2716 2.083
13.3019 3.646
13.3321 2.812
13.3624 2.812
13.3927 2.344
13.4230 2.604
13.4533 2.865
13.4835 3.750
13.5138 2.969
13.5441 2.396
13.5744 2.812
13.6046 3.333
13.6349 2.969
13.6652 2.969
13.6955 3.750
13.7258 3.802
13.7560 2.917
13.7863 2.969
13.8166 3.802
13.8469 2.812
13.8772 2.083
13.9074 2.396
13.9377 2.604
13.9680 3.594
13.9983 2.969
14.0285 3.490
14.0588 3.229
14.0891 2.344
14.1194 3.073
14.1497 3.594
14.1799 3.490
14.2102 3.229
14.2405 2.656
14.2708 2.187
14.3011 2.448
14.3313 2.865
14.3616 3.073
14.3919 4.167
14.4222 2.344
14.4524 2.969
14.4827 2.812
14.5130 2.812
14.5433 2.708
14.5736 3.281
14.6038 2.552
14.6341 2.708
14.6644 3.333
14.6947 3.177
14.7250 2.812
14.7552 2.812
14.7855 3.021
14.8158 2.135
14.8461 2.396
14.8764 2.344
14.9066 2.656
14.9369 2.396
14.9672 2.396
14.9975 2.812
15.0277 2.969
15.0580 2.500
15.0883 2.344
15.1186 2.187
15.1489 2.604
15.1791 3.177
15.2094 2.604
15.2397 2.292
15.2700 1.823
15.3003 2.135
15.3305 2.969
15.3608 2.917
15.3911 2.083
15.4214 3.177
15.4516 2.135
15.4819 2.135
15.5122 2.083
15.5425 2.396
15.5728 2.656
15.6030 2.552
15.6333 2.917
15.6636 2.760
15.6939 2.448
15.7242 2.604
15.7544 3.229
15.7847 2.135
15.8150 2.552
15.8453 2.292
15.8755 2.708
15.9058 2.135
15.9361 3.437
15.9664 2.135
15.9967 2.604
16.0269 3.281
16.0572 3.021
16.0875 2.708
16.1178 1.875
16.1481 2.812
16.1783 1.927
16.2086 2.344
16.2389 2.135
16.2692 3.125
16.2994 2.344
16.3297 2.031
16.3600 2.604
16.3903 2.031
16.4206 2.812
16.4508 3.490
16.4811 2.552
16.5114 1.719
16.5417 3.073
16.5720 2.292
16.6022 2.604
16.6325 2.448
16.6628 2.500
16.6931 2.812
16.7233 2.604
16.7536 2.344
16.7839 2.760
16.8142 2.292
16.8445 2.760
16.8747 2.031
16.9050 2.760
16.9353 2.708
16.9656 2.083
16.9959 2.292
17.0261 2.604
17.0564 2.917
17.0867 2.760
17.1170 2.656
17.1472 2.917
17.1775 2.604
17.2078 2.760
17.2381 2.448
17.2684 2.656
17.2986 2.292
17.3289 2.135
17.3592 2.812
17.3895 2.812
17.4198 2.135
17.4500 2.292
17.4803 2.240
17.5106 2.292
17.5409 2.344
17.5712 2.865
17.6014 2.240
17.6317 2.969
17.6620 2.344
17.6923 2.604
17.7225 2.865
17.7528 1.771
17.7831 2.708
17.8134 3.229
17.8437 2.812
17.8739 3.021
17.9042 2.135
17.9345 2.708
17.9648 2.448
17.9951 2.969
18.0253 2.552
18.0556 1.667
18.0859 2.187
18.1162 2.812
18.1464 2.552
18.1767 2.396
18.2070 2.344
18.2373 2.604
18.2676 2.448
18.2978 1.875
18.3281 2.240
18.3584 2.292
18.3887 2.604
18.4190 2.083
18.4492 1.667
18.4795 2.292
18.5098 2.344
18.5401 1.719
18.5703 2.083
18.6006 2.187
18.6309 2.344
18.6612 2.344
18.6915 2.135
18.7217 2.500
18.7520 2.604
18.7823 2.448
18.8126 2.448
18.8429 2.604
18.8731 1.927
18.9034 1.771
18.9337 2.240
18.9640 1.979
18.9942 1.458
19.0245 2.240
19.0548 2.187
19.0851 2.656
19.1154 2.083
19.1456 2.292
19.1759 1.771
19.2062 1.771
19.2365 2.500
19.2668 2.969
19.2970 2.500
19.3273 1.510
19.3576 2.292
19.3879 1.771
19.4181 1.979
19.4484 2.240
19.4787 1.771
19.5090 2.344
19.5393 1.875
19.5695 2.083
19.5998 1.927
19.6301 1.875
19.6604 1.875
19.6907 2.500
19.7209 2.240
19.7512 1.719
19.7815 2.656
19.8118 2.604
19.8420 1.823
19.8723 1.927
19.9026 1.771
19.9329 2.031
19.9632 2.083
19.9934 1.823
20.0237 2.396
20.0540 2.448
20.0843 1.979
20.1146 2.500
20.1448 2.292
20.1751 1.771
20.2054 1.927
20.2357 2.448
20.2659 2.187
20.2962 1.771
20.3265 2.500
20.3568 2.135
20.3871 2.240
20.4173 2.031
20.4476 1.250
20.4779 2.552
20.5082 2.448
20.5385 2.500
20.5687 1.198
20.5990 2.031
20.6293 1.927
20.6596 2.240
20.6899 2.292
20.7201 2.187
20.7504 1.667
20.7807 2.083
20.8110 1.875
20.8412 2.344
20.8715 2.292
20.9018 2.187
20.9321 2.552
20.9624 1.667
20.9926 2.656
21.0229 2.083
21.0532 1.406
21.0835 1.354
21.1138 1.719
21.1440 1.875
21.1743 2.344
21.2046 2.604
21.2349 1.771
21.2651 1.510
21.2954 2.344
21.3257 2.344
21.3560 2.135
21.3863 1.719
21.4165 2.083
21.4468 1.875
21.4771 2.187
21.5074 2.135
21.5377 2.396
21.5679 1.719
21.5982 1.875
21.6285 2.083
21.6588 2.396
21.6890 1.667
21.7193 2.187
21.7496 1.979
21.7799 1.823
21.8102 2.187
21.8404 1.406
21.8707 2.083
21.9010 2.344
21.9313 2.135
21.9616 2.708
21.9918 1.719
22.0221 2.396
22.0524 1.823
22.0827 2.396
22.1129 1.979
22.1432 1.667
22.1735 2.240
22.2038 1.823
22.2341 2.292
22.2643 2.083
22.2946 2.031
22.3249 1.927
22.3552 2.083
22.3855 2.083
22.4157 1.510
22.4460 2.083
22.4763 2.083
22.5066 2.240
22.5368 1.771
22.5671 1.667
22.5974 1.979
22.6277 2.135
22.6580 2.812
22.6882 2.083
22.7185 1.615
22.7488 2.396
22.7791 2.031
22.8094 2.396
22.8396 1.771
22.8699 1.302
22.9002 2.656
22.9305 2.083
22.9607 2.240
22.9910 1.667
23.0213 1.458
23.0516 2.552
23.0819 2.448
23.1121 2.135
23.1424 2.760
23.1727 1.875
23.2030 1.979
23.2333 1.458
23.2635 2.135
23.2938 1.927
23.3241 2.500
23.3544 2.292
23.3846 1.250
23.4149 2.083
23.4452 1.979
23.4755 1.979
23.5058 2.344
23.5360 1.771
23.5663 2.292
23.5966 1.979
23.6269 1.667
23.6572 2.344
23.6874 2.135
23.7177 2.240
23.7480 1.719
23.7783 2.344
23.8086 1.562
23.8388 2.292
23.8691 1.562
23.8994 1.458
23.9297 1.823
23.9599 1.458
23.9902 1.562
24.0205 1.927
24.0508 1.771
24.0811 2.396
24.1113 1.979
24.1416 1.719
24.1719 1.719
24.2022 2.292
24.2325 2.240
24.2627 2.500
24.2930 2.760
24.3233 1.927
24.3536 1.927
24.3838 1.875
24.4141 2.135
24.4444 1.458
24.4747 2.344
24.5050 1.823
24.5352 1.719
24.5655 2.240
24.5958 2.396
24.6261 2.135
24.6564 2.083
24.6866 2.135
24.7169 2.135
24.7472 1.875
24.7775 1.667
24.8077 1.406
24.8380 1.979
24.8683 2.448
24.8986 1.719
24.9289 2.135
24.9591 2.031
24.9894 1.927
25.0197 2.604
25.0500 2.812
25.0803 1.771
25.1105 1.458
25.1408 1.875
25.1711 1.458
25.2014 2.083
25.2316 2.396
25.2619 2.187
25.2922 2.292
25.3225 1.667
25.3528 1.823
25.3830 1.927
25.4133 1.667
25.4436 1.302
25.4739 2.083
25.5042 1.875
25.5344 1.979
25.5647 1.562
25.5950 1.615
25.6253 1.562
25.6555 1.927
25.6858 2.344
25.7161 1.615
25.7464 1.979
25.7767 2.240
25.8069 2.135
25.8372 1.875
25.8675 1.562
25.8978 2.031
25.9281 1.615
25.9583 1.771
25.9886 1.458
26.0189 1.771
26.0492 1.927
26.0794 1.979
26.1097 1.771
26.1400 1.979
26.1703 2.240
26.2006 1.771
26.2308 1.302
26.2611 1.927
26.2914 2.083
26.3217 1.823
26.3520 2.240
26.3822 1.719
26.4125 2.240
26.4428 2.083
26.4731 1.667
26.5034 1.354
26.5336 2.396
26.5639 1.979
26.5942 1.979
26.6245 1.927
26.6547 2.083
26.6850 2.604
26.7153 1.979
26.7456 1.927
26.7759 1.823
26.8061 1.667
26.8364 1.250
26.8667 1.354
26.8970 1.875
26.9273 1.875
26.9575 1.823
26.9878 1.510
27.0181 1.667
27.0484 1.927
27.0786 1.979
27.1089 1.615
27.1392 1.927
27.1695 2.760
27.1998 2.292
27.2300 2.448
27.2603 3.073
27.2906 1.615
27.3209 2.292
27.3512 2.344
27.3814 1.406
27.4117 1.875
27.4420 1.979
27.4723 2.396
27.5025 2.031
27.5328 2.396
27.5631 1.979
27.5934 2.708
27.6237 1.510
27.6539 3.021
27.6842 2.344
27.7145 2.083
27.7448 1.875
27.7751 2.083
27.8053 2.292
27.8356 1.927
27.8659 2.448
27.8962 1.927
27.9264 2.604
27.9567 2.396
27.9870 2.344
28.0173 2.292
28.0476 1.771
28.0778 2.240
28.1081 1.927
28.1384 2.083
28.1687 2.083
28.1990 2.187
28.2292 2.448
28.2595 2.135
28.2898 2.448
28.3201 1.823
28.3503 2.708
28.3806 2.500
28.4109 2.031
28.4412 1.875
28.4715 2.344
28.5017 1.875
28.5320 1.823
28.5623 1.927
28.5926 2.604
28.6229 1.875
28.6531 2.656
28.6834 2.187
28.7137 2.240
28.7440 2.604
28.7742 2.344
28.8045 1.927
28.8348 2.396
28.8651 2.969
28.8954 2.031
28.9256 2.708
28.9559 2.604
28.9862 2.969
29.0165 2.500
29.0468 2.187
29.0770 2.031
29.1073 3.021
29.1376 2.656
29.1679 3.021
29.1981 3.073
29.2284 2.760
29.2587 2.604
29.2890 3.021
29.3193 2.865
29.3495 2.396
29.3798 2.240
29.4101 2.448
29.4404 2.865
29.4707 2.656
29.5009 2.917
29.5312 1.823
29.5615 2.448
29.5918 3.021
29.6221 2.865
29.6523 2.135
29.6826 2.448
29.7129 2.917
29.7432 3.229
29.7734 2.292
29.8037 2.396
29.8340 3.125
29.8643 2.865
29.8946 2.552
29.9248 3.125
29.9551 3.385
29.9854 2.917
30.0157 3.437
30.0460 3.229
30.0762 2.865
30.1065 3.021
30.1368 3.229
30.1671 4.219
30.1973 2.604
30.2276 3.490
30.2579 3.229
30.2882 3.490
30.3185 3.802
30.3487 3.021
30.3790 3.906
30.4093 4.583
30.4396 3.437
30.4699 4.635
30.5001 4.062
30.5304 3.021
30.5607 4.271
30.5910 3.594
30.6212 4.062
30.6515 5.469
30.6818 4.427
30.7121 4.427
30.7424 5.469
30.7726 4.896
30.8029 5.677
30.8332 5.104
30.8635 5.781
30.8938 5.573
30.9240 6.875
30.9543 5.156
30.9846 6.406
31.0149 7.656
31.0451 6.875
31.0754 6.979
31.1057 9.427
31.1360 8.906
31.1663 9.271
31.1965 10.573
31.2268 9.948
31.2571 13.021
31.2874 12.552
31.3177 15.365
31.3479 14.792
31.3782 15.729
31.4085 18.646
31.4388 20.937
31.4690 23.542
31.4993 25.833
31.5296 28.229
31.5599 30.260
31.5902 30.521
31.6204 33.594
31.6507 32.656
31.6810 31.094
31.7113 26.302
31.7416 28.542
31.7718 25.104
31.8021 22.187
31.8324 20.885
31.8627 19.427
31.8929 15.573
31.9232 15.052
31.9535 12.917
31.9838 13.177
32.0141 11.562
32.0443 9.427
32.0746 10.625
32.1049 7.083
32.1352 7.969
32.1655 8.073
32.1957 6.354
32.2260 7.396
32.2563 6.250
32.2866 6.510
32.3169 5.104
32.3471 5.833
32.3774 5.365
32.4077 4.583
32.4380 5.521
32.4682 4.271
32.4985 5.781
32.5288 4.010
32.5591 4.479
32.5894 4.844
32.6196 4.427
32.6499 3.802
32.6802 3.906
32.7105 4.479
32.7408 4.062
32.7710 3.698
32.8013 4.219
32.8316 4.635
32.8619 4.115
32.8921 3.958
32.9224 4.531
32.9527 3.594
32.9830 3.906
33.0133 3.854
33.0435 2.760
33.0738 5.208
33.1041 3.802
33.1344 3.958
33.1647 4.010
33.1949 3.437
33.2252 3.333
33.2555 4.740
33.2858 3.646
33.3160 3.802
33.3463 3.542
33.3766 4.167
33.4069 3.854
33.4372 4.219
33.4674 3.646
33.4977 4.896
33.5280 5.052
33.5583 4.844
33.5886 5.260
33.6188 3.854
33.6491 4.479
33.6794 4.635
33.7097 4.219
33.7399 5.260
33.7702 5.312
33.8005 5.937
33.8308 6.458
33.8611 6.875
33.8913 6.302
33.9216 8.177
33.9519 8.177
33.9822 9.531
34.0125 9.323
34.0427 11.823
34.0730 12.344
34.1033 15.208
34.1336 17.500
34.1638 19.375
34.1941 24.844
34.2244 31.250
34.2547 36.302
34.2850 37.969
34.3152 36.719
34.3455 32.865
34.3758 31.615
34.4061 27.865
34.4364 22.812
34.4666 17.656
34.4969 14.062
34.5272 13.229
34.5575 10.677
34.5877 9.635
34.6180 8.698
34.6483 8.437
34.6786 7.031
34.7089 7.240
34.7391 6.094
34.7694 7.135
34.7997 5.781
34.8300 5.990
34.8603 5.729
34.8905 6.094
34.9208 5.625
34.9511 5.781
34.9814 6.042
35.0116 6.094
35.0419 6.250
35.0722 6.510
35.1025 5.625
35.1328 5.833
35.1630 5.104
35.1933 6.094
35.2236 5.990
35.2539 7.031
35.2842 7.708
35.3144 7.344
35.3447 7.083
35.3750 6.510
35.4053 7.448
35.4356 10.729
35.4658 7.448
35.4961 9.792
35.5264 9.740
35.5567 10.052
35.5869 8.854
35.6172 11.042
35.6475 11.042
35.6778 13.750
35.7081 15.052
35.7383 15.052
35.7686 16.510
35.7989 17.917
35.8292 20.885
35.8595 21.250
35.8897 23.854
35.9200 26.615
35.9503 33.594
35.9806 35.104
36.0108 37.292
36.0411 41.042
36.0714 42.917
36.1017 46.823
36.1320 45.260
36.1622 45.833
36.1925 45.104
36.2228 42.917
36.2531 39.167
36.2834 34.167
36.3136 31.302
36.3439 24.844
36.3742 23.802
36.4045 21.562
36.4347 17.656
36.4650 17.500
36.4953 16.146
36.5256 11.354
36.5559 11.146
36.5861 10.937
36.6164 10.990
36.6467 9.583
36.6770 9.375
36.7073 7.865
36.7375 6.615
36.7678 5.937
36.7981 7.812
36.8284 6.250
36.8586 6.875
36.8889 5.260
36.9192 5.521
36.9495 5.104
36.9798 4.740
37.0100 4.271
37.0403 4.115
37.0706 4.115
37.1009 4.271
37.1312 4.323
37.1614 4.115
37.1917 4.167
37.2220 4.583
37.2523 4.115
37.2825 3.698
37.3128 3.281
37.3431 3.906
37.3734 3.750
37.4037 3.750
37.4339 3.594
37.4642 3.906
37.4945 3.542
37.5248 3.437
37.5551 2.917
37.5853 2.500
37.6156 3.021
37.6459 3.229
37.6762 2.812
37.7064 2.969
37.7367 1.927
37.7670 2.760
37.7973 3.073
37.8276 3.125
37.8578 2.083
37.8881 1.667
37.9184 2.656
37.9487 2.500
37.9790 3.385
38.0092 2.292
38.0395 2.500
38.0698 3.021
38.1001 2.187
38.1304 2.656
38.1606 2.083
38.1909 2.448
38.2212 2.240
38.2515 1.979
38.2817 1.979
38.3120 1.771
38.3423 1.927
38.3726 1.927
38.4029 2.448
38.4331 2.083
38.4634 1.615
38.4937 1.875
38.5240 2.292
38.5543 1.667
38.5845 2.292
38.6148 1.979
38.6451 2.031
38.6754 1.979
38.7056 1.615
38.7359 1.562
38.7662 1.927
38.7965 2.083
38.8268 1.875
38.8570 2.187
38.8873 2.083
38.9176 1.771
38.9479 1.927
38.9782 1.823
39.0084 1.875
39.0387 1.823
39.0690 1.615
39.0993 2.031
39.1295 2.240
39.1598 1.562
39.1901 1.615
39.2204 1.302
39.2507 1.927
39.2809 2.240
39.3112 1.615
39.3415 1.615
39.3718 1.667
39.4021 1.667
39.4323 1.510
39.4626 1.771
39.4929 2.135
39.5232 1.875
39.5534 1.771
39.5837 2.031
39.6140 1.667
39.6443 1.198
39.6746 1.510
39.7048 1.615
39.7351 1.875
39.7654 1.406
39.7957 1.979
39.8260 1.771
39.8562 1.823
39.8865 1.667
39.9168 2.240
39.9471 1.198
39.9773 1.615
40.0076 1.510
40.0379 1.771
40.0682 1.667
40.0985 1.198
40.1287 1.562
40.1590 1.354
40.1893 1.094
40.2196 1.406
40.2499 1.615
40.2801 1.042
40.3104 1.302
40.3407 1.354
40.3710 1.562
40.4012 1.823
40.4315 1.823
40.4618 1.094
40.4921 1.510
40.5224 1.146
40.5526 1.406
40.5829 1.042
40.6132 2.083
40.6435 1.771
40.6738 1.250
40.7040 2.031
40.7343 1.771
40.7646 1.510
40.7949 2.031
40.8251 1.510
40.8554 1.302
40.8857 1.146
40.9160 0.885
40.9463 1.458
40.9765 1.615
41.0068 1.510
41.0371 1.302
41.0674 1.771
41.0977 1.510
41.1279 1.823
41.1582 1.458
41.1885 1.667
41.2188 1.354
41.2491 1.250
41.2793 1.094
41.3096 1.198
41.3399 1.250
41.3702 1.250
41.4004 1.875
41.4307 1.250
41.4610 1.198
41.4913 1.615
41.5216 1.354
41.5518 1.875
41.5821 1.354
41.6124 1.354
41.6427 2.240
41.6730 0.990
41.7032 1.094
41.7335 1.562
41.7638 1.406
41.7941 1.302
41.8243 1.562
41.8546 1.250
41.8849 0.729
41.9152 1.562
41.9455 0.937
41.9757 1.146
42.0060 1.458
42.0363 1.458
42.0666 1.406
42.0969 1.250
42.1271 1.615
42.1574 1.250
42.1877 1.406
42.2180 1.302
42.2482 1.719
42.2785 1.250
42.3088 1.719
42.3391 0.937
42.3694 0.990
42.3996 1.927
42.4299 1.458
42.4602 1.510
42.4905 1.406
42.5208 1.042
42.5510 1.562
42.5813 1.354
42.6116 1.458
42.6419 1.354
42.6721 1.354
42.7024 1.771
42.7327 1.042
42.7630 1.354
42.7933 1.042
42.8235 0.990
42.8538 1.042
42.8841 1.667
42.9144 1.667
42.9447 1.250
42.9749 0.937
43.0052 0.677
43.0355 1.094
43.0658 1.094
43.0960 1.198
43.1263 1.354
43.1566 1.458
43.1869 1.354
43.2172 1.510
43.2474 1.250
43.2777 0.937
43.3080 1.094
43.3383 1.510
43.3686 1.198
43.3988 1.406
43.4291 1.302
43.4594 1.510
43.4897 1.250
43.5199 1.250
43.5502 1.354
43.5805 1.771
43.6108 1.302
43.6411 1.250
43.6713 1.354
43.7016 1.458
43.7319 1.510
43.7622 1.302
43.7925 1.302
43.8227 1.094
43.8530 1.562
43.8833 1.615
43.9136 1.198
43.9439 1.250
43.9741 0.885
44.0044 1.615
44.0347 1.562
44.0650 1.615
44.0952 1.615
44.1255 1.042
44.1558 1.458
44.1861 1.615
44.2164 0.990
44.2466 1.458
44.2769 1.927
44.3072 1.302
44.3375 1.615
44.3678 1.354
44.3980 1.823
44.4283 1.667
44.4586 1.562
44.4889 1.510
44.5191 0.937
44.5494 1.354
44.5797 1.458
44.6100 1.094
44.6403 1.719
44.6705 1.354
44.7008 1.510
44.7311 1.875
44.7614 1.771
44.7917 1.875
44.8219 1.771
44.8522 1.823
44.8825 1.771
44.9128 1.771
44.9430 0.937
44.9733 1.198
45.0036 1.562
45.0339 1.302
45.0642 1.875
45.0944 2.240
45.1247 1.094
45.1550 1.302
45.1853 1.667
45.2156 1.667
45.2458 1.667
45.2761 1.458
45.3064 0.937
45.3367 1.667
45.3669 1.406
45.3972 1.302
45.4275 1.458
45.4578 1.615
45.4881 1.354
45.5183 1.615
45.5486 1.927
45.5789 1.771
45.6092 1.250
45.6395 1.615
45.6697 1.615
45.7000 1.354
45.7303 1.719
45.7606 1.615
45.7908 0.885
45.8211 1.510
45.8514 1.615
45.8817 1.198
45.9120 1.875
45.9422 1.823
45.9725 1.719
46.0028 2.240
46.0331 1.771
46.0634 1.562
46.0936 1.875
46.1239 1.510
46.1542 1.562
46.1845 1.771
46.2147 1.354
46.2450 1.667
46.2753 1.510
46.3056 1.615
46.3359 2.552
46.3661 2.344
46.3964 1.719
46.4267 1.667
46.4570 2.031
46.4873 1.927
46.5175 2.969
46.5478 1.927
46.5781 2.135
46.6084 1.979
46.6386 2.240
46.6689 2.344
46.6992 2.812
46.7295 1.875
46.7598 1.406
46.7900 2.031
46.8203 2.292
46.8506 2.865
46.8809 2.865
46.9112 2.865
46.9414 3.021
46.9717 3.802
47.0020 3.281
47.0323 4.062
47.0626 4.583
47.0928 4.115
47.1231 5.625
47.1534 5.417
47.1837 6.302
47.2139 6.458
47.2442 6.406
47.2745 6.615
47.3048 7.604
47.3351 8.333
47.3653 10.052
47.3956 9.531
47.4259 9.375
47.4562 9.062
47.4865 8.177
47.5167 9.583
47.5470 9.010
47.5773 7.969
47.6076 7.031
47.6378 5.469
47.6681 5.052
47.6984 5.573
47.7287 3.906
47.7590 3.802
47.7892 3.646
47.8195 3.333
47.8498 2.604
47.8801 2.812
47.9104 2.083
47.9406 3.229
47.9709 2.344
48.0012 2.604
48.0315 2.604
48.0617 1.979
48.0920 2.865
48.1223 1.979
48.1526 2.344
48.1829 2.240
48.2131 1.927
48.2434 1.302
48.2737 1.927
48.3040 1.927
48.3343 2.240
48.3645 1.667
48.3948 1.458
48.4251 1.667
48.4554 2.083
48.4856 1.823
48.5159 2.135
48.5462 1.771
48.5765 1.771
48.6068 1.354
48.6370 1.771
48.6673 1.198
48.6976 1.667
48.7279 1.562
48.7582 1.719
48.7884 1.927
48.8187 2.135
48.8490 1.354
48.8793 1.823
48.9095 1.302
48.9398 1.667
48.9701 1.510
49.0004 2.240
49.0307 1.615
49.0609 1.719
49.0912 1.354
49.1215 1.719
49.1518 1.250
49.1821 1.458
49.2123 1.615
49.2426 1.302
49.2729 1.615
49.3032 1.094
49.3334 1.562
49.3637 1.510
49.3940 1.771
49.4243 1.250
49.4546 1.458
49.4848 1.354
49.5151 1.615
49.5454 1.823
49.5757 1.615
49.6060 1.354
49.6362 1.198
49.6665 1.354
49.6968 1.094
49.7271 1.354
49.7574 1.094
49.7876 0.833
49.8179 1.458
49.8482 1.302
49.8785 1.146
49.9087 1.406
49.9390 1.354
49.9693 1.042
49.9996 1.146
50.0299 1.146
50.0601 1.354
50.0904 1.562
50.1207 1.562
50.1510 0.937
50.1813 1.562
50.2115 1.198
50.2418 1.302
50.2721 1.875
50.3024 1.354
50.3326 1.979
50.3629 1.302
50.3932 1.250
50.4235 1.250
50.4538 1.302
50.4840 0.937
50.5143 0.990
50.5446 1.510
50.5749 1.510
50.6052 1.250
50.6354 2.031
50.6657 1.146
50.6960 1.250
50.7263 1.302
50.7565 1.458
50.7868 1.094
50.8171 1.042
50.8474 1.354
50.8777 1.615
50.9079 1.719
50.9382 1.562
50.9685 1.458
50.9988 1.875
51.0291 1.510
51.0593 1.615
51.0896 1.094
51.1199 1.094
51.1502 1.198
51.1804 1.354
51.2107 1.510
51.2410 0.990
51.2713 1.458
51.3016 1.094
51.3318 1.146
51.3621 1.615
51.3924 1.198
51.4227 1.510
51.4530 1.250
51.4832 1.562
51.5135 1.823
51.5438 1.354
51.5741 1.198
51.6043 1.458
51.6346 1.667
51.6649 1.927
51.6952 1.667
51.7255 1.250
51.7557 1.458
51.7860 0.729
51.8163 1.406
51.8466 1.302
51.8769 1.615
51.9071 1.458
51.9374 1.094
51.9677 1.875
51.9980 1.146
52.0282 1.406
52.0585 1.510
52.0888 1.146
52.1191 1.406
52.1494 1.615
52.1796 1.771
52.2099 1.354
52.2402 1.406
52.2705 1.667
52.3008 1.146
52.3310 0.990
52.3613 1.927
52.3916 1.927
52.4219 1.146
52.4521 0.833
52.4824 1.615
52.5127 1.562
52.5430 1.510
52.5733 1.510
52.6035 1.198
52.6338 1.771
52.6641 1.146
52.6944 1.510
52.7247 1.615
52.7549 1.146
52.7852 1.250
52.8155 1.406
52.8458 1.198
52.8761 1.458
52.9063 1.354
52.9366 1.042
52.9669 0.990
52.9972 1.562
53.0274 1.250
53.0577 0.990
53.0880 1.094
53.1183 1.302
53.1486 1.667
53.1788 1.146
53.2091 1.354
53.2394 1.198
53.2697 1.719
53.3000 1.667
53.3302 1.406
53.3605 1.354
53.3908 1.146
53.4211 1.562
53.4513 1.667
53.4816 1.354
53.5119 1.771
53.5422 1.042
53.5725 1.458
53.6027 1.562
53.6330 1.198
53.6633 1.406
53.6936 0.990
53.7239 1.615
53.7541 1.562
53.7844 1.823
53.8147 1.250
53.8450 1.094
53.8752 1.198
53.9055 1.667
53.9358 1.458
53.9661 1.146
53.9964 1.094
54.0266 1.615
54.0569 1.771
54.0872 1.042
54.1175 1.094
54.1478 1.250
54.1780 1.458
54.2083 1.250
54.2386 1.771
54.2689 1.354
54.2991 1.562
54.3294 1.719
54.3597 1.615
54.3900 1.979
54.4203 0.990
54.4505 1.510
54.4808 1.458
54.5111 1.250
54.5414 1.094
54.5717 1.354
54.6019 1.354
54.6322 1.458
54.6625 1.458
54.6928 2.031
54.7230 1.094
54.7533 1.875
54.7836 2.344
54.8139 1.406
54.8442 1.302
54.8744 1.354
54.9047 1.146
54.9350 1.719
54.9653 1.406
54.9956 2.083
55.0258 1.823
55.0561 1.771
55.0864 1.562
55.1167 2.135
55.1469 1.979
55.1772 1.979
55.2075 2.240
55.2378 2.031
55.2681 2.031
55.2983 1.458
55.3286 1.354
55.3589 2.656
55.3892 2.083
55.4195 1.719
55.4497 1.979
55.4800 1.719
55.5103 2.344
55.5406 2.083
55.5709 2.031
55.6011 3.021
55.6314 1.927
55.6617 2.083
55.6920 1.823
55.7222 2.552
55.7525 3.229
55.7828 2.865
55.8131 3.125
55.8434 3.073
55.8736 3.698
55.9039 3.385
55.9342 3.229
55.9645 3.177
55.9948 4.375
56.0250 3.698
56.0553 3.698
56.0856 4.427
56.1159 5.312
56.1461 4.792
56.1764 6.354
56.2067 6.094
56.2370 6.979
56.2673 7.917
56.2975 8.073
56.3278 9.062
56.3581 9.792
56.3884 10.677
56.4187 11.771
56.4489 12.083
56.4792 11.771
56.5095 10.312
56.5398 10.781
56.5700 9.792
56.6003 8.021
56.6306 8.333
56.6609 8.698
56.6912 8.073
56.7214 5.729
56.7517 5.833
56.7820 5.990
56.8123 4.583
56.8426 5.365
56.8728 4.687
56.9031 3.646
56.9334 3.437
56.9637 3.802
56.9939 2.812
57.0242 3.594
57.0545 3.958
57.0848 2.656
57.1151 2.865
57.1453 3.073
57.1756 2.135
57.2059 2.396
57.2362 2.500
57.2665 2.396
57.2967 2.396
57.3270 2.187
57.3573 2.656
57.3876 1.719
57.4178 2.292
57.4481 2.344
57.4784 1.354
57.5087 2.187
57.5390 1.667
57.5692 1.562
57.5995 1.771
57.6298 2.031
57.6601 1.875
57.6904 1.771
57.7206 2.083
57.7509 2.240
57.7812 1.198
57.8115 0.990
57.8417 1.667
57.8720 1.615
57.9023 1.979
57.9326 1.875
57.9629 1.510
57.9931 1.458
58.0234 1.562
58.0537 2.031
58.0840 1.615
58.1143 1.771
58.1445 1.562
58.1748 1.562
58.2051 1.562
58.2354 1.094
58.2656 1.458
58.2959 1.562
58.3262 1.562
58.3565 1.667
58.3868 1.406
58.4170 0.937
58.4473 1.458
58.4776 1.615
58.5079 1.302
58.5382 1.979
58.5684 1.823
58.5987 1.406
58.6290 2.083
58.6593 1.875
58.6896 1.354
58.7198 1.146
58.7501 1.094
58.7804 1.198
58.8107 1.302
58.8409 1.406
58.8712 1.562
58.9015 1.198
58.9318 1.250
58.9621 1.198
58.9923 1.250
59.0226 1.146
59.0529 1.094
59.0832 1.354
59.1135 1.562
59.1437 1.250
59.1740 0.990
59.2043 1.719
59.2346 1.458
59.2648 1.562
59.2951 1.562
59.3254 1.771
59.3557 1.406
59.3860 1.562
59.4162 1.250
59.4465 1.094
59.4768 1.458
59.5071 1.302
59.5374 1.146
59.5676 0.990
59.5979 1.615
59.6282 1.771
59.6585 1.458
59.6887 1.354
59.7190 1.510
59.7493 1.458
59.7796 1.354
59.8099 1.510
59.8401 1.042
59.8704 1.198
59.9007 1.146
59.9310 1.250
59.9613 1.719
59.9915 1.302
60.0218 1.198
60.0521 1.406
60.0824 1.146
60.1126 1.250
60.1429 0.781
60.1732 1.198
60.2035 0.937
60.2338 1.510
60.2640 1.302
60.2943 1.771
60.3246 2.083
60.3549 1.198
60.3852 0.781
60.4154 1.406
60.4457 1.198
60.4760 1.198
60.5063 1.510
60.5365 1.458
60.5668 1.042
60.5971 1.510
60.6274 1.510
60.6577 1.146
60.6879 1.354
60.7182 1.927
60.7485 0.833
60.7788 1.510
60.8091 1.979
60.8393 1.771
60.8696 1.458
60.8999 1.198
60.9302 1.250
60.9604 1.510
60.9907 0.990
61.0210 1.094
61.0513 1.927
61.0816 1.615
61.1118 1.875
61.1421 1.458
61.1724 1.354
61.2027 1.198
61.2330 1.302
61.2632 1.667
61.2935 1.458
61.3238 1.302
61.3541 1.510
61.3844 1.406
61.4146 2.552
61.4449 1.615
61.4752 1.927
61.5055 1.823
61.5357 1.823
61.5660 1.667
61.5963 1.875
61.6266 1.302
61.6569 1.667
61.6871 1.354
61.7174 1.094
61.7477 1.823
61.7780 1.875
61.8083 1.979
61.8385 2.031
61.8688 1.615
61.8991 2.083
61.9294 2.604
61.9596 2.344
61.9899 2.240
62.0202 2.396
62.0505 2.552
62.0808 1.458
62.1110 2.865
62.1413 2.812
62.1716 2.552
62.2019 2.969
62.2322 3.333
62.2624 3.750
62.2927 3.646
62.3230 3.906
62.3533 3.646
62.3835 4.896
62.4138 4.427
62.4441 4.792
62.4744 4.531
62.5047 5.885
62.5349 6.823
62.5652 7.187
62.5955 6.771
62.6258 8.698
62.6561 8.177
62.6863 7.917
62.7166 9.323
62.7469 8.698
62.7772 9.375
62.8074 8.073
62.8377 9.427
62.8680 7.708
62.8983 7.969
62.9286 6.562
62.9588 6.510
62.9891 5.573
63.0194 6.458
63.0497 5.885
63.0800 4.740
63.1102 3.906
63.1405 4.479
63.1708 3.542
63.2011 2.708
63.2313 3.594
63.2616 3.281
63.2919 3.333
63.3222 3.281
63.3525 2.760
63.3827 2.240
63.4130 2.500
63.4433 2.552
63.4736 1.771
63.5039 2.187
63.5341 1.979
63.5644 2.187
63.5947 1.771
63.6250 2.031
63.6552 1.771
63.6855 1.719
63.7158 1.979
63.7461 2.135
63.7764 1.562
63.8066 1.667
63.8369 1.979
63.8672 2.031
63.8975 1.406
63.9278 1.562
63.9580 1.927
63.9883 1.510
64.0186 1.458
64.0489 1.458
64.0791 1.875
64.1094 1.146
64.1397 1.302
64.1700 1.146
64.2003 1.406
64.2305 1.354
64.2608 1.510
64.2911 1.094
64.3214 1.562
64.3517 1.927
64.3819 1.406
64.4122 1.302
64.4425 1.250
64.4728 1.406
64.5031 1.615
64.5333 1.562
64.5636 1.927
64.5939 1.094
64.6242 0.937
64.6544 1.458
64.6847 1.562
64.7150 1.719
64.7453 1.667
64.7756 1.458
64.8058 1.198
64.8361 1.823
64.8664 1.250
64.8967 1.198
64.9270 1.406
64.9572 1.510
64.9875 1.927
65.0178 1.458
65.0481 1.354
65.0783 1.406
65.1086 1.042
65.1389 1.562
65.1692 1.354
65.1995 1.667
65.2297 1.458
65.2600 1.458
65.2903 1.146
65.3206 1.510
65.3509 1.510
65.3811 1.250
65.4114 1.146
65.4417 1.823
65.4720 1.302
65.5022 1.927
65.5325 1.250
65.5628 1.354
65.5931 1.458
65.6234 1.562
65.6536 2.083
65.6839 1.615
65.7142 1.250
65.7445 2.031
65.7748 1.510
65.8050 2.083
65.8353 2.135
65.8656 2.083
65.8959 2.083
65.9261 2.396
65.9564 2.292
65.9867 1.875
66.0170 1.875
66.0473 1.927
66.0775 2.135
66.1078 2.396
66.1381 2.031
66.1684 2.292
66.1987 2.969
66.2289 2.500
66.2592 2.969
66.2895 2.083
66.3198 2.396
66.3500 2.448
66.3803 2.135
66.4106 2.292
66.4409 1.927
66.4712 2.187
66.5014 2.031
66.5317 2.083
66.5620 2.344
66.5923 1.875
66.6226 2.396
66.6528 2.292
66.6831 1.719
66.7134 1.979
66.7437 1.927
66.7739 2.135
66.8042 1.823
66.8345 2.031
66.8648 2.760
66.8951 1.510
66.9253 2.396
66.9556 2.240
66.9859 2.396
67.0162 1.875
67.0465 1.979
67.0767 2.187
67.1070 2.917
67.1373 1.927
67.1676 1.875
67.1978 2.344
67.2281 2.448
67.2584 2.656
67.2887 2.240
67.3190 2.917
67.3492 3.437
67.3795 2.865
67.4098 3.125
67.4401 3.542
67.4704 3.281
67.5006 3.958
67.5309 4.740
67.5612 4.896
67.5915 5.156
67.6218 4.792
67.6520 6.094
67.6823 5.833
67.7126 6.927
67.7429 6.667
67.7731 6.198
67.8034 8.125
67.8337 6.927
67.8640 6.510
67.8943 6.562
67.9245 7.760
67.9548 6.302
67.9851 6.562
68.0154 5.677
68.0457 5.885
68.0759 4.323
68.1062 4.375
68.1365 4.635
68.1668 4.427
68.1970 3.646
68.2273 3.698
68.2576 3.385
68.2879 3.750
68.3182 3.125
68.3484 2.865
68.3787 3.437
68.4090 3.594
68.4393 3.437
68.4696 3.385
68.4998 2.656
68.5301 3.698
68.5604 2.865
68.5907 2.865
68.6209 2.969
68.6512 3.385
68.6815 3.073
68.7118 3.125
68.7421 3.385
68.7723 3.646
68.8026 3.490
68.8329 3.646
68.8632 4.583
68.8935 3.698
68.9237 3.854
68.9540 3.698
68.9843 3.333
69.0146 3.229
69.0448 3.906
69.0751 3.802
69.1054 3.958
69.1357 3.281
69.1660 2.812
69.1962 3.229
69.2265 2.500
69.2568 3.490
69.2871 2.969
69.3174 2.292
69.3476 2.344
69.3779 1.615
69.4082 1.979
69.4385 2.135
69.4687 1.979
69.4990 2.031
69.5293 1.562
69.5596 2.031
69.5899 2.135
69.6201 1.823
69.6504 2.083
69.6807 2.083
69.7110 1.302
69.7413 1.250
69.7715 1.458
69.8018 1.302
69.8321 1.406
69.8624 1.667
69.8926 1.146
69.9229 1.615
69.9532 1.198
69.9835 1.250
70.0138 1.250
70.0440 1.094
70.0743 0.990
70.1046 1.771
70.1349 1.562
70.1652 1.458
70.1954 1.302
70.2257 1.250
70.2560 1.042
70.2863 1.458
70.3166 1.042
70.3468 1.302
70.3771 1.302
70.4074 1.094
70.4377 1.250
70.4679 1.094
70.4982 1.562
70.5285 1.146
70.5588 1.198
70.5891 0.937
70.6193 1.042
70.6496 1.250
70.6799 0.885
70.7102 1.406
70.7405 0.885
70.7707 1.458
70.8010 1.042
70.8313 1.094
70.8616 1.198
70.8918 1.146
70.9221 1.094
70.9524 1.198
70.9827 0.990
71.0130 1.146
71.0432 0.990
71.0735 1.354
71.1038 1.094
71.1341 1.302
71.1644 0.833
71.1946 1.198
71.2249 1.146
71.2552 1.562
71.2855 1.042
71.3157 1.302
71.3460 0.937
71.3763 0.781
71.4066 1.510
71.4369 0.990
71.4671 0.937
71.4974 1.042
71.5277 0.885
71.5580 1.302
71.5883 1.042
71.6185 0.677
71.6488 0.781
71.6791 0.990
71.7094 0.885
71.7396 0.990
71.7699 1.146
71.8002 0.937
71.8305 1.146
71.8608 1.042
71.8910 1.250
71.9213 1.094
71.9516 1.406
71.9819 0.937
72.0122 1.250
72.0424 1.250
72.0727 1.250
72.1030 1.146
72.1333 0.833
72.1635 1.146
72.1938 0.885
72.2241 1.198
72.2544 1.250
72.2847 1.146
72.3149 1.250
72.3452 1.406
72.3755 1.667
72.4058 1.615
72.4361 1.146
72.4663 1.823
72.4966 1.510
72.5269 1.510
72.5572 1.406
72.5874 1.719
72.6177 2.187
72.6480 0.990
72.6783 1.406
72.7086 1.198
72.7388 1.302
72.7691 1.198
72.7994 1.510
72.8297 1.198
72.8600 1.354
72.8902 0.990
72.9205 0.885
72.9508 1.146
72.9811 0.885
73.0113 0.781
73.0416 0.833
73.0719 1.146
73.1022 1.042
73.1325 0.990
73.1627 0.833
73.1930 1.094
73.2233 0.625
73.2536 0.885
73.2839 0.729
73.3141 1.510
73.3444 1.146
73.3747 1.094
73.4050 1.510
73.4353 0.781
73.4655 0.833
73.4958 1.042
73.5261 1.302
73.5564 0.729
73.5866 0.990
73.6169 0.885
73.6472 0.677
73.6775 0.833
73.7078 0.990
73.7380 0.833
73.7683 0.677
73.7986 0.625
73.8289 0.365
73.8592 0.833
73.8894 0.677
73.9197 1.510
73.9500 0.625
73.9803 0.677
74.0105 1.094
74.0408 1.250
74.0711 0.990
74.1014 0.729
74.1317 0.729
74.1619 1.094
74.1922 0.990
74.2225 1.094
74.2528 0.833
74.2831 0.885
74.3133 0.469
74.3436 0.885
74.3739 0.833
74.4042 0.885
74.4344 1.146
74.4647 0.729
74.4950 0.937
74.5253 1.042
74.5556 1.146
74.5858 0.729
74.6161 1.146
74.6464 0.990
74.6767 0.729
74.7070 0.625
74.7372 0.937
74.7675 0.990
74.7978 0.885
74.8281 1.458
74.8583 0.729
74.8886 0.885
74.9189 0.833
74.9492 1.094
74.9795 0.781
75.0097 0.833
75.0400 0.521
75.0703 0.677
75.1006 0.937
75.1309 1.302
75.1611 1.094
75.1914 0.937
75.2217 0.990
75.2520 0.937
75.2822 1.042
75.3125 0.729
75.3428 0.885
75.3731 0.937
75.4034 1.250
75.4336 0.729
75.4639 1.198
75.4942 1.094
75.5245 0.990
75.5548 1.198
75.5850 0.729
75.6153 0.729
75.6456 1.042
75.6759 1.302
75.7061 1.042
75.7364 0.885
75.7667 1.042
75.7970 0.937
75.8273 0.729
75.8575 1.250
75.8878 0.521
75.9181 0.885
75.9484 1.198
75.9787 1.146
76.0089 1.198
76.0392 1.042
76.0695 1.042
76.0998 1.042
76.1301 0.833
76.1603 0.990
76.1906 0.990
76.2209 1.510
76.2512 0.729
76.2814 0.729
76.3117 1.510
76.3420 1.094
76.3723 1.250
76.4026 1.354
76.4328 1.250
76.4631 1.198
76.4934 0.625
76.5237 1.406
76.5540 1.146
76.5842 0.885
76.6145 1.667
76.6448 1.198
76.6751 1.615
76.7053 1.667
76.7356 1.667
76.7659 1.562
76.7962 1.667
76.8265 1.875
76.8567 1.510
76.8870 1.198
76.9173 1.458
76.9476 1.458
76.9779 1.562
77.0081 1.198
77.0384 1.458
77.0687 1.094
77.0990 1.198
77.1292 1.042
77.1595 1.198
77.1898 1.198
77.2201 1.406
77.2504 1.510
77.2806 1.250
77.3109 0.885
77.3412 0.990
77.3715 1.458
77.4018 0.781
77.4320 0.990
77.4623 1.198
77.4926 1.354
77.5229 1.198
77.5531 1.094
77.5834 0.833
77.6137 0.937
77.6440 0.833
77.6743 0.729
77.7045 1.354
77.7348 1.094
77.7651 1.042
77.7954 1.146
77.8257 0.573
77.8559 1.302
77.8862 0.937
77.9165 1.198
77.9468 1.406
77.9770 1.042
78.0073 1.354
78.0376 0.729
78.0679 1.094
78.0982 0.833
78.1284 0.990
78.1587 1.354
78.1890 1.250
78.2193 0.729
78.2496 0.833
78.2798 0.937
78.3101 1.042
78.3404 0.885
78.3707 1.094
78.4009 0.990
78.4312 0.833
78.4615 1.198
78.4918 1.198
78.5221 0.990
78.5523 0.677
78.5826 1.146
78.6129 0.885
78.6432 0.729
78.6735 0.729
78.7037 0.990
78.7340 0.625
78.7643 0.573
78.7946 0.729
78.8248 0.729
78.8551 0.729
78.8854 0.833
78.9157 0.937
78.9460 0.625
78.9762 0.729
79.0065 0.521
79.0368 0.990
79.0671 1.510
79.0974 1.094
79.1276 0.937
79.1579 0.937
79.1882 0.937
79.2185 0.990
79.2488 0.937
79.2790 1.198
79.3093 0.729
79.3396 1.250
79.3699 1.250
79.4001 1.094
79.4304 0.885
79.4607 1.042
79.4910 0.781
79.5213 0.729
79.5515 0.990
79.5818 0.937
79.6121 1.198
79.6424 0.729
79.6727 0.625
79.7029 0.729
79.7332 0.833
79.7635 1.146
79.7938 0.937
79.8240 0.937
79.8543 0.729
79.8846 0.781
79.9149 1.042
79.9452 1.042
79.9754 1.094
80.0057 1.302
80.0360 1.198
80.0663 0.625
80.0966 1.042
80.1268 0.729
80.1571 1.250
80.1874 0.990
80.2177 0.885
80.2479 1.042
80.2782 0.833
80.3085 1.250
80.3388 1.302
80.3691 0.990
80.3993 1.146
80.4296 0.990
80.4599 1.042
80.4902 1.198
80.5205 1.458
80.5507 0.677
80.5810 1.042
80.6113 1.094
80.6416 1.094
80.6718 1.302
80.7021 0.781
80.7324 0.990
80.7627 0.625
80.7930 1.094
80.8232 0.729
80.8535 1.042
80.8838 0.937
80.9141 0.937
80.9444 0.937
80.9746 1.354
81.0049 1.042
81.0352 1.094
81.0655 1.042
81.0957 0.729
81.1260 0.937
81.1563 0.937
81.1866 0.990
81.2169 1.302
81.2471 0.885
81.2774 0.885
81.3077 1.302
81.3380 1.302
81.3683 1.042
81.3985 0.990
81.4288 1.198
81.4591 1.667
81.4894 0.937
81.5196 1.302
81.5499 0.990
81.5802 1.146
81.6105 1.042
81.6408 1.615
81.6710 1.042
81.7013 1.146
81.7316 1.094
81.7619 0.781
81.7922 0.729
81.8224 1.146
81.8527 1.198
81.8830 1.302
81.9133 1.094
81.9436 0.729
81.9738 0.573
82.0041 1.354
82.0344 0.885
82.0647 0.729
82.0949 1.198
82.1252 0.729
82.1555 0.781
82.1858 0.885
82.2161 1.146
82.2463 0.937
82.2766 0.937
82.3069 1.094
82.3372 0.885
82.3675 0.729
82.3977 1.094
82.4280 0.677
82.4583 0.573
82.4886 1.146
82.5188 0.729
82.5491 0.781
82.5794 0.833
82.6097 1.094
82.6400 0.885
82.6702 0.521
82.7005 0.833
82.7308 0.885
82.7611 0.833
82.7914 0.833
82.8216 0.833
82.8519 0.937
82.8822 1.198
82.9125 0.781
82.9427 0.937
82.9730 0.573
83.0033 0.885
83.0336 0.937
83.0639 0.990
83.0941 0.937
83.1244 0.990
83.1547 0.885
83.1850 0.833
83.2153 0.833
83.2455 0.469
83.2758 0.781
83.3061 0.937
83.3364 0.937
83.3666 0.885
83.3969 0.677
83.4272 1.146
83.4575 0.625
83.4878 1.042
83.5180 1.510
83.5483 0.729
83.5786 0.260
83.6089 0.833
83.6392 0.885
83.6694 1.042
83.6997 0.729
83.7300 0.937
83.7603 0.729
83.7905 0.625
83.8208 0.677
83.8511 1.094
83.8814 0.469
83.9117 1.146
83.9419 0.833
83.9722 1.094
84.0025 0.833
84.0328 0.573
84.0631 1.094
84.0933 0.833
84.1236 0.677
84.1539 0.729
84.1842 1.042
84.2144 0.781
84.2447 0.885
84.2750 0.781
84.3053 0.729
84.3356 0.833
84.3658 0.573
84.3961 0.677
84.4264 0.469
84.4567 0.781
84.4870 1.146
84.5172 0.625
84.5475 0.885
84.5778 0.781
84.6081 0.729
84.6383 0.781
84.6686 0.781
84.6989 1.198
84.7292 1.042
84.7595 0.885
84.7897 0.885
84.8200 0.833
84.8503 1.198
84.8806 0.781
84.9109 1.146
84.9411 0.833
84.9714 0.677
85.0017 0.781
85.0320 0.781
85.0623 0.625
85.0925 1.094
85.1228 0.833
85.1531 0.781
85.1834 0.781
85.2136 0.885
85.2439 0.521
85.2742 0.885
85.3045 1.146
85.3348 1.146
85.3650 0.417
85.3953 0.781
85.4256 0.937
85.4559 0.625
85.4862 0.937
85.5164 0.990
85.5467 1.042
85.5770 0.729
85.6073 0.729
85.6375 0.781
85.6678 0.833
85.6981 0.781
85.7284 0.729
85.7587 0.885
85.7889 1.094
85.8192 1.302
85.8495 0.937
85.8798 1.094
85.9101 0.833
85.9403 0.729
85.9706 0.833
86.0009 0.781
86.0312 0.781
86.0614 0.625
86.0917 0.937
86.1220 1.042
86.1523 0.729
86.1826 0.365
86.2128 1.198
86.2431 0.990
86.2734 0.781
86.3037 0.729
86.3340 0.885
86.3642 0.937
86.3945 0.729
86.4248 0.521
86.4551 0.937
86.4853 1.094
86.5156 0.729
86.5459 0.469
86.5762 0.469
86.6065 0.781
86.6367 0.990
86.6670 0.677
86.6973 1.042
86.7276 0.885
86.7579 0.729
86.7881 0.833
86.8184 0.990
86.8487 0.990
86.8790 0.833
86.9092 0.833
86.9395 0.677
86.9698 0.677
87.0001 0.469
87.0304 0.990
87.0606 1.042
87.0909 1.094
87.1212 0.885
87.1515 0.729
87.1818 0.833
87.2120 0.625
87.2423 1.042
87.2726 0.990
87.3029 0.625
87.3331 0.729
87.3634 1.146
87.3937 0.729
87.4240 0.885
87.4543 0.833
87.4845 1.094
87.5148 0.625
87.5451 0.885
87.5754 1.198
87.6057 0.990
87.6359 1.146
87.6662 0.885
87.6965 1.042
87.7268 1.094
87.7571 0.885
87.7873 1.198
87.8176 1.042
87.8479 0.781
87.8782 0.990
87.9084 0.937
87.9387 1.198
87.9690 0.937
87.9993 0.729
88.0296 0.937
88.0598 0.781
88.0901 0.781
88.1204 1.042
88.1507 1.406
88.1810 0.729
88.2112 0.573
88.2415 0.833
88.2718 1.250
88.3021 0.990
88.3323 1.510
88.3626 1.042
88.3929 1.042
88.4232 0.781
88.4535 1.094
88.4837 1.146
88.5140 0.833
88.5443 1.198
88.5746 1.302
88.6049 1.198
88.6351 1.042
88.6654 0.990
88.6957 0.990
88.7260 0.990
88.7562 0.885
88.7865 1.198
88.8168 1.615
88.8471 1.250
88.8774 0.833
88.9076 1.510
88.9379 1.302
88.9682 1.354
88.9985 1.667
89.0288 1.302
89.0590 1.562
89.0893 1.302
89.1196 1.562
89.1499 1.562
89.1801 1.771
89.2104 2.083
89.2407 1.875
89.2710 1.823
89.3013 1.667
89.3315 2.396
89.3618 1.927
89.3921 1.875
89.4224 1.510
89.4527 2.083
89.4829 2.552
89.5132 2.083
89.5435 1.458
89.5738 1.823
89.6040 1.615
89.6343 1.719
89.6646 2.135
89.6949 2.292
89.7252 2.187
89.7554 1.823
89.7857 2.083
89.8160 1.719
89.8463 1.354
89.8766 1.719
89.9068 0.990
89.9371 1.094
89.9674 1.458
89.9977 1.354
90.0279 1.146
90.0582 1.302
90.0885 1.198
90.1188 1.719
90.1491 1.042
90.1793 1.146
90.2096 1.406
90.2399 1.094
90.2702 1.354
90.3005 1.146
90.3307 1.042
90.3610 1.458
90.3913 1.146
90.4216 0.990
90.4518 1.042
90.4821 0.833
90.5124 1.354
90.5427 1.510
90.5730 0.885
90.6032 0.677
90.6335 0.937
90.6638 0.729
90.6941 0.833
90.7244 0.885
90.7546 1.406
90.7849 0.625
90.8152 0.729
90.8455 1.042
90.8758 1.198
90.9060 1.198
90.9363 0.729
90.9666 0.937
90.9969 0.729
91.0271 1.198
91.0574 0.729
91.0877 0.677
91.1180 0.990
91.1483 0.833
91.1785 0.885
91.2088 0.990
91.2391 0.729
91.2694 0.937
91.2997 1.094
91.3299 0.573
91.3602 1.198
91.3905 1.146
91.4208 0.729
91.4510 0.990
91.4813 0.937
91.5116 0.781
91.5419 0.885
91.5722 0.937
91.6024 0.729
91.6327 0.729
91.6630 1.146
91.6933 0.573
91.7236 1.354
91.7538 1.146
91.7841 1.042
91.8144 0.729
91.8447 0.937
91.8749 0.990
91.9052 0.625
91.9355 1.146
91.9658 1.094
91.9961 0.729
92.0263 0.729
92.0566 0.885
92.0869 1.094
92.1172 0.885
92.1475 0.729
92.1777 1.406
92.2080 0.937
92.2383 1.094
92.2686 1.094
92.2988 0.833
92.3291 1.198
92.3594 1.198
92.3897 1.354
92.4200 1.458
92.4502 1.354
92.4805 1.042
92.5108 1.719
92.5411 1.615
92.5714 1.146
92.6016 1.354
92.6319 1.146
92.6622 1.667
92.6925 1.354
92.7227 1.562
92.7530 1.458
92.7833 1.354
92.8136 1.146
92.8439 1.406
92.8741 0.937
92.9044 0.937
92.9347 0.625
92.9650 1.250
92.9953 1.094
93.0255 0.990
93.0558 1.406
93.0861 1.198
93.1164 1.146
93.1466 1.094
93.1769 1.302
93.2072 1.042
93.2375 1.406
93.2678 1.719
93.2980 1.198
93.3283 0.833
93.3586 1.146
93.3889 0.885
93.4192 1.094
93.4494 1.198
93.4797 1.250
93.5100 1.042
93.5403 1.094
93.5706 0.885
93.6008 1.146
93.6311 1.250
93.6614 1.406
93.6917 1.354
93.7219 0.677
93.7522 0.729
93.7825 1.406
93.8128 1.042
93.8431 1.302
93.8733 1.198
93.9036 0.677
93.9339 0.781
93.9642 1.250
93.9945 1.094
94.0247 1.250
94.0550 1.354
94.0853 0.729
94.1156 0.990
94.1458 0.625
94.1761 0.781
94.2064 0.833
94.2367 1.042
94.2670 0.781
94.2972 1.250
94.3275 1.250
94.3578 0.729
94.3881 1.250
94.4184 0.990
94.4486 1.250
94.4789 0.833
94.5092 1.042
94.5395 1.406
94.5697 1.667
94.6000 1.094
94.6303 0.625
94.6606 1.510
94.6909 1.458
94.7211 1.719
94.7514 1.667
94.7817 1.615
94.8120 1.615
94.8423 1.562
94.8725 1.250
94.9028 1.979
94.9331 1.875
94.9634 1.771
94.9936 1.979
95.0239 1.719
95.0542 2.031
95.0845 1.927
95.1148 1.771
95.1450 2.396
95.1753 1.927
95.2056 1.875
95.2359 1.354
95.2662 2.240
95.2964 1.771
95.3267 2.135
95.3570 1.719
95.3873 1.510
95.4175 2.083
95.4478 1.406
95.4781 2.552
95.5084 2.240
95.5387 1.354
95.5689 2.135
95.5992 1.250
95.6295 1.354
95.6598 1.510
95.6901 1.615
95.7203 1.510
95.7506 1.406
95.7809 1.250
95.8112 1.042
95.8414 1.250
95.8717 1.094
95.9020 1.354
95.9323 1.302
95.9626 1.458
95.9928 1.250
96.0231 1.250
96.0534 1.667
96.0837 1.146
96.1140 1.146
96.1442 1.042
96.1745 1.250
96.2048 1.719
96.2351 0.885
96.2653 0.937
96.2956 1.094
96.3259 0.729
96.3562 0.937
96.3865 0.937
96.4167 0.781
96.4470 0.781
96.4773 0.729
96.5076 1.094
96.5379 1.042
96.5681 1.094
96.5984 0.937
96.6287 0.833
96.6590 0.833
96.6893 0.677
96.7195 1.250
96.7498 0.937
96.7801 1.354
96.8104 1.146
96.8406 0.573
96.8709 0.937
96.9012 1.146
96.9315 0.677
96.9618 0.833
96.9920 1.042
97.0223 0.937
97.0526 1.302
97.0829 0.469
97.1132 0.833
97.1434 1.094
97.1737 1.198
97.2040 1.250
97.2343 1.146
97.2645 1.250
97.2948 0.937
97.3251 1.042
97.3554 0.990
97.3857 1.354
97.4159 0.937
97.4462 1.250
97.4765 0.885
97.5068 0.937
97.5371 0.885
97.5673 1.042
97.5976 0.990
97.6279 1.198
97.6582 1.146
97.6884 1.146
97.7187 0.833
97.7490 1.146
97.7793 0.990
97.8096 1.094
97.8398 1.250
97.8701 1.302
97.9004 0.937
97.9307 1.510
97.9610 1.250
97.9912 1.354
98.0215 0.937
98.0518 1.250
98.0821 1.354
98.1123 0.990
98.1426 0.990
98.1729 1.146
98.2032 1.302
98.2335 1.615
98.2637 1.458
98.2940 1.198
98.3243 1.250
98.3546 1.406
98.3849 1.406
98.4151 1.615
98.4454 1.510
98.4757 1.510
98.5060 1.302
98.5362 1.719
98.5665 1.823
98.5968 1.823
98.6271 1.302
98.6574 1.406
98.6876 1.406
98.7179 1.510
98.7482 1.302
98.7785 1.562
98.8088 1.823
98.8390 1.302
98.8693 1.198
98.8996 1.094
98.9299 1.250
98.9601 1.510
98.9904 1.250
99.0207 1.458
99.0510 1.146
99.0813 1.823
99.1115 1.042
99.1418 1.250
99.1721 1.406
99.2024 0.990
99.2327 1.146
99.2629 1.146
99.2932 1.250
99.3235 1.146
99.3538 0.781
99.3841 1.146
99.4143 1.406
99.4446 0.573
99.4749 0.729
99.5052 0.990
99.5354 0.937
99.5657 0.937
99.5960 1.094
99.6263 1.198
99.6566 1.146
99.6868 1.042
99.7171 1.302
99.7474 1.042
99.7777 1.146
99.8080 0.781
99.8382 0.885
99.8685 0.885
99.8988 1.615
99.9291 0.885
99.9593 1.094
99.9896 0.469
100.0199 0.833
100.0502 0.729
100.0805 0.885
100.1107 0.729
100.1410 0.781
100.1713 1.302
100.2016 0.781
100.2319 0.990
100.2621 1.302
100.2924 1.979
100.3227 0.625
100.3530 1.094
100.3832 0.885
100.4135 0.833
100.4438 0.625
100.4741 1.302
100.5044 0.990
100.5346 0.937
100.5649 1.302
100.5952 0.781
100.6255 1.250
100.6558 0.885
100.6860 0.833
100.7163 0.781
100.7466 1.094
100.7769 0.833
100.8071 0.729
100.8374 0.781
100.8677 0.833
100.8980 0.729
100.9283 1.094
100.9585 0.990
100.9888 1.198
101.0191 0.833
101.0494 0.833
101.0797 0.885
101.1099 0.990
101.1402 0.677
101.1705 1.302
101.2008 1.042
101.2310 1.094
101.2613 0.521
101.2916 0.937
101.3219 0.990
101.3522 1.094
101.3824 0.937
101.4127 0.781
101.4430 1.094
101.4733 1.302
101.5036 1.042
101.5338 1.667
101.5641 0.937
101.5944 0.885
101.6247 1.771
101.6549 0.781
101.6852 0.521
101.7155 0.937
101.7458 0.885
101.7761 1.302
101.8063 0.833
101.8366 0.937
101.8669 1.094
101.8972 0.885
101.9275 0.729
101.9577 1.042
101.9880 1.198
102.0183 1.146
102.0486 1.042
102.0788 1.042
102.1091 1.302
102.1394 1.302
102.1697 1.354
102.2000 0.937
102.2302 0.937
102.2605 1.458
102.2908 1.094
102.3211 1.354
102.3514 1.406
102.3816 1.510
102.4119 1.354
102.4422 1.094
102.4725 1.302
102.5028 1.302
102.5330 0.990
102.5633 0.885
102.5936 1.458
102.6239 1.823
102.6541 1.146
102.6844 1.562
102.7147 1.354
102.7450 1.250
102.7753 1.615
102.8055 1.615
102.8358 1.458
102.8661 1.354
102.8964 1.510
102.9267 1.146
102.9569 1.927
102.9872 1.198
103.0175 1.667
103.0478 1.458
103.0780 1.458
103.1083 1.302
103.1386 1.458
103.1689 1.458
103.1992 1.562
103.2294 1.198
103.2597 1.562
103.2900 1.354
103.3203 1.615
103.3506 1.354
103.3808 1.354
103.4111 1.094
103.4414 1.354
103.4717 1.354
103.5019 1.875
103.5322 1.042
103.5625 1.458
103.5928 1.719
103.6231 1.771
103.6533 1.615
103.6836 1.354
103.7139 1.146
103.7442 1.562
103.7745 1.510
103.8047 1.458
103.8350 1.354
103.8653 1.667
103.8956 1.458
103.9258 1.510
103.9561 2.031
103.9864 1.927
104.0167 2.135
104.0470 1.927
104.0772 1.458
104.1075 1.927
104.1378 1.406
104.1681 2.135
104.1984 1.979
104.2286 2.031
104.2589 1.979
104.2892 1.927
104.3195 1.510
104.3497 1.406
104.3800 1.667
104.4103 2.396
104.4406 1.406
104.4709 1.406
104.5011 1.562
104.5314 0.990
104.5617 1.042
104.5920 0.937
104.6223 1.094
104.6525 1.146
104.6828 1.406
104.7131 1.667
104.7434 0.937
104.7736 1.042
104.8039 1.094
104.8342 1.250
104.8645 1.406
104.8948 1.615
104.9250 1.042
104.9553 0.833
104.9856 1.146
105.0159 1.042
105.0462 0.937
105.0764 1.354
105.1067 1.406
105.1370 0.833
105.1673 1.094
105.1975 0.885
105.2278 1.146
105.2581 1.094
105.2884 1.146
105.3187 1.042
105.3489 1.094
105.3792 1.094
105.4095 1.146
105.4398 1.250
105.4701 0.781
105.5003 1.302
105.5306 1.198
105.5609 1.094
105.5912 0.885
105.6215 0.833
105.6517 0.781
105.6820 0.833
105.7123 1.146
105.7426 0.469
105.7728 0.677
105.8031 1.094
105.8334 0.885
105.8637 0.990
105.8940 0.885
105.9242 1.042
105.9545 0.885
105.9848 0.885
106.0151 1.094
106.0454 0.729
106.0756 1.042
106.1059 1.094
106.1362 0.990
106.1665 0.781
106.1967 0.833
106.2270 0.833
106.2573 0.833
106.2876 1.094
106.3179 0.833
106.3481 0.885
106.3784 0.885
106.4087 1.094
106.4390 1.042
106.4693 0.677
106.4995 0.729
106.5298 0.885
106.5601 1.042
106.5904 0.729
106.6206 0.781
106.6509 1.042
106.6812 1.198
106.7115 1.198
106.7418 0.729
106.7720 1.198
106.8023 1.094
106.8326 1.146
106.8629 0.885
106.8932 0.781
106.9234 0.781
106.9537 1.458
106.9840 0.937
107.0143 0.833
107.0445 1.302
107.0748 0.781
107.1051 1.354
107.1354 0.885
107.1657 0.521
107.1959 0.885
107.2262 0.833
107.2565 1.042
107.2868 1.094
107.3171 0.990
107.3473 1.146
107.3776 0.885
107.4079 1.094
107.4382 1.146
107.4684 0.937
107.4987 0.833
107.5290 1.146
107.5593 1.406
107.5896 1.250
107.6198 0.781
107.6501 0.885
107.6804 0.885
107.7107 1.198
107.7410 1.250
107.7712 1.198
107.8015 1.042
107.8318 1.042
107.8621 0.885
107.8923 1.250
107.9226 0.990
107.9529 1.250
107.9832 0.885
108.0135 1.354
108.0437 0.573
108.0740 1.458
108.1043 0.729
108.1346 1.094
108.1649 0.573
108.1951 0.937
108.2254 1.146
108.2557 0.677
108.2860 0.469
108.3163 1.146
108.3465 0.990
108.3768 0.573
108.4071 0.885
108.4374 1.302
108.4676 0.885
108.4979 0.677
108.5282 1.250
108.5585 0.729
108.5888 0.937
108.6190 1.198
108.6493 0.729
108.6796 1.406
108.7099 0.833
108.7402 0.573
108.7704 0.937
108.8007 0.729
108.8310 0.990
108.8613 0.469
108.8915 0.729
108.9218 1.302
108.9521 0.885
108.9824 0.677
109.0127 1.458
109.0429 0.729
109.0732 0.625
109.1035 1.250
109.1338 1.146
109.1641 0.781
109.1943 1.198
109.2246 1.250
109.2549 0.937
109.2852 0.833
109.3154 0.885
109.3457 0.781
109.3760 0.833
109.4063 0.781
109.4366 0.885
109.4668 1.094
109.4971 1.042
109.5274 1.094
109.5577 0.937
109.5880 1.042
109.6182 1.042
109.6485 1.354
109.6788 1.406
109.7091 0.833
109.7393 0.937
109.7696 1.250
109.7999 1.406
109.8302 1.094
109.8605 1.510
109.8907 0.937
109.9210 0.937
109.9513 0.937
109.9816 1.458
110.0119 0.937
110.0421 1.406
110.0724 1.354
110.1027 1.458
110.1330 1.562
110.1632 1.198
110.1935 1.302
110.2238 1.823
110.2541 1.562
110.2844 1.458
110.3146 1.250
110.3449 1.406
110.3752 1.615
110.4055 1.198
110.4358 1.354
110.4660 1.354
110.4963 1.406
110.5266 1.302
110.5569 1.562
110.5871 1.562
110.6174 1.562
110.6477 1.146
110.6780 1.510
110.7083 1.198
110.7385 1.302
110.7688 1.198
110.7991 1.302
110.8294 0.990
110.8597 1.719
110.8899 0.833
110.9202 1.146
110.9505 1.094
110.9808 1.146
111.0110 0.625
111.0413 1.094
111.0716 1.302
111.1019 0.990
111.1322 1.042
111.1624 0.833
111.1927 0.885
111.2230 1.198
111.2533 0.990
111.2836 1.042
111.3138 0.990
111.3441 1.198
111.3744 0.573
111.4047 0.729
111.4350 1.198
111.4652 0.990
111.4955 1.146
111.5258 0.885
111.5561 0.990
111.5863 0.729
111.6166 1.354
111.6469 0.990
111.6772 0.937
111.7075 0.990
111.7377 1.042
111.7680 0.885
111.7983 0.729
111.8286 1.094
111.8589 1.667
111.8891 0.937
111.9194 1.094
111.9497 0.781
111.9800 0.937
112.0102 0.990
112.0405 0.937
112.0708 0.781
112.1011 0.990
112.1314 0.937
112.1616 0.885
112.1919 0.677
112.2222 0.990
112.2525 0.990
112.2828 0.885
112.3130 0.937
112.3433 0.885
112.3736 0.781
112.4039 0.937
112.4341 1.094
112.4644 0.990
112.4947 0.833
112.5250 0.781
112.5553 0.937
112.5855 0.833
112.6158 1.042
112.6461 1.354
112.6764 1.510
112.7067 1.042
112.7369 1.094
112.7672 1.042
112.7975 0.937
112.8278 1.458
112.8580 0.937
112.8883 1.042
112.9186 0.885
112.9489 1.042
112.9792 0.990
113.0094 0.833
113.0397 0.469
113.0700 0.781
113.1003 0.677
113.1306 1.250
113.1608 0.833
113.1911 1.094
113.2214 1.354
113.2517 1.354
113.2819 0.781
113.3122 1.042
113.3425 1.042
113.3728 1.354
113.4031 1.042
113.4333 0.729
113.4636 0.990
113.4939 0.521
113.5242 0.885
113.5545 0.417
113.5847 0.990
113.6150 0.521
113.6453 1.042
113.6756 0.729
113.7058 0.469
113.7361 1.042
113.7664 1.094
113.7967 0.990
113.8270 1.042
113.8572 0.990
113.8875 0.729
113.9178 0.625
113.9481 1.198
113.9784 0.990
114.0086 0.937
114.0389 0.729
114.0692 1.094
114.0995 1.146
114.1298 0.885
114.1600 0.781
114.1903 0.937
114.2206 1.302
114.2509 0.729
114.2811 1.250
114.3114 0.990
114.3417 0.885
114.3720 1.146
114.4023 1.302
114.4325 0.625
114.4628 0.833
114.4931 1.354
114.5234 1.094
114.5537 1.094
114.5839 1.250
114.6142 1.354
114.6445 1.198
114.6748 1.042
114.7050 0.937
114.7353 1.615
114.7656 1.042
114.7959 0.990
114.8262 1.250
114.8564 1.354
114.8867 1.094
114.9170 1.042
114.9473 1.094
114.9776 1.458
115.0078 0.937
115.0381 1.094
115.0684 1.510
115.0987 1.094
115.1289 1.354
115.1592 0.677
115.1895 1.146
115.2198 1.354
115.2501 1.198
115.2803 1.562
115.3106 1.094
115.3409 1.094
115.3712 1.875
115.4015 0.990
115.4317 0.885
115.4620 2.031
115.4923 1.146
115.5226 1.198
115.5528 1.302
115.5831 1.719
115.6134 0.937
115.6437 1.875
115.6740 1.250
115.7042 1.562
115.7345 1.458
115.7648 2.292
115.7951 1.562
115.8254 2.135
115.8556 1.562
115.8859 1.719
115.9162 1.719
115.9465 2.240
115.9767 1.302
116.0070 1.927
116.0373 1.667
116.0676 1.927
116.0979 1.667
116.1281 1.927
116.1584 2.292
116.1887 1.927
116.2190 1.667
116.2493 1.927
116.2795 2.135
116.3098 2.240
116.3401 2.187
116.3704 2.187
116.4006 2.604
116.4309 2.187
116.4612 1.771
116.4915 2.187
116.5218 1.771
116.5520 1.562
116.5823 1.823
116.6126 1.823
116.6429 1.979
116.6732 1.302
116.7034 1.354
116.7337 1.719
116.7640 1.562
116.7943 1.667
116.8245 1.250
116.8548 1.094
116.8851 1.719
116.9154 1.510
116.9457 1.510
116.9759 1.719
117.0062 1.562
117.0365 1.354
117.0668 1.875
117.0971 1.354
117.1273 1.354
117.1576 0.990
117.1879 1.458
117.2182 0.990
117.2485 1.250
117.2787 1.875
117.3090 1.562
117.3393 1.146
117.3696 1.094
117.3998 1.198
117.4301 0.833
117.4604 0.990
117.4907 1.198
117.5210 1.250
117.5512 1.354
117.5815 1.094
117.6118 1.198
117.6421 1.302
117.6724 1.146
117.7026 0.833
117.7329 1.302
117.7632 0.781
117.7935 1.146
117.8237 1.510
117.8540 1.354
117.8843 1.042
117.9146 1.094
117.9449 1.250
117.9751 0.990
118.0054 0.885
118.0357 0.937
118.0660 0.937
118.0963 1.094
118.1265 0.677
118.1568 1.354
118.1871 1.042
118.2174 0.990
118.2476 1.094
118.2779 0.937
118.3082 1.198
118.3385 1.510
118.3688 1.042
118.3990 0.990
118.4293 0.573
118.4596 1.042
118.4899 0.990
118.5202 0.990
118.5504 1.250
118.5807 0.781
118.6110 1.354
118.6413 0.885
118.6715 0.833
118.7018 1.302
118.7321 0.885
118.7624 1.302
118.7927 1.094
118.8229 0.885
118.8532 0.990
118.8835 0.885
118.9138 0.937
118.9441 0.781
118.9743 1.146
119.0046 0.573
119.0349 1.615
119.0652 1.042
119.0954 0.781
119.1257 0.833
119.1560 0.781
119.1863 1.146
119.2166 1.042
119.2468 1.042
119.2771 0.781
119.3074 1.198
119.3377 1.094
119.3680 1.198
119.3982 1.042
119.4285 0.990
119.4588 0.937
119.4891 0.729
119.5193 1.250
119.5496 1.146
119.5799 0.833
119.6102 1.042
119.6405 0.677
119.6707 0.990
119.7010 0.729
119.7313 0.937
119.7616 0.573
119.7919 1.198
119.8221 0.573
119.8524 0.729
119.8827 0.990
119.9130 1.042
119.9433 0.469
119.9735 0.833
120.0038 0.885
