'Id: "" Comment: "" Operator: "Lab Manager" Anode: "Cu" Scantype: "Locked Coupled" TimePerStep: "19.2" X: "9999" Y: "9999" Z: "9999" 
10.0015 4.062
10.0318 5.000
10.0620 3.542
10.0923 4.427
10.1226 3.802
10.1529 4.948
10.1832 4.062
10.2134 4.010
10.2437 3.854
10.2740 4.479
10.3043 3.437
10.3346 3.125
10.3648 3.854
10.3951 4.115
10.4254 4.167
10.4557 3.698
10.4859 3.802
10.5162 4.375
10.5465 3.333
10.5768 4.844
10.6071 4.219
10.6373 3.646
10.6676 3.646
10.6979 4.427
10.7282 3.490
10.7585 4.583
10.7887 4.635
10.8190 4.167
10.8493 3.854
10.8796 3.646
10.9098 4.115
10.9401 4.583
10.9704 5.365
11.0007 4.740
11.0310 3.854
11.0612 4.740
11.0915 5.417
11.1218 3.854
11.1521 5.000
11.1824 4.583
11.2126 3.385
11.2429 4.375
11.2732 3.542
11.3035 4.740
11.3337 5.000
11.3640 3.958
11.3943 3.750
11.4246 3.958
11.4549 3.385
11.4851 4.115
11.5154 3.802
11.5457 4.167
11.5760 4.062
11.6063 3.542
11.6365 3.906
11.6668 3.125
11.6971 4.010
11.7274 3.542
11.7577 3.073
11.7879 2.969
11.8182 3.802
11.8485 3.437
11.8788 3.594
11.9090 3.437
11.9393 3.698
11.9696 4.115
11.9999 3.333
12.0302 3.750
12.0604 3.958
12.0907 3.750
12.1210 2.917
12.1513 3.802
12.1816 3.490
12.2118 3.646
12.2421 3.490
12.2724 3.281
12.3027 2.760
12.3329 3.229
12.3632 3.333
12.3935 3.333
12.4238 3.594
12.4541 3.646
12.4843 4.062
12.5146 3.958
12.5449 4.115
12.5752 4.427
12.6055 3.177
12.6357 3.490
12.6660 3.750
12.6963 3.229
12.7266 3.021
12.7568 3.229
12.7871 3.646
12.8174 3.177
12.8477 3.385
12.8780 3.229
12.9082 3.281
12.9385 4.115
12.9688 3.021
12.9991 3.125
13.0294 2.760
13.0596 3.750
13.0899 3.125
13.1202 4.323
13.1505 3.281
13.1807 3.333
13.2110 3.229
13.2413 4.115
13.2716 3.958
13.3019 3.698
13.3321 3.906
13.3624 4.531
13.3927 4.167
13.4230 3.698
13.4533 3.750
13.4835 3.490
13.5138 3.229
13.5441 3.281
13.5744 3.281
13.6046 2.708
13.6349 4.010
13.6652 3.906
13.6955 3.125
13.7258 2.865
13.7560 3.229
13.7863 3.542
13.8166 3.437
13.8469 3.750
13.8772 3.073
13.9074 3.229
13.9377 3.594
13.9680 3.229
13.9983 3.229
14.0285 3.437
14.0588 3.437
14.0891 3.229
14.1194 3.437
14.1497 3.542
14.1799 3.490
14.2102 3.490
14.2405 3.281
14.2708 3.229
14.3011 2.552
14.3313 3.490
14.3616 3.073
14.3919 3.333
14.4222 2.604
14.4524 2.969
14.4827 2.812
14.5130 3.490
14.5433 3.385
14.5736 3.021
14.6038 3.177
14.6341 2.760
14.6644 3.385
14.6947 2.812
14.7250 3.594
14.7552 3.125
14.7855 2.969
14.8158 3.333
14.8461 2.969
14.8764 3.125
14.9066 3.802
14.9369 2.917
14.9672 3.021
14.9975 2.812
15.0277 3.646
15.0580 3.021
15.0883 3.646
15.1186 3.125
15.1489 2.812
15.1791 3.802
15.2094 2.396
15.2397 3.437
15.2700 3.229
15.3003 3.125
15.3305 3.229
15.3608 2.604
15.3911 3.385
15.4214 2.656
15.4516 3.698
15.4819 3.021
15.5122 2.917
15.5425 4.167
15.5728 3.854
15.6030 3.021
15.6333 3.542
15.6636 2.812
15.6939 3.281
15.7242 2.292
15.7544 2.656
15.7847 3.490
15.8150 2.604
15.8453 3.229
15.8755 3.125
15.9058 3.385
15.9361 2.396
15.9664 3.021
15.9967 3.281
16.0269 2.969
16.0572 2.708
16.0875 2.708
16.1178 3.177
16.1481 3.646
16.1783 3.854
16.2086 2.552
16.2389 2.083
16.2692 3.229
16.2994 4.271
16.3297 2.396
16.3600 3.125
16.3903 3.385
16.4206 3.281
16.4508 3.281
16.4811 3.385
16.5114 2.760
16.5417 3.646
16.5720 2.500
16.6022 2.292
16.6325 3.021
16.6628 2.344
16.6931 3.229
16.7233 3.437
16.7536 2.812
16.7839 2.760
16.8142 3.698
16.8445 3.021
16.8747 2.708
16.9050 2.917
16.9353 2.344
16.9656 2.969
16.9959 3.177
17.0261 2.969
17.0564 3.229
17.0867 2.865
17.1170 3.021
17.1472 2.812
17.1775 2.969
17.2078 3.802
17.2381 2.552
17.2684 2.708
17.2986 2.917
17.3289 4.010
17.3592 2.760
17.3895 2.135
17.4198 3.021
17.4500 2.917
17.4803 2.656
17.5106 2.917
17.5409 3.490
17.5712 2.656
17.6014 3.490
17.6317 2.865
17.6620 3.021
17.6923 3.333
17.7225 2.500
17.7528 3.021
17.7831 2.812
17.8134 3.385
17.8437 3.594
17.8739 2.969
17.9042 2.969
17.9345 3.073
17.9648 2.812
17.9951 2.917
18.0253 2.812
18.0556 3.750
18.0859 2.812
18.1162 3.073
18.1464 3.437
18.1767 2.240
18.2070 2.500
18.2373 2.969
18.2676 3.021
18.2978 2.917
18.3281 2.917
18.3584 3.073
18.3887 3.281
18.4190 3.385
18.4492 2.969
18.4795 2.396
18.5098 2.396
18.5401 3.073
18.5703 2.969
18.6006 3.385
18.6309 3.073
18.6612 3.594
18.6915 2.969
18.7217 3.281
18.7520 2.865
18.7823 2.656
18.8126 2.083
18.8429 2.865
18.8731 3.229
18.9034 1.719
18.9337 3.281
18.9640 3.333
18.9942 2.656
19.0245 3.125
19.0548 2.812
19.0851 3.333
19.1154 2.969
19.1456 2.812
19.1759 2.656
19.2062 2.396
19.2365 2.969
19.2668 2.500
19.2970 2.604
19.3273 2.135
19.3576 2.708
19.3879 2.604
19.4181 3.177
19.4484 3.490
19.4787 3.125
19.5090 3.281
19.5393 3.125
19.5695 2.656
19.5998 2.344
19.6301 2.083
19.6604 3.073
19.6907 2.812
19.7209 2.656
19.7512 2.344
19.7815 2.656
19.8118 2.604
19.8420 3.177
19.8723 2.031
19.9026 2.292
19.9329 2.760
19.9632 2.865
19.9934 3.229
20.0237 2.500
20.0540 2.500
20.0843 2.917
20.1146 2.760
20.1448 3.281
20.1751 3.073
20.2054 2.917
20.2357 2.552
20.2659 2.969
20.2962 2.083
20.3265 2.865
20.3568 2.604
20.3871 3.281
20.4173 2.865
20.4476 3.281
20.4779 2.760
20.5082 2.812
20.5385 2.240
20.5687 3.021
20.5990 2.656
20.6293 2.708
20.6596 2.708
20.6899 2.448
20.7201 2.917
20.7504 3.177
20.7807 3.333
20.8110 2.552
20.8412 2.240
20.8715 3.021
20.9018 2.969
20.9321 3.281
20.9624 2.448
20.9926 2.552
21.0229 3.281
21.0532 2.812
21.0835 2.135
21.1138 1.875
21.1440 2.187
21.1743 2.396
21.2046 2.865
21.2349 2.760
21.2651 2.760
21.2954 2.865
21.3257 2.708
21.3560 2.917
21.3863 3.385
21.4165 2.760
21.4468 3.125
21.4771 2.552
21.5074 2.656
21.5377 2.396
21.5679 2.708
21.5982 3.125
21.6285 3.281
21.6588 2.292
21.6890 2.812
21.7193 3.177
21.7496 3.177
21.7799 1.823
21.8102 2.708
21.8404 2.760
21.8707 2.500
21.9010 2.135
21.9313 3.177
21.9616 2.396
21.9918 2.917
22.0221 2.240
22.0524 2.031
22.0827 3.385
22.1129 2.656
22.1432 2.760
22.1735 2.448
22.2038 2.604
22.2341 2.448
22.2643 2.240
22.2946 3.073
22.3249 2.396
22.3552 2.969
22.3855 2.917
22.4157 3.177
22.4460 2.135
22.4763 2.396
22.5066 2.344
22.5368 2.604
22.5671 2.396
22.5974 2.552
22.6277 2.812
22.6580 3.073
22.6882 3.594
22.7185 2.812
22.7488 3.177
22.7791 3.021
22.8094 2.604
22.8396 2.240
22.8699 2.969
22.9002 2.292
22.9305 2.500
22.9607 3.073
22.9910 2.708
23.0213 2.604
23.0516 3.177
23.0819 2.865
23.1121 3.542
23.1424 2.396
23.1727 2.604
23.2030 2.240
23.2333 2.760
23.2635 2.708
23.2938 3.177
23.3241 2.604
23.3544 2.448
23.3846 2.708
23.4149 2.240
23.4452 2.292
23.4755 2.552
23.5058 2.604
23.5360 3.281
23.5663 2.240
23.5966 2.187
23.6269 3.594
23.6572 1.823
23.6874 2.812
23.7177 2.240
23.7480 2.396
23.7783 2.812
23.8086 2.865
23.8388 3.021
23.8691 3.073
23.8994 2.917
23.9297 2.344
23.9599 2.135
23.9902 3.594
24.0205 2.812
24.0508 2.448
24.0811 2.604
24.1113 1.667
24.1416 2.552
24.1719 2.344
24.2022 2.500
24.2325 3.021
24.2627 2.500
24.2930 2.604
24.3233 2.760
24.3536 2.396
24.3838 2.031
24.4141 2.396
24.4444 2.396
24.4747 2.865
24.5050 2.292
24.5352 2.708
24.5655 2.604
24.5958 2.760
24.6261 2.760
24.6564 2.656
24.6866 2.604
24.7169 2.760
24.7472 2.292
24.7775 2.656
24.8077 2.604
24.8380 1.979
24.8683 2.656
24.8986 2.396
24.9289 2.708
24.9591 2.448
24.9894 2.135
25.0197 1.979
25.0500 2.083
25.0803 2.865
25.1105 2.240
25.1408 2.917
25.1711 2.187
25.2014 3.229
25.2316 2.187
25.2619 2.604
25.2922 2.083
25.3225 2.187
25.3528 2.812
25.3830 3.333
25.4133 2.552
25.4436 2.500
25.4739 1.823
25.5042 2.240
25.5344 2.031
25.5647 2.135
25.5950 2.344
25.6253 2.448
25.6555 2.344
25.6858 3.021
25.7161 2.500
25.7464 2.031
25.7767 2.604
25.8069 2.656
25.8372 2.187
25.8675 2.969
25.8978 3.229
25.9281 2.083
25.9583 2.344
25.9886 2.031
26.0189 2.604
26.0492 2.187
26.0794 3.073
26.1097 2.865
26.1400 3.385
26.1703 2.344
26.2006 2.604
26.2308 3.490
26.2611 2.708
26.2914 3.125
26.3217 2.292
26.3520 2.708
26.3822 3.021
26.4125 1.823
26.4428 2.656
26.4731 3.281
26.5034 2.240
26.5336 2.656
26.5639 2.969
26.5942 2.500
26.6245 3.177
26.6547 2.760
26.6850 2.604
26.7153 3.229
26.7456 3.177
26.7759 2.760
26.8061 2.969
26.8364 2.812
26.8667 2.865
26.8970 2.448
26.9273 3.333
26.9575 2.604
26.9878 3.854
27.0181 3.073
27.0484 2.448
27.0786 3.281
27.1089 3.073
27.1392 3.125
27.1695 3.073
27.1998 3.073
27.2300 3.542
27.2603 2.500
27.2906 3.490
27.3209 2.552
27.3512 2.969
27.3814 3.490
27.4117 3.229
27.4420 3.542
27.4723 3.333
27.5025 2.969
27.5328 2.552
27.5631 2.969
27.5934 3.698
27.6237 3.073
27.6539 2.760
27.6842 3.490
27.7145 2.917
27.7448 2.604
27.7751 3.958
27.8053 3.542
27.8356 2.708
27.8659 2.917
27.8962 2.604
27.9264 4.062
27.9567 2.500
27.9870 3.437
28.0173 3.490
28.0476 3.281
28.0778 3.125
28.1081 2.656
28.1384 2.917
28.1687 3.073
28.1990 2.083
28.2292 3.125
28.2595 3.385
28.2898 2.760
28.3201 3.802
28.3503 2.969
28.3806 3.542
28.4109 2.396
28.4412 3.698
28.4715 2.812
28.5017 2.865
28.5320 3.802
28.5623 2.396
28.5926 2.969
28.6229 3.021
28.6531 4.219
28.6834 3.698
28.7137 3.333
28.7440 3.542
28.7742 3.177
28.8045 3.542
28.8348 3.490
28.8651 3.385
28.8954 4.062
28.9256 3.177
28.9559 3.281
28.9862 3.437
29.0165 3.542
29.0468 3.229
29.0770 3.125
29.1073 3.125
29.1376 3.698
29.1679 4.010
29.1981 3.437
29.2284 3.385
29.2587 3.177
29.2890 3.490
29.3193 3.750
29.3495 3.646
29.3798 3.073
29.4101 3.906
29.4404 2.604
29.4707 3.490
29.5009 3.542
29.5312 4.115
29.5615 4.167
29.5918 3.958
29.6221 3.698
29.6523 3.646
29.6826 4.427
29.7129 4.323
29.7432 4.323
29.7734 4.375
29.8037 3.958
29.8340 3.490
29.8643 3.906
29.8946 4.167
29.9248 4.062
29.9551 4.479
29.9854 4.010
30.0157 3.906
30.0460 4.271
30.0762 4.583
30.1065 4.010
30.1368 4.167
30.1671 3.646
30.1973 5.000
30.2276 4.375
30.2579 4.479
30.2882 4.896
30.3185 3.802
30.3487 3.958
30.3790 4.375
30.4093 4.740
30.4396 5.156
30.4699 5.573
30.5001 4.687
30.5304 5.000
30.5607 5.312
30.5910 5.729
30.6212 4.948
30.6515 4.844
30.6818 5.573
30.7121 6.042
30.7424 5.729
30.7726 7.083
30.8029 6.615
30.8332 6.875
30.8635 6.354
30.8938 6.510
30.9240 7.500
30.9543 7.656
30.9846 8.385
31.0149 9.635
31.0451 10.990
31.0754 10.104
31.1057 11.875
31.1360 12.604
31.1663 12.760
31.1965 12.396
31.2268 15.521
31.2571 16.927
31.2874 15.781
31.3177 20.417
31.3479 22.031
31.3782 23.750
31.4085 26.771
31.4388 29.687
31.4690 33.021
31.4993 40.365
31.5296 40.677
31.5599 46.250
31.5902 50.260
31.6204 49.896
31.6507 49.948
31.6810 48.594
31.7113 48.385
31.7416 44.323
31.7718 41.458
31.8021 36.927
31.8324 33.698
31.8627 27.760
31.8929 24.271
31.9232 24.271
31.9535 20.156
31.9838 18.385
32.0141 17.812
32.0443 14.427
32.0746 14.740
32.1049 13.021
32.1352 11.198
32.1655 11.615
32.1957 10.573
32.2260 10.781
32.2563 9.427
32.2866 8.646
32.3169 8.646
32.3471 8.333
32.3774 6.927
32.4077 7.656
32.4380 6.615
32.4682 8.021
32.4985 7.135
32.5288 5.885
32.5591 5.937
32.5894 6.927
32.6196 6.250
32.6499 5.208
32.6802 5.990
32.7105 4.844
32.7408 6.458
32.7710 5.833
32.8013 5.729
32.8316 4.635
32.8619 4.896
32.8921 5.000
32.9224 5.208
32.9527 4.948
32.9830 4.687
33.0133 4.896
33.0435 5.885
33.0738 5.156
33.1041 4.896
33.1344 5.469
33.1647 4.531
33.1949 5.781
33.2252 4.687
33.2555 5.521
33.2858 4.479
33.3160 5.469
33.3463 5.469
33.3766 4.427
33.4069 4.427
33.4372 5.417
33.4674 5.365
33.4977 5.052
33.5280 6.771
33.5583 5.885
33.5886 6.198
33.6188 6.198
33.6491 6.667
33.6794 6.979
33.7097 7.344
33.7399 7.396
33.7702 8.177
33.8005 7.917
33.8308 9.948
33.8611 8.594
33.8913 9.167
33.9216 9.844
33.9519 12.187
33.9822 12.031
34.0125 13.854
34.0427 15.469
34.0730 18.229
34.1033 19.792
34.1336 24.375
34.1638 28.750
34.1941 35.208
34.2244 47.240
34.2547 55.312
34.2850 61.875
34.3152 63.646
34.3455 53.385
34.3758 51.875
34.4061 43.437
34.4364 34.531
34.4666 26.979
34.4969 21.979
34.5272 18.229
34.5575 17.708
34.5877 14.427
34.6180 14.687
34.6483 10.365
34.6786 11.667
34.7089 11.042
34.7391 8.594
34.7694 10.417
34.7997 8.750
34.8300 8.854
34.8603 8.125
34.8905 8.333
34.9208 7.812
34.9511 8.073
34.9814 8.437
35.0116 7.604
35.0419 7.448
35.0722 7.396
35.1025 7.917
35.1328 9.219
35.1630 9.583
35.1933 7.396
35.2236 7.865
35.2539 7.708
35.2842 10.625
35.3144 10.260
35.3447 8.542
35.3750 10.469
35.4053 9.010
35.4356 8.958
35.4658 11.875
35.4961 13.073
35.5264 13.073
35.5567 14.844
35.5869 14.010
35.6172 14.271
35.6475 17.031
35.6778 17.604
35.7081 18.073
35.7383 18.854
35.7686 22.812
35.7989 23.229
35.8292 28.802
35.8595 32.292
35.8897 36.146
35.9200 41.302
35.9503 46.771
35.9806 48.542
36.0108 58.802
36.0411 63.177
36.0714 65.729
36.1017 73.698
36.1320 77.031
36.1622 72.656
36.1925 69.792
36.2228 61.823
36.2531 60.104
36.2834 56.042
36.3136 50.469
36.3439 41.094
36.3742 38.646
36.4045 35.521
36.4347 30.573
36.4650 25.937
36.4953 22.083
36.5256 21.354
36.5559 18.854
36.5861 15.990
36.6164 13.594
36.6467 13.906
36.6770 12.135
36.7073 11.771
36.7375 11.562
36.7678 8.698
36.7981 10.208
36.8284 10.104
36.8586 8.437
36.8889 7.969
36.9192 8.802
36.9495 6.875
36.9798 6.094
37.0100 6.927
37.0403 6.719
37.0706 5.677
37.1009 6.250
37.1312 6.406
37.1614 5.573
37.1917 5.208
37.2220 5.208
37.2523 5.625
37.2825 6.458
37.3128 5.052
37.3431 5.000
37.3734 4.531
37.4037 4.583
37.4339 4.115
37.4642 4.740
37.4945 4.323
37.5248 4.479
37.5551 3.594
37.5853 5.052
37.6156 4.062
37.6459 4.010
37.6762 4.167
37.7064 3.385
37.7367 4.115
37.7670 3.906
37.7973 4.010
37.8276 2.865
37.8578 3.437
37.8881 3.698
37.9184 3.594
37.9487 3.490
37.9790 3.073
38.0092 3.490
38.0395 4.427
38.0698 3.906
38.1001 3.958
38.1304 3.854
38.1606 3.750
38.1909 3.177
38.2212 3.542
38.2515 3.229
38.2817 3.437
38.3120 3.385
38.3423 3.177
38.3726 3.125
38.4029 3.177
38.4331 3.906
38.4634 3.385
38.4937 2.969
38.5240 3.229
38.5543 3.385
38.5845 3.385
38.6148 3.437
38.6451 3.073
38.6754 3.385
38.7056 2.969
38.7359 2.969
38.7662 3.021
38.7965 2.865
38.8268 3.385
38.8570 2.760
38.8873 3.750
38.9176 2.969
38.9479 2.760
38.9782 2.187
39.0084 2.969
39.0387 2.604
39.0690 2.135
39.0993 3.281
39.1295 2.448
39.1598 3.021
39.1901 2.708
39.2204 2.760
39.2507 2.708
39.2809 2.135
39.3112 1.927
39.3415 2.396
39.3718 2.552
39.4021 2.917
39.4323 2.552
39.4626 1.615
39.4929 2.135
39.5232 2.552
39.5534 2.604
39.5837 2.708
39.6140 2.656
39.6443 2.031
39.6746 2.344
39.7048 2.135
39.7351 2.083
39.7654 2.552
39.7957 1.979
39.8260 1.927
39.8562 2.448
39.8865 2.396
39.9168 2.187
39.9471 2.187
39.9773 1.615
40.0076 2.708
40.0379 2.396
40.0682 2.448
40.0985 1.823
40.1287 2.917
40.1590 2.135
40.1893 2.865
40.2196 2.031
40.2499 2.344
40.2801 2.917
40.3104 2.552
40.3407 2.500
40.3710 2.344
40.4012 2.396
40.4315 1.771
40.4618 2.292
40.4921 2.812
40.5224 2.500
40.5526 2.865
40.5829 2.031
40.6132 1.979
40.6435 2.812
40.6738 2.500
40.7040 1.979
40.7343 2.396
40.7646 1.771
40.7949 1.823
40.8251 1.875
40.8554 2.708
40.8857 1.979
40.9160 2.865
40.9463 2.292
40.9765 2.083
41.0068 1.823
41.0371 2.344
41.0674 1.979
41.0977 1.458
41.1279 1.979
41.1582 2.083
41.1885 1.667
41.2188 2.344
41.2491 1.979
41.2793 2.500
41.3096 1.927
41.3399 1.979
41.3702 1.302
41.4004 2.656
41.4307 2.344
41.4610 1.458
41.4913 2.344
41.5216 2.135
41.5518 2.031
41.5821 2.135
41.6124 2.344
41.6427 1.771
41.6730 1.875
41.7032 2.552
41.7335 1.927
41.7638 2.187
41.7941 2.187
41.8243 1.510
41.8546 2.135
41.8849 1.823
41.9152 2.396
41.9455 2.083
41.9757 2.187
42.0060 2.083
42.0363 1.927
42.0666 1.823
42.0969 1.667
42.1271 2.187
42.1574 2.083
42.1877 2.135
42.2180 2.031
42.2482 2.344
42.2785 1.615
42.3088 2.187
42.3391 2.135
42.3694 2.083
42.3996 1.667
42.4299 1.875
42.4602 2.656
42.4905 1.562
42.5208 1.875
42.5510 1.562
42.5813 2.292
42.6116 2.448
42.6419 2.969
42.6721 2.292
42.7024 1.510
42.7327 1.771
42.7630 1.771
42.7933 2.552
42.8235 1.667
42.8538 1.979
42.8841 1.979
42.9144 1.979
42.9447 1.510
42.9749 1.771
43.0052 1.771
43.0355 1.510
43.0658 2.448
43.0960 1.510
43.1263 2.031
43.1566 2.083
43.1869 1.875
43.2172 1.510
43.2474 2.187
43.2777 1.979
43.3080 2.708
43.3383 1.458
43.3686 2.396
43.3988 2.187
43.4291 2.135
43.4594 1.875
43.4897 1.875
43.5199 2.135
43.5502 1.510
43.5805 2.031
43.6108 1.875
43.6411 1.875
43.6713 1.979
43.7016 1.927
43.7319 2.135
43.7622 1.823
43.7925 1.927
43.8227 2.708
43.8530 2.240
43.8833 1.250
43.9136 2.135
43.9439 2.396
43.9741 1.719
44.0044 2.917
44.0347 1.771
44.0650 1.771
44.0952 1.979
44.1255 2.031
44.1558 1.875
44.1861 2.344
44.2164 1.875
44.2466 1.146
44.2769 2.187
44.3072 1.615
44.3375 2.240
44.3678 2.240
44.3980 2.240
44.4283 2.031
44.4586 2.240
44.4889 1.771
44.5191 1.823
44.5494 2.187
44.5797 1.823
44.6100 2.396
44.6403 2.031
44.6705 1.719
44.7008 2.031
44.7311 2.448
44.7614 2.083
44.7917 2.240
44.8219 1.823
44.8522 2.292
44.8825 1.667
44.9128 2.031
44.9430 1.719
44.9733 2.031
45.0036 1.979
45.0339 1.615
45.0642 2.187
45.0944 1.667
45.1247 2.083
45.1550 2.344
45.1853 2.812
45.2156 2.656
45.2458 2.292
45.2761 2.448
45.3064 1.875
45.3367 2.292
45.3669 2.396
45.3972 1.875
45.4275 2.500
45.4578 2.656
45.4881 2.500
45.5183 2.083
45.5486 2.344
45.5789 2.292
45.6092 2.240
45.6395 2.604
45.6697 2.812
45.7000 2.344
45.7303 2.865
45.7606 3.229
45.7908 2.552
45.8211 1.510
45.8514 1.979
45.8817 2.812
45.9120 2.344
45.9422 2.604
45.9725 2.708
46.0028 2.656
46.0331 2.917
46.0634 2.656
46.0936 3.281
46.1239 1.927
46.1542 2.240
46.1845 2.135
46.2147 2.500
46.2450 1.875
46.2753 2.448
46.3056 2.812
46.3359 2.552
46.3661 2.448
46.3964 2.865
46.4267 2.292
46.4570 3.229
46.4873 2.448
46.5175 4.062
46.5478 3.177
46.5781 3.021
46.6084 3.385
46.6386 2.656
46.6689 3.177
46.6992 3.437
46.7295 3.542
46.7598 3.750
46.7900 3.698
46.8203 3.385
46.8506 4.427
46.8809 3.646
46.9112 5.781
46.9414 3.698
46.9717 5.417
47.0020 4.792
47.0323 5.573
47.0626 5.833
47.0928 6.562
47.1231 8.437
47.1534 7.500
47.1837 9.115
47.2139 10.885
47.2442 10.573
47.2745 12.187
47.3048 13.646
47.3351 14.740
47.3653 15.937
47.3956 16.094
47.4259 16.406
47.4562 16.458
47.4865 14.115
47.5167 14.635
47.5470 14.323
47.5773 11.979
47.6076 10.417
47.6378 9.583
47.6681 10.937
47.6984 9.062
47.7287 8.021
47.7590 6.146
47.7892 6.146
47.8195 4.583
47.8498 4.687
47.8801 4.531
47.9104 5.000
47.9406 4.323
47.9709 3.698
48.0012 4.010
48.0315 2.552
48.0617 3.385
48.0920 3.542
48.1223 3.594
48.1526 2.552
48.1829 3.594
48.2131 2.917
48.2434 3.229
48.2737 2.604
48.3040 2.969
48.3343 2.448
48.3645 3.437
48.3948 2.396
48.4251 2.292
48.4554 2.396
48.4856 2.292
48.5159 2.708
48.5462 2.812
48.5765 2.396
48.6068 2.083
48.6370 3.073
48.6673 2.135
48.6976 2.240
48.7279 2.187
48.7582 2.240
48.7884 1.875
48.8187 1.771
48.8490 2.448
48.8793 2.240
48.9095 2.448
48.9398 1.979
48.9701 1.875
49.0004 2.187
49.0307 1.823
49.0609 2.240
49.0912 2.135
49.1215 2.500
49.1518 1.927
49.1821 2.344
49.2123 2.187
49.2426 1.927
49.2729 2.656
49.3032 1.719
49.3334 1.927
49.3637 1.771
49.3940 1.771
49.4243 1.615
49.4546 1.927
49.4848 2.187
49.5151 2.187
49.5454 1.823
49.5757 1.562
49.6060 1.875
49.6362 1.979
49.6665 2.135
49.6968 1.510
49.7271 2.396
49.7574 2.135
49.7876 1.667
49.8179 2.135
49.8482 2.031
49.8785 1.510
49.9087 2.448
49.9390 1.979
49.9693 1.875
49.9996 1.771
50.0299 1.927
50.0601 1.771
50.0904 1.927
50.1207 1.927
50.1510 1.458
50.1813 1.927
50.2115 1.615
50.2418 1.719
50.2721 2.604
50.3024 2.083
50.3326 2.135
50.3629 1.979
50.3932 2.344
50.4235 2.083
50.4538 1.771
50.4840 1.979
50.5143 2.552
50.5446 2.969
50.5749 1.927
50.6052 2.344
50.6354 1.302
50.6657 1.823
50.6960 1.510
50.7263 1.979
50.7565 2.344
50.7868 1.562
50.8171 1.406
50.8474 2.448
50.8777 2.187
50.9079 1.719
50.9382 1.823
50.9685 1.927
50.9988 1.458
51.0291 1.719
51.0593 2.292
51.0896 2.031
51.1199 2.240
51.1502 1.667
51.1804 1.406
51.2107 2.187
51.2410 1.250
51.2713 2.708
51.3016 1.979
51.3318 2.604
51.3621 2.240
51.3924 1.562
51.4227 2.031
51.4530 1.979
51.4832 1.771
51.5135 2.187
51.5438 1.510
51.5741 2.135
51.6043 1.979
51.6346 1.354
51.6649 2.031
51.6952 2.344
51.7255 2.135
51.7557 1.979
51.7860 1.979
51.8163 1.771
51.8466 1.615
51.8769 1.823
51.9071 2.031
51.9374 1.979
51.9677 1.510
51.9980 1.875
52.0282 2.240
52.0585 2.187
52.0888 1.302
52.1191 1.927
52.1494 1.875
52.1796 2.187
52.2099 1.927
52.2402 1.927
52.2705 1.771
52.3008 1.927
52.3310 1.615
52.3613 2.187
52.3916 2.292
52.4219 2.083
52.4521 1.823
52.4824 1.719
52.5127 2.135
52.5430 2.708
52.5733 2.083
52.6035 2.500
52.6338 1.979
52.6641 2.187
52.6944 1.719
52.7247 1.667
52.7549 2.135
52.7852 1.771
52.8155 2.031
52.8458 2.135
52.8761 1.458
52.9063 1.771
52.9366 2.031
52.9669 2.031
52.9972 1.667
53.0274 2.187
53.0577 2.083
53.0880 2.448
53.1183 1.667
53.1486 2.083
53.1788 2.604
53.2091 2.344
53.2394 1.979
53.2697 2.240
53.3000 1.719
53.3302 2.396
53.3605 1.719
53.3908 2.031
53.4211 2.292
53.4513 2.083
53.4816 2.240
53.5119 2.187
53.5422 1.823
53.5725 1.979
53.6027 2.396
53.6330 1.354
53.6633 2.448
53.6936 2.396
53.7239 1.875
53.7541 1.667
53.7844 1.562
53.8147 1.927
53.8450 2.083
53.8752 1.562
53.9055 2.083
53.9358 1.979
53.9661 1.771
53.9964 2.083
54.0266 2.396
54.0569 2.240
54.0872 2.083
54.1175 2.083
54.1478 1.667
54.1780 1.979
54.2083 2.135
54.2386 1.615
54.2689 2.031
54.2991 2.031
54.3294 2.031
54.3597 1.875
54.3900 1.771
54.4203 2.135
54.4505 2.552
54.4808 2.292
54.5111 2.760
54.5414 2.240
54.5717 2.604
54.6019 1.823
54.6322 2.031
54.6625 2.292
54.6928 1.875
54.7230 2.969
54.7533 2.448
54.7836 2.448
54.8139 1.875
54.8442 2.344
54.8744 2.135
54.9047 2.031
54.9350 2.812
54.9653 2.292
54.9956 3.021
55.0258 2.552
55.0561 2.500
55.0864 2.760
55.1167 1.979
55.1469 3.333
55.1772 2.969
55.2075 2.240
55.2378 2.187
55.2681 3.333
55.2983 3.073
55.3286 2.865
55.3589 3.333
55.3892 2.812
55.4195 2.031
55.4497 2.865
55.4800 2.656
55.5103 2.812
55.5406 3.437
55.5709 3.437
55.6011 3.125
55.6314 3.906
55.6617 3.229
55.6920 3.437
55.7222 3.490
55.7525 4.531
55.7828 4.271
55.8131 3.854
55.8434 4.010
55.8736 4.167
55.9039 5.573
55.9342 5.469
55.9645 5.260
55.9948 5.000
56.0250 5.365
56.0553 6.615
56.0856 7.969
56.1159 7.552
56.1461 9.844
56.1764 9.740
56.2067 10.521
56.2370 11.771
56.2673 12.344
56.2975 12.396
56.3278 14.531
56.3581 17.396
56.3884 18.281
56.4187 19.948
56.4489 20.000
56.4792 19.167
56.5095 20.104
56.5398 18.281
56.5700 20.104
56.6003 17.812
56.6306 14.375
56.6609 14.323
56.6912 12.812
56.7214 11.250
56.7517 10.156
56.7820 10.729
56.8123 9.010
56.8426 8.333
56.8728 8.333
56.9031 7.344
56.9334 6.198
56.9637 5.937
56.9939 5.573
57.0242 6.094
57.0545 5.156
57.0848 5.260
57.1151 5.208
57.1453 4.167
57.1756 4.115
57.2059 3.906
57.2362 4.531
57.2665 3.542
57.2967 3.281
57.3270 2.917
57.3573 2.656
57.3876 2.917
57.4178 3.333
57.4481 3.177
57.4784 3.542
57.5087 2.760
57.5390 3.125
57.5692 2.604
57.5995 2.604
57.6298 3.125
57.6601 1.875
57.6904 2.187
57.7206 2.240
57.7509 2.448
57.7812 2.135
57.8115 2.865
57.8417 2.135
57.8720 2.865
57.9023 1.927
57.9326 2.083
57.9629 2.448
57.9931 1.875
58.0234 2.135
58.0537 2.031
58.0840 2.240
58.1143 2.240
58.1445 1.979
58.1748 2.500
58.2051 2.448
58.2354 2.552
58.2656 2.031
58.2959 2.344
58.3262 2.292
58.3565 2.292
58.3868 1.875
58.4170 2.187
58.4473 1.562
58.4776 2.656
58.5079 2.187
58.5382 1.979
58.5684 2.135
58.5987 2.187
58.6290 2.344
58.6593 1.979
58.6896 1.875
58.7198 2.187
58.7501 1.615
58.7804 2.448
58.8107 1.667
58.8409 2.448
58.8712 2.708
58.9015 2.448
58.9318 2.135
58.9621 2.031
58.9923 1.927
59.0226 2.135
59.0529 1.875
59.0832 1.823
59.1135 1.615
59.1437 2.448
59.1740 2.187
59.2043 2.083
59.2346 2.135
59.2648 1.875
59.2951 1.615
59.3254 2.812
59.3557 1.875
59.3860 2.083
59.4162 2.031
59.4465 1.979
59.4768 2.448
59.5071 2.240
59.5374 1.667
59.5676 2.240
59.5979 1.562
59.6282 1.615
59.6585 2.292
59.6887 2.656
59.7190 2.187
59.7493 1.875
59.7796 1.875
59.8099 2.135
59.8401 1.719
59.8704 2.083
59.9007 1.979
59.9310 2.135
59.9613 1.927
59.9915 1.927
60.0218 2.292
60.0521 1.510
60.0824 2.135
60.1126 2.500
60.1429 2.604
60.1732 1.719
60.2035 2.448
60.2338 2.448
60.2640 1.823
60.2943 1.875
60.3246 2.187
60.3549 2.448
60.3852 2.396
60.4154 1.823
60.4457 1.823
60.4760 2.031
60.5063 2.083
60.5365 2.292
60.5668 2.500
60.5971 1.667
60.6274 2.135
60.6577 2.031
60.6879 3.073
60.7182 2.344
60.7485 1.719
60.7788 1.823
60.8091 1.771
60.8393 1.875
60.8696 2.083
60.8999 2.396
60.9302 1.823
60.9604 3.125
60.9907 1.771
61.0210 2.604
61.0513 2.187
61.0816 2.396
61.1118 1.823
61.1421 2.552
61.1724 2.083
61.2027 2.135
61.2330 2.240
61.2632 1.719
61.2935 1.927
61.3238 1.875
61.3541 2.552
61.3844 2.865
61.4146 1.771
61.4449 2.448
61.4752 2.135
61.5055 2.448
61.5357 2.865
61.5660 2.135
61.5963 2.969
61.6266 2.396
61.6569 2.812
61.6871 2.760
61.7174 2.812
61.7477 2.187
61.7780 2.604
61.8083 2.865
61.8385 2.708
61.8688 2.812
61.8991 2.969
61.9294 2.812
61.9596 2.865
61.9899 3.437
62.0202 3.542
62.0505 2.812
62.0808 4.219
62.1110 3.854
62.1413 3.854
62.1716 3.906
62.2019 4.427
62.2322 5.052
62.2624 4.687
62.2927 5.469
62.3230 5.156
62.3533 6.771
62.3835 6.458
62.4138 6.562
62.4441 8.073
62.4744 8.750
62.5047 9.948
62.5349 10.417
62.5652 13.646
62.5955 12.917
62.6258 14.271
62.6561 15.729
62.6863 15.000
62.7166 17.448
62.7469 17.656
62.7772 16.250
62.8074 15.365
62.8377 14.531
62.8680 13.854
62.8983 13.437
62.9286 13.229
62.9588 11.875
62.9891 10.521
63.0194 9.687
63.0497 9.271
63.0800 8.698
63.1102 8.177
63.1405 6.510
63.1708 6.875
63.2011 5.625
63.2313 4.375
63.2616 5.365
63.2919 4.792
63.3222 4.896
63.3525 3.802
63.3827 5.052
63.4130 3.594
63.4433 2.760
63.4736 4.062
63.5039 3.542
63.5341 3.281
63.5644 2.760
63.5947 3.177
63.6250 3.385
63.6552 2.344
63.6855 3.229
63.7158 2.500
63.7461 3.177
63.7764 3.073
63.8066 3.229
63.8369 3.021
63.8672 2.344
63.8975 2.760
63.9278 2.865
63.9580 2.187
63.9883 2.917
64.0186 2.083
64.0489 2.604
64.0791 2.552
64.1094 2.500
64.1397 1.875
64.1700 2.083
64.2003 2.083
64.2305 1.979
64.2608 2.135
64.2911 2.604
64.3214 2.396
64.3517 2.344
64.3819 2.031
64.4122 1.823
64.4425 2.135
64.4728 2.031
64.5031 3.021
64.5333 2.083
64.5636 2.240
64.5939 2.292
64.6242 2.344
64.6544 1.875
64.6847 1.927
64.7150 1.875
64.7453 2.448
64.7756 2.500
64.8058 2.448
64.8361 1.927
64.8664 2.500
64.8967 2.448
64.9270 1.771
64.9572 2.448
64.9875 2.187
65.0178 2.500
65.0481 1.406
65.0783 2.448
65.1086 2.240
65.1389 1.823
65.1692 1.927
65.1995 2.240
65.2297 2.292
65.2600 2.031
65.2903 2.187
65.3206 2.344
65.3509 1.719
65.3811 2.448
65.4114 2.552
65.4417 2.396
65.4720 2.865
65.5022 2.135
65.5325 2.656
65.5628 2.083
65.5931 2.448
65.6234 1.979
65.6536 2.292
65.6839 2.031
65.7142 3.073
65.7445 2.187
65.7748 2.656
65.8050 2.500
65.8353 2.812
65.8656 3.021
65.8959 2.969
65.9261 2.448
65.9564 2.708
65.9867 3.542
66.0170 3.646
66.0473 3.073
66.0775 3.437
66.1078 4.062
66.1381 4.479
66.1684 4.271
66.1987 3.750
66.2289 4.896
66.2592 4.479
66.2895 3.073
66.3198 4.479
66.3500 3.698
66.3803 3.333
66.4106 4.062
66.4409 3.646
66.4712 4.271
66.5014 4.635
66.5317 3.490
66.5620 4.323
66.5923 3.229
66.6226 3.490
66.6528 2.865
66.6831 2.917
66.7134 3.490
66.7437 2.708
66.7739 2.865
66.8042 3.021
66.8345 3.437
66.8648 2.604
66.8951 2.969
66.9253 2.812
66.9556 3.698
66.9859 3.281
67.0162 3.333
67.0465 2.448
67.0767 3.906
67.1070 4.219
67.1373 3.490
67.1676 3.698
67.1978 3.437
67.2281 3.854
67.2584 4.479
67.2887 4.896
67.3190 4.167
67.3492 4.583
67.3795 4.427
67.4098 5.729
67.4401 6.719
67.4704 6.042
67.5006 6.406
67.5309 6.979
67.5612 6.562
67.5915 9.219
67.6218 7.917
67.6520 9.687
67.6823 9.375
67.7126 10.729
67.7429 11.094
67.7731 12.552
67.8034 12.448
67.8337 11.250
67.8640 12.240
67.8943 11.615
67.9245 12.292
67.9548 11.302
67.9851 10.781
68.0154 10.990
68.0457 9.792
68.0759 9.167
68.1062 8.594
68.1365 6.875
68.1668 8.490
68.1970 6.667
68.2273 6.823
68.2576 6.510
68.2879 5.990
68.3182 5.104
68.3484 4.740
68.3787 5.260
68.4090 5.469
68.4393 5.417
68.4696 5.573
68.4998 5.104
68.5301 4.687
68.5604 4.271
68.5907 4.740
68.6209 5.573
68.6512 5.990
68.6815 6.042
68.7118 6.250
68.7421 6.198
68.7723 6.146
68.8026 6.354
68.8329 6.667
68.8632 6.094
68.8935 6.406
68.9237 6.458
68.9540 6.771
68.9843 6.719
69.0146 6.562
69.0448 6.250
69.0751 6.094
69.1054 5.417
69.1357 5.833
69.1660 5.052
69.1962 4.323
69.2265 4.948
69.2568 5.885
69.2871 4.323
69.3174 4.948
69.3476 4.583
69.3779 4.896
69.4082 3.802
69.4385 3.646
69.4687 2.604
69.4990 3.021
69.5293 3.021
69.5596 2.604
69.5899 2.604
69.6201 2.292
69.6504 2.500
69.6807 2.812
69.7110 2.604
69.7413 2.656
69.7715 2.656
69.8018 2.500
69.8321 2.135
69.8624 2.240
69.8926 1.615
69.9229 1.979
69.9532 2.656
69.9835 1.927
70.0138 2.135
70.0440 2.031
70.0743 1.875
70.1046 2.448
70.1349 1.562
70.1652 2.708
70.1954 1.875
70.2257 1.719
70.2560 2.187
70.2863 1.771
70.3166 2.187
70.3468 1.719
70.3771 1.562
70.4074 1.562
70.4377 2.083
70.4679 1.302
70.4982 1.667
70.5285 2.187
70.5588 1.771
70.5891 1.250
70.6193 1.406
70.6496 2.292
70.6799 1.354
70.7102 1.458
70.7405 1.458
70.7707 1.771
70.8010 1.823
70.8313 1.354
70.8616 1.562
70.8918 1.719
70.9221 1.771
70.9524 1.562
70.9827 1.771
71.0130 2.083
71.0432 1.250
71.0735 2.187
71.1038 1.823
71.1341 2.083
71.1644 1.250
71.1946 1.823
71.2249 1.771
71.2552 1.927
71.2855 1.198
71.3157 1.927
71.3460 1.198
71.3763 1.146
71.4066 1.354
71.4369 1.458
71.4671 1.719
71.4974 1.562
71.5277 1.458
71.5580 2.240
71.5883 2.240
71.6185 1.042
71.6488 1.354
71.6791 1.719
71.7094 1.458
71.7396 1.771
71.7699 1.771
71.8002 1.927
71.8305 1.719
71.8608 1.875
71.8910 1.042
71.9213 1.771
71.9516 1.771
71.9819 1.458
72.0122 1.771
72.0424 1.927
72.0727 1.979
72.1030 1.458
72.1333 1.719
72.1635 2.292
72.1938 1.823
72.2241 2.240
72.2544 2.292
72.2847 2.240
72.3149 1.719
72.3452 1.875
72.3755 2.760
72.4058 2.552
72.4361 1.615
72.4663 1.771
72.4966 2.812
72.5269 2.708
72.5572 2.240
72.5874 2.083
72.6177 2.031
72.6480 2.552
72.6783 2.031
72.7086 2.240
72.7388 1.771
72.7691 1.875
72.7994 1.667
72.8297 1.562
72.8600 1.562
72.8902 1.406
72.9205 1.354
72.9508 1.458
72.9811 1.719
73.0113 1.198
73.0416 1.458
73.0719 1.302
73.1022 1.354
73.1325 1.458
73.1627 1.562
73.1930 1.510
73.2233 1.771
73.2536 1.094
73.2839 2.083
73.3141 1.719
73.3444 1.667
73.3747 1.250
73.4050 1.354
73.4353 1.562
73.4655 1.510
73.4958 1.562
73.5261 1.198
73.5564 1.719
73.5866 1.510
73.6169 1.875
73.6472 1.667
73.6775 1.406
73.7078 1.667
73.7380 1.302
73.7683 1.302
73.7986 1.719
73.8289 1.250
73.8592 1.250
73.8894 1.562
73.9197 1.146
73.9500 1.302
73.9803 1.354
74.0105 1.302
74.0408 1.198
74.0711 1.198
74.1014 1.250
74.1317 1.510
74.1619 1.042
74.1922 1.094
74.2225 1.250
74.2528 1.458
74.2831 1.719
74.3133 1.354
74.3436 1.510
74.3739 1.094
74.4042 1.302
74.4344 1.510
74.4647 1.198
74.4950 1.562
74.5253 1.458
74.5556 1.042
74.5858 1.406
74.6161 1.198
74.6464 1.198
74.6767 1.094
74.7070 1.354
74.7372 1.198
74.7675 0.990
74.7978 1.354
74.8281 1.302
74.8583 1.198
74.8886 1.198
74.9189 1.198
74.9492 1.302
74.9795 1.771
75.0097 1.667
75.0400 1.406
75.0703 1.198
75.1006 1.458
75.1309 1.458
75.1611 1.198
75.1914 1.250
75.2217 1.458
75.2520 1.302
75.2822 1.302
75.3125 0.937
75.3428 1.354
75.3731 0.885
75.4034 1.302
75.4336 1.198
75.4639 1.302
75.4942 1.198
75.5245 1.719
75.5548 1.719
75.5850 1.510
75.6153 1.302
75.6456 1.354
75.6759 0.885
75.7061 1.823
75.7364 1.458
75.7667 1.198
75.7970 1.094
75.8273 1.250
75.8575 1.354
75.8878 2.292
75.9181 1.510
75.9484 1.823
75.9787 1.042
76.0089 1.875
76.0392 1.302
76.0695 1.042
76.0998 1.354
76.1301 1.562
76.1603 1.198
76.1906 1.458
76.2209 1.406
76.2512 1.302
76.2814 1.771
76.3117 2.240
76.3420 2.031
76.3723 2.031
76.4026 1.823
76.4328 1.979
76.4631 1.771
76.4934 2.083
76.5237 2.344
76.5540 1.979
76.5842 1.927
76.6145 2.396
76.6448 1.979
76.6751 2.187
76.7053 1.979
76.7356 2.760
76.7659 2.292
76.7962 2.240
76.8265 2.917
76.8567 2.708
76.8870 3.177
76.9173 2.917
76.9476 2.604
76.9779 3.125
77.0081 2.135
77.0384 2.656
77.0687 2.240
77.0990 2.396
77.1292 2.812
77.1595 2.031
77.1898 2.292
77.2201 1.146
77.2504 2.187
77.2806 2.135
77.3109 2.135
77.3412 1.250
77.3715 1.406
77.4018 1.406
77.4320 1.979
77.4623 1.562
77.4926 1.354
77.5229 1.354
77.5531 1.562
77.5834 1.719
77.6137 1.875
77.6440 1.510
77.6743 1.927
77.7045 1.354
77.7348 1.875
77.7651 1.094
77.7954 1.094
77.8257 1.146
77.8559 1.198
77.8862 1.667
77.9165 0.990
77.9468 1.302
77.9770 1.615
78.0073 1.562
78.0376 1.042
78.0679 1.458
78.0982 1.042
78.1284 1.354
78.1587 1.458
78.1890 1.562
78.2193 1.615
78.2496 1.719
78.2798 1.198
78.3101 1.094
78.3404 1.458
78.3707 1.719
78.4009 0.885
78.4312 1.719
78.4615 1.719
78.4918 0.833
78.5221 0.990
78.5523 1.562
78.5826 1.354
78.6129 1.458
78.6432 0.937
78.6735 1.302
78.7037 1.250
78.7340 1.354
78.7643 1.198
78.7946 1.406
78.8248 0.990
78.8551 1.198
78.8854 1.354
78.9157 1.615
78.9460 1.510
78.9762 1.510
79.0065 0.990
79.0368 1.354
79.0671 1.667
79.0974 1.458
79.1276 1.250
79.1579 1.198
79.1882 1.042
79.2185 0.937
79.2488 1.302
79.2790 1.302
79.3093 1.562
79.3396 1.250
79.3699 1.302
79.4001 1.250
79.4304 1.510
79.4607 1.146
79.4910 1.042
79.5213 0.937
79.5515 1.458
79.5818 1.667
79.6121 1.094
79.6424 1.250
79.6727 1.406
79.7029 1.146
79.7332 1.406
79.7635 1.302
79.7938 1.875
79.8240 1.771
79.8543 1.198
79.8846 1.719
79.9149 0.990
79.9452 1.146
79.9754 1.198
80.0057 1.198
80.0360 1.094
80.0663 0.990
80.0966 1.094
80.1268 1.719
80.1571 1.458
80.1874 1.510
80.2177 1.146
80.2479 1.198
80.2782 1.250
80.3085 1.146
80.3388 1.510
80.3691 1.250
80.3993 1.302
80.4296 1.406
80.4599 1.667
80.4902 2.031
80.5205 1.615
80.5507 1.250
80.5810 1.458
80.6113 1.198
80.6416 1.198
80.6718 1.250
80.7021 1.250
80.7324 1.667
80.7627 1.458
80.7930 1.458
80.8232 1.510
80.8535 1.667
80.8838 1.510
80.9141 1.562
80.9444 1.771
80.9746 1.615
81.0049 1.406
81.0352 1.458
81.0655 1.302
81.0957 1.979
81.1260 1.927
81.1563 2.135
81.1866 1.667
81.2169 2.187
81.2471 1.667
81.2774 1.719
81.3077 1.354
81.3380 2.292
81.3683 1.667
81.3985 1.771
81.4288 2.396
81.4591 2.083
81.4894 1.406
81.5196 1.667
81.5499 1.771
81.5802 1.406
81.6105 1.667
81.6408 1.354
81.6710 1.094
81.7013 1.510
81.7316 1.406
81.7619 1.302
81.7922 1.719
81.8224 0.885
81.8527 1.302
81.8830 1.406
81.9133 1.458
81.9436 0.781
81.9738 1.562
82.0041 1.406
82.0344 1.562
82.0647 1.510
82.0949 1.042
82.1252 1.771
82.1555 0.833
82.1858 1.354
82.2161 1.198
82.2463 1.406
82.2766 0.990
82.3069 1.042
82.3372 1.250
82.3675 1.458
82.3977 1.458
82.4280 1.198
82.4583 1.302
82.4886 1.354
82.5188 1.198
82.5491 1.198
82.5794 1.667
82.6097 1.354
82.6400 1.198
82.6702 1.562
82.7005 0.729
82.7308 1.198
82.7611 1.510
82.7914 1.406
82.8216 1.510
82.8519 1.250
82.8822 1.198
82.9125 0.990
82.9427 1.875
82.9730 1.562
83.0033 1.562
83.0336 1.146
83.0639 0.729
83.0941 1.198
83.1244 1.302
83.1547 1.198
83.1850 1.667
83.2153 1.667
83.2455 1.406
83.2758 1.354
83.3061 1.302
83.3364 1.406
83.3666 1.719
83.3969 1.146
83.4272 1.510
83.4575 1.406
83.4878 1.406
83.5180 1.406
83.5483 1.458
83.5786 1.198
83.6089 1.042
83.6392 0.833
83.6694 1.198
83.6997 1.510
83.7300 1.198
83.7603 1.302
83.7905 1.562
83.8208 1.354
83.8511 1.146
83.8814 1.354
83.9117 1.302
83.9419 0.781
83.9722 0.990
84.0025 1.250
84.0328 1.094
84.0631 1.406
84.0933 1.198
84.1236 1.354
84.1539 1.354
84.1842 1.510
84.2144 0.937
84.2447 1.562
84.2750 1.667
84.3053 1.771
84.3356 1.250
84.3658 1.250
84.3961 1.458
84.4264 0.729
84.4567 0.990
84.4870 1.510
84.5172 1.823
84.5475 1.562
84.5778 1.406
84.6081 1.406
84.6383 1.042
84.6686 0.990
84.6989 1.562
84.7292 1.198
84.7595 1.458
84.7897 1.667
84.8200 1.302
84.8503 1.354
84.8806 1.094
84.9109 1.250
84.9411 1.198
84.9714 1.354
85.0017 1.406
85.0320 1.667
85.0623 0.990
85.0925 0.937
85.1228 1.146
85.1531 1.667
85.1834 0.833
85.2136 1.510
85.2439 1.406
85.2742 0.990
85.3045 0.729
85.3348 1.198
85.3650 0.781
85.3953 1.198
85.4256 1.562
85.4559 1.094
85.4862 1.719
85.5164 2.135
85.5467 0.990
85.5770 1.198
85.6073 1.094
85.6375 1.198
85.6678 1.354
85.6981 1.146
85.7284 1.094
85.7587 1.302
85.7889 1.250
85.8192 1.042
85.8495 0.990
85.8798 0.990
85.9101 0.833
85.9403 1.146
85.9706 1.354
86.0009 1.042
86.0312 1.510
86.0614 1.198
86.0917 1.458
86.1220 1.198
86.1523 0.833
86.1826 1.146
86.2128 1.146
86.2431 1.042
86.2734 1.198
86.3037 1.875
86.3340 1.615
86.3642 1.198
86.3945 1.042
86.4248 1.250
86.4551 1.198
86.4853 1.198
86.5156 0.833
86.5459 0.990
86.5762 1.198
86.6065 1.198
86.6367 1.250
86.6670 1.406
86.6973 1.198
86.7276 1.354
86.7579 0.625
86.7881 1.302
86.8184 1.146
86.8487 1.406
86.8790 1.615
86.9092 1.250
86.9395 1.302
86.9698 1.198
87.0001 0.990
87.0304 1.458
87.0606 1.094
87.0909 1.562
87.1212 0.990
87.1515 1.146
87.1818 1.146
87.2120 1.042
87.2423 1.250
87.2726 1.354
87.3029 1.458
87.3331 1.094
87.3634 1.406
87.3937 1.510
87.4240 1.198
87.4543 1.302
87.4845 1.198
87.5148 1.406
87.5451 1.667
87.5754 1.042
87.6057 1.198
87.6359 0.990
87.6662 0.833
87.6965 1.042
87.7268 1.250
87.7571 0.625
87.7873 1.250
87.8176 0.990
87.8479 0.937
87.8782 1.302
87.9084 1.198
87.9387 1.667
87.9690 1.250
87.9993 1.146
88.0296 0.990
88.0598 1.354
88.0901 1.094
88.1204 1.094
88.1507 1.250
88.1810 1.354
88.2112 0.729
88.2415 1.510
88.2718 1.510
88.3021 1.250
88.3323 1.875
88.3626 1.198
88.3929 1.094
88.4232 1.771
88.4535 1.562
88.4837 1.667
88.5140 1.510
88.5443 1.458
88.5746 1.510
88.6049 1.771
88.6351 1.771
88.6654 1.875
88.6957 2.083
88.7260 1.875
88.7562 1.458
88.7865 2.135
88.8168 1.615
88.8471 2.135
88.8774 1.823
88.9076 1.719
88.9379 2.187
88.9682 1.979
88.9985 2.135
89.0288 2.344
89.0590 2.448
89.0893 2.135
89.1196 1.719
89.1499 2.187
89.1801 2.708
89.2104 2.344
89.2407 2.031
89.2710 3.021
89.3013 2.969
89.3315 2.760
89.3618 3.594
89.3921 3.542
89.4224 3.229
89.4527 3.906
89.4829 3.854
89.5132 2.760
89.5435 3.906
89.5738 3.490
89.6040 3.542
89.6343 3.073
89.6646 3.854
89.6949 3.073
89.7252 3.281
89.7554 2.760
89.7857 3.177
89.8160 2.917
89.8463 3.229
89.8766 2.865
89.9068 2.396
89.9371 2.344
89.9674 2.187
89.9977 2.344
90.0279 2.448
90.0582 2.500
90.0885 2.135
90.1188 1.719
90.1491 2.031
90.1793 1.667
90.2096 1.771
90.2399 2.344
90.2702 2.396
90.3005 1.927
90.3307 1.979
90.3610 1.302
90.3913 1.615
90.4216 1.406
90.4518 1.562
90.4821 1.615
90.5124 1.823
90.5427 1.458
90.5730 1.615
90.6032 1.667
90.6335 1.719
90.6638 1.198
90.6941 1.562
90.7244 1.510
90.7546 1.875
90.7849 1.667
90.8152 1.042
90.8455 2.135
90.8758 1.198
90.9060 1.406
90.9363 1.354
90.9666 1.198
90.9969 1.146
91.0271 0.937
91.0574 1.458
91.0877 1.615
91.1180 1.823
91.1483 1.667
91.1785 1.406
91.2088 1.667
91.2391 1.458
91.2694 0.781
91.2997 1.406
91.3299 1.250
91.3602 1.823
91.3905 0.990
91.4208 1.250
91.4510 1.719
91.4813 1.719
91.5116 1.198
91.5419 1.250
91.5722 1.510
91.6024 1.250
91.6327 1.667
91.6630 1.771
91.6933 1.667
91.7236 0.573
91.7538 1.771
91.7841 1.354
91.8144 1.250
91.8447 1.458
91.8749 1.875
91.9052 1.302
91.9355 0.990
91.9658 1.771
91.9961 1.562
92.0263 1.667
92.0566 1.615
92.0869 1.458
92.1172 1.354
92.1475 1.458
92.1777 1.562
92.2080 1.927
92.2383 1.875
92.2686 1.615
92.2988 1.771
92.3291 1.667
92.3594 1.875
92.3897 1.667
92.4200 2.083
92.4502 1.823
92.4805 2.500
92.5108 1.667
92.5411 2.604
92.5714 2.604
92.6016 3.021
92.6319 2.187
92.6622 1.719
92.6925 1.823
92.7227 1.979
92.7530 2.187
92.7833 1.927
92.8136 1.875
92.8439 1.562
92.8741 2.396
92.9044 2.292
92.9347 2.187
92.9650 1.719
92.9953 1.771
93.0255 1.823
93.0558 1.667
93.0861 1.250
93.1164 1.615
93.1466 1.667
93.1769 1.771
93.2072 1.667
93.2375 1.979
93.2678 1.510
93.2980 1.562
93.3283 1.667
93.3586 2.187
93.3889 1.510
93.4192 1.615
93.4494 1.146
93.4797 1.198
93.5100 1.042
93.5403 1.354
93.5706 1.823
93.6008 1.771
93.6311 1.667
93.6614 1.458
93.6917 1.198
93.7219 1.667
93.7522 1.198
93.7825 1.615
93.8128 1.198
93.8431 1.250
93.8733 1.198
93.9036 1.667
93.9339 1.458
93.9642 1.875
93.9945 1.146
94.0247 1.458
94.0550 1.719
94.0853 1.615
94.1156 1.406
94.1458 1.719
94.1761 1.771
94.2064 1.510
94.2367 1.667
94.2670 1.406
94.2972 2.240
94.3275 1.510
94.3578 1.719
94.3881 1.719
94.4184 1.771
94.4486 1.198
94.4789 1.615
94.5092 2.187
94.5395 1.823
94.5697 1.562
94.6000 2.344
94.6303 1.979
94.6606 1.562
94.6909 2.031
94.7211 1.667
94.7514 2.083
94.7817 1.875
94.8120 2.240
94.8423 2.396
94.8725 2.969
94.9028 2.969
94.9331 2.656
94.9634 3.490
94.9936 2.917
95.0239 3.229
95.0542 3.229
95.0845 2.760
95.1148 3.437
95.1450 3.594
95.1753 3.906
95.2056 3.490
95.2359 3.125
95.2662 3.333
95.2964 2.865
95.3267 3.333
95.3570 3.854
95.3873 3.177
95.4175 2.760
95.4478 2.187
95.4781 3.177
95.5084 3.385
95.5387 2.604
95.5689 3.437
95.5992 2.604
95.6295 2.448
95.6598 2.552
95.6901 2.344
95.7203 2.344
95.7506 2.031
95.7809 1.406
95.8112 2.240
95.8414 1.927
95.8717 2.344
95.9020 2.708
95.9323 1.927
95.9626 1.719
95.9928 1.771
96.0231 1.927
96.0534 2.240
96.0837 1.771
96.1140 1.458
96.1442 1.927
96.1745 1.302
96.2048 1.146
96.2351 1.354
96.2653 1.406
96.2956 1.302
96.3259 1.667
96.3562 1.667
96.3865 1.771
96.4167 1.771
96.4470 1.354
96.4773 1.458
96.5076 1.771
96.5379 1.146
96.5681 1.354
96.5984 1.250
96.6287 1.250
96.6590 2.135
96.6893 1.510
96.7195 1.719
96.7498 1.354
96.7801 1.510
96.8104 1.615
96.8406 1.667
96.8709 1.042
96.9012 1.771
96.9315 1.042
96.9618 1.302
96.9920 1.458
97.0223 1.406
97.0526 1.458
97.0829 1.146
97.1132 1.250
97.1434 1.458
97.1737 1.667
97.2040 1.458
97.2343 1.250
97.2645 1.354
97.2948 1.771
97.3251 1.510
97.3554 1.458
97.3857 1.302
97.4159 1.510
97.4462 1.667
97.4765 1.562
97.5068 1.510
97.5371 1.771
97.5673 1.354
97.5976 1.302
97.6279 1.823
97.6582 1.719
97.6884 1.875
97.7187 1.094
97.7490 1.719
97.7793 2.240
97.8096 1.354
97.8398 1.406
97.8701 2.031
97.9004 1.406
97.9307 1.771
97.9610 2.604
97.9912 1.458
98.0215 2.187
98.0518 1.979
98.0821 1.510
98.1123 1.979
98.1426 1.927
98.1729 1.823
98.2032 2.083
98.2335 1.927
98.2637 1.771
98.2940 2.240
98.3243 1.771
98.3546 2.552
98.3849 2.292
98.4151 2.135
98.4454 2.292
98.4757 2.552
98.5060 2.708
98.5362 1.927
98.5665 2.969
98.5968 3.281
98.6271 2.604
98.6574 2.187
98.6876 1.719
98.7179 2.760
98.7482 2.292
98.7785 1.510
98.8088 2.500
98.8390 2.240
98.8693 2.396
98.8996 2.240
98.9299 1.615
98.9601 1.406
98.9904 1.510
99.0207 1.667
99.0510 1.823
99.0813 1.302
99.1115 2.031
99.1418 1.771
99.1721 1.458
99.2024 1.719
99.2327 1.771
99.2629 1.719
99.2932 1.302
99.3235 1.250
99.3538 1.458
99.3841 1.615
99.4143 1.302
99.4446 1.979
99.4749 1.667
99.5052 1.562
99.5354 1.406
99.5657 1.354
99.5960 1.510
99.6263 1.510
99.6566 1.146
99.6868 1.458
99.7171 1.667
99.7474 1.719
99.7777 1.667
99.8080 1.406
99.8382 1.615
99.8685 1.250
99.8988 1.510
99.9291 1.302
99.9593 1.823
99.9896 1.458
100.0199 1.198
100.0502 1.198
100.0805 1.562
100.1107 1.615
100.1410 1.354
100.1713 0.937
100.2016 1.406
100.2319 1.094
100.2621 1.615
100.2924 1.458
100.3227 1.302
100.3530 1.354
100.3832 1.406
100.4135 1.302
100.4438 1.146
100.4741 1.406
100.5044 1.667
100.5346 1.406
100.5649 1.562
100.5952 1.562
100.6255 1.667
100.6558 1.615
100.6860 2.187
100.7163 1.406
100.7466 1.562
100.7769 1.771
100.8071 2.292
100.8374 1.510
100.8677 1.406
100.8980 1.354
100.9283 1.927
100.9585 1.823
100.9888 1.458
101.0191 1.302
101.0494 1.302
101.0797 1.406
101.1099 0.937
101.1402 1.094
101.1705 1.250
101.2008 1.146
101.2310 1.302
101.2613 1.458
101.2916 1.562
101.3219 1.042
101.3522 1.354
101.3824 1.406
101.4127 1.198
101.4430 0.937
101.4733 1.354
101.5036 1.406
101.5338 1.615
101.5641 0.677
101.5944 1.094
101.6247 1.354
101.6549 1.562
101.6852 1.667
101.7155 1.875
101.7458 1.615
101.7761 1.042
101.8063 1.406
101.8366 1.562
101.8669 1.510
101.8972 1.562
101.9275 0.833
101.9577 1.354
101.9880 1.458
102.0183 1.354
102.0486 1.146
102.0788 1.979
102.1091 1.510
102.1394 1.458
102.1697 1.771
102.2000 1.198
102.2302 1.667
102.2605 1.719
102.2908 2.031
102.3211 2.135
102.3514 2.187
102.3816 1.771
102.4119 1.458
102.4422 1.354
102.4725 1.302
102.5028 1.875
102.5330 1.875
102.5633 2.187
102.5936 1.875
102.6239 2.292
102.6541 2.083
102.6844 2.500
102.7147 1.458
102.7450 1.875
102.7753 2.240
102.8055 2.135
102.8358 1.719
102.8661 2.031
102.8964 2.031
102.9267 2.604
102.9569 1.979
102.9872 2.240
103.0175 1.875
103.0478 2.396
103.0780 2.240
103.1083 2.344
103.1386 2.344
103.1689 2.031
103.1992 2.240
103.2294 1.667
103.2597 2.292
103.2900 1.927
103.3203 2.292
103.3506 2.135
103.3808 2.500
103.4111 2.187
103.4414 2.656
103.4717 2.448
103.5019 1.615
103.5322 1.979
103.5625 2.760
103.5928 2.396
103.6231 1.771
103.6533 2.708
103.6836 2.031
103.7139 2.135
103.7442 2.552
103.7745 2.500
103.8047 2.865
103.8350 2.187
103.8653 3.125
103.8956 3.021
103.9258 2.812
103.9561 2.500
103.9864 3.021
104.0167 3.073
104.0470 3.021
104.0772 3.177
104.1075 2.656
104.1378 3.229
104.1681 2.552
104.1984 2.500
104.2286 2.656
104.2589 2.500
104.2892 3.125
104.3195 1.927
104.3497 2.760
104.3800 2.969
104.4103 2.500
104.4406 2.083
104.4709 2.083
104.5011 2.500
104.5314 3.073
104.5617 1.979
104.5920 1.979
104.6223 1.979
104.6525 2.344
104.6828 1.927
104.7131 2.187
104.7434 1.458
104.7736 1.667
104.8039 1.198
104.8342 1.562
104.8645 1.667
104.8948 1.562
104.9250 1.615
104.9553 1.615
104.9856 1.719
105.0159 1.354
105.0462 1.510
105.0764 1.458
105.1067 1.250
105.1370 1.302
105.1673 1.719
105.1975 1.458
105.2278 1.406
105.2581 1.979
105.2884 2.031
105.3187 1.875
105.3489 1.615
105.3792 1.302
105.4095 1.406
105.4398 1.146
105.4701 1.406
105.5003 1.406
105.5306 1.615
105.5609 1.406
105.5912 1.719
105.6215 1.094
105.6517 1.458
105.6820 1.615
105.7123 1.250
105.7426 1.094
105.7728 1.354
105.8031 1.250
105.8334 1.354
105.8637 1.458
105.8940 1.615
105.9242 1.562
105.9545 1.094
105.9848 1.146
106.0151 1.458
106.0454 1.198
106.0756 1.771
106.1059 1.458
106.1362 1.042
106.1665 1.042
106.1967 1.406
106.2270 1.615
106.2573 1.406
106.2876 1.302
106.3179 1.250
106.3481 1.510
106.3784 1.354
106.4087 1.146
106.4390 1.302
106.4693 1.615
106.4995 1.146
106.5298 1.354
106.5601 1.458
106.5904 1.354
106.6206 1.406
106.6509 1.615
106.6812 1.198
106.7115 0.833
106.7418 1.406
106.7720 1.198
106.8023 1.458
106.8326 1.719
106.8629 1.406
106.8932 1.562
106.9234 1.719
106.9537 1.250
106.9840 1.510
107.0143 1.875
107.0445 1.667
107.0748 1.406
107.1051 1.458
107.1354 2.187
107.1657 1.823
107.1959 1.458
107.2262 0.937
107.2565 1.302
107.2868 1.562
107.3171 1.094
107.3473 1.406
107.3776 1.458
107.4079 1.510
107.4382 1.250
107.4684 1.979
107.4987 1.562
107.5290 1.458
107.5593 1.094
107.5896 2.031
107.6198 1.510
107.6501 1.458
107.6804 1.406
107.7107 1.510
107.7410 1.510
107.7712 1.771
107.8015 1.406
107.8318 1.354
107.8621 1.250
107.8923 0.990
107.9226 1.927
107.9529 1.198
107.9832 1.615
108.0135 1.667
108.0437 1.302
108.0740 1.510
108.1043 1.510
108.1346 1.719
108.1649 1.458
108.1951 0.885
108.2254 1.510
108.2557 1.510
108.2860 1.094
108.3163 1.302
108.3465 1.667
108.3768 0.885
108.4071 1.406
108.4374 1.354
108.4676 1.510
108.4979 1.354
108.5282 0.990
108.5585 1.771
108.5888 1.510
108.6190 1.510
108.6493 1.667
108.6796 1.562
108.7099 1.406
108.7402 1.406
108.7704 1.146
108.8007 1.823
108.8310 1.146
108.8613 0.937
108.8915 1.406
108.9218 1.406
108.9521 0.937
108.9824 1.302
109.0127 1.615
109.0429 1.562
109.0732 1.667
109.1035 1.771
109.1338 1.198
109.1641 1.302
109.1943 1.406
109.2246 1.354
109.2549 1.198
109.2852 1.250
109.3154 2.187
109.3457 1.979
109.3760 2.135
109.4063 2.031
109.4366 1.615
109.4668 0.937
109.4971 1.719
109.5274 1.562
109.5577 1.823
109.5880 1.719
109.6182 1.719
109.6485 1.615
109.6788 1.562
109.7091 1.302
109.7393 1.979
109.7696 1.562
109.7999 1.615
109.8302 1.458
109.8605 1.979
109.8907 2.031
109.9210 0.990
109.9513 1.615
109.9816 2.500
110.0119 1.719
110.0421 1.615
110.0724 1.771
110.1027 2.604
110.1330 1.406
110.1632 1.979
110.1935 2.604
110.2238 2.240
110.2541 1.615
110.2844 2.240
110.3146 1.615
110.3449 1.875
110.3752 2.031
110.4055 2.083
110.4358 1.927
110.4660 2.292
110.4963 1.458
110.5266 1.667
110.5569 2.083
110.5871 1.979
110.6174 2.031
110.6477 1.927
110.6780 1.615
110.7083 1.927
110.7385 1.615
110.7688 1.562
110.7991 1.927
110.8294 1.458
110.8597 1.979
110.8899 1.667
110.9202 2.135
110.9505 1.719
110.9808 1.719
111.0110 1.615
111.0413 1.615
111.0716 1.927
111.1019 2.083
111.1322 1.667
111.1624 1.667
111.1927 2.187
111.2230 1.302
111.2533 1.146
111.2836 1.979
111.3138 1.771
111.3441 1.771
111.3744 1.615
111.4047 1.667
111.4350 1.250
111.4652 1.667
111.4955 1.615
111.5258 1.250
111.5561 1.458
111.5863 1.458
111.6166 1.406
111.6469 1.771
111.6772 1.198
111.7075 1.562
111.7377 1.510
111.7680 1.458
111.7983 1.354
111.8286 1.302
111.8589 1.875
111.8891 1.667
111.9194 1.667
111.9497 1.562
111.9800 1.354
112.0102 1.354
112.0405 1.302
112.0708 1.042
112.1011 1.094
112.1314 1.094
112.1616 1.354
112.1919 1.406
112.2222 1.667
112.2525 1.302
112.2828 1.302
112.3130 1.302
112.3433 0.990
112.3736 1.510
112.4039 1.615
112.4341 0.885
112.4644 1.719
112.4947 1.406
112.5250 1.719
112.5553 1.042
112.5855 1.719
112.6158 1.823
112.6461 1.042
112.6764 1.615
112.7067 1.562
112.7369 1.302
112.7672 1.146
112.7975 1.250
112.8278 1.250
112.8580 1.823
112.8883 1.354
112.9186 0.625
112.9489 1.406
112.9792 1.042
113.0094 1.250
113.0397 1.719
113.0700 1.615
113.1003 1.354
113.1306 1.302
113.1608 1.719
113.1911 1.042
113.2214 1.042
113.2517 1.406
113.2819 1.719
113.3122 0.625
113.3425 1.510
113.3728 1.667
113.4031 1.250
113.4333 1.562
113.4636 1.302
113.4939 1.250
113.5242 2.187
113.5545 1.615
113.5847 1.615
113.6150 1.562
113.6453 1.771
113.6756 1.250
113.7058 1.562
113.7361 1.875
113.7664 1.146
113.7967 1.562
113.8270 1.458
113.8572 1.771
113.8875 1.250
113.9178 1.406
113.9481 1.354
113.9784 1.562
114.0086 1.979
114.0389 1.510
114.0692 1.458
114.0995 1.667
114.1298 1.354
114.1600 1.667
114.1903 1.562
114.2206 1.406
114.2509 1.771
114.2811 1.615
114.3114 1.771
114.3417 1.510
114.3720 1.615
114.4023 1.094
114.4325 1.354
114.4628 1.354
114.4931 1.250
114.5234 1.562
114.5537 1.198
114.5839 0.937
114.6142 1.146
114.6445 1.354
114.6748 1.302
114.7050 1.146
114.7353 1.562
114.7656 1.875
114.7959 2.448
114.8262 0.990
114.8564 1.719
114.8867 1.667
114.9170 1.094
114.9473 1.354
114.9776 1.250
115.0078 1.771
115.0381 1.406
115.0684 1.667
115.0987 1.562
115.1289 1.458
115.1592 1.719
115.1895 1.354
115.2198 2.031
115.2501 1.458
115.2803 2.240
115.3106 1.667
115.3409 1.927
115.3712 1.927
115.4015 1.562
115.4317 1.719
115.4620 2.344
115.4923 2.135
115.5226 2.344
115.5528 2.656
115.5831 2.344
115.6134 1.823
115.6437 2.396
115.6740 2.292
115.7042 2.187
115.7345 2.708
115.7648 1.771
115.7951 2.292
115.8254 2.292
115.8556 2.083
115.8859 2.344
115.9162 3.125
115.9465 2.656
115.9767 2.656
116.0070 2.344
116.0373 2.656
116.0676 2.187
116.0979 2.656
116.1281 3.281
116.1584 3.021
116.1887 2.708
116.2190 2.917
116.2493 3.281
116.2795 2.708
116.3098 3.281
116.3401 3.490
116.3704 2.656
116.4006 3.281
116.4309 2.292
116.4612 2.865
116.4915 2.760
116.5218 2.969
116.5520 2.708
116.5823 2.865
116.6126 3.125
116.6429 3.281
116.6732 2.396
116.7034 2.135
116.7337 3.333
116.7640 2.344
116.7943 2.396
116.8245 2.083
116.8548 2.031
116.8851 2.760
116.9154 1.823
116.9457 2.031
116.9759 2.031
117.0062 2.135
117.0365 1.979
117.0668 2.292
117.0971 1.875
117.1273 1.771
117.1576 1.510
117.1879 1.823
117.2182 2.292
117.2485 1.458
117.2787 1.562
117.3090 1.719
117.3393 1.250
117.3696 1.302
117.3998 1.719
117.4301 1.406
117.4604 1.667
117.4907 1.667
117.5210 1.979
117.5512 1.562
117.5815 1.979
117.6118 1.458
117.6421 1.458
117.6724 1.198
117.7026 1.771
117.7329 1.615
117.7632 1.667
117.7935 1.719
117.8237 1.354
117.8540 1.719
117.8843 0.990
117.9146 1.719
117.9449 1.094
117.9751 1.146
118.0054 1.198
118.0357 1.615
118.0660 1.354
118.0963 1.615
118.1265 1.458
118.1568 1.406
118.1871 1.458
118.2174 1.458
118.2476 1.823
118.2779 1.615
118.3082 1.510
118.3385 1.250
118.3688 1.458
118.3990 1.562
118.4293 1.302
118.4596 1.354
118.4899 1.510
118.5202 1.354
118.5504 1.302
118.5807 1.823
118.6110 1.198
118.6413 0.990
118.6715 1.302
118.7018 1.302
118.7321 1.771
118.7624 1.302
118.7927 1.198
118.8229 1.354
118.8532 1.250
118.8835 1.667
118.9138 0.990
118.9441 1.771
118.9743 1.302
119.0046 1.771
119.0349 1.562
119.0652 0.937
119.0954 1.406
119.1257 1.458
119.1560 1.094
119.1863 1.667
119.2166 1.823
119.2468 1.042
119.2771 1.406
119.3074 1.198
119.3377 1.354
119.3680 1.458
119.3982 0.885
119.4285 1.667
119.4588 1.302
119.4891 1.354
119.5193 1.354
119.5496 2.187
119.5799 1.250
119.6102 0.729
119.6405 0.937
119.6707 1.146
119.7010 1.354
119.7313 1.250
119.7616 1.354
119.7919 1.354
119.8221 1.667
119.8524 1.354
119.8827 1.458
119.9130 1.354
119.9433 1.302
119.9735 1.510
120.0038 1.823
