'Id: "" Comment: "" Operator: "Lab Manager" Anode: "Cu" Scantype: "Locked Coupled" TimePerStep: "19.2" X: "9999" Y: "9999" Z: "9999" 
10.0015 2.865
10.0318 2.396
10.0620 3.125
10.0923 3.281
10.1226 2.760
10.1529 3.125
10.1832 2.708
10.2134 3.281
10.2437 2.969
10.2740 2.760
10.3043 3.698
10.3346 2.500
10.3648 3.333
10.3951 4.323
10.4254 2.708
10.4557 2.292
10.4859 2.448
10.5162 2.656
10.5465 2.812
10.5768 3.021
10.6071 2.917
10.6373 2.240
10.6676 3.229
10.6979 3.385
10.7282 3.229
10.7585 3.802
10.7887 3.594
10.8190 3.125
10.8493 2.760
10.8796 1.823
10.9098 2.344
10.9401 2.344
10.9704 3.281
11.0007 2.708
11.0310 2.812
11.0612 2.240
11.0915 2.604
11.1218 2.969
11.1521 2.812
11.1824 2.969
11.2126 2.500
11.2429 3.281
11.2732 2.448
11.3035 2.292
11.3337 2.604
11.3640 2.552
11.3943 2.292
11.4246 3.125
11.4549 2.969
11.4851 2.917
11.5154 2.812
11.5457 2.344
11.5760 2.917
11.6063 3.333
11.6365 2.604
11.6668 2.969
11.6971 3.594
11.7274 3.385
11.7577 2.656
11.7879 2.812
11.8182 3.542
11.8485 1.979
11.8788 2.812
11.9090 2.865
11.9393 2.500
11.9696 3.177
11.9999 3.021
12.0302 2.552
12.0604 2.135
12.0907 2.500
12.1210 2.708
12.1513 2.240
12.1816 2.865
12.2118 2.604
12.2421 2.760
12.2724 2.448
12.3027 2.552
12.3329 2.552
12.3632 2.917
12.3935 2.031
12.4238 2.969
12.4541 2.448
12.4843 2.292
12.5146 2.187
12.5449 3.021
12.5752 2.604
12.6055 2.396
12.6357 3.021
12.6660 2.552
12.6963 2.240
12.7266 3.281
12.7568 2.240
12.7871 1.979
12.8174 2.604
12.8477 2.240
12.8780 2.656
12.9082 2.812
12.9385 1.979
12.9688 2.708
12.9991 2.344
13.0294 2.135
13.0596 2.500
13.0899 2.187
13.1202 2.396
13.1505 1.823
13.1807 2.500
13.2110 2.292
13.2413 2.135
13.2716 2.656
13.3019 2.135
13.3321 1.979
13.3624 2.865
13.3927 2.031
13.4230 2.448
13.4533 2.917
13.4835 1.875
13.5138 1.875
13.5441 2.292
13.5744 2.448
13.6046 2.135
13.6349 2.344
13.6652 2.135
13.6955 2.187
13.7258 2.292
13.7560 2.396
13.7863 1.719
13.8166 2.083
13.8469 2.344
13.8772 2.448
13.9074 2.344
13.9377 2.812
13.9680 2.656
13.9983 2.083
14.0285 2.396
14.0588 2.187
14.0891 1.927
14.1194 1.927
14.1497 1.771
14.1799 2.396
14.2102 1.927
14.2405 1.562
14.2708 2.344
14.3011 2.135
14.3313 3.021
14.3616 2.135
14.3919 2.083
14.4222 3.073
14.4524 2.135
14.4827 2.135
14.5130 2.812
14.5433 2.344
14.5736 2.552
14.6038 2.708
14.6341 3.177
14.6644 2.812
14.6947 2.344
14.7250 1.719
14.7552 1.927
14.7855 2.552
14.8158 1.979
14.8461 2.552
14.8764 2.656
14.9066 1.406
14.9369 1.927
14.9672 2.292
14.9975 1.979
15.0277 2.083
15.0580 3.125
15.0883 2.917
15.1186 2.031
15.1489 2.344
15.1791 2.083
15.2094 2.917
15.2397 2.240
15.2700 1.927
15.3003 2.344
15.3305 1.979
15.3608 2.135
15.3911 2.396
15.4214 2.083
15.4516 1.719
15.4819 1.458
15.5122 2.604
15.5425 2.344
15.5728 2.031
15.6030 1.458
15.6333 1.927
15.6636 1.927
15.6939 2.083
15.7242 1.458
15.7544 2.083
15.7847 1.927
15.8150 1.719
15.8453 2.135
15.8755 1.771
15.9058 2.187
15.9361 1.354
15.9664 1.771
15.9967 1.979
16.0269 2.344
16.0572 2.240
16.0875 1.719
16.1178 1.354
16.1481 1.354
16.1783 1.979
16.2086 1.771
16.2389 1.354
16.2692 2.396
16.2994 2.344
16.3297 2.031
16.3600 1.927
16.3903 1.927
16.4206 2.031
16.4508 1.458
16.4811 1.615
16.5114 1.615
16.5417 2.187
16.5720 1.406
16.6022 1.927
16.6325 2.448
16.6628 1.927
16.6931 1.406
16.7233 1.562
16.7536 1.146
16.7839 2.292
16.8142 1.354
16.8445 1.979
16.8747 1.771
16.9050 2.031
16.9353 1.927
16.9656 2.031
16.9959 1.510
17.0261 2.500
17.0564 2.187
17.0867 1.667
17.1170 2.187
17.1472 1.354
17.1775 1.667
17.2078 1.875
17.2381 1.719
17.2684 2.240
17.2986 1.562
17.3289 1.927
17.3592 1.615
17.3895 1.667
17.4198 2.240
17.4500 1.823
17.4803 1.198
17.5106 1.615
17.5409 2.344
17.5712 2.135
17.6014 1.562
17.6317 2.135
17.6620 2.135
17.6923 1.979
17.7225 1.667
17.7528 1.510
17.7831 1.771
17.8134 1.719
17.8437 2.344
17.8739 1.458
17.9042 2.448
17.9345 1.458
17.9648 1.823
17.9951 1.562
18.0253 1.927
18.0556 1.458
18.0859 1.979
18.1162 1.771
18.1464 1.615
18.1767 1.771
18.2070 1.979
18.2373 1.875
18.2676 1.458
18.2978 1.406
18.3281 1.615
18.3584 1.406
18.3887 2.292
18.4190 1.615
18.4492 2.083
18.4795 1.354
18.5098 1.667
18.5401 1.667
18.5703 1.562
18.6006 1.823
18.6309 1.927
18.6612 2.448
18.6915 1.875
18.7217 1.615
18.7520 1.719
18.7823 1.719
18.8126 1.458
18.8429 1.615
18.8731 1.510
18.9034 1.667
18.9337 2.240
18.9640 1.615
18.9942 1.615
19.0245 1.927
19.0548 2.083
19.0851 1.927
19.1154 1.458
19.1456 1.667
19.1759 2.187
19.2062 1.667
19.2365 2.031
19.2668 2.031
19.2970 1.615
19.3273 2.240
19.3576 1.458
19.3879 2.187
19.4181 1.875
19.4484 1.771
19.4787 1.667
19.5090 1.562
19.5393 2.031
19.5695 1.510
19.5998 1.927
19.6301 0.885
19.6604 1.562
19.6907 1.354
19.7209 1.667
19.7512 1.771
19.7815 1.562
19.8118 1.562
19.8420 1.354
19.8723 1.771
19.9026 1.927
19.9329 1.771
19.9632 1.510
19.9934 1.771
20.0237 1.771
20.0540 2.292
20.0843 2.083
20.1146 1.615
20.1448 1.510
20.1751 1.979
20.2054 1.771
20.2357 1.875
20.2659 1.823
20.2962 1.458
20.3265 1.406
20.3568 1.719
20.3871 1.146
20.4173 2.031
20.4476 1.458
20.4779 1.875
20.5082 1.458
20.5385 1.042
20.5687 1.667
20.5990 1.927
20.6293 1.979
20.6596 1.510
20.6899 1.510
20.7201 3.021
20.7504 1.719
20.7807 1.667
20.8110 1.562
20.8412 1.094
20.8715 1.771
20.9018 1.406
20.9321 1.510
20.9624 1.927
20.9926 1.354
21.0229 1.198
21.0532 1.979
21.0835 1.875
21.1138 2.292
21.1440 1.510
21.1743 1.927
21.2046 1.354
21.2349 1.510
21.2651 1.667
21.2954 1.458
21.3257 1.615
21.3560 1.250
21.3863 1.042
21.4165 1.354
21.4468 1.927
21.4771 1.615
21.5074 1.667
21.5377 2.135
21.5679 1.667
21.5982 1.615
21.6285 1.875
21.6588 1.615
21.6890 1.667
21.7193 1.823
21.7496 1.198
21.7799 1.615
21.8102 1.615
21.8404 1.927
21.8707 1.875
21.9010 1.875
21.9313 1.458
21.9616 1.510
21.9918 2.083
22.0221 1.354
22.0524 1.458
22.0827 1.406
22.1129 1.250
22.1432 1.406
22.1735 1.094
22.2038 1.458
22.2341 1.458
22.2643 1.667
22.2946 1.094
22.3249 1.562
22.3552 1.354
22.3855 1.406
22.4157 1.302
22.4460 1.198
22.4763 1.458
22.5066 1.250
22.5368 1.615
22.5671 1.302
22.5974 1.562
22.6277 1.510
22.6580 0.833
22.6882 1.406
22.7185 1.302
22.7488 1.302
22.7791 1.771
22.8094 1.354
22.8396 1.510
22.8699 1.042
22.9002 1.562
22.9305 1.198
22.9607 1.719
22.9910 1.250
23.0213 1.458
23.0516 1.562
23.0819 1.458
23.1121 1.458
23.1424 1.198
23.1727 1.354
23.2030 1.615
23.2333 1.302
23.2635 1.198
23.2938 1.406
23.3241 1.250
23.3544 1.354
23.3846 1.354
23.4149 1.562
23.4452 0.833
23.4755 1.094
23.5058 1.458
23.5360 1.250
23.5663 1.510
23.5966 1.146
23.6269 1.406
23.6572 1.667
23.6874 1.458
23.7177 1.198
23.7480 1.562
23.7783 1.562
23.8086 1.198
23.8388 1.406
23.8691 2.031
23.8994 2.135
23.9297 1.510
23.9599 1.615
23.9902 1.406
24.0205 1.562
24.0508 0.937
24.0811 1.667
24.1113 1.250
24.1416 1.979
24.1719 1.510
24.2022 1.771
24.2325 1.302
24.2627 1.823
24.2930 1.615
24.3233 1.510
24.3536 1.250
24.3838 1.510
24.4141 1.354
24.4444 1.823
24.4747 1.354
24.5050 1.354
24.5352 1.302
24.5655 2.344
24.5958 1.875
24.6261 1.250
24.6564 1.406
24.6866 1.510
24.7169 1.302
24.7472 1.562
24.7775 1.302
24.8077 1.615
24.8380 1.406
24.8683 1.146
24.8986 1.458
24.9289 1.615
24.9591 1.198
24.9894 1.719
25.0197 1.250
25.0500 1.198
25.0803 1.615
25.1105 1.510
25.1408 1.510
25.1711 1.771
25.2014 1.510
25.2316 1.198
25.2619 1.250
25.2922 1.406
25.3225 2.135
25.3528 1.823
25.3830 1.458
25.4133 2.187
25.4436 0.937
25.4739 1.927
25.5042 1.979
25.5344 1.979
25.5647 2.344
25.5950 2.083
25.6253 1.875
25.6555 2.552
25.6858 2.552
25.7161 2.969
25.7464 2.135
25.7767 2.969
25.8069 3.542
25.8372 2.344
25.8675 2.448
25.8978 2.292
25.9281 1.771
25.9583 2.344
25.9886 2.240
26.0189 2.135
26.0492 2.292
26.0794 1.458
26.1097 1.562
26.1400 1.823
26.1703 2.187
26.2006 1.302
26.2308 1.562
26.2611 1.042
26.2914 1.354
26.3217 1.667
26.3520 1.771
26.3822 1.406
26.4125 1.250
26.4428 2.031
26.4731 1.250
26.5034 1.250
26.5336 1.562
26.5639 1.510
26.5942 0.677
26.6245 1.719
26.6547 1.510
26.6850 0.781
26.7153 1.771
26.7456 0.729
26.7759 1.458
26.8061 1.042
26.8364 1.302
26.8667 1.771
26.8970 1.510
26.9273 0.937
26.9575 1.562
26.9878 1.719
27.0181 1.719
27.0484 1.927
27.0786 1.771
27.1089 1.615
27.1392 1.250
27.1695 1.719
27.1998 1.719
27.2300 1.875
27.2603 1.250
27.2906 1.458
27.3209 1.562
27.3512 1.667
27.3814 1.406
27.4117 1.198
27.4420 1.927
27.4723 1.094
27.5025 1.562
27.5328 1.719
27.5631 2.135
27.5934 1.771
27.6237 1.406
27.6539 2.135
27.6842 1.510
27.7145 1.302
27.7448 1.979
27.7751 1.771
27.8053 1.406
27.8356 0.990
27.8659 0.781
27.8962 1.406
27.9264 1.615
27.9567 1.667
27.9870 1.823
28.0173 1.354
28.0476 1.510
28.0778 1.562
28.1081 1.510
28.1384 1.667
28.1687 1.719
28.1990 1.094
28.2292 1.927
28.2595 1.510
28.2898 1.719
28.3201 1.510
28.3503 1.615
28.3806 1.146
28.4109 1.562
28.4412 1.354
28.4715 1.823
28.5017 1.250
28.5320 1.406
28.5623 1.823
28.5926 1.667
28.6229 1.667
28.6531 2.031
28.6834 1.771
28.7137 1.562
28.7440 1.771
28.7742 1.823
28.8045 1.615
28.8348 1.927
28.8651 1.458
28.8954 1.406
28.9256 1.510
28.9559 1.823
28.9862 1.510
29.0165 1.250
29.0468 2.187
29.0770 1.406
29.1073 1.458
29.1376 1.927
29.1679 1.927
29.1981 1.667
29.2284 1.615
29.2587 2.135
29.2890 2.500
29.3193 2.656
29.3495 2.135
29.3798 2.448
29.4101 2.240
29.4404 3.021
29.4707 2.344
29.5009 2.760
29.5312 2.292
29.5615 2.708
29.5918 2.656
29.6221 2.552
29.6523 2.500
29.6826 2.240
29.7129 2.135
29.7432 2.344
29.7734 2.292
29.8037 1.510
29.8340 1.510
29.8643 1.667
29.8946 1.875
29.9248 1.719
29.9551 1.771
29.9854 2.552
30.0157 1.667
30.0460 1.510
30.0762 2.604
30.1065 2.031
30.1368 1.875
30.1671 1.510
30.1973 1.771
30.2276 2.187
30.2579 1.719
30.2882 2.083
30.3185 2.240
30.3487 1.719
30.3790 1.771
30.4093 2.187
30.4396 1.823
30.4699 1.927
30.5001 2.031
30.5304 2.135
30.5607 2.187
30.5910 1.979
30.6212 1.771
30.6515 1.979
30.6818 1.719
30.7121 2.448
30.7424 2.292
30.7726 2.917
30.8029 2.812
30.8332 2.865
30.8635 2.552
30.8938 3.021
30.9240 2.552
30.9543 3.385
30.9846 3.281
31.0149 3.646
31.0451 3.021
31.0754 4.115
31.1057 4.010
31.1360 4.844
31.1663 4.844
31.1965 5.573
31.2268 5.156
31.2571 6.042
31.2874 7.500
31.3177 7.865
31.3479 8.281
31.3782 9.167
31.4085 10.312
31.4388 13.125
31.4690 14.323
31.4993 18.437
31.5296 21.979
31.5599 22.865
31.5902 24.271
31.6204 25.625
31.6507 24.583
31.6810 23.177
31.7113 20.677
31.7416 15.156
31.7718 14.062
31.8021 12.240
31.8324 11.458
31.8627 7.708
31.8929 8.333
31.9232 6.042
31.9535 7.031
31.9838 6.979
32.0141 6.198
32.0443 4.531
32.0746 4.375
32.1049 4.427
32.1352 3.385
32.1655 4.219
32.1957 3.490
32.2260 3.854
32.2563 2.917
32.2866 3.385
32.3169 2.708
32.3471 3.490
32.3774 3.125
32.4077 2.917
32.4380 2.240
32.4682 2.240
32.4985 2.500
32.5288 2.187
32.5591 2.240
32.5894 1.927
32.6196 2.969
32.6499 3.073
32.6802 2.812
32.7105 2.135
32.7408 2.135
32.7710 2.187
32.8013 2.240
32.8316 2.396
32.8619 2.448
32.8921 1.667
32.9224 1.875
32.9527 1.406
32.9830 2.344
33.0133 2.187
33.0435 1.719
33.0738 1.979
33.1041 2.135
33.1344 1.823
33.1647 2.292
33.1949 2.448
33.2252 2.344
33.2555 1.615
33.2858 1.719
33.3160 1.927
33.3463 2.604
33.3766 2.656
33.4069 1.823
33.4372 2.083
33.4674 1.562
33.4977 2.500
33.5280 1.875
33.5583 1.979
33.5886 2.083
33.6188 2.604
33.6491 3.021
33.6794 2.604
33.7097 2.812
33.7399 2.500
33.7702 2.708
33.8005 3.021
33.8308 2.656
33.8611 3.229
33.8913 3.542
33.9216 4.115
33.9519 4.219
33.9822 3.854
34.0125 4.740
34.0427 5.885
34.0730 6.875
34.1033 9.115
34.1336 11.615
34.1638 16.406
34.1941 21.927
34.2244 27.187
34.2547 25.677
34.2850 23.698
34.3152 19.792
34.3455 17.292
34.3758 12.344
34.4061 10.260
34.4364 8.073
34.4666 5.365
34.4969 4.844
34.5272 4.948
34.5575 4.271
34.5877 3.437
34.6180 3.802
34.6483 3.125
34.6786 3.802
34.7089 2.917
34.7391 3.333
34.7694 2.187
34.7997 3.542
34.8300 2.865
34.8603 3.125
34.8905 2.917
34.9208 2.656
34.9511 2.448
34.9814 2.656
35.0116 2.500
35.0419 3.177
35.0722 2.812
35.1025 2.865
35.1328 2.708
35.1630 3.333
35.1933 3.437
35.2236 3.073
35.2539 3.698
35.2842 3.125
35.3144 3.490
35.3447 3.750
35.3750 3.073
35.4053 3.646
35.4356 4.167
35.4658 3.906
35.4961 4.531
35.5264 4.062
35.5567 4.479
35.5869 4.844
35.6172 5.729
35.6475 6.354
35.6778 5.833
35.7081 6.979
35.7383 7.969
35.7686 6.979
35.7989 9.479
35.8292 10.208
35.8595 10.417
35.8897 11.406
35.9200 14.375
35.9503 18.073
35.9806 20.000
36.0108 22.708
36.0411 25.156
36.0714 29.948
36.1017 28.906
36.1320 32.656
36.1622 28.906
36.1925 23.802
36.2228 22.812
36.2531 20.521
36.2834 17.552
36.3136 14.740
36.3439 12.969
36.3742 10.729
36.4045 9.844
36.4347 8.698
36.4650 7.917
36.4953 7.500
36.5256 7.083
36.5559 6.615
36.5861 3.594
36.6164 4.740
36.6467 4.896
36.6770 3.646
36.7073 3.698
36.7375 4.062
36.7678 4.062
36.7981 3.385
36.8284 2.812
36.8586 2.760
36.8889 3.229
36.9192 3.177
36.9495 2.500
36.9798 2.760
37.0100 2.865
37.0403 2.604
37.0706 1.927
37.1009 2.292
37.1312 2.344
37.1614 2.135
37.1917 2.396
37.2220 1.875
37.2523 1.510
37.2825 2.396
37.3128 2.083
37.3431 1.719
37.3734 2.187
37.4037 1.927
37.4339 1.615
37.4642 2.344
37.4945 1.719
37.5248 1.875
37.5551 1.771
37.5853 2.083
37.6156 1.198
37.6459 1.406
37.6762 1.771
37.7064 1.667
37.7367 1.667
37.7670 1.719
37.7973 1.250
37.8276 1.719
37.8578 0.885
37.8881 1.146
37.9184 1.562
37.9487 1.302
37.9790 1.667
38.0092 1.250
38.0395 1.406
38.0698 1.823
38.1001 1.354
38.1304 1.458
38.1606 1.354
38.1909 1.406
38.2212 1.042
38.2515 1.354
38.2817 1.198
38.3120 1.354
38.3423 1.771
38.3726 1.406
38.4029 1.406
38.4331 1.875
38.4634 0.885
38.4937 1.042
38.5240 1.510
38.5543 1.146
38.5845 1.719
38.6148 1.406
38.6451 1.302
38.6754 0.781
38.7056 1.927
38.7359 1.250
38.7662 1.458
38.7965 1.042
38.8268 1.562
38.8570 1.146
38.8873 1.771
38.9176 0.885
38.9479 1.406
38.9782 0.990
39.0084 1.510
39.0387 1.198
39.0690 1.042
39.0993 0.729
39.1295 1.302
39.1598 1.302
39.1901 1.094
39.2204 1.250
39.2507 0.990
39.2809 0.729
39.3112 1.198
39.3415 1.094
39.3718 1.146
39.4021 0.990
39.4323 0.885
39.4626 1.198
39.4929 1.042
39.5232 1.198
39.5534 0.937
39.5837 1.302
39.6140 1.250
39.6443 1.562
39.6746 1.615
39.7048 1.094
39.7351 1.094
39.7654 1.198
39.7957 0.885
39.8260 0.937
39.8562 1.250
39.8865 0.990
39.9168 1.094
39.9471 0.885
39.9773 1.354
40.0076 1.302
40.0379 0.781
40.0682 1.146
40.0985 1.146
40.1287 1.250
40.1590 1.302
40.1893 0.990
40.2196 0.937
40.2499 0.937
40.2801 1.042
40.3104 1.146
40.3407 0.937
40.3710 1.094
40.4012 1.458
40.4315 0.990
40.4618 0.885
40.4921 0.833
40.5224 1.667
40.5526 0.885
40.5829 0.833
40.6132 0.990
40.6435 0.937
40.6738 0.937
40.7040 1.354
40.7343 1.198
40.7646 1.042
40.7949 1.198
40.8251 1.250
40.8554 1.094
40.8857 0.833
40.9160 0.625
40.9463 1.042
40.9765 0.781
41.0068 1.146
41.0371 0.781
41.0674 0.990
41.0977 0.885
41.1279 0.781
41.1582 0.885
41.1885 1.250
41.2188 0.937
41.2491 1.354
41.2793 1.615
41.3096 0.833
41.3399 1.250
41.3702 0.781
41.4004 0.937
41.4307 1.094
41.4610 0.937
41.4913 0.990
41.5216 0.781
41.5518 1.094
41.5821 0.990
41.6124 1.042
41.6427 0.990
41.6730 1.042
41.7032 1.302
41.7335 0.990
41.7638 0.937
41.7941 1.198
41.8243 0.677
41.8546 0.885
41.8849 1.042
41.9152 0.833
41.9455 0.990
41.9757 0.833
42.0060 0.781
42.0363 0.729
42.0666 0.885
42.0969 0.781
42.1271 0.573
42.1574 1.042
42.1877 0.781
42.2180 0.937
42.2482 0.990
42.2785 0.729
42.3088 1.146
42.3391 0.677
42.3694 0.521
42.3996 0.885
42.4299 0.729
42.4602 0.990
42.4905 1.198
42.5208 0.781
42.5510 1.094
42.5813 0.677
42.6116 1.146
42.6419 0.937
42.6721 0.677
42.7024 0.677
42.7327 0.781
42.7630 1.042
42.7933 0.937
42.8235 1.042
42.8538 0.885
42.8841 0.729
42.9144 1.198
42.9447 1.094
42.9749 0.469
43.0052 1.354
43.0355 0.833
43.0658 1.146
43.0960 0.417
43.1263 1.302
43.1566 0.625
43.1869 1.198
43.2172 0.625
43.2474 0.990
43.2777 0.677
43.3080 0.677
43.3383 0.625
43.3686 1.042
43.3988 0.729
43.4291 1.302
43.4594 0.990
43.4897 0.990
43.5199 0.937
43.5502 0.937
43.5805 1.198
43.6108 0.937
43.6411 0.625
43.6713 0.833
43.7016 0.885
43.7319 1.198
43.7622 0.729
43.7925 1.146
43.8227 1.094
43.8530 1.198
43.8833 1.042
43.9136 0.729
43.9439 0.677
43.9741 1.094
44.0044 0.833
44.0347 0.990
44.0650 0.677
44.0952 0.990
44.1255 1.094
44.1558 0.625
44.1861 1.042
44.2164 0.729
44.2466 0.937
44.2769 0.885
44.3072 1.094
44.3375 1.146
44.3678 1.250
44.3980 0.625
44.4283 0.781
44.4586 1.146
44.4889 1.302
44.5191 0.937
44.5494 1.458
44.5797 0.781
44.6100 0.833
44.6403 0.781
44.6705 1.042
44.7008 1.042
44.7311 1.146
44.7614 0.833
44.7917 0.885
44.8219 0.990
44.8522 0.937
44.8825 0.781
44.9128 1.094
44.9430 1.042
44.9733 0.937
45.0036 1.042
45.0339 0.833
45.0642 1.250
45.0944 0.781
45.1247 1.250
45.1550 1.250
45.1853 0.885
45.2156 0.885
45.2458 0.990
45.2761 1.042
45.3064 1.354
45.3367 0.833
45.3669 1.198
45.3972 1.198
45.4275 0.990
45.4578 0.573
45.4881 1.094
45.5183 0.937
45.5486 1.094
45.5789 0.990
45.6092 0.937
45.6395 0.781
45.6697 0.729
45.7000 0.833
45.7303 1.458
45.7606 0.990
45.7908 1.302
45.8211 0.677
45.8514 1.198
45.8817 1.042
45.9120 1.458
45.9422 1.354
45.9725 1.198
46.0028 1.042
46.0331 0.990
46.0634 1.094
46.0936 1.406
46.1239 1.042
46.1542 1.302
46.1845 1.198
46.2147 1.094
46.2450 1.406
46.2753 1.146
46.3056 1.510
46.3359 1.562
46.3661 1.615
46.3964 1.562
46.4267 1.094
46.4570 1.250
46.4873 1.354
46.5175 1.250
46.5478 1.562
46.5781 1.042
46.6084 1.302
46.6386 1.146
46.6689 1.510
46.6992 1.667
46.7295 1.354
46.7598 1.562
46.7900 1.719
46.8203 1.667
46.8506 1.979
46.8809 1.615
46.9112 1.823
46.9414 1.979
46.9717 1.875
47.0020 2.448
47.0323 2.240
47.0626 2.656
47.0928 2.187
47.1231 3.177
47.1534 2.969
47.1837 3.229
47.2139 3.385
47.2442 4.219
47.2745 4.271
47.3048 4.115
47.3351 3.906
47.3653 3.802
47.3956 4.844
47.4259 4.010
47.4562 3.594
47.4865 3.281
47.5167 3.490
47.5470 3.646
47.5773 2.865
47.6076 3.281
47.6378 3.281
47.6681 2.656
47.6984 2.656
47.7287 2.708
47.7590 2.031
47.7892 2.292
47.8195 2.812
47.8498 2.344
47.8801 1.823
47.9104 2.083
47.9406 1.562
47.9709 1.354
48.0012 2.031
48.0315 1.458
48.0617 1.562
48.0920 1.406
48.1223 1.510
48.1526 1.562
48.1829 1.302
48.2131 1.823
48.2434 1.719
48.2737 1.406
48.3040 1.406
48.3343 1.510
48.3645 1.354
48.3948 0.885
48.4251 1.458
48.4554 1.354
48.4856 1.771
48.5159 1.302
48.5462 1.354
48.5765 0.885
48.6068 1.042
48.6370 1.354
48.6673 0.937
48.6976 0.833
48.7279 1.250
48.7582 1.094
48.7884 0.573
48.8187 0.729
48.8490 0.937
48.8793 0.885
48.9095 1.094
48.9398 1.198
48.9701 1.042
49.0004 1.146
49.0307 1.042
49.0609 1.302
49.0912 1.302
49.1215 1.198
49.1518 1.042
49.1821 1.458
49.2123 1.094
49.2426 0.990
49.2729 1.458
49.3032 0.990
49.3334 1.094
49.3637 1.094
49.3940 0.885
49.4243 1.146
49.4546 0.833
49.4848 1.146
49.5151 1.146
49.5454 0.573
49.5757 1.094
49.6060 0.937
49.6362 0.937
49.6665 0.781
49.6968 0.937
49.7271 1.302
49.7574 1.250
49.7876 0.833
49.8179 1.042
49.8482 1.302
49.8785 0.781
49.9087 1.250
49.9390 1.094
49.9693 1.094
49.9996 1.042
50.0299 1.146
50.0601 0.937
50.0904 1.094
50.1207 1.042
50.1510 0.781
50.1813 1.146
50.2115 1.042
50.2418 0.781
50.2721 1.146
50.3024 0.990
50.3326 0.677
50.3629 0.990
50.3932 0.729
50.4235 0.521
50.4538 1.250
50.4840 1.250
50.5143 0.990
50.5446 1.302
50.5749 1.146
50.6052 1.562
50.6354 1.146
50.6657 0.990
50.6960 1.146
50.7263 0.729
50.7565 1.146
50.7868 1.146
50.8171 1.198
50.8474 1.302
50.8777 0.833
50.9079 0.885
50.9382 0.833
50.9685 1.198
50.9988 0.990
51.0291 1.250
51.0593 0.937
51.0896 1.094
51.1199 0.937
51.1502 1.250
51.1804 0.729
51.2107 1.094
51.2410 0.885
51.2713 0.729
51.3016 1.146
51.3318 0.573
51.3621 0.937
51.3924 0.833
51.4227 1.250
51.4530 0.833
51.4832 1.146
51.5135 1.250
51.5438 0.885
51.5741 0.833
51.6043 1.406
51.6346 1.250
51.6649 1.042
51.6952 1.094
51.7255 0.937
51.7557 0.990
51.7860 0.937
51.8163 0.990
51.8466 1.250
51.8769 1.042
51.9071 1.042
51.9374 1.042
51.9677 1.146
51.9980 0.729
52.0282 1.198
52.0585 1.562
52.0888 1.406
52.1191 0.990
52.1494 1.302
52.1796 0.990
52.2099 1.094
52.2402 1.146
52.2705 1.302
52.3008 1.094
52.3310 1.042
52.3613 1.042
52.3916 1.042
52.4219 0.625
52.4521 0.990
52.4824 1.302
52.5127 1.042
52.5430 1.406
52.5733 1.510
52.6035 1.302
52.6338 1.458
52.6641 0.781
52.6944 1.042
52.7247 1.094
52.7549 1.094
52.7852 1.042
52.8155 1.302
52.8458 0.937
52.8761 1.198
52.9063 1.250
52.9366 0.729
52.9669 1.198
52.9972 1.198
53.0274 0.521
53.0577 0.781
53.0880 0.625
53.1183 1.354
53.1486 0.990
53.1788 1.146
53.2091 0.990
53.2394 0.990
53.2697 0.885
53.3000 0.781
53.3302 0.990
53.3605 0.833
53.3908 0.990
53.4211 1.146
53.4513 0.781
53.4816 0.990
53.5119 1.510
53.5422 0.677
53.5725 0.937
53.6027 1.458
53.6330 0.937
53.6633 1.198
53.6936 1.042
53.7239 1.354
53.7541 0.729
53.7844 0.937
53.8147 1.510
53.8450 1.042
53.8752 1.146
53.9055 0.937
53.9358 0.937
53.9661 0.833
53.9964 0.885
54.0266 0.573
54.0569 0.677
54.0872 0.937
54.1175 0.885
54.1478 0.729
54.1780 0.885
54.2083 1.094
54.2386 1.302
54.2689 0.990
54.2991 1.198
54.3294 1.406
54.3597 0.781
54.3900 1.302
54.4203 0.937
54.4505 1.667
54.4808 1.146
54.5111 0.833
54.5414 0.937
54.5717 1.302
54.6019 0.729
54.6322 0.937
54.6625 1.250
54.6928 1.146
54.7230 1.250
54.7533 0.937
54.7836 1.094
54.8139 1.354
54.8442 0.885
54.8744 1.198
54.9047 0.781
54.9350 1.667
54.9653 0.885
54.9956 1.042
55.0258 1.146
55.0561 1.042
55.0864 1.042
55.1167 1.354
55.1469 1.146
55.1772 1.302
55.2075 1.146
55.2378 1.354
55.2681 1.510
55.2983 1.302
55.3286 1.458
55.3589 1.302
55.3892 0.937
55.4195 1.510
55.4497 1.042
55.4800 1.406
55.5103 1.042
55.5406 1.562
55.5709 1.562
55.6011 1.510
55.6314 1.719
55.6617 1.719
55.6920 1.198
55.7222 1.198
55.7525 1.250
55.7828 1.771
55.8131 1.302
55.8434 2.083
55.8736 1.771
55.9039 1.615
55.9342 1.615
55.9645 2.135
55.9948 2.135
56.0250 2.292
56.0553 3.229
56.0856 2.812
56.1159 3.021
56.1461 2.292
56.1764 3.385
56.2067 3.229
56.2370 4.375
56.2673 4.479
56.2975 5.000
56.3278 5.417
56.3581 6.823
56.3884 5.937
56.4187 7.812
56.4489 8.594
56.4792 8.125
56.5095 8.229
56.5398 6.250
56.5700 6.979
56.6003 6.719
56.6306 6.042
56.6609 5.052
56.6912 4.687
56.7214 3.854
56.7517 3.333
56.7820 3.073
56.8123 3.177
56.8426 2.604
56.8728 3.021
56.9031 2.031
56.9334 1.771
56.9637 1.510
56.9939 1.771
57.0242 1.458
57.0545 1.510
57.0848 1.615
57.1151 1.927
57.1453 1.042
57.1756 1.302
57.2059 1.615
57.2362 1.354
57.2665 1.354
57.2967 1.146
57.3270 0.937
57.3573 1.458
57.3876 0.729
57.4178 0.729
57.4481 1.250
57.4784 1.094
57.5087 0.990
57.5390 1.042
57.5692 1.042
57.5995 1.615
57.6298 0.781
57.6601 0.990
57.6904 0.625
57.7206 0.937
57.7509 0.833
57.7812 0.885
57.8115 1.042
57.8417 1.146
57.8720 0.885
57.9023 0.833
57.9326 1.198
57.9629 1.094
57.9931 0.573
58.0234 1.042
58.0537 0.781
58.0840 1.094
58.1143 0.833
58.1445 0.990
58.1748 0.833
58.2051 0.885
58.2354 0.937
58.2656 1.042
58.2959 0.833
58.3262 0.937
58.3565 0.833
58.3868 1.042
58.4170 0.937
58.4473 0.937
58.4776 0.781
58.5079 0.729
58.5382 0.781
58.5684 0.885
58.5987 0.781
58.6290 0.937
58.6593 0.990
58.6896 0.990
58.7198 0.677
58.7501 1.042
58.7804 0.781
58.8107 0.885
58.8409 1.146
58.8712 0.990
58.9015 1.250
58.9318 0.990
58.9621 0.885
58.9923 1.302
59.0226 1.094
59.0529 0.937
59.0832 0.885
59.1135 0.781
59.1437 0.885
59.1740 1.354
59.2043 1.042
59.2346 0.677
59.2648 0.677
59.2951 0.833
59.3254 0.990
59.3557 0.729
59.3860 0.833
59.4162 0.833
59.4465 0.990
59.4768 0.833
59.5071 0.677
59.5374 0.677
59.5676 0.885
59.5979 0.937
59.6282 1.250
59.6585 1.510
59.6887 0.990
59.7190 0.990
59.7493 0.885
59.7796 1.094
59.8099 0.990
59.8401 0.833
59.8704 0.990
59.9007 0.833
59.9310 0.781
59.9613 0.781
59.9915 0.885
60.0218 0.781
60.0521 0.833
60.0824 0.937
60.1126 0.573
60.1429 1.042
60.1732 0.885
60.2035 0.937
60.2338 1.302
60.2640 0.990
60.2943 1.406
60.3246 0.729
60.3549 0.885
60.3852 0.729
60.4154 1.042
60.4457 0.937
60.4760 0.729
60.5063 0.729
60.5365 1.042
60.5668 0.990
60.5971 0.885
60.6274 0.729
60.6577 1.198
60.6879 0.885
60.7182 1.302
60.7485 1.146
60.7788 0.885
60.8091 0.937
60.8393 0.885
60.8696 0.990
60.8999 0.521
60.9302 1.354
60.9604 0.990
60.9907 1.146
61.0210 1.302
61.0513 0.833
61.0816 0.885
61.1118 1.146
61.1421 0.729
61.1724 0.937
61.2027 0.885
61.2330 0.885
61.2632 0.625
61.2935 1.094
61.3238 0.990
61.3541 1.302
61.3844 0.885
61.4146 0.573
61.4449 1.250
61.4752 1.146
61.5055 1.250
61.5357 1.094
61.5660 1.198
61.5963 1.094
61.6266 0.885
61.6569 1.302
61.6871 1.146
61.7174 1.094
61.7477 0.937
61.7780 1.042
61.8083 1.771
61.8385 1.406
61.8688 1.198
61.8991 0.781
61.9294 0.833
61.9596 1.719
61.9899 1.250
62.0202 1.354
62.0505 2.031
62.0808 1.354
62.1110 1.823
62.1413 1.042
62.1716 1.719
62.2019 1.979
62.2322 1.927
62.2624 1.302
62.2927 2.031
62.3230 2.500
62.3533 2.708
62.3835 2.240
62.4138 2.292
62.4441 3.646
62.4744 2.760
62.5047 3.177
62.5349 4.115
62.5652 4.635
62.5955 3.750
62.6258 3.958
62.6561 3.542
62.6863 5.156
62.7166 4.687
62.7469 4.792
62.7772 3.594
62.8074 4.687
62.8377 4.792
62.8680 4.115
62.8983 4.010
62.9286 3.437
62.9588 3.125
62.9891 2.656
63.0194 2.917
63.0497 2.292
63.0800 1.979
63.1102 2.448
63.1405 2.396
63.1708 1.719
63.2011 2.500
63.2313 1.979
63.2616 1.094
63.2919 1.406
63.3222 1.562
63.3525 1.458
63.3827 0.990
63.4130 1.771
63.4433 1.302
63.4736 1.094
63.5039 1.406
63.5341 1.146
63.5644 0.937
63.5947 1.771
63.6250 1.302
63.6552 0.521
63.6855 0.833
63.7158 0.625
63.7461 1.094
63.7764 0.990
63.8066 1.302
63.8369 1.406
63.8672 0.937
63.8975 0.833
63.9278 0.937
63.9580 1.406
63.9883 0.781
64.0186 1.198
64.0489 0.885
64.0791 1.250
64.1094 1.042
64.1397 0.781
64.1700 0.937
64.2003 1.250
64.2305 0.729
64.2608 0.937
64.2911 1.094
64.3214 1.094
64.3517 0.937
64.3819 0.833
64.4122 0.781
64.4425 1.146
64.4728 1.094
64.5031 0.990
64.5333 0.833
64.5636 0.781
64.5939 0.677
64.6242 0.833
64.6544 0.833
64.6847 0.885
64.7150 0.833
64.7453 1.198
64.7756 1.094
64.8058 1.094
64.8361 1.042
64.8664 0.833
64.8967 1.198
64.9270 1.094
64.9572 0.573
64.9875 0.729
65.0178 0.469
65.0481 0.937
65.0783 0.729
65.1086 1.094
65.1389 0.729
65.1692 0.833
65.1995 0.729
65.2297 0.833
65.2600 0.990
65.2903 1.042
65.3206 1.094
65.3509 1.094
65.3811 0.677
65.4114 0.521
65.4417 0.833
65.4720 0.833
65.5022 1.042
65.5325 0.469
65.5628 0.573
65.5931 0.729
65.6234 0.937
65.6536 0.833
65.6839 0.833
65.7142 0.937
65.7445 0.937
65.7748 1.198
65.8050 0.990
65.8353 1.094
65.8656 0.677
65.8959 1.354
65.9261 0.990
65.9564 1.250
65.9867 1.302
66.0170 0.885
66.0473 1.406
66.0775 1.302
66.1078 1.302
66.1381 1.667
66.1684 1.615
66.1987 1.250
66.2289 1.823
66.2592 1.615
66.2895 1.615
66.3198 1.354
66.3500 1.406
66.3803 1.562
66.4106 1.354
66.4409 1.198
66.4712 1.510
66.5014 0.781
66.5317 1.250
66.5620 1.354
66.5923 1.354
66.6226 1.615
66.6528 1.146
66.6831 0.885
66.7134 0.885
66.7437 0.677
66.7739 0.885
66.8042 0.833
66.8345 1.198
66.8648 1.250
66.8951 0.781
66.9253 1.250
66.9556 1.042
66.9859 1.094
67.0162 1.198
67.0465 1.094
67.0767 0.885
67.1070 1.146
67.1373 1.302
67.1676 0.833
67.1978 1.458
67.2281 1.615
67.2584 1.146
67.2887 1.250
67.3190 1.615
67.3492 1.146
67.3795 1.927
67.4098 2.135
67.4401 2.135
67.4704 1.823
67.5006 2.240
67.5309 2.396
67.5612 3.073
67.5915 2.344
67.6218 3.698
67.6520 3.281
67.6823 3.698
67.7126 2.708
67.7429 3.542
67.7731 3.958
67.8034 4.427
67.8337 3.958
67.8640 4.271
67.8943 3.750
67.9245 4.219
67.9548 3.750
67.9851 3.073
68.0154 2.760
68.0457 2.865
68.0759 2.969
68.1062 3.125
68.1365 2.917
68.1668 2.344
68.1970 2.187
68.2273 2.552
68.2576 2.135
68.2879 1.823
68.3182 1.771
68.3484 1.510
68.3787 1.979
68.4090 2.240
68.4393 1.510
68.4696 1.823
68.4998 1.615
68.5301 1.823
68.5604 1.302
68.5907 2.344
68.6209 1.771
68.6512 2.083
68.6815 1.562
68.7118 1.927
68.7421 1.771
68.7723 1.302
68.8026 2.500
68.8329 2.396
68.8632 2.135
68.8935 2.396
68.9237 2.187
68.9540 2.135
68.9843 2.083
69.0146 2.083
69.0448 2.812
69.0751 2.969
69.1054 2.240
69.1357 1.979
69.1660 1.875
69.1962 1.510
69.2265 1.823
69.2568 1.458
69.2871 1.042
69.3174 1.406
69.3476 1.302
69.3779 0.937
69.4082 1.094
69.4385 1.615
69.4687 0.937
69.4990 1.510
69.5293 1.354
69.5596 0.885
69.5899 1.094
69.6201 1.094
69.6504 0.781
69.6807 0.833
69.7110 0.833
69.7413 0.937
69.7715 0.833
69.8018 0.833
69.8321 0.729
69.8624 1.198
69.8926 0.625
69.9229 0.573
69.9532 0.729
69.9835 0.781
70.0138 1.094
70.0440 1.198
70.0743 0.781
70.1046 0.729
70.1349 0.937
70.1652 0.573
70.1954 0.937
70.2257 0.937
70.2560 0.990
70.2863 0.781
70.3166 0.573
70.3468 0.729
70.3771 0.677
70.4074 0.625
70.4377 0.677
70.4679 0.469
70.4982 0.469
70.5285 0.573
70.5588 0.729
70.5891 0.625
70.6193 0.625
70.6496 0.833
70.6799 0.677
70.7102 0.781
70.7405 0.573
70.7707 0.781
70.8010 0.781
70.8313 0.833
70.8616 0.417
70.8918 0.833
70.9221 0.885
70.9524 0.417
70.9827 0.781
71.0130 0.521
71.0432 0.521
71.0735 0.521
71.1038 0.729
71.1341 0.729
71.1644 0.417
71.1946 0.573
71.2249 0.625
71.2552 0.781
71.2855 0.521
71.3157 0.677
71.3460 0.573
71.3763 0.990
71.4066 0.625
71.4369 0.312
71.4671 0.729
71.4974 0.833
71.5277 0.729
71.5580 0.625
71.5883 0.729
71.6185 0.573
71.6488 0.677
71.6791 0.885
71.7094 0.677
71.7396 0.677
71.7699 0.417
71.8002 0.729
71.8305 1.146
71.8608 0.521
71.8910 0.729
71.9213 0.521
71.9516 0.729
71.9819 1.042
72.0122 0.729
72.0424 0.781
72.0727 0.417
72.1030 0.677
72.1333 0.937
72.1635 0.729
72.1938 0.833
72.2241 1.042
72.2544 0.573
72.2847 0.833
72.3149 0.677
72.3452 0.625
72.3755 0.885
72.4058 1.094
72.4361 0.937
72.4663 1.042
72.4966 1.146
72.5269 0.990
72.5572 1.250
72.5874 0.625
72.6177 0.573
72.6480 0.573
72.6783 0.990
72.7086 0.625
72.7388 0.729
72.7691 0.677
72.7994 0.677
72.8297 0.521
72.8600 0.260
72.8902 0.885
72.9205 0.573
72.9508 0.677
72.9811 0.625
73.0113 0.469
73.0416 0.573
73.0719 0.625
73.1022 0.312
73.1325 0.885
73.1627 0.729
73.1930 0.573
73.2233 0.417
73.2536 0.729
73.2839 0.260
73.3141 0.573
73.3444 0.625
73.3747 0.833
73.4050 0.625
73.4353 0.521
73.4655 0.417
73.4958 0.833
73.5261 0.677
73.5564 0.573
73.5866 0.729
73.6169 0.677
73.6472 0.573
73.6775 0.677
73.7078 0.573
73.7380 0.417
73.7683 0.573
73.7986 1.146
73.8289 0.573
73.8592 0.521
73.8894 0.625
73.9197 0.729
73.9500 0.521
73.9803 0.781
74.0105 0.729
74.0408 0.417
74.0711 0.521
74.1014 0.729
74.1317 0.573
74.1619 0.729
74.1922 1.198
74.2225 1.042
74.2528 1.198
74.2831 0.521
74.3133 0.469
74.3436 0.365
74.3739 0.677
74.4042 0.677
74.4344 0.469
74.4647 0.365
74.4950 0.365
74.5253 0.417
74.5556 0.573
74.5858 0.521
74.6161 0.729
74.6464 0.885
74.6767 0.573
74.7070 0.677
74.7372 0.677
74.7675 0.312
74.7978 0.677
74.8281 0.625
74.8583 0.729
74.8886 0.677
74.9189 0.729
74.9492 0.573
74.9795 0.885
75.0097 0.625
75.0400 0.521
75.0703 0.625
75.1006 0.781
75.1309 0.677
75.1611 0.990
75.1914 0.729
75.2217 0.729
75.2520 0.729
75.2822 0.677
75.3125 0.729
75.3428 0.833
75.3731 0.625
75.4034 0.417
75.4336 0.677
75.4639 0.521
75.4942 0.677
75.5245 0.729
75.5548 0.521
75.5850 0.729
75.6153 0.937
75.6456 0.729
75.6759 0.781
75.7061 0.469
75.7364 0.729
75.7667 0.833
75.7970 0.260
75.8273 0.573
75.8575 0.573
75.8878 0.521
75.9181 0.625
75.9484 0.573
75.9787 0.781
76.0089 0.729
76.0392 0.729
76.0695 0.729
76.0998 0.729
76.1301 0.677
76.1603 0.729
76.1906 0.677
76.2209 0.885
76.2512 0.833
76.2814 0.833
76.3117 0.833
76.3420 0.833
76.3723 0.625
76.4026 0.990
76.4328 0.729
76.4631 0.729
76.4934 0.781
76.5237 0.990
76.5540 1.094
76.5842 1.042
76.6145 0.937
76.6448 1.042
76.6751 1.042
76.7053 0.885
76.7356 0.573
76.7659 0.885
76.7962 0.781
76.8265 1.094
76.8567 1.198
76.8870 0.885
76.9173 0.781
76.9476 0.677
76.9779 0.781
77.0081 0.937
77.0384 0.937
77.0687 0.833
77.0990 0.573
77.1292 0.937
77.1595 0.833
77.1898 0.990
77.2201 0.885
77.2504 0.573
77.2806 0.937
77.3109 0.729
77.3412 0.625
77.3715 0.521
77.4018 0.573
77.4320 0.990
77.4623 0.885
77.4926 0.573
77.5229 0.833
77.5531 0.312
77.5834 0.729
77.6137 0.729
77.6440 0.677
77.6743 0.729
77.7045 0.573
77.7348 0.833
77.7651 0.417
77.7954 0.729
77.8257 0.365
77.8559 0.729
77.8862 0.573
77.9165 0.729
77.9468 0.677
77.9770 0.885
78.0073 0.312
78.0376 0.469
78.0679 0.677
78.0982 0.365
78.1284 0.677
78.1587 0.521
78.1890 0.469
78.2193 0.417
78.2496 0.729
78.2798 0.365
78.3101 0.729
78.3404 0.521
78.3707 0.677
78.4009 0.729
78.4312 0.885
78.4615 0.521
78.4918 0.417
78.5221 0.625
78.5523 0.469
78.5826 0.573
78.6129 0.729
78.6432 0.729
78.6735 0.573
78.7037 0.625
78.7340 0.260
78.7643 0.729
78.7946 0.625
78.8248 0.417
78.8551 0.781
78.8854 0.885
78.9157 0.625
78.9460 0.625
78.9762 1.146
79.0065 0.573
79.0368 0.365
79.0671 0.729
79.0974 0.885
79.1276 0.781
79.1579 0.729
79.1882 0.729
79.2185 0.469
79.2488 0.625
79.2790 0.625
79.3093 0.365
79.3396 0.625
79.3699 0.729
79.4001 0.625
79.4304 0.677
79.4607 0.729
79.4910 0.469
79.5213 0.521
79.5515 0.625
79.5818 0.312
79.6121 1.042
79.6424 0.937
79.6727 0.521
79.7029 0.625
79.7332 0.469
79.7635 0.365
79.7938 0.625
79.8240 0.885
79.8543 0.625
79.8846 0.729
79.9149 0.573
79.9452 0.833
79.9754 0.677
80.0057 0.365
80.0360 0.729
80.0663 0.677
80.0966 0.625
80.1268 0.417
80.1571 0.625
80.1874 0.781
80.2177 0.729
80.2479 0.781
80.2782 0.937
80.3085 0.417
80.3388 0.729
80.3691 0.573
80.3993 0.677
80.4296 0.417
80.4599 0.521
80.4902 0.521
80.5205 0.417
80.5507 0.781
80.5810 0.365
80.6113 0.521
80.6416 0.729
80.6718 0.521
80.7021 0.937
80.7324 0.625
80.7627 0.677
80.7930 0.729
80.8232 0.625
80.8535 0.625
80.8838 0.469
80.9141 0.729
80.9444 0.625
80.9746 0.729
81.0049 0.625
81.0352 0.990
81.0655 0.573
81.0957 0.781
81.1260 0.677
81.1563 0.469
81.1866 0.625
81.2169 0.885
81.2471 0.885
81.2774 0.573
81.3077 0.937
81.3380 0.521
81.3683 0.885
81.3985 0.677
81.4288 0.677
81.4591 0.573
81.4894 0.417
81.5196 0.729
81.5499 0.573
81.5802 1.042
81.6105 0.573
81.6408 0.417
81.6710 0.781
81.7013 0.677
81.7316 0.781
81.7619 0.990
81.7922 0.729
81.8224 0.729
81.8527 0.417
81.8830 0.885
81.9133 0.521
81.9436 0.781
81.9738 0.885
82.0041 0.521
82.0344 0.521
82.0647 0.729
82.0949 0.833
82.1252 0.729
82.1555 0.729
82.1858 0.573
82.2161 0.312
82.2463 0.625
82.2766 0.365
82.3069 1.042
82.3372 0.729
82.3675 0.521
82.3977 0.990
82.4280 0.885
82.4583 0.625
82.4886 1.094
82.5188 0.677
82.5491 0.885
82.5794 0.729
82.6097 0.625
82.6400 0.885
82.6702 0.781
82.7005 0.677
82.7308 0.625
82.7611 0.833
82.7914 0.885
82.8216 0.625
82.8519 0.625
82.8822 0.729
82.9125 0.729
82.9427 0.677
82.9730 0.781
83.0033 0.729
83.0336 0.521
83.0639 0.781
83.0941 0.781
83.1244 0.625
83.1547 0.469
83.1850 0.729
83.2153 0.573
83.2455 0.729
83.2758 0.885
83.3061 0.417
83.3364 0.729
83.3666 0.417
83.3969 0.729
83.4272 0.573
83.4575 0.521
83.4878 0.521
83.5180 0.729
83.5483 0.260
83.5786 0.573
83.6089 0.521
83.6392 0.417
83.6694 0.729
83.6997 0.625
83.7300 0.729
83.7603 0.417
83.7905 0.833
83.8208 0.677
83.8511 0.781
83.8814 0.417
83.9117 0.521
83.9419 0.417
83.9722 0.729
84.0025 0.833
84.0328 1.198
84.0631 0.521
84.0933 0.417
84.1236 0.365
84.1539 0.573
84.1842 0.521
84.2144 0.312
84.2447 0.469
84.2750 1.146
84.3053 0.573
84.3356 0.833
84.3658 0.729
84.3961 0.625
84.4264 0.521
84.4567 0.885
84.4870 0.990
84.5172 0.729
84.5475 0.729
84.5778 0.573
84.6081 0.625
84.6383 0.208
84.6686 0.573
84.6989 0.677
84.7292 0.729
84.7595 0.521
84.7897 0.729
84.8200 0.729
84.8503 0.417
84.8806 0.729
84.9109 0.677
84.9411 0.781
84.9714 0.885
85.0017 0.417
85.0320 0.365
85.0623 0.573
85.0925 0.625
85.1228 0.521
85.1531 0.729
85.1834 0.729
85.2136 0.260
85.2439 0.365
85.2742 0.469
85.3045 0.417
85.3348 0.573
85.3650 0.729
85.3953 0.573
85.4256 0.833
85.4559 0.729
85.4862 0.469
85.5164 0.521
85.5467 0.521
85.5770 0.469
85.6073 0.469
85.6375 0.521
85.6678 0.729
85.6981 0.260
85.7284 0.312
85.7587 0.625
85.7889 0.469
85.8192 0.573
85.8495 0.729
85.8798 0.417
85.9101 0.729
85.9403 1.146
85.9706 0.625
86.0009 0.729
86.0312 0.625
86.0614 0.729
86.0917 0.365
86.1220 0.625
86.1523 0.625
86.1826 0.677
86.2128 0.417
86.2431 0.677
86.2734 0.312
86.3037 0.937
86.3340 0.365
86.3642 0.677
86.3945 0.625
86.4248 0.469
86.4551 0.521
86.4853 0.417
86.5156 0.521
86.5459 0.417
86.5762 0.521
86.6065 0.521
86.6367 0.521
86.6670 0.312
86.6973 0.365
86.7276 0.833
86.7579 0.729
86.7881 0.677
86.8184 0.260
86.8487 0.729
86.8790 0.677
86.9092 0.729
86.9395 0.729
86.9698 0.573
87.0001 0.469
87.0304 0.521
87.0606 0.677
87.0909 0.625
87.1212 0.677
87.1515 0.573
87.1818 0.521
87.2120 0.833
87.2423 0.625
87.2726 0.729
87.3029 0.573
87.3331 0.417
87.3634 0.677
87.3937 0.885
87.4240 0.781
87.4543 0.365
87.4845 0.573
87.5148 0.417
87.5451 0.521
87.5754 0.521
87.6057 0.677
87.6359 0.365
87.6662 0.625
87.6965 0.521
87.7268 0.833
87.7571 0.833
87.7873 0.573
87.8176 0.417
87.8479 0.417
87.8782 0.677
87.9084 0.729
87.9387 0.937
87.9690 0.573
87.9993 0.312
88.0296 0.677
88.0598 0.990
88.0901 0.365
88.1204 0.677
88.1507 1.094
88.1810 0.625
88.2112 0.937
88.2415 0.781
88.2718 0.469
88.3021 0.729
88.3323 0.729
88.3626 0.677
88.3929 1.094
88.4232 0.729
88.4535 0.729
88.4837 0.521
88.5140 0.729
88.5443 0.833
88.5746 0.521
88.6049 1.198
88.6351 0.521
88.6654 0.729
88.6957 0.677
88.7260 0.990
88.7562 0.573
88.7865 0.573
88.8168 0.729
88.8471 0.885
88.8774 0.990
88.9076 0.833
88.9379 0.729
88.9682 0.833
88.9985 0.781
89.0288 0.885
89.0590 0.729
89.0893 1.042
89.1196 1.094
89.1499 1.406
89.1801 1.406
89.2104 0.885
89.2407 0.677
89.2710 0.833
89.3013 1.042
89.3315 0.833
89.3618 1.198
89.3921 1.406
89.4224 0.885
89.4527 1.302
89.4829 1.406
89.5132 0.937
89.5435 1.406
89.5738 1.094
89.6040 1.250
89.6343 1.146
89.6646 1.354
89.6949 0.990
89.7252 0.990
89.7554 1.198
89.7857 1.250
89.8160 1.510
89.8463 1.094
89.8766 0.937
89.9068 0.990
89.9371 1.042
89.9674 1.146
89.9977 0.781
90.0279 1.250
90.0582 0.781
90.0885 0.729
90.1188 0.677
90.1491 0.781
90.1793 0.833
90.2096 0.417
90.2399 0.937
90.2702 0.417
90.3005 0.625
90.3307 0.729
90.3610 0.677
90.3913 0.573
90.4216 0.729
90.4518 0.573
90.4821 0.885
90.5124 0.469
90.5427 0.521
90.5730 0.885
90.6032 0.990
90.6335 0.885
90.6638 0.625
90.6941 0.677
90.7244 0.729
90.7546 0.417
90.7849 0.521
90.8152 0.729
90.8455 0.677
90.8758 0.573
90.9060 0.833
90.9363 0.260
90.9666 0.833
90.9969 0.729
91.0271 0.417
91.0574 0.729
91.0877 0.573
91.1180 0.625
91.1483 0.625
91.1785 0.677
91.2088 0.625
91.2391 0.365
91.2694 0.625
91.2997 0.417
91.3299 0.885
91.3602 0.260
91.3905 0.521
91.4208 0.677
91.4510 0.573
91.4813 0.990
91.5116 0.833
91.5419 0.573
91.5722 0.677
91.6024 0.990
91.6327 0.729
91.6630 0.469
91.6933 0.573
91.7236 0.833
91.7538 0.521
91.7841 0.729
91.8144 0.729
91.8447 0.781
91.8749 0.625
91.9052 0.833
91.9355 0.677
91.9658 0.885
91.9961 0.573
92.0263 0.677
92.0566 0.677
92.0869 0.625
92.1172 0.833
92.1475 0.990
92.1777 0.521
92.2080 0.729
92.2383 0.469
92.2686 0.469
92.2988 0.885
92.3291 0.729
92.3594 0.833
92.3897 1.198
92.4200 0.781
92.4502 0.729
92.4805 0.781
92.5108 0.781
92.5411 0.729
92.5714 0.260
92.6016 1.250
92.6319 1.094
92.6622 0.885
92.6925 0.781
92.7227 0.729
92.7530 0.729
92.7833 0.781
92.8136 1.198
92.8439 0.885
92.8741 0.677
92.9044 0.833
92.9347 0.937
92.9650 0.833
92.9953 0.625
93.0255 0.937
93.0558 1.146
93.0861 0.521
93.1164 0.521
93.1466 0.729
93.1769 0.990
93.2072 0.937
93.2375 0.573
93.2678 0.781
93.2980 0.833
93.3283 1.146
93.3586 0.573
93.3889 1.146
93.4192 0.469
93.4494 0.885
93.4797 0.937
93.5100 0.469
93.5403 0.573
93.5706 0.990
93.6008 0.781
93.6311 0.573
93.6614 0.469
93.6917 0.833
93.7219 0.833
93.7522 0.729
93.7825 0.625
93.8128 0.729
93.8431 0.677
93.8733 0.677
93.9036 0.781
93.9339 0.937
93.9642 0.729
93.9945 0.729
94.0247 0.729
94.0550 0.781
94.0853 0.729
94.1156 0.833
94.1458 0.521
94.1761 0.677
94.2064 1.094
94.2367 0.833
94.2670 0.833
94.2972 0.990
94.3275 0.469
94.3578 0.625
94.3881 0.573
94.4184 0.365
94.4486 0.417
94.4789 0.729
94.5092 0.729
94.5395 1.198
94.5697 0.781
94.6000 0.885
94.6303 0.937
94.6606 0.885
94.6909 0.625
94.7211 0.677
94.7514 0.729
94.7817 0.937
94.8120 1.094
94.8423 1.354
94.8725 0.937
94.9028 0.937
94.9331 0.885
94.9634 0.885
94.9936 0.937
95.0239 0.885
95.0542 1.198
95.0845 1.094
95.1148 0.885
95.1450 1.562
95.1753 1.250
95.2056 0.937
95.2359 1.615
95.2662 1.042
95.2964 0.990
95.3267 1.719
95.3570 1.354
95.3873 1.250
95.4175 1.719
95.4478 1.042
95.4781 0.990
95.5084 1.198
95.5387 1.094
95.5689 0.729
95.5992 0.833
95.6295 1.250
95.6598 0.885
95.6901 0.781
95.7203 0.729
95.7506 0.833
95.7809 0.990
95.8112 0.833
95.8414 0.469
95.8717 0.625
95.9020 0.937
95.9323 0.521
95.9626 0.573
95.9928 0.781
96.0231 0.885
96.0534 0.885
96.0837 0.521
96.1140 0.729
96.1442 0.573
96.1745 0.521
96.2048 0.677
96.2351 0.990
96.2653 0.677
96.2956 0.937
96.3259 0.729
96.3562 0.625
96.3865 0.781
96.4167 0.729
96.4470 0.729
96.4773 0.833
96.5076 0.625
96.5379 0.833
96.5681 0.573
96.5984 0.469
96.6287 0.781
96.6590 0.990
96.6893 0.677
96.7195 0.677
96.7498 0.521
96.7801 0.417
96.8104 0.521
96.8406 0.677
96.8709 0.625
96.9012 0.312
96.9315 0.833
96.9618 0.260
96.9920 0.573
97.0223 0.729
97.0526 0.781
97.0829 0.573
97.1132 0.781
97.1434 0.677
97.1737 0.990
97.2040 0.781
97.2343 0.729
97.2645 0.677
97.2948 0.781
97.3251 0.573
97.3554 0.573
97.3857 0.573
97.4159 0.677
97.4462 0.833
97.4765 0.365
97.5068 0.781
97.5371 0.625
97.5673 0.469
97.5976 0.677
97.6279 0.833
97.6582 0.729
97.6884 0.573
97.7187 0.833
97.7490 0.573
97.7793 0.781
97.8096 0.729
97.8398 0.781
97.8701 0.729
97.9004 0.677
97.9307 0.781
97.9610 0.521
97.9912 0.781
98.0215 0.625
98.0518 0.885
98.0821 0.781
98.1123 1.042
98.1426 0.990
98.1729 0.885
98.2032 0.781
98.2335 0.365
98.2637 0.833
98.2940 0.677
98.3243 0.937
98.3546 1.510
98.3849 0.781
98.4151 0.677
98.4454 1.302
98.4757 1.406
98.5060 1.094
98.5362 0.990
98.5665 1.302
98.5968 0.781
98.6271 0.885
98.6574 0.885
98.6876 0.990
98.7179 0.937
98.7482 0.885
98.7785 1.198
98.8088 1.146
98.8390 0.625
98.8693 1.042
98.8996 0.781
98.9299 0.521
98.9601 0.781
98.9904 0.990
99.0207 0.937
99.0510 0.833
99.0813 1.094
99.1115 0.937
99.1418 0.781
99.1721 0.625
99.2024 0.625
99.2327 0.729
99.2629 0.729
99.2932 1.094
99.3235 0.625
99.3538 0.573
99.3841 0.729
99.4143 0.625
99.4446 0.729
99.4749 0.625
99.5052 0.521
99.5354 0.781
99.5657 0.781
99.5960 0.885
99.6263 0.625
99.6566 0.521
99.6868 0.677
99.7171 0.365
99.7474 0.677
99.7777 0.781
99.8080 0.833
99.8382 0.781
99.8685 0.521
99.8988 0.469
99.9291 0.729
99.9593 0.677
99.9896 0.729
100.0199 0.573
100.0502 0.521
100.0805 0.625
100.1107 0.677
100.1410 0.521
100.1713 0.625
100.2016 0.833
100.2319 0.521
100.2621 0.573
100.2924 0.781
100.3227 0.833
100.3530 0.885
100.3832 1.094
100.4135 0.833
100.4438 0.729
100.4741 0.521
100.5044 0.625
100.5346 0.885
100.5649 0.781
100.5952 0.781
100.6255 0.833
100.6558 0.781
100.6860 0.625
100.7163 0.781
100.7466 0.885
100.7769 1.042
100.8071 0.781
100.8374 0.521
100.8677 0.885
100.8980 0.885
100.9283 0.885
100.9585 0.937
100.9888 0.833
101.0191 0.625
101.0494 0.833
101.0797 0.729
101.1099 0.885
101.1402 0.729
101.1705 0.729
101.2008 0.521
101.2310 0.469
101.2613 0.625
101.2916 0.625
101.3219 0.937
101.3522 0.521
101.3824 0.729
101.4127 0.729
101.4430 0.573
101.4733 0.417
101.5036 0.781
101.5338 0.417
101.5641 0.573
101.5944 0.729
101.6247 0.677
101.6549 0.781
101.6852 0.469
101.7155 0.833
101.7458 0.417
101.7761 0.417
101.8063 1.042
101.8366 0.885
101.8669 0.573
101.8972 0.625
101.9275 0.885
101.9577 0.365
101.9880 0.521
102.0183 0.469
102.0486 1.302
102.0788 0.573
102.1091 0.573
102.1394 1.146
102.1697 0.625
102.2000 0.885
102.2302 0.833
102.2605 0.625
102.2908 0.521
102.3211 0.833
102.3514 0.781
102.3816 0.781
102.4119 0.833
102.4422 0.625
102.4725 0.625
102.5028 0.833
102.5330 0.885
102.5633 1.510
102.5936 0.677
102.6239 0.625
102.6541 0.937
102.6844 0.990
102.7147 0.677
102.7450 0.937
102.7753 0.990
102.8055 0.521
102.8358 1.042
102.8661 0.885
102.8964 1.042
102.9267 1.458
102.9569 1.042
102.9872 0.729
103.0175 0.990
103.0478 0.625
103.0780 1.094
103.1083 0.833
103.1386 1.094
103.1689 0.833
103.1992 1.198
103.2294 0.990
103.2597 0.885
103.2900 0.417
103.3203 1.250
103.3506 0.833
103.3808 1.146
103.4111 1.094
103.4414 0.729
103.4717 0.833
103.5019 0.833
103.5322 1.094
103.5625 0.885
103.5928 0.625
103.6231 0.885
103.6533 1.250
103.6836 1.042
103.7139 0.990
103.7442 0.990
103.7745 0.833
103.8047 1.042
103.8350 1.042
103.8653 1.250
103.8956 0.833
103.9258 1.198
103.9561 1.302
103.9864 0.885
104.0167 1.094
104.0470 1.094
104.0772 0.729
104.1075 0.833
104.1378 0.833
104.1681 0.833
104.1984 0.885
104.2286 1.042
104.2589 1.406
104.2892 1.198
104.3195 0.833
104.3497 0.833
104.3800 0.833
104.4103 0.573
104.4406 0.833
104.4709 1.146
104.5011 0.781
104.5314 0.990
104.5617 0.885
104.5920 0.729
104.6223 0.833
104.6525 1.198
104.6828 0.885
104.7131 0.833
104.7434 0.729
104.7736 0.625
104.8039 0.885
104.8342 1.042
104.8645 1.094
104.8948 0.937
104.9250 0.833
104.9553 0.833
104.9856 0.833
105.0159 0.833
105.0462 0.781
105.0764 0.729
105.1067 0.937
105.1370 0.885
105.1673 0.521
105.1975 0.833
105.2278 0.937
105.2581 0.937
105.2884 0.833
105.3187 0.729
105.3489 0.729
105.3792 0.833
105.4095 0.625
105.4398 0.885
105.4701 0.573
105.5003 0.625
105.5306 0.625
105.5609 0.833
105.5912 0.729
105.6215 0.833
105.6517 0.521
105.6820 0.521
105.7123 1.042
105.7426 0.625
105.7728 0.833
105.8031 0.573
105.8334 0.469
105.8637 0.521
105.8940 0.677
105.9242 0.625
105.9545 0.677
105.9848 0.885
106.0151 1.406
106.0454 0.781
106.0756 0.729
106.1059 0.677
106.1362 0.573
106.1665 0.625
106.1967 0.625
106.2270 0.469
106.2573 0.833
106.2876 0.365
106.3179 0.781
106.3481 0.885
106.3784 0.677
106.4087 0.729
106.4390 0.677
106.4693 0.677
106.4995 0.521
106.5298 0.937
106.5601 0.833
106.5904 0.885
106.6206 0.885
106.6509 0.625
106.6812 0.885
106.7115 0.521
106.7418 0.573
106.7720 0.885
106.8023 0.729
106.8326 0.937
106.8629 0.885
106.8932 0.885
106.9234 0.729
106.9537 0.521
106.9840 0.885
107.0143 0.365
107.0445 0.677
107.0748 1.094
107.1051 0.677
107.1354 0.885
107.1657 0.521
107.1959 0.469
107.2262 0.677
107.2565 0.885
107.2868 0.469
107.3171 0.469
107.3473 1.198
107.3776 0.469
107.4079 0.990
107.4382 0.729
107.4684 0.677
107.4987 0.469
107.5290 0.677
107.5593 0.885
107.5896 0.521
107.6198 0.677
107.6501 0.521
107.6804 0.885
107.7107 0.729
107.7410 0.365
107.7712 0.833
107.8015 0.573
107.8318 0.625
107.8621 0.625
107.8923 0.521
107.9226 0.937
107.9529 0.833
107.9832 0.833
108.0135 0.469
108.0437 0.677
108.0740 0.312
108.1043 0.937
108.1346 0.521
108.1649 0.677
108.1951 0.573
108.2254 0.781
108.2557 0.312
108.2860 0.781
108.3163 0.833
108.3465 0.729
108.3768 0.833
108.4071 0.625
108.4374 1.198
108.4676 0.833
108.4979 0.677
108.5282 0.781
108.5585 0.417
108.5888 0.573
108.6190 0.885
108.6493 0.677
108.6796 0.937
108.7099 0.937
108.7402 0.833
108.7704 0.729
108.8007 0.573
108.8310 0.521
108.8613 0.677
108.8915 0.885
108.9218 0.521
108.9521 0.781
108.9824 0.885
109.0127 0.417
109.0429 0.937
109.0732 0.781
109.1035 0.729
109.1338 0.885
109.1641 0.625
109.1943 0.833
109.2246 0.937
109.2549 0.573
109.2852 1.042
109.3154 0.469
109.3457 0.573
109.3760 0.729
109.4063 0.625
109.4366 1.198
109.4668 1.146
109.4971 0.365
109.5274 0.521
109.5577 0.937
109.5880 0.833
109.6182 0.833
109.6485 0.781
109.6788 0.729
109.7091 0.469
109.7393 0.990
109.7696 0.677
109.7999 0.625
109.8302 0.885
109.8605 0.937
109.8907 0.729
109.9210 0.677
109.9513 0.937
109.9816 1.146
110.0119 0.677
110.0421 0.937
110.0724 0.937
110.1027 0.677
110.1330 1.250
110.1632 0.885
110.1935 1.094
110.2238 1.042
110.2541 0.937
110.2844 1.458
110.3146 0.573
110.3449 1.094
110.3752 0.833
110.4055 0.729
110.4358 1.146
110.4660 1.354
110.4963 1.042
110.5266 0.990
110.5569 0.573
110.5871 1.042
110.6174 0.990
110.6477 1.042
110.6780 0.729
110.7083 0.625
110.7385 0.677
110.7688 0.937
110.7991 0.729
110.8294 1.198
110.8597 0.625
110.8899 0.833
110.9202 1.042
110.9505 0.833
110.9808 0.573
111.0110 0.937
111.0413 0.833
111.0716 0.833
111.1019 0.990
111.1322 0.990
111.1624 0.677
111.1927 0.781
111.2230 0.677
111.2533 0.990
111.2836 0.833
111.3138 0.937
111.3441 0.885
111.3744 0.521
111.4047 0.937
111.4350 0.781
111.4652 0.885
111.4955 1.198
111.5258 0.625
111.5561 0.729
111.5863 0.677
111.6166 0.781
111.6469 0.573
111.6772 0.729
111.7075 0.833
111.7377 0.729
111.7680 0.677
111.7983 0.469
111.8286 0.312
111.8589 0.573
111.8891 0.833
111.9194 0.781
111.9497 0.885
111.9800 0.729
112.0102 0.625
112.0405 0.417
112.0708 0.677
112.1011 0.365
112.1314 0.417
112.1616 0.521
112.1919 0.781
112.2222 0.781
112.2525 0.417
112.2828 0.521
112.3130 0.469
112.3433 0.677
112.3736 0.937
112.4039 0.677
112.4341 0.573
112.4644 0.833
112.4947 0.781
112.5250 1.042
112.5553 0.677
112.5855 0.781
112.6158 0.521
112.6461 0.573
112.6764 0.469
112.7067 0.833
112.7369 0.573
112.7672 0.781
112.7975 0.521
112.8278 0.885
112.8580 0.521
112.8883 0.521
112.9186 0.573
112.9489 0.781
112.9792 0.573
113.0094 0.573
113.0397 0.677
113.0700 0.729
113.1003 0.833
113.1306 0.990
113.1608 0.521
113.1911 0.625
113.2214 0.469
113.2517 0.573
113.2819 0.833
113.3122 0.625
113.3425 0.781
113.3728 0.937
113.4031 0.729
113.4333 0.365
113.4636 0.937
113.4939 0.469
113.5242 0.833
113.5545 0.677
113.5847 0.729
113.6150 0.885
113.6453 0.365
113.6756 0.573
113.7058 0.417
113.7361 0.729
113.7664 0.625
113.7967 0.937
113.8270 0.573
113.8572 1.250
113.8875 0.625
113.9178 0.677
113.9481 0.469
113.9784 0.729
114.0086 0.781
114.0389 0.781
114.0692 0.417
114.0995 0.781
114.1298 0.833
114.1600 0.625
114.1903 0.729
114.2206 0.625
114.2509 1.146
114.2811 0.937
114.3114 0.521
114.3417 1.042
114.3720 0.365
114.4023 0.729
114.4325 0.365
114.4628 0.833
114.4931 0.885
114.5234 0.521
114.5537 0.573
114.5839 1.042
114.6142 0.885
114.6445 0.885
114.6748 0.469
114.7050 1.250
114.7353 0.937
114.7656 0.885
114.7959 0.885
114.8262 0.417
114.8564 0.625
114.8867 0.781
114.9170 1.042
114.9473 0.729
114.9776 0.885
115.0078 0.677
115.0381 1.094
115.0684 1.042
115.0987 0.365
115.1289 1.406
115.1592 1.042
115.1895 0.833
115.2198 0.573
115.2501 0.573
115.2803 0.937
115.3106 0.573
115.3409 0.677
115.3712 0.625
115.4015 0.990
115.4317 0.937
115.4620 0.521
115.4923 0.937
115.5226 0.885
115.5528 1.094
115.5831 0.625
115.6134 0.937
115.6437 1.146
115.6740 0.885
115.7042 1.146
115.7345 0.885
115.7648 1.198
115.7951 0.990
115.8254 1.458
115.8556 0.729
115.8859 0.885
115.9162 0.729
115.9465 1.250
115.9767 1.198
116.0070 1.094
116.0373 1.094
116.0676 1.250
116.0979 1.354
116.1281 1.094
116.1584 1.406
116.1887 1.406
116.2190 1.406
116.2493 1.823
116.2795 1.510
116.3098 1.302
116.3401 0.937
116.3704 0.781
116.4006 1.094
116.4309 0.937
116.4612 1.354
116.4915 0.937
116.5218 1.146
116.5520 1.042
116.5823 1.302
116.6126 1.250
116.6429 0.521
116.6732 0.885
116.7034 1.198
116.7337 1.094
116.7640 0.833
116.7943 0.885
116.8245 1.198
116.8548 0.781
116.8851 0.885
116.9154 1.094
116.9457 0.781
116.9759 1.042
117.0062 1.146
117.0365 1.198
117.0668 0.833
117.0971 0.729
117.1273 1.198
117.1576 0.937
117.1879 1.146
117.2182 0.990
117.2485 0.990
117.2787 0.729
117.3090 0.833
117.3393 1.146
117.3696 0.521
117.3998 0.833
117.4301 0.677
117.4604 0.521
117.4907 0.521
117.5210 0.677
117.5512 1.146
117.5815 0.677
117.6118 0.833
117.6421 1.250
117.6724 0.781
117.7026 0.990
117.7329 0.625
117.7632 0.885
117.7935 0.625
117.8237 1.094
117.8540 0.833
117.8843 0.937
117.9146 0.625
117.9449 0.937
117.9751 0.573
118.0054 0.469
118.0357 1.042
118.0660 0.937
118.0963 0.781
118.1265 0.573
118.1568 0.677
118.1871 0.729
118.2174 0.573
118.2476 0.625
118.2779 0.573
118.3082 0.677
118.3385 1.042
118.3688 0.729
118.3990 0.781
118.4293 0.833
118.4596 1.146
118.4899 0.833
118.5202 0.521
118.5504 1.094
118.5807 0.781
118.6110 0.729
118.6413 0.833
118.6715 0.677
118.7018 0.937
118.7321 0.469
118.7624 0.573
118.7927 0.729
118.8229 0.469
118.8532 1.042
118.8835 1.042
118.9138 0.625
118.9441 0.521
118.9743 0.781
119.0046 0.833
119.0349 1.250
119.0652 0.521
119.0954 0.677
119.1257 0.469
119.1560 0.573
119.1863 0.885
119.2166 0.469
119.2468 0.521
119.2771 0.521
119.3074 1.042
119.3377 0.885
119.3680 0.833
119.3982 0.781
119.4285 0.677
119.4588 0.885
119.4891 1.094
119.5193 0.937
119.5496 0.885
119.5799 1.042
119.6102 0.885
119.6405 0.885
119.6707 0.729
119.7010 0.729
119.7313 0.833
119.7616 0.677
119.7919 0.885
119.8221 0.990
119.8524 0.990
119.8827 0.990
119.9130 0.677
119.9433 0.625
119.9735 0.365
120.0038 0.833
