'Id: "" Comment: "" Operator: "Lab Manager" Anode: "Cu" Scantype: "Locked Coupled" TimePerStep: "19.2" X: "9999" Y: "9999" Z: "9999" 
10.0015 4.583
10.0318 4.687
10.0620 3.594
10.0923 3.854
10.1226 3.646
10.1529 4.531
10.1832 3.750
10.2134 4.635
10.2437 4.167
10.2740 2.865
10.3043 3.750
10.3346 3.854
10.3648 4.479
10.3951 3.437
10.4254 3.698
10.4557 3.698
10.4859 4.062
10.5162 4.583
10.5465 3.281
10.5768 4.375
10.6071 3.594
10.6373 3.958
10.6676 3.333
10.6979 4.062
10.7282 4.167
10.7585 4.271
10.7887 3.437
10.8190 3.958
10.8493 3.646
10.8796 4.271
10.9098 4.010
10.9401 3.750
10.9704 3.021
11.0007 3.385
11.0310 3.490
11.0612 3.229
11.0915 4.010
11.1218 4.010
11.1521 3.698
11.1824 3.437
11.2126 3.490
11.2429 3.542
11.2732 3.750
11.3035 3.906
11.3337 3.490
11.3640 3.385
11.3943 3.490
11.4246 3.021
11.4549 3.333
11.4851 3.437
11.5154 3.854
11.5457 3.437
11.5760 3.490
11.6063 3.906
11.6365 3.385
11.6668 3.646
11.6971 4.010
11.7274 3.646
11.7577 3.906
11.7879 3.958
11.8182 3.125
11.8485 3.385
11.8788 2.604
11.9090 2.708
11.9393 2.812
11.9696 3.594
11.9999 4.687
12.0302 4.219
12.0604 4.583
12.0907 3.594
12.1210 3.698
12.1513 4.062
12.1816 3.594
12.2118 3.229
12.2421 3.542
12.2724 3.385
12.3027 3.802
12.3329 3.229
12.3632 3.802
12.3935 3.125
12.4238 3.281
12.4541 3.750
12.4843 2.760
12.5146 3.854
12.5449 3.073
12.5752 3.177
12.6055 3.229
12.6357 3.698
12.6660 4.062
12.6963 3.750
12.7266 3.125
12.7568 3.021
12.7871 4.010
12.8174 3.958
12.8477 3.177
12.8780 3.125
12.9082 3.958
12.9385 3.385
12.9688 3.594
12.9991 3.594
13.0294 4.010
13.0596 3.542
13.0899 3.594
13.1202 3.073
13.1505 3.385
13.1807 3.594
13.2110 3.490
13.2413 2.917
13.2716 2.969
13.3019 3.490
13.3321 4.062
13.3624 3.281
13.3927 3.802
13.4230 2.969
13.4533 2.917
13.4835 2.760
13.5138 2.865
13.5441 3.490
13.5744 2.552
13.6046 3.437
13.6349 3.437
13.6652 3.594
13.6955 4.010
13.7258 2.917
13.7560 3.229
13.7863 3.698
13.8166 3.073
13.8469 2.500
13.8772 3.177
13.9074 3.385
13.9377 2.917
13.9680 4.115
13.9983 3.333
14.0285 2.969
14.0588 3.437
14.0891 3.490
14.1194 2.917
14.1497 2.500
14.1799 3.073
14.2102 3.698
14.2405 3.333
14.2708 3.281
14.3011 3.229
14.3313 3.385
14.3616 3.698
14.3919 3.385
14.4222 3.385
14.4524 3.646
14.4827 3.437
14.5130 3.281
14.5433 2.604
14.5736 3.073
14.6038 2.396
14.6341 3.177
14.6644 2.865
14.6947 2.812
14.7250 3.073
14.7552 3.229
14.7855 3.073
14.8158 3.594
14.8461 4.167
14.8764 2.604
14.9066 3.698
14.9369 2.552
14.9672 3.281
14.9975 3.021
15.0277 3.177
15.0580 3.698
15.0883 3.385
15.1186 2.865
15.1489 2.865
15.1791 3.125
15.2094 2.708
15.2397 3.177
15.2700 3.177
15.3003 2.708
15.3305 3.073
15.3608 3.490
15.3911 3.542
15.4214 2.708
15.4516 2.396
15.4819 3.750
15.5122 3.177
15.5425 2.969
15.5728 2.656
15.6030 2.812
15.6333 3.385
15.6636 3.542
15.6939 3.229
15.7242 2.500
15.7544 3.333
15.7847 3.073
15.8150 3.177
15.8453 3.385
15.8755 3.073
15.9058 3.333
15.9361 3.021
15.9664 3.229
15.9967 2.708
16.0269 2.604
16.0572 3.125
16.0875 3.021
16.1178 3.073
16.1481 4.167
16.1783 2.917
16.2086 3.281
16.2389 2.604
16.2692 2.865
16.2994 4.219
16.3297 3.333
16.3600 4.167
16.3903 3.750
16.4206 2.760
16.4508 2.604
16.4811 2.865
16.5114 3.490
16.5417 2.917
16.5720 2.292
16.6022 2.865
16.6325 3.125
16.6628 2.708
16.6931 2.500
16.7233 2.135
16.7536 2.865
16.7839 3.906
16.8142 4.427
16.8445 3.594
16.8747 2.552
16.9050 3.594
16.9353 2.760
16.9656 3.073
16.9959 2.865
17.0261 2.656
17.0564 2.760
17.0867 3.437
17.1170 3.281
17.1472 2.708
17.1775 2.760
17.2078 4.115
17.2381 2.708
17.2684 3.437
17.2986 3.125
17.3289 2.552
17.3592 3.073
17.3895 2.917
17.4198 3.333
17.4500 2.656
17.4803 3.177
17.5106 2.604
17.5409 3.698
17.5712 2.812
17.6014 2.604
17.6317 2.292
17.6620 3.542
17.6923 2.917
17.7225 3.802
17.7528 2.708
17.7831 3.021
17.8134 2.865
17.8437 3.802
17.8739 3.646
17.9042 2.708
17.9345 2.812
17.9648 3.333
17.9951 2.917
18.0253 3.177
18.0556 2.812
18.0859 2.865
18.1162 3.125
18.1464 3.698
18.1767 3.073
18.2070 3.073
18.2373 3.281
18.2676 2.969
18.2978 2.812
18.3281 2.500
18.3584 3.281
18.3887 2.865
18.4190 3.177
18.4492 2.917
18.4795 3.594
18.5098 2.969
18.5401 3.073
18.5703 3.073
18.6006 2.500
18.6309 3.177
18.6612 2.604
18.6915 3.125
18.7217 3.021
18.7520 3.437
18.7823 2.708
18.8126 2.969
18.8429 3.646
18.8731 2.760
18.9034 2.187
18.9337 3.594
18.9640 3.698
18.9942 3.021
19.0245 2.656
19.0548 2.396
19.0851 3.125
19.1154 3.021
19.1456 2.760
19.1759 3.073
19.2062 3.333
19.2365 2.604
19.2668 3.021
19.2970 3.229
19.3273 2.708
19.3576 3.802
19.3879 3.177
19.4181 2.396
19.4484 3.646
19.4787 2.448
19.5090 2.917
19.5393 3.333
19.5695 2.812
19.5998 2.500
19.6301 3.125
19.6604 2.396
19.6907 2.917
19.7209 3.281
19.7512 2.917
19.7815 3.177
19.8118 3.177
19.8420 3.542
19.8723 3.490
19.9026 3.333
19.9329 3.281
19.9632 4.010
19.9934 4.167
20.0237 4.323
20.0540 3.698
20.0843 4.479
20.1146 3.437
20.1448 2.865
20.1751 2.969
20.2054 3.281
20.2357 3.333
20.2659 2.708
20.2962 3.125
20.3265 2.448
20.3568 3.073
20.3871 2.604
20.4173 3.125
20.4476 2.448
20.4779 2.656
20.5082 3.333
20.5385 2.969
20.5687 3.333
20.5990 3.177
20.6293 3.437
20.6596 2.812
20.6899 2.760
20.7201 3.177
20.7504 2.812
20.7807 3.229
20.8110 2.917
20.8412 3.385
20.8715 2.604
20.9018 3.281
20.9321 2.708
20.9624 2.969
20.9926 2.969
21.0229 2.240
21.0532 2.552
21.0835 2.865
21.1138 2.187
21.1440 2.604
21.1743 2.500
21.2046 3.333
21.2349 2.552
21.2651 3.698
21.2954 2.917
21.3257 2.396
21.3560 2.708
21.3863 2.865
21.4165 3.177
21.4468 2.656
21.4771 3.646
21.5074 2.604
21.5377 1.927
21.5679 2.240
21.5982 3.021
21.6285 2.969
21.6588 2.604
21.6890 3.385
21.7193 3.281
21.7496 2.552
21.7799 2.708
21.8102 3.177
21.8404 3.177
21.8707 2.448
21.9010 3.281
21.9313 3.229
21.9616 2.865
21.9918 2.500
22.0221 3.437
22.0524 2.969
22.0827 2.969
22.1129 2.656
22.1432 2.500
22.1735 2.240
22.2038 2.448
22.2341 2.865
22.2643 3.958
22.2946 2.604
22.3249 2.292
22.3552 1.927
22.3855 2.708
22.4157 2.187
22.4460 2.240
22.4763 2.604
22.5066 2.760
22.5368 2.917
22.5671 2.552
22.5974 2.760
22.6277 2.917
22.6580 3.385
22.6882 2.708
22.7185 3.073
22.7488 2.396
22.7791 2.240
22.8094 2.812
22.8396 2.604
22.8699 2.604
22.9002 3.385
22.9305 2.708
22.9607 2.812
22.9910 1.823
23.0213 2.500
23.0516 3.021
23.0819 2.760
23.1121 3.385
23.1424 2.552
23.1727 1.875
23.2030 3.281
23.2333 2.344
23.2635 3.021
23.2938 3.177
23.3241 2.812
23.3544 2.969
23.3846 3.229
23.4149 3.594
23.4452 2.917
23.4755 2.604
23.5058 2.708
23.5360 2.500
23.5663 2.969
23.5966 2.708
23.6269 3.333
23.6572 2.865
23.6874 1.875
23.7177 3.073
23.7480 2.656
23.7783 3.281
23.8086 2.917
23.8388 2.135
23.8691 3.073
23.8994 2.396
23.9297 4.375
23.9599 2.708
23.9902 2.135
24.0205 2.865
24.0508 3.177
24.0811 3.646
24.1113 3.125
24.1416 3.333
24.1719 2.917
24.2022 2.552
24.2325 2.708
24.2627 2.500
24.2930 2.552
24.3233 2.917
24.3536 2.292
24.3838 3.073
24.4141 2.187
24.4444 3.229
24.4747 2.760
24.5050 2.917
24.5352 3.073
24.5655 2.500
24.5958 3.177
24.6261 2.969
24.6564 2.760
24.6866 3.073
24.7169 3.177
24.7472 3.594
24.7775 2.812
24.8077 2.865
24.8380 2.656
24.8683 2.865
24.8986 3.333
24.9289 2.604
24.9591 3.333
24.9894 3.177
25.0197 2.031
25.0500 2.969
25.0803 2.604
25.1105 2.760
25.1408 2.031
25.1711 2.500
25.2014 2.396
25.2316 3.125
25.2619 2.708
25.2922 3.125
25.3225 2.135
25.3528 3.229
25.3830 3.073
25.4133 3.073
25.4436 2.552
25.4739 3.125
25.5042 2.500
25.5344 2.604
25.5647 2.760
25.5950 3.437
25.6253 3.073
25.6555 2.552
25.6858 2.969
25.7161 2.292
25.7464 2.708
25.7767 2.760
25.8069 2.292
25.8372 3.021
25.8675 3.385
25.8978 2.656
25.9281 2.396
25.9583 2.865
25.9886 2.969
26.0189 2.604
26.0492 1.927
26.0794 3.021
26.1097 2.812
26.1400 3.802
26.1703 2.552
26.2006 2.760
26.2308 2.812
26.2611 2.396
26.2914 3.177
26.3217 2.865
26.3520 2.917
26.3822 2.865
26.4125 2.552
26.4428 2.812
26.4731 2.812
26.5034 3.073
26.5336 2.760
26.5639 2.031
26.5942 2.812
26.6245 2.865
26.6547 3.333
26.6850 3.333
26.7153 3.385
26.7456 2.917
26.7759 3.490
26.8061 3.281
26.8364 3.490
26.8667 3.281
26.8970 2.656
26.9273 3.177
26.9575 2.656
26.9878 3.958
27.0181 3.750
27.0484 3.750
27.0786 3.698
27.1089 3.802
27.1392 3.490
27.1695 3.750
27.1998 3.125
27.2300 3.437
27.2603 3.646
27.2906 2.760
27.3209 3.490
27.3512 3.229
27.3814 3.646
27.4117 3.073
27.4420 3.750
27.4723 3.125
27.5025 3.021
27.5328 3.594
27.5631 2.760
27.5934 4.687
27.6237 3.594
27.6539 3.958
27.6842 3.125
27.7145 2.812
27.7448 3.906
27.7751 3.542
27.8053 2.656
27.8356 3.385
27.8659 3.542
27.8962 2.708
27.9264 3.490
27.9567 2.969
27.9870 2.656
28.0173 3.646
28.0476 2.865
28.0778 3.281
28.1081 3.854
28.1384 3.750
28.1687 3.437
28.1990 3.854
28.2292 3.229
28.2595 3.594
28.2898 3.854
28.3201 3.437
28.3503 4.896
28.3806 4.010
28.4109 3.385
28.4412 2.969
28.4715 3.281
28.5017 4.219
28.5320 4.062
28.5623 4.375
28.5926 3.802
28.6229 3.385
28.6531 3.906
28.6834 3.385
28.7137 3.229
28.7440 3.437
28.7742 3.229
28.8045 3.594
28.8348 4.115
28.8651 3.802
28.8954 3.646
28.9256 4.062
28.9559 4.010
28.9862 4.375
29.0165 3.594
29.0468 4.427
29.0770 3.437
29.1073 3.594
29.1376 4.427
29.1679 3.698
29.1981 3.594
29.2284 2.865
29.2587 3.958
29.2890 4.531
29.3193 4.479
29.3495 3.594
29.3798 4.323
29.4101 3.958
29.4404 4.167
29.4707 3.490
29.5009 4.062
29.5312 3.906
29.5615 4.531
29.5918 3.490
29.6221 3.698
29.6523 4.010
29.6826 4.323
29.7129 4.219
29.7432 3.698
29.7734 4.167
29.8037 4.010
29.8340 4.583
29.8643 3.646
29.8946 4.583
29.9248 4.687
29.9551 4.844
29.9854 4.635
30.0157 4.531
30.0460 4.844
30.0762 5.000
30.1065 4.583
30.1368 4.010
30.1671 4.323
30.1973 5.208
30.2276 5.052
30.2579 5.937
30.2882 5.260
30.3185 5.625
30.3487 5.417
30.3790 5.573
30.4093 5.365
30.4396 6.354
30.4699 5.781
30.5001 5.677
30.5304 6.406
30.5607 5.781
30.5910 6.719
30.6212 6.979
30.6515 5.990
30.6818 7.344
30.7121 6.354
30.7424 6.250
30.7726 7.135
30.8029 7.865
30.8332 7.604
30.8635 8.073
30.8938 8.750
30.9240 6.875
30.9543 9.792
30.9846 10.260
31.0149 8.854
31.0451 11.250
31.0754 11.979
31.1057 12.812
31.1360 13.333
31.1663 13.021
31.1965 14.323
31.2268 16.250
31.2571 17.604
31.2874 17.656
31.3177 21.823
31.3479 22.812
31.3782 25.937
31.4085 28.437
31.4388 31.615
31.4690 33.281
31.4993 40.052
31.5296 42.552
31.5599 46.302
31.5902 47.448
31.6204 53.385
31.6507 53.437
31.6810 51.354
31.7113 49.740
31.7416 46.771
31.7718 41.562
31.8021 36.354
31.8324 36.667
31.8627 31.615
31.8929 26.562
31.9232 24.219
31.9535 20.729
31.9838 19.323
32.0141 18.073
32.0443 16.927
32.0746 15.469
32.1049 14.062
32.1352 12.031
32.1655 11.198
32.1957 10.208
32.2260 9.531
32.2563 9.583
32.2866 11.406
32.3169 9.792
32.3471 9.792
32.3774 7.708
32.4077 8.646
32.4380 9.375
32.4682 8.125
32.4985 7.656
32.5288 7.969
32.5591 6.979
32.5894 7.604
32.6196 8.281
32.6499 8.229
32.6802 6.979
32.7105 6.562
32.7408 6.615
32.7710 7.187
32.8013 5.990
32.8316 6.771
32.8619 5.677
32.8921 6.667
32.9224 8.125
32.9527 6.927
32.9830 7.135
33.0133 6.042
33.0435 6.562
33.0738 6.146
33.1041 5.521
33.1344 5.729
33.1647 5.990
33.1949 6.250
33.2252 6.458
33.2555 7.292
33.2858 6.354
33.3160 6.458
33.3463 6.510
33.3766 5.990
33.4069 6.406
33.4372 6.510
33.4674 6.354
33.4977 6.771
33.5280 7.083
33.5583 7.187
33.5886 8.594
33.6188 7.552
33.6491 7.344
33.6794 8.073
33.7097 8.437
33.7399 7.656
33.7702 7.865
33.8005 8.281
33.8308 9.167
33.8611 11.146
33.8913 12.448
33.9216 11.094
33.9519 13.177
33.9822 13.958
34.0125 13.750
34.0427 18.177
34.0730 19.635
34.1033 23.437
34.1336 27.708
34.1638 31.406
34.1941 39.479
34.2244 45.885
34.2547 54.583
34.2850 59.635
34.3152 61.094
34.3455 56.979
34.3758 52.187
34.4061 46.198
34.4364 37.396
34.4666 29.583
34.4969 24.583
34.5272 20.625
34.5575 18.385
34.5877 16.823
34.6180 15.312
34.6483 13.750
34.6786 12.552
34.7089 11.979
34.7391 12.031
34.7694 11.302
34.7997 8.750
34.8300 9.271
34.8603 8.906
34.8905 9.948
34.9208 8.594
34.9511 9.635
34.9814 10.000
35.0116 8.437
35.0419 9.010
35.0722 9.531
35.1025 8.906
35.1328 10.937
35.1630 10.573
35.1933 10.208
35.2236 9.167
35.2539 10.417
35.2842 11.354
35.3144 9.167
35.3447 9.896
35.3750 12.083
35.4053 12.500
35.4356 11.250
35.4658 12.969
35.4961 15.729
35.5264 13.385
35.5567 14.635
35.5869 15.573
35.6172 16.250
35.6475 17.917
35.6778 20.781
35.7081 20.937
35.7383 23.802
35.7686 25.260
35.7989 28.437
35.8292 29.844
35.8595 35.937
35.8897 38.385
35.9200 42.969
35.9503 51.250
35.9806 54.115
36.0108 58.177
36.0411 65.729
36.0714 70.156
36.1017 72.187
36.1320 74.531
36.1622 76.042
36.1925 70.104
36.2228 69.323
36.2531 61.510
36.2834 57.552
36.3136 51.927
36.3439 46.615
36.3742 38.542
36.4045 37.240
36.4347 30.312
36.4650 27.292
36.4953 26.667
36.5256 22.865
36.5559 21.146
36.5861 19.010
36.6164 16.823
36.6467 14.323
36.6770 14.427
36.7073 13.750
36.7375 10.885
36.7678 10.833
36.7981 10.469
36.8284 10.260
36.8586 10.365
36.8889 8.385
36.9192 8.594
36.9495 8.229
36.9798 7.500
37.0100 7.656
37.0403 7.760
37.0706 6.667
37.1009 7.344
37.1312 8.281
37.1614 7.083
37.1917 6.302
37.2220 5.625
37.2523 5.729
37.2825 5.781
37.3128 5.729
37.3431 5.885
37.3734 5.260
37.4037 4.896
37.4339 5.208
37.4642 5.260
37.4945 5.417
37.5248 4.271
37.5551 5.729
37.5853 3.906
37.6156 4.792
37.6459 4.375
37.6762 5.469
37.7064 4.844
37.7367 4.687
37.7670 3.750
37.7973 4.271
37.8276 4.219
37.8578 4.948
37.8881 4.115
37.9184 4.531
37.9487 3.958
37.9790 4.167
38.0092 4.375
38.0395 3.698
38.0698 4.427
38.1001 4.323
38.1304 2.969
38.1606 3.437
38.1909 3.750
38.2212 3.646
38.2515 3.281
38.2817 3.177
38.3120 3.802
38.3423 4.115
38.3726 3.229
38.4029 3.385
38.4331 4.271
38.4634 3.021
38.4937 3.125
38.5240 3.229
38.5543 2.917
38.5845 3.229
38.6148 3.125
38.6451 3.594
38.6754 3.229
38.7056 2.552
38.7359 2.812
38.7662 2.969
38.7965 2.292
38.8268 3.854
38.8570 3.229
38.8873 3.906
38.9176 3.125
38.9479 3.021
38.9782 3.073
39.0084 3.073
39.0387 2.812
39.0690 2.292
39.0993 3.125
39.1295 2.500
39.1598 2.292
39.1901 2.396
39.2204 2.240
39.2507 2.969
39.2809 3.125
39.3112 2.969
39.3415 2.917
39.3718 3.177
39.4021 2.812
39.4323 3.385
39.4626 2.969
39.4929 2.917
39.5232 2.760
39.5534 2.500
39.5837 3.437
39.6140 2.187
39.6443 2.812
39.6746 2.812
39.7048 2.656
39.7351 2.135
39.7654 3.021
39.7957 2.969
39.8260 2.604
39.8562 2.604
39.8865 2.396
39.9168 2.604
39.9471 2.760
39.9773 2.708
40.0076 2.396
40.0379 2.396
40.0682 2.656
40.0985 2.604
40.1287 2.552
40.1590 3.229
40.1893 3.385
40.2196 2.604
40.2499 2.240
40.2801 2.500
40.3104 2.656
40.3407 2.604
40.3710 2.292
40.4012 2.396
40.4315 2.187
40.4618 2.604
40.4921 2.917
40.5224 2.448
40.5526 2.240
40.5829 2.448
40.6132 2.135
40.6435 2.448
40.6738 1.667
40.7040 2.604
40.7343 3.073
40.7646 2.031
40.7949 2.656
40.8251 2.969
40.8554 2.187
40.8857 1.771
40.9160 2.083
40.9463 2.604
40.9765 2.240
41.0068 2.396
41.0371 2.552
41.0674 1.875
41.0977 2.552
41.1279 2.500
41.1582 2.292
41.1885 2.292
41.2188 2.292
41.2491 2.031
41.2793 2.083
41.3096 2.448
41.3399 2.865
41.3702 2.240
41.4004 2.135
41.4307 3.177
41.4610 2.292
41.4913 1.875
41.5216 1.823
41.5518 2.083
41.5821 2.500
41.6124 1.771
41.6427 1.927
41.6730 2.552
41.7032 2.656
41.7335 2.604
41.7638 2.500
41.7941 2.396
41.8243 2.812
41.8546 2.552
41.8849 2.344
41.9152 1.927
41.9455 2.812
41.9757 2.448
42.0060 2.396
42.0363 2.396
42.0666 2.708
42.0969 2.448
42.1271 1.875
42.1574 2.031
42.1877 1.875
42.2180 2.135
42.2482 2.344
42.2785 2.292
42.3088 2.708
42.3391 2.292
42.3694 2.604
42.3996 2.812
42.4299 2.135
42.4602 2.448
42.4905 2.604
42.5208 2.604
42.5510 2.552
42.5813 2.083
42.6116 2.865
42.6419 2.135
42.6721 2.812
42.7024 2.292
42.7327 2.083
42.7630 2.187
42.7933 1.562
42.8235 2.187
42.8538 2.344
42.8841 2.604
42.9144 2.031
42.9447 2.500
42.9749 1.979
43.0052 1.979
43.0355 3.073
43.0658 2.448
43.0960 2.344
43.1263 2.240
43.1566 2.500
43.1869 2.500
43.2172 1.823
43.2474 2.604
43.2777 1.927
43.3080 2.083
43.3383 2.292
43.3686 2.344
43.3988 2.135
43.4291 2.656
43.4594 2.500
43.4897 2.552
43.5199 2.031
43.5502 2.708
43.5805 1.875
43.6108 2.396
43.6411 2.031
43.6713 1.979
43.7016 2.708
43.7319 2.187
43.7622 2.448
43.7925 2.344
43.8227 2.187
43.8530 2.344
43.8833 2.292
43.9136 2.552
43.9439 2.187
43.9741 1.927
44.0044 2.344
44.0347 2.760
44.0650 2.969
44.0952 1.979
44.1255 2.552
44.1558 2.448
44.1861 2.552
44.2164 2.604
44.2466 2.500
44.2769 2.344
44.3072 2.656
44.3375 1.510
44.3678 2.344
44.3980 2.500
44.4283 2.240
44.4586 2.604
44.4889 2.812
44.5191 2.240
44.5494 2.344
44.5797 2.708
44.6100 2.760
44.6403 2.552
44.6705 2.552
44.7008 2.969
44.7311 2.969
44.7614 2.448
44.7917 2.344
44.8219 1.771
44.8522 2.187
44.8825 1.979
44.9128 2.240
44.9430 1.979
44.9733 1.979
45.0036 2.083
45.0339 2.760
45.0642 3.021
45.0944 2.656
45.1247 2.969
45.1550 2.552
45.1853 2.500
45.2156 2.865
45.2458 2.760
45.2761 2.917
45.3064 2.812
45.3367 2.969
45.3669 2.344
45.3972 2.448
45.4275 2.760
45.4578 2.708
45.4881 2.448
45.5183 2.656
45.5486 2.708
45.5789 2.604
45.6092 2.812
45.6395 2.917
45.6697 2.917
45.7000 2.135
45.7303 2.448
45.7606 2.396
45.7908 3.021
45.8211 2.760
45.8514 2.448
45.8817 2.760
45.9120 3.073
45.9422 2.656
45.9725 2.812
46.0028 2.552
46.0331 2.708
46.0634 3.073
46.0936 2.865
46.1239 3.177
46.1542 2.865
46.1845 2.135
46.2147 3.073
46.2450 3.177
46.2753 2.760
46.3056 2.865
46.3359 2.708
46.3661 3.177
46.3964 2.708
46.4267 2.917
46.4570 3.177
46.4873 2.656
46.5175 2.708
46.5478 3.281
46.5781 3.490
46.6084 3.750
46.6386 3.385
46.6689 3.333
46.6992 3.229
46.7295 4.115
46.7598 3.490
46.7900 4.271
46.8203 3.542
46.8506 4.844
46.8809 4.896
46.9112 4.167
46.9414 4.062
46.9717 5.781
47.0020 6.458
47.0323 6.979
47.0626 6.979
47.0928 6.406
47.1231 7.500
47.1534 9.531
47.1837 10.260
47.2139 12.240
47.2442 11.667
47.2745 13.125
47.3048 13.802
47.3351 14.687
47.3653 15.573
47.3956 15.000
47.4259 16.510
47.4562 14.844
47.4865 16.146
47.5167 12.656
47.5470 12.708
47.5773 13.802
47.6076 12.240
47.6378 11.094
47.6681 9.896
47.6984 9.010
47.7287 7.917
47.7590 7.708
47.7892 6.354
47.8195 6.146
47.8498 7.135
47.8801 5.625
47.9104 5.208
47.9406 5.365
47.9709 4.479
48.0012 4.219
48.0315 4.479
48.0617 3.281
48.0920 3.802
48.1223 4.062
48.1526 3.490
48.1829 2.812
48.2131 3.125
48.2434 3.490
48.2737 3.542
48.3040 2.917
48.3343 3.698
48.3645 4.167
48.3948 2.083
48.4251 3.021
48.4554 3.594
48.4856 3.229
48.5159 2.604
48.5462 3.177
48.5765 2.969
48.6068 2.448
48.6370 3.021
48.6673 2.812
48.6976 3.281
48.7279 3.281
48.7582 2.552
48.7884 2.396
48.8187 2.135
48.8490 2.187
48.8793 2.812
48.9095 2.396
48.9398 2.292
48.9701 2.812
49.0004 2.292
49.0307 2.135
49.0609 2.031
49.0912 2.448
49.1215 2.292
49.1518 1.927
49.1821 2.240
49.2123 2.344
49.2426 2.292
49.2729 2.031
49.3032 2.187
49.3334 3.021
49.3637 2.344
49.3940 2.552
49.4243 2.656
49.4546 1.875
49.4848 2.656
49.5151 2.552
49.5454 2.448
49.5757 2.031
49.6060 1.823
49.6362 1.875
49.6665 2.135
49.6968 2.552
49.7271 2.448
49.7574 1.927
49.7876 2.187
49.8179 2.240
49.8482 2.031
49.8785 2.552
49.9087 2.396
49.9390 1.927
49.9693 2.187
49.9996 1.719
50.0299 2.031
50.0601 1.771
50.0904 1.719
50.1207 2.604
50.1510 3.021
50.1813 1.667
50.2115 2.344
50.2418 2.448
50.2721 1.250
50.3024 2.292
50.3326 1.667
50.3629 2.187
50.3932 2.344
50.4235 1.615
50.4538 2.083
50.4840 1.771
50.5143 1.667
50.5446 2.708
50.5749 2.292
50.6052 2.396
50.6354 2.083
50.6657 2.187
50.6960 2.500
50.7263 1.979
50.7565 1.979
50.7868 2.031
50.8171 2.656
50.8474 1.979
50.8777 2.812
50.9079 2.396
50.9382 2.292
50.9685 2.500
50.9988 2.240
51.0291 2.135
51.0593 2.344
51.0896 1.510
51.1199 1.823
51.1502 1.979
51.1804 1.615
51.2107 2.292
51.2410 2.292
51.2713 2.448
51.3016 2.500
51.3318 1.979
51.3621 2.031
51.3924 2.448
51.4227 2.240
51.4530 2.083
51.4832 1.927
51.5135 2.552
51.5438 1.979
51.5741 2.031
51.6043 2.292
51.6346 2.604
51.6649 2.448
51.6952 1.979
51.7255 1.667
51.7557 2.552
51.7860 3.281
51.8163 1.823
51.8466 2.760
51.8769 1.823
51.9071 1.667
51.9374 2.083
51.9677 1.458
51.9980 2.552
52.0282 2.396
52.0585 1.927
52.0888 2.240
52.1191 1.979
52.1494 2.344
52.1796 2.187
52.2099 2.344
52.2402 2.292
52.2705 2.187
52.3008 2.031
52.3310 2.031
52.3613 2.187
52.3916 2.344
52.4219 1.875
52.4521 1.615
52.4824 2.083
52.5127 2.240
52.5430 1.875
52.5733 2.240
52.6035 2.760
52.6338 1.823
52.6641 2.031
52.6944 2.708
52.7247 2.240
52.7549 2.135
52.7852 2.240
52.8155 1.302
52.8458 2.344
52.8761 2.552
52.9063 1.719
52.9366 1.927
52.9669 1.615
52.9972 2.083
53.0274 2.500
53.0577 2.396
53.0880 1.979
53.1183 2.552
53.1486 2.292
53.1788 2.396
53.2091 2.604
53.2394 2.083
53.2697 2.396
53.3000 2.135
53.3302 2.240
53.3605 2.448
53.3908 2.187
53.4211 2.708
53.4513 2.396
53.4816 1.719
53.5119 2.344
53.5422 1.823
53.5725 2.812
53.6027 1.771
53.6330 2.187
53.6633 2.240
53.6936 2.344
53.7239 2.552
53.7541 2.448
53.7844 1.823
53.8147 2.552
53.8450 2.135
53.8752 2.344
53.9055 2.708
53.9358 2.396
53.9661 2.031
53.9964 2.552
54.0266 2.344
54.0569 3.177
54.0872 2.500
54.1175 2.812
54.1478 2.552
54.1780 2.344
54.2083 2.969
54.2386 2.760
54.2689 2.500
54.2991 2.031
54.3294 1.927
54.3597 2.344
54.3900 3.177
54.4203 2.500
54.4505 2.760
54.4808 2.344
54.5111 2.708
54.5414 2.917
54.5717 2.708
54.6019 2.708
54.6322 2.969
54.6625 3.021
54.6928 3.229
54.7230 2.396
54.7533 2.552
54.7836 1.823
54.8139 2.760
54.8442 2.240
54.8744 3.125
54.9047 2.708
54.9350 2.604
54.9653 3.125
54.9956 2.240
55.0258 2.552
55.0561 2.031
55.0864 2.344
55.1167 2.917
55.1469 3.281
55.1772 3.021
55.2075 2.969
55.2378 3.281
55.2681 2.969
55.2983 3.385
55.3286 3.594
55.3589 3.490
55.3892 3.281
55.4195 3.385
55.4497 3.333
55.4800 3.542
55.5103 3.490
55.5406 3.698
55.5709 3.177
55.6011 4.010
55.6314 4.583
55.6617 3.594
55.6920 4.427
55.7222 4.635
55.7525 4.740
55.7828 5.573
55.8131 4.948
55.8434 5.781
55.8736 5.365
55.9039 5.156
55.9342 6.875
55.9645 6.979
55.9948 7.292
56.0250 7.760
56.0553 8.073
56.0856 8.437
56.1159 8.594
56.1461 9.740
56.1764 11.354
56.2067 10.365
56.2370 12.396
56.2673 13.385
56.2975 15.521
56.3278 14.479
56.3581 17.604
56.3884 18.281
56.4187 21.042
56.4489 21.719
56.4792 21.771
56.5095 21.198
56.5398 21.198
56.5700 20.260
56.6003 18.698
56.6306 17.031
56.6609 15.417
56.6912 14.687
56.7214 13.125
56.7517 11.927
56.7820 12.135
56.8123 11.354
56.8426 10.677
56.8728 10.000
56.9031 6.927
56.9334 7.187
56.9637 8.490
56.9939 6.510
57.0242 5.729
57.0545 6.406
57.0848 5.052
57.1151 4.948
57.1453 4.948
57.1756 5.365
57.2059 5.156
57.2362 4.323
57.2665 5.000
57.2967 3.906
57.3270 4.115
57.3573 3.542
57.3876 3.750
57.4178 3.073
57.4481 3.437
57.4784 3.125
57.5087 4.323
57.5390 3.229
57.5692 3.333
57.5995 2.552
57.6298 3.542
57.6601 3.125
57.6904 2.292
57.7206 2.760
57.7509 2.552
57.7812 2.552
57.8115 2.396
57.8417 3.125
57.8720 2.240
57.9023 2.865
57.9326 2.396
57.9629 2.240
57.9931 2.760
58.0234 2.969
58.0537 2.760
58.0840 2.552
58.1143 2.708
58.1445 2.812
58.1748 2.604
58.2051 2.656
58.2354 2.500
58.2656 2.135
58.2959 2.552
58.3262 1.927
58.3565 2.187
58.3868 2.240
58.4170 2.292
58.4473 3.229
58.4776 2.812
58.5079 2.448
58.5382 1.875
58.5684 2.344
58.5987 2.917
58.6290 2.083
58.6593 3.125
58.6896 2.708
58.7198 2.292
58.7501 2.135
58.7804 2.604
58.8107 3.229
58.8409 2.500
58.8712 2.500
58.9015 3.333
58.9318 2.292
58.9621 2.604
58.9923 2.760
59.0226 2.552
59.0529 2.812
59.0832 2.656
59.1135 2.187
59.1437 2.187
59.1740 2.760
59.2043 2.187
59.2346 2.448
59.2648 2.135
59.2951 2.448
59.3254 2.135
59.3557 2.552
59.3860 1.875
59.4162 2.760
59.4465 2.031
59.4768 2.135
59.5071 2.396
59.5374 2.292
59.5676 2.344
59.5979 3.229
59.6282 2.187
59.6585 1.927
59.6887 2.708
59.7190 2.812
59.7493 2.031
59.7796 2.552
59.8099 2.448
59.8401 2.292
59.8704 2.552
59.9007 2.187
59.9310 2.031
59.9613 2.969
59.9915 2.552
60.0218 2.135
60.0521 2.187
60.0824 2.969
60.1126 1.458
60.1429 2.031
60.1732 2.865
60.2035 2.083
60.2338 2.344
60.2640 2.083
60.2943 2.344
60.3246 2.656
60.3549 1.979
60.3852 2.812
60.4154 2.344
60.4457 2.135
60.4760 2.187
60.5063 2.760
60.5365 2.396
60.5668 2.500
60.5971 2.240
60.6274 2.969
60.6577 3.021
60.6879 2.083
60.7182 2.500
60.7485 2.656
60.7788 2.760
60.8091 2.656
60.8393 1.615
60.8696 2.656
60.8999 2.500
60.9302 2.656
60.9604 2.500
60.9907 2.812
61.0210 3.021
61.0513 2.187
61.0816 2.760
61.1118 2.083
61.1421 2.031
61.1724 3.281
61.2027 2.917
61.2330 2.396
61.2632 2.500
61.2935 2.812
61.3238 3.229
61.3541 2.448
61.3844 3.437
61.4146 2.812
61.4449 3.125
61.4752 2.396
61.5055 2.552
61.5357 2.760
61.5660 2.760
61.5963 3.229
61.6266 2.917
61.6569 2.187
61.6871 3.750
61.7174 4.167
61.7477 3.229
61.7780 3.594
61.8083 2.969
61.8385 3.542
61.8688 3.073
61.8991 3.594
61.9294 3.281
61.9596 3.594
61.9899 3.906
62.0202 3.698
62.0505 4.635
62.0808 4.323
62.1110 4.844
62.1413 5.469
62.1716 5.469
62.2019 4.427
62.2322 6.042
62.2624 5.417
62.2927 6.198
62.3230 7.187
62.3533 6.875
62.3835 7.917
62.4138 8.594
62.4441 9.687
62.4744 9.687
62.5047 11.562
62.5349 10.469
62.5652 13.385
62.5955 13.802
62.6258 15.990
62.6561 15.521
62.6863 15.833
62.7166 16.562
62.7469 17.135
62.7772 17.396
62.8074 17.083
62.8377 16.198
62.8680 16.094
62.8983 15.677
62.9286 14.010
62.9588 13.281
62.9891 11.875
63.0194 11.667
63.0497 10.417
63.0800 8.750
63.1102 8.333
63.1405 7.500
63.1708 8.281
63.2011 7.448
63.2313 6.250
63.2616 5.677
63.2919 5.104
63.3222 5.000
63.3525 4.531
63.3827 4.896
63.4130 3.698
63.4433 3.437
63.4736 4.687
63.5039 3.542
63.5341 3.698
63.5644 4.687
63.5947 3.646
63.6250 3.750
63.6552 3.906
63.6855 3.542
63.7158 2.865
63.7461 3.229
63.7764 2.344
63.8066 3.437
63.8369 2.760
63.8672 3.073
63.8975 2.760
63.9278 1.927
63.9580 2.917
63.9883 3.125
64.0186 3.333
64.0489 2.865
64.0791 1.979
64.1094 2.969
64.1397 2.604
64.1700 2.187
64.2003 2.396
64.2305 3.229
64.2608 2.708
64.2911 2.917
64.3214 2.969
64.3517 2.656
64.3819 2.604
64.4122 2.812
64.4425 2.448
64.4728 2.396
64.5031 3.229
64.5333 2.865
64.5636 2.135
64.5939 2.812
64.6242 2.604
64.6544 2.500
64.6847 2.396
64.7150 2.187
64.7453 2.760
64.7756 2.500
64.8058 2.448
64.8361 2.552
64.8664 2.969
64.8967 2.552
64.9270 2.708
64.9572 3.125
64.9875 2.448
65.0178 2.448
65.0481 2.240
65.0783 2.552
65.1086 2.552
65.1389 2.552
65.1692 2.604
65.1995 3.021
65.2297 2.760
65.2600 2.708
65.2903 2.656
65.3206 1.927
65.3509 3.125
65.3811 2.656
65.4114 2.812
65.4417 1.771
65.4720 2.135
65.5022 2.344
65.5325 2.812
65.5628 3.021
65.5931 3.281
65.6234 2.865
65.6536 3.385
65.6839 2.969
65.7142 3.021
65.7445 2.812
65.7748 3.542
65.8050 2.917
65.8353 3.125
65.8656 4.062
65.8959 2.552
65.9261 3.281
65.9564 3.958
65.9867 3.594
66.0170 3.594
66.0473 4.167
66.0775 3.802
66.1078 4.271
66.1381 4.219
66.1684 3.906
66.1987 4.010
66.2289 5.052
66.2592 4.635
66.2895 4.062
66.3198 5.052
66.3500 4.219
66.3803 3.958
66.4106 4.531
66.4409 3.750
66.4712 4.427
66.5014 4.531
66.5317 3.906
66.5620 3.646
66.5923 3.177
66.6226 3.646
66.6528 4.062
66.6831 3.229
66.7134 3.333
66.7437 3.958
66.7739 4.323
66.8042 3.437
66.8345 3.229
66.8648 3.854
66.8951 3.125
66.9253 3.646
66.9556 3.854
66.9859 3.802
67.0162 3.490
67.0465 3.594
67.0767 4.427
67.1070 4.375
67.1373 5.469
67.1676 3.906
67.1978 4.271
67.2281 4.740
67.2584 4.427
67.2887 5.521
67.3190 5.417
67.3492 5.833
67.3795 5.052
67.4098 6.198
67.4401 7.083
67.4704 7.448
67.5006 8.021
67.5309 8.177
67.5612 8.854
67.5915 9.531
67.6218 9.115
67.6520 10.573
67.6823 10.781
67.7126 11.510
67.7429 11.615
67.7731 12.865
67.8034 15.052
67.8337 12.865
67.8640 12.760
67.8943 14.219
67.9245 13.802
67.9548 12.656
67.9851 11.094
68.0154 11.823
68.0457 10.156
68.0759 10.260
68.1062 10.365
68.1365 9.479
68.1668 8.542
68.1970 7.760
68.2273 7.917
68.2576 7.292
68.2879 5.990
68.3182 6.875
68.3484 6.510
68.3787 6.094
68.4090 5.833
68.4393 5.937
68.4696 4.792
68.4998 6.458
68.5301 4.740
68.5604 5.469
68.5907 5.417
68.6209 5.469
68.6512 5.937
68.6815 5.885
68.7118 5.833
68.7421 6.562
68.7723 5.156
68.8026 6.562
68.8329 6.979
68.8632 7.396
68.8935 7.552
68.9237 6.302
68.9540 7.135
68.9843 6.354
69.0146 7.760
69.0448 6.719
69.0751 5.990
69.1054 7.396
69.1357 6.667
69.1660 6.198
69.1962 6.667
69.2265 6.302
69.2568 5.312
69.2871 5.417
69.3174 5.365
69.3476 4.948
69.3779 3.906
69.4082 3.854
69.4385 3.385
69.4687 4.010
69.4990 3.490
69.5293 4.167
69.5596 3.906
69.5899 3.906
69.6201 2.812
69.6504 3.698
69.6807 3.333
69.7110 2.708
69.7413 3.177
69.7715 2.865
69.8018 3.490
69.8321 3.490
69.8624 2.552
69.8926 2.500
69.9229 2.812
69.9532 2.500
69.9835 2.708
70.0138 2.344
70.0440 2.500
70.0743 2.292
70.1046 2.917
70.1349 2.292
70.1652 1.979
70.1954 2.812
70.2257 2.500
70.2560 2.031
70.2863 2.604
70.3166 2.292
70.3468 2.552
70.3771 1.875
70.4074 2.135
70.4377 1.771
70.4679 2.292
70.4982 2.500
70.5285 1.823
70.5588 2.135
70.5891 2.187
70.6193 2.240
70.6496 2.031
70.6799 2.031
70.7102 1.875
70.7405 1.771
70.7707 1.771
70.8010 1.927
70.8313 2.240
70.8616 1.979
70.8918 2.031
70.9221 1.927
70.9524 2.187
70.9827 1.927
71.0130 2.187
71.0432 1.823
71.0735 1.771
71.1038 1.354
71.1341 2.292
71.1644 2.135
71.1946 1.823
71.2249 2.604
71.2552 1.615
71.2855 1.719
71.3157 1.771
71.3460 1.719
71.3763 1.979
71.4066 1.823
71.4369 1.458
71.4671 1.875
71.4974 2.865
71.5277 2.083
71.5580 2.187
71.5883 1.771
71.6185 2.083
71.6488 2.083
71.6791 1.823
71.7094 2.135
71.7396 2.187
71.7699 2.083
71.8002 1.823
71.8305 2.240
71.8608 1.406
71.8910 1.562
71.9213 1.771
71.9516 2.031
71.9819 2.240
72.0122 1.719
72.0424 2.500
72.0727 1.719
72.1030 2.448
72.1333 2.031
72.1635 2.500
72.1938 2.760
72.2241 2.031
72.2544 2.240
72.2847 2.396
72.3149 1.927
72.3452 2.760
72.3755 3.281
72.4058 2.760
72.4361 2.708
72.4663 2.708
72.4966 2.500
72.5269 2.812
72.5572 3.021
72.5874 2.760
72.6177 2.552
72.6480 2.344
72.6783 2.240
72.7086 2.344
72.7388 1.927
72.7691 2.240
72.7994 2.708
72.8297 2.187
72.8600 2.240
72.8902 1.875
72.9205 1.667
72.9508 1.667
72.9811 2.240
73.0113 1.927
73.0416 2.083
73.0719 1.510
73.1022 1.771
73.1325 1.562
73.1627 1.875
73.1930 2.187
73.2233 1.562
73.2536 2.135
73.2839 1.562
73.3141 1.667
73.3444 1.875
73.3747 1.458
73.4050 1.250
73.4353 2.396
73.4655 1.406
73.4958 2.240
73.5261 1.615
73.5564 1.302
73.5866 1.406
73.6169 1.615
73.6472 1.667
73.6775 1.927
73.7078 1.146
73.7380 1.927
73.7683 2.031
73.7986 1.771
73.8289 1.406
73.8592 1.042
73.8894 1.615
73.9197 1.250
73.9500 1.719
73.9803 1.302
74.0105 1.615
74.0408 1.719
74.0711 0.990
74.1014 1.354
74.1317 1.406
74.1619 2.187
74.1922 1.146
74.2225 1.406
74.2528 1.406
74.2831 1.719
74.3133 1.562
74.3436 1.667
74.3739 1.667
74.4042 1.667
74.4344 1.458
74.4647 1.302
74.4950 1.354
74.5253 1.354
74.5556 1.615
74.5858 1.719
74.6161 1.198
74.6464 1.719
74.6767 2.240
74.7070 1.875
74.7372 1.719
74.7675 1.458
74.7978 1.458
74.8281 1.615
74.8583 1.562
74.8886 1.667
74.9189 1.458
74.9492 1.250
74.9795 1.562
75.0097 1.510
75.0400 1.615
75.0703 1.823
75.1006 1.562
75.1309 1.719
75.1611 1.458
75.1914 1.510
75.2217 1.667
75.2520 1.615
75.2822 1.250
75.3125 1.250
75.3428 1.615
75.3731 1.406
75.4034 2.344
75.4336 1.667
75.4639 1.562
75.4942 1.510
75.5245 1.302
75.5548 1.354
75.5850 1.406
75.6153 1.719
75.6456 1.406
75.6759 1.510
75.7061 1.875
75.7364 1.406
75.7667 2.031
75.7970 1.406
75.8273 1.719
75.8575 2.344
75.8878 1.510
75.9181 1.354
75.9484 1.354
75.9787 1.667
76.0089 1.719
76.0392 2.240
76.0695 2.240
76.0998 1.667
76.1301 1.823
76.1603 1.927
76.1906 2.031
76.2209 2.135
76.2512 1.667
76.2814 2.292
76.3117 1.979
76.3420 2.187
76.3723 1.719
76.4026 1.771
76.4328 2.865
76.4631 2.135
76.4934 2.135
76.5237 1.875
76.5540 2.552
76.5842 1.875
76.6145 2.292
76.6448 2.396
76.6751 2.083
76.7053 3.437
76.7356 2.656
76.7659 3.281
76.7962 3.333
76.8265 2.187
76.8567 3.021
76.8870 2.708
76.9173 2.865
76.9476 3.177
76.9779 3.177
77.0081 2.812
77.0384 3.125
77.0687 1.927
77.0990 3.073
77.1292 2.187
77.1595 2.344
77.1898 2.083
77.2201 1.875
77.2504 2.656
77.2806 1.927
77.3109 2.187
77.3412 2.292
77.3715 1.667
77.4018 1.719
77.4320 2.344
77.4623 1.667
77.4926 1.302
77.5229 1.198
77.5531 2.187
77.5834 2.031
77.6137 1.667
77.6440 2.135
77.6743 2.135
77.7045 1.250
77.7348 1.250
77.7651 1.406
77.7954 2.031
77.8257 2.031
77.8559 1.458
77.8862 1.667
77.9165 1.198
77.9468 1.667
77.9770 1.615
78.0073 2.083
78.0376 1.406
78.0679 1.302
78.0982 1.719
78.1284 1.719
78.1587 1.667
78.1890 1.458
78.2193 1.458
78.2496 1.042
78.2798 1.510
78.3101 1.510
78.3404 1.510
78.3707 1.302
78.4009 2.083
78.4312 2.240
78.4615 1.667
78.4918 1.406
78.5221 2.031
78.5523 1.146
78.5826 1.250
78.6129 1.927
78.6432 1.615
78.6735 1.250
78.7037 1.667
78.7340 2.135
78.7643 1.458
78.7946 1.146
78.8248 1.458
78.8551 1.250
78.8854 1.510
78.9157 1.823
78.9460 1.094
78.9762 1.615
79.0065 1.667
79.0368 1.823
79.0671 1.510
79.0974 1.198
79.1276 1.458
79.1579 1.667
79.1882 1.250
79.2185 1.667
79.2488 1.875
79.2790 1.198
79.3093 1.458
79.3396 1.719
79.3699 1.667
79.4001 1.719
79.4304 1.615
79.4607 1.771
79.4910 1.719
79.5213 1.354
79.5515 1.510
79.5818 1.458
79.6121 1.094
79.6424 1.771
79.6727 1.458
79.7029 0.885
79.7332 1.823
79.7635 1.354
79.7938 1.458
79.8240 1.667
79.8543 1.562
79.8846 0.990
79.9149 1.406
79.9452 1.771
79.9754 1.875
80.0057 1.354
80.0360 1.719
80.0663 1.667
80.0966 1.615
80.1268 1.406
80.1571 1.667
80.1874 1.615
80.2177 0.833
80.2479 1.510
80.2782 1.458
80.3085 1.667
80.3388 1.875
80.3691 1.667
80.3993 1.927
80.4296 1.510
80.4599 1.562
80.4902 1.458
80.5205 1.823
80.5507 2.240
80.5810 1.406
80.6113 1.354
80.6416 1.615
80.6718 1.198
80.7021 1.667
80.7324 1.771
80.7627 1.667
80.7930 1.979
80.8232 2.187
80.8535 1.667
80.8838 1.510
80.9141 2.135
80.9444 1.562
80.9746 1.771
81.0049 2.135
81.0352 2.135
81.0655 2.031
81.0957 2.031
81.1260 2.135
81.1563 0.990
81.1866 2.135
81.2169 2.187
81.2471 1.406
81.2774 2.344
81.3077 2.396
81.3380 2.396
81.3683 2.292
81.3985 2.031
81.4288 1.875
81.4591 2.292
81.4894 2.135
81.5196 1.354
81.5499 1.875
81.5802 1.771
81.6105 1.823
81.6408 2.031
81.6710 1.823
81.7013 2.135
81.7316 1.406
81.7619 2.135
81.7922 1.979
81.8224 1.771
81.8527 1.771
81.8830 2.396
81.9133 1.719
81.9436 1.667
81.9738 1.354
82.0041 1.406
82.0344 1.458
82.0647 1.510
82.0949 1.146
82.1252 1.667
82.1555 1.250
82.1858 1.042
82.2161 1.667
82.2463 1.302
82.2766 1.667
82.3069 1.458
82.3372 1.458
82.3675 1.146
82.3977 1.510
82.4280 1.354
82.4583 1.615
82.4886 1.250
82.5188 1.562
82.5491 1.458
82.5794 1.458
82.6097 1.406
82.6400 1.406
82.6702 1.406
82.7005 1.979
82.7308 1.406
82.7611 1.198
82.7914 1.719
82.8216 1.406
82.8519 1.302
82.8822 1.615
82.9125 1.510
82.9427 1.302
82.9730 1.250
83.0033 1.823
83.0336 1.458
83.0639 1.042
83.0941 1.406
83.1244 1.354
83.1547 1.615
83.1850 1.667
83.2153 1.250
83.2455 1.458
83.2758 1.823
83.3061 2.135
83.3364 1.146
83.3666 1.458
83.3969 1.146
83.4272 1.562
83.4575 1.771
83.4878 1.510
83.5180 0.937
83.5483 1.198
83.5786 1.458
83.6089 1.198
83.6392 1.771
83.6694 1.250
83.6997 1.823
83.7300 1.823
83.7603 1.198
83.7905 1.823
83.8208 1.719
83.8511 1.198
83.8814 1.250
83.9117 1.615
83.9419 1.562
83.9722 1.667
84.0025 1.615
84.0328 0.625
84.0631 1.510
84.0933 1.302
84.1236 1.198
84.1539 1.406
84.1842 0.833
84.2144 1.771
84.2447 1.406
84.2750 1.667
84.3053 1.198
84.3356 1.406
84.3658 1.562
84.3961 1.198
84.4264 0.990
84.4567 1.146
84.4870 2.031
84.5172 1.615
84.5475 1.198
84.5778 1.250
84.6081 1.094
84.6383 1.615
84.6686 1.823
84.6989 1.979
84.7292 1.562
84.7595 1.771
84.7897 1.198
84.8200 1.302
84.8503 1.198
84.8806 1.562
84.9109 1.458
84.9411 1.667
84.9714 1.562
85.0017 1.979
85.0320 1.667
85.0623 1.667
85.0925 1.302
85.1228 1.250
85.1531 1.562
85.1834 1.771
85.2136 1.250
85.2439 1.146
85.2742 1.667
85.3045 1.354
85.3348 1.615
85.3650 1.771
85.3953 1.198
85.4256 1.198
85.4559 1.667
85.4862 1.510
85.5164 1.406
85.5467 1.615
85.5770 1.510
85.6073 1.198
85.6375 1.979
85.6678 2.135
85.6981 1.354
85.7284 1.198
85.7587 1.458
85.7889 1.667
85.8192 1.562
85.8495 1.354
85.8798 1.146
85.9101 1.927
85.9403 1.823
85.9706 1.250
86.0009 1.510
86.0312 1.719
86.0614 1.042
86.0917 1.250
86.1220 1.250
86.1523 1.354
86.1826 1.302
86.2128 0.885
86.2431 1.615
86.2734 1.719
86.3037 1.719
86.3340 1.198
86.3642 1.198
86.3945 1.667
86.4248 1.615
86.4551 1.146
86.4853 1.406
86.5156 1.562
86.5459 1.198
86.5762 1.615
86.6065 1.875
86.6367 1.146
86.6670 1.562
86.6973 1.458
86.7276 1.667
86.7579 1.458
86.7881 1.250
86.8184 1.719
86.8487 1.510
86.8790 1.875
86.9092 1.146
86.9395 1.510
86.9698 1.719
87.0001 1.406
87.0304 1.510
87.0606 1.302
87.0909 0.990
87.1212 1.146
87.1515 2.448
87.1818 1.146
87.2120 1.615
87.2423 2.083
87.2726 1.302
87.3029 1.094
87.3331 1.198
87.3634 1.146
87.3937 1.198
87.4240 1.354
87.4543 1.458
87.4845 1.250
87.5148 1.979
87.5451 1.979
87.5754 1.615
87.6057 0.990
87.6359 1.510
87.6662 2.083
87.6965 1.823
87.7268 1.667
87.7571 1.406
87.7873 1.823
87.8176 1.354
87.8479 1.615
87.8782 1.771
87.9084 1.354
87.9387 1.615
87.9690 1.667
87.9993 2.135
88.0296 2.135
88.0598 1.562
88.0901 1.510
88.1204 2.083
88.1507 1.562
88.1810 1.615
88.2112 1.094
88.2415 2.083
88.2718 1.771
88.3021 2.240
88.3323 1.667
88.3626 2.083
88.3929 1.458
88.4232 1.823
88.4535 1.771
88.4837 1.875
88.5140 1.771
88.5443 1.771
88.5746 1.875
88.6049 2.135
88.6351 2.031
88.6654 2.656
88.6957 1.875
88.7260 1.823
88.7562 1.667
88.7865 2.135
88.8168 2.292
88.8471 2.604
88.8774 2.187
88.9076 2.135
88.9379 2.448
88.9682 2.292
88.9985 2.396
89.0288 3.021
89.0590 3.437
89.0893 2.187
89.1196 2.656
89.1499 3.177
89.1801 2.292
89.2104 2.812
89.2407 3.021
89.2710 3.385
89.3013 3.490
89.3315 3.958
89.3618 2.917
89.3921 3.073
89.4224 4.010
89.4527 3.229
89.4829 3.073
89.5132 4.167
89.5435 4.010
89.5738 3.802
89.6040 3.437
89.6343 3.802
89.6646 3.594
89.6949 3.437
89.7252 4.219
89.7554 3.594
89.7857 3.333
89.8160 2.969
89.8463 3.333
89.8766 2.917
89.9068 2.969
89.9371 3.229
89.9674 2.135
89.9977 2.604
90.0279 3.073
90.0582 2.865
90.0885 2.292
90.1188 2.135
90.1491 2.240
90.1793 2.135
90.2096 2.396
90.2399 3.125
90.2702 2.187
90.3005 2.083
90.3307 1.406
90.3610 2.135
90.3913 2.031
90.4216 1.667
90.4518 1.667
90.4821 1.771
90.5124 1.875
90.5427 1.823
90.5730 1.562
90.6032 1.667
90.6335 1.875
90.6638 2.135
90.6941 2.083
90.7244 1.562
90.7546 1.094
90.7849 1.927
90.8152 1.615
90.8455 1.667
90.8758 1.979
90.9060 2.187
90.9363 1.979
90.9666 1.354
90.9969 1.719
91.0271 1.146
91.0574 2.031
91.0877 1.146
91.1180 1.667
91.1483 1.354
91.1785 2.031
91.2088 1.823
91.2391 1.510
91.2694 1.510
91.2997 1.458
91.3299 1.406
91.3602 1.771
91.3905 1.719
91.4208 1.979
91.4510 1.615
91.4813 1.562
91.5116 2.031
91.5419 1.875
91.5722 1.458
91.6024 1.823
91.6327 1.354
91.6630 1.615
91.6933 1.406
91.7236 1.667
91.7538 1.719
91.7841 2.031
91.8144 1.719
91.8447 1.615
91.8749 1.458
91.9052 2.396
91.9355 1.250
91.9658 2.240
91.9961 1.927
92.0263 2.031
92.0566 1.615
92.0869 2.031
92.1172 1.719
92.1475 1.198
92.1777 2.031
92.2080 1.562
92.2383 1.615
92.2686 0.729
92.2988 1.979
92.3291 2.083
92.3594 2.344
92.3897 2.396
92.4200 1.927
92.4502 2.083
92.4805 2.760
92.5108 2.083
92.5411 2.656
92.5714 2.552
92.6016 2.292
92.6319 2.187
92.6622 1.927
92.6925 2.812
92.7227 2.396
92.7530 2.292
92.7833 1.615
92.8136 2.187
92.8439 1.615
92.8741 2.187
92.9044 2.240
92.9347 2.240
92.9650 2.083
92.9953 2.083
93.0255 1.823
93.0558 1.927
93.0861 2.187
93.1164 1.927
93.1466 1.667
93.1769 1.562
93.2072 2.187
93.2375 2.396
93.2678 1.719
93.2980 1.875
93.3283 1.927
93.3586 1.719
93.3889 1.667
93.4192 2.135
93.4494 1.615
93.4797 2.187
93.5100 1.823
93.5403 1.406
93.5706 2.187
93.6008 1.979
93.6311 1.198
93.6614 2.292
93.6917 2.031
93.7219 2.135
93.7522 1.406
93.7825 1.667
93.8128 1.615
93.8431 1.771
93.8733 1.562
93.9036 2.604
93.9339 1.823
93.9642 2.083
93.9945 1.302
94.0247 1.719
94.0550 1.458
94.0853 2.083
94.1156 2.292
94.1458 1.771
94.1761 2.187
94.2064 2.187
94.2367 1.510
94.2670 1.510
94.2972 2.448
94.3275 1.979
94.3578 1.979
94.3881 2.187
94.4184 1.719
94.4486 2.552
94.4789 2.240
94.5092 2.344
94.5395 2.135
94.5697 1.875
94.6000 3.229
94.6303 1.823
94.6606 2.812
94.6909 2.292
94.7211 3.021
94.7514 2.708
94.7817 2.604
94.8120 2.760
94.8423 2.708
94.8725 2.760
94.9028 3.177
94.9331 3.021
94.9634 3.906
94.9936 2.969
95.0239 2.708
95.0542 3.906
95.0845 3.594
95.1148 3.698
95.1450 3.229
95.1753 3.437
95.2056 3.385
95.2359 2.969
95.2662 4.115
95.2964 4.062
95.3267 4.844
95.3570 3.333
95.3873 3.437
95.4175 3.802
95.4478 3.698
95.4781 3.490
95.5084 3.437
95.5387 2.917
95.5689 2.708
95.5992 2.812
95.6295 2.656
95.6598 2.500
95.6901 3.229
95.7203 2.292
95.7506 2.604
95.7809 2.604
95.8112 2.292
95.8414 1.927
95.8717 2.448
95.9020 2.292
95.9323 2.396
95.9626 2.240
95.9928 2.396
96.0231 1.927
96.0534 1.823
96.0837 1.875
96.1140 1.875
96.1442 2.240
96.1745 2.292
96.2048 1.615
96.2351 1.719
96.2653 1.979
96.2956 1.354
96.3259 2.135
96.3562 1.771
96.3865 1.510
96.4167 1.823
96.4470 1.615
96.4773 1.458
96.5076 1.771
96.5379 2.344
96.5681 2.135
96.5984 1.667
96.6287 1.771
96.6590 1.719
96.6893 1.771
96.7195 1.458
96.7498 1.719
96.7801 1.302
96.8104 1.302
96.8406 1.771
96.8709 1.823
96.9012 1.667
96.9315 1.667
96.9618 1.823
96.9920 1.562
97.0223 1.719
97.0526 1.406
97.0829 1.458
97.1132 1.823
97.1434 1.979
97.1737 2.031
97.2040 1.719
97.2343 1.823
97.2645 1.719
97.2948 0.990
97.3251 1.823
97.3554 1.458
97.3857 2.031
97.4159 1.562
97.4462 2.083
97.4765 1.771
97.5068 1.719
97.5371 1.667
97.5673 1.406
97.5976 1.771
97.6279 1.979
97.6582 1.667
97.6884 1.354
97.7187 1.823
97.7490 1.562
97.7793 1.562
97.8096 2.083
97.8398 2.187
97.8701 2.500
97.9004 1.719
97.9307 1.875
97.9610 1.771
97.9912 2.031
98.0215 2.292
98.0518 2.292
98.0821 2.396
98.1123 2.552
98.1426 1.823
98.1729 2.396
98.2032 2.135
98.2335 2.187
98.2637 2.240
98.2940 2.812
98.3243 2.187
98.3546 2.500
98.3849 2.187
98.4151 1.979
98.4454 2.917
98.4757 2.500
98.5060 2.604
98.5362 3.229
98.5665 2.344
98.5968 2.083
98.6271 2.500
98.6574 2.083
98.6876 2.344
98.7179 3.594
98.7482 2.292
98.7785 2.604
98.8088 2.344
98.8390 2.396
98.8693 1.979
98.8996 2.187
98.9299 2.448
98.9601 2.708
98.9904 1.927
99.0207 1.771
99.0510 2.292
99.0813 2.083
99.1115 1.927
99.1418 2.083
99.1721 1.823
99.2024 2.396
99.2327 1.875
99.2629 2.396
99.2932 2.083
99.3235 1.823
99.3538 1.302
99.3841 1.719
99.4143 1.562
99.4446 1.250
99.4749 2.187
99.5052 1.823
99.5354 1.823
99.5657 2.083
99.5960 2.135
99.6263 1.823
99.6566 1.719
99.6868 1.354
99.7171 1.615
99.7474 1.510
99.7777 1.979
99.8080 1.927
99.8382 1.562
99.8685 1.562
99.8988 1.823
99.9291 1.354
99.9593 1.302
99.9896 1.562
100.0199 1.823
100.0502 1.198
100.0805 1.302
100.1107 1.719
100.1410 1.615
100.1713 1.250
100.2016 1.719
100.2319 1.823
100.2621 1.719
100.2924 1.146
100.3227 1.823
100.3530 1.406
100.3832 1.927
100.4135 1.406
100.4438 1.562
100.4741 2.083
100.5044 2.135
100.5346 1.302
100.5649 1.979
100.5952 1.250
100.6255 1.302
100.6558 1.302
100.6860 1.927
100.7163 1.823
100.7466 1.510
100.7769 1.823
100.8071 1.302
100.8374 1.927
100.8677 1.771
100.8980 1.510
100.9283 1.354
100.9585 1.875
100.9888 1.458
101.0191 1.302
101.0494 1.510
101.0797 1.354
101.1099 1.302
101.1402 1.406
101.1705 1.458
101.2008 1.615
101.2310 1.615
101.2613 1.823
101.2916 1.302
101.3219 1.302
101.3522 1.823
101.3824 1.094
101.4127 1.823
101.4430 1.354
101.4733 1.875
101.5036 1.510
101.5338 1.927
101.5641 1.719
101.5944 1.562
101.6247 1.719
101.6549 1.771
101.6852 1.875
101.7155 2.344
101.7458 1.302
101.7761 1.667
101.8063 1.667
101.8366 1.927
101.8669 2.031
101.8972 1.458
101.9275 2.240
101.9577 1.667
101.9880 1.771
102.0183 1.719
102.0486 1.198
102.0788 2.083
102.1091 1.927
102.1394 1.354
102.1697 1.719
102.2000 2.187
102.2302 1.250
102.2605 1.823
102.2908 1.875
102.3211 2.031
102.3514 1.562
102.3816 2.240
102.4119 2.292
102.4422 2.135
102.4725 1.875
102.5028 1.354
102.5330 1.979
102.5633 2.917
102.5936 2.448
102.6239 2.083
102.6541 1.562
102.6844 2.552
102.7147 2.031
102.7450 2.656
102.7753 2.552
102.8055 2.396
102.8358 2.865
102.8661 2.135
102.8964 2.865
102.9267 1.823
102.9569 2.708
102.9872 2.344
103.0175 2.396
103.0478 2.344
103.0780 1.823
103.1083 1.979
103.1386 2.656
103.1689 2.187
103.1992 2.500
103.2294 2.292
103.2597 2.552
103.2900 2.448
103.3203 2.240
103.3506 2.292
103.3808 2.708
103.4111 1.615
103.4414 2.292
103.4717 2.344
103.5019 1.719
103.5322 3.021
103.5625 3.125
103.5928 2.344
103.6231 3.073
103.6533 2.760
103.6836 3.021
103.7139 2.552
103.7442 2.448
103.7745 3.073
103.8047 2.448
103.8350 3.385
103.8653 2.917
103.8956 3.385
103.9258 2.500
103.9561 3.542
103.9864 3.385
104.0167 2.812
104.0470 3.177
104.0772 3.437
104.1075 3.281
104.1378 2.812
104.1681 3.333
104.1984 3.073
104.2286 2.969
104.2589 2.656
104.2892 3.333
104.3195 3.281
104.3497 2.917
104.3800 2.135
104.4103 3.594
104.4406 2.917
104.4709 2.500
104.5011 2.187
104.5314 2.396
104.5617 2.500
104.5920 1.927
104.6223 2.500
104.6525 1.927
104.6828 1.979
104.7131 1.823
104.7434 2.187
104.7736 1.354
104.8039 2.083
104.8342 1.562
104.8645 2.031
104.8948 2.396
104.9250 1.615
104.9553 2.031
104.9856 1.823
105.0159 1.458
105.0462 1.406
105.0764 1.823
105.1067 1.979
105.1370 1.823
105.1673 1.771
105.1975 2.240
105.2278 1.979
105.2581 1.823
105.2884 1.719
105.3187 1.615
105.3489 2.031
105.3792 2.083
105.4095 1.719
105.4398 2.135
105.4701 1.979
105.5003 1.823
105.5306 1.146
105.5609 1.406
105.5912 1.875
105.6215 1.979
105.6517 1.198
105.6820 1.146
105.7123 1.250
105.7426 1.510
105.7728 1.406
105.8031 1.771
105.8334 1.458
105.8637 1.771
105.8940 1.927
105.9242 1.302
105.9545 1.927
105.9848 1.771
106.0151 2.187
106.0454 1.615
106.0756 0.937
106.1059 1.719
106.1362 1.719
106.1665 1.667
106.1967 1.823
106.2270 1.979
106.2573 1.927
106.2876 1.146
106.3179 1.667
106.3481 1.667
106.3784 1.667
106.4087 1.875
106.4390 1.771
106.4693 1.042
106.4995 1.771
106.5298 1.458
106.5601 1.562
106.5904 1.823
106.6206 1.823
106.6509 1.510
106.6812 1.979
106.7115 1.875
106.7418 1.979
106.7720 1.354
106.8023 1.146
106.8326 1.354
106.8629 1.771
106.8932 1.615
106.9234 1.979
106.9537 1.979
106.9840 1.562
107.0143 1.719
107.0445 1.510
107.0748 1.406
107.1051 1.354
107.1354 1.302
107.1657 1.406
107.1959 1.615
107.2262 1.667
107.2565 1.615
107.2868 1.458
107.3171 2.031
107.3473 1.979
107.3776 1.146
107.4079 1.615
107.4382 1.615
107.4684 1.406
107.4987 1.823
107.5290 1.719
107.5593 1.250
107.5896 2.292
107.6198 0.990
107.6501 1.927
107.6804 1.979
107.7107 1.458
107.7410 1.458
107.7712 1.823
107.8015 1.406
107.8318 1.667
107.8621 1.927
107.8923 1.615
107.9226 2.240
107.9529 1.510
107.9832 1.771
108.0135 1.562
108.0437 1.302
108.0740 1.615
108.1043 1.302
108.1346 1.771
108.1649 1.927
108.1951 1.510
108.2254 1.719
108.2557 1.719
108.2860 0.937
108.3163 1.562
108.3465 1.719
108.3768 1.719
108.4071 1.667
108.4374 1.979
108.4676 1.719
108.4979 1.875
108.5282 1.823
108.5585 2.031
108.5888 1.719
108.6190 1.458
108.6493 2.292
108.6796 2.031
108.7099 1.667
108.7402 1.510
108.7704 1.771
108.8007 1.198
108.8310 1.823
108.8613 1.771
108.8915 1.979
108.9218 2.240
108.9521 2.135
108.9824 1.406
109.0127 1.771
109.0429 1.823
109.0732 1.927
109.1035 1.823
109.1338 1.562
109.1641 2.031
109.1943 1.719
109.2246 1.094
109.2549 2.083
109.2852 2.240
109.3154 1.719
109.3457 1.510
109.3760 1.875
109.4063 1.354
109.4366 1.979
109.4668 1.667
109.4971 1.875
109.5274 2.292
109.5577 1.615
109.5880 1.406
109.6182 2.187
109.6485 1.823
109.6788 2.187
109.7091 2.083
109.7393 1.771
109.7696 1.927
109.7999 1.979
109.8302 2.500
109.8605 1.615
109.8907 1.771
109.9210 2.292
109.9513 1.510
109.9816 1.719
110.0119 1.875
110.0421 2.240
110.0724 2.552
110.1027 2.240
110.1330 2.552
110.1632 1.667
110.1935 2.865
110.2238 2.240
110.2541 1.823
110.2844 1.719
110.3146 2.240
110.3449 2.344
110.3752 2.292
110.4055 1.458
110.4358 1.562
110.4660 2.240
110.4963 2.448
110.5266 2.344
110.5569 2.865
110.5871 2.448
110.6174 2.240
110.6477 2.187
110.6780 2.187
110.7083 2.448
110.7385 1.823
110.7688 2.344
110.7991 2.083
110.8294 3.073
110.8597 1.771
110.8899 2.031
110.9202 1.927
110.9505 2.344
110.9808 1.615
111.0110 1.875
111.0413 1.042
111.0716 1.927
111.1019 1.510
111.1322 2.448
111.1624 2.604
111.1927 1.927
111.2230 1.406
111.2533 1.615
111.2836 1.406
111.3138 1.875
111.3441 1.771
111.3744 1.771
111.4047 1.458
111.4350 1.354
111.4652 1.667
111.4955 1.719
111.5258 1.562
111.5561 1.458
111.5863 1.198
111.6166 1.667
111.6469 1.562
111.6772 1.823
111.7075 1.823
111.7377 1.719
111.7680 1.198
111.7983 1.823
111.8286 1.615
111.8589 1.875
111.8891 1.927
111.9194 1.875
111.9497 1.302
111.9800 1.354
112.0102 1.771
112.0405 1.250
112.0708 1.875
112.1011 1.615
112.1314 1.615
112.1616 1.562
112.1919 1.458
112.2222 1.719
112.2525 1.458
112.2828 1.354
112.3130 1.354
112.3433 1.771
112.3736 1.562
112.4039 1.094
112.4341 1.354
112.4644 1.406
112.4947 1.615
112.5250 1.615
112.5553 1.562
112.5855 1.719
112.6158 1.667
112.6461 1.406
112.6764 1.719
112.7067 1.719
112.7369 1.562
112.7672 1.146
112.7975 2.083
112.8278 2.031
112.8580 1.510
112.8883 1.302
112.9186 1.667
112.9489 0.729
112.9792 1.615
113.0094 2.083
113.0397 1.667
113.0700 1.771
113.1003 1.875
113.1306 1.198
113.1608 1.667
113.1911 1.406
113.2214 1.667
113.2517 1.719
113.2819 1.615
113.3122 1.562
113.3425 1.927
113.3728 1.042
113.4031 1.198
113.4333 1.719
113.4636 1.406
113.4939 1.406
113.5242 1.302
113.5545 1.615
113.5847 1.667
113.6150 1.458
113.6453 1.771
113.6756 1.406
113.7058 1.458
113.7361 1.042
113.7664 1.875
113.7967 1.146
113.8270 1.094
113.8572 1.562
113.8875 1.510
113.9178 1.302
113.9481 1.771
113.9784 1.198
114.0086 1.927
114.0389 1.615
114.0692 1.979
114.0995 1.771
114.1298 1.458
114.1600 1.771
114.1903 1.927
114.2206 1.562
114.2509 1.406
114.2811 1.458
114.3114 1.510
114.3417 1.302
114.3720 1.510
114.4023 2.083
114.4325 1.198
114.4628 1.458
114.4931 1.719
114.5234 1.875
114.5537 1.823
114.5839 2.344
114.6142 1.458
114.6445 1.823
114.6748 1.875
114.7050 1.875
114.7353 1.667
114.7656 1.562
114.7959 1.771
114.8262 1.875
114.8564 1.875
114.8867 1.823
114.9170 1.927
114.9473 1.406
114.9776 2.396
115.0078 2.083
115.0381 2.240
115.0684 2.344
115.0987 2.187
115.1289 2.187
115.1592 2.448
115.1895 2.604
115.2198 1.927
115.2501 2.187
115.2803 1.875
115.3106 2.292
115.3409 2.812
115.3712 2.083
115.4015 2.240
115.4317 2.604
115.4620 2.344
115.4923 2.083
115.5226 2.083
115.5528 2.292
115.5831 2.448
115.6134 2.083
115.6437 2.135
115.6740 2.083
115.7042 2.865
115.7345 2.448
115.7648 3.177
115.7951 3.021
115.8254 3.073
115.8556 3.125
115.8859 2.969
115.9162 2.760
115.9465 2.865
115.9767 3.281
116.0070 3.177
116.0373 2.812
116.0676 3.698
116.0979 3.437
116.1281 3.073
116.1584 3.594
116.1887 2.500
116.2190 3.490
116.2493 3.490
116.2795 2.865
116.3098 2.865
116.3401 2.708
116.3704 2.917
116.4006 3.229
116.4309 3.281
116.4612 4.271
116.4915 3.542
116.5218 3.229
116.5520 3.542
116.5823 3.177
116.6126 2.552
116.6429 3.542
116.6732 3.177
116.7034 2.812
116.7337 3.281
116.7640 2.240
116.7943 2.812
116.8245 2.656
116.8548 2.917
116.8851 2.448
116.9154 2.656
116.9457 2.760
116.9759 3.281
117.0062 2.760
117.0365 2.500
117.0668 2.656
117.0971 2.500
117.1273 2.240
117.1576 1.719
117.1879 2.500
117.2182 2.031
117.2485 2.552
117.2787 2.135
117.3090 2.031
117.3393 1.875
117.3696 1.927
117.3998 1.562
117.4301 2.031
117.4604 2.031
117.4907 1.354
117.5210 1.979
117.5512 2.031
117.5815 1.823
117.6118 1.979
117.6421 1.719
117.6724 1.615
117.7026 2.396
117.7329 2.292
117.7632 2.396
117.7935 1.458
117.8237 1.823
117.8540 1.823
117.8843 1.719
117.9146 1.875
117.9449 1.927
117.9751 1.927
118.0054 2.083
118.0357 2.031
118.0660 2.396
118.0963 1.719
118.1265 2.396
118.1568 1.667
118.1871 1.198
118.2174 1.667
118.2476 2.031
118.2779 1.146
118.3082 1.667
118.3385 1.406
118.3688 2.292
118.3990 2.135
118.4293 1.094
118.4596 1.562
118.4899 1.667
118.5202 1.302
118.5504 2.135
118.5807 1.927
118.6110 1.667
118.6413 1.250
118.6715 1.510
118.7018 1.771
118.7321 1.927
118.7624 1.406
118.7927 1.458
118.8229 1.615
118.8532 1.771
118.8835 1.146
118.9138 1.667
118.9441 1.406
118.9743 1.719
119.0046 1.875
119.0349 1.354
119.0652 1.510
119.0954 2.031
119.1257 1.094
119.1560 1.354
119.1863 1.823
119.2166 1.510
119.2468 1.510
119.2771 2.031
119.3074 1.562
119.3377 2.031
119.3680 2.240
119.3982 2.083
119.4285 1.719
119.4588 1.406
119.4891 1.719
119.5193 1.354
119.5496 1.458
119.5799 1.510
119.6102 1.146
119.6405 1.719
119.6707 1.927
119.7010 1.198
119.7313 1.510
119.7616 1.354
119.7919 1.094
119.8221 1.823
119.8524 1.823
119.8827 1.458
119.9130 1.927
119.9433 2.292
119.9735 1.771
120.0038 1.979
