'Id: "" Comment: "" Operator: "Lab Manager" Anode: "Cu" Scantype: "Locked Coupled" TimePerStep: "19.2" X: "9999" Y: "9999" Z: "9999" 
10.0015 4.010
10.0318 3.333
10.0620 4.115
10.0923 4.687
10.1226 3.646
10.1529 3.594
10.1832 4.531
10.2134 3.594
10.2437 3.281
10.2740 4.740
10.3043 3.698
10.3346 4.948
10.3648 3.385
10.3951 4.167
10.4254 4.531
10.4557 4.323
10.4859 3.698
10.5162 4.792
10.5465 4.531
10.5768 4.375
10.6071 3.958
10.6373 4.062
10.6676 5.573
10.6979 5.208
10.7282 4.948
10.7585 4.271
10.7887 5.156
10.8190 5.312
10.8493 4.687
10.8796 5.208
10.9098 7.083
10.9401 7.604
10.9704 8.073
11.0007 9.687
11.0310 10.260
11.0612 10.781
11.0915 12.552
11.1218 12.135
11.1521 10.260
11.1824 9.427
11.2126 9.062
11.2429 6.719
11.2732 7.031
11.3035 5.104
11.3337 5.312
11.3640 4.687
11.3943 4.219
11.4246 4.427
11.4549 4.115
11.4851 3.073
11.5154 4.323
11.5457 4.010
11.5760 4.010
11.6063 4.115
11.6365 4.062
11.6668 3.958
11.6971 4.167
11.7274 3.021
11.7577 3.802
11.7879 3.594
11.8182 4.115
11.8485 4.219
11.8788 3.698
11.9090 3.177
11.9393 2.812
11.9696 3.750
11.9999 4.687
12.0302 3.490
12.0604 2.969
12.0907 3.594
12.1210 4.010
12.1513 4.427
12.1816 3.698
12.2118 3.646
12.2421 3.177
12.2724 3.021
12.3027 4.323
12.3329 3.229
12.3632 4.583
12.3935 3.854
12.4238 4.479
12.4541 4.167
12.4843 3.594
12.5146 3.073
12.5449 4.010
12.5752 3.490
12.6055 4.010
12.6357 4.010
12.6660 3.490
12.6963 3.698
12.7266 3.281
12.7568 4.115
12.7871 3.854
12.8174 3.177
12.8477 3.906
12.8780 3.073
12.9082 3.125
12.9385 3.333
12.9688 3.594
12.9991 3.594
13.0294 2.865
13.0596 3.437
13.0899 3.906
13.1202 3.385
13.1505 2.917
13.1807 2.760
13.2110 2.760
13.2413 2.240
13.2716 3.906
13.3019 2.917
13.3321 2.917
13.3624 3.125
13.3927 3.646
13.4230 3.333
13.4533 2.552
13.4835 2.969
13.5138 3.125
13.5441 3.854
13.5744 2.448
13.6046 3.125
13.6349 1.771
13.6652 3.437
13.6955 2.917
13.7258 3.021
13.7560 1.875
13.7863 3.281
13.8166 2.969
13.8469 3.333
13.8772 3.021
13.9074 3.177
13.9377 2.865
13.9680 3.906
13.9983 2.969
14.0285 2.656
14.0588 3.333
14.0891 2.917
14.1194 2.240
14.1497 2.865
14.1799 2.656
14.2102 3.437
14.2405 2.500
14.2708 3.021
14.3011 2.135
14.3313 2.240
14.3616 2.812
14.3919 2.760
14.4222 3.021
14.4524 2.708
14.4827 2.604
14.5130 3.594
14.5433 2.969
14.5736 3.073
14.6038 3.646
14.6341 2.812
14.6644 2.500
14.6947 3.177
14.7250 3.385
14.7552 2.552
14.7855 3.542
14.8158 2.812
14.8461 2.552
14.8764 2.604
14.9066 2.812
14.9369 3.437
14.9672 2.812
14.9975 2.344
15.0277 2.865
15.0580 2.969
15.0883 2.344
15.1186 2.187
15.1489 2.292
15.1791 2.656
15.2094 3.021
15.2397 3.021
15.2700 2.344
15.3003 3.177
15.3305 3.073
15.3608 2.656
15.3911 2.552
15.4214 2.969
15.4516 3.073
15.4819 2.760
15.5122 2.865
15.5425 2.292
15.5728 2.552
15.6030 2.917
15.6333 3.333
15.6636 2.396
15.6939 2.552
15.7242 2.604
15.7544 2.083
15.7847 2.135
15.8150 1.823
15.8453 3.177
15.8755 2.396
15.9058 1.719
15.9361 2.656
15.9664 2.396
15.9967 2.552
16.0269 2.187
16.0572 2.552
16.0875 2.604
16.1178 2.187
16.1481 2.031
16.1783 2.448
16.2086 1.562
16.2389 3.177
16.2692 2.917
16.2994 2.604
16.3297 2.500
16.3600 2.552
16.3903 2.448
16.4206 2.604
16.4508 2.552
16.4811 2.865
16.5114 2.240
16.5417 3.177
16.5720 2.760
16.6022 3.177
16.6325 2.969
16.6628 2.448
16.6931 2.135
16.7233 3.125
16.7536 2.917
16.7839 2.812
16.8142 2.500
16.8445 2.448
16.8747 2.240
16.9050 2.865
16.9353 2.760
16.9656 3.333
16.9959 2.344
17.0261 2.656
17.0564 2.500
17.0867 2.344
17.1170 2.604
17.1472 3.021
17.1775 2.604
17.2078 3.073
17.2381 2.344
17.2684 2.240
17.2986 2.604
17.3289 1.927
17.3592 2.708
17.3895 2.552
17.4198 3.073
17.4500 2.917
17.4803 3.125
17.5106 2.708
17.5409 1.667
17.5712 2.760
17.6014 2.708
17.6317 1.771
17.6620 2.292
17.6923 2.604
17.7225 2.917
17.7528 2.656
17.7831 2.292
17.8134 2.812
17.8437 3.385
17.8739 2.292
17.9042 3.542
17.9345 2.292
17.9648 2.448
17.9951 2.135
18.0253 1.979
18.0556 1.823
18.0859 2.760
18.1162 2.552
18.1464 1.927
18.1767 1.927
18.2070 2.760
18.2373 2.604
18.2676 2.708
18.2978 2.187
18.3281 2.187
18.3584 2.604
18.3887 2.448
18.4190 2.448
18.4492 3.021
18.4795 2.240
18.5098 3.021
18.5401 2.500
18.5703 2.656
18.6006 2.500
18.6309 1.927
18.6612 2.969
18.6915 2.500
18.7217 2.396
18.7520 2.656
18.7823 1.562
18.8126 2.240
18.8429 2.708
18.8731 2.865
18.9034 2.187
18.9337 2.448
18.9640 1.875
18.9942 2.187
19.0245 1.823
19.0548 2.812
19.0851 2.500
19.1154 1.667
19.1456 2.708
19.1759 2.187
19.2062 2.187
19.2365 2.760
19.2668 2.031
19.2970 1.771
19.3273 1.927
19.3576 1.927
19.3879 1.823
19.4181 2.969
19.4484 2.708
19.4787 2.448
19.5090 1.771
19.5393 2.187
19.5695 1.927
19.5998 2.187
19.6301 2.552
19.6604 2.292
19.6907 3.125
19.7209 2.031
19.7512 2.344
19.7815 2.031
19.8118 1.927
19.8420 2.552
19.8723 2.500
19.9026 1.615
19.9329 2.031
19.9632 2.760
19.9934 2.812
20.0237 2.448
20.0540 2.031
20.0843 2.708
20.1146 2.552
20.1448 2.396
20.1751 2.448
20.2054 2.396
20.2357 1.823
20.2659 2.812
20.2962 2.604
20.3265 2.552
20.3568 2.187
20.3871 2.969
20.4173 1.927
20.4476 2.083
20.4779 2.240
20.5082 1.875
20.5385 1.927
20.5687 2.552
20.5990 2.135
20.6293 2.552
20.6596 1.875
20.6899 1.927
20.7201 2.396
20.7504 2.448
20.7807 2.656
20.8110 1.771
20.8412 2.292
20.8715 1.927
20.9018 1.875
20.9321 2.500
20.9624 1.875
20.9926 2.135
21.0229 1.979
21.0532 2.552
21.0835 2.344
21.1138 1.719
21.1440 2.135
21.1743 2.292
21.2046 2.135
21.2349 1.510
21.2651 2.135
21.2954 1.354
21.3257 1.823
21.3560 2.708
21.3863 1.615
21.4165 2.135
21.4468 2.135
21.4771 2.187
21.5074 2.083
21.5377 2.292
21.5679 1.927
21.5982 2.708
21.6285 2.031
21.6588 1.510
21.6890 2.187
21.7193 1.875
21.7496 2.240
21.7799 2.292
21.8102 2.344
21.8404 1.875
21.8707 2.396
21.9010 1.719
21.9313 2.500
21.9616 2.292
21.9918 2.187
22.0221 1.771
22.0524 1.354
22.0827 2.240
22.1129 1.875
22.1432 2.344
22.1735 2.083
22.2038 1.719
22.2341 2.344
22.2643 1.979
22.2946 2.344
22.3249 2.552
22.3552 2.344
22.3855 2.448
22.4157 2.031
22.4460 3.385
22.4763 2.865
22.5066 2.240
22.5368 2.187
22.5671 2.865
22.5974 2.448
22.6277 1.875
22.6580 1.979
22.6882 1.406
22.7185 2.135
22.7488 2.448
22.7791 2.604
22.8094 2.448
22.8396 2.187
22.8699 2.292
22.9002 2.292
22.9305 1.615
22.9607 1.615
22.9910 2.187
23.0213 1.823
23.0516 1.562
23.0819 1.875
23.1121 1.771
23.1424 2.083
23.1727 1.406
23.2030 2.135
23.2333 2.187
23.2635 2.187
23.2938 1.771
23.3241 2.083
23.3544 2.031
23.3846 2.708
23.4149 1.354
23.4452 2.187
23.4755 2.656
23.5058 1.927
23.5360 1.927
23.5663 1.927
23.5966 3.229
23.6269 1.406
23.6572 2.031
23.6874 1.562
23.7177 2.135
23.7480 2.135
23.7783 1.458
23.8086 2.031
23.8388 2.292
23.8691 2.031
23.8994 2.187
23.9297 2.812
23.9599 2.187
23.9902 1.771
24.0205 2.396
24.0508 2.344
24.0811 1.979
24.1113 2.240
24.1416 2.292
24.1719 2.240
24.2022 1.927
24.2325 2.240
24.2627 2.292
24.2930 1.823
24.3233 1.823
24.3536 2.240
24.3838 1.979
24.4141 1.875
24.4444 1.458
24.4747 2.187
24.5050 1.562
24.5352 2.448
24.5655 1.719
24.5958 2.187
24.6261 2.135
24.6564 1.979
24.6866 2.240
24.7169 1.927
24.7472 2.083
24.7775 2.760
24.8077 1.562
24.8380 1.562
24.8683 2.187
24.8986 2.031
24.9289 1.510
24.9591 1.562
24.9894 1.615
25.0197 1.302
25.0500 1.823
25.0803 1.771
25.1105 2.344
25.1408 1.510
25.1711 1.927
25.2014 2.031
25.2316 1.875
25.2619 2.448
25.2922 1.979
25.3225 2.865
25.3528 2.240
25.3830 1.979
25.4133 2.344
25.4436 1.979
25.4739 1.875
25.5042 1.406
25.5344 2.135
25.5647 1.875
25.5950 2.240
25.6253 1.458
25.6555 2.031
25.6858 1.875
25.7161 2.708
25.7464 2.187
25.7767 1.979
25.8069 2.396
25.8372 1.979
25.8675 1.927
25.8978 2.240
25.9281 1.562
25.9583 1.823
25.9886 1.667
26.0189 2.083
26.0492 1.875
26.0794 2.500
26.1097 1.667
26.1400 1.562
26.1703 2.135
26.2006 1.875
26.2308 2.604
26.2611 2.135
26.2914 1.823
26.3217 1.615
26.3520 1.667
26.3822 2.292
26.4125 1.979
26.4428 1.979
26.4731 2.083
26.5034 1.719
26.5336 2.396
26.5639 2.500
26.5942 2.292
26.6245 2.083
26.6547 2.031
26.6850 1.562
26.7153 2.083
26.7456 1.979
26.7759 1.458
26.8061 1.979
26.8364 2.969
26.8667 2.240
26.8970 1.771
26.9273 2.292
26.9575 2.083
26.9878 2.500
27.0181 2.240
27.0484 2.760
27.0786 2.240
27.1089 1.927
27.1392 1.667
27.1695 1.979
27.1998 1.875
27.2300 2.344
27.2603 2.604
27.2906 2.240
27.3209 2.083
27.3512 2.448
27.3814 1.771
27.4117 2.083
27.4420 2.396
27.4723 2.292
27.5025 2.604
27.5328 2.031
27.5631 2.500
27.5934 2.604
27.6237 2.969
27.6539 2.135
27.6842 1.875
27.7145 2.240
27.7448 2.031
27.7751 1.927
27.8053 1.719
27.8356 1.771
27.8659 1.927
27.8962 1.771
27.9264 2.500
27.9567 1.875
27.9870 2.135
28.0173 2.552
28.0476 2.083
28.0778 2.552
28.1081 2.708
28.1384 1.562
28.1687 2.812
28.1990 1.875
28.2292 1.979
28.2595 2.187
28.2898 1.875
28.3201 2.552
28.3503 2.448
28.3806 2.187
28.4109 1.823
28.4412 2.292
28.4715 2.448
28.5017 2.135
28.5320 1.979
28.5623 2.187
28.5926 1.979
28.6229 2.552
28.6531 1.875
28.6834 1.979
28.7137 2.292
28.7440 2.604
28.7742 2.760
28.8045 1.823
28.8348 2.292
28.8651 2.240
28.8954 2.448
28.9256 1.979
28.9559 2.344
28.9862 3.281
29.0165 2.552
29.0468 1.927
29.0770 2.240
29.1073 2.917
29.1376 2.396
29.1679 2.708
29.1981 2.292
29.2284 2.917
29.2587 2.083
29.2890 1.771
29.3193 2.083
29.3495 1.979
29.3798 2.031
29.4101 1.979
29.4404 2.187
29.4707 3.125
29.5009 1.823
29.5312 2.604
29.5615 3.229
29.5918 3.073
29.6221 2.552
29.6523 2.865
29.6826 2.760
29.7129 2.500
29.7432 2.760
29.7734 2.969
29.8037 2.448
29.8340 2.135
29.8643 2.865
29.8946 2.604
29.9248 2.187
29.9551 2.396
29.9854 2.812
30.0157 2.187
30.0460 2.083
30.0762 2.656
30.1065 2.604
30.1368 2.969
30.1671 2.760
30.1973 3.125
30.2276 2.865
30.2579 2.812
30.2882 3.281
30.3185 2.708
30.3487 3.385
30.3790 3.437
30.4093 3.646
30.4396 2.760
30.4699 3.333
30.5001 3.229
30.5304 3.646
30.5607 3.333
30.5910 3.229
30.6212 4.375
30.6515 3.750
30.6818 3.958
30.7121 4.948
30.7424 5.208
30.7726 3.333
30.8029 4.740
30.8332 5.156
30.8635 5.052
30.8938 4.948
30.9240 5.365
30.9543 4.427
30.9846 6.094
31.0149 7.500
31.0451 6.094
31.0754 7.448
31.1057 7.812
31.1360 8.490
31.1663 9.792
31.1965 8.333
31.2268 10.990
31.2571 9.583
31.2874 11.719
31.3177 13.854
31.3479 15.573
31.3782 16.458
31.4085 19.740
31.4388 21.146
31.4690 25.156
31.4993 25.469
31.5296 28.906
31.5599 30.469
31.5902 34.687
31.6204 33.750
31.6507 32.865
31.6810 29.219
31.7113 27.604
31.7416 25.052
31.7718 22.187
31.8021 19.323
31.8324 15.990
31.8627 14.323
31.8929 14.583
31.9232 11.979
31.9535 11.458
31.9838 9.219
32.0141 9.531
32.0443 8.906
32.0746 7.917
32.1049 8.125
32.1352 7.552
32.1655 6.823
32.1957 6.250
32.2260 5.625
32.2563 6.354
32.2866 6.458
32.3169 5.781
32.3471 4.844
32.3774 5.208
32.4077 5.000
32.4380 4.531
32.4682 4.375
32.4985 3.594
32.5288 4.427
32.5591 4.219
32.5894 4.531
32.6196 3.542
32.6499 4.531
32.6802 4.635
32.7105 3.542
32.7408 3.698
32.7710 4.792
32.8013 3.125
32.8316 3.594
32.8619 3.646
32.8921 3.542
32.9224 3.437
32.9527 4.687
32.9830 3.802
33.0133 2.760
33.0435 3.750
33.0738 4.115
33.1041 3.229
33.1344 3.385
33.1647 3.437
33.1949 3.646
33.2252 2.760
33.2555 2.760
33.2858 3.333
33.3160 3.281
33.3463 3.958
33.3766 3.594
33.4069 3.437
33.4372 3.437
33.4674 3.646
33.4977 3.698
33.5280 3.802
33.5583 3.854
33.5886 3.958
33.6188 3.958
33.6491 3.229
33.6794 4.271
33.7097 4.531
33.7399 4.687
33.7702 4.375
33.8005 4.740
33.8308 5.729
33.8611 6.042
33.8913 6.458
33.9216 6.042
33.9519 7.604
33.9822 9.479
34.0125 9.792
34.0427 11.979
34.0730 11.823
34.1033 13.854
34.1336 18.646
34.1638 24.740
34.1941 32.396
34.2244 39.115
34.2547 45.208
34.2850 45.469
34.3152 42.396
34.3455 32.969
34.3758 30.312
34.4061 20.677
34.4364 17.500
34.4666 12.135
34.4969 12.187
34.5272 10.417
34.5575 9.635
34.5877 7.604
34.6180 7.292
34.6483 6.875
34.6786 6.146
34.7089 5.729
34.7391 5.781
34.7694 4.844
34.7997 4.583
34.8300 5.729
34.8603 4.583
34.8905 5.677
34.9208 5.625
34.9511 4.635
34.9814 4.323
35.0116 4.583
35.0419 5.833
35.0722 4.375
35.1025 4.740
35.1328 5.677
35.1630 4.427
35.1933 5.625
35.2236 4.844
35.2539 5.729
35.2842 5.417
35.3144 5.052
35.3447 6.198
35.3750 6.875
35.4053 5.729
35.4356 6.875
35.4658 7.135
35.4961 6.667
35.5264 8.594
35.5567 8.125
35.5869 7.656
35.6172 9.167
35.6475 10.417
35.6778 10.885
35.7081 12.500
35.7383 12.917
35.7686 14.740
35.7989 18.750
35.8292 17.969
35.8595 18.906
35.8897 25.260
35.9200 25.104
35.9503 30.208
35.9806 32.135
36.0108 36.979
36.0411 40.729
36.0714 43.802
36.1017 49.010
36.1320 49.062
36.1622 43.021
36.1925 40.312
36.2228 35.156
36.2531 32.865
36.2834 28.802
36.3136 25.365
36.3439 21.354
36.3742 18.698
36.4045 16.510
36.4347 14.271
36.4650 12.448
36.4953 11.667
36.5256 10.052
36.5559 10.365
36.5861 9.792
36.6164 8.333
36.6467 7.865
36.6770 5.990
36.7073 7.552
36.7375 6.562
36.7678 5.781
36.7981 5.312
36.8284 5.573
36.8586 5.417
36.8889 4.531
36.9192 4.219
36.9495 4.844
36.9798 3.385
37.0100 3.646
37.0403 4.375
37.0706 3.854
37.1009 4.010
37.1312 3.281
37.1614 3.594
37.1917 3.333
37.2220 3.177
37.2523 3.490
37.2825 3.802
37.3128 2.917
37.3431 3.281
37.3734 2.552
37.4037 2.500
37.4339 2.604
37.4642 2.344
37.4945 2.760
37.5248 2.604
37.5551 2.865
37.5853 1.979
37.6156 2.292
37.6459 2.396
37.6762 2.344
37.7064 3.125
37.7367 2.500
37.7670 2.240
37.7973 2.031
37.8276 1.979
37.8578 2.240
37.8881 2.187
37.9184 2.708
37.9487 1.771
37.9790 2.396
38.0092 2.135
38.0395 1.458
38.0698 2.656
38.1001 2.448
38.1304 2.969
38.1606 2.083
38.1909 1.927
38.2212 2.083
38.2515 1.667
38.2817 1.875
38.3120 2.187
38.3423 2.083
38.3726 2.604
38.4029 2.135
38.4331 2.135
38.4634 1.667
38.4937 2.396
38.5240 2.083
38.5543 1.458
38.5845 2.083
38.6148 1.771
38.6451 1.562
38.6754 2.135
38.7056 1.719
38.7359 1.979
38.7662 1.458
38.7965 1.719
38.8268 1.302
38.8570 1.510
38.8873 1.875
38.9176 1.094
38.9479 1.250
38.9782 1.667
39.0084 1.562
39.0387 1.979
39.0690 1.771
39.0993 1.823
39.1295 1.927
39.1598 1.875
39.1901 1.510
39.2204 1.771
39.2507 1.458
39.2809 1.354
39.3112 1.562
39.3415 1.667
39.3718 1.667
39.4021 2.083
39.4323 1.979
39.4626 1.927
39.4929 1.927
39.5232 1.823
39.5534 0.990
39.5837 1.875
39.6140 1.719
39.6443 1.406
39.6746 1.354
39.7048 1.979
39.7351 1.146
39.7654 1.094
39.7957 1.562
39.8260 1.250
39.8562 1.250
39.8865 1.510
39.9168 1.927
39.9471 1.302
39.9773 1.510
40.0076 1.927
40.0379 1.927
40.0682 1.354
40.0985 1.250
40.1287 1.406
40.1590 1.458
40.1893 1.458
40.2196 1.615
40.2499 1.927
40.2801 1.406
40.3104 2.135
40.3407 1.562
40.3710 1.562
40.4012 1.667
40.4315 1.979
40.4618 1.562
40.4921 1.875
40.5224 1.615
40.5526 1.719
40.5829 1.458
40.6132 1.667
40.6435 1.823
40.6738 1.042
40.7040 1.562
40.7343 1.510
40.7646 0.937
40.7949 1.354
40.8251 1.146
40.8554 1.406
40.8857 1.562
40.9160 1.458
40.9463 1.979
40.9765 1.198
41.0068 1.198
41.0371 1.823
41.0674 1.979
41.0977 1.406
41.1279 1.302
41.1582 0.990
41.1885 0.937
41.2188 1.823
41.2491 1.458
41.2793 1.562
41.3096 1.094
41.3399 1.562
41.3702 1.250
41.4004 1.354
41.4307 1.302
41.4610 1.250
41.4913 1.198
41.5216 1.562
41.5518 1.823
41.5821 1.302
41.6124 1.042
41.6427 1.458
41.6730 1.354
41.7032 1.094
41.7335 0.990
41.7638 1.198
41.7941 1.250
41.8243 1.146
41.8546 1.250
41.8849 1.406
41.9152 1.042
41.9455 1.406
41.9757 1.250
42.0060 1.250
42.0363 1.146
42.0666 1.354
42.0969 1.562
42.1271 1.458
42.1574 1.354
42.1877 1.406
42.2180 1.510
42.2482 1.927
42.2785 1.875
42.3088 1.302
42.3391 1.406
42.3694 1.510
42.3996 1.927
42.4299 1.823
42.4602 1.979
42.4905 1.146
42.5208 1.250
42.5510 1.667
42.5813 1.615
42.6116 2.031
42.6419 1.875
42.6721 1.562
42.7024 1.562
42.7327 1.146
42.7630 1.250
42.7933 1.719
42.8235 1.250
42.8538 1.823
42.8841 1.771
42.9144 1.406
42.9447 1.198
42.9749 0.729
43.0052 1.510
43.0355 1.250
43.0658 1.198
43.0960 1.354
43.1263 1.042
43.1566 1.667
43.1869 0.469
43.2172 1.458
43.2474 1.719
43.2777 1.302
43.3080 1.562
43.3383 1.354
43.3686 1.875
43.3988 1.042
43.4291 1.354
43.4594 1.042
43.4897 1.146
43.5199 1.146
43.5502 1.302
43.5805 0.990
43.6108 1.510
43.6411 1.771
43.6713 1.094
43.7016 1.042
43.7319 1.354
43.7622 1.354
43.7925 1.302
43.8227 1.302
43.8530 1.250
43.8833 1.510
43.9136 1.354
43.9439 1.406
43.9741 1.302
44.0044 1.562
44.0347 1.406
44.0650 1.667
44.0952 1.146
44.1255 1.250
44.1558 1.354
44.1861 1.042
44.2164 1.875
44.2466 1.354
44.2769 0.937
44.3072 1.198
44.3375 1.667
44.3678 1.510
44.3980 1.667
44.4283 0.885
44.4586 1.094
44.4889 1.250
44.5191 1.719
44.5494 1.562
44.5797 1.302
44.6100 0.833
44.6403 1.458
44.6705 1.406
44.7008 0.990
44.7311 1.510
44.7614 1.302
44.7917 1.094
44.8219 1.406
44.8522 1.667
44.8825 1.302
44.9128 1.198
44.9430 1.250
44.9733 1.250
45.0036 0.885
45.0339 1.667
45.0642 1.146
45.0944 1.667
45.1247 1.667
45.1550 1.615
45.1853 1.823
45.2156 1.823
45.2458 1.198
45.2761 1.667
45.3064 1.250
45.3367 1.875
45.3669 1.406
45.3972 1.458
45.4275 1.406
45.4578 1.771
45.4881 1.615
45.5183 1.875
45.5486 1.458
45.5789 1.823
45.6092 1.302
45.6395 1.510
45.6697 1.146
45.7000 1.302
45.7303 1.406
45.7606 1.406
45.7908 1.354
45.8211 1.250
45.8514 1.667
45.8817 1.198
45.9120 1.562
45.9422 1.615
45.9725 1.615
46.0028 1.875
46.0331 1.562
46.0634 1.562
46.0936 1.875
46.1239 2.083
46.1542 1.510
46.1845 1.615
46.2147 1.562
46.2450 1.615
46.2753 1.458
46.3056 1.562
46.3359 1.771
46.3661 1.719
46.3964 1.562
46.4267 2.187
46.4570 1.510
46.4873 1.615
46.5175 1.302
46.5478 1.823
46.5781 2.604
46.6084 2.604
46.6386 1.875
46.6689 2.135
46.6992 1.979
46.7295 1.927
46.7598 2.083
46.7900 2.292
46.8203 1.510
46.8506 2.708
46.8809 2.656
46.9112 2.240
46.9414 3.281
46.9717 3.333
47.0020 2.969
47.0323 3.385
47.0626 3.854
47.0928 4.531
47.1231 4.896
47.1534 5.417
47.1837 6.042
47.2139 5.677
47.2442 7.969
47.2745 7.552
47.3048 7.917
47.3351 9.219
47.3653 9.010
47.3956 10.208
47.4259 8.594
47.4562 10.104
47.4865 7.812
47.5167 7.656
47.5470 7.708
47.5773 6.667
47.6076 6.198
47.6378 5.885
47.6681 5.052
47.6984 4.844
47.7287 4.323
47.7590 3.073
47.7892 2.917
47.8195 3.073
47.8498 3.906
47.8801 3.281
47.9104 3.021
47.9406 2.031
47.9709 1.615
48.0012 2.396
48.0315 2.187
48.0617 2.344
48.0920 2.135
48.1223 2.240
48.1526 2.448
48.1829 2.083
48.2131 2.552
48.2434 1.719
48.2737 2.292
48.3040 1.979
48.3343 2.292
48.3645 2.292
48.3948 2.135
48.4251 1.615
48.4554 1.510
48.4856 1.354
48.5159 2.135
48.5462 1.875
48.5765 1.771
48.6068 2.187
48.6370 1.771
48.6673 1.458
48.6976 1.562
48.7279 1.771
48.7582 1.562
48.7884 1.510
48.8187 1.406
48.8490 1.615
48.8793 1.250
48.9095 1.458
48.9398 1.146
48.9701 1.354
49.0004 1.406
49.0307 1.250
49.0609 1.615
49.0912 1.562
49.1215 1.875
49.1518 1.250
49.1821 1.771
49.2123 1.250
49.2426 1.667
49.2729 1.198
49.3032 1.823
49.3334 1.302
49.3637 1.615
49.3940 1.406
49.4243 1.406
49.4546 1.094
49.4848 1.510
49.5151 1.094
49.5454 1.406
49.5757 1.615
49.6060 1.458
49.6362 1.302
49.6665 0.990
49.6968 0.990
49.7271 1.302
49.7574 1.094
49.7876 1.250
49.8179 1.667
49.8482 0.990
49.8785 0.990
49.9087 1.302
49.9390 0.885
49.9693 0.937
49.9996 0.885
50.0299 1.198
50.0601 1.771
50.0904 1.562
50.1207 1.510
50.1510 1.406
50.1813 1.354
50.2115 1.771
50.2418 1.875
50.2721 1.250
50.3024 1.458
50.3326 1.771
50.3629 1.562
50.3932 1.875
50.4235 1.250
50.4538 1.510
50.4840 1.198
50.5143 1.458
50.5446 1.458
50.5749 1.198
50.6052 1.719
50.6354 1.198
50.6657 1.510
50.6960 0.937
50.7263 1.042
50.7565 1.406
50.7868 1.250
50.8171 0.833
50.8474 1.406
50.8777 1.510
50.9079 1.250
50.9382 1.667
50.9685 1.458
50.9988 1.198
51.0291 1.302
51.0593 1.302
51.0896 1.302
51.1199 1.146
51.1502 1.198
51.1804 1.562
51.2107 1.510
51.2410 1.354
51.2713 1.562
51.3016 1.302
51.3318 1.562
51.3621 1.250
51.3924 1.510
51.4227 1.510
51.4530 1.198
51.4832 1.198
51.5135 1.406
51.5438 1.667
51.5741 1.146
51.6043 1.406
51.6346 1.406
51.6649 1.615
51.6952 1.562
51.7255 1.667
51.7557 1.406
51.7860 1.510
51.8163 1.302
51.8466 1.354
51.8769 1.302
51.9071 1.198
51.9374 0.990
51.9677 1.146
51.9980 1.198
52.0282 0.990
52.0585 0.833
52.0888 1.146
52.1191 1.667
52.1494 0.990
52.1796 1.198
52.2099 1.094
52.2402 1.198
52.2705 0.937
52.3008 1.302
52.3310 1.458
52.3613 1.562
52.3916 1.146
52.4219 1.562
52.4521 1.302
52.4824 1.042
52.5127 1.094
52.5430 1.562
52.5733 1.510
52.6035 1.510
52.6338 1.042
52.6641 1.250
52.6944 1.146
52.7247 1.250
52.7549 1.562
52.7852 1.875
52.8155 1.146
52.8458 1.146
52.8761 1.354
52.9063 1.458
52.9366 1.354
52.9669 1.354
52.9972 1.250
53.0274 1.042
53.0577 1.094
53.0880 1.146
53.1183 1.354
53.1486 1.406
53.1788 1.302
53.2091 1.406
53.2394 1.250
53.2697 1.354
53.3000 1.771
53.3302 1.719
53.3605 0.990
53.3908 1.094
53.4211 1.510
53.4513 1.510
53.4816 0.885
53.5119 1.875
53.5422 1.302
53.5725 1.146
53.6027 1.771
53.6330 1.198
53.6633 1.615
53.6936 1.042
53.7239 1.354
53.7541 1.562
53.7844 1.979
53.8147 1.823
53.8450 1.458
53.8752 1.719
53.9055 1.250
53.9358 1.458
53.9661 1.094
53.9964 1.354
54.0266 1.875
54.0569 1.250
54.0872 1.198
54.1175 2.240
54.1478 1.250
54.1780 1.146
54.2083 1.354
54.2386 1.146
54.2689 2.083
54.2991 1.875
54.3294 1.198
54.3597 1.406
54.3900 1.354
54.4203 1.771
54.4505 1.198
54.4808 1.510
54.5111 1.302
54.5414 1.250
54.5717 1.458
54.6019 1.250
54.6322 1.823
54.6625 2.031
54.6928 2.031
54.7230 1.302
54.7533 1.146
54.7836 1.667
54.8139 1.198
54.8442 1.458
54.8744 1.771
54.9047 2.031
54.9350 1.615
54.9653 1.250
54.9956 1.510
55.0258 1.198
55.0561 1.667
55.0864 1.562
55.1167 1.927
55.1469 1.719
55.1772 1.250
55.2075 1.406
55.2378 1.719
55.2681 1.719
55.2983 1.719
55.3286 1.979
55.3589 1.823
55.3892 1.198
55.4195 2.135
55.4497 2.240
55.4800 1.302
55.5103 2.031
55.5406 1.667
55.5709 1.875
55.6011 2.396
55.6314 1.667
55.6617 2.031
55.6920 2.083
55.7222 2.135
55.7525 1.979
55.7828 2.031
55.8131 2.448
55.8434 2.552
55.8736 3.125
55.9039 2.292
55.9342 2.812
55.9645 2.500
55.9948 3.229
56.0250 3.542
56.0553 3.177
56.0856 3.906
56.1159 4.531
56.1461 5.208
56.1764 6.354
56.2067 6.771
56.2370 5.990
56.2673 6.927
56.2975 8.229
56.3278 10.260
56.3581 8.802
56.3884 10.469
56.4187 10.833
56.4489 11.042
56.4792 8.750
56.5095 10.885
56.5398 9.896
56.5700 9.531
56.6003 8.854
56.6306 7.865
56.6609 6.354
56.6912 5.885
56.7214 6.042
56.7517 5.260
56.7820 5.208
56.8123 4.948
56.8426 3.906
56.8728 4.219
56.9031 3.542
56.9334 3.906
56.9637 3.073
56.9939 3.177
57.0242 2.396
57.0545 3.542
57.0848 2.604
57.1151 2.344
57.1453 2.708
57.1756 2.396
57.2059 2.292
57.2362 2.500
57.2665 2.396
57.2967 2.135
57.3270 2.031
57.3573 2.031
57.3876 2.083
57.4178 2.031
57.4481 1.719
57.4784 1.927
57.5087 1.458
57.5390 1.615
57.5692 1.615
57.5995 1.302
57.6298 1.667
57.6601 1.719
57.6904 1.667
57.7206 2.031
57.7509 1.510
57.7812 1.510
57.8115 1.562
57.8417 1.667
57.8720 1.615
57.9023 1.771
57.9326 1.302
57.9629 1.406
57.9931 0.990
58.0234 1.562
58.0537 1.615
58.0840 1.615
58.1143 2.240
58.1445 1.250
58.1748 1.146
58.2051 1.042
58.2354 1.302
58.2656 1.458
58.2959 1.562
58.3262 2.187
58.3565 1.406
58.3868 1.198
58.4170 1.562
58.4473 1.146
58.4776 1.354
58.5079 1.719
58.5382 1.042
58.5684 1.354
58.5987 1.771
58.6290 1.562
58.6593 1.667
58.6896 1.250
58.7198 1.510
58.7501 1.458
58.7804 1.562
58.8107 1.562
58.8409 1.562
58.8712 0.937
58.9015 1.406
58.9318 1.562
58.9621 1.094
58.9923 1.042
59.0226 1.094
59.0529 1.094
59.0832 0.937
59.1135 1.250
59.1437 1.354
59.1740 1.302
59.2043 1.250
59.2346 1.510
59.2648 1.198
59.2951 1.510
59.3254 1.146
59.3557 1.094
59.3860 0.833
59.4162 1.146
59.4465 1.198
59.4768 1.302
59.5071 1.302
59.5374 1.302
59.5676 1.146
59.5979 1.042
59.6282 1.875
59.6585 1.094
59.6887 1.406
59.7190 1.250
59.7493 1.146
59.7796 1.406
59.8099 0.937
59.8401 1.250
59.8704 1.615
59.9007 1.458
59.9310 1.302
59.9613 0.833
59.9915 1.354
60.0218 1.094
60.0521 1.406
60.0824 1.042
60.1126 1.458
60.1429 0.885
60.1732 1.198
60.2035 0.990
60.2338 1.094
60.2640 1.406
60.2943 1.562
60.3246 1.250
60.3549 1.406
60.3852 1.198
60.4154 1.562
60.4457 1.406
60.4760 1.354
60.5063 1.250
60.5365 1.250
60.5668 1.146
60.5971 0.937
60.6274 1.042
60.6577 1.667
60.6879 1.146
60.7182 1.354
60.7485 1.615
60.7788 1.198
60.8091 1.302
60.8393 1.562
60.8696 1.406
60.8999 0.885
60.9302 1.615
60.9604 1.510
60.9907 1.823
61.0210 1.146
61.0513 1.458
61.0816 2.240
61.1118 1.042
61.1421 1.510
61.1724 1.094
61.2027 1.667
61.2330 0.937
61.2632 1.406
61.2935 1.615
61.3238 1.510
61.3541 1.458
61.3844 1.615
61.4146 1.979
61.4449 1.406
61.4752 1.562
61.5055 1.719
61.5357 1.562
61.5660 1.823
61.5963 1.406
61.6266 2.031
61.6569 1.667
61.6871 1.667
61.7174 1.406
61.7477 2.135
61.7780 1.875
61.8083 1.771
61.8385 1.510
61.8688 1.719
61.8991 2.135
61.9294 1.510
61.9596 1.927
61.9899 1.562
62.0202 2.135
62.0505 1.823
62.0808 1.979
62.1110 2.083
62.1413 2.656
62.1716 2.240
62.2019 2.292
62.2322 2.604
62.2624 2.865
62.2927 2.708
62.3230 3.854
62.3533 3.542
62.3835 4.219
62.4138 4.844
62.4441 4.740
62.4744 5.000
62.5047 4.896
62.5349 7.187
62.5652 7.135
62.5955 7.656
62.6258 8.125
62.6561 9.115
62.6863 10.417
62.7166 10.625
62.7469 9.792
62.7772 10.052
62.8074 8.750
62.8377 7.708
62.8680 7.917
62.8983 8.073
62.9286 6.979
62.9588 5.417
62.9891 5.365
63.0194 5.417
63.0497 5.729
63.0800 4.635
63.1102 3.333
63.1405 3.177
63.1708 2.760
63.2011 3.542
63.2313 2.448
63.2616 2.604
63.2919 2.708
63.3222 2.187
63.3525 2.135
63.3827 2.396
63.4130 2.240
63.4433 1.771
63.4736 2.031
63.5039 1.615
63.5341 2.031
63.5644 2.031
63.5947 1.719
63.6250 1.875
63.6552 2.031
63.6855 1.354
63.7158 1.927
63.7461 1.875
63.7764 1.458
63.8066 1.146
63.8369 1.354
63.8672 1.562
63.8975 1.979
63.9278 1.667
63.9580 1.042
63.9883 1.510
64.0186 0.990
64.0489 1.406
64.0791 1.562
64.1094 1.771
64.1397 1.042
64.1700 1.250
64.2003 0.990
64.2305 1.250
64.2608 1.510
64.2911 1.823
64.3214 1.406
64.3517 1.719
64.3819 1.250
64.4122 1.302
64.4425 1.406
64.4728 1.406
64.5031 0.990
64.5333 1.302
64.5636 1.354
64.5939 1.250
64.6242 1.198
64.6544 1.250
64.6847 0.990
64.7150 1.250
64.7453 1.510
64.7756 1.094
64.8058 1.510
64.8361 1.562
64.8664 1.146
64.8967 1.250
64.9270 1.615
64.9572 1.198
64.9875 1.562
65.0178 1.354
65.0481 1.406
65.0783 1.198
65.1086 1.615
65.1389 1.354
65.1692 1.042
65.1995 1.094
65.2297 1.406
65.2600 1.354
65.2903 1.354
65.3206 1.510
65.3509 1.510
65.3811 1.562
65.4114 1.406
65.4417 1.615
65.4720 1.510
65.5022 1.198
65.5325 1.667
65.5628 1.510
65.5931 1.354
65.6234 1.510
65.6536 1.198
65.6839 1.979
65.7142 1.406
65.7445 1.198
65.7748 1.354
65.8050 1.250
65.8353 1.667
65.8656 1.823
65.8959 1.354
65.9261 1.510
65.9564 1.875
65.9867 1.667
66.0170 1.615
66.0473 1.354
66.0775 2.396
66.1078 1.927
66.1381 2.031
66.1684 1.979
66.1987 2.552
66.2289 2.969
66.2592 2.187
66.2895 1.458
66.3198 2.344
66.3500 2.187
66.3803 2.292
66.4106 1.823
66.4409 2.292
66.4712 1.927
66.5014 2.500
66.5317 2.083
66.5620 1.771
66.5923 1.979
66.6226 1.771
66.6528 1.667
66.6831 0.833
66.7134 2.344
66.7437 1.562
66.7739 1.823
66.8042 1.562
66.8345 1.927
66.8648 1.354
66.8951 2.083
66.9253 1.354
66.9556 2.135
66.9859 2.396
67.0162 2.135
67.0465 1.615
67.0767 1.771
67.1070 2.240
67.1373 2.448
67.1676 1.823
67.1978 2.240
67.2281 1.875
67.2584 2.292
67.2887 2.031
67.3190 2.396
67.3492 3.281
67.3795 3.437
67.4098 2.448
67.4401 2.604
67.4704 4.323
67.5006 3.073
67.5309 4.479
67.5612 4.427
67.5915 4.167
67.6218 5.260
67.6520 5.885
67.6823 6.042
67.7126 5.937
67.7429 5.677
67.7731 6.510
67.8034 7.604
67.8337 6.042
67.8640 7.604
67.8943 6.927
67.9245 7.031
67.9548 5.833
67.9851 5.885
68.0154 5.625
68.0457 4.635
68.0759 4.479
68.1062 4.635
68.1365 3.854
68.1668 3.698
68.1970 4.010
68.2273 3.802
68.2576 3.021
68.2879 3.281
68.3182 2.865
68.3484 2.969
68.3787 2.969
68.4090 2.708
68.4393 2.865
68.4696 2.083
68.4998 2.031
68.5301 2.865
68.5604 2.552
68.5907 2.292
68.6209 3.177
68.6512 3.229
68.6815 2.760
68.7118 2.500
68.7421 2.812
68.7723 3.385
68.8026 3.437
68.8329 3.333
68.8632 3.646
68.8935 4.062
68.9237 3.437
68.9540 3.958
68.9843 3.229
69.0146 3.490
69.0448 3.750
69.0751 2.760
69.1054 3.281
69.1357 2.969
69.1660 3.177
69.1962 2.865
69.2265 2.448
69.2568 2.135
69.2871 2.083
69.3174 2.656
69.3476 2.552
69.3779 1.615
69.4082 1.823
69.4385 1.667
69.4687 1.458
69.4990 2.292
69.5293 1.406
69.5596 1.771
69.5899 1.823
69.6201 1.198
69.6504 1.198
69.6807 1.406
69.7110 1.302
69.7413 1.250
69.7715 0.990
69.8018 1.510
69.8321 1.302
69.8624 2.135
69.8926 1.250
69.9229 1.094
69.9532 1.302
69.9835 1.510
70.0138 1.250
70.0440 0.833
70.0743 0.781
70.1046 0.833
70.1349 1.406
70.1652 1.250
70.1954 0.937
70.2257 0.833
70.2560 1.406
70.2863 1.250
70.3166 0.937
70.3468 0.937
70.3771 1.250
70.4074 1.458
70.4377 1.250
70.4679 0.937
70.4982 1.094
70.5285 0.781
70.5588 1.615
70.5891 1.042
70.6193 1.250
70.6496 1.042
70.6799 0.937
70.7102 1.094
70.7405 1.198
70.7707 0.833
70.8010 1.094
70.8313 1.250
70.8616 1.146
70.8918 1.146
70.9221 1.250
70.9524 0.833
70.9827 0.885
71.0130 1.250
71.0432 1.406
71.0735 0.885
71.1038 0.833
71.1341 1.042
71.1644 0.781
71.1946 1.042
71.2249 0.781
71.2552 0.937
71.2855 1.146
71.3157 0.833
71.3460 1.198
71.3763 0.885
71.4066 0.573
71.4369 0.833
71.4671 0.990
71.4974 1.146
71.5277 0.885
71.5580 0.625
71.5883 0.885
71.6185 0.885
71.6488 0.781
71.6791 1.042
71.7094 1.250
71.7396 0.729
71.7699 1.042
71.8002 1.198
71.8305 0.990
71.8608 1.146
71.8910 0.833
71.9213 0.521
71.9516 0.937
71.9819 0.990
72.0122 0.990
72.0424 1.250
72.0727 0.937
72.1030 1.146
72.1333 1.250
72.1635 0.937
72.1938 0.990
72.2241 1.302
72.2544 1.250
72.2847 1.302
72.3149 1.198
72.3452 1.510
72.3755 1.510
72.4058 1.667
72.4361 1.719
72.4663 1.250
72.4966 1.458
72.5269 1.510
72.5572 1.146
72.5874 1.927
72.6177 1.406
72.6480 1.198
72.6783 1.667
72.7086 0.937
72.7388 1.094
72.7691 1.250
72.7994 1.146
72.8297 0.937
72.8600 1.354
72.8902 1.094
72.9205 0.937
72.9508 0.885
72.9811 0.833
73.0113 0.729
73.0416 0.833
73.0719 1.042
73.1022 0.573
73.1325 1.250
73.1627 0.781
73.1930 0.885
73.2233 0.990
73.2536 0.677
73.2839 0.729
73.3141 0.885
73.3444 0.937
73.3747 0.937
73.4050 0.937
73.4353 0.729
73.4655 0.729
73.4958 1.250
73.5261 0.937
73.5564 0.781
73.5866 0.625
73.6169 0.885
73.6472 0.885
73.6775 0.417
73.7078 1.198
73.7380 1.094
73.7683 0.729
73.7986 1.406
73.8289 0.937
73.8592 1.354
73.8894 1.042
73.9197 0.729
73.9500 0.677
73.9803 0.885
74.0105 1.042
74.0408 0.729
74.0711 0.990
74.1014 0.729
74.1317 0.469
74.1619 0.781
74.1922 1.094
74.2225 0.625
74.2528 0.729
74.2831 1.302
74.3133 1.250
74.3436 0.781
74.3739 0.677
74.4042 1.042
74.4344 1.198
74.4647 0.990
74.4950 0.469
74.5253 0.729
74.5556 1.198
74.5858 0.625
74.6161 0.937
74.6464 1.198
74.6767 0.937
74.7070 0.990
74.7372 0.990
74.7675 0.729
74.7978 0.833
74.8281 0.677
74.8583 1.250
74.8886 1.146
74.9189 1.042
74.9492 0.833
74.9795 0.937
75.0097 1.042
75.0400 0.573
75.0703 0.469
75.1006 0.937
75.1309 1.094
75.1611 0.990
75.1914 0.781
75.2217 0.833
75.2520 0.729
75.2822 1.146
75.3125 0.885
75.3428 0.729
75.3731 1.302
75.4034 0.729
75.4336 0.729
75.4639 0.625
75.4942 1.042
75.5245 1.094
75.5548 0.833
75.5850 0.781
75.6153 0.990
75.6456 0.781
75.6759 1.146
75.7061 0.781
75.7364 0.885
75.7667 1.094
75.7970 0.937
75.8273 0.677
75.8575 0.677
75.8878 0.990
75.9181 0.990
75.9484 0.781
75.9787 0.885
76.0089 1.354
76.0392 1.250
76.0695 1.094
76.0998 0.833
76.1301 0.729
76.1603 0.833
76.1906 1.094
76.2209 1.250
76.2512 0.729
76.2814 1.250
76.3117 0.833
76.3420 0.885
76.3723 1.510
76.4026 1.458
76.4328 1.042
76.4631 1.146
76.4934 1.042
76.5237 1.406
76.5540 1.146
76.5842 1.302
76.6145 1.094
76.6448 1.354
76.6751 1.146
76.7053 1.198
76.7356 1.250
76.7659 1.250
76.7962 1.094
76.8265 1.562
76.8567 1.615
76.8870 1.198
76.9173 1.198
76.9476 1.562
76.9779 1.094
77.0081 1.406
77.0384 1.198
77.0687 1.823
77.0990 1.667
77.1292 1.094
77.1595 0.729
77.1898 1.146
77.2201 0.990
77.2504 1.406
77.2806 1.458
77.3109 1.354
77.3412 1.094
77.3715 0.781
77.4018 0.781
77.4320 0.937
77.4623 0.781
77.4926 0.573
77.5229 0.677
77.5531 0.990
77.5834 0.937
77.6137 1.042
77.6440 1.146
77.6743 0.885
77.7045 0.885
77.7348 1.042
77.7651 1.354
77.7954 1.146
77.8257 1.042
77.8559 0.937
77.8862 1.094
77.9165 0.573
77.9468 0.677
77.9770 1.094
78.0073 0.677
78.0376 0.729
78.0679 0.937
78.0982 0.990
78.1284 0.833
78.1587 0.885
78.1890 0.625
78.2193 1.250
78.2496 0.729
78.2798 0.729
78.3101 0.521
78.3404 0.729
78.3707 0.781
78.4009 1.042
78.4312 1.042
78.4615 0.781
78.4918 0.677
78.5221 0.625
78.5523 0.781
78.5826 0.833
78.6129 1.198
78.6432 0.990
78.6735 0.937
78.7037 0.781
78.7340 0.625
78.7643 0.781
78.7946 0.885
78.8248 0.781
78.8551 1.094
78.8854 0.781
78.9157 0.625
78.9460 0.833
78.9762 1.146
79.0065 0.833
79.0368 0.729
79.0671 0.781
79.0974 0.781
79.1276 0.885
79.1579 0.781
79.1882 0.833
79.2185 0.729
79.2488 0.885
79.2790 0.937
79.3093 0.625
79.3396 0.885
79.3699 1.146
79.4001 0.990
79.4304 0.833
79.4607 1.042
79.4910 0.833
79.5213 0.729
79.5515 0.521
79.5818 0.937
79.6121 0.990
79.6424 0.729
79.6727 0.729
79.7029 0.729
79.7332 0.729
79.7635 0.833
79.7938 0.573
79.8240 0.625
79.8543 1.146
79.8846 0.729
79.9149 0.573
79.9452 0.781
79.9754 0.469
80.0057 0.833
80.0360 0.729
80.0663 0.885
80.0966 0.885
80.1268 1.042
80.1571 1.094
80.1874 0.833
80.2177 0.729
80.2479 0.729
80.2782 0.833
80.3085 0.781
80.3388 1.146
80.3691 0.990
80.3993 1.302
80.4296 1.510
80.4599 1.198
80.4902 0.937
80.5205 1.042
80.5507 0.781
80.5810 0.729
80.6113 0.625
80.6416 1.302
80.6718 0.729
80.7021 0.885
80.7324 0.833
80.7627 0.885
80.7930 0.885
80.8232 1.042
80.8535 0.573
80.8838 0.677
80.9141 1.198
80.9444 0.781
80.9746 0.990
81.0049 0.833
81.0352 1.198
81.0655 1.198
81.0957 1.146
81.1260 1.198
81.1563 1.198
81.1866 1.042
81.2169 1.302
81.2471 1.042
81.2774 0.990
81.3077 0.990
81.3380 1.302
81.3683 1.458
81.3985 0.729
81.4288 0.885
81.4591 1.094
81.4894 1.198
81.5196 1.250
81.5499 1.406
81.5802 0.937
81.6105 1.354
81.6408 0.781
81.6710 1.094
81.7013 0.990
81.7316 1.042
81.7619 0.573
81.7922 1.198
81.8224 0.885
81.8527 0.729
81.8830 0.990
81.9133 1.094
81.9436 0.729
81.9738 1.042
82.0041 1.042
82.0344 0.990
82.0647 1.094
82.0949 1.042
82.1252 1.094
82.1555 0.729
82.1858 1.302
82.2161 0.937
82.2463 0.573
82.2766 1.146
82.3069 0.573
82.3372 1.146
82.3675 0.781
82.3977 0.729
82.4280 0.937
82.4583 1.406
82.4886 1.198
82.5188 0.781
82.5491 0.573
82.5794 0.990
82.6097 0.885
82.6400 0.625
82.6702 0.781
82.7005 1.094
82.7308 0.781
82.7611 0.885
82.7914 0.729
82.8216 0.469
82.8519 0.937
82.8822 0.521
82.9125 1.042
82.9427 0.833
82.9730 0.729
83.0033 0.729
83.0336 0.677
83.0639 0.833
83.0941 0.833
83.1244 0.885
83.1547 0.521
83.1850 1.042
83.2153 0.885
83.2455 0.990
83.2758 1.198
83.3061 0.729
83.3364 0.781
83.3666 0.573
83.3969 1.094
83.4272 1.198
83.4575 1.198
83.4878 0.781
83.5180 1.146
83.5483 1.094
83.5786 0.573
83.6089 0.781
83.6392 0.625
83.6694 0.833
83.6997 0.937
83.7300 0.833
83.7603 0.937
83.7905 0.833
83.8208 1.042
83.8511 0.885
83.8814 0.677
83.9117 0.937
83.9419 0.937
83.9722 0.781
84.0025 1.094
84.0328 0.729
84.0631 0.521
84.0933 0.885
84.1236 0.990
84.1539 0.937
84.1842 0.625
84.2144 0.625
84.2447 0.729
84.2750 0.990
84.3053 1.094
84.3356 0.625
84.3658 0.729
84.3961 0.729
84.4264 0.521
84.4567 1.198
84.4870 0.625
84.5172 0.729
84.5475 0.781
84.5778 0.937
84.6081 0.833
84.6383 0.781
84.6686 1.094
84.6989 0.573
84.7292 0.729
84.7595 0.833
84.7897 0.729
84.8200 0.625
84.8503 0.990
84.8806 0.729
84.9109 1.042
84.9411 0.833
84.9714 0.781
85.0017 0.729
85.0320 0.625
85.0623 0.833
85.0925 0.677
85.1228 0.885
85.1531 0.677
85.1834 0.521
85.2136 0.937
85.2439 0.781
85.2742 0.781
85.3045 0.781
85.3348 0.677
85.3650 0.677
85.3953 0.625
85.4256 0.729
85.4559 0.990
85.4862 0.677
85.5164 0.625
85.5467 1.146
85.5770 1.042
85.6073 0.781
85.6375 0.677
85.6678 0.781
85.6981 0.729
85.7284 0.833
85.7587 0.885
85.7889 0.885
85.8192 0.990
85.8495 0.781
85.8798 0.937
85.9101 0.885
85.9403 0.312
85.9706 1.198
86.0009 1.042
86.0312 0.469
86.0614 0.625
86.0917 0.573
86.1220 0.781
86.1523 0.729
86.1826 0.990
86.2128 0.990
86.2431 1.146
86.2734 0.781
86.3037 1.094
86.3340 0.208
86.3642 0.729
86.3945 0.885
86.4248 0.885
86.4551 0.677
86.4853 0.729
86.5156 1.094
86.5459 0.833
86.5762 0.833
86.6065 0.625
86.6367 1.094
86.6670 0.833
86.6973 1.042
86.7276 1.146
86.7579 0.521
86.7881 0.677
86.8184 0.885
86.8487 1.302
86.8790 0.625
86.9092 0.417
86.9395 1.146
86.9698 0.729
87.0001 0.729
87.0304 1.458
87.0606 0.885
87.0909 1.354
87.1212 0.469
87.1515 1.198
87.1818 0.677
87.2120 0.573
87.2423 0.729
87.2726 0.885
87.3029 0.937
87.3331 0.729
87.3634 0.833
87.3937 0.677
87.4240 0.833
87.4543 0.469
87.4845 0.937
87.5148 1.094
87.5451 1.406
87.5754 0.469
87.6057 0.677
87.6359 0.781
87.6662 0.677
87.6965 0.833
87.7268 0.729
87.7571 0.729
87.7873 0.729
87.8176 1.198
87.8479 0.729
87.8782 0.781
87.9084 1.302
87.9387 0.781
87.9690 0.625
87.9993 0.729
88.0296 0.729
88.0598 0.833
88.0901 0.729
88.1204 1.146
88.1507 1.146
88.1810 0.833
88.2112 0.625
88.2415 1.042
88.2718 1.198
88.3021 0.417
88.3323 0.521
88.3626 1.146
88.3929 0.729
88.4232 0.521
88.4535 0.833
88.4837 0.781
88.5140 0.573
88.5443 0.937
88.5746 1.198
88.6049 1.198
88.6351 0.937
88.6654 0.885
88.6957 0.781
88.7260 0.937
88.7562 0.729
88.7865 1.198
88.8168 0.937
88.8471 1.302
88.8774 1.250
88.9076 1.198
88.9379 0.937
88.9682 1.146
88.9985 0.990
89.0288 1.302
89.0590 1.406
89.0893 1.302
89.1196 1.667
89.1499 1.458
89.1801 1.458
89.2104 1.562
89.2407 1.719
89.2710 1.198
89.3013 1.719
89.3315 1.667
89.3618 2.292
89.3921 2.135
89.4224 1.875
89.4527 1.771
89.4829 1.875
89.5132 2.135
89.5435 1.823
89.5738 2.135
89.6040 1.667
89.6343 1.510
89.6646 1.979
89.6949 1.667
89.7252 1.875
89.7554 2.083
89.7857 1.354
89.8160 2.187
89.8463 1.406
89.8766 1.146
89.9068 1.771
89.9371 1.458
89.9674 1.250
89.9977 0.990
90.0279 0.990
90.0582 1.458
90.0885 0.885
90.1188 1.302
90.1491 1.250
90.1793 1.094
90.2096 1.302
90.2399 1.094
90.2702 1.198
90.3005 0.937
90.3307 0.833
90.3610 0.625
90.3913 1.198
90.4216 1.042
90.4518 1.406
90.4821 1.042
90.5124 0.937
90.5427 0.729
90.5730 1.146
90.6032 0.781
90.6335 0.937
90.6638 0.937
90.6941 0.729
90.7244 0.885
90.7546 0.781
90.7849 0.729
90.8152 0.625
90.8455 1.146
90.8758 0.833
90.9060 1.094
90.9363 1.146
90.9666 0.885
90.9969 0.833
91.0271 0.833
91.0574 1.198
91.0877 0.781
91.1180 0.937
91.1483 0.781
91.1785 0.885
91.2088 0.677
91.2391 1.042
91.2694 0.833
91.2997 1.094
91.3299 1.094
91.3602 0.990
91.3905 0.625
91.4208 0.677
91.4510 0.885
91.4813 0.573
91.5116 0.521
91.5419 0.990
91.5722 1.198
91.6024 0.990
91.6327 0.677
91.6630 1.094
91.6933 1.094
91.7236 1.094
91.7538 0.260
91.7841 0.729
91.8144 0.937
91.8447 0.781
91.8749 0.729
91.9052 1.094
91.9355 1.042
91.9658 0.833
91.9961 1.094
92.0263 0.833
92.0566 0.833
92.0869 0.990
92.1172 0.937
92.1475 0.833
92.1777 0.677
92.2080 1.198
92.2383 0.573
92.2686 1.146
92.2988 1.198
92.3291 1.250
92.3594 0.990
92.3897 1.406
92.4200 0.729
92.4502 1.406
92.4805 1.354
92.5108 0.990
92.5411 1.198
92.5714 1.250
92.6016 0.937
92.6319 1.146
92.6622 1.302
92.6925 1.198
92.7227 1.615
92.7530 1.354
92.7833 1.302
92.8136 1.354
92.8439 1.562
92.8741 1.354
92.9044 0.937
92.9347 0.885
92.9650 0.833
92.9953 1.198
93.0255 1.042
93.0558 1.094
93.0861 0.990
93.1164 1.354
93.1466 0.729
93.1769 1.406
93.2072 1.250
93.2375 0.937
93.2678 0.833
93.2980 1.094
93.3283 0.833
93.3586 0.885
93.3889 0.885
93.4192 0.625
93.4494 0.937
93.4797 1.406
93.5100 1.354
93.5403 0.990
93.5706 1.198
93.6008 1.094
93.6311 0.833
93.6614 0.729
93.6917 0.990
93.7219 0.833
93.7522 1.302
93.7825 1.146
93.8128 1.198
93.8431 0.937
93.8733 0.625
93.9036 0.937
93.9339 0.990
93.9642 1.042
93.9945 0.833
94.0247 0.677
94.0550 0.833
94.0853 0.885
94.1156 0.937
94.1458 0.937
94.1761 1.094
94.2064 1.094
94.2367 0.990
94.2670 1.146
94.2972 1.094
94.3275 0.781
94.3578 1.198
94.3881 1.042
94.4184 0.990
94.4486 0.833
94.4789 0.833
94.5092 1.198
94.5395 1.094
94.5697 0.990
94.6000 1.406
94.6303 1.615
94.6606 1.198
94.6909 1.198
94.7211 1.094
94.7514 1.146
94.7817 1.094
94.8120 1.458
94.8423 1.562
94.8725 1.354
94.9028 1.198
94.9331 1.667
94.9634 1.823
94.9936 1.146
95.0239 2.500
95.0542 1.719
95.0845 1.823
95.1148 1.719
95.1450 2.240
95.1753 2.031
95.2056 1.823
95.2359 2.135
95.2662 1.875
95.2964 1.510
95.3267 1.927
95.3570 1.875
95.3873 1.719
95.4175 1.562
95.4478 1.667
95.4781 1.927
95.5084 2.240
95.5387 1.406
95.5689 1.042
95.5992 1.510
95.6295 1.250
95.6598 1.458
95.6901 0.937
95.7203 1.354
95.7506 1.719
95.7809 0.573
95.8112 0.990
95.8414 1.250
95.8717 0.990
95.9020 1.250
95.9323 1.250
95.9626 1.510
95.9928 0.677
96.0231 0.990
96.0534 1.510
96.0837 1.250
96.1140 1.198
96.1442 0.937
96.1745 0.729
96.2048 1.198
96.2351 1.146
96.2653 0.625
96.2956 1.250
96.3259 0.729
96.3562 0.885
96.3865 1.146
96.4167 0.937
96.4470 0.937
96.4773 1.146
96.5076 1.146
96.5379 1.042
96.5681 0.781
96.5984 0.990
96.6287 1.094
96.6590 1.198
96.6893 0.885
96.7195 0.990
96.7498 0.625
96.7801 0.937
96.8104 1.146
96.8406 0.625
96.8709 1.146
96.9012 1.042
96.9315 1.250
96.9618 1.094
96.9920 0.677
97.0223 1.250
97.0526 0.990
97.0829 1.146
97.1132 0.729
97.1434 0.729
97.1737 0.990
97.2040 0.781
97.2343 1.458
97.2645 1.302
97.2948 0.781
97.3251 1.302
97.3554 0.781
97.3857 0.885
97.4159 0.781
97.4462 1.250
97.4765 1.458
97.5068 0.937
97.5371 0.990
97.5673 1.354
97.5976 0.677
97.6279 1.250
97.6582 0.833
97.6884 0.781
97.7187 1.042
97.7490 1.458
97.7793 1.094
97.8096 0.729
97.8398 0.729
97.8701 1.198
97.9004 1.771
97.9307 0.833
97.9610 1.302
97.9912 1.458
98.0215 1.302
98.0518 1.250
98.0821 0.937
98.1123 0.833
98.1426 1.250
98.1729 0.990
98.2032 1.510
98.2335 1.250
98.2637 0.990
98.2940 1.250
98.3243 1.250
98.3546 1.458
98.3849 1.302
98.4151 1.302
98.4454 1.510
98.4757 1.302
98.5060 1.198
98.5362 1.302
98.5665 1.406
98.5968 1.302
98.6271 1.562
98.6574 1.406
98.6876 1.042
98.7179 1.302
98.7482 1.042
98.7785 1.406
98.8088 1.615
98.8390 1.302
98.8693 1.510
98.8996 1.562
98.9299 1.615
98.9601 1.146
98.9904 1.250
99.0207 1.354
99.0510 0.781
99.0813 1.510
99.1115 1.042
99.1418 1.198
99.1721 0.937
99.2024 1.302
99.2327 0.990
99.2629 0.885
99.2932 0.990
99.3235 0.937
99.3538 1.094
99.3841 1.198
99.4143 0.990
99.4446 0.781
99.4749 0.417
99.5052 0.937
99.5354 1.094
99.5657 0.781
99.5960 1.198
99.6263 1.146
99.6566 0.833
99.6868 0.677
99.7171 0.885
99.7474 1.302
99.7777 0.833
99.8080 0.781
99.8382 0.885
99.8685 0.781
99.8988 0.885
99.9291 0.937
99.9593 0.937
99.9896 1.042
100.0199 0.729
100.0502 1.146
100.0805 0.937
100.1107 1.354
100.1410 0.365
100.1713 0.417
100.2016 0.573
100.2319 1.302
100.2621 0.729
100.2924 1.302
100.3227 0.885
100.3530 0.781
100.3832 0.781
100.4135 1.042
100.4438 0.937
100.4741 0.729
100.5044 1.042
100.5346 0.833
100.5649 1.094
100.5952 0.781
100.6255 1.146
100.6558 0.781
100.6860 0.937
100.7163 0.573
100.7466 1.302
100.7769 0.937
100.8071 0.885
100.8374 0.833
100.8677 0.885
100.8980 0.833
100.9283 0.729
100.9585 0.781
100.9888 0.937
101.0191 0.885
101.0494 0.937
101.0797 0.937
101.1099 0.990
101.1402 1.198
101.1705 1.094
101.2008 0.625
101.2310 1.146
101.2613 0.417
101.2916 1.042
101.3219 0.990
101.3522 0.833
101.3824 1.198
101.4127 0.885
101.4430 0.833
101.4733 1.302
101.5036 0.937
101.5338 1.302
101.5641 0.990
101.5944 0.990
101.6247 1.094
101.6549 1.250
101.6852 0.990
101.7155 0.833
101.7458 1.302
101.7761 0.833
101.8063 1.146
101.8366 1.146
101.8669 0.729
101.8972 0.677
101.9275 0.521
101.9577 0.625
101.9880 1.094
102.0183 0.990
102.0486 0.937
102.0788 0.937
102.1091 1.250
102.1394 1.406
102.1697 0.990
102.2000 0.781
102.2302 1.406
102.2605 1.510
102.2908 1.042
102.3211 1.146
102.3514 1.094
102.3816 1.302
102.4119 0.990
102.4422 1.042
102.4725 1.354
102.5028 1.250
102.5330 0.990
102.5633 1.562
102.5936 1.406
102.6239 1.406
102.6541 1.302
102.6844 1.354
102.7147 1.146
102.7450 1.146
102.7753 1.354
102.8055 0.937
102.8358 1.250
102.8661 1.042
102.8964 2.031
102.9267 1.094
102.9569 1.615
102.9872 1.354
103.0175 0.833
103.0478 1.198
103.0780 1.667
103.1083 1.094
103.1386 0.677
103.1689 1.354
103.1992 1.302
103.2294 1.354
103.2597 1.042
103.2900 1.302
103.3203 1.198
103.3506 1.354
103.3808 1.146
103.4111 1.250
103.4414 1.250
103.4717 1.250
103.5019 1.354
103.5322 1.458
103.5625 1.354
103.5928 1.146
103.6231 1.302
103.6533 1.510
103.6836 1.406
103.7139 1.354
103.7442 1.927
103.7745 1.823
103.8047 1.094
103.8350 2.240
103.8653 1.510
103.8956 1.354
103.9258 1.615
103.9561 1.927
103.9864 1.927
104.0167 1.615
104.0470 1.302
104.0772 1.927
104.1075 1.719
104.1378 1.927
104.1681 1.719
104.1984 1.458
104.2286 1.302
104.2589 1.875
104.2892 1.771
104.3195 1.979
104.3497 1.458
104.3800 1.823
104.4103 1.354
104.4406 1.458
104.4709 1.719
104.5011 1.250
104.5314 1.406
104.5617 1.406
104.5920 1.094
104.6223 1.615
104.6525 1.094
104.6828 0.885
104.7131 1.719
104.7434 1.146
104.7736 1.198
104.8039 0.990
104.8342 1.146
104.8645 0.885
104.8948 1.042
104.9250 0.677
104.9553 1.094
104.9856 1.302
105.0159 0.625
105.0462 0.937
105.0764 0.885
105.1067 0.833
105.1370 0.573
105.1673 0.677
105.1975 1.458
105.2278 0.937
105.2581 0.781
105.2884 1.094
105.3187 1.354
105.3489 1.042
105.3792 1.042
105.4095 0.833
105.4398 1.094
105.4701 1.042
105.5003 0.990
105.5306 0.417
105.5609 1.094
105.5912 0.990
105.6215 0.990
105.6517 0.990
105.6820 1.250
105.7123 0.781
105.7426 0.833
105.7728 1.302
105.8031 0.885
105.8334 1.094
105.8637 1.146
105.8940 1.094
105.9242 0.833
105.9545 0.937
105.9848 0.833
106.0151 0.833
106.0454 1.094
106.0756 0.885
106.1059 0.521
106.1362 1.042
106.1665 0.885
106.1967 1.302
106.2270 1.042
106.2573 0.885
106.2876 1.354
106.3179 1.354
106.3481 1.354
106.3784 0.521
106.4087 1.198
106.4390 0.885
106.4693 0.937
106.4995 1.042
106.5298 1.302
106.5601 0.885
106.5904 0.729
106.6206 1.146
106.6509 0.885
106.6812 0.677
106.7115 0.885
106.7418 0.573
106.7720 1.146
106.8023 0.885
106.8326 1.302
106.8629 1.198
106.8932 0.833
106.9234 1.146
106.9537 1.615
106.9840 0.781
107.0143 1.302
107.0445 1.094
107.0748 1.094
107.1051 1.198
107.1354 0.990
107.1657 0.885
107.1959 0.833
107.2262 1.302
107.2565 1.458
107.2868 0.781
107.3171 1.302
107.3473 0.677
107.3776 1.198
107.4079 0.885
107.4382 0.729
107.4684 0.885
107.4987 1.146
107.5290 0.833
107.5593 0.937
107.5896 1.406
107.6198 0.833
107.6501 0.625
107.6804 0.729
107.7107 0.990
107.7410 0.677
107.7712 1.146
107.8015 0.937
107.8318 1.146
107.8621 0.885
107.8923 1.302
107.9226 0.937
107.9529 1.354
107.9832 0.833
108.0135 1.406
108.0437 0.833
108.0740 1.094
108.1043 0.937
108.1346 0.885
108.1649 0.885
108.1951 1.094
108.2254 1.198
108.2557 0.573
108.2860 0.885
108.3163 1.094
108.3465 0.885
108.3768 1.198
108.4071 0.885
108.4374 0.885
108.4676 1.146
108.4979 0.833
108.5282 1.198
108.5585 0.990
108.5888 0.677
108.6190 0.521
108.6493 0.469
108.6796 0.937
108.7099 1.094
108.7402 0.885
108.7704 0.990
108.8007 0.833
108.8310 1.146
108.8613 0.781
108.8915 1.042
108.9218 1.042
108.9521 0.833
108.9824 0.781
109.0127 1.042
109.0429 0.833
109.0732 0.573
109.1035 1.094
109.1338 1.146
109.1641 0.990
109.1943 0.521
109.2246 1.094
109.2549 1.146
109.2852 1.406
109.3154 0.833
109.3457 1.406
109.3760 0.729
109.4063 0.885
109.4366 1.458
109.4668 0.833
109.4971 1.042
109.5274 1.146
109.5577 1.458
109.5880 1.094
109.6182 1.302
109.6485 1.302
109.6788 1.354
109.7091 0.781
109.7393 0.937
109.7696 1.198
109.7999 0.781
109.8302 0.990
109.8605 1.094
109.8907 0.729
109.9210 1.094
109.9513 1.042
109.9816 1.354
110.0119 0.833
110.0421 1.562
110.0724 1.250
110.1027 1.354
110.1330 1.042
110.1632 0.937
110.1935 0.729
110.2238 1.146
110.2541 1.458
110.2844 0.885
110.3146 0.677
110.3449 0.990
110.3752 1.354
110.4055 0.625
110.4358 1.406
110.4660 1.198
110.4963 1.042
110.5266 1.198
110.5569 1.719
110.5871 0.937
110.6174 1.198
110.6477 1.458
110.6780 1.458
110.7083 1.146
110.7385 1.562
110.7688 1.250
110.7991 1.354
110.8294 1.250
110.8597 1.302
110.8899 0.990
110.9202 1.146
110.9505 0.937
110.9808 1.354
111.0110 1.146
111.0413 0.990
111.0716 0.990
111.1019 0.990
111.1322 1.354
111.1624 0.990
111.1927 1.146
111.2230 0.885
111.2533 0.781
111.2836 1.094
111.3138 0.990
111.3441 1.354
111.3744 1.198
111.4047 1.094
111.4350 0.781
111.4652 0.937
111.4955 0.521
111.5258 0.833
111.5561 0.990
111.5863 0.625
111.6166 0.937
111.6469 1.302
111.6772 1.146
111.7075 1.198
111.7377 0.677
111.7680 0.885
111.7983 0.937
111.8286 0.781
111.8589 0.990
111.8891 1.250
111.9194 0.885
111.9497 1.042
111.9800 1.146
112.0102 0.677
112.0405 0.990
112.0708 0.885
112.1011 0.677
112.1314 0.729
112.1616 1.146
112.1919 0.885
112.2222 0.677
112.2525 0.833
112.2828 1.094
112.3130 0.885
112.3433 0.885
112.3736 1.250
112.4039 1.094
112.4341 0.781
112.4644 0.885
112.4947 1.302
112.5250 1.042
112.5553 1.042
112.5855 1.146
112.6158 0.885
112.6461 0.885
112.6764 1.042
112.7067 0.521
112.7369 0.990
112.7672 1.250
112.7975 0.937
112.8278 1.198
112.8580 0.833
112.8883 1.042
112.9186 0.573
112.9489 1.146
112.9792 0.625
113.0094 0.937
113.0397 1.042
113.0700 1.667
113.1003 0.937
113.1306 1.406
113.1608 1.146
113.1911 0.885
113.2214 0.677
113.2517 1.146
113.2819 1.094
113.3122 1.250
113.3425 0.833
113.3728 0.781
113.4031 1.250
113.4333 0.937
113.4636 1.302
113.4939 1.146
113.5242 1.146
113.5545 0.937
113.5847 1.094
113.6150 1.146
113.6453 1.198
113.6756 0.833
113.7058 1.042
113.7361 0.677
113.7664 0.521
113.7967 0.937
113.8270 1.198
113.8572 0.885
113.8875 0.781
113.9178 0.937
113.9481 1.042
113.9784 0.833
114.0086 0.625
114.0389 0.990
114.0692 0.677
114.0995 0.521
114.1298 0.990
114.1600 1.458
114.1903 0.833
114.2206 1.302
114.2509 0.990
114.2811 0.833
114.3114 1.354
114.3417 0.781
114.3720 1.042
114.4023 0.937
114.4325 1.302
114.4628 0.937
114.4931 1.198
114.5234 0.885
114.5537 0.573
114.5839 1.042
114.6142 1.094
114.6445 1.510
114.6748 0.833
114.7050 1.094
114.7353 1.198
114.7656 1.094
114.7959 1.042
114.8262 1.146
114.8564 1.094
114.8867 1.042
114.9170 1.094
114.9473 1.042
114.9776 0.625
115.0078 1.302
115.0381 1.146
115.0684 1.250
115.0987 1.458
115.1289 1.094
115.1592 1.094
115.1895 1.146
115.2198 0.885
115.2501 1.094
115.2803 1.562
115.3106 1.771
115.3409 1.250
115.3712 1.302
115.4015 1.146
115.4317 1.406
115.4620 1.146
115.4923 1.094
115.5226 1.094
115.5528 1.406
115.5831 1.510
115.6134 1.250
115.6437 1.094
115.6740 1.354
115.7042 1.458
115.7345 1.875
115.7648 1.354
115.7951 1.406
115.8254 1.042
115.8556 1.927
115.8859 1.771
115.9162 2.135
115.9465 1.094
115.9767 1.250
116.0070 1.823
116.0373 1.302
116.0676 1.927
116.0979 1.615
116.1281 1.562
116.1584 2.083
116.1887 1.719
116.2190 1.771
116.2493 1.406
116.2795 1.719
116.3098 2.240
116.3401 1.823
116.3704 1.823
116.4006 2.083
116.4309 1.719
116.4612 1.562
116.4915 2.135
116.5218 1.302
116.5520 2.135
116.5823 1.250
116.6126 1.771
116.6429 1.823
116.6732 1.458
116.7034 1.823
116.7337 1.406
116.7640 1.406
116.7943 1.094
116.8245 1.198
116.8548 1.198
116.8851 1.354
116.9154 1.562
116.9457 1.510
116.9759 1.875
117.0062 0.729
117.0365 0.781
117.0668 1.302
117.0971 1.302
117.1273 1.302
117.1576 0.625
117.1879 1.302
117.2182 0.990
117.2485 1.094
117.2787 0.573
117.3090 0.729
117.3393 1.198
117.3696 0.885
117.3998 0.885
117.4301 1.510
117.4604 1.094
117.4907 1.146
117.5210 0.990
117.5512 0.573
117.5815 0.990
117.6118 0.990
117.6421 1.250
117.6724 0.937
117.7026 1.354
117.7329 1.250
117.7632 1.302
117.7935 1.094
117.8237 1.250
117.8540 1.094
117.8843 0.937
117.9146 0.729
117.9449 1.250
117.9751 1.302
118.0054 1.042
118.0357 0.990
118.0660 0.937
118.0963 1.406
118.1265 0.469
118.1568 0.833
118.1871 1.094
118.2174 1.094
118.2476 1.042
118.2779 1.458
118.3082 0.833
118.3385 1.250
118.3688 1.042
118.3990 1.094
118.4293 0.729
118.4596 1.406
118.4899 0.937
118.5202 0.729
118.5504 1.302
118.5807 0.833
118.6110 1.250
118.6413 0.990
118.6715 0.990
118.7018 0.729
118.7321 1.042
118.7624 0.937
118.7927 1.094
118.8229 1.302
118.8532 0.937
118.8835 0.885
118.9138 0.990
118.9441 0.885
118.9743 0.677
119.0046 1.042
119.0349 0.885
119.0652 0.990
119.0954 0.937
119.1257 1.146
119.1560 0.885
119.1863 0.885
119.2166 0.781
119.2468 1.198
119.2771 1.042
119.3074 1.094
119.3377 0.990
119.3680 1.094
119.3982 1.042
119.4285 0.990
119.4588 1.250
119.4891 0.781
119.5193 0.833
119.5496 0.833
119.5799 1.406
119.6102 1.354
119.6405 1.094
119.6707 0.677
119.7010 0.885
119.7313 0.469
119.7616 1.042
119.7919 0.833
119.8221 0.729
119.8524 0.521
119.8827 0.885
119.9130 0.990
119.9433 1.302
119.9735 0.937
120.0038 0.833
