'Id: "" Comment: "" Operator: "Lab Manager" Anode: "Cu" Scantype: "Locked Coupled" TimePerStep: "19.2" X: "9999" Y: "9999" Z: "9999" 
10.0015 3.906
10.0318 4.375
10.0620 3.958
10.0923 3.333
10.1226 5.469
10.1529 4.062
10.1832 3.125
10.2134 3.750
10.2437 4.687
10.2740 3.906
10.3043 4.167
10.3346 4.062
10.3648 4.062
10.3951 3.281
10.4254 4.167
10.4557 3.698
10.4859 3.073
10.5162 3.385
10.5465 3.646
10.5768 3.646
10.6071 5.469
10.6373 4.844
10.6676 4.531
10.6979 4.531
10.7282 5.781
10.7585 4.427
10.7887 4.635
10.8190 5.312
10.8493 5.365
10.8796 4.844
10.9098 3.646
10.9401 6.615
10.9704 7.187
11.0007 7.865
11.0310 9.635
11.0612 10.104
11.0915 9.062
11.1218 8.281
11.1521 8.333
11.1824 6.458
11.2126 6.146
11.2429 5.937
11.2732 4.219
11.3035 4.115
11.3337 4.427
11.3640 4.531
11.3943 4.479
11.4246 4.844
11.4549 4.583
11.4851 3.490
11.5154 4.010
11.5457 4.427
11.5760 4.427
11.6063 4.115
11.6365 4.583
11.6668 4.062
11.6971 4.531
11.7274 3.698
11.7577 4.115
11.7879 4.427
11.8182 4.531
11.8485 4.167
11.8788 3.906
11.9090 4.479
11.9393 3.906
11.9696 3.437
11.9999 3.698
12.0302 4.062
12.0604 3.646
12.0907 4.010
12.1210 3.958
12.1513 4.531
12.1816 3.490
12.2118 3.437
12.2421 3.594
12.2724 3.542
12.3027 2.760
12.3329 3.906
12.3632 4.115
12.3935 4.635
12.4238 3.542
12.4541 3.073
12.4843 3.229
12.5146 3.646
12.5449 3.333
12.5752 4.635
12.6055 3.385
12.6357 2.865
12.6660 3.490
12.6963 3.594
12.7266 4.167
12.7568 4.271
12.7871 3.281
12.8174 3.229
12.8477 3.698
12.8780 4.115
12.9082 3.281
12.9385 3.125
12.9688 3.281
12.9991 3.385
13.0294 3.229
13.0596 3.125
13.0899 3.542
13.1202 2.812
13.1505 4.479
13.1807 2.500
13.2110 3.802
13.2413 3.646
13.2716 2.969
13.3019 3.698
13.3321 3.229
13.3624 3.125
13.3927 4.271
13.4230 3.177
13.4533 3.177
13.4835 2.604
13.5138 3.698
13.5441 3.125
13.5744 3.542
13.6046 2.604
13.6349 3.125
13.6652 3.958
13.6955 3.229
13.7258 3.385
13.7560 2.500
13.7863 3.854
13.8166 3.490
13.8469 2.969
13.8772 3.021
13.9074 2.865
13.9377 2.865
13.9680 2.969
13.9983 3.021
14.0285 2.240
14.0588 4.010
14.0891 4.167
14.1194 3.542
14.1497 2.865
14.1799 3.073
14.2102 3.490
14.2405 3.333
14.2708 3.854
14.3011 3.333
14.3313 4.115
14.3616 3.333
14.3919 3.333
14.4222 3.021
14.4524 3.021
14.4827 3.177
14.5130 2.969
14.5433 3.698
14.5736 2.969
14.6038 3.333
14.6341 3.750
14.6644 3.646
14.6947 4.323
14.7250 3.125
14.7552 3.750
14.7855 3.333
14.8158 3.646
14.8461 3.229
14.8764 2.344
14.9066 2.500
14.9369 3.646
14.9672 3.177
14.9975 3.542
15.0277 2.656
15.0580 3.229
15.0883 3.021
15.1186 3.073
15.1489 2.604
15.1791 2.708
15.2094 3.437
15.2397 4.219
15.2700 2.604
15.3003 3.281
15.3305 3.490
15.3608 3.333
15.3911 3.125
15.4214 3.906
15.4516 3.177
15.4819 3.021
15.5122 3.021
15.5425 3.594
15.5728 2.396
15.6030 4.323
15.6333 3.750
15.6636 3.125
15.6939 2.187
15.7242 2.812
15.7544 3.177
15.7847 3.177
15.8150 3.281
15.8453 3.229
15.8755 2.500
15.9058 2.708
15.9361 3.333
15.9664 3.594
15.9967 3.646
16.0269 3.750
16.0572 2.969
16.0875 2.812
16.1178 2.500
16.1481 2.448
16.1783 3.281
16.2086 3.125
16.2389 3.594
16.2692 2.812
16.2994 3.333
16.3297 3.229
16.3600 2.917
16.3903 3.594
16.4206 3.854
16.4508 2.500
16.4811 3.125
16.5114 2.240
16.5417 2.396
16.5720 3.490
16.6022 3.437
16.6325 2.812
16.6628 3.177
16.6931 2.969
16.7233 2.969
16.7536 3.437
16.7839 2.656
16.8142 2.917
16.8445 3.646
16.8747 2.812
16.9050 3.958
16.9353 4.219
16.9656 3.333
16.9959 3.750
17.0261 3.281
17.0564 3.698
17.0867 3.750
17.1170 3.437
17.1472 2.917
17.1775 3.594
17.2078 3.646
17.2381 2.552
17.2684 3.854
17.2986 3.698
17.3289 3.177
17.3592 2.917
17.3895 3.073
17.4198 3.385
17.4500 2.708
17.4803 3.437
17.5106 2.917
17.5409 3.021
17.5712 3.437
17.6014 3.021
17.6317 3.333
17.6620 3.646
17.6923 3.750
17.7225 3.698
17.7528 3.906
17.7831 2.448
17.8134 2.708
17.8437 3.437
17.8739 3.177
17.9042 2.500
17.9345 3.385
17.9648 2.083
17.9951 3.437
18.0253 3.490
18.0556 2.760
18.0859 2.500
18.1162 3.281
18.1464 2.187
18.1767 4.219
18.2070 3.333
18.2373 2.865
18.2676 3.021
18.2978 2.865
18.3281 3.385
18.3584 3.229
18.3887 3.646
18.4190 2.917
18.4492 2.240
18.4795 3.125
18.5098 2.812
18.5401 2.812
18.5703 2.708
18.6006 2.812
18.6309 3.958
18.6612 2.656
18.6915 3.125
18.7217 3.281
18.7520 3.542
18.7823 2.708
18.8126 1.875
18.8429 3.281
18.8731 3.385
18.9034 3.333
18.9337 3.229
18.9640 2.656
18.9942 2.552
19.0245 3.333
19.0548 3.125
19.0851 3.385
19.1154 3.229
19.1456 2.708
19.1759 2.760
19.2062 3.229
19.2365 2.656
19.2668 3.073
19.2970 2.396
19.3273 2.552
19.3576 3.281
19.3879 2.760
19.4181 2.500
19.4484 2.448
19.4787 2.604
19.5090 2.760
19.5393 2.604
19.5695 2.448
19.5998 2.656
19.6301 3.177
19.6604 2.344
19.6907 2.708
19.7209 3.229
19.7512 2.604
19.7815 3.125
19.8118 3.073
19.8420 1.979
19.8723 3.333
19.9026 3.021
19.9329 2.292
19.9632 2.292
19.9934 2.344
20.0237 2.552
20.0540 2.917
20.0843 2.760
20.1146 2.969
20.1448 2.552
20.1751 2.604
20.2054 3.281
20.2357 2.500
20.2659 2.396
20.2962 3.021
20.3265 2.865
20.3568 2.604
20.3871 2.500
20.4173 3.073
20.4476 2.812
20.4779 2.656
20.5082 3.021
20.5385 2.500
20.5687 2.500
20.5990 2.292
20.6293 3.073
20.6596 2.812
20.6899 2.083
20.7201 2.448
20.7504 2.135
20.7807 2.656
20.8110 2.448
20.8412 3.177
20.8715 2.656
20.9018 2.552
20.9321 3.229
20.9624 2.917
20.9926 2.448
21.0229 3.073
21.0532 2.500
21.0835 2.865
21.1138 3.177
21.1440 2.604
21.1743 2.292
21.2046 2.604
21.2349 3.177
21.2651 3.177
21.2954 2.396
21.3257 3.021
21.3560 2.865
21.3863 2.812
21.4165 2.604
21.4468 3.125
21.4771 2.448
21.5074 1.771
21.5377 3.073
21.5679 2.812
21.5982 2.656
21.6285 2.760
21.6588 3.177
21.6890 2.396
21.7193 2.760
21.7496 2.969
21.7799 3.021
21.8102 2.552
21.8404 2.448
21.8707 2.187
21.9010 2.604
21.9313 1.979
21.9616 2.240
21.9918 3.177
22.0221 2.396
22.0524 3.125
22.0827 2.344
22.1129 2.500
22.1432 2.448
22.1735 3.177
22.2038 3.542
22.2341 3.021
22.2643 2.396
22.2946 2.969
22.3249 2.708
22.3552 3.229
22.3855 3.073
22.4157 2.344
22.4460 2.812
22.4763 2.187
22.5066 2.604
22.5368 3.073
22.5671 2.083
22.5974 2.865
22.6277 2.969
22.6580 3.542
22.6882 3.021
22.7185 3.229
22.7488 2.135
22.7791 2.604
22.8094 2.448
22.8396 3.021
22.8699 2.656
22.9002 2.656
22.9305 2.552
22.9607 2.396
22.9910 2.656
23.0213 3.021
23.0516 2.760
23.0819 2.552
23.1121 1.667
23.1424 2.812
23.1727 2.396
23.2030 2.552
23.2333 2.135
23.2635 2.344
23.2938 2.552
23.3241 2.969
23.3544 2.031
23.3846 2.917
23.4149 2.292
23.4452 3.229
23.4755 2.917
23.5058 2.500
23.5360 2.292
23.5663 1.927
23.5966 3.125
23.6269 3.073
23.6572 3.750
23.6874 2.604
23.7177 3.177
23.7480 3.281
23.7783 3.073
23.8086 3.333
23.8388 2.500
23.8691 2.760
23.8994 2.292
23.9297 2.552
23.9599 2.552
23.9902 1.823
24.0205 2.552
24.0508 2.240
24.0811 2.135
24.1113 2.865
24.1416 2.187
24.1719 3.594
24.2022 2.344
24.2325 2.500
24.2627 2.448
24.2930 2.812
24.3233 3.177
24.3536 3.177
24.3838 2.917
24.4141 2.448
24.4444 3.281
24.4747 2.187
24.5050 2.656
24.5352 3.333
24.5655 2.760
24.5958 2.604
24.6261 3.646
24.6564 2.604
24.6866 2.448
24.7169 2.292
24.7472 2.604
24.7775 3.750
24.8077 2.760
24.8380 2.031
24.8683 3.333
24.8986 2.812
24.9289 2.396
24.9591 2.656
24.9894 2.552
25.0197 2.604
25.0500 3.021
25.0803 2.865
25.1105 2.708
25.1408 2.917
25.1711 2.708
25.2014 2.604
25.2316 2.812
25.2619 3.229
25.2922 2.917
25.3225 3.073
25.3528 2.344
25.3830 2.708
25.4133 2.969
25.4436 3.229
25.4739 3.177
25.5042 3.333
25.5344 2.656
25.5647 2.708
25.5950 1.927
25.6253 3.073
25.6555 2.031
25.6858 2.708
25.7161 2.708
25.7464 2.240
25.7767 2.344
25.8069 3.021
25.8372 3.437
25.8675 2.552
25.8978 2.812
25.9281 1.771
25.9583 2.552
25.9886 3.542
26.0189 2.552
26.0492 3.125
26.0794 2.135
26.1097 3.281
26.1400 3.177
26.1703 2.500
26.2006 1.927
26.2308 2.292
26.2611 2.344
26.2914 3.021
26.3217 3.385
26.3520 2.656
26.3822 2.917
26.4125 2.708
26.4428 3.177
26.4731 2.917
26.5034 2.552
26.5336 2.812
26.5639 3.021
26.5942 3.073
26.6245 2.500
26.6547 2.552
26.6850 2.604
26.7153 2.708
26.7456 2.604
26.7759 3.594
26.8061 2.917
26.8364 2.865
26.8667 2.917
26.8970 3.229
26.9273 3.333
26.9575 3.385
26.9878 3.073
27.0181 3.229
27.0484 2.656
27.0786 2.344
27.1089 2.344
27.1392 2.865
27.1695 2.812
27.1998 3.385
27.2300 3.125
27.2603 2.552
27.2906 3.594
27.3209 2.656
27.3512 2.031
27.3814 3.333
27.4117 3.281
27.4420 3.594
27.4723 2.604
27.5025 2.865
27.5328 3.542
27.5631 2.969
27.5934 2.917
27.6237 2.552
27.6539 2.917
27.6842 3.385
27.7145 3.437
27.7448 2.865
27.7751 3.854
27.8053 3.281
27.8356 3.333
27.8659 3.333
27.8962 3.906
27.9264 3.229
27.9567 3.385
27.9870 3.490
28.0173 3.177
28.0476 3.021
28.0778 3.385
28.1081 2.812
28.1384 3.542
28.1687 3.385
28.1990 3.542
28.2292 3.542
28.2595 2.969
28.2898 3.177
28.3201 3.385
28.3503 3.333
28.3806 2.917
28.4109 3.542
28.4412 3.333
28.4715 3.854
28.5017 3.229
28.5320 4.010
28.5623 3.073
28.5926 2.812
28.6229 3.490
28.6531 3.698
28.6834 3.698
28.7137 3.906
28.7440 3.229
28.7742 3.281
28.8045 3.542
28.8348 3.333
28.8651 3.229
28.8954 4.740
28.9256 4.167
28.9559 3.698
28.9862 4.167
29.0165 4.531
29.0468 3.750
29.0770 3.385
29.1073 3.750
29.1376 3.177
29.1679 3.490
29.1981 3.333
29.2284 4.375
29.2587 4.010
29.2890 3.333
29.3193 4.167
29.3495 4.531
29.3798 3.854
29.4101 3.750
29.4404 3.229
29.4707 4.115
29.5009 3.958
29.5312 3.490
29.5615 5.208
29.5918 3.802
29.6221 4.271
29.6523 4.427
29.6826 3.958
29.7129 3.594
29.7432 4.323
29.7734 4.427
29.8037 4.948
29.8340 4.167
29.8643 4.062
29.8946 4.740
29.9248 4.427
29.9551 4.062
29.9854 5.469
30.0157 5.781
30.0460 5.156
30.0762 4.740
30.1065 3.854
30.1368 6.458
30.1671 5.625
30.1973 5.729
30.2276 5.208
30.2579 5.937
30.2882 5.729
30.3185 5.729
30.3487 5.417
30.3790 5.365
30.4093 6.510
30.4396 5.260
30.4699 6.510
30.5001 7.865
30.5304 7.083
30.5607 5.521
30.5910 6.771
30.6212 6.875
30.6515 8.021
30.6818 7.448
30.7121 7.448
30.7424 6.510
30.7726 7.396
30.8029 8.854
30.8332 8.177
30.8635 8.698
30.8938 9.844
30.9240 9.167
30.9543 9.635
30.9846 10.521
31.0149 11.406
31.0451 11.927
31.0754 12.240
31.1057 13.854
31.1360 14.635
31.1663 14.896
31.1965 14.792
31.2268 17.500
31.2571 20.469
31.2874 20.469
31.3177 22.969
31.3479 22.187
31.3782 25.937
31.4085 28.229
31.4388 33.177
31.4690 34.844
31.4993 38.021
31.5296 45.000
31.5599 45.312
31.5902 47.396
31.6204 48.177
31.6507 48.542
31.6810 54.427
31.7113 50.729
31.7416 48.125
31.7718 45.417
31.8021 42.187
31.8324 38.385
31.8627 36.042
31.8929 30.833
31.9232 27.396
31.9535 24.583
31.9838 22.917
32.0141 18.854
32.0443 17.917
32.0746 17.500
32.1049 14.635
32.1352 14.375
32.1655 13.073
32.1957 11.979
32.2260 10.833
32.2563 10.521
32.2866 10.365
32.3169 9.792
32.3471 10.781
32.3774 8.958
32.4077 9.635
32.4380 8.802
32.4682 7.969
32.4985 8.802
32.5288 7.448
32.5591 7.396
32.5894 8.281
32.6196 8.333
32.6499 7.292
32.6802 7.708
32.7105 7.292
32.7408 7.187
32.7710 6.510
32.8013 6.562
32.8316 6.719
32.8619 6.771
32.8921 6.875
32.9224 6.667
32.9527 6.510
32.9830 6.198
33.0133 6.615
33.0435 6.354
33.0738 6.719
33.1041 6.927
33.1344 6.198
33.1647 5.729
33.1949 7.135
33.2252 8.073
33.2555 6.042
33.2858 6.719
33.3160 7.812
33.3463 7.708
33.3766 6.823
33.4069 6.354
33.4372 7.031
33.4674 6.927
33.4977 7.708
33.5280 6.094
33.5583 8.125
33.5886 7.240
33.6188 7.448
33.6491 8.906
33.6794 8.229
33.7097 7.708
33.7399 8.802
33.7702 10.052
33.8005 10.677
33.8308 9.740
33.8611 10.365
33.8913 12.344
33.9216 10.312
33.9519 15.052
33.9822 15.417
34.0125 15.208
34.0427 18.385
34.0730 20.365
34.1033 23.646
34.1336 25.365
34.1638 30.937
34.1941 36.979
34.2244 42.760
34.2547 49.479
34.2850 58.385
34.3152 61.510
34.3455 63.854
34.3758 58.906
34.4061 50.677
34.4364 43.854
34.4666 36.042
34.4969 30.260
34.5272 25.000
34.5575 21.875
34.5877 21.354
34.6180 17.656
34.6483 14.896
34.6786 14.219
34.7089 14.583
34.7391 13.125
34.7694 12.865
34.7997 12.187
34.8300 12.708
34.8603 11.250
34.8905 10.625
34.9208 10.781
34.9511 11.875
34.9814 9.635
35.0116 11.719
35.0419 9.740
35.0722 11.354
35.1025 10.781
35.1328 10.677
35.1630 11.198
35.1933 11.771
35.2236 12.031
35.2539 10.312
35.2842 12.760
35.3144 12.135
35.3447 11.250
35.3750 13.958
35.4053 12.760
35.4356 14.531
35.4658 15.208
35.4961 15.260
35.5264 15.000
35.5567 17.292
35.5869 18.125
35.6172 18.958
35.6475 19.896
35.6778 22.812
35.7081 23.385
35.7383 25.208
35.7686 28.333
35.7989 30.625
35.8292 34.271
35.8595 38.542
35.8897 40.208
35.9200 46.667
35.9503 46.979
35.9806 53.698
36.0108 59.427
36.0411 67.292
36.0714 71.510
36.1017 73.594
36.1320 72.552
36.1622 78.854
36.1925 77.812
36.2228 72.656
36.2531 69.010
36.2834 64.687
36.3136 53.854
36.3439 48.646
36.3742 46.198
36.4045 42.031
36.4347 35.625
36.4650 31.562
36.4953 30.469
36.5256 26.302
36.5559 24.323
36.5861 21.667
36.6164 20.104
36.6467 18.594
36.6770 18.125
36.7073 16.406
36.7375 15.677
36.7678 14.531
36.7981 13.125
36.8284 11.302
36.8586 11.667
36.8889 10.521
36.9192 11.302
36.9495 9.323
36.9798 8.021
37.0100 9.010
37.0403 8.750
37.0706 8.333
37.1009 7.812
37.1312 7.656
37.1614 8.698
37.1917 7.448
37.2220 7.969
37.2523 7.031
37.2825 6.719
37.3128 6.302
37.3431 7.083
37.3734 5.885
37.4037 5.521
37.4339 6.042
37.4642 6.146
37.4945 5.208
37.5248 6.875
37.5551 6.250
37.5853 4.896
37.6156 5.156
37.6459 5.937
37.6762 5.417
37.7064 5.052
37.7367 5.677
37.7670 5.677
37.7973 4.167
37.8276 3.802
37.8578 4.375
37.8881 5.781
37.9184 3.646
37.9487 5.208
37.9790 4.896
38.0092 4.323
38.0395 3.437
38.0698 3.854
38.1001 3.698
38.1304 4.323
38.1606 4.115
38.1909 4.010
38.2212 3.854
38.2515 3.490
38.2817 3.594
38.3120 4.167
38.3423 3.906
38.3726 3.125
38.4029 3.542
38.4331 3.906
38.4634 3.490
38.4937 3.177
38.5240 3.594
38.5543 3.490
38.5845 2.969
38.6148 3.281
38.6451 3.437
38.6754 3.490
38.7056 3.385
38.7359 2.969
38.7662 3.281
38.7965 3.177
38.8268 2.969
38.8570 3.646
38.8873 2.187
38.9176 3.125
38.9479 3.802
38.9782 2.865
39.0084 2.760
39.0387 3.125
39.0690 3.073
39.0993 2.292
39.1295 2.812
39.1598 2.708
39.1901 2.500
39.2204 3.333
39.2507 3.542
39.2809 3.125
39.3112 2.708
39.3415 2.656
39.3718 2.500
39.4021 3.437
39.4323 3.490
39.4626 2.500
39.4929 3.073
39.5232 2.500
39.5534 2.760
39.5837 3.021
39.6140 2.604
39.6443 2.969
39.6746 2.396
39.7048 3.125
39.7351 3.385
39.7654 2.969
39.7957 3.125
39.8260 3.333
39.8562 2.396
39.8865 3.073
39.9168 2.656
39.9471 2.187
39.9773 2.969
40.0076 2.500
40.0379 3.021
40.0682 2.760
40.0985 2.240
40.1287 3.333
40.1590 2.708
40.1893 2.760
40.2196 2.500
40.2499 2.760
40.2801 2.083
40.3104 2.240
40.3407 2.708
40.3710 2.865
40.4012 2.135
40.4315 2.240
40.4618 2.500
40.4921 2.812
40.5224 2.812
40.5526 2.031
40.5829 2.396
40.6132 2.344
40.6435 3.385
40.6738 2.500
40.7040 2.865
40.7343 2.708
40.7646 2.708
40.7949 2.083
40.8251 2.760
40.8554 2.292
40.8857 2.500
40.9160 2.604
40.9463 2.292
40.9765 2.344
41.0068 2.708
41.0371 2.135
41.0674 2.500
41.0977 2.552
41.1279 2.552
41.1582 3.125
41.1885 2.292
41.2188 2.656
41.2491 1.875
41.2793 1.875
41.3096 2.500
41.3399 2.396
41.3702 2.031
41.4004 2.396
41.4307 2.292
41.4610 2.031
41.4913 2.135
41.5216 2.031
41.5518 2.240
41.5821 2.292
41.6124 2.135
41.6427 2.292
41.6730 2.448
41.7032 2.083
41.7335 2.083
41.7638 2.083
41.7941 2.187
41.8243 2.448
41.8546 2.812
41.8849 2.969
41.9152 2.292
41.9455 2.708
41.9757 2.031
42.0060 1.875
42.0363 2.604
42.0666 2.760
42.0969 1.979
42.1271 2.240
42.1574 2.135
42.1877 2.083
42.2180 1.875
42.2482 2.344
42.2785 1.875
42.3088 2.292
42.3391 2.396
42.3694 1.979
42.3996 1.927
42.4299 2.344
42.4602 2.500
42.4905 1.771
42.5208 2.083
42.5510 2.708
42.5813 2.604
42.6116 2.656
42.6419 2.083
42.6721 2.344
42.7024 2.135
42.7327 2.240
42.7630 2.552
42.7933 2.500
42.8235 2.708
42.8538 2.344
42.8841 2.500
42.9144 2.552
42.9447 2.500
42.9749 2.396
43.0052 2.552
43.0355 2.187
43.0658 2.396
43.0960 2.865
43.1263 3.073
43.1566 1.979
43.1869 2.656
43.2172 2.604
43.2474 2.812
43.2777 2.344
43.3080 2.500
43.3383 3.229
43.3686 1.927
43.3988 2.135
43.4291 2.500
43.4594 2.708
43.4897 2.500
43.5199 1.979
43.5502 2.240
43.5805 1.979
43.6108 2.344
43.6411 2.031
43.6713 3.021
43.7016 2.240
43.7319 1.875
43.7622 2.083
43.7925 2.448
43.8227 2.552
43.8530 2.240
43.8833 2.396
43.9136 2.083
43.9439 2.396
43.9741 2.187
44.0044 2.969
44.0347 1.927
44.0650 1.823
44.0952 2.969
44.1255 2.917
44.1558 2.396
44.1861 2.187
44.2164 2.344
44.2466 2.760
44.2769 1.615
44.3072 2.292
44.3375 2.240
44.3678 2.656
44.3980 2.240
44.4283 2.604
44.4586 2.656
44.4889 2.396
44.5191 2.708
44.5494 2.604
44.5797 2.760
44.6100 2.552
44.6403 2.500
44.6705 2.135
44.7008 2.292
44.7311 2.135
44.7614 3.073
44.7917 1.875
44.8219 3.021
44.8522 1.927
44.8825 1.927
44.9128 2.240
44.9430 2.187
44.9733 2.083
45.0036 2.135
45.0339 1.719
45.0642 2.604
45.0944 2.396
45.1247 2.396
45.1550 2.344
45.1853 2.500
45.2156 1.927
45.2458 2.083
45.2761 2.344
45.3064 2.500
45.3367 2.969
45.3669 2.396
45.3972 3.125
45.4275 3.021
45.4578 2.187
45.4881 3.125
45.5183 2.812
45.5486 2.760
45.5789 2.187
45.6092 2.083
45.6395 3.177
45.6697 2.969
45.7000 2.448
45.7303 2.865
45.7606 2.656
45.7908 2.656
45.8211 2.552
45.8514 2.708
45.8817 3.646
45.9120 3.333
45.9422 3.125
45.9725 2.656
46.0028 2.604
46.0331 2.604
46.0634 2.448
46.0936 3.021
46.1239 2.812
46.1542 2.604
46.1845 2.083
46.2147 2.917
46.2450 2.969
46.2753 2.448
46.3056 2.708
46.3359 3.385
46.3661 3.125
46.3964 3.281
46.4267 3.281
46.4570 4.167
46.4873 4.167
46.5175 3.542
46.5478 3.750
46.5781 3.490
46.6084 3.333
46.6386 4.323
46.6689 4.115
46.6992 4.479
46.7295 4.062
46.7598 4.740
46.7900 4.844
46.8203 4.635
46.8506 4.323
46.8809 6.250
46.9112 5.052
46.9414 5.781
46.9717 4.896
47.0020 6.042
47.0323 6.406
47.0626 7.292
47.0928 7.865
47.1231 8.698
47.1534 9.635
47.1837 9.427
47.2139 11.823
47.2442 12.917
47.2745 13.021
47.3048 13.281
47.3351 16.198
47.3653 15.521
47.3956 15.625
47.4259 18.385
47.4562 17.031
47.4865 18.490
47.5167 18.177
47.5470 15.000
47.5773 14.271
47.6076 12.240
47.6378 12.656
47.6681 10.885
47.6984 12.031
47.7287 10.365
47.7590 8.958
47.7892 7.604
47.8195 6.458
47.8498 6.615
47.8801 6.198
47.9104 6.094
47.9406 6.094
47.9709 5.000
48.0012 5.625
48.0315 4.427
48.0617 4.115
48.0920 5.052
48.1223 3.437
48.1526 4.583
48.1829 3.073
48.2131 3.906
48.2434 4.375
48.2737 3.333
48.3040 3.385
48.3343 3.229
48.3645 3.542
48.3948 3.073
48.4251 2.500
48.4554 3.177
48.4856 2.812
48.5159 3.073
48.5462 2.812
48.5765 2.969
48.6068 2.500
48.6370 2.760
48.6673 2.760
48.6976 3.125
48.7279 2.708
48.7582 2.604
48.7884 3.073
48.8187 2.812
48.8490 2.396
48.8793 2.240
48.9095 2.292
48.9398 2.604
48.9701 2.292
49.0004 2.708
49.0307 2.552
49.0609 3.073
49.0912 2.917
49.1215 3.177
49.1518 2.604
49.1821 1.979
49.2123 2.500
49.2426 2.552
49.2729 2.240
49.3032 2.396
49.3334 2.656
49.3637 2.604
49.3940 2.083
49.4243 2.396
49.4546 2.292
49.4848 2.760
49.5151 2.604
49.5454 2.292
49.5757 2.760
49.6060 2.135
49.6362 1.823
49.6665 2.187
49.6968 1.823
49.7271 2.396
49.7574 2.187
49.7876 2.656
49.8179 2.500
49.8482 2.812
49.8785 2.135
49.9087 2.865
49.9390 2.240
49.9693 2.396
49.9996 2.031
50.0299 2.292
50.0601 1.823
50.0904 2.083
50.1207 1.406
50.1510 2.187
50.1813 2.344
50.2115 2.448
50.2418 1.719
50.2721 1.719
50.3024 2.500
50.3326 2.656
50.3629 2.344
50.3932 2.292
50.4235 2.500
50.4538 2.240
50.4840 1.875
50.5143 2.344
50.5446 2.135
50.5749 2.292
50.6052 2.083
50.6354 2.604
50.6657 2.187
50.6960 2.240
50.7263 2.448
50.7565 2.240
50.7868 2.708
50.8171 2.240
50.8474 1.875
50.8777 2.031
50.9079 2.500
50.9382 2.865
50.9685 2.083
50.9988 2.240
51.0291 2.760
51.0593 2.708
51.0896 2.031
51.1199 2.396
51.1502 2.500
51.1804 2.031
51.2107 1.979
51.2410 2.240
51.2713 1.615
51.3016 1.562
51.3318 2.031
51.3621 2.760
51.3924 2.969
51.4227 2.083
51.4530 1.667
51.4832 1.927
51.5135 1.875
51.5438 1.979
51.5741 2.292
51.6043 1.719
51.6346 1.719
51.6649 2.135
51.6952 1.510
51.7255 2.448
51.7557 1.875
51.7860 1.979
51.8163 2.552
51.8466 2.396
51.8769 1.458
51.9071 2.240
51.9374 2.187
51.9677 1.927
51.9980 2.812
52.0282 1.875
52.0585 2.240
52.0888 2.552
52.1191 1.146
52.1494 2.865
52.1796 2.552
52.2099 2.396
52.2402 2.552
52.2705 1.875
52.3008 1.979
52.3310 2.187
52.3613 2.292
52.3916 2.344
52.4219 1.771
52.4521 2.240
52.4824 2.396
52.5127 2.448
52.5430 2.187
52.5733 2.083
52.6035 2.760
52.6338 2.187
52.6641 2.396
52.6944 2.135
52.7247 2.344
52.7549 1.510
52.7852 2.344
52.8155 2.240
52.8458 2.604
52.8761 2.240
52.9063 2.604
52.9366 2.396
52.9669 1.979
52.9972 2.240
53.0274 1.823
53.0577 2.292
53.0880 1.875
53.1183 1.875
53.1486 1.823
53.1788 2.708
53.2091 2.187
53.2394 2.187
53.2697 2.656
53.3000 1.927
53.3302 2.396
53.3605 2.344
53.3908 1.875
53.4211 1.979
53.4513 2.760
53.4816 2.969
53.5119 2.917
53.5422 2.760
53.5725 2.552
53.6027 2.344
53.6330 2.396
53.6633 2.448
53.6936 2.708
53.7239 1.771
53.7541 2.135
53.7844 2.812
53.8147 2.969
53.8450 2.083
53.8752 2.448
53.9055 2.187
53.9358 2.917
53.9661 2.083
53.9964 2.500
54.0266 2.656
54.0569 2.604
54.0872 2.708
54.1175 2.604
54.1478 2.135
54.1780 3.229
54.2083 2.760
54.2386 2.448
54.2689 2.812
54.2991 2.760
54.3294 1.719
54.3597 1.667
54.3900 2.292
54.4203 1.927
54.4505 2.500
54.4808 2.552
54.5111 2.500
54.5414 2.344
54.5717 3.333
54.6019 3.177
54.6322 3.437
54.6625 2.344
54.6928 2.448
54.7230 2.656
54.7533 2.760
54.7836 3.021
54.8139 3.073
54.8442 2.292
54.8744 3.177
54.9047 2.865
54.9350 3.125
54.9653 2.448
54.9956 3.021
55.0258 2.917
55.0561 3.385
55.0864 3.333
55.1167 2.552
55.1469 2.917
55.1772 3.385
55.2075 2.708
55.2378 3.437
55.2681 4.427
55.2983 4.219
55.3286 3.177
55.3589 4.167
55.3892 3.802
55.4195 3.073
55.4497 3.490
55.4800 3.802
55.5103 3.125
55.5406 4.323
55.5709 4.062
55.6011 3.750
55.6314 4.948
55.6617 4.844
55.6920 4.531
55.7222 5.417
55.7525 5.885
55.7828 5.521
55.8131 6.146
55.8434 5.833
55.8736 6.198
55.9039 6.458
55.9342 6.562
55.9645 6.875
55.9948 7.812
56.0250 8.281
56.0553 8.698
56.0856 8.802
56.1159 8.854
56.1461 10.260
56.1764 10.104
56.2067 11.719
56.2370 12.812
56.2673 14.427
56.2975 13.437
56.3278 17.135
56.3581 17.240
56.3884 19.375
56.4187 19.948
56.4489 22.292
56.4792 21.615
56.5095 21.146
56.5398 19.948
56.5700 20.312
56.6003 20.208
56.6306 19.479
56.6609 16.927
56.6912 16.198
56.7214 14.896
56.7517 13.333
56.7820 12.604
56.8123 12.187
56.8426 10.521
56.8728 10.521
56.9031 9.271
56.9334 8.646
56.9637 7.865
56.9939 7.708
57.0242 7.604
57.0545 6.406
57.0848 6.927
57.1151 6.250
57.1453 5.104
57.1756 5.521
57.2059 4.427
57.2362 5.885
57.2665 4.323
57.2967 4.167
57.3270 4.896
57.3573 3.646
57.3876 3.802
57.4178 4.583
57.4481 4.687
57.4784 3.490
57.5087 3.177
57.5390 3.490
57.5692 3.490
57.5995 3.646
57.6298 3.177
57.6601 3.437
57.6904 3.646
57.7206 3.229
57.7509 2.969
57.7812 3.646
57.8115 3.385
57.8417 3.177
57.8720 3.073
57.9023 4.115
57.9326 2.604
57.9629 2.708
57.9931 3.385
58.0234 2.448
58.0537 3.490
58.0840 2.865
58.1143 3.385
58.1445 2.240
58.1748 3.125
58.2051 2.135
58.2354 2.344
58.2656 3.073
58.2959 2.969
58.3262 2.708
58.3565 2.448
58.3868 2.344
58.4170 2.865
58.4473 2.604
58.4776 2.292
58.5079 2.552
58.5382 3.437
58.5684 2.969
58.5987 3.125
58.6290 2.344
58.6593 2.865
58.6896 2.500
58.7198 2.187
58.7501 2.604
58.7804 2.500
58.8107 2.500
58.8409 2.292
58.8712 2.656
58.9015 2.187
58.9318 2.083
58.9621 1.979
58.9923 2.656
59.0226 2.812
59.0529 2.031
59.0832 2.344
59.1135 2.292
59.1437 2.448
59.1740 1.927
59.2043 1.979
59.2346 2.760
59.2648 2.656
59.2951 2.292
59.3254 2.760
59.3557 3.021
59.3860 2.760
59.4162 2.708
59.4465 2.604
59.4768 1.927
59.5071 2.240
59.5374 2.396
59.5676 2.865
59.5979 2.135
59.6282 2.135
59.6585 2.344
59.6887 2.344
59.7190 2.187
59.7493 2.135
59.7796 2.656
59.8099 1.875
59.8401 1.823
59.8704 2.708
59.9007 2.448
59.9310 2.708
59.9613 2.500
59.9915 2.812
60.0218 2.656
60.0521 2.552
60.0824 2.552
60.1126 2.865
60.1429 2.604
60.1732 2.760
60.2035 2.135
60.2338 1.667
60.2640 2.708
60.2943 2.552
60.3246 2.708
60.3549 2.292
60.3852 3.125
60.4154 1.875
60.4457 2.448
60.4760 2.396
60.5063 3.021
60.5365 2.500
60.5668 2.865
60.5971 1.875
60.6274 2.812
60.6577 2.865
60.6879 2.552
60.7182 3.281
60.7485 2.083
60.7788 3.021
60.8091 2.917
60.8393 2.604
60.8696 2.865
60.8999 2.708
60.9302 2.812
60.9604 2.656
60.9907 2.760
61.0210 2.552
61.0513 2.865
61.0816 2.656
61.1118 2.969
61.1421 3.021
61.1724 2.917
61.2027 2.865
61.2330 3.073
61.2632 2.344
61.2935 2.917
61.3238 2.865
61.3541 2.292
61.3844 2.396
61.4146 2.865
61.4449 2.500
61.4752 3.750
61.5055 2.448
61.5357 3.437
61.5660 3.177
61.5963 2.865
61.6266 3.490
61.6569 3.385
61.6871 3.229
61.7174 3.125
61.7477 3.333
61.7780 4.115
61.8083 3.125
61.8385 4.062
61.8688 3.802
61.8991 4.115
61.9294 3.906
61.9596 3.698
61.9899 4.323
62.0202 4.583
62.0505 4.167
62.0808 5.208
62.1110 6.042
62.1413 5.312
62.1716 4.792
62.2019 4.687
62.2322 5.990
62.2624 6.979
62.2927 6.979
62.3230 7.969
62.3533 7.760
62.3835 9.479
62.4138 8.802
62.4441 9.010
62.4744 9.948
62.5047 11.250
62.5349 10.781
62.5652 12.917
62.5955 16.302
62.6258 15.417
62.6561 16.198
62.6863 16.302
62.7166 18.646
62.7469 17.031
62.7772 18.646
62.8074 19.062
62.8377 16.875
62.8680 17.396
62.8983 18.281
62.9286 14.531
62.9588 16.146
62.9891 12.396
63.0194 12.500
63.0497 12.344
63.0800 10.625
63.1102 10.729
63.1405 8.698
63.1708 9.062
63.2011 8.229
63.2313 7.760
63.2616 7.187
63.2919 7.031
63.3222 5.573
63.3525 5.625
63.3827 5.052
63.4130 5.365
63.4433 5.677
63.4736 4.167
63.5039 4.583
63.5341 4.479
63.5644 4.792
63.5947 3.646
63.6250 3.437
63.6552 4.219
63.6855 3.958
63.7158 4.219
63.7461 4.323
63.7764 2.969
63.8066 3.437
63.8369 3.646
63.8672 2.656
63.8975 2.708
63.9278 3.177
63.9580 2.604
63.9883 4.167
64.0186 3.333
64.0489 2.604
64.0791 2.812
64.1094 3.385
64.1397 3.854
64.1700 2.917
64.2003 4.010
64.2305 2.292
64.2608 2.865
64.2911 2.760
64.3214 2.760
64.3517 2.344
64.3819 3.333
64.4122 3.021
64.4425 3.021
64.4728 2.708
64.5031 2.552
64.5333 2.500
64.5636 3.229
64.5939 2.344
64.6242 2.500
64.6544 3.021
64.6847 2.448
64.7150 2.865
64.7453 2.500
64.7756 2.187
64.8058 2.969
64.8361 3.333
64.8664 2.865
64.8967 2.604
64.9270 2.500
64.9572 2.604
64.9875 3.490
65.0178 2.917
65.0481 3.125
65.0783 2.448
65.1086 2.760
65.1389 3.281
65.1692 3.021
65.1995 1.927
65.2297 3.177
65.2600 2.396
65.2903 3.490
65.3206 2.969
65.3509 3.021
65.3811 3.594
65.4114 3.490
65.4417 3.177
65.4720 3.021
65.5022 2.812
65.5325 2.604
65.5628 2.500
65.5931 3.750
65.6234 2.969
65.6536 2.969
65.6839 4.115
65.7142 3.542
65.7445 2.396
65.7748 3.698
65.8050 3.906
65.8353 3.542
65.8656 4.219
65.8959 3.594
65.9261 3.698
65.9564 4.323
65.9867 3.229
66.0170 5.365
66.0473 3.958
66.0775 4.792
66.1078 4.583
66.1381 4.583
66.1684 4.219
66.1987 4.896
66.2289 4.323
66.2592 4.896
66.2895 3.750
66.3198 4.219
66.3500 4.687
66.3803 4.687
66.4106 4.010
66.4409 4.792
66.4712 4.844
66.5014 3.594
66.5317 4.167
66.5620 3.646
66.5923 4.896
66.6226 4.219
66.6528 4.375
66.6831 3.958
66.7134 4.010
66.7437 4.271
66.7739 4.479
66.8042 4.219
66.8345 4.010
66.8648 4.479
66.8951 4.583
66.9253 4.115
66.9556 3.906
66.9859 4.062
67.0162 4.375
67.0465 5.417
67.0767 3.542
67.1070 5.052
67.1373 5.000
67.1676 5.052
67.1978 5.104
67.2281 6.042
67.2584 5.885
67.2887 6.302
67.3190 5.729
67.3492 6.510
67.3795 5.937
67.4098 6.823
67.4401 7.812
67.4704 7.135
67.5006 8.021
67.5309 8.594
67.5612 8.854
67.5915 9.219
67.6218 11.615
67.6520 10.469
67.6823 11.771
67.7126 13.646
67.7429 13.646
67.7731 12.083
67.8034 15.677
67.8337 13.594
67.8640 14.479
67.8943 14.896
67.9245 14.167
67.9548 14.583
67.9851 12.865
68.0154 12.552
68.0457 11.875
68.0759 11.250
68.1062 9.792
68.1365 12.135
68.1668 9.115
68.1970 11.198
68.2273 8.854
68.2576 7.812
68.2879 7.656
68.3182 6.510
68.3484 6.875
68.3787 7.031
68.4090 6.510
68.4393 6.458
68.4696 6.615
68.4998 7.135
68.5301 7.135
68.5604 7.135
68.5907 6.875
68.6209 6.927
68.6512 6.719
68.6815 6.823
68.7118 6.458
68.7421 6.510
68.7723 7.865
68.8026 8.229
68.8329 8.125
68.8632 8.281
68.8935 6.927
68.9237 8.854
68.9540 6.979
68.9843 6.875
69.0146 8.542
69.0448 7.031
69.0751 6.771
69.1054 8.698
69.1357 7.031
69.1660 7.812
69.1962 7.292
69.2265 6.250
69.2568 6.406
69.2871 5.469
69.3174 5.521
69.3476 4.583
69.3779 4.844
69.4082 5.104
69.4385 5.104
69.4687 4.271
69.4990 4.479
69.5293 4.583
69.5596 3.542
69.5899 3.281
69.6201 3.750
69.6504 2.552
69.6807 2.812
69.7110 3.542
69.7413 3.646
69.7715 3.281
69.8018 2.812
69.8321 3.177
69.8624 1.979
69.8926 3.021
69.9229 2.812
69.9532 3.073
69.9835 2.865
70.0138 2.448
70.0440 2.969
70.0743 3.125
70.1046 2.552
70.1349 1.823
70.1652 2.031
70.1954 2.604
70.2257 2.448
70.2560 2.240
70.2863 2.604
70.3166 2.865
70.3468 2.812
70.3771 2.448
70.4074 2.187
70.4377 2.812
70.4679 3.333
70.4982 2.292
70.5285 2.656
70.5588 2.344
70.5891 2.656
70.6193 2.344
70.6496 2.812
70.6799 2.396
70.7102 1.823
70.7405 1.927
70.7707 2.031
70.8010 2.135
70.8313 2.083
70.8616 2.344
70.8918 2.448
70.9221 2.240
70.9524 2.083
70.9827 1.875
71.0130 1.927
71.0432 2.448
71.0735 1.771
71.1038 2.083
71.1341 1.875
71.1644 2.031
71.1946 2.083
71.2249 2.135
71.2552 2.031
71.2855 1.979
71.3157 1.562
71.3460 1.719
71.3763 1.771
71.4066 1.771
71.4369 2.187
71.4671 2.240
71.4974 1.719
71.5277 1.823
71.5580 1.562
71.5883 1.875
71.6185 1.458
71.6488 1.875
71.6791 2.448
71.7094 1.979
71.7396 1.979
71.7699 1.823
71.8002 2.083
71.8305 1.875
71.8608 1.979
71.8910 1.875
71.9213 1.823
71.9516 1.979
71.9819 2.760
72.0122 2.031
72.0424 2.031
72.0727 2.187
72.1030 2.083
72.1333 2.240
72.1635 2.500
72.1938 2.812
72.2241 2.135
72.2544 2.292
72.2847 2.656
72.3149 2.448
72.3452 2.240
72.3755 2.812
72.4058 2.969
72.4361 2.812
72.4663 3.281
72.4966 3.073
72.5269 2.760
72.5572 2.708
72.5874 2.865
72.6177 2.656
72.6480 2.656
72.6783 2.552
72.7086 2.500
72.7388 2.708
72.7691 3.021
72.7994 2.187
72.8297 1.667
72.8600 2.240
72.8902 1.875
72.9205 2.083
72.9508 1.719
72.9811 2.031
73.0113 1.615
73.0416 1.927
73.0719 2.292
73.1022 2.344
73.1325 2.135
73.1627 2.187
73.1930 2.240
73.2233 2.344
73.2536 1.927
73.2839 1.823
73.3141 2.135
73.3444 1.823
73.3747 2.240
73.4050 1.615
73.4353 1.667
73.4655 1.354
73.4958 2.344
73.5261 1.510
73.5564 2.031
73.5866 1.510
73.6169 1.719
73.6472 1.198
73.6775 1.719
73.7078 2.135
73.7380 1.354
73.7683 1.510
73.7986 1.823
73.8289 1.250
73.8592 2.292
73.8894 1.667
73.9197 1.562
73.9500 2.135
73.9803 1.042
74.0105 1.458
74.0408 2.187
74.0711 1.510
74.1014 1.615
74.1317 1.719
74.1619 1.354
74.1922 1.354
74.2225 1.354
74.2528 1.510
74.2831 1.354
74.3133 1.719
74.3436 1.823
74.3739 1.615
74.4042 2.031
74.4344 1.719
74.4647 1.667
74.4950 1.250
74.5253 2.344
74.5556 1.771
74.5858 1.719
74.6161 1.458
74.6464 1.823
74.6767 2.187
74.7070 1.458
74.7372 1.927
74.7675 1.667
74.7978 1.354
74.8281 1.562
74.8583 1.562
74.8886 1.667
74.9189 1.823
74.9492 1.458
74.9795 1.719
75.0097 1.198
75.0400 1.406
75.0703 1.667
75.1006 1.875
75.1309 1.198
75.1611 1.042
75.1914 1.615
75.2217 2.135
75.2520 1.719
75.2822 1.823
75.3125 1.458
75.3428 1.719
75.3731 1.823
75.4034 1.562
75.4336 2.135
75.4639 1.562
75.4942 1.719
75.5245 1.510
75.5548 1.562
75.5850 1.615
75.6153 1.875
75.6456 1.562
75.6759 1.719
75.7061 1.094
75.7364 1.198
75.7667 1.823
75.7970 2.135
75.8273 2.448
75.8575 1.250
75.8878 1.406
75.9181 1.406
75.9484 1.406
75.9787 2.031
76.0089 1.771
76.0392 1.771
76.0695 2.083
76.0998 1.667
76.1301 1.562
76.1603 1.146
76.1906 2.031
76.2209 1.927
76.2512 2.240
76.2814 1.667
76.3117 1.615
76.3420 2.031
76.3723 2.448
76.4026 2.708
76.4328 2.552
76.4631 2.812
76.4934 2.812
76.5237 3.281
76.5540 2.812
76.5842 2.656
76.6145 2.865
76.6448 2.812
76.6751 2.500
76.7053 2.344
76.7356 2.396
76.7659 2.656
76.7962 3.385
76.8265 2.396
76.8567 2.500
76.8870 2.656
76.9173 3.125
76.9476 2.865
76.9779 2.865
77.0081 3.125
77.0384 3.073
77.0687 2.865
77.0990 2.552
77.1292 2.656
77.1595 3.177
77.1898 2.344
77.2201 2.448
77.2504 2.656
77.2806 1.927
77.3109 2.135
77.3412 2.083
77.3715 2.552
77.4018 2.344
77.4320 1.719
77.4623 1.771
77.4926 1.667
77.5229 1.927
77.5531 2.292
77.5834 1.823
77.6137 2.135
77.6440 2.396
77.6743 1.198
77.7045 1.927
77.7348 1.979
77.7651 1.771
77.7954 1.875
77.8257 1.979
77.8559 1.771
77.8862 1.719
77.9165 1.146
77.9468 1.458
77.9770 1.302
78.0073 1.146
78.0376 1.042
78.0679 1.771
78.0982 1.562
78.1284 1.562
78.1587 2.292
78.1890 1.667
78.2193 1.615
78.2496 1.198
78.2798 1.302
78.3101 2.240
78.3404 1.562
78.3707 2.083
78.4009 2.083
78.4312 1.458
78.4615 1.771
78.4918 1.667
78.5221 1.250
78.5523 0.937
78.5826 1.406
78.6129 2.135
78.6432 1.719
78.6735 2.135
78.7037 1.927
78.7340 0.885
78.7643 1.198
78.7946 1.667
78.8248 1.615
78.8551 1.875
78.8854 1.510
78.9157 1.302
78.9460 1.667
78.9762 1.198
79.0065 1.198
79.0368 1.354
79.0671 1.615
79.0974 1.510
79.1276 2.083
79.1579 1.510
79.1882 1.667
79.2185 1.406
79.2488 1.615
79.2790 1.198
79.3093 1.667
79.3396 1.667
79.3699 1.198
79.4001 1.667
79.4304 1.719
79.4607 2.500
79.4910 1.510
79.5213 1.823
79.5515 1.562
79.5818 1.615
79.6121 1.562
79.6424 1.719
79.6727 1.250
79.7029 1.927
79.7332 1.458
79.7635 1.510
79.7938 1.771
79.8240 1.667
79.8543 1.927
79.8846 1.667
79.9149 1.146
79.9452 1.198
79.9754 1.615
80.0057 1.667
80.0360 1.406
80.0663 1.979
80.0966 1.667
80.1268 1.250
80.1571 2.240
80.1874 1.771
80.2177 1.406
80.2479 1.771
80.2782 2.031
80.3085 1.823
80.3388 1.562
80.3691 1.875
80.3993 1.354
80.4296 1.667
80.4599 1.354
80.4902 1.771
80.5205 1.458
80.5507 1.250
80.5810 1.667
80.6113 1.146
80.6416 1.458
80.6718 2.031
80.7021 1.875
80.7324 1.354
80.7627 1.406
80.7930 1.771
80.8232 2.135
80.8535 1.927
80.8838 1.719
80.9141 2.187
80.9444 2.135
80.9746 2.135
81.0049 2.083
81.0352 2.083
81.0655 1.979
81.0957 2.031
81.1260 2.500
81.1563 2.135
81.1866 1.979
81.2169 2.500
81.2471 2.656
81.2774 2.031
81.3077 2.187
81.3380 2.604
81.3683 2.812
81.3985 1.823
81.4288 2.344
81.4591 2.240
81.4894 1.771
81.5196 2.917
81.5499 1.719
81.5802 1.875
81.6105 2.187
81.6408 1.927
81.6710 2.240
81.7013 2.031
81.7316 2.448
81.7619 1.979
81.7922 1.719
81.8224 1.771
81.8527 1.198
81.8830 1.667
81.9133 1.510
81.9436 1.771
81.9738 2.135
82.0041 1.979
82.0344 1.667
82.0647 1.458
82.0949 1.771
82.1252 1.979
82.1555 1.615
82.1858 1.406
82.2161 1.562
82.2463 1.667
82.2766 1.667
82.3069 1.615
82.3372 1.927
82.3675 1.250
82.3977 1.667
82.4280 1.146
82.4583 1.354
82.4886 1.458
82.5188 1.875
82.5491 1.458
82.5794 1.094
82.6097 1.094
82.6400 2.448
82.6702 1.458
82.7005 1.510
82.7308 1.302
82.7611 1.667
82.7914 1.198
82.8216 1.771
82.8519 1.562
82.8822 1.406
82.9125 1.510
82.9427 1.406
82.9730 1.719
83.0033 1.198
83.0336 0.990
83.0639 1.302
83.0941 1.719
83.1244 1.302
83.1547 1.302
83.1850 2.135
83.2153 1.927
83.2455 2.292
83.2758 1.250
83.3061 1.823
83.3364 1.302
83.3666 1.562
83.3969 1.667
83.4272 1.510
83.4575 0.885
83.4878 1.771
83.5180 2.083
83.5483 1.198
83.5786 1.510
83.6089 1.354
83.6392 1.823
83.6694 1.094
83.6997 1.250
83.7300 1.823
83.7603 1.927
83.7905 1.250
83.8208 1.667
83.8511 1.354
83.8814 1.667
83.9117 1.719
83.9419 1.354
83.9722 1.771
84.0025 1.615
84.0328 1.667
84.0631 1.354
84.0933 1.667
84.1236 2.135
84.1539 1.927
84.1842 1.771
84.2144 1.823
84.2447 1.562
84.2750 1.667
84.3053 1.823
84.3356 1.823
84.3658 1.823
84.3961 1.667
84.4264 1.198
84.4567 1.615
84.4870 1.354
84.5172 1.615
84.5475 1.406
84.5778 2.344
84.6081 1.458
84.6383 1.198
84.6686 1.615
84.6989 1.979
84.7292 1.562
84.7595 1.042
84.7897 1.458
84.8200 1.458
84.8503 1.354
84.8806 1.615
84.9109 1.198
84.9411 1.510
84.9714 1.458
85.0017 1.198
85.0320 1.927
85.0623 1.302
85.0925 1.510
85.1228 1.302
85.1531 1.562
85.1834 0.781
85.2136 1.771
85.2439 1.354
85.2742 1.667
85.3045 1.354
85.3348 1.615
85.3650 1.250
85.3953 1.719
85.4256 2.031
85.4559 1.510
85.4862 1.302
85.5164 1.458
85.5467 1.094
85.5770 1.250
85.6073 2.135
85.6375 1.719
85.6678 2.135
85.6981 1.562
85.7284 1.198
85.7587 1.198
85.7889 1.667
85.8192 1.667
85.8495 1.406
85.8798 1.302
85.9101 1.875
85.9403 1.406
85.9706 1.667
86.0009 1.198
86.0312 1.562
86.0614 1.510
86.0917 1.250
86.1220 1.354
86.1523 1.562
86.1826 1.927
86.2128 1.667
86.2431 1.562
86.2734 1.771
86.3037 1.667
86.3340 1.406
86.3642 1.302
86.3945 1.250
86.4248 1.458
86.4551 1.667
86.4853 1.198
86.5156 2.135
86.5459 1.354
86.5762 1.302
86.6065 1.927
86.6367 1.458
86.6670 1.458
86.6973 1.667
86.7276 1.510
86.7579 1.719
86.7881 1.875
86.8184 1.771
86.8487 1.667
86.8790 1.198
86.9092 1.458
86.9395 1.719
86.9698 1.615
87.0001 1.667
87.0304 1.979
87.0606 1.198
87.0909 1.771
87.1212 1.615
87.1515 1.198
87.1818 1.198
87.2120 2.292
87.2423 1.667
87.2726 1.510
87.3029 1.771
87.3331 1.458
87.3634 1.458
87.3937 2.031
87.4240 1.667
87.4543 2.240
87.4845 1.198
87.5148 1.667
87.5451 2.083
87.5754 1.771
87.6057 1.927
87.6359 1.667
87.6662 2.187
87.6965 1.562
87.7268 1.042
87.7571 1.510
87.7873 1.875
87.8176 2.083
87.8479 1.510
87.8782 2.135
87.9084 1.823
87.9387 1.458
87.9690 1.458
87.9993 2.031
88.0296 2.396
88.0598 1.823
88.0901 1.979
88.1204 1.667
88.1507 1.927
88.1810 1.875
88.2112 1.719
88.2415 1.667
88.2718 1.667
88.3021 2.240
88.3323 1.979
88.3626 2.292
88.3929 1.927
88.4232 2.135
88.4535 1.719
88.4837 2.135
88.5140 1.562
88.5443 2.135
88.5746 1.927
88.6049 1.927
88.6351 1.823
88.6654 1.771
88.6957 2.240
88.7260 2.396
88.7562 2.344
88.7865 1.979
88.8168 2.500
88.8471 2.812
88.8774 1.927
88.9076 2.760
88.9379 2.187
88.9682 2.604
88.9985 2.812
89.0288 2.812
89.0590 2.552
89.0893 2.240
89.1196 3.490
89.1499 2.552
89.1801 3.073
89.2104 3.698
89.2407 3.385
89.2710 4.583
89.3013 3.385
89.3315 3.646
89.3618 3.437
89.3921 4.687
89.4224 3.177
89.4527 4.323
89.4829 4.427
89.5132 4.271
89.5435 4.427
89.5738 4.427
89.6040 3.490
89.6343 4.062
89.6646 3.698
89.6949 4.635
89.7252 3.906
89.7554 3.802
89.7857 4.323
89.8160 3.333
89.8463 4.323
89.8766 3.490
89.9068 2.969
89.9371 3.594
89.9674 3.490
89.9977 4.375
90.0279 2.552
90.0582 3.125
90.0885 3.125
90.1188 2.448
90.1491 2.396
90.1793 2.917
90.2096 2.396
90.2399 2.656
90.2702 2.604
90.3005 2.187
90.3307 2.448
90.3610 2.448
90.3913 2.240
90.4216 2.187
90.4518 2.760
90.4821 2.135
90.5124 2.500
90.5427 2.656
90.5730 2.448
90.6032 2.083
90.6335 1.667
90.6638 2.031
90.6941 2.135
90.7244 2.240
90.7546 1.562
90.7849 2.083
90.8152 1.823
90.8455 2.135
90.8758 1.875
90.9060 1.719
90.9363 1.719
90.9666 2.344
90.9969 1.354
91.0271 1.875
91.0574 1.667
91.0877 1.667
91.1180 2.083
91.1483 1.979
91.1785 1.615
91.2088 2.135
91.2391 1.875
91.2694 2.135
91.2997 1.823
91.3299 1.562
91.3602 2.031
91.3905 2.396
91.4208 2.240
91.4510 1.667
91.4813 1.458
91.5116 1.562
91.5419 1.667
91.5722 2.083
91.6024 1.615
91.6327 2.031
91.6630 2.187
91.6933 1.979
91.7236 1.979
91.7538 1.667
91.7841 1.719
91.8144 2.187
91.8447 2.187
91.8749 1.979
91.9052 2.083
91.9355 1.719
91.9658 1.302
91.9961 2.187
92.0263 1.927
92.0566 2.292
92.0869 1.927
92.1172 2.135
92.1475 2.812
92.1777 1.354
92.2080 2.031
92.2383 1.927
92.2686 2.031
92.2988 2.292
92.3291 2.031
92.3594 1.667
92.3897 2.135
92.4200 2.448
92.4502 2.240
92.4805 2.708
92.5108 2.187
92.5411 2.031
92.5714 2.604
92.6016 2.708
92.6319 2.604
92.6622 2.500
92.6925 2.812
92.7227 2.187
92.7530 2.812
92.7833 2.292
92.8136 2.812
92.8439 2.240
92.8741 2.604
92.9044 2.344
92.9347 2.708
92.9650 2.604
92.9953 2.187
93.0255 2.292
93.0558 2.031
93.0861 2.396
93.1164 2.187
93.1466 2.344
93.1769 1.615
93.2072 1.823
93.2375 2.552
93.2678 2.187
93.2980 2.187
93.3283 2.812
93.3586 1.406
93.3889 2.187
93.4192 1.562
93.4494 2.344
93.4797 1.927
93.5100 1.719
93.5403 2.344
93.5706 1.875
93.6008 1.719
93.6311 1.719
93.6614 1.667
93.6917 2.031
93.7219 1.927
93.7522 1.771
93.7825 1.823
93.8128 2.187
93.8431 2.135
93.8733 1.823
93.9036 1.406
93.9339 2.604
93.9642 2.031
93.9945 1.719
94.0247 2.031
94.0550 2.031
94.0853 1.458
94.1156 2.448
94.1458 1.615
94.1761 1.927
94.2064 1.719
94.2367 2.031
94.2670 2.240
94.2972 2.240
94.3275 2.240
94.3578 2.187
94.3881 1.771
94.4184 2.292
94.4486 2.448
94.4789 2.240
94.5092 2.708
94.5395 2.292
94.5697 2.396
94.6000 2.708
94.6303 2.500
94.6606 2.865
94.6909 2.344
94.7211 2.396
94.7514 2.760
94.7817 3.594
94.8120 2.500
94.8423 3.021
94.8725 3.073
94.9028 3.177
94.9331 3.958
94.9634 2.708
94.9936 4.115
95.0239 3.542
95.0542 3.229
95.0845 4.010
95.1148 3.698
95.1450 4.010
95.1753 4.010
95.2056 4.271
95.2359 3.958
95.2662 4.219
95.2964 4.948
95.3267 4.583
95.3570 3.958
95.3873 4.948
95.4175 3.281
95.4478 3.490
95.4781 3.854
95.5084 3.594
95.5387 3.750
95.5689 3.594
95.5992 3.542
95.6295 3.385
95.6598 3.333
95.6901 2.656
95.7203 2.812
95.7506 2.812
95.7809 2.917
95.8112 2.083
95.8414 3.333
95.8717 2.604
95.9020 3.177
95.9323 1.823
95.9626 2.240
95.9928 2.292
96.0231 2.500
96.0534 2.396
96.0837 2.135
96.1140 2.552
96.1442 1.719
96.1745 2.292
96.2048 2.448
96.2351 1.823
96.2653 1.302
96.2956 1.719
96.3259 2.083
96.3562 1.562
96.3865 1.615
96.4167 2.604
96.4470 1.615
96.4773 1.875
96.5076 2.083
96.5379 2.240
96.5681 1.719
96.5984 2.240
96.6287 1.927
96.6590 1.354
96.6893 1.979
96.7195 1.927
96.7498 2.083
96.7801 2.292
96.8104 1.927
96.8406 1.927
96.8709 2.083
96.9012 1.823
96.9315 1.771
96.9618 1.875
96.9920 2.031
97.0223 1.771
97.0526 1.667
97.0829 1.875
97.1132 1.719
97.1434 1.771
97.1737 2.292
97.2040 1.562
97.2343 1.042
97.2645 1.823
97.2948 2.135
97.3251 1.875
97.3554 2.292
97.3857 1.979
97.4159 2.135
97.4462 2.135
97.4765 1.771
97.5068 1.406
97.5371 2.083
97.5673 2.135
97.5976 2.292
97.6279 1.771
97.6582 1.615
97.6884 1.979
97.7187 1.927
97.7490 1.771
97.7793 1.927
97.8096 1.771
97.8398 2.292
97.8701 1.875
97.9004 2.083
97.9307 1.719
97.9610 2.292
97.9912 2.500
98.0215 2.344
98.0518 2.031
98.0821 2.135
98.1123 2.448
98.1426 2.187
98.1729 2.656
98.2032 2.187
98.2335 2.292
98.2637 3.437
98.2940 2.812
98.3243 2.760
98.3546 2.812
98.3849 2.865
98.4151 3.073
98.4454 2.917
98.4757 3.437
98.5060 2.969
98.5362 3.542
98.5665 3.177
98.5968 2.396
98.6271 2.604
98.6574 2.708
98.6876 2.708
98.7179 2.448
98.7482 2.135
98.7785 2.292
98.8088 3.229
98.8390 2.917
98.8693 2.292
98.8996 2.760
98.9299 2.812
98.9601 3.021
98.9904 2.396
99.0207 2.240
99.0510 1.823
99.0813 2.969
99.1115 1.875
99.1418 2.187
99.1721 2.708
99.2024 2.604
99.2327 1.927
99.2629 1.719
99.2932 2.604
99.3235 1.875
99.3538 2.083
99.3841 1.354
99.4143 2.187
99.4446 1.823
99.4749 1.615
99.5052 1.667
99.5354 1.927
99.5657 2.083
99.5960 1.927
99.6263 2.292
99.6566 1.927
99.6868 1.927
99.7171 1.927
99.7474 1.615
99.7777 1.562
99.8080 1.562
99.8382 1.667
99.8685 2.135
99.8988 1.250
99.9291 2.083
99.9593 1.771
99.9896 1.667
100.0199 1.771
100.0502 1.771
100.0805 2.240
100.1107 1.927
100.1410 1.667
100.1713 1.354
100.2016 1.823
100.2319 1.823
100.2621 2.031
100.2924 1.875
100.3227 2.031
100.3530 1.354
100.3832 1.771
100.4135 1.562
100.4438 1.615
100.4741 1.667
100.5044 1.719
100.5346 2.135
100.5649 1.719
100.5952 1.302
100.6255 1.927
100.6558 1.875
100.6860 1.719
100.7163 2.135
100.7466 2.240
100.7769 1.771
100.8071 1.406
100.8374 1.562
100.8677 1.615
100.8980 1.719
100.9283 2.292
100.9585 1.510
100.9888 1.823
101.0191 1.875
101.0494 1.146
101.0797 1.615
101.1099 2.135
101.1402 1.719
101.1705 1.875
101.2008 1.250
101.2310 2.031
101.2613 1.667
101.2916 1.458
101.3219 1.354
101.3522 1.510
101.3824 2.344
101.4127 1.615
101.4430 1.667
101.4733 1.771
101.5036 1.094
101.5338 1.562
101.5641 1.562
101.5944 2.083
101.6247 1.719
101.6549 1.771
101.6852 1.823
101.7155 1.823
101.7458 2.552
101.7761 1.562
101.8063 1.927
101.8366 1.510
101.8669 1.875
101.8972 1.927
101.9275 2.240
101.9577 1.875
101.9880 2.500
102.0183 2.135
102.0486 1.927
102.0788 2.396
102.1091 2.292
102.1394 2.240
102.1697 1.875
102.2000 2.240
102.2302 2.187
102.2605 1.823
102.2908 1.875
102.3211 2.240
102.3514 2.083
102.3816 2.187
102.4119 2.604
102.4422 2.083
102.4725 2.083
102.5028 2.292
102.5330 2.187
102.5633 2.552
102.5936 2.500
102.6239 2.604
102.6541 1.979
102.6844 2.552
102.7147 3.125
102.7450 2.708
102.7753 2.396
102.8055 2.708
102.8358 2.708
102.8661 2.656
102.8964 2.969
102.9267 3.021
102.9569 2.708
102.9872 2.656
103.0175 3.542
103.0478 2.135
103.0780 2.500
103.1083 3.125
103.1386 2.083
103.1689 2.344
103.1992 2.240
103.2294 2.812
103.2597 2.187
103.2900 3.021
103.3203 2.240
103.3506 3.021
103.3808 2.760
103.4111 2.917
103.4414 3.333
103.4717 2.760
103.5019 2.396
103.5322 2.917
103.5625 2.917
103.5928 2.500
103.6231 2.604
103.6533 3.021
103.6836 2.031
103.7139 3.542
103.7442 3.854
103.7745 3.333
103.8047 3.594
103.8350 3.177
103.8653 3.802
103.8956 2.969
103.9258 3.125
103.9561 2.865
103.9864 4.167
104.0167 3.750
104.0470 3.594
104.0772 3.594
104.1075 3.281
104.1378 3.854
104.1681 3.854
104.1984 3.073
104.2286 3.594
104.2589 3.958
104.2892 3.854
104.3195 3.542
104.3497 3.646
104.3800 3.542
104.4103 3.125
104.4406 2.604
104.4709 2.969
104.5011 3.229
104.5314 3.698
104.5617 2.656
104.5920 2.448
104.6223 2.552
104.6525 2.500
104.6828 2.500
104.7131 3.177
104.7434 2.240
104.7736 2.552
104.8039 2.812
104.8342 2.135
104.8645 1.979
104.8948 2.708
104.9250 2.083
104.9553 1.719
104.9856 2.552
105.0159 2.031
105.0462 1.771
105.0764 2.240
105.1067 2.344
105.1370 2.292
105.1673 1.927
105.1975 1.979
105.2278 1.615
105.2581 1.979
105.2884 1.615
105.3187 1.562
105.3489 1.146
105.3792 1.875
105.4095 1.458
105.4398 1.667
105.4701 2.292
105.5003 2.396
105.5306 2.135
105.5609 2.292
105.5912 1.979
105.6215 1.927
105.6517 1.875
105.6820 2.344
105.7123 1.927
105.7426 1.094
105.7728 1.927
105.8031 2.031
105.8334 1.302
105.8637 2.135
105.8940 1.823
105.9242 2.240
105.9545 1.719
105.9848 1.458
106.0151 2.031
106.0454 1.667
106.0756 1.667
106.1059 2.292
106.1362 1.823
106.1665 1.562
106.1967 2.344
106.2270 1.510
106.2573 1.615
106.2876 0.990
106.3179 1.771
106.3481 2.031
106.3784 1.979
106.4087 1.458
106.4390 2.240
106.4693 1.458
106.4995 1.302
106.5298 1.458
106.5601 2.083
106.5904 2.031
106.6206 1.771
106.6509 1.771
106.6812 1.562
106.7115 2.448
106.7418 1.615
106.7720 1.979
106.8023 1.719
106.8326 2.240
106.8629 1.719
106.8932 1.771
106.9234 1.615
106.9537 1.719
106.9840 1.875
107.0143 1.615
107.0445 1.406
107.0748 1.510
107.1051 1.719
107.1354 1.719
107.1657 1.771
107.1959 1.458
107.2262 2.083
107.2565 1.823
107.2868 1.458
107.3171 1.615
107.3473 2.240
107.3776 1.667
107.4079 2.135
107.4382 1.719
107.4684 2.135
107.4987 1.667
107.5290 1.510
107.5593 1.562
107.5896 1.823
107.6198 1.615
107.6501 2.083
107.6804 1.927
107.7107 1.927
107.7410 2.083
107.7712 2.083
107.8015 2.083
107.8318 1.667
107.8621 1.615
107.8923 1.771
107.9226 2.500
107.9529 1.615
107.9832 2.031
108.0135 1.823
108.0437 1.875
108.0740 1.667
108.1043 1.615
108.1346 1.667
108.1649 1.823
108.1951 1.771
108.2254 1.823
108.2557 1.302
108.2860 2.187
108.3163 1.406
108.3465 1.510
108.3768 1.927
108.4071 2.031
108.4374 1.510
108.4676 1.875
108.4979 1.823
108.5282 2.135
108.5585 1.354
108.5888 1.458
108.6190 2.135
108.6493 2.187
108.6796 1.823
108.7099 1.719
108.7402 1.615
108.7704 2.500
108.8007 1.875
108.8310 1.771
108.8613 1.771
108.8915 2.135
108.9218 1.354
108.9521 2.083
108.9824 1.719
109.0127 1.719
109.0429 1.510
109.0732 1.979
109.1035 1.667
109.1338 1.927
109.1641 2.083
109.1943 1.615
109.2246 1.146
109.2549 1.927
109.2852 2.187
109.3154 2.187
109.3457 1.927
109.3760 2.396
109.4063 1.719
109.4366 1.146
109.4668 2.187
109.4971 1.615
109.5274 2.083
109.5577 1.927
109.5880 2.187
109.6182 2.865
109.6485 1.979
109.6788 1.510
109.7091 1.979
109.7393 1.927
109.7696 2.083
109.7999 2.240
109.8302 2.344
109.8605 2.083
109.8907 2.031
109.9210 1.979
109.9513 1.719
109.9816 2.917
110.0119 2.448
110.0421 2.656
110.0724 1.823
110.1027 2.083
110.1330 2.083
110.1632 2.448
110.1935 2.552
110.2238 2.865
110.2541 2.292
110.2844 2.187
110.3146 1.979
110.3449 2.240
110.3752 1.823
110.4055 2.396
110.4358 1.979
110.4660 2.552
110.4963 2.969
110.5266 2.396
110.5569 2.240
110.5871 2.604
110.6174 2.708
110.6477 2.708
110.6780 1.667
110.7083 2.083
110.7385 2.396
110.7688 3.281
110.7991 2.552
110.8294 1.927
110.8597 2.708
110.8899 2.344
110.9202 2.083
110.9505 2.292
110.9808 1.719
111.0110 2.292
111.0413 2.396
111.0716 1.667
111.1019 1.875
111.1322 2.083
111.1624 2.292
111.1927 2.031
111.2230 2.083
111.2533 1.875
111.2836 1.302
111.3138 1.406
111.3441 1.771
111.3744 1.615
111.4047 1.719
111.4350 1.354
111.4652 2.135
111.4955 1.302
111.5258 1.667
111.5561 1.667
111.5863 1.927
111.6166 2.396
111.6469 1.667
111.6772 1.510
111.7075 2.135
111.7377 1.667
111.7680 1.354
111.7983 1.510
111.8286 1.510
111.8589 1.771
111.8891 1.562
111.9194 1.302
111.9497 1.667
111.9800 1.354
112.0102 1.823
112.0405 1.562
112.0708 1.875
112.1011 1.823
112.1314 1.458
112.1616 1.302
112.1919 1.875
112.2222 1.562
112.2525 1.667
112.2828 2.344
112.3130 1.510
112.3433 2.083
112.3736 1.615
112.4039 2.187
112.4341 1.667
112.4644 1.771
112.4947 1.094
112.5250 2.187
112.5553 1.771
112.5855 1.510
112.6158 2.083
112.6461 1.562
112.6764 1.406
112.7067 1.458
112.7369 1.250
112.7672 1.771
112.7975 1.615
112.8278 2.083
112.8580 1.719
112.8883 1.719
112.9186 2.031
112.9489 1.302
112.9792 1.458
113.0094 1.615
113.0397 1.510
113.0700 1.510
113.1003 1.615
113.1306 1.250
113.1608 1.250
113.1911 1.875
113.2214 1.719
113.2517 1.354
113.2819 2.031
113.3122 1.146
113.3425 1.823
113.3728 2.031
113.4031 1.615
113.4333 1.719
113.4636 1.042
113.4939 1.771
113.5242 1.354
113.5545 1.615
113.5847 1.979
113.6150 1.771
113.6453 1.615
113.6756 1.979
113.7058 1.198
113.7361 1.354
113.7664 1.510
113.7967 1.771
113.8270 1.198
113.8572 1.979
113.8875 1.354
113.9178 2.031
113.9481 1.771
113.9784 1.823
114.0086 2.292
114.0389 1.875
114.0692 1.615
114.0995 1.771
114.1298 1.406
114.1600 1.771
114.1903 1.771
114.2206 2.135
114.2509 2.240
114.2811 2.344
114.3114 1.875
114.3417 1.875
114.3720 1.823
114.4023 1.771
114.4325 1.406
114.4628 1.823
114.4931 1.771
114.5234 1.406
114.5537 1.354
114.5839 2.448
114.6142 1.823
114.6445 1.875
114.6748 1.927
114.7050 1.875
114.7353 1.875
114.7656 2.292
114.7959 2.240
114.8262 1.927
114.8564 2.292
114.8867 1.771
114.9170 2.187
114.9473 1.719
114.9776 2.344
115.0078 2.187
115.0381 1.510
115.0684 1.771
115.0987 1.771
115.1289 2.552
115.1592 2.292
115.1895 2.292
115.2198 2.135
115.2501 2.031
115.2803 2.135
115.3106 1.823
115.3409 2.292
115.3712 2.552
115.4015 2.604
115.4317 2.500
115.4620 2.500
115.4923 2.448
115.5226 2.396
115.5528 2.656
115.5831 1.979
115.6134 3.021
115.6437 2.708
115.6740 2.396
115.7042 3.021
115.7345 2.656
115.7648 3.281
115.7951 3.385
115.8254 2.604
115.8556 3.021
115.8859 3.437
115.9162 3.125
115.9465 3.281
115.9767 3.698
116.0070 3.437
116.0373 3.646
116.0676 3.750
116.0979 3.906
116.1281 3.437
116.1584 3.333
116.1887 3.646
116.2190 3.385
116.2493 3.854
116.2795 3.958
116.3098 4.062
116.3401 4.271
116.3704 3.177
116.4006 2.812
116.4309 4.010
116.4612 3.490
116.4915 2.917
116.5218 4.062
116.5520 2.760
116.5823 3.594
116.6126 3.490
116.6429 3.802
116.6732 3.542
116.7034 2.969
116.7337 3.437
116.7640 3.021
116.7943 2.760
116.8245 2.812
116.8548 2.760
116.8851 2.708
116.9154 3.021
116.9457 2.396
116.9759 2.865
117.0062 2.396
117.0365 2.292
117.0668 2.656
117.0971 3.021
117.1273 2.969
117.1576 2.604
117.1879 2.865
117.2182 2.083
117.2485 2.812
117.2787 2.031
117.3090 2.187
117.3393 2.344
117.3696 2.500
117.3998 1.927
117.4301 2.031
117.4604 2.344
117.4907 1.875
117.5210 1.823
117.5512 2.031
117.5815 1.719
117.6118 1.875
117.6421 1.927
117.6724 1.771
117.7026 1.510
117.7329 1.615
117.7632 1.875
117.7935 1.823
117.8237 1.719
117.8540 1.302
117.8843 2.135
117.9146 1.979
117.9449 1.719
117.9751 2.031
118.0054 1.615
118.0357 2.083
118.0660 1.458
118.0963 1.979
118.1265 1.667
118.1568 1.979
118.1871 1.406
118.2174 1.615
118.2476 1.615
118.2779 2.240
118.3082 1.771
118.3385 1.562
118.3688 2.031
118.3990 1.875
118.4293 1.667
118.4596 2.500
118.4899 1.979
118.5202 1.823
118.5504 1.927
118.5807 2.448
118.6110 2.031
118.6413 1.302
118.6715 2.500
118.7018 2.031
118.7321 1.823
118.7624 1.458
118.7927 2.135
118.8229 1.250
118.8532 2.031
118.8835 1.615
118.9138 1.719
118.9441 2.135
118.9743 1.875
119.0046 1.458
119.0349 1.354
119.0652 1.771
119.0954 2.083
119.1257 1.458
119.1560 2.083
119.1863 1.250
119.2166 1.562
119.2468 1.771
119.2771 1.979
119.3074 1.562
119.3377 1.875
119.3680 1.406
119.3982 1.250
119.4285 1.927
119.4588 1.458
119.4891 2.083
119.5193 1.667
119.5496 1.562
119.5799 1.719
119.6102 2.448
119.6405 1.823
119.6707 1.406
119.7010 1.979
119.7313 1.979
119.7616 1.667
119.7919 1.667
119.8221 2.240
119.8524 2.083
119.8827 1.927
119.9130 1.615
119.9433 1.510
119.9735 2.083
120.0038 1.823
