'Id: "" Comment: "" Operator: "Lab Manager" Anode: "Cu" Scantype: "Locked Coupled" TimePerStep: "19.2" X: "9999" Y: "9999" Z: "9999" 
10.0015 4.115
10.0318 4.531
10.0620 3.958
10.0923 3.958
10.1226 3.490
10.1529 3.646
10.1832 3.125
10.2134 2.812
10.2437 3.854
10.2740 3.542
10.3043 3.594
10.3346 3.750
10.3648 3.854
10.3951 3.698
10.4254 3.646
10.4557 3.854
10.4859 3.281
10.5162 3.542
10.5465 2.344
10.5768 3.125
10.6071 4.062
10.6373 3.490
10.6676 4.896
10.6979 3.385
10.7282 3.229
10.7585 3.437
10.7887 4.167
10.8190 4.323
10.8493 3.177
10.8796 3.229
10.9098 3.490
10.9401 4.271
10.9704 2.604
11.0007 3.542
11.0310 3.073
11.0612 3.750
11.0915 3.281
11.1218 3.542
11.1521 3.177
11.1824 2.969
11.2126 3.542
11.2429 3.594
11.2732 3.229
11.3035 3.437
11.3337 3.854
11.3640 4.062
11.3943 3.854
11.4246 3.125
11.4549 2.969
11.4851 4.115
11.5154 3.021
11.5457 2.969
11.5760 3.750
11.6063 3.333
11.6365 3.385
11.6668 2.187
11.6971 3.125
11.7274 3.333
11.7577 3.229
11.7879 3.073
11.8182 3.490
11.8485 3.698
11.8788 3.021
11.9090 3.594
11.9393 3.333
11.9696 2.396
11.9999 3.125
12.0302 3.698
12.0604 3.750
12.0907 2.031
12.1210 3.281
12.1513 3.021
12.1816 3.646
12.2118 3.385
12.2421 3.437
12.2724 3.906
12.3027 2.656
12.3329 3.646
12.3632 2.448
12.3935 3.229
12.4238 3.333
12.4541 3.698
12.4843 2.812
12.5146 2.917
12.5449 3.333
12.5752 3.333
12.6055 3.229
12.6357 3.542
12.6660 3.281
12.6963 3.490
12.7266 3.542
12.7568 3.021
12.7871 2.969
12.8174 3.333
12.8477 3.281
12.8780 3.333
12.9082 3.281
12.9385 3.594
12.9688 2.344
12.9991 2.917
13.0294 3.021
13.0596 2.708
13.0899 2.917
13.1202 3.646
13.1505 3.125
13.1807 3.229
13.2110 3.177
13.2413 2.656
13.2716 2.917
13.3019 2.812
13.3321 2.292
13.3624 2.865
13.3927 2.760
13.4230 2.812
13.4533 3.073
13.4835 2.865
13.5138 3.385
13.5441 3.281
13.5744 2.969
13.6046 2.812
13.6349 4.010
13.6652 2.865
13.6955 3.385
13.7258 2.344
13.7560 2.760
13.7863 3.854
13.8166 3.281
13.8469 2.917
13.8772 2.865
13.9074 3.021
13.9377 2.396
13.9680 3.490
13.9983 2.708
14.0285 2.500
14.0588 2.448
14.0891 3.437
14.1194 2.448
14.1497 3.073
14.1799 3.802
14.2102 3.229
14.2405 2.865
14.2708 2.812
14.3011 3.333
14.3313 2.812
14.3616 3.490
14.3919 2.760
14.4222 3.333
14.4524 2.865
14.4827 3.125
14.5130 2.240
14.5433 2.917
14.5736 2.031
14.6038 2.865
14.6341 2.917
14.6644 2.448
14.6947 2.760
14.7250 2.656
14.7552 2.969
14.7855 2.500
14.8158 3.125
14.8461 1.979
14.8764 2.604
14.9066 3.021
14.9369 1.875
14.9672 2.396
14.9975 3.229
15.0277 1.927
15.0580 2.917
15.0883 2.865
15.1186 2.031
15.1489 3.437
15.1791 2.083
15.2094 2.604
15.2397 2.604
15.2700 2.552
15.3003 2.552
15.3305 3.281
15.3608 2.760
15.3911 2.135
15.4214 2.656
15.4516 3.281
15.4819 3.542
15.5122 2.448
15.5425 2.448
15.5728 1.823
15.6030 2.760
15.6333 2.344
15.6636 3.021
15.6939 2.083
15.7242 2.187
15.7544 3.177
15.7847 2.552
15.8150 3.281
15.8453 2.292
15.8755 3.125
15.9058 3.437
15.9361 2.292
15.9664 2.812
15.9967 2.760
16.0269 2.865
16.0572 2.969
16.0875 2.708
16.1178 2.865
16.1481 2.552
16.1783 2.396
16.2086 3.177
16.2389 2.448
16.2692 2.187
16.2994 1.979
16.3297 3.281
16.3600 3.229
16.3903 3.073
16.4206 2.500
16.4508 2.292
16.4811 2.240
16.5114 2.552
16.5417 2.656
16.5720 2.760
16.6022 2.031
16.6325 2.656
16.6628 1.615
16.6931 3.125
16.7233 2.552
16.7536 2.344
16.7839 2.083
16.8142 3.177
16.8445 2.292
16.8747 3.177
16.9050 2.708
16.9353 3.073
16.9656 2.917
16.9959 2.187
17.0261 2.760
17.0564 2.396
17.0867 2.396
17.1170 2.240
17.1472 3.802
17.1775 2.396
17.2078 2.292
17.2381 2.292
17.2684 2.812
17.2986 2.240
17.3289 2.917
17.3592 2.552
17.3895 3.021
17.4198 2.552
17.4500 3.073
17.4803 2.656
17.5106 2.656
17.5409 2.240
17.5712 2.656
17.6014 2.760
17.6317 2.135
17.6620 2.656
17.6923 2.292
17.7225 2.344
17.7528 2.396
17.7831 2.135
17.8134 2.031
17.8437 2.656
17.8739 1.979
17.9042 3.177
17.9345 2.344
17.9648 2.865
17.9951 2.500
18.0253 3.021
18.0556 2.396
18.0859 3.021
18.1162 2.865
18.1464 2.552
18.1767 2.187
18.2070 2.604
18.2373 2.760
18.2676 2.083
18.2978 2.760
18.3281 2.969
18.3584 2.031
18.3887 3.125
18.4190 3.177
18.4492 2.917
18.4795 2.917
18.5098 2.865
18.5401 2.865
18.5703 2.708
18.6006 2.135
18.6309 2.240
18.6612 2.812
18.6915 2.604
18.7217 3.073
18.7520 2.292
18.7823 3.333
18.8126 2.344
18.8429 3.229
18.8731 2.292
18.9034 2.604
18.9337 1.927
18.9640 2.760
18.9942 2.760
19.0245 2.083
19.0548 3.021
19.0851 1.979
19.1154 3.177
19.1456 2.604
19.1759 1.667
19.2062 1.979
19.2365 2.187
19.2668 1.667
19.2970 1.979
19.3273 2.552
19.3576 2.865
19.3879 2.187
19.4181 2.396
19.4484 2.604
19.4787 2.760
19.5090 2.187
19.5393 3.229
19.5695 2.344
19.5998 1.771
19.6301 2.500
19.6604 2.031
19.6907 2.812
19.7209 2.396
19.7512 2.760
19.7815 2.500
19.8118 2.396
19.8420 2.656
19.8723 2.135
19.9026 2.917
19.9329 2.812
19.9632 2.448
19.9934 2.396
20.0237 3.021
20.0540 1.510
20.0843 2.917
20.1146 2.552
20.1448 2.344
20.1751 1.927
20.2054 2.187
20.2357 2.083
20.2659 2.187
20.2962 2.292
20.3265 2.135
20.3568 2.031
20.3871 1.823
20.4173 2.604
20.4476 2.135
20.4779 3.021
20.5082 2.031
20.5385 2.760
20.5687 2.969
20.5990 2.552
20.6293 1.875
20.6596 2.552
20.6899 2.396
20.7201 2.448
20.7504 2.656
20.7807 2.083
20.8110 2.917
20.8412 2.031
20.8715 2.187
20.9018 2.135
20.9321 1.979
20.9624 2.865
20.9926 2.604
21.0229 2.760
21.0532 1.615
21.0835 2.500
21.1138 1.771
21.1440 2.917
21.1743 2.240
21.2046 2.083
21.2349 2.031
21.2651 2.656
21.2954 2.552
21.3257 2.396
21.3560 2.240
21.3863 2.396
21.4165 1.927
21.4468 2.187
21.4771 2.604
21.5074 2.500
21.5377 1.927
21.5679 1.927
21.5982 2.187
21.6285 2.344
21.6588 2.656
21.6890 1.875
21.7193 2.344
21.7496 2.396
21.7799 2.292
21.8102 1.979
21.8404 2.396
21.8707 2.396
21.9010 1.823
21.9313 1.823
21.9616 1.719
21.9918 2.135
22.0221 1.979
22.0524 2.448
22.0827 2.083
22.1129 2.135
22.1432 2.292
22.1735 2.552
22.2038 2.292
22.2341 2.083
22.2643 1.979
22.2946 2.031
22.3249 2.135
22.3552 2.604
22.3855 2.292
22.4157 1.615
22.4460 1.354
22.4763 2.083
22.5066 2.187
22.5368 2.031
22.5671 1.823
22.5974 1.875
22.6277 2.500
22.6580 2.552
22.6882 2.031
22.7185 2.031
22.7488 2.500
22.7791 2.812
22.8094 2.552
22.8396 2.344
22.8699 1.823
22.9002 2.448
22.9305 1.979
22.9607 2.812
22.9910 2.604
23.0213 2.240
23.0516 2.031
23.0819 1.615
23.1121 2.552
23.1424 1.094
23.1727 1.771
23.2030 2.187
23.2333 2.344
23.2635 2.396
23.2938 2.031
23.3241 2.083
23.3544 2.448
23.3846 2.396
23.4149 2.187
23.4452 2.135
23.4755 2.292
23.5058 1.771
23.5360 2.448
23.5663 2.552
23.5966 2.292
23.6269 2.396
23.6572 2.083
23.6874 2.344
23.7177 2.083
23.7480 1.719
23.7783 1.562
23.8086 1.875
23.8388 1.823
23.8691 1.823
23.8994 2.344
23.9297 2.708
23.9599 2.344
23.9902 2.135
24.0205 1.927
24.0508 1.771
24.0811 1.927
24.1113 2.656
24.1416 2.187
24.1719 2.865
24.2022 2.187
24.2325 2.240
24.2627 2.396
24.2930 2.708
24.3233 2.187
24.3536 1.979
24.3838 2.396
24.4141 2.135
24.4444 2.083
24.4747 2.083
24.5050 2.292
24.5352 2.292
24.5655 2.604
24.5958 3.073
24.6261 2.292
24.6564 1.458
24.6866 1.719
24.7169 1.979
24.7472 2.500
24.7775 1.458
24.8077 2.292
24.8380 1.927
24.8683 2.656
24.8986 1.979
24.9289 1.562
24.9591 2.708
24.9894 2.240
25.0197 2.135
25.0500 2.031
25.0803 2.135
25.1105 2.031
25.1408 3.073
25.1711 2.500
25.2014 2.135
25.2316 2.083
25.2619 2.500
25.2922 1.719
25.3225 2.708
25.3528 2.083
25.3830 2.292
25.4133 1.927
25.4436 1.875
25.4739 1.823
25.5042 2.500
25.5344 1.823
25.5647 1.667
25.5950 2.292
25.6253 1.615
25.6555 1.979
25.6858 2.083
25.7161 2.448
25.7464 2.292
25.7767 2.292
25.8069 2.604
25.8372 2.031
25.8675 2.031
25.8978 2.135
25.9281 2.344
25.9583 2.396
25.9886 2.500
26.0189 2.240
26.0492 2.083
26.0794 1.979
26.1097 1.771
26.1400 2.552
26.1703 2.500
26.2006 2.969
26.2308 2.969
26.2611 2.187
26.2914 2.240
26.3217 2.917
26.3520 2.448
26.3822 1.458
26.4125 2.031
26.4428 2.083
26.4731 2.500
26.5034 3.177
26.5336 2.344
26.5639 2.344
26.5942 2.187
26.6245 2.083
26.6547 2.187
26.6850 3.021
26.7153 2.708
26.7456 2.344
26.7759 2.187
26.8061 1.615
26.8364 2.448
26.8667 2.865
26.8970 2.135
26.9273 2.917
26.9575 2.031
26.9878 1.979
27.0181 2.656
27.0484 2.656
27.0786 2.031
27.1089 2.187
27.1392 2.604
27.1695 2.292
27.1998 3.021
27.2300 2.344
27.2603 1.875
27.2906 2.969
27.3209 2.240
27.3512 2.031
27.3814 3.490
27.4117 2.708
27.4420 2.292
27.4723 2.552
27.5025 2.240
27.5328 2.292
27.5631 1.875
27.5934 2.292
27.6237 1.771
27.6539 2.240
27.6842 2.135
27.7145 1.979
27.7448 1.927
27.7751 2.135
27.8053 2.760
27.8356 2.187
27.8659 2.604
27.8962 1.823
27.9264 2.865
27.9567 2.552
27.9870 2.604
28.0173 2.552
28.0476 2.448
28.0778 2.500
28.1081 1.979
28.1384 3.333
28.1687 2.083
28.1990 2.552
28.2292 2.604
28.2595 1.823
28.2898 2.552
28.3201 2.500
28.3503 2.448
28.3806 2.240
28.4109 2.135
28.4412 1.719
28.4715 2.500
28.5017 2.240
28.5320 2.760
28.5623 2.187
28.5926 2.812
28.6229 2.187
28.6531 2.396
28.6834 2.604
28.7137 2.969
28.7440 2.865
28.7742 2.917
28.8045 2.500
28.8348 2.396
28.8651 2.448
28.8954 2.448
28.9256 2.344
28.9559 2.812
28.9862 2.500
29.0165 2.083
29.0468 2.552
29.0770 3.021
29.1073 2.708
29.1376 2.552
29.1679 3.073
29.1981 3.333
29.2284 3.437
29.2587 2.656
29.2890 2.500
29.3193 2.812
29.3495 2.500
29.3798 3.125
29.4101 3.333
29.4404 1.927
29.4707 2.187
29.5009 2.969
29.5312 2.656
29.5615 2.500
29.5918 2.500
29.6221 3.021
29.6523 2.448
29.6826 2.917
29.7129 2.865
29.7432 3.490
29.7734 2.604
29.8037 3.021
29.8340 3.646
29.8643 2.865
29.8946 2.031
29.9248 3.385
29.9551 3.177
29.9854 3.646
30.0157 2.552
30.0460 3.542
30.0762 3.750
30.1065 3.281
30.1368 3.594
30.1671 4.479
30.1973 3.229
30.2276 3.333
30.2579 2.969
30.2882 4.323
30.3185 3.646
30.3487 3.437
30.3790 3.385
30.4093 4.323
30.4396 3.750
30.4699 3.906
30.5001 3.594
30.5304 4.167
30.5607 4.010
30.5910 4.531
30.6212 3.958
30.6515 4.167
30.6818 4.687
30.7121 4.010
30.7424 4.427
30.7726 5.312
30.8029 6.510
30.8332 4.167
30.8635 5.052
30.8938 5.000
30.9240 4.010
30.9543 6.198
30.9846 5.833
31.0149 6.667
31.0451 7.187
31.0754 7.604
31.1057 6.406
31.1360 7.240
31.1663 8.958
31.1965 8.125
31.2268 9.323
31.2571 10.781
31.2874 13.906
31.3177 14.531
31.3479 16.771
31.3782 18.802
31.4085 20.417
31.4388 22.552
31.4690 24.583
31.4993 29.010
31.5296 32.865
31.5599 37.031
31.5902 41.094
31.6204 43.698
31.6507 43.125
31.6810 42.187
31.7113 38.854
31.7416 36.198
31.7718 31.927
31.8021 27.812
31.8324 23.021
31.8627 21.615
31.8929 16.094
31.9232 14.479
31.9535 13.646
31.9838 14.010
32.0141 11.510
32.0443 10.625
32.0746 8.594
32.1049 9.271
32.1352 8.125
32.1655 7.604
32.1957 7.760
32.2260 5.937
32.2563 6.562
32.2866 6.354
32.3169 5.885
32.3471 5.417
32.3774 5.469
32.4077 5.104
32.4380 4.896
32.4682 4.271
32.4985 5.208
32.5288 3.594
32.5591 5.260
32.5894 5.312
32.6196 4.323
32.6499 4.740
32.6802 4.687
32.7105 3.906
32.7408 3.542
32.7710 4.479
32.8013 4.115
32.8316 4.792
32.8619 4.010
32.8921 4.219
32.9224 4.531
32.9527 3.490
32.9830 3.385
33.0133 4.635
33.0435 4.635
33.0738 5.052
33.1041 3.906
33.1344 3.437
33.1647 4.583
33.1949 4.792
33.2252 3.542
33.2555 3.802
33.2858 4.583
33.3160 4.635
33.3463 4.219
33.3766 4.010
33.4069 3.906
33.4372 4.479
33.4674 4.115
33.4977 4.844
33.5280 3.646
33.5583 4.792
33.5886 5.156
33.6188 4.687
33.6491 4.792
33.6794 5.104
33.7097 5.417
33.7399 5.156
33.7702 6.719
33.8005 6.719
33.8308 5.625
33.8611 5.833
33.8913 6.302
33.9216 8.490
33.9519 8.333
33.9822 8.802
34.0125 10.417
34.0427 11.927
34.0730 12.865
34.1033 15.365
34.1336 18.490
34.1638 22.969
34.1941 28.594
34.2244 36.562
34.2547 46.771
34.2850 50.521
34.3152 51.146
34.3455 44.792
34.3758 38.229
34.4061 29.531
34.4364 22.500
34.4666 19.948
34.4969 15.052
34.5272 10.833
34.5575 10.573
34.5877 9.792
34.6180 8.906
34.6483 6.875
34.6786 7.187
34.7089 6.719
34.7391 7.760
34.7694 5.208
34.7997 6.250
34.8300 5.469
34.8603 5.937
34.8905 6.146
34.9208 6.146
34.9511 5.885
34.9814 5.104
35.0116 5.885
35.0419 5.729
35.0722 5.417
35.1025 5.260
35.1328 5.104
35.1630 6.042
35.1933 6.198
35.2236 6.823
35.2539 6.406
35.2842 6.042
35.3144 5.521
35.3447 7.083
35.3750 8.021
35.4053 7.656
35.4356 6.979
35.4658 7.344
35.4961 7.344
35.5264 8.281
35.5567 7.812
35.5869 10.208
35.6172 9.323
35.6475 10.885
35.6778 12.187
35.7081 13.073
35.7383 15.625
35.7686 15.937
35.7989 17.865
35.8292 20.312
35.8595 22.969
35.8897 25.156
35.9200 30.104
35.9503 35.521
35.9806 36.771
36.0108 43.125
36.0411 48.333
36.0714 54.375
36.1017 58.698
36.1320 59.740
36.1622 57.917
36.1925 54.271
36.2228 48.698
36.2531 44.896
36.2834 37.812
36.3136 34.531
36.3439 29.583
36.3742 24.740
36.4045 23.958
36.4347 19.375
36.4650 16.250
36.4953 13.802
36.5256 13.385
36.5559 10.156
36.5861 9.844
36.6164 8.854
36.6467 8.542
36.6770 7.708
36.7073 7.552
36.7375 9.583
36.7678 6.719
36.7981 6.406
36.8284 5.312
36.8586 5.469
36.8889 5.208
36.9192 4.062
36.9495 4.323
36.9798 4.427
37.0100 4.271
37.0403 3.750
37.0706 4.479
37.1009 4.479
37.1312 4.375
37.1614 3.958
37.1917 4.115
37.2220 4.635
37.2523 4.062
37.2825 3.698
37.3128 3.490
37.3431 3.177
37.3734 3.906
37.4037 3.281
37.4339 3.281
37.4642 2.604
37.4945 3.490
37.5248 3.542
37.5551 3.073
37.5853 2.969
37.6156 3.073
37.6459 2.865
37.6762 2.135
37.7064 2.917
37.7367 2.812
37.7670 2.969
37.7973 2.708
37.8276 3.437
37.8578 2.760
37.8881 2.708
37.9184 3.333
37.9487 2.448
37.9790 2.448
38.0092 3.177
38.0395 2.552
38.0698 2.812
38.1001 2.500
38.1304 1.875
38.1606 2.083
38.1909 3.542
38.2212 2.187
38.2515 2.448
38.2817 2.187
38.3120 2.812
38.3423 1.615
38.3726 2.917
38.4029 2.969
38.4331 1.354
38.4634 2.552
38.4937 2.292
38.5240 2.760
38.5543 2.240
38.5845 2.604
38.6148 2.240
38.6451 2.135
38.6754 1.875
38.7056 2.240
38.7359 3.125
38.7662 2.917
38.7965 2.344
38.8268 2.344
38.8570 2.292
38.8873 2.917
38.9176 1.510
38.9479 1.667
38.9782 1.719
39.0084 2.396
39.0387 1.823
39.0690 2.240
39.0993 2.240
39.1295 1.615
39.1598 1.406
39.1901 2.344
39.2204 1.458
39.2507 1.562
39.2809 2.292
39.3112 1.771
39.3415 2.552
39.3718 1.875
39.4021 2.135
39.4323 1.927
39.4626 1.302
39.4929 1.771
39.5232 1.406
39.5534 2.031
39.5837 1.510
39.6140 2.448
39.6443 1.927
39.6746 2.135
39.7048 1.823
39.7351 1.927
39.7654 2.344
39.7957 1.562
39.8260 1.458
39.8562 1.979
39.8865 1.719
39.9168 1.406
39.9471 1.823
39.9773 1.875
40.0076 1.510
40.0379 2.448
40.0682 2.396
40.0985 1.927
40.1287 1.875
40.1590 1.615
40.1893 1.771
40.2196 1.354
40.2499 1.667
40.2801 1.771
40.3104 1.823
40.3407 1.250
40.3710 1.406
40.4012 1.406
40.4315 2.083
40.4618 1.406
40.4921 1.667
40.5224 1.875
40.5526 0.990
40.5829 1.927
40.6132 1.615
40.6435 1.823
40.6738 1.667
40.7040 1.406
40.7343 1.667
40.7646 1.458
40.7949 1.927
40.8251 2.240
40.8554 1.562
40.8857 1.615
40.9160 1.250
40.9463 1.875
40.9765 1.198
41.0068 1.615
41.0371 1.875
41.0674 1.354
41.0977 1.875
41.1279 1.354
41.1582 1.406
41.1885 1.458
41.2188 2.083
41.2491 1.562
41.2793 1.562
41.3096 2.135
41.3399 2.031
41.3702 1.927
41.4004 1.771
41.4307 1.146
41.4610 1.406
41.4913 1.510
41.5216 1.510
41.5518 1.823
41.5821 1.302
41.6124 1.302
41.6427 1.562
41.6730 1.823
41.7032 2.083
41.7335 2.292
41.7638 1.250
41.7941 1.615
41.8243 1.719
41.8546 1.875
41.8849 1.458
41.9152 1.927
41.9455 1.667
41.9757 1.823
42.0060 1.771
42.0363 2.031
42.0666 2.135
42.0969 1.510
42.1271 1.667
42.1574 1.927
42.1877 1.250
42.2180 1.302
42.2482 0.937
42.2785 1.875
42.3088 1.667
42.3391 1.615
42.3694 1.823
42.3996 1.562
42.4299 1.823
42.4602 1.823
42.4905 1.458
42.5208 1.771
42.5510 1.354
42.5813 1.510
42.6116 1.823
42.6419 1.771
42.6721 1.667
42.7024 1.562
42.7327 1.562
42.7630 1.823
42.7933 1.510
42.8235 1.875
42.8538 1.979
42.8841 1.198
42.9144 1.042
42.9447 1.927
42.9749 2.031
43.0052 1.771
43.0355 1.562
43.0658 1.562
43.0960 1.615
43.1263 1.562
43.1566 1.458
43.1869 1.667
43.2172 1.823
43.2474 1.562
43.2777 1.875
43.3080 1.667
43.3383 1.510
43.3686 1.927
43.3988 1.562
43.4291 2.135
43.4594 1.198
43.4897 2.240
43.5199 1.719
43.5502 1.719
43.5805 1.198
43.6108 1.823
43.6411 1.562
43.6713 1.615
43.7016 1.771
43.7319 1.667
43.7622 1.615
43.7925 1.302
43.8227 1.406
43.8530 1.458
43.8833 1.354
43.9136 1.771
43.9439 1.562
43.9741 1.354
44.0044 1.562
44.0347 1.875
44.0650 1.875
44.0952 1.823
44.1255 1.927
44.1558 0.833
44.1861 1.927
44.2164 1.406
44.2466 1.771
44.2769 2.031
44.3072 1.823
44.3375 1.771
44.3678 1.875
44.3980 1.771
44.4283 1.510
44.4586 1.875
44.4889 1.562
44.5191 1.719
44.5494 1.667
44.5797 1.562
44.6100 1.510
44.6403 1.250
44.6705 1.146
44.7008 2.448
44.7311 1.667
44.7614 1.250
44.7917 1.302
44.8219 1.615
44.8522 1.458
44.8825 1.302
44.9128 2.240
44.9430 1.719
44.9733 1.510
45.0036 1.875
45.0339 2.240
45.0642 1.667
45.0944 1.667
45.1247 1.406
45.1550 1.562
45.1853 1.667
45.2156 1.667
45.2458 1.667
45.2761 1.667
45.3064 2.135
45.3367 2.187
45.3669 1.771
45.3972 1.615
45.4275 1.615
45.4578 2.656
45.4881 2.240
45.5183 1.250
45.5486 1.823
45.5789 1.458
45.6092 1.979
45.6395 1.823
45.6697 1.875
45.7000 1.615
45.7303 2.292
45.7606 1.667
45.7908 1.458
45.8211 1.250
45.8514 1.719
45.8817 2.240
45.9120 1.562
45.9422 1.771
45.9725 1.667
46.0028 2.344
46.0331 1.406
46.0634 1.615
46.0936 1.875
46.1239 2.135
46.1542 2.083
46.1845 2.083
46.2147 1.562
46.2450 1.458
46.2753 1.510
46.3056 2.031
46.3359 2.187
46.3661 1.823
46.3964 2.292
46.4267 1.875
46.4570 2.760
46.4873 1.510
46.5175 1.667
46.5478 1.719
46.5781 2.187
46.6084 2.760
46.6386 2.135
46.6689 1.562
46.6992 2.083
46.7295 1.979
46.7598 2.656
46.7900 2.552
46.8203 2.708
46.8506 2.240
46.8809 3.490
46.9112 3.021
46.9414 3.333
46.9717 3.437
47.0020 4.583
47.0323 4.740
47.0626 4.427
47.0928 3.854
47.1231 4.896
47.1534 6.146
47.1837 5.937
47.2139 6.354
47.2442 8.177
47.2745 9.271
47.3048 9.740
47.3351 12.135
47.3653 12.135
47.3956 12.187
47.4259 11.615
47.4562 11.719
47.4865 11.562
47.5167 10.990
47.5470 8.594
47.5773 9.115
47.6076 8.073
47.6378 6.927
47.6681 6.927
47.6984 5.990
47.7287 4.896
47.7590 4.271
47.7892 4.479
47.8195 3.958
47.8498 3.281
47.8801 2.448
47.9104 3.125
47.9406 3.177
47.9709 2.344
48.0012 2.448
48.0315 2.135
48.0617 2.500
48.0920 2.604
48.1223 2.917
48.1526 2.187
48.1829 2.292
48.2131 2.187
48.2434 2.031
48.2737 2.240
48.3040 2.656
48.3343 2.135
48.3645 2.292
48.3948 1.927
48.4251 2.344
48.4554 2.500
48.4856 1.667
48.5159 2.135
48.5462 1.354
48.5765 2.396
48.6068 2.135
48.6370 2.187
48.6673 2.135
48.6976 2.135
48.7279 1.302
48.7582 1.354
48.7884 2.031
48.8187 1.354
48.8490 1.615
48.8793 1.406
48.9095 1.302
48.9398 1.562
48.9701 1.094
49.0004 1.406
49.0307 2.240
49.0609 2.135
49.0912 1.458
49.1215 1.406
49.1518 1.406
49.1821 2.031
49.2123 2.031
49.2426 1.615
49.2729 1.927
49.3032 1.510
49.3334 1.198
49.3637 1.771
49.3940 1.510
49.4243 1.510
49.4546 1.094
49.4848 1.615
49.5151 1.562
49.5454 1.771
49.5757 1.719
49.6060 1.458
49.6362 1.927
49.6665 1.979
49.6968 1.979
49.7271 1.354
49.7574 1.406
49.7876 0.990
49.8179 1.510
49.8482 2.031
49.8785 1.562
49.9087 1.562
49.9390 1.354
49.9693 1.406
49.9996 1.823
50.0299 1.354
50.0601 1.406
50.0904 1.250
50.1207 1.250
50.1510 1.250
50.1813 1.302
50.2115 0.885
50.2418 1.562
50.2721 1.927
50.3024 1.562
50.3326 1.615
50.3629 1.250
50.3932 1.719
50.4235 1.458
50.4538 1.354
50.4840 1.146
50.5143 1.771
50.5446 1.250
50.5749 1.354
50.6052 1.198
50.6354 1.510
50.6657 1.146
50.6960 1.354
50.7263 1.302
50.7565 0.990
50.7868 1.771
50.8171 1.198
50.8474 1.615
50.8777 1.042
50.9079 0.990
50.9382 1.354
50.9685 1.823
50.9988 1.250
51.0291 1.354
51.0593 1.146
51.0896 1.406
51.1199 1.198
51.1502 1.615
51.1804 1.250
51.2107 1.667
51.2410 1.562
51.2713 1.562
51.3016 1.354
51.3318 1.562
51.3621 1.562
51.3924 2.031
51.4227 1.198
51.4530 1.875
51.4832 1.146
51.5135 1.771
51.5438 1.823
51.5741 0.937
51.6043 1.302
51.6346 1.823
51.6649 1.719
51.6952 1.458
51.7255 1.510
51.7557 1.354
51.7860 1.094
51.8163 1.406
51.8466 1.198
51.8769 1.458
51.9071 1.510
51.9374 1.615
51.9677 1.042
51.9980 1.927
52.0282 1.354
52.0585 1.146
52.0888 1.823
52.1191 1.406
52.1494 1.615
52.1796 1.406
52.2099 1.667
52.2402 1.146
52.2705 1.198
52.3008 1.771
52.3310 1.719
52.3613 1.146
52.3916 1.146
52.4219 1.354
52.4521 1.042
52.4824 1.302
52.5127 1.510
52.5430 1.146
52.5733 1.667
52.6035 1.615
52.6338 1.823
52.6641 1.458
52.6944 1.198
52.7247 1.302
52.7549 1.458
52.7852 1.354
52.8155 1.927
52.8458 1.302
52.8761 1.823
52.9063 1.510
52.9366 1.510
52.9669 1.198
52.9972 1.198
53.0274 0.781
53.0577 1.406
53.0880 1.615
53.1183 1.250
53.1486 1.719
53.1788 1.354
53.2091 1.302
53.2394 1.458
53.2697 1.823
53.3000 1.719
53.3302 1.615
53.3605 1.250
53.3908 1.719
53.4211 1.510
53.4513 1.667
53.4816 1.250
53.5119 1.771
53.5422 1.615
53.5725 1.406
53.6027 1.354
53.6330 1.615
53.6633 1.146
53.6936 1.094
53.7239 1.042
53.7541 1.250
53.7844 1.719
53.8147 1.510
53.8450 1.562
53.8752 0.937
53.9055 1.458
53.9358 1.562
53.9661 1.094
53.9964 1.406
54.0266 1.354
54.0569 1.354
54.0872 1.562
54.1175 1.510
54.1478 1.562
54.1780 1.094
54.2083 1.146
54.2386 1.562
54.2689 1.302
54.2991 1.510
54.3294 1.927
54.3597 1.667
54.3900 1.302
54.4203 0.990
54.4505 1.510
54.4808 1.562
54.5111 1.510
54.5414 1.510
54.5717 1.771
54.6019 1.042
54.6322 1.250
54.6625 1.667
54.6928 1.719
54.7230 1.823
54.7533 1.719
54.7836 1.458
54.8139 1.458
54.8442 0.990
54.8744 2.031
54.9047 1.927
54.9350 1.458
54.9653 2.292
54.9956 1.615
55.0258 2.031
55.0561 1.667
55.0864 1.510
55.1167 1.979
55.1469 2.031
55.1772 1.615
55.2075 2.240
55.2378 1.562
55.2681 2.187
55.2983 2.083
55.3286 2.031
55.3589 1.250
55.3892 2.292
55.4195 1.615
55.4497 2.135
55.4800 1.771
55.5103 2.240
55.5406 2.344
55.5709 2.240
55.6011 2.656
55.6314 2.135
55.6617 2.656
55.6920 2.865
55.7222 3.542
55.7525 2.500
55.7828 2.604
55.8131 2.240
55.8434 2.500
55.8736 2.865
55.9039 3.125
55.9342 3.125
55.9645 3.333
55.9948 3.958
56.0250 3.698
56.0553 4.375
56.0856 4.167
56.1159 4.896
56.1461 5.833
56.1764 5.469
56.2067 7.083
56.2370 7.135
56.2673 8.646
56.2975 9.062
56.3278 11.042
56.3581 10.104
56.3884 12.656
56.4187 14.531
56.4489 13.437
56.4792 13.646
56.5095 13.385
56.5398 13.229
56.5700 12.865
56.6003 12.344
56.6306 10.833
56.6609 9.062
56.6912 8.698
56.7214 8.021
56.7517 7.656
56.7820 6.771
56.8123 5.365
56.8426 4.948
56.8728 5.000
56.9031 3.646
56.9334 4.635
56.9637 3.958
56.9939 3.854
57.0242 3.021
57.0545 3.958
57.0848 3.385
57.1151 3.281
57.1453 3.021
57.1756 2.187
57.2059 2.292
57.2362 2.396
57.2665 3.125
57.2967 2.656
57.3270 2.031
57.3573 2.187
57.3876 2.344
57.4178 2.292
57.4481 2.135
57.4784 2.240
57.5087 2.031
57.5390 1.719
57.5692 1.615
57.5995 1.979
57.6298 1.510
57.6601 1.771
57.6904 2.604
57.7206 1.927
57.7509 1.927
57.7812 1.562
57.8115 1.927
57.8417 2.240
57.8720 2.083
57.9023 1.875
57.9326 1.771
57.9629 1.719
57.9931 1.562
58.0234 1.406
58.0537 1.510
58.0840 1.615
58.1143 2.083
58.1445 1.667
58.1748 1.406
58.2051 1.562
58.2354 1.667
58.2656 1.302
58.2959 1.406
58.3262 1.094
58.3565 1.667
58.3868 1.823
58.4170 1.615
58.4473 2.083
58.4776 1.771
58.5079 1.562
58.5382 1.823
58.5684 1.667
58.5987 1.406
58.6290 1.406
58.6593 2.187
58.6896 1.510
58.7198 1.562
58.7501 1.458
58.7804 1.979
58.8107 1.615
58.8409 1.771
58.8712 1.354
58.9015 1.667
58.9318 1.875
58.9621 1.302
58.9923 1.458
59.0226 2.135
59.0529 2.187
59.0832 1.771
59.1135 1.719
59.1437 1.302
59.1740 1.771
59.2043 1.458
59.2346 1.146
59.2648 1.562
59.2951 1.875
59.3254 1.615
59.3557 1.823
59.3860 1.250
59.4162 1.615
59.4465 1.875
59.4768 1.302
59.5071 1.250
59.5374 1.406
59.5676 2.135
59.5979 1.823
59.6282 1.146
59.6585 1.510
59.6887 1.771
59.7190 1.510
59.7493 1.250
59.7796 1.302
59.8099 1.458
59.8401 1.406
59.8704 1.198
59.9007 1.562
59.9310 0.781
59.9613 1.250
59.9915 1.667
60.0218 1.719
60.0521 1.198
60.0824 2.031
60.1126 1.354
60.1429 1.146
60.1732 1.354
60.2035 1.771
60.2338 1.510
60.2640 2.135
60.2943 1.771
60.3246 1.458
60.3549 1.302
60.3852 1.406
60.4154 2.083
60.4457 1.510
60.4760 1.510
60.5063 1.719
60.5365 1.302
60.5668 1.354
60.5971 1.562
60.6274 1.406
60.6577 1.042
60.6879 1.562
60.7182 1.406
60.7485 1.771
60.7788 1.042
60.8091 0.990
60.8393 1.302
60.8696 1.823
60.8999 1.354
60.9302 1.875
60.9604 1.510
60.9907 1.719
61.0210 1.823
61.0513 1.771
61.0816 1.927
61.1118 1.562
61.1421 2.187
61.1724 1.198
61.2027 1.250
61.2330 1.302
61.2632 1.250
61.2935 1.979
61.3238 1.927
61.3541 1.771
61.3844 1.667
61.4146 1.302
61.4449 1.615
61.4752 1.927
61.5055 1.406
61.5357 1.771
61.5660 1.354
61.5963 2.656
61.6266 1.875
61.6569 2.604
61.6871 1.667
61.7174 2.083
61.7477 2.031
61.7780 1.979
61.8083 1.927
61.8385 1.667
61.8688 2.135
61.8991 2.031
61.9294 2.552
61.9596 2.448
61.9899 1.927
62.0202 1.823
62.0505 2.604
62.0808 2.396
62.1110 2.865
62.1413 2.812
62.1716 2.604
62.2019 2.865
62.2322 3.542
62.2624 3.802
62.2927 4.271
62.3230 3.906
62.3533 4.062
62.3835 3.750
62.4138 5.729
62.4441 4.323
62.4744 5.781
62.5047 7.292
62.5349 7.187
62.5652 8.437
62.5955 8.854
62.6258 10.365
62.6561 11.667
62.6863 11.667
62.7166 11.615
62.7469 12.969
62.7772 11.146
62.8074 12.187
62.8377 13.385
62.8680 10.885
62.8983 9.479
62.9286 8.802
62.9588 7.604
62.9891 7.187
63.0194 6.927
63.0497 5.781
63.0800 5.365
63.1102 4.844
63.1405 4.115
63.1708 4.323
63.2011 3.333
63.2313 4.167
63.2616 3.594
63.2919 2.604
63.3222 2.760
63.3525 2.969
63.3827 2.708
63.4130 2.604
63.4433 1.979
63.4736 2.448
63.5039 2.135
63.5341 2.031
63.5644 2.135
63.5947 2.187
63.6250 2.031
63.6552 1.875
63.6855 1.615
63.7158 1.927
63.7461 1.979
63.7764 2.500
63.8066 1.875
63.8369 1.458
63.8672 1.979
63.8975 1.771
63.9278 1.615
63.9580 2.031
63.9883 1.823
64.0186 1.771
64.0489 1.354
64.0791 1.771
64.1094 1.927
64.1397 1.875
64.1700 1.615
64.2003 1.771
64.2305 1.719
64.2608 1.667
64.2911 1.406
64.3214 1.042
64.3517 2.135
64.3819 2.031
64.4122 1.146
64.4425 1.406
64.4728 1.927
64.5031 1.458
64.5333 1.927
64.5636 1.875
64.5939 1.771
64.6242 1.510
64.6544 1.094
64.6847 1.406
64.7150 1.927
64.7453 1.615
64.7756 1.354
64.8058 2.031
64.8361 1.510
64.8664 1.510
64.8967 1.198
64.9270 1.406
64.9572 1.667
64.9875 1.667
65.0178 1.250
65.0481 1.458
65.0783 0.833
65.1086 1.458
65.1389 1.667
65.1692 1.719
65.1995 1.458
65.2297 1.198
65.2600 1.458
65.2903 1.406
65.3206 2.031
65.3509 1.615
65.3811 1.562
65.4114 2.292
65.4417 1.406
65.4720 1.667
65.5022 1.667
65.5325 1.875
65.5628 1.615
65.5931 1.771
65.6234 1.198
65.6536 1.510
65.6839 1.875
65.7142 2.292
65.7445 1.510
65.7748 1.458
65.8050 1.823
65.8353 1.406
65.8656 1.667
65.8959 2.552
65.9261 2.187
65.9564 1.927
65.9867 1.927
66.0170 2.969
66.0473 2.031
66.0775 2.448
66.1078 2.292
66.1381 3.177
66.1684 2.760
66.1987 3.385
66.2289 2.969
66.2592 3.594
66.2895 1.823
66.3198 3.281
66.3500 3.646
66.3803 3.177
66.4106 2.344
66.4409 2.604
66.4712 2.812
66.5014 2.500
66.5317 2.240
66.5620 2.812
66.5923 3.073
66.6226 2.344
66.6528 1.667
66.6831 1.562
66.7134 1.875
66.7437 1.875
66.7739 2.604
66.8042 2.552
66.8345 2.187
66.8648 1.979
66.8951 1.771
66.9253 2.552
66.9556 1.927
66.9859 1.771
67.0162 1.667
67.0465 2.812
67.0767 2.500
67.1070 2.708
67.1373 2.135
67.1676 2.240
67.1978 2.656
67.2281 2.812
67.2584 2.396
67.2887 2.604
67.3190 2.760
67.3492 2.917
67.3795 3.958
67.4098 3.646
67.4401 3.490
67.4704 3.802
67.5006 4.531
67.5309 4.323
67.5612 5.312
67.5915 6.354
67.6218 5.521
67.6520 6.615
67.6823 7.083
67.7126 8.229
67.7429 7.604
67.7731 7.500
67.8034 7.656
67.8337 9.844
67.8640 9.375
67.8943 8.073
67.9245 7.604
67.9548 7.448
67.9851 7.708
68.0154 7.552
68.0457 7.604
68.0759 7.135
68.1062 6.719
68.1365 5.365
68.1668 4.792
68.1970 4.115
68.2273 3.750
68.2576 3.750
68.2879 3.854
68.3182 3.594
68.3484 3.542
68.3787 3.750
68.4090 3.490
68.4393 2.865
68.4696 3.385
68.4998 3.177
68.5301 2.917
68.5604 2.396
68.5907 2.865
68.6209 3.646
68.6512 3.177
68.6815 3.958
68.7118 3.854
68.7421 3.854
68.7723 4.115
68.8026 4.375
68.8329 4.896
68.8632 4.479
68.8935 4.375
68.9237 4.062
68.9540 5.208
68.9843 5.052
69.0146 4.427
69.0448 4.271
69.0751 4.375
69.1054 4.375
69.1357 4.375
69.1660 3.333
69.1962 3.281
69.2265 3.229
69.2568 2.969
69.2871 2.500
69.3174 2.969
69.3476 2.865
69.3779 2.292
69.4082 2.292
69.4385 2.135
69.4687 2.396
69.4990 1.875
69.5293 1.615
69.5596 1.562
69.5899 1.719
69.6201 1.615
69.6504 1.302
69.6807 1.302
69.7110 1.875
69.7413 1.302
69.7715 1.302
69.8018 1.667
69.8321 1.458
69.8624 1.823
69.8926 1.042
69.9229 1.458
69.9532 1.198
69.9835 0.781
70.0138 1.250
70.0440 0.885
70.0743 1.146
70.1046 1.458
70.1349 1.146
70.1652 1.198
70.1954 1.458
70.2257 1.562
70.2560 1.354
70.2863 1.250
70.3166 1.250
70.3468 1.510
70.3771 1.875
70.4074 1.510
70.4377 1.302
70.4679 1.146
70.4982 1.562
70.5285 1.042
70.5588 1.250
70.5891 1.250
70.6193 1.250
70.6496 1.094
70.6799 1.250
70.7102 1.094
70.7405 1.198
70.7707 1.562
70.8010 1.094
70.8313 1.302
70.8616 0.833
70.8918 0.937
70.9221 1.250
70.9524 1.146
70.9827 1.094
71.0130 1.771
71.0432 1.302
71.0735 1.562
71.1038 1.771
71.1341 0.990
71.1644 0.885
71.1946 0.729
71.2249 0.990
71.2552 1.250
71.2855 1.198
71.3157 1.042
71.3460 1.198
71.3763 1.510
71.4066 1.250
71.4369 0.833
71.4671 1.146
71.4974 0.885
71.5277 1.094
71.5580 0.937
71.5883 0.885
71.6185 0.781
71.6488 1.458
71.6791 1.406
71.7094 0.937
71.7396 1.302
71.7699 1.146
71.8002 1.250
71.8305 0.937
71.8608 0.937
71.8910 1.094
71.9213 0.677
71.9516 1.146
71.9819 1.094
72.0122 1.094
72.0424 1.094
72.0727 0.729
72.1030 1.719
72.1333 1.250
72.1635 1.458
72.1938 1.667
72.2241 1.250
72.2544 1.875
72.2847 1.302
72.3149 1.302
72.3452 1.406
72.3755 1.198
72.4058 2.031
72.4361 1.719
72.4663 2.083
72.4966 1.302
72.5269 1.875
72.5572 1.719
72.5874 1.875
72.6177 1.406
72.6480 1.771
72.6783 1.198
72.7086 0.937
72.7388 1.302
72.7691 1.406
72.7994 1.198
72.8297 0.885
72.8600 1.250
72.8902 1.250
72.9205 0.937
72.9508 0.990
72.9811 0.885
73.0113 1.771
73.0416 1.042
73.0719 1.250
73.1022 1.198
73.1325 1.250
73.1627 0.625
73.1930 0.729
73.2233 1.042
73.2536 1.562
73.2839 0.729
73.3141 1.302
73.3444 1.198
73.3747 0.677
73.4050 0.833
73.4353 1.146
73.4655 1.094
73.4958 0.833
73.5261 0.885
73.5564 1.562
73.5866 0.833
73.6169 0.990
73.6472 0.885
73.6775 1.302
73.7078 0.729
73.7380 1.250
73.7683 1.354
73.7986 1.250
73.8289 1.250
73.8592 0.729
73.8894 1.302
73.9197 0.885
73.9500 0.885
73.9803 0.573
74.0105 0.729
74.0408 1.146
74.0711 1.042
74.1014 1.250
74.1317 1.615
74.1619 0.833
74.1922 1.094
74.2225 0.885
74.2528 1.198
74.2831 0.990
74.3133 1.198
74.3436 0.937
74.3739 1.302
74.4042 1.042
74.4344 0.990
74.4647 1.094
74.4950 0.781
74.5253 0.781
74.5556 0.885
74.5858 0.885
74.6161 1.094
74.6464 0.885
74.6767 0.885
74.7070 1.042
74.7372 1.719
74.7675 1.615
74.7978 1.094
74.8281 0.781
74.8583 0.937
74.8886 0.885
74.9189 0.833
74.9492 0.990
74.9795 1.302
75.0097 0.885
75.0400 1.198
75.0703 0.833
75.1006 1.094
75.1309 1.146
75.1611 0.625
75.1914 0.781
75.2217 0.990
75.2520 0.937
75.2822 0.781
75.3125 1.250
75.3428 0.781
75.3731 1.198
75.4034 1.146
75.4336 1.198
75.4639 1.042
75.4942 1.146
75.5245 1.302
75.5548 1.094
75.5850 0.729
75.6153 0.729
75.6456 0.885
75.6759 1.198
75.7061 1.094
75.7364 1.198
75.7667 0.781
75.7970 0.833
75.8273 1.302
75.8575 0.833
75.8878 1.042
75.9181 1.042
75.9484 0.781
75.9787 0.937
76.0089 0.937
76.0392 0.833
76.0695 1.458
76.0998 1.458
76.1301 1.354
76.1603 1.198
76.1906 1.302
76.2209 1.198
76.2512 1.094
76.2814 0.781
76.3117 1.510
76.3420 1.042
76.3723 1.146
76.4026 1.354
76.4328 1.406
76.4631 1.406
76.4934 0.729
76.5237 1.146
76.5540 1.562
76.5842 1.667
76.6145 1.615
76.6448 1.458
76.6751 1.667
76.7053 1.562
76.7356 2.344
76.7659 2.187
76.7962 1.510
76.8265 2.344
76.8567 1.823
76.8870 1.771
76.9173 1.979
76.9476 1.823
76.9779 1.927
77.0081 1.146
77.0384 2.135
77.0687 1.458
77.0990 1.667
77.1292 1.823
77.1595 1.250
77.1898 1.250
77.2201 0.990
77.2504 1.615
77.2806 1.562
77.3109 1.094
77.3412 1.667
77.3715 0.729
77.4018 1.198
77.4320 0.937
77.4623 1.458
77.4926 1.094
77.5229 1.042
77.5531 1.146
77.5834 1.198
77.6137 0.990
77.6440 1.198
77.6743 1.042
77.7045 1.198
77.7348 1.146
77.7651 0.885
77.7954 0.417
77.8257 0.885
77.8559 1.146
77.8862 0.937
77.9165 0.729
77.9468 1.510
77.9770 0.677
78.0073 0.937
78.0376 1.198
78.0679 0.729
78.0982 1.042
78.1284 1.302
78.1587 1.198
78.1890 1.250
78.2193 1.094
78.2496 0.937
78.2798 0.990
78.3101 1.198
78.3404 0.781
78.3707 0.885
78.4009 0.625
78.4312 1.146
78.4615 1.146
78.4918 1.198
78.5221 0.729
78.5523 1.042
78.5826 0.625
78.6129 0.781
78.6432 1.302
78.6735 0.729
78.7037 0.937
78.7340 0.990
78.7643 0.885
78.7946 0.990
78.8248 0.990
78.8551 0.781
78.8854 0.781
78.9157 0.781
78.9460 0.833
78.9762 0.990
79.0065 0.885
79.0368 1.198
79.0671 0.937
79.0974 1.042
79.1276 0.937
79.1579 0.781
79.1882 0.625
79.2185 0.625
79.2488 1.302
79.2790 1.042
79.3093 0.573
79.3396 1.042
79.3699 0.937
79.4001 0.781
79.4304 0.885
79.4607 0.833
79.4910 1.250
79.5213 0.781
79.5515 0.990
79.5818 1.198
79.6121 1.094
79.6424 0.677
79.6727 1.198
79.7029 0.521
79.7332 1.302
79.7635 1.198
79.7938 1.094
79.8240 0.729
79.8543 0.937
79.8846 0.833
79.9149 1.198
79.9452 1.302
79.9754 0.937
80.0057 1.302
80.0360 0.990
80.0663 1.198
80.0966 1.094
80.1268 1.146
80.1571 1.042
80.1874 1.094
80.2177 1.198
80.2479 0.625
80.2782 1.406
80.3085 1.146
80.3388 0.990
80.3691 0.885
80.3993 0.937
80.4296 0.833
80.4599 0.937
80.4902 0.521
80.5205 0.729
80.5507 1.510
80.5810 0.833
80.6113 0.990
80.6416 0.729
80.6718 1.094
80.7021 1.198
80.7324 1.198
80.7627 0.677
80.7930 1.198
80.8232 1.667
80.8535 1.146
80.8838 0.937
80.9141 0.885
80.9444 0.833
80.9746 1.094
81.0049 1.042
81.0352 1.198
81.0655 1.146
81.0957 1.250
81.1260 0.990
81.1563 1.198
81.1866 1.510
81.2169 1.667
81.2471 1.146
81.2774 1.458
81.3077 1.719
81.3380 1.510
81.3683 1.510
81.3985 1.198
81.4288 1.198
81.4591 1.302
81.4894 1.094
81.5196 1.198
81.5499 1.198
81.5802 1.406
81.6105 1.250
81.6408 1.146
81.6710 0.937
81.7013 0.990
81.7316 0.729
81.7619 1.250
81.7922 0.937
81.8224 0.781
81.8527 0.885
81.8830 0.885
81.9133 0.937
81.9436 0.833
81.9738 1.198
82.0041 0.833
82.0344 1.250
82.0647 0.677
82.0949 1.094
82.1252 1.198
82.1555 1.094
82.1858 1.198
82.2161 0.677
82.2463 0.885
82.2766 0.781
82.3069 0.729
82.3372 1.042
82.3675 0.677
82.3977 0.990
82.4280 0.729
82.4583 0.937
82.4886 0.833
82.5188 1.146
82.5491 0.729
82.5794 0.885
82.6097 0.729
82.6400 1.094
82.6702 1.198
82.7005 1.198
82.7308 0.833
82.7611 0.625
82.7914 0.729
82.8216 0.781
82.8519 0.990
82.8822 1.042
82.9125 1.042
82.9427 0.729
82.9730 0.833
83.0033 0.990
83.0336 1.562
83.0639 0.625
83.0941 0.885
83.1244 0.937
83.1547 0.781
83.1850 0.729
83.2153 0.937
83.2455 0.885
83.2758 0.729
83.3061 0.885
83.3364 1.094
83.3666 0.990
83.3969 0.885
83.4272 0.625
83.4575 0.781
83.4878 0.729
83.5180 0.833
83.5483 0.937
83.5786 0.729
83.6089 0.937
83.6392 1.146
83.6694 0.990
83.6997 0.990
83.7300 0.677
83.7603 0.833
83.7905 0.573
83.8208 0.885
83.8511 1.042
83.8814 1.458
83.9117 0.729
83.9419 0.885
83.9722 0.990
84.0025 0.729
84.0328 0.781
84.0631 0.781
84.0933 0.625
84.1236 1.146
84.1539 0.729
84.1842 1.094
84.2144 0.937
84.2447 0.885
84.2750 0.729
84.3053 0.677
84.3356 0.781
84.3658 1.146
84.3961 0.885
84.4264 0.677
84.4567 1.094
84.4870 1.042
84.5172 0.729
84.5475 1.198
84.5778 0.781
84.6081 0.937
84.6383 0.729
84.6686 0.885
84.6989 0.573
84.7292 0.781
84.7595 0.625
84.7897 0.833
84.8200 0.781
84.8503 1.198
84.8806 1.250
84.9109 0.729
84.9411 0.885
84.9714 0.677
85.0017 0.729
85.0320 0.885
85.0623 0.781
85.0925 0.417
85.1228 0.677
85.1531 0.573
85.1834 1.250
85.2136 0.833
85.2439 1.250
85.2742 0.625
85.3045 0.833
85.3348 0.781
85.3650 0.677
85.3953 0.833
85.4256 0.885
85.4559 0.729
85.4862 0.885
85.5164 0.833
85.5467 0.729
85.5770 0.990
85.6073 1.094
85.6375 0.625
85.6678 0.833
85.6981 0.937
85.7284 1.042
85.7587 1.198
85.7889 1.198
85.8192 1.198
85.8495 0.885
85.8798 0.625
85.9101 1.198
85.9403 1.146
85.9706 1.094
86.0009 0.677
86.0312 0.990
86.0614 0.625
86.0917 0.990
86.1220 0.625
86.1523 0.729
86.1826 1.250
86.2128 0.625
86.2431 0.573
86.2734 1.198
86.3037 0.885
86.3340 0.781
86.3642 0.833
86.3945 0.729
86.4248 1.094
86.4551 0.885
86.4853 1.094
86.5156 0.729
86.5459 0.625
86.5762 0.937
86.6065 1.146
86.6367 0.521
86.6670 1.042
86.6973 1.250
86.7276 1.198
86.7579 0.885
86.7881 0.990
86.8184 0.781
86.8487 0.521
86.8790 1.510
86.9092 0.885
86.9395 0.885
86.9698 0.990
87.0001 1.042
87.0304 0.833
87.0606 1.042
87.0909 1.042
87.1212 0.521
87.1515 1.198
87.1818 0.937
87.2120 0.729
87.2423 1.042
87.2726 0.781
87.3029 0.625
87.3331 0.729
87.3634 1.250
87.3937 0.781
87.4240 0.677
87.4543 1.094
87.4845 0.937
87.5148 0.885
87.5451 0.990
87.5754 0.729
87.6057 0.885
87.6359 0.625
87.6662 1.510
87.6965 0.990
87.7268 0.573
87.7571 1.198
87.7873 1.146
87.8176 0.937
87.8479 0.990
87.8782 1.458
87.9084 1.146
87.9387 0.833
87.9690 0.990
87.9993 1.406
88.0296 0.677
88.0598 0.729
88.0901 0.990
88.1204 0.833
88.1507 1.198
88.1810 1.302
88.2112 1.250
88.2415 1.146
88.2718 1.198
88.3021 0.885
88.3323 0.677
88.3626 0.990
88.3929 0.937
88.4232 0.677
88.4535 1.042
88.4837 0.937
88.5140 1.198
88.5443 1.094
88.5746 0.625
88.6049 1.510
88.6351 1.198
88.6654 1.042
88.6957 1.042
88.7260 1.094
88.7562 1.198
88.7865 1.094
88.8168 1.562
88.8471 0.937
88.8774 1.615
88.9076 1.042
88.9379 1.198
88.9682 0.729
88.9985 0.937
89.0288 1.198
89.0590 1.250
89.0893 1.458
89.1196 1.771
89.1499 1.406
89.1801 1.875
89.2104 2.187
89.2407 2.292
89.2710 1.562
89.3013 1.823
89.3315 2.344
89.3618 2.083
89.3921 2.135
89.4224 3.021
89.4527 2.604
89.4829 2.604
89.5132 2.708
89.5435 2.604
89.5738 2.187
89.6040 2.656
89.6343 2.500
89.6646 1.875
89.6949 2.292
89.7252 2.187
89.7554 1.979
89.7857 2.292
89.8160 1.719
89.8463 1.510
89.8766 1.615
89.9068 1.354
89.9371 1.823
89.9674 1.458
89.9977 1.406
90.0279 1.302
90.0582 1.302
90.0885 1.042
90.1188 1.302
90.1491 1.198
90.1793 1.094
90.2096 1.875
90.2399 1.250
90.2702 1.198
90.3005 1.510
90.3307 1.562
90.3610 1.042
90.3913 0.885
90.4216 1.094
90.4518 0.937
90.4821 1.302
90.5124 1.302
90.5427 1.250
90.5730 1.042
90.6032 1.510
90.6335 0.937
90.6638 0.885
90.6941 0.885
90.7244 0.677
90.7546 0.937
90.7849 1.042
90.8152 0.990
90.8455 0.990
90.8758 0.937
90.9060 1.042
90.9363 1.094
90.9666 1.250
90.9969 1.094
91.0271 1.198
91.0574 1.406
91.0877 0.781
91.1180 0.677
91.1483 1.042
91.1785 0.937
91.2088 1.510
91.2391 0.625
91.2694 0.833
91.2997 1.146
91.3299 1.094
91.3602 1.042
91.3905 1.198
91.4208 1.615
91.4510 1.042
91.4813 0.885
91.5116 0.885
91.5419 1.198
91.5722 1.042
91.6024 1.198
91.6327 1.250
91.6630 1.042
91.6933 0.833
91.7236 1.198
91.7538 1.198
91.7841 1.094
91.8144 0.781
91.8447 1.094
91.8749 0.885
91.9052 0.990
91.9355 0.833
91.9658 1.198
91.9961 1.458
92.0263 0.729
92.0566 1.354
92.0869 0.833
92.1172 0.937
92.1475 1.042
92.1777 0.781
92.2080 0.625
92.2383 1.406
92.2686 1.250
92.2988 0.833
92.3291 1.562
92.3594 1.302
92.3897 1.771
92.4200 1.458
92.4502 1.250
92.4805 1.198
92.5108 1.615
92.5411 1.562
92.5714 1.667
92.6016 1.198
92.6319 1.302
92.6622 1.094
92.6925 1.302
92.7227 1.771
92.7530 1.458
92.7833 1.979
92.8136 1.198
92.8439 1.406
92.8741 1.198
92.9044 1.406
92.9347 1.354
92.9650 1.615
92.9953 1.667
93.0255 0.729
93.0558 1.354
93.0861 1.354
93.1164 0.937
93.1466 0.833
93.1769 1.562
93.2072 1.354
93.2375 1.302
93.2678 1.042
93.2980 0.937
93.3283 0.937
93.3586 0.937
93.3889 1.146
93.4192 1.198
93.4494 1.094
93.4797 1.042
93.5100 0.937
93.5403 1.094
93.5706 0.990
93.6008 0.729
93.6311 0.729
93.6614 1.094
93.6917 1.146
93.7219 1.302
93.7522 1.302
93.7825 0.990
93.8128 0.990
93.8431 0.781
93.8733 1.042
93.9036 1.198
93.9339 0.937
93.9642 1.198
93.9945 0.885
94.0247 1.302
94.0550 1.562
94.0853 0.937
94.1156 0.729
94.1458 0.885
94.1761 1.198
94.2064 1.094
94.2367 1.146
94.2670 0.937
94.2972 0.937
94.3275 1.250
94.3578 1.302
94.3881 1.615
94.4184 1.250
94.4486 1.094
94.4789 1.250
94.5092 1.406
94.5395 1.250
94.5697 1.302
94.6000 1.667
94.6303 1.458
94.6606 1.771
94.6909 1.354
94.7211 1.667
94.7514 1.250
94.7817 1.719
94.8120 1.406
94.8423 1.250
94.8725 1.406
94.9028 1.823
94.9331 1.875
94.9634 1.667
94.9936 2.292
95.0239 1.823
95.0542 1.823
95.0845 2.448
95.1148 2.396
95.1450 2.135
95.1753 2.604
95.2056 2.240
95.2359 2.240
95.2662 2.240
95.2964 2.500
95.3267 2.448
95.3570 2.448
95.3873 2.292
95.4175 2.396
95.4478 2.240
95.4781 1.979
95.5084 1.979
95.5387 1.823
95.5689 2.344
95.5992 1.510
95.6295 1.458
95.6598 1.771
95.6901 1.250
95.7203 1.562
95.7506 2.135
95.7809 1.719
95.8112 1.562
95.8414 1.667
95.8717 1.198
95.9020 1.302
95.9323 1.302
95.9626 1.302
95.9928 1.146
96.0231 1.198
96.0534 1.458
96.0837 0.990
96.1140 1.094
96.1442 1.042
96.1745 0.885
96.2048 1.250
96.2351 1.302
96.2653 1.042
96.2956 1.250
96.3259 0.677
96.3562 0.729
96.3865 0.833
96.4167 1.042
96.4470 0.885
96.4773 0.833
96.5076 0.833
96.5379 1.250
96.5681 1.042
96.5984 1.510
96.6287 0.937
96.6590 1.042
96.6893 0.937
96.7195 0.677
96.7498 0.729
96.7801 0.937
96.8104 1.198
96.8406 1.198
96.8709 1.250
96.9012 0.729
96.9315 1.042
96.9618 0.885
96.9920 1.510
97.0223 0.990
97.0526 0.937
97.0829 0.781
97.1132 0.729
97.1434 0.885
97.1737 0.937
97.2040 1.250
97.2343 0.885
97.2645 1.146
97.2948 1.094
97.3251 1.146
97.3554 1.250
97.3857 1.094
97.4159 0.781
97.4462 1.250
97.4765 0.469
97.5068 0.781
97.5371 1.250
97.5673 0.833
97.5976 1.406
97.6279 1.042
97.6582 1.198
97.6884 1.042
97.7187 0.990
97.7490 0.990
97.7793 0.937
97.8096 0.677
97.8398 0.833
97.8701 0.469
97.9004 1.510
97.9307 1.094
97.9610 1.302
97.9912 1.250
98.0215 1.094
98.0518 1.562
98.0821 1.406
98.1123 1.406
98.1426 1.771
98.1729 1.667
98.2032 1.719
98.2335 1.771
98.2637 1.198
98.2940 1.510
98.3243 1.510
98.3546 1.771
98.3849 1.927
98.4151 1.667
98.4454 2.344
98.4757 1.823
98.5060 1.354
98.5362 1.615
98.5665 1.927
98.5968 2.135
98.6271 1.615
98.6574 1.406
98.6876 1.927
98.7179 1.771
98.7482 1.823
98.7785 1.354
98.8088 1.354
98.8390 1.302
98.8693 1.302
98.8996 1.302
98.9299 1.823
98.9601 1.042
98.9904 1.719
99.0207 1.198
99.0510 1.094
99.0813 1.406
99.1115 1.354
99.1418 1.562
99.1721 1.146
99.2024 0.937
99.2327 1.250
99.2629 1.510
99.2932 0.990
99.3235 1.302
99.3538 0.885
99.3841 1.042
99.4143 1.146
99.4446 1.354
99.4749 0.990
99.5052 1.406
99.5354 1.042
99.5657 1.406
99.5960 1.042
99.6263 0.573
99.6566 1.094
99.6868 1.042
99.7171 1.250
99.7474 0.937
99.7777 0.781
99.8080 1.042
99.8382 0.677
99.8685 0.729
99.8988 1.146
99.9291 0.990
99.9593 1.146
99.9896 1.094
100.0199 1.146
100.0502 1.250
100.0805 1.094
100.1107 1.094
100.1410 0.833
100.1713 1.042
100.2016 0.521
100.2319 1.302
100.2621 0.990
100.2924 0.781
100.3227 0.885
100.3530 1.406
100.3832 0.990
100.4135 1.042
100.4438 0.937
100.4741 0.833
100.5044 0.937
100.5346 1.302
100.5649 1.302
100.5952 1.198
100.6255 0.781
100.6558 1.042
100.6860 0.833
100.7163 0.677
100.7466 0.469
100.7769 0.781
100.8071 0.885
100.8374 0.885
100.8677 0.833
100.8980 1.146
100.9283 0.937
100.9585 0.781
100.9888 1.198
101.0191 1.146
101.0494 0.885
101.0797 0.781
101.1099 1.302
101.1402 0.990
101.1705 1.042
101.2008 0.885
101.2310 1.094
101.2613 0.677
101.2916 1.406
101.3219 0.677
101.3522 0.937
101.3824 0.729
101.4127 0.781
101.4430 1.406
101.4733 1.302
101.5036 0.781
101.5338 0.990
101.5641 0.781
101.5944 0.885
101.6247 1.094
101.6549 0.990
101.6852 1.094
101.7155 0.885
101.7458 0.729
101.7761 0.990
101.8063 1.354
101.8366 1.354
101.8669 1.146
101.8972 0.937
101.9275 1.250
101.9577 0.781
101.9880 0.990
102.0183 1.042
102.0486 1.250
102.0788 1.146
102.1091 1.406
102.1394 1.146
102.1697 1.771
102.2000 1.198
102.2302 0.833
102.2605 0.833
102.2908 1.042
102.3211 0.937
102.3514 1.406
102.3816 0.937
102.4119 0.781
102.4422 0.885
102.4725 1.198
102.5028 1.354
102.5330 0.833
102.5633 1.406
102.5936 1.146
102.6239 1.354
102.6541 1.615
102.6844 1.667
102.7147 1.458
102.7450 2.292
102.7753 2.031
102.8055 1.979
102.8358 1.458
102.8661 1.927
102.8964 1.146
102.9267 1.667
102.9569 1.354
102.9872 1.302
103.0175 1.354
103.0478 1.458
103.0780 1.354
103.1083 1.719
103.1386 1.146
103.1689 1.458
103.1992 1.406
103.2294 1.875
103.2597 1.615
103.2900 1.198
103.3203 1.406
103.3506 1.354
103.3808 1.146
103.4111 1.250
103.4414 1.250
103.4717 1.615
103.5019 1.771
103.5322 1.667
103.5625 1.927
103.5928 1.250
103.6231 1.302
103.6533 1.875
103.6836 1.146
103.7139 2.396
103.7442 1.823
103.7745 1.927
103.8047 1.562
103.8350 1.562
103.8653 1.875
103.8956 1.406
103.9258 3.333
103.9561 2.292
103.9864 2.500
104.0167 2.708
104.0470 2.344
104.0772 2.135
104.1075 2.135
104.1378 2.292
104.1681 2.344
104.1984 1.667
104.2286 2.031
104.2589 1.979
104.2892 2.083
104.3195 1.927
104.3497 2.083
104.3800 1.667
104.4103 1.354
104.4406 1.406
104.4709 1.615
104.5011 1.979
104.5314 1.458
104.5617 1.458
104.5920 1.198
104.6223 1.250
104.6525 1.615
104.6828 1.406
104.7131 1.250
104.7434 1.302
104.7736 1.354
104.8039 1.302
104.8342 0.990
104.8645 1.458
104.8948 1.250
104.9250 1.406
104.9553 0.937
104.9856 0.885
105.0159 0.937
105.0462 1.042
105.0764 1.250
105.1067 1.042
105.1370 1.146
105.1673 0.573
105.1975 0.990
105.2278 0.781
105.2581 1.042
105.2884 0.937
105.3187 0.885
105.3489 1.042
105.3792 0.990
105.4095 1.146
105.4398 1.510
105.4701 1.354
105.5003 1.198
105.5306 1.146
105.5609 0.833
105.5912 1.250
105.6215 0.937
105.6517 1.094
105.6820 1.146
105.7123 1.354
105.7426 0.833
105.7728 1.250
105.8031 1.198
105.8334 0.990
105.8637 0.885
105.8940 0.885
105.9242 1.458
105.9545 1.198
105.9848 0.885
106.0151 1.094
106.0454 1.250
106.0756 1.094
106.1059 1.250
106.1362 0.885
106.1665 0.781
106.1967 1.667
106.2270 0.990
106.2573 1.198
106.2876 1.042
106.3179 1.198
106.3481 1.042
106.3784 1.198
106.4087 1.198
106.4390 1.042
106.4693 0.885
106.4995 1.198
106.5298 0.937
106.5601 1.042
106.5904 0.885
106.6206 1.042
106.6509 0.833
106.6812 1.250
106.7115 1.146
106.7418 0.937
106.7720 1.458
106.8023 1.250
106.8326 0.990
106.8629 1.354
106.8932 1.198
106.9234 1.354
106.9537 0.885
106.9840 1.250
107.0143 1.094
107.0445 1.094
107.0748 0.885
107.1051 1.198
107.1354 0.937
107.1657 1.458
107.1959 1.250
107.2262 1.094
107.2565 1.042
107.2868 1.094
107.3171 1.094
107.3473 1.667
107.3776 1.302
107.4079 1.354
107.4382 1.146
107.4684 0.937
107.4987 0.885
107.5290 1.667
107.5593 1.250
107.5896 1.042
107.6198 1.146
107.6501 0.885
107.6804 0.990
107.7107 1.042
107.7410 1.250
107.7712 0.937
107.8015 1.042
107.8318 1.406
107.8621 1.302
107.8923 0.990
107.9226 0.937
107.9529 1.406
107.9832 1.250
108.0135 1.250
108.0437 0.781
108.0740 1.562
108.1043 0.990
108.1346 0.990
108.1649 0.937
108.1951 0.937
108.2254 1.302
108.2557 1.042
108.2860 1.458
108.3163 0.990
108.3465 0.990
108.3768 1.406
108.4071 0.990
108.4374 1.198
108.4676 1.198
108.4979 1.146
108.5282 0.677
108.5585 1.042
108.5888 0.885
108.6190 0.937
108.6493 1.406
108.6796 1.458
108.7099 1.302
108.7402 0.990
108.7704 1.198
108.8007 0.990
108.8310 1.458
108.8613 0.937
108.8915 0.937
108.9218 1.042
108.9521 0.937
108.9824 1.198
109.0127 1.042
109.0429 1.198
109.0732 1.406
109.1035 0.937
109.1338 1.302
109.1641 0.990
109.1943 1.562
109.2246 1.146
109.2549 0.833
109.2852 1.198
109.3154 1.146
109.3457 1.458
109.3760 1.562
109.4063 1.562
109.4366 0.990
109.4668 1.042
109.4971 1.615
109.5274 1.354
109.5577 1.094
109.5880 1.146
109.6182 1.094
109.6485 1.510
109.6788 0.937
109.7091 1.771
109.7393 1.719
109.7696 1.042
109.7999 1.094
109.8302 1.458
109.8605 1.198
109.8907 1.510
109.9210 1.250
109.9513 0.885
109.9816 1.250
110.0119 1.719
110.0421 1.458
110.0724 1.979
110.1027 1.771
110.1330 1.458
110.1632 1.615
110.1935 1.719
110.2238 1.823
110.2541 1.927
110.2844 1.615
110.3146 1.719
110.3449 1.458
110.3752 1.615
110.4055 1.667
110.4358 1.927
110.4660 1.354
110.4963 0.990
110.5266 1.823
110.5569 1.510
110.5871 1.667
110.6174 1.562
110.6477 1.510
110.6780 1.667
110.7083 1.458
110.7385 1.562
110.7688 1.615
110.7991 1.927
110.8294 1.458
110.8597 1.250
110.8899 1.510
110.9202 1.042
110.9505 1.198
110.9808 1.562
111.0110 1.667
111.0413 1.042
111.0716 1.146
111.1019 1.198
111.1322 1.406
111.1624 0.990
111.1927 1.302
111.2230 1.458
111.2533 1.302
111.2836 1.302
111.3138 0.990
111.3441 0.937
111.3744 1.042
111.4047 1.094
111.4350 0.990
111.4652 1.562
111.4955 1.250
111.5258 1.406
111.5561 1.094
111.5863 1.354
111.6166 1.146
111.6469 1.042
111.6772 1.458
111.7075 1.198
111.7377 0.990
111.7680 1.458
111.7983 1.042
111.8286 1.406
111.8589 1.354
111.8891 1.302
111.9194 0.937
111.9497 0.990
111.9800 1.250
112.0102 0.885
112.0405 1.198
112.0708 1.146
112.1011 1.562
112.1314 1.354
112.1616 1.094
112.1919 1.354
112.2222 1.302
112.2525 1.354
112.2828 1.094
112.3130 1.042
112.3433 0.833
112.3736 0.990
112.4039 0.990
112.4341 1.198
112.4644 1.146
112.4947 1.146
112.5250 1.146
112.5553 1.615
112.5855 1.458
112.6158 1.250
112.6461 1.198
112.6764 0.937
112.7067 0.885
112.7369 1.198
112.7672 1.094
112.7975 1.146
112.8278 1.823
112.8580 1.042
112.8883 1.615
112.9186 1.510
112.9489 1.615
112.9792 1.042
113.0094 1.250
113.0397 1.198
113.0700 1.146
113.1003 1.198
113.1306 0.781
113.1608 0.937
113.1911 1.198
113.2214 0.990
113.2517 1.250
113.2819 0.729
113.3122 0.833
113.3425 1.302
113.3728 1.198
113.4031 1.042
113.4333 1.094
113.4636 1.406
113.4939 1.094
113.5242 1.667
113.5545 1.250
113.5847 1.250
113.6150 1.146
113.6453 1.250
113.6756 1.406
113.7058 0.937
113.7361 1.354
113.7664 1.510
113.7967 1.094
113.8270 0.990
113.8572 1.094
113.8875 1.406
113.9178 1.146
113.9481 1.250
113.9784 0.990
114.0086 1.302
114.0389 1.406
114.0692 0.990
114.0995 1.198
114.1298 1.406
114.1600 1.198
114.1903 1.354
114.2206 1.406
114.2509 1.146
114.2811 1.094
114.3114 0.937
114.3417 1.354
114.3720 1.823
114.4023 0.990
114.4325 1.094
114.4628 1.094
114.4931 1.094
114.5234 0.990
114.5537 1.354
114.5839 1.406
114.6142 1.458
114.6445 1.250
114.6748 1.562
114.7050 1.094
114.7353 0.833
114.7656 1.562
114.7959 1.198
114.8262 1.354
114.8564 0.990
114.8867 1.823
114.9170 1.094
114.9473 1.406
114.9776 1.927
115.0078 1.615
115.0381 1.146
115.0684 1.094
115.0987 1.406
115.1289 1.458
115.1592 1.250
115.1895 1.615
115.2198 1.042
115.2501 1.458
115.2803 1.823
115.3106 1.562
115.3409 1.823
115.3712 1.042
115.4015 1.510
115.4317 1.198
115.4620 1.615
115.4923 1.615
115.5226 1.771
115.5528 1.510
115.5831 1.302
115.6134 2.448
115.6437 1.615
115.6740 1.719
115.7042 1.927
115.7345 2.604
115.7648 2.031
115.7951 2.031
115.8254 2.240
115.8556 2.135
115.8859 1.771
115.9162 1.719
115.9465 2.448
115.9767 2.083
116.0070 2.969
116.0373 2.604
116.0676 2.344
116.0979 2.396
116.1281 2.448
116.1584 2.500
116.1887 1.875
116.2190 2.240
116.2493 2.865
116.2795 2.031
116.3098 2.500
116.3401 2.656
116.3704 2.656
116.4006 3.021
116.4309 1.875
116.4612 2.552
116.4915 2.187
116.5218 1.875
116.5520 1.927
116.5823 2.552
116.6126 2.240
116.6429 2.187
116.6732 2.083
116.7034 2.604
116.7337 1.979
116.7640 1.667
116.7943 1.562
116.8245 2.240
116.8548 1.875
116.8851 1.302
116.9154 2.083
116.9457 1.406
116.9759 1.302
117.0062 1.562
117.0365 1.094
117.0668 1.979
117.0971 1.146
117.1273 1.354
117.1576 1.562
117.1879 1.615
117.2182 1.354
117.2485 1.562
117.2787 0.677
117.3090 1.458
117.3393 1.302
117.3696 1.250
117.3998 1.250
117.4301 1.146
117.4604 1.510
117.4907 2.083
117.5210 1.771
117.5512 1.042
117.5815 1.354
117.6118 1.458
117.6421 1.406
117.6724 1.146
117.7026 1.458
117.7329 1.146
117.7632 1.667
117.7935 0.937
117.8237 1.302
117.8540 0.937
117.8843 1.302
117.9146 1.198
117.9449 1.250
117.9751 1.250
118.0054 1.510
118.0357 1.510
118.0660 1.562
118.0963 0.573
118.1265 1.406
118.1568 1.354
118.1871 1.042
118.2174 0.885
118.2476 1.250
118.2779 1.250
118.3082 1.406
118.3385 0.990
118.3688 1.146
118.3990 0.937
118.4293 1.510
118.4596 1.198
118.4899 1.458
118.5202 1.042
118.5504 1.042
118.5807 1.250
118.6110 1.354
118.6413 1.406
118.6715 1.042
118.7018 1.042
118.7321 1.302
118.7624 0.990
118.7927 1.198
118.8229 1.667
118.8532 1.250
118.8835 1.302
118.9138 1.771
118.9441 1.146
118.9743 1.354
119.0046 1.094
119.0349 1.198
119.0652 1.094
119.0954 1.146
119.1257 1.302
119.1560 1.042
119.1863 1.094
119.2166 1.094
119.2468 0.677
119.2771 1.146
119.3074 1.510
119.3377 1.406
119.3680 1.510
119.3982 1.146
119.4285 1.510
119.4588 0.937
119.4891 0.990
119.5193 0.990
119.5496 1.406
119.5799 0.990
119.6102 0.729
119.6405 1.094
119.6707 1.615
119.7010 1.562
119.7313 1.094
119.7616 1.458
119.7919 1.302
119.8221 1.146
119.8524 1.198
119.8827 1.250
119.9130 1.719
119.9433 1.198
119.9735 1.302
120.0038 1.198
