'Id: "" Comment: "" Operator: "Lab Manager" Anode: "Cu" Scantype: "Locked Coupled" TimePerStep: "19.2" X: "9999" Y: "9999" Z: "9999" 
10.0015 142.135
10.0318 140.781
10.0620 142.865
10.0923 138.542
10.1226 139.687
10.1529 141.927
10.1832 139.740
10.2134 138.385
10.2437 134.948
10.2740 141.510
10.3043 137.292
10.3346 136.302
10.3648 140.521
10.3951 135.156
10.4254 135.625
10.4557 135.365
10.4859 137.083
10.5162 133.281
10.5465 133.490
10.5768 126.823
10.6071 125.781
10.6373 118.073
10.6676 120.312
10.6979 111.354
10.7282 114.531
10.7585 108.385
10.7887 106.406
10.8190 99.427
10.8493 96.979
10.8796 92.292
10.9098 83.281
10.9401 82.500
10.9704 78.385
11.0007 77.031
11.0310 71.458
11.0612 70.000
11.0915 69.167
11.1218 63.437
11.1521 59.323
11.1824 62.969
11.2126 58.906
11.2429 58.437
11.2732 52.292
11.3035 52.292
11.3337 47.656
11.3640 49.687
11.3943 50.990
11.4246 48.646
11.4549 44.375
11.4851 45.990
11.5154 46.927
11.5457 44.635
11.5760 43.437
11.6063 41.927
11.6365 43.229
11.6668 41.198
11.6971 40.781
11.7274 35.365
11.7577 39.687
11.7879 37.500
11.8182 34.219
11.8485 36.354
11.8788 33.333
11.9090 35.052
11.9393 33.542
11.9696 31.979
11.9999 30.312
12.0302 32.969
12.0604 31.510
12.0907 28.542
12.1210 28.958
12.1513 26.406
12.1816 27.917
12.2118 25.677
12.2421 27.656
12.2724 25.312
12.3027 25.365
12.3329 23.802
12.3632 23.958
12.3935 22.656
12.4238 22.969
12.4541 22.500
12.4843 21.719
12.5146 21.042
12.5449 20.417
12.5752 19.531
12.6055 20.885
12.6357 20.312
12.6660 21.667
12.6963 19.062
12.7266 18.490
12.7568 19.167
12.7871 16.042
12.8174 17.917
12.8477 18.490
12.8780 17.812
12.9082 16.354
12.9385 17.448
12.9688 17.344
12.9991 18.281
13.0294 15.625
13.0596 16.667
13.0899 15.990
13.1202 16.302
13.1505 16.667
13.1807 15.625
13.2110 16.562
13.2413 15.052
13.2716 16.510
13.3019 16.094
13.3321 16.042
13.3624 16.406
13.3927 15.990
13.4230 14.427
13.4533 16.458
13.4835 14.323
13.5138 14.635
13.5441 14.427
13.5744 14.792
13.6046 15.677
13.6349 15.573
13.6652 15.521
13.6955 14.635
13.7258 14.375
13.7560 15.260
13.7863 16.302
13.8166 15.000
13.8469 14.479
13.8772 14.896
13.9074 15.156
13.9377 14.323
13.9680 14.948
13.9983 15.208
14.0285 14.844
14.0588 14.792
14.0891 13.437
14.1194 13.906
14.1497 14.583
14.1799 13.125
14.2102 14.271
14.2405 13.698
14.2708 14.323
14.3011 15.521
14.3313 14.896
14.3616 15.365
14.3919 15.104
14.4222 13.073
14.4524 15.365
14.4827 14.323
14.5130 14.115
14.5433 13.802
14.5736 15.937
14.6038 13.750
14.6341 15.052
14.6644 13.646
14.6947 14.948
14.7250 15.573
14.7552 15.469
14.7855 15.000
14.8158 14.219
14.8461 16.094
14.8764 13.854
14.9066 13.854
14.9369 13.437
14.9672 13.802
14.9975 13.854
15.0277 16.094
15.0580 15.260
15.0883 14.531
15.1186 15.208
15.1489 17.292
15.1791 15.000
15.2094 14.740
15.2397 15.208
15.2700 15.104
15.3003 16.042
15.3305 16.354
15.3608 16.354
15.3911 16.406
15.4214 14.323
15.4516 16.927
15.4819 14.948
15.5122 15.417
15.5425 15.521
15.5728 16.979
15.6030 15.417
15.6333 15.052
15.6636 16.719
15.6939 16.667
15.7242 17.083
15.7544 16.979
15.7847 15.729
15.8150 14.583
15.8453 15.937
15.8755 16.250
15.9058 16.510
15.9361 14.062
15.9664 14.010
15.9967 14.323
16.0269 16.146
16.0572 16.042
16.0875 12.969
16.1178 14.375
16.1481 14.635
16.1783 13.958
16.2086 13.854
16.2389 12.969
16.2692 13.594
16.2994 14.375
16.3297 13.177
16.3600 13.542
16.3903 14.062
16.4206 12.865
16.4508 13.437
16.4811 11.875
16.5114 14.167
16.5417 10.781
16.5720 12.187
16.6022 12.396
16.6325 11.719
16.6628 10.990
16.6931 9.687
16.7233 10.781
16.7536 11.875
16.7839 10.104
16.8142 10.052
16.8445 10.781
16.8747 10.937
16.9050 11.927
16.9353 10.417
16.9656 10.833
16.9959 9.010
17.0261 10.885
17.0564 9.479
17.0867 10.312
17.1170 10.625
17.1472 9.844
17.1775 9.271
17.2078 8.542
17.2381 10.052
17.2684 9.687
17.2986 9.844
17.3289 10.156
17.3592 10.208
17.3895 8.437
17.4198 8.698
17.4500 10.208
17.4803 10.937
17.5106 11.458
17.5409 10.885
17.5712 10.104
17.6014 9.010
17.6317 9.896
17.6620 10.000
17.6923 10.260
17.7225 10.312
17.7528 10.208
17.7831 12.396
17.8134 10.521
17.8437 10.417
17.8739 11.562
17.9042 10.156
17.9345 11.198
17.9648 10.781
17.9951 10.781
18.0253 10.521
18.0556 9.427
18.0859 12.396
18.1162 11.823
18.1464 11.771
18.1767 13.021
18.2070 13.177
18.2373 13.385
18.2676 12.969
18.2978 15.104
18.3281 13.125
18.3584 14.740
18.3887 15.260
18.4190 16.510
18.4492 15.417
18.4795 15.260
18.5098 16.823
18.5401 17.500
18.5703 15.990
18.6006 15.833
18.6309 17.344
18.6612 16.875
18.6915 17.917
18.7217 18.906
18.7520 20.000
18.7823 18.750
18.8126 18.542
18.8429 17.500
18.8731 19.427
18.9034 17.812
18.9337 18.281
18.9640 18.646
18.9942 17.552
19.0245 18.646
19.0548 17.344
19.0851 16.979
19.1154 16.927
19.1456 16.875
19.1759 16.562
19.2062 14.531
19.2365 12.969
19.2668 13.594
19.2970 12.344
19.3273 13.125
19.3576 12.760
19.3879 12.448
19.4181 13.750
19.4484 11.771
19.4787 10.937
19.5090 9.219
19.5393 11.250
19.5695 10.937
19.5998 9.583
19.6301 10.521
19.6604 9.479
19.6907 9.896
19.7209 9.323
19.7512 9.687
19.7815 8.177
19.8118 8.646
19.8420 7.865
19.8723 8.750
19.9026 8.750
19.9329 8.229
19.9632 9.010
19.9934 7.812
20.0237 7.187
20.0540 7.031
20.0843 6.823
20.1146 6.198
20.1448 6.927
20.1751 7.396
20.2054 6.823
20.2357 7.448
20.2659 7.083
20.2962 6.667
20.3265 6.406
20.3568 7.240
20.3871 7.031
20.4173 7.344
20.4476 7.917
20.4779 6.458
20.5082 5.885
20.5385 5.729
20.5687 6.875
20.5990 5.677
20.6293 6.667
20.6596 6.562
20.6899 5.990
20.7201 5.521
20.7504 6.510
20.7807 5.312
20.8110 6.406
20.8412 5.729
20.8715 6.979
20.9018 5.208
20.9321 5.729
20.9624 6.094
20.9926 5.625
21.0229 6.823
21.0532 5.781
21.0835 7.031
21.1138 6.719
21.1440 7.552
21.1743 6.146
21.2046 7.500
21.2349 7.031
21.2651 7.656
21.2954 6.562
21.3257 6.250
21.3560 5.833
21.3863 6.250
21.4165 6.302
21.4468 6.146
21.4771 4.583
21.5074 5.052
21.5377 6.719
21.5679 6.198
21.5982 5.469
21.6285 5.052
21.6588 5.208
21.6890 4.948
21.7193 6.823
21.7496 5.208
21.7799 5.208
21.8102 4.844
21.8404 6.302
21.8707 5.677
21.9010 5.156
21.9313 5.260
21.9616 5.885
21.9918 5.937
22.0221 5.833
22.0524 4.583
22.0827 4.375
22.1129 5.208
22.1432 5.052
22.1735 4.583
22.2038 5.312
22.2341 4.323
22.2643 5.208
22.2946 6.927
22.3249 3.698
22.3552 5.208
22.3855 5.573
22.4157 6.719
22.4460 4.740
22.4763 5.937
22.5066 5.312
22.5368 5.156
22.5671 6.510
22.5974 5.417
22.6277 6.719
22.6580 5.417
22.6882 5.365
22.7185 6.719
22.7488 5.937
22.7791 7.292
22.8094 5.417
22.8396 6.250
22.8699 5.937
22.9002 4.740
22.9305 5.833
22.9607 6.042
22.9910 5.937
23.0213 5.937
23.0516 6.354
23.0819 5.312
23.1121 5.573
23.1424 5.781
23.1727 6.510
23.2030 5.885
23.2333 5.937
23.2635 5.052
23.2938 6.302
23.3241 5.937
23.3544 6.719
23.3846 5.625
23.4149 7.031
23.4452 7.135
23.4755 6.458
23.5058 7.135
23.5360 6.979
23.5663 8.594
23.5966 6.094
23.6269 6.719
23.6572 6.823
23.6874 7.187
23.7177 7.031
23.7480 7.760
23.7783 8.125
23.8086 7.760
23.8388 7.448
23.8691 7.552
23.8994 8.646
23.9297 6.979
23.9599 7.760
23.9902 7.135
24.0205 8.021
24.0508 6.562
24.0811 8.958
24.1113 7.344
24.1416 7.760
24.1719 7.708
24.2022 8.594
24.2325 9.010
24.2627 9.062
24.2930 8.542
24.3233 9.375
24.3536 7.708
24.3838 9.219
24.4141 8.594
24.4444 8.229
24.4747 9.323
24.5050 11.250
24.5352 8.802
24.5655 8.958
24.5958 10.625
24.6261 8.437
24.6564 10.156
24.6866 10.260
24.7169 8.854
24.7472 7.812
24.7775 10.208
24.8077 9.062
24.8380 9.375
24.8683 9.323
24.8986 9.115
24.9289 9.948
24.9591 9.948
24.9894 10.885
25.0197 10.365
25.0500 10.937
25.0803 9.323
25.1105 10.625
25.1408 11.354
25.1711 11.719
25.2014 10.990
25.2316 9.844
25.2619 11.927
25.2922 11.250
25.3225 11.146
25.3528 11.927
25.3830 12.969
25.4133 12.552
25.4436 11.615
25.4739 14.792
25.5042 13.958
25.5344 13.802
25.5647 12.187
25.5950 12.604
25.6253 11.146
25.6555 12.292
25.6858 11.979
25.7161 13.125
25.7464 12.500
25.7767 12.500
25.8069 13.073
25.8372 12.708
25.8675 12.917
25.8978 12.656
25.9281 11.302
25.9583 10.260
25.9886 11.719
26.0189 11.719
26.0492 12.604
26.0794 11.771
26.1097 12.865
26.1400 11.354
26.1703 12.812
26.2006 11.562
26.2308 12.604
26.2611 13.281
26.2914 14.740
26.3217 13.073
26.3520 12.656
26.3822 14.375
26.4125 13.542
26.4428 14.687
26.4731 14.271
26.5034 12.865
26.5336 14.219
26.5639 16.510
26.5942 15.625
26.6245 15.990
26.6547 16.771
26.6850 17.031
26.7153 16.354
26.7456 17.656
26.7759 18.490
26.8061 17.969
26.8364 18.125
26.8667 18.646
26.8970 18.958
26.9273 18.854
26.9575 18.490
26.9878 21.302
27.0181 19.583
27.0484 19.844
27.0786 21.198
27.1089 19.479
27.1392 21.250
27.1695 19.167
27.1998 20.104
27.2300 19.531
27.2603 18.802
27.2906 19.010
27.3209 19.010
27.3512 17.083
27.3814 19.531
27.4117 19.531
27.4420 16.458
27.4723 17.396
27.5025 17.604
27.5328 19.844
27.5631 19.010
27.5934 17.083
27.6237 17.083
27.6539 16.667
27.6842 17.031
27.7145 18.021
27.7448 16.302
27.7751 18.594
27.8053 17.083
27.8356 17.812
27.8659 15.365
27.8962 17.656
27.9264 16.510
27.9567 16.042
27.9870 17.760
28.0173 14.948
28.0476 16.875
28.0778 16.042
28.1081 16.562
28.1384 17.656
28.1687 16.615
28.1990 16.562
28.2292 15.937
28.2595 15.625
28.2898 17.292
28.3201 16.198
28.3503 16.406
28.3806 14.687
28.4109 17.760
28.4412 15.573
28.4715 15.052
28.5017 15.260
28.5320 13.646
28.5623 14.948
28.5926 15.833
28.6229 15.104
28.6531 14.844
28.6834 13.958
28.7137 13.646
28.7440 12.083
28.7742 12.656
28.8045 12.969
28.8348 12.656
28.8651 11.927
28.8954 11.927
28.9256 12.083
28.9559 12.656
28.9862 10.417
29.0165 10.000
29.0468 10.937
29.0770 10.990
29.1073 10.156
29.1376 9.375
29.1679 8.594
29.1981 8.906
29.2284 9.167
29.2587 8.646
29.2890 8.854
29.3193 9.219
29.3495 8.542
29.3798 6.615
29.4101 8.958
29.4404 7.760
29.4707 7.865
29.5009 8.958
29.5312 7.865
29.5615 7.604
29.5918 8.177
29.6221 8.177
29.6523 8.125
29.6826 6.250
29.7129 7.031
29.7432 7.656
29.7734 7.552
29.8037 7.240
29.8340 5.990
29.8643 6.719
29.8946 6.458
29.9248 7.396
29.9551 6.354
29.9854 7.708
30.0157 6.771
30.0460 6.198
30.0762 6.250
30.1065 6.667
30.1368 5.729
30.1671 5.677
30.1973 6.198
30.2276 5.885
30.2579 6.875
30.2882 5.781
30.3185 5.885
30.3487 6.042
30.3790 6.354
30.4093 5.469
30.4396 4.635
30.4699 6.615
30.5001 6.354
30.5304 6.198
30.5607 5.781
30.5910 6.719
30.6212 5.781
30.6515 5.260
30.6818 6.250
30.7121 6.510
30.7424 6.146
30.7726 6.927
30.8029 5.625
30.8332 6.406
30.8635 5.781
30.8938 6.354
30.9240 6.042
30.9543 5.417
30.9846 6.927
31.0149 6.302
31.0451 5.729
31.0754 5.417
31.1057 5.781
31.1360 6.198
31.1663 6.250
31.1965 7.240
31.2268 6.198
31.2571 5.625
31.2874 5.885
31.3177 6.771
31.3479 6.094
31.3782 6.146
31.4085 6.667
31.4388 5.937
31.4690 5.885
31.4993 5.312
31.5296 5.521
31.5599 6.198
31.5902 5.625
31.6204 8.021
31.6507 6.302
31.6810 6.042
31.7113 5.937
31.7416 6.146
31.7718 5.937
31.8021 5.156
31.8324 6.198
31.8627 5.781
31.8929 5.885
31.9232 5.469
31.9535 5.365
31.9838 4.375
32.0141 4.740
32.0443 5.469
32.0746 5.365
32.1049 5.156
32.1352 4.115
32.1655 5.833
32.1957 5.573
32.2260 5.000
32.2563 4.740
32.2866 5.417
32.3169 5.312
32.3471 4.896
32.3774 5.312
32.4077 5.573
32.4380 4.844
32.4682 4.427
32.4985 4.948
32.5288 5.573
32.5591 5.677
32.5894 6.667
32.6196 5.885
32.6499 6.719
32.6802 6.875
32.7105 6.823
32.7408 7.760
32.7710 6.823
32.8013 6.406
32.8316 7.083
32.8619 6.042
32.8921 6.302
32.9224 6.094
32.9527 6.302
32.9830 5.365
33.0133 5.365
33.0435 5.104
33.0738 5.104
33.1041 4.896
33.1344 5.365
33.1647 5.677
33.1949 4.687
33.2252 5.469
33.2555 5.260
33.2858 4.427
33.3160 4.896
33.3463 3.854
33.3766 4.271
33.4069 4.948
33.4372 3.802
33.4674 4.479
33.4977 4.635
33.5280 4.844
33.5583 4.479
33.5886 4.583
33.6188 4.479
33.6491 4.479
33.6794 4.427
33.7097 3.750
33.7399 4.115
33.7702 4.219
33.8005 4.583
33.8308 4.427
33.8611 4.583
33.8913 3.958
33.9216 4.271
33.9519 4.479
33.9822 4.323
34.0125 3.906
34.0427 5.052
34.0730 3.594
34.1033 5.104
34.1336 4.167
34.1638 3.750
34.1941 5.052
34.2244 5.312
34.2547 4.687
34.2850 4.531
34.3152 5.052
34.3455 3.750
34.3758 4.115
34.4061 5.312
34.4364 4.844
34.4666 4.583
34.4969 4.010
34.5272 4.792
34.5575 4.740
34.5877 4.375
34.6180 4.375
34.6483 4.583
34.6786 4.844
34.7089 4.635
34.7391 4.531
34.7694 4.375
34.7997 4.167
34.8300 4.531
34.8603 4.687
34.8905 5.260
34.9208 4.896
34.9511 3.906
34.9814 4.167
35.0116 4.219
35.0419 4.844
35.0722 3.906
35.1025 4.271
35.1328 3.594
35.1630 4.427
35.1933 4.375
35.2236 4.375
35.2539 4.687
35.2842 5.677
35.3144 5.156
35.3447 4.479
35.3750 4.948
35.4053 6.146
35.4356 5.573
35.4658 5.417
35.4961 4.687
35.5264 5.469
35.5567 6.146
35.5869 6.354
35.6172 5.781
35.6475 5.156
35.6778 5.469
35.7081 5.833
35.7383 6.250
35.7686 5.365
35.7989 5.885
35.8292 5.990
35.8595 4.948
35.8897 4.948
35.9200 5.677
35.9503 5.990
35.9806 7.500
36.0108 5.312
36.0411 5.104
36.0714 5.312
36.1017 5.469
36.1320 5.365
36.1622 6.250
36.1925 4.844
36.2228 5.885
36.2531 5.469
36.2834 5.208
36.3136 3.906
36.3439 4.844
36.3742 5.156
36.4045 5.052
36.4347 5.104
36.4650 4.531
36.4953 4.427
36.5256 4.792
36.5559 4.115
36.5861 4.740
36.6164 4.271
36.6467 3.385
36.6770 4.323
36.7073 4.740
36.7375 4.583
36.7678 3.958
36.7981 4.062
36.8284 3.854
36.8586 5.312
36.8889 4.115
36.9192 3.854
36.9495 3.437
36.9798 4.115
37.0100 4.219
37.0403 3.698
37.0706 4.740
37.1009 4.271
37.1312 3.594
37.1614 5.104
37.1917 4.115
37.2220 4.115
37.2523 4.531
37.2825 3.698
37.3128 4.271
37.3431 3.906
37.3734 3.854
37.4037 4.271
37.4339 5.156
37.4642 3.594
37.4945 3.906
37.5248 3.698
37.5551 4.062
37.5853 4.010
37.6156 3.073
37.6459 4.427
37.6762 3.698
37.7064 3.906
37.7367 4.115
37.7670 3.594
37.7973 4.062
37.8276 3.854
37.8578 3.542
37.8881 4.896
37.9184 5.000
37.9487 4.792
37.9790 3.906
38.0092 4.219
38.0395 3.958
38.0698 4.219
38.1001 3.958
38.1304 3.802
38.1606 4.583
38.1909 4.323
38.2212 4.740
38.2515 4.427
38.2817 3.906
38.3120 4.323
38.3423 3.854
38.3726 3.802
38.4029 3.906
38.4331 3.125
38.4634 3.229
38.4937 3.750
38.5240 3.802
38.5543 4.271
38.5845 3.698
38.6148 2.969
38.6451 3.958
38.6754 3.021
38.7056 3.229
38.7359 3.021
38.7662 2.760
38.7965 3.177
38.8268 3.229
38.8570 3.646
38.8873 3.021
38.9176 3.333
38.9479 2.708
38.9782 3.229
39.0084 3.177
39.0387 3.021
39.0690 3.594
39.0993 2.187
39.1295 3.750
39.1598 3.437
39.1901 3.594
39.2204 3.021
39.2507 3.125
39.2809 2.812
39.3112 3.177
39.3415 3.437
39.3718 2.865
39.4021 2.031
39.4323 2.760
39.4626 2.865
39.4929 3.073
39.5232 2.031
39.5534 3.490
39.5837 2.969
39.6140 3.021
39.6443 2.240
39.6746 2.656
39.7048 3.229
39.7351 2.760
39.7654 2.917
39.7957 2.708
39.8260 2.969
39.8562 3.281
39.8865 3.073
39.9168 2.917
39.9471 3.281
39.9773 2.552
40.0076 3.021
40.0379 3.281
40.0682 2.500
40.0985 2.917
40.1287 3.177
40.1590 2.969
40.1893 3.125
40.2196 3.021
40.2499 2.969
40.2801 3.333
40.3104 3.594
40.3407 2.604
40.3710 4.167
40.4012 3.333
40.4315 3.385
40.4618 2.865
40.4921 2.969
40.5224 3.125
40.5526 3.333
40.5829 3.958
40.6132 2.552
40.6435 3.646
40.6738 4.271
40.7040 3.125
40.7343 3.125
40.7646 3.490
40.7949 3.333
40.8251 4.062
40.8554 3.177
40.8857 3.125
40.9160 3.021
40.9463 3.125
40.9765 2.917
41.0068 3.646
41.0371 3.646
41.0674 3.698
41.0977 3.333
41.1279 3.594
41.1582 2.917
41.1885 3.125
41.2188 2.604
41.2491 3.385
41.2793 3.229
41.3096 2.344
41.3399 2.708
41.3702 2.760
41.4004 3.958
41.4307 3.385
41.4610 3.177
41.4913 3.437
41.5216 2.865
41.5518 3.490
41.5821 2.917
41.6124 2.656
41.6427 3.177
41.6730 2.917
41.7032 2.812
41.7335 3.854
41.7638 3.125
41.7941 2.969
41.8243 3.281
41.8546 2.708
41.8849 3.177
41.9152 2.969
41.9455 2.656
41.9757 3.385
42.0060 2.448
42.0363 2.344
42.0666 3.333
42.0969 2.135
42.1271 2.240
42.1574 2.656
42.1877 2.656
42.2180 3.073
42.2482 3.073
42.2785 2.083
42.3088 3.490
42.3391 2.500
42.3694 2.812
42.3996 2.552
42.4299 2.344
42.4602 2.865
42.4905 3.073
42.5208 2.708
42.5510 2.031
42.5813 3.073
42.6116 2.292
42.6419 3.073
42.6721 2.552
42.7024 2.083
42.7327 3.281
42.7630 2.500
42.7933 2.500
42.8235 2.917
42.8538 3.021
42.8841 2.135
42.9144 3.177
42.9447 3.021
42.9749 2.344
43.0052 2.969
43.0355 2.344
43.0658 2.240
43.0960 2.656
43.1263 1.875
43.1566 2.865
43.1869 2.292
43.2172 2.500
43.2474 2.604
43.2777 2.396
43.3080 2.812
43.3383 2.240
43.3686 2.969
43.3988 2.396
43.4291 2.396
43.4594 2.083
43.4897 2.396
43.5199 2.396
43.5502 2.344
43.5805 2.240
43.6108 2.500
43.6411 2.552
43.6713 2.917
43.7016 2.708
43.7319 2.396
43.7622 2.344
43.7925 2.292
43.8227 2.656
43.8530 2.917
43.8833 2.604
43.9136 2.500
43.9439 2.812
43.9741 1.562
44.0044 2.917
44.0347 1.875
44.0650 2.135
44.0952 2.344
44.1255 2.135
44.1558 2.292
44.1861 2.708
44.2164 2.552
44.2466 2.969
44.2769 2.656
44.3072 2.865
44.3375 2.500
44.3678 1.979
44.3980 2.448
44.4283 2.656
44.4586 2.396
44.4889 2.604
44.5191 2.500
44.5494 2.760
44.5797 2.917
44.6100 2.656
44.6403 2.969
44.6705 2.708
44.7008 2.344
44.7311 2.292
44.7614 3.021
44.7917 2.865
44.8219 2.604
44.8522 2.865
44.8825 2.344
44.9128 2.708
44.9430 2.760
44.9733 2.656
45.0036 2.969
45.0339 2.396
45.0642 2.344
45.0944 2.812
45.1247 2.812
45.1550 2.552
45.1853 2.760
45.2156 3.385
45.2458 2.812
45.2761 2.448
45.3064 2.708
45.3367 2.812
45.3669 2.448
45.3972 2.760
45.4275 2.708
45.4578 2.865
45.4881 2.344
45.5183 2.604
45.5486 3.021
45.5789 2.240
45.6092 3.490
45.6395 2.812
45.6697 2.969
45.7000 3.594
45.7303 3.021
45.7606 3.073
45.7908 2.135
45.8211 2.604
45.8514 3.333
45.8817 2.396
45.9120 1.979
45.9422 2.292
45.9725 2.344
46.0028 3.281
46.0331 2.187
46.0634 2.292
46.0936 2.865
46.1239 2.604
46.1542 3.021
46.1845 2.708
46.2147 2.865
46.2450 3.229
46.2753 2.135
46.3056 2.344
46.3359 2.656
46.3661 2.083
46.3964 3.437
46.4267 2.812
46.4570 2.344
46.4873 2.865
46.5175 2.865
46.5478 2.292
46.5781 2.396
46.6084 2.292
46.6386 2.812
46.6689 2.656
46.6992 2.292
46.7295 2.604
46.7598 2.292
46.7900 2.917
46.8203 1.823
46.8506 2.865
46.8809 2.760
46.9112 3.125
46.9414 2.500
46.9717 2.031
47.0020 1.979
47.0323 3.021
47.0626 3.854
47.0928 2.604
47.1231 3.229
47.1534 3.698
47.1837 4.010
47.2139 2.500
47.2442 3.281
47.2745 2.865
47.3048 3.906
47.3351 2.448
47.3653 3.490
47.3956 2.344
47.4259 3.802
47.4562 3.333
47.4865 3.229
47.5167 4.062
47.5470 3.542
47.5773 3.177
47.6076 3.021
47.6378 2.552
47.6681 3.281
47.6984 3.177
47.7287 3.281
47.7590 2.604
47.7892 3.125
47.8195 3.437
47.8498 3.177
47.8801 3.437
47.9104 3.750
47.9406 2.865
47.9709 3.177
48.0012 2.500
48.0315 3.594
48.0617 3.125
48.0920 3.021
48.1223 3.802
48.1526 3.281
48.1829 3.542
48.2131 3.177
48.2434 2.552
48.2737 2.552
48.3040 3.646
48.3343 3.958
48.3645 4.271
48.3948 3.594
48.4251 3.594
48.4554 4.271
48.4856 4.219
48.5159 3.542
48.5462 3.229
48.5765 4.219
48.6068 3.594
48.6370 3.177
48.6673 3.958
48.6976 3.333
48.7279 3.490
48.7582 4.167
48.7884 3.437
48.8187 4.740
48.8490 4.635
48.8793 4.687
48.9095 3.594
48.9398 4.010
48.9701 3.750
49.0004 3.698
49.0307 4.479
49.0609 4.740
49.0912 4.687
49.1215 4.062
49.1518 4.219
49.1821 4.792
49.2123 4.323
49.2426 4.271
49.2729 3.958
49.3032 5.000
49.3334 4.479
49.3637 4.479
49.3940 4.010
49.4243 3.594
49.4546 3.906
49.4848 3.750
49.5151 4.323
49.5454 5.052
49.5757 4.323
49.6060 4.687
49.6362 4.531
49.6665 3.854
49.6968 3.437
49.7271 4.323
49.7574 4.844
49.7876 4.687
49.8179 4.323
49.8482 5.052
49.8785 4.375
49.9087 3.802
49.9390 5.052
49.9693 4.948
49.9996 4.479
50.0299 5.625
50.0601 5.260
50.0904 5.365
50.1207 4.583
50.1510 4.323
50.1813 3.906
50.2115 4.531
50.2418 5.104
50.2721 4.740
50.3024 4.427
50.3326 4.740
50.3629 4.062
50.3932 4.583
50.4235 4.687
50.4538 4.740
50.4840 4.375
50.5143 4.115
50.5446 5.312
50.5749 5.365
50.6052 5.365
50.6354 5.677
50.6657 3.854
50.6960 4.792
50.7263 4.010
50.7565 5.260
50.7868 5.990
50.8171 4.531
50.8474 4.583
50.8777 5.625
50.9079 4.896
50.9382 4.375
50.9685 5.312
50.9988 4.427
51.0291 4.219
51.0593 4.115
51.0896 5.469
51.1199 5.104
51.1502 4.271
51.1804 5.052
51.2107 5.208
51.2410 4.427
51.2713 5.417
51.3016 4.948
51.3318 5.417
51.3621 5.312
51.3924 4.844
51.4227 5.260
51.4530 4.583
51.4832 3.854
51.5135 4.635
51.5438 4.792
51.5741 5.573
51.6043 3.906
51.6346 4.427
51.6649 5.417
51.6952 5.104
51.7255 5.104
51.7557 4.740
51.7860 4.531
51.8163 4.479
51.8466 3.646
51.8769 4.062
51.9071 4.062
51.9374 4.687
51.9677 4.427
51.9980 4.375
52.0282 4.375
52.0585 5.312
52.0888 3.125
52.1191 3.750
52.1494 4.271
52.1796 3.646
52.2099 4.219
52.2402 3.490
52.2705 3.594
52.3008 4.844
52.3310 3.958
52.3613 3.906
52.3916 3.594
52.4219 4.167
52.4521 3.490
52.4824 4.583
52.5127 3.385
52.5430 3.490
52.5733 3.177
52.6035 4.062
52.6338 4.115
52.6641 4.167
52.6944 3.906
52.7247 3.333
52.7549 3.906
52.7852 4.010
52.8155 4.115
52.8458 3.906
52.8761 3.594
52.9063 3.385
52.9366 4.687
52.9669 3.906
52.9972 3.698
53.0274 4.740
53.0577 4.010
53.0880 3.750
53.1183 3.802
53.1486 3.750
53.1788 4.635
53.2091 3.333
53.2394 3.281
53.2697 3.594
53.3000 3.073
53.3302 3.958
53.3605 3.437
53.3908 4.531
53.4211 3.073
53.4513 3.490
53.4816 3.750
53.5119 4.479
53.5422 3.437
53.5725 4.115
53.6027 3.646
53.6330 3.385
53.6633 3.385
53.6936 4.167
53.7239 3.854
53.7541 4.583
53.7844 4.062
53.8147 3.854
53.8450 3.802
53.8752 3.073
53.9055 3.490
53.9358 2.917
53.9661 3.646
53.9964 3.854
54.0266 3.594
54.0569 3.229
54.0872 3.854
54.1175 3.125
54.1478 4.062
54.1780 3.229
54.2083 3.385
54.2386 4.010
54.2689 2.969
54.2991 3.385
54.3294 3.125
54.3597 4.010
54.3900 3.177
54.4203 3.698
54.4505 3.281
54.4808 2.969
54.5111 3.385
54.5414 3.021
54.5717 3.177
54.6019 3.177
54.6322 3.281
54.6625 3.698
54.6928 3.073
54.7230 3.698
54.7533 3.177
54.7836 3.021
54.8139 3.021
54.8442 3.646
54.8744 4.479
54.9047 3.385
54.9350 2.448
54.9653 3.125
54.9956 3.594
55.0258 3.958
55.0561 3.490
55.0864 3.021
55.1167 3.958
55.1469 3.177
55.1772 3.229
55.2075 4.010
55.2378 3.229
55.2681 3.542
55.2983 4.167
55.3286 3.750
55.3589 3.490
55.3892 3.802
55.4195 3.646
55.4497 3.906
55.4800 3.906
55.5103 4.479
55.5406 4.531
55.5709 3.437
55.6011 4.427
55.6314 3.229
55.6617 3.750
55.6920 3.490
55.7222 3.594
55.7525 4.115
55.7828 4.219
55.8131 4.167
55.8434 3.750
55.8736 4.115
55.9039 4.271
55.9342 4.167
55.9645 2.760
55.9948 3.594
56.0250 3.490
56.0553 3.125
56.0856 3.542
56.1159 3.073
56.1461 3.698
56.1764 2.760
56.2067 4.062
56.2370 2.240
56.2673 3.021
56.2975 3.698
56.3278 2.396
56.3581 2.917
56.3884 2.656
56.4187 3.542
56.4489 2.969
56.4792 2.812
56.5095 2.240
56.5398 2.969
56.5700 2.760
56.6003 2.760
56.6306 2.187
56.6609 2.083
56.6912 2.396
56.7214 2.500
56.7517 2.552
56.7820 3.073
56.8123 2.448
56.8426 2.656
56.8728 2.917
56.9031 2.917
56.9334 3.073
56.9637 2.448
56.9939 2.917
57.0242 2.083
57.0545 2.448
57.0848 3.021
57.1151 2.135
57.1453 2.604
57.1756 2.292
57.2059 2.292
57.2362 1.979
57.2665 2.500
57.2967 3.229
57.3270 2.396
57.3573 2.240
57.3876 2.292
57.4178 2.917
57.4481 2.292
57.4784 3.125
57.5087 2.708
57.5390 2.187
57.5692 2.708
57.5995 2.604
57.6298 2.240
57.6601 2.552
57.6904 2.292
57.7206 2.135
57.7509 3.073
57.7812 2.812
57.8115 2.240
57.8417 2.031
57.8720 2.812
57.9023 2.448
57.9326 2.240
57.9629 2.656
57.9931 2.396
58.0234 2.604
58.0537 3.385
58.0840 2.604
58.1143 2.500
58.1445 2.917
58.1748 2.187
58.2051 2.865
58.2354 2.969
58.2656 2.552
58.2959 2.708
58.3262 2.448
58.3565 3.333
58.3868 3.125
58.4170 3.333
58.4473 3.542
58.4776 2.969
58.5079 3.437
58.5382 3.281
58.5684 3.333
58.5987 3.073
58.6290 3.542
58.6593 3.437
58.6896 3.437
58.7198 2.292
58.7501 2.292
58.7804 2.604
58.8107 3.125
58.8409 2.552
58.8712 2.240
58.9015 3.802
58.9318 2.500
58.9621 3.594
58.9923 2.500
59.0226 3.125
59.0529 2.865
59.0832 3.177
59.1135 3.490
59.1437 3.385
59.1740 3.594
59.2043 2.865
59.2346 3.281
59.2648 2.760
59.2951 3.281
59.3254 3.646
59.3557 2.760
59.3860 3.385
59.4162 3.125
59.4465 2.969
59.4768 2.500
59.5071 2.969
59.5374 2.917
59.5676 4.062
59.5979 3.073
59.6282 2.552
59.6585 2.500
59.6887 3.125
59.7190 3.021
59.7493 3.229
59.7796 3.750
59.8099 2.812
59.8401 3.125
59.8704 2.969
59.9007 3.073
59.9310 3.125
59.9613 3.333
59.9915 2.812
60.0218 3.021
60.0521 2.812
60.0824 3.021
60.1126 3.125
60.1429 3.073
60.1732 3.021
60.2035 3.177
60.2338 3.021
60.2640 2.969
60.2943 3.437
60.3246 2.917
60.3549 2.812
60.3852 2.969
60.4154 3.594
60.4457 2.656
60.4760 3.021
60.5063 3.125
60.5365 2.500
60.5668 3.490
60.5971 3.177
60.6274 2.760
60.6577 3.333
60.6879 2.708
60.7182 3.125
60.7485 2.656
60.7788 2.552
60.8091 2.656
60.8393 2.865
60.8696 2.656
60.8999 2.292
60.9302 2.604
60.9604 2.396
60.9907 2.865
61.0210 2.500
61.0513 2.865
61.0816 2.865
61.1118 2.760
61.1421 2.187
61.1724 2.448
61.2027 2.083
61.2330 2.604
61.2632 2.812
61.2935 3.177
61.3238 1.927
61.3541 2.656
61.3844 3.229
61.4146 2.656
61.4449 1.927
61.4752 2.656
61.5055 2.969
61.5357 2.865
61.5660 1.979
61.5963 2.865
61.6266 2.812
61.6569 3.646
61.6871 2.812
61.7174 3.073
61.7477 2.552
61.7780 2.604
61.8083 3.021
61.8385 2.969
61.8688 2.604
61.8991 3.229
61.9294 2.865
61.9596 2.656
61.9899 2.969
62.0202 2.604
62.0505 2.969
62.0808 3.229
62.1110 3.281
62.1413 2.760
62.1716 3.698
62.2019 3.437
62.2322 2.604
62.2624 2.865
62.2927 2.552
62.3230 3.594
62.3533 3.125
62.3835 3.177
62.4138 2.969
62.4441 3.229
62.4744 2.969
62.5047 3.229
62.5349 3.750
62.5652 3.021
62.5955 3.437
62.6258 3.698
62.6561 3.333
62.6863 2.969
62.7166 3.542
62.7469 2.812
62.7772 3.333
62.8074 2.917
62.8377 3.281
62.8680 3.385
62.8983 3.437
62.9286 2.917
62.9588 3.073
62.9891 3.437
63.0194 4.010
63.0497 3.229
63.0800 3.125
63.1102 3.594
63.1405 3.229
63.1708 2.604
63.2011 2.969
63.2313 3.646
63.2616 3.333
63.2919 3.437
63.3222 3.021
63.3525 3.125
63.3827 3.333
63.4130 3.542
63.4433 3.437
63.4736 3.073
63.5039 3.333
63.5341 3.594
63.5644 3.281
63.5947 3.177
63.6250 3.177
63.6552 2.240
63.6855 3.073
63.7158 2.135
63.7461 3.073
63.7764 3.542
63.8066 3.229
63.8369 3.542
63.8672 2.500
63.8975 3.229
63.9278 3.229
63.9580 2.969
63.9883 3.021
64.0186 3.385
64.0489 3.385
64.0791 3.750
64.1094 3.750
64.1397 2.865
64.1700 3.073
64.2003 2.917
64.2305 3.333
64.2608 3.750
64.2911 2.604
64.3214 2.760
64.3517 2.656
64.3819 3.333
64.4122 3.281
64.4425 2.865
64.4728 3.281
64.5031 3.229
64.5333 2.917
64.5636 2.708
64.5939 3.281
64.6242 3.125
64.6544 3.073
64.6847 2.917
64.7150 2.812
64.7453 3.229
64.7756 3.594
64.8058 1.979
64.8361 2.448
64.8664 2.708
64.8967 2.708
64.9270 3.542
64.9572 2.865
64.9875 2.240
65.0178 2.656
65.0481 2.448
65.0783 2.708
65.1086 2.656
65.1389 2.812
65.1692 2.448
65.1995 2.708
65.2297 2.083
65.2600 2.292
65.2903 2.135
65.3206 2.604
65.3509 2.552
65.3811 2.344
65.4114 2.396
65.4417 1.927
65.4720 2.031
65.5022 2.500
65.5325 2.448
65.5628 1.875
65.5931 1.823
65.6234 1.406
65.6536 1.875
65.6839 1.927
65.7142 1.667
65.7445 2.448
65.7748 1.927
65.8050 2.135
65.8353 1.771
65.8656 1.510
65.8959 1.927
65.9261 2.240
65.9564 2.604
65.9867 1.510
66.0170 2.135
66.0473 1.406
66.0775 1.979
66.1078 2.187
66.1381 2.031
66.1684 1.667
66.1987 1.667
66.2289 2.031
66.2592 2.396
66.2895 2.083
66.3198 1.979
66.3500 2.292
66.3803 2.135
66.4106 2.187
66.4409 2.344
66.4712 1.667
66.5014 2.187
66.5317 2.917
66.5620 1.927
66.5923 1.458
66.6226 1.771
66.6528 2.187
66.6831 1.875
66.7134 2.083
66.7437 2.552
66.7739 2.187
66.8042 1.823
66.8345 1.771
66.8648 1.562
66.8951 1.719
66.9253 1.875
66.9556 1.927
66.9859 1.719
67.0162 1.719
67.0465 1.875
67.0767 1.875
67.1070 1.771
67.1373 1.094
67.1676 2.240
67.1978 1.771
67.2281 2.135
67.2584 1.562
67.2887 2.135
67.3190 1.146
67.3492 1.562
67.3795 1.510
67.4098 1.302
67.4401 1.719
67.4704 1.510
67.5006 2.187
67.5309 1.927
67.5612 1.510
67.5915 1.667
67.6218 2.135
67.6520 1.823
67.6823 1.875
67.7126 1.823
67.7429 1.823
67.7731 1.979
67.8034 1.302
67.8337 1.719
67.8640 1.875
67.8943 1.302
67.9245 2.187
67.9548 1.198
67.9851 1.823
68.0154 1.823
68.0457 2.135
68.0759 1.302
68.1062 1.875
68.1365 1.406
68.1668 1.667
68.1970 2.187
68.2273 1.875
68.2576 2.292
68.2879 1.979
68.3182 1.719
68.3484 2.344
68.3787 1.823
68.4090 1.510
68.4393 1.979
68.4696 1.823
68.4998 2.344
68.5301 2.448
68.5604 1.927
68.5907 2.187
68.6209 2.135
68.6512 2.031
68.6815 2.240
68.7118 1.458
68.7421 1.927
68.7723 1.771
68.8026 1.562
68.8329 1.927
68.8632 1.458
68.8935 2.292
68.9237 2.187
68.9540 1.302
68.9843 2.292
69.0146 1.823
69.0448 1.719
69.0751 2.083
69.1054 1.823
69.1357 1.771
69.1660 2.500
69.1962 2.396
69.2265 1.406
69.2568 1.823
69.2871 1.823
69.3174 2.292
69.3476 1.406
69.3779 1.875
69.4082 2.240
69.4385 1.823
69.4687 2.240
69.4990 2.187
69.5293 2.240
69.5596 1.927
69.5899 2.344
69.6201 2.500
69.6504 1.875
69.6807 2.031
69.7110 1.771
69.7413 1.667
69.7715 1.615
69.8018 1.979
69.8321 1.927
69.8624 1.719
69.8926 2.604
69.9229 1.667
69.9532 2.292
69.9835 1.927
70.0138 1.719
70.0440 1.406
70.0743 2.187
70.1046 2.187
70.1349 1.875
70.1652 1.510
70.1954 1.719
70.2257 1.354
70.2560 2.187
70.2863 2.031
70.3166 1.615
70.3468 1.615
70.3771 1.406
70.4074 1.510
70.4377 1.771
70.4679 1.875
70.4982 1.823
70.5285 1.562
70.5588 2.031
70.5891 1.823
70.6193 2.083
70.6496 1.510
70.6799 2.031
70.7102 1.667
70.7405 1.771
70.7707 1.771
70.8010 1.927
70.8313 1.562
70.8616 1.667
70.8918 1.354
70.9221 2.031
70.9524 2.760
70.9827 1.875
71.0130 1.667
71.0432 1.042
71.0735 1.771
71.1038 1.667
71.1341 1.875
71.1644 1.562
71.1946 1.510
71.2249 2.031
71.2552 1.875
71.2855 1.302
71.3157 2.031
71.3460 1.615
71.3763 1.771
71.4066 1.562
71.4369 1.875
71.4671 2.031
71.4974 1.823
71.5277 1.250
71.5580 1.823
71.5883 1.771
71.6185 1.979
71.6488 1.198
71.6791 1.510
71.7094 1.823
71.7396 2.292
71.7699 1.510
71.8002 1.823
71.8305 1.875
71.8608 1.771
71.8910 1.771
71.9213 1.719
71.9516 1.771
71.9819 2.083
72.0122 2.031
72.0424 1.667
72.0727 1.667
72.1030 1.927
72.1333 2.083
72.1635 1.771
72.1938 1.406
72.2241 1.927
72.2544 1.875
72.2847 1.458
72.3149 1.719
72.3452 1.667
72.3755 1.667
72.4058 1.771
72.4361 1.719
72.4663 1.562
72.4966 1.823
72.5269 1.302
72.5572 1.823
72.5874 2.031
72.6177 1.250
72.6480 1.615
72.6783 2.240
72.7086 1.875
72.7388 1.719
72.7691 1.667
72.7994 1.510
72.8297 1.667
72.8600 1.250
72.8902 1.719
72.9205 1.615
72.9508 1.458
72.9811 2.031
73.0113 2.031
73.0416 2.656
73.0719 1.927
73.1022 1.562
73.1325 1.615
73.1627 1.719
73.1930 2.083
73.2233 1.302
73.2536 1.406
73.2839 1.406
73.3141 1.510
73.3444 1.823
73.3747 1.719
73.4050 1.927
73.4353 1.771
73.4655 1.719
73.4958 1.719
73.5261 1.875
73.5564 1.719
73.5866 1.406
73.6169 1.615
73.6472 1.719
73.6775 1.250
73.7078 1.719
73.7380 2.083
73.7683 1.406
73.7986 1.615
73.8289 1.302
73.8592 1.042
73.8894 1.667
73.9197 2.187
73.9500 1.615
73.9803 1.719
74.0105 2.448
74.0408 1.823
74.0711 2.083
74.1014 1.562
74.1317 1.406
74.1619 1.927
74.1922 2.396
74.2225 2.187
74.2528 1.510
74.2831 1.875
74.3133 1.875
74.3436 1.875
74.3739 1.771
74.4042 1.615
74.4344 1.927
74.4647 1.875
74.4950 1.823
74.5253 2.135
74.5556 2.135
74.5858 1.927
74.6161 1.510
74.6464 1.458
74.6767 1.875
74.7070 1.875
74.7372 1.771
74.7675 2.812
74.7978 1.875
74.8281 1.458
74.8583 2.448
74.8886 1.979
74.9189 2.656
74.9492 2.708
74.9795 1.719
75.0097 1.875
75.0400 2.187
75.0703 2.031
75.1006 2.135
75.1309 2.083
75.1611 0.937
75.1914 2.187
75.2217 1.719
75.2520 1.927
75.2822 2.344
75.3125 1.719
75.3428 1.823
75.3731 2.031
75.4034 1.458
75.4336 1.510
75.4639 1.927
75.4942 1.875
75.5245 2.240
75.5548 1.719
75.5850 1.562
75.6153 1.562
75.6456 1.875
75.6759 1.719
75.7061 1.927
75.7364 1.875
75.7667 1.615
75.7970 1.823
75.8273 1.927
75.8575 1.667
75.8878 1.979
75.9181 1.875
75.9484 2.031
75.9787 1.927
76.0089 1.458
76.0392 1.979
76.0695 1.667
76.0998 1.146
76.1301 2.083
76.1603 1.771
76.1906 1.979
76.2209 1.615
76.2512 1.250
76.2814 1.667
76.3117 1.198
76.3420 1.875
76.3723 1.406
76.4026 1.771
76.4328 1.458
76.4631 1.771
76.4934 1.667
76.5237 1.667
76.5540 1.250
76.5842 1.354
76.6145 2.448
76.6448 1.458
76.6751 1.667
76.7053 1.823
76.7356 1.667
76.7659 1.562
76.7962 1.823
76.8265 1.875
76.8567 1.094
76.8870 1.719
76.9173 1.927
76.9476 1.406
76.9779 1.406
77.0081 2.083
77.0384 1.250
77.0687 2.083
77.0990 1.719
77.1292 1.979
77.1595 1.354
77.1898 1.146
77.2201 1.198
77.2504 1.198
77.2806 2.031
77.3109 1.615
77.3412 1.458
77.3715 1.094
77.4018 1.875
77.4320 1.250
77.4623 0.937
77.4926 1.667
77.5229 1.667
77.5531 1.302
77.5834 1.302
77.6137 1.198
77.6440 1.927
77.6743 1.198
77.7045 1.875
77.7348 1.354
77.7651 1.458
77.7954 1.458
77.8257 1.354
77.8559 1.406
77.8862 1.406
77.9165 1.198
77.9468 1.823
77.9770 1.510
78.0073 1.406
78.0376 1.615
78.0679 1.406
78.0982 1.250
78.1284 1.667
78.1587 1.406
78.1890 1.198
78.2193 1.615
78.2496 1.615
78.2798 1.094
78.3101 1.250
78.3404 1.667
78.3707 1.458
78.4009 1.667
78.4312 1.198
78.4615 0.833
78.4918 2.083
78.5221 1.354
78.5523 1.094
78.5826 1.615
78.6129 2.083
78.6432 1.510
78.6735 1.719
78.7037 1.510
78.7340 0.937
78.7643 2.240
78.7946 1.875
78.8248 1.510
78.8551 1.406
78.8854 1.458
78.9157 1.927
78.9460 1.406
78.9762 1.615
79.0065 0.990
79.0368 1.406
79.0671 1.406
79.0974 1.302
79.1276 1.667
79.1579 1.615
79.1882 1.458
79.2185 1.094
79.2488 1.146
79.2790 1.250
79.3093 0.937
79.3396 1.771
79.3699 1.615
79.4001 1.198
79.4304 1.719
79.4607 1.198
79.4910 1.771
79.5213 1.354
79.5515 2.083
79.5818 2.083
79.6121 1.458
79.6424 1.615
79.6727 1.667
79.7029 1.667
79.7332 1.250
79.7635 1.354
79.7938 1.719
79.8240 1.979
79.8543 1.250
79.8846 1.250
79.9149 0.937
79.9452 1.823
79.9754 1.823
80.0057 1.771
80.0360 1.719
80.0663 1.250
80.0966 1.302
80.1268 1.771
80.1571 1.406
80.1874 1.615
80.2177 1.302
80.2479 1.875
80.2782 1.771
80.3085 1.458
80.3388 1.146
80.3691 1.354
80.3993 1.667
80.4296 2.135
80.4599 1.458
80.4902 1.823
80.5205 1.979
80.5507 1.667
80.5810 1.094
80.6113 1.354
80.6416 1.667
80.6718 1.771
80.7021 1.562
80.7324 1.823
80.7627 1.771
80.7930 1.302
80.8232 1.927
80.8535 1.250
80.8838 1.615
80.9141 2.083
80.9444 1.406
80.9746 1.615
81.0049 1.667
81.0352 1.198
81.0655 1.354
81.0957 1.146
81.1260 1.354
81.1563 1.667
81.1866 1.354
81.2169 1.562
81.2471 1.667
81.2774 1.458
81.3077 1.458
81.3380 1.615
81.3683 1.667
81.3985 1.719
81.4288 1.458
81.4591 1.615
81.4894 1.510
81.5196 1.562
81.5499 2.240
81.5802 1.719
81.6105 1.667
81.6408 1.615
81.6710 1.823
81.7013 1.458
81.7316 1.927
81.7619 1.562
81.7922 1.979
81.8224 1.406
81.8527 1.875
81.8830 1.510
81.9133 1.510
81.9436 1.771
81.9738 1.562
82.0041 1.823
82.0344 1.823
82.0647 1.667
82.0949 1.719
82.1252 2.083
82.1555 1.823
82.1858 1.615
82.2161 1.198
82.2463 1.719
82.2766 1.875
82.3069 1.927
82.3372 1.667
82.3675 1.667
82.3977 1.823
82.4280 2.187
82.4583 1.510
82.4886 1.354
82.5188 1.562
82.5491 1.823
82.5794 1.719
82.6097 2.031
82.6400 1.667
82.6702 1.771
82.7005 1.667
82.7308 1.667
82.7611 1.615
82.7914 1.354
82.8216 1.823
82.8519 1.771
82.8822 1.667
82.9125 1.771
82.9427 1.875
82.9730 1.771
83.0033 1.875
83.0336 2.031
83.0639 1.562
83.0941 1.458
83.1244 1.979
83.1547 1.198
83.1850 1.250
83.2153 1.354
83.2455 1.354
83.2758 1.667
83.3061 1.510
83.3364 1.615
83.3666 1.823
83.3969 1.667
83.4272 1.458
83.4575 1.354
83.4878 1.458
83.5180 1.354
83.5483 1.354
83.5786 1.094
83.6089 1.771
83.6392 1.823
83.6694 1.458
83.6997 1.510
83.7300 1.927
83.7603 1.302
83.7905 1.198
83.8208 1.510
83.8511 1.667
83.8814 1.458
83.9117 1.250
83.9419 1.667
83.9722 1.510
84.0025 1.458
84.0328 1.979
84.0631 1.042
84.0933 1.146
84.1236 1.458
84.1539 1.458
84.1842 1.146
84.2144 1.198
84.2447 1.354
84.2750 1.510
84.3053 1.458
84.3356 1.354
84.3658 1.562
84.3961 1.562
84.4264 1.771
84.4567 1.302
84.4870 1.354
84.5172 1.615
84.5475 1.406
84.5778 1.302
84.6081 1.198
84.6383 1.615
84.6686 2.083
84.6989 1.250
84.7292 1.250
84.7595 1.562
84.7897 1.042
84.8200 1.198
84.8503 1.667
84.8806 2.031
84.9109 1.667
84.9411 1.354
84.9714 1.354
85.0017 1.354
85.0320 1.354
85.0623 1.510
85.0925 1.562
85.1228 1.615
85.1531 1.562
85.1834 1.458
85.2136 1.250
85.2439 1.615
85.2742 1.250
85.3045 2.031
85.3348 1.667
85.3650 0.937
85.3953 1.562
85.4256 1.667
85.4559 1.354
85.4862 1.302
85.5164 1.562
85.5467 1.094
85.5770 1.667
85.6073 1.406
85.6375 1.615
85.6678 1.354
85.6981 1.458
85.7284 1.771
85.7587 1.458
85.7889 0.937
85.8192 1.250
85.8495 1.458
85.8798 1.979
85.9101 1.510
85.9403 1.146
85.9706 1.510
86.0009 1.510
86.0312 1.875
86.0614 1.875
86.0917 2.031
86.1220 2.135
86.1523 1.719
86.1826 1.510
86.2128 1.615
86.2431 1.927
86.2734 1.615
86.3037 1.667
86.3340 2.083
86.3642 1.354
86.3945 1.510
86.4248 1.667
86.4551 1.094
86.4853 1.771
86.5156 1.458
86.5459 1.771
86.5762 1.458
86.6065 1.302
86.6367 1.146
86.6670 1.510
86.6973 1.302
86.7276 1.615
86.7579 1.302
86.7881 1.562
86.8184 1.458
86.8487 1.615
86.8790 1.667
86.9092 2.031
86.9395 1.354
86.9698 1.667
87.0001 1.562
87.0304 1.406
87.0606 1.667
87.0909 1.667
87.1212 1.198
87.1515 1.198
87.1818 1.198
87.2120 1.875
87.2423 1.406
87.2726 1.562
87.3029 1.615
87.3331 1.615
87.3634 2.135
87.3937 1.458
87.4240 1.615
87.4543 1.615
87.4845 1.615
87.5148 1.146
87.5451 1.875
87.5754 1.719
87.6057 1.562
87.6359 1.198
87.6662 1.406
87.6965 1.198
87.7268 1.302
87.7571 1.667
87.7873 1.510
87.8176 1.302
87.8479 1.562
87.8782 1.094
87.9084 1.510
87.9387 1.510
87.9690 1.771
87.9993 1.458
88.0296 1.302
88.0598 1.771
88.0901 1.198
88.1204 1.458
88.1507 1.198
88.1810 1.667
88.2112 1.354
88.2415 1.667
88.2718 1.406
88.3021 1.198
88.3323 1.615
88.3626 1.667
88.3929 1.771
88.4232 1.719
88.4535 1.979
88.4837 1.510
88.5140 1.771
88.5443 1.771
88.5746 1.667
88.6049 1.615
88.6351 1.406
88.6654 0.990
88.6957 2.240
88.7260 1.510
88.7562 1.406
88.7865 0.729
88.8168 1.302
88.8471 1.510
88.8774 1.667
88.9076 1.250
88.9379 1.667
88.9682 1.458
88.9985 1.562
89.0288 1.562
89.0590 1.510
89.0893 1.406
89.1196 1.250
89.1499 1.771
89.1801 1.198
89.2104 1.458
89.2407 1.354
89.2710 1.406
89.3013 1.094
89.3315 1.354
89.3618 0.990
89.3921 1.198
89.4224 1.198
89.4527 1.667
89.4829 1.406
89.5132 1.406
89.5435 1.146
89.5738 1.250
89.6040 1.198
89.6343 1.458
89.6646 1.094
89.6949 2.135
89.7252 0.833
89.7554 1.719
89.7857 1.198
89.8160 1.094
89.8463 1.875
89.8766 0.937
89.9068 1.615
89.9371 1.146
89.9674 1.354
89.9977 1.458
90.0279 1.198
90.0582 1.771
90.0885 1.250
90.1188 1.198
90.1491 1.198
90.1793 1.823
90.2096 1.302
90.2399 1.302
90.2702 1.250
90.3005 1.823
90.3307 1.510
90.3610 1.406
90.3913 0.937
90.4216 1.354
90.4518 1.354
90.4821 1.458
90.5124 1.458
90.5427 1.406
90.5730 1.562
90.6032 1.354
90.6335 1.562
90.6638 1.094
90.6941 1.615
90.7244 1.562
90.7546 1.458
90.7849 0.937
90.8152 1.354
90.8455 1.198
90.8758 1.354
90.9060 1.510
90.9363 1.719
90.9666 1.510
90.9969 1.198
91.0271 1.510
91.0574 1.510
91.0877 1.667
91.1180 1.406
91.1483 1.667
91.1785 1.250
91.2088 1.927
91.2391 1.250
91.2694 1.042
91.2997 1.198
91.3299 1.562
91.3602 1.354
91.3905 1.615
91.4208 1.302
91.4510 1.458
91.4813 1.406
91.5116 1.354
91.5419 1.667
91.5722 1.615
91.6024 1.302
91.6327 1.198
91.6630 1.615
91.6933 1.667
91.7236 2.083
91.7538 1.562
91.7841 0.729
91.8144 1.562
91.8447 1.667
91.8749 1.146
91.9052 1.250
91.9355 1.458
91.9658 1.562
91.9961 1.354
92.0263 1.562
92.0566 1.250
92.0869 1.510
92.1172 1.562
92.1475 1.302
92.1777 1.198
92.2080 0.990
92.2383 1.667
92.2686 1.198
92.2988 1.510
92.3291 1.562
92.3594 1.562
92.3897 1.354
92.4200 1.667
92.4502 1.302
92.4805 2.187
92.5108 1.510
92.5411 1.094
92.5714 1.615
92.6016 1.198
92.6319 1.719
92.6622 1.302
92.6925 1.094
92.7227 1.250
92.7530 1.458
92.7833 1.667
92.8136 1.354
92.8439 1.615
92.8741 1.875
92.9044 1.458
92.9347 1.406
92.9650 1.875
92.9953 1.667
93.0255 1.615
93.0558 2.344
93.0861 1.771
93.1164 1.250
93.1466 1.198
93.1769 1.458
93.2072 0.833
93.2375 1.198
93.2678 1.042
93.2980 1.406
93.3283 1.562
93.3586 1.302
93.3889 1.406
93.4192 1.406
93.4494 1.615
93.4797 1.302
93.5100 1.719
93.5403 1.771
93.5706 1.458
93.6008 1.146
93.6311 1.458
93.6614 1.458
93.6917 1.719
93.7219 1.510
93.7522 1.198
93.7825 1.198
93.8128 1.510
93.8431 1.198
93.8733 1.250
93.9036 1.250
93.9339 1.146
93.9642 1.719
93.9945 1.510
94.0247 1.406
94.0550 1.458
94.0853 1.719
94.1156 1.406
94.1458 1.250
94.1761 1.094
94.2064 1.771
94.2367 1.458
94.2670 1.302
94.2972 1.354
94.3275 1.719
94.3578 1.406
94.3881 0.990
94.4184 1.042
94.4486 1.458
94.4789 1.406
94.5092 1.146
94.5395 1.823
94.5697 1.615
94.6000 1.146
94.6303 1.042
94.6606 1.615
94.6909 1.667
94.7211 1.406
94.7514 1.406
94.7817 1.406
94.8120 1.719
94.8423 1.615
94.8725 1.250
94.9028 1.615
94.9331 1.250
94.9634 1.667
94.9936 1.615
95.0239 1.302
95.0542 1.146
95.0845 1.250
95.1148 0.937
95.1450 1.354
95.1753 1.042
95.2056 1.146
95.2359 1.667
95.2662 1.458
95.2964 1.354
95.3267 1.094
95.3570 1.198
95.3873 1.250
95.4175 1.302
95.4478 1.250
95.4781 0.625
95.5084 1.406
95.5387 1.250
95.5689 1.302
95.5992 1.146
95.6295 1.302
95.6598 1.250
95.6901 1.562
95.7203 1.250
95.7506 1.406
95.7809 1.458
95.8112 1.302
95.8414 1.198
95.8717 1.667
95.9020 1.198
95.9323 1.146
95.9626 1.667
95.9928 1.667
96.0231 1.719
96.0534 1.302
96.0837 1.250
96.1140 1.146
96.1442 1.458
96.1745 1.042
96.2048 1.094
96.2351 1.146
96.2653 1.302
96.2956 1.302
96.3259 1.458
96.3562 1.042
96.3865 1.354
96.4167 1.458
96.4470 1.719
96.4773 1.406
96.5076 1.667
96.5379 1.302
96.5681 1.875
96.5984 0.990
96.6287 0.781
96.6590 1.302
96.6893 1.302
96.7195 1.302
96.7498 1.198
96.7801 0.937
96.8104 1.719
96.8406 1.146
96.8709 1.354
96.9012 1.250
96.9315 1.719
96.9618 1.250
96.9920 1.198
97.0223 0.885
97.0526 1.458
97.0829 1.250
97.1132 1.354
97.1434 1.354
97.1737 1.510
97.2040 1.719
97.2343 1.354
97.2645 1.042
97.2948 1.823
97.3251 1.510
97.3554 1.094
97.3857 1.198
97.4159 1.458
97.4462 1.458
97.4765 1.615
97.5068 2.031
97.5371 1.615
97.5673 1.875
97.5976 1.615
97.6279 1.406
97.6582 1.562
97.6884 1.771
97.7187 1.458
97.7490 0.990
97.7793 1.406
97.8096 1.354
97.8398 1.354
97.8701 1.615
97.9004 1.510
97.9307 1.458
97.9610 1.250
97.9912 1.406
98.0215 1.354
98.0518 1.250
98.0821 0.781
98.1123 1.406
98.1426 1.146
98.1729 1.406
98.2032 1.510
98.2335 1.146
98.2637 1.719
98.2940 0.781
98.3243 1.198
98.3546 1.406
98.3849 1.146
98.4151 1.510
98.4454 1.094
98.4757 1.823
98.5060 1.615
98.5362 1.354
98.5665 1.562
98.5968 1.146
98.6271 1.406
98.6574 1.562
98.6876 1.302
98.7179 1.615
98.7482 1.719
98.7785 1.719
98.8088 1.302
98.8390 1.146
98.8693 1.615
98.8996 1.354
98.9299 1.458
98.9601 1.510
98.9904 1.094
99.0207 0.937
99.0510 1.302
99.0813 1.771
99.1115 0.677
99.1418 1.771
99.1721 1.510
99.2024 1.302
99.2327 1.406
99.2629 1.823
99.2932 1.823
99.3235 1.094
99.3538 1.562
99.3841 1.354
99.4143 1.302
99.4446 1.615
99.4749 1.354
99.5052 1.510
99.5354 1.510
99.5657 1.302
99.5960 1.667
99.6263 1.406
99.6566 1.406
99.6868 0.990
99.7171 1.198
99.7474 1.510
99.7777 1.250
99.8080 0.937
99.8382 1.198
99.8685 0.885
99.8988 1.406
99.9291 1.406
99.9593 1.302
99.9896 1.771
100.0199 0.781
100.0502 1.406
100.0805 1.771
100.1107 0.990
100.1410 1.094
100.1713 1.302
100.2016 1.042
100.2319 1.302
100.2621 1.719
100.2924 1.042
100.3227 1.302
100.3530 1.510
100.3832 1.458
100.4135 1.146
100.4438 1.406
100.4741 1.458
100.5044 1.562
100.5346 1.458
100.5649 1.615
100.5952 1.042
100.6255 0.990
100.6558 1.406
100.6860 1.042
100.7163 1.042
100.7466 1.458
100.7769 1.302
100.8071 1.250
100.8374 1.719
100.8677 1.354
100.8980 1.302
100.9283 1.250
100.9585 0.833
100.9888 0.990
101.0191 1.458
101.0494 1.458
101.0797 1.615
101.1099 1.406
101.1402 1.458
101.1705 1.146
101.2008 1.719
101.2310 1.667
101.2613 1.615
101.2916 1.615
101.3219 1.250
101.3522 1.042
101.3824 1.198
101.4127 0.990
101.4430 1.302
101.4733 1.615
101.5036 1.250
101.5338 0.990
101.5641 1.354
101.5944 0.781
101.6247 0.885
101.6549 1.302
101.6852 1.042
101.7155 0.833
101.7458 0.990
101.7761 1.302
101.8063 1.354
101.8366 0.781
101.8669 0.990
101.8972 1.302
101.9275 1.042
101.9577 1.146
101.9880 1.354
102.0183 1.354
102.0486 1.146
102.0788 1.302
102.1091 1.667
102.1394 1.250
102.1697 1.302
102.2000 1.354
102.2302 1.354
102.2605 1.458
102.2908 1.042
102.3211 0.833
102.3514 1.562
102.3816 1.042
102.4119 1.198
102.4422 1.354
102.4725 1.198
102.5028 1.146
102.5330 1.458
102.5633 0.677
102.5936 1.354
102.6239 1.302
102.6541 1.302
102.6844 1.562
102.7147 1.094
102.7450 1.094
102.7753 1.250
102.8055 1.094
102.8358 1.562
102.8661 1.354
102.8964 1.146
102.9267 1.250
102.9569 1.250
102.9872 1.719
103.0175 1.198
103.0478 1.042
103.0780 1.354
103.1083 1.354
103.1386 1.042
103.1689 0.677
103.1992 1.510
103.2294 1.094
103.2597 1.354
103.2900 1.354
103.3203 1.094
103.3506 1.354
103.3808 1.458
103.4111 1.042
103.4414 0.573
103.4717 1.562
103.5019 1.198
103.5322 1.354
103.5625 0.937
103.5928 1.250
103.6231 1.146
103.6533 1.042
103.6836 1.302
103.7139 1.042
103.7442 1.354
103.7745 1.302
103.8047 1.250
103.8350 1.354
103.8653 0.937
103.8956 1.406
103.9258 1.667
103.9561 0.990
103.9864 1.406
104.0167 1.458
104.0470 1.094
104.0772 1.458
104.1075 0.937
104.1378 1.146
104.1681 0.833
104.1984 0.677
104.2286 1.458
104.2589 1.250
104.2892 1.250
104.3195 2.552
104.3497 0.833
104.3800 0.781
104.4103 1.458
104.4406 0.937
104.4709 0.885
104.5011 0.937
104.5314 1.198
104.5617 1.042
104.5920 1.510
104.6223 1.250
104.6525 1.406
104.6828 1.615
104.7131 1.042
104.7434 2.083
104.7736 1.354
104.8039 1.510
104.8342 1.354
104.8645 1.094
104.8948 1.250
104.9250 0.833
104.9553 1.406
104.9856 1.406
105.0159 1.302
105.0462 1.094
105.0764 1.302
105.1067 1.354
105.1370 1.406
105.1673 1.094
105.1975 1.250
105.2278 1.146
105.2581 0.937
105.2884 1.250
105.3187 1.198
105.3489 1.146
105.3792 1.198
105.4095 1.510
105.4398 1.250
105.4701 1.094
105.5003 0.937
105.5306 1.250
105.5609 1.094
105.5912 1.042
105.6215 1.354
105.6517 1.562
105.6820 1.458
105.7123 1.042
105.7426 1.615
105.7728 1.458
105.8031 1.042
105.8334 0.885
105.8637 1.094
105.8940 1.146
105.9242 1.302
105.9545 1.042
105.9848 0.990
106.0151 1.406
106.0454 0.937
106.0756 1.302
106.1059 0.729
106.1362 0.990
106.1665 0.729
106.1967 1.719
106.2270 1.146
106.2573 1.042
106.2876 1.615
106.3179 1.250
106.3481 1.094
106.3784 0.937
106.4087 1.146
106.4390 1.667
106.4693 1.823
106.4995 1.458
106.5298 1.094
106.5601 1.458
106.5904 0.781
106.6206 0.781
106.6509 1.354
106.6812 1.510
106.7115 1.510
106.7418 0.937
106.7720 1.510
106.8023 1.615
106.8326 1.198
106.8629 1.406
106.8932 0.885
106.9234 1.354
106.9537 1.562
106.9840 1.406
107.0143 1.667
107.0445 1.094
107.0748 0.781
107.1051 1.198
107.1354 1.458
107.1657 1.562
107.1959 0.833
107.2262 1.406
107.2565 1.458
107.2868 0.937
107.3171 0.990
107.3473 1.094
107.3776 1.146
107.4079 1.198
107.4382 1.198
107.4684 1.302
107.4987 1.250
107.5290 1.250
107.5593 1.354
107.5896 0.990
107.6198 1.198
107.6501 1.250
107.6804 1.302
107.7107 0.937
107.7410 1.406
107.7712 1.354
107.8015 1.615
107.8318 0.781
107.8621 1.042
107.8923 1.458
107.9226 1.510
107.9529 1.510
107.9832 1.354
108.0135 1.823
108.0437 1.615
108.0740 1.562
108.1043 0.885
108.1346 1.406
108.1649 1.146
108.1951 1.458
108.2254 1.042
108.2557 1.771
108.2860 1.042
108.3163 1.198
108.3465 0.833
108.3768 1.250
108.4071 1.719
108.4374 1.198
108.4676 1.667
108.4979 0.781
108.5282 1.667
108.5585 1.510
108.5888 1.042
108.6190 1.250
108.6493 0.990
108.6796 1.354
108.7099 1.562
108.7402 1.198
108.7704 1.510
108.8007 1.510
108.8310 1.146
108.8613 1.458
108.8915 1.875
108.9218 1.719
108.9521 1.302
108.9824 1.302
109.0127 1.094
109.0429 1.198
109.0732 1.302
109.1035 1.406
109.1338 0.937
109.1641 1.302
109.1943 1.615
109.2246 1.250
109.2549 1.302
109.2852 1.146
109.3154 1.562
109.3457 1.823
109.3760 0.990
109.4063 1.562
109.4366 1.510
109.4668 1.354
109.4971 0.990
109.5274 1.354
109.5577 1.094
109.5880 1.042
109.6182 1.562
109.6485 1.302
109.6788 2.135
109.7091 1.042
109.7393 1.042
109.7696 1.510
109.7999 1.406
109.8302 1.250
109.8605 1.146
109.8907 1.510
109.9210 0.937
109.9513 1.198
109.9816 1.094
110.0119 1.406
110.0421 1.094
110.0724 1.042
110.1027 1.198
110.1330 1.406
110.1632 1.719
110.1935 1.667
110.2238 1.094
110.2541 1.354
110.2844 1.562
110.3146 1.250
110.3449 1.250
110.3752 1.146
110.4055 1.562
110.4358 0.937
110.4660 1.667
110.4963 1.510
110.5266 0.937
110.5569 1.615
110.5871 1.354
110.6174 1.458
110.6477 1.042
110.6780 1.354
110.7083 2.031
110.7385 1.406
110.7688 1.146
110.7991 1.302
110.8294 1.406
110.8597 1.510
110.8899 1.615
110.9202 1.510
110.9505 0.781
110.9808 1.615
111.0110 1.458
111.0413 1.510
111.0716 1.458
111.1019 1.406
111.1322 1.250
111.1624 1.146
111.1927 1.250
111.2230 1.667
111.2533 0.990
111.2836 1.771
111.3138 1.042
111.3441 0.990
111.3744 1.615
111.4047 1.354
111.4350 1.458
111.4652 1.562
111.4955 1.302
111.5258 1.562
111.5561 1.510
111.5863 1.562
111.6166 1.302
111.6469 1.302
111.6772 1.198
111.7075 1.562
111.7377 1.302
111.7680 1.198
111.7983 1.250
111.8286 1.667
111.8589 1.510
111.8891 1.406
111.9194 1.042
111.9497 1.667
111.9800 1.094
112.0102 1.406
112.0405 1.979
112.0708 1.615
112.1011 1.198
112.1314 0.990
112.1616 1.615
112.1919 1.094
112.2222 0.990
112.2525 1.562
112.2828 2.031
112.3130 0.990
112.3433 1.510
112.3736 1.406
112.4039 1.406
112.4341 1.667
112.4644 1.719
112.4947 1.354
112.5250 1.198
112.5553 1.406
112.5855 1.302
112.6158 0.990
112.6461 0.937
112.6764 0.990
112.7067 1.615
112.7369 1.302
112.7672 1.146
112.7975 1.302
112.8278 2.083
112.8580 1.406
112.8883 1.510
112.9186 1.510
112.9489 1.927
112.9792 1.823
113.0094 1.406
113.0397 1.667
113.0700 1.562
113.1003 1.406
113.1306 1.302
113.1608 1.354
113.1911 1.667
113.2214 0.885
113.2517 1.719
113.2819 1.615
113.3122 1.250
113.3425 1.042
113.3728 1.562
113.4031 1.406
113.4333 2.135
113.4636 1.823
113.4939 1.354
113.5242 1.510
113.5545 0.677
113.5847 1.562
113.6150 1.042
113.6453 1.562
113.6756 1.146
113.7058 1.458
113.7361 1.458
113.7664 1.302
113.7967 1.042
113.8270 2.083
113.8572 1.354
113.8875 1.562
113.9178 1.667
113.9481 1.302
113.9784 1.250
114.0086 1.823
114.0389 1.667
114.0692 1.406
114.0995 1.146
114.1298 1.667
114.1600 1.302
114.1903 1.198
114.2206 1.615
114.2509 1.302
114.2811 1.615
114.3114 0.990
114.3417 1.927
114.3720 1.250
114.4023 1.823
114.4325 1.771
114.4628 1.406
114.4931 1.510
114.5234 1.094
114.5537 1.719
114.5839 1.823
114.6142 1.719
114.6445 2.031
114.6748 1.719
114.7050 1.458
114.7353 1.667
114.7656 1.354
114.7959 1.823
114.8262 1.094
114.8564 1.510
114.8867 1.823
114.9170 0.833
114.9473 1.667
114.9776 1.615
115.0078 1.302
115.0381 1.094
115.0684 1.719
115.0987 1.510
115.1289 1.719
115.1592 1.562
115.1895 1.042
115.2198 1.250
115.2501 1.094
115.2803 0.885
115.3106 1.354
115.3409 1.719
115.3712 1.198
115.4015 1.250
115.4317 1.562
115.4620 1.510
115.4923 1.354
115.5226 1.510
115.5528 1.094
115.5831 1.354
115.6134 1.406
115.6437 1.771
115.6740 0.990
115.7042 0.990
115.7345 1.510
115.7648 1.198
115.7951 1.250
115.8254 1.667
115.8556 1.406
115.8859 1.667
115.9162 1.198
115.9465 2.031
115.9767 1.771
116.0070 1.927
116.0373 1.615
116.0676 1.771
116.0979 1.562
116.1281 2.083
116.1584 1.458
116.1887 1.198
116.2190 1.458
116.2493 1.250
116.2795 1.458
116.3098 1.198
116.3401 1.406
116.3704 1.146
116.4006 0.729
116.4309 1.615
116.4612 1.406
116.4915 1.667
116.5218 0.937
116.5520 1.406
116.5823 1.094
116.6126 1.771
116.6429 2.031
116.6732 1.094
116.7034 1.979
116.7337 1.510
116.7640 1.771
116.7943 1.354
116.8245 0.937
116.8548 1.615
116.8851 1.406
116.9154 1.823
116.9457 1.615
116.9759 1.458
117.0062 1.354
117.0365 1.042
117.0668 1.667
117.0971 1.198
117.1273 1.562
117.1576 1.146
117.1879 1.094
117.2182 0.990
117.2485 1.562
117.2787 1.302
117.3090 1.198
117.3393 1.667
117.3696 1.302
117.3998 1.979
117.4301 1.719
117.4604 1.510
117.4907 1.719
117.5210 1.667
117.5512 1.250
117.5815 2.031
117.6118 1.302
117.6421 1.458
117.6724 1.354
117.7026 1.667
117.7329 1.198
117.7632 1.510
117.7935 1.510
117.8237 1.250
117.8540 1.719
117.8843 1.302
117.9146 2.083
117.9449 1.771
117.9751 1.771
118.0054 1.302
118.0357 1.771
118.0660 1.562
118.0963 0.885
118.1265 1.250
118.1568 1.458
118.1871 1.250
118.2174 1.927
118.2476 0.990
118.2779 1.198
118.3082 1.354
118.3385 1.458
118.3688 1.771
118.3990 1.615
118.4293 0.833
118.4596 1.510
118.4899 1.302
118.5202 1.719
118.5504 1.927
118.5807 1.198
118.6110 1.458
118.6413 2.083
118.6715 1.562
118.7018 1.250
118.7321 1.615
118.7624 1.302
118.7927 1.510
118.8229 1.302
118.8532 2.187
118.8835 0.833
118.9138 1.458
118.9441 1.615
118.9743 1.406
119.0046 1.302
119.0349 1.250
119.0652 1.615
119.0954 1.354
119.1257 1.354
119.1560 1.406
119.1863 1.198
119.2166 1.094
119.2468 1.146
119.2771 1.510
119.3074 1.667
119.3377 1.562
119.3680 1.250
119.3982 0.937
119.4285 1.510
119.4588 1.458
119.4891 1.042
119.5193 1.302
119.5496 1.406
119.5799 1.562
119.6102 1.562
119.6405 1.979
119.6707 1.406
119.7010 1.406
119.7313 1.458
119.7616 1.354
119.7919 1.667
119.8221 1.458
119.8524 1.719
119.8827 1.510
119.9130 1.146
119.9433 1.146
119.9735 1.875
120.0038 1.771
