'Id: "" Comment: "" Operator: "Lab Manager" Anode: "Cu" Scantype: "Locked Coupled" TimePerStep: "19.2" X: "9999" Y: "9999" Z: "9999" 
10.0015 2.865
10.0318 3.958
10.0620 3.490
10.0923 3.750
10.1226 3.229
10.1529 2.292
10.1832 4.271
10.2134 3.854
10.2437 3.958
10.2740 3.177
10.3043 3.646
10.3346 2.917
10.3648 3.750
10.3951 3.177
10.4254 4.687
10.4557 4.062
10.4859 4.687
10.5162 4.167
10.5465 4.375
10.5768 4.219
10.6071 4.375
10.6373 3.854
10.6676 4.219
10.6979 4.115
10.7282 3.802
10.7585 3.646
10.7887 2.969
10.8190 4.115
10.8493 4.635
10.8796 5.729
10.9098 6.354
10.9401 7.187
10.9704 8.073
11.0007 8.958
11.0310 10.052
11.0612 10.677
11.0915 9.062
11.1218 9.375
11.1521 7.292
11.1824 6.875
11.2126 6.042
11.2429 4.792
11.2732 4.740
11.3035 3.854
11.3337 4.792
11.3640 4.219
11.3943 3.646
11.4246 3.594
11.4549 4.844
11.4851 3.385
11.5154 3.646
11.5457 3.333
11.5760 4.479
11.6063 3.646
11.6365 3.906
11.6668 3.021
11.6971 3.698
11.7274 4.167
11.7577 3.698
11.7879 3.958
11.8182 3.385
11.8485 3.698
11.8788 3.542
11.9090 2.969
11.9393 3.542
11.9696 3.229
11.9999 3.906
12.0302 3.021
12.0604 3.125
12.0907 4.062
12.1210 3.594
12.1513 3.490
12.1816 3.385
12.2118 3.125
12.2421 3.437
12.2724 3.385
12.3027 3.385
12.3329 3.073
12.3632 2.969
12.3935 3.021
12.4238 2.656
12.4541 2.760
12.4843 3.698
12.5146 3.229
12.5449 3.281
12.5752 3.177
12.6055 3.073
12.6357 2.865
12.6660 2.865
12.6963 2.240
12.7266 3.385
12.7568 3.542
12.7871 3.125
12.8174 3.646
12.8477 3.021
12.8780 2.812
12.9082 3.750
12.9385 2.812
12.9688 3.750
12.9991 3.594
13.0294 3.698
13.0596 2.708
13.0899 3.333
13.1202 3.125
13.1505 3.125
13.1807 2.812
13.2110 3.594
13.2413 3.073
13.2716 3.073
13.3019 2.969
13.3321 4.167
13.3624 3.281
13.3927 3.281
13.4230 2.031
13.4533 2.396
13.4835 2.917
13.5138 2.812
13.5441 2.812
13.5744 3.490
13.6046 2.969
13.6349 3.906
13.6652 3.177
13.6955 2.708
13.7258 2.865
13.7560 2.760
13.7863 2.917
13.8166 2.604
13.8469 2.708
13.8772 3.490
13.9074 2.865
13.9377 3.437
13.9680 3.177
13.9983 3.073
14.0285 3.021
14.0588 2.396
14.0891 3.125
14.1194 2.812
14.1497 3.281
14.1799 2.812
14.2102 2.656
14.2405 2.135
14.2708 2.812
14.3011 3.229
14.3313 3.229
14.3616 3.542
14.3919 2.500
14.4222 3.542
14.4524 3.021
14.4827 2.969
14.5130 2.240
14.5433 3.021
14.5736 2.969
14.6038 3.125
14.6341 2.448
14.6644 3.021
14.6947 3.073
14.7250 2.656
14.7552 3.125
14.7855 3.594
14.8158 2.552
14.8461 2.396
14.8764 2.552
14.9066 2.448
14.9369 2.448
14.9672 2.656
14.9975 2.083
15.0277 2.656
15.0580 2.396
15.0883 2.344
15.1186 2.031
15.1489 3.073
15.1791 2.656
15.2094 2.865
15.2397 3.021
15.2700 2.812
15.3003 3.177
15.3305 2.396
15.3608 2.240
15.3911 2.240
15.4214 2.969
15.4516 3.125
15.4819 2.604
15.5122 2.448
15.5425 2.656
15.5728 2.604
15.6030 2.812
15.6333 3.333
15.6636 3.646
15.6939 2.448
15.7242 2.552
15.7544 3.177
15.7847 2.604
15.8150 3.385
15.8453 2.448
15.8755 2.969
15.9058 3.490
15.9361 2.500
15.9664 2.812
15.9967 2.969
16.0269 2.604
16.0572 1.875
16.0875 2.708
16.1178 2.812
16.1481 3.802
16.1783 3.177
16.2086 3.073
16.2389 3.021
16.2692 2.448
16.2994 2.344
16.3297 2.448
16.3600 2.552
16.3903 3.229
16.4206 2.917
16.4508 2.604
16.4811 3.073
16.5114 2.500
16.5417 2.604
16.5720 2.917
16.6022 2.552
16.6325 2.500
16.6628 3.229
16.6931 3.229
16.7233 2.604
16.7536 2.708
16.7839 2.656
16.8142 2.969
16.8445 3.177
16.8747 2.448
16.9050 2.969
16.9353 3.177
16.9656 2.552
16.9959 2.708
17.0261 1.979
17.0564 2.500
17.0867 2.500
17.1170 2.396
17.1472 2.760
17.1775 2.604
17.2078 3.281
17.2381 2.760
17.2684 3.125
17.2986 3.229
17.3289 2.969
17.3592 2.552
17.3895 2.760
17.4198 2.656
17.4500 2.760
17.4803 2.865
17.5106 2.917
17.5409 3.073
17.5712 2.396
17.6014 2.865
17.6317 2.865
17.6620 2.656
17.6923 3.125
17.7225 2.760
17.7528 2.604
17.7831 2.500
17.8134 2.292
17.8437 2.865
17.8739 2.708
17.9042 2.552
17.9345 3.125
17.9648 2.500
17.9951 2.135
18.0253 3.021
18.0556 1.667
18.0859 3.021
18.1162 2.292
18.1464 1.823
18.1767 1.510
18.2070 2.240
18.2373 2.448
18.2676 2.917
18.2978 2.708
18.3281 2.760
18.3584 1.979
18.3887 2.500
18.4190 2.812
18.4492 2.865
18.4795 3.385
18.5098 2.240
18.5401 2.292
18.5703 3.281
18.6006 2.552
18.6309 2.604
18.6612 2.344
18.6915 2.969
18.7217 2.448
18.7520 2.812
18.7823 2.240
18.8126 2.344
18.8429 2.500
18.8731 2.240
18.9034 2.969
18.9337 2.917
18.9640 2.344
18.9942 2.292
19.0245 2.552
19.0548 2.500
19.0851 2.969
19.1154 2.552
19.1456 2.083
19.1759 2.604
19.2062 2.552
19.2365 2.031
19.2668 2.292
19.2970 2.656
19.3273 2.865
19.3576 2.344
19.3879 2.292
19.4181 1.927
19.4484 2.552
19.4787 1.823
19.5090 2.656
19.5393 2.031
19.5695 2.812
19.5998 2.708
19.6301 2.240
19.6604 2.344
19.6907 2.865
19.7209 2.708
19.7512 2.187
19.7815 2.344
19.8118 2.135
19.8420 2.917
19.8723 2.240
19.9026 2.344
19.9329 2.552
19.9632 3.177
19.9934 2.396
20.0237 3.125
20.0540 2.135
20.0843 2.396
20.1146 2.292
20.1448 2.135
20.1751 1.979
20.2054 2.031
20.2357 2.187
20.2659 2.448
20.2962 1.927
20.3265 2.865
20.3568 2.344
20.3871 2.083
20.4173 2.240
20.4476 1.823
20.4779 2.135
20.5082 2.344
20.5385 2.760
20.5687 2.396
20.5990 2.396
20.6293 2.708
20.6596 2.031
20.6899 2.240
20.7201 2.969
20.7504 2.240
20.7807 2.135
20.8110 2.031
20.8412 2.604
20.8715 2.917
20.9018 2.604
20.9321 2.240
20.9624 1.823
20.9926 2.917
21.0229 2.292
21.0532 2.187
21.0835 2.083
21.1138 2.552
21.1440 2.031
21.1743 2.031
21.2046 1.615
21.2349 2.240
21.2651 2.396
21.2954 2.135
21.3257 2.552
21.3560 2.708
21.3863 2.448
21.4165 2.396
21.4468 2.917
21.4771 2.344
21.5074 2.292
21.5377 2.604
21.5679 2.187
21.5982 2.708
21.6285 2.448
21.6588 2.292
21.6890 3.177
21.7193 1.927
21.7496 2.552
21.7799 2.292
21.8102 2.448
21.8404 2.240
21.8707 2.031
21.9010 2.083
21.9313 1.979
21.9616 1.927
21.9918 2.344
22.0221 1.979
22.0524 2.969
22.0827 1.927
22.1129 1.979
22.1432 2.187
22.1735 1.875
22.2038 2.187
22.2341 2.448
22.2643 1.979
22.2946 2.552
22.3249 2.448
22.3552 2.396
22.3855 2.604
22.4157 2.865
22.4460 2.396
22.4763 2.240
22.5066 2.135
22.5368 1.823
22.5671 2.917
22.5974 2.448
22.6277 2.656
22.6580 1.823
22.6882 2.187
22.7185 1.875
22.7488 1.823
22.7791 2.187
22.8094 2.552
22.8396 2.448
22.8699 2.031
22.9002 2.396
22.9305 1.927
22.9607 2.083
22.9910 2.448
23.0213 2.135
23.0516 2.448
23.0819 2.083
23.1121 2.083
23.1424 2.240
23.1727 2.031
23.2030 2.552
23.2333 2.396
23.2635 2.500
23.2938 2.448
23.3241 2.240
23.3544 2.292
23.3846 2.135
23.4149 2.240
23.4452 2.604
23.4755 2.344
23.5058 3.073
23.5360 2.604
23.5663 2.083
23.5966 2.812
23.6269 1.458
23.6572 2.396
23.6874 2.292
23.7177 2.604
23.7480 2.865
23.7783 2.240
23.8086 2.135
23.8388 2.135
23.8691 2.604
23.8994 2.552
23.9297 2.292
23.9599 2.448
23.9902 1.875
24.0205 1.615
24.0508 2.344
24.0811 2.656
24.1113 2.500
24.1416 1.719
24.1719 1.823
24.2022 2.448
24.2325 1.927
24.2627 2.344
24.2930 1.667
24.3233 1.979
24.3536 2.344
24.3838 2.500
24.4141 2.031
24.4444 2.396
24.4747 2.292
24.5050 2.240
24.5352 2.448
24.5655 2.500
24.5958 1.927
24.6261 2.031
24.6564 2.031
24.6866 2.500
24.7169 2.760
24.7472 1.979
24.7775 1.771
24.8077 2.187
24.8380 1.823
24.8683 1.354
24.8986 1.979
24.9289 1.771
24.9591 2.500
24.9894 2.187
25.0197 1.979
25.0500 2.344
25.0803 2.448
25.1105 1.771
25.1408 2.656
25.1711 2.604
25.2014 2.292
25.2316 2.240
25.2619 1.979
25.2922 2.083
25.3225 2.344
25.3528 1.667
25.3830 2.344
25.4133 2.292
25.4436 2.865
25.4739 1.719
25.5042 2.604
25.5344 2.292
25.5647 2.240
25.5950 1.875
25.6253 2.083
25.6555 2.448
25.6858 2.135
25.7161 1.719
25.7464 2.344
25.7767 2.240
25.8069 1.979
25.8372 1.823
25.8675 2.448
25.8978 2.760
25.9281 2.812
25.9583 2.865
25.9886 2.448
26.0189 2.604
26.0492 2.552
26.0794 2.917
26.1097 2.448
26.1400 2.292
26.1703 2.292
26.2006 2.292
26.2308 1.875
26.2611 2.344
26.2914 1.771
26.3217 2.135
26.3520 2.031
26.3822 2.344
26.4125 2.135
26.4428 2.240
26.4731 2.396
26.5034 2.500
26.5336 2.604
26.5639 1.615
26.5942 3.021
26.6245 1.823
26.6547 1.719
26.6850 2.396
26.7153 2.187
26.7456 3.073
26.7759 2.396
26.8061 2.344
26.8364 2.240
26.8667 2.552
26.8970 2.500
26.9273 2.344
26.9575 2.760
26.9878 2.292
27.0181 2.812
27.0484 2.135
27.0786 1.823
27.1089 1.771
27.1392 2.604
27.1695 2.760
27.1998 2.135
27.2300 2.240
27.2603 1.979
27.2906 2.135
27.3209 3.073
27.3512 2.344
27.3814 1.823
27.4117 2.917
27.4420 2.604
27.4723 2.865
27.5025 2.240
27.5328 3.125
27.5631 2.292
27.5934 2.552
27.6237 2.448
27.6539 3.073
27.6842 2.396
27.7145 2.448
27.7448 3.333
27.7751 2.187
27.8053 2.865
27.8356 2.865
27.8659 2.865
27.8962 3.021
27.9264 2.760
27.9567 2.240
27.9870 2.552
28.0173 2.604
28.0476 3.125
28.0778 2.187
28.1081 2.708
28.1384 2.552
28.1687 2.396
28.1990 2.760
28.2292 2.708
28.2595 2.031
28.2898 2.292
28.3201 2.292
28.3503 2.604
28.3806 2.708
28.4109 2.187
28.4412 2.656
28.4715 1.979
28.5017 2.396
28.5320 3.281
28.5623 2.448
28.5926 2.760
28.6229 2.760
28.6531 3.385
28.6834 3.073
28.7137 2.917
28.7440 2.500
28.7742 3.177
28.8045 2.552
28.8348 2.969
28.8651 2.760
28.8954 2.812
28.9256 3.281
28.9559 2.969
28.9862 3.542
29.0165 2.187
29.0468 2.552
29.0770 2.500
29.1073 2.292
29.1376 2.969
29.1679 2.604
29.1981 2.292
29.2284 2.760
29.2587 2.708
29.2890 2.760
29.3193 2.812
29.3495 2.812
29.3798 3.073
29.4101 2.708
29.4404 3.021
29.4707 3.281
29.5009 3.229
29.5312 3.437
29.5615 2.917
29.5918 3.385
29.6221 3.646
29.6523 3.490
29.6826 3.490
29.7129 3.229
29.7432 4.219
29.7734 3.125
29.8037 3.021
29.8340 4.167
29.8643 3.594
29.8946 4.167
29.9248 3.177
29.9551 3.854
29.9854 3.698
30.0157 4.115
30.0460 3.958
30.0762 3.281
30.1065 3.750
30.1368 4.583
30.1671 5.052
30.1973 4.167
30.2276 4.062
30.2579 4.479
30.2882 4.583
30.3185 3.750
30.3487 3.646
30.3790 4.531
30.4093 5.208
30.4396 4.323
30.4699 5.208
30.5001 5.260
30.5304 4.687
30.5607 5.104
30.5910 5.208
30.6212 4.583
30.6515 4.792
30.6818 4.792
30.7121 4.844
30.7424 5.417
30.7726 5.208
30.8029 6.510
30.8332 6.615
30.8635 6.927
30.8938 6.771
30.9240 6.198
30.9543 7.500
30.9846 7.812
31.0149 8.750
31.0451 8.594
31.0754 9.375
31.1057 10.104
31.1360 10.208
31.1663 10.990
31.1965 11.250
31.2268 12.240
31.2571 15.573
31.2874 16.094
31.3177 16.406
31.3479 19.323
31.3782 20.833
31.4085 23.854
31.4388 26.250
31.4690 28.802
31.4993 30.573
31.5296 35.781
31.5599 38.490
31.5902 36.354
31.6204 39.323
31.6507 39.219
31.6810 40.521
31.7113 36.406
31.7416 31.927
31.7718 28.854
31.8021 28.385
31.8324 24.844
31.8627 21.510
31.8929 18.802
31.9232 17.656
31.9535 15.312
31.9838 13.594
32.0141 12.604
32.0443 10.937
32.0746 10.833
32.1049 10.625
32.1352 10.208
32.1655 8.802
32.1957 7.500
32.2260 8.073
32.2563 6.250
32.2866 8.125
32.3169 7.917
32.3471 7.969
32.3774 5.729
32.4077 6.667
32.4380 5.990
32.4682 6.771
32.4985 4.583
32.5288 6.771
32.5591 6.510
32.5894 5.885
32.6196 5.677
32.6499 4.427
32.6802 5.469
32.7105 5.573
32.7408 4.740
32.7710 4.375
32.8013 4.427
32.8316 4.896
32.8619 4.583
32.8921 4.740
32.9224 4.427
32.9527 4.167
32.9830 4.062
33.0133 4.635
33.0435 4.687
33.0738 5.521
33.1041 4.167
33.1344 4.427
33.1647 4.271
33.1949 5.000
33.2252 5.260
33.2555 5.104
33.2858 4.115
33.3160 4.167
33.3463 4.896
33.3766 4.479
33.4069 5.260
33.4372 5.469
33.4674 4.792
33.4977 5.729
33.5280 5.208
33.5583 5.469
33.5886 5.208
33.6188 5.417
33.6491 5.104
33.6794 6.250
33.7097 6.979
33.7399 5.469
33.7702 6.615
33.8005 6.354
33.8308 7.396
33.8611 8.125
33.8913 8.281
33.9216 8.281
33.9519 9.375
33.9822 12.240
34.0125 11.979
34.0427 14.479
34.0730 14.896
34.1033 18.073
34.1336 22.969
34.1638 23.125
34.1941 30.365
34.2244 36.875
34.2547 40.625
34.2850 47.656
34.3152 47.708
34.3455 43.958
34.3758 37.240
34.4061 33.021
34.4364 25.260
34.4666 23.437
34.4969 18.594
34.5272 14.375
34.5575 14.375
34.5877 12.604
34.6180 11.146
34.6483 10.208
34.6786 9.271
34.7089 9.010
34.7391 8.750
34.7694 6.771
34.7997 8.125
34.8300 9.010
34.8603 7.031
34.8905 7.396
34.9208 6.719
34.9511 7.031
34.9814 6.562
35.0116 6.406
35.0419 6.979
35.0722 7.500
35.1025 7.083
35.1328 8.698
35.1630 6.615
35.1933 6.771
35.2236 7.917
35.2539 8.281
35.2842 7.812
35.3144 8.854
35.3447 8.125
35.3750 10.052
35.4053 9.635
35.4356 8.958
35.4658 10.833
35.4961 10.417
35.5264 10.937
35.5567 11.615
35.5869 13.281
35.6172 14.323
35.6475 15.156
35.6778 15.833
35.7081 18.333
35.7383 18.750
35.7686 21.667
35.7989 22.031
35.8292 25.208
35.8595 30.521
35.8897 27.865
35.9200 35.625
35.9503 36.979
35.9806 41.979
36.0108 48.229
36.0411 52.135
36.0714 53.490
36.1017 56.823
36.1320 53.542
36.1622 56.250
36.1925 55.260
36.2228 51.198
36.2531 47.396
36.2834 42.917
36.3136 37.344
36.3439 34.792
36.3742 29.323
36.4045 26.823
36.4347 23.542
36.4650 22.240
36.4953 17.031
36.5256 17.969
36.5559 14.844
36.5861 14.583
36.6164 12.552
36.6467 11.510
36.6770 12.344
36.7073 9.844
36.7375 8.385
36.7678 8.229
36.7981 7.604
36.8284 6.615
36.8586 7.135
36.8889 6.719
36.9192 7.292
36.9495 6.250
36.9798 5.417
37.0100 6.146
37.0403 4.948
37.0706 5.469
37.1009 4.792
37.1312 4.531
37.1614 5.990
37.1917 4.219
37.2220 4.375
37.2523 4.687
37.2825 3.906
37.3128 5.260
37.3431 5.521
37.3734 4.115
37.4037 4.167
37.4339 4.792
37.4642 3.385
37.4945 4.792
37.5248 3.958
37.5551 3.646
37.5853 3.698
37.6156 3.073
37.6459 3.854
37.6762 3.333
37.7064 3.854
37.7367 3.906
37.7670 2.865
37.7973 2.708
37.8276 3.021
37.8578 2.656
37.8881 3.125
37.9184 2.708
37.9487 3.125
37.9790 2.917
38.0092 2.812
38.0395 3.281
38.0698 2.552
38.1001 3.437
38.1304 3.437
38.1606 3.281
38.1909 2.135
38.2212 2.760
38.2515 2.500
38.2817 2.917
38.3120 3.125
38.3423 2.187
38.3726 2.656
38.4029 3.125
38.4331 2.708
38.4634 2.656
38.4937 2.865
38.5240 1.771
38.5543 2.187
38.5845 2.292
38.6148 2.552
38.6451 3.229
38.6754 2.240
38.7056 2.552
38.7359 2.187
38.7662 1.927
38.7965 2.917
38.8268 2.760
38.8570 2.240
38.8873 1.875
38.9176 2.552
38.9479 1.979
38.9782 2.604
39.0084 1.927
39.0387 1.719
39.0690 1.823
39.0993 1.771
39.1295 2.031
39.1598 2.448
39.1901 2.240
39.2204 2.031
39.2507 2.083
39.2809 2.500
39.3112 2.656
39.3415 1.979
39.3718 1.719
39.4021 2.240
39.4323 1.979
39.4626 1.771
39.4929 2.187
39.5232 1.875
39.5534 1.562
39.5837 1.875
39.6140 1.771
39.6443 1.875
39.6746 2.135
39.7048 2.240
39.7351 2.187
39.7654 1.562
39.7957 2.292
39.8260 1.354
39.8562 2.083
39.8865 1.875
39.9168 1.875
39.9471 1.979
39.9773 2.135
40.0076 2.604
40.0379 2.292
40.0682 2.083
40.0985 2.083
40.1287 1.771
40.1590 1.771
40.1893 2.292
40.2196 1.406
40.2499 1.667
40.2801 1.667
40.3104 1.615
40.3407 1.875
40.3710 2.344
40.4012 1.927
40.4315 1.979
40.4618 1.198
40.4921 1.667
40.5224 1.979
40.5526 1.979
40.5829 2.292
40.6132 1.823
40.6435 1.771
40.6738 1.823
40.7040 1.823
40.7343 2.083
40.7646 1.823
40.7949 1.771
40.8251 1.615
40.8554 1.823
40.8857 2.083
40.9160 1.927
40.9463 1.875
40.9765 1.302
41.0068 1.510
41.0371 1.615
41.0674 1.875
41.0977 1.719
41.1279 1.927
41.1582 1.510
41.1885 2.240
41.2188 1.979
41.2491 2.031
41.2793 1.458
41.3096 1.562
41.3399 1.198
41.3702 1.927
41.4004 1.979
41.4307 1.354
41.4610 1.823
41.4913 1.354
41.5216 0.990
41.5518 1.719
41.5821 2.344
41.6124 1.302
41.6427 1.771
41.6730 2.083
41.7032 1.354
41.7335 2.135
41.7638 1.667
41.7941 1.615
41.8243 1.510
41.8546 1.615
41.8849 1.771
41.9152 1.302
41.9455 1.562
41.9757 1.927
42.0060 1.667
42.0363 2.031
42.0666 1.823
42.0969 1.667
42.1271 1.562
42.1574 1.875
42.1877 1.510
42.2180 1.510
42.2482 1.510
42.2785 2.083
42.3088 1.979
42.3391 1.354
42.3694 1.562
42.3996 1.406
42.4299 1.771
42.4602 1.719
42.4905 1.458
42.5208 1.771
42.5510 1.302
42.5813 1.302
42.6116 1.667
42.6419 1.458
42.6721 1.771
42.7024 1.615
42.7327 1.771
42.7630 1.979
42.7933 1.719
42.8235 1.979
42.8538 1.667
42.8841 1.875
42.9144 1.406
42.9447 1.354
42.9749 1.979
43.0052 1.615
43.0355 1.823
43.0658 1.771
43.0960 2.083
43.1263 1.823
43.1566 1.458
43.1869 1.510
43.2172 1.771
43.2474 1.615
43.2777 1.615
43.3080 1.927
43.3383 1.719
43.3686 1.042
43.3988 1.250
43.4291 1.562
43.4594 2.031
43.4897 1.458
43.5199 1.615
43.5502 1.510
43.5805 1.250
43.6108 1.771
43.6411 1.979
43.6713 1.615
43.7016 1.615
43.7319 1.562
43.7622 1.719
43.7925 2.135
43.8227 1.510
43.8530 1.615
43.8833 0.937
43.9136 1.927
43.9439 1.354
43.9741 2.031
44.0044 1.875
44.0347 2.083
44.0650 1.979
44.0952 1.979
44.1255 1.771
44.1558 1.823
44.1861 1.510
44.2164 1.458
44.2466 1.615
44.2769 1.510
44.3072 1.094
44.3375 1.667
44.3678 1.771
44.3980 1.510
44.4283 1.979
44.4586 1.354
44.4889 1.771
44.5191 1.667
44.5494 1.927
44.5797 1.562
44.6100 1.406
44.6403 1.823
44.6705 1.719
44.7008 1.875
44.7311 2.135
44.7614 1.667
44.7917 2.240
44.8219 1.927
44.8522 2.448
44.8825 2.448
44.9128 1.927
44.9430 1.354
44.9733 1.823
45.0036 2.135
45.0339 1.771
45.0642 1.458
45.0944 1.823
45.1247 1.875
45.1550 1.250
45.1853 1.875
45.2156 2.344
45.2458 2.083
45.2761 2.083
45.3064 1.771
45.3367 1.771
45.3669 2.187
45.3972 2.292
45.4275 2.031
45.4578 2.031
45.4881 1.615
45.5183 1.406
45.5486 1.823
45.5789 1.719
45.6092 2.135
45.6395 2.083
45.6697 1.927
45.7000 2.240
45.7303 1.875
45.7606 1.771
45.7908 1.458
45.8211 1.875
45.8514 2.240
45.8817 2.448
45.9120 2.396
45.9422 2.031
45.9725 1.719
46.0028 2.083
46.0331 1.979
46.0634 1.927
46.0936 1.562
46.1239 1.667
46.1542 2.240
46.1845 2.604
46.2147 2.187
46.2450 2.083
46.2753 2.292
46.3056 1.927
46.3359 2.396
46.3661 1.250
46.3964 2.500
46.4267 2.344
46.4570 2.656
46.4873 3.281
46.5175 2.083
46.5478 2.604
46.5781 2.031
46.6084 2.656
46.6386 2.708
46.6689 3.281
46.6992 2.969
46.7295 2.500
46.7598 2.760
46.7900 2.604
46.8203 3.333
46.8506 3.385
46.8809 3.385
46.9112 3.750
46.9414 3.906
46.9717 4.375
47.0020 5.052
47.0323 4.427
47.0626 4.844
47.0928 4.583
47.1231 6.302
47.1534 6.771
47.1837 8.177
47.2139 7.187
47.2442 8.021
47.2745 8.958
47.3048 8.906
47.3351 10.156
47.3653 10.573
47.3956 11.146
47.4259 11.094
47.4562 11.719
47.4865 10.625
47.5167 10.208
47.5470 9.583
47.5773 9.687
47.6076 8.281
47.6378 6.562
47.6681 7.240
47.6984 5.990
47.7287 5.417
47.7590 5.833
47.7892 5.677
47.8195 5.052
47.8498 3.594
47.8801 4.531
47.9104 2.760
47.9406 3.229
47.9709 3.333
48.0012 2.760
48.0315 3.906
48.0617 2.448
48.0920 2.708
48.1223 2.604
48.1526 2.865
48.1829 3.125
48.2131 3.281
48.2434 2.552
48.2737 2.396
48.3040 2.292
48.3343 2.292
48.3645 2.344
48.3948 2.135
48.4251 2.604
48.4554 2.344
48.4856 2.083
48.5159 2.604
48.5462 2.135
48.5765 2.812
48.6068 2.240
48.6370 1.719
48.6673 1.927
48.6976 2.240
48.7279 2.396
48.7582 1.562
48.7884 1.719
48.8187 1.771
48.8490 1.615
48.8793 1.510
48.9095 1.927
48.9398 1.146
48.9701 1.354
49.0004 2.083
49.0307 2.240
49.0609 1.927
49.0912 1.875
49.1215 1.771
49.1518 1.823
49.1821 1.823
49.2123 2.135
49.2426 1.719
49.2729 1.406
49.3032 1.875
49.3334 2.135
49.3637 1.771
49.3940 1.979
49.4243 1.771
49.4546 1.562
49.4848 1.927
49.5151 1.875
49.5454 2.031
49.5757 1.615
49.6060 1.979
49.6362 1.771
49.6665 1.406
49.6968 1.458
49.7271 1.719
49.7574 1.615
49.7876 1.562
49.8179 1.510
49.8482 2.135
49.8785 2.292
49.9087 1.458
49.9390 1.979
49.9693 2.135
49.9996 1.615
50.0299 1.823
50.0601 1.562
50.0904 1.719
50.1207 1.354
50.1510 1.719
50.1813 1.302
50.2115 1.875
50.2418 1.667
50.2721 1.615
50.3024 1.667
50.3326 1.927
50.3629 1.823
50.3932 2.031
50.4235 1.927
50.4538 1.667
50.4840 1.823
50.5143 1.615
50.5446 2.031
50.5749 1.875
50.6052 0.990
50.6354 1.458
50.6657 1.562
50.6960 1.510
50.7263 1.667
50.7565 1.198
50.7868 2.031
50.8171 1.771
50.8474 2.240
50.8777 1.667
50.9079 1.875
50.9382 1.719
50.9685 1.667
50.9988 1.823
51.0291 1.667
51.0593 2.135
51.0896 1.771
51.1199 2.187
51.1502 1.927
51.1804 1.510
51.2107 1.354
51.2410 1.771
51.2713 1.562
51.3016 1.771
51.3318 1.302
51.3621 1.510
51.3924 1.198
51.4227 1.667
51.4530 1.979
51.4832 1.562
51.5135 1.354
51.5438 1.615
51.5741 1.406
51.6043 1.510
51.6346 1.562
51.6649 1.562
51.6952 1.458
51.7255 1.458
51.7557 1.302
51.7860 1.510
51.8163 1.823
51.8466 1.250
51.8769 1.615
51.9071 2.083
51.9374 1.510
51.9677 1.875
51.9980 1.771
52.0282 1.250
52.0585 1.094
52.0888 1.458
52.1191 1.823
52.1494 1.615
52.1796 1.562
52.2099 1.354
52.2402 1.146
52.2705 1.979
52.3008 1.875
52.3310 1.562
52.3613 1.823
52.3916 1.615
52.4219 1.250
52.4521 1.146
52.4824 1.615
52.5127 1.354
52.5430 1.927
52.5733 1.302
52.6035 1.771
52.6338 1.562
52.6641 1.823
52.6944 1.250
52.7247 1.771
52.7549 1.354
52.7852 1.094
52.8155 1.302
52.8458 1.771
52.8761 1.354
52.9063 1.406
52.9366 1.719
52.9669 1.510
52.9972 1.302
53.0274 1.615
53.0577 1.615
53.0880 1.094
53.1183 2.031
53.1486 1.615
53.1788 1.979
53.2091 1.719
53.2394 2.135
53.2697 1.354
53.3000 1.667
53.3302 1.562
53.3605 1.823
53.3908 1.823
53.4211 1.823
53.4513 1.458
53.4816 1.771
53.5119 1.094
53.5422 1.875
53.5725 1.458
53.6027 1.562
53.6330 1.823
53.6633 1.823
53.6936 1.823
53.7239 1.719
53.7541 1.667
53.7844 1.146
53.8147 1.562
53.8450 1.667
53.8752 1.771
53.9055 1.875
53.9358 1.667
53.9661 2.187
53.9964 1.094
54.0266 1.823
54.0569 1.719
54.0872 1.875
54.1175 1.615
54.1478 1.771
54.1780 1.615
54.2083 2.187
54.2386 1.615
54.2689 2.240
54.2991 1.406
54.3294 1.927
54.3597 2.135
54.3900 1.979
54.4203 1.927
54.4505 2.552
54.4808 1.771
54.5111 1.875
54.5414 1.406
54.5717 1.927
54.6019 1.875
54.6322 1.354
54.6625 1.719
54.6928 1.719
54.7230 2.031
54.7533 1.927
54.7836 1.823
54.8139 1.927
54.8442 1.771
54.8744 2.083
54.9047 1.771
54.9350 1.510
54.9653 1.667
54.9956 1.927
55.0258 2.240
55.0561 2.812
55.0864 2.240
55.1167 1.875
55.1469 2.448
55.1772 2.083
55.2075 2.031
55.2378 2.656
55.2681 3.073
55.2983 1.979
55.3286 1.719
55.3589 2.083
55.3892 2.396
55.4195 2.187
55.4497 3.125
55.4800 2.344
55.5103 2.708
55.5406 2.396
55.5709 2.396
55.6011 3.385
55.6314 2.917
55.6617 3.229
55.6920 2.760
55.7222 3.750
55.7525 3.437
55.7828 4.792
55.8131 3.646
55.8434 3.698
55.8736 3.646
55.9039 5.052
55.9342 4.583
55.9645 3.906
55.9948 5.937
56.0250 5.312
56.0553 6.302
56.0856 5.937
56.1159 7.500
56.1461 6.354
56.1764 7.760
56.2067 8.802
56.2370 9.062
56.2673 10.729
56.2975 11.198
56.3278 10.573
56.3581 12.865
56.3884 12.812
56.4187 13.906
56.4489 15.000
56.4792 14.948
56.5095 13.594
56.5398 12.240
56.5700 12.292
56.6003 12.812
56.6306 11.458
56.6609 10.104
56.6912 10.156
56.7214 10.573
56.7517 8.750
56.7820 8.125
56.8123 6.927
56.8426 7.552
56.8728 5.208
56.9031 5.573
56.9334 5.000
56.9637 4.740
56.9939 4.323
57.0242 4.167
57.0545 4.219
57.0848 4.740
57.1151 3.125
57.1453 4.115
57.1756 2.969
57.2059 3.021
57.2362 3.281
57.2665 2.708
57.2967 2.865
57.3270 2.812
57.3573 2.604
57.3876 2.448
57.4178 3.229
57.4481 2.448
57.4784 2.031
57.5087 2.292
57.5390 2.917
57.5692 1.927
57.5995 2.292
57.6298 2.917
57.6601 2.396
57.6904 2.031
57.7206 2.187
57.7509 2.292
57.7812 2.083
57.8115 2.135
57.8417 2.500
57.8720 1.406
57.9023 1.927
57.9326 1.458
57.9629 2.083
57.9931 2.240
58.0234 1.771
58.0537 1.510
58.0840 1.458
58.1143 2.240
58.1445 1.615
58.1748 2.135
58.2051 1.458
58.2354 1.458
58.2656 2.083
58.2959 2.240
58.3262 1.719
58.3565 1.719
58.3868 1.562
58.4170 1.562
58.4473 2.083
58.4776 1.823
58.5079 1.823
58.5382 1.354
58.5684 1.875
58.5987 1.250
58.6290 2.083
58.6593 1.458
58.6896 1.458
58.7198 1.823
58.7501 1.406
58.7804 1.927
58.8107 1.615
58.8409 1.615
58.8712 1.406
58.9015 1.510
58.9318 2.031
58.9621 1.510
58.9923 2.083
59.0226 1.719
59.0529 1.562
59.0832 1.354
59.1135 1.510
59.1437 1.875
59.1740 1.771
59.2043 1.354
59.2346 1.562
59.2648 1.406
59.2951 1.562
59.3254 1.875
59.3557 1.875
59.3860 2.135
59.4162 1.354
59.4465 1.458
59.4768 1.615
59.5071 1.406
59.5374 1.719
59.5676 1.979
59.5979 1.667
59.6282 1.510
59.6585 1.302
59.6887 1.562
59.7190 1.250
59.7493 1.354
59.7796 1.667
59.8099 1.302
59.8401 1.719
59.8704 1.302
59.9007 2.031
59.9310 1.406
59.9613 1.771
59.9915 1.406
60.0218 1.510
60.0521 1.719
60.0824 1.719
60.1126 1.302
60.1429 2.031
60.1732 1.042
60.2035 1.406
60.2338 2.031
60.2640 1.771
60.2943 1.719
60.3246 1.667
60.3549 1.615
60.3852 1.510
60.4154 1.354
60.4457 1.354
60.4760 1.979
60.5063 1.458
60.5365 2.083
60.5668 1.823
60.5971 1.719
60.6274 2.083
60.6577 1.510
60.6879 2.083
60.7182 1.562
60.7485 1.250
60.7788 1.823
60.8091 1.615
60.8393 1.510
60.8696 1.562
60.8999 1.510
60.9302 2.083
60.9604 2.344
60.9907 1.615
61.0210 1.458
61.0513 1.823
61.0816 1.458
61.1118 2.240
61.1421 1.979
61.1724 1.458
61.2027 1.667
61.2330 2.292
61.2632 1.927
61.2935 2.083
61.3238 2.292
61.3541 2.031
61.3844 2.083
61.4146 1.875
61.4449 1.875
61.4752 1.979
61.5055 2.083
61.5357 2.031
61.5660 2.240
61.5963 2.292
61.6266 2.240
61.6569 2.240
61.6871 1.562
61.7174 2.448
61.7477 2.083
61.7780 2.865
61.8083 2.500
61.8385 2.031
61.8688 1.771
61.8991 2.760
61.9294 2.396
61.9596 2.500
61.9899 3.437
62.0202 2.604
62.0505 2.604
62.0808 2.917
62.1110 4.323
62.1413 2.969
62.1716 2.969
62.2019 4.115
62.2322 4.115
62.2624 4.323
62.2927 3.958
62.3230 4.792
62.3533 5.208
62.3835 5.677
62.4138 5.573
62.4441 6.875
62.4744 7.760
62.5047 7.187
62.5349 8.021
62.5652 7.969
62.5955 9.427
62.6258 10.417
62.6561 10.156
62.6863 10.625
62.7166 10.208
62.7469 11.354
62.7772 11.302
62.8074 9.479
62.8377 10.937
62.8680 9.375
62.8983 9.323
62.9286 9.531
62.9588 9.115
62.9891 8.229
63.0194 7.604
63.0497 6.510
63.0800 6.562
63.1102 5.885
63.1405 5.729
63.1708 4.687
63.2011 4.167
63.2313 4.010
63.2616 4.219
63.2919 3.646
63.3222 3.437
63.3525 3.333
63.3827 3.229
63.4130 3.125
63.4433 2.760
63.4736 2.917
63.5039 2.500
63.5341 3.073
63.5644 2.917
63.5947 2.500
63.6250 2.500
63.6552 2.500
63.6855 1.979
63.7158 2.083
63.7461 1.823
63.7764 2.292
63.8066 1.927
63.8369 1.615
63.8672 2.240
63.8975 1.667
63.9278 1.510
63.9580 1.875
63.9883 2.083
64.0186 2.031
64.0489 1.354
64.0791 2.760
64.1094 2.448
64.1397 1.719
64.1700 1.667
64.2003 2.448
64.2305 1.406
64.2608 1.875
64.2911 1.458
64.3214 1.250
64.3517 1.927
64.3819 1.302
64.4122 1.719
64.4425 2.083
64.4728 2.240
64.5031 2.083
64.5333 2.187
64.5636 2.292
64.5939 1.615
64.6242 1.771
64.6544 1.823
64.6847 1.979
64.7150 2.083
64.7453 1.458
64.7756 1.615
64.8058 1.354
64.8361 1.354
64.8664 1.719
64.8967 1.562
64.9270 2.031
64.9572 1.146
64.9875 1.510
65.0178 1.667
65.0481 1.667
65.0783 2.083
65.1086 1.458
65.1389 1.875
65.1692 1.979
65.1995 1.875
65.2297 1.562
65.2600 1.927
65.2903 2.031
65.3206 1.615
65.3509 2.812
65.3811 2.135
65.4114 1.823
65.4417 1.667
65.4720 2.240
65.5022 1.458
65.5325 1.615
65.5628 2.135
65.5931 1.719
65.6234 1.875
65.6536 1.406
65.6839 2.135
65.7142 1.823
65.7445 2.344
65.7748 2.396
65.8050 1.875
65.8353 2.344
65.8656 1.979
65.8959 2.656
65.9261 2.969
65.9564 2.187
65.9867 2.448
66.0170 2.500
66.0473 2.917
66.0775 2.969
66.1078 2.812
66.1381 3.385
66.1684 2.396
66.1987 2.708
66.2289 3.229
66.2592 3.073
66.2895 2.812
66.3198 2.812
66.3500 2.812
66.3803 3.698
66.4106 1.875
66.4409 2.708
66.4712 2.656
66.5014 3.281
66.5317 2.135
66.5620 2.656
66.5923 3.229
66.6226 2.396
66.6528 2.240
66.6831 2.604
66.7134 3.333
66.7437 2.240
66.7739 3.177
66.8042 3.021
66.8345 2.865
66.8648 2.865
66.8951 2.708
66.9253 2.552
66.9556 2.760
66.9859 3.177
67.0162 3.229
67.0465 2.917
67.0767 3.073
67.1070 2.969
67.1373 3.542
67.1676 2.917
67.1978 2.656
67.2281 3.437
67.2584 3.229
67.2887 3.542
67.3190 4.479
67.3492 3.698
67.3795 3.646
67.4098 3.854
67.4401 4.115
67.4704 5.208
67.5006 5.156
67.5309 4.271
67.5612 5.677
67.5915 7.083
67.6218 5.937
67.6520 6.250
67.6823 6.615
67.7126 6.615
67.7429 9.062
67.7731 8.229
67.8034 9.583
67.8337 8.437
67.8640 9.583
67.8943 8.958
67.9245 8.229
67.9548 9.375
67.9851 8.333
68.0154 8.646
68.0457 7.292
68.0759 6.510
68.1062 6.927
68.1365 5.729
68.1668 6.094
68.1970 5.104
68.2273 4.792
68.2576 4.167
68.2879 4.792
68.3182 3.854
68.3484 3.958
68.3787 4.219
68.4090 3.490
68.4393 4.271
68.4696 3.177
68.4998 3.698
68.5301 4.427
68.5604 3.958
68.5907 3.594
68.6209 3.906
68.6512 4.167
68.6815 3.906
68.7118 3.906
68.7421 4.687
68.7723 4.844
68.8026 4.323
68.8329 4.271
68.8632 4.792
68.8935 5.365
68.9237 5.677
68.9540 4.792
68.9843 4.844
69.0146 5.000
69.0448 5.104
69.0751 4.219
69.1054 4.375
69.1357 5.469
69.1660 3.906
69.1962 4.427
69.2265 4.271
69.2568 3.333
69.2871 3.802
69.3174 4.375
69.3476 3.542
69.3779 2.969
69.4082 3.333
69.4385 2.812
69.4687 1.875
69.4990 2.604
69.5293 2.708
69.5596 1.875
69.5899 2.344
69.6201 2.396
69.6504 2.083
69.6807 2.448
69.7110 2.187
69.7413 2.031
69.7715 1.458
69.8018 2.031
69.8321 1.667
69.8624 1.823
69.8926 2.083
69.9229 1.667
69.9532 1.979
69.9835 2.135
70.0138 2.240
70.0440 1.667
70.0743 1.615
70.1046 1.562
70.1349 1.458
70.1652 1.667
70.1954 1.302
70.2257 1.354
70.2560 1.719
70.2863 1.458
70.3166 1.667
70.3468 1.250
70.3771 1.510
70.4074 2.135
70.4377 1.562
70.4679 1.458
70.4982 1.771
70.5285 1.458
70.5588 1.302
70.5891 1.615
70.6193 1.302
70.6496 1.302
70.6799 1.354
70.7102 1.458
70.7405 1.458
70.7707 1.458
70.8010 1.771
70.8313 1.354
70.8616 0.990
70.8918 1.719
70.9221 1.302
70.9524 1.354
70.9827 1.198
71.0130 1.562
71.0432 1.562
71.0735 1.146
71.1038 1.354
71.1341 1.042
71.1644 0.990
71.1946 1.146
71.2249 2.031
71.2552 0.729
71.2855 1.510
71.3157 0.990
71.3460 1.198
71.3763 1.771
71.4066 1.250
71.4369 1.198
71.4671 1.250
71.4974 1.250
71.5277 0.937
71.5580 1.667
71.5883 1.562
71.6185 1.719
71.6488 1.094
71.6791 1.823
71.7094 1.198
71.7396 1.198
71.7699 1.458
71.8002 1.302
71.8305 1.458
71.8608 1.406
71.8910 1.250
71.9213 1.198
71.9516 1.615
71.9819 0.990
72.0122 1.667
72.0424 1.354
72.0727 1.823
72.1030 1.510
72.1333 1.250
72.1635 1.719
72.1938 0.990
72.2241 0.990
72.2544 1.458
72.2847 1.250
72.3149 1.875
72.3452 1.719
72.3755 0.937
72.4058 1.719
72.4361 1.458
72.4663 1.979
72.4966 1.562
72.5269 1.458
72.5572 1.927
72.5874 1.979
72.6177 2.083
72.6480 1.146
72.6783 1.615
72.7086 1.719
72.7388 1.458
72.7691 1.302
72.7994 0.937
72.8297 1.510
72.8600 1.250
72.8902 1.562
72.9205 1.615
72.9508 1.302
72.9811 1.250
73.0113 1.875
73.0416 1.198
73.0719 1.250
73.1022 1.198
73.1325 1.667
73.1627 1.406
73.1930 1.354
73.2233 1.198
73.2536 1.771
73.2839 1.302
73.3141 1.719
73.3444 0.729
73.3747 1.094
73.4050 1.042
73.4353 1.250
73.4655 1.146
73.4958 1.302
73.5261 0.573
73.5564 1.146
73.5866 0.937
73.6169 1.406
73.6472 1.250
73.6775 1.250
73.7078 0.990
73.7380 0.729
73.7683 1.250
73.7986 0.937
73.8289 1.094
73.8592 0.729
73.8894 1.302
73.9197 0.885
73.9500 0.990
73.9803 1.198
74.0105 0.990
74.0408 1.146
74.0711 1.510
74.1014 1.146
74.1317 1.250
74.1619 1.302
74.1922 0.833
74.2225 0.469
74.2528 0.885
74.2831 1.719
74.3133 0.990
74.3436 1.198
74.3739 0.885
74.4042 0.937
74.4344 1.510
74.4647 0.990
74.4950 1.302
74.5253 0.729
74.5556 0.937
74.5858 1.094
74.6161 1.198
74.6464 1.250
74.6767 1.354
74.7070 1.250
74.7372 1.250
74.7675 0.729
74.7978 0.781
74.8281 1.354
74.8583 1.302
74.8886 1.094
74.9189 1.354
74.9492 0.729
74.9795 1.094
75.0097 1.302
75.0400 0.885
75.0703 1.198
75.1006 1.302
75.1309 1.094
75.1611 1.042
75.1914 0.990
75.2217 1.198
75.2520 0.625
75.2822 1.354
75.3125 0.573
75.3428 0.781
75.3731 0.729
75.4034 0.833
75.4336 0.729
75.4639 0.990
75.4942 0.990
75.5245 1.250
75.5548 1.198
75.5850 1.302
75.6153 0.729
75.6456 1.146
75.6759 0.937
75.7061 1.354
75.7364 0.833
75.7667 1.198
75.7970 0.990
75.8273 1.302
75.8575 0.677
75.8878 1.198
75.9181 1.146
75.9484 0.833
75.9787 0.937
76.0089 1.615
76.0392 1.146
76.0695 1.510
76.0998 1.094
76.1301 1.510
76.1603 1.250
76.1906 1.250
76.2209 1.510
76.2512 1.562
76.2814 1.510
76.3117 1.458
76.3420 1.823
76.3723 1.354
76.4026 1.302
76.4328 1.667
76.4631 1.510
76.4934 1.615
76.5237 1.562
76.5540 1.458
76.5842 1.302
76.6145 1.875
76.6448 1.406
76.6751 1.562
76.7053 2.344
76.7356 1.667
76.7659 2.031
76.7962 2.187
76.8265 1.250
76.8567 1.979
76.8870 1.823
76.9173 1.719
76.9476 2.187
76.9779 1.667
77.0081 1.302
77.0384 1.771
77.0687 1.615
77.0990 1.667
77.1292 1.406
77.1595 1.458
77.1898 1.667
77.2201 1.562
77.2504 1.719
77.2806 1.458
77.3109 1.562
77.3412 1.406
77.3715 1.198
77.4018 1.094
77.4320 1.458
77.4623 1.042
77.4926 1.302
77.5229 0.885
77.5531 1.042
77.5834 1.094
77.6137 1.198
77.6440 1.510
77.6743 0.937
77.7045 0.990
77.7348 1.510
77.7651 0.729
77.7954 1.042
77.8257 1.667
77.8559 0.990
77.8862 1.198
77.9165 1.198
77.9468 1.510
77.9770 1.198
78.0073 1.250
78.0376 1.667
78.0679 1.198
78.0982 1.510
78.1284 1.094
78.1587 1.094
78.1890 0.833
78.2193 1.198
78.2496 0.990
78.2798 0.729
78.3101 1.146
78.3404 1.354
78.3707 0.729
78.4009 1.354
78.4312 1.302
78.4615 0.990
78.4918 1.250
78.5221 0.937
78.5523 0.833
78.5826 1.198
78.6129 1.094
78.6432 0.937
78.6735 0.885
78.7037 1.198
78.7340 1.354
78.7643 1.146
78.7946 1.250
78.8248 1.146
78.8551 0.729
78.8854 0.729
78.9157 0.937
78.9460 1.198
78.9762 0.990
79.0065 1.146
79.0368 0.990
79.0671 1.302
79.0974 1.458
79.1276 1.302
79.1579 1.094
79.1882 1.250
79.2185 1.406
79.2488 1.198
79.2790 0.937
79.3093 1.198
79.3396 1.250
79.3699 1.042
79.4001 1.354
79.4304 1.667
79.4607 0.990
79.4910 1.771
79.5213 0.781
79.5515 1.302
79.5818 1.198
79.6121 0.833
79.6424 1.094
79.6727 0.729
79.7029 1.094
79.7332 1.094
79.7635 0.781
79.7938 1.719
79.8240 1.094
79.8543 1.250
79.8846 1.302
79.9149 1.667
79.9452 0.833
79.9754 0.885
80.0057 0.885
80.0360 1.042
80.0663 1.302
80.0966 0.990
80.1268 1.042
80.1571 0.885
80.1874 1.042
80.2177 1.198
80.2479 1.198
80.2782 1.094
80.3085 1.094
80.3388 1.250
80.3691 1.250
80.3993 1.198
80.4296 1.094
80.4599 1.875
80.4902 1.198
80.5205 1.146
80.5507 1.406
80.5810 1.198
80.6113 1.198
80.6416 1.302
80.6718 0.833
80.7021 1.302
80.7324 0.781
80.7627 1.198
80.7930 1.094
80.8232 1.719
80.8535 1.094
80.8838 1.458
80.9141 1.354
80.9444 0.990
80.9746 1.198
81.0049 1.927
81.0352 1.354
81.0655 1.354
81.0957 1.510
81.1260 1.458
81.1563 1.719
81.1866 1.458
81.2169 1.406
81.2471 1.667
81.2774 1.615
81.3077 1.615
81.3380 1.562
81.3683 1.562
81.3985 1.094
81.4288 1.354
81.4591 1.771
81.4894 1.198
81.5196 1.354
81.5499 1.406
81.5802 1.771
81.6105 1.302
81.6408 1.562
81.6710 1.250
81.7013 1.354
81.7316 1.510
81.7619 1.250
81.7922 1.510
81.8224 0.677
81.8527 1.406
81.8830 0.990
81.9133 1.198
81.9436 1.146
81.9738 0.885
82.0041 0.729
82.0344 1.354
82.0647 1.094
82.0949 1.146
82.1252 1.667
82.1555 1.667
82.1858 0.833
82.2161 0.990
82.2463 1.094
82.2766 1.250
82.3069 1.250
82.3372 0.937
82.3675 0.937
82.3977 0.885
82.4280 1.198
82.4583 1.354
82.4886 0.833
82.5188 0.937
82.5491 0.833
82.5794 0.781
82.6097 0.885
82.6400 1.146
82.6702 0.729
82.7005 1.302
82.7308 1.146
82.7611 1.198
82.7914 1.094
82.8216 1.302
82.8519 0.677
82.8822 0.937
82.9125 1.406
82.9427 0.781
82.9730 0.885
83.0033 1.198
83.0336 0.833
83.0639 1.406
83.0941 1.302
83.1244 1.406
83.1547 0.937
83.1850 1.042
83.2153 1.458
83.2455 0.729
83.2758 1.250
83.3061 0.781
83.3364 0.833
83.3666 0.885
83.3969 1.302
83.4272 1.094
83.4575 1.042
83.4878 1.458
83.5180 1.458
83.5483 1.094
83.5786 0.729
83.6089 0.990
83.6392 0.990
83.6694 1.146
83.6997 1.042
83.7300 1.198
83.7603 0.885
83.7905 0.990
83.8208 0.990
83.8511 0.729
83.8814 0.937
83.9117 0.990
83.9419 1.198
83.9722 1.198
84.0025 0.885
84.0328 1.458
84.0631 0.781
84.0933 0.729
84.1236 0.937
84.1539 0.781
84.1842 1.146
84.2144 1.042
84.2447 0.885
84.2750 0.781
84.3053 1.042
84.3356 1.250
84.3658 0.990
84.3961 1.094
84.4264 1.198
84.4567 1.458
84.4870 1.042
84.5172 1.458
84.5475 1.094
84.5778 0.781
84.6081 0.729
84.6383 1.198
84.6686 1.094
84.6989 1.146
84.7292 1.510
84.7595 1.458
84.7897 0.990
84.8200 0.990
84.8503 1.094
84.8806 0.990
84.9109 1.042
84.9411 0.990
84.9714 1.094
85.0017 1.667
85.0320 1.198
85.0623 0.833
85.0925 1.146
85.1228 1.198
85.1531 0.833
85.1834 0.833
85.2136 0.521
85.2439 0.885
85.2742 0.781
85.3045 0.781
85.3348 0.937
85.3650 0.937
85.3953 1.198
85.4256 0.781
85.4559 1.250
85.4862 0.885
85.5164 1.094
85.5467 1.094
85.5770 0.937
85.6073 1.406
85.6375 1.250
85.6678 0.573
85.6981 0.885
85.7284 0.729
85.7587 0.677
85.7889 0.625
85.8192 0.729
85.8495 1.198
85.8798 1.146
85.9101 1.042
85.9403 0.990
85.9706 0.677
86.0009 0.937
86.0312 0.937
86.0614 1.146
86.0917 1.250
86.1220 1.094
86.1523 0.729
86.1826 1.094
86.2128 0.729
86.2431 1.354
86.2734 0.937
86.3037 0.885
86.3340 0.990
86.3642 1.250
86.3945 0.573
86.4248 1.042
86.4551 1.354
86.4853 0.833
86.5156 1.146
86.5459 1.146
86.5762 1.042
86.6065 1.198
86.6367 0.781
86.6670 0.729
86.6973 1.042
86.7276 0.990
86.7579 1.562
86.7881 1.302
86.8184 0.937
86.8487 1.146
86.8790 1.198
86.9092 1.302
86.9395 1.198
86.9698 0.937
87.0001 0.990
87.0304 1.406
87.0606 1.510
87.0909 0.990
87.1212 0.885
87.1515 1.302
87.1818 1.198
87.2120 1.198
87.2423 0.833
87.2726 1.510
87.3029 1.042
87.3331 1.250
87.3634 1.667
87.3937 0.781
87.4240 1.198
87.4543 1.562
87.4845 1.667
87.5148 1.354
87.5451 0.990
87.5754 1.198
87.6057 1.198
87.6359 0.625
87.6662 1.302
87.6965 0.885
87.7268 0.885
87.7571 1.198
87.7873 1.146
87.8176 1.042
87.8479 1.198
87.8782 1.562
87.9084 1.510
87.9387 1.719
87.9690 1.198
87.9993 1.198
88.0296 0.885
88.0598 1.094
88.0901 1.302
88.1204 1.250
88.1507 0.833
88.1810 0.833
88.2112 1.094
88.2415 0.677
88.2718 1.510
88.3021 1.198
88.3323 1.094
88.3626 0.990
88.3929 1.510
88.4232 1.458
88.4535 1.406
88.4837 1.562
88.5140 1.094
88.5443 1.458
88.5746 1.198
88.6049 0.781
88.6351 1.510
88.6654 1.458
88.6957 1.615
88.7260 1.302
88.7562 1.771
88.7865 1.615
88.8168 1.146
88.8471 1.198
88.8774 1.354
88.9076 1.719
88.9379 1.562
88.9682 1.875
88.9985 1.667
89.0288 2.135
89.0590 1.510
89.0893 1.875
89.1196 1.667
89.1499 2.760
89.1801 1.979
89.2104 2.500
89.2407 1.979
89.2710 2.031
89.3013 2.083
89.3315 2.969
89.3618 2.500
89.3921 2.240
89.4224 2.656
89.4527 2.083
89.4829 2.135
89.5132 2.344
89.5435 2.552
89.5738 2.344
89.6040 3.333
89.6343 3.125
89.6646 2.604
89.6949 2.396
89.7252 1.927
89.7554 2.031
89.7857 3.073
89.8160 1.927
89.8463 1.875
89.8766 1.823
89.9068 2.344
89.9371 2.240
89.9674 1.823
89.9977 1.667
90.0279 2.500
90.0582 1.615
90.0885 1.510
90.1188 1.771
90.1491 1.667
90.1793 1.667
90.2096 1.615
90.2399 1.615
90.2702 1.458
90.3005 1.458
90.3307 1.823
90.3610 1.198
90.3913 1.198
90.4216 1.458
90.4518 1.250
90.4821 1.667
90.5124 1.250
90.5427 1.458
90.5730 1.510
90.6032 1.094
90.6335 1.406
90.6638 1.302
90.6941 0.937
90.7244 1.406
90.7546 1.250
90.7849 1.667
90.8152 1.302
90.8455 1.615
90.8758 1.615
90.9060 1.719
90.9363 1.146
90.9666 0.990
90.9969 1.042
91.0271 1.042
91.0574 1.250
91.0877 0.729
91.1180 1.198
91.1483 1.250
91.1785 1.458
91.2088 1.719
91.2391 1.562
91.2694 0.990
91.2997 1.094
91.3299 0.937
91.3602 1.354
91.3905 1.250
91.4208 1.510
91.4510 1.354
91.4813 1.771
91.5116 1.198
91.5419 1.302
91.5722 1.354
91.6024 1.562
91.6327 1.198
91.6630 1.354
91.6933 1.198
91.7236 0.729
91.7538 1.094
91.7841 1.198
91.8144 0.990
91.8447 1.146
91.8749 1.562
91.9052 1.458
91.9355 1.094
91.9658 1.094
91.9961 1.354
92.0263 0.885
92.0566 1.094
92.0869 1.198
92.1172 0.937
92.1475 1.667
92.1777 0.885
92.2080 1.510
92.2383 1.823
92.2686 1.667
92.2988 1.198
92.3291 1.458
92.3594 1.146
92.3897 2.031
92.4200 1.510
92.4502 1.354
92.4805 1.510
92.5108 1.302
92.5411 1.615
92.5714 1.458
92.6016 1.354
92.6319 1.615
92.6622 1.615
92.6925 1.354
92.7227 1.406
92.7530 1.354
92.7833 1.198
92.8136 1.979
92.8439 1.875
92.8741 1.667
92.9044 1.302
92.9347 1.458
92.9650 1.667
92.9953 1.667
93.0255 1.771
93.0558 1.094
93.0861 1.042
93.1164 1.719
93.1466 1.094
93.1769 1.875
93.2072 1.250
93.2375 1.302
93.2678 1.510
93.2980 1.875
93.3283 1.562
93.3586 0.729
93.3889 1.354
93.4192 1.042
93.4494 0.937
93.4797 0.833
93.5100 1.875
93.5403 0.781
93.5706 1.302
93.6008 1.875
93.6311 1.198
93.6614 0.990
93.6917 1.146
93.7219 1.615
93.7522 1.510
93.7825 1.354
93.8128 1.094
93.8431 1.510
93.8733 1.406
93.9036 1.042
93.9339 1.719
93.9642 1.562
93.9945 1.354
94.0247 1.146
94.0550 1.510
94.0853 0.990
94.1156 1.198
94.1458 1.406
94.1761 1.042
94.2064 1.771
94.2367 1.250
94.2670 1.250
94.2972 1.771
94.3275 2.083
94.3578 1.250
94.3881 1.250
94.4184 1.198
94.4486 1.927
94.4789 1.094
94.5092 1.719
94.5395 1.667
94.5697 1.250
94.6000 1.198
94.6303 1.875
94.6606 1.510
94.6909 1.562
94.7211 2.083
94.7514 2.187
94.7817 1.823
94.8120 1.875
94.8423 1.406
94.8725 2.135
94.9028 2.135
94.9331 2.240
94.9634 2.604
94.9936 2.812
95.0239 2.135
95.0542 2.292
95.0845 2.812
95.1148 2.760
95.1450 2.552
95.1753 2.240
95.2056 2.135
95.2359 2.917
95.2662 3.073
95.2964 2.031
95.3267 2.812
95.3570 2.500
95.3873 2.448
95.4175 2.135
95.4478 2.708
95.4781 1.823
95.5084 1.875
95.5387 2.448
95.5689 2.031
95.5992 2.135
95.6295 2.656
95.6598 2.344
95.6901 1.667
95.7203 1.198
95.7506 1.979
95.7809 1.875
95.8112 1.719
95.8414 1.927
95.8717 1.510
95.9020 1.615
95.9323 1.719
95.9626 1.771
95.9928 1.250
96.0231 1.458
96.0534 1.510
96.0837 1.458
96.1140 1.406
96.1442 1.354
96.1745 1.146
96.2048 1.510
96.2351 0.729
96.2653 1.406
96.2956 1.250
96.3259 1.198
96.3562 1.094
96.3865 1.875
96.4167 1.250
96.4470 1.354
96.4773 1.094
96.5076 1.042
96.5379 1.250
96.5681 1.406
96.5984 1.198
96.6287 1.302
96.6590 1.615
96.6893 1.198
96.7195 0.573
96.7498 0.781
96.7801 1.198
96.8104 1.250
96.8406 1.615
96.8709 1.250
96.9012 1.146
96.9315 1.354
96.9618 0.781
96.9920 1.458
97.0223 1.094
97.0526 1.094
97.0829 1.354
97.1132 1.146
97.1434 0.781
97.1737 1.302
97.2040 1.198
97.2343 1.250
97.2645 1.042
97.2948 0.937
97.3251 1.042
97.3554 1.354
97.3857 1.510
97.4159 1.510
97.4462 1.198
97.4765 1.354
97.5068 1.094
97.5371 1.562
97.5673 1.250
97.5976 0.990
97.6279 1.042
97.6582 1.250
97.6884 1.406
97.7187 1.354
97.7490 1.250
97.7793 0.833
97.8096 1.510
97.8398 1.354
97.8701 0.885
97.9004 1.094
97.9307 1.302
97.9610 1.667
97.9912 1.198
98.0215 1.250
98.0518 1.562
98.0821 1.771
98.1123 1.250
98.1426 1.510
98.1729 1.198
98.2032 1.510
98.2335 1.615
98.2637 1.771
98.2940 2.187
98.3243 1.771
98.3546 1.562
98.3849 1.875
98.4151 1.719
98.4454 1.823
98.4757 1.250
98.5060 2.135
98.5362 1.719
98.5665 2.031
98.5968 2.292
98.6271 1.771
98.6574 1.667
98.6876 2.604
98.7179 1.771
98.7482 2.083
98.7785 2.083
98.8088 1.667
98.8390 1.719
98.8693 1.198
98.8996 1.927
98.9299 1.823
98.9601 1.927
98.9904 1.823
99.0207 1.094
99.0510 1.667
99.0813 1.510
99.1115 1.198
99.1418 1.094
99.1721 1.510
99.2024 1.302
99.2327 1.302
99.2629 1.146
99.2932 1.042
99.3235 1.302
99.3538 1.198
99.3841 0.781
99.4143 1.302
99.4446 1.302
99.4749 0.990
99.5052 1.302
99.5354 1.510
99.5657 1.302
99.5960 1.094
99.6263 1.302
99.6566 1.042
99.6868 1.406
99.7171 1.146
99.7474 0.781
99.7777 1.667
99.8080 1.146
99.8382 1.302
99.8685 0.885
99.8988 1.094
99.9291 1.146
99.9593 1.510
99.9896 0.781
100.0199 1.042
100.0502 0.937
100.0805 1.302
100.1107 1.250
100.1410 1.250
100.1713 0.833
100.2016 1.250
100.2319 0.833
100.2621 0.990
100.2924 1.406
100.3227 1.406
100.3530 1.094
100.3832 0.833
100.4135 1.094
100.4438 0.990
100.4741 1.458
100.5044 1.302
100.5346 1.094
100.5649 1.198
100.5952 1.354
100.6255 1.354
100.6558 0.833
100.6860 1.198
100.7163 0.781
100.7466 1.042
100.7769 0.781
100.8071 0.885
100.8374 1.823
100.8677 0.729
100.8980 1.302
100.9283 1.198
100.9585 1.302
100.9888 0.937
101.0191 1.510
101.0494 1.094
101.0797 1.250
101.1099 1.094
101.1402 1.615
101.1705 0.833
101.2008 1.302
101.2310 0.937
101.2613 1.146
101.2916 0.885
101.3219 1.198
101.3522 1.302
101.3824 1.250
101.4127 1.094
101.4430 0.833
101.4733 1.458
101.5036 1.615
101.5338 1.250
101.5641 1.094
101.5944 1.146
101.6247 1.719
101.6549 1.562
101.6852 1.198
101.7155 1.198
101.7458 1.146
101.7761 1.562
101.8063 0.885
101.8366 0.937
101.8669 1.458
101.8972 1.667
101.9275 1.302
101.9577 1.146
101.9880 1.562
102.0183 1.354
102.0486 1.458
102.0788 1.562
102.1091 1.198
102.1394 1.719
102.1697 1.198
102.2000 1.250
102.2302 1.042
102.2605 1.354
102.2908 1.302
102.3211 1.615
102.3514 1.302
102.3816 1.562
102.4119 1.302
102.4422 1.198
102.4725 0.990
102.5028 1.406
102.5330 1.875
102.5633 1.510
102.5936 1.250
102.6239 1.979
102.6541 2.135
102.6844 1.354
102.7147 1.615
102.7450 1.667
102.7753 1.354
102.8055 1.875
102.8358 1.510
102.8661 1.406
102.8964 1.771
102.9267 2.083
102.9569 1.250
102.9872 1.979
103.0175 1.667
103.0478 1.354
103.0780 1.094
103.1083 1.927
103.1386 1.667
103.1689 1.719
103.1992 1.354
103.2294 1.719
103.2597 1.823
103.2900 2.031
103.3203 1.771
103.3506 2.135
103.3808 1.354
103.4111 1.875
103.4414 1.510
103.4717 1.979
103.5019 1.979
103.5322 1.719
103.5625 1.250
103.5928 1.615
103.6231 1.562
103.6533 1.510
103.6836 1.510
103.7139 2.396
103.7442 2.187
103.7745 1.458
103.8047 1.615
103.8350 1.510
103.8653 1.562
103.8956 2.031
103.9258 2.135
103.9561 2.135
103.9864 2.292
104.0167 2.448
104.0470 2.031
104.0772 2.396
104.1075 1.979
104.1378 2.552
104.1681 2.083
104.1984 2.031
104.2286 1.927
104.2589 2.031
104.2892 2.031
104.3195 1.406
104.3497 1.198
104.3800 2.083
104.4103 1.458
104.4406 2.865
104.4709 1.667
104.5011 1.875
104.5314 1.667
104.5617 1.719
104.5920 1.719
104.6223 1.042
104.6525 2.135
104.6828 1.406
104.7131 1.406
104.7434 1.406
104.7736 1.875
104.8039 1.406
104.8342 1.354
104.8645 1.979
104.8948 1.458
104.9250 2.135
104.9553 1.250
104.9856 0.833
105.0159 1.458
105.0462 1.042
105.0764 0.990
105.1067 2.135
105.1370 1.875
105.1673 1.406
105.1975 1.042
105.2278 1.042
105.2581 1.042
105.2884 1.406
105.3187 1.094
105.3489 1.250
105.3792 1.042
105.4095 1.198
105.4398 0.885
105.4701 1.094
105.5003 1.354
105.5306 1.406
105.5609 1.302
105.5912 1.615
105.6215 1.094
105.6517 1.562
105.6820 0.885
105.7123 1.302
105.7426 1.198
105.7728 1.250
105.8031 1.198
105.8334 1.302
105.8637 1.510
105.8940 2.292
105.9242 1.146
105.9545 1.094
105.9848 0.885
106.0151 1.302
106.0454 1.042
106.0756 0.833
106.1059 1.510
106.1362 1.302
106.1665 1.354
106.1967 1.354
106.2270 1.615
106.2573 1.094
106.2876 1.146
106.3179 0.885
106.3481 1.406
106.3784 1.198
106.4087 1.302
106.4390 1.458
106.4693 1.354
106.4995 1.198
106.5298 1.406
106.5601 0.833
106.5904 1.510
106.6206 0.781
106.6509 1.198
106.6812 1.302
106.7115 1.302
106.7418 1.250
106.7720 0.937
106.8023 1.458
106.8326 1.354
106.8629 1.406
106.8932 1.615
106.9234 1.146
106.9537 1.302
106.9840 1.458
107.0143 1.146
107.0445 1.771
107.0748 1.094
107.1051 1.094
107.1354 1.094
107.1657 1.354
107.1959 1.771
107.2262 1.250
107.2565 1.042
107.2868 0.885
107.3171 1.146
107.3473 1.250
107.3776 1.250
107.4079 1.302
107.4382 1.302
107.4684 1.510
107.4987 0.990
107.5290 1.510
107.5593 1.562
107.5896 1.615
107.6198 1.146
107.6501 0.833
107.6804 1.094
107.7107 1.510
107.7410 1.354
107.7712 1.406
107.8015 0.885
107.8318 0.885
107.8621 1.302
107.8923 1.510
107.9226 0.885
107.9529 1.458
107.9832 0.990
108.0135 0.625
108.0437 1.354
108.0740 1.094
108.1043 0.885
108.1346 1.510
108.1649 0.885
108.1951 1.198
108.2254 1.354
108.2557 1.719
108.2860 1.406
108.3163 0.990
108.3465 1.094
108.3768 1.198
108.4071 1.302
108.4374 1.198
108.4676 1.042
108.4979 1.250
108.5282 1.510
108.5585 1.458
108.5888 1.146
108.6190 1.042
108.6493 1.042
108.6796 0.937
108.7099 1.719
108.7402 0.677
108.7704 1.302
108.8007 1.406
108.8310 1.354
108.8613 1.146
108.8915 1.510
108.9218 0.990
108.9521 1.250
108.9824 1.302
109.0127 0.937
109.0429 1.146
109.0732 0.990
109.1035 0.885
109.1338 1.406
109.1641 1.198
109.1943 1.094
109.2246 1.406
109.2549 1.198
109.2852 1.562
109.3154 1.562
109.3457 1.146
109.3760 1.406
109.4063 1.354
109.4366 1.302
109.4668 1.458
109.4971 1.615
109.5274 0.990
109.5577 1.198
109.5880 0.990
109.6182 1.927
109.6485 1.562
109.6788 1.354
109.7091 1.406
109.7393 1.667
109.7696 1.510
109.7999 1.094
109.8302 0.781
109.8605 1.302
109.8907 1.406
109.9210 1.302
109.9513 1.510
109.9816 1.979
110.0119 1.458
110.0421 1.562
110.0724 1.719
110.1027 2.187
110.1330 1.979
110.1632 0.990
110.1935 2.031
110.2238 1.719
110.2541 1.562
110.2844 1.667
110.3146 1.719
110.3449 1.302
110.3752 1.406
110.4055 1.250
110.4358 1.510
110.4660 1.250
110.4963 0.937
110.5266 1.458
110.5569 1.875
110.5871 1.615
110.6174 1.719
110.6477 1.406
110.6780 1.615
110.7083 1.615
110.7385 1.510
110.7688 0.885
110.7991 1.615
110.8294 1.615
110.8597 2.135
110.8899 1.458
110.9202 1.562
110.9505 1.302
110.9808 1.719
111.0110 1.198
111.0413 1.615
111.0716 1.250
111.1019 1.042
111.1322 1.146
111.1624 1.250
111.1927 1.354
111.2230 1.510
111.2533 1.094
111.2836 0.990
111.3138 0.833
111.3441 1.615
111.3744 1.146
111.4047 1.406
111.4350 0.990
111.4652 1.354
111.4955 1.042
111.5258 1.719
111.5561 1.146
111.5863 1.406
111.6166 1.198
111.6469 1.302
111.6772 1.094
111.7075 0.469
111.7377 1.094
111.7680 0.990
111.7983 0.937
111.8286 1.250
111.8589 2.031
111.8891 0.990
111.9194 1.406
111.9497 1.042
111.9800 0.937
112.0102 0.677
112.0405 0.990
112.0708 1.667
112.1011 1.042
112.1314 0.990
112.1616 1.458
112.1919 1.406
112.2222 1.146
112.2525 1.094
112.2828 1.042
112.3130 1.771
112.3433 1.094
112.3736 1.406
112.4039 1.094
112.4341 0.885
112.4644 0.781
112.4947 1.250
112.5250 0.885
112.5553 0.885
112.5855 1.667
112.6158 1.250
112.6461 1.146
112.6764 0.885
112.7067 1.302
112.7369 1.042
112.7672 1.615
112.7975 0.990
112.8278 1.094
112.8580 1.042
112.8883 1.615
112.9186 1.198
112.9489 0.990
112.9792 0.990
113.0094 1.458
113.0397 1.354
113.0700 0.625
113.1003 1.354
113.1306 1.094
113.1608 1.250
113.1911 1.198
113.2214 1.354
113.2517 1.146
113.2819 1.354
113.3122 1.510
113.3425 1.094
113.3728 1.302
113.4031 1.406
113.4333 1.302
113.4636 1.146
113.4939 1.354
113.5242 1.615
113.5545 1.146
113.5847 1.250
113.6150 0.833
113.6453 1.198
113.6756 1.042
113.7058 1.354
113.7361 1.146
113.7664 1.198
113.7967 1.198
113.8270 1.198
113.8572 1.250
113.8875 1.198
113.9178 0.677
113.9481 1.094
113.9784 1.250
114.0086 1.250
114.0389 1.198
114.0692 1.198
114.0995 0.937
114.1298 0.937
114.1600 0.885
114.1903 0.990
114.2206 1.302
114.2509 1.250
114.2811 0.937
114.3114 1.667
114.3417 0.729
114.3720 1.094
114.4023 1.667
114.4325 0.625
114.4628 1.302
114.4931 1.198
114.5234 1.510
114.5537 1.094
114.5839 1.354
114.6142 1.198
114.6445 1.458
114.6748 1.250
114.7050 1.823
114.7353 0.937
114.7656 1.198
114.7959 1.771
114.8262 1.510
114.8564 1.302
114.8867 1.562
114.9170 1.406
114.9473 1.302
114.9776 1.302
115.0078 1.146
115.0381 1.615
115.0684 0.885
115.0987 1.667
115.1289 1.562
115.1592 1.510
115.1895 1.510
115.2198 1.510
115.2501 1.875
115.2803 1.354
115.3106 1.875
115.3409 1.562
115.3712 1.667
115.4015 1.667
115.4317 1.562
115.4620 1.302
115.4923 1.615
115.5226 1.771
115.5528 2.292
115.5831 1.458
115.6134 1.927
115.6437 2.031
115.6740 1.406
115.7042 1.354
115.7345 2.292
115.7648 2.187
115.7951 2.187
115.8254 1.875
115.8556 1.979
115.8859 2.083
115.9162 2.292
115.9465 1.979
115.9767 2.031
116.0070 2.448
116.0373 2.969
116.0676 2.083
116.0979 2.552
116.1281 2.187
116.1584 1.927
116.1887 2.187
116.2190 2.083
116.2493 2.396
116.2795 2.240
116.3098 2.656
116.3401 2.031
116.3704 2.344
116.4006 2.344
116.4309 1.771
116.4612 2.552
116.4915 1.823
116.5218 2.760
116.5520 2.240
116.5823 2.240
116.6126 1.979
116.6429 2.083
116.6732 2.240
116.7034 2.500
116.7337 1.302
116.7640 1.510
116.7943 1.823
116.8245 2.135
116.8548 1.562
116.8851 1.927
116.9154 1.927
116.9457 1.406
116.9759 1.667
117.0062 1.771
117.0365 1.667
117.0668 1.510
117.0971 1.406
117.1273 1.875
117.1576 1.771
117.1879 1.458
117.2182 1.667
117.2485 1.562
117.2787 1.510
117.3090 1.354
117.3393 1.510
117.3696 1.042
117.3998 1.354
117.4301 1.302
117.4604 0.833
117.4907 1.198
117.5210 1.667
117.5512 1.458
117.5815 1.198
117.6118 0.990
117.6421 0.677
117.6724 1.042
117.7026 1.719
117.7329 1.042
117.7632 1.458
117.7935 1.302
117.8237 1.042
117.8540 1.250
117.8843 1.562
117.9146 1.250
117.9449 1.146
117.9751 1.198
118.0054 1.354
118.0357 0.833
118.0660 1.302
118.0963 1.354
118.1265 1.250
118.1568 1.354
118.1871 1.458
118.2174 1.146
118.2476 0.729
118.2779 1.302
118.3082 1.094
118.3385 0.990
118.3688 1.458
118.3990 1.042
118.4293 1.510
118.4596 1.406
118.4899 1.250
118.5202 1.562
118.5504 1.250
118.5807 1.198
118.6110 1.198
118.6413 0.885
118.6715 0.781
118.7018 1.354
118.7321 1.458
118.7624 1.354
118.7927 1.354
118.8229 0.937
118.8532 1.771
118.8835 0.990
118.9138 0.677
118.9441 1.302
118.9743 0.990
119.0046 1.302
119.0349 1.146
119.0652 1.302
119.0954 0.937
119.1257 1.146
119.1560 1.667
119.1863 1.406
119.2166 1.042
119.2468 0.937
119.2771 1.615
119.3074 1.094
119.3377 1.354
119.3680 1.302
119.3982 0.885
119.4285 0.937
119.4588 1.406
119.4891 1.094
119.5193 0.729
119.5496 1.042
119.5799 0.833
119.6102 1.250
119.6405 1.146
119.6707 1.146
119.7010 0.885
119.7313 0.833
119.7616 1.094
119.7919 1.615
119.8221 1.615
119.8524 1.354
119.8827 1.042
119.9130 0.990
119.9433 1.094
119.9735 1.354
120.0038 1.562
