'Id: "" Comment: "" Operator: "Lab Manager" Anode: "Cu" Scantype: "Locked Coupled" TimePerStep: "19.2" X: "9999" Y: "9999" Z: "9999" 
10.0015 2.396
10.0318 3.229
10.0620 2.656
10.0923 2.760
10.1226 2.917
10.1529 2.187
10.1832 2.604
10.2134 2.708
10.2437 2.500
10.2740 2.865
10.3043 2.448
10.3346 2.396
10.3648 2.604
10.3951 2.135
10.4254 1.979
10.4557 2.240
10.4859 2.760
10.5162 2.135
10.5465 2.187
10.5768 2.240
10.6071 1.979
10.6373 2.812
10.6676 1.823
10.6979 2.708
10.7282 2.187
10.7585 1.979
10.7887 2.396
10.8190 1.979
10.8493 2.500
10.8796 2.865
10.9098 2.083
10.9401 2.187
10.9704 2.031
11.0007 2.448
11.0310 2.240
11.0612 2.604
11.0915 2.708
11.1218 1.979
11.1521 2.344
11.1824 1.823
11.2126 2.708
11.2429 1.979
11.2732 2.292
11.3035 2.292
11.3337 2.552
11.3640 2.760
11.3943 2.396
11.4246 2.292
11.4549 2.812
11.4851 2.135
11.5154 2.187
11.5457 1.927
11.5760 2.031
11.6063 2.760
11.6365 2.708
11.6668 2.448
11.6971 2.604
11.7274 2.865
11.7577 2.135
11.7879 2.500
11.8182 3.125
11.8485 2.031
11.8788 2.708
11.9090 2.917
11.9393 2.240
11.9696 3.385
11.9999 3.073
12.0302 2.865
12.0604 2.344
12.0907 1.927
12.1210 3.177
12.1513 2.500
12.1816 3.021
12.2118 2.344
12.2421 1.927
12.2724 1.979
12.3027 1.771
12.3329 2.187
12.3632 1.875
12.3935 1.927
12.4238 2.031
12.4541 2.031
12.4843 2.083
12.5146 2.292
12.5449 2.135
12.5752 2.240
12.6055 1.979
12.6357 1.615
12.6660 2.656
12.6963 2.083
12.7266 1.510
12.7568 2.240
12.7871 2.031
12.8174 2.083
12.8477 1.823
12.8780 2.083
12.9082 1.719
12.9385 1.562
12.9688 1.458
12.9991 2.187
13.0294 2.240
13.0596 2.187
13.0899 1.927
13.1202 1.562
13.1505 2.031
13.1807 1.667
13.2110 1.667
13.2413 1.875
13.2716 1.615
13.3019 2.552
13.3321 1.823
13.3624 1.510
13.3927 2.187
13.4230 1.823
13.4533 2.083
13.4835 1.562
13.5138 2.031
13.5441 1.823
13.5744 1.771
13.6046 2.240
13.6349 2.708
13.6652 1.667
13.6955 2.083
13.7258 2.187
13.7560 2.187
13.7863 1.823
13.8166 1.250
13.8469 1.615
13.8772 2.031
13.9074 1.927
13.9377 1.771
13.9680 1.562
13.9983 1.771
14.0285 1.615
14.0588 2.031
14.0891 2.135
14.1194 2.292
14.1497 1.875
14.1799 2.083
14.2102 2.187
14.2405 1.510
14.2708 2.552
14.3011 1.667
14.3313 2.865
14.3616 1.875
14.3919 1.771
14.4222 2.344
14.4524 2.292
14.4827 1.927
14.5130 1.875
14.5433 1.667
14.5736 2.396
14.6038 1.979
14.6341 2.396
14.6644 1.979
14.6947 2.187
14.7250 2.031
14.7552 1.302
14.7855 1.615
14.8158 1.667
14.8461 1.302
14.8764 1.875
14.9066 1.927
14.9369 2.240
14.9672 1.458
14.9975 1.667
15.0277 1.979
15.0580 2.083
15.0883 1.927
15.1186 1.719
15.1489 1.875
15.1791 1.927
15.2094 2.031
15.2397 1.615
15.2700 1.719
15.3003 1.406
15.3305 1.458
15.3608 1.719
15.3911 1.510
15.4214 1.823
15.4516 1.146
15.4819 1.458
15.5122 1.927
15.5425 1.771
15.5728 2.031
15.6030 1.719
15.6333 1.146
15.6636 1.771
15.6939 1.302
15.7242 1.406
15.7544 2.396
15.7847 1.458
15.8150 1.667
15.8453 1.458
15.8755 1.094
15.9058 1.510
15.9361 1.562
15.9664 1.667
15.9967 1.927
16.0269 1.562
16.0572 1.354
16.0875 1.823
16.1178 1.823
16.1481 1.667
16.1783 1.562
16.2086 1.719
16.2389 1.406
16.2692 1.458
16.2994 2.031
16.3297 2.135
16.3600 1.562
16.3903 1.562
16.4206 1.927
16.4508 1.875
16.4811 1.615
16.5114 1.979
16.5417 1.927
16.5720 1.615
16.6022 2.135
16.6325 1.354
16.6628 1.667
16.6931 1.406
16.7233 1.094
16.7536 2.083
16.7839 1.979
16.8142 1.875
16.8445 2.187
16.8747 1.667
16.9050 2.135
16.9353 1.146
16.9656 1.406
16.9959 1.458
17.0261 1.302
17.0564 1.198
17.0867 1.510
17.1170 1.458
17.1472 1.354
17.1775 1.354
17.2078 1.458
17.2381 1.510
17.2684 1.562
17.2986 1.979
17.3289 1.406
17.3592 1.719
17.3895 1.302
17.4198 1.406
17.4500 1.042
17.4803 1.406
17.5106 0.885
17.5409 1.250
17.5712 1.510
17.6014 2.135
17.6317 1.302
17.6620 1.198
17.6923 1.042
17.7225 1.771
17.7528 1.875
17.7831 1.302
17.8134 1.406
17.8437 2.240
17.8739 1.615
17.9042 0.781
17.9345 1.667
17.9648 1.719
17.9951 1.406
18.0253 1.094
18.0556 1.771
18.0859 0.885
18.1162 1.771
18.1464 0.990
18.1767 1.094
18.2070 1.719
18.2373 0.990
18.2676 1.198
18.2978 1.510
18.3281 1.250
18.3584 0.937
18.3887 1.302
18.4190 1.354
18.4492 1.302
18.4795 1.198
18.5098 1.979
18.5401 1.250
18.5703 2.083
18.6006 1.562
18.6309 1.354
18.6612 1.302
18.6915 1.302
18.7217 1.510
18.7520 1.094
18.7823 1.562
18.8126 0.885
18.8429 1.354
18.8731 0.885
18.9034 0.729
18.9337 1.719
18.9640 1.406
18.9942 1.302
19.0245 1.510
19.0548 1.510
19.0851 1.510
19.1154 1.042
19.1456 1.615
19.1759 1.510
19.2062 1.875
19.2365 0.937
19.2668 1.094
19.2970 1.667
19.3273 0.677
19.3576 1.302
19.3879 1.146
19.4181 1.146
19.4484 1.042
19.4787 1.771
19.5090 1.146
19.5393 0.937
19.5695 1.615
19.5998 1.250
19.6301 1.354
19.6604 1.562
19.6907 1.719
19.7209 0.729
19.7512 1.562
19.7815 0.990
19.8118 1.250
19.8420 1.146
19.8723 1.562
19.9026 1.354
19.9329 1.198
19.9632 1.042
19.9934 1.510
20.0237 1.667
20.0540 1.615
20.0843 1.146
20.1146 0.885
20.1448 1.042
20.1751 1.146
20.2054 1.250
20.2357 1.615
20.2659 1.510
20.2962 0.990
20.3265 1.094
20.3568 1.094
20.3871 1.250
20.4173 1.406
20.4476 0.990
20.4779 1.406
20.5082 1.510
20.5385 1.354
20.5687 1.354
20.5990 1.094
20.6293 0.781
20.6596 0.990
20.6899 1.146
20.7201 1.146
20.7504 1.302
20.7807 1.250
20.8110 1.198
20.8412 1.354
20.8715 0.885
20.9018 1.146
20.9321 1.354
20.9624 1.146
20.9926 1.562
21.0229 0.937
21.0532 0.833
21.0835 1.250
21.1138 1.094
21.1440 0.937
21.1743 1.250
21.2046 0.677
21.2349 1.146
21.2651 1.510
21.2954 1.406
21.3257 0.833
21.3560 1.354
21.3863 1.250
21.4165 1.667
21.4468 1.146
21.4771 1.094
21.5074 0.885
21.5377 1.458
21.5679 1.146
21.5982 0.885
21.6285 0.833
21.6588 1.198
21.6890 0.625
21.7193 1.146
21.7496 1.510
21.7799 0.677
21.8102 0.885
21.8404 1.250
21.8707 0.885
21.9010 1.302
21.9313 0.990
21.9616 1.406
21.9918 1.406
22.0221 1.198
22.0524 1.667
22.0827 1.198
22.1129 1.250
22.1432 1.042
22.1735 0.990
22.2038 1.198
22.2341 1.094
22.2643 0.885
22.2946 1.250
22.3249 1.198
22.3552 1.250
22.3855 1.094
22.4157 1.146
22.4460 0.781
22.4763 1.250
22.5066 0.990
22.5368 1.302
22.5671 1.250
22.5974 1.302
22.6277 1.198
22.6580 0.990
22.6882 1.510
22.7185 1.198
22.7488 0.990
22.7791 1.302
22.8094 0.990
22.8396 0.781
22.8699 1.250
22.9002 1.302
22.9305 1.302
22.9607 1.094
22.9910 1.146
23.0213 0.937
23.0516 0.885
23.0819 0.833
23.1121 0.990
23.1424 1.198
23.1727 1.042
23.2030 1.146
23.2333 0.677
23.2635 0.833
23.2938 1.146
23.3241 0.729
23.3544 1.250
23.3846 0.573
23.4149 0.937
23.4452 1.042
23.4755 1.406
23.5058 0.729
23.5360 1.146
23.5663 1.198
23.5966 0.573
23.6269 1.458
23.6572 1.094
23.6874 1.250
23.7177 1.198
23.7480 1.406
23.7783 1.250
23.8086 0.573
23.8388 1.354
23.8691 1.146
23.8994 0.990
23.9297 1.146
23.9599 1.302
23.9902 1.094
24.0205 1.354
24.0508 0.833
24.0811 1.146
24.1113 1.146
24.1416 1.042
24.1719 0.937
24.2022 0.990
24.2325 1.146
24.2627 0.729
24.2930 1.250
24.3233 1.094
24.3536 1.198
24.3838 1.302
24.4141 0.885
24.4444 1.094
24.4747 1.042
24.5050 0.781
24.5352 0.937
24.5655 0.937
24.5958 1.198
24.6261 0.990
24.6564 1.354
24.6866 1.406
24.7169 0.573
24.7472 1.458
24.7775 1.302
24.8077 1.094
24.8380 0.937
24.8683 1.250
24.8986 1.302
24.9289 1.354
24.9591 0.677
24.9894 1.302
25.0197 1.146
25.0500 0.625
25.0803 1.354
25.1105 0.729
25.1408 1.510
25.1711 1.146
25.2014 1.198
25.2316 1.198
25.2619 1.146
25.2922 0.729
25.3225 1.562
25.3528 1.354
25.3830 1.146
25.4133 1.719
25.4436 0.781
25.4739 1.042
25.5042 1.094
25.5344 0.937
25.5647 1.562
25.5950 1.667
25.6253 1.615
25.6555 1.667
25.6858 1.198
25.7161 2.083
25.7464 1.771
25.7767 1.771
25.8069 1.823
25.8372 2.031
25.8675 1.823
25.8978 1.198
25.9281 1.458
25.9583 1.354
25.9886 0.833
26.0189 0.990
26.0492 1.042
26.0794 1.562
26.1097 1.250
26.1400 1.094
26.1703 1.302
26.2006 0.990
26.2308 1.354
26.2611 1.198
26.2914 0.885
26.3217 1.146
26.3520 1.042
26.3822 1.094
26.4125 0.833
26.4428 1.302
26.4731 1.198
26.5034 1.198
26.5336 1.302
26.5639 1.146
26.5942 0.729
26.6245 1.250
26.6547 1.562
26.6850 1.406
26.7153 1.354
26.7456 0.833
26.7759 1.302
26.8061 1.250
26.8364 1.198
26.8667 0.990
26.8970 1.146
26.9273 1.354
26.9575 0.729
26.9878 0.833
27.0181 1.146
27.0484 0.781
27.0786 1.354
27.1089 0.677
27.1392 1.042
27.1695 0.781
27.1998 0.990
27.2300 1.250
27.2603 1.250
27.2906 1.198
27.3209 0.990
27.3512 0.990
27.3814 0.937
27.4117 0.990
27.4420 0.937
27.4723 0.729
27.5025 1.406
27.5328 0.781
27.5631 0.937
27.5934 1.250
27.6237 0.781
27.6539 0.729
27.6842 1.042
27.7145 0.937
27.7448 0.885
27.7751 0.885
27.8053 0.781
27.8356 0.729
27.8659 1.198
27.8962 0.885
27.9264 1.042
27.9567 1.094
27.9870 1.510
28.0173 0.781
28.0476 1.094
28.0778 1.250
28.1081 0.781
28.1384 1.094
28.1687 0.729
28.1990 1.198
28.2292 1.719
28.2595 0.885
28.2898 0.937
28.3201 1.510
28.3503 1.302
28.3806 0.833
28.4109 1.302
28.4412 1.302
28.4715 0.729
28.5017 1.198
28.5320 0.833
28.5623 0.885
28.5926 0.833
28.6229 1.042
28.6531 0.833
28.6834 1.042
28.7137 1.146
28.7440 1.302
28.7742 0.833
28.8045 1.354
28.8348 1.198
28.8651 0.990
28.8954 1.458
28.9256 1.198
28.9559 1.094
28.9862 0.885
29.0165 1.250
29.0468 1.250
29.0770 1.146
29.1073 0.781
29.1376 0.990
29.1679 1.458
29.1981 1.250
29.2284 1.198
29.2587 1.562
29.2890 2.135
29.3193 1.875
29.3495 1.198
29.3798 1.562
29.4101 1.823
29.4404 1.458
29.4707 1.719
29.5009 2.344
29.5312 1.667
29.5615 2.292
29.5918 2.187
29.6221 1.667
29.6523 1.354
29.6826 1.562
29.7129 1.667
29.7432 1.562
29.7734 1.354
29.8037 1.146
29.8340 1.667
29.8643 1.667
29.8946 1.302
29.9248 1.458
29.9551 1.042
29.9854 1.458
30.0157 1.198
30.0460 1.302
30.0762 1.250
30.1065 1.510
30.1368 1.823
30.1671 1.354
30.1973 0.937
30.2276 1.406
30.2579 1.198
30.2882 0.990
30.3185 1.250
30.3487 1.562
30.3790 1.250
30.4093 1.562
30.4396 1.719
30.4699 1.562
30.5001 1.562
30.5304 1.458
30.5607 1.458
30.5910 1.042
30.6212 1.302
30.6515 2.031
30.6818 1.823
30.7121 1.823
30.7424 1.562
30.7726 2.031
30.8029 1.198
30.8332 1.927
30.8635 1.771
30.8938 1.615
30.9240 1.927
30.9543 2.656
30.9846 2.552
31.0149 3.021
31.0451 2.292
31.0754 2.604
31.1057 2.917
31.1360 2.812
31.1663 2.917
31.1965 4.167
31.2268 4.010
31.2571 3.594
31.2874 4.896
31.3177 4.948
31.3479 5.729
31.3782 6.927
31.4085 7.708
31.4388 8.385
31.4690 9.635
31.4993 11.771
31.5296 12.240
31.5599 16.979
31.5902 15.781
31.6204 16.250
31.6507 15.677
31.6810 13.958
31.7113 11.615
31.7416 11.510
31.7718 9.323
31.8021 7.240
31.8324 6.667
31.8627 6.042
31.8929 5.729
31.9232 4.635
31.9535 3.437
31.9838 3.542
32.0141 4.115
32.0443 3.906
32.0746 3.229
32.1049 3.281
32.1352 2.760
32.1655 2.604
32.1957 1.927
32.2260 2.656
32.2563 1.979
32.2866 1.979
32.3169 2.240
32.3471 2.083
32.3774 2.031
32.4077 1.771
32.4380 1.406
32.4682 1.458
32.4985 1.823
32.5288 1.406
32.5591 1.823
32.5894 1.979
32.6196 1.771
32.6499 1.667
32.6802 2.448
32.7105 1.510
32.7408 1.615
32.7710 1.927
32.8013 1.615
32.8316 1.510
32.8619 1.615
32.8921 2.031
32.9224 1.250
32.9527 0.937
32.9830 1.458
33.0133 1.823
33.0435 0.885
33.0738 1.615
33.1041 2.135
33.1344 1.250
33.1647 1.979
33.1949 1.510
33.2252 1.146
33.2555 1.250
33.2858 0.833
33.3160 1.458
33.3463 1.146
33.3766 2.083
33.4069 1.771
33.4372 1.094
33.4674 1.406
33.4977 2.292
33.5280 2.031
33.5583 1.562
33.5886 1.667
33.6188 1.927
33.6491 1.927
33.6794 1.510
33.7097 1.823
33.7399 1.875
33.7702 2.135
33.8005 1.719
33.8308 2.240
33.8611 2.396
33.8913 1.771
33.9216 2.969
33.9519 3.021
33.9822 4.115
34.0125 3.646
34.0427 3.594
34.0730 5.365
34.1033 5.573
34.1336 7.031
34.1638 11.354
34.1941 13.385
34.2244 17.031
34.2547 18.594
34.2850 17.344
34.3152 15.677
34.3455 10.469
34.3758 7.917
34.4061 5.417
34.4364 4.948
34.4666 4.115
34.4969 4.219
34.5272 3.177
34.5575 3.229
34.5877 2.344
34.6180 2.812
34.6483 2.083
34.6786 2.240
34.7089 1.927
34.7391 2.187
34.7694 2.552
34.7997 2.187
34.8300 2.083
34.8603 1.979
34.8905 1.927
34.9208 2.083
34.9511 1.719
34.9814 2.396
35.0116 2.031
35.0419 2.031
35.0722 2.240
35.1025 2.083
35.1328 1.615
35.1630 2.500
35.1933 2.344
35.2236 1.667
35.2539 2.031
35.2842 2.865
35.3144 2.552
35.3447 2.187
35.3750 1.979
35.4053 2.448
35.4356 2.865
35.4658 2.344
35.4961 2.708
35.5264 3.177
35.5567 3.021
35.5869 3.802
35.6172 3.958
35.6475 4.531
35.6778 3.958
35.7081 3.437
35.7383 5.677
35.7686 5.625
35.7989 5.990
35.8292 6.875
35.8595 7.708
35.8897 9.427
35.9200 8.698
35.9503 10.312
35.9806 12.135
36.0108 16.094
36.0411 17.552
36.0714 19.115
36.1017 19.531
36.1320 20.104
36.1622 19.219
36.1925 17.604
36.2228 14.375
36.2531 14.010
36.2834 11.875
36.3136 10.104
36.3439 7.708
36.3742 7.083
36.4045 5.885
36.4347 4.896
36.4650 5.521
36.4953 4.323
36.5256 5.000
36.5559 2.969
36.5861 2.812
36.6164 2.604
36.6467 2.604
36.6770 2.656
36.7073 3.281
36.7375 2.292
36.7678 2.187
36.7981 2.292
36.8284 1.979
36.8586 1.875
36.8889 1.719
36.9192 1.667
36.9495 1.667
36.9798 1.979
37.0100 1.771
37.0403 1.458
37.0706 1.823
37.1009 1.562
37.1312 1.302
37.1614 0.990
37.1917 1.510
37.2220 1.458
37.2523 1.250
37.2825 1.406
37.3128 1.406
37.3431 1.927
37.3734 2.187
37.4037 1.406
37.4339 1.094
37.4642 1.146
37.4945 1.146
37.5248 1.406
37.5551 1.406
37.5853 1.198
37.6156 1.406
37.6459 0.781
37.6762 1.094
37.7064 0.990
37.7367 0.677
37.7670 0.937
37.7973 1.302
37.8276 0.781
37.8578 0.990
37.8881 1.250
37.9184 0.885
37.9487 0.990
37.9790 1.146
38.0092 1.510
38.0395 1.302
38.0698 0.990
38.1001 1.094
38.1304 1.250
38.1606 1.562
38.1909 1.042
38.2212 1.094
38.2515 1.094
38.2817 1.042
38.3120 0.885
38.3423 1.146
38.3726 0.833
38.4029 0.781
38.4331 0.729
38.4634 0.937
38.4937 0.521
38.5240 0.937
38.5543 0.937
38.5845 0.729
38.6148 1.042
38.6451 0.885
38.6754 0.729
38.7056 1.198
38.7359 0.677
38.7662 0.885
38.7965 0.885
38.8268 0.729
38.8570 0.573
38.8873 1.302
38.9176 0.677
38.9479 1.198
38.9782 0.677
39.0084 1.042
39.0387 0.677
39.0690 1.094
39.0993 0.990
39.1295 0.833
39.1598 0.781
39.1901 0.677
39.2204 1.094
39.2507 0.885
39.2809 1.042
39.3112 0.833
39.3415 0.729
39.3718 0.729
39.4021 0.990
39.4323 0.573
39.4626 0.677
39.4929 0.729
39.5232 0.781
39.5534 1.198
39.5837 0.521
39.6140 1.146
39.6443 1.042
39.6746 0.937
39.7048 0.781
39.7351 0.573
39.7654 1.042
39.7957 1.302
39.8260 0.677
39.8562 0.937
39.8865 0.990
39.9168 0.833
39.9471 0.833
39.9773 0.677
40.0076 0.677
40.0379 0.677
40.0682 0.885
40.0985 1.042
40.1287 0.729
40.1590 0.729
40.1893 0.781
40.2196 0.937
40.2499 1.094
40.2801 0.729
40.3104 0.885
40.3407 0.625
40.3710 0.885
40.4012 0.937
40.4315 0.625
40.4618 0.521
40.4921 0.781
40.5224 0.417
40.5526 0.990
40.5829 0.573
40.6132 0.729
40.6435 1.042
40.6738 0.781
40.7040 0.781
40.7343 0.677
40.7646 0.937
40.7949 0.573
40.8251 0.677
40.8554 0.937
40.8857 0.990
40.9160 0.885
40.9463 0.625
40.9765 0.677
41.0068 0.729
41.0371 0.469
41.0674 0.573
41.0977 0.469
41.1279 0.885
41.1582 0.885
41.1885 0.885
41.2188 0.365
41.2491 0.937
41.2793 0.677
41.3096 0.729
41.3399 0.781
41.3702 0.781
41.4004 0.677
41.4307 0.625
41.4610 0.469
41.4913 0.625
41.5216 0.573
41.5518 0.573
41.5821 0.885
41.6124 0.729
41.6427 0.729
41.6730 0.365
41.7032 0.937
41.7335 1.094
41.7638 0.677
41.7941 0.729
41.8243 0.885
41.8546 0.781
41.8849 0.729
41.9152 0.781
41.9455 0.833
41.9757 0.365
42.0060 0.990
42.0363 0.781
42.0666 0.729
42.0969 0.625
42.1271 0.677
42.1574 1.146
42.1877 0.885
42.2180 0.625
42.2482 0.781
42.2785 0.521
42.3088 0.625
42.3391 1.250
42.3694 0.677
42.3996 0.625
42.4299 1.146
42.4602 0.573
42.4905 0.365
42.5208 0.469
42.5510 0.521
42.5813 0.781
42.6116 0.729
42.6419 0.677
42.6721 0.677
42.7024 0.677
42.7327 0.677
42.7630 0.521
42.7933 0.625
42.8235 0.833
42.8538 0.677
42.8841 0.885
42.9144 0.781
42.9447 0.885
42.9749 0.729
43.0052 0.625
43.0355 0.781
43.0658 1.042
43.0960 0.521
43.1263 0.365
43.1566 0.677
43.1869 0.625
43.2172 0.625
43.2474 0.573
43.2777 0.937
43.3080 0.937
43.3383 0.469
43.3686 0.625
43.3988 0.677
43.4291 0.729
43.4594 0.781
43.4897 0.625
43.5199 0.729
43.5502 0.521
43.5805 1.042
43.6108 0.781
43.6411 0.781
43.6713 0.833
43.7016 1.146
43.7319 0.625
43.7622 0.677
43.7925 0.625
43.8227 1.198
43.8530 0.781
43.8833 0.625
43.9136 0.885
43.9439 0.885
43.9741 0.677
44.0044 0.781
44.0347 0.625
44.0650 0.729
44.0952 0.677
44.1255 0.729
44.1558 0.885
44.1861 0.781
44.2164 0.677
44.2466 0.677
44.2769 0.625
44.3072 0.677
44.3375 0.781
44.3678 0.781
44.3980 0.625
44.4283 0.885
44.4586 0.625
44.4889 0.625
44.5191 0.469
44.5494 0.781
44.5797 0.573
44.6100 0.573
44.6403 0.625
44.6705 0.625
44.7008 0.573
44.7311 0.521
44.7614 1.094
44.7917 0.990
44.8219 0.937
44.8522 0.521
44.8825 0.937
44.9128 0.729
44.9430 0.990
44.9733 0.990
45.0036 0.833
45.0339 0.677
45.0642 0.417
45.0944 0.885
45.1247 0.781
45.1550 0.677
45.1853 0.677
45.2156 0.833
45.2458 0.677
45.2761 0.469
45.3064 0.833
45.3367 0.729
45.3669 0.573
45.3972 0.833
45.4275 0.417
45.4578 0.625
45.4881 0.937
45.5183 0.521
45.5486 0.417
45.5789 0.573
45.6092 0.521
45.6395 0.573
45.6697 0.469
45.7000 1.302
45.7303 1.094
45.7606 0.573
45.7908 0.729
45.8211 0.833
45.8514 0.729
45.8817 0.885
45.9120 0.781
45.9422 1.146
45.9725 0.781
46.0028 0.937
46.0331 0.885
46.0634 0.729
46.0936 1.146
46.1239 0.677
46.1542 0.885
46.1845 0.937
46.2147 1.146
46.2450 0.833
46.2753 0.990
46.3056 0.937
46.3359 1.042
46.3661 1.042
46.3964 0.729
46.4267 0.677
46.4570 0.937
46.4873 1.562
46.5175 0.990
46.5478 0.833
46.5781 1.302
46.6084 0.937
46.6386 1.250
46.6689 0.833
46.6992 1.198
46.7295 1.250
46.7598 1.198
46.7900 1.042
46.8203 1.250
46.8506 1.042
46.8809 1.510
46.9112 1.719
46.9414 1.302
46.9717 1.198
47.0020 1.771
47.0323 0.937
47.0626 1.562
47.0928 1.927
47.1231 1.979
47.1534 1.667
47.1837 1.771
47.2139 2.448
47.2442 2.656
47.2745 1.927
47.3048 2.969
47.3351 2.240
47.3653 3.021
47.3956 3.854
47.4259 3.073
47.4562 3.385
47.4865 3.125
47.5167 2.552
47.5470 2.240
47.5773 2.240
47.6076 2.396
47.6378 1.979
47.6681 1.823
47.6984 2.292
47.7287 1.615
47.7590 2.135
47.7892 1.875
47.8195 1.562
47.8498 1.354
47.8801 0.937
47.9104 1.719
47.9406 1.354
47.9709 1.667
48.0012 1.198
48.0315 1.198
48.0617 1.302
48.0920 0.990
48.1223 0.990
48.1526 0.885
48.1829 1.146
48.2131 0.729
48.2434 0.677
48.2737 1.302
48.3040 1.146
48.3343 1.562
48.3645 0.885
48.3948 1.250
48.4251 0.677
48.4554 1.354
48.4856 0.937
48.5159 0.729
48.5462 0.781
48.5765 1.146
48.6068 0.781
48.6370 0.937
48.6673 0.677
48.6976 0.729
48.7279 0.677
48.7582 0.885
48.7884 0.625
48.8187 1.146
48.8490 0.469
48.8793 0.781
48.9095 0.990
48.9398 1.146
48.9701 0.885
49.0004 0.781
49.0307 0.469
49.0609 0.833
49.0912 0.990
49.1215 1.198
49.1518 0.781
49.1821 0.729
49.2123 0.990
49.2426 0.781
49.2729 0.781
49.3032 1.094
49.3334 0.990
49.3637 0.781
49.3940 0.573
49.4243 0.937
49.4546 0.990
49.4848 1.562
49.5151 1.042
49.5454 1.198
49.5757 0.885
49.6060 1.198
49.6362 1.406
49.6665 0.625
49.6968 0.417
49.7271 0.573
49.7574 0.833
49.7876 0.990
49.8179 1.250
49.8482 1.250
49.8785 1.198
49.9087 0.521
49.9390 0.885
49.9693 0.833
49.9996 0.677
50.0299 0.677
50.0601 0.781
50.0904 0.885
50.1207 1.198
50.1510 1.042
50.1813 0.781
50.2115 0.729
50.2418 0.469
50.2721 0.677
50.3024 0.781
50.3326 0.937
50.3629 0.937
50.3932 0.833
50.4235 0.573
50.4538 0.990
50.4840 1.042
50.5143 0.937
50.5446 0.833
50.5749 1.146
50.6052 0.990
50.6354 0.937
50.6657 0.781
50.6960 0.469
50.7263 0.885
50.7565 1.146
50.7868 0.729
50.8171 0.990
50.8474 1.198
50.8777 0.833
50.9079 1.198
50.9382 0.625
50.9685 0.781
50.9988 0.937
51.0291 1.250
51.0593 0.990
51.0896 0.521
51.1199 0.781
51.1502 0.885
51.1804 0.937
51.2107 0.833
51.2410 0.885
51.2713 0.990
51.3016 0.729
51.3318 1.042
51.3621 0.833
51.3924 1.146
51.4227 0.625
51.4530 0.990
51.4832 0.885
51.5135 0.990
51.5438 0.729
51.5741 1.042
51.6043 1.042
51.6346 0.885
51.6649 0.781
51.6952 0.573
51.7255 1.198
51.7557 0.990
51.7860 0.573
51.8163 0.573
51.8466 0.729
51.8769 0.885
51.9071 1.094
51.9374 1.042
51.9677 1.094
51.9980 0.573
52.0282 0.990
52.0585 0.937
52.0888 0.937
52.1191 1.146
52.1494 0.833
52.1796 0.729
52.2099 0.937
52.2402 0.885
52.2705 0.990
52.3008 0.990
52.3310 0.677
52.3613 1.146
52.3916 0.781
52.4219 0.781
52.4521 0.990
52.4824 0.469
52.5127 0.573
52.5430 0.885
52.5733 0.625
52.6035 0.469
52.6338 1.198
52.6641 1.302
52.6944 1.094
52.7247 0.937
52.7549 0.937
52.7852 1.198
52.8155 0.833
52.8458 0.677
52.8761 0.365
52.9063 0.573
52.9366 0.625
52.9669 0.885
52.9972 0.365
53.0274 0.521
53.0577 0.625
53.0880 0.677
53.1183 1.042
53.1486 0.990
53.1788 0.729
53.2091 1.094
53.2394 1.094
53.2697 0.573
53.3000 0.625
53.3302 0.833
53.3605 0.573
53.3908 0.573
53.4211 0.885
53.4513 0.937
53.4816 0.781
53.5119 0.885
53.5422 0.781
53.5725 0.781
53.6027 0.937
53.6330 0.885
53.6633 0.677
53.6936 0.573
53.7239 0.885
53.7541 1.042
53.7844 0.729
53.8147 0.417
53.8450 0.729
53.8752 0.729
53.9055 0.469
53.9358 0.885
53.9661 1.146
53.9964 0.625
54.0266 0.885
54.0569 1.094
54.0872 0.937
54.1175 0.729
54.1478 0.833
54.1780 0.573
54.2083 0.885
54.2386 1.094
54.2689 0.937
54.2991 0.937
54.3294 1.042
54.3597 0.677
54.3900 0.521
54.4203 0.937
54.4505 0.833
54.4808 0.781
54.5111 0.781
54.5414 0.365
54.5717 1.146
54.6019 0.885
54.6322 0.625
54.6625 0.833
54.6928 1.042
54.7230 0.885
54.7533 0.469
54.7836 0.625
54.8139 0.781
54.8442 0.885
54.8744 1.042
54.9047 1.094
54.9350 0.937
54.9653 0.729
54.9956 0.937
55.0258 0.469
55.0561 1.042
55.0864 0.521
55.1167 1.198
55.1469 0.833
55.1772 0.885
55.2075 0.729
55.2378 0.469
55.2681 0.937
55.2983 0.990
55.3286 0.781
55.3589 1.042
55.3892 1.094
55.4195 1.198
55.4497 0.937
55.4800 0.833
55.5103 1.094
55.5406 0.990
55.5709 1.146
55.6011 0.937
55.6314 0.990
55.6617 1.198
55.6920 1.458
55.7222 1.042
55.7525 1.094
55.7828 1.042
55.8131 1.094
55.8434 0.937
55.8736 1.094
55.9039 1.354
55.9342 1.667
55.9645 1.042
55.9948 1.667
56.0250 1.562
56.0553 2.187
56.0856 1.510
56.1159 2.500
56.1461 1.979
56.1764 1.875
56.2067 2.031
56.2370 2.344
56.2673 3.490
56.2975 4.583
56.3278 4.271
56.3581 3.698
56.3884 4.687
56.4187 4.375
56.4489 5.104
56.4792 4.323
56.5095 5.469
56.5398 5.312
56.5700 3.646
56.6003 3.125
56.6306 4.271
56.6609 3.073
56.6912 3.177
56.7214 2.083
56.7517 2.448
56.7820 2.292
56.8123 2.083
56.8426 2.552
56.8728 1.562
56.9031 1.719
56.9334 1.615
56.9637 1.302
56.9939 1.562
57.0242 1.094
57.0545 1.042
57.0848 1.094
57.1151 1.198
57.1453 0.833
57.1756 0.990
57.2059 0.990
57.2362 0.573
57.2665 0.937
57.2967 0.937
57.3270 1.094
57.3573 0.990
57.3876 1.198
57.4178 1.146
57.4481 0.990
57.4784 0.573
57.5087 0.990
57.5390 0.781
57.5692 1.042
57.5995 0.677
57.6298 0.833
57.6601 0.990
57.6904 0.729
57.7206 0.833
57.7509 0.885
57.7812 0.937
57.8115 0.729
57.8417 0.937
57.8720 0.417
57.9023 0.625
57.9326 0.990
57.9629 0.573
57.9931 0.937
58.0234 0.781
58.0537 0.365
58.0840 0.365
58.1143 0.573
58.1445 0.729
58.1748 0.937
58.2051 0.573
58.2354 0.417
58.2656 0.729
58.2959 0.677
58.3262 0.625
58.3565 0.677
58.3868 0.573
58.4170 0.833
58.4473 0.937
58.4776 0.937
58.5079 0.833
58.5382 0.937
58.5684 0.781
58.5987 0.677
58.6290 0.521
58.6593 0.885
58.6896 0.937
58.7198 0.625
58.7501 0.677
58.7804 0.781
58.8107 0.469
58.8409 0.729
58.8712 0.833
58.9015 0.937
58.9318 0.729
58.9621 0.937
58.9923 0.937
59.0226 0.417
59.0529 0.625
59.0832 0.885
59.1135 0.573
59.1437 0.521
59.1740 0.312
59.2043 0.417
59.2346 0.365
59.2648 0.625
59.2951 0.833
59.3254 0.885
59.3557 1.042
59.3860 0.729
59.4162 0.990
59.4465 0.625
59.4768 0.781
59.5071 0.937
59.5374 0.990
59.5676 0.417
59.5979 0.365
59.6282 0.677
59.6585 0.781
59.6887 0.521
59.7190 0.521
59.7493 0.625
59.7796 0.625
59.8099 0.781
59.8401 0.885
59.8704 0.990
59.9007 0.729
59.9310 0.573
59.9613 0.312
59.9915 0.417
60.0218 0.625
60.0521 0.677
60.0824 0.937
60.1126 0.469
60.1429 0.573
60.1732 0.469
60.2035 0.781
60.2338 0.885
60.2640 0.677
60.2943 0.260
60.3246 0.677
60.3549 0.677
60.3852 0.625
60.4154 0.312
60.4457 0.781
60.4760 0.677
60.5063 0.573
60.5365 0.365
60.5668 0.729
60.5971 0.521
60.6274 1.042
60.6577 0.625
60.6879 0.833
60.7182 0.625
60.7485 1.198
60.7788 0.469
60.8091 0.729
60.8393 0.937
60.8696 0.625
60.8999 0.729
60.9302 0.521
60.9604 0.417
60.9907 0.469
61.0210 0.677
61.0513 0.937
61.0816 0.885
61.1118 0.885
61.1421 0.469
61.1724 0.729
61.2027 0.625
61.2330 0.469
61.2632 1.094
61.2935 0.729
61.3238 0.937
61.3541 0.885
61.3844 0.937
61.4146 0.885
61.4449 0.677
61.4752 0.885
61.5055 0.677
61.5357 0.781
61.5660 1.042
61.5963 0.885
61.6266 0.885
61.6569 0.781
61.6871 0.625
61.7174 0.990
61.7477 0.781
61.7780 0.833
61.8083 1.510
61.8385 0.833
61.8688 0.885
61.8991 0.937
61.9294 0.937
61.9596 0.885
61.9899 0.781
62.0202 0.937
62.0505 0.885
62.0808 0.781
62.1110 1.042
62.1413 0.417
62.1716 1.042
62.2019 1.458
62.2322 1.302
62.2624 1.146
62.2927 1.094
62.3230 1.823
62.3533 1.406
62.3835 1.354
62.4138 2.344
62.4441 1.458
62.4744 2.031
62.5047 2.708
62.5349 2.656
62.5652 2.031
62.5955 3.333
62.6258 2.240
62.6561 3.594
62.6863 3.437
62.7166 3.281
62.7469 2.240
62.7772 3.281
62.8074 2.552
62.8377 2.760
62.8680 3.177
62.8983 1.979
62.9286 2.865
62.9588 2.240
62.9891 2.344
63.0194 1.198
63.0497 1.771
63.0800 1.927
63.1102 1.458
63.1405 1.615
63.1708 1.146
63.2011 0.781
63.2313 0.885
63.2616 0.885
63.2919 0.990
63.3222 1.042
63.3525 0.781
63.3827 1.250
63.4130 1.198
63.4433 0.677
63.4736 0.625
63.5039 0.833
63.5341 0.781
63.5644 1.198
63.5947 0.729
63.6250 0.781
63.6552 0.729
63.6855 0.677
63.7158 0.469
63.7461 0.781
63.7764 0.625
63.8066 0.625
63.8369 0.677
63.8672 0.677
63.8975 0.573
63.9278 0.625
63.9580 0.260
63.9883 0.729
64.0186 0.833
64.0489 1.198
64.0791 0.990
64.1094 0.677
64.1397 0.833
64.1700 0.521
64.2003 0.885
64.2305 0.573
64.2608 0.521
64.2911 0.365
64.3214 0.625
64.3517 0.781
64.3819 0.365
64.4122 0.729
64.4425 0.625
64.4728 0.469
64.5031 0.781
64.5333 0.833
64.5636 0.469
64.5939 0.781
64.6242 0.677
64.6544 0.677
64.6847 0.365
64.7150 0.677
64.7453 0.573
64.7756 0.573
64.8058 0.312
64.8361 0.833
64.8664 0.521
64.8967 0.312
64.9270 0.625
64.9572 0.469
64.9875 0.469
65.0178 0.573
65.0481 0.573
65.0783 0.365
65.1086 0.521
65.1389 0.312
65.1692 0.729
65.1995 0.729
65.2297 0.260
65.2600 0.521
65.2903 0.833
65.3206 0.521
65.3509 0.833
65.3811 0.625
65.4114 0.833
65.4417 0.781
65.4720 0.833
65.5022 0.833
65.5325 0.521
65.5628 0.781
65.5931 0.521
65.6234 0.469
65.6536 0.469
65.6839 0.677
65.7142 0.469
65.7445 0.833
65.7748 0.677
65.8050 1.042
65.8353 0.625
65.8656 0.781
65.8959 0.781
65.9261 1.042
65.9564 0.833
65.9867 0.937
66.0170 1.042
66.0473 0.885
66.0775 0.990
66.1078 0.781
66.1381 0.937
66.1684 1.406
66.1987 0.937
66.2289 1.250
66.2592 1.719
66.2895 1.042
66.3198 0.885
66.3500 0.781
66.3803 0.937
66.4106 1.094
66.4409 1.146
66.4712 1.146
66.5014 0.885
66.5317 0.781
66.5620 1.042
66.5923 0.781
66.6226 0.365
66.6528 0.885
66.6831 1.094
66.7134 0.469
66.7437 0.729
66.7739 0.729
66.8042 0.469
66.8345 0.937
66.8648 0.781
66.8951 0.417
66.9253 0.781
66.9556 0.833
66.9859 0.781
67.0162 0.729
67.0465 1.042
67.0767 0.781
67.1070 0.521
67.1373 0.729
67.1676 0.990
67.1978 0.833
67.2281 0.729
67.2584 1.146
67.2887 1.354
67.3190 1.146
67.3492 1.146
67.3795 1.250
67.4098 1.458
67.4401 1.250
67.4704 1.458
67.5006 1.198
67.5309 1.823
67.5612 2.187
67.5915 2.292
67.6218 1.979
67.6520 3.281
67.6823 2.760
67.7126 2.656
67.7429 2.292
67.7731 2.344
67.8034 3.229
67.8337 2.135
67.8640 3.021
67.8943 2.604
67.9245 2.344
67.9548 2.812
67.9851 2.187
68.0154 2.448
68.0457 2.344
68.0759 2.083
68.1062 1.771
68.1365 1.823
68.1668 1.667
68.1970 1.094
68.2273 0.781
68.2576 1.198
68.2879 1.250
68.3182 1.302
68.3484 0.937
68.3787 1.302
68.4090 1.042
68.4393 0.625
68.4696 0.990
68.4998 1.510
68.5301 1.094
68.5604 1.406
68.5907 0.990
68.6209 1.198
68.6512 1.458
68.6815 1.042
68.7118 1.146
68.7421 1.250
68.7723 1.146
68.8026 1.198
68.8329 1.198
68.8632 1.615
68.8935 1.354
68.9237 1.406
68.9540 1.406
68.9843 1.302
69.0146 1.615
69.0448 1.302
69.0751 1.667
69.1054 1.458
69.1357 1.302
69.1660 1.302
69.1962 1.042
69.2265 0.990
69.2568 0.990
69.2871 1.562
69.3174 0.885
69.3476 0.781
69.3779 0.937
69.4082 0.885
69.4385 0.573
69.4687 0.625
69.4990 1.250
69.5293 0.573
69.5596 0.937
69.5899 1.198
69.6201 0.573
69.6504 0.781
69.6807 0.781
69.7110 0.833
69.7413 0.573
69.7715 0.312
69.8018 0.729
69.8321 0.625
69.8624 0.625
69.8926 0.781
69.9229 0.417
69.9532 0.833
69.9835 0.677
70.0138 0.521
70.0440 0.677
70.0743 0.677
70.1046 0.469
70.1349 0.677
70.1652 0.260
70.1954 0.573
70.2257 0.521
70.2560 0.365
70.2863 0.573
70.3166 0.417
70.3468 0.365
70.3771 0.573
70.4074 0.781
70.4377 0.312
70.4679 0.312
70.4982 0.365
70.5285 0.469
70.5588 0.208
70.5891 0.625
70.6193 0.677
70.6496 0.833
70.6799 0.573
70.7102 0.573
70.7405 0.417
70.7707 0.156
70.8010 0.469
70.8313 0.781
70.8616 0.677
70.8918 0.677
70.9221 0.729
70.9524 0.312
70.9827 0.573
71.0130 0.521
71.0432 0.417
71.0735 0.469
71.1038 0.677
71.1341 0.365
71.1644 0.521
71.1946 0.677
71.2249 0.573
71.2552 0.729
71.2855 0.417
71.3157 0.521
71.3460 0.521
71.3763 0.417
71.4066 0.625
71.4369 0.312
71.4671 0.521
71.4974 0.521
71.5277 0.573
71.5580 0.312
71.5883 0.521
71.6185 0.677
71.6488 0.312
71.6791 0.521
71.7094 0.417
71.7396 0.417
71.7699 0.625
71.8002 0.469
71.8305 0.260
71.8608 0.365
71.8910 0.573
71.9213 0.573
71.9516 0.417
71.9819 0.312
72.0122 0.312
72.0424 0.365
72.0727 0.573
72.1030 0.469
72.1333 0.521
72.1635 0.312
72.1938 0.729
72.2241 0.417
72.2544 0.469
72.2847 0.521
72.3149 0.677
72.3452 0.729
72.3755 0.885
72.4058 0.729
72.4361 0.417
72.4663 0.937
72.4966 0.833
72.5269 0.677
72.5572 0.677
72.5874 0.625
72.6177 0.677
72.6480 0.625
72.6783 0.729
72.7086 0.417
72.7388 0.625
72.7691 0.573
72.7994 0.573
72.8297 0.260
72.8600 0.260
72.8902 0.260
72.9205 0.365
72.9508 0.625
72.9811 0.729
73.0113 0.260
73.0416 0.573
73.0719 0.677
73.1022 0.469
73.1325 0.260
73.1627 0.417
73.1930 0.417
73.2233 0.260
73.2536 0.573
73.2839 0.521
73.3141 0.312
73.3444 0.469
73.3747 0.417
73.4050 0.312
73.4353 0.365
73.4655 0.677
73.4958 0.365
73.5261 0.260
73.5564 0.365
73.5866 0.677
73.6169 0.365
73.6472 0.417
73.6775 0.729
73.7078 0.417
73.7380 0.469
73.7683 0.469
73.7986 0.469
73.8289 0.260
73.8592 0.469
73.8894 0.365
73.9197 0.729
73.9500 0.365
73.9803 0.521
74.0105 0.312
74.0408 0.521
74.0711 0.260
74.1014 0.625
74.1317 0.417
74.1619 0.417
74.1922 0.521
74.2225 0.521
74.2528 0.365
74.2831 0.729
74.3133 0.469
74.3436 0.260
74.3739 0.469
74.4042 0.365
74.4344 0.312
74.4647 0.573
74.4950 0.417
74.5253 0.729
74.5556 0.521
74.5858 0.417
74.6161 0.521
74.6464 0.677
74.6767 0.365
74.7070 0.521
74.7372 0.729
74.7675 0.417
74.7978 0.365
74.8281 0.365
74.8583 0.625
74.8886 0.573
74.9189 0.625
74.9492 0.417
74.9795 0.469
75.0097 0.469
75.0400 0.260
75.0703 0.260
75.1006 0.417
75.1309 0.312
75.1611 0.469
75.1914 0.625
75.2217 0.417
75.2520 0.417
75.2822 0.677
75.3125 0.417
75.3428 0.469
75.3731 0.729
75.4034 0.312
75.4336 0.625
75.4639 0.312
75.4942 0.260
75.5245 0.312
75.5548 0.469
75.5850 0.417
75.6153 0.573
75.6456 0.625
75.6759 0.469
75.7061 0.365
75.7364 0.729
75.7667 0.573
75.7970 0.260
75.8273 0.573
75.8575 0.365
75.8878 0.469
75.9181 0.469
75.9484 0.365
75.9787 0.625
76.0089 0.312
76.0392 0.469
76.0695 0.677
76.0998 0.469
76.1301 0.573
76.1603 0.365
76.1906 0.469
76.2209 0.417
76.2512 0.469
76.2814 0.417
76.3117 0.729
76.3420 0.573
76.3723 0.260
76.4026 0.469
76.4328 0.417
76.4631 0.521
76.4934 0.260
76.5237 0.833
76.5540 0.573
76.5842 0.573
76.6145 0.677
76.6448 0.521
76.6751 0.729
76.7053 0.729
76.7356 0.990
76.7659 1.146
76.7962 0.729
76.8265 0.729
76.8567 0.573
76.8870 0.625
76.9173 0.521
76.9476 0.729
76.9779 0.625
77.0081 0.521
77.0384 0.573
77.0687 0.729
77.0990 0.729
77.1292 0.625
77.1595 0.365
77.1898 0.677
77.2201 0.573
77.2504 0.417
77.2806 0.521
77.3109 0.417
77.3412 0.625
77.3715 0.365
77.4018 0.521
77.4320 0.417
77.4623 0.677
77.4926 0.521
77.5229 0.417
77.5531 0.521
77.5834 0.417
77.6137 0.469
77.6440 0.521
77.6743 0.677
77.7045 0.521
77.7348 0.625
77.7651 0.573
77.7954 0.260
77.8257 0.469
77.8559 0.417
77.8862 0.573
77.9165 0.521
77.9468 0.573
77.9770 0.625
78.0073 0.260
78.0376 0.521
78.0679 0.677
78.0982 0.469
78.1284 0.625
78.1587 0.260
78.1890 0.677
78.2193 0.469
78.2496 0.260
78.2798 0.573
78.3101 0.781
78.3404 0.521
78.3707 0.312
78.4009 0.573
78.4312 0.625
78.4615 0.521
78.4918 0.365
78.5221 0.417
78.5523 0.312
78.5826 0.312
78.6129 0.469
78.6432 0.781
78.6735 0.469
78.7037 0.156
78.7340 0.573
78.7643 0.729
78.7946 0.312
78.8248 0.260
78.8551 0.729
78.8854 0.521
78.9157 0.417
78.9460 0.625
78.9762 0.521
79.0065 0.208
79.0368 0.469
79.0671 0.677
79.0974 0.677
79.1276 0.573
79.1579 0.469
79.1882 0.521
79.2185 0.521
79.2488 0.729
79.2790 0.417
79.3093 0.312
79.3396 0.677
79.3699 0.729
79.4001 0.469
79.4304 0.625
79.4607 0.521
79.4910 0.521
79.5213 0.417
79.5515 0.677
79.5818 0.781
79.6121 0.625
79.6424 0.417
79.6727 0.312
79.7029 0.937
79.7332 0.260
79.7635 0.365
79.7938 0.365
79.8240 0.469
79.8543 0.417
79.8846 0.573
79.9149 0.417
79.9452 0.417
79.9754 0.729
80.0057 0.469
80.0360 0.312
80.0663 0.365
80.0966 0.469
80.1268 0.365
80.1571 0.365
80.1874 0.312
80.2177 0.729
80.2479 0.312
80.2782 0.729
80.3085 0.156
80.3388 0.573
80.3691 0.521
80.3993 0.573
80.4296 0.521
80.4599 0.417
80.4902 0.417
80.5205 0.260
80.5507 0.312
80.5810 0.260
80.6113 0.312
80.6416 0.781
80.6718 0.417
80.7021 0.312
80.7324 0.573
80.7627 0.625
80.7930 0.573
80.8232 0.521
80.8535 0.417
80.8838 0.677
80.9141 0.573
80.9444 0.312
80.9746 0.469
81.0049 0.781
81.0352 0.521
81.0655 0.365
81.0957 0.729
81.1260 0.573
81.1563 0.729
81.1866 0.833
81.2169 0.365
81.2471 0.312
81.2774 0.729
81.3077 0.729
81.3380 0.260
81.3683 0.677
81.3985 0.365
81.4288 0.573
81.4591 0.469
81.4894 0.729
81.5196 0.937
81.5499 0.677
81.5802 0.417
81.6105 0.469
81.6408 0.469
81.6710 0.677
81.7013 0.417
81.7316 0.260
81.7619 0.260
81.7922 0.260
81.8224 0.677
81.8527 0.365
81.8830 0.312
81.9133 0.573
81.9436 0.573
81.9738 0.469
82.0041 0.469
82.0344 0.417
82.0647 0.521
82.0949 0.260
82.1252 0.208
82.1555 0.625
82.1858 0.729
82.2161 0.729
82.2463 0.260
82.2766 0.365
82.3069 0.469
82.3372 0.677
82.3675 0.573
82.3977 0.573
82.4280 0.260
82.4583 0.417
82.4886 0.833
82.5188 0.521
82.5491 0.625
82.5794 0.365
82.6097 0.417
82.6400 0.469
82.6702 0.469
82.7005 0.573
82.7308 0.677
82.7611 0.417
82.7914 0.781
82.8216 0.365
82.8519 0.312
82.8822 0.469
82.9125 0.469
82.9427 0.417
82.9730 0.521
83.0033 0.260
83.0336 0.469
83.0639 0.625
83.0941 0.625
83.1244 0.365
83.1547 0.417
83.1850 0.521
83.2153 0.729
83.2455 0.573
83.2758 0.573
83.3061 0.312
83.3364 0.417
83.3666 0.469
83.3969 0.521
83.4272 0.469
83.4575 0.260
83.4878 0.625
83.5180 0.573
83.5483 0.677
83.5786 0.469
83.6089 0.469
83.6392 0.469
83.6694 0.677
83.6997 0.729
83.7300 0.417
83.7603 0.417
83.7905 0.260
83.8208 0.365
83.8511 0.417
83.8814 0.417
83.9117 0.260
83.9419 0.365
83.9722 0.625
84.0025 0.260
84.0328 0.625
84.0631 0.625
84.0933 0.573
84.1236 0.729
84.1539 0.312
84.1842 0.417
84.2144 0.469
84.2447 0.417
84.2750 0.833
84.3053 0.312
84.3356 0.521
84.3658 0.260
84.3961 0.625
84.4264 0.365
84.4567 0.521
84.4870 0.729
84.5172 0.365
84.5475 0.573
84.5778 0.469
84.6081 0.625
84.6383 0.365
84.6686 0.521
84.6989 0.625
84.7292 0.521
84.7595 0.573
84.7897 0.469
84.8200 0.260
84.8503 0.417
84.8806 0.625
84.9109 0.625
84.9411 0.521
84.9714 0.260
85.0017 0.781
85.0320 0.365
85.0623 0.365
85.0925 0.521
85.1228 0.469
85.1531 0.417
85.1834 0.521
85.2136 0.260
85.2439 0.573
85.2742 0.469
85.3045 0.365
85.3348 0.573
85.3650 0.417
85.3953 0.312
85.4256 0.417
85.4559 0.417
85.4862 0.260
85.5164 0.469
85.5467 0.312
85.5770 0.521
85.6073 0.625
85.6375 0.729
85.6678 0.885
85.6981 0.312
85.7284 0.521
85.7587 0.521
85.7889 0.573
85.8192 0.469
85.8495 0.417
85.8798 0.417
85.9101 0.625
85.9403 0.260
85.9706 0.573
86.0009 0.208
86.0312 0.365
86.0614 0.521
86.0917 0.417
86.1220 0.469
86.1523 0.312
86.1826 0.260
86.2128 0.417
86.2431 0.365
86.2734 0.469
86.3037 0.208
86.3340 0.208
86.3642 0.260
86.3945 0.729
86.4248 0.156
86.4551 0.677
86.4853 0.312
86.5156 0.677
86.5459 0.521
86.5762 0.677
86.6065 0.417
86.6367 0.312
86.6670 0.365
86.6973 0.521
86.7276 0.521
86.7579 0.365
86.7881 0.312
86.8184 0.260
86.8487 0.469
86.8790 0.260
86.9092 0.521
86.9395 0.729
86.9698 0.521
87.0001 0.365
87.0304 0.260
87.0606 0.469
87.0909 0.365
87.1212 0.417
87.1515 0.417
87.1818 0.729
87.2120 0.677
87.2423 0.469
87.2726 0.260
87.3029 0.417
87.3331 0.260
87.3634 0.781
87.3937 0.521
87.4240 0.260
87.4543 0.312
87.4845 0.417
87.5148 0.365
87.5451 0.365
87.5754 0.365
87.6057 0.260
87.6359 0.573
87.6662 0.469
87.6965 0.729
87.7268 0.469
87.7571 0.260
87.7873 0.469
87.8176 0.417
87.8479 0.677
87.8782 0.729
87.9084 0.521
87.9387 0.521
87.9690 0.521
87.9993 0.365
88.0296 0.833
88.0598 0.417
88.0901 0.365
88.1204 0.260
88.1507 0.208
88.1810 0.417
88.2112 0.417
88.2415 0.469
88.2718 0.469
88.3021 0.417
88.3323 0.469
88.3626 0.260
88.3929 0.312
88.4232 0.469
88.4535 0.729
88.4837 0.729
88.5140 0.521
88.5443 0.573
88.5746 0.625
88.6049 0.365
88.6351 0.365
88.6654 0.260
88.6957 0.573
88.7260 0.365
88.7562 0.729
88.7865 0.573
88.8168 0.573
88.8471 0.469
88.8774 0.312
88.9076 0.365
88.9379 0.521
88.9682 0.625
88.9985 0.833
89.0288 0.417
89.0590 0.781
89.0893 0.521
89.1196 0.469
89.1499 0.625
89.1801 0.521
89.2104 0.677
89.2407 0.937
89.2710 0.625
89.3013 0.729
89.3315 0.365
89.3618 0.781
89.3921 0.781
89.4224 1.354
89.4527 0.573
89.4829 0.833
89.5132 0.885
89.5435 0.677
89.5738 0.885
89.6040 0.417
89.6343 0.677
89.6646 0.833
89.6949 0.677
89.7252 0.781
89.7554 0.833
89.7857 0.573
89.8160 0.781
89.8463 0.417
89.8766 0.833
89.9068 0.417
89.9371 0.625
89.9674 0.521
89.9977 0.729
90.0279 0.573
90.0582 0.729
90.0885 0.521
90.1188 0.469
90.1491 0.573
90.1793 0.521
90.2096 0.729
90.2399 0.729
90.2702 0.469
90.3005 0.729
90.3307 0.729
90.3610 0.573
90.3913 0.521
90.4216 0.833
90.4518 0.729
90.4821 0.365
90.5124 0.625
90.5427 0.573
90.5730 0.312
90.6032 0.573
90.6335 0.521
90.6638 0.469
90.6941 0.521
90.7244 0.521
90.7546 0.885
90.7849 0.573
90.8152 0.573
90.8455 0.885
90.8758 0.729
90.9060 0.573
90.9363 0.208
90.9666 0.573
90.9969 0.573
91.0271 0.677
91.0574 0.417
91.0877 0.729
91.1180 0.417
91.1483 0.312
91.1785 0.469
91.2088 0.417
91.2391 0.521
91.2694 0.312
91.2997 0.573
91.3299 0.469
91.3602 0.365
91.3905 0.417
91.4208 0.573
91.4510 0.312
91.4813 0.677
91.5116 0.521
91.5419 0.729
91.5722 0.573
91.6024 0.365
91.6327 0.625
91.6630 0.260
91.6933 0.781
91.7236 0.312
91.7538 0.312
91.7841 0.677
91.8144 0.729
91.8447 0.417
91.8749 0.521
91.9052 0.417
91.9355 0.417
91.9658 0.521
91.9961 0.365
92.0263 0.365
92.0566 0.260
92.0869 0.365
92.1172 0.521
92.1475 0.677
92.1777 0.625
92.2080 0.833
92.2383 0.312
92.2686 0.417
92.2988 0.417
92.3291 0.469
92.3594 0.729
92.3897 0.625
92.4200 0.677
92.4502 0.417
92.4805 0.312
92.5108 0.990
92.5411 0.625
92.5714 0.781
92.6016 0.781
92.6319 0.417
92.6622 0.521
92.6925 0.312
92.7227 0.417
92.7530 0.781
92.7833 0.417
92.8136 0.469
92.8439 0.469
92.8741 0.573
92.9044 0.625
92.9347 0.625
92.9650 0.573
92.9953 0.469
93.0255 0.729
93.0558 0.469
93.0861 0.625
93.1164 0.417
93.1466 0.781
93.1769 0.260
93.2072 0.833
93.2375 0.937
93.2678 0.677
93.2980 0.521
93.3283 0.729
93.3586 0.937
93.3889 0.573
93.4192 0.260
93.4494 0.625
93.4797 0.521
93.5100 0.521
93.5403 0.469
93.5706 0.469
93.6008 0.469
93.6311 0.417
93.6614 0.417
93.6917 0.573
93.7219 0.417
93.7522 0.729
93.7825 0.469
93.8128 0.729
93.8431 0.521
93.8733 0.677
93.9036 0.469
93.9339 0.469
93.9642 0.260
93.9945 0.365
94.0247 0.312
94.0550 0.625
94.0853 0.573
94.1156 0.677
94.1458 0.677
94.1761 0.417
94.2064 0.521
94.2367 0.729
94.2670 0.625
94.2972 0.365
94.3275 0.417
94.3578 0.677
94.3881 0.521
94.4184 0.521
94.4486 0.573
94.4789 0.573
94.5092 0.573
94.5395 0.469
94.5697 0.833
94.6000 0.260
94.6303 0.729
94.6606 0.625
94.6909 0.937
94.7211 0.677
94.7514 0.573
94.7817 0.781
94.8120 0.469
94.8423 0.729
94.8725 0.521
94.9028 0.573
94.9331 0.885
94.9634 0.937
94.9936 0.990
95.0239 0.885
95.0542 0.781
95.0845 1.094
95.1148 1.250
95.1450 0.729
95.1753 1.094
95.2056 0.885
95.2359 0.833
95.2662 0.833
95.2964 0.885
95.3267 0.729
95.3570 0.990
95.3873 1.250
95.4175 1.042
95.4478 0.937
95.4781 1.094
95.5084 0.833
95.5387 0.677
95.5689 0.833
95.5992 0.365
95.6295 1.250
95.6598 0.729
95.6901 0.625
95.7203 0.729
95.7506 0.677
95.7809 0.260
95.8112 0.260
95.8414 0.573
95.8717 0.677
95.9020 0.677
95.9323 0.573
95.9626 0.469
95.9928 0.729
96.0231 0.625
96.0534 0.573
96.0837 0.573
96.1140 0.833
96.1442 0.677
96.1745 0.833
96.2048 0.625
96.2351 0.677
96.2653 0.677
96.2956 0.365
96.3259 0.521
96.3562 0.729
96.3865 0.469
96.4167 0.677
96.4470 0.469
96.4773 0.469
96.5076 0.729
96.5379 0.417
96.5681 0.312
96.5984 0.469
96.6287 0.417
96.6590 0.365
96.6893 0.417
96.7195 0.573
96.7498 0.365
96.7801 0.573
96.8104 0.573
96.8406 0.260
96.8709 0.365
96.9012 0.625
96.9315 0.365
96.9618 0.417
96.9920 0.417
97.0223 0.469
97.0526 0.417
97.0829 0.312
97.1132 0.521
97.1434 0.312
97.1737 0.573
97.2040 0.521
97.2343 0.573
97.2645 0.469
97.2948 0.521
97.3251 0.625
97.3554 0.677
97.3857 0.573
97.4159 0.729
97.4462 0.417
97.4765 0.521
97.5068 0.573
97.5371 0.469
97.5673 0.417
97.5976 0.677
97.6279 0.625
97.6582 0.312
97.6884 0.677
97.7187 0.521
97.7490 0.677
97.7793 0.260
97.8096 0.781
97.8398 0.365
97.8701 0.469
97.9004 0.417
97.9307 0.833
97.9610 0.625
97.9912 0.677
98.0215 0.521
98.0518 0.573
98.0821 0.312
98.1123 0.625
98.1426 1.042
98.1729 0.521
98.2032 0.885
98.2335 0.469
98.2637 0.729
98.2940 0.521
98.3243 0.885
98.3546 0.677
98.3849 0.625
98.4151 0.885
98.4454 0.625
98.4757 0.833
98.5060 0.937
98.5362 0.417
98.5665 0.781
98.5968 0.573
98.6271 0.885
98.6574 0.937
98.6876 0.625
98.7179 0.469
98.7482 0.833
98.7785 0.625
98.8088 0.677
98.8390 0.729
98.8693 0.365
98.8996 0.573
98.9299 0.677
98.9601 0.521
98.9904 0.312
99.0207 0.677
99.0510 0.521
99.0813 0.365
99.1115 0.573
99.1418 0.625
99.1721 0.573
99.2024 0.677
99.2327 0.417
99.2629 0.469
99.2932 0.677
99.3235 0.365
99.3538 0.573
99.3841 0.625
99.4143 0.729
99.4446 0.521
99.4749 0.312
99.5052 0.990
99.5354 0.521
99.5657 0.469
99.5960 0.729
99.6263 0.469
99.6566 0.677
99.6868 0.417
99.7171 0.625
99.7474 0.625
99.7777 0.677
99.8080 0.729
99.8382 0.469
99.8685 0.469
99.8988 0.417
99.9291 0.625
99.9593 0.365
99.9896 0.573
100.0199 0.781
100.0502 0.469
100.0805 0.260
100.1107 0.677
100.1410 0.521
100.1713 0.781
100.2016 0.521
100.2319 0.312
100.2621 0.365
100.2924 0.781
100.3227 0.625
100.3530 0.677
100.3832 0.573
100.4135 0.937
100.4438 0.260
100.4741 0.417
100.5044 0.729
100.5346 0.208
100.5649 0.781
100.5952 0.469
100.6255 0.469
100.6558 0.729
100.6860 0.260
100.7163 0.677
100.7466 0.521
100.7769 0.677
100.8071 0.625
100.8374 0.469
100.8677 0.885
100.8980 0.625
100.9283 0.781
100.9585 0.365
100.9888 0.365
101.0191 0.677
101.0494 0.573
101.0797 0.781
101.1099 0.573
101.1402 0.469
101.1705 0.625
101.2008 0.625
101.2310 0.573
101.2613 0.677
101.2916 0.521
101.3219 0.781
101.3522 0.625
101.3824 0.781
101.4127 0.521
101.4430 0.677
101.4733 0.469
101.5036 0.521
101.5338 0.469
101.5641 0.365
101.5944 0.625
101.6247 0.677
101.6549 0.625
101.6852 0.625
101.7155 0.677
101.7458 0.729
101.7761 0.781
101.8063 0.781
101.8366 0.521
101.8669 0.625
101.8972 0.625
101.9275 0.469
101.9577 0.781
101.9880 0.729
102.0183 0.781
102.0486 0.365
102.0788 0.677
102.1091 0.260
102.1394 0.521
102.1697 0.781
102.2000 0.521
102.2302 0.573
102.2605 0.469
102.2908 0.625
102.3211 0.833
102.3514 0.417
102.3816 0.781
102.4119 0.677
102.4422 0.833
102.4725 0.729
102.5028 0.781
102.5330 0.573
102.5633 0.781
102.5936 0.833
102.6239 0.729
102.6541 0.677
102.6844 0.781
102.7147 0.677
102.7450 0.833
102.7753 0.833
102.8055 0.937
102.8358 1.042
102.8661 0.573
102.8964 0.625
102.9267 0.781
102.9569 0.885
102.9872 0.677
103.0175 0.625
103.0478 0.625
103.0780 0.781
103.1083 0.625
103.1386 0.729
103.1689 0.937
103.1992 0.729
103.2294 0.625
103.2597 0.573
103.2900 0.729
103.3203 0.417
103.3506 0.833
103.3808 0.729
103.4111 0.729
103.4414 0.573
103.4717 0.469
103.5019 0.729
103.5322 0.521
103.5625 0.417
103.5928 0.677
103.6231 0.833
103.6533 0.677
103.6836 0.885
103.7139 0.833
103.7442 0.833
103.7745 0.573
103.8047 0.833
103.8350 0.573
103.8653 0.937
103.8956 0.417
103.9258 0.573
103.9561 1.042
103.9864 0.885
104.0167 0.729
104.0470 0.781
104.0772 0.833
104.1075 1.042
104.1378 0.833
104.1681 0.625
104.1984 0.937
104.2286 0.990
104.2589 0.833
104.2892 0.990
104.3195 0.573
104.3497 0.625
104.3800 0.625
104.4103 0.521
104.4406 0.729
104.4709 0.469
104.5011 0.885
104.5314 0.625
104.5617 0.677
104.5920 0.833
104.6223 0.781
104.6525 0.729
104.6828 0.885
104.7131 0.573
104.7434 0.625
104.7736 0.833
104.8039 0.521
104.8342 0.469
104.8645 0.937
104.8948 0.521
104.9250 0.990
104.9553 0.625
104.9856 0.625
105.0159 0.729
105.0462 0.729
105.0764 0.365
105.1067 0.521
105.1370 0.729
105.1673 0.990
105.1975 0.625
105.2278 0.677
105.2581 0.833
105.2884 0.521
105.3187 0.469
105.3489 0.885
105.3792 0.833
105.4095 0.573
105.4398 0.469
105.4701 0.729
105.5003 0.469
105.5306 0.625
105.5609 0.937
105.5912 0.833
105.6215 0.521
105.6517 0.469
105.6820 0.365
105.7123 0.625
105.7426 0.469
105.7728 0.625
105.8031 0.521
105.8334 0.312
105.8637 0.521
105.8940 0.417
105.9242 0.469
105.9545 0.781
105.9848 0.677
106.0151 0.625
106.0454 0.573
106.0756 0.469
106.1059 0.521
106.1362 0.521
106.1665 0.573
106.1967 0.365
106.2270 0.573
106.2573 0.260
106.2876 0.885
106.3179 0.573
106.3481 0.365
106.3784 0.417
106.4087 0.573
106.4390 0.417
106.4693 0.781
106.4995 0.417
106.5298 0.521
106.5601 0.625
106.5904 0.677
106.6206 0.365
106.6509 0.312
106.6812 0.990
106.7115 0.625
106.7418 0.312
106.7720 0.521
106.8023 0.469
106.8326 0.365
106.8629 0.833
106.8932 0.833
106.9234 0.729
106.9537 0.833
106.9840 0.833
107.0143 0.573
107.0445 0.990
107.0748 0.521
107.1051 0.521
107.1354 0.469
107.1657 0.677
107.1959 0.469
107.2262 0.521
107.2565 0.573
107.2868 0.312
107.3171 0.312
107.3473 0.573
107.3776 0.208
107.4079 0.677
107.4382 0.729
107.4684 0.625
107.4987 0.625
107.5290 0.729
107.5593 0.937
107.5896 0.573
107.6198 0.781
107.6501 0.469
107.6804 0.781
107.7107 0.469
107.7410 0.365
107.7712 0.521
107.8015 0.521
107.8318 0.521
107.8621 0.885
107.8923 0.260
107.9226 0.573
107.9529 0.469
107.9832 0.469
108.0135 0.521
108.0437 0.208
108.0740 0.417
108.1043 0.625
108.1346 0.625
108.1649 0.729
108.1951 0.521
108.2254 0.365
108.2557 0.260
108.2860 0.781
108.3163 0.885
108.3465 0.781
108.3768 0.365
108.4071 0.469
108.4374 0.677
108.4676 0.312
108.4979 0.417
108.5282 0.208
108.5585 0.677
108.5888 0.729
108.6190 0.625
108.6493 0.573
108.6796 0.833
108.7099 0.365
108.7402 0.469
108.7704 0.833
108.8007 0.729
108.8310 0.625
108.8613 0.573
108.8915 0.573
108.9218 0.625
108.9521 0.833
108.9824 0.625
109.0127 0.156
109.0429 0.365
109.0732 0.833
109.1035 0.833
109.1338 0.677
109.1641 0.833
109.1943 0.417
109.2246 0.833
109.2549 0.521
109.2852 0.521
109.3154 0.625
109.3457 0.365
109.3760 0.417
109.4063 0.625
109.4366 0.729
109.4668 0.781
109.4971 0.365
109.5274 0.677
109.5577 0.677
109.5880 0.521
109.6182 0.469
109.6485 0.573
109.6788 0.469
109.7091 0.729
109.7393 0.729
109.7696 0.729
109.7999 0.365
109.8302 0.625
109.8605 0.677
109.8907 0.885
109.9210 0.469
109.9513 0.677
109.9816 0.573
110.0119 0.937
110.0421 0.781
110.0724 0.677
110.1027 0.573
110.1330 0.885
110.1632 0.833
110.1935 0.521
110.2238 0.937
110.2541 0.573
110.2844 1.146
110.3146 0.625
110.3449 0.781
110.3752 0.573
110.4055 0.573
110.4358 0.469
110.4660 0.417
110.4963 0.781
110.5266 0.677
110.5569 0.677
110.5871 0.937
110.6174 0.781
110.6477 0.677
110.6780 0.729
110.7083 0.365
110.7385 0.729
110.7688 0.625
110.7991 0.833
110.8294 0.625
110.8597 0.729
110.8899 0.781
110.9202 0.625
110.9505 0.417
110.9808 0.573
111.0110 0.990
111.0413 0.469
111.0716 0.990
111.1019 0.573
111.1322 0.469
111.1624 0.677
111.1927 0.990
111.2230 0.365
111.2533 0.729
111.2836 0.833
111.3138 0.677
111.3441 0.469
111.3744 0.729
111.4047 0.521
111.4350 0.677
111.4652 0.833
111.4955 0.417
111.5258 0.573
111.5561 0.729
111.5863 0.417
111.6166 0.781
111.6469 0.677
111.6772 0.729
111.7075 0.521
111.7377 0.573
111.7680 0.625
111.7983 0.625
111.8286 0.729
111.8589 0.417
111.8891 0.573
111.9194 0.417
111.9497 0.469
111.9800 0.312
112.0102 0.521
112.0405 0.729
112.0708 0.781
112.1011 0.469
112.1314 0.573
112.1616 0.781
112.1919 0.990
112.2222 0.625
112.2525 0.677
112.2828 0.729
112.3130 0.625
112.3433 0.521
112.3736 0.625
112.4039 0.625
112.4341 0.417
112.4644 0.677
112.4947 0.469
112.5250 0.521
112.5553 0.521
112.5855 0.781
112.6158 0.365
112.6461 0.677
112.6764 0.365
112.7067 0.312
112.7369 0.573
112.7672 0.729
112.7975 0.573
112.8278 0.573
112.8580 0.469
112.8883 0.469
112.9186 0.781
112.9489 0.573
112.9792 0.677
113.0094 0.312
113.0397 0.417
113.0700 0.677
113.1003 0.521
113.1306 0.729
113.1608 0.677
113.1911 0.417
113.2214 0.729
113.2517 0.312
113.2819 0.937
113.3122 0.417
113.3425 0.521
113.3728 0.677
113.4031 0.365
113.4333 0.469
113.4636 0.625
113.4939 0.469
113.5242 0.417
113.5545 0.417
113.5847 0.573
113.6150 0.521
113.6453 0.573
113.6756 0.990
113.7058 0.625
113.7361 0.521
113.7664 0.625
113.7967 0.312
113.8270 0.521
113.8572 0.469
113.8875 0.469
113.9178 0.417
113.9481 0.833
113.9784 0.573
114.0086 0.417
114.0389 0.521
114.0692 0.521
114.0995 0.469
114.1298 0.781
114.1600 0.573
114.1903 0.365
114.2206 0.521
114.2509 0.625
114.2811 0.885
114.3114 0.990
114.3417 0.833
114.3720 0.729
114.4023 0.521
114.4325 0.729
114.4628 0.677
114.4931 0.625
114.5234 0.365
114.5537 0.365
114.5839 0.521
114.6142 0.521
114.6445 0.677
114.6748 0.417
114.7050 0.469
114.7353 0.625
114.7656 0.781
114.7959 0.573
114.8262 0.469
114.8564 0.833
114.8867 0.573
114.9170 0.781
114.9473 0.469
114.9776 0.521
115.0078 1.042
115.0381 0.625
115.0684 0.365
115.0987 0.677
115.1289 0.469
115.1592 1.042
115.1895 0.469
115.2198 0.573
115.2501 0.677
115.2803 0.365
115.3106 0.521
115.3409 0.677
115.3712 0.469
115.4015 0.833
115.4317 0.573
115.4620 0.833
115.4923 0.833
115.5226 0.469
115.5528 0.625
115.5831 0.625
115.6134 0.677
115.6437 0.937
115.6740 0.781
115.7042 0.833
115.7345 0.781
115.7648 0.885
115.7951 0.573
115.8254 0.833
115.8556 0.729
115.8859 1.354
115.9162 0.521
115.9465 1.198
115.9767 0.990
116.0070 1.094
116.0373 0.781
116.0676 1.198
116.0979 1.042
116.1281 1.042
116.1584 0.781
116.1887 0.781
116.2190 1.354
116.2493 0.521
116.2795 1.198
116.3098 1.094
116.3401 0.417
116.3704 1.302
116.4006 1.250
116.4309 0.521
116.4612 1.146
116.4915 0.781
116.5218 0.729
116.5520 0.781
116.5823 0.573
116.6126 1.302
116.6429 1.094
116.6732 0.573
116.7034 0.781
116.7337 1.250
116.7640 0.625
116.7943 0.729
116.8245 1.146
116.8548 0.573
116.8851 0.573
116.9154 0.885
116.9457 0.729
116.9759 0.625
117.0062 0.625
117.0365 0.885
117.0668 0.729
117.0971 1.198
117.1273 0.521
117.1576 0.781
117.1879 0.885
117.2182 0.990
117.2485 0.417
117.2787 0.469
117.3090 0.677
117.3393 0.417
117.3696 0.260
117.3998 0.677
117.4301 0.833
117.4604 0.625
117.4907 0.260
117.5210 0.781
117.5512 0.521
117.5815 0.417
117.6118 0.729
117.6421 0.521
117.6724 0.521
117.7026 0.573
117.7329 0.573
117.7632 0.625
117.7935 0.677
117.8237 0.677
117.8540 0.625
117.8843 0.417
117.9146 0.677
117.9449 0.469
117.9751 0.677
118.0054 0.573
118.0357 0.469
118.0660 0.625
118.0963 0.573
118.1265 0.417
118.1568 0.833
118.1871 1.042
118.2174 0.469
118.2476 0.417
118.2779 0.833
118.3082 0.573
118.3385 0.781
118.3688 0.469
118.3990 0.521
118.4293 0.469
118.4596 0.573
118.4899 0.833
118.5202 0.469
118.5504 0.417
118.5807 0.677
118.6110 0.729
118.6413 1.250
118.6715 0.729
118.7018 0.417
118.7321 0.573
118.7624 0.885
118.7927 0.469
118.8229 0.521
118.8532 0.833
118.8835 0.833
118.9138 0.521
118.9441 0.729
118.9743 0.885
119.0046 0.729
119.0349 0.729
119.0652 0.625
119.0954 0.677
119.1257 0.521
119.1560 0.417
119.1863 0.625
119.2166 0.625
119.2468 0.521
119.2771 0.417
119.3074 0.625
119.3377 0.729
119.3680 0.573
119.3982 0.417
119.4285 0.677
119.4588 0.417
119.4891 1.094
119.5193 0.937
119.5496 0.469
119.5799 0.573
119.6102 0.521
119.6405 0.521
119.6707 0.573
119.7010 0.625
119.7313 0.833
119.7616 0.469
119.7919 0.417
119.8221 0.469
119.8524 1.094
119.8827 0.625
119.9130 0.885
119.9433 0.573
119.9735 0.625
120.0038 0.469
