'Id: "" Comment: "" Operator: "Lab Manager" Anode: "Cu" Scantype: "Locked Coupled" TimePerStep: "19.2" X: "9999" Y: "9999" Z: "9999" 
10.0015 143.333
10.0318 128.802
10.0620 119.323
10.0923 112.396
10.1226 105.260
10.1529 96.562
10.1832 90.260
10.2134 85.417
10.2437 77.917
10.2740 75.625
10.3043 72.344
10.3346 67.708
10.3648 66.302
10.3951 59.531
10.4254 54.740
10.4557 57.865
10.4859 52.500
10.5162 51.406
10.5465 53.229
10.5768 48.073
10.6071 46.302
10.6373 46.146
10.6676 43.854
10.6979 43.177
10.7282 42.708
10.7585 42.187
10.7887 37.708
10.8190 39.896
10.8493 37.344
10.8796 41.615
10.9098 38.594
10.9401 40.573
10.9704 41.458
11.0007 41.354
11.0310 43.542
11.0612 45.781
11.0915 42.031
11.1218 44.687
11.1521 37.760
11.1824 40.104
11.2126 39.323
11.2429 40.937
11.2732 37.240
11.3035 37.969
11.3337 37.760
11.3640 39.583
11.3943 43.281
11.4246 43.333
11.4549 49.323
11.4851 53.698
11.5154 54.740
11.5457 67.135
11.5760 71.875
11.6063 84.948
11.6365 103.125
11.6668 124.635
11.6971 151.771
11.7274 176.250
11.7577 177.344
11.7879 151.823
11.8182 112.760
11.8485 74.219
11.8788 49.635
11.9090 40.833
11.9393 32.083
11.9696 30.885
11.9999 27.708
12.0302 25.833
12.0604 26.042
12.0907 26.510
12.1210 27.500
12.1513 25.781
12.1816 23.750
12.2118 19.323
12.2421 18.542
12.2724 19.375
12.3027 16.510
12.3329 16.250
12.3632 16.562
12.3935 15.573
12.4238 16.042
12.4541 16.250
12.4843 14.115
12.5146 14.323
12.5449 13.906
12.5752 14.479
12.6055 13.125
12.6357 14.948
12.6660 14.375
12.6963 13.854
12.7266 13.177
12.7568 12.240
12.7871 11.979
12.8174 12.292
12.8477 11.562
12.8780 11.198
12.9082 12.500
12.9385 11.667
12.9688 10.312
12.9991 11.146
13.0294 12.187
13.0596 11.510
13.0899 11.406
13.1202 12.760
13.1505 10.000
13.1807 9.375
13.2110 11.198
13.2413 10.937
13.2716 10.833
13.3019 10.469
13.3321 13.542
13.3624 11.094
13.3927 11.198
13.4230 15.260
13.4533 13.021
13.4835 12.969
13.5138 13.073
13.5441 15.000
13.5744 12.656
13.6046 12.344
13.6349 12.396
13.6652 11.875
13.6955 11.250
13.7258 12.552
13.7560 13.437
13.7863 11.406
13.8166 12.656
13.8469 12.656
13.8772 12.031
13.9074 13.125
13.9377 13.854
13.9680 13.750
13.9983 14.635
14.0285 13.229
14.0588 14.479
14.0891 14.271
14.1194 16.406
14.1497 17.135
14.1799 17.135
14.2102 16.615
14.2405 18.906
14.2708 17.604
14.3011 18.177
14.3313 20.469
14.3616 20.469
14.3919 21.875
14.4222 22.812
14.4524 23.281
14.4827 23.333
14.5130 25.781
14.5433 29.635
14.5736 29.323
14.6038 33.490
14.6341 33.125
14.6644 38.646
14.6947 37.552
14.7250 38.333
14.7552 38.385
14.7855 39.062
14.8158 38.073
14.8461 37.187
14.8764 35.521
14.9066 35.729
14.9369 29.531
14.9672 27.969
14.9975 25.365
15.0277 23.854
15.0580 20.677
15.0883 20.990
15.1186 16.927
15.1489 15.260
15.1791 14.375
15.2094 13.437
15.2397 12.969
15.2700 12.969
15.3003 13.750
15.3305 12.552
15.3608 9.792
15.3911 9.844
15.4214 9.115
15.4516 8.594
15.4819 8.073
15.5122 8.437
15.5425 7.917
15.5728 8.646
15.6030 6.719
15.6333 8.073
15.6636 6.250
15.6939 7.396
15.7242 8.333
15.7544 6.250
15.7847 7.187
15.8150 5.052
15.8453 6.354
15.8755 6.406
15.9058 5.573
15.9361 5.885
15.9664 6.042
15.9967 5.417
16.0269 4.531
16.0572 3.958
16.0875 4.844
16.1178 4.479
16.1481 5.052
16.1783 4.792
16.2086 4.167
16.2389 4.323
16.2692 4.219
16.2994 3.906
16.3297 4.375
16.3600 4.115
16.3903 4.271
16.4206 4.687
16.4508 3.594
16.4811 4.219
16.5114 3.646
16.5417 3.542
16.5720 3.385
16.6022 3.490
16.6325 3.333
16.6628 4.167
16.6931 3.333
16.7233 4.062
16.7536 3.594
16.7839 3.854
16.8142 4.375
16.8445 3.333
16.8747 4.948
16.9050 3.542
16.9353 3.958
16.9656 4.219
16.9959 3.490
17.0261 3.437
17.0564 3.750
17.0867 3.542
17.1170 3.385
17.1472 3.229
17.1775 2.812
17.2078 3.854
17.2381 2.604
17.2684 3.750
17.2986 2.865
17.3289 2.760
17.3592 2.917
17.3895 2.656
17.4198 2.865
17.4500 3.125
17.4803 3.281
17.5106 2.604
17.5409 2.292
17.5712 2.187
17.6014 3.177
17.6317 2.865
17.6620 3.125
17.6923 2.760
17.7225 3.073
17.7528 2.083
17.7831 2.292
17.8134 2.500
17.8437 2.500
17.8739 2.240
17.9042 2.656
17.9345 2.448
17.9648 2.135
17.9951 2.135
18.0253 2.240
18.0556 2.240
18.0859 2.604
18.1162 2.604
18.1464 2.187
18.1767 2.865
18.2070 2.760
18.2373 3.281
18.2676 2.344
18.2978 2.604
18.3281 2.604
18.3584 2.448
18.3887 2.760
18.4190 2.292
18.4492 3.437
18.4795 2.604
18.5098 2.812
18.5401 2.187
18.5703 2.552
18.6006 2.604
18.6309 1.510
18.6612 2.448
18.6915 2.917
18.7217 2.344
18.7520 2.917
18.7823 2.917
18.8126 2.969
18.8429 3.021
18.8731 1.771
18.9034 3.125
18.9337 1.823
18.9640 1.667
18.9942 2.187
19.0245 3.073
19.0548 1.875
19.0851 2.344
19.1154 2.760
19.1456 3.281
19.1759 2.240
19.2062 3.490
19.2365 2.708
19.2668 3.490
19.2970 3.021
19.3273 3.958
19.3576 3.802
19.3879 3.594
19.4181 3.490
19.4484 3.958
19.4787 3.490
19.5090 4.844
19.5393 3.854
19.5695 5.208
19.5998 5.469
19.6301 4.740
19.6604 6.354
19.6907 6.302
19.7209 5.833
19.7512 7.187
19.7815 6.979
19.8118 5.885
19.8420 6.094
19.8723 6.250
19.9026 7.135
19.9329 6.094
19.9632 6.771
19.9934 6.146
20.0237 6.198
20.0540 5.000
20.0843 6.354
20.1146 4.531
20.1448 4.740
20.1751 5.573
20.2054 4.271
20.2357 3.802
20.2659 3.750
20.2962 4.219
20.3265 3.698
20.3568 3.906
20.3871 4.375
20.4173 2.917
20.4476 3.281
20.4779 4.167
20.5082 2.708
20.5385 3.177
20.5687 3.802
20.5990 2.604
20.6293 3.073
20.6596 2.865
20.6899 3.229
20.7201 2.448
20.7504 2.812
20.7807 2.500
20.8110 2.969
20.8412 2.917
20.8715 2.656
20.9018 2.656
20.9321 2.604
20.9624 2.604
20.9926 2.865
21.0229 2.552
21.0532 2.917
21.0835 3.229
21.1138 3.073
21.1440 3.750
21.1743 5.729
21.2046 7.187
21.2349 8.437
21.2651 6.458
21.2954 5.417
21.3257 4.010
21.3560 2.865
21.3863 3.073
21.4165 3.177
21.4468 3.437
21.4771 3.594
21.5074 3.125
21.5377 2.812
21.5679 2.865
21.5982 2.656
21.6285 2.969
21.6588 2.240
21.6890 2.240
21.7193 2.552
21.7496 2.552
21.7799 2.865
21.8102 2.865
21.8404 2.969
21.8707 2.292
21.9010 2.344
21.9313 2.812
21.9616 2.604
21.9918 2.344
22.0221 3.802
22.0524 2.604
22.0827 2.031
22.1129 2.448
22.1432 2.448
22.1735 2.917
22.2038 3.021
22.2341 2.187
22.2643 2.812
22.2946 2.448
22.3249 2.240
22.3552 1.771
22.3855 1.927
22.4157 2.708
22.4460 2.135
22.4763 2.448
22.5066 2.917
22.5368 2.656
22.5671 2.865
22.5974 2.604
22.6277 2.344
22.6580 2.760
22.6882 2.708
22.7185 2.604
22.7488 2.396
22.7791 2.604
22.8094 2.812
22.8396 3.073
22.8699 3.490
22.9002 2.500
22.9305 2.708
22.9607 2.917
22.9910 2.656
23.0213 3.125
23.0516 3.750
23.0819 2.500
23.1121 2.917
23.1424 3.490
23.1727 3.646
23.2030 3.854
23.2333 4.583
23.2635 5.260
23.2938 4.219
23.3241 4.167
23.3544 5.312
23.3846 4.479
23.4149 5.417
23.4452 6.094
23.4755 5.521
23.5058 6.250
23.5360 6.094
23.5663 6.823
23.5966 5.937
23.6269 7.500
23.6572 6.510
23.6874 8.281
23.7177 10.677
23.7480 9.167
23.7783 11.823
23.8086 11.979
23.8388 10.990
23.8691 10.625
23.8994 9.115
23.9297 8.229
23.9599 7.083
23.9902 5.156
24.0205 5.937
24.0508 5.052
24.0811 5.104
24.1113 4.896
24.1416 5.000
24.1719 4.896
24.2022 5.365
24.2325 4.896
24.2627 5.104
24.2930 6.875
24.3233 7.500
24.3536 7.552
24.3838 8.333
24.4141 8.021
24.4444 7.083
24.4747 7.240
24.5050 8.177
24.5352 8.229
24.5655 9.896
24.5958 8.906
24.6261 10.260
24.6564 9.740
24.6866 9.948
24.7169 10.833
24.7472 13.542
24.7775 13.073
24.8077 14.792
24.8380 14.687
24.8683 17.552
24.8986 20.000
24.9289 18.437
24.9591 18.437
24.9894 16.771
25.0197 17.344
25.0500 14.271
25.0803 14.323
25.1105 11.146
25.1408 9.687
25.1711 9.323
25.2014 8.854
25.2316 9.115
25.2619 7.448
25.2922 5.990
25.3225 6.615
25.3528 5.417
25.3830 5.156
25.4133 6.146
25.4436 4.635
25.4739 4.219
25.5042 4.323
25.5344 4.479
25.5647 4.219
25.5950 4.583
25.6253 5.156
25.6555 3.958
25.6858 3.958
25.7161 3.542
25.7464 3.854
25.7767 3.802
25.8069 3.594
25.8372 3.333
25.8675 3.437
25.8978 3.177
25.9281 4.479
25.9583 4.010
25.9886 3.750
26.0189 4.635
26.0492 3.906
26.0794 3.854
26.1097 4.531
26.1400 3.385
26.1703 4.219
26.2006 3.750
26.2308 3.594
26.2611 4.167
26.2914 3.802
26.3217 4.010
26.3520 3.385
26.3822 3.437
26.4125 4.062
26.4428 4.583
26.4731 5.260
26.5034 4.219
26.5336 4.687
26.5639 5.469
26.5942 5.833
26.6245 5.156
26.6547 5.573
26.6850 5.417
26.7153 7.344
26.7456 7.083
26.7759 7.604
26.8061 8.646
26.8364 9.427
26.8667 7.865
26.8970 8.802
26.9273 6.719
26.9575 6.146
26.9878 5.885
27.0181 4.844
27.0484 6.146
27.0786 5.937
27.1089 5.052
27.1392 4.740
27.1695 4.844
27.1998 4.844
27.2300 4.896
27.2603 3.437
27.2906 5.781
27.3209 4.896
27.3512 4.844
27.3814 5.052
27.4117 4.583
27.4420 4.375
27.4723 6.198
27.5025 5.260
27.5328 6.875
27.5631 5.365
27.5934 6.667
27.6237 7.240
27.6539 7.448
27.6842 7.708
27.7145 9.687
27.7448 9.115
27.7751 10.833
27.8053 10.781
27.8356 10.729
27.8659 11.458
27.8962 12.812
27.9264 11.667
27.9567 11.146
27.9870 11.719
28.0173 11.979
28.0476 11.823
28.0778 10.260
28.1081 9.740
28.1384 8.229
28.1687 7.812
28.1990 8.385
28.2292 6.250
28.2595 6.719
28.2898 5.104
28.3201 5.052
28.3503 5.208
28.3806 4.167
28.4109 5.365
28.4412 4.219
28.4715 4.844
28.5017 3.490
28.5320 3.073
28.5623 3.281
28.5926 3.594
28.6229 2.969
28.6531 3.177
28.6834 2.448
28.7137 2.760
28.7440 3.646
28.7742 3.073
28.8045 2.917
28.8348 2.760
28.8651 2.135
28.8954 2.760
28.9256 3.281
28.9559 3.333
28.9862 2.344
29.0165 2.604
29.0468 2.760
29.0770 2.344
29.1073 2.865
29.1376 3.125
29.1679 2.708
29.1981 3.646
29.2284 2.604
29.2587 2.135
29.2890 2.396
29.3193 3.281
29.3495 2.448
29.3798 2.396
29.4101 2.187
29.4404 2.187
29.4707 2.292
29.5009 2.917
29.5312 2.135
29.5615 2.396
29.5918 2.187
29.6221 2.344
29.6523 2.083
29.6826 1.510
29.7129 2.031
29.7432 1.458
29.7734 1.667
29.8037 1.771
29.8340 2.240
29.8643 1.771
29.8946 1.562
29.9248 1.719
29.9551 2.656
29.9854 2.240
30.0157 1.510
30.0460 1.719
30.0762 2.083
30.1065 2.031
30.1368 1.771
30.1671 1.771
30.1973 1.771
30.2276 1.927
30.2579 1.927
30.2882 1.771
30.3185 2.031
30.3487 1.875
30.3790 1.510
30.4093 1.927
30.4396 2.135
30.4699 1.875
30.5001 1.667
30.5304 2.187
30.5607 2.917
30.5910 2.552
30.6212 2.396
30.6515 1.562
30.6818 2.187
30.7121 1.823
30.7424 2.292
30.7726 1.667
30.8029 2.500
30.8332 1.927
30.8635 2.135
30.8938 2.448
30.9240 2.500
30.9543 2.708
30.9846 1.562
31.0149 2.031
31.0451 2.083
31.0754 2.448
31.1057 2.344
31.1360 2.083
31.1663 3.229
31.1965 2.760
31.2268 2.344
31.2571 3.021
31.2874 3.229
31.3177 3.490
31.3479 4.635
31.3782 4.115
31.4085 4.427
31.4388 4.792
31.4690 6.927
31.4993 8.802
31.5296 8.490
31.5599 8.333
31.5902 8.958
31.6204 10.781
31.6507 9.062
31.6810 9.271
31.7113 9.167
31.7416 6.875
31.7718 6.562
31.8021 5.052
31.8324 5.625
31.8627 4.062
31.8929 4.427
31.9232 4.844
31.9535 4.792
31.9838 3.021
32.0141 3.906
32.0443 3.958
32.0746 3.073
32.1049 4.479
32.1352 3.542
32.1655 3.802
32.1957 3.333
32.2260 3.333
32.2563 4.635
32.2866 2.917
32.3169 2.708
32.3471 3.125
32.3774 3.125
32.4077 2.760
32.4380 2.969
32.4682 3.177
32.4985 3.802
32.5288 3.646
32.5591 3.385
32.5894 3.854
32.6196 4.219
32.6499 5.104
32.6802 6.458
32.7105 9.531
32.7408 15.781
32.7710 20.625
32.8013 16.198
32.8316 13.281
32.8619 10.625
32.8921 5.990
32.9224 4.583
32.9527 3.281
32.9830 3.333
33.0133 3.125
33.0435 3.594
33.0738 3.542
33.1041 4.219
33.1344 2.604
33.1647 3.958
33.1949 2.760
33.2252 3.073
33.2555 3.177
33.2858 2.448
33.3160 3.125
33.3463 2.604
33.3766 3.021
33.4069 3.229
33.4372 2.708
33.4674 2.448
33.4977 2.656
33.5280 3.125
33.5583 2.396
33.5886 1.823
33.6188 2.396
33.6491 1.979
33.6794 2.083
33.7097 2.396
33.7399 2.240
33.7702 1.823
33.8005 1.719
33.8308 1.771
33.8611 2.292
33.8913 2.083
33.9216 2.240
33.9519 1.354
33.9822 2.187
34.0125 2.083
34.0427 2.448
34.0730 2.344
34.1033 3.073
34.1336 3.281
34.1638 3.594
34.1941 3.333
34.2244 4.115
34.2547 4.062
34.2850 3.906
34.3152 3.750
34.3455 4.010
34.3758 3.594
34.4061 2.656
34.4364 2.812
34.4666 3.281
34.4969 3.125
34.5272 3.281
34.5575 3.333
34.5877 3.229
34.6180 3.490
34.6483 3.229
34.6786 3.073
34.7089 4.115
34.7391 4.219
34.7694 4.062
34.7997 3.542
34.8300 4.531
34.8603 4.844
34.8905 5.990
34.9208 6.823
34.9511 7.083
34.9814 8.281
35.0116 6.875
35.0419 6.875
35.0722 5.833
35.1025 5.781
35.1328 3.646
35.1630 4.479
35.1933 3.594
35.2236 3.906
35.2539 3.542
35.2842 3.698
35.3144 3.177
35.3447 2.604
35.3750 3.177
35.4053 2.552
35.4356 2.865
35.4658 2.760
35.4961 2.865
35.5264 3.125
35.5567 3.698
35.5869 2.448
35.6172 3.646
35.6475 3.021
35.6778 2.604
35.7081 3.281
35.7383 3.854
35.7686 2.552
35.7989 2.969
35.8292 3.854
35.8595 4.167
35.8897 4.687
35.9200 5.260
35.9503 6.354
35.9806 6.771
36.0108 8.385
36.0411 7.865
36.0714 7.604
36.1017 8.490
36.1320 8.281
36.1622 7.292
36.1925 5.208
36.2228 5.312
36.2531 5.365
36.2834 5.573
36.3136 4.635
36.3439 3.333
36.3742 3.490
36.4045 2.500
36.4347 2.865
36.4650 1.979
36.4953 2.031
36.5256 1.771
36.5559 1.615
36.5861 2.396
36.6164 1.562
36.6467 1.615
36.6770 2.031
36.7073 1.562
36.7375 1.927
36.7678 1.771
36.7981 1.667
36.8284 1.562
36.8586 1.667
36.8889 2.240
36.9192 2.031
36.9495 1.406
36.9798 1.667
37.0100 1.406
37.0403 1.719
37.0706 1.927
37.1009 2.031
37.1312 1.667
37.1614 2.292
37.1917 2.448
37.2220 1.823
37.2523 2.656
37.2825 2.292
37.3128 3.490
37.3431 4.062
37.3734 3.021
37.4037 3.906
37.4339 3.854
37.4642 2.552
37.4945 3.073
37.5248 3.594
37.5551 2.240
37.5853 2.865
37.6156 3.437
37.6459 2.448
37.6762 2.917
37.7064 2.240
37.7367 2.552
37.7670 2.552
37.7973 1.875
37.8276 2.396
37.8578 2.656
37.8881 1.979
37.9184 1.875
37.9487 1.771
37.9790 1.615
38.0092 1.823
38.0395 1.823
38.0698 1.875
38.1001 1.875
38.1304 2.500
38.1606 1.510
38.1909 2.292
38.2212 1.667
38.2515 1.979
38.2817 2.083
38.3120 2.135
38.3423 1.719
38.3726 1.510
38.4029 1.875
38.4331 1.667
38.4634 1.615
38.4937 1.302
38.5240 1.771
38.5543 1.562
38.5845 1.146
38.6148 1.667
38.6451 2.083
38.6754 2.187
38.7056 2.083
38.7359 1.094
38.7662 1.562
38.7965 1.302
38.8268 0.990
38.8570 1.354
38.8873 1.146
38.9176 1.302
38.9479 1.562
38.9782 1.354
39.0084 1.042
39.0387 1.562
39.0690 0.781
39.0993 1.458
39.1295 1.354
39.1598 1.354
39.1901 1.510
39.2204 1.354
39.2507 1.510
39.2809 1.562
39.3112 0.990
39.3415 1.198
39.3718 1.146
39.4021 1.667
39.4323 1.302
39.4626 1.458
39.4929 1.406
39.5232 1.615
39.5534 1.719
39.5837 1.042
39.6140 0.937
39.6443 1.458
39.6746 1.667
39.7048 1.562
39.7351 0.885
39.7654 1.250
39.7957 1.146
39.8260 1.458
39.8562 1.510
39.8865 1.354
39.9168 0.937
39.9471 1.406
39.9773 0.937
40.0076 0.833
40.0379 1.354
40.0682 1.146
40.0985 1.198
40.1287 1.094
40.1590 1.094
40.1893 0.937
40.2196 1.198
40.2499 1.302
40.2801 0.937
40.3104 1.198
40.3407 1.198
40.3710 1.198
40.4012 0.937
40.4315 1.198
40.4618 1.042
40.4921 1.719
40.5224 1.406
40.5526 1.510
40.5829 1.823
40.6132 1.198
40.6435 1.927
40.6738 1.823
40.7040 2.396
40.7343 2.083
40.7646 1.458
40.7949 1.927
40.8251 2.448
40.8554 2.448
40.8857 2.031
40.9160 2.396
40.9463 2.812
40.9765 2.500
41.0068 2.135
41.0371 2.396
41.0674 2.448
41.0977 1.719
41.1279 2.448
41.1582 1.927
41.1885 1.823
41.2188 1.875
41.2491 1.927
41.2793 2.344
41.3096 1.562
41.3399 1.719
41.3702 1.458
41.4004 2.448
41.4307 1.823
41.4610 1.927
41.4913 2.240
41.5216 1.927
41.5518 2.396
41.5821 1.927
41.6124 2.240
41.6427 2.031
41.6730 2.552
41.7032 2.448
41.7335 2.240
41.7638 1.823
41.7941 1.406
41.8243 1.927
41.8546 2.448
41.8849 2.135
41.9152 1.406
41.9455 1.562
41.9757 1.406
42.0060 1.562
42.0363 1.354
42.0666 1.562
42.0969 1.510
42.1271 0.781
42.1574 1.875
42.1877 1.406
42.2180 1.406
42.2482 1.719
42.2785 1.354
42.3088 1.510
42.3391 1.250
42.3694 1.719
42.3996 1.094
42.4299 1.615
42.4602 0.937
42.4905 1.198
42.5208 1.094
42.5510 1.042
42.5813 1.146
42.6116 1.042
42.6419 1.146
42.6721 1.250
42.7024 1.250
42.7327 1.615
42.7630 1.094
42.7933 1.250
42.8235 0.990
42.8538 0.885
42.8841 0.885
42.9144 1.250
42.9447 0.990
42.9749 1.562
43.0052 1.510
43.0355 1.094
43.0658 1.615
43.0960 1.042
43.1263 1.146
43.1566 0.781
43.1869 1.615
43.2172 1.094
43.2474 0.885
43.2777 1.250
43.3080 1.042
43.3383 1.771
43.3686 1.562
43.3988 1.615
43.4291 1.406
43.4594 0.937
43.4897 1.406
43.5199 1.667
43.5502 1.354
43.5805 1.146
43.6108 1.927
43.6411 1.094
43.6713 1.354
43.7016 1.146
43.7319 1.198
43.7622 1.354
43.7925 1.667
43.8227 0.781
43.8530 0.990
43.8833 1.146
43.9136 1.094
43.9439 1.042
43.9741 1.250
44.0044 1.094
44.0347 0.781
44.0650 1.146
44.0952 1.667
44.1255 0.937
44.1558 1.250
44.1861 0.781
44.2164 1.510
44.2466 1.302
44.2769 1.406
44.3072 1.198
44.3375 1.094
44.3678 0.729
44.3980 1.198
44.4283 0.990
44.4586 1.719
44.4889 0.937
44.5191 0.990
44.5494 1.094
44.5797 1.406
44.6100 1.042
44.6403 1.458
44.6705 1.354
44.7008 1.510
44.7311 1.406
44.7614 1.302
44.7917 1.406
44.8219 1.146
44.8522 1.667
44.8825 1.354
44.9128 1.510
44.9430 1.667
44.9733 0.885
45.0036 0.885
45.0339 1.562
45.0642 1.615
45.0944 1.458
45.1247 1.562
45.1550 1.406
45.1853 1.615
45.2156 1.302
45.2458 1.198
45.2761 1.198
45.3064 1.250
45.3367 1.562
45.3669 1.719
45.3972 1.875
45.4275 1.146
45.4578 1.406
45.4881 1.458
45.5183 1.198
45.5486 1.406
45.5789 1.042
45.6092 1.198
45.6395 1.458
45.6697 1.771
45.7000 0.885
45.7303 1.250
45.7606 1.354
45.7908 1.354
45.8211 0.833
45.8514 0.781
45.8817 1.302
45.9120 1.458
45.9422 1.042
45.9725 1.146
46.0028 1.562
46.0331 1.458
46.0634 1.615
46.0936 0.885
46.1239 1.302
46.1542 1.042
46.1845 1.458
46.2147 1.510
46.2450 1.562
46.2753 1.562
46.3056 1.042
46.3359 1.615
46.3661 1.302
46.3964 1.250
46.4267 1.302
46.4570 1.406
46.4873 0.833
46.5175 1.354
46.5478 1.302
46.5781 1.406
46.6084 1.510
46.6386 1.302
46.6689 0.833
46.6992 1.250
46.7295 1.250
46.7598 1.146
46.7900 1.302
46.8203 1.042
46.8506 1.615
46.8809 1.250
46.9112 1.510
46.9414 1.354
46.9717 1.250
47.0020 1.302
47.0323 1.875
47.0626 1.354
47.0928 1.510
47.1231 1.875
47.1534 1.927
47.1837 1.354
47.2139 1.979
47.2442 1.510
47.2745 1.510
47.3048 1.823
47.3351 1.458
47.3653 1.510
47.3956 2.396
47.4259 1.250
47.4562 1.927
47.4865 1.875
47.5167 1.458
47.5470 1.458
47.5773 2.135
47.6076 1.406
47.6378 1.875
47.6681 1.406
47.6984 1.771
47.7287 1.927
47.7590 1.458
47.7892 1.875
47.8195 1.771
47.8498 1.771
47.8801 1.458
47.9104 1.927
47.9406 1.458
47.9709 1.615
48.0012 1.458
48.0315 1.667
48.0617 1.615
48.0920 1.667
48.1223 1.198
48.1526 1.771
48.1829 1.354
48.2131 1.406
48.2434 1.510
48.2737 1.354
48.3040 1.875
48.3343 1.823
48.3645 1.250
48.3948 1.667
48.4251 2.292
48.4554 2.135
48.4856 1.510
48.5159 2.448
48.5462 1.562
48.5765 2.135
48.6068 1.354
48.6370 2.240
48.6673 1.823
48.6976 1.875
48.7279 2.135
48.7582 2.240
48.7884 2.969
48.8187 2.708
48.8490 2.708
48.8793 3.125
48.9095 2.708
48.9398 2.552
48.9701 2.865
49.0004 2.812
49.0307 3.437
49.0609 2.865
49.0912 2.552
49.1215 2.708
49.1518 2.969
49.1821 2.240
49.2123 2.760
49.2426 2.240
49.2729 2.656
49.3032 2.708
49.3334 2.812
49.3637 2.604
49.3940 2.656
49.4243 3.177
49.4546 2.292
49.4848 2.448
49.5151 2.500
49.5454 3.385
49.5757 3.021
49.6060 2.292
49.6362 2.448
49.6665 2.448
49.6968 2.292
49.7271 2.292
49.7574 2.031
49.7876 2.187
49.8179 2.187
49.8482 2.396
49.8785 2.604
49.9087 2.396
49.9390 1.615
49.9693 1.979
49.9996 1.823
50.0299 2.240
50.0601 2.031
50.0904 2.448
50.1207 1.927
50.1510 1.927
50.1813 1.823
50.2115 2.604
50.2418 1.823
50.2721 1.719
50.3024 2.083
50.3326 1.771
50.3629 2.031
50.3932 1.771
50.4235 1.823
50.4538 1.823
50.4840 2.500
50.5143 1.875
50.5446 1.667
50.5749 2.083
50.6052 1.354
50.6354 2.344
50.6657 1.667
50.6960 2.292
50.7263 1.823
50.7565 1.927
50.7868 1.979
50.8171 2.292
50.8474 2.031
50.8777 2.135
50.9079 2.500
50.9382 1.979
50.9685 2.031
50.9988 2.240
51.0291 2.344
51.0593 1.562
51.0896 2.656
51.1199 1.875
51.1502 2.604
51.1804 3.073
51.2107 2.552
51.2410 2.500
51.2713 2.812
51.3016 2.448
51.3318 2.656
51.3621 3.594
51.3924 1.979
51.4227 2.396
51.4530 3.021
51.4832 2.708
51.5135 2.552
51.5438 3.021
51.5741 2.604
51.6043 2.865
51.6346 2.760
51.6649 1.979
51.6952 2.708
51.7255 1.979
51.7557 2.448
51.7860 2.240
51.8163 2.240
51.8466 2.969
51.8769 2.187
51.9071 1.719
51.9374 2.240
51.9677 1.927
51.9980 1.719
52.0282 2.187
52.0585 2.500
52.0888 2.656
52.1191 1.979
52.1494 2.240
52.1796 1.094
52.2099 2.135
52.2402 1.406
52.2705 1.719
52.3008 1.927
52.3310 2.031
52.3613 1.979
52.3916 1.458
52.4219 1.823
52.4521 2.135
52.4824 1.615
52.5127 1.458
52.5430 1.615
52.5733 1.302
52.6035 1.250
52.6338 1.615
52.6641 1.771
52.6944 1.927
52.7247 1.979
52.7549 1.875
52.7852 1.875
52.8155 1.927
52.8458 2.083
52.8761 1.615
52.9063 1.198
52.9366 2.240
52.9669 1.979
52.9972 1.667
53.0274 1.510
53.0577 2.083
53.0880 2.500
53.1183 2.552
53.1486 1.823
53.1788 1.979
53.2091 1.198
53.2394 1.979
53.2697 1.615
53.3000 1.979
53.3302 1.354
53.3605 1.719
53.3908 1.979
53.4211 1.823
53.4513 1.615
53.4816 1.875
53.5119 1.615
53.5422 1.615
53.5725 2.292
53.6027 1.979
53.6330 1.250
53.6633 1.771
53.6936 1.562
53.7239 1.354
53.7541 0.885
53.7844 0.990
53.8147 1.615
53.8450 1.510
53.8752 1.667
53.9055 1.510
53.9358 1.406
53.9661 1.198
53.9964 1.458
54.0266 1.094
54.0569 1.823
54.0872 1.198
54.1175 1.146
54.1478 1.094
54.1780 1.198
54.2083 1.510
54.2386 0.885
54.2689 1.667
54.2991 1.406
54.3294 1.302
54.3597 1.354
54.3900 1.042
54.4203 0.885
54.4505 1.562
54.4808 1.042
54.5111 1.354
54.5414 0.990
54.5717 1.250
54.6019 1.094
54.6322 1.510
54.6625 1.510
54.6928 1.250
54.7230 0.833
54.7533 1.146
54.7836 1.354
54.8139 1.250
54.8442 1.198
54.8744 1.406
54.9047 0.885
54.9350 0.885
54.9653 1.042
54.9956 0.885
55.0258 1.146
55.0561 1.146
55.0864 0.677
55.1167 1.042
55.1469 1.042
55.1772 0.781
55.2075 1.562
55.2378 1.198
55.2681 1.198
55.2983 1.042
55.3286 0.937
55.3589 1.354
55.3892 1.146
55.4195 1.562
55.4497 1.562
55.4800 1.094
55.5103 1.927
55.5406 1.719
55.5709 1.771
55.6011 1.094
55.6314 1.302
55.6617 1.510
55.6920 1.354
55.7222 1.719
55.7525 1.094
55.7828 1.094
55.8131 1.406
55.8434 1.719
55.8736 1.406
55.9039 1.302
55.9342 1.302
55.9645 0.990
55.9948 1.094
56.0250 1.250
56.0553 1.979
56.0856 1.771
56.1159 2.083
56.1461 2.187
56.1764 1.771
56.2067 2.240
56.2370 2.552
56.2673 2.656
56.2975 3.177
56.3278 3.542
56.3581 3.281
56.3884 3.646
56.4187 3.594
56.4489 4.115
56.4792 3.177
56.5095 2.240
56.5398 2.865
56.5700 2.656
56.6003 2.604
56.6306 2.604
56.6609 2.083
56.6912 2.240
56.7214 1.406
56.7517 1.719
56.7820 2.083
56.8123 1.615
56.8426 2.083
56.8728 1.615
56.9031 1.250
56.9334 1.406
56.9637 1.771
56.9939 1.615
57.0242 1.667
57.0545 1.615
57.0848 1.458
57.1151 1.458
57.1453 1.562
57.1756 1.250
57.2059 1.250
57.2362 1.354
57.2665 1.406
57.2967 1.198
57.3270 1.406
57.3573 1.354
57.3876 1.250
57.4178 0.990
57.4481 1.198
57.4784 1.406
57.5087 1.510
57.5390 1.771
57.5692 1.615
57.5995 1.302
57.6298 1.562
57.6601 1.510
57.6904 1.406
57.7206 1.615
57.7509 1.615
57.7812 1.302
57.8115 1.615
57.8417 1.667
57.8720 1.302
57.9023 1.302
57.9326 1.302
57.9629 1.198
57.9931 0.937
58.0234 1.510
58.0537 1.719
58.0840 1.406
58.1143 1.667
58.1445 1.406
58.1748 1.198
58.2051 0.937
58.2354 1.510
58.2656 1.094
58.2959 1.302
58.3262 1.510
58.3565 1.354
58.3868 1.875
58.4170 1.927
58.4473 1.562
58.4776 1.979
58.5079 1.250
58.5382 2.448
58.5684 3.437
58.5987 5.208
58.6290 6.667
58.6593 4.010
58.6896 3.177
58.7198 2.656
58.7501 3.594
58.7804 3.802
58.8107 3.750
58.8409 2.187
58.8712 2.031
58.9015 1.406
58.9318 0.937
58.9621 1.250
58.9923 1.562
59.0226 1.354
59.0529 1.719
59.0832 1.354
59.1135 1.458
59.1437 1.458
59.1740 1.302
59.2043 1.823
59.2346 1.615
59.2648 1.562
59.2951 1.562
59.3254 1.458
59.3557 1.146
59.3860 1.198
59.4162 1.354
59.4465 1.146
59.4768 1.406
59.5071 1.406
59.5374 1.875
59.5676 0.781
59.5979 1.406
59.6282 1.510
59.6585 1.719
59.6887 1.875
59.7190 1.562
59.7493 1.458
59.7796 1.927
59.8099 2.292
59.8401 2.083
59.8704 1.458
59.9007 1.719
59.9310 2.135
59.9613 2.344
59.9915 1.823
60.0218 2.083
60.0521 2.135
60.0824 2.240
60.1126 1.406
60.1429 2.135
60.1732 2.240
60.2035 2.344
60.2338 2.500
60.2640 2.448
60.2943 2.448
60.3246 1.719
60.3549 2.240
60.3852 1.354
60.4154 1.510
60.4457 1.615
60.4760 1.198
60.5063 1.406
60.5365 1.771
60.5668 1.562
60.5971 1.562
60.6274 1.250
60.6577 0.885
60.6879 1.510
60.7182 1.250
60.7485 1.406
60.7788 1.510
60.8091 0.937
60.8393 0.937
60.8696 1.510
60.8999 1.458
60.9302 1.042
60.9604 1.354
60.9907 1.250
61.0210 1.354
61.0513 1.042
61.0816 0.625
61.1118 1.875
61.1421 1.510
61.1724 1.562
61.2027 1.146
61.2330 1.510
61.2632 1.354
61.2935 1.042
61.3238 1.458
61.3541 1.302
61.3844 0.885
61.4146 1.094
61.4449 0.937
61.4752 1.406
61.5055 0.625
61.5357 1.198
61.5660 1.406
61.5963 1.354
61.6266 1.094
61.6569 1.198
61.6871 0.990
61.7174 1.250
61.7477 1.042
61.7780 0.990
61.8083 1.458
61.8385 1.094
61.8688 1.146
61.8991 1.510
61.9294 1.979
61.9596 1.771
61.9899 1.615
62.0202 1.406
62.0505 1.979
62.0808 1.719
62.1110 1.250
62.1413 1.823
62.1716 1.510
62.2019 1.667
62.2322 1.979
62.2624 1.458
62.2927 2.656
62.3230 1.406
62.3533 2.240
62.3835 2.187
62.4138 1.562
62.4441 1.927
62.4744 1.458
62.5047 1.823
62.5349 1.771
62.5652 1.979
62.5955 2.240
62.6258 2.240
62.6561 1.979
62.6863 1.719
62.7166 2.135
62.7469 2.448
62.7772 1.302
62.8074 1.823
62.8377 1.771
62.8680 1.510
62.8983 1.667
62.9286 1.458
62.9588 1.406
62.9891 1.771
63.0194 1.510
63.0497 1.719
63.0800 1.094
63.1102 1.354
63.1405 1.094
63.1708 1.354
63.2011 1.510
63.2313 1.354
63.2616 1.719
63.2919 1.406
63.3222 1.406
63.3525 0.885
63.3827 1.354
63.4130 0.990
63.4433 1.354
63.4736 1.146
63.5039 1.302
63.5341 1.198
63.5644 1.094
63.5947 1.406
63.6250 0.885
63.6552 0.677
63.6855 0.990
63.7158 1.094
63.7461 1.198
63.7764 1.406
63.8066 0.937
63.8369 1.302
63.8672 1.094
63.8975 0.833
63.9278 0.990
63.9580 0.833
63.9883 1.146
64.0186 0.833
64.0489 0.729
64.0791 1.250
64.1094 1.250
64.1397 1.250
64.1700 1.094
64.2003 0.833
64.2305 1.354
64.2608 0.833
64.2911 1.198
64.3214 1.094
64.3517 0.833
64.3819 1.042
64.4122 0.833
64.4425 0.729
64.4728 0.990
64.5031 0.937
64.5333 0.885
64.5636 1.094
64.5939 0.833
64.6242 0.885
64.6544 0.833
64.6847 0.833
64.7150 1.302
64.7453 0.469
64.7756 0.729
64.8058 0.937
64.8361 1.042
64.8664 0.937
64.8967 0.833
64.9270 0.625
64.9572 0.990
64.9875 0.833
65.0178 1.458
65.0481 0.833
65.0783 1.094
65.1086 1.198
65.1389 0.677
65.1692 0.937
65.1995 1.094
65.2297 1.146
65.2600 0.729
65.2903 1.146
65.3206 1.302
65.3509 0.833
65.3811 0.833
65.4114 0.990
65.4417 0.885
65.4720 0.729
65.5022 0.625
65.5325 0.781
65.5628 0.990
65.5931 1.094
65.6234 0.833
65.6536 0.885
65.6839 0.729
65.7142 1.302
65.7445 0.833
65.7748 0.833
65.8050 1.198
65.8353 1.042
65.8656 1.198
65.8959 1.146
65.9261 0.729
65.9564 0.625
65.9867 0.781
66.0170 0.833
66.0473 1.458
66.0775 1.198
66.1078 1.146
66.1381 1.302
66.1684 1.250
66.1987 1.146
66.2289 1.094
66.2592 1.042
66.2895 1.354
66.3198 1.406
66.3500 0.729
66.3803 1.094
66.4106 1.146
66.4409 1.042
66.4712 0.885
66.5014 0.781
66.5317 0.625
66.5620 0.833
66.5923 1.198
66.6226 0.781
66.6528 1.094
66.6831 0.781
66.7134 0.833
66.7437 0.781
66.7739 0.990
66.8042 0.573
66.8345 1.042
66.8648 1.302
66.8951 0.573
66.9253 0.781
66.9556 0.521
66.9859 0.833
67.0162 1.042
67.0465 1.094
67.0767 0.781
67.1070 0.833
67.1373 0.833
67.1676 0.781
67.1978 0.781
67.2281 1.146
67.2584 0.521
67.2887 0.625
67.3190 0.885
67.3492 0.469
67.3795 0.937
67.4098 0.625
67.4401 1.198
67.4704 1.146
67.5006 1.354
67.5309 0.729
67.5612 1.198
67.5915 0.937
67.6218 1.510
67.6520 1.406
67.6823 1.250
67.7126 1.562
67.7429 1.510
67.7731 1.562
67.8034 0.990
67.8337 1.823
67.8640 1.615
67.8943 1.094
67.9245 1.042
67.9548 1.354
67.9851 1.146
68.0154 1.302
68.0457 1.458
68.0759 1.354
68.1062 0.937
68.1365 0.990
68.1668 1.406
68.1970 1.302
68.2273 0.833
68.2576 1.042
68.2879 1.458
68.3182 0.885
68.3484 0.781
68.3787 1.094
68.4090 0.781
68.4393 0.990
68.4696 0.833
68.4998 1.042
68.5301 0.990
68.5604 0.833
68.5907 0.781
68.6209 1.198
68.6512 1.094
68.6815 1.302
68.7118 1.302
68.7421 1.302
68.7723 1.302
68.8026 1.198
68.8329 1.979
68.8632 1.823
68.8935 2.500
68.9237 1.667
68.9540 1.458
68.9843 1.250
69.0146 1.615
69.0448 1.354
69.0751 1.458
69.1054 1.458
69.1357 1.406
69.1660 0.990
69.1962 1.458
69.2265 1.146
69.2568 1.094
69.2871 1.250
69.3174 1.354
69.3476 0.990
69.3779 0.990
69.4082 0.885
69.4385 1.094
69.4687 0.885
69.4990 1.302
69.5293 1.042
69.5596 0.937
69.5899 0.677
69.6201 0.833
69.6504 0.937
69.6807 0.990
69.7110 1.198
69.7413 0.937
69.7715 1.250
69.8018 0.625
69.8321 0.833
69.8624 1.250
69.8926 0.781
69.9229 1.042
69.9532 0.781
69.9835 1.302
70.0138 0.833
70.0440 0.781
70.0743 1.042
70.1046 1.250
70.1349 0.937
70.1652 0.781
70.1954 0.885
70.2257 1.094
70.2560 1.094
70.2863 0.833
70.3166 0.937
70.3468 0.937
70.3771 1.458
70.4074 0.885
70.4377 1.042
70.4679 1.042
70.4982 0.833
70.5285 1.094
70.5588 0.573
70.5891 1.198
70.6193 0.885
70.6496 0.781
70.6799 0.833
70.7102 0.990
70.7405 0.781
70.7707 0.781
70.8010 0.781
70.8313 0.833
70.8616 0.781
70.8918 0.990
70.9221 1.250
70.9524 1.042
70.9827 0.885
71.0130 1.094
71.0432 0.833
71.0735 0.521
71.1038 0.677
71.1341 0.573
71.1644 0.729
71.1946 0.781
71.2249 0.990
71.2552 0.833
71.2855 0.833
71.3157 0.625
71.3460 0.781
71.3763 0.729
71.4066 0.729
71.4369 1.250
71.4671 0.990
71.4974 0.885
71.5277 1.198
71.5580 0.677
71.5883 1.198
71.6185 0.677
71.6488 0.885
71.6791 0.469
71.7094 0.781
71.7396 0.833
71.7699 0.677
71.8002 0.469
71.8305 0.885
71.8608 0.937
71.8910 0.729
71.9213 0.990
71.9516 0.729
71.9819 0.781
72.0122 0.729
72.0424 0.729
72.0727 0.417
72.1030 0.885
72.1333 0.885
72.1635 0.833
72.1938 0.677
72.2241 0.990
72.2544 1.250
72.2847 0.885
72.3149 0.885
72.3452 0.885
72.3755 1.510
72.4058 0.625
72.4361 0.729
72.4663 1.094
72.4966 1.042
72.5269 0.833
72.5572 0.833
72.5874 0.729
72.6177 0.625
72.6480 0.833
72.6783 0.833
72.7086 0.781
72.7388 1.146
72.7691 1.250
72.7994 0.729
72.8297 1.094
72.8600 0.990
72.8902 1.198
72.9205 0.833
72.9508 1.042
72.9811 1.250
73.0113 1.094
73.0416 1.042
73.0719 0.781
73.1022 1.146
73.1325 0.625
73.1627 1.198
73.1930 0.937
73.2233 1.094
73.2536 1.250
73.2839 1.146
73.3141 1.250
73.3444 0.833
73.3747 1.146
73.4050 0.729
73.4353 0.469
73.4655 0.625
73.4958 0.729
73.5261 0.729
73.5564 0.781
73.5866 0.990
73.6169 0.937
73.6472 0.833
73.6775 0.833
73.7078 0.833
73.7380 0.781
73.7683 0.677
73.7986 0.781
73.8289 0.729
73.8592 1.042
73.8894 0.677
73.9197 0.729
73.9500 0.885
73.9803 0.781
74.0105 0.729
74.0408 0.469
74.0711 0.781
74.1014 0.937
74.1317 0.729
74.1619 0.729
74.1922 0.833
74.2225 0.937
74.2528 0.625
74.2831 0.729
74.3133 0.990
74.3436 0.781
74.3739 0.729
74.4042 0.573
74.4344 0.677
74.4647 0.729
74.4950 0.990
74.5253 0.625
74.5556 0.885
74.5858 0.729
74.6161 0.521
74.6464 0.417
74.6767 1.042
74.7070 0.833
74.7372 0.885
74.7675 0.885
74.7978 0.937
74.8281 0.573
74.8583 0.573
74.8886 0.625
74.9189 0.677
74.9492 1.042
74.9795 0.625
75.0097 0.729
75.0400 0.885
75.0703 0.521
75.1006 0.937
75.1309 0.990
75.1611 0.521
75.1914 0.729
75.2217 0.625
75.2520 1.042
75.2822 0.833
75.3125 1.458
75.3428 0.729
75.3731 1.146
75.4034 0.625
75.4336 0.625
75.4639 0.781
75.4942 0.677
75.5245 0.833
75.5548 0.990
75.5850 0.781
75.6153 1.198
75.6456 0.729
75.6759 0.625
75.7061 0.990
75.7364 0.625
75.7667 0.990
75.7970 0.781
75.8273 0.781
75.8575 0.729
75.8878 0.937
75.9181 0.729
75.9484 0.521
75.9787 0.833
76.0089 0.729
76.0392 0.625
76.0695 0.833
76.0998 0.677
76.1301 0.937
76.1603 0.781
76.1906 0.885
76.2209 1.094
76.2512 0.781
76.2814 0.729
76.3117 0.677
76.3420 0.885
76.3723 0.937
76.4026 0.677
76.4328 1.042
76.4631 0.729
76.4934 0.729
76.5237 0.625
76.5540 0.677
76.5842 0.833
76.6145 0.781
76.6448 0.781
76.6751 0.937
76.7053 0.990
76.7356 0.625
76.7659 0.729
76.7962 0.885
76.8265 0.573
76.8567 0.781
76.8870 0.677
76.9173 1.198
76.9476 0.990
76.9779 0.781
77.0081 0.937
77.0384 1.146
77.0687 0.781
77.0990 0.625
77.1292 0.625
77.1595 0.521
77.1898 0.729
77.2201 0.573
77.2504 0.729
77.2806 0.937
77.3109 0.625
77.3412 1.042
77.3715 0.937
77.4018 0.729
77.4320 0.781
77.4623 0.885
77.4926 0.885
77.5229 0.625
77.5531 0.833
77.5834 0.625
77.6137 0.573
77.6440 0.521
77.6743 1.094
77.7045 0.625
77.7348 0.781
77.7651 0.990
77.7954 0.677
77.8257 0.729
77.8559 1.042
77.8862 0.729
77.9165 0.677
77.9468 0.625
77.9770 0.729
78.0073 0.729
78.0376 0.937
78.0679 0.937
78.0982 0.417
78.1284 0.990
78.1587 0.937
78.1890 1.042
78.2193 0.781
78.2496 0.937
78.2798 0.781
78.3101 0.937
78.3404 0.937
78.3707 0.573
78.4009 0.729
78.4312 0.521
78.4615 1.042
78.4918 0.573
78.5221 1.094
78.5523 0.937
78.5826 0.937
78.6129 0.990
78.6432 0.937
78.6735 0.729
78.7037 0.729
78.7340 0.937
78.7643 0.990
78.7946 0.729
78.8248 1.198
78.8551 1.042
78.8854 0.677
78.9157 1.146
78.9460 0.885
78.9762 0.833
79.0065 0.885
79.0368 1.094
79.0671 0.625
79.0974 0.729
79.1276 0.833
79.1579 0.573
79.1882 1.042
79.2185 0.937
79.2488 0.833
79.2790 0.833
79.3093 0.469
79.3396 0.677
79.3699 0.833
79.4001 1.146
79.4304 0.677
79.4607 0.729
79.4910 0.937
79.5213 0.729
79.5515 1.042
79.5818 0.469
79.6121 1.042
79.6424 0.729
79.6727 1.042
79.7029 0.625
79.7332 0.990
79.7635 1.042
79.7938 0.990
79.8240 0.677
79.8543 0.885
79.8846 0.729
79.9149 0.625
79.9452 0.677
79.9754 0.521
80.0057 0.833
80.0360 0.521
80.0663 0.885
80.0966 0.365
80.1268 0.729
80.1571 1.198
80.1874 1.354
80.2177 1.146
80.2479 0.729
80.2782 0.729
80.3085 0.937
80.3388 1.094
80.3691 0.625
80.3993 0.781
80.4296 0.833
80.4599 0.677
80.4902 0.625
80.5205 1.354
80.5507 0.781
80.5810 0.885
80.6113 0.521
80.6416 0.729
80.6718 0.833
80.7021 1.146
80.7324 0.729
80.7627 0.677
80.7930 0.729
80.8232 0.885
80.8535 0.729
80.8838 1.042
80.9141 0.625
80.9444 0.729
80.9746 0.729
81.0049 0.885
81.0352 0.885
81.0655 0.729
81.0957 1.146
81.1260 0.729
81.1563 0.781
81.1866 1.250
81.2169 0.781
81.2471 0.885
81.2774 0.729
81.3077 0.573
81.3380 0.990
81.3683 0.833
81.3985 0.990
81.4288 0.729
81.4591 1.198
81.4894 0.937
81.5196 1.146
81.5499 0.937
81.5802 0.990
81.6105 0.521
81.6408 1.094
81.6710 0.729
81.7013 0.833
81.7316 0.781
81.7619 0.990
81.7922 1.042
81.8224 0.781
81.8527 0.625
81.8830 1.094
81.9133 0.625
81.9436 0.417
81.9738 0.625
82.0041 0.573
82.0344 0.885
82.0647 0.729
82.0949 0.729
82.1252 0.729
82.1555 0.573
82.1858 0.469
82.2161 1.094
82.2463 0.417
82.2766 0.729
82.3069 1.146
82.3372 0.469
82.3675 0.521
82.3977 0.833
82.4280 0.677
82.4583 0.729
82.4886 0.781
82.5188 0.677
82.5491 0.573
82.5794 0.833
82.6097 1.198
82.6400 0.625
82.6702 0.781
82.7005 0.833
82.7308 0.781
82.7611 0.469
82.7914 0.625
82.8216 0.729
82.8519 0.677
82.8822 0.781
82.9125 0.729
82.9427 0.729
82.9730 0.937
83.0033 0.729
83.0336 0.729
83.0639 0.573
83.0941 0.521
83.1244 0.885
83.1547 0.625
83.1850 0.729
83.2153 0.729
83.2455 0.729
83.2758 0.990
83.3061 0.833
83.3364 0.625
83.3666 0.833
83.3969 0.729
83.4272 1.042
83.4575 1.094
83.4878 0.573
83.5180 0.729
83.5483 1.250
83.5786 1.042
83.6089 0.833
83.6392 1.146
83.6694 0.729
83.6997 0.885
83.7300 0.521
83.7603 0.729
83.7905 0.625
83.8208 0.677
83.8511 0.781
83.8814 0.729
83.9117 0.937
83.9419 0.990
83.9722 0.521
84.0025 1.146
84.0328 0.781
84.0631 1.250
84.0933 0.937
84.1236 0.729
84.1539 0.729
84.1842 1.302
84.2144 0.729
84.2447 0.729
84.2750 0.990
84.3053 0.833
84.3356 0.729
84.3658 0.729
84.3961 0.833
84.4264 0.521
84.4567 1.042
84.4870 0.521
84.5172 0.729
84.5475 0.573
84.5778 0.833
84.6081 1.250
84.6383 0.573
84.6686 0.625
84.6989 0.729
84.7292 0.677
84.7595 1.198
84.7897 0.677
84.8200 0.625
84.8503 1.042
84.8806 0.885
84.9109 0.729
84.9411 0.885
84.9714 1.042
85.0017 0.833
85.0320 1.042
85.0623 0.990
85.0925 0.833
85.1228 0.781
85.1531 0.729
85.1834 0.990
85.2136 0.781
85.2439 0.885
85.2742 0.573
85.3045 0.729
85.3348 0.677
85.3650 0.781
85.3953 0.885
85.4256 0.729
85.4559 0.937
85.4862 0.729
85.5164 0.729
85.5467 0.417
85.5770 0.469
85.6073 1.198
85.6375 0.677
85.6678 0.469
85.6981 0.781
85.7284 0.677
85.7587 0.677
85.7889 0.885
85.8192 0.677
85.8495 0.573
85.8798 0.885
85.9101 1.094
85.9403 0.365
85.9706 0.937
86.0009 1.042
86.0312 0.625
86.0614 0.677
86.0917 0.781
86.1220 0.885
86.1523 1.042
86.1826 0.677
86.2128 0.729
86.2431 0.729
86.2734 0.521
86.3037 0.729
86.3340 0.729
86.3642 0.625
86.3945 0.885
86.4248 1.302
86.4551 1.198
86.4853 0.729
86.5156 0.937
86.5459 0.729
86.5762 0.990
86.6065 0.729
86.6367 0.729
86.6670 1.094
86.6973 0.937
86.7276 0.729
86.7579 0.885
86.7881 0.833
86.8184 0.729
86.8487 0.781
86.8790 1.094
86.9092 1.042
86.9395 0.625
86.9698 0.573
87.0001 0.729
87.0304 0.469
87.0606 0.469
87.0909 0.677
87.1212 0.573
87.1515 0.573
87.1818 0.521
87.2120 0.937
87.2423 1.042
87.2726 0.417
87.3029 0.729
87.3331 0.937
87.3634 0.677
87.3937 0.573
87.4240 0.729
87.4543 0.729
87.4845 0.781
87.5148 0.677
87.5451 0.677
87.5754 0.729
87.6057 0.885
87.6359 0.469
87.6662 0.417
87.6965 0.677
87.7268 0.885
87.7571 0.521
87.7873 0.833
87.8176 0.625
87.8479 1.146
87.8782 0.573
87.9084 0.521
87.9387 0.573
87.9690 0.781
87.9993 0.729
88.0296 0.885
88.0598 0.573
88.0901 0.729
88.1204 0.625
88.1507 0.781
88.1810 0.677
88.2112 0.937
88.2415 0.625
88.2718 0.729
88.3021 0.729
88.3323 0.729
88.3626 0.469
88.3929 0.990
88.4232 0.937
88.4535 1.042
88.4837 0.677
88.5140 0.990
88.5443 0.937
88.5746 0.729
88.6049 0.781
88.6351 0.729
88.6654 0.521
88.6957 0.833
88.7260 0.781
88.7562 0.729
88.7865 0.729
88.8168 0.781
88.8471 1.042
88.8774 0.990
88.9076 0.729
88.9379 1.094
88.9682 0.625
88.9985 1.094
89.0288 0.937
89.0590 0.469
89.0893 0.781
89.1196 0.677
89.1499 0.729
89.1801 0.729
89.2104 0.521
89.2407 0.833
89.2710 0.990
89.3013 0.937
89.3315 0.885
89.3618 0.781
89.3921 0.573
89.4224 0.729
89.4527 0.677
89.4829 0.781
89.5132 0.729
89.5435 0.625
89.5738 1.146
89.6040 0.937
89.6343 0.781
89.6646 0.885
89.6949 0.729
89.7252 0.625
89.7554 0.729
89.7857 0.573
89.8160 0.833
89.8463 0.573
89.8766 0.885
89.9068 1.042
89.9371 1.042
89.9674 0.625
89.9977 0.573
90.0279 0.417
90.0582 0.781
90.0885 1.302
90.1188 0.625
90.1491 0.573
90.1793 0.417
90.2096 0.625
90.2399 0.469
90.2702 0.729
90.3005 0.833
90.3307 0.833
90.3610 0.729
90.3913 0.625
90.4216 0.365
90.4518 0.833
90.4821 0.729
90.5124 0.729
90.5427 0.781
90.5730 0.729
90.6032 0.885
90.6335 0.781
90.6638 0.885
90.6941 0.937
90.7244 0.729
90.7546 0.781
90.7849 0.937
90.8152 0.885
90.8455 0.573
90.8758 0.729
90.9060 0.885
90.9363 0.677
90.9666 0.729
90.9969 0.833
91.0271 0.677
91.0574 0.833
91.0877 0.573
91.1180 0.937
91.1483 0.781
91.1785 0.937
91.2088 1.094
91.2391 0.729
91.2694 0.885
91.2997 0.990
91.3299 0.729
91.3602 0.677
91.3905 0.625
91.4208 0.885
91.4510 0.417
91.4813 0.781
91.5116 0.573
91.5419 0.573
91.5722 1.146
91.6024 0.521
91.6327 0.573
91.6630 0.833
91.6933 0.469
91.7236 0.781
91.7538 0.833
91.7841 0.781
91.8144 0.729
91.8447 0.365
91.8749 0.417
91.9052 1.042
91.9355 0.885
91.9658 0.260
91.9961 0.833
92.0263 0.833
92.0566 0.573
92.0869 0.885
92.1172 0.573
92.1475 0.729
92.1777 0.521
92.2080 0.677
92.2383 0.937
92.2686 0.469
92.2988 0.573
92.3291 0.625
92.3594 0.937
92.3897 0.625
92.4200 0.677
92.4502 0.937
92.4805 0.625
92.5108 0.833
92.5411 0.573
92.5714 0.729
92.6016 1.094
92.6319 0.781
92.6622 1.250
92.6925 0.937
92.7227 0.937
92.7530 0.677
92.7833 0.729
92.8136 0.729
92.8439 0.937
92.8741 0.573
92.9044 0.625
92.9347 0.885
92.9650 0.677
92.9953 0.625
93.0255 0.729
93.0558 0.729
93.0861 0.625
93.1164 0.521
93.1466 0.990
93.1769 0.677
93.2072 0.625
93.2375 0.625
93.2678 0.833
93.2980 0.729
93.3283 0.990
93.3586 0.885
93.3889 0.417
93.4192 0.729
93.4494 0.729
93.4797 0.781
93.5100 0.990
93.5403 0.781
93.5706 0.833
93.6008 0.573
93.6311 0.937
93.6614 0.729
93.6917 0.677
93.7219 1.042
93.7522 0.781
93.7825 0.833
93.8128 0.833
93.8431 0.781
93.8733 0.469
93.9036 1.042
93.9339 0.573
93.9642 1.146
93.9945 1.146
94.0247 0.729
94.0550 0.937
94.0853 0.729
94.1156 0.729
94.1458 1.146
94.1761 0.625
94.2064 0.729
94.2367 0.885
94.2670 0.729
94.2972 0.625
94.3275 0.417
94.3578 0.885
94.3881 0.417
94.4184 0.781
94.4486 0.365
94.4789 1.042
94.5092 0.521
94.5395 0.729
94.5697 0.469
94.6000 0.937
94.6303 0.781
94.6606 0.885
94.6909 1.198
94.7211 0.833
94.7514 0.781
94.7817 0.781
94.8120 1.042
94.8423 0.885
94.8725 1.146
94.9028 0.729
94.9331 1.198
94.9634 0.990
94.9936 0.885
95.0239 1.094
95.0542 1.458
95.0845 0.885
95.1148 0.417
95.1450 0.885
95.1753 0.521
95.2056 0.990
95.2359 0.729
95.2662 1.250
95.2964 0.677
95.3267 0.990
95.3570 0.677
95.3873 0.990
95.4175 0.677
95.4478 0.625
95.4781 1.042
95.5084 0.885
95.5387 0.990
95.5689 0.833
95.5992 0.937
95.6295 1.146
95.6598 0.833
95.6901 0.729
95.7203 1.042
95.7506 0.521
95.7809 0.937
95.8112 0.573
95.8414 0.573
95.8717 0.781
95.9020 1.354
95.9323 0.573
95.9626 0.885
95.9928 0.833
96.0231 0.937
96.0534 0.937
96.0837 0.937
96.1140 0.469
96.1442 0.729
96.1745 1.094
96.2048 0.990
96.2351 0.625
96.2653 0.729
96.2956 0.729
96.3259 0.833
96.3562 0.677
96.3865 0.990
96.4167 1.042
96.4470 0.781
96.4773 0.781
96.5076 0.677
96.5379 0.573
96.5681 0.729
96.5984 0.521
96.6287 0.781
96.6590 0.729
96.6893 0.781
96.7195 0.833
96.7498 0.521
96.7801 1.042
96.8104 0.833
96.8406 1.094
96.8709 0.469
96.9012 0.729
96.9315 0.833
96.9618 1.458
96.9920 1.250
97.0223 0.677
97.0526 0.729
97.0829 0.521
97.1132 1.094
97.1434 0.833
97.1737 0.833
97.2040 1.094
97.2343 0.573
97.2645 0.885
97.2948 0.885
97.3251 0.885
97.3554 0.781
97.3857 0.781
97.4159 0.729
97.4462 0.729
97.4765 0.521
97.5068 0.677
97.5371 0.677
97.5673 0.625
97.5976 1.042
97.6279 0.677
97.6582 0.573
97.6884 0.781
97.7187 0.625
97.7490 0.937
97.7793 0.781
97.8096 0.885
97.8398 1.250
97.8701 0.781
97.9004 0.833
97.9307 0.677
97.9610 0.729
97.9912 0.885
98.0215 0.677
98.0518 0.625
98.0821 0.573
98.1123 0.781
98.1426 0.625
98.1729 0.833
98.2032 0.677
98.2335 0.781
98.2637 0.625
98.2940 0.625
98.3243 0.677
98.3546 0.885
98.3849 0.625
98.4151 0.729
98.4454 0.885
98.4757 0.833
98.5060 0.990
98.5362 0.521
98.5665 0.677
98.5968 0.729
98.6271 0.625
98.6574 0.937
98.6876 0.781
98.7179 0.729
98.7482 1.042
98.7785 0.677
98.8088 0.365
98.8390 0.625
98.8693 0.781
98.8996 0.677
98.9299 0.521
98.9601 0.573
98.9904 1.146
99.0207 0.677
99.0510 0.781
99.0813 0.573
99.1115 0.469
99.1418 0.573
99.1721 0.781
99.2024 1.042
99.2327 0.833
99.2629 0.781
99.2932 0.365
99.3235 0.729
99.3538 0.885
99.3841 0.417
99.4143 0.677
99.4446 0.260
99.4749 0.521
99.5052 0.729
99.5354 0.781
99.5657 0.781
99.5960 0.781
99.6263 0.833
99.6566 0.625
99.6868 0.990
99.7171 1.042
99.7474 0.677
99.7777 0.625
99.8080 0.781
99.8382 0.625
99.8685 0.729
99.8988 0.990
99.9291 0.885
99.9593 0.833
99.9896 0.469
100.0199 0.677
100.0502 0.833
100.0805 0.781
100.1107 0.260
100.1410 0.677
100.1713 1.250
100.2016 0.573
100.2319 0.781
100.2621 0.625
100.2924 0.833
100.3227 0.625
100.3530 0.573
100.3832 0.729
100.4135 0.677
100.4438 0.781
100.4741 0.573
100.5044 0.781
100.5346 0.573
100.5649 0.677
100.5952 0.625
100.6255 0.990
100.6558 0.677
100.6860 0.937
100.7163 0.417
100.7466 0.885
100.7769 0.833
100.8071 0.729
100.8374 0.677
100.8677 0.573
100.8980 0.781
100.9283 1.094
100.9585 1.146
100.9888 0.833
101.0191 0.677
101.0494 0.625
101.0797 0.729
101.1099 1.094
101.1402 0.781
101.1705 0.833
101.2008 1.146
101.2310 0.469
101.2613 0.417
101.2916 0.781
101.3219 0.781
101.3522 0.417
101.3824 0.781
101.4127 0.937
101.4430 0.625
101.4733 0.677
101.5036 0.625
101.5338 0.833
101.5641 0.833
101.5944 0.573
101.6247 0.885
101.6549 0.781
101.6852 0.833
101.7155 0.781
101.7458 0.677
101.7761 1.406
101.8063 0.729
101.8366 0.885
101.8669 0.990
101.8972 0.729
101.9275 0.885
101.9577 0.573
101.9880 0.833
102.0183 0.990
102.0486 0.781
102.0788 1.094
102.1091 0.781
102.1394 0.625
102.1697 1.354
102.2000 0.677
102.2302 0.521
102.2605 0.625
102.2908 0.729
102.3211 0.833
102.3514 1.250
102.3816 0.573
102.4119 1.146
102.4422 0.729
102.4725 0.990
102.5028 0.885
102.5330 1.042
102.5633 0.625
102.5936 0.521
102.6239 0.990
102.6541 1.042
102.6844 0.990
102.7147 0.990
102.7450 0.833
102.7753 0.677
102.8055 1.146
102.8358 0.833
102.8661 0.781
102.8964 0.937
102.9267 1.354
102.9569 0.937
102.9872 0.781
103.0175 0.781
103.0478 0.677
103.0780 0.573
103.1083 0.833
103.1386 0.573
103.1689 0.677
103.1992 0.937
103.2294 0.677
103.2597 0.417
103.2900 0.833
103.3203 0.781
103.3506 0.729
103.3808 0.990
103.4111 0.885
103.4414 0.469
103.4717 0.833
103.5019 1.146
103.5322 0.833
103.5625 0.729
103.5928 0.677
103.6231 0.781
103.6533 0.677
103.6836 1.042
103.7139 1.302
103.7442 0.990
103.7745 0.729
103.8047 1.094
103.8350 0.885
103.8653 0.521
103.8956 0.625
103.9258 0.937
103.9561 0.833
103.9864 0.729
104.0167 1.198
104.0470 0.833
104.0772 0.781
104.1075 0.885
104.1378 0.625
104.1681 0.990
104.1984 0.833
104.2286 0.885
104.2589 0.781
104.2892 0.677
104.3195 0.781
104.3497 0.990
104.3800 0.885
104.4103 0.573
104.4406 0.833
104.4709 1.198
104.5011 0.833
104.5314 0.260
104.5617 0.625
104.5920 0.781
104.6223 0.729
104.6525 0.937
104.6828 0.781
104.7131 0.521
104.7434 0.937
104.7736 1.146
104.8039 0.417
104.8342 0.833
104.8645 0.260
104.8948 0.729
104.9250 0.885
104.9553 0.833
104.9856 0.677
105.0159 0.833
105.0462 0.573
105.0764 0.729
105.1067 0.833
105.1370 0.521
105.1673 0.937
105.1975 1.094
105.2278 0.781
105.2581 0.833
105.2884 0.833
105.3187 0.677
105.3489 0.729
105.3792 0.625
105.4095 0.833
105.4398 1.042
105.4701 0.833
105.5003 0.729
105.5306 0.937
105.5609 0.833
105.5912 0.625
105.6215 0.677
105.6517 0.729
105.6820 0.729
105.7123 0.729
105.7426 0.990
105.7728 0.677
105.8031 1.094
105.8334 0.885
105.8637 0.312
105.8940 0.833
105.9242 0.521
105.9545 0.885
105.9848 0.833
106.0151 0.885
106.0454 0.885
106.0756 0.573
106.1059 0.729
106.1362 0.729
106.1665 0.885
106.1967 0.573
106.2270 0.885
106.2573 0.937
106.2876 0.573
106.3179 0.573
106.3481 0.937
106.3784 0.885
106.4087 0.312
106.4390 1.354
106.4693 0.677
106.4995 0.625
106.5298 0.833
106.5601 0.729
106.5904 0.781
106.6206 0.677
106.6509 0.833
106.6812 0.885
106.7115 0.469
106.7418 0.625
106.7720 0.729
106.8023 0.833
106.8326 0.781
106.8629 0.312
106.8932 0.781
106.9234 0.417
106.9537 0.885
106.9840 1.198
107.0143 0.677
107.0445 0.937
107.0748 0.625
107.1051 0.729
107.1354 0.885
107.1657 0.937
107.1959 0.885
107.2262 0.625
107.2565 0.729
107.2868 0.573
107.3171 1.042
107.3473 0.573
107.3776 0.885
107.4079 0.625
107.4382 0.885
107.4684 0.885
107.4987 0.729
107.5290 1.146
107.5593 0.990
107.5896 0.885
107.6198 1.146
107.6501 0.885
107.6804 1.302
107.7107 0.833
107.7410 0.990
107.7712 0.781
107.8015 0.833
107.8318 0.885
107.8621 1.042
107.8923 0.937
107.9226 0.729
107.9529 0.573
107.9832 0.885
108.0135 0.521
108.0437 0.781
108.0740 0.990
108.1043 1.094
108.1346 0.469
108.1649 0.625
108.1951 0.781
108.2254 0.677
108.2557 0.729
108.2860 0.885
108.3163 0.469
108.3465 0.469
108.3768 0.625
108.4071 0.937
108.4374 0.885
108.4676 0.625
108.4979 0.885
108.5282 0.312
108.5585 0.937
108.5888 0.937
108.6190 0.521
108.6493 1.250
108.6796 0.833
108.7099 1.094
108.7402 1.302
108.7704 0.833
108.8007 1.042
108.8310 0.885
108.8613 0.833
108.8915 0.781
108.9218 0.781
108.9521 0.521
108.9824 0.781
109.0127 1.198
109.0429 0.885
109.0732 0.885
109.1035 0.937
109.1338 0.833
109.1641 0.937
109.1943 0.312
109.2246 1.042
109.2549 0.885
109.2852 0.729
109.3154 0.677
109.3457 0.937
109.3760 0.937
109.4063 0.729
109.4366 1.042
109.4668 0.573
109.4971 0.781
109.5274 0.885
109.5577 0.625
109.5880 1.146
109.6182 0.729
109.6485 0.885
109.6788 0.521
109.7091 0.625
109.7393 0.885
109.7696 0.937
109.7999 0.885
109.8302 1.094
109.8605 0.937
109.8907 0.885
109.9210 0.573
109.9513 0.677
109.9816 0.729
110.0119 0.573
110.0421 0.677
110.0724 1.042
110.1027 0.781
110.1330 0.677
110.1632 0.573
110.1935 0.990
110.2238 1.250
110.2541 0.833
110.2844 0.990
110.3146 0.990
110.3449 0.781
110.3752 0.781
110.4055 0.990
110.4358 0.937
110.4660 0.885
110.4963 0.833
110.5266 0.781
110.5569 1.146
110.5871 0.729
110.6174 0.729
110.6477 0.937
110.6780 0.885
110.7083 0.729
110.7385 0.573
110.7688 0.833
110.7991 0.573
110.8294 0.833
110.8597 0.833
110.8899 0.937
110.9202 0.937
110.9505 0.521
110.9808 0.573
111.0110 0.677
111.0413 0.990
111.0716 0.625
111.1019 0.885
111.1322 0.937
111.1624 0.833
111.1927 0.625
111.2230 0.885
111.2533 0.885
111.2836 0.937
111.3138 0.937
111.3441 0.885
111.3744 0.781
111.4047 0.573
111.4350 0.729
111.4652 0.729
111.4955 1.146
111.5258 0.573
111.5561 0.573
111.5863 0.885
111.6166 0.573
111.6469 0.312
111.6772 0.781
111.7075 0.677
111.7377 0.781
111.7680 0.833
111.7983 0.990
111.8286 0.469
111.8589 0.990
111.8891 0.573
111.9194 0.885
111.9497 0.469
111.9800 0.885
112.0102 0.937
112.0405 0.521
112.0708 0.781
112.1011 0.990
112.1314 0.469
112.1616 0.417
112.1919 0.625
112.2222 0.729
112.2525 0.521
112.2828 0.312
112.3130 0.573
112.3433 0.469
112.3736 0.573
112.4039 0.625
112.4341 0.990
112.4644 0.781
112.4947 0.833
112.5250 1.198
112.5553 1.198
112.5855 0.677
112.6158 0.625
112.6461 0.885
112.6764 0.365
112.7067 1.094
112.7369 0.677
112.7672 0.937
112.7975 0.937
112.8278 0.625
112.8580 0.469
112.8883 0.573
112.9186 0.729
112.9489 0.312
112.9792 0.417
113.0094 0.729
113.0397 0.729
113.0700 0.677
113.1003 0.885
113.1306 0.573
113.1608 0.625
113.1911 0.781
113.2214 0.573
113.2517 0.677
113.2819 0.573
113.3122 0.833
113.3425 0.677
113.3728 0.677
113.4031 0.937
113.4333 1.198
113.4636 0.677
113.4939 0.990
113.5242 0.573
113.5545 0.625
113.5847 0.625
113.6150 0.417
113.6453 0.885
113.6756 0.833
113.7058 0.781
113.7361 0.885
113.7664 0.625
113.7967 0.729
113.8270 0.729
113.8572 0.625
113.8875 0.625
113.9178 0.781
113.9481 0.677
113.9784 0.937
114.0086 0.833
114.0389 0.729
114.0692 0.885
114.0995 0.573
114.1298 0.677
114.1600 0.990
114.1903 0.885
114.2206 0.833
114.2509 0.677
114.2811 0.833
114.3114 1.146
114.3417 0.781
114.3720 0.365
114.4023 0.729
114.4325 0.573
114.4628 0.885
114.4931 0.573
114.5234 0.729
114.5537 0.729
114.5839 0.677
114.6142 0.729
114.6445 0.625
114.6748 0.573
114.7050 0.625
114.7353 0.990
114.7656 1.094
114.7959 0.573
114.8262 0.781
114.8564 0.625
114.8867 0.625
114.9170 0.990
114.9473 0.833
114.9776 1.042
115.0078 0.781
115.0381 0.781
115.0684 1.042
115.0987 1.094
115.1289 0.469
115.1592 0.885
115.1895 0.781
115.2198 0.677
115.2501 0.365
115.2803 0.625
115.3106 0.729
115.3409 0.833
115.3712 1.146
115.4015 1.250
115.4317 0.781
115.4620 0.781
115.4923 0.729
115.5226 0.937
115.5528 0.937
115.5831 0.781
115.6134 0.677
115.6437 0.781
115.6740 1.094
115.7042 1.250
115.7345 0.885
115.7648 0.885
115.7951 0.833
115.8254 0.677
115.8556 1.094
115.8859 0.521
115.9162 0.885
115.9465 1.146
115.9767 0.885
116.0070 0.833
116.0373 0.937
116.0676 0.469
116.0979 0.990
116.1281 0.937
116.1584 0.833
116.1887 1.094
116.2190 1.042
116.2493 1.094
116.2795 1.198
116.3098 1.302
116.3401 1.042
116.3704 0.833
116.4006 1.302
116.4309 0.781
116.4612 0.885
116.4915 1.250
116.5218 0.990
116.5520 0.781
116.5823 1.146
116.6126 0.729
116.6429 0.937
116.6732 0.885
116.7034 0.677
116.7337 0.833
116.7640 1.042
116.7943 0.573
116.8245 0.990
116.8548 0.677
116.8851 0.833
116.9154 1.042
116.9457 0.833
116.9759 0.833
117.0062 0.990
117.0365 0.937
117.0668 0.781
117.0971 0.729
117.1273 0.833
117.1576 0.885
117.1879 0.677
117.2182 0.937
117.2485 0.990
117.2787 0.677
117.3090 0.729
117.3393 0.729
117.3696 0.885
117.3998 1.198
117.4301 0.781
117.4604 0.521
117.4907 0.833
117.5210 1.198
117.5512 0.781
117.5815 0.781
117.6118 0.781
117.6421 0.781
117.6724 0.990
117.7026 0.885
117.7329 0.833
117.7632 0.677
117.7935 1.042
117.8237 0.833
117.8540 0.937
117.8843 1.094
117.9146 0.625
117.9449 0.833
117.9751 0.677
118.0054 0.885
118.0357 0.781
118.0660 0.937
118.0963 1.250
118.1265 1.250
118.1568 0.833
118.1871 0.677
118.2174 1.094
118.2476 0.521
118.2779 1.302
118.3082 1.042
118.3385 0.521
118.3688 0.781
118.3990 0.677
118.4293 0.417
118.4596 1.146
118.4899 0.885
118.5202 0.521
118.5504 0.885
118.5807 0.677
118.6110 1.198
118.6413 0.885
118.6715 1.094
118.7018 0.885
118.7321 0.625
118.7624 0.729
118.7927 0.833
118.8229 0.729
118.8532 1.250
118.8835 0.573
118.9138 0.833
118.9441 0.885
118.9743 0.781
119.0046 0.625
119.0349 0.729
119.0652 1.094
119.0954 0.781
119.1257 0.990
119.1560 0.885
119.1863 0.417
119.2166 0.729
119.2468 1.146
119.2771 1.094
119.3074 0.833
119.3377 0.677
119.3680 0.885
119.3982 0.937
119.4285 0.781
119.4588 0.625
119.4891 0.885
119.5193 0.573
119.5496 0.990
119.5799 0.677
119.6102 0.521
119.6405 1.094
119.6707 1.042
119.7010 0.625
119.7313 0.573
119.7616 0.677
119.7919 0.885
119.8221 0.625
119.8524 0.781
119.8827 0.729
119.9130 0.885
119.9433 0.625
119.9735 0.469
120.0038 0.781
