'Id: "" Comment: "" Operator: "Lab Manager" Anode: "Cu" Scantype: "Locked Coupled" TimePerStep: "19.2" X: "9999" Y: "9999" Z: "9999" 
10.0015 3.385
10.0318 3.177
10.0620 4.427
10.0923 3.490
10.1226 3.021
10.1529 3.698
10.1832 3.542
10.2134 2.969
10.2437 4.271
10.2740 3.854
10.3043 3.854
10.3346 4.531
10.3648 4.167
10.3951 4.271
10.4254 3.646
10.4557 5.052
10.4859 3.854
10.5162 3.333
10.5465 3.646
10.5768 4.167
10.6071 4.062
10.6373 3.385
10.6676 3.281
10.6979 3.125
10.7282 5.052
10.7585 3.646
10.7887 4.583
10.8190 3.802
10.8493 3.229
10.8796 3.854
10.9098 4.167
10.9401 4.427
10.9704 3.906
11.0007 3.021
11.0310 3.281
11.0612 3.542
11.0915 3.437
11.1218 3.854
11.1521 3.958
11.1824 3.958
11.2126 3.437
11.2429 4.010
11.2732 3.594
11.3035 4.323
11.3337 4.010
11.3640 4.062
11.3943 4.062
11.4246 4.219
11.4549 3.958
11.4851 3.750
11.5154 3.385
11.5457 3.854
11.5760 3.542
11.6063 4.375
11.6365 3.854
11.6668 3.490
11.6971 3.490
11.7274 4.115
11.7577 2.865
11.7879 2.917
11.8182 3.437
11.8485 4.010
11.8788 3.594
11.9090 3.437
11.9393 3.385
11.9696 3.542
11.9999 3.021
12.0302 2.552
12.0604 3.750
12.0907 3.646
12.1210 3.437
12.1513 4.010
12.1816 3.177
12.2118 3.281
12.2421 3.490
12.2724 3.125
12.3027 4.062
12.3329 4.740
12.3632 3.229
12.3935 2.812
12.4238 3.437
12.4541 3.594
12.4843 4.062
12.5146 3.177
12.5449 3.646
12.5752 3.802
12.6055 3.750
12.6357 3.073
12.6660 3.646
12.6963 4.323
12.7266 3.385
12.7568 3.698
12.7871 3.281
12.8174 3.021
12.8477 4.062
12.8780 3.906
12.9082 3.542
12.9385 3.333
12.9688 2.500
12.9991 3.281
13.0294 2.812
13.0596 2.917
13.0899 3.698
13.1202 3.333
13.1505 3.073
13.1807 3.594
13.2110 3.490
13.2413 3.594
13.2716 3.073
13.3019 3.594
13.3321 3.281
13.3624 2.760
13.3927 3.854
13.4230 1.875
13.4533 2.604
13.4835 4.271
13.5138 3.490
13.5441 3.646
13.5744 3.177
13.6046 2.865
13.6349 3.542
13.6652 4.375
13.6955 3.177
13.7258 2.760
13.7560 4.010
13.7863 2.812
13.8166 3.021
13.8469 4.271
13.8772 3.750
13.9074 3.281
13.9377 3.177
13.9680 3.542
13.9983 3.229
14.0285 4.479
14.0588 2.969
14.0891 3.594
14.1194 3.385
14.1497 3.125
14.1799 3.021
14.2102 2.448
14.2405 3.073
14.2708 3.281
14.3011 3.437
14.3313 3.333
14.3616 2.760
14.3919 3.437
14.4222 3.385
14.4524 3.854
14.4827 3.073
14.5130 3.177
14.5433 3.177
14.5736 3.177
14.6038 2.552
14.6341 3.594
14.6644 3.437
14.6947 3.125
14.7250 3.073
14.7552 2.917
14.7855 3.021
14.8158 3.229
14.8461 2.865
14.8764 2.656
14.9066 2.656
14.9369 3.021
14.9672 3.646
14.9975 3.125
15.0277 2.917
15.0580 3.490
15.0883 2.708
15.1186 3.281
15.1489 2.187
15.1791 3.646
15.2094 2.812
15.2397 2.969
15.2700 3.125
15.3003 3.281
15.3305 2.760
15.3608 3.594
15.3911 3.281
15.4214 2.917
15.4516 2.344
15.4819 2.292
15.5122 2.969
15.5425 3.594
15.5728 2.917
15.6030 2.500
15.6333 2.760
15.6636 3.229
15.6939 2.969
15.7242 3.073
15.7544 2.812
15.7847 3.073
15.8150 3.125
15.8453 2.031
15.8755 3.281
15.9058 3.177
15.9361 2.500
15.9664 3.281
15.9967 3.021
16.0269 3.542
16.0572 2.969
16.0875 3.490
16.1178 2.969
16.1481 3.437
16.1783 3.437
16.2086 2.500
16.2389 2.812
16.2692 3.437
16.2994 3.125
16.3297 3.177
16.3600 3.333
16.3903 3.437
16.4206 3.437
16.4508 3.437
16.4811 2.917
16.5114 3.906
16.5417 3.333
16.5720 2.969
16.6022 2.760
16.6325 3.021
16.6628 3.646
16.6931 2.969
16.7233 3.229
16.7536 2.865
16.7839 3.281
16.8142 3.490
16.8445 3.125
16.8747 2.917
16.9050 2.760
16.9353 2.604
16.9656 3.073
16.9959 4.062
17.0261 2.969
17.0564 3.594
17.0867 2.917
17.1170 2.240
17.1472 3.802
17.1775 3.125
17.2078 3.490
17.2381 3.021
17.2684 3.073
17.2986 3.385
17.3289 2.344
17.3592 3.698
17.3895 3.073
17.4198 3.281
17.4500 2.708
17.4803 2.969
17.5106 2.812
17.5409 2.656
17.5712 2.865
17.6014 2.708
17.6317 2.448
17.6620 3.542
17.6923 3.021
17.7225 3.229
17.7528 2.760
17.7831 3.385
17.8134 2.656
17.8437 3.385
17.8739 3.177
17.9042 2.917
17.9345 3.437
17.9648 3.125
17.9951 3.125
18.0253 3.229
18.0556 2.396
18.0859 1.927
18.1162 3.073
18.1464 3.177
18.1767 2.760
18.2070 4.010
18.2373 2.865
18.2676 3.021
18.2978 3.229
18.3281 2.760
18.3584 2.865
18.3887 3.229
18.4190 3.073
18.4492 2.448
18.4795 2.135
18.5098 3.021
18.5401 2.969
18.5703 3.490
18.6006 2.865
18.6309 2.187
18.6612 2.500
18.6915 2.708
18.7217 2.604
18.7520 2.917
18.7823 3.177
18.8126 3.281
18.8429 2.917
18.8731 2.969
18.9034 3.333
18.9337 3.125
18.9640 2.656
18.9942 1.719
19.0245 2.604
19.0548 3.229
19.0851 3.125
19.1154 2.656
19.1456 2.240
19.1759 3.125
19.2062 2.448
19.2365 3.333
19.2668 3.125
19.2970 2.760
19.3273 2.344
19.3576 3.646
19.3879 2.604
19.4181 3.021
19.4484 3.594
19.4787 3.021
19.5090 2.396
19.5393 1.927
19.5695 3.177
19.5998 3.698
19.6301 2.812
19.6604 2.604
19.6907 2.865
19.7209 2.865
19.7512 2.969
19.7815 3.490
19.8118 2.708
19.8420 2.240
19.8723 3.802
19.9026 2.083
19.9329 2.604
19.9632 3.229
19.9934 2.917
20.0237 2.500
20.0540 1.927
20.0843 2.500
20.1146 3.229
20.1448 1.771
20.1751 3.021
20.2054 2.760
20.2357 2.604
20.2659 2.552
20.2962 2.917
20.3265 2.656
20.3568 2.708
20.3871 2.917
20.4173 2.604
20.4476 2.135
20.4779 2.760
20.5082 2.344
20.5385 2.187
20.5687 2.083
20.5990 3.542
20.6293 2.969
20.6596 2.448
20.6899 2.812
20.7201 2.865
20.7504 2.812
20.7807 2.187
20.8110 2.760
20.8412 3.073
20.8715 4.062
20.9018 2.969
20.9321 2.500
20.9624 3.125
20.9926 2.812
21.0229 3.229
21.0532 2.917
21.0835 2.292
21.1138 2.708
21.1440 2.604
21.1743 2.083
21.2046 2.969
21.2349 2.500
21.2651 2.031
21.2954 2.552
21.3257 2.552
21.3560 2.865
21.3863 3.333
21.4165 2.865
21.4468 2.344
21.4771 2.656
21.5074 2.708
21.5377 2.760
21.5679 3.073
21.5982 3.177
21.6285 2.344
21.6588 3.802
21.6890 2.240
21.7193 3.073
21.7496 2.448
21.7799 2.448
21.8102 2.500
21.8404 2.656
21.8707 2.187
21.9010 2.135
21.9313 2.396
21.9616 2.917
21.9918 3.073
22.0221 2.396
22.0524 2.604
22.0827 2.292
22.1129 1.875
22.1432 2.552
22.1735 1.667
22.2038 2.135
22.2341 2.552
22.2643 2.396
22.2946 2.135
22.3249 2.656
22.3552 2.708
22.3855 2.656
22.4157 2.812
22.4460 2.969
22.4763 2.240
22.5066 3.385
22.5368 2.344
22.5671 2.031
22.5974 2.500
22.6277 2.708
22.6580 1.562
22.6882 3.021
22.7185 1.615
22.7488 2.344
22.7791 1.927
22.8094 2.552
22.8396 2.812
22.8699 2.396
22.9002 3.073
22.9305 2.969
22.9607 2.344
22.9910 2.604
23.0213 2.917
23.0516 2.396
23.0819 2.760
23.1121 2.656
23.1424 2.240
23.1727 2.865
23.2030 3.333
23.2333 1.979
23.2635 2.187
23.2938 2.448
23.3241 2.135
23.3544 2.604
23.3846 2.552
23.4149 2.240
23.4452 2.604
23.4755 2.917
23.5058 2.292
23.5360 3.594
23.5663 2.604
23.5966 2.135
23.6269 2.865
23.6572 2.187
23.6874 3.437
23.7177 2.396
23.7480 2.552
23.7783 2.396
23.8086 2.292
23.8388 3.177
23.8691 2.240
23.8994 2.812
23.9297 2.187
23.9599 1.927
23.9902 2.812
24.0205 3.177
24.0508 2.187
24.0811 2.708
24.1113 2.812
24.1416 2.135
24.1719 2.812
24.2022 2.187
24.2325 3.125
24.2627 2.604
24.2930 2.604
24.3233 2.708
24.3536 2.865
24.3838 3.073
24.4141 2.396
24.4444 2.604
24.4747 2.917
24.5050 1.875
24.5352 2.448
24.5655 2.969
24.5958 2.396
24.6261 2.135
24.6564 2.656
24.6866 2.396
24.7169 2.917
24.7472 1.823
24.7775 2.344
24.8077 2.604
24.8380 2.708
24.8683 2.604
24.8986 2.500
24.9289 3.385
24.9591 2.500
24.9894 3.281
25.0197 3.125
25.0500 2.604
25.0803 2.448
25.1105 2.344
25.1408 2.812
25.1711 1.979
25.2014 1.979
25.2316 2.083
25.2619 2.083
25.2922 2.604
25.3225 2.760
25.3528 3.125
25.3830 2.812
25.4133 3.073
25.4436 2.760
25.4739 2.865
25.5042 2.760
25.5344 2.760
25.5647 2.865
25.5950 2.708
25.6253 2.448
25.6555 2.031
25.6858 2.552
25.7161 3.854
25.7464 1.875
25.7767 2.187
25.8069 2.083
25.8372 3.229
25.8675 2.292
25.8978 3.437
25.9281 1.927
25.9583 2.865
25.9886 3.490
26.0189 3.177
26.0492 2.708
26.0794 2.448
26.1097 1.927
26.1400 2.917
26.1703 2.760
26.2006 3.021
26.2308 2.552
26.2611 2.708
26.2914 2.604
26.3217 2.448
26.3520 3.021
26.3822 2.448
26.4125 2.031
26.4428 2.812
26.4731 2.760
26.5034 3.177
26.5336 2.969
26.5639 2.604
26.5942 3.437
26.6245 3.125
26.6547 2.917
26.6850 2.708
26.7153 2.865
26.7456 2.292
26.7759 2.760
26.8061 2.812
26.8364 2.396
26.8667 2.812
26.8970 2.708
26.9273 3.177
26.9575 2.604
26.9878 3.333
27.0181 2.656
27.0484 2.656
27.0786 2.969
27.1089 2.917
27.1392 2.760
27.1695 2.656
27.1998 3.021
27.2300 3.490
27.2603 2.969
27.2906 3.385
27.3209 2.552
27.3512 2.552
27.3814 2.604
27.4117 2.292
27.4420 3.073
27.4723 3.490
27.5025 3.281
27.5328 3.125
27.5631 3.229
27.5934 3.385
27.6237 3.437
27.6539 3.437
27.6842 3.177
27.7145 3.385
27.7448 3.021
27.7751 3.490
27.8053 2.969
27.8356 3.177
27.8659 3.333
27.8962 3.229
27.9264 3.437
27.9567 2.708
27.9870 2.969
28.0173 3.125
28.0476 3.125
28.0778 3.177
28.1081 3.854
28.1384 3.229
28.1687 3.958
28.1990 2.812
28.2292 3.906
28.2595 2.812
28.2898 2.292
28.3201 3.802
28.3503 3.229
28.3806 3.281
28.4109 2.708
28.4412 4.115
28.4715 3.385
28.5017 3.854
28.5320 4.062
28.5623 3.854
28.5926 3.490
28.6229 4.167
28.6531 3.229
28.6834 3.802
28.7137 3.802
28.7440 4.010
28.7742 3.073
28.8045 2.552
28.8348 3.281
28.8651 3.750
28.8954 3.437
28.9256 3.646
28.9559 3.490
28.9862 3.385
29.0165 3.333
29.0468 3.021
29.0770 3.281
29.1073 3.750
29.1376 3.854
29.1679 3.229
29.1981 3.490
29.2284 3.073
29.2587 4.010
29.2890 3.854
29.3193 4.167
29.3495 3.542
29.3798 4.375
29.4101 3.490
29.4404 3.802
29.4707 3.385
29.5009 3.958
29.5312 3.594
29.5615 4.219
29.5918 2.969
29.6221 4.167
29.6523 3.958
29.6826 3.750
29.7129 3.750
29.7432 4.219
29.7734 4.375
29.8037 5.156
29.8340 3.906
29.8643 4.271
29.8946 4.115
29.9248 4.115
29.9551 4.740
29.9854 4.687
30.0157 5.000
30.0460 4.375
30.0762 4.115
30.1065 5.625
30.1368 5.104
30.1671 4.427
30.1973 5.469
30.2276 4.740
30.2579 4.740
30.2882 5.312
30.3185 4.427
30.3487 5.312
30.3790 5.260
30.4093 5.208
30.4396 5.208
30.4699 4.219
30.5001 5.885
30.5304 5.469
30.5607 5.833
30.5910 5.885
30.6212 6.250
30.6515 6.302
30.6818 8.021
30.7121 7.135
30.7424 6.562
30.7726 6.667
30.8029 7.812
30.8332 7.031
30.8635 8.490
30.8938 8.802
30.9240 7.708
30.9543 8.802
30.9846 10.365
31.0149 10.521
31.0451 11.458
31.0754 10.677
31.1057 12.396
31.1360 14.010
31.1663 13.333
31.1965 15.208
31.2268 14.740
31.2571 17.656
31.2874 19.635
31.3177 21.146
31.3479 23.333
31.3782 26.823
31.4085 31.146
31.4388 31.354
31.4690 34.427
31.4993 37.812
31.5296 42.708
31.5599 46.771
31.5902 48.385
31.6204 54.427
31.6507 50.990
31.6810 53.437
31.7113 50.990
31.7416 46.615
31.7718 44.219
31.8021 35.885
31.8324 35.833
31.8627 30.677
31.8929 27.604
31.9232 24.740
31.9535 21.771
31.9838 19.740
32.0141 17.865
32.0443 17.187
32.0746 14.635
32.1049 15.729
32.1352 14.323
32.1655 13.958
32.1957 10.365
32.2260 11.146
32.2563 11.094
32.2866 11.198
32.3169 8.802
32.3471 8.958
32.3774 8.958
32.4077 8.073
32.4380 9.479
32.4682 7.292
32.4985 6.042
32.5288 7.604
32.5591 7.292
32.5894 7.552
32.6196 7.656
32.6499 7.917
32.6802 6.667
32.7105 6.510
32.7408 5.677
32.7710 5.990
32.8013 6.875
32.8316 6.667
32.8619 7.083
32.8921 5.937
32.9224 5.990
32.9527 6.406
32.9830 5.937
33.0133 5.990
33.0435 5.677
33.0738 5.833
33.1041 5.417
33.1344 5.990
33.1647 5.573
33.1949 6.302
33.2252 6.615
33.2555 6.615
33.2858 5.469
33.3160 6.510
33.3463 5.729
33.3766 6.458
33.4069 6.823
33.4372 7.135
33.4674 6.927
33.4977 6.927
33.5280 7.708
33.5583 7.760
33.5886 8.333
33.6188 8.021
33.6491 8.490
33.6794 7.240
33.7097 8.542
33.7399 7.917
33.7702 8.958
33.8005 9.375
33.8308 9.687
33.8611 10.312
33.8913 10.990
33.9216 12.604
33.9519 12.969
33.9822 13.229
34.0125 15.781
34.0427 18.073
34.0730 20.833
34.1033 23.125
34.1336 25.260
34.1638 29.271
34.1941 39.167
34.2244 44.271
34.2547 54.583
34.2850 59.792
34.3152 62.812
34.3455 59.896
34.3758 55.000
34.4061 49.687
34.4364 43.698
34.4666 32.344
34.4969 29.583
34.5272 27.240
34.5575 22.240
34.5877 17.917
34.6180 15.052
34.6483 15.885
34.6786 13.490
34.7089 11.406
34.7391 11.719
34.7694 11.302
34.7997 10.625
34.8300 11.771
34.8603 11.615
34.8905 10.417
34.9208 11.615
34.9511 9.844
34.9814 9.948
35.0116 10.000
35.0419 9.583
35.0722 9.844
35.1025 9.896
35.1328 9.167
35.1630 9.844
35.1933 10.052
35.2236 11.042
35.2539 11.146
35.2842 11.406
35.3144 11.510
35.3447 12.708
35.3750 12.344
35.4053 12.083
35.4356 11.875
35.4658 14.062
35.4961 14.115
35.5264 15.625
35.5567 16.042
35.5869 16.875
35.6172 15.990
35.6475 18.750
35.6778 21.719
35.7081 23.281
35.7383 25.208
35.7686 27.344
35.7989 27.812
35.8292 30.781
35.8595 35.052
35.8897 40.260
35.9200 45.417
35.9503 47.448
35.9806 55.312
36.0108 60.000
36.0411 66.042
36.0714 72.865
36.1017 76.771
36.1320 78.073
36.1622 75.469
36.1925 74.740
36.2228 71.927
36.2531 68.281
36.2834 63.333
36.3136 58.958
36.3439 49.792
36.3742 46.719
36.4045 39.740
36.4347 33.854
36.4650 31.042
36.4953 27.187
36.5256 24.896
36.5559 21.823
36.5861 20.104
36.6164 18.021
36.6467 16.458
36.6770 15.781
36.7073 13.281
36.7375 13.594
36.7678 13.021
36.7981 12.760
36.8284 11.042
36.8586 10.208
36.8889 9.115
36.9192 9.323
36.9495 9.167
36.9798 8.437
37.0100 8.958
37.0403 7.031
37.0706 7.604
37.1009 8.385
37.1312 7.083
37.1614 7.083
37.1917 8.542
37.2220 7.292
37.2523 6.719
37.2825 5.729
37.3128 6.146
37.3431 5.417
37.3734 5.729
37.4037 5.104
37.4339 5.365
37.4642 5.260
37.4945 4.740
37.5248 5.833
37.5551 5.156
37.5853 5.052
37.6156 5.469
37.6459 5.365
37.6762 4.323
37.7064 3.802
37.7367 4.479
37.7670 4.635
37.7973 4.896
37.8276 4.687
37.8578 4.792
37.8881 5.104
37.9184 3.854
37.9487 3.437
37.9790 4.948
38.0092 3.333
38.0395 5.000
38.0698 4.583
38.1001 3.802
38.1304 4.375
38.1606 4.271
38.1909 4.323
38.2212 3.542
38.2515 3.229
38.2817 3.281
38.3120 3.542
38.3423 3.021
38.3726 4.062
38.4029 4.010
38.4331 3.698
38.4634 4.010
38.4937 3.646
38.5240 3.229
38.5543 3.385
38.5845 3.646
38.6148 3.177
38.6451 3.333
38.6754 4.271
38.7056 3.333
38.7359 3.229
38.7662 3.490
38.7965 3.281
38.8268 2.760
38.8570 2.969
38.8873 2.865
38.9176 2.604
38.9479 2.135
38.9782 3.437
39.0084 2.552
39.0387 2.812
39.0690 2.448
39.0993 2.656
39.1295 2.812
39.1598 2.969
39.1901 3.073
39.2204 2.865
39.2507 2.812
39.2809 2.500
39.3112 3.333
39.3415 2.812
39.3718 2.656
39.4021 2.865
39.4323 2.708
39.4626 3.229
39.4929 2.708
39.5232 2.656
39.5534 2.656
39.5837 2.969
39.6140 2.865
39.6443 2.656
39.6746 3.542
39.7048 2.448
39.7351 2.760
39.7654 2.187
39.7957 3.281
39.8260 2.552
39.8562 2.396
39.8865 2.708
39.9168 3.385
39.9471 2.708
39.9773 2.083
40.0076 2.969
40.0379 2.500
40.0682 2.344
40.0985 2.292
40.1287 2.500
40.1590 2.604
40.1893 2.708
40.2196 2.812
40.2499 1.979
40.2801 3.229
40.3104 2.240
40.3407 2.292
40.3710 2.760
40.4012 2.708
40.4315 2.083
40.4618 1.979
40.4921 2.240
40.5224 2.344
40.5526 1.979
40.5829 2.760
40.6132 2.865
40.6435 3.490
40.6738 2.604
40.7040 3.073
40.7343 2.552
40.7646 2.344
40.7949 2.760
40.8251 2.604
40.8554 2.812
40.8857 2.448
40.9160 2.187
40.9463 2.240
40.9765 2.083
41.0068 2.917
41.0371 2.552
41.0674 2.760
41.0977 2.344
41.1279 1.979
41.1582 2.708
41.1885 2.448
41.2188 1.719
41.2491 2.240
41.2793 1.875
41.3096 1.823
41.3399 1.562
41.3702 2.708
41.4004 2.448
41.4307 1.719
41.4610 2.448
41.4913 2.083
41.5216 2.240
41.5518 1.927
41.5821 1.562
41.6124 2.083
41.6427 1.719
41.6730 2.344
41.7032 2.240
41.7335 1.615
41.7638 2.187
41.7941 1.927
41.8243 2.031
41.8546 1.719
41.8849 1.667
41.9152 2.031
41.9455 2.187
41.9757 2.500
42.0060 2.500
42.0363 1.927
42.0666 2.344
42.0969 2.292
42.1271 1.823
42.1574 2.448
42.1877 2.187
42.2180 2.292
42.2482 2.135
42.2785 2.187
42.3088 2.031
42.3391 2.448
42.3694 1.562
42.3996 2.031
42.4299 2.396
42.4602 1.615
42.4905 1.979
42.5208 2.240
42.5510 2.187
42.5813 2.292
42.6116 2.135
42.6419 2.917
42.6721 2.135
42.7024 1.823
42.7327 2.604
42.7630 2.031
42.7933 2.292
42.8235 2.187
42.8538 2.760
42.8841 2.396
42.9144 2.083
42.9447 2.135
42.9749 1.667
43.0052 2.344
43.0355 1.979
43.0658 1.875
43.0960 2.135
43.1263 1.302
43.1566 2.187
43.1869 2.396
43.2172 1.771
43.2474 1.927
43.2777 2.656
43.3080 2.604
43.3383 1.510
43.3686 2.240
43.3988 1.615
43.4291 2.760
43.4594 1.875
43.4897 3.333
43.5199 1.719
43.5502 2.240
43.5805 2.187
43.6108 1.875
43.6411 1.927
43.6713 2.396
43.7016 2.292
43.7319 1.927
43.7622 2.292
43.7925 2.240
43.8227 2.812
43.8530 1.875
43.8833 2.344
43.9136 1.823
43.9439 2.240
43.9741 1.823
44.0044 2.656
44.0347 2.344
44.0650 2.187
44.0952 2.396
44.1255 2.396
44.1558 2.604
44.1861 2.396
44.2164 2.656
44.2466 2.135
44.2769 2.240
44.3072 2.031
44.3375 2.604
44.3678 2.812
44.3980 2.448
44.4283 2.552
44.4586 2.187
44.4889 1.823
44.5191 2.500
44.5494 2.708
44.5797 2.917
44.6100 2.135
44.6403 2.865
44.6705 1.875
44.7008 2.448
44.7311 2.708
44.7614 2.708
44.7917 2.031
44.8219 2.656
44.8522 1.667
44.8825 2.344
44.9128 2.500
44.9430 1.979
44.9733 1.615
45.0036 2.865
45.0339 2.083
45.0642 2.708
45.0944 2.656
45.1247 2.240
45.1550 2.448
45.1853 2.917
45.2156 2.344
45.2458 2.604
45.2761 2.604
45.3064 2.552
45.3367 2.292
45.3669 2.448
45.3972 2.812
45.4275 3.177
45.4578 1.615
45.4881 2.396
45.5183 2.031
45.5486 2.500
45.5789 2.500
45.6092 2.708
45.6395 2.344
45.6697 2.656
45.7000 2.083
45.7303 2.500
45.7606 3.490
45.7908 2.708
45.8211 2.656
45.8514 2.240
45.8817 2.604
45.9120 2.865
45.9422 2.344
45.9725 2.760
46.0028 2.240
46.0331 2.812
46.0634 3.385
46.0936 3.073
46.1239 3.333
46.1542 2.865
46.1845 2.292
46.2147 2.656
46.2450 2.812
46.2753 3.229
46.3056 2.917
46.3359 4.115
46.3661 2.865
46.3964 2.969
46.4267 3.073
46.4570 3.698
46.4873 4.167
46.5175 3.177
46.5478 3.750
46.5781 3.646
46.6084 3.542
46.6386 3.698
46.6689 4.115
46.6992 3.542
46.7295 3.542
46.7598 4.531
46.7900 4.479
46.8203 4.479
46.8506 4.427
46.8809 5.000
46.9112 5.469
46.9414 6.094
46.9717 5.885
47.0020 5.573
47.0323 6.927
47.0626 7.396
47.0928 6.302
47.1231 7.917
47.1534 10.052
47.1837 10.365
47.2139 10.729
47.2442 12.292
47.2745 14.427
47.3048 15.104
47.3351 13.646
47.3653 16.146
47.3956 16.458
47.4259 16.979
47.4562 15.677
47.4865 16.458
47.5167 14.948
47.5470 15.104
47.5773 13.854
47.6076 14.010
47.6378 11.146
47.6681 11.771
47.6984 10.156
47.7287 9.115
47.7590 9.010
47.7892 6.562
47.8195 6.302
47.8498 6.146
47.8801 5.156
47.9104 5.573
47.9406 4.687
47.9709 5.156
48.0012 4.479
48.0315 4.115
48.0617 4.323
48.0920 4.010
48.1223 4.167
48.1526 3.542
48.1829 4.062
48.2131 2.917
48.2434 3.542
48.2737 3.385
48.3040 2.604
48.3343 2.708
48.3645 3.177
48.3948 3.385
48.4251 3.437
48.4554 2.865
48.4856 3.021
48.5159 2.812
48.5462 2.604
48.5765 2.656
48.6068 3.385
48.6370 2.240
48.6673 2.604
48.6976 2.760
48.7279 2.812
48.7582 2.917
48.7884 2.500
48.8187 3.125
48.8490 2.031
48.8793 2.812
48.9095 2.240
48.9398 2.344
48.9701 2.448
49.0004 2.240
49.0307 2.187
49.0609 2.396
49.0912 3.021
49.1215 3.073
49.1518 2.656
49.1821 2.292
49.2123 2.552
49.2426 2.344
49.2729 2.344
49.3032 2.812
49.3334 1.823
49.3637 2.656
49.3940 2.292
49.4243 2.292
49.4546 2.344
49.4848 2.604
49.5151 1.771
49.5454 2.240
49.5757 2.135
49.6060 2.448
49.6362 2.083
49.6665 2.448
49.6968 1.979
49.7271 1.927
49.7574 1.615
49.7876 2.552
49.8179 1.771
49.8482 2.031
49.8785 1.771
49.9087 2.135
49.9390 2.500
49.9693 2.083
49.9996 1.927
50.0299 1.979
50.0601 2.448
50.0904 2.760
50.1207 2.240
50.1510 1.927
50.1813 2.552
50.2115 1.875
50.2418 2.604
50.2721 2.292
50.3024 2.031
50.3326 2.240
50.3629 2.083
50.3932 1.458
50.4235 2.500
50.4538 1.250
50.4840 1.719
50.5143 2.135
50.5446 2.396
50.5749 2.604
50.6052 2.344
50.6354 1.354
50.6657 2.240
50.6960 2.656
50.7263 2.135
50.7565 2.031
50.7868 1.979
50.8171 2.448
50.8474 2.344
50.8777 2.083
50.9079 2.187
50.9382 2.031
50.9685 1.979
50.9988 1.771
51.0291 2.031
51.0593 2.708
51.0896 2.604
51.1199 2.396
51.1502 2.708
51.1804 2.344
51.2107 2.240
51.2410 2.240
51.2713 2.187
51.3016 2.031
51.3318 1.771
51.3621 1.719
51.3924 2.031
51.4227 2.812
51.4530 2.135
51.4832 2.240
51.5135 1.875
51.5438 2.187
51.5741 2.187
51.6043 1.458
51.6346 1.771
51.6649 1.979
51.6952 2.083
51.7255 1.979
51.7557 1.979
51.7860 2.344
51.8163 2.083
51.8466 2.083
51.8769 1.615
51.9071 2.604
51.9374 2.135
51.9677 1.927
51.9980 2.187
52.0282 1.771
52.0585 2.448
52.0888 2.500
52.1191 1.927
52.1494 1.823
52.1796 2.240
52.2099 1.667
52.2402 2.500
52.2705 2.083
52.3008 2.240
52.3310 1.823
52.3613 1.562
52.3916 1.719
52.4219 2.031
52.4521 1.562
52.4824 1.667
52.5127 2.135
52.5430 2.396
52.5733 2.031
52.6035 1.979
52.6338 2.187
52.6641 2.708
52.6944 2.292
52.7247 2.240
52.7549 2.083
52.7852 2.135
52.8155 3.073
52.8458 2.240
52.8761 2.552
52.9063 2.552
52.9366 2.187
52.9669 2.917
52.9972 2.656
53.0274 2.135
53.0577 2.344
53.0880 2.292
53.1183 2.344
53.1486 1.979
53.1788 2.240
53.2091 2.396
53.2394 2.031
53.2697 2.604
53.3000 2.240
53.3302 1.771
53.3605 1.875
53.3908 2.865
53.4211 2.500
53.4513 1.927
53.4816 2.604
53.5119 2.344
53.5422 2.031
53.5725 2.292
53.6027 2.031
53.6330 2.292
53.6633 2.552
53.6936 2.552
53.7239 2.448
53.7541 1.823
53.7844 2.083
53.8147 2.552
53.8450 2.396
53.8752 2.500
53.9055 2.708
53.9358 2.344
53.9661 1.406
53.9964 2.500
54.0266 2.448
54.0569 2.500
54.0872 2.031
54.1175 2.031
54.1478 2.500
54.1780 2.187
54.2083 2.812
54.2386 2.396
54.2689 2.500
54.2991 3.073
54.3294 2.760
54.3597 2.135
54.3900 2.083
54.4203 2.865
54.4505 2.656
54.4808 2.240
54.5111 2.448
54.5414 2.969
54.5717 2.812
54.6019 2.656
54.6322 3.125
54.6625 2.552
54.6928 2.604
54.7230 3.073
54.7533 2.812
54.7836 2.604
54.8139 2.917
54.8442 2.760
54.8744 2.500
54.9047 3.854
54.9350 2.604
54.9653 3.437
54.9956 3.490
55.0258 2.708
55.0561 3.073
55.0864 3.229
55.1167 2.708
55.1469 2.969
55.1772 2.448
55.2075 3.333
55.2378 3.125
55.2681 2.969
55.2983 2.396
55.3286 2.969
55.3589 3.542
55.3892 3.646
55.4195 2.865
55.4497 3.542
55.4800 4.583
55.5103 3.802
55.5406 3.437
55.5709 3.125
55.6011 4.792
55.6314 3.750
55.6617 4.323
55.6920 4.479
55.7222 3.750
55.7525 5.000
55.7828 5.469
55.8131 4.948
55.8434 5.677
55.8736 5.885
55.9039 6.615
55.9342 6.823
55.9645 6.302
55.9948 8.021
56.0250 7.760
56.0553 8.542
56.0856 9.115
56.1159 9.219
56.1461 9.844
56.1764 12.396
56.2067 12.396
56.2370 13.698
56.2673 14.062
56.2975 15.312
56.3278 15.729
56.3581 14.896
56.3884 19.062
56.4187 18.281
56.4489 21.094
56.4792 19.948
56.5095 21.719
56.5398 21.667
56.5700 18.854
56.6003 21.406
56.6306 16.875
56.6609 17.344
56.6912 15.052
56.7214 15.052
56.7517 13.542
56.7820 11.510
56.8123 9.740
56.8426 10.208
56.8728 8.177
56.9031 8.229
56.9334 8.542
56.9637 8.177
56.9939 7.083
57.0242 7.240
57.0545 6.562
57.0848 6.406
57.1151 5.104
57.1453 5.625
57.1756 5.625
57.2059 5.156
57.2362 3.906
57.2665 4.792
57.2967 4.375
57.3270 4.115
57.3573 3.802
57.3876 3.750
57.4178 3.698
57.4481 4.167
57.4784 3.385
57.5087 3.385
57.5390 3.594
57.5692 3.958
57.5995 2.969
57.6298 2.917
57.6601 3.594
57.6904 2.760
57.7206 2.083
57.7509 2.969
57.7812 3.333
57.8115 2.917
57.8417 2.969
57.8720 2.812
57.9023 2.500
57.9326 2.969
57.9629 2.865
57.9931 2.917
58.0234 2.708
58.0537 2.812
58.0840 1.510
58.1143 3.333
58.1445 2.969
58.1748 2.552
58.2051 2.865
58.2354 2.552
58.2656 2.292
58.2959 3.125
58.3262 2.917
58.3565 2.604
58.3868 2.500
58.4170 3.385
58.4473 2.812
58.4776 2.865
58.5079 2.552
58.5382 2.500
58.5684 2.500
58.5987 2.656
58.6290 2.135
58.6593 2.656
58.6896 2.396
58.7198 2.552
58.7501 2.187
58.7804 2.552
58.8107 1.927
58.8409 2.656
58.8712 2.656
58.9015 2.135
58.9318 2.969
58.9621 2.240
58.9923 3.073
59.0226 2.396
59.0529 2.448
59.0832 1.875
59.1135 2.448
59.1437 1.979
59.1740 2.552
59.2043 2.604
59.2346 2.240
59.2648 2.135
59.2951 2.135
59.3254 2.604
59.3557 2.500
59.3860 2.500
59.4162 1.823
59.4465 1.823
59.4768 1.667
59.5071 2.552
59.5374 2.552
59.5676 1.875
59.5979 2.708
59.6282 2.552
59.6585 2.083
59.6887 2.135
59.7190 2.187
59.7493 2.187
59.7796 1.875
59.8099 2.031
59.8401 2.396
59.8704 3.854
59.9007 2.187
59.9310 2.344
59.9613 2.187
59.9915 2.344
60.0218 2.760
60.0521 1.823
60.0824 2.240
60.1126 2.500
60.1429 2.083
60.1732 2.292
60.2035 1.823
60.2338 2.240
60.2640 2.917
60.2943 2.083
60.3246 2.083
60.3549 2.083
60.3852 1.250
60.4154 2.500
60.4457 2.083
60.4760 2.448
60.5063 2.760
60.5365 2.083
60.5668 2.083
60.5971 2.552
60.6274 2.708
60.6577 3.177
60.6879 2.083
60.7182 2.656
60.7485 2.917
60.7788 2.292
60.8091 2.396
60.8393 2.656
60.8696 2.865
60.8999 2.344
60.9302 2.604
60.9604 2.917
60.9907 2.292
61.0210 2.656
61.0513 2.708
61.0816 2.187
61.1118 2.760
61.1421 3.229
61.1724 3.021
61.2027 3.021
61.2330 3.125
61.2632 3.177
61.2935 2.604
61.3238 3.490
61.3541 2.969
61.3844 3.177
61.4146 2.083
61.4449 2.917
61.4752 2.760
61.5055 2.656
61.5357 2.917
61.5660 3.542
61.5963 2.969
61.6266 2.292
61.6569 3.229
61.6871 2.760
61.7174 3.594
61.7477 4.583
61.7780 3.594
61.8083 3.802
61.8385 3.854
61.8688 3.646
61.8991 4.792
61.9294 3.698
61.9596 5.469
61.9899 4.531
62.0202 4.375
62.0505 4.792
62.0808 4.844
62.1110 4.740
62.1413 4.687
62.1716 5.469
62.2019 4.219
62.2322 5.677
62.2624 6.302
62.2927 6.510
62.3230 7.135
62.3533 6.615
62.3835 8.333
62.4138 8.646
62.4441 10.000
62.4744 10.417
62.5047 9.635
62.5349 11.719
62.5652 12.969
62.5955 12.604
62.6258 15.573
62.6561 15.000
62.6863 17.083
62.7166 17.604
62.7469 17.865
62.7772 17.396
62.8074 16.667
62.8377 18.333
62.8680 15.937
62.8983 16.510
62.9286 15.781
62.9588 13.958
62.9891 12.812
63.0194 12.240
63.0497 11.510
63.0800 9.740
63.1102 8.854
63.1405 8.542
63.1708 9.062
63.2011 7.812
63.2313 6.667
63.2616 5.937
63.2919 5.521
63.3222 6.094
63.3525 5.729
63.3827 5.781
63.4130 4.948
63.4433 5.208
63.4736 4.323
63.5039 4.167
63.5341 4.323
63.5644 3.698
63.5947 3.437
63.6250 3.854
63.6552 3.698
63.6855 3.750
63.7158 3.594
63.7461 3.490
63.7764 3.073
63.8066 3.854
63.8369 3.229
63.8672 3.073
63.8975 2.969
63.9278 3.073
63.9580 2.865
63.9883 2.656
64.0186 3.073
64.0489 3.125
64.0791 3.437
64.1094 2.812
64.1397 2.656
64.1700 2.604
64.2003 2.604
64.2305 2.812
64.2608 2.812
64.2911 3.073
64.3214 2.240
64.3517 2.083
64.3819 2.500
64.4122 3.021
64.4425 2.656
64.4728 2.500
64.5031 1.771
64.5333 3.229
64.5636 2.292
64.5939 2.656
64.6242 3.073
64.6544 1.927
64.6847 2.917
64.7150 2.708
64.7453 2.500
64.7756 2.656
64.8058 2.760
64.8361 3.021
64.8664 2.396
64.8967 2.240
64.9270 3.698
64.9572 2.396
64.9875 2.448
65.0178 2.083
65.0481 2.500
65.0783 2.708
65.1086 3.021
65.1389 3.333
65.1692 2.708
65.1995 2.865
65.2297 2.917
65.2600 2.812
65.2903 2.760
65.3206 2.917
65.3509 3.333
65.3811 2.344
65.4114 2.135
65.4417 2.865
65.4720 2.500
65.5022 2.760
65.5325 2.760
65.5628 2.865
65.5931 3.698
65.6234 2.708
65.6536 2.812
65.6839 3.021
65.7142 2.083
65.7445 3.125
65.7748 2.448
65.8050 3.177
65.8353 3.542
65.8656 2.708
65.8959 3.229
65.9261 3.750
65.9564 3.646
65.9867 4.948
66.0170 3.958
66.0473 4.167
66.0775 3.437
66.1078 4.531
66.1381 4.219
66.1684 4.792
66.1987 4.219
66.2289 4.948
66.2592 4.167
66.2895 5.365
66.3198 4.635
66.3500 4.375
66.3803 5.104
66.4106 4.479
66.4409 4.427
66.4712 4.062
66.5014 4.375
66.5317 5.417
66.5620 3.906
66.5923 4.010
66.6226 4.531
66.6528 3.802
66.6831 3.594
66.7134 4.167
66.7437 3.437
66.7739 3.958
66.8042 4.167
66.8345 4.219
66.8648 3.698
66.8951 3.385
66.9253 4.635
66.9556 3.958
66.9859 4.427
67.0162 4.010
67.0465 4.010
67.0767 5.156
67.1070 4.219
67.1373 4.427
67.1676 3.490
67.1978 5.833
67.2281 5.469
67.2584 5.417
67.2887 5.729
67.3190 6.146
67.3492 6.406
67.3795 5.677
67.4098 6.927
67.4401 7.083
67.4704 7.812
67.5006 8.125
67.5309 7.812
67.5612 8.542
67.5915 9.844
67.6218 9.010
67.6520 9.219
67.6823 11.198
67.7126 12.917
67.7429 12.552
67.7731 12.344
67.8034 14.271
67.8337 11.875
67.8640 14.792
67.8943 14.687
67.9245 13.177
67.9548 13.958
67.9851 14.010
68.0154 12.292
68.0457 10.781
68.0759 11.250
68.1062 11.146
68.1365 9.844
68.1668 10.156
68.1970 8.646
68.2273 10.365
68.2576 7.760
68.2879 7.083
68.3182 7.031
68.3484 7.187
68.3787 6.562
68.4090 5.469
68.4393 5.937
68.4696 6.615
68.4998 6.510
68.5301 6.302
68.5604 6.354
68.5907 6.354
68.6209 7.708
68.6512 6.146
68.6815 5.573
68.7118 5.937
68.7421 5.885
68.7723 7.187
68.8026 6.042
68.8329 7.500
68.8632 7.500
68.8935 7.552
68.9237 8.177
68.9540 7.292
68.9843 8.021
69.0146 6.667
69.0448 7.344
69.0751 6.823
69.1054 7.969
69.1357 7.083
69.1660 6.875
69.1962 6.458
69.2265 6.510
69.2568 5.677
69.2871 5.469
69.3174 5.625
69.3476 4.635
69.3779 4.896
69.4082 5.000
69.4385 4.323
69.4687 3.281
69.4990 3.542
69.5293 3.646
69.5596 3.281
69.5899 3.281
69.6201 2.708
69.6504 3.490
69.6807 2.760
69.7110 2.812
69.7413 3.177
69.7715 2.969
69.8018 2.604
69.8321 2.344
69.8624 3.073
69.8926 3.333
69.9229 2.448
69.9532 2.240
69.9835 2.917
70.0138 2.344
70.0440 2.865
70.0743 1.667
70.1046 2.604
70.1349 2.812
70.1652 1.927
70.1954 2.396
70.2257 2.240
70.2560 2.292
70.2863 2.865
70.3166 2.500
70.3468 2.552
70.3771 2.292
70.4074 2.083
70.4377 3.073
70.4679 2.083
70.4982 2.135
70.5285 2.812
70.5588 1.927
70.5891 2.135
70.6193 2.240
70.6496 2.135
70.6799 2.292
70.7102 1.927
70.7405 1.562
70.7707 1.510
70.8010 1.927
70.8313 2.500
70.8616 1.875
70.8918 2.396
70.9221 1.615
70.9524 2.708
70.9827 2.187
71.0130 2.708
71.0432 2.031
71.0735 1.562
71.1038 2.135
71.1341 2.135
71.1644 1.667
71.1946 1.302
71.2249 2.031
71.2552 1.771
71.2855 1.510
71.3157 1.667
71.3460 1.771
71.3763 1.979
71.4066 1.771
71.4369 2.187
71.4671 2.135
71.4974 1.042
71.5277 1.823
71.5580 2.187
71.5883 1.823
71.6185 1.823
71.6488 1.927
71.6791 1.771
71.7094 1.562
71.7396 1.927
71.7699 1.562
71.8002 1.615
71.8305 2.135
71.8608 2.344
71.8910 1.771
71.9213 2.344
71.9516 1.927
71.9819 2.240
72.0122 1.771
72.0424 2.292
72.0727 2.344
72.1030 1.771
72.1333 2.031
72.1635 2.031
72.1938 2.656
72.2241 1.927
72.2544 2.240
72.2847 2.604
72.3149 3.229
72.3452 3.229
72.3755 2.240
72.4058 2.240
72.4361 2.865
72.4663 1.771
72.4966 2.917
72.5269 2.969
72.5572 2.240
72.5874 3.021
72.6177 2.500
72.6480 2.604
72.6783 2.344
72.7086 2.604
72.7388 1.927
72.7691 2.187
72.7994 1.510
72.8297 2.135
72.8600 2.031
72.8902 1.927
72.9205 2.448
72.9508 1.510
72.9811 1.510
73.0113 1.719
73.0416 1.823
73.0719 1.667
73.1022 2.031
73.1325 2.031
73.1627 1.562
73.1930 1.719
73.2233 1.719
73.2536 2.448
73.2839 1.250
73.3141 1.615
73.3444 1.562
73.3747 1.771
73.4050 1.406
73.4353 2.031
73.4655 1.562
73.4958 1.458
73.5261 2.083
73.5564 1.823
73.5866 1.667
73.6169 1.667
73.6472 2.187
73.6775 2.187
73.7078 2.083
73.7380 1.354
73.7683 1.875
73.7986 1.250
73.8289 1.562
73.8592 1.302
73.8894 1.094
73.9197 1.719
73.9500 1.250
73.9803 1.667
74.0105 1.458
74.0408 1.719
74.0711 1.250
74.1014 1.302
74.1317 1.615
74.1619 1.875
74.1922 1.406
74.2225 1.615
74.2528 1.458
74.2831 1.458
74.3133 1.667
74.3436 1.510
74.3739 2.187
74.4042 1.615
74.4344 1.667
74.4647 1.198
74.4950 1.719
74.5253 1.146
74.5556 1.354
74.5858 1.198
74.6161 1.719
74.6464 1.354
74.6767 1.823
74.7070 1.198
74.7372 1.771
74.7675 1.719
74.7978 1.302
74.8281 1.302
74.8583 1.979
74.8886 1.875
74.9189 2.031
74.9492 1.302
74.9795 1.667
75.0097 1.146
75.0400 1.354
75.0703 1.615
75.1006 1.146
75.1309 1.458
75.1611 1.250
75.1914 1.354
75.2217 1.771
75.2520 1.510
75.2822 1.719
75.3125 1.562
75.3428 1.719
75.3731 1.562
75.4034 1.719
75.4336 1.510
75.4639 1.406
75.4942 1.979
75.5245 2.031
75.5548 1.406
75.5850 1.667
75.6153 1.875
75.6456 1.719
75.6759 1.615
75.7061 1.562
75.7364 1.562
75.7667 1.562
75.7970 1.823
75.8273 1.719
75.8575 1.302
75.8878 1.510
75.9181 1.927
75.9484 1.823
75.9787 1.823
76.0089 1.510
76.0392 2.135
76.0695 2.135
76.0998 1.823
76.1301 2.083
76.1603 2.083
76.1906 1.927
76.2209 1.406
76.2512 1.719
76.2814 1.667
76.3117 2.396
76.3420 2.135
76.3723 1.094
76.4026 2.187
76.4328 2.396
76.4631 2.552
76.4934 2.187
76.5237 2.083
76.5540 2.656
76.5842 2.083
76.6145 2.656
76.6448 3.490
76.6751 2.708
76.7053 2.396
76.7356 2.656
76.7659 2.865
76.7962 3.177
76.8265 2.292
76.8567 3.229
76.8870 3.281
76.9173 2.292
76.9476 2.969
76.9779 3.073
77.0081 2.656
77.0384 2.865
77.0687 2.865
77.0990 2.708
77.1292 2.292
77.1595 2.187
77.1898 2.656
77.2201 2.917
77.2504 2.031
77.2806 1.562
77.3109 2.135
77.3412 2.396
77.3715 2.448
77.4018 2.396
77.4320 2.187
77.4623 1.979
77.4926 1.667
77.5229 1.979
77.5531 2.135
77.5834 1.354
77.6137 1.510
77.6440 1.302
77.6743 2.344
77.7045 1.875
77.7348 1.979
77.7651 1.719
77.7954 2.031
77.8257 1.771
77.8559 1.250
77.8862 1.875
77.9165 2.083
77.9468 1.927
77.9770 1.875
78.0073 2.031
78.0376 1.354
78.0679 1.562
78.0982 1.615
78.1284 1.406
78.1587 1.771
78.1890 1.823
78.2193 1.667
78.2496 1.823
78.2798 2.031
78.3101 1.667
78.3404 1.354
78.3707 1.667
78.4009 1.719
78.4312 1.510
78.4615 1.354
78.4918 1.510
78.5221 1.823
78.5523 1.042
78.5826 1.823
78.6129 1.562
78.6432 1.302
78.6735 2.031
78.7037 1.302
78.7340 1.510
78.7643 1.198
78.7946 1.667
78.8248 1.667
78.8551 1.615
78.8854 1.719
78.9157 1.667
78.9460 1.250
78.9762 2.031
79.0065 1.302
79.0368 1.250
79.0671 2.031
79.0974 1.302
79.1276 1.615
79.1579 1.719
79.1882 1.198
79.2185 1.667
79.2488 1.667
79.2790 1.562
79.3093 1.771
79.3396 1.094
79.3699 1.667
79.4001 1.510
79.4304 1.667
79.4607 1.615
79.4910 1.302
79.5213 1.406
79.5515 1.302
79.5818 1.354
79.6121 1.771
79.6424 1.250
79.6727 1.302
79.7029 1.719
79.7332 1.615
79.7635 2.187
79.7938 1.667
79.8240 1.094
79.8543 1.719
79.8846 1.406
79.9149 1.198
79.9452 1.562
79.9754 1.198
80.0057 1.198
80.0360 1.458
80.0663 1.250
80.0966 1.302
80.1268 1.667
80.1571 2.031
80.1874 1.562
80.2177 1.198
80.2479 1.979
80.2782 1.562
80.3085 1.979
80.3388 1.250
80.3691 1.667
80.3993 2.031
80.4296 1.510
80.4599 1.771
80.4902 1.875
80.5205 1.458
80.5507 1.823
80.5810 1.667
80.6113 1.667
80.6416 1.615
80.6718 1.719
80.7021 1.250
80.7324 1.615
80.7627 1.667
80.7930 1.667
80.8232 1.458
80.8535 1.667
80.8838 1.979
80.9141 1.875
80.9444 2.240
80.9746 1.979
81.0049 1.667
81.0352 1.927
81.0655 2.083
81.0957 1.823
81.1260 2.135
81.1563 2.187
81.1866 1.979
81.2169 2.344
81.2471 2.344
81.2774 2.135
81.3077 1.719
81.3380 2.552
81.3683 2.917
81.3985 2.344
81.4288 1.823
81.4591 2.344
81.4894 2.604
81.5196 2.396
81.5499 2.031
81.5802 2.135
81.6105 1.719
81.6408 2.135
81.6710 1.823
81.7013 1.719
81.7316 1.823
81.7619 2.083
81.7922 1.875
81.8224 1.615
81.8527 1.719
81.8830 2.292
81.9133 1.562
81.9436 1.771
81.9738 1.615
82.0041 1.562
82.0344 1.146
82.0647 1.875
82.0949 1.354
82.1252 1.615
82.1555 1.562
82.1858 1.510
82.2161 1.719
82.2463 1.510
82.2766 1.771
82.3069 1.458
82.3372 1.510
82.3675 1.198
82.3977 1.510
82.4280 1.458
82.4583 1.198
82.4886 1.771
82.5188 1.719
82.5491 1.979
82.5794 1.927
82.6097 1.406
82.6400 1.667
82.6702 1.615
82.7005 1.719
82.7308 1.510
82.7611 1.510
82.7914 1.406
82.8216 1.406
82.8519 1.771
82.8822 1.667
82.9125 1.250
82.9427 1.458
82.9730 1.562
83.0033 1.927
83.0336 1.510
83.0639 1.250
83.0941 1.510
83.1244 1.615
83.1547 1.198
83.1850 1.719
83.2153 1.198
83.2455 1.302
83.2758 1.667
83.3061 1.302
83.3364 1.094
83.3666 1.927
83.3969 1.667
83.4272 1.354
83.4575 1.875
83.4878 1.615
83.5180 2.031
83.5483 1.927
83.5786 1.771
83.6089 1.042
83.6392 2.083
83.6694 1.250
83.6997 1.771
83.7300 1.771
83.7603 1.146
83.7905 1.406
83.8208 1.302
83.8511 1.667
83.8814 1.354
83.9117 0.990
83.9419 0.833
83.9722 1.406
84.0025 1.615
84.0328 0.990
84.0631 1.458
84.0933 1.198
84.1236 1.406
84.1539 1.354
84.1842 1.302
84.2144 1.667
84.2447 1.458
84.2750 1.250
84.3053 1.198
84.3356 1.354
84.3658 1.667
84.3961 1.406
84.4264 0.990
84.4567 1.719
84.4870 2.135
84.5172 1.510
84.5475 1.146
84.5778 1.562
84.6081 1.771
84.6383 1.094
84.6686 1.458
84.6989 1.198
84.7292 1.458
84.7595 1.354
84.7897 2.135
84.8200 1.302
84.8503 1.250
84.8806 1.562
84.9109 1.198
84.9411 1.667
84.9714 1.094
85.0017 1.562
85.0320 1.615
85.0623 1.979
85.0925 1.562
85.1228 1.406
85.1531 1.510
85.1834 1.719
85.2136 1.198
85.2439 1.250
85.2742 1.042
85.3045 1.667
85.3348 1.250
85.3650 1.562
85.3953 1.406
85.4256 1.094
85.4559 2.031
85.4862 1.406
85.5164 1.198
85.5467 1.510
85.5770 1.562
85.6073 1.458
85.6375 1.198
85.6678 1.354
85.6981 1.875
85.7284 1.615
85.7587 1.250
85.7889 1.615
85.8192 1.198
85.8495 1.354
85.8798 1.354
85.9101 1.823
85.9403 1.146
85.9706 1.510
86.0009 1.302
86.0312 1.458
86.0614 1.146
86.0917 1.615
86.1220 1.458
86.1523 1.510
86.1826 1.198
86.2128 1.354
86.2431 1.875
86.2734 1.458
86.3037 1.562
86.3340 1.562
86.3642 1.771
86.3945 1.042
86.4248 1.771
86.4551 1.146
86.4853 1.667
86.5156 1.198
86.5459 1.927
86.5762 1.667
86.6065 1.302
86.6367 1.406
86.6670 1.510
86.6973 1.875
86.7276 1.719
86.7579 1.302
86.7881 1.198
86.8184 1.615
86.8487 1.615
86.8790 1.354
86.9092 2.031
86.9395 1.250
86.9698 1.771
87.0001 1.562
87.0304 1.198
87.0606 1.510
87.0909 1.615
87.1212 1.302
87.1515 1.458
87.1818 1.302
87.2120 1.198
87.2423 1.667
87.2726 1.667
87.3029 2.292
87.3331 1.250
87.3634 1.615
87.3937 1.302
87.4240 1.510
87.4543 1.667
87.4845 1.667
87.5148 2.135
87.5451 1.562
87.5754 1.875
87.6057 1.458
87.6359 1.406
87.6662 1.510
87.6965 1.771
87.7268 1.823
87.7571 1.458
87.7873 1.823
87.8176 1.615
87.8479 1.979
87.8782 1.510
87.9084 1.354
87.9387 1.198
87.9690 1.927
87.9993 1.354
88.0296 1.927
88.0598 1.250
88.0901 1.667
88.1204 1.823
88.1507 1.927
88.1810 1.823
88.2112 2.187
88.2415 1.875
88.2718 2.240
88.3021 1.667
88.3323 1.667
88.3626 1.615
88.3929 1.406
88.4232 2.031
88.4535 2.135
88.4837 1.979
88.5140 2.083
88.5443 1.615
88.5746 1.615
88.6049 1.406
88.6351 2.187
88.6654 2.031
88.6957 1.875
88.7260 2.500
88.7562 2.448
88.7865 2.292
88.8168 2.031
88.8471 2.396
88.8774 2.448
88.9076 2.604
88.9379 2.865
88.9682 2.760
88.9985 2.969
89.0288 2.135
89.0590 1.875
89.0893 2.604
89.1196 3.594
89.1499 3.021
89.1801 3.542
89.2104 3.750
89.2407 3.073
89.2710 3.542
89.3013 2.604
89.3315 4.010
89.3618 3.177
89.3921 4.375
89.4224 3.542
89.4527 3.802
89.4829 3.281
89.5132 4.010
89.5435 2.760
89.5738 4.010
89.6040 4.062
89.6343 3.437
89.6646 4.479
89.6949 3.073
89.7252 2.969
89.7554 4.010
89.7857 2.969
89.8160 3.229
89.8463 3.594
89.8766 4.062
89.9068 3.490
89.9371 2.500
89.9674 2.500
89.9977 2.552
90.0279 2.187
90.0582 2.604
90.0885 2.865
90.1188 1.823
90.1491 2.448
90.1793 3.229
90.2096 2.135
90.2399 2.448
90.2702 2.292
90.3005 1.458
90.3307 1.667
90.3610 1.979
90.3913 1.719
90.4216 2.604
90.4518 1.458
90.4821 2.396
90.5124 2.292
90.5427 1.927
90.5730 2.135
90.6032 1.458
90.6335 1.771
90.6638 2.135
90.6941 2.031
90.7244 1.927
90.7546 2.031
90.7849 2.344
90.8152 2.240
90.8455 1.510
90.8758 2.031
90.9060 2.240
90.9363 1.667
90.9666 1.510
90.9969 1.615
91.0271 1.510
91.0574 2.135
91.0877 1.979
91.1180 1.458
91.1483 2.135
91.1785 2.031
91.2088 2.031
91.2391 2.292
91.2694 1.562
91.2997 1.719
91.3299 1.927
91.3602 1.771
91.3905 1.667
91.4208 1.875
91.4510 1.562
91.4813 1.510
91.5116 2.292
91.5419 2.292
91.5722 1.719
91.6024 1.927
91.6327 1.354
91.6630 1.510
91.6933 1.979
91.7236 1.510
91.7538 1.094
91.7841 1.771
91.8144 1.667
91.8447 1.823
91.8749 2.031
91.9052 1.875
91.9355 1.927
91.9658 2.031
91.9961 1.979
92.0263 1.406
92.0566 1.406
92.0869 1.458
92.1172 2.083
92.1475 2.031
92.1777 2.187
92.2080 2.187
92.2383 2.292
92.2686 1.615
92.2988 2.031
92.3291 2.500
92.3594 1.823
92.3897 1.823
92.4200 2.240
92.4502 2.240
92.4805 2.552
92.5108 2.344
92.5411 1.927
92.5714 2.396
92.6016 2.604
92.6319 2.604
92.6622 2.292
92.6925 2.656
92.7227 2.292
92.7530 2.604
92.7833 2.135
92.8136 2.344
92.8439 2.240
92.8741 2.344
92.9044 2.448
92.9347 2.708
92.9650 2.344
92.9953 2.083
93.0255 1.771
93.0558 2.292
93.0861 1.979
93.1164 1.927
93.1466 2.031
93.1769 3.125
93.2072 2.135
93.2375 2.240
93.2678 2.240
93.2980 2.187
93.3283 1.771
93.3586 1.562
93.3889 2.292
93.4192 1.771
93.4494 1.562
93.4797 1.875
93.5100 1.771
93.5403 2.135
93.5706 1.719
93.6008 2.396
93.6311 2.187
93.6614 1.927
93.6917 2.396
93.7219 1.875
93.7522 1.562
93.7825 1.823
93.8128 1.615
93.8431 2.187
93.8733 1.875
93.9036 1.771
93.9339 2.083
93.9642 1.771
93.9945 1.719
94.0247 1.875
94.0550 2.135
94.0853 1.979
94.1156 1.875
94.1458 1.719
94.1761 2.031
94.2064 1.771
94.2367 2.187
94.2670 2.240
94.2972 2.187
94.3275 2.865
94.3578 2.604
94.3881 2.240
94.4184 1.562
94.4486 2.187
94.4789 2.083
94.5092 2.187
94.5395 2.187
94.5697 2.396
94.6000 3.177
94.6303 2.344
94.6606 2.969
94.6909 2.865
94.7211 1.667
94.7514 3.281
94.7817 3.177
94.8120 3.021
94.8423 3.229
94.8725 2.760
94.9028 3.281
94.9331 2.917
94.9634 3.073
94.9936 2.969
95.0239 3.802
95.0542 3.229
95.0845 3.229
95.1148 3.854
95.1450 4.375
95.1753 3.906
95.2056 3.542
95.2359 3.854
95.2662 3.646
95.2964 4.635
95.3267 3.698
95.3570 3.333
95.3873 4.219
95.4175 4.323
95.4478 3.646
95.4781 3.490
95.5084 3.854
95.5387 3.646
95.5689 2.969
95.5992 3.177
95.6295 2.969
95.6598 3.854
95.6901 2.031
95.7203 2.865
95.7506 3.542
95.7809 2.448
95.8112 1.927
95.8414 2.708
95.8717 2.865
95.9020 2.396
95.9323 2.187
95.9626 2.187
95.9928 2.552
96.0231 2.552
96.0534 2.708
96.0837 2.656
96.1140 1.927
96.1442 1.719
96.1745 1.927
96.2048 1.979
96.2351 2.240
96.2653 2.187
96.2956 1.771
96.3259 1.354
96.3562 1.875
96.3865 2.240
96.4167 2.240
96.4470 1.875
96.4773 1.823
96.5076 1.823
96.5379 1.615
96.5681 1.875
96.5984 2.396
96.6287 1.719
96.6590 2.240
96.6893 1.562
96.7195 1.927
96.7498 1.094
96.7801 1.510
96.8104 1.771
96.8406 1.823
96.8709 1.198
96.9012 1.771
96.9315 1.458
96.9618 2.187
96.9920 1.771
97.0223 1.771
97.0526 1.302
97.0829 1.562
97.1132 1.771
97.1434 1.771
97.1737 2.083
97.2040 2.240
97.2343 1.458
97.2645 1.771
97.2948 1.458
97.3251 1.927
97.3554 1.771
97.3857 1.823
97.4159 1.771
97.4462 1.510
97.4765 1.354
97.5068 1.771
97.5371 1.510
97.5673 1.771
97.5976 1.927
97.6279 1.094
97.6582 1.771
97.6884 2.240
97.7187 2.396
97.7490 1.458
97.7793 2.083
97.8096 1.771
97.8398 1.667
97.8701 1.979
97.9004 2.760
97.9307 1.875
97.9610 2.083
97.9912 2.344
98.0215 1.875
98.0518 2.292
98.0821 2.031
98.1123 2.604
98.1426 2.344
98.1729 2.135
98.2032 2.031
98.2335 1.927
98.2637 2.187
98.2940 3.125
98.3243 2.604
98.3546 2.552
98.3849 2.292
98.4151 2.500
98.4454 2.708
98.4757 2.969
98.5060 2.656
98.5362 2.031
98.5665 2.917
98.5968 2.187
98.6271 3.021
98.6574 2.292
98.6876 2.083
98.7179 2.917
98.7482 2.969
98.7785 2.552
98.8088 2.448
98.8390 2.083
98.8693 2.552
98.8996 2.500
98.9299 2.604
98.9601 3.177
98.9904 2.812
99.0207 2.500
99.0510 2.031
99.0813 2.344
99.1115 2.292
99.1418 2.448
99.1721 1.771
99.2024 2.500
99.2327 2.448
99.2629 2.083
99.2932 1.823
99.3235 2.135
99.3538 2.031
99.3841 1.354
99.4143 1.667
99.4446 2.083
99.4749 1.458
99.5052 1.562
99.5354 1.875
99.5657 2.344
99.5960 1.823
99.6263 1.562
99.6566 1.771
99.6868 1.823
99.7171 2.083
99.7474 1.771
99.7777 1.823
99.8080 1.979
99.8382 1.510
99.8685 2.031
99.8988 1.719
99.9291 1.562
99.9593 1.823
99.9896 1.354
100.0199 2.292
100.0502 1.771
100.0805 1.667
100.1107 1.406
100.1410 1.823
100.1713 1.823
100.2016 2.083
100.2319 1.771
100.2621 1.250
100.2924 1.667
100.3227 1.927
100.3530 1.198
100.3832 1.146
100.4135 1.354
100.4438 2.031
100.4741 1.823
100.5044 1.302
100.5346 1.354
100.5649 1.146
100.5952 1.250
100.6255 1.927
100.6558 2.083
100.6860 2.083
100.7163 1.719
100.7466 1.667
100.7769 1.823
100.8071 1.615
100.8374 1.458
100.8677 2.187
100.8980 2.031
100.9283 1.406
100.9585 1.927
100.9888 1.823
101.0191 1.719
101.0494 1.302
101.0797 1.719
101.1099 1.406
101.1402 1.771
101.1705 1.823
101.2008 1.510
101.2310 1.823
101.2613 1.979
101.2916 1.562
101.3219 1.510
101.3522 1.510
101.3824 1.667
101.4127 1.302
101.4430 1.406
101.4733 1.615
101.5036 1.562
101.5338 2.083
101.5641 1.979
101.5944 1.927
101.6247 1.354
101.6549 1.615
101.6852 1.562
101.7155 1.615
101.7458 2.292
101.7761 2.083
101.8063 2.656
101.8366 1.979
101.8669 1.823
101.8972 1.615
101.9275 1.510
101.9577 2.135
101.9880 1.771
102.0183 2.083
102.0486 1.354
102.0788 1.667
102.1091 2.083
102.1394 1.458
102.1697 1.458
102.2000 1.615
102.2302 2.396
102.2605 2.083
102.2908 2.187
102.3211 1.667
102.3514 2.031
102.3816 2.604
102.4119 2.240
102.4422 1.979
102.4725 2.448
102.5028 1.875
102.5330 1.927
102.5633 1.823
102.5936 2.135
102.6239 2.187
102.6541 1.875
102.6844 2.240
102.7147 2.344
102.7450 2.604
102.7753 2.135
102.8055 2.604
102.8358 2.292
102.8661 2.500
102.8964 2.240
102.9267 2.708
102.9569 2.656
102.9872 2.448
103.0175 2.448
103.0478 2.656
103.0780 2.552
103.1083 2.865
103.1386 2.604
103.1689 2.865
103.1992 2.708
103.2294 1.927
103.2597 2.917
103.2900 2.760
103.3203 2.135
103.3506 2.396
103.3808 2.708
103.4111 2.396
103.4414 2.240
103.4717 2.083
103.5019 1.979
103.5322 3.229
103.5625 2.656
103.5928 3.021
103.6231 2.812
103.6533 2.292
103.6836 2.292
103.7139 2.969
103.7442 3.073
103.7745 2.240
103.8047 3.542
103.8350 2.917
103.8653 2.760
103.8956 3.490
103.9258 2.969
103.9561 3.021
103.9864 3.073
104.0167 4.219
104.0470 3.802
104.0772 3.750
104.1075 3.021
104.1378 3.177
104.1681 3.177
104.1984 3.385
104.2286 3.125
104.2589 2.812
104.2892 2.604
104.3195 2.969
104.3497 2.448
104.3800 3.646
104.4103 3.281
104.4406 2.656
104.4709 2.812
104.5011 2.500
104.5314 2.812
104.5617 2.500
104.5920 2.760
104.6223 3.073
104.6525 2.969
104.6828 2.344
104.7131 3.073
104.7434 1.979
104.7736 2.396
104.8039 1.979
104.8342 1.719
104.8645 2.344
104.8948 1.979
104.9250 2.292
104.9553 1.823
104.9856 1.979
105.0159 2.448
105.0462 1.927
105.0764 2.240
105.1067 2.396
105.1370 1.979
105.1673 1.927
105.1975 2.292
105.2278 1.719
105.2581 2.240
105.2884 1.979
105.3187 1.302
105.3489 1.979
105.3792 1.823
105.4095 1.719
105.4398 1.510
105.4701 1.875
105.5003 1.719
105.5306 1.979
105.5609 2.292
105.5912 1.615
105.6215 1.562
105.6517 1.823
105.6820 1.615
105.7123 1.562
105.7426 1.302
105.7728 1.302
105.8031 1.979
105.8334 2.031
105.8637 1.719
105.8940 2.500
105.9242 1.510
105.9545 1.302
105.9848 1.250
106.0151 1.250
106.0454 1.823
106.0756 1.615
106.1059 1.667
106.1362 1.354
106.1665 1.510
106.1967 1.458
106.2270 2.031
106.2573 1.875
106.2876 1.562
106.3179 1.823
106.3481 1.875
106.3784 1.458
106.4087 1.875
106.4390 1.875
106.4693 1.615
106.4995 1.771
106.5298 2.031
106.5601 1.510
106.5904 1.979
106.6206 1.927
106.6509 1.250
106.6812 0.781
106.7115 2.031
106.7418 1.562
106.7720 1.927
106.8023 1.198
106.8326 1.771
106.8629 1.562
106.8932 1.562
106.9234 1.771
106.9537 1.615
106.9840 1.771
107.0143 1.510
107.0445 1.510
107.0748 1.719
107.1051 1.562
107.1354 1.458
107.1657 1.823
107.1959 2.240
107.2262 1.667
107.2565 1.823
107.2868 1.458
107.3171 1.875
107.3473 1.719
107.3776 1.667
107.4079 2.083
107.4382 1.771
107.4684 1.875
107.4987 1.615
107.5290 2.187
107.5593 1.823
107.5896 1.354
107.6198 1.823
107.6501 2.292
107.6804 1.510
107.7107 1.719
107.7410 1.198
107.7712 1.510
107.8015 1.562
107.8318 1.458
107.8621 1.458
107.8923 1.510
107.9226 1.562
107.9529 1.458
107.9832 1.406
108.0135 1.250
108.0437 1.667
108.0740 2.240
108.1043 2.083
108.1346 1.354
108.1649 1.510
108.1951 1.406
108.2254 2.135
108.2557 1.458
108.2860 1.510
108.3163 2.135
108.3465 0.885
108.3768 2.031
108.4071 1.927
108.4374 1.771
108.4676 1.510
108.4979 1.927
108.5282 1.562
108.5585 1.458
108.5888 1.771
108.6190 1.927
108.6493 1.146
108.6796 1.302
108.7099 1.667
108.7402 2.135
108.7704 2.031
108.8007 1.823
108.8310 2.396
108.8613 1.719
108.8915 1.510
108.9218 1.406
108.9521 1.562
108.9824 1.719
109.0127 1.406
109.0429 2.344
109.0732 1.667
109.1035 1.719
109.1338 1.562
109.1641 2.083
109.1943 1.302
109.2246 1.198
109.2549 1.562
109.2852 1.562
109.3154 1.927
109.3457 1.667
109.3760 1.615
109.4063 2.083
109.4366 1.667
109.4668 1.302
109.4971 1.979
109.5274 1.719
109.5577 1.927
109.5880 1.615
109.6182 1.615
109.6485 2.448
109.6788 2.344
109.7091 1.667
109.7393 2.083
109.7696 2.552
109.7999 1.719
109.8302 1.979
109.8605 2.240
109.8907 2.292
109.9210 1.875
109.9513 2.187
109.9816 2.812
110.0119 1.927
110.0421 2.448
110.0724 2.396
110.1027 2.500
110.1330 2.344
110.1632 2.344
110.1935 2.240
110.2238 2.240
110.2541 2.135
110.2844 2.812
110.3146 2.240
110.3449 2.240
110.3752 2.812
110.4055 2.240
110.4358 2.812
110.4660 2.708
110.4963 2.187
110.5266 2.292
110.5569 2.917
110.5871 2.240
110.6174 1.979
110.6477 2.292
110.6780 2.240
110.7083 2.344
110.7385 2.240
110.7688 2.500
110.7991 2.344
110.8294 1.979
110.8597 2.396
110.8899 2.240
110.9202 1.771
110.9505 1.406
110.9808 1.771
111.0110 2.135
111.0413 1.406
111.0716 1.510
111.1019 1.875
111.1322 2.083
111.1624 1.979
111.1927 2.292
111.2230 1.458
111.2533 2.083
111.2836 1.927
111.3138 2.240
111.3441 2.344
111.3744 1.615
111.4047 2.031
111.4350 1.458
111.4652 1.667
111.4955 1.875
111.5258 1.562
111.5561 1.875
111.5863 1.823
111.6166 1.927
111.6469 1.302
111.6772 2.292
111.7075 1.302
111.7377 2.240
111.7680 1.719
111.7983 1.667
111.8286 1.667
111.8589 1.667
111.8891 1.667
111.9194 1.562
111.9497 1.406
111.9800 1.667
112.0102 1.927
112.0405 1.354
112.0708 2.031
112.1011 1.979
112.1314 1.302
112.1616 1.302
112.1919 1.354
112.2222 1.667
112.2525 1.823
112.2828 1.823
112.3130 1.302
112.3433 1.667
112.3736 1.250
112.4039 1.979
112.4341 1.823
112.4644 0.885
112.4947 1.771
112.5250 1.510
112.5553 1.510
112.5855 1.927
112.6158 1.302
112.6461 1.354
112.6764 2.083
112.7067 1.458
112.7369 1.719
112.7672 1.510
112.7975 1.354
112.8278 1.719
112.8580 0.937
112.8883 1.719
112.9186 1.458
112.9489 1.042
112.9792 1.667
113.0094 1.875
113.0397 1.771
113.0700 1.667
113.1003 1.667
113.1306 1.719
113.1608 1.667
113.1911 1.458
113.2214 1.094
113.2517 1.510
113.2819 1.719
113.3122 1.719
113.3425 1.875
113.3728 1.354
113.4031 1.771
113.4333 1.771
113.4636 1.719
113.4939 1.771
113.5242 1.771
113.5545 2.083
113.5847 1.302
113.6150 1.094
113.6453 1.510
113.6756 1.771
113.7058 1.458
113.7361 1.771
113.7664 1.719
113.7967 1.771
113.8270 1.771
113.8572 1.615
113.8875 1.510
113.9178 1.198
113.9481 1.875
113.9784 1.458
114.0086 2.135
114.0389 1.562
114.0692 1.302
114.0995 0.990
114.1298 1.667
114.1600 1.562
114.1903 1.302
114.2206 2.187
114.2509 1.302
114.2811 1.771
114.3114 1.406
114.3417 1.562
114.3720 2.187
114.4023 1.771
114.4325 2.240
114.4628 1.615
114.4931 1.406
114.5234 1.719
114.5537 1.458
114.5839 2.135
114.6142 1.771
114.6445 2.135
114.6748 1.875
114.7050 1.771
114.7353 1.458
114.7656 1.719
114.7959 1.823
114.8262 1.823
114.8564 1.875
114.8867 2.969
114.9170 1.406
114.9473 2.083
114.9776 1.979
115.0078 2.292
115.0381 1.510
115.0684 2.135
115.0987 1.979
115.1289 1.719
115.1592 1.615
115.1895 1.719
115.2198 2.135
115.2501 2.604
115.2803 1.510
115.3106 2.552
115.3409 1.562
115.3712 2.240
115.4015 2.344
115.4317 2.656
115.4620 2.604
115.4923 2.604
115.5226 2.135
115.5528 2.812
115.5831 2.865
115.6134 2.187
115.6437 2.552
115.6740 2.604
115.7042 3.073
115.7345 3.385
115.7648 2.448
115.7951 2.969
115.8254 3.073
115.8556 3.281
115.8859 3.646
115.9162 2.865
115.9465 2.865
115.9767 3.542
116.0070 3.177
116.0373 3.594
116.0676 2.865
116.0979 3.437
116.1281 3.802
116.1584 2.708
116.1887 3.073
116.2190 4.115
116.2493 3.490
116.2795 3.125
116.3098 3.385
116.3401 3.750
116.3704 3.958
116.4006 3.385
116.4309 4.062
116.4612 3.385
116.4915 2.760
116.5218 3.437
116.5520 3.698
116.5823 3.750
116.6126 3.906
116.6429 3.229
116.6732 2.969
116.7034 3.229
116.7337 2.969
116.7640 3.125
116.7943 2.552
116.8245 2.500
116.8548 3.125
116.8851 2.083
116.9154 2.708
116.9457 2.708
116.9759 2.708
117.0062 2.656
117.0365 3.490
117.0668 2.135
117.0971 3.073
117.1273 2.083
117.1576 2.292
117.1879 2.865
117.2182 2.031
117.2485 2.292
117.2787 2.187
117.3090 2.240
117.3393 2.135
117.3696 2.187
117.3998 2.187
117.4301 1.615
117.4604 2.396
117.4907 2.135
117.5210 1.458
117.5512 1.927
117.5815 1.615
117.6118 2.708
117.6421 2.135
117.6724 1.562
117.7026 2.135
117.7329 1.406
117.7632 1.719
117.7935 2.187
117.8237 1.458
117.8540 1.667
117.8843 1.979
117.9146 1.979
117.9449 2.083
117.9751 1.510
118.0054 1.510
118.0357 1.250
118.0660 2.083
118.0963 1.354
118.1265 1.875
118.1568 1.823
118.1871 1.667
118.2174 1.979
118.2476 2.083
118.2779 1.510
118.3082 1.667
118.3385 1.875
118.3688 1.458
118.3990 2.396
118.4293 2.083
118.4596 1.250
118.4899 1.458
118.5202 1.719
118.5504 1.510
118.5807 2.031
118.6110 1.875
118.6413 1.406
118.6715 1.927
118.7018 1.667
118.7321 1.615
118.7624 1.510
118.7927 1.823
118.8229 1.875
118.8532 1.146
118.8835 1.510
118.9138 1.771
118.9441 1.458
118.9743 2.344
119.0046 1.302
119.0349 1.562
119.0652 1.406
119.0954 1.354
119.1257 1.823
119.1560 2.135
119.1863 1.302
119.2166 1.771
119.2468 1.562
119.2771 1.719
119.3074 1.562
119.3377 2.240
119.3680 1.406
119.3982 2.083
119.4285 1.823
119.4588 1.302
119.4891 1.250
119.5193 1.562
119.5496 1.667
119.5799 1.302
119.6102 1.146
119.6405 2.552
119.6707 1.823
119.7010 1.458
119.7313 1.510
119.7616 1.771
119.7919 2.031
119.8221 2.031
119.8524 1.250
119.8827 1.458
119.9130 1.510
119.9433 1.354
119.9735 1.198
120.0038 1.771
