'Id: "" Comment: "" Operator: "Lab Manager" Anode: "Cu" Scantype: "Locked Coupled" TimePerStep: "19.2" X: "9999" Y: "9999" Z: "9999" 
10.0015 3.698
10.0318 3.385
10.0620 4.115
10.0923 3.333
10.1226 4.062
10.1529 2.865
10.1832 3.750
10.2134 4.167
10.2437 3.437
10.2740 3.594
10.3043 3.802
10.3346 4.375
10.3648 3.646
10.3951 3.594
10.4254 3.333
10.4557 4.375
10.4859 3.437
10.5162 3.698
10.5465 3.854
10.5768 3.854
10.6071 3.646
10.6373 3.490
10.6676 5.469
10.6979 5.104
10.7282 5.365
10.7585 4.635
10.7887 4.792
10.8190 6.771
10.8493 5.156
10.8796 5.573
10.9098 5.885
10.9401 7.083
10.9704 8.542
11.0007 10.625
11.0310 12.969
11.0612 14.271
11.0915 14.062
11.1218 15.000
11.1521 14.219
11.1824 13.802
11.2126 13.073
11.2429 9.583
11.2732 8.125
11.3035 7.396
11.3337 6.667
11.3640 4.531
11.3943 5.000
11.4246 5.365
11.4549 5.312
11.4851 3.646
11.5154 5.052
11.5457 3.073
11.5760 3.906
11.6063 3.594
11.6365 3.906
11.6668 3.958
11.6971 3.698
11.7274 3.958
11.7577 4.375
11.7879 4.479
11.8182 4.219
11.8485 4.167
11.8788 3.490
11.9090 3.594
11.9393 3.542
11.9696 3.646
11.9999 3.021
12.0302 4.219
12.0604 3.542
12.0907 3.646
12.1210 3.958
12.1513 3.490
12.1816 3.385
12.2118 3.385
12.2421 3.281
12.2724 3.542
12.3027 3.125
12.3329 3.125
12.3632 4.479
12.3935 4.062
12.4238 3.854
12.4541 3.594
12.4843 4.062
12.5146 3.177
12.5449 3.646
12.5752 3.854
12.6055 3.698
12.6357 3.594
12.6660 3.802
12.6963 3.177
12.7266 3.750
12.7568 4.115
12.7871 3.750
12.8174 2.969
12.8477 3.333
12.8780 4.271
12.9082 4.167
12.9385 4.271
12.9688 3.750
12.9991 3.385
13.0294 3.229
13.0596 3.750
13.0899 3.958
13.1202 3.125
13.1505 3.229
13.1807 4.219
13.2110 3.802
13.2413 3.594
13.2716 3.698
13.3019 3.125
13.3321 3.385
13.3624 2.812
13.3927 3.802
13.4230 3.542
13.4533 2.708
13.4835 3.125
13.5138 4.896
13.5441 3.750
13.5744 3.229
13.6046 2.344
13.6349 2.760
13.6652 2.917
13.6955 3.490
13.7258 3.490
13.7560 3.750
13.7863 3.177
13.8166 3.698
13.8469 2.969
13.8772 3.333
13.9074 3.229
13.9377 2.604
13.9680 3.646
13.9983 2.656
14.0285 3.073
14.0588 3.281
14.0891 3.437
14.1194 2.344
14.1497 3.958
14.1799 3.333
14.2102 3.073
14.2405 3.281
14.2708 4.219
14.3011 2.292
14.3313 2.812
14.3616 3.333
14.3919 4.271
14.4222 3.073
14.4524 3.021
14.4827 3.281
14.5130 3.177
14.5433 2.396
14.5736 2.969
14.6038 3.802
14.6341 3.646
14.6644 2.865
14.6947 2.604
14.7250 3.333
14.7552 3.646
14.7855 3.542
14.8158 2.656
14.8461 2.396
14.8764 2.552
14.9066 2.500
14.9369 2.604
14.9672 3.385
14.9975 2.917
15.0277 3.437
15.0580 2.969
15.0883 3.542
15.1186 3.021
15.1489 3.281
15.1791 3.073
15.2094 2.812
15.2397 3.021
15.2700 3.906
15.3003 2.448
15.3305 3.542
15.3608 2.969
15.3911 2.708
15.4214 3.177
15.4516 2.708
15.4819 2.396
15.5122 2.135
15.5425 2.865
15.5728 2.344
15.6030 3.281
15.6333 2.969
15.6636 3.646
15.6939 2.760
15.7242 3.281
15.7544 2.969
15.7847 2.396
15.8150 3.125
15.8453 3.125
15.8755 2.552
15.9058 2.760
15.9361 3.021
15.9664 2.552
15.9967 2.344
16.0269 3.698
16.0572 3.073
16.0875 2.812
16.1178 3.177
16.1481 3.542
16.1783 2.812
16.2086 3.177
16.2389 3.177
16.2692 2.500
16.2994 3.281
16.3297 3.594
16.3600 3.125
16.3903 3.177
16.4206 3.750
16.4508 2.865
16.4811 2.917
16.5114 2.865
16.5417 2.187
16.5720 3.750
16.6022 2.708
16.6325 2.656
16.6628 2.865
16.6931 2.344
16.7233 2.917
16.7536 3.125
16.7839 2.969
16.8142 3.229
16.8445 3.542
16.8747 2.865
16.9050 2.604
16.9353 2.865
16.9656 3.385
16.9959 3.073
17.0261 4.062
17.0564 2.083
17.0867 3.021
17.1170 2.760
17.1472 2.917
17.1775 3.021
17.2078 3.542
17.2381 2.865
17.2684 3.385
17.2986 3.490
17.3289 3.073
17.3592 3.021
17.3895 2.917
17.4198 2.760
17.4500 2.240
17.4803 2.031
17.5106 2.604
17.5409 2.396
17.5712 2.812
17.6014 2.500
17.6317 3.021
17.6620 3.229
17.6923 2.969
17.7225 2.760
17.7528 3.437
17.7831 3.490
17.8134 3.073
17.8437 3.021
17.8739 2.969
17.9042 3.281
17.9345 2.656
17.9648 3.073
17.9951 3.281
18.0253 2.396
18.0556 2.708
18.0859 2.708
18.1162 2.448
18.1464 3.073
18.1767 2.604
18.2070 2.760
18.2373 2.552
18.2676 2.240
18.2978 2.292
18.3281 2.865
18.3584 2.396
18.3887 3.281
18.4190 2.865
18.4492 3.750
18.4795 2.604
18.5098 3.125
18.5401 2.396
18.5703 3.177
18.6006 3.437
18.6309 3.333
18.6612 2.969
18.6915 2.812
18.7217 3.229
18.7520 2.187
18.7823 2.969
18.8126 2.500
18.8429 3.333
18.8731 2.917
18.9034 3.281
18.9337 2.969
18.9640 3.125
18.9942 2.500
19.0245 3.125
19.0548 2.760
19.0851 3.281
19.1154 2.604
19.1456 2.604
19.1759 2.760
19.2062 3.229
19.2365 3.229
19.2668 2.240
19.2970 3.073
19.3273 1.979
19.3576 2.292
19.3879 2.135
19.4181 1.719
19.4484 2.760
19.4787 3.073
19.5090 3.021
19.5393 2.812
19.5695 2.396
19.5998 2.552
19.6301 2.604
19.6604 3.490
19.6907 2.187
19.7209 2.656
19.7512 2.292
19.7815 2.969
19.8118 3.229
19.8420 2.812
19.8723 2.760
19.9026 2.396
19.9329 2.969
19.9632 3.125
19.9934 2.448
20.0237 2.396
20.0540 2.604
20.0843 2.812
20.1146 3.073
20.1448 2.500
20.1751 2.500
20.2054 2.448
20.2357 2.917
20.2659 3.021
20.2962 2.187
20.3265 1.979
20.3568 2.135
20.3871 3.542
20.4173 2.187
20.4476 2.448
20.4779 2.344
20.5082 2.969
20.5385 3.437
20.5687 2.500
20.5990 2.187
20.6293 2.448
20.6596 3.177
20.6899 3.125
20.7201 2.865
20.7504 2.656
20.7807 2.760
20.8110 2.396
20.8412 1.875
20.8715 2.760
20.9018 2.500
20.9321 3.125
20.9624 3.073
20.9926 3.021
21.0229 2.344
21.0532 2.500
21.0835 3.073
21.1138 2.552
21.1440 2.656
21.1743 3.073
21.2046 2.552
21.2349 2.917
21.2651 2.187
21.2954 2.604
21.3257 2.135
21.3560 2.083
21.3863 3.281
21.4165 2.448
21.4468 2.448
21.4771 2.865
21.5074 3.021
21.5377 2.656
21.5679 2.292
21.5982 2.396
21.6285 2.448
21.6588 2.812
21.6890 2.396
21.7193 2.135
21.7496 2.344
21.7799 2.812
21.8102 2.500
21.8404 2.500
21.8707 2.708
21.9010 1.927
21.9313 2.448
21.9616 2.448
21.9918 2.396
22.0221 2.604
22.0524 2.396
22.0827 2.396
22.1129 2.865
22.1432 2.292
22.1735 3.177
22.2038 3.021
22.2341 2.656
22.2643 2.187
22.2946 1.927
22.3249 2.135
22.3552 2.812
22.3855 2.240
22.4157 3.073
22.4460 2.604
22.4763 2.917
22.5066 3.281
22.5368 3.490
22.5671 3.177
22.5974 2.760
22.6277 2.812
22.6580 2.812
22.6882 2.604
22.7185 2.812
22.7488 2.240
22.7791 2.604
22.8094 3.594
22.8396 1.979
22.8699 2.552
22.9002 2.292
22.9305 2.812
22.9607 2.656
22.9910 2.552
23.0213 2.604
23.0516 2.552
23.0819 2.552
23.1121 2.396
23.1424 2.708
23.1727 2.448
23.2030 2.396
23.2333 3.906
23.2635 2.604
23.2938 2.344
23.3241 2.344
23.3544 2.240
23.3846 2.135
23.4149 3.281
23.4452 2.552
23.4755 2.187
23.5058 2.552
23.5360 3.021
23.5663 2.135
23.5966 2.917
23.6269 2.187
23.6572 2.552
23.6874 2.969
23.7177 2.656
23.7480 2.552
23.7783 3.177
23.8086 2.240
23.8388 2.656
23.8691 2.604
23.8994 2.865
23.9297 2.760
23.9599 2.656
23.9902 2.760
24.0205 2.604
24.0508 2.552
24.0811 2.969
24.1113 3.177
24.1416 2.240
24.1719 2.500
24.2022 2.135
24.2325 3.646
24.2627 2.187
24.2930 1.927
24.3233 2.708
24.3536 1.927
24.3838 2.240
24.4141 2.187
24.4444 2.500
24.4747 2.656
24.5050 3.437
24.5352 2.448
24.5655 2.292
24.5958 2.292
24.6261 1.927
24.6564 2.760
24.6866 2.344
24.7169 2.760
24.7472 2.708
24.7775 2.500
24.8077 2.917
24.8380 2.760
24.8683 2.500
24.8986 2.917
24.9289 2.708
24.9591 2.031
24.9894 2.656
25.0197 2.604
25.0500 2.500
25.0803 3.073
25.1105 2.552
25.1408 2.396
25.1711 2.552
25.2014 2.448
25.2316 1.927
25.2619 2.135
25.2922 2.344
25.3225 2.656
25.3528 2.187
25.3830 2.604
25.4133 2.344
25.4436 2.344
25.4739 2.240
25.5042 3.177
25.5344 2.969
25.5647 1.667
25.5950 2.448
25.6253 2.760
25.6555 3.333
25.6858 2.240
25.7161 2.917
25.7464 3.177
25.7767 2.396
25.8069 3.333
25.8372 2.656
25.8675 2.917
25.8978 2.969
25.9281 2.917
25.9583 2.448
25.9886 2.917
26.0189 2.240
26.0492 2.500
26.0794 2.396
26.1097 2.865
26.1400 2.396
26.1703 2.187
26.2006 2.292
26.2308 2.552
26.2611 2.031
26.2914 2.552
26.3217 1.771
26.3520 3.437
26.3822 2.656
26.4125 2.708
26.4428 2.812
26.4731 2.969
26.5034 2.135
26.5336 2.448
26.5639 2.656
26.5942 2.865
26.6245 3.281
26.6547 2.552
26.6850 3.385
26.7153 1.927
26.7456 2.760
26.7759 3.281
26.8061 2.812
26.8364 2.396
26.8667 3.125
26.8970 2.552
26.9273 3.437
26.9575 2.812
26.9878 2.292
27.0181 3.229
27.0484 3.229
27.0786 3.542
27.1089 2.344
27.1392 2.396
27.1695 2.656
27.1998 2.708
27.2300 3.177
27.2603 2.865
27.2906 2.917
27.3209 2.552
27.3512 3.229
27.3814 2.917
27.4117 3.281
27.4420 3.073
27.4723 2.969
27.5025 2.292
27.5328 2.500
27.5631 3.906
27.5934 3.125
27.6237 3.177
27.6539 2.760
27.6842 3.281
27.7145 2.292
27.7448 2.969
27.7751 3.385
27.8053 2.917
27.8356 3.177
27.8659 3.021
27.8962 3.021
27.9264 3.437
27.9567 2.292
27.9870 2.396
28.0173 3.021
28.0476 3.177
28.0778 3.333
28.1081 3.594
28.1384 4.010
28.1687 3.021
28.1990 3.125
28.2292 2.865
28.2595 2.969
28.2898 2.656
28.3201 3.177
28.3503 3.021
28.3806 3.490
28.4109 3.490
28.4412 3.177
28.4715 3.229
28.5017 2.865
28.5320 3.281
28.5623 2.865
28.5926 2.969
28.6229 3.177
28.6531 4.219
28.6834 2.969
28.7137 2.969
28.7440 3.437
28.7742 3.333
28.8045 3.021
28.8348 3.125
28.8651 3.646
28.8954 3.385
28.9256 3.125
28.9559 3.385
28.9862 2.969
29.0165 3.490
29.0468 3.490
29.0770 3.594
29.1073 3.958
29.1376 4.010
29.1679 3.437
29.1981 3.333
29.2284 3.542
29.2587 3.646
29.2890 3.437
29.3193 4.062
29.3495 3.802
29.3798 3.437
29.4101 3.490
29.4404 3.333
29.4707 3.698
29.5009 3.854
29.5312 4.323
29.5615 3.385
29.5918 3.698
29.6221 3.333
29.6523 3.490
29.6826 3.958
29.7129 3.698
29.7432 3.594
29.7734 4.271
29.8037 4.271
29.8340 4.427
29.8643 4.271
29.8946 4.740
29.9248 4.271
29.9551 4.219
29.9854 4.219
30.0157 5.625
30.0460 4.271
30.0762 3.958
30.1065 4.375
30.1368 4.792
30.1671 4.792
30.1973 5.208
30.2276 4.062
30.2579 5.156
30.2882 4.687
30.3185 5.573
30.3487 5.365
30.3790 5.833
30.4093 5.781
30.4396 5.417
30.4699 6.406
30.5001 6.354
30.5304 5.156
30.5607 5.521
30.5910 5.052
30.6212 6.302
30.6515 5.781
30.6818 5.417
30.7121 7.708
30.7424 7.812
30.7726 6.667
30.8029 7.292
30.8332 7.344
30.8635 8.021
30.8938 7.344
30.9240 8.281
30.9543 8.021
30.9846 10.365
31.0149 10.104
31.0451 10.052
31.0754 10.781
31.1057 11.510
31.1360 13.281
31.1663 14.115
31.1965 13.698
31.2268 15.677
31.2571 16.927
31.2874 20.000
31.3177 19.427
31.3479 23.490
31.3782 23.854
31.4085 25.052
31.4388 29.896
31.4690 33.177
31.4993 39.115
31.5296 43.125
31.5599 45.625
31.5902 50.052
31.6204 52.240
31.6507 52.708
31.6810 51.823
31.7113 50.885
31.7416 51.354
31.7718 46.354
31.8021 38.906
31.8324 36.146
31.8627 32.917
31.8929 28.594
31.9232 24.323
31.9535 20.625
31.9838 18.646
32.0141 18.958
32.0443 17.083
32.0746 13.646
32.1049 12.187
32.1352 11.042
32.1655 13.437
32.1957 12.031
32.2260 10.312
32.2563 10.521
32.2866 8.750
32.3169 9.844
32.3471 8.177
32.3774 8.802
32.4077 8.177
32.4380 7.969
32.4682 8.490
32.4985 8.698
32.5288 7.760
32.5591 7.396
32.5894 7.396
32.6196 7.031
32.6499 6.719
32.6802 6.667
32.7105 6.615
32.7408 7.552
32.7710 6.719
32.8013 7.135
32.8316 5.156
32.8619 7.812
32.8921 6.875
32.9224 6.302
32.9527 7.031
32.9830 4.740
33.0133 5.469
33.0435 4.792
33.0738 6.250
33.1041 5.885
33.1344 5.521
33.1647 5.625
33.1949 6.146
33.2252 5.417
33.2555 6.927
33.2858 6.979
33.3160 6.198
33.3463 5.677
33.3766 6.615
33.4069 7.604
33.4372 7.708
33.4674 6.406
33.4977 6.198
33.5280 6.146
33.5583 6.458
33.5886 8.802
33.6188 6.979
33.6491 6.198
33.6794 7.760
33.7097 7.760
33.7399 7.760
33.7702 9.323
33.8005 9.479
33.8308 8.125
33.8611 10.729
33.8913 11.406
33.9216 11.719
33.9519 12.812
33.9822 13.958
34.0125 14.219
34.0427 15.156
34.0730 19.687
34.1033 20.781
34.1336 24.583
34.1638 30.104
34.1941 33.229
34.2244 45.937
34.2547 54.583
34.2850 63.490
34.3152 63.542
34.3455 65.833
34.3758 55.937
34.4061 50.885
34.4364 41.042
34.4666 34.167
34.4969 27.500
34.5272 23.177
34.5575 20.000
34.5877 17.187
34.6180 14.115
34.6483 13.021
34.6786 13.333
34.7089 12.344
34.7391 12.448
34.7694 10.104
34.7997 10.573
34.8300 9.948
34.8603 11.094
34.8905 12.656
34.9208 10.417
34.9511 8.490
34.9814 10.885
35.0116 9.427
35.0419 9.635
35.0722 10.417
35.1025 10.521
35.1328 9.896
35.1630 10.052
35.1933 10.937
35.2236 9.323
35.2539 9.740
35.2842 10.469
35.3144 11.198
35.3447 11.562
35.3750 12.812
35.4053 13.021
35.4356 12.812
35.4658 11.562
35.4961 14.583
35.5264 14.219
35.5567 15.417
35.5869 14.635
35.6172 17.917
35.6475 18.281
35.6778 19.010
35.7081 21.458
35.7383 23.021
35.7686 26.302
35.7989 30.521
35.8292 29.635
35.8595 33.021
35.8897 39.323
35.9200 43.698
35.9503 49.167
35.9806 56.198
36.0108 64.635
36.0411 67.448
36.0714 71.615
36.1017 76.875
36.1320 81.458
36.1622 82.031
36.1925 77.552
36.2228 73.698
36.2531 73.490
36.2834 63.854
36.3136 57.552
36.3439 49.010
36.3742 44.271
36.4045 38.437
36.4347 36.354
36.4650 31.562
36.4953 26.042
36.5256 26.979
36.5559 22.812
36.5861 20.677
36.6164 16.979
36.6467 16.354
36.6770 15.417
36.7073 12.552
36.7375 13.646
36.7678 12.812
36.7981 11.458
36.8284 11.510
36.8586 10.052
36.8889 10.260
36.9192 7.760
36.9495 9.687
36.9798 7.344
37.0100 7.656
37.0403 7.656
37.0706 8.542
37.1009 7.448
37.1312 6.719
37.1614 7.083
37.1917 7.917
37.2220 6.458
37.2523 6.667
37.2825 5.885
37.3128 5.885
37.3431 4.948
37.3734 5.625
37.4037 6.042
37.4339 6.719
37.4642 5.729
37.4945 5.104
37.5248 4.948
37.5551 4.844
37.5853 5.625
37.6156 4.479
37.6459 4.271
37.6762 4.948
37.7064 5.052
37.7367 4.844
37.7670 5.208
37.7973 3.698
37.8276 4.323
37.8578 4.479
37.8881 4.010
37.9184 3.385
37.9487 4.531
37.9790 4.010
38.0092 4.427
38.0395 3.958
38.0698 3.333
38.1001 3.385
38.1304 3.958
38.1606 3.177
38.1909 4.115
38.2212 3.490
38.2515 3.437
38.2817 2.760
38.3120 3.698
38.3423 3.646
38.3726 3.542
38.4029 3.385
38.4331 3.177
38.4634 3.281
38.4937 3.646
38.5240 2.917
38.5543 3.437
38.5845 3.698
38.6148 3.646
38.6451 4.115
38.6754 2.917
38.7056 3.542
38.7359 2.917
38.7662 2.969
38.7965 3.542
38.8268 3.333
38.8570 2.865
38.8873 3.125
38.9176 3.594
38.9479 2.656
38.9782 3.073
39.0084 3.333
39.0387 2.500
39.0690 3.021
39.0993 3.177
39.1295 3.906
39.1598 2.500
39.1901 2.604
39.2204 2.865
39.2507 2.604
39.2809 2.969
39.3112 2.292
39.3415 2.760
39.3718 3.437
39.4021 2.917
39.4323 2.083
39.4626 3.646
39.4929 2.396
39.5232 2.656
39.5534 2.865
39.5837 2.135
39.6140 2.292
39.6443 3.281
39.6746 2.552
39.7048 2.812
39.7351 2.552
39.7654 2.344
39.7957 3.281
39.8260 2.552
39.8562 2.500
39.8865 2.500
39.9168 1.927
39.9471 2.969
39.9773 1.875
40.0076 2.708
40.0379 2.552
40.0682 2.917
40.0985 2.604
40.1287 1.562
40.1590 2.656
40.1893 3.021
40.2196 2.396
40.2499 2.031
40.2801 2.552
40.3104 2.448
40.3407 1.927
40.3710 2.083
40.4012 1.979
40.4315 2.656
40.4618 2.500
40.4921 2.031
40.5224 2.240
40.5526 2.708
40.5829 2.083
40.6132 2.083
40.6435 2.760
40.6738 2.187
40.7040 1.927
40.7343 2.344
40.7646 2.292
40.7949 1.823
40.8251 2.448
40.8554 2.135
40.8857 2.656
40.9160 2.344
40.9463 2.292
40.9765 2.396
41.0068 2.500
41.0371 2.135
41.0674 1.719
41.0977 2.656
41.1279 2.448
41.1582 1.562
41.1885 2.344
41.2188 2.187
41.2491 2.083
41.2793 2.812
41.3096 2.760
41.3399 2.448
41.3702 2.448
41.4004 2.344
41.4307 2.135
41.4610 2.708
41.4913 2.708
41.5216 2.187
41.5518 2.552
41.5821 2.292
41.6124 2.240
41.6427 2.083
41.6730 1.979
41.7032 2.292
41.7335 2.604
41.7638 2.240
41.7941 1.927
41.8243 1.771
41.8546 2.187
41.8849 2.292
41.9152 2.552
41.9455 2.187
41.9757 2.083
42.0060 2.396
42.0363 2.031
42.0666 2.083
42.0969 1.562
42.1271 1.562
42.1574 1.979
42.1877 1.979
42.2180 2.135
42.2482 1.979
42.2785 1.823
42.3088 2.500
42.3391 2.448
42.3694 1.562
42.3996 2.187
42.4299 2.396
42.4602 2.552
42.4905 2.031
42.5208 2.031
42.5510 2.031
42.5813 2.135
42.6116 2.187
42.6419 2.135
42.6721 2.031
42.7024 2.448
42.7327 1.927
42.7630 2.031
42.7933 2.187
42.8235 2.344
42.8538 1.979
42.8841 2.344
42.9144 2.031
42.9447 1.771
42.9749 1.458
43.0052 2.135
43.0355 2.552
43.0658 1.771
43.0960 1.979
43.1263 2.396
43.1566 2.187
43.1869 1.979
43.2172 2.083
43.2474 1.562
43.2777 2.292
43.3080 1.562
43.3383 2.448
43.3686 2.448
43.3988 1.927
43.4291 2.135
43.4594 1.927
43.4897 1.875
43.5199 1.875
43.5502 2.083
43.5805 2.031
43.6108 2.187
43.6411 2.083
43.6713 1.927
43.7016 1.719
43.7319 1.927
43.7622 2.135
43.7925 2.448
43.8227 2.240
43.8530 1.979
43.8833 1.875
43.9136 2.396
43.9439 2.396
43.9741 2.135
44.0044 2.135
44.0347 1.979
44.0650 1.875
44.0952 2.031
44.1255 2.240
44.1558 2.292
44.1861 1.719
44.2164 1.823
44.2466 2.708
44.2769 2.396
44.3072 2.135
44.3375 2.135
44.3678 1.771
44.3980 2.187
44.4283 2.292
44.4586 2.031
44.4889 2.812
44.5191 1.823
44.5494 1.875
44.5797 2.812
44.6100 1.875
44.6403 2.187
44.6705 2.344
44.7008 2.604
44.7311 2.865
44.7614 2.708
44.7917 2.552
44.8219 2.812
44.8522 2.240
44.8825 2.031
44.9128 2.708
44.9430 2.552
44.9733 1.979
45.0036 1.875
45.0339 2.865
45.0642 2.812
45.0944 2.031
45.1247 2.812
45.1550 1.979
45.1853 2.500
45.2156 2.500
45.2458 2.292
45.2761 1.875
45.3064 2.448
45.3367 2.708
45.3669 2.240
45.3972 1.510
45.4275 2.656
45.4578 2.292
45.4881 2.292
45.5183 2.187
45.5486 2.760
45.5789 2.656
45.6092 2.604
45.6395 2.969
45.6697 2.865
45.7000 2.760
45.7303 2.187
45.7606 2.760
45.7908 2.708
45.8211 3.177
45.8514 2.708
45.8817 2.656
45.9120 2.656
45.9422 2.448
45.9725 2.812
46.0028 3.125
46.0331 2.187
46.0634 2.083
46.0936 2.396
46.1239 3.073
46.1542 3.125
46.1845 2.292
46.2147 2.552
46.2450 3.281
46.2753 2.969
46.3056 3.437
46.3359 3.594
46.3661 2.865
46.3964 3.021
46.4267 3.125
46.4570 3.385
46.4873 3.281
46.5175 2.917
46.5478 3.594
46.5781 4.271
46.6084 2.969
46.6386 2.865
46.6689 3.490
46.6992 3.594
46.7295 2.969
46.7598 4.323
46.7900 4.531
46.8203 4.844
46.8506 4.375
46.8809 3.802
46.9112 4.583
46.9414 5.573
46.9717 5.260
47.0020 6.615
47.0323 6.771
47.0626 6.094
47.0928 8.385
47.1231 8.906
47.1534 9.479
47.1837 10.312
47.2139 10.729
47.2442 11.771
47.2745 15.052
47.3048 16.458
47.3351 14.271
47.3653 17.083
47.3956 16.406
47.4259 17.917
47.4562 16.250
47.4865 18.229
47.5167 16.927
47.5470 15.833
47.5773 14.948
47.6076 13.906
47.6378 10.885
47.6681 11.458
47.6984 10.937
47.7287 8.229
47.7590 7.865
47.7892 6.667
47.8195 7.240
47.8498 7.083
47.8801 7.396
47.9104 5.156
47.9406 4.375
47.9709 4.948
48.0012 4.740
48.0315 5.312
48.0617 4.323
48.0920 3.906
48.1223 3.594
48.1526 3.802
48.1829 3.594
48.2131 2.865
48.2434 3.125
48.2737 3.073
48.3040 3.021
48.3343 2.604
48.3645 2.760
48.3948 2.760
48.4251 2.812
48.4554 3.021
48.4856 2.552
48.5159 3.385
48.5462 2.812
48.5765 2.135
48.6068 2.812
48.6370 1.979
48.6673 3.229
48.6976 2.917
48.7279 2.812
48.7582 2.812
48.7884 2.396
48.8187 2.708
48.8490 2.448
48.8793 2.344
48.9095 2.344
48.9398 2.552
48.9701 2.656
49.0004 2.656
49.0307 2.187
49.0609 2.969
49.0912 2.083
49.1215 2.760
49.1518 2.448
49.1821 2.187
49.2123 2.552
49.2426 2.135
49.2729 2.552
49.3032 1.823
49.3334 2.604
49.3637 2.656
49.3940 2.604
49.4243 2.083
49.4546 2.396
49.4848 2.240
49.5151 2.031
49.5454 2.187
49.5757 2.083
49.6060 2.500
49.6362 2.031
49.6665 2.240
49.6968 2.240
49.7271 1.927
49.7574 1.354
49.7876 2.135
49.8179 2.083
49.8482 2.500
49.8785 2.708
49.9087 1.562
49.9390 2.135
49.9693 2.187
49.9996 1.875
50.0299 2.135
50.0601 2.135
50.0904 2.552
50.1207 2.656
50.1510 2.187
50.1813 2.500
50.2115 1.615
50.2418 2.604
50.2721 1.979
50.3024 2.083
50.3326 2.865
50.3629 1.354
50.3932 2.083
50.4235 2.031
50.4538 2.135
50.4840 1.510
50.5143 1.823
50.5446 2.135
50.5749 2.135
50.6052 1.875
50.6354 1.979
50.6657 1.458
50.6960 1.823
50.7263 2.240
50.7565 1.667
50.7868 1.406
50.8171 2.187
50.8474 2.031
50.8777 2.604
50.9079 1.823
50.9382 2.396
50.9685 1.927
50.9988 2.292
51.0291 2.240
51.0593 2.448
51.0896 2.240
51.1199 2.187
51.1502 2.083
51.1804 2.344
51.2107 2.187
51.2410 2.708
51.2713 1.979
51.3016 2.083
51.3318 1.927
51.3621 1.667
51.3924 1.875
51.4227 2.396
51.4530 1.927
51.4832 1.875
51.5135 1.927
51.5438 2.240
51.5741 1.979
51.6043 2.031
51.6346 2.083
51.6649 2.552
51.6952 1.823
51.7255 2.448
51.7557 1.979
51.7860 1.979
51.8163 1.562
51.8466 2.135
51.8769 1.771
51.9071 1.094
51.9374 1.979
51.9677 2.292
51.9980 1.927
52.0282 1.875
52.0585 2.083
52.0888 1.615
52.1191 2.344
52.1494 1.771
52.1796 2.344
52.2099 2.083
52.2402 2.187
52.2705 2.344
52.3008 1.927
52.3310 2.240
52.3613 2.083
52.3916 1.406
52.4219 2.500
52.4521 1.927
52.4824 2.292
52.5127 1.458
52.5430 2.240
52.5733 1.875
52.6035 2.187
52.6338 1.875
52.6641 1.615
52.6944 2.552
52.7247 2.135
52.7549 2.292
52.7852 1.719
52.8155 2.187
52.8458 2.135
52.8761 2.031
52.9063 1.979
52.9366 2.240
52.9669 2.031
52.9972 2.292
53.0274 2.604
53.0577 2.240
53.0880 1.875
53.1183 1.875
53.1486 2.396
53.1788 2.500
53.2091 2.292
53.2394 1.875
53.2697 2.083
53.3000 2.135
53.3302 2.240
53.3605 1.927
53.3908 1.615
53.4211 2.083
53.4513 3.177
53.4816 2.240
53.5119 2.500
53.5422 2.396
53.5725 2.187
53.6027 2.135
53.6330 1.719
53.6633 2.396
53.6936 2.708
53.7239 2.292
53.7541 2.083
53.7844 1.823
53.8147 2.708
53.8450 1.823
53.8752 2.187
53.9055 2.344
53.9358 2.240
53.9661 2.135
53.9964 2.604
54.0266 2.500
54.0569 1.719
54.0872 2.396
54.1175 2.292
54.1478 3.281
54.1780 3.229
54.2083 2.604
54.2386 2.656
54.2689 1.771
54.2991 2.500
54.3294 2.917
54.3597 2.135
54.3900 1.562
54.4203 2.396
54.4505 3.073
54.4808 2.604
54.5111 2.344
54.5414 2.604
54.5717 2.604
54.6019 2.760
54.6322 2.656
54.6625 2.604
54.6928 1.875
54.7230 1.927
54.7533 2.292
54.7836 3.333
54.8139 2.500
54.8442 2.865
54.8744 2.031
54.9047 2.917
54.9350 3.073
54.9653 2.969
54.9956 3.125
55.0258 3.073
55.0561 3.802
55.0864 3.125
55.1167 2.448
55.1469 2.760
55.1772 2.552
55.2075 3.646
55.2378 2.865
55.2681 3.229
55.2983 3.229
55.3286 2.760
55.3589 3.490
55.3892 3.281
55.4195 3.385
55.4497 3.073
55.4800 3.229
55.5103 3.490
55.5406 2.917
55.5709 3.490
55.6011 4.010
55.6314 4.479
55.6617 4.844
55.6920 5.052
55.7222 4.583
55.7525 4.427
55.7828 4.427
55.8131 4.010
55.8434 5.937
55.8736 5.521
55.9039 6.146
55.9342 5.156
55.9645 6.719
55.9948 6.406
56.0250 6.823
56.0553 7.812
56.0856 8.333
56.1159 8.073
56.1461 9.479
56.1764 10.573
56.2067 11.302
56.2370 12.552
56.2673 14.583
56.2975 15.365
56.3278 15.781
56.3581 18.385
56.3884 19.948
56.4187 20.573
56.4489 21.354
56.4792 23.177
56.5095 22.604
56.5398 21.510
56.5700 20.260
56.6003 18.750
56.6306 18.385
56.6609 17.292
56.6912 15.365
56.7214 13.281
56.7517 12.396
56.7820 11.354
56.8123 8.906
56.8426 9.062
56.8728 8.958
56.9031 11.094
56.9334 8.229
56.9637 7.292
56.9939 6.875
57.0242 6.510
57.0545 6.042
57.0848 4.635
57.1151 5.833
57.1453 5.260
57.1756 4.948
57.2059 4.062
57.2362 4.896
57.2665 4.062
57.2967 3.958
57.3270 3.437
57.3573 3.854
57.3876 3.958
57.4178 2.969
57.4481 3.698
57.4784 3.698
57.5087 2.969
57.5390 3.281
57.5692 3.854
57.5995 2.500
57.6298 3.646
57.6601 3.281
57.6904 3.125
57.7206 3.073
57.7509 3.021
57.7812 3.281
57.8115 2.708
57.8417 2.969
57.8720 3.021
57.9023 2.969
57.9326 2.240
57.9629 2.604
57.9931 2.552
58.0234 1.979
58.0537 2.396
58.0840 2.865
58.1143 2.344
58.1445 3.073
58.1748 2.500
58.2051 2.969
58.2354 2.552
58.2656 2.552
58.2959 2.656
58.3262 2.865
58.3565 3.385
58.3868 2.135
58.4170 3.125
58.4473 2.031
58.4776 2.865
58.5079 1.562
58.5382 2.656
58.5684 3.646
58.5987 2.500
58.6290 2.552
58.6593 2.656
58.6896 2.812
58.7198 2.500
58.7501 1.979
58.7804 2.865
58.8107 2.448
58.8409 2.083
58.8712 2.344
58.9015 2.500
58.9318 2.187
58.9621 1.875
58.9923 2.135
59.0226 1.979
59.0529 1.875
59.0832 2.396
59.1135 1.979
59.1437 2.240
59.1740 2.240
59.2043 2.448
59.2346 2.135
59.2648 1.875
59.2951 2.187
59.3254 2.187
59.3557 1.719
59.3860 2.083
59.4162 1.771
59.4465 1.979
59.4768 2.448
59.5071 1.875
59.5374 2.552
59.5676 1.823
59.5979 2.031
59.6282 2.865
59.6585 2.500
59.6887 2.969
59.7190 2.656
59.7493 1.979
59.7796 2.135
59.8099 2.396
59.8401 2.604
59.8704 2.135
59.9007 2.292
59.9310 2.708
59.9613 2.083
59.9915 1.823
60.0218 2.500
60.0521 2.083
60.0824 2.031
60.1126 2.031
60.1429 2.604
60.1732 2.760
60.2035 2.083
60.2338 2.396
60.2640 2.344
60.2943 2.500
60.3246 2.396
60.3549 1.979
60.3852 2.708
60.4154 1.979
60.4457 1.979
60.4760 2.240
60.5063 2.656
60.5365 1.823
60.5668 2.240
60.5971 2.708
60.6274 2.812
60.6577 2.604
60.6879 1.979
60.7182 2.083
60.7485 2.083
60.7788 2.604
60.8091 2.865
60.8393 3.125
60.8696 1.979
60.8999 2.292
60.9302 2.760
60.9604 2.708
60.9907 2.656
61.0210 2.604
61.0513 3.177
61.0816 3.021
61.1118 2.760
61.1421 2.135
61.1724 3.177
61.2027 2.396
61.2330 2.448
61.2632 2.396
61.2935 3.229
61.3238 2.708
61.3541 3.125
61.3844 2.865
61.4146 2.656
61.4449 3.125
61.4752 3.125
61.5055 2.812
61.5357 1.771
61.5660 2.656
61.5963 3.021
61.6266 2.917
61.6569 2.187
61.6871 4.115
61.7174 2.865
61.7477 3.594
61.7780 3.646
61.8083 4.271
61.8385 3.333
61.8688 3.802
61.8991 3.437
61.9294 3.229
61.9596 3.594
61.9899 4.219
62.0202 4.115
62.0505 4.948
62.0808 4.323
62.1110 4.323
62.1413 5.156
62.1716 5.260
62.2019 6.667
62.2322 5.521
62.2624 7.083
62.2927 6.510
62.3230 6.667
62.3533 8.646
62.3835 7.812
62.4138 9.115
62.4441 9.479
62.4744 10.365
62.5047 10.417
62.5349 12.552
62.5652 12.760
62.5955 14.531
62.6258 15.781
62.6561 17.917
62.6863 18.229
62.7166 19.271
62.7469 18.698
62.7772 17.292
62.8074 19.531
62.8377 17.240
62.8680 16.354
62.8983 17.552
62.9286 14.583
62.9588 15.469
62.9891 12.865
63.0194 13.125
63.0497 11.458
63.0800 9.323
63.1102 10.885
63.1405 8.646
63.1708 7.135
63.2011 7.500
63.2313 7.552
63.2616 6.302
63.2919 4.948
63.3222 5.365
63.3525 5.365
63.3827 5.573
63.4130 4.427
63.4433 4.531
63.4736 4.635
63.5039 4.792
63.5341 3.385
63.5644 3.698
63.5947 3.229
63.6250 3.125
63.6552 3.333
63.6855 3.854
63.7158 3.490
63.7461 3.542
63.7764 2.760
63.8066 3.646
63.8369 2.760
63.8672 2.969
63.8975 2.396
63.9278 3.021
63.9580 2.604
63.9883 2.812
64.0186 3.542
64.0489 3.125
64.0791 2.917
64.1094 2.969
64.1397 1.979
64.1700 2.396
64.2003 3.437
64.2305 2.969
64.2608 2.500
64.2911 3.021
64.3214 2.812
64.3517 2.760
64.3819 3.073
64.4122 1.927
64.4425 2.396
64.4728 2.187
64.5031 2.187
64.5333 3.021
64.5636 2.917
64.5939 2.240
64.6242 2.500
64.6544 2.969
64.6847 2.344
64.7150 2.396
64.7453 3.021
64.7756 2.344
64.8058 2.292
64.8361 2.812
64.8664 2.448
64.8967 2.656
64.9270 2.344
64.9572 2.760
64.9875 2.656
65.0178 2.604
65.0481 2.865
65.0783 2.240
65.1086 2.708
65.1389 2.604
65.1692 2.604
65.1995 3.542
65.2297 2.969
65.2600 1.927
65.2903 2.552
65.3206 2.604
65.3509 2.917
65.3811 2.812
65.4114 2.396
65.4417 2.917
65.4720 2.292
65.5022 3.698
65.5325 2.135
65.5628 3.073
65.5931 2.917
65.6234 2.917
65.6536 2.708
65.6839 3.073
65.7142 3.177
65.7445 2.396
65.7748 3.490
65.8050 3.750
65.8353 3.490
65.8656 3.490
65.8959 3.177
65.9261 3.542
65.9564 3.594
65.9867 4.010
66.0170 3.385
66.0473 2.969
66.0775 4.375
66.1078 3.854
66.1381 4.792
66.1684 4.115
66.1987 4.427
66.2289 4.115
66.2592 3.437
66.2895 4.792
66.3198 4.271
66.3500 4.010
66.3803 4.167
66.4106 4.687
66.4409 4.635
66.4712 4.115
66.5014 4.010
66.5317 4.531
66.5620 4.010
66.5923 3.906
66.6226 3.750
66.6528 3.906
66.6831 4.062
66.7134 3.437
66.7437 3.542
66.7739 3.385
66.8042 4.271
66.8345 3.698
66.8648 3.646
66.8951 4.115
66.9253 4.010
66.9556 4.948
66.9859 4.375
67.0162 4.010
67.0465 4.687
67.0767 3.385
67.1070 4.167
67.1373 4.167
67.1676 4.948
67.1978 3.750
67.2281 4.531
67.2584 4.844
67.2887 4.948
67.3190 5.000
67.3492 5.729
67.3795 5.885
67.4098 7.135
67.4401 7.240
67.4704 6.354
67.5006 7.656
67.5309 8.021
67.5612 7.708
67.5915 9.635
67.6218 9.531
67.6520 12.240
67.6823 11.510
67.7126 13.490
67.7429 12.917
67.7731 13.646
67.8034 12.865
67.8337 13.646
67.8640 13.854
67.8943 14.219
67.9245 12.760
67.9548 15.052
67.9851 12.917
68.0154 11.615
68.0457 13.073
68.0759 12.604
68.1062 10.260
68.1365 9.844
68.1668 9.479
68.1970 8.073
68.2273 7.552
68.2576 7.917
68.2879 7.135
68.3182 7.448
68.3484 6.615
68.3787 6.510
68.4090 6.927
68.4393 6.250
68.4696 6.354
68.4998 5.469
68.5301 5.312
68.5604 6.354
68.5907 6.146
68.6209 6.250
68.6512 6.406
68.6815 6.458
68.7118 6.198
68.7421 7.448
68.7723 5.937
68.8026 6.458
68.8329 7.448
68.8632 7.969
68.8935 8.802
68.9237 7.240
68.9540 9.062
68.9843 7.656
69.0146 9.167
69.0448 7.604
69.0751 8.542
69.1054 6.302
69.1357 7.604
69.1660 7.135
69.1962 7.656
69.2265 5.937
69.2568 6.250
69.2871 6.823
69.3174 5.260
69.3476 4.479
69.3779 4.167
69.4082 4.323
69.4385 3.854
69.4687 4.271
69.4990 4.219
69.5293 3.750
69.5596 2.656
69.5899 4.010
69.6201 3.646
69.6504 2.760
69.6807 3.021
69.7110 3.646
69.7413 3.073
69.7715 3.073
69.8018 2.812
69.8321 2.500
69.8624 2.187
69.8926 2.448
69.9229 2.500
69.9532 3.385
69.9835 2.292
70.0138 3.125
70.0440 2.448
70.0743 2.240
70.1046 2.240
70.1349 2.656
70.1652 2.500
70.1954 1.875
70.2257 1.771
70.2560 2.240
70.2863 2.604
70.3166 1.719
70.3468 2.292
70.3771 2.917
70.4074 2.292
70.4377 2.396
70.4679 2.292
70.4982 1.927
70.5285 2.344
70.5588 1.771
70.5891 2.292
70.6193 2.292
70.6496 2.917
70.6799 2.135
70.7102 2.292
70.7405 1.146
70.7707 1.771
70.8010 2.292
70.8313 1.562
70.8616 2.292
70.8918 1.458
70.9221 1.823
70.9524 1.771
70.9827 1.875
71.0130 1.250
71.0432 1.146
71.0735 1.667
71.1038 1.719
71.1341 2.135
71.1644 1.719
71.1946 1.719
71.2249 1.250
71.2552 2.083
71.2855 1.510
71.3157 2.187
71.3460 1.771
71.3763 1.719
71.4066 2.448
71.4369 1.771
71.4671 1.823
71.4974 1.615
71.5277 1.823
71.5580 2.240
71.5883 1.302
71.6185 1.302
71.6488 1.771
71.6791 2.500
71.7094 1.615
71.7396 1.771
71.7699 1.302
71.8002 1.719
71.8305 1.667
71.8608 1.719
71.8910 2.552
71.9213 2.240
71.9516 2.135
71.9819 2.500
72.0122 1.927
72.0424 2.187
72.0727 1.771
72.1030 1.510
72.1333 2.187
72.1635 2.344
72.1938 2.187
72.2241 2.344
72.2544 1.771
72.2847 2.917
72.3149 1.823
72.3452 2.552
72.3755 3.021
72.4058 3.021
72.4361 2.969
72.4663 2.187
72.4966 2.917
72.5269 2.917
72.5572 3.021
72.5874 2.396
72.6177 3.281
72.6480 2.656
72.6783 2.656
72.7086 2.760
72.7388 2.083
72.7691 2.552
72.7994 3.073
72.8297 2.083
72.8600 2.240
72.8902 2.135
72.9205 2.031
72.9508 2.448
72.9811 1.615
73.0113 2.240
73.0416 2.344
73.0719 2.083
73.1022 1.979
73.1325 1.250
73.1627 1.771
73.1930 1.094
73.2233 1.719
73.2536 1.719
73.2839 1.458
73.3141 1.615
73.3444 1.250
73.3747 1.458
73.4050 1.719
73.4353 0.885
73.4655 1.615
73.4958 1.719
73.5261 2.240
73.5564 1.354
73.5866 1.667
73.6169 1.562
73.6472 1.615
73.6775 1.875
73.7078 1.406
73.7380 1.510
73.7683 1.094
73.7986 1.250
73.8289 1.302
73.8592 2.083
73.8894 1.667
73.9197 1.719
73.9500 1.719
73.9803 1.406
74.0105 1.667
74.0408 1.979
74.0711 1.250
74.1014 1.771
74.1317 1.302
74.1619 1.458
74.1922 1.823
74.2225 1.771
74.2528 1.719
74.2831 1.510
74.3133 1.615
74.3436 2.083
74.3739 1.458
74.4042 1.406
74.4344 2.083
74.4647 1.302
74.4950 1.250
74.5253 1.719
74.5556 1.198
74.5858 1.719
74.6161 1.562
74.6464 1.094
74.6767 1.667
74.7070 1.615
74.7372 1.719
74.7675 1.719
74.7978 1.458
74.8281 1.510
74.8583 2.031
74.8886 1.667
74.9189 1.406
74.9492 1.823
74.9795 1.562
75.0097 1.302
75.0400 1.615
75.0703 1.615
75.1006 1.615
75.1309 1.667
75.1611 1.458
75.1914 1.198
75.2217 1.406
75.2520 1.510
75.2822 1.146
75.3125 1.094
75.3428 1.146
75.3731 1.771
75.4034 1.458
75.4336 1.510
75.4639 1.719
75.4942 1.562
75.5245 2.135
75.5548 1.562
75.5850 1.458
75.6153 1.510
75.6456 1.562
75.6759 1.458
75.7061 1.823
75.7364 1.823
75.7667 1.771
75.7970 1.667
75.8273 1.823
75.8575 1.823
75.8878 1.510
75.9181 1.510
75.9484 1.354
75.9787 1.875
76.0089 1.198
76.0392 1.875
76.0695 1.875
76.0998 1.667
76.1301 1.823
76.1603 1.927
76.1906 1.615
76.2209 1.667
76.2512 2.083
76.2814 1.875
76.3117 1.823
76.3420 1.979
76.3723 2.135
76.4026 2.240
76.4328 2.187
76.4631 2.083
76.4934 1.771
76.5237 2.292
76.5540 2.031
76.5842 2.708
76.6145 1.823
76.6448 2.240
76.6751 2.917
76.7053 3.646
76.7356 3.073
76.7659 2.604
76.7962 3.021
76.8265 2.292
76.8567 3.073
76.8870 3.073
76.9173 3.333
76.9476 3.802
76.9779 2.500
77.0081 3.021
77.0384 2.604
77.0687 2.760
77.0990 3.333
77.1292 2.969
77.1595 2.135
77.1898 2.187
77.2201 2.344
77.2504 2.656
77.2806 2.083
77.3109 3.021
77.3412 2.240
77.3715 1.823
77.4018 2.292
77.4320 2.344
77.4623 1.927
77.4926 1.146
77.5229 1.667
77.5531 1.667
77.5834 1.979
77.6137 1.406
77.6440 1.667
77.6743 1.979
77.7045 1.875
77.7348 1.823
77.7651 1.979
77.7954 1.198
77.8257 1.250
77.8559 1.458
77.8862 2.135
77.9165 1.667
77.9468 1.667
77.9770 1.823
78.0073 1.354
78.0376 1.562
78.0679 1.250
78.0982 1.354
78.1284 1.250
78.1587 1.510
78.1890 1.458
78.2193 1.615
78.2496 1.302
78.2798 1.927
78.3101 1.354
78.3404 1.198
78.3707 1.406
78.4009 1.979
78.4312 1.771
78.4615 1.562
78.4918 1.667
78.5221 1.562
78.5523 1.458
78.5826 1.510
78.6129 1.458
78.6432 1.042
78.6735 1.719
78.7037 1.562
78.7340 1.406
78.7643 1.094
78.7946 1.198
78.8248 1.719
78.8551 1.823
78.8854 1.198
78.9157 1.615
78.9460 0.937
78.9762 1.927
79.0065 1.667
79.0368 1.927
79.0671 1.667
79.0974 1.406
79.1276 1.406
79.1579 1.198
79.1882 1.302
79.2185 0.990
79.2488 1.042
79.2790 1.250
79.3093 1.771
79.3396 1.458
79.3699 1.250
79.4001 1.354
79.4304 1.562
79.4607 1.719
79.4910 1.406
79.5213 1.406
79.5515 1.458
79.5818 1.458
79.6121 1.667
79.6424 1.146
79.6727 1.771
79.7029 1.094
79.7332 1.406
79.7635 1.146
79.7938 1.771
79.8240 1.927
79.8543 1.615
79.8846 1.979
79.9149 1.562
79.9452 1.406
79.9754 1.510
80.0057 1.302
80.0360 1.823
80.0663 1.354
80.0966 1.250
80.1268 1.875
80.1571 1.771
80.1874 1.667
80.2177 1.875
80.2479 1.510
80.2782 1.354
80.3085 1.354
80.3388 1.667
80.3691 0.885
80.3993 1.198
80.4296 1.771
80.4599 1.771
80.4902 1.719
80.5205 1.875
80.5507 1.667
80.5810 1.927
80.6113 1.979
80.6416 1.823
80.6718 1.354
80.7021 1.458
80.7324 1.354
80.7627 1.823
80.7930 2.135
80.8232 1.667
80.8535 1.771
80.8838 1.354
80.9141 1.458
80.9444 2.292
80.9746 1.562
81.0049 2.135
81.0352 2.344
81.0655 1.927
81.0957 1.979
81.1260 1.458
81.1563 2.083
81.1866 1.927
81.2169 1.823
81.2471 2.396
81.2774 2.500
81.3077 2.292
81.3380 1.875
81.3683 2.500
81.3985 1.979
81.4288 2.135
81.4591 1.823
81.4894 2.917
81.5196 1.823
81.5499 1.198
81.5802 2.187
81.6105 1.771
81.6408 1.094
81.6710 1.927
81.7013 1.562
81.7316 1.667
81.7619 1.354
81.7922 2.187
81.8224 2.083
81.8527 1.562
81.8830 1.667
81.9133 1.667
81.9436 1.562
81.9738 1.406
82.0041 1.250
82.0344 1.562
82.0647 1.875
82.0949 1.719
82.1252 1.354
82.1555 1.042
82.1858 1.771
82.2161 1.458
82.2463 1.562
82.2766 1.823
82.3069 1.510
82.3372 1.719
82.3675 0.990
82.3977 1.458
82.4280 1.458
82.4583 1.458
82.4886 1.667
82.5188 1.562
82.5491 1.406
82.5794 1.146
82.6097 2.031
82.6400 1.406
82.6702 1.354
82.7005 1.771
82.7308 1.250
82.7611 1.771
82.7914 1.510
82.8216 1.510
82.8519 1.615
82.8822 1.198
82.9125 1.458
82.9427 1.667
82.9730 1.250
83.0033 1.354
83.0336 1.302
83.0639 1.250
83.0941 1.458
83.1244 1.510
83.1547 1.198
83.1850 1.250
83.2153 1.667
83.2455 1.042
83.2758 1.719
83.3061 1.458
83.3364 1.302
83.3666 1.458
83.3969 1.615
83.4272 1.667
83.4575 0.990
83.4878 1.302
83.5180 1.094
83.5483 1.146
83.5786 1.406
83.6089 1.354
83.6392 1.875
83.6694 1.458
83.6997 1.458
83.7300 1.771
83.7603 1.823
83.7905 1.510
83.8208 1.302
83.8511 1.667
83.8814 1.146
83.9117 1.510
83.9419 1.354
83.9722 1.198
84.0025 1.562
84.0328 1.198
84.0631 1.510
84.0933 1.510
84.1236 1.302
84.1539 1.458
84.1842 1.302
84.2144 1.667
84.2447 1.198
84.2750 1.042
84.3053 1.667
84.3356 0.937
84.3658 1.094
84.3961 1.406
84.4264 1.771
84.4567 1.667
84.4870 1.406
84.5172 1.562
84.5475 1.302
84.5778 1.771
84.6081 1.562
84.6383 0.885
84.6686 1.510
84.6989 1.667
84.7292 1.406
84.7595 1.562
84.7897 1.354
84.8200 1.094
84.8503 1.562
84.8806 0.990
84.9109 1.562
84.9411 1.198
84.9714 1.094
85.0017 1.406
85.0320 1.354
85.0623 1.146
85.0925 1.458
85.1228 1.094
85.1531 1.927
85.1834 1.771
85.2136 0.937
85.2439 1.094
85.2742 1.302
85.3045 0.937
85.3348 1.250
85.3650 1.250
85.3953 1.094
85.4256 1.875
85.4559 1.406
85.4862 1.198
85.5164 1.198
85.5467 1.458
85.5770 1.146
85.6073 1.146
85.6375 0.937
85.6678 1.875
85.6981 1.667
85.7284 1.302
85.7587 1.510
85.7889 1.250
85.8192 1.458
85.8495 1.458
85.8798 1.094
85.9101 1.615
85.9403 2.083
85.9706 1.458
86.0009 0.937
86.0312 1.198
86.0614 1.615
86.0917 1.094
86.1220 1.094
86.1523 1.406
86.1826 1.458
86.2128 2.031
86.2431 1.458
86.2734 1.250
86.3037 1.354
86.3340 1.510
86.3642 1.198
86.3945 1.458
86.4248 1.771
86.4551 1.562
86.4853 1.979
86.5156 1.667
86.5459 1.354
86.5762 1.406
86.6065 1.354
86.6367 1.458
86.6670 1.667
86.6973 1.198
86.7276 1.406
86.7579 1.667
86.7881 1.615
86.8184 0.937
86.8487 1.406
86.8790 1.719
86.9092 1.562
86.9395 1.562
86.9698 1.979
87.0001 1.875
87.0304 1.719
87.0606 1.719
87.0909 1.302
87.1212 1.302
87.1515 1.198
87.1818 1.302
87.2120 0.990
87.2423 1.354
87.2726 1.458
87.3029 2.083
87.3331 1.615
87.3634 1.354
87.3937 1.458
87.4240 1.146
87.4543 1.302
87.4845 1.823
87.5148 2.083
87.5451 1.146
87.5754 1.719
87.6057 1.771
87.6359 1.458
87.6662 1.354
87.6965 1.562
87.7268 1.198
87.7571 1.979
87.7873 1.562
87.8176 2.135
87.8479 1.875
87.8782 0.937
87.9084 1.667
87.9387 1.250
87.9690 1.667
87.9993 1.719
88.0296 1.146
88.0598 1.458
88.0901 2.135
88.1204 1.719
88.1507 1.615
88.1810 1.354
88.2112 2.135
88.2415 1.198
88.2718 2.240
88.3021 1.406
88.3323 1.667
88.3626 1.667
88.3929 1.406
88.4232 1.667
88.4535 1.562
88.4837 1.979
88.5140 1.927
88.5443 1.927
88.5746 1.823
88.6049 1.719
88.6351 2.135
88.6654 1.615
88.6957 2.396
88.7260 2.031
88.7562 2.031
88.7865 2.240
88.8168 1.979
88.8471 2.552
88.8774 2.031
88.9076 2.083
88.9379 2.135
88.9682 2.187
88.9985 2.344
89.0288 2.812
89.0590 2.604
89.0893 2.760
89.1196 2.969
89.1499 2.708
89.1801 2.969
89.2104 2.604
89.2407 3.490
89.2710 3.177
89.3013 3.281
89.3315 3.542
89.3618 3.594
89.3921 4.010
89.4224 3.698
89.4527 4.062
89.4829 4.115
89.5132 3.802
89.5435 4.844
89.5738 3.906
89.6040 3.594
89.6343 3.750
89.6646 4.271
89.6949 4.583
89.7252 3.854
89.7554 3.646
89.7857 3.854
89.8160 3.073
89.8463 3.802
89.8766 3.594
89.9068 3.542
89.9371 3.385
89.9674 3.854
89.9977 3.177
90.0279 3.437
90.0582 3.177
90.0885 2.448
90.1188 3.542
90.1491 2.500
90.1793 2.135
90.2096 2.865
90.2399 2.500
90.2702 1.719
90.3005 2.656
90.3307 1.927
90.3610 1.667
90.3913 2.187
90.4216 1.979
90.4518 1.719
90.4821 1.667
90.5124 1.927
90.5427 2.135
90.5730 1.823
90.6032 1.406
90.6335 2.135
90.6638 2.240
90.6941 1.615
90.7244 1.979
90.7546 1.615
90.7849 1.510
90.8152 2.135
90.8455 1.510
90.8758 1.406
90.9060 1.354
90.9363 1.562
90.9666 1.250
90.9969 1.719
91.0271 1.875
91.0574 1.458
91.0877 1.823
91.1180 2.396
91.1483 1.979
91.1785 1.562
91.2088 1.406
91.2391 1.823
91.2694 1.667
91.2997 2.135
91.3299 1.094
91.3602 1.562
91.3905 1.719
91.4208 1.667
91.4510 1.302
91.4813 1.875
91.5116 1.458
91.5419 1.615
91.5722 1.510
91.6024 1.406
91.6327 1.510
91.6630 2.240
91.6933 1.406
91.7236 1.667
91.7538 1.458
91.7841 1.510
91.8144 2.240
91.8447 2.240
91.8749 1.771
91.9052 1.615
91.9355 1.823
91.9658 1.667
91.9961 1.562
92.0263 1.771
92.0566 1.562
92.0869 2.344
92.1172 2.448
92.1475 1.823
92.1777 1.719
92.2080 1.615
92.2383 2.083
92.2686 2.292
92.2988 2.031
92.3291 2.708
92.3594 2.604
92.3897 1.667
92.4200 2.083
92.4502 1.875
92.4805 1.927
92.5108 2.500
92.5411 2.187
92.5714 2.604
92.6016 2.396
92.6319 2.656
92.6622 2.187
92.6925 3.021
92.7227 2.969
92.7530 2.917
92.7833 1.719
92.8136 2.240
92.8439 2.344
92.8741 2.917
92.9044 2.656
92.9347 2.396
92.9650 2.500
92.9953 2.344
93.0255 2.812
93.0558 1.927
93.0861 1.823
93.1164 1.719
93.1466 2.344
93.1769 1.406
93.2072 2.031
93.2375 2.448
93.2678 1.771
93.2980 2.187
93.3283 2.292
93.3586 1.667
93.3889 1.823
93.4192 1.510
93.4494 1.875
93.4797 2.240
93.5100 1.615
93.5403 1.719
93.5706 2.917
93.6008 1.667
93.6311 1.667
93.6614 2.083
93.6917 1.719
93.7219 1.823
93.7522 1.719
93.7825 1.198
93.8128 1.562
93.8431 1.771
93.8733 1.719
93.9036 2.083
93.9339 1.406
93.9642 2.135
93.9945 1.719
94.0247 2.396
94.0550 2.708
94.0853 1.615
94.1156 1.667
94.1458 1.823
94.1761 1.719
94.2064 2.083
94.2367 1.979
94.2670 2.187
94.2972 2.135
94.3275 2.708
94.3578 1.927
94.3881 1.875
94.4184 2.187
94.4486 2.344
94.4789 2.656
94.5092 2.396
94.5395 2.292
94.5697 1.719
94.6000 1.927
94.6303 2.240
94.6606 2.135
94.6909 3.385
94.7211 2.552
94.7514 3.073
94.7817 2.812
94.8120 2.448
94.8423 3.073
94.8725 3.177
94.9028 3.698
94.9331 3.177
94.9634 2.708
94.9936 3.021
95.0239 3.437
95.0542 3.698
95.0845 3.229
95.1148 3.854
95.1450 3.542
95.1753 4.323
95.2056 4.219
95.2359 3.802
95.2662 4.219
95.2964 4.583
95.3267 3.958
95.3570 3.646
95.3873 4.271
95.4175 3.750
95.4478 3.542
95.4781 4.844
95.5084 3.385
95.5387 3.646
95.5689 3.854
95.5992 3.333
95.6295 2.969
95.6598 2.708
95.6901 2.708
95.7203 3.229
95.7506 3.229
95.7809 2.500
95.8112 1.927
95.8414 2.500
95.8717 2.760
95.9020 2.292
95.9323 2.396
95.9626 2.031
95.9928 2.240
96.0231 2.500
96.0534 2.083
96.0837 1.458
96.1140 2.135
96.1442 1.979
96.1745 2.187
96.2048 1.771
96.2351 2.083
96.2653 1.615
96.2956 2.396
96.3259 2.083
96.3562 2.187
96.3865 2.240
96.4167 1.667
96.4470 1.771
96.4773 2.135
96.5076 1.771
96.5379 1.771
96.5681 1.667
96.5984 1.615
96.6287 1.927
96.6590 2.187
96.6893 1.771
96.7195 2.812
96.7498 1.927
96.7801 1.927
96.8104 1.719
96.8406 1.719
96.8709 1.771
96.9012 1.615
96.9315 1.719
96.9618 1.771
96.9920 1.667
97.0223 1.771
97.0526 1.458
97.0829 1.875
97.1132 1.719
97.1434 1.562
97.1737 1.667
97.2040 1.510
97.2343 1.823
97.2645 1.771
97.2948 1.406
97.3251 2.240
97.3554 1.667
97.3857 2.240
97.4159 1.719
97.4462 1.719
97.4765 1.562
97.5068 1.198
97.5371 1.615
97.5673 1.406
97.5976 1.979
97.6279 1.562
97.6582 1.250
97.6884 1.615
97.7187 2.240
97.7490 1.615
97.7793 1.406
97.8096 2.448
97.8398 3.125
97.8701 2.031
97.9004 1.562
97.9307 2.656
97.9610 2.656
97.9912 2.187
98.0215 2.292
98.0518 1.823
98.0821 2.135
98.1123 2.344
98.1426 2.448
98.1729 1.875
98.2032 2.604
98.2335 2.656
98.2637 2.604
98.2940 1.927
98.3243 2.656
98.3546 3.125
98.3849 2.865
98.4151 2.656
98.4454 3.073
98.4757 2.969
98.5060 2.812
98.5362 3.333
98.5665 2.760
98.5968 2.760
98.6271 2.031
98.6574 2.760
98.6876 2.292
98.7179 3.125
98.7482 2.812
98.7785 2.760
98.8088 2.083
98.8390 3.229
98.8693 2.240
98.8996 1.875
98.9299 2.448
98.9601 1.823
98.9904 2.500
99.0207 2.240
99.0510 1.927
99.0813 1.979
99.1115 1.823
99.1418 2.500
99.1721 2.760
99.2024 2.135
99.2327 2.344
99.2629 1.667
99.2932 1.615
99.3235 2.240
99.3538 1.719
99.3841 2.240
99.4143 2.344
99.4446 2.344
99.4749 1.927
99.5052 1.406
99.5354 2.187
99.5657 2.031
99.5960 1.979
99.6263 1.510
99.6566 2.135
99.6868 1.927
99.7171 1.875
99.7474 1.615
99.7777 1.615
99.8080 2.083
99.8382 1.615
99.8685 1.458
99.8988 1.406
99.9291 1.771
99.9593 2.031
99.9896 2.135
100.0199 1.354
100.0502 2.396
100.0805 1.458
100.1107 1.719
100.1410 1.875
100.1713 1.719
100.2016 1.406
100.2319 1.771
100.2621 1.927
100.2924 1.302
100.3227 1.823
100.3530 1.562
100.3832 1.562
100.4135 1.615
100.4438 1.510
100.4741 1.510
100.5044 1.979
100.5346 1.875
100.5649 1.458
100.5952 1.354
100.6255 1.250
100.6558 1.771
100.6860 1.771
100.7163 1.146
100.7466 1.094
100.7769 1.406
100.8071 1.979
100.8374 1.771
100.8677 1.667
100.8980 1.406
100.9283 1.510
100.9585 0.885
100.9888 2.396
101.0191 1.771
101.0494 1.771
101.0797 1.406
101.1099 1.979
101.1402 1.302
101.1705 1.667
101.2008 1.510
101.2310 1.719
101.2613 1.510
101.2916 1.458
101.3219 1.719
101.3522 1.979
101.3824 1.458
101.4127 1.823
101.4430 1.458
101.4733 1.823
101.5036 1.719
101.5338 1.458
101.5641 1.406
101.5944 1.354
101.6247 1.875
101.6549 1.875
101.6852 1.875
101.7155 1.354
101.7458 1.875
101.7761 1.875
101.8063 1.823
101.8366 2.135
101.8669 1.406
101.8972 2.031
101.9275 1.875
101.9577 2.396
101.9880 1.406
102.0183 1.771
102.0486 2.031
102.0788 1.562
102.1091 1.771
102.1394 1.302
102.1697 1.615
102.2000 1.667
102.2302 1.406
102.2605 1.615
102.2908 1.406
102.3211 1.979
102.3514 2.396
102.3816 1.979
102.4119 2.552
102.4422 2.135
102.4725 2.448
102.5028 1.719
102.5330 2.083
102.5633 2.500
102.5936 2.552
102.6239 2.865
102.6541 2.344
102.6844 2.187
102.7147 2.448
102.7450 2.240
102.7753 2.708
102.8055 2.240
102.8358 3.021
102.8661 2.083
102.8964 2.396
102.9267 2.187
102.9569 2.448
102.9872 2.656
103.0175 2.500
103.0478 2.396
103.0780 2.448
103.1083 2.500
103.1386 2.604
103.1689 3.229
103.1992 2.240
103.2294 2.552
103.2597 2.604
103.2900 2.708
103.3203 2.656
103.3506 2.500
103.3808 2.083
103.4111 2.500
103.4414 2.448
103.4717 2.344
103.5019 2.448
103.5322 2.187
103.5625 3.073
103.5928 3.125
103.6231 3.594
103.6533 2.604
103.6836 2.240
103.7139 3.073
103.7442 2.917
103.7745 2.969
103.8047 2.812
103.8350 3.437
103.8653 2.969
103.8956 3.021
103.9258 3.490
103.9561 2.969
103.9864 3.750
104.0167 3.594
104.0470 3.750
104.0772 3.750
104.1075 3.698
104.1378 3.594
104.1681 3.437
104.1984 3.229
104.2286 2.969
104.2589 2.812
104.2892 4.687
104.3195 3.021
104.3497 3.437
104.3800 3.437
104.4103 2.552
104.4406 2.760
104.4709 3.177
104.5011 2.500
104.5314 2.656
104.5617 3.073
104.5920 2.917
104.6223 1.927
104.6525 1.875
104.6828 3.073
104.7131 2.292
104.7434 2.344
104.7736 1.927
104.8039 2.396
104.8342 1.875
104.8645 2.292
104.8948 2.187
104.9250 2.135
104.9553 1.562
104.9856 1.719
105.0159 1.406
105.0462 1.719
105.0764 1.979
105.1067 1.562
105.1370 1.719
105.1673 1.719
105.1975 1.562
105.2278 1.875
105.2581 2.135
105.2884 1.771
105.3187 1.302
105.3489 1.406
105.3792 1.458
105.4095 1.458
105.4398 1.562
105.4701 1.510
105.5003 1.823
105.5306 1.458
105.5609 2.240
105.5912 1.406
105.6215 1.510
105.6517 1.510
105.6820 1.615
105.7123 2.031
105.7426 1.510
105.7728 1.615
105.8031 1.615
105.8334 1.615
105.8637 1.354
105.8940 1.198
105.9242 2.031
105.9545 1.719
105.9848 1.406
106.0151 1.510
106.0454 1.458
106.0756 1.354
106.1059 1.667
106.1362 1.510
106.1665 0.885
106.1967 1.458
106.2270 1.510
106.2573 1.302
106.2876 1.458
106.3179 1.719
106.3481 1.458
106.3784 1.146
106.4087 1.562
106.4390 1.979
106.4693 1.667
106.4995 1.302
106.5298 1.667
106.5601 1.615
106.5904 1.875
106.6206 1.823
106.6509 2.135
106.6812 1.510
106.7115 1.615
106.7418 1.719
106.7720 1.771
106.8023 1.562
106.8326 2.240
106.8629 2.031
106.8932 1.510
106.9234 1.823
106.9537 2.135
106.9840 1.615
107.0143 1.667
107.0445 1.302
107.0748 2.552
107.1051 2.187
107.1354 1.771
107.1657 2.083
107.1959 2.135
107.2262 1.667
107.2565 1.823
107.2868 1.562
107.3171 1.302
107.3473 1.719
107.3776 2.135
107.4079 1.667
107.4382 1.406
107.4684 1.719
107.4987 1.510
107.5290 1.562
107.5593 1.406
107.5896 1.979
107.6198 1.562
107.6501 1.667
107.6804 1.042
107.7107 1.094
107.7410 1.719
107.7712 2.187
107.8015 1.771
107.8318 2.083
107.8621 1.875
107.8923 1.562
107.9226 2.031
107.9529 1.719
107.9832 1.771
108.0135 2.448
108.0437 1.562
108.0740 2.083
108.1043 1.615
108.1346 1.198
108.1649 1.615
108.1951 1.771
108.2254 1.562
108.2557 1.667
108.2860 1.667
108.3163 1.823
108.3465 1.510
108.3768 1.719
108.4071 1.667
108.4374 1.719
108.4676 1.667
108.4979 1.406
108.5282 1.615
108.5585 1.510
108.5888 1.354
108.6190 1.927
108.6493 1.510
108.6796 1.250
108.7099 1.198
108.7402 1.510
108.7704 1.771
108.8007 1.771
108.8310 1.667
108.8613 1.719
108.8915 1.458
108.9218 2.240
108.9521 1.562
108.9824 2.135
109.0127 1.510
109.0429 1.927
109.0732 1.823
109.1035 1.823
109.1338 1.615
109.1641 2.552
109.1943 1.562
109.2246 2.135
109.2549 1.719
109.2852 1.510
109.3154 1.979
109.3457 1.302
109.3760 2.135
109.4063 1.510
109.4366 1.510
109.4668 1.719
109.4971 1.510
109.5274 1.875
109.5577 1.562
109.5880 1.823
109.6182 1.510
109.6485 1.562
109.6788 1.875
109.7091 2.031
109.7393 1.927
109.7696 1.979
109.7999 1.771
109.8302 1.719
109.8605 2.500
109.8907 2.708
109.9210 2.292
109.9513 1.771
109.9816 2.552
110.0119 2.552
110.0421 2.500
110.0724 2.240
110.1027 2.240
110.1330 2.187
110.1632 2.344
110.1935 2.396
110.2238 2.760
110.2541 2.135
110.2844 1.562
110.3146 2.760
110.3449 1.719
110.3752 2.812
110.4055 1.875
110.4358 2.292
110.4660 2.552
110.4963 2.240
110.5266 2.240
110.5569 2.187
110.5871 2.500
110.6174 2.865
110.6477 3.073
110.6780 2.031
110.7083 2.240
110.7385 1.823
110.7688 2.604
110.7991 2.292
110.8294 2.448
110.8597 2.083
110.8899 1.719
110.9202 2.604
110.9505 2.031
110.9808 2.083
111.0110 1.979
111.0413 1.146
111.0716 2.083
111.1019 1.510
111.1322 1.719
111.1624 1.615
111.1927 2.448
111.2230 1.719
111.2533 2.187
111.2836 1.667
111.3138 2.083
111.3441 1.406
111.3744 1.510
111.4047 1.615
111.4350 1.875
111.4652 1.510
111.4955 1.719
111.5258 1.198
111.5561 2.031
111.5863 1.250
111.6166 1.771
111.6469 1.354
111.6772 1.562
111.7075 1.302
111.7377 2.031
111.7680 1.302
111.7983 1.146
111.8286 1.615
111.8589 1.823
111.8891 2.187
111.9194 1.927
111.9497 1.771
111.9800 1.823
112.0102 2.031
112.0405 2.031
112.0708 1.771
112.1011 1.667
112.1314 2.031
112.1616 1.979
112.1919 1.562
112.2222 1.667
112.2525 1.719
112.2828 1.719
112.3130 1.562
112.3433 1.458
112.3736 1.615
112.4039 1.875
112.4341 1.250
112.4644 1.719
112.4947 1.562
112.5250 1.250
112.5553 1.615
112.5855 1.667
112.6158 1.615
112.6461 1.510
112.6764 2.083
112.7067 1.562
112.7369 1.146
112.7672 1.979
112.7975 1.042
112.8278 1.979
112.8580 2.031
112.8883 1.198
112.9186 1.406
112.9489 1.302
112.9792 1.406
113.0094 0.990
113.0397 1.250
113.0700 1.615
113.1003 1.406
113.1306 1.458
113.1608 2.187
113.1911 1.719
113.2214 1.562
113.2517 1.198
113.2819 1.719
113.3122 1.146
113.3425 1.719
113.3728 1.354
113.4031 1.510
113.4333 1.771
113.4636 1.823
113.4939 1.823
113.5242 1.510
113.5545 1.406
113.5847 1.667
113.6150 1.250
113.6453 2.031
113.6756 1.042
113.7058 1.198
113.7361 1.406
113.7664 1.615
113.7967 1.875
113.8270 1.250
113.8572 2.448
113.8875 1.562
113.9178 1.146
113.9481 1.823
113.9784 1.719
114.0086 1.302
114.0389 2.031
114.0692 1.510
114.0995 1.719
114.1298 2.135
114.1600 1.823
114.1903 1.198
114.2206 1.615
114.2509 0.990
114.2811 1.927
114.3114 1.823
114.3417 1.458
114.3720 1.615
114.4023 1.823
114.4325 1.615
114.4628 1.771
114.4931 1.979
114.5234 1.250
114.5537 1.823
114.5839 2.344
114.6142 1.823
114.6445 2.187
114.6748 2.448
114.7050 1.667
114.7353 1.302
114.7656 1.406
114.7959 1.875
114.8262 1.302
114.8564 1.927
114.8867 1.354
114.9170 1.562
114.9473 2.083
114.9776 1.146
115.0078 2.135
115.0381 2.031
115.0684 2.240
115.0987 2.083
115.1289 1.927
115.1592 2.396
115.1895 2.187
115.2198 2.083
115.2501 1.875
115.2803 2.448
115.3106 2.031
115.3409 1.823
115.3712 2.396
115.4015 2.083
115.4317 1.927
115.4620 2.604
115.4923 2.448
115.5226 2.656
115.5528 2.656
115.5831 2.656
115.6134 2.656
115.6437 2.917
115.6740 2.344
115.7042 2.240
115.7345 2.812
115.7648 2.552
115.7951 2.500
115.8254 3.073
115.8556 2.865
115.8859 3.698
115.9162 2.865
115.9465 3.437
115.9767 3.021
116.0070 2.812
116.0373 3.333
116.0676 3.281
116.0979 3.542
116.1281 3.750
116.1584 3.542
116.1887 3.646
116.2190 4.115
116.2493 3.281
116.2795 3.177
116.3098 3.542
116.3401 4.062
116.3704 3.542
116.4006 3.437
116.4309 2.917
116.4612 4.167
116.4915 3.802
116.5218 3.594
116.5520 3.750
116.5823 4.271
116.6126 3.490
116.6429 3.906
116.6732 3.385
116.7034 2.604
116.7337 2.760
116.7640 3.646
116.7943 3.021
116.8245 3.385
116.8548 3.021
116.8851 2.344
116.9154 2.760
116.9457 2.812
116.9759 3.177
117.0062 2.969
117.0365 2.865
117.0668 3.073
117.0971 1.927
117.1273 2.292
117.1576 2.396
117.1879 2.396
117.2182 1.771
117.2485 2.240
117.2787 2.812
117.3090 2.083
117.3393 2.083
117.3696 2.083
117.3998 2.812
117.4301 1.562
117.4604 1.927
117.4907 1.667
117.5210 2.344
117.5512 2.083
117.5815 1.458
117.6118 2.031
117.6421 1.354
117.6724 1.823
117.7026 2.031
117.7329 2.031
117.7632 2.552
117.7935 2.344
117.8237 1.927
117.8540 1.615
117.8843 1.875
117.9146 2.083
117.9449 1.875
117.9751 2.552
118.0054 1.406
118.0357 2.083
118.0660 1.615
118.0963 1.615
118.1265 1.719
118.1568 2.187
118.1871 1.771
118.2174 1.458
118.2476 1.823
118.2779 1.615
118.3082 1.562
118.3385 1.823
118.3688 1.354
118.3990 1.562
118.4293 1.823
118.4596 2.083
118.4899 1.771
118.5202 1.302
118.5504 1.823
118.5807 1.823
118.6110 1.615
118.6413 1.302
118.6715 1.406
118.7018 1.458
118.7321 2.031
118.7624 1.094
118.7927 1.667
118.8229 1.667
118.8532 1.458
118.8835 1.927
118.9138 1.823
118.9441 1.458
118.9743 1.458
119.0046 1.562
119.0349 1.458
119.0652 1.823
119.0954 1.771
119.1257 1.354
119.1560 2.031
119.1863 1.510
119.2166 1.823
119.2468 1.042
119.2771 1.458
119.3074 1.302
119.3377 1.354
119.3680 1.406
119.3982 1.302
119.4285 1.562
119.4588 1.719
119.4891 1.250
119.5193 1.979
119.5496 1.458
119.5799 1.823
119.6102 2.240
119.6405 2.240
119.6707 1.823
119.7010 1.354
119.7313 1.615
119.7616 1.615
119.7919 2.083
119.8221 1.979
119.8524 1.354
119.8827 1.458
119.9130 2.240
119.9433 1.823
119.9735 1.458
120.0038 2.083
