'Id: "" Comment: "" Operator: "Lab Manager" Anode: "Cu" Scantype: "Locked Coupled" TimePerStep: "19.2" X: "9999" Y: "9999" Z: "9999" 
10.0015 4.167
10.0318 4.219
10.0620 4.167
10.0923 3.958
10.1226 3.958
10.1529 3.229
10.1832 4.635
10.2134 3.646
10.2437 3.698
10.2740 4.219
10.3043 4.479
10.3346 4.323
10.3648 4.531
10.3951 3.437
10.4254 4.531
10.4557 3.698
10.4859 3.437
10.5162 4.010
10.5465 3.750
10.5768 3.958
10.6071 3.854
10.6373 4.062
10.6676 3.906
10.6979 3.750
10.7282 3.490
10.7585 3.750
10.7887 3.490
10.8190 3.490
10.8493 4.167
10.8796 3.802
10.9098 2.396
10.9401 3.490
10.9704 3.281
11.0007 4.115
11.0310 4.167
11.0612 3.333
11.0915 3.229
11.1218 3.906
11.1521 3.437
11.1824 4.323
11.2126 2.708
11.2429 3.802
11.2732 3.073
11.3035 2.812
11.3337 4.323
11.3640 3.854
11.3943 4.427
11.4246 3.646
11.4549 3.594
11.4851 4.792
11.5154 3.854
11.5457 3.958
11.5760 4.427
11.6063 4.896
11.6365 3.802
11.6668 3.958
11.6971 4.167
11.7274 4.792
11.7577 2.865
11.7879 3.333
11.8182 4.323
11.8485 3.229
11.8788 2.969
11.9090 3.073
11.9393 3.594
11.9696 4.062
11.9999 4.062
12.0302 2.552
12.0604 4.219
12.0907 3.177
12.1210 4.115
12.1513 3.229
12.1816 3.281
12.2118 3.490
12.2421 4.115
12.2724 2.656
12.3027 3.125
12.3329 3.958
12.3632 2.917
12.3935 4.271
12.4238 3.437
12.4541 2.552
12.4843 3.958
12.5146 3.229
12.5449 2.604
12.5752 3.229
12.6055 3.750
12.6357 2.604
12.6660 3.177
12.6963 3.802
12.7266 3.490
12.7568 3.385
12.7871 3.698
12.8174 3.073
12.8477 3.125
12.8780 3.021
12.9082 3.281
12.9385 2.917
12.9688 3.958
12.9991 3.437
13.0294 3.542
13.0596 3.281
13.0899 3.437
13.1202 3.698
13.1505 3.854
13.1807 2.500
13.2110 3.385
13.2413 2.969
13.2716 4.375
13.3019 4.010
13.3321 3.229
13.3624 2.708
13.3927 3.646
13.4230 3.385
13.4533 3.542
13.4835 3.802
13.5138 3.333
13.5441 3.333
13.5744 3.125
13.6046 2.448
13.6349 3.594
13.6652 3.385
13.6955 3.281
13.7258 3.333
13.7560 3.021
13.7863 3.385
13.8166 3.594
13.8469 3.281
13.8772 3.177
13.9074 3.177
13.9377 4.062
13.9680 2.604
13.9983 2.396
14.0285 3.177
14.0588 3.490
14.0891 2.448
14.1194 3.333
14.1497 3.021
14.1799 3.646
14.2102 3.437
14.2405 2.812
14.2708 2.865
14.3011 3.906
14.3313 3.229
14.3616 3.385
14.3919 3.750
14.4222 3.437
14.4524 2.604
14.4827 3.646
14.5130 3.281
14.5433 3.490
14.5736 2.865
14.6038 2.552
14.6341 2.917
14.6644 2.969
14.6947 3.073
14.7250 3.229
14.7552 2.812
14.7855 3.073
14.8158 3.073
14.8461 2.656
14.8764 3.125
14.9066 3.125
14.9369 2.604
14.9672 3.594
14.9975 4.062
15.0277 2.917
15.0580 2.917
15.0883 2.552
15.1186 2.448
15.1489 3.177
15.1791 2.917
15.2094 2.552
15.2397 3.490
15.2700 2.969
15.3003 2.500
15.3305 3.333
15.3608 3.021
15.3911 2.969
15.4214 2.917
15.4516 4.010
15.4819 3.073
15.5122 2.865
15.5425 2.865
15.5728 3.750
15.6030 3.073
15.6333 3.021
15.6636 2.552
15.6939 4.375
15.7242 3.385
15.7544 3.229
15.7847 3.177
15.8150 3.281
15.8453 3.437
15.8755 3.750
15.9058 2.760
15.9361 2.760
15.9664 2.812
15.9967 2.187
16.0269 2.969
16.0572 3.125
16.0875 2.865
16.1178 4.062
16.1481 3.021
16.1783 3.021
16.2086 2.865
16.2389 3.437
16.2692 3.594
16.2994 2.500
16.3297 2.917
16.3600 3.021
16.3903 3.125
16.4206 3.125
16.4508 3.542
16.4811 3.177
16.5114 3.385
16.5417 3.177
16.5720 2.969
16.6022 3.281
16.6325 2.917
16.6628 3.177
16.6931 3.229
16.7233 3.385
16.7536 2.865
16.7839 2.812
16.8142 2.760
16.8445 3.594
16.8747 3.594
16.9050 3.177
16.9353 2.656
16.9656 3.490
16.9959 2.865
17.0261 4.375
17.0564 3.750
17.0867 2.917
17.1170 2.812
17.1472 3.646
17.1775 3.698
17.2078 2.812
17.2381 3.437
17.2684 3.073
17.2986 3.646
17.3289 3.958
17.3592 3.802
17.3895 2.708
17.4198 3.646
17.4500 2.604
17.4803 2.812
17.5106 2.604
17.5409 3.385
17.5712 1.875
17.6014 2.812
17.6317 3.177
17.6620 2.812
17.6923 2.969
17.7225 3.594
17.7528 3.385
17.7831 3.177
17.8134 3.385
17.8437 3.177
17.8739 2.812
17.9042 3.281
17.9345 3.281
17.9648 2.552
17.9951 3.542
18.0253 3.073
18.0556 3.490
18.0859 2.760
18.1162 3.125
18.1464 3.073
18.1767 2.604
18.2070 3.698
18.2373 2.552
18.2676 2.812
18.2978 3.906
18.3281 3.177
18.3584 3.333
18.3887 2.656
18.4190 2.604
18.4492 4.323
18.4795 2.656
18.5098 3.542
18.5401 3.437
18.5703 3.385
18.6006 3.437
18.6309 2.292
18.6612 3.073
18.6915 3.021
18.7217 2.812
18.7520 3.333
18.7823 3.021
18.8126 3.125
18.8429 2.396
18.8731 2.604
18.9034 2.708
18.9337 2.552
18.9640 3.229
18.9942 1.875
19.0245 3.333
19.0548 2.396
19.0851 2.760
19.1154 2.656
19.1456 2.969
19.1759 1.875
19.2062 3.594
19.2365 2.656
19.2668 2.969
19.2970 1.979
19.3273 3.021
19.3576 3.385
19.3879 2.344
19.4181 2.865
19.4484 3.021
19.4787 3.021
19.5090 2.865
19.5393 3.281
19.5695 2.917
19.5998 2.396
19.6301 3.177
19.6604 2.604
19.6907 2.292
19.7209 2.448
19.7512 2.604
19.7815 2.917
19.8118 3.073
19.8420 3.229
19.8723 3.021
19.9026 3.229
19.9329 3.125
19.9632 2.552
19.9934 2.656
20.0237 2.240
20.0540 3.177
20.0843 2.812
20.1146 2.656
20.1448 2.656
20.1751 3.177
20.2054 2.396
20.2357 2.760
20.2659 3.802
20.2962 2.396
20.3265 2.969
20.3568 3.281
20.3871 3.125
20.4173 2.656
20.4476 2.500
20.4779 2.656
20.5082 3.333
20.5385 3.021
20.5687 3.385
20.5990 2.448
20.6293 2.969
20.6596 3.177
20.6899 2.187
20.7201 2.760
20.7504 3.125
20.7807 3.229
20.8110 2.448
20.8412 2.552
20.8715 3.021
20.9018 2.656
20.9321 3.125
20.9624 2.292
20.9926 2.552
21.0229 3.021
21.0532 3.177
21.0835 2.396
21.1138 2.708
21.1440 2.656
21.1743 2.604
21.2046 3.177
21.2349 2.604
21.2651 2.604
21.2954 2.552
21.3257 3.229
21.3560 2.344
21.3863 3.021
21.4165 3.594
21.4468 2.448
21.4771 2.604
21.5074 3.177
21.5377 2.656
21.5679 3.646
21.5982 3.125
21.6285 2.917
21.6588 3.437
21.6890 3.125
21.7193 2.917
21.7496 2.448
21.7799 2.396
21.8102 2.500
21.8404 2.500
21.8707 3.437
21.9010 2.812
21.9313 2.187
21.9616 3.021
21.9918 4.062
22.0221 3.125
22.0524 3.125
22.0827 2.708
22.1129 2.135
22.1432 2.135
22.1735 2.344
22.2038 2.396
22.2341 2.812
22.2643 2.448
22.2946 2.865
22.3249 3.229
22.3552 1.927
22.3855 2.812
22.4157 1.927
22.4460 2.812
22.4763 3.125
22.5066 2.448
22.5368 3.437
22.5671 2.448
22.5974 2.448
22.6277 2.812
22.6580 3.333
22.6882 2.448
22.7185 3.385
22.7488 3.594
22.7791 2.604
22.8094 2.500
22.8396 2.656
22.8699 2.656
22.9002 3.073
22.9305 3.490
22.9607 2.656
22.9910 2.760
23.0213 3.490
23.0516 2.500
23.0819 2.500
23.1121 3.958
23.1424 2.448
23.1727 2.604
23.2030 2.865
23.2333 2.656
23.2635 2.708
23.2938 2.969
23.3241 3.125
23.3544 2.292
23.3846 2.708
23.4149 2.708
23.4452 3.281
23.4755 2.760
23.5058 3.281
23.5360 2.396
23.5663 2.604
23.5966 3.750
23.6269 3.021
23.6572 2.344
23.6874 3.021
23.7177 3.177
23.7480 3.542
23.7783 2.865
23.8086 3.177
23.8388 2.969
23.8691 3.333
23.8994 3.125
23.9297 3.437
23.9599 2.917
23.9902 2.708
24.0205 2.865
24.0508 3.021
24.0811 2.917
24.1113 2.396
24.1416 2.760
24.1719 2.812
24.2022 2.708
24.2325 2.917
24.2627 2.396
24.2930 2.812
24.3233 3.073
24.3536 2.187
24.3838 2.917
24.4141 2.604
24.4444 3.229
24.4747 2.448
24.5050 1.927
24.5352 3.021
24.5655 2.760
24.5958 2.865
24.6261 2.865
24.6564 2.604
24.6866 2.500
24.7169 2.292
24.7472 2.344
24.7775 2.500
24.8077 3.281
24.8380 2.760
24.8683 3.437
24.8986 3.281
24.9289 2.604
24.9591 2.760
24.9894 2.760
25.0197 3.021
25.0500 2.396
25.0803 2.500
25.1105 2.604
25.1408 3.073
25.1711 2.448
25.2014 2.969
25.2316 2.552
25.2619 2.240
25.2922 2.187
25.3225 2.187
25.3528 2.656
25.3830 2.656
25.4133 2.187
25.4436 2.552
25.4739 2.708
25.5042 3.385
25.5344 2.344
25.5647 3.281
25.5950 3.021
25.6253 3.281
25.6555 2.708
25.6858 3.385
25.7161 2.760
25.7464 2.448
25.7767 3.490
25.8069 2.760
25.8372 2.917
25.8675 3.281
25.8978 2.187
25.9281 2.656
25.9583 2.760
25.9886 3.073
26.0189 2.500
26.0492 3.385
26.0794 3.177
26.1097 3.281
26.1400 3.594
26.1703 2.969
26.2006 2.604
26.2308 2.708
26.2611 2.604
26.2914 2.969
26.3217 3.021
26.3520 2.969
26.3822 2.760
26.4125 2.500
26.4428 2.760
26.4731 2.500
26.5034 3.073
26.5336 3.125
26.5639 2.708
26.5942 2.448
26.6245 2.656
26.6547 2.865
26.6850 2.187
26.7153 3.177
26.7456 3.125
26.7759 3.177
26.8061 2.969
26.8364 2.656
26.8667 2.708
26.8970 2.812
26.9273 3.229
26.9575 3.437
26.9878 2.760
27.0181 3.646
27.0484 3.437
27.0786 3.594
27.1089 2.917
27.1392 3.490
27.1695 3.594
27.1998 3.125
27.2300 2.917
27.2603 3.490
27.2906 3.229
27.3209 2.760
27.3512 3.333
27.3814 3.646
27.4117 3.490
27.4420 3.906
27.4723 3.906
27.5025 2.708
27.5328 2.812
27.5631 3.333
27.5934 3.177
27.6237 3.177
27.6539 4.115
27.6842 2.656
27.7145 3.021
27.7448 3.490
27.7751 3.333
27.8053 3.437
27.8356 3.021
27.8659 3.646
27.8962 2.396
27.9264 4.219
27.9567 3.021
27.9870 3.125
28.0173 3.490
28.0476 2.969
28.0778 3.073
28.1081 3.437
28.1384 3.333
28.1687 3.125
28.1990 2.865
28.2292 3.906
28.2595 3.385
28.2898 3.437
28.3201 4.427
28.3503 3.542
28.3806 3.437
28.4109 4.167
28.4412 3.073
28.4715 3.646
28.5017 3.490
28.5320 3.385
28.5623 3.802
28.5926 4.115
28.6229 3.437
28.6531 3.646
28.6834 2.396
28.7137 3.281
28.7440 3.490
28.7742 4.583
28.8045 4.010
28.8348 3.750
28.8651 2.656
28.8954 3.854
28.9256 4.115
28.9559 2.656
28.9862 3.906
29.0165 4.479
29.0468 3.437
29.0770 4.010
29.1073 3.385
29.1376 2.969
29.1679 3.542
29.1981 3.333
29.2284 3.854
29.2587 2.708
29.2890 3.437
29.3193 3.437
29.3495 4.115
29.3798 3.385
29.4101 3.958
29.4404 3.490
29.4707 3.073
29.5009 4.479
29.5312 3.958
29.5615 4.271
29.5918 4.323
29.6221 3.646
29.6523 4.167
29.6826 4.219
29.7129 3.854
29.7432 3.854
29.7734 4.635
29.8037 4.635
29.8340 3.542
29.8643 3.750
29.8946 4.062
29.9248 4.062
29.9551 3.854
29.9854 4.271
30.0157 4.062
30.0460 5.208
30.0762 4.844
30.1065 5.052
30.1368 4.948
30.1671 4.896
30.1973 4.479
30.2276 5.312
30.2579 5.729
30.2882 5.312
30.3185 4.896
30.3487 4.740
30.3790 4.583
30.4093 5.469
30.4396 4.844
30.4699 5.104
30.5001 6.510
30.5304 5.937
30.5607 6.458
30.5910 7.187
30.6212 6.302
30.6515 5.833
30.6818 6.615
30.7121 7.240
30.7424 7.344
30.7726 6.771
30.8029 7.708
30.8332 7.656
30.8635 7.240
30.8938 8.125
30.9240 8.177
30.9543 8.437
30.9846 10.573
31.0149 10.365
31.0451 10.573
31.0754 12.656
31.1057 12.812
31.1360 13.333
31.1663 14.583
31.1965 14.635
31.2268 16.406
31.2571 17.500
31.2874 20.417
31.3177 19.323
31.3479 21.406
31.3782 24.844
31.4085 28.802
31.4388 30.625
31.4690 32.500
31.4993 40.104
31.5296 40.260
31.5599 46.510
31.5902 46.771
31.6204 50.104
31.6507 50.365
31.6810 47.500
31.7113 43.490
31.7416 42.656
31.7718 41.094
31.8021 36.250
31.8324 33.958
31.8627 28.698
31.8929 27.500
31.9232 21.667
31.9535 21.771
31.9838 18.906
32.0141 18.281
32.0443 14.948
32.0746 14.062
32.1049 11.667
32.1352 10.573
32.1655 12.083
32.1957 10.625
32.2260 10.885
32.2563 9.271
32.2866 8.906
32.3169 8.802
32.3471 9.740
32.3774 8.385
32.4077 8.385
32.4380 7.917
32.4682 8.125
32.4985 7.812
32.5288 7.708
32.5591 6.979
32.5894 6.771
32.6196 6.250
32.6499 6.927
32.6802 6.823
32.7105 7.240
32.7408 5.937
32.7710 5.625
32.8013 6.302
32.8316 6.094
32.8619 5.833
32.8921 5.417
32.9224 6.406
32.9527 6.979
32.9830 5.729
33.0133 6.198
33.0435 5.677
33.0738 5.365
33.1041 6.823
33.1344 6.198
33.1647 5.781
33.1949 5.260
33.2252 5.573
33.2555 6.510
33.2858 5.573
33.3160 4.635
33.3463 6.198
33.3766 6.667
33.4069 6.302
33.4372 6.302
33.4674 6.562
33.4977 6.667
33.5280 6.927
33.5583 7.187
33.5886 7.500
33.6188 6.354
33.6491 7.760
33.6794 7.708
33.7097 7.396
33.7399 8.906
33.7702 7.708
33.8005 8.802
33.8308 8.958
33.8611 9.427
33.8913 11.458
33.9216 12.500
33.9519 11.198
33.9822 13.958
34.0125 15.573
34.0427 16.615
34.0730 19.010
34.1033 21.042
34.1336 25.000
34.1638 32.760
34.1941 39.010
34.2244 42.083
34.2547 51.771
34.2850 54.167
34.3152 57.083
34.3455 54.271
34.3758 48.073
34.4061 42.135
34.4364 36.146
34.4666 28.333
34.4969 23.802
34.5272 19.740
34.5575 17.917
34.5877 15.469
34.6180 13.854
34.6483 13.906
34.6786 11.250
34.7089 11.458
34.7391 9.427
34.7694 9.792
34.7997 9.948
34.8300 9.687
34.8603 9.583
34.8905 8.906
34.9208 8.802
34.9511 8.750
34.9814 9.844
35.0116 9.167
35.0419 7.812
35.0722 8.802
35.1025 9.062
35.1328 8.333
35.1630 8.594
35.1933 9.427
35.2236 10.156
35.2539 10.208
35.2842 9.792
35.3144 10.625
35.3447 10.521
35.3750 10.312
35.4053 11.250
35.4356 11.198
35.4658 11.406
35.4961 13.646
35.5264 13.490
35.5567 15.677
35.5869 13.177
35.6172 15.312
35.6475 16.302
35.6778 18.281
35.7081 18.385
35.7383 23.854
35.7686 23.958
35.7989 26.042
35.8292 30.625
35.8595 30.677
35.8897 37.396
35.9200 41.354
35.9503 44.375
35.9806 48.958
36.0108 56.823
36.0411 61.510
36.0714 63.490
36.1017 70.469
36.1320 68.750
36.1622 68.646
36.1925 67.552
36.2228 60.625
36.2531 59.635
36.2834 52.656
36.3136 47.552
36.3439 44.115
36.3742 37.760
36.4045 32.917
36.4347 28.802
36.4650 27.135
36.4953 23.437
36.5256 20.469
36.5559 19.115
36.5861 16.615
36.6164 13.542
36.6467 15.625
36.6770 12.083
36.7073 12.240
36.7375 11.875
36.7678 9.740
36.7981 9.115
36.8284 8.854
36.8586 8.906
36.8889 8.281
36.9192 7.812
36.9495 7.969
36.9798 6.979
37.0100 7.812
37.0403 7.083
37.0706 7.031
37.1009 6.406
37.1312 6.510
37.1614 7.083
37.1917 6.510
37.2220 4.896
37.2523 5.990
37.2825 5.260
37.3128 5.521
37.3431 6.146
37.3734 5.990
37.4037 5.208
37.4339 4.740
37.4642 5.208
37.4945 4.375
37.5248 4.844
37.5551 4.583
37.5853 4.323
37.6156 4.740
37.6459 4.948
37.6762 5.365
37.7064 3.698
37.7367 3.906
37.7670 4.219
37.7973 3.854
37.8276 4.375
37.8578 4.115
37.8881 3.906
37.9184 3.906
37.9487 4.167
37.9790 4.375
38.0092 3.594
38.0395 3.802
38.0698 3.802
38.1001 4.115
38.1304 3.333
38.1606 3.750
38.1909 3.385
38.2212 3.333
38.2515 3.906
38.2817 3.802
38.3120 3.594
38.3423 4.323
38.3726 3.073
38.4029 3.958
38.4331 2.500
38.4634 3.177
38.4937 2.708
38.5240 3.333
38.5543 2.292
38.5845 3.281
38.6148 3.073
38.6451 4.062
38.6754 2.812
38.7056 3.333
38.7359 2.656
38.7662 3.333
38.7965 3.177
38.8268 2.448
38.8570 2.865
38.8873 3.229
38.9176 3.854
38.9479 3.490
38.9782 3.437
39.0084 3.437
39.0387 2.812
39.0690 2.760
39.0993 3.021
39.1295 2.656
39.1598 2.760
39.1901 2.500
39.2204 2.708
39.2507 2.760
39.2809 3.125
39.3112 2.552
39.3415 3.073
39.3718 2.656
39.4021 1.823
39.4323 2.500
39.4626 2.344
39.4929 1.927
39.5232 2.448
39.5534 3.125
39.5837 2.240
39.6140 2.656
39.6443 2.604
39.6746 2.396
39.7048 2.500
39.7351 2.656
39.7654 2.656
39.7957 2.344
39.8260 3.385
39.8562 2.656
39.8865 2.083
39.9168 2.396
39.9471 1.823
39.9773 2.344
40.0076 2.240
40.0379 2.240
40.0682 2.552
40.0985 2.917
40.1287 2.500
40.1590 1.875
40.1893 2.240
40.2196 2.240
40.2499 2.396
40.2801 2.344
40.3104 2.500
40.3407 2.240
40.3710 2.448
40.4012 2.240
40.4315 2.552
40.4618 2.396
40.4921 2.240
40.5224 2.500
40.5526 2.500
40.5829 2.083
40.6132 2.552
40.6435 2.187
40.6738 2.083
40.7040 2.448
40.7343 2.448
40.7646 2.031
40.7949 2.031
40.8251 1.927
40.8554 2.292
40.8857 2.135
40.9160 2.604
40.9463 1.979
40.9765 2.708
41.0068 2.396
41.0371 1.771
41.0674 2.240
41.0977 2.344
41.1279 2.031
41.1582 2.708
41.1885 3.021
41.2188 2.865
41.2491 1.771
41.2793 1.562
41.3096 2.552
41.3399 2.396
41.3702 2.396
41.4004 2.187
41.4307 2.812
41.4610 2.187
41.4913 2.292
41.5216 2.708
41.5518 2.240
41.5821 2.240
41.6124 3.333
41.6427 1.823
41.6730 2.448
41.7032 2.760
41.7335 2.083
41.7638 1.406
41.7941 2.135
41.8243 1.979
41.8546 2.604
41.8849 1.562
41.9152 1.875
41.9455 2.135
41.9757 2.292
42.0060 1.562
42.0363 2.552
42.0666 1.979
42.0969 2.135
42.1271 2.396
42.1574 2.135
42.1877 2.500
42.2180 1.823
42.2482 2.083
42.2785 1.927
42.3088 2.240
42.3391 2.031
42.3694 2.083
42.3996 2.396
42.4299 2.083
42.4602 2.552
42.4905 2.292
42.5208 2.552
42.5510 1.719
42.5813 1.302
42.6116 1.667
42.6419 2.031
42.6721 1.771
42.7024 2.135
42.7327 2.031
42.7630 1.771
42.7933 1.979
42.8235 2.240
42.8538 2.292
42.8841 2.812
42.9144 1.667
42.9447 2.396
42.9749 2.812
43.0052 1.510
43.0355 1.875
43.0658 1.615
43.0960 1.615
43.1263 1.510
43.1566 2.240
43.1869 1.667
43.2172 2.083
43.2474 2.187
43.2777 1.927
43.3080 1.927
43.3383 1.927
43.3686 1.823
43.3988 1.875
43.4291 2.135
43.4594 1.875
43.4897 1.823
43.5199 1.823
43.5502 1.354
43.5805 2.240
43.6108 2.135
43.6411 2.083
43.6713 2.396
43.7016 2.448
43.7319 2.604
43.7622 1.823
43.7925 1.927
43.8227 2.187
43.8530 1.823
43.8833 2.240
43.9136 1.771
43.9439 2.083
43.9741 2.396
44.0044 1.875
44.0347 1.406
44.0650 2.240
44.0952 2.396
44.1255 2.604
44.1558 1.823
44.1861 2.083
44.2164 2.396
44.2466 2.240
44.2769 2.135
44.3072 2.865
44.3375 3.177
44.3678 2.500
44.3980 1.823
44.4283 2.552
44.4586 2.187
44.4889 2.240
44.5191 2.344
44.5494 1.979
44.5797 2.865
44.6100 2.760
44.6403 2.292
44.6705 2.448
44.7008 2.656
44.7311 1.719
44.7614 2.500
44.7917 2.552
44.8219 2.500
44.8522 2.031
44.8825 2.135
44.9128 2.396
44.9430 2.604
44.9733 2.396
45.0036 2.552
45.0339 1.927
45.0642 2.500
45.0944 1.719
45.1247 2.500
45.1550 2.448
45.1853 2.240
45.2156 1.927
45.2458 2.135
45.2761 1.979
45.3064 1.719
45.3367 2.604
45.3669 1.823
45.3972 2.500
45.4275 2.552
45.4578 2.292
45.4881 3.021
45.5183 2.135
45.5486 2.344
45.5789 2.187
45.6092 1.771
45.6395 2.552
45.6697 2.865
45.7000 1.771
45.7303 2.448
45.7606 2.604
45.7908 2.604
45.8211 2.917
45.8514 2.708
45.8817 2.656
45.9120 2.500
45.9422 2.604
45.9725 2.604
46.0028 2.500
46.0331 3.021
46.0634 2.917
46.0936 2.448
46.1239 2.656
46.1542 3.490
46.1845 2.448
46.2147 2.969
46.2450 2.656
46.2753 2.969
46.3056 2.604
46.3359 2.969
46.3661 2.344
46.3964 2.969
46.4267 3.177
46.4570 3.281
46.4873 3.021
46.5175 3.490
46.5478 2.448
46.5781 3.281
46.6084 3.437
46.6386 3.229
46.6689 3.073
46.6992 4.010
46.7295 3.698
46.7598 4.531
46.7900 3.698
46.8203 4.167
46.8506 4.948
46.8809 4.687
46.9112 5.260
46.9414 4.740
46.9717 5.573
47.0020 5.365
47.0323 5.677
47.0626 6.302
47.0928 6.823
47.1231 7.656
47.1534 8.333
47.1837 9.479
47.2139 9.948
47.2442 9.583
47.2745 11.979
47.3048 12.396
47.3351 14.062
47.3653 13.333
47.3956 15.052
47.4259 14.427
47.4562 15.260
47.4865 12.604
47.5167 14.375
47.5470 13.021
47.5773 12.604
47.6076 10.312
47.6378 9.844
47.6681 9.219
47.6984 8.333
47.7287 7.760
47.7590 6.510
47.7892 6.771
47.8195 5.781
47.8498 5.104
47.8801 4.896
47.9104 4.635
47.9406 4.062
47.9709 2.917
48.0012 3.802
48.0315 4.219
48.0617 3.854
48.0920 4.115
48.1223 3.958
48.1526 2.812
48.1829 3.125
48.2131 2.969
48.2434 3.177
48.2737 3.229
48.3040 3.021
48.3343 2.812
48.3645 2.500
48.3948 3.698
48.4251 2.604
48.4554 2.500
48.4856 2.604
48.5159 2.656
48.5462 2.448
48.5765 2.969
48.6068 3.073
48.6370 2.552
48.6673 2.604
48.6976 2.448
48.7279 2.292
48.7582 2.135
48.7884 2.187
48.8187 1.823
48.8490 2.240
48.8793 2.552
48.9095 2.344
48.9398 1.875
48.9701 2.448
49.0004 2.344
49.0307 1.771
49.0609 1.823
49.0912 2.760
49.1215 2.292
49.1518 2.187
49.1821 2.396
49.2123 1.615
49.2426 1.719
49.2729 2.552
49.3032 2.656
49.3334 2.917
49.3637 2.344
49.3940 2.500
49.4243 2.083
49.4546 1.875
49.4848 2.187
49.5151 2.240
49.5454 2.187
49.5757 2.135
49.6060 1.510
49.6362 1.875
49.6665 1.771
49.6968 2.292
49.7271 2.240
49.7574 2.708
49.7876 1.615
49.8179 1.823
49.8482 1.562
49.8785 1.771
49.9087 1.823
49.9390 2.708
49.9693 1.771
49.9996 2.135
50.0299 2.135
50.0601 2.135
50.0904 2.083
50.1207 2.240
50.1510 2.083
50.1813 1.771
50.2115 2.135
50.2418 2.344
50.2721 1.719
50.3024 2.396
50.3326 2.552
50.3629 1.250
50.3932 1.510
50.4235 2.240
50.4538 1.719
50.4840 2.448
50.5143 1.979
50.5446 2.031
50.5749 2.552
50.6052 1.719
50.6354 2.240
50.6657 2.031
50.6960 2.604
50.7263 2.500
50.7565 1.823
50.7868 1.667
50.8171 2.031
50.8474 2.135
50.8777 2.708
50.9079 1.667
50.9382 2.031
50.9685 1.771
50.9988 1.823
51.0291 1.979
51.0593 2.031
51.0896 1.875
51.1199 1.667
51.1502 1.927
51.1804 1.927
51.2107 2.031
51.2410 2.187
51.2713 1.406
51.3016 1.771
51.3318 2.448
51.3621 2.135
51.3924 2.135
51.4227 2.396
51.4530 2.448
51.4832 1.979
51.5135 1.771
51.5438 2.240
51.5741 2.448
51.6043 2.448
51.6346 2.396
51.6649 2.656
51.6952 1.979
51.7255 2.135
51.7557 1.927
51.7860 1.771
51.8163 2.083
51.8466 1.562
51.8769 2.344
51.9071 1.927
51.9374 1.927
51.9677 1.823
51.9980 1.302
52.0282 1.927
52.0585 2.604
52.0888 2.708
52.1191 1.823
52.1494 1.615
52.1796 2.083
52.2099 1.615
52.2402 2.552
52.2705 1.979
52.3008 2.552
52.3310 1.719
52.3613 2.083
52.3916 1.615
52.4219 2.083
52.4521 2.500
52.4824 2.187
52.5127 2.031
52.5430 2.240
52.5733 1.302
52.6035 2.292
52.6338 1.979
52.6641 2.135
52.6944 1.823
52.7247 1.875
52.7549 2.083
52.7852 2.240
52.8155 2.031
52.8458 2.344
52.8761 1.771
52.9063 1.719
52.9366 1.771
52.9669 2.187
52.9972 1.927
53.0274 2.083
53.0577 2.292
53.0880 1.771
53.1183 1.875
53.1486 2.604
53.1788 2.240
53.2091 2.031
53.2394 2.187
53.2697 1.875
53.3000 2.031
53.3302 2.344
53.3605 2.083
53.3908 2.344
53.4211 1.823
53.4513 1.354
53.4816 2.292
53.5119 2.396
53.5422 1.615
53.5725 1.927
53.6027 1.667
53.6330 2.083
53.6633 2.292
53.6936 2.135
53.7239 1.823
53.7541 2.552
53.7844 1.875
53.8147 1.771
53.8450 2.031
53.8752 2.917
53.9055 2.083
53.9358 2.552
53.9661 1.979
53.9964 2.240
54.0266 2.344
54.0569 1.771
54.0872 2.083
54.1175 2.187
54.1478 2.760
54.1780 1.771
54.2083 1.510
54.2386 2.240
54.2689 1.927
54.2991 2.552
54.3294 2.135
54.3597 2.292
54.3900 2.969
54.4203 2.187
54.4505 2.187
54.4808 2.708
54.5111 2.240
54.5414 2.344
54.5717 3.229
54.6019 1.823
54.6322 2.708
54.6625 2.292
54.6928 2.344
54.7230 2.656
54.7533 2.240
54.7836 2.500
54.8139 2.031
54.8442 2.344
54.8744 2.604
54.9047 3.385
54.9350 2.865
54.9653 2.135
54.9956 2.500
55.0258 2.760
55.0561 2.760
55.0864 2.448
55.1167 3.021
55.1469 2.448
55.1772 3.542
55.2075 2.500
55.2378 3.125
55.2681 3.021
55.2983 3.542
55.3286 2.917
55.3589 2.552
55.3892 2.604
55.4195 2.656
55.4497 2.917
55.4800 3.385
55.5103 3.073
55.5406 3.750
55.5709 3.281
55.6011 3.437
55.6314 3.750
55.6617 3.802
55.6920 4.740
55.7222 4.115
55.7525 4.740
55.7828 4.271
55.8131 4.427
55.8434 4.583
55.8736 5.469
55.9039 6.198
55.9342 5.417
55.9645 5.937
55.9948 5.937
56.0250 6.875
56.0553 7.187
56.0856 8.021
56.1159 8.958
56.1461 8.750
56.1764 9.687
56.2067 10.781
56.2370 11.406
56.2673 12.187
56.2975 14.792
56.3278 13.698
56.3581 13.958
56.3884 17.656
56.4187 18.958
56.4489 18.906
56.4792 18.073
56.5095 18.958
56.5398 18.594
56.5700 17.760
56.6003 16.146
56.6306 16.406
56.6609 14.427
56.6912 12.240
56.7214 11.562
56.7517 12.240
56.7820 9.687
56.8123 7.552
56.8426 10.156
56.8728 8.229
56.9031 7.604
56.9334 7.083
56.9637 5.937
56.9939 7.083
57.0242 6.198
57.0545 4.740
57.0848 4.844
57.1151 5.052
57.1453 4.896
57.1756 3.802
57.2059 4.271
57.2362 4.167
57.2665 4.010
57.2967 4.167
57.3270 3.906
57.3573 3.281
57.3876 3.542
57.4178 4.219
57.4481 3.437
57.4784 2.969
57.5087 3.646
57.5390 2.917
57.5692 2.604
57.5995 3.229
57.6298 3.385
57.6601 2.708
57.6904 2.917
57.7206 3.437
57.7509 2.396
57.7812 3.177
57.8115 3.021
57.8417 2.656
57.8720 2.917
57.9023 2.917
57.9326 2.604
57.9629 2.865
57.9931 2.812
58.0234 1.979
58.0537 2.552
58.0840 2.760
58.1143 2.448
58.1445 2.552
58.1748 2.292
58.2051 2.656
58.2354 2.240
58.2656 2.240
58.2959 2.812
58.3262 2.031
58.3565 2.500
58.3868 2.344
58.4170 3.021
58.4473 2.187
58.4776 2.448
58.5079 2.344
58.5382 2.344
58.5684 2.500
58.5987 2.812
58.6290 2.135
58.6593 1.979
58.6896 1.771
58.7198 1.927
58.7501 2.187
58.7804 2.240
58.8107 2.135
58.8409 2.292
58.8712 1.719
58.9015 1.667
58.9318 2.292
58.9621 2.240
58.9923 2.187
59.0226 2.187
59.0529 1.510
59.0832 1.927
59.1135 2.760
59.1437 1.771
59.1740 1.771
59.2043 1.562
59.2346 2.708
59.2648 2.448
59.2951 2.135
59.3254 2.344
59.3557 2.344
59.3860 2.083
59.4162 2.604
59.4465 1.719
59.4768 2.344
59.5071 2.083
59.5374 2.187
59.5676 2.187
59.5979 2.396
59.6282 1.927
59.6585 2.135
59.6887 1.875
59.7190 1.667
59.7493 2.708
59.7796 2.292
59.8099 2.344
59.8401 2.240
59.8704 2.344
59.9007 2.344
59.9310 2.448
59.9613 1.927
59.9915 2.604
60.0218 2.292
60.0521 2.083
60.0824 2.083
60.1126 1.667
60.1429 1.927
60.1732 2.240
60.2035 1.562
60.2338 2.969
60.2640 2.760
60.2943 2.656
60.3246 1.615
60.3549 2.760
60.3852 2.448
60.4154 2.135
60.4457 2.552
60.4760 2.187
60.5063 2.083
60.5365 2.760
60.5668 2.135
60.5971 2.552
60.6274 2.187
60.6577 2.292
60.6879 2.083
60.7182 2.396
60.7485 2.344
60.7788 3.021
60.8091 2.344
60.8393 2.083
60.8696 2.917
60.8999 2.344
60.9302 2.083
60.9604 3.073
60.9907 1.823
61.0210 2.552
61.0513 2.812
61.0816 2.552
61.1118 2.292
61.1421 2.083
61.1724 2.708
61.2027 2.656
61.2330 3.385
61.2632 2.292
61.2935 3.021
61.3238 2.448
61.3541 2.344
61.3844 2.240
61.4146 3.333
61.4449 3.125
61.4752 3.385
61.5055 2.031
61.5357 2.812
61.5660 3.229
61.5963 3.229
61.6266 2.656
61.6569 3.281
61.6871 3.385
61.7174 2.969
61.7477 2.969
61.7780 3.385
61.8083 3.333
61.8385 3.490
61.8688 2.292
61.8991 3.333
61.9294 3.125
61.9596 3.750
61.9899 3.750
62.0202 3.958
62.0505 4.115
62.0808 3.542
62.1110 4.740
62.1413 5.156
62.1716 4.635
62.2019 5.208
62.2322 5.573
62.2624 5.885
62.2927 6.042
62.3230 7.240
62.3533 6.771
62.3835 6.719
62.4138 6.979
62.4441 7.083
62.4744 8.594
62.5047 9.635
62.5349 10.937
62.5652 10.781
62.5955 11.406
62.6258 13.385
62.6561 13.437
62.6863 13.854
62.7166 15.156
62.7469 16.302
62.7772 14.167
62.8074 15.625
62.8377 14.583
62.8680 13.906
62.8983 13.646
62.9286 13.906
62.9588 11.458
62.9891 11.042
63.0194 10.885
63.0497 8.750
63.0800 8.906
63.1102 7.604
63.1405 7.448
63.1708 6.667
63.2011 6.302
63.2313 6.042
63.2616 6.562
63.2919 5.156
63.3222 4.583
63.3525 5.208
63.3827 4.427
63.4130 4.375
63.4433 3.646
63.4736 4.219
63.5039 3.698
63.5341 4.219
63.5644 2.500
63.5947 3.646
63.6250 3.021
63.6552 2.812
63.6855 3.437
63.7158 2.604
63.7461 2.917
63.7764 2.656
63.8066 2.135
63.8369 2.865
63.8672 2.917
63.8975 2.292
63.9278 2.500
63.9580 2.812
63.9883 2.604
64.0186 2.812
64.0489 3.073
64.0791 2.240
64.1094 2.812
64.1397 2.760
64.1700 2.708
64.2003 2.604
64.2305 2.083
64.2608 2.500
64.2911 2.292
64.3214 2.083
64.3517 1.927
64.3819 2.760
64.4122 2.187
64.4425 2.812
64.4728 2.500
64.5031 2.552
64.5333 2.187
64.5636 2.344
64.5939 1.927
64.6242 2.552
64.6544 2.344
64.6847 2.500
64.7150 2.604
64.7453 2.292
64.7756 2.292
64.8058 2.604
64.8361 2.135
64.8664 2.865
64.8967 2.187
64.9270 2.656
64.9572 1.667
64.9875 2.708
65.0178 1.979
65.0481 2.187
65.0783 2.396
65.1086 2.448
65.1389 2.187
65.1692 2.656
65.1995 2.135
65.2297 2.240
65.2600 3.021
65.2903 2.344
65.3206 1.927
65.3509 2.812
65.3811 3.125
65.4114 2.448
65.4417 2.187
65.4720 2.969
65.5022 2.135
65.5325 2.187
65.5628 2.812
65.5931 2.448
65.6234 2.917
65.6536 2.917
65.6839 2.135
65.7142 3.385
65.7445 2.917
65.7748 2.552
65.8050 3.073
65.8353 3.385
65.8656 2.708
65.8959 2.708
65.9261 3.177
65.9564 3.750
65.9867 3.281
66.0170 4.271
66.0473 3.385
66.0775 3.437
66.1078 2.396
66.1381 4.219
66.1684 2.969
66.1987 3.802
66.2289 4.635
66.2592 3.958
66.2895 4.479
66.3198 4.583
66.3500 4.323
66.3803 4.687
66.4106 4.427
66.4409 3.229
66.4712 4.062
66.5014 4.010
66.5317 3.958
66.5620 3.333
66.5923 3.958
66.6226 3.229
66.6528 3.073
66.6831 4.375
66.7134 4.427
66.7437 2.917
66.7739 3.177
66.8042 4.115
66.8345 3.542
66.8648 3.385
66.8951 3.437
66.9253 3.802
66.9556 3.594
66.9859 3.333
67.0162 4.115
67.0465 3.958
67.0767 4.323
67.1070 4.115
67.1373 4.167
67.1676 3.125
67.1978 5.208
67.2281 3.906
67.2584 3.854
67.2887 5.156
67.3190 5.052
67.3492 5.312
67.3795 4.844
67.4098 5.781
67.4401 5.833
67.4704 5.990
67.5006 7.552
67.5309 6.510
67.5612 8.021
67.5915 7.865
67.6218 8.437
67.6520 8.281
67.6823 9.271
67.7126 10.052
67.7429 10.573
67.7731 11.302
67.8034 12.344
67.8337 10.573
67.8640 10.781
67.8943 10.000
67.9245 11.927
67.9548 11.250
67.9851 10.677
68.0154 10.781
68.0457 9.948
68.0759 9.219
68.1062 8.385
68.1365 8.073
68.1668 8.594
68.1970 7.240
68.2273 7.865
68.2576 5.990
68.2879 7.187
68.3182 6.615
68.3484 5.000
68.3787 5.781
68.4090 5.469
68.4393 5.104
68.4696 5.156
68.4998 5.208
68.5301 5.208
68.5604 4.844
68.5907 4.375
68.6209 5.625
68.6512 4.427
68.6815 4.896
68.7118 5.000
68.7421 5.312
68.7723 5.833
68.8026 6.042
68.8329 6.458
68.8632 6.979
68.8935 6.979
68.9237 6.146
68.9540 5.937
68.9843 6.667
69.0146 7.083
69.0448 6.771
69.0751 7.187
69.1054 6.302
69.1357 5.781
69.1660 6.719
69.1962 4.896
69.2265 4.948
69.2568 4.792
69.2871 4.583
69.3174 4.062
69.3476 4.115
69.3779 4.167
69.4082 3.750
69.4385 3.229
69.4687 3.802
69.4990 3.646
69.5293 3.073
69.5596 3.125
69.5899 3.125
69.6201 3.073
69.6504 3.229
69.6807 2.448
69.7110 3.073
69.7413 2.917
69.7715 2.917
69.8018 2.656
69.8321 3.177
69.8624 2.812
69.8926 1.823
69.9229 2.396
69.9532 2.292
69.9835 1.823
70.0138 2.812
70.0440 1.771
70.0743 2.500
70.1046 2.396
70.1349 2.448
70.1652 1.771
70.1954 2.396
70.2257 1.979
70.2560 1.823
70.2863 2.656
70.3166 1.146
70.3468 1.771
70.3771 1.667
70.4074 1.875
70.4377 2.396
70.4679 1.875
70.4982 1.354
70.5285 1.771
70.5588 2.604
70.5891 2.083
70.6193 1.719
70.6496 1.823
70.6799 1.771
70.7102 1.927
70.7405 1.927
70.7707 1.875
70.8010 1.354
70.8313 1.979
70.8616 2.031
70.8918 2.344
70.9221 2.656
70.9524 1.979
70.9827 1.510
71.0130 1.979
71.0432 1.979
71.0735 1.562
71.1038 1.406
71.1341 1.875
71.1644 1.927
71.1946 2.031
71.2249 1.406
71.2552 1.615
71.2855 1.667
71.3157 1.771
71.3460 1.719
71.3763 1.667
71.4066 1.927
71.4369 2.083
71.4671 1.406
71.4974 1.771
71.5277 1.823
71.5580 1.771
71.5883 1.198
71.6185 1.458
71.6488 1.875
71.6791 1.875
71.7094 1.667
71.7396 1.719
71.7699 1.615
71.8002 1.979
71.8305 1.562
71.8608 1.927
71.8910 1.823
71.9213 2.031
71.9516 1.771
71.9819 1.562
72.0122 1.875
72.0424 2.240
72.0727 2.292
72.1030 2.083
72.1333 2.187
72.1635 1.823
72.1938 1.979
72.2241 1.771
72.2544 2.448
72.2847 2.760
72.3149 2.240
72.3452 2.760
72.3755 2.031
72.4058 2.708
72.4361 3.281
72.4663 2.448
72.4966 2.500
72.5269 1.771
72.5572 2.448
72.5874 2.135
72.6177 2.292
72.6480 2.031
72.6783 2.135
72.7086 2.292
72.7388 1.719
72.7691 2.760
72.7994 2.292
72.8297 1.406
72.8600 1.406
72.8902 1.823
72.9205 1.771
72.9508 1.302
72.9811 1.719
73.0113 1.719
73.0416 1.615
73.0719 1.667
73.1022 1.875
73.1325 1.510
73.1627 1.719
73.1930 2.135
73.2233 1.458
73.2536 1.875
73.2839 1.667
73.3141 1.250
73.3444 0.729
73.3747 1.354
73.4050 2.083
73.4353 1.927
73.4655 1.719
73.4958 2.135
73.5261 1.302
73.5564 1.667
73.5866 1.250
73.6169 0.937
73.6472 1.354
73.6775 1.510
73.7078 1.719
73.7380 1.146
73.7683 1.562
73.7986 1.042
73.8289 1.719
73.8592 1.302
73.8894 1.667
73.9197 1.250
73.9500 1.354
73.9803 1.250
74.0105 1.719
74.0408 2.083
74.0711 1.250
74.1014 2.031
74.1317 1.302
74.1619 1.250
74.1922 1.354
74.2225 1.406
74.2528 1.354
74.2831 1.667
74.3133 1.615
74.3436 1.719
74.3739 1.771
74.4042 1.719
74.4344 1.146
74.4647 1.719
74.4950 1.458
74.5253 1.198
74.5556 1.250
74.5858 1.875
74.6161 1.562
74.6464 1.354
74.6767 1.354
74.7070 1.667
74.7372 1.615
74.7675 1.094
74.7978 1.250
74.8281 1.198
74.8583 1.510
74.8886 1.198
74.9189 1.406
74.9492 1.510
74.9795 1.458
75.0097 1.146
75.0400 1.354
75.0703 1.562
75.1006 1.406
75.1309 1.823
75.1611 1.250
75.1914 1.354
75.2217 1.406
75.2520 2.187
75.2822 1.146
75.3125 1.615
75.3428 1.615
75.3731 1.979
75.4034 1.510
75.4336 1.354
75.4639 1.510
75.4942 2.344
75.5245 1.562
75.5548 1.406
75.5850 1.302
75.6153 1.562
75.6456 1.354
75.6759 1.406
75.7061 1.406
75.7364 1.667
75.7667 1.615
75.7970 1.771
75.8273 1.615
75.8575 1.510
75.8878 1.198
75.9181 1.250
75.9484 1.198
75.9787 1.615
76.0089 1.667
76.0392 1.667
76.0695 1.094
76.0998 1.823
76.1301 2.344
76.1603 1.667
76.1906 1.562
76.2209 1.667
76.2512 1.875
76.2814 2.031
76.3117 1.406
76.3420 1.510
76.3723 1.562
76.4026 1.979
76.4328 1.667
76.4631 2.083
76.4934 1.771
76.5237 1.927
76.5540 2.083
76.5842 1.979
76.6145 1.927
76.6448 2.187
76.6751 2.500
76.7053 2.240
76.7356 2.917
76.7659 2.396
76.7962 2.500
76.8265 2.187
76.8567 1.875
76.8870 2.812
76.9173 2.292
76.9476 2.135
76.9779 2.552
77.0081 2.760
77.0384 2.344
77.0687 1.875
77.0990 2.135
77.1292 2.344
77.1595 2.708
77.1898 2.240
77.2201 2.240
77.2504 2.083
77.2806 2.760
77.3109 1.979
77.3412 1.771
77.3715 1.406
77.4018 1.458
77.4320 1.719
77.4623 1.302
77.4926 2.135
77.5229 1.823
77.5531 1.823
77.5834 2.031
77.6137 1.667
77.6440 1.250
77.6743 2.344
77.7045 1.510
77.7348 1.406
77.7651 1.667
77.7954 1.250
77.8257 1.510
77.8559 1.667
77.8862 1.875
77.9165 1.667
77.9468 2.031
77.9770 1.667
78.0073 1.667
78.0376 1.615
78.0679 1.250
78.0982 1.719
78.1284 1.562
78.1587 1.771
78.1890 1.510
78.2193 1.667
78.2496 1.719
78.2798 1.458
78.3101 1.146
78.3404 1.771
78.3707 1.615
78.4009 1.458
78.4312 1.667
78.4615 1.198
78.4918 1.458
78.5221 1.458
78.5523 0.781
78.5826 1.562
78.6129 1.406
78.6432 1.198
78.6735 1.562
78.7037 1.927
78.7340 0.833
78.7643 1.615
78.7946 1.198
78.8248 1.042
78.8551 1.562
78.8854 1.458
78.9157 1.250
78.9460 1.198
78.9762 1.458
79.0065 0.885
79.0368 1.406
79.0671 2.135
79.0974 1.615
79.1276 1.146
79.1579 1.615
79.1882 1.250
79.2185 1.823
79.2488 1.198
79.2790 1.510
79.3093 1.615
79.3396 1.771
79.3699 1.562
79.4001 1.198
79.4304 1.406
79.4607 1.562
79.4910 1.198
79.5213 1.146
79.5515 1.146
79.5818 1.198
79.6121 1.198
79.6424 1.406
79.6727 1.562
79.7029 1.562
79.7332 1.562
79.7635 1.667
79.7938 1.198
79.8240 1.354
79.8543 1.615
79.8846 1.354
79.9149 1.615
79.9452 1.667
79.9754 1.667
80.0057 1.562
80.0360 1.042
80.0663 1.667
80.0966 1.458
80.1268 1.823
80.1571 1.250
80.1874 1.771
80.2177 1.562
80.2479 1.562
80.2782 1.927
80.3085 1.771
80.3388 1.719
80.3691 1.146
80.3993 1.771
80.4296 1.302
80.4599 1.458
80.4902 1.510
80.5205 1.250
80.5507 0.937
80.5810 1.562
80.6113 1.562
80.6416 1.302
80.6718 1.146
80.7021 1.250
80.7324 1.406
80.7627 1.562
80.7930 1.562
80.8232 1.510
80.8535 1.250
80.8838 1.927
80.9141 2.031
80.9444 2.135
80.9746 1.198
81.0049 1.615
81.0352 1.667
81.0655 1.302
81.0957 2.187
81.1260 1.562
81.1563 1.979
81.1866 1.667
81.2169 1.719
81.2471 2.500
81.2774 1.719
81.3077 1.510
81.3380 1.719
81.3683 1.927
81.3985 2.604
81.4288 2.292
81.4591 2.604
81.4894 1.406
81.5196 1.875
81.5499 1.823
81.5802 1.615
81.6105 1.667
81.6408 2.031
81.6710 1.875
81.7013 1.458
81.7316 1.667
81.7619 1.667
81.7922 1.823
81.8224 1.198
81.8527 1.771
81.8830 1.458
81.9133 1.667
81.9436 1.510
81.9738 1.771
82.0041 1.406
82.0344 1.354
82.0647 1.667
82.0949 1.250
82.1252 1.719
82.1555 1.510
82.1858 1.198
82.2161 1.094
82.2463 1.719
82.2766 1.615
82.3069 1.406
82.3372 1.146
82.3675 1.719
82.3977 1.458
82.4280 1.094
82.4583 0.885
82.4886 1.667
82.5188 1.042
82.5491 1.406
82.5794 1.562
82.6097 1.458
82.6400 1.094
82.6702 0.781
82.7005 0.885
82.7308 1.458
82.7611 1.406
82.7914 1.094
82.8216 1.562
82.8519 1.302
82.8822 0.990
82.9125 1.562
82.9427 1.250
82.9730 1.198
83.0033 1.615
83.0336 1.198
83.0639 1.146
83.0941 1.042
83.1244 1.354
83.1547 1.615
83.1850 1.302
83.2153 1.354
83.2455 1.458
83.2758 1.354
83.3061 1.562
83.3364 1.094
83.3666 1.250
83.3969 0.990
83.4272 1.198
83.4575 0.833
83.4878 1.302
83.5180 1.198
83.5483 1.146
83.5786 1.302
83.6089 1.198
83.6392 0.990
83.6694 1.042
83.6997 1.250
83.7300 1.354
83.7603 0.885
83.7905 1.354
83.8208 1.510
83.8511 1.510
83.8814 1.615
83.9117 1.562
83.9419 0.990
83.9722 1.510
84.0025 1.406
84.0328 1.042
84.0631 1.719
84.0933 1.458
84.1236 1.458
84.1539 1.510
84.1842 1.406
84.2144 1.823
84.2447 1.302
84.2750 1.042
84.3053 1.042
84.3356 1.615
84.3658 1.042
84.3961 1.198
84.4264 1.354
84.4567 1.510
84.4870 1.562
84.5172 1.510
84.5475 1.042
84.5778 1.198
84.6081 0.781
84.6383 1.198
84.6686 1.823
84.6989 1.198
84.7292 1.354
84.7595 1.667
84.7897 1.719
84.8200 1.510
84.8503 1.615
84.8806 1.510
84.9109 1.250
84.9411 1.146
84.9714 1.406
85.0017 1.042
85.0320 1.198
85.0623 0.729
85.0925 1.458
85.1228 1.250
85.1531 1.094
85.1834 1.354
85.2136 1.719
85.2439 1.562
85.2742 1.458
85.3045 2.187
85.3348 1.094
85.3650 1.250
85.3953 1.458
85.4256 1.302
85.4559 1.146
85.4862 1.146
85.5164 1.146
85.5467 0.990
85.5770 1.198
85.6073 1.094
85.6375 1.510
85.6678 1.667
85.6981 1.615
85.7284 1.198
85.7587 0.990
85.7889 2.083
85.8192 1.458
85.8495 1.198
85.8798 1.198
85.9101 1.094
85.9403 1.406
85.9706 1.354
86.0009 1.146
86.0312 1.615
86.0614 1.406
86.0917 1.198
86.1220 1.458
86.1523 1.198
86.1826 1.198
86.2128 1.250
86.2431 1.146
86.2734 1.562
86.3037 1.302
86.3340 1.927
86.3642 1.302
86.3945 2.031
86.4248 1.458
86.4551 2.135
86.4853 1.250
86.5156 1.302
86.5459 1.562
86.5762 1.458
86.6065 1.458
86.6367 1.510
86.6670 0.990
86.6973 1.302
86.7276 1.979
86.7579 1.094
86.7881 1.510
86.8184 1.042
86.8487 1.615
86.8790 1.406
86.9092 0.833
86.9395 1.458
86.9698 1.458
87.0001 1.146
87.0304 1.562
87.0606 1.458
87.0909 2.031
87.1212 0.729
87.1515 1.354
87.1818 1.406
87.2120 1.823
87.2423 1.198
87.2726 1.667
87.3029 2.031
87.3331 1.354
87.3634 1.198
87.3937 1.927
87.4240 1.771
87.4543 1.094
87.4845 1.354
87.5148 0.937
87.5451 1.094
87.5754 1.302
87.6057 1.615
87.6359 1.406
87.6662 1.302
87.6965 1.719
87.7268 1.771
87.7571 1.354
87.7873 1.667
87.8176 1.927
87.8479 1.510
87.8782 1.771
87.9084 1.302
87.9387 1.615
87.9690 1.198
87.9993 1.354
88.0296 1.458
88.0598 1.667
88.0901 1.146
88.1204 1.771
88.1507 1.458
88.1810 1.250
88.2112 1.458
88.2415 1.875
88.2718 1.562
88.3021 0.990
88.3323 2.031
88.3626 1.771
88.3929 1.302
88.4232 1.719
88.4535 1.771
88.4837 1.667
88.5140 1.302
88.5443 2.135
88.5746 1.719
88.6049 1.562
88.6351 2.031
88.6654 1.823
88.6957 1.562
88.7260 1.615
88.7562 1.771
88.7865 1.719
88.8168 2.083
88.8471 2.448
88.8774 2.240
88.9076 2.448
88.9379 2.083
88.9682 2.240
88.9985 2.812
89.0288 2.500
89.0590 2.135
89.0893 1.979
89.1196 2.135
89.1499 2.760
89.1801 2.500
89.2104 2.656
89.2407 2.500
89.2710 3.073
89.3013 2.865
89.3315 3.281
89.3618 3.542
89.3921 3.750
89.4224 2.969
89.4527 3.073
89.4829 3.229
89.5132 3.698
89.5435 3.698
89.5738 3.021
89.6040 3.073
89.6343 3.073
89.6646 3.073
89.6949 2.604
89.7252 2.917
89.7554 3.333
89.7857 3.594
89.8160 3.021
89.8463 3.073
89.8766 2.760
89.9068 2.240
89.9371 2.708
89.9674 3.125
89.9977 2.083
90.0279 2.448
90.0582 1.979
90.0885 1.979
90.1188 2.292
90.1491 2.031
90.1793 1.510
90.2096 2.031
90.2399 1.979
90.2702 1.719
90.3005 1.250
90.3307 1.875
90.3610 1.979
90.3913 2.500
90.4216 1.354
90.4518 1.667
90.4821 1.875
90.5124 1.719
90.5427 1.719
90.5730 1.354
90.6032 1.458
90.6335 1.094
90.6638 1.458
90.6941 1.667
90.7244 2.292
90.7546 1.302
90.7849 1.354
90.8152 1.198
90.8455 1.667
90.8758 1.510
90.9060 1.354
90.9363 1.979
90.9666 1.198
90.9969 1.823
91.0271 1.615
91.0574 1.562
91.0877 1.198
91.1180 2.083
91.1483 1.667
91.1785 1.302
91.2088 1.615
91.2391 1.667
91.2694 1.562
91.2997 1.562
91.3299 1.719
91.3602 1.458
91.3905 1.615
91.4208 1.458
91.4510 1.927
91.4813 1.771
91.5116 1.302
91.5419 1.198
91.5722 1.510
91.6024 1.094
91.6327 1.927
91.6630 1.667
91.6933 1.406
91.7236 1.615
91.7538 1.667
91.7841 1.354
91.8144 1.146
91.8447 1.719
91.8749 1.510
91.9052 1.615
91.9355 1.458
91.9658 1.458
91.9961 1.615
92.0263 1.146
92.0566 2.240
92.0869 1.979
92.1172 2.031
92.1475 1.823
92.1777 1.875
92.2080 1.458
92.2383 2.396
92.2686 1.667
92.2988 2.031
92.3291 1.615
92.3594 2.344
92.3897 1.615
92.4200 1.979
92.4502 1.771
92.4805 1.667
92.5108 1.979
92.5411 1.823
92.5714 1.719
92.6016 2.083
92.6319 1.927
92.6622 2.135
92.6925 2.031
92.7227 2.240
92.7530 1.823
92.7833 2.031
92.8136 2.083
92.8439 2.083
92.8741 2.135
92.9044 1.562
92.9347 1.771
92.9650 2.187
92.9953 2.187
93.0255 2.656
93.0558 1.719
93.0861 1.354
93.1164 1.875
93.1466 1.510
93.1769 2.083
93.2072 1.719
93.2375 1.771
93.2678 1.771
93.2980 2.187
93.3283 1.719
93.3586 2.135
93.3889 1.719
93.4192 1.771
93.4494 1.719
93.4797 1.510
93.5100 1.823
93.5403 1.719
93.5706 1.562
93.6008 1.875
93.6311 1.198
93.6614 1.302
93.6917 1.198
93.7219 1.354
93.7522 1.510
93.7825 1.510
93.8128 2.135
93.8431 1.927
93.8733 2.187
93.9036 1.562
93.9339 1.354
93.9642 1.667
93.9945 1.510
94.0247 2.031
94.0550 1.927
94.0853 1.510
94.1156 1.719
94.1458 2.187
94.1761 1.562
94.2064 1.510
94.2367 1.458
94.2670 2.031
94.2972 1.979
94.3275 1.354
94.3578 2.240
94.3881 1.979
94.4184 1.875
94.4486 1.719
94.4789 1.510
94.5092 1.719
94.5395 2.187
94.5697 2.135
94.6000 2.083
94.6303 2.656
94.6606 1.771
94.6909 2.187
94.7211 2.187
94.7514 2.708
94.7817 1.771
94.8120 2.708
94.8423 2.812
94.8725 2.292
94.9028 2.760
94.9331 3.125
94.9634 3.229
94.9936 3.698
95.0239 2.865
95.0542 3.073
95.0845 2.708
95.1148 3.177
95.1450 3.229
95.1753 3.281
95.2056 4.219
95.2359 3.854
95.2662 2.969
95.2964 3.958
95.3267 3.437
95.3570 2.344
95.3873 2.812
95.4175 3.281
95.4478 3.333
95.4781 3.021
95.5084 1.875
95.5387 2.812
95.5689 3.073
95.5992 2.135
95.6295 2.396
95.6598 2.917
95.6901 2.708
95.7203 2.604
95.7506 2.812
95.7809 2.552
95.8112 2.135
95.8414 2.240
95.8717 2.187
95.9020 2.396
95.9323 2.031
95.9626 2.083
95.9928 1.875
96.0231 1.927
96.0534 2.500
96.0837 2.344
96.1140 2.135
96.1442 2.292
96.1745 1.615
96.2048 1.510
96.2351 1.875
96.2653 2.396
96.2956 2.240
96.3259 1.562
96.3562 1.771
96.3865 1.562
96.4167 1.667
96.4470 2.344
96.4773 1.875
96.5076 1.875
96.5379 1.719
96.5681 2.083
96.5984 1.458
96.6287 1.823
96.6590 2.083
96.6893 1.354
96.7195 1.250
96.7498 1.719
96.7801 2.083
96.8104 1.719
96.8406 1.719
96.8709 1.719
96.9012 1.146
96.9315 1.615
96.9618 1.250
96.9920 1.927
97.0223 2.083
97.0526 1.875
97.0829 1.042
97.1132 1.250
97.1434 1.042
97.1737 2.187
97.2040 1.198
97.2343 1.771
97.2645 1.562
97.2948 1.927
97.3251 1.302
97.3554 1.823
97.3857 1.771
97.4159 1.771
97.4462 1.250
97.4765 1.458
97.5068 1.927
97.5371 2.083
97.5673 1.510
97.5976 1.510
97.6279 1.823
97.6582 1.771
97.6884 1.771
97.7187 1.406
97.7490 1.719
97.7793 1.667
97.8096 1.771
97.8398 1.823
97.8701 1.771
97.9004 2.031
97.9307 1.771
97.9610 1.406
97.9912 2.344
98.0215 1.094
98.0518 1.667
98.0821 2.292
98.1123 1.875
98.1426 1.823
98.1729 1.719
98.2032 2.187
98.2335 2.240
98.2637 2.292
98.2940 2.031
98.3243 1.927
98.3546 2.135
98.3849 2.344
98.4151 2.292
98.4454 2.865
98.4757 2.396
98.5060 2.396
98.5362 2.604
98.5665 2.292
98.5968 2.344
98.6271 2.656
98.6574 2.292
98.6876 2.604
98.7179 2.865
98.7482 2.240
98.7785 2.396
98.8088 1.719
98.8390 1.771
98.8693 2.292
98.8996 2.344
98.9299 1.979
98.9601 1.875
98.9904 1.875
99.0207 2.292
99.0510 2.292
99.0813 1.562
99.1115 2.135
99.1418 1.354
99.1721 1.198
99.2024 1.771
99.2327 1.927
99.2629 2.031
99.2932 1.927
99.3235 1.510
99.3538 1.198
99.3841 2.031
99.4143 1.667
99.4446 1.823
99.4749 1.302
99.5052 1.927
99.5354 1.667
99.5657 1.823
99.5960 1.510
99.6263 0.990
99.6566 1.302
99.6868 1.615
99.7171 1.979
99.7474 1.615
99.7777 1.354
99.8080 1.979
99.8382 1.146
99.8685 1.510
99.8988 1.302
99.9291 1.667
99.9593 1.562
99.9896 1.719
100.0199 1.771
100.0502 2.135
100.0805 1.146
100.1107 1.823
100.1410 1.823
100.1713 1.510
100.2016 1.250
100.2319 2.031
100.2621 1.719
100.2924 1.667
100.3227 2.187
100.3530 1.250
100.3832 1.979
100.4135 1.302
100.4438 1.354
100.4741 1.354
100.5044 1.927
100.5346 1.562
100.5649 1.302
100.5952 1.354
100.6255 1.354
100.6558 1.510
100.6860 1.302
100.7163 0.990
100.7466 1.719
100.7769 1.667
100.8071 1.302
100.8374 1.823
100.8677 1.250
100.8980 1.094
100.9283 1.406
100.9585 1.146
100.9888 1.771
101.0191 1.250
101.0494 1.146
101.0797 1.458
101.1099 1.354
101.1402 1.302
101.1705 1.979
101.2008 1.562
101.2310 1.198
101.2613 1.615
101.2916 1.198
101.3219 1.510
101.3522 1.406
101.3824 1.979
101.4127 1.719
101.4430 1.771
101.4733 1.771
101.5036 1.354
101.5338 1.250
101.5641 1.667
101.5944 1.510
101.6247 1.823
101.6549 1.823
101.6852 1.510
101.7155 2.187
101.7458 2.083
101.7761 1.562
101.8063 1.302
101.8366 1.354
101.8669 1.250
101.8972 1.719
101.9275 1.510
101.9577 1.823
101.9880 1.875
102.0183 2.240
102.0486 1.771
102.0788 2.083
102.1091 1.458
102.1394 1.719
102.1697 2.187
102.2000 1.927
102.2302 1.510
102.2605 2.344
102.2908 1.875
102.3211 1.719
102.3514 2.135
102.3816 2.240
102.4119 1.354
102.4422 1.667
102.4725 2.292
102.5028 2.292
102.5330 1.875
102.5633 1.771
102.5936 2.135
102.6239 1.875
102.6541 2.344
102.6844 2.187
102.7147 2.031
102.7450 2.500
102.7753 2.292
102.8055 1.979
102.8358 2.448
102.8661 2.083
102.8964 2.500
102.9267 2.604
102.9569 1.771
102.9872 2.292
103.0175 2.292
103.0478 2.969
103.0780 2.292
103.1083 2.396
103.1386 2.187
103.1689 2.500
103.1992 2.448
103.2294 3.333
103.2597 2.760
103.2900 2.083
103.3203 2.448
103.3506 2.083
103.3808 1.562
103.4111 2.917
103.4414 1.667
103.4717 2.240
103.5019 2.240
103.5322 1.979
103.5625 2.135
103.5928 2.031
103.6231 3.229
103.6533 2.187
103.6836 2.187
103.7139 2.448
103.7442 2.396
103.7745 2.656
103.8047 2.656
103.8350 2.969
103.8653 2.292
103.8956 2.448
103.9258 2.500
103.9561 2.969
103.9864 2.292
104.0167 2.865
104.0470 2.656
104.0772 3.542
104.1075 3.646
104.1378 3.073
104.1681 2.500
104.1984 2.448
104.2286 2.448
104.2589 2.396
104.2892 3.021
104.3195 3.646
104.3497 2.500
104.3800 2.917
104.4103 3.021
104.4406 2.500
104.4709 2.344
104.5011 2.187
104.5314 2.396
104.5617 2.135
104.5920 2.448
104.6223 2.500
104.6525 1.927
104.6828 2.344
104.7131 2.344
104.7434 1.979
104.7736 1.667
104.8039 2.448
104.8342 2.240
104.8645 1.615
104.8948 1.719
104.9250 1.510
104.9553 1.875
104.9856 1.562
105.0159 1.823
105.0462 1.562
105.0764 1.458
105.1067 1.875
105.1370 1.667
105.1673 1.094
105.1975 1.250
105.2278 2.083
105.2581 1.927
105.2884 1.458
105.3187 1.406
105.3489 1.979
105.3792 1.979
105.4095 1.719
105.4398 1.510
105.4701 1.771
105.5003 0.781
105.5306 1.250
105.5609 2.135
105.5912 1.875
105.6215 1.458
105.6517 1.406
105.6820 1.615
105.7123 1.406
105.7426 1.406
105.7728 1.562
105.8031 1.667
105.8334 2.031
105.8637 1.198
105.8940 1.042
105.9242 1.562
105.9545 1.771
105.9848 1.562
106.0151 1.458
106.0454 1.615
106.0756 1.146
106.1059 1.458
106.1362 1.042
106.1665 1.667
106.1967 1.667
106.2270 1.354
106.2573 1.510
106.2876 1.458
106.3179 2.031
106.3481 1.562
106.3784 1.458
106.4087 1.823
106.4390 1.094
106.4693 1.562
106.4995 1.302
106.5298 1.198
106.5601 2.135
106.5904 1.510
106.6206 1.615
106.6509 1.667
106.6812 1.458
106.7115 1.406
106.7418 1.875
106.7720 1.615
106.8023 1.458
106.8326 1.406
106.8629 1.615
106.8932 1.562
106.9234 1.771
106.9537 0.990
106.9840 1.927
107.0143 2.135
107.0445 1.406
107.0748 1.667
107.1051 1.562
107.1354 1.615
107.1657 1.719
107.1959 2.083
107.2262 1.354
107.2565 2.083
107.2868 1.094
107.3171 1.615
107.3473 1.510
107.3776 1.302
107.4079 1.615
107.4382 1.458
107.4684 1.771
107.4987 1.771
107.5290 1.458
107.5593 1.302
107.5896 1.875
107.6198 1.927
107.6501 1.458
107.6804 1.458
107.7107 1.823
107.7410 1.510
107.7712 1.719
107.8015 2.031
107.8318 1.354
107.8621 1.562
107.8923 1.615
107.9226 1.562
107.9529 1.823
107.9832 1.771
108.0135 1.615
108.0437 1.667
108.0740 1.771
108.1043 2.083
108.1346 1.510
108.1649 1.042
108.1951 1.510
108.2254 1.094
108.2557 0.885
108.2860 1.615
108.3163 1.406
108.3465 1.354
108.3768 1.875
108.4071 1.042
108.4374 1.667
108.4676 1.510
108.4979 1.354
108.5282 1.302
108.5585 1.667
108.5888 1.458
108.6190 1.771
108.6493 1.406
108.6796 1.354
108.7099 1.667
108.7402 1.562
108.7704 1.615
108.8007 1.302
108.8310 1.510
108.8613 1.562
108.8915 1.510
108.9218 1.510
108.9521 1.406
108.9824 1.198
109.0127 2.083
109.0429 1.719
109.0732 1.302
109.1035 1.875
109.1338 2.135
109.1641 1.562
109.1943 1.250
109.2246 1.510
109.2549 1.615
109.2852 1.198
109.3154 1.250
109.3457 1.510
109.3760 1.927
109.4063 1.562
109.4366 1.823
109.4668 1.458
109.4971 1.927
109.5274 1.667
109.5577 1.562
109.5880 1.510
109.6182 1.406
109.6485 2.031
109.6788 1.667
109.7091 1.562
109.7393 1.927
109.7696 1.510
109.7999 1.719
109.8302 2.031
109.8605 1.719
109.8907 2.187
109.9210 2.031
109.9513 1.771
109.9816 1.979
110.0119 2.240
110.0421 2.031
110.0724 2.240
110.1027 2.240
110.1330 1.510
110.1632 2.240
110.1935 1.875
110.2238 1.927
110.2541 1.875
110.2844 2.031
110.3146 2.240
110.3449 1.615
110.3752 1.927
110.4055 2.344
110.4358 2.708
110.4660 2.240
110.4963 2.083
110.5266 2.344
110.5569 2.448
110.5871 2.187
110.6174 1.615
110.6477 1.823
110.6780 2.344
110.7083 2.135
110.7385 1.771
110.7688 2.240
110.7991 2.240
110.8294 1.667
110.8597 2.344
110.8899 1.302
110.9202 1.562
110.9505 2.396
110.9808 1.615
111.0110 2.031
111.0413 1.771
111.0716 1.927
111.1019 1.979
111.1322 1.927
111.1624 2.083
111.1927 1.562
111.2230 1.354
111.2533 1.719
111.2836 1.615
111.3138 1.302
111.3441 1.458
111.3744 1.615
111.4047 1.615
111.4350 1.562
111.4652 1.667
111.4955 1.927
111.5258 1.667
111.5561 1.615
111.5863 1.667
111.6166 1.771
111.6469 1.302
111.6772 1.250
111.7075 1.771
111.7377 1.510
111.7680 1.406
111.7983 2.344
111.8286 1.458
111.8589 1.562
111.8891 1.302
111.9194 1.354
111.9497 0.885
111.9800 1.458
112.0102 1.979
112.0405 1.615
112.0708 1.146
112.1011 1.146
112.1314 1.094
112.1616 1.823
112.1919 1.510
112.2222 1.667
112.2525 1.250
112.2828 1.458
112.3130 1.094
112.3433 1.146
112.3736 1.875
112.4039 1.667
112.4341 1.198
112.4644 1.562
112.4947 1.146
112.5250 1.667
112.5553 1.406
112.5855 1.198
112.6158 1.146
112.6461 1.823
112.6764 1.198
112.7067 1.458
112.7369 1.458
112.7672 1.667
112.7975 1.146
112.8278 1.146
112.8580 1.667
112.8883 1.615
112.9186 1.302
112.9489 1.406
112.9792 1.719
113.0094 2.344
113.0397 1.250
113.0700 1.823
113.1003 2.083
113.1306 1.354
113.1608 1.406
113.1911 1.979
113.2214 1.146
113.2517 1.198
113.2819 1.198
113.3122 1.719
113.3425 0.937
113.3728 1.354
113.4031 1.354
113.4333 1.250
113.4636 1.771
113.4939 1.771
113.5242 1.562
113.5545 2.187
113.5847 1.771
113.6150 1.667
113.6453 1.979
113.6756 0.885
113.7058 1.667
113.7361 1.562
113.7664 1.406
113.7967 1.615
113.8270 1.146
113.8572 1.771
113.8875 1.823
113.9178 1.615
113.9481 1.771
113.9784 1.146
114.0086 1.458
114.0389 1.510
114.0692 1.771
114.0995 1.198
114.1298 1.823
114.1600 1.823
114.1903 1.302
114.2206 1.146
114.2509 1.406
114.2811 1.875
114.3114 1.198
114.3417 1.667
114.3720 1.510
114.4023 1.719
114.4325 1.771
114.4628 1.250
114.4931 1.875
114.5234 1.094
114.5537 1.615
114.5839 1.875
114.6142 1.719
114.6445 1.406
114.6748 1.719
114.7050 1.354
114.7353 1.719
114.7656 1.615
114.7959 1.927
114.8262 1.823
114.8564 1.510
114.8867 1.979
114.9170 1.458
114.9473 2.031
114.9776 1.615
115.0078 1.667
115.0381 2.031
115.0684 1.615
115.0987 1.615
115.1289 2.083
115.1592 1.875
115.1895 1.875
115.2198 1.979
115.2501 2.083
115.2803 2.396
115.3106 2.396
115.3409 1.875
115.3712 1.927
115.4015 2.240
115.4317 1.250
115.4620 2.135
115.4923 1.927
115.5226 1.719
115.5528 1.719
115.5831 2.292
115.6134 1.979
115.6437 2.500
115.6740 1.927
115.7042 2.812
115.7345 2.240
115.7648 2.187
115.7951 2.135
115.8254 2.865
115.8556 2.656
115.8859 2.917
115.9162 2.396
115.9465 2.448
115.9767 2.917
116.0070 2.031
116.0373 2.448
116.0676 2.969
116.0979 3.490
116.1281 2.187
116.1584 2.344
116.1887 2.865
116.2190 3.073
116.2493 3.125
116.2795 3.021
116.3098 3.542
116.3401 2.240
116.3704 3.229
116.4006 2.344
116.4309 2.500
116.4612 3.281
116.4915 3.594
116.5218 3.021
116.5520 2.656
116.5823 3.229
116.6126 2.865
116.6429 2.917
116.6732 2.344
116.7034 2.865
116.7337 3.437
116.7640 2.708
116.7943 3.385
116.8245 2.656
116.8548 2.708
116.8851 2.760
116.9154 2.083
116.9457 2.865
116.9759 1.823
117.0062 2.240
117.0365 1.823
117.0668 2.760
117.0971 2.396
117.1273 1.927
117.1576 1.979
117.1879 1.615
117.2182 2.448
117.2485 1.250
117.2787 1.667
117.3090 2.031
117.3393 1.562
117.3696 2.031
117.3998 1.354
117.4301 2.812
117.4604 1.510
117.4907 1.667
117.5210 1.250
117.5512 1.510
117.5815 1.458
117.6118 1.615
117.6421 1.875
117.6724 1.823
117.7026 1.667
117.7329 2.240
117.7632 1.823
117.7935 1.719
117.8237 1.406
117.8540 1.094
117.8843 2.083
117.9146 1.615
117.9449 1.302
117.9751 1.510
118.0054 1.667
118.0357 1.250
118.0660 1.406
118.0963 2.083
118.1265 1.562
118.1568 1.979
118.1871 1.615
118.2174 1.771
118.2476 1.875
118.2779 2.292
118.3082 1.927
118.3385 1.823
118.3688 1.458
118.3990 1.458
118.4293 1.719
118.4596 0.833
118.4899 1.667
118.5202 2.135
118.5504 1.302
118.5807 2.500
118.6110 1.927
118.6413 1.198
118.6715 1.719
118.7018 1.354
118.7321 1.667
118.7624 1.198
118.7927 1.146
118.8229 1.302
118.8532 1.198
118.8835 1.771
118.9138 1.823
118.9441 1.719
118.9743 1.094
119.0046 1.302
119.0349 1.198
119.0652 2.083
119.0954 1.667
119.1257 1.771
119.1560 1.250
119.1863 1.406
119.2166 2.187
119.2468 1.198
119.2771 1.927
119.3074 1.719
119.3377 1.458
119.3680 0.937
119.3982 1.615
119.4285 0.990
119.4588 1.146
119.4891 1.354
119.5193 1.042
119.5496 1.510
119.5799 1.042
119.6102 1.771
119.6405 1.562
119.6707 1.875
119.7010 1.615
119.7313 1.302
119.7616 1.302
119.7919 1.042
119.8221 1.250
119.8524 1.823
119.8827 1.667
119.9130 1.615
119.9433 1.719
119.9735 0.885
120.0038 1.615
