'Id: "" Comment: "" Operator: "Lab Manager" Anode: "Cu" Scantype: "Locked Coupled" TimePerStep: "19.2" X: "9999" Y: "9999" Z: "9999" 
10.0015 3.490
10.0318 3.021
10.0620 2.292
10.0923 2.760
10.1226 3.542
10.1529 3.021
10.1832 3.125
10.2134 2.604
10.2437 2.604
10.2740 2.969
10.3043 2.917
10.3346 2.760
10.3648 3.594
10.3951 2.708
10.4254 2.396
10.4557 2.187
10.4859 2.396
10.5162 3.281
10.5465 2.708
10.5768 3.594
10.6071 2.656
10.6373 2.760
10.6676 2.865
10.6979 2.865
10.7282 2.708
10.7585 2.865
10.7887 3.594
10.8190 3.177
10.8493 2.760
10.8796 2.448
10.9098 2.760
10.9401 2.604
10.9704 1.615
11.0007 3.021
11.0310 3.281
11.0612 3.021
11.0915 3.177
11.1218 3.021
11.1521 2.292
11.1824 2.448
11.2126 2.344
11.2429 2.396
11.2732 2.812
11.3035 2.865
11.3337 2.812
11.3640 2.917
11.3943 2.865
11.4246 2.187
11.4549 2.292
11.4851 2.187
11.5154 3.437
11.5457 2.917
11.5760 2.344
11.6063 2.656
11.6365 2.604
11.6668 3.073
11.6971 2.969
11.7274 2.344
11.7577 2.344
11.7879 2.865
11.8182 2.448
11.8485 2.240
11.8788 2.656
11.9090 2.708
11.9393 3.177
11.9696 2.917
11.9999 2.865
12.0302 2.344
12.0604 2.396
12.0907 2.500
12.1210 2.969
12.1513 2.656
12.1816 2.500
12.2118 2.552
12.2421 3.125
12.2724 2.865
12.3027 2.396
12.3329 1.667
12.3632 2.135
12.3935 2.552
12.4238 2.240
12.4541 2.292
12.4843 2.396
12.5146 3.437
12.5449 2.500
12.5752 1.719
12.6055 2.031
12.6357 2.292
12.6660 2.812
12.6963 2.969
12.7266 1.979
12.7568 2.344
12.7871 2.135
12.8174 2.865
12.8477 2.812
12.8780 1.615
12.9082 1.927
12.9385 1.979
12.9688 2.292
12.9991 1.562
13.0294 2.240
13.0596 1.927
13.0899 2.812
13.1202 2.500
13.1505 2.083
13.1807 2.604
13.2110 1.771
13.2413 2.083
13.2716 2.812
13.3019 2.292
13.3321 2.812
13.3624 2.812
13.3927 2.187
13.4230 2.292
13.4533 2.240
13.4835 2.448
13.5138 2.031
13.5441 2.656
13.5744 1.875
13.6046 2.031
13.6349 2.344
13.6652 2.292
13.6955 2.396
13.7258 1.927
13.7560 2.135
13.7863 2.448
13.8166 2.135
13.8469 2.708
13.8772 2.969
13.9074 1.771
13.9377 1.719
13.9680 2.240
13.9983 3.073
14.0285 1.667
14.0588 3.073
14.0891 2.552
14.1194 2.396
14.1497 2.187
14.1799 1.979
14.2102 2.344
14.2405 2.187
14.2708 2.135
14.3011 2.500
14.3313 2.760
14.3616 2.292
14.3919 2.552
14.4222 2.396
14.4524 1.979
14.4827 1.667
14.5130 2.344
14.5433 2.396
14.5736 2.552
14.6038 2.240
14.6341 2.240
14.6644 2.135
14.6947 2.031
14.7250 2.135
14.7552 2.396
14.7855 2.448
14.8158 2.240
14.8461 2.448
14.8764 1.979
14.9066 2.240
14.9369 1.875
14.9672 1.771
14.9975 2.396
15.0277 1.979
15.0580 2.708
15.0883 2.292
15.1186 1.771
15.1489 1.771
15.1791 2.031
15.2094 2.552
15.2397 1.875
15.2700 2.865
15.3003 1.927
15.3305 1.771
15.3608 1.823
15.3911 2.448
15.4214 2.396
15.4516 1.927
15.4819 1.927
15.5122 1.719
15.5425 1.927
15.5728 1.979
15.6030 2.760
15.6333 2.292
15.6636 1.771
15.6939 1.458
15.7242 1.927
15.7544 1.927
15.7847 1.719
15.8150 2.917
15.8453 2.135
15.8755 1.510
15.9058 1.875
15.9361 3.125
15.9664 1.979
15.9967 2.083
16.0269 2.396
16.0572 1.979
16.0875 2.083
16.1178 2.344
16.1481 1.719
16.1783 1.979
16.2086 2.031
16.2389 2.031
16.2692 1.979
16.2994 1.771
16.3297 1.250
16.3600 2.083
16.3903 2.708
16.4206 2.656
16.4508 1.354
16.4811 1.510
16.5114 2.135
16.5417 2.292
16.5720 1.927
16.6022 1.458
16.6325 1.875
16.6628 2.500
16.6931 1.927
16.7233 1.510
16.7536 1.927
16.7839 1.927
16.8142 2.240
16.8445 2.292
16.8747 1.250
16.9050 1.615
16.9353 2.031
16.9656 1.615
16.9959 2.083
17.0261 2.240
17.0564 2.240
17.0867 2.031
17.1170 1.875
17.1472 2.240
17.1775 2.135
17.2078 1.823
17.2381 1.719
17.2684 2.187
17.2986 1.719
17.3289 2.031
17.3592 1.562
17.3895 1.615
17.4198 2.292
17.4500 2.135
17.4803 1.719
17.5106 1.510
17.5409 1.875
17.5712 1.979
17.6014 2.187
17.6317 1.667
17.6620 2.135
17.6923 1.667
17.7225 2.604
17.7528 1.719
17.7831 1.875
17.8134 1.615
17.8437 1.979
17.8739 1.615
17.9042 1.458
17.9345 1.042
17.9648 1.458
17.9951 2.031
18.0253 1.458
18.0556 1.510
18.0859 2.292
18.1162 3.021
18.1464 2.448
18.1767 1.979
18.2070 2.344
18.2373 1.771
18.2676 2.240
18.2978 1.719
18.3281 2.083
18.3584 1.250
18.3887 2.135
18.4190 1.562
18.4492 1.875
18.4795 1.719
18.5098 2.031
18.5401 1.979
18.5703 1.615
18.6006 1.719
18.6309 1.510
18.6612 1.771
18.6915 1.719
18.7217 1.458
18.7520 1.719
18.7823 1.458
18.8126 1.771
18.8429 1.354
18.8731 1.927
18.9034 1.875
18.9337 1.823
18.9640 1.615
18.9942 1.771
19.0245 1.927
19.0548 1.146
19.0851 1.094
19.1154 1.198
19.1456 1.719
19.1759 1.458
19.2062 1.667
19.2365 1.875
19.2668 1.667
19.2970 2.031
19.3273 1.771
19.3576 1.198
19.3879 1.979
19.4181 1.875
19.4484 1.667
19.4787 2.031
19.5090 1.927
19.5393 1.875
19.5695 1.458
19.5998 1.771
19.6301 1.146
19.6604 1.615
19.6907 1.719
19.7209 1.823
19.7512 1.146
19.7815 1.771
19.8118 1.510
19.8420 1.667
19.8723 1.458
19.9026 1.823
19.9329 1.146
19.9632 1.771
19.9934 1.510
20.0237 1.667
20.0540 1.667
20.0843 1.771
20.1146 1.719
20.1448 1.875
20.1751 1.510
20.2054 1.562
20.2357 1.875
20.2659 1.562
20.2962 2.031
20.3265 1.406
20.3568 1.406
20.3871 1.562
20.4173 1.562
20.4476 1.667
20.4779 1.250
20.5082 1.875
20.5385 1.615
20.5687 1.510
20.5990 1.875
20.6293 1.250
20.6596 1.667
20.6899 1.146
20.7201 1.510
20.7504 1.458
20.7807 1.302
20.8110 1.354
20.8412 1.667
20.8715 1.667
20.9018 1.719
20.9321 0.937
20.9624 1.667
20.9926 1.927
21.0229 1.562
21.0532 1.771
21.0835 1.198
21.1138 1.406
21.1440 1.406
21.1743 1.406
21.2046 1.146
21.2349 1.927
21.2651 1.562
21.2954 1.406
21.3257 1.615
21.3560 1.823
21.3863 1.094
21.4165 1.615
21.4468 1.667
21.4771 1.406
21.5074 1.771
21.5377 1.198
21.5679 1.667
21.5982 1.458
21.6285 1.510
21.6588 1.198
21.6890 1.667
21.7193 0.937
21.7496 1.198
21.7799 1.250
21.8102 1.250
21.8404 1.510
21.8707 1.458
21.9010 1.406
21.9313 1.771
21.9616 1.406
21.9918 1.198
22.0221 1.510
22.0524 1.302
22.0827 1.198
22.1129 1.250
22.1432 1.250
22.1735 1.042
22.2038 1.406
22.2341 2.031
22.2643 1.094
22.2946 1.823
22.3249 1.302
22.3552 0.729
22.3855 1.146
22.4157 1.146
22.4460 1.354
22.4763 1.302
22.5066 1.354
22.5368 1.198
22.5671 1.042
22.5974 1.458
22.6277 1.250
22.6580 1.198
22.6882 1.354
22.7185 1.510
22.7488 1.146
22.7791 1.302
22.8094 1.615
22.8396 1.406
22.8699 1.094
22.9002 1.510
22.9305 1.406
22.9607 1.406
22.9910 1.354
23.0213 1.719
23.0516 1.562
23.0819 1.458
23.1121 1.406
23.1424 1.198
23.1727 1.094
23.2030 1.094
23.2333 1.719
23.2635 1.302
23.2938 1.354
23.3241 1.510
23.3544 1.771
23.3846 1.510
23.4149 1.458
23.4452 1.146
23.4755 1.667
23.5058 1.250
23.5360 1.615
23.5663 1.771
23.5966 1.510
23.6269 0.990
23.6572 1.094
23.6874 1.615
23.7177 1.250
23.7480 1.562
23.7783 1.302
23.8086 1.302
23.8388 1.302
23.8691 1.354
23.8994 1.458
23.9297 1.354
23.9599 1.510
23.9902 1.042
24.0205 0.885
24.0508 1.667
24.0811 1.875
24.1113 1.562
24.1416 0.990
24.1719 1.562
24.2022 0.937
24.2325 1.146
24.2627 1.562
24.2930 1.510
24.3233 1.198
24.3536 1.354
24.3838 1.146
24.4141 1.667
24.4444 1.875
24.4747 1.562
24.5050 0.937
24.5352 1.615
24.5655 1.458
24.5958 1.562
24.6261 1.406
24.6564 1.198
24.6866 1.406
24.7169 1.198
24.7472 1.250
24.7775 1.250
24.8077 1.458
24.8380 1.406
24.8683 1.146
24.8986 1.458
24.9289 0.937
24.9591 0.677
24.9894 1.250
25.0197 1.146
25.0500 1.094
25.0803 1.302
25.1105 1.719
25.1408 1.042
25.1711 1.094
25.2014 1.406
25.2316 1.354
25.2619 1.198
25.2922 1.250
25.3225 1.302
25.3528 1.094
25.3830 1.458
25.4133 1.406
25.4436 1.042
25.4739 1.302
25.5042 1.250
25.5344 1.562
25.5647 1.094
25.5950 1.302
25.6253 1.250
25.6555 1.302
25.6858 1.250
25.7161 1.406
25.7464 1.302
25.7767 1.198
25.8069 1.979
25.8372 1.510
25.8675 1.250
25.8978 1.198
25.9281 1.302
25.9583 1.198
25.9886 1.458
26.0189 1.198
26.0492 1.302
26.0794 1.458
26.1097 1.042
26.1400 0.937
26.1703 1.146
26.2006 0.990
26.2308 1.094
26.2611 1.198
26.2914 0.833
26.3217 1.302
26.3520 1.198
26.3822 1.250
26.4125 1.354
26.4428 1.354
26.4731 1.615
26.5034 1.406
26.5336 1.719
26.5639 1.198
26.5942 1.302
26.6245 0.937
26.6547 0.937
26.6850 0.937
26.7153 1.458
26.7456 1.719
26.7759 1.979
26.8061 1.198
26.8364 1.823
26.8667 0.729
26.8970 1.146
26.9273 1.198
26.9575 1.198
26.9878 1.562
27.0181 1.458
27.0484 0.833
27.0786 0.781
27.1089 1.458
27.1392 1.823
27.1695 1.354
27.1998 1.250
27.2300 1.771
27.2603 1.562
27.2906 1.354
27.3209 1.562
27.3512 1.250
27.3814 1.615
27.4117 1.562
27.4420 1.406
27.4723 1.250
27.5025 1.562
27.5328 1.406
27.5631 1.823
27.5934 1.562
27.6237 0.990
27.6539 1.146
27.6842 1.771
27.7145 1.406
27.7448 1.354
27.7751 1.146
27.8053 2.344
27.8356 0.937
27.8659 1.198
27.8962 1.458
27.9264 1.719
27.9567 1.771
27.9870 1.198
28.0173 1.510
28.0476 1.406
28.0778 1.510
28.1081 1.510
28.1384 1.562
28.1687 0.937
28.1990 1.302
28.2292 1.875
28.2595 1.979
28.2898 1.250
28.3201 0.937
28.3503 1.458
28.3806 1.667
28.4109 2.240
28.4412 1.667
28.4715 1.823
28.5017 1.250
28.5320 1.250
28.5623 1.771
28.5926 1.250
28.6229 1.302
28.6531 0.625
28.6834 1.615
28.7137 1.406
28.7440 1.094
28.7742 1.406
28.8045 1.146
28.8348 0.833
28.8651 1.771
28.8954 1.406
28.9256 1.823
28.9559 1.198
28.9862 1.562
29.0165 1.510
29.0468 1.562
29.0770 1.719
29.1073 1.094
29.1376 1.979
29.1679 1.146
29.1981 0.885
29.2284 1.562
29.2587 1.719
29.2890 1.562
29.3193 1.719
29.3495 1.250
29.3798 1.927
29.4101 1.667
29.4404 1.771
29.4707 1.406
29.5009 1.771
29.5312 1.667
29.5615 1.042
29.5918 1.094
29.6221 1.823
29.6523 1.771
29.6826 1.615
29.7129 1.406
29.7432 1.354
29.7734 1.510
29.8037 1.875
29.8340 1.562
29.8643 1.667
29.8946 1.823
29.9248 1.875
29.9551 1.823
29.9854 1.146
30.0157 2.031
30.0460 1.667
30.0762 1.979
30.1065 1.562
30.1368 1.562
30.1671 1.979
30.1973 1.823
30.2276 1.875
30.2579 1.719
30.2882 1.667
30.3185 2.240
30.3487 2.500
30.3790 2.240
30.4093 2.344
30.4396 2.500
30.4699 2.396
30.5001 2.448
30.5304 1.979
30.5607 1.927
30.5910 1.719
30.6212 2.240
30.6515 2.760
30.6818 2.812
30.7121 2.604
30.7424 2.656
30.7726 2.708
30.8029 2.760
30.8332 3.021
30.8635 2.708
30.8938 3.906
30.9240 3.177
30.9543 3.385
30.9846 3.437
31.0149 4.531
31.0451 4.792
31.0754 4.948
31.1057 4.479
31.1360 5.052
31.1663 5.521
31.1965 5.000
31.2268 5.990
31.2571 6.510
31.2874 7.552
31.3177 8.437
31.3479 8.490
31.3782 9.635
31.4085 10.417
31.4388 13.542
31.4690 14.687
31.4993 15.937
31.5296 17.969
31.5599 20.677
31.5902 21.406
31.6204 23.229
31.6507 23.750
31.6810 20.365
31.7113 18.802
31.7416 18.698
31.7718 15.104
31.8021 13.385
31.8324 12.656
31.8627 9.531
31.8929 8.177
31.9232 7.760
31.9535 8.021
31.9838 6.354
32.0141 6.094
32.0443 6.042
32.0746 5.885
32.1049 4.948
32.1352 4.167
32.1655 4.427
32.1957 3.802
32.2260 3.333
32.2563 3.750
32.2866 3.542
32.3169 2.604
32.3471 3.594
32.3774 2.500
32.4077 3.125
32.4380 3.281
32.4682 3.229
32.4985 2.865
32.5288 2.865
32.5591 2.917
32.5894 3.021
32.6196 2.656
32.6499 3.385
32.6802 3.021
32.7105 2.292
32.7408 2.917
32.7710 3.281
32.8013 2.396
32.8316 2.708
32.8619 2.396
32.8921 2.292
32.9224 3.333
32.9527 1.771
32.9830 2.240
33.0133 2.708
33.0435 2.448
33.0738 3.229
33.1041 2.031
33.1344 2.135
33.1647 2.604
33.1949 2.240
33.2252 3.073
33.2555 2.187
33.2858 2.240
33.3160 1.823
33.3463 2.396
33.3766 2.917
33.4069 2.760
33.4372 2.240
33.4674 2.135
33.4977 3.490
33.5280 2.917
33.5583 2.552
33.5886 3.125
33.6188 2.865
33.6491 3.021
33.6794 4.115
33.7097 3.594
33.7399 3.021
33.7702 3.333
33.8005 3.802
33.8308 3.594
33.8611 3.698
33.8913 3.958
33.9216 5.417
33.9519 4.740
33.9822 5.000
34.0125 6.562
34.0427 7.344
34.0730 7.917
34.1033 9.531
34.1336 12.187
34.1638 12.760
34.1941 16.667
34.2244 17.760
34.2547 20.156
34.2850 22.812
34.3152 23.229
34.3455 22.031
34.3758 17.187
34.4061 15.156
34.4364 11.146
34.4666 10.573
34.4969 7.708
34.5272 7.031
34.5575 5.885
34.5877 5.000
34.6180 4.479
34.6483 5.156
34.6786 3.646
34.7089 3.437
34.7391 3.542
34.7694 3.646
34.7997 2.812
34.8300 2.865
34.8603 3.542
34.8905 3.646
34.9208 2.187
34.9511 3.281
34.9814 2.760
35.0116 3.490
35.0419 3.021
35.0722 3.490
35.1025 2.969
35.1328 2.917
35.1630 3.437
35.1933 3.177
35.2236 2.969
35.2539 3.385
35.2842 2.760
35.3144 4.427
35.3447 4.115
35.3750 3.698
35.4053 3.750
35.4356 4.375
35.4658 4.740
35.4961 4.479
35.5264 4.635
35.5567 4.271
35.5869 4.896
35.6172 5.573
35.6475 6.198
35.6778 5.990
35.7081 6.927
35.7383 8.385
35.7686 8.542
35.7989 9.635
35.8292 9.792
35.8595 10.104
35.8897 12.344
35.9200 14.583
35.9503 16.250
35.9806 17.656
36.0108 20.521
36.0411 23.594
36.0714 25.417
36.1017 27.552
36.1320 26.823
36.1622 27.083
36.1925 27.708
36.2228 24.531
36.2531 19.219
36.2834 14.948
36.3136 14.687
36.3439 12.083
36.3742 11.042
36.4045 9.583
36.4347 10.052
36.4650 8.385
36.4953 6.406
36.5256 6.615
36.5559 6.198
36.5861 4.948
36.6164 4.844
36.6467 4.531
36.6770 3.177
36.7073 4.740
36.7375 3.646
36.7678 3.229
36.7981 3.125
36.8284 3.177
36.8586 2.604
36.8889 2.448
36.9192 2.760
36.9495 2.500
36.9798 2.500
37.0100 2.448
37.0403 2.604
37.0706 2.396
37.1009 2.240
37.1312 2.240
37.1614 2.240
37.1917 2.500
37.2220 2.448
37.2523 2.240
37.2825 2.083
37.3128 1.615
37.3431 2.448
37.3734 2.083
37.4037 1.979
37.4339 1.875
37.4642 2.083
37.4945 1.823
37.5248 1.406
37.5551 2.187
37.5853 1.198
37.6156 1.615
37.6459 1.875
37.6762 1.562
37.7064 2.031
37.7367 1.562
37.7670 1.302
37.7973 1.562
37.8276 1.667
37.8578 2.396
37.8881 1.719
37.9184 1.198
37.9487 1.354
37.9790 1.198
38.0092 1.562
38.0395 1.406
38.0698 1.823
38.1001 1.406
38.1304 1.458
38.1606 1.146
38.1909 1.667
38.2212 0.937
38.2515 1.562
38.2817 1.562
38.3120 1.250
38.3423 1.615
38.3726 1.250
38.4029 1.146
38.4331 1.250
38.4634 1.510
38.4937 1.354
38.5240 1.042
38.5543 1.458
38.5845 1.354
38.6148 1.094
38.6451 1.146
38.6754 0.833
38.7056 1.094
38.7359 1.354
38.7662 1.042
38.7965 1.302
38.8268 1.094
38.8570 1.146
38.8873 0.885
38.9176 1.042
38.9479 1.250
38.9782 0.729
39.0084 1.042
39.0387 1.615
39.0690 0.833
39.0993 1.146
39.1295 0.990
39.1598 1.354
39.1901 0.990
39.2204 1.302
39.2507 0.729
39.2809 1.094
39.3112 0.885
39.3415 0.677
39.3718 0.781
39.4021 0.781
39.4323 1.198
39.4626 1.094
39.4929 0.937
39.5232 0.833
39.5534 0.729
39.5837 0.833
39.6140 1.198
39.6443 1.302
39.6746 0.781
39.7048 0.937
39.7351 1.302
39.7654 1.198
39.7957 0.781
39.8260 0.990
39.8562 0.937
39.8865 0.573
39.9168 1.354
39.9471 0.885
39.9773 1.302
40.0076 0.990
40.0379 1.250
40.0682 0.990
40.0985 1.042
40.1287 1.146
40.1590 1.302
40.1893 0.885
40.2196 1.510
40.2499 1.302
40.2801 0.729
40.3104 0.885
40.3407 1.094
40.3710 1.042
40.4012 1.198
40.4315 0.833
40.4618 0.990
40.4921 0.781
40.5224 1.146
40.5526 0.990
40.5829 1.458
40.6132 0.781
40.6435 0.781
40.6738 0.573
40.7040 0.781
40.7343 0.990
40.7646 1.042
40.7949 1.302
40.8251 0.990
40.8554 1.198
40.8857 0.937
40.9160 1.146
40.9463 1.146
40.9765 1.042
41.0068 0.729
41.0371 0.990
41.0674 0.885
41.0977 0.729
41.1279 0.937
41.1582 1.146
41.1885 0.885
41.2188 1.198
41.2491 1.146
41.2793 1.146
41.3096 0.990
41.3399 0.625
41.3702 0.781
41.4004 0.885
41.4307 0.833
41.4610 0.781
41.4913 0.312
41.5216 0.729
41.5518 0.990
41.5821 0.677
41.6124 0.937
41.6427 0.885
41.6730 0.781
41.7032 0.937
41.7335 1.042
41.7638 0.833
41.7941 1.094
41.8243 0.625
41.8546 0.885
41.8849 0.365
41.9152 1.146
41.9455 0.729
41.9757 0.729
42.0060 0.990
42.0363 0.625
42.0666 0.833
42.0969 0.937
42.1271 1.042
42.1574 1.198
42.1877 0.729
42.2180 0.833
42.2482 0.573
42.2785 0.729
42.3088 0.625
42.3391 0.417
42.3694 1.094
42.3996 0.990
42.4299 0.781
42.4602 0.677
42.4905 1.094
42.5208 1.094
42.5510 0.677
42.5813 1.042
42.6116 0.937
42.6419 0.937
42.6721 0.781
42.7024 1.406
42.7327 0.833
42.7630 0.677
42.7933 0.573
42.8235 0.885
42.8538 0.677
42.8841 1.406
42.9144 0.833
42.9447 0.937
42.9749 0.677
43.0052 0.625
43.0355 1.042
43.0658 0.885
43.0960 1.198
43.1263 0.729
43.1566 1.042
43.1869 0.990
43.2172 1.198
43.2474 1.406
43.2777 0.781
43.3080 0.885
43.3383 0.833
43.3686 1.094
43.3988 1.250
43.4291 0.729
43.4594 0.677
43.4897 1.146
43.5199 0.885
43.5502 1.250
43.5805 0.937
43.6108 0.781
43.6411 0.729
43.6713 0.729
43.7016 1.146
43.7319 0.833
43.7622 1.146
43.7925 1.094
43.8227 1.094
43.8530 0.833
43.8833 0.990
43.9136 0.937
43.9439 1.198
43.9741 0.937
44.0044 1.042
44.0347 0.677
44.0650 1.094
44.0952 0.833
44.1255 0.990
44.1558 0.677
44.1861 1.146
44.2164 1.406
44.2466 0.990
44.2769 0.781
44.3072 0.937
44.3375 1.042
44.3678 1.146
44.3980 1.146
44.4283 0.781
44.4586 0.885
44.4889 0.833
44.5191 1.146
44.5494 0.781
44.5797 1.042
44.6100 1.354
44.6403 1.146
44.6705 1.042
44.7008 0.937
44.7311 0.833
44.7614 0.885
44.7917 1.042
44.8219 0.625
44.8522 1.406
44.8825 0.885
44.9128 1.510
44.9430 0.833
44.9733 1.458
45.0036 1.198
45.0339 0.990
45.0642 1.042
45.0944 0.885
45.1247 1.042
45.1550 0.833
45.1853 0.677
45.2156 0.573
45.2458 1.094
45.2761 1.406
45.3064 1.250
45.3367 1.146
45.3669 1.302
45.3972 1.354
45.4275 1.042
45.4578 1.302
45.4881 0.729
45.5183 1.146
45.5486 1.042
45.5789 0.729
45.6092 0.833
45.6395 1.250
45.6697 1.094
45.7000 1.094
45.7303 1.250
45.7606 0.729
45.7908 1.146
45.8211 0.990
45.8514 1.146
45.8817 0.885
45.9120 1.302
45.9422 0.781
45.9725 1.042
46.0028 0.625
46.0331 1.354
46.0634 0.833
46.0936 0.990
46.1239 1.094
46.1542 1.406
46.1845 1.250
46.2147 0.885
46.2450 1.198
46.2753 1.562
46.3056 1.094
46.3359 0.937
46.3661 1.250
46.3964 1.562
46.4267 0.573
46.4570 0.990
46.4873 1.510
46.5175 1.198
46.5478 1.667
46.5781 1.198
46.6084 1.250
46.6386 1.198
46.6689 0.833
46.6992 1.198
46.7295 1.406
46.7598 1.771
46.7900 1.198
46.8203 1.094
46.8506 2.031
46.8809 1.719
46.9112 1.927
46.9414 2.135
46.9717 1.979
47.0020 1.719
47.0323 2.656
47.0626 2.448
47.0928 2.083
47.1231 3.177
47.1534 3.177
47.1837 2.708
47.2139 3.854
47.2442 3.698
47.2745 4.531
47.3048 5.208
47.3351 5.208
47.3653 4.479
47.3956 4.427
47.4259 4.948
47.4562 4.323
47.4865 4.687
47.5167 4.740
47.5470 4.375
47.5773 3.958
47.6076 3.490
47.6378 3.333
47.6681 2.969
47.6984 3.177
47.7287 3.073
47.7590 2.917
47.7892 2.031
47.8195 2.396
47.8498 2.031
47.8801 1.615
47.9104 2.344
47.9406 1.667
47.9709 1.615
48.0012 1.615
48.0315 1.302
48.0617 1.979
48.0920 0.885
48.1223 1.302
48.1526 1.458
48.1829 1.042
48.2131 1.250
48.2434 1.354
48.2737 1.094
48.3040 1.458
48.3343 1.354
48.3645 0.990
48.3948 1.198
48.4251 1.146
48.4554 1.510
48.4856 1.354
48.5159 1.771
48.5462 0.937
48.5765 1.042
48.6068 1.198
48.6370 0.833
48.6673 1.354
48.6976 0.729
48.7279 1.354
48.7582 1.250
48.7884 1.354
48.8187 1.198
48.8490 1.719
48.8793 1.719
48.9095 1.198
48.9398 1.094
48.9701 1.302
49.0004 1.406
49.0307 0.937
49.0609 0.937
49.0912 1.198
49.1215 1.250
49.1518 1.302
49.1821 1.354
49.2123 0.417
49.2426 1.302
49.2729 0.990
49.3032 1.302
49.3334 1.198
49.3637 1.042
49.3940 0.937
49.4243 0.833
49.4546 1.302
49.4848 0.885
49.5151 0.781
49.5454 1.146
49.5757 1.198
49.6060 1.042
49.6362 0.937
49.6665 1.302
49.6968 0.937
49.7271 0.833
49.7574 0.990
49.7876 1.562
49.8179 1.302
49.8482 0.937
49.8785 1.510
49.9087 1.146
49.9390 1.250
49.9693 0.990
49.9996 0.833
50.0299 0.625
50.0601 0.833
50.0904 0.990
50.1207 1.042
50.1510 0.729
50.1813 0.677
50.2115 1.094
50.2418 1.250
50.2721 1.094
50.3024 0.990
50.3326 0.990
50.3629 1.042
50.3932 0.990
50.4235 1.198
50.4538 0.833
50.4840 0.729
50.5143 0.521
50.5446 0.833
50.5749 1.510
50.6052 0.781
50.6354 0.781
50.6657 0.833
50.6960 0.573
50.7263 1.302
50.7565 0.990
50.7868 0.937
50.8171 1.094
50.8474 1.042
50.8777 1.302
50.9079 0.990
50.9382 0.885
50.9685 0.625
50.9988 1.354
51.0291 1.042
51.0593 1.198
51.0896 0.521
51.1199 0.833
51.1502 0.781
51.1804 0.937
51.2107 0.729
51.2410 0.990
51.2713 0.885
51.3016 0.729
51.3318 1.198
51.3621 0.625
51.3924 1.458
51.4227 1.146
51.4530 1.250
51.4832 0.885
51.5135 0.521
51.5438 1.042
51.5741 0.521
51.6043 1.198
51.6346 0.729
51.6649 0.833
51.6952 0.677
51.7255 1.198
51.7557 1.042
51.7860 1.198
51.8163 0.625
51.8466 0.833
51.8769 1.302
51.9071 0.781
51.9374 1.094
51.9677 0.885
51.9980 1.198
52.0282 0.885
52.0585 0.885
52.0888 0.677
52.1191 1.146
52.1494 1.042
52.1796 1.146
52.2099 0.625
52.2402 0.885
52.2705 0.885
52.3008 0.990
52.3310 0.521
52.3613 1.042
52.3916 0.729
52.4219 0.625
52.4521 1.042
52.4824 1.094
52.5127 0.781
52.5430 0.885
52.5733 0.729
52.6035 0.937
52.6338 0.833
52.6641 0.937
52.6944 0.885
52.7247 0.677
52.7549 0.729
52.7852 0.937
52.8155 0.833
52.8458 0.781
52.8761 0.833
52.9063 0.833
52.9366 0.937
52.9669 0.885
52.9972 0.729
53.0274 0.729
53.0577 0.677
53.0880 1.042
53.1183 0.885
53.1486 0.677
53.1788 0.573
53.2091 0.885
53.2394 0.833
53.2697 0.625
53.3000 1.042
53.3302 0.677
53.3605 0.781
53.3908 0.677
53.4211 0.937
53.4513 0.833
53.4816 0.885
53.5119 1.146
53.5422 0.781
53.5725 0.729
53.6027 1.042
53.6330 1.146
53.6633 0.573
53.6936 1.250
53.7239 1.094
53.7541 1.250
53.7844 1.302
53.8147 0.833
53.8450 1.146
53.8752 0.781
53.9055 0.521
53.9358 0.990
53.9661 0.469
53.9964 0.990
54.0266 0.937
54.0569 0.937
54.0872 0.781
54.1175 0.990
54.1478 0.729
54.1780 0.990
54.2083 0.781
54.2386 0.573
54.2689 0.990
54.2991 1.094
54.3294 0.937
54.3597 0.625
54.3900 0.833
54.4203 0.833
54.4505 0.937
54.4808 0.990
54.5111 1.042
54.5414 0.885
54.5717 0.729
54.6019 0.833
54.6322 0.729
54.6625 0.833
54.6928 0.937
54.7230 1.146
54.7533 0.885
54.7836 1.042
54.8139 0.885
54.8442 1.042
54.8744 0.625
54.9047 0.781
54.9350 0.677
54.9653 1.042
54.9956 0.729
55.0258 1.042
55.0561 0.990
55.0864 0.937
55.1167 0.885
55.1469 1.458
55.1772 0.833
55.2075 1.042
55.2378 1.042
55.2681 1.406
55.2983 1.146
55.3286 1.042
55.3589 1.094
55.3892 1.094
55.4195 0.729
55.4497 0.937
55.4800 0.625
55.5103 1.042
55.5406 1.354
55.5709 1.094
55.6011 1.354
55.6314 1.146
55.6617 1.458
55.6920 0.833
55.7222 1.615
55.7525 1.250
55.7828 1.406
55.8131 1.719
55.8434 1.771
55.8736 0.990
55.9039 1.719
55.9342 1.615
55.9645 2.083
55.9948 1.875
56.0250 2.031
56.0553 1.667
56.0856 2.604
56.1159 2.656
56.1461 2.760
56.1764 2.969
56.2067 3.594
56.2370 3.646
56.2673 4.323
56.2975 3.385
56.3278 5.208
56.3581 5.000
56.3884 6.719
56.4187 6.094
56.4489 5.573
56.4792 6.562
56.5095 6.354
56.5398 6.250
56.5700 6.510
56.6003 5.052
56.6306 5.000
56.6609 4.323
56.6912 4.323
56.7214 3.906
56.7517 3.333
56.7820 2.969
56.8123 2.240
56.8426 2.448
56.8728 2.448
56.9031 1.979
56.9334 2.031
56.9637 1.927
56.9939 1.615
57.0242 1.615
57.0545 1.458
57.0848 1.510
57.1151 2.135
57.1453 0.833
57.1756 1.719
57.2059 1.146
57.2362 0.990
57.2665 1.615
57.2967 1.146
57.3270 1.562
57.3573 1.042
57.3876 1.354
57.4178 1.198
57.4481 1.354
57.4784 0.885
57.5087 0.885
57.5390 0.833
57.5692 0.729
57.5995 1.615
57.6298 0.677
57.6601 1.042
57.6904 0.990
57.7206 1.042
57.7509 0.833
57.7812 1.250
57.8115 0.990
57.8417 1.146
57.8720 1.146
57.9023 1.146
57.9326 0.833
57.9629 1.354
57.9931 0.885
58.0234 0.573
58.0537 1.042
58.0840 0.365
58.1143 0.729
58.1445 0.729
58.1748 1.146
58.2051 0.937
58.2354 0.937
58.2656 0.625
58.2959 1.042
58.3262 0.573
58.3565 0.625
58.3868 0.781
58.4170 0.365
58.4473 0.990
58.4776 0.937
58.5079 0.781
58.5382 0.885
58.5684 1.042
58.5987 0.937
58.6290 1.198
58.6593 0.781
58.6896 0.781
58.7198 0.729
58.7501 1.042
58.7804 0.729
58.8107 0.573
58.8409 1.042
58.8712 0.521
58.9015 0.990
58.9318 0.781
58.9621 0.833
58.9923 0.781
59.0226 0.625
59.0529 0.990
59.0832 0.417
59.1135 0.990
59.1437 0.729
59.1740 0.937
59.2043 0.833
59.2346 0.990
59.2648 0.677
59.2951 0.937
59.3254 0.937
59.3557 0.937
59.3860 0.781
59.4162 0.990
59.4465 0.781
59.4768 0.625
59.5071 0.781
59.5374 0.625
59.5676 0.937
59.5979 1.198
59.6282 0.677
59.6585 0.937
59.6887 0.885
59.7190 0.990
59.7493 0.677
59.7796 0.990
59.8099 0.781
59.8401 0.781
59.8704 0.937
59.9007 0.677
59.9310 0.937
59.9613 0.573
59.9915 0.521
60.0218 0.937
60.0521 0.729
60.0824 0.885
60.1126 1.042
60.1429 1.042
60.1732 0.625
60.2035 0.937
60.2338 0.469
60.2640 0.677
60.2943 0.677
60.3246 0.677
60.3549 0.833
60.3852 0.885
60.4154 0.521
60.4457 1.250
60.4760 0.885
60.5063 0.573
60.5365 0.990
60.5668 1.042
60.5971 0.781
60.6274 0.833
60.6577 0.625
60.6879 0.885
60.7182 1.094
60.7485 0.990
60.7788 0.417
60.8091 0.469
60.8393 0.937
60.8696 0.729
60.8999 1.146
60.9302 0.885
60.9604 0.677
60.9907 0.885
61.0210 0.885
61.0513 0.625
61.0816 0.677
61.1118 0.781
61.1421 1.042
61.1724 1.094
61.2027 1.042
61.2330 1.198
61.2632 1.094
61.2935 0.677
61.3238 0.677
61.3541 1.198
61.3844 0.990
61.4146 1.094
61.4449 0.677
61.4752 0.833
61.5055 0.885
61.5357 0.990
61.5660 1.094
61.5963 0.781
61.6266 0.729
61.6569 1.354
61.6871 1.042
61.7174 1.458
61.7477 0.990
61.7780 0.990
61.8083 0.885
61.8385 0.833
61.8688 0.937
61.8991 0.885
61.9294 1.562
61.9596 1.042
61.9899 0.885
62.0202 1.354
62.0505 1.458
62.0808 1.667
62.1110 0.990
62.1413 0.990
62.1716 1.406
62.2019 1.667
62.2322 1.719
62.2624 1.979
62.2927 1.719
62.3230 2.083
62.3533 2.240
62.3835 2.031
62.4138 2.396
62.4441 2.656
62.4744 2.917
62.5047 3.021
62.5349 3.594
62.5652 3.125
62.5955 4.323
62.6258 4.115
62.6561 4.271
62.6863 5.312
62.7166 4.219
62.7469 6.250
62.7772 4.792
62.8074 5.417
62.8377 4.271
62.8680 4.375
62.8983 4.062
62.9286 3.802
62.9588 3.854
62.9891 3.281
63.0194 3.385
63.0497 3.333
63.0800 2.135
63.1102 1.927
63.1405 2.812
63.1708 1.927
63.2011 1.927
63.2313 2.135
63.2616 1.979
63.2919 1.615
63.3222 1.562
63.3525 1.823
63.3827 1.562
63.4130 0.729
63.4433 1.146
63.4736 1.615
63.5039 1.250
63.5341 1.198
63.5644 1.406
63.5947 1.146
63.6250 1.250
63.6552 1.042
63.6855 1.094
63.7158 1.094
63.7461 0.625
63.7764 0.833
63.8066 1.042
63.8369 0.833
63.8672 1.146
63.8975 0.729
63.9278 1.302
63.9580 0.833
63.9883 0.625
64.0186 1.146
64.0489 1.146
64.0791 0.833
64.1094 0.729
64.1397 0.365
64.1700 0.729
64.2003 0.781
64.2305 0.573
64.2608 0.833
64.2911 0.990
64.3214 0.833
64.3517 0.937
64.3819 1.198
64.4122 0.521
64.4425 0.885
64.4728 0.729
64.5031 0.781
64.5333 0.937
64.5636 0.573
64.5939 0.885
64.6242 0.625
64.6544 1.198
64.6847 0.781
64.7150 0.833
64.7453 0.417
64.7756 0.885
64.8058 0.781
64.8361 0.729
64.8664 0.885
64.8967 0.573
64.9270 0.833
64.9572 0.885
64.9875 0.781
65.0178 0.833
65.0481 0.885
65.0783 0.885
65.1086 1.094
65.1389 0.625
65.1692 0.625
65.1995 1.146
65.2297 1.250
65.2600 0.833
65.2903 0.833
65.3206 0.729
65.3509 0.833
65.3811 0.833
65.4114 0.729
65.4417 1.198
65.4720 1.250
65.5022 0.885
65.5325 0.990
65.5628 0.625
65.5931 1.354
65.6234 0.833
65.6536 0.781
65.6839 1.354
65.7142 1.354
65.7445 1.094
65.7748 1.198
65.8050 0.937
65.8353 0.885
65.8656 0.677
65.8959 0.521
65.9261 1.562
65.9564 1.354
65.9867 1.250
66.0170 1.406
66.0473 0.937
66.0775 1.302
66.1078 1.875
66.1381 1.198
66.1684 0.885
66.1987 1.250
66.2289 1.615
66.2592 1.719
66.2895 1.198
66.3198 1.250
66.3500 0.885
66.3803 1.146
66.4106 1.354
66.4409 0.990
66.4712 1.354
66.5014 1.927
66.5317 1.771
66.5620 1.354
66.5923 1.406
66.6226 1.406
66.6528 1.146
66.6831 1.667
66.7134 1.250
66.7437 1.354
66.7739 0.833
66.8042 1.094
66.8345 0.833
66.8648 0.677
66.8951 0.937
66.9253 1.198
66.9556 0.833
66.9859 1.354
67.0162 1.667
67.0465 0.990
67.0767 1.302
67.1070 1.406
67.1373 1.198
67.1676 1.146
67.1978 1.198
67.2281 1.302
67.2584 1.198
67.2887 1.198
67.3190 1.510
67.3492 1.771
67.3795 1.719
67.4098 2.448
67.4401 1.719
67.4704 1.823
67.5006 1.979
67.5309 1.823
67.5612 2.656
67.5915 2.604
67.6218 3.021
67.6520 2.656
67.6823 3.229
67.7126 3.646
67.7429 3.229
67.7731 4.427
67.8034 4.271
67.8337 4.115
67.8640 3.906
67.8943 4.010
67.9245 3.542
67.9548 3.490
67.9851 2.969
68.0154 3.333
68.0457 3.385
68.0759 2.031
68.1062 2.344
68.1365 2.500
68.1668 2.031
68.1970 2.083
68.2273 1.823
68.2576 1.927
68.2879 1.458
68.3182 1.927
68.3484 1.510
68.3787 1.198
68.4090 1.354
68.4393 1.615
68.4696 1.615
68.4998 0.833
68.5301 1.719
68.5604 1.875
68.5907 1.562
68.6209 1.354
68.6512 1.094
68.6815 1.667
68.7118 1.562
68.7421 1.302
68.7723 2.448
68.8026 2.187
68.8329 1.615
68.8632 1.823
68.8935 2.344
68.9237 1.927
68.9540 2.396
68.9843 2.031
69.0146 2.344
69.0448 1.562
69.0751 1.510
69.1054 1.719
69.1357 1.667
69.1660 1.302
69.1962 1.823
69.2265 1.979
69.2568 1.615
69.2871 1.250
69.3174 1.302
69.3476 1.198
69.3779 1.302
69.4082 1.510
69.4385 1.094
69.4687 1.146
69.4990 1.250
69.5293 1.042
69.5596 1.094
69.5899 0.990
69.6201 0.729
69.6504 0.625
69.6807 1.094
69.7110 0.521
69.7413 0.937
69.7715 0.729
69.8018 0.833
69.8321 0.781
69.8624 0.677
69.8926 0.990
69.9229 0.417
69.9532 0.781
69.9835 0.781
70.0138 0.677
70.0440 0.781
70.0743 0.625
70.1046 1.458
70.1349 0.573
70.1652 0.833
70.1954 0.417
70.2257 0.781
70.2560 0.677
70.2863 0.521
70.3166 0.365
70.3468 0.625
70.3771 1.042
70.4074 0.365
70.4377 0.521
70.4679 0.573
70.4982 1.042
70.5285 0.833
70.5588 0.625
70.5891 0.521
70.6193 0.729
70.6496 0.573
70.6799 0.573
70.7102 0.990
70.7405 0.729
70.7707 0.625
70.8010 0.937
70.8313 0.573
70.8616 0.365
70.8918 0.885
70.9221 0.469
70.9524 0.573
70.9827 0.885
71.0130 0.677
71.0432 0.625
71.0735 0.781
71.1038 0.781
71.1341 0.781
71.1644 0.469
71.1946 0.729
71.2249 0.729
71.2552 0.677
71.2855 0.625
71.3157 0.573
71.3460 0.885
71.3763 0.625
71.4066 0.417
71.4369 0.833
71.4671 0.729
71.4974 0.625
71.5277 0.677
71.5580 0.833
71.5883 0.729
71.6185 0.885
71.6488 0.729
71.6791 0.521
71.7094 0.573
71.7396 0.521
71.7699 0.260
71.8002 0.990
71.8305 0.365
71.8608 0.625
71.8910 0.521
71.9213 0.937
71.9516 0.521
71.9819 0.260
72.0122 0.260
72.0424 0.573
72.0727 0.729
72.1030 0.677
72.1333 0.625
72.1635 0.833
72.1938 0.625
72.2241 0.833
72.2544 0.729
72.2847 0.729
72.3149 1.250
72.3452 0.781
72.3755 0.833
72.4058 0.937
72.4361 0.625
72.4663 0.833
72.4966 0.677
72.5269 0.885
72.5572 0.781
72.5874 0.729
72.6177 0.625
72.6480 0.729
72.6783 0.625
72.7086 0.833
72.7388 0.990
72.7691 0.937
72.7994 0.729
72.8297 0.781
72.8600 0.677
72.8902 0.990
72.9205 0.781
72.9508 0.625
72.9811 0.729
73.0113 0.729
73.0416 0.781
73.0719 0.781
73.1022 0.417
73.1325 0.365
73.1627 0.469
73.1930 0.729
73.2233 0.417
73.2536 0.729
73.2839 0.417
73.3141 0.729
73.3444 0.937
73.3747 0.625
73.4050 0.833
73.4353 0.625
73.4655 0.365
73.4958 0.417
73.5261 0.365
73.5564 0.469
73.5866 0.469
73.6169 0.625
73.6472 0.365
73.6775 0.729
73.7078 0.521
73.7380 0.469
73.7683 0.729
73.7986 0.573
73.8289 0.625
73.8592 0.521
73.8894 0.885
73.9197 0.469
73.9500 0.521
73.9803 0.625
74.0105 0.625
74.0408 0.937
74.0711 0.156
74.1014 0.469
74.1317 0.417
74.1619 0.365
74.1922 0.573
74.2225 0.521
74.2528 0.417
74.2831 0.625
74.3133 0.677
74.3436 0.625
74.3739 0.365
74.4042 0.729
74.4344 0.833
74.4647 0.469
74.4950 0.885
74.5253 0.469
74.5556 0.521
74.5858 0.469
74.6161 0.417
74.6464 0.729
74.6767 0.417
74.7070 0.469
74.7372 0.312
74.7675 0.469
74.7978 0.469
74.8281 0.365
74.8583 0.677
74.8886 1.198
74.9189 0.469
74.9492 0.312
74.9795 0.677
75.0097 0.521
75.0400 0.729
75.0703 0.260
75.1006 0.260
75.1309 0.417
75.1611 0.312
75.1914 0.573
75.2217 0.729
75.2520 0.573
75.2822 0.521
75.3125 0.625
75.3428 0.573
75.3731 0.417
75.4034 0.729
75.4336 0.573
75.4639 0.573
75.4942 0.312
75.5245 0.469
75.5548 0.521
75.5850 0.729
75.6153 0.573
75.6456 0.677
75.6759 0.573
75.7061 0.677
75.7364 0.625
75.7667 0.469
75.7970 0.469
75.8273 0.469
75.8575 0.677
75.8878 0.729
75.9181 0.260
75.9484 0.417
75.9787 0.469
76.0089 0.573
76.0392 0.469
76.0695 0.469
76.0998 0.677
76.1301 0.521
76.1603 0.729
76.1906 0.625
76.2209 0.521
76.2512 0.729
76.2814 0.677
76.3117 0.521
76.3420 0.469
76.3723 0.625
76.4026 0.573
76.4328 0.469
76.4631 0.833
76.4934 0.625
76.5237 0.260
76.5540 0.729
76.5842 1.042
76.6145 0.781
76.6448 1.042
76.6751 0.781
76.7053 0.990
76.7356 1.042
76.7659 0.677
76.7962 0.729
76.8265 0.677
76.8567 0.677
76.8870 1.042
76.9173 0.625
76.9476 0.833
76.9779 0.729
77.0081 0.937
77.0384 0.781
77.0687 0.677
77.0990 0.833
77.1292 0.833
77.1595 0.833
77.1898 0.521
77.2201 0.729
77.2504 0.365
77.2806 0.781
77.3109 0.885
77.3412 0.625
77.3715 0.521
77.4018 0.729
77.4320 0.677
77.4623 0.521
77.4926 0.729
77.5229 0.729
77.5531 0.729
77.5834 0.417
77.6137 0.781
77.6440 0.729
77.6743 0.729
77.7045 0.521
77.7348 0.937
77.7651 0.469
77.7954 0.156
77.8257 0.573
77.8559 0.521
77.8862 0.729
77.9165 0.365
77.9468 0.260
77.9770 0.312
78.0073 0.885
78.0376 0.573
78.0679 0.573
78.0982 0.260
78.1284 0.469
78.1587 0.573
78.1890 0.469
78.2193 0.677
78.2496 0.521
78.2798 0.469
78.3101 0.417
78.3404 0.469
78.3707 0.573
78.4009 0.677
78.4312 0.833
78.4615 0.365
78.4918 0.260
78.5221 0.729
78.5523 0.625
78.5826 0.729
78.6129 0.417
78.6432 0.365
78.6735 0.469
78.7037 0.729
78.7340 0.677
78.7643 0.521
78.7946 0.625
78.8248 0.677
78.8551 0.729
78.8854 0.729
78.9157 0.521
78.9460 0.365
78.9762 0.469
79.0065 0.365
79.0368 0.521
79.0671 0.677
79.0974 0.260
79.1276 0.312
79.1579 0.885
79.1882 0.573
79.2185 0.469
79.2488 0.521
79.2790 0.521
79.3093 0.625
79.3396 0.521
79.3699 0.729
79.4001 0.417
79.4304 0.469
79.4607 0.417
79.4910 0.781
79.5213 0.521
79.5515 0.573
79.5818 0.312
79.6121 0.312
79.6424 0.417
79.6727 0.469
79.7029 0.469
79.7332 0.573
79.7635 0.625
79.7938 0.729
79.8240 0.417
79.8543 0.573
79.8846 0.521
79.9149 0.417
79.9452 0.625
79.9754 0.312
80.0057 0.781
80.0360 0.312
80.0663 0.312
80.0966 0.573
80.1268 0.677
80.1571 0.729
80.1874 0.312
80.2177 0.781
80.2479 0.677
80.2782 0.937
80.3085 0.365
80.3388 0.677
80.3691 0.469
80.3993 0.573
80.4296 0.677
80.4599 0.417
80.4902 0.521
80.5205 0.729
80.5507 0.521
80.5810 0.521
80.6113 0.625
80.6416 0.312
80.6718 0.469
80.7021 0.573
80.7324 0.573
80.7627 0.781
80.7930 0.625
80.8232 0.521
80.8535 0.729
80.8838 0.312
80.9141 0.677
80.9444 0.365
80.9746 0.729
81.0049 0.469
81.0352 0.625
81.0655 0.729
81.0957 0.625
81.1260 0.417
81.1563 0.625
81.1866 0.781
81.2169 0.781
81.2471 0.417
81.2774 0.469
81.3077 0.781
81.3380 0.417
81.3683 0.469
81.3985 0.781
81.4288 0.729
81.4591 0.885
81.4894 0.937
81.5196 0.677
81.5499 0.677
81.5802 0.312
81.6105 0.521
81.6408 0.365
81.6710 0.417
81.7013 0.521
81.7316 0.677
81.7619 0.469
81.7922 0.729
81.8224 0.521
81.8527 0.469
81.8830 0.573
81.9133 0.521
81.9436 0.365
81.9738 0.365
82.0041 0.365
82.0344 0.521
82.0647 0.625
82.0949 0.521
82.1252 0.365
82.1555 0.521
82.1858 0.365
82.2161 0.677
82.2463 0.365
82.2766 0.729
82.3069 0.729
82.3372 0.417
82.3675 0.312
82.3977 0.417
82.4280 0.417
82.4583 0.625
82.4886 0.312
82.5188 0.469
82.5491 0.625
82.5794 0.625
82.6097 0.469
82.6400 0.521
82.6702 0.521
82.7005 0.677
82.7308 0.573
82.7611 0.260
82.7914 0.417
82.8216 0.417
82.8519 0.625
82.8822 0.417
82.9125 0.677
82.9427 0.677
82.9730 0.573
83.0033 0.417
83.0336 0.469
83.0639 0.469
83.0941 0.365
83.1244 0.365
83.1547 0.365
83.1850 0.729
83.2153 0.365
83.2455 0.469
83.2758 0.677
83.3061 0.573
83.3364 0.573
83.3666 0.521
83.3969 0.729
83.4272 0.625
83.4575 0.365
83.4878 0.625
83.5180 0.573
83.5483 0.573
83.5786 0.729
83.6089 0.521
83.6392 0.208
83.6694 0.312
83.6997 0.417
83.7300 0.677
83.7603 0.573
83.7905 0.365
83.8208 0.677
83.8511 0.521
83.8814 0.469
83.9117 0.521
83.9419 0.417
83.9722 0.729
84.0025 0.729
84.0328 0.521
84.0631 0.573
84.0933 0.365
84.1236 0.521
84.1539 0.521
84.1842 0.208
84.2144 0.729
84.2447 0.677
84.2750 0.677
84.3053 0.417
84.3356 0.521
84.3658 0.260
84.3961 0.625
84.4264 0.469
84.4567 0.365
84.4870 0.573
84.5172 0.260
84.5475 0.521
84.5778 0.729
84.6081 0.573
84.6383 0.573
84.6686 0.365
84.6989 0.469
84.7292 0.573
84.7595 0.625
84.7897 0.469
84.8200 0.156
84.8503 0.625
84.8806 0.260
84.9109 0.365
84.9411 0.365
84.9714 0.729
85.0017 0.521
85.0320 0.729
85.0623 0.781
85.0925 0.469
85.1228 0.625
85.1531 0.365
85.1834 0.573
85.2136 0.260
85.2439 0.729
85.2742 0.417
85.3045 0.417
85.3348 0.469
85.3650 0.417
85.3953 0.625
85.4256 0.469
85.4559 0.573
85.4862 0.312
85.5164 0.573
85.5467 0.521
85.5770 0.521
85.6073 0.365
85.6375 0.417
85.6678 0.365
85.6981 0.469
85.7284 0.729
85.7587 0.260
85.7889 0.469
85.8192 0.573
85.8495 0.677
85.8798 0.469
85.9101 0.469
85.9403 0.312
85.9706 0.469
86.0009 0.365
86.0312 0.469
86.0614 0.625
86.0917 0.365
86.1220 0.521
86.1523 0.677
86.1826 0.625
86.2128 0.729
86.2431 0.521
86.2734 0.625
86.3037 0.260
86.3340 0.365
86.3642 0.781
86.3945 0.365
86.4248 0.677
86.4551 0.833
86.4853 0.781
86.5156 0.573
86.5459 0.365
86.5762 0.417
86.6065 0.573
86.6367 0.469
86.6670 0.729
86.6973 0.521
86.7276 0.417
86.7579 0.625
86.7881 0.312
86.8184 0.417
86.8487 0.573
86.8790 0.417
86.9092 0.469
86.9395 0.833
86.9698 0.729
87.0001 0.260
87.0304 0.260
87.0606 0.417
87.0909 0.677
87.1212 0.729
87.1515 0.677
87.1818 0.469
87.2120 0.625
87.2423 0.677
87.2726 0.625
87.3029 0.521
87.3331 0.469
87.3634 0.469
87.3937 0.365
87.4240 0.521
87.4543 0.521
87.4845 0.573
87.5148 0.521
87.5451 0.677
87.5754 0.521
87.6057 0.312
87.6359 0.573
87.6662 0.521
87.6965 0.417
87.7268 0.521
87.7571 0.365
87.7873 0.469
87.8176 0.573
87.8479 0.312
87.8782 0.365
87.9084 0.625
87.9387 0.521
87.9690 0.312
87.9993 0.208
88.0296 0.260
88.0598 0.521
88.0901 0.469
88.1204 0.573
88.1507 0.365
88.1810 0.573
88.2112 0.729
88.2415 0.729
88.2718 0.885
88.3021 0.521
88.3323 0.729
88.3626 0.521
88.3929 0.573
88.4232 0.469
88.4535 0.781
88.4837 0.729
88.5140 0.469
88.5443 0.729
88.5746 0.521
88.6049 0.365
88.6351 0.729
88.6654 0.781
88.6957 0.990
88.7260 0.521
88.7562 0.677
88.7865 0.417
88.8168 1.042
88.8471 0.625
88.8774 0.781
88.9076 0.937
88.9379 0.573
88.9682 0.625
88.9985 0.885
89.0288 0.573
89.0590 0.365
89.0893 0.677
89.1196 0.729
89.1499 0.937
89.1801 0.677
89.2104 1.198
89.2407 1.094
89.2710 0.937
89.3013 1.146
89.3315 1.250
89.3618 0.729
89.3921 1.094
89.4224 1.198
89.4527 0.885
89.4829 1.146
89.5132 1.302
89.5435 0.990
89.5738 0.990
89.6040 0.937
89.6343 1.302
89.6646 0.990
89.6949 0.781
89.7252 0.937
89.7554 0.781
89.7857 1.198
89.8160 0.677
89.8463 0.677
89.8766 1.042
89.9068 0.990
89.9371 0.885
89.9674 0.885
89.9977 0.729
90.0279 0.885
90.0582 0.469
90.0885 0.729
90.1188 0.625
90.1491 1.042
90.1793 0.677
90.2096 0.677
90.2399 0.729
90.2702 0.677
90.3005 0.677
90.3307 1.042
90.3610 0.677
90.3913 0.417
90.4216 0.365
90.4518 0.833
90.4821 0.573
90.5124 0.208
90.5427 0.729
90.5730 0.625
90.6032 0.625
90.6335 0.729
90.6638 0.573
90.6941 0.573
90.7244 0.573
90.7546 0.677
90.7849 0.677
90.8152 0.573
90.8455 0.521
90.8758 0.312
90.9060 1.042
90.9363 0.521
90.9666 0.521
90.9969 0.781
91.0271 0.677
91.0574 0.469
91.0877 0.417
91.1180 0.573
91.1483 0.573
91.1785 0.469
91.2088 0.729
91.2391 0.833
91.2694 0.365
91.2997 0.417
91.3299 0.469
91.3602 1.094
91.3905 0.573
91.4208 0.521
91.4510 0.573
91.4813 0.573
91.5116 0.625
91.5419 0.365
91.5722 0.677
91.6024 0.573
91.6327 0.365
91.6630 0.573
91.6933 0.729
91.7236 0.781
91.7538 0.729
91.7841 0.521
91.8144 0.677
91.8447 0.521
91.8749 0.469
91.9052 0.521
91.9355 0.312
91.9658 0.469
91.9961 0.781
92.0263 0.833
92.0566 0.885
92.0869 0.417
92.1172 0.781
92.1475 0.833
92.1777 0.677
92.2080 0.625
92.2383 0.625
92.2686 0.781
92.2988 0.729
92.3291 1.042
92.3594 0.729
92.3897 0.677
92.4200 0.417
92.4502 0.677
92.4805 0.625
92.5108 0.990
92.5411 0.729
92.5714 0.729
92.6016 0.677
92.6319 0.937
92.6622 0.625
92.6925 0.677
92.7227 0.625
92.7530 0.833
92.7833 0.573
92.8136 0.937
92.8439 0.625
92.8741 0.781
92.9044 0.833
92.9347 0.729
92.9650 0.937
92.9953 1.198
93.0255 0.521
93.0558 0.677
93.0861 0.885
93.1164 0.729
93.1466 0.937
93.1769 0.469
93.2072 0.469
93.2375 0.625
93.2678 0.469
93.2980 0.312
93.3283 0.625
93.3586 0.729
93.3889 0.729
93.4192 0.833
93.4494 0.312
93.4797 0.365
93.5100 0.521
93.5403 0.521
93.5706 0.573
93.6008 0.521
93.6311 0.312
93.6614 0.677
93.6917 0.677
93.7219 0.573
93.7522 0.677
93.7825 0.365
93.8128 0.937
93.8431 0.729
93.8733 0.417
93.9036 0.521
93.9339 0.469
93.9642 0.833
93.9945 0.521
94.0247 0.781
94.0550 0.677
94.0853 0.260
94.1156 0.365
94.1458 0.729
94.1761 0.469
94.2064 0.833
94.2367 0.729
94.2670 0.729
94.2972 0.677
94.3275 0.521
94.3578 0.677
94.3881 0.521
94.4184 0.625
94.4486 0.729
94.4789 0.573
94.5092 0.833
94.5395 0.677
94.5697 0.729
94.6000 0.885
94.6303 0.469
94.6606 0.625
94.6909 0.677
94.7211 0.365
94.7514 0.521
94.7817 0.990
94.8120 0.781
94.8423 0.677
94.8725 0.677
94.9028 0.885
94.9331 0.729
94.9634 1.146
94.9936 0.885
95.0239 0.781
95.0542 1.146
95.0845 1.562
95.1148 0.729
95.1450 0.781
95.1753 1.042
95.2056 1.146
95.2359 1.250
95.2662 0.990
95.2964 1.250
95.3267 0.990
95.3570 0.990
95.3873 1.667
95.4175 1.615
95.4478 0.833
95.4781 1.302
95.5084 0.573
95.5387 0.937
95.5689 0.677
95.5992 0.937
95.6295 0.729
95.6598 0.573
95.6901 0.937
95.7203 0.312
95.7506 0.937
95.7809 0.625
95.8112 0.990
95.8414 0.729
95.8717 0.677
95.9020 0.885
95.9323 0.885
95.9626 0.469
95.9928 1.302
96.0231 0.781
96.0534 0.677
96.0837 0.677
96.1140 0.573
96.1442 0.312
96.1745 0.573
96.2048 0.573
96.2351 0.260
96.2653 0.677
96.2956 0.521
96.3259 0.417
96.3562 0.990
96.3865 0.781
96.4167 0.521
96.4470 0.833
96.4773 0.729
96.5076 0.729
96.5379 0.312
96.5681 0.573
96.5984 0.885
96.6287 0.312
96.6590 0.469
96.6893 0.781
96.7195 0.729
96.7498 0.677
96.7801 0.677
96.8104 0.729
96.8406 0.990
96.8709 0.521
96.9012 0.625
96.9315 0.469
96.9618 0.417
96.9920 0.677
97.0223 0.417
97.0526 0.573
97.0829 0.885
97.1132 0.469
97.1434 0.417
97.1737 0.521
97.2040 0.365
97.2343 0.677
97.2645 0.573
97.2948 0.417
97.3251 0.365
97.3554 0.521
97.3857 0.417
97.4159 0.573
97.4462 0.573
97.4765 0.729
97.5068 0.677
97.5371 0.625
97.5673 0.729
97.5976 0.573
97.6279 0.625
97.6582 0.781
97.6884 0.729
97.7187 0.677
97.7490 0.625
97.7793 0.417
97.8096 0.781
97.8398 0.521
97.8701 0.573
97.9004 0.937
97.9307 0.833
97.9610 0.521
97.9912 0.885
98.0215 0.469
98.0518 0.729
98.0821 0.625
98.1123 0.781
98.1426 0.469
98.1729 0.677
98.2032 0.729
98.2335 0.417
98.2637 0.417
98.2940 0.781
98.3243 0.521
98.3546 0.521
98.3849 0.781
98.4151 0.885
98.4454 0.781
98.4757 1.042
98.5060 0.729
98.5362 0.781
98.5665 0.729
98.5968 1.042
98.6271 0.833
98.6574 0.521
98.6876 0.781
98.7179 0.781
98.7482 0.677
98.7785 0.729
98.8088 0.781
98.8390 0.833
98.8693 0.729
98.8996 1.094
98.9299 1.042
98.9601 0.677
98.9904 0.677
99.0207 0.677
99.0510 0.729
99.0813 0.729
99.1115 0.729
99.1418 0.781
99.1721 1.146
99.2024 0.729
99.2327 0.729
99.2629 0.729
99.2932 0.521
99.3235 0.521
99.3538 0.573
99.3841 0.937
99.4143 0.208
99.4446 0.417
99.4749 0.729
99.5052 0.625
99.5354 0.521
99.5657 0.573
99.5960 0.469
99.6263 0.781
99.6566 0.625
99.6868 0.521
99.7171 0.625
99.7474 0.260
99.7777 0.729
99.8080 0.469
99.8382 0.625
99.8685 0.521
99.8988 0.990
99.9291 0.469
99.9593 0.937
99.9896 0.677
100.0199 0.260
100.0502 0.625
100.0805 0.625
100.1107 0.521
100.1410 0.625
100.1713 0.625
100.2016 0.469
100.2319 0.365
100.2621 0.365
100.2924 0.729
100.3227 0.625
100.3530 0.521
100.3832 0.365
100.4135 0.781
100.4438 0.573
100.4741 0.573
100.5044 0.417
100.5346 0.573
100.5649 0.677
100.5952 0.781
100.6255 0.625
100.6558 0.365
100.6860 0.677
100.7163 0.365
100.7466 0.573
100.7769 0.104
100.8071 0.469
100.8374 0.469
100.8677 0.312
100.8980 0.625
100.9283 0.781
100.9585 0.729
100.9888 0.469
101.0191 0.469
101.0494 0.781
101.0797 0.573
101.1099 0.573
101.1402 0.729
101.1705 0.625
101.2008 0.573
101.2310 0.625
101.2613 0.521
101.2916 0.469
101.3219 0.573
101.3522 0.677
101.3824 0.781
101.4127 0.521
101.4430 0.417
101.4733 0.469
101.5036 0.365
101.5338 0.573
101.5641 0.521
101.5944 0.937
101.6247 0.677
101.6549 0.937
101.6852 0.417
101.7155 0.625
101.7458 0.417
101.7761 0.469
101.8063 0.417
101.8366 0.417
101.8669 0.573
101.8972 0.729
101.9275 0.781
101.9577 0.573
101.9880 0.625
102.0183 0.365
102.0486 0.833
102.0788 0.521
102.1091 0.365
102.1394 0.625
102.1697 0.625
102.2000 0.417
102.2302 0.573
102.2605 0.677
102.2908 0.469
102.3211 0.521
102.3514 0.729
102.3816 0.885
102.4119 0.937
102.4422 0.625
102.4725 0.781
102.5028 0.729
102.5330 0.521
102.5633 0.937
102.5936 1.250
102.6239 0.469
102.6541 0.885
102.6844 0.833
102.7147 0.781
102.7450 0.677
102.7753 0.677
102.8055 0.833
102.8358 0.677
102.8661 1.042
102.8964 0.781
102.9267 0.573
102.9569 0.885
102.9872 0.885
103.0175 0.781
103.0478 0.833
103.0780 0.833
103.1083 0.469
103.1386 0.833
103.1689 0.677
103.1992 0.729
103.2294 0.469
103.2597 0.833
103.2900 0.677
103.3203 0.677
103.3506 0.573
103.3808 0.573
103.4111 0.937
103.4414 1.146
103.4717 0.781
103.5019 0.469
103.5322 1.042
103.5625 0.833
103.5928 0.833
103.6231 1.146
103.6533 0.937
103.6836 0.625
103.7139 0.781
103.7442 0.781
103.7745 0.833
103.8047 0.937
103.8350 0.937
103.8653 1.146
103.8956 1.302
103.9258 1.354
103.9561 0.833
103.9864 1.146
104.0167 0.937
104.0470 0.781
104.0772 0.781
104.1075 0.833
104.1378 1.302
104.1681 1.146
104.1984 0.833
104.2286 1.094
104.2589 0.990
104.2892 0.937
104.3195 0.573
104.3497 0.729
104.3800 0.833
104.4103 0.729
104.4406 0.833
104.4709 0.833
104.5011 1.042
104.5314 0.677
104.5617 1.146
104.5920 0.833
104.6223 0.521
104.6525 0.625
104.6828 0.937
104.7131 0.781
104.7434 0.833
104.7736 0.833
104.8039 0.990
104.8342 0.729
104.8645 0.833
104.8948 0.469
104.9250 0.729
104.9553 0.833
104.9856 0.729
105.0159 1.094
105.0462 0.677
105.0764 0.625
105.1067 0.625
105.1370 0.521
105.1673 0.417
105.1975 0.521
105.2278 0.521
105.2581 0.521
105.2884 0.990
105.3187 0.990
105.3489 0.729
105.3792 0.781
105.4095 0.521
105.4398 0.625
105.4701 0.625
105.5003 0.937
105.5306 0.625
105.5609 0.729
105.5912 0.312
105.6215 0.573
105.6517 0.521
105.6820 0.677
105.7123 0.573
105.7426 0.677
105.7728 0.833
105.8031 0.573
105.8334 0.833
105.8637 0.625
105.8940 0.365
105.9242 0.781
105.9545 0.833
105.9848 0.677
106.0151 0.937
106.0454 0.885
106.0756 0.833
106.1059 0.729
106.1362 0.573
106.1665 0.521
106.1967 0.521
106.2270 0.729
106.2573 0.885
106.2876 0.573
106.3179 0.365
106.3481 0.677
106.3784 0.833
106.4087 0.781
106.4390 0.573
106.4693 0.417
106.4995 0.625
106.5298 0.677
106.5601 0.417
106.5904 0.729
106.6206 0.885
106.6509 0.885
106.6812 0.417
106.7115 0.885
106.7418 0.625
106.7720 0.625
106.8023 0.885
106.8326 0.365
106.8629 0.729
106.8932 0.885
106.9234 0.781
106.9537 0.365
106.9840 0.833
107.0143 0.469
107.0445 0.521
107.0748 0.729
107.1051 0.521
107.1354 0.781
107.1657 0.885
107.1959 0.677
107.2262 0.625
107.2565 0.885
107.2868 0.885
107.3171 1.042
107.3473 0.312
107.3776 0.469
107.4079 0.573
107.4382 0.625
107.4684 0.469
107.4987 1.042
107.5290 0.781
107.5593 1.250
107.5896 0.625
107.6198 1.146
107.6501 0.521
107.6804 1.146
107.7107 0.781
107.7410 0.729
107.7712 0.833
107.8015 0.885
107.8318 0.677
107.8621 0.937
107.8923 0.573
107.9226 0.625
107.9529 0.937
107.9832 0.781
108.0135 0.677
108.0437 0.781
108.0740 0.781
108.1043 0.521
108.1346 0.625
108.1649 0.885
108.1951 0.937
108.2254 0.573
108.2557 0.312
108.2860 0.729
108.3163 0.781
108.3465 0.625
108.3768 0.833
108.4071 0.729
108.4374 0.521
108.4676 0.521
108.4979 0.781
108.5282 1.146
108.5585 0.729
108.5888 0.885
108.6190 0.521
108.6493 0.677
108.6796 0.729
108.7099 0.573
108.7402 0.781
108.7704 0.625
108.8007 0.885
108.8310 1.354
108.8613 0.625
108.8915 0.677
108.9218 0.677
108.9521 0.781
108.9824 0.677
109.0127 0.729
109.0429 0.833
109.0732 0.573
109.1035 0.417
109.1338 0.781
109.1641 0.937
109.1943 0.990
109.2246 0.677
109.2549 0.729
109.2852 0.885
109.3154 0.937
109.3457 0.937
109.3760 0.521
109.4063 0.677
109.4366 0.937
109.4668 0.833
109.4971 0.573
109.5274 0.885
109.5577 0.729
109.5880 0.833
109.6182 0.885
109.6485 1.146
109.6788 0.729
109.7091 1.042
109.7393 1.094
109.7696 0.625
109.7999 1.146
109.8302 0.729
109.8605 0.625
109.8907 1.302
109.9210 0.469
109.9513 0.729
109.9816 0.625
110.0119 1.146
110.0421 1.667
110.0724 0.990
110.1027 0.937
110.1330 0.937
110.1632 0.625
110.1935 0.885
110.2238 0.990
110.2541 0.677
110.2844 0.833
110.3146 0.521
110.3449 0.885
110.3752 0.729
110.4055 0.885
110.4358 0.990
110.4660 0.833
110.4963 0.729
110.5266 0.833
110.5569 0.990
110.5871 0.573
110.6174 0.885
110.6477 1.146
110.6780 1.146
110.7083 0.677
110.7385 0.990
110.7688 0.937
110.7991 0.781
110.8294 0.990
110.8597 1.042
110.8899 0.833
110.9202 1.198
110.9505 0.833
110.9808 0.990
111.0110 0.729
111.0413 0.573
111.0716 0.937
111.1019 0.937
111.1322 0.781
111.1624 0.573
111.1927 0.781
111.2230 0.417
111.2533 0.833
111.2836 0.677
111.3138 0.729
111.3441 0.937
111.3744 0.729
111.4047 1.094
111.4350 0.677
111.4652 1.042
111.4955 0.937
111.5258 0.729
111.5561 0.990
111.5863 0.781
111.6166 0.990
111.6469 0.729
111.6772 0.937
111.7075 0.833
111.7377 0.833
111.7680 0.781
111.7983 0.937
111.8286 0.990
111.8589 1.302
111.8891 0.990
111.9194 1.510
111.9497 0.990
111.9800 0.625
112.0102 0.990
112.0405 0.677
112.0708 0.677
112.1011 0.729
112.1314 0.833
112.1616 0.625
112.1919 1.198
112.2222 0.990
112.2525 0.469
112.2828 0.885
112.3130 0.677
112.3433 1.094
112.3736 0.990
112.4039 0.833
112.4341 0.573
112.4644 0.885
112.4947 0.937
112.5250 0.885
112.5553 0.990
112.5855 1.354
112.6158 0.833
112.6461 0.573
112.6764 1.198
112.7067 0.781
112.7369 0.625
112.7672 0.729
112.7975 0.729
112.8278 0.729
112.8580 0.885
112.8883 0.885
112.9186 0.573
112.9489 0.729
112.9792 1.042
113.0094 0.729
113.0397 0.573
113.0700 1.146
113.1003 0.781
113.1306 1.146
113.1608 0.781
113.1911 0.417
113.2214 1.042
113.2517 0.885
113.2819 0.573
113.3122 1.094
113.3425 0.990
113.3728 1.458
113.4031 0.625
113.4333 0.729
113.4636 0.573
113.4939 0.521
113.5242 0.937
113.5545 1.094
113.5847 0.677
113.6150 0.781
113.6453 1.042
113.6756 0.990
113.7058 0.781
113.7361 1.094
113.7664 0.885
113.7967 0.885
113.8270 0.937
113.8572 0.781
113.8875 0.677
113.9178 0.990
113.9481 0.937
113.9784 0.833
114.0086 0.833
114.0389 1.094
114.0692 0.573
114.0995 0.781
114.1298 0.833
114.1600 0.990
114.1903 1.146
114.2206 1.094
114.2509 0.573
114.2811 0.833
114.3114 0.885
114.3417 0.833
114.3720 0.729
114.4023 0.677
114.4325 1.198
114.4628 0.573
114.4931 0.781
114.5234 0.729
114.5537 0.833
114.5839 0.729
114.6142 1.198
114.6445 0.833
114.6748 0.781
114.7050 0.781
114.7353 0.885
114.7656 0.521
114.7959 0.833
114.8262 0.990
114.8564 1.354
114.8867 0.573
114.9170 0.990
114.9473 0.729
114.9776 1.146
115.0078 0.573
115.0381 0.781
115.0684 1.094
115.0987 1.094
115.1289 0.781
115.1592 0.885
115.1895 0.885
115.2198 0.885
115.2501 1.042
115.2803 0.885
115.3106 1.250
115.3409 0.885
115.3712 1.146
115.4015 1.146
115.4317 0.937
115.4620 1.354
115.4923 0.521
115.5226 1.146
115.5528 1.146
115.5831 1.510
115.6134 0.729
115.6437 1.406
115.6740 1.302
115.7042 1.042
115.7345 1.250
115.7648 1.042
115.7951 1.250
115.8254 1.510
115.8556 1.302
115.8859 1.615
115.9162 1.250
115.9465 1.042
115.9767 0.885
116.0070 1.094
116.0373 1.146
116.0676 1.250
116.0979 1.146
116.1281 1.458
116.1584 0.990
116.1887 1.042
116.2190 1.771
116.2493 1.510
116.2795 1.198
116.3098 1.406
116.3401 1.094
116.3704 0.937
116.4006 1.250
116.4309 1.042
116.4612 1.042
116.4915 1.094
116.5218 0.990
116.5520 0.990
116.5823 1.510
116.6126 1.406
116.6429 1.302
116.6732 0.990
116.7034 1.198
116.7337 0.781
116.7640 0.885
116.7943 0.885
116.8245 1.458
116.8548 1.094
116.8851 1.042
116.9154 0.937
116.9457 0.990
116.9759 1.198
117.0062 1.198
117.0365 0.937
117.0668 1.042
117.0971 0.729
117.1273 1.042
117.1576 1.146
117.1879 0.781
117.2182 0.625
117.2485 0.937
117.2787 0.729
117.3090 1.198
117.3393 1.146
117.3696 1.094
117.3998 1.042
117.4301 1.198
117.4604 0.729
117.4907 0.625
117.5210 1.146
117.5512 0.625
117.5815 1.198
117.6118 0.729
117.6421 0.625
117.6724 0.781
117.7026 0.781
117.7329 0.937
117.7632 0.833
117.7935 1.146
117.8237 0.990
117.8540 1.094
117.8843 0.990
117.9146 0.469
117.9449 0.625
117.9751 1.094
118.0054 0.781
118.0357 0.469
118.0660 1.094
118.0963 0.781
118.1265 0.937
118.1568 0.677
118.1871 0.729
118.2174 0.781
118.2476 0.677
118.2779 1.042
118.3082 0.677
118.3385 0.729
118.3688 0.781
118.3990 1.094
118.4293 0.417
118.4596 0.677
118.4899 1.094
118.5202 1.302
118.5504 0.937
118.5807 0.885
118.6110 0.833
118.6413 0.729
118.6715 1.094
118.7018 0.781
118.7321 0.625
118.7624 0.677
118.7927 0.729
118.8229 1.042
118.8532 0.677
118.8835 0.677
118.9138 1.094
118.9441 0.833
118.9743 1.094
119.0046 0.729
119.0349 0.937
119.0652 0.625
119.0954 0.990
119.1257 0.990
119.1560 0.729
119.1863 0.677
119.2166 1.146
119.2468 1.250
119.2771 0.729
119.3074 0.729
119.3377 0.521
119.3680 0.729
119.3982 0.677
119.4285 1.146
119.4588 0.625
119.4891 0.729
119.5193 0.729
119.5496 1.042
119.5799 0.781
119.6102 0.990
119.6405 0.677
119.6707 0.990
119.7010 0.729
119.7313 0.990
119.7616 0.990
119.7919 0.781
119.8221 0.573
119.8524 1.250
119.8827 0.885
119.9130 0.469
119.9433 0.833
119.9735 0.729
120.0038 0.625
