'Id: "" Comment: "" Operator: "Lab Manager" Anode: "Cu" Scantype: "Locked Coupled" TimePerStep: "19.2" X: "9999" Y: "9999" Z: "9999" 
10.0015 3.333
10.0318 5.104
10.0620 3.802
10.0923 4.062
10.1226 2.917
10.1529 4.323
10.1832 4.271
10.2134 4.115
10.2437 4.323
10.2740 3.698
10.3043 4.167
10.3346 4.062
10.3648 4.479
10.3951 4.062
10.4254 4.687
10.4557 3.906
10.4859 3.698
10.5162 4.167
10.5465 5.000
10.5768 4.427
10.6071 3.750
10.6373 4.115
10.6676 3.646
10.6979 3.906
10.7282 4.271
10.7585 4.427
10.7887 3.802
10.8190 3.802
10.8493 4.635
10.8796 4.583
10.9098 3.802
10.9401 4.740
10.9704 3.490
11.0007 4.167
11.0310 4.271
11.0612 4.792
11.0915 4.687
11.1218 4.375
11.1521 4.323
11.1824 3.333
11.2126 4.167
11.2429 4.427
11.2732 3.385
11.3035 4.583
11.3337 4.323
11.3640 3.906
11.3943 3.490
11.4246 4.323
11.4549 3.646
11.4851 3.646
11.5154 3.750
11.5457 3.542
11.5760 3.750
11.6063 4.375
11.6365 4.271
11.6668 3.385
11.6971 3.854
11.7274 4.583
11.7577 3.542
11.7879 3.854
11.8182 3.125
11.8485 4.531
11.8788 3.542
11.9090 2.969
11.9393 3.229
11.9696 3.646
11.9999 4.167
12.0302 3.594
12.0604 4.219
12.0907 3.750
12.1210 4.167
12.1513 3.490
12.1816 4.115
12.2118 3.750
12.2421 3.125
12.2724 3.490
12.3027 3.281
12.3329 3.958
12.3632 4.062
12.3935 4.167
12.4238 3.229
12.4541 3.594
12.4843 4.062
12.5146 3.125
12.5449 3.333
12.5752 3.698
12.6055 3.385
12.6357 3.281
12.6660 3.073
12.6963 2.708
12.7266 3.333
12.7568 3.750
12.7871 3.229
12.8174 2.760
12.8477 3.698
12.8780 3.073
12.9082 3.385
12.9385 3.125
12.9688 3.594
12.9991 3.281
13.0294 3.854
13.0596 3.177
13.0899 2.500
13.1202 3.073
13.1505 3.646
13.1807 3.750
13.2110 3.854
13.2413 3.750
13.2716 3.385
13.3019 2.969
13.3321 3.906
13.3624 3.281
13.3927 3.177
13.4230 4.062
13.4533 3.385
13.4835 2.969
13.5138 3.646
13.5441 3.021
13.5744 3.854
13.6046 3.385
13.6349 3.229
13.6652 3.854
13.6955 3.125
13.7258 3.177
13.7560 3.437
13.7863 3.958
13.8166 3.073
13.8469 3.646
13.8772 2.812
13.9074 2.969
13.9377 3.281
13.9680 3.021
13.9983 2.500
14.0285 3.333
14.0588 3.385
14.0891 3.594
14.1194 3.229
14.1497 3.229
14.1799 3.906
14.2102 2.917
14.2405 2.656
14.2708 2.812
14.3011 2.552
14.3313 3.854
14.3616 3.594
14.3919 2.760
14.4222 3.854
14.4524 3.385
14.4827 3.750
14.5130 3.281
14.5433 3.437
14.5736 2.552
14.6038 2.552
14.6341 2.917
14.6644 2.760
14.6947 2.708
14.7250 2.604
14.7552 3.229
14.7855 3.125
14.8158 3.594
14.8461 3.177
14.8764 2.812
14.9066 4.062
14.9369 3.021
14.9672 2.812
14.9975 3.854
15.0277 3.750
15.0580 3.437
15.0883 3.594
15.1186 3.906
15.1489 2.604
15.1791 2.552
15.2094 3.542
15.2397 2.969
15.2700 3.125
15.3003 3.177
15.3305 3.281
15.3608 3.229
15.3911 2.656
15.4214 2.500
15.4516 3.021
15.4819 3.490
15.5122 2.031
15.5425 3.385
15.5728 3.594
15.6030 2.344
15.6333 3.437
15.6636 2.656
15.6939 2.604
15.7242 3.542
15.7544 3.437
15.7847 3.177
15.8150 2.187
15.8453 3.021
15.8755 2.448
15.9058 3.281
15.9361 3.698
15.9664 2.969
15.9967 2.552
16.0269 3.333
16.0572 2.760
16.0875 3.125
16.1178 3.177
16.1481 3.125
16.1783 2.500
16.2086 3.385
16.2389 3.021
16.2692 3.385
16.2994 3.021
16.3297 3.490
16.3600 3.281
16.3903 2.656
16.4206 2.604
16.4508 2.812
16.4811 4.062
16.5114 3.073
16.5417 3.281
16.5720 2.240
16.6022 2.552
16.6325 3.333
16.6628 3.490
16.6931 2.500
16.7233 2.604
16.7536 3.333
16.7839 3.333
16.8142 2.917
16.8445 2.292
16.8747 3.177
16.9050 3.854
16.9353 3.958
16.9656 3.750
16.9959 3.490
17.0261 3.542
17.0564 2.812
17.0867 3.333
17.1170 2.969
17.1472 3.229
17.1775 3.646
17.2078 2.812
17.2381 3.698
17.2684 2.969
17.2986 3.437
17.3289 3.333
17.3592 2.917
17.3895 3.281
17.4198 2.760
17.4500 3.542
17.4803 4.010
17.5106 3.542
17.5409 3.021
17.5712 3.490
17.6014 2.187
17.6317 2.865
17.6620 3.854
17.6923 3.125
17.7225 3.542
17.7528 2.865
17.7831 3.021
17.8134 2.812
17.8437 2.969
17.8739 3.125
17.9042 2.656
17.9345 3.021
17.9648 2.656
17.9951 2.865
18.0253 3.333
18.0556 3.177
18.0859 2.604
18.1162 2.083
18.1464 3.073
18.1767 3.385
18.2070 3.177
18.2373 2.448
18.2676 2.865
18.2978 3.281
18.3281 3.750
18.3584 3.490
18.3887 3.281
18.4190 3.333
18.4492 3.021
18.4795 3.177
18.5098 2.344
18.5401 3.385
18.5703 3.698
18.6006 3.281
18.6309 3.281
18.6612 2.656
18.6915 3.177
18.7217 2.552
18.7520 2.396
18.7823 2.500
18.8126 2.969
18.8429 2.969
18.8731 3.385
18.9034 3.698
18.9337 2.344
18.9640 3.542
18.9942 2.917
19.0245 2.812
19.0548 2.344
19.0851 2.448
19.1154 2.812
19.1456 3.021
19.1759 2.292
19.2062 3.385
19.2365 2.396
19.2668 2.812
19.2970 3.333
19.3273 2.396
19.3576 2.396
19.3879 2.708
19.4181 3.125
19.4484 3.333
19.4787 2.760
19.5090 3.594
19.5393 2.656
19.5695 2.812
19.5998 3.021
19.6301 2.865
19.6604 3.125
19.6907 3.073
19.7209 3.333
19.7512 2.083
19.7815 2.812
19.8118 2.344
19.8420 2.396
19.8723 2.500
19.9026 2.865
19.9329 3.542
19.9632 3.229
19.9934 2.292
20.0237 2.552
20.0540 3.281
20.0843 2.760
20.1146 2.865
20.1448 3.229
20.1751 2.969
20.2054 2.865
20.2357 2.396
20.2659 2.812
20.2962 2.760
20.3265 2.917
20.3568 2.865
20.3871 2.552
20.4173 2.760
20.4476 3.385
20.4779 2.656
20.5082 2.708
20.5385 2.396
20.5687 3.802
20.5990 2.969
20.6293 2.969
20.6596 2.708
20.6899 2.708
20.7201 3.437
20.7504 2.812
20.7807 2.292
20.8110 3.594
20.8412 3.229
20.8715 2.448
20.9018 3.021
20.9321 2.656
20.9624 4.271
20.9926 2.344
21.0229 2.969
21.0532 2.865
21.0835 3.073
21.1138 2.969
21.1440 2.969
21.1743 3.177
21.2046 1.927
21.2349 2.865
21.2651 2.708
21.2954 3.229
21.3257 3.229
21.3560 3.073
21.3863 3.385
21.4165 2.135
21.4468 3.333
21.4771 3.854
21.5074 2.604
21.5377 3.021
21.5679 2.604
21.5982 2.448
21.6285 2.135
21.6588 2.500
21.6890 3.073
21.7193 2.500
21.7496 3.177
21.7799 2.344
21.8102 3.281
21.8404 2.500
21.8707 2.917
21.9010 3.021
21.9313 2.760
21.9616 2.500
21.9918 2.969
22.0221 2.969
22.0524 2.708
22.0827 2.500
22.1129 3.125
22.1432 2.396
22.1735 3.385
22.2038 2.969
22.2341 3.125
22.2643 2.917
22.2946 3.073
22.3249 2.292
22.3552 3.281
22.3855 2.604
22.4157 2.500
22.4460 2.708
22.4763 2.656
22.5066 2.448
22.5368 2.708
22.5671 2.448
22.5974 3.229
22.6277 3.333
22.6580 2.500
22.6882 2.708
22.7185 2.604
22.7488 2.292
22.7791 2.708
22.8094 2.552
22.8396 2.708
22.8699 2.396
22.9002 2.396
22.9305 2.865
22.9607 3.229
22.9910 2.917
23.0213 2.760
23.0516 2.865
23.0819 2.917
23.1121 2.656
23.1424 2.552
23.1727 3.333
23.2030 2.396
23.2333 1.771
23.2635 3.021
23.2938 2.812
23.3241 2.812
23.3544 1.771
23.3846 2.812
23.4149 2.396
23.4452 2.448
23.4755 2.708
23.5058 2.292
23.5360 2.917
23.5663 2.240
23.5966 3.073
23.6269 2.135
23.6572 2.500
23.6874 3.125
23.7177 3.281
23.7480 2.812
23.7783 3.125
23.8086 2.604
23.8388 2.708
23.8691 2.969
23.8994 2.552
23.9297 2.917
23.9599 1.719
23.9902 2.656
24.0205 3.542
24.0508 2.396
24.0811 2.292
24.1113 2.865
24.1416 2.760
24.1719 3.333
24.2022 2.448
24.2325 2.240
24.2627 2.760
24.2930 2.396
24.3233 3.177
24.3536 2.292
24.3838 2.656
24.4141 2.760
24.4444 3.021
24.4747 3.177
24.5050 2.917
24.5352 2.552
24.5655 2.969
24.5958 2.448
24.6261 2.604
24.6564 2.396
24.6866 2.031
24.7169 3.594
24.7472 2.656
24.7775 2.604
24.8077 2.135
24.8380 2.865
24.8683 2.604
24.8986 2.396
24.9289 3.229
24.9591 2.344
24.9894 3.021
25.0197 1.979
25.0500 2.031
25.0803 2.917
25.1105 2.656
25.1408 2.969
25.1711 2.604
25.2014 2.917
25.2316 3.594
25.2619 2.656
25.2922 2.760
25.3225 2.656
25.3528 2.500
25.3830 2.500
25.4133 2.812
25.4436 2.083
25.4739 2.604
25.5042 2.708
25.5344 2.865
25.5647 2.917
25.5950 2.187
25.6253 2.448
25.6555 2.917
25.6858 2.552
25.7161 2.083
25.7464 3.125
25.7767 3.177
25.8069 1.927
25.8372 3.021
25.8675 2.969
25.8978 2.708
25.9281 2.917
25.9583 2.708
25.9886 2.812
26.0189 2.552
26.0492 2.552
26.0794 2.708
26.1097 3.125
26.1400 3.490
26.1703 2.865
26.2006 3.021
26.2308 3.021
26.2611 2.396
26.2914 3.021
26.3217 3.073
26.3520 3.177
26.3822 2.448
26.4125 2.969
26.4428 2.969
26.4731 2.396
26.5034 3.073
26.5336 2.500
26.5639 2.812
26.5942 2.656
26.6245 2.604
26.6547 2.708
26.6850 2.656
26.7153 3.073
26.7456 3.229
26.7759 3.177
26.8061 2.865
26.8364 3.542
26.8667 3.802
26.8970 3.802
26.9273 2.917
26.9575 3.177
26.9878 3.490
27.0181 2.865
27.0484 3.333
27.0786 2.812
27.1089 3.490
27.1392 3.021
27.1695 2.969
27.1998 2.552
27.2300 2.292
27.2603 3.229
27.2906 3.385
27.3209 3.490
27.3512 2.812
27.3814 3.229
27.4117 3.021
27.4420 2.917
27.4723 2.969
27.5025 3.177
27.5328 2.448
27.5631 3.177
27.5934 3.281
27.6237 2.708
27.6539 3.333
27.6842 3.854
27.7145 3.437
27.7448 2.917
27.7751 2.865
27.8053 2.396
27.8356 3.385
27.8659 3.594
27.8962 2.812
27.9264 3.437
27.9567 3.333
27.9870 3.646
28.0173 3.333
28.0476 3.437
28.0778 3.437
28.1081 3.542
28.1384 3.594
28.1687 2.760
28.1990 4.531
28.2292 3.750
28.2595 3.333
28.2898 3.125
28.3201 2.396
28.3503 3.854
28.3806 3.021
28.4109 3.177
28.4412 3.177
28.4715 4.375
28.5017 4.375
28.5320 3.854
28.5623 4.115
28.5926 3.594
28.6229 4.531
28.6531 4.219
28.6834 3.646
28.7137 2.708
28.7440 3.490
28.7742 3.646
28.8045 3.490
28.8348 3.854
28.8651 3.906
28.8954 3.854
28.9256 3.542
28.9559 2.969
28.9862 3.542
29.0165 3.281
29.0468 3.802
29.0770 2.865
29.1073 4.323
29.1376 3.490
29.1679 3.698
29.1981 3.698
29.2284 3.490
29.2587 3.542
29.2890 3.802
29.3193 4.010
29.3495 4.062
29.3798 3.542
29.4101 3.802
29.4404 3.802
29.4707 3.385
29.5009 3.802
29.5312 4.219
29.5615 4.010
29.5918 4.115
29.6221 3.802
29.6523 3.802
29.6826 3.646
29.7129 3.854
29.7432 4.167
29.7734 4.635
29.8037 3.906
29.8340 3.958
29.8643 4.062
29.8946 4.792
29.9248 4.062
29.9551 4.635
29.9854 4.740
30.0157 4.167
30.0460 4.427
30.0762 5.104
30.1065 4.792
30.1368 5.417
30.1671 4.948
30.1973 5.573
30.2276 4.687
30.2579 5.052
30.2882 4.896
30.3185 6.979
30.3487 5.052
30.3790 4.948
30.4093 5.260
30.4396 5.156
30.4699 7.031
30.5001 6.406
30.5304 6.719
30.5607 5.990
30.5910 6.250
30.6212 6.406
30.6515 6.771
30.6818 6.615
30.7121 7.604
30.7424 7.031
30.7726 7.344
30.8029 8.437
30.8332 8.750
30.8635 7.969
30.8938 8.281
30.9240 8.646
30.9543 8.490
30.9846 9.635
31.0149 11.198
31.0451 11.823
31.0754 11.927
31.1057 12.865
31.1360 12.865
31.1663 13.802
31.1965 15.573
31.2268 15.260
31.2571 16.771
31.2874 18.854
31.3177 20.000
31.3479 22.187
31.3782 25.469
31.4085 27.396
31.4388 30.677
31.4690 32.448
31.4993 36.146
31.5296 39.271
31.5599 44.323
31.5902 46.302
31.6204 44.583
31.6507 49.896
31.6810 49.583
31.7113 45.833
31.7416 43.490
31.7718 39.635
31.8021 34.271
31.8324 32.969
31.8627 30.417
31.8929 25.990
31.9232 22.500
31.9535 23.594
31.9838 20.417
32.0141 18.333
32.0443 17.344
32.0746 15.625
32.1049 14.167
32.1352 14.635
32.1655 12.344
32.1957 10.312
32.2260 11.354
32.2563 9.375
32.2866 10.781
32.3169 11.250
32.3471 9.219
32.3774 9.062
32.4077 8.021
32.4380 7.552
32.4682 7.917
32.4985 7.917
32.5288 7.135
32.5591 6.510
32.5894 7.917
32.6196 8.229
32.6499 6.667
32.6802 7.708
32.7105 6.354
32.7408 6.354
32.7710 5.833
32.8013 6.094
32.8316 5.885
32.8619 6.615
32.8921 6.979
32.9224 5.833
32.9527 5.573
32.9830 6.823
33.0133 5.469
33.0435 6.146
33.0738 6.198
33.1041 6.354
33.1344 5.260
33.1647 6.771
33.1949 6.458
33.2252 5.208
33.2555 6.406
33.2858 5.260
33.3160 6.823
33.3463 5.677
33.3766 6.458
33.4069 6.094
33.4372 7.135
33.4674 6.354
33.4977 6.562
33.5280 5.937
33.5583 6.302
33.5886 8.490
33.6188 7.656
33.6491 7.552
33.6794 6.302
33.7097 6.302
33.7399 8.750
33.7702 8.021
33.8005 7.187
33.8308 8.281
33.8611 10.000
33.8913 9.740
33.9216 12.031
33.9519 12.083
33.9822 12.604
34.0125 13.437
34.0427 14.896
34.0730 17.083
34.1033 19.635
34.1336 24.115
34.1638 32.240
34.1941 35.625
34.2244 45.469
34.2547 54.115
34.2850 62.604
34.3152 63.021
34.3455 58.073
34.3758 54.062
34.4061 46.042
34.4364 37.500
34.4666 32.187
34.4969 28.542
34.5272 22.344
34.5575 18.177
34.5877 17.083
34.6180 13.594
34.6483 13.125
34.6786 13.750
34.7089 11.719
34.7391 10.833
34.7694 12.552
34.7997 10.573
34.8300 8.854
34.8603 9.948
34.8905 10.573
34.9208 8.490
34.9511 9.271
34.9814 10.312
35.0116 8.333
35.0419 8.854
35.0722 10.729
35.1025 10.000
35.1328 9.635
35.1630 8.646
35.1933 8.542
35.2236 10.104
35.2539 11.458
35.2842 9.948
35.3144 11.771
35.3447 10.885
35.3750 11.510
35.4053 12.292
35.4356 10.104
35.4658 12.552
35.4961 14.427
35.5264 12.656
35.5567 15.156
35.5869 14.375
35.6172 16.042
35.6475 19.115
35.6778 21.406
35.7081 20.625
35.7383 23.906
35.7686 24.219
35.7989 26.719
35.8292 27.604
35.8595 31.510
35.8897 35.312
35.9200 39.844
35.9503 45.625
35.9806 50.573
36.0108 53.906
36.0411 58.490
36.0714 64.687
36.1017 64.948
36.1320 70.573
36.1622 67.708
36.1925 67.604
36.2228 62.604
36.2531 59.219
36.2834 56.562
36.3136 45.365
36.3439 46.354
36.3742 38.385
36.4045 34.531
36.4347 30.885
36.4650 29.010
36.4953 26.615
36.5256 24.844
36.5559 22.292
36.5861 18.542
36.6164 17.760
36.6467 15.365
36.6770 14.271
36.7073 12.031
36.7375 14.687
36.7678 12.135
36.7981 10.677
36.8284 10.417
36.8586 10.781
36.8889 8.177
36.9192 8.698
36.9495 8.802
36.9798 8.698
37.0100 7.865
37.0403 7.083
37.0706 8.177
37.1009 8.750
37.1312 6.250
37.1614 6.927
37.1917 6.927
37.2220 6.250
37.2523 6.146
37.2825 5.573
37.3128 5.885
37.3431 6.146
37.3734 6.146
37.4037 5.417
37.4339 4.896
37.4642 5.260
37.4945 5.156
37.5248 4.740
37.5551 5.417
37.5853 5.208
37.6156 5.208
37.6459 4.687
37.6762 4.167
37.7064 4.427
37.7367 4.167
37.7670 4.271
37.7973 3.750
37.8276 3.542
37.8578 3.698
37.8881 3.698
37.9184 4.167
37.9487 3.802
37.9790 4.062
38.0092 3.177
38.0395 3.542
38.0698 4.323
38.1001 3.854
38.1304 3.333
38.1606 3.958
38.1909 3.281
38.2212 2.448
38.2515 3.229
38.2817 3.125
38.3120 3.437
38.3423 2.917
38.3726 4.010
38.4029 3.802
38.4331 3.385
38.4634 2.917
38.4937 3.177
38.5240 3.333
38.5543 3.177
38.5845 2.604
38.6148 2.917
38.6451 3.333
38.6754 3.698
38.7056 3.698
38.7359 2.812
38.7662 2.448
38.7965 3.177
38.8268 3.073
38.8570 3.021
38.8873 3.229
38.9176 3.750
38.9479 2.448
38.9782 3.021
39.0084 3.333
39.0387 2.552
39.0690 3.229
39.0993 2.500
39.1295 2.344
39.1598 3.021
39.1901 3.177
39.2204 2.396
39.2507 2.917
39.2809 2.760
39.3112 2.708
39.3415 2.604
39.3718 2.604
39.4021 3.385
39.4323 3.073
39.4626 2.812
39.4929 2.396
39.5232 2.708
39.5534 2.187
39.5837 2.917
39.6140 2.500
39.6443 2.135
39.6746 2.708
39.7048 2.448
39.7351 2.969
39.7654 2.760
39.7957 2.760
39.8260 2.292
39.8562 2.083
39.8865 2.292
39.9168 2.240
39.9471 2.760
39.9773 2.708
40.0076 2.292
40.0379 2.656
40.0682 2.344
40.0985 2.292
40.1287 2.135
40.1590 2.396
40.1893 1.667
40.2196 2.552
40.2499 2.292
40.2801 2.552
40.3104 2.500
40.3407 3.073
40.3710 2.135
40.4012 2.344
40.4315 2.552
40.4618 1.771
40.4921 2.240
40.5224 2.448
40.5526 2.708
40.5829 2.240
40.6132 3.542
40.6435 2.187
40.6738 2.448
40.7040 3.177
40.7343 2.083
40.7646 1.719
40.7949 2.135
40.8251 2.448
40.8554 2.969
40.8857 2.292
40.9160 2.396
40.9463 2.135
40.9765 2.604
41.0068 2.656
41.0371 2.187
41.0674 2.083
41.0977 2.083
41.1279 3.229
41.1582 1.771
41.1885 2.917
41.2188 2.344
41.2491 1.823
41.2793 2.292
41.3096 2.760
41.3399 1.771
41.3702 2.240
41.4004 2.187
41.4307 2.552
41.4610 2.708
41.4913 2.396
41.5216 1.979
41.5518 2.240
41.5821 2.240
41.6124 1.927
41.6427 2.240
41.6730 1.875
41.7032 2.448
41.7335 1.771
41.7638 2.396
41.7941 2.500
41.8243 1.875
41.8546 2.656
41.8849 2.031
41.9152 2.396
41.9455 1.927
41.9757 2.292
42.0060 2.240
42.0363 1.823
42.0666 2.292
42.0969 2.344
42.1271 2.135
42.1574 2.135
42.1877 2.604
42.2180 2.396
42.2482 2.031
42.2785 2.083
42.3088 1.458
42.3391 1.719
42.3694 2.552
42.3996 1.875
42.4299 2.552
42.4602 2.135
42.4905 2.187
42.5208 2.812
42.5510 1.979
42.5813 2.448
42.6116 1.667
42.6419 3.021
42.6721 2.083
42.7024 2.760
42.7327 2.187
42.7630 2.604
42.7933 2.917
42.8235 1.771
42.8538 2.396
42.8841 2.812
42.9144 2.292
42.9447 2.396
42.9749 1.979
43.0052 2.240
43.0355 2.135
43.0658 2.292
43.0960 2.031
43.1263 2.083
43.1566 2.031
43.1869 2.187
43.2172 2.083
43.2474 2.448
43.2777 1.927
43.3080 1.927
43.3383 1.927
43.3686 1.667
43.3988 2.708
43.4291 2.135
43.4594 2.187
43.4897 2.552
43.5199 1.875
43.5502 2.292
43.5805 1.823
43.6108 2.344
43.6411 2.708
43.6713 2.292
43.7016 2.135
43.7319 1.979
43.7622 2.500
43.7925 3.073
43.8227 2.240
43.8530 1.406
43.8833 2.187
43.9136 2.500
43.9439 2.448
43.9741 2.552
44.0044 2.448
44.0347 2.396
44.0650 2.240
44.0952 1.771
44.1255 2.656
44.1558 1.615
44.1861 2.500
44.2164 2.031
44.2466 2.656
44.2769 2.969
44.3072 2.500
44.3375 2.187
44.3678 2.083
44.3980 2.187
44.4283 2.135
44.4586 2.083
44.4889 2.292
44.5191 2.865
44.5494 1.927
44.5797 1.823
44.6100 2.865
44.6403 2.448
44.6705 3.021
44.7008 1.927
44.7311 2.812
44.7614 2.344
44.7917 1.771
44.8219 2.500
44.8522 2.187
44.8825 2.812
44.9128 2.240
44.9430 2.240
44.9733 2.917
45.0036 2.500
45.0339 1.667
45.0642 2.969
45.0944 2.187
45.1247 1.875
45.1550 2.240
45.1853 2.292
45.2156 2.656
45.2458 2.812
45.2761 2.240
45.3064 2.812
45.3367 2.240
45.3669 2.812
45.3972 2.031
45.4275 2.656
45.4578 2.344
45.4881 2.187
45.5183 2.552
45.5486 2.708
45.5789 2.604
45.6092 2.604
45.6395 3.073
45.6697 2.865
45.7000 2.292
45.7303 2.187
45.7606 2.240
45.7908 2.917
45.8211 2.396
45.8514 2.604
45.8817 2.917
45.9120 3.594
45.9422 2.812
45.9725 2.917
46.0028 2.865
46.0331 2.448
46.0634 2.812
46.0936 2.448
46.1239 2.604
46.1542 2.187
46.1845 2.865
46.2147 2.448
46.2450 2.969
46.2753 2.240
46.3056 3.229
46.3359 3.385
46.3661 2.969
46.3964 3.385
46.4267 2.344
46.4570 3.229
46.4873 3.021
46.5175 3.021
46.5478 4.062
46.5781 2.812
46.6084 3.542
46.6386 3.542
46.6689 3.437
46.6992 4.375
46.7295 4.427
46.7598 4.531
46.7900 4.531
46.8203 3.750
46.8506 4.896
46.8809 4.896
46.9112 5.573
46.9414 5.104
46.9717 5.990
47.0020 5.573
47.0323 6.615
47.0626 6.094
47.0928 6.823
47.1231 7.656
47.1534 8.229
47.1837 8.490
47.2139 10.365
47.2442 10.208
47.2745 12.708
47.3048 12.187
47.3351 14.062
47.3653 14.740
47.3956 15.885
47.4259 14.844
47.4562 14.167
47.4865 13.542
47.5167 14.583
47.5470 14.479
47.5773 12.760
47.6076 11.562
47.6378 11.302
47.6681 9.271
47.6984 9.062
47.7287 7.552
47.7590 6.823
47.7892 7.396
47.8195 5.573
47.8498 6.823
47.8801 5.521
47.9104 5.156
47.9406 5.156
47.9709 5.312
48.0012 3.542
48.0315 3.854
48.0617 3.177
48.0920 3.802
48.1223 3.229
48.1526 3.958
48.1829 3.542
48.2131 3.073
48.2434 4.479
48.2737 3.490
48.3040 2.760
48.3343 3.177
48.3645 3.073
48.3948 3.594
48.4251 2.500
48.4554 2.500
48.4856 3.229
48.5159 3.125
48.5462 2.812
48.5765 2.812
48.6068 2.865
48.6370 2.135
48.6673 2.344
48.6976 2.552
48.7279 2.760
48.7582 2.292
48.7884 2.031
48.8187 2.448
48.8490 2.552
48.8793 1.823
48.9095 1.875
48.9398 2.500
48.9701 2.604
49.0004 2.604
49.0307 2.187
49.0609 2.187
49.0912 2.448
49.1215 2.656
49.1518 2.656
49.1821 2.344
49.2123 2.031
49.2426 2.031
49.2729 2.552
49.3032 2.187
49.3334 2.396
49.3637 2.031
49.3940 2.187
49.4243 1.562
49.4546 2.031
49.4848 1.667
49.5151 2.292
49.5454 1.875
49.5757 2.135
49.6060 1.667
49.6362 1.510
49.6665 2.031
49.6968 2.344
49.7271 1.771
49.7574 2.292
49.7876 2.448
49.8179 2.292
49.8482 2.344
49.8785 1.823
49.9087 1.927
49.9390 1.667
49.9693 1.771
49.9996 2.083
50.0299 1.927
50.0601 1.927
50.0904 1.927
50.1207 2.031
50.1510 1.927
50.1813 1.719
50.2115 2.083
50.2418 2.552
50.2721 2.083
50.3024 2.083
50.3326 2.135
50.3629 1.979
50.3932 2.500
50.4235 2.135
50.4538 2.917
50.4840 2.083
50.5143 1.562
50.5446 2.865
50.5749 1.719
50.6052 1.771
50.6354 1.823
50.6657 2.344
50.6960 2.344
50.7263 2.135
50.7565 1.823
50.7868 2.240
50.8171 1.719
50.8474 2.604
50.8777 2.187
50.9079 1.198
50.9382 2.344
50.9685 1.562
50.9988 2.187
51.0291 1.875
51.0593 1.562
51.0896 1.823
51.1199 1.979
51.1502 2.083
51.1804 1.615
51.2107 2.083
51.2410 2.031
51.2713 2.344
51.3016 1.771
51.3318 2.448
51.3621 2.187
51.3924 1.615
51.4227 2.344
51.4530 1.979
51.4832 2.083
51.5135 1.979
51.5438 2.552
51.5741 2.292
51.6043 2.344
51.6346 1.927
51.6649 1.823
51.6952 2.031
51.7255 2.396
51.7557 1.979
51.7860 1.823
51.8163 2.500
51.8466 1.875
51.8769 1.667
51.9071 1.979
51.9374 2.031
51.9677 2.187
51.9980 1.667
52.0282 2.604
52.0585 2.292
52.0888 2.344
52.1191 2.031
52.1494 1.979
52.1796 1.875
52.2099 2.083
52.2402 1.771
52.2705 2.240
52.3008 2.083
52.3310 1.615
52.3613 2.344
52.3916 2.135
52.4219 1.458
52.4521 1.927
52.4824 1.875
52.5127 2.083
52.5430 1.771
52.5733 2.344
52.6035 2.187
52.6338 2.604
52.6641 2.344
52.6944 2.135
52.7247 1.979
52.7549 1.927
52.7852 1.667
52.8155 2.031
52.8458 1.875
52.8761 2.240
52.9063 2.083
52.9366 2.083
52.9669 2.292
52.9972 2.448
53.0274 2.448
53.0577 1.771
53.0880 2.708
53.1183 2.135
53.1486 1.927
53.1788 1.875
53.2091 2.552
53.2394 1.562
53.2697 2.135
53.3000 2.083
53.3302 2.031
53.3605 1.927
53.3908 1.667
53.4211 2.396
53.4513 2.292
53.4816 2.083
53.5119 2.344
53.5422 2.812
53.5725 2.396
53.6027 2.344
53.6330 2.031
53.6633 2.292
53.6936 2.240
53.7239 2.240
53.7541 2.031
53.7844 2.500
53.8147 2.396
53.8450 1.667
53.8752 2.187
53.9055 1.719
53.9358 2.031
53.9661 2.083
53.9964 1.615
54.0266 1.979
54.0569 2.500
54.0872 2.187
54.1175 2.604
54.1478 2.969
54.1780 2.396
54.2083 1.823
54.2386 2.292
54.2689 2.240
54.2991 1.927
54.3294 2.500
54.3597 2.500
54.3900 2.083
54.4203 2.292
54.4505 1.823
54.4808 2.708
54.5111 2.708
54.5414 2.031
54.5717 2.292
54.6019 2.604
54.6322 3.177
54.6625 2.292
54.6928 2.135
54.7230 3.125
54.7533 2.500
54.7836 2.448
54.8139 2.812
54.8442 2.812
54.8744 1.771
54.9047 2.448
54.9350 3.229
54.9653 2.448
54.9956 3.229
55.0258 2.396
55.0561 2.448
55.0864 2.448
55.1167 2.760
55.1469 2.500
55.1772 2.292
55.2075 2.917
55.2378 2.969
55.2681 2.812
55.2983 3.802
55.3286 3.333
55.3589 2.865
55.3892 3.021
55.4195 3.073
55.4497 3.437
55.4800 2.708
55.5103 3.594
55.5406 2.969
55.5709 4.219
55.6011 3.750
55.6314 4.010
55.6617 3.490
55.6920 3.646
55.7222 3.333
55.7525 4.115
55.7828 4.167
55.8131 5.104
55.8434 4.479
55.8736 4.896
55.9039 4.948
55.9342 5.573
55.9645 7.083
55.9948 6.406
56.0250 7.448
56.0553 7.760
56.0856 7.344
56.1159 8.854
56.1461 9.479
56.1764 8.333
56.2067 10.208
56.2370 12.656
56.2673 12.760
56.2975 13.333
56.3278 15.156
56.3581 16.354
56.3884 17.969
56.4187 18.177
56.4489 21.042
56.4792 19.323
56.5095 19.427
56.5398 17.135
56.5700 16.927
56.6003 18.177
56.6306 15.156
56.6609 14.896
56.6912 13.021
56.7214 11.719
56.7517 10.625
56.7820 10.573
56.8123 10.104
56.8426 8.542
56.8728 8.021
56.9031 9.219
56.9334 7.396
56.9637 6.510
56.9939 6.719
57.0242 5.990
57.0545 5.417
57.0848 5.417
57.1151 4.583
57.1453 5.208
57.1756 4.792
57.2059 3.802
57.2362 4.115
57.2665 3.594
57.2967 4.583
57.3270 4.375
57.3573 4.219
57.3876 4.635
57.4178 3.281
57.4481 2.812
57.4784 3.542
57.5087 2.865
57.5390 3.542
57.5692 3.125
57.5995 3.333
57.6298 2.969
57.6601 3.385
57.6904 3.229
57.7206 2.708
57.7509 2.760
57.7812 2.760
57.8115 2.760
57.8417 2.865
57.8720 2.708
57.9023 2.240
57.9326 2.292
57.9629 2.500
57.9931 1.823
58.0234 2.240
58.0537 2.187
58.0840 2.708
58.1143 2.448
58.1445 2.812
58.1748 2.083
58.2051 2.344
58.2354 2.083
58.2656 1.562
58.2959 2.135
58.3262 2.187
58.3565 2.917
58.3868 2.396
58.4170 2.656
58.4473 2.083
58.4776 2.240
58.5079 1.979
58.5382 2.344
58.5684 2.344
58.5987 2.187
58.6290 2.292
58.6593 1.875
58.6896 2.448
58.7198 1.615
58.7501 2.187
58.7804 2.396
58.8107 1.979
58.8409 2.396
58.8712 2.135
58.9015 2.187
58.9318 1.667
58.9621 2.708
58.9923 2.083
59.0226 2.292
59.0529 2.604
59.0832 2.812
59.1135 2.240
59.1437 2.083
59.1740 2.656
59.2043 2.292
59.2346 2.240
59.2648 2.083
59.2951 1.771
59.3254 2.448
59.3557 1.823
59.3860 2.396
59.4162 1.771
59.4465 2.552
59.4768 2.396
59.5071 2.500
59.5374 2.135
59.5676 2.708
59.5979 2.240
59.6282 2.031
59.6585 2.552
59.6887 2.448
59.7190 2.292
59.7493 2.187
59.7796 1.719
59.8099 2.500
59.8401 2.031
59.8704 2.240
59.9007 2.292
59.9310 2.448
59.9613 2.135
59.9915 2.083
60.0218 2.656
60.0521 2.031
60.0824 2.135
60.1126 1.927
60.1429 2.187
60.1732 1.979
60.2035 2.344
60.2338 1.927
60.2640 2.240
60.2943 1.927
60.3246 2.187
60.3549 2.760
60.3852 2.552
60.4154 1.927
60.4457 2.448
60.4760 2.187
60.5063 1.979
60.5365 2.344
60.5668 1.927
60.5971 2.292
60.6274 1.979
60.6577 2.344
60.6879 2.240
60.7182 2.604
60.7485 2.292
60.7788 2.604
60.8091 2.135
60.8393 2.448
60.8696 2.604
60.8999 2.656
60.9302 2.656
60.9604 2.812
60.9907 2.031
61.0210 2.448
61.0513 2.760
61.0816 2.708
61.1118 2.448
61.1421 2.448
61.1724 2.760
61.2027 2.135
61.2330 2.292
61.2632 2.083
61.2935 2.396
61.3238 2.812
61.3541 2.500
61.3844 2.656
61.4146 2.760
61.4449 2.917
61.4752 3.021
61.5055 2.500
61.5357 3.177
61.5660 3.229
61.5963 3.281
61.6266 3.594
61.6569 3.385
61.6871 2.969
61.7174 2.812
61.7477 2.865
61.7780 3.437
61.8083 2.865
61.8385 3.125
61.8688 3.646
61.8991 3.021
61.9294 2.917
61.9596 3.490
61.9899 4.635
62.0202 4.167
62.0505 3.854
62.0808 4.010
62.1110 3.385
62.1413 4.583
62.1716 3.437
62.2019 6.198
62.2322 5.990
62.2624 5.365
62.2927 6.406
62.3230 6.146
62.3533 6.146
62.3835 7.917
62.4138 8.333
62.4441 7.760
62.4744 8.490
62.5047 10.052
62.5349 10.990
62.5652 12.344
62.5955 13.281
62.6258 12.865
62.6561 13.437
62.6863 17.344
62.7166 16.510
62.7469 16.823
62.7772 16.042
62.8074 14.010
62.8377 15.677
62.8680 14.583
62.8983 12.396
62.9286 13.646
62.9588 11.927
62.9891 12.083
63.0194 12.240
63.0497 9.479
63.0800 9.896
63.1102 8.490
63.1405 8.073
63.1708 7.031
63.2011 6.562
63.2313 5.156
63.2616 4.792
63.2919 5.000
63.3222 5.260
63.3525 5.365
63.3827 3.333
63.4130 4.896
63.4433 4.167
63.4736 3.177
63.5039 3.542
63.5341 4.062
63.5644 3.125
63.5947 3.333
63.6250 3.646
63.6552 3.229
63.6855 3.333
63.7158 3.385
63.7461 3.854
63.7764 3.490
63.8066 2.552
63.8369 2.656
63.8672 2.656
63.8975 3.073
63.9278 2.396
63.9580 2.031
63.9883 2.708
64.0186 2.448
64.0489 2.344
64.0791 2.448
64.1094 3.229
64.1397 2.656
64.1700 1.927
64.2003 2.760
64.2305 3.490
64.2608 2.812
64.2911 2.500
64.3214 2.552
64.3517 2.344
64.3819 2.187
64.4122 2.240
64.4425 2.396
64.4728 3.021
64.5031 2.500
64.5333 2.135
64.5636 2.604
64.5939 2.500
64.6242 3.698
64.6544 2.969
64.6847 2.760
64.7150 2.344
64.7453 2.448
64.7756 2.552
64.8058 2.552
64.8361 3.073
64.8664 1.927
64.8967 2.031
64.9270 2.500
64.9572 2.083
64.9875 1.927
65.0178 2.240
65.0481 1.927
65.0783 3.021
65.1086 2.708
65.1389 2.135
65.1692 2.448
65.1995 2.552
65.2297 2.448
65.2600 2.448
65.2903 2.187
65.3206 2.187
65.3509 2.604
65.3811 2.552
65.4114 2.500
65.4417 2.187
65.4720 2.396
65.5022 2.500
65.5325 2.656
65.5628 2.396
65.5931 2.135
65.6234 2.708
65.6536 2.656
65.6839 3.333
65.7142 1.875
65.7445 3.073
65.7748 3.437
65.8050 2.969
65.8353 3.437
65.8656 2.500
65.8959 3.281
65.9261 2.708
65.9564 2.865
65.9867 3.542
66.0170 3.906
66.0473 3.698
66.0775 4.062
66.1078 3.854
66.1381 3.906
66.1684 4.583
66.1987 3.073
66.2289 2.969
66.2592 3.958
66.2895 3.437
66.3198 3.698
66.3500 3.698
66.3803 3.802
66.4106 4.531
66.4409 3.698
66.4712 3.490
66.5014 3.073
66.5317 3.594
66.5620 3.594
66.5923 3.698
66.6226 3.646
66.6528 2.396
66.6831 4.167
66.7134 3.177
66.7437 4.115
66.7739 2.917
66.8042 4.010
66.8345 2.917
66.8648 4.010
66.8951 3.646
66.9253 3.021
66.9556 3.594
66.9859 3.125
67.0162 3.073
67.0465 3.594
67.0767 3.021
67.1070 4.531
67.1373 4.062
67.1676 4.010
67.1978 5.365
67.2281 4.323
67.2584 3.906
67.2887 5.104
67.3190 4.687
67.3492 5.521
67.3795 5.521
67.4098 6.094
67.4401 5.677
67.4704 5.521
67.5006 6.042
67.5309 6.823
67.5612 7.344
67.5915 7.240
67.6218 9.167
67.6520 9.115
67.6823 11.146
67.7126 10.260
67.7429 11.979
67.7731 11.198
67.8034 11.979
67.8337 12.500
67.8640 12.396
67.8943 13.229
67.9245 11.198
67.9548 11.250
67.9851 10.573
68.0154 10.729
68.0457 10.000
68.0759 9.792
68.1062 8.906
68.1365 8.073
68.1668 9.375
68.1970 8.385
68.2273 8.437
68.2576 6.719
68.2879 6.927
68.3182 6.615
68.3484 5.729
68.3787 5.781
68.4090 5.521
68.4393 5.729
68.4696 5.781
68.4998 5.104
68.5301 6.094
68.5604 5.469
68.5907 5.469
68.6209 5.104
68.6512 5.937
68.6815 6.094
68.7118 5.937
68.7421 4.687
68.7723 5.729
68.8026 5.885
68.8329 7.500
68.8632 6.667
68.8935 6.302
68.9237 6.771
68.9540 6.406
68.9843 6.875
69.0146 6.354
69.0448 6.458
69.0751 6.979
69.1054 6.094
69.1357 6.562
69.1660 5.937
69.1962 5.052
69.2265 5.208
69.2568 5.260
69.2871 5.260
69.3174 4.844
69.3476 4.896
69.3779 5.573
69.4082 4.062
69.4385 3.750
69.4687 3.750
69.4990 4.167
69.5293 3.854
69.5596 3.385
69.5899 3.646
69.6201 3.177
69.6504 3.073
69.6807 3.073
69.7110 2.812
69.7413 2.292
69.7715 2.708
69.8018 2.865
69.8321 2.604
69.8624 1.875
69.8926 2.344
69.9229 2.812
69.9532 1.979
69.9835 2.448
70.0138 2.500
70.0440 1.979
70.0743 1.875
70.1046 2.552
70.1349 1.979
70.1652 2.083
70.1954 1.927
70.2257 2.031
70.2560 2.500
70.2863 1.771
70.3166 2.292
70.3468 2.135
70.3771 1.875
70.4074 2.187
70.4377 1.250
70.4679 1.302
70.4982 1.927
70.5285 1.719
70.5588 1.875
70.5891 1.823
70.6193 1.458
70.6496 1.406
70.6799 2.656
70.7102 1.719
70.7405 1.771
70.7707 1.771
70.8010 1.771
70.8313 2.656
70.8616 1.667
70.8918 1.146
70.9221 2.344
70.9524 1.250
70.9827 2.031
71.0130 2.292
71.0432 1.771
71.0735 1.875
71.1038 1.667
71.1341 1.771
71.1644 1.719
71.1946 1.823
71.2249 2.083
71.2552 1.198
71.2855 1.771
71.3157 2.240
71.3460 2.031
71.3763 1.198
71.4066 2.344
71.4369 1.771
71.4671 1.719
71.4974 1.771
71.5277 1.510
71.5580 1.823
71.5883 1.771
71.6185 1.615
71.6488 2.135
71.6791 2.240
71.7094 1.771
71.7396 1.615
71.7699 1.875
71.8002 1.458
71.8305 1.146
71.8608 1.562
71.8910 1.875
71.9213 1.615
71.9516 1.771
71.9819 1.458
72.0122 1.667
72.0424 2.240
72.0727 1.667
72.1030 1.927
72.1333 1.771
72.1635 2.083
72.1938 1.458
72.2241 2.031
72.2544 2.396
72.2847 2.292
72.3149 2.031
72.3452 2.396
72.3755 2.760
72.4058 2.500
72.4361 2.865
72.4663 2.708
72.4966 2.240
72.5269 2.656
72.5572 2.396
72.5874 1.875
72.6177 1.562
72.6480 2.240
72.6783 1.719
72.7086 2.031
72.7388 1.719
72.7691 1.198
72.7994 2.240
72.8297 1.667
72.8600 1.510
72.8902 2.031
72.9205 1.771
72.9508 1.771
72.9811 2.344
73.0113 1.406
73.0416 1.719
73.0719 1.719
73.1022 1.771
73.1325 1.823
73.1627 1.667
73.1930 1.615
73.2233 1.927
73.2536 1.406
73.2839 1.823
73.3141 1.250
73.3444 2.083
73.3747 1.615
73.4050 2.031
73.4353 1.875
73.4655 1.667
73.4958 1.562
73.5261 2.187
73.5564 1.562
73.5866 1.250
73.6169 1.250
73.6472 1.458
73.6775 1.302
73.7078 1.354
73.7380 1.510
73.7683 1.667
73.7986 1.562
73.8289 1.823
73.8592 1.719
73.8894 1.354
73.9197 1.823
73.9500 1.354
73.9803 1.302
74.0105 1.615
74.0408 1.771
74.0711 1.719
74.1014 1.667
74.1317 1.562
74.1619 1.667
74.1922 1.354
74.2225 1.510
74.2528 1.719
74.2831 1.302
74.3133 1.771
74.3436 1.719
74.3739 1.510
74.4042 1.198
74.4344 2.292
74.4647 1.927
74.4950 1.562
74.5253 1.458
74.5556 1.771
74.5858 1.042
74.6161 1.510
74.6464 1.458
74.6767 1.302
74.7070 1.771
74.7372 1.562
74.7675 1.198
74.7978 1.979
74.8281 1.302
74.8583 1.406
74.8886 1.406
74.9189 1.198
74.9492 1.198
74.9795 1.771
75.0097 1.771
75.0400 1.927
75.0703 1.458
75.1006 1.198
75.1309 1.146
75.1611 1.302
75.1914 1.562
75.2217 1.719
75.2520 1.354
75.2822 1.615
75.3125 1.250
75.3428 1.875
75.3731 1.146
75.4034 1.198
75.4336 1.510
75.4639 1.615
75.4942 1.198
75.5245 1.615
75.5548 0.937
75.5850 1.615
75.6153 1.198
75.6456 1.198
75.6759 1.250
75.7061 1.823
75.7364 2.187
75.7667 1.094
75.7970 1.719
75.8273 0.937
75.8575 1.302
75.8878 1.615
75.9181 1.875
75.9484 1.562
75.9787 1.719
76.0089 1.979
76.0392 1.510
76.0695 1.875
76.0998 1.719
76.1301 1.562
76.1603 1.458
76.1906 1.458
76.2209 1.615
76.2512 1.667
76.2814 1.667
76.3117 1.667
76.3420 2.135
76.3723 2.187
76.4026 1.771
76.4328 2.187
76.4631 1.719
76.4934 2.083
76.5237 2.708
76.5540 2.292
76.5842 2.344
76.6145 2.396
76.6448 2.187
76.6751 2.344
76.7053 2.969
76.7356 2.552
76.7659 2.187
76.7962 2.552
76.8265 2.292
76.8567 2.031
76.8870 2.708
76.9173 2.917
76.9476 2.292
76.9779 2.969
77.0081 2.760
77.0384 3.177
77.0687 2.240
77.0990 2.448
77.1292 2.292
77.1595 2.812
77.1898 1.979
77.2201 2.187
77.2504 2.187
77.2806 1.667
77.3109 1.667
77.3412 1.771
77.3715 1.667
77.4018 1.719
77.4320 1.667
77.4623 1.615
77.4926 1.406
77.5229 1.667
77.5531 1.719
77.5834 1.510
77.6137 1.823
77.6440 1.354
77.6743 1.510
77.7045 1.510
77.7348 1.510
77.7651 2.031
77.7954 1.458
77.8257 1.875
77.8559 1.354
77.8862 1.667
77.9165 1.354
77.9468 1.406
77.9770 1.875
78.0073 1.562
78.0376 1.250
78.0679 1.094
78.0982 1.406
78.1284 1.250
78.1587 2.083
78.1890 1.250
78.2193 1.562
78.2496 1.719
78.2798 0.937
78.3101 1.510
78.3404 1.198
78.3707 1.719
78.4009 0.833
78.4312 1.510
78.4615 1.302
78.4918 1.198
78.5221 1.458
78.5523 1.406
78.5826 1.562
78.6129 1.406
78.6432 1.406
78.6735 1.667
78.7037 1.198
78.7340 2.135
78.7643 1.302
78.7946 1.146
78.8248 1.771
78.8551 1.823
78.8854 2.240
78.9157 1.146
78.9460 1.042
78.9762 1.406
79.0065 1.406
79.0368 1.562
79.0671 1.667
79.0974 1.146
79.1276 1.354
79.1579 1.406
79.1882 1.302
79.2185 1.510
79.2488 1.615
79.2790 1.771
79.3093 1.146
79.3396 1.250
79.3699 1.354
79.4001 1.771
79.4304 1.146
79.4607 1.667
79.4910 1.667
79.5213 1.510
79.5515 1.719
79.5818 1.562
79.6121 1.406
79.6424 1.510
79.6727 1.250
79.7029 1.302
79.7332 1.198
79.7635 1.302
79.7938 1.458
79.8240 0.885
79.8543 1.354
79.8846 1.302
79.9149 1.615
79.9452 1.510
79.9754 1.354
80.0057 1.458
80.0360 1.094
80.0663 1.562
80.0966 1.510
80.1268 2.448
80.1571 1.510
80.1874 1.198
80.2177 1.510
80.2479 0.937
80.2782 1.823
80.3085 1.146
80.3388 1.615
80.3691 1.198
80.3993 1.667
80.4296 1.250
80.4599 1.146
80.4902 1.042
80.5205 0.990
80.5507 1.458
80.5810 1.562
80.6113 1.302
80.6416 1.354
80.6718 1.406
80.7021 1.927
80.7324 1.562
80.7627 1.927
80.7930 1.094
80.8232 1.198
80.8535 1.771
80.8838 0.990
80.9141 1.354
80.9444 1.042
80.9746 1.510
81.0049 1.458
81.0352 1.927
81.0655 1.719
81.0957 1.667
81.1260 1.458
81.1563 1.562
81.1866 1.667
81.2169 1.771
81.2471 1.510
81.2774 2.604
81.3077 2.187
81.3380 1.979
81.3683 1.667
81.3985 2.240
81.4288 1.198
81.4591 1.458
81.4894 2.135
81.5196 1.771
81.5499 1.615
81.5802 1.875
81.6105 1.927
81.6408 1.510
81.6710 1.875
81.7013 1.667
81.7316 1.458
81.7619 1.250
81.7922 1.667
81.8224 1.354
81.8527 1.667
81.8830 2.083
81.9133 1.250
81.9436 1.406
81.9738 1.354
82.0041 1.146
82.0344 1.667
82.0647 1.198
82.0949 1.250
82.1252 1.198
82.1555 1.198
82.1858 1.198
82.2161 1.354
82.2463 1.406
82.2766 1.354
82.3069 1.302
82.3372 1.250
82.3675 1.667
82.3977 1.510
82.4280 1.250
82.4583 1.667
82.4886 1.510
82.5188 1.250
82.5491 1.510
82.5794 1.719
82.6097 1.354
82.6400 1.250
82.6702 0.729
82.7005 1.042
82.7308 1.458
82.7611 1.667
82.7914 1.198
82.8216 1.458
82.8519 1.562
82.8822 1.094
82.9125 1.458
82.9427 1.094
82.9730 1.198
83.0033 1.094
83.0336 1.198
83.0639 1.198
83.0941 1.458
83.1244 1.406
83.1547 1.042
83.1850 1.354
83.2153 0.990
83.2455 1.667
83.2758 1.198
83.3061 1.510
83.3364 1.250
83.3666 1.406
83.3969 0.990
83.4272 1.667
83.4575 0.729
83.4878 1.198
83.5180 0.781
83.5483 1.198
83.5786 1.406
83.6089 1.562
83.6392 1.198
83.6694 0.937
83.6997 1.354
83.7300 1.250
83.7603 1.198
83.7905 1.302
83.8208 1.302
83.8511 1.354
83.8814 1.354
83.9117 1.146
83.9419 0.990
83.9722 0.833
84.0025 1.146
84.0328 1.354
84.0631 1.042
84.0933 1.250
84.1236 1.354
84.1539 1.510
84.1842 1.198
84.2144 1.042
84.2447 1.562
84.2750 1.562
84.3053 1.406
84.3356 1.198
84.3658 1.198
84.3961 1.354
84.4264 1.667
84.4567 1.615
84.4870 1.302
84.5172 1.198
84.5475 1.615
84.5778 1.458
84.6081 1.562
84.6383 1.510
84.6686 0.781
84.6989 1.250
84.7292 1.302
84.7595 1.094
84.7897 1.458
84.8200 1.094
84.8503 1.302
84.8806 1.667
84.9109 1.302
84.9411 1.250
84.9714 1.562
85.0017 1.198
85.0320 1.354
85.0623 1.250
85.0925 1.198
85.1228 1.094
85.1531 1.198
85.1834 1.302
85.2136 1.198
85.2439 1.198
85.2742 1.198
85.3045 1.406
85.3348 1.146
85.3650 1.510
85.3953 1.615
85.4256 1.250
85.4559 0.990
85.4862 1.562
85.5164 1.198
85.5467 1.875
85.5770 1.302
85.6073 1.250
85.6375 1.458
85.6678 1.042
85.6981 1.458
85.7284 1.458
85.7587 1.198
85.7889 1.667
85.8192 1.667
85.8495 1.198
85.8798 0.729
85.9101 1.094
85.9403 1.042
85.9706 1.198
86.0009 1.510
86.0312 1.302
86.0614 1.094
86.0917 1.250
86.1220 1.510
86.1523 1.510
86.1826 0.990
86.2128 1.458
86.2431 1.198
86.2734 1.667
86.3037 1.771
86.3340 1.250
86.3642 1.146
86.3945 1.250
86.4248 1.406
86.4551 1.146
86.4853 1.354
86.5156 0.990
86.5459 0.990
86.5762 1.823
86.6065 1.146
86.6367 1.458
86.6670 1.198
86.6973 1.823
86.7276 1.719
86.7579 1.354
86.7881 1.198
86.8184 1.406
86.8487 1.458
86.8790 1.198
86.9092 1.823
86.9395 1.198
86.9698 0.833
87.0001 0.990
87.0304 0.937
87.0606 1.198
87.0909 1.562
87.1212 1.354
87.1515 1.354
87.1818 1.198
87.2120 0.937
87.2423 1.198
87.2726 1.667
87.3029 1.406
87.3331 1.458
87.3634 2.135
87.3937 1.198
87.4240 1.823
87.4543 1.406
87.4845 1.042
87.5148 1.667
87.5451 1.406
87.5754 1.562
87.6057 1.094
87.6359 1.510
87.6662 1.094
87.6965 1.094
87.7268 1.510
87.7571 1.302
87.7873 1.146
87.8176 1.667
87.8479 1.354
87.8782 1.823
87.9084 0.990
87.9387 1.250
87.9690 1.771
87.9993 1.146
88.0296 1.875
88.0598 1.406
88.0901 1.198
88.1204 1.198
88.1507 1.667
88.1810 1.719
88.2112 1.927
88.2415 0.937
88.2718 1.042
88.3021 1.823
88.3323 1.354
88.3626 1.406
88.3929 1.562
88.4232 1.302
88.4535 1.354
88.4837 1.458
88.5140 1.823
88.5443 1.615
88.5746 1.667
88.6049 2.135
88.6351 1.771
88.6654 1.875
88.6957 2.292
88.7260 1.979
88.7562 1.615
88.7865 1.510
88.8168 1.771
88.8471 1.562
88.8774 2.187
88.9076 1.510
88.9379 1.771
88.9682 2.135
88.9985 2.135
89.0288 2.760
89.0590 2.240
89.0893 2.292
89.1196 2.604
89.1499 2.135
89.1801 1.927
89.2104 2.187
89.2407 2.708
89.2710 3.125
89.3013 3.021
89.3315 3.125
89.3618 2.292
89.3921 3.073
89.4224 3.125
89.4527 4.010
89.4829 3.542
89.5132 3.594
89.5435 3.073
89.5738 3.594
89.6040 3.906
89.6343 3.594
89.6646 3.229
89.6949 3.281
89.7252 3.021
89.7554 3.177
89.7857 3.646
89.8160 3.229
89.8463 3.125
89.8766 3.646
89.9068 3.437
89.9371 2.604
89.9674 2.604
89.9977 2.083
90.0279 2.604
90.0582 2.135
90.0885 2.031
90.1188 2.135
90.1491 2.135
90.1793 1.875
90.2096 1.615
90.2399 1.615
90.2702 2.656
90.3005 2.031
90.3307 1.406
90.3610 2.135
90.3913 1.562
90.4216 1.927
90.4518 1.667
90.4821 1.875
90.5124 1.615
90.5427 1.146
90.5730 1.562
90.6032 1.875
90.6335 1.406
90.6638 1.250
90.6941 1.198
90.7244 1.771
90.7546 1.823
90.7849 2.187
90.8152 1.615
90.8455 1.667
90.8758 1.667
90.9060 1.667
90.9363 1.406
90.9666 1.198
90.9969 1.667
91.0271 2.135
91.0574 1.250
91.0877 1.250
91.1180 1.510
91.1483 1.719
91.1785 1.198
91.2088 1.458
91.2391 1.458
91.2694 1.354
91.2997 1.406
91.3299 2.187
91.3602 1.875
91.3905 1.823
91.4208 1.719
91.4510 1.667
91.4813 1.406
91.5116 1.198
91.5419 1.198
91.5722 1.875
91.6024 1.354
91.6327 1.667
91.6630 2.135
91.6933 2.240
91.7236 1.615
91.7538 1.302
91.7841 1.354
91.8144 1.875
91.8447 1.458
91.8749 1.198
91.9052 1.198
91.9355 1.667
91.9658 1.302
91.9961 1.615
92.0263 1.927
92.0566 1.406
92.0869 1.719
92.1172 2.187
92.1475 1.771
92.1777 1.667
92.2080 1.667
92.2383 2.500
92.2686 1.719
92.2988 2.135
92.3291 1.510
92.3594 2.552
92.3897 1.510
92.4200 1.823
92.4502 1.667
92.4805 2.187
92.5108 2.187
92.5411 2.031
92.5714 1.979
92.6016 2.083
92.6319 2.240
92.6622 1.771
92.6925 2.396
92.7227 2.240
92.7530 1.510
92.7833 2.083
92.8136 1.458
92.8439 2.344
92.8741 2.031
92.9044 1.875
92.9347 2.187
92.9650 2.135
92.9953 1.771
93.0255 1.771
93.0558 1.562
93.0861 1.562
93.1164 1.719
93.1466 1.719
93.1769 1.771
93.2072 1.667
93.2375 1.979
93.2678 1.302
93.2980 1.875
93.3283 1.458
93.3586 1.771
93.3889 1.615
93.4192 1.354
93.4494 1.719
93.4797 1.875
93.5100 1.719
93.5403 1.406
93.5706 1.719
93.6008 1.719
93.6311 1.510
93.6614 2.187
93.6917 1.667
93.7219 1.823
93.7522 1.719
93.7825 1.667
93.8128 1.927
93.8431 1.823
93.8733 1.719
93.9036 1.875
93.9339 1.198
93.9642 2.448
93.9945 2.031
94.0247 1.042
94.0550 1.302
94.0853 1.354
94.1156 1.562
94.1458 1.562
94.1761 2.135
94.2064 1.979
94.2367 1.771
94.2670 1.562
94.2972 2.083
94.3275 1.406
94.3578 2.083
94.3881 1.927
94.4184 1.823
94.4486 2.240
94.4789 2.083
94.5092 1.562
94.5395 1.615
94.5697 1.927
94.6000 2.760
94.6303 2.552
94.6606 2.187
94.6909 1.823
94.7211 2.031
94.7514 1.875
94.7817 2.083
94.8120 2.240
94.8423 2.969
94.8725 2.865
94.9028 2.344
94.9331 3.073
94.9634 2.760
94.9936 3.177
95.0239 3.229
95.0542 2.969
95.0845 2.708
95.1148 3.125
95.1450 3.437
95.1753 3.281
95.2056 3.490
95.2359 3.229
95.2662 3.125
95.2964 3.490
95.3267 3.802
95.3570 2.969
95.3873 3.698
95.4175 2.969
95.4478 3.437
95.4781 3.073
95.5084 3.021
95.5387 3.854
95.5689 3.333
95.5992 3.333
95.6295 2.760
95.6598 2.865
95.6901 2.917
95.7203 2.656
95.7506 2.708
95.7809 2.708
95.8112 2.240
95.8414 2.344
95.8717 2.240
95.9020 1.771
95.9323 2.135
95.9626 2.448
95.9928 2.344
96.0231 1.458
96.0534 1.719
96.0837 1.667
96.1140 2.344
96.1442 1.562
96.1745 1.458
96.2048 1.667
96.2351 1.406
96.2653 1.354
96.2956 1.667
96.3259 1.771
96.3562 1.250
96.3865 1.719
96.4167 1.562
96.4470 2.083
96.4773 1.562
96.5076 1.406
96.5379 1.719
96.5681 2.135
96.5984 1.042
96.6287 1.250
96.6590 1.719
96.6893 1.875
96.7195 1.458
96.7498 1.667
96.7801 1.615
96.8104 1.458
96.8406 1.979
96.8709 1.354
96.9012 1.771
96.9315 1.562
96.9618 1.354
96.9920 1.875
97.0223 1.615
97.0526 1.771
97.0829 1.667
97.1132 1.562
97.1434 1.615
97.1737 1.146
97.2040 1.771
97.2343 1.562
97.2645 1.510
97.2948 1.667
97.3251 1.250
97.3554 1.771
97.3857 1.615
97.4159 1.354
97.4462 1.823
97.4765 1.458
97.5068 1.562
97.5371 1.562
97.5673 1.771
97.5976 1.615
97.6279 1.667
97.6582 2.135
97.6884 1.771
97.7187 1.250
97.7490 1.250
97.7793 1.615
97.8096 1.927
97.8398 1.927
97.8701 1.771
97.9004 2.187
97.9307 1.719
97.9610 1.667
97.9912 1.146
98.0215 2.083
98.0518 1.979
98.0821 2.240
98.1123 1.667
98.1426 2.187
98.1729 2.187
98.2032 2.292
98.2335 1.927
98.2637 2.396
98.2940 2.031
98.3243 2.500
98.3546 2.187
98.3849 2.656
98.4151 2.708
98.4454 2.760
98.4757 2.656
98.5060 2.344
98.5362 2.969
98.5665 2.812
98.5968 2.448
98.6271 2.396
98.6574 2.344
98.6876 1.771
98.7179 2.240
98.7482 2.865
98.7785 2.135
98.8088 1.823
98.8390 2.812
98.8693 2.187
98.8996 1.042
98.9299 2.083
98.9601 1.979
98.9904 2.448
99.0207 1.510
99.0510 1.562
99.0813 2.031
99.1115 2.135
99.1418 1.875
99.1721 2.344
99.2024 1.615
99.2327 1.719
99.2629 1.667
99.2932 1.615
99.3235 1.771
99.3538 1.562
99.3841 2.552
99.4143 1.302
99.4446 1.562
99.4749 1.458
99.5052 1.250
99.5354 1.667
99.5657 1.875
99.5960 1.354
99.6263 1.146
99.6566 1.771
99.6868 1.875
99.7171 1.875
99.7474 1.719
99.7777 1.198
99.8080 1.979
99.8382 0.833
99.8685 1.719
99.8988 1.771
99.9291 1.719
99.9593 1.302
99.9896 1.615
100.0199 1.615
100.0502 1.146
100.0805 1.302
100.1107 1.354
100.1410 1.302
100.1713 1.927
100.2016 1.562
100.2319 1.615
100.2621 1.458
100.2924 1.562
100.3227 1.823
100.3530 1.927
100.3832 1.458
100.4135 1.302
100.4438 1.510
100.4741 0.781
100.5044 1.458
100.5346 1.719
100.5649 1.458
100.5952 1.302
100.6255 1.771
100.6558 1.250
100.6860 2.031
100.7163 1.823
100.7466 1.562
100.7769 1.146
100.8071 1.250
100.8374 1.823
100.8677 1.042
100.8980 1.458
100.9283 1.042
100.9585 1.823
100.9888 1.562
101.0191 1.615
101.0494 1.615
101.0797 1.823
101.1099 1.875
101.1402 1.510
101.1705 1.562
101.2008 1.562
101.2310 1.458
101.2613 1.667
101.2916 2.083
101.3219 1.615
101.3522 1.198
101.3824 1.615
101.4127 1.562
101.4430 1.458
101.4733 1.354
101.5036 1.250
101.5338 1.615
101.5641 1.771
101.5944 1.771
101.6247 1.458
101.6549 1.250
101.6852 1.510
101.7155 1.354
101.7458 1.510
101.7761 1.562
101.8063 1.562
101.8366 1.146
101.8669 1.823
101.8972 1.406
101.9275 1.719
101.9577 2.031
101.9880 1.302
102.0183 1.458
102.0486 1.510
102.0788 1.875
102.1091 1.771
102.1394 1.354
102.1697 1.979
102.2000 1.875
102.2302 1.562
102.2605 1.875
102.2908 2.500
102.3211 1.198
102.3514 1.823
102.3816 1.354
102.4119 2.396
102.4422 2.031
102.4725 2.083
102.5028 2.083
102.5330 2.135
102.5633 1.875
102.5936 2.240
102.6239 1.562
102.6541 2.396
102.6844 1.875
102.7147 1.875
102.7450 2.396
102.7753 1.979
102.8055 2.344
102.8358 1.875
102.8661 2.448
102.8964 2.292
102.9267 2.240
102.9569 2.135
102.9872 1.927
103.0175 1.979
103.0478 1.458
103.0780 2.552
103.1083 2.500
103.1386 2.292
103.1689 2.812
103.1992 2.031
103.2294 2.448
103.2597 2.396
103.2900 1.562
103.3203 2.083
103.3506 1.927
103.3808 2.396
103.4111 2.917
103.4414 2.031
103.4717 2.031
103.5019 2.708
103.5322 2.500
103.5625 1.927
103.5928 2.500
103.6231 2.344
103.6533 2.656
103.6836 1.927
103.7139 2.656
103.7442 2.396
103.7745 2.187
103.8047 2.396
103.8350 2.656
103.8653 2.917
103.8956 2.500
103.9258 3.646
103.9561 3.073
103.9864 2.500
104.0167 2.656
104.0470 3.490
104.0772 2.865
104.1075 3.958
104.1378 2.865
104.1681 2.500
104.1984 2.812
104.2286 2.500
104.2589 3.333
104.2892 2.708
104.3195 2.708
104.3497 3.229
104.3800 2.240
104.4103 2.604
104.4406 2.865
104.4709 2.708
104.5011 1.979
104.5314 2.812
104.5617 3.073
104.5920 2.187
104.6223 3.125
104.6525 2.083
104.6828 1.927
104.7131 1.875
104.7434 1.979
104.7736 2.344
104.8039 1.979
104.8342 1.458
104.8645 1.719
104.8948 2.448
104.9250 1.875
104.9553 1.823
104.9856 1.927
105.0159 1.719
105.0462 1.979
105.0764 1.510
105.1067 1.250
105.1370 1.510
105.1673 1.354
105.1975 1.771
105.2278 1.719
105.2581 1.719
105.2884 1.406
105.3187 1.562
105.3489 2.135
105.3792 1.146
105.4095 1.406
105.4398 1.250
105.4701 1.406
105.5003 1.667
105.5306 1.198
105.5609 1.823
105.5912 1.719
105.6215 1.510
105.6517 1.667
105.6820 1.667
105.7123 1.667
105.7426 1.406
105.7728 1.615
105.8031 1.510
105.8334 1.771
105.8637 1.458
105.8940 1.667
105.9242 1.406
105.9545 1.458
105.9848 1.406
106.0151 2.031
106.0454 0.885
106.0756 1.771
106.1059 1.979
106.1362 0.990
106.1665 1.562
106.1967 1.406
106.2270 1.354
106.2573 1.719
106.2876 0.885
106.3179 1.458
106.3481 1.510
106.3784 1.302
106.4087 1.510
106.4390 1.458
106.4693 1.823
106.4995 0.937
106.5298 1.927
106.5601 1.458
106.5904 1.562
106.6206 1.667
106.6509 1.927
106.6812 2.031
106.7115 2.031
106.7418 1.250
106.7720 1.250
106.8023 1.615
106.8326 1.406
106.8629 1.667
106.8932 1.458
106.9234 1.667
106.9537 1.458
106.9840 2.448
107.0143 1.146
107.0445 1.823
107.0748 1.615
107.1051 1.458
107.1354 1.094
107.1657 1.771
107.1959 1.510
107.2262 1.771
107.2565 1.979
107.2868 1.094
107.3171 1.510
107.3473 1.458
107.3776 1.562
107.4079 1.667
107.4382 2.031
107.4684 1.823
107.4987 1.406
107.5290 1.458
107.5593 1.510
107.5896 1.458
107.6198 1.354
107.6501 1.615
107.6804 2.240
107.7107 1.875
107.7410 1.042
107.7712 1.667
107.8015 1.354
107.8318 1.510
107.8621 1.823
107.8923 1.406
107.9226 1.667
107.9529 1.719
107.9832 1.302
108.0135 1.979
108.0437 1.094
108.0740 1.667
108.1043 1.615
108.1346 1.562
108.1649 1.510
108.1951 1.302
108.2254 1.198
108.2557 1.406
108.2860 1.458
108.3163 1.510
108.3465 2.135
108.3768 1.823
108.4071 1.562
108.4374 1.875
108.4676 1.510
108.4979 1.250
108.5282 1.406
108.5585 1.719
108.5888 1.615
108.6190 1.354
108.6493 2.031
108.6796 1.354
108.7099 1.667
108.7402 1.406
108.7704 1.510
108.8007 1.719
108.8310 1.510
108.8613 1.615
108.8915 1.406
108.9218 1.510
108.9521 1.615
108.9824 1.719
109.0127 1.562
109.0429 1.615
109.0732 1.562
109.1035 1.615
109.1338 1.406
109.1641 1.458
109.1943 1.458
109.2246 1.823
109.2549 1.979
109.2852 2.135
109.3154 1.875
109.3457 2.031
109.3760 1.510
109.4063 1.667
109.4366 1.562
109.4668 2.135
109.4971 1.562
109.5274 1.719
109.5577 2.187
109.5880 1.979
109.6182 1.719
109.6485 1.823
109.6788 1.510
109.7091 1.719
109.7393 1.354
109.7696 1.823
109.7999 1.354
109.8302 1.615
109.8605 1.771
109.8907 1.458
109.9210 1.667
109.9513 1.979
109.9816 2.344
110.0119 2.344
110.0421 1.615
110.0724 2.969
110.1027 2.083
110.1330 2.187
110.1632 2.292
110.1935 2.292
110.2238 2.240
110.2541 1.875
110.2844 1.927
110.3146 1.979
110.3449 2.083
110.3752 2.240
110.4055 2.604
110.4358 2.604
110.4660 2.292
110.4963 1.719
110.5266 1.927
110.5569 2.135
110.5871 3.021
110.6174 2.448
110.6477 2.187
110.6780 1.719
110.7083 2.604
110.7385 1.458
110.7688 2.083
110.7991 1.562
110.8294 1.927
110.8597 2.187
110.8899 1.979
110.9202 1.875
110.9505 1.354
110.9808 2.031
111.0110 1.354
111.0413 1.562
111.0716 1.823
111.1019 1.719
111.1322 1.562
111.1624 2.031
111.1927 2.344
111.2230 2.292
111.2533 1.927
111.2836 1.458
111.3138 1.927
111.3441 1.979
111.3744 1.510
111.4047 2.031
111.4350 0.937
111.4652 1.927
111.4955 2.031
111.5258 1.458
111.5561 1.927
111.5863 1.562
111.6166 1.979
111.6469 1.719
111.6772 1.510
111.7075 1.406
111.7377 1.510
111.7680 1.302
111.7983 1.719
111.8286 1.458
111.8589 1.354
111.8891 1.250
111.9194 1.719
111.9497 1.302
111.9800 1.823
112.0102 1.198
112.0405 1.771
112.0708 1.615
112.1011 2.083
112.1314 1.615
112.1616 1.823
112.1919 1.198
112.2222 1.406
112.2525 1.927
112.2828 1.927
112.3130 1.719
112.3433 1.615
112.3736 1.302
112.4039 1.615
112.4341 1.771
112.4644 1.615
112.4947 0.885
112.5250 1.562
112.5553 1.927
112.5855 1.615
112.6158 1.354
112.6461 1.510
112.6764 1.615
112.7067 1.771
112.7369 1.615
112.7672 1.615
112.7975 1.823
112.8278 1.042
112.8580 1.146
112.8883 1.823
112.9186 1.615
112.9489 1.719
112.9792 1.667
113.0094 1.615
113.0397 1.094
113.0700 1.458
113.1003 1.094
113.1306 1.667
113.1608 1.927
113.1911 1.562
113.2214 1.719
113.2517 1.302
113.2819 1.354
113.3122 1.510
113.3425 1.406
113.3728 2.135
113.4031 1.615
113.4333 1.771
113.4636 1.719
113.4939 1.302
113.5242 1.562
113.5545 1.771
113.5847 2.031
113.6150 1.510
113.6453 1.927
113.6756 1.771
113.7058 1.354
113.7361 1.354
113.7664 1.719
113.7967 1.510
113.8270 1.771
113.8572 1.823
113.8875 1.198
113.9178 1.302
113.9481 1.719
113.9784 1.875
114.0086 1.719
114.0389 1.979
114.0692 1.667
114.0995 1.510
114.1298 2.448
114.1600 1.927
114.1903 1.771
114.2206 1.667
114.2509 1.823
114.2811 1.771
114.3114 1.406
114.3417 1.667
114.3720 1.719
114.4023 2.187
114.4325 1.823
114.4628 1.667
114.4931 1.198
114.5234 1.875
114.5537 1.458
114.5839 1.458
114.6142 1.562
114.6445 2.135
114.6748 1.927
114.7050 1.562
114.7353 1.406
114.7656 1.823
114.7959 1.615
114.8262 1.510
114.8564 1.927
114.8867 1.771
114.9170 2.083
114.9473 1.771
114.9776 1.667
115.0078 1.562
115.0381 2.031
115.0684 2.083
115.0987 2.083
115.1289 1.927
115.1592 1.615
115.1895 1.979
115.2198 2.135
115.2501 1.875
115.2803 2.240
115.3106 1.979
115.3409 2.240
115.3712 2.135
115.4015 2.240
115.4317 2.240
115.4620 2.031
115.4923 1.927
115.5226 2.187
115.5528 2.135
115.5831 2.292
115.6134 2.604
115.6437 2.812
115.6740 2.500
115.7042 2.500
115.7345 2.500
115.7648 2.552
115.7951 2.187
115.8254 2.917
115.8556 2.604
115.8859 3.177
115.9162 3.125
115.9465 3.281
115.9767 2.760
116.0070 3.021
116.0373 3.437
116.0676 2.708
116.0979 2.865
116.1281 3.021
116.1584 2.969
116.1887 3.125
116.2190 2.865
116.2493 2.865
116.2795 3.385
116.3098 3.333
116.3401 3.490
116.3704 3.490
116.4006 2.812
116.4309 3.490
116.4612 2.917
116.4915 3.073
116.5218 3.021
116.5520 2.708
116.5823 3.229
116.6126 3.125
116.6429 2.708
116.6732 2.031
116.7034 2.344
116.7337 3.385
116.7640 1.979
116.7943 3.385
116.8245 3.021
116.8548 2.812
116.8851 2.604
116.9154 2.135
116.9457 3.229
116.9759 2.031
117.0062 2.135
117.0365 2.656
117.0668 2.344
117.0971 2.656
117.1273 1.615
117.1576 2.344
117.1879 2.708
117.2182 2.240
117.2485 2.396
117.2787 1.719
117.3090 2.292
117.3393 1.719
117.3696 2.031
117.3998 1.771
117.4301 2.083
117.4604 1.562
117.4907 1.927
117.5210 2.031
117.5512 1.406
117.5815 1.771
117.6118 2.396
117.6421 1.615
117.6724 2.031
117.7026 2.083
117.7329 2.240
117.7632 1.979
117.7935 2.031
117.8237 1.198
117.8540 1.354
117.8843 1.510
117.9146 1.823
117.9449 1.510
117.9751 1.562
118.0054 1.354
118.0357 1.406
118.0660 1.250
118.0963 1.771
118.1265 2.083
118.1568 1.875
118.1871 1.510
118.2174 1.823
118.2476 1.719
118.2779 1.458
118.3082 1.510
118.3385 2.083
118.3688 2.240
118.3990 1.615
118.4293 0.833
118.4596 2.031
118.4899 1.458
118.5202 2.448
118.5504 1.302
118.5807 2.135
118.6110 1.615
118.6413 2.708
118.6715 1.562
118.7018 1.458
118.7321 1.771
118.7624 2.031
118.7927 1.146
118.8229 1.562
118.8532 1.615
118.8835 1.562
118.9138 1.406
118.9441 1.458
118.9743 1.198
119.0046 1.510
119.0349 1.615
119.0652 1.927
119.0954 1.458
119.1257 1.719
119.1560 1.562
119.1863 1.094
119.2166 1.927
119.2468 2.031
119.2771 1.406
119.3074 1.667
119.3377 1.458
119.3680 1.719
119.3982 1.875
119.4285 1.354
119.4588 1.354
119.4891 1.510
119.5193 1.562
119.5496 1.615
119.5799 1.406
119.6102 1.562
119.6405 2.240
119.6707 1.771
119.7010 1.146
119.7313 1.823
119.7616 1.354
119.7919 1.250
119.8221 1.406
119.8524 1.406
119.8827 1.354
119.9130 1.458
119.9433 1.250
119.9735 1.875
120.0038 1.719
