'Id: "" Comment: "" Operator: "Lab Manager" Anode: "Cu" Scantype: "Locked Coupled" TimePerStep: "19.2" X: "9999" Y: "9999" Z: "9999" 
10.0015 197.031
10.0318 205.573
10.0620 201.719
10.0923 198.021
10.1226 190.573
10.1529 181.979
10.1832 185.052
10.2134 175.000
10.2437 173.802
10.2740 164.740
10.3043 159.115
10.3346 162.396
10.3648 161.094
10.3951 147.187
10.4254 144.948
10.4557 143.177
10.4859 128.333
10.5162 131.250
10.5465 127.187
10.5768 119.635
10.6071 113.437
10.6373 109.479
10.6676 104.583
10.6979 102.656
10.7282 98.229
10.7585 93.125
10.7887 85.625
10.8190 84.844
10.8493 81.146
10.8796 73.698
10.9098 80.521
10.9401 72.760
10.9704 70.052
11.0007 69.635
11.0310 65.000
11.0612 65.469
11.0915 62.917
11.1218 61.354
11.1521 59.062
11.1824 59.115
11.2126 58.958
11.2429 60.937
11.2732 62.031
11.3035 67.917
11.3337 74.271
11.3640 88.594
11.3943 102.187
11.4246 130.990
11.4549 146.198
11.4851 124.740
11.5154 81.875
11.5457 62.865
11.5760 50.573
11.6063 48.854
11.6365 47.448
11.6668 44.375
11.6971 45.104
11.7274 40.417
11.7577 39.375
11.7879 40.833
11.8182 38.177
11.8485 35.677
11.8788 36.146
11.9090 36.458
11.9393 34.948
11.9696 34.062
11.9999 34.687
12.0302 32.917
12.0604 30.990
12.0907 31.250
12.1210 31.354
12.1513 30.417
12.1816 29.844
12.2118 26.667
12.2421 27.500
12.2724 27.187
12.3027 26.250
12.3329 24.531
12.3632 24.323
12.3935 22.396
12.4238 25.052
12.4541 23.854
12.4843 23.021
12.5146 22.812
12.5449 22.448
12.5752 20.469
12.6055 21.562
12.6357 21.198
12.6660 21.302
12.6963 20.573
12.7266 21.354
12.7568 20.573
12.7871 18.177
12.8174 21.042
12.8477 20.156
12.8780 19.792
12.9082 17.760
12.9385 19.062
12.9688 19.375
12.9991 17.135
13.0294 19.323
13.0596 16.719
13.0899 18.385
13.1202 19.323
13.1505 18.750
13.1807 16.302
13.2110 15.573
13.2413 14.375
13.2716 17.083
13.3019 16.823
13.3321 16.458
13.3624 16.979
13.3927 16.875
13.4230 17.240
13.4533 16.198
13.4835 15.521
13.5138 16.406
13.5441 16.823
13.5744 16.562
13.6046 17.292
13.6349 16.354
13.6652 17.187
13.6955 17.552
13.7258 15.729
13.7560 16.823
13.7863 16.719
13.8166 17.656
13.8469 17.135
13.8772 16.458
13.9074 16.823
13.9377 17.292
13.9680 16.094
13.9983 14.792
14.0285 16.823
14.0588 17.812
14.0891 19.375
14.1194 18.021
14.1497 16.458
14.1799 18.385
14.2102 18.958
14.2405 18.333
14.2708 16.771
14.3011 17.500
14.3313 17.604
14.3616 18.542
14.3919 18.333
14.4222 19.896
14.4524 19.844
14.4827 18.802
14.5130 18.125
14.5433 19.115
14.5736 19.479
14.6038 20.312
14.6341 20.260
14.6644 20.677
14.6947 18.594
14.7250 23.802
14.7552 20.833
14.7855 21.771
14.8158 21.823
14.8461 23.229
14.8764 21.302
14.9066 18.698
14.9369 24.635
14.9672 22.344
14.9975 21.146
15.0277 25.156
15.0580 23.594
15.0883 23.385
15.1186 24.062
15.1489 24.323
15.1791 24.323
15.2094 23.490
15.2397 22.604
15.2700 24.583
15.3003 23.698
15.3305 25.677
15.3608 24.635
15.3911 24.427
15.4214 24.427
15.4516 24.583
15.4819 24.844
15.5122 25.937
15.5425 24.583
15.5728 25.677
15.6030 22.396
15.6333 23.385
15.6636 24.115
15.6939 23.802
15.7242 22.552
15.7544 21.615
15.7847 21.979
15.8150 23.125
15.8453 20.990
15.8755 21.094
15.9058 21.510
15.9361 22.187
15.9664 21.458
15.9967 22.552
16.0269 22.083
16.0572 21.094
16.0875 20.417
16.1178 19.219
16.1481 17.396
16.1783 19.427
16.2086 19.323
16.2389 18.073
16.2692 18.490
16.2994 17.344
16.3297 17.448
16.3600 16.875
16.3903 18.177
16.4206 17.292
16.4508 17.135
16.4811 17.552
16.5114 19.271
16.5417 18.177
16.5720 17.552
16.6022 15.573
16.6325 15.833
16.6628 16.510
16.6931 17.396
16.7233 15.885
16.7536 16.458
16.7839 16.510
16.8142 15.104
16.8445 15.104
16.8747 16.094
16.9050 14.427
16.9353 15.521
16.9656 15.260
16.9959 16.146
17.0261 15.833
17.0564 14.010
17.0867 16.198
17.1170 15.156
17.1472 15.469
17.1775 16.823
17.2078 15.208
17.2381 13.594
17.2684 16.458
17.2986 13.958
17.3289 15.104
17.3592 13.750
17.3895 13.802
17.4198 14.167
17.4500 14.167
17.4803 13.646
17.5106 14.479
17.5409 12.708
17.5712 13.698
17.6014 14.219
17.6317 14.844
17.6620 13.073
17.6923 12.917
17.7225 12.865
17.7528 13.437
17.7831 15.365
17.8134 12.604
17.8437 14.687
17.8739 13.437
17.9042 15.469
17.9345 13.698
17.9648 15.885
17.9951 15.937
18.0253 13.437
18.0556 14.635
18.0859 15.885
18.1162 13.906
18.1464 14.792
18.1767 14.948
18.2070 15.990
18.2373 13.802
18.2676 15.052
18.2978 16.719
18.3281 16.979
18.3584 16.354
18.3887 16.354
18.4190 17.604
18.4492 17.552
18.4795 17.604
18.5098 16.615
18.5401 18.490
18.5703 19.375
18.6006 18.021
18.6309 20.990
18.6612 19.375
18.6915 20.625
18.7217 18.854
18.7520 23.385
18.7823 18.854
18.8126 17.500
18.8429 19.740
18.8731 19.948
18.9034 20.052
18.9337 17.396
18.9640 16.771
18.9942 18.333
19.0245 17.604
19.0548 17.656
19.0851 17.656
19.1154 15.365
19.1456 14.844
19.1759 16.510
19.2062 17.448
19.2365 15.208
19.2668 14.740
19.2970 14.271
19.3273 12.812
19.3576 12.865
19.3879 10.729
19.4181 12.448
19.4484 10.573
19.4787 12.656
19.5090 11.823
19.5393 11.771
19.5695 9.323
19.5998 11.458
19.6301 10.833
19.6604 11.146
19.6907 10.365
19.7209 9.583
19.7512 8.594
19.7815 8.802
19.8118 9.740
19.8420 8.073
19.8723 8.437
19.9026 9.219
19.9329 9.010
19.9632 8.073
19.9934 7.760
20.0237 7.552
20.0540 8.854
20.0843 8.021
20.1146 8.542
20.1448 6.562
20.1751 7.969
20.2054 7.448
20.2357 8.229
20.2659 6.562
20.2962 6.927
20.3265 7.083
20.3568 7.917
20.3871 5.573
20.4173 5.521
20.4476 6.042
20.4779 7.708
20.5082 7.031
20.5385 6.510
20.5687 6.615
20.5990 5.677
20.6293 6.146
20.6596 6.667
20.6899 5.990
20.7201 6.823
20.7504 5.625
20.7807 6.198
20.8110 6.406
20.8412 5.417
20.8715 5.990
20.9018 5.990
20.9321 5.990
20.9624 5.729
20.9926 5.729
21.0229 5.208
21.0532 5.937
21.0835 6.979
21.1138 5.729
21.1440 7.083
21.1743 8.021
21.2046 6.562
21.2349 6.458
21.2651 7.500
21.2954 6.719
21.3257 6.562
21.3560 6.458
21.3863 6.198
21.4165 6.198
21.4468 5.885
21.4771 5.521
21.5074 3.854
21.5377 5.104
21.5679 5.677
21.5982 6.562
21.6285 5.156
21.6588 6.250
21.6890 5.937
21.7193 5.937
21.7496 5.000
21.7799 5.104
21.8102 6.250
21.8404 4.583
21.8707 5.156
21.9010 5.833
21.9313 6.146
21.9616 5.990
21.9918 5.990
22.0221 6.094
22.0524 4.896
22.0827 5.625
22.1129 4.948
22.1432 6.458
22.1735 5.573
22.2038 6.042
22.2341 4.531
22.2643 6.146
22.2946 5.729
22.3249 5.469
22.3552 4.792
22.3855 5.521
22.4157 5.052
22.4460 5.885
22.4763 6.823
22.5066 5.677
22.5368 4.792
22.5671 5.937
22.5974 5.729
22.6277 4.375
22.6580 6.042
22.6882 5.521
22.7185 6.042
22.7488 5.885
22.7791 6.771
22.8094 6.042
22.8396 5.885
22.8699 6.198
22.9002 5.833
22.9305 5.208
22.9607 6.771
22.9910 6.146
23.0213 6.927
23.0516 6.302
23.0819 9.167
23.1121 12.344
23.1424 20.000
23.1727 19.531
23.2030 18.333
23.2333 15.365
23.2635 11.667
23.2938 8.281
23.3241 6.875
23.3544 7.760
23.3846 6.042
23.4149 7.760
23.4452 7.656
23.4755 7.552
23.5058 7.865
23.5360 8.385
23.5663 8.542
23.5966 7.187
23.6269 7.187
23.6572 6.458
23.6874 8.125
23.7177 7.760
23.7480 6.562
23.7783 7.708
23.8086 8.698
23.8388 8.646
23.8691 7.292
23.8994 7.292
23.9297 7.604
23.9599 8.542
23.9902 8.698
24.0205 7.969
24.0508 7.604
24.0811 10.365
24.1113 8.594
24.1416 9.219
24.1719 8.385
24.2022 10.833
24.2325 9.583
24.2627 10.885
24.2930 10.833
24.3233 10.573
24.3536 10.052
24.3838 11.198
24.4141 12.448
24.4444 10.521
24.4747 10.781
24.5050 11.771
24.5352 11.042
24.5655 11.562
24.5958 10.885
24.6261 11.406
24.6564 11.979
24.6866 11.562
24.7169 12.865
24.7472 12.396
24.7775 13.437
24.8077 11.146
24.8380 11.927
24.8683 13.594
24.8986 13.698
24.9289 13.698
24.9591 13.437
24.9894 14.271
25.0197 14.792
25.0500 15.365
25.0803 15.625
25.1105 14.062
25.1408 15.365
25.1711 14.479
25.2014 16.302
25.2316 16.354
25.2619 16.042
25.2922 16.771
25.3225 15.729
25.3528 16.042
25.3830 15.365
25.4133 15.573
25.4436 18.125
25.4739 20.104
25.5042 19.896
25.5344 15.417
25.5647 18.490
25.5950 17.344
25.6253 18.385
25.6555 19.427
25.6858 16.302
25.7161 17.396
25.7464 15.937
25.7767 17.031
25.8069 17.240
25.8372 16.667
25.8675 16.615
25.8978 15.104
25.9281 16.927
25.9583 17.135
25.9886 15.833
26.0189 14.687
26.0492 15.260
26.0794 14.896
26.1097 14.167
26.1400 14.479
26.1703 15.677
26.2006 15.937
26.2308 16.302
26.2611 22.083
26.2914 22.031
26.3217 20.312
26.3520 21.354
26.3822 16.250
26.4125 16.146
26.4428 15.781
26.4731 15.208
26.5034 15.677
26.5336 15.573
26.5639 12.240
26.5942 15.104
26.6245 15.052
26.6547 15.625
26.6850 15.312
26.7153 17.031
26.7456 16.250
26.7759 14.427
26.8061 17.552
26.8364 15.990
26.8667 18.854
26.8970 18.802
26.9273 17.760
26.9575 17.865
26.9878 18.073
27.0181 17.708
27.0484 17.812
27.0786 16.510
27.1089 19.479
27.1392 16.979
27.1695 18.802
27.1998 17.760
27.2300 16.823
27.2603 17.760
27.2906 18.229
27.3209 17.760
27.3512 19.219
27.3814 17.917
27.4117 17.760
27.4420 17.240
27.4723 17.031
27.5025 17.552
27.5328 19.583
27.5631 17.240
27.5934 19.062
27.6237 20.208
27.6539 19.219
27.6842 19.687
27.7145 17.917
27.7448 19.531
27.7751 16.302
27.8053 22.083
27.8356 18.542
27.8659 18.073
27.8962 20.677
27.9264 19.115
27.9567 19.010
27.9870 22.865
28.0173 22.135
28.0476 20.885
28.0778 21.406
28.1081 20.677
28.1384 18.490
28.1687 18.594
28.1990 20.677
28.2292 20.573
28.2595 20.625
28.2898 20.312
28.3201 18.542
28.3503 18.385
28.3806 19.896
28.4109 17.917
28.4412 19.115
28.4715 17.656
28.5017 18.021
28.5320 16.771
28.5623 16.875
28.5926 18.854
28.6229 17.396
28.6531 16.354
28.6834 15.573
28.7137 15.990
28.7440 14.635
28.7742 14.219
28.8045 12.292
28.8348 13.698
28.8651 12.969
28.8954 13.437
28.9256 11.927
28.9559 13.385
28.9862 12.865
29.0165 11.458
29.0468 10.104
29.0770 10.417
29.1073 9.219
29.1376 9.635
29.1679 10.312
29.1981 9.479
29.2284 9.531
29.2587 8.906
29.2890 8.437
29.3193 9.896
29.3495 9.583
29.3798 7.865
29.4101 7.760
29.4404 8.802
29.4707 8.073
29.5009 6.771
29.5312 8.021
29.5615 7.552
29.5918 7.292
29.6221 7.240
29.6523 7.917
29.6826 6.823
29.7129 6.771
29.7432 5.833
29.7734 6.458
29.8037 6.562
29.8340 5.625
29.8643 5.625
29.8946 5.573
29.9248 6.094
29.9551 6.094
29.9854 5.885
30.0157 5.625
30.0460 6.667
30.0762 5.000
30.1065 5.521
30.1368 5.417
30.1671 5.104
30.1973 5.833
30.2276 6.198
30.2579 5.625
30.2882 5.990
30.3185 6.042
30.3487 5.625
30.3790 5.312
30.4093 5.521
30.4396 5.677
30.4699 5.573
30.5001 5.312
30.5304 5.208
30.5607 5.937
30.5910 5.156
30.6212 4.844
30.6515 5.156
30.6818 4.792
30.7121 5.365
30.7424 5.521
30.7726 5.417
30.8029 5.833
30.8332 5.573
30.8635 6.354
30.8938 5.208
30.9240 5.104
30.9543 5.052
30.9846 5.677
31.0149 6.302
31.0451 6.250
31.0754 4.948
31.1057 5.417
31.1360 4.687
31.1663 5.000
31.1965 4.427
31.2268 5.000
31.2571 5.312
31.2874 5.833
31.3177 5.208
31.3479 4.479
31.3782 4.740
31.4085 4.792
31.4388 5.365
31.4690 4.635
31.4993 4.792
31.5296 4.896
31.5599 4.635
31.5902 5.417
31.6204 5.573
31.6507 6.198
31.6810 5.469
31.7113 5.833
31.7416 5.781
31.7718 5.833
31.8021 4.687
31.8324 5.104
31.8627 4.323
31.8929 5.000
31.9232 4.219
31.9535 4.115
31.9838 4.479
32.0141 4.531
32.0443 5.000
32.0746 4.635
32.1049 3.802
32.1352 3.750
32.1655 3.802
32.1957 5.000
32.2260 3.802
32.2563 4.844
32.2866 4.062
32.3169 4.531
32.3471 3.698
32.3774 3.646
32.4077 4.375
32.4380 4.219
32.4682 4.948
32.4985 4.635
32.5288 5.208
32.5591 5.000
32.5894 5.312
32.6196 5.208
32.6499 6.615
32.6802 6.354
32.7105 6.615
32.7408 6.823
32.7710 7.917
32.8013 6.354
32.8316 6.719
32.8619 5.729
32.8921 5.469
32.9224 5.885
32.9527 4.427
32.9830 4.531
33.0133 4.687
33.0435 4.219
33.0738 4.896
33.1041 4.531
33.1344 3.750
33.1647 4.323
33.1949 5.000
33.2252 2.917
33.2555 5.312
33.2858 4.583
33.3160 4.010
33.3463 4.271
33.3766 3.229
33.4069 4.531
33.4372 3.750
33.4674 3.854
33.4977 3.698
33.5280 3.385
33.5583 3.646
33.5886 3.646
33.6188 3.437
33.6491 3.750
33.6794 4.375
33.7097 4.427
33.7399 3.646
33.7702 4.167
33.8005 3.073
33.8308 3.750
33.8611 4.219
33.8913 3.490
33.9216 3.437
33.9519 2.969
33.9822 3.802
34.0125 4.635
34.0427 4.115
34.0730 4.740
34.1033 4.948
34.1336 5.156
34.1638 4.219
34.1941 4.427
34.2244 3.698
34.2547 4.010
34.2850 4.323
34.3152 3.333
34.3455 4.375
34.3758 4.167
34.4061 4.896
34.4364 3.750
34.4666 3.906
34.4969 3.854
34.5272 3.646
34.5575 3.750
34.5877 3.490
34.6180 3.437
34.6483 3.437
34.6786 3.802
34.7089 3.802
34.7391 4.115
34.7694 3.802
34.7997 4.479
34.8300 6.615
34.8603 5.781
34.8905 4.948
34.9208 5.885
34.9511 4.896
34.9814 3.698
35.0116 5.052
35.0419 3.490
35.0722 4.271
35.1025 4.427
35.1328 3.906
35.1630 3.854
35.1933 3.490
35.2236 4.375
35.2539 3.333
35.2842 3.906
35.3144 4.583
35.3447 4.219
35.3750 4.531
35.4053 4.115
35.4356 3.698
35.4658 4.792
35.4961 4.635
35.5264 5.052
35.5567 4.323
35.5869 4.583
35.6172 4.687
35.6475 5.156
35.6778 4.792
35.7081 4.896
35.7383 5.573
35.7686 5.365
35.7989 5.521
35.8292 5.469
35.8595 5.885
35.8897 5.260
35.9200 4.792
35.9503 5.885
35.9806 5.781
36.0108 5.781
36.0411 4.896
36.0714 5.000
36.1017 5.469
36.1320 4.844
36.1622 5.365
36.1925 5.000
36.2228 5.104
36.2531 5.677
36.2834 4.583
36.3136 5.156
36.3439 5.208
36.3742 4.323
36.4045 4.635
36.4347 3.802
36.4650 4.062
36.4953 4.427
36.5256 4.792
36.5559 4.062
36.5861 5.104
36.6164 5.104
36.6467 4.375
36.6770 4.323
36.7073 5.104
36.7375 4.375
36.7678 4.687
36.7981 4.375
36.8284 4.740
36.8586 4.531
36.8889 3.437
36.9192 3.958
36.9495 3.906
36.9798 4.219
37.0100 3.854
37.0403 4.531
37.0706 3.437
37.1009 4.062
37.1312 4.271
37.1614 4.531
37.1917 4.948
37.2220 4.219
37.2523 4.062
37.2825 5.000
37.3128 5.260
37.3431 5.781
37.3734 4.844
37.4037 5.365
37.4339 5.469
37.4642 5.365
37.4945 4.635
37.5248 4.427
37.5551 4.010
37.5853 4.167
37.6156 3.437
37.6459 5.156
37.6762 5.208
37.7064 4.062
37.7367 4.010
37.7670 4.323
37.7973 4.687
37.8276 5.000
37.8578 3.333
37.8881 4.062
37.9184 4.583
37.9487 3.906
37.9790 3.906
38.0092 3.906
38.0395 3.958
38.0698 3.958
38.1001 3.542
38.1304 3.437
38.1606 4.062
38.1909 3.490
38.2212 4.323
38.2515 3.958
38.2817 4.010
38.3120 3.646
38.3423 4.115
38.3726 3.333
38.4029 3.385
38.4331 4.583
38.4634 2.812
38.4937 3.437
38.5240 3.750
38.5543 2.917
38.5845 2.604
38.6148 2.865
38.6451 3.490
38.6754 3.333
38.7056 2.812
38.7359 3.125
38.7662 3.073
38.7965 2.760
38.8268 2.760
38.8570 3.958
38.8873 3.125
38.9176 3.073
38.9479 1.875
38.9782 2.708
39.0084 2.865
39.0387 2.812
39.0690 2.500
39.0993 2.708
39.1295 2.812
39.1598 2.292
39.1901 2.240
39.2204 2.865
39.2507 2.969
39.2809 2.760
39.3112 2.708
39.3415 2.396
39.3718 2.500
39.4021 3.385
39.4323 2.187
39.4626 2.917
39.4929 3.437
39.5232 2.396
39.5534 1.979
39.5837 2.812
39.6140 2.969
39.6443 2.812
39.6746 2.344
39.7048 2.500
39.7351 2.448
39.7654 2.500
39.7957 3.125
39.8260 2.396
39.8562 2.656
39.8865 2.708
39.9168 3.073
39.9471 3.437
39.9773 2.552
40.0076 2.604
40.0379 2.812
40.0682 2.812
40.0985 2.708
40.1287 2.708
40.1590 2.812
40.1893 3.281
40.2196 2.969
40.2499 2.396
40.2801 2.917
40.3104 2.656
40.3407 2.448
40.3710 2.708
40.4012 3.177
40.4315 3.333
40.4618 2.865
40.4921 3.542
40.5224 2.865
40.5526 4.323
40.5829 4.583
40.6132 3.698
40.6435 3.385
40.6738 3.021
40.7040 4.115
40.7343 3.125
40.7646 3.125
40.7949 2.812
40.8251 2.917
40.8554 2.292
40.8857 2.448
40.9160 2.865
40.9463 2.552
40.9765 2.812
41.0068 2.344
41.0371 3.594
41.0674 2.083
41.0977 3.542
41.1279 2.969
41.1582 3.333
41.1885 3.594
41.2188 2.969
41.2491 3.802
41.2793 2.656
41.3096 3.594
41.3399 2.969
41.3702 2.448
41.4004 2.500
41.4307 3.281
41.4610 3.229
41.4913 2.865
41.5216 2.969
41.5518 3.125
41.5821 2.448
41.6124 3.281
41.6427 3.281
41.6730 3.281
41.7032 2.865
41.7335 2.917
41.7638 2.760
41.7941 3.229
41.8243 2.448
41.8546 2.604
41.8849 3.594
41.9152 3.333
41.9455 2.500
41.9757 1.979
42.0060 3.229
42.0363 3.177
42.0666 2.760
42.0969 2.917
42.1271 3.073
42.1574 3.125
42.1877 3.281
42.2180 2.708
42.2482 3.177
42.2785 2.500
42.3088 1.979
42.3391 1.719
42.3694 2.969
42.3996 2.760
42.4299 3.073
42.4602 2.448
42.4905 2.812
42.5208 2.292
42.5510 2.292
42.5813 3.021
42.6116 2.240
42.6419 2.500
42.6721 2.604
42.7024 2.552
42.7327 2.448
42.7630 1.979
42.7933 2.604
42.8235 2.500
42.8538 2.344
42.8841 2.240
42.9144 2.135
42.9447 2.292
42.9749 2.344
43.0052 2.448
43.0355 1.771
43.0658 2.135
43.0960 1.927
43.1263 3.073
43.1566 3.073
43.1869 1.771
43.2172 2.187
43.2474 2.865
43.2777 2.344
43.3080 2.292
43.3383 1.927
43.3686 2.708
43.3988 2.292
43.4291 1.927
43.4594 2.448
43.4897 2.240
43.5199 2.865
43.5502 2.448
43.5805 1.667
43.6108 1.562
43.6411 1.875
43.6713 2.760
43.7016 2.187
43.7319 2.083
43.7622 2.812
43.7925 1.719
43.8227 3.073
43.8530 2.396
43.8833 1.823
43.9136 2.187
43.9439 2.292
43.9741 2.448
44.0044 1.927
44.0347 1.979
44.0650 2.083
44.0952 2.396
44.1255 2.396
44.1558 2.969
44.1861 2.396
44.2164 2.552
44.2466 2.187
44.2769 2.917
44.3072 2.344
44.3375 2.031
44.3678 2.969
44.3980 2.708
44.4283 2.396
44.4586 3.281
44.4889 2.917
44.5191 3.125
44.5494 2.500
44.5797 2.240
44.6100 3.125
44.6403 3.073
44.6705 2.604
44.7008 2.812
44.7311 2.083
44.7614 2.812
44.7917 3.073
44.8219 1.823
44.8522 2.760
44.8825 2.812
44.9128 1.823
44.9430 2.552
44.9733 1.875
45.0036 1.927
45.0339 2.969
45.0642 2.917
45.0944 2.760
45.1247 2.812
45.1550 2.760
45.1853 2.812
45.2156 2.552
45.2458 2.292
45.2761 2.448
45.3064 2.812
45.3367 2.812
45.3669 2.760
45.3972 2.083
45.4275 2.344
45.4578 2.448
45.4881 2.396
45.5183 2.031
45.5486 2.708
45.5789 2.448
45.6092 2.656
45.6395 3.073
45.6697 3.229
45.7000 2.135
45.7303 2.656
45.7606 3.073
45.7908 2.292
45.8211 2.292
45.8514 2.708
45.8817 2.448
45.9120 2.656
45.9422 2.969
45.9725 2.760
46.0028 2.500
46.0331 2.240
46.0634 2.604
46.0936 2.604
46.1239 1.823
46.1542 3.125
46.1845 2.604
46.2147 2.135
46.2450 2.292
46.2753 2.760
46.3056 2.448
46.3359 2.552
46.3661 2.448
46.3964 2.552
46.4267 2.344
46.4570 2.604
46.4873 2.396
46.5175 2.448
46.5478 2.865
46.5781 2.292
46.6084 2.708
46.6386 2.812
46.6689 2.292
46.6992 2.552
46.7295 2.656
46.7598 2.031
46.7900 2.656
46.8203 3.073
46.8506 2.083
46.8809 3.021
46.9112 2.292
46.9414 2.656
46.9717 2.708
47.0020 2.708
47.0323 2.240
47.0626 2.917
47.0928 2.760
47.1231 2.187
47.1534 2.448
47.1837 3.490
47.2139 3.073
47.2442 2.917
47.2745 2.656
47.3048 2.604
47.3351 3.437
47.3653 2.812
47.3956 3.073
47.4259 3.542
47.4562 3.646
47.4865 4.427
47.5167 5.260
47.5470 4.323
47.5773 4.531
47.6076 4.323
47.6378 4.323
47.6681 4.062
47.6984 3.333
47.7287 2.708
47.7590 2.969
47.7892 3.490
47.8195 3.333
47.8498 2.917
47.8801 3.594
47.9104 3.854
47.9406 3.281
47.9709 3.385
48.0012 3.594
48.0315 3.281
48.0617 2.448
48.0920 2.969
48.1223 3.021
48.1526 3.646
48.1829 3.125
48.2131 2.760
48.2434 3.385
48.2737 3.073
48.3040 3.542
48.3343 3.594
48.3645 4.010
48.3948 3.385
48.4251 3.177
48.4554 4.115
48.4856 3.333
48.5159 2.500
48.5462 4.010
48.5765 3.385
48.6068 4.062
48.6370 3.958
48.6673 3.698
48.6976 4.687
48.7279 4.167
48.7582 4.531
48.7884 4.740
48.8187 5.208
48.8490 6.250
48.8793 5.469
48.9095 5.260
48.9398 5.469
48.9701 5.052
49.0004 5.260
49.0307 4.479
49.0609 4.427
49.0912 3.958
49.1215 5.208
49.1518 3.906
49.1821 4.948
49.2123 3.906
49.2426 4.167
49.2729 4.583
49.3032 4.115
49.3334 4.792
49.3637 4.896
49.3940 4.740
49.4243 4.271
49.4546 4.896
49.4848 3.854
49.5151 5.260
49.5454 3.594
49.5757 3.906
49.6060 3.698
49.6362 4.375
49.6665 3.750
49.6968 4.062
49.7271 4.740
49.7574 4.427
49.7876 4.583
49.8179 3.646
49.8482 4.583
49.8785 4.844
49.9087 4.062
49.9390 4.687
49.9693 3.542
49.9996 4.635
50.0299 4.062
50.0601 4.062
50.0904 4.219
50.1207 3.854
50.1510 4.635
50.1813 4.115
50.2115 4.219
50.2418 4.062
50.2721 4.115
50.3024 3.750
50.3326 3.594
50.3629 4.896
50.3932 4.687
50.4235 4.583
50.4538 4.740
50.4840 4.010
50.5143 4.531
50.5446 4.062
50.5749 4.844
50.6052 4.948
50.6354 5.104
50.6657 4.844
50.6960 4.062
50.7263 4.427
50.7565 4.844
50.7868 4.740
50.8171 3.750
50.8474 3.958
50.8777 5.104
50.9079 4.375
50.9382 4.792
50.9685 4.583
50.9988 5.729
51.0291 4.167
51.0593 4.219
51.0896 5.000
51.1199 4.583
51.1502 5.573
51.1804 4.844
51.2107 4.740
51.2410 4.427
51.2713 4.375
51.3016 4.323
51.3318 4.740
51.3621 5.156
51.3924 4.583
51.4227 4.479
51.4530 5.052
51.4832 4.583
51.5135 5.052
51.5438 4.323
51.5741 4.010
51.6043 4.115
51.6346 4.948
51.6649 5.104
51.6952 3.802
51.7255 5.417
51.7557 4.167
51.7860 4.323
51.8163 4.948
51.8466 4.323
51.8769 5.104
51.9071 3.750
51.9374 3.750
51.9677 4.792
51.9980 4.167
52.0282 4.271
52.0585 5.000
52.0888 3.958
52.1191 4.531
52.1494 5.000
52.1796 3.906
52.2099 3.490
52.2402 3.750
52.2705 4.062
52.3008 4.219
52.3310 3.802
52.3613 3.333
52.3916 3.646
52.4219 3.698
52.4521 4.010
52.4824 3.802
52.5127 4.583
52.5430 3.437
52.5733 4.167
52.6035 4.010
52.6338 3.333
52.6641 3.594
52.6944 4.375
52.7247 3.906
52.7549 4.115
52.7852 3.698
52.8155 4.115
52.8458 3.750
52.8761 4.583
52.9063 3.490
52.9366 3.906
52.9669 4.427
52.9972 4.323
53.0274 3.333
53.0577 4.062
53.0880 3.333
53.1183 4.167
53.1486 3.229
53.1788 3.490
53.2091 3.125
53.2394 4.010
53.2697 3.385
53.3000 3.333
53.3302 4.427
53.3605 3.385
53.3908 3.437
53.4211 3.958
53.4513 3.281
53.4816 3.698
53.5119 3.177
53.5422 3.698
53.5725 3.906
53.6027 3.542
53.6330 3.698
53.6633 4.427
53.6936 3.542
53.7239 3.854
53.7541 3.542
53.7844 4.167
53.8147 3.125
53.8450 4.010
53.8752 3.333
53.9055 3.333
53.9358 3.750
53.9661 3.281
53.9964 2.969
54.0266 3.958
54.0569 3.177
54.0872 3.333
54.1175 4.010
54.1478 3.958
54.1780 3.854
54.2083 4.010
54.2386 3.958
54.2689 3.385
54.2991 3.125
54.3294 3.490
54.3597 3.177
54.3900 4.010
54.4203 3.906
54.4505 4.010
54.4808 2.969
54.5111 4.115
54.5414 4.167
54.5717 3.542
54.6019 3.646
54.6322 3.646
54.6625 3.490
54.6928 3.333
54.7230 3.698
54.7533 2.917
54.7836 3.958
54.8139 3.073
54.8442 4.167
54.8744 4.115
54.9047 3.229
54.9350 2.969
54.9653 3.750
54.9956 3.646
55.0258 3.177
55.0561 4.115
55.0864 4.323
55.1167 3.958
55.1469 3.750
55.1772 4.010
55.2075 4.479
55.2378 3.125
55.2681 4.010
55.2983 5.052
55.3286 3.906
55.3589 3.802
55.3892 4.115
55.4195 4.062
55.4497 4.323
55.4800 3.750
55.5103 3.542
55.5406 4.062
55.5709 3.906
55.6011 4.062
55.6314 3.750
55.6617 4.062
55.6920 3.750
55.7222 3.281
55.7525 3.906
55.7828 4.167
55.8131 3.281
55.8434 3.646
55.8736 3.750
55.9039 4.583
55.9342 3.021
55.9645 3.542
55.9948 3.229
56.0250 3.594
56.0553 3.021
56.0856 4.375
56.1159 2.917
56.1461 2.604
56.1764 3.490
56.2067 3.177
56.2370 2.656
56.2673 2.917
56.2975 2.865
56.3278 2.812
56.3581 2.552
56.3884 2.448
56.4187 2.500
56.4489 2.604
56.4792 1.927
56.5095 3.177
56.5398 3.021
56.5700 3.073
56.6003 2.708
56.6306 2.969
56.6609 2.969
56.6912 2.917
56.7214 2.083
56.7517 2.812
56.7820 2.083
56.8123 2.396
56.8426 2.292
56.8728 2.292
56.9031 2.396
56.9334 2.187
56.9637 2.292
56.9939 2.917
57.0242 3.021
57.0545 2.083
57.0848 2.396
57.1151 2.812
57.1453 2.812
57.1756 2.500
57.2059 2.344
57.2362 2.708
57.2665 2.604
57.2967 2.604
57.3270 2.292
57.3573 2.448
57.3876 2.083
57.4178 2.604
57.4481 2.187
57.4784 1.875
57.5087 2.187
57.5390 2.708
57.5692 2.344
57.5995 1.823
57.6298 2.187
57.6601 2.240
57.6904 3.229
57.7206 2.344
57.7509 2.656
57.7812 2.292
57.8115 2.552
57.8417 2.240
57.8720 2.396
57.9023 2.240
57.9326 2.292
57.9629 2.448
57.9931 3.073
58.0234 2.187
58.0537 3.125
58.0840 2.031
58.1143 2.240
58.1445 3.229
58.1748 2.812
58.2051 3.385
58.2354 3.333
58.2656 2.865
58.2959 2.865
58.3262 3.281
58.3565 2.969
58.3868 3.437
58.4170 3.333
58.4473 2.552
58.4776 2.812
58.5079 3.437
58.5382 3.021
58.5684 3.490
58.5987 3.281
58.6290 3.594
58.6593 2.865
58.6896 2.865
58.7198 2.760
58.7501 3.594
58.7804 3.854
58.8107 2.865
58.8409 2.552
58.8712 2.396
58.9015 3.229
58.9318 4.010
58.9621 3.750
58.9923 5.260
59.0226 4.479
59.0529 3.177
59.0832 4.167
59.1135 3.229
59.1437 4.271
59.1740 3.854
59.2043 3.385
59.2346 2.969
59.2648 3.021
59.2951 2.969
59.3254 2.552
59.3557 2.708
59.3860 3.437
59.4162 3.021
59.4465 2.448
59.4768 3.125
59.5071 3.646
59.5374 3.333
59.5676 3.021
59.5979 2.969
59.6282 3.125
59.6585 2.708
59.6887 3.281
59.7190 2.969
59.7493 3.281
59.7796 3.229
59.8099 2.552
59.8401 3.021
59.8704 2.760
59.9007 2.708
59.9310 3.281
59.9613 3.385
59.9915 3.177
60.0218 2.135
60.0521 2.500
60.0824 2.552
60.1126 3.229
60.1429 2.552
60.1732 2.969
60.2035 3.021
60.2338 3.125
60.2640 2.240
60.2943 2.708
60.3246 2.656
60.3549 2.969
60.3852 2.812
60.4154 2.500
60.4457 2.656
60.4760 3.125
60.5063 3.125
60.5365 2.708
60.5668 2.865
60.5971 3.490
60.6274 3.385
60.6577 2.552
60.6879 2.292
60.7182 2.604
60.7485 2.656
60.7788 2.448
60.8091 3.021
60.8393 1.510
60.8696 2.396
60.8999 2.396
60.9302 2.396
60.9604 2.969
60.9907 2.656
61.0210 2.240
61.0513 2.500
61.0816 2.500
61.1118 2.292
61.1421 2.083
61.1724 2.656
61.2027 2.760
61.2330 3.333
61.2632 2.240
61.2935 2.865
61.3238 2.083
61.3541 2.240
61.3844 2.344
61.4146 1.927
61.4449 2.969
61.4752 2.812
61.5055 2.708
61.5357 2.396
61.5660 2.396
61.5963 2.031
61.6266 2.187
61.6569 3.229
61.6871 2.240
61.7174 2.396
61.7477 2.031
61.7780 2.552
61.8083 3.490
61.8385 2.344
61.8688 3.073
61.8991 2.344
61.9294 2.083
61.9596 2.135
61.9899 2.500
62.0202 2.604
62.0505 2.656
62.0808 2.552
62.1110 2.500
62.1413 3.125
62.1716 2.135
62.2019 2.448
62.2322 2.865
62.2624 2.448
62.2927 2.396
62.3230 3.177
62.3533 2.708
62.3835 2.969
62.4138 2.656
62.4441 2.812
62.4744 3.021
62.5047 2.708
62.5349 2.604
62.5652 2.708
62.5955 2.552
62.6258 2.917
62.6561 3.333
62.6863 3.125
62.7166 2.760
62.7469 3.177
62.7772 2.552
62.8074 3.437
62.8377 2.969
62.8680 2.500
62.8983 2.812
62.9286 3.333
62.9588 2.812
62.9891 3.177
63.0194 3.281
63.0497 3.698
63.0800 3.229
63.1102 2.656
63.1405 3.333
63.1708 3.125
63.2011 3.750
63.2313 3.125
63.2616 3.542
63.2919 2.240
63.3222 3.906
63.3525 3.802
63.3827 3.750
63.4130 2.656
63.4433 2.812
63.4736 3.646
63.5039 3.698
63.5341 3.646
63.5644 2.812
63.5947 3.437
63.6250 3.073
63.6552 3.333
63.6855 3.385
63.7158 3.646
63.7461 3.385
63.7764 2.865
63.8066 2.917
63.8369 3.229
63.8672 3.750
63.8975 3.437
63.9278 3.437
63.9580 3.021
63.9883 3.698
64.0186 3.333
64.0489 3.646
64.0791 3.177
64.1094 3.594
64.1397 2.760
64.1700 3.125
64.2003 3.229
64.2305 2.500
64.2608 3.073
64.2911 3.542
64.3214 3.021
64.3517 3.021
64.3819 3.281
64.4122 3.229
64.4425 3.698
64.4728 2.865
64.5031 3.437
64.5333 2.812
64.5636 2.708
64.5939 2.917
64.6242 2.865
64.6544 3.385
64.6847 2.500
64.7150 2.552
64.7453 3.385
64.7756 3.229
64.8058 2.917
64.8361 2.760
64.8664 2.760
64.8967 2.604
64.9270 2.760
64.9572 2.240
64.9875 2.240
65.0178 2.240
65.0481 2.812
65.0783 2.552
65.1086 2.448
65.1389 2.031
65.1692 2.083
65.1995 2.552
65.2297 2.448
65.2600 1.823
65.2903 2.135
65.3206 2.448
65.3509 1.927
65.3811 2.500
65.4114 2.292
65.4417 2.240
65.4720 2.083
65.5022 2.865
65.5325 1.771
65.5628 1.719
65.5931 2.031
65.6234 1.927
65.6536 2.552
65.6839 1.667
65.7142 1.927
65.7445 1.979
65.7748 1.771
65.8050 2.240
65.8353 1.146
65.8656 1.875
65.8959 2.448
65.9261 2.292
65.9564 1.979
65.9867 2.031
66.0170 1.875
66.0473 2.083
66.0775 2.031
66.1078 1.771
66.1381 2.083
66.1684 1.927
66.1987 1.719
66.2289 1.042
66.2592 1.979
66.2895 1.875
66.3198 1.510
66.3500 1.719
66.3803 2.500
66.4106 1.771
66.4409 1.771
66.4712 1.615
66.5014 2.344
66.5317 1.719
66.5620 1.667
66.5923 1.719
66.6226 1.354
66.6528 1.875
66.6831 2.292
66.7134 1.302
66.7437 1.823
66.7739 1.667
66.8042 1.458
66.8345 1.406
66.8648 1.615
66.8951 1.719
66.9253 1.875
66.9556 1.719
66.9859 1.719
67.0162 1.562
67.0465 1.979
67.0767 1.823
67.1070 1.719
67.1373 1.771
67.1676 1.771
67.1978 1.250
67.2281 1.510
67.2584 1.667
67.2887 1.875
67.3190 1.146
67.3492 1.094
67.3795 1.562
67.4098 1.771
67.4401 1.667
67.4704 1.510
67.5006 1.615
67.5309 1.823
67.5612 1.250
67.5915 1.875
67.6218 2.344
67.6520 1.719
67.6823 1.615
67.7126 2.292
67.7429 1.719
67.7731 1.823
67.8034 1.667
67.8337 1.510
67.8640 1.615
67.8943 1.771
67.9245 1.875
67.9548 1.875
67.9851 2.344
68.0154 1.406
68.0457 1.615
68.0759 2.083
68.1062 1.198
68.1365 1.302
68.1668 2.031
68.1970 1.979
68.2273 2.552
68.2576 1.458
68.2879 1.250
68.3182 1.875
68.3484 1.615
68.3787 2.083
68.4090 2.031
68.4393 1.510
68.4696 1.354
68.4998 1.927
68.5301 1.771
68.5604 2.083
68.5907 1.823
68.6209 1.823
68.6512 1.771
68.6815 1.510
68.7118 1.823
68.7421 2.344
68.7723 2.031
68.8026 1.458
68.8329 1.771
68.8632 1.562
68.8935 1.979
68.9237 2.240
68.9540 1.615
68.9843 1.302
69.0146 1.979
69.0448 1.823
69.0751 2.031
69.1054 1.927
69.1357 1.823
69.1660 2.187
69.1962 1.667
69.2265 2.083
69.2568 2.135
69.2871 1.823
69.3174 1.771
69.3476 1.823
69.3779 1.562
69.4082 2.448
69.4385 1.615
69.4687 2.292
69.4990 1.719
69.5293 2.083
69.5596 1.875
69.5899 2.604
69.6201 1.771
69.6504 1.510
69.6807 2.031
69.7110 1.719
69.7413 2.344
69.7715 2.344
69.8018 1.719
69.8321 1.823
69.8624 1.562
69.8926 2.083
69.9229 1.875
69.9532 1.771
69.9835 1.719
70.0138 1.615
70.0440 1.875
70.0743 1.979
70.1046 1.771
70.1349 2.500
70.1652 2.448
70.1954 1.667
70.2257 1.719
70.2560 2.083
70.2863 2.292
70.3166 1.771
70.3468 2.344
70.3771 1.771
70.4074 1.875
70.4377 1.823
70.4679 2.396
70.4982 1.771
70.5285 2.135
70.5588 2.083
70.5891 2.240
70.6193 1.823
70.6496 2.135
70.6799 2.031
70.7102 2.448
70.7405 2.708
70.7707 2.552
70.8010 1.875
70.8313 1.458
70.8616 1.927
70.8918 2.292
70.9221 1.927
70.9524 1.250
70.9827 1.510
71.0130 1.927
71.0432 1.615
71.0735 1.719
71.1038 1.250
71.1341 1.719
71.1644 1.250
71.1946 2.031
71.2249 1.562
71.2552 2.187
71.2855 1.354
71.3157 1.302
71.3460 1.406
71.3763 1.771
71.4066 1.562
71.4369 1.562
71.4671 1.510
71.4974 1.406
71.5277 1.458
71.5580 1.927
71.5883 1.615
71.6185 1.771
71.6488 1.510
71.6791 1.927
71.7094 1.146
71.7396 1.458
71.7699 1.823
71.8002 1.979
71.8305 1.875
71.8608 1.667
71.8910 1.823
71.9213 1.823
71.9516 1.615
71.9819 1.146
72.0122 1.562
72.0424 1.719
72.0727 1.875
72.1030 1.615
72.1333 1.667
72.1635 1.771
72.1938 1.927
72.2241 1.562
72.2544 1.354
72.2847 1.562
72.3149 1.823
72.3452 1.667
72.3755 1.406
72.4058 1.562
72.4361 1.719
72.4663 1.198
72.4966 1.979
72.5269 2.031
72.5572 1.771
72.5874 1.979
72.6177 1.875
72.6480 1.510
72.6783 1.250
72.7086 2.187
72.7388 1.458
72.7691 1.823
72.7994 1.771
72.8297 1.927
72.8600 2.135
72.8902 1.719
72.9205 1.510
72.9508 1.667
72.9811 2.240
73.0113 1.302
73.0416 1.354
73.0719 1.250
73.1022 1.771
73.1325 2.031
73.1627 1.823
73.1930 1.615
73.2233 1.562
73.2536 1.615
73.2839 1.562
73.3141 1.510
73.3444 1.302
73.3747 1.771
73.4050 1.458
73.4353 1.719
73.4655 2.240
73.4958 2.031
73.5261 1.719
73.5564 1.875
73.5866 1.719
73.6169 2.240
73.6472 1.719
73.6775 1.979
73.7078 1.875
73.7380 1.458
73.7683 2.031
73.7986 2.292
73.8289 2.604
73.8592 1.927
73.8894 1.354
73.9197 1.042
73.9500 1.562
73.9803 1.823
74.0105 1.979
74.0408 1.771
74.0711 1.615
74.1014 1.979
74.1317 2.083
74.1619 1.823
74.1922 1.823
74.2225 1.823
74.2528 1.667
74.2831 1.510
74.3133 1.562
74.3436 1.615
74.3739 1.719
74.4042 2.396
74.4344 1.979
74.4647 2.135
74.4950 1.927
74.5253 1.771
74.5556 2.083
74.5858 2.187
74.6161 1.667
74.6464 1.458
74.6767 2.187
74.7070 1.719
74.7372 2.031
74.7675 1.979
74.7978 1.615
74.8281 1.979
74.8583 1.875
74.8886 2.187
74.9189 1.302
74.9492 1.615
74.9795 1.927
75.0097 1.927
75.0400 2.083
75.0703 1.719
75.1006 1.719
75.1309 1.823
75.1611 1.979
75.1914 1.719
75.2217 1.667
75.2520 1.771
75.2822 1.927
75.3125 2.031
75.3428 1.354
75.3731 1.771
75.4034 2.187
75.4336 1.667
75.4639 2.031
75.4942 2.031
75.5245 1.979
75.5548 1.615
75.5850 1.302
75.6153 2.292
75.6456 1.562
75.6759 1.979
75.7061 1.250
75.7364 1.250
75.7667 1.667
75.7970 1.667
75.8273 1.823
75.8575 1.667
75.8878 1.823
75.9181 1.562
75.9484 1.354
75.9787 1.667
76.0089 1.667
76.0392 1.406
76.0695 1.458
76.0998 2.187
76.1301 2.240
76.1603 1.510
76.1906 1.667
76.2209 2.083
76.2512 1.354
76.2814 1.875
76.3117 1.458
76.3420 1.198
76.3723 1.667
76.4026 1.667
76.4328 1.719
76.4631 1.719
76.4934 2.031
76.5237 2.083
76.5540 1.667
76.5842 1.562
76.6145 1.719
76.6448 1.667
76.6751 1.823
76.7053 1.979
76.7356 0.937
76.7659 1.667
76.7962 1.719
76.8265 0.990
76.8567 1.458
76.8870 1.823
76.9173 1.615
76.9476 1.354
76.9779 1.615
77.0081 2.240
77.0384 1.771
77.0687 1.615
77.0990 1.198
77.1292 1.458
77.1595 1.771
77.1898 1.302
77.2201 1.302
77.2504 1.406
77.2806 1.771
77.3109 1.406
77.3412 1.562
77.3715 1.823
77.4018 1.406
77.4320 1.406
77.4623 1.354
77.4926 1.667
77.5229 1.979
77.5531 1.771
77.5834 1.094
77.6137 1.510
77.6440 1.458
77.6743 1.510
77.7045 1.458
77.7348 1.927
77.7651 1.667
77.7954 1.198
77.8257 1.198
77.8559 1.823
77.8862 1.510
77.9165 1.667
77.9468 1.458
77.9770 1.146
78.0073 1.302
78.0376 1.875
78.0679 1.615
78.0982 1.354
78.1284 2.135
78.1587 1.667
78.1890 1.927
78.2193 1.927
78.2496 1.146
78.2798 1.615
78.3101 2.083
78.3404 1.302
78.3707 1.198
78.4009 1.458
78.4312 1.510
78.4615 1.979
78.4918 1.667
78.5221 2.031
78.5523 1.719
78.5826 1.615
78.6129 1.562
78.6432 1.146
78.6735 1.354
78.7037 1.198
78.7340 1.146
78.7643 2.292
78.7946 1.719
78.8248 1.615
78.8551 1.667
78.8854 1.146
78.9157 1.458
78.9460 1.510
78.9762 1.354
79.0065 1.823
79.0368 1.771
79.0671 1.667
79.0974 1.458
79.1276 1.198
79.1579 1.354
79.1882 1.667
79.2185 1.667
79.2488 1.510
79.2790 1.667
79.3093 1.615
79.3396 1.615
79.3699 1.771
79.4001 1.562
79.4304 1.667
79.4607 1.146
79.4910 1.562
79.5213 1.406
79.5515 1.510
79.5818 0.885
79.6121 1.042
79.6424 1.667
79.6727 0.990
79.7029 1.667
79.7332 1.771
79.7635 1.250
79.7938 1.719
79.8240 1.771
79.8543 1.927
79.8846 1.667
79.9149 1.771
79.9452 1.406
79.9754 1.927
80.0057 1.354
80.0360 1.198
80.0663 0.990
80.0966 1.667
80.1268 1.094
80.1571 1.667
80.1874 1.406
80.2177 1.406
80.2479 1.562
80.2782 1.615
80.3085 1.927
80.3388 1.667
80.3691 1.667
80.3993 1.719
80.4296 1.510
80.4599 1.458
80.4902 1.615
80.5205 1.198
80.5507 2.240
80.5810 1.823
80.6113 1.510
80.6416 1.042
80.6718 1.615
80.7021 1.354
80.7324 1.562
80.7627 1.562
80.7930 1.406
80.8232 1.771
80.8535 1.562
80.8838 2.292
80.9141 1.510
80.9444 1.562
80.9746 1.823
81.0049 1.406
81.0352 1.667
81.0655 1.667
81.0957 1.406
81.1260 1.719
81.1563 1.719
81.1866 1.667
81.2169 1.510
81.2471 1.302
81.2774 1.667
81.3077 1.927
81.3380 1.354
81.3683 1.198
81.3985 1.719
81.4288 1.250
81.4591 1.979
81.4894 1.667
81.5196 1.875
81.5499 1.406
81.5802 2.031
81.6105 1.250
81.6408 1.094
81.6710 1.406
81.7013 1.510
81.7316 1.094
81.7619 1.667
81.7922 1.458
81.8224 1.927
81.8527 1.146
81.8830 1.302
81.9133 1.458
81.9436 0.990
81.9738 1.406
82.0041 1.094
82.0344 1.562
82.0647 1.406
82.0949 1.302
82.1252 1.667
82.1555 1.198
82.1858 1.719
82.2161 1.510
82.2463 1.875
82.2766 1.667
82.3069 1.458
82.3372 1.667
82.3675 1.562
82.3977 1.771
82.4280 1.927
82.4583 2.135
82.4886 1.615
82.5188 1.615
82.5491 1.875
82.5794 1.615
82.6097 1.823
82.6400 1.667
82.6702 1.667
82.7005 1.979
82.7308 1.094
82.7611 2.135
82.7914 2.031
82.8216 1.875
82.8519 1.042
82.8822 1.823
82.9125 1.458
82.9427 1.198
82.9730 1.146
83.0033 1.094
83.0336 1.719
83.0639 1.302
83.0941 1.667
83.1244 1.302
83.1547 2.135
83.1850 1.458
83.2153 1.667
83.2455 1.510
83.2758 1.250
83.3061 1.562
83.3364 1.562
83.3666 1.354
83.3969 1.458
83.4272 1.510
83.4575 1.250
83.4878 1.667
83.5180 1.771
83.5483 1.198
83.5786 1.927
83.6089 1.406
83.6392 1.875
83.6694 1.562
83.6997 1.667
83.7300 1.198
83.7603 1.146
83.7905 1.615
83.8208 2.135
83.8511 1.510
83.8814 1.458
83.9117 1.875
83.9419 1.458
83.9722 1.667
84.0025 1.562
84.0328 1.354
84.0631 1.875
84.0933 1.198
84.1236 1.667
84.1539 1.198
84.1842 1.667
84.2144 1.354
84.2447 2.135
84.2750 1.042
84.3053 1.667
84.3356 1.667
84.3658 1.667
84.3961 1.354
84.4264 1.510
84.4567 1.615
84.4870 1.458
84.5172 1.979
84.5475 1.354
84.5778 1.406
84.6081 1.615
84.6383 1.667
84.6686 1.562
84.6989 1.667
84.7292 1.406
84.7595 2.083
84.7897 1.979
84.8200 1.198
84.8503 1.823
84.8806 1.302
84.9109 1.979
84.9411 1.510
84.9714 1.354
85.0017 2.187
85.0320 1.042
85.0623 1.823
85.0925 1.302
85.1228 1.667
85.1531 1.771
85.1834 1.510
85.2136 1.250
85.2439 1.562
85.2742 1.250
85.3045 1.562
85.3348 1.406
85.3650 1.667
85.3953 1.510
85.4256 0.625
85.4559 1.771
85.4862 1.042
85.5164 1.302
85.5467 1.667
85.5770 1.198
85.6073 1.667
85.6375 2.135
85.6678 1.510
85.6981 1.562
85.7284 1.562
85.7587 1.719
85.7889 1.198
85.8192 1.302
85.8495 1.198
85.8798 1.562
85.9101 1.302
85.9403 1.562
85.9706 1.667
86.0009 1.510
86.0312 1.719
86.0614 1.615
86.0917 1.615
86.1220 1.927
86.1523 1.510
86.1826 1.719
86.2128 1.562
86.2431 1.667
86.2734 1.667
86.3037 1.719
86.3340 1.615
86.3642 1.354
86.3945 1.615
86.4248 1.771
86.4551 1.771
86.4853 1.719
86.5156 1.458
86.5459 1.510
86.5762 1.823
86.6065 2.135
86.6367 1.771
86.6670 1.562
86.6973 1.615
86.7276 1.615
86.7579 1.719
86.7881 1.823
86.8184 2.083
86.8487 2.031
86.8790 1.719
86.9092 1.406
86.9395 1.510
86.9698 1.875
87.0001 1.562
87.0304 1.302
87.0606 1.979
87.0909 1.562
87.1212 1.667
87.1515 1.198
87.1818 1.094
87.2120 1.458
87.2423 1.250
87.2726 1.094
87.3029 1.250
87.3331 1.667
87.3634 1.406
87.3937 1.406
87.4240 1.510
87.4543 1.562
87.4845 1.562
87.5148 1.510
87.5451 2.187
87.5754 1.458
87.6057 2.031
87.6359 1.146
87.6662 1.562
87.6965 1.771
87.7268 1.406
87.7571 1.354
87.7873 1.823
87.8176 1.198
87.8479 2.031
87.8782 1.979
87.9084 1.406
87.9387 1.875
87.9690 1.510
87.9993 1.458
88.0296 1.667
88.0598 1.771
88.0901 1.823
88.1204 1.771
88.1507 1.406
88.1810 1.615
88.2112 1.719
88.2415 1.667
88.2718 1.458
88.3021 1.719
88.3323 1.510
88.3626 2.187
88.3929 1.510
88.4232 1.927
88.4535 1.198
88.4837 1.562
88.5140 1.771
88.5443 1.562
88.5746 1.406
88.6049 1.719
88.6351 1.198
88.6654 1.406
88.6957 1.510
88.7260 1.406
88.7562 1.302
88.7865 1.771
88.8168 1.979
88.8471 1.302
88.8774 1.562
88.9076 1.667
88.9379 1.302
88.9682 1.667
88.9985 1.771
89.0288 0.937
89.0590 1.458
89.0893 1.406
89.1196 1.719
89.1499 1.354
89.1801 1.562
89.2104 1.354
89.2407 1.667
89.2710 1.562
89.3013 0.833
89.3315 1.562
89.3618 1.510
89.3921 2.031
89.4224 1.354
89.4527 1.406
89.4829 1.667
89.5132 1.719
89.5435 0.990
89.5738 1.667
89.6040 1.615
89.6343 2.083
89.6646 1.354
89.6949 1.354
89.7252 1.094
89.7554 1.719
89.7857 1.458
89.8160 1.510
89.8463 0.937
89.8766 1.302
89.9068 1.615
89.9371 1.667
89.9674 1.146
89.9977 1.458
90.0279 0.990
90.0582 1.406
90.0885 1.406
90.1188 1.250
90.1491 0.990
90.1793 1.510
90.2096 1.458
90.2399 0.833
90.2702 1.250
90.3005 1.667
90.3307 1.667
90.3610 1.615
90.3913 1.250
90.4216 0.937
90.4518 1.094
90.4821 1.458
90.5124 0.885
90.5427 1.510
90.5730 1.823
90.6032 1.146
90.6335 1.198
90.6638 0.885
90.6941 1.198
90.7244 1.458
90.7546 0.990
90.7849 1.354
90.8152 1.302
90.8455 1.875
90.8758 1.771
90.9060 1.510
90.9363 1.146
90.9666 0.990
90.9969 1.562
91.0271 1.823
91.0574 1.979
91.0877 1.302
91.1180 2.240
91.1483 1.094
91.1785 1.146
91.2088 1.615
91.2391 1.458
91.2694 1.771
91.2997 0.781
91.3299 1.302
91.3602 1.302
91.3905 1.875
91.4208 2.135
91.4510 1.250
91.4813 1.719
91.5116 1.458
91.5419 1.250
91.5722 1.458
91.6024 1.250
91.6327 1.302
91.6630 1.094
91.6933 1.302
91.7236 1.146
91.7538 1.458
91.7841 1.250
91.8144 1.146
91.8447 1.615
91.8749 1.146
91.9052 1.406
91.9355 0.990
91.9658 0.937
91.9961 1.562
92.0263 1.250
92.0566 1.615
92.0869 0.833
92.1172 1.771
92.1475 1.458
92.1777 1.250
92.2080 1.719
92.2383 1.198
92.2686 1.719
92.2988 1.302
92.3291 1.510
92.3594 1.562
92.3897 1.146
92.4200 1.302
92.4502 2.135
92.4805 0.937
92.5108 1.510
92.5411 1.354
92.5714 1.302
92.6016 1.198
92.6319 1.458
92.6622 1.250
92.6925 1.562
92.7227 1.094
92.7530 1.510
92.7833 1.510
92.8136 1.406
92.8439 1.354
92.8741 1.354
92.9044 1.198
92.9347 1.198
92.9650 1.406
92.9953 1.771
93.0255 1.615
93.0558 1.198
93.0861 1.302
93.1164 1.302
93.1466 1.042
93.1769 1.406
93.2072 1.927
93.2375 1.406
93.2678 1.458
93.2980 1.510
93.3283 0.885
93.3586 1.198
93.3889 2.031
93.4192 1.510
93.4494 1.198
93.4797 1.927
93.5100 1.667
93.5403 1.198
93.5706 1.615
93.6008 1.406
93.6311 1.198
93.6614 1.406
93.6917 1.510
93.7219 1.198
93.7522 1.458
93.7825 0.885
93.8128 1.562
93.8431 1.302
93.8733 1.510
93.9036 1.250
93.9339 1.354
93.9642 0.729
93.9945 1.719
94.0247 1.458
94.0550 1.302
94.0853 1.458
94.1156 1.823
94.1458 1.146
94.1761 1.458
94.2064 1.719
94.2367 0.990
94.2670 0.833
94.2972 1.302
94.3275 0.885
94.3578 1.615
94.3881 1.198
94.4184 1.510
94.4486 1.406
94.4789 1.667
94.5092 1.510
94.5395 1.771
94.5697 1.562
94.6000 0.990
94.6303 1.198
94.6606 1.354
94.6909 1.615
94.7211 0.781
94.7514 1.042
94.7817 1.667
94.8120 1.042
94.8423 1.302
94.8725 1.406
94.9028 1.354
94.9331 1.406
94.9634 1.562
94.9936 0.937
95.0239 1.354
95.0542 0.885
95.0845 1.979
95.1148 1.250
95.1450 1.354
95.1753 1.719
95.2056 1.823
95.2359 1.250
95.2662 0.885
95.2964 1.510
95.3267 0.937
95.3570 1.250
95.3873 1.250
95.4175 1.302
95.4478 1.250
95.4781 1.510
95.5084 1.510
95.5387 1.250
95.5689 0.833
95.5992 1.615
95.6295 0.729
95.6598 1.562
95.6901 1.302
95.7203 1.198
95.7506 1.042
95.7809 1.510
95.8112 1.406
95.8414 1.562
95.8717 1.458
95.9020 1.094
95.9323 1.198
95.9626 1.250
95.9928 1.927
96.0231 1.042
96.0534 1.458
96.0837 0.833
96.1140 1.719
96.1442 1.250
96.1745 1.146
96.2048 1.250
96.2351 1.667
96.2653 1.250
96.2956 1.562
96.3259 1.719
96.3562 1.354
96.3865 1.250
96.4167 1.302
96.4470 1.667
96.4773 1.458
96.5076 1.510
96.5379 1.354
96.5681 1.562
96.5984 1.615
96.6287 1.042
96.6590 1.458
96.6893 1.667
96.7195 1.562
96.7498 1.562
96.7801 1.771
96.8104 1.302
96.8406 1.146
96.8709 1.667
96.9012 1.042
96.9315 1.302
96.9618 1.823
96.9920 1.406
97.0223 1.771
97.0526 1.562
97.0829 1.250
97.1132 1.667
97.1434 1.302
97.1737 1.719
97.2040 1.354
97.2343 1.719
97.2645 1.354
97.2948 1.354
97.3251 1.510
97.3554 0.990
97.3857 1.354
97.4159 1.406
97.4462 1.510
97.4765 1.562
97.5068 1.458
97.5371 1.042
97.5673 1.094
97.5976 1.406
97.6279 1.510
97.6582 1.302
97.6884 1.354
97.7187 1.354
97.7490 1.250
97.7793 1.302
97.8096 1.823
97.8398 1.667
97.8701 1.406
97.9004 0.990
97.9307 1.562
97.9610 1.458
97.9912 1.406
98.0215 1.198
98.0518 1.719
98.0821 1.927
98.1123 1.771
98.1426 1.458
98.1729 1.354
98.2032 1.250
98.2335 1.250
98.2637 1.198
98.2940 0.990
98.3243 1.406
98.3546 1.406
98.3849 1.562
98.4151 1.406
98.4454 1.250
98.4757 1.979
98.5060 1.406
98.5362 1.562
98.5665 1.562
98.5968 1.458
98.6271 0.937
98.6574 1.510
98.6876 1.198
98.7179 1.302
98.7482 1.771
98.7785 1.146
98.8088 1.667
98.8390 1.510
98.8693 1.042
98.8996 1.198
98.9299 1.198
98.9601 1.719
98.9904 1.302
99.0207 1.354
99.0510 1.302
99.0813 1.302
99.1115 1.250
99.1418 1.667
99.1721 1.302
99.2024 1.354
99.2327 1.510
99.2629 1.458
99.2932 1.146
99.3235 0.573
99.3538 1.198
99.3841 1.250
99.4143 1.198
99.4446 1.250
99.4749 1.510
99.5052 1.354
99.5354 1.510
99.5657 1.406
99.5960 1.406
99.6263 1.250
99.6566 1.458
99.6868 1.094
99.7171 1.719
99.7474 1.406
99.7777 1.146
99.8080 1.354
99.8382 1.510
99.8685 1.302
99.8988 1.042
99.9291 1.302
99.9593 1.354
99.9896 0.833
100.0199 1.354
100.0502 1.823
100.0805 1.094
100.1107 1.302
100.1410 1.250
100.1713 1.302
100.2016 1.719
100.2319 1.719
100.2621 1.302
100.2924 1.302
100.3227 1.302
100.3530 0.781
100.3832 1.719
100.4135 1.615
100.4438 1.354
100.4741 1.146
100.5044 1.094
100.5346 1.667
100.5649 1.250
100.5952 1.302
100.6255 1.823
100.6558 1.198
100.6860 0.990
100.7163 1.146
100.7466 1.719
100.7769 1.042
100.8071 1.562
100.8374 1.094
100.8677 1.406
100.8980 1.458
100.9283 0.990
100.9585 1.615
100.9888 1.458
101.0191 1.198
101.0494 1.458
101.0797 1.302
101.1099 1.250
101.1402 1.354
101.1705 0.885
101.2008 1.562
101.2310 1.042
101.2613 1.354
101.2916 1.354
101.3219 1.302
101.3522 1.198
101.3824 1.302
101.4127 1.458
101.4430 1.562
101.4733 2.083
101.5036 1.458
101.5338 1.146
101.5641 1.354
101.5944 1.406
101.6247 1.667
101.6549 1.094
101.6852 1.615
101.7155 2.031
101.7458 1.562
101.7761 1.302
101.8063 1.250
101.8366 1.146
101.8669 1.042
101.8972 1.406
101.9275 1.042
101.9577 1.198
101.9880 1.302
102.0183 1.354
102.0486 1.823
102.0788 1.302
102.1091 1.406
102.1394 1.094
102.1697 1.302
102.2000 1.406
102.2302 1.979
102.2605 1.510
102.2908 1.094
102.3211 1.510
102.3514 1.094
102.3816 1.146
102.4119 1.250
102.4422 1.354
102.4725 1.354
102.5028 1.979
102.5330 1.615
102.5633 1.510
102.5936 1.302
102.6239 1.198
102.6541 1.458
102.6844 1.458
102.7147 1.198
102.7450 1.250
102.7753 1.354
102.8055 1.302
102.8358 1.302
102.8661 1.458
102.8964 1.406
102.9267 1.458
102.9569 1.146
102.9872 1.354
103.0175 1.458
103.0478 1.146
103.0780 1.354
103.1083 1.458
103.1386 0.990
103.1689 0.990
103.1992 0.885
103.2294 1.250
103.2597 0.990
103.2900 1.146
103.3203 0.937
103.3506 1.458
103.3808 1.562
103.4111 1.094
103.4414 1.302
103.4717 1.354
103.5019 1.354
103.5322 0.937
103.5625 1.615
103.5928 1.250
103.6231 1.250
103.6533 1.094
103.6836 1.771
103.7139 1.354
103.7442 1.146
103.7745 1.042
103.8047 1.667
103.8350 1.354
103.8653 1.198
103.8956 1.458
103.9258 0.781
103.9561 1.302
103.9864 1.354
104.0167 1.406
104.0470 0.990
104.0772 1.927
104.1075 1.406
104.1378 1.771
104.1681 1.042
104.1984 1.458
104.2286 0.937
104.2589 1.510
104.2892 0.833
104.3195 1.094
104.3497 1.354
104.3800 1.094
104.4103 1.562
104.4406 1.406
104.4709 1.562
104.5011 1.042
104.5314 1.406
104.5617 1.094
104.5920 1.615
104.6223 1.406
104.6525 0.990
104.6828 1.042
104.7131 1.406
104.7434 1.406
104.7736 0.781
104.8039 1.510
104.8342 1.250
104.8645 1.615
104.8948 1.406
104.9250 1.198
104.9553 1.250
104.9856 1.406
105.0159 1.042
105.0462 1.406
105.0764 0.833
105.1067 1.510
105.1370 1.146
105.1673 1.146
105.1975 1.094
105.2278 1.094
105.2581 1.302
105.2884 1.146
105.3187 1.198
105.3489 1.458
105.3792 1.406
105.4095 1.198
105.4398 0.885
105.4701 1.250
105.5003 1.719
105.5306 1.406
105.5609 0.937
105.5912 1.198
105.6215 1.094
105.6517 1.719
105.6820 1.302
105.7123 1.094
105.7426 1.667
105.7728 1.302
105.8031 0.833
105.8334 1.042
105.8637 1.458
105.8940 1.042
105.9242 1.458
105.9545 1.354
105.9848 1.198
106.0151 1.458
106.0454 1.615
106.0756 1.302
106.1059 1.354
106.1362 1.198
106.1665 1.771
106.1967 1.406
106.2270 1.302
106.2573 1.458
106.2876 1.354
106.3179 1.302
106.3481 0.990
106.3784 0.885
106.4087 0.937
106.4390 1.510
106.4693 0.990
106.4995 1.615
106.5298 1.094
106.5601 1.042
106.5904 1.094
106.6206 1.406
106.6509 1.042
106.6812 1.302
106.7115 1.198
106.7418 1.458
106.7720 1.458
106.8023 1.094
106.8326 0.937
106.8629 0.990
106.8932 1.198
106.9234 1.354
106.9537 1.042
106.9840 0.990
107.0143 1.458
107.0445 1.198
107.0748 1.979
107.1051 1.094
107.1354 1.094
107.1657 1.406
107.1959 1.406
107.2262 0.990
107.2565 1.250
107.2868 1.406
107.3171 1.302
107.3473 1.250
107.3776 1.875
107.4079 1.719
107.4382 1.302
107.4684 1.354
107.4987 1.198
107.5290 1.146
107.5593 1.146
107.5896 1.094
107.6198 1.250
107.6501 1.823
107.6804 1.458
107.7107 1.094
107.7410 1.406
107.7712 0.729
107.8015 1.510
107.8318 0.990
107.8621 0.937
107.8923 1.146
107.9226 0.781
107.9529 1.146
107.9832 1.198
108.0135 0.937
108.0437 1.198
108.0740 1.615
108.1043 1.146
108.1346 1.042
108.1649 1.250
108.1951 1.510
108.2254 1.198
108.2557 1.250
108.2860 0.885
108.3163 1.510
108.3465 1.094
108.3768 1.510
108.4071 1.042
108.4374 1.979
108.4676 1.510
108.4979 1.771
108.5282 1.406
108.5585 1.250
108.5888 1.667
108.6190 1.719
108.6493 0.937
108.6796 1.094
108.7099 1.875
108.7402 1.146
108.7704 1.250
108.8007 1.354
108.8310 1.198
108.8613 1.146
108.8915 1.146
108.9218 1.094
108.9521 1.302
108.9824 1.146
109.0127 0.729
109.0429 0.990
109.0732 1.510
109.1035 1.146
109.1338 1.354
109.1641 1.146
109.1943 1.458
109.2246 1.250
109.2549 1.510
109.2852 1.094
109.3154 1.667
109.3457 1.562
109.3760 1.406
109.4063 1.094
109.4366 1.198
109.4668 0.885
109.4971 1.146
109.5274 1.094
109.5577 1.875
109.5880 1.198
109.6182 0.990
109.6485 1.406
109.6788 1.198
109.7091 1.198
109.7393 1.302
109.7696 1.250
109.7999 1.302
109.8302 1.094
109.8605 1.615
109.8907 1.406
109.9210 0.833
109.9513 0.885
109.9816 1.198
110.0119 1.094
110.0421 1.198
110.0724 1.510
110.1027 0.885
110.1330 1.042
110.1632 0.833
110.1935 1.094
110.2238 1.667
110.2541 1.198
110.2844 1.719
110.3146 1.562
110.3449 0.729
110.3752 1.354
110.4055 1.354
110.4358 1.302
110.4660 1.615
110.4963 0.885
110.5266 0.885
110.5569 1.198
110.5871 1.250
110.6174 1.250
110.6477 1.615
110.6780 0.937
110.7083 1.615
110.7385 1.458
110.7688 1.198
110.7991 0.990
110.8294 1.667
110.8597 1.406
110.8899 1.458
110.9202 1.302
110.9505 1.146
110.9808 1.146
111.0110 1.250
111.0413 1.094
111.0716 1.510
111.1019 1.198
111.1322 1.562
111.1624 1.146
111.1927 2.031
111.2230 0.990
111.2533 1.198
111.2836 0.937
111.3138 1.302
111.3441 1.354
111.3744 1.458
111.4047 1.771
111.4350 0.937
111.4652 0.990
111.4955 1.146
111.5258 1.146
111.5561 0.990
111.5863 0.937
111.6166 1.562
111.6469 1.198
111.6772 1.042
111.7075 1.458
111.7377 1.354
111.7680 0.990
111.7983 1.198
111.8286 1.354
111.8589 0.885
111.8891 1.562
111.9194 1.562
111.9497 1.562
111.9800 1.562
112.0102 0.990
112.0405 1.458
112.0708 1.354
112.1011 1.354
112.1314 1.302
112.1616 1.094
112.1919 0.990
112.2222 1.354
112.2525 1.042
112.2828 1.146
112.3130 1.406
112.3433 1.198
112.3736 1.406
112.4039 1.250
112.4341 1.667
112.4644 1.667
112.4947 1.198
112.5250 1.302
112.5553 1.510
112.5855 1.458
112.6158 1.250
112.6461 1.094
112.6764 1.042
112.7067 1.615
112.7369 1.771
112.7672 1.146
112.7975 1.719
112.8278 1.042
112.8580 1.042
112.8883 1.094
112.9186 1.406
112.9489 1.406
112.9792 1.146
113.0094 1.146
113.0397 1.615
113.0700 1.042
113.1003 1.354
113.1306 1.250
113.1608 1.458
113.1911 1.406
113.2214 1.354
113.2517 1.719
113.2819 1.562
113.3122 1.771
113.3425 0.885
113.3728 1.146
113.4031 1.042
113.4333 1.042
113.4636 0.833
113.4939 1.302
113.5242 1.458
113.5545 1.354
113.5847 1.354
113.6150 1.042
113.6453 1.458
113.6756 1.667
113.7058 1.562
113.7361 1.354
113.7664 1.771
113.7967 1.094
113.8270 1.354
113.8572 1.562
113.8875 1.615
113.9178 1.562
113.9481 1.042
113.9784 1.146
114.0086 1.562
114.0389 1.146
114.0692 1.615
114.0995 0.677
114.1298 1.146
114.1600 1.250
114.1903 1.562
114.2206 1.042
114.2509 1.198
114.2811 0.781
114.3114 1.510
114.3417 1.354
114.3720 1.406
114.4023 1.198
114.4325 1.042
114.4628 1.406
114.4931 1.302
114.5234 1.146
114.5537 0.990
114.5839 0.990
114.6142 1.042
114.6445 1.094
114.6748 1.250
114.7050 1.771
114.7353 1.250
114.7656 1.354
114.7959 0.937
114.8262 1.823
114.8564 1.198
114.8867 1.198
114.9170 1.458
114.9473 1.042
114.9776 1.302
115.0078 1.562
115.0381 1.510
115.0684 1.094
115.0987 1.458
115.1289 1.198
115.1592 1.354
115.1895 1.719
115.2198 1.562
115.2501 1.562
115.2803 1.302
115.3106 1.406
115.3409 1.406
115.3712 1.094
115.4015 0.990
115.4317 0.990
115.4620 1.146
115.4923 1.042
115.5226 1.250
115.5528 1.198
115.5831 1.042
115.6134 1.719
115.6437 1.719
115.6740 1.510
115.7042 1.354
115.7345 1.719
115.7648 1.875
115.7951 1.042
115.8254 1.146
115.8556 1.458
115.8859 1.146
115.9162 1.146
115.9465 1.250
115.9767 1.302
116.0070 1.510
116.0373 1.146
116.0676 1.458
116.0979 1.198
116.1281 1.146
116.1584 1.510
116.1887 1.406
116.2190 1.719
116.2493 1.927
116.2795 1.146
116.3098 1.042
116.3401 1.719
116.3704 1.562
116.4006 0.885
116.4309 1.354
116.4612 1.667
116.4915 1.771
116.5218 0.937
116.5520 1.094
116.5823 1.927
116.6126 1.406
116.6429 1.562
116.6732 0.833
116.7034 1.302
116.7337 1.406
116.7640 1.302
116.7943 1.510
116.8245 1.771
116.8548 1.198
116.8851 1.406
116.9154 1.146
116.9457 1.562
116.9759 1.198
117.0062 1.510
117.0365 1.927
117.0668 1.406
117.0971 0.937
117.1273 0.937
117.1576 1.042
117.1879 1.510
117.2182 1.719
117.2485 1.406
117.2787 1.927
117.3090 1.458
117.3393 1.146
117.3696 1.198
117.3998 1.198
117.4301 0.937
117.4604 1.094
117.4907 1.094
117.5210 1.094
117.5512 1.302
117.5815 1.250
117.6118 1.094
117.6421 1.198
117.6724 1.250
117.7026 1.354
117.7329 1.458
117.7632 1.302
117.7935 1.354
117.8237 1.667
117.8540 1.302
117.8843 1.354
117.9146 1.510
117.9449 1.510
117.9751 1.406
118.0054 1.823
118.0357 1.406
118.0660 1.250
118.0963 1.250
118.1265 1.562
118.1568 1.406
118.1871 0.990
118.2174 2.031
118.2476 1.302
118.2779 1.406
118.3082 1.406
118.3385 1.354
118.3688 1.250
118.3990 1.250
118.4293 1.562
118.4596 0.990
118.4899 1.302
118.5202 1.406
118.5504 0.833
118.5807 1.250
118.6110 1.562
118.6413 1.250
118.6715 1.302
118.7018 1.458
118.7321 1.406
118.7624 1.354
118.7927 1.562
118.8229 1.302
118.8532 1.302
118.8835 1.406
118.9138 1.302
118.9441 1.354
118.9743 1.250
119.0046 1.458
119.0349 1.615
119.0652 1.458
119.0954 1.406
119.1257 1.406
119.1560 1.458
119.1863 0.833
119.2166 1.771
119.2468 1.302
119.2771 1.458
119.3074 1.927
119.3377 0.781
119.3680 1.198
119.3982 1.250
119.4285 0.937
119.4588 0.937
119.4891 1.146
119.5193 1.823
119.5496 0.885
119.5799 1.719
119.6102 1.302
119.6405 1.146
119.6707 1.354
119.7010 1.354
119.7313 1.094
119.7616 1.667
119.7919 0.990
119.8221 1.250
119.8524 1.458
119.8827 0.885
119.9130 1.302
119.9433 1.615
119.9735 1.250
120.0038 1.354
