'Id: "" Comment: "" Operator: "Lab Manager" Anode: "Cu" Scantype: "Locked Coupled" TimePerStep: "19.2" X: "9999" Y: "9999" Z: "9999" 
10.0015 4.375
10.0318 3.802
10.0620 4.062
10.0923 5.156
10.1226 2.812
10.1529 4.427
10.1832 4.167
10.2134 4.271
10.2437 3.646
10.2740 4.167
10.3043 4.271
10.3346 3.698
10.3648 4.010
10.3951 4.479
10.4254 4.010
10.4557 4.010
10.4859 3.385
10.5162 3.437
10.5465 3.177
10.5768 2.865
10.6071 3.750
10.6373 5.312
10.6676 3.958
10.6979 3.229
10.7282 5.156
10.7585 4.583
10.7887 4.219
10.8190 3.490
10.8493 3.490
10.8796 4.010
10.9098 4.583
10.9401 4.427
10.9704 4.531
11.0007 4.531
11.0310 4.427
11.0612 4.896
11.0915 4.635
11.1218 4.740
11.1521 4.531
11.1824 4.583
11.2126 3.542
11.2429 3.854
11.2732 4.219
11.3035 3.906
11.3337 4.687
11.3640 4.115
11.3943 3.542
11.4246 2.917
11.4549 3.750
11.4851 3.333
11.5154 3.646
11.5457 3.750
11.5760 4.740
11.6063 4.427
11.6365 3.646
11.6668 3.698
11.6971 3.281
11.7274 2.812
11.7577 4.323
11.7879 3.229
11.8182 3.073
11.8485 4.531
11.8788 3.646
11.9090 2.865
11.9393 3.177
11.9696 3.542
11.9999 4.010
12.0302 3.490
12.0604 4.271
12.0907 3.542
12.1210 3.542
12.1513 2.969
12.1816 3.646
12.2118 3.750
12.2421 3.594
12.2724 3.177
12.3027 3.490
12.3329 2.240
12.3632 2.708
12.3935 3.542
12.4238 3.698
12.4541 3.594
12.4843 3.073
12.5146 3.177
12.5449 3.333
12.5752 4.271
12.6055 2.760
12.6357 4.010
12.6660 3.594
12.6963 3.698
12.7266 3.646
12.7568 3.906
12.7871 2.552
12.8174 2.969
12.8477 3.854
12.8780 3.385
12.9082 3.437
12.9385 3.802
12.9688 3.437
12.9991 3.646
13.0294 4.635
13.0596 3.229
13.0899 3.333
13.1202 3.646
13.1505 3.854
13.1807 3.281
13.2110 3.021
13.2413 3.125
13.2716 3.958
13.3019 3.073
13.3321 3.698
13.3624 3.646
13.3927 2.917
13.4230 3.646
13.4533 3.490
13.4835 3.281
13.5138 3.125
13.5441 3.542
13.5744 3.750
13.6046 3.229
13.6349 3.229
13.6652 3.958
13.6955 3.542
13.7258 3.542
13.7560 2.969
13.7863 2.448
13.8166 4.271
13.8469 3.073
13.8772 3.229
13.9074 2.708
13.9377 2.396
13.9680 4.427
13.9983 4.010
14.0285 3.021
14.0588 3.802
14.0891 3.125
14.1194 3.854
14.1497 3.125
14.1799 3.333
14.2102 3.646
14.2405 3.333
14.2708 3.385
14.3011 2.656
14.3313 3.073
14.3616 2.812
14.3919 3.177
14.4222 2.344
14.4524 3.490
14.4827 2.760
14.5130 2.760
14.5433 3.125
14.5736 2.812
14.6038 3.177
14.6341 3.646
14.6644 2.865
14.6947 3.229
14.7250 3.698
14.7552 3.125
14.7855 3.073
14.8158 3.021
14.8461 3.021
14.8764 2.812
14.9066 3.750
14.9369 2.448
14.9672 3.229
14.9975 2.552
15.0277 3.698
15.0580 3.125
15.0883 2.865
15.1186 2.865
15.1489 2.344
15.1791 3.490
15.2094 2.917
15.2397 2.917
15.2700 3.281
15.3003 3.437
15.3305 3.229
15.3608 3.125
15.3911 2.292
15.4214 3.021
15.4516 3.177
15.4819 2.500
15.5122 2.604
15.5425 2.604
15.5728 3.073
15.6030 2.969
15.6333 2.708
15.6636 2.708
15.6939 3.073
15.7242 2.448
15.7544 3.542
15.7847 2.760
15.8150 2.812
15.8453 3.490
15.8755 2.708
15.9058 2.708
15.9361 2.865
15.9664 3.385
15.9967 3.437
16.0269 2.708
16.0572 2.604
16.0875 3.073
16.1178 2.448
16.1481 2.812
16.1783 2.344
16.2086 3.073
16.2389 3.385
16.2692 3.229
16.2994 3.958
16.3297 2.552
16.3600 3.177
16.3903 3.281
16.4206 2.500
16.4508 2.708
16.4811 2.969
16.5114 2.604
16.5417 3.333
16.5720 3.490
16.6022 3.333
16.6325 2.812
16.6628 2.500
16.6931 3.021
16.7233 2.812
16.7536 3.594
16.7839 2.969
16.8142 3.646
16.8445 3.646
16.8747 2.969
16.9050 3.333
16.9353 3.021
16.9656 3.906
16.9959 3.542
17.0261 3.490
17.0564 2.917
17.0867 2.969
17.1170 2.969
17.1472 3.594
17.1775 2.552
17.2078 3.698
17.2381 2.552
17.2684 2.917
17.2986 3.542
17.3289 2.760
17.3592 3.125
17.3895 3.281
17.4198 3.333
17.4500 3.073
17.4803 3.177
17.5106 3.385
17.5409 2.604
17.5712 2.604
17.6014 3.594
17.6317 3.021
17.6620 3.437
17.6923 3.333
17.7225 3.125
17.7528 3.177
17.7831 2.969
17.8134 3.125
17.8437 3.698
17.8739 2.917
17.9042 2.656
17.9345 2.969
17.9648 2.500
17.9951 3.073
18.0253 3.021
18.0556 3.177
18.0859 2.500
18.1162 3.646
18.1464 2.917
18.1767 1.979
18.2070 3.177
18.2373 3.490
18.2676 2.760
18.2978 2.865
18.3281 2.656
18.3584 2.760
18.3887 3.229
18.4190 3.177
18.4492 3.073
18.4795 2.135
18.5098 3.125
18.5401 2.812
18.5703 2.552
18.6006 2.448
18.6309 1.771
18.6612 2.656
18.6915 2.865
18.7217 2.604
18.7520 2.969
18.7823 3.333
18.8126 3.437
18.8429 2.917
18.8731 3.490
18.9034 3.490
18.9337 3.177
18.9640 3.542
18.9942 2.865
19.0245 2.396
19.0548 2.708
19.0851 2.969
19.1154 2.969
19.1456 3.073
19.1759 2.552
19.2062 3.333
19.2365 2.812
19.2668 3.333
19.2970 2.812
19.3273 3.594
19.3576 2.656
19.3879 2.656
19.4181 2.396
19.4484 3.542
19.4787 2.552
19.5090 2.656
19.5393 2.760
19.5695 3.021
19.5998 2.760
19.6301 3.125
19.6604 2.500
19.6907 3.385
19.7209 2.760
19.7512 2.292
19.7815 2.656
19.8118 2.917
19.8420 2.969
19.8723 2.604
19.9026 3.021
19.9329 2.552
19.9632 2.812
19.9934 2.396
20.0237 3.177
20.0540 3.281
20.0843 2.552
20.1146 2.760
20.1448 3.177
20.1751 2.865
20.2054 2.917
20.2357 2.552
20.2659 1.823
20.2962 2.500
20.3265 3.073
20.3568 2.552
20.3871 2.500
20.4173 2.656
20.4476 2.812
20.4779 2.865
20.5082 2.135
20.5385 3.594
20.5687 2.604
20.5990 2.135
20.6293 2.292
20.6596 2.760
20.6899 3.229
20.7201 2.865
20.7504 2.500
20.7807 2.656
20.8110 3.281
20.8412 2.865
20.8715 2.187
20.9018 3.073
20.9321 2.604
20.9624 2.344
20.9926 1.979
21.0229 2.917
21.0532 2.604
21.0835 3.021
21.1138 3.385
21.1440 3.281
21.1743 3.594
21.2046 3.333
21.2349 2.760
21.2651 2.396
21.2954 2.656
21.3257 2.135
21.3560 2.812
21.3863 2.344
21.4165 2.760
21.4468 2.187
21.4771 2.760
21.5074 2.656
21.5377 2.187
21.5679 2.292
21.5982 3.177
21.6285 3.073
21.6588 2.865
21.6890 2.031
21.7193 2.292
21.7496 2.240
21.7799 2.552
21.8102 1.615
21.8404 3.073
21.8707 2.396
21.9010 2.500
21.9313 2.083
21.9616 2.760
21.9918 3.802
22.0221 2.969
22.0524 2.865
22.0827 2.500
22.1129 2.917
22.1432 2.865
22.1735 2.396
22.2038 2.969
22.2341 1.823
22.2643 2.656
22.2946 2.812
22.3249 2.448
22.3552 2.604
22.3855 2.708
22.4157 2.812
22.4460 2.448
22.4763 2.760
22.5066 2.500
22.5368 2.500
22.5671 2.969
22.5974 3.281
22.6277 2.135
22.6580 1.979
22.6882 2.135
22.7185 2.187
22.7488 2.396
22.7791 2.083
22.8094 2.292
22.8396 1.927
22.8699 2.552
22.9002 2.708
22.9305 2.396
22.9607 2.500
22.9910 2.708
23.0213 2.865
23.0516 2.917
23.0819 2.500
23.1121 2.500
23.1424 2.552
23.1727 2.240
23.2030 2.083
23.2333 2.292
23.2635 2.708
23.2938 2.917
23.3241 2.292
23.3544 2.448
23.3846 3.125
23.4149 2.865
23.4452 2.135
23.4755 2.656
23.5058 2.656
23.5360 2.448
23.5663 3.490
23.5966 2.344
23.6269 2.448
23.6572 2.448
23.6874 2.552
23.7177 1.302
23.7480 2.240
23.7783 2.396
23.8086 2.187
23.8388 2.917
23.8691 2.083
23.8994 2.865
23.9297 3.021
23.9599 2.083
23.9902 2.656
24.0205 2.292
24.0508 2.240
24.0811 2.135
24.1113 2.448
24.1416 2.708
24.1719 2.396
24.2022 2.656
24.2325 2.604
24.2627 2.448
24.2930 2.240
24.3233 1.875
24.3536 2.917
24.3838 2.812
24.4141 3.177
24.4444 2.240
24.4747 2.500
24.5050 2.344
24.5352 2.083
24.5655 2.969
24.5958 2.865
24.6261 3.125
24.6564 1.875
24.6866 3.490
24.7169 2.344
24.7472 2.344
24.7775 1.979
24.8077 2.969
24.8380 2.708
24.8683 2.344
24.8986 1.615
24.9289 2.552
24.9591 2.083
24.9894 2.500
25.0197 1.979
25.0500 2.812
25.0803 2.656
25.1105 2.448
25.1408 2.292
25.1711 2.760
25.2014 3.073
25.2316 2.396
25.2619 2.240
25.2922 2.865
25.3225 2.552
25.3528 2.083
25.3830 2.865
25.4133 1.927
25.4436 1.979
25.4739 2.604
25.5042 2.500
25.5344 2.760
25.5647 2.552
25.5950 3.021
25.6253 2.760
25.6555 1.875
25.6858 2.292
25.7161 2.083
25.7464 2.240
25.7767 3.229
25.8069 2.083
25.8372 2.865
25.8675 2.396
25.8978 2.760
25.9281 2.812
25.9583 2.344
25.9886 2.812
26.0189 2.917
26.0492 2.448
26.0794 2.708
26.1097 2.500
26.1400 2.552
26.1703 2.760
26.2006 2.604
26.2308 2.708
26.2611 2.187
26.2914 2.917
26.3217 2.760
26.3520 2.552
26.3822 2.396
26.4125 2.604
26.4428 2.240
26.4731 2.552
26.5034 2.656
26.5336 2.552
26.5639 2.552
26.5942 2.500
26.6245 2.552
26.6547 3.125
26.6850 2.656
26.7153 2.135
26.7456 2.396
26.7759 2.448
26.8061 2.500
26.8364 2.500
26.8667 2.552
26.8970 2.604
26.9273 3.021
26.9575 2.604
26.9878 2.552
27.0181 2.604
27.0484 2.240
27.0786 2.969
27.1089 3.073
27.1392 2.552
27.1695 2.240
27.1998 2.917
27.2300 2.865
27.2603 3.125
27.2906 3.177
27.3209 2.865
27.3512 3.073
27.3814 4.010
27.4117 3.490
27.4420 2.396
27.4723 2.656
27.5025 1.927
27.5328 2.187
27.5631 2.969
27.5934 2.292
27.6237 3.437
27.6539 2.812
27.6842 2.760
27.7145 3.750
27.7448 3.125
27.7751 2.448
27.8053 3.385
27.8356 2.865
27.8659 2.969
27.8962 2.917
27.9264 3.177
27.9567 3.698
27.9870 2.760
28.0173 3.021
28.0476 3.281
28.0778 2.240
28.1081 2.604
28.1384 2.708
28.1687 3.594
28.1990 3.073
28.2292 2.917
28.2595 3.073
28.2898 3.021
28.3201 3.333
28.3503 2.656
28.3806 3.073
28.4109 3.021
28.4412 3.125
28.4715 3.802
28.5017 2.865
28.5320 3.281
28.5623 2.917
28.5926 3.281
28.6229 2.240
28.6531 3.333
28.6834 3.021
28.7137 3.281
28.7440 3.177
28.7742 2.917
28.8045 3.594
28.8348 3.958
28.8651 3.542
28.8954 3.646
28.9256 3.437
28.9559 3.542
28.9862 3.385
29.0165 3.385
29.0468 3.698
29.0770 4.010
29.1073 2.812
29.1376 2.135
29.1679 3.594
29.1981 3.958
29.2284 3.229
29.2587 2.812
29.2890 3.958
29.3193 3.750
29.3495 3.125
29.3798 3.281
29.4101 2.865
29.4404 3.646
29.4707 3.229
29.5009 3.021
29.5312 3.281
29.5615 4.479
29.5918 2.865
29.6221 3.333
29.6523 4.687
29.6826 3.385
29.7129 3.125
29.7432 3.542
29.7734 3.854
29.8037 3.854
29.8340 2.917
29.8643 4.687
29.8946 3.802
29.9248 3.281
29.9551 4.062
29.9854 4.062
30.0157 4.792
30.0460 4.010
30.0762 4.323
30.1065 4.687
30.1368 4.167
30.1671 4.219
30.1973 4.740
30.2276 3.906
30.2579 4.323
30.2882 5.625
30.3185 4.479
30.3487 5.208
30.3790 4.062
30.4093 4.115
30.4396 4.271
30.4699 4.740
30.5001 4.635
30.5304 6.042
30.5607 5.260
30.5910 4.740
30.6212 5.521
30.6515 5.312
30.6818 6.042
30.7121 5.885
30.7424 5.469
30.7726 7.500
30.8029 6.667
30.8332 6.562
30.8635 7.135
30.8938 6.354
30.9240 6.771
30.9543 8.854
30.9846 8.594
31.0149 9.167
31.0451 9.583
31.0754 10.312
31.1057 9.167
31.1360 12.031
31.1663 11.406
31.1965 13.073
31.2268 13.802
31.2571 14.635
31.2874 16.510
31.3177 17.708
31.3479 19.531
31.3782 21.250
31.4085 25.312
31.4388 25.833
31.4690 27.760
31.4993 32.187
31.5296 33.854
31.5599 38.333
31.5902 40.469
31.6204 41.458
31.6507 39.479
31.6810 42.292
31.7113 40.833
31.7416 36.667
31.7718 34.635
31.8021 31.458
31.8324 28.802
31.8627 26.719
31.8929 21.562
31.9232 20.521
31.9535 17.917
31.9838 17.812
32.0141 14.167
32.0443 16.562
32.0746 13.125
32.1049 12.552
32.1352 10.260
32.1655 10.365
32.1957 10.729
32.2260 8.802
32.2563 8.437
32.2866 9.010
32.3169 7.708
32.3471 8.594
32.3774 8.385
32.4077 7.552
32.4380 6.302
32.4682 8.802
32.4985 6.094
32.5288 6.250
32.5591 5.417
32.5894 6.406
32.6196 5.729
32.6499 6.042
32.6802 5.365
32.7105 6.198
32.7408 5.521
32.7710 5.625
32.8013 5.208
32.8316 5.208
32.8619 4.844
32.8921 5.729
32.9224 4.635
32.9527 4.219
32.9830 4.479
33.0133 6.458
33.0435 4.687
33.0738 6.146
33.1041 6.042
33.1344 5.365
33.1647 4.479
33.1949 5.260
33.2252 5.156
33.2555 5.260
33.2858 5.052
33.3160 3.854
33.3463 5.469
33.3766 4.740
33.4069 5.677
33.4372 6.302
33.4674 4.792
33.4977 6.198
33.5280 5.365
33.5583 6.146
33.5886 5.729
33.6188 6.458
33.6491 8.177
33.6794 6.146
33.7097 5.208
33.7399 6.615
33.7702 7.552
33.8005 7.083
33.8308 7.604
33.8611 8.698
33.8913 8.125
33.9216 9.740
33.9519 12.135
33.9822 10.885
34.0125 12.187
34.0427 14.740
34.0730 15.885
34.1033 17.969
34.1336 20.781
34.1638 25.521
34.1941 32.135
34.2244 36.823
34.2547 42.760
34.2850 50.312
34.3152 51.927
34.3455 48.490
34.3758 44.219
34.4061 39.531
34.4364 32.135
34.4666 25.312
34.4969 20.677
34.5272 19.948
34.5575 15.417
34.5877 15.469
34.6180 12.292
34.6483 10.729
34.6786 9.844
34.7089 9.844
34.7391 9.531
34.7694 7.708
34.7997 8.698
34.8300 9.687
34.8603 8.073
34.8905 9.010
34.9208 8.125
34.9511 7.396
34.9814 7.552
35.0116 7.656
35.0419 8.281
35.0722 6.823
35.1025 7.396
35.1328 7.760
35.1630 8.750
35.1933 8.177
35.2236 8.125
35.2539 8.125
35.2842 9.375
35.3144 10.052
35.3447 8.906
35.3750 10.104
35.4053 10.677
35.4356 11.510
35.4658 11.094
35.4961 11.354
35.5264 11.667
35.5567 13.021
35.5869 12.708
35.6172 15.208
35.6475 15.417
35.6778 16.875
35.7081 18.958
35.7383 19.740
35.7686 21.406
35.7989 21.042
35.8292 28.490
35.8595 25.208
35.8897 31.823
35.9200 35.573
35.9503 38.542
35.9806 43.021
36.0108 47.448
36.0411 48.646
36.0714 54.219
36.1017 59.740
36.1320 56.250
36.1622 58.021
36.1925 55.365
36.2228 52.969
36.2531 50.885
36.2834 47.083
36.3136 40.000
36.3439 35.573
36.3742 34.427
36.4045 28.958
36.4347 28.021
36.4650 24.375
36.4953 19.167
36.5256 20.208
36.5559 18.594
36.5861 14.792
36.6164 14.948
36.6467 12.448
36.6770 12.969
36.7073 12.396
36.7375 11.719
36.7678 9.167
36.7981 10.573
36.8284 10.312
36.8586 7.812
36.8889 8.177
36.9192 7.969
36.9495 6.823
36.9798 6.510
37.0100 6.719
37.0403 5.729
37.0706 5.885
37.1009 5.625
37.1312 6.615
37.1614 6.562
37.1917 6.094
37.2220 5.156
37.2523 5.104
37.2825 4.687
37.3128 4.427
37.3431 5.417
37.3734 4.531
37.4037 4.427
37.4339 3.906
37.4642 3.698
37.4945 5.000
37.5248 3.958
37.5551 4.062
37.5853 4.010
37.6156 3.594
37.6459 4.062
37.6762 3.906
37.7064 3.958
37.7367 4.479
37.7670 4.740
37.7973 3.646
37.8276 3.490
37.8578 3.281
37.8881 3.229
37.9184 3.958
37.9487 2.552
37.9790 4.062
38.0092 3.281
38.0395 2.604
38.0698 3.958
38.1001 3.125
38.1304 3.073
38.1606 2.865
38.1909 3.333
38.2212 2.969
38.2515 3.125
38.2817 2.969
38.3120 3.333
38.3423 3.125
38.3726 2.812
38.4029 3.385
38.4331 2.708
38.4634 3.021
38.4937 3.281
38.5240 3.281
38.5543 3.542
38.5845 1.510
38.6148 3.125
38.6451 3.229
38.6754 2.292
38.7056 3.229
38.7359 2.812
38.7662 1.823
38.7965 2.865
38.8268 2.760
38.8570 2.604
38.8873 2.500
38.9176 2.708
38.9479 2.812
38.9782 2.396
39.0084 2.344
39.0387 2.344
39.0690 2.292
39.0993 2.969
39.1295 2.292
39.1598 3.073
39.1901 3.021
39.2204 2.448
39.2507 2.448
39.2809 2.031
39.3112 2.708
39.3415 1.823
39.3718 2.500
39.4021 2.396
39.4323 2.500
39.4626 1.823
39.4929 2.344
39.5232 2.396
39.5534 2.031
39.5837 2.812
39.6140 1.667
39.6443 2.448
39.6746 2.708
39.7048 2.656
39.7351 2.396
39.7654 1.927
39.7957 2.031
39.8260 2.448
39.8562 2.396
39.8865 2.708
39.9168 2.604
39.9471 2.604
39.9773 2.031
40.0076 1.979
40.0379 2.396
40.0682 1.719
40.0985 1.927
40.1287 2.292
40.1590 2.292
40.1893 2.604
40.2196 2.604
40.2499 2.448
40.2801 2.969
40.3104 2.604
40.3407 2.344
40.3710 2.448
40.4012 1.667
40.4315 1.510
40.4618 2.448
40.4921 2.500
40.5224 2.083
40.5526 1.562
40.5829 2.344
40.6132 1.979
40.6435 1.823
40.6738 3.073
40.7040 2.083
40.7343 2.135
40.7646 2.187
40.7949 2.292
40.8251 2.344
40.8554 2.708
40.8857 1.510
40.9160 2.344
40.9463 2.031
40.9765 2.240
41.0068 2.187
41.0371 2.135
41.0674 1.771
41.0977 2.031
41.1279 1.823
41.1582 2.135
41.1885 2.292
41.2188 1.406
41.2491 2.344
41.2793 1.615
41.3096 1.250
41.3399 1.667
41.3702 2.187
41.4004 1.927
41.4307 2.344
41.4610 2.396
41.4913 1.719
41.5216 2.292
41.5518 1.510
41.5821 1.771
41.6124 2.135
41.6427 1.927
41.6730 1.927
41.7032 1.927
41.7335 2.083
41.7638 1.771
41.7941 2.187
41.8243 1.615
41.8546 1.615
41.8849 1.927
41.9152 2.292
41.9455 2.187
41.9757 1.406
42.0060 2.344
42.0363 1.927
42.0666 2.135
42.0969 1.823
42.1271 1.771
42.1574 2.500
42.1877 1.510
42.2180 2.083
42.2482 1.667
42.2785 1.458
42.3088 2.500
42.3391 1.875
42.3694 1.927
42.3996 1.927
42.4299 2.083
42.4602 1.771
42.4905 2.083
42.5208 2.344
42.5510 1.302
42.5813 1.927
42.6116 1.719
42.6419 1.979
42.6721 2.396
42.7024 1.562
42.7327 1.875
42.7630 2.135
42.7933 1.927
42.8235 1.979
42.8538 1.771
42.8841 1.719
42.9144 1.771
42.9447 2.031
42.9749 1.823
43.0052 1.719
43.0355 1.510
43.0658 1.562
43.0960 1.615
43.1263 1.719
43.1566 1.979
43.1869 1.927
43.2172 2.135
43.2474 2.187
43.2777 1.979
43.3080 1.823
43.3383 2.448
43.3686 1.562
43.3988 1.510
43.4291 1.719
43.4594 1.875
43.4897 1.875
43.5199 1.615
43.5502 1.927
43.5805 2.031
43.6108 1.771
43.6411 2.187
43.6713 1.719
43.7016 1.927
43.7319 2.031
43.7622 1.875
43.7925 2.240
43.8227 1.771
43.8530 1.823
43.8833 2.396
43.9136 2.135
43.9439 1.406
43.9741 1.354
44.0044 1.719
44.0347 1.719
44.0650 2.031
44.0952 1.719
44.1255 2.708
44.1558 1.719
44.1861 1.823
44.2164 1.979
44.2466 2.344
44.2769 1.823
44.3072 1.615
44.3375 2.083
44.3678 2.448
44.3980 1.667
44.4283 1.302
44.4586 1.406
44.4889 2.135
44.5191 2.031
44.5494 1.719
44.5797 2.448
44.6100 1.719
44.6403 1.719
44.6705 1.562
44.7008 1.719
44.7311 2.187
44.7614 2.396
44.7917 1.719
44.8219 2.396
44.8522 1.719
44.8825 1.615
44.9128 1.562
44.9430 2.240
44.9733 2.396
45.0036 2.031
45.0339 2.292
45.0642 1.562
45.0944 2.135
45.1247 1.771
45.1550 1.979
45.1853 1.927
45.2156 1.667
45.2458 2.448
45.2761 2.344
45.3064 1.719
45.3367 1.667
45.3669 2.344
45.3972 1.771
45.4275 2.083
45.4578 3.021
45.4881 1.875
45.5183 2.708
45.5486 2.083
45.5789 1.927
45.6092 2.083
45.6395 2.292
45.6697 2.135
45.7000 1.510
45.7303 1.927
45.7606 1.562
45.7908 2.708
45.8211 1.979
45.8514 1.927
45.8817 2.344
45.9120 2.396
45.9422 2.656
45.9725 2.240
46.0028 2.187
46.0331 2.396
46.0634 2.292
46.0936 2.187
46.1239 2.083
46.1542 2.500
46.1845 2.760
46.2147 2.604
46.2450 2.812
46.2753 2.292
46.3056 2.448
46.3359 2.292
46.3661 2.552
46.3964 2.760
46.4267 2.812
46.4570 2.448
46.4873 2.760
46.5175 2.760
46.5478 2.969
46.5781 2.760
46.6084 2.292
46.6386 2.760
46.6689 2.865
46.6992 3.073
46.7295 3.594
46.7598 3.437
46.7900 2.969
46.8203 3.385
46.8506 3.698
46.8809 4.010
46.9112 4.271
46.9414 4.948
46.9717 4.479
47.0020 4.948
47.0323 5.365
47.0626 6.094
47.0928 6.458
47.1231 6.927
47.1534 7.865
47.1837 6.875
47.2139 8.021
47.2442 9.635
47.2745 10.104
47.3048 10.417
47.3351 10.312
47.3653 13.229
47.3956 12.812
47.4259 13.281
47.4562 12.865
47.4865 12.604
47.5167 11.510
47.5470 10.156
47.5773 9.531
47.6076 9.479
47.6378 8.542
47.6681 7.240
47.6984 7.865
47.7287 6.719
47.7590 5.208
47.7892 5.052
47.8195 5.208
47.8498 5.104
47.8801 4.948
47.9104 4.219
47.9406 3.385
47.9709 4.167
48.0012 3.021
48.0315 3.177
48.0617 3.906
48.0920 2.604
48.1223 2.500
48.1526 2.812
48.1829 3.073
48.2131 3.490
48.2434 2.396
48.2737 2.760
48.3040 3.073
48.3343 2.187
48.3645 2.552
48.3948 2.396
48.4251 2.865
48.4554 2.396
48.4856 1.979
48.5159 2.604
48.5462 2.292
48.5765 2.396
48.6068 2.917
48.6370 2.187
48.6673 2.552
48.6976 1.562
48.7279 2.240
48.7582 2.031
48.7884 2.344
48.8187 1.979
48.8490 2.083
48.8793 1.823
48.9095 1.927
48.9398 2.448
48.9701 1.771
49.0004 2.344
49.0307 2.083
49.0609 1.719
49.0912 1.302
49.1215 2.135
49.1518 2.656
49.1821 1.979
49.2123 1.927
49.2426 1.927
49.2729 1.615
49.3032 1.927
49.3334 1.927
49.3637 2.187
49.3940 1.979
49.4243 1.771
49.4546 1.667
49.4848 1.354
49.5151 1.719
49.5454 1.823
49.5757 2.240
49.6060 2.240
49.6362 1.615
49.6665 1.458
49.6968 1.927
49.7271 2.292
49.7574 1.667
49.7876 1.406
49.8179 2.135
49.8482 2.135
49.8785 1.250
49.9087 2.083
49.9390 2.031
49.9693 1.823
49.9996 1.094
50.0299 2.083
50.0601 1.719
50.0904 2.083
50.1207 1.823
50.1510 1.458
50.1813 1.354
50.2115 1.719
50.2418 1.719
50.2721 2.135
50.3024 1.719
50.3326 1.719
50.3629 2.292
50.3932 1.875
50.4235 1.667
50.4538 1.406
50.4840 1.615
50.5143 1.771
50.5446 1.719
50.5749 1.510
50.6052 1.667
50.6354 1.979
50.6657 1.667
50.6960 1.406
50.7263 1.875
50.7565 1.823
50.7868 2.135
50.8171 2.708
50.8474 1.562
50.8777 1.458
50.9079 2.240
50.9382 1.979
50.9685 1.667
50.9988 1.510
51.0291 1.823
51.0593 1.719
51.0896 2.031
51.1199 1.354
51.1502 1.198
51.1804 1.719
51.2107 2.031
51.2410 1.875
51.2713 1.927
51.3016 2.135
51.3318 1.198
51.3621 2.240
51.3924 1.979
51.4227 2.552
51.4530 1.823
51.4832 1.823
51.5135 2.240
51.5438 1.927
51.5741 1.875
51.6043 1.979
51.6346 1.667
51.6649 1.823
51.6952 2.031
51.7255 1.979
51.7557 1.719
51.7860 1.198
51.8163 2.292
51.8466 2.031
51.8769 2.240
51.9071 1.719
51.9374 1.719
51.9677 1.406
51.9980 2.135
52.0282 1.719
52.0585 1.927
52.0888 1.771
52.1191 2.187
52.1494 1.771
52.1796 2.135
52.2099 1.667
52.2402 2.187
52.2705 1.510
52.3008 1.615
52.3310 1.562
52.3613 2.031
52.3916 2.396
52.4219 1.667
52.4521 1.927
52.4824 2.344
52.5127 2.135
52.5430 1.823
52.5733 1.875
52.6035 1.771
52.6338 1.875
52.6641 1.771
52.6944 1.146
52.7247 1.875
52.7549 1.927
52.7852 1.562
52.8155 1.927
52.8458 2.240
52.8761 1.719
52.9063 1.875
52.9366 1.771
52.9669 1.354
52.9972 2.187
53.0274 1.771
53.0577 2.031
53.0880 2.135
53.1183 1.771
53.1486 1.823
53.1788 2.344
53.2091 2.240
53.2394 1.875
53.2697 2.031
53.3000 2.187
53.3302 1.771
53.3605 2.031
53.3908 2.292
53.4211 1.823
53.4513 1.771
53.4816 2.240
53.5119 1.823
53.5422 2.240
53.5725 1.979
53.6027 2.344
53.6330 1.927
53.6633 1.927
53.6936 1.823
53.7239 1.458
53.7541 1.823
53.7844 1.615
53.8147 1.927
53.8450 1.979
53.8752 1.562
53.9055 1.823
53.9358 2.240
53.9661 1.823
53.9964 1.823
54.0266 2.031
54.0569 2.083
54.0872 1.927
54.1175 1.719
54.1478 1.771
54.1780 1.823
54.2083 1.979
54.2386 2.083
54.2689 1.979
54.2991 2.135
54.3294 1.719
54.3597 1.615
54.3900 1.562
54.4203 1.771
54.4505 1.771
54.4808 1.823
54.5111 2.135
54.5414 1.771
54.5717 2.396
54.6019 2.187
54.6322 1.823
54.6625 1.875
54.6928 2.344
54.7230 1.823
54.7533 2.552
54.7836 2.135
54.8139 3.021
54.8442 1.979
54.8744 2.031
54.9047 2.240
54.9350 2.031
54.9653 2.552
54.9956 2.187
55.0258 2.500
55.0561 2.448
55.0864 2.448
55.1167 2.969
55.1469 2.656
55.1772 2.812
55.2075 2.917
55.2378 2.865
55.2681 2.344
55.2983 3.073
55.3286 2.135
55.3589 2.344
55.3892 3.229
55.4195 2.344
55.4497 2.604
55.4800 2.292
55.5103 3.281
55.5406 2.865
55.5709 3.021
55.6011 3.333
55.6314 3.385
55.6617 3.229
55.6920 3.073
55.7222 3.802
55.7525 3.281
55.7828 3.229
55.8131 4.167
55.8434 4.323
55.8736 4.271
55.9039 4.687
55.9342 4.687
55.9645 6.042
55.9948 5.156
56.0250 4.479
56.0553 7.656
56.0856 5.885
56.1159 6.719
56.1461 7.812
56.1764 7.708
56.2067 8.490
56.2370 9.219
56.2673 9.583
56.2975 10.937
56.3278 11.875
56.3581 11.615
56.3884 13.802
56.4187 15.677
56.4489 15.521
56.4792 15.052
56.5095 17.552
56.5398 14.844
56.5700 14.271
56.6003 13.073
56.6306 13.281
56.6609 11.562
56.6912 9.948
56.7214 9.583
56.7517 9.062
56.7820 8.542
56.8123 8.490
56.8426 6.510
56.8728 6.042
56.9031 6.875
56.9334 5.208
56.9637 6.146
56.9939 5.417
57.0242 5.573
57.0545 3.854
57.0848 3.958
57.1151 4.896
57.1453 4.635
57.1756 3.594
57.2059 3.802
57.2362 4.115
57.2665 3.854
57.2967 3.594
57.3270 2.969
57.3573 3.490
57.3876 3.073
57.4178 2.812
57.4481 2.604
57.4784 3.229
57.5087 3.490
57.5390 2.500
57.5692 2.812
57.5995 2.292
57.6298 2.031
57.6601 2.865
57.6904 2.760
57.7206 2.865
57.7509 2.083
57.7812 2.865
57.8115 1.875
57.8417 2.031
57.8720 2.396
57.9023 2.604
57.9326 2.865
57.9629 2.135
57.9931 1.615
58.0234 2.031
58.0537 2.240
58.0840 2.292
58.1143 2.135
58.1445 1.562
58.1748 1.562
58.2051 2.760
58.2354 1.562
58.2656 1.562
58.2959 2.187
58.3262 2.292
58.3565 1.615
58.3868 2.292
58.4170 2.240
58.4473 2.135
58.4776 2.344
58.5079 1.406
58.5382 2.083
58.5684 2.187
58.5987 2.292
58.6290 1.562
58.6593 1.667
58.6896 1.875
58.7198 1.250
58.7501 2.344
58.7804 2.344
58.8107 1.823
58.8409 1.771
58.8712 1.667
58.9015 2.187
58.9318 2.135
58.9621 1.615
58.9923 1.719
59.0226 1.979
59.0529 1.823
59.0832 1.458
59.1135 1.927
59.1437 1.875
59.1740 2.187
59.2043 1.875
59.2346 1.823
59.2648 1.562
59.2951 1.458
59.3254 2.135
59.3557 1.771
59.3860 1.823
59.4162 2.187
59.4465 1.406
59.4768 2.500
59.5071 1.458
59.5374 1.719
59.5676 2.760
59.5979 2.031
59.6282 1.771
59.6585 2.031
59.6887 1.510
59.7190 2.031
59.7493 1.615
59.7796 2.031
59.8099 1.719
59.8401 2.135
59.8704 2.031
59.9007 2.187
59.9310 1.875
59.9613 1.875
59.9915 2.344
60.0218 1.094
60.0521 2.135
60.0824 1.875
60.1126 2.187
60.1429 1.719
60.1732 1.823
60.2035 2.135
60.2338 1.979
60.2640 2.135
60.2943 1.979
60.3246 1.719
60.3549 1.615
60.3852 1.875
60.4154 2.656
60.4457 1.615
60.4760 2.448
60.5063 1.927
60.5365 1.979
60.5668 2.083
60.5971 2.448
60.6274 2.396
60.6577 1.875
60.6879 1.615
60.7182 2.292
60.7485 1.615
60.7788 1.875
60.8091 2.083
60.8393 1.354
60.8696 2.292
60.8999 2.396
60.9302 1.979
60.9604 1.875
60.9907 1.771
61.0210 1.615
61.0513 2.500
61.0816 1.771
61.1118 2.448
61.1421 1.667
61.1724 2.187
61.2027 1.719
61.2330 1.979
61.2632 2.396
61.2935 2.500
61.3238 1.823
61.3541 2.135
61.3844 1.927
61.4146 2.292
61.4449 1.927
61.4752 2.396
61.5055 2.604
61.5357 2.812
61.5660 2.344
61.5963 2.396
61.6266 2.083
61.6569 3.073
61.6871 2.344
61.7174 2.344
61.7477 2.760
61.7780 2.812
61.8083 2.344
61.8385 3.437
61.8688 3.021
61.8991 2.917
61.9294 2.344
61.9596 2.031
61.9899 3.021
62.0202 3.021
62.0505 3.437
62.0808 3.229
62.1110 2.969
62.1413 3.750
62.1716 3.542
62.2019 4.271
62.2322 3.906
62.2624 4.792
62.2927 4.323
62.3230 5.469
62.3533 5.781
62.3835 5.990
62.4138 6.302
62.4441 6.302
62.4744 7.083
62.5047 7.865
62.5349 8.906
62.5652 9.687
62.5955 10.417
62.6258 10.990
62.6561 11.771
62.6863 13.125
62.7166 13.594
62.7469 12.969
62.7772 13.958
62.8074 12.500
62.8377 11.927
62.8680 12.187
62.8983 10.885
62.9286 9.427
62.9588 11.094
62.9891 10.104
63.0194 9.687
63.0497 7.917
63.0800 7.812
63.1102 6.042
63.1405 6.562
63.1708 5.729
63.2011 5.521
63.2313 4.896
63.2616 4.740
63.2919 3.646
63.3222 3.854
63.3525 3.333
63.3827 3.802
63.4130 2.552
63.4433 3.385
63.4736 2.344
63.5039 2.396
63.5341 3.750
63.5644 2.500
63.5947 3.437
63.6250 2.604
63.6552 2.604
63.6855 2.760
63.7158 2.135
63.7461 2.396
63.7764 2.448
63.8066 2.604
63.8369 2.292
63.8672 2.500
63.8975 2.292
63.9278 2.396
63.9580 2.760
63.9883 2.448
64.0186 2.656
64.0489 2.448
64.0791 1.719
64.1094 2.240
64.1397 1.667
64.1700 2.396
64.2003 2.292
64.2305 2.135
64.2608 2.500
64.2911 2.187
64.3214 2.135
64.3517 1.719
64.3819 2.552
64.4122 2.187
64.4425 2.500
64.4728 2.083
64.5031 1.927
64.5333 2.083
64.5636 2.240
64.5939 2.552
64.6242 2.083
64.6544 1.458
64.6847 2.135
64.7150 2.760
64.7453 1.667
64.7756 2.083
64.8058 2.187
64.8361 2.135
64.8664 2.344
64.8967 2.187
64.9270 2.500
64.9572 2.135
64.9875 1.667
65.0178 1.719
65.0481 2.135
65.0783 1.771
65.1086 1.823
65.1389 1.562
65.1692 2.083
65.1995 1.771
65.2297 1.458
65.2600 2.031
65.2903 2.083
65.3206 2.187
65.3509 2.240
65.3811 1.875
65.4114 2.396
65.4417 1.667
65.4720 2.031
65.5022 2.396
65.5325 2.187
65.5628 2.240
65.5931 2.083
65.6234 2.969
65.6536 2.292
65.6839 1.771
65.7142 2.031
65.7445 2.448
65.7748 2.292
65.8050 1.979
65.8353 2.344
65.8656 2.135
65.8959 2.865
65.9261 2.292
65.9564 2.812
65.9867 2.865
66.0170 2.604
66.0473 3.021
66.0775 3.437
66.1078 4.010
66.1381 3.021
66.1684 3.542
66.1987 2.969
66.2289 4.115
66.2592 3.333
66.2895 3.021
66.3198 3.646
66.3500 2.917
66.3803 3.958
66.4106 2.917
66.4409 3.177
66.4712 3.854
66.5014 3.073
66.5317 2.656
66.5620 2.969
66.5923 3.490
66.6226 2.865
66.6528 3.646
66.6831 2.135
66.7134 3.073
66.7437 2.760
66.7739 2.396
66.8042 2.969
66.8345 3.594
66.8648 2.292
66.8951 2.760
66.9253 2.812
66.9556 2.500
66.9859 3.177
67.0162 3.437
67.0465 3.437
67.0767 3.125
67.1070 3.542
67.1373 3.021
67.1676 4.010
67.1978 3.906
67.2281 3.542
67.2584 4.479
67.2887 4.479
67.3190 5.521
67.3492 4.219
67.3795 4.844
67.4098 4.531
67.4401 4.479
67.4704 5.000
67.5006 6.406
67.5309 4.583
67.5612 5.990
67.5915 6.042
67.6218 7.396
67.6520 7.187
67.6823 8.646
67.7126 7.812
67.7429 8.906
67.7731 10.156
67.8034 9.792
67.8337 9.687
67.8640 8.646
67.8943 8.750
67.9245 9.792
67.9548 9.531
67.9851 8.542
68.0154 9.010
68.0457 8.073
68.0759 8.385
68.1062 6.823
68.1365 6.250
68.1668 7.135
68.1970 6.302
68.2273 6.042
68.2576 7.135
68.2879 5.885
68.3182 5.625
68.3484 5.208
68.3787 5.937
68.4090 4.479
68.4393 4.948
68.4696 3.490
68.4998 3.854
68.5301 3.906
68.5604 4.010
68.5907 4.219
68.6209 4.323
68.6512 5.365
68.6815 5.365
68.7118 5.260
68.7421 4.687
68.7723 4.115
68.8026 5.104
68.8329 5.521
68.8632 5.365
68.8935 5.208
68.9237 5.417
68.9540 5.521
68.9843 5.677
69.0146 4.948
69.0448 5.156
69.0751 4.375
69.1054 5.104
69.1357 5.104
69.1660 5.104
69.1962 4.740
69.2265 5.156
69.2568 3.906
69.2871 3.802
69.3174 3.385
69.3476 3.021
69.3779 3.958
69.4082 3.698
69.4385 2.604
69.4687 2.604
69.4990 3.750
69.5293 2.552
69.5596 2.344
69.5899 3.125
69.6201 2.396
69.6504 2.187
69.6807 2.708
69.7110 2.760
69.7413 2.083
69.7715 2.292
69.8018 1.771
69.8321 2.240
69.8624 2.240
69.8926 1.823
69.9229 2.135
69.9532 1.510
69.9835 1.979
70.0138 1.719
70.0440 2.292
70.0743 1.667
70.1046 2.135
70.1349 1.771
70.1652 1.875
70.1954 1.719
70.2257 1.875
70.2560 1.875
70.2863 1.198
70.3166 1.510
70.3468 1.667
70.3771 1.406
70.4074 1.615
70.4377 1.771
70.4679 2.083
70.4982 1.823
70.5285 1.510
70.5588 1.875
70.5891 1.927
70.6193 1.510
70.6496 1.354
70.6799 1.615
70.7102 1.562
70.7405 1.771
70.7707 1.979
70.8010 1.719
70.8313 1.562
70.8616 1.927
70.8918 1.875
70.9221 1.927
70.9524 1.302
70.9827 1.094
71.0130 1.354
71.0432 1.406
71.0735 1.250
71.1038 1.771
71.1341 1.510
71.1644 1.667
71.1946 2.083
71.2249 1.562
71.2552 1.146
71.2855 1.198
71.3157 1.615
71.3460 1.771
71.3763 1.562
71.4066 1.615
71.4369 1.562
71.4671 1.354
71.4974 1.771
71.5277 1.562
71.5580 1.302
71.5883 1.250
71.6185 1.198
71.6488 1.406
71.6791 1.719
71.7094 1.667
71.7396 1.198
71.7699 1.823
71.8002 1.510
71.8305 1.771
71.8608 1.146
71.8910 1.250
71.9213 1.458
71.9516 1.667
71.9819 1.458
72.0122 1.615
72.0424 1.771
72.0727 1.875
72.1030 1.615
72.1333 1.406
72.1635 1.615
72.1938 1.927
72.2241 1.927
72.2544 1.719
72.2847 1.719
72.3149 1.823
72.3452 2.344
72.3755 1.510
72.4058 1.875
72.4361 2.656
72.4663 2.500
72.4966 2.031
72.5269 2.240
72.5572 2.187
72.5874 1.875
72.6177 1.562
72.6480 2.656
72.6783 1.979
72.7086 1.927
72.7388 1.927
72.7691 1.302
72.7994 1.771
72.8297 1.615
72.8600 1.719
72.8902 1.719
72.9205 1.198
72.9508 1.667
72.9811 1.562
73.0113 1.667
73.0416 1.562
73.0719 1.354
73.1022 1.458
73.1325 0.990
73.1627 1.250
73.1930 1.146
73.2233 1.146
73.2536 1.458
73.2839 1.458
73.3141 1.250
73.3444 1.406
73.3747 1.615
73.4050 1.250
73.4353 1.458
73.4655 1.458
73.4958 1.615
73.5261 1.406
73.5564 0.885
73.5866 1.302
73.6169 1.615
73.6472 1.302
73.6775 1.094
73.7078 0.833
73.7380 1.250
73.7683 1.302
73.7986 1.354
73.8289 0.937
73.8592 1.146
73.8894 1.406
73.9197 1.719
73.9500 1.042
73.9803 1.510
74.0105 1.354
74.0408 1.094
74.0711 0.729
74.1014 1.198
74.1317 0.885
74.1619 1.250
74.1922 0.833
74.2225 1.354
74.2528 1.458
74.2831 1.354
74.3133 1.406
74.3436 1.094
74.3739 1.771
74.4042 0.937
74.4344 0.677
74.4647 0.729
74.4950 0.885
74.5253 1.250
74.5556 1.198
74.5858 1.458
74.6161 1.198
74.6464 0.937
74.6767 1.146
74.7070 1.042
74.7372 1.094
74.7675 1.302
74.7978 0.781
74.8281 1.510
74.8583 1.198
74.8886 1.042
74.9189 1.198
74.9492 1.250
74.9795 1.042
75.0097 1.354
75.0400 1.146
75.0703 1.198
75.1006 1.198
75.1309 1.250
75.1611 1.406
75.1914 1.302
75.2217 1.354
75.2520 1.667
75.2822 0.937
75.3125 1.302
75.3428 0.833
75.3731 2.031
75.4034 1.146
75.4336 0.885
75.4639 1.354
75.4942 1.458
75.5245 1.302
75.5548 1.094
75.5850 1.510
75.6153 1.146
75.6456 1.458
75.6759 0.937
75.7061 1.146
75.7364 1.094
75.7667 1.719
75.7970 1.302
75.8273 1.927
75.8575 1.250
75.8878 1.510
75.9181 0.521
75.9484 1.562
75.9787 1.146
76.0089 1.198
76.0392 1.562
76.0695 1.302
76.0998 1.406
76.1301 1.042
76.1603 1.510
76.1906 1.667
76.2209 1.406
76.2512 1.667
76.2814 1.250
76.3117 1.302
76.3420 2.031
76.3723 1.458
76.4026 1.615
76.4328 1.302
76.4631 1.615
76.4934 1.458
76.5237 1.771
76.5540 1.927
76.5842 1.406
76.6145 2.187
76.6448 2.135
76.6751 2.604
76.7053 2.031
76.7356 1.719
76.7659 2.187
76.7962 2.292
76.8265 1.354
76.8567 1.771
76.8870 2.187
76.9173 1.875
76.9476 2.344
76.9779 2.604
77.0081 2.344
77.0384 1.250
77.0687 2.708
77.0990 1.667
77.1292 1.510
77.1595 1.719
77.1898 2.135
77.2201 1.667
77.2504 1.771
77.2806 1.562
77.3109 2.031
77.3412 1.406
77.3715 1.406
77.4018 1.250
77.4320 1.406
77.4623 1.198
77.4926 1.667
77.5229 1.510
77.5531 1.667
77.5834 1.406
77.6137 0.833
77.6440 1.510
77.6743 1.094
77.7045 1.302
77.7348 1.042
77.7651 1.094
77.7954 1.458
77.8257 1.667
77.8559 1.198
77.8862 1.094
77.9165 1.198
77.9468 0.885
77.9770 1.198
78.0073 1.302
78.0376 1.302
78.0679 1.615
78.0982 1.875
78.1284 1.094
78.1587 1.302
78.1890 1.198
78.2193 1.302
78.2496 1.042
78.2798 1.198
78.3101 1.094
78.3404 1.771
78.3707 1.094
78.4009 0.885
78.4312 1.458
78.4615 1.406
78.4918 1.302
78.5221 1.406
78.5523 0.833
78.5826 1.198
78.6129 1.302
78.6432 1.198
78.6735 0.990
78.7037 1.354
78.7340 0.729
78.7643 1.354
78.7946 1.042
78.8248 1.458
78.8551 1.719
78.8854 1.302
78.9157 1.094
78.9460 0.937
78.9762 1.667
79.0065 1.250
79.0368 1.094
79.0671 1.146
79.0974 0.937
79.1276 1.302
79.1579 1.302
79.1882 1.510
79.2185 0.937
79.2488 1.094
79.2790 1.146
79.3093 1.094
79.3396 1.146
79.3699 1.146
79.4001 1.094
79.4304 1.302
79.4607 1.302
79.4910 1.250
79.5213 1.198
79.5515 1.146
79.5818 1.042
79.6121 1.354
79.6424 1.250
79.6727 1.146
79.7029 1.406
79.7332 1.146
79.7635 0.937
79.7938 1.875
79.8240 0.885
79.8543 1.250
79.8846 1.146
79.9149 1.198
79.9452 0.990
79.9754 1.146
80.0057 0.937
80.0360 0.885
80.0663 1.406
80.0966 1.562
80.1268 0.729
80.1571 0.781
80.1874 1.354
80.2177 1.094
80.2479 0.937
80.2782 0.937
80.3085 1.198
80.3388 1.198
80.3691 1.458
80.3993 0.990
80.4296 1.250
80.4599 1.198
80.4902 1.458
80.5205 0.937
80.5507 1.198
80.5810 1.615
80.6113 1.458
80.6416 1.458
80.6718 1.354
80.7021 0.990
80.7324 1.042
80.7627 1.094
80.7930 1.250
80.8232 1.667
80.8535 1.094
80.8838 1.094
80.9141 1.250
80.9444 1.458
80.9746 1.250
81.0049 1.406
81.0352 1.302
81.0655 1.510
81.0957 1.927
81.1260 1.406
81.1563 1.354
81.1866 1.771
81.2169 1.719
81.2471 2.031
81.2774 1.562
81.3077 1.615
81.3380 1.719
81.3683 1.458
81.3985 1.771
81.4288 1.198
81.4591 1.667
81.4894 1.615
81.5196 1.927
81.5499 1.615
81.5802 1.198
81.6105 1.667
81.6408 1.615
81.6710 1.562
81.7013 1.406
81.7316 1.823
81.7619 1.562
81.7922 1.510
81.8224 1.510
81.8527 1.302
81.8830 0.990
81.9133 1.198
81.9436 1.198
81.9738 1.094
82.0041 1.562
82.0344 1.979
82.0647 1.042
82.0949 0.885
82.1252 1.146
82.1555 1.042
82.1858 1.198
82.2161 1.250
82.2463 1.406
82.2766 1.146
82.3069 1.198
82.3372 1.354
82.3675 1.146
82.3977 1.042
82.4280 0.729
82.4583 1.094
82.4886 1.562
82.5188 1.042
82.5491 1.198
82.5794 1.094
82.6097 1.406
82.6400 1.406
82.6702 0.990
82.7005 1.354
82.7308 1.198
82.7611 1.094
82.7914 1.198
82.8216 1.250
82.8519 1.250
82.8822 0.937
82.9125 1.250
82.9427 1.458
82.9730 0.885
83.0033 1.094
83.0336 1.198
83.0639 1.406
83.0941 1.250
83.1244 0.729
83.1547 1.146
83.1850 1.667
83.2153 1.198
83.2455 0.937
83.2758 1.042
83.3061 1.458
83.3364 0.990
83.3666 1.875
83.3969 1.458
83.4272 1.198
83.4575 1.406
83.4878 1.198
83.5180 1.042
83.5483 1.094
83.5786 1.771
83.6089 1.354
83.6392 1.042
83.6694 1.458
83.6997 1.198
83.7300 0.677
83.7603 1.094
83.7905 1.198
83.8208 1.042
83.8511 1.250
83.8814 1.250
83.9117 1.094
83.9419 1.250
83.9722 1.458
84.0025 0.781
84.0328 0.781
84.0631 0.781
84.0933 1.198
84.1236 0.781
84.1539 1.042
84.1842 0.937
84.2144 0.937
84.2447 1.667
84.2750 1.615
84.3053 1.146
84.3356 1.198
84.3658 1.146
84.3961 1.198
84.4264 1.302
84.4567 0.937
84.4870 1.042
84.5172 0.781
84.5475 1.510
84.5778 0.937
84.6081 1.146
84.6383 1.198
84.6686 1.198
84.6989 1.042
84.7292 1.302
84.7595 1.198
84.7897 1.406
84.8200 1.198
84.8503 0.781
84.8806 1.146
84.9109 1.198
84.9411 1.250
84.9714 0.833
85.0017 1.146
85.0320 1.094
85.0623 1.198
85.0925 1.354
85.1228 1.042
85.1531 0.729
85.1834 1.094
85.2136 1.406
85.2439 1.042
85.2742 1.302
85.3045 1.458
85.3348 1.354
85.3650 1.198
85.3953 0.990
85.4256 1.146
85.4559 1.250
85.4862 1.510
85.5164 1.198
85.5467 1.146
85.5770 1.354
85.6073 1.250
85.6375 1.250
85.6678 1.302
85.6981 1.198
85.7284 1.667
85.7587 0.990
85.7889 1.042
85.8192 1.510
85.8495 0.990
85.8798 0.677
85.9101 0.937
85.9403 1.094
85.9706 1.042
86.0009 1.354
86.0312 0.937
86.0614 1.510
86.0917 1.094
86.1220 1.198
86.1523 1.146
86.1826 0.937
86.2128 1.510
86.2431 1.094
86.2734 0.677
86.3037 1.146
86.3340 1.250
86.3642 1.198
86.3945 0.885
86.4248 1.250
86.4551 1.094
86.4853 0.625
86.5156 1.198
86.5459 0.937
86.5762 1.198
86.6065 1.615
86.6367 1.406
86.6670 1.406
86.6973 1.510
86.7276 0.729
86.7579 1.198
86.7881 0.885
86.8184 1.198
86.8487 1.146
86.8790 1.250
86.9092 1.198
86.9395 1.979
86.9698 1.146
87.0001 1.562
87.0304 0.937
87.0606 1.042
87.0909 1.042
87.1212 1.146
87.1515 1.302
87.1818 1.198
87.2120 1.302
87.2423 0.937
87.2726 1.667
87.3029 1.458
87.3331 1.302
87.3634 1.406
87.3937 1.198
87.4240 1.302
87.4543 1.562
87.4845 0.990
87.5148 1.302
87.5451 1.510
87.5754 1.198
87.6057 1.615
87.6359 1.302
87.6662 1.198
87.6965 1.667
87.7268 0.937
87.7571 1.406
87.7873 1.354
87.8176 1.198
87.8479 1.094
87.8782 1.302
87.9084 0.937
87.9387 1.510
87.9690 0.885
87.9993 1.562
88.0296 1.094
88.0598 1.406
88.0901 1.615
88.1204 1.667
88.1507 1.562
88.1810 1.354
88.2112 1.354
88.2415 1.146
88.2718 1.354
88.3021 1.354
88.3323 1.406
88.3626 0.937
88.3929 1.823
88.4232 1.354
88.4535 1.771
88.4837 1.354
88.5140 1.198
88.5443 1.458
88.5746 1.406
88.6049 1.458
88.6351 1.562
88.6654 1.250
88.6957 1.146
88.7260 1.510
88.7562 1.406
88.7865 1.615
88.8168 1.771
88.8471 1.667
88.8774 1.562
88.9076 1.250
88.9379 1.406
88.9682 1.667
88.9985 1.771
89.0288 1.667
89.0590 2.344
89.0893 1.823
89.1196 2.344
89.1499 1.562
89.1801 2.500
89.2104 2.552
89.2407 1.927
89.2710 3.125
89.3013 1.823
89.3315 2.656
89.3618 2.865
89.3921 2.604
89.4224 2.292
89.4527 2.969
89.4829 2.500
89.5132 2.708
89.5435 2.552
89.5738 3.385
89.6040 2.240
89.6343 2.604
89.6646 3.594
89.6949 3.073
89.7252 2.604
89.7554 2.917
89.7857 2.917
89.8160 2.031
89.8463 2.344
89.8766 2.500
89.9068 2.656
89.9371 2.500
89.9674 2.344
89.9977 2.969
90.0279 1.979
90.0582 1.771
90.0885 1.927
90.1188 2.135
90.1491 1.094
90.1793 1.562
90.2096 1.771
90.2399 1.510
90.2702 1.719
90.3005 1.719
90.3307 1.458
90.3610 1.771
90.3913 1.667
90.4216 0.729
90.4518 1.615
90.4821 1.146
90.5124 1.146
90.5427 1.250
90.5730 1.667
90.6032 1.198
90.6335 1.667
90.6638 1.094
90.6941 1.875
90.7244 1.198
90.7546 2.135
90.7849 1.302
90.8152 0.885
90.8455 1.719
90.8758 1.667
90.9060 1.250
90.9363 1.667
90.9666 1.302
90.9969 1.615
91.0271 1.458
91.0574 0.729
91.0877 1.510
91.1180 1.406
91.1483 1.198
91.1785 1.198
91.2088 1.615
91.2391 1.667
91.2694 1.250
91.2997 1.615
91.3299 1.458
91.3602 1.771
91.3905 1.042
91.4208 1.406
91.4510 1.667
91.4813 1.198
91.5116 1.406
91.5419 1.562
91.5722 1.510
91.6024 1.458
91.6327 1.198
91.6630 1.354
91.6933 1.198
91.7236 1.354
91.7538 1.146
91.7841 1.094
91.8144 1.198
91.8447 0.937
91.8749 1.562
91.9052 1.146
91.9355 1.406
91.9658 1.719
91.9961 1.719
92.0263 1.198
92.0566 1.302
92.0869 0.990
92.1172 1.406
92.1475 1.562
92.1777 1.667
92.2080 1.510
92.2383 2.187
92.2686 1.458
92.2988 1.354
92.3291 1.510
92.3594 1.823
92.3897 1.615
92.4200 1.667
92.4502 1.979
92.4805 1.406
92.5108 1.250
92.5411 1.875
92.5714 1.719
92.6016 2.344
92.6319 1.667
92.6622 1.823
92.6925 1.719
92.7227 1.458
92.7530 1.510
92.7833 1.979
92.8136 1.458
92.8439 2.187
92.8741 1.615
92.9044 2.240
92.9347 1.510
92.9650 1.615
92.9953 1.719
93.0255 1.302
93.0558 1.719
93.0861 1.510
93.1164 1.354
93.1466 1.667
93.1769 1.667
93.2072 1.615
93.2375 1.510
93.2678 1.302
93.2980 1.302
93.3283 1.719
93.3586 1.302
93.3889 1.719
93.4192 1.719
93.4494 1.406
93.4797 1.667
93.5100 1.562
93.5403 1.615
93.5706 1.823
93.6008 0.937
93.6311 0.990
93.6614 1.562
93.6917 1.719
93.7219 1.146
93.7522 1.719
93.7825 1.250
93.8128 1.458
93.8431 1.302
93.8733 0.990
93.9036 1.562
93.9339 1.719
93.9642 1.094
93.9945 1.719
94.0247 1.198
94.0550 1.250
94.0853 1.302
94.1156 1.146
94.1458 1.719
94.1761 1.562
94.2064 1.510
94.2367 1.510
94.2670 1.719
94.2972 1.667
94.3275 1.458
94.3578 1.875
94.3881 1.406
94.4184 1.562
94.4486 1.354
94.4789 1.719
94.5092 1.354
94.5395 2.031
94.5697 2.187
94.6000 2.031
94.6303 2.187
94.6606 2.031
94.6909 1.823
94.7211 1.875
94.7514 1.615
94.7817 2.240
94.8120 2.187
94.8423 2.292
94.8725 2.552
94.9028 1.979
94.9331 2.240
94.9634 2.917
94.9936 2.187
95.0239 2.552
95.0542 2.552
95.0845 2.396
95.1148 2.917
95.1450 3.177
95.1753 2.656
95.2056 3.021
95.2359 2.396
95.2662 1.927
95.2964 3.073
95.3267 2.656
95.3570 2.500
95.3873 2.708
95.4175 3.021
95.4478 2.708
95.4781 2.500
95.5084 2.604
95.5387 2.865
95.5689 2.344
95.5992 2.865
95.6295 1.979
95.6598 2.865
95.6901 2.240
95.7203 1.719
95.7506 1.979
95.7809 1.719
95.8112 1.823
95.8414 2.135
95.8717 1.771
95.9020 1.927
95.9323 2.031
95.9626 1.458
95.9928 1.771
96.0231 1.719
96.0534 1.250
96.0837 1.615
96.1140 1.979
96.1442 1.302
96.1745 1.510
96.2048 1.458
96.2351 1.771
96.2653 1.927
96.2956 1.771
96.3259 1.302
96.3562 1.458
96.3865 1.927
96.4167 1.146
96.4470 1.406
96.4773 0.990
96.5076 1.562
96.5379 1.510
96.5681 1.719
96.5984 0.990
96.6287 1.719
96.6590 1.406
96.6893 1.354
96.7195 1.615
96.7498 1.458
96.7801 1.302
96.8104 1.250
96.8406 1.250
96.8709 0.990
96.9012 1.250
96.9315 0.885
96.9618 1.302
96.9920 1.510
97.0223 1.146
97.0526 0.990
97.0829 1.354
97.1132 0.833
97.1434 1.302
97.1737 1.250
97.2040 1.094
97.2343 1.667
97.2645 1.198
97.2948 1.302
97.3251 0.937
97.3554 1.094
97.3857 1.719
97.4159 1.198
97.4462 0.990
97.4765 0.990
97.5068 1.823
97.5371 1.771
97.5673 1.615
97.5976 1.354
97.6279 1.302
97.6582 1.146
97.6884 1.510
97.7187 1.667
97.7490 1.458
97.7793 1.667
97.8096 1.406
97.8398 1.615
97.8701 1.979
97.9004 1.406
97.9307 2.344
97.9610 1.771
97.9912 1.771
98.0215 1.458
98.0518 2.135
98.0821 2.292
98.1123 1.302
98.1426 1.250
98.1729 2.292
98.2032 1.719
98.2335 1.510
98.2637 1.615
98.2940 1.667
98.3243 2.396
98.3546 2.552
98.3849 1.771
98.4151 1.771
98.4454 1.719
98.4757 2.135
98.5060 2.292
98.5362 1.927
98.5665 2.344
98.5968 2.708
98.6271 2.135
98.6574 1.979
98.6876 2.083
98.7179 1.771
98.7482 1.927
98.7785 1.875
98.8088 1.979
98.8390 1.510
98.8693 2.292
98.8996 1.458
98.9299 1.823
98.9601 1.510
98.9904 1.406
99.0207 2.031
99.0510 1.562
99.0813 1.719
99.1115 2.292
99.1418 1.823
99.1721 1.302
99.2024 1.667
99.2327 1.302
99.2629 1.510
99.2932 1.771
99.3235 1.458
99.3538 1.458
99.3841 1.354
99.4143 1.302
99.4446 1.771
99.4749 1.250
99.5052 1.458
99.5354 1.510
99.5657 0.990
99.5960 0.885
99.6263 1.198
99.6566 1.094
99.6868 1.458
99.7171 1.198
99.7474 1.042
99.7777 1.042
99.8080 1.250
99.8382 1.823
99.8685 1.250
99.8988 1.250
99.9291 1.562
99.9593 0.885
99.9896 1.302
100.0199 1.458
100.0502 1.250
100.0805 1.354
100.1107 1.667
100.1410 1.094
100.1713 1.250
100.2016 1.615
100.2319 1.250
100.2621 1.354
100.2924 1.302
100.3227 1.302
100.3530 0.729
100.3832 1.146
100.4135 1.250
100.4438 1.094
100.4741 1.042
100.5044 1.771
100.5346 1.458
100.5649 1.458
100.5952 1.302
100.6255 1.406
100.6558 0.990
100.6860 2.031
100.7163 1.250
100.7466 1.406
100.7769 1.562
100.8071 0.990
100.8374 0.937
100.8677 1.146
100.8980 1.042
100.9283 1.458
100.9585 1.302
100.9888 1.042
101.0191 1.615
101.0494 1.302
101.0797 1.250
101.1099 1.927
101.1402 0.833
101.1705 1.823
101.2008 1.302
101.2310 0.990
101.2613 1.354
101.2916 1.094
101.3219 1.302
101.3522 1.615
101.3824 1.146
101.4127 1.302
101.4430 1.354
101.4733 1.354
101.5036 1.615
101.5338 1.458
101.5641 1.354
101.5944 1.198
101.6247 1.354
101.6549 1.458
101.6852 1.302
101.7155 1.198
101.7458 1.667
101.7761 2.135
101.8063 1.719
101.8366 1.667
101.8669 1.615
101.8972 1.510
101.9275 1.302
101.9577 1.406
101.9880 1.615
102.0183 1.354
102.0486 1.719
102.0788 1.250
102.1091 1.615
102.1394 1.458
102.1697 1.302
102.2000 2.187
102.2302 2.135
102.2605 1.458
102.2908 1.302
102.3211 1.146
102.3514 1.927
102.3816 1.250
102.4119 1.354
102.4422 1.510
102.4725 1.771
102.5028 1.719
102.5330 1.562
102.5633 1.927
102.5936 1.302
102.6239 1.354
102.6541 1.875
102.6844 2.187
102.7147 1.875
102.7450 1.823
102.7753 1.979
102.8055 1.615
102.8358 1.875
102.8661 1.875
102.8964 2.240
102.9267 1.615
102.9569 1.823
102.9872 1.719
103.0175 1.927
103.0478 1.875
103.0780 1.354
103.1083 1.615
103.1386 1.927
103.1689 1.927
103.1992 1.875
103.2294 2.031
103.2597 2.240
103.2900 1.667
103.3203 1.979
103.3506 1.406
103.3808 2.187
103.4111 2.031
103.4414 1.458
103.4717 1.667
103.5019 2.292
103.5322 1.875
103.5625 1.927
103.5928 2.135
103.6231 2.031
103.6533 2.031
103.6836 2.135
103.7139 2.292
103.7442 1.771
103.7745 2.031
103.8047 2.344
103.8350 1.979
103.8653 2.240
103.8956 2.396
103.9258 2.396
103.9561 2.083
103.9864 3.021
104.0167 2.865
104.0470 2.240
104.0772 2.240
104.1075 2.656
104.1378 2.292
104.1681 2.344
104.1984 2.240
104.2286 2.187
104.2589 2.448
104.2892 2.448
104.3195 2.187
104.3497 1.927
104.3800 1.927
104.4103 1.979
104.4406 2.031
104.4709 3.125
104.5011 1.927
104.5314 1.927
104.5617 2.135
104.5920 2.240
104.6223 1.458
104.6525 1.823
104.6828 1.510
104.7131 1.562
104.7434 1.823
104.7736 1.406
104.8039 1.562
104.8342 1.094
104.8645 1.510
104.8948 1.562
104.9250 1.927
104.9553 1.771
104.9856 1.250
105.0159 1.667
105.0462 1.250
105.0764 1.302
105.1067 1.354
105.1370 1.250
105.1673 1.250
105.1975 1.823
105.2278 1.458
105.2581 1.302
105.2884 1.406
105.3187 1.406
105.3489 1.302
105.3792 1.094
105.4095 1.406
105.4398 1.094
105.4701 1.042
105.5003 1.302
105.5306 1.510
105.5609 1.458
105.5912 0.781
105.6215 1.146
105.6517 1.406
105.6820 1.875
105.7123 1.719
105.7426 1.250
105.7728 1.562
105.8031 0.990
105.8334 1.771
105.8637 1.198
105.8940 1.406
105.9242 1.458
105.9545 1.198
105.9848 1.458
106.0151 1.250
106.0454 1.250
106.0756 1.354
106.1059 1.562
106.1362 1.458
106.1665 1.875
106.1967 1.615
106.2270 1.615
106.2573 0.885
106.2876 1.198
106.3179 1.354
106.3481 1.406
106.3784 1.458
106.4087 1.042
106.4390 0.885
106.4693 1.198
106.4995 1.250
106.5298 1.250
106.5601 1.302
106.5904 1.302
106.6206 1.510
106.6509 1.146
106.6812 1.354
106.7115 1.458
106.7418 1.979
106.7720 0.885
106.8023 1.562
106.8326 1.458
106.8629 0.937
106.8932 1.198
106.9234 1.562
106.9537 0.990
106.9840 1.979
107.0143 1.042
107.0445 1.406
107.0748 1.302
107.1051 1.615
107.1354 1.406
107.1657 1.406
107.1959 1.302
107.2262 1.615
107.2565 1.406
107.2868 1.354
107.3171 1.198
107.3473 1.823
107.3776 1.458
107.4079 1.875
107.4382 1.250
107.4684 1.354
107.4987 1.198
107.5290 1.198
107.5593 1.458
107.5896 1.510
107.6198 1.510
107.6501 1.146
107.6804 1.094
107.7107 1.510
107.7410 1.146
107.7712 1.458
107.8015 1.302
107.8318 1.354
107.8621 0.885
107.8923 1.042
107.9226 0.990
107.9529 1.042
107.9832 1.458
108.0135 1.510
108.0437 1.406
108.0740 0.833
108.1043 1.354
108.1346 0.937
108.1649 1.354
108.1951 1.042
108.2254 1.250
108.2557 1.354
108.2860 1.354
108.3163 1.510
108.3465 1.302
108.3768 0.990
108.4071 0.990
108.4374 1.354
108.4676 1.875
108.4979 1.458
108.5282 1.198
108.5585 0.781
108.5888 0.990
108.6190 1.198
108.6493 1.042
108.6796 1.302
108.7099 0.729
108.7402 1.562
108.7704 1.042
108.8007 1.406
108.8310 0.937
108.8613 1.354
108.8915 0.885
108.9218 1.458
108.9521 1.198
108.9824 1.823
109.0127 1.406
109.0429 1.406
109.0732 1.094
109.1035 0.937
109.1338 1.250
109.1641 1.094
109.1943 1.406
109.2246 1.875
109.2549 1.302
109.2852 1.510
109.3154 1.146
109.3457 1.562
109.3760 1.146
109.4063 1.562
109.4366 1.562
109.4668 1.302
109.4971 1.250
109.5274 1.823
109.5577 1.302
109.5880 0.990
109.6182 1.615
109.6485 1.198
109.6788 1.406
109.7091 1.146
109.7393 1.458
109.7696 1.302
109.7999 1.354
109.8302 1.615
109.8605 1.458
109.8907 1.406
109.9210 1.302
109.9513 1.875
109.9816 1.719
110.0119 1.562
110.0421 1.562
110.0724 1.719
110.1027 1.458
110.1330 2.083
110.1632 2.240
110.1935 1.510
110.2238 1.562
110.2541 2.187
110.2844 1.719
110.3146 1.823
110.3449 1.667
110.3752 1.719
110.4055 2.240
110.4358 1.875
110.4660 1.719
110.4963 1.771
110.5266 0.937
110.5569 1.823
110.5871 2.396
110.6174 1.719
110.6477 1.875
110.6780 1.771
110.7083 1.719
110.7385 1.771
110.7688 2.240
110.7991 1.354
110.8294 1.615
110.8597 1.615
110.8899 1.615
110.9202 1.250
110.9505 0.990
110.9808 1.823
111.0110 1.406
111.0413 1.667
111.0716 0.990
111.1019 2.083
111.1322 1.094
111.1624 1.771
111.1927 1.302
111.2230 1.562
111.2533 1.458
111.2836 1.406
111.3138 1.615
111.3441 1.510
111.3744 1.354
111.4047 1.198
111.4350 1.198
111.4652 1.042
111.4955 1.458
111.5258 1.406
111.5561 1.250
111.5863 1.094
111.6166 1.510
111.6469 1.458
111.6772 1.302
111.7075 0.990
111.7377 1.615
111.7680 1.458
111.7983 1.562
111.8286 1.146
111.8589 1.302
111.8891 1.198
111.9194 1.198
111.9497 1.146
111.9800 1.094
112.0102 0.781
112.0405 0.937
112.0708 1.406
112.1011 1.198
112.1314 1.250
112.1616 1.146
112.1919 0.990
112.2222 0.937
112.2525 0.937
112.2828 1.302
112.3130 1.146
112.3433 0.885
112.3736 1.667
112.4039 1.042
112.4341 1.042
112.4644 1.146
112.4947 1.406
112.5250 1.146
112.5553 1.042
112.5855 1.146
112.6158 1.198
112.6461 1.042
112.6764 1.042
112.7067 1.615
112.7369 1.146
112.7672 1.250
112.7975 1.354
112.8278 0.781
112.8580 1.094
112.8883 1.406
112.9186 1.354
112.9489 1.198
112.9792 1.198
113.0094 1.302
113.0397 1.042
113.0700 1.198
113.1003 1.198
113.1306 1.250
113.1608 1.146
113.1911 1.042
113.2214 1.198
113.2517 1.510
113.2819 1.406
113.3122 1.042
113.3425 1.562
113.3728 1.354
113.4031 0.937
113.4333 1.510
113.4636 1.510
113.4939 1.198
113.5242 0.885
113.5545 1.562
113.5847 0.937
113.6150 1.615
113.6453 0.833
113.6756 1.510
113.7058 1.771
113.7361 1.406
113.7664 1.562
113.7967 1.302
113.8270 1.042
113.8572 1.198
113.8875 1.198
113.9178 1.510
113.9481 1.510
113.9784 1.198
114.0086 1.302
114.0389 1.510
114.0692 1.458
114.0995 1.823
114.1298 1.146
114.1600 1.250
114.1903 0.937
114.2206 1.302
114.2509 1.771
114.2811 1.406
114.3114 1.302
114.3417 1.250
114.3720 1.198
114.4023 1.615
114.4325 1.562
114.4628 1.198
114.4931 1.042
114.5234 0.990
114.5537 1.771
114.5839 1.406
114.6142 1.510
114.6445 1.615
114.6748 1.823
114.7050 1.823
114.7353 2.031
114.7656 1.250
114.7959 1.771
114.8262 2.187
114.8564 1.094
114.8867 1.146
114.9170 1.198
114.9473 1.562
114.9776 1.875
115.0078 1.927
115.0381 1.510
115.0684 1.354
115.0987 1.771
115.1289 1.302
115.1592 1.823
115.1895 1.406
115.2198 1.406
115.2501 2.031
115.2803 1.667
115.3106 1.458
115.3409 1.667
115.3712 1.406
115.4015 1.875
115.4317 1.927
115.4620 2.135
115.4923 1.875
115.5226 1.719
115.5528 1.875
115.5831 1.667
115.6134 2.031
115.6437 2.396
115.6740 2.135
115.7042 2.083
115.7345 2.031
115.7648 2.448
115.7951 2.292
115.8254 1.562
115.8556 2.083
115.8859 2.187
115.9162 2.031
115.9465 2.083
115.9767 1.927
116.0070 2.448
116.0373 2.656
116.0676 2.708
116.0979 1.979
116.1281 2.917
116.1584 2.135
116.1887 2.708
116.2190 3.125
116.2493 2.708
116.2795 2.760
116.3098 2.708
116.3401 2.187
116.3704 3.021
116.4006 3.073
116.4309 2.552
116.4612 2.344
116.4915 2.240
116.5218 2.500
116.5520 2.760
116.5823 2.031
116.6126 2.240
116.6429 2.760
116.6732 2.240
116.7034 2.083
116.7337 2.292
116.7640 2.187
116.7943 1.615
116.8245 2.240
116.8548 1.875
116.8851 2.083
116.9154 1.979
116.9457 1.510
116.9759 1.771
117.0062 1.875
117.0365 1.875
117.0668 1.979
117.0971 2.031
117.1273 1.562
117.1576 1.875
117.1879 1.250
117.2182 1.198
117.2485 1.615
117.2787 1.979
117.3090 1.198
117.3393 1.354
117.3696 1.458
117.3998 1.875
117.4301 1.354
117.4604 1.250
117.4907 1.615
117.5210 1.719
117.5512 1.458
117.5815 1.458
117.6118 1.354
117.6421 1.667
117.6724 1.615
117.7026 1.615
117.7329 1.250
117.7632 1.510
117.7935 1.562
117.8237 1.667
117.8540 1.458
117.8843 1.719
117.9146 1.510
117.9449 1.458
117.9751 1.250
118.0054 1.667
118.0357 1.250
118.0660 1.146
118.0963 1.302
118.1265 1.250
118.1568 1.406
118.1871 1.562
118.2174 0.833
118.2476 1.823
118.2779 1.406
118.3082 1.302
118.3385 1.979
118.3688 1.458
118.3990 1.562
118.4293 1.615
118.4596 1.771
118.4899 1.250
118.5202 1.094
118.5504 1.302
118.5807 1.615
118.6110 1.719
118.6413 1.094
118.6715 1.510
118.7018 0.990
118.7321 1.562
118.7624 1.667
118.7927 1.354
118.8229 1.146
118.8532 1.094
118.8835 1.719
118.9138 1.250
118.9441 0.990
118.9743 1.354
119.0046 0.990
119.0349 1.198
119.0652 1.250
119.0954 1.458
119.1257 1.354
119.1560 1.510
119.1863 1.198
119.2166 1.302
119.2468 2.083
119.2771 0.781
119.3074 1.823
119.3377 1.146
119.3680 1.302
119.3982 0.833
119.4285 1.406
119.4588 1.354
119.4891 1.042
119.5193 1.042
119.5496 1.354
119.5799 0.885
119.6102 1.354
119.6405 1.562
119.6707 1.198
119.7010 1.615
119.7313 1.354
119.7616 1.042
119.7919 0.990
119.8221 1.354
119.8524 1.719
119.8827 1.562
119.9130 1.354
119.9433 1.250
119.9735 1.354
120.0038 1.146
