'Id: "" Comment: "" Operator: "Lab Manager" Anode: "Cu" Scantype: "Locked Coupled" TimePerStep: "19.2" X: "9999" Y: "9999" Z: "9999" 
10.0015 4.062
10.0318 3.698
10.0620 4.323
10.0923 3.385
10.1226 3.542
10.1529 4.010
10.1832 3.490
10.2134 4.948
10.2437 3.542
10.2740 3.646
10.3043 4.896
10.3346 4.219
10.3648 3.542
10.3951 3.698
10.4254 2.969
10.4557 4.062
10.4859 3.854
10.5162 3.437
10.5465 3.958
10.5768 3.750
10.6071 3.958
10.6373 3.229
10.6676 4.115
10.6979 3.594
10.7282 4.219
10.7585 3.021
10.7887 3.385
10.8190 3.125
10.8493 3.802
10.8796 3.646
10.9098 3.802
10.9401 3.958
10.9704 3.958
11.0007 3.542
11.0310 3.646
11.0612 3.177
11.0915 4.219
11.1218 4.427
11.1521 3.594
11.1824 2.865
11.2126 4.219
11.2429 3.542
11.2732 3.385
11.3035 3.490
11.3337 3.333
11.3640 3.385
11.3943 3.073
11.4246 3.229
11.4549 3.646
11.4851 3.594
11.5154 4.115
11.5457 3.177
11.5760 3.437
11.6063 3.542
11.6365 4.427
11.6668 3.177
11.6971 3.542
11.7274 4.635
11.7577 4.115
11.7879 3.646
11.8182 3.542
11.8485 3.490
11.8788 3.385
11.9090 3.594
11.9393 2.604
11.9696 2.760
11.9999 3.125
12.0302 3.229
12.0604 3.698
12.0907 3.229
12.1210 2.656
12.1513 3.281
12.1816 3.073
12.2118 3.385
12.2421 3.073
12.2724 3.073
12.3027 3.698
12.3329 3.802
12.3632 3.021
12.3935 3.281
12.4238 3.750
12.4541 4.479
12.4843 4.271
12.5146 3.646
12.5449 2.760
12.5752 3.125
12.6055 3.125
12.6357 3.906
12.6660 2.865
12.6963 4.271
12.7266 3.490
12.7568 2.708
12.7871 3.021
12.8174 2.604
12.8477 3.333
12.8780 2.865
12.9082 3.594
12.9385 3.594
12.9688 3.021
12.9991 2.708
13.0294 3.802
13.0596 3.281
13.0899 3.802
13.1202 3.750
13.1505 4.323
13.1807 3.333
13.2110 3.073
13.2413 3.333
13.2716 3.177
13.3019 3.802
13.3321 3.333
13.3624 3.281
13.3927 2.083
13.4230 3.542
13.4533 3.073
13.4835 3.542
13.5138 2.865
13.5441 3.333
13.5744 3.385
13.6046 3.490
13.6349 2.917
13.6652 3.542
13.6955 2.917
13.7258 3.125
13.7560 2.760
13.7863 2.656
13.8166 4.062
13.8469 3.333
13.8772 2.969
13.9074 3.281
13.9377 3.490
13.9680 3.385
13.9983 3.229
14.0285 3.021
14.0588 2.969
14.0891 4.062
14.1194 3.594
14.1497 3.229
14.1799 3.125
14.2102 3.490
14.2405 3.385
14.2708 3.073
14.3011 2.917
14.3313 3.698
14.3616 3.906
14.3919 3.021
14.4222 2.500
14.4524 2.708
14.4827 3.125
14.5130 4.010
14.5433 2.865
14.5736 3.698
14.6038 3.021
14.6341 3.021
14.6644 2.865
14.6947 2.812
14.7250 2.812
14.7552 3.594
14.7855 4.062
14.8158 2.552
14.8461 2.917
14.8764 3.177
14.9066 3.802
14.9369 3.125
14.9672 2.969
14.9975 3.229
15.0277 3.021
15.0580 2.552
15.0883 4.115
15.1186 2.865
15.1489 2.865
15.1791 2.969
15.2094 3.281
15.2397 3.021
15.2700 3.750
15.3003 2.969
15.3305 3.177
15.3608 3.281
15.3911 3.802
15.4214 3.281
15.4516 2.969
15.4819 3.125
15.5122 3.021
15.5425 3.229
15.5728 2.552
15.6030 3.073
15.6333 3.281
15.6636 2.969
15.6939 2.969
15.7242 3.073
15.7544 3.021
15.7847 2.448
15.8150 4.219
15.8453 2.500
15.8755 2.656
15.9058 3.333
15.9361 2.500
15.9664 2.969
15.9967 2.344
16.0269 2.500
16.0572 2.083
16.0875 3.073
16.1178 3.437
16.1481 2.344
16.1783 2.552
16.2086 3.698
16.2389 3.177
16.2692 3.021
16.2994 3.750
16.3297 2.812
16.3600 3.333
16.3903 2.604
16.4206 4.271
16.4508 3.542
16.4811 2.969
16.5114 2.604
16.5417 3.333
16.5720 2.812
16.6022 2.760
16.6325 2.812
16.6628 2.917
16.6931 2.865
16.7233 2.865
16.7536 2.656
16.7839 3.437
16.8142 3.594
16.8445 2.812
16.8747 2.917
16.9050 2.969
16.9353 3.281
16.9656 3.542
16.9959 2.552
17.0261 3.594
17.0564 2.969
17.0867 2.708
17.1170 2.969
17.1472 3.281
17.1775 2.969
17.2078 3.073
17.2381 3.437
17.2684 3.854
17.2986 2.812
17.3289 3.750
17.3592 2.292
17.3895 3.073
17.4198 3.490
17.4500 2.969
17.4803 3.490
17.5106 3.385
17.5409 2.865
17.5712 2.969
17.6014 3.229
17.6317 4.115
17.6620 3.333
17.6923 2.604
17.7225 2.500
17.7528 2.760
17.7831 3.490
17.8134 3.646
17.8437 3.073
17.8739 3.594
17.9042 3.177
17.9345 2.240
17.9648 2.969
17.9951 3.229
18.0253 2.708
18.0556 3.021
18.0859 2.708
18.1162 3.177
18.1464 3.177
18.1767 2.500
18.2070 3.125
18.2373 2.083
18.2676 3.646
18.2978 2.708
18.3281 2.292
18.3584 3.542
18.3887 2.552
18.4190 2.917
18.4492 2.917
18.4795 2.344
18.5098 3.177
18.5401 3.437
18.5703 2.396
18.6006 3.073
18.6309 3.281
18.6612 2.865
18.6915 3.021
18.7217 3.125
18.7520 2.708
18.7823 3.437
18.8126 2.917
18.8429 2.396
18.8731 2.292
18.9034 2.604
18.9337 2.448
18.9640 3.177
18.9942 3.073
19.0245 3.021
19.0548 2.708
19.0851 2.292
19.1154 2.812
19.1456 2.448
19.1759 2.500
19.2062 2.812
19.2365 2.917
19.2668 2.708
19.2970 1.875
19.3273 2.344
19.3576 3.021
19.3879 2.708
19.4181 2.656
19.4484 2.812
19.4787 2.656
19.5090 2.604
19.5393 2.708
19.5695 2.448
19.5998 2.448
19.6301 3.125
19.6604 3.437
19.6907 2.969
19.7209 2.656
19.7512 2.708
19.7815 2.500
19.8118 2.292
19.8420 1.875
19.8723 2.396
19.9026 3.437
19.9329 3.229
19.9632 2.865
19.9934 2.656
20.0237 3.281
20.0540 2.448
20.0843 3.333
20.1146 2.604
20.1448 2.604
20.1751 3.229
20.2054 2.760
20.2357 3.177
20.2659 2.760
20.2962 2.865
20.3265 2.812
20.3568 2.500
20.3871 2.344
20.4173 2.396
20.4476 3.281
20.4779 2.552
20.5082 3.073
20.5385 2.396
20.5687 2.656
20.5990 2.552
20.6293 1.979
20.6596 2.917
20.6899 2.448
20.7201 2.552
20.7504 3.125
20.7807 2.656
20.8110 2.552
20.8412 2.292
20.8715 2.552
20.9018 2.708
20.9321 2.500
20.9624 3.229
20.9926 3.073
21.0229 2.135
21.0532 3.021
21.0835 2.344
21.1138 2.604
21.1440 2.500
21.1743 2.344
21.2046 2.708
21.2349 2.708
21.2651 2.969
21.2954 2.865
21.3257 3.437
21.3560 2.656
21.3863 2.656
21.4165 2.865
21.4468 2.135
21.4771 2.656
21.5074 2.604
21.5377 2.500
21.5679 2.656
21.5982 2.135
21.6285 2.135
21.6588 2.760
21.6890 2.344
21.7193 2.917
21.7496 2.448
21.7799 3.073
21.8102 2.708
21.8404 2.396
21.8707 2.656
21.9010 3.385
21.9313 2.760
21.9616 3.437
21.9918 2.240
22.0221 2.500
22.0524 2.344
22.0827 2.292
22.1129 2.240
22.1432 2.187
22.1735 2.865
22.2038 2.760
22.2341 2.135
22.2643 2.396
22.2946 2.240
22.3249 2.344
22.3552 2.240
22.3855 3.073
22.4157 2.604
22.4460 3.021
22.4763 2.552
22.5066 1.927
22.5368 2.448
22.5671 2.917
22.5974 3.281
22.6277 3.177
22.6580 2.708
22.6882 2.812
22.7185 3.125
22.7488 2.760
22.7791 2.292
22.8094 2.500
22.8396 3.333
22.8699 2.396
22.9002 2.500
22.9305 2.969
22.9607 2.187
22.9910 2.448
23.0213 1.979
23.0516 3.333
23.0819 2.604
23.1121 2.969
23.1424 1.771
23.1727 2.656
23.2030 1.667
23.2333 2.969
23.2635 3.125
23.2938 2.969
23.3241 2.552
23.3544 2.500
23.3846 1.927
23.4149 2.448
23.4452 2.448
23.4755 2.500
23.5058 2.552
23.5360 3.073
23.5663 2.552
23.5966 2.865
23.6269 2.552
23.6572 2.292
23.6874 2.031
23.7177 2.448
23.7480 2.031
23.7783 2.292
23.8086 2.969
23.8388 2.240
23.8691 1.927
23.8994 2.500
23.9297 3.385
23.9599 2.865
23.9902 2.917
24.0205 2.552
24.0508 2.760
24.0811 2.292
24.1113 2.135
24.1416 2.604
24.1719 3.437
24.2022 2.448
24.2325 2.240
24.2627 2.708
24.2930 2.396
24.3233 2.708
24.3536 2.917
24.3838 3.073
24.4141 2.240
24.4444 2.448
24.4747 2.865
24.5050 2.656
24.5352 2.187
24.5655 2.917
24.5958 2.500
24.6261 2.240
24.6564 2.240
24.6866 2.240
24.7169 2.344
24.7472 2.969
24.7775 2.292
24.8077 2.604
24.8380 2.344
24.8683 3.229
24.8986 2.344
24.9289 2.187
24.9591 2.917
24.9894 2.552
25.0197 2.031
25.0500 2.135
25.0803 2.448
25.1105 2.396
25.1408 2.812
25.1711 2.604
25.2014 3.333
25.2316 2.240
25.2619 2.083
25.2922 2.500
25.3225 3.177
25.3528 2.812
25.3830 2.552
25.4133 3.177
25.4436 2.396
25.4739 2.187
25.5042 3.073
25.5344 2.708
25.5647 2.500
25.5950 2.135
25.6253 2.656
25.6555 3.125
25.6858 2.135
25.7161 2.812
25.7464 2.865
25.7767 3.073
25.8069 2.708
25.8372 2.292
25.8675 2.240
25.8978 3.646
25.9281 2.292
25.9583 3.125
25.9886 2.969
26.0189 2.292
26.0492 3.021
26.0794 2.969
26.1097 2.448
26.1400 2.656
26.1703 2.969
26.2006 2.656
26.2308 3.021
26.2611 2.083
26.2914 2.552
26.3217 2.552
26.3520 2.604
26.3822 2.708
26.4125 3.073
26.4428 2.812
26.4731 2.031
26.5034 2.760
26.5336 3.333
26.5639 2.500
26.5942 2.760
26.6245 2.604
26.6547 2.500
26.6850 2.344
26.7153 2.552
26.7456 3.542
26.7759 2.917
26.8061 3.125
26.8364 2.552
26.8667 3.542
26.8970 1.927
26.9273 2.917
26.9575 3.073
26.9878 2.604
27.0181 2.812
27.0484 2.500
27.0786 2.396
27.1089 2.552
27.1392 2.969
27.1695 2.396
27.1998 2.969
27.2300 2.552
27.2603 3.906
27.2906 2.917
27.3209 3.177
27.3512 3.437
27.3814 2.708
27.4117 3.854
27.4420 3.229
27.4723 2.969
27.5025 3.177
27.5328 2.969
27.5631 3.125
27.5934 2.656
27.6237 3.281
27.6539 2.917
27.6842 3.125
27.7145 2.865
27.7448 2.448
27.7751 3.437
27.8053 3.281
27.8356 4.062
27.8659 2.604
27.8962 3.385
27.9264 3.177
27.9567 3.021
27.9870 3.958
28.0173 3.333
28.0476 2.969
28.0778 3.437
28.1081 3.073
28.1384 3.229
28.1687 3.073
28.1990 3.073
28.2292 3.333
28.2595 3.021
28.2898 3.281
28.3201 3.177
28.3503 2.812
28.3806 3.333
28.4109 3.229
28.4412 2.812
28.4715 2.812
28.5017 2.656
28.5320 3.229
28.5623 3.437
28.5926 2.917
28.6229 3.385
28.6531 3.750
28.6834 3.385
28.7137 3.490
28.7440 3.594
28.7742 3.594
28.8045 3.802
28.8348 2.552
28.8651 3.698
28.8954 3.281
28.9256 3.125
28.9559 2.969
28.9862 3.073
29.0165 3.542
29.0468 3.073
29.0770 3.385
29.1073 4.062
29.1376 3.385
29.1679 2.969
29.1981 3.906
29.2284 3.490
29.2587 3.490
29.2890 3.542
29.3193 3.698
29.3495 3.802
29.3798 3.750
29.4101 3.854
29.4404 3.698
29.4707 3.073
29.5009 3.958
29.5312 2.969
29.5615 3.646
29.5918 4.271
29.6221 3.490
29.6523 4.167
29.6826 3.906
29.7129 3.958
29.7432 3.021
29.7734 3.542
29.8037 4.323
29.8340 4.635
29.8643 4.271
29.8946 5.000
29.9248 4.062
29.9551 4.635
29.9854 4.271
30.0157 4.844
30.0460 4.010
30.0762 4.531
30.1065 4.479
30.1368 4.479
30.1671 4.219
30.1973 3.854
30.2276 4.896
30.2579 4.948
30.2882 4.792
30.3185 4.635
30.3487 4.740
30.3790 4.687
30.4093 5.208
30.4396 4.948
30.4699 5.573
30.5001 5.365
30.5304 5.052
30.5607 5.729
30.5910 5.990
30.6212 6.667
30.6515 6.458
30.6818 6.510
30.7121 5.729
30.7424 6.302
30.7726 6.510
30.8029 7.812
30.8332 7.500
30.8635 8.646
30.8938 8.646
30.9240 8.490
30.9543 8.594
30.9846 8.646
31.0149 9.010
31.0451 9.896
31.0754 10.990
31.1057 11.562
31.1360 11.406
31.1663 12.135
31.1965 14.844
31.2268 15.781
31.2571 15.990
31.2874 20.208
31.3177 21.198
31.3479 21.302
31.3782 21.771
31.4085 23.958
31.4388 27.969
31.4690 32.865
31.4993 34.479
31.5296 36.875
31.5599 43.125
31.5902 44.010
31.6204 47.240
31.6507 43.854
31.6810 47.865
31.7113 41.667
31.7416 41.927
31.7718 35.937
31.8021 34.219
31.8324 31.094
31.8627 26.562
31.8929 24.323
31.9232 23.802
31.9535 20.104
31.9838 20.208
32.0141 15.573
32.0443 16.146
32.0746 12.917
32.1049 12.292
32.1352 13.385
32.1655 9.167
32.1957 9.687
32.2260 9.687
32.2563 10.573
32.2866 7.969
32.3169 7.760
32.3471 7.656
32.3774 7.083
32.4077 7.708
32.4380 7.292
32.4682 5.781
32.4985 7.083
32.5288 7.604
32.5591 6.562
32.5894 6.562
32.6196 5.312
32.6499 6.927
32.6802 6.146
32.7105 5.260
32.7408 5.312
32.7710 6.771
32.8013 5.312
32.8316 5.781
32.8619 6.510
32.8921 6.823
32.9224 6.302
32.9527 6.198
32.9830 6.094
33.0133 5.573
33.0435 6.198
33.0738 4.896
33.1041 5.729
33.1344 4.427
33.1647 5.521
33.1949 4.896
33.2252 6.458
33.2555 5.104
33.2858 6.302
33.3160 6.146
33.3463 5.260
33.3766 6.094
33.4069 6.510
33.4372 5.885
33.4674 5.417
33.4977 5.469
33.5280 7.240
33.5583 5.781
33.5886 5.885
33.6188 6.875
33.6491 6.406
33.6794 6.927
33.7097 7.656
33.7399 7.969
33.7702 8.125
33.8005 7.812
33.8308 8.333
33.8611 8.437
33.8913 8.802
33.9216 10.208
33.9519 11.406
33.9822 10.677
34.0125 11.823
34.0427 15.312
34.0730 16.250
34.1033 18.802
34.1336 20.729
34.1638 27.969
34.1941 30.833
34.2244 37.604
34.2547 51.562
34.2850 56.875
34.3152 55.365
34.3455 52.292
34.3758 50.260
34.4061 42.240
34.4364 33.333
34.4666 25.000
34.4969 22.552
34.5272 19.687
34.5575 16.302
34.5877 15.000
34.6180 12.865
34.6483 11.354
34.6786 11.146
34.7089 9.740
34.7391 9.687
34.7694 9.167
34.7997 8.490
34.8300 9.375
34.8603 9.219
34.8905 8.490
34.9208 8.021
34.9511 8.333
34.9814 7.604
35.0116 7.917
35.0419 8.646
35.0722 7.812
35.1025 8.802
35.1328 9.219
35.1630 8.854
35.1933 7.500
35.2236 10.000
35.2539 8.750
35.2842 10.885
35.3144 10.469
35.3447 9.531
35.3750 9.375
35.4053 10.729
35.4356 10.625
35.4658 11.042
35.4961 10.625
35.5264 12.344
35.5567 12.656
35.5869 14.167
35.6172 15.365
35.6475 16.198
35.6778 17.135
35.7081 18.333
35.7383 20.521
35.7686 24.167
35.7989 24.583
35.8292 27.708
35.8595 29.844
35.8897 35.156
35.9200 36.823
35.9503 41.667
35.9806 47.187
36.0108 47.865
36.0411 56.823
36.0714 58.333
36.1017 62.812
36.1320 63.750
36.1622 61.458
36.1925 65.573
36.2228 59.219
36.2531 55.573
36.2834 49.896
36.3136 43.594
36.3439 41.875
36.3742 36.354
36.4045 33.385
36.4347 29.583
36.4650 25.937
36.4953 24.219
36.5256 20.781
36.5559 17.083
36.5861 16.198
36.6164 16.042
36.6467 14.062
36.6770 12.708
36.7073 11.510
36.7375 11.250
36.7678 9.740
36.7981 11.510
36.8284 8.854
36.8586 9.167
36.8889 8.594
36.9192 7.865
36.9495 7.396
36.9798 8.073
37.0100 7.865
37.0403 7.969
37.0706 7.344
37.1009 6.094
37.1312 6.510
37.1614 5.937
37.1917 5.312
37.2220 6.302
37.2523 5.417
37.2825 5.521
37.3128 6.198
37.3431 5.573
37.3734 5.885
37.4037 4.010
37.4339 4.896
37.4642 4.167
37.4945 5.521
37.5248 4.115
37.5551 4.323
37.5853 4.792
37.6156 4.740
37.6459 4.219
37.6762 4.479
37.7064 3.125
37.7367 4.427
37.7670 3.594
37.7973 3.854
37.8276 4.323
37.8578 3.594
37.8881 3.594
37.9184 3.385
37.9487 3.542
37.9790 3.646
38.0092 3.333
38.0395 3.229
38.0698 3.281
38.1001 3.073
38.1304 3.333
38.1606 3.177
38.1909 3.177
38.2212 3.281
38.2515 3.490
38.2817 2.656
38.3120 2.812
38.3423 3.229
38.3726 3.073
38.4029 2.969
38.4331 2.812
38.4634 2.604
38.4937 3.542
38.5240 3.177
38.5543 2.552
38.5845 3.646
38.6148 2.708
38.6451 2.865
38.6754 3.229
38.7056 3.281
38.7359 3.229
38.7662 2.708
38.7965 2.865
38.8268 3.021
38.8570 2.604
38.8873 2.969
38.9176 2.448
38.9479 3.125
38.9782 2.708
39.0084 2.865
39.0387 2.448
39.0690 2.552
39.0993 2.812
39.1295 2.083
39.1598 2.917
39.1901 2.917
39.2204 2.031
39.2507 3.385
39.2809 2.604
39.3112 3.125
39.3415 2.917
39.3718 2.708
39.4021 2.240
39.4323 2.448
39.4626 2.760
39.4929 2.865
39.5232 2.552
39.5534 2.865
39.5837 3.073
39.6140 2.500
39.6443 2.604
39.6746 2.187
39.7048 2.760
39.7351 2.292
39.7654 2.344
39.7957 2.552
39.8260 1.875
39.8562 2.240
39.8865 2.135
39.9168 2.552
39.9471 3.021
39.9773 2.292
40.0076 1.823
40.0379 2.240
40.0682 2.656
40.0985 2.656
40.1287 2.500
40.1590 2.292
40.1893 2.240
40.2196 2.656
40.2499 2.552
40.2801 2.760
40.3104 2.396
40.3407 2.656
40.3710 2.396
40.4012 2.344
40.4315 2.604
40.4618 2.396
40.4921 2.396
40.5224 1.771
40.5526 1.615
40.5829 2.344
40.6132 2.917
40.6435 1.979
40.6738 2.552
40.7040 2.396
40.7343 2.552
40.7646 2.292
40.7949 1.615
40.8251 1.927
40.8554 2.552
40.8857 1.979
40.9160 2.187
40.9463 2.083
40.9765 2.031
41.0068 1.927
41.0371 2.083
41.0674 2.396
41.0977 1.979
41.1279 2.344
41.1582 2.187
41.1885 2.292
41.2188 2.552
41.2491 2.187
41.2793 1.562
41.3096 2.135
41.3399 2.448
41.3702 2.552
41.4004 3.021
41.4307 1.979
41.4610 2.031
41.4913 1.927
41.5216 1.927
41.5518 2.083
41.5821 2.240
41.6124 2.344
41.6427 1.823
41.6730 2.240
41.7032 2.969
41.7335 2.240
41.7638 2.500
41.7941 1.823
41.8243 1.719
41.8546 2.135
41.8849 2.344
41.9152 2.083
41.9455 2.135
41.9757 2.812
42.0060 1.510
42.0363 2.344
42.0666 2.240
42.0969 2.656
42.1271 2.344
42.1574 1.771
42.1877 2.031
42.2180 1.875
42.2482 2.396
42.2785 2.031
42.3088 1.771
42.3391 2.500
42.3694 1.875
42.3996 2.031
42.4299 2.135
42.4602 1.979
42.4905 1.719
42.5208 2.083
42.5510 1.667
42.5813 1.615
42.6116 2.135
42.6419 2.031
42.6721 1.771
42.7024 1.875
42.7327 2.396
42.7630 1.823
42.7933 2.187
42.8235 1.719
42.8538 2.187
42.8841 2.135
42.9144 1.927
42.9447 2.135
42.9749 1.979
43.0052 1.719
43.0355 1.979
43.0658 2.760
43.0960 2.031
43.1263 1.667
43.1566 2.187
43.1869 2.448
43.2172 1.875
43.2474 1.979
43.2777 1.875
43.3080 1.823
43.3383 2.031
43.3686 2.292
43.3988 2.500
43.4291 1.719
43.4594 1.979
43.4897 2.135
43.5199 2.240
43.5502 1.927
43.5805 2.917
43.6108 1.667
43.6411 2.396
43.6713 2.135
43.7016 1.927
43.7319 1.979
43.7622 2.135
43.7925 1.562
43.8227 2.760
43.8530 2.240
43.8833 2.396
43.9136 2.708
43.9439 1.615
43.9741 1.979
44.0044 1.979
44.0347 2.187
44.0650 1.927
44.0952 2.031
44.1255 2.187
44.1558 2.552
44.1861 2.031
44.2164 1.771
44.2466 1.615
44.2769 2.187
44.3072 1.771
44.3375 2.292
44.3678 2.656
44.3980 2.031
44.4283 2.500
44.4586 1.771
44.4889 2.448
44.5191 2.031
44.5494 2.552
44.5797 1.719
44.6100 2.656
44.6403 2.292
44.6705 1.927
44.7008 1.823
44.7311 2.031
44.7614 2.031
44.7917 2.187
44.8219 1.615
44.8522 2.396
44.8825 1.615
44.9128 1.667
44.9430 1.771
44.9733 2.396
45.0036 1.823
45.0339 2.656
45.0642 1.979
45.0944 2.031
45.1247 1.875
45.1550 1.927
45.1853 2.448
45.2156 1.927
45.2458 2.031
45.2761 2.135
45.3064 1.979
45.3367 1.979
45.3669 2.344
45.3972 2.396
45.4275 2.187
45.4578 2.656
45.4881 2.135
45.5183 1.875
45.5486 2.135
45.5789 1.875
45.6092 2.865
45.6395 3.177
45.6697 2.187
45.7000 1.979
45.7303 2.812
45.7606 2.187
45.7908 2.760
45.8211 2.083
45.8514 1.823
45.8817 2.240
45.9120 2.656
45.9422 2.344
45.9725 2.552
46.0028 2.500
46.0331 2.083
46.0634 2.969
46.0936 2.604
46.1239 2.500
46.1542 2.500
46.1845 2.448
46.2147 2.344
46.2450 2.708
46.2753 2.552
46.3056 2.812
46.3359 2.135
46.3661 2.396
46.3964 2.865
46.4267 2.604
46.4570 2.917
46.4873 2.760
46.5175 4.010
46.5478 2.552
46.5781 3.021
46.6084 3.437
46.6386 4.219
46.6689 3.594
46.6992 3.333
46.7295 3.906
46.7598 4.010
46.7900 3.854
46.8203 2.917
46.8506 4.427
46.8809 3.854
46.9112 3.958
46.9414 4.844
46.9717 5.417
47.0020 5.000
47.0323 5.521
47.0626 6.146
47.0928 5.625
47.1231 7.552
47.1534 8.177
47.1837 9.948
47.2139 9.583
47.2442 10.156
47.2745 10.469
47.3048 11.094
47.3351 10.729
47.3653 13.333
47.3956 12.760
47.4259 12.760
47.4562 14.271
47.4865 14.010
47.5167 13.958
47.5470 12.708
47.5773 10.104
47.6076 11.094
47.6378 9.010
47.6681 8.125
47.6984 7.760
47.7287 7.240
47.7590 5.937
47.7892 6.302
47.8195 6.042
47.8498 6.146
47.8801 4.844
47.9104 5.156
47.9406 4.844
47.9709 4.062
48.0012 3.646
48.0315 3.021
48.0617 3.646
48.0920 3.646
48.1223 3.542
48.1526 3.177
48.1829 2.292
48.2131 2.760
48.2434 3.021
48.2737 2.760
48.3040 2.917
48.3343 1.927
48.3645 2.396
48.3948 3.021
48.4251 2.969
48.4554 2.500
48.4856 2.083
48.5159 2.656
48.5462 2.760
48.5765 2.448
48.6068 2.187
48.6370 2.031
48.6673 2.292
48.6976 2.604
48.7279 2.552
48.7582 2.344
48.7884 2.500
48.8187 2.396
48.8490 1.927
48.8793 2.187
48.9095 2.240
48.9398 1.927
48.9701 2.083
49.0004 2.187
49.0307 2.240
49.0609 2.344
49.0912 2.292
49.1215 2.656
49.1518 1.979
49.1821 1.510
49.2123 1.771
49.2426 2.135
49.2729 2.708
49.3032 2.135
49.3334 1.771
49.3637 2.031
49.3940 1.771
49.4243 1.875
49.4546 2.187
49.4848 2.187
49.5151 2.083
49.5454 2.344
49.5757 2.083
49.6060 2.604
49.6362 2.135
49.6665 1.771
49.6968 2.031
49.7271 1.771
49.7574 2.240
49.7876 2.240
49.8179 2.083
49.8482 2.187
49.8785 1.927
49.9087 1.875
49.9390 1.979
49.9693 2.083
49.9996 1.875
50.0299 1.719
50.0601 2.344
50.0904 2.344
50.1207 1.979
50.1510 2.083
50.1813 1.302
50.2115 2.344
50.2418 2.031
50.2721 1.250
50.3024 1.667
50.3326 2.917
50.3629 1.562
50.3932 1.823
50.4235 1.979
50.4538 2.083
50.4840 2.135
50.5143 2.344
50.5446 1.927
50.5749 2.083
50.6052 1.562
50.6354 2.552
50.6657 2.708
50.6960 2.187
50.7263 2.083
50.7565 2.344
50.7868 2.240
50.8171 1.719
50.8474 1.875
50.8777 1.823
50.9079 2.396
50.9382 3.229
50.9685 2.135
50.9988 1.927
51.0291 2.031
51.0593 1.719
51.0896 1.771
51.1199 1.719
51.1502 1.510
51.1804 1.406
51.2107 2.135
51.2410 2.135
51.2713 1.510
51.3016 1.198
51.3318 1.979
51.3621 1.979
51.3924 1.458
51.4227 1.458
51.4530 1.562
51.4832 1.771
51.5135 2.083
51.5438 2.031
51.5741 1.979
51.6043 2.240
51.6346 2.187
51.6649 1.667
51.6952 1.719
51.7255 1.875
51.7557 1.875
51.7860 1.719
51.8163 1.719
51.8466 2.135
51.8769 1.875
51.9071 2.031
51.9374 1.458
51.9677 1.823
51.9980 2.031
52.0282 1.927
52.0585 2.187
52.0888 2.240
52.1191 1.302
52.1494 1.927
52.1796 1.927
52.2099 2.396
52.2402 1.979
52.2705 2.187
52.3008 2.031
52.3310 2.656
52.3613 1.979
52.3916 2.344
52.4219 1.823
52.4521 1.927
52.4824 1.615
52.5127 2.083
52.5430 2.500
52.5733 1.719
52.6035 2.135
52.6338 1.771
52.6641 1.823
52.6944 1.562
52.7247 1.979
52.7549 1.927
52.7852 2.083
52.8155 2.448
52.8458 2.344
52.8761 1.875
52.9063 1.615
52.9366 2.240
52.9669 1.562
52.9972 1.354
53.0274 2.344
53.0577 1.771
53.0880 1.771
53.1183 1.719
53.1486 1.823
53.1788 1.979
53.2091 1.927
53.2394 1.875
53.2697 2.240
53.3000 1.458
53.3302 1.927
53.3605 2.083
53.3908 2.135
53.4211 1.875
53.4513 2.083
53.4816 1.510
53.5119 2.552
53.5422 1.823
53.5725 1.667
53.6027 1.667
53.6330 2.031
53.6633 1.979
53.6936 1.979
53.7239 1.927
53.7541 1.771
53.7844 1.927
53.8147 2.240
53.8450 1.198
53.8752 1.562
53.9055 2.344
53.9358 1.927
53.9661 2.083
53.9964 1.562
54.0266 2.187
54.0569 1.615
54.0872 1.719
54.1175 1.927
54.1478 2.552
54.1780 2.500
54.2083 2.344
54.2386 2.396
54.2689 2.187
54.2991 2.708
54.3294 1.979
54.3597 3.021
54.3900 1.823
54.4203 2.396
54.4505 2.448
54.4808 2.552
54.5111 2.969
54.5414 2.292
54.5717 2.448
54.6019 1.771
54.6322 2.500
54.6625 2.031
54.6928 1.771
54.7230 2.135
54.7533 2.083
54.7836 2.448
54.8139 2.083
54.8442 2.448
54.8744 1.562
54.9047 1.979
54.9350 2.135
54.9653 3.021
54.9956 2.448
55.0258 2.708
55.0561 2.448
55.0864 2.135
55.1167 2.448
55.1469 2.083
55.1772 2.135
55.2075 2.656
55.2378 2.187
55.2681 2.917
55.2983 2.500
55.3286 2.604
55.3589 2.760
55.3892 3.073
55.4195 2.344
55.4497 3.281
55.4800 2.917
55.5103 3.229
55.5406 3.958
55.5709 3.177
55.6011 4.062
55.6314 3.750
55.6617 4.219
55.6920 3.646
55.7222 4.010
55.7525 4.323
55.7828 3.490
55.8131 4.271
55.8434 4.687
55.8736 5.156
55.9039 5.208
55.9342 5.052
55.9645 5.208
55.9948 5.677
56.0250 5.729
56.0553 6.250
56.0856 6.615
56.1159 8.854
56.1461 8.802
56.1764 8.906
56.2067 9.583
56.2370 11.146
56.2673 11.458
56.2975 10.677
56.3278 12.656
56.3581 15.312
56.3884 14.948
56.4187 15.677
56.4489 16.458
56.4792 18.437
56.5095 15.885
56.5398 16.250
56.5700 16.094
56.6003 14.792
56.6306 14.219
56.6609 12.917
56.6912 11.354
56.7214 10.885
56.7517 9.740
56.7820 8.906
56.8123 8.385
56.8426 7.760
56.8728 7.344
56.9031 6.719
56.9334 6.719
56.9637 6.406
56.9939 6.146
57.0242 5.677
57.0545 4.635
57.0848 5.260
57.1151 5.469
57.1453 4.740
57.1756 4.844
57.2059 4.479
57.2362 4.062
57.2665 3.698
57.2967 3.906
57.3270 3.333
57.3573 3.229
57.3876 3.542
57.4178 2.969
57.4481 3.333
57.4784 3.229
57.5087 3.177
57.5390 3.542
57.5692 2.969
57.5995 2.865
57.6298 2.135
57.6601 2.396
57.6904 1.927
57.7206 2.031
57.7509 2.187
57.7812 2.448
57.8115 3.073
57.8417 2.760
57.8720 2.083
57.9023 2.969
57.9326 2.552
57.9629 2.552
57.9931 2.708
58.0234 1.771
58.0537 2.083
58.0840 2.135
58.1143 2.396
58.1445 2.760
58.1748 2.552
58.2051 2.240
58.2354 2.240
58.2656 2.396
58.2959 1.562
58.3262 2.708
58.3565 2.552
58.3868 2.135
58.4170 2.396
58.4473 2.135
58.4776 2.396
58.5079 1.771
58.5382 2.292
58.5684 2.344
58.5987 2.083
58.6290 1.927
58.6593 1.719
58.6896 2.187
58.7198 2.240
58.7501 1.562
58.7804 2.083
58.8107 2.812
58.8409 2.187
58.8712 1.406
58.9015 2.396
58.9318 1.927
58.9621 2.917
58.9923 1.198
59.0226 1.771
59.0529 2.031
59.0832 2.031
59.1135 1.719
59.1437 2.656
59.1740 1.719
59.2043 2.396
59.2346 2.656
59.2648 1.510
59.2951 2.240
59.3254 1.615
59.3557 1.562
59.3860 2.187
59.4162 2.240
59.4465 2.604
59.4768 2.344
59.5071 1.510
59.5374 2.240
59.5676 2.396
59.5979 2.187
59.6282 2.396
59.6585 1.771
59.6887 1.927
59.7190 1.823
59.7493 2.187
59.7796 2.344
59.8099 1.771
59.8401 2.448
59.8704 1.719
59.9007 1.719
59.9310 1.875
59.9613 1.927
59.9915 2.135
60.0218 2.240
60.0521 2.135
60.0824 1.719
60.1126 1.667
60.1429 1.927
60.1732 2.187
60.2035 2.396
60.2338 1.927
60.2640 2.448
60.2943 1.823
60.3246 1.927
60.3549 2.240
60.3852 2.344
60.4154 1.719
60.4457 2.240
60.4760 1.719
60.5063 2.083
60.5365 1.823
60.5668 2.083
60.5971 2.031
60.6274 2.083
60.6577 2.500
60.6879 1.823
60.7182 2.656
60.7485 2.552
60.7788 2.396
60.8091 1.823
60.8393 2.083
60.8696 2.656
60.8999 1.875
60.9302 2.604
60.9604 2.240
60.9907 2.083
61.0210 2.552
61.0513 2.292
61.0816 2.083
61.1118 2.187
61.1421 2.083
61.1724 2.083
61.2027 2.187
61.2330 2.187
61.2632 2.396
61.2935 2.083
61.3238 2.604
61.3541 2.135
61.3844 2.240
61.4146 1.562
61.4449 2.865
61.4752 2.187
61.5055 2.656
61.5357 2.656
61.5660 2.031
61.5963 2.031
61.6266 2.708
61.6569 2.344
61.6871 2.396
61.7174 2.917
61.7477 2.396
61.7780 2.135
61.8083 3.490
61.8385 2.812
61.8688 2.656
61.8991 3.281
61.9294 3.177
61.9596 3.281
61.9899 2.865
62.0202 3.698
62.0505 3.385
62.0808 4.219
62.1110 3.958
62.1413 3.594
62.1716 4.010
62.2019 4.792
62.2322 4.115
62.2624 5.312
62.2927 5.260
62.3230 5.260
62.3533 6.094
62.3835 6.615
62.4138 6.771
62.4441 7.448
62.4744 8.281
62.5047 9.531
62.5349 10.521
62.5652 10.625
62.5955 11.406
62.6258 13.073
62.6561 13.177
62.6863 12.448
62.7166 16.562
62.7469 14.167
62.7772 15.104
62.8074 13.073
62.8377 14.896
62.8680 13.385
62.8983 12.969
62.9286 12.812
62.9588 11.302
62.9891 9.740
63.0194 8.385
63.0497 7.917
63.0800 7.500
63.1102 7.396
63.1405 6.719
63.1708 6.615
63.2011 6.198
63.2313 4.583
63.2616 5.312
63.2919 5.104
63.3222 4.219
63.3525 3.750
63.3827 3.698
63.4130 3.958
63.4433 4.219
63.4736 3.594
63.5039 2.656
63.5341 2.604
63.5644 3.021
63.5947 3.490
63.6250 3.073
63.6552 3.073
63.6855 2.292
63.7158 3.542
63.7461 2.604
63.7764 2.656
63.8066 2.292
63.8369 2.500
63.8672 2.187
63.8975 2.500
63.9278 2.865
63.9580 2.604
63.9883 2.448
64.0186 2.240
64.0489 2.187
64.0791 2.656
64.1094 2.656
64.1397 2.552
64.1700 1.875
64.2003 2.865
64.2305 2.083
64.2608 2.031
64.2911 2.760
64.3214 2.500
64.3517 2.656
64.3819 2.656
64.4122 2.396
64.4425 2.760
64.4728 2.240
64.5031 2.500
64.5333 2.135
64.5636 2.396
64.5939 2.760
64.6242 1.771
64.6544 1.875
64.6847 2.135
64.7150 2.240
64.7453 2.031
64.7756 2.865
64.8058 1.927
64.8361 2.135
64.8664 2.292
64.8967 2.396
64.9270 2.187
64.9572 1.771
64.9875 2.135
65.0178 2.448
65.0481 2.344
65.0783 2.604
65.1086 1.667
65.1389 2.500
65.1692 2.031
65.1995 2.083
65.2297 2.083
65.2600 1.771
65.2903 1.823
65.3206 2.344
65.3509 2.969
65.3811 2.292
65.4114 2.708
65.4417 2.083
65.4720 2.187
65.5022 1.875
65.5325 2.448
65.5628 2.448
65.5931 2.500
65.6234 1.510
65.6536 2.344
65.6839 2.604
65.7142 1.823
65.7445 3.229
65.7748 2.448
65.8050 3.073
65.8353 2.760
65.8656 3.073
65.8959 2.760
65.9261 2.865
65.9564 2.969
65.9867 3.281
66.0170 3.177
66.0473 3.229
66.0775 4.167
66.1078 3.750
66.1381 4.010
66.1684 3.646
66.1987 3.177
66.2289 3.437
66.2592 3.333
66.2895 3.229
66.3198 3.490
66.3500 4.323
66.3803 3.385
66.4106 3.802
66.4409 3.646
66.4712 3.802
66.5014 3.385
66.5317 3.490
66.5620 2.656
66.5923 3.177
66.6226 2.656
66.6528 2.969
66.6831 3.490
66.7134 2.865
66.7437 3.281
66.7739 2.917
66.8042 2.865
66.8345 3.073
66.8648 3.125
66.8951 2.760
66.9253 2.969
66.9556 2.396
66.9859 4.010
67.0162 2.604
67.0465 3.333
67.0767 2.604
67.1070 3.542
67.1373 4.062
67.1676 4.115
67.1978 3.490
67.2281 4.479
67.2584 3.177
67.2887 4.062
67.3190 4.010
67.3492 4.062
67.3795 5.260
67.4098 4.583
67.4401 6.562
67.4704 5.417
67.5006 6.042
67.5309 6.771
67.5612 8.177
67.5915 6.927
67.6218 8.073
67.6520 9.323
67.6823 8.542
67.7126 8.385
67.7429 9.896
67.7731 12.083
67.8034 11.562
67.8337 10.521
67.8640 9.948
67.8943 11.354
67.9245 10.625
67.9548 9.844
67.9851 9.375
68.0154 9.375
68.0457 7.344
68.0759 9.687
68.1062 7.969
68.1365 8.073
68.1668 7.448
68.1970 8.437
68.2273 6.250
68.2576 5.365
68.2879 6.458
68.3182 4.896
68.3484 6.615
68.3787 5.312
68.4090 4.427
68.4393 4.167
68.4696 4.635
68.4998 4.948
68.5301 4.948
68.5604 5.469
68.5907 4.635
68.6209 4.010
68.6512 4.740
68.6815 5.417
68.7118 6.146
68.7421 4.792
68.7723 5.417
68.8026 5.156
68.8329 5.937
68.8632 5.937
68.8935 6.927
68.9237 5.156
68.9540 6.406
68.9843 5.365
69.0146 6.250
69.0448 5.312
69.0751 5.625
69.1054 5.312
69.1357 5.417
69.1660 4.740
69.1962 4.531
69.2265 5.312
69.2568 3.958
69.2871 4.062
69.3174 3.906
69.3476 4.635
69.3779 4.375
69.4082 3.281
69.4385 3.542
69.4687 3.333
69.4990 3.073
69.5293 3.333
69.5596 2.812
69.5899 2.812
69.6201 3.333
69.6504 3.177
69.6807 3.073
69.7110 2.396
69.7413 2.760
69.7715 2.552
69.8018 2.292
69.8321 2.135
69.8624 2.552
69.8926 2.135
69.9229 2.292
69.9532 2.083
69.9835 1.875
70.0138 1.771
70.0440 2.500
70.0743 2.187
70.1046 1.823
70.1349 2.292
70.1652 2.187
70.1954 2.344
70.2257 1.823
70.2560 2.083
70.2863 1.979
70.3166 2.187
70.3468 1.979
70.3771 1.823
70.4074 1.615
70.4377 1.458
70.4679 1.823
70.4982 1.823
70.5285 1.615
70.5588 1.615
70.5891 2.083
70.6193 1.615
70.6496 1.302
70.6799 1.615
70.7102 1.771
70.7405 1.667
70.7707 1.771
70.8010 1.406
70.8313 2.135
70.8616 1.771
70.8918 1.979
70.9221 1.875
70.9524 1.771
70.9827 1.510
71.0130 1.406
71.0432 1.875
71.0735 1.250
71.1038 1.146
71.1341 1.667
71.1644 1.510
71.1946 1.458
71.2249 1.927
71.2552 1.771
71.2855 1.875
71.3157 1.823
71.3460 1.146
71.3763 1.667
71.4066 1.823
71.4369 1.146
71.4671 1.562
71.4974 1.875
71.5277 1.615
71.5580 1.719
71.5883 1.615
71.6185 1.615
71.6488 1.875
71.6791 1.198
71.7094 1.458
71.7396 1.146
71.7699 1.458
71.8002 1.771
71.8305 2.083
71.8608 2.031
71.8910 1.615
71.9213 1.823
71.9516 1.615
71.9819 1.354
72.0122 1.979
72.0424 1.615
72.0727 1.615
72.1030 1.719
72.1333 2.187
72.1635 1.719
72.1938 2.344
72.2241 1.771
72.2544 2.083
72.2847 1.875
72.3149 1.667
72.3452 2.135
72.3755 2.292
72.4058 2.187
72.4361 1.927
72.4663 1.562
72.4966 2.240
72.5269 1.719
72.5572 2.031
72.5874 1.979
72.6177 1.667
72.6480 2.187
72.6783 1.354
72.7086 2.240
72.7388 1.875
72.7691 1.771
72.7994 1.510
72.8297 2.031
72.8600 1.354
72.8902 1.719
72.9205 1.302
72.9508 1.146
72.9811 1.823
73.0113 1.354
73.0416 1.302
73.0719 1.719
73.1022 1.615
73.1325 1.302
73.1627 1.510
73.1930 1.875
73.2233 1.719
73.2536 1.406
73.2839 1.406
73.3141 1.719
73.3444 1.615
73.3747 1.458
73.4050 1.510
73.4353 1.250
73.4655 1.250
73.4958 1.823
73.5261 1.406
73.5564 1.354
73.5866 1.719
73.6169 1.510
73.6472 1.302
73.6775 1.615
73.7078 1.562
73.7380 1.250
73.7683 1.250
73.7986 1.458
73.8289 1.354
73.8592 1.510
73.8894 1.198
73.9197 1.250
73.9500 1.458
73.9803 1.510
74.0105 1.354
74.0408 1.302
74.0711 1.146
74.1014 1.719
74.1317 0.937
74.1619 1.146
74.1922 1.354
74.2225 1.250
74.2528 1.198
74.2831 1.510
74.3133 1.146
74.3436 1.302
74.3739 1.667
74.4042 1.250
74.4344 1.094
74.4647 0.937
74.4950 1.354
74.5253 1.823
74.5556 1.198
74.5858 1.198
74.6161 1.302
74.6464 1.198
74.6767 1.354
74.7070 0.990
74.7372 1.354
74.7675 1.198
74.7978 1.198
74.8281 1.458
74.8583 1.562
74.8886 1.302
74.9189 1.458
74.9492 1.510
74.9795 1.719
75.0097 1.458
75.0400 1.250
75.0703 1.562
75.1006 0.990
75.1309 1.615
75.1611 1.094
75.1914 1.146
75.2217 1.250
75.2520 1.458
75.2822 1.302
75.3125 1.562
75.3428 1.198
75.3731 1.458
75.4034 1.562
75.4336 1.042
75.4639 1.146
75.4942 1.354
75.5245 1.510
75.5548 1.510
75.5850 1.198
75.6153 1.042
75.6456 1.094
75.6759 1.458
75.7061 1.094
75.7364 1.562
75.7667 1.146
75.7970 1.510
75.8273 1.458
75.8575 1.198
75.8878 1.198
75.9181 1.719
75.9484 1.354
75.9787 1.302
76.0089 1.406
76.0392 1.823
76.0695 1.250
76.0998 1.771
76.1301 1.406
76.1603 1.667
76.1906 1.354
76.2209 0.885
76.2512 1.667
76.2814 1.615
76.3117 1.719
76.3420 1.875
76.3723 1.510
76.4026 1.302
76.4328 1.354
76.4631 1.615
76.4934 2.240
76.5237 1.927
76.5540 1.823
76.5842 1.458
76.6145 1.979
76.6448 2.135
76.6751 2.656
76.7053 2.031
76.7356 1.979
76.7659 2.135
76.7962 2.552
76.8265 2.656
76.8567 2.396
76.8870 2.187
76.9173 2.083
76.9476 1.875
76.9779 2.292
77.0081 2.552
77.0384 2.240
77.0687 2.448
77.0990 2.292
77.1292 1.875
77.1595 2.656
77.1898 1.927
77.2201 1.250
77.2504 1.823
77.2806 2.135
77.3109 1.719
77.3412 1.458
77.3715 1.927
77.4018 1.042
77.4320 1.458
77.4623 1.510
77.4926 2.031
77.5229 1.667
77.5531 1.667
77.5834 1.406
77.6137 1.562
77.6440 1.146
77.6743 1.510
77.7045 1.354
77.7348 1.042
77.7651 1.719
77.7954 1.510
77.8257 1.198
77.8559 1.302
77.8862 1.510
77.9165 1.198
77.9468 1.094
77.9770 1.458
78.0073 1.562
78.0376 1.302
78.0679 1.198
78.0982 0.781
78.1284 1.146
78.1587 1.198
78.1890 1.198
78.2193 0.937
78.2496 1.042
78.2798 1.042
78.3101 0.990
78.3404 1.302
78.3707 1.042
78.4009 1.198
78.4312 1.406
78.4615 1.562
78.4918 1.771
78.5221 1.042
78.5523 1.250
78.5826 1.615
78.6129 1.458
78.6432 1.146
78.6735 0.937
78.7037 2.083
78.7340 1.198
78.7643 0.781
78.7946 1.198
78.8248 1.302
78.8551 1.198
78.8854 1.198
78.9157 1.458
78.9460 1.042
78.9762 0.833
79.0065 0.833
79.0368 1.042
79.0671 1.667
79.0974 1.510
79.1276 1.354
79.1579 1.146
79.1882 1.667
79.2185 1.771
79.2488 1.198
79.2790 1.250
79.3093 0.937
79.3396 1.771
79.3699 1.146
79.4001 1.823
79.4304 0.885
79.4607 0.990
79.4910 1.094
79.5213 1.354
79.5515 0.833
79.5818 1.302
79.6121 1.250
79.6424 1.250
79.6727 1.615
79.7029 1.406
79.7332 1.250
79.7635 1.771
79.7938 1.615
79.8240 0.990
79.8543 0.833
79.8846 1.406
79.9149 1.354
79.9452 1.406
79.9754 1.615
80.0057 1.719
80.0360 1.510
80.0663 1.615
80.0966 1.146
80.1268 1.198
80.1571 1.406
80.1874 0.781
80.2177 1.354
80.2479 1.042
80.2782 1.458
80.3085 1.406
80.3388 1.250
80.3691 1.094
80.3993 1.458
80.4296 1.198
80.4599 1.250
80.4902 1.198
80.5205 1.354
80.5507 1.250
80.5810 1.458
80.6113 0.885
80.6416 1.198
80.6718 1.198
80.7021 1.667
80.7324 1.458
80.7627 1.771
80.7930 1.198
80.8232 1.198
80.8535 1.042
80.8838 1.406
80.9141 1.510
80.9444 1.823
80.9746 0.990
81.0049 1.719
81.0352 1.719
81.0655 1.458
81.0957 1.042
81.1260 1.667
81.1563 1.771
81.1866 1.667
81.2169 1.667
81.2471 1.250
81.2774 2.135
81.3077 1.562
81.3380 2.031
81.3683 1.875
81.3985 1.719
81.4288 1.927
81.4591 1.719
81.4894 1.667
81.5196 1.667
81.5499 1.823
81.5802 1.458
81.6105 1.042
81.6408 1.250
81.6710 1.198
81.7013 1.042
81.7316 1.615
81.7619 2.135
81.7922 1.198
81.8224 1.198
81.8527 1.302
81.8830 1.562
81.9133 1.094
81.9436 1.458
81.9738 0.937
82.0041 1.146
82.0344 1.354
82.0647 0.990
82.0949 1.719
82.1252 1.198
82.1555 0.937
82.1858 1.302
82.2161 1.094
82.2463 1.354
82.2766 1.042
82.3069 1.198
82.3372 1.302
82.3675 1.094
82.3977 1.250
82.4280 1.302
82.4583 1.354
82.4886 1.667
82.5188 1.198
82.5491 1.406
82.5794 1.302
82.6097 1.146
82.6400 1.458
82.6702 1.823
82.7005 1.406
82.7308 0.885
82.7611 1.719
82.7914 1.198
82.8216 1.094
82.8519 1.198
82.8822 0.885
82.9125 0.729
82.9427 1.146
82.9730 1.667
83.0033 1.198
83.0336 1.510
83.0639 1.198
83.0941 1.250
83.1244 1.250
83.1547 1.146
83.1850 1.198
83.2153 1.146
83.2455 1.354
83.2758 1.250
83.3061 1.562
83.3364 1.198
83.3666 1.094
83.3969 1.094
83.4272 1.302
83.4575 1.302
83.4878 1.042
83.5180 1.146
83.5483 1.042
83.5786 1.458
83.6089 1.198
83.6392 1.146
83.6694 0.937
83.6997 1.406
83.7300 1.094
83.7603 1.146
83.7905 0.937
83.8208 0.833
83.8511 1.250
83.8814 1.094
83.9117 1.146
83.9419 1.250
83.9722 1.458
84.0025 1.146
84.0328 1.302
84.0631 1.198
84.0933 1.302
84.1236 0.729
84.1539 0.833
84.1842 1.094
84.2144 1.250
84.2447 1.250
84.2750 1.719
84.3053 1.615
84.3356 0.937
84.3658 1.302
84.3961 0.990
84.4264 0.937
84.4567 1.458
84.4870 0.937
84.5172 1.198
84.5475 0.990
84.5778 1.198
84.6081 1.146
84.6383 1.458
84.6686 0.885
84.6989 1.302
84.7292 1.354
84.7595 0.781
84.7897 1.354
84.8200 1.250
84.8503 1.042
84.8806 1.094
84.9109 1.302
84.9411 1.042
84.9714 0.937
85.0017 1.146
85.0320 1.667
85.0623 1.302
85.0925 0.990
85.1228 1.458
85.1531 1.406
85.1834 1.667
85.2136 1.458
85.2439 1.042
85.2742 0.937
85.3045 1.458
85.3348 1.198
85.3650 1.250
85.3953 1.198
85.4256 1.042
85.4559 1.354
85.4862 1.198
85.5164 1.198
85.5467 1.250
85.5770 1.458
85.6073 1.250
85.6375 1.354
85.6678 0.781
85.6981 1.458
85.7284 1.042
85.7587 1.146
85.7889 1.406
85.8192 0.990
85.8495 1.250
85.8798 0.625
85.9101 1.094
85.9403 1.146
85.9706 0.833
86.0009 1.146
86.0312 1.146
86.0614 1.406
86.0917 1.198
86.1220 1.406
86.1523 1.042
86.1826 1.406
86.2128 1.198
86.2431 0.729
86.2734 1.146
86.3037 1.146
86.3340 1.198
86.3642 1.458
86.3945 1.198
86.4248 1.042
86.4551 1.667
86.4853 1.198
86.5156 1.354
86.5459 1.302
86.5762 0.990
86.6065 1.198
86.6367 1.146
86.6670 0.625
86.6973 1.615
86.7276 1.406
86.7579 1.302
86.7881 1.354
86.8184 0.885
86.8487 1.146
86.8790 1.198
86.9092 1.146
86.9395 0.729
86.9698 1.458
87.0001 0.729
87.0304 0.885
87.0606 1.198
87.0909 1.146
87.1212 1.458
87.1515 1.250
87.1818 1.302
87.2120 1.042
87.2423 0.990
87.2726 1.198
87.3029 1.250
87.3331 1.458
87.3634 1.406
87.3937 1.198
87.4240 1.146
87.4543 1.510
87.4845 1.562
87.5148 1.302
87.5451 1.406
87.5754 1.146
87.6057 1.250
87.6359 1.198
87.6662 1.354
87.6965 1.302
87.7268 0.885
87.7571 1.562
87.7873 1.094
87.8176 1.094
87.8479 1.562
87.8782 1.250
87.9084 1.094
87.9387 1.458
87.9690 1.302
87.9993 1.094
88.0296 1.198
88.0598 1.198
88.0901 0.990
88.1204 1.302
88.1507 1.719
88.1810 1.667
88.2112 0.937
88.2415 1.354
88.2718 1.406
88.3021 1.771
88.3323 1.250
88.3626 1.302
88.3929 1.354
88.4232 1.406
88.4535 1.406
88.4837 1.823
88.5140 1.094
88.5443 1.198
88.5746 1.615
88.6049 1.562
88.6351 1.406
88.6654 1.667
88.6957 1.406
88.7260 1.354
88.7562 1.198
88.7865 1.510
88.8168 1.719
88.8471 1.979
88.8774 2.031
88.9076 1.719
88.9379 2.031
88.9682 2.031
88.9985 1.667
89.0288 1.979
89.0590 1.510
89.0893 1.979
89.1196 2.292
89.1499 2.396
89.1801 2.344
89.2104 2.500
89.2407 2.344
89.2710 2.604
89.3013 2.240
89.3315 2.656
89.3618 3.229
89.3921 3.385
89.4224 2.865
89.4527 2.448
89.4829 3.594
89.5132 3.125
89.5435 3.385
89.5738 3.542
89.6040 3.177
89.6343 3.073
89.6646 2.604
89.6949 2.708
89.7252 2.708
89.7554 2.448
89.7857 2.187
89.8160 2.656
89.8463 2.396
89.8766 2.135
89.9068 2.240
89.9371 2.344
89.9674 1.927
89.9977 2.187
90.0279 1.719
90.0582 1.979
90.0885 2.344
90.1188 2.240
90.1491 2.083
90.1793 2.187
90.2096 1.667
90.2399 1.875
90.2702 1.667
90.3005 1.875
90.3307 2.292
90.3610 1.719
90.3913 1.302
90.4216 1.667
90.4518 1.562
90.4821 1.719
90.5124 1.354
90.5427 1.146
90.5730 1.250
90.6032 1.667
90.6335 1.875
90.6638 0.885
90.6941 1.562
90.7244 1.354
90.7546 1.823
90.7849 1.354
90.8152 1.667
90.8455 1.667
90.8758 1.198
90.9060 1.406
90.9363 1.458
90.9666 1.198
90.9969 1.042
91.0271 1.458
91.0574 1.458
91.0877 1.094
91.1180 1.146
91.1483 1.250
91.1785 1.667
91.2088 1.094
91.2391 1.250
91.2694 1.615
91.2997 1.875
91.3299 1.042
91.3602 1.094
91.3905 1.146
91.4208 1.667
91.4510 1.250
91.4813 1.510
91.5116 1.198
91.5419 1.667
91.5722 1.250
91.6024 1.302
91.6327 1.771
91.6630 1.094
91.6933 1.198
91.7236 1.198
91.7538 1.250
91.7841 1.615
91.8144 1.719
91.8447 1.250
91.8749 1.510
91.9052 1.667
91.9355 1.302
91.9658 1.719
91.9961 1.667
92.0263 1.302
92.0566 1.667
92.0869 0.833
92.1172 1.510
92.1475 1.719
92.1777 1.354
92.2080 1.771
92.2383 1.719
92.2686 1.302
92.2988 2.187
92.3291 1.146
92.3594 1.667
92.3897 1.562
92.4200 1.667
92.4502 1.719
92.4805 1.771
92.5108 1.771
92.5411 1.562
92.5714 1.719
92.6016 2.135
92.6319 1.719
92.6622 2.240
92.6925 1.615
92.7227 1.406
92.7530 1.875
92.7833 1.823
92.8136 1.875
92.8439 1.719
92.8741 1.823
92.9044 2.292
92.9347 1.823
92.9650 1.719
92.9953 1.823
93.0255 1.719
93.0558 1.354
93.0861 1.927
93.1164 1.719
93.1466 1.042
93.1769 1.771
93.2072 1.406
93.2375 1.667
93.2678 1.354
93.2980 1.615
93.3283 1.615
93.3586 1.719
93.3889 1.719
93.4192 1.510
93.4494 1.250
93.4797 1.823
93.5100 1.302
93.5403 1.146
93.5706 1.406
93.6008 1.198
93.6311 1.719
93.6614 1.510
93.6917 1.667
93.7219 1.458
93.7522 1.354
93.7825 1.875
93.8128 1.302
93.8431 1.406
93.8733 1.510
93.9036 2.031
93.9339 1.667
93.9642 1.510
93.9945 1.406
94.0247 1.667
94.0550 1.562
94.0853 1.667
94.1156 1.823
94.1458 1.510
94.1761 1.771
94.2064 1.042
94.2367 2.083
94.2670 1.823
94.2972 1.562
94.3275 1.875
94.3578 1.771
94.3881 1.719
94.4184 1.146
94.4486 1.771
94.4789 1.198
94.5092 1.615
94.5395 1.667
94.5697 2.552
94.6000 2.656
94.6303 1.979
94.6606 1.719
94.6909 2.187
94.7211 2.708
94.7514 1.562
94.7817 2.292
94.8120 1.875
94.8423 2.135
94.8725 2.344
94.9028 2.344
94.9331 2.708
94.9634 2.604
94.9936 2.760
95.0239 2.396
95.0542 2.500
95.0845 3.021
95.1148 2.708
95.1450 2.448
95.1753 2.656
95.2056 3.490
95.2359 3.333
95.2662 2.708
95.2964 2.344
95.3267 2.448
95.3570 3.542
95.3873 3.177
95.4175 2.865
95.4478 2.240
95.4781 3.229
95.5084 2.344
95.5387 2.292
95.5689 2.500
95.5992 3.385
95.6295 2.760
95.6598 2.292
95.6901 2.812
95.7203 2.656
95.7506 1.719
95.7809 2.396
95.8112 2.344
95.8414 2.448
95.8717 2.187
95.9020 2.135
95.9323 2.344
95.9626 1.823
95.9928 1.406
96.0231 1.719
96.0534 1.562
96.0837 1.979
96.1140 1.719
96.1442 1.667
96.1745 1.510
96.2048 1.302
96.2351 1.927
96.2653 1.667
96.2956 1.458
96.3259 2.031
96.3562 1.875
96.3865 1.302
96.4167 1.615
96.4470 1.510
96.4773 1.562
96.5076 1.510
96.5379 1.771
96.5681 1.562
96.5984 1.615
96.6287 1.302
96.6590 1.302
96.6893 2.083
96.7195 1.510
96.7498 1.771
96.7801 1.667
96.8104 1.250
96.8406 1.302
96.8709 1.406
96.9012 1.198
96.9315 1.354
96.9618 1.458
96.9920 1.302
97.0223 0.937
97.0526 1.927
97.0829 1.406
97.1132 1.198
97.1434 1.250
97.1737 1.406
97.2040 1.302
97.2343 1.198
97.2645 2.187
97.2948 1.667
97.3251 1.719
97.3554 1.146
97.3857 1.927
97.4159 1.406
97.4462 1.302
97.4765 1.510
97.5068 1.198
97.5371 1.042
97.5673 1.458
97.5976 1.719
97.6279 1.302
97.6582 1.667
97.6884 1.823
97.7187 1.615
97.7490 1.719
97.7793 1.458
97.8096 1.562
97.8398 1.823
97.8701 1.458
97.9004 1.406
97.9307 1.354
97.9610 1.667
97.9912 1.719
98.0215 2.031
98.0518 1.198
98.0821 1.562
98.1123 1.927
98.1426 2.135
98.1729 2.292
98.2032 1.094
98.2335 2.292
98.2637 1.927
98.2940 1.667
98.3243 1.406
98.3546 2.292
98.3849 1.771
98.4151 1.979
98.4454 2.344
98.4757 1.771
98.5060 1.823
98.5362 2.604
98.5665 2.240
98.5968 2.135
98.6271 1.719
98.6574 2.292
98.6876 2.396
98.7179 2.135
98.7482 1.302
98.7785 1.823
98.8088 2.135
98.8390 2.031
98.8693 1.510
98.8996 2.292
98.9299 1.823
98.9601 2.344
98.9904 1.458
99.0207 2.240
99.0510 1.927
99.0813 1.771
99.1115 1.094
99.1418 1.771
99.1721 1.927
99.2024 2.083
99.2327 2.083
99.2629 1.667
99.2932 1.458
99.3235 1.771
99.3538 1.615
99.3841 1.250
99.4143 1.354
99.4446 1.406
99.4749 1.146
99.5052 1.458
99.5354 1.458
99.5657 1.458
99.5960 1.198
99.6263 1.406
99.6566 1.094
99.6868 1.094
99.7171 1.771
99.7474 1.927
99.7777 1.458
99.8080 0.677
99.8382 1.458
99.8685 1.510
99.8988 1.823
99.9291 1.562
99.9593 1.823
99.9896 2.135
100.0199 1.198
100.0502 1.302
100.0805 1.667
100.1107 1.458
100.1410 1.615
100.1713 1.042
100.2016 1.302
100.2319 1.510
100.2621 1.302
100.2924 1.094
100.3227 1.198
100.3530 1.094
100.3832 1.250
100.4135 1.198
100.4438 1.562
100.4741 1.458
100.5044 1.406
100.5346 1.250
100.5649 1.250
100.5952 1.042
100.6255 1.406
100.6558 1.146
100.6860 1.042
100.7163 1.146
100.7466 0.781
100.7769 1.354
100.8071 1.562
100.8374 1.510
100.8677 1.250
100.8980 1.771
100.9283 1.667
100.9585 1.354
100.9888 1.719
101.0191 1.458
101.0494 1.250
101.0797 1.458
101.1099 1.406
101.1402 1.302
101.1705 1.406
101.2008 0.781
101.2310 1.302
101.2613 1.562
101.2916 1.042
101.3219 1.562
101.3522 1.250
101.3824 0.833
101.4127 1.719
101.4430 1.510
101.4733 1.510
101.5036 1.094
101.5338 1.562
101.5641 1.823
101.5944 1.094
101.6247 1.667
101.6549 0.990
101.6852 1.406
101.7155 1.771
101.7458 1.302
101.7761 1.094
101.8063 2.187
101.8366 1.562
101.8669 1.771
101.8972 1.458
101.9275 1.250
101.9577 1.250
101.9880 1.667
102.0183 1.302
102.0486 1.302
102.0788 1.562
102.1091 1.406
102.1394 1.354
102.1697 1.719
102.2000 1.875
102.2302 1.458
102.2605 2.031
102.2908 1.875
102.3211 1.510
102.3514 1.823
102.3816 1.615
102.4119 1.510
102.4422 1.562
102.4725 2.552
102.5028 1.406
102.5330 1.771
102.5633 1.771
102.5936 1.510
102.6239 1.927
102.6541 2.031
102.6844 1.458
102.7147 2.292
102.7450 2.135
102.7753 1.302
102.8055 1.198
102.8358 1.667
102.8661 1.719
102.8964 2.448
102.9267 2.187
102.9569 2.344
102.9872 2.187
103.0175 2.187
103.0478 1.823
103.0780 2.396
103.1083 1.875
103.1386 2.240
103.1689 1.927
103.1992 2.031
103.2294 1.302
103.2597 2.292
103.2900 1.875
103.3203 2.344
103.3506 2.396
103.3808 2.448
103.4111 1.719
103.4414 1.927
103.4717 1.510
103.5019 2.031
103.5322 1.510
103.5625 1.771
103.5928 2.031
103.6231 2.760
103.6533 2.448
103.6836 1.927
103.7139 2.448
103.7442 2.083
103.7745 2.083
103.8047 2.500
103.8350 2.604
103.8653 2.344
103.8956 2.187
103.9258 2.187
103.9561 2.656
103.9864 2.187
104.0167 2.500
104.0470 2.552
104.0772 2.865
104.1075 2.396
104.1378 2.187
104.1681 2.552
104.1984 2.083
104.2286 2.500
104.2589 3.490
104.2892 2.083
104.3195 2.240
104.3497 2.031
104.3800 2.187
104.4103 2.500
104.4406 2.500
104.4709 1.875
104.5011 1.979
104.5314 1.406
104.5617 2.292
104.5920 1.823
104.6223 1.458
104.6525 2.240
104.6828 1.458
104.7131 1.875
104.7434 1.875
104.7736 2.031
104.8039 1.719
104.8342 1.979
104.8645 1.198
104.8948 1.146
104.9250 2.031
104.9553 1.615
104.9856 1.042
105.0159 1.667
105.0462 1.823
105.0764 1.771
105.1067 1.771
105.1370 1.406
105.1673 1.771
105.1975 1.927
105.2278 1.979
105.2581 1.615
105.2884 1.042
105.3187 1.250
105.3489 1.146
105.3792 1.406
105.4095 1.094
105.4398 1.771
105.4701 0.937
105.5003 1.875
105.5306 1.302
105.5609 1.510
105.5912 1.823
105.6215 1.094
105.6517 1.615
105.6820 0.937
105.7123 1.562
105.7426 1.146
105.7728 1.302
105.8031 1.302
105.8334 1.094
105.8637 1.458
105.8940 0.885
105.9242 1.302
105.9545 1.302
105.9848 1.667
106.0151 1.198
106.0454 1.146
106.0756 1.510
106.1059 1.458
106.1362 1.250
106.1665 1.146
106.1967 0.990
106.2270 1.094
106.2573 1.510
106.2876 1.458
106.3179 1.302
106.3481 0.990
106.3784 1.406
106.4087 1.458
106.4390 1.771
106.4693 1.094
106.4995 0.781
106.5298 1.510
106.5601 0.990
106.5904 1.719
106.6206 1.510
106.6509 0.990
106.6812 0.885
106.7115 1.406
106.7418 1.042
106.7720 1.354
106.8023 1.458
106.8326 1.146
106.8629 1.406
106.8932 1.198
106.9234 1.042
106.9537 1.094
106.9840 1.250
107.0143 1.458
107.0445 1.354
107.0748 1.094
107.1051 1.302
107.1354 1.771
107.1657 0.937
107.1959 2.083
107.2262 1.615
107.2565 1.406
107.2868 1.406
107.3171 1.979
107.3473 0.990
107.3776 1.771
107.4079 1.510
107.4382 1.458
107.4684 1.667
107.4987 1.510
107.5290 1.198
107.5593 1.562
107.5896 1.302
107.6198 1.094
107.6501 1.146
107.6804 1.510
107.7107 1.302
107.7410 1.094
107.7712 1.667
107.8015 1.354
107.8318 1.146
107.8621 1.250
107.8923 1.354
107.9226 1.042
107.9529 1.510
107.9832 1.406
108.0135 1.354
108.0437 1.458
108.0740 1.406
108.1043 1.458
108.1346 1.615
108.1649 1.510
108.1951 1.510
108.2254 1.667
108.2557 0.990
108.2860 1.302
108.3163 1.250
108.3465 1.406
108.3768 1.094
108.4071 1.667
108.4374 1.719
108.4676 1.302
108.4979 1.198
108.5282 1.042
108.5585 1.458
108.5888 1.302
108.6190 1.146
108.6493 1.510
108.6796 1.458
108.7099 1.562
108.7402 1.510
108.7704 1.510
108.8007 1.146
108.8310 1.406
108.8613 1.458
108.8915 0.781
108.9218 1.302
108.9521 1.510
108.9824 1.250
109.0127 1.510
109.0429 0.937
109.0732 1.198
109.1035 1.458
109.1338 1.562
109.1641 1.146
109.1943 1.562
109.2246 1.302
109.2549 1.250
109.2852 1.406
109.3154 1.406
109.3457 1.458
109.3760 1.875
109.4063 1.510
109.4366 1.302
109.4668 1.406
109.4971 1.458
109.5274 1.042
109.5577 1.562
109.5880 1.979
109.6182 1.562
109.6485 1.875
109.6788 1.250
109.7091 1.510
109.7393 1.667
109.7696 1.667
109.7999 1.510
109.8302 1.562
109.8605 1.719
109.8907 1.771
109.9210 2.135
109.9513 2.240
109.9816 2.187
110.0119 2.187
110.0421 2.187
110.0724 1.927
110.1027 1.771
110.1330 1.823
110.1632 2.031
110.1935 2.240
110.2238 2.187
110.2541 2.656
110.2844 1.979
110.3146 1.719
110.3449 1.875
110.3752 1.719
110.4055 1.510
110.4358 2.500
110.4660 2.240
110.4963 1.823
110.5266 1.771
110.5569 1.927
110.5871 1.771
110.6174 2.552
110.6477 2.031
110.6780 2.031
110.7083 2.187
110.7385 2.292
110.7688 2.135
110.7991 1.719
110.8294 2.083
110.8597 2.135
110.8899 1.979
110.9202 1.927
110.9505 1.615
110.9808 1.562
111.0110 2.187
111.0413 1.615
111.0716 1.406
111.1019 1.302
111.1322 1.406
111.1624 1.771
111.1927 1.510
111.2230 2.031
111.2533 1.094
111.2836 1.615
111.3138 1.302
111.3441 1.615
111.3744 1.667
111.4047 1.562
111.4350 1.823
111.4652 1.302
111.4955 1.302
111.5258 1.667
111.5561 1.458
111.5863 1.562
111.6166 1.823
111.6469 1.771
111.6772 1.562
111.7075 1.510
111.7377 0.990
111.7680 0.990
111.7983 1.510
111.8286 1.198
111.8589 1.406
111.8891 1.302
111.9194 1.719
111.9497 1.302
111.9800 1.562
112.0102 1.354
112.0405 1.302
112.0708 1.094
112.1011 2.552
112.1314 1.771
112.1616 1.667
112.1919 1.458
112.2222 1.198
112.2525 1.458
112.2828 1.198
112.3130 1.667
112.3433 1.302
112.3736 1.615
112.4039 1.406
112.4341 1.562
112.4644 1.562
112.4947 1.719
112.5250 1.354
112.5553 1.719
112.5855 1.354
112.6158 1.510
112.6461 1.510
112.6764 1.406
112.7067 1.719
112.7369 1.510
112.7672 1.146
112.7975 1.042
112.8278 1.406
112.8580 1.406
112.8883 2.240
112.9186 1.458
112.9489 1.146
112.9792 1.823
113.0094 1.562
113.0397 1.667
113.0700 1.979
113.1003 1.458
113.1306 1.771
113.1608 1.042
113.1911 1.458
113.2214 1.250
113.2517 1.510
113.2819 1.615
113.3122 1.562
113.3425 1.406
113.3728 1.406
113.4031 1.562
113.4333 1.146
113.4636 1.302
113.4939 2.135
113.5242 1.354
113.5545 1.562
113.5847 1.562
113.6150 1.615
113.6453 1.354
113.6756 1.354
113.7058 1.458
113.7361 1.354
113.7664 1.771
113.7967 1.250
113.8270 1.406
113.8572 1.875
113.8875 1.719
113.9178 1.875
113.9481 1.302
113.9784 1.302
114.0086 1.198
114.0389 1.771
114.0692 1.510
114.0995 1.094
114.1298 1.719
114.1600 1.146
114.1903 1.771
114.2206 1.458
114.2509 1.667
114.2811 1.094
114.3114 1.615
114.3417 1.875
114.3720 1.562
114.4023 2.135
114.4325 1.354
114.4628 1.667
114.4931 1.927
114.5234 1.771
114.5537 1.562
114.5839 1.823
114.6142 1.823
114.6445 1.406
114.6748 1.667
114.7050 1.823
114.7353 1.458
114.7656 1.667
114.7959 1.354
114.8262 2.240
114.8564 2.083
114.8867 1.510
114.9170 1.823
114.9473 1.562
114.9776 1.667
115.0078 1.510
115.0381 2.031
115.0684 2.135
115.0987 1.615
115.1289 1.875
115.1592 0.990
115.1895 1.875
115.2198 2.135
115.2501 1.979
115.2803 2.031
115.3106 1.719
115.3409 1.562
115.3712 1.875
115.4015 1.875
115.4317 2.604
115.4620 1.875
115.4923 1.719
115.5226 2.187
115.5528 1.667
115.5831 2.448
115.6134 2.500
115.6437 1.771
115.6740 2.760
115.7042 3.125
115.7345 2.083
115.7648 2.760
115.7951 2.083
115.8254 2.656
115.8556 2.812
115.8859 2.760
115.9162 2.760
115.9465 2.500
115.9767 2.656
116.0070 2.760
116.0373 2.396
116.0676 3.333
116.0979 3.125
116.1281 2.865
116.1584 2.708
116.1887 2.448
116.2190 2.812
116.2493 3.281
116.2795 2.917
116.3098 3.073
116.3401 2.344
116.3704 3.125
116.4006 2.760
116.4309 2.969
116.4612 2.187
116.4915 2.708
116.5218 2.448
116.5520 2.656
116.5823 3.906
116.6126 2.552
116.6429 2.812
116.6732 2.344
116.7034 2.083
116.7337 2.344
116.7640 2.760
116.7943 2.552
116.8245 2.292
116.8548 2.865
116.8851 2.865
116.9154 2.500
116.9457 1.979
116.9759 1.979
117.0062 2.708
117.0365 2.187
117.0668 2.240
117.0971 2.135
117.1273 1.771
117.1576 1.979
117.1879 1.927
117.2182 1.875
117.2485 2.031
117.2787 2.031
117.3090 2.187
117.3393 1.719
117.3696 2.448
117.3998 1.615
117.4301 1.979
117.4604 1.198
117.4907 2.083
117.5210 1.562
117.5512 1.302
117.5815 1.615
117.6118 1.823
117.6421 2.083
117.6724 1.406
117.7026 1.458
117.7329 1.094
117.7632 1.719
117.7935 1.667
117.8237 2.083
117.8540 1.250
117.8843 2.083
117.9146 1.302
117.9449 2.187
117.9751 1.771
118.0054 2.083
118.0357 1.562
118.0660 1.823
118.0963 1.146
118.1265 1.510
118.1568 1.198
118.1871 1.458
118.2174 1.354
118.2476 1.458
118.2779 1.667
118.3082 1.875
118.3385 1.719
118.3688 1.510
118.3990 1.979
118.4293 1.875
118.4596 1.146
118.4899 1.250
118.5202 1.354
118.5504 1.458
118.5807 1.927
118.6110 1.250
118.6413 1.875
118.6715 1.979
118.7018 1.354
118.7321 1.406
118.7624 1.250
118.7927 1.042
118.8229 1.927
118.8532 1.927
118.8835 1.094
118.9138 1.719
118.9441 1.198
118.9743 1.250
119.0046 1.458
119.0349 1.250
119.0652 1.302
119.0954 1.302
119.1257 1.510
119.1560 1.354
119.1863 1.406
119.2166 1.719
119.2468 1.094
119.2771 1.094
119.3074 2.031
119.3377 1.406
119.3680 1.406
119.3982 1.771
119.4285 1.719
119.4588 1.667
119.4891 1.042
119.5193 1.146
119.5496 1.302
119.5799 1.927
119.6102 1.927
119.6405 1.719
119.6707 1.146
119.7010 1.354
119.7313 1.094
119.7616 1.510
119.7919 1.406
119.8221 1.354
119.8524 2.083
119.8827 1.094
119.9130 1.771
119.9433 1.458
119.9735 1.562
120.0038 1.354
