'Id: "" Comment: "" Operator: "Lab Manager" Anode: "Cu" Scantype: "Locked Coupled" TimePerStep: "19.2" X: "9999" Y: "9999" Z: "9999" 
10.0015 4.010
10.0318 4.427
10.0620 3.542
10.0923 3.750
10.1226 3.750
10.1529 3.802
10.1832 4.115
10.2134 4.479
10.2437 4.115
10.2740 4.115
10.3043 3.906
10.3346 3.437
10.3648 3.854
10.3951 4.323
10.4254 4.792
10.4557 3.437
10.4859 4.062
10.5162 4.062
10.5465 3.177
10.5768 3.490
10.6071 3.385
10.6373 4.219
10.6676 3.229
10.6979 4.062
10.7282 4.271
10.7585 3.333
10.7887 4.792
10.8190 4.323
10.8493 3.646
10.8796 4.427
10.9098 3.490
10.9401 3.229
10.9704 4.375
11.0007 4.740
11.0310 4.375
11.0612 4.010
11.0915 4.271
11.1218 3.229
11.1521 4.271
11.1824 3.385
11.2126 4.271
11.2429 3.750
11.2732 4.062
11.3035 3.437
11.3337 4.427
11.3640 3.542
11.3943 2.969
11.4246 3.958
11.4549 4.219
11.4851 4.167
11.5154 3.281
11.5457 3.021
11.5760 4.010
11.6063 3.385
11.6365 3.490
11.6668 4.271
11.6971 3.125
11.7274 3.646
11.7577 3.542
11.7879 3.646
11.8182 3.646
11.8485 3.854
11.8788 3.698
11.9090 3.177
11.9393 4.010
11.9696 3.021
11.9999 3.646
12.0302 4.531
12.0604 3.750
12.0907 2.604
12.1210 3.385
12.1513 2.917
12.1816 3.437
12.2118 3.437
12.2421 3.125
12.2724 3.698
12.3027 3.542
12.3329 3.542
12.3632 3.021
12.3935 3.750
12.4238 4.010
12.4541 3.281
12.4843 3.073
12.5146 3.021
12.5449 3.125
12.5752 3.229
12.6055 3.646
12.6357 3.281
12.6660 3.177
12.6963 3.646
12.7266 2.604
12.7568 3.542
12.7871 3.177
12.8174 3.750
12.8477 4.323
12.8780 3.854
12.9082 3.333
12.9385 3.437
12.9688 3.854
12.9991 3.021
13.0294 3.281
13.0596 2.760
13.0899 3.646
13.1202 3.490
13.1505 3.177
13.1807 2.396
13.2110 3.490
13.2413 3.646
13.2716 3.333
13.3019 3.698
13.3321 4.010
13.3624 3.229
13.3927 2.812
13.4230 2.448
13.4533 3.542
13.4835 3.229
13.5138 2.292
13.5441 2.917
13.5744 3.802
13.6046 3.854
13.6349 3.229
13.6652 3.542
13.6955 3.177
13.7258 3.437
13.7560 2.396
13.7863 3.177
13.8166 2.865
13.8469 3.073
13.8772 3.594
13.9074 3.177
13.9377 3.073
13.9680 3.021
13.9983 4.010
14.0285 3.542
14.0588 2.500
14.0891 3.385
14.1194 3.385
14.1497 3.854
14.1799 3.021
14.2102 3.125
14.2405 3.437
14.2708 3.437
14.3011 2.708
14.3313 3.594
14.3616 3.437
14.3919 4.167
14.4222 3.437
14.4524 3.333
14.4827 2.865
14.5130 2.865
14.5433 3.750
14.5736 3.281
14.6038 2.969
14.6341 3.594
14.6644 3.698
14.6947 3.646
14.7250 2.969
14.7552 3.125
14.7855 3.229
14.8158 2.760
14.8461 3.854
14.8764 2.760
14.9066 3.125
14.9369 3.021
14.9672 3.906
14.9975 3.490
15.0277 2.865
15.0580 2.865
15.0883 2.865
15.1186 3.125
15.1489 3.281
15.1791 3.229
15.2094 2.448
15.2397 2.969
15.2700 2.812
15.3003 3.437
15.3305 2.656
15.3608 3.021
15.3911 2.708
15.4214 3.594
15.4516 3.073
15.4819 2.760
15.5122 3.333
15.5425 3.125
15.5728 2.865
15.6030 2.812
15.6333 2.656
15.6636 3.021
15.6939 2.708
15.7242 3.021
15.7544 3.229
15.7847 3.073
15.8150 2.656
15.8453 4.271
15.8755 2.708
15.9058 2.552
15.9361 3.229
15.9664 3.125
15.9967 2.760
16.0269 2.812
16.0572 2.760
16.0875 3.646
16.1178 3.698
16.1481 2.500
16.1783 3.854
16.2086 3.333
16.2389 3.229
16.2692 1.927
16.2994 2.812
16.3297 3.333
16.3600 3.177
16.3903 3.073
16.4206 2.552
16.4508 2.760
16.4811 2.292
16.5114 3.229
16.5417 2.708
16.5720 3.385
16.6022 2.187
16.6325 3.385
16.6628 2.292
16.6931 3.854
16.7233 3.177
16.7536 3.385
16.7839 3.177
16.8142 3.490
16.8445 3.854
16.8747 2.969
16.9050 3.958
16.9353 3.177
16.9656 2.760
16.9959 3.333
17.0261 3.594
17.0564 3.333
17.0867 3.177
17.1170 2.552
17.1472 3.490
17.1775 3.542
17.2078 2.344
17.2381 3.698
17.2684 2.656
17.2986 3.854
17.3289 3.125
17.3592 3.437
17.3895 3.073
17.4198 3.802
17.4500 2.240
17.4803 2.656
17.5106 2.760
17.5409 2.656
17.5712 3.073
17.6014 2.396
17.6317 2.656
17.6620 2.969
17.6923 4.115
17.7225 3.385
17.7528 2.812
17.7831 2.969
17.8134 2.969
17.8437 2.812
17.8739 2.500
17.9042 3.177
17.9345 2.917
17.9648 2.969
17.9951 3.333
18.0253 3.073
18.0556 2.708
18.0859 3.281
18.1162 2.552
18.1464 2.812
18.1767 3.177
18.2070 2.708
18.2373 3.073
18.2676 3.750
18.2978 2.135
18.3281 2.969
18.3584 2.812
18.3887 3.125
18.4190 2.865
18.4492 3.385
18.4795 2.917
18.5098 2.969
18.5401 3.229
18.5703 3.229
18.6006 3.177
18.6309 3.021
18.6612 2.969
18.6915 2.708
18.7217 2.500
18.7520 3.177
18.7823 1.875
18.8126 2.396
18.8429 3.333
18.8731 3.281
18.9034 3.177
18.9337 2.865
18.9640 2.552
18.9942 3.177
19.0245 3.802
19.0548 2.969
19.0851 2.917
19.1154 2.240
19.1456 2.917
19.1759 2.344
19.2062 3.125
19.2365 3.542
19.2668 2.240
19.2970 2.552
19.3273 3.229
19.3576 2.812
19.3879 2.656
19.4181 2.760
19.4484 2.396
19.4787 2.448
19.5090 1.875
19.5393 2.344
19.5695 2.187
19.5998 3.125
19.6301 3.073
19.6604 2.240
19.6907 1.927
19.7209 2.708
19.7512 2.760
19.7815 2.500
19.8118 2.708
19.8420 2.812
19.8723 2.656
19.9026 2.292
19.9329 2.917
19.9632 3.281
19.9934 3.333
20.0237 2.865
20.0540 3.594
20.0843 3.177
20.1146 2.135
20.1448 1.979
20.1751 3.281
20.2054 3.021
20.2357 2.031
20.2659 3.906
20.2962 3.437
20.3265 2.865
20.3568 2.917
20.3871 2.656
20.4173 2.708
20.4476 2.604
20.4779 3.073
20.5082 3.385
20.5385 2.812
20.5687 3.854
20.5990 2.396
20.6293 2.760
20.6596 2.708
20.6899 2.760
20.7201 2.865
20.7504 3.490
20.7807 2.552
20.8110 2.812
20.8412 2.031
20.8715 2.187
20.9018 2.135
20.9321 2.812
20.9624 2.708
20.9926 2.708
21.0229 2.917
21.0532 3.281
21.0835 3.490
21.1138 3.125
21.1440 2.344
21.1743 2.760
21.2046 2.552
21.2349 3.490
21.2651 3.490
21.2954 3.021
21.3257 2.448
21.3560 2.917
21.3863 3.073
21.4165 2.917
21.4468 2.812
21.4771 3.021
21.5074 3.385
21.5377 2.292
21.5679 2.865
21.5982 3.021
21.6285 2.083
21.6588 2.656
21.6890 2.292
21.7193 3.073
21.7496 3.229
21.7799 2.656
21.8102 2.396
21.8404 2.812
21.8707 3.229
21.9010 2.917
21.9313 3.125
21.9616 2.396
21.9918 2.552
22.0221 3.385
22.0524 2.708
22.0827 2.448
22.1129 2.240
22.1432 2.187
22.1735 2.448
22.2038 2.396
22.2341 3.021
22.2643 3.125
22.2946 2.969
22.3249 2.708
22.3552 2.865
22.3855 2.552
22.4157 2.552
22.4460 2.344
22.4763 3.021
22.5066 3.542
22.5368 2.552
22.5671 2.292
22.5974 3.281
22.6277 2.240
22.6580 2.448
22.6882 2.396
22.7185 2.552
22.7488 3.437
22.7791 2.500
22.8094 2.708
22.8396 2.135
22.8699 3.333
22.9002 3.021
22.9305 3.229
22.9607 2.604
22.9910 3.802
23.0213 2.760
23.0516 2.344
23.0819 3.177
23.1121 2.396
23.1424 2.500
23.1727 2.708
23.2030 2.083
23.2333 2.760
23.2635 2.656
23.2938 2.865
23.3241 2.500
23.3544 2.656
23.3846 2.552
23.4149 2.812
23.4452 2.656
23.4755 2.240
23.5058 3.073
23.5360 2.187
23.5663 3.542
23.5966 3.073
23.6269 2.812
23.6572 2.240
23.6874 2.396
23.7177 2.187
23.7480 2.760
23.7783 2.656
23.8086 2.865
23.8388 2.396
23.8691 2.760
23.8994 2.396
23.9297 1.771
23.9599 2.552
23.9902 2.396
24.0205 2.708
24.0508 3.281
24.0811 3.281
24.1113 2.708
24.1416 2.969
24.1719 2.292
24.2022 2.708
24.2325 2.865
24.2627 2.396
24.2930 2.448
24.3233 2.969
24.3536 2.187
24.3838 2.500
24.4141 1.927
24.4444 2.083
24.4747 2.865
24.5050 2.917
24.5352 2.604
24.5655 2.604
24.5958 2.656
24.6261 2.448
24.6564 2.604
24.6866 2.083
24.7169 2.708
24.7472 3.021
24.7775 2.760
24.8077 2.083
24.8380 2.448
24.8683 2.865
24.8986 2.344
24.9289 2.500
24.9591 3.073
24.9894 2.656
25.0197 2.448
25.0500 2.396
25.0803 2.604
25.1105 3.229
25.1408 2.135
25.1711 3.021
25.2014 2.552
25.2316 2.500
25.2619 2.760
25.2922 2.240
25.3225 2.240
25.3528 2.135
25.3830 2.760
25.4133 3.490
25.4436 3.177
25.4739 3.125
25.5042 2.865
25.5344 3.021
25.5647 2.656
25.5950 2.240
25.6253 2.812
25.6555 2.865
25.6858 3.125
25.7161 2.187
25.7464 3.021
25.7767 3.177
25.8069 3.073
25.8372 2.865
25.8675 2.448
25.8978 2.031
25.9281 3.281
25.9583 2.448
25.9886 3.229
26.0189 2.500
26.0492 2.031
26.0794 2.812
26.1097 3.333
26.1400 2.292
26.1703 1.771
26.2006 2.865
26.2308 3.021
26.2611 2.708
26.2914 3.385
26.3217 2.656
26.3520 3.177
26.3822 2.083
26.4125 3.021
26.4428 2.917
26.4731 2.656
26.5034 4.375
26.5336 3.281
26.5639 3.594
26.5942 3.073
26.6245 3.333
26.6547 3.385
26.6850 3.385
26.7153 3.177
26.7456 2.344
26.7759 2.240
26.8061 3.437
26.8364 2.187
26.8667 2.969
26.8970 2.969
26.9273 3.594
26.9575 3.698
26.9878 3.281
27.0181 2.812
27.0484 3.646
27.0786 3.490
27.1089 3.385
27.1392 3.125
27.1695 2.656
27.1998 2.969
27.2300 3.854
27.2603 3.437
27.2906 4.115
27.3209 3.021
27.3512 3.281
27.3814 3.177
27.4117 3.802
27.4420 2.604
27.4723 3.125
27.5025 3.385
27.5328 2.552
27.5631 3.646
27.5934 2.865
27.6237 3.385
27.6539 2.760
27.6842 3.229
27.7145 3.073
27.7448 2.969
27.7751 3.333
27.8053 2.812
27.8356 3.281
27.8659 3.698
27.8962 3.177
27.9264 3.281
27.9567 3.073
27.9870 3.177
28.0173 3.385
28.0476 3.073
28.0778 3.958
28.1081 2.969
28.1384 3.542
28.1687 3.229
28.1990 4.531
28.2292 4.115
28.2595 3.021
28.2898 3.646
28.3201 2.917
28.3503 3.646
28.3806 3.437
28.4109 3.177
28.4412 3.750
28.4715 2.969
28.5017 3.646
28.5320 3.437
28.5623 3.594
28.5926 3.437
28.6229 3.802
28.6531 3.333
28.6834 3.125
28.7137 3.333
28.7440 3.385
28.7742 3.021
28.8045 2.917
28.8348 4.115
28.8651 2.865
28.8954 3.281
28.9256 3.854
28.9559 3.958
28.9862 3.802
29.0165 3.802
29.0468 3.177
29.0770 4.583
29.1073 2.969
29.1376 3.281
29.1679 4.167
29.1981 3.542
29.2284 3.958
29.2587 3.958
29.2890 3.958
29.3193 3.542
29.3495 3.437
29.3798 4.115
29.4101 4.583
29.4404 4.792
29.4707 3.594
29.5009 4.010
29.5312 4.062
29.5615 3.698
29.5918 4.219
29.6221 3.229
29.6523 4.271
29.6826 5.469
29.7129 4.115
29.7432 4.427
29.7734 4.479
29.8037 4.479
29.8340 4.479
29.8643 4.010
29.8946 4.635
29.9248 3.802
29.9551 5.156
29.9854 4.896
30.0157 4.010
30.0460 4.740
30.0762 4.948
30.1065 3.385
30.1368 5.052
30.1671 4.531
30.1973 4.583
30.2276 5.365
30.2579 4.531
30.2882 5.365
30.3185 4.687
30.3487 4.740
30.3790 5.104
30.4093 6.354
30.4396 6.094
30.4699 5.729
30.5001 6.510
30.5304 6.667
30.5607 6.615
30.5910 6.198
30.6212 6.250
30.6515 5.677
30.6818 6.510
30.7121 6.406
30.7424 7.344
30.7726 7.708
30.8029 6.875
30.8332 6.875
30.8635 6.875
30.8938 9.062
30.9240 9.687
30.9543 9.479
30.9846 10.312
31.0149 9.531
31.0451 9.896
31.0754 11.510
31.1057 12.656
31.1360 13.333
31.1663 13.021
31.1965 16.302
31.2268 16.354
31.2571 18.437
31.2874 22.448
31.3177 23.021
31.3479 24.010
31.3782 25.729
31.4085 29.062
31.4388 32.344
31.4690 35.729
31.4993 39.219
31.5296 44.740
31.5599 44.531
31.5902 53.073
31.6204 52.344
31.6507 54.948
31.6810 53.490
31.7113 50.885
31.7416 50.312
31.7718 44.010
31.8021 41.667
31.8324 33.385
31.8627 33.333
31.8929 27.917
31.9232 26.094
31.9535 20.781
31.9838 19.271
32.0141 18.958
32.0443 14.792
32.0746 14.479
32.1049 15.990
32.1352 10.833
32.1655 12.083
32.1957 10.625
32.2260 10.573
32.2563 10.573
32.2866 10.312
32.3169 8.802
32.3471 8.594
32.3774 7.865
32.4077 8.646
32.4380 7.969
32.4682 6.875
32.4985 7.292
32.5288 6.927
32.5591 5.417
32.5894 8.021
32.6196 7.083
32.6499 6.667
32.6802 5.417
32.7105 7.135
32.7408 6.719
32.7710 6.510
32.8013 7.031
32.8316 6.771
32.8619 6.146
32.8921 5.937
32.9224 6.146
32.9527 6.875
32.9830 7.292
33.0133 6.250
33.0435 5.260
33.0738 6.719
33.1041 5.625
33.1344 5.625
33.1647 5.833
33.1949 6.146
33.2252 6.250
33.2555 7.031
33.2858 6.354
33.3160 6.771
33.3463 6.198
33.3766 6.719
33.4069 5.469
33.4372 7.344
33.4674 6.667
33.4977 6.615
33.5280 6.458
33.5583 6.354
33.5886 6.823
33.6188 6.771
33.6491 7.031
33.6794 6.458
33.7097 7.760
33.7399 7.865
33.7702 8.698
33.8005 9.896
33.8308 9.844
33.8611 10.260
33.8913 10.417
33.9216 10.677
33.9519 15.052
33.9822 13.333
34.0125 15.052
34.0427 16.562
34.0730 19.115
34.1033 20.000
34.1336 26.302
34.1638 29.948
34.1941 37.448
34.2244 43.281
34.2547 53.177
34.2850 63.490
34.3152 67.656
34.3455 59.948
34.3758 52.656
34.4061 48.281
34.4364 40.521
34.4666 30.260
34.4969 26.094
34.5272 21.198
34.5575 18.333
34.5877 16.823
34.6180 14.479
34.6483 14.010
34.6786 12.240
34.7089 11.719
34.7391 11.198
34.7694 10.156
34.7997 10.417
34.8300 10.000
34.8603 9.479
34.8905 10.000
34.9208 8.802
34.9511 9.375
34.9814 9.740
35.0116 9.583
35.0419 9.323
35.0722 8.490
35.1025 10.052
35.1328 9.427
35.1630 10.677
35.1933 9.427
35.2236 10.625
35.2539 9.323
35.2842 10.260
35.3144 10.625
35.3447 10.000
35.3750 11.198
35.4053 11.927
35.4356 14.427
35.4658 12.552
35.4961 13.542
35.5264 13.437
35.5567 14.948
35.5869 16.719
35.6172 18.125
35.6475 19.115
35.6778 19.531
35.7081 22.865
35.7383 24.635
35.7686 25.885
35.7989 27.760
35.8292 32.344
35.8595 36.406
35.8897 38.333
35.9200 46.250
35.9503 47.135
35.9806 56.615
36.0108 60.469
36.0411 65.312
36.0714 70.156
36.1017 76.927
36.1320 71.615
36.1622 73.281
36.1925 78.073
36.2228 71.510
36.2531 66.250
36.2834 61.094
36.3136 56.979
36.3439 46.510
36.3742 44.115
36.4045 38.802
36.4347 35.156
36.4650 29.323
36.4953 26.875
36.5256 24.427
36.5559 21.823
36.5861 17.865
36.6164 17.344
36.6467 15.417
36.6770 13.490
36.7073 12.969
36.7375 12.760
36.7678 12.187
36.7981 11.094
36.8284 10.729
36.8586 9.740
36.8889 10.052
36.9192 7.344
36.9495 9.687
36.9798 8.437
37.0100 8.073
37.0403 7.708
37.0706 7.604
37.1009 6.198
37.1312 6.094
37.1614 6.250
37.1917 6.979
37.2220 6.510
37.2523 6.562
37.2825 5.833
37.3128 6.198
37.3431 5.469
37.3734 6.250
37.4037 4.323
37.4339 5.312
37.4642 5.833
37.4945 5.417
37.5248 4.792
37.5551 3.958
37.5853 4.375
37.6156 4.740
37.6459 5.052
37.6762 4.479
37.7064 4.792
37.7367 5.052
37.7670 4.219
37.7973 4.844
37.8276 3.750
37.8578 4.167
37.8881 3.021
37.9184 3.333
37.9487 4.115
37.9790 3.542
38.0092 4.115
38.0395 4.271
38.0698 3.177
38.1001 4.323
38.1304 3.437
38.1606 2.604
38.1909 3.750
38.2212 3.490
38.2515 3.542
38.2817 3.490
38.3120 3.229
38.3423 3.542
38.3726 3.802
38.4029 4.219
38.4331 2.917
38.4634 2.917
38.4937 3.177
38.5240 3.177
38.5543 3.854
38.5845 3.542
38.6148 3.385
38.6451 3.958
38.6754 3.958
38.7056 2.917
38.7359 3.177
38.7662 3.177
38.7965 3.698
38.8268 2.760
38.8570 3.125
38.8873 2.865
38.9176 3.177
38.9479 2.552
38.9782 3.333
39.0084 3.125
39.0387 3.125
39.0690 2.865
39.0993 2.552
39.1295 1.927
39.1598 2.552
39.1901 3.281
39.2204 2.708
39.2507 2.292
39.2809 2.865
39.3112 2.812
39.3415 2.396
39.3718 2.135
39.4021 3.125
39.4323 2.969
39.4626 2.344
39.4929 2.812
39.5232 2.969
39.5534 2.292
39.5837 3.281
39.6140 3.698
39.6443 2.031
39.6746 2.708
39.7048 2.396
39.7351 3.229
39.7654 2.448
39.7957 1.979
39.8260 2.396
39.8562 2.396
39.8865 2.656
39.9168 2.812
39.9471 2.552
39.9773 2.240
40.0076 2.656
40.0379 2.656
40.0682 2.656
40.0985 2.552
40.1287 2.396
40.1590 2.604
40.1893 2.865
40.2196 2.917
40.2499 2.396
40.2801 3.073
40.3104 2.604
40.3407 2.240
40.3710 2.396
40.4012 2.083
40.4315 2.396
40.4618 1.927
40.4921 2.396
40.5224 2.604
40.5526 2.500
40.5829 3.125
40.6132 2.292
40.6435 1.927
40.6738 2.135
40.7040 1.667
40.7343 1.927
40.7646 2.708
40.7949 2.448
40.8251 2.552
40.8554 2.760
40.8857 3.125
40.9160 1.979
40.9463 2.031
40.9765 2.552
41.0068 2.135
41.0371 2.396
41.0674 1.719
41.0977 2.083
41.1279 1.823
41.1582 2.708
41.1885 2.135
41.2188 2.187
41.2491 2.708
41.2793 2.708
41.3096 1.875
41.3399 2.604
41.3702 1.823
41.4004 2.187
41.4307 3.177
41.4610 2.292
41.4913 1.875
41.5216 1.927
41.5518 1.719
41.5821 2.552
41.6124 2.760
41.6427 2.135
41.6730 2.917
41.7032 2.292
41.7335 2.031
41.7638 1.771
41.7941 2.552
41.8243 1.979
41.8546 1.875
41.8849 1.979
41.9152 1.875
41.9455 2.031
41.9757 2.135
42.0060 2.865
42.0363 2.448
42.0666 1.771
42.0969 2.135
42.1271 2.240
42.1574 2.448
42.1877 1.823
42.2180 1.771
42.2482 2.344
42.2785 2.344
42.3088 1.562
42.3391 1.979
42.3694 2.552
42.3996 2.708
42.4299 2.500
42.4602 2.083
42.4905 1.771
42.5208 2.135
42.5510 1.875
42.5813 1.875
42.6116 2.031
42.6419 2.760
42.6721 2.187
42.7024 2.031
42.7327 2.240
42.7630 2.344
42.7933 2.292
42.8235 2.240
42.8538 1.667
42.8841 2.240
42.9144 2.604
42.9447 1.667
42.9749 2.240
43.0052 2.240
43.0355 2.552
43.0658 1.979
43.0960 1.979
43.1263 1.510
43.1566 2.135
43.1869 1.927
43.2172 2.292
43.2474 2.240
43.2777 2.604
43.3080 2.187
43.3383 2.187
43.3686 2.344
43.3988 2.135
43.4291 2.500
43.4594 2.344
43.4897 1.875
43.5199 2.031
43.5502 2.292
43.5805 2.240
43.6108 1.823
43.6411 2.344
43.6713 2.031
43.7016 1.927
43.7319 2.187
43.7622 2.240
43.7925 2.656
43.8227 1.250
43.8530 1.823
43.8833 2.500
43.9136 1.146
43.9439 2.083
43.9741 2.552
44.0044 2.812
44.0347 2.031
44.0650 2.187
44.0952 2.083
44.1255 2.500
44.1558 3.177
44.1861 2.240
44.2164 1.823
44.2466 1.823
44.2769 2.552
44.3072 2.865
44.3375 2.187
44.3678 2.240
44.3980 2.656
44.4283 2.396
44.4586 2.604
44.4889 2.448
44.5191 1.979
44.5494 2.031
44.5797 2.187
44.6100 2.448
44.6403 2.552
44.6705 2.031
44.7008 1.979
44.7311 3.125
44.7614 2.969
44.7917 2.500
44.8219 2.656
44.8522 1.719
44.8825 2.656
44.9128 2.812
44.9430 2.604
44.9733 2.344
45.0036 2.292
45.0339 2.552
45.0642 2.344
45.0944 2.240
45.1247 2.812
45.1550 2.344
45.1853 1.927
45.2156 2.865
45.2458 2.656
45.2761 1.979
45.3064 2.552
45.3367 2.187
45.3669 2.448
45.3972 2.760
45.4275 2.708
45.4578 2.708
45.4881 2.604
45.5183 2.344
45.5486 2.292
45.5789 1.927
45.6092 3.073
45.6395 2.187
45.6697 2.292
45.7000 2.031
45.7303 3.073
45.7606 2.708
45.7908 2.812
45.8211 2.344
45.8514 2.396
45.8817 2.448
45.9120 2.656
45.9422 2.552
45.9725 2.917
46.0028 2.344
46.0331 2.865
46.0634 2.760
46.0936 3.177
46.1239 2.552
46.1542 3.281
46.1845 2.708
46.2147 2.500
46.2450 2.656
46.2753 2.292
46.3056 2.604
46.3359 3.594
46.3661 3.385
46.3964 2.448
46.4267 3.385
46.4570 3.229
46.4873 3.125
46.5175 3.698
46.5478 3.437
46.5781 2.865
46.6084 3.125
46.6386 3.333
46.6689 3.958
46.6992 3.854
46.7295 4.427
46.7598 4.323
46.7900 4.010
46.8203 4.219
46.8506 3.906
46.8809 4.479
46.9112 4.271
46.9414 5.833
46.9717 5.052
47.0020 5.937
47.0323 7.396
47.0626 8.646
47.0928 8.750
47.1231 8.646
47.1534 8.906
47.1837 10.573
47.2139 11.146
47.2442 12.500
47.2745 13.125
47.3048 13.125
47.3351 14.687
47.3653 16.458
47.3956 17.292
47.4259 16.771
47.4562 15.469
47.4865 15.729
47.5167 16.354
47.5470 15.833
47.5773 13.750
47.6076 13.542
47.6378 11.771
47.6681 11.354
47.6984 10.729
47.7287 8.437
47.7590 8.385
47.7892 7.396
47.8195 7.083
47.8498 5.990
47.8801 5.833
47.9104 5.677
47.9406 5.156
47.9709 5.833
48.0012 5.104
48.0315 4.219
48.0617 3.906
48.0920 3.906
48.1223 3.698
48.1526 3.750
48.1829 3.229
48.2131 3.437
48.2434 3.750
48.2737 2.917
48.3040 2.969
48.3343 3.021
48.3645 3.073
48.3948 3.229
48.4251 2.500
48.4554 2.865
48.4856 3.437
48.5159 2.448
48.5462 3.437
48.5765 2.396
48.6068 2.969
48.6370 3.073
48.6673 2.604
48.6976 2.500
48.7279 2.083
48.7582 2.187
48.7884 3.021
48.8187 2.500
48.8490 2.344
48.8793 2.656
48.9095 2.812
48.9398 2.187
48.9701 1.823
49.0004 2.708
49.0307 1.875
49.0609 2.083
49.0912 2.552
49.1215 2.917
49.1518 2.812
49.1821 2.240
49.2123 2.083
49.2426 2.500
49.2729 2.135
49.3032 2.187
49.3334 2.500
49.3637 1.875
49.3940 2.604
49.4243 1.615
49.4546 2.760
49.4848 2.187
49.5151 1.979
49.5454 2.552
49.5757 1.719
49.6060 2.500
49.6362 3.021
49.6665 2.760
49.6968 2.135
49.7271 2.187
49.7574 1.719
49.7876 2.135
49.8179 2.240
49.8482 2.031
49.8785 2.135
49.9087 1.354
49.9390 1.927
49.9693 2.031
49.9996 2.135
50.0299 1.771
50.0601 2.396
50.0904 2.604
50.1207 1.979
50.1510 1.875
50.1813 1.823
50.2115 2.083
50.2418 2.083
50.2721 1.562
50.3024 1.875
50.3326 1.771
50.3629 2.031
50.3932 2.969
50.4235 2.396
50.4538 2.344
50.4840 1.979
50.5143 1.771
50.5446 2.292
50.5749 2.344
50.6052 2.083
50.6354 2.292
50.6657 2.500
50.6960 1.458
50.7263 2.083
50.7565 1.979
50.7868 2.083
50.8171 1.875
50.8474 1.771
50.8777 2.187
50.9079 1.875
50.9382 2.031
50.9685 1.458
50.9988 2.083
51.0291 2.500
51.0593 2.031
51.0896 2.292
51.1199 2.083
51.1502 2.031
51.1804 1.979
51.2107 2.187
51.2410 2.031
51.2713 1.979
51.3016 1.823
51.3318 1.927
51.3621 1.458
51.3924 2.187
51.4227 1.979
51.4530 2.344
51.4832 2.031
51.5135 1.979
51.5438 2.187
51.5741 2.552
51.6043 1.979
51.6346 2.292
51.6649 1.667
51.6952 2.500
51.7255 1.979
51.7557 2.344
51.7860 2.031
51.8163 2.760
51.8466 1.823
51.8769 2.396
51.9071 2.083
51.9374 1.979
51.9677 2.344
51.9980 1.823
52.0282 1.771
52.0585 1.250
52.0888 1.354
52.1191 2.187
52.1494 2.344
52.1796 2.083
52.2099 1.979
52.2402 3.021
52.2705 2.500
52.3008 1.927
52.3310 2.396
52.3613 1.927
52.3916 2.083
52.4219 2.969
52.4521 2.708
52.4824 1.302
52.5127 2.083
52.5430 1.927
52.5733 1.979
52.6035 2.760
52.6338 2.031
52.6641 2.240
52.6944 1.979
52.7247 1.979
52.7549 2.135
52.7852 2.031
52.8155 2.135
52.8458 1.406
52.8761 2.448
52.9063 1.562
52.9366 2.240
52.9669 2.812
52.9972 1.979
53.0274 2.865
53.0577 1.875
53.0880 2.292
53.1183 1.927
53.1486 2.083
53.1788 2.448
53.2091 2.604
53.2394 1.875
53.2697 2.396
53.3000 2.292
53.3302 1.979
53.3605 2.240
53.3908 2.031
53.4211 2.292
53.4513 2.083
53.4816 2.135
53.5119 2.083
53.5422 1.719
53.5725 2.031
53.6027 2.031
53.6330 2.240
53.6633 1.927
53.6936 2.292
53.7239 2.552
53.7541 2.552
53.7844 2.865
53.8147 2.240
53.8450 2.187
53.8752 2.396
53.9055 2.552
53.9358 2.448
53.9661 1.719
53.9964 2.969
54.0266 2.500
54.0569 1.927
54.0872 2.292
54.1175 2.917
54.1478 1.927
54.1780 3.021
54.2083 2.187
54.2386 2.344
54.2689 2.656
54.2991 2.187
54.3294 2.604
54.3597 2.917
54.3900 2.187
54.4203 1.823
54.4505 2.552
54.4808 2.448
54.5111 3.177
54.5414 2.656
54.5717 2.500
54.6019 1.927
54.6322 2.552
54.6625 2.344
54.6928 2.812
54.7230 2.865
54.7533 3.281
54.7836 2.656
54.8139 2.865
54.8442 2.344
54.8744 3.177
54.9047 2.448
54.9350 2.865
54.9653 2.604
54.9956 2.656
55.0258 2.500
55.0561 2.344
55.0864 2.552
55.1167 2.500
55.1469 2.812
55.1772 2.344
55.2075 3.125
55.2378 3.021
55.2681 3.802
55.2983 2.604
55.3286 3.958
55.3589 3.802
55.3892 2.917
55.4195 3.021
55.4497 2.865
55.4800 3.229
55.5103 2.917
55.5406 4.062
55.5709 3.750
55.6011 3.906
55.6314 4.115
55.6617 4.271
55.6920 4.844
55.7222 4.792
55.7525 4.323
55.7828 5.156
55.8131 4.948
55.8434 4.687
55.8736 5.417
55.9039 5.729
55.9342 5.729
55.9645 6.771
55.9948 5.885
56.0250 6.510
56.0553 7.500
56.0856 8.646
56.1159 7.396
56.1461 10.000
56.1764 10.573
56.2067 11.042
56.2370 13.125
56.2673 13.490
56.2975 15.052
56.3278 15.625
56.3581 15.729
56.3884 19.219
56.4187 21.146
56.4489 20.990
56.4792 20.312
56.5095 22.448
56.5398 18.750
56.5700 18.802
56.6003 19.844
56.6306 18.073
56.6609 16.719
56.6912 16.875
56.7214 15.052
56.7517 12.500
56.7820 12.292
56.8123 10.781
56.8426 10.573
56.8728 9.948
56.9031 9.687
56.9334 7.552
56.9637 8.073
56.9939 7.135
57.0242 6.198
57.0545 6.979
57.0848 6.146
57.1151 5.573
57.1453 5.156
57.1756 5.365
57.2059 4.219
57.2362 4.531
57.2665 3.594
57.2967 4.062
57.3270 4.948
57.3573 4.219
57.3876 3.542
57.4178 3.542
57.4481 3.229
57.4784 2.865
57.5087 3.021
57.5390 3.385
57.5692 3.177
57.5995 3.281
57.6298 3.125
57.6601 3.125
57.6904 2.708
57.7206 3.229
57.7509 3.021
57.7812 2.448
57.8115 2.292
57.8417 2.969
57.8720 3.229
57.9023 2.500
57.9326 2.604
57.9629 2.604
57.9931 2.292
58.0234 2.865
58.0537 2.760
58.0840 3.437
58.1143 2.135
58.1445 2.865
58.1748 2.448
58.2051 2.187
58.2354 2.865
58.2656 2.240
58.2959 2.240
58.3262 2.187
58.3565 1.979
58.3868 3.281
58.4170 3.125
58.4473 3.125
58.4776 2.865
58.5079 2.708
58.5382 2.552
58.5684 2.083
58.5987 2.604
58.6290 2.240
58.6593 2.031
58.6896 2.448
58.7198 2.292
58.7501 3.177
58.7804 2.396
58.8107 2.083
58.8409 3.021
58.8712 2.292
58.9015 2.292
58.9318 2.344
58.9621 2.031
58.9923 2.187
59.0226 2.396
59.0529 2.292
59.0832 2.760
59.1135 2.656
59.1437 2.708
59.1740 2.396
59.2043 2.396
59.2346 2.135
59.2648 2.656
59.2951 2.552
59.3254 2.292
59.3557 2.187
59.3860 2.448
59.4162 1.719
59.4465 2.240
59.4768 2.448
59.5071 1.979
59.5374 2.396
59.5676 2.240
59.5979 2.604
59.6282 2.760
59.6585 2.865
59.6887 2.812
59.7190 1.771
59.7493 2.552
59.7796 2.396
59.8099 2.031
59.8401 2.292
59.8704 1.667
59.9007 2.708
59.9310 2.292
59.9613 2.344
59.9915 2.344
60.0218 1.771
60.0521 2.292
60.0824 2.656
60.1126 2.135
60.1429 2.187
60.1732 1.667
60.2035 2.604
60.2338 2.760
60.2640 2.292
60.2943 2.708
60.3246 2.448
60.3549 2.292
60.3852 2.448
60.4154 2.500
60.4457 2.240
60.4760 2.552
60.5063 2.448
60.5365 2.708
60.5668 2.187
60.5971 2.500
60.6274 2.135
60.6577 1.979
60.6879 2.812
60.7182 2.552
60.7485 2.240
60.7788 2.292
60.8091 2.812
60.8393 2.917
60.8696 1.979
60.8999 2.917
60.9302 2.187
60.9604 2.135
60.9907 2.708
61.0210 3.854
61.0513 3.073
61.0816 2.344
61.1118 2.865
61.1421 2.292
61.1724 2.812
61.2027 2.448
61.2330 2.448
61.2632 2.031
61.2935 2.969
61.3238 2.865
61.3541 2.240
61.3844 2.448
61.4146 3.229
61.4449 3.437
61.4752 3.281
61.5055 3.229
61.5357 2.708
61.5660 3.229
61.5963 3.437
61.6266 3.385
61.6569 2.448
61.6871 3.073
61.7174 3.177
61.7477 3.437
61.7780 3.698
61.8083 3.437
61.8385 3.542
61.8688 2.708
61.8991 4.531
61.9294 4.010
61.9596 3.906
61.9899 4.010
62.0202 4.167
62.0505 3.802
62.0808 4.323
62.1110 4.479
62.1413 5.052
62.1716 5.469
62.2019 4.687
62.2322 5.312
62.2624 5.729
62.2927 6.615
62.3230 6.667
62.3533 7.760
62.3835 8.542
62.4138 8.021
62.4441 9.583
62.4744 10.208
62.5047 9.948
62.5349 13.333
62.5652 12.812
62.5955 13.646
62.6258 15.000
62.6561 15.781
62.6863 17.812
62.7166 16.146
62.7469 17.969
62.7772 17.396
62.8074 19.062
62.8377 18.542
62.8680 16.458
62.8983 15.937
62.9286 15.156
62.9588 14.479
62.9891 14.167
63.0194 11.927
63.0497 9.948
63.0800 10.365
63.1102 9.010
63.1405 7.708
63.1708 7.292
63.2011 6.510
63.2313 7.031
63.2616 5.625
63.2919 4.948
63.3222 6.094
63.3525 5.104
63.3827 4.219
63.4130 4.740
63.4433 3.490
63.4736 4.635
63.5039 4.219
63.5341 4.896
63.5644 3.490
63.5947 3.698
63.6250 3.385
63.6552 3.073
63.6855 3.490
63.7158 2.604
63.7461 3.177
63.7764 3.021
63.8066 3.125
63.8369 3.073
63.8672 3.333
63.8975 3.177
63.9278 3.281
63.9580 2.604
63.9883 3.229
64.0186 2.656
64.0489 2.812
64.0791 2.604
64.1094 2.604
64.1397 2.292
64.1700 2.500
64.2003 2.552
64.2305 2.344
64.2608 2.500
64.2911 2.812
64.3214 3.021
64.3517 2.500
64.3819 3.229
64.4122 3.021
64.4425 2.135
64.4728 3.021
64.5031 2.500
64.5333 2.656
64.5636 2.969
64.5939 2.344
64.6242 2.552
64.6544 2.396
64.6847 2.135
64.7150 1.927
64.7453 1.979
64.7756 2.656
64.8058 2.708
64.8361 3.021
64.8664 2.865
64.8967 2.396
64.9270 2.292
64.9572 2.708
64.9875 3.073
65.0178 2.604
65.0481 2.344
65.0783 2.448
65.1086 2.240
65.1389 1.562
65.1692 2.865
65.1995 2.656
65.2297 3.021
65.2600 2.240
65.2903 3.385
65.3206 3.073
65.3509 2.344
65.3811 2.292
65.4114 1.927
65.4417 2.552
65.4720 2.344
65.5022 2.552
65.5325 2.396
65.5628 2.760
65.5931 3.385
65.6234 3.021
65.6536 3.854
65.6839 3.333
65.7142 3.333
65.7445 3.542
65.7748 3.281
65.8050 3.229
65.8353 3.333
65.8656 3.646
65.8959 2.812
65.9261 4.010
65.9564 3.750
65.9867 3.385
66.0170 4.479
66.0473 4.062
66.0775 4.062
66.1078 4.062
66.1381 5.000
66.1684 4.167
66.1987 4.115
66.2289 4.635
66.2592 5.417
66.2895 5.052
66.3198 4.844
66.3500 4.896
66.3803 4.010
66.4106 5.104
66.4409 4.271
66.4712 4.010
66.5014 4.219
66.5317 4.010
66.5620 4.010
66.5923 3.594
66.6226 4.271
66.6528 3.854
66.6831 4.167
66.7134 3.646
66.7437 3.958
66.7739 4.219
66.8042 3.646
66.8345 4.167
66.8648 3.490
66.8951 3.854
66.9253 3.594
66.9556 3.958
66.9859 3.958
67.0162 4.010
67.0465 4.427
67.0767 4.167
67.1070 3.906
67.1373 4.844
67.1676 4.479
67.1978 4.479
67.2281 6.198
67.2584 4.792
67.2887 5.208
67.3190 5.781
67.3492 4.792
67.3795 6.198
67.4098 6.667
67.4401 6.510
67.4704 6.875
67.5006 7.604
67.5309 8.281
67.5612 9.219
67.5915 7.812
67.6218 8.750
67.6520 11.302
67.6823 10.729
67.7126 10.990
67.7429 12.865
67.7731 12.656
67.8034 14.010
67.8337 13.437
67.8640 13.490
67.8943 13.542
67.9245 12.708
67.9548 12.760
67.9851 11.250
68.0154 12.396
68.0457 11.146
68.0759 10.885
68.1062 10.104
68.1365 8.646
68.1668 8.177
68.1970 8.490
68.2273 9.062
68.2576 7.552
68.2879 8.073
68.3182 6.979
68.3484 6.510
68.3787 6.094
68.4090 5.469
68.4393 6.406
68.4696 4.948
68.4998 6.094
68.5301 6.302
68.5604 5.469
68.5907 5.104
68.6209 6.458
68.6512 6.146
68.6815 7.031
68.7118 5.469
68.7421 6.615
68.7723 7.448
68.8026 6.198
68.8329 6.927
68.8632 7.187
68.8935 6.042
68.9237 7.083
68.9540 6.979
68.9843 6.615
69.0146 7.187
69.0448 6.354
69.0751 7.240
69.1054 6.875
69.1357 7.500
69.1660 6.406
69.1962 6.406
69.2265 6.927
69.2568 5.625
69.2871 5.417
69.3174 5.104
69.3476 4.323
69.3779 3.646
69.4082 5.052
69.4385 4.375
69.4687 3.594
69.4990 3.750
69.5293 3.750
69.5596 3.750
69.5899 4.271
69.6201 3.333
69.6504 3.333
69.6807 2.292
69.7110 2.240
69.7413 2.917
69.7715 3.385
69.8018 2.865
69.8321 2.656
69.8624 1.771
69.8926 2.708
69.9229 2.812
69.9532 1.927
69.9835 1.927
70.0138 2.760
70.0440 2.292
70.0743 2.865
70.1046 2.135
70.1349 1.615
70.1652 2.604
70.1954 1.823
70.2257 2.292
70.2560 2.292
70.2863 1.771
70.3166 2.240
70.3468 1.667
70.3771 2.292
70.4074 2.031
70.4377 2.031
70.4679 1.875
70.4982 1.927
70.5285 2.292
70.5588 2.292
70.5891 2.240
70.6193 2.031
70.6496 2.187
70.6799 1.823
70.7102 2.031
70.7405 1.823
70.7707 2.448
70.8010 1.250
70.8313 2.187
70.8616 1.250
70.8918 1.719
70.9221 1.979
70.9524 1.771
70.9827 1.719
71.0130 2.031
71.0432 2.292
71.0735 1.823
71.1038 1.615
71.1341 2.552
71.1644 1.927
71.1946 2.344
71.2249 1.354
71.2552 1.979
71.2855 2.031
71.3157 2.135
71.3460 1.927
71.3763 1.719
71.4066 1.302
71.4369 1.250
71.4671 2.031
71.4974 1.615
71.5277 1.771
71.5580 1.458
71.5883 1.458
71.6185 1.979
71.6488 1.458
71.6791 1.927
71.7094 1.771
71.7396 1.458
71.7699 1.667
71.8002 1.771
71.8305 2.240
71.8608 1.458
71.8910 2.083
71.9213 2.240
71.9516 1.875
71.9819 1.615
72.0122 1.875
72.0424 2.344
72.0727 1.771
72.1030 2.240
72.1333 2.240
72.1635 1.719
72.1938 1.979
72.2241 2.448
72.2544 2.292
72.2847 2.344
72.3149 2.656
72.3452 2.865
72.3755 2.396
72.4058 2.604
72.4361 2.656
72.4663 3.125
72.4966 2.344
72.5269 1.927
72.5572 2.396
72.5874 1.927
72.6177 2.344
72.6480 2.708
72.6783 2.135
72.7086 2.396
72.7388 2.031
72.7691 1.823
72.7994 2.083
72.8297 2.344
72.8600 1.927
72.8902 1.562
72.9205 1.615
72.9508 2.083
72.9811 2.135
73.0113 1.615
73.0416 1.771
73.0719 1.354
73.1022 1.823
73.1325 1.615
73.1627 1.302
73.1930 1.562
73.2233 1.562
73.2536 1.667
73.2839 1.823
73.3141 1.615
73.3444 1.823
73.3747 1.510
73.4050 1.667
73.4353 2.031
73.4655 1.562
73.4958 1.615
73.5261 1.979
73.5564 1.354
73.5866 1.198
73.6169 1.198
73.6472 1.562
73.6775 1.302
73.7078 1.302
73.7380 1.458
73.7683 1.510
73.7986 1.458
73.8289 1.250
73.8592 1.979
73.8894 1.927
73.9197 0.937
73.9500 1.354
73.9803 2.135
74.0105 1.667
74.0408 1.823
74.0711 1.354
74.1014 1.927
74.1317 1.250
74.1619 1.719
74.1922 1.562
74.2225 1.823
74.2528 1.250
74.2831 1.667
74.3133 1.146
74.3436 1.615
74.3739 1.198
74.4042 1.198
74.4344 1.250
74.4647 1.667
74.4950 1.667
74.5253 1.302
74.5556 1.458
74.5858 1.198
74.6161 1.354
74.6464 1.458
74.6767 1.771
74.7070 1.667
74.7372 1.615
74.7675 1.042
74.7978 1.771
74.8281 1.510
74.8583 1.615
74.8886 1.458
74.9189 1.354
74.9492 1.354
74.9795 1.458
75.0097 1.719
75.0400 1.823
75.0703 1.771
75.1006 1.615
75.1309 2.292
75.1611 1.354
75.1914 1.719
75.2217 1.615
75.2520 1.719
75.2822 1.458
75.3125 1.354
75.3428 2.031
75.3731 1.875
75.4034 1.562
75.4336 1.510
75.4639 1.771
75.4942 1.979
75.5245 1.250
75.5548 1.562
75.5850 1.458
75.6153 1.406
75.6456 1.615
75.6759 1.771
75.7061 1.406
75.7364 1.667
75.7667 1.823
75.7970 2.187
75.8273 0.990
75.8575 1.667
75.8878 1.562
75.9181 1.875
75.9484 1.875
75.9787 1.198
76.0089 1.667
76.0392 1.823
76.0695 1.615
76.0998 2.344
76.1301 2.187
76.1603 1.823
76.1906 1.667
76.2209 2.187
76.2512 1.927
76.2814 1.927
76.3117 1.771
76.3420 2.552
76.3723 2.135
76.4026 2.031
76.4328 2.552
76.4631 1.979
76.4934 2.396
76.5237 2.344
76.5540 2.292
76.5842 2.396
76.6145 2.760
76.6448 2.500
76.6751 3.073
76.7053 2.865
76.7356 2.760
76.7659 2.448
76.7962 2.187
76.8265 2.604
76.8567 2.656
76.8870 2.656
76.9173 3.229
76.9476 2.083
76.9779 3.594
77.0081 2.552
77.0384 2.187
77.0687 2.708
77.0990 3.281
77.1292 1.979
77.1595 2.135
77.1898 2.656
77.2201 1.979
77.2504 2.865
77.2806 2.760
77.3109 1.979
77.3412 1.458
77.3715 1.875
77.4018 1.979
77.4320 1.823
77.4623 1.875
77.4926 1.979
77.5229 2.135
77.5531 1.979
77.5834 1.719
77.6137 1.458
77.6440 1.198
77.6743 1.510
77.7045 1.719
77.7348 1.927
77.7651 1.458
77.7954 1.562
77.8257 1.823
77.8559 1.354
77.8862 1.615
77.9165 1.458
77.9468 1.354
77.9770 1.719
78.0073 1.719
78.0376 1.667
78.0679 1.250
78.0982 1.667
78.1284 1.667
78.1587 1.667
78.1890 0.937
78.2193 1.510
78.2496 1.510
78.2798 1.615
78.3101 1.510
78.3404 1.042
78.3707 1.615
78.4009 1.510
78.4312 1.146
78.4615 1.458
78.4918 1.354
78.5221 1.667
78.5523 1.354
78.5826 1.562
78.6129 1.719
78.6432 1.198
78.6735 1.198
78.7037 1.458
78.7340 1.979
78.7643 1.354
78.7946 1.823
78.8248 1.250
78.8551 1.615
78.8854 1.406
78.9157 1.302
78.9460 1.354
78.9762 1.406
79.0065 1.667
79.0368 1.719
79.0671 1.458
79.0974 1.302
79.1276 1.510
79.1579 1.562
79.1882 1.667
79.2185 1.354
79.2488 1.667
79.2790 1.302
79.3093 1.042
79.3396 1.302
79.3699 1.667
79.4001 1.667
79.4304 1.667
79.4607 1.198
79.4910 1.458
79.5213 1.510
79.5515 1.615
79.5818 1.667
79.6121 1.354
79.6424 1.615
79.6727 1.510
79.7029 1.615
79.7332 1.198
79.7635 1.250
79.7938 1.927
79.8240 1.354
79.8543 1.406
79.8846 1.667
79.9149 1.927
79.9452 1.667
79.9754 1.771
80.0057 1.562
80.0360 1.354
80.0663 1.406
80.0966 1.458
80.1268 1.875
80.1571 1.667
80.1874 1.771
80.2177 1.667
80.2479 1.094
80.2782 1.615
80.3085 1.510
80.3388 1.510
80.3691 1.510
80.3993 1.719
80.4296 1.771
80.4599 1.615
80.4902 1.406
80.5205 1.719
80.5507 1.667
80.5810 1.406
80.6113 1.719
80.6416 1.302
80.6718 1.667
80.7021 1.823
80.7324 1.354
80.7627 1.823
80.7930 1.823
80.8232 1.667
80.8535 1.979
80.8838 1.615
80.9141 1.667
80.9444 1.615
80.9746 1.198
81.0049 1.562
81.0352 1.667
81.0655 1.667
81.0957 1.510
81.1260 1.719
81.1563 2.135
81.1866 1.615
81.2169 2.187
81.2471 2.396
81.2774 2.135
81.3077 1.771
81.3380 2.292
81.3683 1.667
81.3985 2.292
81.4288 2.135
81.4591 2.135
81.4894 1.615
81.5196 2.031
81.5499 1.771
81.5802 1.771
81.6105 1.719
81.6408 1.875
81.6710 1.667
81.7013 2.135
81.7316 2.031
81.7619 1.562
81.7922 1.510
81.8224 2.292
81.8527 0.937
81.8830 1.458
81.9133 1.771
81.9436 1.667
81.9738 1.458
82.0041 1.458
82.0344 1.719
82.0647 1.562
82.0949 1.354
82.1252 2.031
82.1555 1.406
82.1858 1.667
82.2161 1.667
82.2463 1.823
82.2766 1.198
82.3069 1.510
82.3372 1.198
82.3675 2.135
82.3977 1.302
82.4280 1.719
82.4583 1.979
82.4886 1.771
82.5188 1.354
82.5491 1.823
82.5794 1.875
82.6097 0.781
82.6400 1.510
82.6702 1.823
82.7005 0.990
82.7308 1.406
82.7611 1.146
82.7914 0.885
82.8216 1.354
82.8519 1.198
82.8822 1.250
82.9125 1.615
82.9427 1.406
82.9730 1.667
83.0033 1.667
83.0336 0.885
83.0639 1.094
83.0941 1.615
83.1244 1.458
83.1547 1.302
83.1850 1.667
83.2153 1.198
83.2455 1.198
83.2758 2.031
83.3061 1.823
83.3364 1.042
83.3666 1.979
83.3969 1.667
83.4272 1.302
83.4575 1.302
83.4878 1.094
83.5180 0.729
83.5483 0.885
83.5786 1.094
83.6089 1.562
83.6392 1.667
83.6694 0.885
83.6997 1.562
83.7300 1.406
83.7603 1.042
83.7905 1.667
83.8208 1.719
83.8511 1.354
83.8814 1.562
83.9117 1.042
83.9419 1.667
83.9722 1.667
84.0025 1.302
84.0328 1.615
84.0631 1.562
84.0933 1.302
84.1236 1.458
84.1539 1.979
84.1842 1.771
84.2144 1.615
84.2447 1.198
84.2750 1.250
84.3053 1.667
84.3356 1.823
84.3658 1.562
84.3961 1.823
84.4264 1.250
84.4567 1.615
84.4870 1.667
84.5172 1.562
84.5475 1.250
84.5778 1.042
84.6081 1.250
84.6383 1.250
84.6686 1.094
84.6989 1.198
84.7292 1.094
84.7595 1.198
84.7897 1.094
84.8200 1.927
84.8503 1.146
84.8806 1.094
84.9109 1.250
84.9411 1.458
84.9714 1.354
85.0017 1.198
85.0320 1.406
85.0623 1.510
85.0925 1.250
85.1228 1.771
85.1531 1.250
85.1834 1.198
85.2136 1.562
85.2439 1.198
85.2742 0.937
85.3045 1.042
85.3348 1.354
85.3650 2.031
85.3953 1.250
85.4256 1.510
85.4559 1.615
85.4862 0.990
85.5164 1.458
85.5467 1.250
85.5770 1.302
85.6073 1.198
85.6375 1.771
85.6678 1.198
85.6981 1.823
85.7284 1.510
85.7587 1.094
85.7889 1.250
85.8192 1.667
85.8495 1.354
85.8798 1.198
85.9101 1.302
85.9403 1.458
85.9706 1.510
86.0009 0.885
86.0312 1.667
86.0614 1.458
86.0917 1.562
86.1220 1.146
86.1523 1.406
86.1826 1.667
86.2128 1.667
86.2431 0.990
86.2734 1.302
86.3037 1.302
86.3340 1.615
86.3642 2.187
86.3945 1.354
86.4248 1.146
86.4551 1.250
86.4853 1.354
86.5156 1.198
86.5459 1.562
86.5762 1.510
86.6065 1.198
86.6367 1.562
86.6670 1.615
86.6973 1.042
86.7276 1.302
86.7579 1.250
86.7881 1.198
86.8184 1.667
86.8487 1.615
86.8790 1.406
86.9092 1.667
86.9395 1.146
86.9698 0.937
87.0001 1.667
87.0304 1.615
87.0606 1.667
87.0909 1.667
87.1212 1.771
87.1515 1.354
87.1818 1.198
87.2120 1.823
87.2423 1.510
87.2726 1.198
87.3029 1.719
87.3331 1.771
87.3634 2.135
87.3937 1.406
87.4240 2.135
87.4543 0.990
87.4845 1.302
87.5148 1.198
87.5451 1.771
87.5754 1.823
87.6057 1.719
87.6359 1.406
87.6662 1.667
87.6965 1.250
87.7268 1.562
87.7571 1.198
87.7873 1.354
87.8176 1.198
87.8479 1.875
87.8782 1.875
87.9084 2.240
87.9387 1.615
87.9690 1.510
87.9993 2.031
88.0296 1.927
88.0598 1.406
88.0901 1.875
88.1204 1.615
88.1507 1.667
88.1810 2.240
88.2112 1.927
88.2415 1.406
88.2718 2.187
88.3021 1.771
88.3323 1.302
88.3626 1.250
88.3929 1.979
88.4232 1.562
88.4535 1.615
88.4837 1.719
88.5140 1.719
88.5443 1.510
88.5746 1.771
88.6049 1.823
88.6351 1.615
88.6654 1.562
88.6957 1.823
88.7260 2.344
88.7562 1.927
88.7865 1.562
88.8168 1.979
88.8471 2.552
88.8774 2.135
88.9076 2.292
88.9379 2.187
88.9682 1.979
88.9985 2.500
89.0288 2.187
89.0590 2.604
89.0893 2.708
89.1196 2.917
89.1499 2.656
89.1801 2.865
89.2104 3.333
89.2407 2.656
89.2710 3.542
89.3013 3.021
89.3315 3.177
89.3618 3.542
89.3921 4.323
89.4224 4.375
89.4527 3.281
89.4829 3.802
89.5132 4.583
89.5435 4.687
89.5738 4.115
89.6040 3.542
89.6343 4.010
89.6646 3.802
89.6949 3.698
89.7252 3.021
89.7554 3.333
89.7857 3.646
89.8160 3.750
89.8463 4.062
89.8766 3.125
89.9068 2.656
89.9371 2.760
89.9674 3.281
89.9977 3.177
90.0279 3.333
90.0582 2.240
90.0885 2.396
90.1188 1.875
90.1491 2.135
90.1793 2.083
90.2096 2.031
90.2399 2.240
90.2702 2.135
90.3005 2.500
90.3307 1.979
90.3610 2.448
90.3913 1.823
90.4216 1.979
90.4518 2.135
90.4821 1.823
90.5124 2.240
90.5427 1.875
90.5730 1.615
90.6032 1.719
90.6335 1.458
90.6638 2.500
90.6941 1.771
90.7244 2.031
90.7546 1.354
90.7849 2.083
90.8152 1.771
90.8455 1.979
90.8758 1.771
90.9060 1.719
90.9363 1.823
90.9666 1.458
90.9969 1.562
91.0271 1.198
91.0574 1.771
91.0877 1.510
91.1180 1.719
91.1483 1.667
91.1785 1.667
91.2088 1.823
91.2391 1.406
91.2694 2.240
91.2997 1.667
91.3299 1.875
91.3602 1.406
91.3905 1.302
91.4208 1.875
91.4510 1.875
91.4813 1.823
91.5116 1.562
91.5419 1.667
91.5722 2.031
91.6024 1.719
91.6327 1.510
91.6630 2.031
91.6933 1.771
91.7236 2.083
91.7538 2.083
91.7841 1.250
91.8144 1.979
91.8447 1.615
91.8749 1.667
91.9052 1.927
91.9355 2.187
91.9658 1.719
91.9961 1.198
92.0263 1.979
92.0566 1.667
92.0869 1.667
92.1172 2.031
92.1475 1.927
92.1777 2.604
92.2080 1.979
92.2383 2.135
92.2686 1.198
92.2988 2.396
92.3291 2.187
92.3594 1.979
92.3897 1.927
92.4200 2.396
92.4502 2.031
92.4805 1.667
92.5108 2.344
92.5411 1.823
92.5714 2.552
92.6016 2.187
92.6319 2.812
92.6622 2.604
92.6925 2.552
92.7227 2.187
92.7530 2.344
92.7833 2.187
92.8136 2.396
92.8439 2.656
92.8741 2.656
92.9044 2.135
92.9347 2.812
92.9650 1.719
92.9953 2.448
93.0255 2.604
93.0558 2.865
93.0861 2.187
93.1164 2.552
93.1466 2.396
93.1769 1.927
93.2072 2.083
93.2375 2.083
93.2678 2.083
93.2980 1.823
93.3283 2.187
93.3586 2.187
93.3889 1.667
93.4192 1.615
93.4494 1.979
93.4797 1.771
93.5100 1.458
93.5403 1.979
93.5706 1.198
93.6008 1.823
93.6311 2.187
93.6614 1.979
93.6917 1.771
93.7219 1.771
93.7522 1.562
93.7825 1.250
93.8128 1.510
93.8431 1.719
93.8733 1.510
93.9036 1.823
93.9339 1.719
93.9642 1.719
93.9945 1.406
94.0247 1.875
94.0550 1.823
94.0853 1.719
94.1156 1.875
94.1458 2.187
94.1761 1.771
94.2064 2.187
94.2367 1.667
94.2670 2.344
94.2972 1.615
94.3275 1.354
94.3578 2.135
94.3881 2.031
94.4184 2.240
94.4486 2.187
94.4789 2.292
94.5092 2.344
94.5395 2.396
94.5697 2.865
94.6000 3.021
94.6303 2.448
94.6606 2.187
94.6909 2.604
94.7211 2.240
94.7514 3.073
94.7817 2.760
94.8120 2.240
94.8423 3.177
94.8725 3.021
94.9028 3.125
94.9331 3.021
94.9634 3.333
94.9936 3.594
95.0239 3.385
95.0542 3.906
95.0845 3.802
95.1148 3.958
95.1450 3.437
95.1753 3.490
95.2056 3.698
95.2359 3.750
95.2662 4.271
95.2964 3.698
95.3267 4.635
95.3570 3.542
95.3873 3.854
95.4175 4.375
95.4478 2.865
95.4781 3.490
95.5084 3.698
95.5387 3.802
95.5689 2.917
95.5992 3.281
95.6295 2.292
95.6598 2.656
95.6901 3.229
95.7203 3.073
95.7506 2.708
95.7809 3.333
95.8112 2.396
95.8414 1.771
95.8717 2.448
95.9020 2.396
95.9323 2.396
95.9626 2.240
95.9928 2.656
96.0231 2.031
96.0534 1.719
96.0837 1.979
96.1140 1.719
96.1442 1.875
96.1745 2.292
96.2048 2.240
96.2351 1.927
96.2653 2.031
96.2956 1.771
96.3259 2.448
96.3562 1.927
96.3865 3.073
96.4167 1.823
96.4470 1.719
96.4773 2.031
96.5076 1.667
96.5379 1.771
96.5681 1.615
96.5984 1.146
96.6287 1.927
96.6590 1.406
96.6893 1.458
96.7195 1.406
96.7498 2.448
96.7801 1.823
96.8104 1.719
96.8406 1.979
96.8709 2.083
96.9012 1.823
96.9315 1.302
96.9618 1.510
96.9920 1.406
97.0223 1.198
97.0526 1.615
97.0829 1.719
97.1132 1.562
97.1434 1.979
97.1737 1.302
97.2040 1.354
97.2343 1.875
97.2645 1.771
97.2948 1.510
97.3251 2.083
97.3554 1.510
97.3857 1.615
97.4159 2.083
97.4462 1.458
97.4765 1.667
97.5068 2.083
97.5371 1.927
97.5673 1.719
97.5976 1.354
97.6279 1.615
97.6582 2.292
97.6884 1.823
97.7187 2.135
97.7490 1.771
97.7793 2.760
97.8096 1.719
97.8398 1.615
97.8701 2.396
97.9004 1.823
97.9307 2.240
97.9610 2.396
97.9912 1.771
98.0215 1.823
98.0518 2.292
98.0821 2.292
98.1123 2.240
98.1426 2.500
98.1729 2.031
98.2032 2.031
98.2335 2.187
98.2637 2.760
98.2940 2.396
98.3243 2.812
98.3546 2.865
98.3849 2.812
98.4151 3.646
98.4454 2.604
98.4757 3.021
98.5060 3.542
98.5362 3.229
98.5665 2.917
98.5968 2.500
98.6271 2.344
98.6574 2.604
98.6876 2.292
98.7179 2.552
98.7482 2.917
98.7785 2.812
98.8088 2.135
98.8390 2.240
98.8693 2.240
98.8996 1.979
98.9299 2.500
98.9601 2.500
98.9904 2.396
99.0207 2.500
99.0510 2.031
99.0813 2.187
99.1115 1.875
99.1418 2.604
99.1721 1.875
99.2024 2.135
99.2327 1.823
99.2629 1.667
99.2932 1.823
99.3235 1.615
99.3538 1.667
99.3841 1.979
99.4143 1.823
99.4446 2.031
99.4749 1.458
99.5052 2.396
99.5354 1.823
99.5657 1.198
99.5960 1.302
99.6263 1.979
99.6566 1.719
99.6868 1.562
99.7171 1.979
99.7474 1.823
99.7777 1.198
99.8080 1.615
99.8382 1.823
99.8685 1.510
99.8988 1.823
99.9291 1.823
99.9593 1.510
99.9896 1.771
100.0199 1.406
100.0502 1.406
100.0805 1.667
100.1107 1.719
100.1410 1.771
100.1713 1.302
100.2016 1.562
100.2319 1.562
100.2621 1.354
100.2924 1.406
100.3227 1.094
100.3530 1.615
100.3832 1.510
100.4135 1.823
100.4438 1.927
100.4741 1.406
100.5044 1.510
100.5346 1.406
100.5649 1.771
100.5952 1.406
100.6255 1.510
100.6558 1.458
100.6860 1.562
100.7163 1.094
100.7466 1.615
100.7769 1.302
100.8071 1.615
100.8374 1.510
100.8677 1.250
100.8980 1.354
100.9283 1.302
100.9585 1.771
100.9888 1.406
101.0191 1.354
101.0494 1.667
101.0797 1.667
101.1099 1.615
101.1402 1.719
101.1705 1.510
101.2008 1.771
101.2310 1.771
101.2613 1.458
101.2916 2.448
101.3219 1.458
101.3522 1.771
101.3824 1.771
101.4127 1.927
101.4430 1.979
101.4733 1.510
101.5036 1.771
101.5338 1.458
101.5641 1.719
101.5944 1.615
101.6247 1.927
101.6549 1.823
101.6852 1.354
101.7155 1.198
101.7458 1.823
101.7761 1.250
101.8063 1.875
101.8366 1.979
101.8669 1.979
101.8972 1.719
101.9275 1.354
101.9577 1.875
101.9880 1.562
102.0183 1.510
102.0486 1.302
102.0788 1.875
102.1091 2.292
102.1394 1.562
102.1697 1.562
102.2000 2.500
102.2302 1.354
102.2605 1.823
102.2908 1.406
102.3211 1.771
102.3514 2.396
102.3816 1.979
102.4119 2.448
102.4422 1.510
102.4725 1.146
102.5028 1.875
102.5330 1.771
102.5633 1.615
102.5936 2.031
102.6239 2.292
102.6541 2.969
102.6844 2.187
102.7147 2.031
102.7450 2.708
102.7753 2.448
102.8055 2.135
102.8358 2.448
102.8661 2.760
102.8964 2.604
102.9267 2.865
102.9569 2.917
102.9872 2.604
103.0175 2.500
103.0478 2.292
103.0780 2.083
103.1083 3.021
103.1386 2.969
103.1689 2.240
103.1992 2.500
103.2294 2.187
103.2597 1.979
103.2900 2.448
103.3203 2.604
103.3506 2.500
103.3808 2.135
103.4111 2.031
103.4414 2.083
103.4717 2.552
103.5019 2.187
103.5322 2.396
103.5625 2.760
103.5928 2.031
103.6231 2.552
103.6533 2.656
103.6836 3.177
103.7139 2.656
103.7442 2.031
103.7745 2.240
103.8047 2.500
103.8350 2.760
103.8653 3.125
103.8956 3.021
103.9258 3.542
103.9561 3.021
103.9864 3.125
104.0167 2.969
104.0470 3.542
104.0772 3.073
104.1075 3.437
104.1378 3.073
104.1681 3.854
104.1984 3.646
104.2286 3.177
104.2589 3.594
104.2892 2.604
104.3195 3.021
104.3497 3.437
104.3800 2.344
104.4103 2.708
104.4406 2.240
104.4709 3.125
104.5011 2.500
104.5314 2.448
104.5617 2.708
104.5920 2.760
104.6223 2.812
104.6525 2.240
104.6828 2.969
104.7131 2.240
104.7434 2.292
104.7736 2.500
104.8039 1.510
104.8342 1.562
104.8645 2.656
104.8948 1.719
104.9250 1.667
104.9553 1.719
104.9856 2.552
105.0159 1.979
105.0462 2.187
105.0764 1.875
105.1067 1.667
105.1370 1.615
105.1673 1.458
105.1975 2.708
105.2278 1.615
105.2581 2.083
105.2884 1.667
105.3187 1.510
105.3489 1.198
105.3792 1.562
105.4095 1.771
105.4398 1.615
105.4701 1.875
105.5003 1.771
105.5306 1.615
105.5609 2.135
105.5912 1.354
105.6215 1.562
105.6517 1.406
105.6820 1.458
105.7123 1.406
105.7426 2.083
105.7728 1.667
105.8031 1.302
105.8334 1.094
105.8637 1.458
105.8940 1.927
105.9242 1.250
105.9545 0.990
105.9848 1.302
106.0151 2.031
106.0454 2.812
106.0756 1.354
106.1059 1.615
106.1362 1.667
106.1665 1.562
106.1967 1.302
106.2270 1.875
106.2573 1.719
106.2876 1.354
106.3179 1.875
106.3481 1.458
106.3784 1.719
106.4087 1.823
106.4390 1.719
106.4693 1.667
106.4995 1.042
106.5298 1.354
106.5601 2.031
106.5904 1.458
106.6206 1.667
106.6509 1.719
106.6812 2.083
106.7115 1.510
106.7418 1.406
106.7720 2.031
106.8023 1.302
106.8326 1.458
106.8629 1.250
106.8932 1.354
106.9234 1.771
106.9537 1.510
106.9840 1.562
107.0143 1.562
107.0445 1.719
107.0748 1.771
107.1051 1.354
107.1354 1.771
107.1657 1.875
107.1959 2.240
107.2262 2.031
107.2565 1.979
107.2868 1.875
107.3171 1.406
107.3473 1.771
107.3776 1.562
107.4079 1.927
107.4382 1.771
107.4684 1.667
107.4987 1.719
107.5290 1.458
107.5593 1.823
107.5896 1.562
107.6198 1.823
107.6501 1.510
107.6804 2.083
107.7107 1.406
107.7410 1.302
107.7712 1.615
107.8015 1.771
107.8318 1.615
107.8621 2.083
107.8923 1.667
107.9226 1.302
107.9529 1.771
107.9832 1.510
108.0135 1.406
108.0437 1.354
108.0740 1.823
108.1043 1.302
108.1346 2.031
108.1649 1.510
108.1951 1.302
108.2254 1.823
108.2557 1.667
108.2860 1.406
108.3163 1.823
108.3465 1.406
108.3768 2.135
108.4071 1.562
108.4374 1.979
108.4676 1.667
108.4979 1.667
108.5282 1.458
108.5585 1.615
108.5888 1.146
108.6190 1.250
108.6493 1.510
108.6796 1.510
108.7099 1.302
108.7402 1.094
108.7704 1.302
108.8007 1.979
108.8310 1.719
108.8613 1.042
108.8915 1.562
108.9218 1.198
108.9521 1.250
108.9824 1.510
109.0127 1.562
109.0429 1.354
109.0732 1.771
109.1035 1.771
109.1338 1.875
109.1641 1.510
109.1943 1.354
109.2246 1.510
109.2549 1.823
109.2852 1.562
109.3154 1.562
109.3457 1.562
109.3760 1.719
109.4063 1.927
109.4366 1.771
109.4668 1.979
109.4971 1.510
109.5274 1.823
109.5577 2.135
109.5880 1.562
109.6182 1.927
109.6485 1.667
109.6788 1.667
109.7091 2.240
109.7393 1.615
109.7696 1.927
109.7999 1.979
109.8302 2.292
109.8605 2.292
109.8907 1.719
109.9210 1.927
109.9513 2.083
109.9816 2.240
110.0119 2.344
110.0421 2.240
110.0724 1.667
110.1027 1.771
110.1330 2.708
110.1632 2.396
110.1935 2.031
110.2238 2.604
110.2541 2.448
110.2844 2.187
110.3146 2.500
110.3449 3.229
110.3752 1.979
110.4055 2.292
110.4358 2.031
110.4660 2.344
110.4963 2.187
110.5266 2.865
110.5569 3.125
110.5871 2.187
110.6174 2.448
110.6477 1.927
110.6780 2.135
110.7083 2.240
110.7385 2.031
110.7688 2.604
110.7991 1.979
110.8294 1.406
110.8597 2.187
110.8899 1.875
110.9202 2.292
110.9505 1.615
110.9808 1.979
111.0110 2.500
111.0413 2.031
111.0716 1.823
111.1019 2.552
111.1322 1.927
111.1624 1.875
111.1927 1.927
111.2230 1.771
111.2533 1.823
111.2836 2.187
111.3138 1.406
111.3441 1.510
111.3744 1.562
111.4047 1.354
111.4350 1.667
111.4652 1.719
111.4955 2.240
111.5258 1.510
111.5561 1.875
111.5863 1.719
111.6166 1.510
111.6469 1.458
111.6772 1.562
111.7075 1.250
111.7377 1.667
111.7680 1.562
111.7983 1.771
111.8286 1.667
111.8589 1.458
111.8891 1.615
111.9194 1.302
111.9497 1.667
111.9800 1.198
112.0102 1.562
112.0405 1.510
112.0708 1.667
112.1011 1.927
112.1314 1.667
112.1616 1.719
112.1919 2.083
112.2222 1.562
112.2525 1.615
112.2828 2.031
112.3130 1.510
112.3433 1.823
112.3736 1.458
112.4039 1.927
112.4341 2.240
112.4644 1.510
112.4947 1.771
112.5250 2.135
112.5553 1.562
112.5855 1.615
112.6158 1.354
112.6461 1.146
112.6764 1.354
112.7067 1.042
112.7369 0.990
112.7672 1.771
112.7975 1.354
112.8278 1.615
112.8580 1.615
112.8883 1.250
112.9186 1.823
112.9489 1.771
112.9792 1.406
113.0094 1.719
113.0397 1.719
113.0700 1.719
113.1003 1.302
113.1306 1.615
113.1608 1.406
113.1911 1.719
113.2214 2.135
113.2517 1.302
113.2819 1.562
113.3122 2.240
113.3425 1.198
113.3728 2.187
113.4031 1.354
113.4333 1.562
113.4636 1.562
113.4939 1.562
113.5242 1.042
113.5545 1.302
113.5847 1.615
113.6150 1.354
113.6453 1.146
113.6756 1.302
113.7058 1.667
113.7361 1.042
113.7664 1.458
113.7967 1.406
113.8270 1.094
113.8572 1.406
113.8875 1.823
113.9178 1.510
113.9481 1.562
113.9784 1.667
114.0086 1.667
114.0389 1.198
114.0692 1.719
114.0995 1.615
114.1298 1.406
114.1600 1.771
114.1903 0.990
114.2206 1.562
114.2509 1.354
114.2811 2.083
114.3114 1.458
114.3417 1.354
114.3720 1.094
114.4023 1.875
114.4325 1.875
114.4628 1.406
114.4931 1.510
114.5234 1.823
114.5537 1.510
114.5839 1.406
114.6142 1.771
114.6445 2.135
114.6748 1.562
114.7050 1.562
114.7353 1.354
114.7656 1.927
114.7959 1.927
114.8262 1.875
114.8564 2.240
114.8867 1.667
114.9170 1.823
114.9473 1.406
114.9776 1.562
115.0078 1.406
115.0381 2.396
115.0684 1.667
115.0987 2.135
115.1289 2.292
115.1592 2.187
115.1895 1.875
115.2198 2.448
115.2501 1.354
115.2803 1.510
115.3106 2.240
115.3409 2.083
115.3712 1.719
115.4015 2.552
115.4317 2.500
115.4620 2.344
115.4923 2.344
115.5226 2.344
115.5528 1.406
115.5831 2.656
115.6134 2.656
115.6437 3.073
115.6740 2.031
115.7042 2.656
115.7345 2.656
115.7648 2.604
115.7951 3.646
115.8254 2.760
115.8556 2.656
115.8859 3.229
115.9162 2.708
115.9465 2.969
115.9767 3.021
116.0070 2.865
116.0373 3.437
116.0676 3.698
116.0979 3.021
116.1281 3.021
116.1584 3.229
116.1887 3.073
116.2190 3.906
116.2493 2.969
116.2795 3.333
116.3098 2.917
116.3401 3.281
116.3704 3.542
116.4006 3.385
116.4309 3.177
116.4612 3.542
116.4915 3.281
116.5218 3.594
116.5520 3.125
116.5823 3.854
116.6126 3.385
116.6429 3.073
116.6732 3.281
116.7034 2.969
116.7337 2.448
116.7640 2.812
116.7943 2.812
116.8245 2.969
116.8548 3.177
116.8851 2.708
116.9154 2.812
116.9457 2.031
116.9759 2.448
117.0062 2.135
117.0365 2.865
117.0668 1.979
117.0971 2.708
117.1273 2.552
117.1576 2.969
117.1879 1.510
117.2182 2.083
117.2485 2.031
117.2787 2.500
117.3090 1.510
117.3393 2.760
117.3696 2.240
117.3998 2.031
117.4301 2.083
117.4604 1.875
117.4907 2.187
117.5210 1.719
117.5512 1.875
117.5815 1.250
117.6118 1.719
117.6421 1.562
117.6724 1.771
117.7026 2.031
117.7329 2.604
117.7632 1.250
117.7935 2.865
117.8237 2.031
117.8540 2.031
117.8843 1.823
117.9146 1.615
117.9449 1.406
117.9751 2.187
118.0054 2.240
118.0357 1.615
118.0660 1.823
118.0963 1.875
118.1265 1.615
118.1568 1.406
118.1871 1.823
118.2174 1.667
118.2476 1.250
118.2779 1.146
118.3082 1.979
118.3385 1.510
118.3688 2.031
118.3990 1.823
118.4293 1.250
118.4596 1.823
118.4899 1.458
118.5202 1.354
118.5504 1.562
118.5807 1.667
118.6110 1.510
118.6413 1.562
118.6715 1.823
118.7018 2.135
118.7321 1.406
118.7624 1.823
118.7927 1.406
118.8229 1.823
118.8532 1.146
118.8835 1.719
118.9138 1.354
118.9441 1.615
118.9743 1.302
119.0046 1.927
119.0349 1.719
119.0652 1.354
119.0954 1.562
119.1257 1.510
119.1560 1.719
119.1863 1.302
119.2166 1.562
119.2468 1.250
119.2771 1.927
119.3074 1.562
119.3377 1.510
119.3680 1.250
119.3982 1.927
119.4285 1.510
119.4588 1.042
119.4891 1.510
119.5193 1.354
119.5496 1.094
119.5799 1.823
119.6102 1.510
119.6405 1.146
119.6707 1.562
119.7010 1.354
119.7313 1.198
119.7616 1.094
119.7919 1.771
119.8221 1.302
119.8524 1.771
119.8827 1.927
119.9130 1.615
119.9433 1.927
119.9735 1.458
120.0038 2.083
