'Id: "" Comment: "" Operator: "Lab Manager" Anode: "Cu" Scantype: "Locked Coupled" TimePerStep: "19.2" X: "9999" Y: "9999" Z: "9999" 
10.0015 7.604
10.0318 7.344
10.0620 8.073
10.0923 8.594
10.1226 7.396
10.1529 6.042
10.1832 7.344
10.2134 7.031
10.2437 8.333
10.2740 6.979
10.3043 7.240
10.3346 6.094
10.3648 5.729
10.3951 7.031
10.4254 7.083
10.4557 5.156
10.4859 6.823
10.5162 6.927
10.5465 7.604
10.5768 6.302
10.6071 7.708
10.6373 6.979
10.6676 6.458
10.6979 7.500
10.7282 7.865
10.7585 7.135
10.7887 6.354
10.8190 7.083
10.8493 5.833
10.8796 5.885
10.9098 6.667
10.9401 5.781
10.9704 6.146
11.0007 7.135
11.0310 6.615
11.0612 6.875
11.0915 6.458
11.1218 8.125
11.1521 6.615
11.1824 8.073
11.2126 7.760
11.2429 7.240
11.2732 7.865
11.3035 9.323
11.3337 8.385
11.3640 10.208
11.3943 11.719
11.4246 12.656
11.4549 11.354
11.4851 14.635
11.5154 20.052
11.5457 18.542
11.5760 20.937
11.6063 25.260
11.6365 24.948
11.6668 29.896
11.6971 36.510
11.7274 44.792
11.7577 50.521
11.7879 54.479
11.8182 56.146
11.8485 56.510
11.8788 53.437
11.9090 40.573
11.9393 30.990
11.9696 24.792
11.9999 19.427
12.0302 15.937
12.0604 15.000
12.0907 13.854
12.1210 12.708
12.1513 14.115
12.1816 12.865
12.2118 14.479
12.2421 11.875
12.2724 8.646
12.3027 7.865
12.3329 7.187
12.3632 7.396
12.3935 6.302
12.4238 6.771
12.4541 5.365
12.4843 5.104
12.5146 5.052
12.5449 4.479
12.5752 4.740
12.6055 4.948
12.6357 5.260
12.6660 4.740
12.6963 5.781
12.7266 5.625
12.7568 5.156
12.7871 5.104
12.8174 5.521
12.8477 4.583
12.8780 3.385
12.9082 4.479
12.9385 3.542
12.9688 4.167
12.9991 4.375
13.0294 3.385
13.0596 3.281
13.0899 4.479
13.1202 3.958
13.1505 3.906
13.1807 3.698
13.2110 4.531
13.2413 4.740
13.2716 3.646
13.3019 3.854
13.3321 3.437
13.3624 3.802
13.3927 3.750
13.4230 4.635
13.4533 4.479
13.4835 4.010
13.5138 3.698
13.5441 4.062
13.5744 4.115
13.6046 3.750
13.6349 3.437
13.6652 3.594
13.6955 3.333
13.7258 3.802
13.7560 3.802
13.7863 4.323
13.8166 3.594
13.8469 3.802
13.8772 4.219
13.9074 3.542
13.9377 4.115
13.9680 3.490
13.9983 3.437
14.0285 3.906
14.0588 4.687
14.0891 2.760
14.1194 3.281
14.1497 4.427
14.1799 3.542
14.2102 4.219
14.2405 4.062
14.2708 3.802
14.3011 3.229
14.3313 3.281
14.3616 3.385
14.3919 3.333
14.4222 3.906
14.4524 3.490
14.4827 3.177
14.5130 3.490
14.5433 3.490
14.5736 4.115
14.6038 2.552
14.6341 3.125
14.6644 3.802
14.6947 3.750
14.7250 3.750
14.7552 3.125
14.7855 3.125
14.8158 2.812
14.8461 3.437
14.8764 4.323
14.9066 3.490
14.9369 3.177
14.9672 3.854
14.9975 3.750
15.0277 3.125
15.0580 3.594
15.0883 3.698
15.1186 3.333
15.1489 3.333
15.1791 3.594
15.2094 2.552
15.2397 3.646
15.2700 3.177
15.3003 3.490
15.3305 2.083
15.3608 2.917
15.3911 3.333
15.4214 3.229
15.4516 3.073
15.4819 3.490
15.5122 3.333
15.5425 4.167
15.5728 3.385
15.6030 3.333
15.6333 3.958
15.6636 4.010
15.6939 3.073
15.7242 4.167
15.7544 4.531
15.7847 3.177
15.8150 3.854
15.8453 3.229
15.8755 3.333
15.9058 4.115
15.9361 3.594
15.9664 3.750
15.9967 3.490
16.0269 4.740
16.0572 3.854
16.0875 2.656
16.1178 3.646
16.1481 3.698
16.1783 3.698
16.2086 3.385
16.2389 3.802
16.2692 4.323
16.2994 4.687
16.3297 3.490
16.3600 3.750
16.3903 3.594
16.4206 3.281
16.4508 3.229
16.4811 4.010
16.5114 3.490
16.5417 3.177
16.5720 4.219
16.6022 3.594
16.6325 3.125
16.6628 3.646
16.6931 2.865
16.7233 4.375
16.7536 3.854
16.7839 2.917
16.8142 3.958
16.8445 3.542
16.8747 4.271
16.9050 4.948
16.9353 6.354
16.9656 5.937
16.9959 6.667
17.0261 7.031
17.0564 6.979
17.0867 7.292
17.1170 6.771
17.1472 5.833
17.1775 6.198
17.2078 5.052
17.2381 4.427
17.2684 4.115
17.2986 3.437
17.3289 3.646
17.3592 3.854
17.3895 3.490
17.4198 3.073
17.4500 3.385
17.4803 3.594
17.5106 3.490
17.5409 4.010
17.5712 3.594
17.6014 3.542
17.6317 4.375
17.6620 4.271
17.6923 3.594
17.7225 3.698
17.7528 3.854
17.7831 3.594
17.8134 3.802
17.8437 5.052
17.8739 3.906
17.9042 3.906
17.9345 4.167
17.9648 3.437
17.9951 4.167
18.0253 3.542
18.0556 3.698
18.0859 3.802
18.1162 4.219
18.1464 2.917
18.1767 3.698
18.2070 3.073
18.2373 3.906
18.2676 3.229
18.2978 4.115
18.3281 4.062
18.3584 3.594
18.3887 3.542
18.4190 3.385
18.4492 3.177
18.4795 2.917
18.5098 4.219
18.5401 3.385
18.5703 3.646
18.6006 3.437
18.6309 3.333
18.6612 3.906
18.6915 4.687
18.7217 4.219
18.7520 3.802
18.7823 4.583
18.8126 4.531
18.8429 3.958
18.8731 3.854
18.9034 3.542
18.9337 4.219
18.9640 3.594
18.9942 3.281
19.0245 2.969
19.0548 2.500
19.0851 3.750
19.1154 3.021
19.1456 3.281
19.1759 3.490
19.2062 3.021
19.2365 3.594
19.2668 3.906
19.2970 3.385
19.3273 3.281
19.3576 2.760
19.3879 2.656
19.4181 3.073
19.4484 3.281
19.4787 2.760
19.5090 2.448
19.5393 2.708
19.5695 3.542
19.5998 2.865
19.6301 2.500
19.6604 2.344
19.6907 3.073
19.7209 2.969
19.7512 3.125
19.7815 2.760
19.8118 2.656
19.8420 2.760
19.8723 2.812
19.9026 2.917
19.9329 2.344
19.9632 2.135
19.9934 2.865
20.0237 2.344
20.0540 2.812
20.0843 3.177
20.1146 2.396
20.1448 3.906
20.1751 2.187
20.2054 3.437
20.2357 3.177
20.2659 2.760
20.2962 2.552
20.3265 2.656
20.3568 3.229
20.3871 2.708
20.4173 2.917
20.4476 2.083
20.4779 3.802
20.5082 3.437
20.5385 2.656
20.5687 3.646
20.5990 2.969
20.6293 2.969
20.6596 2.448
20.6899 2.500
20.7201 2.812
20.7504 3.333
20.7807 2.917
20.8110 2.604
20.8412 3.490
20.8715 2.865
20.9018 2.187
20.9321 2.187
20.9624 2.865
20.9926 3.594
21.0229 3.490
21.0532 3.125
21.0835 4.531
21.1138 4.740
21.1440 4.948
21.1743 6.406
21.2046 5.781
21.2349 7.865
21.2651 8.021
21.2954 7.187
21.3257 6.562
21.3560 5.312
21.3863 4.635
21.4165 3.802
21.4468 3.906
21.4771 4.115
21.5074 3.125
21.5377 4.740
21.5679 3.906
21.5982 3.437
21.6285 3.646
21.6588 3.281
21.6890 2.604
21.7193 3.802
21.7496 3.125
21.7799 2.708
21.8102 2.812
21.8404 3.125
21.8707 2.812
21.9010 3.437
21.9313 2.865
21.9616 3.177
21.9918 2.708
22.0221 2.292
22.0524 2.812
22.0827 3.437
22.1129 3.021
22.1432 2.969
22.1735 3.333
22.2038 3.125
22.2341 3.281
22.2643 3.229
22.2946 2.708
22.3249 2.448
22.3552 2.500
22.3855 2.396
22.4157 2.708
22.4460 2.708
22.4763 2.708
22.5066 2.760
22.5368 2.865
22.5671 3.229
22.5974 2.656
22.6277 3.125
22.6580 3.021
22.6882 3.854
22.7185 3.177
22.7488 3.177
22.7791 2.500
22.8094 3.437
22.8396 3.385
22.8699 2.865
22.9002 3.073
22.9305 3.177
22.9607 3.229
22.9910 2.812
23.0213 2.865
23.0516 2.448
23.0819 3.125
23.1121 3.073
23.1424 2.812
23.1727 2.500
23.2030 3.125
23.2333 2.812
23.2635 3.594
23.2938 3.281
23.3241 3.281
23.3544 3.958
23.3846 3.802
23.4149 3.542
23.4452 3.229
23.4755 3.490
23.5058 3.906
23.5360 4.896
23.5663 4.167
23.5966 3.490
23.6269 4.323
23.6572 5.677
23.6874 5.000
23.7177 4.531
23.7480 5.729
23.7783 7.812
23.8086 8.385
23.8388 6.823
23.8691 8.385
23.8994 9.219
23.9297 8.021
23.9599 8.073
23.9902 6.927
24.0205 6.510
24.0508 6.146
24.0811 5.937
24.1113 5.052
24.1416 4.792
24.1719 5.208
24.2022 5.000
24.2325 5.052
24.2627 5.208
24.2930 6.927
24.3233 7.604
24.3536 8.333
24.3838 9.740
24.4141 10.625
24.4444 10.625
24.4747 9.427
24.5050 10.833
24.5352 9.323
24.5655 7.344
24.5958 6.667
24.6261 5.260
24.6564 6.458
24.6866 5.729
24.7169 4.948
24.7472 4.948
24.7775 4.427
24.8077 5.208
24.8380 5.052
24.8683 5.625
24.8986 4.375
24.9289 3.646
24.9591 4.323
24.9894 3.021
25.0197 3.958
25.0500 3.750
25.0803 4.375
25.1105 4.010
25.1408 3.750
25.1711 4.323
25.2014 4.479
25.2316 4.062
25.2619 4.844
25.2922 4.635
25.3225 4.219
25.3528 3.385
25.3830 4.375
25.4133 4.062
25.4436 4.115
25.4739 4.479
25.5042 3.281
25.5344 4.427
25.5647 4.219
25.5950 5.312
25.6253 3.646
25.6555 4.792
25.6858 4.635
25.7161 3.698
25.7464 4.010
25.7767 4.844
25.8069 4.375
25.8372 4.375
25.8675 4.635
25.8978 4.062
25.9281 3.854
25.9583 4.010
25.9886 5.104
26.0189 3.802
26.0492 4.844
26.0794 4.740
26.1097 4.948
26.1400 4.062
26.1703 5.000
26.2006 4.948
26.2308 4.792
26.2611 5.312
26.2914 4.948
26.3217 5.000
26.3520 6.094
26.3822 5.625
26.4125 5.937
26.4428 6.146
26.4731 5.781
26.5034 5.729
26.5336 5.104
26.5639 5.833
26.5942 5.000
26.6245 6.354
26.6547 6.458
26.6850 7.552
26.7153 6.823
26.7456 7.865
26.7759 9.427
26.8061 9.687
26.8364 12.917
26.8667 14.010
26.8970 14.896
26.9273 16.094
26.9575 15.781
26.9878 15.469
27.0181 14.323
27.0484 12.240
27.0786 11.667
27.1089 8.958
27.1392 7.500
27.1695 7.292
27.1998 6.875
27.2300 5.885
27.2603 6.510
27.2906 5.937
27.3209 5.260
27.3512 5.833
27.3814 6.146
27.4117 5.990
27.4420 6.094
27.4723 5.417
27.5025 5.052
27.5328 6.094
27.5631 4.323
27.5934 4.010
27.6237 4.896
27.6539 4.323
27.6842 4.740
27.7145 3.698
27.7448 4.583
27.7751 3.698
27.8053 4.062
27.8356 4.740
27.8659 4.115
27.8962 4.323
27.9264 5.052
27.9567 3.646
27.9870 3.490
28.0173 4.792
28.0476 4.062
28.0778 4.219
28.1081 3.594
28.1384 3.333
28.1687 3.385
28.1990 4.427
28.2292 3.177
28.2595 3.698
28.2898 4.010
28.3201 3.594
28.3503 3.542
28.3806 4.479
28.4109 3.854
28.4412 4.219
28.4715 4.115
28.5017 3.698
28.5320 3.646
28.5623 3.646
28.5926 3.177
28.6229 3.281
28.6531 3.594
28.6834 3.594
28.7137 3.437
28.7440 3.125
28.7742 3.802
28.8045 4.219
28.8348 3.854
28.8651 4.323
28.8954 3.906
28.9256 3.958
28.9559 3.177
28.9862 3.594
29.0165 2.969
29.0468 3.958
29.0770 3.958
29.1073 3.594
29.1376 3.229
29.1679 3.490
29.1981 3.594
29.2284 4.219
29.2587 3.750
29.2890 3.698
29.3193 2.865
29.3495 3.854
29.3798 3.073
29.4101 3.646
29.4404 3.281
29.4707 3.229
29.5009 3.437
29.5312 3.750
29.5615 3.542
29.5918 3.073
29.6221 3.333
29.6523 3.281
29.6826 4.010
29.7129 3.594
29.7432 3.646
29.7734 3.750
29.8037 3.854
29.8340 4.323
29.8643 4.010
29.8946 3.958
29.9248 4.167
29.9551 2.917
29.9854 3.333
30.0157 3.646
30.0460 2.708
30.0762 3.333
30.1065 3.281
30.1368 3.333
30.1671 3.125
30.1973 3.750
30.2276 3.750
30.2579 3.229
30.2882 3.125
30.3185 4.740
30.3487 3.958
30.3790 3.073
30.4093 3.750
30.4396 3.958
30.4699 3.958
30.5001 3.229
30.5304 3.333
30.5607 3.490
30.5910 3.698
30.6212 3.594
30.6515 4.531
30.6818 2.812
30.7121 4.167
30.7424 4.583
30.7726 4.062
30.8029 4.635
30.8332 3.906
30.8635 4.167
30.8938 3.854
30.9240 5.260
30.9543 4.635
30.9846 3.906
31.0149 5.156
31.0451 4.635
31.0754 4.740
31.1057 5.208
31.1360 5.365
31.1663 5.365
31.1965 5.885
31.2268 6.979
31.2571 6.406
31.2874 7.083
31.3177 7.135
31.3479 8.802
31.3782 7.969
31.4085 10.729
31.4388 11.510
31.4690 13.958
31.4993 14.010
31.5296 16.354
31.5599 19.844
31.5902 21.927
31.6204 18.906
31.6507 22.708
31.6810 20.365
31.7113 20.365
31.7416 17.344
31.7718 16.146
31.8021 14.271
31.8324 13.125
31.8627 11.823
31.8929 10.677
31.9232 10.156
31.9535 9.792
31.9838 8.333
32.0141 9.375
32.0443 8.698
32.0746 7.500
32.1049 9.010
32.1352 8.229
32.1655 10.156
32.1957 9.948
32.2260 9.010
32.2563 9.115
32.2866 9.948
32.3169 8.646
32.3471 7.969
32.3774 7.604
32.4077 8.646
32.4380 6.562
32.4682 7.552
32.4985 8.229
32.5288 6.979
32.5591 8.073
32.5894 8.750
32.6196 9.740
32.6499 10.156
32.6802 13.125
32.7105 16.771
32.7408 19.687
32.7710 25.052
32.8013 27.344
32.8316 23.177
32.8619 21.875
32.8921 17.135
32.9224 14.687
32.9527 11.198
32.9830 9.010
33.0133 7.969
33.0435 7.812
33.0738 8.125
33.1041 7.604
33.1344 7.656
33.1647 7.552
33.1949 6.875
33.2252 6.146
33.2555 5.521
33.2858 5.781
33.3160 5.365
33.3463 6.094
33.3766 6.667
33.4069 6.771
33.4372 5.625
33.4674 5.521
33.4977 6.094
33.5280 3.958
33.5583 5.000
33.5886 4.531
33.6188 6.198
33.6491 5.729
33.6794 4.896
33.7097 6.094
33.7399 4.687
33.7702 4.583
33.8005 5.625
33.8308 5.260
33.8611 6.250
33.8913 5.937
33.9216 6.250
33.9519 5.625
33.9822 6.719
34.0125 7.500
34.0427 8.333
34.0730 9.115
34.1033 10.052
34.1336 9.844
34.1638 11.615
34.1941 14.375
34.2244 17.292
34.2547 20.937
34.2850 23.594
34.3152 24.844
34.3455 22.031
34.3758 19.740
34.4061 17.031
34.4364 15.677
34.4666 12.500
34.4969 11.458
34.5272 11.250
34.5575 12.135
34.5877 11.979
34.6180 11.406
34.6483 11.510
34.6786 11.823
34.7089 10.729
34.7391 10.156
34.7694 11.042
34.7997 12.396
34.8300 11.719
34.8603 13.177
34.8905 17.552
34.9208 20.156
34.9511 24.219
34.9814 29.583
35.0116 27.135
35.0419 28.229
35.0722 25.781
35.1025 21.510
35.1328 19.844
35.1630 14.583
35.1933 13.125
35.2236 10.417
35.2539 10.208
35.2842 9.219
35.3144 7.917
35.3447 7.292
35.3750 7.604
35.4053 8.854
35.4356 8.281
35.4658 7.708
35.4961 7.187
35.5264 6.094
35.5567 7.031
35.5869 6.875
35.6172 6.979
35.6475 7.708
35.6778 7.396
35.7081 8.177
35.7383 9.635
35.7686 10.104
35.7989 11.719
35.8292 10.469
35.8595 12.917
35.8897 14.062
35.9200 13.646
35.9503 18.021
35.9806 20.312
36.0108 21.406
36.0411 24.792
36.0714 26.615
36.1017 26.198
36.1320 27.448
36.1622 31.146
36.1925 30.208
36.2228 25.781
36.2531 24.635
36.2834 21.771
36.3136 18.177
36.3439 17.083
36.3742 13.958
36.4045 12.135
36.4347 11.458
36.4650 10.260
36.4953 7.969
36.5256 7.656
36.5559 6.771
36.5861 7.552
36.6164 5.885
36.6467 6.406
36.6770 6.094
36.7073 4.687
36.7375 5.677
36.7678 5.260
36.7981 4.740
36.8284 4.271
36.8586 4.740
36.8889 4.687
36.9192 4.323
36.9495 3.854
36.9798 4.792
37.0100 4.167
37.0403 4.271
37.0706 3.750
37.1009 3.958
37.1312 3.542
37.1614 4.271
37.1917 3.542
37.2220 3.906
37.2523 4.896
37.2825 4.635
37.3128 4.948
37.3431 4.687
37.3734 5.208
37.4037 4.479
37.4339 4.635
37.4642 4.010
37.4945 3.854
37.5248 3.802
37.5551 4.323
37.5853 3.958
37.6156 4.010
37.6459 3.698
37.6762 3.646
37.7064 3.437
37.7367 2.708
37.7670 2.812
37.7973 3.437
37.8276 1.927
37.8578 3.021
37.8881 3.854
37.9184 2.917
37.9487 3.073
37.9790 3.021
38.0092 3.437
38.0395 3.437
38.0698 2.552
38.1001 3.385
38.1304 2.917
38.1606 2.865
38.1909 3.073
38.2212 3.177
38.2515 3.229
38.2817 2.708
38.3120 2.656
38.3423 3.021
38.3726 3.385
38.4029 3.021
38.4331 2.656
38.4634 3.385
38.4937 3.542
38.5240 2.760
38.5543 3.542
38.5845 3.437
38.6148 3.021
38.6451 2.656
38.6754 3.073
38.7056 2.135
38.7359 2.187
38.7662 3.073
38.7965 2.135
38.8268 2.708
38.8570 2.969
38.8873 2.344
38.9176 2.969
38.9479 2.187
38.9782 3.177
39.0084 2.344
39.0387 2.552
39.0690 2.917
39.0993 1.875
39.1295 2.760
39.1598 3.021
39.1901 2.708
39.2204 3.073
39.2507 2.187
39.2809 3.177
39.3112 3.125
39.3415 2.812
39.3718 2.292
39.4021 2.917
39.4323 2.865
39.4626 2.500
39.4929 2.917
39.5232 2.812
39.5534 2.708
39.5837 3.542
39.6140 3.021
39.6443 2.708
39.6746 2.969
39.7048 2.708
39.7351 2.187
39.7654 2.604
39.7957 2.812
39.8260 2.083
39.8562 3.073
39.8865 2.604
39.9168 1.979
39.9471 3.229
39.9773 2.656
40.0076 2.969
40.0379 2.187
40.0682 2.604
40.0985 2.396
40.1287 2.708
40.1590 2.656
40.1893 3.177
40.2196 2.917
40.2499 2.656
40.2801 2.396
40.3104 2.708
40.3407 3.385
40.3710 2.500
40.4012 2.708
40.4315 2.760
40.4618 2.760
40.4921 2.865
40.5224 4.062
40.5526 3.281
40.5829 2.969
40.6132 3.646
40.6435 3.646
40.6738 3.490
40.7040 3.646
40.7343 4.531
40.7646 3.958
40.7949 4.792
40.8251 5.156
40.8554 6.042
40.8857 5.312
40.9160 6.771
40.9463 8.125
40.9765 8.177
41.0068 9.583
41.0371 10.000
41.0674 8.333
41.0977 8.698
41.1279 8.229
41.1582 6.458
41.1885 6.615
41.2188 5.469
41.2491 5.104
41.2793 4.427
41.3096 3.646
41.3399 3.958
41.3702 2.708
41.4004 2.917
41.4307 2.865
41.4610 3.281
41.4913 3.854
41.5216 2.448
41.5518 3.021
41.5821 2.969
41.6124 2.760
41.6427 2.344
41.6730 2.917
41.7032 2.969
41.7335 2.344
41.7638 2.708
41.7941 2.812
41.8243 2.083
41.8546 2.552
41.8849 2.865
41.9152 2.708
41.9455 1.875
41.9757 2.187
42.0060 2.396
42.0363 2.656
42.0666 2.187
42.0969 2.344
42.1271 2.604
42.1574 2.083
42.1877 3.125
42.2180 2.708
42.2482 2.187
42.2785 2.396
42.3088 2.448
42.3391 2.448
42.3694 2.760
42.3996 2.448
42.4299 3.229
42.4602 2.500
42.4905 2.135
42.5208 2.292
42.5510 2.969
42.5813 2.292
42.6116 2.708
42.6419 2.812
42.6721 2.448
42.7024 1.823
42.7327 1.667
42.7630 2.552
42.7933 2.500
42.8235 2.396
42.8538 2.708
42.8841 2.187
42.9144 1.823
42.9447 2.135
42.9749 2.552
43.0052 2.969
43.0355 2.604
43.0658 2.708
43.0960 2.500
43.1263 2.240
43.1566 1.927
43.1869 2.500
43.2172 1.979
43.2474 3.073
43.2777 2.812
43.3080 2.552
43.3383 2.656
43.3686 2.187
43.3988 3.021
43.4291 2.552
43.4594 2.292
43.4897 2.708
43.5199 2.500
43.5502 3.021
43.5805 2.083
43.6108 2.812
43.6411 2.344
43.6713 2.292
43.7016 2.396
43.7319 2.656
43.7622 1.875
43.7925 3.281
43.8227 3.021
43.8530 2.500
43.8833 2.448
43.9136 1.875
43.9439 2.917
43.9741 2.135
44.0044 2.135
44.0347 2.187
44.0650 2.500
44.0952 2.344
44.1255 2.240
44.1558 2.500
44.1861 1.875
44.2164 2.344
44.2466 2.604
44.2769 2.708
44.3072 2.656
44.3375 3.229
44.3678 2.969
44.3980 2.344
44.4283 2.656
44.4586 2.812
44.4889 1.823
44.5191 2.500
44.5494 2.240
44.5797 2.917
44.6100 2.448
44.6403 2.917
44.6705 2.760
44.7008 3.125
44.7311 2.708
44.7614 3.333
44.7917 3.490
44.8219 3.177
44.8522 3.125
44.8825 3.385
44.9128 4.115
44.9430 3.021
44.9733 3.490
45.0036 2.552
45.0339 3.073
45.0642 3.073
45.0944 3.073
45.1247 2.812
45.1550 2.344
45.1853 3.021
45.2156 2.656
45.2458 3.281
45.2761 2.917
45.3064 3.021
45.3367 2.760
45.3669 2.240
45.3972 3.437
45.4275 2.500
45.4578 2.240
45.4881 2.083
45.5183 2.083
45.5486 2.656
45.5789 2.240
45.6092 3.385
45.6395 2.344
45.6697 2.292
45.7000 2.396
45.7303 2.292
45.7606 2.656
45.7908 2.656
45.8211 2.187
45.8514 2.031
45.8817 1.823
45.9120 2.187
45.9422 2.656
45.9725 2.656
46.0028 2.604
46.0331 2.552
46.0634 2.187
46.0936 2.344
46.1239 1.771
46.1542 2.656
46.1845 1.979
46.2147 2.656
46.2450 2.448
46.2753 2.708
46.3056 2.656
46.3359 2.240
46.3661 1.719
46.3964 2.396
46.4267 2.396
46.4570 1.979
46.4873 2.396
46.5175 2.448
46.5478 2.292
46.5781 2.500
46.6084 2.708
46.6386 2.083
46.6689 2.500
46.6992 2.708
46.7295 2.240
46.7598 2.240
46.7900 2.917
46.8203 2.552
46.8506 3.229
46.8809 3.490
46.9112 3.385
46.9414 2.969
46.9717 3.490
47.0020 4.323
47.0323 3.437
47.0626 4.062
47.0928 3.698
47.1231 3.698
47.1534 5.000
47.1837 4.167
47.2139 5.208
47.2442 4.479
47.2745 4.479
47.3048 4.427
47.3351 5.104
47.3653 5.156
47.3956 5.521
47.4259 5.260
47.4562 5.625
47.4865 4.740
47.5167 4.115
47.5470 4.531
47.5773 3.750
47.6076 4.010
47.6378 3.333
47.6681 3.281
47.6984 4.167
47.7287 3.594
47.7590 3.646
47.7892 4.010
47.8195 3.490
47.8498 3.073
47.8801 3.021
47.9104 3.125
47.9406 2.708
47.9709 3.229
48.0012 2.917
48.0315 2.448
48.0617 3.073
48.0920 3.281
48.1223 2.812
48.1526 2.552
48.1829 2.396
48.2131 3.333
48.2434 3.125
48.2737 2.969
48.3040 2.292
48.3343 2.240
48.3645 2.812
48.3948 3.073
48.4251 2.708
48.4554 2.500
48.4856 2.396
48.5159 2.292
48.5462 3.177
48.5765 2.344
48.6068 2.969
48.6370 2.760
48.6673 2.917
48.6976 3.229
48.7279 2.292
48.7582 3.333
48.7884 2.604
48.8187 3.021
48.8490 3.281
48.8793 3.229
48.9095 3.073
48.9398 3.490
48.9701 3.906
49.0004 3.906
49.0307 4.115
49.0609 3.229
49.0912 3.594
49.1215 3.385
49.1518 3.594
49.1821 3.854
49.2123 3.542
49.2426 2.865
49.2729 3.125
49.3032 3.490
49.3334 3.177
49.3637 3.333
49.3940 3.125
49.4243 3.958
49.4546 4.062
49.4848 4.583
49.5151 4.219
49.5454 5.417
49.5757 5.937
49.6060 5.208
49.6362 6.146
49.6665 7.240
49.6968 8.177
49.7271 6.823
49.7574 7.292
49.7876 7.552
49.8179 5.937
49.8482 5.521
49.8785 6.094
49.9087 5.833
49.9390 5.312
49.9693 4.531
49.9996 4.375
50.0299 3.698
50.0601 3.906
50.0904 3.177
50.1207 3.385
50.1510 4.219
50.1813 4.635
50.2115 3.750
50.2418 4.219
50.2721 4.635
50.3024 3.021
50.3326 3.229
50.3629 3.437
50.3932 2.917
50.4235 3.646
50.4538 3.281
50.4840 2.083
50.5143 2.760
50.5446 2.396
50.5749 2.552
50.6052 2.760
50.6354 2.760
50.6657 2.500
50.6960 2.917
50.7263 2.812
50.7565 2.760
50.7868 2.500
50.8171 2.708
50.8474 2.656
50.8777 3.177
50.9079 3.125
50.9382 2.396
50.9685 3.333
50.9988 2.552
51.0291 2.812
51.0593 2.760
51.0896 2.552
51.1199 2.865
51.1502 2.500
51.1804 2.708
51.2107 2.969
51.2410 1.875
51.2713 2.240
51.3016 2.396
51.3318 2.969
51.3621 2.396
51.3924 3.385
51.4227 2.448
51.4530 3.177
51.4832 3.021
51.5135 2.500
51.5438 3.073
51.5741 2.917
51.6043 2.240
51.6346 3.125
51.6649 3.125
51.6952 3.802
51.7255 2.760
51.7557 3.542
51.7860 3.490
51.8163 4.115
51.8466 3.698
51.8769 4.062
51.9071 4.271
51.9374 4.115
51.9677 3.802
51.9980 3.646
52.0282 3.542
52.0585 3.073
52.0888 2.760
52.1191 2.865
52.1494 2.344
52.1796 2.083
52.2099 2.708
52.2402 2.708
52.2705 2.760
52.3008 2.396
52.3310 2.448
52.3613 2.500
52.3916 2.448
52.4219 1.875
52.4521 1.927
52.4824 2.656
52.5127 3.021
52.5430 1.979
52.5733 1.979
52.6035 2.448
52.6338 2.083
52.6641 1.406
52.6944 2.187
52.7247 1.979
52.7549 2.552
52.7852 1.875
52.8155 2.083
52.8458 2.135
52.8761 2.135
52.9063 2.344
52.9366 1.875
52.9669 1.875
52.9972 2.135
53.0274 1.875
53.0577 1.823
53.0880 2.240
53.1183 1.823
53.1486 2.187
53.1788 2.187
53.2091 3.073
53.2394 2.448
53.2697 2.396
53.3000 2.448
53.3302 2.240
53.3605 2.344
53.3908 1.667
53.4211 1.823
53.4513 2.031
53.4816 2.135
53.5119 1.771
53.5422 2.031
53.5725 1.667
53.6027 2.187
53.6330 2.344
53.6633 2.292
53.6936 1.823
53.7239 1.823
53.7541 2.135
53.7844 2.552
53.8147 2.760
53.8450 2.344
53.8752 2.448
53.9055 2.240
53.9358 2.656
53.9661 2.187
53.9964 1.823
54.0266 2.396
54.0569 2.240
54.0872 2.708
54.1175 1.094
54.1478 2.083
54.1780 2.708
54.2083 2.083
54.2386 1.823
54.2689 2.240
54.2991 2.135
54.3294 1.927
54.3597 1.615
54.3900 2.240
54.4203 2.396
54.4505 2.083
54.4808 2.187
54.5111 3.281
54.5414 2.344
54.5717 2.187
54.6019 1.927
54.6322 2.135
54.6625 2.448
54.6928 2.292
54.7230 1.875
54.7533 2.656
54.7836 2.083
54.8139 2.448
54.8442 2.604
54.8744 2.083
54.9047 1.771
54.9350 1.615
54.9653 2.344
54.9956 2.812
55.0258 2.344
55.0561 2.083
55.0864 2.031
55.1167 2.448
55.1469 2.187
55.1772 2.135
55.2075 2.604
55.2378 2.760
55.2681 2.448
55.2983 2.031
55.3286 2.604
55.3589 2.708
55.3892 2.031
55.4195 2.708
55.4497 2.865
55.4800 2.187
55.5103 2.865
55.5406 2.448
55.5709 3.021
55.6011 2.448
55.6314 2.396
55.6617 2.396
55.6920 2.865
55.7222 2.865
55.7525 2.396
55.7828 3.490
55.8131 2.396
55.8434 2.865
55.8736 3.281
55.9039 3.594
55.9342 3.177
55.9645 3.177
55.9948 2.812
56.0250 4.167
56.0553 3.698
56.0856 4.115
56.1159 4.167
56.1461 4.792
56.1764 5.573
56.2067 5.729
56.2370 5.208
56.2673 7.135
56.2975 7.344
56.3278 6.354
56.3581 8.437
56.3884 9.010
56.4187 8.073
56.4489 9.948
56.4792 9.167
56.5095 8.854
56.5398 9.531
56.5700 8.698
56.6003 7.396
56.6306 8.125
56.6609 7.604
56.6912 5.573
56.7214 6.615
56.7517 6.250
56.7820 4.948
56.8123 4.635
56.8426 3.958
56.8728 4.115
56.9031 4.010
56.9334 4.635
56.9637 3.854
56.9939 2.396
57.0242 3.073
57.0545 2.969
57.0848 3.125
57.1151 3.490
57.1453 2.812
57.1756 2.135
57.2059 2.865
57.2362 2.917
57.2665 2.604
57.2967 2.708
57.3270 2.448
57.3573 3.229
57.3876 2.396
57.4178 2.604
57.4481 2.187
57.4784 2.656
57.5087 3.177
57.5390 2.083
57.5692 2.240
57.5995 1.875
57.6298 2.240
57.6601 1.667
57.6904 2.500
57.7206 2.812
57.7509 2.708
57.7812 2.292
57.8115 2.187
57.8417 3.281
57.8720 2.135
57.9023 2.552
57.9326 2.708
57.9629 2.708
57.9931 2.344
58.0234 2.552
58.0537 2.656
58.0840 2.344
58.1143 2.656
58.1445 3.229
58.1748 4.167
58.2051 2.865
58.2354 3.750
58.2656 3.490
58.2959 3.646
58.3262 2.865
58.3565 4.948
58.3868 3.698
58.4170 3.333
58.4473 4.740
58.4776 5.469
58.5079 7.031
58.5382 7.344
58.5684 9.010
58.5987 8.385
58.6290 10.469
58.6593 8.125
58.6896 7.969
58.7198 6.615
58.7501 8.125
58.7804 6.979
58.8107 6.250
58.8409 5.104
58.8712 5.677
58.9015 4.010
58.9318 4.427
58.9621 4.375
58.9923 3.698
59.0226 3.281
59.0529 3.646
59.0832 3.958
59.1135 4.167
59.1437 3.802
59.1740 3.385
59.2043 3.385
59.2346 3.490
59.2648 2.656
59.2951 3.333
59.3254 3.385
59.3557 3.021
59.3860 3.958
59.4162 3.542
59.4465 3.073
59.4768 2.708
59.5071 3.177
59.5374 2.500
59.5676 3.385
59.5979 3.177
59.6282 3.021
59.6585 2.708
59.6887 3.229
59.7190 3.594
59.7493 3.021
59.7796 3.490
59.8099 4.010
59.8401 4.635
59.8704 4.323
59.9007 3.906
59.9310 5.677
59.9613 4.740
59.9915 6.302
60.0218 6.562
60.0521 7.344
60.0824 6.927
60.1126 7.083
60.1429 7.031
60.1732 7.448
60.2035 7.604
60.2338 7.396
60.2640 7.448
60.2943 7.083
60.3246 5.208
60.3549 5.885
60.3852 5.104
60.4154 4.896
60.4457 4.115
60.4760 4.583
60.5063 4.271
60.5365 3.854
60.5668 3.906
60.5971 3.281
60.6274 3.333
60.6577 3.125
60.6879 3.333
60.7182 2.656
60.7485 3.177
60.7788 2.187
60.8091 2.396
60.8393 2.656
60.8696 2.656
60.8999 3.542
60.9302 3.229
60.9604 2.083
60.9907 2.292
61.0210 2.552
61.0513 2.344
61.0816 3.021
61.1118 2.865
61.1421 3.490
61.1724 3.021
61.2027 3.281
61.2330 2.917
61.2632 2.656
61.2935 3.021
61.3238 3.333
61.3541 2.865
61.3844 2.448
61.4146 2.396
61.4449 2.969
61.4752 2.656
61.5055 2.760
61.5357 2.812
61.5660 2.760
61.5963 2.396
61.6266 2.552
61.6569 1.927
61.6871 2.031
61.7174 2.396
61.7477 2.604
61.7780 2.552
61.8083 2.031
61.8385 2.500
61.8688 2.656
61.8991 2.656
61.9294 2.344
61.9596 2.083
61.9899 2.604
62.0202 2.500
62.0505 2.344
62.0808 2.604
62.1110 2.292
62.1413 2.865
62.1716 1.823
62.2019 2.500
62.2322 3.073
62.2624 2.760
62.2927 3.333
62.3230 3.802
62.3533 3.750
62.3835 3.490
62.4138 3.854
62.4441 4.323
62.4744 4.687
62.5047 4.583
62.5349 5.052
62.5652 5.104
62.5955 6.094
62.6258 5.260
62.6561 5.573
62.6863 5.990
62.7166 6.771
62.7469 6.094
62.7772 6.250
62.8074 6.042
62.8377 4.896
62.8680 5.312
62.8983 4.896
62.9286 3.750
62.9588 3.802
62.9891 3.750
63.0194 4.167
63.0497 3.646
63.0800 2.969
63.1102 2.760
63.1405 3.229
63.1708 3.021
63.2011 3.021
63.2313 3.073
63.2616 3.125
63.2919 2.187
63.3222 2.656
63.3525 3.385
63.3827 2.448
63.4130 2.292
63.4433 2.083
63.4736 2.031
63.5039 1.771
63.5341 2.656
63.5644 1.562
63.5947 2.187
63.6250 2.135
63.6552 1.979
63.6855 2.292
63.7158 2.240
63.7461 2.500
63.7764 2.135
63.8066 1.927
63.8369 1.667
63.8672 2.187
63.8975 2.031
63.9278 1.979
63.9580 1.667
63.9883 2.448
64.0186 2.083
64.0489 2.448
64.0791 2.552
64.1094 2.344
64.1397 2.604
64.1700 2.292
64.2003 2.656
64.2305 2.500
64.2608 2.500
64.2911 1.979
64.3214 2.604
64.3517 2.708
64.3819 2.344
64.4122 2.344
64.4425 2.240
64.4728 1.927
64.5031 1.927
64.5333 1.667
64.5636 2.500
64.5939 1.979
64.6242 2.135
64.6544 1.667
64.6847 2.135
64.7150 1.927
64.7453 2.031
64.7756 1.719
64.8058 1.719
64.8361 1.875
64.8664 1.615
64.8967 1.406
64.9270 1.875
64.9572 1.875
64.9875 2.135
65.0178 1.927
65.0481 1.667
65.0783 2.292
65.1086 1.719
65.1389 2.135
65.1692 1.562
65.1995 1.250
65.2297 1.823
65.2600 1.771
65.2903 2.344
65.3206 1.510
65.3509 2.031
65.3811 1.771
65.4114 1.719
65.4417 1.615
65.4720 1.562
65.5022 1.927
65.5325 1.719
65.5628 1.667
65.5931 2.396
65.6234 1.927
65.6536 1.667
65.6839 2.396
65.7142 1.875
65.7445 2.240
65.7748 2.083
65.8050 2.448
65.8353 1.979
65.8656 2.083
65.8959 1.667
65.9261 2.448
65.9564 2.448
65.9867 2.083
66.0170 2.292
66.0473 2.135
66.0775 3.125
66.1078 2.187
66.1381 2.500
66.1684 2.604
66.1987 2.656
66.2289 1.875
66.2592 2.344
66.2895 2.969
66.3198 2.083
66.3500 1.875
66.3803 2.240
66.4106 2.083
66.4409 2.135
66.4712 2.083
66.5014 2.396
66.5317 2.604
66.5620 2.500
66.5923 1.719
66.6226 2.396
66.6528 1.927
66.6831 2.656
66.7134 2.292
66.7437 1.615
66.7739 1.927
66.8042 2.396
66.8345 1.615
66.8648 1.458
66.8951 1.875
66.9253 1.719
66.9556 1.771
66.9859 1.615
67.0162 1.302
67.0465 2.812
67.0767 2.292
67.1070 2.240
67.1373 1.979
67.1676 2.187
67.1978 2.240
67.2281 2.240
67.2584 2.187
67.2887 2.396
67.3190 3.385
67.3492 2.083
67.3795 2.396
67.4098 2.604
67.4401 3.125
67.4704 3.177
67.5006 2.500
67.5309 4.375
67.5612 3.698
67.5915 4.062
67.6218 5.000
67.6520 4.635
67.6823 5.156
67.7126 5.260
67.7429 5.208
67.7731 6.094
67.8034 6.458
67.8337 5.990
67.8640 5.469
67.8943 5.156
67.9245 4.792
67.9548 5.000
67.9851 4.948
68.0154 3.750
68.0457 4.479
68.0759 4.010
68.1062 4.479
68.1365 3.281
68.1668 3.437
68.1970 3.021
68.2273 2.865
68.2576 2.865
68.2879 2.708
68.3182 2.292
68.3484 2.917
68.3787 2.760
68.4090 2.240
68.4393 2.865
68.4696 3.073
68.4998 2.812
68.5301 2.344
68.5604 2.656
68.5907 2.865
68.6209 2.865
68.6512 2.812
68.6815 3.542
68.7118 3.385
68.7421 4.167
68.7723 3.802
68.8026 3.646
68.8329 4.010
68.8632 4.115
68.8935 4.115
68.9237 3.229
68.9540 4.844
68.9843 4.635
69.0146 4.219
69.0448 4.323
69.0751 2.969
69.1054 3.750
69.1357 3.906
69.1660 3.177
69.1962 2.917
69.2265 2.812
69.2568 3.229
69.2871 2.396
69.3174 2.552
69.3476 2.708
69.3779 2.292
69.4082 2.969
69.4385 2.500
69.4687 2.708
69.4990 2.448
69.5293 2.917
69.5596 2.240
69.5899 1.719
69.6201 2.500
69.6504 2.031
69.6807 1.771
69.7110 1.615
69.7413 1.771
69.7715 1.979
69.8018 1.667
69.8321 2.604
69.8624 1.823
69.8926 2.917
69.9229 2.760
69.9532 1.927
69.9835 2.448
70.0138 2.604
70.0440 2.292
70.0743 2.760
70.1046 2.396
70.1349 2.396
70.1652 2.708
70.1954 3.281
70.2257 3.385
70.2560 2.604
70.2863 2.812
70.3166 3.177
70.3468 2.865
70.3771 2.292
70.4074 2.344
70.4377 2.135
70.4679 2.396
70.4982 2.031
70.5285 1.771
70.5588 1.823
70.5891 2.240
70.6193 1.979
70.6496 1.302
70.6799 2.031
70.7102 2.292
70.7405 1.250
70.7707 2.031
70.8010 1.823
70.8313 1.823
70.8616 1.510
70.8918 1.302
70.9221 1.510
70.9524 1.667
70.9827 2.083
71.0130 2.083
71.0432 2.031
71.0735 2.187
71.1038 2.031
71.1341 1.562
71.1644 2.240
71.1946 1.458
71.2249 1.719
71.2552 1.667
71.2855 1.458
71.3157 1.458
71.3460 1.510
71.3763 1.927
71.4066 1.771
71.4369 2.031
71.4671 1.615
71.4974 1.979
71.5277 1.458
71.5580 2.240
71.5883 1.198
71.6185 1.771
71.6488 1.458
71.6791 2.344
71.7094 1.562
71.7396 1.354
71.7699 1.354
71.8002 1.250
71.8305 1.719
71.8608 1.354
71.8910 2.031
71.9213 1.042
71.9516 1.823
71.9819 1.562
72.0122 1.458
72.0424 2.083
72.0727 1.719
72.1030 2.031
72.1333 2.135
72.1635 2.240
72.1938 2.240
72.2241 1.979
72.2544 2.240
72.2847 1.719
72.3149 2.240
72.3452 2.083
72.3755 2.656
72.4058 2.031
72.4361 2.240
72.4663 2.135
72.4966 1.979
72.5269 1.875
72.5572 1.927
72.5874 2.448
72.6177 1.719
72.6480 2.500
72.6783 1.927
72.7086 2.656
72.7388 1.927
72.7691 2.031
72.7994 2.187
72.8297 1.771
72.8600 2.240
72.8902 1.979
72.9205 2.187
72.9508 1.719
72.9811 1.875
73.0113 1.719
73.0416 1.406
73.0719 1.354
73.1022 1.875
73.1325 1.302
73.1627 1.875
73.1930 0.990
73.2233 1.979
73.2536 1.719
73.2839 1.719
73.3141 1.354
73.3444 1.719
73.3747 1.562
73.4050 1.302
73.4353 1.250
73.4655 0.833
73.4958 1.458
73.5261 1.510
73.5564 1.458
73.5866 1.146
73.6169 1.250
73.6472 1.094
73.6775 1.979
73.7078 1.406
73.7380 1.458
73.7683 1.667
73.7986 1.354
73.8289 1.458
73.8592 1.667
73.8894 1.562
73.9197 1.927
73.9500 1.458
73.9803 1.615
74.0105 1.615
74.0408 2.500
74.0711 2.135
74.1014 2.083
74.1317 1.719
74.1619 1.458
74.1922 2.083
74.2225 1.198
74.2528 1.927
74.2831 1.562
74.3133 1.667
74.3436 1.510
74.3739 1.562
74.4042 1.719
74.4344 1.458
74.4647 1.562
74.4950 1.198
74.5253 1.510
74.5556 1.667
74.5858 1.979
74.6161 1.198
74.6464 1.458
74.6767 1.250
74.7070 1.927
74.7372 1.146
74.7675 1.823
74.7978 1.823
74.8281 1.094
74.8583 1.406
74.8886 1.458
74.9189 1.146
74.9492 1.510
74.9795 1.615
75.0097 0.937
75.0400 1.198
75.0703 0.990
75.1006 1.406
75.1309 0.833
75.1611 1.615
75.1914 1.250
75.2217 1.354
75.2520 1.198
75.2822 1.250
75.3125 1.458
75.3428 1.562
75.3731 1.094
75.4034 1.927
75.4336 1.146
75.4639 1.146
75.4942 1.562
75.5245 1.198
75.5548 1.146
75.5850 1.146
75.6153 1.562
75.6456 1.250
75.6759 1.354
75.7061 1.667
75.7364 0.990
75.7667 1.354
75.7970 1.562
75.8273 1.510
75.8575 1.354
75.8878 1.198
75.9181 1.094
75.9484 1.615
75.9787 1.615
76.0089 1.823
76.0392 1.615
76.0695 1.354
76.0998 1.667
76.1301 1.875
76.1603 1.510
76.1906 1.302
76.2209 1.667
76.2512 1.667
76.2814 1.198
76.3117 1.667
76.3420 1.615
76.3723 1.927
76.4026 1.615
76.4328 1.094
76.4631 1.042
76.4934 1.302
76.5237 1.771
76.5540 1.458
76.5842 1.667
76.6145 1.406
76.6448 1.667
76.6751 1.458
76.7053 1.875
76.7356 1.562
76.7659 1.615
76.7962 1.667
76.8265 1.146
76.8567 1.510
76.8870 1.667
76.9173 1.615
76.9476 2.240
76.9779 2.187
77.0081 2.083
77.0384 1.354
77.0687 1.510
77.0990 1.979
77.1292 1.719
77.1595 1.458
77.1898 1.667
77.2201 1.927
77.2504 0.990
77.2806 1.354
77.3109 1.094
77.3412 1.458
77.3715 1.354
77.4018 1.771
77.4320 1.615
77.4623 1.406
77.4926 1.406
77.5229 1.198
77.5531 1.250
77.5834 1.302
77.6137 1.510
77.6440 1.302
77.6743 1.354
77.7045 1.146
77.7348 1.094
77.7651 0.885
77.7954 1.615
77.8257 1.667
77.8559 1.354
77.8862 1.042
77.9165 1.719
77.9468 1.042
77.9770 1.354
78.0073 1.615
78.0376 1.354
78.0679 2.083
78.0982 1.927
78.1284 1.562
78.1587 1.198
78.1890 1.302
78.2193 1.771
78.2496 1.667
78.2798 1.667
78.3101 1.667
78.3404 1.354
78.3707 1.719
78.4009 1.302
78.4312 1.562
78.4615 1.146
78.4918 1.198
78.5221 1.510
78.5523 1.719
78.5826 1.615
78.6129 1.094
78.6432 1.302
78.6735 1.562
78.7037 1.146
78.7340 1.562
78.7643 1.250
78.7946 1.615
78.8248 1.667
78.8551 0.937
78.8854 1.667
78.9157 2.135
78.9460 1.667
78.9762 1.302
79.0065 1.354
79.0368 1.875
79.0671 1.198
79.0974 1.510
79.1276 1.510
79.1579 1.719
79.1882 1.094
79.2185 1.667
79.2488 1.510
79.2790 1.562
79.3093 1.510
79.3396 1.667
79.3699 1.719
79.4001 1.667
79.4304 1.771
79.4607 1.510
79.4910 1.250
79.5213 1.042
79.5515 1.354
79.5818 1.667
79.6121 1.406
79.6424 1.198
79.6727 1.458
79.7029 1.719
79.7332 1.667
79.7635 2.135
79.7938 1.562
79.8240 1.146
79.8543 1.562
79.8846 2.083
79.9149 2.135
79.9452 1.354
79.9754 2.135
80.0057 2.135
80.0360 1.406
80.0663 1.771
80.0966 1.562
80.1268 1.615
80.1571 1.406
80.1874 1.823
80.2177 1.354
80.2479 1.771
80.2782 1.458
80.3085 2.344
80.3388 1.615
80.3691 2.135
80.3993 1.927
80.4296 1.927
80.4599 2.135
80.4902 1.510
80.5205 1.719
80.5507 1.667
80.5810 1.667
80.6113 1.615
80.6416 1.562
80.6718 1.875
80.7021 2.240
80.7324 1.719
80.7627 1.771
80.7930 1.927
80.8232 1.354
80.8535 1.562
80.8838 1.667
80.9141 1.146
80.9444 1.719
80.9746 1.667
81.0049 2.031
81.0352 1.667
81.0655 2.240
81.0957 1.771
81.1260 1.615
81.1563 2.240
81.1866 1.198
81.2169 1.406
81.2471 1.510
81.2774 1.510
81.3077 0.781
81.3380 1.354
81.3683 2.135
81.3985 1.719
81.4288 1.927
81.4591 1.198
81.4894 1.198
81.5196 1.146
81.5499 1.354
81.5802 1.667
81.6105 1.823
81.6408 1.458
81.6710 1.042
81.7013 1.771
81.7316 1.302
81.7619 1.042
81.7922 1.823
81.8224 1.198
81.8527 1.354
81.8830 1.667
81.9133 1.615
81.9436 1.510
81.9738 1.042
82.0041 0.729
82.0344 1.510
82.0647 0.885
82.0949 1.458
82.1252 0.885
82.1555 1.510
82.1858 1.198
82.2161 1.406
82.2463 1.354
82.2766 1.302
82.3069 1.823
82.3372 1.615
82.3675 1.458
82.3977 1.771
82.4280 1.510
82.4583 0.990
82.4886 1.042
82.5188 1.354
82.5491 1.562
82.5794 1.354
82.6097 1.198
82.6400 1.458
82.6702 1.458
82.7005 1.406
82.7308 0.885
82.7611 1.302
82.7914 1.042
82.8216 1.354
82.8519 1.198
82.8822 2.083
82.9125 1.094
82.9427 2.031
82.9730 0.937
83.0033 1.146
83.0336 1.719
83.0639 1.198
83.0941 1.302
83.1244 1.406
83.1547 1.146
83.1850 1.042
83.2153 1.667
83.2455 0.937
83.2758 1.406
83.3061 1.250
83.3364 1.302
83.3666 1.198
83.3969 1.719
83.4272 0.937
83.4575 1.146
83.4878 1.042
83.5180 1.406
83.5483 1.406
83.5786 1.198
83.6089 1.198
83.6392 1.198
83.6694 1.615
83.6997 1.250
83.7300 0.937
83.7603 1.667
83.7905 1.354
83.8208 1.302
83.8511 1.979
83.8814 1.250
83.9117 1.562
83.9419 1.250
83.9722 1.094
84.0025 1.510
84.0328 1.146
84.0631 1.198
84.0933 1.823
84.1236 1.562
84.1539 1.198
84.1842 1.667
84.2144 1.042
84.2447 1.094
84.2750 0.729
84.3053 0.677
84.3356 1.615
84.3658 1.354
84.3961 0.937
84.4264 1.042
84.4567 1.198
84.4870 0.990
84.5172 1.562
84.5475 0.833
84.5778 1.198
84.6081 1.250
84.6383 1.146
84.6686 1.146
84.6989 1.667
84.7292 1.510
84.7595 1.302
84.7897 2.031
84.8200 1.406
84.8503 1.250
84.8806 1.823
84.9109 1.562
84.9411 1.250
84.9714 1.354
85.0017 1.510
85.0320 1.094
85.0623 1.198
85.0925 1.354
85.1228 1.458
85.1531 1.198
85.1834 1.406
85.2136 0.990
85.2439 1.354
85.2742 1.198
85.3045 1.146
85.3348 1.198
85.3650 1.198
85.3953 1.667
85.4256 1.875
85.4559 1.198
85.4862 1.042
85.5164 1.406
85.5467 1.510
85.5770 1.667
85.6073 1.354
85.6375 1.042
85.6678 1.667
85.6981 1.615
85.7284 1.667
85.7587 1.510
85.7889 1.615
85.8192 1.458
85.8495 0.833
85.8798 0.833
85.9101 1.771
85.9403 1.667
85.9706 1.667
86.0009 1.198
86.0312 1.302
86.0614 1.667
86.0917 1.406
86.1220 0.990
86.1523 1.354
86.1826 1.458
86.2128 1.510
86.2431 1.458
86.2734 1.302
86.3037 1.458
86.3340 1.406
86.3642 1.458
86.3945 0.885
86.4248 1.615
86.4551 1.667
86.4853 1.094
86.5156 1.302
86.5459 1.823
86.5762 1.406
86.6065 1.354
86.6367 1.198
86.6670 1.250
86.6973 1.562
86.7276 1.458
86.7579 1.562
86.7881 1.406
86.8184 1.146
86.8487 1.250
86.8790 0.937
86.9092 1.302
86.9395 1.510
86.9698 1.354
87.0001 1.198
87.0304 1.458
87.0606 1.198
87.0909 0.573
87.1212 1.406
87.1515 1.615
87.1818 1.458
87.2120 1.354
87.2423 1.094
87.2726 1.354
87.3029 1.198
87.3331 1.250
87.3634 1.615
87.3937 1.250
87.4240 1.094
87.4543 1.198
87.4845 1.406
87.5148 0.937
87.5451 1.250
87.5754 0.990
87.6057 1.615
87.6359 1.510
87.6662 1.615
87.6965 1.354
87.7268 1.146
87.7571 1.146
87.7873 1.250
87.8176 1.198
87.8479 1.250
87.8782 0.885
87.9084 1.458
87.9387 1.667
87.9690 1.510
87.9993 1.250
88.0296 1.510
88.0598 1.667
88.0901 1.198
88.1204 1.510
88.1507 1.094
88.1810 1.510
88.2112 1.615
88.2415 1.458
88.2718 1.719
88.3021 1.615
88.3323 1.250
88.3626 1.354
88.3929 1.198
88.4232 1.094
88.4535 1.719
88.4837 1.458
88.5140 1.198
88.5443 1.198
88.5746 1.667
88.6049 1.406
88.6351 1.458
88.6654 1.406
88.6957 1.354
88.7260 1.875
88.7562 1.979
88.7865 1.667
88.8168 1.875
88.8471 1.510
88.8774 1.979
88.9076 1.667
88.9379 2.083
88.9682 1.615
88.9985 1.927
89.0288 1.979
89.0590 2.135
89.0893 2.031
89.1196 2.448
89.1499 2.083
89.1801 2.552
89.2104 2.344
89.2407 1.562
89.2710 2.500
89.3013 2.812
89.3315 2.448
89.3618 2.656
89.3921 2.135
89.4224 2.917
89.4527 1.302
89.4829 2.708
89.5132 2.187
89.5435 2.656
89.5738 2.344
89.6040 1.667
89.6343 1.875
89.6646 2.552
89.6949 2.344
89.7252 1.771
89.7554 2.135
89.7857 2.344
89.8160 1.667
89.8463 1.979
89.8766 1.927
89.9068 1.771
89.9371 1.667
89.9674 1.302
89.9977 1.771
90.0279 1.302
90.0582 1.458
90.0885 1.354
90.1188 1.875
90.1491 1.250
90.1793 1.406
90.2096 1.510
90.2399 1.562
90.2702 1.510
90.3005 1.198
90.3307 1.250
90.3610 1.146
90.3913 1.094
90.4216 1.198
90.4518 1.198
90.4821 1.302
90.5124 1.406
90.5427 1.510
90.5730 1.667
90.6032 1.615
90.6335 1.510
90.6638 0.990
90.6941 1.302
90.7244 1.458
90.7546 1.250
90.7849 1.354
90.8152 0.885
90.8455 1.198
90.8758 1.562
90.9060 1.146
90.9363 1.302
90.9666 1.406
90.9969 1.094
91.0271 1.198
91.0574 2.031
91.0877 1.458
91.1180 1.510
91.1483 1.823
91.1785 1.667
91.2088 1.927
91.2391 1.354
91.2694 1.667
91.2997 0.990
91.3299 1.667
91.3602 1.615
91.3905 1.823
91.4208 1.562
91.4510 1.042
91.4813 1.146
91.5116 1.562
91.5419 1.302
91.5722 1.562
91.6024 0.937
91.6327 1.302
91.6630 1.198
91.6933 1.250
91.7236 1.406
91.7538 1.198
91.7841 1.094
91.8144 1.510
91.8447 1.354
91.8749 1.146
91.9052 1.250
91.9355 1.250
91.9658 1.823
91.9961 1.302
92.0263 1.198
92.0566 1.458
92.0869 1.667
92.1172 1.302
92.1475 1.771
92.1777 0.990
92.2080 1.615
92.2383 1.719
92.2686 1.562
92.2988 1.458
92.3291 1.458
92.3594 1.198
92.3897 1.510
92.4200 1.927
92.4502 1.458
92.4805 1.250
92.5108 1.250
92.5411 2.187
92.5714 1.458
92.6016 1.146
92.6319 1.823
92.6622 1.406
92.6925 1.510
92.7227 1.719
92.7530 1.875
92.7833 1.354
92.8136 1.146
92.8439 1.979
92.8741 1.250
92.9044 1.667
92.9347 1.458
92.9650 1.771
92.9953 2.135
93.0255 1.510
93.0558 1.510
93.0861 1.510
93.1164 1.198
93.1466 1.927
93.1769 1.719
93.2072 1.042
93.2375 1.510
93.2678 1.719
93.2980 1.458
93.3283 1.250
93.3586 1.510
93.3889 1.354
93.4192 1.719
93.4494 1.667
93.4797 1.042
93.5100 1.198
93.5403 1.302
93.5706 1.198
93.6008 1.510
93.6311 1.510
93.6614 1.458
93.6917 1.510
93.7219 1.302
93.7522 1.094
93.7825 1.458
93.8128 1.354
93.8431 1.510
93.8733 1.927
93.9036 1.198
93.9339 1.354
93.9642 1.302
93.9945 1.250
94.0247 1.250
94.0550 1.562
94.0853 1.979
94.1156 0.990
94.1458 1.146
94.1761 1.562
94.2064 1.719
94.2367 1.667
94.2670 1.250
94.2972 1.562
94.3275 1.615
94.3578 1.406
94.3881 2.031
94.4184 1.667
94.4486 1.458
94.4789 1.562
94.5092 1.562
94.5395 1.302
94.5697 1.823
94.6000 1.510
94.6303 1.250
94.6606 1.302
94.6909 1.562
94.7211 2.031
94.7514 1.562
94.7817 2.240
94.8120 1.823
94.8423 2.240
94.8725 2.083
94.9028 1.927
94.9331 1.927
94.9634 1.510
94.9936 2.448
95.0239 1.406
95.0542 1.719
95.0845 2.135
95.1148 2.187
95.1450 1.927
95.1753 1.979
95.2056 2.292
95.2359 1.823
95.2662 1.562
95.2964 2.604
95.3267 2.031
95.3570 1.771
95.3873 2.344
95.4175 1.823
95.4478 1.719
95.4781 1.615
95.5084 2.031
95.5387 1.250
95.5689 1.667
95.5992 1.771
95.6295 1.094
95.6598 1.927
95.6901 1.458
95.7203 1.719
95.7506 1.198
95.7809 1.667
95.8112 1.250
95.8414 1.406
95.8717 1.042
95.9020 1.146
95.9323 1.458
95.9626 1.250
95.9928 1.667
96.0231 0.833
96.0534 1.510
96.0837 0.937
96.1140 1.667
96.1442 1.667
96.1745 1.146
96.2048 1.615
96.2351 1.875
96.2653 1.615
96.2956 1.250
96.3259 1.354
96.3562 1.354
96.3865 1.146
96.4167 1.615
96.4470 1.354
96.4773 1.510
96.5076 1.771
96.5379 1.562
96.5681 0.937
96.5984 1.510
96.6287 1.302
96.6590 1.146
96.6893 1.771
96.7195 1.927
96.7498 1.510
96.7801 1.719
96.8104 1.771
96.8406 1.771
96.8709 1.406
96.9012 1.615
96.9315 2.031
96.9618 1.719
96.9920 1.562
97.0223 2.031
97.0526 1.615
97.0829 1.510
97.1132 1.771
97.1434 1.615
97.1737 1.667
97.2040 1.823
97.2343 1.615
97.2645 1.354
97.2948 1.510
97.3251 1.406
97.3554 1.510
97.3857 1.615
97.4159 1.562
97.4462 1.250
97.4765 1.927
97.5068 1.667
97.5371 1.771
97.5673 2.240
97.5976 1.615
97.6279 1.615
97.6582 1.771
97.6884 1.771
97.7187 1.302
97.7490 1.406
97.7793 1.250
97.8096 1.406
97.8398 1.510
97.8701 1.042
97.9004 1.562
97.9307 1.979
97.9610 2.031
97.9912 1.667
98.0215 2.187
98.0518 1.615
98.0821 1.615
98.1123 1.771
98.1426 1.771
98.1729 2.396
98.2032 1.875
98.2335 1.510
98.2637 1.406
98.2940 1.875
98.3243 1.510
98.3546 1.667
98.3849 1.823
98.4151 2.083
98.4454 1.927
98.4757 2.083
98.5060 1.719
98.5362 1.771
98.5665 1.771
98.5968 1.719
98.6271 2.135
98.6574 2.135
98.6876 1.562
98.7179 1.979
98.7482 1.927
98.7785 1.771
98.8088 1.250
98.8390 1.927
98.8693 1.719
98.8996 1.510
98.9299 1.823
98.9601 1.823
98.9904 1.406
99.0207 1.302
99.0510 1.979
99.0813 1.354
99.1115 1.667
99.1418 1.354
99.1721 0.781
99.2024 1.146
99.2327 0.990
99.2629 1.667
99.2932 1.875
99.3235 1.198
99.3538 1.302
99.3841 1.250
99.4143 1.198
99.4446 1.146
99.4749 1.510
99.5052 1.406
99.5354 1.458
99.5657 1.042
99.5960 0.937
99.6263 2.135
99.6566 1.562
99.6868 0.937
99.7171 1.198
99.7474 1.302
99.7777 1.354
99.8080 1.250
99.8382 1.406
99.8685 0.781
99.8988 1.094
99.9291 1.302
99.9593 1.562
99.9896 1.250
100.0199 1.042
100.0502 1.302
100.0805 1.406
100.1107 1.198
100.1410 1.302
100.1713 1.198
100.2016 0.885
100.2319 1.406
100.2621 1.146
100.2924 1.042
100.3227 1.354
100.3530 1.406
100.3832 1.615
100.4135 1.615
100.4438 0.990
100.4741 1.458
100.5044 1.094
100.5346 0.990
100.5649 1.562
100.5952 1.250
100.6255 1.250
100.6558 1.771
100.6860 1.406
100.7163 1.302
100.7466 0.990
100.7769 1.094
100.8071 1.562
100.8374 1.146
100.8677 1.302
100.8980 1.719
100.9283 0.990
100.9585 1.146
100.9888 1.562
101.0191 1.302
101.0494 1.562
101.0797 1.406
101.1099 1.615
101.1402 0.781
101.1705 1.042
101.2008 1.354
101.2310 1.406
101.2613 1.354
101.2916 1.667
101.3219 1.250
101.3522 1.146
101.3824 1.250
101.4127 1.146
101.4430 1.354
101.4733 1.771
101.5036 1.354
101.5338 1.771
101.5641 1.302
101.5944 1.354
101.6247 1.927
101.6549 1.562
101.6852 1.510
101.7155 1.719
101.7458 0.937
101.7761 2.187
101.8063 1.771
101.8366 1.719
101.8669 1.510
101.8972 1.510
101.9275 1.927
101.9577 1.198
101.9880 1.354
102.0183 1.198
102.0486 1.562
102.0788 1.250
102.1091 1.562
102.1394 1.354
102.1697 1.875
102.2000 1.771
102.2302 1.562
102.2605 1.667
102.2908 2.031
102.3211 1.823
102.3514 1.510
102.3816 1.719
102.4119 1.094
102.4422 1.510
102.4725 2.240
102.5028 1.406
102.5330 1.354
102.5633 1.406
102.5936 1.510
102.6239 2.187
102.6541 1.406
102.6844 1.406
102.7147 1.458
102.7450 1.979
102.7753 1.510
102.8055 1.146
102.8358 2.135
102.8661 2.187
102.8964 1.771
102.9267 1.458
102.9569 1.927
102.9872 1.458
103.0175 1.354
103.0478 1.667
103.0780 1.927
103.1083 1.042
103.1386 2.135
103.1689 1.823
103.1992 1.510
103.2294 1.354
103.2597 1.927
103.2900 1.146
103.3203 1.771
103.3506 1.927
103.3808 1.615
103.4111 1.146
103.4414 1.771
103.4717 1.354
103.5019 1.875
103.5322 1.354
103.5625 1.510
103.5928 2.031
103.6231 1.875
103.6533 1.406
103.6836 2.083
103.7139 1.510
103.7442 2.083
103.7745 1.354
103.8047 1.771
103.8350 1.354
103.8653 1.979
103.8956 1.667
103.9258 1.302
103.9561 1.667
103.9864 1.927
104.0167 1.562
104.0470 1.302
104.0772 1.198
104.1075 1.510
104.1378 1.771
104.1681 1.354
104.1984 1.354
104.2286 1.406
104.2589 1.719
104.2892 1.406
104.3195 1.667
104.3497 1.146
104.3800 1.823
104.4103 1.667
104.4406 1.562
104.4709 1.771
104.5011 1.302
104.5314 1.562
104.5617 1.198
104.5920 1.458
104.6223 1.719
104.6525 1.094
104.6828 1.198
104.7131 1.146
104.7434 1.250
104.7736 1.094
104.8039 1.198
104.8342 1.458
104.8645 1.458
104.8948 1.406
104.9250 1.562
104.9553 1.198
104.9856 1.042
105.0159 1.302
105.0462 1.042
105.0764 1.667
105.1067 1.458
105.1370 1.667
105.1673 1.615
105.1975 1.198
105.2278 1.562
105.2581 0.937
105.2884 1.927
105.3187 1.302
105.3489 1.406
105.3792 1.094
105.4095 1.406
105.4398 1.406
105.4701 1.250
105.5003 1.198
105.5306 1.458
105.5609 1.771
105.5912 1.667
105.6215 1.406
105.6517 1.198
105.6820 1.250
105.7123 1.302
105.7426 1.458
105.7728 1.354
105.8031 1.146
105.8334 1.354
105.8637 1.302
105.8940 1.458
105.9242 1.458
105.9545 1.510
105.9848 1.146
106.0151 1.406
106.0454 1.562
106.0756 1.667
106.1059 1.406
106.1362 1.354
106.1665 0.729
106.1967 1.458
106.2270 1.458
106.2573 1.094
106.2876 1.042
106.3179 0.937
106.3481 1.146
106.3784 1.146
106.4087 1.250
106.4390 1.146
106.4693 1.042
106.4995 1.667
106.5298 1.042
106.5601 1.823
106.5904 1.302
106.6206 1.510
106.6509 1.979
106.6812 1.302
106.7115 1.458
106.7418 1.198
106.7720 1.667
106.8023 1.042
106.8326 1.458
106.8629 1.042
106.8932 1.198
106.9234 1.094
106.9537 1.615
106.9840 1.458
107.0143 1.667
107.0445 1.510
107.0748 1.146
107.1051 1.458
107.1354 1.771
107.1657 1.667
107.1959 0.625
107.2262 1.510
107.2565 1.146
107.2868 1.510
107.3171 1.458
107.3473 1.042
107.3776 0.937
107.4079 1.250
107.4382 1.354
107.4684 1.302
107.4987 1.354
107.5290 1.667
107.5593 1.302
107.5896 1.458
107.6198 1.354
107.6501 1.458
107.6804 1.094
107.7107 1.146
107.7410 1.406
107.7712 1.510
107.8015 1.146
107.8318 1.562
107.8621 1.510
107.8923 1.146
107.9226 1.510
107.9529 1.510
107.9832 1.354
108.0135 1.302
108.0437 1.510
108.0740 1.458
108.1043 1.667
108.1346 2.135
108.1649 0.833
108.1951 2.083
108.2254 1.771
108.2557 1.042
108.2860 1.510
108.3163 1.562
108.3465 1.927
108.3768 1.510
108.4071 1.823
108.4374 1.615
108.4676 1.667
108.4979 1.510
108.5282 1.510
108.5585 1.146
108.5888 1.198
108.6190 1.354
108.6493 2.031
108.6796 1.458
108.7099 1.510
108.7402 1.562
108.7704 1.302
108.8007 1.354
108.8310 1.094
108.8613 1.198
108.8915 1.510
108.9218 1.667
108.9521 1.458
108.9824 1.510
109.0127 1.615
109.0429 1.406
109.0732 1.250
109.1035 1.354
109.1338 1.771
109.1641 1.354
109.1943 1.094
109.2246 1.198
109.2549 1.562
109.2852 1.042
109.3154 1.875
109.3457 1.094
109.3760 1.458
109.4063 2.135
109.4366 1.562
109.4668 1.042
109.4971 1.146
109.5274 1.927
109.5577 1.562
109.5880 1.406
109.6182 1.302
109.6485 1.250
109.6788 1.719
109.7091 1.302
109.7393 2.031
109.7696 2.031
109.7999 2.396
109.8302 1.302
109.8605 1.458
109.8907 1.302
109.9210 1.875
109.9513 2.031
109.9816 1.406
110.0119 1.250
110.0421 1.354
110.0724 1.458
110.1027 1.562
110.1330 1.354
110.1632 1.615
110.1935 1.719
110.2238 2.135
110.2541 1.510
110.2844 1.615
110.3146 1.354
110.3449 1.667
110.3752 1.979
110.4055 2.031
110.4358 1.927
110.4660 1.406
110.4963 2.083
110.5266 1.250
110.5569 1.354
110.5871 1.146
110.6174 1.510
110.6477 1.615
110.6780 1.302
110.7083 1.771
110.7385 1.302
110.7688 1.354
110.7991 1.198
110.8294 1.615
110.8597 1.719
110.8899 1.458
110.9202 1.615
110.9505 1.146
110.9808 1.458
111.0110 1.406
111.0413 0.937
111.0716 1.927
111.1019 1.562
111.1322 1.615
111.1624 1.458
111.1927 1.562
111.2230 1.354
111.2533 1.406
111.2836 1.510
111.3138 0.937
111.3441 0.990
111.3744 1.302
111.4047 1.354
111.4350 1.198
111.4652 1.562
111.4955 1.406
111.5258 0.833
111.5561 1.406
111.5863 1.250
111.6166 1.302
111.6469 1.094
111.6772 0.937
111.7075 0.990
111.7377 1.823
111.7680 1.302
111.7983 1.510
111.8286 1.458
111.8589 0.885
111.8891 1.667
111.9194 1.667
111.9497 1.510
111.9800 1.250
112.0102 1.406
112.0405 1.458
112.0708 1.354
112.1011 1.250
112.1314 1.458
112.1616 1.510
112.1919 1.354
112.2222 1.042
112.2525 1.458
112.2828 0.990
112.3130 1.146
112.3433 0.990
112.3736 1.458
112.4039 1.406
112.4341 1.458
112.4644 0.990
112.4947 1.146
112.5250 1.042
112.5553 1.406
112.5855 1.198
112.6158 2.135
112.6461 1.198
112.6764 1.250
112.7067 1.198
112.7369 1.406
112.7672 1.042
112.7975 1.198
112.8278 1.719
112.8580 1.667
112.8883 1.719
112.9186 1.406
112.9489 1.042
112.9792 1.719
113.0094 1.719
113.0397 1.198
113.0700 1.042
113.1003 1.354
113.1306 1.458
113.1608 1.094
113.1911 1.094
113.2214 1.667
113.2517 1.250
113.2819 1.302
113.3122 0.990
113.3425 1.406
113.3728 1.146
113.4031 1.458
113.4333 1.198
113.4636 1.771
113.4939 1.198
113.5242 1.146
113.5545 1.302
113.5847 0.885
113.6150 1.771
113.6453 1.354
113.6756 1.510
113.7058 1.406
113.7361 1.458
113.7664 1.562
113.7967 2.083
113.8270 1.302
113.8572 1.510
113.8875 1.198
113.9178 0.885
113.9481 1.771
113.9784 1.198
114.0086 1.458
114.0389 1.406
114.0692 1.302
114.0995 1.198
114.1298 1.771
114.1600 1.094
114.1903 1.510
114.2206 1.094
114.2509 1.458
114.2811 1.667
114.3114 1.979
114.3417 1.823
114.3720 1.302
114.4023 1.458
114.4325 1.615
114.4628 1.406
114.4931 1.198
114.5234 1.094
114.5537 1.146
114.5839 1.719
114.6142 1.198
114.6445 1.771
114.6748 1.823
114.7050 0.937
114.7353 1.354
114.7656 1.510
114.7959 2.031
114.8262 1.615
114.8564 1.719
114.8867 1.719
114.9170 1.458
114.9473 1.615
114.9776 1.823
115.0078 1.406
115.0381 1.823
115.0684 1.094
115.0987 1.302
115.1289 1.094
115.1592 1.510
115.1895 1.198
115.2198 1.094
115.2501 1.510
115.2803 1.979
115.3106 2.083
115.3409 1.562
115.3712 1.354
115.4015 1.615
115.4317 1.510
115.4620 1.406
115.4923 1.354
115.5226 2.031
115.5528 1.875
115.5831 1.354
115.6134 1.823
115.6437 1.875
115.6740 2.031
115.7042 1.615
115.7345 1.719
115.7648 1.771
115.7951 1.875
115.8254 2.240
115.8556 2.292
115.8859 1.927
115.9162 1.615
115.9465 2.656
115.9767 1.615
116.0070 2.396
116.0373 2.031
116.0676 2.969
116.0979 2.031
116.1281 1.979
116.1584 2.135
116.1887 2.396
116.2190 2.448
116.2493 1.875
116.2795 2.656
116.3098 1.875
116.3401 2.083
116.3704 2.135
116.4006 2.396
116.4309 2.344
116.4612 1.927
116.4915 1.927
116.5218 2.292
116.5520 1.510
116.5823 2.187
116.6126 1.719
116.6429 2.292
116.6732 1.979
116.7034 2.031
116.7337 1.875
116.7640 2.292
116.7943 1.510
116.8245 1.562
116.8548 1.979
116.8851 1.667
116.9154 1.615
116.9457 1.510
116.9759 1.302
117.0062 1.406
117.0365 1.719
117.0668 1.667
117.0971 1.979
117.1273 1.198
117.1576 2.187
117.1879 1.667
117.2182 1.510
117.2485 1.771
117.2787 1.302
117.3090 1.562
117.3393 1.979
117.3696 1.979
117.3998 1.562
117.4301 1.719
117.4604 1.667
117.4907 1.198
117.5210 2.031
117.5512 1.875
117.5815 2.240
117.6118 1.875
117.6421 1.823
117.6724 1.354
117.7026 1.615
117.7329 1.823
117.7632 1.510
117.7935 1.406
117.8237 1.615
117.8540 1.979
117.8843 1.771
117.9146 1.562
117.9449 2.031
117.9751 1.510
118.0054 1.875
118.0357 1.615
118.0660 1.146
118.0963 1.771
118.1265 1.562
118.1568 1.771
118.1871 1.458
118.2174 1.302
118.2476 1.302
118.2779 1.823
118.3082 2.083
118.3385 1.146
118.3688 1.354
118.3990 1.354
118.4293 2.031
118.4596 1.458
118.4899 1.302
118.5202 1.354
118.5504 1.302
118.5807 1.354
118.6110 1.562
118.6413 1.094
118.6715 1.510
118.7018 1.823
118.7321 1.146
118.7624 1.719
118.7927 1.094
118.8229 1.719
118.8532 1.406
118.8835 1.667
118.9138 1.562
118.9441 1.146
118.9743 1.719
119.0046 1.406
119.0349 1.042
119.0652 1.562
119.0954 1.562
119.1257 1.198
119.1560 1.302
119.1863 1.510
119.2166 1.250
119.2468 1.458
119.2771 1.250
119.3074 1.823
119.3377 1.562
119.3680 1.719
119.3982 1.406
119.4285 1.354
119.4588 1.510
119.4891 1.823
119.5193 0.937
119.5496 1.458
119.5799 1.719
119.6102 1.302
119.6405 1.406
119.6707 1.354
119.7010 1.250
119.7313 1.146
119.7616 1.510
119.7919 1.719
119.8221 1.302
119.8524 1.406
119.8827 1.667
119.9130 1.302
119.9433 1.667
119.9735 1.615
120.0038 1.510
