'Id: "" Comment: "" Operator: "Lab Manager" Anode: "Cu" Scantype: "Locked Coupled" TimePerStep: "19.2" X: "9999" Y: "9999" Z: "9999" 
10.0015 3.385
10.0318 4.271
10.0620 4.271
10.0923 4.531
10.1226 4.323
10.1529 4.583
10.1832 4.740
10.2134 3.698
10.2437 4.219
10.2740 3.906
10.3043 4.219
10.3346 4.948
10.3648 4.115
10.3951 4.271
10.4254 4.115
10.4557 3.646
10.4859 3.854
10.5162 4.531
10.5465 3.490
10.5768 4.896
10.6071 4.271
10.6373 4.583
10.6676 4.167
10.6979 4.583
10.7282 4.062
10.7585 4.479
10.7887 4.583
10.8190 5.312
10.8493 5.573
10.8796 5.260
10.9098 5.625
10.9401 7.396
10.9704 7.865
11.0007 10.312
11.0310 10.104
11.0612 10.260
11.0915 10.260
11.1218 9.531
11.1521 7.812
11.1824 6.875
11.2126 6.146
11.2429 6.146
11.2732 4.792
11.3035 5.781
11.3337 4.740
11.3640 4.948
11.3943 5.052
11.4246 4.219
11.4549 4.427
11.4851 4.479
11.5154 3.958
11.5457 3.542
11.5760 4.167
11.6063 3.437
11.6365 4.010
11.6668 4.635
11.6971 3.646
11.7274 3.281
11.7577 4.062
11.7879 3.906
11.8182 3.542
11.8485 3.542
11.8788 4.375
11.9090 2.969
11.9393 2.448
11.9696 3.646
11.9999 3.958
12.0302 3.646
12.0604 3.490
12.0907 3.437
12.1210 4.375
12.1513 3.542
12.1816 3.802
12.2118 3.646
12.2421 3.698
12.2724 4.062
12.3027 3.906
12.3329 3.021
12.3632 3.125
12.3935 2.500
12.4238 3.698
12.4541 3.594
12.4843 3.802
12.5146 3.437
12.5449 4.323
12.5752 3.542
12.6055 3.490
12.6357 2.656
12.6660 3.229
12.6963 2.708
12.7266 3.281
12.7568 3.125
12.7871 3.333
12.8174 2.604
12.8477 3.281
12.8780 3.802
12.9082 3.229
12.9385 3.542
12.9688 3.229
12.9991 2.708
13.0294 2.552
13.0596 2.240
13.0899 3.594
13.1202 2.552
13.1505 3.177
13.1807 2.917
13.2110 2.865
13.2413 3.594
13.2716 2.969
13.3019 3.229
13.3321 3.333
13.3624 3.177
13.3927 3.073
13.4230 2.865
13.4533 2.812
13.4835 3.125
13.5138 2.604
13.5441 2.969
13.5744 3.281
13.6046 3.125
13.6349 3.229
13.6652 3.021
13.6955 3.385
13.7258 2.656
13.7560 2.760
13.7863 2.292
13.8166 2.969
13.8469 3.281
13.8772 2.708
13.9074 3.437
13.9377 2.812
13.9680 3.437
13.9983 3.646
14.0285 2.917
14.0588 2.500
14.0891 3.073
14.1194 2.917
14.1497 2.865
14.1799 2.917
14.2102 3.281
14.2405 2.292
14.2708 2.917
14.3011 3.281
14.3313 3.125
14.3616 3.542
14.3919 3.073
14.4222 2.604
14.4524 2.917
14.4827 3.125
14.5130 2.917
14.5433 3.021
14.5736 2.604
14.6038 2.187
14.6341 3.333
14.6644 1.875
14.6947 2.552
14.7250 2.292
14.7552 2.604
14.7855 3.177
14.8158 1.979
14.8461 2.396
14.8764 3.073
14.9066 2.917
14.9369 3.073
14.9672 1.771
14.9975 2.812
15.0277 2.708
15.0580 2.552
15.0883 3.229
15.1186 3.437
15.1489 2.656
15.1791 2.969
15.2094 2.604
15.2397 2.552
15.2700 3.333
15.3003 3.021
15.3305 2.344
15.3608 2.969
15.3911 2.292
15.4214 2.708
15.4516 2.448
15.4819 2.500
15.5122 3.333
15.5425 2.760
15.5728 2.604
15.6030 3.021
15.6333 2.292
15.6636 3.021
15.6939 2.604
15.7242 3.333
15.7544 2.187
15.7847 3.021
15.8150 2.604
15.8453 2.344
15.8755 2.604
15.9058 2.552
15.9361 2.656
15.9664 3.021
15.9967 3.802
16.0269 2.552
16.0572 3.073
16.0875 2.396
16.1178 2.604
16.1481 2.812
16.1783 2.448
16.2086 2.708
16.2389 2.917
16.2692 2.656
16.2994 3.385
16.3297 3.177
16.3600 2.135
16.3903 2.865
16.4206 2.917
16.4508 2.604
16.4811 2.396
16.5114 2.604
16.5417 2.187
16.5720 2.604
16.6022 3.281
16.6325 2.760
16.6628 1.823
16.6931 2.812
16.7233 2.604
16.7536 2.552
16.7839 1.615
16.8142 2.344
16.8445 2.292
16.8747 2.448
16.9050 3.490
16.9353 2.865
16.9656 2.604
16.9959 2.604
17.0261 2.135
17.0564 2.760
17.0867 2.240
17.1170 3.229
17.1472 2.708
17.1775 3.490
17.2078 3.542
17.2381 2.760
17.2684 2.187
17.2986 2.917
17.3289 2.604
17.3592 3.281
17.3895 2.708
17.4198 2.656
17.4500 2.552
17.4803 3.177
17.5106 2.292
17.5409 2.500
17.5712 2.344
17.6014 2.292
17.6317 2.187
17.6620 2.083
17.6923 2.240
17.7225 2.917
17.7528 3.229
17.7831 2.812
17.8134 2.083
17.8437 2.240
17.8739 2.187
17.9042 2.760
17.9345 2.083
17.9648 2.500
17.9951 2.292
18.0253 2.240
18.0556 1.719
18.0859 2.812
18.1162 2.760
18.1464 2.969
18.1767 2.708
18.2070 2.396
18.2373 2.448
18.2676 2.500
18.2978 3.021
18.3281 2.292
18.3584 2.812
18.3887 2.552
18.4190 2.135
18.4492 2.448
18.4795 2.135
18.5098 2.656
18.5401 2.187
18.5703 3.021
18.6006 2.812
18.6309 2.292
18.6612 2.812
18.6915 2.552
18.7217 2.604
18.7520 2.240
18.7823 2.031
18.8126 2.396
18.8429 2.552
18.8731 2.292
18.9034 2.187
18.9337 2.083
18.9640 2.708
18.9942 2.187
19.0245 2.344
19.0548 2.656
19.0851 2.500
19.1154 2.552
19.1456 2.604
19.1759 2.604
19.2062 2.135
19.2365 1.875
19.2668 2.448
19.2970 2.031
19.3273 2.604
19.3576 2.344
19.3879 2.240
19.4181 2.865
19.4484 2.187
19.4787 2.344
19.5090 2.708
19.5393 2.240
19.5695 2.448
19.5998 2.448
19.6301 3.021
19.6604 2.812
19.6907 2.083
19.7209 2.187
19.7512 2.031
19.7815 2.500
19.8118 2.552
19.8420 2.135
19.8723 1.719
19.9026 2.240
19.9329 2.708
19.9632 2.812
19.9934 2.031
20.0237 2.344
20.0540 2.500
20.0843 2.969
20.1146 2.031
20.1448 2.344
20.1751 2.344
20.2054 2.448
20.2357 1.875
20.2659 2.031
20.2962 1.562
20.3265 2.760
20.3568 3.542
20.3871 2.760
20.4173 2.708
20.4476 2.969
20.4779 2.500
20.5082 2.396
20.5385 2.187
20.5687 2.656
20.5990 1.979
20.6293 2.812
20.6596 2.187
20.6899 1.875
20.7201 2.396
20.7504 2.656
20.7807 2.865
20.8110 1.875
20.8412 2.448
20.8715 1.823
20.9018 2.135
20.9321 2.604
20.9624 2.500
20.9926 3.229
21.0229 2.135
21.0532 2.135
21.0835 2.031
21.1138 3.125
21.1440 1.875
21.1743 2.292
21.2046 2.135
21.2349 2.552
21.2651 2.240
21.2954 2.396
21.3257 2.396
21.3560 2.760
21.3863 2.031
21.4165 2.135
21.4468 1.979
21.4771 1.875
21.5074 2.708
21.5377 2.708
21.5679 2.240
21.5982 2.865
21.6285 1.875
21.6588 1.979
21.6890 2.031
21.7193 2.135
21.7496 2.708
21.7799 1.771
21.8102 2.240
21.8404 2.187
21.8707 1.719
21.9010 1.510
21.9313 2.292
21.9616 2.031
21.9918 2.396
22.0221 2.448
22.0524 2.135
22.0827 2.083
22.1129 1.927
22.1432 1.927
22.1735 1.927
22.2038 2.396
22.2341 2.031
22.2643 1.562
22.2946 3.229
22.3249 2.240
22.3552 2.448
22.3855 2.656
22.4157 2.083
22.4460 2.031
22.4763 2.292
22.5066 2.552
22.5368 2.083
22.5671 2.083
22.5974 2.708
22.6277 2.031
22.6580 2.187
22.6882 2.031
22.7185 2.083
22.7488 2.396
22.7791 2.135
22.8094 2.187
22.8396 2.344
22.8699 2.344
22.9002 2.187
22.9305 2.083
22.9607 2.396
22.9910 1.979
23.0213 1.823
23.0516 2.396
23.0819 2.448
23.1121 2.656
23.1424 2.344
23.1727 2.396
23.2030 2.604
23.2333 2.135
23.2635 2.135
23.2938 2.448
23.3241 2.708
23.3544 2.708
23.3846 2.187
23.4149 1.615
23.4452 2.812
23.4755 1.458
23.5058 2.083
23.5360 2.240
23.5663 1.823
23.5966 2.292
23.6269 2.344
23.6572 1.562
23.6874 1.771
23.7177 2.187
23.7480 2.292
23.7783 1.875
23.8086 2.396
23.8388 2.083
23.8691 1.875
23.8994 2.292
23.9297 2.604
23.9599 2.083
23.9902 2.135
24.0205 1.771
24.0508 2.344
24.0811 2.344
24.1113 2.552
24.1416 1.927
24.1719 2.083
24.2022 1.823
24.2325 1.979
24.2627 1.927
24.2930 2.031
24.3233 1.979
24.3536 2.031
24.3838 2.760
24.4141 2.552
24.4444 2.604
24.4747 2.292
24.5050 1.354
24.5352 2.500
24.5655 1.771
24.5958 1.823
24.6261 1.979
24.6564 1.771
24.6866 2.552
24.7169 2.031
24.7472 1.562
24.7775 1.875
24.8077 2.135
24.8380 3.177
24.8683 2.187
24.8986 2.083
24.9289 1.979
24.9591 1.615
24.9894 1.406
25.0197 1.667
25.0500 1.771
25.0803 2.135
25.1105 1.823
25.1408 2.552
25.1711 1.875
25.2014 1.875
25.2316 2.240
25.2619 1.615
25.2922 2.240
25.3225 1.979
25.3528 2.083
25.3830 1.406
25.4133 1.771
25.4436 1.927
25.4739 1.562
25.5042 1.979
25.5344 2.083
25.5647 2.031
25.5950 2.083
25.6253 2.031
25.6555 2.240
25.6858 1.667
25.7161 2.031
25.7464 1.875
25.7767 2.448
25.8069 2.135
25.8372 2.187
25.8675 2.500
25.8978 2.135
25.9281 1.615
25.9583 2.292
25.9886 1.667
26.0189 2.396
26.0492 2.240
26.0794 1.406
26.1097 1.875
26.1400 2.344
26.1703 1.719
26.2006 1.927
26.2308 1.875
26.2611 2.552
26.2914 1.719
26.3217 1.979
26.3520 1.927
26.3822 2.656
26.4125 2.187
26.4428 1.719
26.4731 2.448
26.5034 1.875
26.5336 2.344
26.5639 2.708
26.5942 2.760
26.6245 2.344
26.6547 1.719
26.6850 1.771
26.7153 2.187
26.7456 2.292
26.7759 2.865
26.8061 2.396
26.8364 1.927
26.8667 2.344
26.8970 1.719
26.9273 1.875
26.9575 2.448
26.9878 1.823
27.0181 2.604
27.0484 2.448
27.0786 2.448
27.1089 2.708
27.1392 2.552
27.1695 2.240
27.1998 1.927
27.2300 2.917
27.2603 1.771
27.2906 2.604
27.3209 2.604
27.3512 1.771
27.3814 2.552
27.4117 2.500
27.4420 2.344
27.4723 2.135
27.5025 2.604
27.5328 2.552
27.5631 2.292
27.5934 2.552
27.6237 2.656
27.6539 2.240
27.6842 1.615
27.7145 2.344
27.7448 2.135
27.7751 3.229
27.8053 2.448
27.8356 2.083
27.8659 2.760
27.8962 2.135
27.9264 2.396
27.9567 2.500
27.9870 2.760
28.0173 2.604
28.0476 2.812
28.0778 2.656
28.1081 3.177
28.1384 3.750
28.1687 2.708
28.1990 2.396
28.2292 2.396
28.2595 2.187
28.2898 2.344
28.3201 1.719
28.3503 2.292
28.3806 2.240
28.4109 2.656
28.4412 2.708
28.4715 1.875
28.5017 2.500
28.5320 1.823
28.5623 2.500
28.5926 2.344
28.6229 2.083
28.6531 2.865
28.6834 2.083
28.7137 2.396
28.7440 2.552
28.7742 2.500
28.8045 2.500
28.8348 2.656
28.8651 2.187
28.8954 2.187
28.9256 2.240
28.9559 3.437
28.9862 1.927
29.0165 2.240
29.0468 2.708
29.0770 2.865
29.1073 2.344
29.1376 1.979
29.1679 2.500
29.1981 2.500
29.2284 2.760
29.2587 2.135
29.2890 1.875
29.3193 2.708
29.3495 2.812
29.3798 2.292
29.4101 3.437
29.4404 3.646
29.4707 2.604
29.5009 3.177
29.5312 3.646
29.5615 2.604
29.5918 2.552
29.6221 1.510
29.6523 2.135
29.6826 2.604
29.7129 2.969
29.7432 2.448
29.7734 2.604
29.8037 2.812
29.8340 2.552
29.8643 2.865
29.8946 2.812
29.9248 3.385
29.9551 3.073
29.9854 3.021
30.0157 2.760
30.0460 3.073
30.0762 3.437
30.1065 3.229
30.1368 3.229
30.1671 3.177
30.1973 3.229
30.2276 3.542
30.2579 3.490
30.2882 3.750
30.3185 3.281
30.3487 3.385
30.3790 2.917
30.4093 3.854
30.4396 4.167
30.4699 3.750
30.5001 3.594
30.5304 3.073
30.5607 4.062
30.5910 3.437
30.6212 4.948
30.6515 4.115
30.6818 3.750
30.7121 4.219
30.7424 4.948
30.7726 4.687
30.8029 4.844
30.8332 4.323
30.8635 4.635
30.8938 5.885
30.9240 5.781
30.9543 6.198
30.9846 5.729
31.0149 5.365
31.0451 7.552
31.0754 6.979
31.1057 7.500
31.1360 7.812
31.1663 8.073
31.1965 8.490
31.2268 10.677
31.2571 10.208
31.2874 12.292
31.3177 13.021
31.3479 15.833
31.3782 15.937
31.4085 18.073
31.4388 22.969
31.4690 25.625
31.4993 28.906
31.5296 33.542
31.5599 35.833
31.5902 37.135
31.6204 40.885
31.6507 42.708
31.6810 39.115
31.7113 38.490
31.7416 31.094
31.7718 27.812
31.8021 21.667
31.8324 21.198
31.8627 17.656
31.8929 16.354
31.9232 13.958
31.9535 12.500
31.9838 11.823
32.0141 9.167
32.0443 10.000
32.0746 7.448
32.1049 7.500
32.1352 7.812
32.1655 6.979
32.1957 5.625
32.2260 6.094
32.2563 7.917
32.2866 5.990
32.3169 6.250
32.3471 4.687
32.3774 4.635
32.4077 4.844
32.4380 4.740
32.4682 3.490
32.4985 4.948
32.5288 4.115
32.5591 3.906
32.5894 3.698
32.6196 4.115
32.6499 4.167
32.6802 4.375
32.7105 4.583
32.7408 4.531
32.7710 3.646
32.8013 3.385
32.8316 3.646
32.8619 4.479
32.8921 3.594
32.9224 4.010
32.9527 3.750
32.9830 4.427
33.0133 3.594
33.0435 3.802
33.0738 3.906
33.1041 4.115
33.1344 4.115
33.1647 3.698
33.1949 4.323
33.2252 3.542
33.2555 3.906
33.2858 4.062
33.3160 3.385
33.3463 4.479
33.3766 3.750
33.4069 4.010
33.4372 4.010
33.4674 4.427
33.4977 3.646
33.5280 4.844
33.5583 4.167
33.5886 4.062
33.6188 3.646
33.6491 4.115
33.6794 4.010
33.7097 5.469
33.7399 4.740
33.7702 5.312
33.8005 6.667
33.8308 6.771
33.8611 7.083
33.8913 6.875
33.9216 7.396
33.9519 8.437
33.9822 8.750
34.0125 10.208
34.0427 12.083
34.0730 13.281
34.1033 17.240
34.1336 17.552
34.1638 23.385
34.1941 31.823
34.2244 40.052
34.2547 43.333
34.2850 46.354
34.3152 43.073
34.3455 41.094
34.3758 31.823
34.4061 26.354
34.4364 20.990
34.4666 17.344
34.4969 14.792
34.5272 11.458
34.5575 12.135
34.5877 10.104
34.6180 7.240
34.6483 8.125
34.6786 7.031
34.7089 7.656
34.7391 5.208
34.7694 7.396
34.7997 6.250
34.8300 5.729
34.8603 6.042
34.8905 5.833
34.9208 5.469
34.9511 5.156
34.9814 4.427
35.0116 6.302
35.0419 4.740
35.0722 4.896
35.1025 4.323
35.1328 4.896
35.1630 4.896
35.1933 5.781
35.2236 5.937
35.2539 6.406
35.2842 6.250
35.3144 6.458
35.3447 6.927
35.3750 6.198
35.4053 6.771
35.4356 7.396
35.4658 7.500
35.4961 6.979
35.5264 6.719
35.5567 7.344
35.5869 7.865
35.6172 10.677
35.6475 10.729
35.6778 10.417
35.7081 12.187
35.7383 13.542
35.7686 15.052
35.7989 14.844
35.8292 19.948
35.8595 20.729
35.8897 23.333
35.9200 28.229
35.9503 32.187
35.9806 37.292
36.0108 45.990
36.0411 48.385
36.0714 52.604
36.1017 52.448
36.1320 56.198
36.1622 57.187
36.1925 54.219
36.2228 46.562
36.2531 42.708
36.2834 34.167
36.3136 27.865
36.3439 28.385
36.3742 22.969
36.4045 17.760
36.4347 16.562
36.4650 15.104
36.4953 12.656
36.5256 10.729
36.5559 10.833
36.5861 8.958
36.6164 8.854
36.6467 8.229
36.6770 6.979
36.7073 6.510
36.7375 7.552
36.7678 5.312
36.7981 5.937
36.8284 6.198
36.8586 5.052
36.8889 5.000
36.9192 5.052
36.9495 4.427
36.9798 4.635
37.0100 3.125
37.0403 3.750
37.0706 4.167
37.1009 4.010
37.1312 4.010
37.1614 4.219
37.1917 4.531
37.2220 3.385
37.2523 4.740
37.2825 3.698
37.3128 2.708
37.3431 2.917
37.3734 3.125
37.4037 3.490
37.4339 2.969
37.4642 2.656
37.4945 2.240
37.5248 3.385
37.5551 3.646
37.5853 2.969
37.6156 3.177
37.6459 2.500
37.6762 2.031
37.7064 2.812
37.7367 3.490
37.7670 3.281
37.7973 2.656
37.8276 3.177
37.8578 2.865
37.8881 2.292
37.9184 3.073
37.9487 2.552
37.9790 2.187
38.0092 2.604
38.0395 2.292
38.0698 2.604
38.1001 2.604
38.1304 2.344
38.1606 2.344
38.1909 2.344
38.2212 2.344
38.2515 2.500
38.2817 2.135
38.3120 2.135
38.3423 2.135
38.3726 2.656
38.4029 2.292
38.4331 2.708
38.4634 2.031
38.4937 3.073
38.5240 2.760
38.5543 2.240
38.5845 2.135
38.6148 1.979
38.6451 2.292
38.6754 2.187
38.7056 2.396
38.7359 1.562
38.7662 2.135
38.7965 2.292
38.8268 2.708
38.8570 1.771
38.8873 1.823
38.9176 1.406
38.9479 2.135
38.9782 1.927
39.0084 1.094
39.0387 1.510
39.0690 1.823
39.0993 1.719
39.1295 1.979
39.1598 1.771
39.1901 2.135
39.2204 1.719
39.2507 1.875
39.2809 1.875
39.3112 2.187
39.3415 1.979
39.3718 2.708
39.4021 1.927
39.4323 2.135
39.4626 1.198
39.4929 2.292
39.5232 1.667
39.5534 2.187
39.5837 1.667
39.6140 1.719
39.6443 1.667
39.6746 1.562
39.7048 1.719
39.7351 1.198
39.7654 2.292
39.7957 1.667
39.8260 1.458
39.8562 1.771
39.8865 1.562
39.9168 1.302
39.9471 1.615
39.9773 1.667
40.0076 1.927
40.0379 1.667
40.0682 1.823
40.0985 1.927
40.1287 1.719
40.1590 1.458
40.1893 2.448
40.2196 1.719
40.2499 1.354
40.2801 2.344
40.3104 1.875
40.3407 1.354
40.3710 1.875
40.4012 2.031
40.4315 1.510
40.4618 1.771
40.4921 1.927
40.5224 1.510
40.5526 2.031
40.5829 1.667
40.6132 1.094
40.6435 1.823
40.6738 1.458
40.7040 1.667
40.7343 1.615
40.7646 1.875
40.7949 1.094
40.8251 1.146
40.8554 2.240
40.8857 1.458
40.9160 1.615
40.9463 1.927
40.9765 1.875
41.0068 1.302
41.0371 1.250
41.0674 1.302
41.0977 1.615
41.1279 1.562
41.1582 1.562
41.1885 2.292
41.2188 1.615
41.2491 1.354
41.2793 1.354
41.3096 2.083
41.3399 1.250
41.3702 1.875
41.4004 1.667
41.4307 1.667
41.4610 1.302
41.4913 1.719
41.5216 1.875
41.5518 1.302
41.5821 2.135
41.6124 1.458
41.6427 1.719
41.6730 1.146
41.7032 1.615
41.7335 1.562
41.7638 1.927
41.7941 1.354
41.8243 1.042
41.8546 1.198
41.8849 1.458
41.9152 1.719
41.9455 1.927
41.9757 1.771
42.0060 1.302
42.0363 1.562
42.0666 1.302
42.0969 1.406
42.1271 1.198
42.1574 1.302
42.1877 1.302
42.2180 1.615
42.2482 2.031
42.2785 1.302
42.3088 1.406
42.3391 1.667
42.3694 1.875
42.3996 1.458
42.4299 1.406
42.4602 1.458
42.4905 1.042
42.5208 1.771
42.5510 1.458
42.5813 1.771
42.6116 1.927
42.6419 1.667
42.6721 1.302
42.7024 1.406
42.7327 1.875
42.7630 1.510
42.7933 1.146
42.8235 1.562
42.8538 1.250
42.8841 1.562
42.9144 1.042
42.9447 1.354
42.9749 1.198
43.0052 1.719
43.0355 1.458
43.0658 1.615
43.0960 1.719
43.1263 1.146
43.1566 1.406
43.1869 1.198
43.2172 1.198
43.2474 1.510
43.2777 1.667
43.3080 1.771
43.3383 1.562
43.3686 1.458
43.3988 1.354
43.4291 1.719
43.4594 1.198
43.4897 1.510
43.5199 1.719
43.5502 1.562
43.5805 1.250
43.6108 1.354
43.6411 1.510
43.6713 0.729
43.7016 1.979
43.7319 1.667
43.7622 1.406
43.7925 2.240
43.8227 1.510
43.8530 1.094
43.8833 1.094
43.9136 1.615
43.9439 2.135
43.9741 1.615
44.0044 1.719
44.0347 1.458
44.0650 1.979
44.0952 1.667
44.1255 1.667
44.1558 1.719
44.1861 1.406
44.2164 0.990
44.2466 1.302
44.2769 1.771
44.3072 1.146
44.3375 1.250
44.3678 1.771
44.3980 1.302
44.4283 1.302
44.4586 1.823
44.4889 1.354
44.5191 1.094
44.5494 1.458
44.5797 1.458
44.6100 1.354
44.6403 1.927
44.6705 1.667
44.7008 1.719
44.7311 1.510
44.7614 1.354
44.7917 1.719
44.8219 1.615
44.8522 1.146
44.8825 2.187
44.9128 1.510
44.9430 1.458
44.9733 1.510
45.0036 0.937
45.0339 2.083
45.0642 1.667
45.0944 1.510
45.1247 1.562
45.1550 1.146
45.1853 1.302
45.2156 1.562
45.2458 1.562
45.2761 1.406
45.3064 1.354
45.3367 1.510
45.3669 1.562
45.3972 1.615
45.4275 2.656
45.4578 1.719
45.4881 1.667
45.5183 1.615
45.5486 1.146
45.5789 2.135
45.6092 1.771
45.6395 1.615
45.6697 1.823
45.7000 1.250
45.7303 2.031
45.7606 1.354
45.7908 1.667
45.8211 1.719
45.8514 1.302
45.8817 1.615
45.9120 1.406
45.9422 2.240
45.9725 1.719
46.0028 1.615
46.0331 2.083
46.0634 1.094
46.0936 1.823
46.1239 1.875
46.1542 1.927
46.1845 1.979
46.2147 1.510
46.2450 2.135
46.2753 2.344
46.3056 1.458
46.3359 2.344
46.3661 1.406
46.3964 1.667
46.4267 1.927
46.4570 1.719
46.4873 1.667
46.5175 1.927
46.5478 2.240
46.5781 2.760
46.6084 2.448
46.6386 1.823
46.6689 2.396
46.6992 2.292
46.7295 2.448
46.7598 2.917
46.7900 2.500
46.8203 2.448
46.8506 2.656
46.8809 2.917
46.9112 2.969
46.9414 3.698
46.9717 3.177
47.0020 3.490
47.0323 2.865
47.0626 4.219
47.0928 4.635
47.1231 5.417
47.1534 5.156
47.1837 6.250
47.2139 6.562
47.2442 7.292
47.2745 8.958
47.3048 9.271
47.3351 9.635
47.3653 10.677
47.3956 11.198
47.4259 11.771
47.4562 12.135
47.4865 11.875
47.5167 10.677
47.5470 8.854
47.5773 8.750
47.6076 7.344
47.6378 6.406
47.6681 6.250
47.6984 5.573
47.7287 4.479
47.7590 3.594
47.7892 3.385
47.8195 3.542
47.8498 2.760
47.8801 3.021
47.9104 2.969
47.9406 2.865
47.9709 2.344
48.0012 2.865
48.0315 2.240
48.0617 2.656
48.0920 2.396
48.1223 1.615
48.1526 1.562
48.1829 2.187
48.2131 1.875
48.2434 2.083
48.2737 2.083
48.3040 2.448
48.3343 2.031
48.3645 1.979
48.3948 2.083
48.4251 1.719
48.4554 1.354
48.4856 2.344
48.5159 2.240
48.5462 1.875
48.5765 1.771
48.6068 1.615
48.6370 1.979
48.6673 1.719
48.6976 1.823
48.7279 1.302
48.7582 1.406
48.7884 1.406
48.8187 1.823
48.8490 1.667
48.8793 1.458
48.9095 1.875
48.9398 1.615
48.9701 1.562
49.0004 1.354
49.0307 1.510
49.0609 1.510
49.0912 1.562
49.1215 1.510
49.1518 1.406
49.1821 1.719
49.2123 1.615
49.2426 1.823
49.2729 2.031
49.3032 1.198
49.3334 1.562
49.3637 1.354
49.3940 1.875
49.4243 1.250
49.4546 1.823
49.4848 1.302
49.5151 1.458
49.5454 1.510
49.5757 2.031
49.6060 1.302
49.6362 1.406
49.6665 2.344
49.6968 1.250
49.7271 1.354
49.7574 1.615
49.7876 1.302
49.8179 1.250
49.8482 1.667
49.8785 1.823
49.9087 1.875
49.9390 1.042
49.9693 1.406
49.9996 1.406
50.0299 1.198
50.0601 1.510
50.0904 1.667
50.1207 1.719
50.1510 1.406
50.1813 0.937
50.2115 1.979
50.2418 1.094
50.2721 1.823
50.3024 1.510
50.3326 1.719
50.3629 1.510
50.3932 2.396
50.4235 0.781
50.4538 1.406
50.4840 1.094
50.5143 1.667
50.5446 1.510
50.5749 1.302
50.6052 1.667
50.6354 1.562
50.6657 1.510
50.6960 1.979
50.7263 1.823
50.7565 1.771
50.7868 1.406
50.8171 1.771
50.8474 1.354
50.8777 1.406
50.9079 2.031
50.9382 1.146
50.9685 1.458
50.9988 1.771
51.0291 1.979
51.0593 1.042
51.0896 1.250
51.1199 1.406
51.1502 1.354
51.1804 1.198
51.2107 1.667
51.2410 1.042
51.2713 1.406
51.3016 1.458
51.3318 1.354
51.3621 1.667
51.3924 1.719
51.4227 1.615
51.4530 1.042
51.4832 1.146
51.5135 1.354
51.5438 1.302
51.5741 1.510
51.6043 1.354
51.6346 1.250
51.6649 1.615
51.6952 1.302
51.7255 1.458
51.7557 1.198
51.7860 0.937
51.8163 1.510
51.8466 1.042
51.8769 1.927
51.9071 1.146
51.9374 1.562
51.9677 1.719
51.9980 1.562
52.0282 1.615
52.0585 1.146
52.0888 1.198
52.1191 1.198
52.1494 1.042
52.1796 1.302
52.2099 2.031
52.2402 1.562
52.2705 1.927
52.3008 1.354
52.3310 1.823
52.3613 1.667
52.3916 1.615
52.4219 1.302
52.4521 1.615
52.4824 1.927
52.5127 1.042
52.5430 1.458
52.5733 1.510
52.6035 1.562
52.6338 1.250
52.6641 1.406
52.6944 1.562
52.7247 1.250
52.7549 1.615
52.7852 1.458
52.8155 0.833
52.8458 1.458
52.8761 1.562
52.9063 1.615
52.9366 2.083
52.9669 1.094
52.9972 1.771
53.0274 1.302
53.0577 1.302
53.0880 0.937
53.1183 1.562
53.1486 1.406
53.1788 2.083
53.2091 1.667
53.2394 1.302
53.2697 1.458
53.3000 1.458
53.3302 1.823
53.3605 1.458
53.3908 1.302
53.4211 1.667
53.4513 1.719
53.4816 1.198
53.5119 1.198
53.5422 1.667
53.5725 1.406
53.6027 1.458
53.6330 1.667
53.6633 1.198
53.6936 1.458
53.7239 1.771
53.7541 1.667
53.7844 1.094
53.8147 1.094
53.8450 1.146
53.8752 0.990
53.9055 1.354
53.9358 1.250
53.9661 1.146
53.9964 1.354
54.0266 1.354
54.0569 1.406
54.0872 1.615
54.1175 1.771
54.1478 0.990
54.1780 1.250
54.2083 1.771
54.2386 1.823
54.2689 1.562
54.2991 1.406
54.3294 1.875
54.3597 1.562
54.3900 1.406
54.4203 1.719
54.4505 1.771
54.4808 1.354
54.5111 1.667
54.5414 1.979
54.5717 1.406
54.6019 1.771
54.6322 1.458
54.6625 1.771
54.6928 1.146
54.7230 1.719
54.7533 1.354
54.7836 1.667
54.8139 1.667
54.8442 1.354
54.8744 2.083
54.9047 2.083
54.9350 1.927
54.9653 1.927
54.9956 1.719
55.0258 1.771
55.0561 1.927
55.0864 1.667
55.1167 2.031
55.1469 1.875
55.1772 1.719
55.2075 1.667
55.2378 1.927
55.2681 1.771
55.2983 2.240
55.3286 1.927
55.3589 2.083
55.3892 1.823
55.4195 1.875
55.4497 2.240
55.4800 2.396
55.5103 1.771
55.5406 2.135
55.5709 2.344
55.6011 1.979
55.6314 2.396
55.6617 1.875
55.6920 2.604
55.7222 2.448
55.7525 2.448
55.7828 2.344
55.8131 2.969
55.8434 2.865
55.8736 2.604
55.9039 3.437
55.9342 3.594
55.9645 3.750
55.9948 3.437
56.0250 3.958
56.0553 4.687
56.0856 4.740
56.1159 4.740
56.1461 5.208
56.1764 7.083
56.2067 6.875
56.2370 6.875
56.2673 8.073
56.2975 9.687
56.3278 8.646
56.3581 11.042
56.3884 11.771
56.4187 12.865
56.4489 13.646
56.4792 12.604
56.5095 12.604
56.5398 13.385
56.5700 12.083
56.6003 11.198
56.6306 9.635
56.6609 9.583
56.6912 7.865
56.7214 7.760
56.7517 6.146
56.7820 6.458
56.8123 5.052
56.8426 4.479
56.8728 5.260
56.9031 3.594
56.9334 4.115
56.9637 2.865
56.9939 3.594
57.0242 3.177
57.0545 3.750
57.0848 2.656
57.1151 2.656
57.1453 2.344
57.1756 2.604
57.2059 2.396
57.2362 2.344
57.2665 2.187
57.2967 2.240
57.3270 1.615
57.3573 2.031
57.3876 2.604
57.4178 2.083
57.4481 2.083
57.4784 2.187
57.5087 1.354
57.5390 1.615
57.5692 1.615
57.5995 1.615
57.6298 2.187
57.6601 1.406
57.6904 2.344
57.7206 1.771
57.7509 1.198
57.7812 1.719
57.8115 1.458
57.8417 1.771
57.8720 1.354
57.9023 1.458
57.9326 1.875
57.9629 1.510
57.9931 1.615
58.0234 1.354
58.0537 1.146
58.0840 1.823
58.1143 1.719
58.1445 1.771
58.1748 2.031
58.2051 1.198
58.2354 1.823
58.2656 1.302
58.2959 1.823
58.3262 1.562
58.3565 1.719
58.3868 1.875
58.4170 1.094
58.4473 1.302
58.4776 1.302
58.5079 1.354
58.5382 1.667
58.5684 1.198
58.5987 1.927
58.6290 1.250
58.6593 1.406
58.6896 0.937
58.7198 1.458
58.7501 1.510
58.7804 1.562
58.8107 1.406
58.8409 1.042
58.8712 1.198
58.9015 1.667
58.9318 2.187
58.9621 1.250
58.9923 1.406
59.0226 1.354
59.0529 1.250
59.0832 0.990
59.1135 1.667
59.1437 1.198
59.1740 1.615
59.2043 1.719
59.2346 1.875
59.2648 1.354
59.2951 1.562
59.3254 1.927
59.3557 2.031
59.3860 1.250
59.4162 1.406
59.4465 1.250
59.4768 1.354
59.5071 1.406
59.5374 1.146
59.5676 1.042
59.5979 1.354
59.6282 1.771
59.6585 1.771
59.6887 1.042
59.7190 1.823
59.7493 1.354
59.7796 1.146
59.8099 1.615
59.8401 1.302
59.8704 1.406
59.9007 1.510
59.9310 1.302
59.9613 1.458
59.9915 1.719
60.0218 1.719
60.0521 1.354
60.0824 1.562
60.1126 1.198
60.1429 1.250
60.1732 1.510
60.2035 2.031
60.2338 1.146
60.2640 1.510
60.2943 1.510
60.3246 1.615
60.3549 1.667
60.3852 1.354
60.4154 1.562
60.4457 1.094
60.4760 1.406
60.5063 1.510
60.5365 1.667
60.5668 1.615
60.5971 1.094
60.6274 1.458
60.6577 1.354
60.6879 1.510
60.7182 1.510
60.7485 1.094
60.7788 1.510
60.8091 1.354
60.8393 1.719
60.8696 1.406
60.8999 1.875
60.9302 1.198
60.9604 1.927
60.9907 1.198
61.0210 1.354
61.0513 1.667
61.0816 1.354
61.1118 2.031
61.1421 1.562
61.1724 1.458
61.2027 1.615
61.2330 1.406
61.2632 1.615
61.2935 1.302
61.3238 1.667
61.3541 1.823
61.3844 1.510
61.4146 1.458
61.4449 1.875
61.4752 1.458
61.5055 1.458
61.5357 1.771
61.5660 2.031
61.5963 1.458
61.6266 1.510
61.6569 2.344
61.6871 1.823
61.7174 1.927
61.7477 2.187
61.7780 2.344
61.8083 2.552
61.8385 2.031
61.8688 1.667
61.8991 1.615
61.9294 2.083
61.9596 2.552
61.9899 2.292
62.0202 2.396
62.0505 1.875
62.0808 2.656
62.1110 2.031
62.1413 2.240
62.1716 2.604
62.2019 2.812
62.2322 3.646
62.2624 2.865
62.2927 3.073
62.3230 3.750
62.3533 4.740
62.3835 4.583
62.4138 5.104
62.4441 4.375
62.4744 5.990
62.5047 5.469
62.5349 7.865
62.5652 7.292
62.5955 8.854
62.6258 11.302
62.6561 11.510
62.6863 10.990
62.7166 10.937
62.7469 10.885
62.7772 11.510
62.8074 10.156
62.8377 10.521
62.8680 9.531
62.8983 8.646
62.9286 9.375
62.9588 6.198
62.9891 7.396
63.0194 7.344
63.0497 5.833
63.0800 4.323
63.1102 4.896
63.1405 4.271
63.1708 2.969
63.2011 3.281
63.2313 3.073
63.2616 2.552
63.2919 2.760
63.3222 2.865
63.3525 2.396
63.3827 2.448
63.4130 2.344
63.4433 1.927
63.4736 2.500
63.5039 2.292
63.5341 2.500
63.5644 2.031
63.5947 1.979
63.6250 1.927
63.6552 1.719
63.6855 2.031
63.7158 2.083
63.7461 1.979
63.7764 1.667
63.8066 1.719
63.8369 1.875
63.8672 1.510
63.8975 2.031
63.9278 1.875
63.9580 1.615
63.9883 1.927
64.0186 1.823
64.0489 1.458
64.0791 1.615
64.1094 1.927
64.1397 1.771
64.1700 1.719
64.2003 1.406
64.2305 1.406
64.2608 1.615
64.2911 1.823
64.3214 1.510
64.3517 1.667
64.3819 1.875
64.4122 1.250
64.4425 1.823
64.4728 1.719
64.5031 1.510
64.5333 1.198
64.5636 1.510
64.5939 1.719
64.6242 1.823
64.6544 1.250
64.6847 1.146
64.7150 1.927
64.7453 0.729
64.7756 1.458
64.8058 1.510
64.8361 1.406
64.8664 2.135
64.8967 1.302
64.9270 1.458
64.9572 1.302
64.9875 1.771
65.0178 1.615
65.0481 1.562
65.0783 1.354
65.1086 1.458
65.1389 1.719
65.1692 2.083
65.1995 1.615
65.2297 1.667
65.2600 1.562
65.2903 1.094
65.3206 2.135
65.3509 1.354
65.3811 1.510
65.4114 1.875
65.4417 1.458
65.4720 1.406
65.5022 1.198
65.5325 1.146
65.5628 1.198
65.5931 1.562
65.6234 1.198
65.6536 1.875
65.6839 1.615
65.7142 1.354
65.7445 1.615
65.7748 1.094
65.8050 1.875
65.8353 2.083
65.8656 1.667
65.8959 2.344
65.9261 2.344
65.9564 1.927
65.9867 2.552
66.0170 1.875
66.0473 1.927
66.0775 2.760
66.1078 2.396
66.1381 2.396
66.1684 2.604
66.1987 2.604
66.2289 3.229
66.2592 2.708
66.2895 3.021
66.3198 2.135
66.3500 2.396
66.3803 2.344
66.4106 2.812
66.4409 2.240
66.4712 2.656
66.5014 2.656
66.5317 1.979
66.5620 2.187
66.5923 2.396
66.6226 2.135
66.6528 2.656
66.6831 1.823
66.7134 2.187
66.7437 2.135
66.7739 2.552
66.8042 1.354
66.8345 1.927
66.8648 1.562
66.8951 2.135
66.9253 1.927
66.9556 1.667
66.9859 1.719
67.0162 2.292
67.0465 2.448
67.0767 2.031
67.1070 2.031
67.1373 2.083
67.1676 2.969
67.1978 2.187
67.2281 2.396
67.2584 2.760
67.2887 2.865
67.3190 2.917
67.3492 3.542
67.3795 3.281
67.4098 2.656
67.4401 3.437
67.4704 3.698
67.5006 4.323
67.5309 4.479
67.5612 4.896
67.5915 5.729
67.6218 5.521
67.6520 5.469
67.6823 7.135
67.7126 7.969
67.7429 8.125
67.7731 7.865
67.8034 8.490
67.8337 8.073
67.8640 7.604
67.8943 6.875
67.9245 7.240
67.9548 6.823
67.9851 6.562
68.0154 6.250
68.0457 6.510
68.0759 4.844
68.1062 5.156
68.1365 5.469
68.1668 5.000
68.1970 4.062
68.2273 3.958
68.2576 3.958
68.2879 2.969
68.3182 3.698
68.3484 3.698
68.3787 3.229
68.4090 2.969
68.4393 2.760
68.4696 2.344
68.4998 2.552
68.5301 2.969
68.5604 1.927
68.5907 3.229
68.6209 2.917
68.6512 2.969
68.6815 3.125
68.7118 3.385
68.7421 3.073
68.7723 4.167
68.8026 4.010
68.8329 3.750
68.8632 4.427
68.8935 3.490
68.9237 4.375
68.9540 4.375
68.9843 3.906
69.0146 4.219
69.0448 4.219
69.0751 3.698
69.1054 4.167
69.1357 3.906
69.1660 2.917
69.1962 2.969
69.2265 2.969
69.2568 3.125
69.2871 3.021
69.3174 2.448
69.3476 2.292
69.3779 1.979
69.4082 2.396
69.4385 2.135
69.4687 2.292
69.4990 1.979
69.5293 2.083
69.5596 1.771
69.5899 1.771
69.6201 1.875
69.6504 2.031
69.6807 1.771
69.7110 1.302
69.7413 1.615
69.7715 1.510
69.8018 1.146
69.8321 1.302
69.8624 1.667
69.8926 1.615
69.9229 1.354
69.9532 1.250
69.9835 1.562
70.0138 1.250
70.0440 1.406
70.0743 1.406
70.1046 1.302
70.1349 1.875
70.1652 1.510
70.1954 1.823
70.2257 0.937
70.2560 1.250
70.2863 1.250
70.3166 0.990
70.3468 1.875
70.3771 1.094
70.4074 1.250
70.4377 1.615
70.4679 0.781
70.4982 1.198
70.5285 1.146
70.5588 1.250
70.5891 0.781
70.6193 0.781
70.6496 1.250
70.6799 1.250
70.7102 1.198
70.7405 0.833
70.7707 1.562
70.8010 0.990
70.8313 1.042
70.8616 1.354
70.8918 1.250
70.9221 1.354
70.9524 0.573
70.9827 1.146
71.0130 1.198
71.0432 1.198
71.0735 1.458
71.1038 0.990
71.1341 1.094
71.1644 1.354
71.1946 1.146
71.2249 0.937
71.2552 1.354
71.2855 1.354
71.3157 1.406
71.3460 1.146
71.3763 1.250
71.4066 0.990
71.4369 1.302
71.4671 0.625
71.4974 0.729
71.5277 1.406
71.5580 1.250
71.5883 0.781
71.6185 0.833
71.6488 1.250
71.6791 1.198
71.7094 1.094
71.7396 1.094
71.7699 1.198
71.8002 1.302
71.8305 0.937
71.8608 1.094
71.8910 1.146
71.9213 1.250
71.9516 1.302
71.9819 1.406
72.0122 1.354
72.0424 1.042
72.0727 1.354
72.1030 1.250
72.1333 1.771
72.1635 1.042
72.1938 1.719
72.2241 1.615
72.2544 1.510
72.2847 1.354
72.3149 1.250
72.3452 1.458
72.3755 1.562
72.4058 2.135
72.4361 1.667
72.4663 1.719
72.4966 1.719
72.5269 1.250
72.5572 1.250
72.5874 1.250
72.6177 1.302
72.6480 1.510
72.6783 1.823
72.7086 1.250
72.7388 1.198
72.7691 1.719
72.7994 1.094
72.8297 1.198
72.8600 1.146
72.8902 1.198
72.9205 1.250
72.9508 1.250
72.9811 1.146
73.0113 1.302
73.0416 1.042
73.0719 0.781
73.1022 1.146
73.1325 1.094
73.1627 0.937
73.1930 1.406
73.2233 0.990
73.2536 1.042
73.2839 0.885
73.3141 0.885
73.3444 1.354
73.3747 0.937
73.4050 1.458
73.4353 1.094
73.4655 1.146
73.4958 1.354
73.5261 1.146
73.5564 0.781
73.5866 0.833
73.6169 1.146
73.6472 0.990
73.6775 0.937
73.7078 0.729
73.7380 0.833
73.7683 1.094
73.7986 1.250
73.8289 0.729
73.8592 1.094
73.8894 0.833
73.9197 0.990
73.9500 1.146
73.9803 0.729
74.0105 0.729
74.0408 1.094
74.0711 0.729
74.1014 1.146
74.1317 1.094
74.1619 1.354
74.1922 0.781
74.2225 1.198
74.2528 0.885
74.2831 1.042
74.3133 0.729
74.3436 1.354
74.3739 1.146
74.4042 0.729
74.4344 0.937
74.4647 1.354
74.4950 0.885
74.5253 0.833
74.5556 0.885
74.5858 1.042
74.6161 0.990
74.6464 0.937
74.6767 0.885
74.7070 0.990
74.7372 0.937
74.7675 0.937
74.7978 0.937
74.8281 0.937
74.8583 0.833
74.8886 0.729
74.9189 0.677
74.9492 0.729
74.9795 1.146
75.0097 0.990
75.0400 1.042
75.0703 1.198
75.1006 1.198
75.1309 0.885
75.1611 0.990
75.1914 1.094
75.2217 0.781
75.2520 1.042
75.2822 1.250
75.3125 1.042
75.3428 1.042
75.3731 0.833
75.4034 0.990
75.4336 1.250
75.4639 0.729
75.4942 1.042
75.5245 0.885
75.5548 1.094
75.5850 1.510
75.6153 1.198
75.6456 1.198
75.6759 0.990
75.7061 0.885
75.7364 0.833
75.7667 0.417
75.7970 1.302
75.8273 1.406
75.8575 1.146
75.8878 1.406
75.9181 0.521
75.9484 0.729
75.9787 0.885
76.0089 0.781
76.0392 1.406
76.0695 1.198
76.0998 1.615
76.1301 1.198
76.1603 1.198
76.1906 0.781
76.2209 1.302
76.2512 1.146
76.2814 1.198
76.3117 0.729
76.3420 1.406
76.3723 0.781
76.4026 1.562
76.4328 1.250
76.4631 1.406
76.4934 1.146
76.5237 1.198
76.5540 1.562
76.5842 1.302
76.6145 1.615
76.6448 1.719
76.6751 1.615
76.7053 1.719
76.7356 1.562
76.7659 1.823
76.7962 1.823
76.8265 1.146
76.8567 1.510
76.8870 2.083
76.9173 1.771
76.9476 1.667
76.9779 1.250
77.0081 1.302
77.0384 1.302
77.0687 1.562
77.0990 2.135
77.1292 1.458
77.1595 1.458
77.1898 1.250
77.2201 1.198
77.2504 1.198
77.2806 1.302
77.3109 1.250
77.3412 0.990
77.3715 1.302
77.4018 1.250
77.4320 0.937
77.4623 1.354
77.4926 0.781
77.5229 0.833
77.5531 1.458
77.5834 1.406
77.6137 1.094
77.6440 1.094
77.6743 0.729
77.7045 0.937
77.7348 0.990
77.7651 1.042
77.7954 1.146
77.8257 0.729
77.8559 1.250
77.8862 1.198
77.9165 1.146
77.9468 0.990
77.9770 1.510
78.0073 1.198
78.0376 1.562
78.0679 1.198
78.0982 0.781
78.1284 0.885
78.1587 1.042
78.1890 0.677
78.2193 1.094
78.2496 1.094
78.2798 0.885
78.3101 1.354
78.3404 1.198
78.3707 1.146
78.4009 0.885
78.4312 1.250
78.4615 0.885
78.4918 0.833
78.5221 1.198
78.5523 0.990
78.5826 0.729
78.6129 1.302
78.6432 1.250
78.6735 1.146
78.7037 1.562
78.7340 0.833
78.7643 0.729
78.7946 0.885
78.8248 1.094
78.8551 0.885
78.8854 0.729
78.9157 1.042
78.9460 0.937
78.9762 0.937
79.0065 1.198
79.0368 1.042
79.0671 0.990
79.0974 0.833
79.1276 0.990
79.1579 1.042
79.1882 1.042
79.2185 0.990
79.2488 0.625
79.2790 1.354
79.3093 1.302
79.3396 0.990
79.3699 1.094
79.4001 0.781
79.4304 0.833
79.4607 1.302
79.4910 0.990
79.5213 0.885
79.5515 0.833
79.5818 0.937
79.6121 0.677
79.6424 1.198
79.6727 0.781
79.7029 0.885
79.7332 0.729
79.7635 0.729
79.7938 0.781
79.8240 0.937
79.8543 0.781
79.8846 1.354
79.9149 1.250
79.9452 0.573
79.9754 1.198
80.0057 0.990
80.0360 0.990
80.0663 1.094
80.0966 1.198
80.1268 0.729
80.1571 0.781
80.1874 0.833
80.2177 1.146
80.2479 0.990
80.2782 0.729
80.3085 1.146
80.3388 0.885
80.3691 0.833
80.3993 0.729
80.4296 0.729
80.4599 1.042
80.4902 0.885
80.5205 0.990
80.5507 0.937
80.5810 1.146
80.6113 0.990
80.6416 0.625
80.6718 0.781
80.7021 0.833
80.7324 0.990
80.7627 1.250
80.7930 1.042
80.8232 0.729
80.8535 0.781
80.8838 0.781
80.9141 1.302
80.9444 1.146
80.9746 1.198
81.0049 0.729
81.0352 0.937
81.0655 1.198
81.0957 1.458
81.1260 1.250
81.1563 1.146
81.1866 1.354
81.2169 1.562
81.2471 1.198
81.2774 1.250
81.3077 1.146
81.3380 1.198
81.3683 0.729
81.3985 1.510
81.4288 1.406
81.4591 0.729
81.4894 1.354
81.5196 1.667
81.5499 1.562
81.5802 1.198
81.6105 1.042
81.6408 1.042
81.6710 1.146
81.7013 0.781
81.7316 0.833
81.7619 0.937
81.7922 0.885
81.8224 0.937
81.8527 0.625
81.8830 1.198
81.9133 1.042
81.9436 0.937
81.9738 1.146
82.0041 0.937
82.0344 0.990
82.0647 0.781
82.0949 1.198
82.1252 0.729
82.1555 0.990
82.1858 1.042
82.2161 0.729
82.2463 0.729
82.2766 0.729
82.3069 1.146
82.3372 0.990
82.3675 0.885
82.3977 0.885
82.4280 1.042
82.4583 0.990
82.4886 1.042
82.5188 1.094
82.5491 1.042
82.5794 1.354
82.6097 0.781
82.6400 1.094
82.6702 0.729
82.7005 0.885
82.7308 0.885
82.7611 0.937
82.7914 0.729
82.8216 0.990
82.8519 1.042
82.8822 0.937
82.9125 0.729
82.9427 0.729
82.9730 0.990
83.0033 0.990
83.0336 0.885
83.0639 0.781
83.0941 1.042
83.1244 1.146
83.1547 0.729
83.1850 0.885
83.2153 1.042
83.2455 0.990
83.2758 0.833
83.3061 0.573
83.3364 0.885
83.3666 1.146
83.3969 0.833
83.4272 0.781
83.4575 0.990
83.4878 0.781
83.5180 0.781
83.5483 0.365
83.5786 0.833
83.6089 0.729
83.6392 1.198
83.6694 0.677
83.6997 1.146
83.7300 0.729
83.7603 1.042
83.7905 0.990
83.8208 0.833
83.8511 0.729
83.8814 0.781
83.9117 1.198
83.9419 1.042
83.9722 0.469
84.0025 0.885
84.0328 0.521
84.0631 1.354
84.0933 0.781
84.1236 0.729
84.1539 0.885
84.1842 0.729
84.2144 0.937
84.2447 0.781
84.2750 0.990
84.3053 1.094
84.3356 0.990
84.3658 0.729
84.3961 0.885
84.4264 0.885
84.4567 0.990
84.4870 0.312
84.5172 1.250
84.5475 1.198
84.5778 1.042
84.6081 0.521
84.6383 0.781
84.6686 1.042
84.6989 0.781
84.7292 0.625
84.7595 1.198
84.7897 0.885
84.8200 0.833
84.8503 0.833
84.8806 0.625
84.9109 0.625
84.9411 0.729
84.9714 0.781
85.0017 0.990
85.0320 0.573
85.0623 0.781
85.0925 1.042
85.1228 0.729
85.1531 1.198
85.1834 1.302
85.2136 0.677
85.2439 0.937
85.2742 0.729
85.3045 1.042
85.3348 0.729
85.3650 0.990
85.3953 1.146
85.4256 0.833
85.4559 0.990
85.4862 1.094
85.5164 1.042
85.5467 0.990
85.5770 0.937
85.6073 0.937
85.6375 0.781
85.6678 0.573
85.6981 0.885
85.7284 1.198
85.7587 1.094
85.7889 0.729
85.8192 0.729
85.8495 0.885
85.8798 0.781
85.9101 0.833
85.9403 0.885
85.9706 1.146
86.0009 1.094
86.0312 0.521
86.0614 0.885
86.0917 0.729
86.1220 0.990
86.1523 1.042
86.1826 0.781
86.2128 1.250
86.2431 0.833
86.2734 0.885
86.3037 0.937
86.3340 0.885
86.3642 0.677
86.3945 0.729
86.4248 1.354
86.4551 1.302
86.4853 0.990
86.5156 0.937
86.5459 0.885
86.5762 0.729
86.6065 0.781
86.6367 0.729
86.6670 0.729
86.6973 0.833
86.7276 1.198
86.7579 0.625
86.7881 0.573
86.8184 0.729
86.8487 0.885
86.8790 0.781
86.9092 0.885
86.9395 0.990
86.9698 1.406
87.0001 0.937
87.0304 0.729
87.0606 0.990
87.0909 0.885
87.1212 0.469
87.1515 0.990
87.1818 0.781
87.2120 0.729
87.2423 0.937
87.2726 1.094
87.3029 1.198
87.3331 1.094
87.3634 0.937
87.3937 0.937
87.4240 1.146
87.4543 1.094
87.4845 0.729
87.5148 0.885
87.5451 0.990
87.5754 0.573
87.6057 0.729
87.6359 0.937
87.6662 1.250
87.6965 0.885
87.7268 0.937
87.7571 0.573
87.7873 0.625
87.8176 0.781
87.8479 1.458
87.8782 1.042
87.9084 0.677
87.9387 0.885
87.9690 0.833
87.9993 0.781
88.0296 0.833
88.0598 0.625
88.0901 1.302
88.1204 1.146
88.1507 0.573
88.1810 1.042
88.2112 1.302
88.2415 1.042
88.2718 0.833
88.3021 1.302
88.3323 1.354
88.3626 1.198
88.3929 0.677
88.4232 0.781
88.4535 1.198
88.4837 1.562
88.5140 0.781
88.5443 1.094
88.5746 0.781
88.6049 1.198
88.6351 1.094
88.6654 1.042
88.6957 1.458
88.7260 1.354
88.7562 0.885
88.7865 1.198
88.8168 1.198
88.8471 1.146
88.8774 1.354
88.9076 0.937
88.9379 1.094
88.9682 1.510
88.9985 1.198
89.0288 1.406
89.0590 1.198
89.0893 1.198
89.1196 1.510
89.1499 1.667
89.1801 1.823
89.2104 1.771
89.2407 2.292
89.2710 1.979
89.3013 1.927
89.3315 2.187
89.3618 2.031
89.3921 2.552
89.4224 1.615
89.4527 2.344
89.4829 3.073
89.5132 2.708
89.5435 2.344
89.5738 2.240
89.6040 1.615
89.6343 2.135
89.6646 2.240
89.6949 1.719
89.7252 2.448
89.7554 2.031
89.7857 1.771
89.8160 1.823
89.8463 2.292
89.8766 1.823
89.9068 1.354
89.9371 1.615
89.9674 1.667
89.9977 2.083
90.0279 1.667
90.0582 1.667
90.0885 1.354
90.1188 1.615
90.1491 0.990
90.1793 1.250
90.2096 0.781
90.2399 1.354
90.2702 0.937
90.3005 0.937
90.3307 1.979
90.3610 0.990
90.3913 1.354
90.4216 0.990
90.4518 0.885
90.4821 1.094
90.5124 1.094
90.5427 0.885
90.5730 1.250
90.6032 0.937
90.6335 1.094
90.6638 0.990
90.6941 1.198
90.7244 0.990
90.7546 1.406
90.7849 0.833
90.8152 0.990
90.8455 1.250
90.8758 1.198
90.9060 1.198
90.9363 1.198
90.9666 1.146
90.9969 1.198
91.0271 0.677
91.0574 1.042
91.0877 1.250
91.1180 0.729
91.1483 0.833
91.1785 0.885
91.2088 0.625
91.2391 1.042
91.2694 0.417
91.2997 0.781
91.3299 1.198
91.3602 0.990
91.3905 0.781
91.4208 0.885
91.4510 1.198
91.4813 1.198
91.5116 1.354
91.5419 1.094
91.5722 1.250
91.6024 1.094
91.6327 1.250
91.6630 1.302
91.6933 1.354
91.7236 0.990
91.7538 1.146
91.7841 1.302
91.8144 0.937
91.8447 1.146
91.8749 1.094
91.9052 0.573
91.9355 0.990
91.9658 0.833
91.9961 0.937
92.0263 1.354
92.0566 1.250
92.0869 1.042
92.1172 1.094
92.1475 0.729
92.1777 0.781
92.2080 1.094
92.2383 1.146
92.2686 1.198
92.2988 1.094
92.3291 0.937
92.3594 1.302
92.3897 1.927
92.4200 1.198
92.4502 1.042
92.4805 1.302
92.5108 1.458
92.5411 1.250
92.5714 1.406
92.6016 1.042
92.6319 1.458
92.6622 1.354
92.6925 1.302
92.7227 1.667
92.7530 1.250
92.7833 1.719
92.8136 1.198
92.8439 1.458
92.8741 1.042
92.9044 1.354
92.9347 1.302
92.9650 1.198
92.9953 1.250
93.0255 1.250
93.0558 1.302
93.0861 1.198
93.1164 1.042
93.1466 1.250
93.1769 0.781
93.2072 1.198
93.2375 1.354
93.2678 1.094
93.2980 1.302
93.3283 1.458
93.3586 0.885
93.3889 1.458
93.4192 1.302
93.4494 1.198
93.4797 0.937
93.5100 1.146
93.5403 1.250
93.5706 0.729
93.6008 1.406
93.6311 0.937
93.6614 1.094
93.6917 1.042
93.7219 1.302
93.7522 1.042
93.7825 0.937
93.8128 1.042
93.8431 0.521
93.8733 0.573
93.9036 1.146
93.9339 1.094
93.9642 1.146
93.9945 1.198
94.0247 1.146
94.0550 0.729
94.0853 0.990
94.1156 1.146
94.1458 1.042
94.1761 1.042
94.2064 0.885
94.2367 1.198
94.2670 1.250
94.2972 1.094
94.3275 0.937
94.3578 1.094
94.3881 1.354
94.4184 1.042
94.4486 1.562
94.4789 1.250
94.5092 1.250
94.5395 1.354
94.5697 1.250
94.6000 1.510
94.6303 1.146
94.6606 1.562
94.6909 1.354
94.7211 1.354
94.7514 1.510
94.7817 2.240
94.8120 1.250
94.8423 1.562
94.8725 1.510
94.9028 1.562
94.9331 2.031
94.9634 1.510
94.9936 1.667
95.0239 2.187
95.0542 1.406
95.0845 2.187
95.1148 2.031
95.1450 2.708
95.1753 2.708
95.2056 2.500
95.2359 2.135
95.2662 2.708
95.2964 2.396
95.3267 2.448
95.3570 2.552
95.3873 2.187
95.4175 2.240
95.4478 1.771
95.4781 1.823
95.5084 2.031
95.5387 2.292
95.5689 1.771
95.5992 2.344
95.6295 1.875
95.6598 1.927
95.6901 1.667
95.7203 1.458
95.7506 1.719
95.7809 1.250
95.8112 1.250
95.8414 1.510
95.8717 1.510
95.9020 1.406
95.9323 0.729
95.9626 1.562
95.9928 1.458
96.0231 1.719
96.0534 0.990
96.0837 1.250
96.1140 1.094
96.1442 0.885
96.1745 0.781
96.2048 1.615
96.2351 0.885
96.2653 1.042
96.2956 0.781
96.3259 0.833
96.3562 1.094
96.3865 1.094
96.4167 1.042
96.4470 1.719
96.4773 1.042
96.5076 0.677
96.5379 0.833
96.5681 1.146
96.5984 1.042
96.6287 0.885
96.6590 0.885
96.6893 0.781
96.7195 1.094
96.7498 0.833
96.7801 0.937
96.8104 1.094
96.8406 1.198
96.8709 1.198
96.9012 0.885
96.9315 0.729
96.9618 1.198
96.9920 1.406
97.0223 0.937
97.0526 1.042
97.0829 0.990
97.1132 0.729
97.1434 1.510
97.1737 1.250
97.2040 0.937
97.2343 0.990
97.2645 1.250
97.2948 0.833
97.3251 1.198
97.3554 1.354
97.3857 1.146
97.4159 0.885
97.4462 0.937
97.4765 0.937
97.5068 1.146
97.5371 0.781
97.5673 0.781
97.5976 1.250
97.6279 0.937
97.6582 1.042
97.6884 1.302
97.7187 0.677
97.7490 1.250
97.7793 1.354
97.8096 1.458
97.8398 0.469
97.8701 1.354
97.9004 1.042
97.9307 0.781
97.9610 0.677
97.9912 1.042
98.0215 1.250
98.0518 1.146
98.0821 1.510
98.1123 0.937
98.1426 1.510
98.1729 1.458
98.2032 1.823
98.2335 1.250
98.2637 1.719
98.2940 1.250
98.3243 1.250
98.3546 1.042
98.3849 2.031
98.4151 1.510
98.4454 0.729
98.4757 1.719
98.5060 1.406
98.5362 1.719
98.5665 1.667
98.5968 1.719
98.6271 2.083
98.6574 1.406
98.6876 1.562
98.7179 1.875
98.7482 1.875
98.7785 1.458
98.8088 1.562
98.8390 1.406
98.8693 1.667
98.8996 1.823
98.9299 1.302
98.9601 1.406
98.9904 1.146
99.0207 1.406
99.0510 1.198
99.0813 1.250
99.1115 1.042
99.1418 1.302
99.1721 1.250
99.2024 1.042
99.2327 1.094
99.2629 0.937
99.2932 1.354
99.3235 1.146
99.3538 1.146
99.3841 1.302
99.4143 0.729
99.4446 1.198
99.4749 1.042
99.5052 1.302
99.5354 0.781
99.5657 0.833
99.5960 0.990
99.6263 1.250
99.6566 0.885
99.6868 1.146
99.7171 0.990
99.7474 0.729
99.7777 0.937
99.8080 0.833
99.8382 1.042
99.8685 0.990
99.8988 0.729
99.9291 0.937
99.9593 1.094
99.9896 0.781
100.0199 1.146
100.0502 0.781
100.0805 0.885
100.1107 0.781
100.1410 0.937
100.1713 0.573
100.2016 1.302
100.2319 0.781
100.2621 0.781
100.2924 0.573
100.3227 0.781
100.3530 0.833
100.3832 0.937
100.4135 0.677
100.4438 0.937
100.4741 0.781
100.5044 0.990
100.5346 1.354
100.5649 1.094
100.5952 1.146
100.6255 0.729
100.6558 0.885
100.6860 0.937
100.7163 0.937
100.7466 0.833
100.7769 0.937
100.8071 0.885
100.8374 0.781
100.8677 0.573
100.8980 1.250
100.9283 0.625
100.9585 0.990
100.9888 1.198
101.0191 1.094
101.0494 1.146
101.0797 0.677
101.1099 1.250
101.1402 0.937
101.1705 1.042
101.2008 1.094
101.2310 0.833
101.2613 1.198
101.2916 0.937
101.3219 0.781
101.3522 1.302
101.3824 0.729
101.4127 1.354
101.4430 0.781
101.4733 0.729
101.5036 0.937
101.5338 0.885
101.5641 1.198
101.5944 0.990
101.6247 1.042
101.6549 0.677
101.6852 1.354
101.7155 1.146
101.7458 1.042
101.7761 0.990
101.8063 1.146
101.8366 0.937
101.8669 1.354
101.8972 1.302
101.9275 1.354
101.9577 1.042
101.9880 1.510
102.0183 0.781
102.0486 1.198
102.0788 0.885
102.1091 0.990
102.1394 0.833
102.1697 0.937
102.2000 0.990
102.2302 0.990
102.2605 0.781
102.2908 0.781
102.3211 1.354
102.3514 0.781
102.3816 1.615
102.4119 1.354
102.4422 1.354
102.4725 1.354
102.5028 1.250
102.5330 1.354
102.5633 0.990
102.5936 1.510
102.6239 1.406
102.6541 1.250
102.6844 1.615
102.7147 1.406
102.7450 2.292
102.7753 1.875
102.8055 1.771
102.8358 0.781
102.8661 1.458
102.8964 1.302
102.9267 1.458
102.9569 1.719
102.9872 1.146
103.0175 1.719
103.0478 1.823
103.0780 0.990
103.1083 1.771
103.1386 0.937
103.1689 1.875
103.1992 1.615
103.2294 0.833
103.2597 1.146
103.2900 1.302
103.3203 1.458
103.3506 1.354
103.3808 1.458
103.4111 1.302
103.4414 1.562
103.4717 1.510
103.5019 1.250
103.5322 1.771
103.5625 1.823
103.5928 1.458
103.6231 1.927
103.6533 1.667
103.6836 1.771
103.7139 1.719
103.7442 1.562
103.7745 1.406
103.8047 1.771
103.8350 1.406
103.8653 1.615
103.8956 2.187
103.9258 2.083
103.9561 1.406
103.9864 1.406
104.0167 1.562
104.0470 1.510
104.0772 2.240
104.1075 1.667
104.1378 2.240
104.1681 1.979
104.1984 2.292
104.2286 1.875
104.2589 1.875
104.2892 1.979
104.3195 2.031
104.3497 2.292
104.3800 1.823
104.4103 1.667
104.4406 2.135
104.4709 1.979
104.5011 1.719
104.5314 1.562
104.5617 1.667
104.5920 1.406
104.6223 1.042
104.6525 0.781
104.6828 1.406
104.7131 1.406
104.7434 1.198
104.7736 1.667
104.8039 1.354
104.8342 1.094
104.8645 1.510
104.8948 0.833
104.9250 1.250
104.9553 1.042
104.9856 1.562
105.0159 1.198
105.0462 1.198
105.0764 0.729
105.1067 1.250
105.1370 0.729
105.1673 1.406
105.1975 1.250
105.2278 0.885
105.2581 0.990
105.2884 1.302
105.3187 1.458
105.3489 1.094
105.3792 0.990
105.4095 1.042
105.4398 0.781
105.4701 0.729
105.5003 1.198
105.5306 1.406
105.5609 0.990
105.5912 0.885
105.6215 1.354
105.6517 1.354
105.6820 1.354
105.7123 0.990
105.7426 0.833
105.7728 1.198
105.8031 0.677
105.8334 1.146
105.8637 0.937
105.8940 0.937
105.9242 1.094
105.9545 0.885
105.9848 0.990
106.0151 1.042
106.0454 0.937
106.0756 0.833
106.1059 0.625
106.1362 1.094
106.1665 0.885
106.1967 1.198
106.2270 0.885
106.2573 0.937
106.2876 1.146
106.3179 0.885
106.3481 0.990
106.3784 1.094
106.4087 1.042
106.4390 0.677
106.4693 1.354
106.4995 1.302
106.5298 0.729
106.5601 0.885
106.5904 1.042
106.6206 0.833
106.6509 0.885
106.6812 0.885
106.7115 0.885
106.7418 0.885
106.7720 1.146
106.8023 0.781
106.8326 1.094
106.8629 1.042
106.8932 1.198
106.9234 1.458
106.9537 0.885
106.9840 1.198
107.0143 0.937
107.0445 1.146
107.0748 1.562
107.1051 0.990
107.1354 0.990
107.1657 1.302
107.1959 1.302
107.2262 1.406
107.2565 1.094
107.2868 1.146
107.3171 1.146
107.3473 1.042
107.3776 1.406
107.4079 1.406
107.4382 1.198
107.4684 1.094
107.4987 0.885
107.5290 1.042
107.5593 0.937
107.5896 1.354
107.6198 0.833
107.6501 1.198
107.6804 1.250
107.7107 1.094
107.7410 0.781
107.7712 1.042
107.8015 1.458
107.8318 1.042
107.8621 0.937
107.8923 0.833
107.9226 0.833
107.9529 0.833
107.9832 1.198
108.0135 0.729
108.0437 1.406
108.0740 0.937
108.1043 0.833
108.1346 0.885
108.1649 1.562
108.1951 0.781
108.2254 0.990
108.2557 1.094
108.2860 1.510
108.3163 0.885
108.3465 0.677
108.3768 1.250
108.4071 0.937
108.4374 1.250
108.4676 1.042
108.4979 0.885
108.5282 0.990
108.5585 1.406
108.5888 0.833
108.6190 1.094
108.6493 0.729
108.6796 0.781
108.7099 0.833
108.7402 0.937
108.7704 1.042
108.8007 0.729
108.8310 0.729
108.8613 1.042
108.8915 0.990
108.9218 1.146
108.9521 0.937
108.9824 1.406
109.0127 1.146
109.0429 1.354
109.0732 1.042
109.1035 1.094
109.1338 1.094
109.1641 1.458
109.1943 0.937
109.2246 1.042
109.2549 1.198
109.2852 1.042
109.3154 0.885
109.3457 1.458
109.3760 0.937
109.4063 0.937
109.4366 0.833
109.4668 0.937
109.4971 1.198
109.5274 1.562
109.5577 0.833
109.5880 1.042
109.6182 1.302
109.6485 0.937
109.6788 1.510
109.7091 1.510
109.7393 1.094
109.7696 0.833
109.7999 1.198
109.8302 0.833
109.8605 0.885
109.8907 0.937
109.9210 1.302
109.9513 1.562
109.9816 1.510
110.0119 1.094
110.0421 1.146
110.0724 1.510
110.1027 1.510
110.1330 0.885
110.1632 1.250
110.1935 1.406
110.2238 1.250
110.2541 1.146
110.2844 1.042
110.3146 1.458
110.3449 1.562
110.3752 1.510
110.4055 1.615
110.4358 1.198
110.4660 1.250
110.4963 0.937
110.5266 1.823
110.5569 1.302
110.5871 1.146
110.6174 1.354
110.6477 0.937
110.6780 1.198
110.7083 1.146
110.7385 1.719
110.7688 1.562
110.7991 1.198
110.8294 1.302
110.8597 1.094
110.8899 1.042
110.9202 0.573
110.9505 1.250
110.9808 1.198
111.0110 1.042
111.0413 1.458
111.0716 1.094
111.1019 0.990
111.1322 1.615
111.1624 1.042
111.1927 0.990
111.2230 0.937
111.2533 0.885
111.2836 1.615
111.3138 0.990
111.3441 1.042
111.3744 0.781
111.4047 0.937
111.4350 0.990
111.4652 1.302
111.4955 0.885
111.5258 0.990
111.5561 1.198
111.5863 0.990
111.6166 0.990
111.6469 1.354
111.6772 1.146
111.7075 0.833
111.7377 1.250
111.7680 1.042
111.7983 1.250
111.8286 0.990
111.8589 0.990
111.8891 0.885
111.9194 1.354
111.9497 1.146
111.9800 1.354
112.0102 1.042
112.0405 1.094
112.0708 1.250
112.1011 0.990
112.1314 0.573
112.1616 1.094
112.1919 0.781
112.2222 1.250
112.2525 0.937
112.2828 0.937
112.3130 1.042
112.3433 1.406
112.3736 1.042
112.4039 1.146
112.4341 0.885
112.4644 1.250
112.4947 0.885
112.5250 0.625
112.5553 0.990
112.5855 1.042
112.6158 1.198
112.6461 0.937
112.6764 0.937
112.7067 1.094
112.7369 0.781
112.7672 0.990
112.7975 0.625
112.8278 0.729
112.8580 1.146
112.8883 1.146
112.9186 1.146
112.9489 1.146
112.9792 1.042
113.0094 1.042
113.0397 0.885
113.0700 1.198
113.1003 0.885
113.1306 1.042
113.1608 0.781
113.1911 0.990
113.2214 0.677
113.2517 0.937
113.2819 0.521
113.3122 1.042
113.3425 0.781
113.3728 0.937
113.4031 1.198
113.4333 0.990
113.4636 1.302
113.4939 1.042
113.5242 0.990
113.5545 0.833
113.5847 1.302
113.6150 1.094
113.6453 1.250
113.6756 0.573
113.7058 1.302
113.7361 0.885
113.7664 0.625
113.7967 1.094
113.8270 1.302
113.8572 1.198
113.8875 0.937
113.9178 0.937
113.9481 1.094
113.9784 0.833
114.0086 0.833
114.0389 1.094
114.0692 0.833
114.0995 0.781
114.1298 1.146
114.1600 0.937
114.1903 0.937
114.2206 1.146
114.2509 1.094
114.2811 1.042
114.3114 1.146
114.3417 1.198
114.3720 1.146
114.4023 1.458
114.4325 0.937
114.4628 1.146
114.4931 1.510
114.5234 1.094
114.5537 1.146
114.5839 0.833
114.6142 1.406
114.6445 0.990
114.6748 0.937
114.7050 1.094
114.7353 1.250
114.7656 1.146
114.7959 1.094
114.8262 1.042
114.8564 1.458
114.8867 0.781
114.9170 1.198
114.9473 1.302
114.9776 1.146
115.0078 0.937
115.0381 1.302
115.0684 1.146
115.0987 1.146
115.1289 1.875
115.1592 1.042
115.1895 0.937
115.2198 0.937
115.2501 1.406
115.2803 1.146
115.3106 1.406
115.3409 1.250
115.3712 1.510
115.4015 1.094
115.4317 1.979
115.4620 1.458
115.4923 1.562
115.5226 0.729
115.5528 1.719
115.5831 1.354
115.6134 1.354
115.6437 1.302
115.6740 1.719
115.7042 1.823
115.7345 1.510
115.7648 1.615
115.7951 1.875
115.8254 1.458
115.8556 1.927
115.8859 2.187
115.9162 1.927
115.9465 1.771
115.9767 1.823
116.0070 2.917
116.0373 2.135
116.0676 1.458
116.0979 2.656
116.1281 2.187
116.1584 1.979
116.1887 1.875
116.2190 1.719
116.2493 2.500
116.2795 1.927
116.3098 1.927
116.3401 1.927
116.3704 1.823
116.4006 2.292
116.4309 1.927
116.4612 2.135
116.4915 1.510
116.5218 2.552
116.5520 2.552
116.5823 2.292
116.6126 1.823
116.6429 1.875
116.6732 1.823
116.7034 1.510
116.7337 1.719
116.7640 1.927
116.7943 1.927
116.8245 1.198
116.8548 1.667
116.8851 1.458
116.9154 1.302
116.9457 1.354
116.9759 1.927
117.0062 1.510
117.0365 1.146
117.0668 1.406
117.0971 1.615
117.1273 1.146
117.1576 1.667
117.1879 1.198
117.2182 1.771
117.2485 1.510
117.2787 1.198
117.3090 1.198
117.3393 1.198
117.3696 1.458
117.3998 1.250
117.4301 1.146
117.4604 0.729
117.4907 0.937
117.5210 1.198
117.5512 0.990
117.5815 1.302
117.6118 1.719
117.6421 1.250
117.6724 1.042
117.7026 1.250
117.7329 1.042
117.7632 1.042
117.7935 0.729
117.8237 1.250
117.8540 1.406
117.8843 1.562
117.9146 0.885
117.9449 0.885
117.9751 1.406
118.0054 0.833
118.0357 0.937
118.0660 1.094
118.0963 1.094
118.1265 1.198
118.1568 1.302
118.1871 0.781
118.2174 1.146
118.2476 0.990
118.2779 1.042
118.3082 0.781
118.3385 1.250
118.3688 1.198
118.3990 0.885
118.4293 1.406
118.4596 0.833
118.4899 0.729
118.5202 1.146
118.5504 1.094
118.5807 1.198
118.6110 0.729
118.6413 1.094
118.6715 0.677
118.7018 0.729
118.7321 1.250
118.7624 0.937
118.7927 1.042
118.8229 0.729
118.8532 1.042
118.8835 1.042
118.9138 0.573
118.9441 0.729
118.9743 0.990
119.0046 0.833
119.0349 0.781
119.0652 1.198
119.0954 1.042
119.1257 1.042
119.1560 0.677
119.1863 1.250
119.2166 1.094
119.2468 1.302
119.2771 0.990
119.3074 1.250
119.3377 1.042
119.3680 0.885
119.3982 1.094
119.4285 1.354
119.4588 0.625
119.4891 0.990
119.5193 0.677
119.5496 1.198
119.5799 1.094
119.6102 1.146
119.6405 0.677
119.6707 1.042
119.7010 1.094
119.7313 0.833
119.7616 1.302
119.7919 1.094
119.8221 1.042
119.8524 1.354
119.8827 1.250
119.9130 1.615
119.9433 1.302
119.9735 1.094
120.0038 1.146
