'Id: "" Comment: "" Operator: "Lab Manager" Anode: "Cu" Scantype: "Locked Coupled" TimePerStep: "19.2" X: "9999" Y: "9999" Z: "9999" 
10.0015 3.646
10.0318 3.333
10.0620 3.281
10.0923 4.219
10.1226 3.854
10.1529 3.594
10.1832 2.917
10.2134 3.229
10.2437 3.854
10.2740 3.437
10.3043 3.385
10.3346 3.542
10.3648 3.906
10.3951 4.115
10.4254 3.802
10.4557 3.542
10.4859 3.594
10.5162 4.010
10.5465 2.865
10.5768 3.125
10.6071 4.323
10.6373 3.802
10.6676 3.594
10.6979 3.958
10.7282 3.437
10.7585 3.698
10.7887 3.229
10.8190 3.385
10.8493 5.052
10.8796 3.021
10.9098 3.437
10.9401 3.698
10.9704 2.812
11.0007 3.333
11.0310 3.542
11.0612 2.812
11.0915 3.906
11.1218 3.802
11.1521 2.865
11.1824 3.281
11.2126 3.854
11.2429 2.708
11.2732 4.010
11.3035 3.750
11.3337 3.542
11.3640 3.490
11.3943 3.906
11.4246 3.073
11.4549 3.437
11.4851 2.917
11.5154 3.490
11.5457 2.760
11.5760 3.073
11.6063 3.281
11.6365 3.021
11.6668 4.427
11.6971 3.646
11.7274 3.802
11.7577 3.698
11.7879 3.854
11.8182 4.375
11.8485 3.437
11.8788 2.500
11.9090 3.385
11.9393 3.125
11.9696 3.021
11.9999 3.594
12.0302 2.969
12.0604 4.896
12.0907 2.604
12.1210 3.073
12.1513 3.542
12.1816 3.646
12.2118 3.125
12.2421 2.448
12.2724 3.906
12.3027 2.917
12.3329 3.281
12.3632 3.542
12.3935 3.229
12.4238 3.021
12.4541 2.656
12.4843 3.333
12.5146 2.396
12.5449 2.917
12.5752 2.969
12.6055 3.177
12.6357 3.229
12.6660 2.240
12.6963 2.344
12.7266 3.698
12.7568 3.333
12.7871 3.281
12.8174 3.125
12.8477 2.969
12.8780 3.229
12.9082 2.760
12.9385 2.760
12.9688 3.281
12.9991 3.229
13.0294 3.021
13.0596 3.437
13.0899 2.500
13.1202 2.917
13.1505 3.229
13.1807 2.344
13.2110 2.760
13.2413 3.281
13.2716 2.917
13.3019 2.187
13.3321 3.490
13.3624 2.917
13.3927 2.917
13.4230 3.073
13.4533 2.865
13.4835 2.292
13.5138 4.115
13.5441 3.177
13.5744 3.125
13.6046 2.604
13.6349 3.021
13.6652 3.698
13.6955 2.396
13.7258 2.812
13.7560 3.385
13.7863 3.542
13.8166 3.490
13.8469 2.135
13.8772 2.448
13.9074 3.177
13.9377 3.177
13.9680 2.812
13.9983 2.812
14.0285 2.708
14.0588 2.708
14.0891 2.708
14.1194 3.437
14.1497 2.240
14.1799 3.385
14.2102 2.760
14.2405 2.812
14.2708 3.125
14.3011 3.281
14.3313 3.281
14.3616 3.333
14.3919 2.656
14.4222 3.437
14.4524 2.917
14.4827 2.969
14.5130 2.969
14.5433 2.031
14.5736 3.125
14.6038 3.021
14.6341 2.344
14.6644 2.917
14.6947 3.021
14.7250 2.812
14.7552 2.187
14.7855 2.969
14.8158 3.229
14.8461 2.865
14.8764 2.656
14.9066 2.760
14.9369 2.917
14.9672 3.229
14.9975 3.229
15.0277 3.177
15.0580 2.396
15.0883 2.969
15.1186 3.281
15.1489 3.333
15.1791 2.865
15.2094 3.437
15.2397 3.125
15.2700 2.812
15.3003 2.552
15.3305 2.708
15.3608 2.760
15.3911 2.917
15.4214 3.125
15.4516 2.969
15.4819 2.708
15.5122 2.240
15.5425 2.917
15.5728 2.604
15.6030 3.073
15.6333 2.396
15.6636 3.073
15.6939 3.177
15.7242 1.927
15.7544 2.656
15.7847 2.604
15.8150 3.021
15.8453 3.333
15.8755 2.812
15.9058 2.760
15.9361 3.125
15.9664 2.969
15.9967 3.490
16.0269 3.073
16.0572 2.812
16.0875 3.281
16.1178 2.656
16.1481 2.500
16.1783 2.865
16.2086 3.021
16.2389 2.083
16.2692 1.771
16.2994 3.490
16.3297 2.240
16.3600 3.594
16.3903 3.125
16.4206 3.073
16.4508 3.125
16.4811 2.500
16.5114 2.656
16.5417 2.812
16.5720 2.292
16.6022 2.448
16.6325 2.344
16.6628 3.646
16.6931 3.177
16.7233 3.333
16.7536 3.490
16.7839 3.177
16.8142 3.542
16.8445 3.229
16.8747 3.854
16.9050 2.865
16.9353 3.958
16.9656 3.073
16.9959 2.552
17.0261 2.865
17.0564 2.604
17.0867 3.333
17.1170 3.594
17.1472 2.812
17.1775 2.604
17.2078 2.708
17.2381 2.760
17.2684 2.240
17.2986 3.281
17.3289 2.708
17.3592 3.073
17.3895 2.344
17.4198 2.865
17.4500 3.385
17.4803 2.448
17.5106 2.917
17.5409 2.135
17.5712 2.812
17.6014 2.240
17.6317 3.073
17.6620 1.719
17.6923 2.969
17.7225 3.021
17.7528 2.604
17.7831 2.917
17.8134 2.865
17.8437 2.135
17.8739 2.708
17.9042 2.240
17.9345 2.448
17.9648 2.969
17.9951 2.448
18.0253 3.125
18.0556 2.500
18.0859 2.187
18.1162 2.083
18.1464 3.125
18.1767 3.229
18.2070 2.292
18.2373 2.552
18.2676 3.125
18.2978 3.021
18.3281 2.083
18.3584 2.187
18.3887 2.396
18.4190 2.656
18.4492 3.385
18.4795 3.594
18.5098 2.396
18.5401 3.125
18.5703 3.177
18.6006 3.229
18.6309 2.812
18.6612 2.812
18.6915 3.281
18.7217 1.927
18.7520 2.865
18.7823 3.021
18.8126 2.135
18.8429 2.969
18.8731 3.021
18.9034 2.865
18.9337 3.594
18.9640 2.500
18.9942 2.708
19.0245 2.708
19.0548 2.396
19.0851 2.448
19.1154 2.396
19.1456 2.656
19.1759 4.115
19.2062 2.135
19.2365 1.979
19.2668 1.771
19.2970 2.031
19.3273 2.500
19.3576 2.448
19.3879 2.552
19.4181 2.292
19.4484 2.552
19.4787 2.344
19.5090 2.344
19.5393 2.396
19.5695 2.448
19.5998 1.771
19.6301 2.396
19.6604 2.812
19.6907 3.229
19.7209 1.615
19.7512 2.240
19.7815 2.760
19.8118 2.812
19.8420 2.917
19.8723 2.656
19.9026 1.875
19.9329 2.708
19.9632 2.292
19.9934 2.969
20.0237 2.031
20.0540 3.698
20.0843 2.031
20.1146 2.344
20.1448 1.979
20.1751 2.500
20.2054 2.448
20.2357 2.344
20.2659 2.083
20.2962 3.385
20.3265 2.396
20.3568 2.396
20.3871 1.927
20.4173 3.490
20.4476 2.500
20.4779 2.917
20.5082 2.240
20.5385 2.865
20.5687 2.448
20.5990 2.031
20.6293 2.292
20.6596 2.812
20.6899 2.240
20.7201 3.125
20.7504 2.240
20.7807 3.021
20.8110 2.865
20.8412 2.552
20.8715 2.812
20.9018 2.344
20.9321 2.292
20.9624 2.135
20.9926 2.344
21.0229 3.229
21.0532 3.073
21.0835 2.708
21.1138 2.292
21.1440 2.135
21.1743 2.240
21.2046 2.969
21.2349 2.552
21.2651 2.344
21.2954 2.865
21.3257 2.760
21.3560 2.292
21.3863 2.031
21.4165 2.552
21.4468 2.396
21.4771 2.604
21.5074 2.083
21.5377 3.021
21.5679 2.917
21.5982 2.031
21.6285 2.448
21.6588 2.396
21.6890 2.396
21.7193 2.083
21.7496 2.031
21.7799 2.187
21.8102 2.448
21.8404 1.979
21.8707 2.292
21.9010 2.760
21.9313 1.927
21.9616 2.760
21.9918 2.604
22.0221 2.396
22.0524 3.073
22.0827 1.562
22.1129 2.604
22.1432 2.500
22.1735 2.187
22.2038 2.083
22.2341 1.875
22.2643 1.562
22.2946 2.187
22.3249 2.031
22.3552 2.344
22.3855 1.510
22.4157 2.396
22.4460 2.135
22.4763 2.031
22.5066 2.292
22.5368 2.031
22.5671 1.927
22.5974 2.917
22.6277 2.292
22.6580 2.656
22.6882 2.656
22.7185 2.083
22.7488 2.240
22.7791 2.500
22.8094 1.406
22.8396 1.875
22.8699 2.083
22.9002 1.875
22.9305 2.135
22.9607 2.031
22.9910 1.719
23.0213 2.292
23.0516 2.865
23.0819 2.344
23.1121 1.458
23.1424 1.979
23.1727 3.125
23.2030 1.927
23.2333 2.344
23.2635 2.031
23.2938 2.812
23.3241 2.552
23.3544 2.187
23.3846 2.240
23.4149 2.344
23.4452 2.865
23.4755 2.656
23.5058 2.448
23.5360 2.187
23.5663 1.927
23.5966 1.719
23.6269 2.708
23.6572 1.510
23.6874 1.823
23.7177 2.396
23.7480 2.500
23.7783 2.240
23.8086 1.823
23.8388 1.562
23.8691 2.812
23.8994 1.823
23.9297 2.031
23.9599 2.865
23.9902 2.865
24.0205 1.719
24.0508 2.135
24.0811 3.125
24.1113 1.979
24.1416 1.979
24.1719 1.875
24.2022 2.240
24.2325 2.604
24.2627 2.135
24.2930 2.031
24.3233 2.552
24.3536 2.396
24.3838 1.771
24.4141 3.229
24.4444 2.812
24.4747 1.875
24.5050 2.448
24.5352 2.083
24.5655 1.979
24.5958 3.073
24.6261 2.552
24.6564 3.021
24.6866 2.344
24.7169 1.979
24.7472 3.281
24.7775 1.875
24.8077 2.083
24.8380 2.083
24.8683 2.135
24.8986 1.875
24.9289 2.969
24.9591 2.708
24.9894 2.656
25.0197 2.760
25.0500 2.708
25.0803 2.344
25.1105 2.708
25.1408 2.292
25.1711 3.229
25.2014 2.292
25.2316 2.187
25.2619 1.979
25.2922 2.187
25.3225 3.281
25.3528 1.823
25.3830 2.292
25.4133 2.344
25.4436 2.344
25.4739 2.292
25.5042 2.812
25.5344 2.292
25.5647 1.771
25.5950 2.396
25.6253 1.875
25.6555 2.083
25.6858 2.240
25.7161 2.917
25.7464 2.240
25.7767 2.760
25.8069 3.229
25.8372 2.344
25.8675 2.083
25.8978 1.875
25.9281 2.552
25.9583 2.865
25.9886 2.760
26.0189 2.552
26.0492 2.865
26.0794 2.083
26.1097 2.552
26.1400 2.656
26.1703 2.917
26.2006 2.292
26.2308 2.500
26.2611 2.135
26.2914 3.125
26.3217 2.708
26.3520 1.875
26.3822 2.135
26.4125 2.448
26.4428 2.760
26.4731 2.396
26.5034 2.187
26.5336 3.229
26.5639 1.823
26.5942 2.708
26.6245 2.969
26.6547 2.500
26.6850 2.604
26.7153 2.604
26.7456 2.865
26.7759 2.135
26.8061 2.865
26.8364 2.083
26.8667 2.240
26.8970 2.865
26.9273 3.229
26.9575 2.708
26.9878 2.708
27.0181 3.698
27.0484 2.448
27.0786 2.708
27.1089 2.083
27.1392 2.500
27.1695 2.760
27.1998 2.500
27.2300 2.083
27.2603 2.865
27.2906 2.396
27.3209 1.354
27.3512 2.604
27.3814 3.542
27.4117 1.562
27.4420 3.281
27.4723 2.552
27.5025 3.125
27.5328 2.708
27.5631 2.031
27.5934 2.812
27.6237 2.604
27.6539 2.240
27.6842 2.031
27.7145 2.552
27.7448 3.073
27.7751 2.500
27.8053 3.437
27.8356 2.396
27.8659 2.292
27.8962 2.969
27.9264 2.760
27.9567 3.021
27.9870 2.500
28.0173 3.125
28.0476 2.708
28.0778 2.240
28.1081 2.865
28.1384 3.437
28.1687 2.448
28.1990 2.656
28.2292 3.021
28.2595 2.812
28.2898 3.490
28.3201 3.229
28.3503 2.604
28.3806 2.865
28.4109 2.604
28.4412 3.854
28.4715 3.229
28.5017 2.865
28.5320 2.552
28.5623 2.500
28.5926 2.292
28.6229 3.594
28.6531 3.229
28.6834 2.448
28.7137 3.594
28.7440 3.125
28.7742 2.812
28.8045 2.656
28.8348 2.552
28.8651 3.750
28.8954 2.344
28.9256 3.437
28.9559 3.281
28.9862 3.229
29.0165 2.656
29.0468 2.344
29.0770 2.656
29.1073 2.708
29.1376 2.917
29.1679 2.552
29.1981 3.333
29.2284 3.125
29.2587 2.708
29.2890 2.969
29.3193 3.646
29.3495 3.698
29.3798 3.229
29.4101 3.542
29.4404 3.177
29.4707 3.750
29.5009 3.177
29.5312 3.437
29.5615 4.115
29.5918 3.385
29.6221 3.646
29.6523 3.177
29.6826 3.802
29.7129 4.375
29.7432 3.646
29.7734 4.115
29.8037 4.062
29.8340 4.219
29.8643 3.021
29.8946 3.906
29.9248 4.375
29.9551 4.062
29.9854 3.802
30.0157 3.698
30.0460 4.219
30.0762 4.427
30.1065 4.479
30.1368 4.740
30.1671 4.531
30.1973 3.854
30.2276 3.646
30.2579 5.156
30.2882 4.375
30.3185 4.948
30.3487 4.740
30.3790 4.583
30.4093 5.156
30.4396 4.271
30.4699 4.792
30.5001 5.365
30.5304 5.469
30.5607 5.781
30.5910 5.312
30.6212 5.990
30.6515 5.625
30.6818 5.156
30.7121 7.240
30.7424 7.760
30.7726 7.969
30.8029 7.187
30.8332 6.927
30.8635 8.281
30.8938 8.021
30.9240 7.708
30.9543 8.750
30.9846 10.625
31.0149 9.740
31.0451 9.375
31.0754 9.583
31.1057 10.208
31.1360 13.750
31.1663 12.292
31.1965 11.406
31.2268 15.573
31.2571 15.156
31.2874 16.406
31.3177 17.500
31.3479 21.823
31.3782 21.667
31.4085 24.115
31.4388 31.042
31.4690 32.344
31.4993 35.885
31.5296 39.271
31.5599 40.365
31.5902 42.240
31.6204 42.344
31.6507 44.844
31.6810 43.073
31.7113 42.031
31.7416 37.708
31.7718 34.583
31.8021 29.844
31.8324 26.771
31.8627 24.271
31.8929 22.760
31.9232 19.635
31.9535 20.521
31.9838 17.240
32.0141 16.094
32.0443 14.792
32.0746 12.552
32.1049 12.031
32.1352 12.031
32.1655 9.844
32.1957 8.542
32.2260 9.323
32.2563 10.156
32.2866 7.344
32.3169 9.844
32.3471 7.812
32.3774 7.969
32.4077 7.552
32.4380 7.708
32.4682 7.187
32.4985 6.406
32.5288 6.562
32.5591 5.208
32.5894 6.198
32.6196 6.198
32.6499 5.417
32.6802 5.990
32.7105 5.417
32.7408 5.260
32.7710 5.937
32.8013 5.260
32.8316 5.885
32.8619 6.250
32.8921 5.156
32.9224 6.198
32.9527 5.833
32.9830 4.896
33.0133 5.521
33.0435 4.896
33.0738 5.208
33.1041 6.458
33.1344 5.208
33.1647 5.365
33.1949 5.937
33.2252 5.365
33.2555 5.885
33.2858 4.844
33.3160 4.583
33.3463 6.094
33.3766 6.250
33.4069 4.896
33.4372 5.729
33.4674 6.615
33.4977 6.771
33.5280 5.573
33.5583 5.677
33.5886 5.990
33.6188 6.458
33.6491 6.667
33.6794 6.927
33.7097 7.031
33.7399 8.177
33.7702 5.885
33.8005 7.187
33.8308 8.646
33.8611 9.323
33.8913 10.000
33.9216 10.781
33.9519 11.042
33.9822 13.906
34.0125 12.656
34.0427 16.562
34.0730 17.708
34.1033 18.802
34.1336 23.125
34.1638 29.115
34.1941 34.323
34.2244 39.583
34.2547 49.375
34.2850 53.854
34.3152 52.135
34.3455 51.667
34.3758 40.833
34.4061 37.083
34.4364 31.094
34.4666 26.094
34.4969 20.156
34.5272 17.500
34.5575 17.083
34.5877 15.052
34.6180 13.958
34.6483 11.354
34.6786 11.823
34.7089 11.615
34.7391 9.271
34.7694 9.896
34.7997 9.115
34.8300 10.417
34.8603 7.760
34.8905 7.760
34.9208 8.177
34.9511 9.427
34.9814 8.802
35.0116 7.656
35.0419 7.969
35.0722 8.594
35.1025 9.010
35.1328 7.500
35.1630 8.542
35.1933 9.167
35.2236 9.583
35.2539 9.271
35.2842 9.635
35.3144 10.729
35.3447 11.771
35.3750 11.094
35.4053 11.771
35.4356 10.885
35.4658 10.312
35.4961 10.625
35.5264 14.323
35.5567 14.271
35.5869 14.271
35.6172 16.927
35.6475 16.510
35.6778 18.750
35.7081 19.687
35.7383 23.177
35.7686 24.323
35.7989 25.312
35.8292 30.625
35.8595 33.490
35.8897 34.740
35.9200 36.771
35.9503 40.365
35.9806 48.698
36.0108 53.646
36.0411 53.906
36.0714 59.167
36.1017 61.979
36.1320 61.927
36.1622 60.208
36.1925 59.844
36.2228 58.906
36.2531 54.219
36.2834 50.625
36.3136 42.344
36.3439 40.208
36.3742 35.365
36.4045 28.958
36.4347 26.094
36.4650 22.552
36.4953 21.719
36.5256 20.469
36.5559 19.115
36.5861 16.771
36.6164 16.250
36.6467 11.771
36.6770 12.187
36.7073 11.979
36.7375 11.094
36.7678 9.948
36.7981 10.729
36.8284 8.854
36.8586 7.656
36.8889 7.865
36.9192 6.979
36.9495 7.604
36.9798 8.385
37.0100 6.771
37.0403 7.917
37.0706 7.240
37.1009 6.875
37.1312 5.677
37.1614 6.094
37.1917 5.417
37.2220 5.000
37.2523 5.469
37.2825 4.844
37.3128 5.052
37.3431 4.896
37.3734 6.094
37.4037 4.896
37.4339 5.052
37.4642 4.062
37.4945 4.167
37.5248 3.125
37.5551 4.271
37.5853 4.062
37.6156 4.167
37.6459 5.000
37.6762 3.750
37.7064 4.115
37.7367 4.427
37.7670 3.594
37.7973 4.375
37.8276 3.490
37.8578 3.542
37.8881 3.490
37.9184 3.490
37.9487 3.490
37.9790 4.062
38.0092 3.229
38.0395 3.177
38.0698 3.750
38.1001 3.333
38.1304 2.969
38.1606 3.125
38.1909 4.271
38.2212 3.437
38.2515 2.448
38.2817 3.177
38.3120 2.969
38.3423 3.281
38.3726 2.396
38.4029 3.385
38.4331 2.917
38.4634 2.656
38.4937 3.281
38.5240 2.396
38.5543 2.240
38.5845 2.708
38.6148 2.292
38.6451 2.448
38.6754 2.865
38.7056 2.500
38.7359 2.135
38.7662 2.240
38.7965 3.437
38.8268 2.969
38.8570 2.187
38.8873 2.083
38.9176 2.135
38.9479 2.760
38.9782 2.500
39.0084 2.760
39.0387 1.823
39.0690 2.135
39.0993 2.448
39.1295 2.969
39.1598 2.760
39.1901 2.396
39.2204 2.500
39.2507 2.865
39.2809 2.604
39.3112 2.396
39.3415 2.500
39.3718 2.344
39.4021 2.448
39.4323 2.812
39.4626 2.187
39.4929 1.667
39.5232 1.979
39.5534 2.448
39.5837 1.875
39.6140 2.448
39.6443 2.448
39.6746 2.031
39.7048 1.562
39.7351 2.656
39.7654 1.562
39.7957 2.969
39.8260 1.979
39.8562 2.396
39.8865 1.510
39.9168 2.396
39.9471 1.823
39.9773 2.135
40.0076 2.135
40.0379 1.719
40.0682 1.667
40.0985 2.656
40.1287 2.240
40.1590 2.240
40.1893 2.396
40.2196 2.396
40.2499 2.187
40.2801 1.823
40.3104 2.448
40.3407 1.615
40.3710 1.979
40.4012 2.396
40.4315 1.615
40.4618 2.656
40.4921 1.719
40.5224 1.927
40.5526 2.240
40.5829 1.979
40.6132 2.083
40.6435 2.240
40.6738 2.240
40.7040 2.292
40.7343 2.031
40.7646 1.823
40.7949 1.927
40.8251 2.292
40.8554 1.615
40.8857 2.031
40.9160 1.823
40.9463 1.927
40.9765 1.719
41.0068 1.615
41.0371 1.771
41.0674 1.875
41.0977 1.979
41.1279 1.875
41.1582 1.667
41.1885 1.823
41.2188 2.552
41.2491 2.344
41.2793 2.396
41.3096 2.292
41.3399 1.302
41.3702 1.875
41.4004 2.083
41.4307 1.719
41.4610 1.458
41.4913 2.240
41.5216 1.458
41.5518 1.615
41.5821 1.875
41.6124 2.187
41.6427 1.823
41.6730 1.771
41.7032 1.979
41.7335 1.823
41.7638 1.771
41.7941 1.250
41.8243 2.031
41.8546 1.979
41.8849 2.031
41.9152 1.927
41.9455 1.771
41.9757 1.979
42.0060 1.927
42.0363 1.927
42.0666 1.667
42.0969 1.719
42.1271 2.240
42.1574 2.031
42.1877 1.979
42.2180 2.083
42.2482 1.875
42.2785 2.500
42.3088 1.562
42.3391 2.031
42.3694 2.135
42.3996 1.875
42.4299 1.667
42.4602 1.719
42.4905 2.187
42.5208 2.083
42.5510 1.823
42.5813 1.823
42.6116 1.562
42.6419 2.031
42.6721 1.667
42.7024 2.031
42.7327 2.083
42.7630 1.250
42.7933 2.031
42.8235 2.135
42.8538 1.667
42.8841 1.771
42.9144 1.875
42.9447 1.667
42.9749 1.667
43.0052 1.823
43.0355 1.667
43.0658 1.927
43.0960 2.031
43.1263 1.510
43.1566 2.083
43.1869 2.135
43.2172 1.615
43.2474 1.719
43.2777 1.875
43.3080 1.875
43.3383 1.615
43.3686 2.135
43.3988 1.771
43.4291 1.771
43.4594 1.771
43.4897 1.875
43.5199 1.510
43.5502 1.927
43.5805 2.604
43.6108 1.979
43.6411 2.031
43.6713 1.823
43.7016 1.354
43.7319 1.875
43.7622 2.135
43.7925 1.771
43.8227 2.448
43.8530 1.771
43.8833 1.615
43.9136 1.823
43.9439 1.823
43.9741 2.031
44.0044 1.875
44.0347 1.719
44.0650 1.823
44.0952 1.771
44.1255 2.135
44.1558 2.187
44.1861 1.771
44.2164 1.823
44.2466 1.667
44.2769 1.562
44.3072 1.823
44.3375 1.979
44.3678 2.240
44.3980 1.198
44.4283 1.354
44.4586 2.187
44.4889 1.979
44.5191 2.083
44.5494 1.719
44.5797 2.292
44.6100 1.875
44.6403 2.344
44.6705 1.719
44.7008 1.823
44.7311 2.135
44.7614 1.719
44.7917 1.562
44.8219 1.406
44.8522 1.667
44.8825 1.979
44.9128 1.875
44.9430 1.979
44.9733 2.344
45.0036 2.240
45.0339 2.135
45.0642 1.927
45.0944 1.719
45.1247 2.760
45.1550 2.083
45.1853 2.031
45.2156 2.760
45.2458 2.083
45.2761 1.979
45.3064 2.396
45.3367 1.458
45.3669 1.979
45.3972 1.667
45.4275 1.823
45.4578 2.604
45.4881 1.354
45.5183 2.396
45.5486 1.615
45.5789 1.719
45.6092 1.667
45.6395 2.135
45.6697 1.562
45.7000 2.656
45.7303 2.083
45.7606 2.448
45.7908 2.240
45.8211 1.615
45.8514 1.823
45.8817 2.708
45.9120 2.865
45.9422 3.229
45.9725 2.604
46.0028 2.917
46.0331 2.240
46.0634 2.240
46.0936 1.979
46.1239 2.448
46.1542 2.135
46.1845 1.875
46.2147 2.292
46.2450 2.083
46.2753 1.771
46.3056 2.865
46.3359 3.281
46.3661 2.969
46.3964 2.344
46.4267 2.187
46.4570 3.594
46.4873 2.760
46.5175 3.125
46.5478 2.812
46.5781 2.969
46.6084 3.125
46.6386 2.656
46.6689 2.865
46.6992 3.542
46.7295 3.802
46.7598 3.542
46.7900 4.271
46.8203 4.219
46.8506 3.802
46.8809 4.948
46.9112 4.375
46.9414 5.260
46.9717 5.000
47.0020 5.573
47.0323 6.615
47.0626 6.927
47.0928 6.406
47.1231 7.344
47.1534 8.646
47.1837 7.135
47.2139 9.375
47.2442 9.531
47.2745 11.510
47.3048 10.885
47.3351 11.042
47.3653 12.344
47.3956 13.646
47.4259 13.177
47.4562 13.333
47.4865 12.500
47.5167 12.448
47.5470 12.552
47.5773 10.104
47.6076 10.208
47.6378 9.375
47.6681 7.812
47.6984 7.031
47.7287 6.823
47.7590 6.927
47.7892 5.833
47.8195 4.687
47.8498 5.104
47.8801 4.375
47.9104 3.802
47.9406 4.010
47.9709 3.542
48.0012 3.594
48.0315 2.708
48.0617 3.646
48.0920 3.073
48.1223 4.167
48.1526 2.969
48.1829 3.073
48.2131 2.604
48.2434 2.396
48.2737 3.021
48.3040 2.292
48.3343 2.396
48.3645 2.604
48.3948 2.083
48.4251 2.031
48.4554 1.823
48.4856 2.292
48.5159 2.344
48.5462 2.604
48.5765 2.240
48.6068 2.344
48.6370 1.562
48.6673 2.292
48.6976 2.240
48.7279 2.448
48.7582 2.448
48.7884 2.187
48.8187 1.510
48.8490 1.719
48.8793 1.719
48.9095 1.771
48.9398 2.187
48.9701 1.719
49.0004 2.031
49.0307 1.719
49.0609 1.719
49.0912 1.510
49.1215 1.927
49.1518 1.667
49.1821 2.031
49.2123 2.292
49.2426 1.615
49.2729 1.771
49.3032 1.927
49.3334 1.562
49.3637 2.083
49.3940 2.187
49.4243 1.719
49.4546 2.187
49.4848 2.396
49.5151 1.927
49.5454 1.562
49.5757 1.719
49.6060 2.083
49.6362 2.292
49.6665 1.406
49.6968 1.458
49.7271 2.083
49.7574 2.135
49.7876 1.875
49.8179 2.187
49.8482 1.823
49.8785 1.719
49.9087 1.615
49.9390 1.510
49.9693 1.927
49.9996 1.979
50.0299 1.823
50.0601 1.667
50.0904 1.979
50.1207 1.667
50.1510 1.823
50.1813 1.979
50.2115 1.562
50.2418 2.031
50.2721 1.667
50.3024 1.979
50.3326 1.771
50.3629 2.083
50.3932 2.396
50.4235 1.979
50.4538 1.979
50.4840 1.927
50.5143 1.615
50.5446 1.927
50.5749 1.823
50.6052 2.083
50.6354 1.875
50.6657 1.719
50.6960 1.250
50.7263 1.771
50.7565 2.083
50.7868 1.927
50.8171 2.344
50.8474 1.719
50.8777 1.406
50.9079 1.979
50.9382 1.302
50.9685 1.667
50.9988 2.031
51.0291 2.031
51.0593 1.979
51.0896 1.615
51.1199 1.927
51.1502 1.979
51.1804 1.458
51.2107 2.083
51.2410 1.667
51.2713 1.406
51.3016 1.406
51.3318 1.406
51.3621 1.510
51.3924 1.615
51.4227 1.562
51.4530 1.823
51.4832 2.031
51.5135 1.667
51.5438 1.979
51.5741 1.198
51.6043 1.094
51.6346 1.198
51.6649 1.354
51.6952 1.615
51.7255 1.406
51.7557 1.875
51.7860 1.979
51.8163 1.927
51.8466 1.510
51.8769 2.187
51.9071 1.719
51.9374 2.656
51.9677 1.562
51.9980 1.562
52.0282 2.187
52.0585 2.083
52.0888 1.146
52.1191 1.250
52.1494 1.927
52.1796 1.510
52.2099 2.240
52.2402 2.083
52.2705 1.719
52.3008 1.510
52.3310 1.719
52.3613 1.719
52.3916 1.927
52.4219 1.771
52.4521 1.823
52.4824 1.615
52.5127 2.135
52.5430 1.667
52.5733 1.406
52.6035 2.240
52.6338 1.875
52.6641 1.771
52.6944 1.719
52.7247 1.875
52.7549 2.031
52.7852 1.771
52.8155 2.187
52.8458 1.719
52.8761 1.719
52.9063 1.979
52.9366 1.458
52.9669 1.354
52.9972 2.552
53.0274 2.135
53.0577 1.198
53.0880 2.187
53.1183 2.031
53.1486 2.031
53.1788 2.187
53.2091 1.562
53.2394 2.135
53.2697 2.187
53.3000 1.875
53.3302 1.823
53.3605 2.187
53.3908 1.823
53.4211 2.031
53.4513 1.250
53.4816 1.667
53.5119 1.406
53.5422 1.510
53.5725 1.719
53.6027 1.979
53.6330 2.187
53.6633 1.927
53.6936 1.458
53.7239 1.406
53.7541 1.771
53.7844 2.187
53.8147 1.823
53.8450 2.240
53.8752 1.875
53.9055 2.292
53.9358 1.979
53.9661 2.135
53.9964 1.823
54.0266 1.823
54.0569 1.875
54.0872 1.615
54.1175 2.240
54.1478 2.604
54.1780 2.344
54.2083 2.240
54.2386 2.083
54.2689 2.187
54.2991 2.135
54.3294 2.500
54.3597 1.771
54.3900 1.979
54.4203 1.615
54.4505 2.396
54.4808 2.344
54.5111 1.771
54.5414 1.667
54.5717 2.552
54.6019 1.771
54.6322 2.396
54.6625 2.187
54.6928 1.771
54.7230 2.031
54.7533 2.083
54.7836 2.187
54.8139 2.083
54.8442 1.927
54.8744 2.344
54.9047 1.875
54.9350 1.719
54.9653 2.292
54.9956 3.229
55.0258 2.760
55.0561 2.292
55.0864 2.083
55.1167 2.396
55.1469 2.552
55.1772 3.281
55.2075 2.240
55.2378 2.917
55.2681 3.073
55.2983 2.083
55.3286 2.344
55.3589 3.229
55.3892 3.021
55.4195 2.812
55.4497 3.177
55.4800 2.812
55.5103 3.229
55.5406 2.969
55.5709 4.375
55.6011 3.594
55.6314 3.073
55.6617 3.229
55.6920 4.115
55.7222 3.802
55.7525 3.698
55.7828 4.010
55.8131 4.427
55.8434 4.687
55.8736 3.906
55.9039 5.052
55.9342 5.833
55.9645 6.094
55.9948 6.667
56.0250 6.979
56.0553 6.719
56.0856 6.771
56.1159 8.177
56.1461 9.219
56.1764 9.740
56.2067 10.573
56.2370 9.740
56.2673 11.354
56.2975 11.146
56.3278 11.510
56.3581 13.229
56.3884 15.104
56.4187 16.823
56.4489 17.083
56.4792 17.812
56.5095 15.312
56.5398 16.927
56.5700 16.458
56.6003 15.260
56.6306 14.479
56.6609 12.187
56.6912 10.625
56.7214 10.625
56.7517 8.385
56.7820 9.062
56.8123 8.177
56.8426 8.229
56.8728 6.354
56.9031 6.458
56.9334 5.625
56.9637 6.146
56.9939 5.052
57.0242 5.260
57.0545 4.792
57.0848 4.219
57.1151 4.062
57.1453 4.062
57.1756 4.323
57.2059 3.854
57.2362 4.219
57.2665 4.167
57.2967 2.240
57.3270 3.333
57.3573 3.281
57.3876 2.760
57.4178 3.229
57.4481 3.229
57.4784 2.396
57.5087 2.917
57.5390 2.708
57.5692 3.437
57.5995 2.135
57.6298 2.187
57.6601 2.240
57.6904 2.500
57.7206 2.344
57.7509 2.187
57.7812 2.344
57.8115 1.875
57.8417 2.552
57.8720 2.187
57.9023 1.927
57.9326 2.448
57.9629 2.396
57.9931 2.240
58.0234 1.719
58.0537 2.187
58.0840 2.396
58.1143 2.344
58.1445 2.135
58.1748 1.979
58.2051 1.458
58.2354 1.562
58.2656 1.354
58.2959 2.396
58.3262 1.667
58.3565 2.031
58.3868 1.719
58.4170 2.187
58.4473 1.667
58.4776 1.615
58.5079 2.396
58.5382 2.187
58.5684 1.667
58.5987 2.812
58.6290 1.979
58.6593 1.927
58.6896 2.344
58.7198 1.979
58.7501 1.719
58.7804 1.562
58.8107 1.667
58.8409 2.187
58.8712 1.823
58.9015 1.510
58.9318 1.719
58.9621 1.719
58.9923 1.719
59.0226 1.771
59.0529 1.927
59.0832 1.719
59.1135 2.083
59.1437 1.719
59.1740 1.979
59.2043 1.979
59.2346 2.083
59.2648 2.083
59.2951 1.979
59.3254 2.187
59.3557 2.240
59.3860 2.031
59.4162 2.135
59.4465 1.979
59.4768 1.823
59.5071 1.875
59.5374 1.615
59.5676 2.292
59.5979 2.500
59.6282 1.927
59.6585 1.771
59.6887 2.135
59.7190 1.562
59.7493 1.875
59.7796 2.135
59.8099 1.927
59.8401 1.875
59.8704 1.354
59.9007 1.927
59.9310 2.656
59.9613 1.562
59.9915 2.240
60.0218 2.135
60.0521 1.719
60.0824 2.187
60.1126 1.667
60.1429 1.302
60.1732 1.927
60.2035 2.240
60.2338 2.031
60.2640 1.458
60.2943 2.083
60.3246 1.875
60.3549 1.719
60.3852 1.875
60.4154 1.875
60.4457 1.979
60.4760 2.135
60.5063 1.771
60.5365 1.510
60.5668 1.979
60.5971 1.979
60.6274 1.719
60.6577 2.187
60.6879 2.135
60.7182 2.240
60.7485 1.927
60.7788 1.927
60.8091 1.458
60.8393 2.344
60.8696 3.073
60.8999 2.344
60.9302 2.344
60.9604 2.240
60.9907 2.344
61.0210 2.187
61.0513 1.771
61.0816 2.135
61.1118 2.708
61.1421 2.656
61.1724 2.083
61.2027 2.240
61.2330 2.500
61.2632 2.500
61.2935 1.719
61.3238 2.083
61.3541 2.656
61.3844 1.771
61.4146 2.031
61.4449 2.708
61.4752 2.656
61.5055 2.187
61.5357 2.812
61.5660 3.229
61.5963 2.865
61.6266 2.552
61.6569 1.927
61.6871 2.865
61.7174 2.812
61.7477 3.021
61.7780 2.396
61.8083 2.552
61.8385 3.125
61.8688 3.281
61.8991 2.708
61.9294 2.917
61.9596 3.281
61.9899 3.021
62.0202 3.281
62.0505 4.479
62.0808 3.906
62.1110 4.375
62.1413 3.490
62.1716 4.427
62.2019 4.427
62.2322 4.583
62.2624 5.469
62.2927 5.365
62.3230 6.094
62.3533 5.625
62.3835 8.750
62.4138 6.042
62.4441 6.615
62.4744 7.760
62.5047 9.115
62.5349 11.094
62.5652 10.417
62.5955 11.042
62.6258 11.094
62.6561 12.396
62.6863 13.333
62.7166 13.698
62.7469 14.271
62.7772 13.229
62.8074 15.052
62.8377 14.062
62.8680 12.812
62.8983 11.927
62.9286 11.250
62.9588 10.260
62.9891 9.948
63.0194 9.010
63.0497 8.594
63.0800 7.448
63.1102 5.937
63.1405 6.510
63.1708 5.156
63.2011 5.833
63.2313 4.948
63.2616 4.844
63.2919 4.792
63.3222 3.542
63.3525 4.219
63.3827 4.219
63.4130 3.490
63.4433 3.906
63.4736 3.854
63.5039 2.604
63.5341 3.177
63.5644 3.229
63.5947 2.604
63.6250 2.552
63.6552 3.281
63.6855 2.292
63.7158 3.490
63.7461 2.917
63.7764 2.656
63.8066 2.500
63.8369 2.865
63.8672 3.073
63.8975 2.500
63.9278 2.552
63.9580 2.240
63.9883 1.927
64.0186 2.187
64.0489 1.927
64.0791 2.187
64.1094 2.240
64.1397 1.771
64.1700 2.396
64.2003 2.500
64.2305 1.927
64.2608 2.083
64.2911 2.031
64.3214 2.292
64.3517 2.396
64.3819 2.187
64.4122 1.823
64.4425 2.760
64.4728 1.719
64.5031 2.135
64.5333 1.927
64.5636 1.771
64.5939 2.187
64.6242 1.667
64.6544 2.396
64.6847 1.875
64.7150 2.240
64.7453 1.771
64.7756 2.031
64.8058 2.760
64.8361 2.344
64.8664 2.031
64.8967 2.187
64.9270 2.448
64.9572 2.187
64.9875 2.135
65.0178 2.083
65.0481 2.187
65.0783 2.031
65.1086 1.771
65.1389 1.823
65.1692 2.448
65.1995 1.510
65.2297 1.875
65.2600 1.927
65.2903 1.771
65.3206 1.927
65.3509 1.875
65.3811 2.396
65.4114 2.448
65.4417 1.875
65.4720 1.927
65.5022 2.083
65.5325 2.031
65.5628 1.875
65.5931 2.969
65.6234 2.135
65.6536 2.552
65.6839 2.187
65.7142 2.240
65.7445 2.344
65.7748 3.281
65.8050 2.865
65.8353 2.448
65.8656 2.760
65.8959 2.708
65.9261 2.969
65.9564 3.490
65.9867 3.698
66.0170 3.073
66.0473 2.500
66.0775 3.542
66.1078 3.542
66.1381 3.542
66.1684 3.698
66.1987 3.437
66.2289 2.604
66.2592 4.167
66.2895 3.594
66.3198 3.542
66.3500 4.375
66.3803 3.958
66.4106 3.646
66.4409 2.917
66.4712 3.177
66.5014 3.333
66.5317 3.437
66.5620 3.229
66.5923 3.281
66.6226 4.375
66.6528 4.010
66.6831 2.812
66.7134 2.969
66.7437 3.958
66.7739 2.812
66.8042 2.552
66.8345 3.073
66.8648 2.917
66.8951 3.125
66.9253 2.604
66.9556 2.448
66.9859 3.698
67.0162 3.646
67.0465 2.917
67.0767 3.594
67.1070 3.073
67.1373 2.865
67.1676 3.594
67.1978 3.958
67.2281 3.333
67.2584 3.854
67.2887 4.167
67.3190 4.896
67.3492 5.000
67.3795 4.531
67.4098 5.885
67.4401 5.573
67.4704 5.990
67.5006 6.979
67.5309 6.406
67.5612 6.562
67.5915 7.656
67.6218 7.656
67.6520 8.594
67.6823 7.812
67.7126 9.792
67.7429 9.948
67.7731 10.885
67.8034 9.896
67.8337 10.208
67.8640 10.729
67.8943 10.625
67.9245 10.365
67.9548 9.948
67.9851 8.698
68.0154 8.750
68.0457 8.490
68.0759 7.969
68.1062 7.865
68.1365 8.594
68.1668 6.198
68.1970 5.990
68.2273 5.677
68.2576 7.031
68.2879 6.146
68.3182 6.458
68.3484 4.687
68.3787 4.948
68.4090 5.104
68.4393 4.427
68.4696 5.312
68.4998 4.792
68.5301 5.260
68.5604 5.469
68.5907 4.427
68.6209 5.469
68.6512 4.531
68.6815 4.531
68.7118 5.937
68.7421 5.417
68.7723 5.729
68.8026 5.573
68.8329 5.885
68.8632 5.260
68.8935 5.417
68.9237 6.458
68.9540 5.677
68.9843 6.615
69.0146 5.521
69.0448 5.937
69.0751 5.260
69.1054 4.115
69.1357 5.885
69.1660 5.833
69.1962 4.583
69.2265 4.896
69.2568 4.375
69.2871 3.958
69.3174 3.906
69.3476 4.010
69.3779 3.594
69.4082 3.333
69.4385 3.333
69.4687 3.333
69.4990 3.333
69.5293 2.708
69.5596 2.500
69.5899 2.292
69.6201 2.448
69.6504 2.135
69.6807 2.865
69.7110 2.240
69.7413 2.344
69.7715 2.656
69.8018 2.760
69.8321 1.771
69.8624 2.083
69.8926 1.667
69.9229 2.604
69.9532 2.292
69.9835 1.719
70.0138 1.875
70.0440 1.927
70.0743 2.187
70.1046 1.719
70.1349 1.667
70.1652 2.240
70.1954 1.875
70.2257 1.667
70.2560 1.719
70.2863 1.562
70.3166 2.187
70.3468 1.198
70.3771 1.562
70.4074 1.250
70.4377 1.875
70.4679 1.302
70.4982 1.562
70.5285 1.562
70.5588 1.927
70.5891 1.719
70.6193 1.510
70.6496 1.354
70.6799 1.615
70.7102 1.771
70.7405 1.094
70.7707 1.458
70.8010 1.771
70.8313 1.094
70.8616 1.562
70.8918 2.083
70.9221 1.719
70.9524 1.510
70.9827 1.458
71.0130 1.562
71.0432 1.250
71.0735 1.615
71.1038 1.771
71.1341 1.458
71.1644 1.615
71.1946 1.667
71.2249 1.927
71.2552 1.771
71.2855 1.406
71.3157 1.823
71.3460 1.562
71.3763 1.458
71.4066 2.083
71.4369 1.302
71.4671 1.250
71.4974 1.719
71.5277 1.979
71.5580 1.146
71.5883 1.510
71.6185 1.458
71.6488 1.667
71.6791 1.823
71.7094 1.510
71.7396 1.458
71.7699 1.615
71.8002 1.615
71.8305 1.927
71.8608 1.562
71.8910 1.198
71.9213 1.406
71.9516 1.250
71.9819 1.458
72.0122 1.667
72.0424 1.927
72.0727 1.406
72.1030 1.979
72.1333 1.562
72.1635 2.031
72.1938 1.823
72.2241 1.771
72.2544 1.562
72.2847 1.719
72.3149 2.031
72.3452 2.240
72.3755 1.927
72.4058 1.875
72.4361 2.187
72.4663 1.927
72.4966 2.448
72.5269 1.615
72.5572 1.823
72.5874 1.406
72.6177 1.719
72.6480 1.875
72.6783 1.927
72.7086 2.135
72.7388 1.875
72.7691 1.719
72.7994 1.198
72.8297 2.812
72.8600 0.885
72.8902 1.615
72.9205 1.719
72.9508 1.198
72.9811 1.562
73.0113 1.458
73.0416 1.719
73.0719 1.510
73.1022 1.406
73.1325 1.562
73.1627 1.198
73.1930 1.198
73.2233 1.042
73.2536 1.042
73.2839 1.562
73.3141 1.615
73.3444 1.875
73.3747 1.250
73.4050 1.875
73.4353 1.458
73.4655 1.458
73.4958 1.406
73.5261 1.354
73.5564 1.510
73.5866 1.667
73.6169 0.990
73.6472 1.198
73.6775 1.510
73.7078 1.146
73.7380 0.885
73.7683 1.771
73.7986 1.302
73.8289 1.146
73.8592 1.354
73.8894 0.885
73.9197 1.719
73.9500 1.406
73.9803 1.562
74.0105 1.562
74.0408 1.406
74.0711 1.510
74.1014 1.146
74.1317 1.302
74.1619 1.042
74.1922 1.510
74.2225 1.719
74.2528 1.146
74.2831 0.990
74.3133 1.198
74.3436 1.719
74.3739 1.562
74.4042 1.146
74.4344 1.250
74.4647 2.083
74.4950 1.198
74.5253 1.823
74.5556 1.250
74.5858 1.198
74.6161 1.250
74.6464 1.615
74.6767 0.937
74.7070 1.250
74.7372 0.990
74.7675 1.250
74.7978 1.667
74.8281 1.198
74.8583 1.458
74.8886 1.250
74.9189 1.250
74.9492 1.406
74.9795 1.510
75.0097 1.094
75.0400 1.146
75.0703 0.677
75.1006 0.885
75.1309 1.094
75.1611 1.302
75.1914 0.781
75.2217 1.510
75.2520 1.250
75.2822 1.250
75.3125 0.781
75.3428 1.510
75.3731 1.458
75.4034 1.510
75.4336 1.458
75.4639 0.573
75.4942 1.302
75.5245 0.781
75.5548 1.719
75.5850 1.510
75.6153 1.198
75.6456 1.198
75.6759 1.302
75.7061 1.823
75.7364 1.146
75.7667 0.729
75.7970 1.667
75.8273 1.562
75.8575 1.250
75.8878 1.615
75.9181 1.250
75.9484 1.354
75.9787 1.302
76.0089 2.031
76.0392 1.198
76.0695 1.667
76.0998 1.667
76.1301 1.562
76.1603 1.562
76.1906 1.510
76.2209 1.354
76.2512 1.458
76.2814 1.146
76.3117 1.510
76.3420 2.031
76.3723 1.406
76.4026 1.510
76.4328 1.562
76.4631 1.198
76.4934 2.083
76.5237 2.552
76.5540 1.562
76.5842 1.771
76.6145 2.604
76.6448 2.292
76.6751 1.667
76.7053 2.500
76.7356 1.771
76.7659 2.500
76.7962 2.187
76.8265 1.927
76.8567 3.177
76.8870 2.344
76.9173 2.240
76.9476 2.187
76.9779 2.344
77.0081 1.562
77.0384 2.083
77.0687 2.656
77.0990 1.719
77.1292 2.031
77.1595 2.656
77.1898 1.927
77.2201 1.354
77.2504 1.719
77.2806 2.135
77.3109 1.562
77.3412 1.667
77.3715 1.823
77.4018 2.031
77.4320 1.875
77.4623 1.719
77.4926 1.198
77.5229 1.510
77.5531 0.937
77.5834 1.302
77.6137 1.094
77.6440 1.562
77.6743 0.885
77.7045 1.198
77.7348 1.042
77.7651 1.667
77.7954 1.771
77.8257 1.406
77.8559 1.354
77.8862 1.667
77.9165 1.667
77.9468 1.667
77.9770 1.667
78.0073 1.615
78.0376 1.250
78.0679 1.302
78.0982 1.615
78.1284 1.510
78.1587 1.667
78.1890 1.198
78.2193 1.510
78.2496 1.146
78.2798 1.510
78.3101 1.094
78.3404 0.990
78.3707 1.510
78.4009 1.146
78.4312 1.094
78.4615 1.250
78.4918 1.146
78.5221 1.042
78.5523 1.562
78.5826 1.198
78.6129 1.198
78.6432 0.833
78.6735 1.667
78.7037 1.198
78.7340 1.823
78.7643 1.042
78.7946 0.885
78.8248 1.198
78.8551 1.042
78.8854 1.667
78.9157 1.406
78.9460 1.146
78.9762 1.250
79.0065 0.521
79.0368 0.937
79.0671 1.406
79.0974 1.667
79.1276 1.510
79.1579 1.510
79.1882 1.406
79.2185 1.042
79.2488 1.146
79.2790 1.771
79.3093 1.042
79.3396 1.562
79.3699 1.719
79.4001 1.250
79.4304 1.198
79.4607 0.937
79.4910 0.990
79.5213 1.146
79.5515 1.146
79.5818 1.354
79.6121 1.094
79.6424 1.302
79.6727 1.354
79.7029 1.198
79.7332 1.198
79.7635 1.667
79.7938 1.406
79.8240 1.406
79.8543 1.198
79.8846 1.302
79.9149 1.354
79.9452 1.198
79.9754 1.146
80.0057 1.094
80.0360 1.667
80.0663 1.302
80.0966 1.302
80.1268 1.458
80.1571 1.354
80.1874 1.719
80.2177 1.458
80.2479 1.719
80.2782 1.094
80.3085 1.302
80.3388 1.198
80.3691 1.562
80.3993 1.354
80.4296 1.302
80.4599 0.677
80.4902 1.198
80.5205 0.937
80.5507 1.094
80.5810 1.719
80.6113 1.510
80.6416 0.937
80.6718 1.198
80.7021 1.458
80.7324 1.458
80.7627 1.198
80.7930 1.250
80.8232 1.719
80.8535 1.562
80.8838 1.562
80.9141 1.406
80.9444 1.771
80.9746 1.406
81.0049 1.510
81.0352 1.406
81.0655 2.083
81.0957 1.354
81.1260 2.135
81.1563 1.719
81.1866 1.042
81.2169 1.667
81.2471 2.135
81.2774 1.406
81.3077 1.354
81.3380 1.458
81.3683 1.667
81.3985 1.927
81.4288 1.562
81.4591 1.354
81.4894 1.198
81.5196 1.354
81.5499 1.771
81.5802 1.146
81.6105 1.302
81.6408 1.510
81.6710 1.458
81.7013 1.302
81.7316 1.458
81.7619 1.562
81.7922 1.250
81.8224 1.198
81.8527 1.302
81.8830 0.677
81.9133 1.198
81.9436 1.250
81.9738 1.146
82.0041 1.042
82.0344 1.250
82.0647 1.198
82.0949 1.302
82.1252 1.354
82.1555 1.042
82.1858 1.198
82.2161 1.667
82.2463 1.406
82.2766 1.042
82.3069 1.146
82.3372 1.198
82.3675 1.406
82.3977 1.406
82.4280 1.406
82.4583 1.146
82.4886 0.937
82.5188 0.990
82.5491 1.354
82.5794 1.875
82.6097 1.198
82.6400 1.094
82.6702 1.354
82.7005 1.094
82.7308 0.990
82.7611 1.458
82.7914 1.354
82.8216 0.781
82.8519 1.562
82.8822 1.667
82.9125 1.042
82.9427 1.198
82.9730 1.250
83.0033 1.198
83.0336 0.677
83.0639 1.250
83.0941 0.781
83.1244 1.510
83.1547 1.719
83.1850 1.458
83.2153 1.198
83.2455 1.615
83.2758 1.510
83.3061 1.250
83.3364 1.667
83.3666 1.198
83.3969 1.198
83.4272 0.990
83.4575 1.042
83.4878 1.042
83.5180 1.615
83.5483 0.885
83.5786 1.146
83.6089 0.990
83.6392 0.990
83.6694 1.198
83.6997 1.458
83.7300 1.458
83.7603 0.729
83.7905 1.562
83.8208 1.302
83.8511 1.094
83.8814 1.094
83.9117 1.667
83.9419 0.781
83.9722 0.990
84.0025 0.885
84.0328 1.406
84.0631 0.990
84.0933 1.354
84.1236 1.146
84.1539 1.042
84.1842 1.146
84.2144 0.677
84.2447 1.250
84.2750 1.562
84.3053 1.250
84.3356 1.406
84.3658 1.146
84.3961 1.042
84.4264 1.094
84.4567 1.302
84.4870 1.354
84.5172 1.146
84.5475 1.198
84.5778 1.146
84.6081 1.198
84.6383 1.510
84.6686 1.094
84.6989 0.937
84.7292 0.937
84.7595 0.990
84.7897 1.094
84.8200 0.990
84.8503 1.042
84.8806 1.302
84.9109 1.094
84.9411 1.042
84.9714 1.198
85.0017 1.406
85.0320 1.406
85.0623 1.198
85.0925 1.198
85.1228 0.990
85.1531 1.458
85.1834 1.198
85.2136 1.562
85.2439 1.250
85.2742 1.198
85.3045 1.354
85.3348 0.990
85.3650 1.667
85.3953 1.198
85.4256 1.198
85.4559 1.094
85.4862 0.885
85.5164 1.354
85.5467 1.719
85.5770 1.094
85.6073 1.146
85.6375 1.458
85.6678 1.354
85.6981 1.198
85.7284 0.990
85.7587 0.833
85.7889 1.042
85.8192 0.677
85.8495 1.458
85.8798 1.250
85.9101 0.625
85.9403 1.042
85.9706 0.781
86.0009 0.937
86.0312 1.250
86.0614 1.719
86.0917 1.042
86.1220 1.042
86.1523 0.937
86.1826 1.042
86.2128 0.990
86.2431 0.990
86.2734 1.094
86.3037 0.885
86.3340 1.198
86.3642 1.250
86.3945 1.667
86.4248 1.406
86.4551 0.781
86.4853 1.198
86.5156 1.250
86.5459 1.198
86.5762 0.677
86.6065 0.937
86.6367 1.510
86.6670 1.562
86.6973 1.354
86.7276 1.094
86.7579 0.885
86.7881 1.094
86.8184 0.885
86.8487 1.250
86.8790 1.406
86.9092 1.406
86.9395 1.458
86.9698 1.198
87.0001 0.990
87.0304 1.510
87.0606 1.354
87.0909 0.990
87.1212 0.990
87.1515 0.937
87.1818 1.198
87.2120 1.042
87.2423 0.990
87.2726 1.667
87.3029 1.354
87.3331 1.719
87.3634 0.885
87.3937 1.458
87.4240 0.937
87.4543 1.198
87.4845 1.562
87.5148 0.885
87.5451 1.146
87.5754 1.406
87.6057 1.615
87.6359 1.354
87.6662 1.198
87.6965 1.667
87.7268 1.250
87.7571 1.354
87.7873 1.250
87.8176 1.562
87.8479 1.406
87.8782 1.354
87.9084 1.042
87.9387 1.562
87.9690 1.927
87.9993 1.198
88.0296 1.302
88.0598 1.510
88.0901 1.042
88.1204 1.354
88.1507 1.771
88.1810 1.094
88.2112 1.406
88.2415 1.250
88.2718 1.354
88.3021 1.823
88.3323 0.885
88.3626 1.198
88.3929 1.198
88.4232 1.146
88.4535 1.719
88.4837 1.302
88.5140 2.031
88.5443 1.198
88.5746 1.198
88.6049 1.719
88.6351 1.458
88.6654 1.771
88.6957 1.510
88.7260 1.458
88.7562 2.083
88.7865 1.771
88.8168 1.771
88.8471 1.146
88.8774 2.031
88.9076 1.875
88.9379 1.667
88.9682 1.771
88.9985 1.927
89.0288 2.240
89.0590 2.552
89.0893 2.240
89.1196 2.604
89.1499 2.344
89.1801 3.021
89.2104 2.604
89.2407 3.125
89.2710 2.396
89.3013 2.187
89.3315 2.604
89.3618 3.073
89.3921 3.490
89.4224 3.073
89.4527 2.656
89.4829 3.073
89.5132 3.021
89.5435 2.760
89.5738 3.437
89.6040 2.969
89.6343 3.125
89.6646 2.604
89.6949 2.604
89.7252 2.917
89.7554 3.021
89.7857 2.865
89.8160 2.917
89.8463 2.552
89.8766 2.396
89.9068 2.187
89.9371 2.240
89.9674 2.708
89.9977 2.135
90.0279 2.083
90.0582 1.979
90.0885 1.979
90.1188 1.562
90.1491 1.979
90.1793 2.292
90.2096 1.406
90.2399 1.250
90.2702 1.667
90.3005 1.719
90.3307 1.562
90.3610 2.083
90.3913 1.771
90.4216 1.354
90.4518 1.667
90.4821 1.771
90.5124 1.510
90.5427 1.406
90.5730 1.510
90.6032 1.615
90.6335 1.458
90.6638 0.990
90.6941 1.354
90.7244 1.198
90.7546 1.615
90.7849 1.510
90.8152 1.146
90.8455 1.406
90.8758 1.250
90.9060 0.729
90.9363 1.615
90.9666 1.615
90.9969 1.458
91.0271 1.302
91.0574 0.833
91.0877 1.406
91.1180 1.667
91.1483 1.406
91.1785 1.458
91.2088 0.937
91.2391 1.198
91.2694 1.510
91.2997 1.250
91.3299 1.146
91.3602 2.135
91.3905 1.094
91.4208 1.250
91.4510 1.042
91.4813 1.198
91.5116 0.833
91.5419 1.198
91.5722 0.833
91.6024 1.302
91.6327 1.510
91.6630 1.667
91.6933 1.042
91.7236 1.562
91.7538 1.042
91.7841 1.458
91.8144 1.042
91.8447 1.875
91.8749 1.458
91.9052 1.823
91.9355 1.302
91.9658 1.979
91.9961 1.406
92.0263 1.198
92.0566 1.406
92.0869 1.615
92.1172 1.979
92.1475 1.198
92.1777 1.094
92.2080 1.667
92.2383 1.771
92.2686 1.094
92.2988 1.667
92.3291 1.615
92.3594 1.562
92.3897 1.615
92.4200 1.406
92.4502 1.510
92.4805 1.667
92.5108 1.615
92.5411 1.927
92.5714 1.719
92.6016 2.448
92.6319 1.979
92.6622 1.719
92.6925 2.031
92.7227 1.406
92.7530 1.406
92.7833 1.979
92.8136 2.187
92.8439 1.771
92.8741 1.875
92.9044 1.979
92.9347 1.719
92.9650 1.719
92.9953 2.396
93.0255 1.250
93.0558 1.562
93.0861 1.875
93.1164 1.354
93.1466 1.198
93.1769 1.667
93.2072 1.667
93.2375 1.719
93.2678 1.875
93.2980 1.094
93.3283 1.406
93.3586 1.927
93.3889 1.823
93.4192 1.771
93.4494 1.042
93.4797 1.146
93.5100 1.667
93.5403 1.406
93.5706 1.354
93.6008 1.719
93.6311 1.875
93.6614 1.250
93.6917 1.354
93.7219 1.198
93.7522 1.458
93.7825 2.083
93.8128 1.354
93.8431 1.615
93.8733 1.302
93.9036 1.771
93.9339 1.458
93.9642 1.042
93.9945 1.562
94.0247 1.406
94.0550 1.667
94.0853 1.719
94.1156 1.302
94.1458 1.094
94.1761 1.406
94.2064 1.875
94.2367 1.927
94.2670 1.719
94.2972 1.458
94.3275 1.458
94.3578 2.031
94.3881 1.771
94.4184 1.615
94.4486 1.823
94.4789 2.135
94.5092 2.135
94.5395 1.979
94.5697 1.719
94.6000 1.719
94.6303 2.031
94.6606 2.187
94.6909 1.875
94.7211 2.396
94.7514 2.292
94.7817 1.354
94.8120 1.562
94.8423 1.979
94.8725 2.083
94.9028 2.500
94.9331 2.708
94.9634 3.177
94.9936 2.187
95.0239 2.708
95.0542 2.708
95.0845 2.448
95.1148 2.708
95.1450 3.073
95.1753 2.760
95.2056 3.698
95.2359 2.865
95.2662 2.604
95.2964 3.229
95.3267 2.708
95.3570 3.073
95.3873 1.979
95.4175 2.917
95.4478 2.396
95.4781 3.177
95.5084 3.281
95.5387 2.031
95.5689 2.240
95.5992 2.240
95.6295 2.656
95.6598 2.292
95.6901 2.604
95.7203 2.604
95.7506 2.240
95.7809 2.396
95.8112 2.448
95.8414 1.719
95.8717 2.135
95.9020 1.302
95.9323 1.458
95.9626 1.667
95.9928 1.667
96.0231 1.979
96.0534 1.615
96.0837 1.302
96.1140 1.719
96.1442 1.771
96.1745 1.771
96.2048 1.458
96.2351 1.510
96.2653 1.250
96.2956 1.250
96.3259 1.458
96.3562 1.354
96.3865 1.354
96.4167 1.719
96.4470 1.562
96.4773 1.510
96.5076 1.667
96.5379 1.458
96.5681 1.510
96.5984 1.354
96.6287 1.719
96.6590 0.990
96.6893 0.937
96.7195 1.302
96.7498 1.094
96.7801 1.771
96.8104 1.927
96.8406 1.771
96.8709 1.302
96.9012 1.510
96.9315 1.458
96.9618 1.146
96.9920 1.458
97.0223 1.719
97.0526 1.510
97.0829 1.146
97.1132 1.458
97.1434 1.354
97.1737 1.198
97.2040 0.937
97.2343 1.823
97.2645 1.198
97.2948 1.510
97.3251 1.406
97.3554 1.406
97.3857 1.667
97.4159 1.719
97.4462 1.458
97.4765 1.667
97.5068 1.250
97.5371 1.198
97.5673 1.250
97.5976 1.510
97.6279 1.823
97.6582 1.771
97.6884 1.250
97.7187 1.198
97.7490 1.406
97.7793 1.823
97.8096 1.198
97.8398 1.250
97.8701 1.875
97.9004 1.250
97.9307 1.823
97.9610 1.198
97.9912 2.292
98.0215 1.875
98.0518 1.875
98.0821 2.604
98.1123 1.771
98.1426 1.354
98.1729 2.187
98.2032 2.083
98.2335 1.927
98.2637 2.240
98.2940 2.187
98.3243 1.875
98.3546 1.823
98.3849 2.292
98.4151 1.927
98.4454 2.760
98.4757 2.135
98.5060 1.979
98.5362 2.292
98.5665 3.333
98.5968 2.448
98.6271 1.927
98.6574 2.344
98.6876 2.135
98.7179 2.500
98.7482 2.292
98.7785 1.615
98.8088 2.240
98.8390 2.135
98.8693 2.135
98.8996 1.354
98.9299 1.771
98.9601 2.187
98.9904 1.823
99.0207 1.667
99.0510 1.823
99.0813 1.615
99.1115 1.615
99.1418 1.927
99.1721 1.823
99.2024 1.719
99.2327 1.823
99.2629 1.302
99.2932 1.042
99.3235 2.500
99.3538 1.615
99.3841 1.615
99.4143 1.198
99.4446 2.292
99.4749 2.031
99.5052 1.823
99.5354 1.354
99.5657 1.302
99.5960 1.458
99.6263 1.250
99.6566 1.510
99.6868 1.354
99.7171 1.927
99.7474 1.302
99.7777 1.406
99.8080 1.354
99.8382 1.250
99.8685 1.302
99.8988 1.667
99.9291 1.354
99.9593 1.615
99.9896 1.667
100.0199 1.562
100.0502 1.458
100.0805 1.562
100.1107 1.510
100.1410 1.354
100.1713 1.562
100.2016 1.302
100.2319 1.250
100.2621 1.562
100.2924 1.146
100.3227 1.823
100.3530 1.458
100.3832 1.667
100.4135 0.885
100.4438 1.562
100.4741 1.354
100.5044 1.302
100.5346 1.667
100.5649 0.937
100.5952 1.302
100.6255 0.937
100.6558 1.094
100.6860 1.302
100.7163 1.406
100.7466 1.302
100.7769 1.146
100.8071 1.302
100.8374 1.406
100.8677 1.406
100.8980 1.615
100.9283 1.667
100.9585 1.250
100.9888 1.302
101.0191 1.354
101.0494 1.562
101.0797 1.198
101.1099 0.990
101.1402 1.667
101.1705 1.094
101.2008 1.562
101.2310 1.406
101.2613 1.667
101.2916 1.406
101.3219 0.990
101.3522 1.354
101.3824 1.354
101.4127 1.042
101.4430 1.146
101.4733 1.094
101.5036 1.458
101.5338 1.146
101.5641 1.198
101.5944 1.823
101.6247 1.562
101.6549 1.354
101.6852 2.083
101.7155 1.615
101.7458 1.771
101.7761 1.562
101.8063 1.198
101.8366 1.458
101.8669 1.354
101.8972 1.354
101.9275 1.562
101.9577 1.667
101.9880 1.875
102.0183 1.406
102.0486 0.937
102.0788 1.562
102.1091 1.458
102.1394 2.083
102.1697 1.458
102.2000 1.354
102.2302 1.875
102.2605 1.719
102.2908 1.250
102.3211 1.302
102.3514 1.458
102.3816 1.823
102.4119 1.927
102.4422 1.771
102.4725 1.510
102.5028 1.979
102.5330 1.875
102.5633 1.510
102.5936 2.083
102.6239 2.135
102.6541 1.615
102.6844 1.823
102.7147 1.615
102.7450 1.823
102.7753 1.510
102.8055 1.927
102.8358 1.823
102.8661 1.927
102.8964 2.344
102.9267 2.292
102.9569 1.719
102.9872 2.031
103.0175 1.562
103.0478 1.667
103.0780 2.240
103.1083 1.771
103.1386 2.083
103.1689 2.865
103.1992 2.292
103.2294 1.979
103.2597 1.562
103.2900 2.240
103.3203 2.292
103.3506 1.979
103.3808 1.771
103.4111 1.823
103.4414 1.823
103.4717 1.615
103.5019 1.667
103.5322 1.927
103.5625 1.771
103.5928 1.979
103.6231 2.344
103.6533 2.083
103.6836 1.771
103.7139 2.187
103.7442 2.500
103.7745 2.083
103.8047 1.667
103.8350 2.812
103.8653 2.396
103.8956 2.760
103.9258 1.979
103.9561 2.552
103.9864 2.396
104.0167 2.135
104.0470 2.500
104.0772 3.177
104.1075 3.229
104.1378 2.552
104.1681 2.396
104.1984 2.344
104.2286 2.604
104.2589 1.979
104.2892 2.240
104.3195 2.604
104.3497 1.823
104.3800 2.448
104.4103 1.927
104.4406 2.500
104.4709 1.927
104.5011 2.708
104.5314 1.771
104.5617 1.771
104.5920 2.292
104.6223 1.302
104.6525 1.979
104.6828 1.875
104.7131 2.240
104.7434 1.406
104.7736 1.615
104.8039 1.823
104.8342 0.990
104.8645 1.406
104.8948 1.979
104.9250 1.510
104.9553 1.510
104.9856 1.615
105.0159 2.292
105.0462 1.406
105.0764 1.771
105.1067 1.562
105.1370 1.198
105.1673 1.562
105.1975 1.458
105.2278 1.042
105.2581 1.927
105.2884 1.823
105.3187 1.458
105.3489 1.094
105.3792 1.250
105.4095 1.562
105.4398 1.250
105.4701 1.250
105.5003 1.875
105.5306 1.927
105.5609 1.615
105.5912 1.458
105.6215 1.354
105.6517 1.146
105.6820 1.562
105.7123 1.562
105.7426 1.354
105.7728 1.354
105.8031 1.823
105.8334 1.302
105.8637 0.990
105.8940 1.146
105.9242 1.146
105.9545 2.187
105.9848 1.146
106.0151 1.354
106.0454 1.094
106.0756 1.406
106.1059 1.562
106.1362 1.510
106.1665 0.990
106.1967 1.146
106.2270 0.885
106.2573 0.937
106.2876 1.719
106.3179 1.406
106.3481 1.458
106.3784 1.094
106.4087 1.146
106.4390 1.146
106.4693 1.562
106.4995 1.198
106.5298 1.302
106.5601 1.406
106.5904 1.354
106.6206 1.094
106.6509 1.094
106.6812 0.885
106.7115 1.615
106.7418 1.198
106.7720 1.094
106.8023 1.042
106.8326 1.250
106.8629 1.458
106.8932 1.458
106.9234 1.094
106.9537 1.458
106.9840 1.198
107.0143 1.458
107.0445 1.354
107.0748 1.615
107.1051 1.198
107.1354 1.146
107.1657 1.719
107.1959 1.354
107.2262 1.406
107.2565 1.458
107.2868 1.146
107.3171 1.562
107.3473 1.458
107.3776 1.875
107.4079 1.302
107.4382 1.406
107.4684 1.615
107.4987 1.615
107.5290 1.615
107.5593 1.458
107.5896 1.094
107.6198 1.458
107.6501 1.458
107.6804 1.562
107.7107 1.250
107.7410 1.406
107.7712 1.510
107.8015 1.562
107.8318 1.406
107.8621 1.510
107.8923 1.198
107.9226 1.094
107.9529 1.250
107.9832 1.510
108.0135 1.458
108.0437 1.146
108.0740 1.667
108.1043 1.875
108.1346 1.458
108.1649 1.771
108.1951 1.094
108.2254 0.677
108.2557 1.458
108.2860 1.198
108.3163 0.885
108.3465 1.250
108.3768 1.510
108.4071 1.198
108.4374 1.667
108.4676 1.094
108.4979 1.042
108.5282 1.719
108.5585 1.146
108.5888 1.354
108.6190 0.937
108.6493 1.250
108.6796 1.042
108.7099 1.406
108.7402 2.083
108.7704 1.354
108.8007 0.990
108.8310 1.094
108.8613 0.990
108.8915 0.990
108.9218 0.729
108.9521 1.250
108.9824 1.562
109.0127 0.937
109.0429 1.354
109.0732 1.615
109.1035 1.250
109.1338 0.937
109.1641 1.302
109.1943 1.823
109.2246 1.510
109.2549 1.042
109.2852 1.302
109.3154 1.354
109.3457 1.510
109.3760 1.510
109.4063 1.458
109.4366 1.458
109.4668 1.615
109.4971 1.562
109.5274 1.510
109.5577 1.562
109.5880 1.302
109.6182 1.615
109.6485 1.771
109.6788 1.562
109.7091 1.562
109.7393 1.979
109.7696 1.562
109.7999 1.615
109.8302 1.927
109.8605 1.927
109.8907 1.302
109.9210 1.562
109.9513 2.187
109.9816 1.875
110.0119 1.562
110.0421 1.562
110.0724 2.031
110.1027 1.979
110.1330 1.719
110.1632 2.396
110.1935 1.510
110.2238 2.187
110.2541 1.719
110.2844 1.562
110.3146 1.823
110.3449 2.240
110.3752 1.979
110.4055 1.823
110.4358 1.615
110.4660 1.458
110.4963 2.031
110.5266 2.031
110.5569 2.083
110.5871 1.875
110.6174 2.135
110.6477 2.187
110.6780 1.615
110.7083 2.240
110.7385 2.552
110.7688 2.083
110.7991 1.979
110.8294 1.094
110.8597 1.406
110.8899 2.292
110.9202 2.031
110.9505 1.667
110.9808 1.250
111.0110 1.771
111.0413 1.875
111.0716 1.198
111.1019 1.719
111.1322 1.667
111.1624 1.198
111.1927 1.354
111.2230 1.615
111.2533 1.198
111.2836 1.146
111.3138 1.667
111.3441 1.094
111.3744 1.042
111.4047 1.302
111.4350 1.302
111.4652 1.510
111.4955 1.354
111.5258 1.250
111.5561 1.250
111.5863 1.198
111.6166 1.719
111.6469 1.042
111.6772 1.146
111.7075 1.094
111.7377 0.885
111.7680 0.990
111.7983 1.146
111.8286 1.146
111.8589 1.667
111.8891 1.250
111.9194 1.302
111.9497 0.885
111.9800 1.146
112.0102 0.937
112.0405 1.198
112.0708 1.458
112.1011 1.510
112.1314 1.250
112.1616 0.990
112.1919 1.094
112.2222 1.354
112.2525 1.458
112.2828 1.094
112.3130 1.094
112.3433 1.302
112.3736 1.510
112.4039 1.354
112.4341 1.198
112.4644 1.979
112.4947 1.510
112.5250 1.250
112.5553 1.615
112.5855 1.302
112.6158 1.406
112.6461 1.510
112.6764 1.354
112.7067 1.875
112.7369 1.094
112.7672 1.042
112.7975 1.510
112.8278 1.354
112.8580 1.458
112.8883 1.875
112.9186 1.250
112.9489 1.042
112.9792 1.302
113.0094 1.354
113.0397 1.562
113.0700 1.042
113.1003 1.250
113.1306 1.562
113.1608 1.562
113.1911 1.354
113.2214 1.719
113.2517 1.198
113.2819 1.146
113.3122 1.667
113.3425 1.250
113.3728 0.833
113.4031 1.719
113.4333 1.406
113.4636 1.771
113.4939 1.042
113.5242 0.990
113.5545 1.927
113.5847 1.615
113.6150 0.990
113.6453 1.354
113.6756 1.146
113.7058 1.458
113.7361 1.042
113.7664 1.719
113.7967 1.042
113.8270 1.094
113.8572 1.562
113.8875 1.042
113.9178 1.875
113.9481 1.302
113.9784 1.615
114.0086 0.729
114.0389 1.302
114.0692 1.094
114.0995 1.458
114.1298 1.354
114.1600 0.833
114.1903 1.823
114.2206 1.510
114.2509 1.094
114.2811 1.562
114.3114 1.406
114.3417 1.302
114.3720 1.250
114.4023 1.302
114.4325 0.937
114.4628 1.250
114.4931 1.302
114.5234 1.615
114.5537 1.302
114.5839 1.250
114.6142 1.406
114.6445 1.094
114.6748 1.510
114.7050 1.615
114.7353 1.406
114.7656 1.354
114.7959 1.719
114.8262 1.719
114.8564 1.406
114.8867 1.562
114.9170 1.406
114.9473 1.615
114.9776 1.406
115.0078 1.354
115.0381 1.667
115.0684 1.719
115.0987 1.771
115.1289 1.719
115.1592 1.771
115.1895 1.146
115.2198 1.354
115.2501 1.875
115.2803 1.562
115.3106 1.719
115.3409 1.875
115.3712 1.927
115.4015 2.031
115.4317 1.771
115.4620 1.406
115.4923 2.240
115.5226 1.667
115.5528 2.448
115.5831 1.927
115.6134 1.927
115.6437 1.562
115.6740 2.500
115.7042 2.500
115.7345 2.552
115.7648 2.240
115.7951 2.448
115.8254 2.656
115.8556 2.396
115.8859 2.656
115.9162 2.656
115.9465 2.656
115.9767 2.396
116.0070 2.604
116.0373 2.448
116.0676 2.448
116.0979 2.187
116.1281 2.552
116.1584 2.656
116.1887 2.552
116.2190 2.500
116.2493 3.177
116.2795 2.969
116.3098 3.333
116.3401 2.240
116.3704 2.396
116.4006 2.708
116.4309 3.490
116.4612 2.969
116.4915 2.292
116.5218 3.073
116.5520 2.760
116.5823 3.021
116.6126 2.396
116.6429 2.448
116.6732 2.708
116.7034 2.396
116.7337 2.135
116.7640 2.604
116.7943 2.656
116.8245 2.500
116.8548 1.979
116.8851 1.979
116.9154 2.969
116.9457 1.667
116.9759 2.500
117.0062 2.083
117.0365 1.771
117.0668 2.917
117.0971 2.344
117.1273 2.083
117.1576 1.615
117.1879 1.094
117.2182 1.667
117.2485 1.510
117.2787 1.823
117.3090 1.354
117.3393 1.510
117.3696 1.406
117.3998 2.031
117.4301 1.979
117.4604 1.979
117.4907 1.667
117.5210 1.719
117.5512 1.927
117.5815 1.458
117.6118 1.510
117.6421 1.615
117.6724 1.615
117.7026 1.562
117.7329 1.406
117.7632 1.771
117.7935 1.458
117.8237 1.302
117.8540 1.562
117.8843 1.406
117.9146 1.562
117.9449 1.562
117.9751 1.250
118.0054 1.250
118.0357 1.510
118.0660 1.771
118.0963 1.719
118.1265 1.146
118.1568 1.250
118.1871 1.146
118.2174 1.250
118.2476 1.615
118.2779 2.083
118.3082 1.875
118.3385 1.667
118.3688 1.510
118.3990 1.354
118.4293 1.406
118.4596 1.562
118.4899 1.406
118.5202 1.823
118.5504 0.885
118.5807 0.937
118.6110 0.885
118.6413 1.771
118.6715 1.146
118.7018 1.354
118.7321 1.719
118.7624 1.302
118.7927 1.094
118.8229 1.198
118.8532 1.354
118.8835 1.406
118.9138 1.510
118.9441 1.510
118.9743 1.354
119.0046 1.562
119.0349 1.667
119.0652 1.406
119.0954 1.510
119.1257 1.406
119.1560 1.354
119.1863 1.198
119.2166 1.146
119.2468 1.406
119.2771 1.094
119.3074 1.406
119.3377 1.510
119.3680 1.667
119.3982 1.354
119.4285 1.510
119.4588 0.885
119.4891 1.823
119.5193 1.458
119.5496 1.615
119.5799 1.302
119.6102 0.625
119.6405 1.510
119.6707 1.250
119.7010 1.198
119.7313 1.562
119.7616 1.719
119.7919 0.885
119.8221 1.406
119.8524 1.198
119.8827 1.354
119.9130 1.458
119.9433 1.042
119.9735 0.937
120.0038 1.094
