'Id: "" Comment: "" Operator: "Lab Manager" Anode: "Cu" Scantype: "Locked Coupled" TimePerStep: "19.2" X: "9999" Y: "9999" Z: "9999" 
10.0015 2.135
10.0318 2.604
10.0620 2.865
10.0923 2.708
10.1226 2.031
10.1529 2.187
10.1832 2.500
10.2134 1.562
10.2437 2.708
10.2740 2.760
10.3043 2.396
10.3346 1.771
10.3648 2.812
10.3951 2.865
10.4254 1.979
10.4557 2.656
10.4859 2.031
10.5162 2.708
10.5465 2.552
10.5768 1.979
10.6071 2.708
10.6373 2.448
10.6676 1.875
10.6979 2.812
10.7282 2.031
10.7585 2.187
10.7887 2.448
10.8190 2.865
10.8493 1.979
10.8796 2.448
10.9098 1.823
10.9401 2.500
10.9704 2.760
11.0007 2.396
11.0310 2.865
11.0612 1.875
11.0915 2.083
11.1218 2.396
11.1521 2.344
11.1824 2.292
11.2126 2.708
11.2429 1.927
11.2732 2.604
11.3035 2.240
11.3337 2.760
11.3640 2.031
11.3943 1.927
11.4246 2.344
11.4549 2.760
11.4851 2.396
11.5154 2.396
11.5457 2.500
11.5760 2.031
11.6063 1.562
11.6365 3.125
11.6668 2.396
11.6971 2.552
11.7274 2.448
11.7577 2.031
11.7879 1.875
11.8182 2.292
11.8485 2.135
11.8788 2.656
11.9090 1.927
11.9393 2.031
11.9696 2.135
11.9999 1.875
12.0302 2.187
12.0604 1.875
12.0907 2.083
12.1210 2.344
12.1513 2.187
12.1816 1.719
12.2118 2.031
12.2421 1.719
12.2724 2.500
12.3027 1.615
12.3329 1.927
12.3632 1.615
12.3935 2.240
12.4238 2.031
12.4541 2.083
12.4843 2.396
12.5146 1.354
12.5449 1.198
12.5752 2.240
12.6055 2.448
12.6357 2.083
12.6660 2.292
12.6963 2.187
12.7266 1.823
12.7568 2.083
12.7871 1.927
12.8174 2.083
12.8477 2.031
12.8780 2.187
12.9082 1.979
12.9385 1.927
12.9688 2.187
12.9991 2.812
13.0294 1.562
13.0596 1.771
13.0899 1.927
13.1202 1.458
13.1505 1.979
13.1807 1.510
13.2110 2.552
13.2413 3.125
13.2716 2.552
13.3019 1.667
13.3321 1.615
13.3624 2.031
13.3927 2.656
13.4230 2.031
13.4533 2.448
13.4835 1.562
13.5138 1.667
13.5441 1.667
13.5744 1.875
13.6046 2.031
13.6349 1.875
13.6652 2.604
13.6955 1.719
13.7258 2.031
13.7560 1.562
13.7863 1.510
13.8166 1.875
13.8469 1.771
13.8772 1.823
13.9074 1.615
13.9377 1.510
13.9680 1.823
13.9983 2.344
14.0285 2.187
14.0588 2.083
14.0891 1.875
14.1194 1.875
14.1497 1.979
14.1799 2.135
14.2102 1.875
14.2405 1.667
14.2708 1.875
14.3011 1.615
14.3313 1.875
14.3616 2.187
14.3919 2.500
14.4222 2.083
14.4524 2.344
14.4827 1.979
14.5130 2.708
14.5433 2.031
14.5736 2.135
14.6038 2.031
14.6341 1.823
14.6644 1.979
14.6947 1.979
14.7250 2.240
14.7552 1.667
14.7855 1.875
14.8158 1.562
14.8461 1.615
14.8764 2.187
14.9066 1.615
14.9369 1.875
14.9672 1.667
14.9975 1.979
15.0277 2.865
15.0580 1.719
15.0883 2.396
15.1186 1.823
15.1489 2.344
15.1791 2.917
15.2094 2.083
15.2397 2.396
15.2700 2.083
15.3003 1.458
15.3305 1.667
15.3608 2.396
15.3911 1.875
15.4214 2.292
15.4516 2.240
15.4819 1.875
15.5122 1.823
15.5425 2.135
15.5728 1.771
15.6030 1.823
15.6333 1.667
15.6636 1.458
15.6939 1.979
15.7242 1.771
15.7544 2.708
15.7847 2.500
15.8150 2.031
15.8453 1.250
15.8755 1.771
15.9058 1.667
15.9361 1.406
15.9664 1.927
15.9967 1.458
16.0269 1.927
16.0572 1.771
16.0875 1.979
16.1178 1.458
16.1481 1.823
16.1783 1.510
16.2086 2.083
16.2389 2.031
16.2692 1.927
16.2994 2.083
16.3297 1.771
16.3600 1.562
16.3903 1.250
16.4206 1.562
16.4508 1.406
16.4811 1.354
16.5114 1.406
16.5417 2.083
16.5720 1.771
16.6022 1.875
16.6325 1.510
16.6628 1.615
16.6931 1.823
16.7233 1.406
16.7536 1.198
16.7839 1.615
16.8142 2.083
16.8445 2.083
16.8747 1.562
16.9050 1.146
16.9353 1.510
16.9656 2.031
16.9959 1.562
17.0261 1.510
17.0564 1.875
17.0867 1.875
17.1170 1.510
17.1472 1.875
17.1775 1.406
17.2078 1.979
17.2381 1.562
17.2684 1.927
17.2986 1.615
17.3289 1.406
17.3592 1.562
17.3895 1.979
17.4198 1.562
17.4500 1.250
17.4803 1.354
17.5106 1.510
17.5409 1.562
17.5712 1.562
17.6014 1.198
17.6317 1.250
17.6620 1.979
17.6923 1.510
17.7225 2.031
17.7528 1.354
17.7831 1.875
17.8134 1.302
17.8437 0.990
17.8739 1.615
17.9042 1.354
17.9345 0.990
17.9648 1.771
17.9951 1.823
18.0253 1.667
18.0556 1.615
18.0859 1.198
18.1162 1.250
18.1464 1.458
18.1767 1.510
18.2070 1.719
18.2373 1.198
18.2676 1.250
18.2978 1.458
18.3281 1.302
18.3584 1.719
18.3887 1.719
18.4190 1.615
18.4492 1.771
18.4795 1.771
18.5098 1.667
18.5401 1.458
18.5703 0.781
18.6006 1.510
18.6309 1.771
18.6612 1.302
18.6915 1.094
18.7217 1.302
18.7520 1.354
18.7823 1.406
18.8126 1.354
18.8429 1.771
18.8731 1.771
18.9034 0.937
18.9337 1.875
18.9640 1.406
18.9942 1.094
19.0245 1.250
19.0548 1.146
19.0851 0.885
19.1154 1.146
19.1456 1.406
19.1759 1.302
19.2062 1.719
19.2365 0.833
19.2668 0.885
19.2970 1.667
19.3273 1.823
19.3576 1.510
19.3879 1.354
19.4181 1.458
19.4484 1.406
19.4787 1.302
19.5090 1.406
19.5393 1.042
19.5695 1.406
19.5998 1.667
19.6301 1.146
19.6604 1.250
19.6907 1.094
19.7209 0.990
19.7512 1.146
19.7815 1.458
19.8118 0.885
19.8420 1.823
19.8723 0.990
19.9026 1.562
19.9329 1.719
19.9632 1.458
19.9934 0.885
20.0237 1.615
20.0540 1.042
20.0843 1.250
20.1146 1.250
20.1448 1.198
20.1751 1.094
20.2054 1.198
20.2357 1.094
20.2659 0.990
20.2962 1.302
20.3265 1.458
20.3568 1.094
20.3871 1.562
20.4173 1.615
20.4476 0.937
20.4779 1.510
20.5082 1.042
20.5385 0.833
20.5687 1.146
20.5990 1.875
20.6293 1.510
20.6596 1.094
20.6899 1.250
20.7201 1.302
20.7504 1.250
20.7807 1.354
20.8110 1.510
20.8412 0.990
20.8715 1.250
20.9018 1.302
20.9321 1.406
20.9624 1.615
20.9926 1.406
21.0229 1.875
21.0532 1.042
21.0835 1.354
21.1138 0.729
21.1440 0.937
21.1743 1.406
21.2046 0.990
21.2349 2.135
21.2651 1.094
21.2954 1.146
21.3257 1.094
21.3560 1.458
21.3863 1.927
21.4165 1.302
21.4468 1.250
21.4771 1.615
21.5074 1.354
21.5377 1.406
21.5679 1.354
21.5982 1.198
21.6285 1.250
21.6588 0.833
21.6890 1.146
21.7193 1.823
21.7496 1.302
21.7799 1.667
21.8102 1.198
21.8404 1.042
21.8707 1.458
21.9010 1.094
21.9313 1.042
21.9616 1.510
21.9918 1.250
22.0221 1.094
22.0524 1.562
22.0827 1.510
22.1129 1.198
22.1432 0.781
22.1735 1.042
22.2038 1.562
22.2341 1.042
22.2643 1.250
22.2946 1.458
22.3249 1.562
22.3552 1.198
22.3855 1.042
22.4157 0.885
22.4460 0.990
22.4763 0.990
22.5066 1.354
22.5368 1.719
22.5671 0.833
22.5974 1.354
22.6277 1.458
22.6580 1.771
22.6882 0.885
22.7185 1.458
22.7488 1.094
22.7791 0.990
22.8094 1.875
22.8396 1.146
22.8699 1.042
22.9002 1.146
22.9305 1.250
22.9607 0.781
22.9910 1.250
23.0213 1.406
23.0516 1.250
23.0819 1.406
23.1121 1.615
23.1424 1.042
23.1727 1.146
23.2030 1.302
23.2333 1.354
23.2635 0.937
23.2938 1.302
23.3241 1.198
23.3544 1.354
23.3846 1.146
23.4149 1.198
23.4452 1.510
23.4755 0.990
23.5058 1.042
23.5360 0.937
23.5663 1.667
23.5966 1.406
23.6269 1.302
23.6572 1.146
23.6874 1.250
23.7177 1.094
23.7480 1.302
23.7783 1.094
23.8086 0.937
23.8388 1.042
23.8691 1.094
23.8994 1.510
23.9297 0.990
23.9599 1.094
23.9902 0.729
24.0205 1.458
24.0508 1.302
24.0811 1.302
24.1113 1.250
24.1416 1.667
24.1719 1.094
24.2022 1.458
24.2325 1.458
24.2627 1.094
24.2930 1.146
24.3233 1.875
24.3536 1.250
24.3838 1.406
24.4141 1.042
24.4444 1.198
24.4747 1.042
24.5050 0.990
24.5352 1.094
24.5655 0.990
24.5958 1.302
24.6261 1.302
24.6564 1.146
24.6866 1.198
24.7169 0.990
24.7472 0.885
24.7775 1.354
24.8077 0.990
24.8380 0.937
24.8683 1.042
24.8986 1.458
24.9289 1.042
24.9591 1.094
24.9894 1.250
25.0197 1.667
25.0500 1.094
25.0803 0.937
25.1105 0.990
25.1408 1.510
25.1711 1.146
25.2014 1.667
25.2316 1.146
25.2619 1.510
25.2922 1.042
25.3225 1.406
25.3528 1.458
25.3830 1.302
25.4133 1.458
25.4436 1.250
25.4739 2.031
25.5042 2.187
25.5344 1.354
25.5647 1.875
25.5950 2.656
25.6253 2.240
25.6555 2.708
25.6858 2.031
25.7161 3.646
25.7464 2.760
25.7767 3.125
25.8069 3.385
25.8372 2.865
25.8675 2.708
25.8978 2.760
25.9281 2.344
25.9583 2.448
25.9886 2.031
26.0189 1.302
26.0492 1.615
26.0794 1.458
26.1097 1.146
26.1400 1.146
26.1703 1.771
26.2006 0.885
26.2308 1.042
26.2611 1.094
26.2914 1.250
26.3217 1.354
26.3520 0.781
26.3822 1.406
26.4125 1.146
26.4428 1.250
26.4731 0.885
26.5034 0.781
26.5336 1.042
26.5639 1.198
26.5942 0.677
26.6245 0.781
26.6547 1.198
26.6850 1.615
26.7153 1.354
26.7456 1.302
26.7759 1.250
26.8061 1.615
26.8364 1.354
26.8667 1.302
26.8970 1.406
26.9273 1.302
26.9575 1.094
26.9878 1.562
27.0181 1.354
27.0484 1.146
27.0786 1.094
27.1089 1.667
27.1392 1.198
27.1695 1.354
27.1998 1.250
27.2300 0.781
27.2603 0.990
27.2906 1.615
27.3209 1.354
27.3512 1.302
27.3814 1.458
27.4117 1.198
27.4420 1.406
27.4723 1.615
27.5025 1.406
27.5328 2.083
27.5631 1.406
27.5934 1.302
27.6237 1.458
27.6539 1.562
27.6842 1.667
27.7145 1.302
27.7448 1.302
27.7751 0.885
27.8053 0.937
27.8356 1.094
27.8659 1.615
27.8962 1.458
27.9264 1.406
27.9567 1.302
27.9870 0.781
28.0173 0.990
28.0476 0.990
28.0778 1.146
28.1081 0.885
28.1384 0.937
28.1687 1.042
28.1990 1.667
28.2292 1.198
28.2595 1.406
28.2898 1.302
28.3201 1.354
28.3503 1.198
28.3806 1.615
28.4109 1.510
28.4412 1.198
28.4715 1.198
28.5017 1.927
28.5320 1.198
28.5623 1.250
28.5926 1.302
28.6229 1.198
28.6531 1.146
28.6834 1.406
28.7137 1.927
28.7440 1.667
28.7742 1.146
28.8045 1.250
28.8348 1.354
28.8651 1.458
28.8954 1.354
28.9256 1.406
28.9559 1.406
28.9862 1.510
29.0165 1.823
29.0468 1.406
29.0770 1.615
29.1073 1.250
29.1376 2.187
29.1679 1.771
29.1981 1.927
29.2284 1.615
29.2587 1.719
29.2890 1.927
29.3193 2.292
29.3495 2.396
29.3798 2.552
29.4101 2.135
29.4404 2.083
29.4707 3.646
29.5009 2.031
29.5312 2.708
29.5615 3.333
29.5918 2.292
29.6221 2.448
29.6523 2.292
29.6826 1.667
29.7129 1.719
29.7432 1.719
29.7734 1.615
29.8037 1.927
29.8340 1.510
29.8643 2.031
29.8946 1.667
29.9248 1.615
29.9551 1.510
29.9854 1.667
30.0157 1.354
30.0460 1.198
30.0762 1.198
30.1065 1.354
30.1368 1.354
30.1671 1.094
30.1973 1.667
30.2276 1.823
30.2579 1.875
30.2882 1.875
30.3185 1.927
30.3487 1.771
30.3790 2.240
30.4093 1.667
30.4396 1.510
30.4699 1.667
30.5001 1.927
30.5304 1.406
30.5607 1.771
30.5910 2.135
30.6212 1.615
30.6515 2.552
30.6818 2.865
30.7121 2.135
30.7424 2.448
30.7726 2.344
30.8029 2.240
30.8332 2.604
30.8635 2.604
30.8938 3.021
30.9240 3.385
30.9543 3.125
30.9846 2.969
31.0149 3.958
31.0451 4.062
31.0754 4.115
31.1057 3.750
31.1360 4.635
31.1663 4.740
31.1965 4.948
31.2268 5.312
31.2571 7.292
31.2874 6.823
31.3177 6.927
31.3479 8.333
31.3782 8.802
31.4085 9.479
31.4388 10.781
31.4690 14.323
31.4993 15.260
31.5296 17.344
31.5599 18.802
31.5902 20.417
31.6204 20.000
31.6507 21.094
31.6810 21.042
31.7113 17.083
31.7416 15.677
31.7718 16.094
31.8021 12.396
31.8324 11.562
31.8627 10.000
31.8929 9.635
31.9232 7.656
31.9535 6.875
31.9838 6.406
32.0141 5.990
32.0443 4.948
32.0746 4.635
32.1049 4.896
32.1352 3.437
32.1655 4.167
32.1957 4.167
32.2260 3.073
32.2563 3.437
32.2866 3.125
32.3169 2.865
32.3471 2.865
32.3774 2.448
32.4077 2.448
32.4380 3.229
32.4682 2.604
32.4985 2.500
32.5288 2.292
32.5591 2.812
32.5894 2.031
32.6196 1.771
32.6499 2.240
32.6802 2.083
32.7105 2.500
32.7408 2.500
32.7710 1.719
32.8013 2.240
32.8316 1.823
32.8619 2.604
32.8921 1.927
32.9224 2.187
32.9527 2.292
32.9830 2.031
33.0133 1.823
33.0435 1.146
33.0738 1.719
33.1041 1.615
33.1344 2.344
33.1647 1.458
33.1949 0.885
33.2252 2.448
33.2555 2.396
33.2858 1.979
33.3160 1.875
33.3463 2.187
33.3766 2.135
33.4069 2.812
33.4372 2.187
33.4674 1.979
33.4977 2.031
33.5280 1.771
33.5583 1.823
33.5886 2.396
33.6188 1.979
33.6491 1.562
33.6794 1.927
33.7097 1.667
33.7399 2.344
33.7702 2.969
33.8005 2.552
33.8308 3.385
33.8611 3.281
33.8913 3.333
33.9216 4.010
33.9519 2.917
33.9822 3.646
34.0125 4.375
34.0427 4.271
34.0730 6.302
34.1033 7.031
34.1336 9.323
34.1638 12.083
34.1941 15.937
34.2244 18.229
34.2547 19.844
34.2850 19.896
34.3152 17.031
34.3455 15.208
34.3758 12.292
34.4061 10.990
34.4364 7.292
34.4666 5.937
34.4969 4.687
34.5272 4.687
34.5575 2.865
34.5877 3.385
34.6180 3.958
34.6483 2.708
34.6786 3.281
34.7089 2.760
34.7391 2.812
34.7694 2.552
34.7997 2.396
34.8300 2.448
34.8603 2.552
34.8905 2.865
34.9208 2.917
34.9511 3.125
34.9814 2.500
35.0116 2.760
35.0419 2.760
35.0722 2.865
35.1025 2.240
35.1328 2.500
35.1630 2.604
35.1933 3.281
35.2236 2.969
35.2539 2.500
35.2842 2.917
35.3144 3.177
35.3447 3.437
35.3750 2.760
35.4053 3.021
35.4356 3.333
35.4658 4.010
35.4961 3.177
35.5264 4.271
35.5567 4.427
35.5869 3.437
35.6172 4.531
35.6475 5.208
35.6778 5.260
35.7081 6.302
35.7383 6.719
35.7686 6.667
35.7989 8.646
35.8292 7.604
35.8595 10.833
35.8897 11.198
35.9200 11.771
35.9503 14.010
35.9806 16.042
36.0108 18.333
36.0411 19.844
36.0714 22.083
36.1017 23.542
36.1320 24.167
36.1622 21.562
36.1925 22.500
36.2228 20.885
36.2531 20.260
36.2834 17.708
36.3136 14.375
36.3439 11.354
36.3742 9.687
36.4045 9.219
36.4347 6.927
36.4650 7.812
36.4953 6.406
36.5256 5.521
36.5559 5.156
36.5861 4.635
36.6164 3.698
36.6467 3.021
36.6770 3.854
36.7073 3.281
36.7375 3.281
36.7678 2.135
36.7981 2.031
36.8284 2.083
36.8586 2.708
36.8889 2.760
36.9192 1.771
36.9495 2.292
36.9798 2.708
37.0100 2.604
37.0403 1.667
37.0706 2.344
37.1009 1.510
37.1312 2.187
37.1614 1.771
37.1917 1.615
37.2220 1.562
37.2523 1.719
37.2825 1.771
37.3128 1.719
37.3431 1.615
37.3734 1.771
37.4037 1.354
37.4339 1.302
37.4642 1.562
37.4945 1.406
37.5248 1.615
37.5551 1.406
37.5853 1.667
37.6156 1.458
37.6459 2.083
37.6762 1.510
37.7064 1.667
37.7367 1.823
37.7670 1.667
37.7973 1.250
37.8276 1.562
37.8578 1.719
37.8881 1.354
37.9184 1.615
37.9487 1.615
37.9790 1.719
38.0092 1.198
38.0395 1.510
38.0698 1.458
38.1001 1.406
38.1304 1.198
38.1606 1.146
38.1909 1.146
38.2212 1.354
38.2515 1.146
38.2817 1.562
38.3120 1.250
38.3423 1.667
38.3726 0.781
38.4029 1.146
38.4331 1.250
38.4634 1.771
38.4937 1.094
38.5240 1.406
38.5543 0.937
38.5845 1.094
38.6148 1.094
38.6451 1.354
38.6754 0.990
38.7056 0.937
38.7359 1.198
38.7662 1.458
38.7965 1.510
38.8268 0.990
38.8570 1.875
38.8873 1.250
38.9176 1.406
38.9479 0.885
38.9782 1.198
39.0084 1.198
39.0387 1.510
39.0690 1.354
39.0993 1.042
39.1295 1.510
39.1598 0.833
39.1901 0.937
39.2204 1.042
39.2507 1.042
39.2809 0.990
39.3112 0.833
39.3415 0.781
39.3718 1.250
39.4021 0.625
39.4323 0.677
39.4626 0.885
39.4929 1.146
39.5232 0.885
39.5534 0.937
39.5837 1.146
39.6140 0.729
39.6443 0.625
39.6746 1.354
39.7048 1.146
39.7351 0.885
39.7654 1.302
39.7957 1.042
39.8260 0.781
39.8562 0.937
39.8865 0.625
39.9168 0.833
39.9471 0.885
39.9773 0.781
40.0076 1.042
40.0379 0.833
40.0682 0.833
40.0985 0.937
40.1287 0.781
40.1590 0.729
40.1893 0.885
40.2196 0.729
40.2499 1.354
40.2801 1.146
40.3104 0.885
40.3407 1.042
40.3710 1.146
40.4012 1.146
40.4315 0.781
40.4618 0.729
40.4921 0.729
40.5224 0.833
40.5526 0.990
40.5829 0.833
40.6132 0.833
40.6435 0.990
40.6738 1.094
40.7040 0.833
40.7343 0.781
40.7646 0.937
40.7949 0.833
40.8251 1.042
40.8554 1.042
40.8857 1.302
40.9160 1.354
40.9463 1.146
40.9765 1.354
41.0068 0.781
41.0371 0.677
41.0674 0.885
41.0977 1.198
41.1279 0.677
41.1582 0.990
41.1885 1.146
41.2188 1.354
41.2491 0.937
41.2793 0.885
41.3096 0.573
41.3399 0.990
41.3702 1.354
41.4004 0.937
41.4307 0.990
41.4610 0.833
41.4913 0.781
41.5216 1.094
41.5518 1.146
41.5821 0.781
41.6124 0.729
41.6427 1.146
41.6730 0.729
41.7032 0.729
41.7335 0.677
41.7638 0.677
41.7941 0.937
41.8243 0.885
41.8546 0.729
41.8849 0.885
41.9152 0.885
41.9455 1.042
41.9757 0.990
42.0060 0.833
42.0363 0.729
42.0666 0.729
42.0969 1.146
42.1271 0.729
42.1574 0.781
42.1877 1.094
42.2180 1.094
42.2482 0.521
42.2785 0.677
42.3088 0.885
42.3391 0.729
42.3694 0.677
42.3996 1.094
42.4299 0.781
42.4602 0.833
42.4905 0.990
42.5208 0.833
42.5510 0.937
42.5813 0.885
42.6116 0.833
42.6419 0.781
42.6721 0.937
42.7024 0.781
42.7327 0.990
42.7630 0.729
42.7933 0.885
42.8235 0.781
42.8538 1.042
42.8841 0.729
42.9144 0.677
42.9447 0.937
42.9749 0.833
43.0052 1.094
43.0355 1.042
43.0658 0.885
43.0960 1.250
43.1263 0.885
43.1566 0.677
43.1869 1.042
43.2172 0.573
43.2474 1.042
43.2777 0.677
43.3080 0.833
43.3383 0.365
43.3686 0.625
43.3988 1.042
43.4291 0.729
43.4594 0.833
43.4897 0.677
43.5199 0.781
43.5502 0.990
43.5805 0.729
43.6108 0.781
43.6411 0.781
43.6713 0.885
43.7016 0.677
43.7319 1.042
43.7622 1.354
43.7925 0.885
43.8227 0.729
43.8530 0.625
43.8833 0.625
43.9136 1.094
43.9439 0.781
43.9741 0.677
44.0044 1.198
44.0347 0.885
44.0650 1.250
44.0952 1.198
44.1255 1.250
44.1558 0.833
44.1861 0.677
44.2164 0.573
44.2466 1.146
44.2769 0.729
44.3072 0.833
44.3375 1.094
44.3678 1.198
44.3980 1.042
44.4283 0.885
44.4586 1.198
44.4889 0.885
44.5191 0.937
44.5494 0.937
44.5797 0.937
44.6100 0.990
44.6403 1.042
44.6705 0.729
44.7008 0.677
44.7311 1.146
44.7614 0.990
44.7917 1.094
44.8219 1.198
44.8522 0.937
44.8825 1.667
44.9128 0.781
44.9430 0.833
44.9733 1.146
45.0036 1.302
45.0339 1.146
45.0642 0.990
45.0944 0.677
45.1247 0.833
45.1550 0.573
45.1853 1.302
45.2156 1.250
45.2458 1.042
45.2761 0.885
45.3064 0.990
45.3367 1.198
45.3669 0.937
45.3972 0.937
45.4275 1.094
45.4578 1.094
45.4881 1.042
45.5183 0.937
45.5486 1.146
45.5789 0.729
45.6092 0.885
45.6395 0.781
45.6697 1.250
45.7000 0.990
45.7303 0.781
45.7606 0.781
45.7908 0.625
45.8211 1.615
45.8514 0.990
45.8817 0.990
45.9120 1.094
45.9422 1.042
45.9725 1.198
46.0028 1.146
46.0331 1.146
46.0634 0.990
46.0936 1.094
46.1239 0.677
46.1542 1.198
46.1845 1.198
46.2147 1.458
46.2450 1.042
46.2753 0.573
46.3056 1.615
46.3359 0.990
46.3661 1.042
46.3964 0.885
46.4267 0.729
46.4570 1.406
46.4873 1.354
46.5175 1.562
46.5478 1.458
46.5781 1.458
46.6084 1.615
46.6386 1.979
46.6689 1.458
46.6992 2.240
46.7295 1.354
46.7598 1.250
46.7900 1.198
46.8203 1.771
46.8506 2.031
46.8809 1.615
46.9112 1.719
46.9414 1.250
46.9717 1.719
47.0020 2.083
47.0323 2.292
47.0626 1.823
47.0928 2.240
47.1231 2.812
47.1534 2.448
47.1837 2.396
47.2139 2.865
47.2442 2.969
47.2745 2.969
47.3048 2.604
47.3351 3.385
47.3653 3.385
47.3956 3.437
47.4259 4.323
47.4562 2.865
47.4865 3.854
47.5167 3.698
47.5470 2.969
47.5773 2.760
47.6076 2.865
47.6378 2.604
47.6681 2.448
47.6984 2.031
47.7287 2.604
47.7590 2.187
47.7892 2.031
47.8195 1.667
47.8498 2.292
47.8801 1.667
47.9104 1.458
47.9406 1.562
47.9709 1.354
48.0012 2.083
48.0315 1.510
48.0617 1.510
48.0920 0.990
48.1223 1.406
48.1526 1.146
48.1829 1.302
48.2131 0.833
48.2434 1.042
48.2737 1.406
48.3040 2.292
48.3343 1.146
48.3645 1.146
48.3948 0.781
48.4251 1.198
48.4554 0.885
48.4856 1.198
48.5159 1.094
48.5462 1.354
48.5765 1.302
48.6068 1.615
48.6370 0.573
48.6673 1.302
48.6976 1.615
48.7279 1.458
48.7582 1.406
48.7884 1.146
48.8187 0.781
48.8490 1.042
48.8793 1.250
48.9095 1.250
48.9398 1.146
48.9701 1.042
49.0004 1.042
49.0307 1.354
49.0609 0.729
49.0912 0.990
49.1215 0.937
49.1518 1.250
49.1821 0.781
49.2123 1.146
49.2426 0.885
49.2729 1.094
49.3032 1.302
49.3334 0.833
49.3637 1.667
49.3940 1.146
49.4243 1.354
49.4546 0.937
49.4848 0.833
49.5151 1.146
49.5454 1.510
49.5757 1.094
49.6060 1.146
49.6362 1.198
49.6665 1.042
49.6968 0.885
49.7271 0.833
49.7574 1.094
49.7876 0.937
49.8179 1.094
49.8482 1.198
49.8785 1.302
49.9087 0.677
49.9390 1.354
49.9693 0.885
49.9996 1.302
50.0299 1.042
50.0601 0.937
50.0904 1.250
50.1207 1.042
50.1510 1.198
50.1813 0.937
50.2115 0.729
50.2418 1.094
50.2721 0.937
50.3024 0.885
50.3326 0.781
50.3629 1.198
50.3932 0.677
50.4235 0.677
50.4538 1.406
50.4840 0.573
50.5143 0.781
50.5446 0.729
50.5749 0.990
50.6052 1.302
50.6354 0.469
50.6657 0.781
50.6960 1.146
50.7263 0.625
50.7565 0.729
50.7868 0.937
50.8171 1.302
50.8474 0.729
50.8777 1.250
50.9079 1.354
50.9382 0.937
50.9685 0.885
50.9988 0.729
51.0291 0.833
51.0593 1.094
51.0896 0.521
51.1199 0.990
51.1502 1.146
51.1804 0.365
51.2107 0.781
51.2410 1.146
51.2713 0.885
51.3016 0.990
51.3318 1.406
51.3621 1.042
51.3924 1.042
51.4227 0.885
51.4530 0.833
51.4832 0.833
51.5135 0.833
51.5438 0.885
51.5741 1.146
51.6043 1.094
51.6346 1.354
51.6649 0.677
51.6952 1.354
51.7255 0.833
51.7557 0.937
51.7860 0.937
51.8163 0.833
51.8466 1.198
51.8769 0.521
51.9071 0.937
51.9374 0.781
51.9677 0.521
51.9980 0.625
52.0282 1.146
52.0585 0.990
52.0888 1.146
52.1191 0.677
52.1494 0.625
52.1796 1.146
52.2099 1.302
52.2402 0.885
52.2705 1.250
52.3008 1.094
52.3310 0.573
52.3613 0.781
52.3916 0.885
52.4219 0.885
52.4521 1.094
52.4824 0.729
52.5127 0.729
52.5430 0.833
52.5733 0.729
52.6035 1.094
52.6338 0.833
52.6641 0.833
52.6944 0.990
52.7247 0.365
52.7549 0.781
52.7852 0.833
52.8155 0.885
52.8458 0.781
52.8761 1.198
52.9063 1.042
52.9366 0.521
52.9669 0.990
52.9972 0.990
53.0274 0.677
53.0577 0.781
53.0880 1.146
53.1183 0.781
53.1486 0.469
53.1788 0.937
53.2091 1.146
53.2394 1.146
53.2697 0.625
53.3000 1.146
53.3302 1.094
53.3605 0.885
53.3908 0.937
53.4211 1.042
53.4513 1.042
53.4816 1.354
53.5119 1.094
53.5422 1.146
53.5725 0.521
53.6027 0.625
53.6330 0.833
53.6633 0.729
53.6936 0.573
53.7239 0.833
53.7541 0.937
53.7844 1.042
53.8147 0.937
53.8450 0.990
53.8752 0.677
53.9055 0.833
53.9358 1.094
53.9661 1.094
53.9964 1.094
54.0266 0.885
54.0569 0.990
54.0872 0.937
54.1175 0.365
54.1478 1.094
54.1780 0.677
54.2083 0.885
54.2386 0.885
54.2689 0.937
54.2991 0.677
54.3294 0.417
54.3597 0.781
54.3900 0.833
54.4203 1.042
54.4505 1.354
54.4808 0.729
54.5111 0.990
54.5414 0.937
54.5717 0.677
54.6019 0.885
54.6322 0.885
54.6625 0.781
54.6928 0.729
54.7230 0.990
54.7533 0.937
54.7836 0.990
54.8139 1.042
54.8442 0.937
54.8744 0.781
54.9047 1.042
54.9350 0.990
54.9653 1.094
54.9956 0.937
55.0258 0.833
55.0561 0.729
55.0864 1.146
55.1167 1.094
55.1469 1.458
55.1772 1.302
55.2075 1.094
55.2378 0.781
55.2681 0.625
55.2983 0.677
55.3286 1.042
55.3589 0.729
55.3892 1.094
55.4195 1.042
55.4497 1.302
55.4800 1.146
55.5103 0.990
55.5406 1.042
55.5709 1.354
55.6011 0.990
55.6314 1.250
55.6617 1.719
55.6920 1.042
55.7222 1.042
55.7525 0.990
55.7828 1.562
55.8131 1.458
55.8434 1.042
55.8736 1.510
55.9039 1.094
55.9342 1.927
55.9645 1.562
55.9948 2.187
56.0250 1.198
56.0553 2.500
56.0856 2.240
56.1159 2.812
56.1461 2.812
56.1764 3.021
56.2067 3.281
56.2370 3.958
56.2673 3.385
56.2975 4.687
56.3278 3.854
56.3581 4.792
56.3884 4.375
56.4187 5.677
56.4489 6.719
56.4792 5.104
56.5095 5.625
56.5398 5.729
56.5700 5.000
56.6003 5.052
56.6306 4.740
56.6609 4.271
56.6912 4.271
56.7214 4.010
56.7517 2.969
56.7820 2.969
56.8123 3.021
56.8426 2.448
56.8728 2.187
56.9031 2.083
56.9334 1.667
56.9637 1.615
56.9939 1.458
57.0242 1.875
57.0545 1.094
57.0848 1.146
57.1151 1.615
57.1453 1.094
57.1756 1.406
57.2059 1.198
57.2362 1.562
57.2665 1.667
57.2967 0.885
57.3270 1.198
57.3573 0.677
57.3876 0.990
57.4178 1.146
57.4481 0.990
57.4784 1.458
57.5087 0.833
57.5390 0.729
57.5692 1.198
57.5995 1.198
57.6298 1.250
57.6601 1.302
57.6904 0.990
57.7206 1.042
57.7509 0.833
57.7812 0.625
57.8115 1.042
57.8417 1.458
57.8720 0.885
57.9023 0.937
57.9326 0.885
57.9629 0.990
57.9931 0.990
58.0234 0.885
58.0537 0.885
58.0840 0.677
58.1143 0.781
58.1445 0.521
58.1748 0.573
58.2051 0.937
58.2354 0.937
58.2656 0.573
58.2959 0.417
58.3262 0.729
58.3565 0.781
58.3868 0.990
58.4170 0.833
58.4473 1.198
58.4776 0.781
58.5079 0.625
58.5382 0.677
58.5684 0.521
58.5987 0.729
58.6290 0.781
58.6593 0.417
58.6896 0.677
58.7198 0.885
58.7501 0.573
58.7804 0.833
58.8107 0.677
58.8409 0.990
58.8712 0.521
58.9015 0.729
58.9318 0.937
58.9621 1.094
58.9923 0.781
59.0226 0.990
59.0529 1.250
59.0832 0.833
59.1135 0.521
59.1437 0.781
59.1740 0.365
59.2043 0.833
59.2346 0.937
59.2648 0.625
59.2951 1.354
59.3254 0.417
59.3557 0.469
59.3860 1.042
59.4162 0.885
59.4465 0.885
59.4768 0.729
59.5071 0.833
59.5374 0.885
59.5676 0.729
59.5979 1.146
59.6282 1.302
59.6585 0.937
59.6887 0.833
59.7190 1.094
59.7493 0.729
59.7796 0.937
59.8099 0.729
59.8401 0.781
59.8704 1.042
59.9007 0.625
59.9310 0.729
59.9613 0.937
59.9915 0.625
60.0218 0.885
60.0521 0.885
60.0824 0.521
60.1126 0.729
60.1429 0.885
60.1732 0.833
60.2035 1.510
60.2338 0.260
60.2640 0.573
60.2943 1.458
60.3246 0.729
60.3549 0.729
60.3852 0.937
60.4154 0.781
60.4457 0.521
60.4760 0.677
60.5063 0.677
60.5365 0.990
60.5668 0.937
60.5971 0.469
60.6274 0.885
60.6577 0.417
60.6879 0.729
60.7182 0.573
60.7485 0.781
60.7788 0.833
60.8091 0.781
60.8393 0.885
60.8696 0.781
60.8999 0.729
60.9302 1.302
60.9604 0.781
60.9907 0.677
61.0210 0.781
61.0513 1.146
61.0816 0.677
61.1118 0.885
61.1421 1.354
61.1724 0.885
61.2027 0.781
61.2330 0.833
61.2632 0.625
61.2935 0.833
61.3238 0.990
61.3541 0.937
61.3844 0.833
61.4146 1.094
61.4449 0.885
61.4752 0.885
61.5055 0.937
61.5357 1.354
61.5660 1.094
61.5963 1.146
61.6266 1.094
61.6569 0.885
61.6871 0.677
61.7174 1.198
61.7477 1.250
61.7780 1.042
61.8083 0.833
61.8385 1.250
61.8688 1.302
61.8991 1.094
61.9294 1.458
61.9596 0.885
61.9899 1.146
62.0202 1.250
62.0505 0.833
62.0808 1.042
62.1110 1.458
62.1413 1.250
62.1716 1.510
62.2019 1.562
62.2322 1.094
62.2624 1.406
62.2927 1.510
62.3230 1.823
62.3533 2.083
62.3835 2.552
62.4138 2.552
62.4441 2.083
62.4744 2.812
62.5047 3.281
62.5349 2.969
62.5652 3.177
62.5955 3.802
62.6258 3.073
62.6561 3.958
62.6863 3.854
62.7166 3.177
62.7469 3.646
62.7772 3.281
62.8074 3.698
62.8377 3.802
62.8680 3.594
62.8983 3.229
62.9286 2.812
62.9588 3.750
62.9891 1.823
63.0194 2.760
63.0497 2.031
63.0800 2.396
63.1102 2.135
63.1405 1.562
63.1708 1.406
63.2011 1.875
63.2313 1.719
63.2616 1.510
63.2919 1.562
63.3222 1.198
63.3525 1.406
63.3827 1.510
63.4130 1.302
63.4433 1.406
63.4736 0.833
63.5039 0.833
63.5341 0.781
63.5644 0.990
63.5947 0.781
63.6250 0.885
63.6552 1.198
63.6855 1.094
63.7158 0.990
63.7461 0.937
63.7764 0.833
63.8066 1.562
63.8369 0.990
63.8672 1.094
63.8975 1.094
63.9278 0.677
63.9580 0.729
63.9883 0.677
64.0186 0.990
64.0489 1.042
64.0791 0.937
64.1094 0.573
64.1397 0.885
64.1700 0.833
64.2003 1.354
64.2305 0.677
64.2608 0.781
64.2911 0.677
64.3214 0.625
64.3517 0.833
64.3819 0.573
64.4122 0.885
64.4425 0.885
64.4728 0.833
64.5031 0.885
64.5333 0.885
64.5636 0.833
64.5939 0.781
64.6242 0.781
64.6544 0.729
64.6847 1.094
64.7150 0.833
64.7453 0.729
64.7756 0.937
64.8058 0.729
64.8361 0.469
64.8664 0.833
64.8967 0.833
64.9270 0.990
64.9572 0.573
64.9875 0.625
65.0178 0.573
65.0481 1.042
65.0783 0.677
65.1086 0.937
65.1389 0.885
65.1692 1.146
65.1995 0.729
65.2297 1.250
65.2600 0.990
65.2903 0.625
65.3206 0.469
65.3509 0.833
65.3811 0.781
65.4114 0.677
65.4417 1.146
65.4720 0.625
65.5022 0.521
65.5325 0.990
65.5628 0.781
65.5931 0.990
65.6234 0.833
65.6536 1.354
65.6839 0.677
65.7142 1.094
65.7445 1.146
65.7748 0.833
65.8050 1.146
65.8353 1.406
65.8656 0.990
65.8959 0.729
65.9261 1.094
65.9564 1.146
65.9867 1.094
66.0170 1.354
66.0473 1.406
66.0775 1.250
66.1078 1.250
66.1381 1.146
66.1684 1.094
66.1987 1.354
66.2289 1.354
66.2592 1.146
66.2895 1.146
66.3198 1.510
66.3500 1.354
66.3803 1.146
66.4106 0.885
66.4409 1.458
66.4712 1.406
66.5014 0.781
66.5317 0.937
66.5620 1.146
66.5923 1.354
66.6226 1.354
66.6528 1.302
66.6831 0.885
66.7134 1.250
66.7437 1.250
66.7739 0.781
66.8042 1.354
66.8345 0.469
66.8648 1.094
66.8951 1.042
66.9253 0.781
66.9556 0.990
66.9859 0.990
67.0162 0.625
67.0465 0.833
67.0767 1.250
67.1070 1.042
67.1373 1.094
67.1676 1.198
67.1978 0.990
67.2281 1.198
67.2584 1.354
67.2887 1.979
67.3190 1.354
67.3492 1.198
67.3795 1.667
67.4098 1.458
67.4401 1.979
67.4704 1.354
67.5006 2.083
67.5309 2.396
67.5612 2.240
67.5915 2.187
67.6218 2.448
67.6520 2.552
67.6823 2.917
67.7126 3.021
67.7429 3.281
67.7731 3.906
67.8034 4.115
67.8337 3.802
67.8640 3.594
67.8943 2.865
67.9245 3.229
67.9548 2.604
67.9851 3.437
68.0154 2.760
68.0457 2.969
68.0759 2.083
68.1062 2.135
68.1365 2.344
68.1668 2.396
68.1970 1.562
68.2273 1.667
68.2576 1.406
68.2879 1.823
68.3182 1.198
68.3484 1.823
68.3787 1.458
68.4090 1.458
68.4393 1.719
68.4696 1.771
68.4998 1.302
68.5301 1.615
68.5604 1.406
68.5907 1.458
68.6209 1.406
68.6512 1.146
68.6815 1.823
68.7118 1.562
68.7421 1.823
68.7723 1.615
68.8026 1.667
68.8329 1.927
68.8632 2.031
68.8935 2.344
68.9237 1.979
68.9540 1.615
68.9843 2.344
69.0146 1.615
69.0448 2.240
69.0751 1.927
69.1054 1.510
69.1357 1.927
69.1660 1.354
69.1962 1.458
69.2265 1.302
69.2568 1.562
69.2871 1.354
69.3174 1.615
69.3476 0.781
69.3779 0.990
69.4082 1.198
69.4385 1.146
69.4687 0.885
69.4990 1.198
69.5293 0.990
69.5596 1.042
69.5899 0.677
69.6201 0.521
69.6504 0.885
69.6807 0.990
69.7110 0.781
69.7413 0.469
69.7715 0.833
69.8018 0.625
69.8321 0.365
69.8624 0.781
69.8926 0.781
69.9229 0.625
69.9532 0.781
69.9835 0.365
70.0138 0.573
70.0440 0.833
70.0743 0.990
70.1046 0.573
70.1349 0.677
70.1652 0.781
70.1954 0.781
70.2257 0.469
70.2560 0.677
70.2863 0.937
70.3166 0.781
70.3468 0.937
70.3771 0.365
70.4074 0.521
70.4377 0.625
70.4679 0.677
70.4982 0.417
70.5285 0.521
70.5588 0.573
70.5891 0.521
70.6193 0.365
70.6496 0.677
70.6799 0.521
70.7102 0.781
70.7405 0.833
70.7707 0.469
70.8010 0.469
70.8313 0.573
70.8616 0.729
70.8918 0.781
70.9221 0.625
70.9524 0.677
70.9827 0.937
71.0130 0.729
71.0432 0.781
71.0735 0.417
71.1038 0.729
71.1341 0.677
71.1644 0.729
71.1946 0.365
71.2249 0.417
71.2552 0.312
71.2855 0.469
71.3157 0.729
71.3460 0.677
71.3763 0.729
71.4066 0.365
71.4369 0.521
71.4671 0.312
71.4974 0.573
71.5277 0.625
71.5580 0.729
71.5883 0.729
71.6185 0.677
71.6488 0.729
71.6791 0.781
71.7094 0.625
71.7396 0.573
71.7699 0.521
71.8002 0.365
71.8305 0.781
71.8608 0.885
71.8910 0.677
71.9213 0.312
71.9516 0.365
71.9819 0.573
72.0122 0.625
72.0424 0.469
72.0727 0.625
72.1030 0.677
72.1333 0.729
72.1635 1.250
72.1938 0.521
72.2241 0.833
72.2544 0.781
72.2847 0.208
72.3149 0.677
72.3452 0.833
72.3755 0.729
72.4058 0.625
72.4361 0.937
72.4663 0.677
72.4966 0.885
72.5269 1.042
72.5572 0.781
72.5874 0.833
72.6177 1.042
72.6480 0.365
72.6783 0.729
72.7086 0.573
72.7388 0.573
72.7691 0.677
72.7994 0.521
72.8297 0.521
72.8600 0.729
72.8902 0.781
72.9205 0.729
72.9508 0.208
72.9811 0.573
73.0113 0.885
73.0416 0.677
73.0719 0.729
73.1022 0.417
73.1325 0.573
73.1627 0.365
73.1930 0.469
73.2233 0.729
73.2536 0.677
73.2839 0.937
73.3141 0.729
73.3444 0.312
73.3747 0.469
73.4050 0.469
73.4353 0.417
73.4655 0.990
73.4958 0.573
73.5261 0.469
73.5564 0.573
73.5866 0.417
73.6169 0.625
73.6472 0.729
73.6775 0.417
73.7078 0.573
73.7380 0.417
73.7683 0.729
73.7986 0.469
73.8289 0.729
73.8592 0.417
73.8894 0.365
73.9197 0.729
73.9500 0.365
73.9803 0.260
74.0105 0.885
74.0408 0.677
74.0711 0.469
74.1014 0.625
74.1317 0.521
74.1619 0.573
74.1922 0.833
74.2225 0.521
74.2528 0.573
74.2831 0.312
74.3133 0.417
74.3436 0.417
74.3739 0.417
74.4042 0.729
74.4344 0.417
74.4647 0.781
74.4950 0.417
74.5253 0.625
74.5556 0.729
74.5858 0.573
74.6161 0.573
74.6464 0.469
74.6767 0.417
74.7070 0.417
74.7372 0.521
74.7675 0.312
74.7978 0.312
74.8281 0.469
74.8583 0.469
74.8886 0.625
74.9189 0.521
74.9492 0.469
74.9795 0.469
75.0097 0.677
75.0400 0.312
75.0703 0.260
75.1006 0.365
75.1309 0.729
75.1611 0.729
75.1914 0.417
75.2217 0.521
75.2520 0.781
75.2822 0.573
75.3125 0.260
75.3428 0.625
75.3731 0.833
75.4034 0.417
75.4336 0.260
75.4639 0.469
75.4942 0.833
75.5245 0.521
75.5548 0.365
75.5850 0.521
75.6153 0.625
75.6456 0.677
75.6759 0.521
75.7061 0.625
75.7364 0.469
75.7667 0.885
75.7970 0.208
75.8273 0.469
75.8575 0.417
75.8878 0.573
75.9181 0.417
75.9484 0.312
75.9787 0.573
76.0089 0.521
76.0392 0.521
76.0695 0.625
76.0998 0.260
76.1301 0.573
76.1603 0.729
76.1906 0.417
76.2209 0.625
76.2512 0.573
76.2814 0.417
76.3117 0.625
76.3420 0.417
76.3723 0.625
76.4026 0.521
76.4328 0.729
76.4631 0.781
76.4934 0.625
76.5237 0.833
76.5540 0.521
76.5842 0.990
76.6145 0.469
76.6448 0.833
76.6751 0.781
76.7053 0.729
76.7356 0.469
76.7659 0.990
76.7962 0.625
76.8265 0.729
76.8567 0.781
76.8870 0.833
76.9173 0.990
76.9476 0.781
76.9779 0.729
77.0081 0.625
77.0384 0.573
77.0687 0.990
77.0990 0.885
77.1292 0.729
77.1595 0.729
77.1898 0.729
77.2201 0.417
77.2504 1.042
77.2806 0.573
77.3109 0.573
77.3412 0.781
77.3715 0.365
77.4018 0.677
77.4320 0.729
77.4623 0.885
77.4926 0.469
77.5229 0.417
77.5531 0.365
77.5834 0.729
77.6137 0.677
77.6440 0.312
77.6743 0.521
77.7045 0.677
77.7348 0.469
77.7651 0.469
77.7954 0.469
77.8257 0.417
77.8559 0.625
77.8862 0.729
77.9165 0.312
77.9468 0.729
77.9770 0.469
78.0073 0.573
78.0376 0.260
78.0679 0.312
78.0982 0.260
78.1284 0.312
78.1587 0.365
78.1890 0.677
78.2193 0.677
78.2496 0.729
78.2798 0.573
78.3101 0.573
78.3404 0.312
78.3707 0.417
78.4009 0.469
78.4312 0.365
78.4615 0.625
78.4918 0.417
78.5221 0.625
78.5523 0.208
78.5826 0.469
78.6129 0.573
78.6432 0.729
78.6735 0.521
78.7037 0.885
78.7340 0.469
78.7643 0.156
78.7946 0.781
78.8248 0.521
78.8551 0.573
78.8854 0.417
78.9157 0.781
78.9460 0.365
78.9762 0.729
79.0065 0.469
79.0368 0.417
79.0671 0.312
79.0974 0.521
79.1276 0.417
79.1579 0.469
79.1882 0.312
79.2185 0.417
79.2488 0.469
79.2790 0.417
79.3093 0.365
79.3396 0.573
79.3699 0.573
79.4001 0.469
79.4304 0.677
79.4607 0.469
79.4910 0.469
79.5213 0.260
79.5515 0.573
79.5818 0.417
79.6121 0.781
79.6424 0.365
79.6727 0.365
79.7029 0.521
79.7332 0.365
79.7635 0.573
79.7938 0.469
79.8240 0.573
79.8543 0.417
79.8846 0.729
79.9149 0.417
79.9452 0.885
79.9754 0.625
80.0057 0.260
80.0360 0.625
80.0663 0.677
80.0966 0.312
80.1268 0.521
80.1571 0.625
80.1874 0.260
80.2177 0.417
80.2479 0.312
80.2782 0.885
80.3085 0.625
80.3388 0.729
80.3691 0.573
80.3993 0.625
80.4296 0.990
80.4599 0.521
80.4902 0.521
80.5205 0.365
80.5507 0.625
80.5810 0.625
80.6113 0.521
80.6416 0.365
80.6718 0.365
80.7021 0.260
80.7324 0.677
80.7627 0.417
80.7930 0.677
80.8232 0.312
80.8535 0.365
80.8838 0.781
80.9141 0.729
80.9444 0.312
80.9746 0.677
81.0049 0.677
81.0352 0.521
81.0655 0.729
81.0957 0.469
81.1260 0.469
81.1563 0.625
81.1866 0.677
81.2169 0.469
81.2471 0.729
81.2774 0.573
81.3077 0.469
81.3380 0.521
81.3683 0.521
81.3985 0.521
81.4288 0.990
81.4591 0.573
81.4894 0.677
81.5196 0.365
81.5499 0.417
81.5802 0.469
81.6105 0.573
81.6408 0.469
81.6710 0.677
81.7013 0.625
81.7316 0.469
81.7619 0.677
81.7922 0.417
81.8224 0.729
81.8527 0.729
81.8830 0.729
81.9133 0.677
81.9436 0.469
81.9738 0.260
82.0041 0.625
82.0344 0.312
82.0647 0.469
82.0949 0.521
82.1252 0.469
82.1555 0.573
82.1858 0.365
82.2161 0.781
82.2463 0.469
82.2766 0.729
82.3069 0.208
82.3372 0.521
82.3675 0.781
82.3977 0.729
82.4280 0.469
82.4583 0.729
82.4886 0.260
82.5188 0.260
82.5491 0.729
82.5794 0.469
82.6097 0.677
82.6400 0.365
82.6702 0.417
82.7005 0.260
82.7308 0.521
82.7611 0.729
82.7914 0.312
82.8216 0.521
82.8519 0.625
82.8822 0.625
82.9125 0.469
82.9427 0.469
82.9730 0.156
83.0033 0.469
83.0336 0.521
83.0639 0.625
83.0941 0.677
83.1244 0.729
83.1547 0.729
83.1850 0.469
83.2153 0.625
83.2455 0.469
83.2758 0.573
83.3061 0.312
83.3364 0.677
83.3666 0.729
83.3969 0.260
83.4272 0.312
83.4575 0.417
83.4878 0.521
83.5180 0.417
83.5483 0.677
83.5786 0.625
83.6089 0.729
83.6392 0.469
83.6694 0.365
83.6997 0.677
83.7300 0.729
83.7603 0.260
83.7905 0.312
83.8208 0.260
83.8511 0.417
83.8814 0.625
83.9117 0.365
83.9419 0.260
83.9722 0.937
84.0025 0.573
84.0328 0.365
84.0631 0.573
84.0933 0.469
84.1236 0.677
84.1539 0.573
84.1842 0.260
84.2144 0.312
84.2447 0.625
84.2750 0.573
84.3053 0.677
84.3356 0.312
84.3658 0.677
84.3961 0.833
84.4264 0.677
84.4567 0.469
84.4870 0.781
84.5172 0.417
84.5475 0.260
84.5778 0.469
84.6081 0.417
84.6383 0.365
84.6686 0.521
84.6989 0.365
84.7292 0.469
84.7595 0.469
84.7897 0.677
84.8200 0.521
84.8503 0.573
84.8806 0.208
84.9109 0.521
84.9411 0.417
84.9714 0.312
85.0017 0.625
85.0320 0.521
85.0623 0.573
85.0925 0.260
85.1228 0.260
85.1531 0.521
85.1834 0.625
85.2136 0.677
85.2439 0.521
85.2742 0.365
85.3045 0.469
85.3348 0.677
85.3650 0.521
85.3953 0.521
85.4256 0.469
85.4559 0.469
85.4862 0.312
85.5164 0.312
85.5467 0.365
85.5770 0.729
85.6073 0.625
85.6375 0.573
85.6678 0.469
85.6981 0.417
85.7284 0.521
85.7587 0.521
85.7889 0.625
85.8192 0.365
85.8495 0.521
85.8798 0.469
85.9101 0.625
85.9403 0.260
85.9706 0.521
86.0009 0.312
86.0312 0.312
86.0614 0.677
86.0917 0.417
86.1220 0.573
86.1523 0.573
86.1826 0.573
86.2128 0.573
86.2431 0.365
86.2734 0.260
86.3037 0.625
86.3340 0.417
86.3642 0.156
86.3945 0.365
86.4248 0.729
86.4551 0.469
86.4853 0.417
86.5156 0.260
86.5459 0.573
86.5762 0.521
86.6065 0.365
86.6367 0.521
86.6670 0.260
86.6973 0.312
86.7276 0.469
86.7579 0.573
86.7881 0.469
86.8184 0.365
86.8487 0.521
86.8790 0.208
86.9092 0.469
86.9395 0.521
86.9698 0.417
87.0001 0.625
87.0304 0.521
87.0606 0.260
87.0909 0.677
87.1212 0.573
87.1515 0.365
87.1818 0.417
87.2120 0.417
87.2423 0.677
87.2726 0.677
87.3029 0.521
87.3331 0.312
87.3634 0.573
87.3937 0.365
87.4240 0.677
87.4543 0.469
87.4845 0.729
87.5148 0.521
87.5451 0.469
87.5754 0.573
87.6057 0.417
87.6359 0.625
87.6662 0.729
87.6965 0.729
87.7268 0.417
87.7571 0.573
87.7873 0.521
87.8176 0.729
87.8479 0.573
87.8782 0.417
87.9084 0.677
87.9387 0.625
87.9690 0.260
87.9993 0.469
88.0296 0.521
88.0598 0.521
88.0901 0.365
88.1204 0.312
88.1507 0.677
88.1810 0.469
88.2112 0.417
88.2415 0.417
88.2718 0.469
88.3021 0.677
88.3323 0.729
88.3626 0.365
88.3929 0.521
88.4232 0.781
88.4535 0.677
88.4837 0.469
88.5140 0.417
88.5443 0.417
88.5746 0.885
88.6049 0.625
88.6351 0.573
88.6654 0.417
88.6957 0.885
88.7260 0.573
88.7562 0.260
88.7865 0.729
88.8168 0.469
88.8471 0.625
88.8774 0.365
88.9076 0.469
88.9379 0.937
88.9682 0.729
88.9985 0.521
89.0288 0.625
89.0590 0.573
89.0893 0.729
89.1196 0.729
89.1499 0.937
89.1801 0.521
89.2104 0.729
89.2407 0.885
89.2710 1.094
89.3013 1.198
89.3315 0.781
89.3618 1.198
89.3921 0.885
89.4224 0.729
89.4527 0.937
89.4829 1.094
89.5132 0.990
89.5435 0.729
89.5738 0.990
89.6040 0.573
89.6343 1.146
89.6646 0.729
89.6949 1.042
89.7252 0.781
89.7554 1.042
89.7857 0.990
89.8160 0.729
89.8463 1.458
89.8766 0.729
89.9068 0.833
89.9371 1.042
89.9674 1.094
89.9977 0.677
90.0279 0.573
90.0582 0.729
90.0885 0.833
90.1188 0.625
90.1491 0.781
90.1793 0.729
90.2096 0.417
90.2399 0.417
90.2702 0.625
90.3005 0.990
90.3307 0.312
90.3610 0.625
90.3913 0.573
90.4216 0.312
90.4518 0.573
90.4821 0.990
90.5124 0.521
90.5427 0.573
90.5730 0.729
90.6032 0.521
90.6335 0.885
90.6638 0.625
90.6941 0.573
90.7244 0.573
90.7546 0.781
90.7849 0.729
90.8152 0.573
90.8455 0.573
90.8758 0.729
90.9060 0.677
90.9363 0.937
90.9666 0.781
90.9969 0.521
91.0271 0.625
91.0574 0.573
91.0877 0.625
91.1180 0.781
91.1483 0.521
91.1785 0.521
91.2088 0.521
91.2391 0.677
91.2694 0.625
91.2997 0.521
91.3299 0.573
91.3602 0.625
91.3905 0.729
91.4208 0.885
91.4510 0.469
91.4813 0.417
91.5116 0.573
91.5419 0.573
91.5722 0.260
91.6024 0.729
91.6327 0.729
91.6630 0.573
91.6933 0.469
91.7236 0.729
91.7538 0.521
91.7841 0.729
91.8144 0.521
91.8447 0.469
91.8749 0.312
91.9052 0.156
91.9355 0.365
91.9658 0.469
91.9961 0.417
92.0263 0.625
92.0566 0.729
92.0869 0.573
92.1172 0.729
92.1475 0.365
92.1777 0.521
92.2080 0.469
92.2383 0.573
92.2686 0.885
92.2988 0.729
92.3291 0.625
92.3594 0.729
92.3897 0.729
92.4200 0.729
92.4502 0.729
92.4805 0.729
92.5108 0.625
92.5411 0.677
92.5714 0.729
92.6016 0.781
92.6319 0.521
92.6622 0.677
92.6925 0.625
92.7227 0.625
92.7530 0.729
92.7833 0.312
92.8136 0.729
92.8439 0.417
92.8741 0.469
92.9044 0.729
92.9347 0.573
92.9650 0.729
92.9953 0.990
93.0255 0.937
93.0558 0.677
93.0861 0.729
93.1164 0.312
93.1466 0.469
93.1769 0.625
93.2072 0.573
93.2375 0.260
93.2678 0.625
93.2980 0.469
93.3283 0.365
93.3586 0.469
93.3889 0.521
93.4192 0.833
93.4494 0.260
93.4797 0.469
93.5100 0.469
93.5403 0.417
93.5706 0.573
93.6008 0.677
93.6311 0.573
93.6614 0.677
93.6917 0.260
93.7219 0.677
93.7522 0.573
93.7825 0.260
93.8128 0.260
93.8431 0.573
93.8733 0.312
93.9036 0.521
93.9339 0.365
93.9642 0.729
93.9945 0.521
94.0247 0.573
94.0550 0.885
94.0853 0.573
94.1156 0.521
94.1458 0.729
94.1761 0.417
94.2064 0.521
94.2367 0.677
94.2670 0.365
94.2972 0.833
94.3275 0.729
94.3578 0.365
94.3881 0.417
94.4184 0.937
94.4486 0.729
94.4789 0.937
94.5092 0.677
94.5395 0.729
94.5697 0.521
94.6000 0.312
94.6303 0.937
94.6606 0.573
94.6909 1.146
94.7211 0.833
94.7514 0.885
94.7817 0.781
94.8120 0.833
94.8423 0.937
94.8725 0.833
94.9028 1.042
94.9331 0.885
94.9634 0.729
94.9936 0.990
95.0239 0.781
95.0542 0.833
95.0845 1.042
95.1148 0.781
95.1450 0.781
95.1753 0.781
95.2056 0.937
95.2359 0.937
95.2662 1.250
95.2964 0.937
95.3267 0.990
95.3570 0.833
95.3873 1.250
95.4175 1.302
95.4478 0.833
95.4781 1.146
95.5084 0.990
95.5387 0.885
95.5689 1.198
95.5992 0.833
95.6295 1.042
95.6598 0.573
95.6901 1.146
95.7203 0.521
95.7506 0.521
95.7809 0.729
95.8112 0.260
95.8414 0.833
95.8717 0.885
95.9020 0.521
95.9323 0.729
95.9626 0.469
95.9928 0.729
96.0231 0.677
96.0534 0.469
96.0837 0.677
96.1140 1.042
96.1442 0.677
96.1745 0.677
96.2048 0.729
96.2351 0.833
96.2653 0.990
96.2956 0.521
96.3259 0.469
96.3562 0.312
96.3865 0.521
96.4167 0.312
96.4470 0.365
96.4773 0.365
96.5076 0.469
96.5379 0.417
96.5681 0.625
96.5984 0.729
96.6287 0.573
96.6590 0.729
96.6893 0.990
96.7195 0.260
96.7498 0.312
96.7801 0.469
96.8104 0.469
96.8406 0.625
96.8709 0.677
96.9012 0.573
96.9315 0.260
96.9618 0.729
96.9920 0.729
97.0223 0.521
97.0526 0.521
97.0829 0.417
97.1132 0.365
97.1434 0.365
97.1737 0.677
97.2040 0.521
97.2343 0.365
97.2645 0.885
97.2948 0.365
97.3251 0.521
97.3554 0.521
97.3857 0.417
97.4159 0.417
97.4462 0.781
97.4765 0.729
97.5068 0.469
97.5371 0.625
97.5673 0.417
97.5976 0.625
97.6279 0.521
97.6582 0.937
97.6884 0.521
97.7187 0.312
97.7490 0.625
97.7793 0.469
97.8096 0.521
97.8398 0.521
97.8701 0.625
97.9004 0.625
97.9307 0.469
97.9610 0.417
97.9912 0.521
98.0215 0.573
98.0518 0.625
98.0821 0.937
98.1123 0.365
98.1426 0.833
98.1729 1.146
98.2032 0.781
98.2335 0.729
98.2637 1.146
98.2940 0.833
98.3243 0.781
98.3546 1.250
98.3849 0.729
98.4151 0.990
98.4454 0.677
98.4757 1.042
98.5060 0.573
98.5362 0.729
98.5665 0.573
98.5968 0.885
98.6271 0.781
98.6574 1.198
98.6876 0.990
98.7179 0.990
98.7482 0.469
98.7785 0.625
98.8088 0.417
98.8390 0.677
98.8693 0.469
98.8996 0.781
98.9299 0.573
98.9601 0.833
98.9904 0.677
99.0207 0.781
99.0510 0.469
99.0813 0.885
99.1115 0.781
99.1418 0.781
99.1721 0.781
99.2024 0.781
99.2327 0.781
99.2629 0.677
99.2932 0.573
99.3235 0.365
99.3538 0.729
99.3841 0.729
99.4143 0.729
99.4446 0.781
99.4749 0.312
99.5052 0.729
99.5354 0.781
99.5657 0.677
99.5960 0.729
99.6263 0.469
99.6566 0.469
99.6868 0.625
99.7171 0.781
99.7474 0.573
99.7777 0.781
99.8080 0.208
99.8382 0.781
99.8685 0.781
99.8988 0.417
99.9291 0.729
99.9593 0.521
99.9896 0.417
100.0199 0.573
100.0502 0.469
100.0805 0.573
100.1107 0.573
100.1410 0.417
100.1713 0.833
100.2016 0.677
100.2319 0.729
100.2621 0.573
100.2924 0.469
100.3227 0.365
100.3530 0.521
100.3832 0.469
100.4135 0.573
100.4438 0.573
100.4741 0.885
100.5044 0.677
100.5346 0.469
100.5649 0.573
100.5952 0.521
100.6255 0.573
100.6558 0.417
100.6860 0.677
100.7163 0.365
100.7466 0.417
100.7769 0.521
100.8071 0.365
100.8374 0.469
100.8677 0.781
100.8980 0.469
100.9283 0.573
100.9585 0.781
100.9888 0.417
101.0191 0.833
101.0494 0.365
101.0797 0.625
101.1099 0.365
101.1402 0.781
101.1705 0.469
101.2008 0.677
101.2310 0.573
101.2613 0.625
101.2916 0.573
101.3219 0.365
101.3522 0.260
101.3824 0.677
101.4127 0.729
101.4430 0.312
101.4733 0.365
101.5036 0.573
101.5338 0.573
101.5641 0.781
101.5944 0.312
101.6247 0.417
101.6549 0.312
101.6852 0.260
101.7155 0.260
101.7458 0.625
101.7761 0.469
101.8063 0.365
101.8366 0.417
101.8669 0.781
101.8972 0.781
101.9275 0.781
101.9577 0.521
101.9880 0.573
102.0183 0.573
102.0486 0.625
102.0788 0.729
102.1091 0.781
102.1394 0.729
102.1697 0.625
102.2000 0.677
102.2302 0.417
102.2605 0.417
102.2908 0.573
102.3211 0.365
102.3514 0.521
102.3816 1.042
102.4119 0.885
102.4422 0.781
102.4725 0.573
102.5028 0.677
102.5330 0.729
102.5633 0.677
102.5936 0.833
102.6239 0.833
102.6541 0.729
102.6844 0.469
102.7147 0.833
102.7450 0.312
102.7753 1.354
102.8055 0.417
102.8358 0.937
102.8661 0.729
102.8964 0.729
102.9267 0.417
102.9569 0.521
102.9872 0.729
103.0175 0.885
103.0478 0.781
103.0780 0.885
103.1083 0.885
103.1386 0.677
103.1689 0.833
103.1992 0.833
103.2294 0.417
103.2597 0.781
103.2900 0.781
103.3203 0.677
103.3506 0.833
103.3808 0.625
103.4111 0.677
103.4414 0.625
103.4717 0.260
103.5019 0.885
103.5322 1.094
103.5625 1.198
103.5928 0.729
103.6231 0.677
103.6533 1.302
103.6836 0.729
103.7139 0.729
103.7442 0.781
103.7745 0.573
103.8047 0.781
103.8350 1.146
103.8653 0.833
103.8956 0.729
103.9258 0.937
103.9561 0.729
103.9864 0.729
104.0167 0.990
104.0470 1.198
104.0772 1.302
104.1075 0.781
104.1378 0.677
104.1681 1.302
104.1984 0.937
104.2286 0.729
104.2589 0.885
104.2892 0.781
104.3195 1.250
104.3497 0.729
104.3800 0.781
104.4103 0.781
104.4406 0.990
104.4709 0.781
104.5011 0.625
104.5314 0.885
104.5617 0.677
104.5920 0.729
104.6223 0.469
104.6525 0.677
104.6828 0.729
104.7131 0.625
104.7434 0.833
104.7736 1.146
104.8039 0.625
104.8342 0.781
104.8645 0.677
104.8948 1.094
104.9250 0.833
104.9553 0.469
104.9856 0.677
105.0159 0.729
105.0462 0.781
105.0764 0.521
105.1067 0.573
105.1370 0.365
105.1673 0.417
105.1975 0.677
105.2278 0.573
105.2581 0.729
105.2884 0.833
105.3187 0.729
105.3489 0.469
105.3792 0.833
105.4095 0.625
105.4398 0.417
105.4701 0.573
105.5003 0.625
105.5306 0.729
105.5609 0.833
105.5912 0.677
105.6215 0.833
105.6517 1.146
105.6820 0.469
105.7123 0.781
105.7426 1.042
105.7728 0.469
105.8031 0.885
105.8334 0.469
105.8637 0.573
105.8940 0.885
105.9242 0.781
105.9545 0.729
105.9848 0.469
106.0151 0.625
106.0454 0.312
106.0756 0.625
106.1059 0.521
106.1362 0.677
106.1665 0.365
106.1967 0.469
106.2270 0.781
106.2573 0.625
106.2876 0.833
106.3179 0.469
106.3481 0.729
106.3784 0.417
106.4087 0.573
106.4390 0.260
106.4693 0.521
106.4995 0.573
106.5298 0.677
106.5601 0.885
106.5904 0.469
106.6206 0.573
106.6509 0.521
106.6812 0.417
106.7115 0.885
106.7418 0.885
106.7720 0.885
106.8023 0.781
106.8326 0.885
106.8629 0.677
106.8932 0.573
106.9234 1.042
106.9537 0.573
106.9840 0.729
107.0143 0.781
107.0445 0.417
107.0748 0.729
107.1051 0.417
107.1354 0.677
107.1657 0.833
107.1959 1.042
107.2262 0.781
107.2565 0.833
107.2868 0.885
107.3171 0.833
107.3473 0.833
107.3776 0.677
107.4079 0.781
107.4382 0.625
107.4684 0.833
107.4987 0.990
107.5290 0.781
107.5593 0.729
107.5896 0.625
107.6198 0.781
107.6501 0.417
107.6804 0.937
107.7107 0.365
107.7410 0.885
107.7712 0.781
107.8015 0.729
107.8318 0.833
107.8621 0.677
107.8923 0.677
107.9226 0.521
107.9529 0.781
107.9832 0.469
108.0135 0.625
108.0437 0.417
108.0740 0.677
108.1043 0.677
108.1346 0.521
108.1649 0.625
108.1951 0.729
108.2254 0.885
108.2557 0.885
108.2860 0.781
108.3163 0.417
108.3465 0.625
108.3768 0.625
108.4071 0.937
108.4374 0.469
108.4676 0.781
108.4979 0.781
108.5282 0.937
108.5585 0.521
108.5888 0.833
108.6190 0.573
108.6493 0.885
108.6796 0.833
108.7099 0.885
108.7402 0.573
108.7704 1.042
108.8007 0.312
108.8310 0.677
108.8613 0.417
108.8915 0.625
108.9218 0.260
108.9521 0.781
108.9824 0.885
109.0127 0.729
109.0429 0.729
109.0732 0.521
109.1035 0.937
109.1338 0.885
109.1641 0.469
109.1943 0.885
109.2246 0.729
109.2549 0.677
109.2852 0.885
109.3154 0.625
109.3457 0.625
109.3760 0.781
109.4063 0.885
109.4366 0.781
109.4668 0.469
109.4971 0.312
109.5274 0.833
109.5577 0.729
109.5880 0.625
109.6182 0.937
109.6485 0.729
109.6788 0.625
109.7091 1.094
109.7393 0.521
109.7696 0.729
109.7999 1.146
109.8302 0.990
109.8605 1.198
109.8907 0.885
109.9210 0.833
109.9513 1.146
109.9816 1.250
110.0119 0.781
110.0421 0.885
110.0724 0.729
110.1027 0.937
110.1330 1.198
110.1632 0.937
110.1935 1.042
110.2238 0.833
110.2541 0.885
110.2844 0.990
110.3146 1.302
110.3449 1.146
110.3752 1.094
110.4055 1.250
110.4358 0.937
110.4660 0.833
110.4963 1.094
110.5266 1.094
110.5569 0.833
110.5871 0.990
110.6174 1.198
110.6477 0.729
110.6780 0.990
110.7083 0.937
110.7385 0.625
110.7688 0.990
110.7991 0.781
110.8294 0.781
110.8597 0.937
110.8899 0.781
110.9202 0.625
110.9505 0.833
110.9808 0.573
111.0110 0.937
111.0413 0.625
111.0716 1.094
111.1019 0.729
111.1322 0.990
111.1624 0.990
111.1927 1.094
111.2230 0.990
111.2533 0.625
111.2836 0.833
111.3138 1.198
111.3441 0.833
111.3744 0.990
111.4047 0.885
111.4350 0.885
111.4652 0.781
111.4955 0.937
111.5258 1.042
111.5561 0.937
111.5863 0.417
111.6166 0.990
111.6469 1.042
111.6772 0.469
111.7075 0.469
111.7377 0.833
111.7680 0.833
111.7983 0.990
111.8286 0.990
111.8589 0.990
111.8891 0.937
111.9194 0.729
111.9497 0.990
111.9800 0.833
112.0102 1.042
112.0405 0.729
112.0708 0.885
112.1011 0.573
112.1314 0.781
112.1616 0.729
112.1919 1.042
112.2222 0.781
112.2525 0.885
112.2828 0.573
112.3130 0.937
112.3433 0.677
112.3736 0.417
112.4039 0.990
112.4341 0.677
112.4644 0.990
112.4947 1.042
112.5250 0.781
112.5553 0.781
112.5855 1.042
112.6158 0.833
112.6461 1.042
112.6764 0.937
112.7067 0.573
112.7369 1.406
112.7672 0.729
112.7975 1.250
112.8278 0.885
112.8580 0.729
112.8883 0.729
112.9186 1.042
112.9489 0.781
112.9792 0.365
113.0094 1.042
113.0397 0.937
113.0700 0.937
113.1003 1.250
113.1306 0.833
113.1608 0.937
113.1911 0.417
113.2214 1.042
113.2517 0.781
113.2819 0.937
113.3122 0.521
113.3425 0.729
113.3728 0.729
113.4031 0.990
113.4333 0.573
113.4636 1.042
113.4939 0.781
113.5242 1.042
113.5545 0.729
113.5847 1.042
113.6150 0.573
113.6453 0.677
113.6756 0.885
113.7058 0.417
113.7361 1.042
113.7664 1.042
113.7967 0.573
113.8270 0.729
113.8572 0.990
113.8875 0.729
113.9178 1.250
113.9481 0.625
113.9784 0.833
114.0086 0.625
114.0389 0.885
114.0692 0.677
114.0995 0.677
114.1298 0.573
114.1600 0.729
114.1903 0.677
114.2206 0.833
114.2509 1.510
114.2811 1.094
114.3114 1.042
114.3417 1.094
114.3720 0.885
114.4023 1.198
114.4325 0.729
114.4628 1.146
114.4931 0.990
114.5234 0.729
114.5537 1.198
114.5839 0.885
114.6142 0.833
114.6445 0.781
114.6748 0.885
114.7050 0.781
114.7353 0.677
114.7656 0.833
114.7959 0.781
114.8262 0.677
114.8564 1.042
114.8867 0.833
114.9170 0.781
114.9473 0.625
114.9776 0.625
115.0078 1.146
115.0381 1.094
115.0684 0.885
115.0987 1.042
115.1289 0.833
115.1592 1.094
115.1895 0.885
115.2198 1.458
115.2501 0.677
115.2803 1.250
115.3106 1.302
115.3409 1.250
115.3712 1.042
115.4015 0.937
115.4317 1.094
115.4620 1.146
115.4923 0.937
115.5226 0.937
115.5528 1.406
115.5831 1.198
115.6134 0.677
115.6437 1.094
115.6740 1.094
115.7042 1.198
115.7345 0.781
115.7648 1.406
115.7951 0.937
115.8254 1.042
115.8556 1.042
115.8859 1.146
115.9162 0.937
115.9465 0.885
115.9767 1.510
116.0070 1.510
116.0373 1.146
116.0676 1.094
116.0979 1.146
116.1281 1.094
116.1584 1.406
116.1887 1.458
116.2190 1.562
116.2493 1.562
116.2795 1.198
116.3098 1.146
116.3401 1.250
116.3704 1.562
116.4006 1.302
116.4309 1.094
116.4612 1.198
116.4915 0.885
116.5218 0.729
116.5520 1.771
116.5823 1.458
116.6126 1.406
116.6429 1.146
116.6732 0.990
116.7034 1.094
116.7337 0.677
116.7640 0.937
116.7943 0.937
116.8245 1.198
116.8548 1.198
116.8851 1.198
116.9154 1.094
116.9457 0.937
116.9759 0.833
117.0062 1.302
117.0365 1.146
117.0668 1.562
117.0971 1.615
117.1273 0.625
117.1576 0.990
117.1879 0.469
117.2182 1.146
117.2485 1.094
117.2787 1.615
117.3090 1.198
117.3393 0.937
117.3696 0.990
117.3998 0.885
117.4301 0.885
117.4604 0.833
117.4907 0.677
117.5210 0.990
117.5512 1.198
117.5815 1.042
117.6118 1.510
117.6421 1.250
117.6724 1.042
117.7026 0.417
117.7329 0.781
117.7632 1.198
117.7935 0.885
117.8237 0.937
117.8540 0.625
117.8843 0.833
117.9146 0.833
117.9449 0.677
117.9751 0.937
118.0054 0.677
118.0357 0.677
118.0660 1.198
118.0963 0.729
118.1265 0.990
118.1568 0.729
118.1871 0.365
118.2174 0.729
118.2476 0.469
118.2779 0.625
118.3082 0.677
118.3385 0.573
118.3688 0.625
118.3990 0.781
118.4293 0.521
118.4596 0.573
118.4899 1.094
118.5202 0.781
118.5504 0.885
118.5807 0.781
118.6110 1.198
118.6413 0.937
118.6715 1.146
118.7018 1.094
118.7321 0.677
118.7624 0.417
118.7927 0.417
118.8229 1.198
118.8532 0.885
118.8835 1.094
118.9138 1.042
118.9441 0.937
118.9743 0.521
119.0046 0.521
119.0349 0.677
119.0652 1.094
119.0954 1.094
119.1257 0.781
119.1560 0.677
119.1863 0.885
119.2166 0.625
119.2468 0.833
119.2771 1.354
119.3074 1.042
119.3377 0.937
119.3680 1.042
119.3982 1.094
119.4285 0.781
119.4588 0.885
119.4891 0.677
119.5193 0.625
119.5496 1.146
119.5799 0.781
119.6102 0.885
119.6405 1.042
119.6707 0.729
119.7010 0.677
119.7313 0.937
119.7616 0.833
119.7919 0.781
119.8221 0.677
119.8524 0.573
119.8827 0.677
119.9130 0.677
119.9433 0.729
119.9735 0.781
120.0038 0.677
