'Id: "" Comment: "" Operator: "Lab Manager" Anode: "Cu" Scantype: "Locked Coupled" TimePerStep: "19.2" X: "9999" Y: "9999" Z: "9999" 
10.0015 3.177
10.0318 3.958
10.0620 3.802
10.0923 3.594
10.1226 3.854
10.1529 3.542
10.1832 4.323
10.2134 5.052
10.2437 3.385
10.2740 3.281
10.3043 4.010
10.3346 3.906
10.3648 3.802
10.3951 3.177
10.4254 4.271
10.4557 3.646
10.4859 4.167
10.5162 4.740
10.5465 3.906
10.5768 4.271
10.6071 4.375
10.6373 4.219
10.6676 4.219
10.6979 3.333
10.7282 3.490
10.7585 3.958
10.7887 3.698
10.8190 3.802
10.8493 4.010
10.8796 3.906
10.9098 3.802
10.9401 3.437
10.9704 4.167
11.0007 3.646
11.0310 3.385
11.0612 3.750
11.0915 3.698
11.1218 3.021
11.1521 3.229
11.1824 3.958
11.2126 3.542
11.2429 3.437
11.2732 3.854
11.3035 3.594
11.3337 3.958
11.3640 4.062
11.3943 3.646
11.4246 3.073
11.4549 4.010
11.4851 4.896
11.5154 4.010
11.5457 3.542
11.5760 3.750
11.6063 4.167
11.6365 3.646
11.6668 4.792
11.6971 3.646
11.7274 4.219
11.7577 3.958
11.7879 3.594
11.8182 3.333
11.8485 2.969
11.8788 3.177
11.9090 2.552
11.9393 4.010
11.9696 3.229
11.9999 2.708
12.0302 4.062
12.0604 3.125
12.0907 3.021
12.1210 3.906
12.1513 3.385
12.1816 4.115
12.2118 3.281
12.2421 3.542
12.2724 3.490
12.3027 3.229
12.3329 3.906
12.3632 3.958
12.3935 3.958
12.4238 3.750
12.4541 3.750
12.4843 3.958
12.5146 3.646
12.5449 2.708
12.5752 2.240
12.6055 3.281
12.6357 2.708
12.6660 3.542
12.6963 3.698
12.7266 2.448
12.7568 4.010
12.7871 4.115
12.8174 3.021
12.8477 3.281
12.8780 3.542
12.9082 3.177
12.9385 3.177
12.9688 3.698
12.9991 3.906
13.0294 3.229
13.0596 3.125
13.0899 3.125
13.1202 3.333
13.1505 4.115
13.1807 3.958
13.2110 2.656
13.2413 2.552
13.2716 3.437
13.3019 3.802
13.3321 4.740
13.3624 3.229
13.3927 3.229
13.4230 3.802
13.4533 4.531
13.4835 2.760
13.5138 3.958
13.5441 2.812
13.5744 3.490
13.6046 3.385
13.6349 3.229
13.6652 2.760
13.6955 2.656
13.7258 3.750
13.7560 3.906
13.7863 2.760
13.8166 3.281
13.8469 2.656
13.8772 2.865
13.9074 2.344
13.9377 2.708
13.9680 2.708
13.9983 2.917
14.0285 3.594
14.0588 3.073
14.0891 3.073
14.1194 3.437
14.1497 3.542
14.1799 2.760
14.2102 3.073
14.2405 3.021
14.2708 2.083
14.3011 3.906
14.3313 3.281
14.3616 3.542
14.3919 2.500
14.4222 3.333
14.4524 3.594
14.4827 3.073
14.5130 3.437
14.5433 2.969
14.5736 3.490
14.6038 3.021
14.6341 2.448
14.6644 3.594
14.6947 2.969
14.7250 2.292
14.7552 3.073
14.7855 3.646
14.8158 2.604
14.8461 3.490
14.8764 3.594
14.9066 3.125
14.9369 2.812
14.9672 3.125
14.9975 2.500
15.0277 2.812
15.0580 2.865
15.0883 3.385
15.1186 3.594
15.1489 2.344
15.1791 2.656
15.2094 2.865
15.2397 2.812
15.2700 2.448
15.3003 3.125
15.3305 3.177
15.3608 2.604
15.3911 3.490
15.4214 3.542
15.4516 3.073
15.4819 3.542
15.5122 2.969
15.5425 2.917
15.5728 2.448
15.6030 3.542
15.6333 3.177
15.6636 3.073
15.6939 3.385
15.7242 4.010
15.7544 3.229
15.7847 2.917
15.8150 2.760
15.8453 3.281
15.8755 2.552
15.9058 3.594
15.9361 2.708
15.9664 2.969
15.9967 3.281
16.0269 2.969
16.0572 2.604
16.0875 3.542
16.1178 3.125
16.1481 2.708
16.1783 2.604
16.2086 2.708
16.2389 2.708
16.2692 3.125
16.2994 2.917
16.3297 3.021
16.3600 3.437
16.3903 2.656
16.4206 3.594
16.4508 3.073
16.4811 2.760
16.5114 3.073
16.5417 3.385
16.5720 3.542
16.6022 3.073
16.6325 2.917
16.6628 2.865
16.6931 3.281
16.7233 2.708
16.7536 2.552
16.7839 3.490
16.8142 2.812
16.8445 3.854
16.8747 2.917
16.9050 3.333
16.9353 2.500
16.9656 3.385
16.9959 3.073
17.0261 3.542
17.0564 3.437
17.0867 3.594
17.1170 2.396
17.1472 3.750
17.1775 3.385
17.2078 3.073
17.2381 2.812
17.2684 2.760
17.2986 3.490
17.3289 3.594
17.3592 2.344
17.3895 3.385
17.4198 2.604
17.4500 3.385
17.4803 2.604
17.5106 2.865
17.5409 3.490
17.5712 2.344
17.6014 3.125
17.6317 2.760
17.6620 3.021
17.6923 2.969
17.7225 2.604
17.7528 2.917
17.7831 2.135
17.8134 2.865
17.8437 3.073
17.8739 2.083
17.9042 3.073
17.9345 3.177
17.9648 3.021
17.9951 2.917
18.0253 2.552
18.0556 3.021
18.0859 2.865
18.1162 3.177
18.1464 3.177
18.1767 2.812
18.2070 2.292
18.2373 2.500
18.2676 3.125
18.2978 3.021
18.3281 3.073
18.3584 2.656
18.3887 3.021
18.4190 3.125
18.4492 2.917
18.4795 3.333
18.5098 2.917
18.5401 3.281
18.5703 3.177
18.6006 3.646
18.6309 3.594
18.6612 3.594
18.6915 3.125
18.7217 2.865
18.7520 2.500
18.7823 3.177
18.8126 3.177
18.8429 3.021
18.8731 3.229
18.9034 2.500
18.9337 2.500
18.9640 3.281
18.9942 2.708
19.0245 3.281
19.0548 3.229
19.0851 2.708
19.1154 2.656
19.1456 2.500
19.1759 2.083
19.2062 2.500
19.2365 2.812
19.2668 2.760
19.2970 3.177
19.3273 2.760
19.3576 3.125
19.3879 4.062
19.4181 2.760
19.4484 2.812
19.4787 2.917
19.5090 2.760
19.5393 3.073
19.5695 2.917
19.5998 3.646
19.6301 2.344
19.6604 3.073
19.6907 2.812
19.7209 2.708
19.7512 2.760
19.7815 3.437
19.8118 2.708
19.8420 3.229
19.8723 2.240
19.9026 3.229
19.9329 2.812
19.9632 2.604
19.9934 2.917
20.0237 2.292
20.0540 2.240
20.0843 2.760
20.1146 2.708
20.1448 2.708
20.1751 2.917
20.2054 3.177
20.2357 3.646
20.2659 2.187
20.2962 3.073
20.3265 2.240
20.3568 3.437
20.3871 2.656
20.4173 3.021
20.4476 2.500
20.4779 2.396
20.5082 3.333
20.5385 2.187
20.5687 2.708
20.5990 2.917
20.6293 2.969
20.6596 3.333
20.6899 2.604
20.7201 2.552
20.7504 2.917
20.7807 2.812
20.8110 2.760
20.8412 2.448
20.8715 2.917
20.9018 3.021
20.9321 2.760
20.9624 2.760
20.9926 3.437
21.0229 2.812
21.0532 2.656
21.0835 1.927
21.1138 2.656
21.1440 3.021
21.1743 3.542
21.2046 2.552
21.2349 3.125
21.2651 2.865
21.2954 2.865
21.3257 2.604
21.3560 2.187
21.3863 3.281
21.4165 3.437
21.4468 2.604
21.4771 2.552
21.5074 2.865
21.5377 2.708
21.5679 3.802
21.5982 2.396
21.6285 1.823
21.6588 2.396
21.6890 2.865
21.7193 3.021
21.7496 3.073
21.7799 3.385
21.8102 2.135
21.8404 2.500
21.8707 2.708
21.9010 3.021
21.9313 2.604
21.9616 2.812
21.9918 3.021
22.0221 2.396
22.0524 3.594
22.0827 2.760
22.1129 2.917
22.1432 2.760
22.1735 3.385
22.2038 2.448
22.2341 2.083
22.2643 2.865
22.2946 2.604
22.3249 2.344
22.3552 2.292
22.3855 2.187
22.4157 2.240
22.4460 2.812
22.4763 2.448
22.5066 2.865
22.5368 3.281
22.5671 2.135
22.5974 2.917
22.6277 2.240
22.6580 2.240
22.6882 2.448
22.7185 2.760
22.7488 3.281
22.7791 2.656
22.8094 2.448
22.8396 2.656
22.8699 2.344
22.9002 1.615
22.9305 2.812
22.9607 2.708
22.9910 2.240
23.0213 2.240
23.0516 3.333
23.0819 2.760
23.1121 2.500
23.1424 2.604
23.1727 2.448
23.2030 2.604
23.2333 2.865
23.2635 2.917
23.2938 2.187
23.3241 3.125
23.3544 2.396
23.3846 2.240
23.4149 2.396
23.4452 3.333
23.4755 2.083
23.5058 2.865
23.5360 3.073
23.5663 2.135
23.5966 2.656
23.6269 2.500
23.6572 2.552
23.6874 2.812
23.7177 2.240
23.7480 2.760
23.7783 2.708
23.8086 3.594
23.8388 2.396
23.8691 2.396
23.8994 3.021
23.9297 3.229
23.9599 2.135
23.9902 2.760
24.0205 2.396
24.0508 2.396
24.0811 2.708
24.1113 3.229
24.1416 1.927
24.1719 2.240
24.2022 2.812
24.2325 2.708
24.2627 2.344
24.2930 2.604
24.3233 1.875
24.3536 3.281
24.3838 2.760
24.4141 2.500
24.4444 2.917
24.4747 2.604
24.5050 2.969
24.5352 2.240
24.5655 2.760
24.5958 2.656
24.6261 3.177
24.6564 3.021
24.6866 2.083
24.7169 2.969
24.7472 2.917
24.7775 2.552
24.8077 2.708
24.8380 2.708
24.8683 2.708
24.8986 2.604
24.9289 3.229
24.9591 2.344
24.9894 2.865
25.0197 2.917
25.0500 2.448
25.0803 2.760
25.1105 2.656
25.1408 2.865
25.1711 2.448
25.2014 2.240
25.2316 2.656
25.2619 2.552
25.2922 3.073
25.3225 2.656
25.3528 3.073
25.3830 3.021
25.4133 2.760
25.4436 2.708
25.4739 2.656
25.5042 2.344
25.5344 3.594
25.5647 2.760
25.5950 2.917
25.6253 2.604
25.6555 2.292
25.6858 2.917
25.7161 3.490
25.7464 3.281
25.7767 3.229
25.8069 2.812
25.8372 2.760
25.8675 3.802
25.8978 2.552
25.9281 2.865
25.9583 3.021
25.9886 3.542
26.0189 2.604
26.0492 2.604
26.0794 2.240
26.1097 2.344
26.1400 2.344
26.1703 3.073
26.2006 2.604
26.2308 3.073
26.2611 3.281
26.2914 2.500
26.3217 2.969
26.3520 2.500
26.3822 2.448
26.4125 3.333
26.4428 3.229
26.4731 2.604
26.5034 2.500
26.5336 3.125
26.5639 3.073
26.5942 2.500
26.6245 2.500
26.6547 3.333
26.6850 2.187
26.7153 2.812
26.7456 2.656
26.7759 3.333
26.8061 3.229
26.8364 2.552
26.8667 3.594
26.8970 2.604
26.9273 2.656
26.9575 2.500
26.9878 2.187
27.0181 3.594
27.0484 3.542
27.0786 3.958
27.1089 2.865
27.1392 3.333
27.1695 2.552
27.1998 3.021
27.2300 3.125
27.2603 3.073
27.2906 3.437
27.3209 3.229
27.3512 2.760
27.3814 3.490
27.4117 2.500
27.4420 2.344
27.4723 2.969
27.5025 2.812
27.5328 3.281
27.5631 3.229
27.5934 3.177
27.6237 3.698
27.6539 3.073
27.6842 3.646
27.7145 3.437
27.7448 3.333
27.7751 3.177
27.8053 3.281
27.8356 3.229
27.8659 3.698
27.8962 2.812
27.9264 3.073
27.9567 2.917
27.9870 3.125
28.0173 4.062
28.0476 2.292
28.0778 3.333
28.1081 3.542
28.1384 4.323
28.1687 3.854
28.1990 2.917
28.2292 2.917
28.2595 4.062
28.2898 3.437
28.3201 3.385
28.3503 3.021
28.3806 3.542
28.4109 3.854
28.4412 3.437
28.4715 3.281
28.5017 3.385
28.5320 3.490
28.5623 3.750
28.5926 3.437
28.6229 3.906
28.6531 3.698
28.6834 3.281
28.7137 3.281
28.7440 3.490
28.7742 3.802
28.8045 3.750
28.8348 4.427
28.8651 3.646
28.8954 3.021
28.9256 3.854
28.9559 4.062
28.9862 3.594
29.0165 2.865
29.0468 3.698
29.0770 4.115
29.1073 3.698
29.1376 2.917
29.1679 3.490
29.1981 3.021
29.2284 2.812
29.2587 3.437
29.2890 3.594
29.3193 3.594
29.3495 3.437
29.3798 4.427
29.4101 3.333
29.4404 3.958
29.4707 3.542
29.5009 3.750
29.5312 4.062
29.5615 4.531
29.5918 3.281
29.6221 4.583
29.6523 3.698
29.6826 4.323
29.7129 4.323
29.7432 3.802
29.7734 4.062
29.8037 4.479
29.8340 4.948
29.8643 3.750
29.8946 4.583
29.9248 4.271
29.9551 4.271
29.9854 5.052
30.0157 4.375
30.0460 4.687
30.0762 4.635
30.1065 5.885
30.1368 4.427
30.1671 4.219
30.1973 4.687
30.2276 4.635
30.2579 4.323
30.2882 4.375
30.3185 4.948
30.3487 5.156
30.3790 5.365
30.4093 5.312
30.4396 5.104
30.4699 6.042
30.5001 5.729
30.5304 5.937
30.5607 5.937
30.5910 5.052
30.6212 6.458
30.6515 5.365
30.6818 6.979
30.7121 7.083
30.7424 7.396
30.7726 6.979
30.8029 7.187
30.8332 7.708
30.8635 6.406
30.8938 8.750
30.9240 9.583
30.9543 10.156
30.9846 8.490
31.0149 10.104
31.0451 10.260
31.0754 10.260
31.1057 10.781
31.1360 11.771
31.1663 12.708
31.1965 14.844
31.2268 15.625
31.2571 15.625
31.2874 19.896
31.3177 20.104
31.3479 21.719
31.3782 23.750
31.4085 27.708
31.4388 29.167
31.4690 32.292
31.4993 35.573
31.5296 35.365
31.5599 38.125
31.5902 41.615
31.6204 44.375
31.6507 45.052
31.6810 42.292
31.7113 40.781
31.7416 42.552
31.7718 36.042
31.8021 34.427
31.8324 33.646
31.8627 28.281
31.8929 27.187
31.9232 22.240
31.9535 22.396
31.9838 20.781
32.0141 18.906
32.0443 15.990
32.0746 14.271
32.1049 14.219
32.1352 11.458
32.1655 10.521
32.1957 10.052
32.2260 10.833
32.2563 9.427
32.2866 9.635
32.3169 9.062
32.3471 8.750
32.3774 9.219
32.4077 7.760
32.4380 8.177
32.4682 6.823
32.4985 5.885
32.5288 7.344
32.5591 6.979
32.5894 5.833
32.6196 6.615
32.6499 6.562
32.6802 7.240
32.7105 7.396
32.7408 6.146
32.7710 5.625
32.8013 6.510
32.8316 5.781
32.8619 6.927
32.8921 5.573
32.9224 6.771
32.9527 6.146
32.9830 5.312
33.0133 4.896
33.0435 5.000
33.0738 5.469
33.1041 5.156
33.1344 6.146
33.1647 6.198
33.1949 5.000
33.2252 6.250
33.2555 5.312
33.2858 5.417
33.3160 5.521
33.3463 5.469
33.3766 6.823
33.4069 5.052
33.4372 5.885
33.4674 5.833
33.4977 6.667
33.5280 5.885
33.5583 7.656
33.5886 6.562
33.6188 7.292
33.6491 7.760
33.6794 7.656
33.7097 6.771
33.7399 7.187
33.7702 7.760
33.8005 8.333
33.8308 8.854
33.8611 10.781
33.8913 10.625
33.9216 10.677
33.9519 11.458
33.9822 15.260
34.0125 12.969
34.0427 16.094
34.0730 17.969
34.1033 20.260
34.1336 24.115
34.1638 25.312
34.1941 33.646
34.2244 42.396
34.2547 50.312
34.2850 57.396
34.3152 60.625
34.3455 54.948
34.3758 50.312
34.4061 43.958
34.4364 35.990
34.4666 31.406
34.4969 23.385
34.5272 22.656
34.5575 18.646
34.5877 15.625
34.6180 15.729
34.6483 12.865
34.6786 13.385
34.7089 11.510
34.7391 10.885
34.7694 9.896
34.7997 10.469
34.8300 11.562
34.8603 10.208
34.8905 10.365
34.9208 8.750
34.9511 7.812
34.9814 7.917
35.0116 9.948
35.0419 9.479
35.0722 8.542
35.1025 9.167
35.1328 9.687
35.1630 9.010
35.1933 10.000
35.2236 9.531
35.2539 9.427
35.2842 11.094
35.3144 12.187
35.3447 10.885
35.3750 11.094
35.4053 12.135
35.4356 12.552
35.4658 13.021
35.4961 11.771
35.5264 13.646
35.5567 14.219
35.5869 15.104
35.6172 18.542
35.6475 18.646
35.6778 19.479
35.7081 19.583
35.7383 22.396
35.7686 25.781
35.7989 27.240
35.8292 28.333
35.8595 31.979
35.8897 39.115
35.9200 40.000
35.9503 41.562
35.9806 44.323
36.0108 49.427
36.0411 55.990
36.0714 60.208
36.1017 59.948
36.1320 65.052
36.1622 64.375
36.1925 60.260
36.2228 61.406
36.2531 57.552
36.2834 51.979
36.3136 46.823
36.3439 44.479
36.3742 34.323
36.4045 34.115
36.4347 29.948
36.4650 26.562
36.4953 26.250
36.5256 21.302
36.5559 20.000
36.5861 19.167
36.6164 16.979
36.6467 15.937
36.6770 13.646
36.7073 13.073
36.7375 14.479
36.7678 12.187
36.7981 11.667
36.8284 9.844
36.8586 10.312
36.8889 9.323
36.9192 8.333
36.9495 9.219
36.9798 7.969
37.0100 8.281
37.0403 8.490
37.0706 6.979
37.1009 6.510
37.1312 7.656
37.1614 7.083
37.1917 6.719
37.2220 6.927
37.2523 6.719
37.2825 5.104
37.3128 5.156
37.3431 6.458
37.3734 6.250
37.4037 4.583
37.4339 4.896
37.4642 4.948
37.4945 5.312
37.5248 3.802
37.5551 4.687
37.5853 4.844
37.6156 4.635
37.6459 4.948
37.6762 4.792
37.7064 4.531
37.7367 4.635
37.7670 4.635
37.7973 4.167
37.8276 4.635
37.8578 4.844
37.8881 3.802
37.9184 4.167
37.9487 3.802
37.9790 3.646
38.0092 3.698
38.0395 3.750
38.0698 3.750
38.1001 3.594
38.1304 3.437
38.1606 4.167
38.1909 3.594
38.2212 3.229
38.2515 3.490
38.2817 3.750
38.3120 2.812
38.3423 3.229
38.3726 3.125
38.4029 2.760
38.4331 3.333
38.4634 3.385
38.4937 3.437
38.5240 3.125
38.5543 3.594
38.5845 2.396
38.6148 2.708
38.6451 2.708
38.6754 3.073
38.7056 3.490
38.7359 3.021
38.7662 3.229
38.7965 3.281
38.8268 2.708
38.8570 2.656
38.8873 2.604
38.9176 3.125
38.9479 3.021
38.9782 3.385
39.0084 2.760
39.0387 2.552
39.0690 2.812
39.0993 2.969
39.1295 2.500
39.1598 2.865
39.1901 3.646
39.2204 3.073
39.2507 2.969
39.2809 2.500
39.3112 3.385
39.3415 2.917
39.3718 2.812
39.4021 2.760
39.4323 3.385
39.4626 2.865
39.4929 2.187
39.5232 2.240
39.5534 2.500
39.5837 2.500
39.6140 2.552
39.6443 3.021
39.6746 2.187
39.7048 2.292
39.7351 2.708
39.7654 2.917
39.7957 2.187
39.8260 1.823
39.8562 2.604
39.8865 2.604
39.9168 2.708
39.9471 2.240
39.9773 2.917
40.0076 2.448
40.0379 2.448
40.0682 2.448
40.0985 2.187
40.1287 2.344
40.1590 2.500
40.1893 2.031
40.2196 2.500
40.2499 2.760
40.2801 1.719
40.3104 2.552
40.3407 2.448
40.3710 2.135
40.4012 2.344
40.4315 1.771
40.4618 2.344
40.4921 2.031
40.5224 2.083
40.5526 2.396
40.5829 2.344
40.6132 2.240
40.6435 2.031
40.6738 1.979
40.7040 2.500
40.7343 2.448
40.7646 2.031
40.7949 2.135
40.8251 2.135
40.8554 2.396
40.8857 1.979
40.9160 2.448
40.9463 2.604
40.9765 1.927
41.0068 1.823
41.0371 2.031
41.0674 2.031
41.0977 1.979
41.1279 2.031
41.1582 1.719
41.1885 2.187
41.2188 2.240
41.2491 1.979
41.2793 1.979
41.3096 2.083
41.3399 2.344
41.3702 1.875
41.4004 2.448
41.4307 2.396
41.4610 2.344
41.4913 2.187
41.5216 1.927
41.5518 2.812
41.5821 1.927
41.6124 2.187
41.6427 2.187
41.6730 2.083
41.7032 1.875
41.7335 2.187
41.7638 2.448
41.7941 2.552
41.8243 2.500
41.8546 2.083
41.8849 1.927
41.9152 2.552
41.9455 2.292
41.9757 2.969
42.0060 1.979
42.0363 2.552
42.0666 2.292
42.0969 1.875
42.1271 1.615
42.1574 2.031
42.1877 1.771
42.2180 1.875
42.2482 1.562
42.2785 1.615
42.3088 1.771
42.3391 2.500
42.3694 1.875
42.3996 2.396
42.4299 2.604
42.4602 2.187
42.4905 1.667
42.5208 1.562
42.5510 2.344
42.5813 2.187
42.6116 1.562
42.6419 1.927
42.6721 2.135
42.7024 2.083
42.7327 1.979
42.7630 1.302
42.7933 2.917
42.8235 1.927
42.8538 1.510
42.8841 2.031
42.9144 2.448
42.9447 1.719
42.9749 2.240
43.0052 2.656
43.0355 1.927
43.0658 1.875
43.0960 2.396
43.1263 1.823
43.1566 2.031
43.1869 2.656
43.2172 2.240
43.2474 1.875
43.2777 1.979
43.3080 2.187
43.3383 1.875
43.3686 2.396
43.3988 1.927
43.4291 1.719
43.4594 2.083
43.4897 1.979
43.5199 2.656
43.5502 2.083
43.5805 3.073
43.6108 2.604
43.6411 2.292
43.6713 2.187
43.7016 1.875
43.7319 1.771
43.7622 2.187
43.7925 2.187
43.8227 2.292
43.8530 2.500
43.8833 2.187
43.9136 2.396
43.9439 2.031
43.9741 1.823
44.0044 1.979
44.0347 1.562
44.0650 2.448
44.0952 2.240
44.1255 2.448
44.1558 2.135
44.1861 2.083
44.2164 2.448
44.2466 2.552
44.2769 2.500
44.3072 1.771
44.3375 1.823
44.3678 2.083
44.3980 2.240
44.4283 1.823
44.4586 1.927
44.4889 2.240
44.5191 2.448
44.5494 1.927
44.5797 1.510
44.6100 2.187
44.6403 3.281
44.6705 2.448
44.7008 2.083
44.7311 2.135
44.7614 2.031
44.7917 1.719
44.8219 2.292
44.8522 2.240
44.8825 3.229
44.9128 2.604
44.9430 2.031
44.9733 2.135
45.0036 2.656
45.0339 2.552
45.0642 2.240
45.0944 2.552
45.1247 2.604
45.1550 2.448
45.1853 1.719
45.2156 2.344
45.2458 1.823
45.2761 2.969
45.3064 2.292
45.3367 2.292
45.3669 2.083
45.3972 2.708
45.4275 2.396
45.4578 1.510
45.4881 2.760
45.5183 2.187
45.5486 2.187
45.5789 2.500
45.6092 2.292
45.6395 2.031
45.6697 2.292
45.7000 2.187
45.7303 2.292
45.7606 2.187
45.7908 2.344
45.8211 2.135
45.8514 2.604
45.8817 2.656
45.9120 2.656
45.9422 1.927
45.9725 2.552
46.0028 2.187
46.0331 2.865
46.0634 2.344
46.0936 2.812
46.1239 2.760
46.1542 2.292
46.1845 2.656
46.2147 2.135
46.2450 3.125
46.2753 2.500
46.3056 3.073
46.3359 2.865
46.3661 3.333
46.3964 3.021
46.4267 3.490
46.4570 3.177
46.4873 2.865
46.5175 2.500
46.5478 2.865
46.5781 3.490
46.6084 3.177
46.6386 3.385
46.6689 2.552
46.6992 3.125
46.7295 3.437
46.7598 3.177
46.7900 4.010
46.8203 4.844
46.8506 3.802
46.8809 4.427
46.9112 4.531
46.9414 5.365
46.9717 5.573
47.0020 4.531
47.0323 6.458
47.0626 7.187
47.0928 8.125
47.1231 6.562
47.1534 8.333
47.1837 8.229
47.2139 9.687
47.2442 10.625
47.2745 11.146
47.3048 13.906
47.3351 13.333
47.3653 13.698
47.3956 13.698
47.4259 14.740
47.4562 14.167
47.4865 13.750
47.5167 13.021
47.5470 11.719
47.5773 10.990
47.6076 10.937
47.6378 9.740
47.6681 10.312
47.6984 9.323
47.7287 7.187
47.7590 6.302
47.7892 5.990
47.8195 6.146
47.8498 5.208
47.8801 5.312
47.9104 5.365
47.9406 4.167
47.9709 4.219
48.0012 3.958
48.0315 3.385
48.0617 3.437
48.0920 3.646
48.1223 4.219
48.1526 3.750
48.1829 3.125
48.2131 2.500
48.2434 3.542
48.2737 2.969
48.3040 3.125
48.3343 2.812
48.3645 2.812
48.3948 3.281
48.4251 2.656
48.4554 2.604
48.4856 2.812
48.5159 2.552
48.5462 2.292
48.5765 2.604
48.6068 2.500
48.6370 3.177
48.6673 2.969
48.6976 1.927
48.7279 1.979
48.7582 2.760
48.7884 2.240
48.8187 2.344
48.8490 2.552
48.8793 2.656
48.9095 2.240
48.9398 2.187
48.9701 2.812
49.0004 2.552
49.0307 2.240
49.0609 2.969
49.0912 3.073
49.1215 1.510
49.1518 1.823
49.1821 2.448
49.2123 2.292
49.2426 2.083
49.2729 1.510
49.3032 2.187
49.3334 1.562
49.3637 2.240
49.3940 1.875
49.4243 1.927
49.4546 2.187
49.4848 2.604
49.5151 2.396
49.5454 2.656
49.5757 2.135
49.6060 2.812
49.6362 1.719
49.6665 2.396
49.6968 1.719
49.7271 2.240
49.7574 1.823
49.7876 1.667
49.8179 2.552
49.8482 1.667
49.8785 2.344
49.9087 1.771
49.9390 1.979
49.9693 1.927
49.9996 1.615
50.0299 2.396
50.0601 1.771
50.0904 1.667
50.1207 1.354
50.1510 2.396
50.1813 2.448
50.2115 2.292
50.2418 2.604
50.2721 2.812
50.3024 1.771
50.3326 1.927
50.3629 1.927
50.3932 2.240
50.4235 2.083
50.4538 2.292
50.4840 2.240
50.5143 1.927
50.5446 1.875
50.5749 1.250
50.6052 2.292
50.6354 2.760
50.6657 1.719
50.6960 2.187
50.7263 1.927
50.7565 1.667
50.7868 1.771
50.8171 1.979
50.8474 2.083
50.8777 2.135
50.9079 1.510
50.9382 2.083
50.9685 2.031
50.9988 1.927
51.0291 1.615
51.0593 2.135
51.0896 1.667
51.1199 2.031
51.1502 1.979
51.1804 1.979
51.2107 2.083
51.2410 1.615
51.2713 1.667
51.3016 1.771
51.3318 2.500
51.3621 2.031
51.3924 1.927
51.4227 2.031
51.4530 1.771
51.4832 1.979
51.5135 1.979
51.5438 1.510
51.5741 1.979
51.6043 1.979
51.6346 1.823
51.6649 1.458
51.6952 2.187
51.7255 2.083
51.7557 2.292
51.7860 2.083
51.8163 1.615
51.8466 2.396
51.8769 1.823
51.9071 1.458
51.9374 1.719
51.9677 1.927
51.9980 2.292
52.0282 2.708
52.0585 1.979
52.0888 2.500
52.1191 1.406
52.1494 2.552
52.1796 1.927
52.2099 2.135
52.2402 2.031
52.2705 2.187
52.3008 2.344
52.3310 1.823
52.3613 1.510
52.3916 2.240
52.4219 1.719
52.4521 1.927
52.4824 2.083
52.5127 1.979
52.5430 2.135
52.5733 1.927
52.6035 2.135
52.6338 2.448
52.6641 2.135
52.6944 2.083
52.7247 2.240
52.7549 2.292
52.7852 2.604
52.8155 1.875
52.8458 2.083
52.8761 1.771
52.9063 1.875
52.9366 2.031
52.9669 1.771
52.9972 1.875
53.0274 1.875
53.0577 2.917
53.0880 1.719
53.1183 2.240
53.1486 1.458
53.1788 1.875
53.2091 1.667
53.2394 1.562
53.2697 2.187
53.3000 2.396
53.3302 1.771
53.3605 2.031
53.3908 2.083
53.4211 2.448
53.4513 3.125
53.4816 1.458
53.5119 2.083
53.5422 2.396
53.5725 2.240
53.6027 2.292
53.6330 2.240
53.6633 2.500
53.6936 2.552
53.7239 1.927
53.7541 2.083
53.7844 2.552
53.8147 1.875
53.8450 1.615
53.8752 2.396
53.9055 2.083
53.9358 2.240
53.9661 2.031
53.9964 2.031
54.0266 1.823
54.0569 2.500
54.0872 1.979
54.1175 1.979
54.1478 2.083
54.1780 2.292
54.2083 2.500
54.2386 2.187
54.2689 2.031
54.2991 2.031
54.3294 2.552
54.3597 1.510
54.3900 2.292
54.4203 2.344
54.4505 2.187
54.4808 2.448
54.5111 2.344
54.5414 2.604
54.5717 2.083
54.6019 2.500
54.6322 2.760
54.6625 2.240
54.6928 2.344
54.7230 2.917
54.7533 1.927
54.7836 3.021
54.8139 2.500
54.8442 3.021
54.8744 2.396
54.9047 2.865
54.9350 2.760
54.9653 2.396
54.9956 3.854
55.0258 2.969
55.0561 2.812
55.0864 2.604
55.1167 2.865
55.1469 2.812
55.1772 2.760
55.2075 2.604
55.2378 3.385
55.2681 3.385
55.2983 3.802
55.3286 2.552
55.3589 3.646
55.3892 2.812
55.4195 3.073
55.4497 3.542
55.4800 3.385
55.5103 3.281
55.5406 2.969
55.5709 4.271
55.6011 3.281
55.6314 3.906
55.6617 3.750
55.6920 4.010
55.7222 3.750
55.7525 3.542
55.7828 5.417
55.8131 4.635
55.8434 5.573
55.8736 5.417
55.9039 5.365
55.9342 4.531
55.9645 6.198
55.9948 6.250
56.0250 6.094
56.0553 6.719
56.0856 8.125
56.1159 7.865
56.1461 7.448
56.1764 9.271
56.2067 9.844
56.2370 11.094
56.2673 11.302
56.2975 11.927
56.3278 12.031
56.3581 15.990
56.3884 15.677
56.4187 20.365
56.4489 18.333
56.4792 20.312
56.5095 17.083
56.5398 18.021
56.5700 16.406
56.6003 16.979
56.6306 15.208
56.6609 14.219
56.6912 13.802
56.7214 11.771
56.7517 11.562
56.7820 9.062
56.8123 8.802
56.8426 9.531
56.8728 8.490
56.9031 7.865
56.9334 6.875
56.9637 6.458
56.9939 5.781
57.0242 6.823
57.0545 5.312
57.0848 5.521
57.1151 4.948
57.1453 4.792
57.1756 4.896
57.2059 4.219
57.2362 4.375
57.2665 3.802
57.2967 3.281
57.3270 3.958
57.3573 4.219
57.3876 3.958
57.4178 3.646
57.4481 3.594
57.4784 3.021
57.5087 3.437
57.5390 3.125
57.5692 3.385
57.5995 2.917
57.6298 2.552
57.6601 2.500
57.6904 3.333
57.7206 2.708
57.7509 2.552
57.7812 2.969
57.8115 2.500
57.8417 3.073
57.8720 2.865
57.9023 1.927
57.9326 2.240
57.9629 2.083
57.9931 2.448
58.0234 2.708
58.0537 3.073
58.0840 2.604
58.1143 2.760
58.1445 2.812
58.1748 2.448
58.2051 2.396
58.2354 2.344
58.2656 2.135
58.2959 2.396
58.3262 2.187
58.3565 2.344
58.3868 2.344
58.4170 2.292
58.4473 2.448
58.4776 2.083
58.5079 2.604
58.5382 2.187
58.5684 2.031
58.5987 2.135
58.6290 2.552
58.6593 2.448
58.6896 2.187
58.7198 2.292
58.7501 2.031
58.7804 1.823
58.8107 1.667
58.8409 2.552
58.8712 1.771
58.9015 1.562
58.9318 2.604
58.9621 2.812
58.9923 2.552
59.0226 1.875
59.0529 2.135
59.0832 2.917
59.1135 2.083
59.1437 2.760
59.1740 2.552
59.2043 2.083
59.2346 2.031
59.2648 1.719
59.2951 1.823
59.3254 2.031
59.3557 2.500
59.3860 2.083
59.4162 2.135
59.4465 2.135
59.4768 2.240
59.5071 2.344
59.5374 2.135
59.5676 2.031
59.5979 2.135
59.6282 2.187
59.6585 1.719
59.6887 2.656
59.7190 2.396
59.7493 2.083
59.7796 1.927
59.8099 2.292
59.8401 1.719
59.8704 2.240
59.9007 2.135
59.9310 2.031
59.9613 2.969
59.9915 1.875
60.0218 2.135
60.0521 2.083
60.0824 2.812
60.1126 2.552
60.1429 2.240
60.1732 2.292
60.2035 1.667
60.2338 1.979
60.2640 1.823
60.2943 2.135
60.3246 2.708
60.3549 2.135
60.3852 2.344
60.4154 2.500
60.4457 2.187
60.4760 2.187
60.5063 1.771
60.5365 2.448
60.5668 2.292
60.5971 2.187
60.6274 2.031
60.6577 2.656
60.6879 1.667
60.7182 1.771
60.7485 1.823
60.7788 2.500
60.8091 2.656
60.8393 2.240
60.8696 2.656
60.8999 2.865
60.9302 2.448
60.9604 2.604
60.9907 2.187
61.0210 3.125
61.0513 2.656
61.0816 2.500
61.1118 2.292
61.1421 2.396
61.1724 2.135
61.2027 2.552
61.2330 2.812
61.2632 2.187
61.2935 2.083
61.3238 2.552
61.3541 2.708
61.3844 2.865
61.4146 2.083
61.4449 2.187
61.4752 2.708
61.5055 2.187
61.5357 2.812
61.5660 2.969
61.5963 3.021
61.6266 2.292
61.6569 2.604
61.6871 2.292
61.7174 3.229
61.7477 3.125
61.7780 2.760
61.8083 3.177
61.8385 3.333
61.8688 2.917
61.8991 2.604
61.9294 3.750
61.9596 3.281
61.9899 3.229
62.0202 3.854
62.0505 3.750
62.0808 4.635
62.1110 4.062
62.1413 3.854
62.1716 4.271
62.2019 5.469
62.2322 5.208
62.2624 6.302
62.2927 5.729
62.3230 6.302
62.3533 7.240
62.3835 6.510
62.4138 7.448
62.4441 8.437
62.4744 8.385
62.5047 10.625
62.5349 9.427
62.5652 10.417
62.5955 11.042
62.6258 13.021
62.6561 13.646
62.6863 14.062
62.7166 14.792
62.7469 15.573
62.7772 15.677
62.8074 15.781
62.8377 13.854
62.8680 14.271
62.8983 14.375
62.9286 13.750
62.9588 13.229
62.9891 11.667
63.0194 10.312
63.0497 9.167
63.0800 8.646
63.1102 7.708
63.1405 6.510
63.1708 7.187
63.2011 6.875
63.2313 6.667
63.2616 5.052
63.2919 5.365
63.3222 5.260
63.3525 2.812
63.3827 3.854
63.4130 4.323
63.4433 4.740
63.4736 3.490
63.5039 3.021
63.5341 3.073
63.5644 3.906
63.5947 2.865
63.6250 2.708
63.6552 3.333
63.6855 2.812
63.7158 3.385
63.7461 3.021
63.7764 2.812
63.8066 2.552
63.8369 2.500
63.8672 2.396
63.8975 2.448
63.9278 2.135
63.9580 2.396
63.9883 2.969
64.0186 2.292
64.0489 2.604
64.0791 2.500
64.1094 2.031
64.1397 2.500
64.1700 2.500
64.2003 2.604
64.2305 2.812
64.2608 2.656
64.2911 3.073
64.3214 2.448
64.3517 2.292
64.3819 2.708
64.4122 2.187
64.4425 2.083
64.4728 1.823
64.5031 3.073
64.5333 2.031
64.5636 2.396
64.5939 2.292
64.6242 2.604
64.6544 2.031
64.6847 1.927
64.7150 2.500
64.7453 2.083
64.7756 2.500
64.8058 2.812
64.8361 2.708
64.8664 2.917
64.8967 2.083
64.9270 2.500
64.9572 1.979
64.9875 1.875
65.0178 1.979
65.0481 2.500
65.0783 2.812
65.1086 1.979
65.1389 1.927
65.1692 2.500
65.1995 2.708
65.2297 2.240
65.2600 2.031
65.2903 1.927
65.3206 2.917
65.3509 2.031
65.3811 2.708
65.4114 2.187
65.4417 2.969
65.4720 2.552
65.5022 2.917
65.5325 1.979
65.5628 2.292
65.5931 2.031
65.6234 2.448
65.6536 2.656
65.6839 2.969
65.7142 3.698
65.7445 2.760
65.7748 3.750
65.8050 2.917
65.8353 2.552
65.8656 3.437
65.8959 3.490
65.9261 2.969
65.9564 3.281
65.9867 2.812
66.0170 3.177
66.0473 3.594
66.0775 3.906
66.1078 3.177
66.1381 3.333
66.1684 3.750
66.1987 3.542
66.2289 3.542
66.2592 4.323
66.2895 3.594
66.3198 4.115
66.3500 5.156
66.3803 4.010
66.4106 3.854
66.4409 4.583
66.4712 3.490
66.5014 4.010
66.5317 4.010
66.5620 3.281
66.5923 4.115
66.6226 3.437
66.6528 2.865
66.6831 3.750
66.7134 3.750
66.7437 3.906
66.7739 4.062
66.8042 3.385
66.8345 2.812
66.8648 3.698
66.8951 3.542
66.9253 3.437
66.9556 2.656
66.9859 4.115
67.0162 3.802
67.0465 3.125
67.0767 4.062
67.1070 5.365
67.1373 5.052
67.1676 4.219
67.1978 4.844
67.2281 3.802
67.2584 5.104
67.2887 4.271
67.3190 4.948
67.3492 5.521
67.3795 5.677
67.4098 5.156
67.4401 5.781
67.4704 5.937
67.5006 5.156
67.5309 6.562
67.5612 8.125
67.5915 8.698
67.6218 10.417
67.6520 9.062
67.6823 9.219
67.7126 9.375
67.7429 9.635
67.7731 10.885
67.8034 10.990
67.8337 11.667
67.8640 11.875
67.8943 11.146
67.9245 11.198
67.9548 9.583
67.9851 10.781
68.0154 9.219
68.0457 9.167
68.0759 8.750
68.1062 8.177
68.1365 7.552
68.1668 6.667
68.1970 7.656
68.2273 6.250
68.2576 6.354
68.2879 7.083
68.3182 5.937
68.3484 6.042
68.3787 5.990
68.4090 5.208
68.4393 5.260
68.4696 5.156
68.4998 5.990
68.5301 5.833
68.5604 5.260
68.5907 5.469
68.6209 4.375
68.6512 5.365
68.6815 5.781
68.7118 6.510
68.7421 5.573
68.7723 5.937
68.8026 5.312
68.8329 5.677
68.8632 5.365
68.8935 6.094
68.9237 6.250
68.9540 5.417
68.9843 6.094
69.0146 6.562
69.0448 5.937
69.0751 6.771
69.1054 7.292
69.1357 5.417
69.1660 5.937
69.1962 5.781
69.2265 4.792
69.2568 4.896
69.2871 5.052
69.3174 3.854
69.3476 3.802
69.3779 4.167
69.4082 4.167
69.4385 4.115
69.4687 3.125
69.4990 3.021
69.5293 3.177
69.5596 3.437
69.5899 3.281
69.6201 2.396
69.6504 3.542
69.6807 3.333
69.7110 2.917
69.7413 3.281
69.7715 3.125
69.8018 2.604
69.8321 1.979
69.8624 2.344
69.8926 1.979
69.9229 2.500
69.9532 2.083
69.9835 3.073
70.0138 1.979
70.0440 2.656
70.0743 1.875
70.1046 1.875
70.1349 2.708
70.1652 2.135
70.1954 1.458
70.2257 2.135
70.2560 2.396
70.2863 1.927
70.3166 2.500
70.3468 1.875
70.3771 1.562
70.4074 2.031
70.4377 1.771
70.4679 2.031
70.4982 1.510
70.5285 2.031
70.5588 1.667
70.5891 1.927
70.6193 1.562
70.6496 1.823
70.6799 2.448
70.7102 1.875
70.7405 1.927
70.7707 1.354
70.8010 2.135
70.8313 1.823
70.8616 1.875
70.8918 2.083
70.9221 1.458
70.9524 1.458
70.9827 1.094
71.0130 1.823
71.0432 1.823
71.0735 1.771
71.1038 1.875
71.1341 1.667
71.1644 1.719
71.1946 1.823
71.2249 1.771
71.2552 2.083
71.2855 1.875
71.3157 1.562
71.3460 1.875
71.3763 1.302
71.4066 1.771
71.4369 1.562
71.4671 1.771
71.4974 1.615
71.5277 1.927
71.5580 1.667
71.5883 1.458
71.6185 1.875
71.6488 1.510
71.6791 1.667
71.7094 1.302
71.7396 2.240
71.7699 1.823
71.8002 1.771
71.8305 1.771
71.8608 1.979
71.8910 1.667
71.9213 1.406
71.9516 1.406
71.9819 1.250
72.0122 1.927
72.0424 1.771
72.0727 1.771
72.1030 1.510
72.1333 1.615
72.1635 1.823
72.1938 2.552
72.2241 1.927
72.2544 1.771
72.2847 1.875
72.3149 2.448
72.3452 1.823
72.3755 2.448
72.4058 2.396
72.4361 2.240
72.4663 2.656
72.4966 2.708
72.5269 2.187
72.5572 1.927
72.5874 2.448
72.6177 2.240
72.6480 1.823
72.6783 1.771
72.7086 2.083
72.7388 2.187
72.7691 2.812
72.7994 2.083
72.8297 2.083
72.8600 1.823
72.8902 2.240
72.9205 1.823
72.9508 1.927
72.9811 1.458
73.0113 1.510
73.0416 1.615
73.0719 1.406
73.1022 1.562
73.1325 1.719
73.1627 0.885
73.1930 1.615
73.2233 1.667
73.2536 1.615
73.2839 1.667
73.3141 1.250
73.3444 1.406
73.3747 1.562
73.4050 1.823
73.4353 1.458
73.4655 1.146
73.4958 1.510
73.5261 1.354
73.5564 1.406
73.5866 1.250
73.6169 1.719
73.6472 1.250
73.6775 1.250
73.7078 1.615
73.7380 1.250
73.7683 1.510
73.7986 2.031
73.8289 1.198
73.8592 1.875
73.8894 1.406
73.9197 1.771
73.9500 1.719
73.9803 1.198
74.0105 1.250
74.0408 1.302
74.0711 1.719
74.1014 1.771
74.1317 1.562
74.1619 1.406
74.1922 1.198
74.2225 1.458
74.2528 1.302
74.2831 1.615
74.3133 2.083
74.3436 1.771
74.3739 1.198
74.4042 1.719
74.4344 1.146
74.4647 1.198
74.4950 1.562
74.5253 1.510
74.5556 1.562
74.5858 1.198
74.6161 1.875
74.6464 1.510
74.6767 1.302
74.7070 1.615
74.7372 1.406
74.7675 0.729
74.7978 1.719
74.8281 1.406
74.8583 0.885
74.8886 1.927
74.9189 1.823
74.9492 1.406
74.9795 1.458
75.0097 1.510
75.0400 1.250
75.0703 1.146
75.1006 1.042
75.1309 1.198
75.1611 1.510
75.1914 1.146
75.2217 1.719
75.2520 1.719
75.2822 1.510
75.3125 1.927
75.3428 1.042
75.3731 1.198
75.4034 1.458
75.4336 1.562
75.4639 1.615
75.4942 1.250
75.5245 1.615
75.5548 1.562
75.5850 1.615
75.6153 1.302
75.6456 1.771
75.6759 1.667
75.7061 1.458
75.7364 1.406
75.7667 1.198
75.7970 2.187
75.8273 1.615
75.8575 1.927
75.8878 1.406
75.9181 1.667
75.9484 1.406
75.9787 2.031
76.0089 1.667
76.0392 1.510
76.0695 1.510
76.0998 1.615
76.1301 1.146
76.1603 1.667
76.1906 1.927
76.2209 1.667
76.2512 1.510
76.2814 1.927
76.3117 1.667
76.3420 1.406
76.3723 1.667
76.4026 1.458
76.4328 1.719
76.4631 2.656
76.4934 1.719
76.5237 1.771
76.5540 2.240
76.5842 1.458
76.6145 2.187
76.6448 2.396
76.6751 1.927
76.7053 2.396
76.7356 2.500
76.7659 2.656
76.7962 2.396
76.8265 2.187
76.8567 2.292
76.8870 2.760
76.9173 2.448
76.9476 1.927
76.9779 2.187
77.0081 2.448
77.0384 2.135
77.0687 2.135
77.0990 1.667
77.1292 1.771
77.1595 1.823
77.1898 2.240
77.2201 2.083
77.2504 2.135
77.2806 2.135
77.3109 1.979
77.3412 1.406
77.3715 1.667
77.4018 1.146
77.4320 2.083
77.4623 1.562
77.4926 1.719
77.5229 1.667
77.5531 1.719
77.5834 1.510
77.6137 1.406
77.6440 1.771
77.6743 1.667
77.7045 2.135
77.7348 1.354
77.7651 1.667
77.7954 1.562
77.8257 1.198
77.8559 1.458
77.8862 1.510
77.9165 1.667
77.9468 1.510
77.9770 1.354
78.0073 0.885
78.0376 1.510
78.0679 0.885
78.0982 1.198
78.1284 1.927
78.1587 1.302
78.1890 0.937
78.2193 1.406
78.2496 1.406
78.2798 0.885
78.3101 1.094
78.3404 1.562
78.3707 1.406
78.4009 1.250
78.4312 1.302
78.4615 1.562
78.4918 0.781
78.5221 1.198
78.5523 1.510
78.5826 1.667
78.6129 1.406
78.6432 1.094
78.6735 1.354
78.7037 1.250
78.7340 1.250
78.7643 1.667
78.7946 0.937
78.8248 1.250
78.8551 1.198
78.8854 1.250
78.9157 1.510
78.9460 1.354
78.9762 1.615
79.0065 0.937
79.0368 1.406
79.0671 1.406
79.0974 1.562
79.1276 1.823
79.1579 1.094
79.1882 1.198
79.2185 1.094
79.2488 1.667
79.2790 1.406
79.3093 1.094
79.3396 1.406
79.3699 1.250
79.4001 1.198
79.4304 1.146
79.4607 1.042
79.4910 0.990
79.5213 1.458
79.5515 1.354
79.5818 1.406
79.6121 1.094
79.6424 1.562
79.6727 1.562
79.7029 0.885
79.7332 0.833
79.7635 1.510
79.7938 1.823
79.8240 1.302
79.8543 1.042
79.8846 1.562
79.9149 0.937
79.9452 1.719
79.9754 1.198
80.0057 1.406
80.0360 1.302
80.0663 1.562
80.0966 1.875
80.1268 1.302
80.1571 0.990
80.1874 1.354
80.2177 1.250
80.2479 1.510
80.2782 1.198
80.3085 1.302
80.3388 1.875
80.3691 1.302
80.3993 1.198
80.4296 1.198
80.4599 1.302
80.4902 1.406
80.5205 1.615
80.5507 1.250
80.5810 1.250
80.6113 1.823
80.6416 1.302
80.6718 1.719
80.7021 1.250
80.7324 1.354
80.7627 1.406
80.7930 1.198
80.8232 1.354
80.8535 1.927
80.8838 2.552
80.9141 1.354
80.9444 1.667
80.9746 1.615
81.0049 1.667
81.0352 1.771
81.0655 2.083
81.0957 1.198
81.1260 1.979
81.1563 1.875
81.1866 1.667
81.2169 1.927
81.2471 1.875
81.2774 1.406
81.3077 1.250
81.3380 1.406
81.3683 1.458
81.3985 1.667
81.4288 1.927
81.4591 1.979
81.4894 1.562
81.5196 1.771
81.5499 1.719
81.5802 1.823
81.6105 1.510
81.6408 2.135
81.6710 1.562
81.7013 1.458
81.7316 1.510
81.7619 1.510
81.7922 2.031
81.8224 1.354
81.8527 1.771
81.8830 1.667
81.9133 1.458
81.9436 1.458
81.9738 1.667
82.0041 1.562
82.0344 2.083
82.0647 1.406
82.0949 1.250
82.1252 1.250
82.1555 1.198
82.1858 1.302
82.2161 1.927
82.2463 1.615
82.2766 1.667
82.3069 1.406
82.3372 1.667
82.3675 1.198
82.3977 0.937
82.4280 1.510
82.4583 1.198
82.4886 1.510
82.5188 1.667
82.5491 1.667
82.5794 1.198
82.6097 1.198
82.6400 1.458
82.6702 1.615
82.7005 1.198
82.7308 0.990
82.7611 1.354
82.7914 1.198
82.8216 1.250
82.8519 1.302
82.8822 1.198
82.9125 1.615
82.9427 1.406
82.9730 1.354
83.0033 1.458
83.0336 1.823
83.0639 1.354
83.0941 1.094
83.1244 1.771
83.1547 1.198
83.1850 1.198
83.2153 0.990
83.2455 1.458
83.2758 1.146
83.3061 1.198
83.3364 1.458
83.3666 1.406
83.3969 1.510
83.4272 1.250
83.4575 1.667
83.4878 1.302
83.5180 1.667
83.5483 1.406
83.5786 1.094
83.6089 1.458
83.6392 1.406
83.6694 1.094
83.6997 1.667
83.7300 0.781
83.7603 1.198
83.7905 1.615
83.8208 1.198
83.8511 1.406
83.8814 1.146
83.9117 1.875
83.9419 1.042
83.9722 1.042
84.0025 1.198
84.0328 1.354
84.0631 1.458
84.0933 1.667
84.1236 1.302
84.1539 1.042
84.1842 1.250
84.2144 1.146
84.2447 1.458
84.2750 1.354
84.3053 1.198
84.3356 1.562
84.3658 1.719
84.3961 1.146
84.4264 1.146
84.4567 1.406
84.4870 1.198
84.5172 1.510
84.5475 1.094
84.5778 0.885
84.6081 1.562
84.6383 1.042
84.6686 1.719
84.6989 1.406
84.7292 1.510
84.7595 1.302
84.7897 1.667
84.8200 1.094
84.8503 1.406
84.8806 1.042
84.9109 1.198
84.9411 1.250
84.9714 1.042
85.0017 1.302
85.0320 1.510
85.0623 1.302
85.0925 1.667
85.1228 1.406
85.1531 1.198
85.1834 1.354
85.2136 1.510
85.2439 1.042
85.2742 0.781
85.3045 1.302
85.3348 0.729
85.3650 0.885
85.3953 0.937
85.4256 1.146
85.4559 1.198
85.4862 1.458
85.5164 1.719
85.5467 1.771
85.5770 0.990
85.6073 1.250
85.6375 1.302
85.6678 1.198
85.6981 1.562
85.7284 1.406
85.7587 1.094
85.7889 1.406
85.8192 1.406
85.8495 1.667
85.8798 0.937
85.9101 1.302
85.9403 1.562
85.9706 1.354
86.0009 1.302
86.0312 1.406
86.0614 1.094
86.0917 1.667
86.1220 0.937
86.1523 1.562
86.1826 1.302
86.2128 1.458
86.2431 1.198
86.2734 1.094
86.3037 1.198
86.3340 1.042
86.3642 1.250
86.3945 1.146
86.4248 0.937
86.4551 1.979
86.4853 1.615
86.5156 1.198
86.5459 1.667
86.5762 1.042
86.6065 1.198
86.6367 1.198
86.6670 1.458
86.6973 1.406
86.7276 1.302
86.7579 1.198
86.7881 1.719
86.8184 1.042
86.8487 1.198
86.8790 1.458
86.9092 1.875
86.9395 1.562
86.9698 1.458
87.0001 1.458
87.0304 1.406
87.0606 1.510
87.0909 1.198
87.1212 1.562
87.1515 1.198
87.1818 1.198
87.2120 1.615
87.2423 1.562
87.2726 1.250
87.3029 1.302
87.3331 2.135
87.3634 1.354
87.3937 0.729
87.4240 1.198
87.4543 1.667
87.4845 1.458
87.5148 1.667
87.5451 1.302
87.5754 1.719
87.6057 1.354
87.6359 1.406
87.6662 1.302
87.6965 1.198
87.7268 1.042
87.7571 1.406
87.7873 2.292
87.8176 1.510
87.8479 1.146
87.8782 1.562
87.9084 1.406
87.9387 1.406
87.9690 1.406
87.9993 1.615
88.0296 1.667
88.0598 1.198
88.0901 1.198
88.1204 1.771
88.1507 1.198
88.1810 1.667
88.2112 1.042
88.2415 1.198
88.2718 1.198
88.3021 1.406
88.3323 1.562
88.3626 0.937
88.3929 1.406
88.4232 1.667
88.4535 1.771
88.4837 2.187
88.5140 1.406
88.5443 1.510
88.5746 1.667
88.6049 1.927
88.6351 1.719
88.6654 1.146
88.6957 1.562
88.7260 1.458
88.7562 1.458
88.7865 1.667
88.8168 1.979
88.8471 2.396
88.8774 2.135
88.9076 1.927
88.9379 2.656
88.9682 1.979
88.9985 2.656
89.0288 2.292
89.0590 2.969
89.0893 3.125
89.1196 2.552
89.1499 2.969
89.1801 2.135
89.2104 2.240
89.2407 2.917
89.2710 2.865
89.3013 2.865
89.3315 2.604
89.3618 3.177
89.3921 3.958
89.4224 2.760
89.4527 3.125
89.4829 3.073
89.5132 4.010
89.5435 3.281
89.5738 4.323
89.6040 3.229
89.6343 4.271
89.6646 3.229
89.6949 3.177
89.7252 3.229
89.7554 2.396
89.7857 2.760
89.8160 3.698
89.8463 2.604
89.8766 3.073
89.9068 3.281
89.9371 3.125
89.9674 2.865
89.9977 2.031
90.0279 2.448
90.0582 2.448
90.0885 2.708
90.1188 2.187
90.1491 2.604
90.1793 2.135
90.2096 1.927
90.2399 2.240
90.2702 1.615
90.3005 1.771
90.3307 1.667
90.3610 1.615
90.3913 1.615
90.4216 2.031
90.4518 2.500
90.4821 1.927
90.5124 1.510
90.5427 1.667
90.5730 1.667
90.6032 2.135
90.6335 1.615
90.6638 2.240
90.6941 1.615
90.7244 1.562
90.7546 1.458
90.7849 1.615
90.8152 2.344
90.8455 1.458
90.8758 1.250
90.9060 1.927
90.9363 1.719
90.9666 1.562
90.9969 1.667
91.0271 1.823
91.0574 1.198
91.0877 1.354
91.1180 1.615
91.1483 1.510
91.1785 1.719
91.2088 1.198
91.2391 1.875
91.2694 1.146
91.2997 1.198
91.3299 1.406
91.3602 1.198
91.3905 1.615
91.4208 1.667
91.4510 1.927
91.4813 1.719
91.5116 1.667
91.5419 1.354
91.5722 1.667
91.6024 1.510
91.6327 1.562
91.6630 1.458
91.6933 1.406
91.7236 1.562
91.7538 1.562
91.7841 1.406
91.8144 1.719
91.8447 1.667
91.8749 1.979
91.9052 1.771
91.9355 1.771
91.9658 1.719
91.9961 1.823
92.0263 1.562
92.0566 1.250
92.0869 1.927
92.1172 1.406
92.1475 1.510
92.1777 1.406
92.2080 1.927
92.2383 1.667
92.2686 1.406
92.2988 1.719
92.3291 2.083
92.3594 2.083
92.3897 1.719
92.4200 1.406
92.4502 1.875
92.4805 2.031
92.5108 1.979
92.5411 2.240
92.5714 2.448
92.6016 1.823
92.6319 1.719
92.6622 2.031
92.6925 2.187
92.7227 2.604
92.7530 2.344
92.7833 1.927
92.8136 2.396
92.8439 1.927
92.8741 2.292
92.9044 1.927
92.9347 1.771
92.9650 2.187
92.9953 2.187
93.0255 2.552
93.0558 1.979
93.0861 2.135
93.1164 1.875
93.1466 2.031
93.1769 1.771
93.2072 1.771
93.2375 1.354
93.2678 1.510
93.2980 1.667
93.3283 1.198
93.3586 2.187
93.3889 1.562
93.4192 1.615
93.4494 1.354
93.4797 1.667
93.5100 1.927
93.5403 1.719
93.5706 1.302
93.6008 1.302
93.6311 1.719
93.6614 1.562
93.6917 1.771
93.7219 1.146
93.7522 1.406
93.7825 1.510
93.8128 1.302
93.8431 1.510
93.8733 1.667
93.9036 1.771
93.9339 1.302
93.9642 1.875
93.9945 1.302
94.0247 1.302
94.0550 1.562
94.0853 1.562
94.1156 1.719
94.1458 2.187
94.1761 1.510
94.2064 1.875
94.2367 1.562
94.2670 1.406
94.2972 1.562
94.3275 1.927
94.3578 2.240
94.3881 2.396
94.4184 1.979
94.4486 1.719
94.4789 1.615
94.5092 1.250
94.5395 1.823
94.5697 2.187
94.6000 2.187
94.6303 2.187
94.6606 2.396
94.6909 1.823
94.7211 1.562
94.7514 2.448
94.7817 2.969
94.8120 3.594
94.8423 2.656
94.8725 2.240
94.9028 2.500
94.9331 3.229
94.9634 3.333
94.9936 3.073
95.0239 3.281
95.0542 2.969
95.0845 3.698
95.1148 3.281
95.1450 3.333
95.1753 3.177
95.2056 3.437
95.2359 3.073
95.2662 3.281
95.2964 3.073
95.3267 3.594
95.3570 2.917
95.3873 2.812
95.4175 2.552
95.4478 3.333
95.4781 2.656
95.5084 2.812
95.5387 2.500
95.5689 2.500
95.5992 2.604
95.6295 2.760
95.6598 2.396
95.6901 2.760
95.7203 2.760
95.7506 3.021
95.7809 2.396
95.8112 2.187
95.8414 2.135
95.8717 2.187
95.9020 1.615
95.9323 2.187
95.9626 2.031
95.9928 1.875
96.0231 2.240
96.0534 1.927
96.0837 1.979
96.1140 1.406
96.1442 2.552
96.1745 2.083
96.2048 1.667
96.2351 1.771
96.2653 1.719
96.2956 1.562
96.3259 1.719
96.3562 1.927
96.3865 1.458
96.4167 1.771
96.4470 1.771
96.4773 1.719
96.5076 1.979
96.5379 1.146
96.5681 1.823
96.5984 1.615
96.6287 1.562
96.6590 1.250
96.6893 1.771
96.7195 1.875
96.7498 1.823
96.7801 1.250
96.8104 1.615
96.8406 1.875
96.8709 1.354
96.9012 1.354
96.9315 1.875
96.9618 1.719
96.9920 1.562
97.0223 1.771
97.0526 1.562
97.0829 1.615
97.1132 1.719
97.1434 1.615
97.1737 1.094
97.2040 2.187
97.2343 1.719
97.2645 1.771
97.2948 1.667
97.3251 1.823
97.3554 1.146
97.3857 1.719
97.4159 1.406
97.4462 1.615
97.4765 1.771
97.5068 1.250
97.5371 1.615
97.5673 2.187
97.5976 1.979
97.6279 1.823
97.6582 1.719
97.6884 1.458
97.7187 2.135
97.7490 1.615
97.7793 1.510
97.8096 1.562
97.8398 1.927
97.8701 1.719
97.9004 2.083
97.9307 1.823
97.9610 1.875
97.9912 1.979
98.0215 1.406
98.0518 2.083
98.0821 1.719
98.1123 1.719
98.1426 2.135
98.1729 1.771
98.2032 1.875
98.2335 2.083
98.2637 1.875
98.2940 1.979
98.3243 2.760
98.3546 2.187
98.3849 1.719
98.4151 2.240
98.4454 2.396
98.4757 2.708
98.5060 2.500
98.5362 2.708
98.5665 2.708
98.5968 2.187
98.6271 2.187
98.6574 2.031
98.6876 2.083
98.7179 2.292
98.7482 2.240
98.7785 2.812
98.8088 1.771
98.8390 1.875
98.8693 2.552
98.8996 1.979
98.9299 2.083
98.9601 2.240
98.9904 1.771
99.0207 1.979
99.0510 2.135
99.0813 1.979
99.1115 1.615
99.1418 1.510
99.1721 1.875
99.2024 1.458
99.2327 1.771
99.2629 1.667
99.2932 1.771
99.3235 1.510
99.3538 1.875
99.3841 1.615
99.4143 1.667
99.4446 1.823
99.4749 1.615
99.5052 1.823
99.5354 1.354
99.5657 2.135
99.5960 1.302
99.6263 1.094
99.6566 1.302
99.6868 2.292
99.7171 1.771
99.7474 1.719
99.7777 1.615
99.8080 1.250
99.8382 1.302
99.8685 1.927
99.8988 1.510
99.9291 1.146
99.9593 1.615
99.9896 1.406
100.0199 1.250
100.0502 1.354
100.0805 1.302
100.1107 2.031
100.1410 2.344
100.1713 1.094
100.2016 1.302
100.2319 1.719
100.2621 1.771
100.2924 1.042
100.3227 1.302
100.3530 1.354
100.3832 1.667
100.4135 1.510
100.4438 1.198
100.4741 1.562
100.5044 1.198
100.5346 1.198
100.5649 0.990
100.5952 1.302
100.6255 1.823
100.6558 1.562
100.6860 1.302
100.7163 1.562
100.7466 1.823
100.7769 1.771
100.8071 1.042
100.8374 1.510
100.8677 1.354
100.8980 1.302
100.9283 1.302
100.9585 1.615
100.9888 1.302
101.0191 1.927
101.0494 1.562
101.0797 1.771
101.1099 1.354
101.1402 1.823
101.1705 1.302
101.2008 1.771
101.2310 1.458
101.2613 1.510
101.2916 1.719
101.3219 1.094
101.3522 1.719
101.3824 1.406
101.4127 1.302
101.4430 1.354
101.4733 1.302
101.5036 1.406
101.5338 1.458
101.5641 1.667
101.5944 1.510
101.6247 1.823
101.6549 1.198
101.6852 1.719
101.7155 1.615
101.7458 2.187
101.7761 1.927
101.8063 1.354
101.8366 1.719
101.8669 1.458
101.8972 1.615
101.9275 1.615
101.9577 1.562
101.9880 1.771
102.0183 2.187
102.0486 1.250
102.0788 1.406
102.1091 2.083
102.1394 1.771
102.1697 1.458
102.2000 1.927
102.2302 2.083
102.2605 1.458
102.2908 2.187
102.3211 2.031
102.3514 1.354
102.3816 1.354
102.4119 2.135
102.4422 2.187
102.4725 1.875
102.5028 1.562
102.5330 1.875
102.5633 1.823
102.5936 1.823
102.6239 1.667
102.6541 2.292
102.6844 1.875
102.7147 1.771
102.7450 2.187
102.7753 1.927
102.8055 2.708
102.8358 1.823
102.8661 2.344
102.8964 1.979
102.9267 2.604
102.9569 1.823
102.9872 2.344
103.0175 2.448
103.0478 2.031
103.0780 2.448
103.1083 1.979
103.1386 1.979
103.1689 2.031
103.1992 3.021
103.2294 2.135
103.2597 2.083
103.2900 2.344
103.3203 3.021
103.3506 2.135
103.3808 2.031
103.4111 2.344
103.4414 2.344
103.4717 2.031
103.5019 2.292
103.5322 2.396
103.5625 2.552
103.5928 2.708
103.6231 2.344
103.6533 2.292
103.6836 2.240
103.7139 1.927
103.7442 1.979
103.7745 3.385
103.8047 2.187
103.8350 2.760
103.8653 3.021
103.8956 2.396
103.9258 2.344
103.9561 2.396
103.9864 3.021
104.0167 2.969
104.0470 2.760
104.0772 3.177
104.1075 3.021
104.1378 2.708
104.1681 2.969
104.1984 2.865
104.2286 2.187
104.2589 2.396
104.2892 2.917
104.3195 2.708
104.3497 1.979
104.3800 2.708
104.4103 3.333
104.4406 2.552
104.4709 1.823
104.5011 2.396
104.5314 2.396
104.5617 1.615
104.5920 2.500
104.6223 2.187
104.6525 1.979
104.6828 2.031
104.7131 1.615
104.7434 1.562
104.7736 2.344
104.8039 2.135
104.8342 1.823
104.8645 2.292
104.8948 1.615
104.9250 2.031
104.9553 2.187
104.9856 1.562
105.0159 1.458
105.0462 1.771
105.0764 1.562
105.1067 1.771
105.1370 2.865
105.1673 1.562
105.1975 2.083
105.2278 1.406
105.2581 1.927
105.2884 1.667
105.3187 1.354
105.3489 1.562
105.3792 1.615
105.4095 1.354
105.4398 1.510
105.4701 1.875
105.5003 1.719
105.5306 1.354
105.5609 1.250
105.5912 1.771
105.6215 0.781
105.6517 1.458
105.6820 1.615
105.7123 1.354
105.7426 1.615
105.7728 1.667
105.8031 1.510
105.8334 1.510
105.8637 1.510
105.8940 1.354
105.9242 1.667
105.9545 1.615
105.9848 1.354
106.0151 0.990
106.0454 1.562
106.0756 1.510
106.1059 1.615
106.1362 1.510
106.1665 1.510
106.1967 1.354
106.2270 1.562
106.2573 1.927
106.2876 1.615
106.3179 1.458
106.3481 1.458
106.3784 1.615
106.4087 1.458
106.4390 1.719
106.4693 1.406
106.4995 1.146
106.5298 2.031
106.5601 1.615
106.5904 1.458
106.6206 1.198
106.6509 1.406
106.6812 1.562
106.7115 0.990
106.7418 1.875
106.7720 1.615
106.8023 1.615
106.8326 1.198
106.8629 1.771
106.8932 1.823
106.9234 1.250
106.9537 1.719
106.9840 1.823
107.0143 2.187
107.0445 1.458
107.0748 1.458
107.1051 1.458
107.1354 1.615
107.1657 1.719
107.1959 1.510
107.2262 1.510
107.2565 1.615
107.2868 1.406
107.3171 1.094
107.3473 1.510
107.3776 1.250
107.4079 1.771
107.4382 1.667
107.4684 1.354
107.4987 1.719
107.5290 1.354
107.5593 1.146
107.5896 1.615
107.6198 1.875
107.6501 0.990
107.6804 1.510
107.7107 1.667
107.7410 1.875
107.7712 1.458
107.8015 1.667
107.8318 1.562
107.8621 1.875
107.8923 1.823
107.9226 1.458
107.9529 1.354
107.9832 0.990
108.0135 1.562
108.0437 1.615
108.0740 1.719
108.1043 1.458
108.1346 1.146
108.1649 1.146
108.1951 0.781
108.2254 1.458
108.2557 1.458
108.2860 1.406
108.3163 2.135
108.3465 1.510
108.3768 1.615
108.4071 1.615
108.4374 1.667
108.4676 1.510
108.4979 1.250
108.5282 1.198
108.5585 1.302
108.5888 1.510
108.6190 1.667
108.6493 1.562
108.6796 1.458
108.7099 1.094
108.7402 0.937
108.7704 1.406
108.8007 1.562
108.8310 1.042
108.8613 1.198
108.8915 1.510
108.9218 1.042
108.9521 1.406
108.9824 1.510
109.0127 1.198
109.0429 1.458
109.0732 1.094
109.1035 1.198
109.1338 1.875
109.1641 1.146
109.1943 1.875
109.2246 1.562
109.2549 1.667
109.2852 1.615
109.3154 1.667
109.3457 1.562
109.3760 1.198
109.4063 1.927
109.4366 1.562
109.4668 1.458
109.4971 1.510
109.5274 1.562
109.5577 1.510
109.5880 2.031
109.6182 1.823
109.6485 1.562
109.6788 1.562
109.7091 1.510
109.7393 1.562
109.7696 2.187
109.7999 1.667
109.8302 1.354
109.8605 1.406
109.8907 1.510
109.9210 2.083
109.9513 1.771
109.9816 1.979
110.0119 2.448
110.0421 1.406
110.0724 2.187
110.1027 2.083
110.1330 1.927
110.1632 2.448
110.1935 2.812
110.2238 2.604
110.2541 2.135
110.2844 1.771
110.3146 1.562
110.3449 2.240
110.3752 2.135
110.4055 1.562
110.4358 2.031
110.4660 2.187
110.4963 1.979
110.5266 2.135
110.5569 1.615
110.5871 1.615
110.6174 1.771
110.6477 1.979
110.6780 1.875
110.7083 1.615
110.7385 2.240
110.7688 1.823
110.7991 2.656
110.8294 1.719
110.8597 1.719
110.8899 1.667
110.9202 1.927
110.9505 1.562
110.9808 1.406
111.0110 1.458
111.0413 2.031
111.0716 1.615
111.1019 1.562
111.1322 1.927
111.1624 1.198
111.1927 1.719
111.2230 1.667
111.2533 1.406
111.2836 1.719
111.3138 1.562
111.3441 1.771
111.3744 1.667
111.4047 2.031
111.4350 1.250
111.4652 1.354
111.4955 1.823
111.5258 1.979
111.5561 1.250
111.5863 1.615
111.6166 1.927
111.6469 1.094
111.6772 1.979
111.7075 1.667
111.7377 1.354
111.7680 1.615
111.7983 0.990
111.8286 1.406
111.8589 1.406
111.8891 1.354
111.9194 1.302
111.9497 1.667
111.9800 1.302
112.0102 0.833
112.0405 1.302
112.0708 1.719
112.1011 1.667
112.1314 1.667
112.1616 1.302
112.1919 1.823
112.2222 0.990
112.2525 0.937
112.2828 1.198
112.3130 1.146
112.3433 1.354
112.3736 1.250
112.4039 1.510
112.4341 1.302
112.4644 1.406
112.4947 1.615
112.5250 1.354
112.5553 1.562
112.5855 1.719
112.6158 1.562
112.6461 1.562
112.6764 1.823
112.7067 2.083
112.7369 1.302
112.7672 1.354
112.7975 1.510
112.8278 1.250
112.8580 1.302
112.8883 1.510
112.9186 1.458
112.9489 1.146
112.9792 1.354
113.0094 1.354
113.0397 1.042
113.0700 1.354
113.1003 1.198
113.1306 1.042
113.1608 1.458
113.1911 1.823
113.2214 1.719
113.2517 1.198
113.2819 1.146
113.3122 0.677
113.3425 1.615
113.3728 1.094
113.4031 1.406
113.4333 1.250
113.4636 1.615
113.4939 0.833
113.5242 1.562
113.5545 1.875
113.5847 1.094
113.6150 1.719
113.6453 1.875
113.6756 1.302
113.7058 1.042
113.7361 1.667
113.7664 1.719
113.7967 1.615
113.8270 1.771
113.8572 1.042
113.8875 1.458
113.9178 1.406
113.9481 1.302
113.9784 1.302
114.0086 1.198
114.0389 1.146
114.0692 0.990
114.0995 1.562
114.1298 1.667
114.1600 1.562
114.1903 1.094
114.2206 1.771
114.2509 1.771
114.2811 1.615
114.3114 1.719
114.3417 1.198
114.3720 1.771
114.4023 1.510
114.4325 1.510
114.4628 1.198
114.4931 1.615
114.5234 1.719
114.5537 1.562
114.5839 1.510
114.6142 1.406
114.6445 1.875
114.6748 1.198
114.7050 1.823
114.7353 1.510
114.7656 1.198
114.7959 2.031
114.8262 1.094
114.8564 1.823
114.8867 1.250
114.9170 1.354
114.9473 1.302
114.9776 2.240
115.0078 1.406
115.0381 1.562
115.0684 1.667
115.0987 2.083
115.1289 1.927
115.1592 2.031
115.1895 2.083
115.2198 2.031
115.2501 1.927
115.2803 1.823
115.3106 1.406
115.3409 1.771
115.3712 2.083
115.4015 1.979
115.4317 2.187
115.4620 2.187
115.4923 1.458
115.5226 1.823
115.5528 2.031
115.5831 1.875
115.6134 1.875
115.6437 2.812
115.6740 2.760
115.7042 2.500
115.7345 2.708
115.7648 2.812
115.7951 2.865
115.8254 2.552
115.8556 3.021
115.8859 3.437
115.9162 2.656
115.9465 2.292
115.9767 3.437
116.0070 3.229
116.0373 3.385
116.0676 2.917
116.0979 3.073
116.1281 2.292
116.1584 2.500
116.1887 3.802
116.2190 2.760
116.2493 2.552
116.2795 2.708
116.3098 3.281
116.3401 2.812
116.3704 2.552
116.4006 2.969
116.4309 2.969
116.4612 3.646
116.4915 2.240
116.5218 2.552
116.5520 2.812
116.5823 3.021
116.6126 3.750
116.6429 3.021
116.6732 2.865
116.7034 2.240
116.7337 2.969
116.7640 2.865
116.7943 2.969
116.8245 2.500
116.8548 1.979
116.8851 2.708
116.9154 2.865
116.9457 2.552
116.9759 2.292
117.0062 2.396
117.0365 2.500
117.0668 2.292
117.0971 1.979
117.1273 2.448
117.1576 2.552
117.1879 1.771
117.2182 2.187
117.2485 1.562
117.2787 1.510
117.3090 1.979
117.3393 2.031
117.3696 2.031
117.3998 1.667
117.4301 1.719
117.4604 1.771
117.4907 2.344
117.5210 2.187
117.5512 2.344
117.5815 1.302
117.6118 1.562
117.6421 1.667
117.6724 1.406
117.7026 1.510
117.7329 0.990
117.7632 1.042
117.7935 1.615
117.8237 1.562
117.8540 1.719
117.8843 1.615
117.9146 1.198
117.9449 1.146
117.9751 1.562
118.0054 1.198
118.0357 1.458
118.0660 1.458
118.0963 1.406
118.1265 1.667
118.1568 1.667
118.1871 1.458
118.2174 1.615
118.2476 1.302
118.2779 1.615
118.3082 1.667
118.3385 1.354
118.3688 1.875
118.3990 1.667
118.4293 1.146
118.4596 1.510
118.4899 1.979
118.5202 1.302
118.5504 1.510
118.5807 1.094
118.6110 1.979
118.6413 1.406
118.6715 1.875
118.7018 1.510
118.7321 1.823
118.7624 2.135
118.7927 1.302
118.8229 1.510
118.8532 1.302
118.8835 1.823
118.9138 1.510
118.9441 1.250
118.9743 1.927
119.0046 1.354
119.0349 1.562
119.0652 1.354
119.0954 1.406
119.1257 1.562
119.1560 1.198
119.1863 2.031
119.2166 1.250
119.2468 1.667
119.2771 1.615
119.3074 1.615
119.3377 1.042
119.3680 1.875
119.3982 1.667
119.4285 1.198
119.4588 1.510
119.4891 1.354
119.5193 0.833
119.5496 1.510
119.5799 2.031
119.6102 0.937
119.6405 1.354
119.6707 1.615
119.7010 1.354
119.7313 1.771
119.7616 1.719
119.7919 1.771
119.8221 1.667
119.8524 1.458
119.8827 1.771
119.9130 1.354
119.9433 1.250
119.9735 1.719
120.0038 1.354
