'Id: "" Comment: "" Operator: "Lab Manager" Anode: "Cu" Scantype: "Locked Coupled" TimePerStep: "19.2" X: "9999" Y: "9999" Z: "9999" 
10.0015 3.802
10.0318 3.333
10.0620 3.750
10.0923 3.490
10.1226 2.917
10.1529 3.802
10.1832 2.812
10.2134 4.479
10.2437 3.385
10.2740 2.708
10.3043 3.698
10.3346 4.010
10.3648 3.281
10.3951 2.812
10.4254 4.115
10.4557 3.906
10.4859 4.271
10.5162 3.385
10.5465 3.385
10.5768 3.750
10.6071 4.219
10.6373 5.156
10.6676 3.854
10.6979 3.594
10.7282 4.167
10.7585 4.844
10.7887 4.010
10.8190 4.115
10.8493 5.312
10.8796 4.948
10.9098 5.260
10.9401 7.031
10.9704 7.396
11.0007 7.031
11.0310 9.115
11.0612 9.271
11.0915 9.635
11.1218 10.677
11.1521 11.354
11.1824 9.427
11.2126 7.760
11.2429 5.729
11.2732 5.521
11.3035 4.687
11.3337 4.479
11.3640 3.594
11.3943 4.010
11.4246 3.958
11.4549 4.219
11.4851 3.906
11.5154 4.427
11.5457 3.281
11.5760 3.594
11.6063 3.802
11.6365 3.854
11.6668 3.646
11.6971 4.010
11.7274 4.062
11.7577 4.115
11.7879 3.906
11.8182 3.437
11.8485 4.167
11.8788 3.177
11.9090 3.437
11.9393 3.021
11.9696 3.229
11.9999 3.333
12.0302 3.542
12.0604 2.760
12.0907 2.969
12.1210 3.385
12.1513 3.229
12.1816 3.281
12.2118 3.437
12.2421 3.437
12.2724 3.385
12.3027 3.490
12.3329 2.812
12.3632 3.281
12.3935 3.594
12.4238 3.490
12.4541 2.812
12.4843 4.010
12.5146 4.375
12.5449 3.229
12.5752 3.646
12.6055 2.604
12.6357 2.031
12.6660 3.802
12.6963 3.854
12.7266 3.490
12.7568 4.010
12.7871 2.604
12.8174 3.594
12.8477 4.115
12.8780 2.865
12.9082 3.542
12.9385 3.021
12.9688 3.854
12.9991 4.219
13.0294 3.229
13.0596 2.917
13.0899 3.594
13.1202 2.865
13.1505 2.812
13.1807 3.021
13.2110 2.812
13.2413 2.760
13.2716 3.854
13.3019 3.594
13.3321 2.604
13.3624 3.385
13.3927 3.125
13.4230 3.333
13.4533 2.656
13.4835 3.646
13.5138 3.281
13.5441 3.177
13.5744 3.281
13.6046 3.281
13.6349 3.385
13.6652 3.333
13.6955 2.865
13.7258 2.760
13.7560 2.292
13.7863 3.750
13.8166 3.333
13.8469 4.010
13.8772 3.021
13.9074 3.333
13.9377 3.594
13.9680 3.073
13.9983 3.437
14.0285 3.750
14.0588 2.708
14.0891 2.760
14.1194 2.969
14.1497 3.333
14.1799 2.292
14.2102 2.865
14.2405 3.542
14.2708 2.969
14.3011 2.812
14.3313 3.021
14.3616 3.750
14.3919 3.281
14.4222 3.437
14.4524 2.604
14.4827 2.708
14.5130 3.125
14.5433 2.500
14.5736 3.385
14.6038 3.698
14.6341 2.708
14.6644 3.229
14.6947 2.552
14.7250 2.396
14.7552 2.760
14.7855 3.073
14.8158 2.240
14.8461 3.281
14.8764 3.490
14.9066 3.437
14.9369 3.385
14.9672 2.292
14.9975 3.646
15.0277 2.656
15.0580 2.448
15.0883 3.073
15.1186 2.708
15.1489 2.969
15.1791 2.083
15.2094 2.708
15.2397 2.969
15.2700 2.083
15.3003 3.021
15.3305 2.604
15.3608 2.448
15.3911 2.969
15.4214 2.344
15.4516 3.385
15.4819 3.021
15.5122 2.865
15.5425 3.073
15.5728 2.604
15.6030 3.385
15.6333 3.073
15.6636 3.125
15.6939 3.229
15.7242 2.708
15.7544 2.917
15.7847 2.969
15.8150 3.281
15.8453 2.708
15.8755 3.385
15.9058 3.594
15.9361 2.604
15.9664 1.719
15.9967 3.229
16.0269 2.396
16.0572 2.552
16.0875 2.812
16.1178 2.865
16.1481 3.437
16.1783 3.385
16.2086 2.865
16.2389 3.021
16.2692 2.500
16.2994 2.552
16.3297 3.177
16.3600 3.229
16.3903 3.073
16.4206 2.552
16.4508 2.604
16.4811 3.125
16.5114 3.073
16.5417 2.708
16.5720 3.490
16.6022 3.281
16.6325 2.656
16.6628 3.281
16.6931 2.812
16.7233 2.969
16.7536 3.229
16.7839 2.708
16.8142 2.917
16.8445 3.333
16.8747 2.604
16.9050 2.604
16.9353 2.083
16.9656 3.021
16.9959 2.656
17.0261 1.667
17.0564 2.552
17.0867 3.177
17.1170 3.229
17.1472 2.344
17.1775 2.917
17.2078 2.292
17.2381 3.333
17.2684 3.125
17.2986 2.865
17.3289 3.385
17.3592 2.448
17.3895 3.594
17.4198 2.552
17.4500 2.708
17.4803 3.281
17.5106 2.917
17.5409 2.917
17.5712 2.865
17.6014 2.812
17.6317 2.292
17.6620 2.969
17.6923 2.344
17.7225 2.969
17.7528 2.396
17.7831 2.969
17.8134 2.656
17.8437 2.396
17.8739 2.969
17.9042 2.656
17.9345 2.969
17.9648 3.125
17.9951 2.708
18.0253 2.396
18.0556 2.552
18.0859 3.177
18.1162 2.187
18.1464 3.333
18.1767 2.552
18.2070 2.187
18.2373 2.812
18.2676 2.396
18.2978 2.708
18.3281 2.812
18.3584 2.969
18.3887 2.448
18.4190 2.552
18.4492 2.760
18.4795 2.240
18.5098 2.448
18.5401 2.344
18.5703 3.021
18.6006 3.646
18.6309 2.865
18.6612 3.177
18.6915 2.865
18.7217 2.865
18.7520 3.281
18.7823 2.031
18.8126 2.500
18.8429 2.552
18.8731 2.448
18.9034 2.448
18.9337 2.448
18.9640 3.073
18.9942 3.021
19.0245 1.771
19.0548 1.771
19.0851 2.656
19.1154 3.073
19.1456 2.448
19.1759 2.292
19.2062 2.031
19.2365 2.760
19.2668 1.979
19.2970 2.448
19.3273 2.187
19.3576 2.969
19.3879 2.604
19.4181 2.396
19.4484 3.281
19.4787 2.760
19.5090 2.865
19.5393 3.021
19.5695 2.656
19.5998 2.604
19.6301 3.229
19.6604 2.708
19.6907 2.708
19.7209 2.344
19.7512 2.604
19.7815 2.500
19.8118 1.875
19.8420 2.760
19.8723 2.083
19.9026 2.812
19.9329 2.031
19.9632 3.385
19.9934 3.125
20.0237 2.448
20.0540 2.917
20.0843 2.604
20.1146 3.021
20.1448 1.875
20.1751 3.229
20.2054 2.448
20.2357 2.344
20.2659 3.229
20.2962 2.552
20.3265 2.135
20.3568 2.187
20.3871 2.865
20.4173 1.927
20.4476 1.823
20.4779 2.917
20.5082 2.396
20.5385 3.125
20.5687 1.979
20.5990 2.865
20.6293 2.240
20.6596 2.969
20.6899 3.073
20.7201 2.604
20.7504 2.552
20.7807 2.812
20.8110 2.865
20.8412 2.760
20.8715 2.292
20.9018 2.448
20.9321 2.083
20.9624 1.979
20.9926 2.604
21.0229 2.656
21.0532 2.187
21.0835 2.500
21.1138 2.917
21.1440 2.865
21.1743 2.917
21.2046 2.031
21.2349 3.177
21.2651 2.187
21.2954 2.344
21.3257 2.448
21.3560 2.448
21.3863 2.708
21.4165 2.656
21.4468 2.552
21.4771 2.604
21.5074 2.187
21.5377 2.187
21.5679 2.083
21.5982 2.083
21.6285 2.344
21.6588 2.656
21.6890 3.333
21.7193 2.187
21.7496 1.667
21.7799 2.448
21.8102 2.812
21.8404 2.240
21.8707 2.552
21.9010 2.031
21.9313 2.969
21.9616 2.865
21.9918 2.292
22.0221 2.083
22.0524 2.812
22.0827 2.031
22.1129 2.292
22.1432 2.292
22.1735 2.552
22.2038 2.760
22.2341 2.604
22.2643 2.656
22.2946 2.604
22.3249 2.031
22.3552 2.552
22.3855 2.396
22.4157 3.021
22.4460 2.812
22.4763 1.979
22.5066 2.656
22.5368 3.437
22.5671 2.552
22.5974 2.292
22.6277 2.552
22.6580 3.125
22.6882 2.760
22.7185 1.927
22.7488 3.177
22.7791 2.604
22.8094 2.500
22.8396 2.135
22.8699 2.031
22.9002 2.083
22.9305 2.552
22.9607 2.187
22.9910 1.927
23.0213 2.656
23.0516 2.448
23.0819 2.760
23.1121 1.771
23.1424 2.344
23.1727 2.448
23.2030 2.292
23.2333 2.240
23.2635 2.552
23.2938 2.552
23.3241 1.927
23.3544 2.865
23.3846 2.344
23.4149 2.292
23.4452 2.448
23.4755 2.187
23.5058 2.292
23.5360 2.240
23.5663 1.667
23.5966 2.396
23.6269 2.448
23.6572 2.344
23.6874 2.812
23.7177 2.187
23.7480 1.823
23.7783 2.448
23.8086 2.969
23.8388 2.812
23.8691 2.552
23.8994 3.021
23.9297 2.083
23.9599 2.865
23.9902 1.562
24.0205 2.083
24.0508 2.240
24.0811 2.187
24.1113 2.969
24.1416 2.292
24.1719 2.552
24.2022 2.135
24.2325 1.719
24.2627 2.396
24.2930 2.135
24.3233 2.760
24.3536 1.510
24.3838 2.708
24.4141 2.708
24.4444 2.240
24.4747 2.656
24.5050 1.927
24.5352 1.615
24.5655 2.604
24.5958 2.448
24.6261 2.552
24.6564 2.240
24.6866 1.927
24.7169 1.979
24.7472 2.083
24.7775 2.760
24.8077 1.979
24.8380 2.552
24.8683 2.031
24.8986 1.719
24.9289 1.667
24.9591 2.135
24.9894 2.865
25.0197 2.917
25.0500 3.333
25.0803 2.083
25.1105 2.135
25.1408 1.979
25.1711 1.875
25.2014 2.031
25.2316 1.979
25.2619 2.240
25.2922 2.292
25.3225 2.187
25.3528 2.969
25.3830 2.552
25.4133 2.344
25.4436 1.667
25.4739 2.812
25.5042 2.604
25.5344 2.708
25.5647 2.552
25.5950 2.187
25.6253 1.406
25.6555 2.969
25.6858 2.604
25.7161 2.240
25.7464 2.448
25.7767 1.615
25.8069 2.344
25.8372 2.760
25.8675 2.135
25.8978 2.656
25.9281 2.083
25.9583 2.656
25.9886 1.719
26.0189 1.927
26.0492 2.552
26.0794 2.448
26.1097 2.396
26.1400 1.979
26.1703 2.656
26.2006 2.552
26.2308 2.604
26.2611 2.604
26.2914 1.927
26.3217 2.604
26.3520 2.083
26.3822 3.125
26.4125 1.667
26.4428 2.396
26.4731 2.500
26.5034 2.135
26.5336 1.927
26.5639 2.135
26.5942 2.500
26.6245 1.927
26.6547 3.385
26.6850 2.604
26.7153 1.823
26.7456 1.927
26.7759 2.604
26.8061 2.240
26.8364 2.656
26.8667 3.750
26.8970 2.552
26.9273 1.562
26.9575 2.917
26.9878 2.760
27.0181 2.708
27.0484 2.500
27.0786 2.292
27.1089 1.875
27.1392 2.240
27.1695 2.396
27.1998 2.917
27.2300 2.708
27.2603 2.656
27.2906 2.760
27.3209 2.083
27.3512 2.552
27.3814 1.927
27.4117 2.396
27.4420 2.969
27.4723 2.448
27.5025 2.135
27.5328 2.187
27.5631 3.177
27.5934 3.021
27.6237 2.708
27.6539 2.917
27.6842 3.177
27.7145 3.490
27.7448 2.240
27.7751 2.656
27.8053 2.552
27.8356 2.604
27.8659 2.292
27.8962 3.385
27.9264 3.125
27.9567 2.292
27.9870 2.552
28.0173 2.917
28.0476 2.031
28.0778 2.812
28.1081 2.656
28.1384 3.073
28.1687 2.708
28.1990 2.500
28.2292 2.865
28.2595 2.604
28.2898 3.021
28.3201 4.062
28.3503 2.292
28.3806 3.125
28.4109 2.917
28.4412 2.187
28.4715 2.604
28.5017 2.865
28.5320 2.708
28.5623 2.396
28.5926 3.177
28.6229 2.344
28.6531 2.708
28.6834 3.646
28.7137 2.708
28.7440 2.865
28.7742 3.385
28.8045 2.135
28.8348 3.542
28.8651 3.125
28.8954 2.500
28.9256 3.385
28.9559 2.812
28.9862 3.125
29.0165 3.021
29.0468 3.229
29.0770 3.854
29.1073 2.708
29.1376 4.115
29.1679 2.969
29.1981 4.115
29.2284 3.802
29.2587 3.437
29.2890 2.917
29.3193 2.708
29.3495 2.708
29.3798 3.854
29.4101 3.698
29.4404 3.437
29.4707 3.281
29.5009 3.646
29.5312 3.125
29.5615 3.854
29.5918 2.760
29.6221 4.323
29.6523 4.323
29.6826 3.646
29.7129 3.281
29.7432 3.229
29.7734 3.594
29.8037 4.010
29.8340 3.229
29.8643 3.073
29.8946 3.750
29.9248 4.062
29.9551 3.750
29.9854 3.542
30.0157 4.271
30.0460 4.219
30.0762 3.698
30.1065 5.104
30.1368 3.490
30.1671 3.437
30.1973 4.115
30.2276 4.323
30.2579 5.000
30.2882 4.375
30.3185 4.740
30.3487 3.906
30.3790 4.531
30.4093 5.469
30.4396 4.531
30.4699 5.365
30.5001 4.583
30.5304 5.260
30.5607 5.417
30.5910 4.844
30.6212 5.729
30.6515 5.677
30.6818 5.781
30.7121 7.292
30.7424 7.604
30.7726 6.719
30.8029 6.510
30.8332 6.615
30.8635 6.979
30.8938 8.646
30.9240 10.000
30.9543 10.208
30.9846 8.750
31.0149 10.052
31.0451 8.854
31.0754 11.042
31.1057 11.094
31.1360 12.552
31.1663 13.229
31.1965 14.479
31.2268 15.104
31.2571 16.979
31.2874 18.021
31.3177 20.625
31.3479 20.625
31.3782 21.875
31.4085 25.885
31.4388 26.458
31.4690 32.708
31.4993 36.719
31.5296 34.948
31.5599 40.260
31.5902 41.771
31.6204 42.187
31.6507 44.010
31.6810 39.375
31.7113 38.125
31.7416 35.729
31.7718 31.562
31.8021 31.042
31.8324 23.802
31.8627 20.156
31.8929 18.698
31.9232 20.052
31.9535 17.292
31.9838 14.375
32.0141 14.740
32.0443 14.010
32.0746 11.562
32.1049 10.365
32.1352 10.625
32.1655 11.510
32.1957 9.062
32.2260 9.635
32.2563 8.229
32.2866 8.177
32.3169 8.490
32.3471 6.875
32.3774 6.927
32.4077 6.875
32.4380 7.708
32.4682 6.406
32.4985 5.469
32.5288 7.031
32.5591 6.094
32.5894 7.083
32.6196 5.104
32.6499 5.521
32.6802 5.937
32.7105 4.844
32.7408 5.729
32.7710 5.156
32.8013 4.219
32.8316 4.740
32.8619 4.792
32.8921 5.052
32.9224 4.687
32.9527 5.573
32.9830 5.521
33.0133 5.521
33.0435 4.062
33.0738 5.104
33.1041 4.635
33.1344 3.906
33.1647 4.948
33.1949 5.052
33.2252 6.042
33.2555 5.521
33.2858 5.729
33.3160 5.625
33.3463 6.458
33.3766 5.365
33.4069 5.833
33.4372 5.937
33.4674 5.625
33.4977 5.990
33.5280 5.677
33.5583 5.833
33.5886 6.406
33.6188 5.781
33.6491 6.198
33.6794 7.031
33.7097 7.396
33.7399 5.885
33.7702 7.083
33.8005 7.812
33.8308 10.208
33.8611 9.427
33.8913 9.219
33.9216 11.562
33.9519 11.615
33.9822 12.865
34.0125 12.865
34.0427 14.219
34.0730 17.552
34.1033 20.990
34.1336 24.948
34.1638 29.219
34.1941 32.187
34.2244 40.729
34.2547 45.000
34.2850 49.479
34.3152 45.885
34.3455 41.771
34.3758 39.323
34.4061 33.906
34.4364 27.292
34.4666 21.510
34.4969 19.375
34.5272 15.729
34.5575 16.198
34.5877 11.823
34.6180 13.437
34.6483 11.250
34.6786 9.740
34.7089 8.542
34.7391 9.323
34.7694 9.635
34.7997 8.802
34.8300 9.271
34.8603 8.021
34.8905 6.771
34.9208 7.656
34.9511 7.812
34.9814 7.396
35.0116 7.604
35.0419 7.396
35.0722 7.708
35.1025 8.490
35.1328 8.021
35.1630 7.812
35.1933 9.479
35.2236 8.021
35.2539 8.594
35.2842 8.646
35.3144 8.385
35.3447 8.750
35.3750 9.635
35.4053 10.781
35.4356 12.708
35.4658 12.396
35.4961 12.656
35.5264 13.542
35.5567 14.583
35.5869 13.594
35.6172 14.844
35.6475 16.719
35.6778 19.479
35.7081 19.844
35.7383 23.437
35.7686 21.094
35.7989 26.562
35.8292 27.604
35.8595 31.250
35.8897 36.667
35.9200 40.052
35.9503 43.437
35.9806 48.229
36.0108 50.990
36.0411 52.969
36.0714 59.896
36.1017 58.542
36.1320 60.260
36.1622 60.104
36.1925 54.323
36.2228 51.354
36.2531 47.656
36.2834 46.406
36.3136 38.281
36.3439 32.552
36.3742 29.167
36.4045 26.615
36.4347 23.281
36.4650 21.094
36.4953 20.885
36.5256 18.125
36.5559 16.615
36.5861 16.406
36.6164 11.354
36.6467 12.604
36.6770 11.510
36.7073 11.510
36.7375 10.417
36.7678 9.115
36.7981 8.646
36.8284 7.917
36.8586 7.917
36.8889 7.448
36.9192 7.135
36.9495 8.594
36.9798 5.208
37.0100 6.979
37.0403 5.937
37.0706 5.469
37.1009 6.667
37.1312 5.365
37.1614 5.729
37.1917 5.156
37.2220 5.521
37.2523 5.156
37.2825 5.521
37.3128 4.531
37.3431 5.156
37.3734 3.906
37.4037 4.479
37.4339 5.365
37.4642 5.052
37.4945 3.906
37.5248 5.052
37.5551 4.427
37.5853 3.177
37.6156 3.490
37.6459 4.323
37.6762 3.385
37.7064 3.906
37.7367 4.167
37.7670 3.385
37.7973 3.750
37.8276 4.271
37.8578 4.896
37.8881 3.229
37.9184 3.073
37.9487 3.281
37.9790 3.437
38.0092 3.177
38.0395 4.115
38.0698 3.229
38.1001 3.385
38.1304 3.802
38.1606 3.229
38.1909 3.490
38.2212 3.073
38.2515 3.229
38.2817 2.448
38.3120 2.865
38.3423 2.656
38.3726 2.708
38.4029 2.240
38.4331 2.500
38.4634 2.187
38.4937 2.344
38.5240 2.812
38.5543 2.292
38.5845 2.969
38.6148 3.177
38.6451 2.812
38.6754 2.865
38.7056 2.656
38.7359 1.927
38.7662 2.604
38.7965 2.187
38.8268 2.656
38.8570 2.708
38.8873 2.604
38.9176 2.344
38.9479 2.708
38.9782 2.708
39.0084 2.500
39.0387 2.292
39.0690 2.708
39.0993 3.490
39.1295 2.865
39.1598 2.135
39.1901 1.927
39.2204 2.240
39.2507 2.292
39.2809 2.396
39.3112 1.615
39.3415 1.771
39.3718 2.240
39.4021 1.510
39.4323 2.240
39.4626 2.500
39.4929 2.187
39.5232 2.344
39.5534 1.927
39.5837 2.292
39.6140 1.719
39.6443 1.615
39.6746 2.240
39.7048 2.448
39.7351 2.135
39.7654 1.771
39.7957 2.552
39.8260 2.448
39.8562 2.344
39.8865 1.875
39.9168 2.031
39.9471 2.448
39.9773 1.875
40.0076 2.187
40.0379 1.719
40.0682 1.979
40.0985 2.656
40.1287 2.344
40.1590 2.552
40.1893 2.187
40.2196 2.760
40.2499 2.135
40.2801 1.667
40.3104 2.083
40.3407 1.875
40.3710 2.135
40.4012 2.187
40.4315 1.771
40.4618 2.083
40.4921 1.458
40.5224 1.406
40.5526 2.031
40.5829 2.344
40.6132 1.719
40.6435 2.135
40.6738 2.500
40.7040 2.292
40.7343 2.031
40.7646 2.135
40.7949 1.823
40.8251 1.719
40.8554 2.500
40.8857 1.823
40.9160 2.240
40.9463 1.719
40.9765 2.396
41.0068 1.927
41.0371 1.458
41.0674 1.615
41.0977 1.458
41.1279 1.302
41.1582 2.448
41.1885 2.708
41.2188 1.771
41.2491 1.406
41.2793 1.406
41.3096 2.344
41.3399 2.240
41.3702 1.458
41.4004 1.719
41.4307 1.823
41.4610 1.406
41.4913 1.927
41.5216 1.458
41.5518 2.187
41.5821 1.927
41.6124 2.500
41.6427 1.979
41.6730 2.292
41.7032 1.875
41.7335 1.979
41.7638 2.448
41.7941 1.615
41.8243 1.354
41.8546 2.240
41.8849 1.979
41.9152 1.823
41.9455 1.510
41.9757 2.292
42.0060 1.667
42.0363 2.135
42.0666 1.823
42.0969 1.354
42.1271 2.187
42.1574 2.292
42.1877 2.031
42.2180 1.302
42.2482 1.927
42.2785 1.875
42.3088 1.667
42.3391 1.719
42.3694 1.875
42.3996 2.448
42.4299 1.979
42.4602 2.031
42.4905 1.562
42.5208 1.562
42.5510 1.510
42.5813 1.875
42.6116 2.083
42.6419 1.667
42.6721 1.458
42.7024 1.250
42.7327 2.240
42.7630 1.719
42.7933 1.354
42.8235 1.979
42.8538 2.083
42.8841 2.187
42.9144 1.562
42.9447 1.927
42.9749 1.823
43.0052 2.031
43.0355 1.823
43.0658 1.250
43.0960 1.719
43.1263 1.146
43.1566 1.667
43.1869 1.927
43.2172 1.458
43.2474 1.927
43.2777 1.562
43.3080 2.135
43.3383 1.979
43.3686 1.823
43.3988 1.406
43.4291 2.083
43.4594 1.146
43.4897 2.292
43.5199 2.187
43.5502 1.979
43.5805 1.875
43.6108 2.187
43.6411 1.823
43.6713 1.458
43.7016 1.927
43.7319 1.354
43.7622 2.083
43.7925 1.667
43.8227 1.823
43.8530 1.667
43.8833 1.823
43.9136 1.823
43.9439 2.083
43.9741 1.406
44.0044 1.510
44.0347 1.667
44.0650 2.500
44.0952 2.240
44.1255 2.083
44.1558 1.979
44.1861 1.771
44.2164 1.510
44.2466 1.771
44.2769 1.562
44.3072 1.406
44.3375 1.719
44.3678 1.615
44.3980 2.656
44.4283 1.667
44.4586 1.875
44.4889 1.458
44.5191 1.875
44.5494 1.667
44.5797 1.979
44.6100 1.250
44.6403 1.823
44.6705 2.344
44.7008 1.458
44.7311 1.667
44.7614 1.927
44.7917 2.344
44.8219 1.823
44.8522 1.719
44.8825 1.771
44.9128 1.823
44.9430 1.875
44.9733 2.240
45.0036 1.875
45.0339 1.406
45.0642 2.292
45.0944 1.771
45.1247 1.562
45.1550 1.510
45.1853 2.344
45.2156 2.135
45.2458 1.667
45.2761 1.615
45.3064 1.823
45.3367 1.146
45.3669 1.406
45.3972 2.292
45.4275 2.292
45.4578 2.708
45.4881 2.344
45.5183 2.292
45.5486 2.240
45.5789 1.979
45.6092 2.240
45.6395 2.552
45.6697 1.823
45.7000 1.771
45.7303 2.396
45.7606 2.187
45.7908 1.823
45.8211 2.448
45.8514 1.406
45.8817 2.187
45.9120 1.771
45.9422 2.448
45.9725 1.979
46.0028 2.656
46.0331 2.344
46.0634 2.083
46.0936 2.187
46.1239 2.448
46.1542 2.812
46.1845 2.135
46.2147 1.823
46.2450 2.656
46.2753 2.292
46.3056 2.969
46.3359 2.552
46.3661 2.448
46.3964 2.604
46.4267 2.760
46.4570 2.396
46.4873 2.708
46.5175 2.500
46.5478 3.021
46.5781 3.073
46.6084 2.812
46.6386 2.656
46.6689 3.542
46.6992 3.125
46.7295 4.062
46.7598 3.229
46.7900 4.323
46.8203 3.698
46.8506 3.698
46.8809 3.594
46.9112 3.906
46.9414 4.271
46.9717 4.792
47.0020 4.531
47.0323 4.896
47.0626 6.198
47.0928 6.771
47.1231 5.781
47.1534 7.500
47.1837 8.698
47.2139 8.333
47.2442 9.740
47.2745 10.104
47.3048 12.187
47.3351 12.656
47.3653 11.562
47.3956 11.302
47.4259 12.656
47.4562 10.365
47.4865 11.510
47.5167 11.406
47.5470 11.979
47.5773 8.750
47.6076 9.844
47.6378 7.552
47.6681 7.552
47.6984 5.833
47.7287 6.667
47.7590 6.979
47.7892 5.417
47.8195 5.208
47.8498 4.896
47.8801 3.906
47.9104 3.385
47.9406 3.854
47.9709 2.917
48.0012 3.385
48.0315 3.333
48.0617 3.906
48.0920 3.229
48.1223 3.125
48.1526 2.969
48.1829 2.604
48.2131 2.448
48.2434 2.708
48.2737 1.927
48.3040 2.656
48.3343 2.396
48.3645 2.760
48.3948 2.708
48.4251 2.500
48.4554 2.187
48.4856 2.500
48.5159 2.448
48.5462 1.979
48.5765 2.708
48.6068 1.771
48.6370 2.031
48.6673 1.875
48.6976 2.187
48.7279 2.083
48.7582 2.135
48.7884 1.823
48.8187 2.656
48.8490 1.875
48.8793 1.875
48.9095 1.719
48.9398 2.240
48.9701 2.292
49.0004 1.979
49.0307 1.927
49.0609 1.771
49.0912 1.615
49.1215 1.771
49.1518 2.187
49.1821 2.187
49.2123 1.927
49.2426 2.344
49.2729 1.771
49.3032 1.562
49.3334 2.500
49.3637 2.083
49.3940 1.719
49.4243 1.458
49.4546 1.354
49.4848 1.823
49.5151 1.302
49.5454 2.187
49.5757 1.875
49.6060 1.510
49.6362 1.979
49.6665 1.458
49.6968 2.552
49.7271 1.823
49.7574 1.354
49.7876 1.719
49.8179 1.615
49.8482 1.719
49.8785 2.240
49.9087 1.667
49.9390 1.875
49.9693 2.135
49.9996 1.927
50.0299 1.823
50.0601 1.615
50.0904 1.771
50.1207 1.354
50.1510 2.031
50.1813 2.187
50.2115 1.667
50.2418 1.458
50.2721 1.927
50.3024 1.406
50.3326 1.615
50.3629 1.927
50.3932 2.083
50.4235 1.615
50.4538 2.083
50.4840 1.927
50.5143 2.031
50.5446 1.667
50.5749 1.927
50.6052 1.667
50.6354 1.354
50.6657 1.510
50.6960 1.510
50.7263 2.240
50.7565 1.979
50.7868 1.302
50.8171 2.240
50.8474 1.719
50.8777 1.510
50.9079 1.562
50.9382 1.823
50.9685 1.615
50.9988 1.406
51.0291 1.823
51.0593 1.927
51.0896 2.031
51.1199 1.615
51.1502 1.927
51.1804 1.562
51.2107 1.615
51.2410 1.354
51.2713 1.198
51.3016 1.250
51.3318 1.823
51.3621 1.615
51.3924 2.448
51.4227 1.198
51.4530 2.135
51.4832 1.823
51.5135 1.771
51.5438 1.719
51.5741 1.771
51.6043 2.187
51.6346 1.562
51.6649 1.719
51.6952 1.562
51.7255 1.458
51.7557 1.979
51.7860 1.719
51.8163 1.510
51.8466 2.083
51.8769 1.719
51.9071 2.240
51.9374 1.823
51.9677 2.292
51.9980 1.719
52.0282 1.354
52.0585 2.500
52.0888 1.406
52.1191 1.250
52.1494 1.979
52.1796 1.510
52.2099 1.719
52.2402 1.406
52.2705 2.031
52.3008 1.510
52.3310 1.927
52.3613 1.042
52.3916 1.979
52.4219 1.510
52.4521 1.667
52.4824 1.719
52.5127 1.771
52.5430 1.875
52.5733 1.875
52.6035 1.562
52.6338 1.823
52.6641 1.875
52.6944 1.562
52.7247 1.615
52.7549 1.146
52.7852 2.344
52.8155 1.615
52.8458 1.615
52.8761 1.927
52.9063 1.979
52.9366 1.771
52.9669 1.198
52.9972 1.354
53.0274 1.719
53.0577 1.771
53.0880 1.667
53.1183 1.615
53.1486 1.354
53.1788 2.187
53.2091 1.042
53.2394 1.198
53.2697 1.719
53.3000 1.979
53.3302 1.719
53.3605 1.719
53.3908 1.667
53.4211 1.667
53.4513 2.135
53.4816 2.083
53.5119 2.083
53.5422 1.979
53.5725 1.406
53.6027 1.875
53.6330 1.823
53.6633 1.667
53.6936 2.135
53.7239 1.875
53.7541 1.615
53.7844 1.823
53.8147 2.135
53.8450 1.823
53.8752 1.615
53.9055 1.354
53.9358 2.135
53.9661 1.458
53.9964 2.396
54.0266 2.083
54.0569 2.240
54.0872 1.875
54.1175 2.083
54.1478 1.615
54.1780 2.083
54.2083 1.562
54.2386 1.823
54.2689 2.187
54.2991 1.510
54.3294 1.927
54.3597 1.927
54.3900 1.354
54.4203 1.719
54.4505 2.292
54.4808 2.083
54.5111 2.448
54.5414 2.083
54.5717 2.344
54.6019 1.979
54.6322 2.656
54.6625 1.719
54.6928 1.667
54.7230 1.771
54.7533 1.979
54.7836 1.302
54.8139 2.448
54.8442 2.396
54.8744 2.187
54.9047 2.917
54.9350 2.344
54.9653 2.656
54.9956 2.552
55.0258 2.448
55.0561 1.875
55.0864 2.187
55.1167 2.500
55.1469 2.344
55.1772 2.083
55.2075 2.760
55.2378 2.760
55.2681 3.125
55.2983 2.552
55.3286 3.021
55.3589 2.656
55.3892 2.500
55.4195 3.021
55.4497 2.552
55.4800 3.073
55.5103 2.812
55.5406 2.917
55.5709 2.604
55.6011 3.177
55.6314 3.750
55.6617 3.906
55.6920 3.021
55.7222 3.229
55.7525 4.167
55.7828 4.323
55.8131 4.635
55.8434 3.750
55.8736 4.479
55.9039 4.271
55.9342 5.052
55.9645 5.417
55.9948 5.937
56.0250 5.729
56.0553 5.990
56.0856 6.823
56.1159 7.135
56.1461 8.073
56.1764 8.802
56.2067 8.958
56.2370 9.687
56.2673 11.354
56.2975 11.198
56.3278 13.229
56.3581 13.021
56.3884 14.010
56.4187 15.625
56.4489 16.719
56.4792 15.729
56.5095 14.896
56.5398 15.625
56.5700 15.365
56.6003 13.854
56.6306 11.354
56.6609 10.312
56.6912 10.208
56.7214 9.375
56.7517 7.552
56.7820 8.958
56.8123 8.229
56.8426 7.292
56.8728 6.406
56.9031 6.302
56.9334 4.427
56.9637 6.771
56.9939 5.052
57.0242 4.271
57.0545 5.885
57.0848 4.167
57.1151 3.802
57.1453 3.802
57.1756 3.958
57.2059 3.490
57.2362 3.073
57.2665 3.750
57.2967 3.333
57.3270 3.125
57.3573 2.917
57.3876 2.917
57.4178 2.448
57.4481 2.500
57.4784 2.448
57.5087 2.917
57.5390 2.500
57.5692 2.552
57.5995 2.187
57.6298 2.500
57.6601 2.344
57.6904 2.552
57.7206 2.552
57.7509 2.240
57.7812 2.344
57.8115 2.135
57.8417 2.135
57.8720 2.552
57.9023 2.656
57.9326 1.979
57.9629 2.031
57.9931 2.083
58.0234 2.292
58.0537 1.875
58.0840 2.031
58.1143 1.927
58.1445 2.083
58.1748 2.031
58.2051 1.875
58.2354 1.875
58.2656 1.823
58.2959 2.083
58.3262 2.187
58.3565 2.187
58.3868 2.083
58.4170 2.083
58.4473 1.823
58.4776 2.292
58.5079 1.771
58.5382 2.135
58.5684 2.604
58.5987 1.823
58.6290 2.292
58.6593 1.719
58.6896 1.719
58.7198 2.031
58.7501 2.552
58.7804 2.240
58.8107 1.615
58.8409 2.187
58.8712 1.562
58.9015 2.240
58.9318 2.344
58.9621 1.615
58.9923 2.187
59.0226 1.771
59.0529 2.292
59.0832 1.823
59.1135 1.615
59.1437 1.562
59.1740 2.031
59.2043 1.615
59.2346 1.667
59.2648 1.875
59.2951 1.667
59.3254 1.562
59.3557 2.031
59.3860 2.135
59.4162 1.927
59.4465 2.240
59.4768 1.979
59.5071 1.771
59.5374 2.083
59.5676 1.927
59.5979 2.083
59.6282 1.458
59.6585 1.615
59.6887 2.135
59.7190 1.875
59.7493 2.187
59.7796 2.344
59.8099 1.562
59.8401 1.510
59.8704 2.031
59.9007 1.354
59.9310 2.292
59.9613 1.615
59.9915 2.344
60.0218 1.510
60.0521 1.406
60.0824 1.927
60.1126 2.031
60.1429 1.927
60.1732 1.562
60.2035 2.083
60.2338 2.135
60.2640 1.771
60.2943 1.510
60.3246 1.875
60.3549 1.927
60.3852 2.187
60.4154 1.562
60.4457 1.458
60.4760 1.927
60.5063 2.083
60.5365 2.031
60.5668 2.031
60.5971 1.615
60.6274 1.719
60.6577 1.302
60.6879 1.927
60.7182 1.406
60.7485 1.406
60.7788 1.510
60.8091 2.083
60.8393 2.917
60.8696 1.510
60.8999 2.187
60.9302 2.187
60.9604 1.771
60.9907 2.031
61.0210 2.240
61.0513 1.979
61.0816 1.823
61.1118 1.823
61.1421 2.552
61.1724 1.562
61.2027 2.708
61.2330 1.823
61.2632 2.187
61.2935 2.292
61.3238 1.771
61.3541 1.875
61.3844 2.083
61.4146 2.240
61.4449 1.875
61.4752 1.979
61.5055 2.656
61.5357 2.344
61.5660 2.083
61.5963 1.823
61.6266 2.396
61.6569 2.552
61.6871 2.292
61.7174 2.656
61.7477 2.917
61.7780 2.552
61.8083 2.552
61.8385 2.292
61.8688 2.708
61.8991 2.917
61.9294 2.604
61.9596 2.708
61.9899 2.396
62.0202 3.802
62.0505 3.177
62.0808 3.385
62.1110 2.917
62.1413 3.125
62.1716 4.687
62.2019 4.167
62.2322 4.896
62.2624 4.896
62.2927 5.052
62.3230 5.781
62.3533 5.677
62.3835 5.469
62.4138 6.354
62.4441 7.969
62.4744 7.187
62.5047 8.594
62.5349 10.104
62.5652 10.573
62.5955 10.990
62.6258 11.719
62.6561 10.312
62.6863 13.281
62.7166 11.094
62.7469 12.083
62.7772 12.031
62.8074 11.823
62.8377 12.604
62.8680 11.667
62.8983 9.635
62.9286 10.052
62.9588 9.479
62.9891 8.385
63.0194 7.604
63.0497 7.187
63.0800 6.927
63.1102 6.927
63.1405 5.469
63.1708 5.208
63.2011 4.792
63.2313 4.427
63.2616 4.740
63.2919 4.271
63.3222 5.052
63.3525 4.219
63.3827 3.021
63.4130 3.437
63.4433 3.281
63.4736 2.917
63.5039 3.229
63.5341 3.437
63.5644 3.021
63.5947 2.656
63.6250 2.917
63.6552 2.344
63.6855 1.875
63.7158 2.500
63.7461 2.708
63.7764 2.187
63.8066 2.500
63.8369 1.979
63.8672 2.396
63.8975 1.979
63.9278 1.979
63.9580 2.135
63.9883 2.344
64.0186 1.979
64.0489 2.344
64.0791 2.187
64.1094 2.135
64.1397 1.823
64.1700 1.979
64.2003 2.240
64.2305 1.979
64.2608 2.708
64.2911 1.719
64.3214 1.719
64.3517 2.292
64.3819 2.083
64.4122 1.094
64.4425 2.083
64.4728 1.146
64.5031 2.396
64.5333 1.927
64.5636 2.500
64.5939 2.135
64.6242 1.771
64.6544 1.667
64.6847 2.292
64.7150 1.667
64.7453 1.823
64.7756 1.354
64.8058 2.135
64.8361 1.823
64.8664 2.135
64.8967 1.406
64.9270 1.458
64.9572 2.240
64.9875 2.292
65.0178 2.083
65.0481 1.667
65.0783 1.302
65.1086 2.083
65.1389 1.927
65.1692 1.719
65.1995 1.823
65.2297 1.562
65.2600 1.927
65.2903 1.771
65.3206 2.083
65.3509 2.083
65.3811 2.292
65.4114 1.823
65.4417 1.562
65.4720 2.552
65.5022 2.135
65.5325 2.135
65.5628 1.979
65.5931 2.240
65.6234 2.240
65.6536 1.927
65.6839 2.448
65.7142 2.344
65.7445 2.240
65.7748 2.031
65.8050 1.719
65.8353 2.448
65.8656 2.865
65.8959 2.760
65.9261 2.760
65.9564 3.073
65.9867 3.021
66.0170 2.969
66.0473 3.542
66.0775 2.500
66.1078 3.073
66.1381 2.448
66.1684 3.333
66.1987 3.177
66.2289 3.698
66.2592 3.490
66.2895 2.656
66.3198 3.958
66.3500 3.490
66.3803 3.229
66.4106 3.073
66.4409 3.073
66.4712 2.865
66.5014 3.333
66.5317 2.656
66.5620 2.396
66.5923 2.448
66.6226 3.281
66.6528 3.698
66.6831 3.333
66.7134 3.177
66.7437 2.760
66.7739 2.969
66.8042 2.812
66.8345 2.396
66.8648 2.604
66.8951 3.437
66.9253 2.760
66.9556 2.135
66.9859 3.542
67.0162 2.708
67.0465 3.594
67.0767 2.969
67.1070 3.594
67.1373 3.750
67.1676 3.281
67.1978 3.281
67.2281 3.333
67.2584 3.490
67.2887 3.698
67.3190 4.844
67.3492 5.000
67.3795 4.635
67.4098 5.104
67.4401 5.469
67.4704 4.896
67.5006 5.885
67.5309 6.927
67.5612 7.083
67.5915 7.969
67.6218 7.760
67.6520 8.125
67.6823 7.708
67.7126 8.385
67.7429 8.646
67.7731 9.219
67.8034 9.948
67.8337 10.104
67.8640 9.948
67.8943 8.906
67.9245 9.479
67.9548 8.594
67.9851 9.219
68.0154 8.073
68.0457 9.115
68.0759 6.875
68.1062 6.719
68.1365 7.135
68.1668 6.510
68.1970 5.990
68.2273 4.792
68.2576 5.521
68.2879 4.635
68.3182 4.948
68.3484 5.156
68.3787 4.635
68.4090 4.062
68.4393 4.948
68.4696 5.000
68.4998 3.854
68.5301 5.104
68.5604 4.844
68.5907 3.854
68.6209 3.802
68.6512 5.417
68.6815 4.531
68.7118 4.479
68.7421 4.792
68.7723 5.052
68.8026 5.677
68.8329 4.740
68.8632 6.146
68.8935 5.625
68.9237 6.302
68.9540 5.104
68.9843 4.844
69.0146 5.260
69.0448 4.635
69.0751 5.833
69.1054 4.687
69.1357 4.792
69.1660 3.958
69.1962 4.271
69.2265 3.854
69.2568 3.542
69.2871 2.969
69.3174 3.854
69.3476 4.062
69.3779 3.437
69.4082 3.073
69.4385 3.437
69.4687 2.917
69.4990 2.917
69.5293 2.708
69.5596 2.448
69.5899 2.865
69.6201 2.552
69.6504 2.396
69.6807 2.604
69.7110 2.292
69.7413 2.812
69.7715 2.187
69.8018 2.031
69.8321 1.875
69.8624 2.031
69.8926 2.344
69.9229 1.771
69.9532 1.771
69.9835 2.083
70.0138 1.771
70.0440 1.771
70.0743 1.510
70.1046 1.615
70.1349 1.406
70.1652 2.292
70.1954 1.510
70.2257 2.083
70.2560 1.823
70.2863 1.823
70.3166 1.667
70.3468 1.667
70.3771 1.771
70.4074 1.771
70.4377 1.771
70.4679 1.615
70.4982 1.667
70.5285 1.979
70.5588 1.458
70.5891 1.562
70.6193 1.458
70.6496 1.771
70.6799 1.771
70.7102 1.250
70.7405 1.458
70.7707 1.823
70.8010 1.719
70.8313 1.250
70.8616 1.250
70.8918 1.406
70.9221 0.990
70.9524 1.979
70.9827 1.771
71.0130 1.562
71.0432 1.771
71.0735 1.146
71.1038 1.771
71.1341 1.302
71.1644 1.302
71.1946 1.615
71.2249 1.250
71.2552 1.042
71.2855 1.562
71.3157 1.771
71.3460 0.781
71.3763 1.615
71.4066 1.615
71.4369 1.146
71.4671 1.250
71.4974 1.771
71.5277 1.719
71.5580 1.510
71.5883 1.875
71.6185 1.979
71.6488 1.406
71.6791 1.615
71.7094 1.042
71.7396 1.719
71.7699 1.302
71.8002 1.771
71.8305 1.354
71.8608 1.406
71.8910 1.250
71.9213 1.823
71.9516 1.927
71.9819 1.562
72.0122 1.823
72.0424 1.510
72.0727 1.354
72.1030 1.667
72.1333 1.667
72.1635 1.979
72.1938 1.771
72.2241 1.510
72.2544 2.240
72.2847 2.083
72.3149 1.719
72.3452 1.979
72.3755 1.719
72.4058 1.615
72.4361 1.979
72.4663 1.875
72.4966 2.344
72.5269 1.562
72.5572 2.135
72.5874 1.875
72.6177 1.875
72.6480 2.083
72.6783 1.979
72.7086 1.823
72.7388 1.198
72.7691 1.562
72.7994 1.771
72.8297 1.510
72.8600 1.042
72.8902 1.667
72.9205 1.250
72.9508 1.875
72.9811 1.823
73.0113 1.250
73.0416 1.562
73.0719 1.198
73.1022 1.406
73.1325 1.250
73.1627 1.562
73.1930 1.250
73.2233 1.458
73.2536 0.729
73.2839 1.146
73.3141 1.198
73.3444 1.406
73.3747 1.250
73.4050 0.990
73.4353 1.302
73.4655 1.406
73.4958 1.562
73.5261 1.042
73.5564 1.250
73.5866 1.406
73.6169 1.198
73.6472 0.990
73.6775 1.510
73.7078 1.198
73.7380 1.094
73.7683 1.458
73.7986 0.677
73.8289 0.833
73.8592 1.250
73.8894 1.250
73.9197 1.042
73.9500 1.719
73.9803 1.042
74.0105 1.354
74.0408 1.094
74.0711 1.250
74.1014 0.990
74.1317 1.406
74.1619 1.667
74.1922 1.146
74.2225 1.562
74.2528 1.250
74.2831 0.833
74.3133 1.354
74.3436 1.302
74.3739 1.198
74.4042 1.042
74.4344 0.990
74.4647 1.458
74.4950 1.250
74.5253 1.198
74.5556 1.042
74.5858 1.094
74.6161 1.198
74.6464 1.146
74.6767 1.562
74.7070 0.625
74.7372 1.302
74.7675 0.990
74.7978 1.719
74.8281 1.510
74.8583 1.354
74.8886 1.771
74.9189 1.667
74.9492 1.146
74.9795 1.771
75.0097 1.146
75.0400 1.615
75.0703 1.823
75.1006 1.458
75.1309 1.146
75.1611 1.146
75.1914 0.990
75.2217 1.302
75.2520 1.562
75.2822 1.042
75.3125 1.562
75.3428 1.250
75.3731 1.354
75.4034 1.250
75.4336 1.146
75.4639 1.406
75.4942 1.250
75.5245 1.406
75.5548 1.198
75.5850 1.146
75.6153 1.094
75.6456 1.771
75.6759 1.198
75.7061 1.510
75.7364 1.510
75.7667 0.781
75.7970 1.562
75.8273 1.198
75.8575 1.198
75.8878 1.146
75.9181 1.562
75.9484 0.729
75.9787 1.927
76.0089 1.146
76.0392 1.094
76.0695 1.094
76.0998 1.042
76.1301 1.198
76.1603 1.510
76.1906 1.354
76.2209 1.458
76.2512 1.719
76.2814 1.146
76.3117 1.198
76.3420 1.198
76.3723 1.875
76.4026 1.354
76.4328 0.729
76.4631 2.031
76.4934 1.042
76.5237 1.771
76.5540 1.667
76.5842 1.458
76.6145 2.031
76.6448 1.406
76.6751 2.187
76.7053 1.979
76.7356 1.875
76.7659 1.667
76.7962 2.135
76.8265 1.979
76.8567 2.031
76.8870 1.927
76.9173 2.135
76.9476 1.510
76.9779 1.927
77.0081 1.927
77.0384 1.927
77.0687 2.083
77.0990 1.667
77.1292 1.719
77.1595 1.667
77.1898 2.031
77.2201 1.562
77.2504 1.406
77.2806 1.198
77.3109 1.719
77.3412 1.250
77.3715 1.510
77.4018 1.406
77.4320 1.198
77.4623 1.667
77.4926 1.198
77.5229 1.354
77.5531 1.562
77.5834 1.146
77.6137 1.146
77.6440 1.823
77.6743 1.302
77.7045 1.094
77.7348 1.615
77.7651 1.406
77.7954 1.042
77.8257 1.250
77.8559 1.302
77.8862 1.250
77.9165 1.094
77.9468 1.562
77.9770 0.833
78.0073 0.885
78.0376 1.302
78.0679 1.562
78.0982 1.250
78.1284 1.562
78.1587 1.146
78.1890 0.937
78.2193 1.146
78.2496 1.094
78.2798 1.354
78.3101 1.250
78.3404 1.198
78.3707 1.250
78.4009 1.302
78.4312 0.781
78.4615 0.990
78.4918 1.042
78.5221 1.615
78.5523 1.354
78.5826 1.042
78.6129 1.094
78.6432 0.990
78.6735 1.198
78.7037 1.198
78.7340 1.094
78.7643 0.937
78.7946 1.094
78.8248 1.354
78.8551 1.302
78.8854 1.198
78.9157 1.354
78.9460 1.406
78.9762 1.302
79.0065 1.198
79.0368 0.885
79.0671 1.354
79.0974 1.354
79.1276 1.510
79.1579 1.146
79.1882 1.198
79.2185 1.458
79.2488 1.354
79.2790 1.250
79.3093 1.302
79.3396 1.510
79.3699 1.198
79.4001 1.094
79.4304 1.615
79.4607 1.094
79.4910 1.042
79.5213 0.885
79.5515 1.042
79.5818 0.990
79.6121 0.781
79.6424 1.198
79.6727 1.406
79.7029 0.990
79.7332 1.562
79.7635 1.302
79.7938 0.990
79.8240 1.094
79.8543 1.198
79.8846 1.198
79.9149 1.198
79.9452 1.198
79.9754 1.510
80.0057 2.031
80.0360 1.198
80.0663 1.458
80.0966 1.198
80.1268 1.354
80.1571 1.146
80.1874 1.042
80.2177 1.406
80.2479 1.250
80.2782 1.250
80.3085 1.198
80.3388 1.615
80.3691 1.146
80.3993 1.042
80.4296 1.198
80.4599 0.990
80.4902 1.198
80.5205 0.990
80.5507 0.833
80.5810 1.198
80.6113 1.198
80.6416 1.094
80.6718 1.042
80.7021 1.198
80.7324 0.729
80.7627 1.406
80.7930 1.458
80.8232 1.406
80.8535 1.510
80.8838 1.562
80.9141 1.198
80.9444 1.667
80.9746 1.094
81.0049 1.719
81.0352 1.771
81.0655 1.771
81.0957 1.354
81.1260 1.927
81.1563 0.885
81.1866 1.354
81.2169 1.458
81.2471 1.771
81.2774 1.979
81.3077 2.031
81.3380 1.771
81.3683 1.615
81.3985 1.927
81.4288 1.562
81.4591 1.719
81.4894 1.406
81.5196 1.510
81.5499 2.187
81.5802 1.042
81.6105 1.250
81.6408 1.771
81.6710 1.615
81.7013 1.146
81.7316 1.354
81.7619 1.458
81.7922 1.667
81.8224 1.510
81.8527 1.615
81.8830 1.302
81.9133 1.094
81.9436 1.250
81.9738 1.771
82.0041 1.198
82.0344 1.250
82.0647 1.146
82.0949 1.875
82.1252 1.146
82.1555 1.510
82.1858 1.458
82.2161 1.094
82.2463 1.042
82.2766 1.250
82.3069 0.937
82.3372 1.302
82.3675 1.771
82.3977 1.250
82.4280 0.937
82.4583 0.885
82.4886 0.990
82.5188 1.198
82.5491 1.354
82.5794 1.146
82.6097 1.198
82.6400 0.885
82.6702 1.510
82.7005 0.885
82.7308 0.937
82.7611 0.937
82.7914 1.094
82.8216 1.667
82.8519 0.833
82.8822 1.250
82.9125 0.937
82.9427 0.833
82.9730 0.990
83.0033 0.729
83.0336 0.885
83.0639 0.937
83.0941 0.781
83.1244 1.094
83.1547 1.042
83.1850 1.094
83.2153 1.406
83.2455 1.094
83.2758 1.354
83.3061 0.990
83.3364 0.990
83.3666 1.250
83.3969 1.146
83.4272 1.042
83.4575 1.146
83.4878 1.198
83.5180 0.885
83.5483 1.302
83.5786 0.625
83.6089 1.094
83.6392 1.250
83.6694 1.615
83.6997 1.562
83.7300 1.667
83.7603 1.198
83.7905 0.833
83.8208 1.250
83.8511 1.250
83.8814 1.562
83.9117 0.937
83.9419 0.833
83.9722 1.302
84.0025 1.406
84.0328 1.094
84.0631 0.781
84.0933 1.094
84.1236 0.990
84.1539 0.990
84.1842 0.625
84.2144 1.562
84.2447 1.562
84.2750 1.198
84.3053 0.729
84.3356 1.094
84.3658 1.615
84.3961 0.833
84.4264 0.937
84.4567 1.042
84.4870 1.198
84.5172 1.354
84.5475 1.250
84.5778 0.990
84.6081 0.677
84.6383 1.094
84.6686 0.573
84.6989 1.615
84.7292 0.937
84.7595 1.042
84.7897 1.146
84.8200 1.146
84.8503 1.406
84.8806 0.937
84.9109 0.833
84.9411 0.990
84.9714 1.094
85.0017 1.198
85.0320 1.302
85.0623 0.990
85.0925 1.146
85.1228 1.042
85.1531 1.562
85.1834 0.885
85.2136 1.146
85.2439 0.729
85.2742 1.198
85.3045 1.042
85.3348 1.562
85.3650 1.146
85.3953 1.146
85.4256 1.146
85.4559 0.885
85.4862 0.729
85.5164 1.458
85.5467 0.885
85.5770 0.729
85.6073 1.146
85.6375 1.198
85.6678 0.937
85.6981 0.885
85.7284 1.094
85.7587 1.406
85.7889 1.094
85.8192 0.990
85.8495 1.146
85.8798 1.354
85.9101 0.885
85.9403 0.990
85.9706 1.406
86.0009 1.146
86.0312 1.510
86.0614 1.094
86.0917 0.729
86.1220 1.667
86.1523 1.042
86.1826 1.250
86.2128 1.510
86.2431 0.885
86.2734 0.990
86.3037 1.042
86.3340 1.198
86.3642 1.562
86.3945 0.729
86.4248 0.990
86.4551 0.885
86.4853 0.885
86.5156 0.885
86.5459 1.302
86.5762 1.562
86.6065 0.937
86.6367 0.937
86.6670 1.250
86.6973 1.823
86.7276 1.302
86.7579 1.302
86.7881 1.198
86.8184 1.094
86.8487 1.250
86.8790 1.250
86.9092 1.615
86.9395 0.885
86.9698 1.510
87.0001 1.198
87.0304 1.094
87.0606 1.354
87.0909 1.198
87.1212 1.146
87.1515 0.990
87.1818 0.990
87.2120 1.094
87.2423 1.406
87.2726 0.833
87.3029 1.198
87.3331 1.302
87.3634 1.458
87.3937 1.406
87.4240 1.667
87.4543 0.937
87.4845 0.937
87.5148 1.354
87.5451 1.250
87.5754 1.146
87.6057 1.302
87.6359 1.458
87.6662 1.771
87.6965 1.562
87.7268 0.729
87.7571 1.458
87.7873 0.990
87.8176 1.198
87.8479 0.885
87.8782 1.198
87.9084 1.250
87.9387 1.146
87.9690 0.990
87.9993 1.198
88.0296 1.406
88.0598 1.615
88.0901 1.719
88.1204 0.990
88.1507 1.562
88.1810 1.250
88.2112 1.198
88.2415 1.667
88.2718 1.719
88.3021 1.615
88.3323 1.719
88.3626 1.719
88.3929 1.250
88.4232 0.990
88.4535 1.615
88.4837 1.562
88.5140 1.562
88.5443 1.823
88.5746 1.615
88.6049 1.458
88.6351 1.615
88.6654 1.354
88.6957 1.667
88.7260 1.146
88.7562 1.510
88.7865 1.510
88.8168 1.979
88.8471 1.875
88.8774 1.823
88.9076 1.562
88.9379 1.719
88.9682 1.562
88.9985 1.823
89.0288 1.667
89.0590 1.667
89.0893 1.979
89.1196 2.292
89.1499 2.083
89.1801 2.552
89.2104 2.187
89.2407 2.500
89.2710 2.135
89.3013 1.823
89.3315 2.812
89.3618 2.604
89.3921 2.969
89.4224 3.542
89.4527 3.281
89.4829 1.979
89.5132 2.187
89.5435 3.177
89.5738 2.292
89.6040 3.125
89.6343 3.021
89.6646 3.177
89.6949 1.875
89.7252 1.979
89.7554 2.708
89.7857 2.500
89.8160 3.177
89.8463 2.292
89.8766 1.927
89.9068 2.031
89.9371 2.396
89.9674 2.292
89.9977 1.875
90.0279 2.500
90.0582 1.927
90.0885 1.875
90.1188 1.562
90.1491 1.667
90.1793 1.667
90.2096 1.719
90.2399 1.875
90.2702 1.615
90.3005 2.031
90.3307 1.771
90.3610 2.083
90.3913 1.302
90.4216 1.406
90.4518 1.667
90.4821 1.667
90.5124 1.510
90.5427 1.667
90.5730 1.354
90.6032 1.667
90.6335 1.250
90.6638 1.094
90.6941 1.667
90.7244 1.458
90.7546 1.354
90.7849 0.937
90.8152 1.667
90.8455 1.510
90.8758 1.042
90.9060 1.146
90.9363 1.302
90.9666 1.198
90.9969 1.302
91.0271 0.990
91.0574 1.250
91.0877 1.302
91.1180 0.937
91.1483 1.354
91.1785 1.302
91.2088 1.198
91.2391 1.354
91.2694 0.625
91.2997 1.406
91.3299 0.990
91.3602 1.354
91.3905 1.510
91.4208 1.354
91.4510 0.937
91.4813 1.250
91.5116 1.510
91.5419 0.990
91.5722 1.094
91.6024 1.250
91.6327 1.354
91.6630 1.302
91.6933 1.146
91.7236 0.990
91.7538 1.354
91.7841 1.146
91.8144 1.458
91.8447 1.667
91.8749 1.198
91.9052 1.354
91.9355 1.667
91.9658 1.510
91.9961 1.250
92.0263 1.198
92.0566 1.198
92.0869 1.302
92.1172 1.406
92.1475 1.562
92.1777 2.240
92.2080 1.354
92.2383 1.823
92.2686 1.198
92.2988 1.615
92.3291 2.187
92.3594 1.042
92.3897 1.250
92.4200 1.875
92.4502 2.187
92.4805 1.927
92.5108 1.562
92.5411 1.719
92.5714 1.719
92.6016 1.719
92.6319 1.406
92.6622 2.135
92.6925 1.406
92.7227 1.302
92.7530 2.135
92.7833 2.396
92.8136 1.562
92.8439 1.719
92.8741 1.354
92.9044 1.667
92.9347 2.135
92.9650 1.406
92.9953 1.562
93.0255 2.031
93.0558 1.458
93.0861 1.354
93.1164 1.615
93.1466 1.719
93.1769 1.146
93.2072 1.354
93.2375 1.615
93.2678 1.562
93.2980 1.719
93.3283 1.146
93.3586 1.719
93.3889 1.302
93.4192 1.510
93.4494 1.458
93.4797 1.250
93.5100 1.250
93.5403 1.562
93.5706 1.354
93.6008 1.458
93.6311 1.562
93.6614 1.562
93.6917 1.302
93.7219 1.771
93.7522 1.198
93.7825 1.406
93.8128 1.823
93.8431 0.729
93.8733 1.458
93.9036 1.979
93.9339 1.719
93.9642 1.250
93.9945 1.667
94.0247 1.458
94.0550 0.937
94.0853 1.406
94.1156 1.302
94.1458 1.719
94.1761 1.354
94.2064 1.719
94.2367 1.667
94.2670 1.458
94.2972 1.198
94.3275 1.250
94.3578 2.083
94.3881 1.354
94.4184 1.719
94.4486 1.510
94.4789 1.562
94.5092 2.135
94.5395 1.719
94.5697 1.458
94.6000 2.187
94.6303 1.927
94.6606 1.927
94.6909 1.927
94.7211 1.875
94.7514 2.031
94.7817 1.823
94.8120 2.187
94.8423 2.865
94.8725 1.719
94.9028 2.448
94.9331 2.604
94.9634 2.448
94.9936 2.552
95.0239 3.177
95.0542 2.031
95.0845 2.240
95.1148 2.708
95.1450 2.708
95.1753 2.500
95.2056 3.073
95.2359 3.229
95.2662 2.865
95.2964 2.604
95.3267 2.656
95.3570 2.708
95.3873 2.604
95.4175 3.177
95.4478 2.396
95.4781 2.812
95.5084 2.604
95.5387 2.448
95.5689 2.135
95.5992 2.240
95.6295 2.344
95.6598 2.083
95.6901 2.500
95.7203 2.500
95.7506 2.031
95.7809 1.823
95.8112 2.396
95.8414 2.031
95.8717 1.927
95.9020 1.771
95.9323 2.448
95.9626 1.562
95.9928 1.250
96.0231 1.198
96.0534 1.719
96.0837 1.562
96.1140 1.406
96.1442 1.250
96.1745 1.510
96.2048 1.458
96.2351 1.354
96.2653 1.615
96.2956 1.510
96.3259 1.250
96.3562 1.250
96.3865 1.250
96.4167 1.771
96.4470 1.823
96.4773 1.406
96.5076 1.406
96.5379 1.094
96.5681 1.927
96.5984 1.146
96.6287 1.771
96.6590 1.302
96.6893 1.510
96.7195 0.990
96.7498 1.146
96.7801 1.510
96.8104 1.354
96.8406 1.250
96.8709 1.250
96.9012 1.198
96.9315 1.406
96.9618 1.771
96.9920 1.562
97.0223 1.562
97.0526 1.250
97.0829 1.354
97.1132 1.146
97.1434 1.250
97.1737 0.833
97.2040 1.562
97.2343 1.667
97.2645 0.990
97.2948 1.406
97.3251 1.146
97.3554 1.406
97.3857 1.562
97.4159 1.458
97.4462 1.510
97.4765 1.146
97.5068 1.510
97.5371 2.135
97.5673 1.354
97.5976 1.510
97.6279 1.198
97.6582 1.146
97.6884 1.510
97.7187 1.510
97.7490 1.406
97.7793 1.250
97.8096 1.198
97.8398 1.094
97.8701 1.719
97.9004 1.250
97.9307 1.094
97.9610 1.615
97.9912 1.250
98.0215 1.771
98.0518 1.719
98.0821 1.615
98.1123 1.667
98.1426 1.823
98.1729 1.667
98.2032 2.187
98.2335 1.250
98.2637 1.667
98.2940 1.771
98.3243 1.771
98.3546 1.979
98.3849 2.135
98.4151 1.979
98.4454 1.562
98.4757 1.719
98.5060 1.823
98.5362 2.031
98.5665 2.500
98.5968 2.187
98.6271 1.823
98.6574 2.500
98.6876 2.187
98.7179 2.292
98.7482 2.292
98.7785 1.823
98.8088 2.344
98.8390 1.823
98.8693 1.927
98.8996 2.135
98.9299 1.667
98.9601 1.823
98.9904 1.510
99.0207 1.510
99.0510 1.719
99.0813 1.510
99.1115 1.979
99.1418 2.135
99.1721 1.823
99.2024 0.937
99.2327 1.562
99.2629 1.146
99.2932 1.250
99.3235 1.667
99.3538 1.094
99.3841 1.042
99.4143 1.406
99.4446 1.823
99.4749 1.458
99.5052 1.198
99.5354 1.146
99.5657 1.615
99.5960 1.771
99.6263 0.937
99.6566 1.198
99.6868 1.198
99.7171 1.458
99.7474 1.042
99.7777 1.042
99.8080 0.937
99.8382 1.823
99.8685 0.937
99.8988 1.667
99.9291 1.510
99.9593 1.615
99.9896 1.302
100.0199 1.406
100.0502 1.094
100.0805 1.094
100.1107 1.250
100.1410 1.146
100.1713 1.354
100.2016 1.354
100.2319 1.510
100.2621 1.302
100.2924 1.250
100.3227 1.406
100.3530 1.302
100.3832 1.302
100.4135 1.615
100.4438 0.990
100.4741 0.937
100.5044 1.458
100.5346 1.250
100.5649 1.615
100.5952 1.771
100.6255 1.042
100.6558 1.302
100.6860 1.302
100.7163 1.354
100.7466 1.302
100.7769 1.302
100.8071 1.094
100.8374 0.833
100.8677 1.250
100.8980 1.406
100.9283 1.094
100.9585 1.042
100.9888 1.302
101.0191 1.250
101.0494 1.198
101.0797 0.885
101.1099 1.354
101.1402 1.042
101.1705 1.146
101.2008 1.510
101.2310 1.042
101.2613 1.198
101.2916 1.250
101.3219 1.667
101.3522 1.771
101.3824 1.302
101.4127 1.302
101.4430 1.354
101.4733 1.667
101.5036 1.042
101.5338 1.094
101.5641 0.885
101.5944 1.042
101.6247 1.562
101.6549 0.885
101.6852 1.771
101.7155 1.510
101.7458 1.302
101.7761 1.719
101.8063 1.094
101.8366 0.833
101.8669 0.937
101.8972 1.406
101.9275 1.094
101.9577 1.458
101.9880 1.198
102.0183 1.146
102.0486 1.042
102.0788 1.198
102.1091 1.615
102.1394 2.031
102.1697 1.510
102.2000 2.031
102.2302 1.823
102.2605 1.250
102.2908 1.562
102.3211 1.406
102.3514 1.719
102.3816 1.354
102.4119 1.510
102.4422 1.823
102.4725 2.083
102.5028 1.719
102.5330 1.771
102.5633 1.771
102.5936 1.979
102.6239 1.667
102.6541 0.885
102.6844 1.979
102.7147 2.448
102.7450 1.875
102.7753 2.344
102.8055 1.719
102.8358 1.927
102.8661 1.875
102.8964 1.823
102.9267 2.240
102.9569 1.979
102.9872 2.083
103.0175 2.135
103.0478 1.927
103.0780 2.552
103.1083 2.083
103.1386 2.656
103.1689 2.187
103.1992 1.615
103.2294 1.927
103.2597 1.979
103.2900 2.031
103.3203 1.667
103.3506 2.187
103.3808 2.240
103.4111 1.927
103.4414 1.562
103.4717 1.927
103.5019 1.875
103.5322 2.083
103.5625 1.927
103.5928 1.406
103.6231 1.875
103.6533 1.927
103.6836 1.615
103.7139 2.396
103.7442 1.406
103.7745 2.083
103.8047 1.562
103.8350 1.979
103.8653 1.927
103.8956 2.187
103.9258 2.396
103.9561 1.979
103.9864 2.604
104.0167 2.292
104.0470 2.396
104.0772 2.083
104.1075 1.927
104.1378 2.344
104.1681 2.604
104.1984 2.396
104.2286 1.667
104.2589 2.292
104.2892 2.031
104.3195 2.500
104.3497 2.396
104.3800 2.240
104.4103 2.344
104.4406 2.135
104.4709 1.875
104.5011 2.500
104.5314 2.083
104.5617 1.979
104.5920 1.458
104.6223 1.719
104.6525 1.979
104.6828 2.656
104.7131 1.510
104.7434 1.719
104.7736 1.719
104.8039 2.135
104.8342 1.562
104.8645 1.562
104.8948 1.927
104.9250 1.458
104.9553 1.458
104.9856 1.458
105.0159 1.250
105.0462 1.458
105.0764 1.406
105.1067 1.406
105.1370 1.458
105.1673 1.458
105.1975 1.354
105.2278 1.198
105.2581 1.458
105.2884 1.302
105.3187 1.406
105.3489 1.406
105.3792 1.458
105.4095 1.510
105.4398 1.250
105.4701 1.302
105.5003 1.198
105.5306 1.302
105.5609 1.354
105.5912 1.250
105.6215 1.406
105.6517 1.771
105.6820 1.146
105.7123 1.406
105.7426 1.406
105.7728 1.771
105.8031 1.458
105.8334 1.771
105.8637 1.406
105.8940 1.615
105.9242 0.990
105.9545 1.458
105.9848 1.562
106.0151 1.302
106.0454 1.458
106.0756 1.146
106.1059 1.458
106.1362 1.302
106.1665 1.250
106.1967 0.990
106.2270 1.510
106.2573 1.406
106.2876 1.667
106.3179 0.885
106.3481 1.302
106.3784 0.833
106.4087 1.875
106.4390 1.302
106.4693 1.510
106.4995 1.146
106.5298 1.615
106.5601 1.562
106.5904 1.354
106.6206 1.146
106.6509 1.823
106.6812 1.458
106.7115 1.198
106.7418 0.781
106.7720 1.146
106.8023 1.771
106.8326 0.781
106.8629 1.146
106.8932 1.458
106.9234 1.458
106.9537 1.510
106.9840 2.031
107.0143 1.667
107.0445 1.302
107.0748 1.302
107.1051 1.094
107.1354 1.406
107.1657 1.198
107.1959 1.823
107.2262 1.250
107.2565 1.250
107.2868 1.458
107.3171 1.458
107.3473 1.146
107.3776 1.094
107.4079 1.094
107.4382 1.406
107.4684 1.354
107.4987 1.510
107.5290 1.510
107.5593 1.198
107.5896 1.302
107.6198 1.562
107.6501 1.198
107.6804 1.510
107.7107 1.354
107.7410 0.937
107.7712 1.146
107.8015 1.562
107.8318 0.885
107.8621 1.198
107.8923 1.615
107.9226 1.667
107.9529 1.458
107.9832 1.406
108.0135 1.823
108.0437 1.771
108.0740 1.458
108.1043 1.198
108.1346 1.615
108.1649 1.042
108.1951 1.354
108.2254 1.302
108.2557 1.510
108.2860 1.406
108.3163 1.510
108.3465 1.823
108.3768 0.937
108.4071 1.146
108.4374 1.042
108.4676 1.458
108.4979 1.406
108.5282 1.510
108.5585 1.198
108.5888 1.458
108.6190 1.250
108.6493 1.302
108.6796 1.302
108.7099 1.146
108.7402 1.250
108.7704 0.781
108.8007 1.667
108.8310 1.198
108.8613 1.458
108.8915 1.667
108.9218 1.562
108.9521 1.302
108.9824 1.406
109.0127 1.979
109.0429 1.094
109.0732 1.406
109.1035 1.667
109.1338 1.302
109.1641 1.458
109.1943 1.042
109.2246 1.302
109.2549 1.250
109.2852 1.302
109.3154 0.833
109.3457 1.198
109.3760 0.729
109.4063 1.198
109.4366 1.250
109.4668 1.771
109.4971 1.562
109.5274 1.042
109.5577 1.510
109.5880 1.198
109.6182 1.094
109.6485 1.406
109.6788 1.667
109.7091 1.458
109.7393 2.083
109.7696 1.667
109.7999 1.302
109.8302 1.823
109.8605 1.771
109.8907 1.562
109.9210 1.667
109.9513 1.667
109.9816 1.562
110.0119 2.292
110.0421 2.240
110.0724 1.562
110.1027 1.667
110.1330 1.771
110.1632 1.458
110.1935 1.927
110.2238 1.771
110.2541 1.979
110.2844 2.083
110.3146 1.615
110.3449 1.979
110.3752 1.979
110.4055 1.927
110.4358 1.302
110.4660 1.510
110.4963 1.250
110.5266 1.510
110.5569 2.240
110.5871 2.083
110.6174 2.240
110.6477 1.875
110.6780 0.990
110.7083 1.615
110.7385 1.406
110.7688 2.135
110.7991 1.458
110.8294 1.562
110.8597 1.771
110.8899 1.667
110.9202 1.302
110.9505 1.615
110.9808 1.771
111.0110 1.354
111.0413 1.771
111.0716 1.146
111.1019 1.875
111.1322 1.146
111.1624 0.937
111.1927 1.354
111.2230 1.354
111.2533 1.979
111.2836 1.771
111.3138 1.667
111.3441 1.198
111.3744 1.667
111.4047 1.458
111.4350 1.354
111.4652 1.354
111.4955 1.198
111.5258 1.510
111.5561 0.937
111.5863 0.781
111.6166 1.146
111.6469 1.510
111.6772 0.937
111.7075 1.667
111.7377 1.406
111.7680 0.990
111.7983 1.302
111.8286 1.250
111.8589 1.250
111.8891 1.042
111.9194 0.937
111.9497 1.198
111.9800 1.042
112.0102 0.833
112.0405 1.042
112.0708 1.250
112.1011 1.302
112.1314 1.146
112.1616 1.562
112.1919 1.302
112.2222 1.198
112.2525 1.198
112.2828 1.562
112.3130 1.406
112.3433 1.458
112.3736 1.302
112.4039 1.094
112.4341 1.406
112.4644 1.406
112.4947 0.833
112.5250 0.937
112.5553 1.406
112.5855 1.302
112.6158 1.302
112.6461 1.094
112.6764 0.937
112.7067 1.458
112.7369 0.990
112.7672 1.094
112.7975 0.990
112.8278 1.510
112.8580 1.250
112.8883 1.198
112.9186 1.615
112.9489 1.354
112.9792 0.781
113.0094 1.198
113.0397 1.562
113.0700 1.354
113.1003 1.510
113.1306 0.937
113.1608 1.458
113.1911 1.719
113.2214 1.667
113.2517 1.302
113.2819 1.042
113.3122 1.146
113.3425 1.198
113.3728 1.198
113.4031 1.406
113.4333 1.250
113.4636 1.302
113.4939 1.667
113.5242 1.250
113.5545 1.094
113.5847 1.198
113.6150 1.250
113.6453 1.094
113.6756 0.990
113.7058 1.510
113.7361 1.458
113.7664 0.885
113.7967 1.250
113.8270 1.406
113.8572 0.990
113.8875 1.354
113.9178 1.146
113.9481 1.042
113.9784 1.458
114.0086 1.042
114.0389 0.990
114.0692 1.198
114.0995 1.719
114.1298 1.927
114.1600 1.302
114.1903 1.719
114.2206 1.615
114.2509 1.562
114.2811 1.510
114.3114 1.198
114.3417 1.094
114.3720 1.146
114.4023 1.094
114.4325 1.719
114.4628 1.615
114.4931 1.719
114.5234 0.937
114.5537 1.510
114.5839 1.250
114.6142 1.667
114.6445 1.562
114.6748 1.146
114.7050 1.302
114.7353 0.937
114.7656 1.302
114.7959 1.406
114.8262 1.667
114.8564 1.667
114.8867 1.562
114.9170 1.615
114.9473 1.406
114.9776 2.240
115.0078 1.250
115.0381 2.031
115.0684 1.719
115.0987 1.562
115.1289 1.406
115.1592 1.302
115.1895 0.885
115.2198 1.510
115.2501 1.667
115.2803 1.615
115.3106 1.406
115.3409 1.042
115.3712 0.990
115.4015 1.771
115.4317 1.615
115.4620 1.406
115.4923 1.979
115.5226 2.031
115.5528 2.187
115.5831 2.292
115.6134 1.771
115.6437 1.979
115.6740 2.187
115.7042 2.344
115.7345 2.187
115.7648 2.292
115.7951 1.719
115.8254 2.552
115.8556 2.240
115.8859 2.396
115.9162 2.240
115.9465 3.229
115.9767 2.292
116.0070 2.187
116.0373 1.927
116.0676 2.083
116.0979 2.708
116.1281 2.396
116.1584 3.073
116.1887 2.135
116.2190 2.500
116.2493 3.281
116.2795 2.448
116.3098 2.604
116.3401 2.552
116.3704 2.448
116.4006 2.396
116.4309 3.073
116.4612 2.083
116.4915 2.135
116.5218 2.292
116.5520 2.396
116.5823 2.135
116.6126 1.667
116.6429 2.083
116.6732 2.396
116.7034 1.979
116.7337 2.031
116.7640 1.719
116.7943 1.875
116.8245 2.240
116.8548 2.083
116.8851 1.979
116.9154 2.240
116.9457 1.667
116.9759 1.719
117.0062 1.979
117.0365 1.719
117.0668 1.510
117.0971 2.083
117.1273 1.875
117.1576 1.823
117.1879 1.875
117.2182 1.302
117.2485 1.562
117.2787 2.448
117.3090 1.562
117.3393 2.240
117.3696 1.719
117.3998 1.562
117.4301 1.875
117.4604 1.302
117.4907 1.354
117.5210 1.354
117.5512 1.458
117.5815 1.458
117.6118 1.458
117.6421 0.937
117.6724 0.990
117.7026 1.615
117.7329 1.354
117.7632 1.302
117.7935 1.562
117.8237 1.354
117.8540 1.615
117.8843 1.302
117.9146 1.250
117.9449 1.406
117.9751 1.667
118.0054 0.937
118.0357 1.198
118.0660 1.302
118.0963 1.562
118.1265 1.198
118.1568 1.302
118.1871 1.302
118.2174 1.406
118.2476 1.562
118.2779 1.250
118.3082 1.354
118.3385 1.719
118.3688 1.094
118.3990 1.458
118.4293 1.458
118.4596 1.667
118.4899 1.042
118.5202 1.042
118.5504 1.094
118.5807 1.562
118.6110 1.250
118.6413 1.354
118.6715 1.094
118.7018 1.354
118.7321 1.146
118.7624 1.302
118.7927 0.885
118.8229 1.042
118.8532 1.302
118.8835 1.458
118.9138 0.885
118.9441 1.094
118.9743 1.250
119.0046 0.937
119.0349 1.250
119.0652 1.927
119.0954 1.198
119.1257 1.667
119.1560 1.302
119.1863 1.302
119.2166 1.302
119.2468 1.146
119.2771 1.302
119.3074 1.458
119.3377 1.042
119.3680 1.406
119.3982 1.250
119.4285 1.354
119.4588 1.667
119.4891 0.729
119.5193 1.354
119.5496 1.250
119.5799 1.510
119.6102 1.146
119.6405 1.510
119.6707 1.354
119.7010 0.885
119.7313 1.510
119.7616 2.031
119.7919 1.042
119.8221 1.562
119.8524 0.990
119.8827 1.562
119.9130 1.146
119.9433 1.354
119.9735 1.406
120.0038 1.302
