'Id: "" Comment: "" Operator: "Lab Manager" Anode: "Cu" Scantype: "Locked Coupled" TimePerStep: "19.2" X: "9999" Y: "9999" Z: "9999" 
10.0015 3.646
10.0318 4.062
10.0620 3.021
10.0923 3.333
10.1226 4.219
10.1529 4.062
10.1832 4.010
10.2134 4.531
10.2437 3.854
10.2740 3.385
10.3043 4.687
10.3346 4.271
10.3648 3.802
10.3951 4.531
10.4254 3.437
10.4557 4.583
10.4859 4.687
10.5162 4.740
10.5465 3.437
10.5768 3.437
10.6071 3.854
10.6373 3.646
10.6676 4.271
10.6979 4.531
10.7282 4.844
10.7585 4.896
10.7887 5.104
10.8190 4.010
10.8493 4.687
10.8796 5.208
10.9098 5.208
10.9401 6.875
10.9704 6.823
11.0007 9.792
11.0310 8.594
11.0612 10.260
11.0915 9.323
11.1218 7.812
11.1521 8.229
11.1824 7.604
11.2126 6.146
11.2429 6.406
11.2732 5.312
11.3035 4.792
11.3337 4.740
11.3640 5.260
11.3943 4.062
11.4246 5.052
11.4549 3.437
11.4851 4.167
11.5154 3.437
11.5457 4.167
11.5760 3.437
11.6063 3.958
11.6365 3.906
11.6668 3.437
11.6971 3.698
11.7274 4.635
11.7577 3.229
11.7879 3.802
11.8182 3.958
11.8485 3.958
11.8788 3.698
11.9090 3.177
11.9393 3.542
11.9696 3.385
11.9999 3.490
12.0302 3.333
12.0604 4.115
12.0907 3.437
12.1210 3.229
12.1513 4.010
12.1816 3.802
12.2118 4.062
12.2421 3.437
12.2724 4.010
12.3027 4.115
12.3329 4.167
12.3632 3.698
12.3935 3.125
12.4238 3.750
12.4541 3.802
12.4843 3.542
12.5146 3.177
12.5449 3.490
12.5752 3.594
12.6055 3.333
12.6357 3.490
12.6660 3.073
12.6963 2.969
12.7266 3.542
12.7568 3.281
12.7871 3.854
12.8174 2.969
12.8477 3.385
12.8780 3.594
12.9082 2.812
12.9385 3.385
12.9688 3.125
12.9991 3.333
13.0294 3.802
13.0596 3.333
13.0899 3.750
13.1202 3.646
13.1505 3.073
13.1807 3.281
13.2110 2.344
13.2413 3.646
13.2716 3.333
13.3019 3.229
13.3321 3.125
13.3624 3.698
13.3927 3.177
13.4230 2.708
13.4533 2.812
13.4835 4.010
13.5138 2.812
13.5441 3.333
13.5744 3.281
13.6046 3.021
13.6349 2.917
13.6652 3.177
13.6955 3.229
13.7258 2.187
13.7560 3.437
13.7863 4.375
13.8166 2.604
13.8469 2.812
13.8772 2.865
13.9074 3.177
13.9377 3.073
13.9680 2.604
13.9983 3.385
14.0285 2.708
14.0588 2.969
14.0891 2.865
14.1194 3.073
14.1497 2.865
14.1799 3.281
14.2102 3.281
14.2405 2.552
14.2708 3.646
14.3011 3.073
14.3313 2.708
14.3616 3.594
14.3919 3.542
14.4222 4.427
14.4524 3.177
14.4827 3.333
14.5130 4.062
14.5433 3.385
14.5736 2.760
14.6038 3.021
14.6341 2.187
14.6644 3.229
14.6947 2.917
14.7250 3.021
14.7552 3.229
14.7855 3.021
14.8158 2.865
14.8461 3.802
14.8764 2.448
14.9066 2.604
14.9369 2.500
14.9672 3.281
14.9975 3.021
15.0277 3.281
15.0580 3.125
15.0883 3.021
15.1186 2.448
15.1489 2.865
15.1791 1.667
15.2094 2.917
15.2397 2.344
15.2700 3.490
15.3003 2.760
15.3305 3.750
15.3608 2.760
15.3911 2.865
15.4214 2.656
15.4516 3.385
15.4819 2.865
15.5122 3.177
15.5425 3.073
15.5728 3.073
15.6030 3.333
15.6333 2.812
15.6636 2.917
15.6939 3.594
15.7242 3.073
15.7544 3.073
15.7847 3.333
15.8150 2.812
15.8453 3.281
15.8755 3.021
15.9058 2.344
15.9361 2.812
15.9664 3.281
15.9967 2.656
16.0269 1.667
16.0572 3.802
16.0875 3.177
16.1178 2.865
16.1481 2.917
16.1783 3.437
16.2086 3.021
16.2389 2.604
16.2692 2.500
16.2994 3.385
16.3297 2.865
16.3600 2.292
16.3903 2.448
16.4206 2.656
16.4508 2.656
16.4811 3.750
16.5114 2.552
16.5417 3.125
16.5720 2.708
16.6022 3.125
16.6325 3.594
16.6628 3.021
16.6931 2.552
16.7233 3.490
16.7536 3.125
16.7839 2.604
16.8142 2.448
16.8445 3.333
16.8747 3.073
16.9050 3.437
16.9353 3.021
16.9656 3.177
16.9959 2.760
17.0261 3.177
17.0564 3.073
17.0867 3.385
17.1170 2.865
17.1472 2.969
17.1775 3.281
17.2078 2.865
17.2381 2.865
17.2684 2.969
17.2986 2.448
17.3289 3.281
17.3592 2.708
17.3895 1.927
17.4198 2.552
17.4500 2.448
17.4803 2.083
17.5106 2.448
17.5409 3.490
17.5712 2.292
17.6014 3.646
17.6317 3.021
17.6620 2.969
17.6923 2.812
17.7225 2.083
17.7528 3.437
17.7831 2.656
17.8134 2.917
17.8437 2.448
17.8739 2.760
17.9042 2.760
17.9345 2.969
17.9648 2.500
17.9951 2.135
18.0253 2.500
18.0556 2.500
18.0859 2.448
18.1162 2.760
18.1464 2.812
18.1767 2.708
18.2070 2.396
18.2373 2.500
18.2676 3.125
18.2978 2.448
18.3281 3.594
18.3584 3.333
18.3887 2.917
18.4190 2.917
18.4492 2.240
18.4795 3.021
18.5098 2.240
18.5401 2.969
18.5703 2.865
18.6006 2.448
18.6309 2.292
18.6612 2.969
18.6915 2.083
18.7217 2.969
18.7520 2.708
18.7823 2.292
18.8126 2.135
18.8429 2.656
18.8731 2.083
18.9034 2.865
18.9337 2.604
18.9640 2.760
18.9942 3.281
19.0245 2.969
19.0548 1.719
19.0851 3.021
19.1154 3.021
19.1456 1.875
19.1759 2.448
19.2062 3.281
19.2365 2.760
19.2668 2.500
19.2970 3.594
19.3273 2.865
19.3576 2.448
19.3879 2.708
19.4181 2.604
19.4484 2.760
19.4787 3.021
19.5090 2.656
19.5393 3.125
19.5695 3.490
19.5998 2.812
19.6301 1.927
19.6604 2.187
19.6907 2.812
19.7209 2.292
19.7512 2.083
19.7815 2.240
19.8118 2.083
19.8420 2.031
19.8723 2.760
19.9026 2.656
19.9329 2.812
19.9632 1.823
19.9934 2.240
20.0237 2.760
20.0540 2.083
20.0843 2.187
20.1146 2.500
20.1448 2.552
20.1751 2.031
20.2054 2.396
20.2357 2.760
20.2659 2.604
20.2962 2.552
20.3265 2.500
20.3568 3.021
20.3871 2.708
20.4173 2.344
20.4476 2.500
20.4779 2.969
20.5082 3.385
20.5385 3.073
20.5687 2.552
20.5990 2.604
20.6293 2.240
20.6596 3.021
20.6899 2.187
20.7201 1.979
20.7504 2.083
20.7807 3.385
20.8110 2.292
20.8412 2.448
20.8715 2.344
20.9018 2.708
20.9321 2.344
20.9624 2.604
20.9926 3.802
21.0229 2.604
21.0532 2.812
21.0835 2.604
21.1138 2.083
21.1440 2.135
21.1743 2.292
21.2046 2.344
21.2349 2.500
21.2651 2.708
21.2954 2.812
21.3257 2.396
21.3560 1.823
21.3863 2.604
21.4165 2.240
21.4468 2.760
21.4771 1.823
21.5074 2.500
21.5377 2.031
21.5679 2.917
21.5982 1.719
21.6285 2.344
21.6588 2.656
21.6890 2.031
21.7193 2.396
21.7496 1.979
21.7799 2.240
21.8102 2.552
21.8404 2.969
21.8707 3.125
21.9010 2.292
21.9313 2.135
21.9616 2.187
21.9918 2.552
22.0221 3.073
22.0524 2.292
22.0827 2.448
22.1129 2.448
22.1432 2.917
22.1735 2.344
22.2038 2.552
22.2341 2.396
22.2643 1.927
22.2946 2.240
22.3249 1.875
22.3552 3.281
22.3855 1.979
22.4157 1.562
22.4460 2.552
22.4763 2.344
22.5066 2.500
22.5368 2.760
22.5671 2.031
22.5974 2.708
22.6277 1.771
22.6580 2.187
22.6882 2.448
22.7185 2.031
22.7488 2.187
22.7791 3.021
22.8094 2.083
22.8396 1.510
22.8699 2.708
22.9002 1.875
22.9305 2.292
22.9607 2.083
22.9910 1.823
23.0213 2.656
23.0516 2.448
23.0819 2.083
23.1121 3.125
23.1424 1.979
23.1727 2.552
23.2030 1.979
23.2333 2.812
23.2635 1.927
23.2938 2.552
23.3241 2.865
23.3544 2.708
23.3846 2.396
23.4149 2.396
23.4452 2.031
23.4755 2.500
23.5058 2.812
23.5360 2.552
23.5663 1.667
23.5966 2.500
23.6269 2.187
23.6572 1.458
23.6874 2.604
23.7177 2.396
23.7480 2.448
23.7783 2.708
23.8086 2.344
23.8388 2.187
23.8691 1.823
23.8994 2.031
23.9297 2.344
23.9599 2.812
23.9902 2.083
24.0205 2.552
24.0508 2.708
24.0811 2.292
24.1113 2.656
24.1416 2.187
24.1719 1.927
24.2022 1.979
24.2325 2.187
24.2627 1.771
24.2930 2.396
24.3233 2.240
24.3536 2.344
24.3838 2.500
24.4141 2.240
24.4444 2.500
24.4747 2.396
24.5050 1.667
24.5352 2.344
24.5655 1.823
24.5958 2.292
24.6261 2.292
24.6564 2.292
24.6866 2.396
24.7169 2.500
24.7472 2.500
24.7775 2.760
24.8077 2.292
24.8380 2.083
24.8683 2.292
24.8986 1.771
24.9289 1.927
24.9591 2.240
24.9894 2.500
25.0197 2.917
25.0500 2.396
25.0803 2.448
25.1105 2.031
25.1408 2.031
25.1711 2.135
25.2014 2.448
25.2316 2.604
25.2619 2.969
25.2922 2.448
25.3225 1.667
25.3528 2.448
25.3830 2.708
25.4133 2.240
25.4436 2.656
25.4739 2.552
25.5042 2.812
25.5344 2.240
25.5647 2.031
25.5950 2.292
25.6253 2.760
25.6555 2.396
25.6858 2.552
25.7161 2.760
25.7464 2.344
25.7767 2.708
25.8069 2.031
25.8372 3.021
25.8675 1.771
25.8978 2.448
25.9281 2.187
25.9583 2.448
25.9886 2.500
26.0189 2.240
26.0492 3.021
26.0794 1.927
26.1097 1.979
26.1400 2.292
26.1703 2.135
26.2006 3.177
26.2308 2.031
26.2611 2.083
26.2914 2.865
26.3217 2.344
26.3520 1.875
26.3822 2.292
26.4125 2.917
26.4428 3.021
26.4731 2.240
26.5034 2.396
26.5336 2.656
26.5639 2.865
26.5942 1.979
26.6245 2.812
26.6547 2.448
26.6850 2.031
26.7153 2.500
26.7456 2.187
26.7759 2.760
26.8061 2.344
26.8364 2.917
26.8667 2.604
26.8970 2.812
26.9273 3.021
26.9575 2.708
26.9878 2.865
27.0181 2.500
27.0484 1.823
27.0786 1.927
27.1089 2.031
27.1392 2.031
27.1695 2.917
27.1998 2.448
27.2300 1.875
27.2603 2.500
27.2906 2.396
27.3209 2.708
27.3512 2.656
27.3814 2.708
27.4117 2.708
27.4420 2.500
27.4723 2.552
27.5025 2.865
27.5328 3.542
27.5631 2.135
27.5934 3.490
27.6237 3.073
27.6539 2.812
27.6842 2.292
27.7145 3.021
27.7448 2.240
27.7751 2.083
27.8053 2.344
27.8356 2.396
27.8659 2.708
27.8962 2.344
27.9264 3.385
27.9567 2.448
27.9870 3.021
28.0173 3.177
28.0476 2.031
28.0778 2.240
28.1081 3.437
28.1384 2.760
28.1687 2.500
28.1990 2.656
28.2292 2.604
28.2595 2.344
28.2898 2.240
28.3201 3.021
28.3503 2.344
28.3806 2.448
28.4109 3.177
28.4412 2.604
28.4715 3.125
28.5017 2.656
28.5320 2.760
28.5623 1.979
28.5926 3.229
28.6229 2.448
28.6531 3.073
28.6834 3.021
28.7137 2.969
28.7440 3.490
28.7742 2.656
28.8045 2.708
28.8348 3.229
28.8651 2.969
28.8954 2.448
28.9256 2.240
28.9559 2.604
28.9862 3.333
29.0165 2.812
29.0468 3.281
29.0770 2.865
29.1073 3.333
29.1376 2.604
29.1679 2.969
29.1981 3.021
29.2284 3.125
29.2587 2.917
29.2890 3.385
29.3193 3.229
29.3495 3.177
29.3798 3.437
29.4101 2.865
29.4404 3.177
29.4707 2.969
29.5009 2.865
29.5312 3.750
29.5615 3.177
29.5918 2.604
29.6221 3.073
29.6523 3.073
29.6826 3.958
29.7129 2.865
29.7432 3.177
29.7734 3.125
29.8037 3.698
29.8340 3.594
29.8643 3.125
29.8946 3.854
29.9248 4.271
29.9551 3.542
29.9854 3.802
30.0157 3.125
30.0460 3.437
30.0762 3.073
30.1065 3.958
30.1368 3.750
30.1671 4.531
30.1973 3.594
30.2276 3.854
30.2579 4.062
30.2882 4.479
30.3185 3.854
30.3487 3.854
30.3790 4.479
30.4093 4.479
30.4396 4.687
30.4699 4.792
30.5001 4.531
30.5304 4.219
30.5607 4.896
30.5910 4.635
30.6212 5.312
30.6515 5.937
30.6818 6.250
30.7121 5.573
30.7424 6.094
30.7726 6.510
30.8029 4.896
30.8332 6.198
30.8635 6.667
30.8938 6.042
30.9240 7.292
30.9543 7.604
30.9846 7.708
31.0149 6.927
31.0451 8.802
31.0754 8.906
31.1057 9.531
31.1360 10.156
31.1663 12.344
31.1965 11.458
31.2268 12.135
31.2571 14.167
31.2874 15.885
31.3177 16.823
31.3479 18.646
31.3782 22.656
31.4085 19.896
31.4388 24.844
31.4690 26.667
31.4993 31.094
31.5296 33.542
31.5599 36.042
31.5902 40.104
31.6204 40.885
31.6507 38.958
31.6810 36.354
31.7113 34.323
31.7416 33.333
31.7718 30.417
31.8021 29.583
31.8324 26.875
31.8627 22.917
31.8929 18.750
31.9232 17.552
31.9535 13.802
31.9838 14.427
32.0141 13.802
32.0443 12.917
32.0746 10.521
32.1049 11.250
32.1352 8.802
32.1655 8.490
32.1957 8.906
32.2260 7.656
32.2563 7.031
32.2866 7.656
32.3169 6.927
32.3471 6.562
32.3774 6.354
32.4077 7.344
32.4380 6.198
32.4682 6.198
32.4985 5.677
32.5288 6.354
32.5591 5.104
32.5894 4.271
32.6196 4.635
32.6499 4.531
32.6802 5.573
32.7105 4.167
32.7408 5.156
32.7710 4.948
32.8013 4.792
32.8316 4.115
32.8619 4.844
32.8921 4.635
32.9224 4.844
32.9527 4.792
32.9830 4.062
33.0133 5.208
33.0435 5.417
33.0738 4.323
33.1041 4.271
33.1344 5.156
33.1647 4.427
33.1949 4.687
33.2252 5.469
33.2555 4.323
33.2858 4.375
33.3160 4.531
33.3463 5.260
33.3766 4.479
33.4069 4.948
33.4372 5.052
33.4674 5.625
33.4977 4.531
33.5280 6.406
33.5583 5.104
33.5886 6.354
33.6188 5.312
33.6491 5.625
33.6794 6.146
33.7097 5.781
33.7399 6.302
33.7702 5.833
33.8005 6.771
33.8308 7.552
33.8611 7.292
33.8913 8.229
33.9216 8.125
33.9519 10.573
33.9822 11.406
34.0125 10.990
34.0427 13.698
34.0730 14.062
34.1033 17.500
34.1336 20.677
34.1638 22.135
34.1941 30.156
34.2244 35.000
34.2547 42.812
34.2850 44.271
34.3152 45.000
34.3455 41.094
34.3758 38.385
34.4061 32.187
34.4364 24.792
34.4666 18.490
34.4969 16.979
34.5272 16.198
34.5575 14.010
34.5877 12.969
34.6180 9.844
34.6483 10.208
34.6786 8.594
34.7089 9.896
34.7391 7.812
34.7694 7.708
34.7997 8.437
34.8300 6.719
34.8603 6.094
34.8905 5.781
34.9208 7.396
34.9511 7.396
34.9814 6.823
35.0116 6.146
35.0419 7.031
35.0722 6.979
35.1025 7.344
35.1328 7.083
35.1630 8.281
35.1933 7.812
35.2236 7.969
35.2539 7.344
35.2842 7.031
35.3144 7.031
35.3447 7.135
35.3750 7.552
35.4053 10.000
35.4356 9.375
35.4658 9.740
35.4961 10.937
35.5264 11.250
35.5567 10.885
35.5869 13.385
35.6172 12.240
35.6475 13.229
35.6778 15.365
35.7081 16.875
35.7383 17.292
35.7686 19.427
35.7989 22.604
35.8292 23.594
35.8595 26.823
35.8897 29.531
35.9200 31.823
35.9503 37.917
35.9806 41.771
36.0108 42.917
36.0411 49.427
36.0714 52.865
36.1017 55.469
36.1320 53.073
36.1622 56.667
36.1925 55.208
36.2228 47.708
36.2531 44.271
36.2834 39.844
36.3136 40.312
36.3439 29.375
36.3742 29.115
36.4045 25.312
36.4347 21.719
36.4650 18.698
36.4953 17.135
36.5256 14.740
36.5559 14.219
36.5861 13.802
36.6164 12.344
36.6467 10.885
36.6770 9.896
36.7073 9.167
36.7375 9.427
36.7678 8.073
36.7981 9.115
36.8284 7.552
36.8586 7.031
36.8889 6.146
36.9192 6.458
36.9495 7.396
36.9798 6.250
37.0100 6.146
37.0403 6.510
37.0706 3.958
37.1009 5.104
37.1312 5.417
37.1614 5.052
37.1917 3.958
37.2220 5.156
37.2523 3.437
37.2825 4.687
37.3128 4.115
37.3431 3.854
37.3734 4.115
37.4037 3.437
37.4339 4.896
37.4642 3.958
37.4945 3.021
37.5248 3.802
37.5551 3.802
37.5853 3.385
37.6156 3.437
37.6459 3.490
37.6762 3.281
37.7064 4.062
37.7367 2.604
37.7670 3.229
37.7973 3.229
37.8276 3.177
37.8578 3.333
37.8881 2.396
37.9184 2.917
37.9487 3.021
37.9790 3.021
38.0092 3.333
38.0395 3.281
38.0698 3.281
38.1001 3.281
38.1304 2.812
38.1606 2.865
38.1909 3.437
38.2212 2.240
38.2515 1.823
38.2817 2.552
38.3120 2.969
38.3423 1.927
38.3726 3.177
38.4029 2.708
38.4331 2.760
38.4634 2.187
38.4937 3.073
38.5240 1.979
38.5543 3.073
38.5845 2.917
38.6148 2.135
38.6451 2.292
38.6754 2.656
38.7056 2.083
38.7359 2.552
38.7662 1.927
38.7965 2.292
38.8268 2.344
38.8570 2.396
38.8873 2.240
38.9176 2.969
38.9479 2.656
38.9782 1.979
39.0084 2.187
39.0387 2.240
39.0690 2.031
39.0993 2.240
39.1295 1.458
39.1598 2.865
39.1901 1.667
39.2204 2.083
39.2507 1.823
39.2809 1.927
39.3112 2.083
39.3415 1.146
39.3718 2.656
39.4021 2.500
39.4323 2.865
39.4626 1.615
39.4929 1.771
39.5232 2.083
39.5534 1.719
39.5837 2.396
39.6140 2.031
39.6443 2.135
39.6746 1.354
39.7048 2.292
39.7351 1.354
39.7654 1.719
39.7957 2.292
39.8260 1.823
39.8562 1.875
39.8865 1.979
39.9168 1.562
39.9471 1.927
39.9773 2.031
40.0076 2.083
40.0379 1.927
40.0682 1.771
40.0985 2.135
40.1287 1.875
40.1590 1.771
40.1893 2.135
40.2196 1.719
40.2499 2.187
40.2801 2.292
40.3104 1.510
40.3407 2.031
40.3710 1.823
40.4012 2.240
40.4315 1.823
40.4618 1.615
40.4921 1.719
40.5224 2.396
40.5526 1.302
40.5829 1.771
40.6132 1.823
40.6435 1.875
40.6738 1.302
40.7040 1.510
40.7343 2.292
40.7646 2.344
40.7949 0.833
40.8251 1.823
40.8554 1.719
40.8857 1.979
40.9160 1.615
40.9463 1.510
40.9765 1.823
41.0068 2.552
41.0371 1.927
41.0674 1.562
41.0977 1.458
41.1279 1.510
41.1582 1.771
41.1885 1.510
41.2188 1.823
41.2491 1.406
41.2793 1.823
41.3096 1.875
41.3399 1.354
41.3702 1.719
41.4004 2.344
41.4307 1.979
41.4610 1.667
41.4913 1.406
41.5216 2.396
41.5518 2.292
41.5821 1.354
41.6124 2.031
41.6427 1.927
41.6730 1.667
41.7032 1.615
41.7335 1.875
41.7638 1.927
41.7941 1.719
41.8243 1.510
41.8546 1.771
41.8849 1.354
41.9152 1.719
41.9455 1.250
41.9757 1.927
42.0060 2.135
42.0363 2.240
42.0666 1.927
42.0969 1.302
42.1271 1.458
42.1574 1.615
42.1877 1.198
42.2180 1.406
42.2482 1.615
42.2785 1.927
42.3088 2.083
42.3391 1.823
42.3694 1.302
42.3996 1.719
42.4299 1.615
42.4602 1.667
42.4905 1.667
42.5208 1.875
42.5510 1.823
42.5813 2.187
42.6116 1.094
42.6419 1.667
42.6721 1.979
42.7024 1.302
42.7327 1.823
42.7630 2.031
42.7933 1.458
42.8235 1.719
42.8538 1.250
42.8841 1.510
42.9144 2.187
42.9447 2.083
42.9749 1.667
43.0052 1.667
43.0355 1.510
43.0658 1.719
43.0960 1.354
43.1263 1.562
43.1566 1.875
43.1869 1.719
43.2172 1.823
43.2474 1.146
43.2777 1.927
43.3080 1.823
43.3383 1.302
43.3686 1.510
43.3988 1.667
43.4291 1.562
43.4594 1.562
43.4897 2.135
43.5199 1.875
43.5502 1.146
43.5805 2.187
43.6108 2.292
43.6411 1.302
43.6713 1.615
43.7016 1.667
43.7319 1.927
43.7622 1.146
43.7925 1.562
43.8227 1.458
43.8530 1.562
43.8833 1.719
43.9136 1.771
43.9439 1.823
43.9741 1.771
44.0044 1.771
44.0347 1.615
44.0650 1.510
44.0952 1.979
44.1255 1.667
44.1558 2.240
44.1861 2.187
44.2164 1.510
44.2466 1.927
44.2769 1.667
44.3072 2.031
44.3375 1.771
44.3678 1.719
44.3980 1.094
44.4283 1.562
44.4586 1.302
44.4889 1.146
44.5191 1.458
44.5494 1.354
44.5797 1.927
44.6100 1.667
44.6403 1.719
44.6705 1.719
44.7008 1.562
44.7311 1.875
44.7614 1.719
44.7917 2.031
44.8219 1.875
44.8522 1.927
44.8825 1.406
44.9128 1.510
44.9430 1.667
44.9733 1.406
45.0036 2.135
45.0339 2.031
45.0642 2.083
45.0944 1.719
45.1247 1.458
45.1550 1.354
45.1853 1.667
45.2156 1.875
45.2458 1.510
45.2761 1.146
45.3064 1.823
45.3367 1.406
45.3669 2.344
45.3972 1.354
45.4275 2.187
45.4578 1.615
45.4881 1.927
45.5183 2.344
45.5486 1.198
45.5789 1.771
45.6092 1.927
45.6395 1.771
45.6697 1.615
45.7000 1.771
45.7303 2.604
45.7606 2.552
45.7908 1.875
45.8211 1.927
45.8514 1.615
45.8817 1.823
45.9120 1.250
45.9422 2.708
45.9725 1.719
46.0028 1.927
46.0331 2.187
46.0634 1.198
46.0936 2.344
46.1239 1.771
46.1542 2.552
46.1845 2.604
46.2147 2.083
46.2450 1.979
46.2753 1.927
46.3056 2.031
46.3359 2.344
46.3661 2.135
46.3964 1.615
46.4267 3.177
46.4570 2.083
46.4873 1.719
46.5175 2.500
46.5478 2.708
46.5781 2.396
46.6084 3.177
46.6386 1.719
46.6689 2.396
46.6992 2.083
46.7295 2.500
46.7598 3.073
46.7900 3.490
46.8203 3.333
46.8506 2.760
46.8809 3.490
46.9112 4.062
46.9414 3.281
46.9717 2.917
47.0020 4.479
47.0323 4.635
47.0626 4.479
47.0928 5.833
47.1231 5.885
47.1534 5.469
47.1837 6.406
47.2139 9.115
47.2442 7.969
47.2745 8.073
47.3048 10.156
47.3351 10.417
47.3653 10.937
47.3956 10.990
47.4259 10.781
47.4562 10.781
47.4865 10.156
47.5167 10.521
47.5470 8.906
47.5773 10.365
47.6076 8.229
47.6378 6.823
47.6681 5.677
47.6984 6.042
47.7287 5.469
47.7590 5.885
47.7892 4.219
47.8195 4.375
47.8498 4.635
47.8801 4.010
47.9104 3.385
47.9406 3.542
47.9709 3.385
48.0012 3.073
48.0315 2.917
48.0617 3.125
48.0920 2.917
48.1223 3.125
48.1526 2.344
48.1829 2.292
48.2131 1.667
48.2434 2.344
48.2737 2.135
48.3040 1.927
48.3343 2.292
48.3645 2.396
48.3948 2.292
48.4251 1.875
48.4554 1.719
48.4856 2.031
48.5159 1.562
48.5462 2.344
48.5765 2.135
48.6068 1.719
48.6370 1.719
48.6673 2.552
48.6976 2.187
48.7279 1.562
48.7582 1.875
48.7884 1.510
48.8187 1.823
48.8490 1.354
48.8793 1.823
48.9095 2.292
48.9398 1.354
48.9701 1.875
49.0004 1.979
49.0307 1.771
49.0609 1.875
49.0912 1.615
49.1215 1.458
49.1518 1.771
49.1821 1.510
49.2123 1.615
49.2426 1.510
49.2729 1.771
49.3032 1.771
49.3334 1.250
49.3637 1.719
49.3940 2.344
49.4243 1.875
49.4546 1.771
49.4848 2.240
49.5151 1.719
49.5454 1.406
49.5757 2.135
49.6060 1.510
49.6362 1.510
49.6665 1.354
49.6968 2.135
49.7271 1.823
49.7574 2.240
49.7876 0.885
49.8179 1.615
49.8482 2.292
49.8785 1.875
49.9087 0.937
49.9390 1.562
49.9693 1.927
49.9996 1.198
50.0299 1.562
50.0601 1.458
50.0904 2.031
50.1207 2.083
50.1510 1.406
50.1813 1.875
50.2115 1.562
50.2418 1.823
50.2721 2.031
50.3024 1.406
50.3326 1.562
50.3629 1.562
50.3932 1.719
50.4235 1.823
50.4538 1.250
50.4840 1.354
50.5143 2.083
50.5446 1.615
50.5749 1.510
50.6052 1.615
50.6354 1.615
50.6657 2.031
50.6960 1.354
50.7263 1.562
50.7565 2.396
50.7868 1.510
50.8171 1.615
50.8474 1.875
50.8777 2.031
50.9079 1.406
50.9382 2.344
50.9685 1.562
50.9988 2.031
51.0291 1.615
51.0593 1.979
51.0896 2.135
51.1199 1.562
51.1502 1.823
51.1804 1.406
51.2107 1.875
51.2410 1.562
51.2713 1.979
51.3016 1.458
51.3318 1.510
51.3621 1.094
51.3924 1.198
51.4227 1.823
51.4530 1.510
51.4832 1.719
51.5135 1.198
51.5438 1.979
51.5741 1.615
51.6043 1.667
51.6346 1.875
51.6649 1.510
51.6952 1.927
51.7255 1.979
51.7557 1.875
51.7860 1.458
51.8163 1.562
51.8466 1.354
51.8769 1.302
51.9071 1.823
51.9374 1.667
51.9677 1.562
51.9980 1.771
52.0282 1.406
52.0585 2.240
52.0888 1.562
52.1191 1.198
52.1494 1.823
52.1796 1.562
52.2099 1.667
52.2402 1.927
52.2705 1.771
52.3008 1.354
52.3310 1.510
52.3613 1.302
52.3916 1.719
52.4219 1.927
52.4521 1.406
52.4824 1.875
52.5127 1.927
52.5430 1.198
52.5733 1.615
52.6035 1.302
52.6338 1.771
52.6641 2.083
52.6944 1.875
52.7247 1.510
52.7549 1.667
52.7852 1.719
52.8155 1.875
52.8458 1.875
52.8761 1.823
52.9063 1.771
52.9366 1.510
52.9669 1.354
52.9972 1.302
53.0274 1.510
53.0577 1.042
53.0880 1.927
53.1183 1.615
53.1486 1.458
53.1788 1.354
53.2091 1.875
53.2394 1.406
53.2697 1.302
53.3000 1.510
53.3302 2.083
53.3605 1.667
53.3908 1.667
53.4211 1.354
53.4513 1.406
53.4816 1.667
53.5119 1.667
53.5422 1.823
53.5725 1.354
53.6027 0.990
53.6330 1.667
53.6633 1.771
53.6936 2.083
53.7239 1.198
53.7541 1.406
53.7844 1.302
53.8147 2.500
53.8450 1.354
53.8752 1.771
53.9055 1.979
53.9358 1.198
53.9661 1.667
53.9964 2.135
54.0266 1.823
54.0569 1.823
54.0872 1.771
54.1175 1.979
54.1478 2.083
54.1780 1.927
54.2083 1.458
54.2386 2.031
54.2689 1.406
54.2991 1.875
54.3294 1.771
54.3597 1.771
54.3900 1.875
54.4203 1.719
54.4505 1.823
54.4808 1.667
54.5111 1.510
54.5414 1.771
54.5717 1.719
54.6019 1.771
54.6322 1.979
54.6625 1.667
54.6928 1.771
54.7230 1.927
54.7533 1.823
54.7836 2.292
54.8139 2.031
54.8442 2.031
54.8744 1.823
54.9047 2.448
54.9350 2.031
54.9653 1.719
54.9956 1.979
55.0258 1.927
55.0561 1.823
55.0864 1.667
55.1167 2.240
55.1469 1.615
55.1772 1.875
55.2075 2.135
55.2378 1.823
55.2681 2.187
55.2983 2.552
55.3286 2.187
55.3589 2.187
55.3892 2.292
55.4195 2.760
55.4497 3.125
55.4800 3.177
55.5103 2.083
55.5406 2.552
55.5709 2.604
55.6011 2.656
55.6314 2.708
55.6617 2.708
55.6920 2.708
55.7222 2.656
55.7525 2.708
55.7828 2.969
55.8131 3.125
55.8434 3.750
55.8736 3.281
55.9039 3.490
55.9342 4.375
55.9645 5.208
55.9948 4.844
56.0250 5.521
56.0553 5.469
56.0856 6.250
56.1159 5.781
56.1461 6.875
56.1764 7.552
56.2067 8.698
56.2370 9.323
56.2673 8.281
56.2975 10.833
56.3278 12.187
56.3581 11.875
56.3884 12.448
56.4187 14.323
56.4489 14.687
56.4792 13.750
56.5095 13.594
56.5398 11.406
56.5700 12.344
56.6003 11.615
56.6306 10.677
56.6609 10.052
56.6912 9.740
56.7214 7.292
56.7517 7.396
56.7820 7.448
56.8123 6.302
56.8426 6.562
56.8728 6.146
56.9031 4.896
56.9334 5.104
56.9637 4.427
56.9939 3.958
57.0242 4.479
57.0545 4.271
57.0848 3.958
57.1151 3.021
57.1453 4.062
57.1756 2.708
57.2059 2.917
57.2362 2.656
57.2665 2.969
57.2967 2.760
57.3270 2.760
57.3573 2.292
57.3876 2.396
57.4178 1.875
57.4481 2.031
57.4784 2.292
57.5087 2.187
57.5390 1.979
57.5692 2.031
57.5995 1.250
57.6298 1.927
57.6601 2.292
57.6904 2.344
57.7206 1.510
57.7509 1.667
57.7812 1.927
57.8115 1.771
57.8417 1.458
57.8720 1.667
57.9023 1.719
57.9326 1.823
57.9629 1.562
57.9931 1.771
58.0234 2.083
58.0537 1.979
58.0840 1.719
58.1143 1.927
58.1445 1.562
58.1748 1.927
58.2051 2.396
58.2354 1.875
58.2656 1.927
58.2959 2.187
58.3262 2.656
58.3565 2.187
58.3868 1.562
58.4170 1.823
58.4473 1.302
58.4776 2.344
58.5079 1.562
58.5382 1.667
58.5684 2.083
58.5987 1.979
58.6290 1.875
58.6593 1.562
58.6896 1.250
58.7198 1.927
58.7501 0.937
58.7804 1.667
58.8107 2.083
58.8409 1.823
58.8712 1.719
58.9015 1.406
58.9318 1.562
58.9621 1.562
58.9923 1.667
59.0226 2.187
59.0529 2.240
59.0832 1.719
59.1135 1.823
59.1437 2.083
59.1740 1.562
59.2043 1.771
59.2346 1.875
59.2648 1.562
59.2951 1.198
59.3254 1.875
59.3557 2.031
59.3860 1.562
59.4162 1.927
59.4465 1.667
59.4768 1.406
59.5071 1.667
59.5374 1.927
59.5676 1.562
59.5979 1.354
59.6282 1.667
59.6585 1.458
59.6887 1.406
59.7190 1.823
59.7493 1.406
59.7796 1.875
59.8099 1.406
59.8401 1.458
59.8704 0.937
59.9007 1.406
59.9310 1.250
59.9613 1.562
59.9915 1.302
60.0218 1.406
60.0521 1.667
60.0824 1.667
60.1126 1.406
60.1429 1.823
60.1732 1.510
60.2035 1.771
60.2338 2.344
60.2640 2.083
60.2943 1.458
60.3246 2.135
60.3549 1.823
60.3852 1.562
60.4154 1.719
60.4457 1.510
60.4760 1.510
60.5063 2.031
60.5365 1.927
60.5668 1.615
60.5971 1.823
60.6274 1.927
60.6577 1.771
60.6879 1.667
60.7182 2.031
60.7485 1.510
60.7788 2.448
60.8091 1.510
60.8393 1.875
60.8696 1.823
60.8999 1.979
60.9302 1.458
60.9604 1.979
60.9907 1.562
61.0210 2.031
61.0513 1.771
61.0816 2.031
61.1118 2.135
61.1421 1.458
61.1724 1.250
61.2027 1.615
61.2330 1.458
61.2632 2.292
61.2935 1.719
61.3238 1.771
61.3541 2.083
61.3844 1.823
61.4146 1.875
61.4449 1.667
61.4752 1.667
61.5055 1.823
61.5357 2.292
61.5660 1.823
61.5963 1.875
61.6266 1.927
61.6569 2.187
61.6871 2.135
61.7174 2.240
61.7477 2.031
61.7780 2.344
61.8083 2.292
61.8385 2.083
61.8688 2.344
61.8991 2.292
61.9294 2.240
61.9596 2.344
61.9899 2.969
62.0202 2.292
62.0505 2.865
62.0808 3.594
62.1110 3.333
62.1413 2.969
62.1716 3.542
62.2019 4.167
62.2322 3.750
62.2624 4.062
62.2927 5.104
62.3230 4.896
62.3533 5.260
62.3835 5.260
62.4138 5.469
62.4441 6.615
62.4744 6.875
62.5047 7.812
62.5349 8.229
62.5652 8.906
62.5955 8.802
62.6258 9.635
62.6561 11.302
62.6863 9.740
62.7166 11.146
62.7469 12.135
62.7772 10.052
62.8074 11.354
62.8377 10.000
62.8680 10.260
62.8983 9.167
62.9286 9.740
62.9588 7.656
62.9891 8.229
63.0194 7.917
63.0497 6.771
63.0800 5.469
63.1102 5.469
63.1405 5.937
63.1708 4.427
63.2011 3.646
63.2313 3.125
63.2616 3.906
63.2919 3.229
63.3222 3.802
63.3525 3.125
63.3827 2.917
63.4130 2.604
63.4433 2.604
63.4736 2.396
63.5039 2.812
63.5341 1.771
63.5644 2.552
63.5947 2.552
63.6250 2.500
63.6552 2.292
63.6855 2.083
63.7158 2.240
63.7461 2.292
63.7764 1.823
63.8066 1.979
63.8369 1.875
63.8672 1.562
63.8975 1.875
63.9278 1.667
63.9580 1.927
63.9883 1.927
64.0186 1.406
64.0489 1.875
64.0791 1.615
64.1094 1.615
64.1397 2.187
64.1700 1.927
64.2003 2.500
64.2305 1.406
64.2608 1.562
64.2911 1.562
64.3214 2.292
64.3517 1.875
64.3819 2.031
64.4122 1.927
64.4425 2.396
64.4728 1.927
64.5031 1.510
64.5333 1.823
64.5636 1.198
64.5939 1.354
64.6242 1.667
64.6544 1.615
64.6847 1.562
64.7150 2.083
64.7453 2.344
64.7756 1.979
64.8058 1.406
64.8361 1.562
64.8664 1.354
64.8967 1.615
64.9270 1.406
64.9572 1.354
64.9875 1.667
65.0178 1.406
65.0481 2.604
65.0783 1.823
65.1086 1.667
65.1389 1.979
65.1692 1.562
65.1995 1.719
65.2297 1.823
65.2600 2.135
65.2903 1.771
65.3206 1.562
65.3509 1.927
65.3811 1.510
65.4114 1.719
65.4417 1.927
65.4720 1.875
65.5022 1.927
65.5325 1.979
65.5628 2.135
65.5931 1.302
65.6234 1.562
65.6536 2.292
65.6839 2.500
65.7142 2.396
65.7445 2.135
65.7748 1.302
65.8050 2.396
65.8353 2.448
65.8656 2.240
65.8959 2.187
65.9261 2.396
65.9564 1.615
65.9867 2.448
66.0170 3.490
66.0473 2.760
66.0775 2.448
66.1078 3.073
66.1381 2.865
66.1684 2.865
66.1987 2.448
66.2289 3.385
66.2592 3.594
66.2895 2.969
66.3198 2.396
66.3500 3.281
66.3803 2.812
66.4106 2.656
66.4409 2.917
66.4712 2.760
66.5014 2.865
66.5317 2.448
66.5620 2.187
66.5923 3.021
66.6226 2.865
66.6528 2.396
66.6831 2.240
66.7134 2.500
66.7437 2.969
66.7739 2.917
66.8042 2.240
66.8345 2.552
66.8648 2.187
66.8951 2.396
66.9253 2.031
66.9556 2.396
66.9859 2.083
67.0162 2.917
67.0465 2.500
67.0767 2.396
67.1070 2.240
67.1373 2.552
67.1676 2.396
67.1978 2.917
67.2281 3.906
67.2584 3.437
67.2887 3.333
67.3190 4.323
67.3492 4.479
67.3795 3.333
67.4098 4.062
67.4401 3.906
67.4704 4.583
67.5006 4.167
67.5309 5.781
67.5612 3.750
67.5915 6.562
67.6218 7.240
67.6520 6.615
67.6823 8.333
67.7126 7.865
67.7429 8.542
67.7731 8.073
67.8034 6.250
67.8337 9.167
67.8640 8.698
67.8943 8.490
67.9245 8.333
67.9548 7.344
67.9851 8.229
68.0154 7.969
68.0457 6.823
68.0759 6.406
68.1062 6.771
68.1365 6.458
68.1668 5.156
68.1970 5.573
68.2273 5.781
68.2576 4.948
68.2879 4.531
68.3182 4.531
68.3484 4.219
68.3787 4.271
68.4090 3.385
68.4393 4.740
68.4696 4.740
68.4998 3.906
68.5301 3.854
68.5604 3.437
68.5907 3.594
68.6209 3.802
68.6512 4.010
68.6815 3.281
68.7118 4.844
68.7421 4.635
68.7723 4.531
68.8026 4.740
68.8329 3.906
68.8632 3.854
68.8935 4.948
68.9237 4.271
68.9540 5.417
68.9843 4.427
69.0146 5.104
69.0448 4.479
69.0751 4.583
69.1054 5.104
69.1357 4.948
69.1660 3.229
69.1962 3.125
69.2265 4.323
69.2568 3.437
69.2871 3.229
69.3174 2.760
69.3476 3.073
69.3779 2.917
69.4082 2.760
69.4385 3.281
69.4687 1.979
69.4990 1.771
69.5293 2.448
69.5596 2.031
69.5899 2.552
69.6201 1.927
69.6504 2.031
69.6807 1.875
69.7110 2.240
69.7413 1.562
69.7715 1.667
69.8018 1.771
69.8321 1.667
69.8624 2.031
69.8926 1.615
69.9229 1.615
69.9532 1.510
69.9835 1.771
70.0138 1.719
70.0440 1.510
70.0743 1.823
70.1046 1.146
70.1349 1.302
70.1652 1.302
70.1954 1.458
70.2257 1.250
70.2560 1.354
70.2863 1.302
70.3166 1.823
70.3468 1.510
70.3771 1.771
70.4074 1.198
70.4377 1.198
70.4679 0.781
70.4982 1.354
70.5285 1.250
70.5588 1.615
70.5891 1.146
70.6193 1.406
70.6496 1.198
70.6799 1.458
70.7102 1.354
70.7405 1.354
70.7707 1.458
70.8010 1.406
70.8313 1.406
70.8616 1.406
70.8918 1.406
70.9221 1.510
70.9524 0.990
70.9827 1.146
71.0130 0.781
71.0432 1.302
71.0735 1.250
71.1038 0.990
71.1341 1.250
71.1644 1.562
71.1946 1.042
71.2249 1.094
71.2552 1.406
71.2855 1.771
71.3157 1.302
71.3460 1.250
71.3763 1.302
71.4066 0.833
71.4369 0.833
71.4671 1.302
71.4974 1.250
71.5277 1.250
71.5580 1.510
71.5883 1.510
71.6185 1.458
71.6488 1.302
71.6791 1.406
71.7094 1.562
71.7396 1.250
71.7699 1.562
71.8002 1.250
71.8305 0.937
71.8608 0.937
71.8910 1.406
71.9213 1.042
71.9516 1.198
71.9819 1.354
72.0122 1.354
72.0424 1.562
72.0727 1.146
72.1030 1.250
72.1333 1.510
72.1635 1.719
72.1938 1.458
72.2241 1.615
72.2544 1.406
72.2847 1.927
72.3149 1.823
72.3452 1.979
72.3755 1.562
72.4058 1.979
72.4361 2.083
72.4663 1.250
72.4966 2.031
72.5269 1.823
72.5572 2.083
72.5874 0.990
72.6177 1.667
72.6480 1.406
72.6783 1.302
72.7086 1.354
72.7388 1.562
72.7691 1.510
72.7994 1.615
72.8297 1.250
72.8600 1.250
72.8902 1.250
72.9205 0.781
72.9508 1.198
72.9811 1.146
73.0113 1.146
73.0416 1.302
73.0719 0.990
73.1022 1.146
73.1325 1.875
73.1627 1.250
73.1930 1.302
73.2233 1.250
73.2536 1.250
73.2839 1.250
73.3141 0.781
73.3444 1.042
73.3747 1.458
73.4050 0.729
73.4353 1.042
73.4655 1.146
73.4958 1.198
73.5261 1.094
73.5564 1.302
73.5866 1.094
73.6169 1.250
73.6472 0.781
73.6775 0.729
73.7078 0.990
73.7380 1.302
73.7683 1.302
73.7986 0.781
73.8289 1.302
73.8592 1.354
73.8894 0.729
73.9197 0.937
73.9500 1.615
73.9803 1.146
74.0105 0.885
74.0408 0.677
74.0711 0.937
74.1014 0.990
74.1317 0.990
74.1619 1.146
74.1922 1.042
74.2225 1.198
74.2528 1.458
74.2831 1.302
74.3133 0.833
74.3436 1.198
74.3739 1.094
74.4042 0.885
74.4344 0.729
74.4647 1.250
74.4950 1.042
74.5253 1.250
74.5556 1.146
74.5858 1.094
74.6161 1.198
74.6464 1.198
74.6767 1.042
74.7070 1.406
74.7372 1.146
74.7675 1.094
74.7978 0.990
74.8281 0.781
74.8583 1.198
74.8886 0.729
74.9189 1.094
74.9492 1.198
74.9795 1.094
75.0097 1.042
75.0400 1.198
75.0703 1.406
75.1006 0.990
75.1309 1.302
75.1611 1.042
75.1914 0.990
75.2217 1.406
75.2520 1.250
75.2822 0.990
75.3125 0.990
75.3428 1.198
75.3731 1.042
75.4034 1.302
75.4336 0.937
75.4639 1.302
75.4942 0.990
75.5245 1.094
75.5548 1.094
75.5850 0.885
75.6153 0.937
75.6456 1.146
75.6759 0.781
75.7061 1.094
75.7364 1.198
75.7667 1.198
75.7970 0.885
75.8273 1.094
75.8575 0.729
75.8878 1.562
75.9181 1.198
75.9484 0.833
75.9787 1.146
76.0089 1.094
76.0392 1.302
76.0695 1.458
76.0998 1.823
76.1301 1.406
76.1603 1.198
76.1906 1.562
76.2209 1.406
76.2512 1.198
76.2814 1.562
76.3117 1.562
76.3420 1.198
76.3723 1.615
76.4026 1.146
76.4328 1.354
76.4631 0.937
76.4934 1.615
76.5237 1.615
76.5540 1.354
76.5842 2.135
76.6145 1.615
76.6448 1.771
76.6751 1.302
76.7053 1.875
76.7356 1.510
76.7659 1.510
76.7962 1.667
76.8265 1.667
76.8567 2.187
76.8870 1.510
76.9173 2.031
76.9476 1.979
76.9779 1.615
77.0081 1.458
77.0384 1.667
77.0687 1.562
77.0990 1.458
77.1292 1.979
77.1595 1.823
77.1898 1.771
77.2201 2.135
77.2504 1.198
77.2806 1.094
77.3109 1.667
77.3412 1.562
77.3715 1.094
77.4018 1.927
77.4320 1.458
77.4623 1.146
77.4926 1.302
77.5229 0.990
77.5531 1.146
77.5834 1.042
77.6137 1.354
77.6440 1.146
77.6743 1.042
77.7045 1.354
77.7348 0.729
77.7651 1.562
77.7954 0.937
77.8257 0.729
77.8559 0.990
77.8862 1.094
77.9165 1.510
77.9468 1.406
77.9770 0.781
78.0073 1.250
78.0376 1.146
78.0679 1.250
78.0982 0.990
78.1284 0.677
78.1587 0.833
78.1890 1.146
78.2193 1.250
78.2496 1.302
78.2798 0.833
78.3101 1.354
78.3404 1.146
78.3707 1.146
78.4009 0.990
78.4312 1.510
78.4615 1.615
78.4918 1.354
78.5221 1.146
78.5523 1.198
78.5826 0.781
78.6129 1.302
78.6432 1.250
78.6735 0.781
78.7037 0.833
78.7340 1.198
78.7643 1.094
78.7946 1.250
78.8248 1.406
78.8551 0.833
78.8854 0.937
78.9157 1.146
78.9460 1.250
78.9762 1.146
79.0065 0.781
79.0368 1.354
79.0671 0.885
79.0974 1.250
79.1276 1.094
79.1579 1.146
79.1882 1.302
79.2185 1.198
79.2488 1.146
79.2790 1.094
79.3093 0.729
79.3396 1.198
79.3699 1.094
79.4001 1.198
79.4304 1.198
79.4607 0.885
79.4910 1.198
79.5213 1.042
79.5515 0.990
79.5818 1.198
79.6121 0.885
79.6424 1.719
79.6727 1.354
79.7029 1.406
79.7332 1.094
79.7635 1.042
79.7938 0.990
79.8240 0.990
79.8543 1.250
79.8846 0.833
79.9149 1.094
79.9452 1.094
79.9754 0.990
80.0057 1.354
80.0360 0.990
80.0663 1.094
80.0966 0.729
80.1268 1.198
80.1571 1.354
80.1874 0.937
80.2177 0.937
80.2479 1.250
80.2782 0.833
80.3085 1.042
80.3388 0.573
80.3691 1.198
80.3993 1.302
80.4296 1.562
80.4599 1.615
80.4902 0.781
80.5205 1.094
80.5507 1.510
80.5810 0.990
80.6113 1.510
80.6416 1.250
80.6718 1.094
80.7021 1.042
80.7324 1.146
80.7627 1.198
80.7930 1.458
80.8232 1.042
80.8535 1.615
80.8838 0.729
80.9141 1.302
80.9444 1.146
80.9746 1.354
81.0049 1.354
81.0352 1.979
81.0655 1.510
81.0957 1.719
81.1260 1.302
81.1563 1.354
81.1866 1.771
81.2169 1.979
81.2471 1.406
81.2774 1.667
81.3077 1.562
81.3380 1.198
81.3683 1.771
81.3985 1.250
81.4288 1.354
81.4591 1.667
81.4894 1.250
81.5196 1.146
81.5499 1.094
81.5802 1.042
81.6105 1.719
81.6408 1.615
81.6710 1.458
81.7013 1.562
81.7316 1.250
81.7619 1.302
81.7922 1.250
81.8224 1.250
81.8527 1.354
81.8830 1.458
81.9133 1.146
81.9436 0.990
81.9738 1.094
82.0041 0.833
82.0344 0.937
82.0647 1.198
82.0949 1.302
82.1252 0.781
82.1555 1.094
82.1858 1.146
82.2161 1.146
82.2463 1.198
82.2766 0.885
82.3069 1.250
82.3372 0.677
82.3675 1.146
82.3977 1.198
82.4280 0.469
82.4583 1.198
82.4886 0.729
82.5188 1.042
82.5491 1.250
82.5794 1.042
82.6097 1.302
82.6400 0.729
82.6702 0.885
82.7005 0.885
82.7308 1.510
82.7611 1.094
82.7914 1.302
82.8216 0.729
82.8519 1.198
82.8822 0.573
82.9125 1.094
82.9427 1.146
82.9730 0.833
83.0033 0.885
83.0336 1.250
83.0639 1.198
83.0941 1.198
83.1244 1.198
83.1547 1.458
83.1850 1.198
83.2153 0.833
83.2455 1.406
83.2758 0.833
83.3061 0.833
83.3364 1.458
83.3666 1.042
83.3969 1.146
83.4272 1.250
83.4575 1.042
83.4878 0.885
83.5180 1.042
83.5483 1.146
83.5786 1.354
83.6089 1.198
83.6392 1.042
83.6694 1.146
83.6997 1.302
83.7300 0.729
83.7603 1.406
83.7905 1.042
83.8208 1.094
83.8511 1.198
83.8814 1.354
83.9117 1.094
83.9419 0.990
83.9722 1.042
84.0025 1.094
84.0328 0.990
84.0631 0.885
84.0933 0.677
84.1236 0.990
84.1539 1.042
84.1842 0.937
84.2144 0.729
84.2447 0.469
84.2750 0.885
84.3053 1.094
84.3356 1.198
84.3658 0.729
84.3961 0.937
84.4264 0.781
84.4567 1.250
84.4870 0.885
84.5172 0.677
84.5475 1.146
84.5778 0.677
84.6081 1.198
84.6383 0.990
84.6686 1.146
84.6989 0.573
84.7292 1.042
84.7595 1.406
84.7897 0.937
84.8200 0.885
84.8503 0.781
84.8806 1.302
84.9109 1.198
84.9411 0.677
84.9714 0.937
85.0017 1.146
85.0320 1.094
85.0623 0.729
85.0925 0.729
85.1228 0.781
85.1531 0.677
85.1834 1.042
85.2136 0.469
85.2439 1.094
85.2742 0.781
85.3045 0.990
85.3348 0.781
85.3650 0.990
85.3953 1.198
85.4256 1.198
85.4559 0.937
85.4862 0.729
85.5164 1.458
85.5467 1.198
85.5770 1.094
85.6073 0.990
85.6375 1.042
85.6678 0.990
85.6981 1.094
85.7284 0.729
85.7587 0.729
85.7889 1.354
85.8192 1.302
85.8495 0.833
85.8798 1.250
85.9101 0.990
85.9403 0.990
85.9706 1.042
86.0009 0.990
86.0312 1.094
86.0614 1.562
86.0917 1.250
86.1220 0.729
86.1523 0.990
86.1826 1.250
86.2128 0.937
86.2431 1.094
86.2734 1.250
86.3037 1.406
86.3340 1.198
86.3642 0.729
86.3945 1.094
86.4248 1.146
86.4551 1.302
86.4853 0.781
86.5156 1.042
86.5459 1.198
86.5762 0.937
86.6065 1.354
86.6367 1.406
86.6670 1.094
86.6973 1.094
86.7276 1.094
86.7579 1.094
86.7881 1.094
86.8184 0.937
86.8487 1.042
86.8790 1.198
86.9092 0.937
86.9395 0.937
86.9698 0.885
87.0001 1.042
87.0304 0.885
87.0606 0.885
87.0909 1.146
87.1212 1.302
87.1515 1.146
87.1818 1.146
87.2120 0.990
87.2423 1.406
87.2726 1.354
87.3029 0.573
87.3331 1.406
87.3634 0.990
87.3937 0.937
87.4240 1.354
87.4543 0.937
87.4845 1.094
87.5148 1.146
87.5451 1.146
87.5754 1.198
87.6057 0.937
87.6359 1.146
87.6662 1.198
87.6965 1.406
87.7268 1.198
87.7571 0.885
87.7873 1.562
87.8176 1.094
87.8479 0.729
87.8782 0.990
87.9084 1.146
87.9387 1.354
87.9690 1.094
87.9993 1.198
88.0296 1.302
88.0598 0.885
88.0901 0.677
88.1204 1.146
88.1507 0.937
88.1810 1.250
88.2112 1.667
88.2415 1.250
88.2718 0.729
88.3021 0.833
88.3323 1.198
88.3626 1.302
88.3929 1.406
88.4232 1.198
88.4535 1.406
88.4837 1.198
88.5140 1.146
88.5443 1.198
88.5746 1.719
88.6049 1.198
88.6351 1.562
88.6654 1.406
88.6957 1.354
88.7260 2.031
88.7562 1.667
88.7865 1.198
88.8168 1.823
88.8471 1.406
88.8774 1.198
88.9076 1.406
88.9379 1.302
88.9682 1.771
88.9985 1.094
89.0288 1.354
89.0590 1.667
89.0893 1.562
89.1196 1.354
89.1499 1.979
89.1801 1.667
89.2104 1.979
89.2407 1.510
89.2710 2.240
89.3013 2.812
89.3315 2.344
89.3618 2.083
89.3921 2.292
89.4224 2.604
89.4527 2.187
89.4829 1.979
89.5132 2.500
89.5435 3.490
89.5738 2.708
89.6040 2.708
89.6343 2.135
89.6646 2.344
89.6949 1.979
89.7252 2.552
89.7554 2.187
89.7857 2.240
89.8160 1.771
89.8463 1.510
89.8766 1.823
89.9068 2.448
89.9371 1.771
89.9674 1.667
89.9977 1.719
90.0279 1.406
90.0582 1.979
90.0885 1.458
90.1188 1.667
90.1491 1.562
90.1793 1.458
90.2096 1.042
90.2399 1.146
90.2702 1.198
90.3005 1.979
90.3307 0.937
90.3610 1.250
90.3913 1.667
90.4216 1.667
90.4518 1.302
90.4821 1.354
90.5124 1.458
90.5427 1.146
90.5730 1.094
90.6032 0.937
90.6335 1.094
90.6638 1.250
90.6941 1.927
90.7244 1.198
90.7546 1.302
90.7849 1.042
90.8152 1.458
90.8455 0.990
90.8758 0.885
90.9060 1.198
90.9363 0.990
90.9666 1.354
90.9969 1.406
91.0271 0.885
91.0574 1.094
91.0877 0.833
91.1180 0.781
91.1483 0.990
91.1785 1.250
91.2088 0.885
91.2391 1.146
91.2694 1.146
91.2997 1.250
91.3299 0.885
91.3602 1.146
91.3905 0.990
91.4208 1.302
91.4510 0.937
91.4813 1.042
91.5116 1.146
91.5419 0.885
91.5722 1.510
91.6024 0.885
91.6327 1.198
91.6630 1.406
91.6933 0.781
91.7236 1.042
91.7538 1.250
91.7841 0.885
91.8144 1.094
91.8447 1.510
91.8749 1.302
91.9052 1.667
91.9355 1.979
91.9658 1.302
91.9961 1.510
92.0263 1.250
92.0566 1.250
92.0869 1.354
92.1172 1.250
92.1475 1.354
92.1777 1.667
92.2080 1.406
92.2383 1.562
92.2686 1.250
92.2988 1.510
92.3291 1.354
92.3594 0.990
92.3897 1.302
92.4200 1.510
92.4502 1.458
92.4805 1.458
92.5108 1.562
92.5411 1.406
92.5714 1.406
92.6016 1.198
92.6319 1.562
92.6622 2.083
92.6925 1.667
92.7227 1.406
92.7530 1.771
92.7833 1.927
92.8136 1.510
92.8439 1.406
92.8741 1.458
92.9044 1.458
92.9347 1.719
92.9650 1.927
92.9953 1.458
93.0255 1.719
93.0558 1.667
93.0861 1.458
93.1164 1.458
93.1466 1.719
93.1769 0.885
93.2072 1.406
93.2375 1.042
93.2678 1.458
93.2980 1.094
93.3283 1.562
93.3586 1.146
93.3889 1.458
93.4192 1.302
93.4494 1.042
93.4797 0.937
93.5100 1.667
93.5403 1.198
93.5706 1.146
93.6008 0.990
93.6311 1.094
93.6614 0.937
93.6917 1.198
93.7219 0.937
93.7522 1.354
93.7825 1.146
93.8128 1.615
93.8431 1.250
93.8733 1.198
93.9036 1.094
93.9339 1.042
93.9642 1.198
93.9945 0.729
94.0247 1.719
94.0550 1.667
94.0853 1.562
94.1156 1.250
94.1458 1.198
94.1761 1.094
94.2064 0.781
94.2367 1.250
94.2670 1.562
94.2972 1.146
94.3275 1.458
94.3578 1.510
94.3881 1.719
94.4184 1.667
94.4486 1.667
94.4789 1.302
94.5092 1.719
94.5395 1.615
94.5697 1.458
94.6000 1.875
94.6303 1.719
94.6606 1.719
94.6909 1.302
94.7211 1.979
94.7514 1.198
94.7817 1.562
94.8120 2.031
94.8423 1.823
94.8725 2.240
94.9028 1.823
94.9331 2.135
94.9634 1.823
94.9936 1.771
95.0239 2.240
95.0542 2.031
95.0845 2.240
95.1148 2.344
95.1450 2.240
95.1753 2.760
95.2056 3.073
95.2359 2.240
95.2662 2.552
95.2964 2.344
95.3267 1.979
95.3570 2.135
95.3873 1.927
95.4175 2.344
95.4478 2.292
95.4781 2.240
95.5084 2.240
95.5387 2.344
95.5689 1.979
95.5992 2.292
95.6295 1.927
95.6598 1.719
95.6901 1.875
95.7203 1.458
95.7506 1.146
95.7809 1.719
95.8112 1.406
95.8414 1.615
95.8717 1.771
95.9020 1.510
95.9323 1.406
95.9626 1.562
95.9928 1.458
96.0231 1.302
96.0534 1.354
96.0837 1.250
96.1140 1.771
96.1442 1.250
96.1745 1.510
96.2048 1.510
96.2351 1.458
96.2653 0.833
96.2956 0.781
96.3259 1.198
96.3562 1.094
96.3865 1.302
96.4167 1.094
96.4470 1.250
96.4773 1.354
96.5076 1.146
96.5379 0.573
96.5681 0.990
96.5984 0.781
96.6287 1.094
96.6590 1.615
96.6893 1.562
96.7195 1.146
96.7498 1.250
96.7801 1.354
96.8104 0.937
96.8406 1.094
96.8709 1.042
96.9012 1.146
96.9315 0.729
96.9618 1.771
96.9920 1.250
97.0223 1.094
97.0526 1.250
97.0829 1.719
97.1132 0.937
97.1434 0.990
97.1737 1.667
97.2040 0.885
97.2343 0.781
97.2645 0.990
97.2948 1.198
97.3251 1.042
97.3554 1.146
97.3857 1.146
97.4159 1.615
97.4462 1.250
97.4765 1.458
97.5068 1.302
97.5371 0.990
97.5673 1.302
97.5976 1.667
97.6279 1.562
97.6582 0.937
97.6884 1.042
97.7187 1.458
97.7490 1.094
97.7793 1.042
97.8096 1.406
97.8398 1.458
97.8701 1.042
97.9004 1.302
97.9307 1.094
97.9610 1.354
97.9912 0.937
98.0215 1.667
98.0518 1.562
98.0821 1.094
98.1123 1.510
98.1426 0.937
98.1729 1.562
98.2032 1.458
98.2335 1.615
98.2637 1.927
98.2940 1.354
98.3243 2.292
98.3546 2.135
98.3849 1.823
98.4151 1.615
98.4454 1.458
98.4757 1.875
98.5060 1.198
98.5362 2.031
98.5665 1.771
98.5968 1.875
98.6271 2.500
98.6574 1.302
98.6876 2.292
98.7179 1.823
98.7482 1.510
98.7785 1.615
98.8088 1.719
98.8390 1.458
98.8693 2.083
98.8996 1.771
98.9299 2.031
98.9601 1.615
98.9904 0.990
99.0207 1.094
99.0510 1.562
99.0813 1.667
99.1115 1.302
99.1418 1.927
99.1721 0.833
99.2024 1.510
99.2327 0.781
99.2629 0.833
99.2932 1.458
99.3235 1.302
99.3538 1.250
99.3841 1.406
99.4143 1.302
99.4446 1.354
99.4749 1.094
99.5052 0.990
99.5354 0.833
99.5657 1.094
99.5960 1.458
99.6263 1.562
99.6566 1.146
99.6868 0.781
99.7171 1.615
99.7474 0.937
99.7777 1.146
99.8080 0.885
99.8382 1.302
99.8685 1.354
99.8988 0.990
99.9291 0.833
99.9593 0.990
99.9896 1.198
100.0199 1.406
100.0502 1.042
100.0805 0.885
100.1107 1.406
100.1410 0.990
100.1713 1.042
100.2016 1.146
100.2319 1.302
100.2621 1.146
100.2924 0.573
100.3227 0.781
100.3530 1.406
100.3832 0.990
100.4135 1.823
100.4438 1.094
100.4741 0.885
100.5044 1.198
100.5346 1.042
100.5649 1.250
100.5952 0.937
100.6255 1.198
100.6558 1.302
100.6860 1.146
100.7163 0.990
100.7466 1.042
100.7769 1.094
100.8071 1.146
100.8374 1.198
100.8677 0.885
100.8980 0.990
100.9283 1.042
100.9585 1.250
100.9888 1.406
101.0191 1.302
101.0494 1.146
101.0797 1.042
101.1099 0.937
101.1402 0.937
101.1705 1.042
101.2008 1.146
101.2310 0.937
101.2613 1.198
101.2916 0.781
101.3219 1.302
101.3522 1.302
101.3824 1.146
101.4127 0.729
101.4430 1.354
101.4733 1.354
101.5036 0.937
101.5338 1.510
101.5641 1.094
101.5944 0.833
101.6247 1.302
101.6549 1.510
101.6852 1.146
101.7155 1.354
101.7458 1.250
101.7761 0.937
101.8063 0.937
101.8366 1.198
101.8669 1.458
101.8972 1.458
101.9275 1.354
101.9577 1.354
101.9880 0.990
102.0183 1.719
102.0486 1.458
102.0788 1.458
102.1091 1.250
102.1394 1.094
102.1697 1.354
102.2000 1.354
102.2302 0.990
102.2605 1.146
102.2908 0.937
102.3211 1.302
102.3514 1.615
102.3816 1.771
102.4119 1.458
102.4422 1.354
102.4725 1.979
102.5028 1.302
102.5330 1.354
102.5633 1.406
102.5936 1.823
102.6239 1.458
102.6541 2.187
102.6844 2.083
102.7147 1.458
102.7450 1.875
102.7753 1.354
102.8055 1.875
102.8358 1.510
102.8661 1.302
102.8964 1.458
102.9267 0.990
102.9569 1.198
102.9872 1.875
103.0175 1.562
103.0478 1.302
103.0780 1.979
103.1083 2.396
103.1386 1.719
103.1689 1.354
103.1992 1.562
103.2294 1.719
103.2597 1.771
103.2900 1.927
103.3203 1.875
103.3506 1.406
103.3808 1.719
103.4111 1.562
103.4414 1.927
103.4717 1.927
103.5019 2.240
103.5322 1.615
103.5625 1.823
103.5928 2.604
103.6231 1.615
103.6533 1.667
103.6836 1.823
103.7139 1.979
103.7442 1.979
103.7745 2.240
103.8047 1.719
103.8350 1.562
103.8653 2.240
103.8956 1.979
103.9258 1.979
103.9561 2.187
103.9864 2.917
104.0167 2.500
104.0470 2.448
104.0772 1.615
104.1075 2.396
104.1378 2.500
104.1681 2.083
104.1984 1.823
104.2286 1.667
104.2589 1.719
104.2892 1.875
104.3195 2.656
104.3497 2.552
104.3800 2.292
104.4103 1.458
104.4406 1.979
104.4709 2.031
104.5011 1.875
104.5314 1.875
104.5617 2.083
104.5920 2.240
104.6223 1.302
104.6525 1.510
104.6828 1.615
104.7131 1.302
104.7434 1.406
104.7736 0.885
104.8039 1.510
104.8342 1.042
104.8645 1.667
104.8948 1.562
104.9250 1.771
104.9553 1.146
104.9856 1.146
105.0159 1.354
105.0462 0.885
105.0764 1.510
105.1067 1.198
105.1370 1.146
105.1673 1.302
105.1975 1.615
105.2278 0.937
105.2581 1.458
105.2884 1.562
105.3187 1.406
105.3489 1.302
105.3792 0.990
105.4095 1.198
105.4398 1.094
105.4701 1.406
105.5003 1.094
105.5306 0.990
105.5609 1.302
105.5912 1.354
105.6215 0.781
105.6517 0.990
105.6820 1.146
105.7123 1.094
105.7426 1.042
105.7728 1.250
105.8031 0.885
105.8334 1.094
105.8637 1.823
105.8940 0.990
105.9242 1.458
105.9545 1.094
105.9848 0.729
106.0151 1.302
106.0454 1.198
106.0756 1.406
106.1059 1.198
106.1362 1.042
106.1665 1.354
106.1967 1.250
106.2270 1.354
106.2573 1.042
106.2876 1.406
106.3179 1.042
106.3481 0.781
106.3784 1.302
106.4087 1.094
106.4390 1.042
106.4693 1.250
106.4995 1.615
106.5298 0.937
106.5601 0.990
106.5904 1.146
106.6206 1.042
106.6509 1.094
106.6812 0.990
106.7115 1.302
106.7418 0.937
106.7720 1.146
106.8023 0.781
106.8326 0.990
106.8629 1.458
106.8932 1.406
106.9234 0.885
106.9537 1.250
106.9840 1.094
107.0143 1.146
107.0445 1.302
107.0748 1.094
107.1051 1.042
107.1354 0.885
107.1657 0.729
107.1959 1.406
107.2262 1.250
107.2565 1.302
107.2868 1.094
107.3171 1.458
107.3473 0.990
107.3776 0.990
107.4079 1.406
107.4382 1.458
107.4684 0.937
107.4987 1.198
107.5290 1.250
107.5593 1.198
107.5896 1.042
107.6198 0.729
107.6501 1.146
107.6804 1.302
107.7107 1.198
107.7410 1.354
107.7712 1.458
107.8015 0.885
107.8318 1.198
107.8621 1.302
107.8923 1.302
107.9226 0.781
107.9529 1.250
107.9832 0.885
108.0135 0.990
108.0437 1.042
108.0740 1.250
108.1043 0.833
108.1346 1.250
108.1649 1.250
108.1951 0.937
108.2254 1.198
108.2557 0.937
108.2860 1.094
108.3163 1.354
108.3465 1.250
108.3768 1.198
108.4071 0.885
108.4374 1.042
108.4676 1.094
108.4979 1.146
108.5282 1.198
108.5585 1.510
108.5888 1.771
108.6190 1.146
108.6493 1.406
108.6796 1.719
108.7099 1.302
108.7402 1.250
108.7704 1.667
108.8007 0.937
108.8310 1.250
108.8613 1.146
108.8915 1.094
108.9218 1.198
108.9521 0.937
108.9824 0.990
109.0127 1.198
109.0429 1.458
109.0732 1.875
109.1035 1.146
109.1338 0.833
109.1641 0.990
109.1943 1.406
109.2246 1.198
109.2549 1.302
109.2852 1.198
109.3154 1.302
109.3457 1.146
109.3760 1.615
109.4063 1.302
109.4366 1.198
109.4668 1.406
109.4971 1.458
109.5274 1.562
109.5577 1.302
109.5880 1.354
109.6182 0.885
109.6485 1.458
109.6788 1.406
109.7091 1.667
109.7393 1.198
109.7696 1.406
109.7999 1.406
109.8302 1.354
109.8605 1.510
109.8907 1.771
109.9210 1.458
109.9513 1.198
109.9816 1.615
110.0119 1.406
110.0421 1.667
110.0724 1.406
110.1027 1.458
110.1330 1.615
110.1632 1.302
110.1935 1.354
110.2238 1.562
110.2541 1.823
110.2844 1.615
110.3146 1.458
110.3449 2.240
110.3752 1.823
110.4055 1.562
110.4358 1.198
110.4660 1.406
110.4963 1.458
110.5266 1.510
110.5569 2.083
110.5871 1.615
110.6174 1.406
110.6477 1.615
110.6780 1.719
110.7083 1.302
110.7385 1.458
110.7688 1.250
110.7991 1.354
110.8294 1.094
110.8597 1.510
110.8899 1.198
110.9202 1.146
110.9505 1.667
110.9808 0.729
111.0110 1.562
111.0413 1.146
111.0716 1.146
111.1019 1.406
111.1322 1.875
111.1624 1.510
111.1927 1.510
111.2230 1.562
111.2533 1.250
111.2836 1.562
111.3138 1.042
111.3441 1.146
111.3744 1.615
111.4047 0.990
111.4350 1.094
111.4652 1.354
111.4955 1.250
111.5258 1.250
111.5561 1.198
111.5863 1.406
111.6166 1.823
111.6469 0.833
111.6772 1.406
111.7075 1.458
111.7377 1.354
111.7680 1.042
111.7983 0.833
111.8286 1.146
111.8589 1.250
111.8891 1.146
111.9194 1.198
111.9497 1.146
111.9800 1.354
112.0102 0.990
112.0405 1.094
112.0708 1.302
112.1011 0.990
112.1314 1.094
112.1616 1.042
112.1919 1.094
112.2222 1.146
112.2525 1.198
112.2828 1.094
112.3130 0.990
112.3433 1.146
112.3736 0.990
112.4039 1.354
112.4341 1.510
112.4644 1.250
112.4947 0.885
112.5250 0.781
112.5553 1.510
112.5855 1.094
112.6158 0.885
112.6461 1.042
112.6764 1.458
112.7067 1.562
112.7369 0.885
112.7672 1.302
112.7975 1.094
112.8278 1.094
112.8580 1.042
112.8883 1.094
112.9186 0.937
112.9489 0.990
112.9792 0.885
113.0094 1.042
113.0397 1.094
113.0700 0.833
113.1003 0.937
113.1306 1.302
113.1608 1.354
113.1911 1.042
113.2214 0.937
113.2517 0.990
113.2819 1.458
113.3122 1.146
113.3425 0.885
113.3728 1.094
113.4031 1.146
113.4333 1.042
113.4636 1.146
113.4939 1.458
113.5242 0.729
113.5545 0.990
113.5847 1.302
113.6150 1.042
113.6453 1.302
113.6756 1.458
113.7058 0.937
113.7361 1.094
113.7664 1.198
113.7967 1.042
113.8270 1.250
113.8572 0.990
113.8875 1.042
113.9178 1.094
113.9481 1.510
113.9784 1.302
114.0086 1.094
114.0389 1.250
114.0692 0.885
114.0995 1.250
114.1298 1.302
114.1600 1.458
114.1903 1.354
114.2206 1.094
114.2509 1.146
114.2811 1.250
114.3114 1.146
114.3417 1.094
114.3720 1.146
114.4023 1.146
114.4325 1.094
114.4628 1.250
114.4931 1.250
114.5234 1.146
114.5537 0.625
114.5839 1.042
114.6142 1.250
114.6445 1.094
114.6748 1.667
114.7050 1.042
114.7353 1.823
114.7656 0.990
114.7959 1.562
114.8262 1.458
114.8564 1.042
114.8867 1.562
114.9170 1.927
114.9473 1.302
114.9776 1.562
115.0078 1.094
115.0381 1.354
115.0684 1.250
115.0987 1.719
115.1289 1.198
115.1592 1.250
115.1895 1.354
115.2198 1.667
115.2501 1.354
115.2803 1.094
115.3106 1.510
115.3409 1.406
115.3712 1.667
115.4015 1.250
115.4317 1.250
115.4620 1.458
115.4923 1.458
115.5226 1.823
115.5528 1.875
115.5831 1.771
115.6134 1.927
115.6437 0.937
115.6740 1.771
115.7042 1.875
115.7345 1.458
115.7648 1.771
115.7951 1.875
115.8254 2.031
115.8556 1.719
115.8859 1.302
115.9162 2.083
115.9465 2.135
115.9767 2.031
116.0070 2.031
116.0373 1.979
116.0676 2.083
116.0979 1.927
116.1281 2.500
116.1584 2.760
116.1887 2.917
116.2190 2.708
116.2493 2.917
116.2795 1.927
116.3098 2.500
116.3401 1.927
116.3704 2.448
116.4006 2.031
116.4309 1.667
116.4612 2.187
116.4915 1.719
116.5218 1.927
116.5520 1.615
116.5823 2.292
116.6126 1.458
116.6429 2.031
116.6732 1.927
116.7034 1.667
116.7337 2.292
116.7640 2.031
116.7943 1.615
116.8245 2.135
116.8548 2.292
116.8851 1.771
116.9154 1.667
116.9457 2.292
116.9759 1.250
117.0062 1.250
117.0365 1.615
117.0668 2.344
117.0971 1.354
117.1273 1.771
117.1576 1.615
117.1879 1.510
117.2182 1.719
117.2485 1.354
117.2787 1.562
117.3090 1.615
117.3393 2.083
117.3696 1.146
117.3998 1.302
117.4301 1.198
117.4604 1.458
117.4907 1.615
117.5210 1.510
117.5512 1.562
117.5815 1.510
117.6118 1.510
117.6421 1.406
117.6724 1.615
117.7026 1.250
117.7329 1.354
117.7632 1.250
117.7935 1.302
117.8237 1.406
117.8540 1.562
117.8843 1.094
117.9146 1.406
117.9449 1.250
117.9751 1.250
118.0054 1.667
118.0357 1.406
118.0660 1.250
118.0963 1.250
118.1265 1.354
118.1568 0.885
118.1871 1.042
118.2174 1.198
118.2476 1.250
118.2779 1.094
118.3082 0.833
118.3385 1.042
118.3688 1.198
118.3990 0.781
118.4293 0.833
118.4596 1.198
118.4899 1.094
118.5202 0.990
118.5504 0.990
118.5807 1.562
118.6110 1.354
118.6413 1.510
118.6715 0.781
118.7018 0.937
118.7321 1.250
118.7624 0.885
118.7927 1.354
118.8229 0.729
118.8532 1.094
118.8835 0.885
118.9138 1.302
118.9441 1.875
118.9743 1.302
119.0046 1.042
119.0349 1.094
119.0652 1.146
119.0954 1.302
119.1257 1.146
119.1560 1.406
119.1863 1.354
119.2166 1.094
119.2468 1.094
119.2771 1.250
119.3074 0.833
119.3377 1.302
119.3680 1.094
119.3982 1.562
119.4285 1.823
119.4588 1.250
119.4891 1.250
119.5193 1.302
119.5496 1.354
119.5799 0.937
119.6102 0.885
119.6405 1.094
119.6707 1.406
119.7010 1.198
119.7313 1.146
119.7616 1.354
119.7919 1.094
119.8221 1.458
119.8524 1.042
119.8827 1.042
119.9130 1.250
119.9433 1.354
119.9735 1.302
120.0038 0.990
