'Id: "" Comment: "" Operator: "Lab Manager" Anode: "Cu" Scantype: "Locked Coupled" TimePerStep: "19.2" X: "9999" Y: "9999" Z: "9999" 
10.0015 3.646
10.0318 4.010
10.0620 3.698
10.0923 3.750
10.1226 3.750
10.1529 3.646
10.1832 3.594
10.2134 3.542
10.2437 4.687
10.2740 4.062
10.3043 3.698
10.3346 3.229
10.3648 4.583
10.3951 4.635
10.4254 3.333
10.4557 3.542
10.4859 3.177
10.5162 3.698
10.5465 4.115
10.5768 3.281
10.6071 3.437
10.6373 3.437
10.6676 4.896
10.6979 3.021
10.7282 3.854
10.7585 3.750
10.7887 3.437
10.8190 3.490
10.8493 3.177
10.8796 3.646
10.9098 4.167
10.9401 3.802
10.9704 3.646
11.0007 2.917
11.0310 4.010
11.0612 3.073
11.0915 3.490
11.1218 3.490
11.1521 4.479
11.1824 3.385
11.2126 3.698
11.2429 3.906
11.2732 5.573
11.3035 3.125
11.3337 5.052
11.3640 3.750
11.3943 3.802
11.4246 3.906
11.4549 4.219
11.4851 3.021
11.5154 4.115
11.5457 3.490
11.5760 3.906
11.6063 4.062
11.6365 3.385
11.6668 4.167
11.6971 3.854
11.7274 4.687
11.7577 3.333
11.7879 4.219
11.8182 3.333
11.8485 3.437
11.8788 4.062
11.9090 3.854
11.9393 3.333
11.9696 3.177
11.9999 3.333
12.0302 3.333
12.0604 3.490
12.0907 3.437
12.1210 2.760
12.1513 3.281
12.1816 3.073
12.2118 3.021
12.2421 2.917
12.2724 3.646
12.3027 3.281
12.3329 3.177
12.3632 4.115
12.3935 2.552
12.4238 3.750
12.4541 3.802
12.4843 4.271
12.5146 3.542
12.5449 3.437
12.5752 4.687
12.6055 3.229
12.6357 3.333
12.6660 3.333
12.6963 3.542
12.7266 4.323
12.7568 3.698
12.7871 2.865
12.8174 2.865
12.8477 3.177
12.8780 4.062
12.9082 2.865
12.9385 3.177
12.9688 3.906
12.9991 2.760
13.0294 2.865
13.0596 3.646
13.0899 2.865
13.1202 2.865
13.1505 2.812
13.1807 3.333
13.2110 2.865
13.2413 3.281
13.2716 2.760
13.3019 3.646
13.3321 3.385
13.3624 2.760
13.3927 2.865
13.4230 3.281
13.4533 3.229
13.4835 2.708
13.5138 2.240
13.5441 2.708
13.5744 3.385
13.6046 2.760
13.6349 2.344
13.6652 2.917
13.6955 2.760
13.7258 2.917
13.7560 2.500
13.7863 3.542
13.8166 2.760
13.8469 2.917
13.8772 3.333
13.9074 3.229
13.9377 2.865
13.9680 2.604
13.9983 3.333
14.0285 3.437
14.0588 1.875
14.0891 2.083
14.1194 2.969
14.1497 2.812
14.1799 3.021
14.2102 3.229
14.2405 2.917
14.2708 2.760
14.3011 3.542
14.3313 2.396
14.3616 3.281
14.3919 2.396
14.4222 2.865
14.4524 2.396
14.4827 2.760
14.5130 3.125
14.5433 3.437
14.5736 2.604
14.6038 2.448
14.6341 3.385
14.6644 3.698
14.6947 3.021
14.7250 3.385
14.7552 3.385
14.7855 3.698
14.8158 2.917
14.8461 3.385
14.8764 3.021
14.9066 2.812
14.9369 3.802
14.9672 2.865
14.9975 2.917
15.0277 2.917
15.0580 2.969
15.0883 3.594
15.1186 3.125
15.1489 3.229
15.1791 2.865
15.2094 3.281
15.2397 3.177
15.2700 3.229
15.3003 2.656
15.3305 2.604
15.3608 3.281
15.3911 3.490
15.4214 2.969
15.4516 2.865
15.4819 3.281
15.5122 2.760
15.5425 3.385
15.5728 3.125
15.6030 3.698
15.6333 3.073
15.6636 2.969
15.6939 3.437
15.7242 2.083
15.7544 2.448
15.7847 2.760
15.8150 2.917
15.8453 3.281
15.8755 2.812
15.9058 2.292
15.9361 2.552
15.9664 2.552
15.9967 2.708
16.0269 2.240
16.0572 2.812
16.0875 2.604
16.1178 3.021
16.1481 3.125
16.1783 3.333
16.2086 2.500
16.2389 3.021
16.2692 2.812
16.2994 2.865
16.3297 2.604
16.3600 3.333
16.3903 2.656
16.4206 2.292
16.4508 3.125
16.4811 3.229
16.5114 4.010
16.5417 2.552
16.5720 2.969
16.6022 3.177
16.6325 2.708
16.6628 3.177
16.6931 3.437
16.7233 2.865
16.7536 3.437
16.7839 3.594
16.8142 2.812
16.8445 2.865
16.8747 3.333
16.9050 2.812
16.9353 3.594
16.9656 2.760
16.9959 3.385
17.0261 3.073
17.0564 3.021
17.0867 2.344
17.1170 3.281
17.1472 2.812
17.1775 3.125
17.2078 3.229
17.2381 3.646
17.2684 2.969
17.2986 2.344
17.3289 3.281
17.3592 2.344
17.3895 3.542
17.4198 2.760
17.4500 2.812
17.4803 3.802
17.5106 3.021
17.5409 2.344
17.5712 3.021
17.6014 3.385
17.6317 2.812
17.6620 3.177
17.6923 2.969
17.7225 2.865
17.7528 2.812
17.7831 2.240
17.8134 3.177
17.8437 3.542
17.8739 3.177
17.9042 2.760
17.9345 3.073
17.9648 2.917
17.9951 3.021
18.0253 2.500
18.0556 2.604
18.0859 2.812
18.1162 2.604
18.1464 3.281
18.1767 3.281
18.2070 2.865
18.2373 2.396
18.2676 3.385
18.2978 2.917
18.3281 2.604
18.3584 3.333
18.3887 2.292
18.4190 3.542
18.4492 2.865
18.4795 3.802
18.5098 3.333
18.5401 3.281
18.5703 2.344
18.6006 2.865
18.6309 3.073
18.6612 2.500
18.6915 2.969
18.7217 2.552
18.7520 2.969
18.7823 2.187
18.8126 3.229
18.8429 3.854
18.8731 3.177
18.9034 3.750
18.9337 2.500
18.9640 2.500
18.9942 2.917
19.0245 2.812
19.0548 2.760
19.0851 3.594
19.1154 3.177
19.1456 2.500
19.1759 3.073
19.2062 3.073
19.2365 2.500
19.2668 2.656
19.2970 2.760
19.3273 3.906
19.3576 3.490
19.3879 3.229
19.4181 2.969
19.4484 2.656
19.4787 2.500
19.5090 3.437
19.5393 3.021
19.5695 3.229
19.5998 2.760
19.6301 2.500
19.6604 3.281
19.6907 3.177
19.7209 2.760
19.7512 2.396
19.7815 2.865
19.8118 3.125
19.8420 2.604
19.8723 2.552
19.9026 2.812
19.9329 3.229
19.9632 2.448
19.9934 2.031
20.0237 4.062
20.0540 2.760
20.0843 3.281
20.1146 2.760
20.1448 1.927
20.1751 3.229
20.2054 3.646
20.2357 3.437
20.2659 2.865
20.2962 2.865
20.3265 2.917
20.3568 2.656
20.3871 3.437
20.4173 2.917
20.4476 3.021
20.4779 1.927
20.5082 3.385
20.5385 2.760
20.5687 2.396
20.5990 3.125
20.6293 2.865
20.6596 2.656
20.6899 3.021
20.7201 2.969
20.7504 2.969
20.7807 2.604
20.8110 3.177
20.8412 2.292
20.8715 2.552
20.9018 2.865
20.9321 3.073
20.9624 3.125
20.9926 2.344
21.0229 2.917
21.0532 3.177
21.0835 2.031
21.1138 2.604
21.1440 2.812
21.1743 3.073
21.2046 2.812
21.2349 1.979
21.2651 2.500
21.2954 1.979
21.3257 2.448
21.3560 1.927
21.3863 2.969
21.4165 3.073
21.4468 2.708
21.4771 2.656
21.5074 2.760
21.5377 3.385
21.5679 2.656
21.5982 2.708
21.6285 3.177
21.6588 3.073
21.6890 2.448
21.7193 3.281
21.7496 2.760
21.7799 2.656
21.8102 2.917
21.8404 2.240
21.8707 3.021
21.9010 2.969
21.9313 3.021
21.9616 3.385
21.9918 2.448
22.0221 2.917
22.0524 2.396
22.0827 2.812
22.1129 2.812
22.1432 2.865
22.1735 2.500
22.2038 2.865
22.2341 3.490
22.2643 3.750
22.2946 2.656
22.3249 3.229
22.3552 3.021
22.3855 2.083
22.4157 2.552
22.4460 2.240
22.4763 2.917
22.5066 2.656
22.5368 2.656
22.5671 2.865
22.5974 2.969
22.6277 3.385
22.6580 2.917
22.6882 3.229
22.7185 2.396
22.7488 3.177
22.7791 3.333
22.8094 3.177
22.8396 3.281
22.8699 2.448
22.9002 2.552
22.9305 3.542
22.9607 2.604
22.9910 2.656
23.0213 2.396
23.0516 2.865
23.0819 2.500
23.1121 2.604
23.1424 2.760
23.1727 2.292
23.2030 2.500
23.2333 2.917
23.2635 2.344
23.2938 3.281
23.3241 2.552
23.3544 2.812
23.3846 2.344
23.4149 2.500
23.4452 2.552
23.4755 2.760
23.5058 2.500
23.5360 3.073
23.5663 2.865
23.5966 2.240
23.6269 2.708
23.6572 2.708
23.6874 2.760
23.7177 2.708
23.7480 3.437
23.7783 2.604
23.8086 2.448
23.8388 3.125
23.8691 2.812
23.8994 1.875
23.9297 3.229
23.9599 2.865
23.9902 2.552
24.0205 2.708
24.0508 2.865
24.0811 2.552
24.1113 2.969
24.1416 2.917
24.1719 3.073
24.2022 2.656
24.2325 2.760
24.2627 1.875
24.2930 2.187
24.3233 3.229
24.3536 2.344
24.3838 2.187
24.4141 2.708
24.4444 2.708
24.4747 2.812
24.5050 2.917
24.5352 2.083
24.5655 2.760
24.5958 3.333
24.6261 2.969
24.6564 2.917
24.6866 2.969
24.7169 2.969
24.7472 2.552
24.7775 1.979
24.8077 2.396
24.8380 2.448
24.8683 2.812
24.8986 2.917
24.9289 3.177
24.9591 2.604
24.9894 2.708
25.0197 3.073
25.0500 2.604
25.0803 2.604
25.1105 1.875
25.1408 2.708
25.1711 3.229
25.2014 2.656
25.2316 2.760
25.2619 2.969
25.2922 2.969
25.3225 3.281
25.3528 2.292
25.3830 2.604
25.4133 2.656
25.4436 2.083
25.4739 2.396
25.5042 2.552
25.5344 2.760
25.5647 2.135
25.5950 3.125
25.6253 2.396
25.6555 2.292
25.6858 2.812
25.7161 3.177
25.7464 2.344
25.7767 2.448
25.8069 2.656
25.8372 3.490
25.8675 2.031
25.8978 2.656
25.9281 3.229
25.9583 2.969
25.9886 3.073
26.0189 2.917
26.0492 2.760
26.0794 3.125
26.1097 2.812
26.1400 2.083
26.1703 2.083
26.2006 3.333
26.2308 3.021
26.2611 2.396
26.2914 2.344
26.3217 2.760
26.3520 2.708
26.3822 2.396
26.4125 3.021
26.4428 2.812
26.4731 2.344
26.5034 3.594
26.5336 2.240
26.5639 2.604
26.5942 3.594
26.6245 3.125
26.6547 2.500
26.6850 3.073
26.7153 3.281
26.7456 2.448
26.7759 3.229
26.8061 2.500
26.8364 3.281
26.8667 2.812
26.8970 3.125
26.9273 2.865
26.9575 3.437
26.9878 3.073
27.0181 2.708
27.0484 2.187
27.0786 2.865
27.1089 3.385
27.1392 3.125
27.1695 3.125
27.1998 2.969
27.2300 3.073
27.2603 2.760
27.2906 2.969
27.3209 3.542
27.3512 3.021
27.3814 3.437
27.4117 2.448
27.4420 3.177
27.4723 3.490
27.5025 3.125
27.5328 2.812
27.5631 2.708
27.5934 3.177
27.6237 3.229
27.6539 3.385
27.6842 2.865
27.7145 2.240
27.7448 3.750
27.7751 3.229
27.8053 4.167
27.8356 3.750
27.8659 3.281
27.8962 3.385
27.9264 2.448
27.9567 3.750
27.9870 2.708
28.0173 3.229
28.0476 2.917
28.0778 2.708
28.1081 4.010
28.1384 2.969
28.1687 2.969
28.1990 2.760
28.2292 3.802
28.2595 3.385
28.2898 3.750
28.3201 3.594
28.3503 3.073
28.3806 3.281
28.4109 3.490
28.4412 2.917
28.4715 3.021
28.5017 3.385
28.5320 3.698
28.5623 2.396
28.5926 3.802
28.6229 3.021
28.6531 3.333
28.6834 3.646
28.7137 2.917
28.7440 3.750
28.7742 3.698
28.8045 3.021
28.8348 2.812
28.8651 2.708
28.8954 3.854
28.9256 3.021
28.9559 3.594
28.9862 3.594
29.0165 3.229
29.0468 3.646
29.0770 3.542
29.1073 2.812
29.1376 2.708
29.1679 3.385
29.1981 3.802
29.2284 3.646
29.2587 3.490
29.2890 3.750
29.3193 3.333
29.3495 3.750
29.3798 3.490
29.4101 3.177
29.4404 3.490
29.4707 3.854
29.5009 3.073
29.5312 3.490
29.5615 3.906
29.5918 4.531
29.6221 4.062
29.6523 3.333
29.6826 4.427
29.7129 4.479
29.7432 4.792
29.7734 3.906
29.8037 4.635
29.8340 3.437
29.8643 4.583
29.8946 4.010
29.9248 3.958
29.9551 4.167
29.9854 4.844
30.0157 4.479
30.0460 5.937
30.0762 4.115
30.1065 3.802
30.1368 4.115
30.1671 4.427
30.1973 5.052
30.2276 4.844
30.2579 4.740
30.2882 5.417
30.3185 4.167
30.3487 4.427
30.3790 6.146
30.4093 6.094
30.4396 5.104
30.4699 4.948
30.5001 5.208
30.5304 5.677
30.5607 5.208
30.5910 5.781
30.6212 6.719
30.6515 6.823
30.6818 5.833
30.7121 8.594
30.7424 7.031
30.7726 6.771
30.8029 7.812
30.8332 6.823
30.8635 7.917
30.8938 8.073
30.9240 7.708
30.9543 8.490
30.9846 8.646
31.0149 9.531
31.0451 11.094
31.0754 11.615
31.1057 11.719
31.1360 12.604
31.1663 11.719
31.1965 13.646
31.2268 15.417
31.2571 16.979
31.2874 19.323
31.3177 20.990
31.3479 23.750
31.3782 25.365
31.4085 31.875
31.4388 35.521
31.4690 38.385
31.4993 41.667
31.5296 50.260
31.5599 54.792
31.5902 61.823
31.6204 64.375
31.6507 63.385
31.6810 64.062
31.7113 63.646
31.7416 60.365
31.7718 55.729
31.8021 49.010
31.8324 45.781
31.8627 36.406
31.8929 31.927
31.9232 30.937
31.9535 25.833
31.9838 24.271
32.0141 20.052
32.0443 17.708
32.0746 18.646
32.1049 16.406
32.1352 13.021
32.1655 12.344
32.1957 12.656
32.2260 11.823
32.2563 10.573
32.2866 9.427
32.3169 9.062
32.3471 8.229
32.3774 7.969
32.4077 7.344
32.4380 8.906
32.4682 7.552
32.4985 7.292
32.5288 7.865
32.5591 7.240
32.5894 7.500
32.6196 7.552
32.6499 6.198
32.6802 6.719
32.7105 6.927
32.7408 7.031
32.7710 6.927
32.8013 7.240
32.8316 6.406
32.8619 6.042
32.8921 5.937
32.9224 6.823
32.9527 6.406
32.9830 5.781
33.0133 5.052
33.0435 5.833
33.0738 5.521
33.1041 5.833
33.1344 6.146
33.1647 4.948
33.1949 5.156
33.2252 6.458
33.2555 6.719
33.2858 5.312
33.3160 6.146
33.3463 5.469
33.3766 5.677
33.4069 6.198
33.4372 6.302
33.4674 6.615
33.4977 5.469
33.5280 7.083
33.5583 7.031
33.5886 6.667
33.6188 6.250
33.6491 5.469
33.6794 7.031
33.7097 7.240
33.7399 8.073
33.7702 7.604
33.8005 9.010
33.8308 8.750
33.8611 10.000
33.8913 10.417
33.9216 11.406
33.9519 12.917
33.9822 12.135
34.0125 14.375
34.0427 14.115
34.0730 16.615
34.1033 21.979
34.1336 25.000
34.1638 31.823
34.1941 37.135
34.2244 47.135
34.2547 61.354
34.2850 74.010
34.3152 79.792
34.3455 79.375
34.3758 69.635
34.4061 60.625
34.4364 49.583
34.4666 42.812
34.4969 32.760
34.5272 25.052
34.5575 22.708
34.5877 17.917
34.6180 15.833
34.6483 14.219
34.6786 13.281
34.7089 12.448
34.7391 13.177
34.7694 11.250
34.7997 10.990
34.8300 9.375
34.8603 10.000
34.8905 10.052
34.9208 8.958
34.9511 10.156
34.9814 7.812
35.0116 8.073
35.0419 10.625
35.0722 9.740
35.1025 8.906
35.1328 8.073
35.1630 9.271
35.1933 8.698
35.2236 9.896
35.2539 10.000
35.2842 11.094
35.3144 10.000
35.3447 10.417
35.3750 9.115
35.4053 11.458
35.4356 11.979
35.4658 12.344
35.4961 13.542
35.5264 14.375
35.5567 13.750
35.5869 15.885
35.6172 16.875
35.6475 18.333
35.6778 20.937
35.7081 20.781
35.7383 24.635
35.7686 25.729
35.7989 29.219
35.8292 32.917
35.8595 35.937
35.8897 40.573
35.9200 51.406
35.9503 52.448
35.9806 60.417
36.0108 71.250
36.0411 81.094
36.0714 87.500
36.1017 91.927
36.1320 102.292
36.1622 100.573
36.1925 99.740
36.2228 93.385
36.2531 87.708
36.2834 76.510
36.3136 68.021
36.3439 58.125
36.3742 53.802
36.4045 45.885
36.4347 37.083
36.4650 36.042
36.4953 30.573
36.5256 28.125
36.5559 23.333
36.5861 18.490
36.6164 18.906
36.6467 18.229
36.6770 17.240
36.7073 13.490
36.7375 14.531
36.7678 12.969
36.7981 10.937
36.8284 11.562
36.8586 10.469
36.8889 9.427
36.9192 9.375
36.9495 9.740
36.9798 8.750
37.0100 7.760
37.0403 8.802
37.0706 7.969
37.1009 7.969
37.1312 7.812
37.1614 7.083
37.1917 6.094
37.2220 6.302
37.2523 6.927
37.2825 6.510
37.3128 6.042
37.3431 5.937
37.3734 5.521
37.4037 6.146
37.4339 5.521
37.4642 4.948
37.4945 4.792
37.5248 5.052
37.5551 5.000
37.5853 4.948
37.6156 6.094
37.6459 4.740
37.6762 5.677
37.7064 3.802
37.7367 4.531
37.7670 4.687
37.7973 4.167
37.8276 3.802
37.8578 3.542
37.8881 3.802
37.9184 4.531
37.9487 3.906
37.9790 4.115
38.0092 4.375
38.0395 3.958
38.0698 3.490
38.1001 3.646
38.1304 3.542
38.1606 3.437
38.1909 3.802
38.2212 3.594
38.2515 3.177
38.2817 4.062
38.3120 3.490
38.3423 3.437
38.3726 3.698
38.4029 3.750
38.4331 2.604
38.4634 3.021
38.4937 3.698
38.5240 3.594
38.5543 3.958
38.5845 3.385
38.6148 3.021
38.6451 2.760
38.6754 2.969
38.7056 2.604
38.7359 3.958
38.7662 3.490
38.7965 3.177
38.8268 2.708
38.8570 3.125
38.8873 2.656
38.9176 3.437
38.9479 3.594
38.9782 2.760
39.0084 2.604
39.0387 1.979
39.0690 3.073
39.0993 2.083
39.1295 3.177
39.1598 2.656
39.1901 2.240
39.2204 3.437
39.2507 3.646
39.2809 3.021
39.3112 2.396
39.3415 2.396
39.3718 2.396
39.4021 2.292
39.4323 3.125
39.4626 2.760
39.4929 2.552
39.5232 3.333
39.5534 2.396
39.5837 2.760
39.6140 2.656
39.6443 2.656
39.6746 3.333
39.7048 2.865
39.7351 2.865
39.7654 3.281
39.7957 2.812
39.8260 2.031
39.8562 2.760
39.8865 2.760
39.9168 2.656
39.9471 2.135
39.9773 2.552
40.0076 3.021
40.0379 2.083
40.0682 1.979
40.0985 2.865
40.1287 2.656
40.1590 3.073
40.1893 2.396
40.2196 2.604
40.2499 2.552
40.2801 2.552
40.3104 2.292
40.3407 2.500
40.3710 1.719
40.4012 2.344
40.4315 2.552
40.4618 3.333
40.4921 2.344
40.5224 2.187
40.5526 3.021
40.5829 2.760
40.6132 2.135
40.6435 2.500
40.6738 1.979
40.7040 2.760
40.7343 2.760
40.7646 2.760
40.7949 2.708
40.8251 2.396
40.8554 2.552
40.8857 2.708
40.9160 2.240
40.9463 2.396
40.9765 1.510
41.0068 2.448
41.0371 2.187
41.0674 3.437
41.0977 1.823
41.1279 2.500
41.1582 2.344
41.1885 2.344
41.2188 2.240
41.2491 2.396
41.2793 2.187
41.3096 2.865
41.3399 2.292
41.3702 2.292
41.4004 2.031
41.4307 2.448
41.4610 2.292
41.4913 1.927
41.5216 2.135
41.5518 2.083
41.5821 2.240
41.6124 2.031
41.6427 1.771
41.6730 1.875
41.7032 2.604
41.7335 2.083
41.7638 2.031
41.7941 2.292
41.8243 1.927
41.8546 2.552
41.8849 2.187
41.9152 2.812
41.9455 2.240
41.9757 2.292
42.0060 2.083
42.0363 2.396
42.0666 2.135
42.0969 2.500
42.1271 2.187
42.1574 2.604
42.1877 1.823
42.2180 2.135
42.2482 2.812
42.2785 2.240
42.3088 2.031
42.3391 2.344
42.3694 2.240
42.3996 2.083
42.4299 2.187
42.4602 2.604
42.4905 2.083
42.5208 2.656
42.5510 2.760
42.5813 2.292
42.6116 2.135
42.6419 2.031
42.6721 2.083
42.7024 2.031
42.7327 2.031
42.7630 2.135
42.7933 2.344
42.8235 2.031
42.8538 2.396
42.8841 2.812
42.9144 2.448
42.9447 1.562
42.9749 1.979
43.0052 2.969
43.0355 1.510
43.0658 1.979
43.0960 1.771
43.1263 2.031
43.1566 2.500
43.1869 2.604
43.2172 2.396
43.2474 2.083
43.2777 2.187
43.3080 2.396
43.3383 1.979
43.3686 1.927
43.3988 2.031
43.4291 1.979
43.4594 2.187
43.4897 2.708
43.5199 1.875
43.5502 2.240
43.5805 2.448
43.6108 1.875
43.6411 1.979
43.6713 2.031
43.7016 1.927
43.7319 2.031
43.7622 2.604
43.7925 2.292
43.8227 1.823
43.8530 1.615
43.8833 2.187
43.9136 2.708
43.9439 1.875
43.9741 1.979
44.0044 2.240
44.0347 2.083
44.0650 2.135
44.0952 2.604
44.1255 2.135
44.1558 2.500
44.1861 1.927
44.2164 2.083
44.2466 2.083
44.2769 2.656
44.3072 1.927
44.3375 2.552
44.3678 2.396
44.3980 2.135
44.4283 2.187
44.4586 2.292
44.4889 1.979
44.5191 2.292
44.5494 1.719
44.5797 2.344
44.6100 1.719
44.6403 2.083
44.6705 2.865
44.7008 2.135
44.7311 2.708
44.7614 2.812
44.7917 2.656
44.8219 2.240
44.8522 2.135
44.8825 2.865
44.9128 1.927
44.9430 2.708
44.9733 2.083
45.0036 2.604
45.0339 2.500
45.0642 2.500
45.0944 2.240
45.1247 2.865
45.1550 2.448
45.1853 2.708
45.2156 2.240
45.2458 2.969
45.2761 2.344
45.3064 2.552
45.3367 2.187
45.3669 2.292
45.3972 2.396
45.4275 1.719
45.4578 2.708
45.4881 2.552
45.5183 2.396
45.5486 2.396
45.5789 3.177
45.6092 2.917
45.6395 2.083
45.6697 2.812
45.7000 1.927
45.7303 3.073
45.7606 3.542
45.7908 3.177
45.8211 2.656
45.8514 2.865
45.8817 2.760
45.9120 2.969
45.9422 2.760
45.9725 2.865
46.0028 3.021
46.0331 2.604
46.0634 2.604
46.0936 3.698
46.1239 2.552
46.1542 2.500
46.1845 3.542
46.2147 2.656
46.2450 3.177
46.2753 2.448
46.3056 3.542
46.3359 3.125
46.3661 2.969
46.3964 3.281
46.4267 2.812
46.4570 3.177
46.4873 3.125
46.5175 3.021
46.5478 3.333
46.5781 3.125
46.6084 3.073
46.6386 4.062
46.6689 4.010
46.6992 3.802
46.7295 4.167
46.7598 3.594
46.7900 4.062
46.8203 4.531
46.8506 4.427
46.8809 4.010
46.9112 4.792
46.9414 5.000
46.9717 5.625
47.0020 5.625
47.0323 6.667
47.0626 6.510
47.0928 8.385
47.1231 8.958
47.1534 9.740
47.1837 10.469
47.2139 12.187
47.2442 14.062
47.2745 14.844
47.3048 18.177
47.3351 19.167
47.3653 20.990
47.3956 20.833
47.4259 21.250
47.4562 22.240
47.4865 20.729
47.5167 20.729
47.5470 18.698
47.5773 16.719
47.6076 15.156
47.6378 14.740
47.6681 11.719
47.6984 11.562
47.7287 9.115
47.7590 7.865
47.7892 8.854
47.8195 7.812
47.8498 6.979
47.8801 5.833
47.9104 4.792
47.9406 4.948
47.9709 3.958
48.0012 4.062
48.0315 4.010
48.0617 4.010
48.0920 3.437
48.1223 4.635
48.1526 3.281
48.1829 3.594
48.2131 3.802
48.2434 3.958
48.2737 3.281
48.3040 3.073
48.3343 3.385
48.3645 3.333
48.3948 2.656
48.4251 3.125
48.4554 3.646
48.4856 4.010
48.5159 2.969
48.5462 3.177
48.5765 2.292
48.6068 2.760
48.6370 2.969
48.6673 2.448
48.6976 2.760
48.7279 2.760
48.7582 2.292
48.7884 2.135
48.8187 2.240
48.8490 1.615
48.8793 2.656
48.9095 2.240
48.9398 2.552
48.9701 2.083
49.0004 2.240
49.0307 2.448
49.0609 2.708
49.0912 2.812
49.1215 3.073
49.1518 2.187
49.1821 2.552
49.2123 2.812
49.2426 2.292
49.2729 2.969
49.3032 2.448
49.3334 2.344
49.3637 2.448
49.3940 2.448
49.4243 2.135
49.4546 1.823
49.4848 3.281
49.5151 2.240
49.5454 1.562
49.5757 2.448
49.6060 2.344
49.6362 2.135
49.6665 2.500
49.6968 2.187
49.7271 2.292
49.7574 2.344
49.7876 2.448
49.8179 2.292
49.8482 3.073
49.8785 2.135
49.9087 2.656
49.9390 3.125
49.9693 2.604
49.9996 1.771
50.0299 2.135
50.0601 1.875
50.0904 2.344
50.1207 2.812
50.1510 2.812
50.1813 1.875
50.2115 2.187
50.2418 2.396
50.2721 2.552
50.3024 2.135
50.3326 2.083
50.3629 2.187
50.3932 2.552
50.4235 2.500
50.4538 2.812
50.4840 2.187
50.5143 2.187
50.5446 2.604
50.5749 2.604
50.6052 2.604
50.6354 1.823
50.6657 2.344
50.6960 2.135
50.7263 2.135
50.7565 2.240
50.7868 1.562
50.8171 1.979
50.8474 2.448
50.8777 2.031
50.9079 1.979
50.9382 1.615
50.9685 1.823
50.9988 2.396
51.0291 1.927
51.0593 2.604
51.0896 2.344
51.1199 1.771
51.1502 1.771
51.1804 1.458
51.2107 2.135
51.2410 2.187
51.2713 2.812
51.3016 2.552
51.3318 2.656
51.3621 2.031
51.3924 2.917
51.4227 2.187
51.4530 2.396
51.4832 2.031
51.5135 2.187
51.5438 2.604
51.5741 2.240
51.6043 2.240
51.6346 2.344
51.6649 1.823
51.6952 2.552
51.7255 1.979
51.7557 2.031
51.7860 2.240
51.8163 2.448
51.8466 2.031
51.8769 2.396
51.9071 2.760
51.9374 2.604
51.9677 2.656
51.9980 2.083
52.0282 1.927
52.0585 2.187
52.0888 2.812
52.1191 2.031
52.1494 2.187
52.1796 2.448
52.2099 2.083
52.2402 1.927
52.2705 2.917
52.3008 3.229
52.3310 2.240
52.3613 2.187
52.3916 2.396
52.4219 1.927
52.4521 2.656
52.4824 2.031
52.5127 2.865
52.5430 2.187
52.5733 1.823
52.6035 2.240
52.6338 1.875
52.6641 2.396
52.6944 2.344
52.7247 1.458
52.7549 2.396
52.7852 1.823
52.8155 1.823
52.8458 2.292
52.8761 2.031
52.9063 1.979
52.9366 2.083
52.9669 2.604
52.9972 2.240
53.0274 2.604
53.0577 2.500
53.0880 2.552
53.1183 1.979
53.1486 2.135
53.1788 2.240
53.2091 1.823
53.2394 2.969
53.2697 2.240
53.3000 1.562
53.3302 2.240
53.3605 2.760
53.3908 2.031
53.4211 2.396
53.4513 2.083
53.4816 3.177
53.5119 2.240
53.5422 1.979
53.5725 2.396
53.6027 2.552
53.6330 2.292
53.6633 2.292
53.6936 1.823
53.7239 1.927
53.7541 1.823
53.7844 2.292
53.8147 1.875
53.8450 2.187
53.8752 2.344
53.9055 2.240
53.9358 2.760
53.9661 2.031
53.9964 2.552
54.0266 2.083
54.0569 2.292
54.0872 2.500
54.1175 2.187
54.1478 2.292
54.1780 2.500
54.2083 2.552
54.2386 2.500
54.2689 2.396
54.2991 2.448
54.3294 2.448
54.3597 2.708
54.3900 2.292
54.4203 2.760
54.4505 2.396
54.4808 2.500
54.5111 2.656
54.5414 2.292
54.5717 3.281
54.6019 1.927
54.6322 2.917
54.6625 3.177
54.6928 2.344
54.7230 2.656
54.7533 3.073
54.7836 2.656
54.8139 2.031
54.8442 2.969
54.8744 3.281
54.9047 2.552
54.9350 3.229
54.9653 2.240
54.9956 3.021
55.0258 2.552
55.0561 2.812
55.0864 2.240
55.1167 3.021
55.1469 3.646
55.1772 3.229
55.2075 2.083
55.2378 3.073
55.2681 2.760
55.2983 2.396
55.3286 2.708
55.3589 3.594
55.3892 2.812
55.4195 3.646
55.4497 3.594
55.4800 3.854
55.5103 3.333
55.5406 3.177
55.5709 3.229
55.6011 3.646
55.6314 4.375
55.6617 3.437
55.6920 3.854
55.7222 4.687
55.7525 5.885
55.7828 4.740
55.8131 5.104
55.8434 5.573
55.8736 5.937
55.9039 6.667
55.9342 5.937
55.9645 7.344
55.9948 7.344
56.0250 7.812
56.0553 8.073
56.0856 10.156
56.1159 8.177
56.1461 11.406
56.1764 13.125
56.2067 13.750
56.2370 15.052
56.2673 17.031
56.2975 18.073
56.3278 18.333
56.3581 22.135
56.3884 25.208
56.4187 26.250
56.4489 27.083
56.4792 28.125
56.5095 29.375
56.5398 27.552
56.5700 23.646
56.6003 23.802
56.6306 22.344
56.6609 21.042
56.6912 19.010
56.7214 15.104
56.7517 15.469
56.7820 14.167
56.8123 10.625
56.8426 11.719
56.8728 10.677
56.9031 9.792
56.9334 7.760
56.9637 8.646
56.9939 6.979
57.0242 6.615
57.0545 7.396
57.0848 5.990
57.1151 6.406
57.1453 4.635
57.1756 6.094
57.2059 4.115
57.2362 5.365
57.2665 4.219
57.2967 4.896
57.3270 4.375
57.3573 4.375
57.3876 3.437
57.4178 3.333
57.4481 3.698
57.4784 3.750
57.5087 3.542
57.5390 3.437
57.5692 2.656
57.5995 3.073
57.6298 3.437
57.6601 3.333
57.6904 2.292
57.7206 2.812
57.7509 3.333
57.7812 3.542
57.8115 3.854
57.8417 2.917
57.8720 2.760
57.9023 3.333
57.9326 3.021
57.9629 2.240
57.9931 2.708
58.0234 2.812
58.0537 3.229
58.0840 3.437
58.1143 2.865
58.1445 2.604
58.1748 2.292
58.2051 2.083
58.2354 3.177
58.2656 3.958
58.2959 2.812
58.3262 2.552
58.3565 1.823
58.3868 3.073
58.4170 2.187
58.4473 3.073
58.4776 2.292
58.5079 2.031
58.5382 3.177
58.5684 2.187
58.5987 3.021
58.6290 2.448
58.6593 2.292
58.6896 2.812
58.7198 2.708
58.7501 2.656
58.7804 2.969
58.8107 2.344
58.8409 3.125
58.8712 2.812
58.9015 2.396
58.9318 2.135
58.9621 2.552
58.9923 2.969
59.0226 2.292
59.0529 2.396
59.0832 2.656
59.1135 1.927
59.1437 2.865
59.1740 2.187
59.2043 1.875
59.2346 2.760
59.2648 2.500
59.2951 2.448
59.3254 2.187
59.3557 2.396
59.3860 2.448
59.4162 2.448
59.4465 2.760
59.4768 2.135
59.5071 2.240
59.5374 2.760
59.5676 2.187
59.5979 2.396
59.6282 2.656
59.6585 2.917
59.6887 1.771
59.7190 3.177
59.7493 2.448
59.7796 2.812
59.8099 2.292
59.8401 2.187
59.8704 2.760
59.9007 2.135
59.9310 1.927
59.9613 2.552
59.9915 2.292
60.0218 2.500
60.0521 2.448
60.0824 2.448
60.1126 2.396
60.1429 2.656
60.1732 2.396
60.2035 2.500
60.2338 2.812
60.2640 2.708
60.2943 2.135
60.3246 3.073
60.3549 1.979
60.3852 2.500
60.4154 2.708
60.4457 2.760
60.4760 2.031
60.5063 3.073
60.5365 2.396
60.5668 2.187
60.5971 2.187
60.6274 2.865
60.6577 2.396
60.6879 3.177
60.7182 2.865
60.7485 2.187
60.7788 2.656
60.8091 2.187
60.8393 2.135
60.8696 2.240
60.8999 2.812
60.9302 2.812
60.9604 2.760
60.9907 2.031
61.0210 2.708
61.0513 3.229
61.0816 3.385
61.1118 3.229
61.1421 3.229
61.1724 2.865
61.2027 2.500
61.2330 2.396
61.2632 3.073
61.2935 2.760
61.3238 2.708
61.3541 3.021
61.3844 3.125
61.4146 2.812
61.4449 2.917
61.4752 3.333
61.5055 3.333
61.5357 2.917
61.5660 2.552
61.5963 2.969
61.6266 2.240
61.6569 2.812
61.6871 2.448
61.7174 4.167
61.7477 3.229
61.7780 4.167
61.8083 3.281
61.8385 3.594
61.8688 3.385
61.8991 3.854
61.9294 3.698
61.9596 4.271
61.9899 4.375
62.0202 3.750
62.0505 4.896
62.0808 4.323
62.1110 4.375
62.1413 4.427
62.1716 4.948
62.2019 5.625
62.2322 5.417
62.2624 6.146
62.2927 7.292
62.3230 6.875
62.3533 8.333
62.3835 9.167
62.4138 10.312
62.4441 10.156
62.4744 11.510
62.5047 12.708
62.5349 15.885
62.5652 16.302
62.5955 17.708
62.6258 22.031
62.6561 21.615
62.6863 20.625
62.7166 23.594
62.7469 24.531
62.7772 24.167
62.8074 26.354
62.8377 24.271
62.8680 21.927
62.8983 19.531
62.9286 19.010
62.9588 17.031
62.9891 15.312
63.0194 14.687
63.0497 13.333
63.0800 11.615
63.1102 10.417
63.1405 9.062
63.1708 8.125
63.2011 7.708
63.2313 5.937
63.2616 6.094
63.2919 6.042
63.3222 5.990
63.3525 5.521
63.3827 4.375
63.4130 4.375
63.4433 5.521
63.4736 4.531
63.5039 4.115
63.5341 3.854
63.5644 4.010
63.5947 4.062
63.6250 4.219
63.6552 3.646
63.6855 3.750
63.7158 3.750
63.7461 3.906
63.7764 2.969
63.8066 3.229
63.8369 3.698
63.8672 3.073
63.8975 3.073
63.9278 3.594
63.9580 3.698
63.9883 3.750
64.0186 2.604
64.0489 3.333
64.0791 4.167
64.1094 2.917
64.1397 2.552
64.1700 2.969
64.2003 2.812
64.2305 2.604
64.2608 2.500
64.2911 3.177
64.3214 2.552
64.3517 2.865
64.3819 3.281
64.4122 2.240
64.4425 2.500
64.4728 2.500
64.5031 2.812
64.5333 3.021
64.5636 2.083
64.5939 3.125
64.6242 2.448
64.6544 3.073
64.6847 1.771
64.7150 3.073
64.7453 2.656
64.7756 2.344
64.8058 2.187
64.8361 2.604
64.8664 2.448
64.8967 2.812
64.9270 3.229
64.9572 3.229
64.9875 2.448
65.0178 2.656
65.0481 3.906
65.0783 2.708
65.1086 2.448
65.1389 2.448
65.1692 3.125
65.1995 2.708
65.2297 2.812
65.2600 2.604
65.2903 2.292
65.3206 2.604
65.3509 2.500
65.3811 3.021
65.4114 2.448
65.4417 2.448
65.4720 3.021
65.5022 3.125
65.5325 3.125
65.5628 3.281
65.5931 3.177
65.6234 2.969
65.6536 3.594
65.6839 3.698
65.7142 3.750
65.7445 3.281
65.7748 2.760
65.8050 3.333
65.8353 2.969
65.8656 3.333
65.8959 3.594
65.9261 4.010
65.9564 3.906
65.9867 3.958
66.0170 4.219
66.0473 4.115
66.0775 5.208
66.1078 5.625
66.1381 5.729
66.1684 5.104
66.1987 6.406
66.2289 6.250
66.2592 5.885
66.2895 5.052
66.3198 5.573
66.3500 6.302
66.3803 4.792
66.4106 5.417
66.4409 4.375
66.4712 5.104
66.5014 4.219
66.5317 4.115
66.5620 4.740
66.5923 5.052
66.6226 3.906
66.6528 3.437
66.6831 4.010
66.7134 2.917
66.7437 2.760
66.7739 4.635
66.8042 4.062
66.8345 3.437
66.8648 3.229
66.8951 3.906
66.9253 4.479
66.9556 3.906
66.9859 3.646
67.0162 3.802
67.0465 3.333
67.0767 4.427
67.1070 4.531
67.1373 4.167
67.1676 4.167
67.1978 5.365
67.2281 4.896
67.2584 4.635
67.2887 5.625
67.3190 5.937
67.3492 6.250
67.3795 6.094
67.4098 6.979
67.4401 7.969
67.4704 7.240
67.5006 8.333
67.5309 9.323
67.5612 8.750
67.5915 11.562
67.6218 12.344
67.6520 12.708
67.6823 13.177
67.7126 15.833
67.7429 16.719
67.7731 17.240
67.8034 19.792
67.8337 17.708
67.8640 16.615
67.8943 15.469
67.9245 15.052
67.9548 15.729
67.9851 15.937
68.0154 14.896
68.0457 14.167
68.0759 12.969
68.1062 10.990
68.1365 12.031
68.1668 12.031
68.1970 10.469
68.2273 9.115
68.2576 8.333
68.2879 9.844
68.3182 7.396
68.3484 7.552
68.3787 6.875
68.4090 8.333
68.4393 7.760
68.4696 6.719
68.4998 6.562
68.5301 6.094
68.5604 7.135
68.5907 6.615
68.6209 8.646
68.6512 6.667
68.6815 7.760
68.7118 6.927
68.7421 8.021
68.7723 8.542
68.8026 8.594
68.8329 8.958
68.8632 10.000
68.8935 8.750
68.9237 9.271
68.9540 9.635
68.9843 10.937
69.0146 10.365
69.0448 9.167
69.0751 9.531
69.1054 10.104
69.1357 7.500
69.1660 8.698
69.1962 7.969
69.2265 8.073
69.2568 6.458
69.2871 5.781
69.3174 6.875
69.3476 6.302
69.3779 4.896
69.4082 4.948
69.4385 4.896
69.4687 4.948
69.4990 5.312
69.5293 3.958
69.5596 3.385
69.5899 3.958
69.6201 3.333
69.6504 3.281
69.6807 3.177
69.7110 3.177
69.7413 3.802
69.7715 2.969
69.8018 2.969
69.8321 3.021
69.8624 2.865
69.8926 3.073
69.9229 2.917
69.9532 2.292
69.9835 2.865
70.0138 2.656
70.0440 2.969
70.0743 2.812
70.1046 1.823
70.1349 2.708
70.1652 2.552
70.1954 2.344
70.2257 1.979
70.2560 2.969
70.2863 1.771
70.3166 2.292
70.3468 3.021
70.3771 2.031
70.4074 2.865
70.4377 2.240
70.4679 2.865
70.4982 2.292
70.5285 2.292
70.5588 2.031
70.5891 1.927
70.6193 2.240
70.6496 2.187
70.6799 1.771
70.7102 1.927
70.7405 2.448
70.7707 2.031
70.8010 2.552
70.8313 1.771
70.8616 2.292
70.8918 2.760
70.9221 2.396
70.9524 2.344
70.9827 2.448
71.0130 2.083
71.0432 1.771
71.0735 1.771
71.1038 2.448
71.1341 2.135
71.1644 1.771
71.1946 1.979
71.2249 2.240
71.2552 2.760
71.2855 1.615
71.3157 2.031
71.3460 2.552
71.3763 2.240
71.4066 1.979
71.4369 2.344
71.4671 1.667
71.4974 2.240
71.5277 1.875
71.5580 1.667
71.5883 1.510
71.6185 1.927
71.6488 2.344
71.6791 2.292
71.7094 2.240
71.7396 1.823
71.7699 2.083
71.8002 2.031
71.8305 2.292
71.8608 2.396
71.8910 2.344
71.9213 1.927
71.9516 1.458
71.9819 2.187
72.0122 1.406
72.0424 1.510
72.0727 1.302
72.1030 2.760
72.1333 1.510
72.1635 2.031
72.1938 2.240
72.2241 2.500
72.2544 1.823
72.2847 3.125
72.3149 3.125
72.3452 2.396
72.3755 2.604
72.4058 2.812
72.4361 2.917
72.4663 3.385
72.4966 3.281
72.5269 2.760
72.5572 3.281
72.5874 3.177
72.6177 2.812
72.6480 3.281
72.6783 2.344
72.7086 2.917
72.7388 2.969
72.7691 3.229
72.7994 2.135
72.8297 1.927
72.8600 2.240
72.8902 1.927
72.9205 2.135
72.9508 2.240
72.9811 2.187
73.0113 2.240
73.0416 1.562
73.0719 1.719
73.1022 1.927
73.1325 2.240
73.1627 2.187
73.1930 1.615
73.2233 1.667
73.2536 1.823
73.2839 2.135
73.3141 1.875
73.3444 1.615
73.3747 1.719
73.4050 1.406
73.4353 1.771
73.4655 2.083
73.4958 1.615
73.5261 2.083
73.5564 1.667
73.5866 1.510
73.6169 1.719
73.6472 1.302
73.6775 1.250
73.7078 1.823
73.7380 2.083
73.7683 1.458
73.7986 1.719
73.8289 1.458
73.8592 1.562
73.8894 1.562
73.9197 2.135
73.9500 2.187
73.9803 1.250
74.0105 1.615
74.0408 1.510
74.0711 1.562
74.1014 2.083
74.1317 1.667
74.1619 1.510
74.1922 1.667
74.2225 1.562
74.2528 1.979
74.2831 2.240
74.3133 1.458
74.3436 1.823
74.3739 1.667
74.4042 1.458
74.4344 1.719
74.4647 1.562
74.4950 1.354
74.5253 1.667
74.5556 1.823
74.5858 1.562
74.6161 1.146
74.6464 1.615
74.6767 1.510
74.7070 1.979
74.7372 1.719
74.7675 1.823
74.7978 1.667
74.8281 1.615
74.8583 1.250
74.8886 1.562
74.9189 1.823
74.9492 1.510
74.9795 1.302
75.0097 1.719
75.0400 1.510
75.0703 1.146
75.1006 1.562
75.1309 1.615
75.1611 1.875
75.1914 1.823
75.2217 1.979
75.2520 1.823
75.2822 1.510
75.3125 2.031
75.3428 1.510
75.3731 1.354
75.4034 1.719
75.4336 2.187
75.4639 1.510
75.4942 1.771
75.5245 1.250
75.5548 1.875
75.5850 2.187
75.6153 1.667
75.6456 2.135
75.6759 2.083
75.7061 1.823
75.7364 2.031
75.7667 1.823
75.7970 2.083
75.8273 1.719
75.8575 1.510
75.8878 1.979
75.9181 1.510
75.9484 1.667
75.9787 2.344
76.0089 2.031
76.0392 1.875
76.0695 2.448
76.0998 1.198
76.1301 2.187
76.1603 2.187
76.1906 1.406
76.2209 2.344
76.2512 2.031
76.2814 2.344
76.3117 1.875
76.3420 1.719
76.3723 2.135
76.4026 2.135
76.4328 2.187
76.4631 2.344
76.4934 2.292
76.5237 2.604
76.5540 3.021
76.5842 2.708
76.6145 2.760
76.6448 2.448
76.6751 3.021
76.7053 2.917
76.7356 2.917
76.7659 3.594
76.7962 4.115
76.8265 3.698
76.8567 4.219
76.8870 3.229
76.9173 3.646
76.9476 3.229
76.9779 2.969
77.0081 3.594
77.0384 3.594
77.0687 2.448
77.0990 3.073
77.1292 2.500
77.1595 2.969
77.1898 3.229
77.2201 3.177
77.2504 2.240
77.2806 2.292
77.3109 2.656
77.3412 1.771
77.3715 1.927
77.4018 2.240
77.4320 2.396
77.4623 2.448
77.4926 1.823
77.5229 1.823
77.5531 2.187
77.5834 2.187
77.6137 2.083
77.6440 2.344
77.6743 2.240
77.7045 2.135
77.7348 1.771
77.7651 2.031
77.7954 2.135
77.8257 1.927
77.8559 1.771
77.8862 1.979
77.9165 1.615
77.9468 2.187
77.9770 1.615
78.0073 1.719
78.0376 1.458
78.0679 1.823
78.0982 1.354
78.1284 1.458
78.1587 1.198
78.1890 2.135
78.2193 1.771
78.2496 1.615
78.2798 1.562
78.3101 1.667
78.3404 1.458
78.3707 1.458
78.4009 1.979
78.4312 1.406
78.4615 1.875
78.4918 1.875
78.5221 1.354
78.5523 0.729
78.5826 1.927
78.6129 1.458
78.6432 1.771
78.6735 1.667
78.7037 1.198
78.7340 1.667
78.7643 1.875
78.7946 1.667
78.8248 1.875
78.8551 2.812
78.8854 1.562
78.9157 1.510
78.9460 1.406
78.9762 1.458
79.0065 1.562
79.0368 2.031
79.0671 1.510
79.0974 1.562
79.1276 1.823
79.1579 1.198
79.1882 1.979
79.2185 1.667
79.2488 1.302
79.2790 2.240
79.3093 1.719
79.3396 1.510
79.3699 1.823
79.4001 2.083
79.4304 1.719
79.4607 1.979
79.4910 1.198
79.5213 1.615
79.5515 1.562
79.5818 1.823
79.6121 1.406
79.6424 1.771
79.6727 1.354
79.7029 1.615
79.7332 2.135
79.7635 1.198
79.7938 1.667
79.8240 1.875
79.8543 1.719
79.8846 1.823
79.9149 1.719
79.9452 1.875
79.9754 1.094
80.0057 1.771
80.0360 1.927
80.0663 1.562
80.0966 1.719
80.1268 1.771
80.1571 1.667
80.1874 2.031
80.2177 1.823
80.2479 1.719
80.2782 1.823
80.3085 1.250
80.3388 1.719
80.3691 1.823
80.3993 1.875
80.4296 1.667
80.4599 1.562
80.4902 1.510
80.5205 1.510
80.5507 1.510
80.5810 1.771
80.6113 1.094
80.6416 1.562
80.6718 1.458
80.7021 1.615
80.7324 2.240
80.7627 1.771
80.7930 2.083
80.8232 1.979
80.8535 2.135
80.8838 1.927
80.9141 1.510
80.9444 2.292
80.9746 1.823
81.0049 2.292
81.0352 2.448
81.0655 1.667
81.0957 2.187
81.1260 1.667
81.1563 2.344
81.1866 2.448
81.2169 2.917
81.2471 2.552
81.2774 2.448
81.3077 2.500
81.3380 3.229
81.3683 2.187
81.3985 2.812
81.4288 2.708
81.4591 2.292
81.4894 2.292
81.5196 2.240
81.5499 2.500
81.5802 2.240
81.6105 2.240
81.6408 2.500
81.6710 1.615
81.7013 1.406
81.7316 2.135
81.7619 1.667
81.7922 2.396
81.8224 2.448
81.8527 2.240
81.8830 1.667
81.9133 2.500
81.9436 1.406
81.9738 0.990
82.0041 1.667
82.0344 1.823
82.0647 1.406
82.0949 1.615
82.1252 1.667
82.1555 1.823
82.1858 1.823
82.2161 2.031
82.2463 1.250
82.2766 1.406
82.3069 1.510
82.3372 1.354
82.3675 1.719
82.3977 1.875
82.4280 1.510
82.4583 1.979
82.4886 1.875
82.5188 1.250
82.5491 1.823
82.5794 1.250
82.6097 1.615
82.6400 1.667
82.6702 1.771
82.7005 1.406
82.7308 1.458
82.7611 1.510
82.7914 2.135
82.8216 1.250
82.8519 1.406
82.8822 1.302
82.9125 1.927
82.9427 1.615
82.9730 1.615
83.0033 1.771
83.0336 1.875
83.0639 1.615
83.0941 1.615
83.1244 1.302
83.1547 1.667
83.1850 1.354
83.2153 2.292
83.2455 1.458
83.2758 1.667
83.3061 1.927
83.3364 1.146
83.3666 1.667
83.3969 1.198
83.4272 1.771
83.4575 1.719
83.4878 1.667
83.5180 1.510
83.5483 1.615
83.5786 1.667
83.6089 1.667
83.6392 1.823
83.6694 2.135
83.6997 1.458
83.7300 1.354
83.7603 1.302
83.7905 1.771
83.8208 1.042
83.8511 1.510
83.8814 1.667
83.9117 1.042
83.9419 1.146
83.9722 1.146
84.0025 1.458
84.0328 1.615
84.0631 1.719
84.0933 1.927
84.1236 1.198
84.1539 2.187
84.1842 1.198
84.2144 1.354
84.2447 1.823
84.2750 1.406
84.3053 1.615
84.3356 2.240
84.3658 1.562
84.3961 1.667
84.4264 1.562
84.4567 1.927
84.4870 1.615
84.5172 1.406
84.5475 1.458
84.5778 1.667
84.6081 1.927
84.6383 1.510
84.6686 1.458
84.6989 1.771
84.7292 1.667
84.7595 1.198
84.7897 1.510
84.8200 1.302
84.8503 1.406
84.8806 1.198
84.9109 2.083
84.9411 1.354
84.9714 2.031
85.0017 1.510
85.0320 1.406
85.0623 1.510
85.0925 1.771
85.1228 1.875
85.1531 1.667
85.1834 1.667
85.2136 1.146
85.2439 1.406
85.2742 1.771
85.3045 1.615
85.3348 1.615
85.3650 1.771
85.3953 1.615
85.4256 1.354
85.4559 1.771
85.4862 1.094
85.5164 1.667
85.5467 1.667
85.5770 1.510
85.6073 1.198
85.6375 2.031
85.6678 1.667
85.6981 1.458
85.7284 1.667
85.7587 1.510
85.7889 1.198
85.8192 1.667
85.8495 2.031
85.8798 1.458
85.9101 1.198
85.9403 1.406
85.9706 1.458
86.0009 1.510
86.0312 1.615
86.0614 1.198
86.0917 1.719
86.1220 1.510
86.1523 1.458
86.1826 1.667
86.2128 1.667
86.2431 1.927
86.2734 1.458
86.3037 1.562
86.3340 0.833
86.3642 1.719
86.3945 1.719
86.4248 1.771
86.4551 1.406
86.4853 1.823
86.5156 1.510
86.5459 2.083
86.5762 1.250
86.6065 1.875
86.6367 1.823
86.6670 1.458
86.6973 1.771
86.7276 1.510
86.7579 1.406
86.7881 1.406
86.8184 1.771
86.8487 1.615
86.8790 1.562
86.9092 1.458
86.9395 1.979
86.9698 1.094
87.0001 1.198
87.0304 1.823
87.0606 1.875
87.0909 2.031
87.1212 0.885
87.1515 2.135
87.1818 1.771
87.2120 2.344
87.2423 1.510
87.2726 1.823
87.3029 1.562
87.3331 1.979
87.3634 2.135
87.3937 1.875
87.4240 1.354
87.4543 1.510
87.4845 1.719
87.5148 1.979
87.5451 1.458
87.5754 1.615
87.6057 1.562
87.6359 1.510
87.6662 1.719
87.6965 1.667
87.7268 1.354
87.7571 1.562
87.7873 1.510
87.8176 1.406
87.8479 1.771
87.8782 1.510
87.9084 1.719
87.9387 1.458
87.9690 1.719
87.9993 2.135
88.0296 2.031
88.0598 2.083
88.0901 2.448
88.1204 2.240
88.1507 1.458
88.1810 2.083
88.2112 2.135
88.2415 1.667
88.2718 1.562
88.3021 1.927
88.3323 2.135
88.3626 1.979
88.3929 1.667
88.4232 2.083
88.4535 2.135
88.4837 2.240
88.5140 2.344
88.5443 1.979
88.5746 2.135
88.6049 1.823
88.6351 1.979
88.6654 1.875
88.6957 2.344
88.7260 2.656
88.7562 2.135
88.7865 1.875
88.8168 2.240
88.8471 2.656
88.8774 2.292
88.9076 2.812
88.9379 2.760
88.9682 2.917
88.9985 3.281
89.0288 2.656
89.0590 3.698
89.0893 3.490
89.1196 3.177
89.1499 2.344
89.1801 3.594
89.2104 4.271
89.2407 3.906
89.2710 4.062
89.3013 4.115
89.3315 4.948
89.3618 4.792
89.3921 4.583
89.4224 4.896
89.4527 4.844
89.4829 4.844
89.5132 4.948
89.5435 5.729
89.5738 4.948
89.6040 5.104
89.6343 5.208
89.6646 5.000
89.6949 5.156
89.7252 5.052
89.7554 4.531
89.7857 3.906
89.8160 4.062
89.8463 3.646
89.8766 3.125
89.9068 3.385
89.9371 3.490
89.9674 3.594
89.9977 3.698
90.0279 2.656
90.0582 3.281
90.0885 2.708
90.1188 1.771
90.1491 2.865
90.1793 2.552
90.2096 2.500
90.2399 2.396
90.2702 2.344
90.3005 2.500
90.3307 1.875
90.3610 2.656
90.3913 2.552
90.4216 1.979
90.4518 2.083
90.4821 2.031
90.5124 2.448
90.5427 1.562
90.5730 1.667
90.6032 2.448
90.6335 2.187
90.6638 1.458
90.6941 1.562
90.7244 1.875
90.7546 2.292
90.7849 1.667
90.8152 1.771
90.8455 1.667
90.8758 2.135
90.9060 2.135
90.9363 1.562
90.9666 1.927
90.9969 1.667
91.0271 2.604
91.0574 2.135
91.0877 1.615
91.1180 1.562
91.1483 1.979
91.1785 2.292
91.2088 1.771
91.2391 1.615
91.2694 1.823
91.2997 1.771
91.3299 2.500
91.3602 1.406
91.3905 0.937
91.4208 2.292
91.4510 1.667
91.4813 1.927
91.5116 1.354
91.5419 1.823
91.5722 1.198
91.6024 1.823
91.6327 2.292
91.6630 1.771
91.6933 1.667
91.7236 1.979
91.7538 1.771
91.7841 1.719
91.8144 1.667
91.8447 2.292
91.8749 1.354
91.9052 1.667
91.9355 2.031
91.9658 1.771
91.9961 1.927
92.0263 2.031
92.0566 2.187
92.0869 1.927
92.1172 1.719
92.1475 2.396
92.1777 2.031
92.2080 1.979
92.2383 2.187
92.2686 2.292
92.2988 2.240
92.3291 2.760
92.3594 3.021
92.3897 2.604
92.4200 2.812
92.4502 2.604
92.4805 2.240
92.5108 2.500
92.5411 2.760
92.5714 2.552
92.6016 3.125
92.6319 3.021
92.6622 2.240
92.6925 2.240
92.7227 2.917
92.7530 2.812
92.7833 3.073
92.8136 2.656
92.8439 2.552
92.8741 2.760
92.9044 2.917
92.9347 2.865
92.9650 3.125
92.9953 2.708
93.0255 2.448
93.0558 2.812
93.0861 2.187
93.1164 2.344
93.1466 2.396
93.1769 2.812
93.2072 2.448
93.2375 2.031
93.2678 2.604
93.2980 2.448
93.3283 1.667
93.3586 1.771
93.3889 2.135
93.4192 2.240
93.4494 1.510
93.4797 1.771
93.5100 2.187
93.5403 2.083
93.5706 1.771
93.6008 2.083
93.6311 1.875
93.6614 2.187
93.6917 2.708
93.7219 2.187
93.7522 2.187
93.7825 2.812
93.8128 1.823
93.8431 2.240
93.8733 1.667
93.9036 2.187
93.9339 1.823
93.9642 1.510
93.9945 1.927
94.0247 1.979
94.0550 1.875
94.0853 2.031
94.1156 2.292
94.1458 1.562
94.1761 2.031
94.2064 1.823
94.2367 2.604
94.2670 2.292
94.2972 2.135
94.3275 2.396
94.3578 2.500
94.3881 2.187
94.4184 2.083
94.4486 2.604
94.4789 2.552
94.5092 1.719
94.5395 2.917
94.5697 2.552
94.6000 2.187
94.6303 3.073
94.6606 2.708
94.6909 3.073
94.7211 3.281
94.7514 2.969
94.7817 2.656
94.8120 3.073
94.8423 4.479
94.8725 3.646
94.9028 4.115
94.9331 3.177
94.9634 3.437
94.9936 4.844
95.0239 4.219
95.0542 5.000
95.0845 4.375
95.1148 5.365
95.1450 5.104
95.1753 5.417
95.2056 4.792
95.2359 4.844
95.2662 3.958
95.2964 5.260
95.3267 3.594
95.3570 4.687
95.3873 4.167
95.4175 4.635
95.4478 4.115
95.4781 3.281
95.5084 4.479
95.5387 3.698
95.5689 3.646
95.5992 4.062
95.6295 3.646
95.6598 3.177
95.6901 4.167
95.7203 2.656
95.7506 3.021
95.7809 2.812
95.8112 3.229
95.8414 2.656
95.8717 2.292
95.9020 2.292
95.9323 2.240
95.9626 2.865
95.9928 2.604
96.0231 3.125
96.0534 2.656
96.0837 2.135
96.1140 2.760
96.1442 2.083
96.1745 2.448
96.2048 2.552
96.2351 1.979
96.2653 3.125
96.2956 1.823
96.3259 1.510
96.3562 1.927
96.3865 2.344
96.4167 2.240
96.4470 1.198
96.4773 2.656
96.5076 1.562
96.5379 1.719
96.5681 1.771
96.5984 2.031
96.6287 2.031
96.6590 1.510
96.6893 1.302
96.7195 2.135
96.7498 2.448
96.7801 1.979
96.8104 1.823
96.8406 1.667
96.8709 1.823
96.9012 1.510
96.9315 1.146
96.9618 2.187
96.9920 1.667
97.0223 2.240
97.0526 1.719
97.0829 1.823
97.1132 1.458
97.1434 1.458
97.1737 1.927
97.2040 2.292
97.2343 1.927
97.2645 1.771
97.2948 1.562
97.3251 2.031
97.3554 2.083
97.3857 1.875
97.4159 1.667
97.4462 2.240
97.4765 1.615
97.5068 1.510
97.5371 1.562
97.5673 1.927
97.5976 2.396
97.6279 1.823
97.6582 2.135
97.6884 2.187
97.7187 1.823
97.7490 1.771
97.7793 1.771
97.8096 2.031
97.8398 1.875
97.8701 2.344
97.9004 2.135
97.9307 2.135
97.9610 1.875
97.9912 2.344
98.0215 2.292
98.0518 2.031
98.0821 2.448
98.1123 2.552
98.1426 2.292
98.1729 3.125
98.2032 2.917
98.2335 3.385
98.2637 3.177
98.2940 2.604
98.3243 2.917
98.3546 3.437
98.3849 3.594
98.4151 3.646
98.4454 3.854
98.4757 3.490
98.5060 3.281
98.5362 3.333
98.5665 3.750
98.5968 3.281
98.6271 3.594
98.6574 3.281
98.6876 3.646
98.7179 4.323
98.7482 3.437
98.7785 2.083
98.8088 3.281
98.8390 2.812
98.8693 3.490
98.8996 2.448
98.9299 2.292
98.9601 2.865
98.9904 3.125
99.0207 2.552
99.0510 2.292
99.0813 1.875
99.1115 2.240
99.1418 1.458
99.1721 1.771
99.2024 2.240
99.2327 1.979
99.2629 2.292
99.2932 1.615
99.3235 2.135
99.3538 2.187
99.3841 2.083
99.4143 2.083
99.4446 1.771
99.4749 1.667
99.5052 2.292
99.5354 1.562
99.5657 1.771
99.5960 1.667
99.6263 1.771
99.6566 1.823
99.6868 2.135
99.7171 2.031
99.7474 1.823
99.7777 1.510
99.8080 1.667
99.8382 1.510
99.8685 1.927
99.8988 1.719
99.9291 1.458
99.9593 1.354
99.9896 2.240
100.0199 2.031
100.0502 1.875
100.0805 1.771
100.1107 2.083
100.1410 2.344
100.1713 1.771
100.2016 1.719
100.2319 1.719
100.2621 1.823
100.2924 1.823
100.3227 2.083
100.3530 1.979
100.3832 1.719
100.4135 1.979
100.4438 1.771
100.4741 1.250
100.5044 1.823
100.5346 1.823
100.5649 1.875
100.5952 1.615
100.6255 1.823
100.6558 1.458
100.6860 1.562
100.7163 1.458
100.7466 1.667
100.7769 1.771
100.8071 1.667
100.8374 1.875
100.8677 1.562
100.8980 1.823
100.9283 1.406
100.9585 1.615
100.9888 1.979
101.0191 1.719
101.0494 1.771
101.0797 1.458
101.1099 1.406
101.1402 1.458
101.1705 1.875
101.2008 1.302
101.2310 2.135
101.2613 1.406
101.2916 1.562
101.3219 2.812
101.3522 1.719
101.3824 2.240
101.4127 1.927
101.4430 1.875
101.4733 2.135
101.5036 1.406
101.5338 1.615
101.5641 1.354
101.5944 1.510
101.6247 2.031
101.6549 1.354
101.6852 1.875
101.7155 1.771
101.7458 1.719
101.7761 2.292
101.8063 1.771
101.8366 1.875
101.8669 2.135
101.8972 1.615
101.9275 1.875
101.9577 1.823
101.9880 2.396
102.0183 2.135
102.0486 2.187
102.0788 2.031
102.1091 2.500
102.1394 2.448
102.1697 2.656
102.2000 1.875
102.2302 1.875
102.2605 1.875
102.2908 2.187
102.3211 2.448
102.3514 2.708
102.3816 2.187
102.4119 3.333
102.4422 2.031
102.4725 2.656
102.5028 2.448
102.5330 2.500
102.5633 2.344
102.5936 2.552
102.6239 2.812
102.6541 2.448
102.6844 2.500
102.7147 2.865
102.7450 2.500
102.7753 3.594
102.8055 2.240
102.8358 3.437
102.8661 2.969
102.8964 3.073
102.9267 3.073
102.9569 2.396
102.9872 3.385
103.0175 3.385
103.0478 3.333
103.0780 2.500
103.1083 3.073
103.1386 3.125
103.1689 2.187
103.1992 2.708
103.2294 2.760
103.2597 2.448
103.2900 3.229
103.3203 2.760
103.3506 2.969
103.3808 2.344
103.4111 3.333
103.4414 2.969
103.4717 2.760
103.5019 3.646
103.5322 3.385
103.5625 2.760
103.5928 2.552
103.6231 3.437
103.6533 3.021
103.6836 2.865
103.7139 2.917
103.7442 3.073
103.7745 3.073
103.8047 3.750
103.8350 4.010
103.8653 4.115
103.8956 4.167
103.9258 4.323
103.9561 4.844
103.9864 4.792
104.0167 5.000
104.0470 4.531
104.0772 4.479
104.1075 3.750
104.1378 4.062
104.1681 4.687
104.1984 3.906
104.2286 3.490
104.2589 4.271
104.2892 4.323
104.3195 3.698
104.3497 3.958
104.3800 3.490
104.4103 4.323
104.4406 3.437
104.4709 3.490
104.5011 3.802
104.5314 2.187
104.5617 2.552
104.5920 3.385
104.6223 2.656
104.6525 2.760
104.6828 2.708
104.7131 2.708
104.7434 2.552
104.7736 2.135
104.8039 2.396
104.8342 2.812
104.8645 2.500
104.8948 2.083
104.9250 1.979
104.9553 2.135
104.9856 2.031
105.0159 1.771
105.0462 2.031
105.0764 1.458
105.1067 2.135
105.1370 2.552
105.1673 1.719
105.1975 1.771
105.2278 2.344
105.2581 2.396
105.2884 1.927
105.3187 1.771
105.3489 1.667
105.3792 1.406
105.4095 1.771
105.4398 2.396
105.4701 1.615
105.5003 1.979
105.5306 2.344
105.5609 1.771
105.5912 1.667
105.6215 1.615
105.6517 2.448
105.6820 1.562
105.7123 1.615
105.7426 1.510
105.7728 1.302
105.8031 1.354
105.8334 1.667
105.8637 1.719
105.8940 1.667
105.9242 1.354
105.9545 1.823
105.9848 1.458
106.0151 1.771
106.0454 2.292
106.0756 1.562
106.1059 1.875
106.1362 1.562
106.1665 2.083
106.1967 1.719
106.2270 1.771
106.2573 2.135
106.2876 1.458
106.3179 1.667
106.3481 2.031
106.3784 1.458
106.4087 1.823
106.4390 1.615
106.4693 1.823
106.4995 2.135
106.5298 1.771
106.5601 1.510
106.5904 1.302
106.6206 1.458
106.6509 1.562
106.6812 2.344
106.7115 2.135
106.7418 1.667
106.7720 1.042
106.8023 1.198
106.8326 2.031
106.8629 1.719
106.8932 1.667
106.9234 1.406
106.9537 1.771
106.9840 1.979
107.0143 1.667
107.0445 1.823
107.0748 1.719
107.1051 1.406
107.1354 1.562
107.1657 1.615
107.1959 1.250
107.2262 1.771
107.2565 2.448
107.2868 2.083
107.3171 2.917
107.3473 2.187
107.3776 2.240
107.4079 2.083
107.4382 1.510
107.4684 1.823
107.4987 1.771
107.5290 1.875
107.5593 1.198
107.5896 2.083
107.6198 1.562
107.6501 1.771
107.6804 1.667
107.7107 1.667
107.7410 1.927
107.7712 1.510
107.8015 1.771
107.8318 2.292
107.8621 1.927
107.8923 2.240
107.9226 1.875
107.9529 1.823
107.9832 2.187
108.0135 1.562
108.0437 1.562
108.0740 1.667
108.1043 2.656
108.1346 1.406
108.1649 1.927
108.1951 2.187
108.2254 1.667
108.2557 1.927
108.2860 1.823
108.3163 1.719
108.3465 2.031
108.3768 1.771
108.4071 2.031
108.4374 1.562
108.4676 0.937
108.4979 1.927
108.5282 1.667
108.5585 1.771
108.5888 1.250
108.6190 2.135
108.6493 1.875
108.6796 1.823
108.7099 1.562
108.7402 1.823
108.7704 1.510
108.8007 2.031
108.8310 1.719
108.8613 1.406
108.8915 1.562
108.9218 1.875
108.9521 1.146
108.9824 1.510
109.0127 1.823
109.0429 1.823
109.0732 1.979
109.1035 2.031
109.1338 2.083
109.1641 1.875
109.1943 2.083
109.2246 2.135
109.2549 1.719
109.2852 1.562
109.3154 1.458
109.3457 1.875
109.3760 1.354
109.4063 1.510
109.4366 1.823
109.4668 1.719
109.4971 1.823
109.5274 2.344
109.5577 2.292
109.5880 2.083
109.6182 2.344
109.6485 1.927
109.6788 2.083
109.7091 2.760
109.7393 2.656
109.7696 2.396
109.7999 1.979
109.8302 2.812
109.8605 2.083
109.8907 2.917
109.9210 2.292
109.9513 3.750
109.9816 2.187
110.0119 2.240
110.0421 2.135
110.0724 3.385
110.1027 2.969
110.1330 2.187
110.1632 2.344
110.1935 2.708
110.2238 2.292
110.2541 3.177
110.2844 2.812
110.3146 2.500
110.3449 2.500
110.3752 2.187
110.4055 2.396
110.4358 2.187
110.4660 3.854
110.4963 2.344
110.5266 2.448
110.5569 2.344
110.5871 3.021
110.6174 2.500
110.6477 2.187
110.6780 2.240
110.7083 2.083
110.7385 2.083
110.7688 2.344
110.7991 2.396
110.8294 1.771
110.8597 2.396
110.8899 2.552
110.9202 2.240
110.9505 2.396
110.9808 2.552
111.0110 2.604
111.0413 2.031
111.0716 1.615
111.1019 2.187
111.1322 1.719
111.1624 1.667
111.1927 1.719
111.2230 1.615
111.2533 2.083
111.2836 2.031
111.3138 1.927
111.3441 1.979
111.3744 1.667
111.4047 1.979
111.4350 1.823
111.4652 1.771
111.4955 2.292
111.5258 1.771
111.5561 1.875
111.5863 2.031
111.6166 1.562
111.6469 2.292
111.6772 1.667
111.7075 1.771
111.7377 1.667
111.7680 1.302
111.7983 1.719
111.8286 2.083
111.8589 1.667
111.8891 1.927
111.9194 1.667
111.9497 2.083
111.9800 1.667
112.0102 1.458
112.0405 1.667
112.0708 1.146
112.1011 1.667
112.1314 1.823
112.1616 1.458
112.1919 1.719
112.2222 1.250
112.2525 2.344
112.2828 2.344
112.3130 1.667
112.3433 2.187
112.3736 1.354
112.4039 1.979
112.4341 2.240
112.4644 1.406
112.4947 1.302
112.5250 1.667
112.5553 1.927
112.5855 2.344
112.6158 1.615
112.6461 1.927
112.6764 1.875
112.7067 1.510
112.7369 2.031
112.7672 1.458
112.7975 2.396
112.8278 1.979
112.8580 1.719
112.8883 1.927
112.9186 1.615
112.9489 2.187
112.9792 1.146
113.0094 1.927
113.0397 1.042
113.0700 2.187
113.1003 1.615
113.1306 2.240
113.1608 1.719
113.1911 1.771
113.2214 1.719
113.2517 1.719
113.2819 2.031
113.3122 1.823
113.3425 2.240
113.3728 1.667
113.4031 1.615
113.4333 2.031
113.4636 1.510
113.4939 1.771
113.5242 1.719
113.5545 1.771
113.5847 1.302
113.6150 2.187
113.6453 2.292
113.6756 1.615
113.7058 1.667
113.7361 1.979
113.7664 1.667
113.7967 1.927
113.8270 1.719
113.8572 1.719
113.8875 2.292
113.9178 2.083
113.9481 1.667
113.9784 1.510
114.0086 1.302
114.0389 2.031
114.0692 1.875
114.0995 1.406
114.1298 1.823
114.1600 2.187
114.1903 1.198
114.2206 2.240
114.2509 1.354
114.2811 1.719
114.3114 2.135
114.3417 2.031
114.3720 1.719
114.4023 1.510
114.4325 2.083
114.4628 1.823
114.4931 1.875
114.5234 2.240
114.5537 1.667
114.5839 1.823
114.6142 1.927
114.6445 1.094
114.6748 1.354
114.7050 2.031
114.7353 1.875
114.7656 2.135
114.7959 1.302
114.8262 2.552
114.8564 2.552
114.8867 2.760
114.9170 2.500
114.9473 2.240
114.9776 1.875
115.0078 2.396
115.0381 2.344
115.0684 2.500
115.0987 1.823
115.1289 2.760
115.1592 1.719
115.1895 2.031
115.2198 1.875
115.2501 1.667
115.2803 2.344
115.3106 2.083
115.3409 2.083
115.3712 2.708
115.4015 2.969
115.4317 3.229
115.4620 2.812
115.4923 3.073
115.5226 2.396
115.5528 2.865
115.5831 2.760
115.6134 3.385
115.6437 2.396
115.6740 3.646
115.7042 3.073
115.7345 2.604
115.7648 3.698
115.7951 4.062
115.8254 4.062
115.8556 3.177
115.8859 4.167
115.9162 3.802
115.9465 4.427
115.9767 4.531
116.0070 4.323
116.0373 3.125
116.0676 4.740
116.0979 4.531
116.1281 4.479
116.1584 5.260
116.1887 5.781
116.2190 4.062
116.2493 5.260
116.2795 4.635
116.3098 3.281
116.3401 3.542
116.3704 4.844
116.4006 4.323
116.4309 4.323
116.4612 4.219
116.4915 3.854
116.5218 4.635
116.5520 4.062
116.5823 4.323
116.6126 3.698
116.6429 3.750
116.6732 3.802
116.7034 3.906
116.7337 3.594
116.7640 3.802
116.7943 3.073
116.8245 3.437
116.8548 3.073
116.8851 2.865
116.9154 3.854
116.9457 3.021
116.9759 3.177
117.0062 3.073
117.0365 3.333
117.0668 2.292
117.0971 2.500
117.1273 2.865
117.1576 2.708
117.1879 2.552
117.2182 2.240
117.2485 2.344
117.2787 2.240
117.3090 2.344
117.3393 2.083
117.3696 2.448
117.3998 1.979
117.4301 2.083
117.4604 2.083
117.4907 2.031
117.5210 2.292
117.5512 1.719
117.5815 2.344
117.6118 2.031
117.6421 2.135
117.6724 2.031
117.7026 1.927
117.7329 2.240
117.7632 2.604
117.7935 1.719
117.8237 1.823
117.8540 1.406
117.8843 1.615
117.9146 1.979
117.9449 1.667
117.9751 1.771
118.0054 1.927
118.0357 2.344
118.0660 2.031
118.0963 1.979
118.1265 2.031
118.1568 1.927
118.1871 2.031
118.2174 1.823
118.2476 1.719
118.2779 1.823
118.3082 1.510
118.3385 2.135
118.3688 2.708
118.3990 1.979
118.4293 1.667
118.4596 1.927
118.4899 2.031
118.5202 1.823
118.5504 1.771
118.5807 1.927
118.6110 1.615
118.6413 1.719
118.6715 2.135
118.7018 2.135
118.7321 2.031
118.7624 1.719
118.7927 1.875
118.8229 2.031
118.8532 2.083
118.8835 2.344
118.9138 1.302
118.9441 1.927
118.9743 2.031
119.0046 2.187
119.0349 1.979
119.0652 2.031
119.0954 1.354
119.1257 1.927
119.1560 2.344
119.1863 2.292
119.2166 1.510
119.2468 2.083
119.2771 2.240
119.3074 1.719
119.3377 1.615
119.3680 1.615
119.3982 1.562
119.4285 1.562
119.4588 2.083
119.4891 1.510
119.5193 1.510
119.5496 1.615
119.5799 2.083
119.6102 2.135
119.6405 2.135
119.6707 1.667
119.7010 1.615
119.7313 1.771
119.7616 2.083
119.7919 1.562
119.8221 1.979
119.8524 1.302
119.8827 2.292
119.9130 1.927
119.9433 1.354
119.9735 2.708
120.0038 2.031
