'Id: "" Comment: "" Operator: "Lab Manager" Anode: "Cu" Scantype: "Locked Coupled" TimePerStep: "19.2" X: "9999" Y: "9999" Z: "9999" 
10.0015 57.344
10.0318 56.979
10.0620 58.906
10.0923 60.521
10.1226 52.865
10.1529 61.042
10.1832 60.365
10.2134 63.750
10.2437 65.208
10.2740 66.719
10.3043 68.177
10.3346 68.333
10.3648 74.115
10.3951 71.354
10.4254 80.417
10.4557 80.677
10.4859 81.562
10.5162 85.573
10.5465 83.958
10.5768 86.927
10.6071 89.896
10.6373 93.437
10.6676 94.427
10.6979 99.323
10.7282 97.604
10.7585 107.865
10.7887 112.083
10.8190 116.250
10.8493 120.729
10.8796 123.229
10.9098 124.896
10.9401 127.969
10.9704 127.031
11.0007 135.573
11.0310 144.062
11.0612 141.875
11.0915 147.448
11.1218 146.510
11.1521 151.667
11.1824 152.865
11.2126 159.896
11.2429 162.865
11.2732 159.479
11.3035 160.885
11.3337 168.802
11.3640 172.708
11.3943 175.260
11.4246 165.990
11.4549 167.448
11.4851 169.792
11.5154 168.594
11.5457 165.833
11.5760 168.490
11.6063 166.094
11.6365 166.823
11.6668 163.906
11.6971 160.000
11.7274 161.354
11.7577 157.292
11.7879 153.490
11.8182 149.635
11.8485 151.042
11.8788 145.937
11.9090 143.906
11.9393 143.385
11.9696 142.500
11.9999 127.604
12.0302 125.156
12.0604 120.417
12.0907 117.396
12.1210 120.677
12.1513 110.260
12.1816 104.740
12.2118 96.615
12.2421 97.448
12.2724 94.844
12.3027 91.302
12.3329 83.750
12.3632 81.458
12.3935 75.052
12.4238 73.125
12.4541 73.750
12.4843 69.687
12.5146 62.135
12.5449 64.271
12.5752 59.740
12.6055 61.406
12.6357 56.615
12.6660 53.854
12.6963 53.750
12.7266 52.083
12.7568 47.708
12.7871 50.937
12.8174 48.073
12.8477 47.240
12.8780 44.427
12.9082 47.656
12.9385 42.760
12.9688 40.312
12.9991 42.760
13.0294 43.073
13.0596 41.562
13.0899 39.740
13.1202 36.771
13.1505 39.948
13.1807 35.729
13.2110 36.562
13.2413 37.552
13.2716 34.583
13.3019 34.583
13.3321 35.260
13.3624 33.333
13.3927 34.583
13.4230 33.958
13.4533 33.125
13.4835 32.760
13.5138 31.979
13.5441 29.323
13.5744 33.542
13.6046 30.260
13.6349 31.927
13.6652 32.187
13.6955 29.583
13.7258 32.083
13.7560 28.333
13.7863 29.062
13.8166 29.271
13.8469 28.437
13.8772 28.333
13.9074 28.437
13.9377 26.771
13.9680 26.510
13.9983 26.458
14.0285 27.656
14.0588 25.312
14.0891 25.885
14.1194 24.896
14.1497 24.583
14.1799 24.062
14.2102 25.260
14.2405 23.229
14.2708 24.687
14.3011 24.062
14.3313 23.177
14.3616 21.094
14.3919 23.125
14.4222 22.812
14.4524 21.562
14.4827 21.250
14.5130 20.729
14.5433 20.469
14.5736 20.104
14.6038 21.979
14.6341 21.615
14.6644 17.812
14.6947 19.010
14.7250 20.208
14.7552 17.969
14.7855 19.375
14.8158 20.365
14.8461 19.635
14.8764 18.177
14.9066 18.646
14.9369 18.750
14.9672 19.427
14.9975 17.500
15.0277 18.229
15.0580 18.698
15.0883 17.656
15.1186 19.167
15.1489 16.510
15.1791 16.771
15.2094 16.667
15.2397 15.208
15.2700 17.969
15.3003 16.302
15.3305 16.771
15.3608 16.823
15.3911 15.833
15.4214 15.729
15.4516 15.573
15.4819 17.083
15.5122 16.094
15.5425 15.625
15.5728 15.260
15.6030 15.417
15.6333 13.542
15.6636 14.375
15.6939 14.531
15.7242 15.937
15.7544 14.479
15.7847 15.885
15.8150 14.583
15.8453 13.333
15.8755 15.260
15.9058 12.604
15.9361 12.552
15.9664 13.073
15.9967 13.490
16.0269 13.698
16.0572 14.115
16.0875 13.437
16.1178 13.490
16.1481 16.094
16.1783 14.583
16.2086 11.927
16.2389 14.115
16.2692 14.740
16.2994 13.281
16.3297 12.344
16.3600 13.125
16.3903 13.177
16.4206 13.333
16.4508 12.187
16.4811 12.344
16.5114 13.021
16.5417 13.333
16.5720 13.802
16.6022 12.448
16.6325 12.187
16.6628 11.667
16.6931 12.812
16.7233 11.667
16.7536 11.615
16.7839 11.562
16.8142 11.875
16.8445 11.927
16.8747 11.302
16.9050 12.500
16.9353 11.615
16.9656 12.917
16.9959 11.875
17.0261 11.719
17.0564 11.094
17.0867 12.708
17.1170 11.719
17.1472 12.604
17.1775 10.885
17.2078 11.927
17.2381 10.833
17.2684 10.208
17.2986 10.000
17.3289 10.156
17.3592 10.781
17.3895 12.552
17.4198 10.833
17.4500 12.240
17.4803 11.510
17.5106 9.792
17.5409 9.896
17.5712 10.677
17.6014 10.417
17.6317 9.896
17.6620 11.094
17.6923 11.198
17.7225 10.156
17.7528 9.375
17.7831 11.146
17.8134 10.573
17.8437 12.344
17.8739 10.990
17.9042 10.260
17.9345 10.521
17.9648 10.677
17.9951 11.354
18.0253 10.260
18.0556 10.312
18.0859 11.875
18.1162 10.677
18.1464 10.885
18.1767 10.573
18.2070 10.052
18.2373 12.135
18.2676 11.406
18.2978 13.073
18.3281 12.031
18.3584 10.469
18.3887 12.083
18.4190 11.875
18.4492 12.604
18.4795 12.240
18.5098 11.562
18.5401 12.031
18.5703 12.500
18.6006 12.917
18.6309 12.292
18.6612 12.760
18.6915 11.615
18.7217 11.979
18.7520 9.896
18.7823 10.208
18.8126 11.146
18.8429 10.833
18.8731 11.302
18.9034 11.823
18.9337 10.937
18.9640 12.083
18.9942 10.990
19.0245 10.729
19.0548 9.271
19.0851 9.479
19.1154 10.833
19.1456 9.167
19.1759 9.010
19.2062 9.427
19.2365 8.906
19.2668 9.010
19.2970 9.219
19.3273 9.271
19.3576 8.646
19.3879 7.917
19.4181 7.604
19.4484 8.542
19.4787 7.812
19.5090 7.552
19.5393 7.240
19.5695 7.344
19.5998 8.125
19.6301 7.500
19.6604 7.448
19.6907 7.344
19.7209 6.406
19.7512 6.406
19.7815 5.990
19.8118 6.875
19.8420 7.500
19.8723 6.979
19.9026 6.719
19.9329 7.604
19.9632 6.510
19.9934 6.250
20.0237 5.937
20.0540 6.875
20.0843 6.458
20.1146 6.042
20.1448 6.250
20.1751 5.625
20.2054 5.729
20.2357 5.990
20.2659 5.312
20.2962 6.406
20.3265 5.469
20.3568 6.198
20.3871 6.719
20.4173 6.042
20.4476 5.677
20.4779 5.417
20.5082 5.573
20.5385 6.042
20.5687 6.146
20.5990 7.448
20.6293 5.573
20.6596 6.198
20.6899 7.083
20.7201 6.406
20.7504 5.417
20.7807 7.135
20.8110 6.198
20.8412 5.521
20.8715 5.573
20.9018 6.146
20.9321 4.687
20.9624 6.458
20.9926 6.510
21.0229 6.146
21.0532 7.812
21.0835 6.094
21.1138 6.875
21.1440 6.562
21.1743 6.667
21.2046 6.927
21.2349 6.458
21.2651 6.354
21.2954 6.198
21.3257 6.094
21.3560 7.396
21.3863 6.667
21.4165 7.240
21.4468 6.771
21.4771 6.771
21.5074 5.990
21.5377 7.135
21.5679 7.500
21.5982 7.708
21.6285 6.042
21.6588 6.927
21.6890 6.094
21.7193 6.615
21.7496 6.250
21.7799 7.083
21.8102 7.656
21.8404 7.604
21.8707 8.021
21.9010 7.604
21.9313 7.292
21.9616 6.771
21.9918 7.135
22.0221 7.135
22.0524 7.292
22.0827 7.240
22.1129 7.552
22.1432 7.187
22.1735 6.719
22.2038 7.292
22.2341 7.969
22.2643 6.146
22.2946 7.656
22.3249 7.344
22.3552 7.031
22.3855 7.396
22.4157 7.865
22.4460 6.719
22.4763 7.812
22.5066 7.865
22.5368 6.250
22.5671 7.760
22.5974 8.542
22.6277 8.437
22.6580 8.177
22.6882 7.917
22.7185 6.979
22.7488 8.021
22.7791 7.240
22.8094 7.604
22.8396 8.594
22.8699 7.344
22.9002 8.437
22.9305 8.437
22.9607 9.427
22.9910 9.115
23.0213 8.542
23.0516 7.969
23.0819 8.906
23.1121 6.927
23.1424 8.750
23.1727 7.604
23.2030 8.958
23.2333 8.385
23.2635 8.177
23.2938 9.271
23.3241 7.865
23.3544 8.854
23.3846 8.385
23.4149 8.437
23.4452 8.594
23.4755 7.448
23.5058 8.437
23.5360 9.062
23.5663 7.656
23.5966 10.625
23.6269 10.052
23.6572 8.333
23.6874 9.844
23.7177 9.167
23.7480 9.948
23.7783 10.312
23.8086 10.729
23.8388 10.417
23.8691 10.573
23.8994 10.417
23.9297 10.833
23.9599 9.375
23.9902 9.740
24.0205 12.187
24.0508 10.365
24.0811 10.729
24.1113 10.833
24.1416 11.146
24.1719 12.135
24.2022 11.458
24.2325 12.500
24.2627 12.187
24.2930 13.073
24.3233 11.562
24.3536 13.021
24.3838 13.490
24.4141 14.010
24.4444 15.000
24.4747 13.802
24.5050 15.104
24.5352 16.146
24.5655 15.260
24.5958 13.958
24.6261 15.781
24.6564 18.385
24.6866 16.146
24.7169 16.875
24.7472 16.250
24.7775 17.187
24.8077 17.396
24.8380 18.854
24.8683 16.771
24.8986 18.490
24.9289 17.917
24.9591 20.833
24.9894 21.458
25.0197 19.635
25.0500 18.646
25.0803 21.094
25.1105 20.365
25.1408 18.125
25.1711 19.427
25.2014 22.031
25.2316 21.094
25.2619 21.510
25.2922 22.448
25.3225 21.875
25.3528 21.823
25.3830 24.167
25.4133 22.500
25.4436 22.396
25.4739 24.062
25.5042 23.177
25.5344 21.406
25.5647 24.115
25.5950 23.385
25.6253 22.292
25.6555 21.302
25.6858 21.562
25.7161 22.344
25.7464 22.969
25.7767 19.635
25.8069 20.937
25.8372 18.750
25.8675 19.271
25.8978 19.115
25.9281 19.479
25.9583 18.698
25.9886 17.292
26.0189 18.490
26.0492 17.344
26.0794 17.292
26.1097 18.125
26.1400 18.021
26.1703 18.646
26.2006 17.448
26.2308 15.833
26.2611 16.354
26.2914 15.417
26.3217 16.927
26.3520 14.792
26.3822 15.521
26.4125 17.656
26.4428 15.573
26.4731 14.375
26.5034 15.937
26.5336 14.062
26.5639 14.948
26.5942 14.740
26.6245 15.208
26.6547 15.573
26.6850 15.625
26.7153 16.406
26.7456 14.740
26.7759 16.354
26.8061 15.104
26.8364 17.396
26.8667 15.625
26.8970 16.562
26.9273 14.896
26.9575 16.406
26.9878 16.406
27.0181 15.937
27.0484 15.521
27.0786 19.010
27.1089 18.125
27.1392 16.250
27.1695 18.125
27.1998 19.115
27.2300 18.958
27.2603 19.219
27.2906 18.333
27.3209 19.740
27.3512 21.562
27.3814 19.479
27.4117 21.771
27.4420 19.583
27.4723 16.979
27.5025 20.052
27.5328 16.875
27.5631 19.219
27.5934 19.219
27.6237 19.219
27.6539 20.052
27.6842 20.625
27.7145 19.635
27.7448 19.948
27.7751 20.677
27.8053 20.365
27.8356 21.250
27.8659 21.667
27.8962 20.469
27.9264 20.052
27.9567 18.437
27.9870 23.177
28.0173 21.198
28.0476 19.219
28.0778 20.156
28.1081 20.156
28.1384 21.927
28.1687 20.260
28.1990 19.010
28.2292 20.208
28.2595 19.479
28.2898 19.271
28.3201 18.854
28.3503 19.531
28.3806 18.906
28.4109 19.062
28.4412 18.177
28.4715 18.490
28.5017 19.271
28.5320 17.552
28.5623 16.771
28.5926 16.667
28.6229 17.031
28.6531 17.344
28.6834 15.677
28.7137 17.656
28.7440 16.146
28.7742 16.094
28.8045 15.104
28.8348 15.469
28.8651 14.271
28.8954 14.583
28.9256 14.844
28.9559 14.479
28.9862 14.323
29.0165 13.958
29.0468 14.844
29.0770 14.375
29.1073 13.125
29.1376 11.875
29.1679 12.604
29.1981 14.010
29.2284 11.927
29.2587 13.490
29.2890 10.417
29.3193 11.146
29.3495 12.292
29.3798 11.302
29.4101 11.458
29.4404 11.198
29.4707 10.677
29.5009 11.927
29.5312 10.312
29.5615 10.417
29.5918 11.719
29.6221 10.260
29.6523 10.417
29.6826 10.208
29.7129 9.740
29.7432 9.896
29.7734 8.958
29.8037 9.687
29.8340 10.677
29.8643 10.417
29.8946 8.490
29.9248 8.802
29.9551 8.906
29.9854 7.865
30.0157 8.958
30.0460 9.844
30.0762 8.594
30.1065 8.698
30.1368 8.958
30.1671 8.437
30.1973 9.062
30.2276 8.177
30.2579 7.812
30.2882 9.062
30.3185 8.177
30.3487 8.594
30.3790 7.656
30.4093 8.021
30.4396 8.594
30.4699 7.292
30.5001 7.604
30.5304 7.604
30.5607 7.656
30.5910 6.146
30.6212 6.979
30.6515 7.344
30.6818 7.448
30.7121 9.427
30.7424 6.719
30.7726 7.083
30.8029 8.229
30.8332 8.385
30.8635 7.240
30.8938 6.771
30.9240 7.500
30.9543 6.458
30.9846 7.396
31.0149 6.615
31.0451 6.198
31.0754 6.927
31.1057 5.781
31.1360 6.667
31.1663 5.833
31.1965 6.719
31.2268 6.823
31.2571 6.562
31.2874 7.344
31.3177 7.240
31.3479 5.677
31.3782 6.458
31.4085 7.187
31.4388 7.135
31.4690 7.187
31.4993 7.135
31.5296 7.135
31.5599 6.250
31.5902 6.927
31.6204 7.031
31.6507 6.667
31.6810 6.302
31.7113 6.250
31.7416 7.448
31.7718 7.500
31.8021 5.781
31.8324 6.510
31.8627 6.510
31.8929 6.250
31.9232 6.771
31.9535 5.833
31.9838 6.667
32.0141 5.417
32.0443 6.979
32.0746 6.667
32.1049 6.198
32.1352 6.146
32.1655 7.031
32.1957 5.625
32.2260 5.833
32.2563 6.927
32.2866 5.573
32.3169 6.146
32.3471 5.729
32.3774 6.979
32.4077 6.094
32.4380 7.604
32.4682 6.510
32.4985 7.240
32.5288 6.094
32.5591 7.240
32.5894 6.875
32.6196 8.594
32.6499 8.021
32.6802 8.490
32.7105 10.833
32.7408 8.229
32.7710 8.073
32.8013 7.396
32.8316 7.604
32.8619 7.708
32.8921 6.406
32.9224 8.125
32.9527 6.927
32.9830 5.417
33.0133 6.406
33.0435 6.562
33.0738 6.302
33.1041 6.510
33.1344 6.042
33.1647 5.521
33.1949 5.885
33.2252 5.469
33.2555 6.406
33.2858 4.427
33.3160 5.990
33.3463 6.250
33.3766 6.302
33.4069 6.302
33.4372 6.302
33.4674 5.521
33.4977 6.875
33.5280 6.146
33.5583 5.208
33.5886 5.365
33.6188 6.198
33.6491 5.469
33.6794 5.833
33.7097 5.573
33.7399 6.198
33.7702 4.792
33.8005 6.667
33.8308 5.000
33.8611 4.896
33.8913 5.469
33.9216 7.031
33.9519 6.250
33.9822 4.740
34.0125 5.156
34.0427 5.312
34.0730 6.302
34.1033 5.625
34.1336 5.260
34.1638 4.792
34.1941 5.260
34.2244 5.521
34.2547 6.094
34.2850 5.365
34.3152 5.469
34.3455 5.729
34.3758 6.250
34.4061 6.146
34.4364 6.042
34.4666 5.417
34.4969 4.531
34.5272 6.198
34.5575 6.979
34.5877 6.406
34.6180 5.260
34.6483 4.844
34.6786 6.302
34.7089 6.823
34.7391 6.406
34.7694 5.208
34.7997 6.042
34.8300 5.208
34.8603 5.885
34.8905 6.094
34.9208 5.573
34.9511 5.208
34.9814 5.833
35.0116 5.365
35.0419 6.615
35.0722 6.615
35.1025 5.625
35.1328 5.833
35.1630 6.562
35.1933 5.729
35.2236 5.990
35.2539 5.937
35.2842 6.510
35.3144 5.104
35.3447 5.990
35.3750 6.927
35.4053 5.104
35.4356 5.417
35.4658 5.885
35.4961 5.417
35.5264 6.042
35.5567 5.625
35.5869 6.667
35.6172 6.823
35.6475 6.250
35.6778 5.937
35.7081 6.302
35.7383 5.573
35.7686 6.615
35.7989 5.417
35.8292 5.729
35.8595 5.365
35.8897 5.990
35.9200 5.625
35.9503 5.937
35.9806 6.198
36.0108 5.937
36.0411 5.937
36.0714 5.156
36.1017 6.094
36.1320 5.104
36.1622 5.208
36.1925 5.000
36.2228 3.750
36.2531 5.156
36.2834 5.104
36.3136 5.156
36.3439 5.573
36.3742 5.156
36.4045 4.896
36.4347 5.156
36.4650 4.844
36.4953 4.948
36.5256 5.312
36.5559 5.469
36.5861 5.521
36.6164 4.479
36.6467 3.750
36.6770 5.365
36.7073 5.260
36.7375 4.844
36.7678 5.208
36.7981 4.896
36.8284 5.312
36.8586 4.531
36.8889 5.156
36.9192 5.156
36.9495 4.323
36.9798 5.000
37.0100 4.115
37.0403 5.104
37.0706 4.062
37.1009 5.260
37.1312 4.115
37.1614 5.052
37.1917 5.469
37.2220 5.365
37.2523 5.208
37.2825 5.521
37.3128 5.000
37.3431 5.000
37.3734 4.635
37.4037 4.479
37.4339 5.469
37.4642 5.104
37.4945 4.219
37.5248 4.844
37.5551 4.531
37.5853 4.115
37.6156 5.521
37.6459 5.156
37.6762 5.573
37.7064 4.271
37.7367 4.844
37.7670 4.271
37.7973 4.427
37.8276 4.948
37.8578 5.260
37.8881 5.208
37.9184 6.146
37.9487 4.896
37.9790 4.896
38.0092 5.052
38.0395 5.104
38.0698 4.479
38.1001 4.479
38.1304 5.469
38.1606 4.427
38.1909 5.573
38.2212 4.375
38.2515 4.583
38.2817 4.948
38.3120 4.531
38.3423 5.104
38.3726 4.531
38.4029 4.062
38.4331 4.271
38.4634 5.104
38.4937 4.375
38.5240 4.323
38.5543 4.896
38.5845 4.687
38.6148 4.167
38.6451 4.583
38.6754 5.000
38.7056 4.531
38.7359 4.792
38.7662 3.750
38.7965 5.000
38.8268 4.167
38.8570 4.115
38.8873 5.104
38.9176 4.479
38.9479 5.104
38.9782 5.000
39.0084 5.208
39.0387 4.219
39.0690 4.531
39.0993 3.906
39.1295 4.740
39.1598 4.479
39.1901 3.854
39.2204 3.854
39.2507 4.062
39.2809 4.115
39.3112 3.958
39.3415 4.062
39.3718 4.271
39.4021 3.802
39.4323 3.385
39.4626 4.010
39.4929 3.906
39.5232 4.740
39.5534 4.427
39.5837 4.219
39.6140 3.229
39.6443 4.323
39.6746 4.583
39.7048 4.740
39.7351 3.750
39.7654 3.854
39.7957 3.333
39.8260 3.958
39.8562 4.583
39.8865 3.698
39.9168 3.073
39.9471 3.542
39.9773 3.802
40.0076 3.594
40.0379 4.479
40.0682 3.906
40.0985 4.167
40.1287 3.854
40.1590 4.375
40.1893 3.906
40.2196 3.646
40.2499 3.490
40.2801 4.115
40.3104 2.812
40.3407 5.000
40.3710 4.062
40.4012 4.323
40.4315 4.375
40.4618 3.698
40.4921 3.490
40.5224 3.958
40.5526 3.906
40.5829 3.958
40.6132 3.594
40.6435 3.490
40.6738 3.854
40.7040 4.115
40.7343 3.750
40.7646 4.740
40.7949 4.219
40.8251 3.229
40.8554 4.427
40.8857 3.854
40.9160 4.375
40.9463 4.010
40.9765 4.740
41.0068 3.490
41.0371 3.490
41.0674 3.542
41.0977 3.958
41.1279 4.271
41.1582 4.479
41.1885 3.906
41.2188 4.115
41.2491 4.375
41.2793 4.062
41.3096 4.531
41.3399 4.062
41.3702 4.115
41.4004 3.750
41.4307 4.948
41.4610 4.115
41.4913 4.687
41.5216 4.115
41.5518 4.219
41.5821 4.271
41.6124 4.010
41.6427 4.427
41.6730 4.427
41.7032 4.115
41.7335 3.802
41.7638 4.010
41.7941 3.646
41.8243 3.958
41.8546 4.062
41.8849 4.167
41.9152 3.802
41.9455 4.219
41.9757 3.490
42.0060 4.635
42.0363 4.115
42.0666 4.375
42.0969 4.479
42.1271 4.219
42.1574 3.385
42.1877 3.958
42.2180 3.958
42.2482 3.802
42.2785 3.437
42.3088 3.802
42.3391 3.802
42.3694 3.490
42.3996 4.531
42.4299 4.375
42.4602 4.115
42.4905 4.375
42.5208 4.010
42.5510 3.385
42.5813 3.646
42.6116 3.594
42.6419 3.906
42.6721 4.062
42.7024 3.229
42.7327 4.323
42.7630 3.333
42.7933 4.010
42.8235 2.812
42.8538 3.333
42.8841 3.542
42.9144 3.958
42.9447 3.281
42.9749 3.854
43.0052 3.906
43.0355 3.542
43.0658 3.437
43.0960 3.385
43.1263 2.917
43.1566 3.490
43.1869 2.917
43.2172 3.021
43.2474 3.229
43.2777 3.542
43.3080 2.708
43.3383 3.333
43.3686 4.375
43.3988 3.281
43.4291 3.177
43.4594 3.125
43.4897 4.531
43.5199 3.542
43.5502 3.177
43.5805 3.646
43.6108 3.490
43.6411 3.437
43.6713 2.552
43.7016 3.698
43.7319 3.229
43.7622 3.854
43.7925 3.073
43.8227 3.073
43.8530 3.073
43.8833 3.177
43.9136 4.271
43.9439 3.281
43.9741 2.969
44.0044 3.906
44.0347 3.281
44.0650 3.125
44.0952 2.552
44.1255 3.750
44.1558 3.073
44.1861 3.021
44.2164 3.333
44.2466 2.865
44.2769 2.917
44.3072 2.865
44.3375 3.594
44.3678 2.552
44.3980 3.333
44.4283 3.594
44.4586 2.812
44.4889 2.760
44.5191 3.385
44.5494 3.281
44.5797 2.760
44.6100 3.854
44.6403 2.917
44.6705 3.750
44.7008 2.865
44.7311 3.750
44.7614 4.010
44.7917 2.656
44.8219 3.802
44.8522 3.021
44.8825 3.333
44.9128 3.021
44.9430 3.906
44.9733 2.344
45.0036 2.656
45.0339 2.969
45.0642 3.385
45.0944 3.229
45.1247 3.437
45.1550 2.760
45.1853 3.594
45.2156 3.542
45.2458 3.802
45.2761 3.385
45.3064 2.708
45.3367 3.750
45.3669 3.229
45.3972 2.917
45.4275 3.802
45.4578 3.437
45.4881 4.010
45.5183 3.698
45.5486 2.969
45.5789 2.969
45.6092 3.542
45.6395 3.229
45.6697 3.802
45.7000 4.062
45.7303 4.062
45.7606 3.750
45.7908 3.021
45.8211 3.281
45.8514 3.177
45.8817 3.698
45.9120 4.010
45.9422 3.177
45.9725 3.646
46.0028 3.594
46.0331 2.448
46.0634 2.917
46.0936 2.865
46.1239 3.802
46.1542 3.646
46.1845 3.229
46.2147 3.385
46.2450 3.594
46.2753 3.490
46.3056 2.865
46.3359 3.021
46.3661 2.760
46.3964 3.646
46.4267 3.854
46.4570 3.333
46.4873 3.385
46.5175 2.604
46.5478 2.552
46.5781 3.385
46.6084 3.542
46.6386 3.802
46.6689 3.281
46.6992 3.125
46.7295 4.010
46.7598 3.073
46.7900 3.281
46.8203 3.646
46.8506 3.073
46.8809 3.333
46.9112 3.125
46.9414 3.542
46.9717 3.698
47.0020 3.333
47.0323 2.917
47.0626 3.281
47.0928 3.698
47.1231 3.229
47.1534 3.646
47.1837 4.115
47.2139 3.021
47.2442 3.437
47.2745 3.646
47.3048 3.385
47.3351 3.125
47.3653 3.854
47.3956 3.698
47.4259 3.281
47.4562 4.219
47.4865 2.448
47.5167 3.333
47.5470 3.750
47.5773 3.854
47.6076 3.437
47.6378 3.854
47.6681 4.062
47.6984 4.375
47.7287 3.958
47.7590 3.958
47.7892 4.167
47.8195 4.010
47.8498 3.021
47.8801 3.177
47.9104 3.177
47.9406 3.281
47.9709 3.281
48.0012 3.646
48.0315 3.542
48.0617 3.958
48.0920 3.281
48.1223 3.698
48.1526 3.437
48.1829 3.229
48.2131 3.698
48.2434 3.490
48.2737 3.385
48.3040 3.958
48.3343 3.542
48.3645 3.958
48.3948 4.271
48.4251 2.812
48.4554 2.917
48.4856 3.854
48.5159 4.010
48.5462 4.062
48.5765 4.115
48.6068 4.427
48.6370 4.948
48.6673 3.542
48.6976 4.479
48.7279 3.854
48.7582 4.375
48.7884 4.219
48.8187 4.635
48.8490 4.896
48.8793 4.896
48.9095 4.323
48.9398 3.646
48.9701 5.104
49.0004 4.323
49.0307 4.010
49.0609 4.375
49.0912 4.948
49.1215 4.167
49.1518 4.635
49.1821 4.896
49.2123 5.156
49.2426 3.958
49.2729 4.635
49.3032 4.740
49.3334 4.792
49.3637 4.479
49.3940 4.531
49.4243 4.740
49.4546 4.427
49.4848 4.844
49.5151 4.635
49.5454 4.635
49.5757 5.625
49.6060 6.667
49.6362 5.156
49.6665 4.167
49.6968 4.792
49.7271 5.000
49.7574 5.208
49.7876 5.104
49.8179 4.948
49.8482 5.677
49.8785 5.781
49.9087 6.667
49.9390 4.844
49.9693 6.510
49.9996 5.729
50.0299 6.615
50.0601 5.469
50.0904 6.146
50.1207 5.208
50.1510 6.198
50.1813 7.135
50.2115 6.979
50.2418 6.771
50.2721 8.594
50.3024 5.990
50.3326 7.812
50.3629 8.490
50.3932 8.854
50.4235 7.865
50.4538 8.542
50.4840 8.021
50.5143 9.062
50.5446 8.698
50.5749 7.604
50.6052 8.073
50.6354 10.729
50.6657 8.802
50.6960 9.583
50.7263 9.323
50.7565 10.052
50.7868 9.323
50.8171 9.010
50.8474 9.010
50.8777 10.000
50.9079 10.104
50.9382 10.052
50.9685 10.312
50.9988 9.375
51.0291 9.844
51.0593 10.781
51.0896 9.531
51.1199 9.271
51.1502 9.635
51.1804 9.740
51.2107 9.896
51.2410 8.698
51.2713 9.062
51.3016 9.896
51.3318 8.542
51.3621 10.000
51.3924 8.333
51.4227 8.021
51.4530 9.010
51.4832 9.427
51.5135 8.698
51.5438 8.490
51.5741 7.812
51.6043 9.219
51.6346 9.792
51.6649 8.437
51.6952 7.865
51.7255 8.698
51.7557 7.552
51.7860 8.333
51.8163 7.708
51.8466 7.396
51.8769 8.177
51.9071 7.083
51.9374 7.917
51.9677 7.865
51.9980 7.396
52.0282 6.615
52.0585 8.437
52.0888 7.708
52.1191 7.552
52.1494 6.354
52.1796 6.406
52.2099 6.823
52.2402 7.031
52.2705 6.771
52.3008 6.667
52.3310 6.979
52.3613 6.719
52.3916 6.979
52.4219 6.510
52.4521 6.771
52.4824 8.021
52.5127 6.302
52.5430 6.719
52.5733 6.771
52.6035 6.615
52.6338 6.615
52.6641 5.677
52.6944 5.885
52.7247 6.302
52.7549 6.042
52.7852 6.042
52.8155 6.771
52.8458 5.312
52.8761 6.354
52.9063 5.885
52.9366 5.625
52.9669 5.677
52.9972 6.250
53.0274 6.354
53.0577 5.677
53.0880 5.156
53.1183 6.146
53.1486 5.937
53.1788 5.573
53.2091 5.052
53.2394 5.729
53.2697 6.354
53.3000 4.219
53.3302 5.365
53.3605 5.469
53.3908 4.896
53.4211 5.312
53.4513 5.417
53.4816 5.937
53.5119 5.365
53.5422 5.052
53.5725 4.844
53.6027 4.896
53.6330 5.208
53.6633 5.469
53.6936 5.208
53.7239 4.687
53.7541 5.729
53.7844 5.156
53.8147 4.583
53.8450 4.948
53.8752 4.219
53.9055 4.635
53.9358 4.844
53.9661 4.271
53.9964 4.687
54.0266 4.323
54.0569 5.417
54.0872 4.010
54.1175 4.167
54.1478 4.531
54.1780 4.948
54.2083 5.677
54.2386 3.750
54.2689 3.802
54.2991 4.687
54.3294 4.271
54.3597 4.531
54.3900 5.208
54.4203 4.531
54.4505 4.375
54.4808 4.792
54.5111 3.958
54.5414 3.854
54.5717 4.687
54.6019 3.490
54.6322 4.948
54.6625 4.896
54.6928 3.854
54.7230 3.854
54.7533 4.010
54.7836 4.583
54.8139 3.698
54.8442 3.646
54.8744 3.750
54.9047 3.385
54.9350 4.167
54.9653 4.271
54.9956 4.531
55.0258 4.115
55.0561 4.375
55.0864 3.802
55.1167 3.333
55.1469 4.062
55.1772 3.698
55.2075 3.958
55.2378 3.125
55.2681 3.698
55.2983 4.375
55.3286 3.802
55.3589 4.219
55.3892 4.323
55.4195 3.698
55.4497 3.542
55.4800 4.010
55.5103 3.490
55.5406 4.167
55.5709 3.698
55.6011 3.594
55.6314 3.177
55.6617 4.740
55.6920 4.062
55.7222 3.073
55.7525 3.385
55.7828 3.073
55.8131 3.281
55.8434 4.010
55.8736 4.219
55.9039 4.115
55.9342 4.062
55.9645 3.021
55.9948 4.010
56.0250 4.375
56.0553 3.646
56.0856 3.646
56.1159 3.177
56.1461 2.917
56.1764 3.542
56.2067 2.500
56.2370 3.385
56.2673 3.542
56.2975 3.750
56.3278 3.177
56.3581 2.812
56.3884 3.802
56.4187 3.333
56.4489 3.542
56.4792 3.646
56.5095 3.542
56.5398 3.750
56.5700 3.125
56.6003 3.125
56.6306 3.802
56.6609 3.646
56.6912 3.542
56.7214 3.385
56.7517 3.125
56.7820 4.479
56.8123 3.333
56.8426 4.167
56.8728 3.958
56.9031 3.646
56.9334 3.646
56.9637 3.385
56.9939 3.229
57.0242 3.490
57.0545 3.385
57.0848 3.125
57.1151 3.594
57.1453 3.750
57.1756 3.906
57.2059 3.698
57.2362 2.865
57.2665 3.333
57.2967 2.917
57.3270 3.385
57.3573 3.385
57.3876 2.708
57.4178 3.594
57.4481 3.594
57.4784 3.542
57.5087 2.969
57.5390 3.958
57.5692 2.812
57.5995 3.177
57.6298 4.427
57.6601 2.917
57.6904 2.344
57.7206 3.385
57.7509 2.865
57.7812 3.542
57.8115 2.865
57.8417 2.604
57.8720 3.490
57.9023 2.344
57.9326 3.490
57.9629 3.437
57.9931 3.542
58.0234 2.969
58.0537 3.229
58.0840 3.646
58.1143 2.917
58.1445 3.490
58.1748 3.490
58.2051 3.750
58.2354 2.865
58.2656 3.646
58.2959 2.396
58.3262 3.542
58.3565 3.802
58.3868 3.802
58.4170 4.062
58.4473 3.490
58.4776 3.802
58.5079 4.271
58.5382 3.333
58.5684 3.229
58.5987 3.750
58.6290 3.333
58.6593 3.542
58.6896 3.177
58.7198 3.437
58.7501 3.646
58.7804 3.229
58.8107 3.437
58.8409 3.490
58.8712 3.542
58.9015 3.177
58.9318 3.542
58.9621 3.698
58.9923 3.073
59.0226 3.594
59.0529 3.229
59.0832 2.865
59.1135 3.229
59.1437 3.854
59.1740 4.427
59.2043 3.802
59.2346 3.281
59.2648 3.281
59.2951 2.760
59.3254 3.698
59.3557 3.750
59.3860 3.385
59.4162 2.969
59.4465 4.062
59.4768 3.802
59.5071 3.177
59.5374 4.062
59.5676 4.115
59.5979 4.115
59.6282 3.646
59.6585 3.698
59.6887 3.177
59.7190 3.750
59.7493 3.958
59.7796 4.323
59.8099 3.281
59.8401 3.958
59.8704 3.802
59.9007 3.385
59.9310 3.542
59.9613 3.698
59.9915 3.125
60.0218 3.906
60.0521 4.010
60.0824 3.750
60.1126 4.219
60.1429 3.542
60.1732 3.073
60.2035 3.437
60.2338 4.115
60.2640 4.010
60.2943 2.656
60.3246 3.437
60.3549 3.281
60.3852 3.854
60.4154 3.490
60.4457 3.437
60.4760 4.010
60.5063 3.281
60.5365 3.333
60.5668 3.177
60.5971 3.646
60.6274 3.750
60.6577 3.281
60.6879 3.750
60.7182 3.281
60.7485 3.854
60.7788 4.323
60.8091 4.687
60.8393 3.854
60.8696 3.542
60.8999 4.219
60.9302 3.906
60.9604 3.906
60.9907 4.375
61.0210 4.010
61.0513 3.281
61.0816 4.479
61.1118 4.531
61.1421 5.312
61.1724 4.010
61.2027 4.375
61.2330 4.896
61.2632 4.323
61.2935 3.750
61.3238 4.115
61.3541 4.427
61.3844 5.052
61.4146 5.260
61.4449 5.000
61.4752 5.052
61.5055 4.323
61.5357 5.156
61.5660 4.844
61.5963 5.104
61.6266 4.583
61.6569 4.896
61.6871 5.521
61.7174 4.375
61.7477 4.687
61.7780 4.948
61.8083 4.792
61.8385 5.312
61.8688 6.667
61.8991 6.146
61.9294 5.365
61.9596 5.052
61.9899 5.677
62.0202 4.531
62.0505 6.615
62.0808 5.156
62.1110 6.250
62.1413 5.833
62.1716 4.896
62.2019 5.781
62.2322 5.260
62.2624 4.948
62.2927 6.250
62.3230 5.104
62.3533 4.687
62.3835 6.198
62.4138 5.781
62.4441 6.406
62.4744 5.573
62.5047 6.979
62.5349 6.042
62.5652 5.573
62.5955 5.677
62.6258 5.625
62.6561 5.729
62.6863 5.469
62.7166 5.781
62.7469 4.635
62.7772 5.990
62.8074 5.260
62.8377 4.844
62.8680 4.531
62.8983 4.948
62.9286 5.260
62.9588 5.469
62.9891 5.573
63.0194 4.219
63.0497 5.937
63.0800 4.844
63.1102 4.844
63.1405 4.740
63.1708 5.156
63.2011 4.687
63.2313 4.792
63.2616 4.844
63.2919 5.156
63.3222 4.062
63.3525 4.635
63.3827 4.323
63.4130 4.062
63.4433 4.635
63.4736 4.219
63.5039 4.687
63.5341 4.531
63.5644 4.635
63.5947 3.854
63.6250 4.896
63.6552 3.854
63.6855 4.010
63.7158 3.594
63.7461 5.104
63.7764 4.323
63.8066 4.583
63.8369 4.427
63.8672 3.958
63.8975 5.000
63.9278 4.635
63.9580 3.281
63.9883 3.750
64.0186 4.167
64.0489 4.115
64.0791 4.219
64.1094 4.375
64.1397 4.167
64.1700 3.594
64.2003 3.906
64.2305 4.323
64.2608 3.802
64.2911 3.906
64.3214 5.000
64.3517 4.010
64.3819 3.698
64.4122 3.854
64.4425 4.115
64.4728 3.906
64.5031 4.271
64.5333 4.323
64.5636 4.062
64.5939 4.375
64.6242 3.594
64.6544 3.802
64.6847 3.958
64.7150 4.115
64.7453 3.958
64.7756 3.594
64.8058 3.594
64.8361 3.698
64.8664 3.542
64.8967 3.490
64.9270 3.021
64.9572 4.062
64.9875 3.542
65.0178 3.021
65.0481 3.698
65.0783 3.490
65.1086 3.437
65.1389 3.594
65.1692 4.062
65.1995 3.333
65.2297 4.010
65.2600 3.385
65.2903 4.115
65.3206 3.594
65.3509 3.021
65.3811 4.010
65.4114 3.385
65.4417 3.437
65.4720 2.969
65.5022 3.073
65.5325 3.698
65.5628 3.698
65.5931 2.812
65.6234 2.812
65.6536 3.125
65.6839 3.333
65.7142 4.375
65.7445 3.854
65.7748 2.708
65.8050 3.542
65.8353 2.760
65.8656 3.906
65.8959 3.490
65.9261 2.812
65.9564 3.021
65.9867 3.385
66.0170 3.646
66.0473 3.125
66.0775 2.708
66.1078 2.969
66.1381 4.115
66.1684 2.865
66.1987 3.021
66.2289 3.177
66.2592 3.125
66.2895 3.385
66.3198 3.437
66.3500 3.542
66.3803 3.698
66.4106 3.542
66.4409 2.865
66.4712 2.552
66.5014 2.812
66.5317 3.490
66.5620 4.323
66.5923 3.125
66.6226 2.604
66.6528 2.812
66.6831 3.229
66.7134 3.542
66.7437 2.812
66.7739 2.500
66.8042 2.656
66.8345 3.021
66.8648 2.500
66.8951 2.969
66.9253 2.917
66.9556 3.177
66.9859 2.656
67.0162 3.802
67.0465 3.177
67.0767 2.917
67.1070 2.865
67.1373 3.229
67.1676 1.979
67.1978 2.917
67.2281 3.333
67.2584 2.552
67.2887 3.177
67.3190 2.969
67.3492 2.656
67.3795 3.385
67.4098 2.396
67.4401 2.865
67.4704 3.125
67.5006 2.240
67.5309 2.604
67.5612 1.979
67.5915 2.656
67.6218 2.552
67.6520 3.229
67.6823 2.344
67.7126 3.333
67.7429 3.125
67.7731 2.500
67.8034 2.604
67.8337 2.448
67.8640 2.604
67.8943 3.177
67.9245 2.760
67.9548 3.177
67.9851 2.552
68.0154 3.021
68.0457 2.604
68.0759 2.865
68.1062 2.344
68.1365 2.552
68.1668 2.344
68.1970 1.927
68.2273 2.760
68.2576 2.344
68.2879 2.708
68.3182 2.292
68.3484 2.917
68.3787 2.969
68.4090 3.177
68.4393 2.708
68.4696 2.708
68.4998 2.344
68.5301 2.500
68.5604 2.292
68.5907 2.292
68.6209 1.927
68.6512 2.448
68.6815 2.812
68.7118 2.344
68.7421 2.344
68.7723 2.083
68.8026 3.437
68.8329 2.552
68.8632 2.708
68.8935 2.344
68.9237 2.031
68.9540 2.865
68.9843 2.865
69.0146 2.708
69.0448 3.177
69.0751 2.552
69.1054 2.240
69.1357 2.500
69.1660 2.656
69.1962 2.031
69.2265 1.875
69.2568 1.823
69.2871 2.760
69.3174 2.604
69.3476 2.552
69.3779 2.812
69.4082 2.917
69.4385 2.344
69.4687 2.031
69.4990 2.604
69.5293 3.073
69.5596 2.760
69.5899 2.187
69.6201 2.344
69.6504 2.760
69.6807 2.396
69.7110 2.969
69.7413 2.969
69.7715 2.865
69.8018 2.656
69.8321 2.292
69.8624 2.604
69.8926 2.656
69.9229 1.510
69.9532 2.812
69.9835 2.292
70.0138 2.448
70.0440 2.604
70.0743 2.500
70.1046 2.656
70.1349 2.344
70.1652 3.333
70.1954 2.448
70.2257 2.865
70.2560 2.604
70.2863 2.760
70.3166 2.604
70.3468 1.771
70.3771 2.292
70.4074 1.979
70.4377 2.344
70.4679 3.229
70.4982 2.083
70.5285 1.771
70.5588 2.656
70.5891 2.396
70.6193 3.177
70.6496 2.760
70.6799 2.031
70.7102 2.604
70.7405 2.760
70.7707 2.240
70.8010 3.281
70.8313 2.344
70.8616 2.396
70.8918 2.083
70.9221 1.875
70.9524 2.396
70.9827 2.292
71.0130 2.344
71.0432 2.708
71.0735 2.135
71.1038 2.344
71.1341 2.240
71.1644 2.240
71.1946 2.396
71.2249 2.344
71.2552 2.240
71.2855 2.604
71.3157 2.656
71.3460 2.292
71.3763 2.708
71.4066 2.604
71.4369 2.344
71.4671 2.292
71.4974 2.396
71.5277 2.135
71.5580 2.083
71.5883 2.604
71.6185 1.979
71.6488 2.448
71.6791 2.552
71.7094 2.812
71.7396 2.031
71.7699 2.812
71.8002 2.500
71.8305 2.448
71.8608 2.240
71.8910 2.604
71.9213 2.604
71.9516 2.135
71.9819 2.240
72.0122 2.083
72.0424 2.240
72.0727 2.240
72.1030 2.240
72.1333 2.083
72.1635 2.448
72.1938 2.240
72.2241 2.292
72.2544 2.240
72.2847 2.135
72.3149 2.292
72.3452 2.135
72.3755 2.448
72.4058 2.240
72.4361 2.500
72.4663 1.771
72.4966 2.292
72.5269 3.229
72.5572 2.604
72.5874 2.135
72.6177 3.177
72.6480 2.240
72.6783 1.979
72.7086 2.344
72.7388 2.917
72.7691 2.344
72.7994 2.240
72.8297 1.875
72.8600 1.979
72.8902 2.031
72.9205 2.344
72.9508 2.187
72.9811 2.708
73.0113 2.448
73.0416 2.708
73.0719 2.396
73.1022 2.292
73.1325 2.344
73.1627 2.812
73.1930 2.500
73.2233 2.604
73.2536 2.448
73.2839 2.708
73.3141 1.875
73.3444 2.708
73.3747 2.344
73.4050 2.031
73.4353 3.177
73.4655 1.771
73.4958 2.708
73.5261 2.500
73.5564 2.187
73.5866 2.448
73.6169 2.292
73.6472 2.135
73.6775 2.708
73.7078 3.021
73.7380 2.448
73.7683 2.656
73.7986 2.344
73.8289 2.240
73.8592 2.656
73.8894 3.125
73.9197 2.708
73.9500 3.021
73.9803 2.865
74.0105 2.604
74.0408 2.656
74.0711 2.187
74.1014 2.344
74.1317 2.604
74.1619 2.708
74.1922 2.812
74.2225 2.552
74.2528 2.396
74.2831 2.552
74.3133 2.708
74.3436 2.708
74.3739 2.448
74.4042 2.708
74.4344 3.125
74.4647 1.875
74.4950 2.135
74.5253 2.552
74.5556 3.073
74.5858 2.812
74.6161 3.281
74.6464 3.229
74.6767 2.344
74.7070 2.604
74.7372 2.604
74.7675 2.448
74.7978 2.708
74.8281 2.917
74.8583 2.708
74.8886 3.646
74.9189 2.448
74.9492 2.396
74.9795 2.656
75.0097 2.344
75.0400 1.875
75.0703 2.552
75.1006 2.656
75.1309 2.344
75.1611 2.500
75.1914 2.812
75.2217 2.760
75.2520 1.771
75.2822 3.021
75.3125 2.760
75.3428 2.500
75.3731 3.073
75.4034 2.656
75.4336 2.448
75.4639 2.604
75.4942 2.865
75.5245 2.031
75.5548 2.656
75.5850 3.229
75.6153 2.448
75.6456 1.979
75.6759 2.865
75.7061 2.187
75.7364 2.500
75.7667 2.656
75.7970 2.292
75.8273 2.656
75.8575 2.604
75.8878 2.604
75.9181 2.656
75.9484 2.656
75.9787 2.448
76.0089 2.135
76.0392 2.604
76.0695 3.229
76.0998 2.396
76.1301 2.135
76.1603 2.448
76.1906 2.396
76.2209 2.552
76.2512 2.656
76.2814 2.344
76.3117 1.875
76.3420 1.875
76.3723 2.656
76.4026 2.292
76.4328 2.187
76.4631 1.979
76.4934 2.969
76.5237 2.187
76.5540 2.552
76.5842 1.771
76.6145 2.187
76.6448 2.344
76.6751 2.031
76.7053 1.510
76.7356 1.562
76.7659 2.969
76.7962 2.240
76.8265 1.823
76.8567 2.969
76.8870 2.292
76.9173 2.344
76.9476 2.708
76.9779 2.448
77.0081 2.135
77.0384 2.083
77.0687 2.448
77.0990 2.292
77.1292 1.979
77.1595 2.135
77.1898 2.240
77.2201 1.927
77.2504 2.760
77.2806 2.187
77.3109 2.031
77.3412 2.500
77.3715 2.292
77.4018 2.083
77.4320 2.031
77.4623 2.552
77.4926 2.292
77.5229 2.604
77.5531 1.927
77.5834 2.656
77.6137 2.760
77.6440 2.135
77.6743 2.552
77.7045 2.135
77.7348 1.823
77.7651 1.979
77.7954 2.135
77.8257 2.031
77.8559 2.240
77.8862 2.448
77.9165 2.083
77.9468 2.500
77.9770 2.031
78.0073 1.875
78.0376 1.979
78.0679 2.865
78.0982 2.031
78.1284 2.448
78.1587 2.292
78.1890 1.875
78.2193 1.823
78.2496 2.448
78.2798 1.875
78.3101 2.135
78.3404 2.500
78.3707 2.187
78.4009 2.500
78.4312 1.562
78.4615 1.771
78.4918 1.719
78.5221 2.552
78.5523 1.875
78.5826 2.083
78.6129 2.917
78.6432 2.448
78.6735 2.187
78.7037 2.187
78.7340 2.604
78.7643 1.823
78.7946 2.292
78.8248 2.135
78.8551 2.500
78.8854 2.083
78.9157 1.979
78.9460 2.552
78.9762 2.135
79.0065 2.135
79.0368 2.135
79.0671 1.458
79.0974 2.031
79.1276 1.771
79.1579 1.823
79.1882 2.135
79.2185 1.927
79.2488 2.187
79.2790 2.865
79.3093 2.604
79.3396 2.344
79.3699 1.979
79.4001 1.927
79.4304 1.875
79.4607 2.917
79.4910 1.719
79.5213 2.135
79.5515 2.135
79.5818 2.812
79.6121 2.135
79.6424 1.823
79.6727 2.552
79.7029 1.719
79.7332 2.240
79.7635 2.448
79.7938 2.344
79.8240 2.135
79.8543 2.083
79.8846 1.667
79.9149 1.615
79.9452 2.708
79.9754 2.135
80.0057 2.865
80.0360 2.083
80.0663 2.031
80.0966 2.292
80.1268 1.979
80.1571 2.448
80.1874 1.667
80.2177 2.812
80.2479 1.927
80.2782 1.875
80.3085 1.875
80.3388 2.448
80.3691 2.344
80.3993 2.240
80.4296 2.292
80.4599 1.979
80.4902 2.083
80.5205 2.344
80.5507 2.083
80.5810 3.333
80.6113 2.812
80.6416 2.292
80.6718 2.187
80.7021 1.510
80.7324 2.083
80.7627 2.135
80.7930 2.083
80.8232 1.927
80.8535 2.135
80.8838 2.552
80.9141 2.031
80.9444 2.083
80.9746 2.031
81.0049 2.240
81.0352 2.917
81.0655 2.240
81.0957 2.448
81.1260 2.812
81.1563 2.604
81.1866 2.604
81.2169 2.344
81.2471 2.969
81.2774 1.823
81.3077 2.344
81.3380 2.812
81.3683 1.667
81.3985 2.240
81.4288 2.396
81.4591 2.292
81.4894 2.187
81.5196 2.448
81.5499 2.708
81.5802 2.292
81.6105 2.812
81.6408 2.083
81.6710 2.604
81.7013 2.344
81.7316 2.552
81.7619 2.656
81.7922 2.396
81.8224 2.396
81.8527 2.187
81.8830 2.448
81.9133 2.396
81.9436 2.500
81.9738 2.917
82.0041 2.135
82.0344 1.875
82.0647 2.292
82.0949 2.708
82.1252 2.656
82.1555 2.865
82.1858 2.865
82.2161 2.135
82.2463 2.604
82.2766 2.187
82.3069 2.031
82.3372 2.344
82.3675 2.604
82.3977 3.073
82.4280 2.135
82.4583 2.396
82.4886 2.135
82.5188 2.604
82.5491 2.396
82.5794 2.187
82.6097 2.135
82.6400 2.448
82.6702 3.073
82.7005 2.083
82.7308 2.604
82.7611 2.187
82.7914 2.187
82.8216 2.344
82.8519 1.771
82.8822 2.135
82.9125 1.979
82.9427 2.135
82.9730 2.552
83.0033 2.917
83.0336 2.604
83.0639 2.969
83.0941 2.031
83.1244 2.500
83.1547 2.240
83.1850 2.135
83.2153 2.396
83.2455 2.031
83.2758 2.344
83.3061 3.073
83.3364 1.979
83.3666 2.240
83.3969 2.604
83.4272 2.448
83.4575 2.344
83.4878 1.875
83.5180 2.604
83.5483 2.604
83.5786 2.240
83.6089 2.969
83.6392 3.073
83.6694 2.500
83.6997 2.187
83.7300 2.760
83.7603 2.083
83.7905 1.823
83.8208 2.187
83.8511 2.083
83.8814 2.135
83.9117 3.021
83.9419 1.719
83.9722 2.292
84.0025 1.719
84.0328 2.448
84.0631 2.448
84.0933 2.917
84.1236 1.979
84.1539 2.760
84.1842 2.917
84.2144 2.708
84.2447 2.500
84.2750 2.812
84.3053 2.083
84.3356 2.135
84.3658 2.760
84.3961 2.240
84.4264 2.552
84.4567 2.292
84.4870 2.031
84.5172 2.135
84.5475 2.865
84.5778 2.500
84.6081 2.135
84.6383 2.187
84.6686 2.187
84.6989 1.979
84.7292 2.917
84.7595 2.135
84.7897 2.604
84.8200 1.771
84.8503 2.552
84.8806 2.865
84.9109 1.562
84.9411 2.344
84.9714 1.979
85.0017 2.187
85.0320 2.135
85.0623 2.500
85.0925 2.396
85.1228 2.292
85.1531 2.812
85.1834 2.292
85.2136 2.344
85.2439 2.448
85.2742 2.552
85.3045 2.135
85.3348 2.292
85.3650 2.604
85.3953 2.604
85.4256 1.979
85.4559 3.073
85.4862 2.396
85.5164 2.135
85.5467 2.083
85.5770 2.135
85.6073 1.823
85.6375 2.135
85.6678 2.812
85.6981 2.604
85.7284 2.500
85.7587 2.187
85.7889 2.240
85.8192 1.927
85.8495 2.969
85.8798 2.292
85.9101 2.292
85.9403 2.187
85.9706 2.135
86.0009 2.552
86.0312 2.187
86.0614 2.604
86.0917 2.344
86.1220 2.500
86.1523 2.083
86.1826 1.823
86.2128 2.187
86.2431 1.875
86.2734 2.083
86.3037 2.135
86.3340 2.396
86.3642 2.604
86.3945 2.135
86.4248 2.552
86.4551 2.187
86.4853 2.760
86.5156 2.135
86.5459 2.083
86.5762 1.927
86.6065 2.292
86.6367 1.927
86.6670 1.875
86.6973 2.604
86.7276 2.500
86.7579 2.187
86.7881 2.292
86.8184 2.448
86.8487 1.823
86.8790 2.604
86.9092 1.823
86.9395 1.562
86.9698 2.604
87.0001 2.552
87.0304 2.135
87.0606 2.760
87.0909 2.083
87.1212 2.187
87.1515 2.292
87.1818 1.875
87.2120 2.135
87.2423 2.344
87.2726 1.979
87.3029 2.500
87.3331 2.292
87.3634 2.500
87.3937 2.135
87.4240 2.552
87.4543 2.292
87.4845 2.969
87.5148 2.448
87.5451 2.187
87.5754 3.021
87.6057 1.615
87.6359 2.396
87.6662 2.031
87.6965 1.979
87.7268 2.135
87.7571 2.708
87.7873 1.771
87.8176 2.031
87.8479 2.135
87.8782 2.812
87.9084 2.604
87.9387 2.135
87.9690 1.667
87.9993 2.448
88.0296 1.719
88.0598 2.812
88.0901 1.927
88.1204 2.448
88.1507 2.031
88.1810 2.187
88.2112 1.771
88.2415 2.552
88.2718 2.604
88.3021 2.135
88.3323 1.979
88.3626 2.708
88.3929 2.344
88.4232 2.760
88.4535 2.344
88.4837 1.615
88.5140 2.448
88.5443 2.448
88.5746 1.875
88.6049 2.031
88.6351 2.135
88.6654 2.187
88.6957 2.656
88.7260 2.031
88.7562 2.083
88.7865 1.406
88.8168 1.823
88.8471 2.187
88.8774 2.083
88.9076 2.656
88.9379 1.927
88.9682 2.396
88.9985 2.135
89.0288 2.604
89.0590 2.344
89.0893 2.240
89.1196 2.031
89.1499 1.979
89.1801 2.552
89.2104 2.448
89.2407 2.292
89.2710 2.031
89.3013 1.979
89.3315 1.823
89.3618 1.927
89.3921 1.979
89.4224 1.927
89.4527 1.667
89.4829 2.865
89.5132 2.240
89.5435 1.667
89.5738 2.552
89.6040 1.927
89.6343 1.719
89.6646 2.344
89.6949 1.667
89.7252 2.135
89.7554 2.135
89.7857 2.812
89.8160 2.135
89.8463 2.135
89.8766 2.135
89.9068 2.135
89.9371 2.396
89.9674 2.083
89.9977 2.083
90.0279 2.135
90.0582 2.135
90.0885 2.031
90.1188 2.604
90.1491 1.979
90.1793 2.135
90.2096 1.771
90.2399 2.031
90.2702 2.240
90.3005 2.448
90.3307 1.406
90.3610 2.031
90.3913 2.240
90.4216 2.083
90.4518 1.719
90.4821 2.292
90.5124 2.344
90.5427 2.135
90.5730 2.135
90.6032 2.031
90.6335 2.135
90.6638 2.708
90.6941 1.667
90.7244 1.562
90.7546 2.344
90.7849 2.344
90.8152 1.719
90.8455 2.083
90.8758 1.979
90.9060 2.344
90.9363 1.823
90.9666 1.719
90.9969 2.760
91.0271 2.187
91.0574 1.719
91.0877 2.135
91.1180 1.198
91.1483 1.667
91.1785 2.448
91.2088 1.979
91.2391 2.187
91.2694 1.719
91.2997 1.458
91.3299 1.823
91.3602 1.823
91.3905 1.979
91.4208 1.927
91.4510 1.667
91.4813 1.979
91.5116 1.667
91.5419 2.135
91.5722 1.927
91.6024 1.927
91.6327 2.083
91.6630 2.083
91.6933 2.240
91.7236 2.187
91.7538 1.771
91.7841 2.500
91.8144 2.552
91.8447 2.240
91.8749 2.135
91.9052 2.344
91.9355 2.500
91.9658 1.927
91.9961 2.240
92.0263 1.875
92.0566 2.031
92.0869 2.396
92.1172 1.667
92.1475 2.083
92.1777 2.240
92.2080 2.187
92.2383 1.302
92.2686 1.771
92.2988 2.292
92.3291 2.604
92.3594 1.667
92.3897 1.719
92.4200 2.135
92.4502 2.031
92.4805 1.771
92.5108 2.031
92.5411 2.083
92.5714 2.083
92.6016 2.969
92.6319 2.031
92.6622 2.344
92.6925 1.302
92.7227 2.344
92.7530 2.344
92.7833 2.240
92.8136 1.615
92.8439 2.656
92.8741 2.135
92.9044 2.396
92.9347 2.031
92.9650 2.083
92.9953 2.292
93.0255 2.083
93.0558 2.083
93.0861 1.771
93.1164 1.927
93.1466 1.667
93.1769 1.979
93.2072 1.719
93.2375 2.135
93.2678 2.552
93.2980 1.615
93.3283 1.979
93.3586 1.719
93.3889 2.135
93.4192 1.719
93.4494 1.875
93.4797 1.510
93.5100 1.562
93.5403 2.031
93.5706 2.187
93.6008 2.187
93.6311 2.656
93.6614 2.083
93.6917 1.823
93.7219 1.771
93.7522 1.510
93.7825 1.875
93.8128 2.135
93.8431 1.719
93.8733 1.719
93.9036 1.719
93.9339 2.187
93.9642 1.615
93.9945 2.135
94.0247 2.448
94.0550 2.344
94.0853 1.927
94.1156 1.875
94.1458 2.083
94.1761 2.135
94.2064 2.187
94.2367 1.823
94.2670 1.927
94.2972 2.187
94.3275 1.979
94.3578 1.979
94.3881 1.875
94.4184 2.240
94.4486 2.500
94.4789 1.562
94.5092 2.187
94.5395 1.771
94.5697 1.875
94.6000 2.448
94.6303 2.031
94.6606 2.344
94.6909 2.552
94.7211 2.240
94.7514 2.760
94.7817 2.240
94.8120 2.240
94.8423 2.240
94.8725 1.979
94.9028 2.656
94.9331 1.719
94.9634 2.240
94.9936 2.031
95.0239 1.562
95.0542 1.667
95.0845 2.656
95.1148 1.667
95.1450 1.875
95.1753 2.083
95.2056 1.979
95.2359 2.135
95.2662 1.302
95.2964 2.135
95.3267 2.135
95.3570 2.031
95.3873 2.187
95.4175 1.875
95.4478 1.875
95.4781 2.031
95.5084 2.135
95.5387 1.510
95.5689 2.500
95.5992 1.875
95.6295 1.719
95.6598 1.406
95.6901 2.083
95.7203 2.292
95.7506 1.146
95.7809 1.458
95.8112 2.135
95.8414 2.083
95.8717 2.292
95.9020 1.719
95.9323 2.240
95.9626 1.719
95.9928 2.135
96.0231 1.875
96.0534 1.771
96.0837 1.719
96.1140 1.979
96.1442 1.615
96.1745 2.083
96.2048 1.250
96.2351 2.344
96.2653 1.719
96.2956 1.979
96.3259 1.771
96.3562 1.979
96.3865 1.302
96.4167 2.240
96.4470 1.615
96.4773 2.240
96.5076 1.823
96.5379 1.250
96.5681 2.135
96.5984 2.083
96.6287 1.875
96.6590 1.927
96.6893 1.875
96.7195 1.719
96.7498 1.302
96.7801 2.500
96.8104 1.875
96.8406 1.875
96.8709 2.135
96.9012 2.135
96.9315 2.083
96.9618 1.250
96.9920 1.771
97.0223 2.083
97.0526 2.500
97.0829 2.240
97.1132 2.344
97.1434 2.240
97.1737 1.979
97.2040 2.135
97.2343 1.719
97.2645 2.292
97.2948 1.823
97.3251 2.760
97.3554 1.667
97.3857 1.823
97.4159 1.302
97.4462 1.615
97.4765 1.875
97.5068 2.031
97.5371 2.500
97.5673 2.135
97.5976 1.823
97.6279 1.927
97.6582 1.771
97.6884 2.292
97.7187 1.979
97.7490 2.344
97.7793 1.875
97.8096 2.031
97.8398 2.135
97.8701 2.552
97.9004 1.667
97.9307 1.875
97.9610 2.187
97.9912 2.135
98.0215 2.135
98.0518 2.448
98.0821 2.292
98.1123 2.187
98.1426 2.760
98.1729 2.656
98.2032 1.875
98.2335 2.812
98.2637 1.927
98.2940 2.135
98.3243 1.823
98.3546 2.292
98.3849 1.771
98.4151 1.771
98.4454 2.031
98.4757 2.031
98.5060 1.979
98.5362 1.771
98.5665 1.719
98.5968 1.562
98.6271 2.083
98.6574 1.771
98.6876 1.771
98.7179 1.927
98.7482 2.083
98.7785 1.667
98.8088 1.927
98.8390 2.240
98.8693 2.083
98.8996 2.083
98.9299 2.083
98.9601 1.562
98.9904 1.875
99.0207 2.604
99.0510 2.500
99.0813 2.292
99.1115 1.823
99.1418 1.615
99.1721 1.927
99.2024 2.187
99.2327 2.240
99.2629 1.927
99.2932 2.396
99.3235 1.875
99.3538 1.823
99.3841 2.604
99.4143 1.823
99.4446 1.562
99.4749 2.292
99.5052 2.083
99.5354 2.604
99.5657 1.302
99.5960 2.031
99.6263 1.875
99.6566 1.667
99.6868 1.875
99.7171 1.875
99.7474 1.667
99.7777 1.823
99.8080 2.083
99.8382 1.719
99.8685 2.031
99.8988 1.562
99.9291 1.302
99.9593 2.135
99.9896 2.083
100.0199 2.031
100.0502 2.031
100.0805 2.031
100.1107 1.510
100.1410 1.979
100.1713 1.823
100.2016 1.562
100.2319 2.240
100.2621 1.927
100.2924 2.240
100.3227 1.979
100.3530 2.396
100.3832 1.927
100.4135 2.240
100.4438 1.979
100.4741 1.823
100.5044 1.719
100.5346 1.927
100.5649 1.875
100.5952 2.187
100.6255 1.719
100.6558 1.823
100.6860 2.656
100.7163 2.031
100.7466 2.083
100.7769 1.198
100.8071 1.875
100.8374 1.771
100.8677 2.396
100.8980 2.344
100.9283 2.240
100.9585 1.615
100.9888 1.875
101.0191 1.875
101.0494 1.458
101.0797 1.615
101.1099 1.406
101.1402 1.823
101.1705 1.458
101.2008 1.979
101.2310 1.562
101.2613 1.562
101.2916 2.187
101.3219 2.396
101.3522 1.875
101.3824 2.396
101.4127 1.875
101.4430 2.396
101.4733 2.240
101.5036 2.187
101.5338 1.875
101.5641 2.187
101.5944 2.292
101.6247 2.240
101.6549 1.354
101.6852 1.250
101.7155 2.552
101.7458 1.875
101.7761 1.771
101.8063 1.823
101.8366 1.875
101.8669 1.354
101.8972 1.510
101.9275 1.458
101.9577 1.406
101.9880 1.771
102.0183 2.135
102.0486 1.719
102.0788 1.667
102.1091 2.500
102.1394 1.979
102.1697 2.083
102.2000 1.458
102.2302 1.875
102.2605 1.771
102.2908 1.406
102.3211 1.094
102.3514 1.771
102.3816 1.354
102.4119 1.510
102.4422 1.979
102.4725 1.823
102.5028 1.719
102.5330 2.031
102.5633 2.083
102.5936 1.927
102.6239 1.771
102.6541 1.719
102.6844 1.667
102.7147 2.448
102.7450 1.719
102.7753 1.406
102.8055 1.771
102.8358 1.823
102.8661 1.458
102.8964 1.927
102.9267 2.031
102.9569 1.719
102.9872 1.979
103.0175 1.823
103.0478 1.979
103.0780 1.719
103.1083 1.719
103.1386 1.615
103.1689 1.771
103.1992 2.292
103.2294 1.458
103.2597 1.927
103.2900 1.615
103.3203 1.927
103.3506 1.510
103.3808 2.031
103.4111 1.406
103.4414 1.875
103.4717 1.771
103.5019 1.875
103.5322 1.406
103.5625 1.354
103.5928 2.448
103.6231 1.094
103.6533 1.719
103.6836 1.354
103.7139 1.302
103.7442 1.458
103.7745 1.667
103.8047 1.719
103.8350 1.562
103.8653 2.344
103.8956 1.146
103.9258 1.719
103.9561 1.927
103.9864 1.406
104.0167 1.458
104.0470 1.927
104.0772 1.771
104.1075 1.927
104.1378 1.979
104.1681 1.927
104.1984 1.719
104.2286 1.458
104.2589 1.458
104.2892 1.302
104.3195 1.927
104.3497 1.302
104.3800 1.875
104.4103 1.823
104.4406 1.615
104.4709 2.031
104.5011 1.771
104.5314 1.875
104.5617 1.979
104.5920 1.406
104.6223 1.771
104.6525 1.927
104.6828 1.719
104.7131 1.354
104.7434 1.510
104.7736 1.458
104.8039 1.771
104.8342 1.667
104.8645 1.667
104.8948 1.354
104.9250 1.510
104.9553 1.979
104.9856 1.198
105.0159 2.083
105.0462 2.292
105.0764 1.823
105.1067 1.927
105.1370 1.979
105.1673 2.083
105.1975 1.458
105.2278 1.406
105.2581 1.302
105.2884 2.083
105.3187 1.667
105.3489 1.875
105.3792 1.510
105.4095 1.771
105.4398 1.562
105.4701 1.615
105.5003 1.667
105.5306 1.562
105.5609 1.615
105.5912 2.292
105.6215 1.927
105.6517 1.198
105.6820 1.406
105.7123 1.302
105.7426 1.510
105.7728 1.719
105.8031 1.406
105.8334 1.562
105.8637 1.875
105.8940 1.615
105.9242 1.562
105.9545 1.667
105.9848 1.510
106.0151 1.927
106.0454 2.187
106.0756 1.615
106.1059 1.406
106.1362 1.667
106.1665 1.406
106.1967 1.615
106.2270 1.719
106.2573 1.771
106.2876 1.823
106.3179 2.031
106.3481 1.562
106.3784 2.187
106.4087 2.031
106.4390 1.458
106.4693 1.615
106.4995 1.979
106.5298 1.458
106.5601 1.875
106.5904 2.187
106.6206 1.250
106.6509 1.823
106.6812 1.615
106.7115 2.083
106.7418 1.250
106.7720 1.354
106.8023 1.979
106.8326 2.031
106.8629 2.083
106.8932 1.823
106.9234 1.823
106.9537 1.875
106.9840 1.458
107.0143 1.771
107.0445 1.562
107.0748 1.979
107.1051 2.083
107.1354 1.771
107.1657 1.250
107.1959 2.396
107.2262 1.302
107.2565 1.771
107.2868 2.187
107.3171 1.667
107.3473 1.458
107.3776 2.083
107.4079 2.292
107.4382 1.927
107.4684 1.354
107.4987 1.927
107.5290 1.719
107.5593 1.510
107.5896 1.615
107.6198 1.823
107.6501 1.667
107.6804 1.875
107.7107 2.083
107.7410 1.719
107.7712 1.510
107.8015 2.083
107.8318 2.083
107.8621 1.406
107.8923 2.083
107.9226 1.875
107.9529 1.875
107.9832 1.667
108.0135 2.135
108.0437 1.615
108.0740 1.250
108.1043 1.198
108.1346 1.823
108.1649 2.344
108.1951 1.979
108.2254 1.458
108.2557 1.510
108.2860 2.031
108.3163 1.823
108.3465 1.510
108.3768 1.510
108.4071 2.031
108.4374 2.344
108.4676 1.719
108.4979 1.667
108.5282 1.823
108.5585 2.135
108.5888 1.823
108.6190 1.250
108.6493 1.927
108.6796 1.979
108.7099 1.927
108.7402 1.615
108.7704 1.823
108.8007 1.615
108.8310 2.448
108.8613 2.292
108.8915 1.771
108.9218 1.406
108.9521 1.250
108.9824 1.875
109.0127 1.667
109.0429 1.562
109.0732 1.875
109.1035 2.396
109.1338 2.240
109.1641 1.458
109.1943 1.927
109.2246 1.615
109.2549 2.344
109.2852 1.667
109.3154 1.615
109.3457 1.250
109.3760 1.250
109.4063 1.562
109.4366 1.302
109.4668 1.875
109.4971 2.187
109.5274 2.187
109.5577 1.719
109.5880 1.927
109.6182 2.031
109.6485 2.031
109.6788 2.135
109.7091 1.094
109.7393 2.031
109.7696 1.771
109.7999 1.562
109.8302 2.135
109.8605 1.458
109.8907 1.458
109.9210 1.198
109.9513 2.135
109.9816 1.927
110.0119 2.031
110.0421 2.031
110.0724 1.562
110.1027 1.667
110.1330 1.562
110.1632 1.979
110.1935 1.979
110.2238 1.146
110.2541 2.031
110.2844 1.719
110.3146 2.448
110.3449 1.927
110.3752 1.510
110.4055 1.615
110.4358 2.031
110.4660 2.031
110.4963 2.240
110.5266 1.667
110.5569 1.875
110.5871 1.562
110.6174 2.031
110.6477 2.604
110.6780 1.667
110.7083 1.927
110.7385 1.458
110.7688 1.719
110.7991 1.406
110.8294 2.344
110.8597 1.875
110.8899 1.615
110.9202 2.396
110.9505 1.302
110.9808 1.875
111.0110 2.187
111.0413 1.615
111.0716 1.875
111.1019 1.771
111.1322 1.667
111.1624 2.083
111.1927 2.240
111.2230 1.823
111.2533 1.510
111.2836 1.927
111.3138 1.771
111.3441 2.187
111.3744 1.615
111.4047 1.823
111.4350 1.927
111.4652 1.562
111.4955 1.771
111.5258 1.719
111.5561 1.719
111.5863 1.875
111.6166 1.875
111.6469 1.510
111.6772 2.083
111.7075 1.771
111.7377 2.292
111.7680 1.823
111.7983 2.187
111.8286 1.458
111.8589 1.615
111.8891 1.979
111.9194 1.979
111.9497 2.187
111.9800 1.667
112.0102 2.083
112.0405 1.875
112.0708 2.344
112.1011 1.719
112.1314 2.031
112.1616 1.771
112.1919 1.667
112.2222 1.875
112.2525 1.510
112.2828 1.979
112.3130 1.927
112.3433 1.823
112.3736 2.344
112.4039 1.719
112.4341 1.771
112.4644 1.719
112.4947 1.510
112.5250 1.823
112.5553 2.135
112.5855 1.823
112.6158 2.448
112.6461 2.031
112.6764 2.240
112.7067 2.135
112.7369 2.031
112.7672 1.615
112.7975 1.562
112.8278 1.719
112.8580 1.667
112.8883 1.667
112.9186 1.615
112.9489 1.719
112.9792 1.771
113.0094 1.198
113.0397 1.719
113.0700 1.667
113.1003 1.719
113.1306 1.771
113.1608 1.771
113.1911 2.031
113.2214 1.719
113.2517 1.719
113.2819 2.292
113.3122 1.719
113.3425 2.292
113.3728 2.396
113.4031 1.667
113.4333 1.719
113.4636 1.823
113.4939 1.823
113.5242 1.771
113.5545 1.979
113.5847 1.771
113.6150 1.458
113.6453 2.500
113.6756 1.771
113.7058 2.031
113.7361 2.240
113.7664 1.771
113.7967 2.187
113.8270 1.979
113.8572 1.875
113.8875 1.771
113.9178 1.458
113.9481 2.344
113.9784 1.927
114.0086 2.448
114.0389 2.083
114.0692 1.771
114.0995 2.240
114.1298 1.406
114.1600 2.344
114.1903 2.292
114.2206 1.979
114.2509 2.344
114.2811 2.135
114.3114 1.562
114.3417 1.458
114.3720 1.719
114.4023 1.667
114.4325 1.510
114.4628 2.187
114.4931 1.875
114.5234 1.458
114.5537 1.979
114.5839 1.562
114.6142 2.344
114.6445 1.667
114.6748 2.083
114.7050 1.823
114.7353 1.875
114.7656 1.719
114.7959 1.927
114.8262 2.083
114.8564 1.719
114.8867 1.927
114.9170 1.667
114.9473 1.875
114.9776 1.823
115.0078 1.823
115.0381 1.979
115.0684 1.771
115.0987 1.406
115.1289 2.708
115.1592 2.552
115.1895 1.510
115.2198 1.875
115.2501 2.344
115.2803 1.875
115.3106 2.135
115.3409 1.562
115.3712 1.615
115.4015 1.667
115.4317 1.875
115.4620 1.771
115.4923 2.708
115.5226 1.771
115.5528 1.510
115.5831 1.875
115.6134 1.979
115.6437 2.135
115.6740 2.031
115.7042 1.667
115.7345 2.708
115.7648 2.187
115.7951 2.448
115.8254 1.667
115.8556 1.927
115.8859 1.927
115.9162 1.979
115.9465 1.771
115.9767 2.187
116.0070 1.979
116.0373 1.667
116.0676 1.927
116.0979 2.187
116.1281 1.979
116.1584 1.875
116.1887 1.719
116.2190 1.927
116.2493 1.719
116.2795 1.562
116.3098 1.562
116.3401 2.240
116.3704 2.396
116.4006 1.615
116.4309 1.771
116.4612 2.240
116.4915 2.031
116.5218 1.458
116.5520 1.979
116.5823 2.135
116.6126 1.979
116.6429 1.406
116.6732 2.187
116.7034 2.135
116.7337 2.083
116.7640 1.510
116.7943 1.979
116.8245 2.500
116.8548 2.083
116.8851 2.604
116.9154 1.875
116.9457 2.187
116.9759 1.719
117.0062 2.187
117.0365 2.396
117.0668 1.562
117.0971 1.354
117.1273 1.458
117.1576 2.344
117.1879 1.771
117.2182 2.292
117.2485 2.031
117.2787 1.458
117.3090 1.667
117.3393 1.562
117.3696 1.198
117.3998 2.344
117.4301 1.823
117.4604 1.823
117.4907 2.292
117.5210 2.500
117.5512 2.031
117.5815 1.667
117.6118 2.031
117.6421 2.396
117.6724 2.344
117.7026 1.562
117.7329 1.667
117.7632 1.510
117.7935 1.510
117.8237 1.823
117.8540 1.823
117.8843 1.667
117.9146 2.031
117.9449 1.771
117.9751 2.240
118.0054 1.979
118.0357 2.240
118.0660 1.667
118.0963 2.083
118.1265 1.615
118.1568 2.344
118.1871 2.552
118.2174 2.187
118.2476 1.615
118.2779 2.604
118.3082 1.615
118.3385 2.031
118.3688 2.135
118.3990 1.615
118.4293 1.979
118.4596 1.510
118.4899 2.031
118.5202 1.823
118.5504 2.500
118.5807 1.406
118.6110 1.771
118.6413 1.875
118.6715 2.135
118.7018 2.187
118.7321 1.979
118.7624 1.823
118.7927 1.927
118.8229 2.240
118.8532 2.187
118.8835 2.292
118.9138 2.604
118.9441 2.656
118.9743 1.458
119.0046 2.083
119.0349 1.823
119.0652 2.031
119.0954 2.240
119.1257 2.240
119.1560 2.292
119.1863 1.979
119.2166 1.823
119.2468 1.667
119.2771 1.771
119.3074 2.656
119.3377 2.240
119.3680 1.875
119.3982 2.083
119.4285 2.292
119.4588 1.979
119.4891 1.823
119.5193 2.083
119.5496 1.823
119.5799 1.979
119.6102 2.240
119.6405 2.083
119.6707 2.187
119.7010 2.135
119.7313 1.719
119.7616 1.875
119.7919 2.448
119.8221 2.344
119.8524 1.823
119.8827 2.031
119.9130 1.927
119.9433 2.448
119.9735 2.031
120.0038 1.875
