'Id: "" Comment: "" Operator: "Lab Manager" Anode: "Cu" Scantype: "Locked Coupled" TimePerStep: "19.2" X: "9999" Y: "9999" Z: "9999" 
10.0015 3.281
10.0318 3.854
10.0620 3.646
10.0923 4.427
10.1226 4.635
10.1529 3.802
10.1832 3.281
10.2134 3.802
10.2437 4.427
10.2740 4.323
10.3043 3.906
10.3346 3.385
10.3648 3.698
10.3951 3.542
10.4254 4.948
10.4557 3.802
10.4859 3.385
10.5162 5.104
10.5465 4.062
10.5768 3.698
10.6071 3.750
10.6373 4.896
10.6676 3.646
10.6979 3.385
10.7282 3.490
10.7585 3.177
10.7887 3.333
10.8190 4.010
10.8493 3.750
10.8796 4.271
10.9098 3.698
10.9401 4.010
10.9704 3.906
11.0007 4.271
11.0310 4.531
11.0612 4.271
11.0915 3.854
11.1218 3.854
11.1521 3.594
11.1824 3.698
11.2126 3.542
11.2429 4.531
11.2732 3.490
11.3035 4.271
11.3337 3.750
11.3640 2.292
11.3943 3.437
11.4246 3.229
11.4549 4.010
11.4851 3.281
11.5154 3.542
11.5457 3.333
11.5760 3.490
11.6063 3.958
11.6365 3.906
11.6668 4.375
11.6971 3.281
11.7274 4.167
11.7577 3.906
11.7879 3.802
11.8182 3.021
11.8485 3.646
11.8788 3.542
11.9090 3.646
11.9393 3.385
11.9696 3.698
11.9999 2.969
12.0302 3.698
12.0604 3.073
12.0907 3.073
12.1210 3.750
12.1513 4.010
12.1816 4.115
12.2118 4.635
12.2421 4.167
12.2724 3.802
12.3027 3.021
12.3329 2.760
12.3632 4.323
12.3935 3.073
12.4238 3.490
12.4541 2.396
12.4843 4.062
12.5146 3.333
12.5449 3.281
12.5752 2.708
12.6055 3.802
12.6357 4.010
12.6660 3.490
12.6963 3.802
12.7266 2.865
12.7568 3.698
12.7871 3.281
12.8174 3.594
12.8477 3.385
12.8780 3.437
12.9082 3.698
12.9385 2.865
12.9688 3.333
12.9991 3.073
13.0294 3.281
13.0596 3.281
13.0899 3.125
13.1202 2.760
13.1505 3.385
13.1807 3.385
13.2110 3.646
13.2413 3.177
13.2716 3.490
13.3019 3.333
13.3321 2.917
13.3624 2.760
13.3927 3.333
13.4230 3.802
13.4533 2.865
13.4835 3.698
13.5138 2.344
13.5441 3.125
13.5744 3.333
13.6046 3.906
13.6349 3.542
13.6652 2.552
13.6955 3.229
13.7258 3.958
13.7560 3.281
13.7863 3.177
13.8166 3.906
13.8469 3.490
13.8772 2.969
13.9074 3.906
13.9377 3.229
13.9680 3.385
13.9983 2.604
14.0285 2.344
14.0588 3.281
14.0891 2.396
14.1194 3.125
14.1497 4.427
14.1799 3.385
14.2102 2.865
14.2405 2.708
14.2708 3.490
14.3011 2.969
14.3313 3.437
14.3616 2.969
14.3919 3.021
14.4222 3.073
14.4524 2.604
14.4827 2.917
14.5130 2.760
14.5433 3.125
14.5736 2.969
14.6038 3.333
14.6341 3.594
14.6644 3.698
14.6947 2.552
14.7250 3.021
14.7552 3.542
14.7855 2.448
14.8158 2.552
14.8461 3.281
14.8764 3.490
14.9066 2.760
14.9369 2.292
14.9672 2.187
14.9975 3.854
15.0277 2.604
15.0580 3.542
15.0883 3.437
15.1186 2.656
15.1489 2.917
15.1791 2.969
15.2094 2.396
15.2397 2.656
15.2700 3.073
15.3003 1.927
15.3305 3.125
15.3608 3.542
15.3911 2.917
15.4214 3.021
15.4516 2.656
15.4819 2.656
15.5122 3.021
15.5425 2.708
15.5728 2.344
15.6030 2.708
15.6333 2.917
15.6636 2.552
15.6939 2.656
15.7242 3.021
15.7544 2.969
15.7847 3.021
15.8150 2.604
15.8453 2.656
15.8755 2.448
15.9058 2.812
15.9361 2.708
15.9664 2.604
15.9967 3.125
16.0269 3.177
16.0572 3.125
16.0875 3.333
16.1178 3.073
16.1481 3.021
16.1783 2.656
16.2086 2.552
16.2389 2.656
16.2692 3.333
16.2994 4.219
16.3297 3.177
16.3600 3.542
16.3903 2.448
16.4206 2.292
16.4508 2.500
16.4811 2.812
16.5114 2.500
16.5417 3.594
16.5720 2.760
16.6022 2.604
16.6325 3.021
16.6628 2.552
16.6931 2.917
16.7233 3.437
16.7536 3.177
16.7839 3.177
16.8142 2.604
16.8445 2.760
16.8747 2.917
16.9050 2.865
16.9353 2.552
16.9656 2.656
16.9959 4.167
17.0261 3.646
17.0564 4.062
17.0867 3.385
17.1170 2.760
17.1472 3.125
17.1775 2.344
17.2078 3.021
17.2381 3.646
17.2684 3.490
17.2986 3.437
17.3289 2.604
17.3592 3.542
17.3895 3.698
17.4198 3.385
17.4500 3.802
17.4803 2.865
17.5106 3.177
17.5409 3.333
17.5712 2.500
17.6014 2.656
17.6317 2.031
17.6620 3.177
17.6923 2.865
17.7225 2.448
17.7528 2.760
17.7831 4.271
17.8134 3.646
17.8437 3.177
17.8739 2.969
17.9042 2.917
17.9345 2.448
17.9648 3.333
17.9951 2.500
18.0253 2.083
18.0556 3.021
18.0859 3.021
18.1162 2.604
18.1464 3.177
18.1767 2.552
18.2070 2.552
18.2373 2.969
18.2676 2.760
18.2978 2.448
18.3281 2.969
18.3584 2.865
18.3887 3.281
18.4190 2.604
18.4492 3.073
18.4795 2.917
18.5098 2.604
18.5401 2.760
18.5703 2.812
18.6006 2.552
18.6309 2.292
18.6612 3.385
18.6915 2.812
18.7217 3.281
18.7520 2.656
18.7823 3.073
18.8126 2.708
18.8429 3.021
18.8731 2.969
18.9034 3.021
18.9337 2.656
18.9640 2.448
18.9942 2.604
19.0245 2.708
19.0548 3.229
19.0851 2.448
19.1154 2.448
19.1456 2.760
19.1759 2.708
19.2062 3.437
19.2365 3.229
19.2668 2.865
19.2970 2.448
19.3273 2.604
19.3576 3.021
19.3879 3.333
19.4181 2.865
19.4484 3.021
19.4787 2.187
19.5090 2.656
19.5393 1.875
19.5695 2.396
19.5998 3.177
19.6301 3.021
19.6604 2.917
19.6907 2.656
19.7209 3.281
19.7512 2.865
19.7815 2.604
19.8118 2.865
19.8420 1.875
19.8723 2.760
19.9026 3.177
19.9329 2.448
19.9632 2.760
19.9934 2.760
20.0237 3.385
20.0540 2.083
20.0843 2.656
20.1146 3.281
20.1448 2.292
20.1751 2.656
20.2054 2.917
20.2357 2.917
20.2659 2.760
20.2962 3.125
20.3265 2.552
20.3568 3.021
20.3871 2.240
20.4173 2.656
20.4476 3.125
20.4779 2.604
20.5082 2.604
20.5385 2.917
20.5687 2.240
20.5990 2.917
20.6293 3.385
20.6596 2.500
20.6899 2.969
20.7201 2.552
20.7504 2.292
20.7807 2.396
20.8110 2.500
20.8412 3.021
20.8715 1.979
20.9018 2.500
20.9321 2.604
20.9624 2.031
20.9926 3.281
21.0229 2.708
21.0532 2.656
21.0835 3.229
21.1138 2.865
21.1440 3.594
21.1743 2.917
21.2046 2.396
21.2349 2.969
21.2651 2.656
21.2954 3.229
21.3257 2.396
21.3560 2.604
21.3863 2.344
21.4165 1.875
21.4468 2.917
21.4771 3.229
21.5074 2.604
21.5377 2.240
21.5679 2.187
21.5982 2.865
21.6285 2.917
21.6588 2.656
21.6890 1.979
21.7193 3.437
21.7496 2.031
21.7799 2.969
21.8102 3.125
21.8404 3.021
21.8707 2.448
21.9010 2.865
21.9313 2.917
21.9616 2.708
21.9918 2.760
22.0221 2.760
22.0524 2.604
22.0827 2.812
22.1129 3.021
22.1432 2.135
22.1735 2.917
22.2038 3.333
22.2341 2.552
22.2643 2.552
22.2946 3.021
22.3249 2.812
22.3552 3.021
22.3855 2.292
22.4157 3.229
22.4460 2.292
22.4763 2.448
22.5066 2.292
22.5368 2.969
22.5671 2.865
22.5974 2.292
22.6277 1.979
22.6580 2.760
22.6882 2.448
22.7185 3.125
22.7488 1.667
22.7791 2.656
22.8094 3.073
22.8396 2.708
22.8699 2.031
22.9002 2.812
22.9305 3.542
22.9607 2.344
22.9910 2.135
23.0213 2.656
23.0516 2.708
23.0819 2.396
23.1121 2.187
23.1424 2.969
23.1727 1.927
23.2030 2.812
23.2333 2.187
23.2635 3.542
23.2938 2.292
23.3241 2.448
23.3544 1.979
23.3846 2.240
23.4149 2.500
23.4452 2.656
23.4755 2.187
23.5058 2.604
23.5360 2.917
23.5663 2.708
23.5966 2.969
23.6269 2.240
23.6572 2.708
23.6874 2.604
23.7177 3.125
23.7480 2.552
23.7783 2.240
23.8086 2.656
23.8388 2.865
23.8691 2.656
23.8994 2.344
23.9297 2.135
23.9599 2.760
23.9902 2.448
24.0205 2.344
24.0508 3.125
24.0811 2.604
24.1113 2.448
24.1416 2.396
24.1719 2.812
24.2022 2.187
24.2325 2.396
24.2627 2.500
24.2930 2.969
24.3233 2.187
24.3536 2.604
24.3838 2.656
24.4141 3.281
24.4444 2.187
24.4747 2.812
24.5050 2.500
24.5352 3.125
24.5655 2.187
24.5958 3.698
24.6261 2.760
24.6564 2.604
24.6866 2.969
24.7169 2.604
24.7472 2.708
24.7775 2.969
24.8077 2.552
24.8380 3.646
24.8683 2.604
24.8986 2.760
24.9289 2.500
24.9591 1.823
24.9894 3.542
25.0197 2.031
25.0500 2.917
25.0803 3.021
25.1105 3.542
25.1408 2.552
25.1711 2.760
25.2014 3.177
25.2316 2.552
25.2619 2.604
25.2922 2.708
25.3225 2.708
25.3528 2.812
25.3830 2.552
25.4133 2.969
25.4436 2.760
25.4739 2.604
25.5042 2.656
25.5344 2.240
25.5647 2.292
25.5950 2.448
25.6253 2.969
25.6555 2.187
25.6858 3.021
25.7161 2.812
25.7464 2.865
25.7767 2.031
25.8069 1.771
25.8372 2.865
25.8675 2.031
25.8978 3.125
25.9281 2.552
25.9583 3.125
25.9886 2.344
26.0189 2.865
26.0492 3.073
26.0794 3.021
26.1097 3.177
26.1400 2.812
26.1703 2.812
26.2006 2.604
26.2308 3.073
26.2611 2.135
26.2914 2.135
26.3217 2.500
26.3520 2.708
26.3822 2.552
26.4125 2.135
26.4428 2.500
26.4731 2.708
26.5034 2.500
26.5336 2.708
26.5639 2.344
26.5942 2.812
26.6245 2.500
26.6547 2.240
26.6850 3.281
26.7153 1.719
26.7456 2.344
26.7759 2.344
26.8061 3.333
26.8364 2.969
26.8667 2.500
26.8970 2.604
26.9273 2.187
26.9575 3.229
26.9878 2.292
27.0181 2.396
27.0484 3.073
27.0786 3.021
27.1089 2.917
27.1392 2.083
27.1695 2.708
27.1998 2.812
27.2300 2.292
27.2603 3.229
27.2906 2.500
27.3209 2.812
27.3512 2.604
27.3814 2.969
27.4117 2.604
27.4420 2.656
27.4723 3.229
27.5025 2.656
27.5328 3.229
27.5631 2.344
27.5934 3.125
27.6237 3.021
27.6539 3.385
27.6842 3.021
27.7145 2.760
27.7448 3.177
27.7751 2.656
27.8053 3.802
27.8356 4.062
27.8659 3.281
27.8962 3.437
27.9264 2.969
27.9567 3.021
27.9870 3.542
28.0173 2.604
28.0476 2.708
28.0778 2.917
28.1081 3.021
28.1384 3.385
28.1687 2.656
28.1990 2.448
28.2292 2.917
28.2595 3.281
28.2898 3.333
28.3201 3.177
28.3503 2.917
28.3806 2.865
28.4109 3.437
28.4412 3.177
28.4715 4.219
28.5017 2.708
28.5320 3.281
28.5623 3.490
28.5926 4.323
28.6229 3.177
28.6531 3.073
28.6834 3.854
28.7137 3.958
28.7440 3.177
28.7742 2.760
28.8045 3.177
28.8348 3.385
28.8651 3.281
28.8954 3.073
28.9256 2.344
28.9559 3.333
28.9862 3.333
29.0165 3.542
29.0468 3.073
29.0770 3.646
29.1073 3.385
29.1376 3.281
29.1679 2.917
29.1981 2.760
29.2284 3.021
29.2587 3.490
29.2890 3.802
29.3193 2.708
29.3495 2.812
29.3798 3.177
29.4101 4.062
29.4404 3.333
29.4707 3.854
29.5009 4.010
29.5312 4.010
29.5615 3.698
29.5918 3.385
29.6221 4.271
29.6523 5.156
29.6826 3.802
29.7129 3.594
29.7432 4.062
29.7734 4.167
29.8037 4.427
29.8340 3.281
29.8643 4.635
29.8946 3.490
29.9248 4.010
29.9551 4.167
29.9854 4.427
30.0157 4.010
30.0460 4.271
30.0762 4.219
30.1065 5.208
30.1368 4.635
30.1671 4.479
30.1973 4.635
30.2276 4.896
30.2579 5.417
30.2882 4.740
30.3185 4.323
30.3487 4.323
30.3790 4.792
30.4093 4.896
30.4396 5.365
30.4699 5.000
30.5001 5.365
30.5304 5.208
30.5607 5.365
30.5910 6.458
30.6212 5.104
30.6515 6.406
30.6818 5.312
30.7121 4.844
30.7424 6.562
30.7726 6.562
30.8029 5.625
30.8332 6.406
30.8635 8.021
30.8938 7.604
30.9240 6.875
30.9543 7.865
30.9846 9.531
31.0149 10.365
31.0451 9.427
31.0754 10.625
31.1057 11.042
31.1360 11.719
31.1663 14.062
31.1965 14.167
31.2268 16.094
31.2571 17.240
31.2874 20.365
31.3177 21.406
31.3479 25.990
31.3782 26.719
31.4085 32.187
31.4388 35.521
31.4690 40.417
31.4993 48.125
31.5296 49.062
31.5599 57.396
31.5902 58.646
31.6204 62.656
31.6507 60.052
31.6810 58.229
31.7113 55.990
31.7416 50.469
31.7718 49.010
31.8021 43.385
31.8324 38.385
31.8627 30.990
31.8929 25.156
31.9232 22.344
31.9535 21.719
31.9838 20.521
32.0141 18.802
32.0443 16.667
32.0746 13.229
32.1049 13.437
32.1352 13.646
32.1655 11.771
32.1957 10.885
32.2260 9.844
32.2563 10.156
32.2866 8.490
32.3169 8.958
32.3471 8.177
32.3774 8.385
32.4077 8.281
32.4380 7.187
32.4682 6.979
32.4985 8.437
32.5288 5.990
32.5591 5.990
32.5894 6.302
32.6196 7.240
32.6499 5.677
32.6802 5.885
32.7105 6.302
32.7408 5.104
32.7710 5.885
32.8013 6.458
32.8316 5.990
32.8619 4.844
32.8921 5.677
32.9224 5.208
32.9527 5.052
32.9830 5.990
33.0133 5.365
33.0435 5.417
33.0738 5.156
33.1041 5.208
33.1344 5.833
33.1647 5.833
33.1949 5.781
33.2252 4.583
33.2555 5.104
33.2858 5.156
33.3160 5.260
33.3463 5.260
33.3766 5.365
33.4069 6.354
33.4372 5.833
33.4674 5.208
33.4977 5.521
33.5280 6.250
33.5583 5.625
33.5886 6.562
33.6188 6.823
33.6491 6.458
33.6794 6.875
33.7097 6.927
33.7399 6.771
33.7702 7.448
33.8005 7.656
33.8308 7.292
33.8611 8.854
33.8913 8.802
33.9216 9.792
33.9519 11.406
33.9822 12.865
34.0125 14.635
34.0427 14.896
34.0730 18.177
34.1033 21.667
34.1336 27.344
34.1638 32.656
34.1941 44.583
34.2244 56.875
34.2547 75.000
34.2850 82.604
34.3152 76.615
34.3455 71.562
34.3758 64.062
34.4061 48.385
34.4364 38.594
34.4666 31.302
34.4969 21.927
34.5272 21.042
34.5575 16.823
34.5877 15.677
34.6180 14.062
34.6483 12.656
34.6786 10.208
34.7089 11.146
34.7391 10.469
34.7694 9.167
34.7997 9.219
34.8300 7.135
34.8603 9.740
34.8905 7.760
34.9208 8.542
34.9511 7.865
34.9814 8.073
35.0116 7.917
35.0419 7.552
35.0722 9.948
35.1025 9.427
35.1328 9.427
35.1630 8.125
35.1933 9.271
35.2236 8.281
35.2539 8.958
35.2842 10.521
35.3144 9.479
35.3447 9.687
35.3750 10.990
35.4053 11.094
35.4356 11.198
35.4658 11.094
35.4961 12.708
35.5264 13.646
35.5567 14.323
35.5869 15.312
35.6172 16.354
35.6475 17.344
35.6778 20.677
35.7081 21.302
35.7383 24.792
35.7686 27.396
35.7989 28.750
35.8292 33.750
35.8595 40.573
35.8897 44.375
35.9200 48.594
35.9503 58.385
35.9806 67.240
36.0108 75.625
36.0411 82.083
36.0714 89.635
36.1017 90.417
36.1320 91.302
36.1622 91.562
36.1925 89.896
36.2228 86.979
36.2531 75.625
36.2834 66.302
36.3136 58.177
36.3439 49.792
36.3742 44.635
36.4045 38.958
36.4347 34.844
36.4650 28.385
36.4953 26.250
36.5256 23.542
36.5559 19.531
36.5861 18.906
36.6164 16.771
36.6467 14.323
36.6770 14.323
36.7073 14.271
36.7375 10.625
36.7678 12.552
36.7981 10.885
36.8284 9.375
36.8586 8.958
36.8889 7.760
36.9192 8.594
36.9495 8.646
36.9798 7.708
37.0100 8.333
37.0403 6.406
37.0706 7.187
37.1009 6.771
37.1312 6.979
37.1614 5.312
37.1917 5.677
37.2220 5.677
37.2523 5.729
37.2825 5.677
37.3128 5.833
37.3431 5.052
37.3734 5.104
37.4037 5.000
37.4339 4.948
37.4642 5.677
37.4945 4.948
37.5248 4.948
37.5551 4.271
37.5853 4.167
37.6156 4.010
37.6459 3.906
37.6762 4.271
37.7064 4.375
37.7367 3.229
37.7670 3.646
37.7973 4.062
37.8276 4.896
37.8578 3.281
37.8881 3.229
37.9184 3.646
37.9487 3.125
37.9790 4.427
38.0092 3.490
38.0395 4.115
38.0698 3.125
38.1001 4.531
38.1304 2.865
38.1606 2.917
38.1909 3.750
38.2212 4.010
38.2515 3.177
38.2817 3.542
38.3120 3.385
38.3423 3.385
38.3726 4.271
38.4029 3.490
38.4331 2.396
38.4634 2.656
38.4937 3.021
38.5240 3.229
38.5543 3.490
38.5845 3.281
38.6148 2.240
38.6451 3.073
38.6754 3.229
38.7056 2.865
38.7359 2.292
38.7662 2.292
38.7965 3.177
38.8268 4.010
38.8570 2.969
38.8873 2.187
38.9176 2.917
38.9479 3.125
38.9782 3.073
39.0084 2.344
39.0387 1.667
39.0690 3.125
39.0993 3.125
39.1295 3.281
39.1598 2.812
39.1901 2.500
39.2204 2.760
39.2507 2.344
39.2809 2.760
39.3112 2.552
39.3415 1.979
39.3718 2.135
39.4021 2.812
39.4323 2.344
39.4626 2.969
39.4929 1.771
39.5232 2.865
39.5534 3.177
39.5837 2.656
39.6140 2.240
39.6443 1.875
39.6746 2.656
39.7048 2.448
39.7351 1.615
39.7654 2.448
39.7957 2.708
39.8260 2.083
39.8562 2.500
39.8865 2.292
39.9168 2.812
39.9471 2.604
39.9773 2.552
40.0076 2.396
40.0379 2.031
40.0682 2.240
40.0985 2.656
40.1287 2.448
40.1590 2.344
40.1893 2.552
40.2196 2.604
40.2499 2.135
40.2801 2.031
40.3104 2.552
40.3407 2.865
40.3710 2.083
40.4012 3.073
40.4315 2.500
40.4618 2.240
40.4921 2.135
40.5224 2.760
40.5526 1.979
40.5829 2.187
40.6132 2.500
40.6435 1.667
40.6738 2.135
40.7040 2.031
40.7343 2.135
40.7646 1.875
40.7949 2.500
40.8251 2.656
40.8554 1.979
40.8857 1.979
40.9160 2.135
40.9463 1.562
40.9765 2.396
41.0068 1.875
41.0371 2.396
41.0674 2.396
41.0977 2.344
41.1279 1.979
41.1582 1.875
41.1885 2.604
41.2188 1.927
41.2491 2.240
41.2793 2.344
41.3096 2.135
41.3399 1.927
41.3702 1.719
41.4004 1.823
41.4307 2.135
41.4610 2.292
41.4913 1.823
41.5216 2.240
41.5518 2.344
41.5821 1.875
41.6124 2.656
41.6427 2.240
41.6730 1.719
41.7032 2.135
41.7335 1.979
41.7638 2.708
41.7941 2.292
41.8243 2.396
41.8546 2.187
41.8849 1.458
41.9152 2.552
41.9455 1.875
41.9757 1.979
42.0060 2.135
42.0363 1.667
42.0666 2.083
42.0969 1.979
42.1271 2.552
42.1574 2.187
42.1877 2.448
42.2180 1.875
42.2482 2.031
42.2785 2.760
42.3088 2.187
42.3391 1.979
42.3694 2.083
42.3996 1.875
42.4299 2.240
42.4602 2.083
42.4905 2.083
42.5208 2.031
42.5510 1.927
42.5813 2.031
42.6116 2.031
42.6419 2.240
42.6721 2.396
42.7024 2.187
42.7327 2.396
42.7630 2.031
42.7933 2.240
42.8235 1.823
42.8538 2.344
42.8841 2.292
42.9144 2.031
42.9447 2.083
42.9749 2.083
43.0052 1.979
43.0355 2.240
43.0658 1.979
43.0960 1.615
43.1263 2.396
43.1566 2.865
43.1869 1.875
43.2172 2.135
43.2474 2.448
43.2777 2.240
43.3080 3.229
43.3383 2.552
43.3686 1.927
43.3988 1.927
43.4291 2.552
43.4594 1.979
43.4897 2.448
43.5199 1.979
43.5502 2.604
43.5805 2.083
43.6108 1.927
43.6411 1.875
43.6713 1.771
43.7016 1.927
43.7319 2.292
43.7622 2.292
43.7925 2.240
43.8227 2.292
43.8530 1.823
43.8833 2.031
43.9136 2.448
43.9439 1.823
43.9741 2.292
44.0044 2.240
44.0347 2.344
44.0650 2.031
44.0952 2.396
44.1255 2.292
44.1558 2.448
44.1861 1.927
44.2164 1.979
44.2466 2.344
44.2769 2.344
44.3072 2.031
44.3375 1.927
44.3678 2.656
44.3980 2.448
44.4283 2.344
44.4586 2.187
44.4889 2.448
44.5191 2.448
44.5494 1.615
44.5797 2.396
44.6100 1.719
44.6403 1.875
44.6705 2.760
44.7008 2.969
44.7311 2.500
44.7614 2.135
44.7917 2.708
44.8219 2.865
44.8522 2.604
44.8825 2.604
44.9128 1.979
44.9430 2.760
44.9733 2.656
45.0036 2.500
45.0339 2.083
45.0642 2.240
45.0944 2.031
45.1247 2.812
45.1550 2.344
45.1853 2.344
45.2156 2.292
45.2458 2.344
45.2761 1.823
45.3064 2.031
45.3367 2.292
45.3669 2.500
45.3972 2.240
45.4275 2.135
45.4578 2.708
45.4881 2.500
45.5183 2.187
45.5486 2.917
45.5789 2.083
45.6092 2.292
45.6395 2.552
45.6697 2.656
45.7000 2.344
45.7303 2.187
45.7606 2.917
45.7908 2.708
45.8211 2.656
45.8514 2.865
45.8817 2.135
45.9120 2.135
45.9422 2.552
45.9725 2.396
46.0028 2.604
46.0331 2.969
46.0634 2.865
46.0936 2.604
46.1239 2.031
46.1542 2.448
46.1845 3.646
46.2147 1.927
46.2450 3.229
46.2753 2.240
46.3056 2.396
46.3359 3.385
46.3661 3.125
46.3964 2.760
46.4267 2.812
46.4570 3.437
46.4873 2.604
46.5175 3.281
46.5478 3.437
46.5781 3.073
46.6084 4.167
46.6386 3.385
46.6689 2.865
46.6992 3.646
46.7295 3.542
46.7598 3.229
46.7900 4.115
46.8203 3.646
46.8506 3.958
46.8809 4.740
46.9112 3.958
46.9414 4.740
46.9717 5.052
47.0020 6.094
47.0323 5.781
47.0626 6.927
47.0928 8.750
47.1231 8.646
47.1534 10.365
47.1837 10.833
47.2139 12.552
47.2442 14.427
47.2745 16.719
47.3048 17.656
47.3351 17.969
47.3653 21.354
47.3956 21.615
47.4259 20.937
47.4562 20.000
47.4865 20.677
47.5167 18.542
47.5470 17.917
47.5773 14.844
47.6076 11.979
47.6378 11.562
47.6681 10.885
47.6984 10.417
47.7287 7.240
47.7590 7.448
47.7892 7.083
47.8195 6.146
47.8498 6.198
47.8801 5.885
47.9104 4.062
47.9406 3.698
47.9709 4.427
48.0012 3.698
48.0315 3.646
48.0617 3.854
48.0920 3.646
48.1223 3.437
48.1526 3.958
48.1829 3.229
48.2131 2.604
48.2434 3.125
48.2737 3.125
48.3040 2.865
48.3343 2.448
48.3645 2.604
48.3948 2.448
48.4251 3.437
48.4554 2.865
48.4856 2.292
48.5159 2.292
48.5462 2.448
48.5765 3.281
48.6068 2.083
48.6370 3.281
48.6673 2.604
48.6976 2.760
48.7279 1.979
48.7582 2.240
48.7884 2.240
48.8187 2.083
48.8490 2.031
48.8793 2.396
48.9095 3.229
48.9398 2.031
48.9701 2.708
49.0004 2.187
49.0307 2.187
49.0609 2.760
49.0912 2.031
49.1215 1.719
49.1518 2.292
49.1821 2.865
49.2123 2.708
49.2426 1.354
49.2729 1.875
49.3032 1.979
49.3334 2.031
49.3637 1.823
49.3940 2.083
49.4243 2.187
49.4546 2.552
49.4848 2.031
49.5151 2.292
49.5454 1.771
49.5757 1.615
49.6060 2.344
49.6362 2.344
49.6665 2.240
49.6968 2.552
49.7271 2.656
49.7574 2.448
49.7876 2.135
49.8179 1.875
49.8482 2.500
49.8785 1.979
49.9087 2.292
49.9390 2.344
49.9693 2.344
49.9996 2.135
50.0299 1.979
50.0601 1.927
50.0904 2.083
50.1207 2.969
50.1510 3.125
50.1813 2.396
50.2115 1.719
50.2418 2.396
50.2721 2.083
50.3024 2.083
50.3326 2.292
50.3629 2.396
50.3932 2.500
50.4235 2.083
50.4538 2.448
50.4840 1.979
50.5143 2.135
50.5446 2.135
50.5749 1.979
50.6052 2.708
50.6354 1.927
50.6657 1.510
50.6960 1.927
50.7263 2.344
50.7565 2.240
50.7868 2.344
50.8171 2.031
50.8474 1.771
50.8777 2.500
50.9079 2.500
50.9382 1.771
50.9685 2.083
50.9988 1.667
51.0291 2.031
51.0593 1.458
51.0896 1.823
51.1199 2.396
51.1502 1.719
51.1804 1.979
51.2107 2.187
51.2410 1.979
51.2713 1.250
51.3016 2.760
51.3318 1.406
51.3621 1.719
51.3924 1.667
51.4227 2.187
51.4530 1.875
51.4832 2.448
51.5135 2.500
51.5438 2.187
51.5741 1.979
51.6043 2.187
51.6346 2.083
51.6649 1.406
51.6952 1.510
51.7255 1.615
51.7557 2.031
51.7860 2.500
51.8163 1.615
51.8466 1.823
51.8769 1.979
51.9071 2.083
51.9374 1.927
51.9677 1.719
51.9980 1.927
52.0282 1.562
52.0585 1.927
52.0888 1.771
52.1191 2.187
52.1494 1.979
52.1796 2.708
52.2099 2.292
52.2402 1.771
52.2705 2.135
52.3008 2.708
52.3310 1.927
52.3613 2.083
52.3916 1.823
52.4219 2.031
52.4521 1.927
52.4824 2.240
52.5127 2.760
52.5430 1.719
52.5733 2.292
52.6035 2.031
52.6338 2.396
52.6641 2.448
52.6944 2.083
52.7247 1.562
52.7549 2.292
52.7852 1.979
52.8155 1.406
52.8458 2.344
52.8761 1.667
52.9063 1.771
52.9366 2.135
52.9669 1.667
52.9972 2.448
53.0274 1.562
53.0577 2.240
53.0880 1.719
53.1183 1.875
53.1486 3.281
53.1788 1.979
53.2091 2.448
53.2394 2.344
53.2697 2.865
53.3000 1.927
53.3302 1.979
53.3605 1.823
53.3908 2.552
53.4211 2.396
53.4513 1.823
53.4816 2.396
53.5119 2.240
53.5422 2.031
53.5725 2.083
53.6027 2.552
53.6330 1.927
53.6633 2.135
53.6936 2.448
53.7239 2.292
53.7541 3.229
53.7844 1.927
53.8147 2.135
53.8450 2.344
53.8752 2.552
53.9055 1.771
53.9358 1.823
53.9661 2.865
53.9964 2.344
54.0266 2.656
54.0569 2.500
54.0872 1.927
54.1175 2.187
54.1478 1.927
54.1780 2.292
54.2083 2.552
54.2386 2.344
54.2689 2.448
54.2991 2.135
54.3294 1.823
54.3597 2.604
54.3900 2.500
54.4203 2.187
54.4505 2.500
54.4808 2.552
54.5111 2.344
54.5414 2.396
54.5717 2.552
54.6019 2.760
54.6322 1.771
54.6625 2.083
54.6928 2.396
54.7230 2.969
54.7533 2.448
54.7836 2.292
54.8139 2.448
54.8442 2.448
54.8744 2.604
54.9047 3.073
54.9350 2.292
54.9653 2.396
54.9956 2.292
55.0258 2.083
55.0561 3.177
55.0864 3.594
55.1167 3.281
55.1469 2.917
55.1772 2.604
55.2075 2.187
55.2378 4.115
55.2681 3.281
55.2983 3.490
55.3286 2.969
55.3589 3.177
55.3892 2.396
55.4195 2.708
55.4497 3.177
55.4800 3.594
55.5103 2.760
55.5406 3.542
55.5709 3.333
55.6011 3.542
55.6314 3.385
55.6617 4.219
55.6920 3.854
55.7222 5.104
55.7525 4.271
55.7828 4.896
55.8131 4.792
55.8434 4.427
55.8736 4.792
55.9039 5.729
55.9342 6.406
55.9645 5.990
55.9948 6.406
56.0250 6.875
56.0553 8.021
56.0856 9.635
56.1159 9.062
56.1461 12.344
56.1764 10.990
56.2067 13.281
56.2370 13.281
56.2673 15.729
56.2975 15.833
56.3278 19.271
56.3581 22.031
56.3884 22.448
56.4187 26.771
56.4489 26.979
56.4792 25.833
56.5095 23.594
56.5398 23.906
56.5700 22.917
56.6003 20.156
56.6306 20.000
56.6609 18.490
56.6912 15.521
56.7214 13.646
56.7517 14.062
56.7820 12.292
56.8123 9.167
56.8426 10.208
56.8728 9.115
56.9031 7.604
56.9334 8.542
56.9637 7.760
56.9939 6.719
57.0242 6.354
57.0545 5.781
57.0848 5.156
57.1151 5.104
57.1453 4.167
57.1756 4.844
57.2059 3.542
57.2362 4.740
57.2665 4.583
57.2967 3.698
57.3270 2.917
57.3573 3.177
57.3876 3.646
57.4178 3.125
57.4481 3.281
57.4784 3.958
57.5087 2.917
57.5390 3.594
57.5692 3.229
57.5995 3.021
57.6298 3.333
57.6601 2.760
57.6904 2.552
57.7206 2.917
57.7509 2.552
57.7812 2.812
57.8115 2.135
57.8417 3.229
57.8720 2.031
57.9023 1.927
57.9326 2.865
57.9629 2.500
57.9931 2.552
58.0234 2.500
58.0537 3.125
58.0840 2.969
58.1143 2.917
58.1445 2.865
58.1748 2.240
58.2051 3.385
58.2354 2.240
58.2656 2.344
58.2959 2.604
58.3262 2.344
58.3565 2.448
58.3868 2.552
58.4170 2.812
58.4473 2.187
58.4776 2.240
58.5079 2.187
58.5382 2.187
58.5684 1.875
58.5987 2.292
58.6290 1.615
58.6593 2.812
58.6896 1.927
58.7198 2.500
58.7501 2.552
58.7804 2.031
58.8107 2.187
58.8409 2.187
58.8712 2.083
58.9015 2.240
58.9318 1.510
58.9621 2.760
58.9923 2.240
59.0226 2.448
59.0529 2.240
59.0832 2.083
59.1135 2.500
59.1437 2.187
59.1740 2.760
59.2043 2.135
59.2346 1.875
59.2648 2.135
59.2951 2.396
59.3254 2.708
59.3557 2.135
59.3860 2.812
59.4162 2.448
59.4465 2.083
59.4768 2.604
59.5071 1.979
59.5374 2.083
59.5676 2.448
59.5979 2.604
59.6282 2.396
59.6585 2.500
59.6887 2.760
59.7190 2.135
59.7493 1.771
59.7796 2.292
59.8099 2.448
59.8401 1.771
59.8704 2.292
59.9007 1.667
59.9310 2.083
59.9613 1.927
59.9915 2.083
60.0218 2.708
60.0521 2.865
60.0824 2.135
60.1126 2.031
60.1429 1.927
60.1732 2.135
60.2035 2.552
60.2338 2.344
60.2640 1.510
60.2943 2.604
60.3246 2.135
60.3549 2.240
60.3852 2.344
60.4154 2.396
60.4457 3.021
60.4760 2.396
60.5063 2.187
60.5365 2.240
60.5668 2.396
60.5971 3.281
60.6274 2.187
60.6577 1.823
60.6879 2.031
60.7182 2.448
60.7485 2.604
60.7788 2.292
60.8091 2.604
60.8393 2.552
60.8696 2.240
60.8999 2.552
60.9302 2.083
60.9604 2.708
60.9907 2.240
61.0210 2.083
61.0513 2.760
61.0816 3.021
61.1118 2.656
61.1421 2.240
61.1724 1.927
61.2027 2.656
61.2330 3.021
61.2632 2.656
61.2935 2.812
61.3238 2.760
61.3541 1.719
61.3844 2.708
61.4146 2.812
61.4449 2.240
61.4752 2.552
61.5055 3.021
61.5357 2.552
61.5660 2.031
61.5963 2.917
61.6266 2.500
61.6569 4.479
61.6871 2.500
61.7174 3.490
61.7477 2.552
61.7780 2.812
61.8083 2.865
61.8385 2.760
61.8688 3.021
61.8991 3.490
61.9294 3.073
61.9596 3.542
61.9899 4.375
62.0202 3.125
62.0505 2.969
62.0808 4.115
62.1110 3.750
62.1413 4.844
62.1716 4.896
62.2019 4.531
62.2322 6.042
62.2624 6.198
62.2927 6.458
62.3230 6.615
62.3533 7.135
62.3835 8.177
62.4138 7.760
62.4441 10.000
62.4744 11.146
62.5047 11.458
62.5349 13.490
62.5652 16.250
62.5955 16.510
62.6258 19.479
62.6561 20.885
62.6863 22.969
62.7166 23.177
62.7469 24.635
62.7772 21.406
62.8074 22.083
62.8377 20.104
62.8680 19.010
62.8983 19.219
62.9286 17.552
62.9588 14.635
62.9891 15.052
63.0194 12.917
63.0497 10.156
63.0800 8.958
63.1102 8.854
63.1405 7.812
63.1708 6.719
63.2011 7.448
63.2313 5.729
63.2616 5.365
63.2919 4.531
63.3222 5.052
63.3525 5.156
63.3827 4.219
63.4130 4.687
63.4433 3.646
63.4736 4.115
63.5039 2.969
63.5341 3.854
63.5644 3.646
63.5947 3.750
63.6250 2.500
63.6552 2.448
63.6855 3.281
63.7158 3.073
63.7461 3.281
63.7764 2.865
63.8066 3.177
63.8369 3.333
63.8672 2.604
63.8975 2.656
63.9278 2.552
63.9580 2.240
63.9883 3.073
64.0186 2.812
64.0489 2.708
64.0791 2.708
64.1094 1.927
64.1397 2.917
64.1700 3.021
64.2003 2.396
64.2305 2.187
64.2608 2.187
64.2911 2.083
64.3214 2.187
64.3517 2.344
64.3819 2.865
64.4122 2.448
64.4425 2.552
64.4728 2.240
64.5031 2.656
64.5333 2.240
64.5636 2.865
64.5939 2.135
64.6242 2.500
64.6544 2.500
64.6847 2.865
64.7150 2.500
64.7453 2.656
64.7756 2.031
64.8058 2.292
64.8361 2.656
64.8664 1.771
64.8967 2.656
64.9270 2.552
64.9572 2.760
64.9875 2.031
65.0178 2.448
65.0481 2.292
65.0783 2.240
65.1086 2.708
65.1389 2.187
65.1692 2.344
65.1995 2.448
65.2297 2.396
65.2600 2.448
65.2903 2.656
65.3206 2.448
65.3509 2.344
65.3811 2.240
65.4114 3.177
65.4417 2.500
65.4720 2.344
65.5022 2.969
65.5325 2.344
65.5628 2.865
65.5931 3.177
65.6234 2.969
65.6536 2.917
65.6839 2.917
65.7142 2.448
65.7445 2.812
65.7748 2.969
65.8050 2.552
65.8353 3.229
65.8656 4.010
65.8959 4.062
65.9261 3.281
65.9564 3.906
65.9867 3.594
66.0170 3.594
66.0473 3.490
66.0775 4.427
66.1078 4.010
66.1381 4.219
66.1684 4.583
66.1987 4.740
66.2289 4.167
66.2592 4.531
66.2895 4.583
66.3198 4.635
66.3500 5.521
66.3803 4.271
66.4106 5.156
66.4409 5.104
66.4712 4.115
66.5014 3.646
66.5317 3.958
66.5620 4.531
66.5923 4.115
66.6226 3.646
66.6528 3.490
66.6831 3.490
66.7134 2.656
66.7437 4.010
66.7739 3.229
66.8042 4.271
66.8345 3.333
66.8648 2.865
66.8951 3.437
66.9253 2.969
66.9556 3.906
66.9859 3.437
67.0162 3.437
67.0465 3.177
67.0767 3.333
67.1070 4.479
67.1373 4.115
67.1676 3.958
67.1978 4.115
67.2281 4.167
67.2584 4.167
67.2887 5.729
67.3190 5.260
67.3492 5.990
67.3795 6.042
67.4098 5.625
67.4401 6.875
67.4704 7.656
67.5006 8.490
67.5309 8.021
67.5612 9.375
67.5915 9.792
67.6218 11.719
67.6520 12.604
67.6823 13.125
67.7126 14.010
67.7429 16.667
67.7731 16.146
67.8034 15.573
67.8337 17.500
67.8640 15.365
67.8943 15.260
67.9245 14.948
67.9548 14.062
67.9851 12.448
68.0154 14.740
68.0457 12.292
68.0759 10.625
68.1062 10.729
68.1365 9.427
68.1668 9.531
68.1970 8.229
68.2273 7.708
68.2576 6.979
68.2879 6.458
68.3182 6.198
68.3484 7.031
68.3787 6.250
68.4090 5.990
68.4393 5.781
68.4696 5.625
68.4998 5.417
68.5301 5.990
68.5604 6.198
68.5907 5.833
68.6209 5.469
68.6512 7.135
68.6815 6.979
68.7118 8.125
68.7421 7.604
68.7723 7.396
68.8026 7.344
68.8329 8.021
68.8632 8.906
68.8935 9.062
68.9237 9.635
68.9540 9.010
68.9843 8.906
69.0146 9.323
69.0448 8.802
69.0751 8.646
69.1054 7.604
69.1357 7.812
69.1660 6.771
69.1962 5.573
69.2265 5.208
69.2568 5.573
69.2871 5.469
69.3174 4.531
69.3476 5.573
69.3779 4.010
69.4082 3.802
69.4385 3.698
69.4687 3.854
69.4990 3.958
69.5293 3.750
69.5596 3.490
69.5899 3.594
69.6201 3.125
69.6504 3.437
69.6807 2.812
69.7110 2.656
69.7413 2.812
69.7715 2.396
69.8018 2.292
69.8321 1.667
69.8624 2.500
69.8926 2.812
69.9229 2.969
69.9532 1.875
69.9835 1.927
70.0138 2.969
70.0440 2.083
70.0743 2.448
70.1046 2.396
70.1349 2.656
70.1652 2.396
70.1954 2.292
70.2257 1.875
70.2560 2.240
70.2863 1.406
70.3166 2.292
70.3468 2.031
70.3771 2.448
70.4074 3.021
70.4377 1.875
70.4679 2.344
70.4982 2.031
70.5285 2.083
70.5588 2.292
70.5891 1.979
70.6193 2.500
70.6496 1.771
70.6799 2.240
70.7102 2.396
70.7405 1.510
70.7707 1.771
70.8010 1.927
70.8313 1.979
70.8616 1.979
70.8918 1.458
70.9221 2.292
70.9524 2.083
70.9827 1.771
71.0130 1.979
71.0432 2.031
71.0735 1.458
71.1038 2.292
71.1341 1.615
71.1644 1.875
71.1946 1.875
71.2249 1.302
71.2552 1.667
71.2855 2.031
71.3157 1.875
71.3460 1.719
71.3763 1.615
71.4066 1.771
71.4369 1.823
71.4671 2.031
71.4974 1.458
71.5277 1.719
71.5580 1.354
71.5883 1.250
71.6185 2.396
71.6488 1.979
71.6791 2.344
71.7094 1.198
71.7396 1.823
71.7699 2.187
71.8002 1.719
71.8305 1.771
71.8608 1.719
71.8910 1.510
71.9213 2.187
71.9516 1.771
71.9819 2.396
72.0122 1.979
72.0424 2.031
72.0727 1.979
72.1030 2.083
72.1333 1.719
72.1635 2.083
72.1938 1.927
72.2241 2.604
72.2544 2.135
72.2847 2.656
72.3149 2.240
72.3452 3.021
72.3755 2.292
72.4058 3.281
72.4361 3.021
72.4663 3.750
72.4966 2.708
72.5269 2.656
72.5572 2.708
72.5874 2.344
72.6177 3.229
72.6480 2.656
72.6783 2.500
72.7086 2.448
72.7388 1.875
72.7691 2.292
72.7994 2.344
72.8297 1.615
72.8600 1.927
72.8902 2.135
72.9205 2.344
72.9508 1.562
72.9811 1.719
73.0113 1.667
73.0416 1.510
73.0719 2.187
73.1022 1.615
73.1325 1.719
73.1627 2.240
73.1930 2.083
73.2233 1.562
73.2536 1.719
73.2839 1.354
73.3141 1.719
73.3444 1.719
73.3747 1.510
73.4050 2.240
73.4353 1.979
73.4655 1.979
73.4958 1.406
73.5261 2.240
73.5564 1.198
73.5866 1.615
73.6169 1.250
73.6472 1.354
73.6775 2.240
73.7078 2.135
73.7380 1.719
73.7683 1.979
73.7986 1.510
73.8289 1.719
73.8592 1.719
73.8894 1.667
73.9197 1.719
73.9500 2.187
73.9803 1.406
74.0105 1.979
74.0408 1.198
74.0711 1.667
74.1014 1.562
74.1317 1.927
74.1619 1.250
74.1922 2.083
74.2225 1.667
74.2528 1.615
74.2831 1.875
74.3133 1.302
74.3436 1.719
74.3739 1.146
74.4042 1.719
74.4344 1.719
74.4647 1.979
74.4950 1.458
74.5253 1.042
74.5556 1.094
74.5858 2.292
74.6161 2.083
74.6464 1.615
74.6767 1.979
74.7070 1.719
74.7372 1.719
74.7675 1.771
74.7978 1.562
74.8281 1.719
74.8583 1.198
74.8886 1.771
74.9189 1.510
74.9492 1.667
74.9795 1.146
75.0097 1.667
75.0400 2.031
75.0703 1.406
75.1006 1.979
75.1309 1.823
75.1611 1.510
75.1914 1.354
75.2217 1.979
75.2520 1.198
75.2822 1.875
75.3125 1.406
75.3428 1.562
75.3731 1.875
75.4034 1.823
75.4336 1.458
75.4639 1.510
75.4942 1.354
75.5245 1.979
75.5548 1.198
75.5850 1.615
75.6153 1.302
75.6456 1.406
75.6759 1.615
75.7061 1.458
75.7364 1.458
75.7667 1.406
75.7970 1.771
75.8273 1.719
75.8575 1.250
75.8878 1.927
75.9181 1.406
75.9484 1.875
75.9787 1.250
76.0089 1.615
76.0392 1.615
76.0695 2.396
76.0998 2.135
76.1301 1.719
76.1603 2.344
76.1906 1.771
76.2209 2.135
76.2512 1.979
76.2814 2.031
76.3117 2.187
76.3420 1.510
76.3723 2.448
76.4026 2.656
76.4328 1.927
76.4631 2.187
76.4934 1.667
76.5237 2.031
76.5540 1.875
76.5842 2.135
76.6145 2.760
76.6448 2.500
76.6751 3.646
76.7053 2.969
76.7356 3.698
76.7659 2.969
76.7962 3.906
76.8265 3.437
76.8567 3.750
76.8870 3.281
76.9173 2.656
76.9476 3.594
76.9779 3.229
77.0081 3.698
77.0384 2.969
77.0687 2.344
77.0990 3.073
77.1292 2.344
77.1595 2.760
77.1898 2.187
77.2201 2.656
77.2504 2.656
77.2806 3.073
77.3109 2.083
77.3412 1.979
77.3715 2.135
77.4018 1.875
77.4320 1.562
77.4623 1.562
77.4926 1.406
77.5229 2.083
77.5531 1.823
77.5834 1.667
77.6137 1.510
77.6440 2.135
77.6743 1.823
77.7045 1.667
77.7348 1.667
77.7651 1.510
77.7954 1.406
77.8257 1.406
77.8559 1.302
77.8862 1.406
77.9165 1.875
77.9468 1.146
77.9770 1.250
78.0073 1.719
78.0376 2.031
78.0679 1.562
78.0982 1.667
78.1284 1.719
78.1587 2.083
78.1890 1.302
78.2193 1.198
78.2496 1.719
78.2798 1.823
78.3101 1.458
78.3404 1.615
78.3707 1.510
78.4009 1.406
78.4312 0.729
78.4615 1.354
78.4918 1.823
78.5221 1.562
78.5523 1.250
78.5826 1.562
78.6129 1.667
78.6432 1.667
78.6735 1.719
78.7037 1.771
78.7340 1.406
78.7643 1.198
78.7946 1.146
78.8248 0.990
78.8551 1.771
78.8854 1.823
78.9157 1.562
78.9460 1.510
78.9762 2.031
79.0065 1.510
79.0368 1.562
79.0671 1.094
79.0974 1.250
79.1276 1.771
79.1579 1.406
79.1882 1.562
79.2185 1.354
79.2488 1.927
79.2790 0.990
79.3093 1.510
79.3396 1.667
79.3699 2.083
79.4001 1.823
79.4304 1.198
79.4607 1.510
79.4910 1.823
79.5213 1.615
79.5515 1.354
79.5818 1.667
79.6121 1.875
79.6424 1.198
79.6727 1.615
79.7029 1.198
79.7332 1.302
79.7635 1.354
79.7938 1.406
79.8240 1.354
79.8543 1.198
79.8846 1.458
79.9149 1.302
79.9452 1.354
79.9754 1.458
80.0057 1.667
80.0360 1.615
80.0663 1.406
80.0966 1.562
80.1268 1.667
80.1571 1.250
80.1874 1.667
80.2177 1.250
80.2479 0.833
80.2782 0.990
80.3085 1.979
80.3388 1.406
80.3691 1.406
80.3993 1.667
80.4296 1.875
80.4599 1.406
80.4902 1.667
80.5205 1.406
80.5507 1.562
80.5810 1.042
80.6113 1.250
80.6416 1.198
80.6718 1.510
80.7021 1.510
80.7324 1.667
80.7627 1.198
80.7930 1.562
80.8232 1.719
80.8535 2.031
80.8838 1.302
80.9141 2.187
80.9444 2.031
80.9746 1.979
81.0049 2.031
81.0352 1.562
81.0655 1.615
81.0957 2.187
81.1260 2.448
81.1563 2.448
81.1866 2.708
81.2169 2.187
81.2471 2.135
81.2774 1.875
81.3077 2.396
81.3380 2.292
81.3683 2.604
81.3985 2.292
81.4288 1.875
81.4591 2.552
81.4894 1.510
81.5196 1.562
81.5499 1.667
81.5802 1.562
81.6105 1.979
81.6408 2.135
81.6710 1.406
81.7013 1.979
81.7316 2.240
81.7619 1.667
81.7922 1.823
81.8224 1.979
81.8527 1.354
81.8830 1.198
81.9133 1.562
81.9436 1.146
81.9738 1.875
82.0041 1.510
82.0344 1.667
82.0647 1.667
82.0949 1.719
82.1252 1.615
82.1555 1.458
82.1858 1.562
82.2161 0.937
82.2463 1.615
82.2766 2.031
82.3069 1.302
82.3372 1.094
82.3675 1.354
82.3977 1.562
82.4280 1.823
82.4583 0.937
82.4886 1.354
82.5188 1.354
82.5491 2.448
82.5794 1.146
82.6097 1.562
82.6400 1.302
82.6702 1.510
82.7005 1.510
82.7308 1.354
82.7611 0.937
82.7914 1.354
82.8216 1.510
82.8519 1.250
82.8822 1.562
82.9125 1.667
82.9427 1.146
82.9730 1.458
83.0033 1.458
83.0336 1.823
83.0639 1.094
83.0941 1.406
83.1244 1.198
83.1547 1.510
83.1850 1.094
83.2153 1.250
83.2455 1.719
83.2758 1.719
83.3061 1.667
83.3364 2.135
83.3666 0.990
83.3969 1.667
83.4272 0.833
83.4575 1.667
83.4878 1.823
83.5180 1.146
83.5483 1.719
83.5786 1.510
83.6089 1.302
83.6392 1.250
83.6694 1.510
83.6997 1.771
83.7300 1.875
83.7603 1.458
83.7905 1.458
83.8208 1.198
83.8511 1.198
83.8814 0.990
83.9117 1.510
83.9419 1.354
83.9722 1.458
84.0025 1.250
84.0328 1.146
84.0631 1.510
84.0933 1.250
84.1236 1.354
84.1539 1.198
84.1842 1.615
84.2144 1.458
84.2447 0.937
84.2750 1.094
84.3053 1.719
84.3356 1.562
84.3658 1.198
84.3961 2.083
84.4264 1.667
84.4567 1.562
84.4870 1.094
84.5172 1.562
84.5475 1.354
84.5778 1.510
84.6081 1.719
84.6383 1.562
84.6686 1.667
84.6989 1.615
84.7292 1.354
84.7595 1.094
84.7897 1.667
84.8200 1.562
84.8503 1.042
84.8806 1.406
84.9109 1.146
84.9411 1.250
84.9714 1.667
85.0017 1.302
85.0320 1.250
85.0623 1.771
85.0925 1.302
85.1228 1.146
85.1531 1.562
85.1834 1.823
85.2136 1.771
85.2439 1.562
85.2742 1.406
85.3045 1.354
85.3348 1.458
85.3650 1.146
85.3953 1.250
85.4256 0.990
85.4559 1.198
85.4862 0.990
85.5164 1.406
85.5467 1.667
85.5770 1.562
85.6073 0.885
85.6375 1.146
85.6678 1.667
85.6981 1.562
85.7284 1.719
85.7587 1.458
85.7889 1.146
85.8192 1.823
85.8495 1.250
85.8798 1.354
85.9101 1.562
85.9403 1.615
85.9706 1.406
86.0009 1.302
86.0312 1.458
86.0614 1.302
86.0917 1.458
86.1220 1.979
86.1523 1.667
86.1826 1.302
86.2128 1.615
86.2431 1.510
86.2734 1.615
86.3037 1.458
86.3340 1.719
86.3642 1.667
86.3945 1.458
86.4248 1.146
86.4551 1.667
86.4853 1.719
86.5156 1.562
86.5459 2.083
86.5762 0.885
86.6065 1.302
86.6367 1.406
86.6670 1.406
86.6973 1.615
86.7276 1.927
86.7579 1.354
86.7881 1.510
86.8184 0.990
86.8487 1.406
86.8790 1.406
86.9092 1.667
86.9395 1.458
86.9698 1.458
87.0001 1.823
87.0304 1.875
87.0606 1.875
87.0909 1.354
87.1212 1.354
87.1515 1.667
87.1818 1.615
87.2120 1.250
87.2423 1.823
87.2726 1.354
87.3029 1.198
87.3331 1.406
87.3634 1.771
87.3937 1.667
87.4240 2.031
87.4543 1.042
87.4845 1.667
87.5148 1.510
87.5451 1.771
87.5754 1.094
87.6057 1.354
87.6359 1.667
87.6662 1.458
87.6965 1.667
87.7268 1.562
87.7571 1.667
87.7873 1.771
87.8176 1.719
87.8479 1.667
87.8782 1.302
87.9084 1.510
87.9387 1.510
87.9690 1.250
87.9993 1.927
88.0296 1.667
88.0598 1.771
88.0901 1.354
88.1204 2.031
88.1507 1.667
88.1810 1.562
88.2112 1.927
88.2415 1.719
88.2718 1.198
88.3021 1.719
88.3323 1.510
88.3626 1.302
88.3929 2.344
88.4232 1.562
88.4535 1.719
88.4837 2.552
88.5140 1.406
88.5443 2.604
88.5746 1.771
88.6049 1.198
88.6351 1.667
88.6654 1.719
88.6957 2.135
88.7260 2.083
88.7562 2.031
88.7865 2.187
88.8168 1.719
88.8471 1.927
88.8774 2.083
88.9076 2.135
88.9379 2.917
88.9682 2.448
88.9985 2.604
89.0288 3.021
89.0590 2.656
89.0893 2.604
89.1196 3.646
89.1499 3.698
89.1801 2.760
89.2104 3.333
89.2407 3.750
89.2710 4.479
89.3013 4.115
89.3315 3.073
89.3618 5.000
89.3921 4.427
89.4224 4.062
89.4527 5.000
89.4829 5.000
89.5132 5.156
89.5435 5.208
89.5738 5.208
89.6040 3.594
89.6343 3.385
89.6646 4.115
89.6949 4.531
89.7252 4.271
89.7554 3.958
89.7857 3.594
89.8160 3.594
89.8463 3.906
89.8766 3.125
89.9068 4.010
89.9371 2.812
89.9674 3.385
89.9977 2.135
90.0279 2.448
90.0582 2.708
90.0885 2.760
90.1188 2.552
90.1491 2.396
90.1793 2.760
90.2096 2.031
90.2399 2.552
90.2702 2.240
90.3005 1.667
90.3307 2.031
90.3610 1.719
90.3913 1.719
90.4216 1.771
90.4518 1.250
90.4821 2.031
90.5124 1.927
90.5427 1.667
90.5730 1.927
90.6032 1.510
90.6335 1.927
90.6638 1.354
90.6941 2.135
90.7244 1.615
90.7546 2.031
90.7849 1.771
90.8152 1.823
90.8455 2.187
90.8758 2.344
90.9060 1.719
90.9363 1.667
90.9666 1.615
90.9969 1.406
91.0271 1.510
91.0574 1.979
91.0877 1.562
91.1180 2.083
91.1483 1.719
91.1785 1.094
91.2088 1.719
91.2391 1.406
91.2694 1.667
91.2997 1.354
91.3299 1.719
91.3602 1.719
91.3905 0.937
91.4208 1.406
91.4510 1.615
91.4813 1.510
91.5116 1.771
91.5419 1.458
91.5722 1.458
91.6024 1.250
91.6327 1.719
91.6630 1.667
91.6933 1.250
91.7236 1.979
91.7538 1.771
91.7841 1.562
91.8144 1.615
91.8447 1.094
91.8749 1.406
91.9052 1.771
91.9355 1.667
91.9658 1.823
91.9961 1.719
92.0263 1.979
92.0566 2.187
92.0869 1.927
92.1172 1.719
92.1475 1.979
92.1777 1.927
92.2080 1.875
92.2383 1.667
92.2686 2.500
92.2988 2.344
92.3291 1.979
92.3594 2.083
92.3897 1.875
92.4200 2.187
92.4502 2.187
92.4805 2.292
92.5108 2.656
92.5411 3.125
92.5714 3.073
92.6016 2.031
92.6319 3.073
92.6622 2.604
92.6925 2.500
92.7227 2.708
92.7530 2.031
92.7833 2.292
92.8136 2.240
92.8439 2.656
92.8741 2.604
92.9044 2.656
92.9347 1.927
92.9650 2.552
92.9953 2.135
93.0255 2.187
93.0558 2.344
93.0861 2.031
93.1164 2.812
93.1466 1.719
93.1769 2.240
93.2072 1.823
93.2375 2.031
93.2678 1.875
93.2980 1.771
93.3283 2.135
93.3586 1.562
93.3889 1.719
93.4192 1.562
93.4494 2.344
93.4797 1.615
93.5100 2.240
93.5403 2.448
93.5706 2.187
93.6008 2.083
93.6311 2.135
93.6614 1.823
93.6917 1.302
93.7219 1.510
93.7522 1.719
93.7825 1.667
93.8128 1.719
93.8431 1.302
93.8733 2.083
93.9036 1.979
93.9339 1.719
93.9642 1.667
93.9945 2.344
94.0247 1.875
94.0550 1.406
94.0853 1.198
94.1156 2.187
94.1458 1.615
94.1761 1.458
94.2064 2.344
94.2367 1.562
94.2670 2.240
94.2972 1.510
94.3275 1.667
94.3578 1.823
94.3881 2.760
94.4184 2.187
94.4486 1.875
94.4789 2.448
94.5092 2.240
94.5395 2.448
94.5697 2.240
94.6000 2.135
94.6303 2.500
94.6606 2.708
94.6909 2.344
94.7211 3.021
94.7514 3.281
94.7817 2.969
94.8120 2.917
94.8423 2.604
94.8725 2.552
94.9028 3.177
94.9331 2.969
94.9634 3.646
94.9936 4.010
95.0239 3.490
95.0542 4.844
95.0845 4.792
95.1148 4.427
95.1450 4.687
95.1753 4.219
95.2056 4.635
95.2359 4.323
95.2662 3.698
95.2964 5.000
95.3267 4.479
95.3570 4.219
95.3873 3.698
95.4175 5.208
95.4478 4.740
95.4781 4.687
95.5084 4.219
95.5387 3.073
95.5689 3.333
95.5992 3.281
95.6295 3.854
95.6598 3.229
95.6901 3.229
95.7203 3.646
95.7506 3.229
95.7809 2.344
95.8112 2.708
95.8414 2.240
95.8717 2.708
95.9020 2.448
95.9323 2.708
95.9626 2.292
95.9928 2.031
96.0231 1.562
96.0534 2.031
96.0837 1.823
96.1140 1.979
96.1442 1.719
96.1745 1.927
96.2048 1.719
96.2351 1.875
96.2653 1.458
96.2956 1.771
96.3259 2.083
96.3562 1.719
96.3865 1.146
96.4167 1.510
96.4470 2.240
96.4773 1.771
96.5076 2.135
96.5379 1.927
96.5681 1.562
96.5984 1.458
96.6287 2.135
96.6590 1.354
96.6893 1.406
96.7195 1.667
96.7498 1.771
96.7801 1.771
96.8104 1.354
96.8406 1.771
96.8709 1.458
96.9012 1.927
96.9315 1.719
96.9618 1.302
96.9920 1.667
97.0223 2.292
97.0526 1.562
97.0829 1.562
97.1132 1.406
97.1434 1.771
97.1737 1.667
97.2040 1.719
97.2343 1.719
97.2645 1.979
97.2948 1.562
97.3251 1.562
97.3554 1.510
97.3857 1.719
97.4159 1.771
97.4462 1.146
97.4765 1.771
97.5068 1.458
97.5371 1.615
97.5673 1.875
97.5976 1.979
97.6279 1.615
97.6582 2.292
97.6884 1.458
97.7187 1.771
97.7490 1.562
97.7793 1.667
97.8096 1.771
97.8398 2.187
97.8701 2.240
97.9004 1.875
97.9307 2.500
97.9610 1.198
97.9912 1.250
98.0215 2.292
98.0518 2.344
98.0821 2.760
98.1123 2.812
98.1426 2.760
98.1729 2.500
98.2032 2.656
98.2335 2.396
98.2637 2.552
98.2940 2.917
98.3243 3.385
98.3546 2.917
98.3849 2.656
98.4151 3.385
98.4454 2.917
98.4757 3.854
98.5060 3.385
98.5362 3.177
98.5665 4.219
98.5968 3.125
98.6271 3.021
98.6574 2.552
98.6876 3.125
98.7179 3.125
98.7482 2.969
98.7785 2.031
98.8088 2.448
98.8390 3.125
98.8693 2.083
98.8996 3.229
98.9299 2.604
98.9601 2.083
98.9904 2.708
99.0207 2.708
99.0510 2.448
99.0813 1.667
99.1115 2.396
99.1418 1.823
99.1721 1.875
99.2024 2.292
99.2327 2.240
99.2629 1.823
99.2932 2.552
99.3235 2.187
99.3538 1.615
99.3841 1.823
99.4143 2.344
99.4446 1.458
99.4749 1.562
99.5052 1.823
99.5354 1.927
99.5657 1.875
99.5960 1.302
99.6263 1.719
99.6566 1.406
99.6868 1.198
99.7171 1.302
99.7474 2.500
99.7777 1.562
99.8080 1.823
99.8382 1.615
99.8685 1.458
99.8988 1.562
99.9291 1.198
99.9593 1.667
99.9896 2.031
100.0199 1.667
100.0502 1.302
100.0805 1.979
100.1107 1.458
100.1410 1.302
100.1713 1.458
100.2016 1.354
100.2319 1.510
100.2621 1.771
100.2924 1.667
100.3227 1.979
100.3530 1.562
100.3832 1.875
100.4135 1.250
100.4438 1.615
100.4741 1.823
100.5044 1.719
100.5346 1.562
100.5649 1.875
100.5952 1.458
100.6255 1.875
100.6558 2.135
100.6860 1.615
100.7163 1.510
100.7466 1.354
100.7769 1.042
100.8071 1.510
100.8374 1.302
100.8677 1.875
100.8980 0.885
100.9283 1.823
100.9585 1.615
100.9888 2.031
101.0191 2.187
101.0494 1.146
101.0797 1.302
101.1099 1.250
101.1402 1.667
101.1705 1.406
101.2008 1.510
101.2310 1.302
101.2613 1.354
101.2916 1.979
101.3219 1.719
101.3522 1.927
101.3824 1.719
101.4127 1.719
101.4430 1.354
101.4733 1.406
101.5036 1.719
101.5338 1.615
101.5641 1.406
101.5944 1.771
101.6247 1.354
101.6549 1.562
101.6852 1.771
101.7155 1.667
101.7458 1.250
101.7761 2.083
101.8063 1.875
101.8366 1.562
101.8669 1.510
101.8972 1.250
101.9275 1.979
101.9577 2.604
101.9880 2.292
102.0183 2.396
102.0486 1.354
102.0788 1.302
102.1091 2.448
102.1394 1.875
102.1697 1.875
102.2000 2.031
102.2302 1.979
102.2605 1.875
102.2908 1.458
102.3211 1.823
102.3514 1.979
102.3816 1.771
102.4119 1.927
102.4422 1.927
102.4725 2.344
102.5028 2.448
102.5330 2.656
102.5633 2.448
102.5936 2.656
102.6239 2.917
102.6541 2.812
102.6844 2.917
102.7147 2.604
102.7450 2.083
102.7753 2.083
102.8055 2.240
102.8358 2.969
102.8661 2.812
102.8964 1.875
102.9267 2.865
102.9569 2.917
102.9872 2.187
103.0175 2.812
103.0478 2.083
103.0780 2.656
103.1083 3.177
103.1386 2.292
103.1689 2.448
103.1992 2.552
103.2294 2.083
103.2597 2.969
103.2900 2.448
103.3203 2.656
103.3506 3.177
103.3808 2.812
103.4111 2.708
103.4414 1.927
103.4717 2.187
103.5019 2.812
103.5322 2.448
103.5625 2.812
103.5928 2.656
103.6231 2.865
103.6533 3.594
103.6836 2.500
103.7139 3.281
103.7442 2.448
103.7745 2.969
103.8047 3.802
103.8350 3.750
103.8653 3.542
103.8956 3.750
103.9258 3.646
103.9561 4.740
103.9864 4.323
104.0167 3.750
104.0470 3.802
104.0772 3.594
104.1075 4.740
104.1378 4.323
104.1681 3.958
104.1984 3.646
104.2286 3.750
104.2589 4.062
104.2892 3.333
104.3195 3.125
104.3497 2.760
104.3800 3.073
104.4103 3.802
104.4406 2.396
104.4709 2.917
104.5011 2.917
104.5314 2.031
104.5617 2.500
104.5920 2.552
104.6223 2.865
104.6525 2.187
104.6828 1.823
104.7131 2.604
104.7434 1.979
104.7736 1.875
104.8039 1.875
104.8342 1.927
104.8645 2.187
104.8948 2.031
104.9250 1.771
104.9553 1.979
104.9856 2.240
105.0159 1.927
105.0462 2.552
105.0764 2.292
105.1067 2.500
105.1370 1.771
105.1673 1.771
105.1975 1.719
105.2278 2.396
105.2581 1.406
105.2884 1.979
105.3187 1.615
105.3489 1.406
105.3792 1.406
105.4095 2.187
105.4398 1.667
105.4701 1.510
105.5003 1.823
105.5306 1.823
105.5609 1.510
105.5912 1.979
105.6215 1.198
105.6517 1.510
105.6820 1.875
105.7123 1.302
105.7426 1.406
105.7728 1.667
105.8031 1.562
105.8334 1.719
105.8637 1.354
105.8940 1.927
105.9242 1.250
105.9545 2.083
105.9848 1.458
106.0151 2.031
106.0454 1.406
106.0756 2.031
106.1059 1.458
106.1362 2.135
106.1665 1.979
106.1967 1.302
106.2270 1.875
106.2573 2.031
106.2876 1.510
106.3179 1.042
106.3481 1.250
106.3784 1.771
106.4087 2.031
106.4390 1.406
106.4693 1.771
106.4995 1.458
106.5298 1.979
106.5601 1.458
106.5904 1.562
106.6206 2.031
106.6509 1.719
106.6812 1.458
106.7115 1.667
106.7418 1.979
106.7720 1.667
106.8023 1.615
106.8326 1.458
106.8629 1.823
106.8932 1.979
106.9234 1.979
106.9537 1.667
106.9840 1.510
107.0143 1.771
107.0445 1.562
107.0748 1.406
107.1051 2.240
107.1354 1.823
107.1657 2.083
107.1959 1.719
107.2262 1.823
107.2565 1.771
107.2868 2.031
107.3171 2.083
107.3473 2.865
107.3776 2.135
107.4079 1.094
107.4382 1.979
107.4684 1.719
107.4987 2.083
107.5290 2.031
107.5593 2.083
107.5896 1.354
107.6198 2.187
107.6501 2.292
107.6804 1.875
107.7107 1.406
107.7410 1.719
107.7712 1.406
107.8015 2.031
107.8318 1.510
107.8621 2.396
107.8923 1.615
107.9226 1.667
107.9529 1.510
107.9832 1.979
108.0135 1.302
108.0437 1.979
108.0740 1.719
108.1043 1.510
108.1346 1.615
108.1649 1.406
108.1951 1.615
108.2254 1.510
108.2557 1.667
108.2860 1.615
108.3163 1.458
108.3465 1.927
108.3768 1.875
108.4071 1.823
108.4374 1.615
108.4676 1.198
108.4979 1.510
108.5282 1.146
108.5585 1.458
108.5888 1.615
108.6190 1.458
108.6493 1.406
108.6796 1.458
108.7099 1.615
108.7402 1.562
108.7704 2.135
108.8007 1.406
108.8310 1.302
108.8613 1.562
108.8915 1.927
108.9218 1.354
108.9521 1.667
108.9824 1.250
109.0127 1.927
109.0429 1.458
109.0732 1.771
109.1035 1.615
109.1338 1.302
109.1641 1.510
109.1943 2.187
109.2246 1.458
109.2549 1.875
109.2852 1.927
109.3154 1.927
109.3457 1.927
109.3760 1.354
109.4063 1.979
109.4366 1.875
109.4668 1.875
109.4971 1.250
109.5274 2.500
109.5577 2.135
109.5880 1.979
109.6182 1.562
109.6485 1.927
109.6788 2.187
109.7091 2.187
109.7393 1.510
109.7696 1.979
109.7999 2.031
109.8302 2.552
109.8605 2.135
109.8907 2.187
109.9210 2.135
109.9513 2.135
109.9816 1.927
110.0119 2.917
110.0421 2.552
110.0724 2.344
110.1027 2.240
110.1330 2.448
110.1632 2.135
110.1935 2.656
110.2238 2.760
110.2541 2.812
110.2844 2.083
110.3146 2.552
110.3449 2.292
110.3752 2.187
110.4055 2.708
110.4358 2.552
110.4660 1.719
110.4963 2.135
110.5266 2.448
110.5569 2.240
110.5871 2.240
110.6174 2.344
110.6477 2.656
110.6780 2.240
110.7083 1.719
110.7385 2.135
110.7688 2.448
110.7991 1.979
110.8294 2.187
110.8597 2.031
110.8899 1.562
110.9202 2.708
110.9505 2.448
110.9808 1.510
111.0110 2.187
111.0413 2.031
111.0716 1.875
111.1019 1.927
111.1322 1.771
111.1624 1.823
111.1927 1.771
111.2230 2.135
111.2533 1.979
111.2836 1.771
111.3138 1.458
111.3441 1.667
111.3744 2.292
111.4047 2.083
111.4350 1.823
111.4652 1.510
111.4955 1.667
111.5258 2.135
111.5561 1.927
111.5863 1.771
111.6166 2.187
111.6469 1.562
111.6772 1.406
111.7075 2.344
111.7377 1.458
111.7680 1.927
111.7983 1.979
111.8286 1.615
111.8589 1.875
111.8891 1.667
111.9194 1.823
111.9497 1.615
111.9800 1.667
112.0102 1.250
112.0405 1.562
112.0708 1.667
112.1011 1.823
112.1314 1.615
112.1616 1.615
112.1919 1.927
112.2222 1.354
112.2525 1.927
112.2828 1.458
112.3130 1.406
112.3433 1.146
112.3736 1.562
112.4039 1.094
112.4341 0.729
112.4644 1.667
112.4947 1.615
112.5250 1.667
112.5553 1.302
112.5855 2.083
112.6158 1.823
112.6461 1.615
112.6764 1.927
112.7067 1.250
112.7369 1.615
112.7672 1.771
112.7975 1.615
112.8278 1.667
112.8580 1.927
112.8883 1.719
112.9186 1.823
112.9489 1.510
112.9792 1.094
113.0094 1.562
113.0397 1.250
113.0700 1.094
113.1003 2.031
113.1306 1.719
113.1608 1.927
113.1911 1.458
113.2214 1.771
113.2517 1.094
113.2819 1.146
113.3122 1.198
113.3425 1.146
113.3728 1.823
113.4031 1.354
113.4333 1.771
113.4636 1.458
113.4939 1.562
113.5242 1.562
113.5545 1.510
113.5847 1.094
113.6150 1.615
113.6453 1.250
113.6756 2.240
113.7058 1.875
113.7361 1.510
113.7664 1.146
113.7967 1.354
113.8270 1.823
113.8572 1.198
113.8875 2.083
113.9178 1.406
113.9481 1.875
113.9784 1.354
114.0086 1.562
114.0389 1.146
114.0692 1.146
114.0995 1.823
114.1298 1.198
114.1600 1.302
114.1903 1.510
114.2206 1.146
114.2509 2.292
114.2811 1.302
114.3114 1.458
114.3417 1.146
114.3720 1.667
114.4023 1.510
114.4325 1.250
114.4628 1.771
114.4931 1.823
114.5234 1.354
114.5537 2.031
114.5839 1.562
114.6142 1.823
114.6445 1.562
114.6748 1.250
114.7050 1.667
114.7353 1.406
114.7656 1.406
114.7959 1.771
114.8262 1.510
114.8564 2.083
114.8867 1.458
114.9170 1.823
114.9473 2.396
114.9776 1.979
115.0078 2.135
115.0381 2.031
115.0684 1.875
115.0987 1.875
115.1289 1.979
115.1592 1.875
115.1895 1.979
115.2198 1.823
115.2501 1.562
115.2803 1.979
115.3106 2.083
115.3409 2.604
115.3712 2.500
115.4015 2.240
115.4317 2.396
115.4620 2.240
115.4923 2.031
115.5226 2.969
115.5528 2.448
115.5831 2.656
115.6134 2.500
115.6437 2.344
115.6740 3.229
115.7042 2.240
115.7345 2.656
115.7648 2.917
115.7951 2.656
115.8254 3.437
115.8556 4.062
115.8859 3.646
115.9162 3.177
115.9465 3.906
115.9767 3.281
116.0070 3.646
116.0373 3.750
116.0676 3.854
116.0979 3.437
116.1281 3.490
116.1584 5.000
116.1887 3.333
116.2190 4.479
116.2493 3.646
116.2795 3.385
116.3098 3.542
116.3401 4.219
116.3704 4.427
116.4006 4.323
116.4309 3.490
116.4612 3.750
116.4915 4.687
116.5218 3.333
116.5520 3.646
116.5823 3.698
116.6126 3.958
116.6429 3.542
116.6732 3.021
116.7034 3.646
116.7337 2.656
116.7640 3.125
116.7943 3.125
116.8245 2.865
116.8548 2.760
116.8851 2.656
116.9154 3.281
116.9457 2.083
116.9759 2.760
117.0062 2.604
117.0365 2.656
117.0668 2.292
117.0971 2.187
117.1273 2.396
117.1576 2.396
117.1879 2.396
117.2182 2.187
117.2485 2.292
117.2787 1.719
117.3090 1.562
117.3393 1.667
117.3696 2.292
117.3998 2.031
117.4301 2.240
117.4604 2.240
117.4907 1.927
117.5210 2.031
117.5512 2.031
117.5815 2.031
117.6118 2.292
117.6421 1.615
117.6724 1.823
117.7026 1.458
117.7329 2.083
117.7632 1.719
117.7935 1.823
117.8237 1.823
117.8540 1.823
117.8843 1.406
117.9146 2.292
117.9449 1.823
117.9751 1.771
118.0054 1.510
118.0357 2.292
118.0660 2.083
118.0963 2.552
118.1265 2.031
118.1568 1.719
118.1871 2.083
118.2174 1.458
118.2476 1.979
118.2779 1.875
118.3082 0.990
118.3385 1.615
118.3688 1.302
118.3990 1.250
118.4293 1.771
118.4596 1.510
118.4899 1.354
118.5202 1.719
118.5504 1.562
118.5807 1.198
118.6110 1.042
118.6413 1.562
118.6715 1.354
118.7018 1.667
118.7321 1.354
118.7624 1.250
118.7927 1.615
118.8229 1.458
118.8532 1.406
118.8835 2.083
118.9138 1.354
118.9441 1.458
118.9743 1.406
119.0046 1.979
119.0349 1.354
119.0652 1.615
119.0954 1.979
119.1257 1.771
119.1560 1.458
119.1863 1.354
119.2166 1.510
119.2468 1.875
119.2771 1.406
119.3074 1.458
119.3377 1.823
119.3680 1.302
119.3982 1.562
119.4285 1.667
119.4588 1.302
119.4891 1.354
119.5193 1.302
119.5496 1.719
119.5799 1.615
119.6102 1.771
119.6405 1.250
119.6707 2.031
119.7010 0.885
119.7313 1.615
119.7616 1.823
119.7919 1.510
119.8221 1.875
119.8524 1.510
119.8827 2.187
119.9130 1.875
119.9433 1.302
119.9735 1.354
120.0038 1.562
