'Id: "" Comment: "" Operator: "Lab Manager" Anode: "Cu" Scantype: "Locked Coupled" TimePerStep: "19.2" X: "9999" Y: "9999" Z: "9999" 
10.0015 2.083
10.0318 2.344
10.0620 2.240
10.0923 1.979
10.1226 2.604
10.1529 1.771
10.1832 2.396
10.2134 1.823
10.2437 2.656
10.2740 2.708
10.3043 2.240
10.3346 2.344
10.3648 2.760
10.3951 2.292
10.4254 2.865
10.4557 3.125
10.4859 2.969
10.5162 2.865
10.5465 2.812
10.5768 3.281
10.6071 3.958
10.6373 3.646
10.6676 4.375
10.6979 4.323
10.7282 4.896
10.7585 4.167
10.7887 5.104
10.8190 7.500
10.8493 9.219
10.8796 9.167
10.9098 12.500
10.9401 12.917
10.9704 17.708
11.0007 19.219
11.0310 25.625
11.0612 29.271
11.0915 29.635
11.1218 31.771
11.1521 28.281
11.1824 23.802
11.2126 21.302
11.2429 14.062
11.2732 11.406
11.3035 8.385
11.3337 6.875
11.3640 6.823
11.3943 5.677
11.4246 5.521
11.4549 5.104
11.4851 4.427
11.5154 3.906
11.5457 4.323
11.5760 3.542
11.6063 2.969
11.6365 3.594
11.6668 3.073
11.6971 2.917
11.7274 3.958
11.7577 4.323
11.7879 3.594
11.8182 2.865
11.8485 2.917
11.8788 3.073
11.9090 1.979
11.9393 2.708
11.9696 2.083
11.9999 2.031
12.0302 2.344
12.0604 2.708
12.0907 2.396
12.1210 1.562
12.1513 2.187
12.1816 2.135
12.2118 2.396
12.2421 2.448
12.2724 2.969
12.3027 2.448
12.3329 1.719
12.3632 2.135
12.3935 2.552
12.4238 2.552
12.4541 2.292
12.4843 2.292
12.5146 2.812
12.5449 2.500
12.5752 2.656
12.6055 2.187
12.6357 2.135
12.6660 2.135
12.6963 2.865
12.7266 2.656
12.7568 2.604
12.7871 2.552
12.8174 2.031
12.8477 2.344
12.8780 1.719
12.9082 2.135
12.9385 2.812
12.9688 2.344
12.9991 1.979
13.0294 2.135
13.0596 2.187
13.0899 2.292
13.1202 2.292
13.1505 2.500
13.1807 2.135
13.2110 2.083
13.2413 2.240
13.2716 2.396
13.3019 1.667
13.3321 1.406
13.3624 1.615
13.3927 2.292
13.4230 2.240
13.4533 1.979
13.4835 1.771
13.5138 1.719
13.5441 1.198
13.5744 1.979
13.6046 1.979
13.6349 1.823
13.6652 1.458
13.6955 2.187
13.7258 1.354
13.7560 1.615
13.7863 1.458
13.8166 1.510
13.8469 1.250
13.8772 1.302
13.9074 0.885
13.9377 1.771
13.9680 2.135
13.9983 1.146
14.0285 1.198
14.0588 1.146
14.0891 1.250
14.1194 1.198
14.1497 1.198
14.1799 1.094
14.2102 0.937
14.2405 1.562
14.2708 0.990
14.3011 1.198
14.3313 1.042
14.3616 1.042
14.3919 1.146
14.4222 1.094
14.4524 1.198
14.4827 1.250
14.5130 1.198
14.5433 1.042
14.5736 0.833
14.6038 1.250
14.6341 1.510
14.6644 1.615
14.6947 1.562
14.7250 1.615
14.7552 1.406
14.7855 1.562
14.8158 0.990
14.8461 1.458
14.8764 0.833
14.9066 1.823
14.9369 1.458
14.9672 0.990
14.9975 1.146
15.0277 1.458
15.0580 1.250
15.0883 1.823
15.1186 1.354
15.1489 1.094
15.1791 1.302
15.2094 0.885
15.2397 1.094
15.2700 0.885
15.3003 0.573
15.3305 1.250
15.3608 0.990
15.3911 0.677
15.4214 1.406
15.4516 1.250
15.4819 1.510
15.5122 1.302
15.5425 1.094
15.5728 0.990
15.6030 1.198
15.6333 0.573
15.6636 0.885
15.6939 0.781
15.7242 1.094
15.7544 1.094
15.7847 1.406
15.8150 0.885
15.8453 1.406
15.8755 1.354
15.9058 1.094
15.9361 1.198
15.9664 1.146
15.9967 0.625
16.0269 1.146
16.0572 0.885
16.0875 1.198
16.1178 1.302
16.1481 0.781
16.1783 0.833
16.2086 1.302
16.2389 1.406
16.2692 1.146
16.2994 1.042
16.3297 0.781
16.3600 0.885
16.3903 1.354
16.4206 0.625
16.4508 1.302
16.4811 0.781
16.5114 0.365
16.5417 1.094
16.5720 0.781
16.6022 1.042
16.6325 1.094
16.6628 0.781
16.6931 0.729
16.7233 0.625
16.7536 1.406
16.7839 0.469
16.8142 0.937
16.8445 1.094
16.8747 0.937
16.9050 1.198
16.9353 1.146
16.9656 1.146
16.9959 1.302
17.0261 1.510
17.0564 0.729
17.0867 0.990
17.1170 1.198
17.1472 0.937
17.1775 0.990
17.2078 0.677
17.2381 0.885
17.2684 1.250
17.2986 0.937
17.3289 1.198
17.3592 0.885
17.3895 0.937
17.4198 0.990
17.4500 0.573
17.4803 1.198
17.5106 1.250
17.5409 0.729
17.5712 0.781
17.6014 1.354
17.6317 0.833
17.6620 0.729
17.6923 0.990
17.7225 0.937
17.7528 0.833
17.7831 0.417
17.8134 0.729
17.8437 0.781
17.8739 0.677
17.9042 0.885
17.9345 0.990
17.9648 0.625
17.9951 1.094
18.0253 0.937
18.0556 0.937
18.0859 0.937
18.1162 1.094
18.1464 0.885
18.1767 0.885
18.2070 1.406
18.2373 1.406
18.2676 0.521
18.2978 0.781
18.3281 0.937
18.3584 0.990
18.3887 0.937
18.4190 0.781
18.4492 0.885
18.4795 0.625
18.5098 0.729
18.5401 0.885
18.5703 0.990
18.6006 0.573
18.6309 0.885
18.6612 0.990
18.6915 0.729
18.7217 0.573
18.7520 0.833
18.7823 0.469
18.8126 0.521
18.8429 0.885
18.8731 1.094
18.9034 0.729
18.9337 0.781
18.9640 0.573
18.9942 0.781
19.0245 1.094
19.0548 0.677
19.0851 0.885
19.1154 0.729
19.1456 0.781
19.1759 1.354
19.2062 0.781
19.2365 0.833
19.2668 0.312
19.2970 0.573
19.3273 0.677
19.3576 0.833
19.3879 0.677
19.4181 0.990
19.4484 0.573
19.4787 0.990
19.5090 0.729
19.5393 0.833
19.5695 0.885
19.5998 0.677
19.6301 0.677
19.6604 0.625
19.6907 0.781
19.7209 0.573
19.7512 0.729
19.7815 0.573
19.8118 0.833
19.8420 0.677
19.8723 0.781
19.9026 0.781
19.9329 1.042
19.9632 0.469
19.9934 0.677
20.0237 0.677
20.0540 0.677
20.0843 0.729
20.1146 0.573
20.1448 0.937
20.1751 1.042
20.2054 0.990
20.2357 0.573
20.2659 0.625
20.2962 0.885
20.3265 0.885
20.3568 0.885
20.3871 0.417
20.4173 0.365
20.4476 0.417
20.4779 0.521
20.5082 0.729
20.5385 0.937
20.5687 0.729
20.5990 0.677
20.6293 0.521
20.6596 0.677
20.6899 0.625
20.7201 0.625
20.7504 0.625
20.7807 0.885
20.8110 0.781
20.8412 0.677
20.8715 0.677
20.9018 0.885
20.9321 0.729
20.9624 1.042
20.9926 0.885
21.0229 0.937
21.0532 0.833
21.0835 0.625
21.1138 0.885
21.1440 0.625
21.1743 0.885
21.2046 0.312
21.2349 0.781
21.2651 0.885
21.2954 0.937
21.3257 0.625
21.3560 0.469
21.3863 0.469
21.4165 0.990
21.4468 0.833
21.4771 0.937
21.5074 0.990
21.5377 0.469
21.5679 0.937
21.5982 0.677
21.6285 0.469
21.6588 0.625
21.6890 0.677
21.7193 0.885
21.7496 0.573
21.7799 0.729
21.8102 0.677
21.8404 0.729
21.8707 0.781
21.9010 0.937
21.9313 0.937
21.9616 0.625
21.9918 0.573
22.0221 1.042
22.0524 0.625
22.0827 0.677
22.1129 0.729
22.1432 0.729
22.1735 0.781
22.2038 0.469
22.2341 0.833
22.2643 1.042
22.2946 0.937
22.3249 0.729
22.3552 0.677
22.3855 0.833
22.4157 0.729
22.4460 1.146
22.4763 0.833
22.5066 0.937
22.5368 1.302
22.5671 1.354
22.5974 1.042
22.6277 0.937
22.6580 1.250
22.6882 0.885
22.7185 0.885
22.7488 0.625
22.7791 0.521
22.8094 0.781
22.8396 0.677
22.8699 0.417
22.9002 0.208
22.9305 0.885
22.9607 0.677
22.9910 0.625
23.0213 0.312
23.0516 0.677
23.0819 0.833
23.1121 0.573
23.1424 0.469
23.1727 0.365
23.2030 0.573
23.2333 0.573
23.2635 0.729
23.2938 0.469
23.3241 0.729
23.3544 0.417
23.3846 0.573
23.4149 0.521
23.4452 0.521
23.4755 0.573
23.5058 0.885
23.5360 0.885
23.5663 0.521
23.5966 0.677
23.6269 0.781
23.6572 0.677
23.6874 0.521
23.7177 0.521
23.7480 0.417
23.7783 0.573
23.8086 0.312
23.8388 0.781
23.8691 0.365
23.8994 0.312
23.9297 0.625
23.9599 0.417
23.9902 0.573
24.0205 0.417
24.0508 0.729
24.0811 0.312
24.1113 0.625
24.1416 0.625
24.1719 0.781
24.2022 0.781
24.2325 0.937
24.2627 0.573
24.2930 0.208
24.3233 0.365
24.3536 0.625
24.3838 0.312
24.4141 0.417
24.4444 0.521
24.4747 0.417
24.5050 0.521
24.5352 0.833
24.5655 0.573
24.5958 0.625
24.6261 0.625
24.6564 1.094
24.6866 0.521
24.7169 0.625
24.7472 0.625
24.7775 0.833
24.8077 0.521
24.8380 0.469
24.8683 0.573
24.8986 0.573
24.9289 0.312
24.9591 0.677
24.9894 0.729
25.0197 0.833
25.0500 0.521
25.0803 0.521
25.1105 0.833
25.1408 0.573
25.1711 0.677
25.2014 0.885
25.2316 0.365
25.2619 0.677
25.2922 0.521
25.3225 0.677
25.3528 0.573
25.3830 0.521
25.4133 0.573
25.4436 0.885
25.4739 0.677
25.5042 0.365
25.5344 0.469
25.5647 0.573
25.5950 0.573
25.6253 0.312
25.6555 0.365
25.6858 0.417
25.7161 0.365
25.7464 0.625
25.7767 0.937
25.8069 0.625
25.8372 0.729
25.8675 0.312
25.8978 0.469
25.9281 0.469
25.9583 0.417
25.9886 0.365
26.0189 0.625
26.0492 0.260
26.0794 0.521
26.1097 0.521
26.1400 0.260
26.1703 0.365
26.2006 0.365
26.2308 0.417
26.2611 0.729
26.2914 0.573
26.3217 0.312
26.3520 0.469
26.3822 0.469
26.4125 0.469
26.4428 0.625
26.4731 0.677
26.5034 0.417
26.5336 0.781
26.5639 0.625
26.5942 0.573
26.6245 0.573
26.6547 0.417
26.6850 0.885
26.7153 0.677
26.7456 0.885
26.7759 0.365
26.8061 0.521
26.8364 0.521
26.8667 0.417
26.8970 0.625
26.9273 0.573
26.9575 0.469
26.9878 0.677
27.0181 0.365
27.0484 0.625
27.0786 0.208
27.1089 0.833
27.1392 0.677
27.1695 0.312
27.1998 0.521
27.2300 0.521
27.2603 0.521
27.2906 0.365
27.3209 0.469
27.3512 0.729
27.3814 0.417
27.4117 0.312
27.4420 0.677
27.4723 0.260
27.5025 0.521
27.5328 0.417
27.5631 0.260
27.5934 0.729
27.6237 0.208
27.6539 0.312
27.6842 0.312
27.7145 0.469
27.7448 0.625
27.7751 0.677
27.8053 0.417
27.8356 0.625
27.8659 0.573
27.8962 0.365
27.9264 0.521
27.9567 0.677
27.9870 0.469
28.0173 0.990
28.0476 0.573
28.0778 0.365
28.1081 0.417
28.1384 0.469
28.1687 0.729
28.1990 0.365
28.2292 0.521
28.2595 0.677
28.2898 0.260
28.3201 0.365
28.3503 0.469
28.3806 0.573
28.4109 0.260
28.4412 0.469
28.4715 0.573
28.5017 0.156
28.5320 0.312
28.5623 0.417
28.5926 0.469
28.6229 0.885
28.6531 0.417
28.6834 0.312
28.7137 0.625
28.7440 0.260
28.7742 0.365
28.8045 0.469
28.8348 0.417
28.8651 0.208
28.8954 0.365
28.9256 0.469
28.9559 0.417
28.9862 0.469
29.0165 0.781
29.0468 0.469
29.0770 0.365
29.1073 0.260
29.1376 0.625
29.1679 0.417
29.1981 0.417
29.2284 0.729
29.2587 0.729
29.2890 0.729
29.3193 0.365
29.3495 0.365
29.3798 0.625
29.4101 0.417
29.4404 0.625
29.4707 0.365
29.5009 0.417
29.5312 0.365
29.5615 0.677
29.5918 0.833
29.6221 0.469
29.6523 0.677
29.6826 0.625
29.7129 0.417
29.7432 0.521
29.7734 0.469
29.8037 0.365
29.8340 0.521
29.8643 0.677
29.8946 0.365
29.9248 0.625
29.9551 0.521
29.9854 0.625
30.0157 0.677
30.0460 0.208
30.0762 0.729
30.1065 0.521
30.1368 0.781
30.1671 0.677
30.1973 0.677
30.2276 0.573
30.2579 0.469
30.2882 0.469
30.3185 1.094
30.3487 0.833
30.3790 1.094
30.4093 0.521
30.4396 0.781
30.4699 0.625
30.5001 0.781
30.5304 0.781
30.5607 0.625
30.5910 0.990
30.6212 1.094
30.6515 0.677
30.6818 1.302
30.7121 0.781
30.7424 0.885
30.7726 0.833
30.8029 0.885
30.8332 1.094
30.8635 1.510
30.8938 1.094
30.9240 1.562
30.9543 1.250
30.9846 1.354
31.0149 1.406
31.0451 1.198
31.0754 2.187
31.1057 1.406
31.1360 1.875
31.1663 1.927
31.1965 2.031
31.2268 2.344
31.2571 2.292
31.2874 1.979
31.3177 1.979
31.3479 1.667
31.3782 1.979
31.4085 1.771
31.4388 1.875
31.4690 2.083
31.4993 2.708
31.5296 1.927
31.5599 2.969
31.5902 2.812
31.6204 2.812
31.6507 2.240
31.6810 2.812
31.7113 2.240
31.7416 2.240
31.7718 1.927
31.8021 2.187
31.8324 2.240
31.8627 1.615
31.8929 1.458
31.9232 2.240
31.9535 1.927
31.9838 1.927
32.0141 1.302
32.0443 1.198
32.0746 1.771
32.1049 2.135
32.1352 1.406
32.1655 1.250
32.1957 1.458
32.2260 1.562
32.2563 1.302
32.2866 1.042
32.3169 1.354
32.3471 1.354
32.3774 1.302
32.4077 1.250
32.4380 0.990
32.4682 1.042
32.4985 1.302
32.5288 0.885
32.5591 0.937
32.5894 1.042
32.6196 0.781
32.6499 0.781
32.6802 0.625
32.7105 0.677
32.7408 0.781
32.7710 0.573
32.8013 0.729
32.8316 0.729
32.8619 0.990
32.8921 0.521
32.9224 0.833
32.9527 0.781
32.9830 0.937
33.0133 0.937
33.0435 0.625
33.0738 0.417
33.1041 0.625
33.1344 0.729
33.1647 0.365
33.1949 0.365
33.2252 0.729
33.2555 0.365
33.2858 0.573
33.3160 0.312
33.3463 0.260
33.3766 0.885
33.4069 0.260
33.4372 0.417
33.4674 0.625
33.4977 0.625
33.5280 0.521
33.5583 0.312
33.5886 0.469
33.6188 0.469
33.6491 0.677
33.6794 0.365
33.7097 0.469
33.7399 0.365
33.7702 0.365
33.8005 0.208
33.8308 0.573
33.8611 0.260
33.8913 0.469
33.9216 0.521
33.9519 0.521
33.9822 0.469
34.0125 0.781
34.0427 0.365
34.0730 0.573
34.1033 0.469
34.1336 0.417
34.1638 0.573
34.1941 0.781
34.2244 0.677
34.2547 0.677
34.2850 0.885
34.3152 0.469
34.3455 1.094
34.3758 0.469
34.4061 0.573
34.4364 0.260
34.4666 0.469
34.4969 0.677
34.5272 0.573
34.5575 0.260
34.5877 0.625
34.6180 0.208
34.6483 0.729
34.6786 0.156
34.7089 0.521
34.7391 0.417
34.7694 0.260
34.7997 0.260
34.8300 0.260
34.8603 0.573
34.8905 0.365
34.9208 0.208
34.9511 0.417
34.9814 0.417
35.0116 0.521
35.0419 0.260
35.0722 0.365
35.1025 0.365
35.1328 0.312
35.1630 0.521
35.1933 0.365
35.2236 0.417
35.2539 0.469
35.2842 0.729
35.3144 0.417
35.3447 0.625
35.3750 0.625
35.4053 0.156
35.4356 0.521
35.4658 0.469
35.4961 0.833
35.5264 0.208
35.5567 0.833
35.5869 0.521
35.6172 0.677
35.6475 0.365
35.6778 0.573
35.7081 0.885
35.7383 0.417
35.7686 0.365
35.7989 0.208
35.8292 0.312
35.8595 0.469
35.8897 0.573
35.9200 0.417
35.9503 0.469
35.9806 0.365
36.0108 0.417
36.0411 0.677
36.0714 0.573
36.1017 0.885
36.1320 0.469
36.1622 0.573
36.1925 0.521
36.2228 0.365
36.2531 0.417
36.2834 0.469
36.3136 0.260
36.3439 0.521
36.3742 0.417
36.4045 0.260
36.4347 0.208
36.4650 0.365
36.4953 0.469
36.5256 0.677
36.5559 0.417
36.5861 0.521
36.6164 0.521
36.6467 0.365
36.6770 0.365
36.7073 0.417
36.7375 0.469
36.7678 0.417
36.7981 0.365
36.8284 0.312
36.8586 0.417
36.8889 0.208
36.9192 0.156
36.9495 0.260
36.9798 0.312
37.0100 0.312
37.0403 0.677
37.0706 0.260
37.1009 0.365
37.1312 0.469
37.1614 0.365
37.1917 0.208
37.2220 0.521
37.2523 0.469
37.2825 0.156
37.3128 0.156
37.3431 0.208
37.3734 0.417
37.4037 0.469
37.4339 0.104
37.4642 0.260
37.4945 0.365
37.5248 0.521
37.5551 0.365
37.5853 0.312
37.6156 0.312
37.6459 0.260
37.6762 0.677
37.7064 0.260
37.7367 0.208
37.7670 0.260
37.7973 0.573
37.8276 0.521
37.8578 0.417
37.8881 0.312
37.9184 0.208
37.9487 0.260
37.9790 0.365
38.0092 0.208
38.0395 0.521
38.0698 0.573
38.1001 0.208
38.1304 0.156
38.1606 0.208
38.1909 0.208
38.2212 0.365
38.2515 0.156
38.2817 0.573
38.3120 0.312
38.3423 0.260
38.3726 0.312
38.4029 0.469
38.4331 0.208
38.4634 0.365
38.4937 0.312
38.5240 0.625
38.5543 0.469
38.5845 0.365
38.6148 0.417
38.6451 0.312
38.6754 0.417
38.7056 0.312
38.7359 0.417
38.7662 0.417
38.7965 0.365
38.8268 0.417
38.8570 0.312
38.8873 0.417
38.9176 0.365
38.9479 0.365
38.9782 0.312
39.0084 0.417
39.0387 0.208
39.0690 0.156
39.0993 0.521
39.1295 0.469
39.1598 0.208
39.1901 0.365
39.2204 0.208
39.2507 0.625
39.2809 0.625
39.3112 0.312
39.3415 0.417
39.3718 0.365
39.4021 0.260
39.4323 0.469
39.4626 0.260
39.4929 0.312
39.5232 0.156
39.5534 0.365
39.5837 0.208
39.6140 0.260
39.6443 0.312
39.6746 0.365
39.7048 0.365
39.7351 0.260
39.7654 0.573
39.7957 0.260
39.8260 0.365
39.8562 0.625
39.8865 0.156
39.9168 0.365
39.9471 0.260
39.9773 0.104
40.0076 0.260
40.0379 0.469
40.0682 0.521
40.0985 0.469
40.1287 0.312
40.1590 0.729
40.1893 0.781
40.2196 0.104
40.2499 0.260
40.2801 0.417
40.3104 0.156
40.3407 0.156
40.3710 0.469
40.4012 0.365
40.4315 0.208
40.4618 0.208
40.4921 0.365
40.5224 0.365
40.5526 0.312
40.5829 0.417
40.6132 0.521
40.6435 0.625
40.6738 0.104
40.7040 0.365
40.7343 0.208
40.7646 0.208
40.7949 0.312
40.8251 0.469
40.8554 0.521
40.8857 0.573
40.9160 0.417
40.9463 0.417
40.9765 0.312
41.0068 0.156
41.0371 0.417
41.0674 0.208
41.0977 0.417
41.1279 0.312
41.1582 0.260
41.1885 0.260
41.2188 0.521
41.2491 0.417
41.2793 0.469
41.3096 0.365
41.3399 0.156
41.3702 0.417
41.4004 0.469
41.4307 0.365
41.4610 0.365
41.4913 0.365
41.5216 0.260
41.5518 0.260
41.5821 0.312
41.6124 0.469
41.6427 0.417
41.6730 0.417
41.7032 0.417
41.7335 0.365
41.7638 0.729
41.7941 0.417
41.8243 0.156
41.8546 0.365
41.8849 0.208
41.9152 0.417
41.9455 0.208
41.9757 0.260
42.0060 0.677
42.0363 0.312
42.0666 0.365
42.0969 0.208
42.1271 0.625
42.1574 0.417
42.1877 0.312
42.2180 0.521
42.2482 0.260
42.2785 0.260
42.3088 0.417
42.3391 0.469
42.3694 0.417
42.3996 0.521
42.4299 0.260
42.4602 0.365
42.4905 0.521
42.5208 0.469
42.5510 0.365
42.5813 0.260
42.6116 0.417
42.6419 0.521
42.6721 0.469
42.7024 0.156
42.7327 0.417
42.7630 0.365
42.7933 0.208
42.8235 0.208
42.8538 0.156
42.8841 0.156
42.9144 0.625
42.9447 0.365
42.9749 0.260
43.0052 0.052
43.0355 0.417
43.0658 0.260
43.0960 0.469
43.1263 0.365
43.1566 0.365
43.1869 0.365
43.2172 0.365
43.2474 0.417
43.2777 0.312
43.3080 0.417
43.3383 0.625
43.3686 0.469
43.3988 0.365
43.4291 0.156
43.4594 0.469
43.4897 0.573
43.5199 0.156
43.5502 0.312
43.5805 0.312
43.6108 0.417
43.6411 0.417
43.6713 0.365
43.7016 0.469
43.7319 0.208
43.7622 0.417
43.7925 0.417
43.8227 0.312
43.8530 0.573
43.8833 0.469
43.9136 0.312
43.9439 0.104
43.9741 0.573
44.0044 0.156
44.0347 0.573
44.0650 0.156
44.0952 0.365
44.1255 0.365
44.1558 0.260
44.1861 0.260
44.2164 0.312
44.2466 0.312
44.2769 0.521
44.3072 0.417
44.3375 0.469
44.3678 0.573
44.3980 0.417
44.4283 0.521
44.4586 0.208
44.4889 0.365
44.5191 0.365
44.5494 0.260
44.5797 0.625
44.6100 0.156
44.6403 0.208
44.6705 0.417
44.7008 0.417
44.7311 0.365
44.7614 0.312
44.7917 0.312
44.8219 0.312
44.8522 0.312
44.8825 0.365
44.9128 0.365
44.9430 0.260
44.9733 0.260
45.0036 0.312
45.0339 0.573
45.0642 0.260
45.0944 0.365
45.1247 0.521
45.1550 0.469
45.1853 0.417
45.2156 0.417
45.2458 0.365
45.2761 0.260
45.3064 0.312
45.3367 0.156
45.3669 0.260
45.3972 0.521
45.4275 0.625
45.4578 0.365
45.4881 0.573
45.5183 0.208
45.5486 0.312
45.5789 0.208
45.6092 0.208
45.6395 0.365
45.6697 0.312
45.7000 0.469
45.7303 0.208
45.7606 0.469
45.7908 0.156
45.8211 0.260
45.8514 0.573
45.8817 0.417
45.9120 0.417
45.9422 0.521
45.9725 0.521
46.0028 0.260
46.0331 0.677
46.0634 0.365
46.0936 0.469
46.1239 0.521
46.1542 0.729
46.1845 0.625
46.2147 0.365
46.2450 0.573
46.2753 0.365
46.3056 0.312
46.3359 0.781
46.3661 0.312
46.3964 0.573
46.4267 0.417
46.4570 0.312
46.4873 0.417
46.5175 0.521
46.5478 0.365
46.5781 0.677
46.6084 0.469
46.6386 0.365
46.6689 0.781
46.6992 0.469
46.7295 0.260
46.7598 0.521
46.7900 0.469
46.8203 0.521
46.8506 0.521
46.8809 0.469
46.9112 0.365
46.9414 0.521
46.9717 0.365
47.0020 0.469
47.0323 0.417
47.0626 0.417
47.0928 0.469
47.1231 0.260
47.1534 0.417
47.1837 0.260
47.2139 0.469
47.2442 0.417
47.2745 0.573
47.3048 0.365
47.3351 0.156
47.3653 0.469
47.3956 0.573
47.4259 0.469
47.4562 0.260
47.4865 0.573
47.5167 0.469
47.5470 0.260
47.5773 0.677
47.6076 0.260
47.6378 0.469
47.6681 0.469
47.6984 0.625
47.7287 0.156
47.7590 0.312
47.7892 0.573
47.8195 0.677
47.8498 0.260
47.8801 0.208
47.9104 0.417
47.9406 0.729
47.9709 0.260
48.0012 0.469
48.0315 0.260
48.0617 0.521
48.0920 0.312
48.1223 0.521
48.1526 0.469
48.1829 0.417
48.2131 0.677
48.2434 0.312
48.2737 0.417
48.3040 0.469
48.3343 0.521
48.3645 0.312
48.3948 0.365
48.4251 0.312
48.4554 0.625
48.4856 0.469
48.5159 0.417
48.5462 0.677
48.5765 0.521
48.6068 0.312
48.6370 0.469
48.6673 0.365
48.6976 0.469
48.7279 0.417
48.7582 0.469
48.7884 0.833
48.8187 0.573
48.8490 0.417
48.8793 0.417
48.9095 0.521
48.9398 0.469
48.9701 0.573
49.0004 0.677
49.0307 0.521
49.0609 0.469
49.0912 0.729
49.1215 0.885
49.1518 0.417
49.1821 0.625
49.2123 0.417
49.2426 0.573
49.2729 0.521
49.3032 0.365
49.3334 0.781
49.3637 0.365
49.3940 0.625
49.4243 0.885
49.4546 0.365
49.4848 0.469
49.5151 0.312
49.5454 0.573
49.5757 0.417
49.6060 0.833
49.6362 0.573
49.6665 0.469
49.6968 0.573
49.7271 0.417
49.7574 0.469
49.7876 0.469
49.8179 0.365
49.8482 0.729
49.8785 0.521
49.9087 0.417
49.9390 0.625
49.9693 0.417
49.9996 0.729
50.0299 0.365
50.0601 0.469
50.0904 0.677
50.1207 0.365
50.1510 0.417
50.1813 0.521
50.2115 0.417
50.2418 0.573
50.2721 0.625
50.3024 0.833
50.3326 0.625
50.3629 0.521
50.3932 0.729
50.4235 0.573
50.4538 0.417
50.4840 0.417
50.5143 0.260
50.5446 0.417
50.5749 0.417
50.6052 0.625
50.6354 0.365
50.6657 0.417
50.6960 0.573
50.7263 0.521
50.7565 0.469
50.7868 0.312
50.8171 0.625
50.8474 0.625
50.8777 0.365
50.9079 0.625
50.9382 0.417
50.9685 0.573
50.9988 0.469
51.0291 0.573
51.0593 0.677
51.0896 0.417
51.1199 0.365
51.1502 0.885
51.1804 0.573
51.2107 0.625
51.2410 0.521
51.2713 0.573
51.3016 0.417
51.3318 0.365
51.3621 0.625
51.3924 0.521
51.4227 0.573
51.4530 0.781
51.4832 0.781
51.5135 0.833
51.5438 0.573
51.5741 0.729
51.6043 0.260
51.6346 0.677
51.6649 0.833
51.6952 0.469
51.7255 0.625
51.7557 0.573
51.7860 0.521
51.8163 0.573
51.8466 0.625
51.8769 0.521
51.9071 0.625
51.9374 0.521
51.9677 0.469
51.9980 0.573
52.0282 0.365
52.0585 0.521
52.0888 0.365
52.1191 0.469
52.1494 0.573
52.1796 0.469
52.2099 0.417
52.2402 0.469
52.2705 0.469
52.3008 0.573
52.3310 0.365
52.3613 0.729
52.3916 0.365
52.4219 0.365
52.4521 0.625
52.4824 0.781
52.5127 0.365
52.5430 0.365
52.5733 0.365
52.6035 0.417
52.6338 0.365
52.6641 0.729
52.6944 0.625
52.7247 0.729
52.7549 0.312
52.7852 0.208
52.8155 0.469
52.8458 0.625
52.8761 0.677
52.9063 0.469
52.9366 0.573
52.9669 0.625
52.9972 0.365
53.0274 0.573
53.0577 0.573
53.0880 0.729
53.1183 0.625
53.1486 0.469
53.1788 0.312
53.2091 0.417
53.2394 0.208
53.2697 0.521
53.3000 0.365
53.3302 0.365
53.3605 0.312
53.3908 0.521
53.4211 0.521
53.4513 0.625
53.4816 0.365
53.5119 0.469
53.5422 0.521
53.5725 0.312
53.6027 0.469
53.6330 0.365
53.6633 0.990
53.6936 0.365
53.7239 0.260
53.7541 0.417
53.7844 0.365
53.8147 0.677
53.8450 0.625
53.8752 0.521
53.9055 0.469
53.9358 0.312
53.9661 0.312
53.9964 0.469
54.0266 0.260
54.0569 0.781
54.0872 0.208
54.1175 0.260
54.1478 0.365
54.1780 0.312
54.2083 0.417
54.2386 0.365
54.2689 0.417
54.2991 0.729
54.3294 0.833
54.3597 0.521
54.3900 0.208
54.4203 0.365
54.4505 0.417
54.4808 0.417
54.5111 0.625
54.5414 0.365
54.5717 0.417
54.6019 0.417
54.6322 0.417
54.6625 0.365
54.6928 0.365
54.7230 0.469
54.7533 0.417
54.7836 0.365
54.8139 0.312
54.8442 0.260
54.8744 0.260
54.9047 0.260
54.9350 0.312
54.9653 0.521
54.9956 0.365
55.0258 0.417
55.0561 0.365
55.0864 0.260
55.1167 0.365
55.1469 0.729
55.1772 0.417
55.2075 0.312
55.2378 0.365
55.2681 0.365
55.2983 0.365
55.3286 0.469
55.3589 0.417
55.3892 0.312
55.4195 0.365
55.4497 0.521
55.4800 0.104
55.5103 0.312
55.5406 0.260
55.5709 0.312
55.6011 0.365
55.6314 0.521
55.6617 0.365
55.6920 0.260
55.7222 0.417
55.7525 0.260
55.7828 0.417
55.8131 0.417
55.8434 0.729
55.8736 0.417
55.9039 0.156
55.9342 0.365
55.9645 0.260
55.9948 0.260
56.0250 0.260
56.0553 0.312
56.0856 0.365
56.1159 0.312
56.1461 0.573
56.1764 0.312
56.2067 0.312
56.2370 0.573
56.2673 0.312
56.2975 0.469
56.3278 0.104
56.3581 0.260
56.3884 0.365
56.4187 0.365
56.4489 0.625
56.4792 0.573
56.5095 0.469
56.5398 0.417
56.5700 0.260
56.6003 0.469
56.6306 0.365
56.6609 0.312
56.6912 0.208
56.7214 0.312
56.7517 0.052
56.7820 0.417
56.8123 0.469
56.8426 0.312
56.8728 0.208
56.9031 0.312
56.9334 0.417
56.9637 0.417
56.9939 0.365
57.0242 0.312
57.0545 0.208
57.0848 0.417
57.1151 0.469
57.1453 0.312
57.1756 0.625
57.2059 0.365
57.2362 0.208
57.2665 0.365
57.2967 0.156
57.3270 0.417
57.3573 0.312
57.3876 0.365
57.4178 0.208
57.4481 0.156
57.4784 0.156
57.5087 0.312
57.5390 0.312
57.5692 0.260
57.5995 0.208
57.6298 0.260
57.6601 0.312
57.6904 0.312
57.7206 0.312
57.7509 0.312
57.7812 0.312
57.8115 0.260
57.8417 0.312
57.8720 0.104
57.9023 0.365
57.9326 0.312
57.9629 0.365
57.9931 0.104
58.0234 0.312
58.0537 0.260
58.0840 0.312
58.1143 0.417
58.1445 0.312
58.1748 0.417
58.2051 0.156
58.2354 0.208
58.2656 0.312
58.2959 0.260
58.3262 0.260
58.3565 0.573
58.3868 0.521
58.4170 0.208
58.4473 0.260
58.4776 0.312
58.5079 0.365
58.5382 0.417
58.5684 0.312
58.5987 0.156
58.6290 0.208
58.6593 0.156
58.6896 0.365
58.7198 0.312
58.7501 0.417
58.7804 0.156
58.8107 0.156
58.8409 0.260
58.8712 0.417
58.9015 0.312
58.9318 0.208
58.9621 0.312
58.9923 0.312
59.0226 0.156
59.0529 0.156
59.0832 0.312
59.1135 0.312
59.1437 0.260
59.1740 0.312
59.2043 0.156
59.2346 0.365
59.2648 0.365
59.2951 0.156
59.3254 0.312
59.3557 0.260
59.3860 0.365
59.4162 0.312
59.4465 0.156
59.4768 0.208
59.5071 0.208
59.5374 0.312
59.5676 0.104
59.5979 0.417
59.6282 0.260
59.6585 0.312
59.6887 0.521
59.7190 0.312
59.7493 0.312
59.7796 0.417
59.8099 0.365
59.8401 0.417
59.8704 0.156
59.9007 0.365
59.9310 0.312
59.9613 0.312
59.9915 0.365
60.0218 0.365
60.0521 0.208
60.0824 0.312
60.1126 0.365
60.1429 0.208
60.1732 0.260
60.2035 0.312
60.2338 0.260
60.2640 0.104
60.2943 0.312
60.3246 0.104
60.3549 0.312
60.3852 0.312
60.4154 0.208
60.4457 0.312
60.4760 0.312
60.5063 0.312
60.5365 0.208
60.5668 0.312
60.5971 0.208
60.6274 0.312
60.6577 0.312
60.6879 0.260
60.7182 0.312
60.7485 0.260
60.7788 0.573
60.8091 0.260
60.8393 0.260
60.8696 0.312
60.8999 0.365
60.9302 0.104
60.9604 0.312
60.9907 0.312
61.0210 0.260
61.0513 0.417
61.0816 0.312
61.1118 0.156
61.1421 0.260
61.1724 0.208
61.2027 0.208
61.2330 0.260
61.2632 0.104
61.2935 0.312
61.3238 0.208
61.3541 0.312
61.3844 0.573
61.4146 0.312
61.4449 0.104
61.4752 0.365
61.5055 0.156
61.5357 0.260
61.5660 0.260
61.5963 0.417
61.6266 0.104
61.6569 0.260
61.6871 0.208
61.7174 0.104
61.7477 0.156
61.7780 0.260
61.8083 0.208
61.8385 0.312
61.8688 0.625
61.8991 0.260
61.9294 0.208
61.9596 0.312
61.9899 0.312
62.0202 0.312
62.0505 0.208
62.0808 0.312
62.1110 0.260
62.1413 0.156
62.1716 0.312
62.2019 0.260
62.2322 0.312
62.2624 0.312
62.2927 0.312
62.3230 0.312
62.3533 0.417
62.3835 0.365
62.4138 0.260
62.4441 0.521
62.4744 0.312
62.5047 0.156
62.5349 0.365
62.5652 0.365
62.5955 0.260
62.6258 0.208
62.6561 0.208
62.6863 0.156
62.7166 0.104
62.7469 0.104
62.7772 0.312
62.8074 0.417
62.8377 0.260
62.8680 0.260
62.8983 0.260
62.9286 0.365
62.9588 0.260
62.9891 0.260
63.0194 0.260
63.0497 0.260
63.0800 0.312
63.1102 0.208
63.1405 0.521
63.1708 0.104
63.2011 0.312
63.2313 0.208
63.2616 0.312
63.2919 0.260
63.3222 0.156
63.3525 0.156
63.3827 0.260
63.4130 0.208
63.4433 0.260
63.4736 0.260
63.5039 0.260
63.5341 0.260
63.5644 0.260
63.5947 0.260
63.6250 0.260
63.6552 0.104
63.6855 0.260
63.7158 0.260
63.7461 0.417
63.7764 0.312
63.8066 0.365
63.8369 0.104
63.8672 0.365
63.8975 0.208
63.9278 0.312
63.9580 0.104
63.9883 0.156
64.0186 0.208
64.0489 0.365
64.0791 0.104
64.1094 0.156
64.1397 0.052
64.1700 0.260
64.2003 0.417
64.2305 0.312
64.2608 0.260
64.2911 0.260
64.3214 0.052
64.3517 0.104
64.3819 0.260
64.4122 0.312
64.4425 0.260
64.4728 0.312
64.5031 0.208
64.5333 0.365
64.5636 0.260
64.5939 0.312
64.6242 0.260
64.6544 0.260
64.6847 0.156
64.7150 0.312
64.7453 0.208
64.7756 0.260
64.8058 0.365
64.8361 0.312
64.8664 0.312
64.8967 0.312
64.9270 0.260
64.9572 0.156
64.9875 0.521
65.0178 0.208
65.0481 0.260
65.0783 0.260
65.1086 0.365
65.1389 0.312
65.1692 0.052
65.1995 0.260
65.2297 0.260
65.2600 0.417
65.2903 0.729
65.3206 0.260
65.3509 0.260
65.3811 0.260
65.4114 0.260
65.4417 0.625
65.4720 0.208
65.5022 0.260
65.5325 0.260
65.5628 0.365
65.5931 0.156
65.6234 0.417
65.6536 0.469
65.6839 0.417
65.7142 0.208
65.7445 0.156
65.7748 0.365
65.8050 0.208
65.8353 0.156
65.8656 0.260
65.8959 0.208
65.9261 0.208
65.9564 0.260
65.9867 0.312
66.0170 0.365
66.0473 0.365
66.0775 0.208
66.1078 0.260
66.1381 0.469
66.1684 0.312
66.1987 0.208
66.2289 0.469
66.2592 0.260
66.2895 0.208
66.3198 0.260
66.3500 0.365
66.3803 0.312
66.4106 0.260
66.4409 0.312
66.4712 0.521
66.5014 0.260
66.5317 0.208
66.5620 0.156
66.5923 0.417
66.6226 0.260
66.6528 0.260
66.6831 0.365
66.7134 0.417
66.7437 0.312
66.7739 0.625
66.8042 0.260
66.8345 0.312
66.8648 0.312
66.8951 0.417
66.9253 0.312
66.9556 0.312
66.9859 0.104
67.0162 0.208
67.0465 0.365
67.0767 0.365
67.1070 0.104
67.1373 0.156
67.1676 0.312
67.1978 0.208
67.2281 0.104
67.2584 0.208
67.2887 0.260
67.3190 0.052
67.3492 0.260
67.3795 0.156
67.4098 0.365
67.4401 0.208
67.4704 0.052
67.5006 0.469
67.5309 0.260
67.5612 0.260
67.5915 0.208
67.6218 0.104
67.6520 0.104
67.6823 0.208
67.7126 0.208
67.7429 0.208
67.7731 0.260
67.8034 0.208
67.8337 0.260
67.8640 0.365
67.8943 0.312
67.9245 0.312
67.9548 0.260
67.9851 0.260
68.0154 0.156
68.0457 0.365
68.0759 0.208
68.1062 0.208
68.1365 0.417
68.1668 0.260
68.1970 0.312
68.2273 0.260
68.2576 0.208
68.2879 0.260
68.3182 0.260
68.3484 0.156
68.3787 0.156
68.4090 0.260
68.4393 0.156
68.4696 0.260
68.4998 0.208
68.5301 0.156
68.5604 0.260
68.5907 0.469
68.6209 0.312
68.6512 0.208
68.6815 0.260
68.7118 0.417
68.7421 0.156
68.7723 0.156
68.8026 0.260
68.8329 0.260
68.8632 0.260
68.8935 0.208
68.9237 0.104
68.9540 0.312
68.9843 0.104
69.0146 0.260
69.0448 0.208
69.0751 0.260
69.1054 0.521
69.1357 0.365
69.1660 0.156
69.1962 0.312
69.2265 0.208
69.2568 0.260
69.2871 0.312
69.3174 0.365
69.3476 0.521
69.3779 0.104
69.4082 0.156
69.4385 0.260
69.4687 0.208
69.4990 0.156
69.5293 0.469
69.5596 0.365
69.5899 0.104
69.6201 0.156
69.6504 0.104
69.6807 0.104
69.7110 0.208
69.7413 0.104
69.7715 0.312
69.8018 0.104
69.8321 0.312
69.8624 0.208
69.8926 0.260
69.9229 0.208
69.9532 0.521
69.9835 0.208
70.0138 0.677
70.0440 0.260
70.0743 0.260
70.1046 0.208
70.1349 0.417
70.1652 0.052
70.1954 0.312
70.2257 0.208
70.2560 0.260
70.2863 0.208
70.3166 0.156
70.3468 0.208
70.3771 0.156
70.4074 0.156
70.4377 0.156
70.4679 0.208
70.4982 0.156
70.5285 0.260
70.5588 0.260
70.5891 0.156
70.6193 0.208
70.6496 0.052
70.6799 0.469
70.7102 0.156
70.7405 0.521
70.7707 0.260
70.8010 0.312
70.8313 0.156
70.8616 0.365
70.8918 0.104
70.9221 0.104
70.9524 0.260
70.9827 0.260
71.0130 0.156
71.0432 0.208
71.0735 0.365
71.1038 0.365
71.1341 0.260
71.1644 0.208
71.1946 0.365
71.2249 0.365
71.2552 0.260
71.2855 0.417
71.3157 0.260
71.3460 0.208
71.3763 0.312
71.4066 0.260
71.4369 0.260
71.4671 0.104
71.4974 0.208
71.5277 0.156
71.5580 0.208
71.5883 0.156
71.6185 0.208
71.6488 0.208
71.6791 0.260
71.7094 0.260
71.7396 0.208
71.7699 0.312
71.8002 0.208
71.8305 0.208
71.8608 0.208
71.8910 0.260
71.9213 0.156
71.9516 0.052
71.9819 0.312
72.0122 0.260
72.0424 0.365
72.0727 0.260
72.1030 0.260
72.1333 0.208
72.1635 0.260
72.1938 0.260
72.2241 0.312
72.2544 0.156
72.2847 0.156
72.3149 0.365
72.3452 0.365
72.3755 0.260
72.4058 0.260
72.4361 0.260
72.4663 0.312
72.4966 0.156
72.5269 0.312
72.5572 0.260
72.5874 0.312
72.6177 0.104
72.6480 0.312
72.6783 0.417
72.7086 0.417
72.7388 0.260
72.7691 0.260
72.7994 0.208
72.8297 0.208
72.8600 0.208
72.8902 0.208
72.9205 0.417
72.9508 0.208
72.9811 0.312
73.0113 0.208
73.0416 0.260
73.0719 0.312
73.1022 0.365
73.1325 0.260
73.1627 0.104
73.1930 0.365
73.2233 0.260
73.2536 0.208
73.2839 0.156
73.3141 0.260
73.3444 0.365
73.3747 0.417
73.4050 0.365
73.4353 0.104
73.4655 0.156
73.4958 0.104
73.5261 0.104
73.5564 0.260
73.5866 0.260
73.6169 0.365
73.6472 0.260
73.6775 0.104
73.7078 0.260
73.7380 0.208
73.7683 0.052
73.7986 0.208
73.8289 0.260
73.8592 0.260
73.8894 0.208
73.9197 0.156
73.9500 0.208
73.9803 0.312
74.0105 0.156
74.0408 0.208
74.0711 0.312
74.1014 0.156
74.1317 0.156
74.1619 0.312
74.1922 0.365
74.2225 0.260
74.2528 0.260
74.2831 0.260
74.3133 0.260
74.3436 0.365
74.3739 0.156
74.4042 0.365
74.4344 0.469
74.4647 0.208
74.4950 0.052
74.5253 0.156
74.5556 0.208
74.5858 0.208
74.6161 0.208
74.6464 0.104
74.6767 0.052
74.7070 0.312
74.7372 0.260
74.7675 0.260
74.7978 0.156
74.8281 0.365
74.8583 0.156
74.8886 0.260
74.9189 0.156
74.9492 0.365
74.9795 0.260
75.0097 0.521
75.0400 0.312
75.0703 0.208
75.1006 0.208
75.1309 0.104
75.1611 0.365
75.1914 0.260
75.2217 0.365
75.2520 0.365
75.2822 0.417
75.3125 0.260
75.3428 0.312
75.3731 0.156
75.4034 0.260
75.4336 0.260
75.4639 0.208
75.4942 0.208
75.5245 0.260
75.5548 0.260
75.5850 0.312
75.6153 0.260
75.6456 0.156
75.6759 0.312
75.7061 0.156
75.7364 0.365
75.7667 0.365
75.7970 0.312
75.8273 0.469
75.8575 0.365
75.8878 0.156
75.9181 0.260
75.9484 0.312
75.9787 0.156
76.0089 0.208
76.0392 0.208
76.0695 0.260
76.0998 0.365
76.1301 0.104
76.1603 0.365
76.1906 0.156
76.2209 0.208
76.2512 0.260
76.2814 0.365
76.3117 0.052
76.3420 0.312
76.3723 0.469
76.4026 0.312
76.4328 0.208
76.4631 0.365
76.4934 0.104
76.5237 0.208
76.5540 0.208
76.5842 0.312
76.6145 0.260
76.6448 0.208
76.6751 0.469
76.7053 0.260
76.7356 0.312
76.7659 0.365
76.7962 0.208
76.8265 0.417
76.8567 0.365
76.8870 0.260
76.9173 0.417
76.9476 0.312
76.9779 0.156
77.0081 0.156
77.0384 0.052
77.0687 0.521
77.0990 0.469
77.1292 0.260
77.1595 0.260
77.1898 0.260
77.2201 0.208
77.2504 0.104
77.2806 0.260
77.3109 0.312
77.3412 0.260
77.3715 0.365
77.4018 0.208
77.4320 0.260
77.4623 0.104
77.4926 0.417
77.5229 0.312
77.5531 0.104
77.5834 0.260
77.6137 0.156
77.6440 0.208
77.6743 0.312
77.7045 0.260
77.7348 0.365
77.7651 0.260
77.7954 0.365
77.8257 0.260
77.8559 0.208
77.8862 0.365
77.9165 0.260
77.9468 0.365
77.9770 0.104
78.0073 0.417
78.0376 0.260
78.0679 0.365
78.0982 0.208
78.1284 0.260
78.1587 0.312
78.1890 0.156
78.2193 0.365
78.2496 0.260
78.2798 0.156
78.3101 0.156
78.3404 0.208
78.3707 0.312
78.4009 0.469
78.4312 0.417
78.4615 0.260
78.4918 0.260
78.5221 0.156
78.5523 0.365
78.5826 0.260
78.6129 0.365
78.6432 0.417
78.6735 0.365
78.7037 0.365
78.7340 0.208
78.7643 0.208
78.7946 0.417
78.8248 0.104
78.8551 0.312
78.8854 0.417
78.9157 0.573
78.9460 0.260
78.9762 0.312
79.0065 0.260
79.0368 0.208
79.0671 0.312
79.0974 0.104
79.1276 0.417
79.1579 0.208
79.1882 0.312
79.2185 0.417
79.2488 0.156
79.2790 0.260
79.3093 0.417
79.3396 0.156
79.3699 0.521
79.4001 0.365
79.4304 0.417
79.4607 0.312
79.4910 0.260
79.5213 0.312
79.5515 0.156
79.5818 0.312
79.6121 0.573
79.6424 0.469
79.6727 0.260
79.7029 0.208
79.7332 0.469
79.7635 0.312
79.7938 0.260
79.8240 0.208
79.8543 0.417
79.8846 0.521
79.9149 0.260
79.9452 0.521
79.9754 0.208
80.0057 0.417
80.0360 0.417
80.0663 0.156
80.0966 0.260
80.1268 0.365
80.1571 0.052
80.1874 0.260
80.2177 0.312
80.2479 0.260
80.2782 0.312
80.3085 0.260
80.3388 0.000
80.3691 0.260
80.3993 0.260
80.4296 0.469
80.4599 0.260
80.4902 0.260
80.5205 0.208
80.5507 0.312
80.5810 0.208
80.6113 0.208
80.6416 0.469
80.6718 0.312
80.7021 0.365
80.7324 0.417
80.7627 0.104
80.7930 0.260
80.8232 0.312
80.8535 0.417
80.8838 0.677
80.9141 0.365
80.9444 0.312
80.9746 0.208
81.0049 0.521
81.0352 0.208
81.0655 0.312
81.0957 0.208
81.1260 0.208
81.1563 0.365
81.1866 0.312
81.2169 0.260
81.2471 0.312
81.2774 0.365
81.3077 0.260
81.3380 0.208
81.3683 0.312
81.3985 0.156
81.4288 0.208
81.4591 0.260
81.4894 0.312
81.5196 0.260
81.5499 0.312
81.5802 0.260
81.6105 0.104
81.6408 0.365
81.6710 0.208
81.7013 0.260
81.7316 0.312
81.7619 0.365
81.7922 0.260
81.8224 0.417
81.8527 0.521
81.8830 0.260
81.9133 0.260
81.9436 0.208
81.9738 0.260
82.0041 0.365
82.0344 0.417
82.0647 0.260
82.0949 0.104
82.1252 0.260
82.1555 0.260
82.1858 0.260
82.2161 0.260
82.2463 0.208
82.2766 0.260
82.3069 0.260
82.3372 0.260
82.3675 0.156
82.3977 0.208
82.4280 0.208
82.4583 0.469
82.4886 0.469
82.5188 0.365
82.5491 0.156
82.5794 0.312
82.6097 0.260
82.6400 0.417
82.6702 0.260
82.7005 0.156
82.7308 0.260
82.7611 0.208
82.7914 0.417
82.8216 0.260
82.8519 0.156
82.8822 0.312
82.9125 0.260
82.9427 0.312
82.9730 0.104
83.0033 0.417
83.0336 0.156
83.0639 0.469
83.0941 0.417
83.1244 0.417
83.1547 0.469
83.1850 0.260
83.2153 0.156
83.2455 0.156
83.2758 0.260
83.3061 0.312
83.3364 0.417
83.3666 0.312
83.3969 0.312
83.4272 0.208
83.4575 0.260
83.4878 0.156
83.5180 0.521
83.5483 0.260
83.5786 0.156
83.6089 0.260
83.6392 0.260
83.6694 0.260
83.6997 0.312
83.7300 0.260
83.7603 0.260
83.7905 0.260
83.8208 0.260
83.8511 0.312
83.8814 0.260
83.9117 0.417
83.9419 0.521
83.9722 0.365
84.0025 0.156
84.0328 0.156
84.0631 0.208
84.0933 0.521
84.1236 0.208
84.1539 0.312
84.1842 0.260
84.2144 0.312
84.2447 0.417
84.2750 0.260
84.3053 0.365
84.3356 0.365
84.3658 0.156
84.3961 0.208
84.4264 0.156
84.4567 0.260
84.4870 0.312
84.5172 0.260
84.5475 0.312
84.5778 0.365
84.6081 0.260
84.6383 0.469
84.6686 0.260
84.6989 0.260
84.7292 0.365
84.7595 0.208
84.7897 0.260
84.8200 0.156
84.8503 0.156
84.8806 0.260
84.9109 0.208
84.9411 0.469
84.9714 0.365
85.0017 0.521
85.0320 0.625
85.0623 0.260
85.0925 0.312
85.1228 0.260
85.1531 0.521
85.1834 0.208
85.2136 0.208
85.2439 0.208
85.2742 0.312
85.3045 0.469
85.3348 0.156
85.3650 0.312
85.3953 0.260
85.4256 0.208
85.4559 0.417
85.4862 0.104
85.5164 0.365
85.5467 0.260
85.5770 0.208
85.6073 0.260
85.6375 0.365
85.6678 0.052
85.6981 0.208
85.7284 0.260
85.7587 0.208
85.7889 0.208
85.8192 0.104
85.8495 0.208
85.8798 0.417
85.9101 0.260
85.9403 0.417
85.9706 0.417
86.0009 0.156
86.0312 0.312
86.0614 0.312
86.0917 0.156
86.1220 0.156
86.1523 0.260
86.1826 0.365
86.2128 0.260
86.2431 0.625
86.2734 0.417
86.3037 0.260
86.3340 0.260
86.3642 0.312
86.3945 0.417
86.4248 0.208
86.4551 0.365
86.4853 0.208
86.5156 0.417
86.5459 0.365
86.5762 0.208
86.6065 0.312
86.6367 0.521
86.6670 0.208
86.6973 0.312
86.7276 0.208
86.7579 0.260
86.7881 0.052
86.8184 0.104
86.8487 0.312
86.8790 0.260
86.9092 0.312
86.9395 0.417
86.9698 0.521
87.0001 0.312
87.0304 0.156
87.0606 0.208
87.0909 0.417
87.1212 0.156
87.1515 0.260
87.1818 0.469
87.2120 0.521
87.2423 0.260
87.2726 0.469
87.3029 0.260
87.3331 0.208
87.3634 0.104
87.3937 0.260
87.4240 0.417
87.4543 0.469
87.4845 0.365
87.5148 0.208
87.5451 0.260
87.5754 0.156
87.6057 0.469
87.6359 0.208
87.6662 0.365
87.6965 0.365
87.7268 0.312
87.7571 0.260
87.7873 0.260
87.8176 0.521
87.8479 0.104
87.8782 0.156
87.9084 0.208
87.9387 0.260
87.9690 0.156
87.9993 0.156
88.0296 0.312
88.0598 0.312
88.0901 0.260
88.1204 0.208
88.1507 0.208
88.1810 0.365
88.2112 0.312
88.2415 0.208
88.2718 0.365
88.3021 0.312
88.3323 0.260
88.3626 0.417
88.3929 0.365
88.4232 0.260
88.4535 0.260
88.4837 0.208
88.5140 0.365
88.5443 0.417
88.5746 0.156
88.6049 0.208
88.6351 0.104
88.6654 0.208
88.6957 0.260
88.7260 0.312
88.7562 0.260
88.7865 0.260
88.8168 0.260
88.8471 0.156
88.8774 0.156
88.9076 0.260
88.9379 0.260
88.9682 0.469
88.9985 0.260
89.0288 0.260
89.0590 0.260
89.0893 0.312
89.1196 0.260
89.1499 0.208
89.1801 0.417
89.2104 0.208
89.2407 0.260
89.2710 0.260
89.3013 0.260
89.3315 0.417
89.3618 0.260
89.3921 0.365
89.4224 0.260
89.4527 0.260
89.4829 0.521
89.5132 0.417
89.5435 0.260
89.5738 0.417
89.6040 0.260
89.6343 0.312
89.6646 0.156
89.6949 0.104
89.7252 0.260
89.7554 0.312
89.7857 0.260
89.8160 0.260
89.8463 0.208
89.8766 0.156
89.9068 0.260
89.9371 0.208
89.9674 0.156
89.9977 0.208
90.0279 0.260
90.0582 0.052
90.0885 0.312
90.1188 0.260
90.1491 0.156
90.1793 0.469
90.2096 0.104
90.2399 0.104
90.2702 0.365
90.3005 0.208
90.3307 0.260
90.3610 0.104
90.3913 0.417
90.4216 0.312
90.4518 0.260
90.4821 0.260
90.5124 0.365
90.5427 0.260
90.5730 0.156
90.6032 0.365
90.6335 0.417
90.6638 0.260
90.6941 0.260
90.7244 0.365
90.7546 0.104
90.7849 0.208
90.8152 0.208
90.8455 0.208
90.8758 0.469
90.9060 0.260
90.9363 0.312
90.9666 0.312
90.9969 0.417
91.0271 0.260
91.0574 0.208
91.0877 0.260
91.1180 0.521
91.1483 0.469
91.1785 0.208
91.2088 0.260
91.2391 0.312
91.2694 0.677
91.2997 0.417
91.3299 0.208
91.3602 0.260
91.3905 0.312
91.4208 0.208
91.4510 0.260
91.4813 0.104
91.5116 0.260
91.5419 0.417
91.5722 0.260
91.6024 0.521
91.6327 0.260
91.6630 0.208
91.6933 0.208
91.7236 0.260
91.7538 0.469
91.7841 0.469
91.8144 0.208
91.8447 0.365
91.8749 0.208
91.9052 0.260
91.9355 0.260
91.9658 0.260
91.9961 0.312
92.0263 0.208
92.0566 0.260
92.0869 0.365
92.1172 0.365
92.1475 0.260
92.1777 0.052
92.2080 0.156
92.2383 0.052
92.2686 0.208
92.2988 0.469
92.3291 0.312
92.3594 0.260
92.3897 0.417
92.4200 0.521
92.4502 0.729
92.4805 0.312
92.5108 0.156
92.5411 0.156
92.5714 0.260
92.6016 0.260
92.6319 0.156
92.6622 0.260
92.6925 0.260
92.7227 0.260
92.7530 0.208
92.7833 0.260
92.8136 0.260
92.8439 0.260
92.8741 0.260
92.9044 0.260
92.9347 0.208
92.9650 0.260
92.9953 0.208
93.0255 0.260
93.0558 0.208
93.0861 0.365
93.1164 0.365
93.1466 0.469
93.1769 0.365
93.2072 0.260
93.2375 0.260
93.2678 0.260
93.2980 0.208
93.3283 0.104
93.3586 0.260
93.3889 0.104
93.4192 0.260
93.4494 0.208
93.4797 0.365
93.5100 0.260
93.5403 0.104
93.5706 0.417
93.6008 0.260
93.6311 0.208
93.6614 0.260
93.6917 0.260
93.7219 0.521
93.7522 0.260
93.7825 0.260
93.8128 0.417
93.8431 0.312
93.8733 0.260
93.9036 0.417
93.9339 0.365
93.9642 0.365
93.9945 0.260
94.0247 0.260
94.0550 0.260
94.0853 0.260
94.1156 0.521
94.1458 0.312
94.1761 0.625
94.2064 0.260
94.2367 0.417
94.2670 0.156
94.2972 0.104
94.3275 0.677
94.3578 0.104
94.3881 0.156
94.4184 0.469
94.4486 0.260
94.4789 0.208
94.5092 0.208
94.5395 0.052
94.5697 0.312
94.6000 0.260
94.6303 0.312
94.6606 0.312
94.6909 0.260
94.7211 0.260
94.7514 0.260
94.7817 0.469
94.8120 0.260
94.8423 0.417
94.8725 0.260
94.9028 0.260
94.9331 0.208
94.9634 0.260
94.9936 0.417
95.0239 0.156
95.0542 0.260
95.0845 0.260
95.1148 0.260
95.1450 0.156
95.1753 0.260
95.2056 0.417
95.2359 0.260
95.2662 0.365
95.2964 0.260
95.3267 0.260
95.3570 0.260
95.3873 0.417
95.4175 0.417
95.4478 0.521
95.4781 0.052
95.5084 0.312
95.5387 0.260
95.5689 0.260
95.5992 0.104
95.6295 0.208
95.6598 0.260
95.6901 0.260
95.7203 0.260
95.7506 0.156
95.7809 0.208
95.8112 0.104
95.8414 0.260
95.8717 0.469
95.9020 0.260
95.9323 0.260
95.9626 0.260
95.9928 0.312
96.0231 0.208
96.0534 0.365
96.0837 0.573
96.1140 0.208
96.1442 0.469
96.1745 0.156
96.2048 0.260
96.2351 0.469
96.2653 0.208
96.2956 0.312
96.3259 0.312
96.3562 0.260
96.3865 0.417
96.4167 0.365
96.4470 0.260
96.4773 0.260
96.5076 0.312
96.5379 0.052
96.5681 0.156
96.5984 0.208
96.6287 0.260
96.6590 0.260
96.6893 0.260
96.7195 0.469
96.7498 0.260
96.7801 0.312
96.8104 0.312
96.8406 0.312
96.8709 0.625
96.9012 0.260
96.9315 0.365
96.9618 0.260
96.9920 0.260
97.0223 0.208
97.0526 0.260
97.0829 0.260
97.1132 0.208
97.1434 0.208
97.1737 0.208
97.2040 0.260
97.2343 0.260
97.2645 0.729
97.2948 0.417
97.3251 0.104
97.3554 0.365
97.3857 0.312
97.4159 0.312
97.4462 0.521
97.4765 0.469
97.5068 0.260
97.5371 0.312
97.5673 0.365
97.5976 0.417
97.6279 0.260
97.6582 0.260
97.6884 0.260
97.7187 0.156
97.7490 0.312
97.7793 0.208
97.8096 0.156
97.8398 0.260
97.8701 0.365
97.9004 0.208
97.9307 0.260
97.9610 0.625
97.9912 0.208
98.0215 0.260
98.0518 0.417
98.0821 0.365
98.1123 0.625
98.1426 0.260
98.1729 0.312
98.2032 0.417
98.2335 0.208
98.2637 0.260
98.2940 0.521
98.3243 0.260
98.3546 0.365
98.3849 0.208
98.4151 0.208
98.4454 0.417
98.4757 0.312
98.5060 0.260
98.5362 0.365
98.5665 0.312
98.5968 0.260
98.6271 0.417
98.6574 0.417
98.6876 0.365
98.7179 0.573
98.7482 0.208
98.7785 0.521
98.8088 0.260
98.8390 0.521
98.8693 0.260
98.8996 0.156
98.9299 0.417
98.9601 0.469
98.9904 0.208
99.0207 0.469
99.0510 0.260
99.0813 0.573
99.1115 0.312
99.1418 0.677
99.1721 0.260
99.2024 0.260
99.2327 0.677
99.2629 0.260
99.2932 0.208
99.3235 0.365
99.3538 0.260
99.3841 0.365
99.4143 0.417
99.4446 0.260
99.4749 0.365
99.5052 0.365
99.5354 0.312
99.5657 0.469
99.5960 0.417
99.6263 0.417
99.6566 0.417
99.6868 0.469
99.7171 0.312
99.7474 0.781
99.7777 0.260
99.8080 0.521
99.8382 0.260
99.8685 0.365
99.8988 0.417
99.9291 0.312
99.9593 0.521
99.9896 0.312
100.0199 0.208
100.0502 0.365
100.0805 0.625
100.1107 0.625
100.1410 0.417
100.1713 0.417
100.2016 0.365
100.2319 0.417
100.2621 0.260
100.2924 0.365
100.3227 0.469
100.3530 0.260
100.3832 0.260
100.4135 0.521
100.4438 0.417
100.4741 0.312
100.5044 0.312
100.5346 0.417
100.5649 0.208
100.5952 0.208
100.6255 0.260
100.6558 0.260
100.6860 0.469
100.7163 0.417
100.7466 0.260
100.7769 0.365
100.8071 0.365
100.8374 0.260
100.8677 0.260
100.8980 0.260
100.9283 0.260
100.9585 0.208
100.9888 0.417
101.0191 0.312
101.0494 0.260
101.0797 0.156
101.1099 0.469
101.1402 0.625
101.1705 0.469
101.2008 0.365
101.2310 0.312
101.2613 0.260
101.2916 0.365
101.3219 0.469
101.3522 0.365
101.3824 0.260
101.4127 0.208
101.4430 0.625
101.4733 0.365
101.5036 0.260
101.5338 0.312
101.5641 0.417
101.5944 0.104
101.6247 0.521
101.6549 0.260
101.6852 0.156
101.7155 0.417
101.7458 0.469
101.7761 0.365
101.8063 0.312
101.8366 0.365
101.8669 0.312
101.8972 0.417
101.9275 0.625
101.9577 0.417
101.9880 0.781
102.0183 0.365
102.0486 0.260
102.0788 0.365
102.1091 0.365
102.1394 0.312
102.1697 0.573
102.2000 0.365
102.2302 0.260
102.2605 0.260
102.2908 0.573
102.3211 0.365
102.3514 0.260
102.3816 0.521
102.4119 0.365
102.4422 0.312
102.4725 0.365
102.5028 0.260
102.5330 0.104
102.5633 0.260
102.5936 0.208
102.6239 0.573
102.6541 0.260
102.6844 0.417
102.7147 0.417
102.7450 0.729
102.7753 0.260
102.8055 0.312
102.8358 0.469
102.8661 0.312
102.8964 0.625
102.9267 0.365
102.9569 0.677
102.9872 0.260
103.0175 0.260
103.0478 0.260
103.0780 0.573
103.1083 0.417
103.1386 0.521
103.1689 0.521
103.1992 0.260
103.2294 0.365
103.2597 0.677
103.2900 0.521
103.3203 0.260
103.3506 0.417
103.3808 0.677
103.4111 0.469
103.4414 0.312
103.4717 0.260
103.5019 0.365
103.5322 0.469
103.5625 0.260
103.5928 0.260
103.6231 0.365
103.6533 0.312
103.6836 0.365
103.7139 0.260
103.7442 0.312
103.7745 0.573
103.8047 0.260
103.8350 0.260
103.8653 0.521
103.8956 0.260
103.9258 0.260
103.9561 0.312
103.9864 0.365
104.0167 0.417
104.0470 0.573
104.0772 0.469
104.1075 0.365
104.1378 0.260
104.1681 0.677
104.1984 0.260
104.2286 0.469
104.2589 0.521
104.2892 0.677
104.3195 0.365
104.3497 0.312
104.3800 0.260
104.4103 0.365
104.4406 0.417
104.4709 0.521
104.5011 0.312
104.5314 0.260
104.5617 0.521
104.5920 0.833
104.6223 0.365
104.6525 0.469
104.6828 0.365
104.7131 0.260
104.7434 0.677
104.7736 0.208
104.8039 0.469
104.8342 0.417
104.8645 0.417
104.8948 0.312
104.9250 0.156
104.9553 0.260
104.9856 0.469
105.0159 0.052
105.0462 0.469
105.0764 0.260
105.1067 0.625
105.1370 0.417
105.1673 0.312
105.1975 0.260
105.2278 0.260
105.2581 0.365
105.2884 0.260
105.3187 0.417
105.3489 0.625
105.3792 0.260
105.4095 0.260
105.4398 0.469
105.4701 0.521
105.5003 0.417
105.5306 0.573
105.5609 0.365
105.5912 0.260
105.6215 0.208
105.6517 0.365
105.6820 0.469
105.7123 0.365
105.7426 0.469
105.7728 0.521
105.8031 0.417
105.8334 0.417
105.8637 0.625
105.8940 0.312
105.9242 0.312
105.9545 0.260
105.9848 0.573
106.0151 0.625
106.0454 0.260
106.0756 0.417
106.1059 0.260
106.1362 0.469
106.1665 0.469
106.1967 0.312
106.2270 0.469
106.2573 0.573
106.2876 0.312
106.3179 0.312
106.3481 0.312
106.3784 0.365
106.4087 0.208
106.4390 0.625
106.4693 0.365
106.4995 0.260
106.5298 0.312
106.5601 0.312
106.5904 0.469
106.6206 0.469
106.6509 0.312
106.6812 0.312
106.7115 0.208
106.7418 0.260
106.7720 0.312
106.8023 0.417
106.8326 0.573
106.8629 0.417
106.8932 0.469
106.9234 0.365
106.9537 0.469
106.9840 0.312
107.0143 0.312
107.0445 0.104
107.0748 0.312
107.1051 0.312
107.1354 0.469
107.1657 0.469
107.1959 0.469
107.2262 0.365
107.2565 0.469
107.2868 0.365
107.3171 0.417
107.3473 0.312
107.3776 0.208
107.4079 0.312
107.4382 0.312
107.4684 0.417
107.4987 0.573
107.5290 0.521
107.5593 0.365
107.5896 0.521
107.6198 0.885
107.6501 0.365
107.6804 0.417
107.7107 0.312
107.7410 0.677
107.7712 0.312
107.8015 0.365
107.8318 0.365
107.8621 0.521
107.8923 0.365
107.9226 0.521
107.9529 0.208
107.9832 0.469
108.0135 0.312
108.0437 0.469
108.0740 0.521
108.1043 0.156
108.1346 0.469
108.1649 0.417
108.1951 0.469
108.2254 0.365
108.2557 0.521
108.2860 0.625
108.3163 0.312
108.3465 0.469
108.3768 0.729
108.4071 0.573
108.4374 0.469
108.4676 0.312
108.4979 0.365
108.5282 0.312
108.5585 0.312
108.5888 0.417
108.6190 0.469
108.6493 0.417
108.6796 0.312
108.7099 0.365
108.7402 0.573
108.7704 0.312
108.8007 0.417
108.8310 0.365
108.8613 0.312
108.8915 0.469
108.9218 0.573
108.9521 0.312
108.9824 0.208
109.0127 0.625
109.0429 0.417
109.0732 0.312
109.1035 0.365
109.1338 0.521
109.1641 0.312
109.1943 0.469
109.2246 0.312
109.2549 0.573
109.2852 0.521
109.3154 0.417
109.3457 0.312
109.3760 0.365
109.4063 0.312
109.4366 0.312
109.4668 0.365
109.4971 0.573
109.5274 0.625
109.5577 0.156
109.5880 0.521
109.6182 0.417
109.6485 0.469
109.6788 0.573
109.7091 0.208
109.7393 0.312
109.7696 0.521
109.7999 0.417
109.8302 0.312
109.8605 0.208
109.8907 0.417
109.9210 0.573
109.9513 0.312
109.9816 0.312
110.0119 0.521
110.0421 0.260
110.0724 0.417
110.1027 0.417
110.1330 0.417
110.1632 0.312
110.1935 0.312
110.2238 0.260
110.2541 0.417
110.2844 0.312
110.3146 0.469
110.3449 0.312
110.3752 0.260
110.4055 0.833
110.4358 0.312
110.4660 0.312
110.4963 0.573
110.5266 0.990
110.5569 0.312
110.5871 0.833
110.6174 0.052
110.6477 0.417
110.6780 0.365
110.7083 0.677
110.7385 0.625
110.7688 0.365
110.7991 0.260
110.8294 0.573
110.8597 0.521
110.8899 0.312
110.9202 0.469
110.9505 0.573
110.9808 0.365
111.0110 0.260
111.0413 0.312
111.0716 0.469
111.1019 0.312
111.1322 0.521
111.1624 0.781
111.1927 0.521
111.2230 0.417
111.2533 0.312
111.2836 0.260
111.3138 0.417
111.3441 0.417
111.3744 0.417
111.4047 0.365
111.4350 0.469
111.4652 0.260
111.4955 0.312
111.5258 0.312
111.5561 0.365
111.5863 0.208
111.6166 0.312
111.6469 0.312
111.6772 0.365
111.7075 0.625
111.7377 0.312
111.7680 0.365
111.7983 0.365
111.8286 0.312
111.8589 0.365
111.8891 0.469
111.9194 0.521
111.9497 0.365
111.9800 0.365
112.0102 0.365
112.0405 0.312
112.0708 0.365
112.1011 0.208
112.1314 0.260
112.1616 0.312
112.1919 0.469
112.2222 0.312
112.2525 0.573
112.2828 0.260
112.3130 0.260
112.3433 0.625
112.3736 0.312
112.4039 0.729
112.4341 0.260
112.4644 0.521
112.4947 0.521
112.5250 0.365
112.5553 0.365
112.5855 0.469
112.6158 0.573
112.6461 0.417
112.6764 0.365
112.7067 0.521
112.7369 0.156
112.7672 0.417
112.7975 0.833
112.8278 0.312
112.8580 0.521
112.8883 0.625
112.9186 0.365
112.9489 0.625
112.9792 0.469
113.0094 0.417
113.0397 0.312
113.0700 0.365
113.1003 0.625
113.1306 0.469
113.1608 0.937
113.1911 0.365
113.2214 0.156
113.2517 0.417
113.2819 0.469
113.3122 0.521
113.3425 0.365
113.3728 0.312
113.4031 0.469
113.4333 0.365
113.4636 0.260
113.4939 0.365
113.5242 0.417
113.5545 0.417
113.5847 0.469
113.6150 0.625
113.6453 0.312
113.6756 0.365
113.7058 0.521
113.7361 0.365
113.7664 0.312
113.7967 0.417
113.8270 0.521
113.8572 0.260
113.8875 0.417
113.9178 0.469
113.9481 0.365
113.9784 0.312
114.0086 0.417
114.0389 0.365
114.0692 0.260
114.0995 0.573
114.1298 0.573
114.1600 0.365
114.1903 0.365
114.2206 0.469
114.2509 0.469
114.2811 0.365
114.3114 0.365
114.3417 0.365
114.3720 0.365
114.4023 0.365
114.4325 0.417
114.4628 0.625
114.4931 0.365
114.5234 0.469
114.5537 0.573
114.5839 0.781
114.6142 0.625
114.6445 0.469
114.6748 0.417
114.7050 0.312
114.7353 0.521
114.7656 0.521
114.7959 0.417
114.8262 0.312
114.8564 0.521
114.8867 0.365
114.9170 0.312
114.9473 0.625
114.9776 0.521
115.0078 0.365
115.0381 0.365
115.0684 0.573
115.0987 0.417
115.1289 0.625
115.1592 0.469
115.1895 0.156
115.2198 0.208
115.2501 0.469
115.2803 0.417
115.3106 0.417
115.3409 0.521
115.3712 0.781
115.4015 0.260
115.4317 0.469
115.4620 0.417
115.4923 0.417
115.5226 0.365
115.5528 0.312
115.5831 0.521
115.6134 0.365
115.6437 0.573
115.6740 0.417
115.7042 0.417
115.7345 0.573
115.7648 0.365
115.7951 0.469
115.8254 0.260
115.8556 0.625
115.8859 0.365
115.9162 0.365
115.9465 0.677
115.9767 0.521
116.0070 0.885
116.0373 0.469
116.0676 0.365
116.0979 0.312
116.1281 0.521
116.1584 0.469
116.1887 0.417
116.2190 0.573
116.2493 0.312
116.2795 0.729
116.3098 0.365
116.3401 0.729
116.3704 0.833
116.4006 0.573
116.4309 0.365
116.4612 0.365
116.4915 0.469
116.5218 0.365
116.5520 0.521
116.5823 0.260
116.6126 0.365
116.6429 0.208
116.6732 0.417
116.7034 0.417
116.7337 0.521
116.7640 0.312
116.7943 0.260
116.8245 0.312
116.8548 0.052
116.8851 0.417
116.9154 0.208
116.9457 0.417
116.9759 0.365
117.0062 0.521
117.0365 0.156
117.0668 0.469
117.0971 0.469
117.1273 0.469
117.1576 0.625
117.1879 0.781
117.2182 0.208
117.2485 0.417
117.2787 0.469
117.3090 0.729
117.3393 0.417
117.3696 0.469
117.3998 0.365
117.4301 0.469
117.4604 0.573
117.4907 0.417
117.5210 0.208
117.5512 0.469
117.5815 0.417
117.6118 0.365
117.6421 0.469
117.6724 0.729
117.7026 0.417
117.7329 0.573
117.7632 0.365
117.7935 0.781
117.8237 0.312
117.8540 0.469
117.8843 0.469
117.9146 0.573
117.9449 0.208
117.9751 0.365
118.0054 0.677
118.0357 0.208
118.0660 0.365
118.0963 0.677
118.1265 0.469
118.1568 0.521
118.1871 0.312
118.2174 0.573
118.2476 0.417
118.2779 0.417
118.3082 0.469
118.3385 0.625
118.3688 0.365
118.3990 0.417
118.4293 0.417
118.4596 0.260
118.4899 0.312
118.5202 0.573
118.5504 0.521
118.5807 0.469
118.6110 0.573
118.6413 0.469
118.6715 0.417
118.7018 0.521
118.7321 0.417
118.7624 0.573
118.7927 0.573
118.8229 0.469
118.8532 0.260
118.8835 0.781
118.9138 0.365
118.9441 0.521
118.9743 0.521
119.0046 0.521
119.0349 0.260
119.0652 0.417
119.0954 0.365
119.1257 0.469
119.1560 0.312
119.1863 0.469
119.2166 0.469
119.2468 0.312
119.2771 0.677
119.3074 0.417
119.3377 0.365
119.3680 0.833
119.3982 0.417
119.4285 0.312
119.4588 0.729
119.4891 0.469
119.5193 0.365
119.5496 0.469
119.5799 0.521
119.6102 0.625
119.6405 0.417
119.6707 0.312
119.7010 0.521
119.7313 0.365
119.7616 0.417
119.7919 0.469
119.8221 0.469
119.8524 0.625
119.8827 0.469
119.9130 0.365
119.9433 0.312
119.9735 0.417
120.0038 0.312
