'Id: "" Comment: "" Operator: "Lab Manager" Anode: "Cu" Scantype: "Locked Coupled" TimePerStep: "19.2" X: "9999" Y: "9999" Z: "9999" 
10.0015 4.271
10.0318 4.271
10.0620 3.802
10.0923 4.583
10.1226 5.104
10.1529 4.219
10.1832 4.323
10.2134 5.000
10.2437 4.010
10.2740 5.208
10.3043 4.583
10.3346 4.479
10.3648 4.687
10.3951 4.375
10.4254 4.531
10.4557 4.323
10.4859 5.573
10.5162 4.167
10.5465 5.521
10.5768 4.635
10.6071 5.260
10.6373 4.635
10.6676 4.427
10.6979 4.531
10.7282 4.635
10.7585 4.844
10.7887 4.635
10.8190 5.365
10.8493 5.365
10.8796 4.375
10.9098 5.417
10.9401 4.740
10.9704 6.771
11.0007 6.094
11.0310 4.635
11.0612 4.531
11.0915 6.094
11.1218 5.677
11.1521 5.937
11.1824 6.146
11.2126 5.625
11.2429 5.573
11.2732 5.417
11.3035 6.719
11.3337 6.042
11.3640 5.937
11.3943 7.187
11.4246 6.927
11.4549 6.719
11.4851 6.406
11.5154 6.562
11.5457 7.031
11.5760 6.302
11.6063 7.083
11.6365 6.406
11.6668 7.083
11.6971 7.500
11.7274 6.510
11.7577 7.292
11.7879 5.521
11.8182 5.885
11.8485 6.354
11.8788 5.990
11.9090 6.562
11.9393 5.521
11.9696 5.521
11.9999 5.156
12.0302 5.729
12.0604 4.792
12.0907 5.990
12.1210 5.156
12.1513 4.635
12.1816 4.583
12.2118 5.625
12.2421 5.052
12.2724 5.365
12.3027 4.740
12.3329 4.062
12.3632 4.479
12.3935 5.000
12.4238 4.271
12.4541 4.896
12.4843 4.010
12.5146 3.802
12.5449 3.750
12.5752 4.323
12.6055 3.802
12.6357 4.010
12.6660 4.219
12.6963 3.594
12.7266 3.385
12.7568 4.740
12.7871 4.271
12.8174 3.750
12.8477 2.969
12.8780 4.062
12.9082 3.437
12.9385 3.333
12.9688 4.375
12.9991 3.698
13.0294 4.271
13.0596 3.125
13.0899 4.375
13.1202 3.854
13.1505 3.958
13.1807 3.281
13.2110 3.229
13.2413 4.167
13.2716 3.594
13.3019 3.698
13.3321 4.271
13.3624 4.062
13.3927 3.333
13.4230 4.844
13.4533 3.073
13.4835 3.229
13.5138 2.969
13.5441 4.010
13.5744 3.437
13.6046 3.385
13.6349 3.490
13.6652 3.698
13.6955 4.271
13.7258 3.698
13.7560 3.698
13.7863 3.437
13.8166 2.865
13.8469 3.021
13.8772 3.750
13.9074 3.021
13.9377 3.073
13.9680 4.167
13.9983 3.437
14.0285 3.594
14.0588 3.281
14.0891 3.490
14.1194 2.760
14.1497 3.281
14.1799 2.448
14.2102 3.542
14.2405 3.646
14.2708 2.917
14.3011 2.969
14.3313 3.229
14.3616 3.437
14.3919 3.854
14.4222 2.812
14.4524 3.490
14.4827 2.969
14.5130 2.917
14.5433 3.177
14.5736 4.062
14.6038 2.865
14.6341 2.865
14.6644 4.062
14.6947 3.385
14.7250 3.385
14.7552 3.437
14.7855 3.646
14.8158 3.698
14.8461 3.281
14.8764 3.177
14.9066 3.281
14.9369 3.437
14.9672 3.125
14.9975 2.187
15.0277 3.021
15.0580 2.500
15.0883 3.750
15.1186 3.177
15.1489 2.552
15.1791 2.708
15.2094 2.969
15.2397 3.021
15.2700 2.656
15.3003 3.542
15.3305 3.490
15.3608 3.177
15.3911 2.865
15.4214 3.750
15.4516 3.281
15.4819 2.604
15.5122 3.229
15.5425 2.917
15.5728 2.656
15.6030 3.750
15.6333 2.708
15.6636 2.917
15.6939 3.073
15.7242 2.708
15.7544 2.917
15.7847 3.646
15.8150 3.125
15.8453 3.281
15.8755 3.229
15.9058 3.229
15.9361 3.490
15.9664 3.646
15.9967 2.865
16.0269 2.865
16.0572 3.542
16.0875 2.969
16.1178 3.698
16.1481 2.917
16.1783 3.073
16.2086 3.542
16.2389 2.812
16.2692 3.281
16.2994 3.229
16.3297 3.073
16.3600 2.917
16.3903 3.281
16.4206 2.760
16.4508 2.865
16.4811 3.958
16.5114 3.177
16.5417 2.812
16.5720 2.708
16.6022 2.969
16.6325 2.656
16.6628 2.917
16.6931 2.969
16.7233 2.552
16.7536 3.594
16.7839 3.021
16.8142 2.500
16.8445 2.969
16.8747 2.865
16.9050 2.344
16.9353 4.062
16.9656 3.594
16.9959 3.229
17.0261 3.698
17.0564 3.333
17.0867 2.604
17.1170 2.344
17.1472 3.542
17.1775 3.125
17.2078 3.281
17.2381 3.437
17.2684 3.281
17.2986 3.333
17.3289 3.073
17.3592 3.646
17.3895 3.802
17.4198 2.708
17.4500 2.917
17.4803 3.177
17.5106 3.646
17.5409 3.125
17.5712 2.604
17.6014 3.646
17.6317 3.177
17.6620 2.656
17.6923 3.021
17.7225 2.969
17.7528 2.865
17.7831 3.385
17.8134 2.812
17.8437 3.125
17.8739 3.073
17.9042 3.073
17.9345 3.125
17.9648 3.021
17.9951 2.917
18.0253 3.177
18.0556 3.490
18.0859 2.708
18.1162 2.812
18.1464 2.500
18.1767 2.552
18.2070 2.865
18.2373 3.385
18.2676 3.177
18.2978 2.760
18.3281 2.187
18.3584 2.917
18.3887 3.177
18.4190 3.073
18.4492 2.917
18.4795 3.385
18.5098 3.698
18.5401 3.594
18.5703 2.552
18.6006 3.385
18.6309 3.177
18.6612 2.552
18.6915 3.177
18.7217 3.177
18.7520 3.229
18.7823 3.906
18.8126 2.396
18.8429 2.656
18.8731 3.021
18.9034 2.448
18.9337 3.177
18.9640 2.917
18.9942 3.490
19.0245 3.854
19.0548 2.552
19.0851 3.490
19.1154 3.177
19.1456 2.760
19.1759 3.229
19.2062 3.073
19.2365 3.177
19.2668 2.969
19.2970 2.708
19.3273 2.969
19.3576 2.656
19.3879 3.646
19.4181 2.604
19.4484 3.385
19.4787 2.812
19.5090 3.333
19.5393 2.656
19.5695 3.073
19.5998 3.125
19.6301 2.604
19.6604 2.396
19.6907 3.073
19.7209 2.708
19.7512 3.229
19.7815 3.125
19.8118 2.865
19.8420 2.552
19.8723 3.125
19.9026 2.865
19.9329 2.812
19.9632 2.969
19.9934 2.604
20.0237 2.865
20.0540 2.656
20.0843 2.500
20.1146 3.021
20.1448 3.854
20.1751 3.177
20.2054 3.073
20.2357 2.760
20.2659 3.333
20.2962 3.385
20.3265 2.812
20.3568 2.552
20.3871 2.708
20.4173 2.917
20.4476 3.177
20.4779 3.281
20.5082 3.646
20.5385 3.177
20.5687 2.500
20.5990 3.385
20.6293 2.917
20.6596 2.500
20.6899 2.448
20.7201 2.396
20.7504 2.500
20.7807 3.385
20.8110 2.135
20.8412 3.125
20.8715 3.021
20.9018 3.125
20.9321 3.229
20.9624 2.500
20.9926 2.344
21.0229 2.656
21.0532 2.760
21.0835 2.135
21.1138 3.229
21.1440 2.812
21.1743 3.073
21.2046 3.229
21.2349 2.031
21.2651 2.396
21.2954 2.708
21.3257 2.812
21.3560 3.073
21.3863 3.333
21.4165 3.073
21.4468 3.281
21.4771 2.917
21.5074 3.750
21.5377 2.865
21.5679 3.021
21.5982 3.802
21.6285 3.385
21.6588 3.125
21.6890 1.979
21.7193 1.979
21.7496 3.490
21.7799 3.542
21.8102 1.979
21.8404 2.187
21.8707 2.865
21.9010 2.708
21.9313 3.073
21.9616 3.281
21.9918 2.865
22.0221 3.594
22.0524 1.719
22.0827 3.594
22.1129 2.865
22.1432 2.812
22.1735 3.021
22.2038 2.344
22.2341 2.969
22.2643 2.812
22.2946 1.823
22.3249 3.073
22.3552 2.031
22.3855 3.021
22.4157 3.229
22.4460 2.344
22.4763 2.292
22.5066 2.708
22.5368 2.917
22.5671 2.760
22.5974 3.333
22.6277 2.240
22.6580 2.552
22.6882 3.073
22.7185 4.167
22.7488 3.021
22.7791 2.760
22.8094 3.281
22.8396 2.396
22.8699 2.656
22.9002 2.812
22.9305 2.344
22.9607 3.125
22.9910 3.281
23.0213 2.865
23.0516 2.812
23.0819 2.604
23.1121 2.917
23.1424 3.490
23.1727 2.917
23.2030 2.760
23.2333 2.500
23.2635 2.604
23.2938 2.969
23.3241 2.604
23.3544 2.448
23.3846 3.698
23.4149 2.708
23.4452 2.500
23.4755 2.760
23.5058 2.240
23.5360 2.552
23.5663 2.812
23.5966 2.969
23.6269 2.760
23.6572 2.865
23.6874 2.656
23.7177 2.865
23.7480 2.656
23.7783 2.187
23.8086 3.385
23.8388 2.604
23.8691 2.760
23.8994 3.333
23.9297 3.229
23.9599 2.396
23.9902 3.490
24.0205 2.708
24.0508 3.229
24.0811 3.125
24.1113 2.917
24.1416 2.917
24.1719 2.552
24.2022 2.865
24.2325 2.760
24.2627 2.396
24.2930 2.812
24.3233 2.396
24.3536 2.812
24.3838 3.021
24.4141 2.135
24.4444 2.917
24.4747 3.229
24.5050 3.333
24.5352 2.708
24.5655 2.396
24.5958 1.875
24.6261 3.906
24.6564 2.708
24.6866 3.385
24.7169 3.490
24.7472 3.385
24.7775 2.760
24.8077 2.865
24.8380 2.292
24.8683 3.281
24.8986 2.812
24.9289 3.177
24.9591 3.594
24.9894 3.542
25.0197 3.281
25.0500 2.552
25.0803 2.656
25.1105 3.281
25.1408 2.760
25.1711 2.917
25.2014 3.229
25.2316 3.073
25.2619 2.865
25.2922 3.125
25.3225 2.760
25.3528 2.865
25.3830 2.604
25.4133 2.969
25.4436 3.281
25.4739 2.969
25.5042 3.281
25.5344 2.969
25.5647 2.656
25.5950 2.552
25.6253 2.187
25.6555 2.760
25.6858 3.177
25.7161 2.240
25.7464 2.240
25.7767 3.281
25.8069 2.135
25.8372 2.135
25.8675 1.979
25.8978 3.021
25.9281 2.812
25.9583 2.656
25.9886 2.865
26.0189 2.865
26.0492 2.760
26.0794 2.344
26.1097 2.760
26.1400 3.385
26.1703 2.396
26.2006 2.656
26.2308 2.396
26.2611 2.969
26.2914 3.073
26.3217 2.292
26.3520 2.187
26.3822 2.656
26.4125 2.552
26.4428 3.385
26.4731 2.396
26.5034 2.448
26.5336 3.646
26.5639 2.865
26.5942 2.969
26.6245 3.385
26.6547 2.865
26.6850 3.385
26.7153 3.125
26.7456 3.281
26.7759 2.656
26.8061 2.760
26.8364 2.969
26.8667 2.917
26.8970 3.437
26.9273 2.656
26.9575 2.760
26.9878 3.073
27.0181 3.594
27.0484 3.229
27.0786 3.906
27.1089 3.802
27.1392 2.708
27.1695 4.010
27.1998 3.385
27.2300 2.812
27.2603 3.177
27.2906 3.177
27.3209 2.969
27.3512 2.760
27.3814 3.333
27.4117 3.177
27.4420 4.167
27.4723 3.490
27.5025 3.229
27.5328 4.115
27.5631 3.646
27.5934 2.969
27.6237 2.552
27.6539 3.385
27.6842 3.177
27.7145 2.656
27.7448 3.177
27.7751 2.448
27.8053 3.281
27.8356 3.490
27.8659 4.010
27.8962 3.177
27.9264 4.427
27.9567 3.073
27.9870 3.281
28.0173 4.115
28.0476 4.115
28.0778 3.177
28.1081 2.969
28.1384 2.969
28.1687 3.958
28.1990 3.125
28.2292 3.385
28.2595 3.437
28.2898 4.062
28.3201 4.323
28.3503 3.177
28.3806 3.073
28.4109 4.635
28.4412 3.750
28.4715 4.167
28.5017 3.333
28.5320 4.167
28.5623 3.750
28.5926 3.646
28.6229 4.375
28.6531 3.958
28.6834 3.542
28.7137 3.906
28.7440 3.750
28.7742 4.375
28.8045 3.958
28.8348 3.490
28.8651 3.958
28.8954 3.177
28.9256 3.385
28.9559 4.375
28.9862 3.750
29.0165 4.479
29.0468 3.490
29.0770 3.490
29.1073 3.385
29.1376 3.542
29.1679 4.635
29.1981 4.010
29.2284 4.375
29.2587 4.948
29.2890 3.333
29.3193 3.490
29.3495 4.531
29.3798 3.698
29.4101 4.687
29.4404 4.271
29.4707 4.062
29.5009 4.531
29.5312 4.062
29.5615 4.219
29.5918 4.375
29.6221 3.490
29.6523 4.323
29.6826 4.427
29.7129 4.792
29.7432 3.229
29.7734 4.583
29.8037 4.375
29.8340 4.531
29.8643 4.323
29.8946 4.531
29.9248 4.479
29.9551 5.521
29.9854 5.104
30.0157 5.521
30.0460 5.104
30.0762 5.052
30.1065 5.521
30.1368 4.792
30.1671 5.625
30.1973 5.469
30.2276 5.677
30.2579 6.042
30.2882 5.781
30.3185 6.302
30.3487 5.000
30.3790 5.990
30.4093 5.833
30.4396 5.833
30.4699 5.104
30.5001 6.146
30.5304 6.823
30.5607 6.406
30.5910 5.729
30.6212 6.667
30.6515 6.406
30.6818 6.927
30.7121 7.552
30.7424 7.604
30.7726 7.656
30.8029 7.865
30.8332 7.917
30.8635 8.333
30.8938 8.125
30.9240 9.219
30.9543 9.687
30.9846 9.219
31.0149 11.042
31.0451 11.042
31.0754 12.448
31.1057 14.844
31.1360 13.177
31.1663 16.198
31.1965 18.021
31.2268 19.896
31.2571 18.750
31.2874 21.875
31.3177 22.083
31.3479 26.667
31.3782 27.187
31.4085 31.146
31.4388 32.187
31.4690 38.906
31.4993 42.031
31.5296 47.500
31.5599 49.948
31.5902 52.135
31.6204 56.667
31.6507 58.385
31.6810 56.615
31.7113 53.594
31.7416 48.646
31.7718 47.344
31.8021 46.250
31.8324 39.792
31.8627 33.958
31.8929 30.625
31.9232 29.740
31.9535 25.312
31.9838 22.812
32.0141 21.198
32.0443 19.896
32.0746 15.990
32.1049 17.344
32.1352 14.323
32.1655 14.167
32.1957 12.240
32.2260 11.562
32.2563 11.406
32.2866 9.844
32.3169 10.052
32.3471 9.635
32.3774 9.844
32.4077 8.594
32.4380 9.479
32.4682 8.854
32.4985 6.979
32.5288 8.281
32.5591 6.979
32.5894 6.927
32.6196 7.083
32.6499 7.292
32.6802 7.135
32.7105 7.656
32.7408 7.396
32.7710 7.187
32.8013 6.406
32.8316 6.042
32.8619 7.187
32.8921 6.406
32.9224 6.771
32.9527 7.083
32.9830 6.302
33.0133 5.885
33.0435 7.135
33.0738 7.135
33.1041 5.781
33.1344 6.771
33.1647 7.187
33.1949 7.292
33.2252 5.625
33.2555 7.240
33.2858 5.937
33.3160 6.875
33.3463 6.719
33.3766 6.198
33.4069 7.292
33.4372 6.354
33.4674 7.448
33.4977 6.458
33.5280 7.396
33.5583 6.979
33.5886 6.927
33.6188 7.760
33.6491 7.656
33.6794 7.500
33.7097 7.917
33.7399 9.740
33.7702 8.490
33.8005 8.646
33.8308 10.677
33.8611 11.979
33.8913 11.250
33.9216 14.375
33.9519 14.531
33.9822 14.479
34.0125 15.365
34.0427 19.010
34.0730 20.312
34.1033 24.740
34.1336 27.292
34.1638 33.646
34.1941 40.729
34.2244 46.615
34.2547 60.833
34.2850 69.531
34.3152 74.687
34.3455 68.437
34.3758 64.062
34.4061 53.021
34.4364 43.542
34.4666 37.812
34.4969 30.365
34.5272 24.167
34.5575 23.698
34.5877 19.583
34.6180 17.708
34.6483 15.885
34.6786 16.667
34.7089 12.969
34.7391 11.615
34.7694 12.344
34.7997 12.083
34.8300 11.667
34.8603 11.823
34.8905 12.135
34.9208 10.000
34.9511 10.104
34.9814 11.094
35.0116 8.854
35.0419 9.792
35.0722 11.354
35.1025 10.469
35.1328 11.458
35.1630 11.198
35.1933 10.156
35.2236 11.198
35.2539 11.510
35.2842 11.823
35.3144 11.667
35.3447 12.344
35.3750 11.458
35.4053 13.125
35.4356 13.281
35.4658 14.010
35.4961 15.417
35.5264 18.125
35.5567 15.521
35.5869 17.760
35.6172 19.010
35.6475 20.573
35.6778 23.854
35.7081 25.729
35.7383 27.187
35.7686 29.167
35.7989 32.552
35.8292 35.052
35.8595 37.708
35.8897 43.177
35.9200 49.375
35.9503 54.115
35.9806 61.927
36.0108 61.667
36.0411 74.896
36.0714 79.479
36.1017 82.187
36.1320 82.604
36.1622 83.385
36.1925 83.906
36.2228 80.260
36.2531 76.510
36.2834 69.479
36.3136 62.396
36.3439 55.104
36.3742 48.698
36.4045 42.917
36.4347 40.104
36.4650 35.104
36.4953 31.094
36.5256 31.823
36.5559 22.812
36.5861 23.333
36.6164 21.823
36.6467 20.521
36.6770 18.750
36.7073 17.031
36.7375 15.833
36.7678 14.219
36.7981 13.385
36.8284 12.135
36.8586 11.042
36.8889 11.406
36.9192 9.740
36.9495 10.521
36.9798 10.469
37.0100 9.427
37.0403 7.604
37.0706 8.437
37.1009 7.396
37.1312 7.135
37.1614 7.656
37.1917 7.604
37.2220 6.042
37.2523 6.979
37.2825 7.031
37.3128 6.719
37.3431 6.250
37.3734 7.031
37.4037 6.406
37.4339 5.052
37.4642 5.833
37.4945 5.833
37.5248 5.312
37.5551 6.198
37.5853 5.469
37.6156 4.792
37.6459 5.052
37.6762 4.375
37.7064 5.312
37.7367 5.365
37.7670 4.583
37.7973 4.479
37.8276 5.365
37.8578 4.635
37.8881 5.208
37.9184 4.531
37.9487 4.479
37.9790 4.479
38.0092 5.260
38.0395 3.958
38.0698 4.740
38.1001 4.635
38.1304 3.542
38.1606 3.333
38.1909 2.865
38.2212 3.490
38.2515 4.271
38.2817 3.958
38.3120 3.490
38.3423 2.760
38.3726 3.646
38.4029 3.385
38.4331 3.177
38.4634 4.219
38.4937 4.271
38.5240 3.594
38.5543 3.437
38.5845 3.802
38.6148 2.969
38.6451 4.219
38.6754 2.708
38.7056 3.542
38.7359 3.594
38.7662 2.969
38.7965 3.073
38.8268 3.802
38.8570 3.281
38.8873 3.698
38.9176 2.344
38.9479 3.177
38.9782 3.021
39.0084 3.437
39.0387 2.969
39.0690 2.396
39.0993 2.917
39.1295 3.021
39.1598 3.281
39.1901 3.177
39.2204 3.385
39.2507 2.448
39.2809 2.344
39.3112 3.229
39.3415 2.500
39.3718 2.917
39.4021 3.177
39.4323 2.604
39.4626 3.125
39.4929 2.812
39.5232 3.281
39.5534 2.865
39.5837 3.281
39.6140 2.240
39.6443 2.552
39.6746 3.437
39.7048 3.594
39.7351 2.187
39.7654 2.708
39.7957 2.396
39.8260 2.865
39.8562 3.802
39.8865 3.437
39.9168 3.281
39.9471 2.760
39.9773 2.656
40.0076 2.760
40.0379 2.812
40.0682 2.656
40.0985 2.760
40.1287 2.448
40.1590 2.656
40.1893 2.812
40.2196 3.333
40.2499 2.500
40.2801 2.917
40.3104 2.604
40.3407 2.500
40.3710 3.229
40.4012 3.073
40.4315 3.177
40.4618 2.240
40.4921 2.708
40.5224 2.396
40.5526 2.083
40.5829 2.760
40.6132 2.760
40.6435 3.073
40.6738 2.187
40.7040 2.448
40.7343 2.604
40.7646 2.448
40.7949 2.187
40.8251 2.031
40.8554 2.292
40.8857 2.552
40.9160 2.344
40.9463 1.979
40.9765 2.500
41.0068 2.292
41.0371 2.812
41.0674 2.760
41.0977 2.760
41.1279 2.500
41.1582 2.344
41.1885 2.448
41.2188 2.812
41.2491 2.552
41.2793 2.917
41.3096 2.448
41.3399 2.708
41.3702 2.604
41.4004 2.187
41.4307 2.240
41.4610 2.656
41.4913 2.917
41.5216 2.083
41.5518 2.760
41.5821 2.292
41.6124 2.500
41.6427 2.396
41.6730 2.135
41.7032 2.240
41.7335 2.240
41.7638 2.969
41.7941 2.917
41.8243 3.125
41.8546 2.187
41.8849 1.719
41.9152 1.927
41.9455 2.240
41.9757 1.823
42.0060 2.552
42.0363 2.865
42.0666 1.719
42.0969 2.031
42.1271 3.021
42.1574 2.969
42.1877 1.979
42.2180 2.135
42.2482 2.708
42.2785 2.292
42.3088 2.135
42.3391 2.187
42.3694 2.656
42.3996 2.969
42.4299 3.281
42.4602 2.604
42.4905 2.083
42.5208 2.240
42.5510 2.344
42.5813 2.396
42.6116 2.865
42.6419 2.708
42.6721 2.240
42.7024 2.344
42.7327 2.708
42.7630 2.187
42.7933 2.083
42.8235 2.917
42.8538 1.927
42.8841 2.448
42.9144 2.031
42.9447 2.552
42.9749 2.292
43.0052 2.344
43.0355 1.979
43.0658 2.344
43.0960 2.604
43.1263 2.656
43.1566 1.823
43.1869 1.927
43.2172 1.927
43.2474 2.292
43.2777 1.927
43.3080 2.500
43.3383 2.656
43.3686 2.344
43.3988 2.344
43.4291 2.135
43.4594 2.917
43.4897 2.760
43.5199 2.135
43.5502 2.760
43.5805 1.875
43.6108 2.187
43.6411 2.812
43.6713 3.021
43.7016 2.865
43.7319 2.708
43.7622 2.344
43.7925 2.552
43.8227 2.604
43.8530 2.083
43.8833 2.448
43.9136 2.396
43.9439 2.448
43.9741 2.552
44.0044 3.021
44.0347 2.448
44.0650 3.021
44.0952 2.448
44.1255 2.812
44.1558 3.281
44.1861 2.917
44.2164 2.969
44.2466 1.927
44.2769 2.708
44.3072 2.396
44.3375 3.333
44.3678 3.125
44.3980 1.771
44.4283 2.240
44.4586 2.865
44.4889 3.125
44.5191 2.812
44.5494 1.823
44.5797 2.135
44.6100 2.708
44.6403 2.396
44.6705 2.969
44.7008 2.344
44.7311 2.448
44.7614 3.229
44.7917 2.135
44.8219 2.708
44.8522 2.344
44.8825 2.448
44.9128 2.812
44.9430 3.125
44.9733 3.437
45.0036 2.708
45.0339 2.344
45.0642 2.708
45.0944 2.708
45.1247 2.552
45.1550 2.344
45.1853 2.760
45.2156 3.229
45.2458 2.656
45.2761 2.760
45.3064 1.927
45.3367 2.865
45.3669 2.969
45.3972 1.875
45.4275 3.281
45.4578 2.396
45.4881 2.656
45.5183 3.177
45.5486 2.604
45.5789 2.396
45.6092 2.500
45.6395 2.708
45.6697 3.125
45.7000 2.656
45.7303 3.646
45.7606 2.760
45.7908 3.333
45.8211 2.656
45.8514 2.292
45.8817 2.500
45.9120 2.552
45.9422 2.656
45.9725 3.646
46.0028 3.594
46.0331 2.292
46.0634 3.125
46.0936 3.594
46.1239 3.385
46.1542 3.385
46.1845 3.281
46.2147 3.021
46.2450 3.021
46.2753 3.906
46.3056 2.552
46.3359 3.385
46.3661 3.594
46.3964 3.802
46.4267 3.229
46.4570 4.010
46.4873 4.062
46.5175 3.958
46.5478 3.958
46.5781 5.365
46.6084 3.385
46.6386 4.271
46.6689 4.062
46.6992 4.427
46.7295 4.323
46.7598 3.958
46.7900 4.219
46.8203 4.583
46.8506 5.885
46.8809 5.729
46.9112 6.562
46.9414 6.094
46.9717 7.865
47.0020 7.135
47.0323 8.229
47.0626 7.396
47.0928 9.844
47.1231 8.333
47.1534 9.792
47.1837 12.708
47.2139 11.406
47.2442 15.625
47.2745 15.365
47.3048 15.000
47.3351 18.073
47.3653 17.344
47.3956 19.792
47.4259 19.375
47.4562 20.469
47.4865 18.802
47.5167 17.656
47.5470 17.604
47.5773 15.625
47.6076 14.115
47.6378 14.427
47.6681 12.083
47.6984 11.875
47.7287 10.937
47.7590 9.375
47.7892 7.917
47.8195 6.406
47.8498 6.927
47.8801 6.250
47.9104 5.677
47.9406 6.094
47.9709 5.521
48.0012 5.885
48.0315 5.000
48.0617 4.583
48.0920 4.167
48.1223 4.167
48.1526 3.854
48.1829 4.010
48.2131 4.323
48.2434 3.698
48.2737 2.760
48.3040 3.229
48.3343 3.125
48.3645 3.125
48.3948 2.396
48.4251 3.021
48.4554 2.969
48.4856 3.385
48.5159 3.385
48.5462 3.385
48.5765 3.750
48.6068 3.229
48.6370 3.906
48.6673 3.333
48.6976 2.708
48.7279 2.865
48.7582 3.073
48.7884 2.917
48.8187 2.917
48.8490 2.240
48.8793 2.604
48.9095 2.865
48.9398 2.969
48.9701 2.917
49.0004 3.073
49.0307 2.969
49.0609 2.448
49.0912 2.812
49.1215 2.344
49.1518 2.760
49.1821 2.812
49.2123 2.865
49.2426 2.240
49.2729 2.344
49.3032 2.604
49.3334 2.760
49.3637 2.448
49.3940 2.708
49.4243 2.760
49.4546 3.229
49.4848 2.344
49.5151 2.917
49.5454 2.917
49.5757 2.344
49.6060 2.396
49.6362 2.500
49.6665 2.552
49.6968 2.760
49.7271 1.979
49.7574 2.187
49.7876 1.875
49.8179 2.500
49.8482 2.292
49.8785 2.812
49.9087 3.021
49.9390 2.448
49.9693 2.344
49.9996 2.448
50.0299 2.396
50.0601 2.344
50.0904 2.552
50.1207 1.823
50.1510 2.969
50.1813 2.240
50.2115 1.979
50.2418 2.135
50.2721 1.771
50.3024 2.500
50.3326 3.646
50.3629 1.979
50.3932 2.656
50.4235 2.292
50.4538 2.083
50.4840 2.292
50.5143 2.396
50.5446 2.448
50.5749 2.865
50.6052 1.875
50.6354 2.187
50.6657 2.083
50.6960 2.500
50.7263 1.875
50.7565 1.719
50.7868 1.927
50.8171 2.083
50.8474 2.865
50.8777 2.240
50.9079 2.448
50.9382 2.396
50.9685 2.396
50.9988 2.760
51.0291 2.708
51.0593 1.510
51.0896 1.823
51.1199 2.135
51.1502 2.344
51.1804 1.562
51.2107 2.031
51.2410 2.604
51.2713 1.927
51.3016 2.812
51.3318 2.812
51.3621 2.135
51.3924 3.125
51.4227 2.292
51.4530 1.771
51.4832 2.135
51.5135 1.823
51.5438 2.708
51.5741 2.448
51.6043 2.187
51.6346 1.875
51.6649 1.771
51.6952 1.719
51.7255 2.604
51.7557 2.344
51.7860 2.083
51.8163 2.917
51.8466 2.240
51.8769 1.979
51.9071 3.125
51.9374 1.615
51.9677 2.396
51.9980 2.292
52.0282 2.708
52.0585 2.240
52.0888 2.031
52.1191 1.458
52.1494 2.344
52.1796 1.875
52.2099 2.396
52.2402 2.500
52.2705 2.344
52.3008 2.031
52.3310 2.760
52.3613 2.344
52.3916 2.760
52.4219 1.875
52.4521 2.135
52.4824 2.656
52.5127 2.604
52.5430 2.135
52.5733 1.771
52.6035 2.031
52.6338 2.083
52.6641 2.396
52.6944 2.292
52.7247 2.552
52.7549 2.760
52.7852 2.344
52.8155 2.656
52.8458 2.448
52.8761 2.708
52.9063 1.979
52.9366 2.812
52.9669 3.021
52.9972 2.604
53.0274 1.771
53.0577 2.135
53.0880 2.344
53.1183 2.396
53.1486 2.135
53.1788 2.396
53.2091 2.083
53.2394 2.500
53.2697 2.396
53.3000 1.771
53.3302 2.500
53.3605 1.979
53.3908 2.292
53.4211 2.396
53.4513 2.969
53.4816 2.187
53.5119 2.448
53.5422 2.240
53.5725 1.927
53.6027 2.396
53.6330 2.865
53.6633 2.500
53.6936 2.552
53.7239 2.396
53.7541 2.344
53.7844 2.135
53.8147 2.865
53.8450 1.823
53.8752 3.333
53.9055 2.917
53.9358 2.240
53.9661 1.875
53.9964 2.760
54.0266 2.135
54.0569 2.500
54.0872 2.552
54.1175 2.760
54.1478 2.448
54.1780 3.229
54.2083 2.604
54.2386 3.906
54.2689 2.760
54.2991 2.760
54.3294 2.760
54.3597 2.917
54.3900 2.656
54.4203 2.708
54.4505 3.594
54.4808 2.760
54.5111 2.656
54.5414 2.135
54.5717 3.021
54.6019 2.604
54.6322 2.708
54.6625 2.865
54.6928 2.760
54.7230 2.552
54.7533 3.177
54.7836 3.073
54.8139 2.552
54.8442 2.812
54.8744 3.073
54.9047 3.490
54.9350 2.344
54.9653 2.865
54.9956 4.010
55.0258 3.177
55.0561 3.594
55.0864 3.594
55.1167 3.125
55.1469 3.698
55.1772 2.969
55.2075 3.802
55.2378 3.125
55.2681 3.281
55.2983 3.698
55.3286 3.802
55.3589 2.708
55.3892 3.385
55.4195 3.646
55.4497 3.125
55.4800 4.531
55.5103 4.740
55.5406 3.958
55.5709 4.740
55.6011 3.750
55.6314 5.000
55.6617 4.427
55.6920 4.844
55.7222 5.365
55.7525 5.521
55.7828 7.240
55.8131 5.469
55.8434 6.719
55.8736 7.031
55.9039 6.302
55.9342 8.177
55.9645 6.875
55.9948 8.854
56.0250 9.219
56.0553 8.125
56.0856 10.312
56.1159 11.094
56.1461 12.917
56.1764 11.771
56.2067 12.708
56.2370 14.167
56.2673 15.365
56.2975 18.750
56.3278 17.031
56.3581 19.219
56.3884 24.010
56.4187 24.323
56.4489 25.052
56.4792 23.854
56.5095 24.375
56.5398 24.323
56.5700 23.698
56.6003 21.458
56.6306 20.885
56.6609 19.115
56.6912 18.802
56.7214 14.844
56.7517 14.844
56.7820 13.073
56.8123 11.458
56.8426 11.667
56.8728 10.937
56.9031 8.958
56.9334 11.094
56.9637 9.323
56.9939 8.385
57.0242 8.177
57.0545 7.865
57.0848 6.198
57.1151 6.250
57.1453 6.354
57.1756 6.771
57.2059 6.302
57.2362 6.198
57.2665 6.198
57.2967 4.896
57.3270 4.427
57.3573 4.948
57.3876 4.479
57.4178 3.958
57.4481 4.010
57.4784 4.740
57.5087 4.062
57.5390 3.750
57.5692 2.865
57.5995 3.333
57.6298 3.646
57.6601 2.917
57.6904 3.490
57.7206 3.437
57.7509 3.229
57.7812 3.906
57.8115 3.542
57.8417 3.177
57.8720 3.698
57.9023 3.750
57.9326 3.750
57.9629 2.240
57.9931 3.177
58.0234 3.229
58.0537 2.708
58.0840 2.604
58.1143 3.385
58.1445 2.240
58.1748 2.656
58.2051 2.760
58.2354 2.760
58.2656 2.708
58.2959 2.448
58.3262 2.135
58.3565 2.865
58.3868 3.177
58.4170 2.292
58.4473 2.656
58.4776 2.344
58.5079 3.385
58.5382 3.385
58.5684 3.281
58.5987 2.135
58.6290 3.125
58.6593 2.448
58.6896 2.969
58.7198 3.333
58.7501 2.292
58.7804 2.708
58.8107 3.125
58.8409 2.448
58.8712 3.021
58.9015 2.500
58.9318 2.656
58.9621 2.969
58.9923 2.187
59.0226 2.865
59.0529 3.385
59.0832 2.656
59.1135 3.646
59.1437 2.865
59.1740 3.021
59.2043 3.073
59.2346 2.396
59.2648 2.344
59.2951 2.760
59.3254 2.552
59.3557 2.240
59.3860 2.448
59.4162 2.812
59.4465 2.760
59.4768 2.552
59.5071 2.135
59.5374 3.073
59.5676 2.552
59.5979 2.604
59.6282 2.292
59.6585 3.594
59.6887 2.187
59.7190 2.240
59.7493 2.812
59.7796 1.927
59.8099 1.979
59.8401 2.187
59.8704 2.292
59.9007 2.187
59.9310 2.656
59.9613 2.396
59.9915 2.760
60.0218 2.708
60.0521 2.500
60.0824 3.177
60.1126 2.969
60.1429 2.969
60.1732 2.969
60.2035 2.656
60.2338 2.917
60.2640 2.500
60.2943 3.177
60.3246 2.604
60.3549 2.500
60.3852 2.812
60.4154 2.969
60.4457 2.708
60.4760 2.917
60.5063 3.125
60.5365 2.656
60.5668 2.604
60.5971 3.542
60.6274 2.760
60.6577 2.917
60.6879 2.708
60.7182 2.812
60.7485 2.448
60.7788 2.917
60.8091 3.021
60.8393 2.396
60.8696 2.917
60.8999 2.812
60.9302 2.812
60.9604 2.187
60.9907 2.552
61.0210 2.708
61.0513 3.698
61.0816 3.125
61.1118 3.125
61.1421 2.812
61.1724 3.073
61.2027 3.073
61.2330 2.917
61.2632 3.177
61.2935 3.281
61.3238 3.125
61.3541 3.125
61.3844 2.812
61.4146 3.281
61.4449 3.229
61.4752 3.437
61.5055 3.646
61.5357 3.333
61.5660 3.125
61.5963 3.906
61.6266 3.646
61.6569 4.115
61.6871 3.698
61.7174 3.542
61.7477 4.219
61.7780 4.375
61.8083 3.594
61.8385 4.583
61.8688 3.802
61.8991 3.750
61.9294 4.167
61.9596 4.375
61.9899 4.167
62.0202 4.323
62.0505 5.052
62.0808 4.740
62.1110 5.000
62.1413 5.677
62.1716 5.208
62.2019 5.469
62.2322 6.302
62.2624 7.187
62.2927 8.281
62.3230 8.802
62.3533 7.865
62.3835 11.667
62.4138 9.219
62.4441 11.771
62.4744 12.969
62.5047 12.187
62.5349 12.760
62.5652 14.896
62.5955 16.719
62.6258 18.646
62.6561 18.281
62.6863 20.312
62.7166 20.625
62.7469 22.656
62.7772 21.146
62.8074 21.667
62.8377 20.417
62.8680 21.823
62.8983 18.594
62.9286 20.417
62.9588 16.615
62.9891 15.521
63.0194 13.958
63.0497 11.823
63.0800 10.104
63.1102 9.896
63.1405 9.948
63.1708 9.583
63.2011 8.073
63.2313 8.177
63.2616 5.781
63.2919 7.083
63.3222 5.937
63.3525 6.302
63.3827 6.406
63.4130 5.677
63.4433 5.312
63.4736 5.521
63.5039 5.208
63.5341 3.906
63.5644 4.219
63.5947 3.594
63.6250 4.115
63.6552 3.906
63.6855 4.375
63.7158 3.906
63.7461 4.010
63.7764 3.854
63.8066 3.594
63.8369 3.802
63.8672 3.802
63.8975 3.437
63.9278 2.656
63.9580 4.062
63.9883 3.646
64.0186 2.969
64.0489 3.646
64.0791 2.917
64.1094 3.385
64.1397 3.698
64.1700 2.708
64.2003 3.073
64.2305 3.490
64.2608 3.229
64.2911 3.542
64.3214 4.062
64.3517 3.437
64.3819 2.760
64.4122 3.125
64.4425 2.760
64.4728 2.865
64.5031 2.656
64.5333 3.490
64.5636 2.969
64.5939 2.500
64.6242 2.448
64.6544 3.490
64.6847 2.448
64.7150 2.500
64.7453 2.656
64.7756 2.604
64.8058 2.917
64.8361 3.125
64.8664 3.073
64.8967 3.021
64.9270 2.708
64.9572 2.552
64.9875 3.073
65.0178 3.646
65.0481 3.542
65.0783 2.812
65.1086 3.177
65.1389 3.229
65.1692 2.708
65.1995 2.135
65.2297 3.542
65.2600 2.708
65.2903 3.542
65.3206 3.021
65.3509 3.177
65.3811 3.281
65.4114 3.073
65.4417 3.229
65.4720 2.812
65.5022 2.812
65.5325 3.073
65.5628 3.490
65.5931 3.542
65.6234 3.229
65.6536 3.021
65.6839 3.385
65.7142 2.708
65.7445 3.073
65.7748 4.062
65.8050 3.750
65.8353 4.219
65.8656 4.271
65.8959 3.542
65.9261 4.219
65.9564 4.271
65.9867 4.323
66.0170 4.479
66.0473 4.740
66.0775 4.844
66.1078 4.479
66.1381 4.583
66.1684 5.521
66.1987 5.573
66.2289 5.104
66.2592 5.000
66.2895 5.312
66.3198 4.740
66.3500 5.833
66.3803 5.000
66.4106 4.844
66.4409 4.844
66.4712 5.260
66.5014 5.365
66.5317 4.323
66.5620 4.531
66.5923 5.260
66.6226 5.833
66.6528 4.115
66.6831 4.062
66.7134 4.531
66.7437 4.687
66.7739 4.531
66.8042 4.583
66.8345 4.740
66.8648 4.115
66.8951 4.896
66.9253 4.167
66.9556 4.375
66.9859 4.219
67.0162 4.896
67.0465 4.531
67.0767 4.427
67.1070 5.052
67.1373 5.469
67.1676 5.104
67.1978 5.625
67.2281 5.104
67.2584 5.729
67.2887 6.615
67.3190 6.823
67.3492 6.823
67.3795 7.240
67.4098 7.812
67.4401 9.740
67.4704 7.865
67.5006 8.698
67.5309 9.323
67.5612 10.937
67.5915 11.406
67.6218 10.833
67.6520 12.760
67.6823 13.542
67.7126 13.854
67.7429 13.333
67.7731 15.312
67.8034 16.250
67.8337 15.833
67.8640 15.729
67.8943 16.510
67.9245 17.969
67.9548 16.250
67.9851 16.979
68.0154 14.948
68.0457 14.167
68.0759 12.500
68.1062 11.771
68.1365 11.094
68.1668 11.094
68.1970 9.375
68.2273 10.156
68.2576 9.844
68.2879 9.479
68.3182 8.177
68.3484 7.552
68.3787 7.708
68.4090 6.927
68.4393 6.979
68.4696 7.240
68.4998 7.448
68.5301 6.823
68.5604 5.990
68.5907 8.542
68.6209 7.708
68.6512 6.771
68.6815 7.135
68.7118 7.500
68.7421 8.594
68.7723 7.552
68.8026 8.385
68.8329 8.125
68.8632 8.021
68.8935 7.604
68.9237 8.437
68.9540 8.073
68.9843 9.583
69.0146 9.479
69.0448 9.427
69.0751 8.333
69.1054 8.698
69.1357 7.083
69.1660 8.021
69.1962 6.146
69.2265 7.865
69.2568 6.979
69.2871 5.365
69.3174 6.302
69.3476 6.250
69.3779 5.000
69.4082 5.417
69.4385 5.937
69.4687 4.635
69.4990 3.854
69.5293 3.958
69.5596 4.219
69.5899 3.698
69.6201 3.750
69.6504 4.479
69.6807 4.062
69.7110 3.125
69.7413 3.542
69.7715 3.594
69.8018 3.437
69.8321 2.656
69.8624 2.656
69.8926 3.021
69.9229 2.500
69.9532 3.594
69.9835 2.448
70.0138 2.552
70.0440 2.969
70.0743 2.500
70.1046 2.812
70.1349 2.917
70.1652 2.344
70.1954 2.500
70.2257 2.344
70.2560 2.396
70.2863 2.812
70.3166 2.187
70.3468 2.917
70.3771 2.812
70.4074 2.917
70.4377 2.187
70.4679 3.073
70.4982 2.344
70.5285 2.969
70.5588 2.292
70.5891 2.604
70.6193 2.344
70.6496 2.448
70.6799 2.031
70.7102 2.760
70.7405 2.760
70.7707 2.083
70.8010 2.500
70.8313 1.927
70.8616 2.448
70.8918 2.031
70.9221 2.344
70.9524 2.135
70.9827 2.292
71.0130 1.979
71.0432 2.135
71.0735 2.917
71.1038 2.135
71.1341 1.667
71.1644 2.135
71.1946 2.135
71.2249 1.719
71.2552 2.760
71.2855 2.240
71.3157 1.823
71.3460 1.719
71.3763 1.927
71.4066 1.354
71.4369 2.396
71.4671 1.719
71.4974 2.500
71.5277 2.708
71.5580 2.760
71.5883 1.823
71.6185 2.292
71.6488 2.240
71.6791 2.187
71.7094 1.927
71.7396 1.823
71.7699 1.719
71.8002 1.667
71.8305 1.927
71.8608 2.448
71.8910 1.875
71.9213 2.187
71.9516 2.031
71.9819 1.823
72.0122 2.760
72.0424 2.031
72.0727 2.240
72.1030 2.031
72.1333 2.344
72.1635 2.396
72.1938 2.969
72.2241 2.708
72.2544 2.708
72.2847 2.500
72.3149 2.760
72.3452 2.552
72.3755 2.917
72.4058 4.062
72.4361 2.656
72.4663 2.552
72.4966 2.656
72.5269 2.865
72.5572 2.812
72.5874 2.760
72.6177 3.125
72.6480 3.021
72.6783 2.708
72.7086 2.656
72.7388 1.979
72.7691 2.656
72.7994 2.135
72.8297 2.031
72.8600 2.187
72.8902 2.500
72.9205 2.500
72.9508 2.396
72.9811 2.552
73.0113 2.187
73.0416 1.719
73.0719 1.667
73.1022 2.448
73.1325 1.667
73.1627 1.719
73.1930 2.292
73.2233 2.448
73.2536 2.552
73.2839 2.031
73.3141 1.927
73.3444 1.979
73.3747 1.719
73.4050 2.240
73.4353 1.719
73.4655 1.719
73.4958 1.510
73.5261 1.562
73.5564 2.187
73.5866 2.031
73.6169 1.979
73.6472 1.875
73.6775 1.719
73.7078 1.510
73.7380 1.458
73.7683 2.083
73.7986 1.719
73.8289 1.510
73.8592 1.406
73.8894 2.187
73.9197 1.510
73.9500 1.875
73.9803 1.667
74.0105 1.406
74.0408 2.031
74.0711 1.458
74.1014 1.823
74.1317 1.927
74.1619 1.667
74.1922 2.083
74.2225 2.031
74.2528 1.875
74.2831 1.979
74.3133 1.562
74.3436 1.667
74.3739 1.615
74.4042 1.979
74.4344 1.823
74.4647 2.083
74.4950 1.615
74.5253 2.031
74.5556 1.719
74.5858 1.719
74.6161 1.458
74.6464 1.354
74.6767 1.667
74.7070 2.187
74.7372 1.927
74.7675 2.500
74.7978 1.927
74.8281 2.031
74.8583 1.719
74.8886 1.302
74.9189 1.562
74.9492 2.344
74.9795 2.396
75.0097 1.198
75.0400 1.771
75.0703 2.187
75.1006 1.979
75.1309 1.719
75.1611 2.344
75.1914 1.771
75.2217 1.875
75.2520 2.031
75.2822 1.250
75.3125 1.719
75.3428 1.927
75.3731 1.406
75.4034 1.823
75.4336 1.771
75.4639 1.667
75.4942 2.344
75.5245 1.667
75.5548 1.719
75.5850 2.135
75.6153 1.979
75.6456 1.979
75.6759 1.615
75.7061 1.979
75.7364 2.135
75.7667 1.458
75.7970 1.302
75.8273 1.927
75.8575 1.875
75.8878 1.719
75.9181 1.979
75.9484 2.031
75.9787 1.719
76.0089 1.927
76.0392 2.500
76.0695 1.354
76.0998 2.031
76.1301 1.823
76.1603 1.979
76.1906 2.187
76.2209 2.187
76.2512 2.240
76.2814 1.771
76.3117 2.552
76.3420 2.708
76.3723 2.240
76.4026 2.500
76.4328 2.500
76.4631 2.292
76.4934 2.292
76.5237 3.177
76.5540 2.240
76.5842 2.708
76.6145 2.917
76.6448 2.656
76.6751 2.396
76.7053 3.594
76.7356 3.594
76.7659 2.760
76.7962 3.021
76.8265 2.812
76.8567 3.125
76.8870 3.229
76.9173 3.437
76.9476 3.854
76.9779 2.448
77.0081 3.698
77.0384 3.125
77.0687 3.906
77.0990 3.073
77.1292 3.021
77.1595 2.344
77.1898 3.594
77.2201 3.021
77.2504 2.448
77.2806 2.969
77.3109 2.135
77.3412 2.396
77.3715 1.979
77.4018 2.448
77.4320 1.875
77.4623 2.135
77.4926 2.187
77.5229 2.344
77.5531 1.823
77.5834 2.396
77.6137 2.135
77.6440 2.135
77.6743 1.823
77.7045 1.667
77.7348 2.187
77.7651 2.240
77.7954 1.823
77.8257 1.510
77.8559 1.510
77.8862 1.406
77.9165 1.667
77.9468 2.552
77.9770 1.562
78.0073 2.135
78.0376 1.719
78.0679 2.240
78.0982 1.771
78.1284 2.240
78.1587 1.510
78.1890 2.083
78.2193 1.302
78.2496 2.031
78.2798 1.875
78.3101 1.667
78.3404 1.458
78.3707 1.615
78.4009 1.667
78.4312 2.135
78.4615 1.875
78.4918 1.510
78.5221 1.979
78.5523 1.615
78.5826 1.719
78.6129 1.562
78.6432 2.083
78.6735 1.562
78.7037 1.823
78.7340 2.292
78.7643 1.615
78.7946 1.719
78.8248 1.562
78.8551 1.510
78.8854 2.240
78.9157 1.406
78.9460 1.927
78.9762 1.927
79.0065 1.667
79.0368 2.135
79.0671 1.094
79.0974 1.615
79.1276 2.187
79.1579 1.562
79.1882 1.979
79.2185 1.354
79.2488 1.979
79.2790 1.667
79.3093 1.667
79.3396 1.979
79.3699 1.927
79.4001 1.615
79.4304 2.240
79.4607 1.354
79.4910 1.354
79.5213 1.250
79.5515 2.135
79.5818 1.719
79.6121 1.927
79.6424 1.927
79.6727 2.135
79.7029 1.354
79.7332 1.458
79.7635 2.187
79.7938 1.250
79.8240 2.135
79.8543 1.979
79.8846 2.240
79.9149 1.562
79.9452 1.354
79.9754 1.667
80.0057 1.302
80.0360 1.198
80.0663 1.979
80.0966 1.250
80.1268 1.979
80.1571 1.823
80.1874 1.823
80.2177 1.875
80.2479 1.667
80.2782 1.302
80.3085 1.354
80.3388 1.979
80.3691 2.240
80.3993 1.510
80.4296 1.823
80.4599 1.406
80.4902 1.719
80.5205 2.135
80.5507 2.135
80.5810 2.083
80.6113 1.979
80.6416 2.135
80.6718 1.510
80.7021 1.875
80.7324 1.667
80.7627 2.344
80.7930 2.135
80.8232 2.083
80.8535 2.031
80.8838 1.823
80.9141 1.719
80.9444 1.406
80.9746 2.135
81.0049 1.979
81.0352 2.240
81.0655 2.187
81.0957 2.083
81.1260 2.344
81.1563 2.187
81.1866 2.708
81.2169 3.021
81.2471 1.823
81.2774 2.708
81.3077 2.760
81.3380 2.135
81.3683 2.604
81.3985 2.552
81.4288 1.823
81.4591 2.344
81.4894 2.240
81.5196 2.031
81.5499 3.021
81.5802 2.500
81.6105 2.344
81.6408 2.292
81.6710 2.187
81.7013 2.135
81.7316 1.927
81.7619 1.615
81.7922 2.135
81.8224 2.240
81.8527 1.458
81.8830 2.708
81.9133 1.927
81.9436 2.031
81.9738 2.135
82.0041 1.927
82.0344 1.458
82.0647 2.396
82.0949 2.344
82.1252 1.771
82.1555 2.187
82.1858 2.135
82.2161 1.615
82.2463 1.875
82.2766 1.510
82.3069 1.354
82.3372 1.979
82.3675 1.979
82.3977 1.927
82.4280 1.875
82.4583 1.667
82.4886 1.615
82.5188 2.083
82.5491 1.562
82.5794 1.875
82.6097 2.031
82.6400 1.667
82.6702 1.667
82.7005 1.667
82.7308 1.562
82.7611 1.302
82.7914 1.667
82.8216 2.031
82.8519 1.875
82.8822 1.875
82.9125 1.562
82.9427 1.771
82.9730 2.031
83.0033 1.354
83.0336 1.667
83.0639 1.250
83.0941 1.510
83.1244 1.719
83.1547 1.042
83.1850 1.458
83.2153 1.615
83.2455 1.719
83.2758 1.771
83.3061 0.781
83.3364 1.719
83.3666 1.875
83.3969 1.667
83.4272 1.458
83.4575 1.302
83.4878 1.146
83.5180 1.406
83.5483 1.354
83.5786 2.083
83.6089 1.302
83.6392 1.979
83.6694 1.458
83.6997 1.719
83.7300 2.083
83.7603 1.667
83.7905 1.615
83.8208 1.719
83.8511 1.667
83.8814 1.719
83.9117 1.719
83.9419 1.406
83.9722 1.667
84.0025 1.823
84.0328 1.406
84.0631 1.250
84.0933 1.198
84.1236 1.667
84.1539 1.354
84.1842 1.458
84.2144 1.406
84.2447 1.302
84.2750 1.458
84.3053 1.406
84.3356 1.406
84.3658 1.562
84.3961 1.875
84.4264 1.406
84.4567 1.667
84.4870 1.510
84.5172 1.667
84.5475 1.458
84.5778 1.042
84.6081 1.667
84.6383 1.354
84.6686 1.823
84.6989 1.198
84.7292 2.031
84.7595 1.094
84.7897 1.198
84.8200 1.354
84.8503 1.823
84.8806 1.302
84.9109 1.927
84.9411 1.667
84.9714 1.406
85.0017 1.302
85.0320 1.406
85.0623 1.510
85.0925 1.615
85.1228 1.667
85.1531 1.458
85.1834 1.250
85.2136 1.458
85.2439 1.823
85.2742 1.667
85.3045 2.135
85.3348 2.083
85.3650 1.927
85.3953 1.875
85.4256 1.615
85.4559 1.510
85.4862 1.771
85.5164 1.510
85.5467 1.458
85.5770 1.927
85.6073 1.562
85.6375 1.667
85.6678 1.979
85.6981 1.198
85.7284 1.667
85.7587 1.719
85.7889 1.562
85.8192 1.458
85.8495 1.667
85.8798 1.823
85.9101 1.406
85.9403 1.458
85.9706 1.250
86.0009 1.562
86.0312 1.510
86.0614 1.562
86.0917 1.406
86.1220 1.719
86.1523 1.302
86.1826 1.875
86.2128 1.927
86.2431 1.771
86.2734 2.031
86.3037 1.875
86.3340 1.771
86.3642 1.615
86.3945 1.406
86.4248 1.667
86.4551 2.135
86.4853 0.781
86.5156 1.667
86.5459 1.302
86.5762 1.615
86.6065 1.354
86.6367 1.198
86.6670 1.562
86.6973 1.458
86.7276 2.448
86.7579 1.510
86.7881 2.031
86.8184 1.667
86.8487 1.719
86.8790 1.562
86.9092 1.719
86.9395 1.927
86.9698 1.615
87.0001 1.771
87.0304 1.823
87.0606 1.875
87.0909 1.510
87.1212 1.198
87.1515 1.250
87.1818 1.875
87.2120 2.500
87.2423 1.875
87.2726 2.083
87.3029 1.979
87.3331 1.562
87.3634 1.302
87.3937 1.823
87.4240 1.510
87.4543 1.562
87.4845 1.198
87.5148 2.292
87.5451 2.135
87.5754 1.667
87.6057 1.406
87.6359 1.198
87.6662 2.135
87.6965 1.562
87.7268 1.667
87.7571 1.771
87.7873 1.458
87.8176 2.135
87.8479 1.667
87.8782 1.823
87.9084 1.771
87.9387 2.135
87.9690 2.135
87.9993 1.719
88.0296 1.875
88.0598 2.135
88.0901 1.875
88.1204 1.198
88.1507 2.031
88.1810 1.354
88.2112 2.552
88.2415 1.927
88.2718 1.927
88.3021 2.083
88.3323 2.500
88.3626 1.667
88.3929 2.240
88.4232 2.083
88.4535 2.344
88.4837 2.604
88.5140 1.927
88.5443 2.500
88.5746 1.823
88.6049 1.667
88.6351 2.344
88.6654 2.500
88.6957 2.240
88.7260 1.875
88.7562 2.865
88.7865 2.292
88.8168 2.604
88.8471 2.812
88.8774 2.135
88.9076 3.125
88.9379 3.594
88.9682 2.969
88.9985 2.344
89.0288 2.135
89.0590 2.708
89.0893 3.333
89.1196 2.865
89.1499 3.958
89.1801 3.281
89.2104 3.073
89.2407 3.542
89.2710 3.906
89.3013 4.271
89.3315 4.375
89.3618 4.427
89.3921 3.802
89.4224 4.844
89.4527 4.635
89.4829 5.469
89.5132 4.531
89.5435 4.062
89.5738 4.583
89.6040 4.687
89.6343 4.687
89.6646 5.052
89.6949 5.937
89.7252 5.417
89.7554 4.115
89.7857 4.583
89.8160 4.375
89.8463 3.646
89.8766 3.385
89.9068 4.062
89.9371 2.969
89.9674 2.604
89.9977 3.698
90.0279 3.073
90.0582 3.594
90.0885 3.594
90.1188 2.969
90.1491 3.021
90.1793 3.125
90.2096 3.073
90.2399 3.125
90.2702 1.979
90.3005 2.656
90.3307 2.656
90.3610 2.760
90.3913 2.500
90.4216 1.667
90.4518 1.719
90.4821 2.240
90.5124 2.448
90.5427 2.083
90.5730 2.083
90.6032 2.292
90.6335 1.458
90.6638 2.135
90.6941 2.500
90.7244 1.927
90.7546 1.771
90.7849 1.927
90.8152 2.083
90.8455 2.135
90.8758 2.187
90.9060 2.500
90.9363 1.615
90.9666 2.656
90.9969 1.562
91.0271 2.083
91.0574 2.708
91.0877 2.448
91.1180 2.187
91.1483 1.719
91.1785 1.719
91.2088 2.240
91.2391 2.031
91.2694 1.510
91.2997 2.135
91.3299 1.875
91.3602 1.615
91.3905 1.979
91.4208 1.562
91.4510 2.135
91.4813 2.344
91.5116 2.448
91.5419 2.187
91.5722 1.667
91.6024 1.823
91.6327 2.083
91.6630 1.823
91.6933 2.500
91.7236 2.292
91.7538 1.562
91.7841 1.771
91.8144 2.240
91.8447 2.292
91.8749 2.552
91.9052 1.667
91.9355 2.656
91.9658 2.083
91.9961 1.875
92.0263 2.917
92.0566 1.979
92.0869 1.510
92.1172 1.875
92.1475 2.240
92.1777 1.406
92.2080 2.187
92.2383 2.292
92.2686 2.396
92.2988 2.083
92.3291 2.448
92.3594 1.823
92.3897 2.344
92.4200 2.604
92.4502 2.656
92.4805 2.500
92.5108 3.281
92.5411 2.865
92.5714 2.552
92.6016 2.240
92.6319 2.656
92.6622 2.187
92.6925 3.125
92.7227 3.125
92.7530 2.552
92.7833 1.875
92.8136 2.396
92.8439 3.125
92.8741 2.969
92.9044 2.500
92.9347 2.187
92.9650 3.177
92.9953 2.448
93.0255 3.177
93.0558 3.125
93.0861 2.240
93.1164 2.500
93.1466 2.396
93.1769 2.604
93.2072 2.552
93.2375 2.448
93.2678 2.760
93.2980 2.187
93.3283 2.135
93.3586 2.187
93.3889 2.187
93.4192 2.396
93.4494 2.448
93.4797 1.667
93.5100 2.031
93.5403 2.083
93.5706 2.187
93.6008 2.031
93.6311 2.187
93.6614 2.187
93.6917 2.187
93.7219 1.927
93.7522 2.708
93.7825 1.979
93.8128 2.135
93.8431 2.292
93.8733 2.187
93.9036 2.187
93.9339 2.500
93.9642 1.823
93.9945 2.187
94.0247 2.031
94.0550 3.021
94.0853 2.031
94.1156 2.552
94.1458 2.865
94.1761 2.396
94.2064 2.240
94.2367 1.927
94.2670 2.187
94.2972 1.927
94.3275 1.927
94.3578 2.552
94.3881 2.187
94.4184 2.552
94.4486 2.448
94.4789 3.385
94.5092 2.448
94.5395 2.135
94.5697 2.865
94.6000 2.552
94.6303 3.177
94.6606 3.125
94.6909 3.437
94.7211 3.437
94.7514 2.708
94.7817 3.490
94.8120 2.552
94.8423 3.125
94.8725 3.437
94.9028 3.490
94.9331 2.917
94.9634 3.698
94.9936 4.948
95.0239 3.698
95.0542 4.375
95.0845 4.844
95.1148 4.219
95.1450 4.219
95.1753 4.687
95.2056 4.010
95.2359 5.156
95.2662 5.156
95.2964 4.896
95.3267 4.583
95.3570 5.312
95.3873 3.958
95.4175 4.062
95.4478 3.906
95.4781 4.479
95.5084 4.844
95.5387 4.219
95.5689 3.802
95.5992 3.073
95.6295 4.167
95.6598 4.010
95.6901 3.906
95.7203 1.875
95.7506 3.125
95.7809 3.385
95.8112 2.500
95.8414 3.646
95.8717 2.240
95.9020 2.760
95.9323 3.125
95.9626 2.552
95.9928 3.125
96.0231 2.552
96.0534 2.760
96.0837 2.292
96.1140 2.031
96.1442 2.135
96.1745 2.292
96.2048 1.979
96.2351 2.344
96.2653 2.187
96.2956 2.396
96.3259 2.240
96.3562 2.552
96.3865 2.187
96.4167 2.552
96.4470 1.927
96.4773 1.771
96.5076 2.240
96.5379 2.344
96.5681 2.292
96.5984 2.240
96.6287 1.458
96.6590 1.875
96.6893 1.719
96.7195 2.187
96.7498 2.083
96.7801 2.031
96.8104 2.135
96.8406 2.240
96.8709 1.875
96.9012 2.292
96.9315 2.552
96.9618 1.927
96.9920 1.823
97.0223 2.031
97.0526 1.979
97.0829 2.500
97.1132 1.667
97.1434 1.927
97.1737 1.354
97.2040 1.979
97.2343 2.292
97.2645 1.719
97.2948 1.927
97.3251 1.927
97.3554 2.240
97.3857 2.292
97.4159 2.656
97.4462 2.240
97.4765 2.083
97.5068 2.135
97.5371 1.771
97.5673 1.979
97.5976 2.083
97.6279 1.615
97.6582 1.771
97.6884 2.240
97.7187 2.604
97.7490 2.656
97.7793 2.760
97.8096 2.396
97.8398 1.771
97.8701 2.396
97.9004 2.396
97.9307 2.031
97.9610 1.823
97.9912 2.865
98.0215 1.927
98.0518 2.396
98.0821 2.344
98.1123 2.656
98.1426 2.969
98.1729 2.292
98.2032 2.292
98.2335 2.135
98.2637 3.021
98.2940 2.552
98.3243 3.073
98.3546 2.812
98.3849 3.073
98.4151 3.437
98.4454 3.594
98.4757 3.281
98.5060 3.333
98.5362 4.323
98.5665 2.969
98.5968 3.125
98.6271 2.917
98.6574 2.292
98.6876 3.177
98.7179 3.385
98.7482 2.448
98.7785 4.010
98.8088 3.698
98.8390 2.552
98.8693 3.542
98.8996 3.281
98.9299 3.125
98.9601 2.708
98.9904 3.854
99.0207 3.594
99.0510 2.083
99.0813 1.875
99.1115 2.708
99.1418 2.552
99.1721 2.552
99.2024 2.187
99.2327 2.448
99.2629 2.760
99.2932 2.187
99.3235 1.771
99.3538 2.083
99.3841 1.927
99.4143 2.083
99.4446 1.927
99.4749 1.979
99.5052 1.823
99.5354 1.823
99.5657 1.875
99.5960 2.031
99.6263 1.875
99.6566 2.083
99.6868 1.823
99.7171 1.823
99.7474 2.344
99.7777 1.823
99.8080 2.240
99.8382 2.292
99.8685 1.927
99.8988 1.823
99.9291 1.823
99.9593 1.458
99.9896 1.979
100.0199 1.823
100.0502 1.406
100.0805 1.510
100.1107 1.719
100.1410 1.927
100.1713 2.135
100.2016 2.135
100.2319 1.615
100.2621 2.083
100.2924 1.823
100.3227 2.448
100.3530 1.302
100.3832 1.979
100.4135 1.771
100.4438 2.135
100.4741 1.719
100.5044 1.823
100.5346 1.927
100.5649 1.823
100.5952 2.031
100.6255 1.875
100.6558 1.875
100.6860 1.615
100.7163 1.823
100.7466 1.927
100.7769 2.187
100.8071 1.771
100.8374 1.302
100.8677 1.875
100.8980 2.083
100.9283 2.083
100.9585 1.875
100.9888 1.771
101.0191 2.187
101.0494 1.875
101.0797 2.083
101.1099 1.094
101.1402 1.667
101.1705 2.240
101.2008 2.031
101.2310 1.562
101.2613 2.031
101.2916 2.135
101.3219 1.667
101.3522 2.031
101.3824 1.875
101.4127 2.396
101.4430 2.396
101.4733 1.875
101.5036 2.031
101.5338 1.875
101.5641 1.354
101.5944 1.302
101.6247 1.719
101.6549 2.187
101.6852 1.406
101.7155 1.562
101.7458 2.604
101.7761 1.823
101.8063 2.083
101.8366 2.135
101.8669 1.875
101.8972 2.240
101.9275 2.240
101.9577 1.615
101.9880 2.083
102.0183 2.292
102.0486 2.552
102.0788 2.500
102.1091 2.292
102.1394 2.240
102.1697 2.812
102.2000 2.187
102.2302 1.927
102.2605 2.396
102.2908 1.979
102.3211 3.073
102.3514 1.979
102.3816 2.552
102.4119 2.812
102.4422 2.240
102.4725 3.333
102.5028 2.812
102.5330 2.031
102.5633 2.656
102.5936 2.240
102.6239 2.448
102.6541 2.760
102.6844 3.698
102.7147 3.229
102.7450 2.344
102.7753 3.229
102.8055 2.552
102.8358 3.281
102.8661 2.969
102.8964 3.333
102.9267 3.542
102.9569 3.229
102.9872 2.969
103.0175 3.281
103.0478 3.437
103.0780 3.490
103.1083 2.969
103.1386 2.552
103.1689 2.812
103.1992 2.969
103.2294 3.698
103.2597 3.021
103.2900 2.448
103.3203 2.448
103.3506 2.344
103.3808 2.552
103.4111 3.281
103.4414 3.906
103.4717 3.073
103.5019 3.125
103.5322 2.812
103.5625 3.646
103.5928 3.281
103.6231 2.969
103.6533 2.865
103.6836 2.552
103.7139 3.073
103.7442 2.760
103.7745 3.958
103.8047 3.229
103.8350 3.646
103.8653 3.437
103.8956 3.594
103.9258 3.385
103.9561 4.583
103.9864 3.958
104.0167 4.531
104.0470 3.385
104.0772 3.958
104.1075 3.958
104.1378 3.542
104.1681 4.115
104.1984 3.542
104.2286 3.229
104.2589 3.802
104.2892 3.698
104.3195 3.646
104.3497 3.698
104.3800 3.125
104.4103 4.062
104.4406 3.385
104.4709 3.333
104.5011 3.594
104.5314 3.229
104.5617 3.073
104.5920 3.229
104.6223 2.604
104.6525 2.552
104.6828 3.750
104.7131 2.604
104.7434 2.604
104.7736 1.771
104.8039 1.927
104.8342 2.448
104.8645 2.344
104.8948 2.396
104.9250 2.031
104.9553 2.969
104.9856 2.083
105.0159 2.135
105.0462 2.344
105.0764 2.031
105.1067 2.604
105.1370 1.667
105.1673 1.979
105.1975 1.979
105.2278 1.719
105.2581 1.823
105.2884 2.083
105.3187 2.187
105.3489 1.771
105.3792 2.083
105.4095 1.615
105.4398 2.187
105.4701 1.771
105.5003 1.875
105.5306 2.083
105.5609 1.927
105.5912 1.667
105.6215 1.771
105.6517 2.135
105.6820 1.823
105.7123 1.615
105.7426 1.406
105.7728 1.927
105.8031 2.292
105.8334 1.719
105.8637 1.562
105.8940 2.031
105.9242 1.927
105.9545 2.187
105.9848 1.198
106.0151 1.510
106.0454 1.406
106.0756 1.667
106.1059 1.615
106.1362 1.562
106.1665 1.823
106.1967 1.510
106.2270 1.875
106.2573 1.875
106.2876 1.458
106.3179 2.448
106.3481 1.615
106.3784 1.979
106.4087 1.823
106.4390 1.771
106.4693 2.240
106.4995 1.875
106.5298 2.969
106.5601 1.823
106.5904 1.667
106.6206 2.031
106.6509 1.562
106.6812 2.448
106.7115 1.823
106.7418 2.135
106.7720 2.240
106.8023 1.823
106.8326 1.667
106.8629 1.823
106.8932 1.979
106.9234 1.562
106.9537 2.240
106.9840 2.396
107.0143 2.292
107.0445 2.396
107.0748 2.656
107.1051 1.875
107.1354 1.927
107.1657 2.240
107.1959 1.927
107.2262 2.135
107.2565 2.031
107.2868 1.458
107.3171 1.927
107.3473 1.875
107.3776 2.240
107.4079 1.927
107.4382 1.667
107.4684 1.927
107.4987 2.135
107.5290 2.917
107.5593 2.031
107.5896 2.135
107.6198 2.083
107.6501 2.760
107.6804 1.458
107.7107 1.979
107.7410 2.083
107.7712 1.823
107.8015 2.083
107.8318 2.031
107.8621 1.615
107.8923 1.771
107.9226 1.406
107.9529 2.135
107.9832 1.875
108.0135 1.719
108.0437 1.979
108.0740 2.031
108.1043 1.719
108.1346 2.135
108.1649 1.875
108.1951 1.771
108.2254 1.510
108.2557 1.771
108.2860 2.083
108.3163 1.927
108.3465 1.875
108.3768 1.667
108.4071 1.719
108.4374 1.875
108.4676 1.510
108.4979 2.031
108.5282 2.031
108.5585 1.771
108.5888 1.927
108.6190 1.875
108.6493 2.344
108.6796 2.135
108.7099 1.562
108.7402 1.979
108.7704 2.240
108.8007 1.771
108.8310 1.979
108.8613 1.771
108.8915 1.927
108.9218 1.406
108.9521 1.667
108.9824 1.927
109.0127 1.979
109.0429 1.719
109.0732 1.875
109.1035 1.667
109.1338 1.510
109.1641 1.771
109.1943 2.187
109.2246 1.979
109.2549 1.823
109.2852 1.250
109.3154 2.552
109.3457 1.562
109.3760 2.292
109.4063 1.458
109.4366 2.656
109.4668 1.875
109.4971 2.083
109.5274 2.552
109.5577 1.458
109.5880 1.562
109.6182 1.927
109.6485 1.823
109.6788 2.500
109.7091 2.604
109.7393 1.875
109.7696 1.615
109.7999 2.552
109.8302 2.448
109.8605 2.552
109.8907 2.344
109.9210 2.656
109.9513 2.500
109.9816 3.125
110.0119 2.396
110.0421 2.448
110.0724 2.500
110.1027 2.708
110.1330 1.979
110.1632 2.240
110.1935 2.656
110.2238 2.760
110.2541 2.240
110.2844 3.125
110.3146 2.031
110.3449 1.979
110.3752 2.240
110.4055 2.240
110.4358 2.292
110.4660 2.708
110.4963 3.125
110.5266 2.656
110.5569 2.448
110.5871 3.177
110.6174 2.917
110.6477 2.448
110.6780 2.292
110.7083 2.500
110.7385 2.344
110.7688 2.344
110.7991 2.760
110.8294 2.917
110.8597 2.448
110.8899 2.448
110.9202 2.604
110.9505 1.979
110.9808 2.448
111.0110 1.823
111.0413 2.240
111.0716 2.187
111.1019 2.083
111.1322 2.135
111.1624 1.979
111.1927 2.187
111.2230 1.719
111.2533 2.187
111.2836 2.135
111.3138 1.458
111.3441 2.135
111.3744 1.667
111.4047 1.979
111.4350 2.292
111.4652 1.719
111.4955 2.083
111.5258 1.510
111.5561 2.344
111.5863 2.031
111.6166 2.240
111.6469 1.875
111.6772 1.771
111.7075 1.667
111.7377 1.667
111.7680 2.292
111.7983 1.823
111.8286 1.875
111.8589 1.562
111.8891 1.667
111.9194 1.562
111.9497 1.615
111.9800 2.552
112.0102 1.979
112.0405 2.031
112.0708 2.344
112.1011 2.708
112.1314 1.562
112.1616 2.292
112.1919 2.031
112.2222 1.719
112.2525 1.979
112.2828 1.458
112.3130 1.562
112.3433 2.344
112.3736 1.406
112.4039 1.406
112.4341 1.875
112.4644 1.823
112.4947 1.719
112.5250 2.031
112.5553 1.667
112.5855 1.458
112.6158 1.719
112.6461 2.031
112.6764 2.187
112.7067 1.927
112.7369 1.823
112.7672 1.719
112.7975 1.719
112.8278 1.927
112.8580 1.823
112.8883 1.719
112.9186 2.344
112.9489 1.562
112.9792 1.302
113.0094 1.562
113.0397 1.771
113.0700 1.198
113.1003 2.083
113.1306 1.198
113.1608 1.198
113.1911 1.667
113.2214 2.240
113.2517 1.771
113.2819 1.823
113.3122 1.979
113.3425 1.562
113.3728 1.875
113.4031 1.927
113.4333 1.719
113.4636 1.510
113.4939 1.771
113.5242 1.979
113.5545 1.875
113.5847 1.562
113.6150 2.187
113.6453 1.667
113.6756 1.719
113.7058 1.823
113.7361 2.656
113.7664 1.667
113.7967 2.083
113.8270 2.135
113.8572 1.771
113.8875 1.771
113.9178 1.719
113.9481 1.875
113.9784 1.927
114.0086 2.135
114.0389 1.615
114.0692 1.510
114.0995 1.562
114.1298 1.719
114.1600 1.667
114.1903 1.615
114.2206 2.031
114.2509 2.604
114.2811 1.510
114.3114 1.771
114.3417 1.823
114.3720 2.396
114.4023 1.667
114.4325 2.552
114.4628 1.562
114.4931 1.771
114.5234 1.823
114.5537 1.927
114.5839 2.083
114.6142 1.510
114.6445 1.510
114.6748 2.031
114.7050 1.302
114.7353 1.823
114.7656 1.667
114.7959 2.344
114.8262 1.875
114.8564 1.615
114.8867 2.031
114.9170 3.281
114.9473 2.083
114.9776 2.552
115.0078 1.875
115.0381 2.292
115.0684 2.708
115.0987 1.823
115.1289 2.187
115.1592 1.875
115.1895 2.917
115.2198 2.865
115.2501 1.719
115.2803 2.656
115.3106 2.917
115.3409 2.031
115.3712 2.292
115.4015 2.344
115.4317 2.865
115.4620 3.073
115.4923 2.552
115.5226 2.656
115.5528 2.812
115.5831 3.281
115.6134 2.656
115.6437 3.229
115.6740 2.917
115.7042 2.656
115.7345 2.760
115.7648 3.229
115.7951 4.167
115.8254 3.437
115.8556 3.594
115.8859 3.333
115.9162 3.229
115.9465 3.646
115.9767 3.854
116.0070 4.323
116.0373 4.375
116.0676 4.167
116.0979 4.479
116.1281 3.854
116.1584 3.646
116.1887 4.427
116.2190 4.479
116.2493 3.490
116.2795 4.219
116.3098 4.375
116.3401 4.531
116.3704 3.646
116.4006 3.542
116.4309 3.333
116.4612 3.490
116.4915 4.635
116.5218 3.594
116.5520 4.740
116.5823 3.698
116.6126 4.844
116.6429 3.437
116.6732 4.010
116.7034 2.812
116.7337 3.698
116.7640 3.542
116.7943 2.917
116.8245 2.865
116.8548 2.865
116.8851 4.271
116.9154 2.760
116.9457 3.125
116.9759 3.281
117.0062 3.333
117.0365 3.125
117.0668 2.604
117.0971 2.656
117.1273 2.344
117.1576 2.187
117.1879 2.865
117.2182 3.229
117.2485 2.917
117.2787 2.500
117.3090 2.865
117.3393 2.031
117.3696 2.552
117.3998 2.344
117.4301 2.292
117.4604 2.135
117.4907 1.771
117.5210 1.719
117.5512 2.604
117.5815 3.229
117.6118 2.604
117.6421 2.240
117.6724 2.240
117.7026 2.552
117.7329 2.448
117.7632 1.927
117.7935 2.812
117.8237 2.344
117.8540 2.135
117.8843 2.083
117.9146 1.927
117.9449 2.240
117.9751 1.771
118.0054 2.187
118.0357 1.979
118.0660 1.198
118.0963 2.500
118.1265 1.875
118.1568 2.083
118.1871 1.615
118.2174 1.354
118.2476 2.240
118.2779 2.083
118.3082 2.240
118.3385 1.562
118.3688 1.406
118.3990 2.031
118.4293 1.615
118.4596 2.135
118.4899 1.458
118.5202 2.448
118.5504 1.979
118.5807 2.083
118.6110 2.083
118.6413 2.135
118.6715 1.979
118.7018 1.667
118.7321 1.146
118.7624 2.292
118.7927 2.865
118.8229 2.135
118.8532 2.187
118.8835 1.719
118.9138 1.875
118.9441 1.615
118.9743 2.083
119.0046 2.031
119.0349 2.135
119.0652 1.875
119.0954 1.927
119.1257 1.667
119.1560 2.031
119.1863 1.823
119.2166 1.198
119.2468 2.344
119.2771 1.458
119.3074 2.031
119.3377 2.135
119.3680 1.719
119.3982 1.771
119.4285 1.771
119.4588 1.458
119.4891 1.927
119.5193 2.240
119.5496 2.187
119.5799 2.240
119.6102 2.500
119.6405 1.771
119.6707 2.187
119.7010 1.354
119.7313 1.875
119.7616 1.823
119.7919 2.292
119.8221 1.875
119.8524 2.135
119.8827 1.771
119.9130 1.562
119.9433 1.927
119.9735 1.823
120.0038 1.615
