'Id: "" Comment: "" Operator: "Lab Manager" Anode: "Cu" Scantype: "Locked Coupled" TimePerStep: "19.2" X: "9999" Y: "9999" Z: "9999" 
10.0015 3.542
10.0318 3.177
10.0620 3.646
10.0923 3.958
10.1226 3.802
10.1529 3.802
10.1832 4.740
10.2134 4.792
10.2437 3.958
10.2740 3.854
10.3043 3.750
10.3346 3.229
10.3648 3.594
10.3951 3.698
10.4254 3.437
10.4557 3.542
10.4859 3.229
10.5162 3.542
10.5465 4.583
10.5768 3.177
10.6071 4.115
10.6373 4.375
10.6676 2.396
10.6979 3.333
10.7282 3.906
10.7585 3.437
10.7887 3.281
10.8190 3.698
10.8493 4.479
10.8796 3.646
10.9098 3.802
10.9401 4.219
10.9704 4.167
11.0007 3.958
11.0310 3.385
11.0612 3.854
11.0915 3.958
11.1218 2.812
11.1521 3.229
11.1824 3.542
11.2126 4.271
11.2429 3.958
11.2732 3.802
11.3035 3.385
11.3337 3.333
11.3640 2.604
11.3943 3.333
11.4246 3.385
11.4549 3.646
11.4851 3.802
11.5154 4.062
11.5457 3.490
11.5760 3.490
11.6063 3.646
11.6365 3.281
11.6668 3.802
11.6971 3.333
11.7274 3.646
11.7577 3.646
11.7879 3.802
11.8182 4.115
11.8485 3.125
11.8788 3.177
11.9090 3.646
11.9393 3.073
11.9696 3.333
11.9999 2.656
12.0302 3.437
12.0604 3.646
12.0907 3.958
12.1210 2.917
12.1513 3.073
12.1816 3.229
12.2118 4.167
12.2421 3.021
12.2724 2.969
12.3027 4.427
12.3329 4.010
12.3632 3.229
12.3935 3.437
12.4238 3.177
12.4541 3.073
12.4843 4.115
12.5146 3.490
12.5449 3.073
12.5752 2.812
12.6055 3.854
12.6357 3.594
12.6660 2.656
12.6963 3.698
12.7266 3.125
12.7568 2.969
12.7871 3.073
12.8174 3.073
12.8477 3.802
12.8780 3.021
12.9082 3.021
12.9385 3.073
12.9688 3.854
12.9991 3.073
13.0294 3.333
13.0596 2.865
13.0899 2.708
13.1202 3.333
13.1505 3.281
13.1807 3.750
13.2110 3.490
13.2413 4.792
13.2716 3.229
13.3019 3.490
13.3321 3.490
13.3624 2.969
13.3927 3.646
13.4230 3.542
13.4533 2.865
13.4835 3.385
13.5138 3.437
13.5441 3.177
13.5744 2.760
13.6046 3.333
13.6349 2.812
13.6652 3.385
13.6955 3.281
13.7258 3.281
13.7560 3.385
13.7863 3.333
13.8166 2.865
13.8469 3.802
13.8772 3.281
13.9074 3.802
13.9377 2.812
13.9680 4.062
13.9983 3.750
14.0285 3.437
14.0588 3.177
14.0891 3.073
14.1194 3.281
14.1497 3.021
14.1799 3.646
14.2102 2.865
14.2405 3.906
14.2708 2.760
14.3011 3.281
14.3313 3.437
14.3616 3.542
14.3919 3.333
14.4222 2.344
14.4524 3.594
14.4827 3.333
14.5130 3.542
14.5433 3.125
14.5736 3.125
14.6038 2.240
14.6341 3.073
14.6644 2.917
14.6947 2.552
14.7250 3.073
14.7552 3.073
14.7855 2.969
14.8158 2.656
14.8461 3.437
14.8764 2.917
14.9066 2.656
14.9369 2.812
14.9672 1.875
14.9975 2.656
15.0277 3.594
15.0580 3.229
15.0883 3.125
15.1186 3.229
15.1489 3.177
15.1791 3.021
15.2094 3.073
15.2397 3.073
15.2700 3.333
15.3003 2.865
15.3305 2.865
15.3608 2.604
15.3911 3.490
15.4214 2.760
15.4516 2.917
15.4819 2.865
15.5122 3.385
15.5425 2.708
15.5728 3.385
15.6030 3.698
15.6333 2.760
15.6636 3.281
15.6939 2.604
15.7242 3.021
15.7544 3.177
15.7847 4.010
15.8150 3.125
15.8453 2.552
15.8755 3.073
15.9058 2.396
15.9361 2.969
15.9664 3.073
15.9967 3.385
16.0269 3.125
16.0572 3.125
16.0875 2.396
16.1178 2.812
16.1481 2.708
16.1783 3.385
16.2086 2.812
16.2389 3.281
16.2692 3.177
16.2994 2.812
16.3297 1.979
16.3600 3.802
16.3903 2.812
16.4206 3.229
16.4508 3.333
16.4811 3.177
16.5114 3.542
16.5417 2.292
16.5720 3.594
16.6022 2.969
16.6325 2.656
16.6628 2.969
16.6931 3.021
16.7233 2.917
16.7536 2.917
16.7839 3.333
16.8142 2.969
16.8445 3.594
16.8747 2.969
16.9050 3.333
16.9353 4.219
16.9656 3.229
16.9959 3.594
17.0261 3.021
17.0564 2.708
17.0867 3.646
17.1170 2.969
17.1472 2.760
17.1775 3.229
17.2078 2.708
17.2381 2.396
17.2684 3.281
17.2986 3.281
17.3289 3.125
17.3592 4.323
17.3895 2.135
17.4198 2.448
17.4500 3.281
17.4803 3.698
17.5106 2.969
17.5409 3.802
17.5712 2.708
17.6014 2.344
17.6317 2.500
17.6620 3.646
17.6923 2.448
17.7225 3.177
17.7528 3.958
17.7831 2.917
17.8134 3.125
17.8437 2.552
17.8739 2.448
17.9042 2.760
17.9345 3.021
17.9648 3.646
17.9951 3.073
18.0253 4.219
18.0556 2.604
18.0859 2.969
18.1162 1.927
18.1464 2.760
18.1767 3.490
18.2070 2.812
18.2373 3.021
18.2676 3.021
18.2978 2.604
18.3281 2.656
18.3584 2.812
18.3887 2.396
18.4190 2.500
18.4492 2.656
18.4795 1.823
18.5098 2.812
18.5401 2.969
18.5703 2.812
18.6006 3.125
18.6309 2.969
18.6612 3.229
18.6915 3.125
18.7217 2.812
18.7520 2.552
18.7823 2.865
18.8126 3.021
18.8429 1.667
18.8731 2.604
18.9034 3.073
18.9337 2.344
18.9640 3.125
18.9942 2.240
19.0245 3.125
19.0548 3.490
19.0851 2.552
19.1154 2.604
19.1456 2.917
19.1759 2.500
19.2062 2.760
19.2365 3.385
19.2668 3.021
19.2970 2.240
19.3273 3.021
19.3576 3.437
19.3879 2.656
19.4181 2.500
19.4484 2.865
19.4787 3.490
19.5090 2.708
19.5393 2.917
19.5695 2.812
19.5998 2.917
19.6301 3.542
19.6604 2.604
19.6907 3.073
19.7209 2.708
19.7512 2.552
19.7815 2.240
19.8118 2.396
19.8420 3.333
19.8723 3.281
19.9026 2.448
19.9329 3.646
19.9632 2.396
19.9934 2.760
20.0237 2.865
20.0540 2.604
20.0843 1.875
20.1146 2.500
20.1448 2.448
20.1751 2.448
20.2054 3.281
20.2357 3.021
20.2659 3.021
20.2962 2.552
20.3265 3.073
20.3568 2.812
20.3871 2.396
20.4173 3.021
20.4476 2.969
20.4779 3.542
20.5082 2.812
20.5385 2.552
20.5687 3.177
20.5990 3.385
20.6293 2.292
20.6596 2.604
20.6899 2.969
20.7201 2.656
20.7504 2.760
20.7807 2.656
20.8110 2.500
20.8412 1.615
20.8715 2.240
20.9018 3.542
20.9321 2.448
20.9624 2.656
20.9926 2.292
21.0229 3.021
21.0532 2.187
21.0835 2.917
21.1138 3.333
21.1440 2.240
21.1743 2.344
21.2046 2.760
21.2349 2.812
21.2651 1.979
21.2954 2.760
21.3257 2.552
21.3560 2.396
21.3863 2.552
21.4165 2.448
21.4468 2.552
21.4771 2.708
21.5074 2.604
21.5377 2.396
21.5679 2.604
21.5982 2.917
21.6285 1.667
21.6588 2.812
21.6890 2.500
21.7193 2.917
21.7496 2.500
21.7799 2.552
21.8102 2.812
21.8404 2.396
21.8707 3.229
21.9010 2.448
21.9313 2.448
21.9616 2.708
21.9918 2.812
22.0221 1.875
22.0524 2.240
22.0827 2.135
22.1129 2.760
22.1432 3.021
22.1735 2.187
22.2038 2.396
22.2341 2.812
22.2643 2.292
22.2946 2.500
22.3249 3.021
22.3552 2.656
22.3855 2.812
22.4157 2.448
22.4460 2.552
22.4763 2.083
22.5066 2.708
22.5368 2.448
22.5671 3.490
22.5974 2.656
22.6277 2.344
22.6580 1.927
22.6882 2.656
22.7185 2.500
22.7488 2.292
22.7791 3.073
22.8094 2.760
22.8396 2.656
22.8699 1.927
22.9002 2.448
22.9305 3.021
22.9607 3.281
22.9910 2.552
23.0213 2.135
23.0516 3.177
23.0819 2.865
23.1121 2.448
23.1424 2.812
23.1727 1.719
23.2030 2.135
23.2333 3.073
23.2635 2.708
23.2938 2.865
23.3241 2.292
23.3544 3.177
23.3846 3.229
23.4149 2.396
23.4452 2.031
23.4755 2.396
23.5058 1.823
23.5360 3.437
23.5663 2.448
23.5966 2.760
23.6269 2.448
23.6572 1.562
23.6874 1.979
23.7177 2.656
23.7480 2.083
23.7783 2.760
23.8086 2.969
23.8388 2.865
23.8691 2.396
23.8994 2.396
23.9297 3.021
23.9599 3.490
23.9902 2.760
24.0205 2.500
24.0508 2.656
24.0811 2.448
24.1113 1.719
24.1416 3.021
24.1719 2.135
24.2022 1.771
24.2325 2.500
24.2627 2.656
24.2930 2.865
24.3233 2.604
24.3536 3.229
24.3838 1.719
24.4141 2.917
24.4444 2.500
24.4747 2.500
24.5050 2.552
24.5352 2.917
24.5655 2.656
24.5958 2.552
24.6261 2.344
24.6564 2.604
24.6866 2.708
24.7169 2.656
24.7472 1.875
24.7775 2.292
24.8077 2.083
24.8380 2.760
24.8683 2.500
24.8986 3.177
24.9289 2.604
24.9591 2.708
24.9894 1.927
25.0197 2.396
25.0500 1.979
25.0803 2.552
25.1105 2.865
25.1408 2.656
25.1711 3.021
25.2014 1.875
25.2316 2.917
25.2619 1.979
25.2922 3.073
25.3225 2.865
25.3528 1.875
25.3830 2.708
25.4133 2.604
25.4436 2.760
25.4739 2.865
25.5042 2.344
25.5344 3.021
25.5647 2.031
25.5950 2.604
25.6253 2.292
25.6555 2.292
25.6858 2.083
25.7161 2.604
25.7464 2.292
25.7767 3.229
25.8069 3.229
25.8372 2.292
25.8675 2.396
25.8978 3.281
25.9281 2.656
25.9583 2.760
25.9886 2.969
26.0189 3.646
26.0492 2.552
26.0794 2.708
26.1097 2.760
26.1400 2.083
26.1703 2.448
26.2006 2.969
26.2308 2.292
26.2611 3.229
26.2914 2.083
26.3217 2.865
26.3520 2.708
26.3822 3.177
26.4125 1.615
26.4428 2.812
26.4731 2.240
26.5034 2.708
26.5336 3.437
26.5639 2.760
26.5942 2.760
26.6245 2.552
26.6547 2.448
26.6850 3.125
26.7153 2.917
26.7456 2.083
26.7759 2.865
26.8061 2.552
26.8364 2.500
26.8667 2.812
26.8970 3.125
26.9273 2.448
26.9575 2.396
26.9878 3.594
27.0181 3.437
27.0484 2.656
27.0786 3.385
27.1089 2.969
27.1392 2.812
27.1695 3.125
27.1998 2.708
27.2300 2.448
27.2603 3.125
27.2906 3.021
27.3209 2.917
27.3512 2.552
27.3814 2.448
27.4117 3.021
27.4420 2.396
27.4723 3.646
27.5025 3.229
27.5328 2.865
27.5631 2.760
27.5934 3.802
27.6237 2.865
27.6539 2.865
27.6842 2.708
27.7145 2.917
27.7448 2.760
27.7751 3.125
27.8053 2.344
27.8356 3.437
27.8659 3.594
27.8962 2.552
27.9264 3.281
27.9567 2.760
27.9870 2.708
28.0173 3.437
28.0476 2.344
28.0778 4.010
28.1081 3.281
28.1384 2.865
28.1687 2.865
28.1990 3.333
28.2292 2.760
28.2595 3.646
28.2898 2.396
28.3201 2.812
28.3503 3.021
28.3806 3.021
28.4109 3.281
28.4412 4.167
28.4715 3.437
28.5017 3.021
28.5320 3.385
28.5623 3.437
28.5926 3.698
28.6229 3.333
28.6531 3.021
28.6834 2.656
28.7137 2.865
28.7440 2.344
28.7742 3.802
28.8045 3.490
28.8348 3.542
28.8651 3.437
28.8954 3.385
28.9256 2.604
28.9559 4.375
28.9862 3.073
29.0165 2.917
29.0468 2.969
29.0770 3.958
29.1073 3.542
29.1376 3.490
29.1679 3.594
29.1981 3.385
29.2284 3.073
29.2587 3.750
29.2890 3.125
29.3193 3.021
29.3495 2.917
29.3798 3.385
29.4101 3.385
29.4404 3.594
29.4707 4.167
29.5009 4.115
29.5312 3.594
29.5615 4.375
29.5918 3.177
29.6221 3.854
29.6523 4.271
29.6826 4.844
29.7129 2.760
29.7432 3.854
29.7734 3.490
29.8037 3.542
29.8340 4.479
29.8643 3.906
29.8946 3.750
29.9248 3.854
29.9551 4.531
29.9854 4.375
30.0157 3.906
30.0460 3.646
30.0762 3.906
30.1065 4.531
30.1368 3.802
30.1671 4.479
30.1973 4.010
30.2276 4.635
30.2579 5.000
30.2882 2.865
30.3185 4.583
30.3487 5.260
30.3790 5.000
30.4093 4.740
30.4396 4.687
30.4699 5.104
30.5001 5.156
30.5304 5.833
30.5607 5.729
30.5910 5.104
30.6212 5.000
30.6515 5.260
30.6818 4.635
30.7121 5.573
30.7424 6.146
30.7726 5.729
30.8029 6.771
30.8332 6.458
30.8635 7.344
30.8938 7.344
30.9240 6.458
30.9543 8.021
30.9846 8.073
31.0149 8.542
31.0451 8.698
31.0754 10.156
31.1057 12.031
31.1360 10.573
31.1663 12.708
31.1965 12.604
31.2268 14.635
31.2571 15.781
31.2874 15.729
31.3177 17.812
31.3479 18.594
31.3782 23.385
31.4085 24.479
31.4388 28.385
31.4690 32.135
31.4993 37.448
31.5296 38.646
31.5599 45.677
31.5902 49.896
31.6204 50.573
31.6507 48.021
31.6810 51.250
31.7113 48.646
31.7416 44.896
31.7718 39.896
31.8021 35.990
31.8324 30.885
31.8627 27.448
31.8929 23.698
31.9232 21.562
31.9535 19.167
31.9838 17.917
32.0141 15.104
32.0443 14.792
32.0746 12.448
32.1049 11.875
32.1352 10.885
32.1655 10.990
32.1957 9.010
32.2260 8.646
32.2563 9.115
32.2866 8.958
32.3169 8.073
32.3471 7.812
32.3774 7.917
32.4077 7.812
32.4380 7.760
32.4682 5.990
32.4985 6.979
32.5288 7.031
32.5591 6.667
32.5894 7.344
32.6196 5.937
32.6499 6.302
32.6802 5.365
32.7105 5.625
32.7408 4.531
32.7710 5.625
32.8013 6.875
32.8316 5.365
32.8619 5.729
32.8921 4.844
32.9224 5.729
32.9527 6.615
32.9830 5.365
33.0133 5.469
33.0435 5.625
33.0738 4.271
33.1041 5.417
33.1344 5.156
33.1647 5.469
33.1949 6.771
33.2252 5.625
33.2555 4.792
33.2858 6.615
33.3160 5.833
33.3463 5.990
33.3766 5.573
33.4069 6.302
33.4372 5.573
33.4674 5.104
33.4977 5.677
33.5280 5.417
33.5583 6.042
33.5886 6.562
33.6188 6.302
33.6491 5.781
33.6794 5.937
33.7097 7.344
33.7399 6.927
33.7702 8.021
33.8005 6.979
33.8308 8.906
33.8611 9.687
33.8913 10.104
33.9216 10.781
33.9519 10.625
33.9822 10.417
34.0125 13.854
34.0427 15.260
34.0730 16.719
34.1033 20.156
34.1336 22.812
34.1638 28.073
34.1941 36.354
34.2244 45.937
34.2547 55.937
34.2850 67.396
34.3152 65.885
34.3455 59.792
34.3758 55.885
34.4061 43.594
34.4364 35.781
34.4666 26.094
34.4969 23.021
34.5272 18.490
34.5575 17.240
34.5877 15.677
34.6180 14.323
34.6483 11.927
34.6786 10.417
34.7089 9.479
34.7391 10.365
34.7694 9.219
34.7997 8.594
34.8300 8.750
34.8603 7.604
34.8905 7.865
34.9208 8.229
34.9511 7.917
34.9814 7.604
35.0116 7.865
35.0419 7.240
35.0722 7.865
35.1025 7.187
35.1328 7.396
35.1630 7.604
35.1933 7.604
35.2236 8.490
35.2539 9.479
35.2842 8.333
35.3144 9.687
35.3447 8.958
35.3750 8.750
35.4053 11.198
35.4356 9.479
35.4658 10.885
35.4961 11.302
35.5264 11.562
35.5567 12.604
35.5869 14.062
35.6172 12.917
35.6475 16.771
35.6778 16.615
35.7081 18.073
35.7383 20.417
35.7686 20.573
35.7989 24.167
35.8292 26.094
35.8595 27.812
35.8897 33.125
35.9200 37.396
35.9503 44.115
35.9806 48.958
36.0108 51.562
36.0411 60.573
36.0714 65.833
36.1017 69.531
36.1320 72.292
36.1622 68.333
36.1925 71.823
36.2228 64.896
36.2531 59.375
36.2834 54.219
36.3136 46.979
36.3439 39.583
36.3742 37.083
36.4045 30.521
36.4347 28.437
36.4650 23.594
36.4953 20.677
36.5256 17.292
36.5559 18.854
36.5861 14.687
36.6164 14.115
36.6467 13.958
36.6770 11.927
36.7073 10.990
36.7375 10.729
36.7678 9.687
36.7981 8.802
36.8284 8.906
36.8586 8.594
36.8889 7.552
36.9192 7.552
36.9495 7.031
36.9798 6.302
37.0100 6.771
37.0403 6.979
37.0706 6.198
37.1009 6.302
37.1312 5.104
37.1614 5.312
37.1917 4.792
37.2220 5.521
37.2523 5.781
37.2825 4.583
37.3128 5.000
37.3431 4.115
37.3734 4.896
37.4037 5.104
37.4339 5.521
37.4642 4.010
37.4945 4.271
37.5248 4.219
37.5551 4.896
37.5853 4.167
37.6156 4.219
37.6459 3.333
37.6762 4.115
37.7064 4.062
37.7367 4.375
37.7670 3.698
37.7973 3.281
37.8276 3.646
37.8578 2.969
37.8881 3.906
37.9184 3.281
37.9487 3.333
37.9790 3.333
38.0092 2.708
38.0395 3.333
38.0698 3.021
38.1001 4.427
38.1304 2.552
38.1606 3.490
38.1909 3.333
38.2212 3.281
38.2515 3.281
38.2817 3.750
38.3120 3.125
38.3423 2.969
38.3726 3.125
38.4029 3.177
38.4331 3.125
38.4634 3.229
38.4937 3.646
38.5240 3.281
38.5543 3.125
38.5845 2.969
38.6148 3.021
38.6451 2.656
38.6754 1.875
38.7056 2.240
38.7359 2.969
38.7662 2.448
38.7965 2.812
38.8268 3.177
38.8570 2.448
38.8873 2.760
38.9176 2.448
38.9479 2.917
38.9782 2.292
39.0084 2.865
39.0387 3.177
39.0690 2.344
39.0993 2.292
39.1295 2.396
39.1598 2.760
39.1901 2.240
39.2204 2.604
39.2507 3.021
39.2809 2.656
39.3112 2.135
39.3415 2.500
39.3718 3.177
39.4021 2.969
39.4323 2.500
39.4626 1.667
39.4929 3.125
39.5232 2.448
39.5534 2.708
39.5837 2.187
39.6140 2.656
39.6443 2.552
39.6746 2.500
39.7048 3.073
39.7351 2.292
39.7654 2.344
39.7957 2.083
39.8260 2.031
39.8562 2.604
39.8865 2.396
39.9168 1.823
39.9471 2.708
39.9773 2.604
40.0076 2.708
40.0379 2.344
40.0682 2.604
40.0985 1.615
40.1287 2.448
40.1590 2.187
40.1893 2.344
40.2196 2.187
40.2499 2.083
40.2801 2.708
40.3104 2.187
40.3407 2.812
40.3710 2.135
40.4012 2.396
40.4315 1.771
40.4618 1.979
40.4921 1.979
40.5224 2.604
40.5526 2.187
40.5829 2.344
40.6132 2.031
40.6435 1.927
40.6738 2.240
40.7040 1.979
40.7343 2.083
40.7646 1.615
40.7949 1.146
40.8251 2.812
40.8554 2.448
40.8857 2.292
40.9160 2.031
40.9463 2.865
40.9765 2.135
41.0068 2.083
41.0371 1.510
41.0674 2.344
41.0977 2.344
41.1279 2.604
41.1582 2.344
41.1885 2.500
41.2188 1.562
41.2491 2.135
41.2793 1.927
41.3096 2.240
41.3399 2.187
41.3702 2.292
41.4004 2.031
41.4307 2.240
41.4610 1.823
41.4913 2.187
41.5216 2.604
41.5518 1.667
41.5821 2.396
41.6124 2.031
41.6427 2.344
41.6730 2.344
41.7032 2.187
41.7335 2.240
41.7638 1.823
41.7941 2.344
41.8243 2.083
41.8546 2.031
41.8849 1.927
41.9152 2.656
41.9455 1.875
41.9757 2.396
42.0060 1.875
42.0363 1.979
42.0666 2.292
42.0969 2.500
42.1271 2.135
42.1574 2.031
42.1877 1.719
42.2180 1.615
42.2482 2.083
42.2785 1.927
42.3088 1.042
42.3391 2.187
42.3694 1.927
42.3996 2.031
42.4299 2.604
42.4602 1.719
42.4905 2.344
42.5208 2.344
42.5510 1.979
42.5813 1.771
42.6116 1.667
42.6419 1.927
42.6721 1.979
42.7024 2.396
42.7327 1.719
42.7630 2.031
42.7933 2.396
42.8235 2.187
42.8538 1.719
42.8841 1.927
42.9144 2.396
42.9447 2.344
42.9749 2.396
43.0052 2.240
43.0355 2.240
43.0658 1.771
43.0960 1.979
43.1263 1.719
43.1566 1.979
43.1869 2.083
43.2172 1.771
43.2474 1.771
43.2777 1.927
43.3080 1.719
43.3383 2.135
43.3686 1.875
43.3988 3.073
43.4291 1.875
43.4594 1.719
43.4897 1.719
43.5199 1.823
43.5502 1.927
43.5805 2.240
43.6108 2.240
43.6411 2.135
43.6713 2.135
43.7016 2.083
43.7319 1.562
43.7622 2.448
43.7925 1.719
43.8227 1.615
43.8530 1.823
43.8833 1.615
43.9136 1.823
43.9439 1.875
43.9741 1.823
44.0044 1.771
44.0347 1.875
44.0650 2.135
44.0952 1.562
44.1255 1.875
44.1558 1.979
44.1861 1.562
44.2164 1.771
44.2466 1.823
44.2769 1.354
44.3072 2.448
44.3375 2.187
44.3678 1.927
44.3980 1.927
44.4283 1.823
44.4586 2.031
44.4889 1.771
44.5191 2.031
44.5494 2.604
44.5797 2.240
44.6100 1.719
44.6403 1.823
44.6705 1.615
44.7008 1.979
44.7311 1.979
44.7614 1.875
44.7917 1.927
44.8219 1.562
44.8522 1.979
44.8825 2.812
44.9128 2.031
44.9430 2.240
44.9733 1.667
45.0036 2.552
45.0339 2.031
45.0642 1.979
45.0944 1.823
45.1247 2.448
45.1550 2.292
45.1853 2.396
45.2156 2.187
45.2458 2.083
45.2761 1.510
45.3064 1.823
45.3367 1.562
45.3669 2.187
45.3972 2.656
45.4275 2.656
45.4578 2.187
45.4881 1.615
45.5183 2.500
45.5486 1.927
45.5789 2.083
45.6092 2.396
45.6395 2.187
45.6697 2.396
45.7000 2.396
45.7303 2.344
45.7606 2.344
45.7908 2.656
45.8211 2.604
45.8514 2.292
45.8817 2.552
45.9120 2.292
45.9422 2.135
45.9725 2.448
46.0028 2.448
46.0331 1.562
46.0634 2.344
46.0936 2.500
46.1239 2.917
46.1542 2.031
46.1845 2.604
46.2147 3.125
46.2450 2.135
46.2753 2.448
46.3056 3.229
46.3359 2.604
46.3661 2.552
46.3964 3.385
46.4267 3.594
46.4570 2.031
46.4873 3.594
46.5175 3.073
46.5478 3.333
46.5781 2.812
46.6084 3.229
46.6386 3.333
46.6689 3.281
46.6992 2.917
46.7295 3.646
46.7598 2.917
46.7900 3.281
46.8203 3.854
46.8506 3.698
46.8809 3.802
46.9112 4.635
46.9414 4.740
46.9717 4.583
47.0020 5.573
47.0323 5.052
47.0626 5.000
47.0928 5.990
47.1231 6.823
47.1534 7.135
47.1837 8.802
47.2139 9.844
47.2442 9.635
47.2745 10.833
47.3048 12.708
47.3351 14.740
47.3653 13.594
47.3956 17.760
47.4259 16.250
47.4562 16.823
47.4865 14.427
47.5167 13.802
47.5470 12.656
47.5773 11.719
47.6076 12.031
47.6378 11.198
47.6681 7.865
47.6984 8.125
47.7287 6.510
47.7590 5.781
47.7892 5.937
47.8195 5.677
47.8498 5.312
47.8801 5.208
47.9104 3.750
47.9406 4.219
47.9709 4.062
48.0012 3.021
48.0315 4.010
48.0617 4.271
48.0920 3.750
48.1223 3.385
48.1526 3.281
48.1829 3.229
48.2131 3.802
48.2434 2.812
48.2737 1.979
48.3040 2.552
48.3343 2.292
48.3645 2.135
48.3948 3.229
48.4251 2.917
48.4554 2.187
48.4856 2.396
48.5159 2.292
48.5462 2.500
48.5765 2.969
48.6068 2.812
48.6370 2.396
48.6673 2.448
48.6976 2.240
48.7279 2.344
48.7582 2.187
48.7884 1.979
48.8187 2.760
48.8490 2.240
48.8793 1.875
48.9095 2.500
48.9398 1.927
48.9701 1.719
49.0004 2.292
49.0307 1.875
49.0609 1.771
49.0912 3.021
49.1215 1.979
49.1518 2.292
49.1821 2.135
49.2123 3.177
49.2426 2.135
49.2729 2.292
49.3032 1.719
49.3334 3.073
49.3637 1.875
49.3940 1.771
49.4243 2.552
49.4546 2.187
49.4848 1.250
49.5151 1.979
49.5454 2.187
49.5757 2.396
49.6060 2.135
49.6362 2.187
49.6665 2.292
49.6968 1.562
49.7271 2.135
49.7574 1.510
49.7876 1.146
49.8179 2.187
49.8482 1.562
49.8785 2.135
49.9087 1.927
49.9390 1.823
49.9693 2.292
49.9996 2.552
50.0299 2.135
50.0601 2.135
50.0904 2.083
50.1207 1.771
50.1510 1.719
50.1813 2.500
50.2115 2.083
50.2418 1.667
50.2721 2.031
50.3024 1.771
50.3326 1.927
50.3629 1.979
50.3932 2.240
50.4235 1.771
50.4538 2.396
50.4840 2.292
50.5143 1.771
50.5446 1.667
50.5749 1.823
50.6052 2.552
50.6354 2.500
50.6657 2.344
50.6960 1.719
50.7263 2.344
50.7565 1.562
50.7868 1.979
50.8171 2.656
50.8474 1.562
50.8777 1.927
50.9079 2.083
50.9382 1.979
50.9685 2.240
50.9988 1.823
51.0291 1.667
51.0593 2.604
51.0896 1.875
51.1199 1.771
51.1502 1.198
51.1804 1.667
51.2107 1.458
51.2410 1.302
51.2713 2.031
51.3016 1.927
51.3318 2.135
51.3621 2.240
51.3924 2.083
51.4227 1.823
51.4530 1.615
51.4832 1.875
51.5135 2.083
51.5438 2.031
51.5741 1.771
51.6043 1.927
51.6346 1.771
51.6649 2.135
51.6952 1.979
51.7255 1.719
51.7557 1.562
51.7860 1.979
51.8163 1.406
51.8466 1.927
51.8769 2.187
51.9071 1.562
51.9374 2.187
51.9677 2.031
51.9980 1.771
52.0282 1.927
52.0585 1.458
52.0888 1.875
52.1191 1.719
52.1494 1.615
52.1796 2.604
52.2099 2.708
52.2402 2.083
52.2705 2.240
52.3008 1.458
52.3310 1.823
52.3613 1.875
52.3916 1.667
52.4219 1.875
52.4521 1.615
52.4824 1.719
52.5127 1.927
52.5430 2.292
52.5733 1.615
52.6035 1.771
52.6338 1.927
52.6641 1.875
52.6944 1.667
52.7247 1.615
52.7549 1.875
52.7852 1.667
52.8155 1.875
52.8458 1.875
52.8761 1.875
52.9063 2.187
52.9366 1.667
52.9669 2.187
52.9972 1.875
53.0274 2.135
53.0577 1.823
53.0880 2.240
53.1183 1.875
53.1486 1.771
53.1788 1.875
53.2091 1.875
53.2394 1.667
53.2697 1.823
53.3000 2.135
53.3302 1.146
53.3605 2.500
53.3908 1.771
53.4211 2.135
53.4513 1.823
53.4816 1.823
53.5119 1.458
53.5422 2.187
53.5725 2.448
53.6027 1.562
53.6330 1.719
53.6633 2.135
53.6936 1.771
53.7239 2.344
53.7541 2.656
53.7844 2.344
53.8147 2.292
53.8450 2.604
53.8752 2.083
53.9055 1.510
53.9358 2.812
53.9661 2.083
53.9964 1.927
54.0266 1.823
54.0569 1.823
54.0872 2.031
54.1175 2.083
54.1478 2.031
54.1780 1.719
54.2083 2.031
54.2386 2.187
54.2689 1.771
54.2991 2.292
54.3294 2.500
54.3597 1.979
54.3900 1.823
54.4203 2.031
54.4505 2.396
54.4808 1.927
54.5111 3.125
54.5414 2.187
54.5717 2.240
54.6019 1.979
54.6322 1.719
54.6625 2.135
54.6928 2.292
54.7230 1.979
54.7533 1.771
54.7836 2.552
54.8139 2.448
54.8442 2.031
54.8744 2.396
54.9047 1.979
54.9350 2.396
54.9653 2.187
54.9956 2.135
55.0258 2.187
55.0561 2.240
55.0864 2.292
55.1167 1.615
55.1469 2.031
55.1772 2.187
55.2075 2.240
55.2378 2.344
55.2681 2.344
55.2983 2.552
55.3286 2.448
55.3589 2.812
55.3892 3.073
55.4195 2.760
55.4497 2.500
55.4800 2.396
55.5103 2.656
55.5406 3.073
55.5709 3.021
55.6011 3.177
55.6314 2.500
55.6617 3.073
55.6920 3.281
55.7222 3.698
55.7525 2.708
55.7828 3.958
55.8131 4.010
55.8434 4.010
55.8736 5.000
55.9039 5.469
55.9342 4.844
55.9645 6.302
55.9948 6.198
56.0250 5.833
56.0553 6.875
56.0856 6.719
56.1159 7.292
56.1461 8.333
56.1764 8.906
56.2067 10.208
56.2370 10.156
56.2673 11.615
56.2975 10.885
56.3278 14.896
56.3581 15.208
56.3884 18.021
56.4187 16.979
56.4489 20.937
56.4792 18.177
56.5095 19.167
56.5398 18.542
56.5700 16.719
56.6003 16.719
56.6306 17.448
56.6609 14.687
56.6912 12.187
56.7214 10.885
56.7517 10.208
56.7820 8.854
56.8123 10.156
56.8426 7.604
56.8728 6.927
56.9031 7.812
56.9334 7.031
56.9637 5.625
56.9939 5.573
57.0242 4.896
57.0545 4.687
57.0848 4.375
57.1151 3.750
57.1453 3.906
57.1756 4.740
57.2059 4.219
57.2362 3.281
57.2665 3.594
57.2967 3.594
57.3270 2.656
57.3573 2.812
57.3876 3.385
57.4178 3.802
57.4481 2.917
57.4784 2.396
57.5087 2.656
57.5390 2.604
57.5692 3.542
57.5995 1.771
57.6298 2.240
57.6601 2.604
57.6904 2.812
57.7206 2.396
57.7509 2.240
57.7812 2.344
57.8115 2.604
57.8417 1.927
57.8720 2.396
57.9023 2.187
57.9326 2.083
57.9629 2.969
57.9931 2.083
58.0234 2.500
58.0537 1.875
58.0840 2.344
58.1143 2.604
58.1445 2.292
58.1748 2.500
58.2051 2.031
58.2354 2.292
58.2656 2.083
58.2959 1.562
58.3262 1.979
58.3565 2.187
58.3868 1.927
58.4170 1.927
58.4473 1.927
58.4776 1.823
58.5079 2.031
58.5382 1.927
58.5684 2.448
58.5987 2.187
58.6290 2.292
58.6593 2.187
58.6896 2.031
58.7198 1.823
58.7501 2.083
58.7804 1.510
58.8107 2.031
58.8409 2.448
58.8712 1.510
58.9015 2.448
58.9318 2.083
58.9621 2.656
58.9923 2.187
59.0226 1.719
59.0529 2.135
59.0832 1.875
59.1135 1.719
59.1437 2.187
59.1740 2.448
59.2043 1.562
59.2346 1.927
59.2648 2.500
59.2951 2.083
59.3254 1.562
59.3557 2.708
59.3860 1.927
59.4162 2.552
59.4465 1.510
59.4768 1.719
59.5071 2.031
59.5374 2.031
59.5676 1.979
59.5979 2.187
59.6282 2.031
59.6585 2.031
59.6887 2.135
59.7190 2.187
59.7493 2.240
59.7796 1.979
59.8099 1.823
59.8401 1.562
59.8704 2.083
59.9007 1.927
59.9310 1.771
59.9613 2.187
59.9915 2.240
60.0218 2.500
60.0521 2.604
60.0824 2.135
60.1126 2.135
60.1429 2.760
60.1732 2.500
60.2035 1.875
60.2338 1.406
60.2640 2.396
60.2943 2.656
60.3246 1.667
60.3549 2.344
60.3852 1.510
60.4154 1.979
60.4457 2.135
60.4760 2.292
60.5063 2.083
60.5365 2.448
60.5668 2.135
60.5971 2.240
60.6274 1.823
60.6577 2.240
60.6879 1.771
60.7182 1.510
60.7485 2.083
60.7788 2.292
60.8091 1.927
60.8393 2.083
60.8696 2.083
60.8999 2.083
60.9302 2.031
60.9604 2.604
60.9907 2.187
61.0210 2.604
61.0513 2.448
61.0816 2.083
61.1118 2.083
61.1421 2.604
61.1724 2.396
61.2027 1.927
61.2330 1.875
61.2632 2.448
61.2935 2.031
61.3238 2.240
61.3541 1.615
61.3844 2.031
61.4146 2.135
61.4449 2.031
61.4752 3.073
61.5055 2.708
61.5357 2.396
61.5660 2.656
61.5963 2.604
61.6266 2.552
61.6569 2.969
61.6871 2.604
61.7174 2.031
61.7477 2.812
61.7780 2.604
61.8083 2.448
61.8385 2.500
61.8688 3.229
61.8991 2.917
61.9294 2.344
61.9596 2.708
61.9899 3.281
62.0202 3.542
62.0505 2.656
62.0808 4.219
62.1110 3.177
62.1413 3.854
62.1716 4.219
62.2019 4.687
62.2322 4.427
62.2624 4.010
62.2927 4.948
62.3230 6.146
62.3533 6.458
62.3835 6.406
62.4138 7.344
62.4441 7.292
62.4744 8.229
62.5047 8.906
62.5349 11.042
62.5652 10.260
62.5955 13.073
62.6258 13.802
62.6561 15.365
62.6863 15.937
62.7166 16.615
62.7469 15.573
62.7772 16.250
62.8074 14.948
62.8377 16.094
62.8680 14.375
62.8983 13.385
62.9286 14.062
62.9588 13.177
62.9891 10.417
63.0194 9.896
63.0497 8.229
63.0800 9.115
63.1102 7.031
63.1405 7.500
63.1708 6.354
63.2011 6.823
63.2313 4.792
63.2616 4.687
63.2919 4.375
63.3222 3.958
63.3525 4.115
63.3827 3.646
63.4130 3.333
63.4433 4.115
63.4736 3.594
63.5039 3.385
63.5341 3.073
63.5644 3.333
63.5947 3.125
63.6250 2.969
63.6552 3.177
63.6855 3.073
63.7158 2.708
63.7461 2.917
63.7764 2.760
63.8066 2.812
63.8369 2.448
63.8672 2.500
63.8975 1.719
63.9278 2.552
63.9580 2.656
63.9883 2.604
64.0186 2.500
64.0489 2.031
64.0791 2.552
64.1094 1.979
64.1397 1.562
64.1700 2.500
64.2003 2.083
64.2305 2.344
64.2608 1.927
64.2911 2.344
64.3214 2.344
64.3517 2.292
64.3819 1.979
64.4122 1.354
64.4425 2.240
64.4728 2.240
64.5031 2.760
64.5333 2.396
64.5636 2.812
64.5939 2.083
64.6242 2.500
64.6544 2.500
64.6847 2.240
64.7150 1.979
64.7453 1.458
64.7756 1.927
64.8058 2.187
64.8361 1.823
64.8664 2.292
64.8967 2.396
64.9270 2.500
64.9572 2.552
64.9875 2.448
65.0178 2.187
65.0481 2.031
65.0783 2.812
65.1086 2.604
65.1389 2.187
65.1692 2.031
65.1995 1.927
65.2297 2.083
65.2600 1.719
65.2903 1.458
65.3206 2.187
65.3509 2.344
65.3811 2.292
65.4114 2.500
65.4417 2.187
65.4720 2.448
65.5022 2.552
65.5325 2.396
65.5628 2.448
65.5931 2.135
65.6234 2.344
65.6536 2.969
65.6839 2.135
65.7142 2.396
65.7445 2.708
65.7748 1.979
65.8050 2.552
65.8353 2.708
65.8656 3.333
65.8959 2.656
65.9261 2.448
65.9564 2.135
65.9867 3.958
66.0170 3.125
66.0473 3.594
66.0775 3.229
66.1078 3.802
66.1381 4.010
66.1684 4.323
66.1987 3.490
66.2289 4.010
66.2592 3.958
66.2895 4.375
66.3198 3.646
66.3500 3.854
66.3803 3.385
66.4106 3.802
66.4409 3.542
66.4712 3.594
66.5014 3.437
66.5317 3.958
66.5620 3.125
66.5923 3.698
66.6226 3.490
66.6528 2.604
66.6831 3.698
66.7134 2.552
66.7437 2.552
66.7739 2.865
66.8042 2.760
66.8345 3.333
66.8648 2.396
66.8951 2.448
66.9253 2.812
66.9556 3.281
66.9859 3.125
67.0162 3.750
67.0465 3.073
67.0767 3.958
67.1070 3.958
67.1373 3.281
67.1676 3.229
67.1978 3.646
67.2281 3.958
67.2584 3.594
67.2887 4.062
67.3190 4.167
67.3492 5.104
67.3795 4.740
67.4098 4.896
67.4401 5.000
67.4704 5.729
67.5006 5.573
67.5309 5.885
67.5612 6.875
67.5915 7.292
67.6218 7.500
67.6520 10.208
67.6823 8.906
67.7126 10.104
67.7429 10.000
67.7731 11.250
67.8034 12.969
67.8337 12.292
67.8640 11.667
67.8943 11.979
67.9245 11.406
67.9548 12.500
67.9851 11.042
68.0154 9.792
68.0457 8.854
68.0759 8.073
68.1062 8.333
68.1365 7.552
68.1668 7.135
68.1970 6.250
68.2273 6.146
68.2576 6.042
68.2879 5.104
68.3182 4.948
68.3484 5.937
68.3787 4.687
68.4090 4.167
68.4393 4.010
68.4696 5.469
68.4998 4.479
68.5301 4.687
68.5604 4.010
68.5907 3.698
68.6209 4.427
68.6512 3.958
68.6815 4.687
68.7118 5.417
68.7421 5.365
68.7723 5.677
68.8026 6.406
68.8329 5.677
68.8632 5.365
68.8935 5.521
68.9237 6.302
68.9540 7.552
68.9843 6.667
69.0146 6.354
69.0448 7.604
69.0751 5.781
69.1054 6.094
69.1357 6.823
69.1660 5.781
69.1962 4.740
69.2265 4.479
69.2568 4.635
69.2871 4.375
69.3174 4.479
69.3476 3.906
69.3779 3.333
69.4082 2.917
69.4385 3.854
69.4687 3.698
69.4990 2.969
69.5293 2.708
69.5596 3.021
69.5899 3.177
69.6201 2.760
69.6504 2.448
69.6807 2.708
69.7110 2.500
69.7413 2.448
69.7715 2.292
69.8018 2.031
69.8321 1.771
69.8624 2.240
69.8926 1.979
69.9229 1.562
69.9532 2.708
69.9835 1.771
70.0138 2.135
70.0440 2.240
70.0743 1.979
70.1046 2.083
70.1349 1.302
70.1652 2.031
70.1954 1.667
70.2257 1.823
70.2560 1.510
70.2863 1.823
70.3166 1.198
70.3468 1.927
70.3771 1.615
70.4074 2.083
70.4377 2.083
70.4679 1.250
70.4982 1.406
70.5285 1.354
70.5588 2.292
70.5891 1.771
70.6193 1.042
70.6496 1.146
70.6799 1.875
70.7102 1.458
70.7405 1.615
70.7707 1.667
70.8010 1.823
70.8313 1.250
70.8616 1.823
70.8918 1.146
70.9221 1.823
70.9524 1.719
70.9827 1.146
71.0130 1.667
71.0432 1.250
71.0735 1.823
71.1038 2.083
71.1341 1.302
71.1644 1.302
71.1946 1.979
71.2249 1.562
71.2552 1.771
71.2855 1.562
71.3157 1.719
71.3460 1.667
71.3763 1.406
71.4066 1.354
71.4369 1.510
71.4671 1.458
71.4974 1.927
71.5277 1.719
71.5580 1.771
71.5883 1.354
71.6185 1.719
71.6488 1.719
71.6791 2.083
71.7094 1.198
71.7396 1.823
71.7699 1.667
71.8002 1.823
71.8305 1.250
71.8608 1.615
71.8910 1.667
71.9213 2.187
71.9516 2.500
71.9819 1.354
72.0122 1.354
72.0424 1.927
72.0727 2.448
72.1030 1.771
72.1333 1.667
72.1635 1.771
72.1938 1.875
72.2241 1.875
72.2544 2.448
72.2847 2.031
72.3149 2.344
72.3452 1.667
72.3755 2.448
72.4058 2.083
72.4361 2.344
72.4663 2.292
72.4966 2.604
72.5269 2.292
72.5572 2.187
72.5874 2.292
72.6177 2.240
72.6480 2.292
72.6783 2.031
72.7086 2.656
72.7388 2.187
72.7691 1.719
72.7994 1.927
72.8297 2.031
72.8600 1.562
72.8902 1.979
72.9205 1.302
72.9508 1.510
72.9811 1.615
73.0113 1.823
73.0416 1.146
73.0719 1.094
73.1022 1.719
73.1325 1.406
73.1627 1.719
73.1930 1.146
73.2233 1.302
73.2536 1.250
73.2839 1.719
73.3141 1.406
73.3444 1.354
73.3747 1.615
73.4050 1.615
73.4353 1.042
73.4655 1.875
73.4958 1.302
73.5261 1.510
73.5564 1.406
73.5866 1.146
73.6169 1.615
73.6472 1.719
73.6775 1.198
73.7078 1.250
73.7380 1.250
73.7683 1.406
73.7986 1.250
73.8289 1.458
73.8592 0.990
73.8894 1.250
73.9197 1.042
73.9500 1.198
73.9803 1.562
74.0105 1.302
74.0408 1.198
74.0711 1.510
74.1014 1.094
74.1317 1.406
74.1619 1.615
74.1922 1.771
74.2225 1.354
74.2528 1.198
74.2831 1.302
74.3133 1.406
74.3436 1.406
74.3739 1.406
74.4042 1.250
74.4344 2.031
74.4647 1.406
74.4950 1.042
74.5253 1.562
74.5556 1.458
74.5858 1.042
74.6161 1.927
74.6464 1.562
74.6767 1.354
74.7070 1.146
74.7372 1.146
74.7675 1.094
74.7978 0.937
74.8281 2.083
74.8583 1.302
74.8886 1.354
74.9189 1.250
74.9492 1.719
74.9795 1.667
75.0097 1.458
75.0400 1.302
75.0703 1.198
75.1006 1.719
75.1309 1.615
75.1611 1.198
75.1914 1.198
75.2217 1.354
75.2520 1.198
75.2822 1.302
75.3125 1.719
75.3428 2.240
75.3731 1.406
75.4034 1.510
75.4336 1.094
75.4639 1.250
75.4942 1.198
75.5245 1.615
75.5548 1.615
75.5850 1.302
75.6153 1.406
75.6456 1.198
75.6759 0.990
75.7061 1.146
75.7364 1.302
75.7667 1.458
75.7970 1.302
75.8273 1.667
75.8575 1.302
75.8878 1.354
75.9181 1.354
75.9484 1.510
75.9787 1.510
76.0089 1.615
76.0392 1.510
76.0695 1.615
76.0998 1.562
76.1301 1.458
76.1603 1.510
76.1906 1.406
76.2209 1.146
76.2512 1.510
76.2814 1.875
76.3117 1.667
76.3420 1.458
76.3723 1.302
76.4026 2.187
76.4328 1.823
76.4631 1.146
76.4934 1.719
76.5237 1.719
76.5540 1.719
76.5842 2.031
76.6145 2.552
76.6448 2.083
76.6751 2.448
76.7053 2.135
76.7356 2.240
76.7659 2.448
76.7962 2.552
76.8265 2.448
76.8567 2.344
76.8870 2.865
76.9173 2.187
76.9476 2.448
76.9779 2.396
77.0081 1.927
77.0384 2.135
77.0687 2.344
77.0990 2.500
77.1292 1.979
77.1595 2.344
77.1898 2.448
77.2201 1.875
77.2504 1.979
77.2806 2.448
77.3109 1.771
77.3412 2.396
77.3715 1.823
77.4018 1.875
77.4320 1.667
77.4623 1.719
77.4926 1.302
77.5229 1.562
77.5531 1.302
77.5834 1.771
77.6137 1.458
77.6440 1.406
77.6743 1.354
77.7045 1.198
77.7348 0.781
77.7651 1.198
77.7954 1.198
77.8257 0.990
77.8559 1.406
77.8862 1.146
77.9165 1.302
77.9468 1.458
77.9770 1.406
78.0073 1.146
78.0376 1.354
78.0679 1.510
78.0982 1.458
78.1284 1.302
78.1587 1.354
78.1890 1.302
78.2193 1.146
78.2496 1.250
78.2798 1.250
78.3101 1.719
78.3404 1.406
78.3707 1.302
78.4009 1.458
78.4312 1.510
78.4615 1.302
78.4918 1.302
78.5221 1.198
78.5523 1.198
78.5826 1.406
78.6129 1.198
78.6432 1.406
78.6735 1.302
78.7037 1.510
78.7340 1.302
78.7643 0.677
78.7946 1.250
78.8248 1.406
78.8551 1.094
78.8854 1.094
78.9157 1.562
78.9460 1.250
78.9762 1.198
79.0065 1.250
79.0368 1.406
79.0671 1.406
79.0974 1.094
79.1276 1.250
79.1579 1.406
79.1882 1.615
79.2185 1.354
79.2488 1.354
79.2790 1.042
79.3093 1.354
79.3396 1.042
79.3699 1.510
79.4001 1.042
79.4304 1.667
79.4607 1.042
79.4910 1.250
79.5213 1.406
79.5515 1.458
79.5818 1.302
79.6121 1.302
79.6424 0.990
79.6727 1.042
79.7029 1.146
79.7332 1.667
79.7635 0.833
79.7938 1.198
79.8240 1.771
79.8543 1.615
79.8846 0.833
79.9149 1.562
79.9452 1.458
79.9754 0.729
80.0057 1.250
80.0360 1.094
80.0663 1.042
80.0966 0.937
80.1268 1.198
80.1571 1.667
80.1874 1.146
80.2177 1.094
80.2479 1.354
80.2782 0.990
80.3085 1.198
80.3388 1.198
80.3691 0.990
80.3993 1.250
80.4296 1.042
80.4599 1.302
80.4902 1.198
80.5205 1.146
80.5507 1.562
80.5810 1.250
80.6113 1.302
80.6416 0.885
80.6718 1.510
80.7021 1.615
80.7324 1.250
80.7627 0.990
80.7930 1.094
80.8232 1.042
80.8535 1.198
80.8838 1.302
80.9141 1.198
80.9444 2.240
80.9746 1.615
81.0049 2.135
81.0352 1.719
81.0655 1.562
81.0957 1.510
81.1260 1.458
81.1563 2.135
81.1866 1.667
81.2169 1.719
81.2471 1.875
81.2774 1.771
81.3077 2.031
81.3380 1.771
81.3683 1.667
81.3985 2.500
81.4288 1.302
81.4591 2.083
81.4894 2.031
81.5196 1.615
81.5499 1.458
81.5802 2.031
81.6105 1.406
81.6408 1.615
81.6710 1.510
81.7013 1.510
81.7316 1.562
81.7619 1.354
81.7922 1.302
81.8224 1.042
81.8527 0.937
81.8830 1.615
81.9133 1.146
81.9436 1.146
81.9738 1.927
82.0041 1.302
82.0344 1.458
82.0647 1.302
82.0949 1.510
82.1252 0.781
82.1555 0.781
82.1858 1.042
82.2161 1.250
82.2463 1.250
82.2766 0.937
82.3069 1.302
82.3372 1.302
82.3675 1.667
82.3977 1.198
82.4280 1.615
82.4583 0.833
82.4886 1.510
82.5188 1.406
82.5491 1.250
82.5794 1.354
82.6097 1.406
82.6400 1.406
82.6702 0.885
82.7005 0.937
82.7308 0.885
82.7611 1.198
82.7914 1.458
82.8216 1.198
82.8519 0.729
82.8822 1.302
82.9125 1.302
82.9427 1.510
82.9730 1.094
83.0033 1.198
83.0336 1.667
83.0639 1.146
83.0941 1.042
83.1244 0.990
83.1547 1.510
83.1850 1.094
83.2153 1.458
83.2455 1.198
83.2758 0.990
83.3061 1.615
83.3364 1.615
83.3666 1.042
83.3969 1.198
83.4272 0.781
83.4575 0.885
83.4878 1.667
83.5180 0.885
83.5483 0.937
83.5786 1.198
83.6089 1.042
83.6392 1.302
83.6694 1.198
83.6997 0.833
83.7300 1.562
83.7603 1.198
83.7905 1.354
83.8208 1.406
83.8511 1.771
83.8814 1.875
83.9117 1.198
83.9419 1.302
83.9722 1.250
84.0025 1.146
84.0328 1.250
84.0631 0.729
84.0933 1.094
84.1236 1.094
84.1539 0.729
84.1842 1.354
84.2144 1.146
84.2447 1.198
84.2750 1.198
84.3053 1.042
84.3356 0.990
84.3658 1.094
84.3961 1.302
84.4264 1.094
84.4567 1.042
84.4870 1.510
84.5172 1.302
84.5475 1.406
84.5778 1.354
84.6081 1.302
84.6383 0.885
84.6686 1.354
84.6989 1.719
84.7292 1.667
84.7595 1.094
84.7897 1.719
84.8200 1.198
84.8503 1.406
84.8806 1.458
84.9109 1.146
84.9411 1.354
84.9714 1.198
85.0017 1.250
85.0320 1.458
85.0623 0.990
85.0925 0.937
85.1228 0.729
85.1531 1.562
85.1834 1.458
85.2136 1.198
85.2439 1.302
85.2742 1.354
85.3045 1.042
85.3348 1.146
85.3650 1.302
85.3953 0.729
85.4256 1.510
85.4559 0.937
85.4862 1.042
85.5164 1.406
85.5467 1.094
85.5770 1.250
85.6073 1.302
85.6375 1.615
85.6678 1.562
85.6981 1.042
85.7284 0.937
85.7587 1.198
85.7889 0.990
85.8192 0.885
85.8495 1.094
85.8798 1.354
85.9101 1.042
85.9403 1.302
85.9706 0.990
86.0009 1.042
86.0312 1.198
86.0614 0.937
86.0917 1.094
86.1220 1.146
86.1523 0.885
86.1826 0.990
86.2128 1.198
86.2431 1.302
86.2734 1.354
86.3037 0.937
86.3340 0.885
86.3642 1.302
86.3945 1.094
86.4248 0.781
86.4551 1.146
86.4853 1.406
86.5156 1.198
86.5459 0.521
86.5762 1.302
86.6065 0.573
86.6367 1.510
86.6670 1.615
86.6973 0.781
86.7276 1.198
86.7579 1.094
86.7881 1.042
86.8184 1.615
86.8487 1.302
86.8790 1.458
86.9092 1.042
86.9395 1.510
86.9698 1.458
87.0001 0.833
87.0304 0.885
87.0606 2.031
87.0909 1.146
87.1212 1.302
87.1515 1.146
87.1818 1.094
87.2120 0.729
87.2423 1.094
87.2726 1.042
87.3029 0.990
87.3331 1.823
87.3634 1.667
87.3937 1.042
87.4240 1.198
87.4543 1.198
87.4845 1.406
87.5148 1.406
87.5451 1.615
87.5754 0.885
87.6057 0.990
87.6359 1.510
87.6662 1.198
87.6965 1.510
87.7268 1.250
87.7571 0.937
87.7873 1.042
87.8176 1.198
87.8479 1.458
87.8782 1.823
87.9084 1.354
87.9387 1.302
87.9690 1.458
87.9993 1.250
88.0296 1.719
88.0598 1.250
88.0901 1.198
88.1204 1.510
88.1507 1.302
88.1810 1.823
88.2112 1.562
88.2415 1.198
88.2718 1.510
88.3021 1.354
88.3323 1.302
88.3626 1.354
88.3929 1.667
88.4232 1.354
88.4535 1.094
88.4837 1.562
88.5140 1.094
88.5443 1.198
88.5746 1.250
88.6049 1.354
88.6351 1.198
88.6654 1.979
88.6957 1.406
88.7260 0.990
88.7562 2.083
88.7865 1.510
88.8168 1.458
88.8471 2.083
88.8774 1.667
88.9076 1.510
88.9379 2.187
88.9682 1.771
88.9985 2.135
89.0288 1.719
89.0590 2.083
89.0893 2.187
89.1196 2.604
89.1499 2.396
89.1801 2.344
89.2104 2.656
89.2407 2.396
89.2710 2.969
89.3013 3.177
89.3315 3.385
89.3618 2.656
89.3921 3.542
89.4224 2.344
89.4527 3.385
89.4829 2.969
89.5132 4.010
89.5435 3.490
89.5738 3.333
89.6040 3.229
89.6343 3.698
89.6646 2.604
89.6949 3.125
89.7252 3.073
89.7554 3.437
89.7857 3.177
89.8160 2.760
89.8463 2.448
89.8766 2.552
89.9068 2.604
89.9371 2.240
89.9674 2.865
89.9977 3.021
90.0279 1.771
90.0582 2.240
90.0885 2.083
90.1188 1.667
90.1491 1.406
90.1793 1.719
90.2096 2.448
90.2399 2.031
90.2702 2.240
90.3005 2.448
90.3307 1.354
90.3610 1.406
90.3913 1.615
90.4216 1.354
90.4518 1.615
90.4821 1.198
90.5124 1.198
90.5427 1.510
90.5730 1.667
90.6032 1.406
90.6335 1.875
90.6638 1.198
90.6941 1.406
90.7244 1.719
90.7546 1.667
90.7849 1.198
90.8152 1.562
90.8455 1.615
90.8758 1.510
90.9060 1.667
90.9363 1.719
90.9666 1.510
90.9969 1.042
91.0271 1.562
91.0574 1.719
91.0877 1.615
91.1180 0.937
91.1483 1.719
91.1785 1.615
91.2088 1.406
91.2391 0.937
91.2694 1.250
91.2997 1.615
91.3299 1.510
91.3602 1.458
91.3905 1.510
91.4208 1.667
91.4510 1.823
91.4813 1.302
91.5116 1.615
91.5419 1.406
91.5722 1.615
91.6024 1.198
91.6327 1.562
91.6630 0.833
91.6933 1.458
91.7236 1.667
91.7538 0.990
91.7841 1.510
91.8144 1.667
91.8447 1.667
91.8749 1.719
91.9052 1.198
91.9355 1.562
91.9658 1.927
91.9961 1.198
92.0263 1.250
92.0566 1.667
92.0869 1.250
92.1172 1.927
92.1475 1.198
92.1777 1.771
92.2080 1.562
92.2383 1.250
92.2686 1.719
92.2988 1.302
92.3291 1.875
92.3594 1.823
92.3897 1.771
92.4200 1.823
92.4502 1.667
92.4805 1.562
92.5108 1.979
92.5411 1.458
92.5714 1.667
92.6016 2.240
92.6319 2.187
92.6622 2.083
92.6925 1.927
92.7227 1.823
92.7530 2.083
92.7833 1.719
92.8136 1.719
92.8439 1.771
92.8741 1.823
92.9044 2.448
92.9347 1.615
92.9650 1.615
92.9953 1.562
93.0255 1.823
93.0558 1.719
93.0861 1.875
93.1164 1.719
93.1466 1.927
93.1769 2.135
93.2072 1.615
93.2375 1.719
93.2678 1.302
93.2980 1.250
93.3283 1.458
93.3586 1.510
93.3889 1.146
93.4192 1.406
93.4494 1.667
93.4797 1.250
93.5100 1.354
93.5403 1.562
93.5706 1.198
93.6008 1.302
93.6311 1.667
93.6614 1.719
93.6917 1.615
93.7219 1.406
93.7522 1.771
93.7825 1.042
93.8128 1.823
93.8431 1.562
93.8733 0.990
93.9036 1.615
93.9339 1.719
93.9642 1.458
93.9945 1.198
94.0247 0.990
94.0550 1.406
94.0853 1.927
94.1156 1.927
94.1458 1.146
94.1761 1.250
94.2064 1.719
94.2367 1.771
94.2670 1.667
94.2972 1.406
94.3275 1.615
94.3578 1.719
94.3881 2.187
94.4184 1.667
94.4486 1.615
94.4789 1.979
94.5092 2.031
94.5395 1.667
94.5697 1.510
94.6000 2.031
94.6303 1.719
94.6606 1.615
94.6909 1.979
94.7211 2.187
94.7514 2.031
94.7817 2.240
94.8120 2.031
94.8423 2.187
94.8725 2.448
94.9028 2.240
94.9331 2.344
94.9634 3.177
94.9936 2.396
95.0239 2.552
95.0542 3.125
95.0845 2.448
95.1148 2.708
95.1450 3.542
95.1753 3.802
95.2056 3.698
95.2359 3.698
95.2662 2.917
95.2964 3.385
95.3267 2.917
95.3570 2.969
95.3873 2.656
95.4175 2.656
95.4478 3.542
95.4781 2.344
95.5084 2.812
95.5387 2.812
95.5689 2.240
95.5992 1.875
95.6295 3.021
95.6598 2.500
95.6901 2.083
95.7203 2.500
95.7506 2.344
95.7809 2.604
95.8112 2.240
95.8414 2.396
95.8717 1.875
95.9020 1.667
95.9323 1.615
95.9626 1.615
95.9928 2.187
96.0231 2.187
96.0534 1.823
96.0837 1.823
96.1140 1.302
96.1442 1.719
96.1745 1.510
96.2048 2.031
96.2351 1.458
96.2653 1.771
96.2956 1.771
96.3259 1.354
96.3562 1.667
96.3865 1.771
96.4167 1.198
96.4470 1.406
96.4773 0.937
96.5076 1.250
96.5379 0.937
96.5681 1.198
96.5984 1.042
96.6287 1.250
96.6590 1.823
96.6893 1.406
96.7195 1.250
96.7498 1.406
96.7801 1.354
96.8104 1.198
96.8406 1.458
96.8709 1.458
96.9012 1.458
96.9315 1.458
96.9618 1.406
96.9920 1.198
97.0223 1.250
97.0526 1.771
97.0829 1.979
97.1132 0.833
97.1434 1.719
97.1737 1.094
97.2040 1.719
97.2343 1.458
97.2645 1.667
97.2948 1.771
97.3251 1.406
97.3554 1.458
97.3857 1.510
97.4159 2.083
97.4462 1.302
97.4765 1.667
97.5068 1.042
97.5371 1.562
97.5673 1.615
97.5976 1.250
97.6279 1.771
97.6582 1.458
97.6884 2.500
97.7187 1.510
97.7490 1.250
97.7793 1.771
97.8096 1.615
97.8398 1.719
97.8701 1.667
97.9004 1.667
97.9307 1.823
97.9610 1.562
97.9912 1.771
98.0215 1.979
98.0518 1.823
98.0821 1.823
98.1123 2.031
98.1426 1.979
98.1729 2.292
98.2032 1.406
98.2335 2.656
98.2637 2.083
98.2940 1.615
98.3243 2.344
98.3546 2.500
98.3849 2.552
98.4151 2.604
98.4454 2.396
98.4757 1.667
98.5060 2.396
98.5362 2.031
98.5665 2.552
98.5968 2.135
98.6271 2.552
98.6574 2.656
98.6876 2.396
98.7179 2.760
98.7482 2.135
98.7785 2.187
98.8088 1.771
98.8390 1.875
98.8693 2.292
98.8996 1.979
98.9299 1.875
98.9601 1.823
98.9904 1.667
99.0207 1.875
99.0510 1.667
99.0813 1.719
99.1115 1.719
99.1418 1.562
99.1721 1.562
99.2024 1.562
99.2327 1.458
99.2629 1.823
99.2932 1.823
99.3235 1.302
99.3538 1.667
99.3841 1.719
99.4143 1.406
99.4446 1.302
99.4749 1.875
99.5052 1.354
99.5354 0.833
99.5657 1.615
99.5960 1.302
99.6263 1.302
99.6566 2.344
99.6868 1.771
99.7171 1.510
99.7474 1.198
99.7777 1.354
99.8080 1.406
99.8382 1.458
99.8685 1.667
99.8988 1.302
99.9291 1.354
99.9593 1.875
99.9896 1.302
100.0199 0.781
100.0502 1.406
100.0805 1.458
100.1107 1.510
100.1410 1.823
100.1713 1.042
100.2016 0.990
100.2319 1.771
100.2621 1.302
100.2924 1.354
100.3227 1.302
100.3530 0.937
100.3832 1.458
100.4135 1.198
100.4438 1.302
100.4741 1.771
100.5044 1.302
100.5346 1.510
100.5649 1.250
100.5952 1.615
100.6255 1.250
100.6558 1.719
100.6860 1.510
100.7163 1.302
100.7466 1.354
100.7769 0.937
100.8071 1.302
100.8374 1.354
100.8677 1.719
100.8980 0.990
100.9283 1.458
100.9585 1.406
100.9888 1.094
101.0191 1.302
101.0494 0.833
101.0797 1.354
101.1099 0.885
101.1402 1.615
101.1705 1.458
101.2008 1.615
101.2310 1.354
101.2613 2.083
101.2916 1.510
101.3219 1.458
101.3522 1.198
101.3824 1.875
101.4127 0.781
101.4430 1.042
101.4733 1.615
101.5036 0.885
101.5338 1.406
101.5641 1.458
101.5944 1.406
101.6247 1.458
101.6549 1.406
101.6852 2.135
101.7155 1.406
101.7458 1.250
101.7761 1.875
101.8063 1.146
101.8366 1.406
101.8669 1.615
101.8972 1.302
101.9275 1.458
101.9577 1.510
101.9880 1.250
102.0183 1.042
102.0486 1.458
102.0788 1.719
102.1091 1.615
102.1394 1.354
102.1697 1.250
102.2000 1.458
102.2302 1.510
102.2605 1.927
102.2908 1.510
102.3211 1.615
102.3514 1.042
102.3816 1.823
102.4119 1.823
102.4422 2.344
102.4725 1.458
102.5028 2.135
102.5330 2.083
102.5633 2.135
102.5936 1.979
102.6239 2.031
102.6541 1.823
102.6844 2.187
102.7147 2.292
102.7450 1.875
102.7753 2.083
102.8055 2.552
102.8358 1.823
102.8661 2.292
102.8964 1.823
102.9267 1.771
102.9569 2.031
102.9872 2.083
103.0175 2.135
103.0478 2.083
103.0780 1.875
103.1083 1.667
103.1386 1.875
103.1689 2.396
103.1992 1.354
103.2294 2.292
103.2597 2.083
103.2900 2.396
103.3203 2.135
103.3506 2.292
103.3808 2.240
103.4111 1.927
103.4414 2.292
103.4717 2.187
103.5019 1.823
103.5322 1.719
103.5625 2.344
103.5928 2.135
103.6231 2.500
103.6533 2.292
103.6836 2.240
103.7139 2.760
103.7442 2.396
103.7745 2.708
103.8047 2.500
103.8350 2.604
103.8653 2.344
103.8956 3.229
103.9258 3.177
103.9561 2.656
103.9864 2.500
104.0167 2.708
104.0470 3.073
104.0772 3.073
104.1075 2.292
104.1378 2.865
104.1681 2.344
104.1984 2.500
104.2286 2.344
104.2589 2.969
104.2892 2.396
104.3195 3.073
104.3497 2.812
104.3800 2.865
104.4103 2.500
104.4406 2.500
104.4709 2.240
104.5011 1.979
104.5314 1.875
104.5617 2.135
104.5920 1.823
104.6223 2.240
104.6525 1.979
104.6828 2.812
104.7131 1.823
104.7434 1.927
104.7736 1.615
104.8039 1.250
104.8342 1.667
104.8645 1.406
104.8948 1.667
104.9250 1.562
104.9553 1.667
104.9856 1.094
105.0159 1.823
105.0462 1.302
105.0764 1.458
105.1067 1.354
105.1370 1.458
105.1673 1.094
105.1975 1.510
105.2278 1.146
105.2581 1.615
105.2884 1.042
105.3187 1.562
105.3489 1.302
105.3792 1.458
105.4095 1.302
105.4398 1.354
105.4701 1.458
105.5003 1.719
105.5306 1.510
105.5609 0.885
105.5912 1.406
105.6215 1.406
105.6517 1.510
105.6820 1.562
105.7123 1.406
105.7426 1.875
105.7728 1.406
105.8031 1.198
105.8334 1.823
105.8637 1.458
105.8940 1.302
105.9242 1.094
105.9545 1.458
105.9848 1.458
106.0151 1.562
106.0454 1.146
106.0756 1.354
106.1059 1.198
106.1362 1.354
106.1665 1.198
106.1967 1.667
106.2270 0.990
106.2573 0.885
106.2876 1.354
106.3179 1.302
106.3481 1.302
106.3784 1.146
106.4087 1.562
106.4390 0.885
106.4693 1.562
106.4995 1.250
106.5298 1.458
106.5601 0.885
106.5904 1.094
106.6206 1.458
106.6509 2.187
106.6812 1.667
106.7115 1.510
106.7418 1.510
106.7720 1.615
106.8023 1.094
106.8326 1.458
106.8629 1.615
106.8932 0.885
106.9234 1.250
106.9537 1.406
106.9840 1.198
107.0143 1.927
107.0445 1.510
107.0748 1.406
107.1051 1.458
107.1354 1.719
107.1657 1.771
107.1959 1.406
107.2262 1.719
107.2565 1.562
107.2868 1.250
107.3171 1.510
107.3473 1.302
107.3776 1.406
107.4079 1.667
107.4382 1.302
107.4684 1.406
107.4987 1.562
107.5290 1.719
107.5593 1.354
107.5896 1.771
107.6198 1.250
107.6501 1.094
107.6804 1.458
107.7107 1.875
107.7410 1.198
107.7712 1.406
107.8015 1.458
107.8318 0.990
107.8621 1.510
107.8923 1.250
107.9226 1.562
107.9529 1.146
107.9832 1.562
108.0135 1.458
108.0437 1.354
108.0740 1.875
108.1043 1.615
108.1346 1.615
108.1649 1.458
108.1951 1.406
108.2254 1.250
108.2557 1.406
108.2860 1.823
108.3163 1.250
108.3465 1.354
108.3768 1.406
108.4071 1.510
108.4374 1.354
108.4676 1.510
108.4979 1.458
108.5282 1.458
108.5585 1.146
108.5888 1.823
108.6190 1.094
108.6493 1.510
108.6796 0.937
108.7099 1.198
108.7402 1.667
108.7704 1.458
108.8007 1.406
108.8310 1.406
108.8613 1.250
108.8915 1.250
108.9218 1.719
108.9521 1.198
108.9824 1.198
109.0127 1.198
109.0429 0.729
109.0732 1.615
109.1035 1.354
109.1338 1.458
109.1641 1.562
109.1943 1.250
109.2246 1.094
109.2549 1.719
109.2852 1.302
109.3154 1.458
109.3457 1.146
109.3760 1.719
109.4063 1.667
109.4366 1.354
109.4668 1.250
109.4971 1.250
109.5274 1.406
109.5577 1.510
109.5880 1.823
109.6182 0.833
109.6485 1.510
109.6788 1.979
109.7091 1.562
109.7393 1.823
109.7696 1.510
109.7999 2.135
109.8302 1.510
109.8605 1.458
109.8907 1.927
109.9210 1.719
109.9513 1.719
109.9816 2.083
110.0119 1.667
110.0421 1.719
110.0724 1.719
110.1027 2.135
110.1330 2.187
110.1632 1.979
110.1935 2.240
110.2238 2.135
110.2541 2.135
110.2844 2.187
110.3146 1.771
110.3449 1.979
110.3752 2.396
110.4055 2.500
110.4358 1.927
110.4660 1.927
110.4963 1.510
110.5266 2.292
110.5569 1.615
110.5871 2.187
110.6174 1.823
110.6477 1.875
110.6780 1.823
110.7083 2.031
110.7385 1.562
110.7688 1.823
110.7991 1.719
110.8294 2.812
110.8597 1.562
110.8899 2.083
110.9202 1.875
110.9505 1.562
110.9808 1.667
111.0110 2.240
111.0413 2.187
111.0716 1.667
111.1019 1.667
111.1322 2.135
111.1624 1.875
111.1927 1.094
111.2230 1.354
111.2533 1.406
111.2836 1.146
111.3138 1.979
111.3441 1.510
111.3744 1.771
111.4047 2.187
111.4350 1.198
111.4652 1.146
111.4955 1.615
111.5258 1.146
111.5561 2.031
111.5863 1.354
111.6166 1.042
111.6469 1.198
111.6772 1.771
111.7075 1.042
111.7377 1.667
111.7680 1.250
111.7983 0.937
111.8286 1.250
111.8589 1.198
111.8891 1.354
111.9194 1.615
111.9497 1.042
111.9800 1.406
112.0102 1.406
112.0405 1.146
112.0708 2.135
112.1011 1.458
112.1314 1.250
112.1616 1.823
112.1919 1.615
112.2222 1.615
112.2525 1.510
112.2828 1.354
112.3130 1.458
112.3433 1.719
112.3736 1.406
112.4039 1.771
112.4341 1.719
112.4644 1.198
112.4947 1.615
112.5250 1.406
112.5553 1.354
112.5855 1.667
112.6158 1.458
112.6461 1.406
112.6764 1.719
112.7067 1.719
112.7369 1.302
112.7672 1.146
112.7975 1.406
112.8278 1.927
112.8580 1.458
112.8883 1.250
112.9186 1.562
112.9489 1.250
112.9792 1.198
113.0094 1.302
113.0397 1.719
113.0700 1.927
113.1003 1.562
113.1306 1.458
113.1608 1.198
113.1911 1.719
113.2214 1.510
113.2517 1.302
113.2819 2.240
113.3122 1.458
113.3425 1.250
113.3728 1.458
113.4031 1.198
113.4333 1.719
113.4636 1.562
113.4939 1.146
113.5242 1.719
113.5545 1.250
113.5847 1.667
113.6150 2.031
113.6453 0.990
113.6756 1.562
113.7058 1.719
113.7361 1.354
113.7664 1.771
113.7967 1.667
113.8270 1.667
113.8572 1.406
113.8875 1.458
113.9178 1.042
113.9481 1.458
113.9784 1.719
114.0086 1.719
114.0389 1.667
114.0692 1.198
114.0995 1.615
114.1298 1.771
114.1600 0.885
114.1903 1.823
114.2206 1.094
114.2509 0.990
114.2811 1.771
114.3114 1.875
114.3417 1.406
114.3720 1.250
114.4023 1.823
114.4325 1.406
114.4628 1.042
114.4931 1.510
114.5234 1.615
114.5537 1.823
114.5839 1.406
114.6142 1.771
114.6445 1.719
114.6748 1.823
114.7050 1.458
114.7353 1.823
114.7656 1.823
114.7959 1.927
114.8262 1.458
114.8564 1.771
114.8867 2.031
114.9170 1.667
114.9473 1.979
114.9776 1.823
115.0078 1.510
115.0381 1.823
115.0684 2.031
115.0987 1.615
115.1289 1.510
115.1592 1.875
115.1895 2.031
115.2198 1.771
115.2501 1.458
115.2803 2.083
115.3106 1.510
115.3409 1.667
115.3712 2.135
115.4015 2.344
115.4317 2.656
115.4620 2.240
115.4923 1.771
115.5226 2.448
115.5528 1.875
115.5831 2.031
115.6134 2.031
115.6437 2.240
115.6740 2.552
115.7042 2.292
115.7345 2.031
115.7648 2.708
115.7951 2.448
115.8254 3.437
115.8556 2.760
115.8859 2.969
115.9162 2.917
115.9465 2.083
115.9767 3.021
116.0070 2.865
116.0373 2.656
116.0676 3.073
116.0979 2.396
116.1281 3.646
116.1584 2.969
116.1887 3.073
116.2190 3.385
116.2493 3.385
116.2795 2.708
116.3098 3.073
116.3401 2.708
116.3704 3.490
116.4006 2.448
116.4309 3.177
116.4612 2.708
116.4915 3.281
116.5218 2.708
116.5520 2.344
116.5823 2.812
116.6126 2.604
116.6429 2.917
116.6732 2.760
116.7034 2.917
116.7337 2.708
116.7640 2.344
116.7943 2.969
116.8245 2.344
116.8548 1.927
116.8851 1.979
116.9154 2.240
116.9457 2.031
116.9759 2.865
117.0062 1.615
117.0365 2.083
117.0668 1.875
117.0971 2.240
117.1273 1.927
117.1576 1.510
117.1879 2.552
117.2182 2.240
117.2485 1.354
117.2787 1.302
117.3090 2.031
117.3393 2.396
117.3696 1.875
117.3998 1.979
117.4301 2.448
117.4604 1.667
117.4907 1.562
117.5210 1.979
117.5512 1.250
117.5815 1.719
117.6118 1.042
117.6421 1.615
117.6724 1.250
117.7026 1.823
117.7329 1.771
117.7632 1.667
117.7935 1.458
117.8237 1.823
117.8540 2.083
117.8843 0.990
117.9146 1.667
117.9449 1.250
117.9751 1.875
118.0054 1.771
118.0357 1.510
118.0660 1.771
118.0963 1.458
118.1265 1.510
118.1568 1.406
118.1871 1.927
118.2174 1.406
118.2476 1.146
118.2779 1.979
118.3082 1.667
118.3385 1.510
118.3688 1.354
118.3990 1.354
118.4293 1.406
118.4596 2.135
118.4899 1.198
118.5202 1.406
118.5504 1.146
118.5807 1.615
118.6110 1.875
118.6413 1.771
118.6715 1.562
118.7018 1.250
118.7321 1.562
118.7624 1.354
118.7927 1.875
118.8229 1.615
118.8532 1.771
118.8835 1.094
118.9138 1.615
118.9441 1.979
118.9743 1.719
119.0046 1.771
119.0349 1.823
119.0652 1.562
119.0954 0.937
119.1257 1.510
119.1560 1.667
119.1863 1.354
119.2166 1.771
119.2468 1.042
119.2771 2.135
119.3074 1.354
119.3377 0.990
119.3680 1.771
119.3982 1.458
119.4285 1.406
119.4588 1.458
119.4891 1.458
119.5193 1.406
119.5496 1.458
119.5799 1.562
119.6102 1.094
119.6405 1.198
119.6707 1.510
119.7010 1.667
119.7313 1.354
119.7616 1.250
119.7919 1.510
119.8221 1.250
119.8524 1.562
119.8827 1.302
119.9130 1.458
119.9433 0.990
119.9735 1.615
120.0038 1.250
