'Id: "" Comment: "" Operator: "Lab Manager" Anode: "Cu" Scantype: "Locked Coupled" TimePerStep: "19.2" X: "9999" Y: "9999" Z: "9999" 
10.0015 3.594
10.0318 4.583
10.0620 3.802
10.0923 3.698
10.1226 3.229
10.1529 2.812
10.1832 3.750
10.2134 3.073
10.2437 3.125
10.2740 3.802
10.3043 3.750
10.3346 3.281
10.3648 3.698
10.3951 3.177
10.4254 4.010
10.4557 4.115
10.4859 3.698
10.5162 3.281
10.5465 3.594
10.5768 3.698
10.6071 3.125
10.6373 3.646
10.6676 3.854
10.6979 2.812
10.7282 3.906
10.7585 3.385
10.7887 2.969
10.8190 2.969
10.8493 3.698
10.8796 3.385
10.9098 4.479
10.9401 3.177
10.9704 4.010
11.0007 3.542
11.0310 4.167
11.0612 3.177
11.0915 2.448
11.1218 4.062
11.1521 3.594
11.1824 3.958
11.2126 3.802
11.2429 2.552
11.2732 4.115
11.3035 3.385
11.3337 3.906
11.3640 3.229
11.3943 3.333
11.4246 3.333
11.4549 4.375
11.4851 3.333
11.5154 3.542
11.5457 3.750
11.5760 3.333
11.6063 3.021
11.6365 3.646
11.6668 3.333
11.6971 2.969
11.7274 3.594
11.7577 2.656
11.7879 2.552
11.8182 3.698
11.8485 3.021
11.8788 2.812
11.9090 4.062
11.9393 3.333
11.9696 3.437
11.9999 2.448
12.0302 2.865
12.0604 2.865
12.0907 2.917
12.1210 3.698
12.1513 3.021
12.1816 3.750
12.2118 2.865
12.2421 3.073
12.2724 2.865
12.3027 2.448
12.3329 3.437
12.3632 3.229
12.3935 3.229
12.4238 2.656
12.4541 3.958
12.4843 3.229
12.5146 3.958
12.5449 3.281
12.5752 3.437
12.6055 3.073
12.6357 3.594
12.6660 3.750
12.6963 3.021
12.7266 3.073
12.7568 3.333
12.7871 3.229
12.8174 3.906
12.8477 3.854
12.8780 2.812
12.9082 3.073
12.9385 3.281
12.9688 2.917
12.9991 2.135
13.0294 3.437
13.0596 2.760
13.0899 2.396
13.1202 2.708
13.1505 3.073
13.1807 3.125
13.2110 3.333
13.2413 3.802
13.2716 3.646
13.3019 3.073
13.3321 2.917
13.3624 2.187
13.3927 3.437
13.4230 3.125
13.4533 2.969
13.4835 2.865
13.5138 3.021
13.5441 2.708
13.5744 3.177
13.6046 4.010
13.6349 2.604
13.6652 2.865
13.6955 3.229
13.7258 3.281
13.7560 3.229
13.7863 3.698
13.8166 3.021
13.8469 2.969
13.8772 4.010
13.9074 3.437
13.9377 3.021
13.9680 2.396
13.9983 2.917
14.0285 2.969
14.0588 3.021
14.0891 2.500
14.1194 2.500
14.1497 2.760
14.1799 2.656
14.2102 3.021
14.2405 2.917
14.2708 2.656
14.3011 3.281
14.3313 2.760
14.3616 3.125
14.3919 2.760
14.4222 3.073
14.4524 2.448
14.4827 2.969
14.5130 3.281
14.5433 2.292
14.5736 2.396
14.6038 2.604
14.6341 2.604
14.6644 2.031
14.6947 2.760
14.7250 3.125
14.7552 2.448
14.7855 3.594
14.8158 2.396
14.8461 2.760
14.8764 2.500
14.9066 3.490
14.9369 2.604
14.9672 3.490
14.9975 2.396
15.0277 3.490
15.0580 3.177
15.0883 2.604
15.1186 2.708
15.1489 2.969
15.1791 2.552
15.2094 2.812
15.2397 2.708
15.2700 3.229
15.3003 2.656
15.3305 3.177
15.3608 2.969
15.3911 2.917
15.4214 3.229
15.4516 3.490
15.4819 3.333
15.5122 2.292
15.5425 3.229
15.5728 2.969
15.6030 3.229
15.6333 3.542
15.6636 1.771
15.6939 3.385
15.7242 2.812
15.7544 2.760
15.7847 3.021
15.8150 2.448
15.8453 2.917
15.8755 3.229
15.9058 2.500
15.9361 2.344
15.9664 2.396
15.9967 3.385
16.0269 2.760
16.0572 2.812
16.0875 2.708
16.1178 3.333
16.1481 2.396
16.1783 3.177
16.2086 2.552
16.2389 3.177
16.2692 2.187
16.2994 2.917
16.3297 2.135
16.3600 2.812
16.3903 2.292
16.4206 2.760
16.4508 3.594
16.4811 2.656
16.5114 3.490
16.5417 2.760
16.5720 2.865
16.6022 2.865
16.6325 3.177
16.6628 2.500
16.6931 3.385
16.7233 3.229
16.7536 2.969
16.7839 2.500
16.8142 3.229
16.8445 3.125
16.8747 3.021
16.9050 3.385
16.9353 2.500
16.9656 2.031
16.9959 2.552
17.0261 3.021
17.0564 2.969
17.0867 3.333
17.1170 3.073
17.1472 2.865
17.1775 2.500
17.2078 2.552
17.2381 2.396
17.2684 3.125
17.2986 2.812
17.3289 3.281
17.3592 2.708
17.3895 3.021
17.4198 3.490
17.4500 2.083
17.4803 3.437
17.5106 3.021
17.5409 3.490
17.5712 2.500
17.6014 3.021
17.6317 2.500
17.6620 3.385
17.6923 2.917
17.7225 2.760
17.7528 2.708
17.7831 2.969
17.8134 3.385
17.8437 2.656
17.8739 2.708
17.9042 3.125
17.9345 2.396
17.9648 3.646
17.9951 2.448
18.0253 2.865
18.0556 2.396
18.0859 2.604
18.1162 2.969
18.1464 2.292
18.1767 3.333
18.2070 2.604
18.2373 3.073
18.2676 2.812
18.2978 2.344
18.3281 2.552
18.3584 3.281
18.3887 2.187
18.4190 1.979
18.4492 2.396
18.4795 3.385
18.5098 2.760
18.5401 2.760
18.5703 3.125
18.6006 3.281
18.6309 2.865
18.6612 2.448
18.6915 2.656
18.7217 2.604
18.7520 2.865
18.7823 2.656
18.8126 2.760
18.8429 2.240
18.8731 1.615
18.9034 2.500
18.9337 3.229
18.9640 2.448
18.9942 2.240
19.0245 2.604
19.0548 2.292
19.0851 3.177
19.1154 2.552
19.1456 2.656
19.1759 3.073
19.2062 2.969
19.2365 2.396
19.2668 2.969
19.2970 2.240
19.3273 2.240
19.3576 3.021
19.3879 1.979
19.4181 1.875
19.4484 2.187
19.4787 3.229
19.5090 3.229
19.5393 2.344
19.5695 2.865
19.5998 3.021
19.6301 3.229
19.6604 2.552
19.6907 3.281
19.7209 2.500
19.7512 2.552
19.7815 2.083
19.8118 2.448
19.8420 3.281
19.8723 2.448
19.9026 2.135
19.9329 1.927
19.9632 2.708
19.9934 3.333
20.0237 2.344
20.0540 1.771
20.0843 2.865
20.1146 1.823
20.1448 2.865
20.1751 2.396
20.2054 2.865
20.2357 2.187
20.2659 3.125
20.2962 2.344
20.3265 2.500
20.3568 2.917
20.3871 2.604
20.4173 2.344
20.4476 2.396
20.4779 2.448
20.5082 2.396
20.5385 2.552
20.5687 3.021
20.5990 1.719
20.6293 2.396
20.6596 2.812
20.6899 3.073
20.7201 2.187
20.7504 2.552
20.7807 2.292
20.8110 2.031
20.8412 1.615
20.8715 2.969
20.9018 2.240
20.9321 3.229
20.9624 1.927
20.9926 2.500
21.0229 2.083
21.0532 2.083
21.0835 2.240
21.1138 2.760
21.1440 3.021
21.1743 1.979
21.2046 2.396
21.2349 2.396
21.2651 3.021
21.2954 2.812
21.3257 3.021
21.3560 1.927
21.3863 2.031
21.4165 2.865
21.4468 2.344
21.4771 2.344
21.5074 2.083
21.5377 2.083
21.5679 1.562
21.5982 2.292
21.6285 2.344
21.6588 2.812
21.6890 2.656
21.7193 2.240
21.7496 2.656
21.7799 2.656
21.8102 2.187
21.8404 2.656
21.8707 3.021
21.9010 3.073
21.9313 2.344
21.9616 2.031
21.9918 2.031
22.0221 3.125
22.0524 2.187
22.0827 2.708
22.1129 2.552
22.1432 2.812
22.1735 3.021
22.2038 2.240
22.2341 2.240
22.2643 2.917
22.2946 2.292
22.3249 2.292
22.3552 2.396
22.3855 2.344
22.4157 1.823
22.4460 2.344
22.4763 2.344
22.5066 1.979
22.5368 2.448
22.5671 2.083
22.5974 2.448
22.6277 2.969
22.6580 2.083
22.6882 2.656
22.7185 1.979
22.7488 1.979
22.7791 2.240
22.8094 2.812
22.8396 2.760
22.8699 2.500
22.9002 1.979
22.9305 2.708
22.9607 2.708
22.9910 2.135
23.0213 2.396
23.0516 2.292
23.0819 2.604
23.1121 2.552
23.1424 1.719
23.1727 1.927
23.2030 2.292
23.2333 2.396
23.2635 2.552
23.2938 2.083
23.3241 2.604
23.3544 2.396
23.3846 2.292
23.4149 2.500
23.4452 2.292
23.4755 1.823
23.5058 1.979
23.5360 1.979
23.5663 2.604
23.5966 2.292
23.6269 1.875
23.6572 2.031
23.6874 3.281
23.7177 2.031
23.7480 2.760
23.7783 2.292
23.8086 1.875
23.8388 2.969
23.8691 2.708
23.8994 2.135
23.9297 2.969
23.9599 2.552
23.9902 2.083
24.0205 1.875
24.0508 2.240
24.0811 2.552
24.1113 2.656
24.1416 1.979
24.1719 2.083
24.2022 2.240
24.2325 2.135
24.2627 2.760
24.2930 1.979
24.3233 2.344
24.3536 2.135
24.3838 2.396
24.4141 2.240
24.4444 2.187
24.4747 2.812
24.5050 2.396
24.5352 2.240
24.5655 2.083
24.5958 3.073
24.6261 2.760
24.6564 2.396
24.6866 2.083
24.7169 2.865
24.7472 1.771
24.7775 2.344
24.8077 2.292
24.8380 1.979
24.8683 1.771
24.8986 1.979
24.9289 2.760
24.9591 2.031
24.9894 2.187
25.0197 2.240
25.0500 3.125
25.0803 2.135
25.1105 2.865
25.1408 2.396
25.1711 2.865
25.2014 2.500
25.2316 2.240
25.2619 2.187
25.2922 2.760
25.3225 2.500
25.3528 1.979
25.3830 3.073
25.4133 2.812
25.4436 1.667
25.4739 1.979
25.5042 2.344
25.5344 1.927
25.5647 2.708
25.5950 1.927
25.6253 2.187
25.6555 2.760
25.6858 3.021
25.7161 1.927
25.7464 1.771
25.7767 2.083
25.8069 2.708
25.8372 2.187
25.8675 2.969
25.8978 2.396
25.9281 2.344
25.9583 2.448
25.9886 1.771
26.0189 2.708
26.0492 2.604
26.0794 2.292
26.1097 2.135
26.1400 2.292
26.1703 2.187
26.2006 2.135
26.2308 3.177
26.2611 2.917
26.2914 2.240
26.3217 2.240
26.3520 2.656
26.3822 2.240
26.4125 1.927
26.4428 2.760
26.4731 2.240
26.5034 2.708
26.5336 2.292
26.5639 2.135
26.5942 2.708
26.6245 1.458
26.6547 2.812
26.6850 2.604
26.7153 3.281
26.7456 2.187
26.7759 2.500
26.8061 2.292
26.8364 2.604
26.8667 2.760
26.8970 1.979
26.9273 2.292
26.9575 2.552
26.9878 2.448
27.0181 2.708
27.0484 3.281
27.0786 2.344
27.1089 2.656
27.1392 2.240
27.1695 2.708
27.1998 2.500
27.2300 2.760
27.2603 2.969
27.2906 2.604
27.3209 1.875
27.3512 2.396
27.3814 2.604
27.4117 2.396
27.4420 2.344
27.4723 2.448
27.5025 2.604
27.5328 2.344
27.5631 2.760
27.5934 2.969
27.6237 2.396
27.6539 2.552
27.6842 2.708
27.7145 2.812
27.7448 3.177
27.7751 2.552
27.8053 2.292
27.8356 2.552
27.8659 2.760
27.8962 2.552
27.9264 3.125
27.9567 2.135
27.9870 2.917
28.0173 2.760
28.0476 3.073
28.0778 3.125
28.1081 2.292
28.1384 2.812
28.1687 3.698
28.1990 3.073
28.2292 3.646
28.2595 2.500
28.2898 2.760
28.3201 2.760
28.3503 2.552
28.3806 2.344
28.4109 2.708
28.4412 2.812
28.4715 3.177
28.5017 2.552
28.5320 3.229
28.5623 2.500
28.5926 3.021
28.6229 2.500
28.6531 2.969
28.6834 3.854
28.7137 2.760
28.7440 3.073
28.7742 2.604
28.8045 2.708
28.8348 2.604
28.8651 2.292
28.8954 2.865
28.9256 3.229
28.9559 3.229
28.9862 2.969
29.0165 2.396
29.0468 2.969
29.0770 3.333
29.1073 2.865
29.1376 2.917
29.1679 2.865
29.1981 2.969
29.2284 3.281
29.2587 3.698
29.2890 3.073
29.3193 2.760
29.3495 3.125
29.3798 2.969
29.4101 2.865
29.4404 3.385
29.4707 2.812
29.5009 4.062
29.5312 4.271
29.5615 4.115
29.5918 3.490
29.6221 3.281
29.6523 3.646
29.6826 3.437
29.7129 3.073
29.7432 2.917
29.7734 3.542
29.8037 3.385
29.8340 4.115
29.8643 3.542
29.8946 4.010
29.9248 4.010
29.9551 3.750
29.9854 4.740
30.0157 3.802
30.0460 3.698
30.0762 4.427
30.1065 4.167
30.1368 3.646
30.1671 4.375
30.1973 3.333
30.2276 4.375
30.2579 4.792
30.2882 3.854
30.3185 4.375
30.3487 4.792
30.3790 5.260
30.4093 5.052
30.4396 4.167
30.4699 4.167
30.5001 5.677
30.5304 5.885
30.5607 5.625
30.5910 5.312
30.6212 5.521
30.6515 5.469
30.6818 6.458
30.7121 6.146
30.7424 6.458
30.7726 6.302
30.8029 7.187
30.8332 6.927
30.8635 5.781
30.8938 8.073
30.9240 8.958
30.9543 8.906
30.9846 10.000
31.0149 9.896
31.0451 9.896
31.0754 10.417
31.1057 11.354
31.1360 11.562
31.1663 12.865
31.1965 15.990
31.2268 15.052
31.2571 15.729
31.2874 18.385
31.3177 19.010
31.3479 21.979
31.3782 25.052
31.4085 25.573
31.4388 26.979
31.4690 29.271
31.4993 33.177
31.5296 36.719
31.5599 35.573
31.5902 38.750
31.6204 40.781
31.6507 40.208
31.6810 40.990
31.7113 38.958
31.7416 39.375
31.7718 33.437
31.8021 30.937
31.8324 29.062
31.8627 25.469
31.8929 23.802
31.9232 18.854
31.9535 16.667
31.9838 15.208
32.0141 17.187
32.0443 14.062
32.0746 12.396
32.1049 11.875
32.1352 10.417
32.1655 9.479
32.1957 9.271
32.2260 9.531
32.2563 7.448
32.2866 8.437
32.3169 8.229
32.3471 9.062
32.3774 6.875
32.4077 7.969
32.4380 7.344
32.4682 6.042
32.4985 6.562
32.5288 7.135
32.5591 6.667
32.5894 5.990
32.6196 5.781
32.6499 5.729
32.6802 5.885
32.7105 5.104
32.7408 5.312
32.7710 5.104
32.8013 5.833
32.8316 6.250
32.8619 5.781
32.8921 5.573
32.9224 5.625
32.9527 5.365
32.9830 5.573
33.0133 4.635
33.0435 4.896
33.0738 4.896
33.1041 4.635
33.1344 4.948
33.1647 4.948
33.1949 4.844
33.2252 4.687
33.2555 4.635
33.2858 4.531
33.3160 4.948
33.3463 5.573
33.3766 3.906
33.4069 4.792
33.4372 5.365
33.4674 5.365
33.4977 5.885
33.5280 5.833
33.5583 4.948
33.5886 6.562
33.6188 6.354
33.6491 6.042
33.6794 6.354
33.7097 5.469
33.7399 7.292
33.7702 6.771
33.8005 7.240
33.8308 6.667
33.8611 8.802
33.8913 8.281
33.9216 10.000
33.9519 10.417
33.9822 12.708
34.0125 12.760
34.0427 14.687
34.0730 17.240
34.1033 19.792
34.1336 22.031
34.1638 26.719
34.1941 32.552
34.2244 42.344
34.2547 48.437
34.2850 53.385
34.3152 52.552
34.3455 50.052
34.3758 42.187
34.4061 38.750
34.4364 32.969
34.4666 25.156
34.4969 22.760
34.5272 17.187
34.5575 14.219
34.5877 12.187
34.6180 12.292
34.6483 11.042
34.6786 9.531
34.7089 9.219
34.7391 8.906
34.7694 8.750
34.7997 8.333
34.8300 8.802
34.8603 7.969
34.8905 8.542
34.9208 7.135
34.9511 8.125
34.9814 8.437
35.0116 7.187
35.0419 7.969
35.0722 8.906
35.1025 8.385
35.1328 7.917
35.1630 8.333
35.1933 8.333
35.2236 9.792
35.2539 8.542
35.2842 8.698
35.3144 9.375
35.3447 10.573
35.3750 10.521
35.4053 10.000
35.4356 11.250
35.4658 10.677
35.4961 10.260
35.5264 12.604
35.5567 13.281
35.5869 14.635
35.6172 15.365
35.6475 15.833
35.6778 17.865
35.7081 20.990
35.7383 20.365
35.7686 22.656
35.7989 25.208
35.8292 27.187
35.8595 31.042
35.8897 34.740
35.9200 36.042
35.9503 41.771
35.9806 43.594
36.0108 51.094
36.0411 51.094
36.0714 55.260
36.1017 55.990
36.1320 61.042
36.1622 57.865
36.1925 55.260
36.2228 53.958
36.2531 50.156
36.2834 48.281
36.3136 43.542
36.3439 40.000
36.3742 35.156
36.4045 31.667
36.4347 27.708
36.4650 25.833
36.4953 21.510
36.5256 19.427
36.5559 18.125
36.5861 17.396
36.6164 15.052
36.6467 13.542
36.6770 12.604
36.7073 12.031
36.7375 11.250
36.7678 9.844
36.7981 11.250
36.8284 9.323
36.8586 7.500
36.8889 7.812
36.9192 7.604
36.9495 6.823
36.9798 6.406
37.0100 5.990
37.0403 7.292
37.0706 5.885
37.1009 6.458
37.1312 6.979
37.1614 5.052
37.1917 6.510
37.2220 5.417
37.2523 5.365
37.2825 5.312
37.3128 6.042
37.3431 5.260
37.3734 3.802
37.4037 4.271
37.4339 5.052
37.4642 4.687
37.4945 4.167
37.5248 4.062
37.5551 4.271
37.5853 3.958
37.6156 3.333
37.6459 4.479
37.6762 4.375
37.7064 3.542
37.7367 3.021
37.7670 3.750
37.7973 3.385
37.8276 3.125
37.8578 3.646
37.8881 3.802
37.9184 3.646
37.9487 3.906
37.9790 3.437
38.0092 3.958
38.0395 3.437
38.0698 3.646
38.1001 2.969
38.1304 2.865
38.1606 2.969
38.1909 3.594
38.2212 2.760
38.2515 2.917
38.2817 2.760
38.3120 3.646
38.3423 3.437
38.3726 3.802
38.4029 2.865
38.4331 2.865
38.4634 2.344
38.4937 2.708
38.5240 2.500
38.5543 3.073
38.5845 2.500
38.6148 2.448
38.6451 2.135
38.6754 2.656
38.7056 3.229
38.7359 2.083
38.7662 2.969
38.7965 2.656
38.8268 2.865
38.8570 3.073
38.8873 3.125
38.9176 2.656
38.9479 1.615
38.9782 2.812
39.0084 2.500
39.0387 2.552
39.0690 2.135
39.0993 2.031
39.1295 2.552
39.1598 2.031
39.1901 2.240
39.2204 1.979
39.2507 2.240
39.2809 2.135
39.3112 1.927
39.3415 1.771
39.3718 2.552
39.4021 2.552
39.4323 2.135
39.4626 1.875
39.4929 2.031
39.5232 2.187
39.5534 2.292
39.5837 2.396
39.6140 1.615
39.6443 2.604
39.6746 1.823
39.7048 2.812
39.7351 1.979
39.7654 1.927
39.7957 1.615
39.8260 1.354
39.8562 2.552
39.8865 2.344
39.9168 2.031
39.9471 2.240
39.9773 2.135
40.0076 2.187
40.0379 2.031
40.0682 1.615
40.0985 1.719
40.1287 2.552
40.1590 2.708
40.1893 1.719
40.2196 2.292
40.2499 2.344
40.2801 1.875
40.3104 1.667
40.3407 2.396
40.3710 2.396
40.4012 2.083
40.4315 2.083
40.4618 2.187
40.4921 2.240
40.5224 2.083
40.5526 1.875
40.5829 1.979
40.6132 2.135
40.6435 1.615
40.6738 2.135
40.7040 1.615
40.7343 2.135
40.7646 2.135
40.7949 1.979
40.8251 1.823
40.8554 2.083
40.8857 1.562
40.9160 1.302
40.9463 1.562
40.9765 2.135
41.0068 1.510
41.0371 1.354
41.0674 1.354
41.0977 2.292
41.1279 1.979
41.1582 2.031
41.1885 1.979
41.2188 1.875
41.2491 1.406
41.2793 1.250
41.3096 1.823
41.3399 1.771
41.3702 2.187
41.4004 1.719
41.4307 1.562
41.4610 1.875
41.4913 1.458
41.5216 1.458
41.5518 1.510
41.5821 1.667
41.6124 1.354
41.6427 1.094
41.6730 2.083
41.7032 1.875
41.7335 1.979
41.7638 1.250
41.7941 1.771
41.8243 1.927
41.8546 1.875
41.8849 1.615
41.9152 1.562
41.9455 2.135
41.9757 1.823
42.0060 2.187
42.0363 1.354
42.0666 2.031
42.0969 1.562
42.1271 1.667
42.1574 2.135
42.1877 1.667
42.2180 1.510
42.2482 2.083
42.2785 2.083
42.3088 1.615
42.3391 1.302
42.3694 1.979
42.3996 1.302
42.4299 2.396
42.4602 2.083
42.4905 2.292
42.5208 1.823
42.5510 3.125
42.5813 1.979
42.6116 1.875
42.6419 1.719
42.6721 1.615
42.7024 1.667
42.7327 2.031
42.7630 1.562
42.7933 1.823
42.8235 1.667
42.8538 2.240
42.8841 2.083
42.9144 1.823
42.9447 1.979
42.9749 1.562
43.0052 1.823
43.0355 0.990
43.0658 1.562
43.0960 1.510
43.1263 1.875
43.1566 1.667
43.1869 1.562
43.2172 1.146
43.2474 1.458
43.2777 1.875
43.3080 2.187
43.3383 2.135
43.3686 1.719
43.3988 1.771
43.4291 1.302
43.4594 2.031
43.4897 1.823
43.5199 1.771
43.5502 2.448
43.5805 1.875
43.6108 1.875
43.6411 1.875
43.6713 1.302
43.7016 2.083
43.7319 2.083
43.7622 1.302
43.7925 1.823
43.8227 1.198
43.8530 2.083
43.8833 1.875
43.9136 1.458
43.9439 1.250
43.9741 2.135
44.0044 1.823
44.0347 1.979
44.0650 1.562
44.0952 1.667
44.1255 2.031
44.1558 2.396
44.1861 1.667
44.2164 1.667
44.2466 2.344
44.2769 1.927
44.3072 2.135
44.3375 1.771
44.3678 2.396
44.3980 1.719
44.4283 2.135
44.4586 2.187
44.4889 2.500
44.5191 1.771
44.5494 1.562
44.5797 1.823
44.6100 1.771
44.6403 1.875
44.6705 2.083
44.7008 1.927
44.7311 1.719
44.7614 1.719
44.7917 2.187
44.8219 1.562
44.8522 1.771
44.8825 1.875
44.9128 2.656
44.9430 1.719
44.9733 2.083
45.0036 1.667
45.0339 1.823
45.0642 2.656
45.0944 2.135
45.1247 1.979
45.1550 1.771
45.1853 1.667
45.2156 2.500
45.2458 2.135
45.2761 1.979
45.3064 1.615
45.3367 1.927
45.3669 2.240
45.3972 2.187
45.4275 1.875
45.4578 1.615
45.4881 1.927
45.5183 2.292
45.5486 1.979
45.5789 2.448
45.6092 1.302
45.6395 1.927
45.6697 2.031
45.7000 1.667
45.7303 1.823
45.7606 2.552
45.7908 1.510
45.8211 1.771
45.8514 1.667
45.8817 1.927
45.9120 1.823
45.9422 2.187
45.9725 2.344
46.0028 1.562
46.0331 2.187
46.0634 1.979
46.0936 2.604
46.1239 2.083
46.1542 1.979
46.1845 2.448
46.2147 2.708
46.2450 2.135
46.2753 2.604
46.3056 2.292
46.3359 3.229
46.3661 3.333
46.3964 2.448
46.4267 2.760
46.4570 1.510
46.4873 3.594
46.5175 3.333
46.5478 2.240
46.5781 2.865
46.6084 3.698
46.6386 3.281
46.6689 3.021
46.6992 2.760
46.7295 3.281
46.7598 3.490
46.7900 3.125
46.8203 2.969
46.8506 4.115
46.8809 4.062
46.9112 3.750
46.9414 4.583
46.9717 4.583
47.0020 4.948
47.0323 6.042
47.0626 5.885
47.0928 5.990
47.1231 6.562
47.1534 8.177
47.1837 8.021
47.2139 9.062
47.2442 8.958
47.2745 10.677
47.3048 10.417
47.3351 10.573
47.3653 12.656
47.3956 11.354
47.4259 11.979
47.4562 12.552
47.4865 13.594
47.5167 10.625
47.5470 10.833
47.5773 10.625
47.6076 9.844
47.6378 9.271
47.6681 8.698
47.6984 8.073
47.7287 7.135
47.7590 5.156
47.7892 4.635
47.8195 6.302
47.8498 5.625
47.8801 5.104
47.9104 4.792
47.9406 4.010
47.9709 3.854
48.0012 4.479
48.0315 2.604
48.0617 2.552
48.0920 3.281
48.1223 2.760
48.1526 2.760
48.1829 2.760
48.2131 2.031
48.2434 2.552
48.2737 3.437
48.3040 2.552
48.3343 2.292
48.3645 2.448
48.3948 2.708
48.4251 2.240
48.4554 2.448
48.4856 1.979
48.5159 1.875
48.5462 1.927
48.5765 2.031
48.6068 1.667
48.6370 1.927
48.6673 1.927
48.6976 2.396
48.7279 2.031
48.7582 1.458
48.7884 1.667
48.8187 2.083
48.8490 2.292
48.8793 2.396
48.9095 2.292
48.9398 2.344
48.9701 2.083
49.0004 2.187
49.0307 1.875
49.0609 2.031
49.0912 1.771
49.1215 2.187
49.1518 2.031
49.1821 2.396
49.2123 2.396
49.2426 1.771
49.2729 2.031
49.3032 1.458
49.3334 2.031
49.3637 1.406
49.3940 1.458
49.4243 1.667
49.4546 2.396
49.4848 2.083
49.5151 1.927
49.5454 2.708
49.5757 2.083
49.6060 1.562
49.6362 1.354
49.6665 2.812
49.6968 1.562
49.7271 1.510
49.7574 1.719
49.7876 2.448
49.8179 1.094
49.8482 1.927
49.8785 1.823
49.9087 1.979
49.9390 1.615
49.9693 2.083
49.9996 1.927
50.0299 2.083
50.0601 2.187
50.0904 2.083
50.1207 1.979
50.1510 1.250
50.1813 1.250
50.2115 1.875
50.2418 2.187
50.2721 1.406
50.3024 2.187
50.3326 1.562
50.3629 1.250
50.3932 2.031
50.4235 2.083
50.4538 2.083
50.4840 2.031
50.5143 1.562
50.5446 1.562
50.5749 1.927
50.6052 1.458
50.6354 2.031
50.6657 2.083
50.6960 1.979
50.7263 1.719
50.7565 1.719
50.7868 1.719
50.8171 1.406
50.8474 1.302
50.8777 1.406
50.9079 1.719
50.9382 1.510
50.9685 2.031
50.9988 1.771
51.0291 1.719
51.0593 1.510
51.0896 1.719
51.1199 1.823
51.1502 1.823
51.1804 1.458
51.2107 1.823
51.2410 1.771
51.2713 1.562
51.3016 1.979
51.3318 2.031
51.3621 1.875
51.3924 1.719
51.4227 1.562
51.4530 1.719
51.4832 1.823
51.5135 1.615
51.5438 1.302
51.5741 1.771
51.6043 1.667
51.6346 1.562
51.6649 1.510
51.6952 1.719
51.7255 1.094
51.7557 1.719
51.7860 1.979
51.8163 1.562
51.8466 1.406
51.8769 1.562
51.9071 1.458
51.9374 1.302
51.9677 1.823
51.9980 1.927
52.0282 1.667
52.0585 1.823
52.0888 1.771
52.1191 1.406
52.1494 1.562
52.1796 2.135
52.2099 1.510
52.2402 1.875
52.2705 1.250
52.3008 1.823
52.3310 1.823
52.3613 1.510
52.3916 2.031
52.4219 1.719
52.4521 1.562
52.4824 1.615
52.5127 2.083
52.5430 1.875
52.5733 1.719
52.6035 1.406
52.6338 1.354
52.6641 1.875
52.6944 1.667
52.7247 1.615
52.7549 1.562
52.7852 1.562
52.8155 1.510
52.8458 1.667
52.8761 1.979
52.9063 1.875
52.9366 1.354
52.9669 1.875
52.9972 1.719
53.0274 1.667
53.0577 1.667
53.0880 1.458
53.1183 1.562
53.1486 2.187
53.1788 2.031
53.2091 1.979
53.2394 1.771
53.2697 1.667
53.3000 1.979
53.3302 1.667
53.3605 1.927
53.3908 1.823
53.4211 2.448
53.4513 2.083
53.4816 1.406
53.5119 1.458
53.5422 1.510
53.5725 1.875
53.6027 1.458
53.6330 2.240
53.6633 1.823
53.6936 2.031
53.7239 2.187
53.7541 1.510
53.7844 1.771
53.8147 2.083
53.8450 1.823
53.8752 1.927
53.9055 1.927
53.9358 1.302
53.9661 1.979
53.9964 1.250
54.0266 2.240
54.0569 1.562
54.0872 2.135
54.1175 2.292
54.1478 1.979
54.1780 1.875
54.2083 1.875
54.2386 1.823
54.2689 1.667
54.2991 1.771
54.3294 2.292
54.3597 1.615
54.3900 1.823
54.4203 1.771
54.4505 1.979
54.4808 1.927
54.5111 1.875
54.5414 1.875
54.5717 2.187
54.6019 2.135
54.6322 1.823
54.6625 1.875
54.6928 1.719
54.7230 1.979
54.7533 2.969
54.7836 2.083
54.8139 1.875
54.8442 1.771
54.8744 1.250
54.9047 2.292
54.9350 1.823
54.9653 2.083
54.9956 2.135
55.0258 2.448
55.0561 1.927
55.0864 2.448
55.1167 2.708
55.1469 1.927
55.1772 1.979
55.2075 2.083
55.2378 2.396
55.2681 2.604
55.2983 2.448
55.3286 3.125
55.3589 2.396
55.3892 2.500
55.4195 2.656
55.4497 2.240
55.4800 3.490
55.5103 2.604
55.5406 3.073
55.5709 3.021
55.6011 3.646
55.6314 3.437
55.6617 3.594
55.6920 3.594
55.7222 4.167
55.7525 3.750
55.7828 4.219
55.8131 4.167
55.8434 3.750
55.8736 4.010
55.9039 5.000
55.9342 5.104
55.9645 5.781
55.9948 5.833
56.0250 6.042
56.0553 7.135
56.0856 7.083
56.1159 8.281
56.1461 7.708
56.1764 8.125
56.2067 9.062
56.2370 10.208
56.2673 11.042
56.2975 11.719
56.3278 12.500
56.3581 12.500
56.3884 15.729
56.4187 14.635
56.4489 14.583
56.4792 14.375
56.5095 16.719
56.5398 16.979
56.5700 15.573
56.6003 13.490
56.6306 12.083
56.6609 12.500
56.6912 11.562
56.7214 10.208
56.7517 9.427
56.7820 8.437
56.8123 8.906
56.8426 6.771
56.8728 6.406
56.9031 6.771
56.9334 6.302
56.9637 5.156
56.9939 4.896
57.0242 5.052
57.0545 4.115
57.0848 4.896
57.1151 4.792
57.1453 4.792
57.1756 3.802
57.2059 4.219
57.2362 3.802
57.2665 2.917
57.2967 3.437
57.3270 3.073
57.3573 3.854
57.3876 3.229
57.4178 2.812
57.4481 2.917
57.4784 2.135
57.5087 2.812
57.5390 2.187
57.5692 3.021
57.5995 2.708
57.6298 2.656
57.6601 2.135
57.6904 3.333
57.7206 1.771
57.7509 2.292
57.7812 2.031
57.8115 2.552
57.8417 2.031
57.8720 2.865
57.9023 2.187
57.9326 2.135
57.9629 1.875
57.9931 2.240
58.0234 1.875
58.0537 2.240
58.0840 1.823
58.1143 1.719
58.1445 2.344
58.1748 2.240
58.2051 2.031
58.2354 2.344
58.2656 2.031
58.2959 1.823
58.3262 1.927
58.3565 1.458
58.3868 1.823
58.4170 2.292
58.4473 2.344
58.4776 1.771
58.5079 1.562
58.5382 1.771
58.5684 2.031
58.5987 1.823
58.6290 1.719
58.6593 2.344
58.6896 2.083
58.7198 1.354
58.7501 2.083
58.7804 1.771
58.8107 1.458
58.8409 2.865
58.8712 1.354
58.9015 1.875
58.9318 1.510
58.9621 2.187
58.9923 1.823
59.0226 1.562
59.0529 1.719
59.0832 2.344
59.1135 1.927
59.1437 2.187
59.1740 1.510
59.2043 1.979
59.2346 1.979
59.2648 2.187
59.2951 2.240
59.3254 2.187
59.3557 1.771
59.3860 2.187
59.4162 2.448
59.4465 1.667
59.4768 2.135
59.5071 1.771
59.5374 2.083
59.5676 1.302
59.5979 1.510
59.6282 1.510
59.6585 1.146
59.6887 2.135
59.7190 2.135
59.7493 1.250
59.7796 1.771
59.8099 1.927
59.8401 1.510
59.8704 1.510
59.9007 1.719
59.9310 1.979
59.9613 2.135
59.9915 1.771
60.0218 1.927
60.0521 1.562
60.0824 2.031
60.1126 1.927
60.1429 1.510
60.1732 2.187
60.2035 1.927
60.2338 2.344
60.2640 1.615
60.2943 2.448
60.3246 1.562
60.3549 1.875
60.3852 1.615
60.4154 1.667
60.4457 1.823
60.4760 2.083
60.5063 1.667
60.5365 1.719
60.5668 1.719
60.5971 1.719
60.6274 1.875
60.6577 2.135
60.6879 1.927
60.7182 1.927
60.7485 1.927
60.7788 1.927
60.8091 1.562
60.8393 1.875
60.8696 2.083
60.8999 1.927
60.9302 2.083
60.9604 2.031
60.9907 1.979
61.0210 1.927
61.0513 1.771
61.0816 2.552
61.1118 2.083
61.1421 1.927
61.1724 1.927
61.2027 2.344
61.2330 2.292
61.2632 1.979
61.2935 2.500
61.3238 1.979
61.3541 2.031
61.3844 2.031
61.4146 2.292
61.4449 2.396
61.4752 1.875
61.5055 2.448
61.5357 1.927
61.5660 2.396
61.5963 2.187
61.6266 1.875
61.6569 1.771
61.6871 1.927
61.7174 2.552
61.7477 2.396
61.7780 3.073
61.8083 2.760
61.8385 2.031
61.8688 2.552
61.8991 2.604
61.9294 3.021
61.9596 2.969
61.9899 2.812
62.0202 2.917
62.0505 3.490
62.0808 3.125
62.1110 4.948
62.1413 3.490
62.1716 4.687
62.2019 4.896
62.2322 4.531
62.2624 4.219
62.2927 5.469
62.3230 5.937
62.3533 5.833
62.3835 6.302
62.4138 6.458
62.4441 8.698
62.4744 7.656
62.5047 8.594
62.5349 10.000
62.5652 9.635
62.5955 11.250
62.6258 12.656
62.6561 12.292
62.6863 11.615
62.7166 12.396
62.7469 14.583
62.7772 11.979
62.8074 13.021
62.8377 13.281
62.8680 11.562
62.8983 12.500
62.9286 10.417
62.9588 9.896
62.9891 7.448
63.0194 7.656
63.0497 7.969
63.0800 8.802
63.1102 7.031
63.1405 6.094
63.1708 6.042
63.2011 5.781
63.2313 5.417
63.2616 4.219
63.2919 4.427
63.3222 4.167
63.3525 4.740
63.3827 4.427
63.4130 3.750
63.4433 3.698
63.4736 3.125
63.5039 3.333
63.5341 3.021
63.5644 3.229
63.5947 2.760
63.6250 2.708
63.6552 2.812
63.6855 2.031
63.7158 1.927
63.7461 2.500
63.7764 2.448
63.8066 2.552
63.8369 2.396
63.8672 2.292
63.8975 2.396
63.9278 2.344
63.9580 2.031
63.9883 2.083
64.0186 1.823
64.0489 2.344
64.0791 1.875
64.1094 2.031
64.1397 2.240
64.1700 2.135
64.2003 2.292
64.2305 2.292
64.2608 1.927
64.2911 1.875
64.3214 1.406
64.3517 2.344
64.3819 1.875
64.4122 2.396
64.4425 2.292
64.4728 1.562
64.5031 1.562
64.5333 2.917
64.5636 2.240
64.5939 1.927
64.6242 1.615
64.6544 2.760
64.6847 1.979
64.7150 1.823
64.7453 2.396
64.7756 1.823
64.8058 1.667
64.8361 2.448
64.8664 1.562
64.8967 1.719
64.9270 1.823
64.9572 2.135
64.9875 1.771
65.0178 1.771
65.0481 1.302
65.0783 2.812
65.1086 2.083
65.1389 2.552
65.1692 1.354
65.1995 1.927
65.2297 2.500
65.2600 1.510
65.2903 2.292
65.3206 1.615
65.3509 2.448
65.3811 2.448
65.4114 1.823
65.4417 1.823
65.4720 1.927
65.5022 2.552
65.5325 2.344
65.5628 2.083
65.5931 2.187
65.6234 2.500
65.6536 1.927
65.6839 2.760
65.7142 2.031
65.7445 2.448
65.7748 2.656
65.8050 2.344
65.8353 2.708
65.8656 2.865
65.8959 3.490
65.9261 2.604
65.9564 2.812
65.9867 2.969
66.0170 3.177
66.0473 2.917
66.0775 3.750
66.1078 3.125
66.1381 3.125
66.1684 4.115
66.1987 2.187
66.2289 3.125
66.2592 3.490
66.2895 3.594
66.3198 3.698
66.3500 3.542
66.3803 3.021
66.4106 3.437
66.4409 3.333
66.4712 2.604
66.5014 3.490
66.5317 3.177
66.5620 2.917
66.5923 3.490
66.6226 2.396
66.6528 3.281
66.6831 3.542
66.7134 2.448
66.7437 3.229
66.7739 2.708
66.8042 3.021
66.8345 2.448
66.8648 2.760
66.8951 3.594
66.9253 3.177
66.9556 3.594
66.9859 3.021
67.0162 3.073
67.0465 3.854
67.0767 3.906
67.1070 3.958
67.1373 4.271
67.1676 4.115
67.1978 4.062
67.2281 3.958
67.2584 4.167
67.2887 3.958
67.3190 4.479
67.3492 4.740
67.3795 4.792
67.4098 4.687
67.4401 5.312
67.4704 5.781
67.5006 6.719
67.5309 5.260
67.5612 6.042
67.5915 6.094
67.6218 7.708
67.6520 7.604
67.6823 8.437
67.7126 9.062
67.7429 8.646
67.7731 8.594
67.8034 10.937
67.8337 9.635
67.8640 10.417
67.8943 9.167
67.9245 9.844
67.9548 8.646
67.9851 9.896
68.0154 8.594
68.0457 8.125
68.0759 6.406
68.1062 7.240
68.1365 7.500
68.1668 7.448
68.1970 5.885
68.2273 6.354
68.2576 5.260
68.2879 4.948
68.3182 4.948
68.3484 4.531
68.3787 5.312
68.4090 4.896
68.4393 4.844
68.4696 4.740
68.4998 4.271
68.5301 4.323
68.5604 5.104
68.5907 4.740
68.6209 4.427
68.6512 4.427
68.6815 5.312
68.7118 5.156
68.7421 5.521
68.7723 5.833
68.8026 5.365
68.8329 4.323
68.8632 6.615
68.8935 4.427
68.9237 5.990
68.9540 5.781
68.9843 5.833
69.0146 5.365
69.0448 5.469
69.0751 5.260
69.1054 4.948
69.1357 5.365
69.1660 4.687
69.1962 4.896
69.2265 5.104
69.2568 4.531
69.2871 4.219
69.3174 4.844
69.3476 3.542
69.3779 3.333
69.4082 2.812
69.4385 2.812
69.4687 3.906
69.4990 2.812
69.5293 2.969
69.5596 3.854
69.5899 2.760
69.6201 3.177
69.6504 2.917
69.6807 2.083
69.7110 2.448
69.7413 2.396
69.7715 2.083
69.8018 1.927
69.8321 2.448
69.8624 1.667
69.8926 2.292
69.9229 1.823
69.9532 1.771
69.9835 2.292
70.0138 1.771
70.0440 1.719
70.0743 1.719
70.1046 2.708
70.1349 1.979
70.1652 2.031
70.1954 1.771
70.2257 1.406
70.2560 1.771
70.2863 1.927
70.3166 1.823
70.3468 1.354
70.3771 1.771
70.4074 1.875
70.4377 2.135
70.4679 1.875
70.4982 1.146
70.5285 1.979
70.5588 1.615
70.5891 1.562
70.6193 2.083
70.6496 1.927
70.6799 1.250
70.7102 1.719
70.7405 1.354
70.7707 2.083
70.8010 1.667
70.8313 1.562
70.8616 1.667
70.8918 1.458
70.9221 1.302
70.9524 1.667
70.9827 1.406
71.0130 1.250
71.0432 1.667
71.0735 1.458
71.1038 1.354
71.1341 1.250
71.1644 1.406
71.1946 1.562
71.2249 1.302
71.2552 1.250
71.2855 1.146
71.3157 1.250
71.3460 1.562
71.3763 1.250
71.4066 0.885
71.4369 1.979
71.4671 1.250
71.4974 1.250
71.5277 1.406
71.5580 1.615
71.5883 1.771
71.6185 1.354
71.6488 1.771
71.6791 1.823
71.7094 1.302
71.7396 1.250
71.7699 1.406
71.8002 1.250
71.8305 1.510
71.8608 1.302
71.8910 1.406
71.9213 1.458
71.9516 1.458
71.9819 1.458
72.0122 1.719
72.0424 1.354
72.0727 1.094
72.1030 1.667
72.1333 1.979
72.1635 1.250
72.1938 1.719
72.2241 2.031
72.2544 1.406
72.2847 2.083
72.3149 2.083
72.3452 1.771
72.3755 1.354
72.4058 2.240
72.4361 1.979
72.4663 1.719
72.4966 2.240
72.5269 2.135
72.5572 2.031
72.5874 2.135
72.6177 1.510
72.6480 1.771
72.6783 1.562
72.7086 1.406
72.7388 1.667
72.7691 1.719
72.7994 1.562
72.8297 2.135
72.8600 1.198
72.8902 1.146
72.9205 1.250
72.9508 1.146
72.9811 1.719
73.0113 1.302
73.0416 1.250
73.0719 2.083
73.1022 1.510
73.1325 1.562
73.1627 1.302
73.1930 1.042
73.2233 1.823
73.2536 1.406
73.2839 1.875
73.3141 1.198
73.3444 0.885
73.3747 1.094
73.4050 1.250
73.4353 1.094
73.4655 1.354
73.4958 1.510
73.5261 1.146
73.5564 1.406
73.5866 1.250
73.6169 1.406
73.6472 1.510
73.6775 1.510
73.7078 1.198
73.7380 1.250
73.7683 1.615
73.7986 1.094
73.8289 1.458
73.8592 1.458
73.8894 1.875
73.9197 1.354
73.9500 1.562
73.9803 1.250
74.0105 0.937
74.0408 1.510
74.0711 1.250
74.1014 1.771
74.1317 1.458
74.1619 1.042
74.1922 1.198
74.2225 1.198
74.2528 0.937
74.2831 1.198
74.3133 0.573
74.3436 1.406
74.3739 1.042
74.4042 1.458
74.4344 1.406
74.4647 0.990
74.4950 1.354
74.5253 1.354
74.5556 1.250
74.5858 1.198
74.6161 0.885
74.6464 1.354
74.6767 1.094
74.7070 1.250
74.7372 1.042
74.7675 1.302
74.7978 1.458
74.8281 1.771
74.8583 0.729
74.8886 1.198
74.9189 1.198
74.9492 1.510
74.9795 1.198
75.0097 0.833
75.0400 1.615
75.0703 1.094
75.1006 1.146
75.1309 1.458
75.1611 1.562
75.1914 1.667
75.2217 1.615
75.2520 1.094
75.2822 1.354
75.3125 1.771
75.3428 1.094
75.3731 0.990
75.4034 1.562
75.4336 1.458
75.4639 1.302
75.4942 1.354
75.5245 1.302
75.5548 1.615
75.5850 1.094
75.6153 0.937
75.6456 1.198
75.6759 1.458
75.7061 0.885
75.7364 1.927
75.7667 1.094
75.7970 1.406
75.8273 0.885
75.8575 1.667
75.8878 1.927
75.9181 1.250
75.9484 1.667
75.9787 0.937
76.0089 1.302
76.0392 1.667
76.0695 0.781
76.0998 1.667
76.1301 1.406
76.1603 1.354
76.1906 1.771
76.2209 1.927
76.2512 1.615
76.2814 1.667
76.3117 1.406
76.3420 1.562
76.3723 1.094
76.4026 1.354
76.4328 1.562
76.4631 1.823
76.4934 1.979
76.5237 1.615
76.5540 1.042
76.5842 2.292
76.6145 2.292
76.6448 2.083
76.6751 2.135
76.7053 2.708
76.7356 1.875
76.7659 1.667
76.7962 1.771
76.8265 1.719
76.8567 2.656
76.8870 2.292
76.9173 2.187
76.9476 2.292
76.9779 1.979
77.0081 2.344
77.0384 2.187
77.0687 2.344
77.0990 1.979
77.1292 1.562
77.1595 1.823
77.1898 2.292
77.2201 1.615
77.2504 1.562
77.2806 1.823
77.3109 1.615
77.3412 1.562
77.3715 1.198
77.4018 1.667
77.4320 1.302
77.4623 1.615
77.4926 1.615
77.5229 1.458
77.5531 1.198
77.5834 1.615
77.6137 1.042
77.6440 1.302
77.6743 1.562
77.7045 1.458
77.7348 1.562
77.7651 0.990
77.7954 1.094
77.8257 1.562
77.8559 1.510
77.8862 0.990
77.9165 1.198
77.9468 1.823
77.9770 1.354
78.0073 0.937
78.0376 0.729
78.0679 0.885
78.0982 1.510
78.1284 1.406
78.1587 1.302
78.1890 1.875
78.2193 1.042
78.2496 1.562
78.2798 1.458
78.3101 1.146
78.3404 0.729
78.3707 1.094
78.4009 1.250
78.4312 0.833
78.4615 0.990
78.4918 1.198
78.5221 1.198
78.5523 0.937
78.5826 1.667
78.6129 1.562
78.6432 1.615
78.6735 1.198
78.7037 1.302
78.7340 0.937
78.7643 1.094
78.7946 1.406
78.8248 0.833
78.8551 1.458
78.8854 0.937
78.9157 1.146
78.9460 1.354
78.9762 0.937
79.0065 1.250
79.0368 0.937
79.0671 1.562
79.0974 1.198
79.1276 0.885
79.1579 1.198
79.1882 0.833
79.2185 0.729
79.2488 1.146
79.2790 1.042
79.3093 1.198
79.3396 0.833
79.3699 1.302
79.4001 0.885
79.4304 0.937
79.4607 1.042
79.4910 0.833
79.5213 0.677
79.5515 0.990
79.5818 1.354
79.6121 1.562
79.6424 0.990
79.6727 1.354
79.7029 1.198
79.7332 0.781
79.7635 0.937
79.7938 1.198
79.8240 1.042
79.8543 1.042
79.8846 1.146
79.9149 1.198
79.9452 1.094
79.9754 1.042
80.0057 1.667
80.0360 0.990
80.0663 1.302
80.0966 1.198
80.1268 1.302
80.1571 1.146
80.1874 1.615
80.2177 1.302
80.2479 1.302
80.2782 1.667
80.3085 1.198
80.3388 1.406
80.3691 1.302
80.3993 0.990
80.4296 0.990
80.4599 1.146
80.4902 0.781
80.5205 1.354
80.5507 1.615
80.5810 0.885
80.6113 1.458
80.6416 1.458
80.6718 1.250
80.7021 1.354
80.7324 0.937
80.7627 1.146
80.7930 1.146
80.8232 2.135
80.8535 1.667
80.8838 1.354
80.9141 1.458
80.9444 1.094
80.9746 1.510
81.0049 1.406
81.0352 1.667
81.0655 1.562
81.0957 1.250
81.1260 1.667
81.1563 1.562
81.1866 1.562
81.2169 1.875
81.2471 1.875
81.2774 1.771
81.3077 1.615
81.3380 1.667
81.3683 1.406
81.3985 1.458
81.4288 2.240
81.4591 1.875
81.4894 1.302
81.5196 1.510
81.5499 1.510
81.5802 1.406
81.6105 1.667
81.6408 1.094
81.6710 1.094
81.7013 1.875
81.7316 1.354
81.7619 1.458
81.7922 1.302
81.8224 1.562
81.8527 1.406
81.8830 1.042
81.9133 1.823
81.9436 1.250
81.9738 1.562
82.0041 1.198
82.0344 1.667
82.0647 1.562
82.0949 1.198
82.1252 1.458
82.1555 1.250
82.1858 1.406
82.2161 0.833
82.2463 1.458
82.2766 0.990
82.3069 1.042
82.3372 1.406
82.3675 1.510
82.3977 1.406
82.4280 0.937
82.4583 1.094
82.4886 0.833
82.5188 1.562
82.5491 0.937
82.5794 1.354
82.6097 0.937
82.6400 0.885
82.6702 1.146
82.7005 1.198
82.7308 1.198
82.7611 1.562
82.7914 1.198
82.8216 0.729
82.8519 0.729
82.8822 1.771
82.9125 0.937
82.9427 1.302
82.9730 1.198
83.0033 1.302
83.0336 1.042
83.0639 0.937
83.0941 1.094
83.1244 0.833
83.1547 1.250
83.1850 1.198
83.2153 1.667
83.2455 1.510
83.2758 1.042
83.3061 1.146
83.3364 1.667
83.3666 1.094
83.3969 1.146
83.4272 1.094
83.4575 0.885
83.4878 1.354
83.5180 1.094
83.5483 1.146
83.5786 1.198
83.6089 1.042
83.6392 1.250
83.6694 1.510
83.6997 0.990
83.7300 0.677
83.7603 0.937
83.7905 1.198
83.8208 0.885
83.8511 1.198
83.8814 1.250
83.9117 1.719
83.9419 1.302
83.9722 0.885
84.0025 0.885
84.0328 1.094
84.0631 0.990
84.0933 1.615
84.1236 1.198
84.1539 0.833
84.1842 0.990
84.2144 1.042
84.2447 1.354
84.2750 0.937
84.3053 1.510
84.3356 1.198
84.3658 0.521
84.3961 1.250
84.4264 1.094
84.4567 1.094
84.4870 1.354
84.5172 1.042
84.5475 0.781
84.5778 1.094
84.6081 1.042
84.6383 1.562
84.6686 1.042
84.6989 1.406
84.7292 1.198
84.7595 0.885
84.7897 1.510
84.8200 0.990
84.8503 1.406
84.8806 0.937
84.9109 0.729
84.9411 1.146
84.9714 0.625
85.0017 1.354
85.0320 1.250
85.0623 1.250
85.0925 1.354
85.1228 1.667
85.1531 1.406
85.1834 0.833
85.2136 1.198
85.2439 1.354
85.2742 1.198
85.3045 0.990
85.3348 1.094
85.3650 1.354
85.3953 0.990
85.4256 1.042
85.4559 1.719
85.4862 1.250
85.5164 1.458
85.5467 0.937
85.5770 0.990
85.6073 1.510
85.6375 1.250
85.6678 1.458
85.6981 1.042
85.7284 1.198
85.7587 0.781
85.7889 1.198
85.8192 1.042
85.8495 1.198
85.8798 0.937
85.9101 1.094
85.9403 1.146
85.9706 0.781
86.0009 1.198
86.0312 1.250
86.0614 1.042
86.0917 1.615
86.1220 1.042
86.1523 0.573
86.1826 1.250
86.2128 1.458
86.2431 1.042
86.2734 1.198
86.3037 1.094
86.3340 1.198
86.3642 0.781
86.3945 1.094
86.4248 0.677
86.4551 1.042
86.4853 1.250
86.5156 1.198
86.5459 0.781
86.5762 1.406
86.6065 0.885
86.6367 1.510
86.6670 0.729
86.6973 1.094
86.7276 1.302
86.7579 1.042
86.7881 1.094
86.8184 0.990
86.8487 1.406
86.8790 1.510
86.9092 0.729
86.9395 1.146
86.9698 1.042
87.0001 1.615
87.0304 0.937
87.0606 1.250
87.0909 1.146
87.1212 0.990
87.1515 1.094
87.1818 1.146
87.2120 0.781
87.2423 1.042
87.2726 1.510
87.3029 1.667
87.3331 1.667
87.3634 1.562
87.3937 0.990
87.4240 1.406
87.4543 1.302
87.4845 0.990
87.5148 1.198
87.5451 0.990
87.5754 1.250
87.6057 1.146
87.6359 1.615
87.6662 1.250
87.6965 1.042
87.7268 0.781
87.7571 1.042
87.7873 1.094
87.8176 0.937
87.8479 1.146
87.8782 1.198
87.9084 1.198
87.9387 1.458
87.9690 0.990
87.9993 1.510
88.0296 0.729
88.0598 1.667
88.0901 1.458
88.1204 1.198
88.1507 1.094
88.1810 1.562
88.2112 0.990
88.2415 1.094
88.2718 1.458
88.3021 1.510
88.3323 0.937
88.3626 1.406
88.3929 1.250
88.4232 1.250
88.4535 1.094
88.4837 1.615
88.5140 1.406
88.5443 0.937
88.5746 1.562
88.6049 1.667
88.6351 1.510
88.6654 2.031
88.6957 1.667
88.7260 1.510
88.7562 1.719
88.7865 2.240
88.8168 1.719
88.8471 2.187
88.8774 1.562
88.9076 1.406
88.9379 2.396
88.9682 1.667
88.9985 1.823
89.0288 1.823
89.0590 2.135
89.0893 1.979
89.1196 2.552
89.1499 2.552
89.1801 2.448
89.2104 1.667
89.2407 1.875
89.2710 2.135
89.3013 2.448
89.3315 2.500
89.3618 2.604
89.3921 3.021
89.4224 2.760
89.4527 3.437
89.4829 2.969
89.5132 3.594
89.5435 3.281
89.5738 3.177
89.6040 3.229
89.6343 2.604
89.6646 2.448
89.6949 3.385
89.7252 2.917
89.7554 2.865
89.7857 3.385
89.8160 3.073
89.8463 2.969
89.8766 2.604
89.9068 2.187
89.9371 2.604
89.9674 2.552
89.9977 2.448
90.0279 1.927
90.0582 2.187
90.0885 2.083
90.1188 2.292
90.1491 2.031
90.1793 1.823
90.2096 1.042
90.2399 1.979
90.2702 1.250
90.3005 1.562
90.3307 1.510
90.3610 1.146
90.3913 1.406
90.4216 1.771
90.4518 1.198
90.4821 1.094
90.5124 1.823
90.5427 1.719
90.5730 0.937
90.6032 1.458
90.6335 1.354
90.6638 1.198
90.6941 1.354
90.7244 1.250
90.7546 0.833
90.7849 1.562
90.8152 1.198
90.8455 1.198
90.8758 1.667
90.9060 0.990
90.9363 1.042
90.9666 1.615
90.9969 1.354
91.0271 1.510
91.0574 1.042
91.0877 1.146
91.1180 1.198
91.1483 1.458
91.1785 1.667
91.2088 0.833
91.2391 1.250
91.2694 0.885
91.2997 0.990
91.3299 1.354
91.3602 1.406
91.3905 1.406
91.4208 1.719
91.4510 1.354
91.4813 1.406
91.5116 1.146
91.5419 1.146
91.5722 1.406
91.6024 0.781
91.6327 1.510
91.6630 1.198
91.6933 1.354
91.7236 1.354
91.7538 1.927
91.7841 1.250
91.8144 1.198
91.8447 1.615
91.8749 1.198
91.9052 1.146
91.9355 1.094
91.9658 1.198
91.9961 0.885
92.0263 1.562
92.0566 1.406
92.0869 1.771
92.1172 1.667
92.1475 1.042
92.1777 0.885
92.2080 1.823
92.2383 1.667
92.2686 1.615
92.2988 1.667
92.3291 1.302
92.3594 1.250
92.3897 2.083
92.4200 1.771
92.4502 1.667
92.4805 1.615
92.5108 1.771
92.5411 1.667
92.5714 2.083
92.6016 2.031
92.6319 1.406
92.6622 1.771
92.6925 1.719
92.7227 1.771
92.7530 1.667
92.7833 1.667
92.8136 1.302
92.8439 2.396
92.8741 1.458
92.9044 1.562
92.9347 1.667
92.9650 1.615
92.9953 1.354
93.0255 1.458
93.0558 1.406
93.0861 1.510
93.1164 1.354
93.1466 1.198
93.1769 1.719
93.2072 1.719
93.2375 1.823
93.2678 1.458
93.2980 1.406
93.3283 1.354
93.3586 1.094
93.3889 1.094
93.4192 1.615
93.4494 1.875
93.4797 1.354
93.5100 0.885
93.5403 1.198
93.5706 0.781
93.6008 1.510
93.6311 1.406
93.6614 1.615
93.6917 1.823
93.7219 1.042
93.7522 1.198
93.7825 1.667
93.8128 1.615
93.8431 1.198
93.8733 1.510
93.9036 1.198
93.9339 1.302
93.9642 1.094
93.9945 1.979
94.0247 1.719
94.0550 1.094
94.0853 1.771
94.1156 1.354
94.1458 1.354
94.1761 1.719
94.2064 1.823
94.2367 0.833
94.2670 1.771
94.2972 2.187
94.3275 1.510
94.3578 1.302
94.3881 1.510
94.4184 1.250
94.4486 1.562
94.4789 2.031
94.5092 1.458
94.5395 1.354
94.5697 1.719
94.6000 1.927
94.6303 1.823
94.6606 2.031
94.6909 2.292
94.7211 2.552
94.7514 1.250
94.7817 1.719
94.8120 2.240
94.8423 2.552
94.8725 2.656
94.9028 2.240
94.9331 2.552
94.9634 2.760
94.9936 2.812
95.0239 2.500
95.0542 2.760
95.0845 2.865
95.1148 3.021
95.1450 2.865
95.1753 3.437
95.2056 3.073
95.2359 2.500
95.2662 2.604
95.2964 2.708
95.3267 2.396
95.3570 2.187
95.3873 2.969
95.4175 2.969
95.4478 2.760
95.4781 2.396
95.5084 2.187
95.5387 2.396
95.5689 2.552
95.5992 2.500
95.6295 2.708
95.6598 2.708
95.6901 2.552
95.7203 1.719
95.7506 1.979
95.7809 1.979
95.8112 2.031
95.8414 2.344
95.8717 1.875
95.9020 1.875
95.9323 1.667
95.9626 1.250
95.9928 1.458
96.0231 2.240
96.0534 1.562
96.0837 1.562
96.1140 1.406
96.1442 1.458
96.1745 2.135
96.2048 1.250
96.2351 1.719
96.2653 1.562
96.2956 1.510
96.3259 1.771
96.3562 1.250
96.3865 1.250
96.4167 1.510
96.4470 2.240
96.4773 1.771
96.5076 1.354
96.5379 1.615
96.5681 1.250
96.5984 1.406
96.6287 1.354
96.6590 1.250
96.6893 1.250
96.7195 1.458
96.7498 1.510
96.7801 1.146
96.8104 1.302
96.8406 1.250
96.8709 1.354
96.9012 0.990
96.9315 1.042
96.9618 1.406
96.9920 1.250
97.0223 1.458
97.0526 1.146
97.0829 0.885
97.1132 2.552
97.1434 1.771
97.1737 1.302
97.2040 1.198
97.2343 1.198
97.2645 0.885
97.2948 1.510
97.3251 0.990
97.3554 1.510
97.3857 1.927
97.4159 1.667
97.4462 2.031
97.4765 2.240
97.5068 1.406
97.5371 1.458
97.5673 1.771
97.5976 1.719
97.6279 1.719
97.6582 1.562
97.6884 1.146
97.7187 1.719
97.7490 1.354
97.7793 1.562
97.8096 1.458
97.8398 1.250
97.8701 1.510
97.9004 1.823
97.9307 1.250
97.9610 1.146
97.9912 2.135
98.0215 1.562
98.0518 1.667
98.0821 1.771
98.1123 1.406
98.1426 2.187
98.1729 1.719
98.2032 2.240
98.2335 1.979
98.2637 1.875
98.2940 1.823
98.3243 1.979
98.3546 1.406
98.3849 1.667
98.4151 1.719
98.4454 2.292
98.4757 2.292
98.5060 2.135
98.5362 1.979
98.5665 1.667
98.5968 1.823
98.6271 2.083
98.6574 1.771
98.6876 2.656
98.7179 1.719
98.7482 1.823
98.7785 2.448
98.8088 1.979
98.8390 1.927
98.8693 1.771
98.8996 1.302
98.9299 1.615
98.9601 1.875
98.9904 1.667
99.0207 1.823
99.0510 1.719
99.0813 1.146
99.1115 1.562
99.1418 1.719
99.1721 1.302
99.2024 1.562
99.2327 1.302
99.2629 1.146
99.2932 1.771
99.3235 1.198
99.3538 1.250
99.3841 1.458
99.4143 1.198
99.4446 1.302
99.4749 1.510
99.5052 1.302
99.5354 1.302
99.5657 1.302
99.5960 1.146
99.6263 0.833
99.6566 1.146
99.6868 1.302
99.7171 1.094
99.7474 0.990
99.7777 1.198
99.8080 1.615
99.8382 1.771
99.8685 1.302
99.8988 1.302
99.9291 1.562
99.9593 1.406
99.9896 1.562
100.0199 1.354
100.0502 1.510
100.0805 1.042
100.1107 0.781
100.1410 1.875
100.1713 1.510
100.2016 1.146
100.2319 1.302
100.2621 1.094
100.2924 1.302
100.3227 1.667
100.3530 1.198
100.3832 1.250
100.4135 1.406
100.4438 1.198
100.4741 1.302
100.5044 0.937
100.5346 1.667
100.5649 1.042
100.5952 1.562
100.6255 1.354
100.6558 1.458
100.6860 1.250
100.7163 1.250
100.7466 1.198
100.7769 1.302
100.8071 1.042
100.8374 1.406
100.8677 1.302
100.8980 1.042
100.9283 1.458
100.9585 0.990
100.9888 1.458
101.0191 1.406
101.0494 1.406
101.0797 1.302
101.1099 0.990
101.1402 1.302
101.1705 0.937
101.2008 1.042
101.2310 1.302
101.2613 1.667
101.2916 1.771
101.3219 1.198
101.3522 1.354
101.3824 1.667
101.4127 1.198
101.4430 1.250
101.4733 1.094
101.5036 1.146
101.5338 1.250
101.5641 1.146
101.5944 1.354
101.6247 1.198
101.6549 1.406
101.6852 1.198
101.7155 0.677
101.7458 0.885
101.7761 1.354
101.8063 1.406
101.8366 1.146
101.8669 1.510
101.8972 1.146
101.9275 1.302
101.9577 1.146
101.9880 1.354
102.0183 1.458
102.0486 1.719
102.0788 1.771
102.1091 1.719
102.1394 1.302
102.1697 1.875
102.2000 1.875
102.2302 1.354
102.2605 1.667
102.2908 0.833
102.3211 1.719
102.3514 1.302
102.3816 1.771
102.4119 1.562
102.4422 1.562
102.4725 1.562
102.5028 1.510
102.5330 1.302
102.5633 1.354
102.5936 2.240
102.6239 1.615
102.6541 1.927
102.6844 1.615
102.7147 3.229
102.7450 2.031
102.7753 1.667
102.8055 2.396
102.8358 1.875
102.8661 2.448
102.8964 1.875
102.9267 2.500
102.9569 2.187
102.9872 1.250
103.0175 2.708
103.0478 1.927
103.0780 1.667
103.1083 1.927
103.1386 1.823
103.1689 1.823
103.1992 1.302
103.2294 1.510
103.2597 2.604
103.2900 1.875
103.3203 1.562
103.3506 1.406
103.3808 1.875
103.4111 1.719
103.4414 1.875
103.4717 1.667
103.5019 2.083
103.5322 1.979
103.5625 1.667
103.5928 1.875
103.6231 1.927
103.6533 1.719
103.6836 1.823
103.7139 2.240
103.7442 2.083
103.7745 2.031
103.8047 2.240
103.8350 1.979
103.8653 2.031
103.8956 2.344
103.9258 2.187
103.9561 2.917
103.9864 2.292
104.0167 2.292
104.0470 2.448
104.0772 2.396
104.1075 2.083
104.1378 2.031
104.1681 3.073
104.1984 1.927
104.2286 3.073
104.2589 2.500
104.2892 2.240
104.3195 2.448
104.3497 2.083
104.3800 1.771
104.4103 2.031
104.4406 2.135
104.4709 2.500
104.5011 2.187
104.5314 1.823
104.5617 1.719
104.5920 1.979
104.6223 1.354
104.6525 1.198
104.6828 2.187
104.7131 1.667
104.7434 2.031
104.7736 0.937
104.8039 1.927
104.8342 2.031
104.8645 1.458
104.8948 1.667
104.9250 1.719
104.9553 1.406
104.9856 1.146
105.0159 1.510
105.0462 1.562
105.0764 1.146
105.1067 1.510
105.1370 1.406
105.1673 1.406
105.1975 1.146
105.2278 1.250
105.2581 1.667
105.2884 1.667
105.3187 1.406
105.3489 1.354
105.3792 0.833
105.4095 1.354
105.4398 1.510
105.4701 1.250
105.5003 1.198
105.5306 1.562
105.5609 1.719
105.5912 1.406
105.6215 1.562
105.6517 1.615
105.6820 1.615
105.7123 1.771
105.7426 1.771
105.7728 1.562
105.8031 1.615
105.8334 1.458
105.8637 1.458
105.8940 1.042
105.9242 1.510
105.9545 1.458
105.9848 0.885
106.0151 1.250
106.0454 1.562
106.0756 1.458
106.1059 1.458
106.1362 1.094
106.1665 1.146
106.1967 0.833
106.2270 0.937
106.2573 0.990
106.2876 1.354
106.3179 0.937
106.3481 1.302
106.3784 1.146
106.4087 1.458
106.4390 1.146
106.4693 1.302
106.4995 0.990
106.5298 1.458
106.5601 0.885
106.5904 0.937
106.6206 1.146
106.6509 1.458
106.6812 1.719
106.7115 1.458
106.7418 1.198
106.7720 1.094
106.8023 1.562
106.8326 0.990
106.8629 0.937
106.8932 1.146
106.9234 0.781
106.9537 0.937
106.9840 1.302
107.0143 1.458
107.0445 1.458
107.0748 1.615
107.1051 1.562
107.1354 0.729
107.1657 1.094
107.1959 1.823
107.2262 0.937
107.2565 1.667
107.2868 0.885
107.3171 1.458
107.3473 1.406
107.3776 1.510
107.4079 0.937
107.4382 1.354
107.4684 1.146
107.4987 1.562
107.5290 0.885
107.5593 1.146
107.5896 0.729
107.6198 1.146
107.6501 1.302
107.6804 1.198
107.7107 1.406
107.7410 1.302
107.7712 1.354
107.8015 1.458
107.8318 1.406
107.8621 1.406
107.8923 1.510
107.9226 1.250
107.9529 1.250
107.9832 1.146
108.0135 1.354
108.0437 0.990
108.0740 1.406
108.1043 1.250
108.1346 1.250
108.1649 1.198
108.1951 1.250
108.2254 0.885
108.2557 0.990
108.2860 1.146
108.3163 1.354
108.3465 1.146
108.3768 1.615
108.4071 1.198
108.4374 1.875
108.4676 1.458
108.4979 1.354
108.5282 1.458
108.5585 1.094
108.5888 1.354
108.6190 0.937
108.6493 1.406
108.6796 1.094
108.7099 0.990
108.7402 1.510
108.7704 1.719
108.8007 1.146
108.8310 1.510
108.8613 1.510
108.8915 1.094
108.9218 1.198
108.9521 1.094
108.9824 1.510
109.0127 1.562
109.0429 1.250
109.0732 1.042
109.1035 1.406
109.1338 1.042
109.1641 1.146
109.1943 1.250
109.2246 1.406
109.2549 1.615
109.2852 1.198
109.3154 1.458
109.3457 1.250
109.3760 1.562
109.4063 1.094
109.4366 1.354
109.4668 1.094
109.4971 1.875
109.5274 1.562
109.5577 1.250
109.5880 1.354
109.6182 1.615
109.6485 1.562
109.6788 1.094
109.7091 1.823
109.7393 1.771
109.7696 1.562
109.7999 1.250
109.8302 1.979
109.8605 1.562
109.8907 1.979
109.9210 1.979
109.9513 1.094
109.9816 2.031
110.0119 1.823
110.0421 1.250
110.0724 1.250
110.1027 1.458
110.1330 1.562
110.1632 1.510
110.1935 1.406
110.2238 2.083
110.2541 1.927
110.2844 1.667
110.3146 2.240
110.3449 1.875
110.3752 1.667
110.4055 1.979
110.4358 1.615
110.4660 1.510
110.4963 1.771
110.5266 2.240
110.5569 1.823
110.5871 1.927
110.6174 1.667
110.6477 2.031
110.6780 1.823
110.7083 1.562
110.7385 1.875
110.7688 1.562
110.7991 1.927
110.8294 1.458
110.8597 1.771
110.8899 1.927
110.9202 1.719
110.9505 1.562
110.9808 1.250
111.0110 0.833
111.0413 1.406
111.0716 1.667
111.1019 1.667
111.1322 1.302
111.1624 1.667
111.1927 1.302
111.2230 1.354
111.2533 1.198
111.2836 1.510
111.3138 1.615
111.3441 1.615
111.3744 1.719
111.4047 1.562
111.4350 1.458
111.4652 1.667
111.4955 1.406
111.5258 1.042
111.5561 1.406
111.5863 1.250
111.6166 1.406
111.6469 1.250
111.6772 1.302
111.7075 1.302
111.7377 1.615
111.7680 1.042
111.7983 1.615
111.8286 1.562
111.8589 1.146
111.8891 1.354
111.9194 1.406
111.9497 1.042
111.9800 1.250
112.0102 1.458
112.0405 1.094
112.0708 1.615
112.1011 1.146
112.1314 0.937
112.1616 1.042
112.1919 1.094
112.2222 0.990
112.2525 0.990
112.2828 1.458
112.3130 1.667
112.3433 1.198
112.3736 0.990
112.4039 2.031
112.4341 1.146
112.4644 1.250
112.4947 1.354
112.5250 1.354
112.5553 1.302
112.5855 1.146
112.6158 1.250
112.6461 0.937
112.6764 1.146
112.7067 1.406
112.7369 1.198
112.7672 1.094
112.7975 1.510
112.8278 0.781
112.8580 1.562
112.8883 1.510
112.9186 1.771
112.9489 1.406
112.9792 1.250
113.0094 1.250
113.0397 1.250
113.0700 1.198
113.1003 1.198
113.1306 1.198
113.1608 1.094
113.1911 1.615
113.2214 1.719
113.2517 1.146
113.2819 1.562
113.3122 1.146
113.3425 1.094
113.3728 1.302
113.4031 0.937
113.4333 1.042
113.4636 1.510
113.4939 1.250
113.5242 1.510
113.5545 1.302
113.5847 0.937
113.6150 1.250
113.6453 1.146
113.6756 1.875
113.7058 1.042
113.7361 1.198
113.7664 1.042
113.7967 1.146
113.8270 1.250
113.8572 1.250
113.8875 1.302
113.9178 1.250
113.9481 1.042
113.9784 1.354
114.0086 0.885
114.0389 1.198
114.0692 1.719
114.0995 0.885
114.1298 1.458
114.1600 1.250
114.1903 1.094
114.2206 1.406
114.2509 1.562
114.2811 1.198
114.3114 0.833
114.3417 1.354
114.3720 1.406
114.4023 1.562
114.4325 1.094
114.4628 1.458
114.4931 1.042
114.5234 1.510
114.5537 1.146
114.5839 1.146
114.6142 1.354
114.6445 1.562
114.6748 1.667
114.7050 2.240
114.7353 0.990
114.7656 1.510
114.7959 1.823
114.8262 0.885
114.8564 1.250
114.8867 1.562
114.9170 1.615
114.9473 1.302
114.9776 1.458
115.0078 1.302
115.0381 1.302
115.0684 1.406
115.0987 1.667
115.1289 1.510
115.1592 1.302
115.1895 1.615
115.2198 1.458
115.2501 1.875
115.2803 1.875
115.3106 2.135
115.3409 1.510
115.3712 1.146
115.4015 1.875
115.4317 2.083
115.4620 1.354
115.4923 1.771
115.5226 2.240
115.5528 2.187
115.5831 2.240
115.6134 2.031
115.6437 2.031
115.6740 2.240
115.7042 1.875
115.7345 1.875
115.7648 2.240
115.7951 2.292
115.8254 1.198
115.8556 1.927
115.8859 2.240
115.9162 2.135
115.9465 2.656
115.9767 2.604
116.0070 2.552
116.0373 2.448
116.0676 2.760
116.0979 1.875
116.1281 2.708
116.1584 2.500
116.1887 3.021
116.2190 1.875
116.2493 2.292
116.2795 2.760
116.3098 3.281
116.3401 2.760
116.3704 1.927
116.4006 3.125
116.4309 2.865
116.4612 2.500
116.4915 2.604
116.5218 2.240
116.5520 2.760
116.5823 2.500
116.6126 2.135
116.6429 3.229
116.6732 3.125
116.7034 2.500
116.7337 2.708
116.7640 2.083
116.7943 2.448
116.8245 2.031
116.8548 1.979
116.8851 2.292
116.9154 1.927
116.9457 1.979
116.9759 2.135
117.0062 1.875
117.0365 1.927
117.0668 1.615
117.0971 1.979
117.1273 1.927
117.1576 1.615
117.1879 1.458
117.2182 1.198
117.2485 1.302
117.2787 1.979
117.3090 1.667
117.3393 1.198
117.3696 1.979
117.3998 1.719
117.4301 1.510
117.4604 1.198
117.4907 1.719
117.5210 1.146
117.5512 1.406
117.5815 1.458
117.6118 1.354
117.6421 1.615
117.6724 2.083
117.7026 1.719
117.7329 1.458
117.7632 1.250
117.7935 1.406
117.8237 1.198
117.8540 1.562
117.8843 1.146
117.9146 1.823
117.9449 1.771
117.9751 2.031
118.0054 1.458
118.0357 0.937
118.0660 1.510
118.0963 1.042
118.1265 2.083
118.1568 1.146
118.1871 1.458
118.2174 1.406
118.2476 1.302
118.2779 1.719
118.3082 1.354
118.3385 1.458
118.3688 1.042
118.3990 1.406
118.4293 0.885
118.4596 1.094
118.4899 1.354
118.5202 1.042
118.5504 1.510
118.5807 0.990
118.6110 1.250
118.6413 1.510
118.6715 1.198
118.7018 1.667
118.7321 1.250
118.7624 1.823
118.7927 0.990
118.8229 1.250
118.8532 1.042
118.8835 1.458
118.9138 1.406
118.9441 1.458
118.9743 1.406
119.0046 1.042
119.0349 1.667
119.0652 1.198
119.0954 2.031
119.1257 1.406
119.1560 0.729
119.1863 1.042
119.2166 1.562
119.2468 1.354
119.2771 1.146
119.3074 1.094
119.3377 1.875
119.3680 1.406
119.3982 1.146
119.4285 0.833
119.4588 0.833
119.4891 1.458
119.5193 1.250
119.5496 1.615
119.5799 1.667
119.6102 1.458
119.6405 1.615
119.6707 0.729
119.7010 1.562
119.7313 1.042
119.7616 1.042
119.7919 0.885
119.8221 0.781
119.8524 1.510
119.8827 1.042
119.9130 1.042
119.9433 1.354
119.9735 1.875
120.0038 0.833
